##TITLE=Sulfur Hexafluoride
##JCAMP-DX=4.24
##DATA TYPE=INFRARED SPECTRUM
##CLASS=IUPAC A
##ORIGIN=NIST, Analytical Chemistry Division, 301-975-3108
##OWNER=COPYRIGHT (C) 2000 by the U.S. Secretary of Commerce
##DATE=00/02/01
##$SPECTRA VERSION=1.10
##$UNCERTAINTY IN Y=2.0 % relative (B=1.0E-04,C=2.6E-08,D=5.6E-11)
##CAS NAME=Sulfur hexafluoride
##CAS REGISTRY NO=2551-62-4
##MOLFORM=S F6
##MP=-50.5 C
##BP=-63.9 C (sublimes)
##$NIST SOURCE=QUANT-IR
##SPECTROMETER/DATA SYSTEM=IFS66V (Bruker)
##INSTRUMENT PARAMETERS=KBr Beam Splitter; MCT Detector; Multipass cell
##STATE=gas
##SAMPLE DESCRIPTION=Sulfur Hexafluoride Primary Gas Standard
##PRESSURE=101.3 Pa
##TEMPERATURE=23 C
##SAMPLING PROCEDURE=1 L/min Flow
##RESOLUTION=1.9290
##DATA PROCESSING=Boxcar Apodization
##XUNITS=cm-1
##YUNITS=(micromol/mol)-1m-1 (base 10)
##XFACTOR=1.0
##YFACTOR=2.9103E-11
##DELTAX=0.9645
##FIRSTX=575.652
##LASTX=3974.604
##FIRSTY=.0000135
##MAXX=3973.64
##MINX=575.65
##MAXY=.029404
##MINY=-.0005572
##NPOINTS=3526
##XYDATA=(X++(Y..Y))
575.65 464685-552097 1004139-673191 722783-66658
580.47 996166-401735 877204-819054 938403-498456
586.26 1204254-356333 1576764-162388 2224232 343168
592.04 3015663 1391306 4659678 2953927 6547482 4953339
597.83 9097043 6920764 11332958 8830169 13407944 9680973
603.62 14413254 9009984 13814896 6325468 12222192 2387150
609.40 10835690-920067 20713188-2027775 78044961 97087001
615.19-19146457 14909502-4133017 12903924 3219808 15209923
620.97 8658836 17593730 12175028 18568594 13251449 17819712
626.76 12361127 15365222 10023587 12356121 7160036 8923279
632.54 4402826 6263643 2287418 4215873 741444 2613221
638.33-163399 1876328-604596 1372734-862546 1177155
644.11-951077 976831-916153 891348-901664 857741
649.90-912641 847973-879254 823599-711216 802653
655.68-728114 722231-678620 668226-734760 716128
661.47-641120 692996-504633 530319-532017 412772
667.25-973085 645216-766448 697559-617552 681840
673.04-623212 652525-583123 538506-520563 573347
678.83-548087 549541-574673 567210-595383 590734
684.61-532413 489357-405727 515146-508993 403546
690.40-525051 554185-448035 542206-463258 512209
696.18-416276 566531-470564 508482-446615 429003
701.97-453285 530745-402086 516083-468478 416297
707.75-370437 472859-457829 511437-415754 442325
713.54-429508 448742-381694 423387-339289 466324
719.32-410734 454914-452660 372145-366016 514466
725.11-423574 438731-370853 443963-363696 394527
730.89-389991 403192-398446 419927-364337 355838
736.68-310785 386287-314199 370823-438323 394975
742.47-405501 364244-426090 430957-385289 369533
748.25-303723 387485-337031 304669-390941 384009
754.04-370087 364282-387608 363994-413184 330716
759.82-343987 351032-405859 364443-349859 353465
765.61-360481 290459-356141 314980-413508 272211
771.39-397891 310934-367361 369978-393750 376488
777.18-396880 310177-375133 345969-427750 317442
782.96-388769 322882-382706 332638-357603 310133
788.75-359261 268135-367997 361223-371334 337329
794.53-361383 364077-405733 236652-377435 331168
800.32-376217 321533-364496 328412-382304 357880
806.11-365623 347717-372747 356026-371591 342369
811.89-335073 376669-324059 335538-375082 306071
817.68-368229 470014-358168 366440-361503 418869
823.46-408830 400676-375411 369055-429349 413944
829.25-321651 391750-356243 359860-448562 412752
835.03-376010 425697-327662 422323-362951 416253
840.82-451046 446020-384966 479998-287069 607063
846.60-284913 539433-228681 611832-172856 749178
852.39-146870 714433-84676 744182-87481 761598
858.17-75885 810723-104393 761372-155107 762243
863.96-76919 1024564 295136 2015531 1252370 3300452
869.75 654330 434288-163726 619290-85174 818329
875.53 90831 1049296 247743 1220149 368134 1346911
881.32 450131 1352894 422774 1376491 332266 1289687
887.10 195510 1133926 8647 990034-122635 879532
892.89-243759 735775-415419 692009-484453 666986
898.67-521986 664418-547807 655198-634105 687571
904.46-574625 753987-593725 825789-567541 893333
910.24-521111 992546-476293 1163984-288572 1419079
916.03 76926 2174986 1051002 3919572 3603279 7834506
921.81 9026167 15053363 17603853 24573899 26676130 33277436
927.60 34564672 37668080 45791182 28489025 31164129 32830045
933.39 26669473 31033937 39076736 61739780 91238381 141290805
939.17 202550252 299850568 401767109 528108131 624953185 733009825
944.96 767182638 828571325 1010329330 496661477 547567711 403577934
950.74 144072236 15543240 12147867 2280627 6773440 554830
956.53 4350303-95778 3198730-318712 2565771-326524
962.31 2163830-306741 1908927-192357 1784474-61156
968.10 1705277 96136 1731397 315664 1839288 594037
973.88 2024632 989901 2406889 1560582 3014747 2404480
979.67 3998937 3566966 5025357 4547626 5545418 4474493
985.45 4793885 3485794 3355546 3026308 3860947 4589099
991.24 3954033 3310768 3992526 2898141 2898878 1531617
997.03 1604635 672014 1030107 306363 747165 110361
1002.81 554981-21730 404460-92188 344163-139809
1008.60 256769-172715 249110-178936 225417-177699
1014.38 245427-165711 195107-166699 195301-145037
1020.17 211130-142879 197733-117491 181823-135190
1025.95 160508-115482 190926-93030 167553-96386
1031.74 153724-83480 118658-82126 121960-86992
1037.52 119833-58010 96019-98295 118604-79114
1043.31 101145-91113 94488-76136 70391-90793
1049.09 58442-65129 110718-66304 73137-51091
1054.88 91900-61692 74640-89240 44013-80812
1060.67 87749-65315 62403-67421 56822-70812
1066.45 60347-80759-22197-64086 72552-20164
1072.24 21858-53025 28992-47988 23934-77520
1078.02 57757-23023 23652-25791 50440-29069
1083.81 52640-39621 43802-23232-6139-52821
1089.59-31005-36617 57111-36654-9207-47488
1095.38 17971-34502 14712-50871 40097-45177
1101.16-7574-56271-18441-30391-40884-36404
1106.95-14211-16190-10079-24762-6642-17678
1112.73-4721 73 126-24225 6270 8480
1118.52 1587-27636 11538 6184-10481-7641
1124.31 2099 2755-2465 10749 18282 37007
1130.09 20484 35351 23133 50923 54325 49079
1135.88 41246 53480 483 24949 34268 5463
1141.66-10786 8507-7962-3021 1497 19019
1147.45-20941-5298-28287-7656-43921-12061
1153.23-36453-12689-51675 6059-7646-4798
1159.02-5158-10678-48860-488-57512 887
1164.80-30051-17405-39029-1475-47897 1892
1170.59-28820 3841-23781 12970-48294 15978
1176.37-27291 9198-51064 17032-43880 26084
1182.16-19392 22881-46764 26236-44562 15895
1187.95 2491 15798-21598 39987-20768 20955
1193.73-25071 26394-23953 33339-59284 30770
1199.52-9776 18954-59091 33701-27424 19701
1205.30-5804 40024-37419 50350-17109 30629
1211.09-25141 55928-34183 50913-10189 65514
1216.87-19113 45618-36451 38524-33879 64549
1222.66-9747 64658-25614 46279-26786-4712
1228.44-37584 76650-10238 51495-29846 64237
1234.23-8701 59969 3800 95732 25355 126032
1240.01 72455 165849 151664 217272 171750 274510
1245.80 263513 329212 271350 337668 312835 402955
1251.59 421581 520907 540308 588904 510205 526767
1257.37 229952 406128 252996 393841 264825 402930
1263.16 299900 385577 216551 290840 123239 205959
1268.94 43918 134718-16201 82359-25267 50924
1274.73-13279 85755-20412 91629 10348 117785
1280.51-12039 145392 91327 60649 44649 69594
1286.30-5508 16944-53810 1516-51667 35299
1292.08-41478 22926-64948 29263-62379 42012
1297.87-58696 41239-39824 26086-46303 40834
1303.65-59729 28600-45151 45873-36778 63621
1309.44-38953 33685-49846 42405-49942 50465
1315.23-71734 27343-49078 12463-42932 21372
1321.01-44976 58727-36519 62041-43592 46303
1326.80-44698 43481-54237 37953-17486 65146
1332.58-43336 46157-29664 60007-34346 66776
1338.37-73842 49495-76703 3767-106345-12052
1344.15-69042 1470-93343-2055-125991-54691
1349.94-110583 17590 37388 303081 355317 438004
1355.72 237668 185737-34381-30674-210103-75178
1361.51-154620-38677-83149 51253-16801 81485
1367.29-47205 68487-14312 114572 29642 118157
1373.08 15131 125772 15323 78330 2293 115723
1378.87-9842 86086 12109 99493 46372 160410
1384.65 80271 245213 177361 222126-86336 53764
1390.44-54162 90429-46651-7777-62345 98298
1396.22-25933 76561-91141 92472-20058 85819
1402.01-39019 48595-101943 66214-70199 65482
1407.79-49537 52839-63701 28991-51347 31899
1413.58-47113 24947-80470-15094-85572-242542
1419.36-100738 41482-90115 35819-122374 42658
1425.15-78664 63033-85443 33193-132336 39831
1430.93-68083 17368-60439 49194-79969-199271
1436.72-92331 67126-60488 60263-70145 60859
1442.51-60909 52839-76910 68977-102327-10962
1448.29-31686 50827-52610 36695-25227 21881
1454.08-40979-65406-425722 27702-151026 77342
1459.86-85515 48657-56002 71587-177087 6367
1465.65-20418 31640-21974 41134-42473-67090
1471.43-211192-80183-108335 74293-170328 86429
1477.22-61649 76061-58675 79256-64931 86058
1483.00-72389 58359-64467 15673-109882 64554
1488.79-173902-5245-91969 90667-80621 100036
1494.57-168957-168425-23434-46002-110267 87231
1500.36-86572 72323-96541 109332-271565-195858
1506.15-384014-7760-89955 22206-52818 14505
1511.93-117837 77801-106080 74745-173918-11860
1517.72-88193 36882-265657-198572-134522-4149
1523.50-49050-98671-71046 18599-98663 31160
1529.29-46712 14720-67172-47716-191047 78273
1535.07-92054 63570-96960-289172-374441-50089
1540.86-234719-82448-33392-36156-82664 102288
1546.64-17196 112760-20556 88103 51856 153807
1552.43 68714-17249 106586 232736 78961-95909
1558.21 41942 19383 258225 550570 419573 567079
1564.00 492156 743831 634807 849004 724951 759760
1569.79 942467 1034968 1005656 1147588 1145317 1041154
1575.57 837626 1461000 1217910 1467011 1276985 1512308
1581.36 1315435 1626658 1360817 1663475 1128765 1810603
1587.14 2159224 841230 1192053 1088681 1221139 1265071
1592.93 1103402 1172930 1083536 1080777 925489 894824
1598.71 704383 702851 540487 558355 382936 454134
1604.50 311779 365734 226409 296004 137792 226093
1610.28 127924 177439 54910 112640 65889-70098
1616.07-337680 149216-52435 127477-35753 123850
1621.85-82285-39056-10125 79712-11070 30097
1627.64-37184 105169 9003 107447 10590 117807
1633.43-11483-221501-98921 106209-51954 133254
1639.21-44371 107322-14658 88121-43289 42350
1645.00-299115 15079-142998 53836-59695 83190
1650.78-195721-536653-399331-40405-91223 70200
1656.57-86229 71522-48263 63331-68906-30098
1662.35-177519 94927-126284 64318-88143 79017
1668.14-269228 7144-140020 3979-92582 67830
1673.92-271858-78974-58301 22155-72042-6709
1679.71-116087 66499-183086-58559-544186-177347
1685.49-7275-21911-59300-4567-54823 15680
1691.28-34202 5327 19966-120705-498230 128188
1697.07-37557 130791-414898-115860 89407 128751
1702.85 12463 132482 96815 175977 282111 454132
1708.64 509069 742026 924516 1221817 1450796 1581780
1714.42 1813836 2090117 1728099 2070009 2447550 1198133
1720.21 1307116 1416883-89576 98279-115726 81512
1725.99-114824 53049-125918 3653-143366 56012
1731.78-211490-212664-353196 13069-91219 20794
1737.56-92868-87941-183563 75053-137510 5550
1743.35-108014 37101-86118 35437-115240-13671
1749.13-57300-137717-139362 80378-98910 78274
1754.92-101939-15042-84418 70310-77686 102312
1760.71-201770 58592-50923 49373-66710 57128
1766.49-102359-69205-35417 19776-124142-112216
1772.28-222154 100009-115769 43210-98172 53198
1778.06-81965 52217-112202 79645-76867 71098
1783.85-144708 68026-72291 77334-61601 92628
1789.63-114468 58747-224701 20980-51048 39887
1795.42-73675 67352-54192 20973-87899 59977
1801.20-98717 65534-75799 69298-55987 58804
1806.99-93861 76389-78442 46862-56032 38456
1812.77-51057 55695-67472 67737-57783 84398
1818.56-76692 52478-58278 58564-53015 60450
1824.35-127588 70935-67770 48445-88965-21773
1830.13-71202 65323-79955 61294-67754 60274
1835.92-80576 51791-56869 55054-79835 30129
1841.70-52968-46265-220063 69934-112587 36576
1847.49-104724 32856-116948 41633-105633 22214
1853.27-113666 35367-120576 9241-134048 380
1859.06-158961 30541-100842 31016-107359 12782
1864.84-126293 15331-137232-12194-195466 23377
1870.63-132980 2834-176420-38914-187858-67304
1876.41-216692-84646-248554-132410-235219-154274
1882.20-318837-162663-350662-190101-359355-213676
1887.98-403034-257746-369619-223482-378384-226851
1893.77-385473-258311-351053-190358-388185-325431
1899.56-340286-84593-243743-80474-101601 30853
1905.34-166098-16732-137689 2064-140213 17175
1911.13-106152 25398-117256 29304-98783 39031
1916.91-167112 11350-96391 28450-94948 10826
1922.70-83071 46176-78766 19966-112439 29491
1928.48-109485 29449-101370 32965-106496 42869
1934.27-115775 36188-100394 33681-75955 31430
1940.05-104644 21597-126835 56520-102193 24997
1945.84-106645 35018-72886 39376-78953 58285
1951.62-67675 51653-91797 55914-73378 43407
1957.41-92129 49561-85724 39853-84199 35540
1963.20-98307 44506-82315 41228-108798 50123
1968.98-81377 34390-98710 37627-60630 51487
1974.77-78981 68699-96067 63252-83977 52285
1980.55-94093 57819-64541 63280-84314 54762
1986.34-92305 45064-86296 57364-72800 23497
1992.12-73783 68769-89542 71896-78896 52448
1997.91-77352 77222-77332 68928-69469 78540
2003.69-74771 64902-91125 32129-84803 65011
2009.48-70278 65638-78754 54635-73336 60269
2015.26-82586 53928-80310 56323-103346 48760
2021.05-77885 62799-74744 53304-79040 54932
2026.84-53126 46907-88766 56769-78292 61443
2032.62-89779 56318-94451 43296-87257 57433
2038.41-98583 53942-103337 43849-111547 50098
2044.19-83309 46149-72039 43841-102061 56652
2049.98-83448 38367-90571 47276-101553 33331
2055.76-105031 27093-104687 45347-76326 40434
2061.55-88175 33503-91374 48328-106121 40711
2067.33-76481 42534-102130 44319-105054 48533
2073.12-106000 40410-102584 37940-85203 7660
2078.90-99564 29037-65809 47593-110595 31256
2084.69-84789 71003-105763 32862-96893 71402
2090.48-101097 43021-95730 78543-61342 43159
2096.26-82796 34161-35285 25121-85073 33733
2102.05-30404 73724-98246 38973-54912 96038
2107.83-113525 54523-67271 134709-122652 55092
2113.62-100607 161926-102776 54761-108609 137168
2119.40-61182 46339-100887 127525-32103 43383
2125.19-98649 78176-13301 36647-74755 68719
2130.97-23174 39650-76783 71768-67119 58781
2136.76-80435 35317-63672 55244-78510 52646
2142.54-81167 61247-84462 67429-40700 69536
2148.33-86532 67738-51320 50732-65026 93179
2154.12-46131 55742-69550 117401-17786 39314
2159.90-72034 114440-45567 46133-44192 121361
2165.69-64633 34459-20916 141329-90055 40564
2171.47-18113 120877-93270 77574 22276 84255
2177.26-96900 108420-21212 44279-86112 116115
2183.04-53187 68787 3261 105078-92557 22180
2188.83-38435 80724-64390 103846-32252 45441
2194.61-86166 84163-63546 54429-51926 102736
2200.40-81116 80197-33822 60383-91764 75393
2206.18-58150 54432-62972 82753-59437 74387
2211.97-65300 73438-50235 82001-60344 63473
2217.76-45163 79883-52244 96941-42086 76136
2223.54-51048 85978-36112 80659-31126 93099
2229.33-50785 56904-83474 63488-60494 54604
2235.11-80950 39186-99898 65498-85775 19535
2240.90-78967 58279-65755 47575-74408 41756
2246.68-86753 46180-91052 69125-102427 49171
2252.47-79108 67213-80864 46947-94759 49104
2258.25-90617 53027-85735 61678-96101 59351
2264.04-90963 44431-94933 35690-85681 39169
2269.82-92326 44975-72567 57347-90905 40699
2275.61-98066 50209-112109 47379-87970 58773
2281.40-100369 45054-90959 33743-84742 24813
2287.18-121906 36580-81030 46331-85435 45547
2292.97-91954 43186-93998 20132-115482 24159
2298.75-96466 19380-128199 10462-67483 7901
2304.54-89278 14541-134576 14963-140777 20562
2310.32-162815 44427-202095 55433-233827 24047
2316.11-235198 22270-259464 7534-261980-17518
2321.89-297085-43920-278371-73131-310961-114970
2327.68-344426-120417-326416-147928-352033-131482
2333.46-338759-190181-355501-187089-339339-161657
2339.25-327722-165669-294323-126601-268595-116340
2345.04-234420-52695-157221 10171-143436-36226
2350.82-189511-73526-273404-158240-335353-201652
2356.61-372481-241614-412919-261653-412508-278210
2362.39-418061-258212-381693-215854-352669-200015
2368.18-295795-169745-263868-109051-236957-61286
2373.96-176687-32450-144001-2570-120907 14480
2379.75-114389 28141-106615 28093-98123 37842
2385.53-95306 24323-90637 36415-110661 38274
2391.32-103235 52116-110052 58570-88125 56551
2397.10-114327 44338-86087 36073-105731 37222
2402.89-81383 40443-89801 45131-108242 40959
2408.68-92843 22092-108135 55266-106881 48285
2414.46-85965 49726-90299 40405-97969 40235
2420.25-116795 45396-96247 32498-106062 26042
2426.03-86740 37585-101301 44047-105581 28003
2431.82-99089 38453-113051 38235-97104 32969
2437.60-83871 17782-116985 23678-110317 21614
2443.39-112533 33371-89014 26537-105935 41209
2449.17-119603 28702-106323 40047-97624 29403
2454.96-107669 32798-118493 35189-84064 42515
2460.74-99215 25620-90865 45265-102346 35436
2466.53-106184 37057-87902 26702-97845 33017
2472.32-96692 26435-96077 35113-92724 30828
2478.10-124295 17021-94332 15138-84276 43144
2483.89-103916 37308-86940 46267-86368 32358
2489.67-85141 26149-97260 51068-84055 36753
2495.46-102959 44076-101979 34360-97796 36638
2501.24-75557 39229-86754 44671-80584 23942
2507.03-106802 13662-91660 26504-81117 51234
2512.81-94339 26103-91845 23623-113847 31630
2518.60-66676 38582-114391 23612-96228 25999
2524.38-93836 31255-82464 50094-81681 32520
2530.17-109770 46895-100653 26708-110550 26559
2535.96-108865 42848-81692 37377-102427 50368
2541.74-94167 32499-94279 49505-115410 40318
2547.53-89347 43486-113413 33401-94708 24807
2553.31-100262 29577-87203 36733-94091 30688
2559.10-99371 13983-108793 46517-117612 18939
2564.88-111095 27298-123232 30082-128124 23839
2570.67-108521 42428-105546 30468-126779 32997
2576.45-108665 16509-96406 34957-117067 29723
2582.24-117290 27560-94002 11969-134667 15232
2588.02-119456 9484-116722 16889-114107 29124
2593.81-124085 10045-125932 28256-123366 7817
2599.60-124445 4051-109017 4811-131145 10373
2605.38-120868 2072-129682 8367-122250 21842
2611.17-146108 5251-118263 23295-127787 3963
2616.95-131793 1268-116379 13077-125043 756
2622.74-112093 102-134616 20270-122982 6619
2628.52-127697 24522-128022 15273-132492 17816
2634.31-125207 8752-113795 24191-125950 22770
2640.09-110040 5202-114448 5989-107659 51164
2645.88-105612 11595-113165 24862-140508 34683
2651.66-128212-4507-117009 23784-107188 18709
2657.45-134902 37523-83477 9068-105029 25169
2663.24-137377 21325-115015 23485-114962 49348
2669.02-113851 12128-133234 35648-115253 13364
2674.81-131883 25344-83990 10125-126801 28804
2680.59-123443 12783-116508 33690-134239 18954
2686.38-103582-5968-102970 17143-108349 13169
2692.16-113107 24616-107994 14169-135993 2101
2697.95-129463 27474-126223 57707-48432 71865
2703.73-51856 35425-159880-24624-137320-5579
2709.52-103545 47547-95982 15189-128086-25216
2715.30-130777 7762-119101 10171-100565 31467
2721.09-118151 13577-117644 20205-115187 13961
2726.88-122091 25075-111285 15831-104757 27318
2732.66-100033 27867-118716 4759-126076 13463
2738.45-64101 36669-93107 33393-123787 12884
2744.23-118826 24786-115669 30607-116617 14437
2750.02-101167 12590-111526 10099-90898 26579
2755.80-100397-16521-108343 11319-90434 22438
2761.59-111587 37170-109469 28522-98544 14999
2767.37-137447-3606-114741 34692-117466 20146
2773.16-121942 29150-113646 24723-114987 13413
2778.94-134143 9097-108898 8118-112147 16470
2784.73-112984 18365-100508 33399-110319-14879
2790.52-123473 20411-135283 6890-102636 15540
2796.30-91324 33689-127702-12611-106559 29120
2802.09-131859 19562-112056 11078-106297 11059
2807.87-123948 13730-104693 15301-101360 38826
2813.66-107368 18486-113577 14452-116815 14882
2819.44-104480 6896-119335 2875-119670-2122
2825.23-98958-1666-109195 44755-100836 29097
2831.01-94360-6324-93017 20397-111508 34704
2836.80-78241 17849-119870-14815-156917-8467
2842.58-138255 37886-70183 90228-19365 56376
2848.37-103836 18226-121908-6105-143342 51642
2854.16-47615 69851-128995-25772-163375-5043
2859.94-97747 59617-83328 36154-98696 18940
2865.73-108449 28800-88524 23066-101980 34519
2871.51-99425 34086-89955 47883-87298 37111
2877.30-83103 28259-90532 37082-103882 34042
2883.08-106849 35438-106647 38118-101451 57656
2888.87-74835 35634-111538 50819-119174 47038
2894.65-88365 31503-94662 60306-83701 32675
2900.44-84456 31246-76141 31207-119857 46486
2906.22-111923 63942-115500 15728-86296 52830
2912.01-90048 30843-74096 62182-73786 30322
2917.80-115542 25542-116338 54811-90248 52677
2923.58-99491 65807-102228 59724-98944 35494
2929.37-92592 14910-81522 47349-66973 41606
2935.15-123576 57974-84044 48433-115138 31111
2940.94-88939 46416-93264 28034-84337 49746
2946.72-88249 15516-84874 42761-107734 54703
2952.51-100128 43479-86230 46465-80034 45654
2958.29-67382 61547-153700 24919-61038 56808
2964.08-84792 25978-76154 41937-68666 18455
2969.86-95257 57919-105758 29612-97433 35462
2975.65-61000 81935-74317 61643-80494 54588
2981.44-67101 26969-63166 40212-73261 57440
2987.22-110075 38166-66303 48514-95409 25157
2993.01-90039 43993-99545 34247-64063 44220
2998.79-71071 24734-80644 47145-80343 44583
3004.58-99373 40665-72623 50080-86542 57779
3010.36-94515 37316-60480 44076-83253 21170
3016.15-76791 44621-81089 34371-100312 57400
3021.93-97810 36947-71981 36313-74697 48827
3027.72-74356 37645-67481 43815-85904 34799
3033.50-74977 49573-70448 62329-99791 75131
3039.29-61269 53113-73599 38667-83468 55923
3045.07-70725 64671-59124 53102-73059 63257
3050.86-80917 9696-121806 62184-80747 49518
3056.65-92259 55015-82473 26117-61550 27351
3062.43-122090 30234-87227 6498-89805 32686
3068.22-115820 46207-78681 25120-100020 42447
3074.00-98034 35643-86720 43426-86676 35827
3079.79-103676 15493-86561 21334-86915 25177
3085.57-116478 21096-80611 49019-112138 49030
3091.36-99419 45891-90715 11398-104914 35614
3097.14-84734 42315-93630 28013-121291 17844
3102.93-115477 26228-89125 31173-101098 16213
3108.71-89182 19193-89461 47039-79751 44007
3114.50-101118 31541-64103 3759-98407 74232
3120.29-90503 40563-86325 50403-95503 11577
3126.07-100552 42448-105910 21216-74697 29239
3131.86-113153 27206-103893 33588-59705 67594
3137.64-75239 44008-108860 15584-70220 55794
3143.43-50633 56025-85899 43528-90112 34262
3149.21-92174 44519-70196 46268-87610 58387
3155.00-86484 21010-66783 21905-51416 60392
3160.78-82654 51600-58015 31584-87522 68694
3166.57-103041 73818-87309 55582-97345 29460
3172.35-72983 52974-102799 80375-70125 71580
3178.14-57908 59292-80281 71355-94062 65294
3183.93-79293 42471-73489 66462-87258 38807
3189.71-76759 14409-63722 47004-57934 70723
3195.50-90149 13199-119682 50782-81347 72349
3201.28-104324 44642-74864 57189-112029 19559
3207.07-84617 21242-104083 23669-50149 32165
3212.85-96552 59902-80546 55306-106673 18045
3218.64-95547 6226-153565 7014-105918 49728
3224.42-45728 57184-49576 47963-134806 15894
3230.21-111990 26596-85357 27262-112937 46789
3235.99-87763 39231-58159 71328-66098 47632
3241.78-85421 56176-126005 10552-142184-28340
3247.57-120282-787-101090 39225-66435 47853
3253.35-91382 13693-93016 110691-32781 99690
3259.14-43360 31831-103620 24187-111846 13231
3264.92-125424 52334-91604 49896-90050 73862
3270.71-73535 77847-75834 67150-99183 42492
3276.49-91165 34889-93600 33384-67233 69301
3282.28-48131 92053-58886 79649-26201 67346
3288.06-91779 49942-77897 79323-73219 73011
3293.85-88312 69605-45018 35382-51955 60240
3299.63-80422 74075-47977 42385-44112 91760
3305.42-60830 83642-65614 92595-72526 98073
3311.21-52702 81716-65265 78340-46439 41901
3316.99-45523 40982-35186 87654-72522 46163
3322.78-66996 75902-24761 109226-38354 54629
3328.56-56580 64919-57306 66626-70862 61511
3334.35-48260 71907-36417 71444-46956 61872
3340.13-58873 57204-60295 82077-58782 85561
3345.92-76780 52958-67702 61706-53172 72987
3351.70-70806 38539-74835 48414-91746 35085
3357.49-66974 20986-68103 40814-98027 26004
3363.27-99256 19741-101217 24565-80509 45572
3369.06-71336 28711-100264 33029-93549 44185
3374.85-78542 51837-95394 36331-118759 27288
3380.63-102014 3594-112901 36938-91355 32830
3386.42-124969 40093-101952 16770-87861-2949
3392.20-97915 37523-110371 28610-119188 33010
3397.99-91752 30892-82530 56489-93551 23255
3403.77-111175 35596-106476 36739-97360 1682
3409.56-128959 32506-86442 31585-88128 24418
3415.34-85663 47032-76511 42714-98740 19773
3421.13-107331 39985-75769 49295-83351 33228
3426.91-80480 7157-93161 45455-87509 18603
3432.70-73870 46955-74848 24952-98819 56133
3438.49-70621 36480-80696 27681-93717 1971
3444.27-52975 54729-97879 44130-73825 54523
3450.06-63874 72640-35793 54592-83211 82033
3455.84-73357 40532-43112 45027-75789 40873
3461.63-68406 47704-101534 61539-19607 64366
3467.41-110488 20050-49610 92289-66504 14050
3473.20-93133 68560-66794 94387-64039 34932
3478.98-96210 40571-42983 75007-82348 26326
3484.77-66539 58774-42328 32961-71209 44158
3490.55-62383 43558-102428 57306-73048 34536
3496.34-101673 50367-73736 66193-120247 41499
3502.13-79966 46179-109557 60973-87919 61951
3507.91-74651 12631-49417 24279-81140 36553
3513.70-91725 49958-76124 28406-64267 25032
3519.48-110794 3621-79760 13922-94816 16167
3525.27-111239 15292-89221 22109-43460 37948
3531.05-90178 17016-89525 60303-86624-5052
3536.84-81933 26470-118955 28714-77139 26854
3542.62-84169 39826-68002 20394-95521 43115
3548.41-85608 29198-131077 24421-114181 11302
3554.19-148931 34760-104507 62725-81089 34671
3559.98-83715 44963-72845 1267-74357 3696
3565.77-117028 1339-132093 56479-84809 64405
3571.55-67912 75271-83248 48410-42868 37107
3577.34-62842 19568-44192 65302-51978 83321
3583.12-23583 69538-149863 2019-75429-39709
3588.91-11158 20789-34967 53391-62311 50932
3594.69-94676 45775-80174 35009-5884 40097
3600.48-65178 60942-58160 69173-25826 69889
3606.26-123439 62307-157393 30300-9939-5504
3612.05-90877 51661-91647 65902-81045 15840
3617.83-96008-58312-34158 27733-40359 51840
3623.62-29822 46368-72770 8579-184632-182951
3629.41-103396 41682-69674 22505-109415 95083
3635.19-44737 55591-73769 31572-47267 60696
3640.98-87233 36749-55417 4277-54051-59120
3646.76-111618-37094-238178 11622-189959 101570
3652.55-96533 74315-142081-84476-82111 32533
3658.33-79417 70105-65709 72769-48191 66375
3664.12-80352 28463-32212 24621-233884-13110
3669.90-388328 72592-114482 26390-216704-194728
3675.69-196380 52057-123243 16675-142314 38974
3681.47-104642 49976-125691 87957-114360 87384
3687.26-418479-105820-109480-78227-75092 54303
3693.05-104707 35731-91456 54739-91930 7947
3698.83-78844 72113-175374 38985-86713 22150
3704.62-105618 2923-88259 19958-220706-1018
3710.40-129399-205939-70106 11444-71543 28612
3716.19-98959 1542-120193 8425-66653-9447
3721.97-165696 15137-131063 27178-196354 35209
3727.76-81263 19290-79362-105481-268942 108836
3733.54-224552-14742-250012-36770-125406 48101
3739.33-122180 34481-143721 52898-498846-357144
3745.11 2335-59201-45343-240870-329713 153623
3750.90-455303-180515-64034-8795-72214-34358
3756.69-56690 50930-153714 23204-69769 27644
3762.47-75788 57312-162309 25148-80728 41309
3768.26-117391-49205-59484 37840-35690 30449
3774.04-52527 39157-83165 40895-80189-941
3779.83-52574 91790-34798 27360-91120 53855
3785.61-73600 13562-102547 55290-18985 67289
3791.40-55310 56805-58951-6912-150951 1874
3797.18-67495-6326-10120-270029-252222 74142
3802.97-140614-20380-72158-88132-140512 47693
3808.75-126740 88541-82275 94802-143569 68125
3814.54-318840-246617-41546-12469-50897-99778
3820.33-238885-55842-81857-6824-72170 7863
3826.11-106762 12432-103750 38011-105797-107437
3831.90-73909 19369-166410-28017-68439-366588
3837.68-208050 11171-188497-36087-117635-95439
3843.47-123631 13099-111568 6649-114719 6032
3849.25-125481-74887-459149 7279-716162-164756
3855.04-95718-26011-112552-12285-145152-25251
3860.82-175241-31960-123686-99165-226122 32247
3866.61-152221-572-308657-183012-114363-8136
3872.39-134592-90020-128606-33205-127880-38586
3878.18-131947-126840-191394-6395-153064-10719
3883.97-192727-251598-117523-34027-140164-12243
3889.75-195538-112095-102906-56571-140067-44827
3895.54-116953-56020-115780-159941-105771-101247
3901.32-225094-24040-277938-45865-143534-25014
3907.11-125121-20622-116324-38185-101865-24555
3912.89-125303-31434-143084-80389-177460 18681
3918.68-130602-21481-107468-25098-137028-9666
3924.46-162580-3685-114805 19502-123035-16247
3930.25-113051-55474-141613-40841-127157 21545
3936.03-87808 9617-73794-29655-80504-19527
3941.82-157636-4307-68364 46770-100085-30878
3947.61-69135-20360-133506-11453-103937 5984
3953.39-85114-6658-109545 29425-104935 10890
3959.18-99975-18649-125071-3803-78634-12745
3964.96-123233-9222-78792 629-105655 23874
3970.75-86724-3548-64788-2172
##END=
