##TITLE=Ethyl tert-Butyl Ether
##JCAMP-DX=4.24
##DATA TYPE=INFRARED SPECTRUM
##CLASS=IUPAC A
##ORIGIN=NIST, Anayltical Chemistry Division, 301-975-3108
##OWNER=COPYRIGHT (C) 1998 by the U.S. Secretary of Commerce
##DATE=98/10/1
##$SPECTRA VERSION=1.00
##$UNCERTAINTY IN Y=2.8 % relative (B=1.9E-04,C=3.0E-09,D=2.7E-14)
##CAS NAME=tert-Butyl Ethyl Ether
##CAS REGISTRY NO=637-92-3
##MOLFORM=( C H3)3 C O C2 H5
##MP=-94 C
##BP=73.1 C
##$NIST SOURCE=QUANT-IR
##SPECTROMETER/DATA SYSTEM=IFS66V (Bruker)
##INSTRUMENT PARAMETERS=KBr Beam splitter; MCT Detector; Multipass cell
##STATE=gas
##SAMPLE DESCRIPTION=ETBE Primary Gas Standard
##PRESSURE=101.3 kPa
##TEMPERATURE=23 C
##SAMPLING PROCEDURE=1 L/min Flow
##RESOLUTION=1.9290
##DATA PROCESSING=Boxcar Apodization
##XUNITS=cm-1
##YUNITS=(micromol/mol)-1m-1 (base 10)
##XFACTOR=1.0
##YFACTOR=9.0949E-13
##DELTAX=0.9645
##FIRSTX=574.687
##LASTX=3974.595
##FIRSTY=-1.02E-07
##MAXX=3973.63
##MINX=574.69
##MAXY=.0013579
##MINY=-7.22E-07
##NPOINTS=3527
##XYDATA=(X++(Y..Y))
574.69-113112-218720-15826-340758-303960-205880
579.51 130192-724010-217716-190182-112522-235614
585.29-794590-175228-80304-356528-10380-278786
591.08 136894-184510-24834-28716-338132-252218
596.86 70358 5452 368-188976-85954-44578
602.65-88142-150208-112482-12340-90702 215734
608.44 136024 250192 134990 105750 74254 50470
614.22 24010 225172 60764 201784 65052 59466
620.01 150892 175982 151914 32874 174502 119720
625.79 162944 147848 140460 149234 177226 296058
631.58 86964 19744 188296 156306 194208 28452
637.36 94210 125348 63902 8864 66418 139532
643.15-53974 57118-35910 221920 106390 73236
648.93 129732-51794 82964 113954-22794 66022
654.72 18406-58736 40758 120050 97808-7650
660.50-39208 34802 101138-7892 11234 73104
666.29 58196 106272 143960 64576 98066 102934
672.08 53684 119270 20028 183222-2656 99324
677.86 180348 139266 115292 266782 272030 300376
683.65 256622 273732 380118 391632 404408 320324
689.43 411248 471836 520312 491340 615188 556626
695.22 614732 660910 721112 689410 646790 794868
701.00 798422 934840 897024 1068822 1013786 1206076
706.79 1264476 1466960 1421856 1694444 1768522 1944256
712.57 2216886 2494768 2709606 3036782 3416412 3829062
718.36 4293600 4821450 5457642 6173364 6910684 7804098
724.14 8916436 9880966 11074330 12331930 13742670 15330830
729.93 17051660 18677880 20383130 21884450 23273560 24328300
735.71 25149910 25484030 25655430 25652720 25901480 26470590
741.50 27237080 26865840 23679050 21790820 21736450 21531530
747.29 21201650 19986370 18147930 16087700 13978000 11737440
753.07 9818658 8248912 6922928 5847068 4923378 4274328
758.86 3713456 3362974 3028542 2820178 2547978 2362530
764.64 2328110 2113192 2148886 2003824 2036408 2000354
770.43 1996782 1949574 1904668 1830966 1947694 1879328
776.21 1780544 1801688 1825946 1763814 1816176 1730688
782.00 1735720 1665172 1706404 1682422 1660670 1664088
787.78 1721104 1665658 1675682 1646200 1677966 1714792
793.57 1673522 1685990 1717048 1785454 1842488 1929414
799.35 1872860 1951954 2075684 2096526 2183556 2254662
805.14 2310510 2383026 2464470 2577564 2753186 2736740
810.93 2924088 2954864 3094874 3113642 3415192 3437320
816.71 3657960 3832096 4163082 4436072 4755746 5127570
822.50 5522876 6230748 6996440 7811778 8880092 10014810
828.28 11540940 13329440 15377550 17585020 20195310 23128640
834.07 26535960 30305670 34619880 39101450 43921220 48816500
839.85 53782310 58345310 62766340 66294750 69203980 71152910
845.64 72879600 74750820 77610790 80656990 82561800 76826850
851.42 70360920 69272820 68681700 67403160 64575720 60275800
857.21 54490920 48358980 41737350 35828470 30393330 25732720
862.99 21633250 18390630 15395690 13039650 10911800 9281868
868.78 7822082 6683142 5688628 5012384 4346770 4001378
874.57 3603838 3375790 3110566 2923692 2829774 2766158
880.35 2624564 2697110 2650704 2764306 2812462 2858288
886.14 2958434 3139604 3454014 3941610 3430082 3255248
891.92 3470070 3604236 3780538 4074900 4160886 4440344
897.71 4725964 5087858 5454486 5884124 6343948 6787188
903.49 7303084 7950000 8461686 8963088 9350056 9711972
909.28 9872646 10029400 10023500 10161050 10338410 10725840
915.06 11182560 11086870 10660000 10666910 11025740 11317550
920.85 11107290 10423920 10155370 9866510 9595272 9529990
926.63 9479588 9640554 9919358 10377530 10908710 11697960
932.42 12508060 13579780 14797430 16252200 17988420 20120300
938.21 22546580 25373710 28644840 32555940 36867970 41855310
943.99 47312170 53513510 60342180 67889190 75967060 84821190
949.78 93791780 102583200 110716100 117406800 122502600 125762600
955.56 127587800 128500400 129683500 132292900 136087200 137047600
961.35 132152400 123147600 115323800 112912300 111385700 107963000
967.13 100967100 90880880 78426990 65369400 52724260 41762930
972.92 32664750 25663130 20406090 16582090 13801260 11841460
978.70 10207810 9058090 8131086 7408846 6840462 6429418
984.49 6008274 5720264 5428938 5345144 5091970 5104046
990.27 4907300 4929986 4865338 4980342 5052458 5143794
996.06 5291258 5515480 5748676 6136378 6494788 6946140
1001.85 7418800 8035228 8732068 9478542 10240830 11163600
1007.63 12166530 13325220 14570750 15947760 17525670 19366390
1013.42 21264990 23303300 25418990 27514720 29400470 31041580
1019.20 32164850 32098630 31784420 31490480 31619670 32468230
1024.99 34506180 34831260 30788800 29872590 29930760 30197630
1030.77 29914180 29385520 28119290 26582210 24916290 23542000
1036.56 22313320 21594510 21146320 21136490 21305640 21928130
1042.34 22626290 23864760 25096250 26753240 28490720 30732820
1048.13 33032040 35797520 38764670 42376000 46245800 50989590
1053.91 56086560 62141320 69063110 77199330 86284390 96946860
1059.70 108853700 122816800 138155200 156079100 176183600 198723500
1065.48 223905900 251371200 280617500 312055700 344527100 378959200
1071.27 412891800 446925200 480166200 511829500 537515600 558292500
1077.06 570076200 577929700 582988500 589930700 595591300 602758900
1082.84 598270100 586496100 555288300 517486900 492188800 467551600
1088.63 443887300 413953500 376221100 331100900 282612600 233813100
1094.41 191433000 156678400 131914100 115683600 107382600 104827700
1100.20 107396200 113156500 122125000 133235100 147018500 162219000
1105.98 179576800 198540900 218842100 239698600 261823100 284156600
1111.77 306884500 329292100 350946600 370674600 386682100 398407400
1117.55 404524600 406557700 405929500 404298900 400952400 395810200
1123.34 384791800 363971800 338443200 322466500 307819300 291202800
1129.12 271143800 245941400 218394200 189563200 162469100 138135400
1134.91 117514800 100375800 87230820 76941840 69735220 64255740
1140.70 60457090 57791110 55961840 55258460 55366940 55813020
1146.48 56798650 57950040 59410480 60823300 62505030 64019080
1152.27 65647090 67070490 68291180 69402860 70521590 71451460
1158.05 72252520 72615940 73041010 72744420 72015280 71153750
1163.84 70261760 69411180 68543710 67636670 66955990 66296430
1169.62 65932420 65688050 65642000 65561500 65854500 66227110
1175.41 67071940 68328510 69979630 71978480 74805600 78398110
1181.19 83078920 88912540 96244720 105121400 116145600 129675000
1186.98 145825400 164805500 186886900 212369800 241241400 272436200
1192.76 305840000 340408500 375912900 411756500 447877900 484525300
1198.55 522569200 561008100 597952800 629094200 651536500 668363100
1204.34 682773700 698636900 711134500 715573800 718594200 705376100
1210.12 679098900 648791300 618857700 584414600 544843800 496982600
1215.91 444803200 390953600 339262800 293636200 255967500 225798900
1221.69 203027800 186125500 174608700 166790400 162247100 159592000
1227.48 158794800 159319000 160572900 162542300 164601600 166962500
1233.26 169376900 171698900 174136100 176518000 178746200 181026300
1239.05 182914900 184459500 185183800 185005400 184334700 182760300
1244.83 180823600 178539400 176209400 174061900 172308400 170491600
1250.62 168757900 166664900 164263100 161409800 158226000 154820700
1256.40 151022200 146725100 142378200 137626900 132978600 127746800
1262.19 122276100 115866000 109239100 103000800 97156900 91336190
1267.98 85683890 79822200 74225660 68650710 63338270 58403080
1273.76 53884420 49623060 45933800 42532210 39590260 36870860
1279.55 34576460 32508070 30662930 28993410 27625020 26322530
1285.33 25242200 24256190 23443740 22525820 21754850 21020540
1291.12 20374930 19782830 19281630 18730120 18301620 17688620
1296.90 17228440 16716350 16420320 16025860 15669820 15189590
1302.69 14650230 13985190 13486140 12829700 12418810 11928000
1308.47 11621820 11268960 11055860 10796700 10656020 10488140
1314.26 10393400 10254120 10208370 10018310 9970614 9831900
1320.04 9796310 9630952 9498828 9314318 9169320 8954146
1325.83 8917924 8789128 8815216 8623810 8518772 8440044
1331.61 8504914 8521960 8614872 8737414 9128320 9442508
1337.40 10115830 10871660 11957130 13183740 15023860 17388590
1343.19 20593610 24620430 29796000 36153180 44115010 53700280
1348.97 64994210 77909180 92707200 108702700 125723800 143412000
1354.76 161140300 178444200 195354000 211858200 228293600 246097600
1360.54 266120300 288430500 307677700 327339000 353646600 363448300
1366.33 348713800 335799400 319396700 302016300 286741000 276104700
1372.11 257538400 238313500 222569200 207307200 192029700 177324200
1377.90 163912300 153148500 145655500 142526800 143910600 149817200
1383.68 159307500 170959500 182788300 194383700 203961100 213174800
1389.47 216323700 215533200 219488600 228132500 238111300 241096100
1395.25 230866600 214039500 208444000 211971500 215256900 212844900
1401.04 202758000 184969600 162716700 138957700 115899100 95594460
1406.83 78933420 65597210 55647360 47895680 42358430 37876520
1412.61 34667230 31901430 29922420 28168770 27091170 25734650
1418.40 26004130 24085660 23375120 22897730 22692840 22616500
1424.18 22404180 22474720 22759960 23120480 23846480 24969100
1429.97 25956840 27374980 29219190 31097680 33182760 35349020
1435.75 38592260 39654720 41754680 43953650 46128480 48297950
1441.54 50555680 52826340 55270730 57539490 59817340 62101590
1447.32 65630870 66460770 66998070 67410710 68006260 68458540
1453.11 69746660 71094340 73318380 76094930 76666300 78482450
1458.89 79446060 80491230 81429820 82461580 83220050 83816340
1464.68 83112270 83049500 84244540 84968340 84550970 81933840
1470.47 79938060 77722490 75831730 73579510 71562250 70470240
1476.25 68576590 67457770 66698530 66477920 66786060 67420790
1482.04 68249890 68887150 68869830 68015340 66743240 65090400
1487.82 63377740 63447940 64707630 65794330 62730040 56800660
1493.61 52722390 52072470 51885240 49385640 47686750 44196530
1499.39 39731430 35526760 30867710 26904880 22819160 20800430
1505.18 18228420 16171070 13250390 11433130 10234090 8834026
1510.96 8339470 7500892 6512180 6358724 5650856 5804658
1516.75 5398290 4641268 4499978 5161158 5289432 4168528
1522.53 4008494 3454796 4265186 3354676 3562272 3311854
1528.32 3268684 2948912 3215000 2969942 3535380 3552532
1534.11 2862716 2921796 2854058 3016112 4647440 4356230
1539.89 3416098 3684126 3605690 2560646 3382872 3029692
1545.68 2679408 2689132 2710734 2811202 2976344 2551938
1551.46 2783242 2658596 3872984 2658506 2849280 3201032
1557.25 4954042 3813848 4828816 3095118 2727810 2816976
1563.03 2861956 3108556 2895266 2829562 2919964 3057064
1568.82 3865952 2892948 3069422 2837188 3232070 2762670
1574.60 4218526 4864628 2847432 3414934 3078406 3362130
1580.39 3274148 3400282 3328854 3447426 3414848 3486284
1586.17 3424680 3491516 3451594 3437022 3408382 3407048
1591.96 3322346 3293688 3218766 3143936 3117116 3013612
1597.74 2968118 2809628 2755818 2608420 2516414 2392626
1603.53 2294252 2143916 2126072 2033374 1991766 1928158
1609.32 1923440 1723398 1870912 1652984 1918512 1481800
1615.10 2585554 3373942 1410552 1920296 1608328 1854986
1620.89 1638942 2098762 2360048 1756452 1861274 1797622
1626.67 2222732 2039314 1960372 2045016 2102782 2135598
1632.46 2276880 2401134 4072590 3040078 2633320 2855244
1638.24 2529762 2869310 2748092 2995416 2917194 3074212
1644.03 3119512 4546186 3473344 3776636 3308264 3333138
1649.81 3214402 3898034 6179370 4986908 3719924 3322462
1655.60 3091896 3169514 3010794 3066232 2978756 2958012
1661.38 3304424 3409280 2632894 3032314 2604576 2994646
1667.17 2636316 3821526 2932810 3048956 2973302 2839220
1672.96 2673728 3786066 3611712 2803470 3048556 3011380
1678.74 3200832 3418952 3108696 3770818 3930846 5787454
1684.53 4839230 3402444 4264662 3981914 4459500 4337300
1690.31 4646932 4503122 4986328 4678728 5952008 7428778
1696.10 5022230 5578246 5240354 7429948 6490076 5172418
1701.88 5140290 5287374 5396682 4975710 5099732 4396426
1707.67 4390210 4179148 4187568 3715548 3646438 3329832
1713.45 3447814 3394996 2694852 4254588 3249446 2595248
1719.24 2282248 2266132 2193202 2235150 2236832 2105444
1725.02 2170714 2142062 2173320 2176452 2437952 2380040
1730.81 2230028 2861988 3873474 3799954 2906900 2688756
1736.60 3048950 2764380 3655586 3322744 3042910 3331258
1742.38 4116988 4372556 3699112 3695568 3845548 4043534
1748.17 4460850 4213552 5275572 4729616 4224332 4415722
1753.95 4216170 4301576 4566560 4353348 4333228 4222498
1759.74 3980660 4459916 3853286 3454650 3390626 3143362
1765.52 2978620 2953688 3290740 2404794 2661638 2522142
1771.31 3168998 2935744 1929966 2278384 2077670 2047536
1777.09 1996676 2099448 2127420 2366776 2151508 2352298
1782.88 2335320 2840614 2732814 2837906 3006660 3277658
1788.66 3392014 3969650 4079154 5054264 4860474 4879124
1794.45 5488978 5772186 6298734 6613070 7334878 7654584
1800.24 8068506 8522332 8785112 9023462 9301602 9454394
1806.02 9642198 9784606 9853274 9989956 10105390 9821918
1811.81 9729944 9360746 9273152 9100990 8949442 8571890
1817.59 8122648 7504988 6994026 6394172 5977712 5490002
1823.38 5283064 5281914 4762196 4558922 4417574 4352686
1829.16 4490618 3887386 3743420 3598816 3506320 3288338
1834.95 3134982 2927280 2794248 2545262 2511478 2221748
1840.73 2365660 2062842 2643218 2857452 2017248 2231592
1846.52 2171914 2250990 2169594 2267188 2208408 2278092
1852.30 2279990 2322358 2292148 2359334 2344542 2396440
1858.09 2386614 2402252 2397394 2357184 2343186 2326872
1863.88 2291330 2323252 2337744 2300756 2419580 2438454
1869.66 2045070 2052318 1956582 1952496 1894688 1868908
1875.45 1817012 1754632 1707192 1732246 1689410 1708204
1881.23 1684290 1688434 1724638 1766022 1730906 1804426
1887.02 1794016 1980792 2097346 1972338 2083510 2173016
1892.80 2269336 2403324 2500634 2572282 2723688 2839352
1898.59 3025626 3158552 3362332 3531432 3785842 4021826
1904.37 4288510 4553214 4914054 5222880 5565674 5991618
1910.16 6339618 6752682 7199014 7619962 8072582 8539912
1915.94 9020710 9833194 10102930 10467210 10980170 11327300
1921.73 11871560 12147010 12365500 12557470 12680540 12668420
1927.51 12621150 12468470 12333720 12061100 11831140 11431300
1933.30 11016040 10490880 9965214 9362282 8926000 8374746
1939.09 7808562 7061648 6439988 5724952 4890244 4336410
1944.87 3911010 3552536 3338406 3240094 3159638 3118380
1950.66 3107846 3145028 3206566 3285304 3378468 3453508
1956.44 3632618 3718480 3835868 3994080 4120182 4220712
1962.23 4335198 4404120 4516924 4521602 4638280 4588074
1968.01 4546428 4523552 4456286 4415942 4287844 4194590
1973.80 3995060 3840864 3740660 3571032 3406152 3194430
1979.58 2946444 2713730 2519218 2300700 2136176 1986880
1985.37 1853404 1726242 1636562 1549944 1462344 1412436
1991.15 1444632 1295190 1250402 1183678 1192034 1157404
1996.94 1118848 1112706 1092082 1071432 1058142 1051656
2002.73 1062796 1033072 1045338 1032722 1070958 1063600
2008.51 1061018 1050214 1085674 1065424 1065426 1079134
2014.30 1103942 1124434 1147132 1148936 1136976 1165196
2020.08 1184136 1178542 1243314 1249632 1306598 1316580
2025.87 1388342 1416294 1463698 1512876 1585970 1633056
2031.65 1715452 1789522 1870100 1979498 2089172 2175410
2037.44 2320064 2420762 2578776 2700874 2817516 2944886
2043.22 3057846 3181392 3287198 3399362 3487908 3568312
2049.01 3650328 3665906 3723120 3702844 3706494 3648968
2054.79 3627480 3533088 3435394 3302830 3123556 2940144
2060.58 2730618 2563394 2399320 2172524 2051312 1849380
2066.37 1713736 1557178 1458402 1348698 1297912 1217854
2072.15 1229772 1168568 1161136 1153976 1157350 1161642
2077.94 1192448 1232240 1274710 1285780 1336294 1374740
2083.72 1388248 1451162 1519056 1564632 1645330 1733846
2089.51 1796414 1830678 1936224 1953588 2095806 2147734
2095.29 2244742 2286788 2428732 2455628 2538968 2595840
2101.08 2710224 2756344 2833492 2836648 2915964 2905020
2106.86 2935714 2877764 2825602 2725112 2632202 2506422
2112.65 2478426 2360776 2313846 2201970 2123642 2042738
2118.43 1986916 1905000 1862876 1804350 1806698 1780706
2124.22 1781800 1763768 1788652 1787900 1824476 1805982
2130.01 1886436 1875022 1927060 1896638 1930496 1960484
2135.79 2025822 2037014 2099196 2075286 2106392 2074060
2141.58 2126198 2122042 2168496 2150732 2184146 2198190
2147.36 2208328 2218616 2274202 2263060 2310468 2353038
2153.15 2445760 2486510 2564336 2573428 2666540 2703714
2158.93 2757860 2803876 2883226 2940998 2975856 2996770
2164.72 3071672 3122710 3187340 3200850 3213134 3239982
2170.50 3316164 3328542 3364338 3412572 3462436 3520256
2176.29 3603514 3622964 3687318 3763104 3860038 3968674
2182.07 4102470 4223280 4375502 4489690 4651642 4764748
2187.86 4932038 5102344 5230428 5364428 5508118 5585692
2193.64 5624066 5677342 5687916 5655556 5667510 5578748
2199.43 5546642 5431266 5337956 5159270 5021242 4812552
2205.22 4645896 4419954 4206992 3983840 3807442 3531344
2211.00 3340126 3138148 2948126 2806274 2661754 2501358
2216.79 2408862 2302914 2284844 2209178 2224420 2172844
2222.57 2203124 2205402 2228624 2236676 2269148 2304274
2228.36 2310794 2389600 2464106 2496936 2602262 2636914
2234.14 2702700 2748782 2793030 2800778 2858106 2803052
2239.93 2839666 2791674 2794126 2766108 2728916 2668888
2245.71 2590486 2510368 2467092 2393816 2388982 2354232
2251.50 2365056 2278194 2287328 2268032 2302270 2311474
2257.28 2394948 2463252 2602044 2664996 2809012 2881248
2263.07 3047702 3175764 3382060 3460296 3565374 3706584
2268.86 3829982 3908560 4066060 4077164 4180398 4207398
2274.64 4229044 4171986 4220158 4145328 4098016 4017964
2280.43 3963690 3880902 3827146 3691812 3659240 3505276
2286.21 3430258 3273788 3108548 2965328 2857184 2727958
2292.00 2670904 2529636 2433734 2265636 2189492 2095738
2297.78 2016014 1868648 1806834 1722276 1705800 1645574
2303.57 1660820 1606690 1640714 1597430 1657266 1667564
2309.35 1694256 1732042 1774862 1823072 1827302 1915234
2315.14 1898028 2000480 2027492 2093132 2159552 2241286
2320.92 2290794 2367128 2388502 2469296 2521556 2554040
2326.71 2650856 2703494 2738282 2803618 2845800 2877596
2332.50 2967346 2942552 2941740 2976054 3019058 3054210
2338.28 3016312 3008234 2950642 2894676 2841432 2791420
2344.07 2737196 2695234 2643356 2577610 2500264 2458734
2349.85 2409906 2335986 2305970 2262482 2205158 2103638
2355.64 2074408 1964392 1884412 1818728 1795398 1740676
2361.42 1739584 1741928 1775146 1749694 1764116 1781042
2367.21 1820360 1839048 1874850 1929214 2019346 2014232
2372.99 2066844 2058226 2144352 2165854 2198710 2274404
2378.78 2305230 2291364 2330136 2317310 2369806 2325520
2384.56 2342220 2327800 2328246 2292220 2280106 2195908
2390.35 2199318 2193880 2139462 2079460 2045662 2009900
2396.14 2005090 1931060 1886142 1875414 1873830 1865972
2401.92 1855126 1826526 1839752 1842352 1851472 1800486
2407.71 1832462 1795282 1826496 1792368 1827842 1754510
2413.49 1805666 1765998 1727056 1741460 1703002 1677768
2419.28 1709350 1652194 1698506 1698134 1697012 1711940
2425.06 1740566 1786320 1802448 1884216 1976594 2006050
2430.85 2104714 2194508 2245454 2336240 2404628 2473858
2436.63 2595218 2630196 2735326 2781620 2844838 2895402
2442.42 2956820 2978504 2999426 2981700 2960446 2965738
2448.20 2951178 2838440 2811840 2749738 2705678 2587374
2453.99 2581058 2450430 2433612 2365536 2332526 2256840
2459.77 2246526 2174644 2105106 2037996 2003000 1939416
2465.56 1913262 1872000 1832506 1792628 1806480 1755446
2471.35 1762198 1718370 1708788 1668698 1695852 1641974
2477.13 1622802 1539910 1548074 1454122 1451730 1406912
2482.92 1396912 1373252 1339012 1300600 1310372 1288430
2488.70 1248164 1228302 1237472 1205878 1206240 1143184
2494.49 1143268 1094082 1052668 1018386 1011002 963502
2500.27 979916 931896 885310 849492 858566 836252
2506.06 819288 854080 801670 837066 837262 852816
2511.84 840944 826238 890248 872760 922788 890340
2517.63 939772 908484 938582 926828 938276 906778
2523.41 924448 889188 900862 905264 937898 929476
2529.20 923038 881022 940368 869360 928184 860698
2534.99 925616 901746 940962 929490 978350 976008
2540.77 1024572 1012110 1061728 1069658 1158350 1166234
2546.56 1180414 1255508 1302274 1311398 1360968 1357214
2552.34 1436134 1479342 1543118 1524966 1600446 1627180
2558.13 1692256 1694048 1728042 1753842 1807740 1804778
2563.91 1864924 1862568 1926906 1924128 1987402 1985094
2569.70 2036694 2028564 2102180 2055922 2078928 2093794
2575.48 2154038 2153516 2236416 2211316 2237482 2272516
2581.27 2311046 2336630 2390752 2433670 2494302 2547780
2587.05 2620326 2689482 2871500 2910664 3043392 3120202
2592.84 3271266 3446010 3597194 3738048 3965228 4134122
2598.63 4346030 4526732 4770860 4950916 5223356 5394928
2604.41 5741966 5948482 6240480 6499938 6801804 7109924
2610.20 7440670 7688614 8025862 8297444 8569230 8878486
2615.98 9187316 9394764 9611826 9805094 10048830 10157670
2621.77 10314690 10479270 10583200 10575930 10645190 10535190
2627.55 10451900 10310950 10087760 9821042 9612688 9357508
2633.34 9065292 8733910 8452054 8135464 7830758 7534426
2639.12 7291128 6952048 6741168 6481836 6235162 6041660
2644.91 5884238 5726014 5599492 5538640 5381414 5351072
2650.69 5383128 5217540 5254100 5221652 5246890 5177972
2656.48 5215168 5242624 5246876 5210552 5222030 5203756
2662.27 5263756 5256030 5281166 5231954 5267012 5186904
2668.05 5212560 5169754 5190984 5105346 5112666 5085158
2673.84 5106050 5044994 5081186 5018118 5022900 4990502
2679.62 4996044 4995452 5050536 4984172 5079252 5037146
2685.41 5042380 5020826 5077550 5063416 5127974 5135032
2691.19 5197486 5253992 5311116 5341930 5467208 5512796
2696.98 5661594 5781972 5975326 6158506 6434336 6690448
2702.76 7094990 7407328 7872704 8356810 8935296 9519488
2708.55 10212340 10854990 11644440 12329330 13136950 13883070
2714.33 14700570 15448220 16168610 16895660 17723340 18346820
2720.12 18850370 19133540 19375900 19761480 20275850 20661340
2725.91 21014310 21286330 21640720 21927830 22093270 22149940
2731.69 22182520 22207180 22128470 21936420 21812210 21654940
2737.48 21591420 21465700 21346500 21122280 20900260 20543470
2743.26 20293430 19992680 19584880 18972840 18466270 17949440
2749.05 17524870 17206670 16848350 16393710 16146330 15767080
2754.83 15540690 15396570 15356810 15231690 15265470 15360710
2760.62 15646330 15918690 16355640 16678730 17009110 17301550
2766.40 17595850 18040120 18465540 18738950 19186340 19465080
2772.19 19678380 19899140 20173740 20385330 20383360 20196150
2777.97 20071190 19931090 19945510 19884790 19864020 19676480
2783.76 19525320 19241370 18993530 18690300 18428980 18138780
2789.54 18032950 17770000 17654940 17467290 17464460 17374310
2795.33 17401130 17353480 17499610 17506440 17774560 18068110
2801.12 18393060 18762030 19278290 19838970 20455770 21020420
2806.90 21634320 22160930 22795590 23342890 24111690 24899570
2812.69 25752560 26607320 27296520 28099800 28976940 29866140
2818.47 30739220 31599660 32390530 33157390 33950510 34656030
2824.26 35416180 36088920 36803270 37491800 38301970 39207520
2830.04 40172160 41120090 42209400 43290230 44523230 45732200
2835.83 47183770 48498280 49967330 51514160 53046910 54401290
2841.61 56031140 57525410 59188440 60678840 62416080 64267420
2847.40 66214660 68230510 70354020 72504200 74785170 77286730
2853.18 79913010 82649580 85686640 89128260 92916880 96999720
2858.97 101601700 106660700 112712900 119150400 126347600 134164100
2864.76 142775600 152265800 162412400 173421800 185006800 197446500
2870.54 210037600 222412200 234917500 247128000 258722000 270699800
2876.33 283864900 299359900 315697300 328306300 335781500 341399300
2882.11 348063800 354530900 361020200 366160100 370013800 372481500
2887.90 374557700 376327100 378281600 379882000 381877800 384086200
2893.68 385609900 388103100 389717000 389041000 386688600 382414000
2899.47 377244700 371534000 365309100 358979300 352759200 346515800
2905.25 340538100 333800900 325921900 317502400 310805200 304539600
2911.04 298181900 291405600 284202400 276969100 270376800 264102700
2916.82 257939000 252388700 247461900 242342100 238159500 234931900
2922.61 233448500 233190800 235063600 238249700 243873300 251070800
2928.40 259655200 269503900 280314500 290377300 300551100 308569000
2934.18 315021300 320680600 326267900 332985500 341149700 347639600
2939.97 351443400 351988400 350411700 348659500 348254000 346984700
2945.75 344017400 338261700 331177300 321578500 311438700 301017100
2951.54 291257100 282487300 275644400 269587000 265440100 263022600
2957.32 263023200 265416600 272333500 283077800 300292500 321942900
2963.11 351641000 388210100 432212900 482644400 540204100 600421800
2968.89 663578900 723427800 786198800 851359200 932894100 1033420000
2974.68 1173047000 1244998000 1217998000 1273466000 1359950000 1423499000
2980.46 1461397000 1493097000 1489539000 1483650000 1456104000 1409248000
2986.25 1347632000 1263888000 1189412000 1118179000 1036856000 946867500
2992.04 852872400 759098000 665752100 578075800 496447900 423985300
2997.82 358974300 301562300 251543300 208819600 172349700 142292900
3003.61 117224400 97282270 81187560 68965880 59178530 52056160
3009.39 46564050 42595130 39700210 37736410 36202250 35382060
3015.18 34609120 34288150 33948430 33874060 33696560 33592090
3020.96 33444770 33334090 33008650 32748580 32321370 31841190
3026.75 31246450 30572920 29662500 28879690 27847970 26832720
3032.53 25670190 24467550 23166280 21991440 20697300 19507620
3038.32 18278730 17189890 16072290 15029650 14077620 13274730
3044.10 12263270 11609360 10789700 10200430 9527574 9079788
3049.89 8621142 8286206 7893182 7667202 7391098 7274346
3055.67 7107932 6974452 6857482 6874104 6789782 6727510
3061.46 6686158 6745780 6775294 6802848 6791846 6832602
3067.25 6936976 7019810 7037138 7169344 7183374 7385454
3073.03 7432766 7591510 7619432 7707244 7747212 7954874
3078.82 8018734 8062222 8170976 8309650 8212074 8301202
3084.60 8365634 8515970 8352092 8302158 8239720 8228988
3090.39 8149118 8020550 7901822 7855132 7592684 7562004
3096.17 7338270 7226016 6950628 6794962 6663856 6467276
3101.96 6253952 6052728 5971274 5739612 5604152 5501204
3107.74 5317550 5332408 5080340 5027152 4962296 4868618
3113.53 4757590 4708616 4646124 4648732 4599264 4592186
3119.31 4545016 4481740 4525610 4527722 4488856 4473152
3125.10 4438920 4451088 4430564 4397844 4369538 4381918
3130.89 4369276 4422658 4416472 4421048 4314858 4388474
3136.67 4408038 4399828 4414744 4450330 4472498 4492698
3142.46 4518598 4518878 4582620 4659644 4646954 4750988
3148.24 4737780 4938440 4944080 5031908 5122436 5241596
3154.03 5343410 5439906 5547206 5719080 5843388 6063258
3159.81 6209340 6446364 6549928 6769656 6985392 7157358
3165.60 7399266 7625854 7879818 8118688 8321300 8552178
3171.38 8769198 9026880 9241950 9387278 9516638 9721044
3177.17 9930746 10109110 10118390 10245590 10264710 10291330
3182.95 10322990 10268770 10148970 10123360 10017750 9908052
3188.74 9748914 9664274 9514162 9392992 9194126 9065218
3194.53 8909966 8774228 8654744 8478882 8448948 8329930
3200.31 8270540 8186258 8220380 8243402 8182158 8202420
3206.10 8276522 8263634 8360904 8482102 8599912 8669238
3211.88 8737308 8906138 8978038 9141354 9200676 9311702
3217.67 9395810 9468152 9634828 9648052 9792954 9829252
3223.45 9935006 9960282 9990812 10104350 10078400 10097980
3229.24 10131410 10137660 10049540 9967844 9937118 9874970
3235.02 9696060 9639564 9428282 9291466 9082018 8862240
3240.81 8592216 8379392 8086404 7793686 7411222 7132632
3246.59 6920318 6489316 6165990 5824222 5535104 5211588
3252.38 4899906 4590386 4252280 4055380 3800702 3578780
3258.17 3379200 3119982 2968686 2889184 2633128 2613476
3263.95 2473088 2419036 2251416 2234882 2215786 2060854
3269.74 2079008 2032780 2035168 1979010 1913886 1957358
3275.52 1942244 1822576 1889886 1819384 1826430 1781606
3281.31 1767448 1796392 1716734 1794662 1781226 1721368
3287.09 1729352 1698838 1696408 1731020 1707360 1697910
3292.88 1744840 1806908 1878622 1892658 1923936 1944452
3298.66 2041584 2141678 2166148 2334182 2461520 2504536
3304.45 2613810 2741694 2998994 3141746 3235580 3426238
3310.23 3566332 3694436 3809738 3993064 3941488 4043734
3316.02 4114412 4206650 4252974 4168980 4140768 4124692
3321.80 4136656 4134096 4112108 4019628 3959910 3857216
3327.59 3818594 3655000 3538806 3440094 3411826 3192532
3333.38 3036840 2981230 2794298 2653186 2585800 2469618
3339.16 2354320 2180018 2016226 1907836 1837390 1725760
3344.95 1604280 1529756 1474546 1327860 1251890 1213218
3350.73 1145478 1052964 1025892 1060486 951776 869362
3356.52 806752 800730 852550 780070 817774 713988
3362.30 788720 808778 690024 704646 676890 667382
3368.09 638224 704236 730954 713410 717436 722368
3373.87 619386 671288 734460 720352 721478 721846
3379.66 644406 761766 758380 767794 676862 737158
3385.44 799652 877664 824236 773764 812016 782410
3391.23 803944 839072 877168 916366 934900 941832
3397.02 950836 890080 960518 1013012 951528 992210
3402.80 1086780 1031564 1143414 1089610 1169700 1152148
3408.59 1171510 1285966 1336398 1396944 1502664 1502120
3414.37 1610410 1722074 1903640 1965570 2049206 2230906
3420.16 2318324 2486682 2627310 2773850 2806650 2942364
3425.94 3045422 3117414 3197332 3357878 3455940 3383924
3431.73 3426786 3469022 3343874 3405688 3366188 3355290
3437.51 3236586 3122714 2979146 2874992 2742104 2661992
3443.30 2495176 2335932 2240336 2176778 2045020 1891500
3449.08 1748178 1632836 1493188 1472492 1351030 1226762
3454.87 1170114 1124074 1094630 1040904 966220 963720
3460.66 960084 943000 946566 850712 895684 852712
3466.44 909722 914980 911782 891980 999570 1075622
3472.23 1060892 1110064 1083176 1072374 1186064 1216456
3478.01 1172342 1293802 1335326 1354428 1363060 1307558
3483.80 1389766 1275728 1368874 1360482 1318694 1312994
3489.58 1334116 1165520 1127904 1119840 1089400 1030092
3495.37 951318 879428 775090 771008 704520 661150
3501.15 633114 572706 567596 393054 333096 327714
3506.94 302754 322020 303630 152822 182972 111350
3512.72 170684 107886 100006 46324 87420 48382
3518.51 25272 50840 61964 54970 144956 98224
3524.30 55356 51176 65792 108584 14662-31440
3530.08 32214 10362 1442 29298-40630-19410
3535.87 74534 7148 18390-36038 62570-7680
3541.65 81706-38384 71958 69138 142264 155656
3547.44-1498 14352 49082 67584 199842 48434
3553.22 79638 63950 65372 8790 13580 45374
3559.01 137336 17804 57044 56394 89656 14624
3564.79 291094 187652 272074 275616-54674 66968
3570.58-71158 60248-32594 47822-19628-5950
3576.36 8252-1234 7936 53936-22048 38002
3582.15 45362 104026-1762 258128 346480 123116
3587.94 511194-124736 31710-49808 94086 30920
3593.72 118466 144690 12694 19812 67688 2224
3599.51 118508 36940-13686 15082-41842-65756
3605.29 32996 207358-4824 607102 174550-71252
3611.08 323238 273072 86064 248778 61760 77314
3616.86 389680 194872 756514 69092 227470 80992
3622.65 272902 46614 296084 171634 452872 1013372
3628.43 1279228 557852 258440 332076 370384 433096
3634.22 234678 302988 217294 291992 274504 260044
3640.00 330068 534354 716712 333248 468222 293516
3645.79 865794 612292 942824 1315744 585834 944804
3651.57 214012 449762 190436 552596 1137714 388190
3657.36 277990 311600 291944 320952 321614 269860
3663.15 290148 264484 370016 258114 447506 796226
3668.93 594938 1836300 229170 421000 373872 1055766
3674.72 1732692 1054690 189340 622118 484184 563228
3680.50 375892 576230 355668 675990 418524 708252
3686.29 300114 2226192 1222592 545774 1242770 786342
3692.07 672940 754926 686816 748390 771894 833508
3697.86 849446 931534 921916 1483206 1116226 1119002
3703.64 1185404 1318520 1416040 1509488 1577246 2180194
3709.43 1642686 2077482 2902912 1723752 1919612 1924810
3715.21 1961474 1901910 1931552 2112562 1988206 1881600
3721.00 2126076 2054780 1751286 1817436 1695586 1910800
3726.79 1353380 1312402 1215348 1095682 1588702 1984514
3732.57 682450 1777052 1129004 1800916 1091356 937338
3738.36 704256 782002 767950 866282 462708 2748460
3744.14 2569832 248950 1044952 371778 1961398 1986268
3749.93 134624 2337706 1588774 421188 701640 565986
3755.71 915282 566532 594186 906512 684818 500394
3761.50 572708 514090 516774 760772 738120 527296
3767.28 532092 737918 1177514 416068 690690 455440
3773.07 658174 551654 671752 604694 678712 772086
3778.85 1180530 650784 840932 687294 869634 880768
3784.64 945298 825214 938274 963064 1009536 909670
3790.43 1036628 932142 1084100 1055350 1160804 1379684
3796.21 1423282 980080 1431366 904062 2607916 2102684
3802.00 1100320 1373980 1122048 1170336 2245918 1593184
3807.78 947408 1307412 1024102 1335936 986500 1358658
3813.57 898888 2114696 2577074 854076 1406306 1128364
3819.35 1759402 2134546 1738356 1176464 1409698 1241630
3825.14 1493592 1586390 1401872 1360390 1369824 1556008
3830.92 1954344 1333366 1491366 1848984 1819082 1214330
3836.71 3220326 1951224 1357518 1778988 1520680 1270524
3842.49 1666508 1503770 1264224 1357148 1197264 1314930
3848.28 1270652 1369900 1409868 2983098 1283716 4143536
3854.07 2045970 1065742 1643982 1296948 1407624 1242488
3859.85 1362572 1626556 1461582 1323444 1997128 1843118
3865.64 1292170 1536700 1451572 2340642 2436064 1540376
3871.42 1652868 1704712 2170808 1692548 1801546 1845236
3877.21 1827158 1892086 2416224 2341992 1980316 2338354
3882.99 2161372 2472800 3261496 2393490 2391614 2487694
3888.78 2452830 2831014 3211762 2436058 2744036 2540034
3894.56 2741044 2493568 2731944 2623704 3313540 2427008
3900.35 2890376 2966392 2380164 3126670 2387728 2434404
3906.13 2190022 2105932 2016912 2030844 1954038 1978426
3911.92 1883580 1794682 1855228 1783630 1961520 1993562
3917.70 1632470 1866220 1870310 1700574 1854736 1784110
3923.49 1853734 1903646 1791972 1776100 1839192 1928010
3929.28 1932216 1919286 2162810 2081072 2053412 2052326
3935.06 2046690 2072652 2105888 2185000 2193022 2255332
3940.85 2345682 2499534 2322964 2372152 2450232 2462640
3946.63 2576664 2489962 2677164 2712002 2648948 2649866
3952.42 2703670 2678558 2768256 2784506 2754982 2770286
3958.20 2831576 2808770 2845348 2840274 2751328 2776258
3963.99 2710864 2729430 2650620 2644226 2695360 2580318
3969.77 2536194 2606826 2538330 2457838 2441952
##END=
