##TITLE=p-Nitrobenzylbromide
##JCAMP-DX=4.24
##DATA TYPE=INFRARED SPECTRUM
##ORIGIN=NIST Mass Spectrometry Data Center
##OWNER=NIST Standard Reference Data Program
Collection (C) 2018 copyright by the U.S. Secretary of Commerce
on behalf of the United States of America. All rights reserved.
##CAS REGISTRY NO=100-11-8
##MOLFORM=C 7 H 6 Br N O 2
##$NIST SOURCE=MSDC-IR
##SPECTROMETER/DATA SYSTEM=HP-GC/MS/IRD
##STATE=gas
##XUNITS=1/CM
##YUNITS=ABSORBANCE
##XFACTOR=1.0
##YFACTOR=0.000008700
##DELTAX=4.0
##FIRSTX=550.0
##LASTX=3846.0
##FIRSTY=0.000392
##MAXX=3846
##MINX=550
##MAXY=0.087
##MINY=0
##NPOINTS=825
##XYDATA=(X++(Y..Y))
550.0 45 24 1 4 6 22 36 59 95 149
590.0 237 358 496 653 806 917 948 878 749 631
630.0 573 545 501 438 372 318 286 263 259 281
670.0 328 424 577 777 987 1159 1213 1122 934 709
710.0 521 393 307 263 255 266 302 358 408 437
750.0 427 381 312 233 169 135 132 179 325 727
790.0 1388 1894 1938 1582 1205 1022 860 677 539 489
830.0 515 591 710 873 1135 1625 2245 2537 2248 1549
870.0 935 641 494 389 310 253 216 188 171 155
910.0 134 108 78 51 34 20 7 3 3 2
950.0 4 13 20 19 15 13 16 16 13 10
990.0 9 15 31 65 147 320 482 499 355 153
1030.0 52 25 14 6 1 2 5 17 30 41
1070.0 63 98 142 197 258 320 374 432 509 570
1110.0 559 449 299 191 132 102 89 84 87 92
1150.0 101 106 112 128 159 213 340 500 587 576
1190.0 537 557 616 667 732 893 1210 1626 1936 1957
1230.0 1681 1265 914 683 538 445 388 354 336 319
1270.0 309 308 318 339 372 417 472 533 603 685
1310.0 784 905 1051 1230 1459 1817 2493 3791 5976 8520
1350.0 10000 9344 6894 4353 2752 1866 1377 1114 964 857
1390.0 747 629 513 415 354 321 301 289 285 281
1430.0 281 287 298 308 311 303 290 294 320 375
1470.0 471 607 762 902 1022 1138 1239 1286 1290 1332
1510.0 1527 1945 2612 3546 4690 5910 6992 7660 7729 7195
1550.0 6161 4921 3761 2859 2256 1840 1557 1363 1280 1305
1590.0 1450 1700 1986 2160 2088 1795 1439 1090 776 535
1630.0 373 282 235 215 206 204 205 204 195 176
1670.0 158 145 129 116 105 96 87 78 71 67
1710.0 66 62 62 64 63 57 51 49 49 48
1750.0 49 47 44 44 49 59 76 103 130 148
1790.0 145 118 82 52 38 32 29 26 21 15
1830.0 13 11 11 10 10 11 14 15 15 16
1870.0 14 14 17 20 25 32 40 54 73 96
1910.0 120 137 145 141 125 104 78 54 39 27
1950.0 19 17 17 20 23 25 25 20 19 20
1990.0 18 14 13 10 8 7 7 6 3 4
2030.0 6 6 5 3 2 3 2 3 1 0
2070.0 1 0 1 3 4 3 1 4 4 2
2110.0 4 5 8 8 6 5 4 3 2 3
2150.0 4 4 3 3 4 3 1 3 6 7
2190.0 8 10 14 20 22 23 24 24 22 20
2230.0 15 13 11 12 12 13 13 15 16 18
2270.0 23 25 28 29 31 36 39 37 34 34
2310.0 31 27 23 22 20 17 17 14 14 14
2350.0 14 15 14 13 13 15 17 17 20 24
2390.0 28 29 30 31 32 31 32 31 27 28
2430.0 28 26 29 33 41 49 54 56 52 41
2470.0 30 23 18 15 13 11 9 8 7 8
2510.0 7 7 9 7 7 9 9 6 2 1
2550.0 3 6 2 2 6 5 7 10 12 13
2590.0 16 19 23 24 27 34 36 34 28 23
2630.0 20 19 21 23 25 28 29 29 30 31
2670.0 33 38 41 45 48 51 56 59 58 58
2710.0 60 56 49 43 37 32 28 22 17 16
2750.0 14 13 14 18 17 17 20 21 24 23
2790.0 23 26 30 32 31 27 28 33 38 44
2830.0 52 60 68 74 81 94 109 124 136 149
2870.0 162 172 174 173 169 152 137 126 116 106
2910.0 99 92 82 76 75 75 83 96 106 116
2950.0 130 146 163 182 201 233 264 281 281 262
2990.0 221 181 146 122 105 95 95 102 109 113
3030.0 124 135 152 183 216 249 279 289 281 270
3070.0 258 252 269 291 279 221 143 85 58 43
3110.0 36 28 21 17 15 13 13 14 8 7
3150.0 7 6 4 2 4 7 6 6 9 14
3190.0 17 17 15 17 21 21 18 17 15 11
3230.0 7 6 9 11 8 6 7 11 9 4
3270.0 3 9 9 4 10 13 9 4 2 6
3310.0 7 8 4 6 8 8 10 10 10 11
3350.0 9 5 5 11 11 6 6 5 2 2
3390.0 8 13 9 8 7 4 5 3 5 8
3430.0 6 7 9 11 11 14 14 11 10 8
3470.0 9 13 12 9 12 9 7 10 13 10
3510.0 5 6 8 9 12 17 14 11 10 12
3550.0 14 14 17 16 17 16 11 12 12 14
3590.0 15 19 23 19 16 15 18 19 14 9
3630.0 10 15 18 14 15 17 21 18 19 26
3670.0 26 25 23 26 26 19 17 21 24 23
3710.0 22 23 28 28 22 23 26 26 26 23
3750.0 20 22 20 18 16 16 22 16 11 17
3790.0 21 15 15 20 19 13 12 17 21 18
3830.0 13 15 16 19 23
##END=
