##TITLE=p-Nitrobenzylchloride
##JCAMP-DX=4.24
##DATA TYPE=INFRARED SPECTRUM
##ORIGIN=NIST Mass Spectrometry Data Center
##OWNER=NIST Standard Reference Data Program
Collection (C) 2018 copyright by the U.S. Secretary of Commerce
on behalf of the United States of America. All rights reserved.
##CAS REGISTRY NO=100-14-1
##MOLFORM=C 7 H 6 Cl N O 2
##$NIST SOURCE=MSDC-IR
##SPECTROMETER/DATA SYSTEM=HP-GC/MS/IRD
##STATE=gas
##XUNITS=1/CM
##YUNITS=ABSORBANCE
##XFACTOR=1.0
##YFACTOR=0.000010000
##DELTAX=4.0
##FIRSTX=550.0
##LASTX=3846.0
##FIRSTY=0.000220
##MAXX=3846
##MINX=550
##MAXY=0.1
##MINY=0
##NPOINTS=825
##XYDATA=(X++(Y..Y))
550.0 22 23 20 28 30 16 2 12 19 27
590.0 38 46 53 68 84 99 134 189 245 271
630.0 256 208 153 124 121 124 133 154 183 223
670.0 276 344 419 506 624 788 1021 1358 1800 2304
710.0 2776 3063 3037 2731 2304 1864 1455 1114 858 671
750.0 557 506 487 466 442 412 400 439 553 815
790.0 1328 2052 2697 3095 3146 2780 2208 1619 1148 917
830.0 880 948 1075 1235 1441 1762 2077 2126 1875 1342
870.0 794 512 398 337 291 260 243 235 227 219
910.0 209 193 179 172 163 156 149 140 131 117
950.0 103 92 82 74 66 56 51 53 49 42
990.0 50 62 79 122 234 447 600 604 477 247
1030.0 110 74 53 49 51 51 50 56 68 79
1070.0 92 115 142 172 211 266 347 461 592 678
1110.0 678 587 426 278 191 147 124 116 118 119
1150.0 124 127 131 148 181 252 384 495 529 481
1190.0 370 290 274 275 267 257 255 266 291 324
1230.0 367 407 450 515 623 812 1101 1479 1835 1997
1270.0 1935 1712 1447 1251 1110 987 895 851 853 893
1310.0 955 1039 1156 1344 1677 2256 3217 4717 6744 8761
1350.0 10000 9870 8269 5992 3945 2494 1624 1152 903 768
1390.0 688 634 594 563 538 519 501 480 457 433
1430.0 414 408 421 448 468 470 446 413 406 435
1470.0 501 613 768 967 1201 1421 1549 1557 1512 1526
1510.0 1725 2187 2960 4072 5465 6985 8350 9157 9279 8808
1550.0 7698 6193 4707 3502 2671 2102 1758 1565 1499 1537
1590.0 1670 1886 2146 2349 2366 2130 1743 1340 979 686
1630.0 480 359 292 264 257 258 265 268 262 251
1670.0 232 208 182 156 131 113 96 84 78 74
1710.0 72 70 70 73 76 79 83 84 78 73
1750.0 68 64 64 67 72 80 97 123 153 183
1790.0 195 179 144 104 72 52 42 34 30 27
1830.0 25 24 22 21 22 21 22 24 26 27
1870.0 27 26 28 32 40 48 59 75 92 113
1910.0 135 151 162 163 154 137 113 85 62 45
1950.0 32 28 29 28 27 26 25 23 20 16
1990.0 13 10 10 8 5 7 7 7 7 8
2030.0 7 8 8 7 7 9 11 13 15 16
2070.0 16 15 14 15 13 12 10 8 6 8
2110.0 9 9 12 12 11 10 7 5 5 5
2150.0 3 0 0 0 1 1 0 1 3 3
2190.0 5 9 13 16 19 23 24 23 21 18
2230.0 16 11 7 7 6 7 9 9 8 10
2270.0 17 24 28 33 35 35 35 32 27 24
2310.0 24 23 22 22 24 26 26 25 28 30
2350.0 28 26 24 25 24 24 24 24 26 26
2390.0 26 28 30 30 27 23 20 21 22 22
2430.0 22 25 29 34 43 51 57 56 55 51
2470.0 44 35 26 18 14 11 10 8 8 10
2510.0 10 9 10 11 10 9 8 7 7 3
2550.0 4 5 7 6 5 8 12 11 13 17
2590.0 20 24 24 24 27 31 32 31 28 23
2630.0 18 15 14 15 19 22 22 23 24 27
2670.0 31 36 41 48 57 65 70 75 79 83
2710.0 84 82 77 67 56 46 37 33 31 29
2750.0 25 24 23 20 19 25 28 28 29 31
2790.0 32 35 37 39 41 43 44 43 44 50
2830.0 61 70 79 91 105 122 139 156 175 195
2870.0 215 236 246 248 243 230 209 186 167 150
2910.0 137 127 123 121 125 141 164 196 232 268
2950.0 299 328 356 378 396 407 396 369 339 302
2990.0 271 243 224 211 199 187 175 161 147 138
3030.0 142 155 176 206 240 279 313 328 330 321
3070.0 308 303 313 324 306 256 183 114 72 53
3110.0 42 35 31 30 24 17 13 11 9 10
3150.0 12 14 12 11 10 7 8 6 7 8
3190.0 11 14 13 14 19 24 28 24 14 12
3230.0 12 10 8 8 10 8 4 4 3 4
3270.0 7 5 4 9 12 8 5 6 7 6
3310.0 12 13 10 7 7 7 4 9 11 4
3350.0 6 9 8 6 7 7 6 7 8 6
3390.0 5 2 2 2 6 12 16 12 8 10
3430.0 8 7 7 4 3 5 5 5 6 8
3470.0 10 7 4 6 6 3 5 9 5 5
3510.0 13 14 8 8 9 7 8 7 6 8
3550.0 7 4 2 3 7 11 9 8 7 5
3590.0 7 10 11 10 10 13 15 16 13 12
3630.0 14 19 20 15 17 17 15 18 23 23
3670.0 17 16 23 26 27 30 28 25 19 17
3710.0 21 25 27 24 23 29 34 26 22 22
3750.0 21 26 26 21 24 23 21 18 14 17
3790.0 21 21 14 11 13 11 10 12 10 8
3830.0 14 14 12 17 22
##END=
