##TITLE=2-Ethylpyridine
##JCAMP-DX=4.24
##DATA TYPE=INFRARED SPECTRUM
##ORIGIN=NIST Mass Spectrometry Data Center
##OWNER=NIST Standard Reference Data Program
Collection (C) 2018 copyright by the U.S. Secretary of Commerce
on behalf of the United States of America. All rights reserved.
##CAS REGISTRY NO=100-71-0
##MOLFORM=C 7 H 9 N
##$NIST SOURCE=MSDC-IR
##SPECTROMETER/DATA SYSTEM=HP-GC/MS/IRD
##STATE=gas
##XUNITS=1/CM
##YUNITS=ABSORBANCE
##XFACTOR=1.0
##YFACTOR=0.000000700
##DELTAX=4.0
##FIRSTX=550.0
##LASTX=3846.0
##FIRSTY=0.000386
##MAXX=3846
##MINX=550
##MAXY=0.007
##MINY=0
##NPOINTS=825
##XYDATA=(X++(Y..Y))
550.0 551 565 667 779 876 1017 1042 1015 895 758
590.0 755 463 333 279 157 105 100 377 637 579
630.0 518 543 357 270 359 297 195 214 246 279
670.0 232 102 9 123 202 236 371 422 507 709
710.0 796 937 1414 2000 2607 3242 3853 4581 6042 6806
750.0 5991 5342 5092 4556 3878 3280 2765 2473 2389 2184
790.0 2021 1978 1870 1770 1535 1235 1034 931 776 703
830.0 623 474 492 480 394 361 290 200 99 52
870.0 108 166 196 200 209 232 171 154 230 225
910.0 210 225 231 247 223 208 240 281 228 212
950.0 269 305 335 416 505 526 619 739 890 1056
990.0 1057 1051 1121 1164 1022 770 616 605 648 747
1030.0 899 1083 1242 1374 1508 1603 1646 1652 1506 1316
1070.0 1145 1007 801 596 483 421 414 406 423 428
1110.0 431 437 436 473 605 787 1039 1258 1309 1307
1150.0 1273 1220 995 689 500 419 396 387 361 342
1190.0 382 465 562 658 849 1043 1121 1178 1250 1220
1230.0 1038 798 612 527 474 406 358 408 459 483
1270.0 482 478 520 584 664 693 695 728 717 653
1310.0 639 629 575 500 466 444 434 477 455 433
1350.0 469 534 558 500 534 625 697 718 712 723
1390.0 727 799 824 874 1056 1320 1751 2491 3532 4516
1430.0 5061 5334 5460 5380 4831 3908 3556 3903 4610 5482
1470.0 6013 6176 5912 5345 4393 3110 1969 1232 868 760
1510.0 608 482 490 455 376 408 526 695 906 1185
1550.0 1573 2062 2811 3446 4072 5059 6520 8363 9591 10000
1590.0 9793 9060 7853 6255 4589 3175 2156 1526 1175 945
1630.0 751 643 508 412 350 343 345 237 186 123
1670.0 121 196 198 223 234 170 225 290 251 201
1710.0 198 185 144 143 172 216 282 269 263 276
1750.0 250 241 253 262 264 285 273 209 156 119
1790.0 147 176 158 166 175 142 130 177 205 245
1830.0 263 202 207 307 344 302 289 292 285 319
1870.0 301 203 151 172 159 150 212 246 290 306
1910.0 303 333 340 318 319 328 314 315 340 338
1950.0 345 364 349 305 274 275 281 227 154 109
1990.0 89 89 85 76 67 88 90 76 65 76
2030.0 50 52 82 56 60 114 104 95 98 89
2070.0 75 53 65 38 11 46 69 59 39 62
2110.0 85 68 47 52 53 67 68 54 84 86
2150.0 81 146 145 70 58 99 68 38 63 47
2190.0 78 112 125 147 113 125 148 150 149 143
2230.0 113 60 60 85 109 109 116 120 85 56
2270.0 91 108 93 106 83 80 79 71 71 55
2310.0 56 90 116 87 71 141 170 118 114 64
2350.0 41 107 162 203 184 109 41 5 11 20
2390.0 15 8 4 12 18 32 35 25 41 33
2430.0 56 86 53 46 57 43 61 97 74 43
2470.0 29 38 33 22 47 51 75 91 58 49
2510.0 73 62 69 47 29 41 40 59 72 73
2550.0 68 63 43 59 65 39 52 59 61 67
2590.0 54 31 39 55 49 62 91 86 57 24
2630.0 18 45 80 117 62 57 92 79 83 74
2670.0 72 65 46 77 88 73 84 79 98 99
2710.0 80 125 128 101 103 110 144 180 160 99
2750.0 107 113 104 121 138 175 220 243 215 204
2790.0 212 154 128 161 201 253 311 349 410 473
2830.0 495 575 628 671 818 1023 1141 1262 1497 1694
2870.0 1948 2284 2669 2965 3189 3454 3616 3643 3575 3508
2910.0 3489 3524 3636 3834 4139 4578 5174 5801 6218 6364
2950.0 6433 6512 6674 7090 7621 8149 8530 8563 8171 7315
2990.0 6326 5489 4874 4645 4716 4838 4775 4556 4341 3950
3030.0 3304 2679 2334 2284 2398 2603 3014 3538 4123 4783
3070.0 5322 5573 5513 5146 4497 3625 2717 2049 1509 1114
3110.0 869 679 596 525 526 551 511 484 496 464
3150.0 378 353 373 321 306 342 318 266 266 234
3190.0 246 255 204 216 248 199 151 103 73 112
3230.0 139 105 110 125 65 43 75 96 74 39
3270.0 78 109 112 99 127 158 110 41 17 27
3310.0 64 29 68 84 22 86 101 94 28 43
3350.0 136 131 76 49 106 133 92 107 126 147
3390.0 128 89 99 99 47 86 121 73 99 153
3430.0 104 112 105 139 173 119 91 82 98 106
3470.0 80 111 172 182 183 154 127 139 159 158
3510.0 153 154 160 162 132 124 105 75 132 181
3550.0 146 125 116 119 118 107 101 102 114 159
3590.0 138 87 138 152 89 80 149 167 120 166
3630.0 205 155 122 86 132 184 105 80 52 80
3670.0 185 214 174 106 122 150 103 112 119 93
3710.0 103 103 61 11 5 2 54 125 119 128
3750.0 184 135 36 30 4 35 92 120 108 95
3790.0 104 43 61 62 0 44 102 132 136 57
3830.0 26 81 135 101 55
##END=
