##TITLE=1,4-Dinitrobenzene
##JCAMP-DX=4.24
##DATA TYPE=INFRARED SPECTRUM
##ORIGIN=NIST Mass Spectrometry Data Center
##OWNER=NIST Standard Reference Data Program
Collection (C) 2018 copyright by the U.S. Secretary of Commerce
on behalf of the United States of America. All rights reserved.
##CAS REGISTRY NO=100-25-4
##MOLFORM=C 6 H 4 N 2 O 4
##$NIST SOURCE=MSDC-IR
##SPECTROMETER/DATA SYSTEM=HP-GC/MS/IRD
##STATE=gas
##XUNITS=1/CM
##YUNITS=ABSORBANCE
##XFACTOR=1.0
##YFACTOR=0.000001800
##DELTAX=4.0
##FIRSTX=550.0
##LASTX=3846.0
##FIRSTY=0.000479
##MAXX=3846
##MINX=550
##MAXY=0.018
##MINY=0
##NPOINTS=825
##XYDATA=(X++(Y..Y))
550.0 266 171 54 30 55 136 152 89 85 106
590.0 112 135 148 130 128 141 118 109 93 76
630.0 100 117 102 80 84 121 135 145 166 160
670.0 138 143 184 227 249 346 526 748 930 1188
710.0 1452 1424 1237 1006 749 503 314 210 185 149
750.0 99 101 131 138 139 155 144 148 204 221
790.0 235 273 302 343 377 397 406 503 909 1918
830.0 3106 3547 3368 2432 1246 751 689 751 873 995
870.0 1058 1007 857 694 550 415 301 222 175 137
910.0 125 140 147 129 92 70 95 102 88 78
950.0 67 80 83 82 84 83 87 78 61 62
990.0 80 89 129 216 397 552 588 507 307 172
1030.0 135 123 134 120 108 103 97 112 127 144
1070.0 138 109 118 172 226 308 389 430 449 426
1110.0 373 291 199 156 122 89 80 68 82 100
1150.0 97 89 101 103 114 121 111 113 108 113
1190.0 124 134 136 117 121 138 139 150 168 187
1230.0 203 199 189 175 155 159 176 191 195 209
1270.0 236 275 325 382 469 579 714 896 1097 1295
1310.0 1469 1644 1916 2403 3285 4665 6289 7444 7496 6366
1350.0 4456 2735 1862 1629 1688 1841 1963 1974 1816 1548
1390.0 1238 990 862 789 691 563 452 380 326 274
1430.0 239 225 213 200 197 195 192 197 226 292
1470.0 409 594 770 842 852 818 798 845 941 1022
1510.0 1055 1070 1108 1165 1255 1393 1622 2023 2710 3750
1550.0 5213 6990 8750 9865 10000 9432 8013 5855 3971 2657
1590.0 1798 1274 973 795 687 621 577 543 507 462
1630.0 407 354 310 286 263 245 239 232 229 233
1670.0 237 226 214 198 189 185 171 162 151 139
1710.0 130 128 126 113 108 101 95 84 68 71
1750.0 76 77 80 76 76 77 83 95 113 133
1790.0 144 144 131 116 105 93 83 88 96 89
1830.0 83 85 86 80 77 81 79 75 65 61
1870.0 66 63 63 70 74 69 66 67 71 65
1910.0 71 97 102 112 124 126 128 118 99 89
1950.0 83 70 61 62 61 61 58 57 56 53
1990.0 53 46 45 49 52 49 44 52 44 35
2030.0 42 52 57 56 46 46 52 38 29 37
2070.0 40 51 55 45 48 53 52 42 30 31
2110.0 32 39 44 42 29 29 42 32 28 38
2150.0 40 47 55 54 49 45 47 56 59 50
2190.0 44 45 48 49 48 46 40 42 46 39
2230.0 35 36 31 28 35 39 42 46 51 55
2270.0 60 68 64 46 44 45 34 33 37 48
2310.0 48 46 51 46 39 39 47 50 35 22
2350.0 29 36 41 55 61 58 60 68 61 49
2390.0 52 54 58 51 50 48 37 43 55 53
2430.0 59 70 59 46 47 51 47 44 51 56
2470.0 54 48 33 28 30 30 34 36 39 36
2510.0 35 37 27 13 17 19 15 19 25 32
2550.0 32 25 22 25 17 22 29 27 27 28
2590.0 28 21 26 24 36 47 32 25 29 25
2630.0 26 25 27 39 49 45 42 46 71 96
2670.0 87 88 81 97 104 95 102 112 103 73
2710.0 55 55 57 65 74 73 59 51 43 49
2750.0 56 52 42 33 34 48 51 32 30 40
2790.0 41 33 26 26 26 29 38 46 44 40
2830.0 50 70 62 55 66 65 75 87 95 108
2870.0 131 154 151 168 168 144 146 146 136 134
2910.0 137 134 120 125 123 100 93 104 104 103
2950.0 96 70 57 48 34 27 36 43 32 29
2990.0 46 52 36 47 67 74 64 38 33 45
3030.0 55 69 97 130 124 99 91 74 54 57
3070.0 49 44 52 73 95 90 107 123 144 181
3110.0 200 170 147 151 139 98 73 73 62 39
3150.0 32 49 43 22 15 16 34 43 34 28
3190.0 42 45 39 41 20 0 5 12 36 39
3230.0 19 3 3 7 8 7 12 9 16 26
3270.0 10 13 22 16 9 24 28 24 27 25
3310.0 32 41 34 40 38 36 25 20 23 28
3350.0 19 7 13 25 48 43 35 39 20 9
3390.0 20 46 48 29 39 45 36 31 26 19
3430.0 34 52 29 24 32 34 42 52 45 55
3470.0 49 15 14 21 18 34 20 12 31 33
3510.0 23 23 27 36 50 52 52 40 31 30
3550.0 25 34 39 29 34 28 41 67 67 58
3590.0 52 55 52 49 57 52 52 43 22 42
3630.0 39 41 46 29 40 37 48 43 44 44
3670.0 26 52 69 52 46 50 65 65 50 59
3710.0 75 75 56 58 68 59 64 54 59 79
3750.0 68 56 60 44 48 69 71 74 68 57
3790.0 47 49 70 80 67 76 64 48 47 44
3830.0 66 37 12 53 57
##END=
