##TITLE=Mephentermine
##JCAMP-DX=4.24
##DATA TYPE=INFRARED SPECTRUM
##ORIGIN=NIST Mass Spectrometry Data Center
##OWNER=NIST Standard Reference Data Program
Collection (C) 2018 copyright by the U.S. Secretary of Commerce
on behalf of the United States of America. All rights reserved.
##CAS REGISTRY NO=100-92-5
##MOLFORM=C 11 H 17 N
##$NIST SOURCE=MSDC-IR
##SPECTROMETER/DATA SYSTEM=HP-GC/MS/IRD
##STATE=gas
##XUNITS=1/CM
##YUNITS=ABSORBANCE
##XFACTOR=1.0
##YFACTOR=0.000001100
##DELTAX=4.0
##FIRSTX=550.0
##LASTX=3846.0
##FIRSTY=0.000788
##MAXX=3846
##MINX=550
##MAXY=0.011
##MINY=0
##NPOINTS=825
##XYDATA=(X++(Y..Y))
550.0 716 476 264 256 242 294 309 350 428 447
590.0 603 816 905 939 939 935 856 763 770 788
630.0 782 848 1009 1170 1329 1490 1619 1782 1925 1974
670.0 2040 2177 2328 2480 2815 3394 4110 4676 4832 4582
710.0 4065 3556 3086 2691 2384 2135 1865 1614 1364 1105
750.0 964 941 968 1044 1076 997 841 684 533 350
790.0 198 155 189 174 122 117 87 92 159 114
830.0 86 71 47 83 87 87 91 109 118 90
870.0 88 118 102 65 35 30 43 62 94 91
910.0 70 44 5 0 4 3 13 5 20 29
950.0 30 50 75 92 90 73 61 45 31 31
990.0 47 67 69 77 96 94 101 185 345 485
1030.0 542 492 368 261 264 317 382 477 589 725
1070.0 798 787 819 834 789 770 770 803 830 818
1110.0 817 843 913 1005 1134 1331 1499 1648 1737 1761
1150.0 1735 1703 1720 1774 1829 1932 2095 2208 2219 2141
1190.0 1944 1702 1525 1428 1385 1392 1434 1423 1411 1375
1230.0 1279 1186 1131 1089 1054 1029 960 846 699 576
1270.0 473 385 333 304 279 253 245 270 333 399
1310.0 438 450 415 371 344 323 323 318 326 396
1350.0 531 752 1087 1432 1626 1752 1821 1803 1721 1552
1390.0 1262 912 623 452 388 399 440 523 659 833
1430.0 1060 1320 1613 1866 2048 2131 2178 2191 2183 2184
1470.0 2185 2238 2300 2369 2431 2467 2325 2000 1602 1132
1510.0 714 487 369 318 306 278 255 245 216 190
1550.0 193 204 201 164 151 172 227 261 304 401
1590.0 515 663 784 800 696 518 365 245 155 102
1630.0 83 89 87 74 57 57 54 47 57 89
1670.0 96 89 98 84 71 56 54 54 30 32
1710.0 44 63 86 84 86 97 116 126 134 142
1750.0 135 110 107 106 86 80 77 77 88 134
1790.0 175 199 211 214 189 150 125 102 74 46
1830.0 57 65 51 59 67 74 85 105 117 133
1870.0 159 161 162 166 139 106 86 76 60 32
1910.0 58 87 82 100 146 179 203 234 244 232
1950.0 207 181 163 120 69 48 39 47 54 41
1990.0 30 19 21 38 49 43 49 55 35 42
2030.0 52 55 60 47 21 0 0 2 4 1
2070.0 0 16 39 32 29 28 26 29 20 29
2110.0 37 12 13 22 29 51 49 42 44 43
2150.0 49 50 49 52 54 46 52 48 32 31
2190.0 29 38 35 24 23 19 27 30 27 21
2230.0 17 14 5 17 38 18 5 22 31 42
2270.0 47 29 23 25 32 38 38 26 21 44
2310.0 70 72 42 37 65 57 53 55 54 62
2350.0 47 44 40 44 56 56 38 19 15 10
2390.0 13 33 51 49 37 22 26 40 32 27
2430.0 23 18 26 25 23 16 19 25 7 2
2470.0 11 20 9 0 17 37 27 20 22 35
2510.0 40 32 44 56 56 59 63 56 60 57
2550.0 58 69 90 90 66 71 71 47 57 79
2590.0 82 95 112 97 75 86 86 87 105 117
2630.0 120 115 99 83 83 77 90 122 101 99
2670.0 115 99 116 135 117 97 96 121 146 153
2710.0 169 188 181 176 187 203 220 216 227 273
2750.0 302 329 371 404 423 471 530 601 724 894
2790.0 1126 1420 1716 1943 2064 2039 1900 1699 1443 1244
2830.0 1163 1209 1348 1564 1870 2228 2577 2878 3146 3348
2870.0 3468 3522 3582 3642 3712 3763 3799 3863 3949 4099
2910.0 4288 4551 4907 5288 5687 6007 6220 6370 6470 6577
2950.0 6763 7101 7630 8405 9290 9927 10000 9259 7800 6024
2990.0 4364 3079 2205 1714 1509 1461 1531 1765 2151 2623
3030.0 3056 3219 3058 2660 2191 1883 1833 2057 2497 2916
3070.0 3094 3007 2662 2254 1939 1695 1454 1177 965 820
3110.0 670 513 428 368 308 267 236 247 246 227
3150.0 211 184 197 205 170 158 180 184 161 148
3190.0 142 148 156 144 137 151 143 109 106 92
3230.0 102 119 108 107 106 85 85 96 99 117
3270.0 87 58 74 69 44 35 45 68 82 83
3310.0 73 68 67 45 54 59 66 75 67 59
3350.0 93 132 144 143 135 130 106 103 122 113
3390.0 110 77 24 16 38 34 24 48 65 65
3430.0 40 42 55 20 12 53 41 32 51 23
3470.0 10 21 27 72 86 34 29 53 66 81
3510.0 77 32 22 23 21 41 30 12 46 73
3550.0 81 80 79 87 64 23 10 0 13 49
3590.0 51 58 55 33 66 88 51 18 45 60
3630.0 50 51 56 60 57 61 61 57 61 85
3670.0 101 95 68 64 86 79 52 52 57 53
3710.0 66 54 40 67 74 74 69 38 59 88
3750.0 45 24 38 32 53 81 65 61 55 37
3790.0 31 48 59 79 118 64 3 50 59 38
3830.0 43 50 60 23 30
##END=
