##TITLE=4-Cyanopyridine
##JCAMP-DX=4.24
##DATA TYPE=INFRARED SPECTRUM
##ORIGIN=EPA-IR VAPOR PHASE LIBRARY
##OWNER=SRD/NIST
Collection (C) 2018 copyright by the U.S. Secretary of Commerce
on behalf of the United States of America. All rights reserved.
##CAS REGISTRY NO=100-48-1
##MOLFORM=C 6 H 4 N 2
##$NIST SOURCE=MSDC-IR
##STATE=gas
##XUNITS=1/CM
##YUNITS=ABSORBANCE
##XFACTOR=1.
##YFACTOR=0.001
##DELTAX=1.92898
##FIRSTX=549.8
##LASTX=4000.7
##FIRSTY=17.345
##MAXX=4000.7
##MINX=549.759
##MAXY=0.049255
##MINY=0
##NPOINTS=1790
##XYDATA=(X++(Y..Y))
549.759 17.345 18.095 21.635 29.795 33.495 25.035 16.755 14.105 12.995 12.025
569.049 11.375 10.695 9.615 8.875 7.795 6.655 5.845 5.235 4.465 3.695
588.339 3.215 2.485 2.015 1.925 1.565 1.4667 1.1593 0.8514 1.0389 0.9177
607.628 0.7729 0.6771 0.7731 0.8773 0.7974 0.7213 0.59981 0.6687 0.4745 0.58427
626.918 0.61146 0.35 0.5276 0.6726 0.5018 0.5217 0.58321 0.5121 0.59749 0.61867
646.208 0.56137 0.569973 0.66113 0.5441 0.451 0.56285 0.568676 0.6992 0.7101 0.7147
665.498 0.9853 1.1909 1.2634 1.2938 1.615 1.725 1.3728 1.3016 1.523 1.685
684.787 2.075 2.895 3.535 3.735 3.935 4.095 3.975 3.675 3.625 3.935
704.077 4.045 3.805 3.605 3.165 2.965 3.075 3.015 2.925 2.975 3.135
723.367 3.385 3.955 4.315 4.365 4.525 4.725 4.755 4.535 4.285 4.235
742.657 4.075 3.905 3.685 3.495 3.515 3.755 4.275 5.085 6.335 7.875
761.947 9.405 10.405 10.905 11.215 11.795 11.985 11.955 12.355 12.635 12.565
781.236 12.145 11.475 10.735 10.395 10.365 10.635 11.455 12.845 14.395 16.075
800.526 17.905 19.755 21.235 22.605 24.595 27.215 30.675 36.145 43.745 49.255
819.816 44.195 33.655 28.265 26.525 25.545 24.395 22.775 21.005 19.155 16.905
839.106 14.525 12.125 9.995 8.155 6.505 5.245 4.265 3.585 3.185 2.535
858.395 2.095 2.055 1.965 1.745 1.665 1.595 1.585 1.4797 1.1828 1.1804
877.685 1.2603 1.3558 1.2839 1.2823 1.1772 0.9093 0.7699 0.8895 0.9774 0.8632
896.975 0.8752 0.7105 0.6766 0.8188 0.821 0.9274 1.04 1.1363 1.2376 1.3047
916.265 1.4385 1.5432 1.575 1.615 1.5356 1.605 1.775 1.605 1.449 1.4715
935.555 1.4273 1.3912 1.383 1.2486 1.2269 1.0468 0.9564 1.066 1.2425 1.4086
954.844 1.4081 1.4001 1.459 1.625 1.625 1.478 1.1828 1.4149 1.815 2.065
974.134 2.455 2.685 3.215 3.775 4.065 3.865 3.415 3.565 3.845 3.375
993.424 3.255 3.635 3.535 2.915 2.335 1.765 1.2072 0.9965 0.671 0.393
1012.714 0.6933 0.7861 0.65688 0.57503 0.5421 0.702 0.5281 0.8379 0.9952 0.412
1032.003 0.4774 0.58905 0.278 0.444 0.61026 0.398 0.57759 0.58584 0.357 0.5016
1051.293 0.6703 0.8537 1.1894 1.565 2.015 2.495 2.335 2.335 2.885 3.095
1070.583 2.935 2.665 2.635 2.955 2.635 1.945 1.895 2.025 2.035 2.005
1089.873 2.125 1.675 1.2146 1.4979 1.4746 1.615 1.595 1.342 1.2797 1.1304
1109.163 1.4532 1.525 1.645 1.755 1.0725 1.0698 1.4905 1.2097 1.1094 0.8798
1128.452 0.318 0.035 0.045 0.163 0.243 0.246 0.316 0.028 0 0.343
1147.742 0.288 0.4972 1.025 1.2821 0.9514 0.65369 0.8748 1.2474 1.5361 1.685
1167.032 2.005 2.385 2.635 2.905 3.385 3.775 4.045 4.355 4.545 4.985
1186.322 5.565 5.905 6.085 6.285 6.325 6.375 6.495 6.545 6.795 7.195
1205.611 7.285 7.475 7.905 7.995 7.645 7.115 6.885 6.505 5.995 5.855
1224.901 5.605 5.275 4.875 3.905 3.155 2.805 2.325 2.125 1.615 1.1244
1244.191 1.1939 1.0607 0.961 0.822 0.46 0.357 0.4867 0.463 0.285 0.132
1263.481 0.205 0.346 0.326 0.224 0.229 0.179 0.135 0.189 0.227 0.229
1282.771 0.269 0.401 0.312 0.283 0.308 0.252 0.359 0.412 0.333 0.307
1302.060 0.343 0.416 0.508 0.5455 0.59858 0.6997 0.744 0.7693 0.8234 0.8976
1321.350 0.9202 0.8634 0.8602 0.9046 0.9485 0.9873 1.0474 1.0926 1.0815 1.088
1340.640 1.0699 1.0874 1.0366 0.983 1.0553 0.9758 0.9158 0.9531 1.0283 1.1397
1359.930 1.2078 1.2163 1.222 1.4067 1.635 1.835 2.055 2.425 2.965 3.525
1379.219 4.185 4.965 5.875 6.995 8.295 9.765 11.405 13.255 15.255 17.045
1398.509 18.365 18.885 18.325 16.965 15.505 15.135 16.525 18.395 18.965 17.935
1417.799 16.075 13.915 11.835 10.035 8.515 7.345 6.445 5.675 4.975 4.335
1437.089 3.695 3.145 2.635 2.205 1.885 1.625 1.4189 1.2179 1.0548 1.0119
1456.378 1.0677 1.0734 1.0549 1.0933 1.133 1.2547 1.4947 1.825 2.205 2.595
1475.668 2.995 3.375 3.625 3.705 3.705 3.715 3.755 3.735 3.795 3.985
1494.958 3.955 3.535 3.025 2.575 2.255 2.135 2.115 2.165 2.345 2.625
1514.248 2.945 3.395 3.965 4.545 5.275 6.105 6.885 7.615 8.335 9.115
1533.538 9.875 10.815 12.085 13.555 14.945 15.905 16.315 16.285 15.825 15.395
1552.827 15.505 16.225 17.455 18.515 18.685 17.965 16.795 15.805 15.665 16.525
1572.117 18.385 21.135 24.455 28.035 31.485 34.355 36.175 36.785 36.235 35.085
1591.407 33.905 32.525 30.515 28.255 26.215 23.395 19.125 14.365 10.025 6.825
1610.697 4.895 3.645 2.905 2.535 2.215 1.965 1.795 1.595 1.475 1.3932
1629.986 1.2495 1.1593 1.1605 1.1936 1.1954 1.1579 1.1653 1.2011 1.2787 1.3276
1649.276 1.2859 1.3286 1.3986 1.4472 1.5492 1.695 1.825 1.945 2.085 2.185
1668.566 2.345 2.535 2.735 2.865 2.815 2.795 2.745 2.655 2.715 2.775
1687.856 2.825 2.765 2.575 2.455 2.375 2.125 1.855 1.735 1.685 1.565
1707.146 1.4159 1.3171 1.2781 1.3231 1.3729 1.3868 1.4136 1.4944 1.595 1.635
1726.435 1.655 1.645 1.685 1.815 1.805 1.605 1.5402 1.5566 1.4657 1.367
1745.725 1.321 1.3206 1.2029 1.075 1.1318 1.2099 1.1565 1.128 1.2563 1.3607
1765.015 1.4604 1.5455 1.605 1.625 1.5384 1.4957 1.473 1.4185 1.4048 1.3756
1784.305 1.2962 1.2654 1.2033 1.0845 0.9385 0.8853 0.8576 0.7678 0.7859 0.8844
1803.594 0.9061 0.9215 0.8857 0.86 0.9403 0.9259 0.8621 0.8445 0.9025 0.9051
1822.884 0.9094 0.9491 1.0043 1.0963 1.2309 1.3216 1.352 1.4414 1.5145 1.5111
1842.174 1.585 1.685 1.665 1.5612 1.5295 1.575 1.5165 1.4333 1.3798 1.2618
1861.464 1.1001 1.0106 0.9647 0.8756 0.8289 0.8348 0.8652 0.8444 0.7829 0.7794
1880.754 0.7287 0.7003 0.7535 0.7342 0.7447 0.8308 0.8677 0.8704 0.8917 0.9099
1900.043 0.977 1.0008 1.0407 1.1917 1.3124 1.4552 1.605 1.735 1.925 2.145
1919.333 2.245 2.395 2.655 2.805 2.945 3.065 3.115 3.115 3.065 3.045
1938.623 3.035 3.045 3.085 3.115 3.085 2.965 2.755 2.555 2.365 2.135
1957.913 1.965 1.825 1.645 1.5071 1.4338 1.3277 1.1705 1.1677 1.1124 0.9979
1977.202 0.9687 0.9544 0.8725 0.7772 0.7733 0.7749 0.7573 0.7785 0.7982 0.8017
1996.492 0.7597 0.7269 0.7297 0.6753 0.7151 0.7444 0.6884 0.6741 0.7029 0.7049
2015.782 0.6977 0.64555 0.6714 0.7524 0.739 0.7258 0.6856 0.669 0.6967 0.7027
2035.072 0.7044 0.7311 0.7084 0.762 0.7989 0.7448 0.7841 0.7642 0.746 0.7811
2054.362 0.7606 0.7658 0.8083 0.8134 0.8107 0.7619 0.727 0.7344 0.807 0.8838
2073.651 0.8658 0.9412 1.0037 0.9614 0.8605 0.885 0.9936 0.9207 0.85 0.8414
2092.941 0.8257 0.845 0.7754 0.717 0.7275 0.65834 0.58872 0.59073 0.63695 0.6951
2112.231 0.6929 0.62137 0.57759 0.64832 0.7228 0.7638 0.8103 0.8127 0.828 0.8539
2131.521 0.8581 0.8812 0.8646 0.8402 0.8579 0.812 0.8764 0.9444 0.9146 0.8966
2150.810 0.7982 0.7723 0.8355 0.8406 0.8493 0.8776 0.8291 0.8091 0.8691 0.9545
2170.100 0.9601 0.8659 0.8252 0.851 0.8562 0.759 0.7608 0.7887 0.792 0.7602
2189.390 0.7252 0.7853 0.8439 0.7869 0.7883 0.8284 0.7978 0.7486 0.7002 0.7396
2208.680 0.7598 0.7136 0.7188 0.7686 0.8359 0.9465 0.9734 0.9722 0.9845 1.0206
2227.970 1.0166 1.0302 1.176 1.2091 1.1895 1.2419 1.2181 1.2146 1.1645 1.1633
2247.259 1.2137 1.1209 1.077 1.0648 0.9962 0.8531 0.7064 0.7668 0.8879 0.9103
2266.549 0.8374 0.8322 0.8767 0.8686 0.8761 0.9025 0.9126 0.932 0.9234 0.9257
2285.839 1.0298 1.0229 0.9557 0.9612 1.0328 1.0403 0.9563 0.9339 0.9444 0.9925
2305.129 1.0534 1.079 1.0666 0.9794 0.9568 0.9507 0.9148 0.9322 0.9888 0.9222
2324.418 0.8352 0.8746 0.8233 0.7781 0.845 0.8409 0.8068 0.8112 0.7973 0.7215
2343.708 0.6951 0.73 0.7843 0.818 0.7549 0.7465 0.8018 0.828 0.8135 0.7885
2362.998 0.7725 0.8645 0.9231 0.9195 0.9351 0.979 1.0062 1.0591 1.1934 1.2852
2382.288 1.3675 1.3197 1.2863 1.4148 1.425 1.3441 1.3393 1.351 1.2506 1.1426
2401.578 1.1085 1.138 1.2156 1.1785 1.058 1.0079 1.0137 0.9744 0.9127 0.9012
2420.867 0.8725 0.8433 0.8268 0.7951 0.7863 0.855 0.8951 0.8119 0.7956 0.817
2440.157 0.7639 0.7475 0.7444 0.7194 0.7329 0.7732 0.7311 0.7404 0.6982 0.62509
2459.447 0.692 0.7247 0.7101 0.7135 0.65921 0.61569 0.6681 0.7147 0.6792 0.6373
2478.737 0.63927 0.62792 0.64655 0.64322 0.6885 0.6656 0.6188 0.59623 0.55665 0.58941
2498.026 0.63627 0.63231 0.66197 0.686 0.65273 0.6958 0.735 0.7216 0.7165 0.62028
2517.316 0.59343 0.7116 0.6828 0.6766 0.7339 0.7534 0.7346 0.7148 0.8115 0.8452
2536.606 0.8183 0.8647 0.8539 0.7942 0.7855 0.7457 0.6915 0.6852 0.6819 0.7137
2555.896 0.733 0.7067 0.64416 0.6048 0.6418 0.6868 0.7886 0.8689 0.8477 0.8586
2575.186 0.7771 0.7266 0.746 0.7736 0.7591 0.62969 0.62846 0.673 0.6955 0.7055
2594.475 0.7634 0.8758 0.9059 0.847 0.8219 0.7768 0.7913 0.884 0.8693 0.7739
2613.765 0.8146 0.926 0.9201 0.91 0.9429 0.9871 0.911 0.8465 0.9085 0.9362
2633.055 0.8481 0.7995 0.7841 0.7619 0.8431 0.9536 0.932 0.9099 0.9226 0.8348
2652.345 0.818 0.8087 0.8402 0.9259 0.9331 0.8942 0.9016 0.9594 0.9586 0.9099
2671.634 0.8299 0.8027 0.8598 0.9391 0.9542 0.9205 0.9798 1.0385 1.0598 1.1082
2690.924 1.0741 1.0301 1.0842 1.0547 0.9342 0.8861 0.9351 0.9695 0.9453 0.9118
2710.214 0.8323 0.857 0.9001 0.9147 0.9363 0.9985 0.9402 0.813 0.8449 0.8378
2729.504 0.8286 0.844 0.9078 0.9836 1.0235 1.0597 1.0232 0.9354 0.9181 0.9313
2748.794 0.9253 0.8591 0.8725 0.9853 0.9708 0.9008 0.8722 0.9638 1.0189 1.0183
2768.083 1.0787 1.1996 1.1961 1.0562 1.036 1.1334 1.1863 1.0728 1.1236 1.1914
2787.373 1.0782 1.0238 1.0242 0.9621 0.8415 0.8451 0.8781 0.8406 0.8388 0.8303
2806.663 0.8267 0.8252 0.799 0.63987 0.61255 0.6783 0.7217 0.8171 0.8292 0.8906
2825.953 0.8985 0.8166 0.7981 0.8127 0.8608 0.8474 0.8201 0.7959 0.7412 0.64051
2845.242 0.59783 0.7198 0.8536 0.9374 0.9383 0.9637 1.0227 0.9931 1.0346 1.0559
2864.532 1.0534 1.1312 1.2132 1.2603 1.2577 1.3414 1.2991 1.2085 1.3241 1.3751
2883.822 1.3489 1.3508 1.2654 1.2488 1.3165 1.3792 1.3245 1.2272 1.1061 1.0346
2903.112 1.1057 1.0969 1.0689 1.0737 1.0135 0.9756 1.0167 1.0765 1.0613 0.9261
2922.401 0.7805 0.7686 0.9018 0.9929 0.9467 1.0011 1.0491 1.008 1.1323 1.1972
2941.691 1.1615 1.2376 1.2649 1.1851 1.3086 1.5325 1.595 1.635 1.735 1.845
2960.981 1.945 2.015 2.025 2.025 2.095 2.175 2.255 2.215 2.285 2.375
2980.271 2.415 2.545 2.515 2.425 2.315 2.305 2.455 2.485 2.465 2.455
2999.561 2.465 2.615 2.665 2.645 2.845 3.055 3.245 3.515 3.765 4.105
3018.850 4.475 4.825 5.275 5.755 6.185 6.575 7.105 7.695 8.325 9.185
3038.140 10.055 10.825 11.535 12.225 12.785 12.885 12.595 11.955 11.385 11.375
3057.430 11.935 13.015 13.815 13.825 13.425 12.875 12.345 12.045 11.925 11.865
3076.720 11.935 11.715 11.245 10.765 10.025 9.255 8.815 8.945 9.335 9.205
3096.009 8.695 7.875 6.895 5.855 4.895 4.275 3.855 3.435 2.895 2.505
3115.299 2.125 1.765 1.675 1.5449 1.201 1.1674 1.3285 1.1937 1.0375 0.9789
3134.589 0.9182 0.8471 0.8771 1.0018 1.0319 0.9939 0.8148 0.6887 0.7982 0.8694
3153.879 0.7583 0.6955 0.7649 0.6673 0.6653 0.8636 0.8744 0.7696 0.8714 0.8686
3173.169 0.63595 0.55593 0.63161 0.7131 0.7536 0.684 0.702 0.7563 0.8132 0.7441
3192.458 0.61102 0.60801 0.59873 0.6711 0.7907 0.8008 0.65779 0.5077 0.5513 0.5156
3211.748 0.4804 0.57919 0.62646 0.63274 0.62894 0.8259 0.8047 0.61287 0.47 0.445
3231.038 0.59724 0.7071 0.60303 0.58118 0.7295 0.59169 0.433 0.456 0.367 0.355
3250.328 0.412 0.423 0.441 0.427 0.424 0.5262 0.66145 0.6881 0.531 0.404
3269.617 0.5017 0.5289 0.5284 0.55741 0.57927 0.6785 0.62151 0.449 0.511 0.5148
3288.907 0.5489 0.7076 0.6793 0.60703 0.5186 0.5478 0.6709 0.7172 0.62358 0.63547
3308.197 0.7205 0.5192 0.451 0.417 0.55705 0.7639 0.6734 0.59881 0.5339 0.5055
3327.487 0.5325 0.6696 0.64668 0.565526 0.63463 0.718 0.7376 0.66141 0.66226 0.61476
3346.777 0.359 0.341 0.466 0.441 0.65059 0.59299 0.417 0.5273 0.6921 0.7379
3366.066 0.63379 0.59226 0.6023 0.6865 0.66398 0.63691 0.7046 0.64958 0.4879 0.5173
3385.356 0.64635 0.509 0.4779 0.55926 0.5199 0.5259 0.569468 0.61826 0.60205 0.59701
3404.646 0.7259 0.7597 0.7653 0.7549 0.63909 0.63985 0.63458 0.7623 0.9194 0.8528
3423.936 0.8357 0.9874 0.9408 0.7836 0.6802 0.7534 0.8094 0.7227 0.7193 0.64644
3443.225 0.60265 0.63444 0.566822 0.5968 0.64033 0.5432 0.4801 0.441 0.4729 0.5437
3462.515 0.64211 0.7565 0.7499 0.566244 0.58048 0.6798 0.58181 0.5504 0.6743 0.7032
3481.805 0.62288 0.64584 0.6876 0.6769 0.7411 0.6886 0.5411 0.4684 0.379 0.438
3501.095 0.58917 0.4837 0.384 0.4989 0.5438 0.5451 0.5337 0.5093 0.5099 0.61627
3520.385 0.65403 0.58436 0.64177 0.7185 0.7327 0.60932 0.445 0.567318 0.59738 0.62321
3539.674 0.6816 0.5506 0.315 0.296 0.60214 0.6881 0.60069 0.6265 0.64443 0.546
3558.964 0.62113 0.7352 0.62764 0.5395 0.55834 0.56204 0.62275 0.57986 0.5047 0.448
3578.254 0.4979 0.59752 0.6851 0.681 0.482 0.447 0.64633 0.7061 0.6867 0.7459
3597.544 0.60489 0.59153 0.666 0.6752 0.566438 0.439 0.4907 0.41 0.346 0.5181
3616.833 0.5446 0.59174 0.60283 0.4872 0.5331 0.464 0.369 0.39 0.464 0.5279
3636.123 0.391 0.443 0.66051 0.61428 0.55753 0.7043 0.7873 0.63352 0.5201 0.417
3655.413 0.422 0.454 0.574575 0.63902 0.58328 0.62201 0.5227 0.5059 0.64555 0.6748
3674.703 0.58753 0.5498 0.4711 0.5107 0.64067 0.6768 0.5147 0.4873 0.4948 0.62003
3693.993 0.9079 0.6872 0.5035 0.61673 0.57648 0.6891 0.7005 0.5253 0.56265 0.568069
3713.282 0.56073 0.574417 0.62617 0.7781 0.7188 0.58071 0.61046 0.55762 0.4856 0.426
3732.572 0.567291 0.7709 0.8684 0.7837 0.5379 0.571126 0.62561 0.5412 0.7864 0.9051
3751.862 0.7913 0.8974 0.834 0.6861 0.7765 0.7702 0.8081 0.7124 0.58402 0.7102
3771.152 0.5515 0.5014 0.55778 0.5061 0.451 0.417 0.5234 0.6159 0.572985 0.59582
3790.441 0.571264 0.62318 0.6994 0.60947 0.5002 0.437 0.5518 0.6593 0.7081 0.63312
3809.731 0.5014 0.416 0.383 0.6987 0.8263 0.63871 0.404 0.249 0.5259 0.5423
3829.021 0.323 0.326 0.4791 0.60394 0.61795 0.60423 0.7688 0.7951 0.56384 0.5202
3848.311 0.5164 0.5196 0.62876 0.58042 0.459 0.4791 0.5287 0.5312 0.5071 0.5272
3867.601 0.436 0.414 0.60807 0.56373 0.426 0.352 0.366 0.6719 0.64345 0.6873
3886.890 0.8245 0.58646 0.5103 0.5085 0.56065 0.60877 0.438 0.415 0.4797 0.5185
3906.180 0.5325 0.5009 0.508 0.5111 0.415 0.366 0.276 0.137 0.111 0.19
3925.470 0.354 0.334 0.462 0.63952 0.61113 0.6241 0.5508 0.405 0.5102 0.4909
3944.760 0.404 0.388 0.409 0.58587 0.59525 0.564154 0.4793 0.454 0.64009 0.59723
3964.049 0.392 0.291 0.423 0.5423 0.449 0.4722 0.60982 0.6203 0.5176 0.49
3983.339 0.645 0.63314 0.5131 0.433 0.453 0.60655 0.6114 0.61735 0.568917 0.58493
##END=
