##TITLE=Benzylbromide
##JCAMP-DX=4.24
##DATA TYPE=INFRARED SPECTRUM
##ORIGIN=NIST Mass Spectrometry Data Center
##OWNER=NIST Standard Reference Data Program
Collection (C) 2018 copyright by the U.S. Secretary of Commerce
on behalf of the United States of America. All rights reserved.
##CAS REGISTRY NO=100-39-0
##MOLFORM=C 7 H 7 Br
##$NIST SOURCE=MSDC-IR
##SPECTROMETER/DATA SYSTEM=HP-GC/MS/IRD
##STATE=gas
##XUNITS=1/CM
##YUNITS=ABSORBANCE
##XFACTOR=1.0
##YFACTOR=0.000002400
##DELTAX=4.0
##FIRSTX=550.0
##LASTX=3846.0
##FIRSTY=0.004702
##MAXX=3846
##MINX=550
##MAXY=0.024
##MINY=0
##NPOINTS=825
##XYDATA=(X++(Y..Y))
550.0 1959 3310 2089 1266 765 660 691 876 1109 1443
590.0 1945 2598 3544 4787 6275 7591 8343 8339 7488 6236
630.0 5028 4065 3330 2797 2493 2347 2288 2319 2450 2773
670.0 3367 4237 5427 6873 8319 9673 10000 8950 7468 5897
710.0 4501 3450 2795 2478 2457 2626 2918 3301 3684 3951
750.0 4045 3980 3609 2957 2262 1644 1168 861 718 670
790.0 664 750 955 1259 1455 1425 1282 931 495 272
830.0 204 182 198 229 269 277 251 239 203 161
870.0 143 128 118 104 107 124 157 204 237 262
910.0 306 327 293 236 158 108 74 53 39 12
950.0 0 5 3 3 24 51 60 85 106 101
990.0 124 159 163 174 187 164 207 387 679 863
1030.0 860 804 597 417 435 518 666 827 923 957
1070.0 933 865 737 590 482 396 335 335 327 270
1110.0 200 156 154 168 172 168 176 194 228 273
1150.0 324 382 401 419 440 479 576 742 988 1363
1190.0 1848 2388 2948 3494 4166 5216 6652 8008 8713 8630
1230.0 7775 6201 4474 3149 2163 1441 999 738 610 542
1270.0 509 493 478 468 450 424 385 347 309 279
1310.0 265 263 272 293 317 323 318 307 287 249
1350.0 214 189 166 164 167 152 141 136 131 114
1390.0 101 94 99 122 167 250 347 471 635 814
1430.0 1016 1234 1503 1810 2067 2165 2091 1965 1753 1413
1470.0 1127 943 889 1048 1461 2053 2417 2393 2159 1544
1510.0 818 475 360 313 278 252 241 226 214 222
1550.0 231 231 232 225 224 247 281 323 372 423
1590.0 475 552 612 614 575 493 396 296 221 166
1630.0 128 120 132 145 162 182 210 229 236 231
1670.0 197 153 118 75 44 49 61 61 68 91
1710.0 110 114 128 155 186 208 223 247 259 265
1750.0 253 235 232 233 242 265 301 356 429 516
1790.0 579 579 542 463 368 279 230 204 180 166
1830.0 154 146 145 150 172 199 226 260 295 341
1870.0 381 399 409 406 398 381 344 301 248 198
1910.0 178 191 217 256 312 380 435 468 495 536
1950.0 578 592 550 448 336 224 136 108 103 108
1990.0 112 101 96 85 64 54 55 51 46 51
2030.0 48 42 37 30 30 20 23 32 29 26
2070.0 24 22 17 20 25 20 15 16 15 6
2110.0 4 11 7 0 10 14 13 14 18 23
2150.0 24 23 21 15 14 9 13 22 23 24
2190.0 29 27 30 41 45 40 42 55 55 48
2230.0 46 50 49 55 72 72 78 86 89 90
2270.0 82 75 93 110 107 109 121 124 120 133
2310.0 148 151 152 144 130 115 110 109 100 97
2350.0 101 92 69 57 61 66 62 61 61 66
2390.0 73 75 87 102 110 117 112 100 83 71
2430.0 58 40 39 39 35 35 32 36 44 34
2470.0 23 20 18 19 20 22 19 17 18 20
2510.0 23 24 34 37 29 19 21 30 24 8
2550.0 12 22 23 27 24 24 36 36 32 39
2590.0 42 43 61 67 54 56 61 63 80 100
2630.0 105 112 123 111 110 117 106 98 93 88
2670.0 70 54 51 42 34 35 33 29 27 25
2710.0 20 24 29 25 19 20 19 22 17 8
2750.0 9 4 0 17 31 31 36 36 55 69
2790.0 57 67 87 85 84 85 86 102 113 116
2830.0 131 155 172 177 185 193 198 214 231 245
2870.0 254 254 248 258 257 264 257 239 230 223
2910.0 226 219 211 229 249 268 302 360 431 501
2950.0 587 709 863 1075 1319 1547 1748 1872 1843 1683
2990.0 1504 1330 1190 1183 1307 1506 1831 2295 2886 3639
3030.0 4464 5118 5422 5343 4902 4246 3753 3739 4261 5105
3070.0 5819 6089 5947 5321 4404 3670 3224 2871 2521 2165
3110.0 1797 1444 1109 801 542 364 259 188 155 141
3150.0 144 146 133 123 117 114 121 120 88 60
3190.0 57 57 59 54 50 57 61 53 70 70
3230.0 32 29 41 44 47 52 54 38 36 38
3270.0 34 49 62 46 15 0 10 32 37 44
3310.0 38 22 44 45 43 48 53 50 57 61
3350.0 51 67 73 59 40 42 59 55 38 49
3390.0 51 32 38 51 61 57 60 78 63 40
3430.0 41 36 39 45 56 41 41 64 73 73
3470.0 54 44 48 51 53 59 59 54 61 54
3510.0 52 52 59 53 47 44 56 78 57 46
3550.0 65 69 61 71 82 81 78 84 98 81
3590.0 53 63 82 85 102 113 115 129 125 118
3630.0 125 138 117 114 118 102 108 133 129 118
3670.0 100 75 99 126 101 68 85 101 99 93
3710.0 103 118 114 106 97 93 80 90 91 70
3750.0 72 79 84 76 70 98 92 75 81 77
3790.0 85 88 88 105 86 73 77 92 119 112
3830.0 88 86 109 132 138
##END=
