##TITLE=Ethylbenzene
##JCAMP-DX=4.24
##DATA TYPE=INFRARED SPECTRUM
##ORIGIN=NIST Mass Spectrometry Data Center
##OWNER=NIST Standard Reference Data Program
Collection (C) 2018 copyright by the U.S. Secretary of Commerce
on behalf of the United States of America. All rights reserved.
##CAS REGISTRY NO=100-41-4
##MOLFORM=C 8 H 10
##$NIST SOURCE=MSDC-IR
##SPECTROMETER/DATA SYSTEM=HP-GC/MS/IRD
##STATE=gas
##XUNITS=1/CM
##YUNITS=ABSORBANCE
##XFACTOR=1.0
##YFACTOR=0.000002100
##DELTAX=4.0
##FIRSTX=550.0
##LASTX=3846.0
##FIRSTY=0.001552
##MAXX=3846
##MINX=550
##MAXY=0.021
##MINY=0
##NPOINTS=825
##XYDATA=(X++(Y..Y))
550.0 739 808 828 737 586 498 459 437 343 284
590.0 185 106 116 126 146 123 94 115 133 112
630.0 110 124 166 217 229 253 336 465 662 975
670.0 1498 2218 3013 3815 4637 5652 6730 6655 5925 5638
710.0 5362 5062 4841 4668 4553 4431 4299 4175 3990 3828
750.0 3562 3155 2782 2434 2166 1964 1672 1383 1174 1008
790.0 862 706 547 447 373 313 242 168 45 6
830.0 96 108 96 71 53 52 33 44 90 105
870.0 119 153 177 234 276 285 293 337 378 326
910.0 260 212 172 144 100 89 88 89 124 150
950.0 177 236 291 295 296 287 258 205 143 105
990.0 79 74 110 163 219 348 536 732 877 945
1030.0 990 971 946 861 791 791 796 789 755 742
1070.0 720 653 563 508 477 463 459 434 397 361
1110.0 324 303 251 212 182 161 129 101 111 112
1150.0 98 69 54 60 69 49 70 97 96 97
1190.0 95 86 97 108 95 83 98 105 99 135
1230.0 171 179 183 172 169 184 183 157 162 180
1270.0 192 216 245 259 251 274 317 342 385 427
1310.0 467 537 625 683 709 697 624 521 456 404
1350.0 357 339 322 318 393 443 451 514 554 535
1390.0 528 507 482 478 476 496 521 538 630 780
1430.0 950 1124 1397 1733 1988 2120 2140 2196 2238 2132
1470.0 1924 1743 1815 2090 2441 2697 2769 2701 2515 2072
1510.0 1413 880 539 393 364 330 294 249 206 221
1550.0 254 254 208 262 339 376 428 529 683 866
1590.0 1103 1357 1547 1571 1477 1321 1087 798 533 361
1630.0 283 203 178 170 136 95 83 139 154 131
1670.0 99 89 67 14 10 68 50 0 19 76
1710.0 107 88 107 185 214 179 159 187 191 149
1750.0 106 107 98 100 97 95 158 237 301 370
1790.0 396 410 403 355 310 226 173 152 129 106
1830.0 103 127 158 169 208 285 330 346 377 406
1870.0 409 399 353 300 254 183 128 114 116 132
1910.0 162 191 237 310 372 407 424 464 496 489
1950.0 439 362 289 218 140 87 71 66 60 44
1990.0 32 30 45 55 40 28 31 33 42 44
2030.0 40 32 37 37 32 23 26 31 14 6
2070.0 12 28 33 34 28 18 29 19 5 11
2110.0 11 23 25 16 18 17 26 33 29 23
2150.0 23 35 35 28 18 23 32 20 15 20
2190.0 20 20 23 26 18 23 22 27 41 36
2230.0 31 33 40 46 36 27 28 39 43 32
2270.0 30 40 53 52 38 37 41 44 47 50
2310.0 60 68 58 50 50 49 50 50 57 60
2350.0 51 44 38 21 1 12 27 35 37 29
2390.0 35 36 29 27 37 47 46 39 27 26
2430.0 27 28 33 36 25 25 20 15 14 13
2470.0 15 5 3 10 8 17 23 7 11 31
2510.0 39 39 35 26 17 20 29 27 35 37
2550.0 18 19 32 22 16 24 21 24 44 57
2590.0 74 79 77 82 77 78 78 73 69 69
2630.0 87 104 92 90 90 61 31 36 50 45
2670.0 48 40 33 59 77 63 49 47 45 59
2710.0 76 80 88 98 102 122 145 148 149 166
2750.0 170 176 196 205 211 222 241 268 288 291
2790.0 300 313 325 347 355 393 438 477 526 588
2830.0 672 760 857 976 1130 1309 1530 1820 2158 2515
2870.0 2922 3375 3752 3988 4124 4134 4136 4117 4020 3894
2910.0 3823 3871 4006 4296 4790 5434 6107 6617 6829 6856
2950.0 6928 7086 7513 8517 9537 10000 9923 9501 8707 6989
2990.0 5150 4026 3460 3238 3279 3543 4030 4674 5364 5913
3030.0 6180 6293 6259 5931 5319 4724 4498 4679 5030 5343
3070.0 5570 5590 5395 4902 4154 3513 3068 2709 2334 1934
3110.0 1570 1294 1058 851 676 528 417 368 333 298
3150.0 293 293 279 262 253 247 238 211 204 205
3190.0 169 150 142 106 83 82 86 79 80 87
3230.0 88 79 49 34 43 46 54 68 56 41
3270.0 57 66 54 37 37 60 67 46 38 37
3310.0 40 51 47 49 56 31 21 25 28 39
3350.0 43 29 21 25 41 49 40 36 49 63
3390.0 66 60 68 72 67 39 48 46 70 82
3430.0 51 56 66 63 47 64 59 35 53 56
3470.0 33 34 34 9 23 53 65 65 40 48
3510.0 75 75 87 72 64 105 87 58 39 29
3550.0 50 65 77 62 13 13 65 81 60 14
3590.0 23 75 92 99 80 61 71 81 97 61
3630.0 45 105 128 133 118 75 74 105 144 121
3670.0 73 56 88 130 121 124 127 119 137 126
3710.0 83 89 113 98 94 99 71 80 50 43
3750.0 56 106 153 143 133 111 130 120 131 162
3790.0 162 138 123 159 163 143 134 109 120 138
3830.0 149 136 113 110 142
##END=
