##TITLE=3-Cyanopyridine
##JCAMP-DX=4.24
##DATA TYPE=INFRARED SPECTRUM
##ORIGIN=EPA-IR VAPOR PHASE LIBRARY
##OWNER=SRD/NIST
Collection (C) 2018 copyright by the U.S. Secretary of Commerce
on behalf of the United States of America. All rights reserved.
##CAS REGISTRY NO=100-54-9
##MOLFORM=C 6 H 4 N 2
##$NIST SOURCE=MSDC-IR
##STATE=gas
##XUNITS=1/CM
##YUNITS=ABSORBANCE
##XFACTOR=1.
##YFACTOR=0.001
##DELTAX=1.92898
##FIRSTX=549.8
##LASTX=4000.7
##FIRSTY=4.578
##MAXX=4000.7
##MINX=549.759
##MAXY=0.053718
##MINY=0
##NPOINTS=1790
##XYDATA=(X++(Y..Y))
549.759 4.578 4.118 3.918 3.578 2.918 2.368 2.578 2.688 2.068 1.788
569.049 1.968 2.138 1.638 1.2359 1.1729 1.0896 0.9614 0.6958 0.7604 0.8497
588.339 0.7258 0.8941 0.857 0.8287 1.027 1.1718 1.3784 1.728 1.818 2.138
607.628 3.108 3.938 4.868 5.698 6.258 6.298 5.788 5.808 6.578 7.518
626.918 8.398 8.968 8.898 8.378 7.718 6.918 5.978 5.398 4.938 4.308
646.208 3.958 3.658 3.428 3.388 3.468 3.398 3.428 3.858 4.358 5.008
665.498 5.878 6.828 8.158 9.898 11.918 14.308 17.028 19.728 22.588 25.338
684.787 27.148 28.418 29.568 30.828 32.598 35.408 40.088 46.598 53.718 52.958
704.077 42.808 34.988 30.948 28.508 26.968 25.228 23.468 21.508 19.308 16.988
723.367 14.798 12.918 11.088 9.098 7.328 6.198 5.258 4.248 3.688 3.328
742.657 3.028 2.778 2.558 2.418 2.358 2.288 2.338 2.398 2.448 2.788
761.947 3.078 3.378 3.948 4.418 4.988 5.818 6.838 8.028 9.328 10.878
781.236 12.558 14.218 15.938 17.488 18.788 19.978 21.198 23.138 25.788 29.798
800.526 34.438 38.418 35.178 26.158 22.208 21.668 21.028 20.068 18.548 16.988
819.816 15.438 13.728 12.238 10.818 9.318 8.028 6.988 6.018 5.028 4.168
839.106 3.488 3.088 2.688 2.368 2.058 1.718 1.648 1.628 1.3847 1.3228
858.395 1.3849 1.2607 1.1815 1.0901 0.9061 0.9115 1.1357 1.2596 1.2272 1.3123
877.685 1.448 1.528 1.758 1.858 1.918 1.908 1.938 2.138 2.228 2.098
896.975 1.978 2.088 2.388 2.568 2.328 2.138 1.948 2.038 2.178 2.008
916.265 2.008 2.118 1.998 2.038 2.488 2.888 3.158 3.298 3.288 3.158
935.555 3.228 3.478 3.468 3.398 3.268 3.248 3.348 3.188 3.018 3.068
954.844 3.518 3.988 3.968 3.288 2.498 2.218 2.278 2.248 2.068 1.978
974.134 1.908 1.808 1.678 1.508 1.478 1.568 1.538 1.438 1.458 1.628
993.424 2.098 2.748 3.468 4.288 5.158 6.448 8.098 9.978 12.048 14.458
1012.714 16.648 17.938 18.318 18.108 17.618 17.528 17.938 18.068 18.108 18.348
1032.003 17.698 15.588 13.158 10.928 8.928 7.398 6.488 5.608 4.728 4.028
1051.293 3.338 2.758 2.428 2.528 2.598 2.528 2.608 2.598 2.688 2.858
1070.583 2.558 2.348 2.228 2.258 2.358 2.558 2.698 2.668 2.688 2.368
1089.873 2.358 2.228 2.318 2.468 2.938 3.288 3.108 3.208 3.108 3.148
1109.163 3.208 3.348 3.638 3.888 3.848 3.578 3.538 3.888 3.908 3.648
1128.452 3.588 3.238 2.878 2.868 2.888 2.468 2.008 1.868 1.578 1.1629
1147.742 1.3252 1.978 2.108 2.108 2.398 3.078 4.058 4.878 5.528 6.528
1167.032 7.898 9.088 10.408 11.328 11.778 12.078 12.288 12.108 11.588 11.508
1186.322 11.548 11.508 10.708 9.308 7.778 6.158 5.048 4.518 4.068 3.598
1205.611 3.138 2.848 2.638 2.778 3.068 3.288 3.538 3.328 2.448 1.838
1224.901 1.628 0.9066 0.5102 0.6222 0.808 1.005 0.9895 0.6048 0.400399 0.43094
1244.191 0.3328 0.3442 0.287 0.3703 0.3678 0.3781 0.646 0.5919 0.39085 0.199
1263.481 0.043 0 0.046 0.3557 0.5063 0.298 0.192 0.209 0.223 0.165
1282.771 0.297 0.407532 0.3648 0.39155 0.40901 0.5703 0.6639 0.664 0.7672 0.8552
1302.060 0.8687 0.8926 0.9708 1.036 1.1888 1.345 1.488 1.648 1.788 1.958
1321.350 2.128 2.248 2.308 2.298 2.238 2.218 2.218 2.268 2.328 2.378
1340.640 2.378 2.308 2.218 2.118 2.008 1.988 1.988 1.978 2.008 2.128
1359.930 2.308 2.508 2.738 2.898 2.888 2.868 2.978 3.178 3.478 3.818
1379.219 4.218 4.698 5.298 6.098 6.928 7.768 8.778 10.048 11.798 14.158
1398.509 17.118 20.778 24.928 29.298 33.148 35.638 36.188 35.258 33.888 33.648
1417.799 33.528 32.658 33.088 33.018 29.888 24.548 18.578 13.428 9.678 7.238
1437.089 5.598 4.558 3.958 3.618 3.438 3.528 3.898 4.558 5.538 6.848
1456.378 8.508 10.568 12.718 14.738 16.308 17.348 18.118 19.118 20.668 21.848
1475.668 20.598 18.528 17.988 17.628 16.418 14.508 12.248 9.998 7.908 6.288
1494.958 5.098 4.228 3.698 3.248 2.938 2.818 2.568 2.398 2.288 2.178
1514.248 2.088 1.908 1.798 1.758 1.838 1.958 2.078 2.278 2.488 2.798
1533.538 3.228 3.678 4.278 5.058 5.948 6.868 7.828 8.868 9.858 10.888
1552.827 11.938 12.948 13.968 15.078 16.108 17.038 18.068 19.298 20.718 22.238
1572.117 23.748 25.078 26.098 26.618 26.498 25.918 24.948 23.578 21.788 19.728
1591.407 17.958 16.348 14.268 12.228 10.518 8.638 6.838 5.358 4.158 3.248
1610.697 2.618 2.238 2.118 2.028 1.748 1.518 1.3859 1.3576 1.3714 1.2139
1629.986 1.1914 1.2543 1.2111 1.2432 1.2402 1.1873 1.1627 1.1824 1.2274 1.3072
1649.276 1.3139 1.2648 1.3191 1.3125 1.2825 1.2108 1.1691 1.1729 1.1398 1.119
1668.566 1.0221 0.9039 0.8554 0.8055 0.7321 0.7113 0.7146 0.681 0.7008 0.7724
1687.856 0.7372 0.663 0.7058 0.7936 0.7794 0.7601 0.8117 0.8654 0.9256 0.99
1707.146 1.0392 1.1163 1.1911 1.2853 1.3962 1.478 1.578 1.718 1.768 1.758
1726.435 1.858 1.978 2.008 1.998 1.988 2.038 2.098 2.218 2.298 2.288
1745.725 2.348 2.428 2.498 2.488 2.458 2.458 2.338 2.268 2.228 2.058
1765.015 1.928 1.828 1.688 1.468 1.2763 1.1027 0.97 0.9291 0.8698 0.8454
1784.305 0.839 0.8858 0.8997 0.8229 0.8725 0.9225 0.931 0.8992 0.8688 0.8941
1803.594 0.882 0.8774 0.8275 0.814 0.8282 0.7682 0.7354 0.7673 0.7664 0.7411
1822.884 0.7387 0.801 0.8783 0.9617 1.0565 1.0315 1.0286 1.1867 1.3538 1.438
1842.174 1.528 1.568 1.608 1.718 1.718 1.778 1.858 1.828 1.868 1.998
1861.464 2.028 2.018 2.008 2.068 2.128 2.158 2.238 2.348 2.408 2.418
1880.754 2.408 2.378 2.418 2.558 2.718 2.878 3.018 3.148 3.308 3.448
1900.043 3.578 3.768 3.898 3.998 4.078 4.068 3.998 3.888 3.908 3.918
1919.333 3.868 3.788 3.688 3.538 3.278 3.118 3.068 3.028 3.038 3.028
1938.623 2.928 2.848 2.798 2.798 2.898 2.978 2.938 2.838 2.738 2.658
1957.913 2.518 2.408 2.398 2.328 2.238 2.118 1.958 1.898 1.898 1.768
1977.202 1.618 1.568 1.448 1.2225 1.0002 0.8835 0.8103 0.717 0.7006 0.6838
1996.492 0.6487 0.6099 0.6187 0.6175 0.5882 0.5681 0.5004 0.5117 0.5717 0.5922
2015.782 0.574 0.5584 0.5742 0.5816 0.6113 0.6215 0.612 0.6173 0.6513 0.6732
2035.072 0.6279 0.6178 0.6552 0.6481 0.6817 0.7554 0.753 0.6832 0.6754 0.7211
2054.362 0.6791 0.6876 0.6757 0.6416 0.6166 0.6107 0.6863 0.7054 0.7176 0.7198
2073.651 0.6954 0.6781 0.6874 0.6665 0.6525 0.6966 0.6877 0.7319 0.7022 0.608
2092.941 0.6298 0.6289 0.602 0.5384 0.49095 0.5504 0.5279 0.49494 0.49591 0.49168
2112.231 0.5427 0.5361 0.5338 0.5096 0.4822 0.48095 0.5219 0.5512 0.539 0.5546
2131.521 0.6063 0.5525 0.48734 0.4981 0.47765 0.501 0.5626 0.5863 0.5469 0.5388
2150.810 0.5646 0.5843 0.5964 0.6229 0.5982 0.5767 0.595 0.6344 0.6475 0.636
2170.100 0.6227 0.6219 0.6379 0.6345 0.6909 0.7102 0.6867 0.7656 0.773 0.7286
2189.390 0.7457 0.7782 0.8601 0.957 1.0108 1.0522 1.0903 1.1146 1.2223 1.3522
2208.680 1.508 1.788 2.048 2.398 2.898 3.428 3.978 4.618 5.258 5.788
2227.970 6.398 6.958 7.308 7.618 7.778 7.818 7.808 7.578 7.178 6.698
2247.259 6.138 5.458 4.628 3.748 2.988 2.388 1.978 1.688 1.428 1.3021
2266.549 1.1643 1.0164 0.9824 0.9342 0.9107 0.8876 0.8157 0.7717 0.7098 0.6462
2285.839 0.6308 0.6643 0.6466 0.6148 0.6204 0.6449 0.6356 0.6105 0.6404 0.687
2305.129 0.6516 0.615 0.6226 0.6159 0.6377 0.7316 0.764 0.6673 0.6967 0.7352
2324.418 0.7342 0.7496 0.7749 0.7602 0.7663 0.8746 0.9597 0.9746 0.9679 0.9966
2343.708 1.04 1.0504 1.0562 1.137 1.2318 1.2177 1.1959 1.2656 1.2586 1.1983
2362.998 1.2441 1.3026 1.2904 1.2998 1.2857 1.3493 1.428 1.478 1.538 1.468
2382.288 1.428 1.498 1.538 1.478 1.428 1.438 1.3838 1.2862 1.283 1.2069
2401.578 1.1076 1.0231 0.9249 0.9549 0.9566 0.9266 0.9031 0.9502 0.9613 0.865
2420.867 0.8466 0.8464 0.8694 0.8683 0.82 0.7697 0.7681 0.731 0.7268 0.7147
2440.157 0.7261 0.8209 0.7462 0.6966 0.7152 0.6806 0.7092 0.7482 0.7431 0.7636
2459.447 0.78 0.7629 0.7282 0.7208 0.6798 0.6102 0.5803 0.5858 0.6032 0.541
2478.737 0.511 0.5791 0.67 0.6397 0.551 0.5676 0.6436 0.6644 0.6101 0.6628
2498.026 0.6843 0.6275 0.7077 0.743 0.7182 0.7418 0.7854 0.8633 0.7937 0.7206
2517.316 0.8019 0.8376 0.8356 0.8568 0.8683 0.86 0.9199 0.8633 0.8321 0.8602
2536.606 0.8856 0.9278 0.9004 0.8981 0.9219 0.9519 0.8574 0.7884 0.7939 0.8042
2555.896 0.8165 0.7924 0.7685 0.7707 0.8153 0.8757 0.8225 0.748 0.8149 0.8924
2575.186 0.883 0.9737 0.9548 0.9237 0.9766 0.9337 1.0165 1.0764 1.1159 1.1495
2594.475 1.16 1.2171 1.2293 1.1955 1.2255 1.22 1.1219 1.0853 1.1224 1.1135
2613.765 1.0381 1.0109 0.9603 0.9599 0.9263 0.8834 0.9714 0.9629 0.8852 0.8184
2633.055 0.8045 0.8879 0.9413 0.8995 0.8045 0.7861 0.8461 0.8739 0.8705 0.7911
2652.345 0.7607 0.7395 0.642 0.7044 0.7146 0.6567 0.6845 0.6432 0.6539 0.673
2671.634 0.6316 0.6362 0.6065 0.6368 0.7004 0.6971 0.7537 0.8222 0.8668 0.8187
2690.924 0.7769 0.737 0.6424 0.6607 0.7338 0.7871 0.7645 0.7469 0.785 0.8518
2710.214 0.8719 0.8271 0.8563 0.9074 0.885 0.7886 0.6777 0.6217 0.6385 0.7103
2729.504 0.7085 0.6722 0.7153 0.7144 0.6028 0.5747 0.6241 0.5902 0.6111 0.7128
2748.794 0.6714 0.6274 0.6969 0.7791 0.7978 0.7999 0.8869 0.915 0.9519 1.0533
2768.083 1.1774 1.1851 1.1033 1.0764 1.0872 1.1135 1.1154 1.0876 1.012 1.0581
2787.373 1.0934 0.9922 0.8863 0.835 0.8246 0.7225 0.6934 0.7744 0.7075 0.6543
2806.663 0.6374 0.6503 0.665 0.5834 0.5151 0.49179 0.49457 0.498 0.5097 0.556
2825.953 0.5139 0.403793 0.42295 0.5199 0.49147 0.45466 0.47853 0.5183 0.5718 0.5634
2845.242 0.5826 0.5061 0.46555 0.46686 0.374 0.39082 0.44709 0.5172 0.6414 0.6495
2864.532 0.5908 0.6272 0.6291 0.5607 0.5983 0.6874 0.799 0.7866 0.7485 0.7382
2883.822 0.7583 0.7343 0.6977 0.7835 0.816 0.762 0.6874 0.719 0.6478 0.6386
2903.112 0.7082 0.6618 0.6335 0.6292 0.6504 0.6481 0.7064 0.7617 0.6612 0.7141
2922.401 0.8377 0.7661 0.796 0.7778 0.7623 0.8992 0.909 0.9056 0.992 1.0035
2941.691 0.9583 1.0815 1.3331 1.488 1.628 1.638 1.648 1.768 1.838 1.848
2960.981 1.888 2.008 1.968 2.028 2.108 2.038 2.088 2.058 2.008 1.918
2980.271 1.728 1.748 1.788 1.728 1.608 1.528 1.628 1.708 1.768 1.898
2999.561 1.968 2.018 2.168 2.278 2.348 2.468 2.588 2.748 2.938 3.148
3018.850 3.468 3.968 4.518 5.158 5.978 6.848 7.938 9.188 10.548 12.178
3038.140 13.868 15.738 17.608 19.248 20.498 21.198 21.598 21.688 21.488 21.018
3057.430 20.368 19.638 18.868 17.898 16.318 14.478 12.918 11.528 10.348 9.798
3076.720 9.628 9.658 10.048 10.488 10.758 10.808 10.538 10.218 9.988 9.858
3096.009 9.838 9.758 9.648 9.398 8.718 7.638 6.478 5.478 4.728 4.218
3115.299 3.938 3.728 3.478 3.248 3.048 3.008 2.988 2.798 2.578 2.418
3134.589 2.268 2.188 2.088 1.858 1.688 1.478 1.2856 1.1966 1.1622 1.101
3153.879 1.067 1.1372 1.1647 1.1843 1.128 1.113 1.2102 1.1766 1.0818 1.0816
3173.169 1.0809 1.0705 1.1067 1.0272 0.8701 0.9278 1.0091 1.0628 1.099 0.9706
3192.458 0.8068 0.6837 0.6674 0.6419 0.7002 0.7875 0.6652 0.6617 0.7147 0.6669
3211.748 0.6545 0.719 0.6963 0.6637 0.7444 0.7408 0.6177 0.5928 0.6933 0.6805
3231.038 0.6227 0.5512 0.5892 0.621 0.6532 0.5575 0.43693 0.43909 0.49297 0.5363
3250.328 0.47377 0.5449 0.6046 0.5066 0.49138 0.531 0.4989 0.5105 0.5401 0.5274
3269.617 0.5928 0.5489 0.43395 0.5281 0.504 0.43539 0.47933 0.48276 0.46947 0.5053
3288.907 0.46936 0.43503 0.3357 0.289 0.5415 0.7417 0.5701 0.46574 0.5269 0.6847
3308.197 0.6962 0.45693 0.5307 0.5912 0.5781 0.5275 0.48028 0.5539 0.5888 0.5895
3327.487 0.5789 0.5108 0.407239 0.4997 0.5772 0.4987 0.5378 0.6128 0.6366 0.6027
3346.777 0.5186 0.556 0.5389 0.42978 0.5297 0.47708 0.3061 0.5127 0.6021 0.5267
3366.066 0.613 0.6673 0.6698 0.6189 0.5986 0.5816 0.4983 0.6382 0.7386 0.7656
3385.356 0.7943 0.6824 0.6474 0.7017 0.6604 0.5693 0.7212 0.8524 0.7905 0.7743
3404.646 0.8294 0.727 0.598 0.7279 0.8489 0.9445 0.9762 0.8422 0.8744 0.9989
3423.936 1.075 0.9999 0.8548 0.9066 0.9364 0.9425 1.0056 1.1429 1.2283 1.0681
3443.225 1.0318 0.9924 0.9193 0.9966 1.0547 1.0107 0.9361 0.9614 0.8538 0.7088
3462.515 0.6814 0.629 0.6131 0.655 0.6479 0.6561 0.507 0.46771 0.6581 0.6987
3481.805 0.6187 0.6004 0.5497 0.46024 0.5292 0.6086 0.6031 0.613 0.5362 0.48377
3501.095 0.5005 0.537 0.618 0.6089 0.5994 0.5217 0.43435 0.4249 0.45271 0.5079
3520.385 0.5547 0.5397 0.584 0.5281 0.44573 0.47252 0.47596 0.5466 0.48532 0.46402
3539.674 0.5041 0.5138 0.47894 0.5175 0.5271 0.39429 0.41554 0.39678 0.3486 0.3057
3558.964 0.41143 0.6304 0.5984 0.5519 0.5461 0.49024 0.5437 0.6492 0.6812 0.5842
3578.254 0.44913 0.49633 0.5308 0.4976 0.5599 0.594 0.536 0.5733 0.5563 0.4578
3597.544 0.4997 0.49333 0.5065 0.5707 0.5326 0.5186 0.6626 0.635 0.43358 0.5682
3616.833 0.6676 0.45765 0.3642 0.5162 0.6177 0.5378 0.42455 0.401511 0.518 0.5203
3636.123 0.5344 0.6649 0.6719 0.5614 0.44182 0.5305 0.604 0.6134 0.5982 0.5686
3655.413 0.564 0.5473 0.5754 0.4983 0.5409 0.5444 0.40868 0.47178 0.5373 0.5226
3674.703 0.5692 0.6526 0.6945 0.6487 0.6846 0.7125 0.687 0.6308 0.5742 0.6116
3693.993 0.6858 0.839 0.832 0.583 0.48164 0.5666 0.5905 0.5784 0.5729 0.6211
3713.282 0.6499 0.5668 0.5742 0.5457 0.6315 0.6534 0.5489 0.46482 0.404753 0.48755
3732.572 0.6255 0.646 0.5088 0.5439 0.6224 0.637 0.6012 0.6692 0.6504 0.5708
3751.862 0.6363 0.6296 0.5688 0.5781 0.539 0.5146 0.6286 0.5816 0.6194 0.6839
3771.152 0.6174 0.6827 0.6203 0.5956 0.7219 0.6308 0.47029 0.5776 0.7326 0.8224
3790.441 0.782 0.6204 0.5571 0.4859 0.44899 0.6012 0.7639 0.6429 0.6711 0.8279
3809.731 0.8354 0.8554 0.8928 0.7941 0.8806 1.0449 1.082 1.0917 0.9123 0.8776
3829.021 1.0759 1.0734 0.8329 0.7902 0.8199 0.8411 0.8226 0.8227 0.8881 0.8553
3848.311 0.7232 0.6501 0.7959 0.9443 0.8473 0.9133 0.9931 0.8425 0.737 0.6609
3867.601 0.7643 0.7243 0.7875 0.9587 0.9016 0.8961 0.8969 0.7911 0.6803 0.674
3886.890 0.682 0.7187 0.8036 0.7907 0.6153 0.48066 0.5962 0.7014 0.5422 0.55
3906.180 0.6065 0.5677 0.6287 0.6342 0.6767 0.5977 0.688 0.6817 0.47715 0.48529
3925.470 0.42694 0.5582 0.6071 0.39212 0.42732 0.5003 0.557 0.5858 0.40986 0.44545
3944.760 0.5858 0.6078 0.5939 0.6559 0.7721 0.6041 0.47431 0.6428 0.8003 0.8177
3964.049 0.6698 0.4983 0.403288 0.3039 0.42149 0.6739 0.6931 0.6403 0.4846 0.42955
3983.339 0.3877 0.44189 0.5489 0.39367 0.45728 0.6291 0.7651 0.8113 0.6719 0.6211
##END=
