##TITLE=Benzylalcohol
##JCAMP-DX=4.24
##DATA TYPE=INFRARED SPECTRUM
##ORIGIN=NIST Mass Spectrometry Data Center
##OWNER=NIST Standard Reference Data Program
Collection (C) 2018 copyright by the U.S. Secretary of Commerce
on behalf of the United States of America. All rights reserved.
##CAS REGISTRY NO=100-51-6
##MOLFORM=C 7 H 8 O
##$NIST SOURCE=MSDC-IR
##SPECTROMETER/DATA SYSTEM=HP-GC/MS/IRD
##STATE=gas
##XUNITS=1/CM
##YUNITS=ABSORBANCE
##XFACTOR=1.0
##YFACTOR=0.000002100
##DELTAX=4.0
##FIRSTX=550.0
##LASTX=3846.0
##FIRSTY=0.000544
##MAXX=3846
##MINX=550
##MAXY=0.021
##MINY=0
##NPOINTS=825
##XYDATA=(X++(Y..Y))
550.0 259 180 256 368 523 743 957 1230 1510 1647
590.0 1739 1696 1445 1066 723 504 331 254 223 218
630.0 236 197 172 170 188 230 328 476 641 897
670.0 1339 1962 2722 3436 4068 5005 6246 6388 5785 5458
710.0 5204 5092 5090 5202 5546 6183 6851 7003 6429 5566
750.0 4723 3872 2984 2156 1520 1043 657 446 351 253
790.0 266 294 307 368 344 267 264 241 167 155
830.0 115 79 68 35 64 81 55 58 58 82
870.0 150 183 206 280 374 436 505 595 670 706
910.0 692 714 722 726 741 773 816 866 959 1101
950.0 1295 1489 1719 1922 2145 2445 2773 3143 3545 4007
990.0 4557 5209 6002 6948 8021 9046 9748 10000 9938 9666
1030.0 9093 8115 7005 6156 5417 4687 4049 3527 3082 2666
1070.0 2288 1955 1682 1428 1186 998 862 752 684 655
1110.0 637 635 632 625 649 704 749 794 853 928
1150.0 1023 1143 1255 1391 1566 1729 1874 2027 2203 2382
1190.0 2564 2734 2826 2813 2711 2523 2247 1929 1658 1476
1230.0 1365 1291 1254 1219 1187 1158 1133 1114 1107 1110
1270.0 1083 1064 1062 1069 1082 1094 1103 1126 1156 1186
1310.0 1201 1238 1272 1274 1289 1311 1333 1400 1435 1496
1350.0 1619 1778 2017 2343 2746 3231 3702 4020 4164 4127
1390.0 3894 3482 2937 2411 2009 1716 1526 1387 1278 1236
1430.0 1248 1360 1527 1668 1815 1836 1747 1755 1778 1588
1470.0 1320 1117 1002 974 1047 1139 1141 1113 1059 969
1510.0 701 383 246 184 142 128 121 119 123 135
1550.0 132 124 142 150 153 178 207 243 262 289
1590.0 319 333 351 339 301 273 237 186 148 122
1630.0 95 82 68 60 58 52 38 21 12 0
1670.0 6 20 8 16 18 12 49 74 100 158
1710.0 239 341 406 415 438 468 410 284 209 185
1750.0 168 128 107 95 105 135 143 157 200 246
1790.0 310 363 374 389 367 322 252 175 141 129
1830.0 107 105 120 144 164 178 201 233 265 297
1870.0 321 327 300 268 245 205 168 135 115 102
1910.0 98 119 152 189 230 279 335 374 413 455
1950.0 467 437 388 322 250 188 135 105 95 86
1990.0 90 99 88 100 103 90 102 112 105 111
2030.0 113 112 108 86 80 102 113 103 89 80
2070.0 72 60 62 67 63 56 47 53 58 60
2110.0 63 46 37 42 45 45 42 38 45 50
2150.0 48 60 65 50 42 40 43 52 48 50
2190.0 65 57 48 53 48 51 64 53 43 53
2230.0 48 37 46 51 41 44 57 64 68 60
2270.0 58 78 77 56 58 70 74 76 79 83
2310.0 83 88 81 55 43 43 48 31 36 52
2350.0 34 11 5 1 0 4 18 42 63 65
2390.0 64 69 72 81 86 90 97 84 69 67
2430.0 68 60 53 52 65 67 66 68 70 80
2470.0 76 83 108 107 88 74 78 92 99 97
2510.0 88 88 89 90 78 67 76 81 80 81
2550.0 94 89 72 73 89 98 96 102 102 93
2590.0 93 107 120 131 134 128 137 142 135 122
2630.0 116 118 131 137 133 124 120 121 136 150
2670.0 143 146 156 154 160 156 153 167 178 191
2710.0 202 218 233 245 246 264 284 275 270 281
2750.0 286 288 291 288 298 330 360 369 401 439
2790.0 469 482 502 551 578 614 675 728 794 870
2830.0 949 1062 1206 1365 1537 1720 1923 2154 2408 2719
2870.0 3064 3353 3613 3834 3933 3921 3809 3642 3505 3393
2910.0 3323 3304 3300 3287 3262 3205 3118 3030 2918 2782
2950.0 2643 2490 2329 2117 1857 1630 1438 1259 1104 995
2990.0 949 950 961 1027 1178 1438 1815 2318 2941 3577
3030.0 4087 4420 4565 4576 4403 4041 3749 3748 4035 4349
3070.0 4575 4682 4640 4389 3805 3172 2687 2375 2088 1738
3110.0 1398 1108 884 682 523 390 279 215 192 170
3150.0 148 153 170 166 150 139 138 154 136 95
3190.0 89 86 71 84 112 108 112 88 66 67
3230.0 75 73 80 85 63 62 73 92 78 41
3270.0 45 71 86 61 60 81 77 79 53 40
3310.0 66 60 44 49 48 43 53 58 41 55
3350.0 82 69 58 59 57 59 69 90 89 99
3390.0 109 107 119 126 99 78 112 123 129 147
3430.0 113 110 95 100 115 103 106 95 83 94
3470.0 99 114 136 122 113 118 125 149 158 151
3510.0 157 127 99 121 106 63 72 98 115 119
3550.0 99 76 67 77 110 120 114 111 83 111
3590.0 141 152 198 227 247 304 409 484 538 674
3630.0 862 1030 1230 1474 1814 2043 2021 1990 1951 1865
3670.0 1702 1465 1206 978 798 677 577 472 372 320
3710.0 308 266 219 196 152 135 144 113 86 75
3750.0 80 74 59 64 90 93 71 85 106 102
3790.0 69 55 74 75 53 66 86 65 57 77
3830.0 73 71 95 109 99
##END=
