##TITLE=2-Methyl-1-phenyl-2-propanol
##JCAMP-DX=4.24
##DATA TYPE=INFRARED SPECTRUM
##ORIGIN=NIST Mass Spectrometry Data Center
##OWNER=NIST Standard Reference Data Program
Collection (C) 2018 copyright by the U.S. Secretary of Commerce
on behalf of the United States of America. All rights reserved.
##CAS REGISTRY NO=100-86-7
##MOLFORM=C 10 H 14 O
##$NIST SOURCE=MSDC-IR
##SPECTROMETER/DATA SYSTEM=HP-GC/MS/IRD
##STATE=gas
##XUNITS=1/CM
##YUNITS=ABSORBANCE
##XFACTOR=1.0
##YFACTOR=0.000001700
##DELTAX=4.0
##FIRSTX=550.0
##LASTX=3846.0
##FIRSTY=0.000394
##MAXX=3846
##MINX=550
##MAXY=0.017
##MINY=0
##NPOINTS=825
##XYDATA=(X++(Y..Y))
550.0 232 106 0 94 167 126 101 119 99 120
590.0 134 218 372 489 590 581 521 461 353 289
630.0 230 166 162 162 161 184 235 299 377 470
670.0 533 650 948 1438 2160 3055 4053 4944 5240 5036
710.0 4832 4796 4903 5028 4607 3697 2701 1801 1160 777
750.0 582 516 547 637 743 841 866 795 714 581
790.0 421 308 231 186 186 183 182 201 239 264
830.0 241 246 238 222 215 226 279 343 394 490
870.0 635 776 928 1132 1406 1699 1961 2177 2310 2318
910.0 2198 2016 1743 1445 1209 1035 898 798 739 714
950.0 730 798 903 1004 1065 1082 1034 905 741 600
990.0 489 417 390 348 325 343 353 440 644 816
1030.0 848 764 635 476 363 397 493 578 682 776
1070.0 846 903 989 1082 1197 1397 1665 1967 2322 2706
1110.0 3099 3465 3738 3923 4018 4013 3908 3798 3656 3511
1150.0 3442 3377 3231 2992 2707 2439 2213 2079 2027 2013
1190.0 2088 2215 2346 2482 2601 2685 2709 2672 2575 2455
1230.0 2376 2305 2231 2171 2099 2002 1881 1761 1667 1625
1270.0 1617 1620 1625 1612 1580 1534 1480 1466 1466 1456
1310.0 1449 1438 1435 1458 1534 1675 1840 1993 2087 2091
1350.0 2055 2074 2216 2533 2972 3379 3691 3880 3795 3408
1390.0 2858 2210 1573 1110 847 707 654 640 659 729
1430.0 839 1012 1248 1513 1776 1965 2057 2083 1998 1859
1470.0 1720 1576 1514 1600 1750 1892 1961 1822 1507 1159
1510.0 798 513 356 288 253 229 222 226 223 205
1550.0 187 193 214 209 209 237 267 296 359 462
1590.0 607 783 909 931 854 689 510 344 246 175
1630.0 116 111 110 85 76 97 88 68 78 83
1670.0 75 90 103 118 126 110 118 119 115 101
1710.0 79 82 89 82 87 108 122 123 128 141
1750.0 145 135 122 106 95 102 122 131 146 183
1790.0 224 272 293 288 274 233 177 141 127 111
1830.0 85 65 62 70 84 104 123 139 167 193
1870.0 201 204 217 210 196 182 150 123 96 74
1910.0 69 76 80 98 152 202 240 271 290 307
1950.0 306 278 236 171 95 56 51 42 31 32
1990.0 29 19 15 8 10 29 31 23 22 19
2030.0 17 24 41 41 28 24 24 22 29 33
2070.0 28 23 22 22 26 25 27 30 26 19
2110.0 21 25 33 33 24 33 39 28 21 22
2150.0 28 33 29 24 24 22 16 24 39 41
2190.0 49 52 40 24 23 31 36 44 42 39
2230.0 39 39 35 30 34 39 41 38 35 36
2270.0 47 48 51 55 51 50 51 49 63 78
2310.0 79 82 86 79 66 56 68 73 69 78
2350.0 71 71 69 67 72 61 51 57 63 55
2390.0 41 34 41 50 53 49 46 39 28 17
2430.0 24 35 32 30 28 27 26 22 26 27
2470.0 21 35 45 33 24 21 25 28 33 34
2510.0 29 49 61 49 48 37 22 38 60 57
2550.0 43 51 70 56 43 48 56 65 62 68
2590.0 71 64 70 77 79 70 62 68 76 76
2630.0 74 69 57 45 56 64 59 54 49 63
2670.0 72 64 67 76 61 58 59 56 58 70
2710.0 77 85 99 123 140 129 117 132 152 149
2750.0 136 116 129 159 169 161 137 153 181 156
2790.0 154 191 206 220 248 262 287 330 390 440
2830.0 496 569 657 800 951 1069 1201 1306 1385 1494
2870.0 1632 1772 1883 1999 2137 2227 2332 2442 2596 2845
2910.0 3165 3578 4074 4587 5087 5493 5726 5725 5456 5050
2950.0 4638 4410 4630 5403 6679 8216 9505 10000 9496 8097
2990.0 6212 4362 2917 2012 1600 1515 1643 1982 2480 3073
3030.0 3612 3874 3783 3374 2809 2328 2168 2411 2957 3496
3070.0 3764 3745 3424 2888 2434 2130 1826 1547 1273 1034
3110.0 844 680 524 426 346 264 200 179 150 145
3150.0 189 207 199 185 179 185 169 131 123 141
3190.0 127 127 148 129 134 149 135 133 128 111
3230.0 98 98 107 109 95 76 75 89 87 93
3270.0 96 64 52 76 80 77 79 50 46 73
3310.0 80 79 51 42 66 50 37 53 76 90
3350.0 91 100 107 99 113 122 108 97 115 110
3390.0 86 100 85 72 66 54 59 59 51 56
3430.0 82 78 70 73 87 91 77 81 60 39
3470.0 44 39 48 53 55 51 32 46 72 60
3510.0 63 75 68 41 16 49 57 51 49 38
3550.0 53 88 97 100 94 105 163 200 212 219
3590.0 210 230 307 396 517 704 889 1009 1052 1056
3630.0 1091 1106 1066 969 822 644 460 332 250 205
3670.0 182 159 147 106 99 118 101 79 65 62
3710.0 52 57 78 81 70 82 79 70 72 63
3750.0 56 38 30 32 35 53 72 55 45 55
3790.0 61 86 76 67 79 71 78 86 94 85
3830.0 71 97 103 87 62
##END=
