##TITLE=p-Nitroaniline
##JCAMP-DX=4.24
##DATA TYPE=INFRARED SPECTRUM
##ORIGIN=EPA-IR VAPOR PHASE LIBRARY
##OWNER=SRD/NIST
Collection (C) 2018 copyright by the U.S. Secretary of Commerce
on behalf of the United States of America. All rights reserved.
##CAS REGISTRY NO=100-01-6
##MOLFORM=C 6 H 6 N 2 O 2
##$NIST SOURCE=MSDC-IR
##STATE=gas
##XUNITS=1/CM
##YUNITS=ABSORBANCE
##XFACTOR=1.
##YFACTOR=0.001
##DELTAX=3.85796
##FIRSTX=551.7
##LASTX=4000.7
##FIRSTY=5.05
##MAXX=4000.7
##MINX=551.688
##MAXY=0.13069
##MINY=0.0004918
##NPOINTS=895
##XYDATA=(X++(Y..Y))
551.688 5.05 5.36 5.56 5.99 6.34 6.62 6.91 7.24 7.5 7.92
590.268 8.72 9.54 10.35 11.03 11.64 12.66 14.36 16.53 18.06 18.09
628.847 17.01 14.43 10.47 7.54 6.67 6.67 7.01 7.68 8.58 9.97
667.427 11.74 14.17 17.53 20.84 22.69 22.63 21.01 17.87 14.51 12.09
706.006 10.49 9.6 9.34 9.53 10.11 11.1 12.53 14.07 15.35 16.12
744.586 16.55 16.19 14.55 12.74 11.17 9.68 8.42 7.52 6.87 6.43
783.165 6.08 5.67 5.25 4.97 5.06 5.8 7.04 8.83 11.44 14.52
821.745 17.39 19.99 22.3 25.52 28.36 26.92 24.81 25 25.56 24.91
860.324 22.53 19.29 15.06 9.75 5.6 3.79 3.23 3.01 2.91 2.8
898.904 2.64 2.52 2.48 2.35 2.17 2.16 2.22 2.35 2.52 2.82
937.484 3.17 3.42 3.69 3.88 3.77 3.62 3.48 3.22 2.92 2.7
976.063 2.53 2.35 2.16 2.03 1.98 1.94 1.93 2.02 2.07 2.02
1014.643 2.02 1.95 1.77 1.67 1.6 1.56 1.63 1.83 2.05 2.22
1053.222 2.43 2.65 2.84 3.01 3.15 3.28 3.36 3.41 3.63 3.97
1091.802 4.8 6.96 11.1 16.53 21.04 23.48 23.93 20.67 14.09 8.72
1130.381 6.12 4.74 3.83 3.33 2.95 2.79 2.95 3.41 4.67 7.16
1168.961 10.35 13.35 15.46 15.75 13.74 10.39 6.93 4.21 2.74 2.19
1207.540 2.11 2.18 2.19 2.2 2.3 2.42 2.62 3.02 3.48 3.97
1246.120 4.46 4.9 5.44 6.2 7.44 9.75 13.93 20.5 29.23 38.27
1284.699 45.21 49.1 48.67 42.57 33.91 26.44 20.1 15.36 13.43 14.19
1323.279 17.9 26.34 42.21 67.68 98.75 122.41 130.69 127.66 108.36 72.82
1361.859 44.15 30.99 24.69 19.85 14.98 10.48 7.31 5.37 4.14 3.32
1400.438 2.81 2.53 2.38 2.34 2.43 2.61 2.88 3.25 3.68 4.08
1439.018 4.4 4.69 5.13 5.95 7.36 9.27 10.94 11.96 12.53 12.29
1477.597 11.17 11.04 13.34 18.28 25.28 32.06 36.49 39.63 42.72 45.32
1516.177 50.06 59.15 70.33 77.99 78.3 75.63 73.35 63.56 47.6 34.08
1554.756 24.9 18.85 15.47 14.16 14.22 15.62 18.23 21.99 28.24 37.95
1593.336 50.01 60.97 67.75 69.13 64.66 60.87 64.58 69.42 70.32 68.81
1631.915 60.83 45.95 32.64 23.32 16.06 11.62 9.21 7.9 7.01 6.28
1670.495 5.5 4.68 3.97 3.47 3.2 3.15 3.22 3.31 3.37 3.35
1709.075 3.19 3.01 2.88 2.82 2.75 2.68 2.66 2.58 2.48 2.42
1747.654 2.32 2.17 1.97 1.74 1.54 1.33 1.12 0.9566 0.8646 0.8181
1786.234 0.7899 0.7789 0.7659 0.7588 0.749 0.7506 0.7701 0.7744 0.7756 0.7858
1824.813 0.7927 0.782 0.7485 0.7374 0.7458 0.7581 0.7934 0.819 0.8614 0.9165
1863.393 0.9828 1.07 1.16 1.3 1.46 1.65 1.89 2.1 2.28 2.36
1901.972 2.31 2.2 2.04 1.78 1.48 1.21 1.01 0.8873 0.8049 0.7824
1940.552 0.8269 0.9053 0.983 1.06 1.16 1.26 1.38 1.47 1.47 1.43
1979.131 1.35 1.22 1.05 0.9438 0.8839 0.8536 0.8951 0.9411 0.9494 0.9975
2017.711 1.04 1.05 1.05 1 0.9446 0.9136 0.8955 0.875 0.8306 0.8204
2056.291 0.8295 0.8477 0.8525 0.8338 0.8311 0.8232 0.8191 0.8382 0.8417 0.8354
2094.870 0.838 0.839 0.8397 0.8007 0.7249 0.7058 0.7033 0.6615 0.6563 0.6646
2133.450 0.6348 0.5988 0.5954 0.5892 0.5735 0.5504 0.5482 0.5701 0.5622 0.5582
2172.029 0.5689 0.5601 0.5958 0.6419 0.6423 0.6762 0.7031 0.6977 0.7352 0.7697
2210.609 0.7954 0.8176 0.7914 0.7574 0.753 0.7305 0.6803 0.6611 0.6452 0.6275
2249.188 0.6128 0.5707 0.5303 0.5134 0.499 0.5139 0.5609 0.5839 0.5939 0.6324
2287.768 0.678 0.7127 0.7428 0.7812 0.8073 0.8097 0.8193 0.8067 0.762 0.7513
2326.347 0.741 0.7064 0.7087 0.7116 0.705 0.7548 0.8101 0.7876 0.7689 0.7941
2364.927 0.8524 0.8802 0.8946 0.9407 0.9731 0.9752 0.938 0.9112 0.9277 0.9323
2403.507 0.9141 0.9124 0.8976 0.8735 0.8886 0.8998 0.9217 0.993 1.09 1.25
2442.086 1.42 1.57 1.73 1.85 1.86 1.73 1.48 1.21 1.01 0.8746
2480.666 0.7573 0.678 0.6281 0.5858 0.5756 0.5789 0.5817 0.6144 0.6184 0.5758
2519.245 0.5335 0.5342 0.5301 0.4918 0.5254 0.5709 0.569 0.6081 0.6801 0.7558
2557.825 0.7813 0.8001 0.856 0.8861 0.8553 0.8358 0.8566 0.8415 0.8448 0.8567
2596.404 0.865 0.9369 1.01 1.06 1.13 1.19 1.23 1.26 1.31 1.39
2634.984 1.48 1.6 1.71 1.78 1.77 1.64 1.44 1.25 1.09 0.9715
2673.563 0.9415 0.9077 0.875 0.8878 0.8615 0.871 0.8728 0.8773 0.9064 0.9046
2712.143 0.9345 0.9161 0.8306 0.7711 0.7264 0.7123 0.6961 0.6739 0.6911 0.7022
2750.722 0.7096 0.7415 0.7323 0.7165 0.731 0.6931 0.6518 0.6612 0.6866 0.6906
2789.302 0.7145 0.7496 0.715 0.7227 0.7881 0.7999 0.8415 0.8899 0.9007 0.9563
2827.882 1.01 1.04 1.14 1.23 1.32 1.47 1.63 1.73 1.83 1.94
2866.461 2.06 2.04 1.91 1.83 1.7 1.51 1.38 1.31 1.25 1.27
2905.041 1.37 1.48 1.55 1.56 1.53 1.5 1.5 1.54 1.57 1.64
2943.620 1.67 1.61 1.51 1.42 1.29 1.13 1.04 1 0.9407 0.8662
2982.200 0.9146 0.988 1.07 1.15 1.2 1.3 1.49 1.7 1.9 2.1
3020.779 2.48 2.99 3.41 3.66 3.84 4.04 4.35 4.8 5.19 5.44
3059.359 5.4 5.1 4.72 4.36 4.24 4.24 4.06 3.67 3.08 2.32
3097.938 1.57 1.16 0.9822 0.8701 0.8709 0.8693 0.8268 0.7472 0.7057 0.6764
3136.518 0.6533 0.6489 0.6132 0.6022 0.6111 0.6143 0.6046 0.6307 0.6663 0.7158
3175.098 0.7636 0.8373 0.9475 1.03 1.17 1.36 1.57 1.78 2.02 2.2
3213.677 2.22 2.14 2.05 1.8 1.53 1.43 1.27 1.14 1.07 1.01
3252.257 0.9234 0.8547 0.8569 0.8483 0.7954 0.815 0.8041 0.7448 0.7133 0.7286
3290.836 0.7504 0.7565 0.7699 0.7216 0.6738 0.7181 0.7775 0.8329 0.8079 0.7512
3329.416 0.8457 0.9402 0.9523 0.955 0.9969 1.05 1.07 1.14 1.22 1.26
3367.995 1.31 1.4 1.55 1.7 1.94 2.25 2.59 3.11 3.75 4.56
3406.575 5.79 7.6 9.65 11.08 11.95 12.44 11.89 10.84 10.23 9.45
3445.154 8.35 7.33 5.84 4.05 2.92 2.32 2 1.97 2.12 2.3
3483.734 2.44 2.74 3.13 3.58 4.04 4.33 4.49 4.73 4.76 4.55
3522.314 4.36 4.16 3.98 3.79 3.46 3.15 2.91 2.56 2.11 1.68
3560.893 1.32 1.06 0.92 0.7962 0.7144 0.7075 0.6839 0.6808 0.7071 0.5954
3599.473 0.5571 0.5993 0.5379 0.5125 0.5427 0.6139 0.6186 0.5711 0.5703 0.553
3638.052 0.5697 0.5738 0.5771 0.6026 0.5786 0.5811 0.6102 0.617 0.5968 0.6412
3676.632 0.7002 0.698 0.6324 0.5767 0.6376 0.6639 0.6091 0.6 0.5642 0.5402
3715.211 0.5798 0.65 0.7128 0.7227 0.7133 0.6507 0.6687 0.7494 0.7418 0.757
3753.791 0.7637 0.7339 0.7478 0.7677 0.6974 0.6378 0.6818 0.7175 0.7374 0.7204
3792.370 0.7464 0.7711 0.6719 0.6752 0.8043 0.7974 0.7164 0.7729 0.922 1.02
3830.950 1.09 1.17 1.19 1.19 1.24 1.25 1.41 1.59 1.55 1.47
3869.530 1.39 1.24 1.01 0.8483 0.8122 0.8467 0.8857 0.8638 0.799 0.7873
3908.109 0.7527 0.7394 0.8109 0.8906 0.902 0.8823 0.8299 0.8148 0.9178 0.9519
3946.689 0.9346 0.944 0.9083 0.8159 0.7769 0.862 0.9146 0.8547 0.7809 0.7329
3985.268 0.7277 0.7057 0.6511 0.6561 0.7162
##END=
