##TITLE=3-Methylstyrene
##JCAMP-DX=4.24
##DATA TYPE=INFRARED SPECTRUM
##ORIGIN=NIST Mass Spectrometry Data Center
##OWNER=NIST Standard Reference Data Program
Collection (C) 2018 copyright by the U.S. Secretary of Commerce
on behalf of the United States of America. All rights reserved.
##CAS REGISTRY NO=100-80-1
##MOLFORM=C 9 H 10
##$NIST SOURCE=MSDC-IR
##SPECTROMETER/DATA SYSTEM=HP-GC/MS/IRD
##STATE=gas
##XUNITS=1/CM
##YUNITS=ABSORBANCE
##XFACTOR=1.0
##YFACTOR=0.000002700
##DELTAX=4.0
##FIRSTX=550.0
##LASTX=3846.0
##FIRSTY=0.000896
##MAXX=3846
##MINX=550
##MAXY=0.027
##MINY=0
##NPOINTS=825
##XYDATA=(X++(Y..Y))
550.0 332 518 449 516 496 483 447 345 261 195
590.0 87 34 28 31 1 2 29 60 141 214
630.0 336 530 738 961 1259 1570 1666 1578 1482 1358
670.0 1202 1054 990 1075 1322 1763 2356 3008 3726 4879
710.0 5419 4443 3477 2848 2108 1401 905 620 491 464
750.0 516 691 1039 1679 2613 3781 5069 6292 7931 9693
790.0 8911 6636 5317 4164 2892 1835 1145 766 607 536
830.0 546 632 752 871 1013 1158 1283 1399 1540 1659
870.0 1797 2093 2386 2629 3187 4106 5239 6443 7296 8978
910.0 10000 8162 6330 5208 4002 2846 1942 1401 1163 1145
950.0 1280 1529 1855 2265 2692 3130 3595 3997 4335 4757
990.0 4543 3581 2886 2322 1711 1250 1028 1031 1081 1112
1030.0 1165 1169 1128 1081 1023 956 858 739 641 584
1070.0 553 585 673 781 923 1024 1020 972 916 808
1110.0 647 496 375 299 282 275 278 303 360 487
1150.0 592 668 726 690 601 489 404 350 323 313
1190.0 309 320 321 320 317 316 312 326 361 384
1230.0 429 479 516 559 576 581 581 586 646 749
1270.0 856 949 1002 1019 981 877 742 629 558 509
1310.0 477 452 438 422 403 398 396 412 440 481
1350.0 541 611 671 741 839 943 1068 1199 1307 1422
1390.0 1498 1525 1575 1681 1823 1939 1986 1983 1965 1932
1430.0 1865 1781 1706 1659 1610 1552 1512 1522 1610 1828
1470.0 2206 2735 3326 3816 4074 4039 3740 3216 2626 2147
1510.0 1832 1651 1543 1474 1421 1365 1306 1273 1257 1256
1550.0 1317 1447 1670 2000 2430 2947 3471 3951 4457 5088
1590.0 5723 6155 6283 6164 5835 5217 4392 3673 3270 3095
1630.0 2921 2680 2427 2101 1590 1056 724 586 536 532
1670.0 572 644 725 780 780 742 667 549 429 342
1710.0 274 230 214 201 197 218 255 299 349 405
1750.0 466 529 598 661 694 699 685 654 615 555
1790.0 497 466 479 548 708 956 1249 1503 1675 1747
1830.0 1678 1465 1178 918 743 651 622 614 592 559
1870.0 505 437 347 265 225 210 201 200 205 236
1910.0 281 341 419 493 536 547 533 508 438 345
1950.0 272 227 206 188 170 149 132 111 95 75
1990.0 52 48 47 50 47 37 34 35 34 44
2030.0 49 43 45 48 44 34 44 49 42 35
2070.0 30 30 28 22 20 19 22 21 19 20
2110.0 21 18 16 11 6 3 10 17 9 0
2150.0 2 13 19 20 13 7 6 3 6 7
2190.0 10 9 14 21 18 11 13 14 7 2
2230.0 0 5 0 3 8 12 24 27 34 42
2270.0 44 51 53 48 41 39 44 37 32 37
2310.0 43 47 63 83 90 104 108 104 112 112
2350.0 102 92 85 72 57 59 59 56 47 45
2390.0 57 60 56 56 55 50 50 56 58 50
2430.0 51 58 48 40 51 58 59 59 53 53
2470.0 66 67 53 51 54 51 50 42 33 32
2510.0 39 36 23 23 38 47 41 34 34 39
2550.0 35 29 35 45 42 28 37 49 47 46
2590.0 42 41 47 44 39 33 36 40 41 35
2630.0 24 19 13 18 19 21 18 4 5 17
2670.0 32 28 29 26 19 26 27 26 36 47
2710.0 54 57 69 108 144 171 211 261 296 300
2750.0 269 205 155 124 104 100 103 104 104 119
2790.0 134 153 179 210 249 276 297 336 391 459
2830.0 531 593 669 784 933 1120 1358 1671 2055 2438
2870.0 2789 3058 3202 3242 3179 3095 3040 3068 3203 3454
2910.0 3829 4354 5049 5789 6361 6626 6626 6359 5796 5038
2950.0 4270 3660 3213 2945 2814 2787 2920 3174 3481 3765
2990.0 4075 4500 5117 5988 7045 8018 8740 9244 9676 9935
3030.0 9889 9784 9731 9645 9525 9378 9179 8803 8270 7863
3070.0 7428 6777 6174 6061 6465 6706 6485 6072 5542 4471
3110.0 3030 1991 1397 1024 783 625 504 423 399 387
3150.0 349 314 280 255 246 227 198 172 158 127
3190.0 111 131 126 120 118 127 128 111 102 98
3230.0 99 79 75 87 81 79 83 79 67 69
3270.0 95 98 77 67 85 73 40 34 40 27
3310.0 22 28 47 32 5 22 34 35 37 15
3350.0 14 23 29 31 19 20 28 37 29 3
3390.0 8 20 12 34 64 66 65 61 45 28
3430.0 36 45 46 45 33 27 42 47 44 38
3470.0 31 38 53 41 13 7 21 30 33 35
3510.0 30 25 25 35 48 41 27 32 40 61
3550.0 74 53 39 60 68 51 52 55 57 66
3590.0 56 51 74 78 54 51 37 32 35 22
3630.0 9 25 53 65 68 41 45 54 55 48
3670.0 34 31 45 44 29 45 62 50 44 51
3710.0 43 28 48 64 47 23 46 83 93 86
3750.0 79 77 72 63 62 68 65 62 46 55
3790.0 57 47 40 43 57 64 56 44 55 71
3830.0 69 70 59 42 47
##END=
