##TITLE=2-Cyanopyridine
##JCAMP-DX=4.24
##DATA TYPE=INFRARED SPECTRUM
##ORIGIN=EPA-IR VAPOR PHASE LIBRARY
##OWNER=SRD/NIST
Collection (C) 2018 copyright by the U.S. Secretary of Commerce
on behalf of the United States of America. All rights reserved.
##CAS REGISTRY NO=100-70-9
##MOLFORM=C 6 H 4 N 2
##$NIST SOURCE=MSDC-IR
##STATE=gas
##XUNITS=1/CM
##YUNITS=ABSORBANCE
##XFACTOR=1.
##YFACTOR=0.001
##DELTAX=1.92898
##FIRSTX=549.8
##LASTX=4000.7
##FIRSTY=10.697
##MAXX=4000.7
##MINX=549.759
##MAXY=0.048787
##MINY=0
##NPOINTS=1790
##XYDATA=(X++(Y..Y))
549.759 10.697 9.117 8.307 7.567 6.457 5.117 3.837 3.087 2.677 1.937
569.049 1.447 1.143 1.1708 1.238 1.1057 1.0424 1.0884 1.0329 1.028 0.8892
588.339 0.69 0.9909 1.1531 0.9151 0.7392 0.8724 0.9112 0.7998 0.7042 0.8301
607.628 0.9502 0.9196 1.0762 1.337 1.727 1.927 2.047 2.387 2.507 2.297
626.918 2.077 2.067 2.117 2.177 2.397 2.417 2.177 1.937 1.727 1.647
646.208 1.367 1.1376 1.1502 1.0902 0.9044 0.7866 0.547 0.3891 0.6582 0.8077
665.498 0.8657 0.9256 0.9367 0.9893 1.2165 1.357 1.307 1.2948 1.437 1.697
684.787 1.897 2.037 2.197 2.407 2.587 2.867 2.997 2.807 2.797 2.967
704.077 3.287 3.507 3.557 3.837 3.977 4.057 4.367 4.677 4.917 5.087
723.367 5.477 5.967 6.157 6.457 7.167 8.697 11.747 12.937 10.977 9.807
742.657 9.517 9.817 10.667 11.377 12.237 13.067 14.257 15.727 17.077 18.447
761.947 19.777 21.067 22.457 23.837 25.897 29.667 36.687 45.317 48.787 39.697
781.236 28.087 24.907 24.277 23.167 21.647 19.697 17.407 15.137 13.207 11.257
800.526 9.347 7.657 6.037 4.597 3.757 3.017 2.357 1.867 1.547 1.397
819.816 1.327 1.347 1.1931 1.0836 1.0988 1.1766 1.1279 0.9797 0.9582 1.0028
839.106 0.9916 1.016 1.0389 0.9508 0.8692 0.8067 0.836 0.938 0.9019 0.7872
858.395 0.7405 0.9156 0.9101 0.7065 0.8157 0.9787 1.0479 0.9699 0.9999 1.2067
877.685 1.317 1.447 1.477 1.427 1.507 1.707 2.067 2.267 2.367 2.387
896.975 2.447 2.757 2.877 2.847 2.757 2.667 2.507 2.407 2.287 2.087
916.265 1.937 1.837 1.757 1.417 1.1925 1.1819 1.0306 0.9749 0.8881 0.7607
935.555 0.7088 0.7014 0.8708 0.8906 0.6759 0.7032 0.948 0.7689 0.6553 0.9029
954.844 0.8814 0.8665 1.1034 1.407 1.737 1.997 1.857 1.877 2.207 2.387
974.134 2.987 3.637 4.477 5.237 5.617 5.967 5.867 5.277 4.887 4.767
993.424 4.757 5.287 5.787 5.657 5.017 3.977 3.107 2.567 2.067 1.787
1012.714 1.777 1.597 1.477 1.797 2.047 2.137 2.387 3.027 3.507 3.767
1032.003 4.227 4.537 4.647 4.727 4.377 3.877 3.797 3.907 4.247 4.907
1051.293 5.027 4.487 3.757 3.257 2.937 2.367 2.377 2.517 1.937 1.397
1070.583 1.377 1.787 1.997 2.007 2.047 2.497 2.347 2.197 2.657 2.527
1089.873 2.817 3.147 2.837 2.517 2.507 2.477 1.977 1.807 1.417 1.0149
1109.163 1.1126 1.1125 1.287 1.357 1.2744 1.1444 1.1601 1.252 1.2906 1.407
1128.452 1.2625 1.2587 1.687 2.037 2.437 2.897 3.327 3.457 3.317 2.957
1147.742 3.417 3.907 3.117 3.027 3.467 3.327 2.977 2.577 2.057 1.587
1167.032 1.2574 1.427 1.627 1.487 1.457 1.2529 1.0677 1.0882 0.8827 0.7507
1186.322 1.0322 1.577 1.917 2.037 2.197 2.467 2.687 2.717 2.677 2.637
1205.611 2.597 2.887 2.877 2.737 3.127 3.347 2.897 2.657 2.877 2.517
1224.901 2.547 3.197 3.767 3.757 3.927 4.007 4.037 4.297 4.077 4.017
1244.191 4.127 4.017 3.737 3.347 2.897 2.667 2.387 2.147 2.097 2.057
1263.481 1.917 1.727 1.477 1.477 1.777 1.987 2.237 2.307 2.377 2.527
1282.771 2.697 2.877 2.837 2.777 2.617 2.447 2.527 2.647 2.577 2.437
1302.060 2.157 1.897 1.747 1.537 1.357 1.2763 1.197 1.1163 1.1126 1.0872
1321.350 1.0725 1.0148 1.057 1.1217 1.0508 1.0477 1.0692 0.9928 0.906 0.8914
1340.640 0.9005 0.9037 0.8951 0.8774 0.8681 0.843 0.7876 0.8281 0.8794 0.7954
1359.930 0.7548 0.7244 0.6865 0.7019 0.7057 0.7288 0.7682 0.8319 0.8967 0.9437
1379.219 0.9902 0.9826 0.969 0.9709 0.9354 0.9571 1.0109 1.1239 1.2642 1.347
1398.509 1.497 1.687 1.877 2.137 2.517 3.047 3.797 4.797 6.147 7.987
1417.799 10.187 12.727 15.147 16.967 17.747 17.477 16.717 17.287 18.307 17.377
1437.089 17.907 19.577 19.277 17.567 15.407 13.907 13.617 14.447 15.897 17.507
1456.378 18.937 19.757 19.957 19.717 19.457 19.367 18.657 17.667 17.327 16.647
1475.668 14.557 11.567 8.607 6.107 4.257 3.067 2.407 2.037 1.807 1.677
1494.958 1.617 1.597 1.517 1.527 1.587 1.547 1.477 1.467 1.497 1.437
1514.248 1.457 1.497 1.547 1.567 1.537 1.677 1.747 1.767 1.827 1.937
1533.538 2.137 2.327 2.587 2.997 3.497 3.997 4.607 5.317 6.127 7.127
1552.827 8.317 9.677 11.197 12.897 14.817 16.857 18.997 21.307 23.917 26.997
1572.117 30.157 32.667 33.947 33.587 31.887 29.687 27.587 25.647 23.477 20.857
1591.407 18.317 15.987 13.587 11.197 9.147 7.627 6.387 5.297 4.477 3.697
1610.697 3.097 2.677 2.457 2.287 1.997 1.817 1.727 1.697 1.697 1.647
1629.986 1.507 1.367 1.3068 1.25 1.2192 1.1944 1.1907 1.1729 1.107 1.0893
1649.276 1.1398 1.1659 1.1589 1.307 1.347 1.407 1.527 1.517 1.537 1.517
1668.566 1.467 1.417 1.437 1.477 1.437 1.387 1.337 1.2649 1.1144 1.0331
1687.856 1.07 1.0476 1.0207 0.9756 0.8689 0.7888 0.7689 0.8631 0.8639 0.7546
1707.146 0.8133 0.8673 0.8379 0.7655 0.7031 0.7144 0.748 0.8234 0.9163 0.956
1726.435 0.9713 1.0526 1.0654 1.0109 1.0232 1.0628 1.0698 1.0948 1.1732 1.2216
1745.725 1.2085 1.1571 1.1114 1.0901 1.0755 1.0403 1.0205 1.0725 1.1178 1.0638
1765.015 1.0581 1.1163 1.1169 1.1284 1.1352 1.1802 1.2165 1.1794 1.1441 1.106
1784.305 1.1014 1.1189 1.0716 1.0239 0.9981 0.9493 0.9204 0.8366 0.7572 0.7648
1803.594 0.7577 0.7041 0.6695 0.6895 0.6539 0.6365 0.6517 0.6307 0.6697 0.6913
1822.884 0.6792 0.7157 0.7 0.6778 0.7865 0.9051 0.9374 0.9944 1.0629 1.1501
1842.174 1.2106 1.2215 1.267 1.2805 1.2881 1.317 1.337 1.327 1.357 1.427
1861.464 1.457 1.467 1.527 1.567 1.517 1.557 1.577 1.497 1.417 1.397
1880.754 1.367 1.2642 1.2388 1.2567 1.2411 1.1522 1.0168 0.9306 0.9049 0.8739
1900.043 0.8184 0.8083 0.8125 0.8606 0.8846 0.9632 1.1167 1.2562 1.347 1.397
1919.333 1.417 1.427 1.527 1.527 1.517 1.577 1.647 1.707 1.737 1.737
1938.623 1.717 1.717 1.767 1.787 1.747 1.687 1.677 1.707 1.727 1.767
1957.913 1.837 1.877 1.897 1.897 1.857 1.837 1.827 1.797 1.747 1.657
1977.202 1.597 1.567 1.517 1.487 1.467 1.377 1.2627 1.216 1.1564 1.0341
1996.492 0.8946 0.8115 0.7615 0.6809 0.6292 0.6733 0.6896 0.6133 0.5521 0.5826
2015.782 0.64 0.6166 0.5762 0.5491 0.5222 0.5645 0.6085 0.5814 0.5084 0.5376
2035.072 0.6004 0.5787 0.5792 0.5679 0.561 0.4942 0.4692 0.5365 0.5999 0.6426
2054.362 0.6045 0.588 0.566 0.5378 0.557 0.5879 0.6385 0.6466 0.637 0.6338
2073.651 0.5966 0.6226 0.6855 0.6869 0.6511 0.6211 0.6612 0.6538 0.6117 0.6273
2092.941 0.6399 0.6533 0.6162 0.5442 0.536 0.5506 0.547 0.533 0.5247 0.5283
2112.231 0.5997 0.6241 0.6094 0.6673 0.5996 0.4753 0.4437 0.5115 0.5595 0.5469
2131.521 0.564 0.5428 0.5431 0.5874 0.5819 0.6125 0.6064 0.5025 0.5154 0.5556
2150.810 0.5079 0.4773 0.5152 0.5374 0.4693 0.4836 0.5633 0.5666 0.5597 0.5868
2170.100 0.5805 0.6149 0.6556 0.623 0.6057 0.591 0.5979 0.6558 0.6699 0.6723
2189.390 0.6546 0.633 0.6496 0.706 0.7397 0.773 0.7619 0.6838 0.6896 0.6434
2208.680 0.6404 0.6818 0.6084 0.5479 0.6292 0.7113 0.7025 0.697 0.6654 0.6437
2227.970 0.6954 0.7117 0.7359 0.8169 0.7995 0.8067 0.8257 0.7877 0.7434 0.7046
2247.259 0.749 0.7771 0.7392 0.6973 0.7023 0.7426 0.7011 0.6431 0.6652 0.6645
2266.549 0.668 0.7017 0.6604 0.653 0.673 0.7191 0.7435 0.7398 0.8271 0.8332
2285.839 0.8466 0.8925 0.9328 0.991 1.0035 0.9784 0.9662 0.9588 0.9447 0.9357
2305.129 0.9315 0.8806 0.8172 0.8152 0.7982 0.7402 0.6898 0.6761 0.6631 0.6467
2324.418 0.6034 0.6648 0.7512 0.674 0.582 0.5765 0.6054 0.5507 0.4999 0.5374
2343.708 0.5296 0.6042 0.5822 0.5721 0.6421 0.627 0.6247 0.6541 0.6463 0.5317
2362.998 0.5006 0.5404 0.4938 0.4483 0.5629 0.6023 0.6018 0.6392 0.6114 0.5889
2382.288 0.6499 0.741 0.7703 0.8532 0.8715 0.8055 0.7943 0.7881 0.8129 0.801
2401.578 0.7239 0.6639 0.7059 0.7756 0.7226 0.6764 0.63 0.6612 0.7292 0.6473
2420.867 0.6273 0.6645 0.6549 0.6595 0.6174 0.5912 0.6717 0.7386 0.7161 0.6547
2440.157 0.5826 0.5574 0.5997 0.6361 0.6429 0.6324 0.6444 0.628 0.6233 0.6117
2459.447 0.585 0.6591 0.704 0.7342 0.6892 0.6615 0.6908 0.7083 0.7324 0.7832
2478.737 0.8808 0.878 0.7544 0.6674 0.7081 0.747 0.6612 0.5759 0.622 0.6174
2498.026 0.5419 0.4921 0.4681 0.5348 0.6122 0.617 0.5941 0.6059 0.711 0.693
2517.316 0.5298 0.527 0.6053 0.5765 0.5513 0.5235 0.5273 0.5102 0.4396 0.5546
2536.606 0.6192 0.5852 0.5886 0.5097 0.4645 0.5329 0.5153 0.4685 0.5027 0.4717
2555.896 0.4409 0.54 0.5823 0.5143 0.5341 0.5276 0.4791 0.5314 0.6011 0.6053
2575.186 0.5793 0.5374 0.5268 0.5474 0.4921 0.5097 0.607 0.6676 0.7304 0.7379
2594.475 0.6529 0.6604 0.6981 0.6782 0.6912 0.7008 0.7252 0.6339 0.5676 0.6334
2613.765 0.6441 0.6139 0.617 0.6331 0.5708 0.4929 0.5344 0.5542 0.5597 0.6213
2633.055 0.6354 0.5745 0.5332 0.5063 0.455 0.5368 0.6785 0.7015 0.6131 0.5931
2652.345 0.6993 0.7497 0.7665 0.8128 0.7722 0.7072 0.6828 0.6516 0.6241 0.6484
2671.634 0.6595 0.5989 0.5357 0.5018 0.5238 0.5778 0.5513 0.488 0.4536 0.4321
2690.924 0.4294 0.4134 0.5226 0.4962 0.39112 0.4202 0.40137 0.4327 0.4994 0.5299
2710.214 0.5049 0.5161 0.5266 0.4604 0.4737 0.5918 0.6729 0.6498 0.6366 0.6245
2729.504 0.5621 0.5671 0.5264 0.4676 0.5309 0.5497 0.5816 0.655 0.6211 0.5274
2748.794 0.4521 0.4221 0.4535 0.491 0.5535 0.6482 0.6793 0.723 0.7642 0.7164
2768.083 0.6576 0.6814 0.8067 0.8702 0.8775 0.8636 0.826 0.8902 0.8978 0.8459
2787.373 0.8753 0.8608 0.7904 0.7371 0.6582 0.5964 0.5241 0.4627 0.5248 0.5836
2806.663 0.5395 0.4815 0.4889 0.5606 0.5951 0.5033 0.495 0.5202 0.5036 0.5694
2825.953 0.5276 0.37486 0.37416 0.4846 0.4979 0.459 0.4716 0.4349 0.4357 0.5466
2845.242 0.59 0.538 0.6066 0.6549 0.5019 0.569 0.7111 0.5482 0.4376 0.4385
2864.532 0.5251 0.5342 0.5128 0.6279 0.5893 0.4902 0.5584 0.5233 0.4684 0.5856
2883.822 0.5755 0.6326 0.6571 0.6098 0.7476 0.7717 0.6801 0.663 0.6949 0.6574
2903.112 0.7 0.8132 0.7404 0.8125 0.8195 0.7722 0.8013 0.7958 0.836 0.7208
2922.401 0.813 0.8223 0.6581 0.6446 0.6514 0.6996 0.7455 0.6959 0.5435 0.5954
2941.691 0.5982 0.4606 0.4165 0.4503 0.5045 0.4617 0.5718 0.6077 0.4735 0.5072
2960.981 0.5163 0.5519 0.5704 0.6039 0.703 0.6962 0.7451 0.8407 0.8536 0.8759
2980.271 0.8219 0.8295 0.9907 1.1427 1.21 1.2702 1.327 1.357 1.517 1.777
2999.561 2.117 2.387 2.647 2.727 2.747 2.767 2.847 2.967 2.897 2.957
3018.850 2.917 2.867 2.947 2.827 2.647 2.467 2.347 2.307 2.257 2.357
3038.140 2.417 2.567 2.817 3.197 3.797 4.427 5.117 5.857 6.637 7.397
3057.430 8.107 8.707 9.277 9.847 10.577 11.577 12.507 13.127 13.367 13.407
3076.720 13.197 12.917 12.727 12.127 11.447 10.957 10.137 8.967 7.917 7.187
3096.009 6.517 6.037 5.497 4.747 4.037 3.357 2.727 2.317 1.987 1.727
3115.299 1.487 1.397 1.397 1.2951 1.2565 1.2156 1.2061 1.288 1.337 1.357
3134.589 1.327 1.327 1.317 1.2877 1.2844 1.2101 1.1672 1.1172 1.0264 0.9186
3153.879 0.8745 0.8962 0.8318 0.7205 0.7089 0.6365 0.456 0.4297 0.4974 0.5576
3173.169 0.5419 0.4995 0.5185 0.5613 0.5509 0.5426 0.5624 0.564 0.4949 0.33508
3192.458 0.32605 0.2542 0.31424 0.4614 0.5053 0.502 0.4716 0.4295 0.4652 0.6015
3211.748 0.5064 0.35136 0.38366 0.4752 0.4809 0.4391 0.4464 0.5181 0.6007 0.4463
3231.038 0.2797 0.312826 0.33915 0.4394 0.5664 0.6179 0.4901 0.4152 0.452 0.4714
3250.328 0.4497 0.4183 0.5371 0.4496 0.2705 0.2578 0.2712 0.34391 0.37733 0.39761
3269.617 0.38505 0.39095 0.4969 0.5629 0.5175 0.4499 0.39096 0.33281 0.33981 0.38902
3288.907 0.3913 0.2741 0.2343 0.33349 0.2937 0.215 0.199 0.2481 0.32547 0.2636
3308.197 0.214 0.33056 0.37127 0.36939 0.38111 0.2632 0.2196 0.313967 0.4165 0.4785
3327.487 0.4389 0.307988 0.4116 0.4773 0.4281 0.5091 0.4712 0.33731 0.29874 0.30197
3346.777 0.34412 0.39403 0.30185 0.27 0.2952 0.4166 0.4945 0.4846 0.4753 0.37861
3366.066 0.4177 0.4717 0.4846 0.6206 0.6477 0.37965 0.29997 0.39757 0.37861 0.3813
3385.356 0.35402 0.37318 0.4532 0.37353 0.4553 0.4761 0.2583 0.2825 0.39263 0.5137
3404.646 0.6001 0.633 0.5056 0.30784 0.33238 0.5159 0.5373 0.511 0.4542 0.4622
3423.936 0.5039 0.4596 0.4548 0.4173 0.5662 0.635 0.6944 0.8304 0.7337 0.5636
3443.225 0.5631 0.6082 0.6332 0.7003 0.6932 0.647 0.6488 0.6721 0.5145 0.4438
3462.515 0.40676 0.25 0.4566 0.4986 0.38071 0.5774 0.4411 0.112 0.061 0.179
3481.805 0.2601 0.40172 0.4822 0.38102 0.4466 0.4376 0.39281 0.4847 0.35438 0.2848
3501.095 0.4256 0.4585 0.39552 0.38288 0.4179 0.4302 0.4435 0.4324 0.33838 0.2893
3520.385 0.458 0.446 0.32774 0.36169 0.37694 0.310729 0.2122 0.37482 0.5545 0.5344
3539.674 0.4408 0.2832 0.2378 0.2309 0.36301 0.472 0.4201 0.443 0.4544 0.4185
3558.964 0.39392 0.4505 0.40375 0.30422 0.2416 0.2835 0.33974 0.3306 0.37054 0.37016
3578.254 0.32783 0.39448 0.489 0.528 0.5209 0.312621 0.2292 0.33971 0.289 0.2913
3597.544 0.4363 0.38209 0.32886 0.38469 0.4541 0.492 0.5442 0.5211 0.4568 0.4595
3616.833 0.4804 0.5981 0.5086 0.40434 0.39996 0.2929 0.34572 0.4143 0.40151 0.39681
3636.123 0.34257 0.34253 0.4918 0.5906 0.4311 0.32104 0.315942 0.2928 0.4086 0.546
3655.413 0.4814 0.36395 0.34544 0.2509 0.12 0.147 0.34419 0.38212 0.2857 0.32486
3674.703 0.4324 0.451 0.32877 0.314215 0.46 0.5859 0.4611 0.40598 0.6113 0.6894
3693.993 0.5812 0.5857 0.609 0.4868 0.4049 0.5661 0.7919 0.6831 0.5309 0.5234
3713.282 0.5513 0.4161 0.309084 0.4905 0.6349 0.6933 0.5939 0.4164 0.36085 0.2286
3732.572 0.135 0.2678 0.33571 0.32986 0.4712 0.5341 0.4815 0.36258 0.2444 0.2769
3751.862 0.39651 0.40361 0.36855 0.4901 0.4658 0.39379 0.40298 0.36068 0.3973 0.4176
3771.152 0.4772 0.6604 0.5273 0.39976 0.4247 0.4922 0.4439 0.4226 0.4003 0.2121
3790.441 0.2963 0.38764 0.36772 0.4651 0.5799 0.4217 0.2809 0.34315 0.2496 0.151
3809.731 0.4232 0.5311 0.37827 0.36751 0.4121 0.5048 0.4737 0.39925 0.33816 0.2968
3829.021 0.35687 0.4523 0.5066 0.39146 0.3874 0.4322 0.5092 0.5871 0.5537 0.5739
3848.311 0.7032 0.658 0.5213 0.5538 0.5122 0.481 0.5082 0.467 0.4361 0.32883
3867.601 0.2612 0.2386 0.201 0.35885 0.4765 0.36299 0.4369 0.534 0.2976 0.2503
3886.890 0.2359 0.201 0.2328 0.2552 0.36208 0.4124 0.36274 0.2859 0.205 0.2249
3906.180 0.36576 0.4108 0.4999 0.4914 0.2625 0.022 0 0.2389 0.2913 0.262
3925.470 0.4833 0.38935 0.2261 0.30263 0.2593 0.2886 0.32816 0.2733 0.35513 0.5371
3944.760 0.5013 0.38961 0.364 0.4997 0.621 0.4653 0.40316 0.4515 0.5358 0.37829
3964.049 0.2274 0.3764 0.446 0.37725 0.34599 0.5112 0.5583 0.4294 0.37733 0.38455
3983.339 0.4301 0.36239 0.2849 0.32932 0.37989 0.39075 0.4823 0.5631 0.5045 0.5831
##END=
