##TITLE=Benzylamine
##JCAMP-DX=4.24
##DATA TYPE=INFRARED SPECTRUM
##ORIGIN=NIST Mass Spectrometry Data Center
##OWNER=NIST Standard Reference Data Program
Collection (C) 2018 copyright by the U.S. Secretary of Commerce
on behalf of the United States of America. All rights reserved.
##CAS REGISTRY NO=100-46-9
##MOLFORM=C 7 H 9 N
##$NIST SOURCE=MSDC-IR
##SPECTROMETER/DATA SYSTEM=HP-GC/MS/IRD
##STATE=gas
##XUNITS=1/CM
##YUNITS=ABSORBANCE
##XFACTOR=1.0
##YFACTOR=0.000002400
##DELTAX=4.0
##FIRSTX=550.0
##LASTX=3846.0
##FIRSTY=0.001843
##MAXX=3846
##MINX=550
##MAXY=0.024
##MINY=0
##NPOINTS=825
##XYDATA=(X++(Y..Y))
550.0 768 723 800 1066 1182 1276 1396 1420 1315 1153
590.0 1005 842 682 593 523 461 486 518 539 574
630.0 588 602 651 684 750 856 963 1159 1413 1766
670.0 2263 2890 3554 4205 4942 6026 7220 7419 7108 7077
710.0 7142 7324 7599 8018 8620 9369 9963 10000 9529 8943
750.0 8313 7603 6798 5929 5182 4571 4006 3540 3194 2910
790.0 2737 2668 2652 2675 2718 2747 2787 2870 2948 2958
830.0 2944 2916 2833 2703 2549 2339 2110 1883 1635 1420
870.0 1215 1058 976 923 911 908 873 867 868 811
910.0 729 665 628 584 536 496 461 441 425 447
950.0 457 461 464 463 445 414 398 393 385 389
990.0 414 446 512 619 806 1048 1269 1390 1409 1425
1030.0 1456 1403 1225 1071 1027 1013 964 881 802 737
1070.0 652 555 451 356 275 186 100 52 31 13
1110.0 21 41 49 53 46 35 30 32 14 8
1150.0 10 0 3 9 9 33 68 114 176 236
1190.0 288 324 330 312 296 251 174 118 99 74
1230.0 70 82 93 103 110 108 112 123 124 114
1270.0 105 114 129 142 159 179 191 216 257 303
1310.0 342 389 452 510 566 629 693 777 844 877
1350.0 925 988 1060 1154 1248 1362 1466 1516 1496 1422
1390.0 1287 1105 898 684 533 440 395 405 430 482
1430.0 584 762 986 1167 1309 1320 1340 1426 1399 1234
1470.0 1067 975 947 1058 1259 1371 1397 1376 1300 1146
1510.0 782 470 358 316 272 257 272 322 333 296
1550.0 297 352 446 478 510 579 674 781 859 973
1590.0 1128 1293 1439 1588 1742 1861 1946 1971 1918 1816
1630.0 1676 1520 1315 1131 997 888 765 601 490 408
1670.0 353 312 244 229 215 162 170 189 166 119
1710.0 113 145 158 137 144 186 220 199 178 193
1750.0 209 184 174 178 190 227 233 247 308 357
1790.0 398 431 426 410 367 302 240 198 174 166
1830.0 159 154 157 175 189 198 219 252 278 291
1870.0 307 307 292 278 258 225 186 152 140 138
1910.0 154 178 202 242 294 327 353 384 423 436
1950.0 416 370 303 234 178 121 94 80 68 61
1990.0 61 64 57 62 61 52 59 63 54 56
2030.0 58 53 49 42 47 55 53 53 51 54
2070.0 58 52 52 48 41 58 57 43 35 34
2110.0 41 36 34 44 51 50 49 47 51 52
2150.0 48 48 36 30 40 41 35 39 51 52
2190.0 53 52 54 59 46 47 58 63 54 52
2230.0 66 70 71 76 75 77 93 105 108 107
2270.0 108 112 108 99 89 93 104 96 94 97
2310.0 106 114 117 131 138 144 155 148 124 104
2350.0 95 111 146 159 142 108 81 70 67 63
2390.0 60 65 57 53 65 69 62 55 60 64
2430.0 67 73 70 68 70 72 76 77 76 67
2470.0 62 69 79 74 70 70 73 85 82 85
2510.0 96 86 78 79 82 86 89 99 98 95
2550.0 94 89 97 100 106 108 112 128 139 137
2590.0 136 147 155 161 172 178 185 192 189 184
2630.0 183 188 190 183 181 183 185 184 196 203
2670.0 198 193 195 199 206 202 214 236 235 239
2710.0 259 274 284 293 305 315 331 351 357 373
2750.0 382 385 394 406 413 416 426 440 470 498
2790.0 526 573 623 680 755 843 938 1044 1161 1293
2830.0 1441 1596 1763 1950 2159 2371 2566 2737 2865 2951
2870.0 3015 3052 3045 2992 2931 2907 2900 2906 2901 2864
2910.0 2821 2785 2745 2706 2674 2649 2623 2587 2507 2372
2950.0 2209 2025 1804 1583 1378 1199 1058 966 902 869
2990.0 881 944 1065 1258 1530 1899 2415 3021 3617 4089
3030.0 4374 4537 4564 4391 4038 3699 3638 3886 4251 4553
3070.0 4755 4791 4628 4191 3541 2980 2582 2263 1911 1559
3110.0 1263 1017 823 639 464 350 282 240 233 220
3150.0 214 221 217 215 218 203 181 176 172 162
3190.0 175 165 137 150 158 161 170 160 152 139
3230.0 140 147 157 159 137 131 145 150 138 136
3270.0 140 134 120 98 102 115 108 120 131 136
3310.0 131 113 143 167 159 184 212 233 241 271
3350.0 291 248 202 178 178 176 155 147 143 156
3390.0 145 136 139 155 167 149 137 141 152 168
3430.0 169 164 144 155 177 134 105 105 100 113
3470.0 107 101 103 97 86 81 95 111 116 114
3510.0 106 97 86 91 91 75 65 75 110 102
3550.0 76 75 64 66 84 73 55 67 64 68
3590.0 65 57 65 54 59 69 70 83 60 74
3630.0 106 86 75 72 105 138 96 61 41 51
3670.0 87 85 69 46 63 89 66 51 58 64
3710.0 84 83 52 32 36 55 61 47 60 83
3750.0 91 69 52 55 60 55 50 63 58 56
3790.0 66 73 79 84 73 72 90 102 97 79
3830.0 78 91 85 80 74
##END=
