##TITLE=4'-Methoxyacetophenone
##JCAMP-DX=4.24
##DATA TYPE=INFRARED SPECTRUM
##ORIGIN=NIST Mass Spectrometry Data Center
##OWNER=NIST Standard Reference Data Program
Collection (C) 2018 copyright by the U.S. Secretary of Commerce
on behalf of the United States of America. All rights reserved.
##CAS REGISTRY NO=100-06-1
##MOLFORM=C 9 H 10 O 2
##$NIST SOURCE=MSDC-IR
##SPECTROMETER/DATA SYSTEM=HP-GC/MS/IRD
##STATE=gas
##XUNITS=1/CM
##YUNITS=ABSORBANCE
##XFACTOR=1.0
##YFACTOR=0.000004900
##DELTAX=4.0
##FIRSTX=550.0
##LASTX=3846.0
##FIRSTY=0.001240
##MAXX=3846
##MINX=550
##MAXY=0.049
##MINY=0
##NPOINTS=825
##XYDATA=(X++(Y..Y))
550.0 253 565 655 801 940 1050 1093 1095 1042 882
590.0 742 618 490 388 307 238 187 147 117 120
630.0 114 99 87 63 46 36 37 32 17 18
670.0 27 38 44 31 22 18 5 8 13 12
710.0 4 0 14 27 30 28 22 20 21 23
750.0 20 26 38 35 39 46 53 76 105 155
790.0 242 350 454 512 523 538 593 723 902 1108
830.0 1296 1349 1306 1128 881 669 472 315 212 155
870.0 123 116 109 94 85 73 75 75 68 75
910.0 79 78 90 113 137 183 251 372 559 752
950.0 877 900 806 628 458 356 302 267 261 262
990.0 268 302 345 385 429 496 607 769 980 1234
1030.0 1473 1621 1612 1421 1129 817 573 431 362 333
1070.0 308 280 270 262 246 237 239 259 296 335
1110.0 361 372 365 351 340 331 334 342 372 420
1150.0 513 701 1152 2123 3355 4077 4161 3560 2356 1382
1190.0 920 704 630 651 724 847 1031 1293 1669 2205
1230.0 2935 3886 5080 6505 8082 9425 10000 9634 8285 6238
1270.0 4427 3168 2311 1908 1825 1873 1951 1985 1921 1764
1310.0 1549 1299 1054 844 698 637 648 703 798 970
1350.0 1250 1593 1831 1878 1697 1298 890 627 485 422
1390.0 415 455 538 653 777 862 878 826 728 644
1430.0 608 611 639 663 660 656 659 684 757 824
1470.0 816 762 675 579 551 640 893 1351 1874 2164
1510.0 2112 1745 1161 682 464 385 349 332 333 340
1550.0 368 432 536 704 943 1265 1607 1941 2250 2575
1590.0 3027 3635 4258 4631 4540 3969 3080 2132 1399 945
1630.0 683 535 450 404 388 395 403 410 440 496
1670.0 591 762 1045 1492 2235 3274 4304 4812 4799 4225
1710.0 3034 1921 1208 779 534 398 326 285 265 253
1750.0 242 229 211 190 166 144 120 102 83 70
1790.0 67 67 65 67 71 66 57 52 47 44
1830.0 44 46 46 50 54 56 57 60 64 64
1870.0 67 68 70 73 79 85 88 88 88 92
1910.0 94 94 96 103 110 110 109 104 91 77
1950.0 61 50 49 49 56 64 63 61 58 50
1990.0 44 37 32 36 41 45 50 52 55 62
2030.0 68 80 89 102 113 117 123 128 127 120
2070.0 111 99 81 64 56 45 37 31 25 22
2110.0 22 20 14 10 6 7 8 5 4 4
2150.0 1 3 6 11 14 15 18 21 21 11
2190.0 5 7 10 10 12 14 8 6 5 7
2230.0 12 9 3 4 6 8 11 11 12 17
2270.0 22 23 22 23 27 33 33 29 30 29
2310.0 25 22 24 22 19 16 17 16 12 12
2350.0 12 9 8 8 6 10 17 19 18 20
2390.0 22 23 27 31 34 34 36 32 28 28
2430.0 22 20 19 16 8 11 13 9 11 13
2470.0 15 16 17 23 26 27 31 29 29 35
2510.0 39 43 49 56 56 54 59 68 73 76
2550.0 81 85 85 86 84 76 62 54 52 48
2590.0 46 44 42 38 35 32 35 32 28 27
2630.0 22 20 20 22 20 15 14 13 10 5
2670.0 4 5 9 11 9 8 2 0 6 9
2710.0 8 9 8 3 3 3 6 11 9 8
2750.0 14 25 27 31 39 44 44 44 47 47
2790.0 46 51 63 67 69 78 88 103 132 166
2830.0 207 272 380 506 588 605 559 450 341 268
2870.0 227 208 205 205 210 228 250 277 319 367
2910.0 428 484 527 558 577 604 646 719 819 883
2950.0 910 917 894 856 798 707 626 557 486 444
2990.0 425 446 514 624 791 912 913 821 635 459
3030.0 364 321 316 328 336 339 331 322 320 324
3070.0 336 353 362 363 355 331 301 274 258 233
3110.0 204 180 156 130 113 102 88 74 69 68
3150.0 65 54 52 50 48 48 44 43 34 21
3190.0 22 24 26 31 36 26 29 32 23 22
3230.0 22 21 13 5 4 10 13 8 15 21
3270.0 9 12 14 6 17 20 10 21 20 15
3310.0 17 18 22 21 11 4 8 13 24 33
3350.0 34 32 36 51 67 76 85 96 103 101
3390.0 87 73 67 55 44 36 28 32 26 13
3430.0 17 15 17 22 19 26 30 21 17 26
3470.0 27 21 24 18 15 13 15 13 8 18
3510.0 19 17 5 0 16 21 16 19 22 22
3550.0 10 4 10 13 8 10 18 13 2 2
3590.0 7 10 12 17 24 23 19 21 21 14
3630.0 13 11 14 29 19 22 27 15 16 26
3670.0 27 26 25 23 23 20 22 28 26 21
3710.0 18 14 14 19 34 32 22 23 23 29
3750.0 32 29 22 19 21 21 18 15 16 17
3790.0 17 14 25 24 23 27 19 14 11 11
3830.0 16 27 36 31 30
##END=
