##TITLE=p-N,N-Dimethylaminobenzaldehyde
##JCAMP-DX=4.24
##DATA TYPE=INFRARED SPECTRUM
##ORIGIN=NIST Mass Spectrometry Data Center
##OWNER=NIST Standard Reference Data Program
Collection (C) 2018 copyright by the U.S. Secretary of Commerce
on behalf of the United States of America. All rights reserved.
##CAS REGISTRY NO=100-10-7
##MOLFORM=C 9 H 11 N O
##$NIST SOURCE=MSDC-IR
##SPECTROMETER/DATA SYSTEM=HP-GC/MS/IRD
##STATE=gas
##XUNITS=1/CM
##YUNITS=ABSORBANCE
##XFACTOR=1.0
##YFACTOR=0.000000900
##DELTAX=4.0
##FIRSTX=550.0
##LASTX=3846.0
##FIRSTY=0.000336
##MAXX=3846
##MINX=550
##MAXY=0.009
##MINY=0
##NPOINTS=825
##XYDATA=(X++(Y..Y))
550.0 373 178 95 220 202 140 89 81 283 545
590.0 657 682 632 488 286 138 121 144 104 98
630.0 134 120 91 76 115 119 132 90 66 39
670.0 16 51 4 44 103 116 133 116 79 125
710.0 280 364 528 644 634 668 530 314 255 234
750.0 147 75 114 154 148 126 169 256 303 332
790.0 443 519 653 967 1211 1387 1679 1856 1693 1593
830.0 1531 1282 1109 1036 900 671 519 393 271 181
870.0 145 193 209 206 164 175 211 187 186 193
910.0 161 186 227 249 299 420 635 861 1025 1045
950.0 921 660 436 309 245 220 201 198 206 171
990.0 188 355 444 437 392 314 310 339 292 233
1030.0 309 388 409 413 394 475 575 626 593 581
1070.0 624 590 627 634 546 506 515 557 605 645
1110.0 660 693 802 945 1060 1221 1381 1646 2073 2724
1150.0 3739 5051 6429 7332 7475 6649 5050 3374 2105 1422
1190.0 1127 974 975 1048 1126 1213 1354 1618 1863 1980
1230.0 1914 1683 1382 1071 799 638 585 520 450 461
1270.0 504 510 521 543 615 748 907 1109 1312 1518
1310.0 1687 1711 1636 1526 1434 1452 1617 1953 2474 3172
1350.0 3890 4460 4641 4321 3640 2790 2045 1558 1318 1162
1390.0 1050 916 808 752 717 731 741 771 858 928
1430.0 983 1008 1026 1025 953 890 789 709 711 714
1470.0 721 741 811 870 853 827 901 999 1159 1473
1510.0 1988 2617 3124 3368 3282 2876 2311 1770 1390 1263
1550.0 1346 1571 1887 2242 2496 2617 2682 2954 3647 4757
1590.0 6119 7542 8879 9839 10000 9187 7612 5560 3640 2379
1630.0 1716 1343 1108 961 853 832 842 871 915 992
1670.0 1090 1146 1216 1318 1519 1864 2464 3628 5652 7806
1710.0 8814 8611 7110 4562 2523 1440 900 627 455 329
1750.0 240 221 219 203 181 159 155 171 165 160
1790.0 175 155 121 103 106 99 102 109 99 80
1830.0 74 102 128 107 74 91 130 124 109 129
1870.0 144 149 155 165 159 158 151 146 138 142
1910.0 141 112 99 126 131 109 105 103 101 101
1950.0 99 111 113 103 97 100 115 106 101 107
1990.0 81 73 102 116 95 92 95 69 57 41
2030.0 44 51 41 59 85 65 45 54 65 66
2070.0 67 69 77 90 84 69 62 70 73 68
2110.0 56 58 80 55 45 24 17 33 30 20
2150.0 26 26 46 58 37 53 72 66 50 26
2190.0 16 22 29 33 42 29 20 31 33 39
2230.0 36 30 25 21 20 35 16 0 32 23
2270.0 5 22 33 34 20 32 37 13 26 28
2310.0 17 36 32 28 38 38 57 37 36 54
2350.0 39 31 48 63 59 57 56 46 38 42
2390.0 40 29 36 55 63 41 21 44 74 80
2430.0 102 97 52 38 49 52 77 96 57 45
2470.0 43 36 53 41 47 71 69 78 110 103
2510.0 80 134 154 129 116 125 145 136 130 114
2550.0 120 101 87 129 135 135 132 130 116 103
2590.0 118 139 129 149 164 177 210 191 148 159
2630.0 184 184 171 134 157 223 222 178 190 205
2670.0 205 247 314 409 529 664 761 852 949 1047
2710.0 1195 1395 1629 1755 1734 1630 1401 1076 837 731
2750.0 643 545 470 432 500 635 704 798 957 1148
2790.0 1350 1533 1735 1890 1993 2077 2078 1972 1805 1594
2830.0 1402 1241 1122 1037 999 1021 1116 1121 1155 1247
2870.0 1279 1284 1264 1226 1219 1235 1232 1244 1294 1336
2910.0 1278 1220 1242 1256 1289 1280 1319 1375 1372 1373
2950.0 1316 1198 1132 1115 1027 946 946 927 874 846
2990.0 858 898 871 811 737 697 731 695 649 654
3030.0 631 582 605 609 501 427 385 350 322 256
3070.0 316 399 415 457 530 540 479 452 450 414
3110.0 394 382 347 310 214 147 180 166 133 143
3150.0 149 150 126 86 71 42 44 40 26 117
3190.0 136 99 116 142 97 88 110 127 127 55
3230.0 61 110 107 79 42 85 181 153 92 115
3270.0 61 60 121 121 117 111 96 120 144 126
3310.0 79 73 124 118 100 139 173 102 51 61
3350.0 103 114 112 174 200 175 159 114 117 149
3390.0 184 209 192 188 248 218 179 247 198 118
3430.0 94 96 94 94 135 189 95 24 93 122
3470.0 151 127 92 74 86 113 129 176 136 99
3510.0 131 84 59 41 68 169 187 119 99 117
3550.0 117 138 132 135 38 6 50 87 125 104
3590.0 101 93 154 211 172 141 139 81 88 78
3630.0 38 146 197 99 112 182 140 144 171 132
3670.0 112 98 82 100 97 89 90 152 163 82
3710.0 75 157 190 125 108 43 4 119 132 158
3750.0 109 96 159 178 205 195 197 193 176 134
3790.0 129 110 94 51 46 98 95 117 98 53
3830.0 71 81 155 184 202
##END=
