##TITLE=3-Cyclohexenecarbonitrile
##JCAMP-DX=4.24
##DATA TYPE=INFRARED SPECTRUM
##ORIGIN=EPA-IR VAPOR PHASE LIBRARY
##OWNER=SRD/NIST
Collection (C) 2018 copyright by the U.S. Secretary of Commerce
on behalf of the United States of America. All rights reserved.
##CAS REGISTRY NO=100-45-8
##MOLFORM=C 7 H 9 N
##$NIST SOURCE=MSDC-IR
##STATE=gas
##XUNITS=1/CM
##YUNITS=ABSORBANCE
##XFACTOR=1.
##YFACTOR=0.001
##DELTAX=1.92898
##FIRSTX=549.8
##LASTX=4000.7
##FIRSTY=0.7864
##MAXX=4000.7
##MINX=549.759
##MAXY=0.024875
##MINY=0
##NPOINTS=1790
##XYDATA=(X++(Y..Y))
549.759 0.7864 0.7695 0.8958 0.7326 0.5478 0.8479 0.71 0.6113 0.9988 0.85
569.049 0.68 0.7348 0.6554 0.6934 0.7848 0.9565 0.8986 0.6129 0.7604 0.9291
588.339 0.8224 0.7586 0.7775 0.9367 0.9137 0.7195 0.7589 0.7739 0.7341 0.7241
607.628 0.676 0.8268 0.9167 0.8874 0.957 1.058 1.1092 1.1648 1.2409 1.425
626.918 1.705 2.085 2.685 3.255 3.825 4.555 5.325 5.845 6.225 6.805
646.208 7.535 8.255 9.315 9.875 9.375 9.015 8.915 8.715 8.575 8.665
665.498 8.445 7.605 6.855 6.195 5.545 5.185 4.695 4.265 3.915 3.515
684.787 3.245 3.035 2.785 2.485 2.535 2.515 2.315 2.245 2.195 2.105
704.077 2.075 2.175 2.175 2.195 2.345 2.435 2.355 2.475 2.855 3.035
723.367 2.715 2.375 2.475 2.415 2.245 2.275 2.355 2.345 2.185 2.215
742.657 2.365 2.385 2.275 2.245 2.445 2.405 2.085 1.875 1.725 1.715
761.947 1.645 1.3548 1.2215 1.1625 1.0753 0.8911 0.8732 0.8541 0.8155 0.833
781.236 0.8303 0.7786 0.6168 0.6408 0.694 0.7087 0.6241 0.7066 0.8551 0.7507
800.526 0.7566 0.838 0.8492 0.8314 0.7679 0.7051 0.6155 0.6109 0.6083 0.6673
819.816 0.665 0.6641 0.7342 0.6884 0.644 0.5796 0.6014 0.6264 0.7264 0.8241
839.106 0.8814 0.9708 0.9273 0.9443 1.0834 1.1474 1.2971 1.3751 1.3608 1.3602
858.395 1.2691 1.309 1.3824 1.382 1.445 1.555 1.535 1.485 1.435 1.435
877.685 1.515 1.555 1.475 1.3209 1.331 1.4062 1.515 1.535 1.565 1.725
896.975 1.665 1.565 1.505 1.525 1.695 1.825 1.915 1.955 2.055 2.095
916.265 2.065 2.135 1.985 1.875 1.885 1.715 1.675 1.675 1.645 1.545
935.555 1.4017 1.4022 1.3833 1.3236 1.4068 1.415 1.4048 1.485 1.515 1.505
954.844 1.475 1.425 1.435 1.465 1.2501 1.0572 1.1215 1.0904 1.0567 1.1291
974.134 1.0559 0.877 0.8362 0.9456 0.8788 0.6874 0.7851 0.8375 0.7807 0.8214
993.424 0.877 0.9113 0.8666 0.8858 1.0681 1.1691 1.0291 1.041 1.1643 1.2584
1012.714 1.3718 1.515 1.505 1.455 1.3721 1.3157 1.3531 1.2724 1.16 1.2069
1032.003 1.425 1.515 1.805 2.005 1.925 1.875 1.815 1.815 2.005 1.825
1051.293 1.555 1.755 1.625 1.2789 1.157 1.1701 1.0281 0.9983 1.398 1.515
1070.583 1.1529 0.8727 0.9649 0.9364 0.7241 0.5866 0.7563 0.9914 0.8089 0.8073
1089.873 0.5993 0.3775 0.5221 0.5849 0.8293 0.6207 0.41089 0.43247 0 0.159
1109.163 0.40812 0.44156 0.6194 0.6274 0.8122 0.6896 0.5647 0.6689 0.5939 0.7882
1128.452 0.9364 0.8601 0.9264 0.8475 0.8302 1.2516 1.495 1.3741 1.3783 1.3106
1147.742 1.2245 1.0819 1.1381 1.1873 1.0306 0.9397 0.7963 0.7868 0.7932 0.9526
1167.032 0.9584 0.933 0.993 0.944 0.9277 1.0184 1.2039 1.2356 1.0482 1.081
1186.322 1.291 1.445 1.575 1.705 1.715 1.515 1.465 1.3925 1.3183 1.3469
1205.611 1.425 1.2832 1.0249 1.2201 1.3791 1.2499 1.3068 1.311 1.605 1.625
1224.901 1.0615 1.0323 1.206 1.077 1.0339 1.1231 1.1436 1.2596 1.425 1.3044
1244.191 1.1442 1.2125 1.4027 1.505 1.415 1.3702 1.3906 1.3526 1.2889 1.366
1263.481 1.2656 1.3323 1.475 1.358 1.3611 1.4143 1.3581 1.3679 1.415 1.3768
1282.771 1.2714 1.2077 1.2069 1.2236 1.2497 1.2592 1.25 1.2265 1.1899 1.1588
1302.060 1.1741 1.2506 1.32 1.3058 1.3452 1.3655 1.3539 1.425 1.495 1.455
1321.350 1.4139 1.455 1.485 1.545 1.555 1.475 1.475 1.475 1.465 1.485
1340.640 1.515 1.505 1.495 1.525 1.535 1.555 1.555 1.555 1.555 1.575
1359.930 1.565 1.495 1.391 1.3121 1.2957 1.2879 1.2412 1.1921 1.1052 1.0688
1379.219 1.0928 1.0526 1.027 0.9629 0.915 0.9596 0.9821 0.9624 0.9225 0.912
1398.509 0.9153 0.9527 0.9547 0.9448 0.982 0.9991 1.0316 1.0939 1.1786 1.2915
1417.799 1.435 1.625 1.905 2.225 2.525 2.865 3.275 3.665 4.085 4.505
1437.089 4.885 5.235 5.525 5.695 5.745 5.715 5.595 5.525 5.445 5.205
1456.378 4.915 4.575 4.215 3.765 3.295 2.995 2.735 2.405 2.145 1.925
1475.668 1.665 1.425 1.2778 1.1491 1.0698 0.9914 0.8987 0.8446 0.8224 0.7911
1494.958 0.7209 0.671 0.641 0.608 0.6298 0.6488 0.6283 0.6244 0.6122 0.6216
1514.248 0.6309 0.6355 0.6638 0.6237 0.5909 0.6291 0.6625 0.6271 0.612 0.6262
1533.538 0.6124 0.691 0.7049 0.5977 0.5266 0.56 0.591 0.6361 0.6541 0.6068
1552.827 0.6105 0.6176 0.5683 0.522 0.50418 0.5304 0.5923 0.6262 0.6417 0.6795
1572.117 0.7108 0.7187 0.6911 0.6563 0.6565 0.678 0.7525 0.7971 0.7988 0.7923
1591.407 0.8013 0.8186 0.8956 0.916 0.893 0.9446 1.0542 1.1188 1.1549 1.2196
1610.697 1.2379 1.2448 1.2741 1.3153 1.3932 1.4143 1.3228 1.2398 1.251 1.3238
1629.986 1.3167 1.3156 1.361 1.425 1.555 1.685 1.815 1.875 1.915 2.015
1649.276 2.035 2.005 1.965 1.935 1.915 1.885 1.875 1.785 1.645 1.525
1668.566 1.3964 1.2386 1.1198 1.0429 0.9697 0.9551 0.9111 0.8635 0.8706 0.895
1687.856 0.9165 0.9212 0.8619 0.793 0.7792 0.7857 0.7415 0.753 0.8025 0.8052
1707.146 0.8112 0.7967 0.7877 0.808 0.7851 0.7336 0.7903 0.8119 0.7744 0.7245
1726.435 0.7243 0.7346 0.6685 0.6402 0.6717 0.7547 0.7331 0.6948 0.6738 0.6153
1745.725 0.6225 0.6423 0.6282 0.6222 0.6052 0.5702 0.6192 0.6464 0.6377 0.6513
1765.015 0.6775 0.6803 0.6574 0.6048 0.563 0.6013 0.6234 0.608 0.6089 0.6104
1784.305 0.5788 0.5913 0.6259 0.6172 0.5722 0.6011 0.6404 0.661 0.6684 0.6444
1803.594 0.6117 0.5823 0.6197 0.6104 0.5858 0.6241 0.6482 0.6194 0.6074 0.6505
1822.884 0.6446 0.624 0.6423 0.6498 0.6335 0.6285 0.6176 0.6049 0.6269 0.6564
1842.174 0.6726 0.6695 0.6735 0.6732 0.6293 0.6272 0.6788 0.6991 0.6822 0.6982
1861.464 0.7342 0.7452 0.735 0.7171 0.7428 0.7767 0.8203 0.8606 0.8185 0.7858
1880.754 0.7339 0.691 0.7087 0.6512 0.6542 0.7067 0.7021 0.7231 0.7236 0.6847
1900.043 0.6763 0.6658 0.6651 0.7009 0.6914 0.6784 0.7272 0.7714 0.7194 0.6933
1919.333 0.7087 0.7083 0.7667 0.7928 0.7746 0.7579 0.7647 0.7657 0.7573 0.7083
1938.623 0.6893 0.732 0.6947 0.6376 0.6358 0.6543 0.7093 0.6973 0.6202 0.6501
1957.913 0.6971 0.6604 0.6425 0.6618 0.6609 0.6598 0.662 0.6507 0.6499 0.6685
1977.202 0.6904 0.6839 0.6598 0.6573 0.6779 0.6796 0.6897 0.6887 0.6503 0.6151
1996.492 0.6148 0.6509 0.6606 0.6543 0.6642 0.6479 0.6358 0.5956 0.5603 0.6331
2015.782 0.6495 0.6215 0.6658 0.6937 0.6988 0.6747 0.6472 0.6189 0.6045 0.6108
2035.072 0.6098 0.6381 0.6395 0.6431 0.6579 0.6483 0.6191 0.6147 0.6227 0.642
2054.362 0.6413 0.6387 0.6782 0.6968 0.6734 0.6241 0.5821 0.5866 0.6342 0.6726
2073.651 0.6722 0.6298 0.6295 0.658 0.6558 0.6416 0.6275 0.66 0.6857 0.6788
2092.941 0.7096 0.7072 0.7002 0.7345 0.7231 0.6948 0.6665 0.6682 0.7122 0.7399
2112.231 0.6939 0.6586 0.6641 0.6924 0.7544 0.6849 0.6046 0.6224 0.6115 0.6471
2131.521 0.7048 0.6689 0.6371 0.6182 0.6119 0.6245 0.6407 0.6525 0.6235 0.6336
2150.810 0.6417 0.594 0.6164 0.6162 0.5601 0.5892 0.6647 0.7316 0.6733 0.6205
2170.100 0.6314 0.6237 0.6451 0.636 0.6384 0.6842 0.6867 0.6736 0.6964 0.6869
2189.390 0.6765 0.7013 0.6967 0.7099 0.7382 0.735 0.732 0.7618 0.8148 0.7458
2208.680 0.7119 0.7996 0.8241 0.7821 0.8081 0.8821 0.8919 0.9398 1.0215 1.0586
2227.970 1.1818 1.3935 1.515 1.605 1.715 1.745 1.775 1.815 1.785 1.785
2247.259 1.785 1.745 1.625 1.505 1.4091 1.2817 1.1522 1.0093 0.9209 0.8804
2266.549 0.8041 0.8019 0.7984 0.7067 0.6861 0.7053 0.7199 0.7564 0.7782 0.7178
2285.839 0.665 0.7037 0.6964 0.7134 0.73 0.7367 0.7643 0.7251 0.7437 0.744
2305.129 0.712 0.722 0.6838 0.655 0.6281 0.6 0.6527 0.7028 0.6892 0.6445
2324.418 0.6358 0.6383 0.6609 0.653 0.6165 0.5878 0.6042 0.6821 0.7625 0.7608
2343.708 0.6999 0.6965 0.6835 0.6948 0.7168 0.6703 0.669 0.7243 0.7363 0.7798
2362.998 0.7815 0.784 0.8423 0.8341 0.7774 0.7844 0.8276 0.7958 0.8233 0.8935
2382.288 0.884 0.8507 0.7925 0.7939 0.8239 0.8258 0.8222 0.7727 0.7906 0.8355
2401.578 0.7912 0.7774 0.7928 0.7919 0.7714 0.7714 0.7866 0.7619 0.7673 0.7446
2420.867 0.7411 0.8139 0.7483 0.699 0.7475 0.7759 0.7769 0.7482 0.76 0.7672
2440.157 0.7455 0.7475 0.7453 0.6879 0.678 0.6889 0.6629 0.6401 0.6503 0.65
2459.447 0.6791 0.7069 0.7191 0.6961 0.6421 0.6496 0.6382 0.6387 0.7125 0.7279
2478.737 0.6989 0.7055 0.6776 0.6463 0.618 0.5992 0.6968 0.744 0.6985 0.7043
2498.026 0.7308 0.7636 0.7039 0.6685 0.6906 0.6818 0.664 0.654 0.6909 0.7126
2517.316 0.7307 0.7513 0.7185 0.6393 0.6187 0.7131 0.7521 0.7243 0.7442 0.7616
2536.606 0.7218 0.6656 0.6662 0.6727 0.7353 0.7103 0.6711 0.7585 0.7322 0.6741
2555.896 0.6989 0.7284 0.7229 0.7383 0.7184 0.6704 0.6608 0.7457 0.7457 0.6496
2575.186 0.6795 0.7194 0.6527 0.6174 0.6339 0.6703 0.7168 0.6909 0.7151 0.6847
2594.475 0.6557 0.6719 0.6712 0.6753 0.7257 0.778 0.7033 0.6472 0.6644 0.7462
2613.765 0.7619 0.6718 0.6344 0.6356 0.7057 0.7723 0.7571 0.7533 0.8081 0.8223
2633.055 0.779 0.7867 0.8202 0.8599 0.7988 0.7688 0.8425 0.8313 0.8156 0.8422
2652.345 0.926 0.9111 0.8434 0.8851 0.9482 0.9591 0.8839 0.8995 0.9156 0.9074
2671.634 0.9323 0.989 1.0243 0.903 0.8436 0.9076 0.9543 0.9512 0.8488 0.849
2690.924 0.9056 0.8647 0.8427 0.7601 0.7258 0.824 0.8281 0.8133 0.8564 0.8575
2710.214 0.8372 0.8507 0.8763 0.7916 0.7893 0.8613 0.8065 0.7999 0.8406 0.7819
2729.504 0.7378 0.6658 0.7327 0.808 0.7692 0.8052 0.784 0.8474 0.8741 0.8284
2748.794 0.8337 0.815 0.8867 0.9567 0.9293 0.9794 1.0233 0.989 0.9726 0.9625
2768.083 0.9563 1.0306 1.1022 1.0428 1.0272 1.0062 0.9846 1.0565 1.1106 1.0839
2787.373 1.0209 1.0147 0.9805 0.9082 0.9524 0.9579 0.9147 0.9678 1.0553 1.1065
2806.663 1.1053 1.1554 1.1884 1.2099 1.183 1.1947 1.2758 1.3359 1.455 1.515
2825.953 1.595 1.785 2.075 2.325 2.575 2.975 3.355 3.805 4.485 5.185
2845.242 5.785 6.375 6.875 7.195 7.635 8.045 8.215 8.305 8.305 8.275
2864.532 8.195 8.005 7.725 7.455 7.215 6.965 6.765 6.515 6.265 6.185
2883.822 6.195 6.255 6.325 6.425 6.705 7.035 7.275 7.565 7.915 8.235
2903.112 8.515 8.885 9.485 10.225 11.035 11.765 12.445 13.375 14.645 15.965
2922.401 17.135 18.175 19.065 19.905 20.785 21.715 22.485 22.915 23.505 24.445
2941.691 24.875 24.265 23.205 22.135 21.145 20.245 19.355 18.425 17.475 16.655
2960.981 15.525 13.855 12.425 11.775 11.225 10.345 9.305 7.995 6.765 5.845
2980.271 4.995 4.345 3.905 3.525 3.275 3.005 2.735 2.575 2.445 2.325
2999.561 2.165 2.045 1.985 1.995 1.935 1.945 2.015 2.125 2.365 2.625
3018.850 2.955 3.515 4.305 5.205 6.515 8.035 9.595 11.025 11.775 11.975
3038.140 11.955 12.475 13.415 13.195 11.975 11.435 11.185 10.235 8.865 7.295
3057.430 5.685 4.525 3.745 3.065 2.685 2.485 2.215 2.055 1.995 1.885
3076.720 1.875 1.875 1.825 1.755 1.655 1.595 1.425 1.2707 1.2194 1.1759
3096.009 1.1401 1.1253 1.0861 0.9606 0.902 0.904 0.8497 0.9508 1.0643 0.9901
3115.299 0.8593 0.8107 0.7927 0.7403 0.7316 0.7673 0.7654 0.7738 0.7766 0.7357
3134.589 0.826 0.8515 0.7244 0.8096 0.8955 0.8339 0.8019 0.8403 0.9344 0.854
3153.879 0.8372 0.8893 0.8766 0.9066 0.8395 0.8158 0.7473 0.7359 0.8259 0.82
3173.169 0.731 0.6487 0.6724 0.6373 0.6288 0.6521 0.6107 0.5681 0.5555 0.6232
3192.458 0.6789 0.613 0.6135 0.6862 0.7717 0.845 0.7282 0.622 0.5824 0.6205
3211.748 0.7782 0.7929 0.7355 0.7238 0.6369 0.6765 0.7052 0.5569 0.49237 0.5188
3231.038 0.5671 0.6451 0.7194 0.721 0.6657 0.6673 0.7193 0.7104 0.7738 0.942
3250.328 0.8494 0.8041 0.9311 0.8032 0.8017 0.8228 0.7584 0.7081 0.6828 0.7295
3269.617 0.7461 0.7666 0.705 0.7243 0.8031 0.8528 0.8595 0.7756 0.8171 0.8138
3288.907 0.7666 0.8474 0.8203 0.8375 0.8725 0.8299 0.8992 0.951 0.9353 0.9388
3308.197 0.9596 0.97 0.8672 0.7815 0.8373 0.8777 0.903 0.9062 0.7962 0.7385
3327.487 0.8053 0.7843 0.7833 0.8353 0.7623 0.7687 0.7923 0.6918 0.712 0.7963
3346.777 0.7535 0.7546 0.7875 0.6684 0.6377 0.6336 0.6566 0.7162 0.6653 0.645
3366.066 0.6548 0.6688 0.7497 0.7809 0.6946 0.7025 0.7931 0.7851 0.7392 0.636
3385.356 0.6415 0.6709 0.5345 0.5811 0.6517 0.5786 0.5623 0.6547 0.7381 0.6931
3404.646 0.5607 0.6198 0.7192 0.6659 0.5541 0.5933 0.7124 0.6898 0.6633 0.6176
3423.936 0.5437 0.6205 0.6766 0.6522 0.7166 0.7131 0.6367 0.6604 0.7011 0.654
3443.225 0.6087 0.5979 0.6403 0.6696 0.6973 0.7126 0.5966 0.6363 0.7238 0.6916
3462.515 0.6347 0.5867 0.6116 0.5277 0.6835 0.7906 0.605 0.5599 0.5604 0.5788
3481.805 0.7208 0.7522 0.5914 0.5457 0.6471 0.6828 0.6983 0.7137 0.6928 0.6387
3501.095 0.6305 0.6831 0.621 0.49427 0.42536 0.5398 0.6362 0.6203 0.6548 0.5813
3520.385 0.5308 0.6763 0.6885 0.5903 0.6492 0.7005 0.6252 0.50273 0.5896 0.6322
3539.674 0.5471 0.6176 0.6143 0.5974 0.6853 0.6527 0.6398 0.646 0.5265 0.4901
3558.964 0.5745 0.51498 0.49435 0.6526 0.7428 0.8213 0.7483 0.6121 0.6194 0.668
3578.254 0.7161 0.7477 0.6303 0.6034 0.6595 0.6542 0.6571 0.6304 0.6277 0.5806
3597.544 0.4747 0.50111 0.5628 0.5348 0.5931 0.5699 0.583 0.6211 0.6084 0.6345
3616.833 0.6117 0.6398 0.6795 0.746 0.7184 0.6701 0.667 0.6648 0.653 0.6496
3636.123 0.6942 0.6737 0.7458 0.7114 0.51326 0.5308 0.6388 0.6888 0.618 0.6173
3655.413 0.6499 0.6325 0.6721 0.6772 0.6513 0.6994 0.7424 0.6229 0.44174 0.5407
3674.703 0.6777 0.6105 0.6686 0.7137 0.6066 0.5206 0.6177 0.7365 0.6562 0.6116
3693.993 0.7101 0.7226 0.5868 0.5257 0.5305 0.574 0.7181 0.6769 0.6025 0.6792
3713.282 0.7762 0.8027 0.719 0.5947 0.5952 0.6543 0.5721 0.5759 0.6668 0.6901
3732.572 0.5955 0.6602 0.7416 0.6281 0.6822 0.7164 0.6638 0.6216 0.6581 0.6474
3751.862 0.5431 0.6055 0.6217 0.5993 0.6249 0.6839 0.6867 0.6354 0.6753 0.7192
3771.152 0.6563 0.6213 0.6218 0.5227 0.50598 0.6239 0.7069 0.6936 0.6362 0.7035
3790.441 0.7084 0.6029 0.6669 0.6607 0.639 0.6611 0.6396 0.7386 0.7782 0.695
3809.731 0.6301 0.5589 0.48821 0.5808 0.7885 0.8072 0.7192 0.8588 0.9185 0.8471
3829.021 0.9086 0.8593 0.785 0.7948 0.7648 0.6392 0.5697 0.6719 0.8418 0.7765
3848.311 0.7154 0.6406 0.5552 0.7375 0.8373 0.6717 0.5684 0.6361 0.6147 0.6299
3867.601 0.651 0.6354 0.7217 0.7372 0.7847 0.7997 0.6875 0.6911 0.7344 0.9031
3886.890 0.9332 0.8619 0.8671 0.7461 0.6967 0.8188 0.7855 0.6024 0.73 0.8694
3906.180 0.8026 0.7415 0.827 0.8927 0.7865 0.7829 0.7469 0.676 0.6957 0.7291
3925.470 0.8489 0.7877 0.5818 0.679 0.8414 0.8406 0.8529 0.8294 0.7154 0.7018
3944.760 0.8166 0.8571 0.768 0.7809 0.9182 0.9269 0.8598 0.8991 0.9584 0.879
3964.049 0.7846 0.6714 0.6318 0.7925 0.9944 1.0808 0.9002 0.8437 0.8878 0.8549
3983.339 0.7655 0.6619 0.7458 0.8378 0.8382 0.8526 0.7522 0.7728 0.7731 0.7154
##END=
