##TITLE=2,4-Dimethyl-1,3-pentadiene
##JCAMP-DX=4.24
##DATA TYPE=INFRARED SPECTRUM
##ORIGIN=NIST Mass Spectrometry Data Center
##OWNER=NIST Standard Reference Data Program
Collection (C) 2018 copyright by the U.S. Secretary of Commerce
on behalf of the United States of America. All rights reserved.
##CAS REGISTRY NO=1000-86-8
##MOLFORM=C 7 H 12
##$NIST SOURCE=MSDC-IR
##SPECTROMETER/DATA SYSTEM=HP-GC/MS/IRD
##STATE=gas
##XUNITS=1/CM
##YUNITS=ABSORBANCE
##XFACTOR=1.0
##YFACTOR=0.000002400
##DELTAX=4.0
##FIRSTX=550.0
##LASTX=3846.0
##FIRSTY=0.001003
##MAXX=3846
##MINX=550
##MAXY=0.024
##MINY=0
##NPOINTS=825
##XYDATA=(X++(Y..Y))
550.0 418 271 137 206 220 256 324 283 232 231
590.0 134 69 88 63 21 3 12 57 37 16
630.0 56 45 7 28 65 47 36 51 52 21
670.0 0 43 83 66 49 102 117 62 34 50
710.0 71 85 105 67 37 64 66 52 66 98
750.0 92 79 80 77 94 104 130 119 156 248
790.0 264 244 241 341 449 523 600 685 750 872
830.0 1022 1127 1163 1176 1210 1249 1263 1348 1525 1768
870.0 2121 2594 3144 3826 4521 5032 5207 4860 4278 3624
910.0 2886 2169 1571 1118 775 600 504 418 341 316
950.0 303 266 269 290 322 366 378 398 423 431
990.0 436 428 435 421 413 422 385 339 306 304
1030.0 296 264 291 343 393 501 605 715 846 910
1070.0 929 906 815 668 510 372 294 237 169 126
1110.0 91 83 90 82 75 84 88 103 126 138
1150.0 169 210 286 380 496 637 769 873 907 914
1190.0 902 799 645 510 405 346 306 293 287 292
1230.0 315 351 397 445 513 577 628 666 679 680
1270.0 684 632 541 481 463 463 453 441 437 453
1310.0 455 454 467 485 499 514 540 585 637 711
1350.0 831 994 1189 1459 1786 2082 2336 2510 2581 2560
1390.0 2369 2057 1777 1599 1486 1458 1505 1606 1787 2010
1430.0 2241 2493 2762 2965 3098 3141 3057 2870 2641 2348
1470.0 2018 1700 1437 1200 1006 858 736 655 606 539
1510.0 471 429 400 386 376 365 380 389 402 424
1550.0 442 465 502 543 602 654 702 783 869 945
1590.0 1020 1113 1226 1344 1476 1620 1763 1896 2044 2174
1630.0 2244 2254 2236 2174 2029 1868 1695 1510 1330 1143
1670.0 920 705 546 437 339 291 256 207 197 184
1710.0 171 173 162 144 131 122 119 126 131 145
1750.0 162 181 212 250 278 310 354 401 438 452
1790.0 449 435 410 370 329 285 238 198 155 125
1830.0 104 85 90 92 78 75 70 58 42 32
1870.0 38 42 47 54 40 34 51 40 31 35
1910.0 35 34 36 38 42 52 58 62 58 52
1950.0 49 48 55 62 64 53 28 32 40 33
1990.0 25 19 22 18 4 6 19 11 4 18
2030.0 19 30 32 16 15 14 18 29 30 18
2070.0 14 23 27 20 15 19 30 32 27 13
2110.0 18 31 33 27 34 31 19 23 15 26
2150.0 36 37 38 24 23 33 33 34 36 34
2190.0 36 36 17 9 29 41 31 33 34 34
2230.0 37 23 28 32 20 22 31 25 24 25
2270.0 18 23 22 27 30 26 22 6 12 23
2310.0 20 16 24 29 22 42 57 51 53 54
2350.0 45 34 32 33 31 30 19 22 36 46
2390.0 54 53 67 76 70 80 82 69 63 63
2430.0 69 59 55 62 58 64 65 60 62 74
2470.0 80 57 42 53 55 45 49 52 42 34
2510.0 46 65 66 62 63 51 58 66 45 39
2550.0 53 55 48 49 58 63 66 66 48 39
2590.0 49 47 47 56 66 61 46 58 62 61
2630.0 78 74 78 87 77 74 79 83 72 75
2670.0 82 91 98 99 104 120 154 148 150 182
2710.0 193 209 248 292 345 402 443 477 494 500
2750.0 466 420 388 364 351 344 350 357 381 426
2790.0 456 462 489 560 637 697 737 792 858 937
2830.0 1056 1218 1420 1675 2018 2446 2964 3490 3936 4302
2870.0 4615 4842 4985 5098 5178 5246 5375 5650 6075 6677
2910.0 7455 8287 9021 9580 9900 10000 9871 9492 8936 8378
2950.0 7968 7716 7728 8016 8437 8692 8680 8544 8333 7860
2990.0 7038 6123 5335 4659 4064 3546 3124 2804 2539 2309
3030.0 2114 1983 1901 1836 1794 1771 1758 1794 1903 2050
3070.0 2280 2686 3119 3300 3315 3168 2872 2547 2001 1421
3110.0 1046 834 688 603 558 500 445 401 368 340
3150.0 309 268 223 197 175 134 109 121 130 109
3190.0 79 83 98 106 134 128 97 100 87 86
3230.0 113 95 67 68 62 56 81 104 87 68
3270.0 58 66 63 49 53 59 66 69 64 58
3310.0 83 99 75 56 56 50 48 58 54 64
3350.0 72 63 59 59 51 64 70 53 67 78
3390.0 58 53 44 44 54 49 58 80 82 70
3430.0 83 73 13 11 36 39 55 50 44 59
3470.0 49 36 30 38 66 95 89 66 61 50
3510.0 60 97 95 57 49 39 21 23 10 28
3550.0 54 44 45 38 30 47 68 66 39 26
3590.0 50 60 66 62 39 34 60 64 30 16
3630.0 34 62 44 57 58 32 51 55 58 59
3670.0 55 18 15 73 68 33 34 39 36 29
3710.0 10 5 39 38 32 44 44 24 7 8
3750.0 40 60 78 96 96 115 100 61 58 78
3790.0 88 94 98 79 79 84 48 53 79 79
3830.0 81 80 63 57 67
##END=
