##TITLE=2,4-Dimethyl-2,3-pentadiene
##JCAMP-DX=4.24
##DATA TYPE=INFRARED SPECTRUM
##ORIGIN=NIST Mass Spectrometry Data Center
##OWNER=NIST Standard Reference Data Program
Collection (C) 2018 copyright by the U.S. Secretary of Commerce
on behalf of the United States of America. All rights reserved.
##CAS REGISTRY NO=1000-87-9
##MOLFORM=C 7 H 12
##$NIST SOURCE=MSDC-IR
##SPECTROMETER/DATA SYSTEM=HP-GC/MS/IRD
##STATE=gas
##XUNITS=1/CM
##YUNITS=ABSORBANCE
##XFACTOR=1.0
##YFACTOR=0.000003000
##DELTAX=4.0
##FIRSTX=550.0
##LASTX=3846.0
##FIRSTY=0.000474
##MAXX=3846
##MINX=550
##MAXY=0.03
##MINY=0
##NPOINTS=825
##XYDATA=(X++(Y..Y))
550.0 158 113 20 60 220 501 786 1292 1761 1496
590.0 1094 700 339 181 81 44 51 62 69 52
630.0 54 67 79 68 21 7 45 87 110 144
670.0 184 215 263 301 312 330 337 317 287 244
710.0 202 166 160 150 127 95 87 83 79 93
750.0 92 87 81 79 90 88 80 71 67 52
790.0 48 66 83 86 72 71 82 90 93 113
830.0 132 148 181 170 128 121 101 72 67 66
870.0 71 77 83 88 84 79 78 80 79 92
910.0 96 92 100 99 75 59 61 79 95 98
950.0 109 122 120 111 102 100 106 102 108 128
990.0 140 145 149 146 141 153 153 147 152 151
1030.0 150 171 185 220 272 320 404 493 568 658
1070.0 765 859 972 1097 1257 1465 1693 1936 2157 2310
1110.0 2326 2222 2035 1738 1371 1036 774 600 486 437
1150.0 449 488 574 713 853 996 1120 1202 1235 1191
1190.0 1088 923 748 610 507 440 392 341 288 235
1230.0 185 169 161 139 133 134 139 145 146 158
1270.0 165 187 221 235 261 278 278 292 295 287
1310.0 276 266 262 271 300 339 381 438 541 682
1350.0 850 1034 1232 1434 1586 1599 1468 1259 1042 823
1390.0 598 426 333 307 323 374 453 559 704 884
1430.0 1085 1309 1531 1707 1821 1875 1846 1726 1551 1336
1470.0 1117 914 730 585 469 382 321 284 247 209
1510.0 184 162 149 147 142 142 147 144 154 184
1550.0 199 199 206 213 209 209 218 213 200 199
1590.0 198 184 174 167 157 141 133 137 133 124
1630.0 115 104 104 106 93 76 60 57 60 60
1670.0 55 41 37 37 32 39 43 29 18 21
1710.0 29 32 20 16 15 14 18 20 20 21
1750.0 28 35 31 31 35 30 20 22 30 24
1790.0 21 19 20 28 26 27 23 20 21 23
1830.0 12 10 16 9 6 8 11 10 13 26
1870.0 23 7 1 6 16 19 13 17 26 24
1910.0 21 25 31 33 35 34 38 41 36 37
1950.0 39 39 37 35 40 37 29 28 33 41
1990.0 38 26 22 29 33 30 26 23 18 13
2030.0 16 15 8 13 19 14 13 17 16 26
2070.0 30 22 16 11 13 17 15 13 15 13
2110.0 12 8 5 9 7 6 3 11 13 12
2150.0 14 12 6 5 6 1 0 9 18 20
2190.0 17 16 20 28 30 32 37 34 29 29
2230.0 22 14 13 13 13 17 21 21 20 15
2270.0 16 19 17 12 9 14 16 15 7 9
2310.0 20 16 13 16 24 37 36 37 35 29
2350.0 35 39 36 34 33 33 32 32 28 30
2390.0 41 45 52 62 67 63 56 50 44 44
2430.0 46 45 43 49 40 28 21 15 16 25
2470.0 33 32 36 38 34 32 36 40 48 62
2510.0 68 53 43 55 70 68 71 85 90 99
2550.0 97 104 107 91 87 78 67 62 57 64
2590.0 60 60 65 63 66 66 60 57 62 62
2630.0 62 66 69 67 63 70 71 67 68 74
2670.0 71 77 91 84 99 114 120 152 194 244
2710.0 310 364 391 410 404 376 332 293 282 277
2750.0 279 286 287 287 273 267 278 299 328 361
2790.0 409 466 531 601 673 759 850 937 1043 1167
2830.0 1325 1520 1757 2026 2351 2772 3322 3954 4515 4910
2870.0 5241 5496 5583 5518 5368 5311 5479 5920 6690 7662
2910.0 8603 9368 9852 10000 9779 9237 8532 7777 6983 6127
2950.0 5254 4446 3815 3432 3341 3603 4191 4823 5172 5245
2990.0 4983 4425 3635 2693 1911 1394 1086 921 833 796
3030.0 804 836 874 908 930 951 962 951 931 919
3070.0 908 887 872 848 797 753 723 670 621 573
3110.0 531 487 439 412 372 324 297 262 227 208
3150.0 194 186 166 144 137 135 118 99 98 98
3190.0 86 83 83 85 90 86 70 68 71 78
3230.0 78 65 64 84 78 63 86 92 81 89
3270.0 95 102 100 96 102 98 83 67 72 82
3310.0 73 88 104 102 100 96 89 79 89 98
3350.0 90 87 79 80 94 88 81 76 69 57
3390.0 47 63 63 65 59 42 34 39 50 49
3430.0 47 56 56 45 57 56 53 47 39 47
3470.0 43 30 36 65 82 61 44 51 47 47
3510.0 49 44 43 44 55 59 50 42 26 23
3550.0 41 48 52 44 50 63 60 60 50 33
3590.0 23 22 28 39 46 41 26 25 40 49
3630.0 47 35 29 26 33 57 52 34 32 31
3670.0 29 27 15 7 33 47 35 25 30 56
3710.0 62 47 47 37 31 41 45 60 61 39
3750.0 45 57 53 54 52 47 46 45 46 50
3790.0 53 50 60 71 74 86 96 89 75 78
3830.0 86 68 58 69 79
##END=
