##TITLE=6-Pentadecanone
##JCAMP-DX=4.24
##DATA TYPE=INFRARED SPECTRUM
##ORIGIN=EPA-IR VAPOR PHASE LIBRARY
##OWNER=SRD/NIST
Collection (C) 2018 copyright by the U.S. Secretary of Commerce
on behalf of the United States of America. All rights reserved.
##CAS REGISTRY NO=1001-45-2
##MOLFORM=C 15 H 30 O
##$NIST SOURCE=MSDC-IR
##STATE=gas
##XUNITS=1/CM
##YUNITS=ABSORBANCE
##XFACTOR=1.
##YFACTOR=0.001
##DELTAX=1.92898
##FIRSTX=549.8
##LASTX=4000.7
##FIRSTY=1.711
##MAXX=4000.7
##MINX=549.759
##MAXY=0.294421
##MINY=0
##NPOINTS=1790
##XYDATA=(X++(Y..Y))
549.759 1.711 2.251 2.411 2.061 1.771 1.661 1.641 1.491 1.391 1.501
569.049 1.281 0.5919 0.6245 1.0007 1.131 1.131 1.0716 1.241 1.231 1.1073
588.339 1.131 1.271 1.201 0.8256 0.9227 1.331 1.411 1.241 0.9971 1.121
607.628 1.241 1.171 1.291 1.561 1.641 1.261 1.321 1.291 1.271 1.481
626.918 1.421 1.521 1.531 1.421 1.261 1.261 1.391 0.957 1.0213 1.171
646.208 0.9729 1.0043 0.9674 1.181 1.231 1.181 1.141 0.9273 0.9434 0.7788
665.498 0.7684 1.121 1.141 1.221 1.401 1.291 1.301 1.411 1.191 1.181
684.787 1.291 1.441 1.601 1.731 1.871 1.911 2.101 2.221 2.541 3.031
704.077 3.301 3.511 3.981 4.521 4.691 4.791 5.251 5.621 5.741 5.941
723.367 6.131 6.141 5.821 5.751 5.961 6.021 5.981 5.781 5.411 5.391
742.657 5.211 4.821 4.871 4.661 4.191 4.111 4.121 3.981 3.761 3.701
761.947 3.811 3.701 3.541 3.271 3.111 3.021 2.811 2.861 3.001 2.891
781.236 2.761 2.751 2.701 2.671 2.411 2.211 2.171 2.151 2.111 1.891
800.526 1.741 1.931 2.051 1.831 1.761 1.711 1.641 1.591 1.631 1.831
819.816 2.081 2.071 1.751 1.741 1.881 1.931 2.021 1.901 1.841 2.001
839.106 2.141 2.231 2.141 2.171 2.201 2.251 2.511 2.501 2.231 2.191
858.395 2.261 2.201 2.191 2.491 2.541 2.371 2.201 2.081 2.411 2.591
877.685 2.541 2.491 2.621 2.831 3.011 3.141 2.941 2.791 2.901 3.171
896.975 3.031 2.951 3.071 2.931 2.971 3.301 3.281 3.031 3.281 3.501
916.265 3.471 3.391 3.451 3.561 3.431 3.431 3.521 3.531 3.601 3.661
935.555 3.711 3.681 3.721 4.081 4.211 4.181 4.171 4.131 4.201 4.441
954.844 4.511 4.301 4.431 4.791 5.011 4.841 4.581 4.841 5.251 5.031
974.134 4.761 4.851 5.011 5.121 5.051 5.031 5.031 5.151 5.171 5.421
993.424 5.581 5.631 5.811 5.761 5.871 6.351 6.961 7.101 7.141 7.431
1012.714 7.681 7.851 8.101 8.471 8.451 8.421 8.651 8.531 8.731 9.071
1032.003 9.331 9.751 10.251 10.751 10.981 10.821 10.841 11.231 11.291 11.171
1051.293 11.471 11.931 11.801 11.991 12.541 12.281 11.951 11.971 12.321 12.841
1070.583 13.281 13.421 12.421 12.181 12.561 12.361 11.901 11.481 10.701 9.801
1089.873 10.171 9.871 8.941 9.071 9.711 9.221 8.761 9.471 9.831 9.601
1109.163 9.331 9.921 10.691 11.251 12.341 13.111 13.701 14.021 14.261 15.051
1128.452 15.411 15.781 15.981 15.941 16.201 15.551 14.831 14.701 14.661 14.481
1147.742 13.841 13.091 12.651 12.301 11.601 11.241 11.071 10.921 10.351 9.791
1167.032 9.981 10.391 10.521 9.921 9.801 10.221 10.161 10.071 10.001 10.121
1186.322 10.301 10.061 9.941 10.111 10.141 10.171 10.641 10.601 10.731 11.051
1205.611 11.291 11.521 11.441 11.331 11.001 10.921 11.081 10.751 10.791 11.281
1224.901 11.171 10.861 10.241 10.421 10.551 10.261 10.321 10.261 9.781 9.601
1244.191 9.851 9.611 9.451 9.481 9.361 9.571 9.571 9.381 9.311 9.301
1263.481 9.611 9.761 10.051 10.341 10.731 11.101 11.271 11.421 11.481 11.391
1282.771 11.601 12.061 12.241 12.621 12.951 13.081 13.331 13.501 13.681 13.831
1302.060 13.951 14.061 13.991 13.921 13.851 13.731 13.711 13.811 13.791 13.761
1321.350 13.891 14.091 14.491 15.021 15.551 16.241 17.051 18.051 19.151 20.141
1340.640 21.271 22.331 23.271 24.201 25.071 25.811 26.441 26.921 27.191 27.191
1359.930 26.861 26.291 25.481 24.481 23.201 21.771 20.351 19.031 17.981 17.091
1379.219 16.431 16.061 15.601 14.981 14.201 13.251 12.401 11.771 11.241 10.901
1398.509 10.751 10.771 11.011 11.321 11.801 12.431 13.041 13.611 14.101 14.561
1417.799 14.851 14.931 14.991 15.011 15.081 15.221 15.421 15.681 16.141 16.731
1437.089 17.251 17.991 18.971 20.111 21.361 22.681 24.231 25.871 27.491 28.941
1456.378 30.101 31.011 31.431 31.231 30.561 29.391 27.701 25.621 23.241 20.731
1475.668 18.301 16.101 14.131 12.331 10.821 9.601 8.611 7.751 7.021 6.501
1494.958 6.061 5.571 5.161 4.791 4.461 4.161 3.831 3.641 3.511 3.441
1514.248 3.371 3.201 2.961 2.821 2.731 2.561 2.541 2.501 2.341 2.301
1533.538 2.221 2.171 2.091 1.931 1.871 1.871 1.901 1.901 1.801 1.711
1552.827 1.701 1.721 1.711 1.601 1.571 1.641 1.621 1.541 1.521 1.561
1572.117 1.541 1.471 1.361 1.371 1.461 1.441 1.481 1.541 1.531 1.561
1591.407 1.471 1.441 1.401 1.351 1.421 1.341 1.291 1.401 1.511 1.491
1610.697 1.401 1.391 1.431 1.431 1.451 1.581 1.611 1.601 1.661 1.731
1629.986 1.861 1.821 1.821 1.921 1.931 2.021 2.161 2.181 2.241 2.341
1649.276 2.331 2.401 2.561 2.711 2.861 3.071 3.261 3.391 3.661 3.851
1668.566 4.031 4.411 4.781 5.091 5.531 6.081 6.601 7.201 7.861 8.521
1687.856 9.231 10.111 11.241 12.521 14.101 15.991 18.211 21.141 24.531 28.571
1707.146 33.371 38.981 45.491 52.741 60.421 68.201 75.731 81.881 85.911 87.311
1726.435 85.451 80.501 73.141 64.311 54.751 45.821 37.961 31.171 25.791 21.471
1745.725 18.061 15.401 13.221 11.451 10.021 8.841 7.841 7.041 6.371 5.821
1765.015 5.361 4.921 4.421 4.021 3.801 3.521 3.251 3.031 2.861 2.671
1784.305 2.451 2.301 2.201 2.051 1.951 1.921 1.801 1.671 1.611 1.541
1803.594 1.471 1.421 1.311 1.211 1.191 1.241 1.231 1.221 1.191 1.0788
1822.884 1.0022 0.945 0.9599 0.9011 0.8606 0.9284 0.925 0.8625 0.7843 0.8076
1842.174 0.892 0.8551 0.8314 0.8301 0.7999 0.7758 0.7014 0.7124 0.7346 0.7437
1861.464 0.7259 0.7044 0.7075 0.6609 0.6841 0.7048 0.6336 0.6294 0.6346 0.6776
1880.754 0.6564 0.6363 0.7055 0.6441 0.6258 0.6228 0.526 0.5435 0.6052 0.6396
1900.043 0.6379 0.5535 0.5715 0.6265 0.603 0.5734 0.57 0.5761 0.5802 0.507
1919.333 0.4475 0.4718 0.6201 0.7223 0.6137 0.5396 0.5308 0.5185 0.5011 0.4829
1938.623 0.4761 0.4839 0.5033 0.521 0.5463 0.522 0.4709 0.4742 0.5044 0.4818
1957.913 0.3941 0.3668 0.3844 0.398 0.4378 0.4836 0.4542 0.3864 0.4305 0.5372
1977.202 0.5824 0.5379 0.5039 0.5353 0.5005 0.4121 0.4914 0.5566 0.5285 0.5733
1996.492 0.6121 0.5861 0.5143 0.4921 0.5379 0.5861 0.6243 0.618 0.5588 0.549
2015.782 0.5794 0.6661 0.71 0.708 0.7234 0.7812 0.8953 0.8863 0.7887 0.7867
2035.072 0.8398 0.835 0.8011 0.8036 0.7495 0.7605 0.7834 0.7605 0.807 0.8121
2054.362 0.7808 0.7064 0.7197 0.776 0.7091 0.7203 0.7518 0.7218 0.7033 0.6689
2073.651 0.6408 0.641 0.637 0.6016 0.6049 0.6614 0.7038 0.6987 0.781 0.8497
2092.941 0.776 0.7362 0.7404 0.7136 0.7148 0.6711 0.639 0.696 0.6928 0.6286
2112.231 0.6614 0.6863 0.6117 0.5764 0.6899 0.8341 0.79 0.7569 0.7584 0.709
2131.521 0.7105 0.7205 0.6888 0.7133 0.7555 0.7209 0.6632 0.717 0.8083 0.8448
2150.810 0.8253 0.7655 0.8578 0.881 0.7353 0.7449 0.7615 0.7007 0.7638 0.7758
2170.100 0.7562 0.8031 0.7781 0.7399 0.7976 0.7987 0.7544 0.7221 0.7636 0.7956
2189.390 0.8141 0.7622 0.6626 0.6573 0.694 0.783 0.8186 0.7736 0.6634 0.6691
2208.680 0.8053 0.7747 0.7155 0.6559 0.6931 0.7988 0.7652 0.6902 0.6806 0.7668
2227.970 0.6984 0.6386 0.5777 0.5705 0.623 0.637 0.6752 0.7344 0.7365 0.7014
2247.259 0.6705 0.6972 0.7064 0.6141 0.7195 0.7631 0.6714 0.6171 0.6204 0.6035
2266.549 0.5436 0.589 0.6517 0.5935 0.6086 0.7033 0.7085 0.7059 0.715 0.7952
2285.839 0.814 0.7957 0.7843 0.7071 0.7045 0.7281 0.6876 0.7101 0.6997 0.6827
2305.129 0.6371 0.6169 0.6676 0.7757 0.8444 0.7215 0.6802 0.5995 0.6493 0.7436
2324.418 0.7123 0.7642 0.7449 0.6971 0.6977 0.6867 0.7264 0.7692 0.6866 0.6293
2343.708 0.6653 0.7417 0.8406 0.8726 0.834 0.784 0.6814 0.5864 0.6339 0.7477
2362.998 0.7489 0.6893 0.6101 0.6191 0.6622 0.6716 0.752 0.7312 0.655 0.6488
2382.288 0.6665 0.6779 0.6992 0.7419 0.7511 0.734 0.7091 0.6967 0.697 0.7801
2401.578 0.723 0.6323 0.7361 0.8278 0.8914 0.8929 0.7646 0.6483 0.679 0.7455
2420.867 0.7257 0.7384 0.6562 0.5854 0.6625 0.6747 0.7251 0.7787 0.7548 0.6904
2440.157 0.7351 0.769 0.7031 0.7057 0.7243 0.7039 0.7106 0.7013 0.6998 0.7196
2459.447 0.7787 0.8022 0.7205 0.7049 0.6759 0.5576 0.5871 0.6683 0.6325 0.6194
2478.737 0.6074 0.7035 0.8069 0.7922 0.7864 0.8652 0.882 0.7877 0.8116 0.7885
2498.026 0.6767 0.6424 0.6626 0.6744 0.7369 0.8207 0.7966 0.7578 0.8792 0.8663
2517.316 0.7871 0.8539 0.8627 0.8971 0.9516 0.9223 0.9189 0.9928 0.9433 1.009
2536.606 1.087 1.1049 1.1006 1.0898 1.141 1.141 1.231 1.271 1.201 1.161
2555.896 1.121 1.101 1.131 1.211 1.331 1.291 1.301 1.271 1.201 1.341
2575.186 1.461 1.491 1.451 1.421 1.431 1.441 1.431 1.451 1.471 1.481
2594.475 1.451 1.511 1.591 1.661 1.681 1.621 1.571 1.551 1.591 1.691
2613.765 1.721 1.691 1.791 1.941 2.001 1.911 1.801 1.841 2.041 2.221
2633.055 2.231 2.241 2.331 2.411 2.411 2.481 2.641 2.751 2.731 2.601
2652.345 2.591 2.651 2.711 2.801 2.911 3.031 3.111 3.151 3.141 3.121
2671.634 3.261 3.311 3.311 3.381 3.361 3.371 3.571 3.661 3.531 3.431
2690.924 3.311 3.231 3.201 3.161 3.191 3.281 3.271 3.131 3.141 3.161
2710.214 3.111 3.151 3.231 3.251 3.331 3.491 3.601 3.541 3.381 3.361
2729.504 3.541 3.711 3.741 3.851 4.121 4.361 4.431 4.381 4.361 4.361
2748.794 4.421 4.561 4.691 4.721 4.701 4.731 4.741 4.841 4.941 4.911
2768.083 4.931 4.931 5.061 5.381 5.561 5.751 5.911 6.021 6.221 6.671
2787.373 6.991 7.191 7.521 7.891 8.321 8.671 9.021 9.561 10.141 10.531
2806.663 10.941 11.341 11.841 12.521 13.041 13.611 14.271 14.961 15.641 16.441
2825.953 17.451 18.571 19.731 21.001 22.631 24.441 26.441 28.821 31.771 35.391
2845.242 39.731 44.871 51.111 58.541 67.181 76.781 86.561 95.631 103.471 109.251
2864.532 112.391 113.461 112.751 110.441 107.491 104.441 101.561 99.421 97.951 96.761
2883.822 95.601 94.231 92.901 91.781 91.091 91.491 92.861 94.981 98.021 101.731
2903.112 106.241 111.791 118.111 125.571 134.071 143.461 154.251 166.711 181.281 197.531
2922.401 215.331 234.621 253.431 270.311 283.411 291.581 294.421 291.411 283.561 272.571
2941.691 259.661 245.331 230.591 216.121 202.831 191.561 182.601 176.051 171.771 169.481
2960.981 168.371 167.451 166.221 163.211 156.761 146.821 134.071 119.381 104.011 89.421
2980.271 76.961 66.681 58.031 51.001 45.251 40.321 36.181 32.761 29.651 27.051
2999.561 24.881 22.991 21.381 19.781 18.531 17.541 16.341 15.321 14.461 13.621
3018.850 12.901 12.291 11.711 11.131 10.711 10.321 9.731 9.201 8.951 8.611
3038.140 8.341 8.021 7.631 7.201 6.921 6.701 6.501 6.291 5.951 5.781
3057.430 5.671 5.451 5.341 5.231 4.931 4.811 4.781 4.671 4.581 4.471
3076.720 4.261 4.051 3.971 3.971 3.861 3.891 3.931 3.801 3.731 3.561
3096.009 3.491 3.661 3.511 3.201 3.041 3.151 3.341 3.251 3.041 2.891
3115.299 2.821 2.751 2.651 2.561 2.671 2.661 2.421 2.331 2.361 2.401
3134.589 2.311 2.311 2.261 2.091 2.081 2.171 2.121 2.121 2.071 1.961
3153.879 1.911 1.981 2.021 1.911 1.831 1.811 2.001 1.981 1.941 1.981
3173.169 1.901 1.861 1.741 1.741 1.881 1.741 1.601 1.571 1.501 1.551
3192.458 1.451 1.351 1.431 1.431 1.251 1.261 1.341 1.241 1.121 1.0009
3211.748 0.9586 1.0436 0.9952 0.8994 1.0008 0.925 0.8759 1.0785 1.161 1.111
3231.038 1.0557 0.878 0.7148 0.6672 0.8514 0.9473 0.7631 0.6528 0.7392 0.6695
3250.328 0.5117 0.5288 0.5584 0.6175 0.6786 0.6301 0.587 0.6254 0.5451 0.6512
3269.617 0.8452 0.7416 0.563 0.4479 0.4533 0.5008 0.6049 0.6976 0.6397 0.6588
3288.907 0.5935 0.3797 0.4465 0.505 0.42 0.4825 0.5115 0.5581 0.6083 0.596
3308.197 0.6949 0.7567 0.7638 0.7591 0.6432 0.4359 0.2835 0.3571 0.368 0.3697
3327.487 0.4865 0.7173 0.5461 0.337 0.5104 0.5335 0.5127 0.4158 0.4946 0.5578
3346.777 0.4502 0.429 0.486 0.5043 0.6 0.6622 0.5591 0.5587 0.6386 0.6014
3366.066 0.5045 0.54 0.6488 0.6291 0.482 0.5437 0.7755 0.7202 0.5546 0.5206
3385.356 0.5294 0.718 0.8444 0.8418 0.7978 0.7915 0.9884 1.161 1.191 1.231
3404.646 1.131 1.05 1.301 1.411 1.361 1.511 1.511 1.441 1.381 1.481
3423.936 1.721 1.911 1.851 1.591 1.611 1.701 1.721 1.591 1.461 1.411
3443.225 1.301 1.171 1.0216 1.0181 1.0855 0.9231 0.8001 0.7949 0.5703 0.4588
3462.515 0.5215 0.5298 0.3845 0.3693 0.4687 0.4383 0.3925 0.4021 0.2551 0.13869
3481.805 0.2891 0.3217 0.0976 0.2514 0.6071 0.5292 0.4723 0.4412 0.2827 0.15945
3501.095 0.0125 0 0.0981 0.20478 0.2845 0.19542 0.16622 0.2808 0.4004 0.2588
3520.385 0.14973 0.1987 0.3697 0.41 0.2494 0.17575 0.15392 0.2218 0.2807 0.3044
3539.674 0.19929 0.2129 0.3097 0.19811 0.2551 0.4652 0.448 0.4472 0.4797 0.3935
3558.964 0.3477 0.251 0.118524 0.18295 0.5091 0.4044 0.059 0.13003 0.19908 0.2433
3578.254 0.3337 0.3458 0.2216 0.13363 0.212 0.2836 0.19102 0.2452 0.367 0.2784
3597.544 0.3101 0.4641 0.3411 0.2446 0.3326 0.17952 0.283 0.4531 0.4151 0.5761
3616.833 0.5512 0.4194 0.606 0.6615 0.5328 0.4845 0.4063 0.4783 0.5371 0.5073
3636.123 0.6012 0.7025 0.6958 0.5818 0.655 0.6127 0.6159 0.711 0.5943 0.6888
3655.413 0.7556 0.634 0.4969 0.5144 0.7017 0.6457 0.543 0.6699 0.4965 0.3493
3674.703 0.4098 0.434 0.4864 0.5222 0.5968 0.5246 0.4931 0.6011 0.4799 0.478
3693.993 0.6963 0.7591 0.7293 0.7655 0.7367 0.636 0.5788 0.6152 0.7914 0.6802
3713.282 0.5446 0.6349 0.5733 0.3775 0.3849 0.5535 0.5386 0.567 0.6993 0.5975
3732.572 0.5198 0.5278 0.4611 0.4336 0.4587 0.3206 0.2885 0.4309 0.4896 0.4928
3751.862 0.4176 0.502 0.5727 0.6635 0.7265 0.6149 0.3541 0.3227 0.4469 0.3659
3771.152 0.4253 0.5328 0.6443 0.8214 0.7358 0.6501 0.906 0.8449 0.5792 0.5683
3790.441 0.6825 0.7131 0.7138 0.8542 0.8293 0.6811 0.6503 0.6223 0.4394 0.4679
3809.731 0.5521 0.4939 0.5749 0.6819 0.8062 0.7976 0.6266 0.589 0.7478 0.7833
3829.021 0.6902 0.5795 0.4539 0.5803 0.5185 0.4116 0.7199 0.7694 0.6289 0.4706
3848.311 0.6056 0.7769 0.5051 0.3597 0.5832 0.757 0.8535 0.9048 0.7213 0.7159
3867.601 0.6512 0.4816 0.5823 0.6692 0.6924 0.6072 0.5572 0.7452 0.6991 0.6819
3886.890 0.6275 0.438 0.4221 0.6133 0.6578 0.5614 0.716 0.8409 0.8142 0.7456
3906.180 0.776 0.7094 0.5344 0.6034 0.6838 0.6909 0.8537 0.8584 0.8677 0.9229
3925.470 0.7751 0.6767 0.5687 0.5221 0.732 0.8576 0.726 0.5432 0.575 0.759
3944.760 0.8256 0.847 0.8749 0.9823 0.961 0.777 0.5757 0.5163 0.7296 1.0208
3964.049 1.151 1.0656 0.9603 0.9059 0.8276 0.8355 0.9059 0.9613 1.1095 1.0792
3983.339 0.8152 0.8174 0.9147 0.9107 0.858 0.9997 0.9843 0.8342 0.9618 0.9275
##END=
