##TITLE=N-Acetylethylenediamine
##JCAMP-DX=4.24
##DATA TYPE=INFRARED SPECTRUM
##ORIGIN=EPA-IR VAPOR PHASE LIBRARY
##OWNER=SRD/NIST
Collection (C) 2018 copyright by the U.S. Secretary of Commerce
on behalf of the United States of America. All rights reserved.
##CAS REGISTRY NO=1001-53-2
##MOLFORM=C 4 H 10 N 2 O
##$NIST SOURCE=MSDC-IR
##STATE=gas
##XUNITS=1/CM
##YUNITS=ABSORBANCE
##XFACTOR=1.
##YFACTOR=0.001
##DELTAX=1.929
##FIRSTX=549.8
##LASTX=4000.8
##FIRSTY=0.8054
##MAXX=4000.75
##MINX=549.766
##MAXY=0.019383
##MINY=0
##NPOINTS=1790
##XYDATA=(X++(Y..Y))
549.766 0.8054 0.7781 0.6 0.5208 0.5279 0.6608 0.7075 0.4532 0.4575 0.5488
569.056 0.2842 0.243 0.4287 0.4634 0.4668 0.4839 0.3352 0.3255 0.43272 0.43467
588.346 0.5211 0.6054 0.6447 0.6274 0.6143 0.7506 0.8786 0.8709 0.807 0.8431
607.636 0.9378 1.0132 1.0723 0.9953 0.9469 0.954 0.8806 1.0179 1.1521 1.0703
626.926 0.9726 0.9056 0.917 1.0244 1.0878 0.9504 0.847 0.8747 0.8442 0.8371
646.216 0.9313 0.8657 0.7635 0.8902 0.9688 0.9307 0.9031 0.8462 0.8855 0.8639
665.506 0.7924 0.8418 0.9109 0.9136 0.8401 0.8488 0.8816 0.8896 0.9886 1.0337
684.796 1.0072 1.0244 1.0585 1.1062 1.1422 1.1958 1.2002 1.1681 1.1946 1.2274
704.086 1.3084 1.393 1.463 1.523 1.583 1.643 1.623 1.673 1.783 1.813
723.376 1.823 1.913 1.973 2.033 2.103 2.143 2.113 2.173 2.323 2.473
742.666 2.533 2.553 2.733 2.843 2.793 2.793 2.873 2.953 3.093 3.103
761.956 3.003 3.043 3.153 3.153 3.133 3.123 3.033 2.953 2.873 2.813
781.246 2.823 2.763 2.693 2.653 2.563 2.443 2.353 2.293 2.213 2.193
800.536 2.223 2.133 2.113 2.063 2.023 1.993 1.903 1.893 1.853 1.803
819.826 1.853 1.903 1.903 1.923 1.803 1.733 1.823 1.803 1.763 1.713
839.116 1.703 1.763 1.723 1.733 1.723 1.633 1.563 1.563 1.623 1.593
858.406 1.543 1.533 1.493 1.473 1.443 1.373 1.373 1.363 1.3037 1.2496
877.696 1.2639 1.2994 1.3115 1.2879 1.2542 1.2373 1.2061 1.151 1.0708 1.0866
896.986 1.1099 1.092 1.0415 0.9962 1.0397 1.008 0.9803 1.0129 0.973 1.0058
916.276 1.0392 0.9714 0.9468 0.9311 0.9273 0.9034 0.8866 0.8701 0.8863 0.9207
935.566 0.8888 0.8799 0.8814 0.8737 0.9042 0.9338 0.9073 0.8977 0.9506 1.0031
954.856 0.9793 0.9948 1.0308 1.0826 1.1517 1.1552 1.1403 1.1202 1.1587 1.1295
974.146 1.0824 1.1064 1.0543 1.0238 1.0844 1.0859 1.0286 0.9964 0.9724 0.9365
993.436 0.8932 0.8459 0.8089 0.8163 0.8226 0.8349 0.8313 0.8109 0.7895 0.7886
1012.726 0.8193 0.8344 0.8096 0.7507 0.7591 0.7917 0.811 0.8558 0.9053 0.9372
1032.016 0.9258 0.9517 0.9995 1.0546 1.131 1.152 1.198 1.253 1.3112 1.403
1051.306 1.423 1.463 1.563 1.613 1.673 1.763 1.863 1.973 2.043 2.093
1070.596 2.143 2.143 2.053 2.013 1.993 1.943 1.943 1.913 1.813 1.693
1089.886 1.553 1.453 1.423 1.3509 1.2688 1.3096 1.3092 1.2498 1.1655 1.0559
1109.176 1.0743 1.0995 1.0186 0.9908 0.9734 0.9685 0.9989 0.9546 0.9172 0.8355
1128.467 0.7636 0.7914 0.8124 0.7551 0.7221 0.6951 0.619 0.5711 0.5602 0.6042
1147.757 0.6277 0.6135 0.6085 0.5917 0.5848 0.5713 0.5586 0.638 0.6683 0.6391
1167.047 0.6896 0.7094 0.7496 0.751 0.6957 0.7307 0.775 0.8238 0.7942 0.7717
1186.337 0.8332 0.868 0.9273 0.9767 1.016 1.0425 1.1074 1.2501 1.3023 1.423
1205.627 1.573 1.623 1.733 1.873 2.013 2.173 2.443 2.733 2.963 3.213
1224.917 3.543 3.903 4.303 4.753 5.143 5.513 5.863 6.153 6.423 6.653
1244.207 6.823 6.923 6.973 7.033 7.003 6.853 6.693 6.453 6.153 5.893
1263.497 5.653 5.393 5.183 4.973 4.783 4.603 4.403 4.203 3.963 3.703
1282.787 3.523 3.353 3.173 3.033 2.843 2.633 2.533 2.463 2.393 2.303
1302.077 2.213 2.153 2.113 2.063 2.013 2.003 1.953 1.933 1.893 1.773
1321.367 1.693 1.663 1.633 1.613 1.623 1.563 1.513 1.543 1.613 1.713
1340.657 1.813 1.893 2.013 2.213 2.423 2.603 2.753 2.983 3.223 3.423
1359.947 3.643 3.833 3.993 4.113 4.223 4.253 4.193 4.113 4.023 3.893
1379.237 3.743 3.603 3.413 3.233 3.103 2.963 2.843 2.763 2.643 2.513
1398.527 2.423 2.333 2.253 2.203 2.193 2.163 2.143 2.133 2.143 2.183
1417.817 2.253 2.353 2.453 2.553 2.663 2.813 2.983 3.133 3.313 3.563
1437.107 3.803 3.963 4.133 4.293 4.473 4.683 4.913 5.143 5.373 5.603
1456.397 5.883 6.133 6.363 6.683 7.043 7.373 7.713 8.133 8.643 9.183
1475.687 9.663 10.213 10.833 11.473 12.063 12.633 13.173 13.623 13.963 14.213
1494.977 14.383 14.413 14.273 13.993 13.583 13.103 12.483 11.713 10.953 10.093
1514.267 9.263 8.483 7.683 6.973 6.233 5.613 5.073 4.573 4.153 3.803
1533.557 3.473 3.183 3.023 2.863 2.643 2.453 2.313 2.153 2.063 1.953
1552.847 1.843 1.803 1.783 1.783 1.663 1.573 1.563 1.493 1.453 1.473
1572.137 1.463 1.453 1.463 1.443 1.443 1.453 1.423 1.463 1.513 1.503
1591.427 1.503 1.523 1.553 1.593 1.603 1.623 1.633 1.673 1.723 1.753
1610.717 1.803 1.863 1.943 2.023 2.023 2.013 2.043 2.083 2.073 2.053
1630.007 2.043 2.013 1.993 1.973 1.943 1.903 1.863 1.823 1.803 1.823
1649.297 1.813 1.843 1.923 1.883 1.883 1.963 2.013 2.083 2.183 2.293
1668.587 2.423 2.573 2.743 2.983 3.243 3.473 3.803 4.243 4.783 5.303
1687.877 5.883 6.673 7.583 8.613 9.873 11.263 12.743 14.453 15.903 17.243
1707.167 18.213 18.763 19.023 19.153 19.203 19.293 19.383 19.183 18.453 17.223
1726.457 15.653 13.963 12.283 10.783 9.413 8.163 7.143 6.203 5.373 4.713
1745.747 4.133 3.633 3.203 2.843 2.513 2.243 2.063 1.903 1.753 1.593
1765.037 1.473 1.403 1.3067 1.2176 1.1711 1.1082 1.0359 0.9902 0.9427 0.9169
1784.327 0.9294 0.8867 0.8623 0.8609 0.8517 0.8276 0.7802 0.7435 0.7312 0.7321
1803.617 0.7177 0.7021 0.7208 0.738 0.7238 0.7297 0.7302 0.712 0.6877 0.6598
1822.907 0.6523 0.6537 0.6635 0.6834 0.6903 0.6847 0.6668 0.6566 0.6423 0.6352
1842.197 0.6505 0.6496 0.6393 0.6259 0.609 0.6005 0.6241 0.6155 0.602 0.6063
1861.487 0.5719 0.5567 0.5856 0.6379 0.635 0.6035 0.6072 0.5759 0.5555 0.5813
1880.777 0.5842 0.581 0.5769 0.5805 0.5799 0.5762 0.5644 0.5593 0.5861 0.569
1900.067 0.5445 0.5576 0.5596 0.5558 0.589 0.6064 0.6157 0.6002 0.5828 0.5996
1919.357 0.578 0.5708 0.5579 0.5527 0.5783 0.5772 0.5422 0.5478 0.5864 0.572
1938.647 0.5563 0.5723 0.5917 0.5887 0.5622 0.552 0.5631 0.5548 0.5494 0.5654
1957.937 0.5507 0.5507 0.5611 0.5642 0.5703 0.579 0.5777 0.5494 0.5676 0.5834
1977.227 0.5912 0.5916 0.5778 0.5994 0.62 0.6001 0.5878 0.5889 0.568 0.5871
1996.517 0.6009 0.5684 0.5501 0.571 0.5988 0.5896 0.558 0.5564 0.5579 0.5506
2015.807 0.5868 0.5928 0.5749 0.5866 0.6031 0.6041 0.5685 0.5601 0.5795 0.6088
2035.097 0.618 0.5877 0.5436 0.5219 0.5559 0.575 0.5754 0.5638 0.5539 0.5537
2054.387 0.5396 0.5472 0.567 0.5951 0.612 0.5918 0.6006 0.5788 0.5714 0.5823
2073.677 0.5681 0.5715 0.5754 0.5922 0.6011 0.6068 0.6066 0.5991 0.5768 0.5936
2092.967 0.6305 0.6129 0.5631 0.5803 0.6223 0.606 0.5728 0.5853 0.5873 0.566
2112.257 0.6047 0.6191 0.6196 0.6214 0.6195 0.6108 0.5596 0.5208 0.5645 0.6052
2131.547 0.6031 0.6379 0.6302 0.6053 0.6108 0.5918 0.5727 0.5977 0.6174 0.5812
2150.837 0.5832 0.6093 0.6159 0.5998 0.5797 0.603 0.6076 0.5904 0.5934 0.5821
2170.127 0.5829 0.5985 0.6246 0.6282 0.6301 0.6183 0.5616 0.5582 0.604 0.6247
2189.417 0.6094 0.618 0.6555 0.6475 0.6311 0.6287 0.6189 0.6257 0.6203 0.6201
2208.707 0.596 0.5871 0.61 0.6485 0.6861 0.6585 0.626 0.6422 0.6465 0.6435
2227.997 0.6596 0.6646 0.6859 0.6998 0.6681 0.6428 0.6587 0.6439 0.6376 0.6491
2247.287 0.6473 0.6735 0.6824 0.6695 0.6879 0.6812 0.6752 0.6876 0.6646 0.6738
2266.577 0.6903 0.6884 0.6863 0.678 0.6727 0.6758 0.6465 0.6289 0.6641 0.7147
2285.868 0.721 0.7051 0.6263 0.6038 0.6938 0.7354 0.7002 0.6761 0.6791 0.6861
2305.158 0.7135 0.694 0.7302 0.7544 0.7281 0.7441 0.75 0.7409 0.7237 0.7311
2324.448 0.7477 0.7341 0.7256 0.7106 0.6924 0.6756 0.6935 0.7188 0.7198 0.7383
2343.738 0.7472 0.7278 0.696 0.6977 0.6941 0.6885 0.6877 0.705 0.7592 0.7512
2363.028 0.7444 0.7664 0.7632 0.7566 0.7313 0.7353 0.7257 0.701 0.7186 0.7053
2382.318 0.6869 0.6961 0.6807 0.6841 0.6926 0.6979 0.7161 0.7029 0.6793 0.635
2401.608 0.6061 0.6283 0.6672 0.7018 0.7399 0.7261 0.6865 0.677 0.6358 0.6591
2420.898 0.6849 0.6493 0.6467 0.6531 0.6524 0.6252 0.6101 0.6159 0.6393 0.6538
2440.188 0.6655 0.6722 0.6563 0.6437 0.6453 0.6629 0.6762 0.6894 0.6802 0.6689
2459.478 0.6408 0.6376 0.6676 0.6549 0.6738 0.6878 0.6669 0.6551 0.6725 0.6792
2478.768 0.6778 0.6883 0.6623 0.6484 0.6892 0.695 0.6412 0.6503 0.6638 0.6319
2498.058 0.6345 0.6356 0.6356 0.6582 0.6798 0.6783 0.6683 0.669 0.6456 0.6211
2517.348 0.6452 0.7029 0.7088 0.6735 0.6665 0.6666 0.6473 0.6514 0.6703 0.6819
2536.638 0.6764 0.6871 0.6865 0.6835 0.6947 0.7041 0.74 0.7248 0.699 0.7176
2555.928 0.7176 0.6928 0.6518 0.6534 0.6676 0.6509 0.6487 0.6687 0.7225 0.7373
2575.218 0.6987 0.6727 0.671 0.6717 0.6682 0.636 0.6534 0.6989 0.7064 0.7486
2594.508 0.7503 0.6986 0.7179 0.7161 0.7224 0.728 0.7257 0.7552 0.7165 0.7119
2613.798 0.7459 0.7209 0.6953 0.6932 0.6818 0.6956 0.711 0.724 0.7613 0.7678
2633.088 0.7326 0.724 0.7819 0.8207 0.7923 0.7665 0.7611 0.7641 0.7737 0.782
2652.378 0.7637 0.746 0.7292 0.7276 0.7416 0.7592 0.7525 0.7559 0.772 0.7865
2671.668 0.8318 0.8332 0.8436 0.8476 0.8226 0.8108 0.7656 0.7985 0.8538 0.8683
2690.958 0.8802 0.8466 0.862 0.879 0.8503 0.852 0.8865 0.897 0.8963 0.9316
2710.248 0.9551 0.9607 0.9739 0.9455 0.9128 0.8947 0.894 0.9004 0.8991 0.8767
2729.538 0.8812 0.919 0.9178 0.94 0.9363 0.9106 0.8758 0.8416 0.8471 0.8475
2748.828 0.8501 0.9234 0.9576 0.9227 0.9049 0.8767 0.8705 0.8865 0.9043 0.9358
2768.118 0.9454 0.8968 0.8777 0.8741 0.8915 0.8948 0.8551 0.8991 0.917 0.9289
2787.408 0.9271 0.9233 0.9509 0.9354 0.9079 0.8685 0.9082 1.0005 1 1.0269
2806.698 1.0597 1.042 1.0553 1.0385 1.0694 1.1209 1.1247 1.1603 1.1911 1.2259
2825.988 1.3215 1.353 1.3485 1.373 1.413 1.533 1.623 1.653 1.743 1.843
2845.278 1.933 1.993 2.073 2.203 2.343 2.483 2.613 2.773 2.903 3.083
2864.568 3.233 3.283 3.413 3.473 3.513 3.563 3.593 3.593 3.563 3.513
2883.858 3.473 3.463 3.363 3.303 3.303 3.263 3.183 3.173 3.173 3.203
2903.148 3.323 3.363 3.433 3.563 3.673 3.793 3.963 4.093 4.203 4.393
2922.438 4.563 4.663 4.743 4.883 4.933 4.983 5.103 5.073 5.013 4.983
2941.728 4.903 4.843 4.633 4.423 4.373 4.163 3.963 3.863 3.713 3.593
2961.018 3.433 3.223 3.023 2.873 2.773 2.613 2.443 2.323 2.223 2.133
2980.308 2.063 2.053 1.933 1.723 1.683 1.693 1.613 1.473 1.383 1.3434
2999.598 1.341 1.2708 1.2035 1.2578 1.2341 1.1944 1.166 1.1321 1.0977 1.0654
3018.888 1.0748 1.0788 1.0182 0.9567 0.9764 0.9594 0.9558 1.0343 1.009 0.944
3038.178 0.9119 0.9283 0.9229 0.8429 0.8241 0.8284 0.7938 0.8092 0.8439 0.8084
3057.468 0.786 0.7519 0.7454 0.7851 0.7908 0.7926 0.7306 0.6693 0.6599 0.6269
3076.758 0.6341 0.627 0.6367 0.6356 0.5923 0.5718 0.5521 0.5889 0.6301 0.5722
3096.048 0.5684 0.5952 0.5689 0.5834 0.4834 0.4921 0.5835 0.5297 0.5244 0.5447
3115.338 0.5232 0.4721 0.43796 0.4718 0.4883 0.5063 0.4777 0.41164 0.4306 0.42844
3134.628 0.44017 0.44374 0.39438 0.38778 0.41774 0.41615 0.37438 0.36445 0.37773 0.34414
3153.918 0.3403 0.3429 0.3225 0.3264 0.34439 0.39848 0.36971 0.3304 0.3247 0.3224
3173.208 0.352003 0.3127 0.3025 0.39035 0.4008 0.36948 0.3422 0.2826 0.3117 0.3364
3192.498 0.3101 0.2922 0.239 0.207 0.2818 0.3101 0.35448 0.39176 0.322 0.243
3211.788 0.243 0.24 0.235 0.37728 0.38085 0.3035 0.3134 0.3334 0.3264 0.2978
3231.078 0.3397 0.3186 0.2846 0.239 0.177 0.214 0.247 0.2751 0.3027 0.2561
3250.368 0.246 0.2734 0.225 0.177 0.199 0.2681 0.25 0.235 0.2998 0.38245
3269.658 0.35029 0.2847 0.2687 0.195 0.19 0.159 0.179 0.2705 0.2685 0.211
3288.948 0.21 0.189 0.123 0.172 0.2802 0.2915 0.222 0.231 0.3107 0.3041
3308.238 0.236 0.215 0.234 0.2732 0.2592 0.2807 0.3142 0.295 0.2937 0.226
3327.528 0.203 0.2876 0.34336 0.2992 0.235 0.2912 0.3366 0.2976 0.2884 0.3232
3346.818 0.3267 0.3064 0.24 0.241 0.3245 0.3398 0.3341 0.3185 0.3047 0.2908
3366.108 0.2641 0.3428 0.43691 0.43519 0.41568 0.39995 0.37695 0.357658 0.35107 0.356221
3385.398 0.44232 0.4657 0.40049 0.38295 0.40994 0.43954 0.42225 0.4631 0.5318 0.6384
3404.688 0.674 0.6575 0.6523 0.6694 0.7044 0.7347 0.7939 0.7833 0.7978 0.7774
3423.978 0.7145 0.7387 0.8569 0.9232 0.8668 0.9037 1.0516 1.1042 1.0361 1.0222
3443.269 1.0997 1.2611 1.363 1.3369 1.3265 1.363 1.443 1.483 1.523 1.543
3462.559 1.523 1.543 1.453 1.373 1.393 1.403 1.3051 1.1756 1.1306 1.1233
3481.849 1.0588 0.9827 0.9128 0.7846 0.6889 0.5772 0.4988 0.5 0.4696 0.36512
3501.139 0.36837 0.4727 0.46 0.355482 0.252 0.211 0.207 0.2902 0.41192 0.3334
3520.429 0.201 0.155 0.174 0.161 0.138 0.183 0.134 0.092 0.087 0.056
3539.719 0.078 0.08 0.046 0.052 0.057 0.099 0.208 0.182 0.083 0.054
3559.009 0.043 0.094 0.13 0.121 0.103 0.069 0.081 0.131 0.101 0.146
3578.299 0.253 0.191 0.143 0.118 0.137 0.199 0.178 0.156 0.156 0.143
3597.589 0.155 0.181 0.14 0.073 0.074 0.118 0.241 0.235 0.15 0.18
3616.879 0.2 0.19 0.184 0.198 0.218 0.226 0.23 0.15 0.139 0.167
3636.169 0.119 0.157 0.169 0.09 0.076 0.108 0.05 0.076 0.109 0.087
3655.459 0.126 0.134 0.156 0.096 0.03 0.128 0.127 0.141 0.13 0.033
3674.749 0.037 0.029 0.038 0.086 0.136 0.148 0.128 0.099 0.1 0.077
3694.039 0.111 0.131 0.072 0.125 0.177 0.172 0.138 0.118 0.114 0.084
3713.329 0.123 0.125 0.065 0.065 0 0.054 0.198 0.197 0.184 0.172
3732.619 0.159 0.197 0.105 0.089 0.111 0.123 0.204 0.199 0.202 0.176
3751.909 0.203 0.159 0.107 0.15 0.167 0.119 0.154 0.206 0.158 0.161
3771.199 0.103 0.101 0.16 0.117 0.119 0.205 0.153 0.126 0.157 0.083
3790.489 0.142 0.19 0.184 0.232 0.208 0.224 0.2745 0.232 0.19 0.184
3809.779 0.166 0.185 0.252 0.236 0.185 0.229 0.223 0.127 0.11 0.237
3829.069 0.277 0.213 0.186 0.143 0.175 0.2652 0.2727 0.221 0.198 0.256
3848.359 0.2751 0.241 0.206 0.157 0.234 0.2989 0.2746 0.25 0.222 0.168
3867.649 0.123 0.099 0.131 0.17 0.127 0.085 0.059 0.058 0.157 0.226
3886.939 0.172 0.138 0.183 0.2532 0.2681 0.246 0.212 0.249 0.3376 0.286
3906.229 0.204 0.211 0.147 0.09 0.138 0.219 0.2611 0.2561 0.238 0.26
3925.519 0.3304 0.302 0.2669 0.25 0.212 0.217 0.227 0.236 0.2813 0.235
3944.809 0.12 0.114 0.163 0.16 0.187 0.216 0.138 0.151 0.212 0.213
3964.099 0.3057 0.2882 0.166 0.173 0.201 0.227 0.2584 0.2647 0.218 0.2869
3983.389 0.356999 0.3273 0.3428 0.3208 0.3162 0.23 0.19 0.3003 0.3312 0.3148
##END=
