##TITLE=1,3,6-Heptatriene
##JCAMP-DX=4.24
##DATA TYPE=INFRARED SPECTRUM
##ORIGIN=NIST Mass Spectrometry Data Center
##OWNER=NIST Standard Reference Data Program
Collection (C) 2018 copyright by the U.S. Secretary of Commerce
on behalf of the United States of America. All rights reserved.
##CAS REGISTRY NO=1002-27-3
##MOLFORM=C 7 H 10
##$NIST SOURCE=MSDC-IR
##SPECTROMETER/DATA SYSTEM=HP-GC/MS/IRD
##STATE=gas
##XUNITS=1/CM
##YUNITS=ABSORBANCE
##XFACTOR=1.0
##YFACTOR=0.000001600
##DELTAX=4.0
##FIRSTX=550.0
##LASTX=3846.0
##FIRSTY=0.000490
##MAXX=3846
##MINX=550
##MAXY=0.016
##MINY=0
##NPOINTS=825
##XYDATA=(X++(Y..Y))
550.0 306 335 384 388 409 449 408 289 254 269
590.0 238 179 200 202 175 179 226 254 264 318
630.0 465 692 898 1069 1180 1173 1044 826 577 423
670.0 335 259 214 181 159 123 86 66 74 82
710.0 48 17 18 0 10 59 62 104 197 197
750.0 173 185 169 145 71 40 46 41 64 95
790.0 104 103 108 98 90 69 88 108 93 95
830.0 85 84 107 133 146 144 145 143 119 106
870.0 119 102 90 96 83 51 62 92 92 118
910.0 122 87 81 87 78 84 95 96 89 72
950.0 45 40 51 48 40 44 57 50 32 24
990.0 50 83 86 97 104 113 119 98 94 85
1030.0 87 108 90 101 126 96 41 43 95 103
1070.0 62 53 82 99 87 54 39 48 82 84
1110.0 69 77 83 79 87 87 60 66 103 109
1150.0 79 92 107 90 140 180 196 249 307 364
1190.0 424 478 489 490 516 595 685 816 1015 1270
1230.0 1564 1889 2161 2204 1995 1609 1149 768 520 376
1270.0 292 248 218 196 200 220 227 242 275 294
1310.0 297 312 353 423 525 617 688 689 605 528
1350.0 539 655 838 1060 1273 1391 1389 1269 1054 833
1390.0 683 617 578 523 442 340 269 249 251 275
1430.0 324 406 484 548 615 682 759 861 983 1118
1470.0 1279 1365 1321 1201 1016 805 602 429 297 239
1510.0 182 141 142 149 126 88 77 96 95 70
1550.0 65 80 94 68 65 73 67 71 64 48
1590.0 42 36 35 43 41 53 64 60 56 41
1630.0 39 65 59 41 50 72 74 36 28 42
1670.0 47 49 36 41 55 37 50 78 75 53
1710.0 39 52 63 46 31 37 47 42 38 36
1750.0 35 31 32 37 33 42 33 24 38 27
1790.0 29 31 29 39 37 32 29 28 28 31
1830.0 28 31 38 41 31 17 21 17 9 15
1870.0 19 22 24 20 26 33 37 26 19 30
1910.0 30 38 38 17 11 18 16 26 34 31
1950.0 30 29 26 23 28 34 33 34 41 45
1990.0 39 25 25 38 41 45 49 40 36 37
2030.0 37 31 21 34 42 33 25 39 48 50
2070.0 47 32 40 46 35 32 35 32 27 29
2110.0 21 16 19 18 15 19 20 11 11 9
2150.0 1 9 23 22 14 18 26 27 28 26
2190.0 18 17 14 16 16 10 10 2 10 16
2230.0 9 13 19 19 30 37 23 29 45 31
2270.0 10 9 19 29 37 34 30 35 35 31
2310.0 29 23 13 9 22 20 25 40 51 45
2350.0 29 37 41 36 25 28 45 44 29 25
2390.0 40 48 25 4 16 42 42 33 37 24
2430.0 8 16 30 31 12 13 16 16 24 9
2470.0 9 11 1 5 16 15 15 22 23 20
2510.0 12 2 4 8 3 25 26 13 20 27
2550.0 26 16 23 17 8 7 12 13 11 16
2590.0 31 39 26 14 33 48 36 30 35 43
2630.0 52 53 33 22 24 31 47 51 56 43
2670.0 43 69 77 70 62 67 70 68 45 28
2710.0 59 81 82 92 103 105 104 105 104 102
2750.0 106 109 105 105 102 110 108 113 127 125
2790.0 138 152 169 185 186 212 246 263 277 313
2830.0 357 419 454 488 573 677 839 1046 1320 1665
2870.0 2003 2281 2445 2525 2531 2498 2451 2444 2460 2499
2910.0 2579 2680 2828 3024 3242 3510 3831 4216 4711 5352
2950.0 6236 7485 8927 9936 10000 9102 7346 5281 3685 2661
2990.0 1952 1459 1097 857 709 601 549 531 523 502
3030.0 439 370 303 247 214 204 194 175 182 192
3070.0 175 131 128 141 122 124 122 116 128 131
3110.0 127 99 72 68 76 99 127 130 126 138
3150.0 133 117 112 118 109 131 161 148 125 132
3190.0 147 133 113 122 147 146 120 112 129 157
3230.0 148 128 118 120 123 100 88 72 55 72
3270.0 87 95 105 84 68 76 73 82 90 82
3310.0 79 63 47 44 52 65 73 85 62 61
3350.0 79 65 74 93 66 53 68 88 89 85
3390.0 93 107 91 50 49 72 76 73 58 63
3430.0 72 63 62 50 76 93 82 60 28 41
3470.0 40 43 58 75 82 67 78 100 82 58
3510.0 54 72 78 19 1 31 42 61 69 58
3550.0 68 89 111 117 105 78 61 63 84 103
3590.0 59 45 71 48 54 101 90 51 61 80
3630.0 98 119 102 83 104 108 83 72 78 74
3670.0 80 101 105 95 124 129 104 100 73 58
3710.0 117 139 120 121 112 117 107 87 102 147
3750.0 148 120 107 120 124 119 145 150 124 120
3790.0 130 124 121 108 128 126 126 165 144 93
3830.0 99 139 149 137 143
##END=
