##TITLE=1,3-Octadiene
##JCAMP-DX=4.24
##DATA TYPE=INFRARED SPECTRUM
##ORIGIN=NIST Mass Spectrometry Data Center
##OWNER=NIST Standard Reference Data Program
Collection (C) 2018 copyright by the U.S. Secretary of Commerce
on behalf of the United States of America. All rights reserved.
##CAS REGISTRY NO=1002-33-1
##MOLFORM=C 8 H 14
##$NIST SOURCE=MSDC-IR
##SPECTROMETER/DATA SYSTEM=HP-GC/MS/IRD
##STATE=gas
##XUNITS=1/CM
##YUNITS=ABSORBANCE
##XFACTOR=1.0
##YFACTOR=0.000002500
##DELTAX=4.0
##FIRSTX=550.0
##LASTX=3846.0
##FIRSTY=0.000460
##MAXX=3846
##MINX=550
##MAXY=0.025
##MINY=0
##NPOINTS=825
##XYDATA=(X++(Y..Y))
550.0 184 106 15 39 33 3 18 37 33 69
590.0 49 31 74 87 91 107 120 142 139 163
630.0 202 206 215 208 185 170 149 127 122 112
670.0 115 101 82 104 105 74 59 61 65 80
710.0 90 105 148 152 160 201 236 260 287 305
750.0 279 241 218 187 160 155 165 152 153 162
790.0 163 161 145 150 160 154 171 202 219 239
830.0 257 287 321 355 368 388 422 461 494 560
870.0 660 788 964 1172 1436 1756 2065 2276 2372 2342
910.0 2167 1929 1689 1480 1334 1263 1268 1307 1375 1437
950.0 1485 1514 1518 1531 1575 1662 1795 1987 2224 2470
990.0 2705 2868 2908 2816 2597 2289 1970 1669 1396 1180
1030.0 1001 854 724 612 521 460 416 368 336 320
1070.0 300 278 272 263 250 250 247 244 242 230
1110.0 209 191 182 166 146 143 154 136 121 137
1150.0 145 161 186 202 205 203 201 190 177 160
1190.0 154 153 148 158 166 157 134 126 128 135
1230.0 151 169 184 190 200 213 219 224 238 251
1270.0 262 291 308 311 326 355 383 405 414 412
1310.0 417 413 407 420 447 463 476 495 488 473
1350.0 445 409 393 384 378 395 431 470 491 502
1390.0 493 452 416 397 397 410 430 460 501 550
1430.0 626 720 822 919 1007 1066 1102 1116 1110 1063
1470.0 973 847 709 580 465 376 304 253 216 204
1510.0 191 178 180 184 188 187 191 197 196 190
1550.0 187 191 201 209 219 251 294 338 398 472
1590.0 570 689 797 859 860 793 681 575 524 518
1630.0 539 592 699 839 971 1028 977 821 591 356
1670.0 209 145 115 101 82 63 58 62 62 56
1710.0 54 54 58 57 59 69 74 71 73 81
1750.0 88 96 109 124 143 162 192 222 260 326
1790.0 438 596 700 743 732 628 486 376 290 229
1830.0 188 164 149 140 126 106 90 76 61 55
1870.0 55 51 47 47 45 43 38 36 38 37
1910.0 36 31 30 36 33 28 32 34 30 24
1950.0 21 20 16 14 15 15 13 14 16 17
1990.0 14 11 9 13 8 0 6 8 12 14
2030.0 12 11 15 20 22 23 18 12 11 12
2070.0 13 14 18 18 13 15 16 18 20 18
2110.0 18 15 18 16 18 21 20 14 11 15
2150.0 15 16 16 13 8 11 14 12 11 8
2190.0 3 2 12 16 12 15 16 18 13 11
2230.0 15 12 16 20 20 20 10 3 9 5
2270.0 8 13 16 19 14 10 10 12 20 18
2310.0 19 27 23 22 32 33 32 35 27 26
2350.0 27 31 35 30 29 31 26 26 25 20
2390.0 20 20 17 24 22 18 19 25 28 20
2430.0 19 19 15 11 7 9 13 11 10 6
2470.0 1 5 8 7 7 11 14 9 6 6
2510.0 7 13 15 14 18 21 21 28 30 28
2550.0 27 29 24 23 28 34 31 27 32 37
2590.0 38 40 33 31 35 38 42 41 42 48
2630.0 47 50 61 64 71 77 83 85 89 93
2670.0 83 86 95 97 101 97 86 86 89 90
2710.0 90 92 96 95 105 125 134 142 161 167
2750.0 162 169 179 182 186 194 203 221 234 248
2790.0 273 306 340 365 394 437 498 566 648 766
2830.0 926 1124 1373 1668 2005 2375 2774 3167 3516 3804
2870.0 4010 4182 4312 4317 4251 4197 4121 4141 4375 4822
2910.0 5465 6261 7171 8119 8983 9649 10000 9946 9495 8859
2950.0 8262 7863 7795 8028 8198 7955 7334 6369 5221 4290
2990.0 3677 3318 3167 3180 3251 3259 3174 2991 2685 2360
3030.0 2120 1932 1771 1626 1486 1348 1227 1128 1041 983
3070.0 974 1008 1076 1245 1500 1650 1625 1527 1268 896
3110.0 640 486 396 344 294 257 238 217 193 182
3150.0 176 167 158 151 145 141 135 130 122 108
3190.0 105 104 101 95 91 86 68 61 62 57
3230.0 51 45 39 40 39 28 25 26 23 21
3270.0 21 19 17 17 16 24 19 16 20 16
3310.0 21 16 5 12 15 15 13 17 24 16
3350.0 10 7 6 17 22 20 20 13 8 14
3390.0 16 14 10 9 18 15 9 12 21 17
3430.0 13 14 20 24 20 12 5 0 5 17
3470.0 21 27 25 17 23 31 22 10 12 10
3510.0 3 2 11 7 5 11 14 16 8 4
3550.0 8 3 5 18 34 30 19 11 14 23
3590.0 29 30 30 27 26 26 18 14 18 37
3630.0 42 34 29 22 30 34 34 37 33 34
3670.0 35 49 55 52 51 53 54 39 35 30
3710.0 30 40 37 37 40 31 33 28 27 45
3750.0 49 39 39 47 44 43 53 52 49 44
3790.0 28 25 32 41 42 42 36 35 42 42
3830.0 53 55 47 48 49
##END=
