##TITLE=p-Ethoxybenzaldehyde
##JCAMP-DX=4.24
##DATA TYPE=INFRARED SPECTRUM
##ORIGIN=EPA-IR VAPOR PHASE LIBRARY
##OWNER=SRD/NIST
Collection (C) 2018 copyright by the U.S. Secretary of Commerce
on behalf of the United States of America. All rights reserved.
##CAS REGISTRY NO=10031-82-0
##MOLFORM=C 9 H 10 O 2
##$NIST SOURCE=MSDC-IR
##STATE=gas
##XUNITS=1/CM
##YUNITS=ABSORBANCE
##XFACTOR=1.
##YFACTOR=0.001
##DELTAX=1.92898
##FIRSTX=549.8
##LASTX=4000.7
##FIRSTY=1.1627
##MAXX=4000.7
##MINX=549.759
##MAXY=0.148066
##MINY=0
##NPOINTS=1790
##XYDATA=(X++(Y..Y))
549.759 1.1627 1.1513 1.1616 1.206 1.406 1.306 1.386 1.556 1.436 1.1753
569.049 1.0835 1.286 1.486 1.676 1.766 1.946 2.416 3.126 3.536 4.076
588.339 4.776 5.376 6.236 7.206 8.056 8.656 9.156 9.896 10.546 11.096
607.628 11.526 12.006 12.416 12.196 11.806 11.226 10.366 9.426 8.246 6.946
626.918 5.986 5.326 4.716 4.486 4.696 5.076 5.296 5.476 5.766 6.186
646.208 6.436 6.356 6.256 5.846 5.246 4.816 4.516 3.966 3.176 2.556
665.498 2.096 1.686 1.426 1.316 1.246 1.256 1.276 1.175 1.1128 1.206
684.787 1.1381 1.001 1.0692 1.0606 0.9333 0.8394 0.9501 1.1612 1.246 1.186
704.077 1.108 1.0376 1.0888 1.1729 1.216 1.1455 1.0833 1.0697 1.1012 1.1598
723.367 1.164 1.246 1.276 1.266 1.376 1.546 1.706 2.046 2.276 2.476
742.657 2.726 2.986 3.106 3.056 3.146 3.166 3.046 3.056 3.076 3.066
761.947 3.176 3.276 3.276 3.356 3.426 3.426 3.386 3.276 3.346 3.456
781.236 3.506 3.616 3.796 4.096 4.296 4.636 5.416 6.126 6.636 7.246
800.526 8.116 9.276 10.346 11.406 12.806 14.366 15.856 17.486 19.356 21.256
819.816 22.986 24.536 25.836 26.976 27.736 28.116 28.566 28.986 29.216 29.366
839.106 29.586 29.816 29.856 29.366 28.266 26.716 24.636 22.136 19.466 16.636
858.395 13.736 11.256 9.326 7.726 6.836 6.196 5.566 5.056 4.526 4.136
877.685 4.066 4.036 3.876 3.746 3.816 4.136 4.226 4.526 4.986 5.366
896.975 6.026 6.696 7.306 7.636 7.776 7.936 7.986 8.036 8.096 7.946
916.265 8.056 8.206 7.956 7.686 7.556 7.186 6.616 6.036 5.366 4.726
935.555 4.216 3.816 3.396 3.096 2.826 2.466 2.266 2.166 2.066 2.006
954.844 1.976 1.886 1.716 1.546 1.396 1.446 1.566 1.546 1.516 1.556
974.134 1.576 1.696 1.686 1.766 1.906 2.046 2.236 2.406 2.676 2.776
993.424 2.966 3.086 3.326 3.726 4.086 4.326 4.486 4.786 5.186 5.676
1012.714 6.296 6.996 7.686 8.726 10.286 11.846 13.616 15.696 17.886 20.226
1032.003 22.786 25.276 27.336 29.196 30.626 30.976 30.456 29.846 28.596 26.716
1051.293 24.346 21.736 19.306 17.276 15.546 13.766 12.046 10.786 9.906 8.986
1070.583 8.636 8.496 7.726 7.566 8.426 8.976 9.686 10.226 10.486 11.596
1089.873 12.286 12.426 12.816 13.026 12.996 13.086 13.166 13.376 13.546 13.846
1109.163 14.416 14.246 13.496 13.236 12.886 12.386 11.876 11.256 10.656 9.576
1128.452 8.866 8.806 8.876 9.086 9.436 9.976 11.276 13.316 16.116 20.796
1147.742 28.546 40.106 55.436 72.216 85.726 93.196 95.636 95.176 92.226 84.106
1167.032 69.886 52.406 36.366 24.906 17.946 14.176 12.116 11.026 10.546 10.616
1186.322 11.296 12.536 14.206 16.406 19.146 22.176 25.716 29.676 33.256 36.446
1205.611 39.296 41.276 42.876 44.556 45.986 46.856 47.886 49.736 52.706 56.756
1224.901 61.476 66.946 72.416 78.026 84.326 90.796 97.286 103.776 109.646 114.666
1244.191 118.726 121.766 123.646 124.116 122.526 118.876 113.126 105.096 95.246 84.386
1263.481 73.156 61.976 51.376 42.136 34.706 29.396 25.876 23.466 22.116 21.576
1282.771 21.686 22.446 23.656 25.546 28.196 31.366 35.046 38.656 41.636 43.836
1302.060 45.006 45.116 43.896 41.316 37.776 33.626 29.296 25.266 21.746 18.676
1321.350 16.116 14.016 12.316 10.946 9.816 8.936 8.256 7.666 7.236 6.986
1340.640 6.776 6.646 6.546 6.426 6.326 6.196 6.046 5.886 5.776 5.646
1359.930 5.536 5.536 5.636 5.846 6.146 6.506 6.926 7.516 8.366 9.506
1379.219 10.936 12.536 14.196 15.776 17.256 18.656 19.806 20.516 20.626 20.086
1398.509 19.076 17.776 16.276 14.686 13.066 11.376 9.916 8.976 8.546 8.476
1417.799 8.606 8.736 8.836 8.876 8.816 8.676 8.446 8.056 7.556 7.016
1437.089 6.486 6.056 5.756 5.566 5.456 5.376 5.276 5.256 5.326 5.326
1456.378 5.306 5.326 5.376 5.506 5.786 6.236 6.906 7.816 9.096 10.756
1475.668 12.406 13.666 14.166 14.286 14.566 14.846 14.806 14.666 15.206 17.036
1494.958 20.426 25.326 31.206 37.346 42.436 45.506 46.496 45.746 43.476 39.346
1514.248 33.406 26.336 19.556 14.526 11.056 8.986 7.746 6.926 6.426 6.156
1533.538 5.946 5.846 5.876 5.956 6.026 6.086 6.246 6.376 6.616 6.976
1552.827 7.416 7.986 8.696 9.726 10.946 12.516 14.696 17.366 20.616 24.586
1572.117 29.096 33.726 38.336 42.636 46.466 50.176 53.996 58.196 62.776 68.226
1591.407 75.406 84.496 94.666 104.116 111.136 114.766 114.636 110.776 103.446 92.986
1610.697 80.476 66.976 54.346 43.086 33.746 26.686 21.326 17.446 14.576 12.446
1629.986 10.756 9.496 8.606 7.836 7.226 6.766 6.416 6.216 6.056 5.906
1649.276 5.806 5.736 5.796 5.916 6.026 6.186 6.486 6.946 7.436 7.936
1668.566 8.576 9.326 10.046 10.736 11.446 12.166 12.866 13.646 14.566 15.606
1687.856 16.926 18.526 20.496 22.916 26.036 29.746 34.296 40.526 48.176 58.856
1707.146 73.206 91.456 112.256 131.646 144.326 148.066 146.136 142.526 135.146 118.836
1726.435 93.406 67.066 46.306 32.746 23.886 17.996 14.096 11.196 9.076 7.446
1745.725 6.236 5.406 4.766 4.316 4.006 3.726 3.506 3.306 3.186 3.106
1765.015 3.026 2.946 2.846 2.716 2.586 2.486 2.396 2.286 2.176 2.076
1784.305 2.046 2.026 2.016 2.026 1.976 1.946 1.946 1.946 1.926 1.876
1803.594 1.846 1.846 1.826 1.766 1.726 1.716 1.726 1.676 1.636 1.606
1822.884 1.556 1.526 1.566 1.576 1.526 1.536 1.536 1.536 1.606 1.596
1842.174 1.536 1.556 1.556 1.526 1.526 1.536 1.506 1.496 1.466 1.436
1861.464 1.436 1.456 1.496 1.476 1.506 1.556 1.586 1.636 1.716 1.776
1880.754 1.786 1.886 2.016 2.106 2.186 2.226 2.216 2.236 2.296 2.296
1900.043 2.276 2.306 2.236 2.206 2.196 2.086 1.986 1.946 1.926 1.866
1919.333 1.786 1.766 1.796 1.816 1.816 1.806 1.816 1.806 1.806 1.806
1938.623 1.806 1.796 1.786 1.826 1.796 1.756 1.806 1.836 1.816 1.796
1957.913 1.746 1.696 1.716 1.796 1.856 1.856 1.886 1.866 1.856 1.906
1977.202 1.906 1.926 1.956 1.926 1.926 1.926 1.936 1.976 2.016 2.066
1996.492 2.096 2.076 2.096 2.166 2.276 2.286 2.216 2.236 2.236 2.136
2015.782 2.096 1.986 1.886 1.866 1.826 1.776 1.706 1.666 1.626 1.636
2035.072 1.636 1.646 1.706 1.696 1.626 1.626 1.636 1.606 1.606 1.586
2054.362 1.586 1.596 1.586 1.556 1.546 1.496 1.406 1.396 1.486 1.526
2073.651 1.466 1.386 1.356 1.336 1.356 1.376 1.306 1.266 1.236 1.196
2092.941 1.1663 1.1175 1.0863 1.0651 1.0271 0.9722 0.9197 0.9239 0.9648 0.9161
2112.231 0.8254 0.8067 0.8142 0.7856 0.7294 0.7525 0.752 0.7065 0.7192 0.7886
2131.521 0.7925 0.6825 0.6898 0.7766 0.7864 0.8088 0.7585 0.7249 0.739 0.66
2150.810 0.6782 0.7333 0.7037 0.6745 0.6281 0.6328 0.6611 0.641 0.6248 0.6223
2170.100 0.5907 0.5218 0.5302 0.5733 0.5527 0.5155 0.5163 0.5186 0.4833 0.4858
2189.390 0.5179 0.4804 0.4124 0.4324 0.5084 0.5527 0.6032 0.5905 0.5783 0.5595
2208.680 0.5149 0.5856 0.602 0.5808 0.5808 0.622 0.6034 0.5733 0.6363 0.6469
2227.970 0.5891 0.5765 0.6206 0.6116 0.6237 0.6207 0.6205 0.6758 0.7152 0.7516
2247.259 0.7771 0.7729 0.7856 0.7723 0.8459 0.9225 0.8503 0.8352 0.8717 0.9135
2266.549 0.9702 0.9576 0.9066 0.9218 0.9394 0.9124 0.8826 0.875 0.8929 0.9218
2285.839 0.9144 0.9059 0.8862 0.785 0.7499 0.7833 0.8054 0.7998 0.7789 0.7641
2305.129 0.7271 0.7473 0.8368 0.8282 0.8096 0.8549 0.853 0.847 0.868 0.8643
2324.418 0.8358 0.8223 0.7651 0.7054 0.6717 0.5941 0.5437 0.5701 0.5458 0.4827
2343.708 0.5259 0.577 0.6084 0.6231 0.6207 0.6086 0.5647 0.5768 0.5934 0.5948
2362.998 0.6281 0.6643 0.6729 0.6899 0.7175 0.6764 0.7436 0.8516 0.8004 0.7666
2382.288 0.7602 0.7551 0.7847 0.8191 0.8598 0.9336 0.9898 1.0477 1.1036 1.1107
2401.578 1.1665 1.256 1.316 1.336 1.326 1.336 1.356 1.376 1.426 1.396
2420.867 1.336 1.326 1.306 1.266 1.216 1.236 1.266 1.236 1.246 1.326
2440.157 1.356 1.266 1.256 1.386 1.476 1.546 1.546 1.526 1.556 1.536
2459.447 1.566 1.556 1.466 1.416 1.376 1.376 1.396 1.376 1.366 1.416
2478.737 1.446 1.466 1.486 1.496 1.466 1.456 1.496 1.556 1.566 1.516
2498.026 1.536 1.536 1.546 1.606 1.646 1.676 1.706 1.776 1.816 1.766
2517.316 1.686 1.616 1.566 1.556 1.486 1.396 1.466 1.586 1.576 1.596
2536.606 1.736 1.796 1.846 1.936 2.046 2.116 2.116 2.126 2.266 2.366
2555.896 2.356 2.326 2.236 2.296 2.246 2.176 2.206 2.136 2.106 2.076
2575.186 1.986 2.066 2.076 1.976 1.986 2.006 2.006 1.966 1.926 1.946
2594.475 1.966 1.966 1.976 1.916 1.836 1.786 1.746 1.736 1.646 1.546
2613.765 1.596 1.636 1.576 1.536 1.526 1.546 1.526 1.476 1.486 1.536
2633.055 1.476 1.416 1.476 1.546 1.526 1.486 1.476 1.446 1.396 1.466
2652.345 1.606 1.696 1.766 1.766 1.836 2.016 2.156 2.326 2.496 2.706
2671.634 2.966 3.286 3.626 3.876 4.236 4.606 4.916 5.366 5.766 6.106
2690.924 6.516 6.986 7.466 7.976 8.746 9.626 10.566 11.626 12.786 14.186
2710.214 15.666 17.186 18.786 20.336 21.736 22.966 23.946 24.386 24.276 23.736
2729.504 22.886 21.716 20.236 18.626 16.896 15.156 13.566 12.046 10.726 9.716
2748.794 8.796 8.016 7.466 7.046 6.726 6.496 6.396 6.346 6.356 6.496
2768.083 6.756 7.046 7.376 7.796 8.336 8.956 9.636 10.376 11.166 11.966
2787.373 12.686 13.416 14.026 14.496 14.976 15.346 15.596 15.836 15.976 16.096
2806.663 16.306 16.526 16.636 16.656 16.646 16.386 15.926 15.406 14.766 13.916
2825.953 12.946 12.026 11.046 9.976 9.036 8.206 7.486 6.936 6.416 5.966
2845.242 5.656 5.256 5.006 4.936 4.846 4.826 4.806 4.746 4.776 4.946
2864.532 5.186 5.476 5.786 6.156 6.556 7.026 7.566 8.026 8.466 8.946
2883.822 9.286 9.616 9.956 10.136 10.256 10.386 10.586 10.816 10.906 10.996
2903.112 11.086 11.336 11.536 11.576 11.676 11.776 11.796 11.756 11.746 11.726
2922.401 11.716 11.726 11.836 12.006 12.326 12.846 13.306 13.716 14.286 14.756
2941.691 15.136 15.286 15.216 14.836 14.166 13.446 12.576 11.766 11.056 10.436
2960.981 10.066 9.956 10.166 10.626 11.326 12.256 13.206 14.326 15.696 17.156
2980.271 18.566 19.896 21.076 21.916 22.396 22.496 22.426 22.116 21.076 19.316
2999.561 17.446 15.746 14.276 12.856 11.426 10.256 9.316 8.486 7.786 7.276
3018.850 6.976 6.816 6.696 6.646 6.686 6.726 6.746 6.856 6.946 6.876
3038.140 6.706 6.516 6.146 5.676 5.246 4.876 4.506 4.166 3.896 3.686
3057.430 3.686 3.676 3.766 3.936 4.156 4.476 4.686 4.916 5.216 5.546
3076.720 5.686 5.666 5.626 5.506 5.296 4.956 4.586 4.306 4.336 4.406
3096.009 4.376 4.316 4.226 4.236 4.096 3.856 3.726 3.526 3.246 2.996
3115.299 2.776 2.616 2.466 2.396 2.196 1.916 1.756 1.586 1.416 1.316
3134.589 1.236 1.1686 1.166 1.1317 1.0841 1.1061 1.0542 1.0332 1.0146 0.8859
3153.879 0.9196 1.0108 0.9744 0.9245 0.9251 0.9304 0.8444 0.771 0.7654 0.7344
3173.169 0.6819 0.7512 0.7712 0.7843 0.8716 0.7934 0.7601 0.7869 0.7699 0.735
3192.458 0.7734 0.6568 0.5429 0.5958 0.6754 0.7755 0.8154 0.7898 0.7861 0.7577
3211.748 0.7265 0.6281 0.5389 0.5378 0.4611 0.5487 0.5517 0.5536 0.5452 0.4465
3231.038 0.5091 0.5908 0.5329 0.4263 0.3874 0.2992 0.3278 0.26433 0.26548 0.3869
3250.328 0.3854 0.3566 0.26557 0.20398 0.3069 0.4546 0.4198 0.3391 0.28074 0.28253
3269.617 0.3495 0.27246 0.23281 0.21739 0.1132 0.24161 0.4368 0.3778 0.27245 0.3195
3288.907 0.3837 0.3767 0.3524 0.3245 0.3056 0.28494 0.27921 0.3895 0.4536 0.5259
3308.197 0.541 0.3986 0.3907 0.5766 0.5659 0.4043 0.374 0.4231 0.4218 0.3702
3327.487 0.3618 0.28229 0.3491 0.5361 0.4823 0.4355 0.4561 0.4191 0.4285 0.3864
3346.777 0.367 0.3771 0.4017 0.3906 0.3573 0.3671 0.3225 0.26394 0.24053 0.26347
3366.066 0.277 0.3621 0.4701 0.5433 0.5041 0.4316 0.6168 0.706 0.6159 0.776
3385.356 1.0361 1.016 1.0305 1.196 1.256 1.306 1.326 1.376 1.526 1.846
3404.646 2.076 2.076 2.126 2.156 2.176 2.166 2.136 2.096 1.836 1.656
3423.936 1.626 1.526 1.406 1.226 1.0933 1.0358 0.9309 0.8375 0.7509 0.5922
3443.225 0.559 0.6034 0.4782 0.4527 0.4977 0.4675 0.3883 0.35 0.3714 0.27099
3462.515 0.24735 0.18198 0.193992 0.2908 0.17 0.1046 0.071 0.045 0.0965 0.20903
3481.805 0.2866 0.21572 0.26243 0.4244 0.4181 0.2864 0.2974 0.3568 0.4336 0.4671
3501.095 0.3396 0.23304 0.3122 0.4096 0.26548 0.17737 0.24203 0.21103 0.23056 0.24905
3520.385 0.26212 0.25759 0.18257 0.162 0.1529 0.22557 0.26726 0.20149 0.1541 0.192521
3539.674 0.1679 0.0991 0.18734 0.21413 0.3004 0.3722 0.19046 0.1245 0.24056 0.3441
3558.964 0.2957 0.3585 0.4043 0.23123 0.2484 0.3412 0.3279 0.21939 0.1619 0.19686
3578.254 0.23395 0.22495 0.21404 0.319 0.2742 0.22073 0.21138 0.122 0.168 0.22069
3597.544 0.24663 0.18018 0.1097 0.153 0.1373 0.1677 0.194005 0.1656 0.1239 0.1433
3616.833 0.3338 0.3709 0.3726 0.3411 0.1094 0.1239 0.3039 0.3568 0.25816 0.2109
3636.123 0.3295 0.24039 0.17877 0.3196 0.3577 0.2994 0.23601 0.21663 0.3228 0.4341
3655.413 0.4528 0.3062 0.24143 0.26308 0.1548 0.1712 0.2469 0.2073 0.1668 0.20249
3674.703 0.1089 0.1364 0.3144 0.2898 0.2734 0.3775 0.3166 0.22838 0.187078 0.1238
3693.993 0.1272 0.11 0 0.085 0.2889 0.3182 0.3006 0.3088 0.4097 0.3692
3713.282 0.19734 0.21537 0.27654 0.24909 0.21261 0.3243 0.3825 0.26616 0.28295 0.3431
3732.572 0.3457 0.28342 0.27071 0.27826 0.24553 0.24713 0.22594 0.21984 0.2988 0.3503
3751.862 0.3152 0.25856 0.20197 0.1607 0.189953 0.24778 0.185702 0.1312 0.1634 0.081
3771.152 0.081 0.1819 0.1093 0.1219 0.24307 0.24362 0.2913 0.3835 0.3545 0.3243
3790.441 0.3921 0.3755 0.27218 0.3097 0.3801 0.28203 0.27244 0.3804 0.3398 0.190151
3809.731 0.2046 0.3342 0.3546 0.3402 0.3355 0.3602 0.2962 0.20335 0.25314 0.22867
3829.021 0.193506 0.1588 0.27208 0.4703 0.4227 0.3383 0.3367 0.24055 0.1216 0.26352
3848.311 0.3372 0.2608 0.21861 0.26556 0.26342 0.195147 0.1688 0.1746 0.20506 0.1672
3867.601 0.1582 0.22561 0.3413 0.3951 0.3283 0.26889 0.243 0.24644 0.3234 0.23826
3886.890 0.1308 0.1068 0.188266 0.24609 0.1594 0.185835 0.185305 0.22488 0.186419 0.28421
3906.180 0.4555 0.3843 0.3712 0.3608 0.2873 0.25636 0.26438 0.20299 0.3664 0.4432
3925.470 0.23115 0.1043 0.0934 0.19796 0.356 0.3555 0.3078 0.448 0.4654 0.3854
3944.760 0.28451 0.26835 0.25149 0.2083 0.3238 0.26654 0.185687 0.21898 0.25022 0.20636
3964.049 0.21805 0.3435 0.3631 0.3129 0.2926 0.3337 0.314 0.2028 0.22198 0.3339
3983.339 0.27547 0.19837 0.25968 0.3546 0.313 0.24314 0.22794 0.22129 0.3976 0.553
##END=
