##TITLE=2,2-Dimethyltetrahydrofuran
##JCAMP-DX=4.24
##DATA TYPE=INFRARED SPECTRUM
##ORIGIN=NIST Mass Spectrometry Data Center
##OWNER=NIST Standard Reference Data Program
Collection (C) 2018 copyright by the U.S. Secretary of Commerce
on behalf of the United States of America. All rights reserved.
##CAS REGISTRY NO=1003-17-4
##MOLFORM=C 6 H 12 O
##$NIST SOURCE=MSDC-IR
##SPECTROMETER/DATA SYSTEM=HP-GC/MS/IRD
##STATE=gas
##XUNITS=1/CM
##YUNITS=ABSORBANCE
##XFACTOR=1.0
##YFACTOR=0.000007100
##DELTAX=4.0
##FIRSTX=550.0
##LASTX=3846.0
##FIRSTY=0.000369
##MAXX=3846
##MINX=550
##MAXY=0.071
##MINY=0
##NPOINTS=825
##XYDATA=(X++(Y..Y))
550.0 52 28 9 10 6 2 15 20 9 13
590.0 28 33 33 39 59 63 61 68 83 84
630.0 82 81 71 60 53 44 40 34 27 41
670.0 40 29 38 50 41 40 52 49 43 51
710.0 59 64 86 102 110 115 145 177 192 214
750.0 223 217 210 197 194 194 186 176 181 188
790.0 193 206 222 242 270 328 394 463 539 614
830.0 692 761 797 796 775 737 677 609 556 515
870.0 473 446 423 403 403 404 410 429 451 481
910.0 505 523 545 538 495 458 428 387 348 313
950.0 285 257 241 241 238 233 231 236 261 293
990.0 332 376 414 458 515 587 687 832 1057 1401
1030.0 1898 2536 3231 3875 4376 4704 4791 4560 4104 3530
1070.0 2814 2063 1455 1054 828 713 659 640 653 696
1110.0 776 894 1040 1209 1387 1569 1736 1860 1936 1949
1150.0 1888 1763 1590 1398 1200 1010 857 741 655 604
1190.0 580 580 613 682 774 883 1006 1120 1203 1249
1230.0 1273 1271 1237 1184 1122 1054 983 917 840 769
1270.0 709 657 628 629 652 683 701 719 730 699
1310.0 647 587 504 419 351 312 314 358 442 569
1350.0 729 887 1011 1181 1485 1676 1532 1408 1425 1225
1390.0 932 744 533 347 235 177 161 167 188 220
1430.0 275 356 455 557 656 743 807 860 868 808
1470.0 720 627 529 434 348 270 211 170 142 124
1510.0 108 97 91 83 74 68 61 58 60 57
1550.0 50 47 52 52 50 48 48 42 39 42
1590.0 40 39 43 48 44 43 46 47 49 53
1630.0 55 58 60 58 55 64 72 66 63 62
1670.0 61 60 64 65 59 54 56 53 45 40
1710.0 41 43 44 39 35 33 32 33 32 28
1750.0 26 29 32 37 38 37 39 39 41 44
1790.0 45 40 40 39 40 40 37 37 36 34
1830.0 34 33 34 37 40 41 41 39 41 48
1870.0 47 47 52 58 64 65 64 66 68 62
1910.0 61 60 55 50 50 44 44 46 47 50
1950.0 50 49 49 51 52 51 52 49 47 47
1990.0 45 43 43 44 44 40 33 30 27 24
2030.0 25 25 25 28 31 30 31 34 38 39
2070.0 42 46 51 52 56 58 55 55 58 57
2110.0 52 43 41 38 31 28 25 25 30 25
2150.0 21 23 20 18 20 20 20 19 17 20
2190.0 25 26 23 23 27 33 35 33 32 34
2230.0 33 32 31 30 26 26 30 33 33 29
2270.0 29 35 38 35 34 39 40 37 36 37
2310.0 37 35 32 29 32 34 30 29 28 27
2350.0 27 30 31 33 32 29 26 25 25 22
2390.0 22 23 21 19 16 16 18 15 9 7
2430.0 10 12 12 13 9 9 14 12 11 11
2470.0 8 5 5 4 5 8 8 4 6 14
2510.0 15 13 10 9 11 15 16 17 19 19
2550.0 20 24 29 32 31 32 33 34 35 34
2590.0 35 37 40 39 41 49 52 53 53 56
2630.0 62 63 68 68 67 67 67 76 81 94
2670.0 109 118 125 133 137 134 129 123 119 115
2710.0 107 102 103 109 114 117 126 130 133 134
2750.0 136 143 144 146 152 164 178 192 207 228
2790.0 255 289 325 366 425 491 558 638 727 826
2830.0 942 1079 1229 1403 1605 1822 2066 2317 2547 2761
2870.0 2967 3162 3294 3352 3364 3340 3301 3258 3202 3157
2910.0 3142 3181 3268 3383 3519 3692 3883 4041 4204 4481
2950.0 4951 5651 6539 7506 8368 9154 9907 10000 8951 7591
2990.0 6459 5122 3694 2536 1750 1257 950 750 614 514
3030.0 437 377 331 292 258 228 201 187 182 172
3070.0 160 155 147 141 135 130 130 126 124 117
3110.0 112 108 96 93 95 98 96 93 96 95
3150.0 86 80 77 80 89 92 91 93 96 98
3190.0 99 97 92 88 88 82 75 73 68 59
3230.0 49 44 42 35 30 26 20 18 20 20
3270.0 18 21 27 32 25 19 25 28 27 34
3310.0 32 30 36 36 34 33 37 37 30 24
3350.0 19 15 17 19 19 22 20 19 23 24
3390.0 22 20 20 24 25 19 15 13 13 13
3430.0 15 17 10 3 6 11 10 4 4 7
3470.0 5 5 5 5 11 12 10 10 8 1
3510.0 3 8 5 1 12 19 16 20 19 18
3550.0 15 16 14 13 15 6 0 11 17 12
3590.0 15 18 10 6 5 13 17 10 8 13
3630.0 8 3 6 12 9 11 10 9 16 23
3670.0 21 16 17 17 13 6 3 8 12 11
3710.0 20 23 18 16 21 31 27 25 24 24
3750.0 34 31 29 26 23 22 25 29 22 21
3790.0 32 38 33 27 25 26 34 44 46 41
3830.0 35 36 37 39 34
##END=
