##TITLE=4-Methylenecyclohexylmethanol
##JCAMP-DX=4.24
##DATA TYPE=INFRARED SPECTRUM
##ORIGIN=NIST Mass Spectrometry Data Center
##OWNER=NIST Standard Reference Data Program
Collection (C) 2018 copyright by the U.S. Secretary of Commerce
on behalf of the United States of America. All rights reserved.
##CAS REGISTRY NO=1004-24-6
##MOLFORM=C 8 H 14 O
##$NIST SOURCE=MSDC-IR
##SPECTROMETER/DATA SYSTEM=HP-GC/MS/IRD
##STATE=gas
##XUNITS=1/CM
##YUNITS=ABSORBANCE
##XFACTOR=1.0
##YFACTOR=0.000002800
##DELTAX=4.0
##FIRSTX=550.0
##LASTX=3846.0
##FIRSTY=0.000370
##MAXX=3846
##MINX=550
##MAXY=0.028
##MINY=0
##NPOINTS=825
##XYDATA=(X++(Y..Y))
550.0 132 83 74 109 110 113 174 197 190 182
590.0 153 140 131 122 141 143 125 142 160 152
630.0 124 110 143 148 135 181 204 170 143 141
670.0 115 89 80 63 46 35 29 35 32 11
710.0 1 15 1 6 25 20 23 14 1 20
750.0 38 40 49 58 60 61 51 35 39 41
790.0 46 67 74 101 141 168 173 169 160 133
830.0 123 115 118 117 126 158 195 257 347 489
870.0 694 949 1291 1679 2041 2317 2271 1968 1612 1226
910.0 896 666 546 489 482 515 544 572 611 640
950.0 685 756 848 953 1047 1123 1161 1181 1250 1406
990.0 1588 1713 1786 1847 1849 1823 1903 2119 2471 2909
1030.0 3290 3438 3334 3038 2548 2006 1649 1481 1426 1467
1070.0 1536 1599 1658 1676 1596 1439 1249 1044 865 723
1110.0 614 548 548 600 672 725 729 702 633 551
1150.0 511 521 546 557 540 540 560 586 624 657
1190.0 709 801 910 1056 1269 1606 2180 3007 3894 4554
1230.0 4874 4843 4518 4166 3877 3464 2914 2319 1728 1264
1270.0 1005 867 768 694 643 618 598 574 569 565
1310.0 556 546 540 545 541 536 533 533 561 612
1350.0 690 813 991 1206 1371 1459 1470 1390 1276 1153
1390.0 1005 864 737 629 550 502 484 505 557 633
1430.0 742 892 1069 1248 1380 1430 1419 1344 1178 974
1470.0 799 651 515 400 305 234 198 174 152 137
1510.0 124 113 110 102 92 89 89 91 92 88
1550.0 87 87 86 78 83 91 89 86 86 86
1590.0 90 92 88 95 105 119 142 170 205 274
1630.0 377 520 701 873 975 990 909 741 536 374
1670.0 285 235 212 202 182 164 161 172 187 208
1710.0 241 273 312 368 435 542 719 1010 1488 2157
1750.0 2789 3097 3008 2509 1751 1134 793 619 534 477
1790.0 437 382 321 259 203 160 133 117 104 89
1830.0 79 70 59 55 51 43 38 34 34 38
1870.0 40 43 44 43 46 50 53 53 45 38
1910.0 36 33 31 20 22 26 20 20 20 18
1950.0 16 14 19 23 22 23 24 25 25 19
1990.0 22 30 29 26 22 26 29 29 31 33
2030.0 41 40 33 30 28 25 27 27 31 29
2070.0 25 27 32 33 33 37 38 31 30 37
2110.0 35 34 30 30 28 24 22 18 18 21
2150.0 26 20 14 20 21 11 1 5 11 14
2190.0 15 10 11 16 14 15 21 21 19 15
2230.0 13 17 18 18 24 26 20 19 20 21
2270.0 21 21 20 20 20 23 22 16 20 25
2310.0 17 16 21 22 14 11 14 13 9 10
2350.0 16 21 24 23 18 9 10 13 13 19
2390.0 16 11 12 8 6 8 14 18 17 19
2430.0 22 18 18 28 28 27 24 20 20 23
2470.0 23 22 13 5 6 10 14 15 12 6
2510.0 5 3 1 1 10 18 17 17 18 14
2550.0 9 19 23 16 7 4 20 30 26 27
2590.0 26 26 29 32 40 41 47 57 59 62
2630.0 70 78 79 75 94 102 95 101 108 102
2670.0 105 104 95 98 110 116 111 114 121 132
2710.0 142 147 146 154 162 162 168 176 180 193
2750.0 199 199 211 214 216 232 246 252 265 283
2790.0 294 302 321 337 354 380 429 493 577 713
2830.0 900 1149 1464 1837 2281 2759 3215 3626 3952 4147
2870.0 4219 4173 4019 3817 3634 3521 3523 3659 3930 4340
2910.0 4918 5717 6765 7918 8885 9590 10000 9895 9186 8303
2950.0 7516 6535 5349 4217 3194 2353 1783 1447 1284 1185
2990.0 1083 970 816 606 423 331 280 241 221 210
3030.0 207 207 218 237 256 296 359 445 568 722
3070.0 880 935 892 872 785 594 405 269 194 139
3110.0 93 79 80 77 71 58 58 54 42 47
3150.0 38 26 24 20 17 27 36 27 24 28
3190.0 23 23 26 15 17 22 18 12 21 21
3230.0 6 5 0 5 14 4 5 17 14 14
3270.0 15 17 33 41 25 24 23 17 33 30
3310.0 23 29 43 52 46 34 27 42 49 48
3350.0 60 59 43 34 42 54 57 53 59 51
3390.0 40 45 51 48 42 49 60 57 37 41
3430.0 52 57 62 53 46 54 63 64 71 75
3470.0 82 87 91 96 104 112 99 98 99 81
3510.0 81 90 81 59 57 84 92 79 75 75
3550.0 68 71 84 82 76 75 83 82 83 92
3590.0 93 90 87 78 80 96 100 103 121 138
3630.0 141 156 174 202 272 350 448 561 665 740
3670.0 765 747 676 564 440 320 246 194 159 140
3710.0 120 113 110 108 106 102 92 83 89 107
3750.0 109 107 107 104 108 101 93 104 113 104
3790.0 96 94 101 116 109 110 121 111 105 116
3830.0 121 120 123 125 130
##END=
