##TITLE=4-Ethyl-2,6,7-trioxa-1-phosphabicyclo[2.2.2]octane-1-oxide
##JCAMP-DX=4.24
##DATA TYPE=INFRARED SPECTRUM
##ORIGIN=EPA-IR VAPOR PHASE LIBRARY
##OWNER=SRD/NIST
Collection (C) 2018 copyright by the U.S. Secretary of Commerce
on behalf of the United States of America. All rights reserved.
##CAS REGISTRY NO=1005-93-2
##MOLFORM=C 6 H 11 O 4 P
##$NIST SOURCE=MSDC-IR
##STATE=gas
##XUNITS=1/CM
##YUNITS=ABSORBANCE
##XFACTOR=1.
##YFACTOR=0.001
##DELTAX=1.92898
##FIRSTX=549.8
##LASTX=4000.7
##FIRSTY=0.7329
##MAXX=4000.7
##MINX=549.759
##MAXY=0.276999
##MINY=0
##NPOINTS=1790
##XYDATA=(X++(Y..Y))
549.759 0.7329 0.6195 0.6976 0.7048 0.693 0.6047 0.502 0.4736 0.342059 0.38359
569.049 0.2625 0 0.2894 0.5673 0.5731 0.6346 0.4836 0.41162 0.3803 0.40513
588.339 0.34907 0.3087 0.4488 0.6275 0.6458 0.7427 1.0948 1.1335 1.1526 1.519
607.628 2.119 3.029 4.349 6.259 8.999 11.759 13.859 14.919 16.209 17.469
626.918 17.099 16.659 16.049 13.709 10.279 6.989 4.449 2.949 2.289 1.699
646.208 1.3081 1.1706 1.0519 1.0391 0.9885 0.9577 0.8124 0.611 0.744 0.7497
665.498 0.7932 0.8597 0.6511 0.6593 0.7307 0.7008 0.6187 0.5861 0.5661 0.6387
684.787 0.7026 0.628 0.5368 0.5692 0.6317 0.5724 0.4753 0.37655 0.41718 0.5292
704.077 0.4456 0.42706 0.5118 0.5305 0.5058 0.446 0.4764 0.5881 0.6584 0.4825
723.367 0.4513 0.6889 0.8172 0.8105 0.8838 1.0416 0.922 0.8736 0.9993 1.0636
742.657 1.0175 0.8852 0.8233 0.9583 1.143 1.2706 1.369 1.499 1.439 1.3344
761.947 1.399 1.549 1.729 1.819 1.879 1.919 1.989 2.129 2.169 2.129
781.236 2.049 2.089 2.189 2.229 2.149 2.149 2.259 2.279 2.449 2.559
800.526 2.609 2.829 3.229 3.639 4.009 4.589 5.389 6.439 8.019 10.319
819.816 13.709 18.649 26.239 37.379 52.999 74.139 100.519 130.739 163.009 196.259
839.106 230.249 261.539 276.999 263.269 229.819 197.409 168.409 135.989 101.869 72.019
858.395 49.499 34.289 24.829 18.919 15.089 12.459 10.569 9.179 8.159 7.439
877.685 6.839 6.149 5.619 5.129 4.739 4.679 4.589 4.379 4.209 4.009
896.975 3.769 3.619 3.639 3.649 3.559 3.719 3.749 3.659 3.839 3.999
916.265 4.169 4.239 4.259 4.529 4.899 5.339 5.889 6.679 7.669 8.829
935.555 10.469 12.649 15.149 17.889 20.899 23.769 26.109 28.109 29.689 31.069
954.844 31.979 32.129 31.789 30.919 29.819 28.759 27.849 27.109 26.509 26.199
974.134 26.109 26.349 27.069 28.199 30.019 32.559 35.449 38.619 41.939 44.969
993.424 47.239 48.619 48.999 47.869 45.189 41.579 37.359 32.509 27.479 22.889
1012.714 18.989 15.659 12.949 11.109 10.019 9.209 8.499 8.149 8.369 8.659
1032.003 9.059 9.759 10.669 11.799 13.599 16.539 20.459 25.739 32.859 41.789
1051.293 52.739 65.789 80.229 95.599 110.779 124.669 135.839 142.639 144.349 140.849
1070.583 132.509 120.809 106.479 90.089 72.689 55.839 41.469 30.519 23.019 18.039
1089.873 14.419 11.999 10.519 9.399 8.949 8.269 7.929 7.909 7.889 8.259
1109.163 8.219 7.869 7.799 7.929 7.749 7.769 7.599 7.109 6.879 6.929
1128.452 6.919 6.539 6.559 6.809 7.129 7.879 8.529 9.529 10.869 12.829
1147.742 15.809 18.839 21.819 24.909 28.049 30.559 32.649 34.159 34.509 33.959
1167.032 32.409 30.339 27.749 24.529 21.499 19.189 17.959 17.579 17.449 17.009
1186.322 16.279 15.319 14.439 13.399 11.659 10.109 8.709 7.129 5.859 5.149
1205.611 4.509 3.969 3.519 2.779 2.549 2.629 2.529 2.559 2.599 2.669
1224.901 2.779 2.629 2.769 3.069 3.089 3.019 2.899 2.929 2.979 2.959
1244.191 3.009 2.909 2.859 2.999 3.119 3.159 3.189 3.229 3.299 3.569
1263.481 3.659 3.739 4.249 4.619 4.639 4.629 4.579 4.609 4.589 4.519
1282.771 4.509 4.399 4.309 4.339 4.559 4.899 5.309 5.719 6.099 6.429
1302.060 6.689 6.819 6.869 6.889 6.829 6.649 6.539 6.529 6.579 6.839
1321.350 7.229 7.799 8.599 9.559 10.659 11.899 13.319 14.919 16.869 19.159
1340.640 21.829 24.949 28.659 33.259 39.149 47.319 59.709 78.999 107.279 143.999
1359.930 183.719 214.869 228.839 233.659 242.099 239.529 223.749 212.989 189.679 146.169
1379.219 103.219 74.339 59.719 53.259 49.869 47.149 44.509 41.189 37.259 33.339
1398.509 28.389 22.189 16.159 11.269 7.929 5.819 4.529 3.739 3.219 2.839
1417.799 2.559 2.339 2.239 2.159 2.109 2.159 2.229 2.289 2.369 2.509
1437.089 2.709 2.959 3.229 3.549 3.899 4.369 4.939 5.599 6.349 7.189
1456.378 8.139 9.099 9.969 10.759 11.399 11.909 12.289 12.329 12.059 11.529
1475.668 10.879 10.159 9.389 8.779 8.349 8.099 7.869 7.469 7.019 6.759
1494.958 6.459 6.029 5.739 5.339 4.739 3.999 3.339 2.949 2.689 2.499
1514.248 2.339 2.149 1.979 1.789 1.579 1.389 1.2488 1.2005 1.1485 1.1107
1533.538 1.0626 1.0466 1.0429 1.0303 1.0837 1.1218 1.1143 1.1128 1.055 1.0028
1552.827 0.9919 0.9596 0.9216 0.8622 0.7857 0.7892 0.8178 0.8028 0.8153 0.8307
1572.117 0.8924 0.8883 0.8345 0.9151 0.9997 1.0905 1.1566 1.1571 1.2882 1.489
1591.407 1.589 1.639 1.619 1.659 1.679 1.499 1.3011 1.1628 0.9703 0.8388
1610.697 0.7474 0.6686 0.6333 0.5932 0.5598 0.5047 0.51 0.5176 0.4523 0.4799
1629.986 0.5281 0.5055 0.5971 0.6532 0.5952 0.6292 0.6199 0.5593 0.6265 0.6903
1649.276 0.6938 0.7012 0.7291 0.8187 0.8965 0.9614 1.1085 1.2369 1.369 1.539
1668.566 1.639 1.789 2.059 2.229 2.329 2.449 2.479 2.399 2.329 2.259
1687.856 2.139 2.029 1.829 1.639 1.469 1.2468 1.1176 1.0067 0.9375 0.861
1707.146 0.757 0.6979 0.6451 0.6298 0.6534 0.6165 0.5857 0.5928 0.5432 0.5994
1726.435 0.6397 0.5917 0.5734 0.5501 0.5535 0.5752 0.6175 0.6542 0.6613 0.6988
1745.725 0.7371 0.7489 0.7165 0.6525 0.6778 0.7309 0.7306 0.7127 0.6607 0.5966
1765.015 0.5854 0.5667 0.5908 0.6322 0.6147 0.602 0.6108 0.657 0.6742 0.6883
1784.305 0.7238 0.7169 0.7592 0.812 0.841 0.8506 0.9303 1.0797 1.1623 1.2196
1803.594 1.3182 1.449 1.579 1.719 1.849 1.949 2.149 2.349 2.489 2.649
1822.884 2.799 2.949 3.059 3.119 3.179 3.269 3.329 3.299 3.199 3.119
1842.174 3.019 2.819 2.659 2.429 2.119 1.849 1.589 1.339 1.1988 1.0949
1861.464 0.9908 0.8595 0.7556 0.7175 0.685 0.647 0.6411 0.6561 0.6577 0.6348
1880.754 0.6567 0.6825 0.7096 0.7948 0.8848 0.9592 0.9678 1.0289 1.1825 1.2894
1900.043 1.349 1.399 1.469 1.549 1.619 1.589 1.539 1.469 1.399 1.3011
1919.333 1.1418 1.0445 0.9924 0.9404 0.8738 0.8224 0.7986 0.7906 0.7473 0.7555
1938.623 0.7836 0.7497 0.758 0.8166 0.8335 0.8329 0.8712 0.9307 0.9511 0.9202
1957.913 0.897 0.9001 0.9433 0.9581 0.9176 0.919 0.9484 0.9637 0.9367 0.8721
1977.202 0.878 0.918 0.9394 0.9466 0.9296 0.9026 0.8914 0.9383 0.9505 0.95
1996.492 0.9174 0.8712 0.8941 0.8743 0.8749 0.8956 0.883 0.8435 0.78 0.7956
2015.782 0.8106 0.7465 0.694 0.7501 0.7637 0.69 0.6428 0.648 0.6533 0.6191
2035.072 0.5901 0.5817 0.5089 0.4386 0.4467 0.4691 0.5006 0.4903 0.43606 0.39502
2054.362 0.452 0.4895 0.4457 0.42187 0.4508 0.4753 0.4399 0.41881 0.39586 0.36136
2073.651 0.38219 0.41458 0.4445 0.4428 0.42996 0.41897 0.41129 0.43494 0.4459 0.4428
2092.941 0.4759 0.5077 0.5372 0.5858 0.5855 0.5979 0.6298 0.6548 0.7334 0.7623
2112.231 0.7545 0.8189 0.9272 0.9931 1.0001 1.0343 1.0483 1.0114 0.9999 0.9764
2131.521 0.9343 0.894 0.8281 0.8235 0.7786 0.7695 0.7923 0.7168 0.7259 0.721
2150.810 0.6401 0.5805 0.563 0.5087 0.4686 0.4533 0.4561 0.4726 0.497 0.5132
2170.100 0.4787 0.4912 0.5137 0.5208 0.5638 0.5783 0.5535 0.5928 0.5868 0.5566
2189.390 0.5911 0.5961 0.5746 0.6082 0.6056 0.5522 0.5587 0.5666 0.5503 0.5224
2208.680 0.4737 0.43853 0.4686 0.503 0.4583 0.41427 0.41902 0.42104 0.37662 0.41662
2227.970 0.4576 0.4469 0.4494 0.41269 0.381 0.39906 0.43707 0.41138 0.39379 0.3915
2247.259 0.37357 0.38544 0.35408 0.3142 0.3105 0.2947 0.2738 0.2881 0.35084 0.37581
2266.549 0.34109 0.3534 0.35831 0.33509 0.36071 0.343879 0.3065 0.3072 0.33385 0.33542
2285.839 0.33509 0.35456 0.3601 0.40114 0.4396 0.4269 0.38382 0.39358 0.39915 0.3896
2305.129 0.42479 0.43424 0.43059 0.40981 0.42141 0.4543 0.487 0.4669 0.4739 0.489
2324.418 0.42495 0.41585 0.4602 0.4482 0.42565 0.39799 0.38573 0.43725 0.4519 0.4551
2343.708 0.4559 0.42909 0.40674 0.41177 0.38577 0.343707 0.36596 0.39902 0.3706 0.2847
2362.998 0.2685 0.33442 0.33588 0.2814 0.3117 0.3336 0.2722 0.2885 0.3638 0.38136
2382.288 0.3218 0.3094 0.3012 0.2811 0.36479 0.37513 0.3231 0.3109 0.348032 0.40528
2401.578 0.39363 0.40141 0.41441 0.39598 0.4412 0.498 0.4766 0.4599 0.4974 0.5171
2420.867 0.5086 0.4949 0.4875 0.5104 0.4898 0.4556 0.4662 0.4834 0.4807 0.5195
2440.157 0.4919 0.41451 0.42895 0.42158 0.40814 0.43022 0.39846 0.36218 0.38386 0.40775
2459.447 0.40575 0.37649 0.3678 0.39737 0.39219 0.36505 0.39177 0.37702 0.3066 0.2806
2478.737 0.2881 0.2949 0.3018 0.3262 0.33727 0.3269 0.3184 0.2849 0.2542 0.3115
2498.026 0.36827 0.36766 0.36075 0.36536 0.41064 0.39577 0.38269 0.38616 0.37972 0.36604
2517.316 0.325 0.34063 0.3186 0.2858 0.343044 0.3348 0.3275 0.37565 0.33165 0.2931
2536.606 0.3186 0.3617 0.37308 0.39497 0.41987 0.33532 0.2634 0.344988 0.39305 0.3267
2555.896 0.33596 0.36589 0.3786 0.4517 0.4832 0.35769 0.328 0.40707 0.38804 0.39366
2575.186 0.38909 0.375 0.3906 0.37134 0.36705 0.41903 0.4529 0.38193 0.344813 0.39054
2594.475 0.37022 0.35713 0.38086 0.42602 0.39286 0.347974 0.41805 0.43758 0.4492 0.4489
2613.765 0.4414 0.43194 0.42035 0.4823 0.5044 0.4718 0.4929 0.5776 0.5781 0.4731
2633.055 0.4629 0.5292 0.5662 0.5599 0.5389 0.5127 0.5096 0.5184 0.4708 0.4988
2652.345 0.5208 0.4939 0.5147 0.5676 0.6127 0.6059 0.6484 0.7154 0.7378 0.7596
2671.634 0.8352 0.8815 0.9492 1.0515 1.0902 1.147 1.2199 1.2665 1.3118 1.3351
2690.924 1.369 1.459 1.449 1.389 1.349 1.2976 1.2519 1.2556 1.1829 1.1033
2710.214 1.081 1.0589 1.1326 1.1732 1.2356 1.3286 1.349 1.399 1.419 1.379
2729.504 1.369 1.359 1.369 1.349 1.2449 1.1985 1.1592 1.1185 1.1201 1.1534
2748.794 1.2217 1.1673 1.0804 1.1237 1.2173 1.2047 1.2048 1.239 1.1816 1.172
2768.083 1.1879 1.1502 1.1535 1.1887 1.2749 1.3123 1.349 1.439 1.489 1.529
2787.373 1.569 1.499 1.449 1.459 1.469 1.559 1.649 1.669 1.669 1.759
2806.663 1.829 1.859 1.959 2.049 2.159 2.259 2.239 2.299 2.379 2.349
2825.953 2.329 2.319 2.299 2.299 2.339 2.389 2.439 2.559 2.579 2.679
2845.242 2.869 3.019 3.279 3.559 3.819 4.229 4.739 5.309 5.959 6.579
2864.532 7.209 7.959 8.749 9.509 10.259 10.969 11.729 12.629 13.749 15.129
2883.822 16.729 18.769 21.369 24.639 28.439 32.489 36.559 40.109 42.719 44.159
2903.112 44.459 43.819 42.279 40.139 37.499 34.429 31.359 28.489 26.189 24.669
2922.401 23.659 22.889 22.449 22.179 22.029 22.139 22.389 22.859 23.649 24.799
2941.691 26.329 28.399 30.899 33.799 36.939 40.089 43.079 45.889 48.349 50.229
2960.981 51.369 51.529 50.959 50.089 49.119 48.179 47.379 46.629 45.779 44.659
2980.271 43.029 41.109 38.879 36.119 32.989 29.399 25.359 21.209 17.409 14.199
2999.561 11.579 9.509 7.809 6.459 5.489 4.739 4.239 3.849 3.519 3.279
3018.850 3.039 2.869 2.719 2.619 2.549 2.429 2.359 2.299 2.119 2.049
3038.140 2.069 1.999 1.899 1.889 1.809 1.709 1.779 1.819 1.789 1.849
3057.430 1.799 1.619 1.609 1.559 1.489 1.449 1.379 1.409 1.399 1.3285
3076.720 1.284 1.2439 1.1386 1.0081 0.9557 0.9484 0.8521 0.8386 0.9698 0.9545
3096.009 0.8182 0.7109 0.7467 0.7826 0.7606 0.6886 0.5301 0.5731 0.6814 0.7576
3115.299 0.7624 0.6996 0.7007 0.7175 0.6743 0.6448 0.6422 0.5676 0.5729 0.6765
3134.589 0.7158 0.7907 0.8185 0.7169 0.6243 0.649 0.7403 0.7481 0.6945 0.6964
3153.879 0.7631 0.8165 0.8582 0.8569 0.875 0.8833 0.8813 0.8951 0.801 0.7919
3173.169 0.8248 0.8089 0.8448 0.8296 0.8141 0.7408 0.6412 0.5654 0.5126 0.6046
3192.458 0.557 0.4911 0.52 0.4418 0.35753 0.37176 0.4516 0.35227 0.2656 0.33796
3211.748 0.4786 0.4836 0.339898 0.3192 0.42239 0.42311 0.4605 0.4746 0.40638 0.4713
3231.038 0.4778 0.4927 0.4912 0.4581 0.4655 0.37778 0.33676 0.42236 0.4986 0.38735
3250.328 0.3261 0.41177 0.43691 0.4458 0.37951 0.3075 0.35642 0.35477 0.33408 0.37303
3269.617 0.39864 0.40348 0.37604 0.3556 0.346373 0.35809 0.4406 0.4747 0.38276 0.4076
3288.907 0.4557 0.4933 0.43723 0.4484 0.4428 0.36489 0.38286 0.35972 0.41527 0.40503
3308.197 0.34978 0.35915 0.3284 0.43238 0.39515 0.229 0.3214 0.36599 0.3495 0.39818
3327.487 0.40613 0.37451 0.36713 0.346488 0.3059 0.35695 0.39129 0.32989 0.2866 0.39864
3346.777 0.5248 0.43181 0.33304 0.37842 0.442 0.42805 0.41803 0.3523 0.282 0.2944
3366.066 0.343778 0.35313 0.3206 0.315 0.37146 0.5197 0.4641 0.33259 0.37721 0.339306
3385.356 0.3141 0.40246 0.348575 0.3025 0.3105 0.3028 0.33551 0.4084 0.38621 0.4107
3404.646 0.42613 0.2947 0.222 0.2608 0.3198 0.40532 0.5087 0.37868 0.206 0.258
3423.936 0.2724 0.2488 0.33062 0.2841 0.3062 0.3146 0.2414 0.185 0.217 0.215
3443.225 0.193 0.34894 0.38258 0.3291 0.3211 0.3319 0.2892 0.183 0.2624 0.278
3462.515 0.229 0.35125 0.2855 0.214 0.33378 0.2993 0.2827 0.347458 0.2822 0.2811
3481.805 0.238 0.156 0.2516 0.35876 0.3098 0.211 0.2628 0.33393 0.3141 0.2639
3501.095 0.231 0.2561 0.188 0.229 0.3177 0.3015 0.2941 0.36073 0.37006 0.37126
3520.385 0.36199 0.2645 0.2704 0.327 0.3287 0.218 0.2629 0.36867 0.2863 0.213
3539.674 0.153 0.216 0.2472 0.145 0.2438 0.36243 0.343304 0.2886 0.2767 0.2979
3558.964 0.2916 0.3175 0.39737 0.36481 0.2582 0.168 0.21 0.3213 0.3242 0.35336
3578.254 0.40029 0.2786 0.2741 0.2522 0.135 0.213 0.232 0.217 0.177 0.164
3597.544 0.2726 0.36193 0.3275 0.176 0.13 0.231 0.2512 0.188 0.186 0.233
3616.833 0.2505 0.161 0.188 0.2 0.146 0.182 0.219 0.36049 0.3153 0.2883
3636.123 0.234 0.079 0.171 0.2939 0.3001 0.2544 0.2427 0.2637 0.176 0.13
3655.413 0.195 0.2615 0.3041 0.232 0.166 0.222 0.2447 0.228 0.231 0.222
3674.703 0.2518 0.2627 0.39065 0.4738 0.3554 0.34548 0.40281 0.3265 0.2527 0.2942
3693.993 0.2808 0.2553 0.217 0.223 0.221 0.189 0.2584 0.204 0.2698 0.3026
3713.282 0.229 0.36978 0.36865 0.2779 0.2835 0.297 0.3235 0.35437 0.40917 0.43225
3732.572 0.342066 0.3136 0.3009 0.263 0.37604 0.42496 0.338318 0.272 0.226 0.3234
3751.862 0.4767 0.41203 0.3162 0.340599 0.39216 0.343511 0.237 0.339152 0.4646 0.40971
3771.152 0.2927 0.187 0.163 0.2801 0.38426 0.39415 0.3051 0.172 0.205 0.223
3790.441 0.229 0.2882 0.2673 0.2853 0.3171 0.2801 0.2781 0.3088 0.33692 0.36595
3809.731 0.3194 0.2528 0.246 0.294 0.2984 0.2523 0.2825 0.4658 0.4505 0.38566
3829.021 0.40213 0.347552 0.34925 0.38071 0.36082 0.2814 0.3016 0.4452 0.5057 0.4702
3848.311 0.4128 0.32 0.40179 0.4576 0.41777 0.38372 0.37339 0.40565 0.42243 0.38872
3867.601 0.3932 0.43574 0.42226 0.4586 0.5268 0.5333 0.5212 0.552 0.6266 0.7448
3886.890 0.7932 0.6735 0.5883 0.7053 0.7689 0.6889 0.6842 0.7157 0.7292 0.6875
3906.180 0.6589 0.6897 0.6276 0.5486 0.5093 0.5783 0.6151 0.5621 0.5621 0.5241
3925.470 0.4883 0.5935 0.5931 0.4856 0.5316 0.6168 0.6542 0.7236 0.7511 0.6106
3944.760 0.6034 0.7104 0.7693 0.7992 0.8159 0.8293 0.8265 0.8729 0.8589 0.8735
3964.049 0.9117 0.8903 0.9026 0.9627 0.9796 0.8384 0.7539 0.7587 0.7037 0.5949
3983.339 0.5209 0.5171 0.5602 0.5955 0.5005 0.4653 0.5651 0.5168 0.4906 0.5079
##END=
