##TITLE=trans-1,3-Dichloropropene
##JCAMP-DX=4.24
##DATA TYPE=INFRARED SPECTRUM
##ORIGIN=NIST Mass Spectrometry Data Center
##OWNER=NIST Standard Reference Data Program
Collection (C) 2018 copyright by the U.S. Secretary of Commerce
on behalf of the United States of America. All rights reserved.
##CAS REGISTRY NO=10061-02-6
##MOLFORM=C 3 H 4 Cl 2
##$NIST SOURCE=MSDC-IR
##SPECTROMETER/DATA SYSTEM=HP-GC/MS/IRD
##STATE=gas
##XUNITS=1/CM
##YUNITS=ABSORBANCE
##XFACTOR=1.0
##YFACTOR=0.000001300
##DELTAX=4.0
##FIRSTX=550.0
##LASTX=3846.0
##FIRSTY=0.000515
##MAXX=3846
##MINX=550
##MAXY=0.013
##MINY=0
##NPOINTS=825
##XYDATA=(X++(Y..Y))
550.0 396 194 60 59 32 20 19 0 97 164
590.0 136 104 79 71 108 158 175 193 185 160
630.0 210 237 237 378 496 514 623 809 1070 1490
670.0 2081 2902 4280 6176 8161 9638 10000 9507 8294 6379
710.0 4262 2590 1672 1215 955 816 804 792 779 880
750.0 981 1029 1144 1371 1739 2232 2724 2957 2951 3035
790.0 2762 1875 1245 1047 1081 1359 1827 2303 2475 2469
830.0 2520 2308 1784 1486 1512 1723 2078 2422 2593 2645
870.0 2660 2447 1987 1616 1530 1726 2100 2533 2990 3493
910.0 4121 4821 5481 6132 6795 7083 6789 6349 5676 4687
950.0 3796 3125 2600 2122 1723 1395 1110 916 794 678
990.0 610 567 520 474 427 388 399 395 345 312
1030.0 310 285 238 221 241 274 308 335 364 377
1070.0 352 310 275 222 172 169 133 111 130 107
1110.0 101 101 108 124 117 141 178 218 313 433
1150.0 547 555 520 493 422 329 246 195 176 180
1190.0 192 214 267 348 435 552 701 891 1268 2025
1230.0 3127 4142 4536 4758 4941 4222 3111 2556 2517 2708
1270.0 2913 3021 3114 3370 3530 3285 2970 2783 2314 1629
1310.0 1142 833 586 398 280 229 203 178 165 143
1350.0 126 158 158 155 162 171 188 215 231 225
1390.0 212 207 193 179 158 148 171 206 244 290
1430.0 351 419 501 575 580 577 593 537 429 357
1470.0 318 294 274 226 195 168 136 114 106 119
1510.0 119 124 119 114 128 147 148 177 209 204
1550.0 233 290 346 363 378 398 410 450 532 661
1590.0 853 1095 1334 1624 2019 2536 3248 4213 5340 6296
1630.0 6658 6470 5907 4684 3013 1866 1299 938 709 533
1670.0 427 390 352 344 368 377 411 474 530 567
1710.0 588 591 576 537 472 412 385 371 371 370
1750.0 355 342 304 265 231 190 157 129 106 90
1790.0 72 71 76 60 45 58 67 78 86 72
1830.0 70 69 69 71 74 71 58 56 62 60
1870.0 41 21 34 51 42 39 29 21 7 14
1910.0 20 6 18 12 17 28 19 27 42 41
1950.0 31 28 31 36 29 30 50 38 25 27
1990.0 27 42 65 59 38 26 24 27 28 34
2030.0 41 44 39 42 41 42 39 25 39 56
2070.0 58 66 79 72 37 40 52 33 44 53
2110.0 53 55 49 61 58 59 77 60 55 62
2150.0 48 57 72 63 52 49 49 47 64 59
2190.0 53 63 63 58 67 98 110 113 118 101
2230.0 85 66 59 62 59 51 42 50 55 61
2270.0 57 47 63 64 58 73 70 62 78 88
2310.0 81 69 69 82 83 96 107 110 107 75
2350.0 67 93 114 115 107 107 94 61 43 56
2390.0 71 63 67 93 78 39 28 27 45 66
2430.0 58 52 50 43 40 67 78 66 54 68
2470.0 69 45 62 78 68 66 55 50 60 50
2510.0 61 68 58 52 51 55 47 50 41 37
2550.0 46 36 27 34 33 25 13 21 51 49
2590.0 37 31 27 38 29 9 6 26 38 37
2630.0 42 34 34 36 36 73 86 60 71 74
2670.0 56 62 58 70 86 90 76 56 74 90
2710.0 84 73 65 84 101 78 67 73 59 54
2750.0 42 35 43 54 73 55 43 56 42 40
2790.0 50 44 39 47 50 56 78 86 86 87
2830.0 91 109 145 165 185 232 247 259 281 295
2870.0 286 291 304 287 273 260 231 213 205 187
2910.0 169 197 231 250 301 390 544 716 852 965
2950.0 1085 1227 1349 1384 1334 1380 1421 1335 1216 1112
2990.0 1017 913 802 724 642 538 449 391 362 340
3030.0 320 282 283 319 363 424 547 785 1132 1435
3070.0 1467 1440 1416 1077 678 454 345 283 234 215
3110.0 168 112 95 101 90 45 21 24 46 59
3150.0 61 64 39 7 21 47 40 50 62 52
3190.0 58 51 62 107 103 55 48 61 68 56
3230.0 68 121 132 115 82 70 79 80 79 64
3270.0 75 103 109 106 109 115 113 87 64 61
3310.0 104 151 143 99 79 95 102 67 28 32
3350.0 62 103 102 80 77 75 99 99 104 111
3390.0 91 83 91 101 98 84 96 106 82 106
3430.0 105 84 91 96 112 120 134 108 98 95
3470.0 101 112 86 100 104 95 89 98 94 94
3510.0 128 136 113 117 183 177 121 124 134 132
3550.0 118 123 154 161 141 166 194 190 181 152
3590.0 124 144 149 153 168 175 179 166 145 156
3630.0 160 153 161 191 205 174 151 142 155 179
3670.0 202 200 154 154 187 179 163 150 153 171
3710.0 139 116 169 216 191 157 185 218 190 178
3750.0 188 194 217 202 135 165 183 154 184 217
3790.0 227 210 209 213 189 179 185 157 135 142
3830.0 151 144 165 197 189
##END=
