##TITLE=5-(4-Aminophenyl)oxazole
##JCAMP-DX=4.24
##DATA TYPE=INFRARED SPECTRUM
##ORIGIN=EPA-IR VAPOR PHASE LIBRARY
##OWNER=SRD/NIST
Collection (C) 2018 copyright by the U.S. Secretary of Commerce
on behalf of the United States of America. All rights reserved.
##CAS REGISTRY NO=1008-95-3
##MOLFORM=C 9 H 8 N 2 O
##$NIST SOURCE=MSDC-IR
##STATE=gas
##XUNITS=1/CM
##YUNITS=ABSORBANCE
##XFACTOR=1.
##YFACTOR=0.001
##DELTAX=1.92898
##FIRSTX=549.8
##LASTX=4000.7
##FIRSTY=4.18
##MAXX=4000.7
##MINX=549.759
##MAXY=0.04299
##MINY=0
##NPOINTS=1790
##XYDATA=(X++(Y..Y))
549.759 4.18 3.41 3.91 3.78 3.6 4.34 4.78 4.79 5.15 5.44
569.049 4.35 3.58 3.57 3.96 4.07 4.07 4.83 4.72 4.45 4.41
588.339 4.26 4.8 4.94 4.92 4.89 5.15 6.24 6.98 7.35 8.11
607.628 9.28 10.87 12.45 13.84 14.3 13.88 13.63 12.8 12.25 11.27
626.918 10.54 11.12 11.36 11.25 11.82 13.67 14.96 14.29 13.5 13.19
646.208 13.07 13.01 12.51 12.09 11.93 11.6 11.31 11.64 11.99 12.08
665.498 12.1 12.18 12.47 12.82 12.95 12.73 13.01 13.28 12.71 11.99
684.787 11.51 11.18 10.45 9.33 8.91 8.26 7.41 7.05 6.53 6.38
704.077 6.34 6.13 6.11 5.94 5.77 5.72 5.52 5.57 5.62 5.26
723.367 4.82 4.98 4.81 4.53 4.77 4.73 4.29 3.94 4.51 4.58
742.657 4.21 4.15 4.29 4.35 4.32 4.33 4.59 4.43 4.63 4.88
761.947 4.11 3.94 4.03 4.06 4.15 4.59 5.36 5.56 5.05 4.95
781.236 5.14 5.44 6.03 6.29 6.55 6.93 7.18 7.77 8.38 9.32
800.526 10.72 12.1 13.56 14.62 16.18 17.87 19.24 20.57 21.39 21.76
819.816 21.48 19.12 17.14 18.7 19.09 17.23 15.55 14.12 13.22 12.24
839.106 11.37 10.04 8.73 7.96 7.17 6.67 6.04 5.06 4.6 4.41
858.395 4.56 5 4.64 3.84 3.51 3.28 3.37 3.89 3.33 2.56
877.685 2.67 3.24 3.37 3.07 3.11 3.12 3.29 3.41 3.73 3.9
896.975 3.57 4.03 4.33 4.34 4.76 5.4 5.73 5.33 5.03 5.13
916.265 5.57 5.49 5.02 4.51 4.43 4.77 5.41 6.4 7.65 8.72
935.555 9.96 10.55 9.61 9.11 9.38 9.25 8.57 7.56 6.48 5.28
954.844 4.46 4.38 3.99 3.68 3.71 3.57 3.31 2.82 2.6 2.82
974.134 2.65 2.65 3.01 3.23 3.25 3.16 2.82 2.44 2.52 2.52
993.424 2.42 2.83 3.14 3.16 2.72 2.71 3.24 3.37 3.63 3.99
1012.714 3.91 3.86 3.79 3.32 3.63 4.23 3.81 3.64 3.83 3.8
1032.003 4.18 4.35 5.38 5.73 5.11 4.8 5.04 5.79 5.35 4.58
1051.293 4.85 5.04 5.1 5.03 4.52 3.97 3.7 3.12 3.69 4.77
1070.583 4.41 4.43 5.32 6.88 7.66 7.97 9.13 10.52 11.67 13.05
1089.873 14.25 16.17 18.88 21.74 25.54 27.62 26.47 24.63 22.5 21.57
1109.163 19.99 15.18 10.53 7.6 6.57 5.79 4.52 3.99 4.26 4
1128.452 3.51 3.25 3.4 4.03 4.89 4.6 2.53 1.96 3.21 3.36
1147.742 2.48 1.6 1.073 1.1046 1.2361 1.0481 0.4739 1.0608 1.75 1.8
1167.032 2.01 2.58 4.08 5.65 7.34 8.98 10.56 11.09 10.7 11.24
1186.322 10.69 7.72 5.16 4.19 4.12 3.42 2.9 3.25 2.14 1.59
1205.611 1.263 2.01 2.98 2.58 1.2811 0.268 0.9659 0.8234 0 0.55946
1224.901 1.77 1.4126 1.1573 1.98 2.29 1.4351 1.256 1.95 2.17 2.35
1244.191 3.02 3.16 3.28 3.65 3.87 4.53 5.44 6.93 8.17 9.52
1263.481 12 14.25 16.87 20.2 22.87 25.45 27.28 28.59 28.95 28.12
1282.771 27.2 24.58 20.83 17.63 14.3 10.92 8.21 6.05 4.5 3.81
1302.060 3.24 2.71 2.51 2.34 2.22 2.06 1.89 1.84 1.95 2.15
1321.350 2.18 2.19 2.38 2.48 2.43 2.53 2.57 2.48 2.37 2.15
1340.640 2.08 1.96 1.72 1.71 1.8 1.65 1.61 1.62 1.56 1.4273
1359.930 1.3418 1.2831 1.1117 0.9927 1.0981 1.2051 1.0722 0.9809 1.1223 1.2177
1379.219 1.1107 1.1765 1.2723 1.1659 1.0936 1.1912 1.2263 1.1983 1.2524 1.3007
1398.509 1.3729 1.42 1.4994 1.4738 1.4336 1.55 1.66 1.66 1.88 2.27
1417.799 2.48 2.62 2.81 3.06 3.22 3.39 3.53 3.53 3.51 3.68
1437.089 3.71 3.6 3.8 4 4.01 4.01 4.09 4.27 4.35 4.3
1456.378 4.19 4 3.96 4.14 4.18 4.22 4.46 4.89 5.43 5.96
1475.668 6.85 8.18 10.03 12.71 16.29 21.15 27.42 34.03 39.64 42.69
1494.958 42.99 42.04 40.54 37.78 32.79 26.72 21.69 19.33 19.39 20.2
1514.248 20.36 19.64 18.49 17.57 16.35 14.21 11.03 8.13 6.36 5.23
1533.538 4.55 4.29 4.09 3.93 3.86 3.75 3.83 3.84 3.56 3.57
1552.827 3.89 3.91 3.91 4.05 4.1 4.13 4.1 4.45 4.77 4.65
1572.117 4.79 5.1 5.23 5.44 5.55 5.37 5.63 6.18 6.82 7.46
1591.407 8.15 8.81 9.32 9.93 10.56 11.52 12.82 14.34 16.16 18.62
1610.697 21.66 25.25 29 33 36.41 38.84 40.84 41.48 40.81 39.65
1629.986 37.65 34.79 31.71 28.63 25.64 22.41 19.09 16.26 13.88 11.6
1649.276 9.66 8.14 6.91 6.09 5.66 5.34 5.03 4.83 4.4 4.19
1668.566 4.04 3.75 3.53 3.38 3.31 3.19 2.89 2.84 3 2.82
1687.856 2.63 2.39 2.07 2.21 2.47 2.34 2.12 1.99 1.87 1.89
1707.146 1.98 2.02 1.99 1.93 1.98 1.87 1.71 1.7 1.7 1.4704
1726.435 1.56 1.68 1.2469 1.1995 1.3247 1.4151 1.66 1.509 1.2984 1.338
1745.725 1.3083 1.385 1.4104 1.3822 1.2798 1.2463 1.268 1.209 1.2679 1.1142
1765.015 1.0322 1.1588 0.9372 0.8013 0.9076 0.9256 1.0992 1.1664 1.1486 1.1221
1784.305 1.0547 1.1232 1.216 1.1728 1.1693 1.213 1.1633 1.0321 1.0554 1.1266
1803.594 1.0998 1.1041 1.0686 1.0929 1.0233 0.9446 1.0639 1.1579 0.9953 1.0445
1822.884 1.2464 1.2953 1.301 1.3006 1.2778 1.241 1.3175 1.3215 1.2133 1.1908
1842.174 1.3142 1.3761 1.3577 1.3944 1.2864 1.2573 1.3701 1.3939 1.4794 1.63
1861.464 1.78 1.79 1.81 1.91 1.98 2.11 2.14 2.13 2.29 2.35
1880.754 2.36 2.23 1.98 1.9 2.01 2.01 1.83 1.69 1.67 1.482
1900.043 1.3121 1.3514 1.3304 1.409 1.3769 1.2617 1.229 1.3845 1.3766 1.1719
1919.333 1.1163 1.1789 1.354 1.3679 1.3365 1.3849 1.4535 1.4935 1.3941 1.3821
1938.623 1.3328 1.1425 1.2485 1.4487 1.3124 1.1755 1.2215 1.2221 1.2573 1.3919
1957.913 1.3552 1.2633 1.2006 1.1947 1.2252 1.1841 1.1631 1.2431 1.2223 1.2079
1977.202 1.2117 1.1332 1.1687 1.1686 1.2355 1.2379 1.1338 1.1996 1.3371 1.3596
1996.492 1.182 1.0012 1.0828 1.2463 1.3019 1.2595 1.2566 1.291 1.339 1.3744
2015.782 1.3022 1.2548 1.2815 1.3336 1.494 1.4509 1.1681 1.0857 1.1477 1.3114
2035.072 1.4839 1.59 1.4531 1.2435 1.1912 1.1613 1.2092 1.2755 1.3573 1.4274
2054.362 1.4302 1.3229 1.2107 1.1719 1.1233 1.2589 1.239 1.1088 1.3408 1.3851
2073.651 1.2242 1.2181 1.2332 1.1627 1.2761 1.4232 1.3964 1.2053 1.1148 1.1669
2092.941 1.248 1.3366 1.2016 1.2362 1.381 1.3231 1.2229 1.1227 1.1312 1.1441
2112.231 1.1772 1.2034 1.0748 1.0854 1.0684 1.001 1.0563 1.0691 1.0881 1.2194
2131.521 1.2245 1.0214 1.0329 1.087 1.0165 1.0054 1.0147 1.0293 1.037 0.9822
2150.810 0.9205 0.8817 0.9426 0.9959 1.1099 1.153 1.0696 1.1741 1.2286 1.3903
2170.100 1.4402 1.383 1.4157 1.434 1.3592 1.3617 1.4266 1.2067 1.0855 1.1762
2189.390 1.4202 1.52 1.53 1.59 1.5007 1.4403 1.2944 1.2146 1.2433 1.1565
2208.680 1.214 1.3279 1.2767 1.1961 1.0348 0.8293 0.8107 0.9461 1.001 0.9634
2227.970 1.0208 0.9907 0.922 1.0779 1.2529 1.1014 0.9303 0.9895 0.9704 0.9633
2247.259 0.9815 0.983 0.9452 0.9412 1.0262 0.7752 0.55547 0.7726 0.8803 0.9667
2266.549 1.1054 0.9149 0.825 0.873 0.8676 0.8557 0.9081 0.9241 1.0671 1.245
2285.839 0.9541 0.9808 1.1235 1.0389 1.0913 1.0944 1.312 1.5182 1.469 1.4781
2305.129 1.3794 1.1878 1.3454 1.4397 1.4578 1.3091 1.0016 1.0827 1.225 1.1862
2324.418 1.2676 1.3935 1.311 1.3204 1.4257 1.3317 1.1861 1.2677 1.2074 1.1834
2343.708 1.1648 1.1827 1.1332 0.97 1.052 1.2155 1.2619 1.195 1.341 1.3288
2362.998 1.0793 1.1412 1.2505 1.128 1.141 1.287 1.2276 1.2957 1.156 0.982
2382.288 1.0287 1.1358 1.0761 0.986 1.1639 1.0944 0.9134 0.9071 0.9687 0.8698
2401.578 0.921 1.15 1.1672 1.1004 1.0587 0.9592 1.0569 1.1459 1.0139 1.036
2420.867 1.1697 1.101 0.9401 0.9796 1.0395 1.0121 1.1058 1.3061 1.2242 1.0192
2440.157 1.0126 1.1346 1.1611 1.1349 1.1317 1.0553 1.1547 1.2415 1.152 1.0503
2459.447 1.0087 0.8069 0.9302 1.0642 0.933 0.9527 1.0323 1.1438 1.0728 0.9072
2478.737 0.9438 1.0494 0.9072 0.8389 0.9641 1.068 1.0579 1.0144 1.016 0.9776
2498.026 1.0378 1.0329 0.8024 0.8471 1.0087 1.0833 1.0364 0.7772 0.7938 1.0411
2517.316 1.165 1.0721 1.0861 1.2614 1.2079 0.9465 0.9776 1.5064 1.57 1.3359
2536.606 1.483 1.61 1.5077 1.4472 1.3827 1.2279 1.3015 1.57 1.71 1.7
2555.896 1.74 1.67 1.4995 1.3341 1.2049 1.3338 1.57 1.54 1.2691 1.3535
2575.186 1.3646 1.1418 1.1278 1.062 1.0363 1.4607 1.62 1.3592 1.3723 1.391
2594.475 1.4417 1.377 1.437 1.73 1.4791 1.195 1.3238 1.3466 1.3142 1.3794
2613.765 1.407 1.3121 1.2354 0.9691 0.9339 1.2839 1.357 1.2309 1.1679 1.1608
2633.055 1.2096 1.2455 1.1352 1.1642 1.211 1.0738 1.0535 1.0845 0.9264 0.7686
2652.345 0.87 0.9066 0.969 0.9681 0.8685 0.7067 0.7786 1.1232 1.0545 0.7857
2671.634 0.8159 0.8485 0.7084 0.58315 0.7079 0.7867 0.8642 1.016 1.1615 1.0992
2690.924 0.9257 0.9265 0.8498 0.917 1.076 1.1613 1.1551 1.0313 0.8318 0.8555
2710.214 0.8579 1.0293 1.079 1.1248 1.27 1.0452 1.0034 0.9656 0.8566 0.8418
2729.504 0.9664 1.0656 0.8715 0.8462 0.818 0.9442 0.9861 1.0604 1.1365 0.9866
2748.794 1.2725 1.1138 0.9018 0.9497 1.074 1.1257 1.088 1.3588 1.231 0.8724
2768.083 0.7925 1.0067 0.9767 1.0566 1.2095 0.9338 0.56494 0.7141 0.8718 0.7967
2787.373 0.7181 0.7742 0.8883 0.8792 0.9921 0.8913 0.8169 0.8602 0.7451 0.8352
2806.663 0.9013 1.0734 1.4219 1.1047 0.7588 1.0397 1.3514 0.9273 0.7356 0.9309
2825.953 0.9074 0.7952 0.9095 1.2703 1.2817 1.2199 1.0376 0.8246 1.0566 1.2812
2845.242 0.9197 0.7142 0.9183 0.891 0.8081 0.8995 0.9519 0.6795 0.6344 0.8188
2864.532 0.60378 0.7575 1.1002 1.1386 1.1309 1.0055 1.0977 1.3133 1.2648 1.1148
2883.822 1.0187 0.8465 0.6554 0.679 0.8811 0.92 0.9287 1.0645 1.2433 1.3204
2903.112 1.2601 1.0733 1.1484 1.3328 1.167 1.042 1.0201 0.9501 1.1484 1.1137
2922.401 1.3052 1.4031 0.8517 0.8098 1.0325 1.4173 1.3318 1.0346 0.9825 0.8559
2941.691 0.8876 1.0317 1.3785 1.2627 1.1092 1.0055 0.8697 1.0431 1.0424 1.1847
2960.981 1.2075 1.0245 0.9299 0.974 1.0857 1.1661 1.115 1.0877 1.2155 1.4281
2980.271 1.86 2.27 1.67 1.0823 1.4527 1.77 2.04 2.05 2.17 2.61
2999.561 2.61 2.59 2.88 3.3 3.5 3.14 3.18 3.49 3.73 3.87
3018.850 3.9 4.5 4.98 5.14 5.69 6.54 7.13 7.75 8.38 8.73
3038.140 8.91 8.71 8.25 7.88 7.28 6.24 5.33 4.69 3.98 3.72
3057.430 3.86 3.93 3.84 3.46 3.17 3.09 3.28 3.42 3.31 3.28
3076.720 3.03 2.94 3 2.89 2.86 3.08 3.3 2.62 2.55 2.81
3096.009 2.37 2.66 3.05 2.54 1.78 1.88 2.04 1.72 1.4472 1.59
3115.299 1.4609 1.5171 1.86 1.79 1.62 1.64 1.62 1.67 1.89 2.06
3134.589 2.47 2.87 2.84 2.46 2.39 2.33 2.25 2.15 2.04 1.7
3153.879 1.4484 1.4078 1.73 2.01 2 1.78 1.4357 1.2758 1.1325 1.0795
3173.169 1.1133 1.1333 1.3756 1.53 1.2835 1.3708 1.3027 0.9203 0.7599 1.1013
3192.458 1.1399 0.7134 0.9662 1.2203 1.3526 1.58 1.3501 1.1503 1.3631 1.2167
3211.748 1.3484 1.74 1.69 1.55 1.57 1.63 1.63 1.54 1.2685 1.63
3231.038 1.93 1.65 1.4642 1.3914 1.3659 1.55 1.4877 1.253 1.2648 1.4728
3250.328 1.75 1.64 1.1818 0.818 0.8587 0.9643 1.0358 1.1672 0.835 0.7998
3269.617 1.2652 0.6984 0.36 1.0233 1.2501 1.2042 0.9084 0.7821 0.9088 1.0073
3288.907 1.0488 0.7295 0.353 0.357 0.7791 1.0189 0.9339 0.7299 0.7628 1.1011
3308.197 1.079 0.7465 0.51843 0.4484 0.6363 0.7157 0.5341 0.6415 0.8289 0.9963
3327.487 0.958 0.8475 0.59684 0.287 0.7352 1.3328 1.0609 0.6477 0.9785 1.347
3346.777 0.8295 0.7774 0.726 0.4393 0.52609 0.8846 1.2283 0.7286 0.51004 0.8764
3366.066 0.9396 0.9008 1.0809 1.0805 1.1166 1.2787 1.3135 1.3811 1.76 1.97
3385.356 1.53 1.4964 1.8 2.16 2.5 2.77 3.35 3.56 4.08 4.36
3404.646 4.44 4.95 5.5 5.44 5.32 5.54 5.83 6.25 5.83 5.27
3423.936 4.78 4.55 4.59 4.21 3.36 2.51 2.22 2.19 2.19 1.91
3443.225 1.63 1.4601 1.1979 0.9746 1.1831 1.4355 1.3681 1.454 1.4203 1.344
3462.515 1.278 1.2032 1.2953 1.5116 1.66 1.76 1.81 1.94 2.18 2.42
3481.805 2.64 2.42 2.57 2.7 2.56 2.31 2.44 2.34 2.18 2.78
3501.095 2.72 2.7 3 2.64 2.3 2.35 2.29 2.59 2.76 2.59
3520.385 2.23 1.53 1.4521 1.59 1.2152 0.8833 0.9394 1.1193 1.1975 1.2403
3539.674 1.2564 1.3615 0.8145 0.703 1.0935 0.8579 0.8562 0.4444 0.174 0.7408
3558.964 0.7211 0.60251 0.4931 0.56403 0.9354 1.024 1.0369 0.9992 0.9784 1.109
3578.254 1.1478 0.9215 0.918 0.7505 0.7531 0.7893 0.4214 0.4946 0.8833 0.8168
3597.544 0.7596 0.9943 0.8487 0.8075 0.8971 1.0616 1.3073 0.9784 0.4815 0.37
3616.833 0.524595 0.9133 0.9438 0.6146 0.35 0.9561 1.0267 0.238 0.7397 0.8558
3636.123 0.55504 0.5132 0.6584 1.0524 1.008 0.6444 0.7546 0.7535 0.4479 0.4842
3655.413 0.6994 0.7375 0.9429 1.1032 0.8678 0.6645 0.198 0.4801 0.9338 1.0009
3674.703 1.1871 0.7126 0.54082 0.7355 0.4821 0.9754 1.1452 0.471 0.31 0.632
3693.993 0.8406 0.6471 0.8765 0.9458 0.8879 0.8696 1.0214 1.103 1.2433 1.4954
3713.282 1.4048 1.4097 1.1778 1.1988 1.2397 0.9413 1.0358 1.1611 0.8859 0.9788
3732.572 1.1653 0.9882 0.7006 0.7488 1.1782 1.3208 0.8837 0.401 0.6735 0.7393
3751.862 0.7502 0.8018 0.9629 1.1343 0.8748 0.8358 0.56218 0.5598 0.9462 0.6864
3771.152 0.6834 0.6856 0.327 0.403 0.367 0.412 0.412 0.525691 0.4898 0.8164
3790.441 1.2334 0.5081 0.362 1.1309 1.2576 0.9671 0.7332 1.1224 1.69 1.4787
3809.731 0.87 0.526691 0.8343 1.1904 1.3841 1.0973 0.7981 0.7258 0.7681 0.9483
3829.021 0.999 1.0802 1.3897 1.58 1.2078 1.4305 1.57 1.4927 1.69 1.64
3848.311 1.65 1.4848 1.0988 1.098 1.2948 1.3253 1.4755 1.74 1.5168 1.257
3867.601 1.1845 1.3266 1.5019 1.2324 1.3411 1.3909 1.52 1.66 1.1899 0.8608
3886.890 0.55445 0.067 0.334 1.0527 1.1808 0.8954 0.6512 0.8516 0.8227 0.53852
3906.180 0.7576 0.4347 0.144 0.6387 1.0231 0.8394 0.749 0.8146 0.8631 1.1023
3925.470 1.1847 1.2708 1.2806 1.2649 1.1965 1.152 1.0849 0.6601 0.273 0.4325
3944.760 0.8081 0.7337 0.54534 0.631 0.7453 1.2478 1.4071 1.0702 1.1379 1.2865
3964.049 1.2247 1.357 1.157 1.0666 1.1911 0.7803 0.4286 0.54362 0.7073 0.8784
3983.339 1.2611 1.1857 0.8693 0.705 0.9476 0.8326 0.60073 0.6792 0.6585 0.468
##END=
