##TITLE=1-Phenyl-1-pentanone
##JCAMP-DX=4.24
##DATA TYPE=INFRARED SPECTRUM
##ORIGIN=NIST Mass Spectrometry Data Center
##OWNER=NIST Standard Reference Data Program
Collection (C) 2018 copyright by the U.S. Secretary of Commerce
on behalf of the United States of America. All rights reserved.
##CAS REGISTRY NO=1009-14-9
##MOLFORM=C 11 H 14 O
##$NIST SOURCE=MSDC-IR
##SPECTROMETER/DATA SYSTEM=HP-GC/MS/IRD
##STATE=gas
##XUNITS=1/CM
##YUNITS=ABSORBANCE
##XFACTOR=1.0
##YFACTOR=0.000001900
##DELTAX=4.0
##FIRSTX=550.0
##LASTX=3846.0
##FIRSTY=0.000762
##MAXX=3846
##MINX=550
##MAXY=0.019
##MINY=0
##NPOINTS=825
##XYDATA=(X++(Y..Y))
550.0 401 399 336 465 497 565 556 529 510 494
590.0 515 535 593 631 589 503 347 252 242 199
630.0 156 197 285 393 538 705 820 896 928 940
670.0 1065 1357 1796 2334 2945 3377 3342 2947 2409 1868
710.0 1484 1293 1230 1274 1391 1540 1686 1807 1844 1814
750.0 1721 1532 1340 1197 1077 964 859 792 695 580
790.0 478 377 289 215 168 136 93 70 68 22
830.0 2 21 17 22 46 62 67 74 92 137
870.0 177 206 244 264 268 259 226 206 212 241
910.0 257 260 279 305 335 380 452 532 647 787
950.0 911 1039 1120 1140 1104 1017 925 850 791 794
990.0 902 1170 1616 2130 2554 2710 2443 1877 1277 815
1030.0 521 368 283 230 229 230 206 214 228 230
1070.0 244 246 244 256 264 286 323 372 425 432
1110.0 379 317 273 215 186 189 197 218 257 316
1150.0 367 436 536 658 866 1242 1802 2269 2488 2511
1190.0 2419 2576 3064 3558 3793 3669 3282 2829 2475 2276
1230.0 2235 2331 2532 2799 3097 3383 3642 3811 3834 3669
1270.0 3307 2859 2452 2181 2017 1888 1767 1662 1600 1608
1310.0 1682 1782 1852 1867 1824 1773 1757 1794 1879 1950
1350.0 1968 1908 1799 1655 1487 1327 1188 1062 963 871
1390.0 761 646 581 569 598 626 652 685 704 730
1430.0 805 976 1285 1694 2040 2153 2036 1701 1402 1205
1470.0 1043 885 719 564 460 395 335 292 267 242
1510.0 230 223 219 226 226 214 212 213 217 214
1550.0 213 230 257 303 367 461 586 695 766 820
1590.0 861 883 906 853 716 566 442 365 319 283
1630.0 267 273 298 339 395 471 570 673 798 973
1670.0 1215 1571 2148 3085 4515 6309 8179 9615 10000 9186
1710.0 7436 5262 3371 2141 1432 1027 793 649 536 447
1750.0 392 345 302 273 255 237 217 196 180 177
1790.0 177 197 232 256 273 266 231 188 151 121
1830.0 94 73 70 74 73 71 74 73 78 86
1870.0 89 111 129 141 166 167 162 172 168 151
1910.0 136 121 98 83 82 83 88 105 132 155
1950.0 167 182 194 193 189 163 128 102 77 66
1990.0 57 38 25 30 32 35 24 22 29 27
2030.0 24 26 26 29 24 18 22 30 21 6
2070.0 12 18 5 0 7 10 8 4 3 7
2110.0 6 12 18 9 12 21 20 15 5 12
2150.0 16 12 8 4 8 15 13 8 13 9
2190.0 4 2 2 10 16 16 15 14 17 17
2230.0 13 10 15 22 15 6 10 27 26 21
2270.0 23 35 42 30 28 31 33 36 36 38
2310.0 43 54 67 64 54 55 49 45 46 41
2350.0 34 28 27 17 13 27 28 21 26 32
2390.0 36 38 36 35 29 33 38 30 25 25
2430.0 28 25 23 34 42 33 20 18 24 23
2470.0 12 12 23 19 11 18 16 13 11 6
2510.0 11 9 13 16 7 14 12 8 15 20
2550.0 25 11 2 14 20 28 30 23 29 38
2590.0 45 45 39 45 44 36 47 55 41 35
2630.0 41 45 36 41 59 53 52 57 58 57
2670.0 56 55 65 72 81 71 62 65 66 66
2710.0 59 62 65 70 89 93 99 123 126 132
2750.0 138 137 137 134 125 134 147 147 169 178
2790.0 185 216 241 255 274 300 329 358 387 423
2830.0 445 483 546 613 703 837 1042 1312 1621 1951
2870.0 2284 2559 2759 2851 2843 2741 2577 2485 2502 2598
2910.0 2740 2922 3181 3495 3883 4332 4788 5187 5404 5382
2950.0 5260 5224 5450 5957 6428 6426 5796 4708 3493 2545
2990.0 1916 1509 1255 1072 938 856 834 847 887 959
3030.0 1054 1136 1204 1223 1192 1171 1235 1393 1626 1963
3070.0 2201 2219 2067 1807 1603 1482 1343 1140 919 730
3110.0 551 398 295 225 171 152 149 133 129 135
3150.0 131 139 142 125 109 98 81 79 92 79
3190.0 43 44 67 61 55 40 28 30 38 35
3230.0 27 34 28 6 1 1 2 13 11 6
3270.0 26 36 30 26 22 27 34 29 25 8
3310.0 12 26 0 13 32 5 17 44 58 57
3350.0 36 51 75 100 131 130 124 140 157 164
3390.0 163 156 131 122 106 70 69 53 16 12
3430.0 20 28 35 35 35 20 26 28 8 8
3470.0 0 6 37 31 21 27 21 20 19 8
3510.0 0 29 46 23 19 7 16 40 39 51
3550.0 66 52 38 30 35 41 13 1 15 24
3590.0 25 31 35 27 27 42 39 28 23 40
3630.0 65 45 46 41 31 42 43 47 42 27
3670.0 36 46 63 66 29 25 51 65 59 45
3710.0 46 49 53 50 47 41 31 28 23 29
3750.0 21 19 40 32 26 36 30 30 35 43
3790.0 30 2 7 39 36 28 40 56 52 35
3830.0 31 34 34 28 27
##END=
