##TITLE=Hexamethylcyclotrisilazane
##JCAMP-DX=4.24
##DATA TYPE=INFRARED SPECTRUM
##ORIGIN=EPA-IR VAPOR PHASE LIBRARY
##OWNER=SRD/NIST
Collection (C) 2018 copyright by the U.S. Secretary of Commerce
on behalf of the United States of America. All rights reserved.
##CAS REGISTRY NO=1009-93-4
##MOLFORM=C 6 H 21 N 3 Si 3
##$NIST SOURCE=MSDC-IR
##STATE=gas
##XUNITS=1/CM
##YUNITS=ABSORBANCE
##XFACTOR=1.
##YFACTOR=0.001
##DELTAX=3.85796
##FIRSTX=501.5
##LASTX=4000.7
##FIRSTY=5.676
##MAXX=4000.7
##MINX=501.534
##MAXY=0.489286
##MINY=0
##NPOINTS=908
##XYDATA=(X++(Y..Y))
501.534 5.676 5.296 5.236 5.016 4.936 4.896 4.776 4.846 4.856 4.976
540.114 5.046 5.066 5.276 5.466 5.636 5.896 6.206 6.516 6.906 7.576
578.693 8.316 9.156 10.346 11.966 14.236 17.506 22.086 27.806 33.886 38.966
617.273 41.226 39.826 35.596 30.006 24.796 21.006 18.536 17.096 16.406 16.136
655.852 16.266 16.796 17.806 19.346 21.286 23.386 24.976 25.316 24.416 22.736
694.432 20.996 19.676 18.806 18.386 18.336 18.606 19.176 19.886 20.646 21.426
733.011 22.126 22.686 23.156 23.736 24.596 25.916 27.866 30.686 34.666 40.386
771.591 48.716 60.646 76.976 97.536 119.626 137.676 144.786 139.496 127.966 116.866
810.170 110.026 105.936 100.856 92.876 82.986 73.496 66.176 61.366 58.476 57.096
848.750 56.686 56.876 57.506 58.306 59.096 59.716 60.146 60.576 61.336 62.756
887.330 65.306 69.496 75.876 85.776 101.176 125.006 161.616 216.356 291.836 380.246
925.909 457.246 489.286 458.456 379.866 288.586 210.416 152.616 112.086 83.936 64.356
964.489 50.726 41.216 34.616 30.156 27.156 24.936 23.126 21.416 19.526 17.616
1003.068 15.826 14.166 12.796 11.766 10.986 10.386 9.946 9.686 9.506 9.316
1041.648 9.206 9.166 9.226 9.376 9.586 9.866 10.076 10.316 10.766 11.276
1080.227 11.856 12.616 13.436 14.446 15.676 17.086 18.826 20.856 23.196 25.816
1118.807 28.866 32.746 37.656 44.266 53.246 65.506 82.506 106.546 139.786 183.646
1157.387 235.586 286.506 320.746 324.226 294.856 244.006 187.876 139.566 103.906 79.426
1195.966 63.106 52.206 44.916 39.896 36.666 35.036 34.616 35.226 36.386 38.396
1234.546 41.866 48.126 60.086 81.646 111.566 144.436 161.606 147.466 115.276 79.116
1273.125 51.116 35.226 26.676 21.696 18.516 16.326 14.586 13.146 11.866 10.736
1311.705 9.766 8.956 8.276 7.736 7.296 6.946 6.676 6.486 6.406 6.366
1350.284 6.296 6.186 6.016 5.766 5.556 5.416 5.356 5.476 5.766 6.186
1388.864 6.626 7.006 7.276 7.396 7.336 7.106 6.726 6.286 5.856 5.526
1427.443 5.336 5.276 5.316 5.316 5.236 5.046 4.746 4.436 4.136 3.926
1466.023 3.816 3.756 3.746 3.786 3.826 3.866 3.896 3.946 3.986 3.956
1504.603 3.856 3.676 3.506 3.366 3.236 3.126 3.066 3.036 3.056 3.106
1543.182 3.146 3.176 3.166 3.156 3.106 2.966 2.836 2.676 2.486 2.286
1581.762 2.126 1.996 1.876 1.766 1.686 1.626 1.586 1.546 1.506 1.476
1620.341 1.446 1.446 1.426 1.376 1.346 1.286 1.226 1.196 1.101 1.0002
1658.921 0.9511 0.9036 0.8517 0.8246 0.8199 0.8131 0.8054 0.8006 0.7992 0.7907
1697.500 0.7745 0.7619 0.7765 0.7903 0.8 0.8135 0.8544 0.9171 0.9494 0.9984
1736.080 1.064 1.1318 1.1874 1.216 1.256 1.306 1.316 1.306 1.306 1.316
1774.659 1.336 1.346 1.366 1.376 1.356 1.316 1.306 1.246 1.196 1.1599
1813.239 1.0932 1.0505 1.0136 0.9762 0.9573 0.9585 0.9894 1.0283 1.0631 1.1091
1851.819 1.1528 1.216 1.296 1.376 1.436 1.466 1.466 1.406 1.326 1.266
1890.398 1.226 1.1801 1.123 1.14 1.216 1.286 1.366 1.466 1.546 1.646
1928.978 1.746 1.766 1.736 1.676 1.566 1.466 1.406 1.366 1.316 1.276
1967.557 1.236 1.216 1.1942 1.1719 1.1637 1.1565 1.1323 1.1175 1.1082 1.0717
2006.137 1.0425 1.0183 0.9975 0.9972 1.0255 1.0628 1.0986 1.0923 1.0327 0.9924
2044.716 0.9815 0.9618 0.9219 0.8978 0.8957 0.8888 0.8711 0.8525 0.8666 0.8902
2083.296 0.891 0.892 0.9099 0.9046 0.8551 0.8313 0.8125 0.7751 0.74 0.7138
2121.875 0.6925 0.652 0.6163 0.584 0.5635 0.5428 0.5097 0.487 0.4721 0.4451
2160.455 0.4394 0.46 0.4514 0.4487 0.4632 0.4572 0.4716 0.4648 0.437 0.4128
2199.035 0.3964 0.3995 0.4036 0.4303 0.4361 0.4226 0.4247 0.4374 0.443 0.4442
2237.614 0.4243 0.4148 0.4235 0.4469 0.4574 0.4485 0.4527 0.4494 0.4442 0.446
2276.194 0.4457 0.4366 0.437 0.4162 0.4055 0.3876 0.3481 0.3379 0.3165 0.27254
2314.773 0.2354 0.21465 0.19399 0.1722 0.158 0.1685 0.1846 0.167 0.1454 0.1259
2353.353 0.1265 0.1321 0.1086 0.1075 0.096 0.083 0.093 0.088 0.059 0.028
2391.932 0.028 0.045 0.038 0.008 0.019 0.055 0.03 0.001 0.02 0.043
2430.512 0.039 0.033 0.043 0.05 0.051 0.071 0.1052 0.1045 0.089 0.089
2469.092 0.1074 0.1268 0.1505 0.18973 0.2476 0.3219 0.3629 0.3801 0.3433 0.25706
2507.671 0.195736 0.1282 0.075 0.051 0.039 0.045 0.037 0.025 0.025 0.03
2546.251 0.037 0.01 0.009 0.036 0.042 0.022 0 0.011 0.007 0.003
2584.830 0.011 0.026 0.031 0.018 0.01 0.033 0.066 0.078 0.089 0.0999
2623.410 0.1082 0.108 0.1256 0.18753 0.21683 0.23567 0.2988 0.3409 0.3207 0.3311
2661.989 0.3514 0.3418 0.3438 0.3567 0.3554 0.3653 0.3921 0.3857 0.3622 0.3641
2700.569 0.3972 0.3982 0.3874 0.4023 0.4285 0.4414 0.4911 0.5578 0.6055 0.627
2739.148 0.6647 0.7594 0.8339 0.8895 0.9597 1.0927 1.236 1.416 1.646 1.866
2777.728 2.156 2.436 2.736 3.096 3.436 3.786 4.116 4.386 4.586 4.746
2816.308 4.876 4.956 5.056 5.176 5.306 5.426 5.576 5.766 5.966 6.196
2854.887 6.446 6.766 7.196 7.706 8.306 9.116 10.216 11.746 13.836 16.556
2893.467 19.666 22.536 24.196 23.816 21.506 18.266 15.186 12.996 12.016 12.226
2932.046 13.626 16.576 21.856 30.946 45.006 62.566 78.926 87.526 84.486 70.496
2970.626 51.766 35.106 23.166 16.036 11.976 9.536 7.986 6.936 6.196 5.686
3009.205 5.376 5.146 5.026 4.996 4.996 5.126 5.316 5.536 5.766 6.026
3047.785 6.276 6.446 6.576 6.636 6.616 6.566 6.426 6.296 6.176 6.066
3086.364 5.966 5.836 5.736 5.616 5.386 5.076 4.796 4.466 4.166 3.866
3124.944 3.496 3.116 2.836 2.566 2.296 2.096 1.886 1.676 1.496 1.386
3163.524 1.316 1.236 1.1902 1.177 1.1574 1.1492 1.1047 1.0498 0.998 0.9381
3202.103 0.931 0.9015 0.8931 0.9386 0.9235 0.8851 0.8589 0.786 0.7492 0.7071
3240.683 0.6194 0.5717 0.5465 0.526 0.5639 0.5787 0.5302 0.5277 0.5382 0.5031
3279.262 0.475 0.4754 0.4528 0.4452 0.4204 0.4411 0.517 0.4988 0.4779 0.4802
3317.842 0.4609 0.5177 0.5873 0.6186 0.6639 0.7055 0.7819 0.8688 0.9617 1.1146
3356.421 1.196 1.356 1.666 2.016 2.386 2.796 3.356 4.166 5.206 6.496
3395.001 8.186 10.136 11.816 12.726 12.586 11.416 9.556 7.576 5.946 4.806
3433.580 3.996 3.446 3.056 2.626 2.306 2.076 1.826 1.586 1.386 1.266
3472.160 1.1027 0.9805 0.9767 0.9201 0.7989 0.7119 0.638 0.6335 0.6506 0.6405
3510.740 0.6104 0.6146 0.612 0.5804 0.6015 0.632 0.6613 0.6969 0.7072 0.6679
3549.319 0.7136 0.8036 0.843 0.8878 0.9318 0.9445 0.9552 1.0083 1.0066 0.9832
3587.899 1.0046 1.0212 1.0166 0.9692 0.9686 1.0436 1.0616 1.1299 1.1862 1.196
3626.478 1.266 1.346 1.366 1.386 1.406 1.376 1.326 1.316 1.376 1.376
3665.058 1.336 1.376 1.426 1.426 1.396 1.396 1.526 1.576 1.526 1.506
3703.637 1.426 1.476 1.566 1.586 1.616 1.586 1.506 1.506 1.466 1.366
3742.217 1.276 1.226 1.236 1.216 1.1778 1.107 1.1022 1.1242 1.0572 1.0236
3780.797 0.9752 0.9226 0.9133 0.8651 0.877 0.8481 0.7649 0.7971 0.8441 0.8438
3819.376 0.8872 0.9172 0.9307 0.9239 0.8562 0.8468 0.8448 0.7497 0.6749 0.5958
3857.956 0.5913 0.6281 0.5744 0.5362 0.5446 0.5476 0.5817 0.5861 0.5265 0.487
3896.535 0.4633 0.4558 0.4334 0.441 0.41 0.3444 0.3336 0.3301 0.314 0.3
3935.115 0.28639 0.2722 0.3099 0.3099 0.3011 0.3199 0.3202 0.3323 0.3199 0.3257
3973.694 0.3612 0.3828 0.3866 0.3336 0.3573 0.3656 0.3144 0.392
##END=
