##TITLE=2,4,6-Triethyltriazine
##JCAMP-DX=4.24
##DATA TYPE=INFRARED SPECTRUM
##ORIGIN=NIST Mass Spectrometry Data Center
##OWNER=NIST Standard Reference Data Program
Collection (C) 2018 copyright by the U.S. Secretary of Commerce
on behalf of the United States of America. All rights reserved.
##CAS REGISTRY NO=1009-74-1
##MOLFORM=C 9 H 15 N 3
##$NIST SOURCE=MSDC-IR
##SPECTROMETER/DATA SYSTEM=HP-GC/MS/IRD
##STATE=gas
##XUNITS=1/CM
##YUNITS=ABSORBANCE
##XFACTOR=1.0
##YFACTOR=0.000009500
##DELTAX=4.0
##FIRSTX=550.0
##LASTX=3846.0
##FIRSTY=0.001672
##MAXX=3846
##MINX=550
##MAXY=0.095
##MINY=0
##NPOINTS=825
##XYDATA=(X++(Y..Y))
550.0 176 178 172 153 131 107 77 57 46 32
590.0 20 13 19 21 20 18 14 10 7 7
630.0 9 6 5 6 5 1 0 7 7 1
670.0 2 7 4 1 8 12 10 9 8 6
710.0 7 5 1 0 1 6 3 4 4 2
750.0 1 2 10 10 8 9 10 9 9 12
790.0 12 11 16 19 22 23 25 34 44 55
830.0 80 114 156 211 264 273 238 198 161 137
870.0 132 147 186 252 343 448 534 581 563 472
910.0 339 222 147 102 77 61 50 44 39 37
950.0 35 36 37 40 44 45 49 53 55 61
990.0 68 74 79 80 79 75 71 65 56 55
1030.0 59 63 74 88 103 124 146 167 183 195
1070.0 202 205 201 195 185 167 142 119 103 89
1110.0 77 68 61 60 60 58 57 58 54 52
1150.0 51 51 49 50 51 46 44 44 42 42
1190.0 41 39 40 40 42 43 45 49 46 47
1230.0 52 53 56 61 70 76 81 94 109 124
1270.0 145 171 208 256 314 399 510 639 758 827
1310.0 824 758 652 537 443 381 343 332 340 369
1350.0 418 498 604 727 845 940 1012 1085 1169 1279
1390.0 1408 1502 1509 1409 1226 1019 851 747 703 694
1430.0 696 696 693 687 689 707 747 801 842 850
1470.0 823 763 684 617 589 596 636 716 842 1033
1510.0 1319 1738 2350 3233 4447 6001 7746 9271 10000 9498
1550.0 7889 5890 4135 2852 2004 1444 1076 821 644 519
1590.0 428 361 306 266 234 206 184 165 151 139
1630.0 129 120 111 104 98 93 87 81 76 74
1670.0 72 67 62 61 58 54 51 50 47 44
1710.0 41 38 36 34 33 30 30 30 29 28
1750.0 29 29 29 31 31 29 25 21 19 19
1790.0 18 16 17 16 15 16 15 14 14 16
1830.0 17 16 14 14 15 15 14 16 18 20
1870.0 20 20 22 22 24 26 24 22 20 15
1910.0 16 16 15 16 15 14 15 18 20 20
1950.0 21 21 22 21 21 20 19 18 18 17
1990.0 16 14 14 16 15 15 12 15 18 17
2030.0 18 20 20 21 23 23 22 22 24 24
2070.0 24 25 25 24 23 22 20 17 17 18
2110.0 18 16 17 16 15 17 18 17 16 15
2150.0 16 15 13 13 12 12 11 11 10 7
2190.0 7 7 8 9 9 8 8 8 7 7
2230.0 10 9 8 9 11 12 13 14 17 18
2270.0 20 25 27 27 28 29 29 28 27 25
2310.0 22 20 19 18 19 18 20 21 20 20
2350.0 21 23 26 28 30 30 31 31 30 30
2390.0 29 26 25 23 21 20 19 20 21 21
2430.0 20 20 21 23 26 28 27 26 22 17
2470.0 15 15 16 18 17 17 21 24 25 26
2510.0 28 30 31 30 31 31 29 27 24 22
2550.0 20 15 11 9 6 6 5 3 2 0
2590.0 0 3 5 4 4 5 5 3 3 5
2630.0 4 2 1 3 4 6 8 9 9 11
2670.0 9 10 14 15 14 16 19 20 21 22
2710.0 25 26 26 31 33 32 34 36 36 35
2750.0 35 35 35 36 35 37 39 41 43 45
2790.0 48 52 55 57 62 66 71 77 84 91
2830.0 99 107 119 131 141 154 170 192 218 247
2870.0 283 331 400 484 572 640 677 681 661 633
2910.0 621 628 650 677 711 762 842 977 1153 1295
2950.0 1361 1345 1256 1161 1148 1263 1507 1779 1936 1920
2990.0 1713 1374 1062 849 707 595 497 412 336 271
3030.0 220 179 147 123 105 95 89 86 81 76
3070.0 75 76 75 75 77 77 78 74 72 71
3110.0 69 68 66 61 60 60 57 51 51 53
3150.0 51 47 45 42 42 43 38 31 32 33
3190.0 31 29 25 22 21 21 18 17 19 17
3230.0 13 15 12 11 14 15 12 11 13 9
3270.0 7 7 8 7 4 6 9 10 9 8
3310.0 10 8 6 7 6 7 9 8 6 6
3350.0 5 7 6 6 7 5 4 8 7 0
3390.0 2 6 6 6 8 5 5 7 10 10
3430.0 8 9 8 8 5 3 6 7 5 6
3470.0 10 10 9 6 5 4 5 7 5 8
3510.0 9 5 2 4 6 6 9 10 7 8
3550.0 10 8 9 8 6 7 10 11 7 6
3590.0 7 7 5 3 5 6 5 4 7 9
3630.0 7 8 7 6 9 6 6 5 5 8
3670.0 7 9 10 8 11 9 3 4 7 7
3710.0 9 10 11 10 11 12 12 14 12 10
3750.0 14 13 9 7 14 14 12 14 14 11
3790.0 11 10 11 10 8 10 12 11 11 10
3830.0 11 15 12 10 13
##END=
