##TITLE=4,4'-Methylenedianiline
##JCAMP-DX=4.24
##DATA TYPE=INFRARED SPECTRUM
##ORIGIN=NIST Mass Spectrometry Data Center
##OWNER=NIST Standard Reference Data Program
Collection (C) 2018 copyright by the U.S. Secretary of Commerce
on behalf of the United States of America. All rights reserved.
##CAS REGISTRY NO=101-77-9
##MOLFORM=C 13 H 14 N 2
##$NIST SOURCE=MSDC-IR
##SPECTROMETER/DATA SYSTEM=HP-GC/MS/IRD
##STATE=gas
##XUNITS=1/CM
##YUNITS=ABSORBANCE
##XFACTOR=1.0
##YFACTOR=0.000002100
##DELTAX=4.0
##FIRSTX=550.0
##LASTX=3846.0
##FIRSTY=0.002312
##MAXX=3846
##MINX=550
##MAXY=0.021
##MINY=0
##NPOINTS=825
##XYDATA=(X++(Y..Y))
550.0 1101 1203 1015 1338 1445 1436 1244 977 771 627
590.0 567 561 523 514 580 618 653 753 893 1092
630.0 1352 1687 2160 2666 3085 3298 3211 2940 2668 2479
670.0 2345 2242 2114 1947 1756 1540 1381 1293 1182 1081
710.0 989 904 856 832 798 753 729 728 735 777
750.0 899 1050 1207 1345 1419 1413 1346 1334 1388 1470
790.0 1652 1899 2145 2358 2477 2546 2520 2428 2287 2037
830.0 1747 1447 1179 995 857 722 605 501 414 351
870.0 318 296 275 260 265 257 248 230 214 214
910.0 194 193 196 161 154 161 160 155 145 143
950.0 136 126 153 178 173 201 242 249 244 235
990.0 225 205 179 152 165 252 295 250 152 71
1030.0 87 122 124 144 178 215 272 363 460 542
1070.0 616 678 702 702 637 563 510 408 338 345
1110.0 399 463 524 558 534 442 317 235 165 112
1150.0 82 49 64 120 269 766 1524 1912 1622 881
1190.0 361 226 179 161 149 135 130 139 148 181
1230.0 249 359 543 834 1256 1897 2874 4170 5461 6154
1270.0 5872 4798 3494 2391 1598 1080 773 622 563 539
1310.0 513 482 460 436 399 353 287 205 155 119
1350.0 80 55 30 1 0 7 6 17 28 21
1390.0 16 19 35 70 97 131 171 205 262 329
1430.0 388 434 485 515 486 439 376 323 328 330
1470.0 342 394 481 620 823 1160 1733 2706 4303 6673
1510.0 9156 10000 8555 5859 3609 2299 1533 1069 810 685
1550.0 596 536 503 525 557 583 629 701 789 867
1590.0 973 1127 1368 1721 2248 3030 4099 5464 6726 7199
1630.0 6504 4909 3234 2070 1362 955 720 602 534 484
1670.0 421 343 286 246 229 244 225 217 240 260
1710.0 256 208 166 165 147 109 96 124 153 158
1750.0 152 153 137 107 75 49 55 69 55 47
1790.0 38 36 35 38 49 51 52 58 68 76
1830.0 90 105 124 141 156 182 203 217 239 249
1870.0 248 250 242 222 185 164 155 143 134 130
1910.0 129 128 121 116 116 113 112 106 93 92
1950.0 90 88 90 78 76 78 76 71 65 56
1990.0 49 62 80 78 77 82 85 93 113 126
2030.0 124 119 120 115 104 107 117 116 115 118
2070.0 124 120 112 108 106 106 111 110 110 104
2110.0 97 93 86 82 78 76 74 77 77 78
2150.0 76 68 70 73 79 81 84 91 86 84
2190.0 88 86 86 84 66 53 74 82 77 82
2230.0 78 77 83 85 86 94 92 97 115 116
2270.0 111 116 121 123 115 104 99 99 96 96
2310.0 101 86 72 73 69 65 69 77 88 84
2350.0 77 68 47 42 41 48 56 63 74 70
2390.0 63 69 74 71 72 73 74 71 65 64
2430.0 64 72 81 86 88 86 83 68 64 76
2470.0 76 73 73 66 61 59 54 51 61 67
2510.0 70 84 94 99 106 106 108 116 99 82
2550.0 82 89 78 59 60 73 76 78 74 70
2590.0 81 95 93 88 90 102 101 95 99 101
2630.0 103 90 77 81 95 91 78 70 77 77
2670.0 62 62 69 74 72 70 70 70 67 70
2710.0 82 87 74 70 80 82 84 89 90 88
2750.0 85 87 101 92 70 67 79 91 87 85
2790.0 80 71 73 90 95 99 105 113 125 154
2830.0 197 255 334 406 468 509 518 484 419 363
2870.0 353 345 339 343 361 405 475 590 749 956
2910.0 1163 1278 1298 1220 1052 847 648 498 393 318
2950.0 265 234 231 227 211 226 254 302 387 492
2990.0 665 928 1274 1658 1950 2086 2163 2294 2515 2777
3030.0 2890 2725 2337 1901 1606 1478 1405 1310 1156 999
3070.0 854 724 623 558 505 484 474 429 405 374
3110.0 339 312 288 271 256 235 217 207 186 167
3150.0 142 126 129 132 129 122 125 111 87 92
3190.0 124 138 135 125 131 154 180 191 190 189
3230.0 187 184 169 171 171 166 138 127 148 141
3270.0 120 112 125 111 90 98 124 132 90 72
3310.0 77 111 140 116 94 101 112 106 93 102
3350.0 110 111 128 136 146 157 168 203 239 296
3390.0 405 543 702 821 865 823 699 562 423 350
3430.0 330 324 278 233 232 258 254 266 317 338
3470.0 377 425 481 539 587 583 561 498 424 382
3510.0 312 244 206 191 176 164 145 148 137 108
3550.0 117 125 147 138 95 103 128 125 111 88
3590.0 99 114 116 155 154 142 154 107 94 71
3630.0 93 155 149 136 96 89 140 165 178 161
3670.0 131 132 136 138 121 138 184 189 180 169
3710.0 149 153 155 143 155 154 123 133 106 75
3750.0 116 145 174 187 167 165 176 163 160 147
3790.0 148 153 164 183 189 181 170 180 191 204
3830.0 210 199 173 180 209
##END=
