##TITLE=Chlorpropham
##JCAMP-DX=4.24
##DATA TYPE=INFRARED SPECTRUM
##ORIGIN=NIST Mass Spectrometry Data Center
##OWNER=NIST Standard Reference Data Program
Collection (C) 2018 copyright by the U.S. Secretary of Commerce
on behalf of the United States of America. All rights reserved.
##CAS REGISTRY NO=101-21-3
##MOLFORM=C 10 H 12 Cl N O 2
##$NIST SOURCE=MSDC-IR
##SPECTROMETER/DATA SYSTEM=HP-GC/MS/IRD
##STATE=gas
##XUNITS=1/CM
##YUNITS=ABSORBANCE
##XFACTOR=1.0
##YFACTOR=0.000008700
##DELTAX=4.0
##FIRSTX=550.0
##LASTX=3846.0
##FIRSTY=0.002471
##MAXX=3846
##MINX=550
##MAXY=0.087
##MINY=0
##NPOINTS=825
##XYDATA=(X++(Y..Y))
550.0 284 216 172 135 111 98 81 62 50 41
590.0 34 30 34 46 50 49 37 22 6 0
630.0 4 10 24 40 45 46 67 105 171 287
670.0 427 567 668 689 668 634 585 493 375 289
710.0 246 223 209 192 179 182 188 200 226 263
750.0 340 476 699 1008 1342 1553 1551 1340 1012 716
790.0 503 374 304 273 276 308 372 485 635 745
830.0 741 628 476 387 380 389 380 365 370 411
870.0 477 539 585 647 786 979 1149 1232 1184 989
910.0 713 529 485 512 540 535 484 411 329 246
950.0 190 157 133 111 110 116 118 133 163 206
990.0 287 392 453 444 411 424 510 654 825 1011
1030.0 1209 1419 1588 1654 1581 1411 1220 1052 947 905
1070.0 951 1076 1208 1303 1409 1676 2117 2539 2916 3451
1110.0 4182 4721 4663 4090 3440 3001 2752 2582 2407 2194
1150.0 1997 1923 2055 2342 2702 3167 3794 4450 4914 5389
1190.0 6375 7977 9535 10000 8919 6912 5027 3770 3073 2822
1230.0 2831 2810 2546 2135 1839 1720 1723 1861 2152 2397
1270.0 2365 2102 1899 1930 2097 2282 2443 2548 2562 2461
1310.0 2261 2000 1715 1450 1233 1076 979 941 938 959
1350.0 998 1068 1185 1355 1543 1678 1734 1751 1814 2015
1390.0 2244 2326 2290 2299 2496 2799 2991 2946 2746 2445
1430.0 2021 1622 1376 1275 1237 1228 1255 1318 1431 1633
1470.0 1946 2404 2995 3616 4050 4199 4300 4706 5484 6453
1510.0 7353 7798 7538 6581 5284 4045 3043 2277 1706 1331
1550.0 1112 991 944 959 1058 1265 1612 2145 2854 3718
1590.0 4633 5307 5302 4433 3094 1922 1199 805 591 464
1630.0 386 333 292 263 245 233 226 225 229 233
1670.0 237 243 259 279 307 338 371 406 447 496
1710.0 546 600 674 791 985 1317 1887 2819 4154 5600
1750.0 6751 7353 7275 6633 5384 3726 2383 1573 1109 821
1790.0 629 503 427 388 366 348 336 322 304 281
1830.0 254 221 190 167 147 134 124 108 90 76
1870.0 69 63 57 53 49 47 49 49 52 59
1910.0 62 62 58 54 53 51 49 44 40 35
1950.0 28 22 20 20 16 12 12 10 7 7
1990.0 8 8 6 4 2 0 2 4 5 3
2030.0 2 4 6 10 13 14 15 13 11 12
2070.0 11 8 5 2 1 2 1 0 1 3
2110.0 2 2 5 6 7 9 12 9 7 6
2150.0 6 7 8 7 6 9 11 15 20 23
2190.0 26 31 37 42 44 48 53 56 62 67
2230.0 73 80 86 92 101 115 135 167 203 234
2270.0 252 250 227 188 149 120 102 86 71 62
2310.0 56 54 53 53 55 54 53 50 46 41
2350.0 40 43 45 43 42 41 36 32 25 21
2390.0 19 13 13 17 16 14 15 14 14 13
2430.0 16 18 17 16 17 16 15 15 12 10
2470.0 9 7 7 10 12 13 14 16 16 15
2510.0 18 22 24 23 23 20 18 19 17 16
2550.0 16 15 13 16 16 15 12 14 13 10
2590.0 12 10 8 6 4 1 1 5 5 4
2630.0 7 8 9 10 11 11 9 8 6 9
2670.0 12 15 17 19 22 22 21 19 19 20
2710.0 24 28 29 26 25 27 25 30 35 37
2750.0 36 29 26 23 21 27 29 24 23 27
2790.0 31 33 37 34 31 35 39 40 41 43
2830.0 47 50 52 51 52 58 70 87 99 112
2870.0 134 163 206 257 294 305 295 273 261 259
2910.0 263 274 294 326 374 439 530 646 751 783
2950.0 722 615 535 516 557 661 866 1244 1734 2058
2990.0 2017 1634 1169 820 588 448 356 294 265 258
3030.0 252 244 235 223 212 208 208 211 214 217
3070.0 226 242 254 269 278 262 227 182 154 133
3110.0 112 106 106 104 93 78 66 61 54 49
3150.0 51 51 50 45 38 42 46 51 54 47
3190.0 47 48 40 38 39 39 33 28 28 26
3230.0 21 18 19 20 16 11 14 17 11 5
3270.0 6 5 4 2 2 2 1 0 0 7
3310.0 8 4 12 17 15 13 8 5 4 6
3350.0 11 9 8 13 15 18 16 15 14 15
3390.0 24 27 32 30 31 39 40 46 59 73
3430.0 96 137 188 255 341 446 571 694 778 802
3470.0 744 605 442 299 207 164 139 125 110 95
3510.0 88 73 65 66 56 43 39 36 30 30
3550.0 21 21 22 17 17 16 11 16 17 13
3590.0 15 14 12 17 21 18 19 14 13 13
3630.0 6 6 12 14 11 17 19 14 15 19
3670.0 22 17 19 24 20 17 21 25 23 17
3710.0 18 19 19 20 18 23 20 15 25 24
3750.0 14 17 19 18 19 20 20 26 31 26
3790.0 21 16 13 13 18 21 20 20 20 16
3830.0 17 17 20 26 27
##END=
