##TITLE=Anilazine
##JCAMP-DX=4.24
##DATA TYPE=INFRARED SPECTRUM
##ORIGIN=NIST Mass Spectrometry Data Center
##OWNER=NIST Standard Reference Data Program
Collection (C) 2018 copyright by the U.S. Secretary of Commerce
on behalf of the United States of America. All rights reserved.
##CAS REGISTRY NO=101-05-3
##MOLFORM=C 9 H 5 Cl 3 N 4
##$NIST SOURCE=MSDC-IR
##SPECTROMETER/DATA SYSTEM=HP-GC/MS/IRD
##STATE=gas
##XUNITS=1/CM
##YUNITS=ABSORBANCE
##XFACTOR=1.0
##YFACTOR=0.000001000
##DELTAX=4.0
##FIRSTX=550.0
##LASTX=3846.0
##FIRSTY=0.000275
##MAXX=3846
##MINX=550
##MAXY=0.01
##MINY=0
##NPOINTS=825
##XYDATA=(X++(Y..Y))
550.0 275 155 230 260 148 155 188 239 274 176
590.0 192 231 284 434 500 484 421 306 193 210
630.0 292 290 296 319 263 218 287 391 402 333
670.0 302 292 309 324 409 473 385 332 331 332
710.0 363 344 278 326 377 418 507 595 675 699
750.0 660 556 447 349 285 330 277 254 322 331
790.0 318 362 419 485 530 479 428 427 479 636
830.0 706 665 616 522 512 525 516 536 548 555
870.0 604 640 650 682 638 561 523 503 482 471
910.0 472 429 409 356 294 312 334 334 324 314
950.0 298 271 303 353 377 430 448 430 405 364
990.0 398 420 425 476 568 683 765 664 510 489
1030.0 452 423 415 419 452 496 563 634 557 415
1070.0 370 297 276 337 307 349 352 233 259 320
1110.0 313 285 244 191 184 249 238 240 297 309
1150.0 313 380 460 477 477 423 250 148 71 21
1190.0 35 7 39 108 67 100 348 547 788 1118
1230.0 1251 1137 998 1142 1623 2125 2095 1569 958 616
1270.0 591 675 829 938 929 927 924 893 882 879
1310.0 839 760 659 562 477 428 418 412 429 464
1350.0 463 468 505 587 716 899 1150 1451 1691 1703
1390.0 1518 1225 982 804 681 592 516 484 485 484
1430.0 503 554 679 880 1031 1056 934 743 653 670
1470.0 711 721 690 649 657 709 794 938 1100 1291
1510.0 1546 1862 2201 2589 3159 4152 5910 8242 10000 9853
1550.0 7960 5781 4125 2904 2091 1661 1468 1425 1542 1718
1590.0 1778 1574 1229 957 721 575 499 441 407 375
1630.0 357 359 365 356 328 300 272 256 271 266
1670.0 251 252 230 218 221 213 216 221 217 215
1710.0 208 178 172 177 162 180 173 168 168 143
1750.0 138 148 163 177 160 135 141 167 174 178
1790.0 173 165 156 152 160 167 177 170 181 187
1830.0 190 185 170 174 172 161 168 168 149 163
1870.0 169 153 153 152 150 141 158 158 164 202
1910.0 207 179 181 188 180 195 180 180 194 191
1950.0 195 190 182 169 153 146 142 158 164 159
1990.0 165 175 172 152 155 169 173 145 116 140
2030.0 161 148 136 155 169 177 156 128 128 128
2070.0 141 154 150 134 137 145 158 147 125 132
2110.0 136 127 123 132 143 139 144 139 146 172
2150.0 171 160 159 161 150 157 173 168 150 133
2190.0 132 123 118 119 139 175 161 142 146 132
2230.0 123 103 116 154 136 134 121 104 112 118
2270.0 104 101 120 138 140 135 146 147 151 157
2310.0 147 150 170 161 153 160 159 168 173 169
2350.0 151 128 117 120 127 145 140 122 145 148
2390.0 139 144 127 111 139 165 154 133 134 128
2430.0 129 121 123 113 89 97 95 85 103 100
2470.0 75 87 121 116 102 115 124 133 120 116
2510.0 136 142 139 132 135 125 120 129 101 63
2550.0 82 110 113 113 125 126 117 122 111 103
2590.0 116 128 109 98 94 69 84 101 96 99
2630.0 101 78 61 67 68 61 88 87 76 71
2670.0 76 113 102 62 64 83 103 102 64 63
2710.0 81 93 104 113 111 66 28 42 50 63
2750.0 67 69 72 30 21 51 73 43 40 44
2790.0 14 11 37 55 61 53 69 58 82 89
2830.0 55 75 117 105 92 76 66 92 82 70
2870.0 34 15 41 76 74 68 82 46 49 82
2910.0 68 83 74 52 84 88 68 87 63 50
2950.0 82 102 91 84 78 71 83 90 96 54
2990.0 27 43 68 98 124 122 98 109 95 58
3030.0 50 83 98 64 62 108 123 138 157 180
3070.0 240 254 198 168 163 110 93 83 57 76
3110.0 91 56 94 122 80 90 129 130 100 99
3150.0 119 136 161 133 99 88 83 81 59 61
3190.0 59 78 97 119 107 75 88 76 70 52
3230.0 63 115 116 89 100 133 134 100 75 85
3270.0 86 109 145 81 60 149 164 106 70 97
3310.0 102 59 56 64 109 143 120 127 161 148
3350.0 109 143 139 132 148 157 216 255 246 245
3390.0 211 269 369 390 373 399 403 326 292 272
3430.0 240 214 174 151 190 174 117 93 84 68
3470.0 62 107 164 191 171 140 125 120 71 61
3510.0 74 52 87 113 103 38 0 78 102 78
3550.0 97 101 96 67 10 17 69 89 72 78
3590.0 74 121 146 137 143 115 60 38 100 124
3630.0 107 107 118 187 196 143 94 107 163 129
3670.0 117 92 61 87 116 147 149 180 204 119
3710.0 66 130 158 117 76 104 127 98 86 139
3750.0 195 239 181 49 84 179 207 219 187 152
3790.0 165 224 296 263 166 129 169 150 145 169
3830.0 151 213 257 251 182
##END=
