##TITLE=Amyl cinnamic alcohol
##JCAMP-DX=4.24
##DATA TYPE=INFRARED SPECTRUM
##ORIGIN=NIST Mass Spectrometry Data Center
##OWNER=NIST Standard Reference Data Program
Collection (C) 2018 copyright by the U.S. Secretary of Commerce
on behalf of the United States of America. All rights reserved.
##CAS REGISTRY NO=101-85-9
##MOLFORM=C 14 H 20 O
##$NIST SOURCE=MSDC-IR
##SPECTROMETER/DATA SYSTEM=HP-GC/MS/IRD
##STATE=gas
##XUNITS=1/CM
##YUNITS=ABSORBANCE
##XFACTOR=1.0
##YFACTOR=0.000003100
##DELTAX=4.0
##FIRSTX=550.0
##LASTX=3846.0
##FIRSTY=0.000440
##MAXX=3846
##MINX=550
##MAXY=0.031
##MINY=0
##NPOINTS=825
##XYDATA=(X++(Y..Y))
550.0 142 183 100 88 65 69 68 67 53 43
590.0 59 73 84 62 42 70 72 43 44 54
630.0 28 1 4 14 23 58 87 129 168 197
670.0 264 331 405 522 807 1364 2024 2415 2285 1786
710.0 1335 1144 1141 1237 1418 1604 1712 1634 1340 986
750.0 704 531 415 338 297 255 197 161 155 153
790.0 129 110 119 111 98 110 107 100 97 87
830.0 83 84 103 114 114 114 111 122 130 136
870.0 140 135 148 190 219 236 253 269 290 300
910.0 295 289 270 253 259 270 287 292 301 317
950.0 331 350 368 381 405 453 478 464 470 509
990.0 580 690 829 1004 1222 1478 1762 2049 2335 2563
1030.0 2641 2574 2442 2343 2292 2221 2051 1766 1474 1250
1070.0 1072 913 781 676 590 531 484 438 404 385
1110.0 372 373 373 368 375 355 334 318 292 296
1150.0 295 304 331 344 358 376 400 412 421 435
1190.0 449 453 447 451 457 446 444 468 474 469
1230.0 487 494 493 497 489 479 482 484 471 464
1270.0 470 466 473 483 486 502 504 491 487 494
1310.0 499 492 484 492 508 518 536 559 589 608
1350.0 616 632 651 660 660 664 676 697 712 677
1390.0 589 508 439 376 341 322 303 301 323 348
1430.0 391 472 596 788 1006 1197 1306 1290 1227 1173
1470.0 1110 1019 906 809 837 1021 1171 1099 805 479
1510.0 284 199 151 131 120 117 114 98 86 72
1550.0 60 65 70 81 94 107 126 158 223 293
1590.0 361 451 524 532 466 350 227 141 98 81
1630.0 71 59 47 46 44 34 35 34 25 23
1670.0 27 28 27 23 17 9 5 17 27 26
1710.0 23 25 25 25 28 37 45 46 47 46
1750.0 42 37 27 21 31 35 39 50 62 86
1790.0 116 131 122 97 71 61 54 35 27 26
1830.0 20 22 31 31 24 32 45 62 70 78
1870.0 88 89 84 79 71 57 40 27 23 25
1910.0 28 32 40 47 64 86 116 139 130 116
1950.0 106 91 65 38 21 15 17 21 17 10
1990.0 6 3 8 9 10 12 19 18 19 26
2030.0 22 20 24 27 26 27 31 27 22 20
2070.0 20 26 26 17 13 15 13 14 15 9
2110.0 11 13 4 0 3 7 10 10 6 8
2150.0 16 17 5 6 12 10 12 13 15 21
2190.0 23 17 12 6 10 17 14 11 8 2
2230.0 0 10 21 21 20 16 12 16 11 4
2270.0 5 18 29 25 16 16 23 23 19 23
2310.0 29 29 28 29 30 23 27 28 25 33
2350.0 26 17 19 26 31 29 25 23 21 16
2390.0 15 18 22 26 21 21 19 21 32 27
2430.0 14 19 31 32 34 34 23 16 19 19
2470.0 20 20 20 25 24 20 30 41 43 37
2510.0 32 31 28 40 39 33 37 24 24 33
2550.0 35 41 37 45 53 52 58 61 64 64
2590.0 66 65 61 63 68 70 75 75 74 76
2630.0 74 82 86 82 86 89 92 99 110 115
2670.0 120 120 119 128 140 129 121 132 140 142
2710.0 139 141 152 163 170 184 203 225 246 248
2750.0 246 245 251 259 275 279 284 303 317 341
2790.0 359 363 386 407 434 484 529 572 618 682
2830.0 774 890 1053 1273 1583 2058 2665 3312 3860 4181
2870.0 4295 4315 4309 4283 4196 4059 3943 3960 4195 4631
2910.0 5247 6046 7027 8127 9177 9883 10000 9470 8436 7208
2950.0 6115 5392 5109 5154 5178 4786 3935 2927 2130 1643
2990.0 1347 1161 1049 985 947 959 1024 1165 1422 1763
3030.0 2059 2088 1804 1392 1073 949 961 1097 1366 1674
3070.0 1841 1745 1463 1223 1106 987 816 651 528 446
3110.0 387 332 265 213 178 150 128 108 93 94
3150.0 105 92 88 91 87 88 71 58 43 36
3190.0 58 71 59 46 40 48 44 29 37 41
3230.0 42 47 42 33 29 25 26 24 6 3
3270.0 19 17 13 21 24 22 34 34 17 21
3310.0 32 31 21 12 13 21 47 46 33 37
3350.0 45 39 32 19 23 34 41 52 47 49
3390.0 52 55 50 41 37 42 50 46 41 53
3430.0 59 50 52 47 61 72 54 45 42 55
3470.0 59 68 75 64 58 60 64 53 34 51
3510.0 65 52 35 47 71 65 56 58 63 55
3550.0 73 76 67 71 63 82 94 71 72 93
3590.0 104 84 74 90 107 117 129 179 243 291
3630.0 327 329 325 332 345 389 491 615 718 782
3670.0 783 712 586 439 326 241 179 147 138 126
3710.0 102 89 79 70 63 54 67 66 61 64
3750.0 68 65 62 68 69 75 77 62 71 71
3790.0 59 71 61 47 47 50 62 72 80 89
3830.0 91 82 79 88 81
##END=
