##TITLE=Hyoscyamine
##JCAMP-DX=4.24
##DATA TYPE=INFRARED SPECTRUM
##ORIGIN=EPA-IR VAPOR PHASE LIBRARY
##OWNER=SRD/NIST
Collection (C) 2018 copyright by the U.S. Secretary of Commerce
on behalf of the United States of America. All rights reserved.
##CAS REGISTRY NO=101-83-7
##MOLFORM=C 17 H 23 N O 3
##$NIST SOURCE=MSDC-IR
##STATE=gas
##XUNITS=1/CM
##YUNITS=ABSORBANCE
##XFACTOR=1.
##YFACTOR=0.001
##DELTAX=3.85796
##FIRSTX=501.5
##LASTX=4000.7
##FIRSTY=1.56
##MAXX=4000.7
##MINX=501.534
##MAXY=0.02577
##MINY=0.0000559
##NPOINTS=908
##XYDATA=(X++(Y..Y))
501.534 1.56 1.83 1.84 2.14 2.37 2.29 2.22 2.09 1.94 1.68
540.114 1.36 1.19 1.18 1.17 1.01 0.8889 0.854 0.7502 0.7811 0.8543
578.693 0.7987 0.8518 0.8841 0.7957 0.8053 0.8437 0.8098 0.8692 1.01 1.11
617.273 1.13 1.02 0.8309 0.7352 0.7715 0.8563 1.14 1.56 1.85 1.87
655.852 1.57 1.26 1.19 1.27 1.37 1.47 1.63 1.93 2.57 4.08
694.432 6.1 6.9 5.87 4.21 3.02 2.38 2.14 2.26 2.67 3.35
733.011 3.92 3.92 3.45 2.89 2.59 2.55 2.6 2.52 2.29 2.1
771.591 1.97 1.8 1.53 1.33 1.31 1.36 1.52 1.82 2.17 2.32
810.170 2.15 1.89 1.62 1.38 1.2 1.02 0.9638 0.9921 1.03 1.06
848.750 1.03 1.01 1.08 1.19 1.28 1.33 1.37 1.39 1.35 1.24
887.330 1.14 1.1 1.17 1.29 1.52 1.85 2.21 2.52 2.69 2.74
925.909 2.78 2.8 2.56 2.16 1.91 1.87 2 2.21 2.47 2.89
964.489 3.32 3.61 3.74 3.72 3.67 3.68 3.74 3.93 4.22 4.67
1003.068 5.23 5.77 6.32 7.08 8.41 10.9 15.5 21.54 25.34 24.03
1041.648 19.65 15.76 13.21 11.75 11.5 11.63 10.86 9.11 7.29 5.9
1080.227 5.05 4.56 4.13 3.84 3.74 3.79 4.01 4.19 4.41 4.89
1118.807 5.41 5.95 6.6 7.39 8.24 9.2 10.78 13.34 16.32 18.32
1157.387 19.02 19.39 19.97 20.06 18.98 17.21 15.43 13.85 12.62 11.9
1195.966 11.5 11.3 11.49 12.21 13.59 15.7 17.59 18.29 17.79 16.55
1234.546 14.92 13.19 11.69 10.44 9.38 8.49 7.77 7.35 7.12 6.93
1273.125 6.63 6.4 6.32 6.26 6.22 6.23 6.25 6.37 6.58 6.74
1311.705 6.78 6.72 6.68 6.72 6.79 6.85 6.99 7.15 6.97 6.29
1350.284 5.54 5.18 5.01 4.71 4.47 4.48 4.65 4.76 4.69 4.44
1388.864 4.13 3.8 3.41 3.1 2.86 2.7 2.65 2.73 2.92 3.08
1427.443 3.05 2.89 2.71 2.71 2.96 3.4 3.96 4.22 4.13 3.92
1466.023 3.67 3.46 3.23 2.98 2.74 2.61 2.73 2.94 2.88 2.5
1504.603 1.84 1.24 1.04 0.8861 0.726 0.6646 0.6999 0.6886 0.6414 0.5318
1543.182 0.4905 0.5625 0.5571 0.4618 0.3816 0.5114 0.5997 0.6297 0.6759 0.7296
1581.762 0.8769 0.9824 1.09 1.24 1.35 1.38 1.29 1.1 0.8732 0.6724
1620.341 0.5969 0.562 0.5541 0.5481 0.5058 0.5452 0.5384 0.5244 0.4852 0.5433
1658.921 0.701 0.7313 0.7516 0.8241 0.916 1.06 1.16 1.36 1.66 1.89
1697.500 2.15 2.64 3.36 4.42 6.03 8.63 12.11 15.52 18.23 20.1
1736.080 21.42 21.25 18.71 14.54 10.24 6.98 4.84 3.54 2.74 2.21
1774.659 1.88 1.62 1.38 1.24 1.15 1.08 1.02 0.9111 0.82 0.7092
1813.239 0.6243 0.5803 0.5275 0.4591 0.4091 0.396 0.4051 0.3928 0.3563 0.3818
1851.819 0.4361 0.4722 0.4928 0.5023 0.4896 0.5109 0.5372 0.5256 0.5117 0.4764
1890.398 0.4387 0.4021 0.3632 0.3543 0.3344 0.3139 0.3022 0.2771 0.2916 0.3371
1928.978 0.3788 0.4135 0.476 0.5058 0.4948 0.4827 0.4681 0.4914 0.4816 0.407
1967.557 0.3455 0.3111 0.2945 0.2982 0.302 0.2918 0.2652 0.2578 0.2588 0.2523
2006.137 0.2342 0.2418 0.253 0.2408 0.2426 0.2531 0.276 0.2675 0.2673 0.2705
2044.716 0.2499 0.2596 0.2809 0.3 0.3087 0.3043 0.3104 0.3179 0.3333 0.3405
2083.296 0.3325 0.3218 0.3084 0.3021 0.2923 0.2741 0.2672 0.2714 0.2717 0.2696
2121.875 0.2391 0.2342 0.2549 0.2187 0.1973 0.2191 0.2312 0.2397 0.2201 0.2159
2160.455 0.2284 0.2084 0.194 0.2127 0.2117 0.2032 0.2337 0.2512 0.2438 0.24
2199.035 0.2368 0.2354 0.2429 0.2627 0.2772 0.2853 0.2942 0.2812 0.281 0.2801
2237.614 0.2659 0.2604 0.2509 0.2453 0.2358 0.2411 0.2563 0.2439 0.2416 0.2263
2276.194 0.2086 0.2074 0.2141 0.2447 0.2528 0.2321 0.222 0.2371 0.2524 0.2507
2314.773 0.2417 0.2213 0.2116 0.1985 0.1682 0.181 0.202 0.2031 0.2188 0.2254
2353.353 0.1935 0.1805 0.1804 0.1764 0.1888 0.1888 0.1921 0.2147 0.2281 0.2342
2391.932 0.2206 0.2015 0.2185 0.2488 0.2665 0.2435 0.2149 0.1974 0.1854 0.1933
2430.512 0.1938 0.1984 0.224 0.2308 0.2356 0.2431 0.2583 0.2943 0.3133 0.3113
2469.092 0.2892 0.263 0.245 0.2237 0.2161 0.2046 0.1908 0.1977 0.2106 0.2202
2507.671 0.2175 0.2078 0.2159 0.235 0.2292 0.2289 0.2579 0.2655 0.2667 0.2685
2546.251 0.2569 0.2541 0.2568 0.2689 0.2614 0.2453 0.2376 0.2434 0.2584 0.2525
2584.830 0.263 0.2879 0.285 0.2633 0.2494 0.2465 0.2426 0.2337 0.2405 0.2524
2623.410 0.2597 0.2734 0.2751 0.2593 0.2495 0.2749 0.2813 0.2742 0.2812 0.3147
2661.989 0.3591 0.3783 0.3619 0.3446 0.3667 0.397 0.4173 0.4215 0.4228 0.4476
2700.569 0.4642 0.4486 0.4383 0.4426 0.4319 0.404 0.4184 0.4469 0.4598 0.4618
2739.148 0.4868 0.5222 0.5514 0.6235 0.6885 0.7657 0.8553 0.9423 1 1.09
2777.728 1.28 1.52 1.78 2.07 2.46 2.95 3.43 3.63 3.33 2.71
2816.308 2.1 1.71 1.56 1.56 1.7 1.95 2.32 2.79 3.3 3.77
2854.887 4.01 3.96 3.74 3.67 3.94 4.43 5.07 5.69 6.07 6.16
2893.467 6.01 5.74 5.51 5.43 5.74 6.65 8.21 10.32 12.45 14.32
2932.046 16.42 19.41 22.89 25.43 25.77 23.89 21.09 18.63 16.92 15.81
2970.626 14.82 13.63 12.3 10.86 8.83 6.17 3.92 2.67 2.08 1.8
3009.205 1.65 1.6 1.68 1.91 2.28 2.78 3.24 3.38 3.09 2.6
3047.785 2.2 2.02 2.04 2.31 2.77 3.34 3.7 3.53 3 2.49
3086.364 2.22 2.01 1.71 1.44 1.22 1.04 0.9127 0.7723 0.6635 0.5677
3124.944 0.4732 0.4159 0.3306 0.2936 0.3271 0.3239 0.3074 0.2791 0.2335 0.2495
3163.524 0.2286 0.2242 0.2507 0.2024 0.1777 0.1906 0.1723 0.1472 0.1026 0.09524
3202.103 0.1497 0.1464 0.1315 0.1082 0.1059 0.131 0.1294 0.1373 0.122 0.1006
3240.683 0.0997 0.1036 0.08862 0.05688 0.0559 0.09443 0.1059 0.1038 0.08667 0.08522
3279.262 0.133 0.1576 0.1074 0.09202 0.1514 0.1479 0.1466 0.1676 0.1818 0.2042
3317.842 0.2096 0.1849 0.1688 0.217 0.2221 0.198 0.2055 0.2074 0.1949 0.1844
3356.421 0.1938 0.1859 0.1668 0.1727 0.1992 0.1966 0.192 0.217 0.2231 0.1894
3395.001 0.1401 0.1721 0.2462 0.2647 0.2773 0.2688 0.2835 0.3036 0.3006 0.3314
3433.580 0.3318 0.3307 0.3938 0.4394 0.4351 0.4731 0.4976 0.4414 0.4511 0.4852
3472.160 0.4337 0.3966 0.4048 0.39 0.3989 0.3555 0.3328 0.3615 0.3355 0.3275
3510.740 0.301 0.3396 0.39 0.3381 0.2968 0.2703 0.2465 0.3719 0.4611 0.4087
3549.319 0.4384 0.5203 0.5743 0.5828 0.6062 0.7006 0.8595 0.9716 1.01 1.01
3587.899 1.04 1.12 1.12 1.12 1.18 1.21 1.27 1.4 1.55 1.76
3626.478 1.8 1.74 1.71 1.61 1.5 1.4 1.35 1.4 1.35 1.25
3665.058 1.12 0.8869 0.7168 0.6462 0.6231 0.5627 0.4674 0.4055 0.3533 0.329
3703.637 0.4117 0.439 0.3819 0.3813 0.399 0.3541 0.3333 0.3341 0.2639 0.3076
3742.217 0.2404 0.1373 0.2082 0.2758 0.306 0.2689 0.2913 0.3466 0.3129 0.302
3780.797 0.2848 0.2304 0.2281 0.2622 0.272 0.2289 0.2212 0.2704 0.2713 0.2406
3819.376 0.2206 0.2475 0.2255 0.2166 0.2166 0.1473 0.1564 0.257 0.2025 0.1048
3857.956 0.2347 0.2715 0.2618 0.2624 0.2708 0.2724 0.2193 0.2008 0.2053 0.2316
3896.535 0.2493 0.2042 0.1845 0.2372 0.2974 0.2849 0.277 0.3009 0.3028 0.3585
3935.115 0.3787 0.3457 0.304 0.3125 0.3433 0.3468 0.3966 0.3782 0.3817 0.4143
3973.694 0.3769 0.3907 0.3496 0.3248 0.3848 0.398 0.3658 0.3312
##END=
