##TITLE=4,4'-Dimethoxydiphenylamine
##JCAMP-DX=4.24
##DATA TYPE=INFRARED SPECTRUM
##ORIGIN=EPA-IR VAPOR PHASE LIBRARY
##OWNER=SRD/NIST
Collection (C) 2018 copyright by the U.S. Secretary of Commerce
on behalf of the United States of America. All rights reserved.
##CAS REGISTRY NO=101-70-2
##MOLFORM=C 14 H 15 N O 2
##$NIST SOURCE=MSDC-IR
##STATE=gas
##XUNITS=1/CM
##YUNITS=ABSORBANCE
##XFACTOR=1.
##YFACTOR=0.001
##DELTAX=1.92934
##FIRSTX=549.9
##LASTX=3999.5
##FIRSTY=11.84
##MAXX=3999.53
##MINX=549.863
##MAXY=0.51714
##MINY=0
##NPOINTS=1789
##XYDATA=(X++(Y..Y))
549.863 11.84 11.46 11.2 11.1 10.91 10.63 10.6 10.74 10.75 10.59
569.156 10.49 10.65 10.85 10.96 11.15 11.51 11.78 12.07 12.56 12.91
588.450 13.2 13.45 13.67 13.87 13.9 13.77 13.69 13.55 13.39 13.16
607.743 12.85 12.6 12.34 12.07 11.82 11.53 11.29 11.19 11.09 10.89
627.037 10.81 10.83 10.74 10.7 10.62 10.43 10.2 9.93 9.66 9.37
646.330 9.05 8.69 8.42 8.21 7.99 7.82 7.62 7.45 7.3 7.12
665.624 7.02 6.95 6.76 6.64 6.5 6.41 6.37 6.22 6.14 6.1
684.917 6 5.92 5.82 5.71 5.67 5.64 5.61 5.62 5.64 5.66
704.210 5.67 5.63 5.57 5.52 5.56 5.52 5.36 5.28 5.21 5.11
723.504 4.96 4.86 4.85 4.83 4.9 5.05 5.2 5.39 5.63 5.91
742.797 6.32 6.97 7.84 9.01 10.63 12.96 16.46 21.4 27.48 33.43
762.091 37.35 38.18 36 31.48 26.01 21.21 17.77 15.63 14.34 13.62
781.384 13.22 12.99 13.06 13.36 13.74 14.26 14.93 15.64 16.49 17.63
800.678 19.19 21.13 23.56 26.62 30.16 34.26 38.74 43.3 47.77 51.65
819.971 54.56 56.19 56.19 54.63 51.83 48.07 43.7 39.17 34.79 30.82
839.264 27.3 24.27 21.72 19.6 17.82 16.33 15.01 13.91 12.96 12.05
858.558 11.27 10.54 9.94 9.55 9.3 9.13 9.09 9 8.74 8.31
877.851 7.7 7.09 6.46 5.88 5.45 5.14 4.86 4.65 4.49 4.37
897.145 4.28 4.16 4.0481 3.9877 3.9368 3.8847 3.8221 3.8289 3.829 3.7622
916.438 3.7337 3.7242 3.6997 3.6569 3.6147 3.5717 3.5219 3.5632 3.6328 3.6168
935.732 3.5982 3.6439 3.6966 3.7062 3.7583 3.8218 3.8603 3.8849 3.9508 4.0823
955.025 4.19 4.3 4.4 4.53 4.72 4.88 5.05 5.26 5.51 5.74
974.318 5.98 6.28 6.59 6.87 7.17 7.52 7.93 8.37 8.81 9.29
993.612 9.85 10.41 11.06 11.85 12.78 14.01 15.4 16.69 17.95 19.27
1012.905 20.68 22.48 24.81 27.61 31 35 39.57 44.68 50.3 56.26
1032.199 62.29 67.88 72.54 75.94 77.67 77.48 75.32 71.35 65.85 59.24
1051.492 52.16 45.07 38.43 32.63 27.82 23.9 20.68 18.1 16.05 14.4
1070.786 13.09 12.01 11.15 10.47 9.96 9.65 9.5 9.48 9.62 10
1090.079 10.56 11.23 12.02 12.9 13.78 14.58 15.19 15.59 15.75 15.67
1109.372 15.3 14.69 13.96 13.17 12.34 11.52 10.74 10.05 9.46 8.95
1128.666 8.53 8.2 8.01 7.93 7.95 8.08 8.27 8.59 9.06 9.65
1147.959 10.36 11.25 12.4 13.95 16.09 19.14 23.58 29.59 36.36 41.89
1167.253 44.82 45.45 44.26 42.26 41.48 42.48 43.84 44.2 43 40.25
1186.546 36.6 33.21 30.82 29.64 29.53 30.27 31.76 33.94 36.76 40.18
1205.840 44.2 48.75 53.85 59.63 66.48 74.91 85.39 98.77 115.71 136.64
1225.133 161.76 190.59 221.75 252.97 281.33 303.62 316.87 319.55 311.75 294.99
1244.426 272.1 246.37 220.36 196.1 174.92 157.14 142.55 130.77 121.18 113.31
1263.720 106.78 101.2 96.33 91.95 87.98 84.37 81.11 78.12 75.29 72.59
1283.013 69.97 67.36 64.67 61.81 58.9 55.88 52.71 49.48 46.24 43.04
1302.307 39.95 37.06 34.38 31.98 29.84 27.87 26.06 24.41 22.87 21.48
1321.600 20.21 19 17.9 16.88 15.93 15.07 14.31 13.56 12.89 12.26
1340.894 11.67 11.2 10.72 10.24 9.85 9.5 9.19 8.94 8.72 8.48
1360.187 8.3 8.19 8.08 8.1 8.18 8.23 8.33 8.5 8.69 8.91
1379.480 9.16 9.41 9.56 9.62 9.57 9.4 9.19 9.02 8.87 8.73
1398.774 8.67 8.69 8.78 8.97 9.23 9.54 9.94 10.41 10.93 11.51
1418.067 12.18 12.89 13.73 14.66 15.72 16.95 18.42 20.13 22.14 24.62
1437.361 27.82 31.48 35.29 38.51 40.47 40.97 40.18 38.75 37.57 37.24
1456.654 37.95 39.54 41.69 44.36 47.27 49.83 51.36 51.65 50.69 48.91
1475.948 47.13 46.11 46.51 48.57 52.75 59.57 69.82 84.64 105.88 134.97
1495.241 174.69 227.68 292.19 364.83 435.66 490.39 517.14 508.38 465.7 398.8
1514.534 324.96 256.58 201.2 159.82 128 104.92 87.1 73.27 62.49 54.06
1533.828 47.32 41.97 37.8 34.23 31.12 28.47 26.19 24.24 22.53 21.08
1553.121 19.89 18.82 17.97 17.25 16.66 16.14 15.66 15.23 14.87 14.6
1572.415 14.42 14.32 14.25 14.25 14.33 14.38 14.4 14.36 14.22 14
1591.708 13.7 13.37 13 12.73 12.63 12.58 12.61 12.74 12.82 12.85
1611.002 12.9 12.87 12.76 12.61 12.37 12.05 11.67 11.26 10.88 10.43
1630.295 10.01 9.64 9.25 8.85 8.48 8.18 7.88 7.56 7.24 6.98
1649.588 6.72 6.45 6.21 6.05 5.95 5.81 5.63 5.43 5.28 5.22
1668.882 5.11 4.95 4.84 4.74 4.68 4.64 4.55 4.45 4.39 4.4
1688.175 4.37 4.32 4.32 4.24 4.15 4.17 4.19 4.18 4.16 4.17
1707.469 4.23 4.23 4.21 4.26 4.29 4.34 4.42 4.49 4.56 4.61
1726.762 4.71 4.81 4.88 4.92 4.97 4.97 4.93 4.85 4.76 4.7
1746.056 4.55 4.42 4.35 4.27 4.2 4.14 4.1012 4.0686 4.0279 4.0047
1765.349 4.0196 4.0382 4.0258 4.0018 3.9444 3.9362 3.9711 3.9383 3.875 3.8327
1784.642 3.8303 3.8433 3.8481 3.8709 3.8949 3.9189 3.9734 4.0164 4.077 4.17
1803.936 4.23 4.28 4.31 4.33 4.39 4.46 4.54 4.58 4.58 4.59
1823.229 4.62 4.64 4.68 4.76 4.82 4.87 4.93 5.03 5.14 5.26
1842.523 5.35 5.46 5.56 5.65 5.77 5.82 5.85 5.87 5.86 5.88
1861.816 5.86 5.79 5.73 5.62 5.5 5.39 5.29 5.17 5.08 5
1881.110 4.84 4.74 4.62 4.47 4.31 4.19 4.11 3.972 3.8869 3.8261
1900.403 3.7527 3.7027 3.6466 3.596 3.5731 3.5642 3.5362 3.5101 3.4967 3.4992
1919.696 3.5655 3.614 3.6416 3.7154 3.7984 3.8864 3.9289 3.944 3.9022 3.8433
1938.990 3.7743 3.6693 3.6017 3.5473 3.4936 3.4209 3.3861 3.3969 3.3479 3.3104
1958.283 3.3221 3.3177 3.306 3.3411 3.3324 3.3025 3.3528 3.4132 3.4943 3.56
1977.577 3.6379 3.7284 3.7874 3.8733 3.9939 4.13 4.26 4.39 4.56 4.7
1996.870 4.82 4.96 5.07 5.13 5.18 5.21 5.26 5.3 5.3 5.28
2016.164 5.24 5.22 5.19 5.18 5.17 5.13 5.14 5.19 5.23 5.23
2035.457 5.25 5.34 5.39 5.44 5.49 5.56 5.66 5.75 5.8 5.84
2054.750 5.9 5.92 5.88 5.86 5.86 5.83 5.78 5.74 5.7 5.67
2074.044 5.62 5.58 5.51 5.41 5.32 5.18 5.04 4.91 4.74 4.57
2093.337 4.37 4.14 3.912 3.7108 3.5519 3.3866 3.263 3.13587 2.967 2.893
2112.631 2.84 2.738 2.654 2.572 2.497 2.452 2.417 2.381 2.325 2.283
2131.924 2.25 2.229 2.185 2.136 2.125 2.11 2.11 2.1 2.05 2.03
2151.218 2.03 2.02 2.04 1.98 1.94 1.97 1.95 1.91 1.95 1.96
2170.511 1.95 1.97 1.96 1.96 1.94 1.93 1.95 1.97 1.96 1.94
2189.804 1.93 1.97 1.94 1.91 1.97 1.96 1.96 1.99 2.01 2.04
2209.098 2.06 2.06 2.05 2.05 2.03 2.03 2.04 2.04 2.08 2.11
2228.391 2.121 2.127 2.11 2.1 2.1 2.141 2.169 2.149 2.142 2.155
2247.685 2.168 2.219 2.281 2.301 2.346 2.412 2.482 2.536 2.601 2.704
2266.978 2.79 2.853 2.949 3.001 3.0301 3.0436 3.036 3.0335 2.949 2.854
2286.272 2.845 2.805 2.757 2.709 2.641 2.636 2.611 2.568 2.55 2.539
2305.565 2.538 2.549 2.546 2.527 2.525 2.502 2.473 2.469 2.434 2.364
2324.858 2.304 2.257 2.246 2.288 2.243 2.158 2.17 2.184 2.176 2.174
2344.152 2.189 2.228 2.227 2.216 2.231 2.267 2.289 2.3 2.339 2.369
2363.445 2.431 2.484 2.53 2.548 2.552 2.632 2.681 2.69 2.714 2.718
2382.739 2.685 2.667 2.628 2.554 2.507 2.439 2.403 2.389 2.362 2.351
2402.032 2.328 2.32 2.322 2.311 2.28 2.284 2.289 2.231 2.163 2.132
2421.326 2.112 2.07 2.06 2.1 2.08 2.05 2.05 2.07 2.07 2.117
2440.619 2.167 2.203 2.222 2.234 2.307 2.394 2.452 2.505 2.571 2.641
2459.912 2.728 2.799 2.845 2.889 2.945 3.0178 3.0746 3.0702 3.0883 3.14074
2479.206 3.17215 3.2075 3.2223 3.2064 3.18389 3.14432 3.13015 3.15348 3.16431 3.14608
2498.499 3.11194 3.12192 3.15503 3.14977 3.13452 3.14904 3.18663 3.20392 3.20092 3.2409
2517.793 3.2497 3.20907 3.2111 3.2324 3.2332 3.2287 3.2223 3.2142 3.20994 3.19051
2537.086 3.19322 3.15115 3.0654 3.001 2.892 2.806 2.743 2.662 2.593 2.502
2556.380 2.393 2.358 2.329 2.29 2.286 2.224 2.152 2.151 2.11 2.06
2575.673 2.1 2.08 2.06 2.08 2.1 2.11 2.153 2.218 2.198 2.189
2594.966 2.19 2.165 2.164 2.121 2.1 2.1 2.03 2.02 2.02 2.01
2614.260 2.01 1.99 1.96 1.89 1.82 1.82 1.79 1.83 1.85 1.81
2633.553 1.79 1.78 1.8 1.8 1.8 1.86 1.87 1.82 1.78 1.75
2652.847 1.68 1.64 1.62 1.6 1.61 1.62 1.65 1.71 1.77 1.83
2672.140 1.77 1.76 1.83 1.84 1.84 1.84 1.9 1.94 1.98 2.03
2691.434 1.97 1.97 2.04 2.03 2.01 2.04 2.08 2.06 2.07 1.99
2710.727 1.93 1.91 1.92 1.95 1.97 1.99 1.99 2.01 2.06 2.11
2730.020 2.11 2.11 2.161 2.155 2.144 2.231 2.258 2.225 2.277 2.31
2749.314 2.294 2.294 2.361 2.411 2.37 2.415 2.491 2.522 2.551 2.59
2768.607 2.687 2.739 2.792 2.848 2.937 3.0701 3.14352 3.258 3.4573 3.6183
2787.901 3.7529 3.9594 4.22 4.42 4.66 4.93 5.19 5.54 5.86 6.22
2807.194 6.7 7.17 7.65 8.12 8.55 9.07 9.68 10.35 11.17 12.27
2826.488 13.59 15.22 17.32 19.99 23.28 27.11 30.78 33.25 34.11 33.21
2845.781 30.72 27.4 24.02 21.04 18.69 16.81 15.32 14.15 13.26 12.61
2865.074 11.95 11.55 11.37 11.16 10.99 10.93 11 11.04 11.2 11.43
2884.368 11.71 12.17 12.65 13.15 13.85 14.61 15.45 16.46 17.55 18.77
2903.661 20.17 21.64 23.07 24.44 25.6 26.41 26.88 27.15 27.28 27.19
2922.955 27.14 27.34 27.74 28.41 29.56 31.17 33.12 35.36 37.47 39.13
2942.248 40.31 40.7 40.42 39.63 38.49 37.26 35.9 34.31 32.69 30.97
2961.542 29.13 27.26 25.47 23.9 22.55 21.36 20.37 19.65 19.12 18.82
2980.835 18.78 19.12 19.8 20.73 22.14 23.97 26.19 29.05 32.58 36.72
3000.128 40.88 44.34 46.13 45.58 42.79 38.37 33.45 28.98 25.69 23.65
3019.422 22.62 22.31 22.55 23.22 24.04 24.87 25.72 26.44 26.63 26.4
3038.715 25.84 24.9 23.82 22.77 21.64 20.55 19.69 18.97 18.31 17.59
3058.009 17 16.59 16.27 15.99 15.82 15.75 15.57 15.33 14.93 14.24
3077.302 13.4 12.52 11.59 10.73 10.09 9.54 9.11 8.89 8.72 8.53
3096.596 8.29 8.07 8.02 7.82 7.54 7.19 6.85 6.5 6.17 5.84
3115.889 5.32 4.97 4.74 4.46 4.23 3.9256 3.6377 3.3832 3.12345 2.851
3135.182 2.692 2.552 2.215 2.02 1.87 1.61 1.45 1.42 1.43 1.35
3154.476 1.23 1.15 1.11 1.01 0.89 0.87 0.85 0.87 0.89 0.81
3173.769 0.75 0.64 0.49 0.41 0.44 0.43 0.43 0.48 0.52 0.5
3193.063 0.44 0.51 0.47 0.37 0.34 0.34 0.36 0.39 0.42 0.39
3212.356 0.33 0.24 0.2 0.22 0.28 0.24 0.17 0.27 0.26 0.15
3231.650 0.25 0.27 0.14 0.14 0.25 0.3 0.3 0.26 0.22 0.2
3250.943 0.22 0.15 0.03 0.07 0.18 0.22 0.1 0.11 0.19 0.24
3270.236 0.18 0.02 0.08 0.2 0.22 0.18 0.08 0.12 0.2 0.19
3289.530 0.19 0.21 0.25 0.27 0.22 0.15 0.15 0.14 0.19 0.05
3308.823 0 0.23 0.27 0.16 0.24 0.33 0.27 0.34 0.39 0.41
3328.117 0.41 0.29 0.27 0.29 0.28 0.3 0.35 0.34 0.35 0.35
3347.410 0.43 0.43 0.41 0.4 0.34 0.35 0.34 0.26 0.28 0.36
3366.704 0.43 0.6 0.57 0.55 0.64 0.7 0.79 0.85 0.91 0.98
3385.997 1.09 1.13 1.21 1.33 1.45 1.67 1.84 2.05 2.153 2.292
3405.290 2.555 2.784 3.0846 3.3935 3.6855 4.0589 4.35 4.51 4.73 4.76
3424.584 4.78 4.89 4.91 4.88 4.68 4.46 4.2 3.8421 3.5495 3.4102
3443.877 3.14036 2.884 2.75 2.544 2.362 2.264 2.135 1.92 1.89 1.87
3463.171 1.73 1.63 1.59 1.46 1.34 1.26 1.2 1.26 1.2 1.14
3482.464 1.28 1.17 0.96 0.97 1.02 1.02 0.92 0.85 0.83 0.79
3501.758 0.8 0.81 0.8 0.76 0.76 0.9 0.94 0.89 0.92 0.92
3521.051 0.97 0.96 0.82 0.82 0.9 0.87 0.85 0.95 0.95 0.93
3540.344 0.98 0.98 0.88 0.88 0.93 0.89 0.95 0.94 0.92 1.04
3559.638 1.09 1 1 1.03 1.01 1.03 1.07 1.07 1.06 1.09
3578.931 1.01 0.89 0.93 0.89 0.9 1.03 0.98 0.92 0.98 0.99
3598.225 1.02 1.11 1.12 1.06 1.04 0.98 1.02 1.03 0.98 1.01
3617.518 0.96 1.02 1.2 1.2 1.13 1.1 1.01 1.05 1.14 1.1
3636.812 1.06 1.12 1.13 1.1 1.14 1.13 1.08 1.09 1.16 1.16
3656.105 1.16 1.23 1.27 1.29 1.32 1.3 1.31 1.35 1.36 1.35
3675.398 1.28 1.23 1.26 1.36 1.4 1.34 1.27 1.21 1.27 1.3
3694.692 1.31 1.36 1.34 1.36 1.37 1.33 1.27 1.23 1.24 1.26
3713.985 1.27 1.29 1.25 1.21 1.26 1.26 1.27 1.25 1.23 1.21
3733.279 1.23 1.24 1.18 1.2 1.26 1.29 1.3 1.28 1.19 1.26
3752.572 1.3 1.35 1.38 1.32 1.3 1.23 1.26 1.38 1.36 1.35
3771.866 1.36 1.31 1.35 1.38 1.36 1.3 1.3 1.34 1.36 1.38
3791.159 1.35 1.25 1.24 1.31 1.35 1.37 1.34 1.35 1.43 1.48
3810.452 1.47 1.38 1.37 1.36 1.39 1.46 1.49 1.45 1.43 1.44
3829.746 1.41 1.4 1.35 1.36 1.38 1.37 1.38 1.32 1.42 1.46
3849.039 1.38 1.35 1.33 1.34 1.4 1.47 1.41 1.4 1.52 1.61
3868.333 1.63 1.64 1.68 1.66 1.65 1.61 1.6 1.61 1.61 1.64
3887.626 1.63 1.6 1.58 1.52 1.56 1.63 1.56 1.53 1.54 1.53
3906.920 1.54 1.55 1.51 1.46 1.43 1.47 1.49 1.51 1.49 1.45
3926.213 1.5 1.51 1.5 1.5 1.44 1.46 1.59 1.66 1.62 1.66
3945.506 1.69 1.63 1.64 1.63 1.61 1.63 1.61 1.63 1.61 1.62
3964.800 1.69 1.68 1.71 1.76 1.73 1.71 1.72 1.67 1.61 1.64
3984.093 1.67 1.72 1.71 1.66 1.59 1.66 1.7 1.64 1.62
##END=
