##TITLE=N-Phenylurethane
##JCAMP-DX=4.24
##DATA TYPE=INFRARED SPECTRUM
##ORIGIN=EPA-IR VAPOR PHASE LIBRARY
##OWNER=SRD/NIST
Collection (C) 2018 copyright by the U.S. Secretary of Commerce
on behalf of the United States of America. All rights reserved.
##CAS REGISTRY NO=101-99-5
##MOLFORM=C 9 H 11 N O 2
##$NIST SOURCE=MSDC-IR
##STATE=gas
##XUNITS=1/CM
##YUNITS=ABSORBANCE
##XFACTOR=1.
##YFACTOR=0.001
##DELTAX=1.92898
##FIRSTX=549.8
##LASTX=4000.7
##FIRSTY=10.95
##MAXX=4000.7
##MINX=549.759
##MAXY=0.38229
##MINY=0.0004002
##NPOINTS=1790
##XYDATA=(X++(Y..Y))
549.759 10.95 10.46 9.82 8.96 8.28 7.66 7.18 7.45 6.88 5.94
569.049 5.71 5.39 5.2 4.88 5.03 4.78 4.61 4.31 4 4
588.339 3.66 3.51 3.81 3.64 3.34 3.58 3.58 3.74 4.05 4.29
607.628 4.39 4.73 4.95 4.84 4.55 4.19 4.07 3.74 3.72 3.88
626.918 3.74 3.67 3.8 3.81 3.94 4.33 4.49 4.73 4.69 4.21
646.208 3.89 3.85 3.89 3.82 4.05 4.44 4.66 5.06 5.86 6.67
665.498 7.34 8.31 9.63 11.19 12.94 14.71 16.54 18.19 19.49 21.26
684.787 23.25 24.83 25.68 25.35 24.75 24.17 23.64 23.31 22.54 21.33
704.077 20.14 18.89 18.27 17.83 17.23 16.92 16.52 16.24 16.32 16.79
723.367 17.41 18.13 19.25 20.64 22.12 24.14 26.47 28.98 31.49 33.97
742.657 36.49 38.37 39.98 41.12 40.93 40.32 39.14 37.5 36.11 34.68
761.947 33.14 31.59 30.53 29.3 27.72 26.11 24 22.05 20.36 18.73
781.236 16.99 15.32 13.88 12.17 10.92 9.92 8.88 7.93 7.12 6.74
800.526 6.72 6.58 5.96 5.71 5.51 5.23 5.37 5.7 6.42 6.87
819.816 7.23 7.91 8.36 8.4 8.34 8 7.17 6.21 5.25 4.5
839.106 4.07 3.55 3.2 3.25 3.21 2.83 2.67 2.98 3.04 3.02
858.395 3.21 3.53 3.84 3.71 3.64 3.87 4.04 4.13 4.24 4.33
877.685 4.56 5.09 5.33 5.58 5.99 6.19 6.32 6.33 6.64 6.74
896.975 6.58 6.59 6.42 5.95 5.42 5.2 4.99 4.7 4.41 4.11
916.265 4.07 3.85 3.77 4 4.06 3.95 3.7 3.73 3.79 3.7
935.555 3.61 3.65 3.71 3.66 3.64 3.66 3.53 3.61 3.99 4.18
954.844 4.28 4.37 4.71 5.07 5.39 5.63 6.01 6.58 6.71 7
974.134 7.7 8.19 8.73 9.23 9.62 10.05 10.13 10 9.71 9.54
993.424 9.56 9.34 8.86 8.62 8.58 8.54 8.86 8.84 8.81 9.35
1012.714 10.14 11.31 12.34 14 17.12 21.45 26.24 29.54 30.42 30.37
1032.003 30.16 29.75 28.15 25.98 25.62 26.65 29.5 34.45 39.95 47.03
1051.293 56.16 65.87 76.23 86.8 96.75 105.03 110.28 112.72 112.41 109.76
1070.583 105.14 99 92.35 86.12 81.22 76.95 73.45 70.73 68.51 66.53
1089.873 64.67 63.74 63.22 63.42 63.36 62.68 61.06 57.85 53.97 49.09
1109.163 43.17 37.88 33.27 29.63 26.83 24.3 22.81 21.39 20.18 19.43
1128.452 18.94 18.54 18.4 18.36 18.42 18.73 19.46 20.23 21.15 22.48
1147.742 23.89 25.58 26.95 28.57 30.4 32.24 34.71 37.7 40.42 43.72
1167.032 48.03 53.88 61.53 70.46 80.68 92.09 105.23 120.86 139.63 161.83
1186.322 187.5 216.61 249.93 285.49 320.2 351.07 372.74 382.29 379.54 363.85
1205.611 334.81 294.13 248.27 201.97 159.59 126.91 103.69 85.89 73.61 65.2
1224.901 57.99 53 49.17 45.84 43.72 41.61 39.92 39.48 39.17 38.74
1244.191 38.56 38.11 36.76 34.89 33.06 31.06 29.1 27.89 27.46 27.52
1263.481 28.09 28.75 29.62 31.18 33.1 35.24 37.78 40.34 43.28 46.78
1282.771 50.17 53.96 58.54 63.48 68.92 75.46 82.87 90.95 98.95 105.74
1302.060 110.73 113.71 115.08 114.85 112.82 109.19 104.7 99.72 94.14 88.02
1321.350 81.49 74.41 66.7 59.09 52.48 46.98 42.49 38.73 35.44 32.5
1340.640 29.78 27.21 24.79 22.61 20.66 19.04 17.85 16.93 16.37 16.32
1359.930 16.64 17.36 18.67 20.57 23.17 26.15 28.96 31.17 32.58 33.33
1379.219 33.84 34.24 34.11 33.49 32.88 32.51 32.39 32.48 32.57 32.29
1398.509 31.49 30.31 29.19 28.25 27.3 26.5 25.87 25.35 25.05 25.16
1417.799 25.79 26.95 28.97 32.11 36.73 43.33 52.83 65.74 82.02 100.28
1437.089 118.06 131.19 137.19 136.72 131.25 120.25 102.81 81.7 62.35 48.71
1456.378 40.46 36.1 34.22 33.67 33.95 34.77 35.97 37.11 38.02 38.74
1475.668 39.4 39.94 40.64 41.73 43.47 46.27 50.54 56.84 65.73 77.32
1494.958 91.6 108.31 126.34 145.88 167.11 189.06 211 231 247.69 260.94
1514.248 269.79 273.2 270.34 261.46 246.73 227.83 205.55 181.57 157.93 135.83
1533.538 115.65 97.53 82.22 69.31 58.85 50.6 44.36 39.46 35.35 32.14
1552.827 29.62 27.5 25.86 24.62 23.64 22.79 22.26 22.02 21.84 21.87
1572.117 22.29 23.16 24.56 26.43 29.15 33 37.86 43.91 50.98 58.78
1591.407 66.79 74.52 81.5 86.74 89.37 88.76 84.96 78.75 71.04 62.55
1610.697 53.93 45.72 38.37 32.07 27.04 22.96 19.36 16.39 14.06 12.4
1629.986 11.19 10.36 9.74 9.28 9.01 8.72 8.45 8.27 8.15 7.96
1649.276 7.92 7.79 7.53 7.52 7.51 7.25 7.13 7.09 6.95 6.91
1668.566 6.95 6.93 6.92 6.99 7.12 7.33 7.57 7.78 8.1 8.4
1687.856 8.73 9.14 9.62 10.14 10.8 11.42 12.04 12.85 13.73 14.68
1707.146 15.54 16.45 17.44 18.42 19.52 20.79 22.39 24.43 26.95 30.07
1726.435 33.86 38.45 44.14 51.25 60.26 71.28 84.29 99.84 117.22 135.67
1745.725 153.92 171.4 187.69 202.36 214.68 223.53 226.98 223.47 214.2 204.16
1765.015 196.78 188.32 173.6 153.79 132.43 112.4 94.32 78.47 64.98 53.7
1784.305 44.47 37.2 31.7 27.42 24.17 21.51 19.37 17.62 16.09 14.83
1803.594 13.82 13.02 12.38 11.85 11.44 11.08 10.72 10.47 10.2 9.85
1822.884 9.52 9.23 8.91 8.62 8.42 8.15 7.86 7.62 7.5 7.42
1842.174 7.3 7.2 7.07 6.91 6.75 6.52 6.23 6.05 5.86 5.5
1861.464 5.27 5.16 4.97 4.83 4.66 4.47 4.34 4.2 3.96 3.73
1880.754 3.53 3.44 3.37 3.26 3.21 3.24 3.22 3.11 3.12 3.13
1900.043 3.12 3.15 3.17 3.26 3.46 3.52 3.56 3.7 3.83 3.89
1919.333 3.99 4.18 4.24 4.28 4.42 4.51 4.5 4.48 4.44 4.36
1938.623 4.29 4.29 4.21 4.14 4.1 3.93 3.82 3.71 3.52 3.34
1957.913 3.08 2.88 2.75 2.59 2.51 2.48 2.43 2.25 2.16 2.19
1977.202 2.11 1.98 1.87 1.85 1.88 1.88 1.85 1.77 1.67 1.64
1996.492 1.66 1.67 1.64 1.61 1.58 1.58 1.56 1.55 1.55 1.46
2015.782 1.45 1.46 1.39 1.36 1.41 1.51 1.46 1.42 1.52 1.53
2035.072 1.48 1.49 1.53 1.53 1.57 1.6 1.54 1.54 1.53 1.51
2054.362 1.53 1.6 1.7 1.75 1.73 1.75 1.82 1.91 1.91 1.85
2073.651 1.89 2.01 2.03 1.99 2.02 2.11 2.09 2.06 2.07 2.12
2092.941 2.22 2.2 2.15 2.1 1.98 1.95 1.95 1.89 1.92 1.92
2112.231 1.77 1.69 1.72 1.75 1.71 1.68 1.64 1.56 1.57 1.65
2131.521 1.62 1.55 1.53 1.54 1.57 1.51 1.53 1.61 1.61 1.64
2150.810 1.66 1.6 1.62 1.64 1.68 1.82 1.88 1.95 2.06 2.11
2170.100 2.18 2.33 2.5 2.64 2.62 2.54 2.52 2.54 2.59 2.58
2189.390 2.48 2.46 2.41 2.26 2.22 2.1 2.02 2.04 1.92 1.8
2208.680 1.76 1.7 1.64 1.61 1.52 1.48 1.52 1.48 1.35 1.37
2227.970 1.38 1.36 1.39 1.46 1.49 1.55 1.63 1.68 1.75 1.72
2247.259 1.75 1.86 1.95 2.06 2.14 2.17 2.28 2.34 2.33 2.42
2266.549 2.53 2.49 2.48 2.61 2.63 2.59 2.61 2.61 2.59 2.53
2285.839 2.38 2.23 2.11 2.06 2.01 1.86 1.8 1.66 1.63 1.63
2305.129 1.61 1.64 1.59 1.52 1.53 1.51 1.51 1.54 1.45 1.42
2324.418 1.49 1.46 1.4 1.52 1.57 1.55 1.53 1.56 1.63 1.66
2343.708 1.67 1.68 1.6 1.56 1.6 1.62 1.53 1.45 1.43 1.36
2362.998 1.32 1.34 1.44 1.43 1.44 1.51 1.39 1.24 1.18 1.28
2382.288 1.36 1.34 1.37 1.24 1.21 1.25 1.23 1.27 1.33 1.4
2401.578 1.23 1.14 1.32 1.33 1.29 1.31 1.41 1.48 1.55 1.6
2420.867 1.54 1.66 1.78 1.71 1.73 1.68 1.56 1.55 1.54 1.5
2440.157 1.36 1.32 1.29 1.26 1.27 1.26 1.22 1.12 1.12 1.07
2459.447 1.07 1.15 1.2 1.22 1.17 1.16 1.14 1.1 1.01 1.14
2478.737 1.3 1.31 1.3 1.33 1.46 1.46 1.47 1.49 1.44 1.45
2498.026 1.49 1.59 1.61 1.58 1.61 1.64 1.5 1.37 1.4 1.42
2517.316 1.58 1.58 1.41 1.43 1.45 1.47 1.46 1.42 1.4 1.36
2536.606 1.39 1.31 1.31 1.46 1.47 1.47 1.53 1.45 1.39 1.45
2555.896 1.41 1.26 1.13 1.19 1.33 1.22 1.15 1.18 1.09 1.13
2575.186 1.1 1.06 1.11 1.09 1.11 1.21 1.26 1.14 1.12 1.15
2594.475 1.02 0.9833 1.07 1.09 1.08 1.17 1.22 1.12 1.13 1.18
2613.765 1.23 1.16 1.2 1.25 1.1 1.02 1.1 1.21 1.24 1.13
2633.055 1.09 1.21 1.15 1.08 1.23 1.24 1.1 1.03 1.05 1.04
2652.345 0.9882 0.9562 0.8892 0.9226 1.04 1.12 1.09 1.08 1.02 1.01
2671.634 1.06 1.09 1.08 1.08 1.17 1.16 1.14 1.05 1.01 1.19
2690.924 1.22 1.17 1.25 1.27 1.22 1.12 1.14 1.3 1.45 1.35
2710.214 1.23 1.39 1.54 1.51 1.35 1.36 1.5 1.61 1.56 1.49
2729.504 1.49 1.44 1.49 1.49 1.5 1.56 1.54 1.51 1.51 1.45
2748.794 1.55 1.66 1.56 1.56 1.6 1.59 1.49 1.49 1.59 1.57
2768.083 1.58 1.67 1.69 1.6 1.54 1.59 1.58 1.46 1.46 1.49
2787.373 1.5 1.58 1.67 1.75 1.77 1.73 1.68 1.67 1.71 1.65
2806.663 1.5 1.62 1.86 1.95 1.9 1.91 2.04 2.16 2.15 2.07
2825.953 2.27 2.37 2.24 2.24 2.3 2.25 2.27 2.31 2.3 2.35
2845.242 2.48 2.54 2.55 2.6 2.7 2.87 3.01 3.14 3.3 3.56
2864.532 3.76 3.92 4.08 4.31 4.71 5.16 5.51 6.02 6.67 7.09
2883.822 7.47 7.85 8.02 8.15 8.32 8.48 8.5 8.46 8.58 8.82
2903.112 9.12 9.59 10 10.24 10.51 10.74 10.86 10.99 11.25 11.55
2922.401 11.62 11.7 12.03 12.5 13.22 14.31 15.5 16.95 18.66 20.08
2941.691 21.15 21.81 21.99 21.76 21.14 20.36 19.54 18.92 18.75 19.14
2960.981 19.78 20.41 21.33 22.44 23.96 25.5 27.02 28.98 31.21 33.72
2980.271 35.87 37.41 38.47 38.63 38.27 37.19 35.13 32.61 30.08 27.98
2999.561 26.19 24.36 22.8 21.59 20.56 19.5 18.5 17.95 17.45 16.93
3018.850 16.76 16.92 17.07 17.31 17.92 18.63 19.06 19.23 19.36 19.4
3038.140 19.14 18.73 18.01 17.19 16.53 16.06 15.9 15.91 16.47 17.3
3057.430 18.38 19.68 21.08 22.44 23.38 24 24 23.44 22.49 21.16
3076.720 19.73 18.32 16.87 15.54 14.41 13.53 12.9 12.34 11.58 10.87
3096.009 10.4 9.94 9.45 9.11 8.64 8.07 7.62 7.16 6.87 6.42
3115.299 5.87 5.41 4.93 4.47 4 3.64 3.45 3.32 3.05 2.69
3134.589 2.47 2.33 2.15 2.11 2.03 1.94 1.88 1.66 1.68 1.76
3153.879 1.81 1.82 1.55 1.61 1.81 1.55 1.48 1.54 1.4 1.4
3173.169 1.5 1.51 1.33 1.21 1.29 1.17 1.23 1.48 1.41 1.31
3192.458 1.35 1.32 1.23 1.26 1.18 1.02 1.04 0.9662 0.9777 1.1
3211.748 1.2 1.25 1.2 1.18 1.08 0.9117 0.8313 0.7513 0.7592 0.8299
3231.038 0.9274 0.7998 0.7057 0.8465 0.8774 1.09 1.16 0.9497 0.8299 0.8199
3250.328 0.7553 0.7901 0.9104 0.8773 0.8305 0.8251 0.7614 0.5728 0.635 0.9231
3269.617 0.9713 1 0.9192 0.6779 0.6333 0.7107 0.8844 0.9331 0.7764 0.8572
3288.907 0.8249 0.7912 0.7579 0.5671 0.5144 0.5482 0.5653 0.531 0.5548 0.5893
3308.197 0.5333 0.4836 0.6843 0.8413 0.8215 0.8014 0.7342 0.5618 0.5884 0.8323
3327.487 0.8282 0.7652 0.8174 0.7568 0.7187 0.6991 0.4972 0.5252 0.5555 0.6049
3346.777 0.8744 0.7831 0.6282 0.655 0.7645 0.7568 0.7065 0.7286 0.801 0.9559
3366.066 0.9694 0.861 0.7593 0.6819 0.7146 0.7871 0.8455 0.8646 0.912 0.9714
3385.356 0.8804 0.7763 0.8606 0.9863 1.02 0.9347 0.8162 0.9569 1.2 1.36
3404.646 1.2 1.02 1.25 1.54 1.57 1.52 1.66 1.8 1.97 2.25
3423.936 2.57 3.03 3.37 3.56 4.07 4.73 5.15 5.76 6.72 7.82
3443.225 8.87 10 11.4 13.05 14.67 16.18 17.8 19.36 20.79 21.85
3462.515 22.52 22.81 22.65 22.15 21.03 19.74 18.54 16.93 15.05 13.08
3481.805 11.24 9.48 8.01 7.06 6.28 5.54 4.89 4.47 4 3.72
3501.095 3.68 3.62 3.53 3.19 2.77 2.75 2.7 2.62 2.63 2.55
3520.385 2.29 2.01 1.9 1.65 1.57 1.76 1.74 1.43 1.21 1.11
3539.674 1.08 1.24 1.21 0.9997 0.8874 1.03 1.11 0.9492 0.7052 0.5045
3558.964 0.6106 0.7929 0.7729 0.6057 0.6157 0.8409 1.03 0.9485 0.797 0.6762
3578.254 0.7371 0.7981 0.7773 0.8179 0.6775 0.6965 0.824 0.9128 0.7161 0.5417
3597.544 0.861 1.04 0.9259 0.648 0.4888 0.621 0.7348 0.735 0.5891 0.5287
3616.833 0.4972 0.4002 0.6125 0.8184 0.7245 0.5515 0.6555 0.8431 0.8897 0.78
3636.123 0.762 0.9266 0.7976 0.7302 0.6954 0.6658 0.7792 0.9171 1.02 0.9082
3655.413 0.719 0.7519 1 1.01 0.7796 0.5807 0.5303 0.7774 0.8099 0.774
3674.703 0.9453 1.01 1.05 1.19 1.11 0.8321 0.7102 0.6029 0.5636 0.627
3693.993 0.5064 0.4288 0.4933 0.7271 0.767 0.7089 0.8528 0.9614 0.7358 0.6625
3713.282 0.7879 0.6021 0.7083 0.8878 0.8992 0.8845 0.7132 0.7131 0.8734 0.8328
3732.572 0.8607 1.01 0.8 0.5781 0.6235 0.6498 0.7775 0.7112 0.6997 0.7004
3751.862 0.5965 0.6904 0.7701 0.6961 0.8216 0.8635 0.8263 0.8257 0.5897 0.648
3771.152 0.7591 0.4838 0.5084 0.6419 0.5014 0.642 0.6703 0.447 0.6955 0.8876
3790.441 0.8921 0.7959 0.7946 1.08 0.9554 0.8136 0.7353 0.6099 0.645 0.6075
3809.731 0.5185 0.5436 0.6149 0.6412 0.5898 0.6545 0.8008 0.8792 0.9518 0.7416
3829.021 0.577 0.7537 0.8345 0.7601 0.7055 0.9148 0.9813 0.8047 0.6518 0.8156
3848.311 0.9211 0.5918 0.6198 0.7378 0.912 1.17 1.13 0.9154 0.7678 0.7063
3867.601 0.6184 0.476 0.684 0.8338 0.5962 0.7015 0.8083 0.7709 0.8892 0.7202
3886.890 0.5667 0.8255 1.04 1.03 0.9348 0.858 0.8559 1.01 1.08 0.829
3906.180 0.7185 0.7594 0.7891 0.8163 1.04 1.1 0.9244 1.01 1.04 1.07
3925.470 0.806 0.7967 0.7866 0.639 0.8281 0.7585 0.6682 0.6861 0.917 0.9748
3944.760 0.9745 1.16 1.04 0.7935 0.7833 1.15 1.24 0.9666 0.9946 1.11
3964.049 0.9589 0.7464 0.8131 0.9267 0.9577 1 1.11 1.03 1.02 1.14
3983.339 0.9265 0.9778 1.19 0.9942 0.8525 1.07 1.01 0.8049 0.9749 0.9697
##END=
