##TITLE=1-Propanesulfonyl chloride
##JCAMP-DX=4.24
##DATA TYPE=INFRARED SPECTRUM
##ORIGIN=EPA-IR VAPOR PHASE LIBRARY
##OWNER=SRD/NIST
Collection (C) 2018 copyright by the U.S. Secretary of Commerce
on behalf of the United States of America. All rights reserved.
##CAS REGISTRY NO=10147-36-1
##MOLFORM=C 3 H 7 Cl O 2 S
##$NIST SOURCE=MSDC-IR
##STATE=gas
##XUNITS=1/CM
##YUNITS=ABSORBANCE
##XFACTOR=1.
##YFACTOR=0.001
##DELTAX=1.92898
##FIRSTX=549.8
##LASTX=4000.7
##FIRSTY=30.58
##MAXX=4000.7
##MINX=549.759
##MAXY=0.10869
##MINY=0
##NPOINTS=1790
##XYDATA=(X++(Y..Y))
549.759 30.58 27.49 24.82 22.26 20.28 18.88 17.59 16.73 16.92 17.6
569.049 18.65 20.36 22.5 24.91 27.63 30.44 33.43 36.36 38.72 40.61
588.339 41.88 42.25 41.29 39.21 37.1 34.5 31 27.27 23.14 18.96
607.628 14.94 11.36 8.58 6.58 5.27 4.41 3.98 3.59 3.23 2.94
626.918 2.72 2.61 2.58 2.55 2.45 2.29 2.22 2.39 2.48 2.51
646.208 2.68 2.81 3.11 3.29 3.43 3.95 4.45 5.07 5.8 6.53
665.498 7.32 8.32 9.51 10.72 12.07 13.5 14.93 16.07 16.99 17.77
684.787 18.21 18.23 17.94 17.5 16.68 15.38 13.99 12.4 10.66 9.19
704.077 7.81 6.7 5.97 5.49 5.09 4.84 4.78 4.86 5.1 5.42
723.367 5.81 6.44 7.13 7.61 8.17 8.87 9.66 10.62 11.54 12.39
742.657 13.08 13.56 13.78 13.82 13.57 13.24 12.76 11.9 10.96 10.05
761.947 9.05 7.89 6.67 5.57 4.86 4.38 3.83 3.4 3.27 3.02
781.236 2.73 2.66 2.69 2.8 2.79 2.58 2.51 2.61 2.55 2.49
800.526 2.39 2.28 2.32 2.3 2.17 2.04 2.12 2.11 2.16 2.33
819.816 2.45 2.64 2.9 2.99 3.03 3.23 3.31 3.32 3.45 3.51
839.106 3.6 3.66 3.59 3.49 3.37 3.32 3.24 3.11 2.86 2.62
858.395 2.6 2.57 2.51 2.41 2.08 1.79 1.65 1.56 1.47 1.44
877.685 1.46 1.46 1.36 1.26 1.24 1.16 1.14 1.25 1.32 1.3
896.975 1.16 1.12 1.14 1.12 1.17 1.23 1.096 0.9317 0.8463 0.6218
916.265 0.4951 0.7313 0.7848 0.5991 0.6157 0.6436 0.5234 0.55 0.6023 0.4642
935.555 0.397 0.5036 0.6329 0.5473 0.516 0.4423 0.3516 0.4981 0.535 0.3942
954.844 0.3161 0.2476 0.2577 0.3683 0.3112 0.2044 0.12693 0.2685 0.2511 0.0642
974.134 0.084 0.0485 0 0.2245 0.3807 0.17468 0.11899 0.18196 0.19607 0.2612
993.424 0.14712 0.106954 0.16855 0.2436 0.3993 0.4228 0.4917 0.4945 0.3829 0.38
1012.714 0.4364 0.4462 0.5464 0.5172 0.3523 0.4968 0.7485 0.8695 0.9527 1.067
1032.003 1.0655 1.17 1.28 1.42 1.76 1.69 1.65 1.95 2.21 2.18
1051.293 2.33 2.69 2.94 3.11 3.32 3.8 3.96 3.72 3.82 4.13
1070.583 4.24 4.11 4.31 4.33 4.14 4.52 4.48 4.52 4.91 4.68
1089.873 4.34 4.28 3.93 3.47 3.17 2.95 2.94 2.94 2.68 2.59
1109.163 2.62 2.12 1.88 1.84 1.77 1.81 1.85 2.18 2.27 2.35
1128.452 2.51 2.66 2.91 3.16 3.71 4.36 5.1 5.96 7.21 8.7
1147.742 10.52 12.9 16.16 20.29 24.86 29.87 35.63 42.25 49.13 55.73
1167.032 61.63 66.45 69.78 71.66 72.17 71.55 69.66 66.81 63.17 57.75
1186.322 51.04 44.4 38.27 32.56 27.84 23.98 20.65 18.21 15.96 13.97
1205.611 12.62 11.25 9.9 8.7 7.82 6.97 5.86 5.21 4.85 4.52
1224.901 4.33 4.24 4.13 4.18 4.2 4.36 4.73 5.18 5.59 5.89
1244.191 6.13 6.3 6.47 6.55 6.43 6.16 6.01 5.62 5.21 4.8
1263.481 4.27 3.67 3 2.7 2.38 2.04 1.83 1.64 1.52 1.48
1282.771 1.5 1.63 1.73 1.85 2.1 2.33 2.47 2.59 2.8 3
1302.060 3.09 3.1 3.18 3.35 3.37 3.39 3.49 3.46 3.45 3.5
1321.350 3.54 3.64 3.78 3.97 4.23 4.46 4.76 5.13 5.54 5.89
1340.640 6.2 6.53 6.89 7.24 7.53 7.82 8.09 8.48 9.01 9.66
1359.930 10.47 11.34 12.69 14.78 17.51 20.9 24.96 29.78 35.51 41.96
1379.219 49.07 56.63 64.53 72.41 80.28 87.77 93.9 98.68 102.84 106.58
1398.509 108.69 106.02 96.53 83.75 73.07 64.77 56.66 48.12 39.52 31.42
1417.799 24.37 18.31 13.7 10.44 8.18 6.69 5.68 5.04 4.64 4.4
1437.089 4.24 4.18 4.22 4.35 4.53 4.7 4.97 5.21 5.42 5.68
1456.378 5.96 6.09 6.14 6.28 6.33 6.17 5.98 5.85 5.64 5.33
1475.668 4.97 4.63 4.35 4.05 3.68 3.37 3.13 2.88 2.69 2.45
1494.958 2.24 2.07 1.93 1.85 1.73 1.68 1.72 1.62 1.47 1.45
1514.248 1.39 1.37 1.35 1.32 1.29 1.25 1.25 1.24 1.2 1.18
1533.538 1.23 1.15 1.16 1.24 1.15 1.0947 1.0582 1.0174 1.0177 0.9443
1552.827 0.8775 0.8772 0.9247 1.0429 1.0095 0.8363 0.8032 0.7967 0.7466 0.768
1572.117 0.732 0.7382 0.7315 0.648 0.6173 0.6049 0.6105 0.6247 0.6131 0.5664
1591.407 0.5399 0.5225 0.4617 0.4412 0.4983 0.5204 0.5038 0.4637 0.3721 0.3972
1610.697 0.4475 0.4086 0.4818 0.5345 0.4197 0.3921 0.4254 0.379 0.3768 0.3611
1629.986 0.3443 0.3153 0.317 0.3998 0.3718 0.3032 0.2653 0.2459 0.2562 0.248
1649.276 0.2201 0.2715 0.3196 0.2328 0.1898 0.17427 0.15742 0.14047 0.09579 0.1487
1668.566 0.2062 0.205 0.16364 0.1567 0.14969 0.12301 0.13081 0.19085 0.2768 0.2345
1687.856 0.15369 0.13345 0.1378 0.12282 0.16673 0.19235 0.2114 0.17628 0.14743 0.18508
1707.146 0.13907 0.09648 0.09421 0.0797 0.11654 0.1535 0.14964 0.09804 0.11085 0.19882
1726.435 0.19621 0.18201 0.2419 0.3024 0.3185 0.2445 0.17846 0.2164 0.2479 0.2735
1745.725 0.2835 0.259 0.256 0.3084 0.3048 0.2675 0.2475 0.246 0.3176 0.3515
1765.015 0.3227 0.3274 0.3394 0.3197 0.2732 0.2248 0.219 0.2245 0.24 0.23
1784.305 0.2311 0.2481 0.2208 0.2275 0.2781 0.2472 0.19397 0.2029 0.17377 0.13551
1803.594 0.12345 0.1675 0.19653 0.17187 0.16793 0.2098 0.2108 0.15567 0.15257 0.16769
1822.884 0.1521 0.15183 0.18179 0.17738 0.18605 0.18805 0.15158 0.12259 0.108982 0.0796
1842.174 0.09751 0.15963 0.16373 0.14611 0.13676 0.11495 0.11326 0.1238 0.099717 0.12794
1861.464 0.1925 0.18431 0.17483 0.2107 0.19266 0.102749 0.0655 0.09197 0.13774 0.13245
1880.754 0.09242 0.106559 0.13234 0.18123 0.15773 0.12683 0.14545 0.12196 0.14413 0.18075
1900.043 0.16498 0.18503 0.206 0.19977 0.16701 0.15172 0.15889 0.2072 0.2381 0.2192
1919.333 0.2194 0.19892 0.2334 0.2642 0.2368 0.19093 0.2109 0.2371 0.2015 0.19187
1938.623 0.18074 0.17464 0.17777 0.17368 0.17683 0.15464 0.15764 0.18591 0.2036 0.213
1957.913 0.18993 0.17812 0.19086 0.2084 0.2154 0.17527 0.1768 0.19939 0.2518 0.2946
1977.202 0.2677 0.295 0.3166 0.332 0.3502 0.333 0.3016 0.3115 0.3443 0.3299
1996.492 0.3242 0.3535 0.3776 0.3191 0.2919 0.2883 0.2677 0.2522 0.2555 0.2465
2015.782 0.2556 0.2847 0.2781 0.2592 0.2221 0.2081 0.2286 0.2721 0.2854 0.3326
2035.072 0.3584 0.2566 0.2191 0.2504 0.2196 0.2088 0.2459 0.263 0.2591 0.2345
2054.362 0.19507 0.2014 0.2418 0.2595 0.2552 0.2507 0.2396 0.2432 0.2349 0.2629
2073.651 0.2945 0.2677 0.2774 0.3022 0.3298 0.3187 0.3018 0.3102 0.2443 0.2245
2092.941 0.2685 0.2773 0.2694 0.2936 0.2715 0.2774 0.3073 0.2719 0.2602 0.267
2112.231 0.2898 0.2692 0.2777 0.3011 0.2726 0.2444 0.2382 0.2576 0.2738 0.2869
2131.521 0.2932 0.3261 0.3447 0.3367 0.3464 0.3696 0.3629 0.3271 0.3215 0.4124
2150.810 0.4415 0.3231 0.2362 0.2344 0.2445 0.2518 0.2713 0.2635 0.2578 0.2713
2170.100 0.3021 0.2735 0.2611 0.2642 0.2239 0.2167 0.2606 0.257 0.2403 0.2822
2189.390 0.2876 0.2866 0.2644 0.2727 0.269 0.268 0.2932 0.2476 0.2327 0.2214
2208.680 0.2108 0.228 0.2468 0.291 0.2538 0.2139 0.2525 0.2711 0.2928 0.3286
2227.970 0.3372 0.2925 0.2625 0.3251 0.3731 0.3474 0.3285 0.3333 0.3104 0.3313
2247.259 0.4048 0.4015 0.3426 0.3289 0.3609 0.369 0.3204 0.2821 0.3245 0.3219
2266.549 0.3004 0.3228 0.3455 0.333 0.3013 0.3668 0.3955 0.3335 0.2669 0.2341
2285.839 0.2901 0.3015 0.2973 0.3041 0.2788 0.3188 0.3236 0.2881 0.2775 0.2936
2305.129 0.3081 0.2869 0.2757 0.2667 0.3311 0.3829 0.3958 0.3811 0.3384 0.3778
2324.418 0.4701 0.4962 0.4893 0.5244 0.5341 0.5343 0.5564 0.5617 0.5583 0.6023
2343.708 0.6698 0.7487 0.7637 0.7338 0.6942 0.6469 0.6348 0.5511 0.5884 0.6415
2362.998 0.5986 0.6001 0.5155 0.4278 0.4347 0.4009 0.3656 0.4273 0.4314 0.3493
2382.288 0.3254 0.3462 0.3647 0.3213 0.289 0.3258 0.3434 0.4036 0.4342 0.3308
2401.578 0.3461 0.3725 0.3513 0.4329 0.4289 0.414 0.4077 0.3923 0.3358 0.2979
2420.867 0.3302 0.3528 0.3402 0.3816 0.3975 0.377 0.3807 0.3764 0.3427 0.317
2440.157 0.3395 0.3205 0.2952 0.2875 0.2967 0.3185 0.3289 0.2938 0.2584 0.3008
2459.447 0.3544 0.34 0.3455 0.3614 0.3477 0.3186 0.3326 0.3245 0.2872 0.3336
2478.737 0.3727 0.3916 0.3795 0.3521 0.2997 0.2694 0.3302 0.3784 0.3912 0.3774
2498.026 0.3351 0.3453 0.3241 0.2795 0.2845 0.3282 0.3375 0.2829 0.3046 0.3318
2517.316 0.402 0.4639 0.4493 0.3791 0.4236 0.506 0.4636 0.4026 0.4293 0.5499
2536.606 0.5479 0.5589 0.6762 0.7034 0.7189 0.7513 0.7156 0.7343 0.7711 0.7511
2555.896 0.7787 0.8305 0.8316 0.8657 0.8699 0.8431 0.8265 0.7848 0.7019 0.6935
2575.186 0.6819 0.5888 0.5247 0.4806 0.4753 0.4624 0.4332 0.4083 0.4368 0.4113
2594.475 0.3661 0.3852 0.4049 0.3448 0.2747 0.2932 0.2685 0.3115 0.3787 0.326
2613.765 0.2681 0.1708 0.149 0.1953 0.17697 0.2583 0.251 0.2096 0.2238 0.19939
2633.055 0.2282 0.2939 0.3508 0.3014 0.2968 0.3368 0.3639 0.4112 0.4088 0.3425
2652.345 0.2562 0.2926 0.3079 0.2585 0.3487 0.412 0.4564 0.4721 0.4441 0.4343
2671.634 0.4043 0.3759 0.3851 0.4099 0.3725 0.3786 0.3637 0.3615 0.4066 0.3497
2690.924 0.3838 0.458 0.414 0.3652 0.3685 0.4103 0.3693 0.3065 0.273 0.3197
2710.214 0.3582 0.3237 0.3589 0.3911 0.3444 0.358 0.3791 0.3275 0.3458 0.3967
2729.504 0.4234 0.4037 0.4053 0.4513 0.5127 0.5318 0.5147 0.537 0.5645 0.5584
2748.794 0.5211 0.5351 0.6195 0.6776 0.644 0.6513 0.6841 0.6652 0.6193 0.6185
2768.083 0.677 0.7135 0.6512 0.6096 0.6617 0.7 0.6969 0.6887 0.7257 0.7173
2787.373 0.6601 0.6633 0.6865 0.7053 0.806 0.9219 0.9525 0.958 0.9023 0.8269
2806.663 0.7931 0.8042 0.8075 0.7479 0.7668 0.81 0.817 0.8468 0.8817 0.946
2825.953 1.0227 1.0075 0.9747 0.9856 1.0366 1.11 1.15 1.19 1.18 1.21
2845.242 1.27 1.33 1.39 1.36 1.39 1.53 1.65 1.65 1.8 2.02
2864.532 2.13 2.34 2.53 2.77 3.1 3.5 3.95 4.49 5.12 5.71
2883.822 6.18 6.51 6.91 7.22 7.3 7.29 7.36 7.43 7.31 7.05
2903.112 6.73 6.46 6.23 6.08 6.03 5.99 6.02 6.15 6.29 6.49
2922.401 6.74 6.97 7.18 7.44 7.79 8.21 8.67 9.22 9.9 10.4
2941.691 10.73 10.93 11.03 11.13 11.23 11.21 11.08 11.03 11.02 10.94
2960.981 10.99 11.32 11.72 12.31 13.13 14.09 15.25 16.4 17.48 18.53
2980.271 19.22 19.35 19.27 19.15 18.59 17.55 16.3 14.9 13.48 11.98
2999.561 10.59 9.3 8.04 6.99 6.08 5.32 4.7 4.12 3.62 3.3
3018.850 3.03 2.75 2.5 2.36 2.23 2.06 1.89 1.76 1.65 1.6
3038.140 1.57 1.57 1.54 1.51 1.56 1.45 1.33 1.36 1.4 1.25
3057.430 1.16 1.28 1.28 1.12 0.9832 0.8767 0.7931 0.8237 0.8804 0.8534
3076.720 0.8003 0.8042 0.8578 0.865 0.885 0.8129 0.6948 0.7273 0.706 0.7849
3096.009 0.8864 0.7569 0.655 0.6547 0.599 0.6165 0.6761 0.6209 0.627 0.6628
3115.299 0.7153 0.6772 0.5951 0.64 0.6804 0.6444 0.5957 0.6065 0.5442 0.5346
3134.589 0.605 0.6478 0.6045 0.4704 0.5043 0.6472 0.5977 0.4849 0.4542 0.443
3153.879 0.5305 0.5754 0.4946 0.4274 0.4461 0.4655 0.3621 0.3533 0.488 0.4707
3173.169 0.4344 0.3851 0.2391 0.2684 0.3737 0.4121 0.3794 0.3481 0.4884 0.472
3192.458 0.3369 0.3036 0.3892 0.4186 0.3173 0.2987 0.2417 0.2695 0.3769 0.3915
3211.748 0.401 0.3875 0.3467 0.3967 0.4117 0.361 0.3505 0.2905 0.3691 0.4472
3231.038 0.3458 0.3505 0.4119 0.4081 0.3491 0.2824 0.2871 0.2692 0.2564 0.2965
3250.328 0.2755 0.3098 0.292 0.12192 0.2104 0.4319 0.3368 0.2875 0.2083 0.14721
3269.617 0.1974 0.17002 0.1468 0.0749 0.12892 0.2478 0.355 0.2999 0.2178 0.2694
3288.907 0.2798 0.3748 0.3527 0.2674 0.3531 0.3689 0.3496 0.2883 0.18613 0.17265
3308.197 0.19436 0.2044 0.212 0.18473 0.0623 0.109907 0.3117 0.4025 0.3475 0.2024
3327.487 0.15511 0.2505 0.3103 0.3349 0.2318 0.14467 0.18665 0.14084 0.1834 0.14725
3346.777 0.0485 0.0209 0.0487 0.0725 0.13072 0.2057 0.2136 0.2286 0.2031 0.18071
3366.066 0.12275 0.16491 0.3561 0.4361 0.3042 0.2606 0.3332 0.3158 0.19324 0.0476
3385.356 0.11585 0.2355 0.2592 0.19921 0.231 0.3355 0.3013 0.2784 0.18761 0.11847
3404.646 0.16875 0.217 0.2955 0.2542 0.2038 0.2323 0.2725 0.3822 0.3631 0.2357
3423.936 0.2136 0.2947 0.3741 0.4246 0.3886 0.3084 0.3191 0.4085 0.3472 0.15892
3443.225 0.17394 0.2423 0.2839 0.3172 0.2723 0.2232 0.2076 0.12429 0.0368 0.17856
3462.515 0.2698 0.2238 0.2718 0.2394 0.17922 0.2365 0.3586 0.474 0.4507 0.4458
3481.805 0.4491 0.3949 0.3578 0.3095 0.3504 0.4057 0.3596 0.2928 0.2739 0.3294
3501.095 0.2968 0.2238 0.17645 0.219 0.294 0.2496 0.3129 0.3792 0.3121 0.2876
3520.385 0.2035 0.17903 0.2306 0.2086 0.2359 0.11032 0.0642 0.16147 0.2342 0.3305
3539.674 0.3058 0.2502 0.323 0.3357 0.3399 0.3624 0.285 0.3999 0.3835 0.2152
3558.964 0.2926 0.3298 0.2714 0.2289 0.2545 0.3889 0.3685 0.2413 0.2032 0.2018
3578.254 0.2141 0.2362 0.3066 0.2531 0.2118 0.384 0.2985 0.15307 0.16622 0.2106
3597.544 0.2195 0.18649 0.2041 0.2197 0.2519 0.1849 0.2346 0.3247 0.3038 0.3459
3616.833 0.3169 0.3122 0.4156 0.3918 0.3537 0.3633 0.3367 0.4311 0.3547 0.2783
3636.123 0.3139 0.3215 0.4118 0.3074 0.2576 0.321 0.2342 0.2826 0.4141 0.2997
3655.413 0.29 0.2614 0.11468 0.18184 0.2415 0.3561 0.4184 0.3721 0.294 0.2027
3674.703 0.2368 0.3504 0.3308 0.3305 0.3569 0.363 0.3893 0.3239 0.3411 0.4305
3693.993 0.4661 0.3069 0.2513 0.26 0.16062 0.1838 0.2378 0.2978 0.3619 0.3739
3713.282 0.3049 0.2958 0.3891 0.3352 0.2212 0.275 0.3364 0.3767 0.4465 0.4221
3732.572 0.4307 0.4084 0.2556 0.3272 0.4997 0.4821 0.4913 0.505 0.5104 0.4761
3751.862 0.5016 0.4783 0.3479 0.2792 0.4171 0.5492 0.3348 0.3449 0.4013 0.411
3771.152 0.3763 0.2657 0.35 0.4313 0.4829 0.411 0.3422 0.3006 0.1936 0.19979
3790.441 0.3741 0.4718 0.3915 0.3648 0.4431 0.4837 0.3892 0.3263 0.3472 0.2819
3809.731 0.2417 0.3451 0.3947 0.3123 0.3168 0.3758 0.4833 0.4829 0.386 0.3954
3829.021 0.3774 0.3041 0.3244 0.4749 0.5618 0.5603 0.5257 0.4061 0.3379 0.2546
3848.311 0.2353 0.3272 0.5174 0.6786 0.4503 0.3133 0.3068 0.3016 0.4438 0.4168
3867.601 0.3723 0.4621 0.363 0.2882 0.2554 0.2392 0.2841 0.3209 0.3211 0.3807
3886.890 0.3353 0.17847 0.2607 0.291 0.2824 0.489 0.6563 0.5946 0.4133 0.2797
3906.180 0.3088 0.2843 0.2187 0.2226 0.2232 0.2495 0.2723 0.4031 0.5054 0.4104
3925.470 0.3183 0.2729 0.2849 0.3842 0.4834 0.3965 0.3683 0.4439 0.4428 0.3231
3944.760 0.2683 0.2512 0.2609 0.461 0.5514 0.5477 0.4131 0.3096 0.2604 0.277
3964.049 0.4256 0.4586 0.4298 0.4029 0.3604 0.4227 0.5222 0.4346 0.3798 0.5244
3983.339 0.582 0.5817 0.521 0.4877 0.5109 0.495 0.5204 0.5164 0.5008 0.4819
##END=
