##TITLE=2-Methyltetrahydropyran
##JCAMP-DX=4.24
##DATA TYPE=INFRARED SPECTRUM
##ORIGIN=NIST Mass Spectrometry Data Center
##OWNER=NIST Standard Reference Data Program
Collection (C) 2018 copyright by the U.S. Secretary of Commerce
on behalf of the United States of America. All rights reserved.
##CAS REGISTRY NO=10141-72-7
##MOLFORM=C 6 H 12 O
##$NIST SOURCE=MSDC-IR
##SPECTROMETER/DATA SYSTEM=HP-GC/MS/IRD
##STATE=gas
##XUNITS=1/CM
##YUNITS=ABSORBANCE
##XFACTOR=1.0
##YFACTOR=0.000003200
##DELTAX=4.0
##FIRSTX=550.0
##LASTX=3846.0
##FIRSTY=0.000230
##MAXX=3846
##MINX=550
##MAXY=0.032
##MINY=0
##NPOINTS=825
##XYDATA=(X++(Y..Y))
550.0 72 69 28 67 122 114 85 68 87 75
590.0 65 45 35 46 33 30 31 34 40 47
630.0 53 35 25 29 31 29 36 38 26 36
670.0 40 32 37 34 31 32 28 30 53 58
710.0 33 41 37 8 7 24 28 35 49 54
750.0 58 74 95 109 122 139 178 216 231 251
790.0 255 228 191 177 171 161 159 179 196 208
830.0 267 307 357 483 641 785 885 897 843 785
870.0 709 590 459 364 291 241 214 213 214 193
910.0 195 183 156 146 158 168 191 219 265 330
950.0 389 436 466 482 465 406 355 308 264 258
990.0 291 316 332 365 381 380 399 402 400 442
1030.0 560 776 1046 1238 1387 1526 1641 1852 1978 2010
1070.0 2196 2635 3303 3966 4434 4738 4788 4600 4236 3633
1110.0 2836 2021 1411 1043 839 724 642 567 486 438
1150.0 417 410 430 471 505 592 738 807 807 856
1190.0 910 966 1053 1107 1131 1083 1011 965 902 798
1230.0 633 470 390 381 418 477 561 654 754 812
1270.0 815 776 724 675 560 410 291 219 180 174
1310.0 190 205 235 269 310 380 454 511 593 675
1350.0 740 822 912 983 1092 1279 1402 1390 1358 1313
1390.0 1141 917 673 453 319 269 270 305 368 447
1430.0 529 605 676 804 947 941 850 824 807 760
1470.0 668 530 422 333 258 199 147 106 83 71
1510.0 64 55 48 44 41 40 40 34 30 32
1550.0 33 37 32 35 38 32 31 34 35 35
1590.0 36 33 32 31 31 31 28 30 29 29
1630.0 31 31 36 38 34 30 28 32 34 31
1670.0 28 25 17 10 19 21 21 22 19 17
1710.0 20 17 18 22 25 27 28 25 16 13
1750.0 18 24 23 21 20 14 19 26 22 25
1790.0 30 26 29 31 32 39 41 36 33 32
1830.0 32 33 37 32 27 39 43 37 34 38
1870.0 46 51 49 50 52 51 51 48 52 58
1910.0 55 54 51 51 51 54 55 54 62 71
1950.0 72 61 52 45 43 39 31 21 18 19
1990.0 22 18 19 23 24 24 20 25 28 25
2030.0 26 32 27 22 30 33 31 23 18 18
2070.0 11 1 2 10 13 11 6 9 9 6
2110.0 9 15 16 13 19 24 26 25 26 30
2150.0 25 26 34 38 38 35 36 38 32 30
2190.0 32 28 26 28 26 25 19 14 23 29
2230.0 28 30 29 28 24 20 14 11 14 18
2270.0 16 14 19 22 19 19 22 26 29 28
2310.0 19 15 20 18 17 11 9 10 5 3
2350.0 0 1 0 0 5 8 5 11 13 13
2390.0 12 9 4 10 14 13 16 16 15 12
2430.0 11 15 15 17 24 23 22 18 17 23
2470.0 29 24 28 32 26 25 28 26 16 17
2510.0 23 27 31 33 31 36 42 35 32 34
2550.0 38 36 38 41 41 44 50 52 63 77
2590.0 86 97 106 120 133 143 149 147 159 170
2630.0 177 186 199 213 226 236 235 242 242 233
2670.0 221 208 210 205 201 203 208 224 240 261
2710.0 282 297 316 335 345 362 374 375 364 329
2750.0 301 284 259 238 237 248 260 281 308 348
2790.0 401 466 538 624 744 911 1144 1433 1796 2227
2830.0 2670 3131 3685 4239 4530 4391 4084 3861 3609 3301
2870.0 2924 2500 2166 1890 1682 1563 1528 1608 1839 2202
2910.0 2708 3451 4411 5511 6683 7586 8222 9193 10000 9027
2950.0 7768 7235 6563 5691 4904 4449 4384 4304 3554 2763
2990.0 2294 1876 1424 986 653 423 278 202 158 133
3030.0 123 112 101 102 97 86 89 95 100 113
3070.0 123 122 121 129 133 120 98 93 99 97
3110.0 88 84 89 83 82 88 77 60 63 64
3150.0 62 81 94 90 85 94 96 84 84 85
3190.0 69 56 52 45 30 33 36 28 22 22
3230.0 25 22 30 33 27 19 26 33 36 37
3270.0 32 31 29 33 40 42 36 30 28 30
3310.0 32 36 30 27 26 21 27 26 20 16
3350.0 8 12 22 21 25 36 28 23 34 33
3390.0 20 11 22 36 32 23 32 41 39 29
3430.0 18 28 37 30 9 14 27 25 21 19
3470.0 17 22 19 9 8 20 21 20 28 33
3510.0 26 18 25 27 20 28 27 15 22 16
3550.0 14 19 9 16 30 26 11 15 18 19
3590.0 10 7 15 8 5 13 15 10 11 12
3630.0 15 22 17 14 22 26 19 7 14 14
3670.0 16 22 21 17 22 20 9 17 20 20
3710.0 34 34 27 20 12 19 22 22 24 19
3750.0 21 25 37 43 39 44 39 28 24 33
3790.0 44 40 32 33 41 37 31 26 22 30
3830.0 40 39 33 30 32
##END=
