##TITLE=1-Dodecanesulphonyl chloride
##JCAMP-DX=4.24
##DATA TYPE=INFRARED SPECTRUM
##ORIGIN=EPA-IR VAPOR PHASE LIBRARY
##OWNER=SRD/NIST
Collection (C) 2018 copyright by the U.S. Secretary of Commerce
on behalf of the United States of America. All rights reserved.
##CAS REGISTRY NO=10147-40-7
##MOLFORM=C 12 H 25 Cl O 2 S
##$NIST SOURCE=MSDC-IR
##STATE=gas
##XUNITS=1/CM
##YUNITS=ABSORBANCE
##XFACTOR=1.
##YFACTOR=0.001
##DELTAX=1.92934
##FIRSTX=549.9
##LASTX=3999.5
##FIRSTY=4.32
##MAXX=3999.53
##MINX=549.863
##MAXY=0.14006
##MINY=0
##NPOINTS=1789
##XYDATA=(X++(Y..Y))
549.863 4.32 4.39 4.66 4.81 5.02 5.36 5.75 6.06 6.35 6.89
569.156 7.51 8.06 8.69 9.18 9.6 10.05 10.21 10.22 10.18 9.9
588.450 9.5 9.01 8.49 7.9 7.14 6.43 5.83 5.24 4.62 4.09
607.743 3.68 3.37 3.03 2.74 2.53 2.3257 2.2011 2.1064 1.9975 1.9562
627.037 1.8521 1.7872 1.7436 1.695 1.6948 1.6867 1.7767 1.7839 1.8032 1.7949
646.330 1.8668 1.9873 1.9901 2.0682 2.0801 2.1076 2.2002 2.3049 2.4387 2.51
665.624 2.71 2.99 3.2 3.58 3.9 4.2 4.72 5.22 5.74 6.37
684.917 7 7.63 8.29 8.93 9.57 10.17 10.71 11.26 11.73 12.09
704.210 12.35 12.53 12.62 12.57 12.59 12.61 12.54 12.63 12.73 12.83
723.504 13.14 13.56 13.98 14.47 15.06 15.78 16.52 17.3 18.11 18.82
742.797 19.51 20.13 20.73 21.26 21.77 22.3 22.92 23.58 24.3 25.19
762.091 25.98 26.67 27.18 27.4 27.26 26.7 25.85 24.88 23.82 22.79
781.384 21.89 21.28 20.86 20.56 20.41 20.25 20.02 19.71 19.32 18.83
800.678 18.32 17.91 17.53 17.13 16.81 16.52 16.19 15.75 15.17 14.58
819.971 14 13.31 12.54 11.8 11.09 10.42 9.78 9.25 8.79 8.29
839.264 7.85 7.44 6.99 6.57 6.23 5.95 5.61 5.26 5.01 4.84
858.558 4.66 4.46 4.32 4.15 3.95 3.86 3.8 3.72 3.7 3.65
877.851 3.51 3.43 3.4 3.41 3.44 3.4 3.4 3.38 3.4 3.44
897.145 3.41 3.39 3.34 3.31 3.33 3.39 3.41 3.4 3.44 3.52
916.438 3.57 3.6 3.65 3.78 3.9 3.98 4.06 4.23 4.4 4.55
935.732 4.77 5 5.2 5.39 5.59 5.9 6.28 6.6 6.95 7.36
955.025 7.83 8.35 8.94 9.55 10.31 11.2 12.19 13.35 14.73 16.29
974.318 18.1 20.2 22.63 25.44 28.6 32.13 36.02 40.2 44.69 49.34
993.612 53.96 58.39 62.39 65.82 68.39 69.79 69.94 68.72 66.12 62.41
1012.905 58.05 53.3 48.45 43.57 38.83 34.51 30.51 26.96 23.82 21.05
1032.199 18.75 16.72 14.96 13.49 12.24 11.1 10.08 9.26 8.51 7.88
1051.492 7.34 6.85 6.46 6.07 5.76 5.46 5.18 4.96 4.78 4.65
1070.786 4.41 4.18 4.11 4.07 3.94 3.77 3.67 3.52 3.38 3.32
1090.079 3.24 3.22 3.21 3.15 3.06 3.02 3.07 3.07 3.08 3.07
1109.372 2.99 3.03 3.07 3.04 3.01 3 3.03 3.05 3.1 3.22
1128.666 3.29 3.4 3.64 3.81 4.08 4.54 5.05 5.66 6.35 7.18
1147.959 8.23 9.44 10.94 12.75 14.88 17.41 20.48 24.12 28.25 32.76
1167.253 37.5 42.09 46.03 48.94 50.59 50.9 49.92 47.87 44.94 41.24
1186.546 37.07 32.78 28.63 24.87 21.56 18.65 16.18 14.11 12.41 11.05
1205.840 9.93 8.98 8.17 7.56 7.06 6.68 6.37 6.08 5.85 5.68
1225.133 5.6 5.59 5.52 5.43 5.4 5.36 5.36 5.38 5.34 5.34
1244.426 5.36 5.35 5.35 5.34 5.32 5.28 5.21 5.2 5.21 5.22
1263.720 5.25 5.19 5.11 5.05 4.97 4.95 4.93 4.86 4.87 4.9
1283.013 4.93 5.01 5.08 5.15 5.28 5.41 5.51 5.61 5.74 5.91
1302.307 6.05 6.2 6.39 6.53 6.66 6.82 6.94 7.09 7.29 7.49
1321.600 7.7 7.99 8.27 8.63 9.16 9.73 10.46 11.38 12.46 13.74
1340.894 15.19 16.81 18.67 20.73 23 25.47 28.02 30.73 33.61 36.65
1360.187 40.04 43.71 47.52 51.33 54.88 58.03 60.65 62.65 63.9 64.28
1379.480 63.63 61.89 59.15 55.41 50.81 45.75 40.57 35.5 30.74 26.48
1398.774 22.79 19.71 17.18 15.08 13.46 12.21 11.21 10.4 9.74 9.15
1418.067 8.57 8 7.49 7.03 6.68 6.49 6.39 6.32 6.35 6.55
1437.361 6.85 7.25 7.79 8.39 9.05 9.79 10.59 11.38 12.17 12.96
1456.654 13.75 14.37 14.71 14.73 14.44 13.87 12.99 11.98 10.93 9.81
1475.948 8.68 7.63 6.79 6.09 5.51 5.06 4.63 4.21 3.96 3.78
1495.241 3.57 3.39 3.25 3.08 2.92 2.84 2.77 2.65 2.57 2.5
1514.534 2.4075 2.3344 2.3049 2.2871 2.2551 2.1751 2.0786 2.0135 1.9763 1.9619
1533.828 1.9498 1.9292 1.9123 1.8801 1.8548 1.8223 1.7866 1.7582 1.638 1.5754
1553.121 1.6225 1.6349 1.5688 1.52328 1.49807 1.49526 1.49358 1.4374 1.4187 1.45424
1572.415 1.4224 1.3622 1.371 1.3872 1.3689 1.33 1.326 1.308 1.298 1.241
1591.708 1.168 1.136 1.111 1.138 1.154 1.142 1.103 1.062 1.061 1.046
1611.002 1.003 1.006 1.049 1.084 1.095 1.075 1.038 1.016 1.001 1.01
1630.295 0.96 0.909 0.919 0.931 0.949 0.936 0.941 0.977 0.972 0.93
1649.588 0.933 0.954 0.943 0.935 0.968 0.968 0.935 0.934 0.965 0.989
1668.882 1.005 0.996 1.022 1.06 1.035 1.057 1.115 1.136 1.092 1.088
1688.175 1.166 1.194 1.202 1.229 1.248 1.232 1.225 1.274 1.281 1.262
1707.469 1.268 1.29 1.295 1.261 1.231 1.25 1.271 1.271 1.211 1.171
1726.762 1.173 1.148 1.146 1.149 1.155 1.131 1.068 1.094 1.16 1.155
1746.056 1.11 1.067 1.032 1.069 1.118 1.127 1.106 1.072 1.096 1.083
1765.349 1.059 1.064 1.063 1.027 1.009 1.047 1.023 0.999 0.988 0.966
1784.642 0.991 1.001 0.968 0.925 0.932 0.934 0.916 0.914 0.913 0.9
1803.936 0.884 0.893 0.89 0.879 0.893 0.912 0.871 0.877 0.925 0.915
1823.229 0.923 0.901 0.866 0.868 0.853 0.834 0.823 0.857 0.851 0.837
1842.523 0.872 0.845 0.826 0.831 0.826 0.816 0.806 0.812 0.814 0.819
1861.816 0.807 0.803 0.843 0.83 0.814 0.848 0.849 0.842 0.861 0.872
1881.110 0.869 0.875 0.867 0.812 0.818 0.829 0.804 0.834 0.837 0.83
1900.403 0.827 0.819 0.815 0.819 0.832 0.811 0.793 0.823 0.835 0.839
1919.696 0.863 0.871 0.894 0.891 0.891 0.879 0.812 0.797 0.863 0.913
1938.990 0.879 0.861 0.896 0.911 0.908 0.929 0.967 0.996 1.013 1.007
1958.283 1.023 1.018 0.964 0.954 0.958 0.94 0.968 1.022 1.062 1.063
1977.577 1.049 1.038 1.048 1.051 1.029 1.05 1.048 1.089 1.11 1.102
1996.870 1.105 1.096 1.13 1.135 1.143 1.154 1.11 1.098 1.112 1.141
2016.164 1.181 1.137 1.133 1.143 1.107 1.119 1.119 1.123 1.118 1.098
2035.457 1.083 1.064 1.093 1.114 1.095 1.066 1.055 1.066 1.049 1.064
2054.750 1.054 0.997 1.01 1.034 1.047 1.058 1.059 1.037 1.014 1.028
2074.044 1.008 0.987 1.008 1.021 1.033 1.022 1.028 1.031 1.006 1.019
2093.337 1.012 1.01 0.988 0.945 0.961 0.963 0.968 1.008 1.027 1.004
2112.631 0.995 0.995 1 1.032 1.001 0.955 0.962 0.96 0.975 1.01
2131.924 1.022 1.012 0.994 1.024 1.027 1.034 1.06 1.046 1.057 1.052
2151.218 1.061 1.057 1.042 1.05 1.06 1.058 1.043 1.032 1.033 1.075
2170.511 1.079 1.048 1.037 1.057 1.056 1.04 1.056 1.077 1.084 1.099
2189.804 1.069 1.069 1.075 1.032 1.016 1.039 1.056 1.076 1.115 1.111
2209.098 1.07 1.046 1.068 1.045 1.019 1.011 1.034 1.026 1.021 1.055
2228.391 1.04 1.026 1.053 1.061 1.017 1.035 1.05 0.998 0.985 1.016
2247.685 1.042 1.014 1.013 1.007 0.975 0.984 0.994 1.012 1.013 1.021
2266.978 1.032 1.027 1.026 1.021 1.028 1.02 1.028 1.015 1.002 1.041
2286.272 1.045 1.029 1.019 1.02 1.027 1.018 1.049 1.076 1.065 1.054
2305.565 1.055 1.034 1.034 1.05 1.064 1.027 1.005 1.062 1.06 1.057
2324.858 1.123 1.133 1.119 1.132 1.144 1.158 1.162 1.175 1.219 1.259
2344.152 1.245 1.215 1.196 1.201 1.213 1.207 1.167 1.133 1.136 1.155
2363.445 1.15 1.077 1.026 1.089 1.118 1.074 1.089 1.124 1.138 1.152
2382.739 1.156 1.125 1.09 1.072 1.059 1.043 1.045 1.063 1.061 1.038
2402.032 1.059 1.098 1.097 1.093 1.077 1.048 1.02 1.058 1.092 1.108
2421.326 1.11 1.059 1.065 1.107 1.089 1.079 1.091 1.111 1.075 1.049
2440.619 1.072 1.084 1.099 1.078 1.073 1.098 1.097 1.092 1.081 1.022
2459.912 1.001 1.076 1.113 1.101 1.096 1.122 1.128 1.071 1.102 1.107
2479.206 1.086 1.092 1.119 1.145 1.118 1.123 1.173 1.199 1.218 1.249
2498.499 1.203 1.196 1.228 1.258 1.278 1.279 1.282 1.3 1.343 1.3794
2517.793 1.4041 1.3986 1.4107 1.4661 1.50388 1.49366 1.50438 1.53187 1.55358 1.5838
2537.086 1.5986 1.5947 1.6014 1.5984 1.5998 1.6378 1.6406 1.6013 1.54607 1.47894
2556.380 1.535 1.5609 1.49545 1.47745 1.4245 1.4358 1.4482 1.45159 1.46747 1.4249
2575.673 1.4291 1.49008 1.50691 1.45787 1.4378 1.4791 1.55443 1.5782 1.5775 1.5832
2594.966 1.5691 1.5623 1.6117 1.6498 1.6171 1.614 1.6359 1.6403 1.6448 1.7274
2614.260 1.7764 1.7049 1.6496 1.6783 1.7637 1.7707 1.713 1.7119 1.7085 1.7099
2633.553 1.7274 1.782 1.8416 1.8547 1.9002 1.8588 1.8175 1.8801 1.9104 1.941
2652.847 1.9354 1.9582 2.0162 1.9957 1.9501 1.9473 2.0208 2.0606 2.0945 2.2064
2672.140 2.2368 2.21 2.1794 2.1832 2.2197 2.247 2.2362 2.2417 2.2634 2.2086
2691.434 2.2044 2.1968 2.1742 2.1926 2.1373 2.0799 2.0984 2.104 2.0773 2.0412
2710.727 2.0329 2.0137 2.0743 2.1204 2.1019 2.1133 2.078 2.1182 2.2206 2.1736
2730.020 2.1222 2.0752 2.0493 2.1468 2.2411 2.3207 2.3289 2.2873 2.3132 2.3789
2749.314 2.3675 2.3896 2.5 2.49 2.46 2.48 2.56 2.64 2.6 2.54
2768.607 2.52 2.58 2.6 2.66 2.78 2.85 2.94 3.03 3.14 3.25
2787.901 3.34 3.48 3.56 3.65 3.81 4.01 4.22 4.36 4.46 4.57
2807.194 4.7 4.91 5.07 5.27 5.61 5.95 6.26 6.51 6.87 7.28
2826.488 7.6 8.11 8.68 9.18 9.78 10.6 11.48 12.52 13.9 15.61
2845.781 17.7 20.28 23.52 27.45 32.06 37.18 42.37 47.02 50.57 52.55
2865.074 52.81 51.62 49.4 46.49 43.28 40.26 37.59 35.46 33.88 32.55
2884.368 31.43 30.48 29.58 28.93 28.78 28.99 29.76 31 32.57 34.71
2903.661 37.29 40.27 43.69 47.56 51.99 57.04 62.81 69.54 77.49 86.72
2922.955 97.38 108.88 120.16 130.15 137.14 140.06 139 134.27 126.61 117.23
2942.248 107.26 97.31 87.99 80.2 73.71 68.52 64.93 62.46 60.71 59.6
2961.542 58.83 58 56.53 54.08 50.73 46.47 41.79 37.14 32.64 28.78
2980.835 25.69 23.06 20.79 18.81 17.15 15.72 14.49 13.43 12.44 11.48
3000.128 10.7 10.14 9.56 9.09 8.78 8.44 8.07 7.73 7.43 7.29
3019.422 7.03 6.65 6.38 6.26 6.14 5.92 5.7 5.55 5.44 5.1
3038.715 4.76 4.78 4.7 4.46 4.25 4.09 3.88 3.73 3.71 3.55
3058.009 3.36 3.24 3.12 3.04 3 2.99 2.94 2.76 2.73 2.68
3077.302 2.5 2.4221 2.4592 2.5 2.47 2.4405 2.4119 2.3194 2.2645 2.2664
3096.596 2.1677 2.1153 2.1375 2.0764 1.9167 1.8517 1.8673 1.7892 1.755 1.8156
3115.889 1.8179 1.7718 1.7333 1.6512 1.6592 1.5857 1.4067 1.3749 1.3898 1.3724
3135.182 1.4254 1.48902 1.49622 1.52034 1.346 1.252 1.253 1.183 1.262 1.32
3154.476 1.297 1.262 1.147 1.097 1.14 1.163 1.125 1.124 1.191 1.184
3173.769 1.076 1.043 1.136 1.139 1.01 0.851 0.829 0.854 0.819 0.767
3193.063 0.727 0.732 0.823 0.748 0.687 0.802 0.754 0.785 0.867 0.814
3212.356 0.749 0.61 0.571 0.585 0.41 0.3 0.32 0.39 0.493 0.469
3231.650 0.559 0.605 0.522 0.45 0.36 0.33 0.4 0.561 0.682 0.635
3250.943 0.498 0.575 0.51 0.42 0.44 0.45 0.37 0.21 0.25 0.18
3270.236 0.05 0.21 0.32 0.41 0.498 0.41 0.36 0.35 0.34 0.4
3289.530 0.518 0.46 0.33 0.26 0.34 0.43 0.44 0.43 0.38 0.26
3308.823 0.22 0.31 0.34 0.39 0.45 0.499 0.554 0.44 0.32 0.29
3328.117 0.3 0.4 0.43 0.32 0.25 0.33 0.34 0.2 0.1 0.19
3347.410 0.37 0.35 0.22 0.22 0.32 0.46 0.42 0.4 0.45 0.37
3366.704 0.25 0.15 0.13 0.05 0 0.09 0.23 0.28 0.31 0.36
3385.997 0.36 0.35 0.28 0.13 0.16 0.27 0.22 0.31 0.29 0.15
3405.290 0.22 0.22 0.26 0.34 0.38 0.35 0.31 0.32 0.22 0.18
3424.584 0.11 0.1 0.22 0.25 0.1 0.05 0.15 0.22 0.27 0.27
3443.877 0.15 0.09 0.09 0.05 0.16 0.17 0.2 0.23 0.17 0.13
3463.171 0.15 0.21 0.2 0.29 0.32 0.27 0.12 0.05 0.11 0.16
3482.464 0.27 0.32 0.32 0.33 0.25 0.12 0.16 0.23 0.3 0.39
3501.758 0.34 0.25 0.15 0.2 0.19 0.08 0.12 0.28 0.31 0.1
3521.051 0.14 0.23 0.11 0.14 0.1 0.01 0.13 0.14 0.19 0.31
3540.344 0.26 0.19 0.11 0.13 0.27 0.28 0.15 0.21 0.34 0.28
3559.638 0.33 0.29 0.2 0.19 0.1 0.07 0.12 0.16 0.17 0.29
3578.931 0.37 0.3 0.23 0.27 0.33 0.24 0.31 0.38 0.32 0.34
3598.225 0.33 0.27 0.29 0.23 0.2 0.35 0.43 0.44 0.494 0.52
3617.518 0.578 0.486 0.39 0.42 0.38 0.45 0.477 0.475 0.489 0.39
3636.812 0.39 0.493 0.44 0.37 0.42 0.524 0.643 0.616 0.568 0.601
3656.105 0.586 0.44 0.38 0.42 0.495 0.483 0.42 0.42 0.41 0.33
3675.398 0.37 0.38 0.33 0.36 0.4 0.474 0.43 0.39 0.475 0.46
3694.692 0.34 0.41 0.528 0.55 0.492 0.466 0.46 0.522 0.624 0.554
3713.985 0.679 0.683 0.495 0.513 0.611 0.626 0.588 0.665 0.655 0.602
3733.279 0.583 0.577 0.581 0.599 0.653 0.663 0.604 0.58 0.65 0.642
3752.572 0.619 0.674 0.78 0.794 0.711 0.708 0.723 0.69 0.713 0.705
3771.866 0.685 0.754 0.704 0.619 0.678 0.762 0.658 0.614 0.785 0.734
3791.159 0.694 0.825 0.808 0.826 0.862 0.853 0.821 0.757 0.71 0.711
3810.452 0.865 0.834 0.649 0.625 0.714 0.757 0.796 0.771 0.677 0.778
3829.746 0.873 0.795 0.77 0.82 0.774 0.76 0.779 0.727 0.76 0.825
3849.039 0.767 0.788 0.828 0.744 0.777 0.852 0.792 0.719 0.715 0.732
3868.333 0.724 0.76 0.825 0.854 0.888 0.845 0.752 0.803 0.889 0.787
3887.626 0.715 0.853 0.963 0.937 0.892 0.957 1 0.938 0.862 0.831
3906.920 0.798 0.652 0.66 0.773 0.833 0.896 0.892 0.786 0.718 0.757
3926.213 0.774 0.791 0.792 0.885 1.004 0.97 0.91 0.96 1.035 0.983
3945.506 0.958 0.892 0.835 0.899 1.03 1.069 1.011 1.02 0.96 0.929
3964.800 1.004 1.126 1.092 1.014 0.994 0.941 0.986 1.017 0.938 0.906
3984.093 1.037 1.134 1.157 1.167 1.136 1.059 0.948 0.991 1.086
##END=
