##TITLE=Simetryn
##JCAMP-DX=4.24
##DATA TYPE=INFRARED SPECTRUM
##ORIGIN=NIST Mass Spectrometry Data Center
##OWNER=NIST Standard Reference Data Program
Collection (C) 2018 copyright by the U.S. Secretary of Commerce
on behalf of the United States of America. All rights reserved.
##CAS REGISTRY NO=1014-70-6
##MOLFORM=C 8 H 15 N 5 S
##SOURCE REFERENCE=No.290006 (NIST/EPA/NIH MS Database)
##$NIST SOURCE=MSDC-IR
##SPECTROMETER/DATA SYSTEM=HP-GC/MS/IRD
##STATE=gas
##XUNITS=1/CM
##YUNITS=ABSORBANCE
##XFACTOR=1.0
##YFACTOR=0.000015900
##DELTAX=4.0
##FIRSTX=550.0
##LASTX=3846.0
##FIRSTY=0.002942
##MAXX=3846
##MINX=550
##MAXY=0.159
##MINY=0
##NPOINTS=825
##XYDATA=(X++(Y..Y))
550.0 185 126 85 73 61 59 55 48 45 39
590.0 37 35 34 34 33 35 34 28 28 29
630.0 28 26 24 21 21 24 25 25 24 26
670.0 27 20 16 15 16 15 14 11 14 15
710.0 13 12 10 7 8 11 8 3 2 5
750.0 5 4 5 5 9 15 25 36 47 64
790.0 81 102 134 193 277 375 389 297 204 131
830.0 95 88 94 102 115 134 159 182 196 203
870.0 206 215 230 243 252 249 239 222 199 174
910.0 156 149 157 173 197 230 267 295 300 279
950.0 242 217 217 238 269 296 314 316 295 246
990.0 196 156 132 123 125 126 121 117 113 111
1030.0 106 101 98 100 104 112 125 149 168 184
1070.0 191 187 178 168 162 159 167 178 186 195
1110.0 207 214 220 238 270 328 426 564 722 829
1150.0 819 700 551 457 417 384 341 292 245 220
1190.0 218 239 276 321 360 384 396 383 355 329
1230.0 316 319 336 376 452 563 702 838 923 928
1270.0 859 754 659 607 609 667 786 960 1154 1312
1310.0 1385 1394 1404 1475 1625 1831 2069 2312 2474 2435
1350.0 2140 1691 1302 1105 1121 1283 1481 1606 1577 1424
1390.0 1260 1182 1206 1269 1295 1249 1152 1036 915 815
1430.0 772 801 880 969 1042 1088 1122 1182 1274 1384
1470.0 1491 1601 1723 1880 2076 2323 2593 2826 2954 2963
1510.0 2912 2867 2844 2874 3054 3509 4319 5447 6790 8056
1550.0 9047 9688 10000 9958 9459 8471 7234 5918 4694 3562
1590.0 2596 1868 1376 1056 842 692 583 501 438 389
1630.0 345 305 270 241 217 197 179 166 156 147
1670.0 138 132 127 123 116 110 103 96 87 79
1710.0 72 63 57 52 47 41 38 38 36 31
1750.0 30 29 28 26 24 22 21 19 18 18
1790.0 17 19 19 20 20 21 22 21 20 21
1830.0 22 21 21 21 23 26 27 26 25 26
1870.0 25 26 25 24 23 22 21 21 18 18
1910.0 16 14 12 10 9 8 7 6 7 7
1950.0 5 5 5 6 5 4 6 6 5 6
1990.0 6 5 6 7 6 4 4 5 4 5
2030.0 7 7 6 6 5 4 4 3 4 3
2070.0 2 2 3 3 3 3 4 6 6 7
2110.0 8 7 7 3 4 3 2 2 2 3
2150.0 4 3 2 1 2 2 1 1 3 4
2190.0 4 5 6 7 8 7 7 8 11 12
2230.0 14 12 10 12 11 9 10 9 9 10
2270.0 12 11 12 13 13 14 15 14 11 10
2310.0 9 10 9 10 12 14 14 16 18 19
2350.0 21 22 22 21 19 18 17 16 16 15
2390.0 13 12 12 13 15 14 13 15 15 14
2430.0 14 16 18 19 23 23 22 24 26 28
2470.0 28 30 31 31 30 29 29 30 29 28
2510.0 27 25 21 20 19 18 17 16 17 16
2550.0 15 15 12 11 11 10 11 12 11 10
2590.0 9 8 7 7 6 7 7 4 4 5
2630.0 4 2 3 4 3 4 3 4 6 8
2670.0 8 9 7 7 10 11 12 13 15 17
2710.0 16 17 19 18 21 23 23 24 25 28
2750.0 29 28 29 30 29 29 29 30 31 33
2790.0 36 38 38 42 44 45 46 50 56 62
2830.0 69 78 85 91 96 105 116 129 150 177
2870.0 208 252 297 336 357 359 346 333 327 333
2910.0 351 378 416 468 549 682 843 944 925 798
2950.0 645 537 480 470 510 597 700 770 767 698
2990.0 592 483 390 315 260 216 178 146 120 98
3030.0 83 73 67 61 52 47 44 43 41 41
3070.0 39 37 36 38 41 42 41 44 46 45
3110.0 43 43 41 39 39 35 32 31 29 26
3150.0 23 20 17 14 16 17 15 10 9 9
3190.0 8 7 3 2 8 8 6 7 6 4
3230.0 3 2 3 4 1 0 4 3 1 2
3270.0 2 1 2 2 0 2 4 6 5 2
3310.0 1 2 2 1 0 2 4 4 3 2
3350.0 2 3 3 4 6 7 3 3 6 6
3390.0 7 11 10 10 16 20 23 30 39 51
3430.0 64 85 119 178 265 379 505 609 649 605
3470.0 496 363 243 157 104 75 58 46 36 34
3510.0 35 32 31 25 21 18 15 14 12 14
3550.0 15 14 12 10 12 12 11 12 11 11
3590.0 13 11 12 13 10 13 15 17 15 14
3630.0 13 12 13 11 12 12 11 13 13 14
3670.0 15 14 12 14 14 12 13 15 15 16
3710.0 16 11 11 12 15 14 10 11 14 12
3750.0 13 16 13 11 12 14 12 12 13 13
3790.0 14 13 15 15 13 16 15 12 13 13
3830.0 10 8 10 11 11
##END=
