##TITLE=3,4,5-Trimethoxyphenyl isocyanate
##JCAMP-DX=4.24
##DATA TYPE=INFRARED SPECTRUM
##ORIGIN=EPA-IR VAPOR PHASE LIBRARY
##OWNER=SRD/NIST
Collection (C) 2018 copyright by the U.S. Secretary of Commerce
on behalf of the United States of America. All rights reserved.
##CAS REGISTRY NO=1016-19-9
##MOLFORM=C 10 H 11 N O 4
##$NIST SOURCE=MSDC-IR
##STATE=gas
##XUNITS=1/CM
##YUNITS=ABSORBANCE
##XFACTOR=1.
##YFACTOR=0.001
##DELTAX=1.92898
##FIRSTX=549.8
##LASTX=4000.7
##FIRSTY=5.54
##MAXX=4000.7
##MINX=549.759
##MAXY=1.2679
##MINY=0.0004705
##NPOINTS=1790
##XYDATA=(X++(Y..Y))
549.759 5.54 6.16 5.79 5.71 6.17 6.38 7.13 8.18 9.6 10.37
569.049 11.02 11.61 12.01 12.41 13.23 13.67 13.13 12.73 12.61 12.9
588.339 12.38 12.52 13.19 13.84 14.79 15.8 17.52 19.39 21.48 24.6
607.628 27.47 29.65 31.54 30.63 26.92 23.33 20.06 16.91 15.09 13.77
626.918 11.92 11.42 11.47 10.83 10.95 11.79 12.66 12.98 13.44 14.01
646.208 14.19 14.55 14.66 14.73 15.02 15.16 15.15 15.1 15.28 15.6
665.498 15.53 15.82 15.95 15.39 15.2 15.38 14.91 14.22 14.41 14.57
684.787 13.71 12.67 12.54 12.25 11.18 10.54 10.68 10.13 9.38 9.22
704.077 8.58 8.21 8.16 7.92 7.87 7.5 7.25 7.38 7.37 7.39
723.367 7.41 7.64 8.43 9.09 9.48 10 10.37 11.55 12.67 13.04
742.657 13.19 12.59 11.73 10.5 9.31 8.76 8.58 8.48 8.5 9.25
761.947 10.57 11.77 13.72 16.71 19.62 22.17 24.63 26.18 26.18 25.26
781.236 23.39 20.41 17.04 13.76 11.33 9.69 8.54 8.08 7.64 7.42
800.526 7.7 8.17 8.89 9.91 11.5 13.55 15.51 17.73 20.16 22.69
819.816 25.45 27.29 28.02 28.48 28.95 28.48 27.93 28.2 28.58 28.82
839.106 29.02 29.63 30.28 30.64 30.21 29.17 27.85 26.31 24.32 21.93
858.395 19.44 17.09 14.77 12.78 11.48 10.21 9.21 8.2 7.33 7.13
877.685 6.93 7.17 7.33 7.11 7.47 7.64 7.68 7.75 8.43 9.2
896.975 9.7 10.41 11.69 13.57 15.34 17.49 20.74 25.01 30.15 36.46
916.265 43.31 51.2 59.15 66.4 72.95 76.78 78.19 77.57 74.22 68.85
935.555 61.64 53.88 46.17 38.75 32.45 27.18 23.28 19.97 17.68 16.43
954.844 15.45 14.37 13.66 13.2 12.46 12.42 12.76 12.87 13.1 13.47
974.134 13.93 14.69 15.39 16.1 17.37 18.98 20.5 22.42 24.9 27.94
993.424 31.59 36.02 41.96 48.68 56.44 65.84 76.12 86.71 96.72 105.07
1012.714 110.57 112.31 110.26 105.1 97.77 90.99 86.57 83.6 82.15 82.28
1032.003 82.99 82.77 80.57 76.02 68.79 60.81 53.87 47.69 41.6 36.71
1051.293 33.7 32.43 32.19 31.68 32.05 32.83 33.57 36.32 39.57 42.4
1070.583 45.35 48.67 53.55 59.47 65.74 72.57 79.57 87.67 95.52 103.32
1089.873 113.34 122.05 128.13 134.79 142.53 150.35 156.58 162.45 169.81 178.08
1109.163 187.57 198.85 208.63 216.45 225.36 231.91 233.36 231.86 228.8 223.93
1128.452 218.14 209.72 200.2 190.43 178.98 166.67 153.03 139.03 123.92 109.17
1147.742 95.65 83.54 72.61 63.45 58.08 52.8 48.83 47.01 46.51 47.24
1167.032 47.65 48.99 52.16 55.59 57.68 59.43 61.28 61.58 60.73 60.58
1186.322 60.83 58.99 56.71 56.6 57 58.82 62.46 67.85 75.44 84.03
1205.611 93.43 105.56 119.39 132.23 145.47 160.11 173.59 182.26 187.65 193.2
1224.901 195 192.55 189.02 184.86 180.4 174.95 167.61 159.82 151.13 141.15
1244.191 130.73 120.12 109.52 99.49 90.83 83.21 76.49 70.93 65.82 61.25
1263.481 57.36 54.54 51.71 48.02 45.27 43.53 41.91 40.5 39.75 39.18
1282.771 39.48 40.55 42.01 44.25 46.84 49.71 52.96 56.33 59.03 61.06
1302.060 62.12 61.92 60.49 57.56 53.7 49.4 44.7 40.06 35.6 31.61
1321.350 28.4 25.52 23.01 20.93 19.24 17.9 16.87 15.92 15.03 14.3
1340.640 13.63 13.19 12.84 12.5 12.28 12.06 12.01 12 12.03 11.94
1359.930 11.74 11.79 12.07 12.37 12.58 12.84 13.18 13.64 14.19 14.99
1379.219 15.91 16.93 18.43 20.15 22.33 25.08 28.51 32.95 38.53 45.56
1398.509 54.51 65.61 78.26 92.87 108.34 123.36 137.05 148.74 157.99 165.27
1417.799 170.35 173.49 174.39 172.87 168.39 161.19 150.77 138 123.69 109.21
1437.089 94.92 84.16 76.97 72.75 71.3 72.22 75.16 79.16 84.27 89.92
1456.378 96.34 103.69 110.44 116.54 121.63 125.32 126.9 126.56 124.69 121.06
1475.668 116.15 110.47 105.22 101.51 99.88 100.71 104.4 110.83 120.07 131.34
1494.958 144.7 160.51 177.06 193.54 208.12 218.88 225.18 225.61 219.27 205.98
1514.248 188.22 166.93 143.78 122.75 102.16 86.08 73.07 63.07 55.6 50.34
1533.538 46.46 43.4 41.46 40.27 39.63 39.47 40.02 40.92 42.31 44.46
1552.827 47.46 51.3 55.58 61.6 69.16 76.92 87.06 99.08 112.77 128.42
1572.117 144.77 161.56 178.76 194.71 207.89 218.02 223.91 225.49 222.66 216.38
1591.407 207.61 197.86 188.58 180.48 173.59 167.14 160.24 152.23 142.85 131.64
1610.697 119.53 106.86 94.6 82.59 71.91 63.6 56.47 50.33 45.38 41.39
1629.986 38.08 35.05 32.54 30.31 28.21 26.57 24.93 23.28 21.86 20.47
1649.276 19.17 18.26 17.21 16.28 15.56 14.75 13.91 13.47 12.89 12.1
1668.566 11.54 11.11 10.57 10.17 9.86 9.47 9.24 8.94 8.64 8.24
1687.856 7.97 7.77 7.61 7.53 7.39 7.31 7.12 6.99 6.85 6.68
1707.146 6.58 6.32 6.06 5.98 5.83 5.58 5.32 5.14 5.14 5.04
1726.435 4.94 4.94 4.89 4.92 4.78 4.47 4.51 4.67 4.57 4.5
1745.725 4.38 4.3 4.42 4.48 4.48 4.42 4.41 4.25 4.19 4.27
1765.015 3.99 3.92 3.93 4.06 4.07 3.86 3.93 3.91 3.88 3.79
1784.305 3.7 3.74 3.67 3.58 3.49 3.4 3.4 3.29 3.14 3.13
1803.594 3.05 3.04 3.06 2.98 3.1 3.16 3.06 3.14 3.18 3.01
1822.884 2.98 3.09 3.17 3.12 2.96 2.91 2.92 2.9 2.96 3.01
1842.174 2.99 2.89 2.76 2.65 2.66 2.62 2.61 2.84 2.88 2.7
1861.464 2.78 2.81 2.69 2.66 2.69 2.73 2.61 2.65 2.75 2.81
1880.754 2.78 2.66 2.68 2.75 2.79 2.86 2.88 2.84 2.83 2.78
1900.043 2.74 2.88 2.98 2.86 2.93 2.92 2.92 3.04 3.07 3.15
1919.333 3.21 3.17 3.32 3.55 3.59 3.73 4 4.11 4.29 4.71
1938.623 4.95 5.17 5.55 5.79 5.99 6.29 6.63 6.91 7.1 7.18
1957.913 7.18 7.29 7.22 7.11 7.21 7.16 6.89 6.6 6.54 6.48
1977.202 6.28 6.33 6.4 6.18 6.11 6.21 6.16 6.22 6.38 6.52
1996.492 6.6 6.77 7.01 7.26 7.58 7.87 8.06 8.16 8.36 8.53
2015.782 8.5 8.68 8.77 8.53 8.52 8.37 8 7.69 7.41 7.23
2035.072 7 6.8 6.65 6.4 6.26 6.14 6.18 6.43 6.35 6.06
2054.362 5.96 5.99 6.03 6.18 6.25 6.22 6.28 6.31 6.28 6.33
2073.651 6.41 6.67 6.96 7.17 7.48 7.67 7.73 7.87 8.15 8.44
2092.941 8.72 8.95 9.21 9.76 10.29 10.73 11.25 11.86 12.62 13.21
2112.231 13.73 14.57 15.34 16 16.73 17.51 18.29 19.06 19.83 20.55
2131.521 21.38 22.34 23.2 24.23 25.36 26.29 27.38 28.61 29.65 30.63
2150.810 31.66 32.71 33.61 34.5 35.4 36.17 36.9 37.84 38.94 40
2170.100 41.3 42.79 44.18 45.68 47.58 49.55 51.51 53.74 56.41 59.26
2189.390 62.18 65.23 68.73 72.6 76.75 81.36 86.39 91.83 97.75 103.95
2208.680 110.25 116.55 122.88 129.44 135.66 141.83 148.27 154.85 162 170.07
2227.970 178.73 188.27 199.06 211.14 224.74 239.87 256.9 276.33 298.83 324.59
2247.259 354.13 388.06 426.75 471.46 523.52 584.56 656.59 739.72 833.97 939.36
2266.549 1048.84 1147.27 1221.06 1263.93 1267.9 1234.52 1165.96 1059.89 929.32 789.79
2285.839 657.63 543.94 451.41 378.21 321.47 278.11 244.33 218.47 198.32 181.76
2305.129 168.27 157.13 147.55 139.27 132.41 126.83 122.3 119.26 117.42 116.61
2324.418 117.06 118.22 119.71 121.05 122.19 123.24 124.05 125.14 126.76 128.6
2343.708 130.91 133.55 134.97 134.14 130.89 124.71 115.97 105.79 95 84
2362.998 73.34 63.95 56.1 49.78 44.75 40.67 37.31 34.66 32.65 31.13
2382.288 29.87 28.82 28.17 27.4 26.59 25.98 25.58 25.14 24.56 24.12
2401.578 23.46 22.54 21.82 21.28 20.74 20.12 19.43 18.74 18.36 18
2420.867 17.62 17.38 17.16 16.93 16.67 16.43 16.02 15.53 14.97 14.29
2440.157 13.52 13.02 12.49 11.53 10.8 10.29 9.83 9.27 8.76 8.39
2459.447 8.03 7.78 7.4 6.99 6.88 6.57 6.21 6.03 5.87 5.86
2478.737 5.51 5.2 5.03 5.05 5.12 4.92 4.88 4.68 4.59 4.7
2498.026 4.63 4.52 4.57 4.53 4.18 4.2 4.31 4.17 4.37 4.47
2517.316 4.4 4.43 4.4 4.43 4.17 4.15 4.27 4.07 4.16 4.24
2536.606 4.09 3.91 3.86 3.77 3.65 3.59 3.45 3.36 3.23 3.13
2555.896 3.27 3.25 3.16 3.1 2.86 3.02 3.17 3.18 3.27 3.23
2575.186 3.25 3.31 3.38 3.35 3.47 3.29 3.3 3.6 3.75 3.99
2594.475 3.98 3.94 3.94 3.92 3.98 4.1 4.03 3.96 4.02 4.16
2613.765 4.2 3.91 3.74 3.66 3.73 3.73 3.41 3.38 3.42 3.5
2633.055 3.63 4.02 4.31 4.23 4.32 4.35 4.5 4.9 5.06 5.02
2652.345 4.92 4.9 5.09 5.24 5.27 5.33 5.45 5.49 5.19 4.92
2671.634 4.82 4.75 5.09 5.26 4.88 4.76 4.73 4.43 4.23 4.31
2690.924 4.41 4.24 4.24 4.1 3.87 3.94 3.88 3.68 3.88 4.1
2710.214 4.14 4.13 3.94 3.97 4.08 4.25 4.16 3.97 4.15 4.41
2729.504 4.42 4.26 4.23 4.16 4.08 4.22 4.38 4.23 4.23 4.22
2748.794 4.05 4.12 4.16 4.4 4.5 4.29 4.36 4.52 4.66 4.8
2768.083 4.66 4.56 4.53 4.57 4.96 5.26 5.47 5.62 5.4 5.64
2787.373 6.28 6.28 6.34 6.79 7.4 7.67 7.93 8.69 9.24 9.88
2806.663 10.74 11.67 12.8 13.87 15.02 16.59 18.35 20.62 23.21 26.16
2825.953 30.18 34.77 39.24 43.99 48.85 52.45 54.37 55.04 54.68 52.96
2845.242 50.46 48.01 45.41 42.76 40.34 38.33 36.87 35.65 34.73 34.23
2864.532 33.93 34 34.19 34.33 34.66 34.89 35.29 36.18 37.07 37.79
2883.822 38.52 38.98 39.59 40.47 41.08 41.59 42.14 42.79 43.33 43.68
2903.112 44.28 44.85 45.53 46.37 47.23 48.45 49.92 51.26 52.39 53.75
2922.401 55.44 57.42 59.78 63.08 67.61 73.46 80.7 88.37 96.71 105.76
2941.691 113.99 119.81 123.12 123.63 121.69 118.09 111.84 104.14 96.76 90.18
2960.981 84.53 80.62 77.06 72.92 69.35 66.21 63.42 60.39 57.57 55.4
2980.271 53.48 52.27 51.41 50.93 51.3 52.37 54.39 56.95 59.72 63.21
2999.561 66.51 69.28 72 73.2 72.51 70.56 66.96 62.05 56.08 49.85
3018.850 43.71 38.1 33.76 29.9 26.56 24.34 22.74 21.21 19.93 18.87
3038.140 17.98 17.32 16.62 15.81 15.2 14.71 14.21 13.99 13.9 13.65
3057.430 13.34 13.23 13.08 12.54 12.32 12.23 12.07 12.19 12.05 11.81
3076.720 11.85 11.68 11.1 10.87 10.59 10.56 10.54 10.06 9.42 8.9
3096.009 8.5 8.2 8.18 7.81 7.21 6.91 6.71 6.54 6.18 5.74
3115.299 5.42 5.32 5.16 4.8 4.45 4.09 4.27 4.47 4.3 3.83
3134.589 3.58 3.88 3.99 4.1 4.19 3.84 3.43 3.2 3.57 4.01
3153.879 3.81 3.46 3.23 3.33 3.34 3.59 3.79 3.74 3.81 3.98
3173.169 4.33 4.62 4.91 4.97 5.07 5.38 5.88 6.25 6.4 6.57
3192.458 6.66 7.06 7.35 7.28 7.23 7.23 6.86 6.47 6.22 5.2
3211.748 4.17 3.76 3.68 3.71 3.62 3.45 3.43 2.97 2.21 2.14
3231.038 2.07 1.75 1.79 2 1.68 1.13 1.05 1.19 1.5 1.64
3250.328 1.61 1.38 1.36 1.75 1.8 1.51 1.23 1.25 1.37 1.48
3269.617 1.65 1.42 1.28 1.64 1.57 1.21 1.33 1.49 1.38 1.11
3288.907 0.8397 0.7403 0.632 0.7356 1.1 1.02 0.94 1.32 1.45 1.22
3308.197 1.15 1.12 1.22 1.44 1.61 1.87 1.69 1.67 1.8 1.78
3327.487 1.65 1.88 2.1 1.48 1.38 1.73 1.94 2 1.77 1.61
3346.777 1.67 1.89 2.02 1.99 2.31 2.61 2.99 3.33 3.47 3.55
3366.066 3.31 3.57 3.78 3.66 3.87 3.6 3.57 3.88 4.1 3.89
3385.356 3.48 3.38 3.29 3.12 2.82 2.7 2.49 2.45 2.67 2.67
3404.646 2.27 1.85 1.76 1.9 1.67 1.73 1.91 1.51 1.54 1.37
3423.936 1.29 1.63 1.66 1.4 1.19 1.23 1.29 1.47 1.5 1.34
3443.225 1.44 1.39 1.12 1.37 1.59 1.34 1.33 1.63 1.52 1.51
3462.515 1.75 1.74 1.35 0.8415 1 1.37 1.53 1.2 1.16 1.37
3481.805 1.26 1.35 1.46 1.29 1.04 0.927 0.835 1.07 0.9482 0.5822
3501.095 1.07 1.45 1.16 1.22 1.34 1.15 1.21 1.51 1.45 1.44
3520.385 1.95 1.94 1.73 1.99 2.26 2.17 1.86 2.06 1.9 1.86
3539.674 2.34 2.46 3.08 3.36 2.87 2.76 3.03 3.39 3.86 4.12
3558.964 4.02 4.05 4.16 4.39 5.07 5.22 4.98 5.2 5.01 4.5
3578.254 4.35 4.49 4.77 4.68 4.52 4.35 4.46 4.25 3.61 3.31
3597.544 3.08 3.26 3.07 2.69 2.67 2.58 2.48 2.68 2.8 2.31
3616.833 2.07 2.19 2.03 1.91 1.35 1.23 1.62 1.7 1.93 2.21
3636.123 2.27 2.31 2.14 2.01 2.47 2.73 2.85 2.93 2.75 2.69
3655.413 2.75 2.87 2.83 3.09 3.04 2.73 3 3.14 2.89 2.75
3674.703 3.35 3.66 3.46 3.52 3.88 4.19 4.04 3.75 4.18 4.53
3693.993 4.57 4.56 4.54 4.77 4.9 4.66 4.4 4.36 4.28 4.06
3713.282 3.96 3.96 3.87 4.13 4.14 3.87 3.84 3.76 4.16 4.45
3732.572 4.34 4.6 4.43 3.96 3.85 3.95 4.18 4.04 3.58 3.3
3751.862 3.26 3.06 2.83 3.03 3.17 2.6 2.54 3.22 3.13 2.72
3771.152 2.73 3.05 3.11 3.22 3.64 3.56 2.83 2.75 3.08 3.08
3790.441 2.84 2.67 2.6 2.48 2.54 2.51 2.58 2.82 2.52 2.14
3809.731 2.28 2.71 2.71 2.06 1.82 1.8 1.47 1.47 1.7 1.63
3829.021 1.27 1.15 1.59 1.74 1.78 1.7 1.8 1.58 1.08 1.42
3848.311 1.79 1.38 1.07 1.04 0.8133 1.03 1.37 1.55 1.04 1.01
3867.601 1.5 1.11 1.07 1.06 0.8611 1.07 1.14 1.21 1.24 1.29
3886.890 1.3 1.24 1.19 1.18 1.23 1.2 1.55 1.4 1.2 1.12
3906.180 0.751 0.8994 1.12 1.06 1.01 1.16 1.17 1.02 1.13 1.21
3925.470 0.997 0.9895 1.13 1.12 1 0.7945 0.7542 0.9765 0.4811 0.4705
3944.760 0.9784 1.26 1.21 1.14 1.3 1.32 1.23 1.25 1.34 1.15
3964.049 1.17 1.15 0.8735 0.9686 1.33 1.28 1.52 1.68 1.34 1.43
3983.339 1.11 0.7801 1.34 1.79 1.74 1.45 1.34 1.23 1.28 1.2
##END=
