##TITLE=6-Nitroveratryl alcohol
##JCAMP-DX=4.24
##DATA TYPE=INFRARED SPECTRUM
##ORIGIN=EPA-IR VAPOR PHASE LIBRARY
##OWNER=SRD/NIST
Collection (C) 2018 copyright by the U.S. Secretary of Commerce
on behalf of the United States of America. All rights reserved.
##CAS REGISTRY NO=1016-58-6
##MOLFORM=C 9 H 11 N O 5
##$NIST SOURCE=MSDC-IR
##STATE=gas
##XUNITS=1/CM
##YUNITS=ABSORBANCE
##XFACTOR=1.
##YFACTOR=0.001
##DELTAX=1.929
##FIRSTX=549.8
##LASTX=4000.8
##FIRSTY=4.04
##MAXX=4000.75
##MINX=549.766
##MAXY=0.15155
##MINY=0
##NPOINTS=1790
##XYDATA=(X++(Y..Y))
549.766 4.04 4.17 4.08 3.8 3.72 3.52 3.41 3.5 3.4 3.34
569.056 3.53 3.57 3.62 3.71 3.81 3.94 4.21 4.58 4.66 4.75
588.346 5.03 5.43 5.72 5.76 5.81 6.02 6.06 5.85 5.72 5.66
607.636 5.44 5.03 4.82 4.78 4.8 4.78 4.52 4.44 4.46 4.26
626.926 4.06 4.14 4.23 4.21 4.24 4.2 4.1 3.96 4.01 4.04
646.216 4.01 3.97 4.02 4.06 4 4.08 4.09 4.08 4.07 4.03
665.506 4.04 3.9 3.72 3.62 3.46 3.36 3.27 3.21 3.19 3.17
684.796 3.05 2.88 2.73 2.59 2.48 2.49 2.54 2.53 2.52 2.54
704.086 2.55 2.58 2.63 2.75 2.94 3.16 3.44 3.74 3.98 4.23
723.376 4.63 4.92 5.18 5.52 5.86 6.13 6.24 6.4 6.64 6.74
742.666 6.72 6.8 6.98 7.12 7.22 7.28 7.51 7.85 8.02 8.32
761.956 8.62 8.75 9 9.42 9.9 10.5 11.29 12.27 13.47 14.81
781.246 16.33 18.06 19.88 21.49 22.68 23.4 23.37 22.42 20.89 18.96
800.536 16.64 14.37 12.27 10.44 9.02 7.96 7.03 6.21 5.67 5.2
819.826 4.88 4.79 4.72 4.72 4.73 4.73 4.96 5.17 5.4 5.79
839.116 6.23 6.74 7.31 7.93 8.42 8.83 9.15 9.37 9.54 9.68
858.406 9.94 10.2 10.36 10.56 10.69 10.73 10.79 10.82 10.79 10.68
877.696 10.59 10.6 10.77 10.97 11.23 11.46 11.55 11.69 11.65 11.32
896.986 10.78 10.06 9.22 8.3 7.57 6.86 6.1 5.61 5.25 4.97
916.276 4.82 4.75 4.85 4.86 4.88 5.09 5.28 5.42 5.67 6.03
935.566 6.41 6.86 7.37 7.93 8.53 9.35 10.37 11.48 12.7 13.98
954.856 15.12 16.14 16.86 17.25 17.44 17.33 17.08 16.74 16.34 16.08
974.146 15.89 15.67 15.5 15.27 15.08 14.94 14.8 14.72 14.58 14.57
993.436 14.77 14.98 15.31 15.94 16.69 17.66 18.97 20.48 22.36 24.55
1012.726 26.93 29.77 33.01 36.49 40.19 44.18 48.15 51.74 54.82 57.14
1032.016 58.46 58.66 57.76 55.73 52.86 49.52 46.12 43.07 40.83 39.69
1051.306 39.78 41.4 44.75 49.64 55.79 62.67 69.36 74.84 78.07 78.48
1070.596 76.17 71.3 63.81 54.51 44.67 35.7 28.54 23.06 18.97 16.03
1089.886 13.89 12.35 11.26 10.37 9.66 9.1 8.66 8.34 7.99 7.69
1109.176 7.57 7.48 7.37 7.37 7.41 7.44 7.53 7.68 7.93 8.22
1128.467 8.6 9.19 9.87 10.64 11.71 13.08 14.6 16.29 18.25 20.34
1147.757 22.36 24.43 26.44 28.05 29.35 30.44 31.19 31.49 31.53 31.48
1167.047 31.32 31.21 31.13 31.06 31.03 30.88 30.65 30.37 29.99 29.52
1186.337 28.95 28.42 27.85 27.42 27.25 27.26 27.83 28.93 30.29 32.22
1205.627 34.59 37.2 40.1 43.1 46.28 49.41 52.16 54.76 57.04 58.65
1224.917 59.56 59.73 59.28 58.16 56.17 53.57 50.68 47.67 44.69 42.01
1244.207 39.86 38.45 37.89 38.23 39.44 41.67 44.84 48.89 54.01 60.17
1263.497 67.47 75.83 85.02 94.79 104.66 114.07 122.42 129.12 133.59 135.52
1282.787 134.91 131.83 126.46 119.32 110.95 101.94 92.87 84.18 76.28 69.39
1302.077 63.6 58.93 55.43 52.83 50.85 49.67 49.17 49.17 49.73 50.92
1321.367 52.74 55.26 58.49 62.26 66.62 71.44 76.38 81.06 85.22 88.54
1340.657 90.82 91.95 92.01 91.1 89.32 86.81 83.58 79.71 75.35 70.56
1359.947 65.48 60.37 55.48 51.19 47.55 44.56 42.17 40.28 38.8 37.66
1379.237 36.76 36.05 35.38 34.71 34.07 33.28 32.38 31.42 30.25 28.86
1398.527 27.38 25.81 24.22 22.61 21.07 19.61 18.3 17.25 16.46 15.83
1417.817 15.46 15.25 15.18 15.42 15.91 16.68 17.83 19.19 20.87 22.76
1437.107 24.82 26.59 27.97 28.88 29.28 29.22 28.85 28.44 28.36 28.82
1456.397 29.93 31.66 33.73 35.93 37.79 38.96 39.31 39.06 38.17 36.82
1475.687 35.35 33.86 32.96 32.94 33.9 35.91 39.11 43.53 49.16 55.66
1494.977 63.18 71.76 80.28 88.38 95.41 100.61 104.18 105.9 105.76 104.42
1514.267 102.82 101.93 102.43 104.98 110.35 117.62 126.66 136.13 144.36 149.86
1533.557 151.55 149.02 142.44 131.4 117.73 103.65 89.95 78.16 68.88 61.61
1552.847 56.45 52.59 50.16 48.63 47.73 47.45 47.71 48.18 48.65 48.99
1572.137 48.96 48.47 47.23 45.23 42.64 39.4 35.77 31.89 28.2 24.74
1591.427 21.68 19.16 17.06 15.47 14.35 13.57 13.1 12.84 12.74 12.7
1610.717 12.67 12.59 12.47 12.22 11.83 11.29 10.62 9.84 8.97 8.18
1630.007 7.54 6.93 6.39 5.94 5.6 5.3 5.03 4.79 4.61 4.47
1649.297 4.31 4.2 4.04 3.9 3.83 3.72 3.57 3.45 3.4 3.35
1668.587 3.29 3.17 3.06 3.03 2.95 2.86 2.84 2.83 2.76 2.67
1687.877 2.64 2.61 2.6 2.64 2.69 2.74 2.73 2.69 2.75 2.81
1707.167 2.84 2.87 2.9 2.86 2.83 2.84 2.77 2.64 2.56 2.53
1726.457 2.48 2.41 2.37 2.3 2.21 2.24 2.21 2.15 2.15 2.15
1745.747 2.16 2.17 2.19 2.17 2.17 2.16 2.14 2.15 2.0812 2.0417
1765.037 2.0156 2.0147 2.0135 1.9288 1.8895 1.8938 1.8702 1.9278 1.9527 1.891
1784.327 1.8867 1.853 1.8108 1.7902 1.7728 1.74 1.6858 1.7057 1.717 1.7218
1803.617 1.704 1.636 1.5944 1.5986 1.6372 1.6364 1.6231 1.6214 1.5946 1.6059
1822.907 1.6174 1.5402 1.5505 1.5742 1.5736 1.5813 1.5155 1.4988 1.4978 1.4549
1842.197 1.4286 1.3731 1.3411 1.3441 1.3088 1.3164 1.3155 1.2731 1.2896 1.3147
1861.487 1.3067 1.2819 1.2221 1.2111 1.2268 1.2326 1.2385 1.217 1.20111 1.17393
1880.777 1.11365 1.0833 1.0884 1.0644 1.065 1.0945 1.0787 1.0752 1.0547 1.035
1900.067 1.0906 1.0973 1.0386 1.0131 1.0287 1.0313 1.0512 1.0712 1.0982 1.10061
1919.357 1.0444 1.005 1.0545 1.10125 1.0981 1.12491 1.15308 1.1709 1.13793 1.13826
1938.647 1.1603 1.13698 1.12958 1.16046 1.16534 1.17289 1.20861 1.2126 1.2227 1.2711
1957.937 1.278 1.2363 1.2566 1.2991 1.3205 1.3765 1.4353 1.4861 1.5179 1.5331
1977.227 1.5488 1.61 1.6832 1.709 1.7515 1.8642 1.951 1.9821 2.0374 2.1026
1996.517 2.19 2.24 2.28 2.35 2.41 2.47 2.51 2.54 2.52 2.54
2015.807 2.58 2.61 2.62 2.62 2.66 2.67 2.68 2.71 2.68 2.64
2035.097 2.64 2.63 2.62 2.65 2.66 2.64 2.64 2.63 2.62 2.57
2054.387 2.56 2.58 2.55 2.58 2.56 2.52 2.52 2.44 2.37 2.28
2073.677 2.17 2.1089 2.0801 2.001 1.8783 1.831 1.8263 1.7447 1.6586 1.6353
2092.967 1.5617 1.4615 1.4186 1.3806 1.3802 1.3846 1.3743 1.3805 1.3327 1.2734
2112.257 1.2556 1.2325 1.18189 1.13921 1.15516 1.15868 1.10137 1.0951 1.0848 1.0308
2131.547 1.01 1.0359 1.06 1.0228 1.0169 1.03 1.0208 1.0388 0.989 0.89
2150.837 0.89 0.91 0.876 0.819 0.823 0.837 0.791 0.814 0.856 0.806
2170.127 0.805 0.858 0.906 0.888 0.842 0.844 0.866 0.9 0.898 0.902
2189.417 0.969 1.0204 1.0239 0.986 0.987 1.006 0.963 0.923 0.901 0.938
2208.707 0.965 0.964 0.969 0.952 0.909 0.93 1 0.992 0.945 0.948
2227.997 0.955 0.919 0.911 0.916 0.936 0.951 0.902 0.919 0.955 0.947
2247.287 0.976 0.987 1.0207 1.014 1.008 1.0603 1.0813 1.0974 1.0911 1.0693
2266.577 1.0527 1.0762 1.0711 1.0498 1.0642 1.10045 1.12178 1.1437 1.1656 1.12802
2285.868 1.16783 1.2122 1.1996 1.20777 1.18707 1.2516 1.3438 1.2743 1.239 1.2626
2305.158 1.2689 1.2551 1.2183 1.2269 1.2165 1.19391 1.17655 1.13358 1.0486 1.0476
2324.448 1.072 1.0604 1.0977 1.10366 1.0655 1.0333 0.971 0.937 0.932 0.944
2343.738 0.994 0.994 0.939 0.903 0.921 0.922 0.951 0.968 0.937 0.935
2363.028 0.941 0.975 1.006 0.997 0.983 0.975 0.972 0.951 0.923 0.981
2382.318 1.0213 1.0186 1.016 1.0802 1.12242 1.0564 1.0639 1.069 1.10667 1.15218
2401.608 1.10733 1.13311 1.2152 1.18499 1.12083 1.12641 1.12919 1.14924 1.18156 1.16933
2420.898 1.099 1.0485 1.0715 1.0847 1.0252 1.0242 1.0723 1.0637 1.0592 1.0324
2440.188 1.0199 1.0268 0.969 0.907 0.953 0.995 0.986 1.0136 1.002 0.959
2459.478 0.937 0.933 1.005 0.985 0.905 0.905 0.912 0.952 0.9 0.859
2478.768 0.858 0.875 0.892 0.817 0.807 0.848 0.918 0.934 0.911 0.902
2498.058 0.923 0.948 0.963 1.009 0.997 0.939 0.961 1.0138 0.997 0.991
2517.348 0.956 0.919 0.935 0.97 0.958 0.983 1.0596 1.0867 1.0569 1.044
2536.638 1.0824 1.10158 1.0858 1.14115 1.246 1.2224 1.17025 1.19948 1.2398 1.2569
2555.928 1.282 1.3052 1.3346 1.4237 1.4708 1.4884 1.5153 1.4858 1.5335 1.6646
2575.218 1.6969 1.7005 1.7762 1.8328 1.8876 1.8689 1.8764 1.9598 2.0029 2.0812
2594.508 2.12 2.16 2.24 2.31 2.29 2.17 2.16 2.2 2.24 2.25
2613.798 2.23 2.11 2.0656 2.0867 2.0451 2.0708 2.0363 2.0195 1.9726 1.8951
2633.088 1.929 1.9278 1.8421 1.8378 1.8225 1.7331 1.6832 1.66 1.634 1.6434
2652.378 1.6447 1.6488 1.6081 1.4953 1.4817 1.428 1.3521 1.4167 1.4686 1.5216
2671.668 1.563 1.4958 1.4595 1.4515 1.3629 1.2885 1.3012 1.3264 1.2757 1.2625
2690.958 1.2353 1.1349 1.087 1.0772 1.0809 1.004 0.969 1.0333 1.0897 1.0995
2710.248 1.0925 1.0814 1.0674 1.0922 1.15034 1.0717 1.0101 1.0911 1.15305 1.20178
2729.538 1.2187 1.2359 1.2566 1.3209 1.2673 1.19503 1.2226 1.268 1.3221 1.3628
2748.828 1.4134 1.4417 1.4534 1.4555 1.4093 1.4356 1.497 1.4978 1.5342 1.5922
2768.118 1.6314 1.6572 1.7589 1.8002 1.8401 1.9141 1.9367 1.9945 2.0686 2.17
2787.408 2.26 2.27 2.35 2.46 2.52 2.69 2.84 2.86 2.96 3.13
2806.698 3.29 3.48 3.64 3.88 4.18 4.46 4.84 5.22 5.69 6.23
2825.988 6.76 7.26 7.98 8.83 9.56 10.34 11.21 12.14 13.02 13.93
2845.278 14.85 15.74 16.55 17.25 17.81 18.01 17.93 17.64 17.08 16.36
2864.568 15.46 14.41 13.55 12.77 12.11 11.59 11.18 11.06 11.09 11.24
2883.858 11.5 11.83 12.2 12.6 13.11 13.56 13.92 14.19 14.41 14.6
2903.148 14.8 15.01 15.2 15.5 15.85 16.3 16.71 17.11 17.45 17.79
2922.438 18.21 18.47 18.92 19.71 20.65 21.96 23.73 25.92 28.33 30.82
2941.728 33.27 35.27 36.5 37.16 37.13 36.45 35.33 34.06 32.79 31.63
2961.018 30.75 29.99 29.21 28.35 27.14 25.58 23.93 22.11 20.28 18.63
2980.308 17.2 16.02 15.08 14.31 13.69 13.25 13.04 13.06 13.18 13.58
2999.598 14.21 15.01 16.11 17.4 18.71 19.87 20.75 21.04 20.71 19.73
3018.888 18.1 16.05 13.85 11.76 9.94 8.53 7.46 6.61 5.95 5.47
3038.178 5.12 4.81 4.57 4.29 4.06 4.02 3.85 3.61 3.55 3.5
3057.468 3.41 3.35 3.24 3.15 3.21 3.18 3.22 3.2 3.14 3.29
3076.758 3.42 3.5 3.6 3.7 3.65 3.67 3.76 3.81 3.88 3.83
3096.048 3.7 3.56 3.32 3.09 2.91 2.72 2.54 2.43 2.24 1.9772
3115.338 1.7778 1.6133 1.5755 1.5492 1.435 1.2831 1.222 1.2838 1.2362 1.1728
3134.628 1.11708 1.0645 1.0168 0.949 0.982 0.972 0.855 0.844 0.858 0.786
3153.918 0.754 0.714 0.679 0.667 0.602 0.561 0.534 0.595 0.656 0.622
3173.208 0.577 0.546 0.55 0.479 0.457 0.544 0.621 0.664 0.683 0.597
3192.498 0.569 0.517 0.382 0.423 0.456 0.498 0.528 0.453 0.446 0.415
3211.788 0.303 0.226 0.232 0.284 0.268 0.3 0.35 0.323 0.285 0.256
3231.078 0.24 0.186 0.159 0.227 0.239 0.173 0.154 0.199 0.178 0.17
3250.368 0.233 0.157 0.07 0.134 0.112 0.08 0.12 0.118 0.1 0.138
3269.658 0.223 0.128 0.04 0.07 0.129 0.1 0 0.02 0.09 0.198
3288.948 0.269 0.205 0.1 0.118 0.123 0.11 0.185 0.198 0.132 0.146
3308.238 0.159 0.172 0.13 0.08 0.09 0.09 0.208 0.281 0.215 0.245
3327.528 0.266 0.199 0.224 0.09 0.1 0.271 0.266 0.292 0.218 0.08
3346.818 0.04 0.04 0.07 0.188 0.3 0.299 0.233 0.13 0.135 0.265
3366.108 0.284 0.233 0.214 0.238 0.179 0.161 0.17 0.225 0.303 0.277
3385.398 0.312 0.271 0.273 0.279 0.206 0.31 0.33 0.331 0.393 0.355
3404.688 0.287 0.295 0.29 0.334 0.391 0.401 0.514 0.42 0.284 0.328
3423.978 0.37 0.421 0.406 0.299 0.35 0.358 0.251 0.303 0.431 0.459
3443.269 0.439 0.398 0.379 0.435 0.484 0.442 0.462 0.532 0.485 0.401
3462.559 0.439 0.545 0.421 0.365 0.443 0.421 0.416 0.368 0.386 0.529
3481.849 0.494 0.402 0.419 0.462 0.532 0.562 0.574 0.507 0.449 0.522
3501.139 0.563 0.645 0.704 0.629 0.506 0.514 0.598 0.669 0.674 0.64
3520.429 0.595 0.595 0.652 0.695 0.649 0.552 0.617 0.701 0.677 0.748
3539.719 0.667 0.552 0.615 0.623 0.634 0.777 0.837 0.825 0.833 0.853
3559.009 0.903 0.956 0.819 0.767 0.87 0.807 0.881 0.943 0.991 0.945
3578.299 0.926 1.11664 1.2307 1.2244 1.3284 1.3008 1.2502 1.2144 1.18106 1.4003
3597.589 1.6711 1.8517 1.9529 2.11 2.43 2.93 3.54 4.14 4.79 5.69
3616.879 6.56 7.32 7.95 8.24 8.35 8.29 8.1 7.78 7.31 6.79
3636.169 6.4 5.92 5.47 5.23 5.01 4.84 4.62 4.46 4.54 4.64
3655.459 4.81 5.1 5.29 5.54 5.83 6.04 6.29 6.48 6.62 6.63
3674.749 6.58 6.47 6.3 6.01 5.43 4.93 4.43 3.89 3.43 2.94
3694.039 2.59 2.34 2.1054 1.8763 1.7185 1.6138 1.5567 1.5104 1.4532 1.4229
3713.329 1.3108 1.2466 1.13208 1.0828 1.17826 1.0767 1.0119 1.0721 1.0979 1.15848
3732.619 1.0738 0.935 0.906 0.911 0.919 0.866 0.749 0.746 0.848 0.883
3751.909 0.789 0.661 0.695 0.884 0.877 0.78 0.781 0.71 0.629 0.672
3771.199 0.756 0.747 0.695 0.679 0.559 0.524 0.748 0.798 0.681 0.585
3790.489 0.584 0.634 0.709 0.671 0.466 0.473 0.581 0.629 0.716 0.699
3809.779 0.594 0.564 0.565 0.583 0.649 0.783 0.887 0.819 0.677 0.687
3829.069 0.665 0.661 0.73 0.579 0.599 0.759 0.777 0.708 0.613 0.656
3848.359 0.67 0.627 0.632 0.656 0.606 0.435 0.473 0.65 0.671 0.669
3867.649 0.646 0.615 0.609 0.595 0.531 0.438 0.511 0.598 0.591 0.65
3886.939 0.697 0.807 0.94 0.861 0.713 0.558 0.545 0.668 0.766 0.802
3906.229 0.723 0.675 0.767 0.798 0.748 0.781 0.806 0.752 0.76 0.786
3925.519 0.716 0.71 0.655 0.625 0.756 0.772 0.622 0.574 0.606 0.689
3944.809 0.676 0.619 0.677 0.658 0.668 0.775 0.799 0.669 0.635 0.687
3964.099 0.704 0.711 0.689 0.694 0.706 0.693 0.713 0.73 0.807 0.738
3983.389 0.618 0.689 0.726 0.72 0.782 0.829 0.811 0.825 0.757 0.737
##END=
