##TITLE=Dibenzothiophene-5,5-dioxide
##JCAMP-DX=4.24
##DATA TYPE=INFRARED SPECTRUM
##ORIGIN=EPA-IR VAPOR PHASE LIBRARY
##OWNER=SRD/NIST
Collection (C) 2018 copyright by the U.S. Secretary of Commerce
on behalf of the United States of America. All rights reserved.
##CAS REGISTRY NO=1016-05-3
##MOLFORM=C 12 H 8 O 2 S
##$NIST SOURCE=MSDC-IR
##STATE=gas
##XUNITS=1/CM
##YUNITS=ABSORBANCE
##XFACTOR=1.
##YFACTOR=0.001
##DELTAX=3.85796
##FIRSTX=501.5
##LASTX=4000.7
##FIRSTY=1.0028
##MAXX=4000.7
##MINX=501.534
##MAXY=0.011954
##MINY=0
##NPOINTS=908
##XYDATA=(X++(Y..Y))
501.534 1.0028 1.0386 0.9045 0.9365 1.004 1.0614 1.118 1.1871 1.2762 1.524
540.114 1.674 1.544 1.464 1.694 2.264 3.384 4.184 4.664 5.194 5.164
578.693 4.724 3.974 2.784 1.544 0.8939 0.7067 0.6567 0.6978 1.0083 1.3625
617.273 1.504 1.464 1.2195 0.9083 0.7035 0.7268 0.7244 0.6089 0.5856 0.6003
655.852 0.6194 0.6429 0.5953 0.5984 0.6452 0.6127 0.5746 0.5628 0.5727 0.6785
694.432 0.8594 1.0125 1.1835 1.554 2.054 2.844 3.524 3.334 3.644 4.144
733.011 4.014 3.794 3.764 4.024 5.184 6.934 6.014 3.984 2.784 1.614
771.591 0.96 0.7006 0.6369 0.6136 0.5376 0.5076 0.5245 0.46716 0.46825 0.4937
810.170 0.5057 0.5096 0.4758 0.495 0.527 0.5884 0.5924 0.557 0.6062 0.6133
848.750 0.5902 0.5733 0.5908 0.5691 0.5543 0.5407 0.5318 0.5775 0.5698 0.6001
887.330 0.6211 0.523 0.43627 0.47209 0.4814 0.4423 0.4831 0.5151 0.45893 0.3921
925.909 0.44944 0.4971 0.5065 0.5633 0.592 0.538 0.4819 0.49 0.5054 0.4955
964.489 0.4764 0.4875 0.5357 0.5558 0.4913 0.47338 0.475 0.4764 0.4917 0.4778
1003.068 0.4804 0.476 0.5402 0.5702 0.5602 0.6251 0.6727 0.6533 0.6648 0.6743
1041.648 0.6961 0.8387 0.9739 1.0182 1.0507 1.0101 0.8969 0.8994 0.9837 1.0432
1080.227 1.0239 0.8869 0.7978 0.8451 0.8317 0.8219 0.8855 0.7984 0.7804 1.0107
1118.807 1.1232 1.1817 1.2081 1.1625 1.1696 1.202 1.2506 1.494 2.034 2.854
1157.387 3.654 4.644 6.244 8.514 10.714 11.614 11.024 8.554 5.224 3.014
1195.966 1.944 1.574 1.534 1.484 1.3395 1.1666 1.0933 1.2576 1.2495 1.0719
1234.546 0.9891 0.8597 0.7447 0.7099 0.7182 0.7718 0.8724 0.9855 1.0204 1.0997
1273.125 1.2847 1.3638 1.2735 1.1373 1.0119 0.8996 0.8415 0.8745 0.8956 1.0035
1311.705 1.2016 1.504 2.024 2.994 4.554 6.854 9.224 11.804 11.954 8.334
1350.284 5.164 2.884 1.3202 0.7826 0.5845 0.5353 0.4901 0.4812 0.4932 0.501
1388.864 0.5016 0.5025 0.5012 0.5261 0.527 0.5441 0.5789 0.5945 0.6028 0.6484
1427.443 0.7435 0.9014 1.1132 1.604 2.344 2.854 2.824 2.304 1.474 0.9119
1466.023 0.7559 0.7542 0.7576 0.7621 0.7577 0.6955 0.5985 0.5206 0.475 0.4391
1504.603 0.37114 0.3395 0.373416 0.4034 0.4012 0.38694 0.38829 0.380183 0.39495 0.40494
1543.182 0.39366 0.38965 0.40804 0.42971 0.42679 0.45567 0.5181 0.6106 0.7336 0.8697
1581.762 0.9958 1.1129 1.2142 1.2277 1.0971 0.9112 0.7371 0.6034 0.537 0.47004
1620.341 0.43323 0.42914 0.42239 0.43432 0.43107 0.40877 0.380324 0.3538 0.3455 0.3628
1658.921 0.37885 0.39233 0.38881 0.381452 0.382919 0.379095 0.36577 0.38674 0.42238 0.40223
1697.500 0.38453 0.39362 0.40716 0.43171 0.4038 0.3885 0.42073 0.39091 0.3505 0.3578
1736.080 0.37013 0.3537 0.344 0.346 0.3294 0.301 0.3143 0.3358 0.3269 0.3236
1774.659 0.3331 0.3491 0.3556 0.379907 0.39699 0.43659 0.5013 0.5084 0.4889 0.4765
1813.239 0.41915 0.37216 0.36708 0.36424 0.381184 0.41405 0.44063 0.43784 0.415 0.40029
1851.819 0.38854 0.36416 0.3522 0.351 0.3576 0.40295 0.44465 0.44999 0.43415 0.42639
1890.398 0.41045 0.37217 0.3619 0.38931 0.42765 0.4938 0.5488 0.543 0.5221 0.46441
1928.978 0.40522 0.376265 0.36849 0.39055 0.43094 0.5073 0.5594 0.542 0.4955 0.40263
1967.557 0.3304 0.3223 0.3226 0.3267 0.3172 0.2952 0.2956 0.3201 0.3242 0.2964
2006.137 0.2846 0.2901 0.3027 0.3051 0.2985 0.3085 0.2952 0.269 0.2767 0.3089
2044.716 0.302 0.2854 0.2997 0.3129 0.3095 0.3141 0.3174 0.293 0.3012 0.318
2083.296 0.2915 0.2924 0.3094 0.3247 0.3244 0.3058 0.3004 0.2913 0.3058 0.3032
2121.875 0.292 0.312 0.2889 0.261 0.2905 0.2864 0.267 0.27 0.2796 0.269
2160.455 0.259 0.2768 0.2976 0.3028 0.311 0.3003 0.265 0.259 0.2848 0.2915
2199.035 0.263 0.254 0.262 0.27 0.273 0.272 0.2783 0.3086 0.3183 0.3127
2237.614 0.306 0.3012 0.2892 0.2904 0.2742 0.268 0.2809 0.2893 0.3026 0.2987
2276.194 0.2853 0.2883 0.3165 0.3008 0.2859 0.2982 0.2805 0.2756 0.3187 0.3326
2314.773 0.3139 0.3211 0.3283 0.2954 0.266 0.2761 0.2964 0.3 0.2926 0.2917
2353.353 0.2927 0.267 0.254 0.254 0.239 0.231 0.237 0.251 0.251 0.266
2391.932 0.2752 0.257 0.231 0.244 0.2757 0.268 0.25 0.247 0.245 0.259
2430.512 0.251 0.244 0.256 0.258 0.261 0.251 0.247 0.26 0.272 0.269
2469.092 0.273 0.27 0.252 0.229 0.222 0.226 0.254 0.2786 0.2741 0.2892
2507.671 0.3069 0.2803 0.268 0.272 0.249 0.235 0.212 0.221 0.256 0.246
2546.251 0.204 0.185 0.206 0.224 0.221 0.206 0.2 0.188 0.181 0.185
2584.830 0.186 0.206 0.242 0.25 0.211 0.208 0.242 0.242 0.209 0.209
2623.410 0.243 0.267 0.265 0.24 0.206 0.19 0.227 0.245 0.233 0.24
2661.989 0.242 0.246 0.2749 0.264 0.237 0.235 0.215 0.205 0.191 0.197
2700.569 0.21 0.221 0.217 0.193 0.203 0.181 0.176 0.173 0.15 0.16
2739.148 0.155 0.165 0.182 0.182 0.176 0.155 0.167 0.202 0.185 0.164
2777.728 0.178 0.16 0.119 0.153 0.177 0.162 0.167 0.164 0.176 0.155
2816.308 0.141 0.149 0.165 0.173 0.146 0.133 0.158 0.192 0.178 0.138
2854.887 0.141 0.169 0.171 0.195 0.222 0.214 0.204 0.199 0.178 0.13
2893.467 0.11 0.177 0.225 0.184 0.181 0.193 0.204 0.22 0.167 0.122
2932.046 0.139 0.167 0.18 0.15 0.171 0.199 0.17 0.146 0.114 0.157
2970.626 0.214 0.159 0.102 0.106 0.137 0.167 0.174 0.182 0.167 0.214
3009.205 0.235 0.228 0.2813 0.3144 0.3535 0.41798 0.44595 0.45678 0.4881 0.521
3047.785 0.5297 0.5563 0.6639 0.7978 0.935 1.1667 1.534 1.904 2.134 2.154
3086.364 1.854 1.3674 0.9389 0.6223 0.42154 0.3041 0.209 0.171 0.141 0.162
3124.944 0.222 0.203 0.213 0.196 0.187 0.162 0.127 0.13 0.137 0.164
3163.524 0.171 0.199 0.197 0.163 0.166 0.156 0.117 0.128 0.152 0.151
3202.103 0.085 0.01 0.024 0.055 0.086 0.111 0.101 0.133 0.171 0.114
3240.683 0.073 0.091 0.148 0.142 0.118 0.143 0.129 0.144 0.148 0.087
3279.262 0.055 0.074 0.06 0.051 0.073 0.105 0.112 0.096 0.119 0.134
3317.842 0.131 0.097 0.087 0.115 0.098 0.093 0.132 0.174 0.186 0.14
3356.421 0.08 0.094 0.095 0.04 0.08 0.157 0.152 0.153 0.125 0.089
3395.001 0.116 0.135 0.109 0.079 0.107 0.103 0.071 0.073 0.064 0.102
3433.580 0.159 0.142 0.179 0.196 0.136 0.152 0.147 0.124 0.168 0.151
3472.160 0.142 0.171 0.137 0.132 0.111 0.034 0.049 0.106 0.142 0.156
3510.740 0.129 0.068 0.073 0.106 0.083 0.139 0.195 0.179 0.072 0.026
3549.319 0.111 0.132 0.125 0.098 0.091 0.109 0.176 0.214 0.135 0.085
3587.899 0.082 0.151 0.195 0.165 0.124 0.132 0.159 0.127 0.1 0.093
3626.478 0.102 0.166 0.19 0.15 0.125 0.076 0 0.048 0.159 0.138
3665.058 0.137 0.178 0.151 0.089 0.104 0.126 0.121 0.147 0.15 0.201
3703.637 0.253 0.219 0.177 0.152 0.087 0.054 0.085 0.098 0.094 0.108
3742.217 0.05 0.082 0.137 0.074 0.079 0.098 0.083 0.148 0.205 0.161
3780.797 0.153 0.159 0.117 0.092 0.107 0.12 0.137 0.126 0.116 0.138
3819.376 0.155 0.131 0.077 0.111 0.165 0.201 0.223 0.183 0.179 0.169
3857.956 0.137 0.159 0.142 0.094 0.111 0.141 0.133 0.094 0.09 0.094
3896.535 0.111 0.127 0.108 0.152 0.154 0.095 0.115 0.189 0.196 0.161
3935.115 0.183 0.184 0.086 0.064 0.113 0.113 0.133 0.122 0.115 0.153
3973.694 0.153 0.147 0.175 0.182 0.153 0.083 0.099 0.14
##END=
