##TITLE=2,3-Difluoropropiophenone
##JCAMP-DX=4.24
##DATA TYPE=INFRARED SPECTRUM
##ORIGIN=EPA-IR VAPOR PHASE LIBRARY
##OWNER=SRD/NIST
Collection (C) 2018 copyright by the U.S. Secretary of Commerce
on behalf of the United States of America. All rights reserved.
##CAS REGISTRY NO=101712-19-0
##MOLFORM=C 9 H 8 F 2 O
##$NIST SOURCE=MSDC-IR
##STATE=gas
##XUNITS=1/CM
##YUNITS=ABSORBANCE
##XFACTOR=1.
##YFACTOR=0.001
##DELTAX=1.92898
##FIRSTX=549.8
##LASTX=4000.7
##FIRSTY=5.752
##MAXX=4000.7
##MINX=549.759
##MAXY=0.165272
##MINY=0
##NPOINTS=1790
##XYDATA=(X++(Y..Y))
549.759 5.752 6.842 6.922 5.722 5.212 4.742 6.062 6.322 5.752 6.322
569.049 6.122 4.652 4.162 4.642 5.172 5.262 5.262 5.872 7.232 8.442
588.339 8.202 8.322 9.172 9.612 9.322 8.852 9.582 10.742 9.822 8.672
607.628 9.302 9.762 8.722 7.392 6.792 5.922 5.432 6.322 6.472 6.002
626.918 5.402 4.962 5.432 5.952 6.022 5.722 5.712 5.752 5.902 5.902
646.208 5.612 5.532 4.602 3.492 3.582 3.442 3.512 3.362 2.882 2.952
665.498 2.862 2.892 2.932 3.082 3.212 3.262 3.362 3.582 3.062 2.562
684.787 2.982 3.402 3.392 3.852 5.082 5.862 6.872 7.732 8.682 10.182
704.077 11.282 12.462 14.172 15.562 15.912 17.202 19.342 20.422 19.682 19.202
723.367 19.762 19.552 18.762 18.242 18.082 18.212 17.722 16.772 16.092 15.412
742.657 15.202 14.612 13.472 13.122 12.972 12.032 11.902 12.982 14.322 14.522
761.947 15.132 17.322 19.312 21.492 24.172 26.712 29.072 31.462 33.492 34.972
781.236 35.092 33.562 31.332 29.192 26.992 25.172 23.702 22.072 19.992 17.232
800.526 15.212 14.292 13.492 12.892 12.792 12.792 13.082 13.792 13.802 14.782
819.816 16.002 15.442 15.802 15.582 15.302 15.462 13.962 11.932 10.502 9.332
839.106 8.072 7.562 6.752 5.582 5.202 5.202 5.102 5.482 5.842 6.042
858.395 6.942 7.762 9.272 10.782 11.642 13.242 15.112 17.022 19.322 22.262
877.685 25.052 28.352 32.652 37.022 41.062 44.882 46.802 47.132 47.282 45.392
896.975 41.792 37.202 31.642 26.032 20.612 15.752 12.692 10.652 9.282 8.422
916.265 7.292 6.652 6.282 5.602 4.822 4.552 4.492 4.222 4.262 4.112
935.555 3.912 4.012 4.472 4.632 4.442 4.862 4.922 4.932 5.602 5.732
954.844 6.182 7.182 7.522 7.782 8.182 8.432 8.912 9.192 9.202 9.392
974.134 9.772 10.042 10.482 10.572 10.222 10.092 9.672 9.242 8.862 8.712
993.424 8.652 8.572 8.062 7.312 7.192 6.952 6.692 7.332 7.792 8.562
1012.714 10.022 11.562 12.762 13.892 14.592 14.452 14.432 15.022 15.312 14.822
1032.003 14.702 13.782 12.162 11.822 10.412 8.282 8.572 7.732 7.252 8.042
1051.293 8.152 8.642 9.112 9.422 9.602 10.412 11.212 11.722 11.942 12.152
1070.583 12.912 12.852 11.732 10.892 11.482 11.722 10.632 11.082 11.872 11.592
1089.873 11.592 11.972 11.452 11.412 12.162 13.452 13.152 10.692 8.832 8.162
1109.163 8.312 7.432 7.132 7.542 7.602 6.962 5.112 4.312 5.572 7.372
1128.452 7.282 5.002 3.572 4.042 4.852 4.652 4.302 4.212 3.852 3.142
1147.742 2.962 3.872 3.512 3.872 4.392 4.092 4.112 4.522 5.242 5.352
1167.032 6.002 5.902 4.872 5.212 5.422 6.132 7.392 7.282 7.372 7.022
1186.322 7.792 9.782 11.002 10.542 9.432 10.362 11.322 11.702 14.672 17.132
1205.611 17.602 21.192 26.132 31.642 37.892 44.012 50.442 57.352 63.382 68.842
1224.901 75.532 81.882 87.662 93.682 98.872 100.692 100.902 100.612 98.112 93.672
1244.191 88.582 82.522 74.532 67.632 62.402 58.532 58.972 62.632 69.012 78.412
1263.481 88.652 98.722 106.332 111.302 113.852 114.902 115.422 112.352 103.842 91.872
1282.771 79.382 68.562 60.622 54.532 49.622 46.492 44.322 42.212 40.182 37.652
1302.060 35.282 33.082 30.692 28.752 27.352 26.322 25.572 25.142 24.482 23.982
1321.350 23.962 23.652 23.372 23.252 23.062 23.122 23.342 23.582 23.942 24.732
1340.640 25.542 26.142 26.812 27.632 28.342 28.752 28.862 28.652 28.052 27.152
1359.930 26.012 24.592 22.872 21.112 19.162 17.372 16.162 14.822 14.022 13.672
1379.219 13.252 12.992 12.682 12.172 11.662 11.162 10.562 9.922 9.292 8.602
1398.509 8.142 8.072 7.882 7.902 8.172 8.512 8.812 8.972 9.342 9.452
1417.799 9.492 10.002 10.382 10.602 10.942 11.442 11.912 12.212 12.962 13.932
1437.089 14.662 15.452 16.562 17.872 19.112 20.642 22.752 25.332 28.742 32.732
1456.378 38.252 45.062 53.012 62.562 73.272 86.132 100.672 116.382 132.122 146.502
1475.668 156.872 163.402 165.272 163.242 157.972 149.262 137.032 121.702 104.372 87.292
1494.958 71.182 56.772 45.042 35.722 28.972 24.122 20.182 17.372 15.422 13.662
1514.248 12.372 11.412 10.672 10.002 9.172 8.282 7.582 7.052 6.612 6.212
1533.538 5.902 5.942 5.712 5.192 5.082 5.132 5.202 5.212 5.432 5.762
1552.827 5.692 5.762 5.952 6.232 6.732 7.202 7.872 8.602 9.432 10.792
1572.117 12.312 13.862 15.712 18.232 21.082 23.942 26.572 28.572 30.072 31.002
1591.407 31.072 30.542 28.922 26.712 24.542 22.032 19.762 18.352 17.512 16.912
1610.697 17.282 17.662 17.612 17.772 17.862 17.562 17.122 16.412 14.912 13.372
1629.986 12.182 10.592 9.082 8.102 7.672 7.272 6.892 6.472 6.432 6.552
1649.276 6.752 6.962 7.162 7.242 7.232 7.822 8.362 8.872 9.642 10.462
1668.566 11.242 11.942 12.992 14.012 15.152 16.742 18.452 20.022 22.202 25.272
1687.856 28.902 33.082 37.962 44.032 51.702 60.132 69.082 79.602 88.512 96.252
1707.146 101.622 104.682 105.052 103.022 98.472 90.962 81.032 70.842 61.362 53.172
1726.435 46.432 40.752 35.902 32.042 28.542 25.472 23.092 20.892 18.772 16.722
1745.725 14.672 13.012 11.722 10.542 9.362 8.372 7.572 6.602 5.842 5.622
1765.015 5.422 5.132 4.962 4.782 4.552 4.382 4.112 3.992 4.052 4.142
1784.305 4.032 3.712 3.652 3.822 3.862 3.632 3.592 3.572 3.462 3.442
1803.594 3.152 3.002 3.052 3.172 3.082 2.962 2.952 2.822 2.682 2.552
1822.884 2.542 2.572 2.542 2.362 2.362 2.422 2.392 2.452 2.492 2.422
1842.174 2.292 2.292 2.502 2.762 2.712 2.692 2.882 2.902 2.832 3.042
1861.464 3.152 3.112 2.992 2.852 3.072 3.132 2.992 2.952 2.862 2.812
1880.754 2.652 2.432 2.322 2.132 2.102 2.172 1.962 1.892 2.112 2.022
1900.043 1.942 2.012 2.122 2.262 2.232 2.102 2.212 2.662 2.962 2.862
1919.333 2.752 2.682 2.632 2.762 2.862 2.652 2.562 2.762 2.622 2.452
1938.623 2.352 2.212 2.152 2.132 2.012 1.802 1.762 1.662 1.4768 1.3406
1957.913 1.5667 1.662 1.407 1.2963 1.2855 1.2775 1.2364 1.3276 1.4448 1.592
1977.202 1.722 1.792 1.5917 1.2765 1.2254 1.3553 1.3087 1.1512 1.1987 1.139
1996.492 1.0151 0.9949 1.1611 1.3574 1.35 1.3474 1.3063 1.2025 1.2706 1.3374
2015.782 1.3046 1.3068 1.3704 1.3531 1.3394 1.4154 1.3814 1.3023 1.3566 1.2201
2035.072 1.3097 1.4663 1.4419 1.612 1.842 1.872 1.862 1.902 1.742 1.732
2054.362 1.752 1.712 1.772 1.682 1.4636 1.3555 1.2525 1.2662 1.3576 1.5443
2073.651 1.742 1.632 1.4117 1.367 1.4485 1.2936 1.1524 1.2635 1.2556 1.1677
2092.941 1.2309 1.2805 1.3515 1.4648 1.3982 1.2728 1.3571 1.4276 1.3084 1.1178
2112.231 1.2763 1.4593 1.3574 1.1974 1.2691 1.2586 1.2461 1.4998 1.4896 1.3618
2131.521 1.2468 0.996 1.1983 1.525 1.4645 1.421 1.662 1.792 1.4329 1.3359
2150.810 1.4625 1.642 1.632 1.5357 1.4714 1.4271 1.5284 1.5385 1.4671 1.2655
2170.100 1.2617 1.642 1.732 1.5083 1.4396 1.702 1.702 1.4063 1.3164 1.3117
2189.390 1.622 1.712 1.4278 1.3434 1.4184 1.4099 1.2118 0.9458 0.9027 0.9612
2208.680 1.205 1.612 1.5578 1.4094 1.405 1.4066 1.4517 1.3028 1.161 1.2294
2227.970 1.1696 0.9738 1.1699 1.4175 1.3297 1.3138 1.3017 1.0727 1.0416 1.2606
2247.259 1.503 1.702 1.712 1.5049 1.2316 1.137 1.0532 1.1485 1.3143 1.3372
2266.549 1.4111 1.4604 1.3712 1.3812 1.4222 1.3611 1.602 1.632 1.4714 1.4566
2285.839 1.2128 1.2886 1.4567 1.602 1.622 1.5094 1.742 1.5739 1.4571 1.632
2305.129 1.5558 1.3318 1.4742 1.672 1.4562 1.4155 1.4381 1.732 1.852 1.43
2324.418 1.3842 1.612 1.622 1.47 1.3682 1.3166 0.9634 0.9661 1.304 1.147
2343.708 0.8945 1.0151 1.2815 1.3462 1.3982 1.3376 1.3298 1.4096 1.4727 1.3416
2362.998 1.3399 1.2935 1.29 1.4919 1.2995 1.2731 1.413 1.5629 1.592 1.4259
2382.288 1.4801 1.5843 1.832 1.682 1.4133 1.4664 1.3161 1.1728 1.0099 0.9305
2401.578 1.1521 1.3796 1.405 1.4481 1.2657 1.1684 1.182 1.109 0.9173 1.2545
2420.867 1.872 1.802 1.612 1.622 1.5637 1.3876 1.712 2.062 1.842 1.802
2440.157 1.962 1.852 1.922 2.042 2.072 2.152 2.092 1.902 1.4193 1.2562
2459.447 1.4241 1.4666 1.5876 1.5832 1.3764 1.3358 1.4519 1.5122 1.4973 1.4562
2478.737 1.652 1.652 1.662 1.872 1.652 1.3535 1.37 1.4375 1.2979 1.1575
2498.026 1.1709 1.2081 1.0285 1.0968 1.2544 1.2837 1.4092 1.4344 1.4428 1.3132
2517.316 1.243 1.3597 1.5904 1.762 1.612 1.5381 1.762 1.5869 1.3807 1.5849
2536.606 1.5622 1.5162 1.5703 1.672 1.4944 1.3887 1.632 1.602 1.4717 1.642
2555.896 1.892 1.762 1.612 1.612 1.842 1.902 1.812 1.772 1.702 1.942
2575.186 1.922 1.772 1.732 1.662 1.5234 1.4017 1.543 1.652 1.812 1.5768
2594.475 1.4265 1.672 1.652 1.5883 1.712 1.792 1.732 1.712 1.692 1.3229
2613.765 1.144 1.2053 1.0567 0.9632 0.8911 0.799 0.9053 1.1536 1.3444 1.4024
2633.055 1.244 1.2127 1.0505 0.9181 0.9384 1.1138 1.2191 1.1985 1.3021 1.5144
2652.345 1.4356 1.1581 1.1626 1.1387 1.1631 1.199 0.9887 1.0188 1.296 1.3444
2671.634 1.2976 1.2493 1.0543 1.3935 1.612 1.2441 1.0435 1.0758 1.682 1.872
2690.924 1.5178 1.2855 1.2439 1.0867 0.9798 1.0456 1.0069 1.234 1.842 1.802
2710.214 1.3172 1.1182 1.0528 1.3236 1.4581 1.4249 1.288 1.4123 1.952 1.982
2729.504 1.742 1.592 1.4852 1.752 2.012 1.772 1.4337 1.632 1.942 2.232
2748.794 2.302 2.262 2.202 2.012 2.112 1.822 1.652 1.612 1.5126 1.5666
2768.083 1.5279 1.612 1.672 1.4724 1.5668 1.4471 1.2498 1.5252 1.5196 1.4247
2787.373 1.3722 1.2644 1.1761 1.2458 1.4263 1.5781 1.792 2.102 1.982 1.732
2806.663 1.802 1.882 2.112 2.152 2.072 2.162 2.372 2.572 2.362 2.362
2825.953 2.432 2.522 2.752 2.932 2.832 2.912 3.132 2.862 2.632 2.672
2845.242 3.272 3.782 3.482 3.102 2.832 2.812 3.342 3.902 4.252 4.342
2864.532 4.482 4.752 4.812 5.192 5.482 5.452 5.932 6.612 6.932 7.492
2883.822 8.192 8.702 9.492 10.462 11.052 10.982 10.442 10.462 10.652 10.722
2903.112 10.492 10.222 10.472 10.422 10.282 10.422 10.722 10.912 10.892 11.182
2922.401 11.522 11.782 11.952 12.202 12.372 12.562 12.892 13.492 14.432 15.602
2941.691 17.252 18.672 19.942 21.092 21.792 22.072 21.822 21.242 20.022 18.422
2960.981 16.842 15.742 15.012 14.312 14.592 14.782 14.922 16.182 17.892 19.572
2980.271 21.162 22.672 24.262 25.262 25.352 25.142 24.832 23.762 21.832 19.972
2999.561 18.242 16.242 14.152 12.522 10.892 9.492 8.862 8.282 7.792 7.152
3018.850 6.592 6.122 5.782 5.762 5.662 5.402 5.172 4.962 5.132 5.462
3038.140 5.422 5.192 5.282 5.452 5.822 5.652 5.172 5.302 5.672 5.912
3057.430 5.492 5.442 5.912 5.422 4.952 5.462 5.862 5.742 5.722 6.132
3076.720 6.432 6.852 7.352 7.502 6.982 6.642 6.702 6.382 5.962 5.622
3096.009 5.372 5.502 5.412 5.052 4.572 3.612 3.242 3.262 3.012 2.962
3115.299 3.102 3.172 3.042 2.662 2.112 1.5871 1.862 1.862 1.662 1.722
3134.589 1.852 2.142 1.882 1.682 1.5083 1.662 2.062 1.902 1.5513 1.4205
3153.879 1.1872 1.1962 1.1452 1.3999 2.122 2.082 1.4465 1.1373 1.5076 1.692
3173.169 1.662 1.4576 1.2664 1.4751 1.5437 1.792 1.742 1.5292 1.1409 0.9364
3192.458 1.612 1.4597 1.4848 1.762 1.2586 1.0969 0.726 0.7045 1.1342 0.9253
3211.748 0.75 1.3251 1.4769 1.3551 0.8394 0.153 0.372 0.6928 0.62796 0.7135
3231.038 0.839 0.8736 0.9915 1.4261 1.5415 1.1004 1.0065 1.3305 1.652 1.672
3250.328 1.5231 1.4381 1.1391 1.2364 1.762 1.3482 1.0201 1.0945 0.8481 0.69132
3269.617 0.6288 1.1752 1.4108 0.9634 0.7347 0.7668 1.025 0.89 0.9871 1.325
3288.907 1.3137 1.1618 1.2066 1.046 0.71 1.0158 0.911 0.7313 0.7599 0.63017
3308.197 1.0445 1.2265 1.5752 1.712 1.266 1.2668 0.9949 0.7512 0.7084 0.868
3327.487 1.1904 1.1057 0.8535 0.9146 1.2365 0.9372 0.7226 0.8183 1.1721 1.1814
3346.777 0.8627 1.1527 0.8091 0.66173 0.64406 0.68241 1.0775 0.8492 0.404 0.45
3366.066 0.7837 1.0593 0.9874 0.7966 0.9347 1.2357 1.5305 1.782 2.452 2.362
3385.356 1.5325 1.792 2.182 2.482 3.312 3.252 2.512 2.282 2.382 2.322
3404.646 2.092 1.982 1.882 1.862 2.172 2.042 2.262 2.682 2.702 2.362
3423.936 1.862 2.032 2.382 2.342 2.142 1.822 1.532 1.3513 1.3712 1.1252
3443.225 1.2202 1.4291 1.1131 1.0552 1.3511 1.752 1.762 1.5311 1.107 1.0347
3462.515 1.2074 1.1913 1.2901 1.1888 1.3143 1.506 1.732 1.2906 0.43 0.709
3481.805 1.3643 1.5277 1.4377 1.5742 1.3269 0.5031 0.214 0.5265 1.1329 1.3874
3501.095 1.1615 1.188 1.2833 1.149 0.9651 1.1617 1.1899 0.8764 0.385 0.8683
3520.385 1.2128 0.388 0.383 0.8866 1.0068 0.7173 0.451 0.7995 1.0617 0.7557
3539.674 0.64722 0.5636 0.7658 1.4847 1.3863 0.551 0.408 0.5231 0.8078 0.9594
3558.964 0.5284 0.9803 1.0399 0.8503 1.672 1.982 1.812 1.3959 0.496 0.9062
3578.254 1.742 1.0794 0.5154 0.5008 0.65595 0.8941 0.7762 0.7968 0.9822 0.67173
3597.544 0.61352 1.1021 1.3272 1.2841 0.9806 1.1474 1.4947 0.9492 0.9758 1.4522
3616.833 1.1107 1.065 1.1031 1.2578 1.3721 0.8295 1.0951 1.612 1.5548 1.4315
3636.123 0.65931 0.4962 1.0387 0.828 0 0.111 0.523 0.58669 1.0297 0.61656
3655.413 0.5164 0.7011 0.414 0.371 0.474 0.8894 0.7362 0.63933 1.002 0.68022
3674.703 0.9569 1.2001 0.978 1.5331 1.5385 1.1485 1.2682 0.9536 0.8219 0.5453
3693.993 0.5104 0.9554 0.9672 1.337 1.4041 1.3231 1.2292 1.0082 0.7361 0.326
3713.282 0.48 0.7596 0.8934 0.9514 0.61871 0.5567 0.438 0.088 0.403 0.9546
3732.572 1.1402 0.9453 0.5495 0.62031 0.65426 0.7713 0.416 0.105 0.407 0.086
3751.862 0.096 0.376 0.7427 0.8372 1.1475 1.5649 1.702 1.4564 0.9033 1.0869
3771.152 1.1449 0.5488 0.464 0.766 0.8677 1.1904 1.502 1.3367 0.484 0.423
3790.441 0.8082 0.9455 1.642 1.4176 1.1574 1.1605 1.0085 0.8404 0.7649 1.0922
3809.731 1.1338 0.7196 0.315 0.8155 1.5214 1.2673 0.296 0.361 0.8084 1.2082
3829.021 1.4126 1.2112 1.1363 1.0068 0.7865 1.0426 1.3109 0.7859 0.478 0.417
3848.311 0.5026 0.5256 0.7696 1.752 1.762 0.9798 1.0988 1.2056 0.8942 0.9598
3867.601 1.782 1.692 1.3938 1.048 0.375 1.2965 1.5446 1.2089 1.1355 0.66492
3886.890 0.8842 1.1323 1.2608 1.5638 1.712 1.4274 1.1467 1.2596 1.3283 0.9968
3906.180 0.66909 0.8173 1.483 1.592 1.1104 0.8811 1.1639 1.3955 1.5533 1.842
3925.470 0.9867 0.435 0.62049 1.1875 1.4104 1.1623 1.5416 1.4111 1.1276 1.0496
3944.760 0.9772 1.1322 1.2681 1.3667 1.3285 1.392 1.2138 1.2628 1.662 1.5882
3964.049 1.042 0.9973 0.417 0.029 0.61733 0.63644 0.227 0.291 1.2391 1.682
3983.339 1.662 1.632 1.5823 1.2396 0.75 0.67859 0.32 0.5759 1.1781 1.4448
##END=
