##TITLE=5-Amino-1-methyl-3-phenylpyrazole
##JCAMP-DX=4.24
##DATA TYPE=INFRARED SPECTRUM
##ORIGIN=EPA-IR VAPOR PHASE LIBRARY
##OWNER=SRD/NIST
Collection (C) 2018 copyright by the U.S. Secretary of Commerce
on behalf of the United States of America. All rights reserved.
##CAS REGISTRY NO=10199-50-5
##MOLFORM=C 10 H 11 N 3
##$NIST SOURCE=MSDC-IR
##STATE=gas
##XUNITS=1/CM
##YUNITS=ABSORBANCE
##XFACTOR=1.
##YFACTOR=0.001
##DELTAX=1.92898
##FIRSTX=549.8
##LASTX=4000.7
##FIRSTY=8.713
##MAXX=4000.7
##MINX=549.759
##MAXY=0.064773
##MINY=0
##NPOINTS=1790
##XYDATA=(X++(Y..Y))
549.759 8.713 8.743 7.663 7.673 8.023 7.393 8.633 9.263 8.243 9.223
569.049 9.753 9.033 8.673 8.753 9.433 10.143 9.883 9.993 10.633 10.633
588.339 10.373 10.503 11.143 11.163 11.303 12.323 12.733 12.133 11.613 12.203
607.628 12.703 12.033 12.093 12.593 12.713 13.123 13.323 13.593 12.703 11.863
626.918 12.833 13.373 13.543 14.183 14.323 14.703 15.443 16.073 17.173 18.103
646.208 17.903 17.313 16.593 15.503 13.913 12.823 12.423 11.223 9.463 9.283
665.498 10.133 10.233 10.533 11.453 12.443 13.713 14.903 15.753 16.673 17.733
684.787 19.353 21.343 22.703 23.253 23.433 22.163 20.003 18.973 18.033 16.413
704.077 14.713 13.813 13.103 11.463 10.943 11.043 10.443 10.713 11.563 12.553
723.367 12.853 13.213 14.393 16.003 18.513 21.283 24.103 26.293 28.603 31.283
742.657 34.343 36.483 37.813 38.473 36.613 33.863 31.203 28.353 25.413 22.863
761.947 20.273 17.853 16.063 13.933 11.993 10.463 9.003 8.463 8.153 7.903
781.236 7.873 7.863 7.773 7.423 6.983 6.333 6.223 6.323 5.983 5.773
800.526 5.653 5.503 5.653 6.013 5.293 4.273 4.413 4.393 4.093 4.203
819.816 4.693 3.463 3.153 4.733 3.863 3.203 3.663 3.973 4.123 3.633
839.106 4.383 4.923 3.723 3.033 3.483 3.763 4.003 4.413 4.123 3.883
858.395 3.833 3.903 3.423 3.223 3.493 3.343 3.573 2.853 2.213 2.633
877.685 3.533 3.743 3.333 3.163 3.183 2.643 2.323 3.233 3.493 3.263
896.975 2.893 2.333 3.023 3.623 3.743 3.723 3.293 3.493 3.253 3.403
916.265 3.513 3.153 3.403 3.183 2.473 2.563 2.923 2.793 3.093 3.763
935.555 4.023 4.073 4.253 4.783 5.473 6.483 7.273 7.503 8.023 8.423
954.844 8.153 8.023 7.553 7.093 6.553 5.523 4.893 4.643 4.183 4.043
974.134 4.483 4.543 4.293 4.123 4.153 3.953 3.493 3.123 3.403 3.723
993.424 4.063 4.003 4.243 4.913 4.823 4.463 4.393 5.313 6.333 6.883
1012.714 7.513 7.543 7.723 8.573 8.973 9.413 9.393 8.383 7.133 6.693
1032.003 5.983 5.063 4.543 4.223 4.703 4.933 4.163 3.143 3.373 3.273
1051.293 3.623 4.233 5.303 5.823 5.483 5.813 6.563 7.583 5.993 4.143
1070.583 4.663 5.733 6.113 7.053 7.433 6.693 4.713 4.673 5.563 5.043
1089.873 4.523 3.803 3.963 3.403 3.183 3.403 4.023 5.493 4.423 3.133
1109.163 3.023 3.953 3.773 3.003 2.813 2.063 1.933 1.064 0.9867 1.31
1128.452 0.9833 1.553 2.223 2.083 1.873 1.703 1.2491 0.7616 1.1459 2.753
1147.742 3.483 1.783 0.3628 0.7144 1.623 2.473 3.033 2.713 2.723 2.463
1167.032 1.903 2.133 1.583 2.603 3.433 2.413 1.503 1.763 2.203 3.513
1186.322 4.913 3.553 2.113 1.653 2.323 3.253 2.213 0.617 1.853 3.663
1205.611 3.563 1.853 1.255 1.973 2.073 2.193 1.1028 0.7913 0.9005 1.1538
1224.901 2.703 3.083 2.223 1.3361 1.1797 2.933 3.853 3.593 3.563 2.453
1244.191 1.803 2.023 1.733 2.173 3.093 2.593 2.323 2.863 3.473 3.453
1263.481 3.843 4.713 4.803 5.033 6.043 7.303 7.383 7.323 7.753 8.183
1282.771 8.053 7.893 7.983 7.843 7.653 7.563 7.543 6.913 6.523 6.563
1302.060 6.243 5.653 5.213 4.753 4.643 4.713 4.473 4.443 4.623 4.793
1321.350 4.703 4.633 4.733 4.633 4.573 4.483 4.363 4.583 4.683 4.773
1340.640 5.123 5.393 5.513 5.733 6.303 7.003 7.523 8.343 9.793 11.313
1359.930 13.093 15.123 17.523 19.853 21.923 23.723 24.963 25.753 25.563 24.573
1379.219 23.073 21.363 19.323 17.173 15.163 13.203 11.733 10.453 9.213 8.523
1398.509 8.133 7.763 7.543 7.463 7.413 7.563 7.723 7.683 7.643 7.563
1417.799 7.553 7.803 7.853 7.733 7.893 8.023 8.333 9.053 9.553 10.323
1437.089 11.453 12.183 13.003 13.963 15.113 16.193 17.063 17.773 17.983 17.873
1456.378 17.713 17.073 16.053 14.903 13.873 13.713 13.883 14.233 14.973 15.643
1475.668 16.503 17.433 18.013 18.953 19.813 20.243 21.013 21.713 22.003 22.353
1494.958 23.073 23.483 23.733 23.943 24.113 24.303 24.293 24.443 24.443 24.183
1514.248 23.623 22.473 21.123 20.003 18.813 17.763 17.003 16.333 15.773 15.653
1533.538 15.813 16.433 17.573 19.283 22.013 25.863 30.833 37.393 44.693 51.903
1552.827 58.303 63.053 64.773 63.703 60.693 55.763 48.473 40.053 32.313 26.183
1572.117 22.163 19.393 17.073 15.123 13.763 12.923 12.613 12.123 11.713 11.983
1591.407 12.123 12.323 13.243 13.973 14.663 15.533 16.473 18.123 19.543 21.123
1610.697 22.863 24.253 25.243 25.833 26.103 25.843 25.123 24.033 22.513 20.673
1629.986 18.623 16.533 14.683 13.023 11.613 10.263 8.873 8.133 7.373 6.803
1649.276 6.573 5.863 5.273 5.073 4.933 4.663 4.423 4.403 4.343 4.213
1668.566 3.953 3.923 3.883 3.713 3.733 3.583 3.323 3.303 3.203 3.163
1687.856 2.953 2.573 2.613 2.543 2.333 2.163 2.133 2.203 2.173 2.193
1707.146 2.303 2.233 1.933 1.883 1.993 1.703 1.713 2.023 2.123 2.213
1726.435 2.203 2.173 2.173 2.273 2.403 2.403 2.413 2.493 2.523 2.543
1745.725 2.413 2.353 2.463 2.313 2.113 1.913 1.713 1.843 1.923 1.993
1765.015 2.193 2.193 2.183 1.993 1.693 1.853 1.903 1.793 1.883 2.023
1784.305 1.923 1.923 2.233 2.403 2.463 2.493 2.603 2.663 2.523 2.363
1803.594 2.433 2.303 1.953 2.013 2.203 2.113 2.013 2.103 2.013 2.003
1822.884 2.123 2.073 2.033 1.953 1.853 1.863 1.773 1.643 1.673 1.673
1842.174 1.683 1.813 1.793 1.553 1.593 1.603 1.533 1.743 1.843 1.663
1861.464 1.623 1.643 1.763 2.023 2.093 2.283 2.363 2.283 2.183 2.223
1880.754 2.553 2.563 2.393 2.453 2.253 2.133 2.183 2.073 1.863 1.723
1900.043 1.743 1.633 1.423 1.493 1.423 1.2363 1.3471 1.4086 1.523 1.703
1919.333 1.773 1.853 1.823 1.893 2.193 2.243 2.303 2.543 2.543 2.463
1938.623 2.273 2.193 2.383 2.483 2.383 2.403 2.453 2.153 2.133 2.203
1957.913 2.103 1.903 1.813 1.673 1.733 1.733 1.463 1.423 1.1532 1.0542
1977.202 1.2642 1.2526 1.2107 1.2863 1.2419 1.2518 1.25 1.1835 1.2564 1.2552
1996.492 1.2011 1.2601 1.2405 1.2901 1.345 1.232 1.143 1.1344 1.2226 1.3464
2015.782 1.358 1.3663 1.433 1.3585 1.3444 1.413 1.473 1.493 1.3893 1.1436
2035.072 1.3299 1.643 1.553 1.2592 1.2435 1.4041 1.3467 1.0443 0.7758 1.0156
2054.362 1.2676 1.483 1.603 1.453 1.2113 1.1588 1.335 1.31 1.1516 1.2348
2073.651 1.453 1.2995 1.1732 1.2153 1.0532 1.2343 1.453 1.2826 1.1666 1.553
2092.941 1.763 1.2844 0.9955 0.9508 0.9437 1.1182 1.3434 1.2578 1.1519 1.493
2112.231 1.593 1.3166 1.2533 1.1896 1.2835 1.513 1.397 1.1652 1.1351 1.4058
2131.521 1.543 1.4109 1.235 1.1262 1.3165 1.3493 1.2533 1.247 1.3841 1.583
2150.810 1.3888 1.453 1.533 1.3494 1.513 1.3894 1.2321 1.1842 1.1795 1.453
2170.100 1.553 1.593 1.653 1.623 1.3882 1.1273 1.3416 1.663 1.3956 1.2602
2189.390 1.2828 1.328 1.543 1.683 1.903 1.823 1.693 1.493 1.189 1.3612
2208.680 1.503 1.3505 1.473 1.693 1.803 1.763 1.723 1.633 1.3067 1.1168
2227.970 1.2923 1.433 1.3572 1.573 1.713 1.633 1.463 1.483 1.503 1.433
2247.259 1.3497 1.3885 1.4004 1.3664 1.443 1.583 1.723 1.2983 1.396 1.873
2266.549 1.903 2.013 1.773 1.603 1.993 2.133 1.813 1.613 2.083 2.163
2285.839 1.793 1.603 1.3594 1.26 1.463 1.633 1.563 1.683 1.733 1.793
2305.129 1.973 1.923 1.713 1.663 1.663 1.423 1.513 1.553 1.443 1.533
2324.418 1.3827 1.423 1.563 1.473 1.473 1.603 1.543 1.433 1.1791 0.9649
2343.708 1.2028 1.3245 1.513 1.603 1.753 1.723 1.1972 1.1387 1.2746 1.3656
2362.998 1.3589 1.3949 1.433 1.2393 1.0636 1.3774 1.763 1.623 1.3032 1.2951
2382.288 1.503 1.553 1.503 1.3921 1.743 1.713 1.3077 1.3401 1.389 1.3696
2401.578 1.3388 1.453 1.783 2.033 1.933 1.713 1.423 1.4029 1.593 1.563
2420.867 1.603 1.713 1.593 1.3925 1.3132 1.2123 1.413 1.443 1.3267 1.2532
2440.157 0.8822 1.042 1.483 1.653 1.753 1.603 1.1937 1.0202 1.339 1.433
2459.447 1.3044 1.1953 1.3215 1.0463 0.8646 1.2853 1.683 1.883 1.583 1.503
2478.737 1.533 1.3784 1.0679 1.2418 1.593 1.483 1.3113 1.2117 1.3554 1.653
2498.026 1.753 1.773 1.783 1.593 1.4086 1.463 1.3688 1.3092 1.693 1.813
2517.316 1.382 1.3959 1.633 1.503 1.2137 1.2764 1.3787 1.1828 1.0049 1.2861
2536.606 1.493 1.553 1.753 1.603 1.513 1.533 1.743 2.053 1.793 1.733
2555.896 1.903 1.593 1.493 1.673 1.653 1.553 1.543 1.743 2.063 1.993
2575.186 1.933 1.853 1.453 1.503 1.813 1.793 1.833 1.963 1.823 1.863
2594.475 1.733 1.523 1.673 1.783 1.863 1.863 1.843 1.703 1.493 1.3512
2613.765 1.327 1.3437 1.523 1.453 1.3457 1.653 1.693 1.623 1.943 1.823
2633.055 1.603 1.3903 1.3082 1.473 1.553 1.533 1.533 1.593 1.733 1.913
2652.345 1.613 1.433 1.563 1.543 1.823 2.053 1.553 1.175 1.3939 1.763
2671.634 1.743 1.2458 1.3257 1.493 1.2997 1.2212 1.2852 1.903 1.883 1.183
2690.924 1.0331 1.1616 1.3572 1.723 1.963 2.083 1.913 1.863 2.183 2.273
2710.214 1.943 1.543 1.583 1.803 1.913 2.063 1.883 2.033 2.153 2.343
2729.504 2.613 2.293 2.433 2.363 2.313 2.423 2.063 1.793 1.573 1.1569
2748.794 1.3419 2.083 2.413 1.973 1.643 1.743 1.683 1.963 1.893 1.843
2768.083 2.313 2.053 1.703 2.083 2.223 2.073 2.123 1.923 2.113 2.513
2787.373 2.803 3.183 3.173 2.713 2.673 3.073 2.883 2.543 2.683 3.063
2806.663 3.103 3.263 3.743 4.033 3.443 2.733 2.913 3.053 3.133 2.683
2825.953 2.733 3.303 3.263 3.293 3.073 2.633 2.733 2.973 2.703 2.903
2845.242 3.103 2.663 2.653 3.003 2.813 2.513 2.763 3.193 3.193 3.433
2864.532 4.223 4.063 3.743 4.353 4.743 4.873 5.233 5.133 5.213 5.993
2883.822 6.463 7.063 7.453 7.403 7.953 7.793 7.753 7.983 8.003 8.313
2903.112 8.173 8.143 8.033 7.793 7.753 7.753 7.753 8.233 8.543 8.333
2922.401 8.303 8.383 9.003 9.793 10.253 10.773 11.803 13.013 13.773 15.013
2941.691 16.153 16.243 17.303 18.133 17.563 17.263 17.063 16.313 14.873 13.753
2960.981 13.173 12.053 10.803 10.003 8.663 7.953 7.703 7.113 6.373 5.343
2980.271 5.033 4.933 4.473 4.283 4.753 4.263 3.743 4.003 3.963 3.753
2999.561 3.873 4.293 3.993 3.343 3.933 4.913 4.793 4.593 5.083 5.273
3018.850 5.963 7.063 7.303 7.283 7.393 7.913 8.513 9.023 9.803 10.463
3038.140 10.593 10.773 11.293 11.743 11.823 11.773 12.753 13.643 13.923 14.953
3057.430 16.673 18.473 19.793 20.903 22.043 22.873 22.483 21.783 19.843 17.663
3076.720 15.823 13.653 12.543 11.323 10.033 9.153 8.213 7.603 7.093 6.573
3096.009 6.173 5.303 5.613 5.873 5.463 5.083 4.513 4.523 4.503 4.183
3115.299 3.643 3.313 3.333 3.143 2.973 2.783 3.013 3.063 3.103 3.453
3134.589 3.333 3.263 3.253 2.883 2.533 2.593 2.273 2.043 2.063 1.893
3153.879 2.253 2.503 2.083 1.843 1.693 1.633 1.653 1.3686 1.2954 1.613
3173.169 1.2057 1.2115 1.813 1.873 1.613 1.4065 1.543 1.473 1.2659 1.683
3192.458 1.753 1.513 1.423 1.523 1.943 1.703 1.803 1.923 1.2055 1.433
3211.748 1.663 1.3328 0.9102 0.9094 1.3687 1.443 0.9373 0.8079 0.9405 1.1251
3231.038 1.643 1.443 1.453 1.563 1.1251 1.1287 1.633 1.603 1.433 1.833
3250.328 1.853 1.3797 1.2624 1.3222 1.2909 1.3691 1.813 1.913 1.643 1.4094
3269.617 0.9836 0.5144 0.44363 1.3015 1.953 1.613 1.0146 0.9324 1.2869 1.0981
3288.907 0.9642 0.896 0.298 1.2362 1.973 1.823 2.083 1.863 1.473 1.433
3308.197 1.1864 1.0838 1.573 1.423 0.9313 0.9157 1.3474 1.583 1.643 1.733
3327.487 1.813 1.913 1.853 2.403 2.513 1.703 1.533 1.503 1.443 1.443
3346.777 1.014 1.3546 1.683 1.683 1.903 1.276 1.1908 2.113 2.363 2.093
3366.066 2.323 2.493 2.793 3.183 3.483 3.953 4.423 4.653 5.183 5.163
3385.356 4.833 4.653 4.743 4.983 4.013 3.323 3.373 3.403 3.043 2.073
3404.646 1.753 1.893 2.443 2.643 2.233 2.383 2.443 2.303 2.183 2.283
3423.936 2.003 1.753 1.883 1.983 2.363 2.493 2.743 2.663 2.443 2.073
3443.225 2.313 2.583 2.283 2.793 3.163 2.783 2.553 2.753 2.693 2.883
3462.515 2.943 3.063 2.973 2.923 2.963 2.963 3.243 3.613 3.223 2.203
3481.805 2.163 2.203 2.303 2.773 2.703 2.343 2.363 2.013 1.693 1.683
3501.095 1.2125 1.1793 1.583 2.083 2.253 2.443 2.413 1.823 1.3263 1.169
3520.385 1.883 2.133 1.903 1.873 1.953 1.563 1.433 1.3132 0.7992 0.6981
3539.674 1.0883 1.983 1.813 1.573 1.713 1.623 1.2889 0.9457 1.2955 1.713
3558.964 1.743 1.923 1.3013 1.1894 1.733 1.2933 1.4118 1.633 1.098 1.423
3578.254 2.003 1.563 1.2078 1.2965 1.0149 1.1934 1.683 1.309 1.513 1.863
3597.544 1.583 1.0905 1.146 1.0048 0.802 1.3168 1.493 1.3007 0.6002 0.6113
3616.833 1.2586 1.473 1.653 1.533 1.3685 1.0027 0.9367 1.463 1.1552 0.9516
3636.123 1.413 1.0963 0.7882 0.5867 0.43651 0.9975 1.483 1.3198 0.7272 0.6154
3655.413 0.588 0.7416 0.8648 1.1249 0.9127 0.5935 1.2891 1.0518 0.7173 0.8413
3674.703 0.6939 1.298 1.723 2.103 2.343 1.833 1.453 1.873 1.793 1.218
3693.993 1.3715 1.483 1.2464 0.5954 0.678 1.3163 1.473 1.2084 0.8017 1.0941
3713.282 1.983 1.873 1.0934 0.7779 0.9058 1.3706 1.823 1.433 1.228 1.0755
3732.572 1.1954 1.423 1.453 1.843 1.753 1.613 1.483 1.0162 0.8237 0.9119
3751.862 0.8578 0.7953 1.1002 1.1026 0.50369 0.6502 1.272 1.4096 0.8382 0.7737
3771.152 1.453 1.593 1.1965 0.8728 1.2602 1.3961 0.807 0.7791 1.2541 1.2872
3790.441 1.613 2.073 1.743 0.5933 0 0.51131 0.9804 1.3571 1.2763 1.643
3809.731 1.2012 0.9517 1.216 1.1508 1.623 2.023 2.083 1.613 1.2159 1.2907
3829.021 1.2139 1.2335 1.433 1.2088 0.9495 1.1856 1.3182 1.593 1.863 1.653
3848.311 1.943 2.013 1.1889 0.8646 1.553 1.1617 0.305 0.613 0.9507 0.8949
3867.601 0.8231 1.0791 1.2835 1.1637 1.2123 1.463 1.633 1.3641 0.9191 0.6316
3886.890 0.6715 1.0801 1.2997 1.3536 1.2992 1.583 2.493 2.253 1.1389 1.32
3906.180 2.213 2.133 1.453 1.3978 1.1959 0.7636 0.5474 1.2148 1.883 1.3745
3925.470 1.453 1.653 1.873 2.063 1.4061 0.9143 0.8012 0.49705 0.413421 0.7977
3944.760 1.3601 1.0042 0.42208 0.3383 0.8604 1.963 2.193 1.823 1.853 1.4086
3964.049 0.8037 1.2092 1.743 1.633 1.513 1.2866 1.2895 1.653 1.543 1.3373
3983.339 1.2933 1.1747 1.1418 1.523 1.673 1.623 1.913 2.053 1.863 1.933
##END=
