##TITLE=Cyclopentamine
##JCAMP-DX=4.24
##DATA TYPE=INFRARED SPECTRUM
##ORIGIN=NIST Mass Spectrometry Data Center
##OWNER=NIST Standard Reference Data Program
Collection (C) 2018 copyright by the U.S. Secretary of Commerce
on behalf of the United States of America. All rights reserved.
##CAS REGISTRY NO=102-45-4
##MOLFORM=C 9 H 19 N
##$NIST SOURCE=MSDC-IR
##SPECTROMETER/DATA SYSTEM=HP-GC/MS/IRD
##STATE=gas
##XUNITS=1/CM
##YUNITS=ABSORBANCE
##XFACTOR=1.0
##YFACTOR=0.000003700
##DELTAX=4.0
##FIRSTX=550.0
##LASTX=3846.0
##FIRSTY=0.001036
##MAXX=3846
##MINX=550
##MAXY=0.037
##MINY=0
##NPOINTS=825
##XYDATA=(X++(Y..Y))
550.0 280 203 136 142 119 133 138 141 147 177
590.0 205 212 231 220 219 233 244 261 281 304
630.0 320 317 312 346 409 458 496 548 609 670
670.0 725 758 791 810 811 818 815 764 705 672
710.0 636 583 540 493 441 390 330 284 249 211
750.0 175 146 138 128 112 102 77 50 55 44
790.0 33 47 56 63 59 53 57 62 62 77
830.0 78 71 77 70 58 60 57 59 63 57
870.0 59 63 61 62 65 65 66 61 50 47
910.0 53 63 68 60 49 51 56 46 41 36
950.0 32 31 17 6 2 11 11 11 30 36
990.0 48 77 86 97 115 122 134 154 161 156
1030.0 161 162 162 165 173 192 208 235 263 287
1070.0 315 348 376 399 424 443 463 488 513 541
1110.0 579 614 646 683 736 796 840 894 941 961
1150.0 972 971 939 886 831 779 711 635 556 476
1190.0 412 359 304 259 225 193 169 146 137 151
1230.0 151 142 142 143 145 140 130 126 124 123
1270.0 130 128 122 124 132 142 152 162 182 202
1310.0 229 258 292 326 355 395 443 486 522 551
1350.0 575 606 647 705 765 811 820 786 699 567
1390.0 439 342 270 234 231 248 275 325 396 482
1430.0 589 711 836 950 1040 1103 1120 1104 1070 1023
1470.0 994 972 914 820 696 545 410 308 235 191
1510.0 155 123 100 85 75 61 54 52 46 44
1550.0 36 30 31 22 19 27 23 20 13 11
1590.0 21 23 16 11 11 13 6 6 4 0
1630.0 7 13 6 8 13 16 18 20 22 19
1670.0 16 13 14 18 15 9 9 7 4 2
1710.0 4 4 5 4 1 7 10 8 11 9
1750.0 5 5 7 7 10 13 10 8 8 10
1790.0 11 11 13 15 13 15 18 17 15 15
1830.0 10 6 8 14 15 11 14 17 15 8
1870.0 4 11 15 12 10 12 13 13 15 15
1910.0 15 15 12 9 5 3 3 2 6 3
1950.0 6 12 7 3 8 10 7 9 12 11
1990.0 13 10 8 7 4 6 11 14 10 3
2030.0 8 11 10 7 6 4 5 10 11 13
2070.0 12 9 10 10 10 8 7 7 6 11
2110.0 12 10 7 6 11 13 12 15 19 20
2150.0 15 14 14 15 19 20 19 16 12 13
2190.0 17 20 18 16 13 8 4 8 15 16
2230.0 12 15 20 15 11 8 1 1 6 9
2270.0 11 13 13 13 15 15 12 9 12 8
2310.0 9 22 25 20 18 22 27 23 17 19
2350.0 17 16 15 16 18 14 16 18 11 11
2390.0 11 9 9 11 7 5 8 4 1 2
2430.0 4 3 4 7 5 9 14 13 14 14
2470.0 15 14 8 7 12 17 18 20 22 22
2510.0 23 27 28 27 34 40 38 39 43 43
2550.0 42 50 53 49 54 64 72 80 85 88
2590.0 97 100 105 113 120 124 126 134 137 132
2630.0 130 135 137 129 131 134 133 131 131 126
2670.0 121 125 131 136 141 141 146 154 160 163
2710.0 165 179 201 211 218 227 238 257 275 303
2750.0 339 377 429 497 563 655 779 930 1114 1334
2790.0 1566 1756 1867 1874 1795 1656 1507 1396 1341 1360
2830.0 1437 1561 1731 1950 2214 2496 2800 3116 3433 3732
2870.0 4035 4270 4381 4380 4300 4198 4166 4271 4506 4831
2910.0 5196 5546 5834 6051 6207 6345 6556 6908 7450 8165
2950.0 8955 9638 10000 9860 9214 8183 6933 5629 4392 3339
2990.0 2515 1914 1490 1189 979 823 702 608 526 460
3030.0 416 385 349 320 299 280 270 246 217 198
3070.0 192 189 182 174 159 149 145 138 125 112
3110.0 106 105 104 99 93 83 84 84 76 73
3150.0 70 64 59 59 59 59 54 48 52 53
3190.0 52 50 54 47 37 36 33 34 35 27
3230.0 27 31 27 20 18 16 14 12 22 35
3270.0 32 17 13 21 16 7 1 9 19 14
3310.0 11 14 16 16 17 20 17 16 20 18
3350.0 20 24 32 36 29 32 38 41 38 36
3390.0 44 46 34 38 40 39 44 37 33 32
3430.0 23 25 38 39 31 24 29 34 30 34
3470.0 37 34 34 36 32 31 38 36 27 24
3510.0 34 41 33 30 35 29 28 26 22 24
3550.0 25 30 33 37 39 32 32 42 47 47
3590.0 40 33 41 41 35 38 32 36 43 37
3630.0 38 34 36 47 47 46 47 49 43 43
3670.0 51 47 40 43 51 56 51 44 46 53
3710.0 61 54 47 56 56 46 42 46 50 47
3750.0 41 50 45 41 46 44 49 50 46 44
3790.0 52 57 45 45 58 57 56 57 59 51
3830.0 49 58 60 65 71
##END=
