##TITLE=N,N,N',N'-Tetraethylmethanediamine
##JCAMP-DX=4.24
##DATA TYPE=INFRARED SPECTRUM
##ORIGIN=EPA-IR VAPOR PHASE LIBRARY
##OWNER=SRD/NIST
Collection (C) 2018 copyright by the U.S. Secretary of Commerce
on behalf of the United States of America. All rights reserved.
##CAS REGISTRY NO=102-53-4
##MOLFORM=C 9 H 22 N 2
##$NIST SOURCE=MSDC-IR
##STATE=gas
##XUNITS=1/CM
##YUNITS=ABSORBANCE
##XFACTOR=1.
##YFACTOR=0.001
##DELTAX=1.92898
##FIRSTX=549.8
##LASTX=4000.7
##FIRSTY=0.154
##MAXX=4000.7
##MINX=549.759
##MAXY=0.017335
##MINY=0
##NPOINTS=1790
##XYDATA=(X++(Y..Y))
549.759 0.154 0.224 0.3021 0.153 0.117 0.028 0.198 0.43389 0.211 0.107
569.049 0.3554 0.173 0 0.058 0.223 0.244 0.213 0.236 0.212 0.216
588.339 0.149 0.158 0.232 0.25 0.162 0.128 0.156 0.054 0.179 0.389407
607.628 0.40891 0.3202 0.239 0.216 0.164 0.048 0.064 0.134 0.163 0.39626
626.918 0.2898 0.123 0.2993 0.3659 0.3261 0.3274 0.3132 0.3633 0.4192 0.3449
646.208 0.389754 0.26 0.151 0.3684 0.4659 0.5243 0.4922 0.3754 0.3228 0.275
665.498 0.3614 0.5021 0.45715 0.4187 0.45937 0.51 0.47962 0.42057 0.5625 0.61
684.787 0.5263 0.5683 0.6848 0.6569 0.5464 0.41249 0.4925 0.6405 0.5189 0.4892
704.077 0.6119 0.5761 0.4919 0.515 0.6531 0.5539 0.42738 0.47257 0.5214 0.5446
723.367 0.5133 0.6135 0.6508 0.5928 0.5302 0.4882 0.45082 0.5445 0.6824 0.6908
742.657 0.7322 0.767 0.7407 0.8472 0.9736 0.9799 0.9473 0.9268 1.0278 1.1842
761.947 1.2904 1.3103 1.2741 1.2511 1.2068 1.2002 1.3122 1.345 1.2757 1.2601
781.236 1.1201 1.1231 1.265 1.3571 1.3542 1.184 1.1565 1.1545 1.1892 1.1657
800.526 1.0948 1.067 1.0754 1.1061 1.0741 0.9535 0.9865 1.0765 0.9874 0.9109
819.816 0.7255 0.6109 0.5915 0.6246 0.6467 0.47783 0.390498 0.43364 0.40097 0.309
839.106 0.3646 0.4502 0.3408 0.2998 0.3698 0.41438 0.5253 0.4896 0.3083 0.44031
858.395 0.5788 0.5005 0.3235 0.15 0.163 0.2966 0.3714 0.3715 0.3427 0.22
877.685 0.26 0.39132 0.38205 0.384684 0.258 0.227 0.3336 0.3489 0.325 0.3644
896.975 0.40752 0.40235 0.42636 0.46429 0.5726 0.4847 0.364 0.45327 0.42983 0.40406
916.265 0.4858 0.5234 0.5542 0.5135 0.5058 0.5727 0.5565 0.5451 0.6025 0.5568
935.555 0.6222 0.6249 0.5557 0.714 0.6736 0.5708 0.6491 0.6933 0.7267 0.7643
954.844 0.7473 0.8724 1.0219 0.9501 0.8648 0.9121 0.9927 1.0374 0.9931 1.0458
974.134 1.15 1.2592 1.3789 1.2978 1.2608 1.2056 1.1598 1.2082 1.2814 1.31
993.424 1.2678 1.3538 1.495 1.685 1.615 1.475 1.505 1.555 1.665 1.745
1012.714 1.725 1.915 2.035 2.065 2.355 2.685 2.725 2.755 3.005 3.105
1032.003 3.235 3.245 3.285 3.645 3.785 4.025 4.245 4.475 4.965 5.175
1051.293 5.355 5.445 5.595 5.675 5.765 5.755 5.595 5.705 5.515 5.175
1070.583 5.065 4.905 4.625 4.545 4.565 4.255 3.785 3.545 3.585 3.555
1089.873 3.185 2.775 2.895 2.925 2.565 2.465 2.545 2.475 2.295 2.185
1109.163 2.085 1.995 2.175 2.015 1.875 2.085 1.985 1.965 1.945 1.865
1128.452 1.755 1.695 1.785 1.715 1.675 1.905 1.825 1.615 1.575 1.565
1147.742 1.635 1.575 1.505 1.595 1.715 1.665 1.585 1.765 1.985 2.015
1167.032 2.175 2.285 2.175 2.145 2.315 2.585 2.915 2.995 3.115 3.545
1186.322 3.575 3.605 4.015 4.505 4.825 5.235 5.685 6.015 6.305 6.415
1205.611 6.545 6.345 5.905 5.535 5.395 5.025 4.385 4.025 3.745 3.515
1224.901 3.195 2.855 2.505 2.165 1.895 1.875 1.995 1.765 1.515 1.555
1244.191 1.605 1.585 1.3692 1.2108 1.333 1.3185 1.1311 1.1217 1.1225 1.0056
1263.481 0.9391 0.9448 0.9784 1.0257 1.1674 1.2859 1.435 1.585 1.625 1.655
1282.771 1.685 1.905 2.145 2.245 2.365 2.435 2.445 2.515 2.575 2.555
1302.060 2.595 2.555 2.485 2.505 2.495 2.445 2.425 2.385 2.335 2.335
1321.350 2.365 2.445 2.495 2.495 2.535 2.635 2.795 2.935 3.015 3.045
1340.640 3.145 3.345 3.455 3.525 3.605 3.715 3.785 3.835 3.865 3.885
1359.930 3.925 3.985 4.105 4.355 4.605 4.865 5.115 5.325 5.565 5.705
1379.219 5.775 5.785 5.655 5.355 5.015 4.635 4.215 3.805 3.395 3.075
1398.509 2.745 2.505 2.345 2.205 2.095 2.005 1.965 1.865 1.775 1.705
1417.799 1.595 1.535 1.535 1.485 1.475 1.455 1.465 1.525 1.585 1.615
1437.089 1.655 1.735 1.785 1.915 2.075 2.205 2.325 2.445 2.515 2.545
1456.378 2.495 2.525 2.685 2.745 2.705 2.735 2.755 2.705 2.605 2.535
1475.668 2.515 2.455 2.295 2.095 1.935 1.725 1.525 1.3723 1.2677 1.2051
1494.958 1.0964 1.003 0.9854 0.9988 0.9656 0.8852 0.7551 0.705 0.7541 0.7538
1514.248 0.7066 0.7181 0.7354 0.6859 0.6298 0.6371 0.6544 0.6488 0.6628 0.6565
1533.538 0.6223 0.6375 0.6565 0.6317 0.6341 0.6328 0.6524 0.6936 0.6691 0.664
1552.827 0.7215 0.7128 0.6891 0.6712 0.7408 0.8261 0.7947 0.8276 0.8855 0.8626
1572.117 0.8469 0.8273 0.7563 0.7592 0.8066 0.7765 0.7845 0.8157 0.7801 0.761
1591.407 0.7386 0.7396 0.7275 0.6916 0.7297 0.7316 0.6809 0.6569 0.6616 0.7019
1610.697 0.6895 0.674 0.7162 0.7157 0.727 0.7311 0.7406 0.8185 0.8644 0.9508
1629.986 1.0393 1.047 1.0617 1.0333 1.0467 1.0789 1.117 1.1334 1.0567 1.0378
1649.276 1.049 0.9666 0.8861 0.8784 0.8387 0.7567 0.6429 0.6145 0.6322 0.5598
1668.566 0.4981 0.5185 0.5269 0.5136 0.551 0.5457 0.47315 0.44616 0.45081 0.4944
1687.856 0.5431 0.5184 0.5317 0.5496 0.495 0.5035 0.45657 0.42481 0.4981 0.4943
1707.146 0.5098 0.5225 0.5288 0.5368 0.5072 0.4883 0.4739 0.5246 0.5027 0.4939
1726.435 0.5444 0.46993 0.39934 0.387357 0.3549 0.41147 0.41493 0.43612 0.5164 0.7362
1745.725 0.8308 0.5383 0.391021 0.37952 0.40113 0.42302 0.39719 0.40693 0.45164 0.4962
1765.015 0.5397 0.5081 0.47787 0.4921 0.5045 0.5365 0.562 0.5806 0.6059 0.6314
1784.305 0.5765 0.5756 0.6341 0.6255 0.585 0.5494 0.5904 0.6254 0.5423 0.47162
1803.594 0.46215 0.48142 0.4857 0.4864 0.5054 0.47374 0.47118 0.44714 0.42102 0.43024
1822.884 0.41431 0.40128 0.42736 0.41639 0.4113 0.391541 0.3528 0.40034 0.42331 0.40251
1842.174 0.3999 0.40524 0.4083 0.44239 0.44809 0.41591 0.42576 0.391359 0.386082 0.45491
1861.464 0.45793 0.45111 0.45857 0.40602 0.3743 0.4136 0.42401 0.41509 0.39736 0.41386
1880.754 0.45662 0.45148 0.44103 0.42381 0.40406 0.392581 0.41954 0.40523 0.3671 0.3622
1900.043 0.3714 0.38027 0.37964 0.42547 0.44282 0.41715 0.39671 0.39717 0.393792 0.41615
1919.333 0.42451 0.390016 0.388291 0.41765 0.47016 0.4877 0.46556 0.41586 0.40172 0.44386
1938.623 0.45163 0.44061 0.45404 0.44749 0.42429 0.42711 0.44359 0.44064 0.41175 0.39941
1957.913 0.41673 0.44813 0.45954 0.41992 0.40874 0.41785 0.41479 0.47856 0.46928 0.40822
1977.202 0.47261 0.4852 0.44156 0.46323 0.4884 0.4895 0.47754 0.48397 0.47369 0.43984
1996.492 0.42517 0.42495 0.41004 0.42351 0.4406 0.44045 0.46901 0.44649 0.41735 0.4077
2015.782 0.41267 0.41641 0.43028 0.43007 0.41699 0.44244 0.43367 0.41978 0.42544 0.48404
2035.072 0.5045 0.4739 0.42015 0.39967 0.4081 0.42573 0.4876 0.4948 0.47677 0.47444
2054.362 0.48235 0.5004 0.46806 0.399 0.44767 0.5151 0.5279 0.4978 0.44584 0.42009
2073.651 0.40589 0.43581 0.4457 0.43757 0.45679 0.47545 0.47277 0.46498 0.5233 0.5023
2092.941 0.46483 0.5201 0.47903 0.42494 0.42844 0.4741 0.4908 0.42248 0.40379 0.44902
2112.231 0.46284 0.5161 0.5125 0.45939 0.4879 0.4992 0.4861 0.48149 0.47937 0.47496
2131.521 0.4926 0.526 0.5008 0.45557 0.45524 0.46231 0.5103 0.5387 0.5096 0.5131
2150.810 0.5374 0.5569 0.5421 0.5147 0.4899 0.48091 0.44798 0.44919 0.4901 0.46971
2170.100 0.42453 0.45468 0.5046 0.5169 0.5482 0.5625 0.525 0.5131 0.5385 0.5084
2189.390 0.48397 0.48289 0.46788 0.46277 0.5069 0.527 0.542 0.5624 0.47141 0.41114
2208.680 0.43197 0.47122 0.4609 0.46409 0.488 0.45475 0.48492 0.5364 0.5383 0.4964
2227.970 0.4967 0.5314 0.5295 0.5148 0.48489 0.45897 0.5464 0.5608 0.47425 0.4921
2247.259 0.5462 0.5471 0.5129 0.5173 0.5569 0.5553 0.528 0.5344 0.5385 0.5723
2266.549 0.5869 0.5487 0.5173 0.45015 0.47689 0.5322 0.47009 0.4619 0.5007 0.5075
2285.839 0.5488 0.5082 0.488 0.5277 0.5087 0.5028 0.46224 0.4552 0.48267 0.47562
2305.129 0.45771 0.4356 0.42213 0.48172 0.5246 0.5424 0.5226 0.519 0.5031 0.5117
2324.418 0.5621 0.5281 0.46959 0.4276 0.47411 0.558 0.5542 0.5101 0.5327 0.5637
2343.708 0.5852 0.5851 0.5387 0.5164 0.5228 0.48178 0.47623 0.5008 0.5278 0.5673
2362.998 0.5289 0.5295 0.5398 0.4892 0.5325 0.5863 0.5776 0.5736 0.553 0.5023
2382.288 0.4918 0.5604 0.618 0.6212 0.5904 0.568 0.5821 0.6042 0.5689 0.546
2401.578 0.6107 0.5931 0.5598 0.6205 0.6221 0.5815 0.5402 0.4973 0.4963 0.53
2420.867 0.5255 0.5086 0.5666 0.5876 0.588 0.5894 0.5543 0.5016 0.46752 0.47487
2440.157 0.5148 0.5903 0.5683 0.5223 0.5272 0.5376 0.596 0.5785 0.5387 0.5679
2459.447 0.5474 0.5145 0.5163 0.5373 0.5502 0.5471 0.5563 0.5528 0.5369 0.5646
2478.737 0.6519 0.6604 0.5558 0.5398 0.5817 0.6309 0.5894 0.5623 0.6583 0.6694
2498.026 0.567 0.561 0.6012 0.6145 0.6196 0.6044 0.6152 0.5729 0.564 0.6088
2517.316 0.6612 0.6678 0.6393 0.6083 0.5949 0.5955 0.5696 0.5623 0.5538 0.5441
2536.606 0.6075 0.596 0.6071 0.65 0.623 0.6326 0.6272 0.6491 0.6999 0.7147
2555.896 0.7476 0.7404 0.7287 0.7374 0.7265 0.7261 0.7325 0.6843 0.6615 0.7209
2575.186 0.7406 0.7888 0.8313 0.7806 0.7418 0.7641 0.7773 0.7933 0.7752 0.8069
2594.475 0.8152 0.7368 0.8293 0.9367 0.9025 0.8654 0.8912 0.8748 0.8973 0.9634
2613.765 0.9233 0.8928 0.9467 0.9985 0.9943 0.9499 0.9133 0.9465 0.9578 0.9701
2633.055 1.0198 1.0169 0.9982 1.0067 1.0746 1.1222 1.161 1.1891 1.1816 1.2119
2652.345 1.2186 1.1945 1.2139 1.2452 1.3039 1.3641 1.2629 1.215 1.2385 1.2867
2671.634 1.385 1.3753 1.3595 1.385 1.405 1.435 1.515 1.595 1.595 1.625
2690.924 1.675 1.695 1.695 1.675 1.715 1.775 1.865 1.955 1.955 1.955
2710.214 2.025 2.125 2.125 2.145 2.215 2.245 2.285 2.355 2.395 2.475
2729.504 2.635 2.675 2.645 2.715 2.805 2.865 2.925 3.015 3.115 3.145
2748.794 3.195 3.225 3.285 3.345 3.435 3.535 3.515 3.645 3.835 3.975
2768.083 4.085 4.155 4.315 4.515 4.655 5.005 5.255 5.375 5.545 5.735
2787.373 6.015 6.255 6.485 6.845 7.145 7.405 7.805 8.195 8.435 8.485
2806.663 8.665 8.845 8.835 8.825 8.765 8.715 8.745 8.625 8.515 8.395
2825.953 8.295 8.225 7.985 7.845 7.735 7.575 7.455 7.425 7.395 7.175
2845.242 7.015 6.955 6.755 6.615 6.475 6.265 6.175 6.175 6.225 6.295
2864.532 6.345 6.415 6.425 6.525 6.715 6.965 7.185 7.285 7.295 7.375
2883.822 7.495 7.385 7.265 7.235 7.075 6.875 6.855 6.815 6.625 6.545
2903.112 6.595 6.625 6.715 6.895 7.005 7.075 7.235 7.535 7.795 8.105
2922.401 8.525 8.955 9.295 9.635 10.185 10.785 11.205 11.415 11.485 11.605
2941.691 11.525 11.205 10.825 10.435 10.225 9.955 9.785 9.925 10.235 10.795
2960.981 11.625 12.585 13.675 14.765 15.765 16.645 17.255 17.335 17.015 16.375
2980.271 15.375 14.105 12.605 11.215 9.865 8.555 7.355 6.325 5.615 5.085
2999.561 4.575 4.015 3.605 3.385 3.075 2.855 2.725 2.525 2.415 2.175
3018.850 1.915 1.905 1.895 1.795 1.745 1.715 1.675 1.695 1.685 1.525
3038.140 1.475 1.475 1.425 1.3031 1.2394 1.3763 1.2615 1.2148 1.2669 1.2524
3057.430 1.2401 1.1456 1.128 1.175 1.1887 1.2132 1.2638 1.1384 1.0932 1.1055
3076.720 1.0741 1.1076 1.0525 0.9966 0.9812 0.9563 0.906 0.8855 0.898 0.9166
3096.009 1.0199 1.0003 0.8784 0.9223 0.9952 1.0027 0.9389 0.8411 0.8295 1.0005
3115.299 1.0667 0.8991 0.9106 0.9685 0.9773 0.9809 0.9072 0.9429 0.9835 0.9264
3134.589 0.8583 0.8256 0.9167 0.9239 0.7519 0.7825 0.7908 0.7282 0.8081 0.803
3153.879 0.7702 0.7662 0.7165 0.7546 0.8553 0.8205 0.7229 0.6989 0.7504 0.8081
3173.169 0.8208 0.7519 0.7846 0.8199 0.7332 0.6917 0.6954 0.6615 0.6056 0.5909
3192.458 0.6226 0.5718 0.6041 0.6753 0.5783 0.5459 0.5249 0.5026 0.46565 0.4068
3211.748 0.4863 0.5137 0.5001 0.5257 0.46721 0.5674 0.676 0.6139 0.5146 0.45788
3231.038 0.41923 0.37738 0.45465 0.5628 0.5902 0.5481 0.5163 0.4905 0.40791 0.47457
3250.328 0.5391 0.45 0.3575 0.389716 0.5562 0.5498 0.5383 0.66 0.5489 0.5342
3269.617 0.616 0.5462 0.5694 0.5278 0.5055 0.48448 0.46265 0.39612 0.314 0.37731
3288.907 0.384854 0.3081 0.40112 0.45378 0.40383 0.5066 0.5658 0.5436 0.47406 0.5251
3308.197 0.569 0.5466 0.5596 0.5594 0.5345 0.4785 0.43411 0.45697 0.44595 0.389459
3327.487 0.5033 0.6541 0.6875 0.5754 0.41613 0.3814 0.45409 0.4617 0.392364 0.3017
3346.777 0.3019 0.39949 0.37903 0.3535 0.43759 0.41951 0.3411 0.41651 0.41166 0.41235
3366.066 0.5269 0.44705 0.40225 0.45319 0.393554 0.393894 0.41495 0.5073 0.46915 0.40794
3385.356 0.5176 0.4859 0.38279 0.247 0.252 0.2987 0.4852 0.6625 0.45332 0.323
3404.646 0.40629 0.45511 0.41422 0.384236 0.44543 0.47219 0.43116 0.43892 0.40491 0.39784
3423.936 0.39755 0.4021 0.3621 0.203 0.205 0.2876 0.276 0.231 0.238 0.323
3443.225 0.3523 0.268 0.3568 0.41596 0.40074 0.44869 0.35 0.3649 0.38369 0.3717
3462.515 0.42839 0.42508 0.5083 0.5124 0.42072 0.262 0.258 0.44027 0.37637 0.244
3481.805 0.212 0.2941 0.37902 0.237 0.3047 0.394146 0.3527 0.40893 0.468 0.5139
3501.095 0.4226 0.41569 0.46149 0.40531 0.44311 0.47225 0.3088 0.213 0.209 0.281
3520.385 0.38147 0.44488 0.3023 0.169 0.236 0.2947 0.3387 0.3148 0.226 0.23
3539.674 0.3475 0.41891 0.47705 0.3094 0.135 0.175 0.167 0.158 0.122 0.304
3558.964 0.3631 0.3184 0.3614 0.234 0.192 0.2977 0.41442 0.3195 0.3643 0.45322
3578.254 0.3591 0.39165 0.38836 0.3358 0.37537 0.45515 0.387136 0.3327 0.3209 0.244
3597.544 0.3018 0.43627 0.3307 0.203 0.3523 0.44084 0.3052 0.218 0.258 0.3003
3616.833 0.339 0.274 0.2895 0.272 0.248 0.3725 0.3448 0.392866 0.46965 0.42561
3636.123 0.4075 0.3589 0.3254 0.273 0.3445 0.3243 0.162 0.15 0.3366 0.42804
3655.413 0.3147 0.3371 0.3697 0.41592 0.5026 0.43975 0.44615 0.3736 0.27 0.3544
3674.703 0.3558 0.279 0.3386 0.3354 0.3071 0.3304 0.276 0.212 0.27 0.288
3693.993 0.279 0.41954 0.5029 0.497 0.45268 0.4338 0.44857 0.43568 0.39791 0.3544
3713.282 0.3366 0.3271 0.357 0.46658 0.45589 0.388665 0.3182 0.3088 0.3707 0.42895
3732.572 0.387927 0.203 0.168 0.256 0.3087 0.21 0.109 0.202 0.179 0.131
3751.862 0.184 0.3566 0.4864 0.45154 0.5022 0.5009 0.41685 0.5579 0.7168 0.4968
3771.152 0.3359 0.41736 0.392224 0.40089 0.46854 0.354 0.3632 0.5496 0.47128 0.39753
3790.441 0.3647 0.23 0.285 0.45893 0.42427 0.3209 0.275 0.39965 0.37598 0.202
3809.731 0.205 0.264 0.2962 0.3591 0.4633 0.46956 0.41067 0.2909 0.3065 0.391019
3829.021 0.4276 0.43316 0.42564 0.5076 0.46742 0.42479 0.251 0.09 0.218 0.317
3848.311 0.41425 0.41689 0.3525 0.264 0.247 0.38391 0.4601 0.3476 0.179 0.2906
3867.601 0.4507 0.3109 0.235 0.2917 0.4244 0.4656 0.2976 0.221 0.2953 0.295
3886.890 0.3459 0.371 0.255 0.237 0.3437 0.4186 0.45179 0.39867 0.3397 0.3266
3906.180 0.39666 0.4878 0.4998 0.47406 0.40403 0.41609 0.3232 0.244 0.267 0.213
3925.470 0.216 0.256 0.31 0.3503 0.3204 0.40177 0.5432 0.514 0.5321 0.40603
3944.760 0.3313 0.40511 0.3684 0.47364 0.40864 0.271 0.3672 0.5137 0.42342 0.257
3964.049 0.187 0.2996 0.42331 0.42623 0.3213 0.40229 0.5901 0.518 0.40181 0.37577
3983.339 0.40135 0.3082 0.3386 0.3703 0.44711 0.5593 0.5696 0.6283 0.6988 0.6398
##END=
