##TITLE=Tridodecylamine
##JCAMP-DX=4.24
##DATA TYPE=INFRARED SPECTRUM
##ORIGIN=EPA-IR VAPOR PHASE LIBRARY
##OWNER=SRD/NIST
Collection (C) 2018 copyright by the U.S. Secretary of Commerce
on behalf of the United States of America. All rights reserved.
##CAS REGISTRY NO=102-87-4
##MOLFORM=C 36 H 75 N
##$NIST SOURCE=MSDC-IR
##STATE=gas
##XUNITS=1/CM
##YUNITS=ABSORBANCE
##XFACTOR=1.
##YFACTOR=0.001
##DELTAX=1.92898
##FIRSTX=549.8
##LASTX=4000.7
##FIRSTY=0.122
##MAXX=4000.7
##MINX=549.759
##MAXY=0.01674
##MINY=0
##NPOINTS=1790
##XYDATA=(X++(Y..Y))
549.759 0.122 0.239 0.261 0.252 0.185 0.155 0.038 0 0.276 0.238
569.049 0.231 0.331 0.383 0.496 0.462 0.415 0.408 0.442 0.404 0.462
588.339 0.604 0.526 0.468 0.361 0.338 0.317 0.324 0.46 0.536 0.73
607.628 0.776 0.677 0.654 0.708 0.602 0.423 0.429 0.66 0.764 0.649
626.918 0.674 0.633 0.666 0.585 0.595 0.7 0.571 0.569 0.541 0.446
646.208 0.482 0.685 0.745 0.59 0.613 0.784 0.86 0.812 0.799 0.757
665.498 0.562 0.485 0.62 0.67 0.664 0.706 0.739 0.712 0.651 0.705
684.787 0.839 0.893 0.828 0.66 0.69 0.839 0.836 0.847 0.779 0.841
704.077 0.9782 0.875 0.9364 1.0725 1.1038 1.1121 0.9833 0.9198 0.9252 0.9438
723.367 0.9264 0.9888 0.981 0.9673 1.01033 1.0518 0.9678 0.868 0.851 0.822
742.657 0.9268 0.9542 0.942 0.9439 0.841 0.772 0.75 0.778 0.848 0.791
761.947 0.734 0.891 0.9459 0.9371 1.02593 0.885 0.643 0.689 0.746 0.706
781.236 0.777 0.809 0.772 0.811 0.684 0.639 0.71 0.501 0.515 0.766
800.526 0.763 0.718 0.699 0.57 0.666 0.875 0.754 0.631 0.806 0.819
819.816 0.88 0.844 0.682 0.778 0.866 0.814 0.739 0.698 0.83 0.9272
839.106 0.99394 1.02683 0.891 0.77 0.645 0.667 0.713 0.697 0.723 0.678
858.395 0.589 0.615 0.717 0.753 0.789 0.679 0.634 0.651 0.576 0.562
877.685 0.625 0.82 0.811 0.826 0.837 0.676 0.757 0.824 0.779 0.779
896.975 0.764 0.754 0.866 0.9597 0.897 0.813 0.737 0.731 0.809 0.9356
916.265 0.9651 0.99277 1.05466 0.886 0.832 0.9312 0.944 1.081 1.06725 0.9013
935.555 0.9053 0.9034 0.815 0.742 0.74 0.726 0.626 0.667 0.715 0.679
954.844 0.695 0.649 0.7 0.831 0.838 0.749 0.79 0.9025 0.9007 0.734
974.134 0.652 0.824 0.858 0.663 0.55 0.695 0.714 0.636 0.655 0.781
993.424 0.84 0.674 0.743 0.862 0.889 0.849 0.711 0.683 0.683 0.587
1012.714 0.678 1.0118 1.1956 0.882 0.57 0.577 0.544 0.695 0.752 0.585
1032.003 0.417 0.41 0.516 0.667 0.744 0.701 0.811 0.718 0.6 0.853
1051.293 0.819 0.678 0.9539 0.9325 0.782 0.583 0.603 0.877 0.815 0.715
1070.583 0.748 0.804 0.784 0.622 0.575 0.9056 0.744 0.474 0.642 0.485
1089.873 0.313 0.515 0.99002 1.06743 0.835 0.568 0.491 0.435 0.251 0.432
1109.163 0.501 0.361 0.331 0.65 0.792 0.727 0.775 0.671 0.363 0.43
1128.452 0.875 0.831 0.47 0.467 0.567 0.458 0.42 0.533 0.503 0.344
1147.742 0.408 0.638 0.653 0.525 0.627 0.658 0.566 0.395 0.391 0.532
1167.032 0.568 0.556 0.58 0.66 0.49 0.453 0.584 0.403 0.514 0.698
1186.322 0.467 0.518 0.525 0.367 0.458 0.294 0.312 0.703 0.671 0.429
1205.611 0.608 0.576 0.406 0.596 0.576 0.482 0.16 0.107 0.562 0.649
1224.901 0.494 0.704 0.824 0.869 0.9315 0.771 0.549 0.489 0.577 0.513
1244.191 0.591 0.808 0.9162 0.881 0.726 0.865 0.9275 0.645 0.595 0.711
1263.481 0.711 0.847 0.9045 0.9191 0.861 0.69 0.826 0.9527 0.887 0.9043
1282.771 0.963 1.0272 0.9526 0.841 0.9585 1.02849 1.01799 1.06609 1.06851 1.09069
1302.060 1.1346 1.173 1.2086 1.2098 1.1991 1.1435 1.1072 1.1425 1.1723 1.1579
1321.350 1.1417 1.1394 1.1491 1.1443 1.1469 1.1793 1.2089 1.2513 1.3197 1.3385
1340.640 1.348 1.3864 1.4194 1.4851 1.4866 1.4963 1.533 1.4985 1.5141 1.5954
1359.930 1.5892 1.5309 1.5451 1.5765 1.5329 1.4423 1.4297 1.4204 1.3919 1.3829
1379.219 1.3871 1.3901 1.3865 1.3369 1.2737 1.2816 1.2737 1.2245 1.1635 1.1417
1398.509 1.08323 1.053 1.09002 1.09311 1.09609 1.1013 1.119 1.1048 1.06495 1.06169
1417.799 1.0876 1.06337 1.05 1.03382 1.0469 1.1159 1.1144 1.1331 1.1753 1.2412
1437.089 1.3172 1.3479 1.4314 1.5065 1.5667 1.593 1.6015 1.7158 1.8532 1.8951
1456.378 1.9242 2.02 2.08 2.11 2.1 2.03 1.9668 1.8696 1.717 1.5788
1475.668 1.4912 1.4335 1.3639 1.2966 1.2193 1.1127 1.1132 1.1323 1.1333 1.1389
1494.958 1.0507 0.9515 0.9522 0.99264 1.03314 1.04756 1.02936 1.02453 0.9547 0.9121
1514.248 0.9263 0.9492 0.9864 0.9692 0.9771 1.00424 0.9728 0.9706 0.9374 0.918
1533.538 0.9345 0.9167 0.9353 0.9114 0.883 0.897 0.9309 0.9533 0.9323 0.9618
1552.827 1.01148 0.9681 0.9644 0.982 0.9555 1.00898 1.02622 0.99378 0.9555 0.9506
1572.117 0.9487 0.9092 0.9645 0.9659 0.9466 0.9619 0.839 0.838 0.9592 0.9518
1591.407 0.9444 0.93 0.842 0.768 0.837 0.935 0.9318 0.9154 0.855 0.836
1610.697 0.9183 0.9085 0.876 0.872 0.871 0.886 0.899 0.9414 0.9327 0.9373
1629.986 0.9392 0.9352 0.9091 0.87 0.883 0.879 0.9306 0.999002 1.01627 0.9752
1649.276 0.9604 0.98 0.9841 1.01613 1.03593 0.9604 0.887 0.9118 0.9565 0.9882
1668.566 0.9246 0.865 0.9 0.9467 0.9727 0.9459 0.9291 0.9149 0.9009 0.9561
1687.856 0.9598 0.9253 0.858 0.824 0.862 0.9353 0.923 0.894 0.894 0.868
1707.146 0.9315 0.9834 0.9467 0.9688 1.0191 0.9534 0.9671 0.9728 0.9227 0.874
1726.435 0.903 0.9482 0.9345 0.9628 0.9429 0.879 0.888 0.894 0.89 0.9238
1745.725 0.9379 0.9468 0.9686 0.9444 0.9362 0.9545 0.9505 0.9894 0.9804 0.9636
1765.015 0.9296 0.894 0.9295 0.9363 0.895 0.9052 0.9255 0.9438 0.9613 0.9551
1784.305 0.953 0.9373 0.9644 0.9659 0.946 0.9432 0.872 0.845 0.9506 0.9591
1803.594 0.9027 0.9494 0.9383 0.895 0.9054 0.9023 0.9444 0.9542 0.9273 0.9025
1822.884 0.9205 0.9286 0.9273 0.9628 0.9655 0.9423 0.9261 0.9698 0.9553 0.9076
1842.174 0.884 0.899 0.962 0.9756 0.9419 0.9122 0.9658 0.966 0.9403 0.9601
1861.464 0.9279 0.9061 0.9433 0.99256 0.9883 0.9368 0.9307 0.9312 0.879 0.9414
1880.754 0.967 0.9502 0.9635 0.9345 0.919 0.9306 0.9335 0.9485 0.972 0.9708
1900.043 0.9457 0.9082 0.9449 0.99785 0.9749 0.9564 0.9569 0.9121 0.883 0.922
1919.333 1.00882 1.00861 0.9228 0.9033 0.9234 0.9389 0.9706 0.951 0.9091 0.892
1938.623 0.879 0.9179 0.952 0.9434 0.9724 0.9786 0.9608 0.9421 0.9258 0.9346
1957.913 0.9362 0.9353 0.9406 0.925 0.9349 0.9593 0.9613 0.9588 0.932 0.9547
1977.202 0.99103 1.01152 1.03372 1.00916 0.9616 0.9599 0.9486 0.9161 0.9118 0.9424
1996.492 0.964 0.9414 0.9432 0.9495 0.9499 0.9827 0.9725 0.9888 1.04763 1.00664
2015.782 0.9376 0.9928 1.04297 1.00371 0.9886 0.97 0.9763 1.02633 1.03792 1.00463
2035.072 1.0079 0.9831 0.944 0.9609 0.9645 1.02182 1.07965 1.01109 0.9648 0.9409
2054.362 0.9652 1.04584 1.00218 0.9892 1.01547 1.01535 0.9888 0.9515 1.00638 1.05275
2073.651 1.02103 0.9549 0.9249 0.9417 0.9762 1.0256 0.9718 0.898 0.895 0.9523
2092.941 0.9681 0.9077 0.9604 0.9775 0.99663 0.99785 0.9424 0.9538 0.9621 0.9756
2112.231 1.00985 0.9645 0.9443 1.00604 1.01241 1.0077 1.00771 1.01225 1.00503 0.99348
2131.521 0.9803 0.9758 0.9805 0.9734 0.986 1.0333 1.02842 1.01331 1.02914 0.9682
2150.810 0.9682 1.01445 0.9837 0.9517 0.9808 1.07546 1.07073 1.02674 1.02414 0.99731
2170.100 1.01592 1.05276 1.03223 0.9694 0.9491 0.9506 1.01271 1.05455 1.01775 1.04455
2189.390 1.06481 1.01657 1.02626 1.05904 1.01095 1.01094 1.02461 1.02081 1.03519 1.04843
2208.680 1.05393 1.06523 1.03018 1.00429 1.05439 1.06218 1.03788 1.02487 1.01945 0.99827
2227.970 1.0264 1.02284 1.05846 1.09073 1.02225 0.9648 1.01555 1.05421 1.01228 0.9419
2247.259 0.9486 0.9772 0.99557 1.06206 1.1126 1.09242 1.06083 1.06287 1.05758 1.03626
2266.549 1.03884 1.09687 1.06769 1.00535 1.03093 1.08912 1.03678 0.9836 1.01977 1.08061
2285.839 1.05573 1.06438 1.04802 1.0277 1.07297 1.1014 1.1061 1.06843 1.03985 1.0502
2305.129 1.1161 1.1408 1.07096 1.05614 1.0843 1.05671 1.0755 1.08612 1.06887 1.02815
2324.418 0.9839 1.02192 1.04495 0.9709 0.9671 1.00436 0.9845 1.02582 1.05782 1.05156
2343.708 1.06304 1.07841 1.07278 1.09982 1.09013 1.02491 1.02704 1.03725 1.04147 1.05691
2362.998 1.03857 1.04696 1.08845 1.0734 1.01726 0.99599 0.9852 0.989 1.05944 1.08777
2382.288 1.05466 1.01257 1.03851 1.07845 1.07815 1.02888 1.02296 1.1135 1.1145 1.07432
2401.578 1.04801 1.01965 1.02729 1.00694 1.03605 1.05211 1.0801 1.1405 1.08431 1.00383
2420.867 1.03858 1.1107 1.07726 1.01283 1.03484 1.08611 1.09305 1.08805 1.06841 1.1121
2440.157 1.1245 1.08743 1.07749 1.07666 1.09341 1.07729 1.03526 1.00507 1.0249 1.03866
2459.447 1.043 1.02367 1.01737 1.03051 1.07533 1.113 1.09391 1.05611 1.0598 1.08376
2478.737 1.02577 1.00365 1.04727 1.08064 1.1013 1.1017 1.04197 1.02386 1.00861 1.0264
2498.026 1.1134 1.1225 1.1268 1.1504 1.1149 1.0451 1.05106 1.1157 1.09759 1.07772
2517.316 1.1218 1.1862 1.2028 1.1306 1.1231 1.1578 1.1188 1.06731 1.08207 1.08213
2536.606 1.03977 1.0515 1.09372 1.1037 1.05233 1.0635 1.1373 1.1366 1.07362 1.1143
2555.896 1.1634 1.1896 1.2315 1.2561 1.2224 1.1956 1.1618 1.1047 1.1051 1.09408
2575.186 1.1107 1.1096 1.1191 1.1686 1.1883 1.2059 1.1573 1.12 1.1724 1.1767
2594.475 1.2047 1.2055 1.1954 1.1612 1.1252 1.1801 1.2474 1.2398 1.2365 1.2415
2613.765 1.2041 1.1685 1.2442 1.2483 1.1876 1.2283 1.1714 1.1989 1.2445 1.23
2633.055 1.2375 1.2283 1.2883 1.3507 1.3002 1.3006 1.347 1.2792 1.2621 1.287
2652.345 1.3138 1.3602 1.3052 1.2501 1.3106 1.3176 1.3756 1.4638 1.4318 1.4389
2671.634 1.3507 1.313 1.4125 1.48 1.4663 1.4431 1.4752 1.4789 1.4306 1.3647
2690.924 1.4241 1.5213 1.4918 1.3661 1.2806 1.3655 1.4871 1.5275 1.4674 1.472
2710.214 1.4674 1.4126 1.4167 1.4035 1.4582 1.5517 1.5537 1.5293 1.5377 1.5885
2729.504 1.6621 1.6971 1.6469 1.5156 1.47 1.5032 1.5058 1.58 1.5749 1.5372
2748.794 1.6129 1.5897 1.5199 1.5058 1.5434 1.6596 1.7254 1.6342 1.5845 1.7093
2768.083 1.7575 1.6704 1.647 1.7739 1.8563 1.7839 1.8321 1.9323 1.9713 2.03
2787.373 2.09 2.12 2.17 2.26 2.33 2.41 2.52 2.59 2.59 2.56
2806.663 2.52 2.48 2.51 2.46 2.39 2.38 2.27 2.31 2.42 2.41
2825.953 2.34 2.33 2.39 2.39 2.42 2.54 2.6 2.66 2.85 3.04
2845.242 3.26 3.51 3.85 4.33 4.94 5.68 6.43 6.96 7.25 7.25
2864.532 6.99 6.64 6.24 5.83 5.52 5.16 4.9 4.77 4.62 4.51
2883.822 4.44 4.45 4.36 4.44 4.5 4.53 4.7 4.79 4.94 5.25
2903.112 5.68 6.01 6.37 6.78 7.13 7.62 8.31 9.07 9.83 10.86
2922.401 12.09 13.29 14.57 15.82 16.58 16.74 16.44 15.72 14.67 13.64
2941.691 12.56 11.42 10.48 9.51 8.59 7.92 7.36 6.89 6.53 6.21
2960.981 5.98 5.83 5.79 5.65 5.44 5.12 4.73 4.32 3.84 3.41
2980.271 3.16 2.95 2.71 2.63 2.43 2.23 2.2 2.1 1.9406 1.9102
2999.561 1.9575 2.02 1.9099 1.7387 1.6792 1.5793 1.6082 1.7286 1.7697 1.6693
3018.850 1.6432 1.6609 1.6335 1.5994 1.4981 1.5599 1.6017 1.4189 1.466 1.5425
3038.140 1.4639 1.4683 1.4191 1.4242 1.4515 1.4061 1.4482 1.414 1.3011 1.2593
3057.430 1.2609 1.3027 1.2879 1.3359 1.3416 1.2675 1.2977 1.3888 1.3914 1.3032
3076.720 1.2533 1.2365 1.3091 1.3179 1.2543 1.2233 1.1899 1.2375 1.2938 1.3284
3096.009 1.353 1.3591 1.239 1.113 1.1901 1.2166 1.2766 1.304 1.1793 1.149
3115.299 1.2516 1.3563 1.3239 1.2707 1.2898 1.2405 1.1104 1.1837 1.2154 1.2298
3134.589 1.2728 1.1081 1.05429 1.1465 1.1526 1.09835 1.1234 1.2282 1.3801 1.2945
3153.879 1.1101 1.08718 1.1487 1.1767 1.154 1.3067 1.3378 1.262 1.2467 1.2803
3173.169 1.2517 1.1602 1.194 1.1658 1.1094 1.1474 1.1305 1.1257 1.2351 1.2755
3192.458 1.2221 1.1782 1.1553 1.1444 1.2022 1.2516 1.172 1.03736 0.9663 1.03791
3211.748 1.147 1.2355 1.2551 1.1356 1.1947 1.2384 1.1804 1.1298 0.9679 1.05087
3231.038 1.1096 1.07828 1.1897 1.1823 1.1508 1.1232 1.1378 1.181 1.093 1.1132
3250.328 1.1739 1.1051 1.00264 0.9114 1.01916 1.1309 1.2089 1.1919 1.02675 1.05673
3269.617 1.1624 1.1644 1.01338 1.01212 1.153 1.1907 1.1715 1.1377 1.107 1.2075
3288.907 1.2659 1.1378 1.1326 1.2228 1.2155 1.2012 1.2308 1.1106 0.999565 1.09546
3308.197 1.09403 1.06973 1.1379 1.1714 1.2522 1.1802 1.06466 1.08683 1.0442 1.02098
3327.487 0.9815 0.866 0.9329 0.99337 1.07078 1.1909 1.01089 0.9783 1.06012 0.896
3346.777 0.893 1.00552 1.08871 1.1305 0.9686 0.876 0.9133 0.9433 0.9641 1.01776
3366.066 1.04971 0.99696 1.09164 1.1892 1.1481 1.08777 0.99319 0.847 0.853 0.9
3385.356 0.9202 0.929 0.865 0.9876 1.04517 0.9387 0.882 0.861 0.817 0.9044
3404.646 1.05062 0.9589 0.9842 1.1042 1.02345 0.9434 0.9867 1.1392 1.09234 0.9477
3423.936 0.9038 0.9511 0.99551 0.9681 1.1198 1.1999 1.2006 1.2557 1.1309 1.0307
3443.225 1.01055 1.1012 1.2271 1.03228 0.895 0.9264 0.894 0.874 0.99198 1.1072
3462.515 1.0323 0.9458 0.988 1.07103 1.08233 1.02134 0.969 0.9379 0.9385 1.02691
3481.805 1.1422 1.1541 1.1404 1.03233 1.01511 1.07956 0.9787 0.9528 1.02736 1.05954
3501.095 1.08995 1.09338 1.09166 0.9536 0.847 0.9589 0.9788 0.9233 0.846 0.783
3520.385 0.853 0.9143 0.824 0.829 0.9875 1.04521 0.9851 1.0642 1.05547 1.06574
3539.674 1.05961 0.9109 0.9151 0.85 0.924 1.05434 1.1224 1.1657 0.9966 0.99758
3558.964 0.9847 0.807 0.863 1.03006 1.08696 1.09903 1.08548 1.1541 1.1039 0.9689
3578.254 0.9414 0.9243 0.9524 0.9312 1.01748 1.1226 1.1239 1.1757 1.1067 1.06987
3597.544 1.106 1.00928 0.9186 0.9074 0.9755 1.06546 1.1408 1.06584 0.894 0.843
3616.833 0.9026 0.9744 1.07154 1.09137 1.02268 0.805 0.724 0.848 0.9851 0.99226
3636.123 0.759 0.82 0.9863 0.9841 0.9577 1.01327 1.02506 1.03038 0.99727 0.9293
3655.413 0.9869 1.004 1.01571 1.08502 0.9575 0.879 0.9634 0.9043 0.99802 1.0194
3674.703 0.9233 0.9251 0.99416 1.06934 0.9735 1.00556 1.0322 0.899 0.9253 1.01746
3693.993 1.09249 1.1093 1.09617 0.9958 0.891 0.894 0.9689 1.04157 0.881 0.799
3713.282 1.02268 0.99198 0.843 0.9841 1.07613 0.859 0.851 0.9413 0.9347 0.9833
3732.572 0.866 0.868 1.03897 0.9757 0.9022 0.9497 0.9043 0.867 0.857 1.0584
3751.862 1.02793 0.9526 1.0494 1.01685 0.9232 0.887 0.9536 0.9017 0.9197 0.9234
3771.152 0.9556 0.9723 0.891 0.9533 0.9041 0.9424 0.945 0.9801 1.07759 0.9443
3790.441 0.99009 1.1873 1.1098 1.01897 1.07031 0.9715 0.824 0.691 0.694 0.899
3809.731 0.99269 1.08128 1.14 0.9528 0.843 0.883 0.9485 1.1744 1.3254 1.09267
3829.021 0.904 0.894 0.9358 0.932 0.894 0.806 0.9792 1.1411 0.9503 0.9751
3848.311 1.00722 0.9603 1.05499 0.868 0.867 1.06947 0.984 0.9122 1.0144 1.07201
3867.601 0.99191 1.1211 1.3121 1.2788 1.07049 0.99374 0.9306 0.774 0.9135 1.1108
3886.890 1.07139 1.01472 1.03243 1.03293 0.9579 0.837 0.856 0.9408 0.82 0.867
3906.180 1.04055 0.89 0.857 0.99564 0.9373 0.791 0.793 0.854 0.9255 0.9624
3925.470 0.888 1.07987 1.07273 0.834 0.855 0.9516 1.04596 1.211 1.1866 1.06856
3944.760 1.1924 1.2409 1.1831 1.2153 1.1864 1.05242 0.9898 0.86 0.9288 0.9745
3964.049 0.801 0.792 0.897 0.9837 0.9124 0.898 1.02483 1.1125 1.03978 0.873
3983.339 0.886 0.9318 0.851 0.837 0.9769 0.9853 0.878 0.86 0.871 0.94
##END=
