##TITLE=Anisyl phenylacetate
##JCAMP-DX=4.24
##DATA TYPE=INFRARED SPECTRUM
##ORIGIN=NIST Mass Spectrometry Data Center
##OWNER=NIST Standard Reference Data Program
Collection (C) 2018 copyright by the U.S. Secretary of Commerce
on behalf of the United States of America. All rights reserved.
##CAS REGISTRY NO=102-17-0
##MOLFORM=C 16 H 16 O 3
##$NIST SOURCE=MSDC-IR
##SPECTROMETER/DATA SYSTEM=HP-GC/MS/IRD
##STATE=gas
##XUNITS=1/CM
##YUNITS=ABSORBANCE
##XFACTOR=1.0
##YFACTOR=0.000002500
##DELTAX=4.0
##FIRSTX=550.0
##LASTX=3846.0
##FIRSTY=0.001013
##MAXX=3846
##MINX=550
##MAXY=0.025
##MINY=0
##NPOINTS=825
##XYDATA=(X++(Y..Y))
550.0 405 463 345 444 480 457 380 317 242 164
590.0 103 35 6 25 10 15 13 7 15 19
630.0 46 58 66 70 47 35 44 59 85 111
670.0 158 230 329 456 631 888 1130 1271 1328 1365
710.0 1420 1421 1344 1169 953 777 652 580 540 491
750.0 415 334 258 207 167 124 105 118 143 170
790.0 235 342 458 605 777 923 1071 1219 1293 1275
830.0 1184 1069 979 931 864 737 594 439 318 258
870.0 211 172 163 147 130 138 153 163 176 196
910.0 208 214 230 260 302 362 406 416 426 462
950.0 527 600 704 875 1131 1442 1782 2111 2338 2431
990.0 2397 2271 2119 1978 1802 1569 1381 1318 1354 1480
1030.0 1648 1783 1838 1781 1586 1301 1025 819 688 622
1070.0 592 570 560 559 583 665 802 974 1183 1452
1110.0 1794 2241 2863 3702 4761 5923 6913 7354 7069 6267
1150.0 5328 4518 3927 3577 3553 3788 3809 3330 2668 2228
1190.0 2025 1975 2070 2283 2610 3036 3562 4230 5100 6145
1230.0 7287 8388 9332 9953 10000 9286 8064 6781 5651 4723
1270.0 3969 3399 3008 2782 2683 2648 2617 2512 2293 2005
1310.0 1758 1621 1558 1514 1455 1383 1287 1174 1059 943
1350.0 838 770 749 766 795 806 764 652 508 395
1390.0 325 285 265 257 261 284 327 386 466 548
1430.0 632 718 816 931 1030 1101 1149 1177 1187 1163
1470.0 1102 981 843 785 866 1101 1457 1873 2411 3323
1510.0 4599 5353 4729 3118 1714 981 645 478 380 313
1550.0 272 260 260 271 297 337 403 505 638 769
1590.0 895 1056 1289 1583 1845 1999 1957 1680 1270 879
1630.0 607 439 334 272 237 221 206 190 185 185
1670.0 187 189 192 208 224 253 293 339 401 463
1710.0 551 661 795 953 1168 1466 1904 2566 3546 4841
1750.0 6127 6790 6421 5220 3836 2740 1980 1485 1152 916
1790.0 758 647 539 439 359 299 250 216 191 172
1830.0 161 153 144 130 126 133 142 142 142 147
1870.0 152 158 159 157 142 128 115 104 96 91
1910.0 87 80 82 90 96 102 116 125 134 140
1950.0 144 138 123 106 91 81 79 86 89 84
1990.0 91 96 94 94 98 97 97 96 96 97
2030.0 91 82 80 86 85 85 95 98 103 109
2070.0 101 94 95 89 82 72 54 42 34 27
2110.0 25 26 27 20 12 15 15 13 13 13
2150.0 17 13 6 5 5 9 9 7 6 7
2190.0 8 7 7 13 21 14 7 11 21 28
2230.0 20 14 15 16 17 15 25 35 34 32
2270.0 32 36 37 35 33 31 27 22 19 21
2310.0 22 21 21 20 24 23 19 31 31 30
2350.0 28 24 16 12 14 10 3 1 1 1
2390.0 1 3 10 12 13 9 6 16 24 21
2430.0 16 13 18 20 22 23 22 27 26 21
2470.0 21 23 28 33 33 33 32 33 36 39
2510.0 44 44 41 43 40 36 41 47 58 61
2550.0 55 48 39 32 26 24 23 17 22 29
2590.0 29 25 24 23 20 26 26 21 26 28
2630.0 29 31 27 23 19 18 17 12 21 19
2670.0 7 7 12 19 24 13 13 18 13 13
2710.0 26 29 23 23 21 24 26 28 34 36
2750.0 35 41 44 36 37 48 60 67 70 79
2790.0 87 89 91 102 127 143 162 196 238 287
2830.0 344 437 576 730 794 712 559 439 376 337
2870.0 326 334 353 393 438 492 550 599 650 710
2910.0 766 826 879 915 956 1025 1121 1261 1426 1528
2950.0 1571 1611 1641 1606 1487 1310 1131 990 899 847
2990.0 835 882 973 1127 1282 1308 1175 1010 967 1047
3030.0 1186 1340 1428 1377 1213 1021 902 881 965 1120
3070.0 1261 1278 1146 966 825 723 656 594 516 452
3110.0 395 336 284 229 180 153 133 103 91 88
3150.0 73 71 76 62 43 47 50 44 47 52
3190.0 41 27 32 40 43 46 29 20 25 29
3230.0 34 39 30 24 38 36 19 19 14 14
3270.0 24 23 11 0 13 19 13 25 39 31
3310.0 19 20 20 22 17 10 13 17 17 19
3350.0 33 36 33 39 36 29 32 25 10 11
3390.0 25 22 13 9 6 14 18 21 38 25
3430.0 22 35 23 31 37 32 35 36 54 63
3470.0 59 68 76 86 97 102 91 84 80 77
3510.0 67 45 48 49 25 29 47 48 38 32
3550.0 39 46 44 49 48 48 46 36 52 51
3590.0 40 54 42 29 36 37 40 40 51 44
3630.0 26 42 42 45 37 24 36 32 32 39
3670.0 42 47 44 41 39 34 32 40 35 28
3710.0 36 36 31 24 37 40 21 16 20 21
3750.0 30 31 17 24 28 31 34 26 20 13
3790.0 26 48 43 25 20 28 33 35 35 32
3830.0 31 40 47 45 36
##END=
