##TITLE=1,3-Diphenylguanidine
##JCAMP-DX=4.24
##DATA TYPE=INFRARED SPECTRUM
##ORIGIN=NIST Mass Spectrometry Data Center
##OWNER=NIST Standard Reference Data Program
Collection (C) 2018 copyright by the U.S. Secretary of Commerce
on behalf of the United States of America. All rights reserved.
##CAS REGISTRY NO=102-06-7
##MOLFORM=C 13 H 13 N 3
##$NIST SOURCE=MSDC-IR
##SPECTROMETER/DATA SYSTEM=HP-GC/MS/IRD
##STATE=gas
##XUNITS=1/CM
##YUNITS=ABSORBANCE
##XFACTOR=1.0
##YFACTOR=0.000001500
##DELTAX=4.0
##FIRSTX=550.0
##LASTX=3846.0
##FIRSTY=0.001620
##MAXX=3846
##MINX=550
##MAXY=0.015
##MINY=0
##NPOINTS=825
##XYDATA=(X++(Y..Y))
550.0 1080 554 141 210 165 161 135 138 206 191
590.0 151 177 238 308 358 378 376 373 387 353
630.0 357 373 351 409 479 510 538 542 592 681
670.0 737 773 826 999 1215 1419 1636 1702 1568 1292
710.0 1091 956 891 895 917 1022 1208 1448 1648 1748
750.0 1696 1549 1424 1303 1157 985 802 623 533 513
790.0 477 470 439 430 456 442 441 443 423 389
830.0 357 356 335 324 342 341 331 317 330 365
870.0 375 365 357 349 382 433 459 506 519 476
910.0 443 418 402 423 419 392 356 368 422 456
950.0 495 532 579 603 579 511 481 467 453 451
990.0 434 412 396 422 433 369 325 388 496 520
1030.0 486 432 304 252 268 283 301 318 357 367
1070.0 376 357 329 320 294 268 232 237 276 266
1110.0 202 155 145 160 118 91 112 84 55 18
1150.0 0 4 24 55 92 127 110 47 21 40
1190.0 70 149 266 350 386 435 516 716 1048 1359
1230.0 1583 1694 1673 1550 1350 1117 920 824 759 639
1270.0 550 528 506 482 466 449 435 435 443 459
1310.0 491 539 618 712 784 839 786 650 564 512
1350.0 507 537 571 631 773 945 1142 1410 1726 2017
1390.0 2241 2309 2173 1866 1475 1165 965 822 794 809
1430.0 855 967 1093 1128 987 821 709 712 836 959
1470.0 1099 1305 1632 2077 2554 3041 3384 3365 3026 2496
1510.0 2093 1927 1791 1698 1607 1434 1216 999 880 869
1550.0 879 906 980 1196 1506 1999 2801 4054 5530 6560
1590.0 6588 5732 4541 3446 2605 2038 1694 1514 1414 1369
1630.0 1410 1452 1569 1775 2043 2467 3201 4275 5746 7532
1670.0 9190 10000 9470 7895 5959 4374 3104 2196 1639 1297
1710.0 1069 866 738 686 612 514 451 452 419 353
1750.0 311 322 314 287 277 274 292 295 274 277
1790.0 259 242 238 207 210 223 201 185 187 180
1830.0 187 186 180 161 165 189 191 185 186 172
1870.0 172 188 189 181 179 176 173 179 189 209
1910.0 215 219 231 247 266 262 261 258 237 230
1950.0 221 193 164 157 156 152 158 166 162 150
1990.0 138 130 135 139 142 155 173 181 210 231
2030.0 232 243 254 256 256 246 247 248 242 243
2070.0 245 252 268 293 310 343 397 466 578 719
2110.0 843 927 968 990 1034 1101 1222 1435 1744 2112
2150.0 2385 2398 2122 1722 1337 1032 829 722 675 642
2190.0 608 577 537 498 464 431 402 368 364 378
2230.0 383 389 409 436 447 456 461 439 423 406
2270.0 393 380 357 347 349 340 322 293 270 251
2310.0 235 238 240 218 215 217 194 205 207 178
2350.0 186 194 190 172 167 178 166 165 178 163
2390.0 140 155 161 153 165 170 175 175 175 185
2430.0 180 192 187 171 154 151 155 162 170 173
2470.0 169 161 169 179 188 200 197 189 202 196
2510.0 179 162 161 179 189 189 188 196 190 177
2550.0 156 149 163 146 140 156 162 162 168 168
2590.0 164 161 170 168 160 171 178 172 167 187
2630.0 190 166 148 140 167 180 161 135 119 119
2670.0 147 154 154 148 136 155 147 137 162 156
2710.0 138 148 148 154 170 161 160 171 164 156
2750.0 145 128 161 192 174 183 206 200 194 203
2790.0 192 187 213 212 197 198 225 210 175 170
2830.0 183 177 169 182 181 187 187 192 216 225
2870.0 236 229 215 235 223 204 222 248 263 269
2910.0 258 236 218 220 245 225 184 185 188 216
2950.0 227 199 212 222 205 216 228 243 259 258
2990.0 251 286 313 344 385 424 476 545 672 803
3030.0 884 890 852 830 831 842 901 1019 1159 1280
3070.0 1344 1319 1209 1071 928 783 703 680 604 512
3110.0 435 338 293 309 302 264 237 226 202 199
3150.0 214 235 265 269 252 230 219 224 225 249
3190.0 260 221 212 252 259 247 225 221 234 231
3230.0 241 241 242 237 247 263 249 229 235 255
3270.0 250 238 207 200 240 240 218 218 227 228
3310.0 215 212 262 279 271 272 243 223 234 264
3350.0 256 242 253 274 274 249 264 301 329 348
3390.0 386 461 534 656 763 766 792 774 683 636
3430.0 566 495 489 474 437 418 402 384 378 341
3470.0 309 332 336 341 407 471 496 518 557 645
3510.0 716 723 661 525 406 372 337 299 255 210
3550.0 217 225 213 177 151 162 230 237 192 158
3590.0 137 164 196 214 159 128 192 202 213 195
3630.0 150 184 214 216 147 133 191 181 191 212
3670.0 180 185 205 198 226 232 225 215 184 188
3710.0 210 230 247 201 219 238 181 200 158 93
3750.0 136 160 221 266 224 246 269 225 222 238
3790.0 269 273 235 218 264 259 217 235 249 252
3830.0 268 271 240 213 231
##END=
