##TITLE=3-Dodecanol
##JCAMP-DX=4.24
##DATA TYPE=INFRARED SPECTRUM
##ORIGIN=NIST Mass Spectrometry Data Center
##OWNER=NIST Standard Reference Data Program
Collection (C) 2018 copyright by the U.S. Secretary of Commerce
on behalf of the United States of America. All rights reserved.
##CAS REGISTRY NO=10203-30-2
##MOLFORM=C 12 H 26 O
##$NIST SOURCE=MSDC-IR
##SPECTROMETER/DATA SYSTEM=HP-GC/MS/IRD
##STATE=gas
##XUNITS=1/CM
##YUNITS=ABSORBANCE
##XFACTOR=1.0
##YFACTOR=0.000005400
##DELTAX=4.0
##FIRSTX=550.0
##LASTX=3846.0
##FIRSTY=0.000637
##MAXX=3846
##MINX=550
##MAXY=0.054
##MINY=0
##NPOINTS=825
##XYDATA=(X++(Y..Y))
550.0 118 61 17 24 21 17 33 43 39 32
590.0 34 42 40 29 18 16 24 29 21 9
630.0 1 9 10 3 8 15 11 14 27 33
670.0 28 18 23 29 28 32 52 71 67 79
710.0 108 117 119 119 109 99 95 91 80 83
750.0 86 77 76 84 87 96 104 100 95 93
790.0 87 85 74 70 80 66 61 73 73 74
830.0 75 88 98 102 109 108 107 119 131 137
870.0 139 147 160 169 174 179 186 189 194 201
910.0 209 215 227 248 267 296 327 353 377 402
950.0 445 495 549 608 662 695 707 699 686 671
990.0 650 636 627 611 589 566 543 516 494 476
1030.0 465 450 437 423 412 394 387 384 379 374
1070.0 376 378 378 392 408 423 442 456 465 468
1110.0 470 471 469 471 469 454 424 377 338 305
1150.0 272 251 241 232 230 236 238 241 243 245
1190.0 249 261 278 291 305 330 355 368 381 391
1230.0 388 380 370 360 353 347 343 337 330 329
1270.0 328 324 316 311 320 323 320 321 321 322
1310.0 320 314 303 294 292 297 325 374 398 422
1350.0 459 491 525 556 555 566 588 595 602 604
1390.0 561 512 456 385 331 292 277 287 279 277
1430.0 307 377 448 513 608 708 838 937 941 899
1470.0 807 671 502 369 299 247 196 168 147 171
1510.0 169 130 123 116 94 80 76 85 92 73
1550.0 60 68 84 59 36 35 29 26 21 17
1590.0 17 18 15 14 17 20 25 30 27 23
1630.0 22 37 32 25 37 55 61 33 24 30
1670.0 33 37 34 50 51 27 36 58 55 36
1710.0 26 44 50 29 24 44 59 42 31 35
1750.0 43 31 21 19 24 31 21 15 21 20
1790.0 21 21 22 26 14 11 12 9 11 17
1830.0 15 9 6 18 23 9 3 8 7 12
1870.0 14 6 5 5 5 7 9 6 0 1
1910.0 4 8 11 11 6 3 5 7 10 9
1950.0 7 6 3 3 4 3 4 5 5 8
1990.0 10 10 6 2 5 6 8 12 12 9
2030.0 9 12 13 12 10 9 10 12 11 9
2070.0 8 10 10 7 7 8 4 0 5 7
2110.0 5 8 9 4 4 9 7 8 8 9
2150.0 9 5 4 4 5 4 5 6 6 5
2190.0 5 4 4 6 7 5 3 3 6 7
2230.0 3 0 3 4 5 6 4 4 7 7
2270.0 8 8 9 7 5 5 7 8 8 6
2310.0 6 9 10 9 10 9 9 6 2 4
2350.0 8 6 5 8 9 7 10 12 12 12
2390.0 13 13 10 12 12 11 12 11 14 15
2430.0 15 15 14 16 13 13 15 13 12 13
2470.0 15 13 8 10 13 10 10 14 15 15
2510.0 18 21 21 22 23 23 24 25 26 25
2550.0 28 32 34 31 36 41 38 41 48 52
2590.0 52 50 53 57 60 62 65 67 70 69
2630.0 69 72 78 84 86 90 92 96 100 103
2670.0 107 117 122 119 117 116 116 115 115 118
2710.0 118 119 121 121 128 135 142 151 157 160
2750.0 164 169 170 174 179 183 192 206 217 229
2790.0 249 272 295 318 346 383 425 473 533 601
2830.0 688 804 968 1203 1542 2022 2625 3240 3683 3829
2870.0 3711 3467 3244 3099 2977 2866 2824 2919 3177 3594
2910.0 4164 4912 5902 7171 8536 9611 10000 9584 8550 7220
2950.0 5942 4991 4482 4357 4393 4268 3803 3085 2370 1805
2990.0 1400 1107 900 749 633 545 475 421 381 346
3030.0 309 281 259 243 228 213 198 184 176 172
3070.0 166 156 148 139 138 134 126 112 105 102
3110.0 99 97 90 84 83 80 76 75 71 66
3150.0 64 67 65 63 62 60 59 51 47 52
3190.0 52 47 46 43 41 35 26 27 25 21
3230.0 26 29 24 17 12 16 24 21 20 17
3270.0 12 11 15 16 14 13 12 11 13 10
3310.0 9 10 14 17 13 16 15 14 15 16
3350.0 20 20 19 19 20 17 16 18 17 18
3390.0 19 19 23 21 17 17 17 17 15 10
3430.0 12 10 12 13 15 13 15 21 13 9
3470.0 10 10 14 13 10 13 10 13 18 13
3510.0 9 4 0 10 14 5 7 5 11 25
3550.0 13 4 10 19 44 31 0 3 18 39
3590.0 36 27 29 26 39 61 73 83 77 108
3630.0 136 126 146 183 247 296 302 281 232 193
3670.0 165 134 95 62 61 61 41 33 27 26
3710.0 39 40 29 34 40 37 59 48 40 51
3750.0 40 26 11 12 14 11 6 6 9 7
3790.0 3 9 24 29 24 15 14 25 25 15
3830.0 19 34 42 34 16
##END=
