##TITLE=2-Dodecanol
##JCAMP-DX=4.24
##DATA TYPE=INFRARED SPECTRUM
##ORIGIN=NIST Mass Spectrometry Data Center
##OWNER=NIST Standard Reference Data Program
Collection (C) 2018 copyright by the U.S. Secretary of Commerce
on behalf of the United States of America. All rights reserved.
##CAS REGISTRY NO=10203-28-8
##MOLFORM=C 12 H 26 O
##$NIST SOURCE=MSDC-IR
##SPECTROMETER/DATA SYSTEM=HP-GC/MS/IRD
##STATE=gas
##XUNITS=1/CM
##YUNITS=ABSORBANCE
##XFACTOR=1.0
##YFACTOR=0.000005900
##DELTAX=4.0
##FIRSTX=550.0
##LASTX=3846.0
##FIRSTY=0.000148
##MAXX=3846
##MINX=550
##MAXY=0.059
##MINY=0
##NPOINTS=825
##XYDATA=(X++(Y..Y))
550.0 25 16 3 0 10 9 1 9 19 23
590.0 31 28 32 39 33 26 27 26 23 28
630.0 34 36 29 29 34 29 27 29 30 35
670.0 42 48 44 48 51 55 72 81 88 113
710.0 148 156 153 158 158 144 139 131 114 110
750.0 110 105 107 106 94 97 101 90 86 95
790.0 99 96 96 95 105 103 103 109 106 118
830.0 137 147 152 154 157 155 152 152 148 148
870.0 150 151 156 163 167 181 191 194 207 225
910.0 251 279 294 316 343 365 368 366 363 343
950.0 320 303 294 297 302 307 311 313 309 307
990.0 310 320 340 359 380 406 432 453 468 475
1030.0 480 478 483 488 485 490 501 511 522 540
1070.0 560 583 597 609 631 653 662 669 660 635
1110.0 611 599 594 587 587 578 561 529 486 435
1150.0 387 352 332 320 305 297 290 276 270 273
1190.0 274 278 287 294 304 319 332 346 372 394
1230.0 414 436 462 481 482 467 441 420 394 369
1270.0 357 343 324 312 310 310 306 307 311 316
1310.0 319 321 322 323 332 351 391 446 482 510
1350.0 551 585 621 661 683 726 789 829 826 787
1390.0 702 616 537 453 393 345 321 323 309 300
1430.0 321 377 437 491 580 677 792 872 860 801
1470.0 707 585 434 320 262 219 179 155 136 156
1510.0 153 117 114 109 87 74 73 85 92 73
1550.0 57 63 82 59 33 32 32 28 22 25
1590.0 23 22 22 21 19 18 24 30 27 24
1630.0 24 38 35 31 42 57 60 39 33 36
1670.0 42 43 40 57 56 34 45 65 56 36
1710.0 34 53 60 37 31 53 67 49 41 47
1750.0 55 42 33 30 33 41 30 23 27 25
1790.0 27 26 24 26 17 16 15 13 17 22
1830.0 19 12 10 22 28 14 6 11 15 18
1870.0 18 10 8 8 10 13 12 7 1 2
1910.0 2 6 13 9 4 4 4 4 7 4
1950.0 0 3 1 0 1 3 4 2 1 4
1990.0 8 7 3 2 1 3 3 9 10 8
2030.0 9 7 5 9 9 6 8 8 6 6
2070.0 4 4 4 1 0 4 3 2 1 2
2110.0 3 2 1 2 1 3 3 2 3 2
2150.0 3 4 6 6 7 6 7 6 3 0
2190.0 2 4 2 3 5 4 3 4 5 5
2230.0 2 0 2 4 5 6 5 2 3 5
2270.0 7 7 3 1 1 3 5 6 4 5
2310.0 9 8 6 8 9 8 9 5 6 8
2350.0 8 6 4 3 3 9 10 7 8 11
2390.0 7 5 4 1 4 8 8 7 6 7
2430.0 8 8 6 5 3 4 3 3 4 5
2470.0 7 8 6 7 8 5 5 7 10 9
2510.0 9 11 12 14 16 16 18 20 22 23
2550.0 20 23 25 27 30 32 34 34 37 40
2590.0 40 40 42 44 49 52 53 56 60 63
2630.0 65 70 75 80 86 90 91 93 99 105
2670.0 106 106 105 106 108 107 103 98 96 99
2710.0 100 99 101 105 108 111 118 125 130 132
2750.0 135 139 141 146 153 157 168 179 193 209
2790.0 226 247 270 297 326 358 397 445 503 569
2830.0 650 759 917 1149 1484 1958 2572 3199 3630 3738
2870.0 3573 3292 3042 2864 2730 2643 2661 2826 3139 3593
2910.0 4186 4948 5958 7267 8684 9745 10000 9376 8154 6722
2950.0 5446 4563 4116 4003 4002 3860 3475 2940 2381 1861
2990.0 1420 1083 852 688 570 483 417 367 326 289
3030.0 261 238 213 194 176 161 153 144 132 125
3070.0 118 111 105 99 95 90 86 79 81 80
3110.0 72 71 69 64 62 59 57 56 54 53
3150.0 53 48 47 47 43 43 44 40 40 40
3190.0 35 38 41 38 34 28 29 26 21 20
3230.0 16 15 15 11 8 5 3 7 14 15
3270.0 11 7 7 4 5 9 7 5 11 9
3310.0 5 9 9 11 8 3 4 2 1 4
3350.0 6 6 5 3 10 11 7 9 11 12
3390.0 14 16 15 12 11 14 16 12 12 13
3430.0 16 18 17 16 13 12 11 13 16 13
3470.0 11 9 9 10 11 9 7 12 15 14
3510.0 14 7 5 14 13 6 9 7 9 21
3550.0 18 7 8 18 39 28 10 8 8 32
3590.0 37 23 20 26 44 60 61 70 77 106
3630.0 134 135 155 189 247 297 302 276 223 180
3670.0 153 127 91 62 59 53 28 17 19 19
3710.0 31 28 16 26 27 18 44 38 34 45
3750.0 36 24 10 5 6 11 1 2 7 4
3790.0 3 3 12 22 17 9 12 21 20 11
3830.0 13 29 39 31 12
##END=
