##TITLE=3,5-Dichlorobenzaldehyde
##JCAMP-DX=4.24
##DATA TYPE=INFRARED SPECTRUM
##ORIGIN=EPA-IR VAPOR PHASE LIBRARY
##OWNER=SRD/NIST
Collection (C) 2018 copyright by the U.S. Secretary of Commerce
on behalf of the United States of America. All rights reserved.
##CAS REGISTRY NO=10203-08-4
##MOLFORM=C 7 H 4 Cl 2 O
##$NIST SOURCE=MSDC-IR
##STATE=gas
##XUNITS=1/CM
##YUNITS=ABSORBANCE
##XFACTOR=1.
##YFACTOR=0.001
##DELTAX=3.85796
##FIRSTX=501.5
##LASTX=4000.7
##FIRSTY=0.1233
##MAXX=4000.7
##MINX=501.534
##MAXY=0.161478
##MINY=0
##NPOINTS=908
##XYDATA=(X++(Y..Y))
501.534 0.1233 0.058 0.071 0.009 0 0.0824 0.1204 0.25295 0.2855 0.2568
540.114 0.20947 0.1431 0.1591 0.21056 0.22804 0.24934 0.3414 0.5758 0.6564 0.677
578.693 0.7892 0.8562 0.9679 0.9892 0.9574 1.0047 0.9717 0.9058 0.8891 0.9387
617.273 0.9192 0.9142 0.9616 1.1554 1.378 1.728 2.288 3.378 5.438 8.928
655.852 12.278 15.518 20.818 18.708 14.188 15.848 21.798 30.318 34.118 33.718
694.432 28.378 17.518 8.998 5.288 3.878 3.238 2.898 2.628 2.378 2.338
733.011 2.428 2.508 2.578 2.648 2.698 2.828 3.068 3.508 4.028 4.668
771.591 5.308 6.018 7.028 8.648 11.418 16.508 25.388 37.238 46.868 50.398
810.170 46.928 35.868 23.028 16.498 15.088 14.828 13.928 12.358 10.638 9.658
848.750 10.408 13.878 17.668 24.258 28.998 21.618 14.758 10.758 6.678 4.688
887.330 3.558 3.288 3.278 3.428 3.548 3.838 4.168 4.398 4.138 3.488
925.909 2.618 1.638 0.9652 0.7226 0.6686 0.7084 0.7763 0.8439 0.7574 0.5923
964.489 0.4968 0.49 0.5273 0.6663 0.9118 1.248 1.628 2.058 2.388 2.048
1003.068 1.458 1.178 0.9175 0.8159 0.8213 0.8004 0.882 1.0672 1.188 1.258
1041.648 1.218 1.1312 1.1127 1.1611 1.208 1.278 1.508 1.708 1.838 1.958
1080.227 2.188 2.858 4.258 6.498 8.858 10.698 11.378 9.908 7.258 4.878
1118.807 3.018 1.958 1.548 1.358 1.328 1.468 1.648 1.788 2.018 2.288
1157.387 2.668 3.218 4.138 5.818 8.698 13.738 22.458 36.428 55.728 76.788
1195.966 91.998 95.088 84.598 62.578 38.738 23.988 18.818 18.588 19.828 20.278
1234.546 19.298 16.428 12.148 8.258 5.848 4.708 4.238 3.988 3.698 3.368
1273.125 3.008 2.828 2.878 3.078 3.218 3.098 2.768 2.168 1.548 1.258
1311.705 1.1513 1.1105 1.1191 1.1352 1.188 1.318 1.548 1.848 2.208 2.608
1350.284 3.168 4.278 6.828 12.038 19.638 26.308 29.978 29.798 25.258 19.138
1388.864 13.978 10.868 9.788 9.778 10.068 10.218 10.238 10.578 12.098 15.938
1427.443 22.048 27.488 29.168 27.078 21.648 14.498 8.878 5.718 3.888 2.808
1466.023 2.148 1.758 1.568 1.498 1.448 1.358 1.238 1.1301 1.0874 1.0998
1504.603 1.1381 1.208 1.348 1.578 1.838 2.088 2.388 2.788 3.438 4.548
1543.182 6.528 9.748 15.148 23.268 34.488 47.748 59.408 65.998 64.068 53.098
1581.762 36.988 22.058 12.748 8.288 6.188 5.128 4.538 4.108 3.688 3.298
1620.341 2.978 2.838 2.788 2.808 2.808 2.478 2.098 1.898 1.758 1.708
1658.921 1.718 1.758 1.798 1.948 2.338 3.098 3.948 4.738 5.458 6.328
1697.500 7.788 10.718 16.428 28.928 55.098 99.878 143.408 161.478 155.958 117.348
1736.080 60.018 24.918 12.588 8.538 6.718 5.658 4.898 4.268 3.748 3.378
1774.659 3.198 3.188 3.288 3.368 3.328 3.178 3.018 2.938 2.968 3.108
1813.239 3.148 2.938 2.708 2.538 2.438 2.408 2.368 2.218 1.928 1.618
1851.819 1.368 1.228 1.208 1.328 1.558 1.808 1.988 2.008 1.888 1.648
1890.398 1.408 1.228 1.0497 0.9117 0.826 0.8056 0.7901 0.7359 0.6626 0.5747
1928.978 0.4921 0.4419 0.4224 0.4062 0.3852 0.3786 0.4098 0.4412 0.45 0.4512
1967.557 0.4557 0.4649 0.4693 0.4806 0.491 0.4661 0.4152 0.4019 0.3953 0.3763
2006.137 0.3645 0.3665 0.3868 0.398 0.4095 0.4055 0.3694 0.3267 0.2957 0.26584
2044.716 0.23746 0.23275 0.23351 0.22013 0.23002 0.23723 0.24083 0.25342 0.25054 0.26836
2083.296 0.3007 0.3445 0.393 0.443 0.5195 0.6024 0.6622 0.7068 0.7121 0.6717
2121.875 0.6071 0.4935 0.3699 0.3027 0.27681 0.25723 0.24821 0.25237 0.24783 0.26358
2160.455 0.26218 0.2504 0.2879 0.3496 0.3923 0.4215 0.4501 0.4499 0.4217 0.4032
2199.035 0.3952 0.373 0.3538 0.3419 0.3137 0.2763 0.24466 0.21278 0.20467 0.1983
2237.614 0.1628 0.1618 0.17191 0.1634 0.1649 0.1596 0.181496 0.187348 0.17083 0.18829
2276.194 0.19646 0.21733 0.23335 0.24845 0.2834 0.2893 0.3019 0.3126 0.3116 0.3157
2314.773 0.3178 0.322 0.3274 0.3427 0.3708 0.3841 0.3916 0.3794 0.3352 0.2923
2353.353 0.2828 0.26944 0.23332 0.2381 0.27054 0.3343 0.4207 0.4961 0.5412 0.5589
2391.932 0.5906 0.5995 0.5326 0.4675 0.3858 0.3051 0.27218 0.26875 0.287 0.2939
2430.512 0.296 0.2894 0.2676 0.24849 0.25162 0.25864 0.2787 0.3101 0.3162 0.3177
2469.092 0.3193 0.2995 0.2839 0.307 0.3199 0.3136 0.3004 0.2844 0.3016 0.3111
2507.671 0.3341 0.3894 0.4361 0.4791 0.5028 0.4857 0.4478 0.3928 0.3536 0.3304
2546.251 0.289 0.301 0.3779 0.4393 0.525 0.6117 0.6645 0.7094 0.7096 0.6843
2584.830 0.629 0.5765 0.5204 0.4806 0.498 0.5217 0.5537 0.5763 0.6184 0.6929
2623.410 0.7934 0.8912 0.928 0.9372 0.9476 0.9505 0.9654 1.0229 1.104 1.188
2661.989 1.288 1.378 1.418 1.378 1.288 1.248 1.268 1.398 1.768 2.528
2700.569 4.128 7.368 12.488 17.258 19.348 18.948 15.608 10.548 6.768 4.818
2739.148 3.908 3.528 3.448 3.528 3.748 4.078 4.568 5.208 5.988 6.958
2777.728 8.078 9.258 10.418 11.338 12.008 12.598 13.408 14.898 17.488 21.138
2816.308 24.798 26.618 25.658 22.178 16.828 11.498 7.688 5.288 3.828 2.998
2854.887 2.618 2.468 2.468 2.518 2.448 2.268 1.978 1.648 1.398 1.228
2893.467 1.1167 1.0748 1.0816 1.0889 1.084 0.9998 0.8989 0.8188 0.7224 0.671
2932.046 0.659 0.6622 0.6878 0.6976 0.7413 0.8172 0.8021 0.7577 0.7597 0.7639
2970.626 0.768 0.7334 0.6872 0.6035 0.5454 0.5429 0.4874 0.4279 0.4097 0.401
3009.205 0.4194 0.4157 0.3806 0.3576 0.3452 0.3339 0.3239 0.3554 0.3812 0.3807
3047.785 0.4424 0.5671 0.6838 0.8447 1.0293 1.258 1.638 2.198 2.738 3.008
3086.364 2.948 2.468 1.748 1.1748 0.8586 0.6547 0.453 0.3345 0.2998 0.2594
3124.944 0.23136 0.2625 0.261 0.21737 0.25408 0.2994 0.3068 0.2905 0.27775 0.26931
3163.524 0.25206 0.25252 0.2666 0.22462 0.1534 0.1649 0.17139 0.1606 0.1561 0.1293
3202.103 0.1417 0.1286 0.0993 0.1343 0.1471 0.1256 0.1156 0.1569 0.16812 0.1584
3240.683 0.1604 0.1254 0.103 0.1027 0.1255 0.1336 0.1435 0.1505 0.1162 0.1341
3279.262 0.1261 0.0901 0.1675 0.18999 0.1382 0.17621 0.17441 0.1404 0.16976 0.17601
3317.842 0.184779 0.1597 0.17519 0.25493 0.26339 0.24895 0.22175 0.24691 0.26825 0.23711
3356.421 0.21013 0.17433 0.19903 0.23345 0.23964 0.23208 0.2801 0.3161 0.3019 0.3585
3395.001 0.4235 0.458 0.4795 0.5531 0.7654 1.1331 1.698 2.378 3.048 3.448
3433.580 3.418 2.898 2.008 1.228 0.8009 0.6573 0.5682 0.4779 0.3927 0.3395
3472.160 0.3406 0.27044 0.22227 0.2478 0.25499 0.297 0.3341 0.3096 0.2886 0.26586
3510.740 0.2849 0.3109 0.2875 0.22256 0.19392 0.23546 0.22495 0.22724 0.2753 0.26722
3549.319 0.23586 0.2346 0.22601 0.24075 0.25021 0.24902 0.294 0.3091 0.27172 0.24963
3587.899 0.27251 0.23649 0.19128 0.22618 0.23266 0.22174 0.21765 0.17131 0.1434 0.1451
3626.478 0.1397 0.19886 0.24066 0.21932 0.1647 0.1315 0.1676 0.1652 0.1563 0.16967
3665.058 0.21379 0.183213 0.1415 0.1628 0.1652 0.1489 0.16928 0.21868 0.20856 0.17551
3703.637 0.20781 0.21714 0.186205 0.19962 0.17246 0.1635 0.19064 0.19378 0.182976 0.183015
3742.217 0.207 0.19177 0.20511 0.3148 0.3168 0.274 0.311 0.27015 0.183204 0.17047
3780.797 0.2253 0.27431 0.23411 0.19484 0.18804 0.20447 0.1665 0.134 0.16984 0.1617
3819.376 0.1518 0.17167 0.142 0.131 0.1644 0.1677 0.21161 0.24089 0.2278 0.183755
3857.956 0.22585 0.27777 0.3006 0.3494 0.3133 0.24937 0.22135 0.22698 0.24142 0.22746
3896.535 0.20922 0.22369 0.23626 0.19221 0.1526 0.1556 0.20385 0.25978 0.22972 0.22967
3935.115 0.2622 0.19847 0.1619 0.21932 0.2857 0.2924 0.3181 0.3144 0.26292 0.27097
3973.694 0.25419 0.22807 0.25713 0.328 0.3407 0.312 0.3027 0.3282
##END=
