##TITLE=2-Phenyl-4-benz[d]oxazinone
##JCAMP-DX=4.24
##DATA TYPE=INFRARED SPECTRUM
##ORIGIN=EPA-IR VAPOR PHASE LIBRARY
##OWNER=SRD/NIST
Collection (C) 2018 copyright by the U.S. Secretary of Commerce
on behalf of the United States of America. All rights reserved.
##CAS REGISTRY NO=1022-46-4
##MOLFORM=C 14 H 9 N O 2
##$NIST SOURCE=MSDC-IR
##STATE=gas
##XUNITS=1/CM
##YUNITS=ABSORBANCE
##XFACTOR=1.
##YFACTOR=0.001
##DELTAX=3.85796
##FIRSTX=551.7
##LASTX=4000.7
##FIRSTY=1.976
##MAXX=4000.7
##MINX=551.688
##MAXY=0.249906
##MINY=0
##NPOINTS=895
##XYDATA=(X++(Y..Y))
551.688 1.976 1.376 1.446 1.706 1.966 2.356 2.536 2.336 1.706 1.326
590.268 1.216 1.0197 0.8988 0.9863 1.306 2.446 4.466 7.906 11.656 12.506
628.847 10.036 5.956 3.596 3.166 3.106 3.226 3.596 4.346 5.346 6.436
667.427 8.076 11.446 17.686 26.666 37.026 46.516 47.786 42.086 33.896 23.766
706.006 15.646 10.066 6.986 5.996 6.226 7.116 8.196 9.346 10.626 11.436
744.586 11.596 12.806 17.316 27.066 40.556 53.816 57.566 47.606 33.606 21.186
783.165 12.076 7.116 4.716 3.536 2.786 2.486 2.536 2.576 2.496 2.566
821.745 2.616 2.766 3.046 3.036 2.846 2.646 2.476 2.836 3.516 3.836
860.324 3.716 3.356 3.146 3.486 4.106 4.276 4.196 4.256 4.286 4.356
898.904 4.406 4.626 5.436 6.656 8.006 9.146 9.636 9.396 8.556 7.346
937.484 6.076 5.126 4.846 5.246 5.956 6.836 7.756 8.936 10.986 14.656
976.063 20.846 31.416 48.106 71.266 95.936 107.546 97.756 71.936 46.466 31.136
1014.643 23.806 26.896 35.386 40.846 39.576 31.716 24.366 18.426 15.676 17.946
1053.222 23.006 28.296 30.566 28.786 23.066 16.156 11.186 7.976 5.976 5.636
1091.802 6.306 7.586 9.296 10.836 11.956 12.106 11.256 9.426 6.956 4.776
1130.381 3.706 3.696 4.016 4.726 6.276 8.626 9.896 9.876 9.046 7.586
1168.961 7.006 8.916 14.866 20.716 21.186 15.766 9.606 8.536 10.836 15.236
1207.540 21.376 27.796 32.496 34.016 32.126 28.196 24.496 23.596 27.046 35.316
1246.120 49.736 69.526 83.916 81.816 62.376 38.016 23.756 18.466 17.156 17.906
1284.699 19.506 21.966 25.786 30.966 36.536 40.476 40.946 37.956 33.026 27.856
1323.279 23.166 18.596 14.586 11.236 8.236 6.066 4.786 4.116 3.836 3.666
1361.859 3.546 3.586 3.746 4.036 4.316 4.466 4.406 4.266 3.996 3.606
1400.438 3.366 3.386 3.626 4.016 4.276 4.366 4.366 4.346 4.456 5.016
1439.018 6.366 8.846 12.136 15.026 17.526 21.786 29.696 42.716 56.706 62.916
1477.597 56.856 42.116 28.626 22.646 20.566 17.606 12.776 8.396 6.156 5.706
1516.177 5.786 5.816 5.626 5.406 5.346 5.756 6.566 7.566 8.646 10.006
1554.756 12.176 16.486 24.196 35.106 47.836 57.366 59.616 54.406 47.386 44.906
1593.336 50.126 62.066 79.856 104.096 129.346 143.296 143.936 144.666 153.206 152.626
1631.915 124.316 77.276 40.346 22.906 14.976 10.906 8.396 6.946 6.066 5.526
1670.495 5.316 5.346 5.436 5.486 5.496 5.506 5.396 5.266 5.196 5.096
1709.075 5.056 5.016 5.066 5.416 5.956 6.496 7.176 8.156 9.476 10.966
1747.654 12.336 13.616 14.836 16.996 22.016 32.026 51.656 86.686 139.806 200.656
1786.234 241.666 249.906 218.726 164.956 116.576 80.216 53.356 34.416 22.726 16.176
1824.813 12.736 10.926 9.776 8.756 7.696 6.676 5.966 5.546 5.336 5.096
1863.393 4.766 4.326 4.046 4.096 4.296 4.546 4.916 5.376 5.786 6.066
1901.972 6.096 6.046 6.046 5.856 5.326 4.586 3.936 3.636 3.706 3.976
1940.552 4.226 4.436 4.556 4.626 4.786 5.086 5.346 5.186 4.606 3.856
1979.131 3.366 3.236 3.166 3.036 2.786 2.466 2.176 1.936 1.796 1.706
2017.711 1.706 1.736 1.706 1.646 1.516 1.356 1.226 1.1686 1.226 1.336
2056.291 1.406 1.456 1.376 1.266 1.1692 1.0396 0.996 0.9808 0.9651 0.9692
2094.870 0.9923 1.0155 1.0736 1.1434 1.1363 1.0478 1.0183 1.0398 1.0346 1.053
2133.450 1.076 1.1097 1.1683 1.236 1.236 1.206 1.186 1.246 1.326 1.346
2172.029 1.346 1.296 1.206 1.076 0.9342 0.842 0.8267 0.857 0.9102 0.9665
2210.609 1.0489 1.112 1.0881 1.0603 1.0516 1.0267 1.0302 1.0752 1.157 1.226
2249.188 1.236 1.216 1.1618 1.097 1.0722 1.0857 1.0738 1.0414 1.0474 1.0038
2287.768 0.9281 0.9116 0.9155 0.9564 1.0609 1.256 1.506 1.646 1.606 1.426
2326.347 1.206 1.0408 0.9035 0.8701 0.8732 0.8805 0.8743 0.7256 0.6132 0.6036
2364.927 0.6411 0.6554 0.6717 0.6742 0.6567 0.6445 0.651 0.707 0.6907 0.6823
2403.507 0.6926 0.6574 0.6654 0.662 0.6253 0.593 0.5903 0.6055 0.5662 0.5716
2442.086 0.5895 0.546 0.5459 0.6151 0.7092 0.8183 0.9274 0.9929 0.9756 0.9385
2480.666 0.9812 1.0113 1.0468 1.196 1.316 1.356 1.366 1.266 1.0989 1.0249
2519.245 1 1.0231 1.1043 1.1579 1.186 1.1416 1.0577 1.021 1.0113 0.9144
2557.825 0.8666 0.8378 0.7837 0.7649 0.7289 0.7124 0.6759 0.6911 0.6584 0.627
2596.404 0.7127 0.7607 0.7385 0.7267 0.7742 0.8483 0.8491 0.853 0.8515 0.8526
2634.984 0.8347 0.7765 0.7243 0.64 0.6084 0.5718 0.5218 0.4864 0.4977 0.5659
2673.563 0.5907 0.5886 0.621 0.6138 0.5998 0.6524 0.6693 0.6654 0.5911 0.4889
2712.143 0.473 0.401 0.3136 0.3507 0.4057 0.4249 0.4435 0.4086 0.3745 0.388
2750.722 0.3903 0.3546 0.3878 0.453 0.4863 0.5884 0.646 0.5956 0.5742 0.5917
2789.302 0.5462 0.4966 0.4668 0.4269 0.4521 0.4888 0.5081 0.5317 0.6074 0.6732
2827.882 0.6886 0.7179 0.7326 0.7756 0.8074 0.8459 0.8885 0.8955 0.8909 0.8659
2866.461 0.8322 0.8006 0.863 0.9637 0.9906 0.9858 0.9542 0.9352 0.9518 0.9538
2905.041 0.9728 0.9672 0.9724 0.9938 0.9727 0.9402 0.8775 0.8499 0.8196 0.7996
2943.620 0.7933 0.6927 0.6889 0.7056 0.5575 0.4841 0.5081 0.5954 0.6625 0.7373
2982.200 0.9052 1.0206 1.0624 1.186 1.386 1.676 2.056 2.386 2.676 2.986
3020.779 3.346 3.816 4.576 5.616 6.746 7.696 8.366 8.646 8.876 9.686
3059.359 11.656 14.826 18.546 22.476 25.756 26.836 24.616 19.866 15.096 11.516
3097.938 8.926 7.006 5.436 4.126 3.196 2.536 2.116 1.886 1.686 1.526
3136.518 1.416 1.376 1.416 1.456 1.456 1.366 1.1672 1.0307 0.9245 0.7875
3175.098 0.7615 0.7278 0.7118 0.727 0.7689 0.8457 0.8551 0.8912 0.8683 0.832
3213.677 0.9344 1.0403 1.1176 1.196 1.1645 1.1218 1.0259 0.8445 0.7389 0.7246
3252.257 0.6313 0.5048 0.4745 0.4435 0.4107 0.3296 0.24507 0.1998 0.2115 0.21605
3290.836 0.16813 0.1133 0.1432 0.1415 0.0854 0.19071 0.17918 0.0943 0.16 0.1573
3329.416 0.1037 0.1079 0.0976 0.1495 0.181146 0.18389 0.20706 0.176883 0.18913 0.20218
3367.995 0.19812 0.1987 0.23998 0.3201 0.2419 0.21047 0.33 0.3196 0.2093 0.1235
3406.575 0.18924 0.23138 0.18933 0.1292 0.1232 0.3016 0.3612 0.3115 0.2955 0.26348
3445.154 0.2404 0.25581 0.3108 0.25864 0.23878 0.22527 0.23272 0.3302 0.3423 0.2864
3483.734 0.26931 0.3518 0.4149 0.4245 0.4134 0.3939 0.3565 0.383 0.4287 0.498
3522.314 0.5548 0.5732 0.6529 0.6892 0.7698 0.9558 1.316 1.986 2.626 2.996
3560.893 3.166 2.856 2.226 1.706 1.276 0.9998 0.8448 0.7171 0.5936 0.5415
3599.473 0.5445 0.5575 0.5029 0.5271 0.5226 0.42 0.3889 0.3184 0.3433 0.4346
3638.052 0.4245 0.3348 0.3808 0.441 0.3669 0.3704 0.3704 0.3194 0.3646 0.366
3676.632 0.26392 0.24961 0.3485 0.3725 0.3662 0.3703 0.3536 0.3329 0.23731 0.22914
3715.211 0.21609 0.2439 0.3322 0.2811 0.23078 0.058 0 0.176995 0.2849 0.2906
3753.791 0.20265 0.22789 0.3444 0.3451 0.3002 0.2926 0.2894 0.322 0.2807 0.2812
3792.370 0.3891 0.3093 0.16718 0.25154 0.2898 0.26758 0.2924 0.27046 0.24401 0.20334
3830.950 0.1571 0.04 0.031 0.0942 0.0826 0.065 0.0766 0.22389 0.3322 0.3198
3869.530 0.3285 0.3695 0.3145 0.2915 0.2969 0.27474 0.27396 0.18701 0.078 0.1367
3908.109 0.2896 0.3349 0.3279 0.35 0.3836 0.4768 0.4693 0.4532 0.4246 0.2774
3946.689 0.25505 0.19009 0.142 0.2779 0.3359 0.23647 0.19536 0.22774 0.23827 0.3209
3985.268 0.3029 0.1988 0.20036 0.24416 0.26409
##END=
