##TITLE=Heptachlor epoxide
##JCAMP-DX=4.24
##DATA TYPE=INFRARED SPECTRUM
##ORIGIN=NIST Mass Spectrometry Data Center
##OWNER=NIST Standard Reference Data Program
Collection (C) 2018 copyright by the U.S. Secretary of Commerce
on behalf of the United States of America. All rights reserved.
##CAS REGISTRY NO=1024-57-3
##MOLFORM=C 10 H 5 Cl 7 O
##$NIST SOURCE=MSDC-IR
##SPECTROMETER/DATA SYSTEM=HP-GC/MS/IRD
##STATE=gas
##XUNITS=1/CM
##YUNITS=ABSORBANCE
##XFACTOR=1.0
##YFACTOR=0.000000800
##DELTAX=4.0
##FIRSTX=550.0
##LASTX=3846.0
##FIRSTY=0.000795
##MAXX=3846
##MINX=550
##MAXY=0.008
##MINY=0
##NPOINTS=825
##XYDATA=(X++(Y..Y))
550.0 994 558 448 931 1595 3122 5009 5428 3814 1736
590.0 633 324 204 189 247 219 298 590 763 602
630.0 296 118 88 126 194 301 457 776 1243 1905
670.0 3187 5321 7542 8158 6989 5558 4272 2855 1785 1249
710.0 873 629 515 364 306 313 308 267 301 331
750.0 306 340 373 380 382 421 682 1228 2108 3119
790.0 3668 3631 3947 5013 5618 4646 3197 2706 3404 4693
830.0 6051 7051 7069 6480 6179 6586 8187 10000 9207 5878
870.0 3064 1931 1814 2148 2611 2961 3133 3454 4309 5225
910.0 5238 4150 2718 1647 1147 952 955 1076 1086 989
950.0 819 670 586 509 451 403 422 491 636 832
990.0 1099 1500 1970 2479 2779 2688 2427 2332 2540 3045
1030.0 3868 5053 6401 7441 7720 7516 7321 7181 6733 5700
1070.0 4461 3579 3265 3186 3170 3416 3806 3879 3342 2410
1110.0 1626 1118 889 857 821 735 644 656 715 956
1150.0 1459 2263 3415 4545 5011 4282 2810 1624 989 678
1190.0 555 502 555 732 1012 1359 1686 1903 1912 1851
1230.0 2082 2662 3207 3534 4130 5099 5471 4623 3256 2428
1270.0 2355 2459 2202 1648 1447 1718 1927 1724 1233 780
1310.0 496 325 242 223 243 274 267 204 151 143
1350.0 143 150 162 190 242 334 503 778 1203 1768
1390.0 2131 1965 1363 743 402 267 205 147 101 79
1430.0 62 66 58 41 44 38 34 47 56 69
1470.0 106 103 78 71 46 43 63 50 60 49
1510.0 21 43 50 32 25 17 25 52 46 7
1550.0 0 60 104 127 203 315 417 538 732 1104
1590.0 1862 3114 4573 5396 4736 2990 1443 643 366 277
1630.0 208 173 148 118 91 71 72 87 88 90
1670.0 100 79 80 80 89 83 59 52 50 47
1710.0 30 35 31 33 41 41 53 53 56 70
1750.0 54 42 62 61 49 57 80 69 60 65
1790.0 61 52 40 44 53 39 39 37 35 34
1830.0 24 24 27 48 59 53 45 30 29 47
1870.0 55 59 78 87 81 85 84 95 107 88
1910.0 80 78 61 68 92 86 80 77 58 47
1950.0 65 83 80 68 77 80 56 68 81 83
1990.0 84 68 65 55 59 70 63 70 77 59
2030.0 51 79 109 101 111 116 101 100 106 98
2070.0 83 97 122 117 104 90 70 96 134 127
2110.0 102 100 113 134 124 124 130 120 113 106
2150.0 109 127 140 141 143 143 143 149 126 99
2190.0 86 98 118 103 95 122 138 122 106 112
2230.0 121 122 110 92 87 80 80 85 83 88
2270.0 116 114 97 114 110 99 116 125 112 101
2310.0 108 112 103 106 130 140 142 132 125 117
2350.0 108 113 118 94 98 123 108 106 118 121
2390.0 95 83 113 120 106 113 126 108 122 134
2430.0 110 122 134 137 140 134 130 137 155 125
2470.0 112 119 97 88 81 108 126 120 138 130
2510.0 124 132 118 128 133 132 128 121 138 134
2550.0 118 122 126 91 94 126 133 141 143 151
2590.0 167 163 147 147 130 120 123 107 101 97
2630.0 91 110 112 123 140 119 119 105 78 119
2670.0 144 138 128 146 164 168 176 146 145 153
2710.0 124 145 169 125 83 111 149 126 121 102
2750.0 85 100 117 126 114 116 127 146 160 146
2790.0 121 132 131 120 123 128 110 111 122 143
2830.0 137 102 111 114 93 80 90 120 126 104
2870.0 107 133 128 114 148 167 180 182 164 150
2910.0 149 149 155 159 133 140 145 138 150 161
2950.0 152 160 184 223 283 409 546 523 401 284
2990.0 222 198 190 178 161 168 196 228 291 540
3030.0 942 1276 1555 1972 2252 1810 977 475 273 197
3070.0 169 128 135 140 121 136 148 142 139 141
3110.0 110 96 109 116 133 106 92 89 100 153
3150.0 162 125 121 167 180 127 91 123 143 125
3190.0 126 131 136 161 171 147 120 140 155 131
3230.0 141 153 161 163 139 110 126 131 88 104
3270.0 167 175 181 183 138 119 163 167 120 77
3310.0 71 107 124 166 152 141 132 120 101 105
3350.0 154 145 167 168 128 116 139 174 150 118
3390.0 144 180 161 126 127 166 165 134 151 151
3430.0 168 164 142 124 116 153 180 164 178 207
3470.0 207 229 227 215 206 189 197 200 227 237
3510.0 195 149 143 158 161 179 199 215 206 208
3550.0 189 196 222 186 165 170 178 167 178 167
3590.0 148 181 175 181 218 195 169 209 242 247
3630.0 201 161 207 207 142 106 128 184 205 204
3670.0 167 119 121 123 141 166 114 98 126 109
3710.0 139 183 190 181 178 187 165 171 218 199
3750.0 146 159 147 148 163 171 168 160 147 156
3790.0 177 185 236 239 197 210 204 195 181 157
3830.0 198 218 217 255 222
##END=
