##TITLE=2-Methoxyethyl cyanoacetate
##JCAMP-DX=4.24
##DATA TYPE=INFRARED SPECTRUM
##ORIGIN=EPA-IR VAPOR PHASE LIBRARY
##OWNER=SRD/NIST
Collection (C) 2018 copyright by the U.S. Secretary of Commerce
on behalf of the United States of America. All rights reserved.
##CAS REGISTRY NO=10258-54-5
##MOLFORM=C 6 H 9 N O 3
##$NIST SOURCE=MSDC-IR
##STATE=gas
##XUNITS=1/CM
##YUNITS=ABSORBANCE
##XFACTOR=1.
##YFACTOR=0.001
##DELTAX=1.92934
##FIRSTX=549.9
##LASTX=3999.5
##FIRSTY=2.63096
##MAXX=3999.53
##MINX=549.863
##MAXY=0.10669
##MINY=0
##NPOINTS=1789
##XYDATA=(X++(Y..Y))
549.863 2.63096 2.402 2.43 2.4955 2.5115 2.6449 2.6905 2.5283 2.57224 2.58395
569.156 2.54122 2.7379 2.8393 2.7974 2.9494 3.064 3.1778 3.3516 3.4961 3.65
588.450 3.64 3.63 3.68 3.77 3.82 3.79 3.72 3.69 3.66 3.62
607.743 3.55 3.4544 3.3564 3.2463 3.1636 2.9966 2.8821 2.7855 2.6878 2.6647
627.037 2.59343 2.4875 2.416 2.365 2.22 2.142 2.172 2.066 2.007 1.976
646.330 1.908 1.865 1.864 1.862 1.805 1.851 1.92 1.885 1.878 1.938
665.624 2.026 2.108 2.139 2.294 2.5017 2.56615 2.55896 2.5935 2.7114 2.8132
684.917 2.7939 2.7872 2.7999 2.7454 2.6957 2.6592 2.62272 2.63449 2.62568 2.60408
704.210 2.62588 2.7094 2.6903 2.63394 2.6906 2.7616 2.8033 2.8634 2.9546 2.9378
723.504 2.8543 2.8917 2.9231 2.8961 2.9351 2.965 2.9581 2.9643 2.883 2.7518
742.797 2.7193 2.7536 2.7661 2.7327 2.706 2.7019 2.62166 2.56074 2.55081 2.5238
762.091 2.60136 2.59419 2.5285 2.55411 2.56708 2.5779 2.60319 2.60113 2.59177 2.59591
781.384 2.61838 2.6746 2.7002 2.7292 2.8451 2.932 2.9659 3.0098 3.0677 3.159
800.678 3.1988 3.2703 3.3797 3.381 3.4374 3.58 3.68 3.82 4.01 4.11
819.971 4.25 4.41 4.55 4.78 5.11 5.39 5.73 6.11 6.45 6.82
839.264 7.18 7.51 7.79 8.04 8.25 8.37 8.49 8.52 8.52 8.51
858.558 8.29 8.07 7.86 7.61 7.27 6.92 6.61 6.33 6.01 5.66
877.851 5.43 5.27 5.07 4.94 4.87 4.78 4.75 4.75 4.76 4.82
897.145 4.91 5.06 5.27 5.49 5.69 5.99 6.28 6.56 6.9 7.22
916.438 7.58 7.92 8.22 8.52 8.79 9.06 9.26 9.39 9.47 9.49
935.732 9.47 9.4 9.26 9.07 8.87 8.71 8.59 8.44 8.27 8.16
955.025 8.13 8.18 8.24 8.29 8.39 8.45 8.48 8.5 8.53 8.62
974.318 8.64 8.66 8.78 8.91 9.03 9.2 9.43 9.65 9.96 10.34
993.612 10.72 11.2 11.8 12.53 13.39 14.33 15.39 16.56 17.71 18.81
1012.905 19.89 20.86 21.73 22.54 23.26 23.98 24.81 25.71 26.7 27.76
1032.199 28.78 29.64 30.19 30.21 29.58 28.41 26.74 24.7 22.42 20.08
1051.492 17.83 15.82 14.17 12.91 12.07 11.5 11.12 10.91 10.8 10.82
1070.786 10.95 11.15 11.42 11.8 12.26 12.79 13.4 14.06 14.77 15.56
1090.079 16.42 17.26 18.15 19.07 19.97 20.91 21.78 22.72 23.78 25.02
1109.372 26.47 28.09 30 32.21 34.73 37.64 40.99 44.71 48.7 52.87
1128.666 57.01 60.8 64.03 66.67 68.61 69.77 70.23 70.12 69.53 68.64
1147.959 67.72 67.01 66.79 67.13 67.98 69.16 70.36 71.52 72.46 73.09
1167.253 73.34 73.17 72.56 71.56 70.27 68.76 67.15 65.51 63.94 62.51
1186.546 61.19 59.86 58.51 57.22 55.85 54.39 52.83 51.1 49.25 47.33
1205.840 45.42 43.51 41.63 39.85 38.18 36.83 35.82 35.13 34.82 34.83
1225.133 35.17 35.9 37.01 38.48 40.29 42.49 45.07 47.97 51.2 54.68
1244.426 58.24 61.8 65.27 68.44 71.1 73.09 74.38 74.85 74.45 73.3
1263.720 71.44 68.99 66.15 63.06 59.84 56.66 53.59 50.68 48 45.6
1283.013 43.5 41.72 40.15 38.85 37.84 36.97 36.2 35.42 34.58 33.67
1302.307 32.7 31.68 30.58 29.49 28.49 27.65 26.95 26.42 26.15 26.05
1321.600 26.09 26.18 26.24 26.18 25.89 25.39 24.68 23.82 22.79 21.6
1340.894 20.28 18.95 17.67 16.5 15.46 14.6 13.86 13.14 12.56 12.13
1360.187 11.84 11.66 11.6 11.56 11.47 11.38 11.32 11.21 11.04 10.81
1379.480 10.5 10.16 9.93 9.84 9.84 9.98 10.2 10.48 10.86 11.29
1398.774 11.53 11.68 11.83 11.9 11.95 12 11.88 11.61 11.29 10.86
1418.067 10.35 9.92 9.55 9.14 8.78 8.44 8.22 8.21 8.25 8.35
1437.361 8.59 8.86 9.19 9.56 9.93 10.34 10.73 11.12 11.45 11.59
1456.654 11.64 11.71 11.72 11.51 11.14 10.7 10.14 9.53 8.87 8.29
1475.948 7.78 7.18 6.66 6.21 5.8 5.44 5.1 4.78 4.56 4.32
1495.241 4.06 3.85 3.68 3.56 3.4417 3.3071 3.1814 3.1267 3.0508 3.0221
1514.534 2.9969 2.9212 2.849 2.7527 2.7605 2.8125 2.7501 2.6819 2.7027 2.6771
1533.828 2.63025 2.60508 2.5852 2.5667 2.57975 2.60597 2.60268 2.58645 2.5144 2.4859
1553.121 2.4774 2.421 2.358 2.268 2.345 2.432 2.416 2.394 2.347 2.348
1572.415 2.421 2.405 2.337 2.375 2.396 2.377 2.338 2.288 2.34 2.377
1591.708 2.384 2.386 2.348 2.37 2.376 2.327 2.319 2.351 2.414 2.428
1611.002 2.427 2.423 2.364 2.336 2.392 2.387 2.368 2.434 2.4588 2.4472
1630.295 2.451 2.386 2.345 2.417 2.4631 2.4671 2.4886 2.4532 2.407 2.4651
1649.588 2.4894 2.439 2.425 2.5227 2.59683 2.6268 2.6582 2.7002 2.7103 2.6711
1668.882 2.6967 2.7806 2.8505 2.8906 2.9181 2.9384 2.9203 2.9256 3.0187 3.1636
1688.175 3.2594 3.2955 3.4179 3.56 3.65 3.8 3.94 4.12 4.36 4.61
1707.469 4.86 5.14 5.48 5.85 6.27 6.75 7.29 7.85 8.46 9.15
1726.762 9.94 10.8 11.68 12.7 13.97 15.39 16.94 18.85 21.09 23.73
1746.056 26.9 30.75 35.34 40.91 47.24 54.24 62.16 70.31 78.63 86.54
1765.349 93.17 98.58 102.72 105.43 106.69 106.21 103.36 98.15 90.99 82.79
1784.642 74.1 65.42 57.26 49.69 42.85 36.92 31.99 27.7 24.09 21.01
1803.936 18.44 16.28 14.41 12.85 11.5 10.32 9.4 8.62 7.97 7.36
1823.229 6.79 6.34 5.95 5.61 5.26 5 4.8 4.57 4.36 4.2
1842.523 4.01 3.85 3.77 3.68 3.61 3.54 3.4495 3.3931 3.3307 3.3018
1861.816 3.3075 3.2578 3.1959 3.1875 3.1879 3.1473 3.151 3.1315 3.0862 3.053
1881.110 3.0248 2.9849 2.9842 3.0156 2.9745 2.9277 2.9088 2.8599 2.8424 2.8238
1900.403 2.834 2.8247 2.7675 2.7438 2.6991 2.6646 2.6613 2.6772 2.6655 2.59989
1919.696 2.56351 2.53204 2.53479 2.57186 2.5773 2.56658 2.5008 2.5037 2.60481 2.62057
1938.990 2.54853 2.5029 2.53066 2.59307 2.63543 2.61937 2.63761 2.6539 2.61713 2.6143
1958.283 2.6438 2.6794 2.6952 2.7054 2.7338 2.7539 2.7589 2.7608 2.8002 2.8253
1977.577 2.7956 2.7809 2.8238 2.8352 2.8238 2.834 2.8239 2.8365 2.8169 2.7965
1996.870 2.7845 2.7889 2.8052 2.7972 2.7831 2.7626 2.7697 2.7713 2.763 2.8062
2016.164 2.8356 2.8034 2.8135 2.8165 2.8122 2.8369 2.8354 2.8159 2.8074 2.834
2035.457 2.8361 2.827 2.812 2.8104 2.8279 2.8337 2.8309 2.8263 2.8373 2.8265
2054.750 2.8044 2.8485 2.868 2.8235 2.7856 2.7895 2.8324 2.8008 2.746 2.8052
2074.044 2.8316 2.7759 2.7642 2.7858 2.7882 2.7601 2.7323 2.7478 2.7724 2.756
2093.337 2.7373 2.7279 2.7354 2.7072 2.6643 2.6502 2.62011 2.59826 2.60702 2.59573
2112.631 2.58657 2.56585 2.5243 2.4945 2.4901 2.4833 2.4524 2.4717 2.4528 2.412
2131.924 2.374 2.345 2.387 2.432 2.423 2.389 2.396 2.397 2.366 2.321
2151.218 2.337 2.383 2.36 2.315 2.323 2.349 2.333 2.329 2.337 2.33
2170.511 2.326 2.293 2.254 2.22 2.183 2.151 2.165 2.161 2.14 2.138
2189.804 2.103 2.089 2.107 2.082 2.074 2.087 2.09 2.108 2.104 2.098
2209.098 2.1 2.079 2.052 2.062 2.074 2.06 2.074 2.117 2.109 2.095
2228.391 2.104 2.111 2.145 2.193 2.202 2.164 2.153 2.199 2.255 2.292
2247.685 2.325 2.354 2.357 2.408 2.4555 2.4407 2.438 2.435 2.4405 2.4613
2266.978 2.4617 2.4726 2.417 2.359 2.358 2.292 2.252 2.246 2.217 2.182
2286.272 2.153 2.139 2.107 2.104 2.118 2.14 2.146 2.15 2.145 2.123
2305.565 2.149 2.167 2.187 2.196 2.193 2.222 2.237 2.222 2.268 2.282
2324.858 2.249 2.263 2.277 2.312 2.346 2.346 2.299 2.298 2.338 2.302
2344.152 2.246 2.23 2.238 2.268 2.327 2.298 2.259 2.265 2.267 2.239
2363.445 2.22 2.229 2.229 2.249 2.248 2.243 2.194 2.167 2.169 2.14
2382.739 2.132 2.11 2.091 2.052 2.04 2.05 2.031 2.055 2.094 2.087
2402.032 2.035 2.024 2.033 2.022 2.033 2.04 2.05 2.068 2.057 2.016
2421.326 1.976 1.996 2.03 2.032 2.032 2.044 2.018 2.008 2.048 2.013
2440.619 2.016 2.003 1.996 1.995 1.94 1.928 1.917 1.921 1.946 1.978
2459.912 1.995 1.964 1.981 2.024 2.019 2.025 2.038 2.046 2.034 2.036
2479.206 2.049 2.029 2.024 2.011 2.04 2.041 2.006 2.052 2.047 2.042
2498.499 2.047 2.024 2.008 2.004 2.019 2.019 2.026 2.066 2.073 2.029
2517.793 2.032 2.024 1.972 1.937 1.97 2.018 2.013 2.028 2.035 2.004
2537.086 2.015 2.009 2.008 2.009 1.968 1.984 2.005 2.021 2.022 2
2556.380 2.021 2.041 2.004 1.946 1.963 2.015 2.029 2.021 2.009 2.024
2575.673 2.105 2.12 2.075 2.092 2.052 2.022 2.053 2.073 2.088 2.122
2594.966 2.121 2.101 2.143 2.154 2.147 2.132 2.118 2.174 2.172 2.166
2614.260 2.169 2.091 2.123 2.187 2.144 2.149 2.128 2.067 2.078 2.074
2633.553 2.07 2.101 2.083 2.071 2.084 2.062 2.08 2.118 2.124 2.124
2652.847 2.111 2.082 2.067 2.067 2.107 2.152 2.133 2.122 2.091 2.093
2672.140 2.106 2.06 2.071 2.107 2.138 2.145 2.156 2.19 2.204 2.229
2691.434 2.236 2.24 2.263 2.348 2.396 2.375 2.4573 2.5054 2.4413 2.4813
2710.727 2.56601 2.62862 2.688 2.7245 2.7744 2.8449 2.9369 2.9983 3.0484 3.1429
2730.020 3.1807 3.2477 3.3934 3.3387 3.3211 3.3947 3.3869 3.4021 3.372 3.3728
2749.314 3.4183 3.414 3.4055 3.3877 3.3818 3.4178 3.4625 3.4709 3.4586 3.56
2768.607 3.66 3.71 3.81 3.88 4.01 4.1 4.19 4.34 4.49 4.61
2787.901 4.79 4.98 5.15 5.44 5.71 6 6.37 6.77 7.15 7.46
2807.194 7.81 8.34 8.96 9.53 10.23 11.1 11.98 12.85 13.77 14.65
2826.488 15.36 16.02 16.55 16.86 17.04 17.05 16.94 16.72 16.54 16.47
2845.781 16.37 16.31 16.38 16.5 16.55 16.65 16.81 16.9 17.07 17.24
2865.074 17.38 17.6 17.92 18.29 18.62 19.06 19.62 20.27 20.87 21.4
2884.368 21.99 22.54 22.91 23.2 23.34 23.38 23.37 23.2 22.95 22.64
2903.661 22.33 22.07 21.77 21.36 21.07 20.91 20.74 20.74 20.83 20.98
2922.955 21.26 21.56 21.87 22.26 22.6 22.81 22.98 23.07 22.95 22.62
2942.248 22.36 22.15 21.82 21.61 21.46 21.29 21.24 21.27 21.41 21.54
2961.542 21.45 21.25 20.94 20.54 20.22 19.73 19.19 18.65 18.02 17.59
2980.835 17.25 17.07 17 17.02 17.28 17.63 17.82 17.96 17.99 17.81
3000.128 17.43 16.83 16.03 14.99 13.86 12.6 11.29 10.01 8.95 8.16
3019.422 7.33 6.62 6.19 5.72 5.21 4.92 4.68 4.41 4.08 3.79
3038.715 3.68 3.55 3.2967 3.1391 3.112 3.0537 2.9237 2.7736 2.7386 2.7409
3058.009 2.6608 2.59917 2.56866 2.62147 2.56279 2.368 2.319 2.326 2.269 2.214
3077.302 2.08 2.011 2.044 1.927 1.833 1.767 1.763 1.719 1.758 1.733
3096.596 1.5 1.48 1.51 1.45 1.564 1.578 1.35 1.34 1.39 1.34
3115.889 1.2 1.17 1.27 1.21 1.2 1.21 1.16 1.16 1.09 1.02
3135.182 0.98 0.94 0.94 0.89 0.92 1 0.99 0.98 0.81 0.82
3154.476 0.81 0.84 0.84 0.71 0.79 0.8 0.76 0.7 0.61 0.63
3173.769 0.66 0.56 0.45 0.5 0.65 0.69 0.56 0.53 0.6 0.6
3193.063 0.64 0.63 0.55 0.51 0.51 0.45 0.41 0.46 0.63 0.67
3212.356 0.64 0.58 0.56 0.72 0.64 0.51 0.56 0.61 0.65 0.66
3231.650 0.63 0.69 0.64 0.48 0.44 0.52 0.42 0.29 0.38 0.32
3250.943 0.24 0.29 0.21 0.17 0.14 0.23 0.44 0.28 0.08 0.24
3270.236 0.38 0.29 0.28 0.31 0.23 0.2 0.17 0.16 0.16 0.16
3289.530 0.24 0.27 0.27 0.2 0.09 0 0.15 0.22 0.13 0.08
3308.823 0.07 0.22 0.25 0.21 0.27 0.24 0.27 0.29 0.26 0.28
3328.117 0.28 0.26 0.28 0.26 0.28 0.27 0.13 0.21 0.29 0.26
3347.410 0.34 0.42 0.41 0.36 0.2 0.17 0.3 0.38 0.41 0.2
3366.704 0.14 0.2 0.19 0.34 0.38 0.27 0.27 0.24 0.14 0.18
3385.997 0.16 0.2 0.31 0.33 0.26 0.23 0.27 0.19 0.19 0.3
3405.290 0.33 0.35 0.32 0.34 0.36 0.37 0.38 0.3 0.31 0.33
3424.584 0.28 0.21 0.26 0.27 0.26 0.26 0.24 0.37 0.41 0.33
3443.877 0.29 0.33 0.34 0.22 0.31 0.38 0.35 0.28 0.34 0.47
3463.171 0.35 0.38 0.61 0.57 0.54 0.75 0.71 0.55 0.51 0.6
3482.464 0.71 0.67 0.7 0.71 0.74 0.9 0.91 0.95 0.95 0.97
3501.758 1.04 1.1 1.24 1.24 1.22 1.33 1.38 1.4 1.46 1.46
3521.051 1.48 1.52 1.586 1.641 1.622 1.53 1.39 1.35 1.39 1.41
3540.344 1.4 1.31 1.15 1.08 1.06 1.01 0.95 1 1.03 1
3559.638 0.95 0.89 0.99 0.94 0.75 0.74 0.69 0.72 0.91 1.02
3578.931 1.01 0.87 0.72 0.77 0.84 0.86 0.85 0.78 0.79 0.8
3598.225 0.78 0.72 0.72 0.76 0.73 0.73 0.71 0.77 0.79 0.75
3617.518 0.79 0.89 0.86 0.71 0.65 0.61 0.62 0.78 0.81 0.66
3636.812 0.75 0.9 0.84 0.79 0.71 0.64 0.67 0.74 0.8 0.79
3656.105 0.84 0.93 1.01 1.04 0.97 0.95 0.9 0.86 0.95 0.94
3675.398 0.86 0.9 1 1.07 0.92 0.81 0.86 0.9 0.96 0.91
3694.692 0.88 0.98 0.99 0.98 0.94 0.92 1.08 1.2 1.16 1.12
3713.985 1.12 1.02 0.94 0.96 1 0.99 1.08 1.11 1.07 1.07
3733.279 1.06 1.02 1.03 1.07 1.01 0.95 0.91 0.97 0.99 1.01
3752.572 1.05 1.09 1.04 0.96 1.01 1.03 1.12 1.21 1.13 1.1
3771.866 1.15 1.21 1.19 1.12 1.16 1.21 1.26 1.29 1.14 1.03
3791.159 1.12 1.15 1.11 1.09 1.05 1 1.09 1.16 1.21 1.18
3810.452 1.13 1.18 1.19 1.14 1.12 1.16 1.16 1.23 1.29 1.2
3829.746 1.19 1.3 1.37 1.25 1.17 1.22 1.23 1.24 1.25 1.24
3849.039 1.22 1.15 1.09 1.1 1.19 1.3 1.28 1.27 1.23 1.13
3868.333 1.14 1.2 1.28 1.36 1.34 1.33 1.33 1.35 1.29 1.31
3887.626 1.39 1.34 1.34 1.38 1.42 1.34 1.34 1.38 1.3 1.25
3906.920 1.25 1.34 1.39 1.36 1.4 1.41 1.43 1.49 1.54 1.582
3926.213 1.53 1.42 1.43 1.45 1.46 1.49 1.44 1.45 1.46 1.52
3945.506 1.573 1.53 1.541 1.46 1.43 1.47 1.47 1.549 1.665 1.592
3964.800 1.54 1.542 1.547 1.621 1.598 1.54 1.575 1.663 1.703 1.659
3984.093 1.564 1.622 1.689 1.679 1.697 1.659 1.643 1.622 1.627
##END=
