##TITLE=3-Ethylcyclopentanone
##JCAMP-DX=4.24
##DATA TYPE=INFRARED SPECTRUM
##ORIGIN=NIST Mass Spectrometry Data Center
##OWNER=NIST Standard Reference Data Program
Collection (C) 2018 copyright by the U.S. Secretary of Commerce
on behalf of the United States of America. All rights reserved.
##CAS REGISTRY NO=10264-55-8
##MOLFORM=C 7 H 12 O
##$NIST SOURCE=MSDC-IR
##SPECTROMETER/DATA SYSTEM=HP-GC/MS/IRD
##STATE=gas
##XUNITS=1/CM
##YUNITS=ABSORBANCE
##XFACTOR=1.0
##YFACTOR=0.000006000
##DELTAX=4.0
##FIRSTX=550.0
##LASTX=3846.0
##FIRSTY=0.000324
##MAXX=3846
##MINX=550
##MAXY=0.06
##MINY=0
##NPOINTS=825
##XYDATA=(X++(Y..Y))
550.0 54 62 61 54 53 64 75 73 68 71
590.0 84 91 76 60 46 31 19 9 1 1
630.0 4 0 6 11 7 3 5 13 13 15
670.0 15 10 10 11 9 0 0 8 13 25
710.0 36 37 48 68 68 62 64 59 54 51
750.0 50 51 54 70 85 94 102 104 108 115
790.0 123 133 145 150 153 155 139 110 80 71
830.0 71 64 58 57 61 62 56 58 58 53
870.0 58 65 73 84 98 109 120 128 125 118
910.0 112 111 111 114 124 135 143 147 150 157
950.0 161 164 169 176 177 172 161 147 133 114
990.0 95 82 76 72 75 81 89 98 100 103
1030.0 111 124 133 140 146 155 170 194 226 256
1070.0 285 316 339 353 355 350 344 338 353 389
1110.0 438 493 562 658 776 923 1118 1350 1588 1772
1150.0 1851 1827 1704 1485 1228 978 766 600 471 381
1190.0 316 271 241 219 211 210 213 228 265 307
1230.0 332 343 344 344 328 294 263 249 246 257
1270.0 267 276 289 301 310 307 299 287 270 250
1310.0 230 214 204 201 194 184 178 169 157 146
1350.0 142 146 152 163 179 206 241 285 327 372
1390.0 423 469 513 578 665 730 748 747 718 634
1430.0 524 436 387 371 396 447 502 550 573 571
1470.0 539 471 392 317 247 194 151 124 104 88
1510.0 76 68 65 62 55 53 53 54 55 56
1550.0 55 57 58 55 54 55 55 57 58 62
1590.0 66 67 70 74 77 79 82 84 82 82
1630.0 84 89 94 96 101 106 112 115 121 131
1670.0 144 162 181 207 239 271 313 360 406 464
1710.0 525 596 681 786 939 1182 1564 2171 3142 4598
1750.0 6488 8347 9572 10000 9809 8865 6799 4367 2627 1663
1790.0 1145 846 661 543 461 401 356 319 284 257
1830.0 231 205 183 162 143 126 111 100 91 82
1870.0 75 69 64 62 58 53 48 42 37 33
1910.0 30 27 27 26 25 23 25 26 26 27
1950.0 30 31 30 30 29 28 26 26 27 26
1990.0 25 25 26 24 24 22 20 20 21 21
2030.0 21 24 23 23 24 21 18 18 16 14
2070.0 13 11 12 13 13 11 13 14 15 16
2110.0 14 13 14 12 12 13 15 16 16 15
2150.0 14 13 15 15 14 13 11 8 11 14
2190.0 15 14 16 17 18 17 16 19 20 21
2230.0 20 18 16 15 15 16 17 16 13 11
2270.0 12 13 13 16 17 20 21 20 21 20
2310.0 21 20 18 18 16 14 14 14 17 19
2350.0 19 18 19 22 20 18 18 17 17 16
2390.0 15 14 11 10 9 11 12 13 12 10
2430.0 8 8 10 11 8 5 5 5 3 3
2470.0 3 1 2 6 6 8 9 6 5 4
2510.0 4 5 3 2 5 6 5 2 0 3
2550.0 6 5 8 8 9 11 12 13 14 14
2590.0 14 17 21 21 20 21 20 20 24 26
2630.0 26 28 28 29 30 29 30 28 26 27
2670.0 29 27 26 25 25 26 30 30 29 30
2710.0 30 34 38 40 42 43 48 55 61 67
2750.0 70 72 75 76 76 81 90 95 99 105
2790.0 113 125 141 156 172 190 208 225 242 253
2830.0 267 289 325 383 474 600 761 957 1170 1382
2870.0 1586 1790 1986 2109 2157 2179 2199 2209 2236 2340
2910.0 2517 2725 2927 3110 3265 3363 3397 3360 3298 3290
2950.0 3372 3581 3896 4295 4687 4790 4505 4005 3333 2509
2990.0 1750 1203 845 614 472 383 326 288 263 244
3030.0 230 221 213 204 195 184 173 167 161 149
3070.0 138 130 124 117 109 105 101 95 90 81
3110.0 73 72 69 66 64 62 56 49 48 46
3150.0 46 47 46 44 42 39 37 37 33 31
3190.0 30 32 28 26 24 20 17 14 12 12
3230.0 9 4 2 1 1 3 9 10 9 6
3270.0 6 7 7 6 5 0 0 7 6 5
3310.0 10 10 9 13 11 10 8 10 11 10
3350.0 10 9 10 12 14 11 9 8 7 12
3390.0 12 11 14 14 12 16 21 16 14 19
3430.0 20 20 19 20 22 25 29 33 37 42
3470.0 50 57 69 87 108 132 152 175 191 196
3510.0 195 180 154 120 93 75 63 58 50 42
3550.0 39 35 33 30 27 24 22 21 20 20
3590.0 18 13 11 12 11 11 15 18 15 12
3630.0 13 16 14 15 17 20 19 14 14 13
3670.0 14 14 12 12 14 17 14 14 16 17
3710.0 15 14 15 16 16 17 19 19 16 20
3750.0 21 16 14 16 18 18 18 17 18 20
3790.0 20 22 21 21 20 19 20 20 20 23
3830.0 23 25 27 23 17
##END=
