##TITLE=2,2'-(1,2-Ethanediyl)bis(benzonitrile)
##JCAMP-DX=4.24
##DATA TYPE=INFRARED SPECTRUM
##ORIGIN=EPA-IR VAPOR PHASE LIBRARY
##OWNER=SRD/NIST
Collection (C) 2018 copyright by the U.S. Secretary of Commerce
on behalf of the United States of America. All rights reserved.
##CAS REGISTRY NO=10270-33-4
##MOLFORM=C 16 H 12 N 2
##$NIST SOURCE=MSDC-IR
##STATE=gas
##XUNITS=1/CM
##YUNITS=ABSORBANCE
##XFACTOR=1.
##YFACTOR=0.001
##DELTAX=3.85796
##FIRSTX=551.7
##LASTX=4000.7
##FIRSTY=1.809
##MAXX=4000.7
##MINX=551.688
##MAXY=0.016709
##MINY=0
##NPOINTS=895
##XYDATA=(X++(Y..Y))
551.688 1.809 1.619 1.4353 1.2663 1.0775 1.034 1.0963 1.0174 0.9839 1.1345
590.268 1.1529 1.0035 0.9379 0.8958 0.8955 0.8953 0.8053 0.8342 0.8651 0.7999
628.847 0.7225 0.7384 0.7386 0.712 0.7716 0.7879 0.7438 0.6566 0.7202 0.7314
667.427 0.6237 0.6407 0.7136 0.7501 0.7544 0.8453 0.8815 0.8986 0.9268 0.9436
706.006 1.0288 1.0669 1.1449 1.2567 1.2812 1.2961 1.469 1.809 2.289 3.089
744.586 4.809 8.469 13.439 16.709 15.159 10.269 5.819 3.289 2.229 1.729
783.165 1.519 1.3233 1.1406 1.0803 1.0923 0.9974 0.9041 0.9051 0.8782 0.8589
821.745 0.8343 0.7821 0.7564 0.6995 0.6569 0.6856 0.7516 0.78 0.7473 0.7735
860.324 0.787 0.7949 0.7385 0.7357 0.6959 0.6555 0.7293 0.7782 0.7276 0.6691
898.904 0.7121 0.7532 0.7759 0.7447 0.7707 0.8398 0.8256 0.7777 0.7766 0.8184
937.484 0.9004 0.9592 1.0304 1.1201 1.1636 1.055 0.8646 0.7177 0.6062 0.55893
976.063 0.6248 0.6246 0.6117 0.6642 0.6823 0.6516 0.6615 0.6308 0.6282 0.7467
1014.643 0.7956 0.7936 0.7549 0.769 0.8527 0.9891 1.1114 1.149 1.0037 0.7866
1053.222 0.624 0.51007 0.47622 0.5632 0.6415 0.7986 0.9276 0.8752 0.9036 0.8749
1091.802 0.806 0.8501 0.8026 0.6799 0.6537 0.5629 0.604 0.6694 0.6645 0.7063
1130.381 0.7007 0.7023 0.6599 0.6053 0.6584 0.8381 1.0013 1.236 1.3272 1.1879
1168.961 1.0007 0.9526 1.0614 1.0251 0.9391 0.9164 0.9734 1.0139 1.1307 1.1638
1207.540 1.1122 1.157 1.2313 1.1594 1.03 0.9661 0.9059 0.9694 1.0258 1.0071
1246.120 0.9396 0.9594 0.9993 1.0469 1.0636 1.0681 1.1259 1.1499 1.22 1.2453
1284.699 1.2092 1.1807 1.1817 1.2183 1.2631 1.243 1.1065 0.9909 0.9221 0.8459
1323.279 0.8188 0.7986 0.8122 0.8739 0.9196 0.9653 0.9771 0.9279 0.8388 0.7422
1361.859 0.6973 0.6961 0.6535 0.6168 0.6049 0.5837 0.5699 0.5679 0.5897 0.5796
1400.438 0.5952 0.6439 0.6487 0.6551 0.6639 0.7129 0.8301 0.9511 1.0955 1.3042
1439.018 1.659 2.269 2.969 3.319 3.099 2.589 2.169 1.909 1.859 2.119
1477.597 2.759 3.699 4.329 4.059 2.999 1.869 1.2581 0.9996 0.8871 0.846
1516.177 0.8097 0.7487 0.655 0.5842 0.5747 0.55473 0.51145 0.52361 0.5117 0.49314
1554.756 0.51208 0.52273 0.5666 0.6174 0.6672 0.7224 0.7701 0.8484 0.9747 1.2283
1593.336 1.589 1.889 1.919 1.619 1.2821 1.0709 0.9502 0.9365 0.9249 0.8619
1631.915 0.7934 0.7417 0.6876 0.6234 0.5696 0.54423 0.54941 0.52618 0.52459 0.52537
1670.495 0.52956 0.52827 0.51195 0.52496 0.54049 0.5688 0.6188 0.677 0.7211 0.7472
1709.075 0.7179 0.6402 0.6157 0.6132 0.5931 0.6076 0.608 0.5802 0.5897 0.5768
1747.654 0.52269 0.50443 0.51957 0.50905 0.468014 0.4439 0.48418 0.51407 0.48768 0.48087
1786.234 0.50148 0.54678 0.5771 0.5941 0.629 0.6889 0.7425 0.7487 0.7379 0.7278
1824.813 0.6963 0.6548 0.6546 0.6731 0.6566 0.6423 0.6334 0.6516 0.6472 0.5806
1863.393 0.5454 0.53715 0.52877 0.52319 0.53129 0.54422 0.55786 0.578 0.607 0.6573
1901.972 0.6544 0.5976 0.5777 0.5917 0.6498 0.7569 0.8761 0.9338 0.8719 0.7541
1940.552 0.6363 0.5857 0.6082 0.6793 0.7818 0.8425 0.8378 0.7435 0.6115 0.52096
1979.131 0.47041 0.44931 0.4396 0.4361 0.4159 0.3954 0.4066 0.3989 0.3987 0.4113
2017.711 0.4139 0.4292 0.448 0.4434 0.422 0.4107 0.421 0.4219 0.4301 0.4399
2056.291 0.412 0.3972 0.4097 0.421 0.4053 0.416 0.4376 0.4282 0.4344 0.4297
2094.870 0.3977 0.392 0.3967 0.3994 0.4129 0.3944 0.3778 0.3991 0.4064 0.3911
2133.450 0.3811 0.4054 0.4172 0.4065 0.4294 0.4396 0.4175 0.4006 0.3859 0.3969
2172.029 0.4344 0.45006 0.45724 0.45788 0.461434 0.48028 0.52675 0.54815 0.5979 0.698
2210.609 0.8752 1.2268 1.719 2.299 2.659 2.549 1.979 1.307 0.8666 0.6668
2249.188 0.5906 0.54357 0.49835 0.47482 0.48096 0.50274 0.48309 0.44939 0.45373 0.45347
2287.768 0.46309 0.47172 0.462478 0.4334 0.4181 0.4421 0.4298 0.4364 0.468375 0.47398
2326.347 0.46925 0.460725 0.4482 0.4326 0.419 0.4206 0.3935 0.3815 0.3923 0.371
2364.927 0.3885 0.4254 0.425 0.4238 0.43 0.3999 0.4017 0.4131 0.4 0.3935
2403.507 0.3652 0.374 0.3735 0.345 0.324 0.339 0.3945 0.3769 0.3644 0.3664
2442.086 0.327 0.339 0.337 0.324 0.35 0.3638 0.343 0.317 0.33 0.347
2480.666 0.352 0.313 0.299 0.331 0.3616 0.3774 0.332 0.339 0.326 0.29
2519.245 0.336 0.352 0.354 0.387 0.3605 0.297 0.328 0.3696 0.4002 0.4068
2557.825 0.3891 0.3655 0.358 0.347 0.332 0.344 0.336 0.358 0.355 0.342
2596.404 0.343 0.35 0.358 0.3786 0.3806 0.3707 0.3671 0.319 0.312 0.304
2634.984 0.317 0.319 0.305 0.321 0.307 0.316 0.303 0.278 0.315 0.3661
2673.563 0.34 0.339 0.4067 0.3942 0.35 0.329 0.325 0.326 0.311 0.308
2712.143 0.343 0.358 0.352 0.349 0.351 0.3825 0.3727 0.338 0.359 0.3808
2750.722 0.354 0.315 0.331 0.318 0.313 0.308 0.285 0.316 0.357 0.4006
2789.302 0.3893 0.3795 0.3815 0.352 0.341 0.38 0.3805 0.318 0.296 0.328
2827.882 0.342 0.339 0.336 0.328 0.358 0.3945 0.3918 0.428 0.51349 0.6018
2866.461 0.7576 0.9585 1.1315 1.2219 1.1382 0.9711 0.7857 0.6995 0.6982 0.6279
2905.041 0.6484 0.7323 0.8133 0.8933 0.9992 1.1033 1.2807 1.559 1.789 1.999
2943.620 2.109 2.109 2.019 1.849 1.759 1.759 1.699 1.559 1.3187 0.9949
2982.200 0.7687 0.659 0.5708 0.51227 0.49177 0.54122 0.54511 0.52704 0.6225 0.7769
3020.779 0.9761 1.2685 1.559 1.769 1.749 1.559 1.3099 1.1166 1.1052 1.1585
3059.359 1.3629 1.699 2.119 2.779 3.569 4.069 3.819 2.909 1.969 1.4457
3097.938 1.1778 1.009 0.9051 0.755 0.5699 0.46983 0.4446 0.4204 0.3729 0.344
3136.518 0.4008 0.4399 0.4268 0.3829 0.353 0.305 0.271 0.255 0.259 0.301
3175.098 0.261 0.222 0.147 0.099 0.2 0.2 0.216 0.274 0.215 0.158
3213.677 0.116 0.087 0.145 0.202 0.174 0.186 0.183 0.157 0.191 0.196
3252.257 0.168 0.151 0.157 0.19 0.183 0.171 0.183 0.172 0.179 0.157
3290.836 0.14 0.184 0.222 0.204 0.139 0.171 0.18 0.153 0.173 0.113
3329.416 0.103 0.179 0.173 0.145 0.139 0.125 0.207 0.187 0.138 0.156
3367.995 0.132 0.169 0.18 0.208 0.269 0.239 0.175 0.175 0.176 0.145
3406.575 0.152 0.183 0.198 0.195 0.189 0.186 0.144 0.143 0.156 0.16
3445.154 0.222 0.24 0.157 0.123 0.183 0.196 0.203 0.173 0.084 0.078
3483.734 0.115 0.133 0.148 0.163 0.19 0.236 0.213 0.169 0.143 0.131
3522.314 0.091 0.111 0.233 0.225 0.15 0.096 0.129 0.103 0.13 0.181
3560.893 0.137 0.112 0.21 0.221 0.129 0.189 0.157 0.162 0.193 0.124
3599.473 0.137 0.179 0.184 0.161 0.176 0.18 0.179 0.18 0.15 0.144
3638.052 0.122 0.117 0.172 0.198 0.144 0.128 0.124 0.107 0.091 0.126
3676.632 0.15 0.186 0.171 0.144 0.213 0.184 0.171 0.166 0.101 0.105
3715.211 0.174 0.171 0.135 0.096 0.055 0.081 0.109 0.066 0.041 0.105
3753.791 0.135 0.175 0.213 0.194 0.204 0.198 0.13 0.138 0.14 0.114
3792.370 0.173 0.196 0.243 0.292 0.297 0.209 0.17 0.18 0.137 0.166
3830.950 0.194 0.215 0.234 0.194 0.159 0.143 0.084 0.128 0.163 0.102
3869.530 0.091 0.151 0.129 0.086 0.189 0.266 0.207 0.105 0.017 0
3908.109 0.043 0.039 0.103 0.146 0.061 0.096 0.084 0.029 0.06 0.071
3946.689 0.093 0.1 0.098 0.129 0.157 0.147 0.111 0.108 0.116 0.13
3985.268 0.154 0.133 0.022 0.053 0.134
##END=
