##TITLE=p-Nitrophenyl hexadecyl ether
##JCAMP-DX=4.24
##DATA TYPE=INFRARED SPECTRUM
##ORIGIN=EPA-IR VAPOR PHASE LIBRARY
##OWNER=SRD/NIST
Collection (C) 2018 copyright by the U.S. Secretary of Commerce
on behalf of the United States of America. All rights reserved.
##CAS REGISTRY NO=102703-33-3
##MOLFORM=C 22 H 37 N O 3
##$NIST SOURCE=MSDC-IR
##STATE=gas
##XUNITS=1/CM
##YUNITS=ABSORBANCE
##XFACTOR=1.
##YFACTOR=0.001
##DELTAX=1.92898
##FIRSTX=549.8
##LASTX=4000.7
##FIRSTY=0.6409
##MAXX=4000.7
##MINX=549.759
##MAXY=0.091995
##MINY=0
##NPOINTS=1790
##XYDATA=(X++(Y..Y))
549.759 0.6409 0.6886 0.7716 0.6988 0.4653 0.176 0.095 0 0.198 0.35431
569.049 0.2849 0.609 0.8348 0.6071 0.5529 0.6012 0.5006 0.5004 0.5605 0.5326
588.339 0.4977 0.37588 0.309744 0.36445 0.5898 0.8679 0.9119 0.8509 0.8932 1.0896
607.628 1.315 1.605 1.805 1.905 2.095 2.235 2.105 1.925 1.975 1.945
626.918 1.945 1.975 1.985 2.105 2.355 2.575 2.625 2.705 2.975 3.425
646.208 3.905 4.345 4.515 4.535 4.275 3.685 2.865 2.185 2.035 1.905
665.498 1.635 1.495 1.695 1.715 1.755 1.935 2.005 2.165 2.245 2.365
684.787 2.385 2.335 2.275 2.255 2.255 2.175 2.075 1.965 2.045 2.015
704.077 1.935 1.985 2.135 2.235 2.105 2.055 2.215 2.205 1.975 1.985
723.367 2.145 2.105 1.925 1.985 2.095 2.045 2.065 2.265 2.515 2.905
742.657 3.325 3.815 4.405 4.885 5.045 4.685 4.065 3.345 2.835 2.505
761.947 2.125 1.845 1.715 1.595 1.485 1.505 1.375 1.355 1.515 1.345
781.236 1.1642 1.1064 1.1546 1.218 1.1251 1.0475 0.9856 1.0457 1.099 1.0163
800.526 1.0296 1.1173 1.1655 1.1553 1.1303 1.1115 1.2525 1.2995 1.281 1.725
819.816 2.235 2.245 2.475 2.765 3.005 3.415 3.725 4.415 5.275 6.225
839.106 7.515 8.805 10.035 10.775 10.755 10.315 9.985 10.385 11.175 11.955
858.395 12.465 11.965 10.545 8.805 7.005 5.445 4.335 3.565 3.115 2.845
877.685 2.515 2.275 2.115 2.045 1.815 1.705 1.695 1.545 1.495 1.585
896.975 1.615 1.635 1.745 1.715 1.715 1.655 1.605 1.675 1.635 1.595
916.265 1.645 1.675 1.605 1.585 1.635 1.605 1.705 1.845 1.765 1.765
935.555 1.935 1.935 1.915 2.035 2.105 2.165 2.155 2.285 2.415 2.395
954.844 2.375 2.385 2.485 2.465 2.495 2.695 2.755 2.825 2.985 3.095
974.134 3.265 3.305 3.345 3.455 3.715 4.035 4.115 4.205 4.405 4.445
993.424 4.605 4.995 5.365 5.635 5.905 6.205 6.425 6.705 6.895 7.055
1012.714 7.335 7.485 7.645 7.805 7.885 7.815 7.715 7.725 7.625 7.665
1032.003 7.495 7.035 6.805 6.735 6.535 6.035 5.875 5.725 5.355 5.215
1051.293 4.975 4.655 4.405 4.585 4.495 3.925 3.945 3.815 3.585 3.575
1070.583 3.445 3.445 3.295 3.165 3.145 3.205 3.265 2.805 2.785 3.475
1089.873 3.895 3.795 4.075 4.545 4.485 4.795 5.505 6.695 8.305 10.005
1109.163 11.155 11.745 11.745 10.795 8.935 6.915 5.525 4.275 3.145 2.615
1128.452 2.415 2.235 2.135 1.725 1.2866 1.455 1.845 1.865 1.765 1.905
1147.742 2.375 2.615 2.745 2.755 3.355 4.495 5.565 7.115 8.935 10.955
1167.032 12.755 13.615 12.845 11.005 9.115 7.585 6.185 5.255 4.815 4.555
1186.322 4.585 4.445 4.085 3.715 3.775 3.815 4.085 4.375 4.335 4.475
1205.611 4.965 5.545 6.255 6.805 7.255 8.025 8.735 9.545 10.425 11.055
1224.901 12.065 13.905 15.585 17.075 18.725 20.705 23.045 25.515 28.315 31.525
1244.191 34.855 38.175 41.435 44.345 46.465 47.235 46.275 43.635 39.745 34.885
1263.481 29.675 25.055 21.195 18.045 15.535 13.645 12.095 11.055 10.375 9.795
1282.771 9.775 10.045 10.455 11.295 12.415 13.425 13.975 13.905 13.175 12.105
1302.060 11.055 10.245 9.695 9.395 9.365 9.525 9.885 10.515 11.325 12.165
1321.350 12.895 13.375 13.705 13.995 14.515 15.625 17.375 19.815 23.085 27.285
1340.640 32.425 38.085 43.565 47.705 49.085 47.065 42.075 35.555 29.145 23.835
1359.930 19.835 16.825 14.605 12.955 11.625 10.535 9.615 8.855 8.165 7.605
1379.219 7.195 6.855 6.585 6.385 6.125 5.775 5.385 4.985 4.545 4.095
1398.509 3.755 3.475 3.245 3.095 2.965 2.885 2.875 2.865 2.885 2.915
1417.799 2.925 3.035 3.145 3.235 3.335 3.465 3.645 3.895 4.185 4.475
1437.089 4.865 5.235 5.625 6.045 6.475 6.945 7.475 7.995 8.565 9.105
1456.378 9.635 10.255 10.815 11.325 11.835 12.445 13.165 13.755 13.985 13.775
1475.668 13.105 12.245 11.495 11.055 11.215 12.115 13.855 16.455 19.855 23.715
1494.958 27.185 29.225 28.695 25.675 21.385 17.315 14.165 12.375 11.555 11.345
1514.248 11.675 12.415 13.625 15.055 16.885 18.975 21.425 24.095 26.655 28.795
1533.538 30.045 30.045 28.705 26.145 23.055 20.035 17.275 14.975 13.095 11.525
1552.827 10.325 9.275 8.455 7.765 7.225 6.885 6.675 6.545 6.595 6.835
1572.117 7.195 7.815 8.785 10.165 11.815 13.985 16.755 19.975 23.645 27.365
1591.407 30.585 32.645 32.915 31.455 28.615 25.145 21.955 19.415 17.625 16.255
1610.697 14.875 13.405 11.805 10.025 8.325 6.875 5.685 4.755 4.085 3.585
1629.986 3.205 2.915 2.595 2.345 2.165 2.025 1.955 1.895 1.815 1.745
1649.276 1.715 1.595 1.445 1.395 1.405 1.395 1.325 1.1878 1.0692 1.0821
1668.566 1.1198 1.0714 1.0385 0.9761 0.923 0.9608 0.9464 0.9239 0.9219 0.9179
1687.856 0.944 0.9633 0.9334 0.8262 0.7945 0.7715 0.6899 0.7088 0.7596 0.7799
1707.146 0.7939 0.8028 0.7455 0.6831 0.7043 0.7093 0.7308 0.7466 0.769 0.7846
1726.435 0.8302 0.8612 0.785 0.7463 0.7136 0.7884 0.9025 0.8636 0.8996 0.9298
1745.725 0.8919 0.9382 0.9878 1.0004 1.0317 1.0669 1.0457 1.0181 0.989 0.9923
1765.015 0.9867 0.9137 0.8258 0.779 0.7392 0.7679 0.801 0.7672 0.7716 0.7428
1784.305 0.7501 0.7647 0.7585 0.804 0.7562 0.6934 0.658 0.635 0.6479 0.6518
1803.594 0.7317 0.7507 0.6732 0.6329 0.6731 0.6928 0.6648 0.6761 0.6423 0.6014
1822.884 0.6386 0.6965 0.7093 0.691 0.6493 0.6135 0.6025 0.5928 0.6238 0.6162
1842.174 0.5851 0.5941 0.5951 0.6052 0.5983 0.58 0.606 0.6277 0.6318 0.6584
1861.464 0.6465 0.6753 0.7529 0.7576 0.7765 0.8032 0.8207 0.8361 0.7916 0.7929
1880.754 0.854 0.865 0.8778 0.9138 0.9553 0.9912 1.0118 1.0582 1.0825 1.0686
1900.043 1.0569 1.0626 1.0678 1.0533 1.0499 1.0557 0.9744 0.9517 0.9468 0.9206
1919.333 0.9248 0.8676 0.836 0.8219 0.8106 0.7658 0.7272 0.7143 0.6942 0.7048
1938.623 0.708 0.7091 0.7367 0.7248 0.7042 0.683 0.6639 0.6819 0.7138 0.7614
1957.913 0.7795 0.7621 0.7233 0.7435 0.8002 0.7835 0.7386 0.7495 0.7764 0.8038
1977.202 0.8138 0.767 0.7775 0.8088 0.7606 0.7162 0.7276 0.735 0.7241 0.7158
1996.492 0.7449 0.8013 0.8386 0.8653 0.893 0.8862 0.911 0.9331 0.8924 0.947
2015.782 0.9723 0.9351 0.9368 0.9429 0.91 0.9139 0.9647 0.99 0.9646 0.931
2035.072 0.9372 0.9393 0.9761 0.9612 0.8919 0.8514 0.8828 0.9106 0.858 0.8628
2054.362 0.8634 0.8527 0.8371 0.7849 0.8059 0.837 0.8289 0.8257 0.8005 0.8127
2073.651 0.8151 0.7766 0.7272 0.707 0.7561 0.7583 0.7243 0.7004 0.6845 0.6977
2092.941 0.7006 0.6674 0.7011 0.7241 0.6874 0.7085 0.7932 0.8011 0.7718 0.7969
2112.231 0.7902 0.7666 0.7553 0.7588 0.7778 0.7827 0.7532 0.7244 0.7025 0.6751
2131.521 0.6993 0.6893 0.6288 0.5989 0.618 0.6447 0.5903 0.5645 0.5908 0.6002
2150.810 0.6036 0.5946 0.5998 0.5888 0.6211 0.6563 0.6205 0.5912 0.5748 0.5807
2170.100 0.5648 0.5479 0.559 0.5842 0.5995 0.5419 0.5423 0.6184 0.6417 0.6378
2189.390 0.6235 0.6124 0.6001 0.6123 0.6214 0.5959 0.6277 0.6628 0.6366 0.6351
2208.680 0.6111 0.6109 0.6944 0.6868 0.6442 0.6195 0.5933 0.6164 0.5848 0.58
2227.970 0.6009 0.5542 0.5299 0.5632 0.6137 0.6213 0.5772 0.5948 0.6196 0.6392
2247.259 0.6348 0.5937 0.5557 0.5513 0.6189 0.662 0.7 0.7058 0.7258 0.7381
2266.549 0.7159 0.7041 0.6919 0.6923 0.7175 0.7578 0.7762 0.7074 0.6866 0.6698
2285.839 0.6163 0.614 0.6153 0.614 0.6101 0.6251 0.6211 0.655 0.7292 0.7091
2305.129 0.6402 0.6164 0.6148 0.6139 0.6399 0.6464 0.6081 0.6028 0.6441 0.6612
2324.418 0.6496 0.6098 0.5633 0.5762 0.6061 0.6435 0.6478 0.6199 0.5706 0.5852
2343.708 0.629 0.665 0.7195 0.7587 0.7186 0.6979 0.6892 0.6598 0.7101 0.7143
2362.998 0.7355 0.7082 0.6779 0.7481 0.7506 0.6985 0.6824 0.7533 0.8268 0.7889
2382.288 0.7556 0.753 0.7455 0.739 0.7623 0.7857 0.7047 0.6409 0.6684 0.7421
2401.578 0.7809 0.7752 0.781 0.7928 0.7763 0.7798 0.7669 0.7354 0.7856 0.8
2420.867 0.7361 0.7314 0.7479 0.7776 0.8129 0.8284 0.8644 0.885 0.8366 0.8023
2440.157 0.8527 0.8613 0.9118 0.9515 0.9316 0.9842 1.0793 1.1239 1.128 1.1536
2459.447 1.145 1.105 1.0984 1.0204 0.9275 0.9437 0.9878 0.9672 0.9181 0.8745
2478.737 0.8796 0.8506 0.8384 0.8928 0.8924 0.9193 1.0108 1.0036 0.9261 0.9242
2498.026 0.9328 0.972 0.9978 0.9646 0.9284 0.9336 0.9166 0.8807 0.8545 0.8142
2517.316 0.8266 0.9148 0.953 0.934 0.9488 1.0081 1.0068 0.9688 0.922 0.9766
2536.606 1.0457 1.0174 1.0124 0.9642 0.9815 1.0179 1.0068 1.0515 1.135 1.1158
2555.896 1.0768 1.0682 1.028 1.0627 1.0801 1.1204 1.1305 1.0768 1.1164 1.1508
2575.186 1.1647 1.21 1.1756 1.1743 1.1436 1.0542 1.0049 1.041 1.106 1.1182
2594.475 1.1628 1.1484 1.1157 1.122 1.0855 1.0329 1.1149 1.1896 1.1345 1.1507
2613.765 1.1753 1.1602 1.1981 1.16 1.1735 1.2525 1.2265 1.1837 1.1901 1.2035
2633.055 1.2446 1.2736 1.2909 1.315 1.315 1.315 1.315 1.315 1.2659 1.2466
2652.345 1.2817 1.2814 1.2448 1.2257 1.2057 1.2595 1.325 1.325 1.345 1.375
2671.634 1.325 1.385 1.475 1.445 1.455 1.405 1.375 1.425 1.475 1.455
2690.924 1.415 1.475 1.485 1.465 1.395 1.335 1.355 1.375 1.365 1.375
2710.214 1.385 1.335 1.365 1.365 1.2736 1.305 1.2896 1.335 1.375 1.2946
2729.504 1.315 1.325 1.365 1.415 1.455 1.505 1.495 1.475 1.535 1.605
2748.794 1.545 1.535 1.615 1.675 1.645 1.665 1.715 1.665 1.575 1.615
2768.083 1.715 1.685 1.665 1.705 1.775 1.855 1.825 1.775 1.865 1.995
2787.373 2.055 2.105 2.195 2.315 2.315 2.355 2.495 2.595 2.655 2.665
2806.663 2.785 2.965 3.045 3.125 3.215 3.365 3.495 3.625 3.925 4.285
2825.953 4.555 4.765 5.015 5.295 5.645 6.165 6.785 7.425 8.225 9.215
2845.242 10.515 12.145 14.125 16.615 19.705 23.285 27.065 30.565 33.135 34.415
2864.532 34.255 32.855 30.735 28.355 26.095 24.085 22.455 21.225 20.245 19.515
2883.822 18.935 18.415 17.955 17.785 17.895 18.145 18.705 19.485 20.505 21.905
2903.112 23.525 25.375 27.505 29.915 32.605 35.575 38.975 43.085 48.065 53.925
2922.401 60.695 68.295 76.285 83.695 89.225 91.995 91.585 88.445 83.215 76.695
2941.691 69.785 62.835 56.245 50.185 44.705 39.915 36.005 32.775 30.065 28.035
2960.981 26.565 25.575 24.655 23.565 22.425 20.935 19.055 17.095 15.125 13.195
2980.271 11.575 10.275 9.205 8.265 7.415 6.685 6.035 5.565 5.155 4.715
2999.561 4.445 4.175 3.865 3.625 3.465 3.335 3.185 3.035 2.915 2.785
3018.850 2.685 2.635 2.445 2.275 2.245 2.145 2.095 2.095 2.015 1.915
3038.140 1.835 1.795 1.795 1.755 1.755 1.795 1.775 1.695 1.645 1.675
3057.430 1.655 1.645 1.695 1.685 1.655 1.695 1.775 1.685 1.655 1.745
3076.720 1.775 1.865 1.985 2.055 2.165 2.305 2.425 2.475 2.435 2.185
3096.009 1.905 1.725 1.495 1.345 1.3047 1.2333 1.1067 1.0323 0.9557 0.9809
3115.299 0.9982 0.9792 0.9646 0.9853 1.0106 0.9564 0.9017 0.7963 0.7957 0.8366
3134.589 0.7223 0.6248 0.6558 0.6945 0.707 0.7225 0.7285 0.7409 0.7645 0.7265
3153.879 0.701 0.7556 0.8046 0.8253 0.7676 0.7055 0.718 0.708 0.6106 0.5782
3173.169 0.7059 0.7346 0.6785 0.7074 0.6941 0.6448 0.6561 0.7254 0.7934 0.7492
3192.458 0.5512 0.5421 0.7268 0.7457 0.6379 0.7191 0.823 0.7457 0.7328 0.6642
3211.748 0.6766 0.7407 0.6665 0.6937 0.7047 0.6724 0.6809 0.6316 0.6118 0.6323
3231.038 0.5485 0.472 0.4907 0.4525 0.4625 0.5195 0.5761 0.5474 0.421 0.35896
3250.328 0.35714 0.4432 0.4804 0.4373 0.4725 0.4724 0.38842 0.38536 0.4692 0.4978
3269.617 0.4481 0.4827 0.4918 0.4724 0.5071 0.4791 0.4388 0.35924 0.2933 0.4252
3288.907 0.5213 0.4562 0.473 0.4744 0.4553 0.4325 0.4441 0.4996 0.4503 0.37993
3308.197 0.409 0.4137 0.37567 0.36446 0.37928 0.33677 0.306293 0.37326 0.36651 0.39122
3327.487 0.4208 0.4332 0.4548 0.4378 0.4833 0.5315 0.3958 0.32136 0.4464 0.5619
3346.777 0.6144 0.6288 0.6705 0.597 0.5019 0.4379 0.33773 0.33578 0.35524 0.31771
3366.066 0.419 0.5387 0.4177 0.37643 0.36971 0.31679 0.34002 0.4293 0.431 0.34038
3385.356 0.4202 0.485 0.4738 0.4797 0.512 0.4942 0.4805 0.5121 0.468 0.43
3404.646 0.4218 0.3981 0.40417 0.4392 0.37162 0.37523 0.4227 0.4621 0.4668 0.4463
3423.936 0.38222 0.31799 0.37631 0.4474 0.4138 0.34696 0.38383 0.5127 0.5366 0.434
3443.225 0.38102 0.36199 0.40262 0.37695 0.32787 0.34701 0.2919 0.33356 0.4237 0.4399
3462.515 0.4765 0.422 0.39142 0.4694 0.5006 0.4712 0.33498 0.310505 0.4438 0.485
3481.805 0.4954 0.40389 0.32793 0.35713 0.4087 0.39526 0.32431 0.33732 0.37767 0.4081
3501.095 0.38831 0.36451 0.32815 0.38399 0.4983 0.4443 0.4052 0.4176 0.4331 0.39866
3520.385 0.38913 0.4147 0.4469 0.5135 0.30053 0.201 0.3858 0.4828 0.5116 0.4123
3539.674 0.37302 0.37412 0.34421 0.32429 0.3213 0.39393 0.37669 0.34586 0.4636 0.4662
3558.964 0.37116 0.32735 0.4087 0.512 0.3772 0.2632 0.37168 0.5018 0.4223 0.35089
3578.254 0.4197 0.4202 0.4297 0.4242 0.36928 0.4225 0.5271 0.5611 0.4204 0.3285
3597.544 0.41 0.4749 0.4554 0.4302 0.446 0.477 0.4572 0.4275 0.4078 0.39402
3616.833 0.5641 0.6289 0.5405 0.5273 0.4522 0.4158 0.438 0.4909 0.4998 0.4274
3636.123 0.4357 0.40245 0.4579 0.5173 0.5026 0.4571 0.312058 0.4155 0.4192 0.3192
3655.413 0.38367 0.35658 0.38296 0.4632 0.5545 0.559 0.5289 0.5158 0.4281 0.4052
3674.703 0.36558 0.4728 0.6502 0.549 0.4682 0.4943 0.4347 0.36619 0.5244 0.6029
3693.993 0.4675 0.4864 0.541 0.5459 0.6 0.5577 0.5166 0.6497 0.6993 0.615
3713.282 0.5115 0.4458 0.4823 0.5036 0.492 0.4509 0.426 0.4647 0.5226 0.5042
3732.572 0.4612 0.4489 0.484 0.5213 0.5211 0.5538 0.5182 0.5164 0.4755 0.4069
3751.862 0.4261 0.4768 0.5033 0.493 0.4823 0.35559 0.418 0.496 0.35853 0.4016
3771.152 0.3468 0.2606 0.3913 0.4093 0.38436 0.4849 0.4728 0.4244 0.5291 0.4949
3790.441 0.38932 0.4121 0.4166 0.4122 0.4483 0.4806 0.4865 0.498 0.51 0.5204
3809.731 0.467 0.5044 0.5206 0.4191 0.4274 0.517 0.4782 0.4866 0.5841 0.5378
3829.021 0.5541 0.5602 0.5026 0.5086 0.5553 0.4509 0.34089 0.37811 0.4277 0.5032
3848.311 0.4657 0.294 0.306503 0.32014 0.409 0.5886 0.448 0.35967 0.4921 0.5088
3867.601 0.5021 0.4662 0.4737 0.5565 0.5453 0.5522 0.5593 0.5734 0.5751 0.5377
3886.890 0.5537 0.5372 0.5012 0.5021 0.5268 0.5441 0.4411 0.4848 0.6211 0.6941
3906.180 0.5483 0.34577 0.4311 0.4777 0.4431 0.4705 0.4548 0.36339 0.36347 0.4151
3925.470 0.38544 0.4483 0.5787 0.6248 0.5375 0.39521 0.35626 0.37826 0.5203 0.6131
3944.760 0.5349 0.5124 0.4694 0.40142 0.2888 0.36449 0.4549 0.5028 0.6175 0.5757
3964.049 0.5379 0.462 0.5269 0.5872 0.5248 0.4929 0.5137 0.6356 0.6296 0.5532
3983.339 0.5916 0.6346 0.5355 0.37721 0.39564 0.5157 0.471 0.4779 0.5756 0.6109
##END=
