##TITLE=3-Tridecanol
##JCAMP-DX=4.24
##DATA TYPE=INFRARED SPECTRUM
##ORIGIN=NIST Mass Spectrometry Data Center
##OWNER=NIST Standard Reference Data Program
Collection (C) 2018 copyright by the U.S. Secretary of Commerce
on behalf of the United States of America. All rights reserved.
##CAS REGISTRY NO=10289-68-6
##MOLFORM=C 13 H 28 O
##$NIST SOURCE=MSDC-IR
##SPECTROMETER/DATA SYSTEM=HP-GC/MS/IRD
##STATE=gas
##XUNITS=1/CM
##YUNITS=ABSORBANCE
##XFACTOR=1.0
##YFACTOR=0.000004800
##DELTAX=4.0
##FIRSTX=550.0
##LASTX=3846.0
##FIRSTY=0.000850
##MAXX=3846
##MINX=550
##MAXY=0.048
##MINY=0
##NPOINTS=825
##XYDATA=(X++(Y..Y))
550.0 177 103 71 87 58 64 74 57 65 67
590.0 66 53 51 54 32 26 35 36 37 40
630.0 44 41 29 24 35 38 10 8 37 43
670.0 25 23 40 49 43 29 54 81 75 92
710.0 126 128 118 139 142 124 123 118 102 97
750.0 102 81 81 100 93 99 105 83 83 92
790.0 83 83 79 74 87 80 73 79 99 101
830.0 83 83 81 85 89 91 100 108 111 118
870.0 125 124 128 135 137 144 156 157 165 172
910.0 170 183 199 213 234 246 265 300 341 381
950.0 414 463 518 572 614 625 612 590 568 550
990.0 535 524 519 512 497 482 463 441 423 410
1030.0 402 390 380 366 349 333 322 320 322 320
1070.0 319 326 327 328 332 341 361 384 404 407
1110.0 401 396 389 384 384 377 349 312 274 246
1150.0 233 216 208 206 204 203 205 206 208 215
1190.0 223 236 250 266 280 299 319 331 349 355
1230.0 348 341 335 329 323 314 303 301 295 301
1270.0 305 299 290 285 296 308 306 306 305 309
1310.0 317 322 314 296 289 291 329 405 414 408
1350.0 440 474 523 568 541 537 564 561 558 566
1390.0 533 496 452 369 318 278 279 324 299 278
1430.0 306 394 460 487 593 694 857 967 927 869
1470.0 796 685 493 347 302 270 214 188 175 258
1510.0 270 190 189 187 140 106 105 142 169 126
1550.0 92 113 161 95 39 41 42 40 12 8
1590.0 12 11 13 17 17 19 32 43 40 33
1630.0 31 61 55 52 80 117 129 72 54 64
1670.0 78 83 82 122 118 66 93 147 130 83
1710.0 65 116 140 83 65 114 146 101 77 93
1750.0 115 92 72 62 73 92 66 47 60 57
1790.0 65 65 57 61 34 30 33 30 36 47
1830.0 41 24 22 51 57 24 9 19 25 35
1870.0 35 15 13 10 11 21 19 12 7 12
1910.0 12 13 27 27 12 7 7 8 18 11
1950.0 2 6 5 4 11 7 3 4 2 6
1990.0 17 13 5 3 6 6 12 17 16 14
2030.0 11 11 12 14 11 7 5 7 9 8
2070.0 7 7 6 3 6 9 4 4 6 2
2110.0 0 1 4 5 1 3 10 12 10 9
2150.0 9 6 4 6 4 4 5 6 4 3
2190.0 3 1 4 7 6 5 3 2 3 2
2230.0 5 3 1 3 6 7 6 4 6 8
2270.0 7 6 4 3 4 11 11 6 9 13
2310.0 13 13 15 14 15 12 8 10 7 8
2350.0 9 7 9 9 7 9 9 9 11 11
2390.0 9 7 9 9 7 7 6 4 5 10
2430.0 9 6 8 7 4 8 8 4 4 3
2470.0 3 5 4 1 5 9 9 6 7 11
2510.0 11 9 12 13 13 16 18 19 20 17
2550.0 19 20 22 26 28 26 28 33 33 35
2590.0 37 39 44 50 53 54 53 54 60 63
2630.0 65 65 70 77 79 79 83 90 92 95
2670.0 97 99 108 107 106 108 107 105 103 104
2710.0 104 101 104 110 113 120 127 135 141 140
2750.0 144 147 149 153 157 160 169 183 197 216
2790.0 232 253 275 291 320 355 395 441 490 557
2830.0 646 760 919 1148 1480 1965 2592 3235 3679 3779
2870.0 3592 3297 3048 2887 2772 2685 2663 2774 3052 3475
2910.0 4041 4784 5784 7086 8522 9645 10000 9478 8327 6922
2950.0 5621 4671 4154 3999 4005 3872 3426 2776 2143 1641
2990.0 1277 1015 824 687 583 505 443 386 349 322
3030.0 296 272 244 224 212 196 180 167 162 154
3070.0 145 144 135 126 123 113 104 97 93 93
3110.0 87 76 77 75 68 71 69 68 66 61
3150.0 63 61 56 56 56 50 46 50 55 46
3190.0 36 39 36 34 35 33 34 29 21 20
3230.0 20 18 16 15 18 18 20 19 16 14
3270.0 10 10 13 13 8 8 8 5 5 4
3310.0 2 3 12 13 6 7 6 4 7 7
3350.0 6 9 14 14 10 11 16 17 16 15
3390.0 18 22 19 16 13 11 16 23 24 25
3430.0 19 15 25 24 25 18 13 23 22 16
3470.0 15 11 14 22 17 15 14 24 39 35
3510.0 25 14 16 37 48 26 18 18 34 64
3550.0 39 22 27 48 97 69 17 22 40 90
3590.0 91 60 49 36 76 111 105 109 92 143
3630.0 184 129 132 171 256 316 296 268 216 187
3670.0 182 165 117 68 75 76 38 31 36 32
3710.0 63 63 40 71 81 62 113 99 94 116
3750.0 87 55 24 18 24 24 12 13 7 4
3790.0 3 3 24 38 27 7 17 47 49 31
3830.0 31 54 65 49 25
##END=
