##TITLE=2-Methyl-2-nonanol
##JCAMP-DX=4.24
##DATA TYPE=INFRARED SPECTRUM
##ORIGIN=NIST Mass Spectrometry Data Center
##OWNER=NIST Standard Reference Data Program
Collection (C) 2018 copyright by the U.S. Secretary of Commerce
on behalf of the United States of America. All rights reserved.
##CAS REGISTRY NO=10297-57-1
##MOLFORM=C 10 H 22 O
##$NIST SOURCE=MSDC-IR
##SPECTROMETER/DATA SYSTEM=HP-GC/MS/IRD
##STATE=gas
##XUNITS=1/CM
##YUNITS=ABSORBANCE
##XFACTOR=1.0
##YFACTOR=0.000003500
##DELTAX=4.0
##FIRSTX=550.0
##LASTX=3846.0
##FIRSTY=0.000847
##MAXX=3846
##MINX=550
##MAXY=0.035
##MINY=0
##NPOINTS=825
##XYDATA=(X++(Y..Y))
550.0 242 134 78 66 56 47 31 51 68 66
590.0 39 30 32 24 8 1 17 11 10 21
630.0 35 31 24 30 27 39 49 34 37 58
670.0 51 27 23 36 58 64 58 79 113 125
710.0 131 144 159 170 172 161 150 155 168 172
750.0 159 161 163 158 172 172 151 139 130 110
790.0 101 101 101 92 91 98 94 101 145 152
830.0 105 96 106 113 120 124 127 142 161 182
870.0 207 243 288 353 438 529 639 751 848 891
910.0 854 780 716 677 653 639 630 613 592 562
950.0 523 482 435 384 335 298 261 231 203 179
990.0 163 153 157 159 153 160 163 169 185 204
1030.0 210 208 218 224 230 242 262 284 311 352
1070.0 399 444 482 522 569 622 659 698 722 732
1110.0 756 792 837 894 966 1031 1091 1139 1188 1232
1150.0 1261 1283 1278 1238 1165 1069 987 937 914 906
1190.0 919 936 961 999 1029 1035 1021 999 972 934
1230.0 889 850 809 771 746 730 718 703 683 668
1270.0 657 656 658 655 651 647 654 663 668 673
1310.0 680 683 684 688 697 704 724 754 767 790
1350.0 834 906 1024 1186 1355 1490 1561 1568 1502 1356
1390.0 1117 850 632 488 401 353 336 332 331 345
1430.0 374 421 494 580 687 804 936 1054 1114 1112
1470.0 1049 915 745 584 454 351 279 229 196 180
1510.0 159 134 121 114 110 100 87 79 78 72
1550.0 64 62 62 56 45 38 39 42 48 52
1590.0 40 39 41 43 40 38 39 41 41 34
1630.0 32 38 39 38 44 51 47 37 38 32
1670.0 31 32 33 35 30 26 26 32 31 22
1710.0 20 26 28 25 20 20 21 20 18 16
1750.0 19 18 15 12 13 19 18 18 16 15
1790.0 14 16 21 22 17 16 14 12 11 14
1830.0 17 15 14 15 17 17 14 13 16 12
1870.0 7 11 14 7 4 10 9 7 6 7
1910.0 4 6 11 6 2 0 2 7 8 3
1950.0 0 0 1 2 5 3 0 0 2 5
1990.0 8 6 7 9 8 9 6 11 15 17
2030.0 16 17 16 13 14 11 7 8 8 11
2070.0 11 10 12 9 6 5 6 8 9 7
2110.0 6 10 10 5 4 8 12 5 4 7
2150.0 7 6 5 9 12 9 6 6 8 8
2190.0 8 6 3 4 5 6 3 3 1 0
2230.0 2 4 2 6 11 11 10 8 9 11
2270.0 10 11 15 16 14 17 17 15 18 16
2310.0 15 15 16 15 12 10 7 7 11 18
2350.0 14 12 11 10 10 7 11 15 11 11
2390.0 12 11 13 13 11 7 7 5 8 7
2430.0 3 2 0 1 0 2 9 11 9 3
2470.0 0 2 4 7 8 12 11 5 3 4
2510.0 7 11 12 11 12 18 20 18 24 23
2550.0 19 22 25 22 25 33 31 33 37 36
2590.0 38 46 44 47 54 48 44 49 58 65
2630.0 68 67 66 69 68 72 86 91 87 97
2670.0 98 96 103 99 96 98 99 96 96 103
2710.0 107 111 118 120 126 135 140 148 152 154
2750.0 163 165 163 167 163 168 183 190 208 234
2790.0 259 280 302 326 362 406 449 500 565 641
2830.0 734 855 1025 1265 1591 2021 2542 3055 3455 3674
2870.0 3709 3636 3538 3435 3330 3240 3250 3414 3715 4157
2910.0 4738 5471 6373 7435 8548 9482 10000 9967 9383 8436
2950.0 7430 6692 6435 6642 7042 7248 7014 6293 5251 4101
2990.0 3041 2206 1625 1243 984 797 661 564 488 433
3030.0 392 354 321 293 273 262 247 228 214 203
3070.0 197 196 195 183 176 167 148 146 144 137
3110.0 133 123 113 113 113 103 92 90 89 83
3150.0 86 87 83 84 87 91 87 79 79 79
3190.0 83 78 71 68 60 57 56 60 59 48
3230.0 41 44 45 37 36 38 29 26 29 19
3270.0 8 9 9 11 8 3 8 13 13 17
3310.0 11 19 34 26 13 9 10 9 13 20
3350.0 17 18 21 13 10 20 26 25 20 13
3390.0 21 25 23 20 21 23 22 31 34 32
3430.0 32 20 14 15 7 7 14 16 18 18
3470.0 16 8 6 10 9 10 6 5 9 9
3510.0 10 16 11 4 6 5 5 6 9 9
3550.0 3 3 2 5 7 1 2 11 16 23
3590.0 28 28 26 33 39 52 76 95 127 183
3630.0 255 329 386 401 372 308 236 172 123 89
3670.0 69 64 56 47 44 32 20 23 27 27
3710.0 32 36 31 30 30 30 45 37 30 36
3750.0 34 37 39 36 40 33 23 26 35 34
3790.0 35 42 44 37 41 43 41 45 44 50
3830.0 55 51 48 50 43
##END=
