##TITLE=.alpha.-Methyl-p-isopropylhydrocinammic aldheyde
##JCAMP-DX=4.24
##DATA TYPE=INFRARED SPECTRUM
##ORIGIN=EPA-IR VAPOR PHASE LIBRARY
##OWNER=SRD/NIST
Collection (C) 2018 copyright by the U.S. Secretary of Commerce
on behalf of the United States of America. All rights reserved.
##CAS REGISTRY NO=103-95-7
##MOLFORM=C 13 H 18 O
##$NIST SOURCE=MSDC-IR
##STATE=gas
##XUNITS=1/CM
##YUNITS=ABSORBANCE
##XFACTOR=1.
##YFACTOR=0.001
##DELTAX=1.92898
##FIRSTX=549.8
##LASTX=4000.7
##FIRSTY=6.826
##MAXX=4000.7
##MINX=549.759
##MAXY=0.110636
##MINY=0
##NPOINTS=1790
##XYDATA=(X++(Y..Y))
549.759 6.826 7.116 7.056 7.146 7.336 7.346 7.226 7.146 6.966 6.816
569.049 6.696 6.436 6.376 6.186 5.736 5.566 5.466 5.126 4.886 4.606
588.339 4.306 4.096 3.856 3.676 3.496 3.356 3.246 2.976 2.646 2.506
607.628 2.456 2.286 2.176 2.106 2.086 2.126 2.006 1.866 1.886 1.956
626.918 2.096 2.156 1.986 1.946 1.946 1.936 1.876 1.786 1.766 1.876
646.208 1.906 1.836 1.766 1.606 1.606 1.696 1.596 1.516 1.486 1.386
665.498 1.376 1.386 1.246 1.196 1.236 1.122 1.0731 1.0834 1.1028 1.1828
684.787 1.226 1.276 1.346 1.366 1.466 1.586 1.646 1.656 1.676 1.696
704.077 1.706 1.646 1.426 1.356 1.466 1.426 1.336 1.276 1.256 1.216
723.367 1.1022 1.0481 1.0937 1.1031 1.1816 1.276 1.286 1.356 1.406 1.376
742.657 1.366 1.326 1.276 1.346 1.346 1.306 1.276 1.226 1.226 1.306
761.947 1.456 1.546 1.736 1.976 2.216 2.536 2.776 3.056 3.376 3.776
781.236 4.206 4.636 5.206 5.826 6.426 7.036 7.566 7.906 8.316 8.786
800.526 9.126 9.376 9.486 9.536 9.676 9.966 10.286 10.636 11.006 11.606
819.816 12.316 12.926 13.536 14.266 14.986 15.586 16.066 16.466 16.716 16.696
839.106 16.386 15.806 15.026 14.096 13.046 11.936 10.846 9.846 8.866 8.036
858.395 7.386 6.746 6.236 5.906 5.686 5.626 5.586 5.556 5.576 5.596
877.685 5.636 5.706 5.776 5.796 5.846 5.846 5.766 5.776 5.846 5.846
896.975 5.856 6.046 6.376 6.696 7.096 7.656 8.376 9.116 9.886 10.746
916.265 11.546 12.176 12.696 12.986 12.756 12.356 11.876 11.086 10.146 9.156
935.555 8.176 7.416 6.826 6.166 5.566 5.136 4.656 4.316 4.076 3.786
954.844 3.516 3.326 3.126 2.886 2.716 2.566 2.426 2.326 2.186 1.966
974.134 1.926 1.866 1.706 1.656 1.696 1.646 1.526 1.466 1.456 1.536
993.424 1.556 1.656 1.666 1.586 1.716 1.846 2.036 2.366 2.856 3.816
1012.714 5.496 7.356 8.356 8.446 8.276 7.796 6.476 4.646 3.286 2.756
1032.003 2.586 2.736 2.856 2.946 3.506 4.246 4.966 5.796 6.566 7.326
1051.293 8.096 8.556 8.786 8.866 8.796 8.646 8.416 8.126 7.756 7.276
1070.583 6.686 6.236 5.966 5.516 5.066 4.906 5.026 5.106 4.886 4.936
1089.873 5.096 5.116 5.236 5.406 5.666 5.926 6.186 6.486 6.906 7.356
1109.163 7.636 7.726 7.776 7.586 7.286 7.066 6.866 6.516 5.996 5.736
1128.452 5.596 5.296 5.016 4.846 4.806 4.716 4.456 4.136 3.806 3.496
1147.742 3.396 3.306 2.946 2.586 2.376 2.286 2.086 1.886 1.856 1.846
1167.032 1.756 1.696 1.736 1.826 1.876 1.906 2.016 2.196 2.326 2.386
1186.322 2.406 2.506 2.666 2.786 2.836 2.816 2.846 2.826 2.806 2.786
1205.611 2.736 2.726 2.596 2.366 2.226 2.026 1.976 2.056 1.936 1.906
1224.901 2.006 2.066 2.156 2.286 2.326 2.356 2.366 2.386 2.276 2.126
1244.191 2.186 2.226 2.206 2.216 2.376 2.546 2.556 2.606 2.726 2.836
1263.481 2.966 3.076 3.226 3.276 3.376 3.566 3.736 3.916 3.986 4.046
1282.771 4.126 4.086 4.016 4.006 4.066 4.186 4.436 4.736 4.986 5.286
1302.060 5.556 5.766 5.896 5.956 5.946 5.916 5.886 5.856 5.856 5.876
1321.350 5.886 5.966 6.106 6.286 6.466 6.646 6.856 7.056 7.186 7.236
1340.640 7.256 7.246 7.176 7.126 7.036 6.886 6.806 6.776 6.796 6.966
1359.930 7.226 7.586 8.106 8.696 9.346 10.066 10.756 11.266 11.576 11.736
1379.219 11.846 11.896 11.816 11.736 11.656 11.526 11.336 10.936 10.306 9.656
1398.509 9.066 8.556 8.176 7.886 7.736 7.716 7.766 7.886 8.026 8.136
1417.799 8.206 8.206 8.186 8.116 7.966 7.786 7.636 7.566 7.626 7.806
1437.089 8.096 8.536 9.056 9.706 10.476 11.236 12.046 12.906 13.796 14.656
1456.378 15.456 16.136 16.566 16.726 16.606 16.236 15.576 14.706 13.726 12.676
1475.668 11.606 10.506 9.516 8.636 7.936 7.446 7.166 7.066 7.136 7.396
1494.958 7.876 8.576 9.596 11.006 12.796 14.916 17.296 19.636 21.436 22.356
1514.248 22.146 20.846 18.576 15.736 12.586 9.866 7.686 6.056 4.896 4.056
1533.538 3.426 2.946 2.606 2.316 2.096 1.926 1.816 1.696 1.536 1.436
1552.827 1.386 1.346 1.306 1.236 1.216 1.206 1.1878 1.1803 1.1922 1.206
1572.117 1.196 1.1929 1.216 1.196 1.1593 1.1363 1.1388 1.1172 1.1073 1.1454
1591.407 1.1675 1.19 1.206 1.226 1.286 1.356 1.376 1.396 1.436 1.506
1610.697 1.566 1.626 1.656 1.706 1.776 1.816 1.846 1.876 1.966 2.036
1629.986 2.056 2.086 2.106 2.116 2.166 2.266 2.326 2.366 2.446 2.576
1649.276 2.676 2.766 2.916 3.086 3.266 3.436 3.626 3.766 3.866 3.996
1668.566 4.096 4.226 4.406 4.526 4.696 4.876 5.046 5.276 5.536 5.896
1687.856 6.316 6.756 7.266 7.816 8.486 9.226 9.966 10.766 11.566 12.386
1707.146 13.236 14.226 15.356 16.656 18.186 20.026 22.256 24.856 28.106 32.046
1726.435 36.826 42.646 49.546 57.316 66.066 74.646 81.406 85.846 87.216 85.396
1745.725 80.466 73.136 64.736 56.356 48.766 42.266 36.516 31.746 27.766 24.496
1765.015 21.826 19.586 17.696 16.156 14.826 13.736 12.786 11.906 11.126 10.366
1784.305 9.586 8.876 8.166 7.406 6.706 6.076 5.536 5.096 4.756 4.456
1803.594 4.146 3.896 3.686 3.486 3.286 3.106 2.936 2.756 2.606 2.496
1822.884 2.406 2.256 2.126 2.046 2.006 1.946 1.836 1.746 1.686 1.626
1842.174 1.596 1.536 1.486 1.446 1.426 1.386 1.316 1.296 1.266 1.226
1861.464 1.206 1.196 1.206 1.216 1.236 1.276 1.306 1.356 1.456 1.546
1880.754 1.656 1.776 1.946 2.126 2.256 2.396 2.516 2.586 2.616 2.576
1900.043 2.476 2.346 2.196 2.006 1.806 1.606 1.446 1.276 1.1451 1.0595
1919.333 0.9614 0.857 0.7805 0.7406 0.7043 0.6864 0.6441 0.6149 0.6202 0.6153
1938.623 0.5792 0.5396 0.5163 0.5046 0.5321 0.5234 0.496 0.5039 0.509 0.5092
1957.913 0.5175 0.5015 0.509 0.4986 0.495 0.5259 0.5243 0.5037 0.4751 0.4728
1977.202 0.4966 0.4716 0.4503 0.4493 0.4561 0.4524 0.4444 0.4542 0.4719 0.4753
1996.492 0.4751 0.4587 0.4201 0.4344 0.46 0.4553 0.451 0.4452 0.4411 0.4412
2015.782 0.4471 0.4356 0.4418 0.4496 0.3936 0.4155 0.4508 0.4206 0.4071 0.4123
2035.072 0.4206 0.4071 0.3857 0.4003 0.4069 0.369 0.3334 0.3406 0.3315 0.3391
2054.362 0.3229 0.3122 0.3363 0.3408 0.3582 0.3575 0.3413 0.3373 0.3358 0.3288
2073.651 0.3488 0.3656 0.3575 0.3675 0.3763 0.3592 0.377 0.3981 0.3585 0.316
2092.941 0.339 0.3347 0.3101 0.28819 0.28486 0.3397 0.3441 0.3369 0.3653 0.3552
2112.231 0.3544 0.3505 0.3042 0.2972 0.2905 0.27378 0.27292 0.27181 0.28276 0.27307
2131.521 0.25193 0.2744 0.28854 0.2966 0.3283 0.3146 0.3146 0.3142 0.28863 0.3025
2150.810 0.3278 0.314 0.2978 0.2989 0.3048 0.3031 0.3018 0.3447 0.3682 0.3386
2170.100 0.3074 0.27869 0.28164 0.2977 0.2924 0.28524 0.27639 0.3287 0.3273 0.28657
2189.390 0.2999 0.3222 0.3035 0.29563 0.3391 0.3336 0.3315 0.3387 0.377 0.3785
2208.680 0.3323 0.3365 0.3121 0.3147 0.3251 0.3138 0.3243 0.3145 0.3137 0.3243
2227.970 0.3233 0.3501 0.3614 0.3811 0.4157 0.39 0.3867 0.3996 0.4035 0.3992
2247.259 0.3968 0.4149 0.417 0.4274 0.4543 0.4925 0.4805 0.4396 0.4704 0.5035
2266.549 0.5315 0.5243 0.4819 0.4788 0.4659 0.4308 0.4042 0.4087 0.4289 0.4452
2285.839 0.4122 0.3797 0.4061 0.4246 0.4436 0.4771 0.4721 0.4459 0.4398 0.4407
2305.129 0.4251 0.4259 0.4525 0.4775 0.5057 0.4857 0.462 0.4633 0.468 0.4845
2324.418 0.5287 0.5344 0.5099 0.518 0.508 0.4857 0.4593 0.4609 0.4326 0.3901
2343.708 0.4069 0.388 0.386 0.4155 0.4069 0.382 0.3823 0.4217 0.4199 0.4396
2362.998 0.4656 0.4153 0.4256 0.4819 0.4753 0.4714 0.4456 0.4256 0.4447 0.5058
2382.288 0.5513 0.5015 0.4328 0.431 0.4326 0.4571 0.514 0.5155 0.5037 0.4671
2401.578 0.4827 0.5143 0.4674 0.4101 0.4093 0.4863 0.516 0.4753 0.4462 0.4144
2420.867 0.4213 0.4379 0.4348 0.4195 0.4112 0.41 0.3762 0.3655 0.356 0.4035
2440.157 0.4338 0.4229 0.4297 0.422 0.4288 0.4228 0.4408 0.4935 0.5218 0.4917
2459.447 0.4769 0.4783 0.4725 0.5114 0.5392 0.5572 0.54 0.5075 0.5331 0.5227
2478.737 0.4862 0.5203 0.5218 0.4827 0.4734 0.4372 0.4275 0.4631 0.5244 0.4929
2498.026 0.4709 0.5106 0.5065 0.5343 0.5487 0.5425 0.5535 0.5649 0.5738 0.5677
2517.316 0.5438 0.533 0.5436 0.5482 0.5986 0.596 0.578 0.6014 0.5596 0.5419
2536.606 0.5701 0.591 0.6395 0.6833 0.677 0.6281 0.6773 0.7684 0.7526 0.7521
2555.896 0.7752 0.8299 0.8675 0.8952 0.9672 0.996 0.9916 1.0073 1.088 1.1624
2575.186 1.1868 1.276 1.356 1.366 1.416 1.516 1.556 1.666 1.726 1.756
2594.475 1.846 1.846 1.866 1.916 1.976 2.046 2.076 2.056 2.136 2.206
2613.765 2.226 2.346 2.416 2.486 2.626 2.716 2.836 3.026 3.146 3.256
2633.055 3.366 3.456 3.646 3.786 3.886 4.026 4.246 4.436 4.626 4.826
2652.345 4.996 5.246 5.466 5.736 6.066 6.356 6.676 7.066 7.496 8.066
2671.634 8.686 9.336 10.056 10.846 11.716 12.646 13.676 14.766 15.886 16.986
2690.924 18.116 19.226 20.246 21.216 21.976 22.476 22.766 22.736 22.336 21.666
2710.214 20.826 19.856 18.766 17.696 16.756 15.936 15.176 14.496 13.946 13.456
2729.504 12.966 12.446 11.946 11.576 11.236 10.866 10.596 10.336 10.056 9.816
2748.794 9.616 9.466 9.286 9.196 9.246 9.276 9.316 9.396 9.536 9.606
2768.083 9.636 9.726 9.816 9.916 10.026 10.176 10.356 10.556 10.836 11.266
2787.373 11.796 12.406 13.126 13.936 14.846 15.756 16.486 16.936 17.086 16.986
2806.663 16.616 15.956 15.196 14.456 13.806 13.196 12.586 12.066 11.636 11.236
2825.953 10.876 10.596 10.386 10.186 10.006 9.996 10.146 10.346 10.606 10.956
2845.242 11.416 12.026 12.756 13.626 14.596 15.616 16.716 17.776 18.886 19.966
2864.532 21.116 22.316 23.676 25.306 27.086 28.976 30.866 32.646 34.076 34.956
2883.822 35.356 35.196 34.536 33.766 32.956 32.296 31.926 31.796 31.856 32.016
2903.112 32.346 32.756 33.306 33.906 34.606 35.526 36.366 37.186 38.176 39.346
2922.401 40.576 41.826 43.106 44.476 45.926 47.386 48.796 50.056 51.046 51.486
2941.691 51.196 50.166 48.746 47.076 45.586 44.886 45.486 47.946 52.796 60.676
2960.981 71.816 84.756 96.226 104.466 109.666 110.636 105.206 94.816 83.606 73.256
2980.271 63.666 55.416 48.666 43.066 38.266 33.986 30.036 26.376 23.236 20.836
2999.561 19.156 18.056 17.396 16.896 16.766 16.996 17.406 18.086 19.076 20.406
3018.850 21.976 23.436 24.376 24.686 24.276 23.016 21.136 18.846 16.586 14.776
3038.140 13.536 12.826 12.326 12.026 11.886 11.926 11.966 11.876 11.806 11.706
3057.430 11.476 11.146 10.756 10.296 9.836 9.396 8.896 8.416 8.046 7.806
3076.720 7.666 7.546 7.466 7.416 7.336 7.216 7.066 6.926 6.726 6.376
3096.009 6.066 5.766 5.386 5.046 4.666 4.276 3.966 3.726 3.596 3.476
3115.299 3.366 3.286 3.206 3.096 3.036 3.056 2.966 2.876 2.866 2.816
3134.589 2.676 2.496 2.366 2.266 2.116 1.966 1.826 1.686 1.676 1.686
3153.879 1.676 1.626 1.596 1.646 1.576 1.566 1.646 1.616 1.576 1.496
3173.169 1.416 1.436 1.506 1.486 1.346 1.326 1.296 1.326 1.356 1.316
3192.458 1.296 1.286 1.316 1.266 1.206 1.1943 1.1498 1.1661 1.206 1.1362
3211.748 1.0409 0.9562 0.8749 0.8621 0.8143 0.7252 0.6921 0.664 0.6388 0.6207
3231.038 0.5853 0.6157 0.6326 0.5779 0.5139 0.4215 0.4254 0.4789 0.4276 0.3386
3250.328 0.3247 0.4221 0.483 0.3871 0.25649 0.22588 0.28368 0.2989 0.2962 0.346
3269.617 0.3964 0.27572 0.2373 0.4015 0.3864 0.3211 0.3611 0.3629 0.356 0.3471
3288.907 0.28662 0.22938 0.25564 0.25082 0.22133 0.24586 0.22631 0.23696 0.3073 0.28249
3308.197 0.23298 0.27544 0.3288 0.3535 0.27833 0.22008 0.27202 0.23544 0.1533 0.200312
3327.487 0.199186 0.18758 0.21285 0.1815 0.1781 0.2336 0.19242 0.1726 0.22415 0.24033
3346.777 0.21894 0.195362 0.26419 0.332 0.28272 0.21235 0.24647 0.1671 0.0993 0.21879
3366.066 0.27027 0.27227 0.2698 0.24593 0.25046 0.23883 0.28218 0.25135 0.202366 0.27769
3385.356 0.3618 0.3089 0.28038 0.4289 0.4594 0.377 0.3459 0.3419 0.415 0.4939
3404.646 0.4573 0.4292 0.4584 0.4536 0.4772 0.5464 0.5605 0.6123 0.6564 0.5864
3423.936 0.6081 0.6252 0.5805 0.6152 0.6361 0.7649 0.9154 0.9487 1.0137 1.0589
3443.225 1.1003 1.1361 1.196 1.336 1.416 1.456 1.516 1.586 1.646 1.646
3462.515 1.646 1.626 1.546 1.516 1.476 1.426 1.326 1.1438 1.1066 1.1539
3481.805 1.0698 0.8865 0.7809 0.824 0.8248 0.7724 0.6978 0.6801 0.6373 0.5525
3501.095 0.5099 0.4413 0.4266 0.3927 0.3705 0.3257 0.3211 0.4141 0.3457 0.27602
3520.385 0.3311 0.3755 0.3907 0.3531 0.308 0.25057 0.19277 0.1612 0.1749 0.1737
3539.674 0.21996 0.3202 0.3165 0.25153 0.1758 0.1676 0.1825 0.2072 0.1935 0.1666
3558.964 0.1375 0.199772 0.3003 0.23575 0.26755 0.21797 0.091 0.091 0.076 0.081
3578.254 0.1068 0.1568 0.20746 0.196949 0.1628 0.1841 0.1576 0.1235 0.1224 0.134
3597.544 0.1669 0.205005 0.24428 0.24829 0.195011 0.07 0.095 0.1048 0.037 0.0987
3616.833 0.1198 0.064 0.1152 0.20998 0.21851 0.1605 0.084 0.1522 0.23807 0.197737
3636.123 0.1819 0.20858 0.1826 0.095 0.083 0.1031 0.066 0.1365 0.2318 0.3007
3655.413 0.26603 0.23641 0.3242 0.29418 0.29516 0.28878 0.2249 0.22177 0.200597 0.19269
3674.703 0.166 0.1631 0.1777 0.1027 0.1577 0.25878 0.22018 0.1485 0.1422 0.24134
3693.993 0.25572 0.22831 0.3009 0.2482 0.1133 0.1195 0.1418 0 0 0.19394
3713.282 0.22555 0.19401 0.20739 0.199466 0.18759 0.21348 0.23812 0.21752 0.205446 0.25184
3732.572 0.21032 0.195308 0.19153 0.1746 0.1505 0.073 0.1356 0.1534 0.1841 0.27426
3751.862 0.29153 0.3125 0.3087 0.3668 0.3431 0.23112 0.1554 0.1455 0.22677 0.27019
3771.152 0.3146 0.26605 0.27512 0.3578 0.3741 0.3539 0.3354 0.2965 0.27459 0.3282
3790.441 0.357 0.3926 0.2709 0.1712 0.237 0.28826 0.3003 0.27813 0.2996 0.28524
3809.731 0.3414 0.4061 0.4234 0.4678 0.3867 0.3049 0.28647 0.29143 0.3183 0.4084
3829.021 0.5416 0.5444 0.4693 0.3267 0.25007 0.3309 0.4304 0.4934 0.4838 0.432
3848.311 0.3467 0.3165 0.3358 0.3016 0.29375 0.3064 0.27556 0.3091 0.3648 0.3578
3867.601 0.23809 0.1779 0.22993 0.28667 0.3621 0.3281 0.25117 0.22607 0.2154 0.20895
3886.890 0.3014 0.3449 0.3527 0.392 0.3448 0.22628 0.24368 0.3079 0.24267 0.1568
3906.180 0.27463 0.3547 0.19306 0.201453 0.26785 0.29394 0.23688 0.1596 0.204357 0.3042
3925.470 0.3386 0.2922 0.29562 0.3417 0.21776 0.1284 0.28825 0.3374 0.27631 0.2637
3944.760 0.27327 0.25236 0.26836 0.3324 0.29335 0.29119 0.23422 0.200333 0.32 0.3669
3964.049 0.4183 0.3446 0.23009 0.198081 0.19489 0.22931 0.196802 0.22888 0.304 0.3741
3983.339 0.4514 0.4334 0.4448 0.4777 0.5497 0.5956 0.5096 0.527 0.5882 0.482
##END=
