##TITLE=.beta.-Phenethyl butyrate
##JCAMP-DX=4.24
##DATA TYPE=INFRARED SPECTRUM
##ORIGIN=EPA-IR VAPOR PHASE LIBRARY
##OWNER=SRD/NIST
Collection (C) 2018 copyright by the U.S. Secretary of Commerce
on behalf of the United States of America. All rights reserved.
##CAS REGISTRY NO=103-52-6
##MOLFORM=C 12 H 16 O 2
##$NIST SOURCE=MSDC-IR
##STATE=gas
##XUNITS=1/CM
##YUNITS=ABSORBANCE
##XFACTOR=1.
##YFACTOR=0.001
##DELTAX=1.92898
##FIRSTX=549.8
##LASTX=4000.7
##FIRSTY=1.7017
##MAXX=4000.7
##MINX=549.759
##MAXY=0.256392
##MINY=0
##NPOINTS=1790
##XYDATA=(X++(Y..Y))
549.759 1.7017 1.8017 2.2417 2.7117 3.3617 4.2617 5.1617 6.1917 6.9717 7.4617
569.049 7.5917 7.2617 6.7717 6.3617 5.7317 5.1617 4.7817 4.6317 4.5917 4.3917
588.339 4.1317 4.0617 4.0417 3.8117 3.8017 3.8017 3.7017 3.6317 3.4917 3.6517
607.628 3.8217 3.6317 3.3917 3.3117 3.2517 3.2317 3.0917 3.0017 3.1217 3.0017
626.918 2.8617 2.9517 3.0117 3.0317 3.0917 3.1317 3.1717 3.1317 3.1017 3.2117
646.208 3.4417 3.6417 3.7217 3.7217 3.7417 4.0417 4.3317 4.6717 5.2217 5.7317
665.498 6.3817 7.2917 8.5217 9.8417 11.3917 13.2117 15.2417 17.6717 20.4717 23.7317
684.787 27.4617 31.7517 36.6617 41.7417 46.3717 49.7817 51.4417 51.1417 49.2117 46.0417
704.077 42.2417 38.6017 35.6517 33.2117 31.0917 29.4917 28.2717 27.2917 26.6417 26.4017
723.367 26.4017 26.7317 27.2917 28.1417 29.4717 31.1917 33.3517 35.6117 37.7117 39.2017
742.657 39.6317 38.8317 36.8217 33.8217 30.4017 26.8617 23.6017 21.0217 18.7117 16.7517
761.947 15.2317 13.8017 12.6417 11.7117 10.7917 9.9317 9.1317 8.4717 8.0717 7.7817
781.236 7.6117 7.4917 7.3717 7.4417 7.6617 7.8117 7.9217 8.2017 8.4417 8.4717
800.526 8.4817 8.5817 8.4717 8.2217 8.1017 7.8517 7.5817 7.4417 7.2617 7.0817
819.816 6.9917 6.9317 6.7817 6.6217 6.3917 6.2317 6.0317 5.8617 5.6717 5.3917
839.106 5.1017 4.8417 4.7217 4.7717 4.8517 4.9217 5.0017 5.0917 5.2417 5.3317
858.395 5.3617 5.5917 5.8717 5.9217 5.9917 6.0817 6.1817 6.3417 6.4317 6.5417
877.685 6.6817 6.8217 7.0817 7.3917 7.6617 7.9617 8.2117 8.3817 8.5117 8.5817
896.975 8.6417 8.7017 8.7217 8.6617 8.7017 8.6917 8.5817 8.4917 8.5117 8.6717
916.265 8.7917 9.0117 9.2017 9.1717 9.1917 9.1517 8.9717 8.7217 8.4317 8.1117
935.555 7.7217 7.3217 6.9617 6.6517 6.3617 6.1217 5.9717 5.9617 5.9017 5.9017
954.844 6.1117 6.4117 6.6417 6.8717 7.3217 7.8517 8.4417 9.1717 10.0017 11.0317
974.134 12.2517 13.6417 15.5917 18.0917 21.0017 24.3617 28.2017 32.4517 36.7117 40.8417
993.424 44.5517 47.3017 48.7517 48.4817 47.1217 45.3517 43.0717 40.4617 37.5817 35.0217
1012.714 33.2517 31.6417 29.9217 28.5817 27.7117 27.4717 28.4517 30.3617 32.1817 33.4217
1032.003 34.7117 35.9417 36.6717 36.9417 37.5317 38.9417 40.7717 42.9117 45.0217 46.6817
1051.293 47.7617 48.4317 48.6417 48.5617 48.2317 47.8517 47.5917 47.5717 48.0617 48.9817
1070.583 50.2717 51.8617 54.0217 56.6917 59.5117 62.4317 65.5217 68.5717 71.6317 74.4917
1089.873 76.8217 78.5617 79.5817 79.8117 79.1717 77.5817 75.1217 72.1917 68.8917 65.3117
1109.163 61.5217 57.5917 53.7217 50.1717 47.2217 44.7517 43.0217 41.8417 41.0417 40.9617
1128.452 41.3917 42.2117 43.2917 44.8417 47.0617 49.7217 53.0717 57.1617 61.8917 67.6117
1147.742 74.4517 82.3617 91.8417 103.342 116.812 132.362 150.012 169.432 190.012 210.562
1167.032 229.302 244.322 253.662 256.392 252.582 242.752 228.612 212.532 196.742 182.742
1186.322 171.012 161.062 152.422 144.752 137.582 130.932 124.782 118.732 112.722 107.072
1205.611 101.902 96.9117 92.3517 88.4517 85.0317 82.2617 80.0817 78.3517 77.2917 77.0217
1224.901 77.2017 77.7917 78.7017 79.8017 81.3217 83.0717 84.6517 86.4417 88.5417 90.9517
1244.191 93.4317 95.6117 97.3517 98.0917 97.7217 96.2817 93.5617 89.8517 85.8217 81.4617
1263.481 77.1417 73.3617 69.7917 66.4717 63.3817 60.4317 57.6817 55.2217 53.4017 52.2417
1282.771 51.6517 51.6317 52.1017 52.8017 53.5317 54.1917 54.6017 54.5817 54.0917 53.0717
1302.060 51.5117 49.3717 46.8117 44.0317 41.1517 38.3217 35.7217 33.4617 31.5717 30.0717
1321.350 29.0117 28.3317 28.0117 28.1517 28.7617 29.7517 31.1817 33.0717 35.2317 37.5817
1340.640 40.0417 42.3417 44.3217 45.9317 47.0417 47.4817 47.1217 46.0517 44.4217 42.3517
1359.930 39.9917 37.4517 34.8917 32.5217 30.4817 28.8817 27.7617 27.0917 26.9017 27.1517
1379.219 27.7517 28.5417 29.3617 30.1117 30.5617 30.4417 29.6517 28.3717 26.5917 24.4417
1398.509 22.2417 20.2317 18.5017 17.0917 16.0417 15.3517 14.9617 14.7917 14.8617 15.1617
1417.799 15.6717 16.3717 17.2617 18.3817 19.7517 21.2617 22.8017 24.2217 25.4317 26.3617
1437.089 27.0717 27.5917 28.0317 28.5817 29.2617 30.1317 31.1517 32.2517 33.3117 34.2317
1456.378 34.9417 35.3517 35.3717 34.9317 34.0717 32.8317 31.2617 29.4517 27.4917 25.5017
1475.668 23.6517 21.9617 20.5417 19.4717 18.9017 18.9717 19.7117 21.3017 23.7317 26.4917
1494.958 28.7017 29.4317 28.6717 26.8717 23.9017 19.6817 15.2617 11.8917 9.6917 8.2517
1514.248 7.3217 6.6617 6.2217 5.8817 5.6317 5.4917 5.3017 5.1417 5.0317 4.9017
1533.538 4.7617 4.6117 4.5017 4.4017 4.2317 4.0817 3.9917 3.9317 3.8617 3.7917
1552.827 3.7517 3.7217 3.7517 3.8317 3.8917 3.9517 4.0417 4.1917 4.3117 4.4717
1572.117 4.6917 4.9217 5.2117 5.5317 5.8417 6.2117 6.6417 7.1217 7.6317 8.1817
1591.407 8.7917 9.4717 10.2417 10.9917 11.6717 12.2817 12.5017 12.2517 11.6217 10.6317
1610.697 9.4917 8.3217 7.0817 5.9717 5.1817 4.6617 4.3117 4.0717 3.9217 3.8517
1629.986 3.8117 3.8117 3.8017 3.8117 3.9017 3.9917 4.0317 4.0617 4.1317 4.1917
1649.276 4.2317 4.2517 4.2917 4.3617 4.3817 4.3917 4.3917 4.4417 4.5317 4.5817
1668.566 4.6317 4.6917 4.8117 4.9817 5.1517 5.3517 5.5817 5.8717 6.2117 6.5817
1687.856 7.0117 7.4917 8.0717 8.7417 9.4917 10.3617 11.3617 12.5317 13.8217 15.2417
1707.146 16.7817 18.4317 20.2317 22.1717 24.2917 26.7117 29.4217 32.4517 36.0817 40.3517
1726.435 45.3517 51.2417 58.1617 66.3617 76.1817 87.8817 101.822 118.492 138.032 160.412
1745.725 184.672 208.652 229.202 243.522 250.182 248.882 239.222 221.112 196.262 168.802
1765.015 142.692 119.912 100.872 85.3417 72.7617 62.6817 54.5617 47.9217 42.4317 37.8517
1784.305 34.0017 30.7517 28.0517 25.7117 23.6217 21.7217 19.9317 18.1817 16.5217 14.9417
1803.594 13.4417 12.0917 10.9417 9.9717 9.1217 8.4517 7.8717 7.4017 6.9717 6.5817
1822.884 6.2417 5.9117 5.6317 5.4217 5.2817 5.1117 4.9517 4.8517 4.7817 4.7317
1842.174 4.6917 4.6717 4.6317 4.6317 4.6517 4.6617 4.6917 4.7617 4.8217 4.8417
1861.464 4.8417 4.8417 4.8417 4.8417 4.8217 4.8017 4.7917 4.7717 4.7217 4.6117
1880.754 4.4817 4.2917 4.0317 3.7917 3.5517 3.3117 3.1317 3.0017 2.8717 2.8217
1900.043 2.8017 2.7517 2.7417 2.7417 2.7417 2.7817 2.8317 2.8817 2.9317 3.0417
1919.333 3.1617 3.2817 3.4617 3.6617 3.9217 4.1317 4.3017 4.4917 4.6417 4.7517
1938.623 4.7817 4.7917 4.8217 4.8317 4.8117 4.8917 4.9417 4.8817 4.7617 4.5617
1957.913 4.2417 3.8417 3.5017 3.1217 2.8117 2.6617 2.5617 2.5117 2.5117 2.4817
1977.202 2.4617 2.4717 2.4817 2.4717 2.4717 2.5017 2.4917 2.4617 2.4517 2.4217
1996.492 2.3917 2.3917 2.4117 2.3917 2.3517 2.3117 2.2817 2.2217 2.1917 2.1817
2015.782 2.1317 2.1317 2.1117 2.0317 1.9817 1.9917 2.0317 2.0617 2.0317 2.0017
2035.072 2.0017 2.0117 2.0017 1.9917 2.0317 2.0717 2.0517 2.0417 2.0517 2.0617
2054.362 2.0917 2.0717 2.0717 2.0817 2.0717 2.0517 2.0217 1.9917 1.9417 1.9417
2073.651 1.9117 1.8717 1.8717 1.8717 1.8417 1.7817 1.7617 1.7317 1.7017 1.6817
2092.941 1.6517 1.6617 1.6517 1.6117 1.5517 1.5117 1.4817 1.4817 1.4517 1.4217
2112.231 1.4117 1.3817 1.3017 1.2417 1.2117 1.2317 1.2317 1.1917 1.1617 1.1217
2131.521 1.1017 1.0817 1.0417 1.0189 1.0174 1.01 0.9991 0.9695 0.9727 0.9695
2150.810 0.9339 0.9216 0.9432 0.8988 0.8389 0.879 0.8818 0.8878 0.9193 0.9284
2170.100 0.9508 0.9389 0.9251 0.9562 0.9792 0.9468 0.9005 0.9446 0.9835 0.9487
2189.390 0.928 0.9596 0.9761 0.9734 0.9804 0.9927 0.9855 0.9575 0.9445 0.9536
2208.680 0.9956 0.9927 0.9463 0.9424 0.9528 0.8836 0.8305 0.8805 0.9052 0.9066
2227.970 0.8994 0.8495 0.8401 0.8617 0.9294 0.9473 0.9202 0.9675 0.9967 0.9768
2247.259 0.9792 1.0135 1.0287 1.0817 1.1217 1.1317 1.1317 1.0917 1.1017 1.1417
2266.549 1.1117 1.0617 1.0917 1.1017 1.0717 1.0917 1.1117 1.1017 1.0717 1.0817
2285.839 1.1117 1.0817 1.0617 1.0917 1.0917 1.1017 1.1217 1.1517 1.1317 1.1217
2305.129 1.2117 1.2717 1.3217 1.4017 1.4117 1.4117 1.4517 1.4517 1.3717 1.3417
2324.418 1.3217 1.2617 1.2917 1.3117 1.2817 1.3117 1.3317 1.3217 1.3317 1.3217
2343.708 1.2817 1.3017 1.2617 1.2117 1.2417 1.2117 1.1517 1.1117 1.0917 1.1017
2362.998 1.0817 1.0617 1.0517 0.9972 0.939 0.9105 0.8416 0.8402 0.8908 0.8754
2382.288 0.866 0.8413 0.7966 0.8077 0.8391 0.8369 0.8219 0.8159 0.798 0.7709
2401.578 0.8001 0.8423 0.7861 0.745 0.7882 0.8022 0.7938 0.7925 0.8026 0.8001
2420.867 0.781 0.8043 0.8157 0.7979 0.7725 0.749 0.7537 0.7933 0.7598 0.6752
2440.157 0.6468 0.6516 0.6451 0.6415 0.6405 0.6021 0.5796 0.5638 0.5552 0.5814
2459.447 0.6085 0.6132 0.5988 0.5637 0.5379 0.5466 0.5258 0.4631 0.5134 0.537
2478.737 0.4689 0.4268 0.429 0.4714 0.4852 0.5205 0.5462 0.5182 0.474 0.4363
2498.026 0.4398 0.457 0.5091 0.5411 0.4807 0.4606 0.4967 0.5529 0.5449 0.518
2517.316 0.5337 0.4676 0.4753 0.5543 0.5309 0.4427 0.3758 0.415 0.4953 0.5216
2536.606 0.4626 0.454 0.5217 0.5197 0.4651 0.4114 0.4711 0.5145 0.4698 0.5213
2555.896 0.5719 0.591 0.5721 0.5682 0.6034 0.589 0.5657 0.5496 0.5299 0.556
2575.186 0.6172 0.6244 0.6414 0.6584 0.7035 0.7706 0.7821 0.7253 0.6761 0.6873
2594.475 0.6645 0.6169 0.6694 0.7353 0.7266 0.7772 0.8998 0.9095 0.841 0.8361
2613.765 0.7623 0.7115 0.7429 0.723 0.7214 0.7434 0.7825 0.812 0.8343 0.8641
2633.055 0.8874 0.9382 0.9488 0.9256 0.9523 0.968 0.9367 0.9496 0.9731 0.9785
2652.345 0.971 0.9492 0.9589 0.9857 0.9823 0.9905 1.0417 1.0517 1.0617 1.1417
2671.634 1.1517 1.1217 1.1117 1.1117 1.1417 1.1017 1.0717 1.1017 1.1517 1.1517
2690.924 1.0817 1.0417 1.0269 1.014 1.0417 1.0417 1.0017 1.0317 1.0317 1.0269
2710.214 1.0717 1.1217 1.1517 1.1617 1.1717 1.2217 1.3217 1.4017 1.4117 1.4317
2729.504 1.5417 1.6617 1.7017 1.7317 1.8017 1.9117 2.0117 2.0717 2.1717 2.2517
2748.794 2.2717 2.2917 2.2917 2.2617 2.2817 2.2617 2.2217 2.2517 2.2517 2.2817
2768.083 2.3317 2.3417 2.3017 2.2917 2.3317 2.4717 2.5617 2.5817 2.6917 2.7217
2787.373 2.7017 2.7417 2.8517 2.9517 2.9317 3.0117 3.1417 3.2317 3.2917 3.3217
2806.663 3.4217 3.5617 3.7017 3.7417 3.8217 4.0317 4.2317 4.4317 4.6317 4.9117
2825.953 5.1817 5.4217 5.7117 6.1317 6.5917 7.0317 7.4917 7.9517 8.5017 9.1317
2845.242 9.7317 10.3017 10.9217 11.5017 12.1017 12.6817 13.2717 13.9717 14.6517 15.4017
2864.532 16.3917 17.6117 18.9917 20.5617 22.5117 24.7717 27.2317 29.7617 32.4217 34.8517
2883.822 36.8017 38.1817 38.8417 38.8717 38.3617 37.5817 36.8417 36.3617 36.1117 36.1617
2903.112 36.5317 37.1317 37.9517 39.0117 40.2117 41.6617 43.3917 45.2617 47.3217 49.3917
2922.401 51.3417 53.2217 54.9617 56.8717 58.9317 61.3217 64.2117 67.4517 71.2817 75.2517
2941.691 78.8117 81.8317 84.0917 85.5617 86.4817 87.1817 87.9517 89.1117 90.9317 93.3717
2960.981 96.1317 98.8817 101.522 103.972 105.832 106.722 106.642 105.532 103.382 100.012
2980.271 95.2317 89.2617 82.5517 75.5417 68.4117 61.4617 55.0017 49.0817 43.8217 39.3517
2999.561 35.6317 32.6017 30.1117 28.3117 26.9517 25.8817 25.3017 25.0217 25.1517 25.7617
3018.850 26.8317 28.5517 30.7617 33.5217 36.6717 39.8517 42.8717 45.2417 46.3417 46.0317
3038.140 44.4717 41.7117 38.0317 33.9317 30.1617 27.1717 25.1017 23.8317 23.2117 23.2417
3057.430 24.0517 25.6317 27.9417 30.9917 34.5017 37.9917 40.6317 41.7917 41.5417 40.1317
3076.720 37.5917 33.9217 30.0917 27.1617 25.1517 23.7517 22.5817 21.4517 20.3317 19.1717
3096.009 18.0217 16.7717 15.4617 14.3417 13.3117 12.3817 11.5017 10.5417 9.7117 9.0217
3115.299 8.1917 7.2317 6.3317 5.4917 4.8017 4.2517 3.7817 3.4317 3.0417 2.7617
3134.589 2.5917 2.3817 2.2117 2.1117 2.1117 2.1317 2.0917 1.9617 1.8717 1.8717
3153.879 1.8517 1.7917 1.7517 1.7017 1.6917 1.6417 1.6017 1.6317 1.5717 1.4717
3173.169 1.4017 1.3317 1.2617 1.1517 1.1017 1.1317 1.1217 1.1017 1.0517 0.997
3192.458 1.0043 0.9646 0.8668 0.9013 0.8783 0.7391 0.7307 0.8016 0.8752 0.8414
3211.748 0.7157 0.7332 0.6464 0.5762 0.619 0.589 0.6045 0.5053 0.4622 0.5233
3231.038 0.525 0.4393 0.341 0.3934 0.4115 0.3138 0.2479 0.2741 0.272 0.1751
3250.328 0.2448 0.3098 0.2128 0.2885 0.3439 0.3057 0.2352 0.1756 0.2449 0.2927
3269.617 0.3112 0.4015 0.3353 0.2142 0.2365 0.2349 0.2142 0.3078 0.4402 0.432
3288.907 0.3163 0.297 0.3643 0.3217 0.239 0.1978 0.2032 0.1854 0.2321 0.3588
3308.197 0.3329 0.3054 0.3432 0.2677 0.3043 0.3615 0.3215 0.232 0.1872 0.1889
3327.487 0.11099 0.12555 0.11873 0.10377 0.12323 0.1328 0.2555 0.25 0.09944 0.04195
3346.777 0.09535 0.09413 0.1536 0.1733 0.10283 0.2028 0.1735 0.1933 0.2565 0.239
3366.066 0.3411 0.3803 0.341 0.2968 0.2062 0.1579 0.189 0.1795 0.1432 0.1712
3385.356 0.2847 0.2815 0.10618 0.10149 0.1734 0.2457 0.2076 0.040549 0.11471 0.182
3404.646 0.10904 0.142 0.1541 0.11588 0.1475 0.1917 0.2917 0.218 0.08201 0.1556
3423.936 0.2631 0.2509 0.3275 0.3833 0.1921 0.218 0.3848 0.4199 0.4311 0.4678
3443.225 0.4259 0.397 0.4878 0.5089 0.5218 0.5439 0.5649 0.6323 0.7036 0.769
3462.515 0.8194 0.9226 1.1317 1.3217 1.5017 1.6117 1.5917 1.6517 1.9317 2.1817
3481.805 2.2517 2.4117 2.6017 2.6317 2.6417 2.5617 2.3917 2.3417 2.2417 1.9717
3501.095 1.8517 1.6917 1.5217 1.4217 1.2017 1.1717 1.1817 1.0617 0.9332 0.8498
3520.385 0.8453 0.8399 0.7765 0.747 0.6438 0.576 0.6135 0.5882 0.5922 0.5787
3539.674 0.5316 0.4808 0.4359 0.3098 0.2786 0.3743 0.2532 0.1678 0.3026 0.2675
3558.964 0.2222 0.2768 0.153 0.10788 0.2408 0.3036 0.3153 0.2715 0.2525 0.2129
3578.254 0.0783 0 0.030873 0.11636 0.1331 0.12755 0.12963 0.1668 0.2018 0.329
3597.544 0.2511 0.08269 0.1662 0.1628 0.11087 0.05405 0.10974 0.1875 0.2692 0.3209
3616.833 0.2024 0.2495 0.282 0.2242 0.2669 0.287 0.3471 0.3867 0.3746 0.2741
3636.123 0.2569 0.3826 0.3735 0.4072 0.5019 0.5036 0.5808 0.6056 0.5316 0.4412
3655.413 0.4912 0.5182 0.4746 0.5099 0.5809 0.6487 0.5946 0.4078 0.2521 0.2349
3674.703 0.2613 0.2467 0.2035 0.3085 0.3838 0.4348 0.417 0.3302 0.2955 0.23
3693.993 0.188 0.187 0.188 0.2095 0.2477 0.2502 0.3444 0.4058 0.4107 0.4266
3713.282 0.3915 0.4742 0.5397 0.4668 0.44 0.369 0.2847 0.3444 0.3538 0.3228
3732.572 0.3171 0.3921 0.4111 0.3889 0.4422 0.4485 0.4596 0.3701 0.3658 0.3692
3751.862 0.2892 0.3838 0.3378 0.2755 0.3438 0.3024 0.35 0.4169 0.2916 0.305
3771.152 0.4249 0.4188 0.3382 0.312 0.2783 0.322 0.3342 0.245 0.2151 0.2715
3790.441 0.4465 0.5148 0.5159 0.5814 0.5684 0.4299 0.4271 0.4811 0.5172 0.5195
3809.731 0.5328 0.5964 0.3766 0.2813 0.3933 0.4879 0.5501 0.5036 0.5941 0.6222
3829.021 0.6121 0.6012 0.6276 0.6632 0.5384 0.4754 0.4517 0.3851 0.364 0.3317
3848.311 0.318 0.3265 0.4022 0.4112 0.4288 0.5028 0.4493 0.4536 0.4261 0.3574
3867.601 0.3387 0.3767 0.4758 0.4921 0.4262 0.3418 0.3242 0.5009 0.5888 0.4444
3886.890 0.3451 0.2288 0.2692 0.3491 0.3698 0.479 0.4609 0.5059 0.614 0.4494
3906.180 0.3114 0.3786 0.4166 0.4601 0.4867 0.3789 0.2906 0.4203 0.5121 0.5009
3925.470 0.4188 0.4127 0.5074 0.5131 0.5083 0.4497 0.3678 0.4286 0.5621 0.6163
3944.760 0.5901 0.6428 0.7069 0.7445 0.6315 0.56 0.6894 0.7317 0.7597 0.782
3964.049 0.742 0.6913 0.5914 0.6191 0.6803 0.7176 0.7844 0.702 0.6499 0.6934
3983.339 0.7698 0.8396 0.8312 0.8292 0.8454 0.8529 0.9465 0.9302 0.9364 0.9367
##END=
