##TITLE=.beta.-Phenylethyl cinnamate
##JCAMP-DX=4.24
##DATA TYPE=INFRARED SPECTRUM
##ORIGIN=EPA-IR VAPOR PHASE LIBRARY
##OWNER=SRD/NIST
Collection (C) 2018 copyright by the U.S. Secretary of Commerce
on behalf of the United States of America. All rights reserved.
##CAS REGISTRY NO=103-53-7
##MOLFORM=C 17 H 16 O 2
##$NIST SOURCE=MSDC-IR
##STATE=gas
##XUNITS=1/CM
##YUNITS=ABSORBANCE
##XFACTOR=1.
##YFACTOR=0.001
##DELTAX=1.92898
##FIRSTX=549.8
##LASTX=4000.7
##FIRSTY=8.588
##MAXX=4000.7
##MINX=549.759
##MAXY=1.04134
##MINY=0
##NPOINTS=1790
##XYDATA=(X++(Y..Y))
549.759 8.588 9.528 10.578 12.638 15.668 19.048 23.778 30.468 38.908 47.278
569.049 52.128 52.718 49.538 44.288 39.528 36.108 33.938 32.628 31.348 29.848
588.339 27.958 25.528 23.138 20.708 18.348 16.398 14.548 13.098 11.878 10.758
607.628 9.678 8.488 7.728 7.048 6.338 6.058 5.848 5.668 5.518 5.208
626.918 5.108 5.058 5.068 5.218 5.348 5.598 5.998 6.448 6.958 7.528
646.208 8.188 9.008 10.108 11.648 13.238 15.068 17.458 20.228 23.748 27.888
665.498 32.558 38.358 44.838 51.898 59.918 68.828 78.828 89.278 99.948 110.278
684.787 120.108 129.958 140.368 152.038 163.928 173.048 176.838 174.428 167.148 157.628
704.077 148.108 139.218 130.498 121.998 114.168 107.358 101.378 96.068 91.398 87.358
723.367 84.018 81.278 79.908 79.888 81.118 83.818 87.638 92.608 98.638 104.938
742.657 109.918 112.508 112.718 111.508 110.018 109.698 111.188 113.948 117.098 119.628
761.947 120.198 117.578 111.598 102.358 90.948 78.648 66.998 56.668 47.828 40.798
781.236 34.978 30.378 26.688 23.638 21.378 19.518 18.068 17.118 16.298 15.588
800.526 15.028 14.638 14.708 14.878 15.268 16.088 17.108 18.368 19.558 20.328
819.816 20.998 21.298 21.148 20.698 19.908 19.168 18.568 18.178 17.998 18.028
839.106 18.348 18.468 18.598 19.218 20.228 21.368 22.948 25.208 27.838 30.758
858.395 33.928 36.898 38.768 39.468 38.738 36.728 34.108 31.208 28.538 26.068
877.685 23.928 22.778 22.168 21.528 21.258 20.968 20.788 20.828 20.758 20.788
896.975 20.798 20.568 20.548 20.388 19.958 19.548 19.038 18.698 18.398 18.188
916.265 18.378 18.838 19.308 19.838 20.478 21.398 22.468 23.528 24.678 26.068
935.555 27.508 28.928 30.258 31.338 32.488 33.598 34.528 35.688 37.188 38.948
954.844 41.188 44.348 48.718 54.218 61.228 69.458 78.358 87.908 97.328 105.818
974.134 112.078 114.938 114.748 112.568 109.258 104.868 99.428 94.458 90.968 89.418
993.424 90.738 94.888 102.288 112.228 121.678 129.198 134.268 136.408 137.518 140.098
1012.714 144.748 150.668 157.128 163.318 167.908 169.908 168.888 165.098 159.908 153.278
1032.003 145.128 137.208 129.938 123.248 118.808 116.948 116.958 118.248 120.608 123.388
1051.293 125.878 127.818 127.818 125.668 121.668 116.068 109.728 103.178 96.558 90.258
1070.583 83.938 78.008 73.258 69.228 66.098 63.738 61.698 59.938 58.158 56.448
1089.873 54.828 53.548 52.268 50.868 49.878 49.148 48.618 48.018 47.598 46.968
1109.163 46.178 46.138 46.748 47.418 48.498 50.428 52.868 56.028 60.228 65.358
1128.452 72.088 80.458 90.188 102.818 118.548 137.478 161.268 190.338 225.778 271.248
1147.742 329.538 404.308 500.118 615.398 744.078 873.298 980.218 1041.34 1037.83 961.388
1167.032 830.148 680.608 544.558 438.648 364.438 316.098 286.348 267.778 253.618 241.178
1186.322 230.398 224.208 227.968 243.528 269.308 298.278 318.258 320.258 300.728 263.278
1205.611 221.708 187.848 164.528 150.178 141.978 138.208 138.358 141.518 147.498 156.268
1224.901 167.598 181.608 198.558 217.908 239.028 263.218 291.438 324.588 363.148 405.148
1244.191 447.158 482.488 502.848 503.578 485.578 457.008 428.968 409.138 397.988 388.888
1263.481 374.108 352.608 329.108 308.618 293.708 283.268 273.838 262.508 249.078 236.488
1282.771 228.758 228.878 237.338 251.498 267.308 280.958 289.628 293.448 295.928 302.588
1302.060 317.988 341.948 367.668 385.168 385.958 367.068 333.688 296.568 263.698 236.968
1321.350 214.698 194.598 175.118 156.088 138.148 122.128 108.558 97.278 87.438 78.558
1340.640 70.448 63.398 57.818 53.778 50.848 48.578 46.918 45.738 45.038 44.818
1359.930 45.028 45.638 46.738 48.228 50.158 52.658 55.738 59.548 64.298 69.498
1379.219 74.378 77.658 78.348 76.308 71.738 65.468 58.538 51.738 45.598 40.358
1398.509 36.168 32.818 30.298 28.318 26.828 25.738 24.908 24.368 24.038 23.918
1417.799 24.108 24.608 25.378 26.528 28.208 30.248 32.768 35.788 39.358 43.328
1437.089 47.998 53.088 58.888 66.108 75.228 85.648 94.678 98.948 97.558 91.268
1456.378 81.818 73.258 67.638 63.338 59.668 56.308 53.338 50.538 47.908 45.428
1475.668 43.328 41.578 40.508 40.508 42.138 45.998 52.708 63.008 77.488 94.378
1494.958 108.788 114.938 109.468 94.138 73.388 54.558 40.918 32.348 27.268 23.908
1514.248 21.718 20.248 19.228 18.498 17.968 17.608 17.308 17.058 16.838 16.608
1533.538 16.388 16.158 15.978 15.698 15.378 15.108 14.858 14.658 14.618 14.688
1552.827 14.828 15.028 15.408 16.118 17.068 18.168 19.728 21.738 24.278 27.538
1572.117 31.208 35.078 38.938 41.708 42.248 40.628 37.698 34.888 33.608 34.038
1591.407 35.628 37.858 40.208 42.308 44.118 45.508 46.268 46.498 46.168 45.548
1610.697 45.048 45.178 46.408 49.248 53.578 59.128 66.238 75.878 88.578 105.648
1629.986 127.238 152.878 180.308 208.298 231.318 243.358 240.868 223.008 192.888 157.708
1649.276 126.248 102.278 83.748 70.708 62.008 55.338 50.328 46.278 43.058 40.498
1668.566 38.428 36.678 35.348 34.298 33.438 32.898 32.788 33.048 33.868 35.188
1687.856 37.008 39.528 42.358 45.298 48.628 52.118 55.878 60.428 65.378 71.648
1707.146 79.298 88.428 99.768 113.788 131.458 154.088 184.108 221.068 268.498 328.188
1726.435 399.828 480.278 563.838 637.948 696.848 732.118 729.818 689.828 623.208 539.368
1745.725 450.068 365.678 292.798 232.618 186.148 152.048 126.348 107.948 94.058 83.138
1765.015 74.488 67.578 61.758 57.098 53.058 49.368 45.938 42.648 39.578 37.038
1784.305 35.208 34.198 33.928 33.998 34.148 33.918 32.908 31.088 28.758 26.318
1803.594 24.178 22.488 21.208 20.248 19.528 18.848 18.288 17.938 17.568 17.218
1822.884 16.958 16.658 16.408 16.138 15.928 15.798 15.658 15.528 15.378 15.298
1842.174 15.168 14.988 14.788 14.558 14.418 14.328 14.318 14.398 14.548 14.788
1861.464 15.088 15.398 15.738 16.028 16.268 16.598 16.878 17.018 17.068 17.008
1880.754 16.778 16.348 15.748 15.058 14.288 13.438 12.568 11.668 10.748 9.928
1900.043 9.258 8.768 8.428 8.088 7.968 7.938 7.998 8.228 8.448 8.768
1919.333 9.318 9.988 10.628 11.288 12.008 12.788 13.648 14.568 15.528 16.458
1938.623 17.198 17.678 17.998 18.308 18.588 18.708 18.758 18.628 18.108 17.298
1957.913 16.168 14.878 13.558 12.268 11.158 10.198 9.458 8.888 8.548 8.418
1977.202 8.278 8.268 8.248 8.148 8.058 7.858 7.618 7.428 7.248 7.088
1996.492 6.898 6.728 6.648 6.558 6.428 6.248 6.118 6.028 5.888 5.798
2015.782 5.688 5.588 5.538 5.408 5.298 5.238 5.148 5.078 5.028 4.978
2035.072 4.898 4.858 4.828 4.768 4.778 4.808 4.808 4.838 4.848 4.898
2054.362 5.018 5.088 5.168 5.268 5.288 5.348 5.388 5.408 5.498 5.548
2073.651 5.568 5.618 5.708 5.768 5.808 5.918 6.038 6.118 6.248 6.378
2092.941 6.448 6.528 6.508 6.478 6.428 6.378 6.378 6.278 6.108 6.008
2112.231 6.008 5.858 5.758 5.688 5.558 5.418 5.258 5.158 5.108 4.998
2131.521 4.788 4.708 4.628 4.538 4.488 4.358 4.258 4.168 4.118 4.128
2150.810 4.118 4.048 3.938 3.858 3.798 3.748 3.678 3.618 3.538 3.498
2170.100 3.418 3.308 3.238 3.208 3.188 3.128 3.138 3.158 3.138 3.108
2189.390 3.078 3.098 3.088 3.148 3.168 3.098 3.058 3.078 3.158 3.148
2208.680 3.138 3.148 3.128 3.038 3.028 3.088 3.138 3.138 3.138 3.188
2227.970 3.128 3.138 3.238 3.248 3.158 3.148 3.298 3.438 3.448 3.418
2247.259 3.428 3.508 3.548 3.518 3.518 3.518 3.538 3.568 3.528 3.438
2266.549 3.358 3.318 3.328 3.328 3.248 3.168 3.148 3.118 3.158 3.218
2285.839 3.238 3.268 3.238 3.208 3.238 3.238 3.298 3.408 3.588 3.798
2305.129 3.898 4.078 4.498 5.048 5.628 6.018 6.088 5.878 5.398 4.808
2324.418 4.388 4.208 4.098 4.018 4.038 4.138 4.098 4.028 4.038 3.988
2343.708 3.888 3.748 3.618 3.528 3.458 3.338 3.188 3.128 3.088 2.998
2362.998 2.868 2.728 2.608 2.578 2.578 2.468 2.378 2.348 2.358 2.288
2382.288 2.248 2.238 2.158 2.008 1.948 1.978 1.908 1.918 2.008 1.978
2401.578 1.928 1.908 1.838 1.878 1.938 1.948 1.948 1.928 1.908 1.968
2420.867 1.958 1.908 1.928 1.968 2.038 2.138 2.148 2.148 2.168 2.228
2440.157 2.248 2.218 2.208 2.218 2.238 2.208 2.148 2.098 2.078 2.058
2459.447 2.068 2.098 2.138 2.248 2.318 2.318 2.228 2.038 1.938 1.928
2478.737 1.948 1.898 1.868 1.898 1.908 1.908 1.968 1.908 1.798 1.838
2498.026 1.828 1.798 1.778 1.728 1.738 1.838 1.798 1.748 1.798 1.828
2517.316 1.788 1.718 1.728 1.738 1.718 1.708 1.668 1.558 1.538 1.608
2536.606 1.608 1.628 1.658 1.668 1.628 1.598 1.728 1.728 1.668 1.668
2555.896 1.678 1.678 1.738 1.788 1.758 1.878 1.988 1.948 1.988 2.088
2575.186 2.208 2.388 2.478 2.488 2.478 2.478 2.478 2.498 2.598 2.578
2594.475 2.578 2.628 2.578 2.598 2.608 2.598 2.558 2.448 2.428 2.378
2613.765 2.248 2.158 2.008 1.958 2.058 2.068 1.978 1.988 2.058 2.098
2633.055 2.108 2.158 2.178 2.168 2.108 2.068 2.188 2.198 2.158 2.168
2652.345 2.018 1.998 2.048 1.958 1.928 1.958 1.988 1.918 1.888 1.898
2671.634 1.868 1.918 1.908 1.848 1.808 1.788 1.848 1.848 1.878 1.788
2690.924 1.638 1.748 1.808 1.828 1.738 1.648 1.678 1.588 1.578 1.558
2710.214 1.488 1.548 1.678 1.758 1.738 1.748 1.748 1.808 1.968 2.008
2729.504 1.998 2.108 2.308 2.418 2.488 2.578 2.678 2.818 2.938 3.018
2748.794 3.088 3.158 3.188 3.168 3.218 3.228 3.258 3.238 3.118 3.238
2768.083 3.378 3.418 3.428 3.548 3.708 3.868 3.998 4.068 4.188 4.288
2787.373 4.348 4.368 4.488 4.528 4.518 4.568 4.618 4.528 4.368 4.298
2806.663 4.318 4.368 4.338 4.368 4.538 4.688 4.788 4.938 5.238 5.578
2825.953 5.908 6.268 6.688 7.118 7.508 7.988 8.458 9.038 9.748 10.468
2845.242 11.258 12.058 12.798 13.448 14.078 14.468 14.658 14.868 14.978 15.118
2864.532 15.238 15.308 15.618 16.058 16.428 16.848 17.458 17.928 18.348 18.918
2883.822 19.618 20.568 21.798 23.148 24.708 26.498 28.388 30.388 32.328 34.338
2903.112 36.238 37.898 39.258 40.408 41.538 42.988 44.998 47.438 50.118 52.848
2922.401 55.058 56.098 56.108 55.278 53.818 52.358 51.358 51.208 51.908 53.138
2941.691 54.708 56.498 58.528 60.818 63.618 67.188 71.698 77.168 83.048 88.528
2960.981 93.098 96.038 96.468 94.068 89.028 82.518 75.728 69.068 63.388 58.808
2980.271 54.968 51.958 49.328 46.888 44.478 42.028 39.598 37.118 34.898 33.158
2999.561 31.998 31.528 31.768 32.688 34.138 35.908 38.028 40.648 44.228 49.008
3018.850 55.128 62.998 72.608 83.918 96.798 110.488 124.058 135.728 142.948 143.598
3038.140 137.198 125.368 111.188 98.488 89.148 83.108 79.618 78.228 78.828 81.388
3057.430 86.338 93.978 104.688 119.208 138.028 159.328 178.108 187.198 182.508 166.038
3076.720 143.558 122.748 108.988 101.688 97.418 94.168 90.968 86.838 81.538 75.408
3096.009 68.948 62.838 57.448 52.868 49.048 45.488 42.028 38.598 34.618 30.208
3115.299 25.798 21.518 17.818 14.818 12.288 10.338 8.918 7.668 6.588 5.968
3134.589 5.528 5.168 4.848 4.498 4.348 4.318 4.248 4.358 4.498 4.438
3153.879 4.348 4.258 4.198 3.968 3.578 3.288 2.958 2.598 2.348 2.168
3173.169 1.968 1.758 1.438 1.2324 1.2471 1.273 1.1496 0.9908 1.1886 1.3424
3192.458 1.2207 1.0402 0.9643 0.9913 0.9262 0.9501 1.0147 0.833 0.8938 0.9241
3211.748 0.8285 0.8146 0.5886 0.6072 0.6811 0.6021 0.5471 0.6487 0.8312 0.9185
3231.038 0.8985 0.7519 0.6536 0.6374 0.7475 0.881 0.9197 0.8958 0.8651 0.8811
3250.328 0.7441 0.6088 0.5332 0.46374 0.5011 0.492 0.5277 0.5479 0.7251 0.8739
3269.617 0.8503 0.712 0.5897 0.5329 0.42551 0.4923 0.5795 0.5719 0.6674 0.6845
3288.907 0.5462 0.6584 0.8496 0.6269 0.3731 0.5174 0.5511 0.43613 0.373 0.46901
3308.197 0.5882 0.46699 0.45614 0.5091 0.5909 0.6799 0.6646 0.4958 0.42535 0.5318
3327.487 0.5483 0.5861 0.7312 0.6934 0.651 0.7469 0.8262 0.763 0.7334 1.0419
3346.777 1.2164 0.9929 0.9425 1.0574 1.1636 1.2453 1.2361 1.448 1.498 1.748
3366.066 1.928 1.698 1.698 1.758 1.788 1.778 1.928 1.938 1.708 1.528
3385.356 1.3452 1.2884 1.1135 0.951 0.931 0.9666 0.9385 0.8253 0.7277 0.6198
3404.646 0.712 0.9145 0.9133 0.8554 0.7939 0.8096 0.8997 1.0243 1.0748 1.1545
3423.936 1.468 1.678 1.668 1.688 1.978 2.068 2.428 2.998 3.338 3.738
3443.225 4.178 4.528 4.878 5.358 5.528 5.598 5.738 5.688 5.498 5.268
3462.515 4.978 4.648 4.188 3.788 3.288 2.868 2.758 2.428 2.148 1.998
3481.805 1.758 1.508 1.3816 1.398 1.29 1.2072 1.0788 0.9225 0.9745 0.9448
3501.095 0.7216 0.5775 0.666 0.65 0.47338 0.497 0.45806 0.390288 0.45571 0.4758
3520.385 0.48723 0.511 0.3529 0.15 0.268 0.3676 0.249 0.232 0.41271 0.46063
3539.674 0.19 0.146 0.285 0.2979 0.198 0.196 0.178 0.284 0.3521 0.3019
3558.964 0.267 0.166 0.175 0.27 0.173 0 0.147 0.222 0.257 0.3184
3578.254 0.214 0.141 0.237 0.243 0.16 0.178 0.172 0.145 0.245 0.274
3597.544 0.3043 0.44854 0.42462 0.288 0.104 0.132 0.26 0.318 0.3627 0.422
3616.833 0.47965 0.3157 0.239 0.41044 0.6335 0.6664 0.7866 1.0935 1.2029 1.1502
3636.123 1.1227 1.2439 1.3012 1.2144 1.1707 1.2028 1.3042 1.518 1.628 1.648
3655.413 1.498 1.408 1.3785 1.158 1.0513 0.9906 0.825 0.8674 1.0593 1.1073
3674.703 1.0356 0.7449 0.6068 0.7591 0.7723 0.6488 0.6349 0.8269 0.7793 0.6884
3693.993 0.6517 0.7285 0.8907 0.9721 1.1529 1.0674 0.9695 1.0325 0.9695 0.8359
3713.282 0.7216 0.7268 0.7818 0.6639 0.6091 0.6782 0.573 0.5569 0.684 0.6505
3732.572 0.5116 0.5275 0.5727 0.6915 0.6031 0.42888 0.5481 0.45004 0.287 0.3495
3751.862 0.46131 0.6293 0.7532 0.613 0.5189 0.6452 0.8049 0.635 0.541 0.6833
3771.152 0.7165 0.7044 0.5759 0.45661 0.3324 0.42471 0.5735 0.5402 0.57 0.5475
3790.441 0.3436 0.266 0.329 0.45249 0.5557 0.5794 0.6198 0.5977 0.6014 0.7128
3809.731 0.5627 0.44236 0.5117 0.45317 0.5285 0.6164 0.45959 0.4918 0.7345 0.7107
3829.021 0.5562 0.5938 0.7258 0.7855 0.7193 0.6594 0.7068 0.6176 0.5233 0.47612
3848.311 0.6124 0.7335 0.5697 0.5946 0.7578 0.8482 0.819 0.6865 0.6853 0.7487
3867.601 0.7456 0.7047 0.7022 0.6883 0.769 0.9448 0.8907 0.9072 1.0292 0.8903
3886.890 0.7147 0.9562 1.0993 0.9729 0.8657 0.6077 0.7569 1.0742 1.0872 1.1772
3906.180 1.1986 1.2022 1.243 1.3105 1.2269 1.2528 1.418 1.2175 1.1793 1.256
3925.470 1.1841 1.1474 1.0117 0.9523 0.909 0.9524 1.0988 1.0497 0.7906 0.6606
3944.760 0.671 0.9234 1.085 0.9026 0.7787 0.9239 1.061 0.7677 0.4954 0.679
3964.049 0.8618 0.7393 0.8735 0.9546 0.8496 0.9335 1.0726 1.0779 1.0827 1.0942
3983.339 1.1891 1.2371 1.0834 0.9597 1.07 1.2571 1.1843 1.2068 1.438 1.488
##END=
