##TITLE=4-Acetamidophenol
##JCAMP-DX=4.24
##DATA TYPE=INFRARED SPECTRUM
##ORIGIN=NIST Mass Spectrometry Data Center
##OWNER=NIST Standard Reference Data Program
Collection (C) 2018 copyright by the U.S. Secretary of Commerce
on behalf of the United States of America. All rights reserved.
##CAS REGISTRY NO=103-90-2
##MOLFORM=C 8 H 9 N O 2
##$NIST SOURCE=MSDC-IR
##SPECTROMETER/DATA SYSTEM=HP-GC/MS/IRD
##STATE=gas
##XUNITS=1/CM
##YUNITS=ABSORBANCE
##XFACTOR=1.0
##YFACTOR=0.000002800
##DELTAX=4.0
##FIRSTX=550.0
##LASTX=3846.0
##FIRSTY=0.000557
##MAXX=3846
##MINX=550
##MAXY=0.028
##MINY=0
##NPOINTS=825
##XYDATA=(X++(Y..Y))
550.0 199 292 178 155 128 125 135 129 126 130
590.0 139 178 177 147 175 181 186 185 162 163
630.0 160 158 148 133 134 113 101 102 87 70
670.0 64 71 70 56 46 40 27 27 34 30
710.0 40 28 2 15 33 30 14 27 44 36
750.0 50 66 92 123 161 214 297 391 484 552
790.0 571 555 539 544 605 705 823 953 1056 1123
830.0 1127 1055 925 779 635 503 403 327 266 220
870.0 195 188 181 158 133 120 121 127 125 119
910.0 121 127 125 127 130 130 132 142 139 138
950.0 136 152 179 197 227 272 330 392 468 523
990.0 531 499 465 416 375 356 319 286 249 230
1030.0 231 238 257 283 270 257 274 274 280 295
1070.0 312 324 322 344 390 454 498 505 522 523
1110.0 482 436 419 390 358 344 340 372 436 522
1150.0 694 1056 1761 2800 3789 4432 4573 4124 3368 2674
1190.0 2177 1831 1634 1611 1727 1918 2146 2373 2640 3022
1230.0 3428 3698 3732 3429 2926 2524 2282 2059 1758 1391
1270.0 1050 879 881 995 1145 1299 1452 1606 1777 1942
1310.0 2035 2017 1869 1633 1381 1137 927 750 627 571
1350.0 585 685 854 1052 1228 1309 1264 1138 1002 894
1390.0 851 879 976 1142 1367 1635 1873 2020 2026 1875
1430.0 1624 1339 1112 973 887 845 834 852 905 971
1470.0 1083 1244 1470 1777 2166 2679 3403 4531 6215 8256
1510.0 9821 10000 8772 6458 4117 2635 1908 1552 1346 1208
1550.0 1090 960 813 698 600 513 471 433 415 424
1590.0 449 491 525 539 528 493 447 404 370 338
1630.0 314 290 272 260 256 263 283 311 337 365
1670.0 395 446 502 557 651 782 968 1254 1714 2414
1710.0 3372 4369 5104 5408 5109 4345 3556 2882 2270 1749
1750.0 1345 1042 807 620 481 373 297 247 219 201
1790.0 175 150 137 126 124 118 106 95 92 96
1830.0 98 96 99 104 103 109 113 112 109 105
1870.0 95 87 79 76 70 62 58 54 48 40
1910.0 38 35 31 23 28 30 18 16 19 21
1950.0 18 20 23 21 17 14 15 11 13 19
1990.0 18 21 27 25 23 26 19 20 21 21
2030.0 28 33 35 31 24 25 26 21 19 17
2070.0 24 30 28 24 27 30 18 13 9 4
2110.0 8 14 19 17 8 9 15 16 22 18
2150.0 17 19 12 6 2 8 15 9 7 12
2190.0 12 3 3 14 14 3 3 9 2 5
2230.0 15 13 9 7 9 9 7 8 14 24
2270.0 25 16 12 14 17 23 20 12 10 9
2310.0 10 10 17 24 22 23 26 24 32 42
2350.0 33 27 23 26 32 27 27 30 26 24
2390.0 24 23 28 35 40 49 49 50 58 58
2430.0 61 62 55 53 46 36 36 30 27 25
2470.0 28 34 37 42 43 38 35 37 30 28
2510.0 32 27 21 27 28 16 15 14 8 13
2550.0 21 23 17 14 14 8 9 19 27 21
2590.0 12 15 17 15 22 22 16 16 11 13
2630.0 27 31 26 24 15 15 22 25 25 21
2670.0 18 15 21 27 27 26 30 32 30 22
2710.0 19 22 28 37 39 36 37 32 20 16
2750.0 17 25 27 19 24 30 28 27 20 11
2790.0 15 18 14 8 11 19 14 20 28 22
2830.0 25 26 28 38 34 32 35 41 41 41
2870.0 42 34 35 37 49 59 60 61 67 83
2910.0 86 89 98 117 134 150 182 194 179 180
2950.0 178 163 139 119 112 122 122 109 118 126
2990.0 131 148 167 189 237 280 332 392 438 492
3030.0 556 590 582 548 471 382 322 281 260 247
3070.0 227 213 207 195 181 162 151 139 127 117
3110.0 120 115 93 86 79 73 59 59 64 54
3150.0 32 20 12 9 16 24 21 24 45 46
3190.0 34 33 38 31 32 31 28 26 22 34
3230.0 40 30 15 7 17 33 18 5 5 21
3270.0 19 7 20 22 24 22 4 5 8 2
3310.0 22 48 49 47 30 28 35 34 52 53
3350.0 35 35 45 46 56 72 75 73 68 72
3390.0 80 106 137 143 150 168 195 213 213 216
3430.0 215 226 238 245 258 268 289 310 328 332
3470.0 304 278 246 187 128 117 106 84 66 36
3510.0 28 15 20 20 11 24 28 38 52 47
3550.0 42 35 33 32 20 19 41 43 36 35
3590.0 43 42 39 37 39 54 62 75 95 133
3630.0 218 360 569 892 1336 1706 1789 1611 1225 715
3670.0 353 203 124 92 77 65 44 23 17 7
3710.0 0 13 26 9 17 33 18 24 38 20
3750.0 2 2 10 20 8 4 25 30 25 36
3790.0 44 32 34 36 28 31 37 22 11 30
3830.0 33 8 1 17 30
##END=
