##TITLE=trans-Stilbene
##JCAMP-DX=4.24
##DATA TYPE=INFRARED SPECTRUM
##ORIGIN=NIST Mass Spectrometry Data Center
##OWNER=NIST Standard Reference Data Program
Collection (C) 2018 copyright by the U.S. Secretary of Commerce
on behalf of the United States of America. All rights reserved.
##CAS REGISTRY NO=103-30-0
##MOLFORM=C 14 H 12
##$NIST SOURCE=MSDC-IR
##SPECTROMETER/DATA SYSTEM=HP-GC/MS/IRD
##STATE=gas
##XUNITS=1/CM
##YUNITS=ABSORBANCE
##XFACTOR=1.0
##YFACTOR=0.000003300
##DELTAX=4.0
##FIRSTX=550.0
##LASTX=3846.0
##FIRSTY=0.001013
##MAXX=3846
##MINX=550
##MAXY=0.033
##MINY=0
##NPOINTS=825
##XYDATA=(X++(Y..Y))
550.0 307 398 154 127 111 67 43 42 28 15
590.0 8 17 27 47 59 57 67 85 84 85
630.0 118 149 184 261 339 435 624 936 1324 1798
670.0 2465 3401 4685 6161 7636 8631 8528 7678 6437 5010
710.0 3733 2797 2157 1725 1499 1535 1867 2572 3739 5278
750.0 6856 8103 8307 7064 5324 3606 2187 1332 905 726
790.0 630 520 414 333 292 279 293 320 322 303
830.0 275 245 235 227 224 231 229 231 230 221
870.0 211 223 251 289 355 420 490 532 519 480
910.0 445 420 412 449 517 646 890 1307 1957 2822
950.0 3724 4486 4780 4282 3437 2572 1803 1309 988 761
990.0 610 525 495 488 496 502 547 659 900 1220
1030.0 1314 1058 640 382 342 398 516 654 769 799
1070.0 762 662 524 420 334 283 266 252 218 168
1110.0 111 63 53 36 11 20 10 7 19 19
1150.0 32 40 49 37 36 53 82 113 104 80
1190.0 45 32 24 27 55 69 76 85 104 111
1230.0 104 88 69 81 118 156 183 189 173 150
1270.0 128 124 140 152 157 165 176 174 174 182
1310.0 195 219 240 245 241 238 234 212 168 125
1350.0 119 134 149 159 167 175 177 169 156 144
1390.0 133 128 128 126 136 164 204 259 321 394
1430.0 476 586 748 964 1184 1280 1249 1133 923 749
1470.0 676 734 950 1381 2133 3137 3901 4025 3416 2398
1510.0 1455 815 530 438 404 409 421 398 343 293
1550.0 280 305 344 402 482 585 710 861 1102 1497
1590.0 2131 2990 3713 3744 2949 1811 949 541 379 317
1630.0 292 280 280 271 251 231 231 260 293 304
1670.0 281 241 216 220 238 238 221 196 183 186
1710.0 202 216 245 289 342 391 419 437 444 436
1750.0 421 379 328 298 304 360 451 564 713 885
1790.0 995 978 869 728 612 534 473 420 369 306
1830.0 239 200 193 203 227 267 324 403 472 518
1870.0 523 504 495 487 440 357 261 187 159 160
1910.0 185 230 301 390 470 546 612 643 658 677
1950.0 701 668 528 332 177 102 77 63 52 46
1990.0 44 38 31 27 25 24 26 25 20 14
2030.0 10 8 12 17 15 14 12 10 10 11
2070.0 13 9 4 8 13 12 4 0 4 6
2110.0 8 12 12 22 25 19 16 12 15 17
2150.0 19 18 20 31 33 31 35 33 29 30
2190.0 28 31 33 27 19 24 28 19 17 19
2230.0 24 24 28 29 28 38 37 35 33 33
2270.0 37 30 28 25 25 28 25 32 45 78
2310.0 120 129 105 83 77 80 84 82 85 81
2350.0 65 59 59 65 65 60 54 44 31 26
2390.0 37 40 38 41 39 42 41 39 36 36
2430.0 40 43 32 19 28 32 27 25 26 26
2470.0 24 24 19 19 27 30 35 34 32 38
2510.0 37 37 40 41 32 33 40 32 32 44
2550.0 47 42 43 47 51 57 62 63 65 73
2590.0 81 91 88 75 64 48 39 44 48 55
2630.0 53 45 36 37 41 32 25 19 27 44
2670.0 35 27 29 24 20 11 11 28 27 20
2710.0 25 22 10 11 18 18 19 16 25 28
2750.0 30 41 40 41 49 60 79 98 102 85
2790.0 86 92 86 78 75 79 85 100 107 109
2830.0 122 126 116 124 126 131 151 166 174 178
2870.0 178 178 198 225 256 293 312 315 301 291
2910.0 289 296 312 326 332 345 375 410 437 453
2950.0 455 453 442 425 427 435 447 464 489 521
2990.0 607 749 915 1154 1489 1937 2607 3632 5111 6981
3030.0 8607 9016 7926 6110 4754 4203 4244 5053 6920 9106
3070.0 10000 9004 7113 5851 5315 4820 4227 3590 2997 2435
3110.0 1862 1337 918 632 480 401 339 313 311 313
3150.0 310 282 232 183 150 113 78 88 99 77
3190.0 63 70 77 77 70 57 53 50 47 54
3230.0 56 53 62 61 42 39 32 31 39 34
3270.0 49 76 70 53 50 45 27 29 30 27
3310.0 39 43 31 30 48 39 28 29 38 48
3350.0 39 33 41 47 52 49 40 38 41 37
3390.0 41 44 44 66 61 39 42 49 40 28
3430.0 14 7 14 32 40 32 45 61 65 63
3470.0 58 53 41 24 16 11 22 35 30 32
3510.0 33 28 31 46 55 42 21 21 22 23
3550.0 40 45 43 49 38 37 36 27 30 50
3590.0 62 59 54 56 68 49 42 60 59 57
3630.0 61 63 76 79 83 90 66 56 59 58
3670.0 60 58 63 73 69 58 61 70 74 82
3710.0 102 98 66 75 96 79 73 53 36 47
3750.0 53 48 55 79 61 54 60 67 77 63
3790.0 41 47 53 52 59 45 50 54 48 75
3830.0 80 66 70 77 73
##END=
