##TITLE=Azobenzene
##JCAMP-DX=4.24
##DATA TYPE=INFRARED SPECTRUM
##ORIGIN=NIST Mass Spectrometry Data Center
##OWNER=NIST Standard Reference Data Program
Collection (C) 2018 copyright by the U.S. Secretary of Commerce
on behalf of the United States of America. All rights reserved.
##CAS REGISTRY NO=103-33-3
##MOLFORM=C 12 H 10 N 2
##$NIST SOURCE=MSDC-IR
##SPECTROMETER/DATA SYSTEM=HP-GC/MS/IRD
##STATE=gas
##XUNITS=1/CM
##YUNITS=ABSORBANCE
##XFACTOR=1.0
##YFACTOR=0.000001600
##DELTAX=4.0
##FIRSTX=550.0
##LASTX=3846.0
##FIRSTY=0.002704
##MAXX=3846
##MINX=550
##MAXY=0.016
##MINY=0
##NPOINTS=825
##XYDATA=(X++(Y..Y))
550.0 1690 1141 631 315 178 101 79 55 26 35
590.0 39 32 9 26 15 6 85 110 70 100
630.0 151 225 296 385 508 643 875 1205 1589 2098
670.0 2896 4120 5793 7606 9334 9991 9184 7643 5833 4163
710.0 2879 2049 1601 1436 1329 1282 1244 1208 1307 1603
750.0 2233 3383 5093 6983 8774 10000 9446 7663 5648 3639
790.0 2138 1248 786 564 499 478 425 359 277 262
830.0 240 160 153 160 147 186 254 333 393 391
870.0 345 316 297 276 269 272 291 331 380 466
910.0 587 710 823 910 873 777 681 575 476 346
950.0 250 210 167 159 163 171 217 239 286 351
990.0 422 513 652 825 996 1197 1623 2262 2496 2051
1030.0 1189 541 355 343 408 528 727 962 1148 1225
1070.0 1157 1013 820 618 497 432 398 383 352 299
1110.0 262 228 182 159 172 218 311 468 795 1466
1150.0 2229 2747 2661 1968 1144 499 213 130 104 109
1190.0 122 147 198 288 397 482 494 428 330 233
1230.0 176 173 165 139 130 136 161 184 227 303
1270.0 389 484 587 672 718 716 689 726 786 757
1310.0 591 371 246 216 194 189 179 138 120 127
1350.0 123 117 130 155 183 202 223 228 221 217
1390.0 194 169 162 149 153 179 196 228 284 352
1430.0 428 544 729 971 1256 1476 1500 1413 1222 1070
1470.0 1225 1844 2859 3521 3262 2224 1180 693 527 442
1510.0 407 415 424 430 408 338 267 218 190 175
1550.0 183 196 209 254 305 379 478 602 732 867
1590.0 969 986 881 696 515 377 294 247 210 173
1630.0 143 134 141 155 162 164 183 219 268 320
1670.0 359 378 385 400 417 405 332 232 178 154
1710.0 162 168 166 198 237 261 276 305 348 374
1750.0 356 336 316 300 301 313 317 336 416 544
1790.0 684 750 683 537 397 297 241 217 213 215
1830.0 203 187 173 159 156 180 198 206 236 273
1870.0 312 367 419 468 519 554 577 552 472 368
1910.0 280 229 233 273 321 382 461 537 603 650
1950.0 698 738 718 605 426 245 141 104 77 63
1990.0 53 55 47 31 44 54 51 48 45 53
2030.0 48 44 45 32 28 28 24 15 17 23
2070.0 11 5 6 10 16 22 33 21 12 13
2110.0 23 29 23 27 38 36 27 27 25 30
2150.0 33 32 32 22 19 26 13 0 11 27
2190.0 33 30 30 39 53 57 52 55 72 80
2230.0 77 73 62 48 48 62 55 36 21 18
2270.0 27 24 21 27 31 36 44 60 93 147
2310.0 210 241 209 144 113 117 111 103 89 67
2350.0 54 43 46 38 26 18 16 17 13 17
2390.0 9 1 8 14 11 17 30 29 27 26
2430.0 26 28 25 34 39 33 30 30 26 26
2470.0 28 26 22 14 11 17 11 7 4 3
2510.0 14 25 30 23 18 18 13 6 12 22
2550.0 22 24 16 25 28 26 40 54 69 92
2590.0 91 84 84 61 49 54 58 62 58 38
2630.0 35 41 34 22 32 49 49 52 50 46
2670.0 47 43 37 41 44 43 37 38 44 41
2710.0 46 54 70 88 95 121 139 138 131 115
2750.0 113 113 113 125 120 115 110 92 77 76
2790.0 65 54 62 77 75 57 52 58 58 66
2830.0 67 49 43 59 71 72 74 90 135 156
2870.0 156 153 152 166 173 191 191 179 168 150
2910.0 147 131 125 141 148 154 151 151 167 185
2950.0 198 201 189 165 147 153 155 146 166 176
2990.0 189 240 308 386 481 613 796 1022 1298 1617
3030.0 1958 2349 2773 3140 3377 3496 3688 4198 5128 6474
3070.0 7783 8416 8050 6909 5595 4503 3686 2974 2259 1618
3110.0 1130 787 579 446 360 296 236 200 200 198
3150.0 188 180 178 198 224 220 213 196 157 108
3190.0 97 98 88 78 71 61 47 50 46 43
3230.0 56 57 51 41 44 58 50 42 27 28
3270.0 40 47 44 32 49 51 37 36 27 32
3310.0 41 30 29 40 27 31 34 33 40 32
3350.0 27 33 43 55 54 39 42 65 55 36
3390.0 43 58 45 12 17 24 42 53 46 40
3430.0 54 63 57 51 38 45 41 33 31 29
3470.0 35 16 0 8 26 50 52 44 24 34
3510.0 44 52 46 29 29 28 42 45 51 58
3550.0 57 54 36 31 28 33 46 56 45 44
3590.0 45 34 49 71 73 69 90 103 95 74
3630.0 67 63 61 65 59 61 76 81 86 83
3670.0 74 69 66 80 95 92 94 126 136 118
3710.0 114 108 93 65 63 101 116 97 84 52
3750.0 62 79 75 85 85 74 60 60 61 67
3790.0 87 91 75 85 76 44 67 104 91 71
3830.0 53 46 73 90 93
##END=
