##TITLE=Benzyl cinnamate
##JCAMP-DX=4.24
##DATA TYPE=INFRARED SPECTRUM
##ORIGIN=NIST Mass Spectrometry Data Center
##OWNER=NIST Standard Reference Data Program
Collection (C) 2018 copyright by the U.S. Secretary of Commerce
on behalf of the United States of America. All rights reserved.
##CAS REGISTRY NO=103-41-3
##MOLFORM=C 16 H 14 O 2
##$NIST SOURCE=MSDC-IR
##SPECTROMETER/DATA SYSTEM=HP-GC/MS/IRD
##STATE=gas
##XUNITS=1/CM
##YUNITS=ABSORBANCE
##XFACTOR=1.0
##YFACTOR=0.000050000
##DELTAX=4.0
##FIRSTX=550.0
##LASTX=3846.0
##FIRSTY=0.002600
##MAXX=3846
##MINX=550
##MAXY=0.5
##MINY=0
##NPOINTS=825
##XYDATA=(X++(Y..Y))
550.0 52 73 70 132 229 341 381 338 289 263
590.0 236 205 173 138 102 71 48 33 21 12
630.0 6 6 10 17 28 48 79 125 192 287
670.0 410 564 737 909 1072 1237 1352 1337 1238 1120
710.0 997 894 834 814 809 801 803 850 952 1055
750.0 1099 1096 1087 1052 932 728 511 339 226 159
790.0 123 102 88 82 80 86 98 115 136 155
830.0 176 189 199 208 221 245 276 305 317 305
870.0 272 234 206 195 194 199 208 226 257 287
910.0 292 279 260 249 244 247 252 262 274 293
950.0 327 385 479 629 836 1073 1279 1394 1413 1371
990.0 1321 1320 1414 1596 1765 1853 1850 1738 1520 1243
1030.0 988 806 678 575 497 445 419 412 417 417
1070.0 398 364 338 328 334 351 370 384 394 406
1110.0 427 461 518 606 737 938 1246 1724 2511 3880
1150.0 6088 8709 10000 8535 5728 3593 2480 2042 1912 1868
1190.0 1982 2362 2698 2517 1991 1595 1418 1402 1553 1863
1230.0 2301 2837 3477 4122 4426 4106 3481 3117 3062 2958
1270.0 2706 2435 2175 1991 2050 2338 2600 2687 2811 3019
1310.0 2873 2305 1811 1532 1279 1035 859 722 600 517
1350.0 474 455 456 487 561 703 839 813 623 428
1390.0 313 252 218 196 183 174 170 172 182 199
1430.0 227 271 346 466 631 759 751 633 518 430
1470.0 353 292 258 264 323 469 668 732 556 318
1510.0 189 143 121 111 107 105 104 102 101 100
1550.0 101 104 111 130 158 204 265 313 304 253
1590.0 229 241 261 281 304 335 384 466 597 819
1630.0 1166 1606 1968 1996 1621 1119 742 535 425 358
1670.0 316 290 280 285 310 352 408 474 554 659
1710.0 813 1051 1440 2060 3009 4259 5462 5993 5470 4246
1750.0 2936 1933 1302 938 729 594 495 415 350 308
1790.0 287 274 251 215 181 158 146 139 133 128
1830.0 122 117 113 110 107 104 102 101 104 108
1870.0 113 117 117 113 107 98 85 70 58 50
1910.0 47 48 54 62 73 83 96 111 125 136
1950.0 142 140 128 108 84 65 55 50 48 46
1990.0 42 36 33 30 27 25 23 21 20 18
2030.0 17 16 15 15 14 14 15 16 17 20
2070.0 21 24 27 29 31 31 29 27 25 24
2110.0 23 22 22 20 20 19 18 16 16 15
2150.0 14 13 12 12 11 10 9 8 7 7
2190.0 6 5 6 5 6 6 5 6 5 6
2230.0 6 7 7 6 7 8 9 8 9 8
2270.0 9 8 9 9 8 9 10 11 12 15
2310.0 21 27 26 19 12 10 9 10 9 8
2350.0 7 5 4 3 1 1 0 0 0 0
2390.0 0 0 0 0 0 1 0 1 2 3
2430.0 4 3 4 4 6 5 6 5 6 5
2470.0 6 5 4 3 2 3 2 2 2 1
2510.0 2 1 2 1 2 2 1 2 1 1
2550.0 2 1 3 3 4 5 4 5 6 7
2590.0 8 8 9 10 9 9 8 7 8 7
2630.0 8 8 8 9 8 9 8 8 6 8
2670.0 6 5 6 6 5 6 7 6 6 7
2710.0 6 5 5 6 8 9 10 11 12 13
2750.0 12 11 12 12 14 16 19 21 24 27
2790.0 29 30 31 32 32 33 35 39 42 45
2830.0 47 46 44 41 40 41 43 46 51 57
2870.0 65 79 96 117 141 164 183 190 184 170
2910.0 155 142 136 138 146 161 184 215 257 313
2950.0 384 454 494 483 427 358 302 258 225 199
2990.0 178 164 158 165 185 220 272 347 456 602
3030.0 777 933 994 942 844 769 744 790 935 1197
3070.0 1443 1418 1151 916 797 715 629 542 468 403
3110.0 337 263 191 134 94 68 53 43 38 37
3150.0 35 35 33 29 24 20 18 15 13 10
3190.0 8 7 6 7 6 6 5 6 7 7
3230.0 6 5 6 7 6 5 6 5 5 6
3270.0 5 6 7 7 6 6 7 7 6 5
3310.0 6 6 6 5 7 7 7 8 9 9
3350.0 10 11 12 14 16 17 18 18 16 14
3390.0 13 12 11 10 11 10 11 12 15 18
3430.0 20 23 27 34 40 46 50 51 49 45
3470.0 39 34 29 25 22 19 17 14 12 11
3510.0 10 9 9 8 7 6 7 6 5 5
3550.0 6 7 7 6 5 6 7 6 6 7
3590.0 6 5 6 6 7 8 7 8 9 9
3630.0 8 10 12 15 16 15 15 16 15 14
3670.0 12 11 10 11 12 11 10 11 11 12
3710.0 11 9 8 9 8 9 7 7 8 7
3750.0 7 8 7 7 8 9 9 8 7 7
3790.0 9 9 8 8 7 7 8 7 8 9
3830.0 9 8 7 8 7
##END=
