##TITLE=p-Tolyl sulfide
##JCAMP-DX=4.24
##DATA TYPE=INFRARED SPECTRUM
##ORIGIN=EPA-IR VAPOR PHASE LIBRARY
##OWNER=SRD/NIST
Collection (C) 2018 copyright by the U.S. Secretary of Commerce
on behalf of the United States of America. All rights reserved.
##CAS REGISTRY NO=103-19-5
##MOLFORM=C 14 H 14 S 2
##$NIST SOURCE=MSDC-IR
##STATE=gas
##XUNITS=1/CM
##YUNITS=ABSORBANCE
##XFACTOR=1.
##YFACTOR=0.001
##DELTAX=1.92898
##FIRSTX=549.8
##LASTX=4000.7
##FIRSTY=1.1576
##MAXX=4000.7
##MINX=549.759
##MAXY=0.0926676
##MINY=0
##NPOINTS=1790
##XYDATA=(X++(Y..Y))
549.759 1.1576 1.0476 0.9689 1.1176 1.1876 1.1176 0.8202 0.8501 0.9302 0.7376
569.049 0.7128 0.731 0.7281 0.7975 0.8508 0.7913 0.8223 0.8589 0.8149 0.8277
588.339 0.8552 0.8377 0.8701 0.9774 1.0276 0.9414 1.0276 1.1176 1.1176 1.1976
607.628 1.2376 1.3276 1.4976 1.7176 1.9276 2.0676 2.1576 2.3276 2.4576 2.3976
626.918 2.3276 2.2676 2.1376 1.9876 1.8676 1.7876 1.5376 1.2976 1.2676 1.1676
646.208 1.1676 1.0676 0.8991 0.8609 0.8614 0.7972 0.7485 0.6953 0.6298 0.6723
665.498 0.7174 0.7352 0.6991 0.8186 0.9042 0.8677 0.8346 0.89 1.0776 1.2176
684.787 1.3176 1.3876 1.4976 1.6776 1.8876 2.1376 2.3876 2.6076 2.7976 2.9676
704.077 3.0376 2.9676 2.8076 2.5976 2.3676 2.1476 1.9376 1.7576 1.7176 1.5876
723.367 1.4676 1.4076 1.3176 1.2376 1.1876 1.2576 1.3476 1.2976 1.1876 1.1876
742.657 1.2976 1.3676 1.4076 1.4776 1.5176 1.6376 1.9476 2.2476 2.4776 2.8176
761.947 3.2476 3.7276 4.3476 5.1576 6.1876 7.3576 8.6976 10.3576 12.2876 14.5976
781.236 17.3276 20.3076 23.7276 27.6876 31.9976 36.8076 42.3376 48.8276 56.3876 64.8876
800.526 73.1476 79.5476 82.6476 81.3976 75.8676 67.1476 57.2876 47.8676 39.6576 32.9576
819.816 27.4576 22.9976 19.3476 16.3876 13.7876 11.4976 9.6776 8.1976 6.9576 5.8676
839.106 5.0876 4.3576 3.7576 3.3676 2.9876 2.6676 2.4776 2.3676 2.2076 2.0476
858.395 1.9676 1.8976 1.9176 1.9476 1.8676 1.7776 1.8076 1.8976 1.9176 1.8776
877.685 1.8376 1.7176 1.6176 1.5876 1.5076 1.4076 1.3676 1.3476 1.3476 1.3676
896.975 1.3476 1.2976 1.2476 1.2376 1.2176 1.1876 1.1576 1.1376 1.1976 1.3076
916.265 1.3776 1.3376 1.3176 1.2776 1.2576 1.4076 1.5376 1.5676 1.6776 1.8376
935.555 1.8976 1.8676 1.8576 1.8276 1.7476 1.6876 1.6376 1.6076 1.6176 1.5976
954.844 1.5576 1.6276 1.7076 1.6976 1.8176 1.9076 1.9476 2.0776 2.1376 2.1976
974.134 2.1476 2.0976 2.1976 2.2076 2.1576 2.1676 2.1876 2.1776 2.1576 2.2576
993.424 2.5176 2.8476 3.1876 3.7576 4.7076 5.9876 7.9676 10.9276 15.2376 21.0976
1012.714 27.0876 30.9976 31.9276 30.4476 26.4776 20.1576 13.8276 9.5676 7.1476 5.8876
1032.003 5.3276 5.1576 5.1176 5.0376 5.1776 5.4876 5.6276 5.6476 5.6576 5.6376
1051.293 5.6376 5.6276 5.6376 5.7476 5.8176 5.7876 6.0476 6.2076 6.3376 6.7476
1070.583 7.0276 7.5476 8.2376 8.9876 9.7876 10.3676 10.4876 10.2976 10.0176 9.3776
1089.873 8.5976 7.9376 7.7076 7.8776 8.1476 8.2876 8.5376 8.7176 8.8076 9.0976
1109.163 9.1976 9.3676 9.5176 9.3476 9.0676 8.6176 7.8176 6.9676 6.2476 5.3876
1128.452 4.6776 4.0376 3.3576 2.9876 2.7076 2.5476 2.4876 2.2376 2.0176 1.9776
1147.742 1.8976 1.7276 1.6876 1.7176 1.6376 1.5876 1.7176 1.8976 1.9576 2.0676
1167.032 2.2576 2.5976 3.4676 5.2476 8.8076 13.3876 16.3776 17.6476 17.8676 16.2176
1186.322 12.3576 8.2676 5.9576 5.3976 5.5276 5.8976 6.9076 8.0476 8.9676 9.8176
1205.611 10.4076 10.2876 9.7976 9.1276 8.2576 7.7176 7.4676 7.3876 7.5076 7.4176
1224.901 7.0976 6.8076 6.2776 5.6476 5.0776 4.4776 4.0076 3.5376 3.1876 2.9976
1244.191 2.7676 2.6276 2.6876 2.6376 2.5576 2.5576 2.5376 2.5276 2.5776 2.5776
1263.481 2.4876 2.4376 2.3576 2.3376 2.3276 2.2476 2.2976 2.3376 2.2976 2.3576
1282.771 2.4876 2.6776 2.9276 3.1276 3.3876 3.8276 4.2676 4.6876 5.0876 5.4076
1302.060 5.4876 5.3676 5.1476 4.8576 4.4976 4.1476 3.8476 3.5876 3.3776 3.2276
1321.350 3.1476 3.0976 3.0776 3.0876 3.0876 3.1076 3.1376 3.1776 3.1876 3.1676
1340.640 3.1576 3.1876 3.1876 3.1576 3.1276 3.1276 3.1776 3.1976 3.2276 3.2976
1359.930 3.3876 3.4876 3.6176 3.8076 4.0076 4.2376 4.5976 5.0376 5.5576 6.1776
1379.219 6.8576 7.5676 8.2976 9.0276 9.7476 10.4376 11.1076 11.8276 12.5376 13.1976
1398.509 13.7076 14.0076 14.1176 13.9776 13.6776 13.3376 12.9376 12.5676 12.2676 12.0276
1417.799 11.8376 11.6676 11.4676 11.2776 11.0476 10.7476 10.4176 10.0876 9.7776 9.5276
1437.089 9.2876 9.0276 8.7876 8.6476 8.5876 8.5976 8.7076 8.8976 9.1476 9.4476
1456.378 9.8076 10.3076 10.9676 11.7976 12.9176 14.3276 15.9876 18.0176 20.6376 24.1376
1475.668 28.6876 34.7576 42.5376 52.3976 64.0976 76.4376 87.0176 92.6676 92.0776 86.1076
1494.958 75.5676 61.5776 47.7676 37.0676 29.9376 25.1476 21.4476 18.4076 15.9276 13.7976
1514.248 12.0376 10.6476 9.5476 8.7576 8.1376 7.6076 7.1876 6.8476 6.5576 6.2676
1533.538 5.9976 5.7876 5.6476 5.4376 5.2476 5.0976 4.9676 4.9176 4.9176 4.9376
1552.827 4.9976 5.0676 5.1776 5.3076 5.4976 5.6776 5.8676 6.0176 6.1176 6.1676
1572.117 6.2276 6.2576 6.2876 6.3476 6.4476 6.6776 6.9576 7.2376 7.6176 8.0376
1591.407 8.3676 8.6376 8.7976 8.8776 8.7276 8.4676 8.2076 7.8776 7.6576 7.4676
1610.697 7.3076 7.2476 7.2176 7.2476 7.3376 7.3776 7.3976 7.4476 7.4576 7.4576
1629.986 7.3776 7.1776 6.8576 6.4076 5.8976 5.3676 4.7976 4.2576 3.7876 3.4276
1649.276 3.1376 2.8976 2.6876 2.4876 2.3576 2.2376 2.0876 1.9376 1.8376 1.7776
1668.566 1.7176 1.6576 1.5876 1.4876 1.4376 1.3776 1.2876 1.2676 1.2476 1.2276
1687.856 1.2076 1.2076 1.1976 1.1876 1.1876 1.1876 1.1876 1.1376 1.1076 1.1176
1707.146 1.0976 1.0776 1.0776 1.0476 1.0576 1.0576 1.0876 1.1376 1.1776 1.2376
1726.435 1.3076 1.3976 1.5176 1.6376 1.7776 1.9176 1.9576 2.0276 2.1076 2.0976
1745.725 2.1076 2.1076 2.0776 2.0576 2.0076 1.9976 2.0276 2.0776 2.1576 2.3176
1765.015 2.5176 2.7776 3.1676 3.5576 3.9876 4.4376 4.7676 4.9576 4.9376 4.6576
1784.305 4.1776 3.5776 2.9076 2.3076 1.8376 1.4576 1.2376 1.1076 1.0039 0.9588
1803.594 0.9233 0.8657 0.8179 0.8177 0.7817 0.7327 0.7576 0.7807 0.751 0.7552
1822.884 0.7956 0.8287 0.8373 0.8293 0.8633 0.8985 0.9145 0.9776 1.0376 1.1076
1842.174 1.1976 1.2876 1.4276 1.5476 1.6676 1.7576 1.8076 1.8976 1.9776 2.0576
1861.464 2.1876 2.3676 2.5576 2.7776 3.0776 3.3676 3.6676 3.9976 4.2976 4.6076
1880.754 4.9476 5.2676 5.5376 5.7876 5.9776 6.0576 6.0276 5.8876 5.6276 5.2776
1900.043 4.8376 4.3476 3.8676 3.3776 2.8976 2.4976 2.2076 1.9476 1.7176 1.5476
1919.333 1.3876 1.2476 1.1476 1.0376 0.9657 0.9281 0.8906 0.8707 0.8212 0.7419
1938.623 0.7214 0.7382 0.7406 0.7236 0.6968 0.7084 0.7219 0.7231 0.7167 0.7075
1957.913 0.7393 0.7588 0.7366 0.7166 0.7267 0.7256 0.7338 0.7511 0.7557 0.7844
1977.202 0.783 0.7618 0.7648 0.7665 0.7756 0.7806 0.7822 0.7763 0.7692 0.7954
1996.492 0.7938 0.7925 0.8238 0.8181 0.8018 0.7917 0.7689 0.7494 0.7239 0.657
2015.782 0.6151 0.6049 0.5585 0.5035 0.4715 0.481 0.4513 0.4264 0.4399 0.4201
2035.072 0.3631 0.3304 0.3462 0.3474 0.3512 0.3389 0.3142 0.3164 0.3355 0.3225
2054.362 0.3008 0.3035 0.3055 0.3378 0.3603 0.3493 0.3485 0.3568 0.3735 0.3727
2073.651 0.396 0.4248 0.4081 0.4327 0.4833 0.4859 0.4954 0.5024 0.5125 0.5496
2092.941 0.5599 0.5529 0.5777 0.5956 0.5914 0.5962 0.5793 0.511 0.4336 0.3908
2112.231 0.3813 0.3896 0.3639 0.3398 0.3243 0.3088 0.3193 0.3375 0.3192 0.328
2131.521 0.3209 0.2857 0.2877 0.2851 0.3011 0.319 0.3111 0.2976 0.3063 0.3381
2150.810 0.37 0.395 0.4169 0.4209 0.4398 0.5003 0.5495 0.5967 0.6172 0.6282
2170.100 0.632 0.6044 0.604 0.6214 0.6224 0.5938 0.5909 0.5863 0.5818 0.5655
2189.390 0.5099 0.5116 0.535 0.5156 0.4979 0.497 0.5005 0.5025 0.4896 0.4555
2208.680 0.4543 0.4196 0.3888 0.4118 0.4156 0.4306 0.458 0.4625 0.443 0.4503
2227.970 0.4602 0.4282 0.3985 0.392 0.4076 0.4299 0.4564 0.4565 0.4468 0.4821
2247.259 0.4808 0.467 0.4633 0.456 0.4665 0.4617 0.4456 0.4365 0.4477 0.4226
2266.549 0.4292 0.4682 0.4825 0.5373 0.5915 0.5964 0.638 0.7071 0.7466 0.822
2285.839 0.9228 0.9913 1.0059 1.0576 1.1576 1.2276 1.2376 1.2176 1.1776 1.1476
2305.129 1.1176 1.0376 0.9795 0.9637 0.9408 0.8977 0.8682 0.8163 0.7223 0.6947
2324.418 0.7224 0.7075 0.6501 0.6036 0.5773 0.5578 0.5327 0.5171 0.4948 0.4908
2343.708 0.4994 0.4917 0.5302 0.5663 0.5519 0.5742 0.6039 0.6316 0.6369 0.6427
2362.998 0.6845 0.7001 0.7087 0.6969 0.7319 0.7878 0.7698 0.7875 0.8382 0.8601
2382.288 0.8994 0.9107 0.8997 0.895 0.9074 0.9034 0.8985 0.9052 0.888 0.8977
2401.578 0.9455 0.9638 0.9079 0.8391 0.9078 0.9886 0.9575 0.9381 0.9174 0.88
2420.867 0.8427 0.7635 0.7323 0.7255 0.698 0.7061 0.6798 0.6662 0.6827 0.6385
2440.157 0.626 0.6363 0.675 0.6806 0.6211 0.6384 0.6621 0.6461 0.6198 0.6342
2459.447 0.6402 0.6705 0.7173 0.7047 0.6393 0.6297 0.6453 0.6203 0.6516 0.6696
2478.737 0.6636 0.639 0.5944 0.5767 0.6302 0.6892 0.6503 0.6337 0.655 0.6422
2498.026 0.6673 0.7102 0.6733 0.6358 0.7122 0.7472 0.7459 0.7622 0.6742 0.6153
2517.316 0.6289 0.6166 0.5568 0.5374 0.5564 0.5593 0.5413 0.5167 0.4987 0.4937
2536.606 0.5658 0.5974 0.5681 0.5748 0.5641 0.5484 0.6107 0.6553 0.6695 0.7102
2555.896 0.7795 0.8279 0.8699 0.9371 1.004 1.1076 1.1576 1.1776 1.2076 1.2476
2575.186 1.3076 1.3476 1.3776 1.3976 1.3676 1.3976 1.3776 1.3476 1.3176 1.2376
2594.475 1.1676 1.1476 1.1176 1.0776 1.0676 1.0376 1.0876 1.1376 1.0676 1.0025
2613.765 0.9468 0.8849 0.812 0.7559 0.6876 0.5634 0.5301 0.5759 0.5907 0.5857
2633.055 0.5624 0.5342 0.5468 0.5493 0.5581 0.5527 0.5182 0.5395 0.5897 0.5989
2652.345 0.5931 0.6385 0.6526 0.6589 0.6923 0.7355 0.8004 0.8345 0.9018 0.9657
2671.634 0.992 1.0476 1.0876 1.0376 0.9986 0.9733 0.9294 0.906 0.9016 0.9061
2690.924 0.8727 0.8471 0.8279 0.8188 0.7798 0.7608 0.7869 0.7495 0.7365 0.7313
2710.214 0.7073 0.7566 0.8057 0.7884 0.8137 0.893 0.9594 1.0376 1.0676 1.1676
2729.504 1.3176 1.4976 1.7476 2.0376 2.3776 2.6476 2.8376 2.9476 2.9076 2.7376
2748.794 2.4676 2.1776 1.9076 1.6476 1.4276 1.3276 1.2576 1.1976 1.1376 1.1276
2768.083 1.1176 1.1176 1.1476 1.2076 1.2676 1.3076 1.3776 1.4276 1.5176 1.5976
2787.373 1.6276 1.6676 1.7176 1.7376 1.7476 1.7776 1.7676 1.7376 1.7676 1.8276
2806.663 1.8876 1.9376 1.9276 1.9876 2.0576 2.1276 2.2576 2.3876 2.4676 2.5976
2825.953 2.7876 2.9076 3.0776 3.3176 3.5676 3.8076 4.0976 4.5076 4.8676 5.2376
2845.242 5.6776 6.1776 6.8176 7.5676 8.3976 9.2876 10.3376 11.5376 12.8576 14.3376
2864.532 15.9776 17.6976 19.3376 20.8576 22.1576 23.2676 24.1376 24.5876 24.7176 24.6776
2883.822 24.4276 23.9276 23.3576 22.6476 21.8476 21.1876 20.6276 20.0876 19.6076 19.3276
2903.112 19.2076 19.2676 19.5476 20.0376 20.7976 21.8176 23.1676 24.8776 26.9876 29.7076
2922.401 32.9076 36.6676 41.0276 45.6276 49.9376 53.0876 54.5076 53.8776 51.1476 46.8276
2941.691 41.4476 35.8476 30.8476 26.7776 23.6876 21.3776 19.7676 18.5276 17.5976 16.9476
2960.981 16.4276 16.0776 15.8676 15.8076 15.7876 15.7976 15.9076 15.9876 16.1176 16.2476
2980.271 16.3576 16.5476 16.7676 16.9276 17.1876 17.4576 17.7876 18.1976 18.6476 19.2576
2999.561 19.9176 20.7376 21.6876 22.7676 24.1576 25.7776 27.7276 30.1776 33.1776 36.8176
3018.850 40.9776 45.1276 48.6676 50.8876 51.2976 50.0476 47.4476 44.0276 40.5276 37.7776
3038.140 35.9576 34.6676 33.7576 33.2376 32.8876 32.7876 33.1376 33.6176 34.0576 34.1776
3057.430 33.6176 32.3676 30.6976 28.9176 27.2576 26.2476 25.8776 25.6976 25.5476 25.1976
3076.720 24.4776 23.3776 21.9376 20.2876 18.5576 16.7976 15.1576 13.7776 12.5576 11.4076
3096.009 10.3376 9.3876 8.5176 7.7176 6.8476 6.0676 5.4076 4.6676 3.9876 3.5576
3115.299 3.2076 2.8176 2.5576 2.3276 2.1376 1.9376 1.7476 1.5876 1.5776 1.5976
3134.589 1.3876 1.3376 1.3476 1.2776 1.1876 1.1476 1.1476 1.0476 0.9805 0.9224
3153.879 0.8736 0.8987 0.8725 0.8412 0.849 0.7822 0.7087 0.7205 0.7234 0.6937
3173.169 0.5913 0.5041 0.5194 0.6195 0.7272 0.6885 0.5755 0.574 0.6345 0.629
3192.458 0.5756 0.5464 0.5401 0.4494 0.4057 0.4464 0.4266 0.4177 0.4272 0.3863
3211.748 0.4079 0.4302 0.3716 0.3281 0.3272 0.285 0.2739 0.2813 0.2752 0.3069
3231.038 0.3002 0.3691 0.3891 0.3206 0.3719 0.4171 0.3387 0.3187 0.3272 0.3546
3250.328 0.3494 0.3138 0.2914 0.2934 0.3081 0.3107 0.3292 0.2765 0.2887 0.3387
3269.617 0.3542 0.3632 0.2996 0.2643 0.2895 0.285 0.2566 0.2319 0.2602 0.2817
3288.907 0.2377 0.219 0.2452 0.2674 0.2684 0.2981 0.3018 0.2893 0.2596 0.2696
3308.197 0.2411 0.1952 0.2998 0.2881 0.237 0.3175 0.324 0.2232 0.1944 0.3125
3327.487 0.3822 0.2417 0.233 0.3351 0.3137 0.3637 0.4637 0.5177 0.5433 0.4505
3346.777 0.3131 0.3888 0.3776 0.2037 0.2637 0.3186 0.2324 0.229 0.3247 0.3152
3366.066 0.2355 0.177 0.1203 0.1773 0.2272 0.1926 0.1612 0.2105 0.2757 0.2334
3385.356 0.1344 0.1605 0.2671 0.2691 0.2905 0.2672 0.2835 0.3229 0.3371 0.3386
3404.646 0.2593 0.1908 0.1792 0.2385 0.2596 0.222 0.245 0.2695 0.2114 0.09662
3423.936 0.04645 0.07751 0.1919 0.2468 0.1739 0.2577 0.2133 0.1605 0.1743 0.11393
3443.225 0.0934 0.11694 0.1759 0.2016 0.2359 0.1902 0.2444 0.2304 0.1447 0.1851
3462.515 0.1758 0.184 0.10239 0.09739 0.1291 0.09278 0.1377 0.1408 0.1468 0.1665
3481.805 0.1198 0.0928 0.1299 0.1513 0.188 0.1195 0.01462 0.04251 0.06411 0.06165
3501.095 0.04379 0.04691 0.04363 0.026926 0.0024 0 0.0794 0.09055 0.04936 0.06156
3520.385 0.08207 0.04144 0.08446 0.06458 0.024324 0.0828 0.04705 0.04543 0.11271 0.1766
3539.674 0.1501 0.1357 0.1778 0.1777 0.2263 0.1931 0.2129 0.2533 0.1701 0.1211
3558.964 0.07729 0.1555 0.09976 0.11655 0.1793 0.1836 0.1935 0.10156 0.1803 0.1392
3578.254 0.0675 0.1634 0.09154 0.026294 0.1715 0.2256 0.188 0.1669 0.1945 0.2185
3597.544 0.1525 0.1716 0.2183 0.2165 0.2133 0.1549 0.1189 0.10722 0.08919 0.05493
3616.833 0.06191 0.1304 0.10289 0.1953 0.219 0.1426 0.1344 0.1768 0.2715 0.2396
3636.123 0.1887 0.2651 0.3225 0.3444 0.3543 0.3496 0.4364 0.4658 0.4837 0.5616
3655.413 0.619 0.6919 0.7112 0.6735 0.6274 0.5688 0.5571 0.5833 0.6371 0.5833
3674.703 0.4809 0.3896 0.4201 0.4805 0.3986 0.3039 0.3237 0.3647 0.3903 0.3852
3693.993 0.3279 0.3913 0.3961 0.3432 0.3871 0.3528 0.3081 0.3885 0.4536 0.3845
3713.282 0.2637 0.2706 0.3355 0.3523 0.293 0.2461 0.2345 0.2547 0.3138 0.3377
3732.572 0.3269 0.1898 0.1991 0.2337 0.239 0.24 0.1346 0.1707 0.1934 0.1202
3751.862 0.1872 0.2567 0.1825 0.1771 0.1719 0.1498 0.11214 0.1206 0.1779 0.1895
3771.152 0.1424 0.08125 0.1312 0.2014 0.1846 0.164 0.231 0.2704 0.2568 0.2628
3790.441 0.1497 0.06607 0.1554 0.2328 0.2261 0.1345 0.1723 0.286 0.2991 0.313
3809.731 0.2465 0.2062 0.2341 0.2226 0.2188 0.2881 0.2762 0.281 0.3962 0.4961
3829.021 0.4121 0.3596 0.4189 0.3745 0.3485 0.4022 0.4647 0.4287 0.3628 0.3627
3848.311 0.3261 0.3858 0.4752 0.4336 0.4282 0.5341 0.6184 0.5482 0.5266 0.6151
3867.601 0.6854 0.5905 0.5685 0.6371 0.6543 0.6584 0.5928 0.5689 0.5309 0.4595
3886.890 0.4872 0.4977 0.5731 0.5735 0.544 0.5639 0.5676 0.5132 0.3889 0.3283
3906.180 0.2396 0.2867 0.4599 0.4728 0.3887 0.3651 0.3106 0.3332 0.3679 0.287
3925.470 0.2784 0.3554 0.3505 0.299 0.3972 0.4104 0.3422 0.317 0.1615 0.1529
3944.760 0.2781 0.3612 0.3387 0.2375 0.2849 0.3203 0.3266 0.3532 0.4184 0.4354
3964.049 0.31 0.2409 0.266 0.3157 0.322 0.3692 0.4345 0.4093 0.3936 0.5526
3983.339 0.6054 0.5037 0.4421 0.3761 0.3148 0.2969 0.3643 0.4724 0.4555 0.4941
##END=
