##TITLE=N-Isobutylmorpholine
##JCAMP-DX=4.24
##DATA TYPE=INFRARED SPECTRUM
##ORIGIN=EPA-IR VAPOR PHASE LIBRARY
##OWNER=SRD/NIST
Collection (C) 2018 copyright by the U.S. Secretary of Commerce
on behalf of the United States of America. All rights reserved.
##CAS REGISTRY NO=10315-98-7
##MOLFORM=C 8 H 17 N O
##$NIST SOURCE=MSDC-IR
##STATE=gas
##XUNITS=1/CM
##YUNITS=ABSORBANCE
##XFACTOR=1.
##YFACTOR=0.001
##DELTAX=1.92934
##FIRSTX=549.9
##LASTX=3999.5
##FIRSTY=0.04
##MAXX=3999.53
##MINX=549.863
##MAXY=0.29262
##MINY=0
##NPOINTS=1789
##XYDATA=(X++(Y..Y))
549.863 0.04 0.04 0.29 0.34 0.13 0.27 0.45 0.47 0.54 0.63
569.156 0.7 0.56 0.55 0.6 0.54 0.38 0.2 0.1 0.1 0.23
588.450 0.35 0.3 0.18 0.2 0.29 0.37 0.44 0.66 0.81 0.82
607.743 1.09 1.356 1.729 2.4103 3.058 3.88 5.17 6.67 8.25 9.59
627.037 10.38 10.88 10.97 10.85 10.62 9.81 8.43 6.73 5.11 3.9
646.330 3.0624 2.3955 1.977 1.769 1.5 1.251 1.08 0.94 0.82 0.7
665.624 0.66 0.64 0.52 0.51 0.51 0.44 0.44 0.44 0.45 0.45
684.917 0.39 0.38 0.46 0.46 0.45 0.49 0.51 0.52 0.51 0.48
704.210 0.47 0.45 0.46 0.46 0.44 0.44 0.43 0.35 0.37 0.44
723.504 0.49 0.53 0.57 0.62 0.68 0.75 0.8 0.85 0.94 1.01
742.797 1.04 1.1 1.186 1.277 1.361 1.43 1.521 1.617 1.688 1.852
762.091 2.0219 2.17972 2.4361 2.7394 3.1067 3.47 3.96 4.55 5.19 5.94
781.384 6.69 7.54 8.56 9.62 10.62 11.58 12.33 12.84 13.18 13.15
800.678 12.8 12.2 11.31 10.22 9.17 8.21 7.32 6.61 6.05 5.67
819.971 5.41 5.13 4.88 4.71 4.63 4.67 4.73 4.85 5.1 5.4
839.264 5.77 6.26 6.94 7.79 8.97 10.75 13.26 16.81 21.71 27.98
858.558 34.99 41.32 45.74 48.43 49.82 49.66 48.51 45.93 40.32 32.98
877.851 26.38 21.64 18.78 17.15 16.36 16.1 16.14 16.15 16.01 15.84
897.145 15.52 14.99 14.26 13.33 12.24 11.14 10.2 9.53 9.18 9.08
916.438 9.19 9.48 9.93 10.54 11.17 11.79 12.42 12.78 12.96 13.23
935.732 13.37 13.17 12.76 12.18 11.53 10.91 10.35 9.82 9.35 8.88
955.025 8.43 8 7.55 7.14 6.84 6.62 6.37 6.13 5.97 5.95
974.318 6.05 6.22 6.48 6.79 7.23 7.69 8.17 8.96 10 11.41
993.612 13.45 16.31 20.22 25.41 31.92 39.42 47.32 54.55 59.99 63.01
1012.905 63.85 62.98 60.53 56.57 50.87 43.34 35.29 28.62 24.05 21.17
1032.199 19.26 17.82 16.46 15.1 13.78 12.44 11.22 10.24 9.57 9.18
1051.492 9.07 9.31 9.79 10.47 11.45 12.75 14.16 15.55 16.91 18.07
1070.786 18.97 19.6 20.15 20.69 21.07 21.38 21.72 22.39 23.65 25.49
1090.079 28.13 31.6 35.84 40.85 46.54 52.9 59.93 67.81 76.45 85.58
1109.372 95.28 105.6 116.73 128.44 140.36 152.12 162.92 171.75 177.86 180.98
1128.666 180.99 177.57 170.62 160.77 148.79 135.65 122.33 109.53 97.74 87.15
1147.959 77.77 69.32 61.43 53.94 46.89 40.4 34.61 29.45 24.95 21.16
1167.253 18.11 15.8 13.91 12.3 11.11 10.35 9.72 9.2 8.83 8.76
1186.546 8.77 8.54 8.46 8.71 8.72 8.91 9.34 9.27 9.13 9.1
1205.840 9.01 8.75 8.5 8.21 7.82 7.61 7.6 7.31 7.08 7.2
1225.133 7.56 8.04 8.76 10 11.28 12.81 14.53 16.27 18.12 19.78
1244.426 21.2 22.4 23.35 24.01 24.33 24.48 24.43 24.16 23.89 23.81
1263.720 23.93 24.25 24.81 25.54 26.42 27.43 28.7 30.22 31.75 33.21
1283.013 34.76 36.15 37.38 38.4 38.97 39.1 38.79 38.15 37.09 35.62
1302.307 33.86 32.05 30.29 28.58 27.08 25.71 24.39 23.12 21.99 21.2
1321.600 20.72 20.56 20.66 20.92 21.3 21.65 21.93 22.16 22.33 22.47
1340.894 22.65 22.96 23.46 24.23 25.22 26.4 27.63 28.82 29.97 31.07
1360.187 32.11 32.97 33.61 34.16 34.76 35.4 35.83 35.92 35.57 34.71
1379.480 33.59 32.5 31.36 30.27 29.05 27.73 26.64 25.85 25.13 24.28
1398.774 23.21 21.84 20.29 18.57 16.5 14.29 12.35 10.85 9.81 9.15
1418.067 8.81 8.67 8.74 9.01 9.48 10.12 11.01 12.2 13.71 15.6
1437.361 17.84 20.23 22.68 25.1 27.68 30.33 32.98 35.65 38.05 39.91
1456.654 41.36 42.51 43.26 43.26 42.47 41.16 39.22 36.69 33.8 30.69
1475.948 27.57 24.43 21.23 18.07 15.26 12.81 10.74 9.01 7.67 6.65
1495.241 5.79 5.11 4.62 4.22 3.9 3.68 3.51 3.31 3.13 3.0226
1514.534 2.9484 2.8617 2.784 2.6917 2.5907 2.4971 2.4021 2.3095 2.2471 2.18426
1533.828 2.0844 2.005 1.967 1.88 1.781 1.779 1.758 1.704 1.676 1.617
1553.121 1.56 1.489 1.428 1.413 1.414 1.445 1.412 1.381 1.406 1.394
1572.415 1.383 1.415 1.447 1.433 1.445 1.494 1.493 1.489 1.524 1.527
1591.708 1.49 1.494 1.544 1.541 1.508 1.503 1.5 1.494 1.468 1.479
1611.002 1.487 1.435 1.411 1.412 1.41 1.444 1.481 1.441 1.38 1.359
1630.295 1.39 1.416 1.411 1.443 1.493 1.498 1.521 1.545 1.518 1.497
1649.588 1.485 1.517 1.533 1.516 1.513 1.526 1.548 1.528 1.542 1.535
1668.882 1.466 1.444 1.457 1.453 1.439 1.452 1.482 1.489 1.479 1.457
1688.175 1.483 1.511 1.509 1.501 1.502 1.509 1.489 1.435 1.438 1.497
1707.469 1.522 1.538 1.523 1.506 1.498 1.513 1.513 1.507 1.583 1.603
1726.762 1.545 1.488 1.469 1.517 1.549 1.513 1.452 1.404 1.383 1.358
1746.056 1.303 1.299 1.292 1.235 1.18 1.159 1.165 1.178 1.167 1.126
1765.349 1.121 1.112 1.1 1.122 1.1 1.1 1.1 1.132 1.158 1.183
1784.642 1.225 1.214 1.198 1.22 1.227 1.227 1.228 1.199 1.151 1.16
1803.936 1.18 1.164 1.172 1.161 1.118 1.07 1.03 1 0.97 0.97
1823.229 0.98 0.95 0.97 0.96 0.96 0.98 0.95 0.94 0.97 0.96
1842.523 0.96 1 0.98 0.97 0.99 1 1.05 1.07 1.1 1.136
1861.816 1.142 1.187 1.197 1.2 1.249 1.268 1.302 1.347 1.351 1.379
1881.110 1.405 1.427 1.396 1.426 1.502 1.526 1.559 1.585 1.631 1.638
1900.403 1.684 1.694 1.703 1.725 1.752 1.819 1.858 1.875 1.905 1.958
1919.696 1.978 2.035 2.1023 2.17077 2.2271 2.2529 2.3016 2.3034 2.2983 2.3279
1938.990 2.2974 2.2453 2.19975 2.16025 2.10319 2.0469 2.0325 2.0387 2.0472 2.0773
1958.283 2.10996 2.20631 2.3366 2.4061 2.5287 2.6809 2.8402 3.0478 3.18 3.21
1977.577 3.29 3.37 3.4 3.38 3.36 3.28 3.15 3.0189 2.8661 2.7329
1996.870 2.5716 2.3666 2.18586 2.0138 1.896 1.774 1.636 1.584 1.515 1.424
2016.164 1.388 1.364 1.321 1.273 1.257 1.225 1.186 1.159 1.128 1.134
2035.457 1.171 1.171 1.153 1.149 1.174 1.201 1.204 1.233 1.256 1.286
2054.750 1.296 1.297 1.287 1.276 1.307 1.328 1.341 1.364 1.38 1.376
2074.044 1.414 1.399 1.428 1.497 1.502 1.541 1.583 1.626 1.628 1.637
2093.337 1.667 1.692 1.699 1.663 1.62 1.582 1.545 1.512 1.503 1.489
2112.631 1.432 1.406 1.414 1.403 1.388 1.401 1.445 1.44 1.385 1.44
2131.924 1.479 1.44 1.433 1.428 1.441 1.479 1.514 1.531 1.516 1.464
2151.218 1.459 1.503 1.514 1.509 1.504 1.52 1.568 1.57 1.518 1.476
2170.511 1.468 1.469 1.472 1.473 1.466 1.473 1.459 1.426 1.429 1.455
2189.804 1.477 1.494 1.5 1.486 1.509 1.529 1.534 1.528 1.482 1.482
2209.098 1.526 1.517 1.513 1.547 1.553 1.552 1.551 1.596 1.661 1.664
2228.391 1.707 1.784 1.826 1.841 1.874 1.957 1.995 2 2.0186 2.0363
2247.685 2.0773 2.0836 2.0706 2.0794 2.0912 2.10543 2.0389 1.984 1.997 2.0181
2266.978 2.0211 1.991 1.986 1.994 2 2.0339 2.0511 2.0396 2.0569 2.0885
2286.272 2.0852 2.0826 2.0404 2.0229 2.0287 2.0399 2.0808 2.0769 2.0735 2.0885
2305.565 2.0777 2.0538 1.989 1.937 1.952 1.934 1.891 1.853 1.81 1.773
2324.858 1.741 1.681 1.623 1.609 1.586 1.544 1.514 1.503 1.461 1.426
2344.152 1.442 1.419 1.38 1.369 1.4 1.415 1.427 1.514 1.557 1.584
2363.445 1.624 1.685 1.768 1.809 1.841 1.87 1.949 2.0347 2.0709 2.10185
2382.739 2.0999 2.10944 2.14139 2.14105 2.12429 2.11998 2.13372 2.12204 2.0924 2.0842
2402.032 2.076 2.0454 2.0253 2.0255 1.991 1.931 1.892 1.849 1.795 1.745
2421.326 1.712 1.694 1.714 1.727 1.679 1.594 1.54 1.556 1.541 1.533
2440.619 1.571 1.605 1.642 1.646 1.674 1.716 1.745 1.764 1.764 1.813
2459.912 1.912 1.97 1.989 2.0359 2.0982 2.13654 2.14572 2.19966 2.2372 2.2731
2479.206 2.3076 2.2681 2.2611 2.2941 2.3014 2.2646 2.2314 2.2372 2.2794 2.2487
2498.499 2.19342 2.2479 2.2818 2.2498 2.2405 2.2742 2.3223 2.3275 2.2641 2.2242
2517.793 2.2246 2.2435 2.2322 2.2145 2.2349 2.2783 2.3383 2.388 2.4409 2.4558
2537.086 2.4492 2.4719 2.5334 2.6235 2.6823 2.7182 2.7934 2.8867 2.9245 3.0112
2556.380 3.12 3.22 3.33 3.45 3.51 3.54 3.61 3.64 3.67 3.7
2575.673 3.71 3.71 3.73 3.78 3.79 3.79 3.82 3.85 3.92 3.98
2594.966 4.02 4.08 4.19 4.3 4.38 4.44 4.52 4.62 4.74 4.85
2614.260 4.95 5.07 5.25 5.42 5.58 5.77 5.94 6.11 6.32 6.58
2633.553 6.92 7.28 7.57 7.87 8.33 8.75 9.01 9.38 9.77 10.09
2652.847 10.38 10.65 10.89 11.16 11.46 11.72 12.09 12.54 13.01 13.51
2672.140 14.1 14.75 15.43 16.11 16.79 17.38 17.89 18.32 18.66 18.74
2691.434 18.73 18.71 18.64 18.56 18.42 18.42 18.46 18.39 18.53 18.89
2710.727 19.31 19.83 20.44 21.18 22.01 22.88 23.79 24.79 25.73 26.65
2730.020 27.69 28.7 29.69 30.66 31.72 32.92 34.1 35.29 36.53 37.84
2749.314 39.24 40.64 42.05 43.52 45 46.41 47.71 49.02 50.33 51.64
2768.607 53.06 54.58 56.35 58.4 60.78 63.61 66.99 71.05 75.66 80.87
2787.901 86.75 93.28 100.3 107.69 115.28 122.77 129.61 135.5 140.04 142.9
2807.194 143.99 143.15 140.57 136.26 130.29 123.08 115.14 106.89 98.68 90.86
2826.488 83.63 77.18 71.77 67.53 64.57 62.96 62.87 64.23 67.08 71.6
2845.781 77.57 84.99 93.58 102.99 112.64 121.59 129.28 135.3 139.18 140.19
2865.074 138.4 135.49 132.58 129.65 126.8 123.76 120.56 117.36 114.2 111.25
2884.368 108.51 105.98 103.62 101.63 100.47 100.19 100.95 102.75 105.3 108.34
2903.661 111.61 114.97 118.43 121.9 125.07 127.91 130.39 132.39 133.9 135.32
2922.955 136.76 138.17 139.94 142.03 144.35 147.01 150.03 153.13 156.24 159.67
2942.248 163.46 167.58 172.3 178.09 185.51 195.04 206.79 220.66 236.46 253.96
2961.542 271.97 286.64 292.62 289.22 280.94 270.65 255.26 232.28 203.38 170.96
2980.835 139.24 112.02 89.77 71.2 55.74 43.49 34.49 28.09 23.5 20.25
3000.128 17.98 16.28 14.81 13.65 12.72 11.88 11.1 10.41 9.73 9.16
3019.422 8.67 8.12 7.77 7.48 7.03 6.65 6.34 6.02 5.79 5.53
3038.715 5.39 5.33 5.22 5.07 4.99 4.95 4.88 4.79 4.73 4.73
3058.009 4.71 4.69 4.63 4.6 4.53 4.43 4.34 4.28 4.23 4.26
3077.302 4.34 4.31 4.27 4.21 4.12 4.02 4 3.87 3.68 3.7
3096.596 3.57 3.43 3.52 3.56 3.51 3.57 3.54 3.4 3.43 3.39
3115.889 3.28 3.22 3.15 3.13 3.15 3.27 3.38 3.35 3.28 3.2
3135.182 3.0731 3.0934 3.14 3.025 2.9243 2.9356 3.0118 2.9971 3.0751 3.0728
3154.476 3.0147 3.0677 3.0168 2.8914 2.9199 3.0937 3.16 3.0788 3.0381 2.9924
3173.769 2.9513 3.0171 3.0029 2.9962 2.9504 2.8229 2.8136 2.8263 2.7609 2.7476
3193.063 2.7263 2.6373 2.4998 2.4493 2.4089 2.3956 2.2982 2.16175 2.15653 1.905
3212.356 1.832 2.008 2.0257 2.008 1.853 1.755 1.719 1.712 1.786 1.798
3231.650 1.752 1.732 1.651 1.502 1.51 1.538 1.415 1.42 1.421 1.371
3250.943 1.42 1.418 1.411 1.424 1.367 1.155 1.04 1.01 0.95 1.02
3270.236 1.06 0.97 0.95 0.92 0.82 0.82 0.84 0.8 0.79 0.8
3289.530 0.75 0.85 0.93 0.88 0.89 0.82 0.79 0.85 0.86 0.8
3308.823 0.93 0.88 0.79 0.87 0.81 0.75 0.69 0.61 0.58 0.64
3328.117 0.76 0.78 0.69 0.64 0.6 0.56 0.6 0.65 0.65 0.59
3347.410 0.66 0.73 0.69 0.73 0.75 0.77 0.74 0.71 0.68 0.69
3366.704 0.8 0.82 0.8 0.73 0.71 0.78 0.76 0.73 0.84 0.85
3385.997 0.66 0.61 0.65 0.63 0.68 0.6 0.62 0.78 0.72 0.58
3405.290 0.5 0.51 0.5 0.49 0.46 0.46 0.46 0.39 0.28 0.29
3424.584 0.41 0.48 0.54 0.43 0.36 0.37 0.46 0.44 0.29 0.37
3443.877 0.44 0.49 0.37 0.23 0.3 0.36 0.43 0.46 0.4 0.32
3463.171 0.25 0.25 0.33 0.33 0.32 0.27 0.21 0.14 0.13 0.3
3482.464 0.27 0.19 0.28 0.19 0.12 0.11 0.09 0.13 0.07 0.01
3501.758 0 0.12 0.16 0.08 0.08 0.07 0.09 0.09 0.09 0.11
3521.051 0.15 0.3 0.31 0.21 0.14 0.05 0.11 0.17 0.13 0.17
3540.344 0.24 0.27 0.17 0.16 0.26 0.31 0.33 0.24 0.11 0.01
3559.638 0.15 0.27 0.22 0.23 0.23 0.27 0.28 0.26 0.29 0.34
3578.931 0.38 0.37 0.35 0.34 0.25 0.21 0.31 0.38 0.49 0.52
3598.225 0.44 0.44 0.49 0.48 0.46 0.33 0.24 0.31 0.38 0.4
3617.518 0.36 0.37 0.37 0.29 0.21 0.1 0.11 0.18 0.17 0.18
3636.812 0.27 0.28 0.22 0.32 0.44 0.34 0.29 0.32 0.34 0.31
3656.105 0.26 0.33 0.32 0.3 0.4 0.38 0.31 0.3 0.34 0.34
3675.398 0.26 0.18 0.2 0.38 0.41 0.36 0.37 0.36 0.37 0.49
3694.692 0.53 0.45 0.42 0.47 0.46 0.39 0.37 0.38 0.44 0.48
3713.985 0.42 0.43 0.47 0.5 0.54 0.51 0.35 0.31 0.46 0.53
3733.279 0.53 0.49 0.38 0.39 0.41 0.42 0.48 0.53 0.6 0.6
3752.572 0.6 0.6 0.62 0.67 0.64 0.67 0.67 0.75 0.94 0.89
3771.866 0.68 0.63 0.62 0.67 0.82 0.92 0.92 0.85 0.8 0.77
3791.159 0.78 0.83 0.85 0.89 0.91 0.91 0.87 0.79 0.83 0.9
3810.452 0.97 1 1.08 1.04 0.94 1.03 1.114 1.1 1.09 1.06
3829.746 1.09 1.131 1.113 1.126 1.204 1.225 1.08 1.03 1.144 1.133
3849.039 1.06 1.06 1.07 1.03 1 1.03 1.03 1.01 1.04 1.05
3868.333 1.03 0.92 0.89 1.03 1.05 1.08 1.13 1.06 1.03 1.07
3887.626 1.05 1.1 1.221 1.188 1.172 1.188 1.258 1.308 1.258 1.229
3906.920 1.184 1.175 1.301 1.354 1.338 1.318 1.243 1.302 1.331 1.384
3926.213 1.503 1.489 1.47 1.452 1.401 1.355 1.446 1.475 1.345 1.352
3945.506 1.331 1.221 1.202 1.331 1.473 1.48 1.446 1.493 1.481 1.542
3964.800 1.692 1.691 1.669 1.683 1.733 1.828 1.951 2.014 1.956 1.932
3984.093 1.889 1.92 1.932 1.871 1.837 1.731 1.691 1.679 1.679
##END=
