##TITLE=Endosulfan sulfate
##JCAMP-DX=4.24
##DATA TYPE=INFRARED SPECTRUM
##ORIGIN=NIST Mass Spectrometry Data Center
##OWNER=NIST Standard Reference Data Program
Collection (C) 2018 copyright by the U.S. Secretary of Commerce
on behalf of the United States of America. All rights reserved.
##CAS REGISTRY NO=1031-07-8
##MOLFORM=C 9 H 6 Cl 6 O 4 S
##$NIST SOURCE=MSDC-IR
##SPECTROMETER/DATA SYSTEM=HP-GC/MS/IRD
##STATE=gas
##XUNITS=1/CM
##YUNITS=ABSORBANCE
##XFACTOR=1.0
##YFACTOR=0.000002800
##DELTAX=4.0
##FIRSTX=550.0
##LASTX=3846.0
##FIRSTY=0.001182
##MAXX=3846
##MINX=550
##MAXY=0.028
##MINY=0
##NPOINTS=825
##XYDATA=(X++(Y..Y))
550.0 422 235 41 39 69 96 102 73 41 80
590.0 225 414 457 293 113 74 136 284 614 956
630.0 948 655 351 180 118 76 53 70 147 250
670.0 300 351 507 716 743 540 360 283 217 159
710.0 139 176 264 353 378 362 394 466 556 729
750.0 1054 1582 2365 3110 3184 2582 2113 2172 2364 2222
790.0 1790 1463 1609 2350 3571 4558 4330 3016 1765 1081
830.0 740 551 459 449 509 662 925 1226 1368 1201
870.0 886 667 589 565 551 522 519 588 722 887
910.0 1024 1038 868 639 533 507 447 337 248 199
950.0 199 242 330 473 666 869 986 1003 991 999
990.0 1147 1580 2172 2614 3056 3913 4974 5864 6727 7330
1030.0 6791 5061 3369 2443 2130 2125 2169 2112 2009 1953
1070.0 2041 2178 2123 1895 1715 1679 1743 1769 1568 1139
1110.0 731 495 410 386 353 316 310 344 428 557
1150.0 665 741 877 1069 1198 1177 1009 844 820 1024
1190.0 1609 2920 5629 8707 8724 5904 3955 2998 1730 793
1230.0 503 480 567 726 837 839 847 921 1065 1193
1270.0 1072 737 460 305 212 158 139 144 149 138
1310.0 127 126 118 113 122 135 138 129 141 141
1350.0 112 88 72 60 75 116 171 245 326 352
1390.0 303 246 212 211 245 345 585 981 1514 2436
1430.0 4365 7560 10000 8444 4269 1498 688 478 382 312
1470.0 239 179 141 123 115 120 131 120 102 75
1510.0 46 34 31 27 23 28 31 32 28 26
1550.0 34 51 75 93 106 120 127 139 176 271
1590.0 470 816 1173 1241 932 507 248 140 88 64
1630.0 43 32 26 22 21 15 13 10 15 16
1670.0 13 5 0 3 7 2 8 13 5 10
1710.0 12 11 16 20 22 19 17 18 11 12
1750.0 18 21 20 25 22 20 27 28 33 35
1790.0 38 32 32 32 26 29 26 17 18 20
1830.0 16 12 9 7 7 7 9 9 8 4
1870.0 6 11 7 11 14 14 13 12 18 20
1910.0 21 20 20 23 26 29 32 35 38 38
1950.0 44 51 51 50 44 38 46 50 42 32
1990.0 27 28 29 34 38 42 47 44 37 39
2030.0 46 42 35 32 30 35 38 38 39 40
2070.0 43 41 40 42 39 44 41 31 40 47
2110.0 43 45 47 45 46 46 45 40 36 40
2150.0 42 42 43 45 44 43 47 47 45 42
2190.0 44 46 53 54 51 47 45 51 54 52
2230.0 53 50 49 45 45 49 52 52 45 41
2270.0 46 47 43 48 52 45 39 41 41 40
2310.0 41 39 46 50 45 52 56 50 48 46
2350.0 46 46 46 44 42 40 41 45 46 44
2390.0 48 56 59 59 55 49 48 46 47 54
2430.0 56 51 43 46 54 55 51 43 40 49
2470.0 54 50 49 42 44 53 55 53 50 51
2510.0 54 52 53 54 46 43 42 38 46 54
2550.0 54 49 39 43 44 38 39 45 48 45
2590.0 42 45 49 55 58 58 49 52 65 72
2630.0 82 82 76 70 62 56 51 47 51 59
2670.0 56 39 37 49 55 54 52 53 44 41
2710.0 42 40 49 50 53 56 52 57 60 53
2750.0 54 57 48 44 43 46 46 50 58 54
2790.0 51 50 45 46 52 53 54 63 73 70
2830.0 60 57 55 53 50 55 61 57 59 68
2870.0 73 69 67 71 70 67 74 87 97 116
2910.0 132 145 146 136 130 132 139 142 141 152
2950.0 169 185 202 228 267 286 275 273 294 303
2990.0 270 228 211 214 198 144 98 75 65 60
3030.0 52 49 46 51 53 44 43 48 46 41
3070.0 47 50 48 49 46 42 48 49 47 48
3110.0 56 57 47 52 57 61 54 47 47 55
3150.0 60 55 51 53 58 51 53 57 60 57
3190.0 49 55 60 55 53 48 45 48 51 49
3230.0 51 52 48 46 41 46 51 38 41 48
3270.0 42 47 50 55 61 62 52 42 49 65
3310.0 76 65 52 58 54 44 51 66 65 53
3350.0 51 53 60 61 66 65 50 47 53 55
3390.0 44 40 46 44 45 48 56 63 56 56
3430.0 59 57 62 60 55 58 59 46 40 44
3470.0 45 52 57 53 58 66 66 56 50 63
3510.0 68 71 58 40 51 62 53 53 59 66
3550.0 66 43 39 45 39 38 52 51 41 38
3590.0 38 38 52 69 68 62 59 66 72 64
3630.0 58 57 61 58 51 65 70 63 64 65
3670.0 68 72 58 56 74 71 70 77 78 75
3710.0 73 67 67 70 69 80 61 51 72 81
3750.0 74 65 64 62 69 67 54 58 57 54
3790.0 59 62 69 73 62 67 83 83 82 84
3830.0 79 84 88 85 79
##END=
