##TITLE=3,5-Dichlorophenoxyacetonitrile
##JCAMP-DX=4.24
##DATA TYPE=INFRARED SPECTRUM
##ORIGIN=EPA-IR VAPOR PHASE LIBRARY
##OWNER=SRD/NIST
Collection (C) 2018 copyright by the U.S. Secretary of Commerce
on behalf of the United States of America. All rights reserved.
##CAS REGISTRY NO=103140-12-1
##MOLFORM=C 8 H 5 Cl 2 N O
##$NIST SOURCE=MSDC-IR
##STATE=gas
##XUNITS=1/CM
##YUNITS=ABSORBANCE
##XFACTOR=1.
##YFACTOR=0.001
##DELTAX=1.92898
##FIRSTX=549.8
##LASTX=4000.7
##FIRSTY=3.116
##MAXX=4000.7
##MINX=549.759
##MAXY=0.339386
##MINY=0
##NPOINTS=1790
##XYDATA=(X++(Y..Y))
549.759 3.116 3.136 2.326 2.206 2.036 1.886 2.006 1.5241 1.5843 2.006
569.049 2.306 2.526 2.006 2.386 2.396 1.4448 1.5878 2.426 3.266 3.016
588.339 2.406 2.636 2.636 2.926 3.366 3.246 3.106 2.916 2.856 2.746
607.628 2.716 3.176 3.616 3.656 3.916 4.526 4.426 3.946 3.756 3.496
626.918 3.946 4.796 5.046 5.456 5.476 5.336 5.086 4.576 5.256 6.046
646.208 6.336 6.576 7.476 8.866 10.006 11.526 13.176 14.906 17.306 19.516
665.498 21.486 22.776 22.366 21.526 20.706 19.256 17.216 15.316 13.726 12.196
684.787 10.656 9.186 8.086 7.386 6.526 5.706 4.956 4.656 4.256 3.456
704.077 3.256 2.806 2.576 2.596 2.126 1.936 2.146 2.386 2.216 2.286
723.367 2.736 3.076 3.236 3.026 2.786 2.646 2.316 2.716 2.826 2.366
742.657 2.436 2.266 2.026 1.996 2.086 2.046 2.026 2.316 2.276 2.166
761.947 2.836 3.106 3.226 3.676 3.836 4.256 5.096 5.826 6.726 8.156
781.236 9.436 11.266 14.146 17.056 20.596 25.426 31.286 37.956 45.516 54.246
800.526 62.706 69.896 75.806 78.876 78.676 76.186 71.726 65.216 57.576 50.966
819.816 45.996 43.756 43.536 43.876 45.666 46.756 46.516 45.586 44.166 43.086
839.106 42.796 43.076 44.576 47.386 50.986 54.836 56.216 53.876 49.326 44.706
858.395 40.946 37.016 32.896 29.546 27.486 27.176 28.256 30.786 33.626 36.546
877.685 39.096 40.706 41.506 40.566 38.566 35.606 32.206 29.366 27.086 25.356
896.975 24.396 23.926 23.646 24.026 25.116 27.126 29.356 31.766 33.386 34.066
916.265 34.426 33.566 31.646 28.676 25.086 21.276 17.996 15.396 13.056 11.346
935.555 10.346 9.516 8.616 8.066 7.386 7.196 6.816 6.006 6.046 5.866
954.844 5.426 5.456 5.616 5.686 5.566 5.506 5.566 5.276 5.036 4.976
974.134 4.946 4.496 4.526 5.396 6.006 6.036 5.696 6.006 6.986 7.756
993.424 8.316 8.616 9.226 10.396 10.836 11.456 12.636 13.866 14.816 15.906
1012.714 17.416 18.816 21.416 23.876 25.676 28.626 32.586 36.156 39.646 43.996
1032.003 50.046 57.186 65.186 73.706 82.236 90.486 98.536 106.856 112.226 115.686
1051.293 118.946 121.426 122.756 123.096 123.236 122.086 119.416 115.636 110.066 101.606
1070.583 90.636 79.756 69.166 58.626 49.696 43.026 41.236 43.346 46.806 52.746
1089.873 61.356 69.836 75.226 80.706 85.986 89.666 91.206 89.876 86.456 80.386
1109.163 73.196 65.416 58.056 50.926 41.726 34.026 28.796 23.586 18.646 15.296
1128.452 12.516 9.536 8.176 6.656 5.686 5.186 4.676 4.166 3.616 3.846
1147.742 4.276 4.216 3.826 3.686 3.106 3.126 3.176 2.716 2.746 3.796
1167.032 4.016 4.326 4.946 4.146 4.056 4.346 4.816 5.436 5.456 5.106
1186.322 5.426 6.386 7.766 8.836 8.566 10.056 12.236 13.816 16.196 18.596
1205.611 22.986 28.726 35.806 42.456 49.056 55.746 61.306 64.046 65.036 65.906
1224.901 64.886 61.536 55.896 52.606 51.936 50.926 50.296 49.516 47.836 45.626
1244.191 44.136 43.146 41.466 40.256 39.646 38.646 38.046 38.156 37.876 38.316
1263.481 38.566 38.386 39.296 40.516 41.596 41.756 40.846 39.236 36.456 33.816
1282.771 31.536 28.946 27.426 27.716 28.636 29.846 31.386 32.406 32.666 31.646
1302.060 29.596 27.006 23.916 20.356 16.816 13.976 11.756 10.046 8.786 7.876
1321.350 7.326 7.026 6.946 6.866 6.856 6.946 7.156 7.546 8.166 8.756
1340.640 9.386 10.416 11.746 13.536 15.846 18.296 20.976 23.956 26.976 29.786
1359.930 32.476 35.026 37.386 39.266 40.546 41.756 42.786 43.416 43.636 43.156
1379.219 41.976 40.326 38.156 35.816 33.466 31.086 28.926 27.326 26.296 25.866
1398.509 26.106 26.836 28.216 30.366 33.246 37.116 42.056 47.986 54.896 62.836
1417.799 71.546 80.796 89.826 98.586 106.296 112.486 116.786 118.996 119.716 118.826
1437.089 116.266 112.536 107.016 100.246 92.976 85.006 76.436 67.156 57.736 49.376
1456.378 41.616 34.806 29.146 24.086 20.336 17.656 15.686 14.146 12.976 12.016
1475.668 11.516 11.196 10.706 10.276 9.926 9.606 9.396 9.266 9.136 9.026
1494.958 8.916 8.926 8.926 8.746 8.666 8.786 8.816 8.906 9.236 9.466
1514.248 9.756 10.206 10.606 11.016 11.366 11.836 12.496 12.986 13.566 14.236
1533.538 14.846 15.666 16.626 17.646 18.956 20.546 22.416 24.596 27.236 30.636
1552.827 35.086 40.646 47.906 57.756 70.306 85.846 105.886 130.736 160.386 194.296
1572.117 229.706 263.786 295.816 321.906 337.396 339.386 325.416 298.526 264.876 229.916
1591.407 196.336 164.346 134.516 108.156 86.446 69.656 57.256 48.316 41.826 36.936
1610.697 33.146 30.316 28.156 25.976 23.856 22.156 20.556 18.946 17.476 16.046
1629.986 14.766 13.606 12.546 11.566 10.636 9.846 9.316 8.836 8.436 8.246
1649.276 8.006 7.856 7.736 7.286 6.916 6.596 6.186 5.756 5.406 5.306
1668.566 5.076 4.856 4.906 4.926 4.696 4.606 4.656 4.646 4.806 4.956
1687.856 5.116 5.136 5.146 5.226 5.366 5.686 5.976 6.096 6.046 6.186
1707.146 6.486 6.476 6.346 6.386 6.316 6.086 5.986 5.756 5.496 5.286
1726.435 4.796 4.486 4.186 3.956 3.886 3.606 3.286 2.926 2.716 2.576
1745.725 2.486 2.436 2.386 2.456 2.446 2.346 2.216 2.126 2.076 2.006
1765.015 1.946 2.016 1.966 1.876 1.966 1.7347 1.5984 1.6631 1.6476 1.836
1784.305 1.856 1.6463 1.6455 1.7161 1.786 1.806 1.796 1.836 1.856 1.766
1803.594 1.7415 1.866 1.816 1.7084 1.6026 1.5439 1.695 1.826 1.766 1.652
1822.884 1.6037 1.5798 1.5867 1.5161 1.5448 1.6213 1.5709 1.5593 1.6925 1.766
1842.174 1.727 1.746 1.5881 1.4297 1.4067 1.4484 1.7233 1.756 1.5272 1.498
1861.464 1.4658 1.4234 1.5895 1.6912 1.5425 1.4686 1.5799 1.5836 1.6027 1.806
1880.754 1.936 1.836 1.6945 1.776 1.806 1.776 2.046 2.326 2.246 2.196
1900.043 2.286 2.246 2.226 2.286 2.396 2.466 2.526 2.526 2.356 2.306
1919.333 2.396 2.466 2.466 2.386 2.366 2.336 2.326 2.286 2.156 2.066
1938.623 2.046 2.136 2.166 1.966 1.876 2.076 2.106 1.816 1.6329 1.806
1957.913 1.886 1.816 1.986 1.916 1.896 2.136 2.176 2.256 2.216 2.086
1977.202 2.146 2.186 2.226 2.356 2.546 2.516 2.336 2.216 2.136 2.096
1996.492 2.066 2.046 1.946 1.896 1.886 1.806 1.7014 1.7101 1.7453 1.756
2015.782 1.6886 1.6903 1.836 1.906 1.816 1.796 1.886 1.966 1.976 1.816
2035.072 1.806 1.976 1.986 2.016 2.106 2.016 2.076 2.166 2.066 2.156
2054.362 2.206 2.336 2.456 2.346 2.406 2.386 2.486 2.596 2.636 2.716
2073.651 2.726 2.816 2.896 3.086 3.196 3.176 3.346 3.666 3.776 3.706
2092.941 3.816 4.156 4.296 4.316 4.406 4.306 4.216 4.206 4.046 4.036
2112.231 4.206 4.116 3.846 3.676 3.606 3.606 3.526 3.486 3.356 3.156
2131.521 3.116 3.066 2.956 2.876 2.916 2.896 2.766 2.596 2.546 2.476
2150.810 2.406 2.416 2.376 2.446 2.436 2.356 2.386 2.216 2.346 2.356
2170.100 2.216 2.376 2.296 2.206 2.046 1.956 2.116 2.146 2.106 2.036
2189.390 1.876 1.796 1.836 1.816 1.6955 1.6226 1.595 1.5709 1.746 1.816
2208.680 1.796 1.896 1.986 2.016 1.906 1.916 2.016 2.096 2.056 2.266
2227.970 2.596 2.666 2.736 2.966 3.516 3.796 4.096 4.466 4.636 4.796
2247.259 4.976 5.156 5.136 5.036 4.586 4.196 4.096 3.796 3.406 3.136
2266.549 2.856 2.716 2.456 2.056 1.796 1.7367 1.936 1.926 1.936 1.846
2285.839 1.6792 1.6058 1.6034 1.6328 1.5758 1.565 1.6296 1.836 1.906 1.856
2305.129 1.766 1.756 1.7103 1.6973 1.836 1.886 1.906 1.856 1.926 2.066
2324.418 1.996 1.916 1.996 1.966 1.986 1.816 1.846 1.956 1.886 1.776
2343.708 1.4222 1.5058 1.6519 1.5547 1.4729 1.4507 1.5106 1.6034 1.6094 1.5908
2362.998 1.6204 1.596 1.6638 1.766 1.886 2.016 1.896 1.876 1.856 1.826
2382.288 1.876 1.786 1.6752 1.5988 1.664 1.7291 1.6928 1.5713 1.6516 1.796
2401.578 1.6925 1.6326 1.7023 1.4883 1.3317 1.471 1.4157 1.565 1.866 1.846
2420.867 1.722 1.5251 1.429 1.5893 1.776 1.876 1.7225 1.6137 1.5337 1.5831
2440.157 1.6692 1.4845 1.4393 1.756 1.936 1.896 1.806 1.5944 1.4788 1.4746
2459.447 1.5944 1.856 2.006 1.6807 1.4508 1.502 1.5989 1.756 1.5285 1.2855
2478.737 1.4411 1.6639 1.816 1.836 1.816 1.946 1.906 1.7306 1.6839 1.6847
2498.026 1.786 1.976 2.036 2.046 2.056 1.996 1.906 1.7207 1.6536 1.732
2517.316 1.816 1.836 1.5104 1.2155 1.2663 1.4238 1.5545 1.3845 1.3144 1.3311
2536.606 1.2311 1.1408 1.0421 1.2055 1.3269 1.1677 1.3085 1.511 1.2516 0.84515
2555.896 0.77286 0.9449 0.9512 0.77391 0.74528 0.912 1.1208 1.2524 1.3131 1.2119
2575.186 1.1354 1.28 1.3304 1.3093 1.187 0.9947 0.8869 1.0104 1.3709 1.4826
2594.475 1.5168 1.2081 1.1397 1.3989 1.4349 1.5943 1.5564 1.3139 1.2088 1.3613
2613.765 1.4042 1.5287 1.7054 1.6436 1.4703 1.4148 1.5772 1.575 1.5253 1.836
2633.055 1.876 1.6138 1.836 2.016 1.916 2.016 2.206 2.326 2.326 2.196
2652.345 2.226 2.346 2.296 2.216 2.246 2.286 2.106 1.776 1.856 1.916
2671.634 1.708 1.6813 1.5993 1.5242 1.4361 1.2553 1.1408 1.2852 1.2752 1.5495
2690.924 1.5648 1.2371 1.467 1.5032 1.4514 1.4812 1.5245 1.392 1.0939 1.0923
2710.214 1.1141 1.1334 1.3353 1.377 1.5194 1.6395 1.4167 1.3416 1.1979 0.9486
2729.504 0.9685 0.983 0.9918 0.9936 1.1868 1.4624 1.336 1.1138 1.1058 1.1513
2748.794 1.0337 1.0365 0.9291 0.74028 0.82618 0.8756 0.8623 0.82316 1.0728 1.034
2768.083 1.0455 1.3472 1.1093 0.9209 1.019 1.1282 1.1847 1.0787 0.9875 0.9636
2787.373 1.0283 1.2738 1.2835 1.2344 1.2866 1.4517 1.4507 1.5035 1.5156 1.3174
2806.663 1.3284 1.3874 1.4726 1.537 1.5806 1.6728 1.856 1.776 1.645 1.846
2825.953 1.856 1.836 1.916 1.936 1.986 1.976 2.076 2.076 2.006 1.926
2845.242 1.846 2.016 2.206 2.286 2.366 2.376 2.376 2.526 2.376 2.456
2864.532 2.776 2.936 2.976 3.026 3.466 3.986 4.206 4.306 4.766 5.296
2883.822 5.516 5.196 4.596 4.396 4.416 4.196 4.006 3.896 3.596 3.306
2903.112 3.276 3.356 3.546 3.536 3.506 3.886 4.106 4.406 4.506 4.376
2922.401 4.916 5.666 6.436 7.266 8.266 9.686 11.176 12.476 13.496 14.166
2941.691 14.346 13.476 12.506 11.576 10.056 8.516 7.176 6.296 5.546 4.956
2960.981 4.526 3.946 3.646 3.576 3.486 3.226 3.196 3.646 3.696 3.786
2980.271 4.346 4.826 5.456 5.716 5.796 5.356 4.716 4.566 4.126 3.436
2999.561 2.756 2.096 1.856 2.056 1.916 1.4371 1.1569 1.1917 1.22 1.2972
3018.850 1.255 1.2688 1.2369 1.0865 1.1309 1.1877 1.2359 1.2572 1.0949 0.8471
3038.140 0.81475 1.124 1.0766 0.7621 0.77923 1.2434 1.3458 0.747478 0.7129 0.631
3057.430 0.7103 1.2701 1.2033 1.0324 1.3039 1.5447 1.7091 1.702 1.6312 1.4508
3076.720 1.4831 1.816 2.116 2.596 2.856 2.886 3.046 2.946 3.036 3.676
3096.009 3.406 2.596 2.196 2.226 1.996 1.4371 1.3015 1.3904 1.397 1.2106
3115.299 0.9661 0.9511 1.2078 1.43 1.0805 0.7762 0.82897 0.8906 0.9509 0.9728
3134.589 1.1212 1.3813 1.3765 1.1395 1.3428 2.026 2.256 1.766 1.6267 1.4709
3153.879 1.3793 1.6768 1.906 1.866 1.796 1.6854 1.5008 1.3171 1.4783 1.766
3173.169 1.4857 1.2449 1.118 1.272 1.4876 1.1202 1.0659 1.1592 0.9026 0.8535
3192.458 0.561 0.477 0.7251 0.404 0.616 0.78347 0.6895 0.9884 1.2171 1.5009
3211.748 1.2072 0.77167 0.7217 0.8741 0.9136 0.9067 0.73995 0.108 0 0.349
3231.038 0.82012 0.9639 0.8494 0.536 0.455 0.76034 1.0869 1.0894 0.7224 1.0324
3250.328 1.0599 1.2492 1.5698 1.0082 0.9811 1.059 0.8517 0.8611 1.0102 1.0658
3269.617 1.1521 1.2588 0.9424 0.269 0.077 0.243 0.257 0.7151 0.8924 0.6639
3288.907 0.395 0.386 0.8804 1.0136 0.75816 0.542 0.345 0.245 0.633 0.9447
3308.197 1.0307 0.8885 0.751857 0.9492 0.80844 0.613 0.616 0.865 0.79081 0.6875
3327.487 0.84345 0.8923 0.81435 0.77857 0.6651 0.544 0.75705 1.1339 1.5112 1.2779
3346.777 0.8544 1.2443 1.4536 1.3457 1.0563 0.6771 1.0519 1.0703 1.0969 1.3615
3366.066 1.2363 1.0232 0.9694 0.7075 0.73834 1.0455 0.866 1.0594 0.9927 0.491
3385.356 0.476 0.754149 0.6781 0.7082 0.9389 1.1267 0.9037 0.78917 0.78882 0.514
3404.646 0.80813 1.1393 1.0794 1.2966 1.2766 1.1996 1.5426 1.34 0.6916 0.61
3423.936 1.0994 1.0165 0.8798 1.1992 1.5165 1.4197 0.84015 0.576 0.73845 0.80904
3443.225 0.8501 1.008 1.0928 0.8511 0.83746 0.9745 0.505 0.7047 0.9314 0.73635
3462.515 0.8734 0.622 0.6687 0.7112 0.545 0.89 0.74459 0.569 0.9064 1.1185
3481.805 1.0122 0.84179 0.6542 0.553 0.84053 0.9818 0.8616 0.8488 0.77839 0.538
3501.095 0.6664 0.79235 0.6518 0.498 0.9027 0.8637 0.536 0.79325 1.0718 1.2849
3520.385 1.0357 1.1821 1.0455 0.394 0.6779 0.8547 0.631 0.84207 1.0273 1.0298
3539.674 1.0064 0.7766 0.8585 1.1538 1.1747 1.0224 0.83868 0.83166 0.77697 1.092
3558.964 1.3584 0.9592 0.9377 0.9203 0.323 0.091 0.092 0.293 0.81112 0.934
3578.254 0.80605 0.8466 0.6588 0.623 0.7299 0.387 0.558 0.9766 1.1908 1.2616
3597.544 1.1003 0.81871 0.529 0.407 0.482 0.542 0.622 0.949 0.9141 0.517
3616.833 0.7077 1.2153 1.4736 1.2785 0.9353 0.82535 0.6935 1.0224 1.2483 0.61
3636.123 0.235 0.334 0.392 0.423 0.74026 1.0026 0.6517 0.7196 0.9135 0.79652
3655.413 0.7276 0.8481 0.728 0.6782 1.0483 0.875 0.81861 1.3031 1.2576 1.2457
3674.703 1.2035 1.1363 1.333 1.0127 0.727 0.6705 0.750154 0.82181 0.80923 0.9465
3693.993 1.0263 1.3052 1.2256 1.1897 1.2458 0.9334 1.0597 1.1408 1.0905 0.82571
3713.282 0.656 0.748735 0.84455 1.0241 1.0584 0.8938 0.591 0.353 0.389 0.6543
3732.572 0.7054 0.7055 0.61 0.529 0.9614 1.079 0.9205 0.73755 0.726 0.75613
3751.862 0.614 0.625 0.6945 1.0437 1.2857 1.2896 1.3404 1.302 1.033 1.1124
3771.152 1.2798 1.195 0.81678 0.83503 1.3411 1.386 1.0059 0.6785 0.7301 0.884
3790.441 1.0971 0.848 0.76998 0.588 0.7042 0.78011 0.489 0.6807 0.8849 1.3025
3809.731 1.415 1.1413 0.9843 1.1677 1.266 1.113 0.76638 1.0223 1.2658 0.8554
3829.021 0.9222 0.81251 0.41 0.479 0.583 0.6757 0.83292 1.3399 1.2376 0.84
3848.311 0.628 0.753448 1.2658 1.2613 0.9689 0.6975 0.576 0.63 0.9611 1.297
3867.601 1.0889 0.645 0.8027 1.0184 0.7326 0.6506 1.1334 1.2486 0.8523 1.0061
3886.890 1.209 0.77964 0.7348 1.192 1.5525 1.5004 1.2425 1.3855 1.2968 1.1413
3906.180 1.0831 0.81778 0.81603 0.8609 0.77437 1.0601 0.9478 0.633 0.80695 0.9257
3925.470 0.9001 0.65 0.642 0.7584 0.9521 1.1143 1.0827 1.1254 1.2453 1.2894
3944.760 1.0348 1.0365 0.77438 0.581 0.6661 0.627 1.097 0.9721 0.461 0.452
3964.049 0.9768 1.2396 0.8612 0.78294 1.2097 1.4022 1.0337 0.9834 1.1475 1.3303
3983.339 1.4589 1.3877 1.1647 0.9603 1.4902 1.4062 0.9427 1.1378 1.3613 1.956
##END=
