##TITLE=4-Accetamidothioanisole
##JCAMP-DX=4.24
##DATA TYPE=INFRARED SPECTRUM
##ORIGIN=EPA-IR VAPOR PHASE LIBRARY
##OWNER=SRD/NIST
Collection (C) 2018 copyright by the U.S. Secretary of Commerce
on behalf of the United States of America. All rights reserved.
##CAS REGISTRY NO=10352-44-0
##MOLFORM=C 9 H 11 N O S
##$NIST SOURCE=MSDC-IR
##STATE=gas
##XUNITS=1/CM
##YUNITS=ABSORBANCE
##XFACTOR=1.
##YFACTOR=0.001
##DELTAX=1.92898
##FIRSTX=549.8
##LASTX=4000.7
##FIRSTY=3.542
##MAXX=4000.7
##MINX=549.759
##MAXY=0.086882
##MINY=0
##NPOINTS=1790
##XYDATA=(X++(Y..Y))
549.759 3.542 3.302 2.362 2.162 2.142 2.182 2.592 3.282 3.142 2.302
569.049 2.032 2.182 3.172 3.392 3.092 3.672 4.162 3.752 3.792 4.062
588.339 3.862 3.272 2.852 2.902 2.452 2.032 1.742 1.622 1.652 1.572
607.628 1.632 1.682 1.742 1.772 1.782 1.562 1.612 1.592 0.9844 1.442
626.918 1.852 1.702 1.862 1.612 1.3739 1.422 1.1828 1.1977 1.582 1.612
646.208 1.1467 1.2888 1.492 1.3413 1.3262 1.1881 1.1836 1.1756 1.1163 0.9379
665.498 0.8368 1.0002 0.9288 0.7991 1.0697 1.1018 0.71 0.9559 1.3869 1.2666
684.787 1.164 1.3056 1.3697 1.512 1.532 1.692 2.222 1.892 1.3859 1.712
704.077 2.082 1.902 1.472 1.502 1.3479 1.0756 1.336 1.452 1.3631 1.0295
723.367 0.8226 1.0107 0.9312 0.7048 1.0053 1.2558 1.0442 0.9288 1.1809 1.2305
742.657 0.9043 0.9569 1.1502 1.0482 1.0767 0.9012 0.5128 0.663 0.836 0.923
761.947 0.994 0.8975 0.8706 1.2419 1.652 1.2822 1.256 1.832 1.932 1.862
781.236 1.702 1.842 2.362 2.492 2.832 3.122 3.212 3.752 3.702 3.822
800.526 4.662 5.052 5.152 5.342 5.782 6.142 6.492 6.992 7.052 7.112
819.816 7.562 8.042 8.332 8.422 8.732 8.622 8.132 7.652 6.862 6.512
839.106 6.062 5.262 4.642 4.092 3.772 3.082 2.702 2.582 2.302 2.142
858.395 1.712 1.532 1.3935 1.2011 1.364 1.552 1.622 1.752 1.672 1.482
877.685 1.2071 0.9747 1.1551 1.0252 1.072 1.1059 1.0881 1.502 1.552 1.542
896.975 1.612 1.572 1.462 1.662 1.672 1.3236 1.552 1.792 1.902 1.732
916.265 1.742 2.022 1.862 1.632 1.752 1.912 1.812 1.862 2.172 2.482
935.555 2.352 2.282 2.402 2.632 2.752 2.652 2.742 2.822 2.792 2.702
954.844 3.162 3.622 3.622 4.172 4.902 5.212 5.582 5.872 5.892 5.932
974.134 5.702 5.482 5.852 6.152 6.242 6.182 6.082 6.072 6.062 6.002
993.424 5.632 5.372 5.112 4.722 4.832 4.582 4.222 4.322 4.922 5.682
1012.714 5.432 5.192 5.112 4.722 4.472 4.352 3.612 3.192 3.332 3.182
1032.003 2.922 3.002 2.832 2.732 2.882 2.862 3.302 3.632 3.432 3.342
1051.293 3.122 2.892 2.762 2.212 2.002 2.602 2.972 2.912 3.542 3.052
1070.583 2.222 2.922 3.282 2.182 1.3528 2.102 2.752 3.392 3.792 3.892
1089.873 4.222 4.952 5.712 5.462 4.862 4.732 3.962 2.682 2.612 3.182
1109.163 3.382 3.592 3.052 1.882 1.632 2.212 2.172 2.252 2.372 1.762
1128.452 1.772 2.132 2.462 2.062 0.8833 0.5141 1.1075 1.356 1.462 1.03
1147.742 1.0834 1.0556 1.0179 2.152 1.852 1.642 2.122 2.032 1.942 1.742
1167.032 1.882 2.502 2.652 2.842 3.142 3.952 4.642 4.512 4.812 4.962
1186.322 4.732 4.372 4.572 5.232 5.302 5.732 6.172 6.652 7.982 9.492
1205.611 10.702 11.852 12.382 13.302 15.532 16.772 17.352 17.662 18.242 18.682
1224.901 18.732 18.902 18.582 18.642 19.162 18.842 18.042 16.512 14.272 12.382
1244.191 10.902 9.662 8.832 8.502 8.192 7.912 8.332 9.082 9.982 11.762
1263.481 14.182 16.622 19.052 21.742 23.802 24.842 25.592 25.472 24.122 22.432
1282.771 20.502 18.302 16.502 15.222 14.592 14.892 16.172 18.132 20.602 22.852
1302.060 24.232 25.032 25.112 24.102 22.172 19.742 17.342 15.302 13.562 12.192
1321.350 11.132 10.202 9.302 8.462 7.892 7.292 6.742 6.382 5.972 5.532
1340.640 5.282 5.312 5.372 5.482 5.612 5.902 6.482 7.132 8.042 9.222
1359.930 10.512 11.982 13.392 14.712 15.792 16.392 16.572 16.442 16.172 16.032
1379.219 16.162 16.362 16.932 17.762 18.612 19.562 20.042 20.052 19.512 18.452
1398.509 17.182 15.592 13.982 12.452 11.152 10.202 9.452 8.902 8.412 8.152
1417.799 7.952 7.692 7.742 7.902 7.922 7.982 8.172 8.382 8.592 8.842
1437.089 9.352 9.872 10.252 10.642 10.872 11.112 11.512 11.772 11.982 12.412
1456.378 13.042 13.872 14.812 15.762 17.012 18.502 19.922 21.442 22.982 24.572
1475.668 26.532 28.892 31.672 35.242 39.792 45.572 52.672 60.812 69.392 77.112
1494.958 83.112 86.622 86.882 84.062 78.192 69.982 60.722 51.672 43.292 36.052
1514.248 30.062 25.292 21.522 18.572 16.392 14.762 13.412 12.102 11.152 10.502
1533.538 9.892 9.272 8.742 8.322 7.762 7.282 6.992 6.762 6.492 6.162
1552.827 5.842 5.642 5.652 5.752 5.922 6.132 6.492 6.922 7.562 8.472
1572.117 9.452 10.612 12.062 13.492 14.432 14.992 15.472 15.582 15.252 14.712
1591.407 13.972 13.092 12.172 11.442 10.622 9.492 8.362 7.452 6.512 5.522
1610.697 4.912 4.522 4.142 3.842 3.572 3.412 3.322 3.212 3.132 3.122
1629.986 3.132 2.982 2.782 2.692 2.692 2.732 2.802 2.852 2.812 2.822
1649.276 2.862 2.822 2.862 3.082 3.102 3.042 3.292 3.572 3.662 3.722
1668.566 3.762 3.882 4.082 4.212 4.342 4.542 4.812 5.102 5.352 5.582
1687.856 5.952 6.492 6.962 7.352 7.862 8.542 9.382 10.402 11.742 13.522
1707.146 15.982 19.312 23.492 28.692 34.682 40.792 46.372 50.682 53.682 55.132
1726.435 54.102 50.852 47.032 43.772 40.552 36.582 32.112 27.732 23.712 20.162
1745.725 17.042 14.432 12.392 10.692 9.362 8.362 7.472 6.792 6.352 5.932
1765.015 5.492 4.962 4.522 4.202 3.972 3.732 3.432 3.322 3.172 3.032
1784.305 2.962 2.802 2.672 2.582 2.512 2.392 2.262 2.142 2.042 1.992
1803.594 1.882 1.842 1.822 1.772 1.752 1.652 1.582 1.582 1.492 1.3563
1822.884 1.3327 1.2902 1.2458 1.2705 1.2561 1.1776 1.1032 1.0763 1.1686 1.2089
1842.174 1.1377 1.2133 1.3346 1.3023 1.1887 1.2183 1.3446 1.472 1.412 1.1968
1861.464 1.2346 1.402 1.462 1.462 1.452 1.422 1.472 1.442 1.3649 1.472
1880.754 1.592 1.522 1.3564 1.313 1.3306 1.3189 1.3622 1.3989 1.3262 1.2883
1900.043 1.1557 1.0498 1.1 1.1711 1.1766 1.1144 1.1423 1.1062 1.0548 1.0896
1919.333 1.0127 0.8442 0.8335 0.896 0.9269 0.9189 0.815 0.7435 0.7482 0.7478
1938.623 0.8012 0.9014 0.9164 0.8351 0.7841 0.7908 0.7525 0.6808 0.6344 0.6765
1957.913 0.7428 0.7599 0.5768 0.524 0.5843 0.505 0.5536 0.6622 0.7506 0.7133
1977.202 0.7206 0.7208 0.6528 0.6644 0.738 0.7671 0.669 0.5864 0.625 0.6027
1996.492 0.48326 0.5181 0.5763 0.5879 0.5837 0.6242 0.7433 0.7123 0.7013 0.7162
2015.782 0.7082 0.7892 0.8077 0.7851 0.6445 0.7239 0.7428 0.7046 0.8308 0.73
2035.072 0.6424 0.6112 0.5502 0.5919 0.7455 0.714 0.5111 0.5281 0.5957 0.5416
2054.362 0.5913 0.6286 0.6125 0.73 0.7477 0.7729 0.8238 0.8317 0.8052 0.7763
2073.651 0.7864 0.7406 0.8123 0.8151 0.8108 0.7861 0.589 0.5374 0.675 0.7185
2092.941 0.7205 0.7397 0.6905 0.639 0.7121 0.819 0.7806 0.7177 0.799 0.7493
2112.231 0.6295 0.723 0.8099 0.7371 0.6534 0.6744 0.6492 0.7116 0.7887 0.7618
2131.521 0.7462 0.7716 0.8063 0.7426 0.773 0.8523 0.7741 0.6784 0.7196 0.7152
2150.810 0.6564 0.6711 0.7975 0.806 0.5925 0.5681 0.6514 0.7511 0.8834 0.8794
2170.100 0.8185 0.6892 0.5875 0.6024 0.6358 0.5912 0.5217 0.47031 0.5544 0.7368
2189.390 0.7792 0.6183 0.47008 0.4723 0.5275 0.5992 0.6599 0.7941 0.7937 0.7558
2208.680 0.7311 0.6662 0.7373 0.7685 0.5874 0.5259 0.7493 0.7386 0.6467 0.6859
2227.970 0.7449 0.6896 0.6165 0.6409 0.6764 0.7211 0.6662 0.611 0.5552 0.5818
2247.259 0.671 0.6782 0.6447 0.6172 0.61 0.6616 0.635 0.6195 0.6432 0.6226
2266.549 0.5644 0.48145 0.523 0.5605 0.49671 0.5501 0.6499 0.641 0.6663 0.7282
2285.839 0.7577 0.7933 0.7879 0.6961 0.6484 0.6431 0.6884 0.7097 0.7613 0.9686
2305.129 0.9487 0.7597 0.7491 0.8565 0.8526 0.727 0.706 0.8711 0.9403 0.8365
2324.418 0.7844 0.7989 0.9492 0.8642 0.7302 0.7607 0.6948 0.6406 0.6747 0.753
2343.708 0.7077 0.6334 0.6405 0.6767 0.7051 0.5973 0.5703 0.6255 0.5631 0.5746
2362.998 0.5434 0.5444 0.5473 0.5806 0.6468 0.5646 0.46237 0.4982 0.649 0.6876
2382.288 0.6489 0.6567 0.7887 0.7792 0.6743 0.7184 0.6911 0.6936 0.6517 0.5699
2401.578 0.6332 0.7288 0.7806 0.7383 0.7265 0.8305 0.8822 0.8803 0.8256 0.8065
2420.867 0.8612 0.7724 0.6588 0.6286 0.7684 0.8869 0.8215 0.7649 0.7967 0.7702
2440.157 0.6934 0.7423 0.8515 0.8021 0.6144 0.6189 0.821 0.7191 0.587 0.6871
2459.447 0.7043 0.6632 0.5776 0.6006 0.6172 0.6028 0.657 0.604 0.5246 0.609
2478.737 0.7594 0.6156 0.3863 0.3846 0.402896 0.5427 0.7014 0.5551 0.5038 0.7491
2498.026 0.7645 0.73 0.763 0.6847 0.8119 0.8875 0.8073 0.8014 0.8305 0.7693
2517.316 0.647 0.7243 0.8214 0.6119 0.5545 0.6848 0.7636 0.6566 0.5522 0.7067
2536.606 0.7822 0.6421 0.6699 0.7364 0.6367 0.6359 0.5213 0.45014 0.5592 0.623
2555.896 0.5307 0.42058 0.5539 0.6168 0.6501 0.7595 0.6602 0.50078 0.43773 0.4344
2575.186 0.3999 0.6085 0.7411 0.5293 0.47828 0.5284 0.6232 0.6569 0.6216 0.716
2594.475 0.6163 0.5163 0.6551 0.5741 0.45284 0.42039 0.3867 0.6687 0.6622 0.41236
2613.765 0.5909 0.8162 0.7942 0.6064 0.46605 0.43922 0.50003 0.5833 0.5233 0.7766
2633.055 0.9179 0.6461 0.5729 0.6067 0.587 0.48866 0.55 0.6488 0.6356 0.5357
2652.345 0.5338 0.6507 0.6983 0.735 0.5139 0.48552 0.7357 0.6678 0.763 0.9447
2671.634 0.7767 0.6623 0.5056 0.5277 0.6636 0.7686 0.8511 0.7511 0.6262 0.6319
2690.924 0.6732 0.6493 0.659 0.6951 0.839 0.8641 0.9007 0.8967 0.9073 0.8904
2710.214 0.6212 0.7289 0.8969 0.8926 0.9509 0.8353 0.8856 0.8764 0.6526 0.6668
2729.504 0.7093 0.6675 0.6745 0.7439 0.7167 0.7839 0.7042 0.5071 0.6075 0.7467
2748.794 0.8425 0.7291 0.6233 0.6044 0.6208 0.6202 0.6171 0.6154 0.5229 0.5152
2768.083 0.5285 0.4707 0.5902 0.6934 0.6099 0.5768 0.5157 0.7496 0.9553 0.9039
2787.373 0.7627 0.7326 0.8892 0.847 0.76 0.6534 0.7018 0.8172 0.7083 0.6951
2806.663 0.7945 0.7458 0.7892 0.7433 0.7864 1.1026 1.2298 1.076 0.884 1.0023
2825.953 1.0356 0.9726 1.1551 1.3988 1.3394 1.422 1.672 1.722 1.762 1.672
2845.242 1.652 1.682 1.652 1.892 1.952 1.862 1.982 1.942 1.792 1.592
2864.532 1.3403 1.2921 1.592 1.632 1.562 1.642 1.592 1.3765 1.432 1.502
2883.822 1.502 1.652 1.662 1.662 1.682 1.722 1.782 1.932 2.112 2.152
2903.112 2.222 2.482 2.632 2.612 2.792 3.072 3.362 3.722 4.022 4.332
2922.401 4.842 5.562 6.352 7.172 7.822 7.912 7.772 7.482 6.982 6.232
2941.691 5.262 4.662 4.182 3.932 3.982 3.782 3.402 3.012 2.942 2.832
2960.981 2.532 2.542 2.652 2.762 2.752 2.862 3.012 2.902 2.812 2.942
2980.271 3.102 3.012 3.062 3.232 3.352 3.542 3.782 4.062 4.182 4.212
2999.561 4.222 4.182 3.922 3.702 3.602 3.622 3.872 4.052 4.312 4.552
3018.850 4.612 4.772 4.922 5.142 5.122 4.792 4.682 4.422 4.102 4.012
3038.140 4.002 3.702 3.162 3.062 3.032 2.912 3.092 3.022 2.902 3.092
3057.430 3.212 3.022 3.042 3.162 2.932 2.842 2.892 2.732 2.682 2.912
3076.720 2.922 2.762 2.562 2.622 2.672 2.442 2.442 2.432 2.382 2.302
3096.009 2.232 2.192 2.112 2.002 1.912 1.832 1.662 1.602 1.562 1.452
3115.299 1.3133 1.2908 1.3546 1.3833 1.3503 1.2008 0.9882 0.9999 1.1652 1.1797
3134.589 1.1506 1.0197 0.9186 0.9847 0.9801 0.8635 0.7651 0.6839 0.5985 0.9007
3153.879 0.9549 0.6121 0.7824 1.0587 1.0223 0.8761 0.6775 0.7197 0.8047 0.67
3173.169 0.7788 0.7929 0.6581 0.5801 0.5618 0.5907 0.8142 0.6855 0.5169 0.696
3192.458 0.49189 0.3915 0.3732 0.3117 0.45383 0.39533 0.229 0.47776 0.6591 0.5337
3211.748 0.3435 0.301 0.3582 0.42523 0.5685 0.46626 0.45537 0.5802 0.5594 0.5909
3231.038 0.6061 0.6714 0.7275 0.7216 0.7446 0.6167 0.734 0.949 0.7113 0.5346
3250.328 0.483 0.6058 0.5432 0.47605 0.5408 0.5351 0.6262 0.5143 0.5029 0.48539
3269.617 0.6366 0.6249 0.5169 0.5121 0.3849 0.44985 0.42312 0.219 0.48033 0.8137
3288.907 0.5918 0.48353 0.3396 0.212 0.21 0.291 0.5576 0.6597 0.3731 0.288
3308.197 0.294 0.254 0.407433 0.5771 0.6426 0.5655 0.499 0.5428 0.649 0.391
3327.487 0.3112 0.3704 0.39217 0.5318 0.7838 0.789 0.47302 0.3397 0.27 0.3801
3346.777 0.46028 0.3874 0.6194 0.6707 0.24 0.187 0.3747 0.47626 0.47573 0.40332
3366.066 0.6083 0.6408 0.5198 0.3232 0.47617 0.6525 0.7158 0.8598 0.7749 0.8312
3385.356 1.0369 0.8743 0.7045 1.1159 1.2007 1.1198 1.1525 1.1972 1.3624 1.2659
3404.646 1.2509 1.472 1.532 1.422 1.3872 1.732 1.702 1.502 1.712 1.862
3423.936 1.902 2.002 1.872 1.652 1.702 1.772 1.872 2.062 2.302 2.372
3443.225 2.522 2.772 2.972 2.892 2.662 3.022 3.132 3.292 3.502 3.342
3462.515 3.482 3.722 3.682 3.302 3.102 3.002 2.812 2.402 2.002 1.742
3481.805 1.472 1.2587 1.156 0.9613 0.856 1.0751 0.9625 0.8168 0.9598 0.8061
3501.095 0.5258 0.43448 0.5648 0.731 0.7593 0.584 0.48788 0.5275 0.46295 0.5344
3520.385 0.5369 0.45151 0.538 0.39697 0.3107 0.46191 0.629 0.8453 0.7128 0.6316
3539.674 0.6483 0.5608 0.50019 0.3833 0.41216 0.5438 0.6277 0.3649 0.141 0.287
3558.964 0.3328 0.3887 0.403264 0.202 0.083 0.383 0.5049 0.326 0.41575 0.410651
3578.254 0.45487 0.6192 0.43875 0.3419 0.41559 0.271 0.5626 0.7401 0.45028 0.3572
3597.544 0.3491 0.3907 0.3896 0.3285 0.49841 0.6176 0.3748 0.43883 0.5644 0.5438
3616.833 0.7208 0.761 0.279 0.129 0.3573 0.199 0.082 0.234 0.5837 0.43783
3636.123 0.3263 0.295 0.187 0.3808 0.3934 0.523 0.49024 0.3447 0.3675 0.5098
3655.413 0.625 0.522 0.47588 0.5367 0.5609 0.49109 0.3388 0 0.196 0.5309
3674.703 0.42471 0.3623 0.41854 0.3174 0.401888 0.5628 0.5271 0.3646 0.284 0.127
3693.993 0.261 0.5831 0.42459 0.224 0.221 0.256 0.171 0.5155 0.6003 0.5253
3713.282 0.5067 0.201 0.139 0.3348 0.6442 0.8984 0.6665 0.3524 0.5149 0.5887
3732.572 0.45308 0.3609 0.47325 0.5891 0.39954 0.102 0.076 0.089 0.153 0.251
3751.862 0.25 0.47866 0.8722 0.8948 0.5784 0.3112 0.43766 0.7232 0.47976 0.283
3771.152 0.5249 0.7708 0.7383 0.5687 0.271 0.044 0.131 0.3413 0.4875 0.43802
3790.441 0.238 0.219 0.3644 0.3946 0.3021 0.3512 0.5249 0.3571 0.215 0.48593
3809.731 0.7018 0.6358 0.221 0.099 0.258 0.211 0.41653 0.405956 0.41417 0.7005
3829.021 0.7782 0.7948 0.7422 0.47165 0.3246 0.48089 0.47875 0.49891 0.7232 0.8815
3848.311 0.6411 0.3233 0.089 0.196 0.5127 0.5761 0.5905 0.5642 0.49864 0.407861
3867.601 0.3716 0.222 0.072 0.289 0.3854 0.47517 0.5518 0.5254 0.7678 0.7938
3886.890 0.6366 0.6049 0.3203 0.224 0.44428 0.3502 0.3494 0.275 0.292 0.52
3906.180 0.5683 0.7076 0.5525 0.3878 0.6606 0.694 0.6894 0.6204 0.45134 0.297
3925.470 0.112 0.43975 0.5344 0.6212 0.9002 0.78 0.6321 0.43697 0.493 0.7171
3944.760 0.75 0.5894 0.544 0.5919 0.5488 0.3527 0.036 0.078 0.3361 0.5565
3964.049 0.5431 0.5275 0.5059 0.221 0.47679 0.7458 0.41756 0.271 0.283 0.261
3983.339 0.3635 0.543 0.47533 0.227 0.3772 0.4376 0.45391 0.49789 0.42711 0.6166
##END=
