##TITLE=2,5-Diisopropyl-p-xylene
##JCAMP-DX=4.24
##DATA TYPE=INFRARED SPECTRUM
##ORIGIN=NIST Mass Spectrometry Data Center
##OWNER=NIST Standard Reference Data Program
Collection (C) 2018 copyright by the U.S. Secretary of Commerce
on behalf of the United States of America. All rights reserved.
##CAS REGISTRY NO=10375-96-9
##MOLFORM=C 14 H 22
##$NIST SOURCE=MSDC-IR
##SPECTROMETER/DATA SYSTEM=HP-GC/MS/IRD
##STATE=gas
##XUNITS=1/CM
##YUNITS=ABSORBANCE
##XFACTOR=1.0
##YFACTOR=0.000004800
##DELTAX=4.0
##FIRSTX=550.0
##LASTX=3846.0
##FIRSTY=0.000062
##MAXX=3846
##MINX=550
##MAXY=0.048
##MINY=0
##NPOINTS=825
##XYDATA=(X++(Y..Y))
550.0 13 13 29 32 29 16 2 1 31 35
590.0 19 13 14 31 49 48 39 47 52 51
630.0 58 54 43 47 51 49 63 74 80 78
670.0 67 54 49 50 44 30 15 12 24 23
710.0 20 32 31 23 24 21 24 31 23 16
750.0 13 16 25 32 49 61 68 99 133 142
790.0 133 112 100 96 77 72 64 41 28 27
830.0 28 35 46 55 54 54 70 89 127 216
870.0 360 541 723 749 605 426 268 159 103 92
910.0 95 87 81 86 88 86 88 86 84 86
950.0 88 94 112 130 148 173 217 275 326 345
990.0 325 279 223 185 161 145 140 133 127 129
1030.0 135 133 124 123 124 127 137 170 218 289
1070.0 374 445 490 481 419 365 357 388 445 534
1110.0 620 649 601 498 372 264 199 162 132 124
1150.0 121 104 105 100 91 96 104 118 127 136
1190.0 143 165 217 281 330 338 286 209 152 125
1230.0 112 112 123 130 144 169 198 232 268 279
1270.0 267 237 202 174 160 156 164 180 202 215
1310.0 228 246 268 298 329 364 402 447 500 537
1350.0 560 584 644 735 848 860 758 654 572 543
1390.0 572 624 664 667 622 545 469 421 409 423
1430.0 456 503 564 660 782 929 1093 1243 1318 1289
1470.0 1182 1035 910 851 864 966 1145 1328 1395 1260
1510.0 977 685 476 358 292 254 233 222 210 191
1550.0 168 151 137 128 119 111 102 94 89 84
1590.0 87 90 85 81 81 79 73 69 66 62
1630.0 58 53 50 50 48 44 46 45 42 45
1670.0 47 45 42 44 42 36 41 43 38 34
1710.0 35 39 44 46 43 47 56 71 91 112
1750.0 124 124 111 88 66 49 40 35 32 29
1790.0 27 25 18 17 23 20 14 17 16 12
1830.0 14 20 22 19 17 21 25 23 22 22
1870.0 19 18 19 17 20 20 18 22 25 30
1910.0 27 22 19 17 15 12 12 17 18 13
1950.0 12 12 14 14 8 7 13 15 13 13
1990.0 16 16 13 9 8 9 8 7 7 10
2030.0 12 12 10 9 6 4 8 13 12 10
2070.0 10 6 6 7 5 0 3 10 10 7
2110.0 6 3 3 8 7 7 8 10 9 10
2150.0 10 10 13 12 8 10 10 5 0 0
2190.0 4 6 8 11 14 18 18 22 25 25
2230.0 26 26 27 25 22 20 20 17 14 17
2270.0 15 13 13 13 12 9 8 8 1 0
2310.0 2 1 0 5 7 5 8 9 6 9
2350.0 11 11 11 21 25 23 25 22 22 26
2390.0 27 27 24 22 22 28 30 29 28 26
2430.0 26 25 28 26 17 23 28 30 35 39
2470.0 40 38 34 34 31 31 31 29 26 22
2510.0 17 14 14 16 17 24 25 19 26 31
2550.0 29 30 43 40 33 40 47 46 51 49
2590.0 45 53 51 47 52 52 48 45 44 47
2630.0 47 48 50 50 52 50 51 49 58 69
2670.0 65 66 69 67 64 65 64 68 77 84
2710.0 93 113 133 142 149 157 162 164 162 164
2750.0 162 158 163 165 167 171 170 162 167 178
2790.0 186 197 210 230 252 274 295 314 333 358
2830.0 389 424 466 530 618 719 841 1009 1246 1594
2870.0 2069 2597 3015 3172 3049 2785 2559 2445 2440 2497
2910.0 2593 2740 2964 3325 3836 4423 4921 5146 5023 4710
2950.0 4552 4989 6445 8514 10000 9981 8308 6080 4302 3084
2990.0 2323 1886 1646 1532 1498 1514 1553 1583 1545 1407
3030.0 1191 948 755 624 535 474 447 426 397 378
3070.0 361 352 334 315 308 301 299 292 293 295
3110.0 297 296 287 274 241 212 201 180 154 138
3150.0 126 122 123 127 127 121 118 115 105 105
3190.0 111 93 89 94 93 84 81 85 86 76
3230.0 66 66 57 49 43 32 36 36 29 23
3270.0 22 27 24 28 25 20 26 19 16 21
3310.0 21 16 24 33 23 20 18 12 22 32
3350.0 29 27 26 19 13 10 13 17 20 15
3390.0 12 12 17 24 27 30 32 28 32 22
3430.0 11 13 14 12 5 8 21 22 8 12
3470.0 22 17 9 8 15 21 9 5 21 15
3510.0 3 0 6 14 3 8 21 15 14 17
3550.0 17 13 10 8 9 13 15 12 8 1
3590.0 4 5 6 10 12 15 12 15 15 3
3630.0 1 8 10 10 9 7 9 8 8 12
3670.0 7 5 9 6 14 13 0 0 0 5
3710.0 7 9 8 6 6 3 2 11 18 21
3750.0 14 8 17 7 0 10 9 6 14 18
3790.0 19 26 29 28 26 23 20 22 25 18
3830.0 23 41 40 28 18
##END=
