##TITLE=p-Anisidine
##JCAMP-DX=4.24
##DATA TYPE=INFRARED SPECTRUM
##ORIGIN=NIST Mass Spectrometry Data Center
##OWNER=NIST Standard Reference Data Program
Collection (C) 2018 copyright by the U.S. Secretary of Commerce
on behalf of the United States of America. All rights reserved.
##CAS REGISTRY NO=104-94-9
##MOLFORM=C 7 H 9 N O
##$NIST SOURCE=MSDC-IR
##SPECTROMETER/DATA SYSTEM=HP-GC/MS/IRD
##STATE=gas
##XUNITS=1/CM
##YUNITS=ABSORBANCE
##XFACTOR=1.0
##YFACTOR=0.000004100
##DELTAX=4.0
##FIRSTX=550.0
##LASTX=3846.0
##FIRSTY=0.001431
##MAXX=3846
##MINX=550
##MAXY=0.041
##MINY=0
##NPOINTS=825
##XYDATA=(X++(Y..Y))
550.0 349 524 367 374 349 336 339 342 341 343
590.0 346 358 378 394 403 419 443 481 531 598
630.0 698 803 925 1073 1216 1326 1366 1338 1259 1135
670.0 996 902 874 848 833 845 862 863 866 893
710.0 941 985 1036 1101 1118 1057 938 796 622 429
750.0 297 241 203 176 172 184 206 231 264 334
790.0 439 577 749 955 1172 1387 1646 1891 1881 1672
830.0 1465 1251 1024 809 616 455 344 271 223 189
870.0 154 125 114 93 67 53 49 44 34 24
910.0 19 16 3 9 15 9 14 19 19 16
950.0 24 38 54 68 91 113 119 144 170 187
990.0 219 259 299 354 418 518 658 824 1030 1286
1030.0 1542 1766 1915 1950 1880 1679 1417 1168 926 733
1070.0 623 546 492 468 440 405 380 360 354 355
1110.0 381 408 401 379 367 347 301 260 246 252
1150.0 282 347 430 515 601 716 818 847 838 829
1190.0 787 717 687 732 850 1045 1364 1886 2690 3879
1230.0 5404 6950 8041 8489 8328 7406 5848 4361 3312 2558
1270.0 1942 1452 1135 984 917 869 810 726 628 530
1310.0 447 397 366 344 323 297 258 206 157 120
1350.0 93 74 64 53 48 49 51 53 56 62
1390.0 74 86 101 125 151 178 208 236 272 322
1430.0 395 499 606 675 727 792 835 901 1004 1046
1470.0 1024 1018 1036 1062 1208 1653 2620 4374 6809 9001
1510.0 10000 9934 9034 6909 4199 2281 1318 831 568 424
1550.0 341 289 259 244 237 239 252 273 304 349
1590.0 403 475 593 759 946 1120 1269 1371 1363 1250
1630.0 1093 915 722 542 401 309 254 215 184 164
1670.0 142 120 106 92 77 71 65 58 56 62
1710.0 69 77 83 85 82 81 76 70 63 56
1750.0 53 52 46 43 44 45 40 38 42 44
1790.0 45 52 56 58 61 64 73 81 89 97
1830.0 103 112 123 129 130 123 115 108 94 77
1870.0 65 57 49 44 44 46 49 48 46 49
1910.0 46 43 42 42 38 35 34 38 43 44
1950.0 45 54 66 80 91 97 105 108 105 101
1990.0 95 85 76 72 71 67 59 63 66 66
2030.0 68 69 70 72 78 81 84 94 104 107
2070.0 112 112 109 106 101 95 82 67 54 42
2110.0 32 22 17 8 3 7 9 11 12 8
2150.0 1 0 5 8 4 3 4 4 4 6
2190.0 3 5 10 9 6 5 8 9 9 11
2230.0 18 17 19 21 23 28 25 24 29 32
2270.0 32 38 42 43 45 42 41 39 38 38
2310.0 35 34 38 45 45 45 52 53 52 52
2350.0 52 52 45 40 28 15 10 8 11 10
2390.0 5 2 8 12 6 11 16 13 8 8
2430.0 11 8 9 11 13 14 19 29 32 32
2470.0 35 40 44 44 42 41 41 40 35 32
2510.0 38 39 37 39 37 35 36 35 33 30
2550.0 29 24 19 14 12 17 16 18 22 28
2590.0 29 28 30 28 28 29 26 22 16 14
2630.0 15 21 18 14 20 19 17 9 3 9
2670.0 20 23 20 23 21 23 27 22 25 33
2710.0 37 34 29 28 23 23 32 36 37 41
2750.0 39 38 43 41 37 47 67 69 66 81
2790.0 95 115 132 152 178 206 244 296 369 482
2830.0 634 770 834 855 831 725 586 486 424 388
2870.0 376 380 390 410 440 479 535 602 670 751
2910.0 829 889 919 925 956 1021 1096 1166 1209 1226
2950.0 1213 1143 1016 896 801 723 675 656 680 761
2990.0 909 1109 1288 1390 1419 1377 1252 1094 982 954
3030.0 983 1030 1053 1027 953 824 673 547 475 446
3070.0 442 436 415 385 345 314 288 267 252 239
3110.0 222 205 182 164 146 124 115 94 74 59
3150.0 49 43 36 34 30 21 14 25 29 28
3190.0 32 32 27 32 38 36 45 45 36 28
3230.0 26 31 43 39 25 35 39 38 43 32
3270.0 25 32 23 22 29 19 14 19 13 10
3310.0 13 13 11 10 15 29 25 12 16 20
3350.0 17 15 15 28 43 52 64 71 80 107
3390.0 138 180 213 221 213 185 152 110 81 66
3430.0 61 65 67 72 83 95 103 118 141 171
3470.0 188 200 212 207 201 183 164 154 128 99
3510.0 85 68 54 53 40 38 43 34 29 37
3550.0 35 33 35 24 24 28 27 28 25 24
3590.0 26 26 15 4 3 7 11 17 18 13
3630.0 22 34 23 15 21 17 19 23 24 29
3670.0 25 19 20 19 11 15 26 28 24 14
3710.0 12 13 12 9 6 10 19 18 19 23
3750.0 21 11 6 24 24 20 27 23 6 6
3790.0 16 20 16 6 11 23 18 15 20 20
3830.0 19 20 23 18 9
##END=
