##TITLE=4-Propylanisole
##JCAMP-DX=4.24
##DATA TYPE=INFRARED SPECTRUM
##ORIGIN=EPA-IR VAPOR PHASE LIBRARY
##OWNER=SRD/NIST
Collection (C) 2018 copyright by the U.S. Secretary of Commerce
on behalf of the United States of America. All rights reserved.
##CAS REGISTRY NO=104-45-0
##MOLFORM=C 10 H 14 O
##$NIST SOURCE=MSDC-IR
##STATE=gas
##XUNITS=1/CM
##YUNITS=ABSORBANCE
##XFACTOR=1.
##YFACTOR=0.001
##DELTAX=1.92898
##FIRSTX=549.8
##LASTX=4000.7
##FIRSTY=14.526
##MAXX=4000.7
##MINX=549.759
##MAXY=0.247286
##MINY=0
##NPOINTS=1790
##XYDATA=(X++(Y..Y))
549.759 14.526 14.586 14.416 14.476 13.796 12.886 11.986 11.006 9.946 8.806
569.049 7.926 7.216 6.636 6.076 5.616 4.986 4.226 3.716 3.246 2.986
588.339 2.966 3.016 2.776 2.106 1.936 2.136 1.976 1.936 1.806 1.736
607.628 1.686 1.456 1.416 1.346 1.0839 0.8563 0.7662 1.0048 1.0126 0.7782
626.918 0.9466 1.126 1.0056 1.136 1.506 1.506 1.246 1.206 1.266 1.146
646.208 1.226 1.296 1.1103 1.146 1.266 1.246 1.306 1.186 1.0968 1.286
665.498 1.626 1.796 1.786 1.876 2.296 2.906 3.286 3.806 4.786 5.946
684.787 7.206 8.246 9.146 10.026 10.456 10.396 10.136 9.636 8.836 7.696
704.077 6.476 5.826 5.396 5.046 4.796 4.546 4.406 4.316 4.206 3.876
723.367 3.656 3.686 3.666 3.666 3.806 4.096 4.386 4.706 5.246 5.956
742.657 6.576 7.056 7.496 7.496 7.046 6.606 6.036 5.396 4.676 4.126
761.947 3.896 3.686 3.766 3.996 4.126 4.386 4.986 5.786 6.516 7.106
781.236 7.846 9.016 10.476 11.846 13.226 14.816 16.346 18.036 20.076 22.016
800.526 23.966 25.926 27.556 28.996 30.156 31.216 32.336 33.106 33.476 33.866
819.816 33.906 33.596 33.156 32.616 32.086 31.696 31.566 31.346 31.116 30.456
839.106 29.446 28.336 26.876 24.986 22.746 20.546 18.156 16.006 14.496 12.846
858.395 11.426 10.346 9.326 8.356 7.266 6.516 5.986 5.586 5.156 4.726
877.685 4.486 4.026 3.646 3.506 3.396 3.316 3.246 3.166 3.006 2.876
896.975 2.776 2.586 2.496 2.266 2.106 2.156 2.096 1.756 1.656 1.676
916.265 1.726 1.666 1.616 1.716 1.476 1.356 1.436 1.556 1.606 1.746
935.555 1.886 1.976 1.976 1.876 1.896 1.976 1.936 1.946 2.136 2.226
954.844 2.336 2.466 2.316 2.326 2.536 2.726 2.866 3.066 3.396 3.666
974.134 3.916 4.186 4.436 4.716 4.946 5.256 5.586 5.926 6.436 6.916
993.424 7.296 7.596 7.946 8.546 9.316 10.296 11.496 12.486 13.476 14.516
1012.714 15.846 17.606 19.516 21.616 24.086 27.116 30.556 34.306 38.486 42.836
1032.003 47.166 51.256 55.006 57.846 59.516 60.506 59.886 57.676 54.546 50.616
1051.293 46.206 41.076 35.896 31.216 27.416 24.066 21.116 19.046 16.916 15.056
1070.583 13.636 12.226 11.446 10.646 9.526 8.996 8.816 8.816 8.766 8.346
1089.873 8.386 8.666 8.996 9.486 9.986 10.266 10.966 11.936 12.196 12.276
1109.163 12.076 12.626 12.806 12.776 13.116 12.676 11.446 10.506 9.866 9.266
1128.452 8.586 7.606 6.926 6.346 6.016 5.986 6.086 5.896 6.026 6.566
1147.742 6.816 7.576 8.826 9.746 10.926 12.946 15.946 20.066 25.626 33.176
1167.032 42.366 51.086 57.266 60.856 62.866 63.496 61.636 56.186 47.746 38.916
1186.322 31.866 26.956 23.466 20.746 19.086 18.226 18.296 19.056 19.816 20.646
1205.611 22.016 24.026 26.026 27.806 29.726 32.456 35.396 38.566 43.176 49.016
1224.901 56.016 65.136 76.176 89.726 106.856 127.686 151.336 176.456 201.146 222.716
1244.191 238.496 246.796 247.286 239.676 224.636 203.316 177.996 151.756 127.466 107.366
1263.481 91.626 79.516 70.476 63.696 58.716 55.036 52.336 50.716 49.776 49.426
1282.771 49.796 50.446 51.166 51.836 52.006 51.446 50.166 47.866 44.646 40.976
1302.060 36.886 32.596 28.486 24.806 21.696 19.186 17.276 15.916 14.946 14.156
1321.350 13.556 13.086 12.836 12.836 12.936 13.136 13.436 13.686 13.756 13.576
1340.640 13.166 12.616 11.986 11.226 10.316 9.356 8.526 7.886 7.416 7.146
1359.930 6.966 6.876 6.836 6.796 6.846 6.996 7.306 7.666 8.076 8.566
1379.219 9.026 9.366 9.606 9.696 9.606 9.316 8.856 8.316 7.776 7.316
1398.509 6.946 6.756 6.626 6.556 6.656 6.846 7.116 7.416 7.786 8.156
1417.799 8.556 9.036 9.536 10.136 10.806 11.616 12.696 14.046 15.676 17.726
1437.089 20.216 22.806 25.096 26.956 28.396 29.586 30.816 31.796 32.396 33.106
1456.378 34.096 35.456 37.186 38.986 40.486 41.286 41.086 40.336 39.396 38.196
1475.668 36.576 34.596 32.676 31.386 31.016 31.576 33.166 35.896 40.006 45.936
1494.958 54.246 65.706 81.066 100.896 125.016 151.496 177.066 196.826 207.266 208.296
1514.248 201.256 187.326 166.056 137.356 105.076 76.076 54.046 39.246 29.796 23.656
1533.538 19.346 16.276 14.236 12.706 11.426 10.456 9.746 9.206 8.746 8.416
1552.827 8.256 8.156 8.116 8.116 8.186 8.466 8.826 9.206 9.876 10.676
1572.117 11.586 12.646 13.716 14.876 15.956 16.946 17.886 18.756 19.636 20.596
1591.407 21.666 22.946 24.716 27.076 30.016 33.326 36.826 40.206 42.926 44.616
1610.697 45.006 44.056 41.816 38.516 34.376 29.826 25.196 20.806 17.216 14.476
1629.986 12.396 10.816 9.596 8.736 8.136 7.576 7.106 6.706 6.286 5.936
1649.276 5.666 5.366 5.006 4.746 4.476 4.176 3.966 3.726 3.496 3.306
1668.566 3.116 2.906 2.766 2.656 2.566 2.496 2.416 2.366 2.276 2.246
1687.856 2.226 2.076 2.026 2.046 2.016 1.976 2.016 2.076 2.036 1.996
1707.146 2.006 1.946 1.896 1.876 1.826 1.766 1.796 1.876 1.846 1.856
1726.435 1.906 1.866 1.856 1.936 1.926 1.896 1.986 2.136 2.316 2.436
1745.725 2.556 2.726 2.816 2.886 2.946 2.886 2.786 2.656 2.426 2.196
1765.015 2.046 1.826 1.616 1.486 1.436 1.346 1.236 1.236 1.196 1.206
1784.305 1.246 1.296 1.346 1.286 1.256 1.336 1.386 1.446 1.436 1.396
1803.594 1.396 1.456 1.426 1.406 1.406 1.336 1.366 1.376 1.336 1.336
1822.884 1.356 1.456 1.516 1.486 1.496 1.556 1.616 1.736 1.826 1.926
1842.174 2.066 2.176 2.316 2.446 2.506 2.616 2.836 2.926 3.026 3.266
1861.464 3.416 3.546 3.746 3.926 3.986 3.996 4.096 4.066 3.996 3.916
1880.754 3.786 3.646 3.516 3.296 3.136 2.956 2.736 2.576 2.406 2.276
1900.043 2.116 1.976 1.876 1.786 1.706 1.636 1.606 1.646 1.616 1.546
1919.333 1.576 1.626 1.666 1.676 1.696 1.726 1.806 1.866 1.866 1.896
1938.623 1.906 1.936 1.976 1.926 1.846 1.886 1.936 1.896 1.896 1.906
1957.913 1.866 1.846 1.896 1.876 1.746 1.766 1.826 1.876 1.916 1.906
1977.202 1.966 2.006 2.076 2.226 2.276 2.276 2.316 2.346 2.336 2.366
1996.492 2.336 2.256 2.266 2.206 2.076 2.066 2.066 2.056 2.086 2.136
2015.782 2.226 2.286 2.356 2.516 2.646 2.706 2.806 2.876 2.996 3.056
2035.072 3.136 3.316 3.376 3.366 3.416 3.516 3.666 3.756 3.746 3.716
2054.362 3.756 3.826 3.856 3.916 3.886 3.846 3.896 3.876 3.896 3.926
2073.651 3.936 3.896 3.796 3.736 3.636 3.496 3.336 3.226 3.096 2.856
2092.941 2.626 2.416 2.186 2.006 1.836 1.656 1.576 1.516 1.336 1.246
2112.231 1.146 1.0111 0.985 0.9609 0.8528 0.8174 0.8385 0.8522 0.8474 0.7285
2131.521 0.6235 0.572 0.6462 0.7019 0.6552 0.6345 0.6151 0.6217 0.6535 0.5966
2150.810 0.5102 0.5079 0.4821 0.4805 0.5316 0.5439 0.5087 0.4788 0.4906 0.5402
2170.100 0.5911 0.559 0.6116 0.6912 0.6942 0.6864 0.6458 0.6652 0.6724 0.6256
2189.390 0.6688 0.6736 0.643 0.7658 0.8516 0.803 0.7535 0.7342 0.8142 0.8648
2208.680 0.8377 0.7927 0.8008 0.7846 0.6988 0.7718 0.8078 0.7484 0.7428 0.8137
2227.970 0.8322 0.7661 0.7758 0.7455 0.7174 0.7908 0.8203 0.8316 0.814 0.7922
2247.259 0.8455 0.921 0.9503 0.9364 0.964 1.0084 1.1122 1.1118 1.0336 1.0473
2266.549 1.156 1.276 1.276 1.266 1.286 1.286 1.356 1.486 1.506 1.506
2285.839 1.536 1.586 1.636 1.636 1.636 1.636 1.646 1.636 1.536 1.526
2305.129 1.616 1.516 1.446 1.416 1.326 1.306 1.336 1.296 1.226 1.296
2324.418 1.346 1.236 1.186 1.206 1.146 1.146 1.146 1.0522 1.0816 1.156
2343.708 1.156 1.196 1.196 1.166 1.146 1.1032 1.0954 1.1182 1.126 1.0818
2362.998 0.9885 0.9539 0.9277 0.8725 0.8731 0.8426 0.82 0.8218 0.8097 0.8128
2382.288 0.7995 0.7359 0.8169 0.8707 0.8117 0.876 0.9266 0.8978 0.8923 0.9604
2401.578 1.0925 1.156 1.0931 1.126 1.206 1.236 1.286 1.326 1.396 1.406
2420.867 1.356 1.316 1.236 1.256 1.216 1.0884 1.1171 1.1161 1.0429 1.0272
2440.157 1.0309 1.0734 1.1256 1.0789 1.0215 1.0155 1.0675 1.0798 1.0758 1.1242
2459.447 1.146 1.196 1.256 1.236 1.266 1.416 1.536 1.606 1.646 1.636
2478.737 1.666 1.766 1.806 1.816 1.866 1.976 2.056 1.936 1.826 1.856
2498.026 1.856 1.816 1.766 1.766 1.716 1.656 1.656 1.636 1.586 1.586
2517.316 1.636 1.706 1.736 1.716 1.706 1.806 1.956 2.066 2.146 2.176
2536.606 2.186 2.266 2.206 2.166 2.216 2.206 2.166 2.056 1.956 1.856
2555.896 1.696 1.526 1.476 1.506 1.526 1.436 1.336 1.346 1.376 1.356
2575.186 1.386 1.436 1.466 1.456 1.486 1.496 1.536 1.616 1.596 1.626
2594.475 1.566 1.496 1.496 1.456 1.406 1.456 1.516 1.496 1.446 1.346
2613.765 1.386 1.346 1.276 1.306 1.356 1.476 1.526 1.476 1.446 1.476
2633.055 1.476 1.416 1.456 1.466 1.576 1.686 1.606 1.496 1.536 1.546
2652.345 1.496 1.516 1.526 1.576 1.636 1.566 1.516 1.506 1.546 1.596
2671.634 1.586 1.686 1.676 1.666 1.646 1.516 1.506 1.506 1.516 1.566
2690.924 1.496 1.476 1.466 1.396 1.426 1.416 1.456 1.566 1.566 1.576
2710.214 1.636 1.806 1.936 1.906 1.896 1.976 2.056 2.056 2.136 2.276
2729.504 2.396 2.436 2.466 2.516 2.596 2.746 2.886 2.946 2.946 3.056
2748.794 3.096 3.116 3.066 2.906 2.956 3.106 3.156 3.156 3.236 3.326
2768.083 3.386 3.376 3.496 3.706 3.746 3.776 3.916 4.186 4.446 4.636
2787.373 4.886 5.106 5.316 5.606 5.946 6.066 6.376 6.886 7.176 7.476
2806.663 7.836 8.306 8.896 9.496 10.146 10.816 11.496 12.336 13.396 14.606
2825.953 16.046 17.916 20.186 23.006 26.596 30.446 33.896 36.726 38.796 40.276
2845.242 41.296 41.596 41.096 40.016 39.036 38.566 38.536 38.966 39.726 40.816
2864.532 42.006 43.396 45.046 46.876 48.796 50.896 53.296 55.076 55.736 55.366
2883.822 54.506 53.326 51.606 49.396 47.136 45.466 44.636 44.586 45.346 46.976
2903.112 49.246 51.926 55.216 59.066 63.166 67.486 72.036 76.616 81.106 85.796
2922.401 90.776 96.086 101.676 106.986 111.776 115.976 119.986 123.326 125.316 125.576
2941.691 123.596 120.506 117.066 113.116 108.886 104.866 101.296 98.796 97.466 96.946
2960.981 97.336 98.426 100.026 101.666 102.276 100.826 97.436 93.136 87.906 81.566
2980.271 74.326 66.676 59.846 54.626 51.126 49.126 48.436 48.936 50.366 52.326
2999.561 54.336 55.776 55.966 54.836 53.026 50.726 47.486 43.556 39.656 36.436
3018.850 34.386 33.496 33.586 34.376 35.626 37.026 38.066 38.466 38.016 36.996
3038.140 35.376 32.946 30.066 26.966 24.136 21.836 20.076 18.906 18.076 17.586
3057.430 17.256 16.986 17.086 17.496 17.846 17.946 18.116 18.186 17.936 17.546
3076.720 17.126 16.536 15.756 14.956 14.206 13.596 13.186 12.826 12.456 12.206
3096.009 12.146 11.916 11.596 11.146 10.676 10.216 9.606 9.026 8.576 7.976
3115.299 7.386 6.956 6.516 6.236 5.896 5.576 5.336 5.056 4.766 4.516
3134.589 4.386 4.256 3.956 3.646 3.456 3.246 3.026 2.856 2.796 2.726
3153.879 2.646 2.496 2.346 2.266 2.166 2.136 2.046 2.096 2.116 1.986
3173.169 1.906 1.856 1.876 1.966 1.896 1.676 1.646 1.686 1.726 1.776
3192.458 1.726 1.566 1.456 1.426 1.406 1.206 1.126 1.1249 1.0606 1.0901
3211.748 1.0896 1.0686 1.0301 1.0536 0.9644 0.9882 1.0788 0.9131 0.7614 0.6971
3231.038 0.7906 0.8386 0.7881 0.7919 0.742 0.683 0.6003 0.5683 0.6625 0.6966
3250.328 0.5939 0.5453 0.6394 0.6541 0.7012 0.6791 0.5954 0.7283 0.685 0.501
3269.617 0.4453 0.458 0.4489 0.3911 0.4198 0.4716 0.4892 0.4316 0.3541 0.3386
3288.907 0.352 0.397 0.3966 0.4656 0.5046 0.4991 0.4716 0.4571 0.2953 0.2089
3308.197 0.369 0.4312 0.4287 0.3596 0.2422 0.2584 0.3644 0.4968 0.5454 0.3949
3327.487 0.20059 0.21787 0.2403 0.17949 0.21572 0.2298 0.19488 0.2932 0.4309 0.3935
3346.777 0.2876 0.2182 0.2344 0.253 0.2728 0.21574 0.18506 0.21903 0.2827 0.3475
3366.066 0.2651 0.21574 0.2262 0.0831 0.0994 0.19317 0.2634 0.2804 0.15705 0.15218
3385.356 0.19754 0.18722 0.2395 0.3101 0.2756 0.16556 0.1096 0.16607 0.18483 0.2319
3404.646 0.291 0.2741 0.19447 0.0812 0.14344 0.2964 0.3121 0.2886 0.135689 0.022
3423.936 0.0693 0.13207 0.132347 0.135755 0.18775 0.0925 0.134398 0.2936 0.3188 0.3531
3443.225 0.3306 0.21504 0.21812 0.3127 0.4177 0.4031 0.3193 0.14009 0.023 0.19513
3462.515 0.2869 0.2794 0.3722 0.4139 0.3608 0.21868 0.0429 0.0751 0.1235 0.0561
3481.805 0.0624 0.13934 0.125229 0.0726 0.14546 0.15682 0.13712 0.17513 0.17463 0.2881
3501.095 0.20201 0.1031 0.2073 0.2737 0.17782 0.15735 0.3372 0.3275 0.2277 0.316
3520.385 0.3407 0.2731 0.287 0.2564 0.21637 0.2138 0.2646 0.3426 0.3842 0.2863
3539.674 0.2994 0.3161 0.129845 0.005 0.1123 0.16827 0.131626 0.2748 0.4006 0.2926
3558.964 0.15441 0.12173 0.0724 0 0.004 0.0859 0.001 0.024 0.15486 0.0981
3578.254 0.14655 0.22452 0.2747 0.19473 0.0599 0.0822 0.2769 0.3641 0.2602 0.273
3597.544 0.2989 0.2262 0.19446 0.13942 0.107 0.3301 0.2636 0.130541 0.2969 0.3789
3616.833 0.2794 0.2382 0.3766 0.3031 0.1016 0.17723 0.3592 0.22337 0.17436 0.295
3636.123 0.4359 0.4947 0.421 0.3979 0.3376 0.3245 0.3071 0.22568 0.2551 0.2276
3655.413 0.2851 0.4401 0.3825 0.2617 0.3943 0.4984 0.4433 0.4736 0.442 0.4774
3674.703 0.4658 0.4226 0.5093 0.6265 0.5443 0.4715 0.4474 0.3392 0.3316 0.3348
3693.993 0.3612 0.4002 0.5105 0.4945 0.3554 0.4483 0.4767 0.4615 0.5203 0.385
3713.282 0.2783 0.3888 0.5697 0.6656 0.4769 0.2802 0.3461 0.541 0.5775 0.4166
3732.572 0.3068 0.2469 0.3718 0.533 0.5197 0.4448 0.4627 0.4804 0.4815 0.436
3751.862 0.3051 0.4171 0.5254 0.4264 0.4055 0.4613 0.3713 0.4208 0.512 0.6585
3771.152 0.7032 0.5221 0.5846 0.6177 0.5272 0.5553 0.5889 0.6787 0.6504 0.532
3790.441 0.4733 0.3708 0.4594 0.5236 0.4201 0.3291 0.2694 0.3669 0.5262 0.4915
3809.731 0.3954 0.483 0.6695 0.6073 0.4941 0.5706 0.5263 0.4582 0.5863 0.6405
3829.021 0.6852 0.6237 0.508 0.4943 0.4108 0.4375 0.4901 0.3914 0.3457 0.441
3848.311 0.5268 0.5024 0.4348 0.5046 0.5153 0.4739 0.4664 0.5168 0.6081 0.5976
3867.601 0.6214 0.4844 0.4893 0.7417 0.6973 0.6051 0.6712 0.6376 0.5515 0.5409
3886.890 0.649 0.7953 0.651 0.5582 0.6008 0.4593 0.4788 0.6124 0.641 0.575
3906.180 0.5324 0.5402 0.5056 0.5486 0.53 0.5478 0.5398 0.5396 0.5782 0.5412
3925.470 0.716 0.8124 0.6002 0.592 0.8235 0.8141 0.6527 0.5382 0.6527 0.7669
3944.760 0.9079 0.9476 0.6688 0.7028 0.8623 0.692 0.639 0.7667 0.8296 0.723
3964.049 0.4685 0.5989 0.76 0.9024 0.9212 0.6441 0.7509 0.9292 1.0235 0.9533
3983.339 0.8107 0.9951 1.186 1.0551 1.112 1.286 1.226 1.126 0.9751 0.8414
##END=
