##TITLE=(3-Chloropropyl)benzene
##JCAMP-DX=4.24
##DATA TYPE=INFRARED SPECTRUM
##ORIGIN=NIST Mass Spectrometry Data Center
##OWNER=NIST Standard Reference Data Program
Collection (C) 2018 copyright by the U.S. Secretary of Commerce
on behalf of the United States of America. All rights reserved.
##CAS REGISTRY NO=104-52-9
##MOLFORM=C 9 H 11 Cl
##$NIST SOURCE=MSDC-IR
##SPECTROMETER/DATA SYSTEM=HP-GC/MS/IRD
##STATE=gas
##XUNITS=1/CM
##YUNITS=ABSORBANCE
##XFACTOR=1.0
##YFACTOR=0.000000800
##DELTAX=4.0
##FIRSTX=550.0
##LASTX=3846.0
##FIRSTY=0.000442
##MAXX=3846
##MINX=550
##MAXY=0.008
##MINY=0
##NPOINTS=825
##XYDATA=(X++(Y..Y))
550.0 552 533 607 678 876 838 573 464 330 244
590.0 217 190 149 72 74 129 151 175 228 300
630.0 372 504 702 981 1402 1961 2566 3202 3659 3825
670.0 3752 3613 3811 4503 5735 7327 8967 10000 9819 8804
710.0 7645 6743 6364 6560 7088 7877 8652 9065 8963 8337
750.0 7307 6108 4944 3929 3220 2754 2359 1970 1668 1408
790.0 1239 1119 1033 1030 990 1025 1189 1274 1239 1179
830.0 920 691 624 604 713 877 1006 1099 1086 959
870.0 767 573 421 386 464 529 583 666 757 815
910.0 788 669 540 417 341 345 366 374 363 380
950.0 456 578 800 1116 1379 1517 1520 1320 976 686
990.0 562 487 414 373 397 467 570 777 1186 1519
1030.0 1531 1388 1016 617 439 391 409 464 589 752
1070.0 882 924 889 838 720 529 337 221 235 232
1110.0 143 109 85 55 57 36 0 14 22 27
1150.0 64 90 96 80 80 74 76 148 213 233
1190.0 300 380 394 356 308 232 192 244 315 413
1230.0 487 525 576 604 718 930 1159 1399 1638 1835
1270.0 1972 2133 2416 2835 3337 3782 4054 4087 3903 3561
1310.0 3172 2794 2404 2065 1796 1591 1419 1290 1279 1271
1350.0 1282 1220 1061 849 613 476 420 364 327 287
1390.0 265 274 266 279 307 369 495 652 840 1144
1430.0 1588 2071 2769 3657 4407 4744 4615 4052 3291 2558
1470.0 1985 1624 1487 1618 2178 3232 4152 4339 3790 2505
1510.0 1250 706 495 390 350 344 341 320 270 261
1550.0 271 253 261 308 390 494 577 687 884 1126
1590.0 1435 1795 2090 2222 2082 1701 1199 747 480 340
1630.0 259 200 193 185 182 161 125 147 152 116
1670.0 71 92 94 73 86 107 102 80 88 110
1710.0 119 116 148 180 188 193 202 222 217 190
1750.0 178 166 142 110 85 110 182 243 300 414
1790.0 546 634 620 552 450 345 295 272 246 215
1830.0 194 189 186 178 206 280 328 372 436 472
1870.0 484 494 486 434 334 258 208 187 184 163
1910.0 193 225 272 327 399 489 562 621 655 657
1950.0 627 552 436 323 222 153 132 147 142 118
1990.0 93 81 83 76 105 118 88 90 114 125
2030.0 110 103 95 84 104 100 73 87 87 81
2070.0 95 94 95 115 131 141 107 80 83 79
2110.0 92 104 100 77 83 101 104 67 78 127
2150.0 134 114 125 137 131 140 133 127 132 116
2190.0 103 118 132 112 115 129 108 109 123 119
2230.0 129 132 113 101 112 118 108 115 132 140
2270.0 129 124 137 150 142 135 145 147 148 180
2310.0 216 213 196 176 197 219 197 180 170 173
2350.0 161 135 130 143 127 110 116 115 114 126
2390.0 123 112 130 131 120 130 150 143 129 151
2430.0 139 111 109 104 128 134 116 112 138 147
2470.0 135 146 151 125 125 147 109 106 132 113
2510.0 99 101 116 115 106 120 121 98 104 110
2550.0 71 76 92 91 108 119 138 139 121 115
2590.0 141 174 164 162 189 166 145 172 176 192
2630.0 206 207 210 200 175 163 191 196 212 222
2670.0 197 182 205 205 185 204 234 213 201 221
2710.0 218 218 205 206 214 215 220 238 258 257
2750.0 249 261 269 253 266 309 313 305 315 360
2790.0 399 419 439 447 468 483 486 532 585 657
2830.0 785 924 1076 1309 1592 1899 2272 2637 2894 3103
2870.0 3246 3277 3223 3079 2901 2762 2718 2839 3125 3517
2910.0 3990 4520 5067 5585 6049 6482 7041 7692 8262 8789
2950.0 9125 9149 8937 8355 7588 6822 5811 4837 4155 3749
2990.0 3651 3862 4244 4463 4516 4459 4473 4853 5732 6882
3030.0 7880 8267 7862 6734 5401 4562 4355 4695 5655 6819
3070.0 7476 7437 6757 5658 4751 4158 3678 3211 2734 2292
3110.0 1881 1549 1195 878 683 548 451 361 335 323
3150.0 304 322 319 299 297 278 266 274 240 201
3190.0 193 190 198 222 201 161 177 186 166 175
3230.0 223 238 248 220 161 182 218 249 279 228
3270.0 173 144 165 218 216 199 180 188 211 193
3310.0 182 137 91 137 171 153 155 173 187 192
3350.0 178 160 160 172 178 159 143 154 190 199
3390.0 218 219 169 139 141 158 151 121 100 170
3430.0 190 127 102 113 127 90 97 96 99 145
3470.0 168 131 99 138 177 184 155 111 104 144
3510.0 153 148 152 141 161 164 192 199 147 144
3550.0 176 174 133 117 125 101 90 140 139 81
3590.0 88 164 191 172 154 174 189 143 152 205
3630.0 203 190 183 187 184 200 213 202 216 196
3670.0 167 134 148 159 167 223 204 170 169 172
3710.0 181 224 241 176 189 221 163 130 129 104
3750.0 115 108 127 169 191 157 143 215 211 181
3790.0 196 207 224 239 211 203 195 203 199 169
3830.0 167 152 171 190 188
##END=
