##TITLE=4-(Methylmercapto)aniline
##JCAMP-DX=4.24
##DATA TYPE=INFRARED SPECTRUM
##ORIGIN=EPA-IR VAPOR PHASE LIBRARY
##OWNER=SRD/NIST
Collection (C) 2018 copyright by the U.S. Secretary of Commerce
on behalf of the United States of America. All rights reserved.
##CAS REGISTRY NO=104-96-1
##MOLFORM=C 7 H 9 N S
##$NIST SOURCE=MSDC-IR
##STATE=gas
##XUNITS=1/CM
##YUNITS=ABSORBANCE
##XFACTOR=1.
##YFACTOR=0.001
##DELTAX=1.92934
##FIRSTX=549.9
##LASTX=3999.5
##FIRSTY=15.41
##MAXX=3999.53
##MINX=549.863
##MAXY=0.1642
##MINY=0
##NPOINTS=1789
##XYDATA=(X++(Y..Y))
549.863 15.41 15.5 15.4 15.32 15.28 15.28 15.25 15.14 15.03 14.97
569.156 15.11 15.22 15.28 15.42 15.52 15.44 15.41 15.52 15.58 15.69
588.450 15.83 16.03 16.43 16.79 17.11 17.45 18 18.71 19.43 20.52
607.743 22 23.71 25.82 28.41 31.66 35.67 40.15 44.7 49.04 52.79
627.037 55.4 56.93 57.29 56.19 53.8 50.21 45.77 40.97 36.62 33.5
646.330 31.81 31.37 31.71 32.56 33.85 35.47 37.15 38.99 40.94 42.99
665.624 45.2 47.45 49.43 51 52.1 52.67 52.75 52.23 51.1 49.46
684.917 47.27 44.73 42.09 39.44 36.96 34.76 32.83 31.12 29.62 28.24
704.210 27.05 26.11 25.25 24.39 23.66 23.04 22.4 21.82 21.28 20.69
723.504 20.12 19.62 19.1 18.57 18.05 17.59 17.21 16.77 16.45 16.18
742.797 15.87 15.68 15.55 15.53 15.57 15.58 15.73 15.91 16.11 16.45
762.091 16.82 17.22 17.67 18.07 18.54 19.04 19.57 20.23 20.98 21.9
781.384 23.09 24.37 25.79 27.51 29.54 31.87 34.47 37.3 40.4 43.72
800.678 47.21 50.73 54.23 57.81 61.27 64.58 67.58 69.82 70.77 70.04
819.971 67.57 64.03 60.29 56.5 52.55 48.46 44.23 39.91 35.77 31.91
839.264 28.4 25.38 22.8 20.58 18.72 17.28 16.12 15.11 14.23 13.49
858.558 12.9 12.32 11.79 11.31 10.88 10.49 10.16 9.87 9.6 9.41
877.851 9.2 9.03 8.91 8.7 8.52 8.42 8.31 8.2 8.03 7.9
897.145 7.85 7.8 7.76 7.75 7.84 7.88 7.81 7.8 7.78 7.76
916.438 7.75 7.69 7.71 7.73 7.77 7.85 7.94 8.1 8.31 8.47
935.732 8.69 8.99 9.29 9.72 10.22 10.76 11.44 12.26 13.23 14.4
955.025 15.87 17.72 19.83 21.88 23.45 24.14 24.12 23.9 23.39 22.42
974.318 21.01 18.92 16.46 14.25 12.57 11.43 10.59 9.97 9.55 9.28
993.612 9.11 9.1 9.3 9.67 10.22 10.83 11.31 11.5 11.48 11.45
1012.905 11.45 11.41 11.24 10.81 10.29 9.76 9.32 9.09 8.98 8.95
1032.199 8.94 8.96 9.06 9.18 9.36 9.59 9.8 10.04 10.27 10.45
1051.492 10.65 10.79 10.94 11.09 11.2 11.29 11.36 11.48 11.57 11.6
1070.786 11.74 11.98 12.19 12.5 12.93 13.42 14.03 14.71 15.62 16.68
1090.079 17.68 18.53 19.22 19.72 20.05 20.33 20.39 20.18 19.71 19.08
1109.372 18.53 18.18 17.94 17.71 17.49 17.3 16.87 16.15 15.39 14.76
1128.666 14.27 13.74 13.11 12.31 11.37 10.48 9.57 8.81 8.27 7.82
1147.959 7.3 6.83 6.66 6.47 6.28 6.38 6.75 7.43 8.94 11.65
1167.253 15.59 20.67 25.77 29.12 30.29 30.36 30.13 29.87 29.68 27.79
1186.546 23.13 17.4 12.46 9.01 6.85 5.77 5.28 5.01 5.08 5.18
1205.840 5.14 5.07 5.01 5.19 5.48 5.6 5.67 5.85 6.16 6.62
1225.133 7.17 7.8 8.54 9.54 10.64 11.84 13.48 15.46 17.87 20.78
1244.426 24.25 28.38 33.21 38.75 45.04 52.11 59.91 68.38 77.47 87.18
1263.720 97.22 107.25 116.53 123.96 128.48 129.67 127.83 123.18 115.93 106.35
1283.013 94.37 80.3 65.3 51.07 38.9 29.4 22.72 18.27 15.4 13.58
1302.307 12.52 11.9 11.56 11.52 11.68 11.89 11.97 11.85 11.58 11.2
1321.600 10.82 10.47 9.88 9.03 8.13 7.36 6.79 6.36 6.04 5.73
1340.894 5.43 5.13 4.85 4.63 4.45 4.27 4.11 3.99 3.86 3.74
1360.187 3.66 3.63 3.63 3.61 3.68 3.72 3.72 3.78 3.86 3.93
1379.480 4.02 4.19 4.32 4.43 4.62 4.85 5.13 5.44 5.77 6.14
1398.774 6.58 7.07 7.62 8.25 8.89 9.63 10.46 11.31 12.19 13.2
1418.067 14.3 15.41 16.5 17.74 19.03 20.23 21.44 22.78 24.25 25.61
1437.361 26.72 27.23 27.08 26.56 25.78 24.91 24.04 22.81 21.07 19.22
1456.654 17.55 16.27 15.49 15.29 15.67 16.49 17.85 20.02 23.3 27.83
1475.948 34.04 42.71 54.31 69.42 87.82 108.56 129.54 147.43 159.35 164.2
1495.241 163.33 158.77 150.99 139.43 122.75 100.78 76.25 55.92 42.12 33.32
1514.534 28.19 25.06 22.96 21.5 20.34 19.38 18.51 17.63 16.77 16.02
1533.828 15.3 14.57 13.98 13.51 13.08 12.71 12.49 12.4 12.44 12.62
1553.121 12.87 13.21 13.7 14.26 14.78 15.32 15.89 16.54 17.31 18.12
1572.415 18.98 20.05 21.43 23.09 25.28 28.24 31.83 36.25 41.45 46.96
1591.708 52.13 56.51 59.78 61.91 63.36 64.68 66.17 68.2 71.17 75.93
1611.002 83.15 92.88 103.36 112.77 119.86 125.21 129 130.24 128.2 121.26
1630.295 109.7 96.17 82.85 70.22 58.78 48.63 39.88 32.9 27.37 23.11
1649.588 19.97 17.69 15.81 14.27 13.08 12.2 11.54 10.96 10.48 10.08
1668.882 9.73 9.46 9.2 8.96 8.67 8.4 8.2 8.07 7.94 7.76
1688.175 7.61 7.54 7.45 7.37 7.38 7.36 7.26 7.11 6.99 6.87
1707.469 6.68 6.52 6.35 6.14 5.98 5.79 5.51 5.18 4.95 4.88
1726.762 4.78 4.65 4.59 4.55 4.54 4.51 4.46 4.36 4.31 4.3
1746.056 4.19 4.05 3.9 3.74 3.54 3.32 3.09 2.87 2.65 2.46
1765.349 2.36 2.2545 2.1595 2.0774 2.0773 2.0623 1.9782 1.9994 2.0245 1.995
1784.642 2.0091 2.0092 1.9773 1.9672 1.9693 2.0032 2.0279 2.0609 2.113 2.1592
1803.936 2.2109 2.2533 2.3084 2.34 2.36 2.43 2.48 2.5 2.53 2.57
1823.229 2.64 2.71 2.8 2.93 3.04 3.18 3.33 3.47 3.61 3.74
1842.523 3.92 4.12 4.27 4.42 4.59 4.77 4.97 5.16 5.39 5.65
1861.816 5.85 6.02 6.2 6.39 6.47 6.46 6.42 6.36 6.29 6.14
1881.110 5.91 5.67 5.45 5.17 4.86 4.62 4.36 4.08 3.89 3.73
1900.403 3.56 3.49 3.41 3.27 3.14 3.04 2.92 2.82 2.73 2.64
1919.696 2.59 2.51 2.45 2.43 2.4 2.35 2.36 2.35 2.33 2.35
1938.990 2.3159 2.3097 2.36 2.38 2.4 2.39 2.36 2.37 2.39 2.35
1958.283 2.276 2.217 2.1393 2.1035 2.1212 2.0755 1.9856 1.9584 1.9137 1.851
1977.577 1.8492 1.857 1.8726 1.8928 1.8968 1.9108 1.8815 1.8791 1.9435 1.992
1996.870 2.0372 2.0674 2.1439 2.2395 2.2754 2.2993 2.35 2.39 2.43 2.46
2016.164 2.48 2.49 2.48 2.49 2.51 2.51 2.47 2.45 2.43 2.41
2035.457 2.37 2.2921 2.2686 2.2704 2.2718 2.2714 2.2641 2.2501 2.2658 2.269
2054.750 2.2632 2.3185 2.37 2.38 2.38 2.37 2.3119 2.2466 2.235 2.24
2074.044 2.2087 2.1931 2.1517 2.0887 2.0946 2.083 2.0732 2.0683 2.0453 2.0246
2093.337 1.9992 2.0032 2.009 2.029 2.0278 1.9641 1.9108 1.8706 1.8215 1.7962
2112.631 1.7193 1.6326 1.5662 1.4774 1.34874 1.2701 1.2521 1.162 1.088 1.045
2131.924 1.013 0.99 0.964 0.988 0.97 0.909 0.901 0.885 0.867 0.912
2151.218 0.902 0.874 0.885 0.909 0.953 0.951 0.942 0.951 0.972 1.026
2170.511 1.071 1.096 1.116 1.114 1.11 1.141 1.152 1.141 1.141 1.144
2189.804 1.099 1.044 1.013 0.963 0.958 0.97 0.949 0.946 0.935 0.952
2209.098 0.973 0.959 0.983 1.012 1.031 1.053 1.06 1.052 1.059 1.05
2228.391 1.044 1.1 1.139 1.16 1.149 1.116 1.159 1.215 1.2825 1.36167
2247.685 1.39446 1.41248 1.4842 1.5754 1.5967 1.6526 1.739 1.7382 1.7427 1.7828
2266.978 1.804 1.7989 1.7706 1.7306 1.7142 1.6966 1.6742 1.6752 1.6421 1.607
2286.272 1.6166 1.6135 1.6061 1.6365 1.6635 1.6786 1.6821 1.6596 1.6717 1.6866
2305.565 1.6907 1.7044 1.6982 1.7035 1.7094 1.6964 1.6758 1.6787 1.6294 1.5641
2324.858 1.5116 1.40308 1.32702 1.2938 1.2228 1.129 1.048 1.003 0.978 0.931
2344.152 0.906 0.894 0.89 0.883 0.9 0.876 0.909 0.976 0.979 1.019
2363.445 0.999 0.954 0.988 1 0.986 0.995 1 1.025 1.059 1.08
2382.739 1.116 1.132 1.136 1.186 1.178 1.18 1.2525 1.282 1.2859 1.2676
2402.032 1.2672 1.2713 1.2244 1.2221 1.2328 1.2354 1.2322 1.2322 1.217 1.189
2421.326 1.183 1.168 1.162 1.164 1.159 1.143 1.107 1.027 1.034 1.09
2440.619 1.08 1.06 1.037 0.998 0.969 0.97 0.935 0.88 0.849 0.806
2459.912 0.738 0.687 0.651 0.586 0.536 0.494 0.435 0.397 0.412 0.42
2479.206 0.372 0.377 0.393 0.352 0.331 0.359 0.372 0.395 0.429 0.403
2498.499 0.41 0.47 0.532 0.569 0.6 0.629 0.647 0.661 0.707 0.799
2517.793 0.848 0.893 0.971 1.038 1.123 1.2326 1.32619 1.39229 1.4785 1.5591
2537.086 1.5859 1.5913 1.6275 1.6591 1.6414 1.6525 1.6178 1.4911 1.41791 1.39004
2556.380 1.3078 1.2261 1.173 1.126 1.056 1.031 0.996 0.939 0.936 0.985
2575.673 1.017 1.024 1.085 1.107 1.117 1.096 1.081 1.128 1.122 1.077
2594.966 1.042 1.009 0.969 0.928 0.881 0.824 0.78 0.706 0.632 0.618
2614.260 0.62 0.621 0.612 0.554 0.49 0.469 0.479 0.475 0.462 0.474
2633.553 0.408 0.325 0.364 0.417 0.394 0.354 0.352 0.342 0.369 0.41
2652.847 0.417 0.36 0.3 0.3 0.37 0.417 0.379 0.414 0.443 0.436
2672.140 0.461 0.461 0.475 0.508 0.532 0.53 0.558 0.61 0.66 0.681
2691.434 0.702 0.719 0.686 0.648 0.632 0.659 0.651 0.593 0.504 0.428
2710.727 0.378 0.3 0.28 0.345 0.31 0.31 0.335 0.31 0.32 0.32
2730.020 0.31 0.26 0.3 0.3 0.3 0.326 0.351 0.42 0.433 0.416
2749.314 0.364 0.349 0.381 0.344 0.355 0.407 0.454 0.456 0.39 0.31
2768.607 0.34 0.371 0.329 0.27 0.23 0.21 0.23 0.26 0.23 0.23
2787.901 0.26 0.3 0.32 0.31 0.394 0.482 0.561 0.682 0.796 0.894
2807.194 1.073 1.219 1.32231 1.6099 1.8577 1.9656 2.2429 2.61 2.91 3.27
2826.488 3.68 4.19 4.67 5.03 5.43 5.94 6.49 6.97 7.33 7.57
2845.781 7.76 7.79 7.75 7.61 7.39 7.15 6.81 6.45 6.21 5.96
2865.074 5.75 5.65 5.63 5.65 5.49 5.42 5.46 5.46 5.4 5.39
2884.368 5.42 5.47 5.57 5.74 5.92 6.24 6.62 7.01 7.57 8.25
2903.661 8.95 9.85 10.96 12.27 13.88 15.78 18.14 21.01 24.56 28.79
2922.955 33.07 36.63 38.39 38.55 38.17 37.07 35.67 33.89 30.4 25.55
2942.248 20.96 17.38 14.78 13.02 11.82 10.9 10.14 9.55 9.16 9.06
2961.542 9.04 9.14 9.44 9.76 10.19 10.94 11.83 12.95 14.26 15.63
2980.835 17.16 18.81 20.66 22.54 24.02 24.93 25.43 25.51 24.99 24.06
3000.128 23.09 21.88 20.56 19.44 18.67 18.43 18.84 19.89 21.58 24.02
3019.422 26.98 30.3 33.66 36.51 38.53 39.53 39.77 39.44 38.33 36.48
3038.715 33.89 30.54 27.16 24.39 22.45 21.33 20.8 20.51 20.21 19.79
3058.009 19.42 19.14 18.85 18.41 18 17.66 17.43 17.27 17.04 17.03
3077.302 16.94 16.6 16.3 16.12 15.79 15.3 14.71 14.01 13.21 12.29
3096.596 11.35 10.46 9.54 8.67 7.85 7.12 6.29 5.4 4.75 4.15
3115.889 3.61 3.27 2.94 2.59 2.45 2.4 2.227 2.0088 1.8654 1.725
3135.182 1.6681 1.5954 1.4991 1.421 1.3022 1.2523 1.102 1.028 1.046 0.84
3154.476 0.569 0.41 0.331 0.339 0.376 0.331 0.31 0.372 0.339 0.23
3173.769 0.26 0.31 0.31 0.342 0.387 0.44 0.439 0.467 0.56 0.635
3193.063 0.681 0.731 0.924 1.086 1.219 1.3045 1.3791 1.6634 1.887 1.8742
3212.356 1.8692 2.0485 2.1579 2.0823 2.0621 1.9546 1.7869 1.733 1.7426 1.8058
3231.650 1.7911 1.6626 1.6097 1.4827 1.217 1.167 1.2573 1.206 1.1 0.978
3250.943 0.808 0.602 0.535 0.6 0.495 0.431 0.538 0.491 0.362 0.3
3270.236 0.24 0.13 0.13 0.18 0.02 0.02 0.1 0.07 0.06 0.09
3289.530 0.16 0.2 0.19 0.16 0.16 0.08 0.01 0.1 0.16 0.15
3308.823 0.08 0 0.01 0.06 0.1 0.14 0.22 0.24 0.13 0.08
3328.117 0.23 0.3 0.339 0.346 0.14 0.14 0.32 0.3 0.324 0.345
3347.410 0.359 0.393 0.399 0.525 0.654 0.761 0.759 0.857 0.978 1.017
3366.704 1.191 1.35334 1.4871 1.6191 1.8163 2.2249 2.61 2.87 3.28 3.86
3385.997 4.47 5.26 6.33 7.53 8.76 10.13 11.57 13.07 14.65 16.11
3405.290 17.24 18.29 19.08 19.51 19.75 19.56 19 17.94 16.51 14.93
3424.584 13.28 11.7 10.12 8.64 7.22 5.91 4.89 4.16 3.64 3.28
3443.877 3.12 3.08 3.03 3.03 3.11 3.2 3.3 3.46 3.67 3.77
3463.171 4.06 4.51 4.81 5.17 5.5 5.95 6.52 7.03 7.46 7.96
3482.464 8.51 9 9.41 9.65 9.8 10.06 10.21 10.2 10.21 10.19
3501.758 10.05 9.65 9.22 8.86 8.34 7.73 7.25 6.72 6.1 5.63
3521.051 5.18 4.56 3.95 3.5 3.09 2.7 2.38 2.2027 2.056 1.8194
3540.344 1.5856 1.4297 1.32782 1.216 1.099 0.988 0.969 1.002 1.008 0.992
3559.638 0.871 0.813 0.863 0.836 0.788 0.65 0.627 0.785 0.813 0.701
3578.931 0.694 0.708 0.681 0.681 0.706 0.616 0.529 0.555 0.533 0.524
3598.225 0.618 0.706 0.622 0.581 0.577 0.598 0.65 0.643 0.66 0.681
3617.518 0.736 0.779 0.718 0.664 0.768 0.823 0.805 0.866 0.899 0.793
3636.812 0.644 0.806 1.036 1.001 0.906 0.922 0.926 1.002 0.996 0.863
3656.105 0.817 0.795 0.824 0.961 1.069 0.996 1.053 1.068 1.011 0.997
3675.398 0.953 1.036 1.109 1.079 0.951 0.922 0.988 0.993 0.947 0.89
3694.692 0.86 0.868 0.905 0.913 0.862 0.949 1.022 0.918 0.912 1.007
3713.985 1.016 0.976 0.926 0.948 0.976 0.933 0.891 0.886 0.922 0.931
3733.279 0.863 0.931 0.98 0.913 0.894 0.878 0.941 0.927 0.866 0.88
3752.572 0.88 0.793 0.86 1.006 0.89 0.863 0.888 0.802 0.789 0.826
3771.866 0.925 0.991 0.976 0.857 0.823 0.879 0.879 0.852 0.838 0.778
3791.159 0.751 0.841 0.914 0.832 0.809 0.892 0.847 0.867 0.956 0.961
3810.452 0.895 0.86 0.969 1.059 0.969 0.892 0.993 1.04 0.987 1.033
3829.746 1.071 1.102 1.117 1.2529 1.43 1.39831 1.4303 1.5857 1.6733 1.792
3849.039 1.9665 2.1203 2.1861 2.2619 2.38 2.48 2.53 2.52 2.53 2.44
3868.333 2.4 2.3025 2.1331 2.0459 1.8891 1.7758 1.8084 1.712 1.5483 1.5128
3887.626 1.5486 1.5143 1.5047 1.5168 1.39562 1.3854 1.4482 1.408 1.3023 1.197
3906.920 1.167 1.152 1.174 1.094 1.097 1.2356 1.2454 1.2535 1.2675 1.208
3926.213 1.166 1.197 1.2575 1.31047 1.33394 1.40155 1.5102 1.5114 1.41554 1.41401
3945.506 1.4897 1.4939 1.4813 1.4776 1.4253 1.4525 1.5046 1.4916 1.37951 1.2987
3964.800 1.2904 1.177 1.19 1.215 1.1 1.082 1.136 1.003 0.91 0.977
3984.093 0.926 0.848 0.839 0.914 0.916 0.889 0.874 0.817 0.842
##END=
