##TITLE=Hydrocinnamaldehyde
##JCAMP-DX=4.24
##DATA TYPE=INFRARED SPECTRUM
##ORIGIN=NIST Mass Spectrometry Data Center
##OWNER=NIST Standard Reference Data Program
Collection (C) 2018 copyright by the U.S. Secretary of Commerce
on behalf of the United States of America. All rights reserved.
##CAS REGISTRY NO=104-53-0
##MOLFORM=C 9 H 10 O
##$NIST SOURCE=MSDC-IR
##SPECTROMETER/DATA SYSTEM=HP-GC/MS/IRD
##STATE=gas
##XUNITS=1/CM
##YUNITS=ABSORBANCE
##XFACTOR=1.0
##YFACTOR=0.000002300
##DELTAX=4.0
##FIRSTX=550.0
##LASTX=3846.0
##FIRSTY=0.000633
##MAXX=3846
##MINX=550
##MAXY=0.023
##MINY=0
##NPOINTS=825
##XYDATA=(X++(Y..Y))
550.0 275 417 314 317 254 223 195 166 154 104
590.0 62 87 67 23 12 0 13 35 40 44
630.0 60 72 95 144 189 205 244 298 377 517
670.0 705 977 1317 1704 2154 2629 3066 3218 3071 2815
710.0 2521 2283 2108 2047 2097 2216 2376 2460 2375 2128
750.0 1778 1400 1044 779 613 479 373 302 256 222
790.0 215 213 229 239 235 248 265 286 300 325
830.0 377 428 480 546 582 566 526 478 428 397
870.0 385 366 338 322 324 335 329 334 375 403
910.0 405 391 339 295 249 208 200 170 148 148
950.0 154 165 164 174 175 174 230 289 318 360
990.0 391 411 455 494 521 574 623 716 850 929
1030.0 961 988 982 937 924 937 912 866 825 792
1070.0 774 724 660 609 552 495 435 375 339 309
1110.0 264 229 211 206 193 184 174 182 198 198
1150.0 207 223 234 254 290 324 357 366 366 369
1190.0 354 351 344 313 277 256 253 260 262 257
1230.0 249 244 251 255 258 260 261 267 282 301
1270.0 309 293 273 256 248 265 277 289 310 333
1310.0 353 374 411 466 525 576 628 673 699 695
1350.0 669 626 576 536 497 488 523 600 694 767
1390.0 804 809 775 758 788 836 899 956 970 951
1430.0 937 931 964 1041 1125 1165 1121 1026 892 727
1470.0 589 497 482 581 828 1174 1404 1419 1290 965
1510.0 542 297 211 181 160 148 139 140 138 134
1550.0 139 136 129 138 160 186 210 254 322 413
1590.0 527 668 802 866 821 694 533 371 268 230
1630.0 215 204 210 225 242 261 279 302 335 385
1670.0 435 494 576 682 816 977 1161 1355 1568 1809
1710.0 2082 2451 2972 3695 4776 6276 8017 9422 10000 9742
1750.0 8563 6778 5150 4000 3208 2633 2201 1874 1629 1434
1790.0 1273 1122 970 832 695 584 499 438 395 349
1830.0 314 292 269 261 263 258 251 252 257 262
1870.0 260 253 247 235 213 188 156 123 110 106
1910.0 105 114 139 159 175 200 213 226 242 247
1950.0 247 231 191 143 102 68 34 26 31 34
1990.0 36 35 30 16 15 25 29 27 21 21
2030.0 22 19 20 15 10 12 16 15 13 20
2070.0 17 9 9 7 15 20 15 8 3 9
2110.0 14 16 16 16 16 11 4 5 7 13
2150.0 16 7 8 10 1 0 2 5 7 10
2190.0 20 21 19 18 21 20 13 18 24 15
2230.0 0 2 1 1 0 3 5 7 14 7
2270.0 3 8 10 13 12 6 6 23 37 39
2310.0 32 34 40 42 39 29 21 17 24 28
2350.0 23 20 20 15 10 3 7 13 9 1
2390.0 4 9 8 7 13 9 8 13 15 12
2430.0 2 8 19 22 12 11 20 29 27 18
2470.0 12 11 17 19 14 9 0 4 8 2
2510.0 5 16 11 3 15 18 19 26 27 25
2550.0 29 34 44 54 55 46 59 75 90 109
2590.0 127 144 152 164 170 184 205 219 233 241
2630.0 270 301 312 336 372 411 452 499 556 620
2670.0 710 800 916 1068 1236 1434 1717 2100 2589 3086
2710.0 3400 3458 3249 2829 2351 1970 1711 1524 1375 1266
2750.0 1166 1091 1066 1043 1045 1076 1112 1195 1320 1470
2790.0 1650 1865 2100 2348 2558 2648 2604 2409 2117 1823
2830.0 1550 1344 1214 1122 1050 995 991 1007 1010 1043
2870.0 1072 1086 1107 1151 1219 1301 1420 1560 1687 1783
2910.0 1815 1842 1874 1908 1969 2028 2092 2131 2094 2024
2950.0 1916 1762 1602 1431 1257 1091 918 761 655 573
2990.0 524 512 560 652 764 924 1139 1424 1778 2172
3030.0 2518 2682 2658 2436 2062 1737 1615 1706 1970 2313
3070.0 2516 2543 2418 2098 1721 1463 1318 1171 998 846
3110.0 695 559 444 346 261 200 155 130 119 107
3150.0 91 81 82 73 61 72 64 57 56 31
3190.0 8 16 37 30 27 40 41 33 28 30
3230.0 27 20 1 3 21 26 19 20 35 34
3270.0 24 29 25 22 22 23 26 28 34 36
3310.0 40 37 26 20 23 24 30 33 43 48
3350.0 42 36 14 10 36 48 54 55 48 57
3390.0 64 56 60 55 46 49 59 68 72 97
3430.0 124 129 135 161 192 207 216 238 262 279
3470.0 275 245 198 192 205 179 146 133 136 121
3510.0 110 103 88 80 67 71 73 70 81 83
3550.0 79 64 44 53 65 57 49 57 79 76
3590.0 72 89 98 86 72 71 54 54 77 90
3630.0 91 87 82 68 73 86 59 52 67 70
3670.0 59 38 20 24 38 41 44 45 61 88
3710.0 75 42 47 60 62 55 45 50 43 54
3750.0 66 72 72 57 61 61 66 75 67 68
3790.0 77 81 77 74 84 64 50 53 48 56
3830.0 65 69 92 89 72
##END=
