##TITLE=p-Bromoanisole
##JCAMP-DX=4.24
##DATA TYPE=INFRARED SPECTRUM
##ORIGIN=NIST Mass Spectrometry Data Center
##OWNER=NIST Standard Reference Data Program
Collection (C) 2018 copyright by the U.S. Secretary of Commerce
on behalf of the United States of America. All rights reserved.
##CAS REGISTRY NO=104-92-7
##MOLFORM=C 7 H 7 Br O
##$NIST SOURCE=MSDC-IR
##SPECTROMETER/DATA SYSTEM=HP-GC/MS/IRD
##STATE=gas
##XUNITS=1/CM
##YUNITS=ABSORBANCE
##XFACTOR=1.0
##YFACTOR=0.000003900
##DELTAX=4.0
##FIRSTX=550.0
##LASTX=3846.0
##FIRSTY=0.000636
##MAXX=3846
##MINX=550
##MAXY=0.039
##MINY=0
##NPOINTS=825
##XYDATA=(X++(Y..Y))
550.0 163 127 129 106 116 170 209 251 344 561
590.0 959 1404 1666 1689 1372 919 598 401 310 267
630.0 227 187 132 76 43 22 15 17 17 4
670.0 2 13 14 13 17 27 39 49 49 51
710.0 46 34 25 29 25 14 11 20 29 25
750.0 26 30 37 44 62 86 112 146 201 265
790.0 346 478 630 804 1045 1322 1575 1850 2104 2013
830.0 1754 1504 1172 830 546 357 235 149 99 73
870.0 53 45 47 48 42 38 35 27 26 34
910.0 30 29 36 31 26 30 36 47 49 50
950.0 57 75 97 113 135 161 189 223 261 326
990.0 447 690 1088 1407 1528 1472 1253 1174 1349 1657
1030.0 1981 2228 2315 2175 1862 1480 1134 951 1020 1332
1070.0 1676 1829 1672 1183 746 562 489 452 433 401
1110.0 366 326 280 238 200 188 182 188 211 248
1150.0 304 425 710 1274 1862 2141 2178 1875 1451 1208
1190.0 992 813 751 767 823 940 1144 1457 1934 2644
1230.0 3723 5338 7367 9002 9384 8405 6325 4421 3578 3339
1270.0 3371 3564 3761 3745 3409 2819 2117 1509 1103 822
1310.0 616 486 413 365 329 297 266 247 228 214
1350.0 204 194 185 170 161 156 167 178 193 215
1390.0 224 231 246 258 276 314 371 426 465 501
1430.0 560 679 903 1128 1252 1329 1374 1503 1728 1949
1470.0 2256 2937 4355 6699 9124 10000 8936 6303 3338 1665
1510.0 1023 753 596 481 393 339 312 306 316 331
1550.0 350 381 444 550 715 963 1234 1446 1526 1453
1590.0 1316 1212 1122 989 813 610 430 313 251 225
1630.0 203 183 164 143 127 119 106 89 82 77
1670.0 69 61 56 56 56 51 48 48 51 53
1710.0 57 63 68 68 69 78 87 91 94 87
1750.0 71 58 55 57 56 53 47 44 41 44
1790.0 52 55 56 52 44 44 45 52 62 73
1830.0 88 105 122 136 147 157 163 169 175 179
1870.0 180 180 164 140 124 106 87 70 55 43
1910.0 34 28 23 19 19 23 19 15 17 24
1950.0 30 35 37 33 33 30 28 23 19 22
1990.0 23 26 27 31 41 52 69 91 116 139
2030.0 154 163 165 158 148 147 149 154 157 155
2070.0 149 141 129 107 82 58 43 37 29 21
2110.0 12 11 14 10 6 1 2 3 2 5
2150.0 7 6 2 1 4 7 10 11 10 7
2190.0 10 10 11 13 13 6 6 7 0 2
2230.0 9 6 2 5 14 20 25 30 38 48
2270.0 57 66 69 65 56 47 38 28 23 21
2310.0 22 26 24 18 15 14 15 12 15 18
2350.0 22 25 25 29 33 36 41 36 30 30
2390.0 32 30 21 21 25 26 23 20 18 17
2430.0 16 10 7 11 16 22 28 25 26 24
2470.0 21 31 33 34 39 42 41 42 47 51
2510.0 56 64 67 68 68 73 75 68 61 55
2550.0 45 34 31 34 32 23 16 10 9 10
2590.0 13 14 9 12 12 7 7 6 4 4
2630.0 6 9 11 13 12 10 15 13 7 6
2670.0 2 4 9 7 7 7 8 5 1 2
2710.0 7 7 9 13 11 11 15 16 17 17
2750.0 18 23 17 17 32 39 42 47 55 67
2790.0 79 88 101 113 133 167 199 230 272 327
2830.0 399 505 662 817 891 868 751 593 478 410
2870.0 362 333 319 320 334 363 405 457 531 616
2910.0 694 740 763 774 791 839 942 1098 1266 1379
2950.0 1413 1348 1225 1105 966 836 729 637 566 520
2990.0 515 565 675 858 1078 1183 1110 898 635 459
3030.0 370 319 307 306 293 269 251 247 244 252
3070.0 283 333 367 381 382 370 359 358 335 285
3110.0 223 157 117 97 82 71 61 48 38 37
3150.0 38 36 35 37 37 31 26 23 17 15
3190.0 14 12 8 6 10 6 10 20 20 18
3230.0 12 1 2 10 7 7 13 16 17 16
3270.0 8 6 7 10 14 7 7 9 12 12
3310.0 7 11 24 14 4 8 11 4 7 10
3350.0 2 1 1 3 5 2 4 0 0 8
3390.0 8 9 11 5 0 9 17 14 10 12
3430.0 11 10 11 10 9 11 5 2 8 6
3470.0 12 19 14 14 20 13 9 16 14 6
3510.0 17 29 18 10 14 13 15 16 8 13
3550.0 23 21 15 12 11 22 32 33 28 17
3590.0 14 22 22 19 20 22 23 22 20 20
3630.0 23 26 21 21 19 17 20 30 32 25
3670.0 35 38 30 34 39 29 25 29 27 31
3710.0 31 27 31 36 31 31 26 21 27 27
3750.0 37 35 28 29 32 36 34 29 20 25
3790.0 33 28 31 41 40 32 27 30 30 22
3830.0 20 31 36 39 42
##END=
