##TITLE=Dibenzylidene ethylenediamine
##JCAMP-DX=4.24
##DATA TYPE=INFRARED SPECTRUM
##ORIGIN=EPA-IR VAPOR PHASE LIBRARY
##OWNER=SRD/NIST
Collection (C) 2018 copyright by the U.S. Secretary of Commerce
on behalf of the United States of America. All rights reserved.
##CAS REGISTRY NO=104-71-2
##MOLFORM=C 16 H 16 N 2
##$NIST SOURCE=MSDC-IR
##STATE=gas
##XUNITS=1/CM
##YUNITS=ABSORBANCE
##XFACTOR=1.
##YFACTOR=0.001
##DELTAX=3.85796
##FIRSTX=501.5
##LASTX=4000.7
##FIRSTY=6.84
##MAXX=4000.7
##MINX=501.534
##MAXY=0.14247
##MINY=0.0004771
##NPOINTS=908
##XYDATA=(X++(Y..Y))
501.534 6.84 5.97 5.05 4.13 3.47 2.91 2.41 2.08 1.86 1.67
540.114 1.65 1.72 1.71 1.84 2.14 2.46 2.64 2.47 2.05 1.66
578.693 1.4 1.35 1.32 1.28 1.28 1.31 1.41 1.62 1.87 2.15
617.273 2.6 3.28 4.42 6.2 7.93 8.87 8.48 7.12 6.06 5.86
655.852 6.55 8.01 10.09 12.78 15.67 18.76 23.17 31.23 41.94 48.45
694.432 45.5 37.17 29.86 24.41 20.3 17.57 16.05 15.78 16.81 18.94
733.011 21.94 26.14 32.05 39.58 45.79 45.64 38.4 28.74 21.18 16.13
771.591 12.26 9.11 6.57 4.73 3.62 2.94 2.57 2.35 2.16 2.06
810.170 2.07 2.19 2.39 2.56 2.75 3.04 3.4 3.9 4.45 4.99
848.750 5.68 6.53 7.31 7.53 7.16 6.94 7.21 7.65 7.79 7.55
887.330 7.23 7.14 7.26 7.33 7.21 7.22 7.54 7.99 8.58 9.26
925.909 9.41 8.5 7.02 5.84 5.29 5.27 5.67 6.32 7.15 8.1
964.489 8.81 8.99 8.76 8.12 7.39 6.88 6.78 7.34 8.6 10.05
1003.068 10.94 11.3 11.54 12.04 13.34 15.62 17.06 16.4 15.73 16.27
1041.648 16.44 15.17 12.97 10.77 9.25 8.42 7.91 7.58 7.17 6.46
1080.227 5.71 5.18 4.95 5.09 5.35 5.49 5.35 4.65 3.64 2.87
1118.807 2.39 2.12 1.95 1.79 1.79 1.87 2.04 2.31 2.94 3.98
1157.387 4.84 5.91 8.74 12.36 12.63 9.01 5.66 4.28 3.92 4.07
1195.966 4.53 5.34 6.62 8.45 10.18 10.93 10.16 8.45 6.65 5.29
1234.546 4.46 3.96 3.71 3.62 3.67 3.89 4.21 4.83 5.92 7.59
1273.125 9.79 12.58 15.71 17.87 17.92 16.82 16.88 19.48 23.35 25.04
1311.705 23.02 19.83 18.35 18.76 20.98 24.72 26.79 24.59 19.51 14.81
1350.284 12.21 11.21 11.25 12.17 13.6 14.72 14.57 12.85 10.43 8.24
1388.864 6.63 5.58 4.9 4.49 4.25 4.17 4.37 4.88 5.83 7.25
1427.443 9.14 11.76 15.39 19.9 24.12 26.67 26.07 22.41 17.63 13.81
1466.023 10.79 8.61 7.38 6.86 6.9 7.53 8.75 9.85 9.54 7.57
1504.603 5.29 3.82 3.15 2.83 2.73 2.72 2.76 2.77 2.72 2.61
1543.182 2.59 2.66 2.79 2.99 3.37 4.08 5.19 7.13 10.08 13.37
1581.762 14.59 12.46 9.11 7.13 6.42 6.15 6.26 6.86 8.1 9.97
1620.341 12.09 14.59 18.74 26.17 39.49 62.41 96.7 132.69 142.47 115.32
1658.921 76.99 48.13 31.73 22.21 16.35 12.56 10.01 8.12 6.71 5.62
1697.500 4.77 4.24 3.97 3.82 3.7 3.54 3.35 3.17 3.01 2.88
1736.080 2.83 2.82 2.82 2.78 2.69 2.53 2.35 2.24 2.23 2.3
1774.659 2.38 2.34 2.29 2.42 2.79 3.45 4.3 5.08 5.29 4.78
1813.239 3.95 3.32 2.87 2.44 2.09 1.83 1.68 1.62 1.61 1.67
1851.819 1.76 1.91 2.12 2.37 2.67 2.98 3.25 3.43 3.6 3.81
1890.398 3.84 3.57 3.08 2.67 2.47 2.47 2.56 2.67 2.8 2.93
1928.978 3.13 3.36 3.6 3.93 4.32 4.51 4.36 4.05 3.78 3.48
1967.557 3 2.41 1.89 1.6 1.43 1.3 1.22 1.19 1.18 1.15
2006.137 1.15 1.13 1.13 1.14 1.13 1.13 1.12 1.1 1.09 1.09
2044.716 1.09 1.11 1.14 1.16 1.15 1.14 1.12 1.1 1.04 0.9628
2083.296 0.9157 0.8776 0.8285 0.7988 0.7949 0.7982 0.7758 0.7545 0.7494 0.7419
2121.875 0.7495 0.7582 0.7507 0.7427 0.739 0.7421 0.7175 0.6925 0.6762 0.6533
2160.455 0.6586 0.6731 0.6842 0.6769 0.6591 0.6401 0.6376 0.6316 0.6082 0.608
2199.035 0.6154 0.6024 0.6243 0.6635 0.6607 0.666 0.6729 0.6906 0.7259 0.7433
2237.614 0.7531 0.7583 0.7666 0.7706 0.7648 0.7727 0.7868 0.7882 0.7696 0.7731
2276.194 0.772 0.751 0.7399 0.7538 0.7619 0.7562 0.8072 0.9217 1.12 1.4
2314.773 1.58 1.48 1.28 1.21 1.16 1.09 1.03 0.988 0.9352 0.8759
2353.353 0.8335 0.7721 0.7209 0.7004 0.7198 0.7623 0.7859 0.8003 0.7885 0.7796
2391.932 0.802 0.8009 0.7851 0.799 0.8372 0.8673 0.8653 0.8576 0.8814 0.8942
2430.512 0.8958 0.9072 0.893 0.8481 0.8327 0.839 0.8355 0.8436 0.8358 0.8369
2469.092 0.859 0.8321 0.828 0.8343 0.8095 0.8002 0.7967 0.7836 0.7783 0.8002
2507.671 0.8162 0.8165 0.8063 0.8537 0.8803 0.8423 0.8209 0.8275 0.8293 0.8215
2546.251 0.8323 0.8575 0.8846 0.8994 0.9159 0.9322 0.9421 0.9806 1.05 1.13
2584.830 1.17 1.24 1.33 1.4 1.46 1.49 1.49 1.52 1.6 1.67
2623.410 1.72 1.79 1.8 1.81 1.89 1.98 2.06 2.16 2.24 2.29
2661.989 2.26 2.15 2.05 1.93 1.85 1.83 1.8 1.81 1.85 1.88
2700.569 1.97 2.09 2.23 2.39 2.54 2.76 3.06 3.37 3.71 4.01
2739.148 4.18 4.24 4.2 4.12 4.1 4.11 4.09 4.09 4.17 4.31
2777.728 4.48 4.68 4.92 5.28 5.8 6.53 7.59 9.03 10.94 13.4
2816.308 16.7 21.05 26.73 33.99 42.88 53.17 63.8 72.55 76.58 74
2854.887 65.54 54.76 45.23 38.38 33.85 30.72 28.34 26.41 25 24.09
2893.467 23.67 23.63 23.9 24.38 24.68 24.67 24.54 24.61 25.54 27.85
2932.046 31.26 34.23 34.83 32.54 28.38 23.57 18.85 14.83 11.73 9.43
2970.626 7.8 6.74 6.04 5.55 5.27 5.24 5.46 5.95 6.71 7.75
3009.205 9.09 10.89 13.48 17.23 22 26.65 28.93 27.33 23.37 19.76
3047.785 18.07 18.46 20.64 25.22 33.46 44.2 50.15 45.06 34.27 27.27
3086.364 24.51 22.05 18.97 15.95 13.51 11.41 9.26 7.02 5.08 3.73
3124.944 2.99 2.56 2.28 2.13 2.03 2.01 2.06 2.14 2.23 2.21
3163.524 2.05 1.78 1.49 1.25 1.09 0.9764 0.9591 1.01 1.04 1.05
3202.103 1.03 0.9771 0.9359 0.9475 0.9775 1.02 1.02 0.9744 0.971 1.02
3240.683 1.08 1.08 1.12 1.22 1.3 1.42 1.59 1.85 2.15 2.47
3279.262 2.83 3.13 3.22 3.08 2.69 2.22 1.85 1.55 1.34 1.18
3317.842 1.05 0.9988 0.9338 0.8025 0.7563 0.7601 0.7359 0.7822 0.7419 0.6937
3356.421 0.696 0.651 0.6419 0.6284 0.6166 0.6404 0.6684 0.6493 0.6188 0.6204
3395.001 0.618 0.5837 0.6048 0.6336 0.6259 0.6002 0.5748 0.6154 0.5771 0.5105
3433.580 0.5063 0.514 0.5651 0.5723 0.6032 0.6483 0.6089 0.5963 0.6348 0.6407
3472.160 0.5958 0.5653 0.5486 0.5725 0.6059 0.6139 0.6062 0.59 0.5644 0.5748
3510.740 0.5845 0.591 0.5828 0.5324 0.5263 0.5358 0.5741 0.5765 0.5572 0.5541
3549.319 0.5881 0.5872 0.5345 0.5037 0.5092 0.5309 0.5645 0.5387 0.4967 0.5192
3587.899 0.4771 0.5151 0.59 0.5778 0.586 0.5932 0.5423 0.5055 0.5528 0.6299
3626.478 0.652 0.6493 0.699 0.7453 0.8034 0.8736 0.8764 0.8832 0.8468 0.8103
3665.058 0.8468 0.8281 0.7585 0.7612 0.8305 0.847 0.9095 0.9867 1.03 1.1
3703.637 1.09 1.03 0.9549 0.8919 0.8923 0.8788 0.8396 0.8261 0.8181 0.8459
3742.217 0.8109 0.8107 0.8162 0.7465 0.7524 0.8093 0.7844 0.7673 0.8185 0.7933
3780.797 0.7559 0.7594 0.7618 0.7389 0.703 0.6976 0.7346 0.7734 0.8127 0.7789
3819.376 0.7684 0.8163 0.7524 0.6813 0.6527 0.6946 0.7485 0.717 0.7042 0.6915
3857.956 0.7706 0.8136 0.8305 0.8708 0.8532 0.8517 0.8872 0.9412 1.01 1.01
3896.535 0.9582 0.9605 0.9726 1 0.9975 0.9437 0.9213 0.9695 0.9927 0.9727
3935.115 0.9525 0.9598 0.8757 0.8063 0.8453 0.8279 0.8241 0.8479 0.8322 0.8273
3973.694 0.8458 0.8394 0.8265 0.8344 0.8538 0.8907 0.9418 0.9756
##END=
