##TITLE=3-Hydroxyphenylacetylene
##JCAMP-DX=4.24
##DATA TYPE=INFRARED SPECTRUM
##ORIGIN=EPA-IR VAPOR PHASE LIBRARY
##OWNER=SRD/NIST
Collection (C) 2018 copyright by the U.S. Secretary of Commerce
on behalf of the United States of America. All rights reserved.
##CAS REGISTRY NO=10401-11-3
##MOLFORM=C 8 H 6 O
##$NIST SOURCE=MSDC-IR
##STATE=gas
##XUNITS=1/CM
##YUNITS=ABSORBANCE
##XFACTOR=1.
##YFACTOR=0.001
##DELTAX=1.92898
##FIRSTX=549.8
##LASTX=4000.7
##FIRSTY=7.55
##MAXX=4000.7
##MINX=549.759
##MAXY=0.09534
##MINY=0
##NPOINTS=1790
##XYDATA=(X++(Y..Y))
549.759 7.55 6.23 6.22 6.33 5.75 4.62 3.78 4.19 5.03 4.65
569.049 4.51 6.07 6 5.35 5.82 6.32 6.84 6.96 7.13 8.57
588.339 9.77 10.09 11.32 13.22 14.8 17.06 20.39 24.62 27.54 28.11
607.628 29.57 33.35 39.5 48.89 62.32 68.14 60.9 55.28 54.13 51.21
626.918 47.45 45.61 43.84 41.89 42.28 45.81 51.72 58.5 68.1 79.48
646.208 73.76 52.37 40.78 40.1 41.09 41.07 39.26 35.8 30.71 26.99
665.498 24.62 22.69 21.25 20.75 20.45 20.55 23.28 29.34 35.14 31.64
684.787 23.42 18.99 17.38 16.56 15.65 14.44 13 11.77 10.15 8.59
704.077 7.34 6.74 6.58 5.81 5.42 6.05 6.67 7.48 7.99 7.58
723.367 7.01 6.29 5.79 5.83 6.45 6.62 5.92 5.78 5.25 4.51
742.657 4.99 5.15 5.67 6.42 7.28 8.62 9.83 11.52 13.4 15.85
761.947 18.85 21.61 24.43 27.83 31.92 37.13 42.08 43.49 41.31 40.38
781.236 42.47 43.72 40.26 33.41 28.74 26.14 23.04 20.42 18.17 15.93
800.526 13.14 10.88 9.39 7.64 6.34 5.68 5.04 4.6 4.5 4.03
819.816 4.37 5.09 4.67 4.27 4.49 5.16 6.25 6.96 7.32 7.66
839.106 8.39 9.2 9.95 11.07 12.16 13.63 15.8 17.2 17.38 16.68
858.395 15.69 15.52 16.04 16.28 16.47 16.9 16.93 16.92 16.93 17
877.685 17.19 16.41 14.69 12.98 11.98 11.6 11.4 11.27 11.12 10.89
896.975 10.55 10.32 10.51 11.04 11.72 12.57 13.98 15.63 16.83 18.66
916.265 20.9 24.2 29.31 34.83 39.41 42.32 42.58 41.05 40.77 40.4
935.555 38.49 37.52 36.57 32.73 26.17 19.12 13.59 9.78 7.6 6.16
954.844 5.26 5.04 4.97 4.59 3.67 3.61 4.47 4.11 3.44 3.3
974.134 3.06 3.36 3.92 3.86 3.41 3.39 3.65 4.88 5.5 5.37
993.424 6.05 6.33 6.22 6.29 6.13 6.11 6.93 6.77 5.67 4.21
1012.714 3.06 2.68 2.79 3.13 3.07 2.55 2.3 3.18 3.18 2.79
1032.003 3.16 3.24 2.83 2.92 3.65 4.43 4.43 3.65 3.97 4.34
1051.293 4.96 5.71 6.31 6.08 5.55 5.96 6.58 7.7 8.46 9.41
1070.583 9.33 9.04 10.39 11.3 11.25 11.76 12.43 11.87 9.84 9.48
1089.873 9.35 8.45 7.21 8.23 10.45 10.21 8.82 7.59 7.72 8.15
1109.163 9.13 11.12 12.2 12.62 13.11 15.55 18.44 21.45 26.95 33.05
1128.452 38.95 44.67 50.87 56.3 60.23 65.31 70.61 73.88 75.47 75.39
1147.742 75.7 74.24 70.29 64.81 59.37 55.79 51.28 48 47.27 46.33
1167.032 46.41 48.23 51.89 56.74 62.34 68.09 72.38 76.58 80.72 84.71
1186.322 87.83 90.19 90.96 88.07 83.53 80.15 76.94 72.67 68.3 64.04
1205.611 58.93 52.24 46.41 45.21 46.18 46.75 48.66 49.51 49.92 50.24
1224.901 49.27 49.3 49.46 46.39 43.65 41.88 38.68 36.57 34.36 31.25
1244.191 29.3 28.3 27.97 28.67 30.31 32.75 36.09 39.92 44.66 50
1263.481 55.89 62.04 67.13 70 69.83 69.68 70.77 72.84 75.81 78.15
1282.771 78.02 73.66 65.82 57.9 52.67 50.31 48.94 47.22 44.56 40.43
1302.060 35.53 30.61 26.42 23.31 20.45 17.68 15.1 12.8 10.99 9.41
1321.350 8.23 7.43 6.88 6.31 5.65 5.27 4.94 4.62 4.38 4.3
1340.640 4.17 3.95 3.8 3.87 3.75 3.33 3.23 3.22 3.11 3.09
1359.930 3.03 2.83 2.79 2.69 2.48 2.61 2.69 2.69 2.76 2.79
1379.219 2.83 2.87 3.02 3.01 3.11 3.3 3.51 3.77 3.83 4.29
1398.509 4.83 5.09 5.68 6.37 7.12 8.23 9.26 10.24 11.18 12.01
1417.799 13.14 14.84 16.75 18.88 21.59 24.48 27.02 29.16 30.9 31.94
1437.089 32.31 32.25 32.18 32.27 32.28 31.86 30.74 28.48 25.51 23.25
1456.378 21.79 21.4 21.89 22.67 24.23 26.1 27.86 29.9 31.53 32.63
1475.668 33.55 34.41 35.17 35.55 35.89 35.51 33.62 31.22 28.72 26.58
1494.958 24.59 21.91 19 16.53 14.66 12.88 10.45 8.32 6.86 5.85
1514.248 5.72 6.05 6.58 6.82 6.95 7.36 7.54 7.77 8.24 8.81
1533.538 9.43 9.72 9.94 10.14 10 10.12 10.79 11.42 12.18 13.48
1552.827 14.99 16.76 18.95 21.78 24.92 27.98 31.84 36.42 41.98 48.27
1572.117 54.66 60.65 66.03 71.3 75.95 80.61 85.14 89.57 93.47 95.34
1591.407 94.76 91.91 88.2 84.54 80.21 74.73 68.06 60.55 53.75 48.84
1610.697 44.61 40.21 36.22 32.53 28.62 24.97 21.84 18.46 15.4 13.28
1629.986 11.51 9.81 8.7 7.79 6.69 5.96 5.73 5.63 5.51 5.42
1649.276 5.34 5.48 5.57 5.5 5.57 5.77 6.16 6.42 6.35 6.46
1668.566 6.43 6.15 6.17 6.26 6.28 6.37 6.37 6.19 5.92 5.53
1687.856 5.08 4.73 4.5 4.47 4.58 4.34 3.92 3.87 3.75 3.62
1707.146 3.68 3.54 3.63 3.44 3.35 3.58 3.34 3.23 3.3 3.26
1726.435 3.38 3.55 3.53 3.67 3.7 3.61 3.63 3.81 4.06 3.98
1745.725 3.92 4.06 4.06 3.89 3.72 3.55 3.42 3.5 3.5 3.44
1765.015 3.54 3.52 3.36 3.24 3.23 3.21 3.12 3 2.76 2.76
1784.305 2.87 2.9 2.75 2.6 2.72 2.64 2.38 2.27 2.36 2.28
1803.594 2.25 2.61 2.71 2.44 2.58 2.8 2.71 2.8 2.8 2.85
1822.884 3.09 3.12 3.08 3.12 3.21 3.35 3.42 3.53 3.76 3.76
1842.174 3.69 3.75 3.63 3.44 3.4 3.26 3.14 3.13 3.13 3.08
1861.464 2.9 2.59 2.41 2.45 2.26 2.0859 2.0032 2.084 2.0627 1.9506
1880.754 2.0212 1.8821 1.8721 1.9404 1.8547 1.8492 1.9826 1.9204 1.9081 2.074
1900.043 2.29 2.51 2.53 2.54 2.5 2.72 3.2 3.38 3.42 3.4
1919.333 3.35 3.46 3.66 3.69 3.57 3.45 3.22 3.04 3.05 2.89
1938.623 2.56 2.27 2.0743 1.8893 1.6829 1.6741 1.6695 1.6869 1.5988 1.4211
1957.913 1.5526 1.7885 1.7297 1.4452 1.5832 1.6664 1.4732 1.6434 1.6914 1.6867
1977.202 1.6889 1.5498 1.5678 1.507 1.5087 1.5796 1.5955 1.5026 1.6576 1.8591
1996.492 1.6634 1.5732 1.5744 1.5796 1.5681 1.5165 1.4416 1.3934 1.4815 1.5488
2015.782 1.5771 1.4298 1.1371 1.22361 1.3778 1.1325 1.086 1.22475 1.1811 1.24869
2035.072 1.4665 1.6485 1.5391 1.22969 1.1426 1.25334 1.3819 1.481 1.5848 1.4642
2054.362 1.4543 1.6069 1.5454 1.6619 1.8787 1.9964 2.1319 2.1833 2.2073 2.1016
2073.651 2.0363 2.1735 2.38 2.51 2.53 2.53 2.78 2.98 2.97 3.12
2092.941 3.32 3.7 4.19 4.34 4.34 4.53 4.76 4.88 4.97 5.03
2112.231 5.07 5.01 4.9 4.72 4.34 3.88 3.35 2.75 2.58 2.48
2131.521 2.0305 1.863 1.842 1.6723 1.475 1.3828 1.30004 1.24625 1.28966 1.22767
2150.810 1.163 1.22153 1.28263 1.3932 1.3774 1.3943 1.3513 1.107 1.087 1.084
2170.100 1.062 1.1466 1.1854 1.30806 1.4067 1.5907 1.6259 1.4404 1.6395 1.7467
2189.390 1.6964 1.8145 1.7264 1.827 1.8132 1.6864 1.8035 1.7855 1.8289 1.7341
2208.680 1.5332 1.6787 1.628 1.52 1.8007 1.805 1.29919 1.3604 1.5038 1.4365
2227.970 1.6225 1.4432 1.31337 1.2021 1.085 1.26536 1.1935 1.25481 1.4675 1.32797
2247.259 1.1348 1.25897 1.4325 1.25795 1.1588 1.2103 1.093 1.07 1.28536 1.4173
2266.549 1.3596 1.28007 1.068 1.021 1.26091 1.3348 1.4229 1.4314 1.5108 1.4438
2285.839 1.4694 1.6804 1.6936 1.6132 1.6206 1.5288 1.4441 1.4402 1.6104 1.7893
2305.129 1.8056 1.8254 1.9099 1.9994 1.9714 2.0783 2.1654 2.29 2.26 2.0168
2324.418 1.9796 2.0186 1.9001 2.0495 2.1567 2.27 2.38 2.24 2.0968 2.0858
2343.708 2.0074 1.8834 2.0219 1.981 1.9052 2.0465 2.0243 2.1716 2.25 2.2028
2362.998 2.28 1.8046 1.6772 1.9052 1.8963 1.9333 1.8437 1.9033 2.056 1.7912
2382.288 1.629 1.6795 1.7061 1.8454 1.9432 1.9272 1.8565 1.7119 1.5978 1.4263
2401.578 1.4456 1.6122 1.6874 1.7982 1.9239 1.9474 1.9898 1.9905 2.011 2.46
2420.867 2.42 2.0571 1.8909 1.9232 2.0478 2.071 1.6624 1.5104 1.8576 1.9957
2440.157 2.0635 2.0503 1.8972 1.9921 2.27 2.33 2.26 2.28 2.56 2.66
2459.447 2.58 2.48 2.32 2.24 2.0505 2.1439 2.1949 1.9511 1.9682 2.0376
2478.737 1.8458 1.7336 1.7249 1.5273 1.5633 1.6554 1.585 1.522 1.5918 1.5652
2498.026 1.5565 1.8907 1.801 1.7053 1.8855 1.7041 1.4601 1.3301 1.4921 1.5386
2517.316 1.3959 1.4901 1.4217 1.2176 1.26618 1.3617 1.5103 1.7529 1.8592 1.7518
2536.606 1.7565 1.7698 1.5754 1.5453 1.623 1.7237 1.8024 1.6041 1.6608 1.719
2555.896 1.529 1.7006 1.8257 1.8349 1.8358 1.8799 1.72 1.5305 1.6626 1.5349
2575.186 1.424 1.4749 1.5114 1.6682 1.5342 1.5095 1.4505 1.3936 1.32714 1.4233
2594.475 1.8614 1.5212 1.1828 1.127 1.111 1.3569 1.4723 1.6405 1.26047 1.059
2613.765 1.29921 1.154 1.2042 1.1584 1.28433 1.24957 1.1651 1.4931 1.6173 1.4731
2633.055 1.3535 1.018 0.972 1.3378 1.3485 1.23909 0.898 0.561 0.672 1.005
2652.345 0.969 0.913 0.893 0.97 0.964 1.107 1.3747 1.22391 1.26309 1.5499
2671.634 1.7275 1.5285 1.30458 1.3523 1.29199 1.7394 1.9935 1.6003 1.6308 1.507
2690.924 1.27789 1.24191 1.32416 1.5026 1.7361 1.76 1.5361 1.1947 1.1491 1.5218
2710.214 1.4033 1.24886 1.5148 1.5717 1.3448 1.28665 1.7201 1.7602 1.3693 1.5643
2729.504 1.6868 1.6657 1.8515 1.507 1.089 1.3782 1.6104 1.6336 1.6744 1.5286
2748.794 1.31486 1.22711 1.4269 1.5308 1.3854 1.3498 1.24039 1.174 1.064 1.115
2768.083 1.3652 1.3342 1.343 1.3803 1.28882 1.25304 1.4032 1.5042 1.2183 0.922
2787.373 0.961 0.747 0.771 0.893 1.056 1.042 0.759 0.732 0.515 0.507
2806.663 0.728 0.723 0.641 0.774 1.05 0.95 0.651 0.827 0.587 0
2825.953 0.18 0.495 0.719 0.733 0.501 0.5 0.877 0.91 0.778 0.648
2845.242 0.42 0.576 0.976 0.919 0.414 0.635 1.048 1.037 1.1529 1.1837
2864.532 1.04 0.703 0.539 0.79 0.908 0.919 1.096 1.126 1.1956 1.5853
2883.822 1.7672 1.3431 0.827 0.896 0.867 0.891 1.018 1.041 0.967 0.632
2903.112 0.381 0.614 0.717 0.428 0.564 0.749 0.931 0.927 0.84 0.861
2922.401 0.908 0.914 0.814 1.126 1.107 0.569 0.771 1.066 0.88 1.105
2941.691 1.134 1.06 1.006 0.859 1.30389 1.29432 0.837 0.663 0.337 0.44
2960.981 0.863 0.926 1.2008 1.4477 1.28547 1.1871 1.5726 1.5484 1.1981 1.3301
2980.271 1.26918 1.129 1.126 1.06 1.138 1.32291 1.3833 1.5203 1.5735 2.0217
2999.561 2.3 1.9954 2.34 2.76 3.22 3.65 3.89 4.48 5.14 5.66
3018.850 5.92 6 6.51 7.11 7.5 7.98 7.92 7.81 8.53 9.64
3038.140 10.34 10.75 11.46 11.99 12.23 12.81 12.76 12.42 12.62 12.33
3057.430 11.78 11.6 11.55 11.17 10.9 11.22 11.55 11.31 11.48 11.85
3076.720 12.07 12.36 12.22 11.87 11.35 11.13 11.04 10.65 9.97 9.21
3096.009 8.8 8.49 7.75 6.93 6.57 5.69 4.37 3.78 3.86 3.55
3115.299 2.6 2.45 2.2018 1.7681 1.8349 1.8501 1.8061 1.8574 2.1049 2.0779
3134.589 1.6103 1.1759 0.853 0.846 0.98 1.106 1.1876 1.1636 1.1687 1.5487
3153.879 1.5488 0.876 0.566 0.732 1.4878 1.8702 1.1976 1.068 1.063 0.991
3173.169 1.29254 1.5637 1.9891 1.2519 1.1494 1.8048 1.6035 1.599 1.6128 1.874
3192.458 1.8379 1.2993 1.3764 1.7407 1.4102 1.42 1.6042 0.898 0.917 1.145
3211.748 0.625 0.574 1.085 1.1606 1.068 1.1332 1.1836 1.2054 1.039 1.001
3231.038 1.349 1.6584 1.6524 1.6115 1.5492 1.5168 1.7243 1.7888 1.6767 2.0991
3250.328 2.2192 1.8998 2.1317 2.53 2.76 3.1 3.31 3.02 3.26 3.78
3269.617 4.2 5.05 5.89 6.29 6.94 7.89 8.66 9.34 9.84 10.8
3288.907 12.01 13.48 15.19 16.73 18.13 20 22.02 23.49 25.26 27.85
3308.197 30.09 32.77 37.35 41.9 46.63 51.65 56.01 59.05 61.18 61.86
3327.487 61.14 59.77 57.09 53.49 49.39 44.13 36.75 28.36 20.69 14.8
3346.777 10.63 8.04 6.69 5.76 4.62 3.61 3.27 3.11 3.16 3.33
3366.066 3.03 2.8 2.74 2.64 2.91 2.89 2.78 3.44 3.4 2.95
3385.356 2.54 2.1271 2.76 3.07 2.96 2.97 2.81 2.1375 1.4739 1.5888
3404.646 1.6437 2.0741 2.42 1.8067 1.1567 1.616 2.0978 1.8077 1.7132 1.8419
3423.936 1.7917 1.775 1.9757 2.23 2.1362 1.8121 1.5305 1.2721 1.4256 1.7553
3443.225 1.5623 1.781 1.9914 1.5268 1.8144 1.8003 1.484 1.7264 1.6766 1.4845
3462.515 1.7507 2.209 2.1643 1.6107 1.22393 0.81 0.93 1.5468 1.5511 1.31743
3481.805 1.1948 1.28383 1.4092 1.2156 0.941 1.107 0.892 0.65 1.25108 1.38
3501.095 1.115 1.059 0.897 0.634 1.22204 1.4932 1.28324 1.4105 1.3822 1.4765
3520.385 1.4771 1.4754 1.375 1.25775 1.24298 1.531 1.6446 1.3882 1.2167 0.905
3539.674 0.994 1.2 1.24141 1.22727 1.24304 1.8185 1.7172 1.3579 1.7382 1.6357
3558.964 1.25923 1.5568 1.7598 1.24709 1.117 1.4378 1.4351 1.28881 1.2138 1.5163
3578.254 1.6689 1.654 2.0304 1.7248 1.25711 1.3443 1.4495 1.126 1.058 1.7842
3597.544 2.0823 1.7946 1.6281 1.5907 1.6954 2.1045 2.78 3.32 3.64 3.83
3616.833 4.2 4.87 5.41 6.46 8.21 10.08 12.2 15.16 19.11 23.78
3636.123 29.46 36.64 44.27 51.89 58.89 63.85 65.41 63.69 61.45 61.96
3655.413 62.37 59.37 55.41 49.46 40.23 29.94 21.17 15.11 10.82 7.77
3674.703 5.62 4.21 3.6 3.04 2.48 2.0331 1.8504 2.27 2.28 1.7771
3693.993 1.4682 1.3386 1.002 1.093 1.5065 1.2153 1.12 1.086 0.547 0.499
3713.282 1.04 1.1302 0.622 0.575 1.118 1.6151 1.5551 0.872 1.108 1.4473
3732.572 1.4023 1.6804 1.1725 0.752 1.047 0.896 0.918 1.27837 1.1918 0.982
3751.862 0.881 0.786 0.642 1.05 1.32419 1.24897 1.5236 1.2114 1.27432 1.3661
3771.152 0.676 0.728 1.1463 1.1433 0.964 1.11 1.094 0.859 0.647 0.696
3790.441 1.073 1.404 1.4449 1.3571 1.2156 1.3635 1.7052 1.30568 1.086 1.4819
3809.731 1.4432 1.3361 1.5937 1.8559 2.1275 1.9573 1.368 1.693 1.7423 1.4744
3829.021 1.7734 1.3662 1.3705 1.5368 1.22183 1.3671 1.5728 1.6751 1.334 1.22154
3848.311 1.703 1.7061 1.4249 1.2163 1.093 1.105 1.6315 2.0163 1.8159 1.8311
3867.601 2.1236 1.9888 1.6886 1.6688 1.8457 1.8145 1.8778 2.0405 1.686 1.4295
3886.890 1.3856 1.6292 1.6856 1.8802 2.1876 2.39 2.36 1.6475 1.32767 1.6899
3906.180 1.7232 1.6577 1.8298 1.8478 1.6687 1.6969 2.023 2.53 2.76 2.36
3925.470 2.24 2.1196 2.0693 1.9139 1.5982 1.8437 2.0632 1.7442 1.7579 1.7167
3944.760 1.5899 1.5416 1.2032 1.9167 2.55 1.963 1.9261 2.2015 1.7697 1.24141
3964.049 0.787 0.778 1.032 1.3991 1.7119 1.5365 1.107 1.30694 1.051 0.829
3983.339 1.5614 1.5736 1.035 1.084 1.4285 1.22795 0.869 0.969 1.1436 1.032
##END=
