##TITLE=trans-4-Nonene
##JCAMP-DX=4.24
##DATA TYPE=INFRARED SPECTRUM
##ORIGIN=NIST Mass Spectrometry Data Center
##OWNER=NIST Standard Reference Data Program
Collection (C) 2018 copyright by the U.S. Secretary of Commerce
on behalf of the United States of America. All rights reserved.
##CAS REGISTRY NO=10405-84-2
##MOLFORM=C 9 H 18
##$NIST SOURCE=MSDC-IR
##SPECTROMETER/DATA SYSTEM=HP-GC/MS/IRD
##STATE=gas
##XUNITS=1/CM
##YUNITS=ABSORBANCE
##XFACTOR=1.0
##YFACTOR=0.000003100
##DELTAX=4.0
##FIRSTX=550.0
##LASTX=3846.0
##FIRSTY=0.000081
##MAXX=3846
##MINX=550
##MAXY=0.031
##MINY=0
##NPOINTS=825
##XYDATA=(X++(Y..Y))
550.0 26 16 33 58 55 16 0 18 24 25
590.0 26 6 14 31 39 44 46 50 32 28
630.0 39 37 31 28 20 49 59 36 41 24
670.0 9 36 59 69 71 78 66 69 78 65
710.0 73 80 102 127 135 167 202 203 206 215
750.0 205 193 207 221 221 220 207 192 178 156
790.0 139 139 135 115 100 104 99 92 89 96
830.0 95 88 90 93 94 101 108 111 114 114
870.0 117 132 150 159 157 158 166 171 184 197
910.0 199 210 226 244 280 325 382 474 586 730
950.0 923 1161 1430 1642 1717 1653 1471 1211 950 732
990.0 564 449 377 328 292 266 258 250 238 234
1030.0 222 226 229 226 239 257 272 283 284 278
1070.0 274 264 263 270 276 285 291 278 258 224
1110.0 193 167 131 113 118 116 95 88 90 87
1150.0 82 73 70 80 84 80 83 79 78 87
1190.0 94 94 92 97 104 103 96 99 104 109
1230.0 123 132 148 160 163 171 187 195 207 222
1270.0 232 235 236 243 258 275 287 296 296 301
1310.0 301 298 307 320 343 382 433 475 487 467
1350.0 424 379 354 349 357 379 432 501 533 534
1390.0 498 422 364 327 296 283 293 317 360 420
1430.0 504 613 729 843 952 1035 1089 1135 1135 1075
1470.0 968 837 687 550 446 366 302 253 214 187
1510.0 169 153 138 128 112 97 97 96 88 83
1550.0 77 72 67 69 67 57 56 57 53 50
1590.0 52 50 51 53 47 47 48 49 50 46
1630.0 47 52 51 50 51 54 62 65 68 63
1670.0 60 63 63 64 64 61 67 71 70 72
1710.0 69 66 70 74 74 70 69 71 71 67
1750.0 65 63 54 50 51 47 48 46 48 48
1790.0 37 36 40 37 35 40 41 40 37 36
1830.0 36 33 37 37 36 41 40 36 35 30
1870.0 30 31 27 24 25 27 23 21 22 17
1910.0 12 7 4 9 12 8 7 6 9 11
1950.0 5 3 10 15 12 11 8 8 10 10
1990.0 11 7 4 3 10 15 10 12 15 21
2030.0 22 21 21 22 23 19 16 13 15 20
2070.0 19 14 12 16 13 9 12 11 9 11
2110.0 10 10 11 8 6 6 9 7 7 12
2150.0 13 13 14 11 9 9 11 10 11 9
2190.0 9 14 13 9 13 12 8 8 11 11
2230.0 10 5 2 9 9 10 11 9 8 10
2270.0 10 8 8 4 3 7 12 18 17 12
2310.0 16 18 24 27 23 22 25 24 25 24
2350.0 22 25 28 27 25 24 21 23 25 25
2390.0 27 27 27 27 27 29 20 17 24 27
2430.0 22 22 21 13 15 13 13 12 9 11
2470.0 15 16 15 15 13 15 18 16 17 18
2510.0 18 24 24 26 36 38 34 38 40 36
2550.0 41 47 39 40 47 51 51 51 53 57
2590.0 60 61 65 62 60 63 61 64 70 74
2630.0 78 83 84 84 91 102 108 111 117 119
2670.0 115 120 128 125 121 114 111 113 117 121
2710.0 121 124 123 128 147 162 171 183 193 201
2750.0 205 204 203 210 216 221 237 261 276 302
2790.0 327 349 379 403 443 495 544 605 698 823
2830.0 981 1196 1472 1814 2199 2604 3000 3338 3626 3890
2870.0 4122 4355 4542 4575 4510 4393 4276 4342 4639 5125
2910.0 5764 6516 7355 8245 9068 9685 10000 9904 9399 8736
2950.0 8139 7801 7875 8311 8678 8490 7729 6503 5125 4015
2990.0 3240 2698 2314 2027 1817 1663 1550 1448 1361 1281
3030.0 1186 1072 956 844 737 642 568 506 456 409
3070.0 375 356 337 315 295 276 264 253 239 229
3110.0 215 201 192 183 176 166 156 160 157 152
3150.0 152 140 128 125 118 114 121 117 108 111
3190.0 108 101 96 89 85 87 86 77 73 65
3230.0 58 57 49 42 41 39 38 33 24 24
3270.0 30 33 32 31 35 36 27 19 26 28
3310.0 26 38 43 33 26 21 19 16 17 13
3350.0 11 21 25 22 21 29 24 17 17 18
3390.0 23 25 29 38 28 21 24 24 22 19
3430.0 18 23 27 22 19 21 24 24 28 22
3470.0 8 9 12 9 8 18 28 19 17 24
3510.0 26 19 19 15 12 13 2 6 15 22
3550.0 26 19 16 10 8 17 19 22 27 25
3590.0 24 29 30 33 31 25 24 22 30 38
3630.0 37 37 39 34 34 45 37 32 41 40
3670.0 37 37 35 33 30 24 30 38 40 41
3710.0 39 36 38 40 38 43 47 39 29 23
3750.0 25 25 20 28 36 37 50 56 45 38
3790.0 35 33 36 38 38 49 54 43 46 53
3830.0 45 46 47 49 41
##END=
