##TITLE=.alpha.-Bromoisobutyrophenone
##JCAMP-DX=4.24
##DATA TYPE=INFRARED SPECTRUM
##ORIGIN=NIST Mass Spectrometry Data Center
##OWNER=NIST Standard Reference Data Program
Collection (C) 2018 copyright by the U.S. Secretary of Commerce
on behalf of the United States of America. All rights reserved.
##CAS REGISTRY NO=10409-54-8
##MOLFORM=C 10 H 11 Br O
##$NIST SOURCE=MSDC-IR
##SPECTROMETER/DATA SYSTEM=HP-GC/MS/IRD
##STATE=gas
##XUNITS=1/CM
##YUNITS=ABSORBANCE
##XFACTOR=1.0
##YFACTOR=0.000009000
##DELTAX=4.0
##FIRSTX=550.0
##LASTX=3846.0
##FIRSTY=0.002178
##MAXX=3846
##MINX=550
##MAXY=0.09
##MINY=0
##NPOINTS=825
##XYDATA=(X++(Y..Y))
550.0 242 340 209 185 141 114 83 75 82 103
590.0 134 170 224 293 372 462 572 755 1051 1408
630.0 1705 1791 1586 1190 827 630 563 571 627 737
670.0 914 1180 1549 2015 2574 3208 3843 4394 4666 4433
710.0 3789 3022 2281 1659 1210 903 694 563 485 442
750.0 421 422 434 454 487 551 649 775 895 936
790.0 825 605 392 233 131 78 43 23 13 9
830.0 5 12 29 45 62 84 125 200 327 536
870.0 834 1157 1365 1339 1106 780 520 396 366 378
910.0 416 477 542 602 641 649 662 709 805 964
950.0 1196 1530 2045 2911 4243 5728 6625 6390 5041 3284
990.0 2047 1518 1367 1358 1341 1136 828 574 404 333
1030.0 305 283 255 210 172 171 184 213 258 303
1070.0 346 395 453 533 678 929 1306 1833 2456 3037
1110.0 3400 3417 3080 2503 1907 1471 1222 1139 1187 1358
1150.0 1682 2163 2796 3443 3895 4073 3989 3710 3299 2754
1190.0 2128 1568 1199 1004 919 899 929 1018 1161 1367
1230.0 1647 2011 2481 3095 3850 4679 5438 5923 5936 5379
1270.0 4352 3136 2057 1317 903 685 558 471 408 362
1310.0 331 305 279 253 230 214 202 192 191 206
1350.0 241 314 448 678 998 1362 1645 1762 1951 2200
1390.0 2222 1914 1309 742 481 400 389 421 485 592
1430.0 753 971 1240 1494 1692 1859 2052 2321 2484 2338
1470.0 1910 1312 828 577 450 368 297 237 196 177
1510.0 166 161 162 163 165 169 176 187 197 203
1550.0 218 241 282 341 414 505 590 644 666 677
1590.0 692 717 717 659 549 422 337 302 294 301
1630.0 319 350 393 450 533 642 788 963 1201 1516
1670.0 1927 2484 3304 4516 6277 8206 9649 10000 8966 7044
1710.0 5096 3633 2622 1920 1412 1037 770 583 465 385
1750.0 334 301 275 251 232 218 199 179 168 167
1790.0 183 213 244 267 267 244 208 166 130 103
1830.0 83 69 61 61 59 57 60 64 70 77
1870.0 83 89 101 115 131 151 166 170 169 158
1910.0 136 116 101 89 83 87 96 112 135 165
1950.0 193 218 233 233 209 169 120 80 54 36
1990.0 28 21 16 11 6 5 6 7 6 2
2030.0 2 1 0 0 0 0 1 1 3 5
2070.0 5 4 3 4 4 7 9 9 8 9
2110.0 7 7 9 14 14 13 14 14 15 15
2150.0 13 10 10 7 7 7 6 6 9 11
2190.0 8 9 14 16 14 15 19 20 21 23
2230.0 21 23 24 29 35 38 41 40 36 30
2270.0 25 22 21 22 24 24 25 24 23 30
2310.0 40 56 65 64 57 47 41 41 44 46
2350.0 45 43 40 34 31 30 29 27 28 30
2390.0 30 30 30 33 36 38 43 47 48 48
2430.0 43 38 34 30 23 19 17 14 11 7
2470.0 7 7 6 6 8 9 11 12 11 12
2510.0 14 18 19 20 19 22 26 28 29 31
2550.0 33 34 35 34 33 33 30 28 30 32
2590.0 34 37 36 34 34 32 26 28 31 31
2630.0 30 31 30 28 27 25 24 26 25 32
2670.0 32 30 30 29 26 23 25 27 30 29
2710.0 28 35 39 41 50 59 64 67 69 66
2750.0 63 62 63 65 68 71 69 63 56 50
2790.0 47 47 48 58 68 71 78 87 92 103
2830.0 116 129 144 166 200 242 288 346 410 465
2870.0 511 533 520 507 493 490 509 543 593 651
2910.0 714 799 930 1114 1363 1663 1925 2003 1849 1525
2950.0 1157 899 795 808 934 1207 1620 2108 2427 2403
2990.0 2091 1649 1408 1488 1705 1865 1829 1586 1275 1035
3030.0 907 863 853 850 860 918 1074 1371 1777 2176
3070.0 2435 2437 2168 1771 1411 1177 1060 959 839 701
3110.0 563 448 345 268 218 184 164 149 144 148
3150.0 149 145 139 125 112 101 89 79 77 74
3190.0 72 70 63 60 64 67 68 71 73 69
3230.0 67 65 67 66 63 63 60 56 52 50
3270.0 49 47 41 43 41 35 35 37 36 33
3310.0 31 33 38 41 47 52 58 67 84 98
3350.0 104 118 140 158 163 162 164 156 139 129
3390.0 117 108 101 88 75 61 46 41 40 39
3430.0 35 33 34 29 24 24 24 23 22 22
3470.0 20 20 23 24 24 21 19 16 15 14
3510.0 16 17 15 13 9 6 9 15 13 9
3550.0 10 12 14 13 13 16 18 11 9 8
3590.0 4 9 14 16 18 21 16 9 11 16
3630.0 17 16 18 20 27 27 24 27 25 21
3670.0 24 24 20 20 24 27 28 31 33 37
3710.0 40 38 33 31 30 30 24 13 16 23
3750.0 22 23 21 21 24 23 18 20 21 20
3790.0 19 21 25 24 19 19 18 14 17 21
3830.0 14 10 13 13 19
##END=
