##TITLE=cis-4-Nonene
##JCAMP-DX=4.24
##DATA TYPE=INFRARED SPECTRUM
##ORIGIN=NIST Mass Spectrometry Data Center
##OWNER=NIST Standard Reference Data Program
Collection (C) 2018 copyright by the U.S. Secretary of Commerce
on behalf of the United States of America. All rights reserved.
##CAS REGISTRY NO=10405-85-3
##MOLFORM=C 9 H 18
##$NIST SOURCE=MSDC-IR
##SPECTROMETER/DATA SYSTEM=HP-GC/MS/IRD
##STATE=gas
##XUNITS=1/CM
##YUNITS=ABSORBANCE
##XFACTOR=1.0
##YFACTOR=0.000002200
##DELTAX=4.0
##FIRSTX=550.0
##LASTX=3846.0
##FIRSTY=0.000191
##MAXX=3846
##MINX=550
##MAXY=0.022
##MINY=0
##NPOINTS=825
##XYDATA=(X++(Y..Y))
550.0 87 28 8 18 0 23 68 119 141 144
590.0 156 115 82 95 74 51 78 76 42 63
630.0 92 98 101 125 131 134 171 222 251 276
670.0 331 406 471 544 631 681 730 768 800 827
710.0 797 746 694 613 567 516 452 412 371 362
750.0 364 333 309 287 250 210 177 170 159 134
790.0 118 92 71 91 97 87 82 79 101 98
830.0 81 96 117 139 143 155 174 174 191 205
870.0 208 210 224 230 210 191 183 167 139 111
910.0 107 94 81 89 81 74 68 70 75 65
950.0 63 65 71 87 90 82 78 74 68 59
990.0 57 72 81 88 118 152 146 117 110 107
1030.0 107 111 121 138 144 145 138 143 168 192
1070.0 214 211 209 205 178 165 166 147 123 117
1110.0 108 74 52 49 48 49 49 47 32 28
1150.0 27 11 5 20 20 10 12 9 3 11
1190.0 31 43 48 55 53 48 44 50 60 72
1230.0 88 95 98 116 144 149 149 157 172 184
1270.0 196 202 192 190 185 180 196 216 239 266
1310.0 279 276 285 294 296 312 334 340 332 303
1350.0 275 262 256 258 273 323 408 484 525 552
1390.0 542 510 501 501 488 450 394 352 345 381
1430.0 449 534 640 761 889 1006 1112 1198 1244 1206
1470.0 1091 949 789 640 507 404 320 261 211 176
1510.0 154 135 120 108 96 87 75 69 69 59
1550.0 58 56 46 49 46 37 39 38 42 49
1590.0 37 36 48 47 41 52 66 72 81 88
1630.0 93 113 132 148 169 177 175 172 164 150
1670.0 135 124 114 109 108 100 87 76 59 55
1710.0 52 37 32 36 30 27 27 23 21 19
1750.0 18 14 17 22 20 20 21 20 18 16
1790.0 8 7 15 19 18 16 9 14 23 22
1830.0 24 24 24 18 18 24 21 16 15 12
1870.0 9 13 21 23 17 19 23 15 11 19
1910.0 16 9 7 3 4 11 13 10 9 10
1950.0 9 12 17 9 4 9 15 14 11 9
1990.0 8 5 1 5 10 8 11 9 4 14
2030.0 19 24 28 26 27 21 24 26 23 27
2070.0 26 19 16 14 6 1 7 11 9 4
2110.0 3 10 14 7 11 15 12 16 10 1
2150.0 5 5 6 10 14 16 13 14 12 8
2190.0 8 14 20 18 11 11 14 14 6 13
2230.0 26 20 9 1 13 18 13 15 15 11
2270.0 6 4 11 21 23 19 20 23 26 27
2310.0 22 22 25 25 26 27 29 23 21 27
2350.0 27 21 16 22 24 21 25 20 19 22
2390.0 21 21 26 34 32 23 23 29 25 18
2430.0 20 26 27 26 23 23 20 11 9 17
2470.0 24 17 11 13 13 23 28 21 25 32
2510.0 34 34 37 36 33 33 28 29 34 34
2550.0 37 38 46 46 41 45 41 41 41 46
2590.0 53 54 50 48 50 50 50 52 55 66
2630.0 70 72 88 93 94 92 92 107 117 109
2670.0 114 118 114 115 113 118 124 122 125 129
2710.0 131 136 137 140 149 166 178 189 203 210
2750.0 210 209 209 224 233 236 242 257 283 302
2790.0 322 356 388 416 460 507 559 618 700 811
2830.0 947 1106 1309 1583 1919 2308 2759 3257 3744 4217
2870.0 4612 4946 5154 5136 4983 4780 4561 4488 4608 4916
2910.0 5399 6034 6803 7668 8551 9308 9833 10000 9787 9384
2950.0 9022 8860 9045 9531 9804 9427 8464 7032 5436 4191
2990.0 3424 3022 2906 2992 3133 3216 3157 2941 2570 2096
3030.0 1637 1255 967 780 666 585 527 492 471 451
3070.0 427 393 357 339 316 290 279 263 240 222
3110.0 208 194 194 180 164 157 151 153 162 159
3150.0 143 134 136 134 120 115 121 120 114 110
3190.0 116 111 97 93 79 69 74 68 60 50
3230.0 51 60 61 59 62 46 35 47 44 34
3270.0 40 52 48 50 67 55 30 32 31 14
3310.0 18 40 35 31 41 50 35 35 43 29
3350.0 32 45 37 33 38 28 12 14 28 32
3390.0 30 20 18 20 18 20 26 25 14 13
3430.0 11 10 11 20 23 16 15 10 6 4
3470.0 6 20 27 30 23 11 12 11 21 28
3510.0 22 19 8 1 15 34 21 16 27 20
3550.0 15 18 22 27 33 25 17 23 27 13
3590.0 18 23 17 19 16 23 21 16 24 35
3630.0 45 38 35 45 36 21 19 25 26 31
3670.0 36 27 21 38 30 20 26 27 30 27
3710.0 31 28 18 27 29 23 37 46 32 17
3750.0 15 16 17 26 32 35 30 31 45 54
3790.0 45 30 19 26 29 29 33 29 36 46
3830.0 45 42 38 38 36
##END=
