##TITLE=L-.alpha.-(1-Naphthyl)ethylamine
##JCAMP-DX=4.24
##DATA TYPE=INFRARED SPECTRUM
##ORIGIN=EPA-IR VAPOR PHASE LIBRARY
##OWNER=SRD/NIST
Collection (C) 2018 copyright by the U.S. Secretary of Commerce
on behalf of the United States of America. All rights reserved.
##CAS REGISTRY NO=10420-89-0
##MOLFORM=C 12 H 13 N
##$NIST SOURCE=MSDC-IR
##STATE=gas
##XUNITS=1/CM
##YUNITS=ABSORBANCE
##XFACTOR=1.
##YFACTOR=0.001
##DELTAX=1.92898
##FIRSTX=549.8
##LASTX=4000.7
##FIRSTY=3.07
##MAXX=4000.7
##MINX=549.759
##MAXY=0.09233
##MINY=0
##NPOINTS=1790
##XYDATA=(X++(Y..Y))
549.759 3.07 3.35 3.58 3.78 3.85 4.16 4.72 5.15 5.43 5.44
569.049 5.35 5.12 4.91 4.71 4.36 4.32 4.26 4.08 4.13 4.09
588.339 4.12 4.34 4.51 4.63 4.92 5.37 5.88 6.33 6.73 7.14
607.628 7.38 7.43 7.4 7.29 7.12 6.68 6.19 5.75 5.25 4.82
626.918 4.6 4.53 4.47 4.34 4.33 4.41 4.48 4.57 4.69 4.82
646.208 4.83 4.87 4.83 4.83 5.03 4.98 4.83 4.87 4.88 4.89
665.498 5.04 5.18 5.21 5.38 5.67 5.94 6.29 6.59 6.82 7.22
684.787 7.55 7.83 8.33 8.77 9.11 9.41 9.46 9.43 9.48 9.32
704.077 8.99 8.61 8.26 8.04 7.89 7.86 8.12 8.45 8.69 9.09
723.367 9.47 10.05 10.95 11.31 11 10.88 11.05 11.12 11.28 11.49
742.657 11.77 12.18 12.91 13.95 15.26 16.97 19.42 23.01 27.9 34.08
761.947 41.18 48.74 56.06 63.34 71.75 82.61 92.33 91.42 81.95 74.49
781.236 70.33 66.64 62.58 58.43 55.25 53.7 52.75 50.39 46.24 42.11
800.526 38.42 35.02 32.07 29.25 26.66 24.45 22.62 20.9 19.42 18.17
819.816 17.03 16.05 15.06 14.17 13.36 12.71 12.28 11.84 11.43 11.21
839.106 11.01 10.74 10.66 10.74 10.64 10.49 10.39 10.37 10.45 10.24
858.395 9.51 8.74 8.31 7.84 7.3 6.86 6.53 6.1 5.75 5.47
877.685 5.19 5.05 4.95 4.88 4.76 4.71 4.69 4.79 4.82 4.66
896.975 4.72 4.75 4.77 4.79 4.81 4.65 4.42 4.37 4.22 4.05
916.265 3.89 3.74 3.49 3.26 3.2 3.08 3.02 3.03 2.97 2.95
935.555 2.86 2.84 2.96 3.08 3.1 3.05 3.12 3.13 3.08 3.08
954.844 3.19 3.24 3.22 3.41 3.64 3.63 3.55 3.45 3.43 3.43
974.134 3.38 3.41 3.49 3.64 3.96 4.32 4.73 5.24 5.77 6.25
993.424 6.68 7.1 7.35 7.54 7.67 7.63 7.62 7.58 7.58 7.51
1012.714 7.27 7 6.65 6.51 6.55 6.47 6.18 6.06 6.03 5.76
1032.003 5.53 5.35 5.1 4.99 4.91 4.79 4.6 4.38 4.25 4.2
1051.293 4.34 4.45 4.4 4.34 4.38 4.56 4.73 4.71 4.73 4.79
1070.583 4.91 5.27 5.19 4.88 4.93 4.88 4.79 4.9 4.9 4.77
1089.873 4.69 4.81 5.08 5.28 5.59 6.06 6.53 7.12 7.8 8.73
1109.163 9.66 10.48 11.09 11.21 11.26 11.19 10.78 9.99 9.02 8.18
1128.452 7.21 6.12 5.35 4.97 4.51 4.04 3.74 3.44 3.23 3.07
1147.742 3.1 3.21 3.26 3.58 4.16 4.58 4.94 5.43 5.86 6.08
1167.032 6.22 6.16 5.85 5.56 5.03 4.48 4.1 3.84 3.52 3.27
1186.322 3.22 3.11 3.06 3.17 3.27 3.2 3.24 3.28 3.23 3.3
1205.611 3.32 3.33 3.39 3.27 3.14 3.24 3.33 3.38 3.54 3.8
1224.901 4.08 4.39 4.75 5.15 5.6 5.98 6.21 6.38 6.51 6.56
1244.191 6.48 6.36 6.19 6.04 5.9 5.62 5.33 5.07 4.8 4.48
1263.481 4.02 3.62 3.28 2.87 2.72 2.79 2.72 2.75 2.89 3
1282.771 3.13 3.28 3.4 3.53 3.71 3.92 4.11 4.34 4.59 4.83
1302.060 5.05 5.28 5.55 5.82 6.05 6.3 6.63 6.96 7.24 7.53
1321.350 7.8 8.01 8.16 8.25 8.24 8.08 7.81 7.48 7.12 6.66
1340.640 6.27 5.95 5.65 5.43 5.28 5.26 5.35 5.52 5.77 6.13
1359.930 6.6 7.19 7.93 8.77 9.71 10.78 11.96 13.18 14.08 14.41
1379.219 14.33 14.17 13.93 13.52 13 12.39 11.63 10.82 10.04 9.26
1398.509 8.43 7.55 6.61 5.69 4.93 4.4 4.03 3.73 3.52 3.36
1417.799 3.22 3.13 3.09 3.06 3.09 3.13 3.19 3.3 3.44 3.57
1437.089 3.78 4.01 4.28 4.53 4.78 5 5.17 5.31 5.36 5.36
1456.378 5.25 5.08 4.92 4.73 4.49 4.21 3.98 3.77 3.53 3.35
1475.668 3.19 3.07 3.03 3.02 3.08 3.19 3.44 3.77 4.18 4.73
1494.958 5.35 6.06 6.87 7.7 8.48 9.11 9.57 9.8 9.77 9.53
1514.248 9.11 8.52 7.73 6.85 5.95 5.19 4.56 4.05 3.64 3.35
1533.538 3.15 2.96 2.8 2.71 2.68 2.65 2.66 2.71 2.71 2.76
1552.827 2.85 2.93 2.94 3 3.13 3.23 3.37 3.56 3.76 4.02
1572.117 4.34 4.66 5.01 5.4 5.77 6.23 6.73 7.22 7.75 8.28
1591.407 8.8 9.23 9.5 9.78 10.04 10.2 10.34 10.38 10.29 10.28
1610.697 10.41 10.65 10.85 11.04 11.21 11.27 11.23 11.01 10.68 10.27
1629.986 9.72 9.08 8.4 7.7 7.03 6.45 5.92 5.4 4.96 4.57
1649.276 4.26 3.99 3.72 3.51 3.41 3.34 3.27 3.27 3.25 3.24
1668.566 3.31 3.36 3.37 3.36 3.33 3.31 3.28 3.25 3.24 3.26
1687.856 3.24 3.19 3.14 3.02 2.87 2.77 2.64 2.45 2.33 2.26
1707.146 2.18 2.15 2.18 2.22 2.26 2.29 2.27 2.24 2.21 2.2
1726.435 2.13 2.01 1.97 1.95 1.88 1.82 1.8 1.77 1.77 1.74
1745.725 1.69 1.67 1.7 1.76 1.8 1.86 1.94 2 2.02 1.98
1765.015 1.96 1.92 1.81 1.7 1.63 1.59 1.54 1.47 1.44 1.52
1784.305 1.64 1.77 1.92 2.09 2.3 2.53 2.7 2.76 2.74 2.72
1803.594 2.67 2.56 2.44 2.31 2.22 2.17 2.1 2.07 2.09 2.14
1822.884 2.18 2.15 2.07 1.98 1.87 1.75 1.64 1.53 1.43 1.42
1842.174 1.41 1.38 1.41 1.49 1.54 1.61 1.72 1.84 1.91 1.95
1861.464 1.96 1.94 1.91 1.82 1.7 1.59 1.49 1.39 1.35 1.36
1880.754 1.34 1.33 1.34 1.37 1.37 1.41 1.46 1.55 1.68 1.79
1900.043 1.93 2.09 2.28 2.51 2.71 2.93 3.14 3.28 3.35 3.4
1919.333 3.4 3.37 3.34 3.27 3.21 3.18 3.16 3.15 3.09 2.94
1938.623 2.78 2.61 2.4 2.18 1.96 1.73 1.48 1.27 1.0956 0.9611
1957.913 0.8449 0.7484 0.7 0.6747 0.6411 0.6051 0.5885 0.568 0.5475 0.5266
1977.202 0.4751 0.4355 0.4102 0.4453 0.4984 0.4765 0.4434 0.4449 0.4465 0.4586
1996.492 0.4662 0.4302 0.3978 0.4221 0.4277 0.3954 0.395 0.4117 0.417 0.4013
2015.782 0.3853 0.388 0.4175 0.4091 0.39 0.4102 0.4028 0.3771 0.3859 0.3968
2035.072 0.4199 0.4231 0.3872 0.3823 0.3923 0.4039 0.4229 0.4395 0.4608 0.454
2054.362 0.454 0.473 0.436 0.3798 0.3886 0.4209 0.4101 0.3968 0.4094 0.4285
2073.651 0.4334 0.426 0.3934 0.3738 0.3758 0.3445 0.3496 0.3668 0.3544 0.3509
2092.941 0.3714 0.3797 0.3459 0.3234 0.3603 0.3735 0.3726 0.3828 0.3205 0.2951
2112.231 0.3488 0.3336 0.3144 0.3107 0.293 0.3249 0.2887 0.2658 0.2956 0.3065
2131.521 0.3259 0.3328 0.3483 0.3394 0.3186 0.3175 0.3159 0.3127 0.3021 0.3089
2150.810 0.3213 0.2989 0.2942 0.3399 0.3829 0.3959 0.3716 0.3413 0.3342 0.3162
2170.100 0.2982 0.2974 0.3092 0.3466 0.3659 0.3292 0.3198 0.3513 0.3529 0.3433
2189.390 0.3232 0.3313 0.3674 0.3659 0.3722 0.4072 0.4183 0.3855 0.354 0.3499
2208.680 0.375 0.3704 0.3384 0.3713 0.3565 0.3609 0.4261 0.4141 0.4114 0.4276
2227.970 0.4421 0.4279 0.3756 0.367 0.3845 0.3871 0.4058 0.4484 0.4391 0.3997
2247.259 0.4141 0.4377 0.4365 0.4799 0.4959 0.4648 0.4752 0.5028 0.4849 0.4872
2266.549 0.5445 0.5506 0.5241 0.543 0.6011 0.6274 0.6966 0.7313 0.6726 0.6745
2285.839 0.6516 0.613 0.6115 0.5911 0.5795 0.5758 0.5499 0.5207 0.4816 0.4896
2305.129 0.5218 0.5162 0.5276 0.5249 0.5233 0.5054 0.5015 0.5452 0.555 0.5114
2324.418 0.4896 0.5333 0.5463 0.547 0.579 0.5704 0.5496 0.5236 0.5022 0.5001
2343.708 0.481 0.4633 0.4311 0.3831 0.3969 0.4336 0.444 0.4897 0.546 0.5192
2362.998 0.4883 0.5356 0.5665 0.5044 0.4626 0.4403 0.4383 0.4663 0.4369 0.4178
2382.288 0.4333 0.4557 0.4323 0.4057 0.4156 0.4658 0.4985 0.4858 0.5417 0.5468
2401.578 0.5298 0.6141 0.6219 0.6119 0.6426 0.6495 0.689 0.7065 0.7092 0.7011
2420.867 0.6614 0.6607 0.6931 0.6972 0.6562 0.6188 0.5584 0.485 0.4884 0.4711
2440.157 0.4529 0.4738 0.4867 0.4761 0.4904 0.4847 0.4405 0.4563 0.4652 0.5176
2459.447 0.5554 0.5247 0.5144 0.5108 0.5012 0.4927 0.4968 0.497 0.4941 0.4667
2478.737 0.47 0.5031 0.4731 0.4489 0.4983 0.5082 0.4769 0.5208 0.5033 0.4803
2498.026 0.5752 0.5696 0.4841 0.4766 0.5104 0.4997 0.5338 0.5647 0.5313 0.5404
2517.316 0.5249 0.5008 0.4871 0.4975 0.5101 0.5255 0.5254 0.5159 0.5378 0.5206
2536.606 0.5087 0.535 0.5723 0.6177 0.622 0.5581 0.5447 0.5864 0.6026 0.5961
2555.896 0.588 0.5625 0.5455 0.5887 0.6404 0.6132 0.6085 0.6185 0.5553 0.5346
2575.186 0.5299 0.5306 0.5213 0.5429 0.632 0.6885 0.6759 0.6742 0.6825 0.6716
2594.475 0.6702 0.6834 0.723 0.7256 0.7655 0.7913 0.7393 0.7687 0.7917 0.7738
2613.765 0.7945 0.7947 0.8292 0.8826 0.8525 0.8484 0.8355 0.8685 0.9061 0.9369
2633.055 0.9251 0.8533 0.8635 0.8498 0.8539 0.8544 0.8665 0.8694 0.8167 0.7828
2652.345 0.7901 0.8245 0.8144 0.81 0.8127 0.759 0.7021 0.7186 0.7453 0.7495
2671.634 0.7477 0.7726 0.8068 0.754 0.6902 0.6687 0.6657 0.7079 0.7373 0.7604
2690.924 0.7489 0.7373 0.8145 0.8471 0.8629 0.8952 0.9193 0.898 0.8748 0.884
2710.214 0.9097 0.9486 0.9557 0.9562 1.02 1.0831 1.0743 1.0663 1.1074 1.1484
2729.504 1.169 1.19 1.1636 1.1638 1.2 1.19 1.1453 1.0861 1.0762 1.0639
2748.794 1.0819 1.1407 1.19 1.2 1.1494 1.1455 1.1331 1.18 1.23 1.27
2768.083 1.27 1.23 1.27 1.31 1.29 1.23 1.26 1.32 1.32 1.34
2787.373 1.36 1.37 1.41 1.38 1.36 1.42 1.47 1.52 1.55 1.65
2806.663 1.73 1.76 1.79 1.86 1.95 2.08 2.24 2.35 2.41 2.42
2825.953 2.51 2.65 2.79 2.77 2.68 2.76 2.85 2.9 3 3.1
2845.242 3.21 3.29 3.4 3.61 3.86 4.13 4.44 4.81 5.28 5.9
2864.532 6.62 7.36 8.07 8.85 9.69 10.42 11.08 11.61 11.94 12.01
2883.822 11.97 11.9 11.68 11.37 11.01 10.7 10.46 10.35 10.26 10.11
2903.112 10.12 10.23 10.24 10.31 10.43 10.44 10.71 11.15 11.57 12.07
2922.401 12.71 13.42 14.2 14.99 15.75 16.34 16.6 16.71 16.57 16.06
2941.691 15.32 14.49 13.67 13.02 12.52 12.33 12.6 13.38 14.61 16.34
2960.981 18.53 20.75 22.91 24.82 26.34 27.67 28.73 29.39 29.3 28.52
2980.271 27.28 25.71 24.01 22.04 20.07 18.16 16.18 14.28 12.57 11.22
2999.561 10.09 9.35 8.98 8.64 8.42 8.37 8.43 8.37 8.18 8.12
3018.850 8.14 8.12 8.19 8.42 8.76 9.3 10.02 10.91 12.13 13.65
3038.140 15.33 17.37 19.7 22.16 24.78 27.41 30.02 32.36 34.42 36.35
3057.430 38.04 39.16 39.53 39.09 38.05 36.74 35.2 33.41 31.36 29.19
3076.720 27.02 25.17 23.65 22.2 20.94 19.95 18.85 17.64 16.43 15.15
3096.009 13.8 12.48 11.15 9.79 8.55 7.35 6.12 5.05 4.19 3.44
3115.299 2.93 2.59 2.35 2.05 1.82 1.77 1.75 1.62 1.42 1.29
3134.589 1.29 1.33 1.24 1.21 1.27 1.34 1.28 1.27 1.3 1.1646
3153.879 1.1323 1.19 1.19 1.2 1.25 1.24 1.28 1.29 1.19 1.1178
3173.169 1.123 1.1413 1.1001 1.0611 1.0898 1.1302 1.1156 1.0573 1.0642 1.0417
3192.458 0.9299 0.9089 0.9723 0.9956 0.94 0.8796 0.8492 0.8338 0.8146 0.84
3211.748 0.9 0.9159 0.9552 0.9439 0.8784 0.9149 0.8587 0.8186 0.8247 0.8157
3231.038 0.8216 0.6815 0.6541 0.6775 0.6609 0.7421 0.7803 0.7085 0.6847 0.7023
3250.328 0.6757 0.7142 0.6433 0.5337 0.5614 0.5864 0.6094 0.5746 0.4814 0.48
3269.617 0.5498 0.5758 0.5254 0.4022 0.3904 0.511 0.5268 0.5039 0.4191 0.4156
3288.907 0.4965 0.4484 0.4378 0.4331 0.4394 0.4884 0.4173 0.4586 0.5341 0.4992
3308.197 0.5253 0.5782 0.503 0.446 0.5016 0.5102 0.5425 0.5484 0.6163 0.7492
3327.487 0.8154 0.8043 0.8565 0.9139 0.8875 0.921 0.893 0.8327 0.8155 0.7962
3346.777 0.7281 0.64 0.5602 0.56 0.6351 0.6164 0.5212 0.4569 0.471 0.5873
3366.066 0.4782 0.3491 0.4963 0.4498 0.3724 0.4215 0.436 0.3625 0.2973 0.3309
3385.356 0.3608 0.4377 0.4263 0.3666 0.4563 0.5007 0.4639 0.3948 0.4382 0.5309
3404.646 0.519 0.5134 0.4908 0.4542 0.4632 0.4215 0.3669 0.391 0.3705 0.2834
3423.936 0.24878 0.26489 0.3182 0.3893 0.3945 0.4174 0.394 0.25801 0.22917 0.3475
3443.225 0.3628 0.271 0.2811 0.26234 0.22496 0.24836 0.3031 0.3106 0.2972 0.306
3462.515 0.25682 0.25899 0.26208 0.3248 0.3746 0.3439 0.3651 0.3094 0.2738 0.25239
3481.805 0.19847 0.21272 0.24341 0.26495 0.26866 0.23124 0.22249 0.2876 0.274 0.23644
3501.095 0.2782 0.22966 0.1243 0.16592 0.19788 0.1369 0.1603 0.25195 0.3155 0.2882
3520.385 0.21549 0.19303 0.2375 0.3412 0.3272 0.3255 0.2949 0.26538 0.2986 0.26207
3539.674 0.26706 0.24097 0.1517 0.25756 0.3396 0.23782 0.23293 0.2701 0.26697 0.3242
3558.964 0.3411 0.23972 0.18334 0.1466 0.18747 0.26744 0.2872 0.385 0.3719 0.3252
3578.254 0.3405 0.3492 0.379 0.3576 0.3712 0.3333 0.3778 0.3859 0.2918 0.3052
3597.544 0.3793 0.3474 0.3064 0.24761 0.22216 0.3053 0.3244 0.3354 0.3397 0.25396
3616.833 0.16588 0.23147 0.3574 0.3758 0.21739 0.1588 0.24994 0.1082 0.023 0.13
3636.123 0.179864 0.2706 0.3252 0.22138 0.26769 0.2858 0.16555 0.18635 0.1769 0.21428
3655.413 0.16707 0.113 0.22096 0.22662 0.1168 0.1165 0.21187 0.24201 0.23018 0.24607
3674.703 0.23106 0.25546 0.3062 0.3163 0.3 0.2776 0.25767 0.25721 0.2781 0.26782
3693.993 0.2742 0.25597 0.24682 0.26518 0.24061 0.1098 0.037 0.16885 0.169732 0.1943
3713.282 0.3257 0.25743 0.156 0.1891 0.23776 0.18738 0.18104 0.1501 0 0.006
3732.572 0.1277 0.177523 0.23765 0.3047 0.3179 0.20203 0.0788 0.1292 0.18821 0.16334
3751.862 0.2085 0.2854 0.25582 0.2882 0.3096 0.2927 0.25829 0.22345 0.26086 0.24355
3771.152 0.3021 0.3186 0.19929 0.2139 0.3186 0.3684 0.3688 0.19956 0.21197 0.4106
3790.441 0.3783 0.26641 0.26987 0.3899 0.4144 0.4012 0.4656 0.549 0.4828 0.4097
3809.731 0.459 0.4267 0.3658 0.296 0.2779 0.25363 0.346 0.5147 0.501 0.4519
3829.021 0.3238 0.2754 0.4082 0.4172 0.426 0.4951 0.5042 0.4866 0.4564 0.4675
3848.311 0.6975 0.7396 0.6525 0.6473 0.6333 0.7018 0.6071 0.5257 0.5511 0.5363
3867.601 0.5448 0.5315 0.5404 0.4093 0.365 0.5461 0.4256 0.3485 0.511 0.4995
3886.890 0.3968 0.3702 0.365 0.3979 0.3898 0.5224 0.5367 0.3739 0.4395 0.5082
3906.180 0.4046 0.3522 0.3312 0.2825 0.336 0.26774 0.20179 0.24528 0.3382 0.3559
3925.470 0.2786 0.24202 0.1919 0.19078 0.22942 0.26276 0.3342 0.3932 0.3508 0.3312
3944.760 0.3332 0.3327 0.3812 0.3884 0.4462 0.5098 0.4545 0.3157 0.283 0.3799
3964.049 0.4694 0.5697 0.5837 0.3984 0.3261 0.3653 0.3504 0.4187 0.4442 0.3236
3983.339 0.2412 0.26495 0.4087 0.5868 0.5378 0.4109 0.3208 0.2794 0.2963 0.289
##END=
