##TITLE=1-Bromo-2-methylbutane
##JCAMP-DX=4.24
##DATA TYPE=INFRARED SPECTRUM
##ORIGIN=NIST Mass Spectrometry Data Center
##OWNER=NIST Standard Reference Data Program
Collection (C) 2018 copyright by the U.S. Secretary of Commerce
on behalf of the United States of America. All rights reserved.
##CAS REGISTRY NO=10422-35-2
##MOLFORM=C 5 H 11 Br
##$NIST SOURCE=MSDC-IR
##SPECTROMETER/DATA SYSTEM=HP-GC/MS/IRD
##STATE=gas
##XUNITS=1/CM
##YUNITS=ABSORBANCE
##XFACTOR=1.0
##YFACTOR=0.000001500
##DELTAX=4.0
##FIRSTX=550.0
##LASTX=3846.0
##FIRSTY=0.000300
##MAXX=3846
##MINX=550
##MAXY=0.015
##MINY=0
##NPOINTS=825
##XYDATA=(X++(Y..Y))
550.0 200 156 82 85 18 22 96 70 64 59
590.0 114 170 212 320 411 488 577 675 742 752
630.0 764 761 827 1057 1422 1746 1991 2078 1918 1544
670.0 1109 795 608 456 354 260 237 235 263 287
710.0 276 266 233 198 216 274 266 259 282 351
750.0 452 532 609 662 651 638 619 598 538 464
790.0 434 390 327 321 318 339 356 320 306 308
830.0 288 267 277 279 286 332 367 341 348 369
870.0 343 314 316 274 238 272 346 377 420 515
910.0 575 611 625 606 562 507 457 396 362 376
950.0 385 384 434 508 568 617 656 679 663 603
990.0 569 566 542 480 453 468 470 444 421 416
1030.0 382 338 314 308 275 268 300 295 275 296
1070.0 304 279 252 253 259 235 246 240 238 264
1110.0 249 251 255 243 241 220 250 288 315 341
1150.0 352 393 396 342 318 303 292 319 351 413
1190.0 481 541 566 601 706 836 1050 1428 1901 2244
1230.0 2375 2347 2176 1804 1363 1067 958 967 1025 1084
1270.0 1113 1105 1071 1019 967 925 883 840 763 663
1310.0 591 549 546 566 595 612 587 581 588 557
1350.0 526 507 528 612 722 869 1066 1226 1314 1387
1390.0 1391 1244 1013 803 643 544 516 529 594 738
1430.0 914 1097 1262 1409 1552 1703 1844 1953 1994 1940
1470.0 1774 1556 1296 1035 826 668 541 440 376 366
1510.0 339 295 298 302 271 256 270 292 279 241
1550.0 221 229 262 239 220 219 213 204 194 177
1590.0 167 172 185 190 188 185 196 188 174 182
1630.0 181 199 194 187 202 226 216 176 184 180
1670.0 166 163 173 185 169 143 168 185 170 146
1710.0 135 147 152 128 117 141 154 144 129 121
1750.0 123 128 129 119 118 139 131 113 122 116
1790.0 108 110 92 86 96 102 95 96 116 115
1830.0 108 100 94 109 103 98 106 100 102 99
1870.0 90 91 100 96 97 90 84 90 82 83
1910.0 96 88 85 91 81 69 66 77 77 75
1950.0 80 88 86 78 83 82 85 80 74 78
1990.0 73 77 71 61 68 76 81 61 62 77
2030.0 79 79 73 69 69 69 62 69 85 90
2070.0 73 68 71 68 66 69 73 63 63 61
2110.0 45 51 61 56 63 77 74 59 66 71
2150.0 64 68 75 76 63 57 57 56 65 75
2190.0 68 68 70 73 69 62 74 81 68 56
2230.0 65 67 60 70 60 53 54 54 58 51
2270.0 46 48 46 56 66 72 67 66 77 78
2310.0 70 71 63 74 76 47 61 89 84 62
2350.0 63 69 80 90 74 54 50 58 67 69
2390.0 54 38 30 39 58 57 45 31 39 57
2430.0 59 55 53 55 36 26 43 40 36 28
2470.0 16 20 27 28 26 19 20 21 12 3
2510.0 0 16 25 14 13 28 37 22 20 20
2550.0 33 46 46 55 69 70 54 56 73 61
2590.0 50 71 69 56 64 75 92 90 82 86
2630.0 99 95 79 75 99 113 125 123 115 118
2670.0 117 111 101 109 115 124 121 108 119 134
2710.0 127 130 147 147 153 171 174 203 226 219
2750.0 217 202 208 225 220 205 208 208 212 229
2790.0 244 272 288 305 333 355 385 417 456 500
2830.0 553 637 747 888 1087 1325 1624 1932 2196 2451
2870.0 2714 2979 3190 3322 3377 3388 3349 3262 3199 3264
2910.0 3461 3744 4078 4436 4813 5181 5477 5654 5739 5858
2950.0 6087 6504 7208 8259 9343 10000 9991 9325 8054 6467
2990.0 4906 3605 2667 2101 1753 1515 1345 1170 1020 853
3030.0 696 598 529 484 453 410 379 385 389 352
3070.0 342 349 336 337 332 303 272 262 277 293
3110.0 268 263 267 247 214 203 201 194 199 201
3150.0 207 213 215 231 219 179 173 184 167 150
3190.0 143 150 154 140 121 101 98 103 112 116
3230.0 101 83 88 102 103 106 105 89 71 69
3270.0 59 58 58 79 80 56 68 41 39 59
3310.0 80 85 72 88 74 58 72 80 95 96
3350.0 89 82 60 46 48 66 77 66 60 73
3390.0 75 70 69 53 35 53 37 34 61 65
3430.0 81 71 78 57 42 61 60 49 34 23
3470.0 45 68 57 44 63 58 10 6 48 80
3510.0 53 22 35 66 48 43 67 28 25 47
3550.0 52 63 92 75 45 66 75 63 73 105
3590.0 110 89 74 63 67 52 55 73 79 99
3630.0 97 105 91 51 65 101 67 68 70 79
3670.0 109 123 123 81 77 109 89 64 59 68
3710.0 94 87 89 100 93 87 70 71 91 114
3750.0 160 162 145 139 130 124 116 103 83 64
3790.0 54 71 112 120 87 54 83 157 146 82
3830.0 84 133 134 92 74
##END=
