##TITLE=5-Chloro-4-fluoro-2-nitroaniline
##JCAMP-DX=4.24
##DATA TYPE=INFRARED SPECTRUM
##ORIGIN=EPA-IR VAPOR PHASE LIBRARY
##OWNER=SRD/NIST
Collection (C) 2018 copyright by the U.S. Secretary of Commerce
on behalf of the United States of America. All rights reserved.
##CAS REGISTRY NO=104222-34-6
##MOLFORM=C 6 H 4 Cl F N 2 O 2
##$NIST SOURCE=MSDC-IR
##STATE=gas
##XUNITS=1/CM
##YUNITS=ABSORBANCE
##XFACTOR=1.
##YFACTOR=0.001
##DELTAX=1.92898
##FIRSTX=549.8
##LASTX=4000.7
##FIRSTY=19.125
##MAXX=4000.7
##MINX=549.759
##MAXY=0.326335
##MINY=0
##NPOINTS=1790
##XYDATA=(X++(Y..Y))
549.759 19.125 17.835 17.245 17.135 16.745 15.435 14.865 14.895 15.345 15.415
569.049 14.665 14.885 15.435 15.115 14.845 14.625 14.065 14.255 14.515 14.535
588.339 14.645 14.795 15.345 16.425 17.055 17.945 19.225 20.305 21.045 20.475
607.628 20.385 20.205 19.315 18.505 17.045 16.045 15.465 14.515 14.365 14.715
626.918 14.865 14.685 14.085 13.755 13.825 13.635 13.725 13.965 13.505 13.225
646.208 13.205 13.075 12.875 12.945 13.045 13.395 13.185 12.855 13.295 13.355
665.498 13.735 13.885 13.845 14.385 14.335 13.975 14.025 14.175 14.265 13.885
684.787 13.545 13.505 13.355 13.115 13.015 12.835 12.835 13.175 13.425 13.825
704.077 14.215 14.615 15.005 14.905 15.125 15.715 15.615 15.145 15.125 15.375
723.367 15.375 15.125 14.635 14.155 13.835 13.765 14.185 14.735 14.815 14.875
742.657 14.975 15.085 15.915 16.465 17.205 18.475 19.205 20.175 21.785 23.865
761.947 25.815 25.015 23.095 23.245 23.545 23.795 24.835 26.315 28.705 32.155
781.236 36.945 43.235 50.965 60.295 69.755 77.335 81.995 83.255 81.445 77.155
800.526 70.875 62.615 52.925 43.595 36.275 30.905 27.115 24.675 22.505 20.775
819.816 18.735 16.355 15.455 17.375 19.155 19.805 21.295 23.015 24.865 27.045
839.106 29.165 30.835 31.275 29.765 28.355 27.015 25.405 23.655 21.755 20.105
858.395 18.165 16.785 16.255 16.175 16.195 16.945 18.255 19.665 21.615 24.025
877.685 26.525 28.635 31.005 32.915 33.605 33.465 32.245 29.845 26.435 22.705
896.975 19.405 16.595 14.155 12.045 10.705 9.725 8.705 7.825 7.555 7.585
916.265 7.295 7.085 7.195 7.475 7.835 7.825 7.295 7.055 6.935 7.175
935.555 7.605 7.455 6.785 6.515 6.655 6.385 6.435 6.675 6.275 6.325
954.844 6.755 6.915 6.655 6.845 7.265 7.225 7.255 7.475 8.115 8.485
974.134 9.195 10.375 11.945 13.455 15.255 17.425 19.955 24.145 29.055 34.475
993.424 40.265 46.755 52.945 57.895 61.165 62.225 62.125 59.745 55.685 50.165
1012.714 43.075 35.425 29.505 25.485 21.915 19.105 17.165 15.205 13.205 11.735
1032.003 10.695 10.025 9.025 8.195 8.075 7.235 6.695 6.895 6.935 6.975
1051.293 6.425 5.775 5.455 5.525 5.635 5.405 4.935 5.035 5.715 5.525
1070.583 3.955 3.725 4.365 4.105 3.985 4.325 4.705 4.665 4.245 3.705
1089.873 3.915 4.715 4.855 3.935 4.135 4.455 4.905 5.525 5.505 5.545
1109.163 4.355 3.885 4.585 4.295 3.535 3.275 2.765 2.115 1.955 2.785
1128.452 3.655 3.385 2.995 2.525 2.315 2.815 2.615 2.795 3.835 4.255
1147.742 3.555 3.395 4.075 4.315 4.275 3.535 3.665 3.895 4.065 4.545
1167.032 4.955 5.345 5.455 5.645 5.495 4.755 4.435 5.845 7.035 7.355
1186.322 7.465 7.525 8.235 8.465 9.145 10.395 12.485 15.885 18.895 23.265
1205.611 29.535 35.435 42.165 51.095 59.785 65.685 69.045 70.245 70.915 71.355
1224.901 71.695 69.955 64.975 61.185 59.655 60.775 63.985 69.355 76.375 84.515
1244.191 93.345 102.675 111.375 119.625 127.775 135.235 142.265 147.685 151.175 152.835
1263.481 152.945 149.605 142.905 133.485 121.235 107.865 94.785 82.745 71.705 61.625
1282.771 52.595 45.285 39.195 34.375 30.425 27.055 24.765 22.855 21.195 19.965
1302.060 18.815 17.825 17.355 17.195 17.405 18.255 19.945 22.335 25.715 30.505
1321.350 36.825 44.855 54.615 65.485 76.275 86.425 95.085 102.275 108.225 112.005
1340.640 112.505 109.505 104.305 98.245 91.305 83.005 73.235 62.695 52.465 43.255
1359.930 35.765 29.815 24.885 20.975 17.975 15.785 14.205 13.095 12.425 12.015
1379.219 11.705 11.715 11.905 12.065 12.305 12.605 13.055 13.535 14.325 15.515
1398.509 17.255 19.865 22.895 26.525 30.745 34.725 37.905 40.035 40.845 40.445
1417.799 38.625 35.065 30.525 25.975 22.135 19.255 17.245 15.965 15.095 14.635
1437.089 14.365 14.335 14.445 14.585 15.055 15.895 17.335 19.265 21.675 24.675
1456.378 28.175 31.775 35.065 37.805 39.865 41.755 43.405 45.295 47.865 51.645
1475.668 57.065 64.755 75.335 88.795 103.645 117.425 127.715 134.115 137.565 138.615
1494.958 137.265 133.345 128.325 125.755 128.555 137.465 152.625 172.585 196.165 223.625
1514.248 252.355 280.025 303.575 319.025 326.335 325.635 317.425 302.485 279.635 249.025
1533.538 214.075 180.145 151.205 125.055 103.145 85.575 71.135 60.105 51.975 46.145
1552.827 42.305 39.665 38.685 39.555 41.855 45.055 49.905 56.175 63.515 72.455
1572.117 82.295 91.685 100.585 107.115 110.515 111.935 111.155 108.445 103.045 94.155
1591.407 83.015 72.185 63.355 56.655 51.995 48.575 46.085 44.655 44.125 44.205
1610.697 45.185 47.305 49.985 54.075 59.155 64.525 70.535 76.265 80.995 83.935
1629.986 84.445 82.625 78.585 72.215 64.355 56.085 47.415 39.455 32.825 27.515
1649.276 23.465 20.465 17.945 16.075 14.585 13.425 12.585 11.655 11.045 10.515
1668.566 9.755 9.385 9.205 8.985 8.825 8.675 8.655 8.675 8.575 8.495
1687.856 8.455 8.315 8.075 7.865 7.625 7.315 7.065 6.885 6.705 6.425
1707.146 6.235 6.185 6.115 6.025 5.985 6.005 5.795 5.775 5.805 5.495
1726.435 5.365 5.395 5.265 4.905 4.505 4.405 4.385 4.185 3.925 3.735
1745.725 3.695 3.655 3.775 3.645 3.615 3.805 3.965 4.125 4.175 4.245
1765.015 4.275 4.345 4.355 4.255 4.095 3.945 3.795 3.545 3.345 3.265
1784.305 3.065 2.805 2.745 2.725 2.685 2.685 2.535 2.375 2.425 2.415
1803.594 2.215 2.175 2.205 2.185 2.145 2.045 2.005 1.775 1.615 1.675
1822.884 1.745 1.785 1.775 1.715 1.545 1.575 1.675 1.585 1.515 1.575
1842.174 1.525 1.445 1.485 1.465 1.3468 1.2373 1.2878 1.3629 1.495 1.535
1861.464 1.465 1.3919 1.455 1.605 1.705 1.685 1.635 1.775 1.815 1.735
1880.754 1.865 2.035 2.015 1.975 1.945 1.885 1.885 1.835 1.745 1.695
1900.043 1.655 1.545 1.475 1.505 1.435 1.4046 1.4224 1.4098 1.3411 1.3285
1919.333 1.4207 1.3946 1.4245 1.485 1.485 1.555 1.585 1.585 1.585 1.595
1938.623 1.555 1.545 1.485 1.505 1.665 1.765 1.635 1.525 1.585 1.615
1957.913 1.725 1.635 1.525 1.635 1.505 1.465 1.545 1.485 1.4242 1.475
1977.202 1.465 1.2967 1.3701 1.3604 1.2196 1.2971 1.343 1.1535 1.1209 1.2611
1996.492 1.251 1.3387 1.455 1.555 1.4066 1.3657 1.525 1.495 1.495 1.475
2015.782 1.4272 1.545 1.475 1.3918 1.4177 1.4117 1.339 1.1294 1.1107 1.1919
2035.072 1.2779 1.2916 1.2031 1.2074 1.3389 1.455 1.475 1.4085 1.3289 1.3488
2054.362 1.4279 1.525 1.595 1.445 1.2507 1.1273 1.2034 1.3212 1.2467 1.2084
2073.651 1.3443 1.475 1.525 1.625 1.625 1.565 1.535 1.575 1.605 1.635
2092.941 1.755 1.745 1.745 1.785 1.835 1.765 1.735 1.845 1.645 1.615
2112.231 1.685 1.705 1.725 1.4326 1.455 1.655 1.605 1.615 1.585 1.635
2131.521 1.705 1.495 1.505 1.595 1.515 1.495 1.4215 1.2532 1.2602 1.3977
2150.810 1.3939 1.4129 1.389 1.3863 1.4068 1.475 1.545 1.465 1.505 1.565
2170.100 1.585 1.505 1.495 1.765 1.885 1.795 1.645 1.585 1.725 1.915
2189.390 1.815 1.695 1.815 1.855 1.805 1.815 1.805 1.805 1.765 1.675
2208.680 1.515 1.2354 1.118 1.2782 1.3035 1.1946 1.1999 1.1681 1.0602 1.0079
2227.970 1.0544 1.0767 1.0493 1.0537 0.8995 0.7846 0.8298 0.873 0.9115 1.0063
2247.259 0.9561 0.8387 0.8726 0.9308 0.9421 0.8762 1.0455 1.1563 1.1059 1.083
2266.549 1.0476 1.1414 1.0483 0.9612 1.0354 1.0869 1.0043 0.9007 1.1325 1.3171
2285.839 1.3374 1.2854 1.445 1.555 1.2812 1.3228 1.435 1.3922 1.3611 1.3506
2305.129 1.535 1.565 1.4312 1.605 1.705 1.655 1.725 1.845 1.945 1.915
2324.418 1.925 2.025 2.225 2.255 2.125 2.015 2.145 2.375 2.385 2.375
2343.708 2.435 2.365 2.375 2.305 2.165 2.235 2.235 2.255 2.125 1.815
2362.998 1.655 1.735 1.795 1.635 1.565 1.455 1.3064 1.3939 1.465 1.4124
2382.288 1.291 1.3446 1.545 1.595 1.3777 1.2699 1.1949 1.0663 1.1046 1.3113
2401.578 1.435 1.3661 1.2928 1.3391 1.3699 1.3563 1.605 1.875 1.895 1.965
2420.867 1.975 1.875 2.005 2.055 1.975 2.075 2.125 1.925 1.605 1.495
2440.157 1.725 1.805 1.685 1.585 1.495 1.555 1.595 1.565 1.535 1.605
2459.447 1.515 1.625 1.875 1.835 1.655 1.735 1.945 1.835 1.775 1.775
2478.737 1.815 1.835 1.815 1.765 1.705 1.745 1.875 1.725 1.625 1.715
2498.026 1.575 1.585 1.745 1.775 1.515 1.2366 1.1823 0.9187 0.7892 0.8778
2517.316 0.8581 1.0234 1.1282 1.0264 0.8887 1.0132 1.0377 0.8011 0.9484 1.1306
2536.606 0.9851 0.9284 1.0194 1.0822 1.1896 1.1833 1.2967 1.2279 0.9368 1.0133
2555.896 1.1813 1.2371 1.2731 1.2829 1.1481 0.996 0.8654 0.8462 1.0304 1.085
2575.186 1.1566 1.3272 1.4059 1.475 1.645 1.615 1.555 1.635 1.835 2.145
2594.475 2.115 2.055 2.175 2.305 2.355 2.385 2.315 2.125 2.225 2.265
2613.765 2.235 2.375 2.405 2.175 2.035 2.105 2.015 1.935 1.965 2.035
2633.055 2.055 1.815 1.705 1.965 2.285 2.295 2.165 2.095 1.945 1.975
2652.345 2.065 2.205 2.485 2.575 2.365 2.315 2.345 2.365 2.295 2.145
2671.634 2.075 1.985 2.005 1.845 1.595 1.4209 1.495 1.585 1.525 1.495
2690.924 1.545 1.3765 1.2035 1.535 1.675 1.645 1.575 1.4283 1.4171 1.455
2710.214 1.515 1.413 1.2739 1.378 1.495 1.445 1.575 1.485 1.495 1.635
2729.504 1.515 1.715 1.845 1.825 2.005 2.085 2.005 2.075 2.165 2.175
2748.794 2.065 2.025 2.085 1.945 1.935 2.065 2.055 1.935 1.675 1.565
2768.083 1.525 1.4213 1.485 1.585 1.705 1.775 1.795 1.645 1.3396 1.3727
2787.373 1.3221 1.1524 1.505 1.485 1.2941 1.575 1.745 1.725 1.565 1.455
2806.663 1.515 1.565 1.715 1.895 1.955 2.195 2.225 2.275 2.505 2.495
2825.953 2.565 2.815 3.045 2.895 2.965 3.425 3.715 3.635 3.865 4.105
2845.242 3.965 4.175 4.295 4.165 3.945 3.825 3.955 3.535 3.105 3.065
2864.532 2.735 2.675 2.635 2.265 2.295 2.335 1.975 1.845 2.095 2.075
2883.822 2.015 2.175 2.085 2.075 2.025 1.785 1.975 2.035 1.905 2.095
2903.112 2.375 2.385 2.315 2.445 2.515 2.375 2.435 2.695 2.595 2.535
2922.401 2.535 2.365 2.425 2.725 2.885 2.495 2.175 2.055 1.875 1.785
2941.691 1.735 1.705 1.685 1.725 1.545 1.4103 1.455 1.495 1.505 1.695
2960.981 1.595 1.2862 1.3196 1.445 1.485 1.465 1.4139 1.3128 1.0698 1.282
2980.271 1.2204 1.072 1.1813 1.0284 1.0982 0.6569 0.48578 0.8009 0.932 1.2418
2999.561 1.465 1.3775 1.2628 0.9066 0.909 1.1639 1.2093 1.2376 1.1243 1.1218
3018.850 1.023 1.0868 1.3593 1.1681 0.8436 0.7917 0.9401 0.9482 1.0147 1.3395
3038.140 1.485 1.605 1.4107 1.2388 1.555 1.885 2.125 2.085 2.125 2.615
3057.430 2.875 2.895 3.105 3.255 3.205 3.235 3.305 3.995 4.235 3.845
3076.720 3.885 4.385 4.985 5.185 5.285 5.805 6.745 7.465 7.855 8.195
3096.009 8.095 7.835 7.855 7.425 6.775 5.975 5.245 4.755 4.455 4.265
3115.299 3.735 3.215 3.175 3.085 2.605 2.275 2.165 2.185 2.055 1.885
3134.589 1.945 1.785 1.535 1.2465 0.9575 1.0958 1.0153 1.0325 1.3417 1.0083
3153.879 1.1196 1.1415 0.8171 0.7704 0.7216 0.9622 1.445 1.545 1.2951 1.4317
3173.169 1.3559 1.3529 1.545 1.3579 1.2237 1.1034 1.141 1.4096 1.565 1.635
3192.458 1.545 1.705 1.615 1.1064 1.1752 1.3233 1.3034 1.2043 1.1071 1.1203
3211.748 0.9873 0.9761 0.9318 0.84 0.6089 0.7606 1.0981 0.8817 0.6872 0.9833
3231.038 0.8905 0.7909 0.984 0.7499 0.8794 0.9466 0.594 0.47164 0.6264 0.6068
3250.328 0.4284 0.7265 1.0045 0.7527 0.4154 0.42562 0.6756 0.675 0.9419 1.0857
3269.617 0.6822 0.5381 0.675 0.6322 0.6284 0.50422 0.5393 0.8014 0.5733 0.7318
3288.907 0.9101 0.6261 0.7438 0.5899 0.44565 0.5723 0.3886 0.034 0.113 0.7148
3308.197 0.8735 0.5571 0.5747 0.6881 0.7237 0.7821 0.8745 0.6058 0.7269 1.0241
3327.487 1.1317 1.2501 0.8693 0.7417 0.6323 0.7688 0.9768 0.9214 0.8957 1.1418
3346.777 1.2666 1.165 1.3518 1.2815 1.1634 1.2806 1.3112 1.3723 1.815 2.335
3366.066 2.055 1.975 2.685 3.095 3.185 3.345 4.045 5.015 6.005 7.475
3385.356 8.925 10.285 12.555 15.575 19.175 23.365 27.985 33.035 38.015 42.795
3404.646 47.465 50.665 52.005 51.665 49.415 45.375 39.885 34.125 28.515 22.865
3423.936 18.055 14.155 10.625 8.065 6.625 5.775 5.195 4.635 3.895 3.385
3443.225 2.905 2.795 2.765 2.435 2.365 2.325 2.265 2.615 2.935 3.025
3462.515 3.275 2.995 2.425 2.785 3.165 3.195 3.505 4.015 4.705 4.885
3481.805 5.105 5.665 6.115 6.835 7.635 8.325 9.085 10.015 11.225 12.485
3501.095 13.625 14.975 16.575 18.145 19.765 21.365 23.365 25.615 27.715 29.585
3520.385 31.125 32.595 33.465 33.535 32.875 32.015 30.465 27.865 25.205 22.695
3539.674 20.075 17.635 15.235 12.885 11.085 9.285 7.455 6.105 4.945 4.055
3558.964 3.765 3.585 3.095 2.475 1.935 2.025 2.235 1.865 1.565 1.745
3578.254 1.765 1.685 1.835 1.495 1.2027 1.085 0.7518 0.9012 1.555 1.625
3597.544 1.685 1.3052 0.9015 0.9973 1.4009 1.2342 0.6247 0.6077 0.7331 1.2682
3616.833 1.625 1.2718 0.9608 1.1304 1.0882 0.8501 0.7871 0.7378 0.608 0.46297
3636.123 0.6527 0.9504 0.886 0.5988 0.262 0.5623 0.7539 0.5403 0.3531 0.42596
3655.413 0.439645 0.438958 0.3838 0.015 0.12 0.5169 0.6693 0.6188 0.253 0.276
3674.703 0.3963 0.6187 0.8987 0.51239 0.3614 0.122 0 0.088 0.3925 0.9739
3693.993 0.8948 0.7954 1.048 0.87 0.52845 0.311 0.5785 1.0247 0.6612 0.204
3713.282 0.591 0.8262 0.7695 0.8645 0.8215 0.51251 0.158 0.249 0.45058 0.6798
3732.572 0.9521 0.956 0.7403 0.43317 0.8546 1.26 0.7604 0.752 0.9787 0.8639
3751.862 0.8489 0.8204 1.0602 1.3527 1.2174 0.7743 0.7044 1.495 1.2944 0.50038
3771.152 0.5546 0.6977 0.81 0.9141 0.8512 0.8519 0.733 0.3925 0.6856 1.1264
3790.441 0.9068 0.8908 0.6301 0.207 0.6039 0.9012 0.6946 0.46305 0.43048 0.7247
3809.731 0.6305 0.6965 1.0737 0.8219 0.6124 0.8184 0.6727 0.247 0.16 0.3994
3829.021 0.421 0.181 0.26 0.28 0.4108 0.7439 1.1284 1.2859 0.6475 0.5991
3848.311 1.0274 0.8746 0.6525 0.7476 0.8579 0.9493 0.8707 0.9241 1.0957 0.7604
3867.601 0.5776 0.47519 0.5308 0.631 0.5847 0.6742 0.6607 0.45429 0.5894 0.3922
3886.890 0.17 0.5552 0.6563 0.892 1.0881 0.827 0.736 0.8445 0.577 0.277
3906.180 0.302 0.43285 0.48629 0.5836 0.5829 0.47757 0.6248 0.5615 0.4159 0.282
3925.470 0.187 0.237 0.116 0.3584 0.6081 0.7388 0.7702 0.9113 0.8754 0.7676
3944.760 0.8798 0.7328 0.8415 0.952 1.1975 0.9643 0.8786 0.9022 0.5425 0.44776
3964.049 0.50669 0.7403 0.5939 0.6571 0.47019 0.339 0.46471 0.7525 1.054 0.8783
3983.339 0.79 0.7472 0.8089 0.6519 0.7997 0.8083 0.166 0.041 0.46586 0.8306
##END=
