##TITLE=Ethyl R-(E)-4,5,O--isopropylidene-4,5-dihydroxypent-2-enoate
##JCAMP-DX=4.24
##DATA TYPE=INFRARED SPECTRUM
##ORIGIN=EPA-IR VAPOR PHASE LIBRARY
##OWNER=SRD/NIST
Collection (C) 2018 copyright by the U.S. Secretary of Commerce
on behalf of the United States of America. All rights reserved.
##CAS REGISTRY NO=104321-62-2
##MOLFORM=C 10 H 16 O 4
##$NIST SOURCE=MSDC-IR
##STATE=gas
##XUNITS=1/CM
##YUNITS=ABSORBANCE
##XFACTOR=1.
##YFACTOR=0.001
##DELTAX=1.92898
##FIRSTX=549.8
##LASTX=4000.7
##FIRSTY=3.969
##MAXX=4000.7
##MINX=549.759
##MAXY=0.226809
##MINY=0
##NPOINTS=1790
##XYDATA=(X++(Y..Y))
549.759 3.969 4.049 4.069 4.699 4.559 4.799 5.129 5.339 5.039 4.219
569.049 3.709 3.499 3.319 3.219 3.339 3.199 2.639 2.779 2.549 3.099
588.339 3.519 2.659 2.419 2.429 2.289 2.379 2.659 2.709 2.969 2.619
607.628 2.739 3.649 3.629 3.649 3.639 3.149 3.329 3.529 3.409 3.439
626.918 3.149 2.999 3.479 3.769 3.759 3.779 4.579 5.589 5.559 5.649
646.208 5.969 5.669 5.559 5.159 4.609 4.159 4.159 3.699 3.059 3.109
665.498 2.889 2.599 2.279 2.239 2.259 2.159 2.519 2.919 2.429 2.499
684.787 2.979 3.189 3.049 3.189 3.819 3.709 3.449 4.249 4.919 5.039
704.077 5.169 5.099 5.689 6.239 6.419 6.569 6.529 6.449 6.569 6.579
723.367 6.459 6.369 5.979 5.699 5.829 5.459 5.339 5.279 4.769 4.449
742.657 4.649 4.609 3.999 4.059 4.189 4.179 4.289 4.619 4.429 3.909
761.947 3.769 4.019 4.089 4.279 5.009 5.229 5.549 6.299 6.469 6.349
781.236 6.839 7.479 8.189 9.059 9.849 9.989 9.629 9.589 9.569 9.049
800.526 8.359 8.249 8.479 8.469 8.349 8.159 8.649 9.519 9.849 9.629
819.816 9.949 11.249 12.849 14.019 14.899 16.169 17.959 20.489 23.449 26.879
839.106 30.569 33.929 37.159 40.669 43.409 44.639 44.759 44.119 42.859 41.549
858.395 39.189 36.319 34.229 32.489 31.179 29.809 28.559 27.319 25.659 23.839
877.685 22.149 20.609 18.979 18.079 17.249 16.569 16.619 16.059 15.729 15.919
896.975 16.099 15.939 16.059 16.759 16.779 16.459 16.029 15.649 15.469 15.369
916.265 15.159 15.039 14.449 13.969 13.819 14.009 14.039 13.659 13.899 14.099
935.555 14.279 14.569 15.019 15.489 15.789 16.089 16.759 17.399 18.429 19.799
954.844 21.069 22.909 24.939 27.639 30.159 32.099 34.809 37.169 39.559 40.849
974.134 41.129 40.879 39.119 36.999 34.489 31.869 29.319 26.629 24.749 23.289
993.424 21.779 21.339 21.699 22.049 22.439 23.219 23.959 25.089 26.339 27.439
1012.714 29.379 32.339 35.789 39.209 43.669 49.409 55.469 61.829 69.109 77.219
1032.003 84.659 91.699 98.049 102.309 104.529 106.059 105.799 103.019 102.079 102.029
1051.293 102.219 104.209 108.869 115.199 122.409 131.509 139.549 147.259 152.629 152.949
1070.583 149.489 141.609 129.329 114.989 101.129 89.369 78.919 70.789 64.679 59.159
1089.873 55.379 52.999 51.219 50.669 49.109 46.299 44.689 44.729 43.939 42.719
1109.163 42.409 42.469 41.529 42.069 44.799 45.759 45.979 46.359 48.179 50.289
1128.452 51.589 52.409 53.399 54.389 56.089 57.789 60.879 65.689 70.119 76.639
1147.742 86.059 96.139 106.429 119.079 132.619 146.319 159.499 171.339 183.899 193.709
1167.032 199.329 201.329 197.859 189.289 175.639 158.999 142.239 125.939 112.229 100.889
1186.322 91.809 84.479 79.639 77.209 75.879 76.459 77.679 80.309 84.099 88.329
1205.611 93.369 99.839 105.189 109.819 114.309 118.519 122.539 125.959 130.229 133.459
1224.901 137.219 141.479 143.219 146.919 153.359 156.499 158.069 161.919 166.459 169.899
1244.191 173.859 180.499 188.139 195.909 206.019 216.659 223.589 226.809 225.659 219.429
1263.481 209.659 194.949 176.819 158.679 140.519 123.939 109.769 97.859 88.549 81.079
1282.771 75.519 72.349 71.009 71.529 73.999 78.269 84.249 90.869 96.669 100.499
1302.060 101.079 98.059 91.659 82.519 72.679 63.359 55.409 49.319 44.639 41.259
1321.350 38.889 37.269 36.089 35.159 34.699 34.319 33.529 32.339 30.979 29.559
1340.640 27.939 26.639 25.719 25.009 24.769 25.069 25.759 26.979 28.859 31.459
1359.930 35.019 39.999 46.709 54.929 63.699 71.969 78.629 82.689 84.009 83.169
1379.219 80.539 75.479 68.259 60.709 53.339 45.499 37.909 32.039 27.979 24.979
1398.509 22.489 20.479 18.929 17.549 16.369 15.279 14.379 13.599 12.939 12.499
1417.799 12.119 11.699 11.429 11.359 11.159 10.939 10.799 10.779 10.989 11.189
1437.089 11.359 11.499 11.859 12.479 13.089 13.669 14.319 15.049 15.719 16.149
1456.378 16.629 17.099 17.369 17.769 17.769 17.589 17.549 17.249 16.739 15.959
1475.668 15.249 14.499 13.489 12.469 11.359 10.599 9.769 8.719 8.149 7.609
1494.958 6.889 6.499 6.299 5.969 5.589 5.299 5.099 4.889 4.679 4.509
1514.248 4.579 4.539 4.409 4.389 4.319 4.039 3.889 3.949 4.019 4.119
1533.538 3.959 3.809 3.619 3.519 3.679 3.639 3.459 3.599 3.769 3.789
1552.827 3.759 3.819 3.939 3.759 3.789 3.719 3.839 4.039 4.009 3.929
1572.117 3.839 3.639 3.509 3.969 4.199 3.919 3.829 3.789 3.679 3.669
1591.407 3.779 3.919 3.869 3.899 3.829 3.579 3.669 3.979 4.079 4.189
1610.697 4.329 4.289 4.279 4.389 4.429 4.409 4.699 5.129 5.579 6.009
1629.986 6.289 6.749 7.469 8.159 9.119 10.069 11.199 12.669 14.189 16.149
1649.276 18.459 20.629 23.339 26.299 28.529 30.189 30.889 30.609 29.519 27.349
1668.566 24.419 21.479 18.919 16.799 14.979 13.899 13.189 12.529 12.219 12.289
1687.856 12.439 12.539 12.969 13.389 14.019 15.009 15.729 16.829 18.099 19.259
1707.146 20.459 22.069 23.949 26.349 29.489 33.149 38.099 44.119 51.819 61.659
1726.435 73.659 88.359 106.129 125.989 149.509 172.909 191.659 204.689 209.259 205.099
1745.725 191.709 169.879 143.939 119.149 98.339 81.439 67.009 55.489 46.249 38.929
1765.015 33.199 28.709 25.029 21.959 19.189 16.839 15.059 13.609 12.209 10.999
1784.305 10.079 9.279 8.669 8.179 7.669 7.259 6.929 6.529 6.119 5.779
1803.594 5.639 5.589 5.479 5.329 5.249 5.259 5.059 4.869 4.929 4.839
1822.884 4.719 4.709 4.529 4.339 4.329 4.369 4.269 4.129 4.049 3.909
1842.174 3.849 3.909 3.849 3.929 3.859 3.639 3.629 3.639 3.669 3.629
1861.464 3.489 3.439 3.309 3.119 3.299 3.439 3.509 3.599 3.549 3.399
1880.754 3.409 3.469 3.519 3.559 3.559 3.549 3.509 3.589 3.749 3.829
1900.043 3.779 3.669 3.529 3.519 3.489 3.289 3.229 3.159 2.969 2.799
1919.333 2.669 2.669 2.709 2.679 2.479 2.419 2.639 2.619 2.519 2.419
1938.623 2.319 2.279 2.269 2.339 2.399 2.359 2.309 2.279 2.219 2.279
1957.913 2.219 2.129 2.059 2.099 2.269 2.259 2.299 2.379 2.449 2.389
1977.202 2.219 2.329 2.329 2.309 2.299 2.419 2.409 2.399 2.659 2.649
1996.492 2.629 2.519 2.529 2.589 2.679 2.939 2.879 2.659 2.669 2.809
2015.782 2.809 2.889 2.899 2.899 2.979 2.939 2.849 2.839 2.909 2.809
2035.072 2.609 2.669 2.769 2.549 2.559 2.619 2.409 2.409 2.419 2.389
2054.362 2.359 2.319 2.399 2.339 2.179 2.049 2.109 2.219 2.169 2.099
2073.651 2.019 2.189 2.229 1.999 2.169 2.379 2.429 2.459 2.439 2.459
2092.941 2.419 2.409 2.569 2.679 2.629 2.729 2.899 2.729 2.619 2.869
2112.231 2.839 2.659 2.539 2.629 2.829 2.769 2.759 2.669 2.529 2.689
2131.521 2.829 2.749 2.619 2.449 2.299 2.299 2.129 2.039 2.249 2.149
2150.810 1.929 1.929 2.059 2.119 1.989 2.039 2.079 2.019 2.159 1.999
2170.100 1.879 2.119 2.259 2.059 1.869 1.969 1.849 1.739 1.759 1.909
2189.390 1.989 1.769 1.739 2.029 1.999 1.879 2.139 2.249 2.089 1.979
2208.680 1.769 1.669 1.729 1.759 1.809 1.889 2.029 1.999 1.809 1.809
2227.970 1.929 1.959 1.939 1.999 1.899 1.609 1.679 1.899 1.789 1.739
2247.259 1.809 1.899 1.989 1.779 1.589 1.599 1.579 1.479 1.419 1.569
2266.549 1.699 1.779 1.769 1.599 1.729 1.679 1.629 1.859 1.759 1.729
2285.839 1.809 1.819 1.819 1.859 1.669 1.579 1.829 1.899 1.849 1.759
2305.129 1.769 1.669 1.439 1.579 1.779 1.639 1.809 1.889 1.659 1.569
2324.418 1.699 1.859 1.759 1.599 1.639 1.809 1.599 1.539 1.729 1.619
2343.708 1.429 1.519 1.859 1.749 1.659 1.819 1.709 1.559 1.449 1.469
2362.998 1.559 1.499 1.3848 1.559 1.429 1.1568 1.344 1.4141 1.2632 1.2418
2382.288 1.379 1.519 1.459 1.2749 1.439 1.539 1.3801 1.479 1.3965 1.3342
2401.578 1.3953 1.1876 1.1531 1.3522 1.3438 1.3983 1.519 1.699 1.649 1.3066
2420.867 1.2819 1.311 1.3677 1.479 1.499 1.419 1.1272 1.1564 1.3989 1.3594
2440.157 1.1823 1.0561 1.1278 1.2554 1.429 1.509 1.569 1.3755 1.2567 1.449
2459.447 1.3856 1.439 1.4136 1.439 1.569 1.479 1.3512 1.265 1.449 1.469
2478.737 1.2672 1.3556 1.579 1.2643 1.1238 1.449 1.375 1.3265 1.4068 1.559
2498.026 1.609 1.4123 1.3757 1.3285 1.2662 1.1453 1.0566 1.1939 1.3329 1.1965
2517.316 1.2234 1.3409 1.116 1.2143 1.509 1.4103 1.2852 1.1621 1.2252 1.3103
2536.606 1.068 1.2314 1.3374 1.1357 1.1533 1.449 1.719 1.579 1.419 1.489
2555.896 1.4095 1.1975 1.3014 1.419 1.3753 1.489 1.519 1.629 1.659 1.599
2575.186 1.439 1.519 1.789 1.509 1.469 1.669 1.649 1.539 1.569 1.709
2594.475 1.939 1.819 1.709 1.739 1.609 1.699 1.949 1.999 2.009 1.799
2613.765 1.629 1.779 2.019 2.159 1.949 1.799 1.669 1.809 2.009 1.779
2633.055 1.869 1.549 1.1552 1.619 1.939 1.829 1.869 1.749 1.849 2.029
2652.345 1.659 1.629 1.739 1.659 1.669 2.089 2.109 1.739 1.779 2.159
2671.634 2.109 1.859 1.869 1.889 1.839 1.739 1.779 1.699 1.479 1.739
2690.924 2.009 2.099 2.159 1.779 1.579 1.729 2.029 2.009 1.859 1.839
2710.214 1.449 1.569 2.049 1.949 2.089 2.249 1.939 1.859 2.149 2.069
2729.504 1.909 1.959 2.039 2.119 2.139 2.139 2.159 2.459 2.619 2.459
2748.794 2.359 2.289 2.139 2.369 2.469 2.399 2.539 2.569 2.349 2.189
2768.083 2.139 2.159 2.629 3.029 2.799 2.489 2.689 2.929 2.829 2.829
2787.373 2.939 3.049 3.089 2.939 2.889 3.249 3.759 3.969 3.759 3.889
2806.663 4.189 4.099 4.339 4.629 4.359 4.349 4.389 4.659 5.069 5.429
2825.953 5.499 5.249 5.529 6.069 6.709 6.459 6.509 7.139 7.559 7.919
2845.242 8.259 9.039 9.779 10.669 11.809 12.929 14.329 16.109 18.329 20.199
2864.532 22.029 24.709 27.469 30.399 33.579 36.449 38.769 40.599 42.329 43.439
2883.822 43.759 43.379 42.569 41.209 39.589 38.019 35.979 34.369 33.369 32.369
2903.112 31.749 31.459 30.869 30.349 30.029 29.749 29.679 29.479 29.219 29.029
2922.401 29.039 29.259 29.669 30.789 32.379 34.319 36.999 40.239 43.609 47.089
2941.691 50.449 52.909 53.479 52.669 50.759 47.849 45.249 42.549 40.359 39.339
2960.981 38.679 38.569 38.819 39.699 41.029 42.749 45.299 49.019 53.739 59.409
2980.271 65.829 72.689 79.499 85.559 91.119 96.139 100.319 102.299 101.159 96.879
2999.561 89.379 79.019 67.039 55.459 45.419 37.559 31.899 27.269 23.349 20.759
3018.850 18.509 16.899 15.249 13.659 12.719 11.509 10.809 10.299 9.519 8.949
3038.140 8.769 8.169 7.879 7.389 6.759 6.729 6.209 5.579 5.689 5.739
3057.430 5.749 5.589 5.289 5.079 4.949 4.829 4.619 4.439 3.919 3.729
3076.720 3.919 3.759 3.679 3.319 3.249 3.819 3.349 2.929 3.159 3.269
3096.009 3.119 2.959 2.829 2.759 2.529 2.219 2.129 2.439 3.079 2.889
3115.299 2.329 2.549 2.799 2.929 2.949 2.599 2.389 2.409 2.249 2.079
3134.589 2.589 2.839 2.359 2.419 2.559 2.369 2.099 1.779 1.849 2.019
3153.879 1.709 1.879 1.919 1.889 2.139 2.019 2.279 2.409 2.259 1.939
3173.169 1.979 2.379 2.559 2.579 2.149 1.959 2.319 2.539 2.529 2.159
3192.458 1.889 1.929 1.939 2.179 2.049 1.589 1.529 1.529 1.539 1.579
3211.748 1.979 1.869 1.659 1.899 1.879 1.779 1.2805 1.1848 1.373 1.2807
3231.038 1.1464 1.2862 0.9251 0.8191 1.3434 1.2658 1.189 1.2352 1.38 1.3056
3250.328 0.8112 0.6508 0.6175 0.7032 1.1279 1.2916 0.9631 0.9581 1.3499 0.9816
3269.617 0.8301 0.9687 1.1211 1.1556 1.1112 1.1912 0.9745 1.0139 1.3594 1.2317
3288.907 0.8629 1.024 0.9633 0.9018 1.2272 1.3876 1.4081 1.012 0.8919 0.7525
3308.197 0.5406 0.6832 0.6617 1.1669 1.3672 1.1706 0.9072 0.8271 0.9172 0.8623
3327.487 1.2547 1.3951 0.9911 1.1165 1.202 1.509 1.869 1.479 1.2392 1.3327
3346.777 1.3044 1.3464 1.2545 1.033 1.1202 1.0981 1.2396 1.1218 1.007 1.0941
3366.066 1.2726 1.1895 0.8127 1.0185 1.3474 1.2539 1.419 1.3313 1.1048 1.2852
3385.356 1.3635 1.439 1.108 0.7123 0.6493 0.9858 1.1557 0.8786 0.9849 1.0567
3404.646 0.874 0.8504 0.9892 1.2455 0.9822 1.0342 1.3858 1.2109 1.1076 1.3004
3423.936 1.361 0.9512 0.7596 1.158 1.1194 0.801 0.6913 0.7977 1.0345 1.469
3443.225 1.949 2.169 2.479 2.569 2.249 2.129 2.129 2.459 3.049 2.909
3462.515 2.529 2.489 2.929 2.929 2.489 2.419 2.599 2.809 2.649 2.089
3481.805 1.819 1.959 1.749 1.499 1.729 1.839 1.699 1.639 1.0405 1.1825
3501.095 1.899 1.629 1.2199 1.0053 1.2402 1.599 1.3371 1.098 1.0396 0.7075
3520.385 0.6218 0.9966 1.529 1.499 1.1366 1.18 1.146 0.8635 0.48291 0.6239
3539.674 0.5466 0.7554 1.0099 0.6892 0.6204 0.289 0.42928 0.6354 0.067 0.301
3558.964 0.8845 0.5605 0.44963 0.5933 0.3296 0.277 0.6526 0.7403 0.5723 0.274
3578.254 0.41327 0.7902 0.6656 0.3563 0.5194 0.8658 0.371 0.159 0.5582 0.51894
3597.544 0.3699 0.5903 0.8822 0.801 0.46586 0.3908 0.3524 0.532 0.8622 0.7453
3616.833 0.5377 0.7574 0.8149 0.5653 0.6973 0.9231 1.2356 1.137 0.5474 0.4036
3636.123 0.9611 0.9254 0.312 0.50226 0.7957 0.613 0.6236 0.8166 0.893 0.8217
3655.413 0.3878 0 0.496 1.03 0.944 0.8193 1.0216 1.236 1.0759 0.9003
3674.703 0.809 0.48373 0.7332 1.0399 1.1563 0.881 0.3699 0.3223 0.438 0.7658
3693.993 0.8914 0.6088 0.707 1.3416 0.8878 0.6029 1.0026 1.4167 1.559 1.0235
3713.282 0.6426 0.50305 0.6228 0.607 0.6839 0.9483 1.1984 1.0435 0.8334 0.8693
3732.572 0.6881 0.6753 1.109 1.3448 0.8452 0.298 0.421558 0.8189 0.8809 0.8716
3751.862 0.6066 0.4944 0.49805 0.797 1.2732 0.937 0.9966 1.0999 0.419763 0.306
3771.152 0.43674 0.7197 1.159 1.3145 1.499 1.0567 0.9716 0.971 0.8639 0.9944
3790.441 0.9904 1.2962 1.0612 0.8387 1.0749 1.2383 1.2319 1.2232 0.9128 0.5336
3809.731 0.6961 0.6499 0.6276 0.596 0.266 0.285 0.44737 0.7544 1.0028 1.2164
3829.021 1.2472 1.2238 1.529 1.439 0.9931 0.7313 0.8276 1.1592 1.3296 1.1636
3848.311 0.6676 0.3713 0.5704 0.8695 1.1725 1.3078 1.3937 1.3057 1.0449 0.7043
3867.601 0.388 0.4005 0.6934 0.8656 1.1056 1.2479 0.794 0.9664 1.3204 1.0787
3886.890 1.0989 1.1817 0.50348 0.314 0.9587 1.2705 1.084 0.691 1.1153 1.429
3906.180 1.0495 0.7441 0.8449 0.9284 1.073 1.429 1.559 1.539 1.3197 1.1645
3925.470 1.1971 1.499 1.3367 1.459 1.579 1.1846 1.2015 0.9088 0.6055 0.6448
3944.760 0.7769 0.9265 1.1057 1.389 1.769 1.559 1.228 1.4173 1.2734 1.0447
3964.049 1.3869 1.559 1.1373 1.0661 0.9741 1.2744 1.2463 0.8051 1.2559 1.3248
3983.339 1.1586 1.2521 1.0904 1.3773 1.439 0.9051 0.8575 0.9239 1.1334 1.449
##END=
