##TITLE=2-Amino-5-trifluoromethyl-1,3,4-thiadiazole
##JCAMP-DX=4.24
##DATA TYPE=INFRARED SPECTRUM
##ORIGIN=EPA-IR VAPOR PHASE LIBRARY
##OWNER=SRD/NIST
Collection (C) 2018 copyright by the U.S. Secretary of Commerce
on behalf of the United States of America. All rights reserved.
##CAS REGISTRY NO=10444-89-0
##MOLFORM=C 3 H 2 F 3 N 3 S
##$NIST SOURCE=MSDC-IR
##STATE=gas
##XUNITS=1/CM
##YUNITS=ABSORBANCE
##XFACTOR=1.
##YFACTOR=0.001
##DELTAX=1.92898
##FIRSTX=549.8
##LASTX=4000.7
##FIRSTY=1.915
##MAXX=4000.7
##MINX=549.759
##MAXY=0.032995
##MINY=0
##NPOINTS=1790
##XYDATA=(X++(Y..Y))
549.759 1.915 1.3188 0.8494 1.5251 1.5413 0.9751 0.64926 0.70248 1.566 2.195
569.049 2.115 1.745 1.3387 1.2895 1.233 1.2511 1.4678 1.2143 1.1417 1.3709
588.339 1.4219 1.3785 1.895 1.685 1.655 2.245 2.295 1.975 1.865 2.715
607.628 2.855 2.685 2.835 2.635 2.665 2.805 3.365 3.415 2.795 3.125
626.918 3.445 3.285 2.975 2.645 2.335 2.245 2.415 2.305 2.485 2.725
646.208 2.575 2.355 2.465 2.485 2.135 2.155 2.285 2.025 2.325 2.825
665.498 2.935 2.835 3.015 2.835 2.645 2.635 2.215 2.115 1.905 1.905
684.787 1.675 1.3656 1.4777 1.4874 1.5743 1.735 2.075 2.005 1.685 1.935
704.077 2.055 1.685 1.4329 1.5526 2.025 2.545 2.365 1.614 1.0912 1.665
723.367 2.175 2.635 3.435 3.495 3.965 4.615 4.745 5.005 5.225 5.415
742.657 5.515 5.775 5.365 4.925 4.495 3.455 2.715 2.535 2.585 2.475
761.947 2.505 2.495 2.355 2.525 3.065 2.945 2.085 1.765 2.065 2.115
781.236 2.275 2.395 2.225 2.005 1.765 1.905 1.855 1.995 2.275 2.095
800.526 1.955 1.975 1.665 1.2791 1.499 1.5807 1.775 2.025 2.165 2.425
819.816 2.165 1.0219 0.8536 1.765 1.2871 1.2887 1.705 1.3389 1.361 1.4382
839.106 1.6036 1.625 1.5936 1.4563 1.5791 1.725 1.251 1.1986 1.3109 1.4213
858.395 1.725 1.635 1.2848 1.4 1.5138 1.4872 1.5508 1.5102 1.4584 1.1323
877.685 1.0006 1.4532 1.5297 0.9558 0.781 1.3056 1.6065 1.3086 1.1315 1.0156
896.975 0.7669 0.7557 1.1969 1.3993 0.9832 0.9972 1.2377 0.8781 0.9491 0.9914
916.265 0.8335 0.9208 0.7465 0.8181 0.9731 0.9533 1.2489 1.3123 1.2578 1.2385
935.555 1.0735 1.2392 1.1086 0.71408 0.8308 0.9034 0.9998 0.9717 0.9651 0.9198
954.844 0.7676 1.2285 1.5439 1.4457 1.27 1.4054 1.5369 1.4511 1.357 1.1536
974.134 1.0316 1.3873 1.5199 1.685 1.4764 0.9076 1.1233 1.715 2.035 1.785
993.424 1.685 2.335 2.405 2.495 2.965 3.185 3.765 3.985 4.735 6.465
1012.714 8.155 9.615 11.115 13.285 16.475 20.005 22.785 24.695 26.715 28.195
1032.003 28.535 28.715 28.105 25.285 22.125 18.605 15.435 13.495 11.375 10.345
1051.293 9.815 8.945 8.475 8.125 7.805 7.575 6.425 5.495 5.395 5.475
1070.583 5.355 4.435 4.225 4.275 4.005 3.505 3.145 3.755 4.255 2.945
1089.873 1.845 2.745 3.315 3.305 3.485 3.275 3.125 3.285 4.045 4.795
1109.163 3.665 2.605 3.035 3.745 4.215 4.235 4.115 4.625 5.375 5.155
1128.452 4.875 5.615 6.105 6.755 7.085 6.995 7.365 8.135 9.795 11.025
1147.742 11.775 13.275 15.725 17.905 19.625 20.785 21.705 24.045 26.335 27.995
1167.032 29.905 30.935 30.525 29.855 29.375 29.385 29.155 28.265 28.305 28.445
1186.322 28.475 28.785 28.915 27.655 25.575 24.095 22.005 20.315 19.975 19.555
1205.611 17.445 14.555 11.645 8.795 8.475 8.275 7.225 5.925 4.345 4.025
1224.901 2.865 2.025 2.565 2.465 1.905 2.005 1.2317 0.331 0.263 0.307
1244.191 0.5571 1.2142 1.2858 0.7647 1.1508 1.5308 1.925 2.145 1.945 1.5178
1263.481 1.0442 1.2117 1.3415 1.815 2.125 3.025 3.525 3.715 4.655 4.865
1282.771 4.765 5.105 5.455 5.415 5.775 6.415 6.855 7.205 7.505 8.125
1302.060 9.005 9.995 11.655 13.775 15.815 18.015 20.295 22.365 24.115 25.175
1321.350 25.625 25.555 24.895 23.635 21.875 19.835 17.665 15.635 14.285 13.615
1340.640 13.245 12.975 12.535 11.975 11.465 10.745 9.745 8.675 7.445 6.365
1359.930 5.305 4.295 3.765 3.175 2.675 2.535 2.305 2.025 1.795 1.5531
1379.219 1.4326 1.3559 1.3803 1.2926 1.1534 1.102 1.0505 1.0239 1.0392 0.9747
1398.509 1.016 1.0528 1.013 1.1989 1.0525 0.9745 1.1012 1.0315 1.011 1.0194
1417.799 1.1031 1.2411 1.3198 1.2271 1.168 1.2627 1.4651 1.715 1.755 1.795
1437.089 1.975 2.125 2.235 2.505 2.825 2.995 3.235 3.715 4.135 4.615
1456.378 5.515 6.305 7.155 8.225 9.835 11.905 14.175 16.975 20.375 23.965
1475.668 27.345 30.465 32.385 32.995 32.865 32.075 30.235 27.415 23.605 19.385
1494.958 14.875 10.565 7.455 5.525 4.445 3.695 3.295 2.955 2.615 2.425
1514.248 2.175 2.095 2.035 1.865 1.775 1.4976 1.296 1.3401 1.4627 1.6005
1533.538 1.6017 1.3848 1.39 1.5967 1.4767 1.2846 1.3056 1.4146 1.4453 1.3814
1552.827 1.2832 1.0762 1.0809 1.4254 1.3644 1.1684 1.211 1.3728 1.625 1.825
1572.117 1.955 1.865 2.025 2.205 2.195 2.555 2.945 3.465 4.145 4.975
1591.407 6.145 7.425 8.965 10.325 11.385 12.265 12.855 12.995 12.675 12.565
1610.697 11.915 10.515 9.165 7.685 6.295 5.315 4.505 3.785 3.335 2.985
1629.986 2.585 2.235 2.105 2.005 1.855 1.965 1.885 1.755 1.755 1.4898
1649.276 1.4023 1.5205 1.4878 1.3949 1.2241 1.1309 0.9821 1.0366 1.0024 0.8087
1668.566 0.8242 0.8692 0.8154 0.7689 0.70911 0.619883 0.7954 0.9027 0.8457 0.68738
1687.856 0.733 0.7451 0.70881 0.8964 0.9435 0.66558 0.5897 0.717 0.7193 0.7178
1707.146 0.6087 0.5219 0.69717 0.7654 0.7466 0.8905 0.8427 0.7505 0.71298 0.68774
1726.435 0.66484 0.7401 0.7864 0.70957 0.5405 0.478 0.5634 0.5319 0.442 0.429
1745.725 0.468 0.488 0.49 0.509 0.553 0.63401 0.69768 0.70431 0.70186 0.5
1765.015 0.403 0.5652 0.7179 0.6346 0.60617 0.64797 0.5616 0.665 0.748 0.763
1784.305 0.8466 0.8809 0.69253 0.65347 0.68659 0.5642 0.620308 0.65079 0.617504 0.6259
1803.594 0.581 0.467 0.5679 0.60913 0.5263 0.65149 0.68624 0.5801 0.6466 0.66066
1822.884 0.66368 0.722 0.65137 0.64306 0.64378 0.60803 0.5369 0.5943 0.7287 0.7168
1842.174 0.65725 0.68392 0.60654 0.438 0.513 0.65552 0.5183 0.5638 0.70784 0.622392
1861.464 0.6024 0.5927 0.66482 0.68384 0.5855 0.505 0.461 0.63536 0.8464 0.7732
1880.754 0.7353 0.7934 0.6618 0.63536 0.70812 0.7111 0.66037 0.66112 0.614478 0.5823
1900.043 0.7438 0.771 0.7813 0.7951 0.7236 0.7939 0.8366 0.8597 0.9184 0.7996
1919.333 0.7272 0.69874 0.7222 0.8235 0.64829 0.69242 0.8056 0.7425 0.70779 0.5975
1938.623 0.5928 0.66101 0.65974 0.5971 0.60761 0.5845 0.66745 0.783 0.8195 0.7383
1957.913 0.7839 0.8154 0.67628 0.62912 0.65964 0.7262 0.63211 0.63094 0.71023 0.617562
1977.202 0.63613 0.8148 0.8394 0.8182 0.65756 0.5257 0.5666 0.621128 0.7353 0.68939
1996.492 0.622982 0.66315 0.7466 0.67311 0.5908 0.68839 0.67294 0.6106 0.594 0.64848
2015.782 0.8149 0.8408 0.69768 0.7167 0.6985 0.68007 0.7919 0.69446 0.7666 0.829
2035.072 0.68915 0.72 0.747 0.6917 0.70843 0.7486 0.66679 0.8118 0.9114 0.8005
2054.362 0.7668 0.751 0.7262 0.7733 0.7693 0.8071 0.8257 0.69988 0.6355 0.5484
2073.651 0.65452 0.8058 0.7938 0.616345 0.5656 0.746 0.7661 0.62838 0.620272 0.65777
2092.941 0.7513 0.7962 0.639 0.7497 0.8637 0.7441 0.616541 0.5857 0.68429 0.67004
2112.231 0.65128 0.70936 0.70663 0.7558 0.7842 0.63514 0.65387 0.8214 0.9094 0.9297
2131.521 0.8645 0.7995 0.65132 0.5632 0.614421 0.8037 0.8905 0.70869 0.60861 0.60592
2150.810 0.8195 1.0029 0.7914 0.64478 0.6699 0.70748 0.7456 0.63181 0.5782 0.5648
2170.100 0.5407 0.63863 0.7239 0.68132 0.67899 0.68822 0.7265 0.8447 0.772 0.8574
2189.390 0.9859 0.8269 0.71256 0.7655 0.7327 0.7866 0.7537 0.68011 0.7865 0.811
2208.680 0.877 0.9409 0.8347 0.7423 0.961 0.9707 0.8418 0.8873 0.9338 0.8782
2227.970 0.66797 0.62981 0.7785 0.8568 0.7692 0.5959 0.61391 0.8707 0.9218 0.6891
2247.259 0.5781 0.64618 0.7282 0.8324 0.9216 0.8115 0.7358 0.7786 0.7631 0.7506
2266.549 0.7722 0.7846 0.7903 0.8082 0.8921 0.8735 0.6689 0.65008 0.7484 0.7718
2285.839 0.7629 0.70249 0.7174 0.817 0.7826 0.67107 0.69986 0.8747 0.9794 0.8116
2305.129 0.801 0.8636 0.8562 0.7298 0.5821 0.66851 0.8137 0.9248 0.8112 0.8531
2324.418 1.051 0.9814 0.8939 0.7792 0.7377 0.8456 0.8949 0.9925 1.0227 0.7923
2343.708 0.69363 0.7915 0.67264 0.6758 0.7756 0.741 0.64434 0.8139 1.1105 0.927
2362.998 0.7539 0.7916 0.64673 0.5945 0.70387 0.65687 0.67048 0.7602 0.69321 0.7458
2382.288 0.7203 0.5507 0.572 0.5836 0.63308 0.7241 0.7736 0.9099 0.8686 0.9722
2401.578 0.876 0.621301 0.7594 0.8129 0.64525 0.65041 0.66286 0.511 0.495 0.65014
2420.867 0.68909 0.8005 0.875 0.7655 0.9004 0.8849 0.66992 0.509 0.499 0.7284
2440.157 0.8059 0.7374 0.7228 0.5403 0.49 0.446 0.3 0.6001 0.70203 0.5182
2459.447 0.62744 0.60635 0.618669 0.65957 0.5339 0.424 0.5206 0.7595 0.771 0.5953
2478.737 0.503 0.474 0.5954 0.60855 0.468 0.66022 0.7747 0.69852 0.8421 0.68676
2498.026 0.44 0.5213 0.67631 0.64935 0.8365 1.0526 0.8862 0.8085 0.7737 0.68103
2517.316 0.8193 1.0062 0.8266 0.8777 0.7884 0.63329 0.7262 0.8573 0.8372 0.64273
2536.606 0.8497 1.0191 0.9415 0.8022 0.6897 0.7681 0.7152 0.67222 0.8166 0.5781
2555.896 0.620687 0.8955 0.7669 0.69208 0.7716 0.8234 0.67278 0.69971 0.65749 0.67248
2575.186 0.8404 0.7676 0.5223 0.5643 0.7943 0.7219 0.7394 0.8222 0.8923 0.9389
2594.475 0.9906 0.9932 0.889 0.8834 0.903 1.1004 1.2163 1.3462 1.3527 1.2556
2613.765 1.1795 0.8324 0.8115 1.0084 1.0781 0.9804 0.8024 0.7861 0.9436 0.8316
2633.055 0.6061 0.79 0.7807 0.5576 0.5631 0.8462 0.9259 0.71278 0.66202 0.70248
2652.345 0.624519 0.70893 0.8697 0.9461 0.9583 0.83 0.8534 0.898 0.7438 0.487
2671.634 0.5967 0.7448 0.8255 0.9354 0.7645 0.66909 0.8235 0.8415 0.70991 0.9451
2690.924 1.203 0.9707 0.812 0.5619 0.308 0.508 0.624145 0.65429 0.823 0.979
2710.214 0.948 0.844 0.69108 0.5472 0.517 0.61363 0.7324 0.64999 0.63738 0.736
2729.504 0.67324 0.65327 0.67725 0.5865 0.6851 0.7955 0.7648 0.795 0.7688 0.8979
2748.794 0.9602 0.7428 0.6585 0.8332 1.0436 0.8971 0.62714 0.5444 0.8189 1.0807
2768.083 0.9872 0.8119 0.7386 0.8631 0.9565 0.8948 0.948 0.8974 0.9273 0.993
2787.373 0.7517 0.60996 0.9253 1.2815 0.904 0.5721 0.752 0.7496 0.9143 1.0382
2806.663 0.8051 0.9441 0.8892 0.8386 1.0009 0.7579 0.69302 0.8377 0.9594 1.0143
2825.953 1.0273 1.0675 1.1869 1.1529 0.9872 1.0951 0.9754 0.7971 0.8839 0.7323
2845.242 0.614339 0.8702 0.8726 0.8714 0.7878 0.35 0.333 0.487 0.5202 0.7582
2864.532 0.70741 0.5695 0.9368 1.1836 0.9069 0.8472 0.9486 0.8979 0.841 0.9302
2883.822 0.9562 0.621168 0.5381 0.68639 0.867 0.8608 0.5773 0.399 0.482 0.66777
2903.112 0.743 0.64815 0.67996 0.69252 0.8961 0.8317 0.508 0.5822 0.67618 0.7234
2922.401 0.65601 0.7439 1.0437 0.9119 0.8094 0.8158 0.67098 1.0123 0.8865 0.378
2941.691 0.338 0.61064 0.68717 0.5271 0.777 1.0874 0.9635 0.7732 0.68626 0.739
2960.981 0.8063 0.618565 0.477 0.576 0.8744 0.9107 0.7375 0.775 0.69771 0.502
2980.271 0.416 0.353 0.359 0.342 0.562 0.66093 0.6045 1.0413 0.7637 0.22
2999.561 0.324 0.461 0.8532 0.994 0.8182 0.69938 0.455 0.493 0.60986 0.64338
3018.850 0.7368 0.7536 0.70056 0.65276 0.44 0.504 0.9882 1.0711 0.8497 0.6975
3038.140 0.5598 0.5407 0.472 0.293 0.376 0.305 0.399 0.68959 0.514 0.77
3057.430 0.9841 0.66665 0.7364 0.8969 0.7625 0.65211 0.614123 0.64019 0.9117 0.9275
3076.720 0.8349 0.8033 0.8117 1.2024 1.3046 0.8857 0.8076 0.9175 0.7498 0.5284
3096.009 0.60896 0.619374 0.67557 1.1577 1.0921 0.8604 0.8492 0.7581 0.8484 0.9736
3115.299 0.8985 0.62926 0.821 0.787 0.435 0.71004 0.7523 0.69347 0.68667 0.7735
3134.589 0.9562 0.8231 0.61592 0.733 0.7437 0.386 0.31 0.63807 0.68509 0.5271
3153.879 0.616654 0.7547 0.8226 0.9665 0.933 0.68694 0.867 0.832 0.63506 0.8001
3173.169 1.0721 1.1021 0.8416 0.8746 0.7347 0.5353 0.5721 0.7691 1.1701 0.9383
3192.458 0.8937 0.8292 0.281 0.5354 1.1715 1.1749 0.7602 0.7355 0.639 0.478
3211.748 0.5728 0.6045 0.26 0.255 0.9111 0.86 0.624752 0.8129 0.9119 0.8816
3231.038 0.9472 1.3747 1.2755 1.0595 1.1355 0.8715 0.68115 0.5429 0.375 0.7228
3250.328 0.7196 0.9089 1.3247 0.935 0.9651 1.1963 1.1767 0.9997 0.8835 0.8409
3269.617 0.5402 0.456 0.5693 0.64598 0.8083 0.374 0.222 0.6031 0.9171 0.8035
3288.907 0.9561 1.3495 1.0767 1.086 0.813 0.5577 0.5807 0.617902 0.8541 0.7685
3308.197 0.6012 0.5855 0.7597 0.8069 0.69995 0.7664 0.9317 0.7746 0.5559 0.66254
3327.487 0.171 0.18 0.793 0.7173 0.456 0.429 0.7437 0.64538 0.5758 0.7848
3346.777 0.65808 0.599 1.0068 0.9505 0.768 0.9939 0.7646 0.7711 1.1245 1.0971
3366.066 0.824 0.69478 1.0528 1.0742 0.9179 1.176 1.1964 0.9881 1.0544 1.2543
3385.356 0.9331 1.1444 1.3937 1.665 2.395 3.005 3.235 3.255 3.675 4.145
3404.646 4.725 5.645 6.315 6.555 6.795 7.445 7.615 7.165 6.505 5.585
3423.936 4.935 4.365 3.905 3.455 3.145 3.085 2.665 2.155 2.065 1.805
3443.225 1.3608 1.1952 1.2223 1.0804 0.9842 0.9006 0.9473 0.917 0.8531 0.9527
3462.515 1.0284 1.171 1.2543 1.1639 0.8372 0.67355 0.8742 1.2894 1.3675 1.1509
3481.805 1.2872 1.1905 1.237 1.805 2.125 2.295 2.185 2.085 2.545 2.885
3501.095 3.025 3.265 3.455 3.295 3.195 3.435 3.355 3.375 3.615 3.585
3520.385 3.205 2.715 2.675 2.485 2.345 2.525 2.615 2.705 2.365 1.815
3539.674 1.6014 1.3254 1.4063 1.2614 1.1923 1.4426 1.0793 0.7824 0.9933 1.0126
3558.964 0.69413 0.6034 0.615181 0.7593 0.69589 0.386 0.494 1.0471 1.0035 0.499
3578.254 0.352 0.339 0.487 0.65618 0.474 0.352 0.383 0.226 0.62202 1.0865
3597.544 1.0866 0.9144 0.8612 1.0466 0.8722 0.306 0.5162 0.8839 0.5271 0.167
3616.833 0.247 0.302 0.331 0.8554 0.66008 0.391 0.8304 0.8136 0.622697 0.327
3636.123 0.43 0.5974 0.49 0.6667 0.465 0.136 0.209 0.28 0.254 0.6013
3655.413 0.594 0.449 0.7446 1.1152 1.1981 0.969 0.69924 0.70497 1.0671 1.0267
3674.703 0.63227 0.5932 0.7605 0.8707 0.92 0.9628 0.9041 0.8847 0.479 0.215
3693.993 0.5791 0.718 0.499 0.62847 0.62656 0.169 0.356 0.5985 0.9017 0.9004
3713.282 0.66449 1.0771 0.865 0.473 0.7921 1.1724 1.0242 0.6674 0.955 1.1111
3732.572 0.8665 0.63764 0.381 0.389 0.7719 1.1004 0.965 0.67473 0.5556 0.70749
3751.862 0.443 0.034 0 0.346 0.68113 0.388 0.763 1.3433 1.4099 1.229
3771.152 0.9196 0.64383 0.377 0.203 0.187 0.293 0.5675 0.9348 0.8318 0.474
3790.441 0.376 0.5512 0.7809 0.67558 0.65997 0.9266 0.8381 0.64751 0.477 0.5798
3809.731 0.5692 0.9693 1.2481 1.1092 0.9926 1.0948 1.3265 0.9822 1.1945 1.1568
3829.021 0.472 0.303 0.504 1.1531 1.2645 0.7592 0.9203 0.7942 0.373 0.493
3848.311 0.5928 0.331 0.284 0.405 0.67475 0.9516 0.7848 0.6019 0.9083 1.3437
3867.601 1.2947 1.0192 0.8645 0.495 0.7674 0.7995 0.391 0.64412 0.69501 0.5593
3886.890 0.7281 0.473 0.135 0.187 0.42 0.7757 1.0599 1.0605 0.7202 0.66992
3906.180 1.1395 1.1798 0.759 0.63406 0.47 0.716 0.94 0.69133 0.9272 0.889
3925.470 0.388 0.329 0.7204 0.9536 1.0639 1.0505 0.8032 0.601 0.5837 0.733
3944.760 0.7755 0.9855 1.0374 0.8064 0.464 0.146 0.239 0.7204 0.5817 0.71289
3964.049 1.2055 0.9124 0.409 0.5767 0.7325 0.8486 0.7699 0.468 0.5719 0.5482
3983.339 1.0713 1.3924 1.174 0.5886 0.339 0.64408 0.445 0.63 0.922 0.63951
##END=
