##TITLE=2,3,6-Trifluorobenzaldehyde
##JCAMP-DX=4.24
##DATA TYPE=INFRARED SPECTRUM
##ORIGIN=EPA-IR VAPOR PHASE LIBRARY
##OWNER=SRD/NIST
Collection (C) 2018 copyright by the U.S. Secretary of Commerce
on behalf of the United States of America. All rights reserved.
##CAS REGISTRY NO=104451-70-9
##MOLFORM=C 7 H 3 F 3 O
##$NIST SOURCE=MSDC-IR
##STATE=gas
##XUNITS=1/CM
##YUNITS=ABSORBANCE
##XFACTOR=1.
##YFACTOR=0.001
##DELTAX=1.92898
##FIRSTX=549.8
##LASTX=4000.7
##FIRSTY=8.16
##MAXX=4000.7
##MINX=549.759
##MAXY=0.303
##MINY=0
##NPOINTS=1790
##XYDATA=(X++(Y..Y))
549.759 8.16 8.8 9.76 10.74 9.85 10.18 11.95 11.96 11.61 11.6
569.049 10.07 9.26 9.23 8.58 7.52 6.94 5.72 5.04 6.09 7.01
588.339 6.89 7.13 8.01 9.26 9.84 9.87 11.26 11.25 11.08 12.04
607.628 12.24 12 11.92 11.65 10.46 9.58 8.86 8.36 8.96 8.35
626.918 7.52 7.84 7.66 7.06 5.91 4.73 4.47 4.52 4.57 4.18
646.208 3.83 3.94 4.12 4.32 4.29 4.23 4.23 4.25 3.89 3.51
665.498 3.83 4.1 4.29 5.67 6.58 6.38 6.27 7.29 9.24 10.97
684.787 13.19 15.44 17.68 19.86 21.8 23.27 23.84 24.09 23.67 22.92
704.077 21.52 19.95 17.93 15.89 13.96 12.26 11.49 10.88 10.08 10.02
723.367 9.9 10.4 12.39 13.98 15.73 17.66 18.94 19.57 19.93 20.08
742.657 20.41 20.53 19.73 17.98 15.5 13.64 12.65 11.7 10.91 11.1
761.947 11.29 11.29 11.97 11.99 11.89 12.77 13.35 13.57 14.94 16.72
781.236 18.26 19.59 21.04 22.45 24.05 25.26 26.19 27.71 29.72 31.93
800.526 33.44 35.12 36.34 37.6 41.21 47.5 56.1 60.29 54.1 44.91
819.816 38.33 34.34 31.48 26.52 21.6 17.35 13.68 11.26 9.05 7.14
839.106 5.76 5.21 5.33 5.45 4.79 4.07 4.36 4.43 4.09 4.18
858.395 4.18 4.53 4.68 4.55 4.29 3.75 3.24 3.59 3.77 3.89
877.685 3.92 3.52 3.81 4.55 4.81 5.16 6.18 6.73 6.72 6.92
896.975 8.22 9.47 10.5 11.48 11.89 12.95 14.27 14.51 15 15.8
916.265 15.87 15.79 15.83 15.23 14.04 13.44 13.53 12.94 12.18 12.15
935.555 11.86 11.34 10.96 10.42 10.07 9.55 9.24 9.07 8.31 7.43
954.844 6.93 6.3 6.56 6.53 5.59 5.97 6.51 6.32 6.52 7.28
974.134 7.3 7.66 8.63 9.07 9.6 10.3 11.15 12.82 14.14 14.84
993.424 16.07 17.32 18.55 19.03 19.61 21.32 22.28 23.71 24.53 23.77
1012.714 23.13 22.79 22.87 23.52 23.52 23.35 22.95 22.69 23.28 22.47
1032.003 21.22 21.81 23.67 25.6 28.54 31.34 32.1 31.38 30.84 30.57
1051.293 29.48 28.19 26.2 22.39 18.17 15.79 13.62 10.66 9.04 6.73
1070.583 5.41 5.71 4.68 4.75 4.29 3.41 2.2 2.0128 3.24 4.89
1089.873 5.38 2.73 2.99 2.89 2.42 2.44 1.9269 2.79 3.38 4.31
1109.163 3.67 3.62 3.17 2.91 3.35 2.52 3.31 4.97 5.58 5.34
1128.452 5.47 5 5.31 5.96 6.33 6.66 7.66 8.8 9.13 9.43
1147.742 10.2 10.09 7.75 8.28 9.14 8.31 7.95 6.92 5.92 4.13
1167.032 2.51 2.42 2.47 3.54 3.69 3.23 4.01 4.5 5.34 6.57
1186.322 6.76 6.67 7.66 9.07 9.24 9.24 11.3 14.7 18.59 24
1205.611 29.75 35.29 42.02 47.2 50.41 53.5 54.72 53.91 51.66 49.79
1224.901 46.31 40.57 34.76 28.55 24.06 22.74 23.06 24.36 26.46 30.93
1244.191 40.34 52.39 66.56 82.89 100.58 117.04 130.19 140.62 147.66 151.21
1263.481 149.45 142.26 130.23 112.07 90.18 70.9 57.46 48.41 42.68 37.87
1282.771 33.32 30.27 27.51 23.92 20.69 18.34 16.7 15.84 15.61 15.38
1302.060 15.26 15.78 16.28 16.12 15.49 15.08 14.73 14.2 13.54 12.57
1321.350 11.44 10.4 9.58 8.98 8.63 8.32 8.02 7.79 7.48 7.19
1340.640 6.92 6.69 6.36 5.92 5.57 5.37 5.3 5.23 5.18 5.29
1359.930 5.35 5.29 5.22 5.36 5.51 5.58 5.94 6.47 6.8 7.13
1379.219 8 9.25 10.84 12.9 15.32 18.17 21.32 24.5 28.05 31.59
1398.509 34.54 36.86 38.34 38.44 37.72 36.54 34.67 32.4 29.46 26.39
1417.799 23.47 20.11 17.12 15.44 14.76 14.76 15.37 16.32 17.63 19.13
1437.089 20.55 21.84 22.86 23.44 23.72 23.57 22.95 21.96 20.51 18.79
1456.378 17.18 16.07 15.13 15.1 16.21 17.41 19.2 22.33 27.1 33.74
1475.668 42.94 56.21 73.95 97.75 128.06 163.71 202.87 241.21 273.03 293.86
1494.958 303 302.2 293.56 278.65 256.52 225.83 184.33 138.08 97 65.26
1514.248 43.62 29.77 21.39 16.68 13.9 11.95 10.72 10.07 9.73 9.47
1533.538 9.25 9.01 9.03 8.8 8.34 8.02 7.82 7.55 7.07 6.69
1552.827 6.29 6.19 6.44 6.72 6.86 6.64 6.95 7.13 7.18 7.78
1572.117 8.35 8.89 9.41 9.76 10.5 11.7 12.69 13.16 13.8 14.73
1591.407 15.75 16.72 17.46 18.74 20.28 22.24 24.58 26.38 28.04 29.94
1610.697 31.85 33.74 35.78 37.79 40.13 42.92 45.15 46.83 48.09 48.63
1629.986 48.21 46.75 44.51 41.91 38.98 35.26 30.89 26.35 21.93 17.78
1649.276 14.38 12.74 11.66 10.51 10.23 10.06 9.68 9.79 9.82 9.86
1668.566 10.37 10.96 11.29 11.63 12.21 12.67 13.16 13.84 14.79 15.9
1687.856 17.09 18.5 20.11 21.88 24.26 26.62 29.09 32.37 35.74 39.78
1707.146 44.86 50.95 58.63 69.3 83.79 102.18 123.73 144.03 159.27 166.95
1726.435 169.6 170.65 169.17 164.82 155.19 135.89 109 80.76 57.92 41.97
1745.725 31.56 24.57 20.08 17.02 14.76 13.44 12.37 11.69 11.21 10.66
1765.015 10.34 10.02 10.03 9.61 9.06 8.97 8.69 8.37 8.07 7.89
1784.305 7.69 7.25 6.86 6.57 6.31 5.8 5.23 4.73 4.37 4.18
1803.594 4 3.62 3.36 3.3 3.21 3.27 3.09 2.99 3 2.9
1822.884 2.79 2.63 2.93 3 2.83 2.96 3.01 3.08 3.38 3.75
1842.174 4.18 4.52 4.86 5.21 5.42 5.51 5.52 5.44 5.37 5.16
1861.464 5 4.79 4.28 3.76 3.43 3.31 3.03 2.9 3.06 2.93
1880.754 2.76 2.64 2.45 2.42 2.5 2.49 2.48 2.43 2.35 2.37
1900.043 2.31 2.1546 2.2 2.22 2.163 2.22 1.969 2.1546 2.38 2.0837
1919.333 2.0356 2.0519 1.9883 1.9357 1.8718 1.993 2.1145 2.19 2.3 2.31
1938.623 2.31 2.5 2.53 2.31 2.39 2.59 2.69 2.74 2.87 2.74
1957.913 2.44 2.38 2.42 2.51 2.5 2.53 2.21 2.1338 2.36 2.36
1977.202 2.51 2.48 2.22 2.18 2.34 2.38 2.31 2.1777 1.9851 2.096
1996.492 2.39 2.21 2.1425 2.35 2.1605 2.19 2.4 2.49 2.46 2.1221
2015.782 2.1238 2.18 2.1657 2.2 2.1461 2.1382 2.1625 2.19 2.28 2.1673
2035.072 1.9445 1.7949 1.9374 1.9968 1.8787 1.7818 1.554 1.724 1.9869 1.9879
2054.362 1.8352 1.7758 1.7633 1.8085 1.6973 1.5667 1.6778 1.6949 1.572 1.665
2073.651 1.932 1.8608 1.6271 1.5534 1.7833 1.7599 1.563 1.6378 1.5841 1.3722
2092.941 1.4912 1.501 1.4293 1.5673 1.5359 1.6524 1.5787 1.6686 1.7119 1.3754
2112.231 1.4385 1.5816 1.6518 1.4665 1.3963 1.8106 1.8904 1.845 1.6766 1.3621
2131.521 1.25905 1.4593 1.7479 1.8543 1.7024 1.3421 1.474 1.9349 1.9298 1.8452
2150.810 1.873 1.8258 1.772 1.5741 1.5198 1.4875 1.399 1.3869 1.4816 1.4402
2170.100 1.20411 1.2629 1.4776 1.4442 1.5247 1.7951 1.579 1.5406 1.7939 1.6961
2189.390 1.7079 1.8847 1.8625 1.9548 2.24 2.41 2.25 2.0643 2.1611 2.1047
2208.680 2.0227 2.0822 1.9719 1.7623 1.6779 1.9039 2.0591 1.9804 1.9849 1.9153
2227.970 1.7618 1.6462 1.6987 1.7793 1.8009 1.7729 1.8134 1.7698 1.6453 1.6238
2247.259 1.7538 1.7994 1.7243 1.7156 1.5221 1.3446 1.4974 1.4561 1.408 1.7063
2266.549 1.6594 1.5807 1.5867 1.5493 1.6564 1.5355 1.4867 1.6173 1.7106 1.7877
2285.839 1.9387 1.874 1.6588 1.777 2.0079 1.9597 1.6966 1.6024 1.7189 1.9437
2305.129 2.27 2.4 2.1576 2.0337 2.1053 2.1306 1.8817 1.8105 1.9377 2.0098
2324.418 1.8137 1.6235 1.81 1.5978 1.6851 1.9176 1.9795 2.0461 1.8194 1.4959
2343.708 1.5925 1.7888 2.1095 2.1365 1.9561 2.37 2.29 1.8176 1.9906 2.0292
2362.998 1.9065 2.04 2.041 2.0347 1.8234 1.7574 1.6456 1.6362 1.5841 1.4227
2382.288 1.27471 1.26191 1.3362 1.24189 1.26773 1.6633 1.853 1.6052 1.5819 1.689
2401.578 1.7865 1.8546 1.9567 1.887 1.7148 1.6103 1.6551 1.9409 1.9788 1.6231
2420.867 1.43 1.5129 1.5866 1.5406 1.4418 1.6415 1.8461 1.68 1.6899 1.8169
2440.157 1.5663 1.4506 1.6266 1.6399 1.7788 1.8814 1.9136 1.9829 1.8662 1.8684
2459.447 1.8598 1.7192 2.0477 2.1487 2.1726 2.0558 1.9388 1.9582 1.8375 2.0765
2478.737 2.3 2.4 2.49 2.38 2.26 2.0469 1.8695 2.1266 2.32 2.21
2498.026 2.0244 2.0016 1.9462 2.1697 2.0802 1.8953 1.9653 2.0454 2.1073 1.9329
2517.316 1.8713 2.1176 2.1382 2.1048 1.9587 1.9611 2.4 2.1715 2.0838 2.1277
2536.606 1.8988 1.9407 2.21 2.1629 2.0719 2.1172 2.21 2.33 2.0794 1.9134
2555.896 2.0315 1.9079 1.9399 2.075 1.965 2.0931 1.8939 1.5532 1.6283 1.6621
2575.186 1.5741 1.5768 1.5162 1.5936 1.6845 1.4643 1.5237 1.6583 1.4494 1.7
2594.475 1.7727 1.6601 2.0219 1.8268 1.3952 1.3689 1.5643 1.6498 1.5822 1.6907
2613.765 2.0008 2.0214 1.8975 1.9565 1.8053 1.6032 1.7704 1.8674 1.4356 1.018
2633.055 1.4138 1.9922 2.0212 1.7306 1.6817 1.8099 1.22124 1.21364 1.7937 1.6427
2652.345 1.9421 2.21 2.38 2.41 2.1735 2.2 2.25 2.29 2.37 2.56
2671.634 2.22 2.0551 2.23 1.7509 1.5288 1.6069 2.0071 2.47 2.1785 1.7535
2690.924 1.9991 2.87 3.04 2.97 3.07 2.97 2.97 3.26 3.4 3.55
2710.214 3.61 3.47 3.58 3.8 3.49 3.11 3.11 2.83 3.02 3.15
2729.504 3.28 3.6 3.46 3.58 3.98 4.07 4.29 4.23 4.74 5.63
2748.794 6.11 7.05 7.79 8.33 9.14 10.5 11.58 12.18 12.6 13.28
2768.083 13.7 13.52 13.37 12.87 11.91 10.68 9.61 8.45 7.35 6.7
2787.373 6.21 5.66 5.32 5.54 5.42 5.31 5.84 5.9 5.81 6
2806.663 5.8 5.44 5.31 5.17 4.86 5.14 5.68 5.78 5.53 5.07
2825.953 5.13 4.92 4.64 4.98 5.13 5.48 5.79 5.94 6.33 6.87
2845.242 8.13 9.36 10.57 12.49 14.91 17.56 19.75 22.01 24.28 25.79
2864.532 27.07 27.78 27.87 27.31 26.12 24.81 22.53 19.87 17.59 15.16
2883.822 12.57 10.53 9.15 8.09 7.44 6.6 6.05 5.75 5.36 5.16
2903.112 5.32 5.5 5.15 4.77 4.45 4.56 4.63 4.6 4.35 4.11
2922.401 4.02 3.9 4.09 3.95 3.79 3.37 2.73 2.67 2.99 3.09
2941.691 2.59 1.9975 2.1014 2.41 2.44 2.36 2.42 2.44 2.1581 2.0004
2960.981 1.5728 1.2859 1.2824 1.21864 1.702 1.5642 1.3837 1.7037 1.954 2.0079
2980.271 1.6729 1.5547 1.4615 1.5792 1.9179 1.8394 1.6234 1.8786 2.24 2.21
2999.561 1.924 1.7839 1.8331 1.8099 1.6745 1.5296 1.5434 1.7104 1.8164 1.9594
3018.850 2.0206 1.5483 1.6488 2.0351 1.8389 2.28 2.23 1.8282 1.7499 1.407
3038.140 1.3437 1.4087 1.7377 1.8543 1.7467 1.7165 1.672 1.6892 1.4681 1.1381
3057.430 1.0931 2.2 2.53 1.7447 1.4577 1.8063 1.8595 2.1307 2.43 1.7102
3076.720 1.7342 2.29 2.32 2.45 2.34 2.0254 2.1203 1.6118 1.536 1.7174
3096.009 1.3405 1.774 1.8718 1.3602 1.4515 1.3619 1.27479 1.2972 1.0956 1.3487
3115.299 1.653 1.5571 1.5143 1.9929 2.45 1.7202 1.1268 1.6415 1.7614 1.9014
3134.589 1.6523 0.915 0.79 1.1262 1.5864 1.81 1.7162 1.6256 1.3793 1.7328
3153.879 1.968 1.3319 1.031 1.3495 1.0949 0.376 0.752 1.4182 1.8627 1.6027
3173.169 1.305 1.5386 1.3011 0.998 1.032 1.5327 1.165 0.895 1.3613 1.1689
3192.458 0.974 0.959 1.04 0.655 0.65 1.4059 1.7015 1.21055 0.756 0.523
3211.748 0.51 1.027 1.1138 1.1364 1.3781 1.3438 1.4482 1.9947 2.4 2.24
3231.038 1.7505 1.7041 1.7709 1.3938 1.1453 0.945 0.933 0.999 1.4506 1.4941
3250.328 1.3974 1.4557 1.1219 1 1.3734 1.7082 0.931 0 0.259 0.758
3269.617 1.25379 1.6357 1.3202 1.6069 1.3908 0.886 1.4597 1.501 1.6016 1.9609
3288.907 1.9673 1.6043 1.3776 1.6295 1.6195 1.296 1.0868 1.5642 1.7294 1.6631
3308.197 1.4908 1.5246 1.6325 1.5246 1.23477 0.604 1.20713 1.3678 0.856 1.062
3327.487 1.4349 1.1565 1.1356 1.3169 1.3111 1.2035 1.3505 1.46 1.22458 1.3562
3346.777 1.035 0.804 1.1267 1.5095 1.3473 1.5584 1.7573 1.5807 1.22067 0.912
3366.066 1.3137 1.5312 1.3074 0.631 0.541 0.491 0.616 1.3945 1.3494 1.0924
3385.356 0.905 0.872 1.03 1.18815 1.7689 2.47 2.58 2.58 2.51 2.27
3404.646 2.61 2.96 3.14 3.11 3.3 3.73 4.08 3.97 3.77 4.31
3423.936 4.66 4.16 3.87 4.36 4.45 3.73 3.57 3.77 3.68 3.73
3443.225 4.17 3.86 2.73 2.54 2.1108 2.23 2.25 1.4074 1.345 2.21
3462.515 2.18 1.572 1.7019 1.7161 1.7987 2.26 2.1248 1.559 1.6067 1.5867
3481.805 1.20012 1.2971 1.6748 1.7929 1.6446 1.5655 1.3635 1.6123 2.0783 1.4687
3501.095 1.6726 2.1629 1.9743 1.6705 1.4176 1.26326 0.93 1.26287 2.1379 2.42
3520.385 2.2 2.1278 1.5993 0.985 1.1096 1.0831 1.061 0.907 0.846 0.944
3539.674 1.07 1.014 1.009 1.26994 1.378 1.4948 1.3671 1.17357 1.6986 2.1243
3558.964 1.5543 1.6993 1.5732 1.4873 1.9807 2.113 1.9479 2.21 2.33 1.4685
3578.254 1.304 2.0827 1.8324 1.5684 2.0271 1.339 0.425 0.634 1.03 1.4433
3597.544 2.0025 1.9453 1.5057 1.5279 1.5126 1.2553 1.4356 1.6589 1.6787 1.8438
3616.833 1.7882 1.5611 1.395 1.1546 1.7502 1.9985 1.26241 0.877 1.4849 1.9235
3636.123 1.5141 1.20394 1.6955 1.6467 1.1201 1.1212 0.666 1.1386 1.6246 1.6161
3655.413 1.6889 1.5654 1.7898 1.9638 1.9673 1.3718 1.3622 1.7449 1.4611 1.3801
3674.703 1.9036 1.8956 1.5584 1.6278 1.6288 1.6359 1.9085 1.8639 1.3471 1.4054
3693.993 1.7335 1.5453 1.4522 1.056 0.734 1.1531 1.2842 1.1129 1.1345 1.4642
3713.282 1.01 0.696 1.072 1.17251 1.042 1.4139 1.8871 1.8502 1.7422 1.8365
3732.572 1.8265 1.4362 1.18877 1.20805 1.5817 1.7027 1.3729 1.074 1.27058 1.577
3751.862 1.6299 1.5374 1.2163 1.064 0.808 0.513 0.722 0.861 1.22096 1.4957
3771.152 1.004 1.3081 1.7942 1.5093 1.3389 1.7691 1.6413 1.6781 1.9919 1.9669
3790.441 1.8683 1.2171 0.913 0.9 1.5795 2.149 1.6829 1.001 0.797 1.3723
3809.731 1.7629 1.4009 1.2601 1.3599 1.25737 1.5621 1.6195 0.733 0.82 1.7628
3829.021 1.6043 1.07 1.077 1.005 0.962 1.4472 1.6588 1.5902 1.1192 0.694
3848.311 0.912 1.5983 1.7759 1.26098 1.006 0.592 0.974 1.8094 1.3442 1.1038
3867.601 1.27733 1.3956 1.7622 2.0293 1.9799 1.7402 1.6438 1.3513 1.4109 1.3982
3886.890 1.7308 1.7159 1.1576 1.4085 1.4471 0.791 0.795 1.1623 1.0993 0.992
3906.180 1.015 1.5428 1.8188 1.928 1.5497 1.0863 1.25234 1.7247 2.0273 1.7624
3925.470 1.6261 1.0961 0.688 0.934 1.6739 1.6962 1.2563 1.4743 1.5247 1.059
3944.760 1.04 1.9503 1.8217 1.4498 2.1063 2.36 1.7486 1.5362 1.5714 1.2782
3964.049 1.19623 1.8057 2.27 2.0564 1.4485 1.068 1.1713 1.612 1.6659 1.7607
3983.339 1.9024 1.1554 0.799 0.973 1.025 0.991 1.45 1.26692 0.596 1.5941
##END=
