##TITLE=l-Menthone
##JCAMP-DX=4.24
##DATA TYPE=INFRARED SPECTRUM
##ORIGIN=NIST Mass Spectrometry Data Center
##OWNER=NIST Standard Reference Data Program
Collection (C) 2018 copyright by the U.S. Secretary of Commerce
on behalf of the United States of America. All rights reserved.
##CAS REGISTRY NO=10458-14-7
##MOLFORM=C 10 H 18 O
##$NIST SOURCE=MSDC-IR
##SPECTROMETER/DATA SYSTEM=HP-GC/MS/IRD
##STATE=gas
##XUNITS=1/CM
##YUNITS=ABSORBANCE
##XFACTOR=1.0
##YFACTOR=0.000001000
##DELTAX=4.0
##FIRSTX=550.0
##LASTX=3846.0
##FIRSTY=0.000136
##MAXX=3846
##MINX=550
##MAXY=0.01
##MINY=0
##NPOINTS=825
##XYDATA=(X++(Y..Y))
550.0 136 156 134 72 30 1 56 89 50 57
590.0 152 185 199 207 213 289 291 239 212 199
630.0 182 136 129 154 121 102 113 124 119 128
670.0 124 104 96 82 70 40 44 80 51 32
710.0 40 63 84 90 82 114 148 143 138 124
750.0 112 114 106 101 86 49 55 69 80 66
790.0 32 36 37 50 56 66 101 86 81 120
830.0 109 92 105 114 98 90 112 151 174 199
870.0 227 213 164 145 149 121 115 130 120 95
910.0 70 94 112 118 155 190 170 132 144 167
950.0 177 178 188 223 266 317 379 437 462 451
990.0 414 341 265 228 210 201 219 232 255 284
1030.0 311 364 427 472 461 421 394 368 340 341
1070.0 372 403 458 531 537 512 528 537 542 636
1110.0 752 795 831 800 711 665 666 657 634 610
1150.0 578 574 545 507 508 537 591 645 733 872
1190.0 1063 1224 1281 1258 1153 959 763 641 578 584
1230.0 619 628 622 635 631 586 566 548 557 618
1270.0 675 709 732 744 723 660 597 574 573 580
1310.0 603 639 664 674 704 753 781 792 814 842
1350.0 871 933 1009 1087 1148 1197 1243 1251 1257 1214
1390.0 1091 895 689 535 444 404 406 453 527 602
1430.0 675 715 785 938 1143 1324 1425 1477 1508 1442
1470.0 1293 1101 924 747 562 400 286 222 182 152
1510.0 135 130 116 105 101 94 90 87 78 77
1550.0 90 104 93 88 91 77 77 92 97 93
1590.0 90 88 84 83 93 113 116 115 123 125
1630.0 137 145 155 165 175 196 219 243 274 312
1670.0 352 400 461 534 623 756 956 1307 1929 2906
1710.0 4293 5911 7332 8037 7848 6717 4937 3266 2100 1369
1750.0 957 733 605 516 436 369 317 281 248 229
1790.0 213 189 167 140 135 130 115 115 114 107
1830.0 90 90 101 86 76 82 68 60 57 47
1870.0 43 39 45 44 37 49 47 43 44 53
1910.0 44 30 35 33 27 34 46 48 43 32
1950.0 34 33 34 41 36 23 25 36 39 42
1990.0 38 26 28 30 28 32 33 36 30 30
2030.0 40 42 29 23 28 20 5 11 20 27
2070.0 39 42 23 15 20 19 17 25 40 41
2110.0 28 26 26 18 16 25 30 18 19 34
2150.0 40 38 25 21 27 19 19 20 25 38
2190.0 37 40 53 50 43 29 5 19 28 30
2230.0 22 14 31 38 39 39 35 36 38 46
2270.0 45 39 38 28 27 22 15 24 25 20
2310.0 21 24 18 23 27 20 32 40 34 32
2350.0 29 25 8 12 27 28 21 14 13 14
2390.0 20 29 27 25 34 36 38 59 63 36
2430.0 39 42 35 34 30 31 37 44 43 45
2470.0 47 50 46 40 49 44 39 41 42 48
2510.0 35 27 31 33 39 42 35 37 51 54
2550.0 50 58 48 49 61 62 57 52 62 65
2590.0 63 68 63 63 70 71 73 87 84 80
2630.0 87 90 98 104 99 100 110 107 107 112
2670.0 104 100 106 98 96 119 123 112 114 113
2710.0 106 109 115 128 140 143 156 175 200 212
2750.0 197 178 167 153 164 179 190 189 205 210
2790.0 197 222 250 270 287 324 371 407 461 534
2830.0 623 736 910 1180 1504 1827 2090 2326 2533 2823
2870.0 3241 3722 4107 4297 4209 3910 3586 3396 3449 3716
2910.0 4114 4585 5119 5798 6527 7167 7579 7637 7372 7097
2950.0 7292 8048 9153 10000 9815 8733 7048 5163 3662 2643
2990.0 1970 1513 1149 893 716 581 493 411 351 330
3030.0 298 276 265 237 221 210 206 214 214 200
3070.0 205 222 207 187 187 204 205 175 161 161
3110.0 160 157 156 157 133 116 138 149 146 144
3150.0 131 125 131 121 119 144 140 124 140 147
3190.0 126 107 74 94 110 62 76 90 56 33
3230.0 47 58 45 33 28 41 64 62 17 0
3270.0 37 56 38 33 28 14 28 48 51 38
3310.0 30 29 36 54 35 21 29 41 63 68
3350.0 61 58 48 41 39 40 52 67 63 71
3390.0 93 80 61 71 83 108 145 160 170 169
3430.0 154 164 144 100 117 103 58 54 46 29
3470.0 33 51 59 62 79 76 39 38 47 29
3510.0 41 56 43 24 10 30 46 54 52 23
3550.0 13 48 44 7 12 35 30 51 54 11
3590.0 11 33 56 55 62 70 57 40 38 49
3630.0 57 40 27 69 56 27 42 64 45 38
3670.0 48 47 51 23 22 55 60 49 62 69
3710.0 61 61 63 64 27 16 42 46 44 42
3750.0 47 60 53 44 47 59 47 31 56 64
3790.0 69 50 40 65 51 33 46 70 66 41
3830.0 40 56 63 69 45
##END=
