##TITLE=Bis(2,2,2-trifluoroethyl)itaconate
##JCAMP-DX=4.24
##DATA TYPE=INFRARED SPECTRUM
##ORIGIN=EPA-IR VAPOR PHASE LIBRARY
##OWNER=SRD/NIST
Collection (C) 2018 copyright by the U.S. Secretary of Commerce
on behalf of the United States of America. All rights reserved.
##CAS REGISTRY NO=104534-96-5
##MOLFORM=C 9 H 8 F 6 O 4
##$NIST SOURCE=MSDC-IR
##STATE=gas
##XUNITS=1/CM
##YUNITS=ABSORBANCE
##XFACTOR=1.
##YFACTOR=0.001
##DELTAX=1.92898
##FIRSTX=549.8
##LASTX=4000.7
##FIRSTY=8.323
##MAXX=4000.7
##MINX=549.759
##MAXY=0.438403
##MINY=0
##NPOINTS=1790
##XYDATA=(X++(Y..Y))
549.759 8.323 8.103 7.973 7.183 7.893 7.933 6.853 6.903 7.273 7.333
569.049 7.143 5.943 5.293 5.823 5.363 5.423 6.273 5.953 4.953 5.263
588.339 6.033 5.323 4.783 4.783 4.463 4.913 4.843 4.283 4.643 4.513
607.628 4.373 4.793 4.873 5.063 5.383 5.423 5.943 6.483 6.213 6.853
626.918 8.063 8.223 8.053 8.053 8.463 9.103 10.343 10.853 11.043 11.563
646.208 12.463 13.293 14.083 15.243 16.303 17.883 18.953 20.083 20.583 20.393
665.498 20.383 19.603 18.563 17.293 15.333 13.653 12.513 11.543 10.773 9.593
684.787 8.213 7.123 6.103 5.643 5.263 4.773 4.563 4.313 3.733 3.233
704.077 3.593 3.633 2.743 2.153 2.453 2.433 2.333 2.243 1.423 1.703
723.367 2.333 2.283 2.133 2.223 2.533 2.753 3.113 3.433 3.973 3.853
742.657 3.773 3.783 3.453 3.753 3.883 3.463 3.433 3.563 3.423 3.923
761.947 4.193 3.603 3.603 3.453 3.083 3.233 3.023 2.663 2.343 1.883
781.236 1.993 2.313 2.563 3.213 3.383 3.313 3.533 3.833 4.503 5.083
800.526 6.003 7.683 8.813 9.903 10.343 10.003 9.533 9.193 8.653 6.243
819.816 4.583 6.483 8.223 8.303 8.813 9.443 9.663 9.743 10.343 11.273
839.106 11.923 12.273 12.873 13.053 12.823 12.893 12.943 12.343 11.673 11.503
858.395 11.413 10.763 10.293 10.243 10.263 10.553 10.583 10.243 10.113 10.593
877.685 10.343 9.943 10.413 10.603 10.823 10.973 11.273 11.583 11.513 11.693
896.975 11.793 11.883 11.623 11.183 11.203 11.203 11.213 11.103 10.853 10.393
916.265 9.793 10.293 10.933 10.683 10.513 10.803 11.373 11.753 12.863 14.233
935.555 14.903 16.003 17.433 18.823 20.333 22.773 25.983 28.583 31.303 34.883
954.844 38.203 40.903 42.433 43.603 44.923 45.663 46.563 47.353 47.883 49.503
974.134 51.023 50.883 50.403 50.063 48.843 46.953 43.943 39.503 34.613 30.213
993.424 26.493 23.273 20.733 17.983 15.433 13.673 12.153 11.113 10.343 9.653
1012.714 9.563 9.283 9.213 8.663 8.753 9.963 9.783 10.033 10.993 12.253
1032.003 13.113 14.393 16.273 18.053 20.493 23.063 26.113 28.943 31.883 34.193
1051.293 36.783 39.593 41.023 41.033 40.673 40.433 38.003 35.073 30.813 27.453
1070.583 26.103 23.713 22.053 20.473 20.113 20.143 19.553 21.083 22.063 22.223
1089.873 23.823 25.653 27.223 30.543 33.273 36.783 41.943 46.443 51.753 58.593
1109.163 66.583 77.263 90.763 104.443 122.773 142.883 161.583 183.053 204.923 225.443
1128.452 241.503 251.443 256.373 253.203 244.663 233.843 222.013 211.853 203.623 197.213
1147.742 193.283 192.553 192.573 193.313 198.223 207.143 218.733 231.873 248.053 270.073
1167.032 295.123 324.053 358.053 390.753 419.243 437.393 438.403 423.683 394.643 352.483
1186.322 305.483 260.703 220.573 186.973 159.103 137.833 123.393 111.303 100.463 93.363
1205.611 87.833 81.683 76.543 73.323 71.473 69.363 67.543 65.813 65.733 65.223
1224.901 62.873 62.963 64.023 64.413 64.393 63.603 62.813 61.743 60.873 60.203
1244.191 58.933 58.253 57.703 56.543 56.863 58.243 59.383 61.863 65.803 70.803
1263.481 76.943 84.213 92.663 102.913 113.823 125.963 139.413 151.903 163.183 172.793
1282.771 180.223 185.473 189.123 190.373 188.763 184.513 177.783 169.283 159.363 148.733
1302.060 138.093 127.993 118.653 110.123 102.573 95.773 89.793 85.023 80.143 74.843
1321.350 69.713 64.483 58.973 53.743 49.583 46.403 44.003 42.173 40.853 39.553
1340.640 38.303 37.093 35.153 32.933 30.883 28.873 27.033 25.213 23.513 22.223
1359.930 21.453 20.533 19.513 19.033 18.793 18.543 18.413 18.483 18.793 19.353
1379.219 20.273 21.393 22.653 24.323 26.433 28.923 31.713 34.923 38.923 43.763
1398.509 49.073 54.393 59.153 63.263 66.133 66.963 65.793 62.993 59.213 55.123
1417.799 50.853 46.743 43.083 39.813 36.983 34.343 31.803 29.653 27.853 26.053
1437.089 24.683 23.723 22.713 21.973 21.443 21.013 20.503 20.003 19.293 18.283
1456.378 17.323 16.203 14.943 13.683 12.513 11.283 10.053 9.003 8.163 7.523
1475.668 6.973 6.683 6.513 6.233 5.843 5.413 5.383 5.393 5.053 4.673
1494.958 4.503 4.513 4.503 4.413 4.343 4.143 3.933 3.923 3.923 3.853
1514.248 3.943 3.823 3.583 3.593 3.463 3.263 3.383 3.283 3.123 2.953
1533.538 2.783 2.903 2.963 2.943 2.873 2.843 2.893 2.823 2.493 2.553
1552.827 2.673 2.463 2.263 2.163 2.333 2.393 2.463 2.623 2.563 2.493
1572.117 2.623 2.533 2.453 2.523 2.593 2.753 2.703 2.843 2.843 2.773
1591.407 3.033 2.993 2.893 2.953 2.993 3.063 3.363 3.903 4.053 4.113
1610.697 4.333 4.493 4.593 4.683 4.883 5.163 5.313 5.533 5.953 6.543
1629.986 7.383 8.333 9.103 9.583 10.213 10.423 10.163 9.653 8.543 7.363
1649.276 6.333 5.423 4.753 4.403 4.273 4.163 3.843 3.653 3.683 3.543
1668.566 3.543 3.513 3.593 3.803 3.743 3.593 3.663 3.933 4.153 4.263
1687.856 4.523 4.793 4.973 5.073 5.063 5.363 5.973 6.633 7.063 7.473
1707.146 8.053 8.903 9.613 9.873 10.513 11.323 12.173 13.183 14.163 15.333
1726.435 16.523 18.013 19.813 22.283 25.663 29.363 34.223 40.633 48.373 57.883
1745.725 68.733 80.183 90.863 99.253 104.253 106.373 106.853 107.343 108.903 111.013
1765.015 112.873 113.883 113.603 112.673 112.213 112.263 112.623 112.303 109.663 104.003
1784.305 95.523 85.443 74.983 64.613 55.423 47.733 41.223 35.773 31.323 27.763
1803.594 24.853 22.423 20.273 18.403 16.853 15.423 14.113 12.873 11.693 10.563
1822.884 9.683 9.083 8.383 7.623 7.083 6.623 6.153 5.793 5.403 4.973
1842.174 4.683 4.503 4.443 4.203 3.723 3.493 3.543 3.453 3.183 3.033
1861.464 3.053 2.943 2.673 2.713 2.643 2.473 2.533 2.563 2.693 2.553
1880.754 2.343 2.433 2.523 2.413 2.303 2.363 2.383 2.393 2.483 2.533
1900.043 2.573 2.743 2.853 2.933 3.023 2.983 3.043 3.073 2.863 2.723
1919.333 2.753 2.673 2.663 2.693 2.463 2.253 2.213 2.173 2.093 2.133
1938.623 2.213 2.123 2.013 2.163 2.163 1.923 1.773 1.693 1.773 1.823
1957.913 1.773 1.913 1.873 1.633 1.543 1.643 1.803 1.713 1.793 1.753
1977.202 1.783 1.923 1.763 1.943 2.013 1.903 1.893 1.903 1.893 1.893
1996.492 2.073 2.283 2.223 2.113 2.203 2.233 2.163 2.253 2.413 2.453
2015.782 2.393 2.403 2.443 2.433 2.573 2.493 2.483 2.543 2.313 2.263
2035.072 2.213 2.203 2.343 2.303 2.133 2.063 2.203 2.183 2.103 2.213
2054.362 2.193 2.103 2.313 2.393 2.413 2.533 2.403 2.403 2.443 2.323
2073.651 2.253 2.243 2.283 2.443 2.473 2.423 2.593 2.703 2.763 2.683
2092.941 2.433 2.403 2.513 2.483 2.463 2.643 2.803 2.743 2.813 2.853
2112.231 2.583 2.433 2.503 2.693 2.513 2.373 2.563 2.563 2.463 2.433
2131.521 2.423 2.383 2.153 2.013 2.083 2.113 2.083 1.983 1.993 1.973
2150.810 1.933 2.113 1.983 1.923 2.243 2.283 2.203 2.263 2.003 1.983
2170.100 2.013 1.873 2.123 2.123 1.863 1.833 1.753 1.803 2.003 1.953
2189.390 1.913 2.033 2.023 1.753 1.673 1.673 1.723 1.663 1.423 1.543
2208.680 1.593 1.663 1.963 1.903 1.713 1.633 1.563 1.523 1.653 1.913
2227.970 1.913 1.833 1.873 1.873 1.923 1.813 1.803 1.953 1.933 1.773
2247.259 1.593 1.523 1.473 1.563 1.823 1.963 1.863 1.753 1.793 1.763
2266.549 1.693 1.643 1.573 1.433 1.503 1.653 1.643 1.713 1.613 1.633
2285.839 1.783 1.843 1.653 1.473 1.573 1.553 1.453 1.533 1.663 1.633
2305.129 1.723 1.623 1.1275 1.193 1.573 1.593 1.673 1.823 1.703 1.523
2324.418 1.523 1.753 1.833 1.753 1.893 2.093 2.143 2.183 2.143 2.063
2343.708 1.983 1.863 1.883 1.793 1.713 1.913 2.053 1.743 1.653 1.763
2362.998 1.783 1.633 1.353 1.493 1.673 1.643 1.683 1.543 1.253 1.183
2382.288 1.283 1.283 1.183 1.293 1.483 1.553 1.533 1.313 1.243 1.1227
2401.578 1.0543 1.403 1.353 0.9834 1.163 1.373 1.233 1.183 1.203 1.303
2420.867 1.403 1.403 1.1261 1.1055 1.213 1.1035 1.393 1.353 1.1465 1.423
2440.157 1.453 1.423 1.383 1.313 1.353 1.363 1.363 1.343 1.373 1.373
2459.447 1.253 1.233 1.303 1.193 1.313 1.353 1.283 1.303 1.233 1.173
2478.737 1.343 1.323 1.203 1.223 0.9034 0.6348 0.7597 0.8535 0.8789 1.0568
2498.026 1.0478 1.1239 1.273 0.9501 0.7052 0.8354 0.787 0.7505 0.804 0.9318
2517.316 0.8556 0.6086 0.6908 0.7475 0.7141 0.7664 0.4859 0.1507 0.4991 0.9448
2536.606 1.0562 1.1355 1.0132 1.0309 1.1622 1.1234 1.0592 1.243 1.603 1.453
2555.896 1.393 1.373 1.099 1.0499 1.173 1.223 1.233 1.1539 1.353 1.303
2575.186 1.233 1.363 1.183 1.0189 0.9732 1.1076 1.1222 1.0408 0.9255 0.7626
2594.475 0.8016 1.0184 1.183 0.9466 0.817 1.0654 0.9903 0.8065 0.9481 0.9637
2613.765 0.703 0.6921 0.7658 0.8309 0.7252 0.7954 1.163 1.233 1.1478 0.8873
2633.055 0.6416 0.5073 0.6135 0.974 0.8681 0.8135 0.8513 0.7889 0.7214 0.8434
2652.345 1.173 0.9078 0.5702 0.6412 0.7855 0.911 0.8591 0.7195 0.6785 0.8426
2671.634 1.0511 0.7662 0.6446 0.6572 0.7351 0.9293 1.0215 0.9728 1.0108 1.323
2690.924 0.6939 0.5147 0.9594 0.9081 1 0.9109 0.5757 0.627 1.0968 1.393
2710.214 1.1371 0.9288 1.1169 0.8867 0.6168 0.6578 0.6498 0.8066 1.0582 1.193
2729.504 1.0498 0.9451 0.8609 0.8694 0.9374 0.8318 0.8382 1.039 1.0763 1.1166
2748.794 1.243 1.193 1.173 1.243 1.263 1.0249 0.9619 0.9534 0.8874 1.213
2768.083 1.343 1.0224 1.223 1.443 1.0378 0.724 0.9712 1.0676 1.0807 1.018
2787.373 0.6383 0.9182 1.463 1.413 1.183 1.173 1.163 1.393 1.403 0.9771
2806.663 0.9947 1.283 1.273 1.0024 0.9708 1.146 1.303 1.303 1.0064 0.9853
2825.953 1.193 1.373 1.243 1.0951 1.393 1.553 1.353 1.1063 0.8433 0.8536
2845.242 1.193 1.393 1.563 1.643 1.333 1.163 1.173 1.263 1.213 1.213
2864.532 1.413 1.183 1.173 1.393 1.503 1.433 1.603 2.073 2.173 2.093
2883.822 2.033 2.323 2.483 2.283 2.223 2.433 2.903 2.823 2.643 2.563
2903.112 2.173 2.183 2.193 1.883 1.943 2.033 1.863 1.983 1.863 1.803
2922.401 1.773 1.933 2.353 2.253 2.343 2.553 2.933 3.303 3.733 4.323
2941.691 4.703 4.533 3.953 3.943 4.043 4.193 4.403 4.403 4.433 4.593
2960.981 5.143 6.163 7.063 8.013 9.813 11.793 14.373 17.683 21.213 23.863
2980.271 24.553 23.403 20.493 16.803 12.853 10.153 8.683 7.163 6.333 5.783
2999.561 5.303 5.243 5.403 5.333 5.023 5.043 4.883 4.883 4.693 3.923
3018.850 3.553 3.433 3.113 3.243 3.403 2.623 1.833 1.293 1.413 2.213
3038.140 2.163 1.803 1.843 1.333 1.333 1.643 1.533 1.453 1.533 1.613
3057.430 1.343 1.413 1.613 1.263 1.403 1.463 1.015 1.039 1.483 1.573
3076.720 1.453 1.473 1.263 0.6541 0.7434 1.243 1.1221 0.9747 1.0097 1.183
3096.009 1.323 1.453 1.563 1.503 1.1036 0.9076 1.353 1.663 1.673 1.773
3115.299 1.683 1.633 1.533 1.273 1.243 1.373 1.243 0.8346 0.2794 0.3464
3134.589 0.8429 0.907 1.0116 0.9982 0.7528 0.3814 0.0761 0.4863 0.6407 0.708
3153.879 1.052 0.9318 0.6796 0.5402 0.6652 0.7464 0.8488 0.8944 0.5429 0.5019
3173.169 0.6669 0.22241 0.1394 0.571 0.4431 0.4763 0.7719 0.6955 0.7168 1.173
3192.458 1.413 1.313 1.493 1.633 1.203 0.9825 1.0387 0.8999 1.173 1.313
3211.748 0.9569 0.6897 0.3583 0.5299 1.1345 1.0359 0.7807 0.7935 0.8143 0.9734
3231.038 1.213 0.8847 0.4135 0.687 0.9246 0.8838 0.8458 0.7745 0.8251 0.7361
3250.328 0.4786 0.6807 0.7167 0.485 0.5065 0.8555 0.9024 0.9031 1.0877 0.9776
3269.617 0.7332 0.6133 0.5996 0.7167 0.8108 1.0043 1.084 1.193 1.393 0.8036
3288.907 0.4063 0.858 0.9099 0.5022 0.6275 0.5631 0.3848 0.6045 0.8599 0.9436
3308.197 0.8003 0.7814 1.0575 1.0657 0.563 0.6436 1.1023 0.7349 0.8926 0.9387
3327.487 0.708 1.163 1.0594 0.7575 0.6844 0.4086 0.629 1.0345 0.9412 0.9477
3346.777 1.223 0.921 0.5056 0.4412 0.5234 0.619 0.5594 0.5545 0.5812 0.9888
3366.066 0.8992 0.5594 0.4051 0.3748 0.5039 0.9328 1.293 1.1141 0.7084 0.7347
3385.356 1.493 1.343 0.7297 0.6797 0.8941 0.8746 0.23245 0.19834 0.705 0.9033
3404.646 0.7071 0.4206 0.4828 0.4928 0.5879 0.5149 0.6573 1.0332 0.7495 0.5249
3423.936 0.5318 0.7228 0.6805 0.371 0.4011 0.8524 1.203 0.9391 1.183 1.313
3443.225 1.08 1.473 1.253 0.9214 1.0418 1.1515 0.8781 0.5345 0.8909 1.1262
3462.515 1.223 1.253 1.413 1.353 1.0272 1.0449 1.443 1.613 1.553 1.333
3481.805 1.193 1.313 1.283 1.603 1.653 1.453 1.993 2.093 1.683 1.883
3501.095 1.883 1.413 1.463 1.823 1.833 2.233 2.223 1.913 2.183 2.143
3520.385 2.083 1.843 1.593 1.643 1.583 1.723 1.773 1.463 1.803 2.543
3539.674 2.033 1.193 1.333 1.473 1.553 1.923 1.823 1.263 1.1463 1.943
3558.964 2.533 2.493 2.043 1.203 0.7866 1.273 1.833 1.693 1.163 0.9126
3578.254 1.0931 0.9772 0.7949 0.9713 0.6199 0.6003 0.9131 0.7781 0.8183 1.1406
3597.544 1.0233 0.5418 0.81 1.273 1.223 0.8745 0.5275 0.22803 0.323 0.5795
3616.833 0.4557 0.3858 0.3441 0.05 0.1299 0.8674 1.1445 0.8543 0.9513 0.7153
3636.123 0.5461 0.7747 0.4698 0.547 0.5916 0.7315 1.183 1.0741 1.0493 1.0199
3655.413 0.8436 0.8506 0.7318 0.5743 0.4333 0.3357 0.2518 0.631 0.995 0.6423
3674.703 0.113 0 0.4958 0.8118 0.7017 0.7512 1.0079 0.686 0.2693 0.1261
3693.993 0.4337 0.6751 0.3352 0.4543 0.5523 0.5613 0.5897 0.769 0.7899 0.8372
3713.282 0.7713 0.3942 0.165546 0.3122 0.9391 1.173 1.0467 0.9807 0.9824 0.9972
3732.572 0.9656 0.9309 0.8955 0.8322 0.9986 1.163 1.273 1.0306 0.902 0.7791
3751.862 0.7426 0.8488 1.0277 1.233 0.9147 0.9855 0.9324 0.6781 0.8945 0.9956
3771.152 0.938 0.8095 0.9659 0.8266 0.8628 1.293 0.956 0.5828 0.5718 1.0707
3790.441 1.1362 0.6254 0.7582 1.0779 0.7298 0.6655 1.203 1.253 0.6438 0.7929
3809.731 1.0727 1.0822 1.613 1.433 0.9652 0.9444 0.9638 0.961 0.9208 0.722
3829.021 0.6319 0.3469 0.2921 0.9795 1.0183 0.647 0.6369 0.7074 0.18179 0.043
3848.311 0.649 0.9263 1.0098 0.7466 0.7084 0.9006 0.7841 0.5833 0.3898 0.5793
3867.601 0.9762 0.5801 0.3276 0.6485 0.8853 0.7342 0.6135 1.463 1.773 1.0021
3886.890 1.193 1.233 0.8801 1.0933 0.8914 0.716 1.0833 1.333 1.283 0.8734
3906.180 0.4198 0.815 1.193 1.343 1.543 1.233 0.6534 0.2794 0.5977 0.9197
3925.470 1.313 1.393 1.0724 0.8467 0.7599 0.7027 0.7233 0.575 0.8494 1.563
3944.760 1.213 0.8938 0.5842 0.9388 1.145 0.7467 0.7321 0.8737 0.9156 1.413
3964.049 1.363 0.7324 0.7153 0.7421 1.443 1.493 0.8211 0.9275 0.9705 0.6799
3983.339 0.5286 0.7333 0.6488 0.6727 0.956 0.5867 0.4611 0.5953 0.5124 0.6715
##END=
