##TITLE=2-Bromo-3-fluorobenzotrifluoride
##JCAMP-DX=4.24
##DATA TYPE=INFRARED SPECTRUM
##ORIGIN=EPA-IR VAPOR PHASE LIBRARY
##OWNER=SRD/NIST
Collection (C) 2018 copyright by the U.S. Secretary of Commerce
on behalf of the United States of America. All rights reserved.
##CAS REGISTRY NO=104540-42-3
##MOLFORM=C 7 H 3 Br F 4
##$NIST SOURCE=MSDC-IR
##STATE=gas
##XUNITS=1/CM
##YUNITS=ABSORBANCE
##XFACTOR=1.
##YFACTOR=0.001
##DELTAX=1.92898
##FIRSTX=549.8
##LASTX=4000.7
##FIRSTY=7.128
##MAXX=4000.7
##MINX=549.759
##MAXY=0.445988
##MINY=0
##NPOINTS=1790
##XYDATA=(X++(Y..Y))
549.759 7.128 5.828 4.878 4.358 3.978 2.748 1.598 1.708 2.438 2.418
569.049 1.478 1.498 2.178 2.038 1.538 1.3161 1.0594 1.438 1.888 2.218
588.339 1.2636 0.617 1.2584 1.598 1.948 2.218 2.758 2.578 2.198 2.328
607.628 2.078 1.858 1.458 1.0059 0.9814 0.692 1.0894 1.177 0.6487 1.1869
626.918 1.698 1.578 1.568 1.3581 1.428 1.938 2.318 1.878 1.508 1.888
646.208 1.878 1.738 1.948 1.548 0.9236 0.8707 1.1375 1.808 2.048 1.808
665.498 1.728 2.348 3.068 3.678 5.078 7.028 9.698 14.028 19.428 23.388
684.787 25.778 27.498 27.618 26.518 25.248 22.148 17.168 12.728 10.098 9.758
704.077 11.068 14.028 17.838 20.748 22.758 27.648 40.178 44.068 30.428 21.358
723.367 19.968 17.438 13.938 9.788 6.498 4.858 4.018 3.718 3.878 4.148
742.657 4.518 5.388 6.598 8.118 10.708 14.558 18.668 22.518 24.748 25.198
761.947 25.408 24.528 23.408 21.578 17.358 13.298 11.528 12.048 15.228 21.538
781.236 30.028 39.858 50.088 59.208 68.848 82.328 97.568 96.358 73.118 55.648
800.526 48.798 40.208 29.888 19.918 12.558 8.458 5.728 3.918 3.578 3.468
819.816 3.408 3.638 3.848 3.148 2.388 2.778 2.398 1.818 2.288 2.378
839.106 2.268 1.848 1.558 1.648 1.638 1.738 1.718 1.738 1.968 2.128
858.395 2.298 2.268 2.188 2.348 2.568 3.098 3.658 4.248 4.828 5.378
877.685 6.118 7.778 10.328 13.708 19.318 28.058 39.888 54.158 70.058 85.628
896.975 98.358 106.778 109.158 107.048 99.508 85.658 69.728 52.938 37.198 25.428
916.265 18.388 14.568 11.938 9.788 8.228 7.318 5.908 4.488 3.968 4.058
935.555 4.208 4.038 3.408 3.128 3.568 3.798 3.628 3.268 2.948 3.178
954.844 3.558 3.358 3.328 3.858 4.258 4.258 4.118 4.848 5.278 4.578
974.134 4.538 4.548 4.128 4.198 4.318 3.948 4.148 4.498 4.648 5.308
993.424 5.318 5.588 6.028 6.428 6.458 6.068 6.258 6.348 6.488 6.718
1012.714 7.618 8.278 8.978 10.408 11.478 12.948 14.438 15.248 17.158 19.208
1032.003 21.288 24.178 27.408 30.438 33.438 35.158 35.108 33.898 31.208 28.298
1051.293 23.858 18.398 14.018 11.128 9.598 7.958 6.608 6.628 7.208 7.148
1070.583 6.928 8.018 9.418 12.598 16.098 19.398 23.818 25.608 27.958 31.158
1089.873 31.768 30.628 29.868 28.058 23.178 19.658 18.118 16.278 15.368 14.988
1109.163 16.098 17.698 19.388 22.868 29.698 40.248 53.798 70.188 86.358 100.928
1128.452 113.268 123.798 132.508 136.488 133.588 124.168 115.208 113.448 119.828 133.558
1147.742 150.378 170.028 195.688 224.878 256.088 291.008 326.568 361.958 394.188 417.278
1167.032 426.818 423.778 421.388 419.568 410.038 389.578 360.688 327.568 291.598 252.888
1186.322 212.128 173.448 140.098 113.698 93.098 77.438 65.618 55.508 47.348 41.618
1205.611 37.338 32.768 28.058 25.048 22.218 20.418 20.158 19.258 18.118 17.218
1224.901 16.478 15.178 15.108 15.318 14.338 13.558 13.918 13.668 13.648 14.948
1244.191 16.558 18.588 21.188 26.368 34.578 44.518 55.808 67.138 75.168 79.578
1263.481 81.388 79.918 76.818 69.548 57.498 44.678 34.948 29.968 28.478 29.338
1282.771 31.558 34.808 39.938 46.048 52.638 60.418 69.648 80.188 91.878 105.098
1302.060 120.308 139.088 162.878 192.528 228.448 269.258 312.548 354.978 393.548 426.038
1321.350 445.988 445.938 424.458 383.668 328.528 267.398 205.188 144.978 94.378 59.558
1340.640 38.878 27.328 20.728 16.628 13.738 11.808 10.358 9.078 8.258 7.588
1359.930 6.928 6.428 5.978 5.688 5.318 4.928 4.928 4.848 4.718 4.658
1379.219 4.898 5.208 5.228 5.388 5.588 5.608 5.658 5.798 5.788 5.748
1398.509 5.818 6.018 6.228 6.568 7.128 8.038 9.218 10.698 12.758 15.348
1417.799 18.518 22.378 26.768 32.368 39.548 48.118 58.598 70.978 85.458 101.118
1437.089 117.728 133.188 145.718 154.168 157.198 154.218 145.538 132.418 115.718 97.718
1456.378 80.608 67.048 58.398 53.258 50.818 49.478 48.258 46.438 43.518 39.578
1475.668 34.658 29.308 24.698 20.428 16.638 13.768 11.708 10.448 9.678 9.138
1494.958 8.748 8.588 8.398 7.978 7.258 6.758 6.538 6.078 5.808 5.538
1514.248 5.298 5.128 4.818 4.618 4.378 4.218 4.158 4.138 4.238 4.208
1533.538 4.458 4.518 4.218 4.098 3.848 3.608 3.498 3.448 3.348 3.298
1552.827 3.658 4.158 4.788 5.898 7.208 8.458 9.998 12.108 14.288 16.088
1572.117 17.818 19.238 19.998 20.318 19.938 18.978 17.908 16.578 15.158 13.588
1591.407 12.658 11.868 10.578 9.708 9.088 8.568 8.408 8.238 7.898 7.498
1610.697 6.698 5.908 5.638 5.128 4.378 3.888 3.658 3.428 3.188 2.868
1629.986 2.578 2.468 2.448 2.648 2.788 2.598 2.618 2.848 2.918 3.078
1649.276 3.158 3.318 3.518 3.528 3.478 3.248 3.038 3.128 2.958 2.738
1668.566 2.698 2.618 2.548 2.488 2.608 2.668 2.848 3.128 3.508 4.038
1687.856 4.558 4.758 4.738 4.808 4.758 4.318 3.718 3.378 3.058 2.498
1707.146 2.138 1.948 1.878 1.898 1.688 1.668 1.928 1.918 1.858 2.048
1726.435 2.078 1.898 1.808 1.758 1.878 1.678 1.448 1.4123 1.3693 1.588
1745.725 1.738 1.718 1.708 1.998 2.188 2.188 2.318 2.328 2.268 2.228
1765.015 2.068 1.988 1.978 1.838 1.868 2.008 2.118 2.238 2.208 2.208
1784.305 2.308 2.368 2.408 2.638 2.838 2.968 3.188 3.358 3.428 3.398
1803.594 3.238 3.088 2.808 2.438 2.228 1.908 1.668 1.538 1.508 1.3401
1822.884 1.2426 1.2323 1.1729 1.2861 1.2726 1.1658 1.1537 1.0937 1.0447 1.1646
1842.174 1.2998 1.3112 1.4246 1.708 1.928 2.058 2.298 2.738 3.228 3.488
1861.464 3.878 4.268 4.308 4.368 4.108 3.648 3.418 2.958 2.358 1.968
1880.754 1.538 1.2109 1.0367 0.9802 1.0449 1.0231 1.0455 1.1792 1.0314 1.0211
1900.043 1.2545 1.269 1.3627 1.351 1.2157 1.305 1.3115 1.448 1.828 2.088
1919.333 2.348 2.698 3.178 3.568 3.958 4.338 4.568 4.878 4.948 4.718
1938.623 4.308 3.718 3.178 2.628 2.068 1.598 1.369 1.1675 0.9795 0.8869
1957.913 0.8373 0.8592 0.9241 0.8519 0.8288 0.85 0.6844 0.7375 0.9135 0.8741
1977.202 0.8737 0.9503 0.9502 0.8965 0.9234 0.9069 0.8426 0.8294 0.9366 0.9714
1996.492 0.9221 0.8427 0.6989 0.8114 0.9621 1.0196 0.8847 0.8193 0.8817 1.1026
2015.782 1.2414 1.2283 1.3333 1.3484 1.2534 1.2765 1.3855 1.4096 1.401 1.3876
2035.072 1.2271 1.0969 1.1496 1.1622 1.0968 1.1239 1.2434 1.343 1.3533 1.2722
2054.362 1.1826 1.2242 1.488 1.628 1.728 1.758 1.848 2.138 2.218 2.248
2073.651 2.368 2.318 2.388 2.528 2.408 2.278 2.128 1.878 1.678 1.518
2092.941 1.373 1.257 1.2641 1.2706 1.0961 1.0015 1.0653 0.9058 0.822 0.8544
2112.231 0.9094 0.9907 0.9113 0.8647 0.9488 1.0794 1.0143 1.1203 1.1944 1.0657
2131.521 1.014 0.9759 1.0332 0.8779 0.6921 0.8958 1.0517 1.0564 1.1289 1.1612
2150.810 1.2998 1.538 1.658 1.868 1.978 1.968 2.008 2.128 2.058 1.838
2170.100 1.758 1.638 1.468 1.2791 1.2938 1.3708 1.4223 1.3752 1.3235 1.2497
2189.390 1.1461 1.1871 1.235 1.2596 1.171 1.2084 1.274 1.1637 1.2437 1.2776
2208.680 1.1303 1.1408 1.2229 1.2267 1.3167 1.3952 1.458 1.498 1.4192 1.3857
2227.970 1.2999 1.458 1.588 1.3349 1.173 1.1593 1.4205 1.558 1.2398 1.1817
2247.259 1.3884 1.628 1.718 1.698 1.798 1.818 1.748 1.658 1.718 1.858
2266.549 1.968 1.878 1.618 1.468 1.508 1.818 1.868 1.748 1.758 1.688
2285.839 1.738 1.728 1.638 1.738 1.858 1.758 1.548 1.618 1.818 1.918
2305.129 1.998 1.968 1.928 1.868 1.728 1.778 2.038 2.058 2.008 1.988
2324.418 1.798 1.808 1.738 1.838 1.888 1.758 1.888 1.928 1.978 2.128
2343.708 2.228 2.378 2.458 2.398 2.488 2.288 2.398 2.728 2.618 2.538
2362.998 2.378 2.408 2.248 1.918 1.958 1.948 1.678 1.568 1.498 1.3696
2382.288 1.518 1.528 1.4156 1.1968 1.0162 1.2674 1.3537 1.1688 1.099 1.1915
2401.578 1.3473 1.3411 1.1282 1.0005 0.9887 0.9688 0.949 1.0291 1.0715 1.0705
2420.867 1.0255 1.0392 1.0395 1.0226 1.0829 0.9204 1.0683 1.1448 1.0399 1.1466
2440.157 1.1861 1.0793 1.146 1.1932 1.2105 1.2623 1.1557 1.0623 1.0083 0.8769
2459.447 0.7661 1.0306 1.2571 1.3893 1.3736 1.2942 1.2935 1.2697 1.508 1.628
2478.737 1.568 1.618 1.608 1.628 1.688 1.738 1.768 1.678 1.618 1.748
2498.026 1.718 1.638 1.798 1.698 1.4141 1.4049 1.508 1.3123 1.3054 1.548
2517.316 1.688 1.928 1.888 1.728 1.698 1.848 1.968 1.898 1.628 1.548
2536.606 1.818 1.758 1.488 1.3989 1.1924 1.1774 1.3804 1.688 2.028 2.058
2555.896 1.998 1.958 1.698 1.3675 1.3773 1.3771 1.2792 1.528 1.498 1.3042
2575.186 1.1965 1.0649 1.0821 1.1853 1.478 1.3412 1.0429 1.0767 1.2993 1.458
2594.475 1.498 1.3868 1.355 1.3681 1.1464 0.9859 0.8861 0.8999 1.1259 1.1608
2613.765 1.1789 1.3225 1.0146 0.6671 0.9418 1.299 1.2957 1.1889 1.1353 1.2887
2633.055 1.3724 1.411 1.458 1.1757 1.0913 1.0348 0.9588 1.0735 1.1928 1.0106
2652.345 0.8742 0.9947 0.6681 0.728 1.1887 1.1848 0.9178 0.8575 0.7935 0.8015
2671.634 0.7163 0.8273 0.9557 0.5963 0.6599 0.7773 0.49471 0.291 0.49572 0.6708
2690.924 0.6783 0.7775 1.0241 0.8963 0.7185 0.849 1.0147 1.1232 0.9273 0.7865
2710.214 1.0057 1.1265 0.8983 0.6327 0.5507 0.8298 1.0584 0.9386 0.7684 0.6683
2729.504 0.5544 0.7166 0.8458 0.7654 0.7788 0.7564 0.7631 0.6633 0.7435 0.6372
2748.794 0.3645 0.7093 0.8201 0.6743 0.6258 0.6929 0.8852 0.8829 0.8663 1.1261
2768.083 0.9824 0.7987 0.8868 0.7604 0.7756 0.7452 0.5617 0.6403 0.6988 0.5523
2787.373 0.6267 0.8401 0.9837 0.6996 0.4056 0.4022 0.5435 0.7623 0.8154 0.7853
2806.663 0.6347 0.6334 0.7034 0.5637 0.7624 0.9547 0.8555 0.746 0.7094 0.7618
2825.953 1.0267 0.9782 0.6974 0.8316 1.0223 0.9007 0.942 1.0276 0.8769 0.8796
2845.242 0.8258 0.6657 0.6188 0.8543 0.971 0.9408 0.7847 0.5889 0.8709 0.9609
2864.532 0.7055 0.7132 0.795 0.8605 0.7508 0.6564 0.5942 0.6899 0.6341 0.46247
2883.822 0.8378 1.1712 1.3169 1.1745 0.7085 0.8005 1.0126 1.0812 1.0578 0.912
2903.112 1.0977 1.0241 0.7483 0.5975 0.6542 0.8114 0.8048 0.9362 1.0211 1.2601
2922.401 1.2914 0.8906 0.7678 0.7688 0.8007 0.9445 0.9841 0.9262 0.8873 0.8871
2941.691 1.1496 1.3077 0.8385 1.036 1.1747 0.8314 0.8976 0.7494 0.8795 1.2234
2960.981 0.9052 0.6283 0.664 0.6378 0.8723 0.9934 1.0743 0.8497 0.5944 0.8143
2980.271 1.2297 1.0295 0.9007 1.1033 1.0102 0.9826 0.643 0.5624 0.5404 0.5496
2999.561 0.7654 0.7145 0.9978 1.2513 0.996 0.9158 1.0197 1.1011 1.3096 1.3857
3018.850 1.448 1.628 1.648 1.508 1.578 1.808 2.318 2.288 1.768 1.698
3038.140 1.768 2.118 2.298 2.048 1.908 1.668 1.458 1.458 1.3439 1.498
3057.430 1.498 1.568 1.788 1.818 1.568 1.3881 2.018 2.818 2.718 2.888
3076.720 3.398 3.478 3.988 4.758 5.148 5.398 6.008 6.298 6.068 5.748
3096.009 5.568 5.088 4.728 4.578 3.828 2.658 2.238 2.188 1.698 1.478
3115.299 1.3318 1.1267 1.262 1.412 1.3184 1.3288 1.538 1.2163 0.6486 0.7484
3134.589 1.0608 1.0201 0.7289 0.5884 0.8735 1.092 1.1428 1.1751 1.0316 1.0066
3153.879 1.1166 1.1583 1.0357 0.9862 1.1782 1.1854 1.12 0.8476 0.8422 0.9661
3173.169 0.7949 1.0406 0.9365 1.1022 1.1268 0.7553 0.9132 0.8717 0.6158 0.49595
3192.458 0.5948 0.6455 0.731 1.3084 1.202 0.7415 0.706 0.6232 0.6782 0.629
3211.748 0.7795 0.771 0.7591 0.8622 0.7164 0.7292 0.834 0.8029 0.8523 0.7324
3231.038 0.715 0.8301 0.7872 0.8025 0.6558 0.7633 0.9929 0.8414 0.8542 0.7784
3250.328 0.7076 0.8123 0.833 0.7262 0.52571 0.50197 0.3779 0.8154 1.448 1.0676
3269.617 0.7123 0.6002 0.52705 0.7502 0.7553 0.50157 0.411 0.46515 0.3719 0.6126
3288.907 0.9123 1.042 0.9852 0.8131 0.6795 0.5289 0.9558 1.3295 0.8954 0.5781
3308.197 0.7315 0.7243 0.7098 0.6609 0.6669 0.7725 1.2001 1.1071 0.45005 0.5606
3327.487 0.6818 0.44066 0.5842 0.5592 0.6008 0.5971 0.237 0.434944 0.5309 0.43941
3346.777 0.7464 1.0039 0.8548 0.8587 0.6511 0.327 0.3911 0.4908 0.659 0.7799
3366.066 0.7612 0.989 0.7592 0.3409 0.49721 0.6836 0.7215 0.45124 0.176 0.5581
3385.356 0.9649 1.1461 0.8317 0.291 0.404 0.50992 0.51394 0.9163 1.438 1.3177
3404.646 0.7715 0.7561 1.0372 1.1828 1.0122 0.48111 0.321 1.0734 1.678 1.2259
3423.936 0.9024 0.9308 0.821 0.8746 0.7594 0.3823 0.6434 0.8022 0.8035 0.6509
3443.225 0.5538 0.6705 0.45209 0.5755 0.8237 0.6578 0.6997 0.6995 0.9352 1.0675
3462.515 0.6489 0.50863 0.303 0.5772 0.7233 0.6307 0.6201 0.6117 0.44813 0.3487
3481.805 0.5745 0.9852 1.3434 1.2976 0.982 0.919 0.8592 0.9479 0.9598 1.0035
3501.095 1.548 1.538 0.6751 0.3926 0.5572 0.873 1.1008 0.7809 0.6477 0.51446
3520.385 0.695 0.7789 0.6274 0.48956 0.5739 0.8329 1.2158 0.9751 0.314 0.3558
3539.674 0.51458 0.4014 0.6216 0.8154 0.7156 1.1025 1.0973 0.5916 0.6959 0.9139
3558.964 1.1644 1.0099 0.9404 0.7071 0.26 0.309 0.44595 1.007 1.1727 0.9006
3578.254 0.6204 0.5866 0.7905 0.8845 1.0846 1.0195 1.1201 1.3996 1.0483 0.5872
3597.544 0.613 0.6599 0.8007 0.9687 0.6627 0.7523 0.9876 0.9053 0.7341 0.254
3616.833 0.251 0.50197 0.4571 0.8087 0.8389 0.5332 0.3629 0.46827 0.6626 0.6755
3636.123 0.933 0.9709 0.7953 0.6278 0.6103 0.7139 0.731 0.762 0.8748 0.8784
3655.413 0.6371 0.6181 0.9843 1.4031 1.538 1.2844 0.8871 0.9257 0.9353 1.1467
3674.703 0.7531 0.281 0.6371 0.9516 1.1497 0.953 0.9727 1.3984 1.3598 0.9668
3693.993 1.0871 1.1657 1.1444 0.5714 0 0.6414 1.3859 1.2452 0.8331 0.7825
3713.282 0.6427 0.295 0.432982 0.6389 0.6214 0.45856 0.3975 0.653 0.7505 0.8662
3732.572 0.8135 0.6634 0.7329 1.3486 1.2387 1.1686 1.608 1.2079 0.7266 0.6053
3751.862 0.8407 1.0738 1.0901 1.1539 0.9433 1.0065 1.243 0.8901 0.862 1.2134
3771.152 1.2782 1.0782 0.9203 1.0601 1.0469 0.6867 0.7192 0.6182 0.7259 1.0402
3790.441 0.7056 0.50718 0.8332 1.1076 1.1066 0.7425 0.171 0.6866 0.9288 0.66
3809.731 0.6729 0.6304 0.9192 0.795 0.43698 0.6789 0.8733 1.0247 1.0041 0.3762
3829.021 0.166 0.3507 0.8854 1.2559 0.9339 1.1711 1.608 1.2688 0.8428 1.2091
3848.311 1.1628 0.9051 1.2871 1.1138 0.8925 0.8585 0.9765 0.92 0.926 1.0877
3867.601 1.0073 1.1926 1.0498 0.679 0.8022 0.8348 0.7617 0.6618 0.5363 0.9384
3886.890 1.3848 0.9848 0.6121 0.3546 0.51194 1.007 0.7983 0.6875 0.9142 0.921
3906.180 0.7284 0.6517 0.4899 0.7586 1.1584 1.2051 1.0783 1.0658 1.2457 0.8994
3925.470 0.6436 0.9202 1.0799 0.6789 0.222 0.6473 0.8696 1.3776 1.3746 0.8172
3944.760 0.6769 0.608 1.1103 1.1167 0.52731 0.3832 0.7254 0.6418 0.5765 0.7563
3964.049 0.9111 0.8375 0.52551 0.7125 1.2702 1.2624 0.8477 0.6787 0.7422 0.8752
3983.339 0.6474 0.7059 0.7584 0.5909 0.7927 1.2087 1.4081 1.538 1.498 1.198
##END=
