##TITLE=8-Phenyl-N-octanol
##JCAMP-DX=4.24
##DATA TYPE=INFRARED SPECTRUM
##ORIGIN=EPA-IR VAPOR PHASE LIBRARY
##OWNER=SRD/NIST
Collection (C) 2018 copyright by the U.S. Secretary of Commerce
on behalf of the United States of America. All rights reserved.
##CAS REGISTRY NO=10472-97-6
##MOLFORM=C 14 H 22 O
##$NIST SOURCE=MSDC-IR
##STATE=gas
##XUNITS=1/CM
##YUNITS=ABSORBANCE
##XFACTOR=1.
##YFACTOR=0.001
##DELTAX=1.92898
##FIRSTX=549.8
##LASTX=4000.7
##FIRSTY=2.3288
##MAXX=4000.7
##MINX=549.759
##MAXY=0.229649
##MINY=0
##NPOINTS=1790
##XYDATA=(X++(Y..Y))
549.759 2.3288 2.2788 2.5888 2.8388 2.5088 2.7788 3.5388 3.9388 3.8888 3.5288
569.049 3.8988 4.5988 4.0888 3.7488 3.3488 2.7088 2.5988 2.1888 2.6388 3.2388
588.339 2.6288 3.0088 3.0288 2.4388 2.0888 1.6388 2.0088 2.0288 1.4688 1.5188
607.628 1.7688 1.6288 1.1488 1.1288 1.5188 1.8288 2.0388 1.6188 1.1088 1.1288
626.918 1.2288 0.9681 0.9775 1.2088 1.2688 0.9841 1.1588 1.9388 2.2888 1.6288
646.208 1.5888 2.0288 1.6888 1.8088 2.4788 3.0588 3.5688 3.4588 3.6488 4.1288
665.498 4.2588 4.7288 5.4788 6.2488 6.9288 7.8788 8.8488 10.0188 11.6788 13.5388
684.787 15.6788 18.5288 22.1588 26.7288 31.4888 35.3388 37.4388 37.0688 34.8288 31.5888
704.077 28.3488 25.8888 24.1288 22.7888 22.1288 21.6588 21.1288 21.0688 20.9288 20.7388
723.367 21.2788 21.9288 22.5188 23.0588 24.1488 25.7488 26.8188 27.7988 27.6388 26.7988
742.657 26.0388 24.2588 21.6388 19.1788 16.8788 14.6388 12.7688 11.2588 10.1588 9.1888
761.947 8.3788 7.6988 6.7188 6.0288 5.6588 5.0488 4.6588 4.0788 3.5288 3.1588
781.236 3.4688 3.6288 3.1688 3.2188 3.1388 2.9588 3.2288 3.4788 3.0888 2.8488
800.526 2.7088 2.4688 2.8488 2.8288 2.5288 2.8388 3.1088 3.1388 2.7088 2.7088
819.816 3.1188 3.4288 3.9688 2.9488 2.3588 2.6988 2.6188 2.7488 2.6688 2.9188
839.106 3.1488 3.0188 2.7588 2.8788 3.1988 3.0488 3.1588 3.1388 3.2988 3.5288
858.395 3.2388 3.4388 3.5188 3.3488 3.5588 3.4888 3.5588 3.8688 3.9888 4.2488
877.685 4.6788 4.7588 4.4988 4.3088 4.0988 4.4788 4.7988 4.8088 4.7888 4.7488
896.975 5.1188 5.6688 6.2188 6.2388 5.8888 5.8488 5.5288 5.5288 5.8088 5.2888
916.265 5.2988 5.8688 5.7088 5.6088 5.7288 5.5788 5.2388 5.3588 5.7088 5.6488
935.555 5.8088 5.8588 5.8688 6.0188 6.1488 6.4388 6.7488 6.7288 6.9388 7.2288
954.844 7.1588 7.0688 7.0688 7.4388 7.5288 7.4388 7.6388 8.0988 8.4588 8.2988
974.134 8.5988 9.1288 9.5888 9.9088 9.9688 10.3688 10.7788 11.2788 11.7788 12.1188
993.424 12.9088 13.6788 14.0688 14.8288 16.0088 17.1488 17.7988 18.7488 20.0988 21.4288
1012.714 22.4388 23.6088 25.1388 26.8688 28.8488 31.1288 33.5688 35.7288 37.1288 38.1488
1032.003 39.7188 40.3988 40.2388 40.3288 40.4688 40.0488 39.5088 38.8088 38.2388 38.4088
1051.293 38.0788 37.2888 35.5588 34.2088 33.0988 31.2088 30.3288 28.9988 27.5188 26.6888
1070.583 25.0388 23.3888 23.3788 22.7088 22.1188 21.7788 20.2188 19.2288 18.2288 17.3988
1089.873 16.5088 15.3488 14.3988 14.2188 13.4488 11.6288 10.0388 9.8288 9.1088 9.0788
1109.163 9.4288 8.1688 8.2388 8.2188 8.2088 7.5988 6.7088 6.9788 6.5988 5.8588
1128.452 5.7388 5.7888 6.1788 6.0688 5.7288 5.4988 5.6688 5.4688 5.2588 5.5088
1147.742 5.1388 5.7788 5.8788 4.8988 4.7788 6.0388 6.0788 5.1888 5.2988 5.9988
1167.032 6.4188 6.3288 6.2088 5.8688 5.7888 6.4588 6.7788 6.6988 7.1688 6.7288
1186.322 6.9988 7.7888 7.1088 6.8688 7.1488 7.4688 7.0188 5.8588 6.3988 7.1688
1205.611 7.3488 6.5188 6.5288 8.4788 7.7488 6.8288 7.3488 7.5688 6.3988 5.3888
1224.901 5.5488 7.0388 8.2388 7.5688 8.3388 9.0088 8.3488 8.1888 8.4788 8.4188
1244.191 8.1588 7.9388 8.0288 8.1388 7.8988 7.7788 7.8088 8.1488 8.0888 7.3288
1263.481 7.4888 7.5388 7.9188 8.4388 8.2388 7.8688 7.7888 7.8588 7.5688 7.4488
1282.771 7.8088 7.8788 7.6988 7.7788 7.8688 8.1188 8.1888 8.1188 8.1688 8.2588
1302.060 8.4188 8.4788 8.5988 8.5588 8.3888 8.3688 8.4888 8.4788 8.3688 8.5188
1321.350 8.5588 8.5788 8.7288 8.8788 9.1688 9.2988 9.4388 9.6588 9.9388 10.3988
1340.640 10.8888 11.3688 11.6888 11.9788 12.3688 12.7388 12.9088 12.7988 12.5988 12.4288
1359.930 12.0788 11.8788 11.9788 12.0388 11.9788 11.8688 11.9388 12.0588 12.0488 12.1288
1379.219 12.1688 12.1688 12.2688 12.2088 12.0988 11.8888 11.4688 11.1488 10.6588 9.9988
1398.509 9.4388 8.9488 8.3888 7.8188 7.5388 7.1588 6.8288 6.7988 6.7388 6.5688
1417.799 6.4188 6.3288 6.4888 6.6588 6.6988 7.0288 7.6588 8.4588 9.2488 9.9988
1437.089 10.9988 12.4088 13.9088 15.3388 16.8288 18.3088 19.6688 20.6788 21.3888 21.8288
1456.378 22.0488 21.8988 21.2388 20.1388 18.8688 17.5588 16.1688 14.8988 13.9488 13.0188
1475.668 12.2188 11.6388 11.1188 10.8688 11.2288 11.9488 12.8488 14.2188 16.2788 18.3388
1494.958 19.4688 19.4988 18.3488 15.9588 12.7588 9.7188 7.3488 5.9488 5.0888 4.2488
1514.248 3.6088 3.2388 2.9488 2.6888 2.6088 2.5388 2.5488 2.4988 2.4588 2.5088
1533.538 2.5088 2.3188 2.2588 2.2188 2.0888 2.0588 1.9088 1.9588 2.0388 1.8988
1552.827 1.9488 1.9988 1.8988 1.9088 1.9988 2.0788 2.2788 2.4688 2.5088 2.4788
1572.117 2.6288 2.8388 3.2188 3.6088 3.7188 4.1888 4.7488 5.1688 5.5788 5.8588
1591.407 6.3888 7.1388 7.7488 8.5188 9.1288 9.8388 10.2588 9.9288 9.1288 7.9088
1610.697 6.5288 5.1088 4.0488 3.3188 2.7988 2.4388 2.0888 1.7688 1.5488 1.5388
1629.986 1.5088 1.2588 1.3588 1.3888 1.0888 1.2088 1.4388 1.5088 1.4888 1.3788
1649.276 1.3288 1.2488 1.1388 1.0788 1.0517 1.0496 0.9321 0.853 0.9006 0.8626
1668.566 0.8508 0.825 0.8152 0.8688 0.9399 0.9377 0.8397 0.7669 0.6636 0.717
1687.856 0.792 0.7312 0.7199 0.7062 0.7356 0.7037 0.7333 0.9815 1.0246 0.9005
1707.146 0.9689 1.0135 0.9304 0.9255 0.9433 0.9669 1.0383 1.0788 0.9946 1.0503
1726.435 1.2488 1.2688 1.1488 1.1988 1.1788 1.2988 1.3688 1.1988 1.2188 1.2988
1745.725 1.3688 1.3288 1.2288 1.1688 1.2288 1.3388 1.3388 1.2488 1.1488 1.2288
1765.015 1.3288 1.2088 1.1488 1.2688 1.3688 1.4988 1.6388 1.7688 1.9888 2.0988
1784.305 2.2288 2.5088 2.7888 2.8688 2.9588 3.1588 3.0988 2.7388 2.4888 2.1788
1803.594 1.8388 1.7688 1.6788 1.5588 1.4788 1.4288 1.3588 1.3688 1.2788 1.1788
1822.884 1.2188 1.1688 1.1788 1.2888 1.2588 1.1988 1.1288 1.1288 1.2688 1.2788
1842.174 1.2988 1.3888 1.2888 1.3988 1.6588 1.6888 1.6888 1.7588 1.7788 1.9488
1861.464 2.0588 1.9288 1.9088 2.0888 2.1288 2.1488 2.1888 2.1088 2.1088 1.9488
1880.754 1.7788 1.6988 1.6588 1.6288 1.4388 1.2188 1.0013 0.8807 0.8502 0.9418
1900.043 1.1488 1.1688 1.0391 1.0514 1.0588 1.1488 1.3188 1.2888 1.2588 1.3188
1919.333 1.5688 1.7088 1.8688 1.9988 2.0488 2.3288 2.5088 2.6788 2.7588 2.7688
1938.623 2.8488 2.8388 2.7988 2.7888 2.8888 2.9188 2.8388 2.5388 2.1988 2.1488
1957.913 1.8388 1.4588 1.2988 1.1888 1.1788 1.0688 1.0126 1.0579 0.9771 0.9991
1977.202 1.0788 0.9855 0.8856 1.0043 1.0888 1.0118 0.9941 0.901 0.8905 0.926
1996.492 0.781 0.6524 0.7486 0.92 0.9148 0.9449 1.0066 1.0212 1.0267 0.9722
2015.782 0.9836 1.0074 1.041 1.1388 1.0888 0.9746 1.0334 1.2288 1.1288 1.0788
2035.072 1.1488 1.0232 1.0888 1.1288 1.0397 1.1188 1.1788 1.1688 1.1388 1.0447
2054.362 1.0988 1.1688 1.0888 1.0788 1.1588 1.1688 0.8993 0.7664 0.9153 0.9672
2073.651 1.0331 0.9646 0.8524 0.8497 0.867 0.9237 0.9821 0.8598 0.7142 0.6409
2092.941 0.8435 0.904 0.8017 0.7873 0.7132 0.7551 0.7026 0.6227 0.6768 0.8234
2112.231 0.8738 0.8043 0.7379 0.779 0.8122 0.6474 0.5241 0.6163 0.6451 0.5926
2131.521 0.5137 0.5174 0.6153 0.7832 0.8983 0.887 0.9305 0.9044 0.8655 0.801
2150.810 0.8852 0.9527 0.7711 0.7865 0.8763 0.9122 0.9853 0.9634 1.0342 1.0555
2170.100 0.9473 0.8241 0.88 0.9585 0.7828 0.7191 0.7467 0.8622 0.9963 0.8214
2189.390 0.8335 1.0056 0.9543 0.8605 0.9209 0.9522 0.7839 0.8991 0.985 0.8176
2208.680 0.8708 0.8949 0.7441 0.7653 0.7086 0.6439 0.7433 0.7838 0.837 0.687
2227.970 0.5695 0.6562 0.6012 0.5575 0.7224 0.8349 0.7591 0.607 0.6192 0.8363
2247.259 0.8659 0.8515 0.8991 0.7592 0.801 1.1388 1.1488 1.0293 0.9163 0.7546
2266.549 0.7864 0.7337 0.6312 0.689 0.8247 0.8383 0.7736 0.8816 0.9445 0.9195
2285.839 1.0016 0.9017 0.8041 0.8999 0.9545 1.0023 1.0249 1.0435 1.1288 1.1588
2305.129 1.0788 1.1188 1.2088 1.1088 1.1188 1.1688 1.1988 1.2288 1.0688 1.1488
2324.418 1.2288 1.0788 1.0137 0.9498 1.0033 1.0383 0.9375 0.8893 0.8993 1.0333
2343.708 1.2188 1.2288 1.0588 1.0442 1.0788 1.0024 1.0888 1.0988 0.9486 1.1388
2362.998 1.3588 1.1888 1.0988 1.1888 1.1088 0.9887 0.9864 1.0139 0.8969 0.7476
2382.288 0.7247 0.9015 1.0888 0.9701 0.8969 1.1088 1.0216 0.9172 0.9133 0.8476
2401.578 1.0494 1.1888 1.1188 0.9833 1.0393 0.9975 0.8862 0.8944 0.8248 0.8203
2420.867 0.9653 1.0888 1.1288 0.9538 0.7753 0.8048 0.8455 0.7814 0.7576 0.8173
2440.157 0.997 1.0788 1.0388 0.9544 0.7606 0.8942 1.1088 0.8808 0.8388 0.9587
2459.447 1.1888 1.1888 1.0888 1.2088 1.0888 0.9306 0.9198 0.9277 0.8262 0.8701
2478.737 0.8397 0.6531 0.5967 0.8558 1.0278 0.9492 1.0199 1.0688 1.0254 1.0888
2498.026 1.1088 1.0367 0.9041 0.8583 1.0688 1.0282 0.8897 1.0588 1.1388 0.9981
2517.316 0.9896 1.0563 1.0988 1.0039 0.8358 0.8978 1.0988 1.2988 1.2688 1.1188
2536.606 1.3588 1.5188 1.3388 1.3588 1.3488 1.2588 1.1688 1.0888 1.0988 1.1688
2555.896 1.1588 1.2988 1.3188 1.2788 1.3988 1.4588 1.4788 1.3388 1.3388 1.4788
2575.186 1.6288 1.5488 1.3788 1.3788 1.4388 1.5888 1.5888 1.5388 1.5688 1.5988
2594.475 1.5288 1.5988 1.8388 1.8188 1.7988 1.6888 1.5888 1.8888 1.7888 1.5888
2613.765 1.7088 1.9388 2.0188 1.7988 2.0088 2.3588 2.1888 2.0188 2.1788 2.1788
2633.055 2.0988 2.1888 2.2988 2.2188 2.1588 2.3488 2.4588 2.4788 2.5488 2.5488
2652.345 2.3288 2.2788 2.4288 2.3088 2.6488 2.8788 2.5188 2.5988 2.9088 2.8388
2671.634 2.7688 2.8688 2.7688 2.9488 3.1988 3.2488 3.1488 3.0888 3.2088 3.0788
2690.924 3.0288 3.1688 3.1988 3.1388 3.1588 3.2288 3.2988 3.4788 3.4888 3.2388
2710.214 3.2788 3.1588 2.9788 3.0188 3.0988 3.2688 3.3388 3.3488 3.3288 3.2888
2729.504 3.2688 3.4788 3.8288 3.6888 3.6288 3.8388 3.8388 3.9788 4.0388 3.8388
2748.794 4.0488 4.2688 4.1788 4.2988 4.5688 4.3688 4.2688 4.5588 4.6788 4.7888
2768.083 4.8388 4.8488 4.9288 5.2088 5.3788 5.6588 5.8488 5.7188 5.7088 5.9388
2787.373 6.1188 6.4488 6.8888 7.0388 7.2888 7.3888 7.3688 7.8688 7.9288 7.9488
2806.663 8.5188 8.7488 8.9088 9.3688 9.7588 10.0688 10.7688 11.2388 11.6588 12.2888
2825.953 12.7688 13.5988 14.7188 15.6488 16.6788 18.0188 19.5388 21.4188 23.7588 26.5688
2845.242 30.1688 34.6088 39.5588 45.4788 52.6088 60.3788 68.2788 75.6288 82.0288 86.2988
2864.532 88.3588 88.1888 85.9188 82.6388 78.5888 74.2088 69.9788 66.2388 63.2088 60.3988
2883.822 58.0788 56.2788 54.9688 54.4088 54.1088 54.8588 56.0888 57.9888 60.9788 64.3488
2903.112 68.0588 72.7388 78.4488 84.2888 90.3888 97.2688 105.319 114.319 124.509 136.619
2922.401 150.379 165.179 180.709 195.939 209.659 220.739 227.659 229.649 225.809 215.949
2941.691 201.349 183.889 165.019 145.389 126.629 110.029 95.0888 82.2688 72.0088 63.2788
2960.981 55.8988 49.5188 43.9588 39.4588 35.1888 31.5088 28.5888 25.5588 23.0088 20.6588
2980.271 18.6688 17.2288 15.9788 14.9488 13.8588 13.2488 12.9188 12.3488 11.9888 11.8588
2999.561 11.9188 12.3888 12.5788 12.7988 13.1488 13.8688 14.6288 15.1688 16.2888 17.8888
3018.850 19.5888 21.8488 24.4788 26.9888 29.9788 32.5888 34.1688 34.7088 33.7588 31.6488
3038.140 28.8188 25.8388 22.8488 20.3288 18.5488 17.1588 16.4788 16.4388 16.7088 17.4888
3057.430 18.4588 19.8788 22.0188 24.6088 27.2688 29.3988 30.9288 30.5588 29.0088 26.6988
3076.720 23.9288 21.6688 19.8588 18.4288 17.5488 16.8188 15.8188 15.1188 14.1988 13.0188
3096.009 11.9888 10.9488 10.1188 9.3488 8.4388 7.8888 7.5088 6.6788 6.1988 5.8388
3115.299 5.2688 4.6288 3.9088 3.3388 2.9888 2.6688 2.3988 2.1288 1.8588 1.7888
3134.589 1.8088 1.9788 1.9088 1.9088 1.8088 1.6288 1.3888 1.3388 1.2488 1.0788
3153.879 1.3488 1.4588 1.3988 1.0988 1.2688 1.5888 1.1588 1.1688 1.5988 1.7388
3173.169 1.4788 1.4088 1.3088 1.2588 1.2188 1.0308 1.0688 0.9819 1.2888 1.5088
3192.458 0.9889 0.6689 0.9136 1.1088 1.0362 0.7564 0.4368 0.474 0.4871 0.4007
3211.748 0.6123 0.7572 0.9017 0.8553 0.4629 0.5487 0.7485 1.0168 1.2288 1.0545
3231.038 0.9924 0.8869 0.678 0.6318 0.7034 0.8118 0.667 0.6265 0.6369 0.4513
3250.328 0.7059 0.9256 0.6445 0.9274 1.0379 0.7844 0.7711 0.6107 0.8549 1.1988
3269.617 1.2688 1.1688 0.7689 0.3195 0.5473 0.5385 0.5237 0.4814 0.3564 0.4916
3288.907 0.3797 0.4628 0.6779 0.6311 0.2923 0.068168 0 0.3955 0.8472 0.7478
3308.197 0.7105 0.9877 0.9382 1.0888 0.8024 0.2949 0.5903 0.585 0.5818 0.4783
3327.487 0.5654 0.8263 1.0413 0.7928 0.6462 0.8389 0.6131 0.6672 0.8573 0.6463
3346.777 0.4495 0.3831 0.536 0.7771 0.6499 0.8237 0.9549 0.7948 0.5407 0.8373
3366.066 1.4388 1.2188 0.5375 0.4982 0.6712 0.4445 0.6478 0.5223 0.4365 0.9252
3385.356 0.868 0.7625 0.9052 0.6258 0.3541 0.3115 0.451 0.6284 0.8965 0.889
3404.646 0.6575 0.6207 0.6362 0.8032 0.8312 0.717 0.6478 0.6169 0.6564 0.798
3423.936 0.9416 0.7772 0.5836 0.7565 0.5972 0.7125 0.8614 0.3976 0.4905 0.8522
3443.225 0.8259 0.7901 0.7615 0.7595 0.8567 1.0888 1.2288 1.0281 1.3288 1.4488
3462.515 1.0094 1.0492 1.1688 0.8652 1.0321 0.9374 0.7073 0.8334 0.9399 1.0588
3481.805 0.8137 0.6705 0.731 0.8655 0.7221 0.3283 0.63 0.9199 0.5018 0.564
3501.095 0.9572 1.0319 1.3588 1.4688 1.0059 0.6608 1.0135 1.3788 1.2988 1.1388
3520.385 0.8495 0.8351 0.8678 0.6976 0.5802 0.7335 1.05 0.9651 0.8673 0.8314
3539.674 0.7491 0.9228 0.5904 0.7236 0.9904 0.7527 0.6177 0.5706 0.9346 1.1088
3558.964 1.2088 1.1188 1.0431 1.2188 0.9643 0.5974 0.4897 0.6251 0.7844 0.9955
3578.254 0.9692 0.7749 0.7993 1.3088 1.4788 1.3088 1.4688 1.3488 1.3888 1.6188
3597.544 1.5688 1.4988 1.3388 1.4288 1.2988 1.2088 1.6988 1.8288 1.8888 1.6888
3616.833 1.4788 1.5188 1.7588 2.0388 2.5488 3.0988 2.8388 2.7388 2.9788 2.9088
3636.123 3.6388 4.0088 3.7388 4.2688 4.6788 5.1388 5.7888 6.2988 7.0888 8.1488
3655.413 8.7988 9.4388 9.9088 10.2088 10.8088 11.0688 10.7388 10.6088 10.7188 10.3188
3674.703 9.2588 8.8088 8.5788 7.2588 6.0988 5.7788 4.9688 4.0988 4.1688 3.9388
3693.993 3.6488 3.3788 3.2088 3.0488 2.5688 2.2088 1.9188 1.7388 1.6188 1.7188
3713.282 1.8388 1.7788 1.4888 1.1488 1.2388 1.3388 1.1688 0.8374 0.8172 1.2588
3732.572 1.1588 0.7004 0.695 0.8955 1.1688 1.2388 1.2988 1.5888 1.2188 0.7868
3751.862 1.0688 1.3988 1.4488 1.0988 0.966 1.3188 1.3988 1.1888 1.1088 1.1488
3771.152 1.0421 0.8964 1.2888 1.4888 1.2388 1.3488 1.4988 1.0788 0.8683 1.0255
3790.441 1.1988 1.2488 1.1388 1.2988 1.3488 1.6688 1.7888 1.2688 1.1688 1.4588
3809.731 1.5088 1.3588 1.2788 1.3388 1.4388 1.5688 1.6088 1.3588 1.3588 1.1788
3829.021 0.8688 0.9913 1.0112 1.0456 1.3288 1.4688 1.3588 1.2888 1.2888 1.4788
3848.311 1.5988 1.3588 1.1488 1.2988 1.3488 0.9487 0.577 0.8499 1.0788 1.0066
3867.601 1.1488 1.2588 1.6688 1.7088 1.4088 1.2388 1.3488 1.3488 1.3988 0.9488
3886.890 0.434 0.6696 0.8647 1.3188 1.9788 1.9388 1.5088 1.3588 1.3188 1.5188
3906.180 1.6288 1.2488 0.9586 1.1888 0.9931 0.8345 0.9144 1.1088 1.0367 1.0988
3925.470 1.2988 0.9072 0.5336 0.415 0.7626 1.0588 0.8454 1.0455 1.1188 0.7865
3944.760 0.7899 1.2188 1.1988 0.5477 0.5163 0.9762 1.0415 0.926 1.0347 1.2288
3964.049 1.2088 1.2888 1.3788 1.1088 0.9853 1.1788 1.0172 1.0074 0.925 0.7294
3983.339 1.0888 0.8942 0.6878 0.5621 0.4959 0.6411 0.8093 0.9307 0.7662 0.8328
##END=
