##TITLE=Methyl pentafluoropropionylacetate
##JCAMP-DX=4.24
##DATA TYPE=INFRARED SPECTRUM
##ORIGIN=EPA-IR VAPOR PHASE LIBRARY
##OWNER=SRD/NIST
Collection (C) 2018 copyright by the U.S. Secretary of Commerce
on behalf of the United States of America. All rights reserved.
##CAS REGISTRY NO=104857-88-7
##MOLFORM=C 6 H 5 F 5 O 3
##$NIST SOURCE=MSDC-IR
##STATE=gas
##XUNITS=1/CM
##YUNITS=ABSORBANCE
##XFACTOR=1.
##YFACTOR=0.001
##DELTAX=1.929
##FIRSTX=549.8
##LASTX=4000.8
##FIRSTY=4.746
##MAXX=4000.75
##MINX=549.766
##MAXY=0.222826
##MINY=0
##NPOINTS=1790
##XYDATA=(X++(Y..Y))
549.766 4.746 4.406 4.146 4.176 4.296 4.136 4.006 4.006 3.936 3.936
569.056 3.926 3.966 4.186 4.206 3.986 3.856 4.196 4.426 4.416 4.306
588.346 4.386 4.706 4.876 5.106 5.526 5.926 6.216 6.606 6.956 6.986
607.636 7.026 7.236 7.186 7.256 7.496 7.536 7.126 6.876 6.856 6.516
626.926 6.326 6.356 6.396 6.336 6.516 6.536 6.446 6.656 6.676 6.806
646.216 7.066 7.216 7.336 7.616 8.036 8.336 8.706 9.136 9.746 10.036
665.506 10.636 12.276 11.416 9.246 8.246 7.396 6.606 5.916 5.616 5.386
684.796 4.976 4.886 4.936 4.796 4.666 4.646 4.766 4.956 5.136 5.276
704.086 5.626 6.136 6.516 6.776 6.986 7.076 7.076 7.016 6.926 6.726
723.376 6.366 6.306 6.426 6.386 6.436 6.666 6.726 6.976 7.626 8.376
742.666 9.536 10.996 12.256 13.236 13.786 13.666 12.996 11.766 10.016 8.066
761.956 6.366 5.296 4.596 4.056 3.696 3.476 3.366 3.316 3.346 3.516
781.246 3.706 3.906 4.076 4.156 4.326 4.476 4.606 4.676 4.836 5.106
800.536 5.276 5.526 6.036 6.486 6.956 7.286 7.546 8.146 8.506 8.596
819.826 8.566 8.386 8.156 7.886 7.446 7.086 6.906 6.806 6.976 7.306
839.116 7.536 7.706 7.726 7.726 7.586 7.216 6.676 6.026 5.206 4.446
858.406 3.926 3.516 3.236 3.096 3.026 3.036 3.006 2.876 2.966 3.106
877.696 3.126 3.196 3.356 3.446 3.516 3.716 3.856 3.956 4.056 4.256
896.986 4.556 4.756 5.046 5.456 5.786 6.196 6.726 7.186 7.566 8.006
916.276 8.326 8.686 8.966 9.156 9.456 9.666 9.896 10.216 10.686 11.216
935.566 11.666 12.096 12.516 12.856 13.166 13.386 13.396 13.306 13.396 13.766
954.856 14.246 14.846 15.656 16.646 17.746 19.116 20.686 22.326 24.036 25.926
974.146 27.976 29.946 31.796 33.636 35.626 37.686 39.816 41.866 43.376 44.176
993.436 44.046 42.676 40.216 36.756 32.466 28.076 24.306 21.456 19.546 18.336
1012.726 17.476 16.996 16.846 16.636 16.186 15.616 15.336 15.026 15.066 16.196
1032.016 18.226 17.756 15.596 15.176 15.346 15.606 15.776 15.686 15.386 15.066
1051.306 14.616 14.226 13.966 13.846 13.766 13.756 13.936 14.186 14.546 15.076
1070.596 15.586 16.076 16.696 17.426 18.036 18.556 19.096 19.596 20.006 20.386
1089.886 20.866 21.456 22.106 22.906 23.966 25.326 27.126 29.306 31.686 34.216
1109.176 36.596 38.516 39.886 40.456 40.306 39.606 38.456 37.296 36.246 35.446
1128.467 35.066 35.056 35.356 35.786 36.346 37.026 37.856 38.776 39.906 41.236
1147.757 42.756 44.476 46.266 48.166 50.226 52.306 54.326 56.386 58.436 60.146
1167.047 61.536 62.646 63.406 63.736 63.686 63.416 63.126 62.966 63.286 64.336
1186.337 66.106 68.846 72.636 77.666 84.226 92.296 101.706 112.476 124.596 137.756
1205.627 151.486 165.446 178.946 191.236 202.126 211.076 217.636 221.626 222.826 221.026
1224.917 216.016 208.036 197.436 185.436 173.076 161.016 149.996 140.236 131.816 124.676
1244.207 118.626 113.426 108.816 104.296 99.416 94.116 88.496 82.656 76.686 70.836
1263.497 65.296 60.226 55.746 51.886 48.486 45.366 42.566 40.076 37.876 36.046
1282.787 34.496 33.176 32.146 31.426 30.896 30.526 30.376 30.426 30.736 31.326
1302.077 32.086 33.106 34.476 36.126 38.016 40.186 42.616 45.226 47.856 50.356
1321.367 52.506 54.016 54.806 54.806 53.976 52.356 49.966 47.106 44.116 41.136
1340.657 38.346 35.846 33.646 31.596 29.756 28.206 26.786 25.396 24.026 22.736
1359.947 21.516 20.286 19.226 18.306 17.456 16.866 16.496 16.186 15.956 15.876
1379.237 16.056 16.356 16.786 17.366 17.896 18.506 18.976 19.096 19.106 18.886
1398.527 18.336 17.606 16.646 15.436 14.196 12.996 11.886 10.966 10.146 9.396
1417.817 8.796 8.396 8.186 8.116 8.196 8.406 8.886 9.696 10.786 11.946
1437.107 13.186 14.516 15.766 16.926 17.806 18.096 17.966 17.646 17.076 16.086
1456.397 14.516 12.846 11.346 9.966 8.806 7.926 7.286 6.676 6.146 5.716
1475.687 5.356 5.136 4.896 4.586 4.396 4.216 4.006 3.866 3.826 3.776
1494.977 3.646 3.536 3.466 3.436 3.376 3.276 3.116 3.116 3.166 3.146
1514.267 3.156 3.106 3.066 2.936 2.986 3.066 3.046 3.096 3.146 3.106
1533.557 3.066 3.196 3.196 3.116 3.126 3.086 3.026 3.086 3.096 3.106
1552.847 3.096 3.106 3.086 2.906 2.976 3.146 3.166 3.126 3.076 3.056
1572.137 3.086 3.076 3.036 3.026 3.026 3.016 2.996 2.966 2.976 2.976
1591.427 2.986 2.956 2.926 2.976 3.066 3.126 3.186 3.266 3.416 3.566
1610.717 3.766 4.016 4.226 4.496 4.906 5.416 5.986 6.646 7.326 8.096
1630.007 9.056 10.026 11.046 12.276 13.676 15.106 16.546 17.826 18.946 19.896
1649.297 20.506 20.696 20.536 20.186 19.646 19.046 18.506 18.116 18.006 18.146
1668.587 18.456 19.066 19.986 21.086 22.506 23.986 25.446 26.756 27.826 28.696
1687.877 29.196 29.286 29.146 28.766 28.266 27.936 27.716 27.786 28.076 28.416
1707.167 28.846 29.176 29.246 28.986 28.426 27.616 26.466 25.006 23.376 21.676
1726.457 19.886 18.246 16.986 16.146 15.846 16.066 16.616 17.616 18.986 20.786
1745.747 22.926 25.406 28.276 31.506 34.926 38.206 41.236 43.816 45.846 47.266
1765.037 48.066 48.306 48.206 47.876 47.446 46.916 46.016 44.596 42.496 39.726
1784.327 36.376 32.596 28.706 24.906 21.466 18.576 16.216 14.196 12.436 10.936
1803.617 9.776 8.736 7.806 6.996 6.316 5.776 5.326 4.866 4.486 4.156
1822.907 3.816 3.556 3.366 3.166 2.976 2.816 2.656 2.536 2.426 2.286
1842.197 2.176 2.066 1.996 1.936 1.946 1.886 1.7546 1.7241 1.7013 1.6668
1861.487 1.6521 1.6189 1.555 1.4709 1.3966 1.4746 1.5115 1.4179 1.3967 1.3796
1880.777 1.3426 1.3322 1.3048 1.2652 1.2295 1.1856 1.1719 1.1593 1.1502 1.14
1900.067 1.1131 1.1365 1.1339 1.0716 1.0689 1.0697 1.044 1.0374 1.0705 1.0387
1919.357 1.0589 1.1071 1.0653 1.0715 1.088 1.0772 1.0786 1.094 1.0874 1.0838
1938.647 1.092 1.0688 1.0579 1.0867 1.1164 1.1281 1.1183 1.1513 1.1966 1.1774
1957.937 1.1857 1.2205 1.2478 1.2896 1.3143 1.347 1.3676 1.3452 1.3405 1.3383
1977.227 1.3361 1.3321 1.3002 1.291 1.2713 1.2232 1.1788 1.1884 1.2023 1.1691
1996.517 1.1767 1.154 1.1378 1.1424 1.1313 1.1473 1.1705 1.1448 1.1327 1.1813
2015.807 1.207 1.2533 1.2849 1.2955 1.3535 1.3799 1.3601 1.3434 1.3061 1.2897
2035.097 1.3341 1.4025 1.4041 1.3429 1.3285 1.3435 1.3086 1.3331 1.3704 1.3156
2054.387 1.2648 1.2555 1.2363 1.1767 1.191 1.292 1.3082 1.2648 1.3247 1.426
2073.677 1.4508 1.4534 1.4944 1.5776 1.6796 1.756 1.796 1.866 1.936 1.976
2092.967 2.066 2.136 2.206 2.296 2.356 2.346 2.386 2.436 2.506 2.576
2112.257 2.596 2.706 2.876 3.156 3.636 4.176 4.806 5.666 6.756 8.096
2131.547 9.766 11.846 14.536 17.936 22.146 27.376 33.566 40.636 48.266 55.996
2150.837 63.136 68.996 72.856 74.386 73.426 69.746 63.576 55.366 45.596 35.186
2170.127 25.686 18.236 13.136 9.846 7.756 6.366 5.336 4.626 4.136 3.676
2189.417 3.306 3.066 2.926 2.806 2.636 2.486 2.356 2.236 2.136 2.076
2208.707 2.016 1.966 1.886 1.786 1.75 1.6903 1.6558 1.6798 1.6114 1.517
2227.997 1.494 1.4906 1.4181 1.3811 1.4068 1.3666 1.359 1.3436 1.2718 1.2126
2247.287 1.1955 1.2253 1.2733 1.2924 1.2813 1.3251 1.31 1.2944 1.3121 1.335
2266.577 1.3664 1.3432 1.3451 1.3979 1.431 1.45 1.4953 1.4923 1.5289 1.6266
2285.868 1.7208 1.836 1.956 2.046 2.156 2.336 2.526 2.716 2.906 3.126
2305.158 3.376 3.586 3.796 4.026 4.236 4.406 4.586 4.786 4.976 5.086
2324.448 5.086 5.096 5.166 5.136 5.036 4.926 4.816 4.756 4.726 4.666
2343.738 4.506 4.196 3.886 3.976 4.486 5.026 5.506 5.886 6.126 6.336
2363.028 6.426 6.396 6.236 5.966 5.676 5.266 4.746 4.236 3.656 3.066
2382.318 2.556 2.156 1.836 1.5399 1.4227 1.3415 1.2727 1.277 1.2278 1.1623
2401.608 1.1697 1.1728 1.1655 1.1586 1.1637 1.2151 1.2146 1.2299 1.2025 1.1793
2420.898 1.209 1.2069 1.2067 1.2446 1.2915 1.2949 1.2947 1.3089 1.3178 1.3012
2440.188 1.2956 1.3183 1.2921 1.267 1.2958 1.358 1.3561 1.3125 1.3229 1.3406
2459.478 1.3361 1.31 1.2807 1.2781 1.2801 1.2891 1.2988 1.2333 1.1773 1.1985
2478.768 1.1747 1.1641 1.1679 1.125 1.0906 1.0901 1.1196 1.0697 1.094 1.0876
2498.058 1.0492 1.1219 1.125 1.125 1.1181 1.0536 1.0014 0.9908 1.0157 1.0168
2517.348 0.9694 0.9822 0.9946 0.956 0.9446 0.9646 0.9944 0.9544 0.9794 1.0462
2536.638 1.0057 1.0118 1.0697 1.0397 0.9889 0.976 0.9676 1.0183 1.0338 0.9878
2555.928 0.904 0.83575 0.9024 0.9351 0.9076 0.9254 0.9218 0.9144 0.9112 0.8787
2575.218 0.83515 0.81508 0.81965 0.83835 0.84381 0.8585 0.8759 0.8834 0.8925 0.84785
2594.508 0.79144 0.78142 0.85512 0.8598 0.83044 0.8851 0.8741 0.83335 0.85598 0.9417
2613.798 0.9595 0.879 0.8944 0.9538 0.9358 0.9117 0.8849 0.8712 0.9046 0.9304
2633.088 0.8952 0.84711 0.84593 0.8833 0.9038 0.9396 0.8878 0.85042 0.8791 0.8908
2652.378 0.8864 0.81651 0.8088 0.857 0.8723 0.79904 0.7398 0.74806 0.78835 0.78242
2671.668 0.79726 0.78009 0.7391 0.83283 0.8804 0.83172 0.83041 0.8766 0.8827 0.81577
2690.958 0.74628 0.78381 0.85142 0.85395 0.84677 0.84352 0.8134 0.79008 0.80693 0.81186
2710.248 0.83357 0.862 0.82983 0.81773 0.85441 0.8438 0.8794 0.9573 0.9415 0.8773
2729.538 0.8679 0.937 0.9462 0.9991 1.0695 1.0386 1.0268 1.0582 1.0656 1.0514
2748.828 1.0505 1.134 1.154 1.1302 1.1624 1.1423 1.1222 1.0634 0.998 0.9474
2768.118 1.0161 1.0718 1.005 1.0774 1.1356 1.1414 1.2107 1.2358 1.178 1.2078
2787.408 1.2919 1.3352 1.4549 1.4854 1.4637 1.4582 1.5052 1.6825 1.836 1.856
2806.698 1.786 1.796 1.926 1.966 1.976 1.976 2.006 2.136 2.166 2.176
2825.988 2.186 2.196 2.256 2.356 2.436 2.536 2.686 2.846 3.126 3.316
2845.278 3.326 3.286 3.226 3.276 3.376 3.486 3.576 3.606 3.656 3.626
2864.568 3.626 3.626 3.556 3.546 3.526 3.526 3.626 3.696 3.746 3.646
2883.858 3.536 3.666 3.756 3.656 3.576 3.626 3.666 3.766 3.826 3.826
2903.148 3.906 3.936 4.006 4.166 4.306 4.296 4.276 4.366 4.516 4.586
2922.438 4.596 4.456 4.306 4.306 4.416 4.546 4.636 4.756 4.846 4.886
2941.728 5.136 5.476 5.736 6.056 6.496 7.036 7.686 8.656 10.036 11.676
2961.018 13.226 14.226 14.666 14.676 14.106 12.906 11.296 9.546 8.106 7.216
2980.308 6.646 6.176 5.836 5.696 5.506 5.326 5.296 5.206 5.066 5.146
2999.598 5.266 5.326 5.386 5.496 5.616 5.666 5.646 5.566 5.436 5.336
3018.888 5.156 4.986 4.976 4.836 4.666 4.716 4.796 4.736 4.556 4.486
3038.178 4.446 4.376 4.286 4.116 4.076 3.916 3.816 3.816 3.666 3.566
3057.468 3.556 3.526 3.496 3.516 3.496 3.406 3.406 3.436 3.386 3.296
3076.758 3.216 3.056 2.966 3.026 3.106 3.076 2.966 2.906 2.986 3.046
3096.048 3.046 3.106 3.226 3.316 3.386 3.496 3.536 3.566 3.556 3.506
3115.338 3.436 3.326 3.236 3.216 3.136 2.946 2.706 2.616 2.586 2.466
3134.628 2.396 2.376 2.316 2.266 2.256 2.336 2.336 2.176 2.096 2.016
3153.918 2.046 2.006 1.906 1.956 1.956 1.876 1.856 1.826 1.766 1.7015
3173.208 1.7158 1.776 1.694 1.7436 1.806 1.766 1.776 1.7453 1.7067 1.826
3192.498 1.886 1.796 1.7476 1.6892 1.7084 1.796 1.836 1.7278 1.5822 1.6088
3211.788 1.7238 1.7004 1.6856 1.786 1.786 1.7038 1.776 1.816 1.6073 1.5333
3231.078 1.6217 1.7401 1.7282 1.5432 1.5324 1.5931 1.5224 1.5457 1.5923 1.6045
3250.368 1.6317 1.6212 1.5813 1.5192 1.4667 1.4287 1.4477 1.4471 1.3324 1.322
3269.658 1.3537 1.3521 1.3087 1.3014 1.4598 1.466 1.3503 1.4385 1.5348 1.5419
3288.948 1.4997 1.4344 1.3224 1.3162 1.345 1.2668 1.2218 1.1533 1.0936 1.0953
3308.238 1.2319 1.3192 1.2781 1.2077 1.1887 1.2725 1.2729 1.2225 1.223 1.1161
3327.528 1.0511 1.1245 1.2074 1.2686 1.1113 0.9259 1.0116 1.1589 1.1107 0.9651
3346.818 0.9151 0.9639 1.0087 1.0601 1.1013 1.1223 1.1905 1.114 1.1466 1.2233
3366.108 1.1484 1.1693 1.1406 1.1486 1.2047 1.0862 1.0622 1.1221 1.1308 1.1354
3385.398 1.3089 1.3337 1.2815 1.3603 1.3537 1.3422 1.3652 1.2908 1.2356 1.2938
3404.688 1.2599 1.139 1.108 1.1479 1.0322 0.9932 1.0239 0.9784 0.9187 0.9125
3423.978 0.84645 0.82256 0.7295 0.616 0.631 0.589 0.6821 0.7088 0.6844 0.7403
3443.269 0.7007 0.552 0.498 0.533 0.617 0.621 0.472 0.483 0.591 0.55
3462.559 0.592 0.642 0.6934 0.7179 0.6757 0.6713 0.559 0.527 0.563 0.645
3481.849 0.617 0.496 0.626 0.7301 0.7067 0.7778 0.8899 0.9824 0.9854 0.9994
3501.139 0.9729 0.9733 1.0479 1.078 1.0664 1.0046 1.0876 1.1386 1.0795 0.9664
3520.429 1.0051 1.1273 1.0728 1.0399 1.0401 1.02 0.9722 0.9187 0.9003 0.9658
3539.719 0.9529 0.80337 0.7033 0.7104 0.7814 0.756612 0.6565 0.584 0.485 0.531
3559.009 0.6719 0.7007 0.533 0.331 0.295 0.344 0.42 0.503 0.577 0.571
3578.299 0.438 0.297 0.341 0.324 0.194 0.202 0.388 0.406 0.39 0.46
3597.589 0.408 0.404 0.295 0.257 0.351 0.232 0.12 0.286 0.474 0.464
3616.879 0.479 0.455 0.385 0.529 0.649 0.6735 0.632 0.597 0.6893 0.78856
3636.169 0.83985 0.9082 0.9273 0.9656 0.983 0.9366 0.82742 0.642 0.592 0.663
3655.459 0.7193 0.8109 0.9177 0.9633 0.82543 0.617 0.6693 0.6734 0.54 0.44
3674.749 0.456 0.591 0.6839 0.6896 0.565 0.514 0.576 0.646 0.74838 0.6624
3694.039 0.622 0.7364 0.6963 0.645 0.7153 0.7311 0.635 0.558 0.567 0.66
3713.329 0.7251 0.7144 0.757056 0.80078 0.6634 0.489 0.545 0.53 0.508 0.6563
3732.619 0.643 0.493 0.421 0.48 0.445 0.42 0.373 0.299 0.325 0.304
3751.909 0.269 0.17 0.09 0.228 0.353 0.331 0.332 0.273 0.202 0.147
3771.199 0.171 0.25 0.267 0.315 0.195 0.14 0.253 0.241 0.24 0.293
3790.489 0.174 0.13 0.192 0.108 0.104 0.107 0.103 0.136 0.025 0
3809.779 0.072 0.062 0.152 0.116 0.074 0.055 0.039 0.215 0.306 0.209
3829.069 0.158 0.25 0.366 0.231 0.065 0.069 0.192 0.295 0.193 0.194
3848.359 0.196 0.066 0.127 0.194 0.118 0.045 0.062 0.127 0.128 0.308
3867.649 0.284 0.147 0.321 0.324 0.189 0.184 0.228 0.268 0.228 0.144
3886.939 0.157 0.241 0.171 0.158 0.256 0.256 0.177 0.086 0.114 0.204
3906.229 0.161 0.119 0.248 0.225 0.186 0.213 0.079 0.033 0.119 0.095
3925.519 0.078 0.245 0.3 0.214 0.123 0.119 0.143 0.095 0.052 0.134
3944.809 0.216 0.227 0.288 0.285 0.265 0.179 0.091 0.24 0.412 0.264
3964.099 0.081 0.069 0.151 0.188 0.187 0.195 0.217 0.249 0.225 0.195
3983.389 0.07 0.098 0.209 0.213 0.165 0.208 0.121 0.112 0.349 0.35
##END=
