##TITLE=cis-1,2-Dichlorocyclohexane
##JCAMP-DX=4.24
##DATA TYPE=INFRARED SPECTRUM
##ORIGIN=EPA-IR VAPOR PHASE LIBRARY
##OWNER=SRD/NIST
Collection (C) 2018 copyright by the U.S. Secretary of Commerce
on behalf of the United States of America. All rights reserved.
##CAS REGISTRY NO=10498-35-8
##MOLFORM=C 6 H 10 Cl 2
##$NIST SOURCE=MSDC-IR
##STATE=gas
##XUNITS=1/CM
##YUNITS=ABSORBANCE
##XFACTOR=1.
##YFACTOR=0.001
##DELTAX=1.92898
##FIRSTX=549.8
##LASTX=4000.7
##FIRSTY=4.649
##MAXX=4000.7
##MINX=549.759
##MAXY=0.069859
##MINY=0
##NPOINTS=1790
##XYDATA=(X++(Y..Y))
549.759 4.649 4.349 3.969 3.399 3.129 2.389 1.6138 1.3777 1.1954 1.3385
569.049 1.3671 1.2032 0.9184 0.56 0.69091 0.6333 0.512 0.537 0.528 0.264
588.339 0.273 0.407 0.36 0.396 0.378 0.157 0.013 0.278 0.327 0.294
607.628 0.331 0.523 0.68477 0.385 0.178 0.547 0.5965 0.6449 0.70159 0.488
626.918 0.5922 0.70414 0.73324 0.553 0.446 0.672339 0.69077 0.379 0.468 0.487
646.208 0.179 0.299 0.522 0.6092 0.477 0.387 0.493 0.7725 0.8031 0.638
665.498 0.674603 0.8988 0.8938 0.70808 0.9309 1.2282 1.6292 2.129 2.829 3.469
684.787 4.179 5.259 6.279 7.119 8.009 8.789 9.469 10.109 9.919 9.219
704.077 8.529 7.689 6.929 6.129 5.029 4.079 3.399 2.879 2.679 2.509
723.367 2.559 2.629 2.699 3.339 4.209 5.069 6.209 7.419 8.389 9.139
742.657 9.669 10.169 10.509 10.549 9.859 8.989 8.289 7.419 6.219 4.469
761.947 3.019 2.049 1.5918 1.3424 1.0672 1.018 0.9218 0.7996 0.7949 0.7744
781.236 0.73763 0.69971 0.73962 0.8814 0.9241 0.9089 0.9507 1.0048 1.2924 1.588
800.526 1.879 2.379 3.159 4.259 5.189 5.859 6.339 6.739 7.539 8.359
819.816 8.319 8.129 8.539 8.789 8.149 7.089 6.069 5.339 4.759 4.499
839.106 4.289 3.969 3.629 2.959 2.319 1.979 1.809 1.5863 1.669 1.859
858.395 2.059 2.609 3.239 4.089 5.009 6.219 7.499 8.439 9.479 10.269
877.685 10.789 11.209 11.329 11.329 11.069 10.449 9.539 8.269 7.169 6.529
896.975 6.179 5.909 5.499 5.359 5.619 5.959 5.529 4.619 4.119 3.869
916.265 3.349 2.659 2.089 1.779 1.5659 1.2194 1.0139 1.1793 1.0889 0.8168
935.555 0.7756 0.8119 0.8028 0.727 0.7784 0.73949 0.73327 0.66435 0.8449 1.0779
954.844 0.8725 1.0145 1.3029 1.3416 1.4015 1.6028 2.109 2.629 3.499 4.709
974.134 5.699 6.879 7.999 8.869 9.519 9.939 10.529 10.859 10.009 8.889
993.424 8.039 7.169 6.269 4.999 3.809 2.899 2.199 1.6234 1.4729 1.299
1012.714 1.0292 1.1768 1.3799 1.0699 1.0462 1.2473 1.0438 0.975 1.1634 1.3586
1032.003 1.2343 1.0575 0.9393 0.8526 0.76112 0.8688 1.1604 1.096 1.0823 1.1775
1051.293 1.1794 1.364 1.689 2.069 2.079 1.5868 1.3458 1.5714 1.799 1.5162
1070.583 1.6169 2.309 1.879 1.3209 1.749 1.619 1.42 1.4983 1.4004 1.3177
1089.873 1.0465 1.031 1.0805 1.1098 1.0829 0.867 0.68788 0.7706 0.9983 0.9894
1109.163 0.5936 0.5748 0.6461 0.66313 0.542 0.5926 0.805 1.2017 1.5541 1.189
1128.452 0.936 1.0009 1.5732 1.5741 1.1408 1.2508 1.5819 1.4985 0.8201 0.522
1147.742 0.233 0 0.043 0.352 0.6515 0.6082 0.614 0.70641 0.6465 0.7984
1167.032 0.70162 0.474 0.51 0.74337 1.0074 1.1734 1.427 1.959 2.229 2.289
1186.322 2.619 3.009 3.329 3.509 3.569 3.339 3.239 3.239 2.989 2.899
1205.611 3.179 3.229 3.109 2.829 2.949 3.359 3.919 4.599 4.899 4.409
1224.901 3.809 4.219 4.459 3.859 3.629 3.649 3.299 2.779 2.179 1.879
1244.191 1.809 1.759 1.919 2.429 2.909 3.119 3.649 4.389 5.349 6.189
1263.481 6.959 7.939 8.769 9.459 9.609 9.529 9.589 9.559 9.019 8.199
1282.771 7.519 6.859 6.199 5.719 5.429 5.199 5.099 5.179 5.389 5.629
1302.060 5.569 5.299 5.199 5.119 4.999 4.769 4.579 4.319 3.809 3.459
1321.350 3.359 3.209 2.929 2.599 2.379 2.339 2.509 2.779 2.979 3.149
1340.640 3.339 3.549 3.819 4.069 4.269 4.369 4.309 4.289 4.329 4.209
1359.930 3.859 3.439 3.109 2.819 2.509 2.119 1.729 1.3842 1.1436 1.037
1379.219 0.9508 0.8647 0.8772 0.9083 0.8782 0.8388 0.806 0.8594 0.8779 0.8288
1398.509 0.9135 0.9418 0.8697 0.8708 0.9102 0.9594 1.0523 1.1524 1.1864 1.2146
1417.799 1.3328 1.5197 1.769 2.049 2.359 2.779 3.339 4.019 4.739 5.639
1437.089 6.949 8.339 9.479 10.299 10.819 11.229 11.759 12.489 13.059 12.689
1456.378 11.529 10.539 9.749 8.939 8.259 7.549 6.519 5.409 4.589 3.979
1475.668 3.399 2.829 2.279 1.839 1.5276 1.2527 1.0942 0.9557 0.8482 0.78
1494.958 0.76869 0.7695 0.74971 0.66368 0.6293 0.73528 0.7874 0.69109 0.564 0.5719
1514.248 0.554 0.549 0.5886 0.5891 0.6212 0.5877 0.537 0.557 0.583 0.529
1533.538 0.519 0.515 0.492 0.6187 0.68293 0.5795 0.548 0.5942 0.551 0.555
1552.827 0.549 0.449 0.617 0.8532 0.71864 0.5737 0.5728 0.52 0.527 0.512
1572.117 0.454 0.455 0.501 0.532 0.457 0.453 0.477 0.483 0.48 0.519
1591.407 0.5748 0.522 0.491 0.422 0.378 0.411 0.423 0.393 0.368 0.385
1610.697 0.374 0.378 0.436 0.54 0.513 0.501 0.546 0.511 0.5758 0.5869
1629.986 0.484 0.497 0.5865 0.554 0.43 0.429 0.501 0.533 0.52 0.5945
1649.276 0.6401 0.6227 0.569 0.506 0.521 0.471 0.373 0.348 0.375 0.412
1668.566 0.524 0.5841 0.511 0.478 0.496 0.495 0.51 0.518 0.6227 0.6264
1687.856 0.559 0.555 0.54 0.559 0.629 0.6301 0.6058 0.545 0.472 0.447
1707.146 0.482 0.444 0.41 0.487 0.5953 0.6535 0.54 0.425 0.388 0.476
1726.435 0.534 0.565 0.542 0.563 0.6358 0.5845 0.5792 0.5869 0.501 0.46
1745.725 0.494 0.521 0.473 0.428 0.469 0.504 0.509 0.463 0.467 0.5
1765.015 0.455 0.466 0.553 0.569 0.5905 0.526 0.443 0.482 0.476 0.444
1784.305 0.39 0.394 0.506 0.566 0.5901 0.558 0.526 0.558 0.533 0.493
1803.594 0.487 0.504 0.507 0.562 0.538 0.476 0.463 0.451 0.484 0.551
1822.884 0.514 0.43 0.449 0.443 0.455 0.513 0.505 0.466 0.527 0.558
1842.174 0.518 0.521 0.563 0.562 0.539 0.504 0.477 0.488 0.474 0.442
1861.464 0.444 0.483 0.519 0.558 0.544 0.517 0.541 0.517 0.478 0.451
1880.754 0.405 0.404 0.402 0.402 0.405 0.377 0.385 0.424 0.497 0.568
1900.043 0.578 0.534 0.482 0.468 0.477 0.471 0.415 0.444 0.529 0.52
1919.333 0.495 0.471 0.441 0.442 0.448 0.507 0.549 0.547 0.5912 0.5709
1938.623 0.54 0.523 0.498 0.496 0.492 0.473 0.481 0.475 0.479 0.519
1957.913 0.503 0.512 0.511 0.515 0.496 0.492 0.557 0.536 0.507 0.6068
1977.202 0.5746 0.499 0.537 0.558 0.558 0.567 0.5698 0.525 0.484 0.462
1996.492 0.483 0.5 0.541 0.582 0.553 0.564 0.6155 0.6046 0.527 0.521
2015.782 0.5799 0.566 0.507 0.494 0.537 0.568 0.6099 0.5773 0.522 0.528
2035.072 0.501 0.525 0.5765 0.5961 0.5887 0.547 0.53 0.5692 0.6134 0.5896
2054.362 0.563 0.545 0.552 0.553 0.508 0.491 0.476 0.434 0.463 0.494
2073.651 0.474 0.502 0.535 0.558 0.519 0.49 0.524 0.529 0.484 0.467
2092.941 0.544 0.6185 0.6246 0.5871 0.552 0.551 0.511 0.53 0.6002 0.568
2112.231 0.5767 0.5967 0.5844 0.5696 0.558 0.5859 0.568 0.559 0.5808 0.552
2131.521 0.5739 0.6157 0.6088 0.5809 0.539 0.554 0.5884 0.6128 0.6342 0.6552
2150.810 0.6405 0.5966 0.561 0.56 0.6277 0.67915 0.71507 0.7712 0.7839 0.7857
2170.100 0.8089 0.74753 0.66517 0.72958 0.72099 0.65964 0.70565 0.66323 0.66572 0.73034
2189.390 0.68695 0.634 0.538 0.516 0.5932 0.65976 0.66232 0.6047 0.5943 0.6502
2208.680 0.6335 0.5741 0.6072 0.6114 0.5893 0.5691 0.585 0.534 0.491 0.521
2227.970 0.546 0.6127 0.6333 0.6189 0.6018 0.6044 0.605 0.541 0.535 0.5774
2247.259 0.56 0.5862 0.6003 0.5799 0.6191 0.6377 0.5944 0.556 0.525 0.545
2266.549 0.5803 0.524 0.491 0.537 0.565 0.5788 0.6083 0.6125 0.5816 0.55
2285.839 0.526 0.485 0.468 0.541 0.542 0.465 0.493 0.48 0.528 0.6088
2305.129 0.617 0.559 0.543 0.5847 0.502 0.534 0.6421 0.6356 0.5883 0.5824
2324.418 0.5743 0.629 0.673873 0.6574 0.6063 0.66381 0.72944 0.68159 0.6396 0.6176
2343.708 0.6462 0.71559 0.73881 0.69234 0.6666 0.6441 0.71651 0.7908 0.8233 0.7823
2362.998 0.76283 0.73322 0.68075 0.69011 0.544 0.53 0.6257 0.6462 0.6154 0.5897
2382.288 0.562 0.519 0.549 0.6077 0.6431 0.561 0.5957 0.6481 0.6057 0.567
2401.578 0.531 0.677483 0.74199 0.68503 0.73113 0.69145 0.66057 0.66285 0.6435 0.66664
2420.867 0.68847 0.6464 0.557 0.547 0.572 0.555 0.6483 0.675976 0.674955 0.70913
2440.157 0.6118 0.6008 0.6355 0.674558 0.69053 0.66397 0.6192 0.6352 0.6448 0.5948
2459.447 0.519 0.517 0.535 0.563 0.6607 0.6467 0.6122 0.5983 0.5743 0.561
2478.737 0.6042 0.5905 0.579 0.6435 0.69196 0.72269 0.71715 0.676164 0.647 0.675526
2498.026 0.6054 0.564 0.656 0.5762 0.538 0.6171 0.6247 0.6085 0.5971 0.6005
2517.316 0.522 0.45 0.493 0.5724 0.5907 0.5958 0.6448 0.69196 0.76173 0.774
2536.606 0.71906 0.69605 0.6542 0.6358 0.66416 0.6493 0.676175 0.6585 0.544 0.5971
2555.896 0.70576 0.6883 0.69079 0.68786 0.65945 0.68111 0.6291 0.6421 0.74087 0.67947
2575.186 0.70744 0.7775 0.7659 0.8122 0.75628 0.68517 0.74144 0.8039 0.675239 0.6081
2594.475 0.71269 0.784 0.7549 0.74611 0.7955 0.74807 0.779 0.8502 0.9082 0.8846
2613.765 0.73977 0.69145 0.7814 0.8169 0.8917 0.9946 0.961 0.8631 0.8394 0.9009
2633.055 0.9622 1.0067 0.9345 0.8018 0.8661 0.9221 0.8517 0.9236 0.9786 0.9818
2652.345 1.0373 1.0875 1.1645 1.2855 1.2796 1.2801 1.3866 1.3757 1.2486 1.2379
2671.634 1.304 1.2615 1.1859 1.2024 1.2492 1.1294 1.022 1.0137 0.9843 0.9806
2690.924 0.9453 0.9767 1.091 1.0669 0.9991 0.8491 0.7991 0.8151 0.72531 0.74372
2710.214 0.8217 0.7998 0.71324 0.75776 0.74863 0.6798 0.66061 0.5728 0.555 0.5774
2729.504 0.493 0.498 0.69846 0.8548 0.75618 0.566 0.5953 0.71365 0.73911 0.8094
2748.794 0.8643 0.8619 0.8396 0.7726 0.76471 0.8611 0.8771 0.7825 0.7843 0.8938
2768.083 0.9222 0.9462 0.9243 0.897 1.0162 1.0338 0.9764 0.9773 1.0318 1.0051
2787.373 0.9817 1.0831 1.1508 1.2251 1.212 1.1564 1.1121 1.1146 1.1884 1.2513
2806.663 1.3237 1.4815 1.5184 1.3774 1.2765 1.2661 1.3407 1.405 1.4549 1.4321
2825.953 1.4897 1.4951 1.5741 1.799 2.009 2.209 2.609 3.069 3.459 4.249
2845.242 4.969 5.759 6.889 8.139 9.769 11.869 13.519 14.129 14.449 15.049
2864.532 15.589 15.889 16.259 16.529 16.329 15.869 15.229 14.479 13.759 12.839
2883.822 12.019 11.429 11.119 10.819 10.409 10.099 10.019 10.209 10.419 10.689
2903.112 11.129 11.539 11.579 11.569 11.819 12.149 12.639 13.089 13.449 13.919
2922.401 14.559 15.749 16.689 17.099 18.209 20.359 23.309 27.199 32.129 37.399
2941.691 42.299 46.409 50.029 54.219 61.109 68.219 69.859 66.969 62.559 58.839
2960.981 55.539 51.189 45.969 40.839 36.909 33.539 30.769 27.039 20.929 15.669
2980.271 12.339 10.039 8.319 6.679 5.269 4.179 3.289 2.559 2.199 1.919
2999.561 1.5949 1.358 1.2015 1.1796 1.2399 1.1953 1.0018 0.9172 0.8735 0.889
3018.850 0.9568 0.773 0.6223 0.6521 0.670701 0.69258 0.74152 0.8113 0.8171 0.71164
3038.140 0.668013 0.7635 0.7945 0.8228 0.8325 0.76522 0.8545 1.0082 0.9342 0.8118
3057.430 0.8399 0.8097 0.8628 0.9184 0.7968 0.68437 0.7696 0.8236 0.72653 0.8775
3076.720 1.0473 0.8052 0.6021 0.7809 0.793 0.668784 0.6367 0.5986 0.5783 0.6357
3096.009 0.6311 0.508 0.481 0.478 0.522 0.6164 0.66442 0.6165 0.6072 0.573
3115.299 0.558 0.506 0.446 0.5797 0.6345 0.473 0.445 0.537 0.6302 0.70433
3134.589 0.557 0.533 0.68536 0.65981 0.552 0.602 0.593 0.477 0.527 0.532
3153.879 0.429 0.372 0.448 0.444 0.416 0.498 0.469 0.41 0.386 0.325
3173.169 0.308 0.415 0.476 0.452 0.463 0.6155 0.6268 0.568 0.563 0.465
3192.458 0.504 0.504 0.381 0.502 0.65999 0.617 0.525 0.532 0.668879 0.68994
3211.748 0.504 0.565 0.73379 0.73735 0.69291 0.5708 0.546 0.545 0.5968 0.5811
3231.038 0.595 0.71419 0.6573 0.547 0.509 0.541 0.5902 0.74949 0.75219 0.5986
3250.328 0.519 0.461 0.518 0.508 0.357 0.326 0.285 0.327 0.548 0.6295
3269.617 0.6007 0.66669 0.676719 0.512 0.465 0.463 0.345 0.386 0.459 0.369
3288.907 0.36 0.444 0.425 0.491 0.6115 0.671009 0.556 0.354 0.446 0.5778
3308.197 0.55 0.557 0.5887 0.6242 0.5976 0.481 0.448 0.471 0.466 0.513
3327.487 0.549 0.477 0.341 0.384 0.5786 0.519 0.437 0.498 0.545 0.541
3346.777 0.496 0.453 0.355 0.332 0.33 0.332 0.301 0.397 0.5936 0.44
3366.066 0.277 0.187 0.245 0.418 0.462 0.437 0.461 0.465 0.46 0.407
3385.356 0.43 0.501 0.275 0.163 0.263 0.18 0.167 0.329 0.443 0.65912
3404.646 0.71647 0.535 0.38 0.38 0.377 0.386 0.359 0.267 0.49 0.553
3423.936 0.554 0.5905 0.514 0.5901 0.492 0.37 0.343 0.413 0.493 0.476
3443.225 0.364 0.304 0.379 0.351 0.414 0.6036 0.528 0.465 0.472 0.534
3462.515 0.603 0.6026 0.69096 0.5985 0.477 0.464 0.357 0.308 0.267 0.295
3481.805 0.344 0.346 0.568 0.526 0.377 0.334 0.387 0.491 0.499 0.67976
3501.095 0.67316 0.466 0.478 0.357 0.418 0.439 0.385 0.481 0.403 0.401
3520.385 0.315 0.313 0.429 0.482 0.395 0.304 0.305 0.271 0.229 0.272
3539.674 0.35 0.277 0.382 0.575 0.45 0.356 0.382 0.262 0.278 0.354
3558.964 0.284 0.382 0.416 0.328 0.382 0.445 0.414 0.371 0.452 0.556
3578.254 0.434 0.297 0.355 0.361 0.339 0.303 0.336 0.466 0.397 0.511
3597.544 0.403 0.132 0.389 0.511 0.445 0.512 0.423 0.351 0.443 0.404
3616.833 0.398 0.329 0.395 0.462 0.371 0.449 0.492 0.464 0.418 0.383
3636.123 0.376 0.389 0.434 0.49 0.359 0.233 0.442 0.473 0.326 0.268
3655.413 0.201 0.124 0.116 0.334 0.423 0.332 0.522 0.71994 0.6418 0.499
3674.703 0.494 0.66634 0.62 0.39 0.258 0.236 0.48 0.66556 0.69326 0.6202
3693.993 0.485 0.452 0.493 0.552 0.406 0.446 0.566 0.506 0.466 0.481
3713.282 0.493 0.501 0.6171 0.55 0.433 0.45 0.387 0.438 0.407 0.464
3732.572 0.558 0.332 0.373 0.35 0.278 0.305 0.252 0.323 0.503 0.66619
3751.862 0.65 0.542 0.479 0.505 0.464 0.451 0.414 0.445 0.453 0.423
3771.152 0.457 0.325 0.307 0.391 0.483 0.5979 0.5774 0.517 0.415 0.241
3790.441 0.32 0.552 0.503 0.55 0.6512 0.478 0.319 0.292 0.389 0.462
3809.731 0.386 0.313 0.506 0.6471 0.341 0.196 0.46 0.601 0.548 0.411
3829.021 0.236 0.339 0.579 0.6131 0.6536 0.6194 0.453 0.514 0.532 0.499
3848.311 0.423 0.337 0.511 0.74353 0.71745 0.543 0.54 0.5758 0.493 0.503
3867.601 0.511 0.533 0.416 0.236 0.378 0.449 0.522 0.70282 0.70157 0.567
3886.890 0.391 0.405 0.419 0.332 0.427 0.563 0.556 0.371 0.332 0.485
3906.180 0.515 0.5753 0.6022 0.346 0.203 0.25 0.257 0.32 0.414 0.456
3925.470 0.398 0.47 0.6347 0.483 0.277 0.469 0.54 0.444 0.515 0.6475
3944.760 0.6256 0.512 0.466 0.565 0.70016 0.6077 0.448 0.515 0.6241 0.539
3964.049 0.489 0.489 0.5993 0.670678 0.465 0.308 0.34 0.492 0.428 0.292
3983.339 0.409 0.525 0.5999 0.549 0.415 0.283 0.397 0.517 0.5698 0.544
##END=
