##TITLE=4-Bromo-1,1,2-trifluoro-1-butene
##JCAMP-DX=4.24
##DATA TYPE=INFRARED SPECTRUM
##ORIGIN=EPA-IR VAPOR PHASE LIBRARY
##OWNER=SRD/NIST
Collection (C) 2018 copyright by the U.S. Secretary of Commerce
on behalf of the United States of America. All rights reserved.
##CAS REGISTRY NO=10493-44-4
##MOLFORM=C 4 H 4 Br F 3
##$NIST SOURCE=MSDC-IR
##STATE=gas
##XUNITS=1/CM
##YUNITS=ABSORBANCE
##XFACTOR=1.
##YFACTOR=0.001
##DELTAX=1.92934
##FIRSTX=549.9
##LASTX=3999.5
##FIRSTY=1.492
##MAXX=3999.53
##MINX=549.863
##MAXY=0.019922
##MINY=0
##NPOINTS=1789
##XYDATA=(X++(Y..Y))
549.863 1.492 1.692 1.752 1.822 2.022 2.202 2.242 2.422 2.642 2.812
569.156 3.032 3.242 3.362 3.382 3.312 3.122 2.772 2.292 1.992 1.742
588.450 1.412 1.1165 0.9097 0.7244 0.7656 0.9121 0.8397 0.7501 0.6717 0.5935
607.743 0.5019 0.5194 0.5822 0.548 0.5073 0.5071 0.487 0.4619 0.5127 0.5496
627.037 0.4457 0.3858 0.4292 0.4695 0.476 0.3833 0.4569 0.5038 0.3541 0.3356
646.330 0.397 0.4141 0.5623 0.6307 0.5667 0.641 0.6415 0.6175 0.6939 0.8402
665.624 0.9902 1.1478 1.332 1.432 1.492 1.442 1.372 1.312 1.252 1.1541
684.917 0.9463 0.7662 0.6276 0.5455 0.484 0.482 0.4862 0.4876 0.4576 0.3929
704.210 0.3803 0.399 0.3726 0.3089 0.3596 0.414 0.4033 0.3859 0.3425 0.3432
723.504 0.3796 0.3666 0.361 0.3601 0.3729 0.3869 0.3659 0.3256 0.25139 0.25863
742.797 0.25449 0.2038 0.22275 0.3028 0.3068 0.23148 0.2775 0.3166 0.2911 0.3191
762.091 0.3155 0.3331 0.344 0.3224 0.27183 0.25888 0.25228 0.22035 0.2977 0.3721
781.384 0.3577 0.3028 0.3254 0.3366 0.2988 0.25786 0.24441 0.2919 0.26332 0.24651
800.678 0.269 0.23142 0.21733 0.26829 0.2821 0.171718 0.1363 0.21321 0.22245 0.21195
819.971 0.21812 0.23546 0.23656 0.18994 0.173201 0.19812 0.19848 0.24547 0.2907 0.2977
839.264 0.3086 0.2664 0.19411 0.18474 0.2943 0.3302 0.3271 0.333 0.366 0.5256
858.558 0.6598 0.7405 0.8568 0.9436 0.9422 0.9758 0.9434 0.9217 0.9118 0.79
877.851 0.7423 0.7069 0.549 0.3853 0.4029 0.4346 0.4045 0.3996 0.4018 0.4561
897.145 0.4898 0.4725 0.4551 0.4703 0.5041 0.566 0.6356 0.6476 0.6642 0.7431
916.438 0.788 0.7889 0.7635 0.7872 0.8497 0.8787 0.9014 0.8707 0.8295 0.787
935.732 0.7699 0.8102 0.8257 0.8912 0.96 0.9393 0.9037 0.9529 1.0075 0.9853
955.025 0.9937 0.9164 0.819 0.8206 0.7808 0.7194 0.7134 0.6907 0.6657 0.6779
974.318 0.6659 0.7045 0.7759 0.8238 0.8672 0.933 0.973 0.9873 1.0006 1.0103
993.612 1.0298 0.9984 0.9538 0.9302 0.8638 0.7391 0.6363 0.6129 0.6112 0.5842
1012.905 0.5301 0.4838 0.4879 0.5104 0.5049 0.4656 0.4329 0.4184 0.4309 0.4655
1032.199 0.5161 0.5432 0.522 0.4897 0.5713 0.6178 0.6083 0.6857 0.7779 0.9059
1051.492 0.9748 1.0353 1.222 1.452 1.732 2.042 2.352 2.762 3.282 3.882
1070.786 4.602 5.422 6.182 6.952 7.842 8.722 9.502 10.062 10.362 10.492
1090.079 10.352 10.062 9.722 9.172 8.422 7.502 6.412 5.412 4.512 3.712
1109.372 3.192 2.812 2.582 2.352 2.182 2.142 2.082 1.922 1.812 1.882
1128.666 1.892 1.872 1.892 2.012 2.092 2.032 2.242 2.632 2.802 3.112
1147.959 3.662 4.302 4.992 5.752 6.542 7.262 8.042 8.712 9.182 9.362
1167.253 9.242 8.902 8.282 7.602 6.592 5.472 4.692 4.092 3.782 3.562
1186.546 3.372 3.212 3.162 3.142 3.282 3.622 3.682 3.872 4.192 4.122
1205.840 4.012 4.342 4.702 4.992 5.422 5.842 6.172 6.292 6.552 7.032
1225.133 7.412 8.032 8.722 9.162 9.622 10.182 10.682 11.112 11.682 11.982
1244.426 12.072 12.032 11.892 11.682 11.412 10.862 10.092 9.532 8.962 8.292
1263.720 7.722 7.332 7.002 7.042 7.272 7.552 8.012 8.442 9.002 9.832
1283.013 10.642 11.402 12.152 13.032 13.902 14.612 15.412 16.432 17.542 18.512
1302.307 19.332 19.882 19.922 19.362 18.382 17.092 15.442 13.402 11.182 9.122
1321.600 7.362 5.942 4.822 3.912 3.252 2.772 2.342 2.012 1.822 1.652
1340.894 1.482 1.342 1.262 1.212 1.1552 1.1132 1.0726 1.0114 0.9836 0.9263
1360.187 0.8423 0.791 0.7477 0.7452 0.7265 0.6504 0.5642 0.5452 0.49 0.461
1379.480 0.5087 0.4782 0.4455 0.424 0.4082 0.3998 0.4004 0.3741 0.3673 0.3834
1398.774 0.3698 0.3833 0.3739 0.3471 0.3819 0.431 0.4844 0.5526 0.6178 0.6625
1418.067 0.7055 0.7236 0.7656 0.8758 0.9705 0.9886 0.956 1.0071 1.0729 1.0347
1437.361 0.9882 1.0059 1.0349 1.0321 0.9673 0.8629 0.8382 0.8115 0.7272 0.6677
1456.654 0.5562 0.4958 0.4793 0.4241 0.3716 0.334 0.3278 0.3134 0.24826 0.21558
1475.948 0.21377 0.181375 0.21624 0.26801 0.26847 0.21778 0.1634 0.1283 0.141 0.1574
1495.241 0.1221 0.1077 0.0808 0.0826 0.131 0.1212 0.1065 0.1392 0.1453 0.0892
1514.534 0.0961 0.1595 0.1031 0.062 0.083 0.1005 0.1246 0.1566 0.1689 0.1376
1533.828 0.086 0.1065 0.1309 0.061 0.069 0.1095 0.0991 0.1085 0.077 0.024
1553.121 0.05 0.0729 0.0948 0.0843 0.065 0.1027 0.0788 0.0774 0.0782 0.067
1572.415 0.1182 0.1377 0.1067 0.063 0.068 0.129 0.1294 0.0871 0.057 0.052
1591.708 0.0863 0.1034 0.1341 0.1476 0.1599 0.20091 0.1433 0.0994 0.1275 0.1314
1611.002 0.1034 0.0809 0.0865 0.071 0.045 0.042 0.051 0.072 0.0973 0.1037
1630.295 0.0897 0.069 0.068 0.069 0.056 0.072 0.1169 0.1076 0.0888 0.1186
1649.588 0.1296 0.1272 0.1578 0.1451 0.1426 0.1236 0.1232 0.0798 0.005 0.048
1668.882 0.0748 0.0897 0.0788 0.0908 0.0879 0.026 0.011 0.039 0.0839 0.1072
1688.175 0.1162 0.0793 0.0875 0.1498 0.1282 0.1146 0.1346 0.115 0.0992 0.1179
1707.469 0.1154 0.0889 0.1156 0.178302 0.174497 0.1586 0.19338 0.23112 0.23315 0.23092
1726.762 0.21166 0.20664 0.25545 0.26638 0.2765 0.3107 0.3616 0.4049 0.465 0.5259
1746.056 0.5712 0.64 0.7404 0.855 0.9206 1.0474 1.262 1.452 1.612 1.812
1765.349 2.092 2.472 2.992 3.562 4.232 5.002 5.872 6.932 8.042 9.122
1784.642 10.162 11.062 11.692 12.012 11.972 11.532 10.762 9.692 8.412 6.972
1803.936 5.562 4.352 3.372 2.552 1.942 1.472 1.0918 0.8633 0.6814 0.5503
1823.229 0.4672 0.3676 0.3211 0.3157 0.3149 0.3156 0.284 0.23977 0.2164 0.2123
1842.523 0.20918 0.176906 0.1524 0.1436 0.132 0.1269 0.1192 0.1293 0.117 0.0882
1861.816 0.1247 0.1377 0.0925 0.055 0.045 0.0768 0.1183 0.1032 0.0955 0.0948
1881.110 0.071 0.0769 0.054 0.059 0.067 0.047 0.051 0.0785 0.067 0.0784
1900.403 0.09 0.071 0.0972 0.0943 0.081 0.05 0.021 0.016 0.043 0.058
1919.696 0.052 0.068 0.0816 0.0725 0.044 0.062 0.07 0.085 0.1093 0.1007
1938.990 0.098 0.0778 0.046 0.06 0.073 0.067 0.1092 0.1012 0.0756 0.0874
1958.283 0.0853 0.061 0.071 0.1041 0.0759 0.055 0.07 0.1073 0.1138 0.125
1977.577 0.1231 0.0833 0.0859 0.07 0.046 0.045 0.029 0.028 0.023 0.022
1996.870 0.057 0.0873 0.0902 0.0878 0.0894 0.1246 0.1211 0.0987 0.1365 0.1412
2016.164 0.1134 0.1265 0.17043 0.18876 0.1569 0.1443 0.141 0.1473 0.1554 0.1566
2035.457 0.16411 0.1391 0.0812 0.0727 0.0949 0.0816 0.108 0.1106 0.055 0.028
2054.750 0.043 0.0959 0.117 0.0826 0.065 0.0726 0.057 0.035 0.067 0.051
2074.044 0.035 0.047 0.042 0.054 0.046 0.043 0.051 0.056 0.0893 0.066
2093.337 0.034 0.048 0.018 0 0.003 0.005 0.027 0.026 0.012 0.002
2112.631 0 0.017 0.043 0.048 0.057 0.0866 0.0869 0.084 0.045 0.034
2131.924 0.052 0.039 0.028 0.063 0.0954 0.065 0.035 0.023 0.014 0.041
2151.218 0.0775 0.058 0.067 0.0771 0.066 0.05 0.022 0.021 0.057 0.0856
2170.511 0.1146 0.0977 0.0945 0.1133 0.0828 0.0869 0.0787 0.049 0.053 0.049
2189.804 0.068 0.1038 0.1061 0.1015 0.0785 0.0745 0.0774 0.052 0.065 0.0905
2209.098 0.084 0.072 0.057 0.068 0.0846 0.0818 0.0906 0.062 0.048 0.06
2228.391 0.056 0.0755 0.074 0.0829 0.056 0.036 0.066 0.0872 0.053 0.015
2247.685 0.032 0.059 0.052 0.03 0.021 0.009 0.024 0.041 0.029 0.016
2266.978 0.034 0.034 0.038 0.0727 0.0807 0.079 0.055 0.039 0.059 0.037
2286.272 0.026 0.0729 0.064 0.05 0.0776 0.1012 0.0867 0.058 0.063 0.031
2305.565 0.018 0.039 0.065 0.1094 0.072 0.042 0.0721 0.065 0.04 0.052
2324.858 0.0958 0.0888 0.071 0.0938 0.071 0.042 0.045 0.048 0.071 0.071
2344.152 0.043 0.044 0.044 0.059 0.0989 0.121 0.1234 0.1298 0.1408 0.088
2363.445 0.056 0.054 0.065 0.064 0.053 0.0773 0.1103 0.1387 0.1284 0.1123
2382.739 0.0884 0.0845 0.1233 0.1381 0.1284 0.1233 0.1114 0.1292 0.1446 0.16671
2402.032 0.1697 0.1025 0.0846 0.1112 0.1059 0.0901 0.0821 0.0749 0.069 0.042
2421.326 0.039 0.064 0.056 0.032 0.0788 0.1085 0.065 0.0873 0.1179 0.1045
2440.619 0.0858 0.1324 0.16777 0.1403 0.1189 0.1188 0.1314 0.1436 0.1578 0.1532
2459.912 0.174773 0.19073 0.1869 0.1606 0.1136 0.0918 0.07 0.055 0.1179 0.1441
2479.206 0.1005 0.105 0.1069 0.072 0.066 0.1033 0.1241 0.1381 0.1451 0.1433
2498.499 0.1092 0.055 0.068 0.1149 0.1192 0.1082 0.0977 0.0886 0.1102 0.1328
2517.793 0.1497 0.1269 0.1287 0.1377 0.1417 0.1284 0.0997 0.1022 0.1443 0.16816
2537.086 0.1075 0.071 0.0976 0.1105 0.0902 0.1033 0.1465 0.16854 0.16419 0.1341
2556.380 0.127 0.1471 0.0841 0.0848 0.1357 0.1396 0.1532 0.16993 0.1401 0.1308
2575.673 0.177505 0.1447 0.1158 0.1431 0.1505 0.19578 0.23721 0.22689 0.22841 0.25218
2594.966 0.26026 0.24103 0.23228 0.24397 0.23832 0.18518 0.18565 0.23507 0.22236 0.21408
2614.260 0.23265 0.19758 0.162 0.17013 0.1606 0.1404 0.1319 0.1485 0.1396 0.1375
2633.553 0.1444 0.1365 0.1531 0.1073 0.0907 0.0955 0.068 0.0871 0.069 0.0761
2652.847 0.1497 0.1432 0.1099 0.105 0.1178 0.1058 0.1457 0.180694 0.135 0.1211
2672.140 0.0989 0.1007 0.1025 0.0974 0.1269 0.1333 0.1019 0.1255 0.1576 0.1423
2691.434 0.1186 0.051 0.035 0.1388 0.18726 0.20061 0.1586 0.0926 0.1446 0.1582
2710.727 0.1685 0.1184 0.0769 0.078 0.035 0.1054 0.1405 0.053 0.0824 0.1339
2730.020 0.1288 0.065 0.033 0.1201 0.1311 0.097 0.147 0.1573 0.1122 0.1002
2749.314 0.1242 0.0902 0.059 0.1342 0.0827 0.059 0.057 0.0851 0.1433 0.1059
2768.607 0.1233 0.1172 0.0979 0.0845 0.0736 0.092 0.1518 0.1559 0.108 0.1184
2787.901 0.101 0.06 0.126 0.19075 0.22 0.18248 0.1141 0.1225 0.104 0.0868
2807.194 0.0756 0.0922 0.16929 0.21248 0.180612 0.16948 0.16588 0.18465 0.1396 0.176376
2826.488 0.23637 0.19793 0.3009 0.2983 0.2033 0.20059 0.22426 0.3202 0.303 0.20704
2845.781 0.19537 0.22839 0.26674 0.24911 0.2951 0.3669 0.3206 0.2852 0.3367 0.3651
2865.074 0.3134 0.316 0.4506 0.518 0.4462 0.3866 0.3279 0.3328 0.3871 0.3312
2884.368 0.367 0.4193 0.4346 0.4866 0.4437 0.4477 0.5221 0.5861 0.6857 0.7649
2903.661 0.781 0.8036 0.8942 0.8676 0.7962 0.8147 0.7844 0.7609 0.7148 0.7302
2922.955 0.6578 0.5754 0.5803 0.5178 0.4833 0.4706 0.4701 0.4948 0.5212 0.5488
2942.248 0.5606 0.5349 0.4355 0.4205 0.5084 0.5193 0.5494 0.5399 0.5275 0.6059
2961.542 0.6329 0.574 0.5912 0.7373 0.9233 0.9957 0.9718 1.0259 1.172 1.232
2980.835 1.272 1.452 1.532 1.492 1.472 1.462 1.342 1.222 1.0735 0.9613
3000.128 0.8667 0.7746 0.7228 0.6189 0.587 0.5468 0.4342 0.3173 0.3499 0.3973
3019.422 0.5271 0.6204 0.5308 0.427 0.3691 0.3571 0.3834 0.4748 0.4515 0.4111
3038.715 0.3593 0.2827 0.3025 0.3428 0.4669 0.4403 0.3128 0.3163 0.26118 0.24751
3058.009 0.358 0.3949 0.2954 0.23666 0.3471 0.3437 0.26864 0.2945 0.321 0.3906
3077.302 0.3513 0.2965 0.3572 0.2907 0.21745 0.23357 0.1136 0.048 0.20011 0.2797
3096.596 0.3117 0.3518 0.4295 0.5175 0.4836 0.3589 0.3787 0.4006 0.4056 0.3151
3115.889 0.24602 0.2764 0.24954 0.22845 0.1501 0.20965 0.2859 0.23172 0.16979 0.1196
3135.182 0.16787 0.3598 0.309 0.26619 0.23587 0.0994 0.1288 0.174721 0.1567 0.1154
3154.476 0.1573 0.23253 0.3158 0.26666 0.142 0.1367 0.1513 0.21289 0.2941 0.3179
3173.769 0.2847 0.3597 0.3181 0.2793 0.3543 0.3504 0.2907 0.2498 0.22067 0.23855
3193.063 0.3654 0.3944 0.351 0.3096 0.2639 0.20818 0.24179 0.26544 0.26131 0.22872
3212.356 0.22704 0.181058 0.18562 0.3117 0.2915 0.2307 0.22687 0.16604 0.21585 0.2987
3231.650 0.3264 0.4301 0.3253 0.21155 0.2794 0.3693 0.3943 0.21849 0.171267 0.2946
3250.943 0.275 0.3647 0.4026 0.23912 0.178719 0.2861 0.3445 0.3799 0.3165 0.25149
3270.236 0.2424 0.21679 0.25213 0.22512 0.2865 0.3104 0.3008 0.25738 0.24945 0.4016
3289.530 0.4022 0.3499 0.3772 0.23803 0.179912 0.24061 0.19071 0.22739 0.27192 0.3334
3308.823 0.24363 0.16789 0.17044 0.180772 0.22606 0.2885 0.3247 0.2555 0.3081 0.2711
3328.117 0.20993 0.2774 0.391 0.5235 0.5765 0.4751 0.3684 0.2804 0.22076 0.16
3347.410 0.1213 0.2947 0.46 0.3381 0.16678 0.20872 0.21802 0.2388 0.24168 0.1514
3366.704 0.21778 0.3321 0.3636 0.3131 0.3709 0.3144 0.24285 0.3206 0.4037 0.3089
3385.997 0.171051 0.2798 0.3691 0.4467 0.442 0.3797 0.3294 0.2763 0.25691 0.3
3405.290 0.3715 0.2777 0.20876 0.23058 0.2855 0.4279 0.3622 0.2752 0.3493 0.3493
3424.584 0.3878 0.4826 0.4421 0.3525 0.3233 0.3836 0.4532 0.411 0.2753 0.3327
3443.877 0.3179 0.23441 0.3914 0.2933 0.22942 0.3453 0.3853 0.3462 0.3607 0.4741
3463.171 0.4206 0.3894 0.4211 0.3295 0.2729 0.2807 0.24887 0.3312 0.45 0.41
3482.464 0.3537 0.3661 0.3619 0.2899 0.3481 0.3931 0.3721 0.357 0.3459 0.3683
3501.758 0.3482 0.3559 0.3531 0.3804 0.4733 0.4457 0.4006 0.3899 0.2951 0.2946
3521.051 0.2941 0.3124 0.407 0.3673 0.19493 0.1353 0.20964 0.22478 0.2898 0.3274
3540.344 0.3583 0.3604 0.26405 0.2579 0.21491 0.23443 0.2931 0.293 0.3495 0.345
3559.638 0.3637 0.4032 0.3315 0.3517 0.405 0.3894 0.3772 0.3783 0.4726 0.4983
3578.931 0.3458 0.2901 0.3653 0.3459 0.3761 0.3907 0.3305 0.2856 0.2938 0.3044
3598.225 0.19648 0.237 0.21318 0.058 0.1551 0.3417 0.3385 0.3386 0.3169 0.22984
3617.518 0.3133 0.4171 0.3472 0.2939 0.2791 0.25884 0.3117 0.3757 0.3362 0.22856
3636.812 0.21145 0.2805 0.3107 0.3377 0.4053 0.4445 0.3655 0.3195 0.3892 0.366
3656.105 0.2951 0.2754 0.3457 0.3485 0.1963 0.18392 0.2917 0.3448 0.3432 0.323
3675.398 0.4157 0.3515 0.3124 0.2836 0.19999 0.1197 0.018 0.036 0.1058 0.25638
3694.692 0.19011 0.1215 0.1353 0.1587 0.20011 0.2442 0.323 0.179812 0.1268 0.22157
3713.985 0.20286 0.1114 0.1297 0.25119 0.24877 0.22182 0.1457 0.0811 0.1574 0.2044
3733.279 0.25235 0.2829 0.27022 0.19273 0.1124 0.17116 0.18743 0.1142 0.18849 0.3456
3752.572 0.27153 0.1507 0.16992 0.175696 0.18946 0.26103 0.25213 0.22758 0.19151 0.1143
3771.866 0.16603 0.3347 0.4099 0.3065 0.20499 0.1345 0.0856 0.1187 0.20587 0.22411
3791.159 0.1584 0.1455 0.21595 0.25092 0.21322 0.26054 0.3087 0.3461 0.3664 0.3084
3810.452 0.26809 0.24787 0.3103 0.3396 0.2999 0.26409 0.2911 0.23138 0.0996 0.0969
3829.746 0.16832 0.2861 0.2898 0.23067 0.2958 0.3088 0.2987 0.277 0.179824 0.1363
3849.039 0.181615 0.2721 0.25499 0.19319 0.16999 0.0863 0.0825 0.24372 0.3273 0.3463
3868.333 0.3435 0.24549 0.23702 0.2943 0.2303 0.19922 0.19395 0.1592 0.20025 0.2849
3887.626 0.2976 0.287 0.3058 0.22697 0.16796 0.1551 0.19666 0.26653 0.27054 0.24019
3906.920 0.23721 0.24674 0.21038 0.20126 0.2048 0.20941 0.2476 0.20683 0.22971 0.285
3926.213 0.24306 0.3147 0.22491 0.062 0.1262 0.20142 0.19248 0.19216 0.14 0.1592
3945.506 0.26721 0.22408 0.21896 0.22529 0.181496 0.25059 0.35 0.3267 0.26915 0.3369
3964.800 0.3565 0.25971 0.21029 0.16735 0.177864 0.24334 0.2774 0.21562 0.21369 0.2984
3984.093 0.3268 0.3646 0.3038 0.24275 0.23323 0.23697 0.21908 0.172321 0.17039
##END=
