##TITLE=Methyl cyanoacetate
##JCAMP-DX=4.24
##DATA TYPE=INFRARED SPECTRUM
##ORIGIN=EPA-IR VAPOR PHASE LIBRARY
##OWNER=SRD/NIST
Collection (C) 2018 copyright by the U.S. Secretary of Commerce
on behalf of the United States of America. All rights reserved.
##CAS REGISTRY NO=105-34-0
##MOLFORM=C 4 H 5 N O 2
##$NIST SOURCE=MSDC-IR
##STATE=gas
##XUNITS=1/CM
##YUNITS=ABSORBANCE
##XFACTOR=1.
##YFACTOR=0.001
##DELTAX=1.92898
##FIRSTX=549.8
##LASTX=4000.7
##FIRSTY=2.32
##MAXX=4000.7
##MINX=549.759
##MAXY=0.22001
##MINY=0.0005584
##NPOINTS=1790
##XYDATA=(X++(Y..Y))
549.759 2.32 2.44 2.57 2.49 2.65 2.86 2.61 2.85 3.25 3.48
569.049 3.79 3.99 4.29 4.41 4.66 5 5.2 5.29 5.6 5.84
588.339 5.88 6.19 6.5 6.77 7.07 7.09 6.93 7.07 7.08 6.98
607.628 6.96 6.75 6.53 6.43 6.27 6.11 5.99 5.65 5.41 5.32
626.918 5.06 4.69 4.16 3.94 3.77 3.67 3.44 3.1 2.93 2.63
646.208 2.54 2.52 2.53 2.72 2.92 2.95 2.88 2.86 3.05 3.24
665.498 3.55 3.92 4.04 4.21 4.66 5.04 4.95 4.98 5.12 5.35
684.787 5.75 5.87 5.86 5.87 6.04 6.15 6.05 5.92 5.88 6.07
704.077 6.1 5.83 5.73 5.87 5.77 5.86 6.09 6.04 6.02 6.06
723.367 5.95 5.86 6.11 6.26 6.25 6.19 6.08 6.05 5.99 5.89
742.657 5.75 5.77 5.73 5.47 5.29 5.25 5.08 4.94 4.87 4.67
761.947 4.42 4.39 4.52 4.56 4.57 4.64 4.64 4.59 4.55 4.58
781.236 4.59 4.56 4.62 4.62 4.63 4.82 4.96 4.92 4.89 4.97
800.526 5.28 5.53 5.49 5.42 5.62 6 6.37 6.72 7.17 7.76
819.816 8.45 9.36 10.15 10.66 11.29 11.95 12.52 12.96 13.27 13.37
839.106 13.33 13.42 13.49 13.45 13.29 12.98 12.18 11.07 10.22 9.48
858.395 8.73 8.14 7.76 7.4 6.99 6.68 6.41 6.12 5.91 5.81
877.685 5.69 5.82 5.92 5.67 5.61 5.5 5.36 5.37 5.3 5.08
896.975 4.84 4.67 4.69 4.72 4.73 4.65 4.54 4.4 4.39 4.5
916.265 4.5 4.56 4.69 4.73 4.79 4.81 4.8 4.98 5.13 5.24
935.555 5.28 5.21 5.03 4.94 4.97 4.83 4.68 4.65 4.49 4.34
954.844 4.3 4.24 4.09 3.94 4.04 4.08 4.13 4.35 4.37 4.27
974.134 4.51 4.81 5.2 5.58 5.97 6.84 7.81 8.6 9.9 11.7
993.424 13.61 16.18 19.21 22.64 26.42 30.5 34.62 38.86 42.89 45.83
1012.714 48.13 49.47 49.98 50.29 50.33 49.98 48.52 46.68 44.02 39.47
1032.003 33.62 27.35 21.63 16.91 13.63 11.59 10.26 9.3 8.39 7.73
1051.293 7.36 6.86 6.18 5.8 5.65 5.45 5.08 4.92 4.9 4.96
1070.583 5.08 5 4.83 4.43 4.45 4.74 4.71 4.57 4.65 4.68
1089.873 4.61 4.7 4.92 5.18 5.49 5.71 5.65 5.75 6.42 7.09
1109.163 7.43 7.86 8.17 8.61 9.34 9.97 11.26 12.56 13.63 15.18
1128.452 16.82 18.56 20.76 23.55 26.8 30.43 34.51 39.25 44.41 49.87
1147.742 56.06 62.75 69.23 75.6 81.74 87.21 91.86 95.91 99.83 103.48
1167.032 106.35 109.04 111.12 112.09 112.28 111.14 109.35 107.69 106.07 104.62
1186.322 103.76 103.23 102.55 101.45 99.78 97.64 95.57 93.64 91.13 88.83
1205.611 86.97 85.07 82.54 79.42 76.57 73.58 70.36 67.59 65.48 64.04
1224.901 63.09 62.93 63.49 64.39 65.83 67.83 70.55 73.9 77.57 82.04
1244.191 87.11 92.66 99.01 106.08 113.12 120.12 126.95 132.82 137.66 141.36
1263.481 143.21 143.64 143.24 141.74 139.14 135.25 130.28 124.11 116.84 108.47
1282.771 99.6 91.26 83.92 77.73 72.64 68.79 66.04 64.04 62.82 62.26
1302.060 62.03 62.19 62.49 62.75 62.83 62.65 62.45 62.14 61.7 61.23
1321.350 60.73 60.12 59.43 58.68 57.88 57.07 56.01 54.64 53 50.87
1340.640 48.46 46.05 43.69 41.27 38.63 35.56 32.07 28.35 24.7 21.46
1359.930 18.76 16.68 15.13 13.92 13 12.35 11.89 11.57 11.36 11.22
1379.219 11.15 11.18 11.31 11.42 11.6 11.9 12.2 12.58 13.03 13.53
1398.509 14.13 14.73 15.36 16.1 16.63 16.95 17.18 17.45 17.97 18.73
1417.799 19.62 20.5 21.42 22.68 24.39 26.52 29 31.48 33.67 35.16
1437.089 35.89 36.46 37.36 37.06 36.31 36.85 36.62 34.07 29.68 25
1456.378 20.98 17.95 15.86 14.32 13.28 12.48 11.82 11.25 10.8 10.36
1475.668 9.89 9.41 9.03 8.67 8.3 7.94 7.6 7.28 6.96 6.7
1494.958 6.49 6.26 6.03 5.83 5.64 5.53 5.42 5.29 5.24 5.13
1514.248 4.99 4.94 4.98 4.95 4.86 4.81 4.81 4.86 4.87 4.83
1533.538 4.79 4.8 4.78 4.77 4.81 4.84 4.81 4.75 4.74 4.76
1552.827 4.71 4.65 4.67 4.73 4.76 4.72 4.65 4.65 4.67 4.63
1572.117 4.59 4.59 4.53 4.54 4.53 4.56 4.58 4.51 4.54 4.5
1591.407 4.48 4.53 4.43 4.27 4.26 4.28 4.25 4.27 4.3 4.25
1610.697 4.17 4.09 4.11 4.08 3.97 3.93 3.94 4.01 3.98 3.92
1629.986 3.95 3.97 3.93 3.88 3.89 3.94 4.04 4.04 4.02 4.15
1649.276 4.14 4.16 4.22 4.26 4.34 4.37 4.33 4.36 4.43 4.45
1668.566 4.5 4.5 4.51 4.52 4.47 4.45 4.51 4.5 4.57 4.66
1687.856 4.74 4.83 4.88 5.05 5.22 5.36 5.64 5.97 6.24 6.56
1707.146 7.01 7.57 8.09 8.69 9.45 10.41 11.51 12.61 13.93 15.44
1726.435 17.2 19.2 21.51 24.14 27.47 31.24 35.34 40.32 45.93 52.47
1745.725 60.03 68.63 78.46 89.79 102.29 115.75 130.67 146.13 161.53 175.9
1765.015 187.54 195.57 200.13 202.4 204.6 208.36 213.33 218.15 220.01 215.71
1784.305 204.73 189.89 174.49 160.31 147.47 134.8 121.64 107.71 94.16 81.88
1803.594 71.17 61.75 53.46 46.11 39.56 33.74 28.67 24.29 20.58 17.47
1822.884 14.92 12.79 11.09 9.78 8.78 7.96 7.31 6.87 6.49 6.17
1842.174 5.91 5.66 5.52 5.45 5.36 5.24 5.14 5.02 4.91 4.88
1861.464 4.84 4.76 4.64 4.55 4.48 4.39 4.29 4.24 4.16 4.02
1880.754 3.96 3.93 3.84 3.79 3.76 3.68 3.65 3.57 3.5 3.49
1900.043 3.43 3.35 3.3 3.25 3.26 3.23 3.15 3.12 3.11 3.09
1919.333 3.07 3.03 3.03 3.04 3.03 3.03 3 3.01 3.03 2.97
1938.623 2.91 2.88 2.83 2.81 2.83 2.82 2.79 2.73 2.69 2.71
1957.913 2.68 2.62 2.56 2.56 2.57 2.56 2.54 2.51 2.58 2.55
1977.202 2.5 2.45 2.47 2.58 2.58 2.62 2.82 2.9 2.81 2.85
1996.492 2.93 2.96 2.95 2.98 3.07 3.17 3.27 3.34 3.43 3.5
2015.782 3.54 3.64 3.75 3.85 3.88 3.89 3.91 3.94 3.98 4
2035.072 3.96 3.95 3.93 3.8 3.71 3.67 3.6 3.47 3.38 3.31
2054.362 3.24 3.2 3.15 3.08 3.01 2.93 2.89 2.96 3 2.95
2073.651 2.88 2.87 2.95 2.9 2.88 2.98 3.04 3.02 3.02 3.05
2092.941 3.03 3.03 3.07 3.05 3.03 3.01 2.92 2.83 2.82 2.79
2112.231 2.73 2.68 2.57 2.4 2.32 2.22 2.13 2.05 1.98 1.95
2131.521 1.93 1.86 1.81 1.82 1.79 1.8 1.73 1.62 1.63 1.58
2150.810 1.56 1.63 1.62 1.57 1.58 1.58 1.6 1.59 1.55 1.56
2170.100 1.54 1.53 1.5 1.44 1.4 1.4 1.36 1.32 1.3 1.27
2189.390 1.29 1.28 1.3 1.29 1.21 1.19 1.21 1.22 1.31 1.36
2208.680 1.35 1.33 1.25 1.26 1.33 1.36 1.35 1.29 1.34 1.36
2227.970 1.33 1.35 1.37 1.4 1.4 1.4 1.4 1.39 1.46 1.54
2247.259 1.58 1.69 1.72 1.73 1.77 1.78 1.81 1.85 1.94 2.04
2266.549 2.04 1.98 1.97 1.96 1.92 1.86 1.8 1.74 1.69 1.6
2285.839 1.53 1.49 1.4 1.34 1.29 1.27 1.26 1.27 1.27 1.29
2305.129 1.36 1.35 1.31 1.36 1.4 1.37 1.4 1.41 1.46 1.45
2324.418 1.36 1.43 1.49 1.51 1.6 1.64 1.56 1.57 1.64 1.63
2343.708 1.58 1.59 1.67 1.67 1.67 1.74 1.69 1.67 1.74 1.77
2362.998 1.71 1.66 1.7 1.68 1.62 1.6 1.63 1.63 1.59 1.57
2382.288 1.46 1.4 1.38 1.37 1.35 1.35 1.37 1.32 1.3 1.3
2401.578 1.25 1.26 1.28 1.2 1.16 1.22 1.31 1.29 1.28 1.28
2420.867 1.27 1.26 1.25 1.25 1.28 1.28 1.23 1.21 1.3 1.36
2440.157 1.26 1.28 1.35 1.34 1.27 1.3 1.37 1.37 1.4 1.41
2459.447 1.38 1.34 1.39 1.37 1.28 1.33 1.37 1.31 1.3 1.32
2478.737 1.3 1.29 1.31 1.28 1.31 1.42 1.4 1.33 1.28 1.26
2498.026 1.28 1.28 1.3 1.35 1.36 1.32 1.38 1.43 1.41 1.39
2517.316 1.46 1.46 1.41 1.42 1.37 1.3 1.4 1.53 1.51 1.51
2536.606 1.44 1.4 1.35 1.36 1.48 1.39 1.23 1.26 1.31 1.3
2555.896 1.33 1.31 1.26 1.25 1.29 1.33 1.34 1.29 1.27 1.27
2575.186 1.28 1.32 1.42 1.5 1.45 1.41 1.45 1.52 1.51 1.48
2594.475 1.57 1.59 1.6 1.59 1.59 1.59 1.58 1.66 1.68 1.6
2613.765 1.54 1.55 1.58 1.59 1.56 1.44 1.4 1.45 1.34 1.27
2633.055 1.34 1.3 1.23 1.25 1.15 1.1 1.15 1.17 1.18 1.21
2652.345 1.24 1.24 1.26 1.29 1.27 1.28 1.31 1.23 1.17 1.13
2671.634 1.15 1.21 1.25 1.23 1.24 1.23 1.12 1.11 1.11 1.13
2690.924 1.25 1.2 1.21 1.23 1.19 1.25 1.27 1.29 1.21 1.12
2710.214 1.13 1.2 1.15 1.09 1.18 1.28 1.22 1.11 1.09 1.08
2729.504 1.09 1.14 1.16 1.08 1.04 1.02 0.9832 0.9849 1.07 1.04
2748.794 0.9158 0.9368 0.9565 0.9257 0.9532 1.01 0.9806 0.9626 0.9735 0.9463
2768.083 0.9828 0.9928 1.03 1.06 0.9988 0.9862 0.9438 0.9515 0.9768 1.02
2787.373 1.12 1.11 1.06 1.08 1.16 1.15 1.07 1.11 1.19 1.26
2806.663 1.37 1.47 1.42 1.4 1.49 1.48 1.52 1.71 1.8 1.8
2825.953 1.86 1.92 2.03 2.15 2.34 2.69 3.01 3.33 3.72 4.14
2845.242 4.55 4.95 5.32 5.51 5.5 5.57 5.62 5.55 5.53 5.62
2864.532 5.64 5.39 4.94 4.37 3.84 3.51 3.33 3.19 3.06 3.05
2883.822 3.15 3.31 3.42 3.53 3.65 3.88 4.15 4.42 4.59 4.66
2903.112 4.99 5.23 5.26 5.39 5.46 5.57 5.67 5.65 5.52 5.45
2922.401 5.5 5.69 5.83 5.88 6.08 6.29 6.51 6.79 7.28 7.86
2941.691 8.6 9.64 10.91 12.62 14.7 17.35 20.51 23.67 26.48 28.39
2960.981 29.04 28.94 29.1 29.64 29.06 28.02 28.02 27.93 26.43 23.58
2980.271 20.3 17.08 14.39 12.38 11.03 10.26 9.68 9.34 9.2 9.11
2999.561 9.1 9.14 9.27 9.47 9.71 9.91 10.2 10.43 10.33 10.18
3018.850 10.03 10.01 9.99 9.91 9.88 9.98 9.92 9.8 9.62 9.3
3038.140 8.98 8.62 8.33 8.15 8.02 7.75 7.31 6.95 6.71 6.4
3057.430 5.85 5.43 5.37 5.28 4.93 4.64 4.5 4.33 4.21 4.08
3076.720 3.94 3.81 3.77 3.63 3.5 3.59 3.56 3.48 3.44 3.35
3096.009 3.31 3.24 3.18 3.21 3.26 3.25 3.1 3.19 3.15 2.86
3115.299 2.88 2.89 2.78 2.66 2.61 2.63 2.59 2.5 2.33 2.32
3134.589 2.22 2.05 2.06 1.99 1.89 1.95 1.96 1.8 1.68 1.55
3153.879 1.57 1.71 1.73 1.69 1.53 1.47 1.55 1.59 1.57 1.53
3173.169 1.55 1.49 1.43 1.39 1.34 1.37 1.45 1.53 1.57 1.54
3192.458 1.48 1.4 1.36 1.39 1.48 1.52 1.54 1.57 1.59 1.55
3211.748 1.54 1.62 1.67 1.65 1.52 1.4 1.36 1.52 1.47 1.29
3231.038 1.41 1.35 1.21 1.22 1.12 0.9684 0.9634 1.07 1.08 0.9207
3250.328 0.8916 0.8369 0.8579 1.02 1.04 0.9794 0.9861 0.992 0.98 1.04
3269.617 1.07 1.06 0.9507 0.8398 0.8521 0.8964 0.9621 0.9232 0.8796 1.02
3288.907 1.06 1.05 1.01 0.9109 0.9453 0.834 0.7664 0.9205 0.9694 0.8624
3308.197 0.8911 0.8624 0.828 0.9207 0.9216 0.9259 0.9123 0.8779 0.9387 0.9493
3327.487 0.8342 0.8821 1.05 1.11 1.03 0.908 0.8689 0.8834 1.02 0.9918
3346.777 0.943 0.8598 0.723 0.929 0.9748 0.8489 0.7835 0.8217 0.8852 0.857
3366.066 0.8144 0.8255 0.7929 0.9098 1.12 1.02 0.918 0.8031 0.8048 0.9272
3385.356 0.9419 0.9142 0.8279 0.8211 0.8371 0.8425 0.8334 0.9294 0.947 0.9907
3404.646 1.08 1.02 0.9677 1.01 0.9672 0.8875 1.06 0.9752 0.8832 0.8799
3423.936 0.8858 0.9833 0.9471 0.8672 0.8109 0.7984 0.8283 0.93 0.9887 0.9574
3443.225 0.9277 1.02 0.9911 0.9503 1.11 1.19 1.12 1.03 1.06 1.11
3462.515 1.16 1.1 1.04 1.12 1.15 1.13 1.14 1.21 1.27 1.44
3481.805 1.41 1.21 1.2 1.34 1.5 1.5 1.6 1.75 1.8 1.79
3501.095 1.82 1.93 2.07 2.21 2.26 2.27 2.4 2.62 2.82 3.06
3520.385 3.17 3.22 3.37 3.43 3.41 3.47 3.52 3.45 3.46 3.52
3539.674 3.48 3.41 3.19 2.96 2.91 2.89 2.72 2.51 2.5 2.52
3558.964 2.44 2.14 2.05 2.04 1.98 1.94 1.69 1.53 1.57 1.57
3578.254 1.44 1.37 1.25 1.22 1.19 1.02 1.11 1.11 0.9982 1.03
3597.544 1.09 1.22 1.13 0.9616 1.05 1.1 0.9786 0.9443 0.9671 1.07
3616.833 1.18 1.04 0.9074 0.7836 0.6826 0.9346 1.07 1.08 1.01 0.7671
3636.123 0.6777 0.7788 0.8127 0.8178 0.9785 1.01 1.04 1.02 0.8328 0.8541
3655.413 0.8996 0.8053 0.8666 0.9018 0.9339 0.9316 0.8616 0.7202 0.6904 0.9236
3674.703 0.9706 0.8605 0.8338 0.9143 1.08 1.09 0.9899 0.9877 0.9462 0.9449
3693.993 0.9616 0.8633 0.8335 0.8546 0.9107 0.9836 0.9219 0.8849 0.8434 0.6762
3713.282 0.7492 1.01 1.05 0.8891 0.8731 1 0.9247 0.9155 1 0.8818
3732.572 0.8117 1 1.05 1.05 1.06 0.9851 0.8002 0.6287 0.7622 0.8853
3751.862 0.8174 0.7771 0.8859 0.9337 0.913 0.8995 0.8309 0.7496 0.9057 1.05
3771.152 0.8253 0.879 1.01 1 1.03 0.8398 0.7827 0.8581 0.977 0.9422
3790.441 0.8191 0.8397 0.7604 0.7466 0.8717 0.9365 1.01 0.9892 1 0.9371
3809.731 0.8761 0.9312 0.9054 0.8558 0.7363 0.813 0.7787 0.5584 0.7786 1.03
3829.021 0.9305 0.8843 0.8809 0.8999 0.964 0.9497 0.9535 0.9318 0.9418 1.02
3848.311 1.06 1.1 1.07 1.02 0.8863 0.7853 0.8557 0.8151 0.869 0.9416
3867.601 0.8891 0.94 1.04 1 0.9382 0.7756 0.642 0.8011 0.948 0.8669
3886.890 0.9037 1.11 1.04 1.1 1.23 1.1 0.844 0.6701 0.855 1.04
3906.180 0.8928 0.7365 0.7753 0.8255 0.7893 0.9247 1.02 0.8903 0.8323 0.8791
3925.470 0.9504 1.02 1.07 0.9752 0.9078 0.9664 1.05 0.9854 0.8693 0.9203
3944.760 1.06 1.08 0.9251 0.9047 0.8172 0.7576 0.9982 0.9897 0.8879 0.9908
3964.049 1.05 1.08 1.02 0.938 0.9966 1.18 1.29 1.12 1.03 0.9885
3983.339 1.02 1.22 1.17 1.1 1.07 1.09 1.53 1.43 1.06 1.11
##END=
