##TITLE=Ethyl methylcarbamate
##JCAMP-DX=4.24
##DATA TYPE=INFRARED SPECTRUM
##ORIGIN=NIST Mass Spectrometry Data Center
##OWNER=NIST Standard Reference Data Program
Collection (C) 2018 copyright by the U.S. Secretary of Commerce
on behalf of the United States of America. All rights reserved.
##CAS REGISTRY NO=105-40-8
##MOLFORM=C 4 H 9 N O 2
##$NIST SOURCE=MSDC-IR
##SPECTROMETER/DATA SYSTEM=HP-GC/MS/IRD
##STATE=gas
##XUNITS=1/CM
##YUNITS=ABSORBANCE
##XFACTOR=1.0
##YFACTOR=0.000023200
##DELTAX=4.0
##FIRSTX=550.0
##LASTX=3846.0
##FIRSTY=0.006705
##MAXX=3846
##MINX=550
##MAXY=0.232
##MINY=0
##NPOINTS=825
##XYDATA=(X++(Y..Y))
550.0 289 221 178 185 175 158 141 121 100 81
590.0 70 64 60 59 56 53 51 50 44 35
630.0 28 25 23 18 14 9 6 6 5 6
670.0 8 8 10 12 16 17 17 16 15 17
710.0 11 5 2 0 2 8 13 23 42 70
750.0 106 147 196 253 316 381 444 480 485 476
790.0 460 432 396 357 316 281 254 235 223 216
830.0 214 218 224 230 240 249 258 266 273 279
870.0 278 275 271 260 248 234 225 224 231 247
910.0 276 329 401 481 553 602 628 624 580 501
950.0 407 313 234 177 145 129 121 124 135 156
990.0 183 220 275 354 463 612 809 1043 1277 1455
1030.0 1544 1552 1491 1342 1109 879 723 652 645 685
1070.0 768 884 1024 1178 1344 1517 1681 1809 1888 1936
1110.0 1989 2067 2201 2424 2745 3095 3364 3486 3452 3248
1150.0 2869 2403 2010 1781 1683 1645 1634 1636 1661 1725
1190.0 1853 2079 2435 2936 3598 4441 5447 6545 7611 8496
1230.0 9048 9143 8744 7926 6804 5503 4224 3177 2427 1914
1270.0 1557 1304 1127 1012 945 929 966 1052 1189 1386
1310.0 1638 1911 2135 2245 2232 2107 1897 1599 1227 888
1350.0 675 592 608 686 773 847 922 991 1057 1051
1390.0 978 924 899 872 845 846 887 951 1011 1063
1430.0 1135 1222 1303 1369 1428 1508 1622 1785 1980 2223
1470.0 2545 2969 3469 4039 4682 5327 5832 6130 6225 6094
1510.0 5722 5149 4479 3836 3292 2850 2483 2169 1891 1651
1550.0 1443 1265 1109 971 856 753 663 586 525 475
1590.0 437 410 390 374 360 349 335 320 303 286
1630.0 268 250 234 220 209 200 195 193 194 197
1670.0 207 220 241 270 308 356 418 499 609 749
1710.0 938 1206 1591 2112 2804 3706 4853 6208 7660 8983
1750.0 9820 10000 9903 9761 8998 7457 5730 4234 3033 2109
1790.0 1441 983 691 511 400 330 282 248 221 199
1830.0 179 161 144 128 113 102 90 80 73 66
1870.0 60 55 52 50 48 47 46 43 40 35
1910.0 32 30 26 23 19 16 14 14 12 11
1950.0 10 9 6 6 6 5 4 6 8 11
1990.0 15 19 23 26 29 31 32 31 28 24
2030.0 19 16 13 12 11 10 11 11 10 11
2070.0 13 13 14 15 16 19 21 22 22 23
2110.0 24 22 21 19 17 17 18 19 22 27
2150.0 30 33 35 36 34 31 27 21 15 9
2190.0 4 0 0 0 2 6 12 22 33 46
2230.0 62 79 97 118 139 160 178 192 203 214
2270.0 224 233 245 248 236 213 191 179 181 187
2310.0 184 164 136 108 88 75 69 68 67 61
2350.0 47 35 25 22 19 16 14 12 10 8
2390.0 9 8 9 11 13 16 20 21 22 24
2430.0 25 25 24 23 22 21 20 17 15 12
2470.0 9 8 7 6 4 3 0 0 0 0
2510.0 0 0 1 2 1 2 4 5 5 6
2550.0 6 7 7 8 7 8 9 9 10 11
2590.0 11 12 14 17 18 19 20 22 23 22
2630.0 21 22 23 24 23 25 26 28 30 32
2670.0 35 36 36 37 39 40 40 39 40 41
2710.0 40 41 42 43 45 47 48 48 50 52
2750.0 54 57 59 62 62 65 70 75 80 85
2790.0 95 106 121 141 168 207 253 298 333 356
2830.0 369 368 351 330 319 322 339 365 398 443
2870.0 498 565 634 704 776 854 928 997 1063 1124
2910.0 1182 1237 1295 1366 1460 1589 1734 1864 1971 2061
2950.0 2129 2152 2128 2096 2090 2115 2155 2171 2137 2091
2990.0 2050 1954 1746 1505 1297 1125 970 825 705 608
3030.0 532 471 423 382 347 316 289 266 245 226
3070.0 208 193 181 168 154 142 130 117 108 101
3110.0 92 85 78 74 70 65 61 58 56 55
3150.0 52 51 49 46 45 43 40 38 36 34
3190.0 32 29 26 23 22 19 17 18 17 15
3230.0 14 14 15 15 13 14 13 12 11 9
3270.0 9 8 6 4 3 3 1 0 1 2
3310.0 3 2 0 0 0 0 0 0 0 2
3350.0 2 1 1 4 3 3 4 4 3 4
3390.0 5 7 10 11 10 12 17 19 21 28
3430.0 36 46 62 83 108 144 194 256 333 426
3470.0 526 634 737 821 879 905 891 844 774 680
3510.0 571 458 356 267 198 149 114 87 68 53
3550.0 43 36 31 25 21 19 17 13 12 9
3590.0 7 7 5 4 5 4 4 5 4 5
3630.0 5 7 8 8 9 9 7 8 10 8
3670.0 9 10 10 9 10 11 10 10 11 10
3710.0 8 6 8 9 7 6 7 6 7 7
3750.0 6 10 10 9 7 7 8 9 8 8
3790.0 8 9 10 10 9 9 10 8 7 9
3830.0 11 10 9 9 9
##END=
