##TITLE=2-Chloro-N-ethylacetamide
##JCAMP-DX=4.24
##DATA TYPE=INFRARED SPECTRUM
##ORIGIN=EPA-IR VAPOR PHASE LIBRARY
##OWNER=SRD/NIST
Collection (C) 2018 copyright by the U.S. Secretary of Commerce
on behalf of the United States of America. All rights reserved.
##CAS REGISTRY NO=105-35-1
##MOLFORM=C 4 H 8 Cl N O
##$NIST SOURCE=MSDC-IR
##STATE=gas
##XUNITS=1/CM
##YUNITS=ABSORBANCE
##XFACTOR=1.
##YFACTOR=0.001
##DELTAX=1.92898
##FIRSTX=549.8
##LASTX=4000.7
##FIRSTY=5.577
##MAXX=4000.7
##MINX=549.759
##MAXY=0.186577
##MINY=0
##NPOINTS=1790
##XYDATA=(X++(Y..Y))
549.759 5.577 5.317 5.217 5.067 4.907 4.677 4.537 4.487 4.277 4.107
569.049 4.077 4.057 3.927 3.957 3.997 3.807 3.747 3.907 3.907 3.987
588.339 4.277 4.517 4.807 4.887 5.017 5.267 5.477 5.717 5.687 5.507
607.628 5.517 5.707 5.737 5.797 5.717 5.347 5.177 5.177 5.187 4.987
626.918 4.607 4.477 4.317 4.237 4.317 4.137 4.077 4.137 3.867 3.567
646.208 3.647 3.777 3.937 4.017 4.007 3.937 3.797 3.947 4.187 4.167
665.498 4.127 4.337 4.447 4.467 4.567 4.597 4.627 4.707 4.757 4.677
684.787 4.707 4.787 4.777 4.707 4.687 4.617 4.597 4.807 4.847 4.897
704.077 4.877 4.717 4.717 4.757 4.807 4.797 4.847 5.047 5.207 5.467
723.367 5.747 6.167 6.687 7.267 8.247 9.357 10.607 11.967 13.597 15.517
742.657 17.527 19.357 20.777 22.257 23.687 24.627 25.297 25.847 26.157 26.147
761.947 25.897 25.357 24.337 23.407 22.617 21.717 20.997 20.227 19.387 18.547
781.236 17.467 16.407 15.507 14.427 13.237 12.177 11.007 9.847 8.707 7.677
800.526 6.757 6.007 5.517 4.947 4.547 4.337 4.087 3.847 3.687 3.357
819.816 2.727 2.647 2.887 3.147 2.907 2.487 2.477 2.397 2.347 2.337
839.106 2.177 1.967 1.917 1.927 2.037 2.087 1.987 1.827 1.707 1.727
858.395 1.857 1.977 1.977 1.947 1.957 1.917 1.897 1.957 1.877 1.867
877.685 1.827 1.817 1.907 1.827 1.867 2.047 2.137 2.217 2.357 2.427
896.975 2.377 2.357 2.507 2.677 2.827 3.027 3.247 3.487 3.767 3.917
916.265 3.987 4.197 4.487 4.577 4.587 4.517 4.487 4.637 4.507 4.257
935.555 4.247 4.257 4.067 3.737 3.567 3.587 3.347 3.207 3.347 3.257
954.844 3.147 3.237 3.297 3.277 3.437 3.627 3.607 3.517 3.547 3.667
974.134 3.567 3.567 3.807 3.897 3.967 4.067 4.057 4.037 4.027 4.007
993.424 3.917 3.977 4.057 4.087 4.287 4.387 4.267 4.117 3.977 4.007
1012.714 3.847 3.647 3.727 3.707 3.647 3.567 3.577 3.787 3.917 3.627
1032.003 3.647 3.857 3.817 3.907 3.937 3.917 3.797 3.777 4.147 4.327
1051.293 4.267 4.447 4.787 4.797 4.807 4.937 5.077 5.407 5.457 5.407
1070.583 5.217 4.667 4.847 5.067 4.957 4.657 4.037 3.867 4.137 4.617
1089.873 4.887 4.677 4.567 4.797 5.107 5.567 5.787 6.147 6.307 6.467
1109.163 7.277 7.497 7.207 7.317 7.747 8.267 8.537 8.307 7.847 7.717
1128.452 7.887 8.057 7.987 7.517 7.147 7.197 7.367 7.367 7.197 7.027
1147.742 7.357 7.667 7.597 7.647 7.587 7.757 7.877 7.577 7.397 7.517
1167.032 7.567 7.687 7.907 7.917 7.987 8.067 8.097 8.287 8.557 8.687
1186.322 8.717 9.087 9.497 9.847 9.957 9.917 10.257 10.557 10.877 11.367
1205.611 11.887 12.507 12.847 13.147 13.887 14.377 14.637 15.697 16.787 17.657
1224.901 18.627 19.747 21.447 23.097 24.977 27.377 30.197 33.377 36.447 39.487
1244.191 42.627 45.367 47.547 48.887 49.247 48.577 46.887 44.347 42.087 40.967
1263.481 39.077 35.647 31.597 27.747 24.437 21.737 19.717 18.077 16.627 15.547
1282.771 14.957 14.697 14.727 14.997 15.307 15.817 16.587 17.337 18.087 18.677
1302.060 18.977 19.067 18.957 18.627 18.167 17.517 16.587 15.577 14.437 13.187
1321.350 11.987 10.867 9.897 9.127 8.497 7.987 7.647 7.377 7.157 6.987
1340.640 6.957 6.967 7.057 7.237 7.477 7.797 8.057 8.197 8.277 8.317
1359.930 8.377 8.517 8.717 8.917 9.127 9.407 9.817 10.387 11.157 12.037
1379.219 12.847 13.507 13.957 14.157 14.357 14.537 14.797 15.157 15.217 14.837
1398.509 14.167 13.507 13.197 13.267 13.627 14.307 15.247 16.257 17.107 17.697
1417.799 18.127 18.557 18.897 19.107 19.317 19.387 19.187 18.777 18.207 17.717
1437.089 17.427 17.327 17.497 17.877 18.287 18.707 19.167 19.667 20.137 20.567
1456.378 21.107 21.607 21.927 22.137 22.347 22.707 23.207 23.837 24.717 25.877
1475.668 27.147 28.697 30.537 32.747 35.437 38.657 42.417 46.827 51.937 57.597
1494.958 63.947 71.007 78.577 86.587 94.807 102.967 111.247 118.927 125.457 130.807
1514.248 134.397 136.157 136.167 134.467 130.917 125.987 119.477 111.567 102.847 93.627
1533.538 84.077 75.027 66.997 59.557 53.087 47.577 42.717 38.427 34.687 31.247
1552.827 28.267 25.457 22.907 20.637 18.527 16.787 15.247 13.847 12.597 11.527
1572.117 10.547 9.677 8.937 8.317 7.777 7.177 6.717 6.377 6.117 5.867
1591.407 5.577 5.347 5.087 4.897 4.797 4.717 4.667 4.537 4.377 4.337
1610.697 4.387 4.347 4.337 4.397 4.387 4.347 4.437 4.577 4.657 4.787
1629.986 4.867 4.997 5.237 5.437 5.627 5.847 6.157 6.487 6.787 7.137
1649.276 7.557 8.027 8.537 9.047 9.597 10.127 10.767 11.487 12.207 12.937
1668.566 13.907 15.167 16.657 18.517 20.817 23.577 27.127 31.657 37.767 45.167
1687.856 53.877 64.557 77.057 91.197 107.767 125.687 142.987 159.887 171.727 178.037
1707.146 178.397 176.487 177.307 182.537 186.577 183.117 171.217 154.417 134.977 115.697
1726.435 98.157 82.727 69.207 57.827 47.887 39.657 33.327 28.277 24.297 21.277
1745.725 18.997 17.077 15.507 14.207 13.127 12.147 11.277 10.487 9.747 8.967
1765.015 8.257 7.607 6.977 6.397 5.837 5.377 4.957 4.567 4.187 3.827
1784.305 3.567 3.337 3.137 3.017 2.817 2.597 2.467 2.337 2.227 2.157
1803.594 2.067 1.997 1.937 1.897 1.927 1.937 1.867 1.827 1.797 1.777
1822.884 1.797 1.827 1.797 1.717 1.737 1.767 1.727 1.697 1.687 1.667
1842.174 1.687 1.667 1.597 1.507 1.487 1.517 1.497 1.497 1.477 1.467
1861.464 1.447 1.427 1.397 1.347 1.347 1.297 1.217 1.187 1.177 1.177
1880.754 1.157 1.177 1.207 1.127 1.0682 1.0524 0.9553 0.9208 0.9979 0.9752
1900.043 0.9284 0.9248 0.8817 0.8348 0.8608 0.9002 0.9185 0.8791 0.8083 0.8246
1919.333 0.8653 0.7969 0.7457 0.7672 0.7932 0.8391 0.804 0.7803 0.783 0.7504
1938.623 0.7796 0.7791 0.7377 0.7379 0.7613 0.771 0.7145 0.6566 0.6969 0.7164
1957.913 0.6934 0.675 0.6828 0.7142 0.7366 0.747 0.7131 0.7013 0.7162 0.7531
1977.202 0.7501 0.7417 0.7998 0.8479 0.8387 0.7494 0.7427 0.8019 0.8531 0.8861
1996.492 0.8388 0.8103 0.7789 0.793 0.8356 0.8416 0.8333 0.8457 0.858 0.7748
2015.782 0.7319 0.7734 0.7274 0.68 0.6958 0.6737 0.6975 0.6873 0.6109 0.5873
2035.072 0.552 0.4744 0.4698 0.4814 0.5123 0.5541 0.5469 0.5228 0.4693 0.4317
2054.362 0.4239 0.4197 0.4073 0.422 0.4411 0.4075 0.4304 0.4558 0.4228 0.452
2073.651 0.4475 0.4291 0.4612 0.45 0.457 0.4881 0.5046 0.5391 0.546 0.5212
2092.941 0.4737 0.4635 0.54 0.5447 0.5373 0.5282 0.5092 0.5194 0.5132 0.5446
2112.231 0.5666 0.5703 0.5807 0.5887 0.6048 0.5255 0.5005 0.5679 0.6035 0.6545
2131.521 0.684 0.6531 0.6792 0.7101 0.6516 0.6614 0.6678 0.602 0.5394 0.5693
2150.810 0.6074 0.5717 0.5957 0.6149 0.615 0.6099 0.5539 0.5433 0.5483 0.5636
2170.100 0.6304 0.6663 0.6564 0.6539 0.6554 0.6027 0.5944 0.6166 0.5923 0.5926
2189.390 0.578 0.5271 0.5469 0.5874 0.619 0.5959 0.5066 0.5167 0.5437 0.537
2208.680 0.5604 0.5199 0.4836 0.487 0.4394 0.4348 0.4487 0.4722 0.4514 0.4259
2227.970 0.43 0.4316 0.4978 0.4919 0.44 0.4115 0.4103 0.3767 0.3259 0.3692
2247.259 0.4498 0.4617 0.4314 0.468 0.4505 0.4012 0.4082 0.3981 0.3645 0.3767
2266.549 0.396 0.4216 0.4769 0.4191 0.4694 0.478 0.4134 0.4596 0.4932 0.5251
2285.839 0.5459 0.5335 0.5033 0.5014 0.504 0.5091 0.6046 0.6499 0.5894 0.6275
2305.129 0.6592 0.6272 0.5549 0.539 0.573 0.6057 0.6475 0.6832 0.7282 0.7124
2324.418 0.6888 0.6747 0.6714 0.7079 0.688 0.6764 0.6581 0.6429 0.6561 0.6428
2343.708 0.6271 0.6307 0.6023 0.5582 0.5548 0.5349 0.5327 0.5569 0.5335 0.4893
2362.998 0.5141 0.5051 0.4693 0.5037 0.5298 0.5112 0.5245 0.4966 0.4676 0.4952
2382.288 0.5528 0.5427 0.4703 0.4206 0.5023 0.6057 0.5383 0.509 0.5057 0.5253
2401.578 0.5474 0.5704 0.5993 0.5966 0.6291 0.6194 0.6098 0.6846 0.7422 0.6905
2420.867 0.6343 0.652 0.6902 0.6514 0.6241 0.6172 0.6186 0.6517 0.6952 0.7267
2440.157 0.6445 0.6033 0.6123 0.5725 0.5969 0.6425 0.6291 0.6211 0.5864 0.5548
2459.447 0.5816 0.5744 0.5836 0.5948 0.5312 0.4139 0.3842 0.4523 0.4369 0.4119
2478.737 0.4202 0.4189 0.3328 0.3172 0.3917 0.3763 0.3657 0.3765 0.3583 0.3757
2498.026 0.4143 0.4054 0.4051 0.3798 0.3462 0.328 0.319 0.2594 0.14306 0.15372
2517.316 0.20763 0.21587 0.22155 0.21882 0.22321 0.2679 0.2563 0.21524 0.2333 0.18553
2536.606 0.18404 0.2551 0.22284 0.22072 0.2681 0.2774 0.3446 0.4062 0.3675 0.3121
2555.896 0.3249 0.3675 0.3862 0.363 0.3163 0.3426 0.3458 0.3309 0.3696 0.3708
2575.186 0.3949 0.4446 0.4449 0.469 0.4847 0.4858 0.4825 0.4723 0.553 0.4625
2594.475 0.4109 0.5608 0.5852 0.569 0.6615 0.6487 0.5409 0.5199 0.526 0.5495
2613.765 0.5818 0.5663 0.5004 0.5031 0.5329 0.5095 0.5443 0.5581 0.5062 0.5415
2633.055 0.5656 0.6205 0.6573 0.6079 0.6315 0.5163 0.4712 0.5182 0.5314 0.6384
2652.345 0.6615 0.6531 0.6246 0.6083 0.6269 0.6449 0.64 0.6136 0.65 0.708
2671.634 0.74 0.7312 0.7108 0.731 0.6546 0.6771 0.7624 0.6264 0.6283 0.7109
2690.924 0.668 0.6945 0.7836 0.7787 0.7303 0.7429 0.7519 0.8031 0.8777 0.8772
2710.214 0.8868 0.8702 0.818 0.8626 0.9118 0.9089 0.8927 0.8303 0.85 0.8644
2729.504 0.9035 0.9396 0.9033 1.0112 1.093 1.0317 1.0682 1.157 1.187 1.227
2748.794 1.197 1.147 1.197 1.297 1.327 1.347 1.327 1.217 1.197 1.237
2768.083 1.247 1.277 1.227 1.167 1.177 1.237 1.167 1.127 1.247 1.237
2787.373 1.267 1.327 1.297 1.257 1.337 1.467 1.407 1.407 1.547 1.617
2806.663 1.657 1.667 1.717 1.877 1.827 1.937 2.117 2.107 2.107 2.177
2825.953 2.187 2.247 2.297 2.307 2.417 2.467 2.597 2.727 2.807 2.917
2845.242 3.037 3.097 3.167 3.317 3.487 3.717 3.957 4.157 4.377 4.857
2864.532 5.347 5.737 6.277 6.917 7.577 8.207 8.857 9.567 10.397 11.057
2883.822 11.437 11.797 12.097 12.357 12.567 12.857 13.107 13.247 13.267 13.207
2903.112 13.197 13.327 13.447 13.557 13.767 14.007 14.327 14.737 15.197 15.737
2922.401 16.407 17.177 17.957 18.777 19.787 20.867 21.957 22.987 23.837 24.417
2941.691 24.797 25.107 25.397 25.507 25.487 25.407 25.197 24.877 24.577 24.557
2960.981 24.727 25.167 26.027 27.097 28.337 29.957 31.697 33.137 34.407 35.267
2980.271 35.707 35.907 35.707 35.077 33.917 32.257 29.997 27.327 24.617 22.007
2999.561 19.597 17.377 15.407 13.817 12.437 11.267 10.157 9.067 8.187 7.397
3018.850 6.627 6.037 5.617 5.177 4.707 4.337 3.967 3.577 3.247 3.017
3038.140 2.867 2.747 2.557 2.407 2.377 2.217 2.097 2.037 1.917 1.787
3057.430 1.687 1.637 1.587 1.587 1.537 1.477 1.487 1.527 1.477 1.387
3076.720 1.437 1.397 1.277 1.277 1.327 1.367 1.357 1.307 1.247 1.237
3096.009 1.277 1.257 1.187 1.237 1.247 1.147 1.0856 1.1015 1.137 1.137
3115.299 1.064 0.9998 1.0565 1.0715 1.0792 1.157 1.0369 0.8893 0.9575 1.11
3134.589 1.0399 0.954 0.9545 0.8835 0.8662 0.8466 0.8471 0.8801 0.8036 0.7823
3153.879 0.7682 0.6607 0.6774 0.7531 0.7693 0.7565 0.5868 0.6292 0.6757 0.6643
3173.169 0.7669 0.5913 0.5913 0.6787 0.6493 0.6281 0.6881 0.7014 0.58 0.5855
3192.458 0.535 0.4616 0.6038 0.6282 0.4815 0.537 0.5954 0.5547 0.5871 0.6246
3211.748 0.6089 0.5622 0.4924 0.3961 0.4272 0.4588 0.4568 0.4703 0.4617 0.4094
3231.038 0.2886 0.272 0.3608 0.3692 0.3651 0.4012 0.4636 0.4225 0.316 0.394
3250.328 0.433 0.3365 0.317 0.3934 0.3811 0.411 0.5241 0.5184 0.4926 0.52
3269.617 0.5125 0.4519 0.3391 0.3412 0.4106 0.3948 0.4023 0.359 0.3051 0.3715
3288.907 0.4102 0.4009 0.3706 0.3926 0.4558 0.3751 0.3741 0.3994 0.3251 0.411
3308.197 0.3931 0.3175 0.4266 0.3874 0.4717 0.6083 0.4958 0.4906 0.529 0.4977
3327.487 0.4208 0.3421 0.4607 0.5747 0.575 0.6319 0.6423 0.6505 0.6497 0.5678
3346.777 0.5437 0.5695 0.6453 0.7226 0.7103 0.6714 0.6551 0.5622 0.5779 0.8562
3366.066 0.9062 0.8088 0.9544 1.0235 1.0536 1.147 1.1265 1.157 1.377 1.697
3385.356 1.957 2.017 2.167 2.407 2.547 2.637 2.687 2.877 3.047 3.177
3404.646 3.397 3.567 3.707 3.937 4.107 4.287 4.607 5.017 5.397 5.897
3423.936 6.577 7.287 8.297 9.557 10.897 12.587 14.507 16.597 18.877 21.057
3443.225 23.127 25.067 26.597 27.727 28.267 28.087 27.477 26.597 25.587 24.367
3462.515 22.637 20.207 17.337 14.677 12.217 9.847 7.947 6.467 5.337 4.467
3481.805 3.737 3.227 2.857 2.577 2.487 2.367 2.147 1.957 1.817 1.587
3501.095 1.437 1.357 1.227 1.267 1.147 0.9358 0.8811 0.7587 0.7882 0.8066
3520.385 0.69 0.8089 0.7833 0.6167 0.6146 0.6041 0.5393 0.4477 0.3303 0.2371
3539.674 0.2617 0.468 0.5933 0.5045 0.4171 0.3719 0.3203 0.3654 0.4133 0.4855
3558.964 0.533 0.3977 0.3518 0.3108 0.2281 0.2371 0.253 0.3287 0.4694 0.4662
3578.254 0.3135 0.2747 0.3627 0.2296 0.0973 0.118 0.16095 0.219 0.2363 0.2999
3597.544 0.3116 0.2968 0.2286 0.17648 0.22246 0.3252 0.4553 0.3917 0.20498 0.2445
3616.833 0.2916 0.3662 0.5038 0.4421 0.2704 0.2255 0.3146 0.4517 0.4863 0.4371
3636.123 0.3839 0.3908 0.3383 0.19019 0.2816 0.3746 0.3972 0.4649 0.2866 0.15257
3655.413 0.3023 0.3051 0.3303 0.3983 0.3456 0.3026 0.3363 0.3421 0.2681 0.2752
3674.703 0.3402 0.2519 0.1991 0.2425 0.14768 0.1141 0.21437 0.2786 0.2623 0.2603
3693.993 0.2852 0.2598 0.312 0.1939 0.0808 0.18316 0.19154 0.18938 0.21679 0.2349
3713.282 0.25 0.284 0.3041 0.363 0.4125 0.3878 0.2615 0.2048 0.271 0.403
3732.572 0.3816 0.2579 0.2831 0.3067 0.2944 0.2778 0.16214 0.108 0.2644 0.4295
3751.862 0.3693 0.3569 0.361 0.2978 0.2682 0.2921 0.3009 0.2776 0.354 0.3534
3771.152 0.3702 0.3019 0.21653 0.2932 0.2142 0.21399 0.3058 0.2671 0.3468 0.3871
3790.441 0.3478 0.2719 0.2304 0.3158 0.4282 0.5105 0.3561 0.2526 0.299 0.3298
3809.731 0.3172 0.20791 0.2538 0.334 0.21847 0.0521 0.0783 0.1023 0.12421 0.2632
3829.021 0.3081 0.2878 0.2534 0.3373 0.4791 0.4584 0.3165 0.2422 0.2299 0.2902
3848.311 0.2686 0.2686 0.3537 0.3401 0.3669 0.3056 0.3042 0.342 0.22375 0.2421
3867.601 0.3735 0.467 0.3945 0.2603 0.17276 0.19502 0.267 0.20272 0.19445 0.2792
3886.890 0.3849 0.3823 0.418 0.3993 0.3133 0.2308 0.1137 0.19128 0.2955 0.22092
3906.180 0 0.0681 0.3901 0.2822 0.17381 0.3733 0.4074 0.2984 0.3218 0.268
3925.470 0.2563 0.4198 0.3785 0.321 0.3727 0.4181 0.3844 0.22466 0.2415 0.4373
3944.760 0.4889 0.4349 0.2998 0.18752 0.3444 0.4014 0.3619 0.3811 0.3412 0.3635
3964.049 0.345 0.21802 0.0993 0.2575 0.3529 0.26 0.20226 0.21781 0.3251 0.20469
3983.339 0.20077 0.3739 0.4061 0.4107 0.3428 0.3189 0.438 0.3443 0.129383 0.1237
##END=
