##TITLE=4-Methyl-2-hexanone
##JCAMP-DX=4.24
##DATA TYPE=INFRARED SPECTRUM
##ORIGIN=NIST Mass Spectrometry Data Center
##OWNER=NIST Standard Reference Data Program
Collection (C) 2018 copyright by the U.S. Secretary of Commerce
on behalf of the United States of America. All rights reserved.
##CAS REGISTRY NO=105-42-0
##MOLFORM=C 7 H 14 O
##$NIST SOURCE=MSDC-IR
##SPECTROMETER/DATA SYSTEM=HP-GC/MS/IRD
##STATE=gas
##XUNITS=1/CM
##YUNITS=ABSORBANCE
##XFACTOR=1.0
##YFACTOR=0.000002100
##DELTAX=4.0
##FIRSTX=550.0
##LASTX=3846.0
##FIRSTY=0.000706
##MAXX=3846
##MINX=550
##MAXY=0.021
##MINY=0
##NPOINTS=825
##XYDATA=(X++(Y..Y))
550.0 336 282 249 228 220 258 303 397 507 566
590.0 629 652 592 460 344 278 175 118 108 84
630.0 80 68 41 32 43 41 37 31 20 37
670.0 47 43 44 47 30 33 32 1 18 44
710.0 43 26 28 35 33 58 86 77 78 89
750.0 116 150 163 163 172 195 211 225 236 229
790.0 213 194 178 156 135 126 120 121 132 121
830.0 104 103 102 98 114 129 128 125 123 132
870.0 129 117 118 130 148 153 169 194 230 267
910.0 278 284 299 308 318 320 341 382 450 540
950.0 623 682 711 732 720 671 625 595 567 541
990.0 525 516 515 528 542 554 559 566 551 519
1030.0 467 410 351 300 264 235 216 208 216 207
1070.0 208 237 278 307 340 402 465 525 589 650
1110.0 716 778 843 925 1029 1136 1293 1509 1796 2127
1150.0 2446 2766 3025 3163 3181 3086 2905 2639 2325 2021
1190.0 1747 1525 1348 1209 1127 1099 1118 1177 1249 1309
1230.0 1329 1297 1248 1203 1182 1191 1219 1248 1265 1253
1270.0 1226 1193 1170 1150 1132 1111 1085 1067 1068 1078
1310.0 1096 1130 1182 1251 1344 1480 1667 1957 2384 2944
1350.0 3578 4177 4609 4760 4611 4190 3628 3094 2672 2363
1390.0 2126 1899 1678 1524 1436 1402 1403 1406 1403 1397
1430.0 1387 1370 1371 1403 1485 1601 1727 1831 1887 1862
1470.0 1727 1533 1307 1087 885 716 597 516 460 436
1510.0 405 378 367 358 346 344 348 347 345 337
1550.0 327 323 320 303 293 289 285 277 266 251
1590.0 242 245 238 227 216 213 225 233 237 245
1630.0 247 255 266 279 305 338 367 406 463 526
1670.0 617 733 870 1041 1256 1501 1837 2276 2875 3675
1710.0 4698 5880 7098 8118 8784 8941 8411 7327 6001 4673
1750.0 3499 2568 1906 1452 1147 938 769 639 533 446
1790.0 383 334 296 262 226 198 181 167 150 134
1830.0 125 115 96 97 101 88 82 78 74 72
1870.0 65 56 58 57 51 51 48 46 46 48
1910.0 50 49 42 37 34 38 46 42 37 41
1950.0 40 35 33 36 34 31 31 37 29 24
1990.0 27 24 20 22 16 8 16 13 12 18
2030.0 19 16 17 21 22 19 21 28 27 24
2070.0 21 22 28 33 36 31 28 24 28 35
2110.0 36 38 37 41 45 45 42 40 42 47
2150.0 47 40 38 42 38 37 37 39 34 26
2190.0 19 16 21 17 12 19 23 25 24 20
2230.0 19 11 1 0 11 15 16 16 14 12
2270.0 14 17 15 14 18 23 24 25 20 22
2310.0 32 28 25 28 31 31 39 34 24 24
2350.0 26 33 35 32 31 31 28 24 24 24
2390.0 23 25 25 28 32 30 31 28 20 28
2430.0 29 19 21 26 27 27 31 31 32 29
2470.0 27 28 28 33 36 32 28 31 29 28
2510.0 34 33 35 34 26 34 42 34 34 38
2550.0 41 44 43 48 48 45 52 67 67 67
2590.0 63 62 71 74 71 67 74 79 75 72
2630.0 74 70 83 100 87 83 88 85 92 98
2670.0 97 93 100 113 113 113 116 123 128 139
2710.0 147 144 149 165 172 189 217 226 224 221
2750.0 218 221 227 231 235 232 243 258 259 275
2790.0 314 346 373 407 441 478 514 558 611 669
2830.0 733 809 910 1033 1191 1403 1670 1988 2359 2765
2870.0 3224 3711 4175 4535 4754 4853 4864 4807 4770 4851
2910.0 5093 5464 5936 6403 6790 7037 7149 7152 7078 7039
2950.0 7172 7568 8284 9165 9838 10000 9523 8435 6910 5301
2990.0 3921 2890 2220 1815 1567 1397 1254 1133 1012 897
3030.0 814 758 710 668 637 619 608 595 577 562
3070.0 544 526 497 477 461 435 405 385 370 356
3110.0 324 300 286 270 251 235 222 204 199 195
3150.0 187 179 168 158 162 158 145 149 154 146
3190.0 144 143 127 111 104 106 92 76 71 69
3230.0 71 75 69 66 51 35 43 49 40 41
3270.0 46 48 53 46 50 59 55 45 38 54
3310.0 46 49 56 43 49 41 31 38 45 46
3350.0 48 38 36 57 64 61 59 63 73 63
3390.0 63 74 71 79 84 90 113 129 147 168
3430.0 184 189 192 190 176 161 141 117 111 100
3470.0 79 70 57 48 57 59 47 41 38 26
3510.0 11 14 26 21 11 15 30 31 11 10
3550.0 24 18 5 1 5 13 10 2 2 1
3590.0 9 15 15 17 11 7 11 2 0 16
3630.0 13 5 0 15 28 24 19 28 24 22
3670.0 32 39 34 18 18 26 26 17 25 43
3710.0 54 51 47 41 35 36 37 23 24 41
3750.0 52 51 40 30 31 32 30 24 26 32
3790.0 27 20 23 29 27 31 37 35 29 38
3830.0 37 28 45 51 42
##END=
