##TITLE=1-Hexyn-3-ol
##JCAMP-DX=4.24
##DATA TYPE=INFRARED SPECTRUM
##ORIGIN=NIST Mass Spectrometry Data Center
##OWNER=NIST Standard Reference Data Program
Collection (C) 2018 copyright by the U.S. Secretary of Commerce
on behalf of the United States of America. All rights reserved.
##CAS REGISTRY NO=105-31-7
##MOLFORM=C 6 H 10 O
##$NIST SOURCE=MSDC-IR
##SPECTROMETER/DATA SYSTEM=HP-GC/MS/IRD
##STATE=gas
##XUNITS=1/CM
##YUNITS=ABSORBANCE
##XFACTOR=1.0
##YFACTOR=0.000001100
##DELTAX=4.0
##FIRSTX=550.0
##LASTX=3846.0
##FIRSTY=0.001748
##MAXX=3846
##MINX=550
##MAXY=0.011
##MINY=0
##NPOINTS=825
##XYDATA=(X++(Y..Y))
550.0 1589 1207 919 933 849 727 609 529 455 361
590.0 349 410 410 528 854 1324 1977 2880 3956 5526
630.0 6998 7583 7826 7556 7305 7649 7657 6773 5583 4423
670.0 3448 2539 1732 1144 752 487 313 263 233 142
710.0 70 91 132 145 151 172 211 246 275 244
750.0 227 243 226 219 221 213 204 236 271 285
790.0 332 352 352 379 385 403 448 445 465 485
830.0 521 590 640 673 689 710 734 683 611 580
870.0 605 606 600 653 702 750 818 895 937 988
910.0 1038 1043 1033 1035 974 849 761 703 678 668
950.0 685 755 882 1025 1198 1423 1722 2052 2406 2843
990.0 3352 3881 4426 5014 5582 6127 6592 6825 6771 6557
1030.0 6188 5634 4969 4252 3670 3272 3039 2919 2824 2750
1070.0 2656 2487 2288 2138 2062 2050 2100 2194 2328 2470
1110.0 2544 2526 2451 2292 2053 1837 1605 1388 1218 1067
1150.0 942 831 782 728 686 731 773 788 816 868
1190.0 920 986 1078 1157 1277 1411 1515 1608 1702 1816
1230.0 1937 2122 2419 2835 3244 3545 3624 3571 3530 3346
1270.0 3009 2669 2405 2255 2163 2084 2013 1928 1918 2007
1310.0 2133 2231 2341 2517 2659 2741 2796 2851 2892 2921
1350.0 2964 3034 3090 3109 3101 3070 2985 2874 2735 2537
1390.0 2269 2013 1750 1505 1307 1138 1010 947 934 918
1430.0 919 971 1045 1106 1206 1312 1381 1420 1432 1382
1470.0 1284 1139 988 844 695 562 447 364 297 247
1510.0 216 185 157 143 134 121 116 106 94 101
1550.0 105 93 81 77 82 92 83 73 66 59
1590.0 67 55 57 47 46 55 50 45 45 32
1630.0 27 32 32 23 19 29 28 32 40 32
1670.0 17 5 5 21 13 20 22 21 20 14
1710.0 15 9 5 15 16 5 0 14 29 23
1750.0 22 13 8 20 17 24 33 35 29 28
1790.0 24 15 22 31 37 32 29 27 26 36
1830.0 30 24 49 52 32 37 41 43 44 44
1870.0 48 43 38 39 36 37 48 51 58 59
1910.0 54 58 58 41 37 41 54 63 56 57
1950.0 53 47 46 41 46 63 67 57 56 61
1990.0 66 65 75 84 81 82 91 95 102 110
2030.0 113 110 105 111 113 95 88 91 86 82
2070.0 85 84 79 86 91 93 107 113 124 132
2110.0 139 144 148 144 132 120 105 83 76 81
2150.0 79 74 71 80 93 98 100 96 89 92
2190.0 101 98 92 80 70 85 95 101 89 88
2230.0 101 97 99 104 103 103 90 82 92 97
2270.0 96 102 105 98 99 95 94 108 121 118
2310.0 105 119 131 115 108 107 106 107 106 110
2350.0 120 117 114 126 130 139 161 163 149 141
2390.0 132 128 127 128 135 130 115 106 111 121
2430.0 129 124 118 132 131 130 127 125 113 110
2470.0 115 117 114 109 114 113 100 100 108 115
2510.0 119 114 110 114 124 121 117 131 125 121
2550.0 126 124 115 111 130 153 144 136 146 159
2590.0 151 131 123 131 147 157 167 180 192 183
2630.0 176 174 169 181 188 186 189 204 218 224
2670.0 247 260 248 232 233 242 235 219 216 233
2710.0 237 226 229 231 239 252 265 276 289 309
2750.0 317 314 301 302 302 289 303 313 327 342
2790.0 335 367 379 382 427 461 494 543 586 623
2830.0 686 774 889 1025 1201 1442 1696 2013 2388 2840
2870.0 3397 4007 4545 4869 5016 5025 4929 4765 4554 4464
2910.0 4563 4817 5204 5762 6410 7073 7777 8416 8895 9207
2950.0 9392 9590 9800 9964 10000 9682 8907 7828 6535 5040
2990.0 3682 2686 1999 1527 1242 1065 935 826 754 720
3030.0 660 602 563 526 496 476 470 456 404 373
3070.0 357 322 300 299 300 266 248 259 248 243
3110.0 232 220 220 209 185 170 168 179 178 156
3150.0 151 152 150 173 166 131 107 117 123 133
3190.0 136 136 120 93 88 91 97 93 91 81
3230.0 68 83 119 157 165 169 184 204 255 291
3270.0 368 511 656 763 898 1206 1656 2065 2334 2711
3310.0 3489 4626 5388 5298 4940 4893 4777 3638 2125 1219
3350.0 782 547 429 363 294 251 238 201 161 131
3390.0 127 130 104 87 78 71 88 101 103 117
3430.0 116 126 128 87 84 97 99 129 147 124
3470.0 127 131 140 160 159 138 136 144 146 149
3510.0 163 155 128 109 121 110 102 102 78 73
3550.0 123 147 115 118 108 111 130 116 122 141
3590.0 120 103 126 139 143 173 243 330 453 650
3630.0 939 1347 1831 2228 2439 2518 2512 2288 1851 1356
3670.0 919 627 445 318 257 208 175 148 134 133
3710.0 115 95 67 66 75 49 58 77 66 75
3750.0 79 78 96 107 123 126 122 120 109 139
3790.0 153 131 136 120 112 127 122 120 91 85
3830.0 112 97 87 99 89
##END=
