##TITLE=5-(Diethylamino)-2-pentanone
##JCAMP-DX=4.24
##DATA TYPE=INFRARED SPECTRUM
##ORIGIN=EPA-IR VAPOR PHASE LIBRARY
##OWNER=SRD/NIST
Collection (C) 2018 copyright by the U.S. Secretary of Commerce
on behalf of the United States of America. All rights reserved.
##CAS REGISTRY NO=105-14-6
##MOLFORM=C 9 H 19 N O
##$NIST SOURCE=MSDC-IR
##STATE=gas
##XUNITS=1/CM
##YUNITS=ABSORBANCE
##XFACTOR=1.
##YFACTOR=0.001
##DELTAX=3.85796
##FIRSTX=501.5
##LASTX=4000.7
##FIRSTY=1.265
##MAXX=4000.7
##MINX=501.534
##MAXY=0.042265
##MINY=0
##NPOINTS=908
##XYDATA=(X++(Y..Y))
501.534 1.265 1.355 1.685 1.905 1.965 1.895 1.785 1.785 1.845 1.835
540.114 1.715 1.585 1.435 1.2335 1.1133 1.1406 0.9883 0.8308 0.737 0.5766
578.693 0.5824 0.8015 0.9632 1.033 1.1173 1.0359 1.0333 0.871 0.5244 0.4021
617.273 0.3439 0.24856 0.1797 0.1676 0.1594 0.071 0 0.12 0.1827 0.1768
655.852 0.1402 0.106 0.1579 0.1947 0.23227 0.235998 0.29312 0.347 0.3432 0.4487
694.432 0.6391 0.8518 1.0837 1.285 1.445 1.525 1.505 1.475 1.305 1.1336
733.011 1.0763 1.1199 1.2304 1.315 1.465 1.595 1.725 1.865 1.905 1.825
771.591 1.675 1.615 1.635 1.675 1.685 1.715 1.745 1.765 1.755 1.635
810.170 1.525 1.395 1.2007 1.0209 0.8812 0.7879 0.7251 0.6657 0.6289 0.5766
848.750 0.5852 0.584 0.5807 0.6603 0.7001 0.7263 0.7509 0.7834 0.8187 0.7941
887.330 0.7759 0.8057 0.8659 0.9298 1.0345 1.083 1.1294 1.2313 1.345 1.385
925.909 1.425 1.565 1.765 2.015 2.295 2.545 2.835 3.105 3.195 3.245
964.489 3.145 3.035 3.005 2.995 3.005 2.925 2.835 2.725 2.665 2.705
1003.068 2.705 2.835 2.995 3.115 3.385 3.625 3.895 4.255 4.585 5.085
1041.648 5.815 6.505 7.285 8.245 9.255 10.295 11.165 11.775 12.095 12.085
1080.227 11.835 11.265 10.455 9.575 8.775 8.055 7.475 7.175 7.025 6.965
1118.807 7.005 7.035 7.115 7.285 7.725 8.485 9.445 10.545 11.535 12.485
1157.387 13.215 13.605 13.825 13.815 13.595 13.245 12.755 12.305 12.295 12.665
1195.966 13.235 13.735 13.655 12.895 11.725 10.465 9.435 8.655 8.035 7.565
1234.546 7.105 6.565 6.175 6.045 5.805 5.545 5.385 5.175 5.015 5.015
1273.125 5.035 5.205 5.585 6.095 6.635 7.065 7.345 7.505 7.485 7.375
1311.705 7.255 7.215 7.345 7.675 8.215 9.045 10.205 11.725 13.585 15.775
1350.284 18.285 20.695 22.345 22.875 22.305 21.085 19.735 18.515 17.245 15.505
1388.864 13.425 11.345 9.495 8.085 7.185 6.705 6.475 6.325 6.205 6.055
1427.443 5.965 5.955 6.045 6.255 6.595 7.015 7.455 7.795 7.975 7.965
1466.023 7.745 7.355 6.735 5.885 4.955 4.065 3.325 2.785 2.415 2.185
1504.603 2.025 1.915 1.825 1.755 1.705 1.665 1.605 1.545 1.525 1.495
1543.182 1.455 1.425 1.395 1.375 1.335 1.285 1.245 1.1951 1.1632 1.1189
1581.762 1.0738 1.0582 1.0302 1.0018 0.9823 0.9487 0.9439 0.9536 0.9379 0.9336
1620.341 0.9372 0.9617 1.0098 1.0528 1.0882 1.1454 1.1894 1.2135 1.275 1.375
1658.921 1.505 1.655 1.875 2.175 2.545 3.015 3.565 4.255 5.055 6.015
1697.500 7.195 8.695 10.575 13.045 16.325 20.545 25.305 29.465 31.775 31.225
1736.080 27.925 23.065 18.015 13.805 10.645 8.365 6.695 5.425 4.395 3.585
1774.659 2.945 2.445 2.055 1.745 1.525 1.355 1.1936 1.0502 0.9499 0.8678
1813.239 0.7955 0.7364 0.6888 0.6574 0.6198 0.5841 0.5581 0.5442 0.5166 0.4794
1851.819 0.468 0.4678 0.4469 0.4192 0.4204 0.4354 0.4452 0.4274 0.3954 0.3865
1890.398 0.401 0.43 0.4296 0.419 0.398 0.3814 0.3695 0.3653 0.3576 0.3467
1928.978 0.3568 0.3619 0.3581 0.3596 0.379 0.3744 0.3703 0.3744 0.3601 0.3427
1967.557 0.32134 0.31081 0.31781 0.31172 0.30031 0.28456 0.25712 0.25046 0.25813 0.26709
2006.137 0.27747 0.27551 0.27013 0.27658 0.26574 0.25912 0.26888 0.2595 0.25308 0.26679
2044.716 0.27411 0.27758 0.27973 0.29266 0.30126 0.31159 0.32593 0.3456 0.3523 0.33284
2083.296 0.3534 0.3791 0.3778 0.3692 0.3572 0.3517 0.3733 0.3845 0.3629 0.3544
2121.875 0.3765 0.3749 0.3708 0.3652 0.3354 0.3382 0.3384 0.33458 0.3414 0.3421
2160.455 0.32576 0.29885 0.2991 0.32774 0.3543 0.3636 0.3516 0.332 0.31619 0.29124
2199.035 0.27907 0.28048 0.27052 0.25003 0.25927 0.26752 0.27024 0.2833 0.2929 0.29936
2237.614 0.29191 0.30097 0.31139 0.32649 0.3299 0.3394 0.361 0.3588 0.344 0.32751
2276.194 0.31574 0.32037 0.3428 0.3552 0.3497 0.33277 0.31548 0.32204 0.33152 0.32392
2314.773 0.32327 0.3391 0.32269 0.3052 0.30865 0.30674 0.31958 0.3351 0.3476 0.3561
2353.353 0.3595 0.3484 0.355 0.3738 0.3475 0.3376 0.3528 0.3561 0.34 0.32328
2391.932 0.32949 0.3454 0.3508 0.3337 0.3385 0.3402 0.3497 0.3705 0.3729 0.3668
2430.512 0.3614 0.3533 0.3413 0.3433 0.3667 0.3583 0.3395 0.33041 0.31947 0.3384
2469.092 0.33425 0.3369 0.3492 0.3474 0.3462 0.361 0.4031 0.415 0.4165 0.4274
2507.671 0.4533 0.4755 0.4708 0.4599 0.4696 0.5118 0.5339 0.546 0.5596 0.5576
2546.251 0.5927 0.6562 0.6868 0.6936 0.7291 0.7879 0.8066 0.8132 0.873 0.9106
2584.830 0.9066 0.9282 0.9515 0.9667 1.0034 1.0286 1.0497 1.0719 1.0605 1.1004
2623.410 1.1752 1.2318 1.295 1.365 1.455 1.535 1.625 1.705 1.795 1.915
2661.989 1.995 2.085 2.205 2.335 2.475 2.595 2.685 2.815 2.945 3.075
2700.569 3.245 3.415 3.605 3.825 4.015 4.185 4.375 4.565 4.685 4.815
2739.148 4.985 5.165 5.445 5.835 6.225 6.605 7.035 7.545 8.115 8.745
2777.728 9.555 10.595 11.925 13.645 15.785 18.205 20.635 22.735 24.125 24.555
2816.308 24.065 22.905 21.315 19.465 17.515 15.695 14.085 12.745 11.775 11.165
2854.887 10.825 10.835 11.165 11.805 12.845 14.155 15.375 16.395 17.125 17.575
2893.467 17.985 18.475 19.015 19.505 19.955 20.545 21.405 22.645 24.495 26.895
2932.046 29.495 31.785 33.165 33.365 32.635 31.655 31.185 31.915 34.145 37.515
2970.626 40.745 42.265 40.765 35.865 28.975 22.105 16.555 12.635 10.135 8.595
3009.205 7.515 6.645 5.895 5.185 4.585 4.075 3.655 3.365 3.135 2.945
3047.785 2.765 2.675 2.605 2.435 2.345 2.295 2.205 2.085 1.945 1.835
3086.364 1.745 1.675 1.615 1.525 1.435 1.385 1.305 1.1921 1.1351 1.0906
3124.944 1.0488 1.0054 0.9491 0.9079 0.8359 0.7591 0.7779 0.7607 0.7041 0.6672
3163.524 0.6282 0.6399 0.638 0.5819 0.5497 0.5642 0.5706 0.4885 0.4305 0.4835
3202.103 0.4947 0.4171 0.3855 0.3735 0.32959 0.29234 0.25457 0.28955 0.32729 0.29534
3240.683 0.27716 0.2714 0.1932 0.1819 0.2109 0.1853 0.1891 0.1929 0.1856 0.1424
3279.262 0.1519 0.1791 0.1797 0.1698 0.1599 0.1666 0.1892 0.2192 0.1682 0.176
3317.842 0.1617 0.111 0.122 0.135 0.156 0.1644 0.1751 0.208 0.22658 0.1732
3356.421 0.1568 0.2094 0.23114 0.23164 0.23348 0.2101 0.2179 0.26183 0.27344 0.23499
3395.001 0.27742 0.31234 0.31611 0.32196 0.31836 0.3603 0.3897 0.4738 0.595 0.6327
3433.580 0.6248 0.6758 0.7212 0.6635 0.6029 0.5894 0.5145 0.4044 0.3586 0.3957
3472.160 0.3592 0.30861 0.2149 0.1824 0.218 0.1511 0.13 0.115 0.13 0.1502
3510.740 0.1625 0.1552 0.114 0.093 0.119 0.12 0.093 0.12 0.082 0.044
3549.319 0.093 0.079 0.055 0.109 0.122 0.09 0.093 0.13 0.12 0.127
3587.899 0.1645 0.1411 0.1574 0.121 0.097 0.132 0.104 0.084 0.113 0.13
3626.478 0.1633 0.1812 0.113 0.113 0.1514 0.149 0.121 0.126 0.1609 0.1593
3665.058 0.1447 0.1389 0.1529 0.2022 0.1983 0.1738 0.237333 0.235562 0.2042 0.2042
3703.637 0.1661 0.2038 0.2161 0.1355 0.1472 0.1893 0.1728 0.1565 0.172 0.1433
3742.217 0.087 0.1687 0.2753 0.2395 0.2014 0.1821 0.1362 0.135 0.1917 0.1925
3780.797 0.127 0.1357 0.184 0.2037 0.1979 0.22599 0.2116 0.1895 0.1679 0.1568
3819.376 0.1946 0.1382 0.089 0.1453 0.2194 0.1534 0.106 0.143 0.1525 0.235902
3857.956 0.2145 0.1519 0.1479 0.1582 0.1887 0.22722 0.2118 0.1806 0.2234 0.24689
3896.535 0.26115 0.23005 0.2568 0.26347 0.22623 0.2157 0.1806 0.1978 0.235251 0.2237
3935.115 0.30344 0.32616 0.22806 0.26786 0.242799 0.23196 0.29035 0.28519 0.32025 0.361
3973.694 0.3477 0.30061 0.31814 0.3644 0.3606 0.31682 0.32724 0.3859
##END=
