##TITLE=Ethylene brassylate
##JCAMP-DX=4.24
##DATA TYPE=INFRARED SPECTRUM
##ORIGIN=EPA-IR VAPOR PHASE LIBRARY
##OWNER=SRD/NIST
Collection (C) 2018 copyright by the U.S. Secretary of Commerce
on behalf of the United States of America. All rights reserved.
##CAS REGISTRY NO=105-95-3
##MOLFORM=C 15 H 26 O 4
##$NIST SOURCE=MSDC-IR
##STATE=gas
##XUNITS=1/CM
##YUNITS=ABSORBANCE
##XFACTOR=1.
##YFACTOR=0.001
##DELTAX=3.85796
##FIRSTX=501.5
##LASTX=4000.7
##FIRSTY=1.6856
##MAXX=4000.7
##MINX=501.534
##MAXY=0.219406
##MINY=0
##NPOINTS=908
##XYDATA=(X++(Y..Y))
501.534 1.6856 1.6556 1.5256 1.3956 1.3056 1.1256 0.9067 0.7593 0.5796 0.435
540.114 0.3573 0.3103 0.2596 0.197 0.2821 0.3991 0.5132 0.6164 0.7057 0.8989
578.693 1.1056 1.3156 1.5456 1.6856 1.8356 1.9456 1.9856 1.9756 1.9256 1.8056
617.273 1.6856 1.5756 1.4656 1.4756 1.4056 1.2856 1.3056 1.3656 1.3456 1.3456
655.852 1.2756 1.1956 1.1756 1.1756 1.1556 1.1256 1.1956 1.2756 1.3956 1.5956
694.432 1.8556 2.1756 2.5356 2.9056 3.2156 3.3656 3.4556 3.4856 3.4956 3.5556
733.011 3.5956 3.5956 3.4756 3.2856 3.0856 2.9656 2.8656 2.7756 2.7456 2.7656
771.591 2.8656 2.9356 3.0556 3.2156 3.3556 3.5256 3.6456 3.7756 3.9156 3.9756
810.170 4.0956 4.2956 4.4456 4.5756 4.7156 4.8056 4.9056 5.0756 5.1956 5.2856
848.750 5.3956 5.5156 5.6756 5.8156 6.0056 6.2156 6.3756 6.4256 6.3856 6.3156
887.330 6.2356 6.1856 6.1256 6.1056 6.2356 6.5756 7.0656 7.6656 8.4556 9.3256
925.909 10.2956 11.3956 12.4756 13.4356 14.2156 14.7156 14.9556 15.0656 14.9856 14.5956
964.489 13.9856 13.3456 12.7656 12.2356 11.7656 11.3156 10.8156 10.2856 9.6656 8.9856
1003.068 8.4456 8.0956 7.9156 7.9656 8.3556 8.9856 9.9556 11.4556 13.5056 16.0656
1041.648 19.0256 22.2356 25.6556 28.7056 30.6556 31.2256 30.3456 28.5056 26.6056 25.4556
1080.227 25.6656 27.3556 30.2256 33.5856 36.3156 37.6756 37.8556 37.7156 38.5056 41.4556
1118.807 46.8556 53.7456 61.0256 67.6256 72.8556 77.0756 80.5056 83.0456 84.8256 85.7456
1157.387 85.6256 84.5156 82.5656 79.8856 76.7656 73.4156 69.9956 66.9656 64.7756 63.7656
1195.966 63.9156 65.0256 66.7056 68.4656 69.9256 70.7456 70.9456 70.5356 69.6756 68.3456
1234.546 66.4556 64.2656 61.6756 58.7356 55.5056 52.1156 48.9756 46.2856 44.0956 42.4456
1273.125 40.9756 39.3556 37.3656 34.9156 32.2156 29.5756 27.0756 24.8256 22.9656 21.5256
1311.705 20.3756 19.4056 18.7456 18.6156 19.2056 20.5556 22.3556 24.1156 25.4156 25.8356
1350.284 25.0756 23.1756 20.7456 18.7656 17.9456 18.0456 17.8656 16.4856 14.1556 12.0056
1388.864 10.8556 10.4656 10.1956 9.5956 8.7856 8.2256 8.2656 8.9056 10.1756 12.1156
1427.443 14.5356 16.9856 19.0256 20.8556 22.9956 25.5256 27.7256 28.8856 28.7756 26.7856
1466.023 22.3656 16.7556 11.7956 8.4656 6.4756 5.2256 4.4056 3.8256 3.3656 3.0156
1504.603 2.7256 2.4656 2.3056 2.1556 2.0256 1.9256 1.8456 1.7656 1.6956 1.6356
1543.182 1.6056 1.5856 1.5556 1.5056 1.4556 1.4356 1.4356 1.4256 1.4056 1.3756
1581.762 1.3656 1.3656 1.3556 1.3656 1.3756 1.3656 1.3556 1.3656 1.3956 1.4256
1620.341 1.4356 1.4756 1.5056 1.5456 1.5956 1.6456 1.7256 1.8056 1.9056 2.0456
1658.921 2.1856 2.3656 2.5756 2.8256 3.1256 3.4956 3.9556 4.5356 5.1956 6.0556
1697.500 7.1756 8.6556 10.5856 13.1056 15.9456 19.0556 22.6856 27.3356 33.5956 41.8856
1736.080 53.2256 69.2756 95.0756 135.116 185.046 219.406 211.176 165.226 114.036 77.8256
1774.659 56.3156 42.9356 33.4556 26.2856 20.7956 16.5356 13.3156 10.8356 8.9456 7.4956
1813.239 6.3556 5.4456 4.7056 4.1356 3.6656 3.2756 2.9556 2.6856 2.4656 2.3056
1851.819 2.1656 2.0356 1.9456 1.8656 1.8256 1.7956 1.7456 1.7156 1.7056 1.6956
1890.398 1.6456 1.6156 1.6056 1.5856 1.5856 1.5956 1.5756 1.5656 1.5856 1.5956
1928.978 1.5956 1.5956 1.6156 1.6156 1.5956 1.5756 1.5556 1.5556 1.5656 1.5456
1967.557 1.5256 1.5156 1.4956 1.4956 1.4656 1.4256 1.4156 1.3956 1.3756 1.3556
2006.137 1.3456 1.3156 1.2756 1.2656 1.2556 1.2456 1.2156 1.1856 1.1756 1.1456
2044.716 1.1356 1.1256 1.0856 1.0556 1.0556 1.0356 1.0094 1.0046 0.9853 0.9692
2083.296 0.9646 0.9416 0.9146 0.9023 0.8682 0.8262 0.8073 0.788 0.7562 0.7246
2121.875 0.6764 0.6499 0.6493 0.6312 0.6333 0.6195 0.5947 0.5832 0.5758 0.5739
2160.455 0.567 0.5625 0.5494 0.5543 0.5554 0.5324 0.5286 0.5416 0.5375 0.5322
2199.035 0.5356 0.5208 0.5137 0.5142 0.5108 0.5098 0.5056 0.5092 0.5224 0.502
2237.614 0.4931 0.5107 0.5178 0.5189 0.5217 0.5447 0.5698 0.5743 0.5472 0.5513
2276.194 0.5624 0.5578 0.5636 0.5625 0.5484 0.5498 0.5651 0.5565 0.5318 0.532
2314.773 0.5422 0.5148 0.5098 0.5197 0.5087 0.4833 0.4548 0.4561 0.4729 0.4741
2353.353 0.4552 0.4185 0.3867 0.398 0.4048 0.4039 0.4245 0.455 0.4606 0.4421
2391.932 0.4345 0.4281 0.4243 0.419 0.4246 0.4351 0.4291 0.4136 0.4091 0.4112
2430.512 0.4313 0.4401 0.4125 0.384 0.3588 0.3451 0.343 0.3456 0.343 0.3434
2469.092 0.3406 0.3544 0.366 0.3662 0.4013 0.4437 0.4577 0.4323 0.4265 0.4419
2507.671 0.4593 0.4627 0.4513 0.47 0.4925 0.4826 0.4836 0.5088 0.5389 0.5443
2546.251 0.5267 0.5295 0.5395 0.5443 0.568 0.5967 0.5858 0.5836 0.5865 0.5971
2584.830 0.6373 0.6452 0.6492 0.6531 0.674 0.7107 0.7323 0.7719 0.8058 0.8209
2623.410 0.854 0.9101 0.9537 0.9922 1.0456 1.1356 1.1956 1.2356 1.2956 1.3856
2661.989 1.4856 1.5256 1.5956 1.6856 1.7656 1.8656 1.9356 1.9456 1.9556 1.9156
2700.569 1.8356 1.7356 1.6656 1.6356 1.6156 1.6156 1.6056 1.6056 1.6256 1.6656
2739.148 1.6756 1.6956 1.7356 1.7656 1.8156 1.8956 1.9556 2.0356 2.1356 2.2256
2777.728 2.3456 2.5056 2.7256 2.9356 3.1256 3.3656 3.6156 3.8556 4.2056 4.6256
2816.308 5.0956 5.6856 6.3656 7.1456 8.0556 9.1156 10.5756 12.8656 16.6456 23.2756
2854.887 33.9056 46.8956 57.5356 61.5656 58.3556 50.5656 41.9356 35.2256 31.3756 30.0456
2893.467 30.7256 33.3956 38.3756 46.0656 56.0756 67.2456 79.3456 93.6956 111.946 133.636
2932.046 153.296 162.196 155.946 138.786 118.716 101.266 88.1856 77.7956 67.2756 55.9956
2970.626 45.9056 38.3056 32.5856 27.8156 23.5956 19.9756 16.9556 14.3556 12.0056 9.9356
3009.205 8.1656 6.7356 5.6356 4.7656 4.0956 3.5856 3.1756 2.8356 2.5656 2.3356
3047.785 2.1356 1.9456 1.8056 1.6856 1.5856 1.4656 1.3756 1.3156 1.2556 1.1856
3086.364 1.1056 1.0223 0.9671 0.9037 0.8611 0.8412 0.7848 0.7119 0.7004 0.7005
3124.944 0.6452 0.6382 0.653 0.5911 0.5252 0.4773 0.4399 0.4612 0.4636 0.4486
3163.524 0.4392 0.415 0.3897 0.3823 0.369 0.3282 0.3113 0.2984 0.2902 0.3101
3202.103 0.2823 0.2464 0.2797 0.3005 0.2441 0.2339 0.247 0.2412 0.2036 0.1578
3240.683 0.1768 0.2069 0.2129 0.1786 0.13595 0.10228 0.11544 0.11477 0.09312 0.1067
3279.262 0.12214 0.10023 0.09798 0.11063 0.12151 0.1609 0.1375 0.0624 0.06799 0.08527
3317.842 0.048927 0.06248 0.0808 0.10695 0.09628 0.07469 0.11559 0.11794 0.07904 0.05905
3356.421 0.07261 0.1005 0.09355 0.13053 0.151 0.07458 0.0267 0.09662 0.1496 0.1465
3395.001 0.10368 0.08676 0.1762 0.2233 0.2059 0.1896 0.12964 0.11004 0.1683 0.208
3433.580 0.2283 0.2198 0.2734 0.3102 0.3242 0.3706 0.4222 0.467 0.5525 0.7207
3472.160 0.905 1.1156 1.3656 1.6356 1.8756 2.0056 2.0156 1.8956 1.6756 1.4356
3510.740 1.1956 0.9715 0.8345 0.7012 0.5711 0.4833 0.3922 0.3131 0.2772 0.2537
3549.319 0.2059 0.14222 0.12103 0.09318 0.08092 0.09553 0.11548 0.11067 0.0656 0.03822
3587.899 0 0.0223 0.053648 0.05443 0.0866 0.13261 0.11851 0.07187 0.09299 0.1472
3626.478 0.1512 0.13673 0.1977 0.2378 0.2178 0.1849 0.1663 0.14244 0.1585 0.1999
3665.058 0.1968 0.1855 0.12934 0.12312 0.13005 0.12926 0.13938 0.1217 0.13116 0.12241
3703.637 0.1534 0.1676 0.167 0.1593 0.13296 0.184 0.1834 0.1865 0.1787 0.13449
3742.217 0.12312 0.11928 0.13756 0.1986 0.225 0.2044 0.2209 0.1834 0.1659 0.2006
3780.797 0.1973 0.2006 0.2284 0.2044 0.2088 0.2336 0.2171 0.2223 0.2454 0.2867
3819.376 0.2504 0.2183 0.2478 0.2263 0.2332 0.2809 0.322 0.3581 0.3175 0.2375
3857.956 0.2456 0.2828 0.2895 0.2769 0.2279 0.24 0.2438 0.2871 0.3207 0.2684
3896.535 0.2564 0.2736 0.3063 0.2872 0.2318 0.2074 0.2414 0.2656 0.2418 0.2714
3935.115 0.37 0.3721 0.3505 0.3551 0.3277 0.3415 0.421 0.4702 0.4639 0.4886
3973.694 0.4797 0.4805 0.5133 0.5311 0.5437 0.5366 0.5032 0.5354
##END=
