##TITLE=Ethyl 2-octynoate
##JCAMP-DX=4.24
##DATA TYPE=INFRARED SPECTRUM
##ORIGIN=EPA-IR VAPOR PHASE LIBRARY
##OWNER=SRD/NIST
Collection (C) 2018 copyright by the U.S. Secretary of Commerce
on behalf of the United States of America. All rights reserved.
##CAS REGISTRY NO=10519-20-7
##MOLFORM=C 10 H 16 O 2
##$NIST SOURCE=MSDC-IR
##STATE=gas
##XUNITS=1/CM
##YUNITS=ABSORBANCE
##XFACTOR=1.
##YFACTOR=0.001
##DELTAX=1.92898
##FIRSTX=549.8
##LASTX=4000.7
##FIRSTY=4.1098
##MAXX=4000.7
##MINX=549.759
##MAXY=0.80409
##MINY=0
##NPOINTS=1790
##XYDATA=(X++(Y..Y))
549.759 4.1098 3.7398 3.5498 3.7998 3.8798 3.7498 4.2498 4.7298 4.3498 4.2598
569.049 4.1498 3.9198 4.1398 3.8198 3.7198 4.0898 3.8698 3.8098 4.0298 4.1598
588.339 4.1798 4.0698 3.9598 3.7398 3.5298 3.4098 2.8798 2.5298 2.5398 2.2998
607.628 2.1798 2.3098 2.3698 2.1898 2.0298 1.9798 1.7598 1.5598 1.6798 1.7198
626.918 1.8298 1.7498 1.2798 1.2998 1.3098 1.3298 1.3898 1.3198 1.5498 1.6998
646.208 1.5498 1.6798 1.9398 1.7098 1.5898 1.8798 2.0698 1.9698 2.0198 2.0998
665.498 1.8698 1.7698 1.7398 1.6498 1.8898 2.2798 2.4298 2.3798 2.5698 2.6998
684.787 2.6898 2.6698 2.6998 2.7898 2.7398 2.8498 3.0498 3.0798 3.2598 3.4398
704.077 3.6098 3.8398 3.9098 4.2098 4.5598 5.0098 5.5098 6.1198 6.9098 7.4998
723.367 8.1198 8.9298 9.9098 10.8898 11.6898 12.7998 14.1098 15.4098 16.9398 18.6198
742.657 19.9098 20.9798 22.5098 23.9498 24.7798 25.4298 25.9098 25.7898 25.4098 24.9998
761.947 24.1898 23.1898 21.9798 20.6998 19.3798 17.8198 16.4398 15.1298 13.9798 13.1698
781.236 12.4698 11.6098 10.9398 10.6598 10.0198 9.3598 9.1398 8.9398 8.7998 8.4998
800.526 8.1598 8.0898 7.9798 7.8598 7.9798 8.2198 8.4198 8.1798 7.8198 8.0198
819.816 8.2898 8.0698 7.9898 8.2698 8.3198 8.4898 8.5398 8.4498 8.4498 8.5498
839.106 8.6398 8.4998 8.5598 8.8698 9.1498 9.0098 9.0698 9.2498 9.2198 9.4898
858.395 9.7798 9.8898 9.9398 9.9698 9.8598 9.4398 8.8498 8.1998 7.3898 6.9598
877.685 6.6198 6.2098 5.9698 5.7598 5.7498 5.2498 5.0098 5.1498 4.9098 4.7098
896.975 4.6098 4.6798 4.7298 4.5398 4.5098 4.6498 4.5298 4.3698 4.2898 4.2098
916.265 4.2598 4.1698 3.9198 3.9198 3.8898 3.9498 4.1998 4.3198 4.2798 3.9698
935.555 3.9498 4.1998 4.0998 4.2298 4.3498 4.1098 4.3098 4.6698 4.7298 4.7798
954.844 4.6798 4.7898 5.0698 5.2898 5.6698 5.8098 6.1298 6.3998 6.6798 6.9998
974.134 7.1398 7.5398 7.6898 7.8698 8.2898 8.1798 8.1098 8.5898 8.8798 9.1098
993.424 9.1298 9.2898 9.8398 10.4098 10.9098 11.2698 11.7298 12.4598 13.2098 13.9998
1012.714 14.5198 14.9198 15.6498 16.6798 17.3898 17.9698 18.6198 19.0598 19.7298 20.2898
1032.003 21.1698 22.3398 24.0498 26.5498 29.4798 33.7298 39.6098 46.4298 54.3698 63.2098
1051.293 72.8298 82.8698 93.1298 103.92 114.08 123.39 132.91 142.44 152.14 161.96
1070.583 169.56 174.38 177.53 176.88 170.91 162.15 151.3 139.65 127.67 116.22
1089.873 108.66 103.96 99.1798 95.6398 92.7898 88.0998 82.0498 74.7498 67.2998 59.8798
1109.163 53.2798 46.8598 40.4598 35.4098 31.5698 28.4198 25.5898 23.2898 21.7398 20.7898
1128.452 19.6998 18.6398 18.1298 18.2498 18.0198 17.7598 17.7498 17.6898 17.6998 17.7098
1147.742 17.9198 18.3098 18.5998 19.0198 19.7698 20.4098 20.5598 20.6198 21.2698 22.0598
1167.032 22.4698 23.3198 24.3998 25.0398 25.4298 26.2698 27.4898 28.5098 29.2298 30.6698
1186.322 32.5898 34.4798 37.0098 39.2398 41.9198 45.5498 49.1098 53.5298 58.6198 64.0898
1205.611 70.7798 78.7498 88.6098 99.9598 113.2 128.43 145.87 166.74 190.99 219.73
1224.901 255.42 298.52 349.39 410.18 479.25 554.46 630.43 699.14 756.5 793.42
1244.191 804.09 788.18 744.33 677.43 594.72 507.05 423.12 347.29 283.69 232.38
1263.481 191.83 160.69 136.67 118.19 104 93.4398 85.5498 78.7998 73.2298 69.2298
1282.771 65.6498 62.3798 59.5498 56.9098 54.5098 52.4098 50.9098 49.8198 49.0598 48.7298
1302.060 48.4498 47.9498 47.1698 46.1798 45.1098 43.9498 42.8298 42.0198 41.6498 41.7498
1321.350 42.2198 42.8798 43.2898 43.0098 41.6898 39.4398 36.8498 34.0498 31.0698 28.3198
1340.640 26.1898 24.7798 23.8598 23.3598 23.2598 23.3198 23.6298 24.5498 26.1398 28.4698
1359.930 32.1498 37.6198 43.4598 47.6698 49.2798 48.8298 46.9498 42.7698 36.5898 30.8998
1379.219 27.1698 25.0398 23.7698 23.0098 22.6298 22.3098 21.8398 21.2498 20.7198 20.3298
1398.509 19.8398 19.3198 18.7998 18.3198 17.9398 17.5598 17.1498 16.8798 16.8298 16.9898
1417.799 17.2598 17.6998 18.3498 19.1198 20.0998 21.2398 22.3798 23.5398 24.5998 25.4498
1437.089 26.1898 26.8298 27.2798 27.6498 28.1098 28.6498 29.2998 30.1998 31.3298 32.4898
1456.378 33.6198 34.8598 36.1098 37.3398 38.3898 39.0798 39.2998 38.8398 37.5898 35.6698
1475.668 33.2998 30.3198 27.2098 24.4198 22.0398 20.0098 18.3698 17.0098 15.8498 14.7898
1494.958 13.9298 13.3698 12.7298 12.0898 11.5298 10.9498 10.3198 9.6898 9.1598 8.6198
1514.248 8.1398 7.7598 7.3498 6.8998 6.5098 6.1598 5.8698 5.5998 5.3998 5.1798
1533.538 5.0598 4.9698 4.7398 4.6298 4.5998 4.5598 4.3798 4.1698 4.1598 4.1598
1552.827 4.0198 3.9898 3.9398 3.7998 3.8198 3.8398 3.7698 3.7298 3.7298 3.7198
1572.117 3.6998 3.6598 3.5598 3.5498 3.6198 3.6498 3.7098 3.6898 3.5898 3.5698
1591.407 3.5998 3.6198 3.7398 3.8498 3.8298 3.8298 3.8998 4.0098 4.0098 4.1198
1610.697 4.2498 4.3098 4.4198 4.5098 4.7098 4.8998 5.0598 5.1598 5.1998 5.2998
1629.986 5.5298 5.7598 5.9098 6.0598 6.1798 6.2398 6.3398 6.4598 6.5998 6.7298
1649.276 6.7898 6.9198 7.1098 7.3398 7.6798 8.0398 8.3198 8.6798 9.0798 9.4498
1668.566 10.0398 10.7998 11.6898 12.5898 13.4898 14.6298 15.9598 17.5098 19.2998 21.0898
1687.856 23.1298 25.5298 28.1498 31.0298 34.3598 38.1798 42.6198 47.9998 54.3298 62.2698
1707.146 71.8998 83.4798 97.3398 113.83 132.98 154.72 179.22 205.49 233.93 264.77
1726.435 297.06 327.9 352.03 364.98 368.1 361.91 342.69 310.34 273.8 240.11
1745.725 210.64 183.94 159.34 136.49 115.28 96.1698 79.2698 65.0898 53.5298 44.3198
1765.015 37.0098 31.3498 26.9998 23.4998 20.6198 18.1998 16.2598 14.6498 13.2998 12.1798
1784.305 11.1298 10.2098 9.3798 8.6098 7.9998 7.4898 7.0498 6.5998 6.2298 5.8698
1803.594 5.4698 5.1498 4.9398 4.7398 4.4998 4.2398 3.9998 3.8098 3.6498 3.5098
1822.884 3.4098 3.2798 3.1198 2.9798 2.9298 2.8998 2.7898 2.6398 2.4798 2.4898
1842.174 2.5298 2.5098 2.4398 2.4098 2.3798 2.2898 2.2698 2.2698 2.2398 2.1998
1861.464 2.3198 2.2998 2.1998 2.2098 2.1498 2.0898 2.1198 2.2198 2.2798 2.2598
1880.754 2.2398 2.1498 2.1298 2.2098 2.1898 2.1798 2.1898 2.1598 2.2798 2.3398
1900.043 2.2898 2.2898 2.3298 2.4398 2.5398 2.5698 2.6398 2.7498 2.8598 2.9798
1919.333 3.1098 3.2098 3.2698 3.1898 3.1498 3.2798 3.3298 3.3298 3.3198 3.1798
1938.623 3.0898 3.0398 2.9798 2.8798 2.7498 2.6298 2.4898 2.4698 2.3898 2.2398
1957.913 2.1198 1.9998 1.9198 1.8398 1.7398 1.6798 1.6698 1.6898 1.7098 1.6298
1977.202 1.6598 1.6598 1.6198 1.5498 1.5398 1.5398 1.5198 1.6098 1.6398 1.6298
1996.492 1.6098 1.5798 1.6898 1.7998 1.8498 1.8298 1.7798 1.7998 1.8798 1.8698
2015.782 1.9198 2.0298 2.0198 1.9898 2.0398 2.1298 2.1198 2.0998 2.0998 2.0998
2035.072 2.1298 2.1298 2.1398 2.2598 2.2198 2.1798 2.2298 2.2798 2.3998 2.4498
2054.362 2.5698 2.6198 2.6198 2.7598 2.8198 2.8198 2.9598 3.1098 3.0798 3.1198
2073.651 3.1498 3.1598 3.2098 3.2398 3.3298 3.4298 3.3998 3.3398 3.3098 3.3398
2092.941 3.4598 3.3898 3.2898 3.2298 3.1598 3.1998 3.2398 3.1598 3.0898 3.0698
2112.231 3.0298 3.0498 2.9598 2.9298 3.0398 2.9898 2.8598 2.9298 2.9998 3.0398
2131.521 3.1198 3.0398 2.9698 3.0498 3.0998 3.1498 3.1998 3.3498 3.5498 3.5798
2150.810 3.5898 3.7298 3.9298 4.1198 4.2698 4.4798 4.6998 4.9598 5.2498 5.6198
2170.100 6.0498 6.3998 6.9398 7.4998 8.0898 8.8698 9.7798 10.7798 11.8498 13.0398
2189.390 14.3898 15.8798 17.5498 19.4298 21.5198 24.0998 27.3098 31.0698 35.3698 40.5298
2208.680 46.4698 53.1898 60.8298 69.1698 77.9498 86.8198 95.4198 103.46 110.34 115.55
2227.970 118.74 119.74 118.59 115.43 110.61 104.5 97.5498 90.1398 82.6698 75.3298
2247.259 68.1798 61.3998 54.9898 48.9598 43.4498 38.3598 33.7698 29.7298 26.1498 23.1898
2266.549 20.7198 18.7098 17.1398 15.8498 14.8398 14.0798 13.4698 13.0298 12.7198 12.5798
2285.839 12.5598 12.5898 12.6798 12.7898 12.9398 13.0598 13.0998 13.1298 13.0998 13.0298
2305.129 12.8998 12.7798 12.6098 12.2298 11.7798 11.3698 10.8798 10.3298 9.7698 9.2298
2324.418 8.6798 8.0698 7.4298 6.8898 6.4598 6.0298 5.6098 5.1698 4.8298 4.5098
2343.708 4.2398 4.1098 3.9598 3.8098 3.6498 3.5598 3.4898 3.3598 3.3398 3.2998
2362.998 3.2298 3.1798 3.1498 3.0598 2.9298 2.9298 2.8798 2.8398 2.8998 2.8698
2382.288 2.7998 2.7898 2.7498 2.6898 2.7198 2.7598 2.7698 2.7898 2.6898 2.5798
2401.578 2.5498 2.5998 2.5998 2.5198 2.4298 2.3798 2.4798 2.4398 2.2898 2.3098
2420.867 2.3298 2.3098 2.2698 2.3098 2.3498 2.2098 2.0998 2.1498 2.1498 2.1198
2440.157 2.0998 2.1498 2.2098 2.0298 1.9898 2.1198 2.2198 2.2298 2.2398 2.2498
2459.447 2.2798 2.3398 2.4498 2.5498 2.5598 2.5898 2.5498 2.5998 2.5998 2.5198
2478.737 2.4898 2.4298 2.4498 2.3698 2.2198 2.1598 2.0998 1.9998 1.9098 1.9298
2498.026 1.8798 1.7198 1.5498 1.4998 1.5998 1.5598 1.5398 1.5798 1.4998 1.4498
2517.316 1.4698 1.4798 1.3998 1.3098 1.3598 1.3998 1.3298 1.4098 1.5098 1.4898
2536.606 1.5798 1.5898 1.4398 1.5298 1.5998 1.4898 1.4998 1.4898 1.4198 1.3998
2555.896 1.5098 1.5798 1.6098 1.5698 1.5398 1.5898 1.6198 1.5998 1.5698 1.5698
2575.186 1.5698 1.6098 1.6298 1.6198 1.5498 1.6098 1.6398 1.5898 1.5698 1.5298
2594.475 1.5598 1.6398 1.6598 1.5398 1.3898 1.4798 1.5698 1.6298 1.7898 1.7698
2613.765 1.8098 1.8598 1.8398 1.8298 1.8598 1.9498 1.9498 1.9198 1.9398 2.0398
2633.055 2.1398 2.0898 2.1998 2.3198 2.3298 2.4698 2.4598 2.3398 2.3298 2.4498
2652.345 2.5098 2.3898 2.3498 2.3998 2.4398 2.3498 2.4098 2.5698 2.6498 2.6498
2671.634 2.6898 2.6898 2.6498 2.6598 2.6198 2.6398 2.5498 2.5298 2.7098 2.7598
2690.924 2.6898 2.5898 2.5498 2.4998 2.4298 2.4498 2.4998 2.5298 2.5298 2.5498
2710.214 2.6098 2.5598 2.6198 2.8498 2.9198 2.9598 2.9398 2.9298 3.0598 3.0898
2729.504 3.1698 3.3098 3.3098 3.2898 3.2798 3.3598 3.4198 3.4598 3.6598 3.7798
2748.794 3.7698 3.7698 3.7398 3.7298 3.7398 3.7698 3.8498 3.9398 4.0098 3.9898
2768.083 4.1098 4.1998 4.2098 4.3198 4.4198 4.3498 4.2998 4.5298 4.6898 4.8298
2787.373 5.0498 5.1798 5.3898 5.5198 5.5598 5.6798 5.8798 6.2798 6.4998 6.6498
2806.663 6.9198 7.0798 7.4898 8.0198 8.3298 8.6598 9.0398 9.4998 10.0398 10.6198
2825.953 11.1998 11.8498 12.5598 13.3298 14.3198 15.3498 16.2998 17.4498 18.7998 20.0798
2845.242 21.6798 23.5898 25.5898 27.6698 30.1398 32.9698 36.0998 39.7798 43.9298 48.2998
2864.532 52.7998 57.2498 61.0898 64.1098 66.2698 67.7298 68.3698 68.1998 67.9098 67.5498
2883.822 66.6298 65.2998 63.7998 61.7498 59.7598 58.1198 56.7898 56.3498 56.9898 58.3598
2903.112 60.6098 63.6098 66.9598 70.6598 74.5198 78.6098 82.9998 87.2398 91.9498 97.3198
2922.401 103.1 110.04 118.07 127.13 137.25 148.25 159.6 170.81 181.14 189.75
2941.691 195.73 197.92 195.89 189.94 181.29 171.25 160.9 151.84 145.12 141.32
2960.981 140.25 141.04 142.68 144.2 144.32 142.18 138.12 133.14 127.56 121.77
2980.271 116.8 112.66 108.71 103.96 98.2598 91.5898 83.6298 75.2098 67.3298 60.6898
2999.561 55.5698 51.4398 47.9098 44.5798 41.3598 38.4098 35.4998 32.5898 29.9898 27.6098
3018.850 25.1598 22.9598 20.9898 19.1598 17.6098 16.1698 14.9598 13.9098 13.0198 12.1998
3038.140 11.4998 11.0198 10.4398 9.7798 9.1998 8.8098 8.6098 8.2598 7.7598 7.5998
3057.430 7.2798 6.8398 6.7398 6.7398 6.5598 6.3198 6.2398 6.1098 6.0698 5.9198
3076.720 5.7698 5.6298 5.5798 5.5998 5.3598 5.0898 4.9898 4.9698 4.7998 4.6598
3096.009 4.5598 4.3598 4.2198 4.2298 4.1098 4.0298 3.9198 3.6898 3.6898 3.6698
3115.299 3.6498 3.7598 3.6798 3.4398 3.2698 3.2498 3.2498 3.2698 3.1998 3.0498
3134.589 2.9598 2.9098 2.9998 2.9498 2.9098 2.7798 2.5198 2.6198 2.6598 2.5698
3153.879 2.5498 2.4998 2.4598 2.2698 2.2198 2.3598 2.2898 2.2698 2.3298 2.1898
3173.169 2.1198 2.1698 2.0798 2.0698 2.2298 2.2398 2.2098 2.1298 1.9998 1.9998
3192.458 1.9698 1.9498 1.9698 1.9198 1.7398 1.6398 1.7598 1.6898 1.6298 1.6298
3211.748 1.5298 1.5098 1.4598 1.3898 1.2998 1.1898 1.1798 1.2598 1.3398 1.4598
3231.038 1.2798 0.9926 0.8463 0.7257 0.7669 0.9571 1.0588 1.0348 0.9502 0.8964
3250.328 0.9844 0.951 0.8638 0.9772 0.9607 0.9156 0.9261 0.8385 0.8473 0.8827
3269.617 0.8775 0.9164 0.8941 0.76 0.7418 0.7655 0.7639 0.6421 0.7715 0.8974
3288.907 0.8363 1.0473 1.0798 1.0101 0.8632 0.9254 1.1198 1.0223 0.981 0.9048
3308.197 0.887 1.0294 0.9995 0.8554 0.67 0.7816 0.9135 0.7916 0.7112 0.6578
3327.487 0.6396 0.7141 0.8492 0.9711 0.8698 0.7445 0.5893 0.5829 0.739 0.7774
3346.777 0.6886 0.5557 0.665 0.8336 0.7302 0.6197 0.8445 0.9059 0.7542 0.7181
3366.066 0.8624 0.7996 0.7183 0.7234 0.7069 0.9245 0.8476 0.7509 0.7248 0.6481
3385.356 0.776 0.7355 0.6294 0.7089 0.7869 0.7136 0.757 0.7982 0.9179 1.1298
3404.646 1.0998 1.2198 1.3998 1.3798 1.3398 1.3298 1.4898 1.6098 1.6598 1.7998
3423.936 1.9798 2.1198 2.3998 2.6298 2.8698 3.2998 3.6298 3.8498 4.0098 4.2398
3443.225 4.6098 4.6798 4.4998 4.3598 4.2998 4.3998 3.9498 3.2798 2.9598 2.8798
3462.515 2.7398 2.5398 2.4298 2.2698 2.0398 1.8298 1.7998 1.7098 1.5298 1.3198
3481.805 1.2498 1.3898 1.1398 0.9215 0.8791 0.8755 0.8816 0.6951 0.6225 0.6116
3501.095 0.4768 0.3314 0.386 0.4558 0.4093 0.4353 0.3294 0.3091 0.2904 0.2497
3520.385 0.3577 0.2916 0.2785 0.3191 0.3854 0.2634 0 0.0069 0.2735 0.3455
3539.674 0.21 0.1914 0.2988 0.3285 0.2793 0.3311 0.2038 0.177 0.3614 0.2039
3558.964 0.0368 0.2015 0.216 0.2145 0.203 0.2354 0.5598 0.5132 0.2092 0.0699876
3578.254 0.06772 0.1882 0.3025 0.2143 0.15139 0.1916 0.2472 0.3211 0.2767 0.12191
3597.544 0.0001 0.1349 0.1781 0.1776 0.2475 0.14212 0.08294 0.0344 0.06738 0.3277
3616.833 0.4197 0.2695 0.11884 0.10877 0.296 0.4446 0.4785 0.4134 0.382 0.2946
3636.123 0.2549 0.2989 0.2126 0.16008 0.076574 0.076705 0.16174 0.2147 0.226 0.2085
3655.413 0.2579 0.3836 0.3771 0.2499 0.2379 0.3066 0.4384 0.4862 0.2007 0.078565
3674.703 0.14399 0.1715 0.3008 0.3315 0.2442 0.2585 0.2818 0.15495 0.1822 0.2231
3693.993 0.307 0.3497 0.3098 0.3354 0.2737 0.4608 0.4271 0.3501 0.5155 0.4624
3713.282 0.406 0.5316 0.6408 0.4588 0.2411 0.3408 0.6313 0.5995 0.3832 0.3358
3732.572 0.358 0.4357 0.4353 0.5082 0.5463 0.2971 0.3706 0.7078 0.8039 0.7127
3751.862 0.5504 0.5126 0.6552 0.6117 0.4802 0.5087 0.5041 0.4716 0.5435 0.5739
3771.152 0.3667 0.3532 0.6406 0.7395 0.6618 0.4817 0.4233 0.6307 0.5473 0.5103
3790.441 0.5297 0.4948 0.6606 0.7195 0.567 0.4993 0.4961 0.352 0.5339 0.516
3809.731 0.14671 0.239 0.3811 0.5411 0.5879 0.5692 0.703 0.689 0.6588 0.6492
3829.021 0.653 0.6954 0.7877 0.7314 0.5811 0.3123 0.3042 0.4028 0.3736 0.5288
3848.311 0.5751 0.4749 0.411 0.4981 0.642 0.7379 0.6981 0.6812 0.6244 0.5749
3867.601 0.5166 0.4701 0.5152 0.5049 0.5136 0.4149 0.4367 0.509 0.497 0.53
3886.890 0.3239 0.2809 0.4003 0.4773 0.6349 0.4409 0.2886 0.399 0.6156 0.8065
3906.180 0.5078 0.4322 0.4952 0.3695 0.4676 0.621 0.5649 0.2383 0.1915 0.5094
3925.470 0.4788 0.3441 0.3112 0.3221 0.4298 0.2902 0.3232 0.4809 0.378 0.4157
3944.760 0.5645 0.5595 0.5911 0.7324 0.6778 0.5199 0.4273 0.4381 0.3503 0.3692
3964.049 0.5952 0.6739 0.8037 0.7248 0.7888 0.9636 0.7923 0.7951 0.8658 0.6896
3983.339 0.6771 0.8312 0.8717 1.0898 1.0698 0.7698 0.6911 0.5568 0.6269 0.9776
##END=
