##TITLE=p-Butoxytoluene
##JCAMP-DX=4.24
##DATA TYPE=INFRARED SPECTRUM
##ORIGIN=EPA-IR VAPOR PHASE LIBRARY
##OWNER=SRD/NIST
Collection (C) 2018 copyright by the U.S. Secretary of Commerce
on behalf of the United States of America. All rights reserved.
##CAS REGISTRY NO=10519-06-9
##MOLFORM=C 11 H 16 O
##$NIST SOURCE=MSDC-IR
##STATE=gas
##XUNITS=1/CM
##YUNITS=ABSORBANCE
##XFACTOR=1.
##YFACTOR=0.001
##DELTAX=1.92898
##FIRSTX=549.8
##LASTX=4000.7
##FIRSTY=2.209
##MAXX=4000.7
##MINX=549.759
##MAXY=0.092509
##MINY=0
##NPOINTS=1790
##XYDATA=(X++(Y..Y))
549.759 2.209 1.989 2.119 2.189 2.139 2.159 2.169 1.939 1.749 1.999
569.049 1.699 1.339 1.239 1.0247 0.9872 1.0171 0.7683 0.4525 0.5285 0.7304
588.339 0.7091 0.3753 0.3694 0.5353 0.4761 0.3745 0.4376 0.4245 0.234602 0.24007
607.628 0.25106 0.31171 0.3173 0.28598 0.4551 0.4493 0.28364 0.1569 0.124 0.146
626.918 0.32583 0.4994 0.3828 0.27458 0.25339 0.2123 0.1748 0.133 0.229965 0.3617
646.208 0.3953 0.25281 0 0.1422 0.24331 0.22846 0.3587 0.233126 0.1733 0.24674
665.498 0.22069 0.3292 0.4398 0.4744 0.5385 0.4759 0.5259 0.6251 0.7139 0.8645
684.787 0.9279 1.0102 1.0405 1.1424 1.289 1.419 1.599 1.809 1.999 2.229
704.077 2.399 2.449 2.609 2.759 2.869 3.019 3.259 3.409 3.399 3.439
723.367 3.409 3.349 3.319 3.329 3.249 3.229 3.179 3.109 3.069 2.929
742.657 2.879 2.839 2.779 2.619 2.529 2.389 2.199 2.239 2.169 2.069
761.947 1.929 2.009 2.129 2.129 2.069 1.889 2.069 2.299 2.289 2.229
781.236 2.519 3.199 3.579 3.969 4.629 5.359 6.279 7.129 8.049 9.099
800.526 10.069 11.039 12.089 12.879 13.529 14.279 15.059 15.599 15.829 15.839
819.816 15.559 15.009 14.129 13.079 12.219 11.289 10.309 9.309 8.059 7.169
839.106 6.569 5.949 5.329 4.719 4.259 3.909 3.659 3.459 3.309 3.299
858.395 3.339 3.239 3.109 3.119 3.269 3.499 3.729 3.909 3.849 3.619
877.685 3.589 3.649 3.489 3.219 2.989 2.729 2.499 2.389 2.369 2.239
896.975 2.099 2.149 2.079 1.889 1.909 1.969 1.829 1.709 1.689 1.599
916.265 1.519 1.499 1.509 1.419 1.479 1.649 1.639 1.689 1.699 1.759
935.555 1.959 2.169 2.369 2.549 2.669 2.979 3.279 3.439 3.739 4.119
954.844 4.469 4.669 4.789 5.079 5.449 5.879 6.259 6.369 6.639 6.889
974.134 6.969 6.849 6.719 6.609 6.319 6.219 6.069 5.949 5.979 5.859
993.424 5.979 6.279 6.459 6.729 7.449 8.319 9.199 10.579 11.829 12.689
1012.714 13.549 14.559 15.369 15.879 16.099 16.049 16.319 16.519 16.339 16.299
1032.003 16.169 15.919 15.529 14.819 14.039 13.269 12.259 11.449 10.739 10.139
1051.293 9.859 9.569 9.269 9.309 9.869 10.409 10.839 11.169 11.439 11.549
1070.583 11.469 11.349 10.589 9.399 8.749 8.479 7.749 6.709 6.259 5.909
1089.873 5.479 5.579 5.839 5.729 5.809 6.059 6.299 6.659 6.929 7.279
1109.163 7.649 7.369 7.319 7.389 6.429 5.709 5.779 5.679 5.519 5.649
1128.452 5.179 4.389 4.129 3.939 3.929 3.869 3.819 3.819 3.819 4.089
1147.742 3.979 4.039 4.109 4.159 4.389 4.779 5.779 7.089 9.079 11.989
1167.032 15.179 17.439 18.429 18.829 18.399 17.109 14.639 11.579 9.199 7.759
1186.322 6.679 6.119 6.599 7.269 7.809 8.859 10.309 11.779 13.689 16.119
1205.611 19.149 22.519 25.929 29.769 33.779 37.629 41.289 44.679 47.759 50.229
1224.901 52.749 56.589 61.269 66.219 72.309 78.989 85.159 90.119 92.509 91.729
1244.191 88.189 81.809 72.649 62.059 51.649 42.739 36.049 31.159 27.619 25.039
1263.481 23.279 22.179 21.589 21.509 21.459 21.599 22.049 22.379 22.499 22.559
1282.771 22.419 21.699 20.529 19.279 17.959 16.699 15.519 14.529 13.659 12.889
1302.060 12.229 11.649 11.179 10.509 9.729 8.989 8.259 7.529 6.919 6.459
1321.350 6.049 5.709 5.389 5.049 4.759 4.529 4.309 4.189 4.079 3.859
1340.640 3.669 3.609 3.599 3.479 3.339 3.289 3.309 3.339 3.329 3.379
1359.930 3.419 3.409 3.509 3.679 3.889 4.179 4.539 5.099 5.829 6.689
1379.219 7.649 8.559 9.409 9.989 10.249 10.159 9.679 8.949 8.099 7.209
1398.509 6.399 5.659 5.019 4.559 4.279 4.059 3.949 3.919 3.919 3.979
1417.799 4.029 4.079 4.159 4.279 4.409 4.529 4.659 4.769 4.909 5.039
1437.089 5.199 5.369 5.479 5.549 5.709 5.909 6.099 6.399 6.749 7.149
1456.378 7.629 8.159 8.799 9.629 10.659 11.859 13.199 14.559 15.599 16.179
1475.668 16.359 16.209 15.489 14.479 13.599 12.899 12.679 13.159 14.579 16.959
1494.958 20.519 25.709 32.559 41.309 51.879 62.849 73.089 80.259 82.919 81.719
1514.248 77.109 68.909 57.529 45.619 34.559 26.489 20.579 16.199 12.839 10.339
1533.538 8.459 7.029 6.099 5.429 4.909 4.489 4.129 3.829 3.629 3.489
1552.827 3.419 3.359 3.299 3.299 3.309 3.359 3.509 3.649 3.959 4.339
1572.117 4.679 5.059 5.499 6.069 6.599 6.949 7.229 7.549 7.749 7.909
1591.407 8.109 8.319 8.609 9.029 9.659 10.419 11.349 12.469 13.619 14.619
1610.697 15.369 15.689 15.569 14.899 13.789 12.439 10.799 9.039 7.499 6.279
1629.986 5.349 4.629 4.019 3.599 3.259 2.929 2.629 2.419 2.179 1.949
1649.276 1.879 1.779 1.659 1.519 1.379 1.279 1.1873 1.0923 1.047 1.0663
1668.566 0.9999 0.839 0.8549 0.8903 0.8954 0.8914 0.815 0.7596 0.7763 0.7845
1687.856 0.7465 0.7284 0.6953 0.7092 0.7207 0.7174 0.7133 0.7146 0.7238 0.7948
1707.146 0.8215 0.7511 0.7473 0.7733 0.7752 0.79 0.7713 0.7815 0.8093 0.7559
1726.435 0.7248 0.8039 0.8647 0.8723 0.9173 0.9207 0.8981 0.9716 1.0577 1.0669
1745.725 1.0955 1.188 1.249 1.2234 1.193 1.1732 1.2006 1.1771 1.0781 1.0337
1765.015 0.9909 0.8902 0.8214 0.7954 0.8343 0.7581 0.6917 0.6998 0.6329 0.6079
1784.305 0.5928 0.5477 0.5904 0.6517 0.6366 0.6462 0.6161 0.5727 0.5795 0.5995
1803.594 0.5956 0.6187 0.6187 0.6038 0.6458 0.6585 0.5966 0.5549 0.5902 0.6266
1822.884 0.6631 0.6682 0.6968 0.735 0.7538 0.7667 0.7995 0.8545 0.8923 0.9732
1842.174 0.99 1.0004 1.0323 1.102 1.2029 1.269 1.359 1.409 1.509 1.649
1861.464 1.709 1.749 1.779 1.769 1.749 1.719 1.689 1.629 1.489 1.449
1880.754 1.379 1.299 1.279 1.2248 1.1355 1.0353 1.0441 1.0555 1.0206 1.0117
1900.043 0.9505 0.8505 0.8505 0.8457 0.7733 0.7341 0.7545 0.7753 0.7993 0.8059
1919.333 0.8372 0.8815 0.8617 0.8614 0.865 0.906 0.8737 0.8125 0.8239 0.846
1938.623 0.8641 0.8647 0.8856 0.8865 0.881 0.897 0.925 0.9453 0.9199 0.9811
1957.913 1.0302 1.018 1.0382 1.0521 1.1112 1.1242 1.0417 1.0452 1.1453 1.1106
1977.202 1.0466 1.0807 1.0777 1.0125 1.0183 1.0392 1.0504 1.0568 1.024 1.0563
1996.492 1.0257 0.9953 1.027 0.9833 0.9109 0.9222 0.9892 0.9933 0.9832 1.0502
2015.782 1.1196 1.0768 1.0206 1.0522 1.1134 1.0963 1.0514 1.0997 1.1126 1.0588
2035.072 1.0792 1.1212 1.1079 1.103 1.1186 1.0946 1.0831 1.0657 1.071 1.0971
2054.362 1.1408 1.1407 1.0506 1.0213 1.0082 0.9567 0.8846 0.9153 0.9591 0.9575
2073.651 0.9242 0.9003 0.9769 0.9351 0.8795 0.9007 0.852 0.8249 0.8213 0.7305
2092.941 0.7011 0.7301 0.7307 0.6707 0.6378 0.6237 0.5855 0.5771 0.572 0.6209
2112.231 0.6584 0.6466 0.6031 0.5951 0.5585 0.5608 0.5309 0.4295 0.435 0.4805
2131.521 0.4741 0.453 0.4718 0.4357 0.3537 0.3702 0.379 0.3586 0.3915 0.3842
2150.810 0.3643 0.371 0.3762 0.4243 0.4107 0.3748 0.4054 0.361 0.3382 0.3664
2170.100 0.32777 0.32358 0.32886 0.31748 0.3589 0.4101 0.3916 0.338 0.3361 0.3328
2189.390 0.3475 0.3458 0.3646 0.3831 0.3671 0.4053 0.384 0.3897 0.437 0.3976
2208.680 0.4002 0.4349 0.4378 0.4343 0.4489 0.4501 0.4452 0.4676 0.4296 0.3959
2227.970 0.3667 0.3475 0.3635 0.4108 0.406 0.3845 0.4354 0.4695 0.4717 0.5025
2247.259 0.506 0.4248 0.4456 0.4613 0.4566 0.4465 0.4123 0.4221 0.4199 0.4116
2266.549 0.3886 0.4194 0.4242 0.3933 0.4387 0.4951 0.449 0.4478 0.4828 0.4816
2285.839 0.4554 0.4056 0.4328 0.4952 0.5048 0.466 0.4749 0.4881 0.4947 0.5335
2305.129 0.5585 0.5565 0.5422 0.5186 0.5038 0.5086 0.536 0.5641 0.6097 0.6488
2324.418 0.7104 0.6821 0.5822 0.5756 0.5799 0.5948 0.6333 0.6497 0.618 0.6315
2343.708 0.7221 0.6975 0.6378 0.5875 0.5981 0.6449 0.5986 0.5574 0.5336 0.5847
2362.998 0.5561 0.5166 0.4897 0.5304 0.6157 0.5538 0.4792 0.4919 0.5247 0.5319
2382.288 0.5968 0.6147 0.5922 0.5758 0.5433 0.5435 0.5316 0.5389 0.6433 0.6694
2401.578 0.7098 0.7358 0.7009 0.7145 0.6846 0.6651 0.7446 0.8008 0.7699 0.8345
2420.867 0.8591 0.7252 0.7193 0.7576 0.6847 0.6668 0.749 0.7917 0.8032 0.8563
2440.157 0.7966 0.7505 0.7942 0.7815 0.7062 0.6863 0.7585 0.8874 0.9566 0.8835
2459.447 0.8866 0.908 0.8862 0.9188 1.0093 0.9687 0.8565 0.8566 0.8985 0.9298
2478.737 0.8947 0.9144 0.9237 0.9308 0.943 0.871 0.8363 0.8627 0.8407 0.7913
2498.026 0.7571 0.7325 0.7681 0.799 0.7845 0.839 0.8774 0.8641 0.9218 0.9674
2517.316 0.9507 0.9836 0.9829 0.9361 0.9548 0.9621 0.9088 0.904 0.8567 0.7974
2536.606 0.768 0.6968 0.7267 0.777 0.7349 0.676 0.6784 0.7246 0.6754 0.5561
2555.896 0.5767 0.6226 0.6259 0.6165 0.5489 0.5697 0.6417 0.6752 0.6501 0.6025
2575.186 0.6444 0.6819 0.6743 0.6753 0.6889 0.6921 0.6797 0.7385 0.7809 0.7062
2594.475 0.7097 0.7667 0.7658 0.7271 0.7207 0.6926 0.6685 0.635 0.6338 0.6031
2613.765 0.5295 0.5655 0.5919 0.583 0.5674 0.5978 0.5485 0.4756 0.5422 0.5983
2633.055 0.6067 0.5834 0.5376 0.5573 0.5572 0.6064 0.6435 0.6327 0.6549 0.6201
2652.345 0.6039 0.633 0.6498 0.638 0.6003 0.6414 0.6665 0.6557 0.6811 0.6744
2671.634 0.7206 0.7873 0.8281 0.8078 0.8496 0.8837 0.8195 0.8033 0.6871 0.6374
2690.924 0.7953 0.8856 0.8375 0.8483 0.9125 0.9182 0.9179 0.9705 0.9841 0.9864
2710.214 1.0133 1.0335 1.0436 1.0805 1.1642 1.289 1.319 1.289 1.339 1.379
2729.504 1.489 1.609 1.669 1.789 1.939 1.999 2.019 2.089 2.159 2.199
2748.794 2.299 2.199 2.019 1.929 1.819 1.749 1.699 1.679 1.649 1.669
2768.083 1.689 1.659 1.639 1.659 1.649 1.609 1.629 1.619 1.579 1.619
2787.373 1.729 1.789 1.779 1.759 1.779 1.829 1.909 1.989 2.109 2.239
2806.663 2.269 2.349 2.449 2.499 2.629 2.679 2.819 3.029 3.129 3.269
2825.953 3.449 3.689 3.909 4.099 4.309 4.669 5.099 5.469 5.889 6.319
2845.242 6.929 7.639 8.329 9.019 9.769 10.609 11.459 12.489 13.649 14.839
2864.532 16.319 17.909 19.399 21.009 22.699 24.259 25.659 26.809 27.709 28.249
2883.822 28.329 27.999 27.429 26.709 25.829 24.879 24.089 23.619 23.519 23.729
2903.112 24.069 24.529 25.079 25.899 26.739 27.579 28.519 29.579 30.769 31.819
2922.401 33.029 34.529 36.179 37.919 39.649 41.339 42.649 43.619 44.319 44.629
2941.691 44.419 43.669 42.939 42.189 41.249 40.299 39.579 39.269 39.369 39.759
2960.981 40.329 41.019 41.529 41.809 41.589 40.409 38.379 35.859 33.009 29.889
2980.271 26.759 23.799 21.349 19.379 17.669 16.399 15.389 14.539 13.899 13.299
2999.561 12.869 12.519 12.169 11.999 11.879 11.699 11.589 11.529 11.529 11.699
3018.850 12.049 12.459 13.149 14.209 15.199 16.119 16.899 17.269 17.219 16.669
3038.140 15.599 14.219 12.549 10.869 9.609 8.769 8.089 7.579 7.259 7.059
3057.430 6.929 6.809 6.719 6.669 6.589 6.659 6.599 6.479 6.369 6.149
3076.720 5.919 5.609 5.219 4.889 4.599 4.339 4.289 4.179 4.029 4.059
3096.009 4.129 4.039 3.939 3.719 3.419 3.379 3.309 3.019 2.769 2.609
3115.299 2.369 2.199 2.169 2.079 1.969 2.029 1.949 1.649 1.519 1.509
3134.589 1.429 1.289 1.249 1.299 1.259 1.1257 1.0712 1.1469 1.0509 0.8675
3153.879 0.9049 0.9319 0.8732 0.8449 0.7901 0.6987 0.7093 0.6829 0.5554 0.6579
3173.169 0.7809 0.6273 0.6214 0.7115 0.6705 0.6729 0.6476 0.638 0.6011 0.5361
3192.458 0.5782 0.727 0.7307 0.6207 0.6332 0.6011 0.545 0.603 0.5825 0.4966
3211.748 0.5689 0.5538 0.4737 0.4234 0.4537 0.4541 0.4024 0.4621 0.4924 0.5242
3231.038 0.5485 0.4651 0.30586 0.339 0.3569 0.32808 0.28046 0.236072 0.27455 0.238421
3250.328 0.2999 0.31125 0.27354 0.3659 0.4806 0.48 0.3301 0.233923 0.27731 0.3353
3269.617 0.29745 0.1909 0.27523 0.3775 0.30648 0.28153 0.228983 0.2007 0.28308 0.31359
3288.907 0.4242 0.4361 0.3696 0.24871 0.127 0.30765 0.3706 0.26195 0.26779 0.1863
3308.197 0.156 0.3421 0.3805 0.31432 0.3119 0.18 0.055 0.25889 0.474 0.5077
3327.487 0.4407 0.32127 0.30999 0.4263 0.5291 0.4975 0.3798 0.3532 0.3934 0.3605
3346.777 0.4022 0.454 0.3535 0.25905 0.26097 0.26513 0.2179 0.1654 0.163 0.232167
3366.066 0.31712 0.32393 0.29436 0.25353 0.2137 0.25683 0.29261 0.3386 0.3365 0.25148
3385.356 0.2869 0.1895 0.161 0.1872 0.25857 0.4183 0.3597 0.3635 0.363 0.31982
3404.646 0.3582 0.28926 0.27211 0.27995 0.21913 0.2095 0.2643 0.29757 0.26003 0.2957
3423.936 0.31425 0.32212 0.3762 0.3515 0.3631 0.41 0.4204 0.376 0.27412 0.3502
3443.225 0.356 0.31518 0.3508 0.3504 0.3381 0.27497 0.24902 0.3409 0.29403 0.121
3462.515 0.11 0.1667 0.29702 0.3939 0.3552 0.28142 0.1582 0.073 0.1537 0.2181
3481.805 0.22424 0.2189 0.164 0.25418 0.3792 0.3393 0.23041 0.29336 0.358 0.3165
3501.095 0.3911 0.4227 0.4453 0.4812 0.3574 0.24686 0.231742 0.215 0.1807 0.1312
3520.385 0.232225 0.3326 0.1736 0.082 0.1928 0.25084 0.24656 0.32289 0.3586 0.30918
3539.674 0.32234 0.30779 0.25164 0.26582 0.1991 0.1902 0.26797 0.1907 0.109 0.1622
3558.964 0.2464 0.29281 0.3881 0.28018 0.1629 0.1651 0.1418 0.144 0.1847 0.25737
3578.254 0.1438 0.1363 0.22053 0.2183 0.30316 0.29747 0.22591 0.29542 0.27663 0.1805
3597.544 0.071 0.046 0.1785 0.22375 0.1955 0.1898 0.26397 0.32414 0.27736 0.229418
3616.833 0.22083 0.28655 0.3871 0.4677 0.3558 0.233043 0.1879 0.1459 0.1516 0.106
3636.123 0.1451 0.27625 0.31783 0.25696 0.30247 0.4189 0.4244 0.4066 0.4803 0.3926
3655.413 0.24748 0.21985 0.3377 0.3984 0.27421 0.3105 0.4119 0.4582 0.4615 0.3717
3674.703 0.3557 0.32246 0.4224 0.4847 0.3678 0.29448 0.3514 0.5355 0.5212 0.5174
3693.993 0.6059 0.5057 0.4066 0.5612 0.4971 0.32721 0.31278 0.25136 0.26788 0.238604
3713.282 0.26437 0.3307 0.3641 0.3973 0.26521 0.1961 0.3607 0.444 0.342 0.237156
3732.572 0.29372 0.27673 0.2175 0.25442 0.28103 0.24786 0.27837 0.3827 0.4135 0.3943
3751.862 0.2835 0.237035 0.238415 0.29887 0.3471 0.3523 0.4333 0.4238 0.4336 0.5516
3771.152 0.4487 0.333 0.4432 0.491 0.4125 0.4038 0.4171 0.4492 0.4055 0.3534
3790.441 0.5465 0.4891 0.3532 0.3696 0.30586 0.27251 0.4672 0.5476 0.5183 0.4919
3809.731 0.32316 0.3888 0.3671 0.30321 0.3382 0.3401 0.3858 0.3612 0.229305 0.3302
3829.021 0.5112 0.4125 0.3388 0.4033 0.5127 0.576 0.5417 0.4523 0.5134 0.5724
3848.311 0.4816 0.401 0.3979 0.4543 0.3694 0.4572 0.6012 0.6296 0.6655 0.5733
3867.601 0.5143 0.5218 0.5283 0.4716 0.4376 0.4656 0.4853 0.3982 0.35 0.4301
3886.890 0.4744 0.6716 0.666 0.579 0.5295 0.3371 0.3389 0.4385 0.4199 0.4026
3906.180 0.5331 0.5432 0.5592 0.6442 0.6093 0.4953 0.4083 0.5139 0.5437 0.3843
3925.470 0.4829 0.548 0.4848 0.5243 0.4803 0.3883 0.3456 0.2041 0.2028 0.3924
3944.760 0.501 0.4957 0.3952 0.3529 0.228682 0.31433 0.4597 0.3889 0.2069 0.2587
3964.049 0.3557 0.31732 0.3779 0.4228 0.3992 0.4007 0.4793 0.4427 0.4639 0.4766
3983.339 0.28163 0.2469 0.4133 0.4711 0.5021 0.4798 0.4556 0.4812 0.4695 0.4237
##END=
