##TITLE=1,3-Bis(3-aminophenoxy)benzene
##JCAMP-DX=4.24
##DATA TYPE=INFRARED SPECTRUM
##ORIGIN=EPA-IR VAPOR PHASE LIBRARY
##OWNER=SRD/NIST
Collection (C) 2018 copyright by the U.S. Secretary of Commerce
on behalf of the United States of America. All rights reserved.
##CAS REGISTRY NO=10526-07-5
##MOLFORM=C 18 H 16 N 2 O 2
##$NIST SOURCE=MSDC-IR
##STATE=gas
##XUNITS=1/CM
##YUNITS=ABSORBANCE
##XFACTOR=1.
##YFACTOR=0.001
##DELTAX=1.92898
##FIRSTX=549.8
##LASTX=4000.7
##FIRSTY=3.5
##MAXX=4000.7
##MINX=549.759
##MAXY=0.07815
##MINY=0.0003271
##NPOINTS=1790
##XYDATA=(X++(Y..Y))
549.759 3.5 3.58 3.55 3.48 3.55 3.5 3.54 3.57 3.54 3.58
569.049 3.63 3.84 3.93 3.97 4.05 4.05 3.96 3.87 3.9 3.87
588.339 3.83 3.98 3.94 3.89 3.76 3.53 3.65 3.67 3.65 3.61
607.628 3.65 3.83 3.99 4.03 3.93 3.93 3.91 4.02 4.26 4.4
626.918 4.43 4.45 4.61 4.89 5.22 5.39 5.57 5.95 6.25 6.54
646.208 7.08 7.78 8.56 9.33 10.17 11.17 12.22 13.14 14.04 14.76
665.498 15.2 15.7 16.13 16.33 16.49 16.88 17.34 17.93 18.67 19.13
684.787 19.37 19.16 18.21 16.8 15.23 13.51 11.9 10.59 9.53 8.68
704.077 8.07 7.59 7.25 6.97 6.6 6.4 6.26 6.08 5.9 5.73
723.367 5.58 5.57 5.55 5.51 5.59 5.63 5.7 5.79 5.96 6.27
742.657 6.74 7.24 7.7 8.23 8.74 9.26 9.78 10.43 11.09 11.63
761.947 12.21 12.79 13.3 13.67 13.81 13.73 13.5 13.19 12.67 12
781.236 11.41 10.8 9.97 9.16 8.45 7.65 7.06 6.54 5.9 5.47
800.526 5.28 5.14 4.89 4.67 4.55 4.34 4.18 4.26 4.24 4.29
819.816 4.44 4.59 4.75 4.87 5.04 5.4 5.88 6.39 6.93 7.67
839.106 8.49 9.15 9.68 10 10.04 9.84 9.44 9.08 8.74 8.47
858.395 8.16 7.75 7.48 7.18 6.91 6.76 6.57 6.23 5.86 5.45
877.685 5.09 4.85 4.54 4.28 4.06 3.79 3.67 3.71 3.68 3.5
896.975 3.43 3.43 3.39 3.36 3.46 3.43 3.19 3.29 3.46 3.41
916.265 3.51 3.67 3.85 3.98 4.05 4.17 4.32 4.52 4.62 4.76
935.555 4.9 4.97 5.05 5.22 5.45 5.78 6.36 7.01 7.85 8.82
954.844 9.83 10.72 11.36 11.73 11.77 11.76 11.84 12.42 13.76 15.7
974.134 18.51 21.93 25.39 28.13 29.47 29.11 26.99 23.69 20.11 16.73
993.424 14.11 12.01 10.17 8.61 7.17 5.94 4.99 4.38 3.82 3.49
1012.714 3.28 3.05 3.03 2.85 2.71 2.66 2.56 2.68 2.75 2.73
1032.003 2.66 2.46 2.4 2.42 2.57 2.72 2.61 2.52 2.6 2.78
1051.293 2.98 2.99 3.06 3.38 3.65 4.02 4.39 4.55 4.73 4.88
1070.583 4.98 5.11 5.28 5.06 4.62 4.63 4.86 4.71 4.85 5.31
1089.873 5.28 5.13 5.06 4.89 5.02 5.52 5.57 5.59 5.8 6.1
1109.163 6.87 7.65 8.35 9.37 10.64 11.15 11.45 11.83 11.35 10.88
1128.452 10.56 10.49 10.77 11.55 13.29 15.97 20 25.97 34.15 43.88
1147.742 52.99 58.53 59.58 56.01 48.47 40.21 33.87 30.46 29.76 31.38
1167.032 35.33 40.61 46.68 53.48 60.48 67.02 71.37 71.46 66.52 57.44
1186.322 46.3 35.83 27.8 21.99 17.99 15.14 12.89 11.46 10.5 9.22
1205.611 8.07 7.84 7.69 7.13 6.55 6.22 6.13 6.26 6.11 6.03
1224.901 6.05 6.09 6.32 6.49 6.73 6.97 7.41 8.22 9.2 10.24
1244.191 11.5 13.22 15.4 18.09 21.17 24.49 27.84 30.88 33.29 34.77
1263.481 35.55 35.61 35.22 35.13 35.77 37.37 39.69 42.39 44.35 44.55
1282.771 42.99 39.83 35.85 31.93 28.4 25.51 23.31 21.63 20.38 19.51
1302.060 18.88 18.3 17.65 16.88 16 15.16 14.28 13.37 12.62 11.9
1321.350 11.15 10.37 9.54 8.76 8.03 7.33 6.65 6.08 5.6 5.14
1340.640 4.67 4.23 3.89 3.61 3.37 3.16 3.01 2.88 2.73 2.63
1359.930 2.6 2.58 2.41 2.23 2.17 2.1 2.09 2.13 2.09 2.16
1379.219 2.23 2.2 2.25 2.4 2.62 2.73 2.84 3.14 3.48 3.71
1398.509 3.91 4.07 4.18 4.28 4.33 4.34 4.36 4.35 4.43 4.62
1417.799 4.89 5.12 5.37 5.85 6.37 6.96 7.72 8.63 9.63 10.8
1437.089 11.95 12.85 13.7 14.47 15.18 15.94 16.84 18 19.63 21.72
1456.378 24.19 26.49 28.3 29.76 30.88 32.06 34.06 37.71 43.47 51.17
1475.668 59.65 67.42 72.23 73.03 69.93 64.3 57.89 52.02 46.69 41.57
1494.958 36.56 31.51 26.74 22.62 19.29 16.76 14.9 13.45 12.28 11.31
1514.248 10.61 10.2 9.91 9.8 9.63 9.45 9.45 9.29 8.99 8.82
1533.538 8.68 8.51 8.44 8.5 8.65 8.89 9.14 9.32 9.75 10.26
1552.827 10.93 11.82 12.75 14.06 15.64 17.44 19.83 22.83 26.41 30.77
1572.117 36.1 42.41 49.84 57.74 65.19 71.67 76.13 78.15 77.81 75.59
1591.407 72.15 68.38 64.67 61.04 57.41 53.69 49.83 46.02 42.61 39.85
1610.697 37.94 37.07 37.22 38.16 39.68 41.44 43.06 44.08 44.06 42.65
1629.986 39.9 36.23 32.06 27.72 23.65 20.14 17.14 14.74 12.82 11.19
1649.276 9.87 8.9 8.06 7.23 6.56 6.05 5.62 5.27 4.99 4.79
1668.566 4.65 4.5 4.4 4.37 4.25 4.15 4.06 4 3.94 3.74
1687.856 3.58 3.47 3.37 3.35 3.36 3.29 3.29 3.26 3.17 3.11
1707.146 3.08 3.07 3.03 3.03 3.05 3.03 2.91 2.8 2.72 2.65
1726.435 2.54 2.51 2.5 2.47 2.4 2.17 2.08 2.05 2 1.94
1745.725 1.86 1.8 1.84 1.84 1.67 1.63 1.6 1.52 1.52 1.48
1765.015 1.39 1.5 1.51 1.33 1.32 1.35 1.32 1.31 1.31 1.32
1784.305 1.4 1.36 1.29 1.36 1.39 1.41 1.46 1.44 1.51 1.61
1803.594 1.56 1.5 1.51 1.54 1.53 1.48 1.49 1.53 1.52 1.49
1822.884 1.49 1.52 1.55 1.54 1.53 1.56 1.54 1.51 1.52 1.54
1842.174 1.57 1.52 1.49 1.5 1.48 1.43 1.4 1.43 1.44 1.44
1861.464 1.42 1.39 1.41 1.45 1.5 1.51 1.57 1.62 1.63 1.67
1880.754 1.74 1.82 1.88 1.96 2.1 2.22 2.34 2.44 2.53 2.63
1900.043 2.68 2.77 2.83 2.81 2.78 2.72 2.61 2.53 2.44 2.28
1919.333 2.1 1.96 1.87 1.75 1.64 1.58 1.54 1.53 1.41 1.37
1938.623 1.43 1.42 1.42 1.39 1.35 1.35 1.33 1.33 1.36 1.34
1957.913 1.3 1.26 1.27 1.31 1.32 1.31 1.29 1.32 1.27 1.23
1977.202 1.25 1.29 1.29 1.3 1.31 1.3 1.29 1.31 1.3 1.26
1996.492 1.26 1.28 1.33 1.33 1.31 1.31 1.31 1.32 1.29 1.26
2015.782 1.29 1.34 1.36 1.33 1.31 1.32 1.33 1.33 1.33 1.34
2035.072 1.35 1.34 1.31 1.33 1.34 1.34 1.38 1.39 1.37 1.33
2054.362 1.29 1.28 1.26 1.27 1.32 1.31 1.25 1.23 1.18 1.15
2073.651 1.19 1.19 1.13 1.11 1.1 1.1 1.1 1.1 1.13 1.12
2092.941 1.11 1.09 1.08 1.08 1.13 1.18 1.14 1.14 1.15 1.14
2112.231 1.14 1.12 1.08 1.08 1.15 1.16 1.11 1.12 1.14 1.14
2131.521 1.15 1.14 1.13 1.12 1.15 1.11 1.04 1.06 1.07 1.08
2150.810 1.09 1.09 1.12 1.09 1.09 1.12 1.1 1.04 1.05 1.08
2170.100 1.11 1.13 1.13 1.11 1.09 1.12 1.15 1.15 1.14 1.13
2189.390 1.14 1.15 1.18 1.21 1.17 1.16 1.17 1.21 1.21 1.19
2208.680 1.25 1.26 1.22 1.23 1.21 1.2 1.21 1.18 1.19 1.2
2227.970 1.21 1.23 1.23 1.21 1.22 1.23 1.26 1.27 1.23 1.22
2247.259 1.22 1.22 1.21 1.2 1.17 1.17 1.21 1.22 1.21 1.18
2266.549 1.17 1.16 1.17 1.23 1.26 1.28 1.28 1.22 1.23 1.24
2285.839 1.24 1.26 1.26 1.27 1.3 1.33 1.35 1.36 1.38 1.37
2305.129 1.34 1.34 1.35 1.32 1.32 1.35 1.36 1.39 1.37 1.36
2324.418 1.39 1.36 1.37 1.4 1.37 1.33 1.28 1.33 1.41 1.43
2343.708 1.43 1.45 1.41 1.4 1.41 1.42 1.44 1.44 1.43 1.47
2362.998 1.55 1.6 1.66 1.71 1.7 1.76 1.82 1.83 1.83 1.78
2382.288 1.71 1.68 1.64 1.58 1.54 1.5 1.47 1.43 1.45 1.46
2401.578 1.45 1.5 1.51 1.5 1.46 1.45 1.48 1.49 1.49 1.54
2420.867 1.55 1.56 1.55 1.54 1.56 1.53 1.54 1.53 1.49 1.51
2440.157 1.52 1.49 1.4 1.39 1.43 1.42 1.37 1.31 1.28 1.28
2459.447 1.28 1.24 1.24 1.23 1.22 1.21 1.18 1.16 1.11 1.07
2478.737 1.09 1.09 1.05 0.9888 0.9815 0.9444 0.8948 0.925 0.9738 0.9421
2498.026 0.9337 0.9651 0.9348 0.9031 0.9175 0.933 0.9052 0.916 0.9268 0.8903
2517.316 0.8977 0.9139 0.9235 0.9576 0.9727 0.9389 0.9338 0.9619 0.9691 0.9507
2536.606 0.9078 0.9232 0.9528 0.9713 1.01 1.03 0.9923 1 1.08 1.08
2555.896 1.1 1.14 1.11 1.07 1.12 1.16 1.15 1.15 1.15 1.15
2575.186 1.15 1.11 1.08 1.07 1.03 1.06 1.09 1.06 1.08 1.11
2594.475 1.1 1.08 1.09 1.05 0.9974 1.01 1.04 1.04 1.01 0.9481
2613.765 0.9268 0.9133 0.8962 0.9698 1 0.9268 0.8669 0.8376 0.8365 0.8721
2633.055 0.8384 0.8169 0.8193 0.8119 0.7935 0.7788 0.7941 0.7696 0.7541 0.7929
2652.345 0.8089 0.7965 0.7541 0.7462 0.8096 0.8074 0.7836 0.7929 0.7502 0.733
2671.634 0.7902 0.8459 0.8144 0.7445 0.7669 0.7677 0.768 0.7823 0.7868 0.8309
2690.924 0.9046 0.9346 0.8885 0.8555 0.8755 0.886 0.8759 0.915 0.9355 0.9115
2710.214 0.8931 0.8781 0.9229 0.9506 0.9605 0.9827 0.964 0.9637 0.9994 1.08
2729.504 1.09 1.08 1.06 1.02 1.06 1.11 1.1 1.1 1.08 1.08
2748.794 1.11 1.15 1.13 1.06 1.03 1.08 1.08 1.03 1.04 1.01
2768.083 1.01 1.09 1.06 1.01 1.01 0.9922 0.9815 0.9403 0.9129 0.9245
2787.373 0.9427 0.9219 0.8665 0.8717 0.8822 0.8521 0.8329 0.813 0.807 0.7793
2806.663 0.7519 0.7211 0.7543 0.8031 0.815 0.8299 0.796 0.7391 0.7089 0.7344
2825.953 0.7507 0.7497 0.7592 0.7376 0.6972 0.7208 0.8445 0.8977 0.8426 0.8187
2845.242 0.8434 0.8456 0.806 0.7942 0.8165 0.8597 0.8845 0.8722 0.9255 0.963
2864.532 0.9457 0.9722 0.9251 0.8308 0.8191 0.9137 0.9248 0.8564 0.8997 0.8916
2883.822 0.8333 0.8699 0.9146 0.9693 0.9875 0.9806 0.993 0.9635 0.9363 0.9334
2903.112 0.9674 0.9497 0.9161 0.897 0.8686 0.8967 0.9391 0.9359 0.9603 0.9945
2922.401 0.902 0.8198 0.8588 0.978 1.01 0.9193 0.916 0.9677 0.9476 0.9344
2941.691 0.8935 0.8659 0.8986 0.9317 0.9089 0.8711 0.8767 0.8876 0.9634 1.02
2960.981 0.9553 0.9448 0.8945 0.8733 0.9187 0.946 0.9621 0.9547 0.9715 0.9231
2980.271 0.8853 0.9622 0.9891 0.9744 0.9592 0.9991 1.1 1.09 1.16 1.18
2999.561 1.11 1.14 1.24 1.31 1.38 1.54 1.68 1.87 2.15 2.37
3018.850 2.64 3 3.36 3.81 4.34 4.75 5.07 5.38 5.72 6.13
3038.140 6.48 6.77 7 7.02 6.93 6.72 6.48 6.34 6.32 6.44
3057.430 6.68 6.78 6.67 6.47 6.2 6.06 5.96 5.86 5.83 5.82
3076.720 5.74 5.72 5.75 5.59 5.36 5.08 4.65 4.16 3.76 3.42
3096.009 3.11 2.83 2.6 2.5 2.34 2.17 2.03 1.79 1.67 1.61
3115.299 1.54 1.48 1.42 1.42 1.32 1.21 1.16 1.21 1.14 1.05
3134.589 1.02 0.9482 0.976 1.02 1.01 0.9396 0.9439 0.9737 0.9735 0.9812
3153.879 1.03 1.03 0.9561 0.9879 1.04 0.9764 0.9865 1.01 1 1.05
3173.169 1.07 1.05 1.05 1.1 1.18 1.19 1.13 1.15 1.17 1.11
3192.458 1.2 1.27 1.23 1.18 1.18 1.24 1.26 1.34 1.38 1.39
3211.748 1.38 1.36 1.41 1.43 1.46 1.48 1.47 1.42 1.39 1.32
3231.038 1.29 1.37 1.35 1.26 1.18 1.16 1.13 1.05 1.04 1.03
3250.328 1.02 0.9745 1.01 0.9861 0.8652 0.829 0.8892 0.9296 0.8832 0.9215
3269.617 0.9345 0.9156 0.8843 0.8594 0.9749 0.9008 0.8417 0.882 0.8461 0.8652
3288.907 0.8835 0.8206 0.7692 0.8428 0.8158 0.8066 0.8378 0.8056 0.8254 0.9069
3308.197 0.9452 0.8943 0.8381 0.8363 0.8592 0.8891 0.9363 0.8955 0.8511 0.8579
3327.487 0.8998 0.901 0.8809 0.9256 0.8902 0.891 0.9329 0.8911 0.8806 0.8553
3346.777 0.8805 0.9612 0.9286 0.9636 1.07 1.03 1.04 1.02 1.06 1.17
3366.066 1.18 1.19 1.17 1.23 1.3 1.32 1.4 1.39 1.4 1.55
3385.356 1.71 1.85 1.95 2.13 2.33 2.58 2.73 2.89 3.18 3.36
3404.646 3.52 3.71 3.85 3.9 3.95 3.93 3.8 3.61 3.48 3.31
3423.936 3.16 3.01 2.72 2.47 2.27 2.1 1.91 1.82 1.68 1.48
3443.225 1.37 1.26 1.2 1.15 1.13 1.11 1.11 1.18 1.3 1.39
3462.515 1.39 1.36 1.42 1.53 1.55 1.54 1.64 1.82 2.07 2.27
3481.805 2.3 2.46 2.68 2.76 2.84 2.95 2.92 2.85 2.85 2.76
3501.095 2.7 2.66 2.49 2.36 2.4 2.31 2.12 2 1.82 1.68
3520.385 1.61 1.56 1.48 1.3 1.08 0.9103 0.8147 0.9274 0.9812 0.9015
3539.674 0.7622 0.6817 0.8163 0.8351 0.6634 0.5712 0.6401 0.6371 0.6195 0.635
3558.964 0.617 0.6429 0.6899 0.7557 0.7939 0.704 0.6031 0.5417 0.5834 0.6246
3578.254 0.6299 0.6891 0.6806 0.652 0.7095 0.7847 0.688 0.6046 0.6567 0.7282
3597.544 0.7206 0.6352 0.6423 0.6801 0.6517 0.7073 0.7853 0.7813 0.6901 0.5821
3616.833 0.6003 0.6099 0.5833 0.5886 0.623 0.6566 0.7515 0.7271 0.5828 0.5832
3636.123 0.5885 0.5557 0.5052 0.451 0.4916 0.5641 0.5951 0.6343 0.669 0.6863
3655.413 0.7544 0.6598 0.4982 0.4995 0.5467 0.5744 0.5502 0.5709 0.605 0.6031
3674.703 0.6249 0.6225 0.5741 0.447 0.3666 0.5181 0.6649 0.6167 0.5413 0.4889
3693.993 0.4179 0.4901 0.6469 0.7046 0.5858 0.5955 0.6516 0.5632 0.6087 0.652
3713.282 0.5745 0.5273 0.5126 0.4931 0.6008 0.6464 0.6414 0.6878 0.6339 0.5575
3732.572 0.5856 0.6865 0.6623 0.5693 0.5804 0.6278 0.7093 0.679 0.5829 0.6008
3751.862 0.616 0.5938 0.5618 0.564 0.6175 0.6789 0.6112 0.4688 0.4428 0.5276
3771.152 0.5141 0.5441 0.5507 0.5077 0.5802 0.5333 0.4554 0.4948 0.5339 0.4313
3790.441 0.4695 0.4815 0.4923 0.6241 0.5405 0.4631 0.4863 0.4941 0.5475 0.5969
3809.731 0.5182 0.4174 0.4754 0.4715 0.4382 0.5556 0.5152 0.4374 0.6016 0.6501
3829.021 0.5784 0.6032 0.5957 0.6142 0.6508 0.658 0.6406 0.648 0.6364 0.687
3848.311 0.7185 0.7504 0.8814 0.8884 0.8325 0.73 0.6804 0.7092 0.6332 0.5967
3867.601 0.6434 0.6506 0.6162 0.6307 0.5772 0.5255 0.5462 0.5162 0.4844 0.5902
3886.890 0.6021 0.4625 0.5261 0.5469 0.4969 0.4823 0.5325 0.7278 0.7123 0.5276
3906.180 0.3835 0.3271 0.3692 0.3868 0.5045 0.5769 0.5448 0.4758 0.508 0.5629
3925.470 0.5001 0.5553 0.6679 0.7679 0.6415 0.5627 0.5869 0.5658 0.6507 0.7532
3944.760 0.7697 0.7467 0.7502 0.6172 0.6345 0.627 0.5199 0.5256 0.5361 0.4957
3964.049 0.4473 0.5048 0.4715 0.4359 0.4129 0.4286 0.4959 0.5402 0.5032 0.4349
3983.339 0.5185 0.5296 0.4518 0.4429 0.431 0.5256 0.5241 0.5606 0.6244 0.5108
##END=
