##TITLE=2-Methyl-1-undecanol
##JCAMP-DX=4.24
##DATA TYPE=INFRARED SPECTRUM
##ORIGIN=NIST Mass Spectrometry Data Center
##OWNER=NIST Standard Reference Data Program
Collection (C) 2018 copyright by the U.S. Secretary of Commerce
on behalf of the United States of America. All rights reserved.
##CAS REGISTRY NO=10522-26-6
##MOLFORM=C 12 H 26 O
##$NIST SOURCE=MSDC-IR
##SPECTROMETER/DATA SYSTEM=HP-GC/MS/IRD
##STATE=gas
##XUNITS=1/CM
##YUNITS=ABSORBANCE
##XFACTOR=1.0
##YFACTOR=0.000007200
##DELTAX=4.0
##FIRSTX=550.0
##LASTX=3846.0
##FIRSTY=0.000367
##MAXX=3846
##MINX=550
##MAXY=0.072
##MINY=0
##NPOINTS=825
##XYDATA=(X++(Y..Y))
550.0 51 35 10 0 10 10 12 21 31 25
590.0 7 4 11 15 14 13 9 5 5 9
630.0 9 2 4 14 12 8 5 1 9 14
670.0 14 21 22 18 25 30 34 45 61 77
710.0 100 121 134 132 130 131 122 112 99 92
750.0 85 77 72 65 60 57 57 50 48 54
790.0 58 57 45 49 48 43 51 54 49 51
830.0 50 51 56 53 50 55 56 51 51 53
870.0 61 67 68 77 90 103 115 125 135 145
910.0 151 149 149 157 166 176 184 186 190 195
950.0 203 215 231 259 293 333 383 430 467 489
990.0 497 513 549 609 704 827 975 1144 1331 1515
1030.0 1679 1776 1767 1634 1409 1158 935 754 620 526
1070.0 460 415 382 353 328 306 286 269 252 237
1110.0 228 223 213 204 200 193 185 184 182 175
1150.0 174 171 168 172 177 182 187 192 193 198
1190.0 207 215 221 224 231 239 246 253 254 253
1230.0 254 253 254 255 250 245 245 247 246 245
1270.0 249 254 254 255 262 269 274 279 286 287
1310.0 284 282 281 281 289 303 323 349 379 409
1350.0 431 444 455 468 488 510 529 544 548 519
1390.0 468 411 352 305 269 242 222 211 211 220
1430.0 243 282 347 435 539 656 776 877 926 913
1470.0 840 719 575 438 328 248 193 157 131 115
1510.0 97 83 73 67 60 54 50 48 47 40
1550.0 37 37 39 34 31 30 31 30 28 28
1590.0 26 26 26 22 22 23 23 24 24 21
1630.0 17 18 20 18 17 19 19 17 16 16
1670.0 14 12 10 8 11 9 9 11 10 6
1710.0 6 7 8 5 3 5 5 4 5 5
1750.0 2 2 1 2 3 4 3 1 1 2
1790.0 3 1 2 3 3 5 4 2 1 1
1830.0 1 2 1 1 2 4 5 5 6 5
1870.0 4 3 2 4 6 4 4 5 6 4
1910.0 1 1 2 2 1 2 3 3 3 5
1950.0 4 3 4 4 2 1 2 4 3 2
1990.0 1 3 3 5 7 7 9 13 14 16
2030.0 16 16 17 18 19 18 17 17 16 14
2070.0 14 12 9 7 5 3 1 1 3 4
2110.0 4 2 1 2 3 3 2 3 2 1
2150.0 1 2 3 2 3 2 3 2 3 2
2190.0 5 4 4 5 5 5 4 3 4 5
2230.0 2 3 4 4 5 4 1 2 2 3
2270.0 5 4 5 4 6 8 7 6 7 9
2310.0 10 11 11 10 10 11 12 12 11 8
2350.0 7 9 13 13 11 9 9 8 8 10
2390.0 11 10 11 11 10 11 12 12 11 10
2430.0 11 12 12 11 9 10 11 9 7 10
2470.0 12 12 12 11 12 11 11 12 11 12
2510.0 14 14 16 19 20 22 23 24 27 28
2550.0 28 26 29 31 32 34 35 37 38 39
2590.0 42 41 42 46 50 51 51 55 58 61
2630.0 65 68 71 77 81 79 83 89 93 97
2670.0 102 106 109 110 113 112 112 116 115 118
2710.0 123 127 134 143 151 159 168 176 182 186
2750.0 188 194 199 202 210 219 230 241 253 270
2790.0 291 311 336 361 385 423 464 510 565 631
2830.0 715 826 979 1209 1561 2070 2724 3392 3876 4058
2870.0 3986 3806 3651 3542 3429 3318 3290 3420 3712 4155
2910.0 4743 5501 6492 7733 9020 9903 10000 9288 8069 6732
2950.0 5615 4911 4617 4561 4476 4138 3517 2766 2088 1567
2990.0 1197 940 762 636 538 462 405 359 322 291
3030.0 263 241 222 201 181 171 161 151 142 135
3070.0 130 123 117 114 109 103 97 93 90 84
3110.0 80 80 77 72 66 66 65 60 58 58
3150.0 58 57 54 52 50 49 47 42 37 40
3190.0 38 30 29 28 23 18 17 12 9 11
3230.0 8 9 9 6 6 4 2 1 2 4
3270.0 6 8 6 2 2 5 5 1 2 3
3310.0 3 4 8 6 6 7 5 4 4 5
3350.0 9 13 9 7 8 9 10 8 5 8
3390.0 11 11 12 14 12 13 14 13 13 12
3430.0 14 15 17 16 13 12 15 16 13 11
3470.0 10 11 12 15 17 15 16 17 15 16
3510.0 16 18 17 14 16 14 11 12 9 13
3550.0 14 11 13 16 17 17 19 21 17 16
3590.0 20 21 24 24 26 30 35 42 49 55
3630.0 64 74 90 115 146 188 238 289 344 389
3670.0 406 381 324 255 194 144 109 84 65 56
3710.0 52 47 42 40 37 36 35 32 30 36
3750.0 34 29 32 30 28 30 29 28 29 28
3790.0 29 33 36 38 36 35 35 38 39 36
3830.0 35 36 37 39 38
##END=
