##TITLE=Bis(pentafluorophenyl)dimethylsilane
##JCAMP-DX=4.24
##DATA TYPE=INFRARED SPECTRUM
##ORIGIN=EPA-IR VAPOR PHASE LIBRARY
##OWNER=SRD/NIST
Collection (C) 2018 copyright by the U.S. Secretary of Commerce
on behalf of the United States of America. All rights reserved.
##CAS REGISTRY NO=10536-62-6
##MOLFORM=C 14 H 6 F 10 Si
##$NIST SOURCE=MSDC-IR
##STATE=gas
##XUNITS=1/CM
##YUNITS=ABSORBANCE
##XFACTOR=1.
##YFACTOR=0.001
##DELTAX=1.92898
##FIRSTX=549.8
##LASTX=4000.7
##FIRSTY=2.312
##MAXX=4000.7
##MINX=549.759
##MAXY=1.46299
##MINY=0
##NPOINTS=1790
##XYDATA=(X++(Y..Y))
549.759 2.312 2.472 2.312 2.392 2.022 1.862 1.942 1.932 1.742 2.372
569.049 2.632 1.772 2.302 3.052 3.472 5.472 9.972 13.422 14.082 13.162
588.339 10.022 6.522 4.962 4.612 4.292 4.172 4.172 3.982 3.752 3.802
607.628 4.612 5.182 5.342 5.842 6.562 7.212 8.272 9.642 10.122 10.582
626.918 10.212 8.752 7.662 6.792 6.302 6.042 5.942 6.162 6.102 6.152
646.208 6.732 7.632 8.792 10.222 11.702 14.052 17.992 22.882 29.982 40.722
665.498 54.662 71.592 89.152 102.662 108.512 104.502 91.432 73.862 56.692 43.372
684.787 34.332 28.132 23.862 21.062 18.882 17.532 16.942 16.852 16.872 17.302
704.077 18.382 19.382 20.202 20.592 20.392 19.982 19.772 20.352 21.482 22.152
723.367 23.202 24.732 26.382 27.882 28.832 29.602 29.892 29.602 28.942 28.022
742.657 27.032 26.252 25.932 25.782 26.012 26.232 26.382 26.642 26.742 26.782
761.947 26.692 26.702 26.852 27.772 29.442 31.202 33.812 37.652 42.222 47.742
781.236 54.612 62.912 73.112 85.952 102.012 122.732 150.582 186.752 230.762 280.942
800.526 330.082 369.242 392.532 396.852 383.072 353.482 312.442 267.152 225.142 190.732
819.816 163.962 140.932 119.192 98.852 80.722 66.142 55.452 47.792 43.062 40.442
839.106 40.182 42.892 48.642 58.222 73.052 93.452 118.782 147.662 174.192 192.492
858.395 199.632 194.902 181.282 162.322 141.292 120.602 101.772 86.052 73.632 63.802
877.685 56.082 50.122 45.352 41.372 38.152 35.442 32.832 30.922 29.262 27.892
896.975 26.632 25.162 24.052 22.962 21.982 21.442 20.792 20.042 19.742 19.312
916.265 18.552 18.092 18.092 18.062 18.362 19.032 19.352 19.782 20.872 22.642
935.555 24.372 26.192 28.922 32.812 38.172 45.722 55.292 67.402 82.922 102.022
954.844 125.792 154.622 190.122 235.322 292.032 362.622 446.592 536.132 615.452 664.972
974.134 669.182 623.362 539.512 440.012 343.742 262.822 201.402 156.472 124.222 100.892
993.424 83.382 71.142 62.952 57.152 54.722 54.662 55.512 58.262 62.672 66.902
1012.714 70.322 72.202 72.022 69.802 65.192 59.422 53.422 48.122 43.532 40.072
1032.003 37.382 34.872 33.302 32.532 32.572 34.152 36.932 39.032 40.552 41.522
1051.293 41.612 41.202 41.892 43.122 44.562 47.852 53.832 62.692 75.322 94.692
1070.583 122.302 159.072 209.382 276.002 364.402 481.582 622.132 773.322 910.992 1009.96
1089.873 1057.65 1040.82 950.462 806.472 644.092 496.362 381.932 298.972 240.352 198.592
1109.163 166.082 141.612 125.222 113.542 104.812 95.512 86.412 79.132 71.392 64.932
1128.452 60.032 57.232 55.542 54.612 55.132 54.142 50.422 44.912 38.672 32.982
1147.742 28.032 23.982 20.742 18.922 17.162 14.742 13.252 12.412 11.552 10.762
1167.032 10.252 9.852 10.362 10.542 10.752 10.962 10.562 11.192 11.732 11.102
1186.322 10.352 9.722 8.982 8.682 7.882 7.422 8.022 7.642 7.932 8.152
1205.611 7.662 7.652 7.832 8.402 8.382 9.272 10.092 9.892 10.142 10.042
1224.901 10.822 11.852 13.402 15.352 15.802 17.242 19.932 22.152 24.502 27.822
1244.191 31.242 34.422 37.622 40.732 44.282 48.852 55.602 66.002 80.992 100.652
1263.481 123.582 148.262 168.442 176.712 173.302 160.922 144.862 130.722 124.172 130.932
1282.771 153.742 191.632 239.822 286.192 313.082 306.432 264.412 201.372 137.092 86.662
1302.060 55.122 37.902 28.752 23.892 21.062 19.312 18.142 17.492 16.892 16.322
1321.350 15.972 15.652 15.472 15.502 15.472 15.462 15.762 16.292 16.882 17.572
1340.640 18.492 19.562 20.882 22.342 24.232 26.842 30.462 35.412 41.832 50.332
1359.930 61.682 76.412 95.122 117.452 141.612 164.442 182.602 193.432 195.302 189.332
1379.219 178.042 164.142 149.142 133.422 117.002 100.692 86.202 74.702 66.862 62.482
1398.509 61.132 62.092 64.442 67.472 70.852 74.092 76.492 77.782 78.022 77.282
1417.799 75.942 74.202 72.512 71.452 71.522 72.842 76.392 82.852 92.312 105.662
1437.089 124.712 150.722 186.752 236.252 302.672 390.302 502.572 640.492 803.152 977.302
1456.378 1144.13 1289.65 1393.25 1450.63 1462.99 1431.77 1358.63 1246.23 1106.65 953.732
1475.668 803.332 667.222 551.112 453.532 372.682 307.192 256.482 220.182 197.312 186.852
1494.958 187.942 200.322 224.692 263.342 319.422 394.762 489.182 595.032 697.862 780.552
1514.248 824.922 819.992 766.662 674.232 557.762 440.022 334.152 249.782 188.892 147.902
1533.538 121.462 104.252 92.622 83.872 76.832 71.012 66.062 61.842 58.632 56.502
1552.827 54.922 53.552 52.162 50.622 49.122 47.982 47.272 46.972 47.212 47.592
1572.117 48.022 48.692 49.682 51.222 52.812 53.892 54.152 52.942 50.512 47.572
1591.407 44.342 41.612 39.602 38.292 37.842 37.972 38.952 40.642 43.062 46.592
1610.697 50.902 55.942 61.762 68.762 77.002 86.552 98.452 113.812 133.112 157.022
1629.986 185.632 217.062 247.452 272.242 284.202 278.402 255.182 219.632 179.592 142.322
1649.276 112.092 89.572 72.692 60.292 51.372 44.822 40.072 36.442 33.682 31.642
1668.566 29.972 28.962 27.982 26.692 25.172 23.232 21.362 19.632 17.912 16.452
1687.856 15.332 14.342 13.502 12.842 12.172 11.502 10.872 10.282 9.802 9.272
1707.146 9.082 9.142 9.392 9.992 10.672 11.402 12.082 12.552 12.742 12.532
1726.435 11.792 10.742 9.862 9.172 8.592 8.182 7.652 7.172 6.702 6.082
1745.725 5.832 5.732 5.352 5.022 4.762 4.632 4.492 4.272 4.162 4.152
1765.015 4.072 3.982 3.922 3.842 3.822 4.002 4.252 4.502 4.862 5.152
1784.305 5.322 5.382 5.372 5.412 5.282 5.192 5.222 5.162 4.982 4.652
1803.594 4.362 4.172 3.992 3.982 3.902 3.772 3.712 3.662 3.622 3.552
1822.884 3.382 3.402 3.592 3.622 3.802 4.002 4.162 4.252 4.282 4.342
1842.174 4.352 4.372 4.272 4.082 3.942 3.812 3.772 3.812 3.842 3.902
1861.464 3.922 3.942 4.252 4.632 4.862 5.132 5.352 5.382 5.352 5.022
1880.754 4.612 4.232 3.732 3.312 3.092 2.842 2.652 2.592 2.482 2.522
1900.043 2.572 2.622 2.612 2.522 2.492 2.562 2.702 2.872 2.982 3.052
1919.333 3.162 3.312 3.492 3.752 4.082 4.322 4.592 4.962 5.302 5.632
1938.623 5.792 5.812 5.752 5.672 5.632 5.482 5.442 5.402 5.332 5.372
1957.913 5.462 5.472 5.402 5.302 5.172 5.012 4.812 4.712 4.572 4.252
1977.202 4.072 4.012 3.812 3.662 3.562 3.542 3.542 3.532 3.612 3.562
1996.492 3.552 3.622 3.612 3.612 3.682 3.752 3.702 3.622 3.522 3.402
2015.782 3.492 3.532 3.452 3.352 3.312 3.352 3.312 3.372 3.462 3.512
2035.072 3.682 3.922 4.122 4.252 4.332 4.382 4.382 4.192 3.922 3.752
2054.362 3.612 3.502 3.382 3.402 3.492 3.472 3.432 3.322 3.252 3.262
2073.651 3.262 3.382 3.432 3.292 3.222 3.302 3.482 3.562 3.592 3.582
2092.941 3.792 4.022 4.212 4.372 4.542 4.622 4.622 4.662 4.692 4.612
2112.231 4.332 3.902 3.422 3.172 2.882 2.662 2.502 2.412 2.482 2.412
2131.521 2.442 2.492 2.352 2.232 2.322 2.382 2.282 2.242 2.322 2.172
2150.810 2.022 1.882 1.862 2.102 2.172 2.202 2.352 2.502 2.692 2.862
2170.100 3.022 3.182 3.442 3.612 3.552 3.552 3.442 3.262 3.132 3.062
2189.390 2.992 2.802 2.682 2.692 2.802 2.882 2.872 2.902 2.982 3.152
2208.680 3.402 3.712 3.982 4.152 4.262 4.392 4.462 4.432 4.322 4.072
2227.970 3.792 3.352 2.852 2.572 2.412 2.312 2.252 2.072 1.862 1.782
2247.259 1.802 1.882 1.822 1.762 1.852 1.842 1.862 1.932 2.072 2.092
2266.549 1.932 1.872 1.772 1.742 1.892 1.822 1.732 1.722 1.672 1.532
2285.839 1.562 1.622 1.592 1.662 1.632 1.692 1.682 1.692 1.762 1.952
2305.129 2.222 2.342 2.482 2.832 3.032 3.272 3.622 3.762 4.022 4.392
2324.418 4.772 5.132 5.502 5.952 6.392 6.792 7.242 7.532 7.682 7.872
2343.708 8.012 8.082 7.942 7.642 7.412 7.002 6.452 6.102 5.802 5.662
2362.998 5.762 5.752 5.952 6.372 6.592 6.832 7.002 7.062 7.002 7.072
2382.288 7.082 6.782 6.252 5.892 5.742 5.412 5.152 4.982 4.922 5.102
2401.578 5.042 4.882 4.832 4.862 4.952 5.112 5.312 5.502 6.072 6.522
2420.867 6.772 7.282 7.612 7.702 7.692 7.492 6.992 6.172 5.382 4.642
2440.157 4.092 3.732 3.492 3.302 3.242 3.302 3.262 3.152 3.152 3.362
2459.447 3.482 3.622 3.622 3.652 3.752 3.852 3.982 3.992 4.232 4.522
2478.737 4.652 4.792 4.972 5.122 5.252 5.372 5.512 5.602 5.592 5.622
2498.026 5.552 5.502 5.592 5.532 5.562 5.622 5.632 5.522 5.402 5.392
2517.316 5.422 5.242 4.962 4.812 4.752 4.832 4.752 4.592 4.532 4.582
2536.606 4.642 4.672 4.792 5.052 5.202 5.302 5.462 5.522 5.642 5.942
2555.896 6.032 5.842 5.822 5.912 6.202 6.362 6.252 6.492 6.972 7.532
2575.186 7.952 8.332 9.002 9.692 9.972 10.162 10.272 10.172 10.252 10.312
2594.475 10.372 10.612 10.742 10.832 10.722 10.512 10.182 9.432 8.772 8.112
2613.765 7.432 6.882 6.212 5.622 5.222 4.952 4.832 4.802 4.662 4.522
2633.055 4.482 4.332 4.332 4.702 4.812 4.712 4.722 4.822 4.942 4.982
2652.345 4.812 4.532 4.322 4.172 3.802 3.322 3.042 2.772 2.582 2.452
2671.634 2.292 2.342 2.212 2.032 2.092 2.002 1.912 1.792 1.732 1.842
2690.924 1.962 1.992 2.042 2.052 1.902 1.862 2.112 2.322 2.232 2.262
2710.214 2.482 2.472 2.632 2.832 2.762 2.932 3.382 3.432 3.242 3.392
2729.504 3.522 3.412 3.292 3.192 3.052 2.982 2.942 2.932 2.962 3.292
2748.794 3.342 3.132 3.182 3.052 3.012 3.072 3.002 2.872 2.882 2.912
2768.083 2.722 2.552 2.522 2.352 2.202 2.382 2.382 2.272 2.382 2.592
2787.373 2.642 2.632 2.812 2.952 3.012 3.072 3.172 3.272 3.432 3.582
2806.663 3.642 3.752 3.772 3.672 3.522 3.402 3.462 3.302 3.262 3.522
2825.953 3.512 3.362 3.302 3.352 3.402 3.272 3.312 3.372 3.372 3.272
2845.242 3.242 3.202 3.232 3.352 3.262 3.372 3.452 3.612 3.942 4.222
2864.532 4.402 4.562 4.612 4.662 4.732 5.032 5.412 5.592 5.712 6.092
2883.822 6.542 6.632 6.742 7.122 7.392 7.832 8.252 8.702 9.372 10.072
2903.112 10.972 11.972 12.982 14.082 15.552 16.582 17.002 16.912 16.292 15.312
2922.401 13.872 12.432 10.982 9.692 8.802 8.082 7.382 6.732 6.262 5.952
2941.691 5.692 5.662 5.842 6.062 6.632 7.252 7.772 8.612 9.722 11.112
2960.981 12.722 14.632 17.122 20.122 23.252 26.002 27.372 27.102 25.532 23.182
2980.271 20.672 18.622 17.432 16.422 15.702 15.392 14.882 14.502 14.322 13.912
2999.561 13.222 12.142 10.802 9.652 8.592 7.702 6.992 6.322 5.922 5.572
3018.850 5.262 5.112 5.092 5.082 4.752 4.642 4.802 4.422 3.992 3.842
3038.140 4.042 3.962 3.452 3.232 3.052 2.832 2.742 2.702 2.602 2.652
3057.430 2.852 2.752 2.822 2.932 2.902 2.992 3.012 3.102 3.112 3.202
3076.720 3.312 3.352 3.412 3.462 3.402 3.422 3.632 3.512 3.392 3.352
3096.009 3.352 3.182 2.972 3.062 2.972 2.692 2.472 2.472 2.442 2.602
3115.299 2.772 2.662 2.622 2.592 2.522 2.502 2.642 2.672 2.412 2.322
3134.589 2.372 2.382 2.212 2.102 2.152 2.232 2.352 2.212 2.042 2.002
3153.879 2.132 1.962 1.742 1.882 1.842 1.912 1.932 1.862 1.672 1.4727
3173.169 1.642 1.882 1.992 1.762 1.4085 1.4438 1.3735 1.2489 1.2193 0.9247
3192.458 1.0024 1.323 1.4442 1.1622 0.952 1.3008 1.4582 1.3062 1.1849 1.2757
3211.748 1.2189 1.0715 0.942 0.9091 0.9179 0.7694 0.8788 1.0513 0.9967 0.9782
3231.038 0.9396 0.9467 0.935 0.9152 0.9541 0.9564 0.9382 0.833 0.9481 0.9784
3250.328 0.8212 0.8255 0.8222 0.8673 0.9038 1.0619 1.1588 1.1 0.835 0.54918
3269.617 0.6046 0.6508 0.8406 0.9813 0.8753 0.8684 0.6932 0.7139 0.7366 0.6619
3288.907 0.7316 0.7015 0.7841 0.7941 0.9822 0.7166 0.344 0.6411 0.7647 0.57835
3308.197 0.48494 0.6217 0.8754 0.8075 0.459 0.328 0.266 0.212 0.139 0.226
3327.487 0.4501 0.428 0.268 0.348 0.38 0.52014 0.58047 0.51947 0.50893 0.4345
3346.777 0.6291 0.6647 0.5384 0.6064 0.4499 0.4461 0.8043 0.8163 0.4606 0.365
3366.066 0.53621 0.6025 0.663 0.7077 0.7868 0.8468 0.7682 0.58345 0.51415 0.58464
3385.356 0.58426 0.4531 0.179 0.115 0.4269 0.7003 0.7472 0.678 0.6005 0.48735
3404.646 0.407 0.4772 0.51383 0.53304 0.52855 0.397 0.312 0.372 0.51687 0.6615
3423.936 0.4623 0.087 0.147 0.50611 0.6823 0.54258 0.16 0.16 0.38 0.55427
3443.225 0.7856 0.6058 0.39 0.088 0.202 0.51504 0.51139 0.52043 0.50374 0.4415
3462.515 0.344 0.4242 0.51645 0.4407 0.186 0 0.212 0.32 0.353 0.7675
3481.805 0.8048 0.413 0.4414 0.344 0.251 0.4636 0.4465 0.219 0.136 0.4654
3501.095 0.8848 1.044 0.8159 0.57188 0.7507 0.856 0.6304 0.4513 0.52994 0.8274
3520.385 0.8947 0.7088 0.4608 0.57083 0.7943 0.7557 0.6041 0.3976 0.4294 0.50729
3539.674 0.675 0.9149 0.6552 0.6622 0.8348 0.6031 0.6262 0.8835 0.8376 0.7618
3558.964 0.9538 0.8141 0.52373 0.4441 0.56695 0.6396 0.7407 0.7344 0.7365 0.8949
3578.254 0.6987 0.58561 0.8565 0.9512 0.8544 0.9604 1.2125 1.279 1.034 0.8973
3597.544 1.0457 1.0171 0.7802 1.0112 1.2832 1.1967 1.1496 1.0728 1.1035 1.1109
3616.833 0.946 0.8981 0.6926 0.635 0.6194 0.5996 0.8658 0.8797 0.9445 1.0833
3636.123 0.9124 0.6333 0.784 0.9022 0.8406 1.0731 1.2076 1.1826 1.1972 1.361
3655.413 1.592 1.4844 1.3202 1.4725 1.3973 1.2076 1.3338 1.4249 1.2985 1.2074
3674.703 1.1059 1.3816 1.4558 1.2995 1.572 1.532 1.562 1.722 1.742 1.832
3693.993 1.802 1.812 1.702 1.762 2.022 2.082 1.982 1.912 2.002 1.962
3713.282 1.842 1.992 2.242 2.272 2.132 1.932 1.852 1.782 1.862 1.792
3732.572 1.632 1.4743 1.2579 1.4596 1.4811 1.2548 1.1132 1.1857 1.3774 1.3705
3751.862 1.177 1.0314 1.0557 1.3764 1.552 1.692 1.962 1.862 1.842 1.672
3771.152 1.662 1.942 1.992 1.802 1.612 1.692 1.672 1.522 1.712 1.702
3790.441 1.4641 1.4031 1.3214 1.289 1.2563 1.0788 0.9825 1.1579 1.0476 0.9085
3809.731 1.0569 0.7606 0.57462 1.0705 1.2434 1.0496 1.0118 0.9675 0.8197 0.7836
3829.021 0.8418 0.8288 0.8274 0.8191 0.7433 0.58097 0.7267 0.9081 0.9111 0.989
3848.311 0.7961 0.749 0.8801 0.9485 0.8287 0.6269 0.8431 0.9473 0.8147 0.6948
3867.601 0.499685 0.54374 0.6168 0.382 0.4794 0.8812 0.9353 0.92 0.8445 0.6771
3886.890 0.4777 0.4417 0.57568 0.51057 0.4453 0.34 0.294 0.4317 0.4181 0.4292
3906.180 0.55385 0.6612 0.57182 0.58589 0.479 0.53873 0.6294 0.423 0.336 0.33
3925.470 0.4751 0.33 0.296 0.368 0.427 0.296 0.121 0.35 0.4904 0.4451
3944.760 0.244 0.109 0.254 0.50876 0.4642 0.4636 0.6765 0.7214 0.614 0.4038
3964.049 0.52869 0.4819 0.3929 0.4349 0.342 0.255 0.142 0.095 0.199 0.347
3983.339 0.228 0.054 0.09 0.4664 0.6266 0.5961 0.4594 0.265 0.4369 0.6033
##END=
