##TITLE=3-(2,5-Dimethoxyphenyl)propionic acid
##JCAMP-DX=4.24
##DATA TYPE=INFRARED SPECTRUM
##ORIGIN=EPA-IR VAPOR PHASE LIBRARY
##OWNER=SRD/NIST
Collection (C) 2018 copyright by the U.S. Secretary of Commerce
on behalf of the United States of America. All rights reserved.
##CAS REGISTRY NO=10538-49-5
##MOLFORM=C 11 H 14 O 4
##$NIST SOURCE=MSDC-IR
##STATE=gas
##XUNITS=1/CM
##YUNITS=ABSORBANCE
##XFACTOR=1.
##YFACTOR=0.001
##DELTAX=1.92898
##FIRSTX=549.8
##LASTX=4000.7
##FIRSTY=16.974
##MAXX=4000.7
##MINX=549.759
##MAXY=0.146704
##MINY=0
##NPOINTS=1790
##XYDATA=(X++(Y..Y))
549.759 16.974 17.254 17.004 16.524 16.784 16.874 16.784 16.944 17.334 17.384
569.049 17.284 17.704 18.014 18.434 18.714 18.784 19.184 19.084 18.764 18.404
588.339 17.974 17.644 16.784 16.244 15.714 14.944 14.414 14.094 13.804 13.384
607.628 13.134 12.824 12.374 12.034 11.684 11.424 11.484 11.564 11.634 11.744
626.918 11.894 11.944 12.084 12.254 12.234 12.094 11.874 11.674 11.464 11.274
646.208 10.904 10.424 10.054 9.444 8.724 8.474 8.194 7.604 7.404 7.114
665.498 6.754 6.684 6.594 6.564 6.524 6.474 6.504 6.504 6.554 6.804
684.787 7.104 7.544 8.084 8.824 9.574 10.324 11.134 11.864 12.754 13.444
704.077 13.944 14.234 14.044 13.554 12.724 11.874 10.924 9.714 8.844 8.164
723.367 7.464 6.984 6.654 6.264 5.994 6.054 6.104 6.064 6.144 6.144
742.657 6.074 6.064 6.184 6.234 6.064 5.944 5.834 5.664 5.374 5.054
761.947 4.854 4.674 4.584 4.504 4.584 4.714 4.884 5.164 5.514 5.954
781.236 6.394 7.204 8.084 8.984 9.894 10.584 11.364 12.174 12.624 12.974
800.526 13.324 13.404 13.484 13.584 13.274 12.494 11.614 10.494 9.234 7.974
819.816 6.824 5.854 5.124 4.524 3.914 3.644 3.624 3.564 3.494 3.694
839.106 3.964 4.094 4.254 4.604 4.944 5.144 5.414 5.754 5.954 6.124
858.395 6.454 6.684 6.964 7.474 7.904 8.284 8.574 8.604 8.554 8.294
877.685 7.694 7.424 7.024 6.334 6.034 5.894 5.754 5.534 5.354 5.214
896.975 5.014 4.684 4.424 4.184 3.924 3.744 3.614 3.644 3.534 3.404
916.265 3.564 3.784 3.934 3.834 3.914 4.104 4.114 4.244 4.494 4.674
935.555 4.894 5.144 5.334 5.294 5.084 5.044 5.064 5.264 5.284 5.074
954.844 5.104 5.234 5.374 5.534 5.484 5.634 5.894 6.034 6.104 6.324
974.134 6.434 6.394 6.784 7.204 7.444 7.674 8.034 8.334 8.784 9.444
993.424 9.924 10.244 10.514 10.964 11.504 11.954 12.584 13.254 13.774 14.554
1012.714 15.894 17.184 18.334 19.864 22.074 24.254 26.284 28.554 30.784 33.054
1032.003 35.344 38.304 41.904 45.494 49.064 52.914 56.914 60.614 63.134 64.234
1051.293 64.004 62.384 59.334 54.664 49.244 43.424 37.554 32.384 28.404 25.004
1070.583 22.404 21.054 19.954 19.534 19.824 20.234 21.184 23.024 25.294 27.444
1089.873 29.404 31.774 34.614 38.064 41.254 43.804 47.074 51.134 55.044 59.114
1109.163 63.434 67.094 70.074 72.924 75.714 77.164 77.124 75.444 72.804 68.894
1128.452 63.364 58.154 53.464 48.904 44.814 41.484 39.154 37.724 36.244 34.914
1147.742 34.524 34.584 34.564 33.984 33.664 33.264 32.544 31.814 30.964 30.464
1167.032 30.124 30.344 31.084 32.234 33.184 33.764 34.924 35.654 35.574 35.404
1186.322 34.994 34.474 34.334 34.624 34.924 36.234 38.294 40.534 43.824 47.904
1205.611 53.014 59.904 68.544 78.424 90.014 102.774 115.424 127.624 137.984 144.834
1224.901 146.704 143.844 136.664 125.424 111.734 96.754 82.354 69.914 59.734 51.774
1244.191 45.904 41.344 37.694 35.174 33.364 32.154 31.504 31.274 31.264 31.424
1263.481 32.054 32.984 33.924 34.874 35.964 37.034 37.704 38.004 37.954 37.314
1282.771 35.984 34.454 32.854 31.034 29.254 27.824 26.644 25.504 24.384 23.394
1302.060 22.454 21.514 20.494 19.454 18.434 17.494 16.654 15.854 15.154 14.494
1321.350 13.964 13.554 13.234 12.944 12.774 12.664 12.524 12.504 12.514 12.524
1340.640 12.614 12.674 12.724 12.874 13.154 13.404 13.554 13.764 14.064 14.374
1359.930 14.714 15.074 15.474 15.884 16.284 16.774 17.194 17.554 17.824 17.904
1379.219 17.764 17.354 16.784 16.114 15.264 14.344 13.514 12.784 12.264 11.984
1398.509 11.884 12.104 12.674 13.514 14.654 16.004 17.674 19.584 21.354 23.004
1417.799 24.354 25.244 25.734 25.794 25.434 24.914 24.394 23.894 23.504 23.394
1437.089 23.664 24.214 24.884 25.574 26.084 26.384 26.494 26.424 26.274 26.124
1456.378 26.094 26.484 27.454 28.874 30.524 32.134 33.364 34.204 34.784 35.104
1475.668 35.314 35.924 37.374 40.154 44.654 51.104 59.764 70.404 82.484 95.094
1494.958 106.704 115.724 120.414 120.104 114.694 104.734 91.074 75.864 61.264 48.284
1514.248 37.914 29.984 24.024 19.744 16.504 14.054 12.124 10.604 9.454 8.614
1533.538 7.904 7.234 6.794 6.404 6.004 5.674 5.434 5.174 4.954 4.854
1552.827 4.764 4.664 4.634 4.634 4.644 4.674 4.764 4.984 5.294 5.654
1572.117 6.124 6.614 7.144 7.784 8.404 8.934 9.384 9.694 9.854 9.914
1591.407 9.794 9.744 9.624 9.424 9.394 9.514 9.654 9.874 10.064 10.084
1610.697 9.834 9.454 8.894 8.114 7.324 6.514 5.814 5.244 4.734 4.244
1629.986 3.864 3.654 3.474 3.244 3.004 2.864 2.794 2.664 2.624 2.594
1649.276 2.524 2.494 2.394 2.394 2.394 2.324 2.284 2.354 2.414 2.314
1668.566 2.284 2.364 2.434 2.484 2.484 2.484 2.584 2.664 2.674 2.744
1687.856 2.814 2.894 3.044 3.174 3.344 3.574 3.734 3.904 4.134 4.364
1707.146 4.644 4.954 5.344 5.834 6.264 6.824 7.484 8.114 8.864 9.704
1726.435 10.614 11.634 12.814 14.084 15.414 16.854 18.514 20.354 22.224 24.274
1745.725 26.524 28.844 31.314 33.984 36.944 40.194 43.864 48.054 52.884 58.414
1765.015 64.624 71.394 78.274 84.564 89.844 93.434 94.844 93.894 90.414 84.764
1784.305 77.894 70.524 63.204 56.384 50.304 45.024 40.574 36.744 33.334 30.204
1803.594 27.364 24.754 22.334 20.004 17.834 15.894 14.154 12.604 11.294 10.154
1822.884 9.114 8.234 7.524 6.944 6.394 5.864 5.444 5.024 4.664 4.374
1842.174 4.094 3.824 3.604 3.384 3.194 3.084 2.984 2.814 2.634 2.524
1861.464 2.394 2.254 2.174 2.094 1.974 1.844 1.754 1.704 1.674 1.654
1880.754 1.604 1.574 1.564 1.474 1.424 1.414 1.404 1.414 1.394 1.384
1900.043 1.424 1.424 1.364 1.314 1.314 1.394 1.414 1.414 1.364 1.314
1919.333 1.324 1.344 1.374 1.344 1.304 1.304 1.324 1.304 1.294 1.324
1938.623 1.314 1.374 1.484 1.524 1.554 1.594 1.704 1.764 1.784 1.824
1957.913 1.874 1.934 1.964 2.004 2.094 2.134 2.074 2.054 2.094 2.134
1977.202 2.144 2.154 2.194 2.164 2.134 2.124 2.094 2.074 2.114 2.144
1996.492 2.104 2.064 2.054 2.074 2.024 1.984 2.004 2.024 2.014 1.964
2015.782 1.884 1.844 1.834 1.824 1.784 1.774 1.804 1.804 1.824 1.774
2035.072 1.724 1.734 1.754 1.814 1.844 1.784 1.764 1.784 1.844 1.834
2054.362 1.844 1.894 1.874 1.864 1.864 1.874 1.844 1.844 1.844 1.844
2073.651 1.854 1.774 1.674 1.654 1.674 1.694 1.644 1.554 1.484 1.464
2092.941 1.464 1.354 1.254 1.224 1.174 1.184 1.194 1.134 1.1016 1.0788
2112.231 1.0483 1.0789 1.0961 1.078 1.0949 1.0644 1.0228 1.019 1.0713 1.0786
2131.521 1.0426 1.0128 0.9739 0.949 0.9487 0.9378 0.9592 1.0319 1.0922 1.0645
2150.810 1.0296 1.0424 1.0049 0.97 1.0118 1.0764 1.0533 1.0491 1.0415 1.0258
2170.100 1.007 1.0026 1.037 0.98 0.8929 0.9455 0.9692 0.8697 0.9216 1.0305
2189.390 1.0369 0.9921 0.978 0.9867 0.9811 1.0256 1.0575 1.0284 1.0423 1.072
2208.680 1.045 1.0245 1.0535 1.0786 1.0983 1.0781 1.0644 1.0531 1.05 1.0772
2227.970 1.0642 1.0034 1.0147 1.0798 1.0513 1.0605 1.144 1.174 1.204 1.194
2247.259 1.144 1.114 1.0322 1.0062 1.0172 0.9686 0.9679 0.9514 0.9001 0.8946
2266.549 0.8765 0.8379 0.7848 0.7634 0.7753 0.7123 0.7018 0.7858 0.7863 0.7061
2285.839 0.6558 0.6825 0.6752 0.6966 0.7479 0.6768 0.6631 0.704 0.726 0.7526
2305.129 0.7777 0.7723 0.7049 0.733 0.7751 0.7231 0.6932 0.716 0.734 0.7079
2324.418 0.6494 0.6709 0.7296 0.7086 0.7196 0.715 0.6535 0.6746 0.7072 0.6745
2343.708 0.6527 0.6131 0.5401 0.5705 0.6503 0.638 0.6084 0.6303 0.5865 0.4786
2362.998 0.5291 0.6066 0.5761 0.4942 0.512 0.5751 0.5068 0.4866 0.5619 0.6163
2382.288 0.6994 0.691 0.6633 0.6798 0.6504 0.627 0.6236 0.6647 0.62 0.5786
2401.578 0.6216 0.6168 0.6003 0.5879 0.4934 0.471 0.56 0.593 0.5818 0.6317
2420.867 0.6643 0.6583 0.6907 0.7331 0.6873 0.6237 0.6531 0.6729 0.6751 0.7281
2440.157 0.7834 0.7377 0.7375 0.8068 0.773 0.7782 0.8303 0.7785 0.7436 0.8466
2459.447 0.9567 0.92 0.8336 0.8751 1.0159 1.0339 1.0139 1.0558 1.0808 1.134
2478.737 1.134 1.194 1.234 1.184 1.154 1.0927 1.114 1.104 1.084 1.144
2498.026 1.154 1.104 1.0036 0.9531 0.938 0.9183 0.8906 0.8662 0.8884 0.8904
2517.316 0.8991 0.8506 0.7854 0.8279 0.8334 0.7966 0.7885 0.7975 0.8105 0.79
2536.606 0.8074 0.7664 0.661 0.656 0.7427 0.8054 0.7411 0.6173 0.592 0.6502
2555.896 0.6258 0.6077 0.6378 0.6234 0.6151 0.6301 0.568 0.5434 0.5441 0.5313
2575.186 0.6086 0.6595 0.68 0.6747 0.688 0.7219 0.7506 0.7867 0.801 0.7955
2594.475 0.7147 0.6667 0.728 0.7444 0.7588 0.8051 0.7272 0.6781 0.7716 0.8055
2613.765 0.7706 0.7103 0.6704 0.6514 0.6598 0.6469 0.6524 0.6431 0.6529 0.7279
2633.055 0.6816 0.6883 0.7467 0.6572 0.5869 0.6168 0.7406 0.7521 0.7273 0.7629
2652.345 0.6938 0.661 0.7202 0.6694 0.5943 0.599 0.5951 0.5868 0.6201 0.6625
2671.634 0.6849 0.7446 0.7522 0.7127 0.5999 0.5981 0.5951 0.5648 0.5512 0.571
2690.924 0.6028 0.6165 0.6046 0.5779 0.5398 0.636 0.766 0.6474 0.6464 0.6333
2710.214 0.6195 0.7396 0.7747 0.7102 0.6225 0.6411 0.6987 0.6738 0.6113 0.682
2729.504 0.794 0.7392 0.7949 0.8592 0.7665 0.779 0.7739 0.7756 0.8154 0.772
2748.794 0.8155 0.9172 0.9489 0.9498 0.9926 1.0583 1.0717 1.174 1.324 1.294
2768.083 1.254 1.284 1.344 1.444 1.504 1.524 1.644 1.734 1.754 1.904
2787.373 2.044 2.154 2.304 2.434 2.544 2.644 2.864 3.164 3.394 3.534
2806.663 3.804 4.114 4.344 4.714 5.064 5.414 5.844 6.314 6.894 7.704
2825.953 8.794 10.064 11.684 13.664 16.074 18.534 20.464 21.954 22.764 22.714
2845.242 21.894 20.414 18.504 16.614 14.884 13.414 12.404 11.634 11.164 10.784
2864.532 10.574 10.474 10.424 10.334 10.254 10.374 10.284 10.224 10.234 10.114
2883.822 10.074 10.184 10.354 10.534 10.854 11.274 11.924 12.574 13.064 13.994
2903.112 15.044 16.114 17.354 18.574 19.874 21.014 21.924 22.674 23.234 23.694
2922.401 24.154 24.544 24.864 25.574 26.734 28.214 29.874 31.674 33.714 35.704
2941.691 37.614 39.214 40.044 40.244 40.004 39.104 37.544 35.384 33.044 30.654
2960.981 28.124 25.814 23.614 21.774 20.334 19.084 18.034 17.194 16.684 16.424
2980.271 16.244 16.204 16.384 16.724 17.334 18.304 19.684 21.494 23.474 25.534
2999.561 27.404 28.444 28.474 27.504 25.704 23.154 20.164 17.074 14.254 12.154
3018.850 10.604 9.454 8.734 8.304 8.134 8.024 8.024 8.074 8.064 8.024
3038.140 7.974 7.954 7.774 7.454 7.214 6.954 6.664 6.464 6.264 6.114
3057.430 6.134 6.134 6.164 6.194 6.104 6.074 5.974 5.914 5.874 5.664
3076.720 5.504 5.274 5.114 5.174 4.944 4.584 4.344 4.084 3.914 3.724
3096.009 3.554 3.354 3.164 3.044 2.914 2.774 2.564 2.474 2.524 2.404
3115.299 2.234 2.094 2.034 2.034 1.884 1.784 1.744 1.684 1.564 1.484
3134.589 1.474 1.374 1.234 1.234 1.0418 0.847 1.0104 1.134 1.0474 0.7983
3153.879 0.7496 0.7924 0.772 0.9631 0.9536 0.8185 0.7287 0.7114 0.7148 0.6377
3173.169 0.5783 0.5563 0.5137 0.4446 0.3592 0.4322 0.5332 0.4569 0.5066 0.5687
3192.458 0.4603 0.379 0.2896 0.3081 0.3984 0.3535 0.4425 0.4393 0.4246 0.4659
3211.748 0.3992 0.3915 0.4807 0.5426 0.3814 0.3075 0.3934 0.483 0.4456 0.4678
3231.038 0.5047 0.4046 0.3074 0.2759 0.2561 0.16668 0.13172 0.14874 0.15119 0.19769
3250.328 0.272 0.2208 0.16337 0.2464 0.2575 0.2824 0.2146 0.14395 0.19041 0.18614
3269.617 0.302 0.3878 0.2963 0.204 0.0934 0.0207 0.12373 0.103665 0.0191 0.0711
3288.907 0.0691 0.0584 0.13291 0.15264 0.12758 0.14494 0.0837 0.13516 0.3413 0.2867
3308.197 0.14181 0.10337 0.09437 0.0377 0.0666 0.13755 0.19236 0.2524 0.3201 0.2727
3327.487 0.17701 0.17476 0.2644 0.14403 0.0183 0.12292 0.11516 0.06 0.0674 0.18803
3346.777 0.20185 0.2206 0.2336 0.2366 0.3056 0.17858 0.0202 0.057 0.0855 0.15951
3366.066 0.16133 0.11575 0.2814 0.2483 0.19005 0.2857 0.18464 0.19336 0.3755 0.3974
3385.356 0.3841 0.3731 0.4046 0.2974 0.1892 0.2523 0.18929 0.19207 0.2186 0.1823
3404.646 0.13294 0.086 0.0654 0.17462 0.2964 0.2691 0.2359 0.281 0.3335 0.39
3423.936 0.3922 0.2958 0.2878 0.3707 0.3418 0.271 0.2893 0.3316 0.2704 0.3094
3443.225 0.3909 0.3254 0.3238 0.3064 0.3081 0.3607 0.3963 0.361 0.3748 0.3644
3462.515 0.3585 0.4703 0.4953 0.4727 0.3376 0.2838 0.4091 0.516 0.4949 0.4838
3481.805 0.4982 0.4813 0.42 0.3587 0.4313 0.5669 0.624 0.493 0.5627 0.6799
3501.095 0.6396 0.7928 0.9976 1.0796 1.144 1.294 1.114 0.9648 1.174 1.264
3520.385 1.254 1.284 1.544 1.744 1.724 1.674 1.914 2.094 2.064 1.994
3539.674 2.114 2.304 2.414 2.724 3.104 3.424 3.674 3.904 4.364 5.014
3558.964 5.974 7.784 10.444 14.534 20.494 28.024 35.404 40.034 41.814 41.284
3578.254 38.034 32.164 24.284 16.614 11.284 8.084 6.054 4.754 3.954 3.554
3597.544 3.204 2.794 2.524 2.144 1.884 1.784 1.584 1.434 1.304 1.244
3616.833 1.174 1.064 1.0155 1.0907 1.0014 0.921 0.9497 0.8183 0.7475 0.7324
3636.123 0.6234 0.6052 0.5915 0.599 0.5792 0.5389 0.4943 0.2935 0.2677 0.374
3655.413 0.3294 0.2729 0.3674 0.4302 0.3227 0.2097 0.2573 0.2909 0.2985 0.20242
3674.703 0.147 0.2398 0.109464 0.0629 0.2141 0.14179 0.09586 0.2553 0.2298 0.16183
3693.993 0.2072 0.2048 0.20156 0.3076 0.4957 0.4985 0.3688 0.2481 0.13563 0.0641
3713.282 0.15186 0.2941 0.2868 0.2236 0.18777 0.18809 0.1873 0.3377 0.4134 0.3261
3732.572 0.3482 0.15978 0.0144 0.2457 0.3873 0.2355 0.12585 0.2547 0.4267 0.3891
3751.862 0.2513 0.2139 0.2352 0.3012 0.2881 0.1985 0.15845 0.09481 0.18517 0.1495
3771.152 0.14853 0.2569 0.0854 0.103154 0.2205 0.2356 0.2423 0.2171 0.2366 0.2933
3790.441 0.17363 0.104539 0.2047 0.2764 0.3007 0.231 0.0683 0 0.11563 0.17938
3809.731 0.15662 0.2282 0.11311 0.0641 0.15298 0.2152 0.18673 0.14071 0.2226 0.18772
3829.021 0.17004 0.3115 0.3339 0.2341 0.18081 0.2099 0.15183 0.13378 0.2963 0.2332
3848.311 0.11519 0.2077 0.4593 0.4469 0.17407 0.1692 0.3879 0.4154 0.3703 0.3261
3867.601 0.3217 0.3106 0.15895 0.1246 0.2305 0.2638 0.3625 0.3851 0.3413 0.3921
3886.890 0.2954 0.14626 0.0546 0.13011 0.2867 0.3061 0.2959 0.2516 0.2611 0.2107
3906.180 0.0876 0.0348 0.0644 0.2702 0.2299 0.2764 0.3136 0.33 0.3872 0.3312
3925.470 0.3537 0.3605 0.3404 0.2196 0.2716 0.3555 0.3941 0.4565 0.4893 0.5166
3944.760 0.4687 0.5025 0.6177 0.5461 0.5641 0.6315 0.5191 0.5287 0.5748 0.5449
3964.049 0.4313 0.2213 0.2615 0.3915 0.351 0.4637 0.4444 0.4857 0.4731 0.3133
3983.339 0.406 0.5042 0.467 0.3199 0.2117 0.238 0.4648 0.438 0.4092 0.575
##END=
