##TITLE=4,4'-Diisocyanato-3,3',5,5'-tetraethyldiphenylmethane
##JCAMP-DX=4.24
##DATA TYPE=INFRARED SPECTRUM
##ORIGIN=EPA-IR VAPOR PHASE LIBRARY
##OWNER=SRD/NIST
Collection (C) 2018 copyright by the U.S. Secretary of Commerce
on behalf of the United States of America. All rights reserved.
##CAS REGISTRY NO=105442-35-1
##MOLFORM=C 23 H 26 N 2 O 2
##$NIST SOURCE=MSDC-IR
##STATE=gas
##XUNITS=1/CM
##YUNITS=ABSORBANCE
##XFACTOR=1.
##YFACTOR=0.001
##DELTAX=1.92934
##FIRSTX=549.9
##LASTX=3999.5
##FIRSTY=4.81
##MAXX=3999.53
##MINX=549.863
##MAXY=0.9025
##MINY=0
##NPOINTS=1789
##XYDATA=(X++(Y..Y))
549.863 4.81 5.14 5.47 6.01 6.79 7.59 8.42 9.34 10.24 11.33
569.156 12.48 13.58 14.72 15.71 16.64 17.47 18.14 18.77 19.29 19.6
588.450 19.82 19.76 19.28 18.63 17.87 16.91 15.88 14.79 13.65 12.62
607.743 11.72 11.03 10.36 9.69 9.12 8.66 8.24 7.85 7.48 7.09
627.037 6.75 6.41 6.1 5.85 5.58 5.27 5.03 4.83 4.67 4.5369
646.330 4.3684 4.2005 4.0637 3.9756 3.9026 3.7676 3.65272 3.5594 3.492 3.485
665.624 3.449 3.416 3.361 3.358 3.377 3.352 3.345 3.367 3.36 3.329
684.917 3.316 3.336 3.308 3.271 3.34 3.419 3.445 3.438 3.446 3.508
704.210 3.528 3.522 3.5671 3.6349 3.73131 3.7881 3.8531 3.9861 4.1069 4.2348
723.504 4.3709 4.5221 4.67 4.88 5.19 5.5 5.82 6.17 6.51 6.86
742.797 7.23 7.7 8.19 8.62 9.07 9.45 9.63 9.56 9.2 8.62
762.091 7.87 7.02 6.21 5.53 5.05 4.71 4.5366 4.458 4.4361 4.516
781.384 4.67 4.9 5.19 5.52 5.9 6.23 6.34 6.19 5.8 5.3
800.678 4.8 4.3293 3.9113 3.511 3.168 2.848 2.669 2.63 2.48 2.3
819.971 2.21 2.18 2.17 2.25 2.4 2.58 2.78 3.059 3.456 4.0201
839.264 4.76 5.63 6.64 7.83 9.12 10.44 11.67 12.69 13.35 13.63
858.558 13.62 13.42 13.22 13.16 13.22 13.51 14.06 14.71 15.37 15.93
877.851 16.16 15.88 15.05 13.68 12 10.23 8.51 6.98 5.75 4.82
897.145 4.0992 3.502 3.118 2.847 2.63 2.48 2.38 2.31 2.24 2.16
916.438 2.12 2.14 2.19 2.29 2.45 2.673 3.032 3.49 4.0171 4.4122
935.732 4.5627 4.5134 4.2653 3.8532 3.366 2.932 2.55 2.22 2.01 1.83
955.025 1.66 1.56 1.47 1.41 1.4 1.39 1.4 1.38 1.39 1.46
974.318 1.49 1.5 1.58 1.68 1.76 1.85 1.98 2.15 2.36 2.59
993.612 2.781 2.872 2.85 2.781 2.707 2.662 2.677 2.707 2.761 2.826
1012.905 2.861 2.877 2.839 2.765 2.73 2.704 2.64 2.59 2.58 2.58
1032.199 2.63 2.72 2.826 2.985 3.205 3.462 3.7973 4.2401 4.81 5.52
1051.492 6.36 7.28 8.35 9.54 10.74 11.9 13.03 14.16 15.48 17.15
1070.786 19.29 22.11 25.72 30.08 35.12 40.41 45.15 48.28 48.75 46.22
1090.079 41.19 34.92 28.7 23.38 19.2 15.98 13.56 11.73 10.3 9.21
1109.372 8.36 7.68 7.17 6.81 6.51 6.27 6.1 6.01 5.96 5.97
1128.666 5.97 5.95 6 5.99 5.96 5.9 5.77 5.65 5.49 5.29
1147.959 5.07 4.87 4.71 4.4939 4.2698 4.1538 4.1053 4.0866 4.159 4.4001
1167.253 4.85 5.5 6.39 7.53 8.76 9.87 10.61 10.81 10.43 9.65
1186.546 8.73 7.82 6.97 6.27 5.66 5.13 4.73 4.4009 4.1112 3.8869
1205.840 3.71686 3.5785 3.511 3.467 3.405 3.381 3.377 3.414 3.477 3.535
1225.133 3.6106 3.72896 3.8504 3.9835 4.1634 4.3608 4.6345 4.96 5.38 5.95
1244.426 6.59 7.28 7.93 8.5 8.91 9.16 9.27 9.25 9.17 9
1263.720 8.71 8.32 7.91 7.5 7.11 6.75 6.49 6.28 6.07 5.91
1283.013 5.85 5.83 5.86 5.97 6.08 6.25 6.47 6.71 7 7.37
1302.307 7.81 8.32 8.84 9.36 9.86 10.25 10.57 10.77 10.75 10.57
1321.600 10.22 9.71 9.08 8.47 7.92 7.48 7.17 6.88 6.55 6.23
1340.894 5.91 5.58 5.27 4.96 4.66 4.444 4.265 4.1376 4.0811 4.0332
1360.187 4.0269 4.0816 4.1813 4.3371 4.6071 4.97 5.44 6.06 6.74 7.4
1379.480 7.95 8.25 8.19 7.87 7.34 6.77 6.3 5.93 5.71 5.59
1398.774 5.57 5.64 5.76 6.01 6.35 6.8 7.41 8.15 9.1 10.24
1418.067 11.48 12.97 14.61 16.33 18.08 19.76 21.37 22.77 23.86 24.61
1437.361 25.06 25.24 25.16 24.85 24.46 24.02 23.62 23.48 23.7 24.29
1456.654 25.32 26.57 27.71 28.59 29.06 29.03 28.42 27.32 25.89 24.48
1475.948 23.5 23.03 23.04 23.52 24.53 26.01 27.89 30.2 32.97 36
1495.241 39.18 42.4 45.07 46.82 47.26 46.12 43.38 39.58 35.22 30.63
1514.534 26.26 22.31 18.96 16.13 13.7 11.82 10.27 9.02 8.08 7.34
1533.828 6.71 6.19 5.74 5.41 5.18 5.01 4.87 4.72 4.6481 4.6272
1553.121 4.647 4.68 4.7 4.77 4.94 5.15 5.36 5.59 5.88 6.23
1572.415 6.57 6.89 7.2 7.43 7.56 7.62 7.59 7.49 7.35 7.28
1591.708 7.31 7.38 7.45 7.52 7.53 7.38 7.08 6.57 5.97 5.41
1611.002 4.9 4.4996 4.2058 3.9634 3.8161 3.67638 3.532 3.476 3.432 3.306
1630.295 3.203 3.113 3.005 2.904 2.789 2.677 2.59 2.51 2.42 2.35
1649.588 2.26 2.17 2.1 2.04 1.99 1.96 1.93 1.89 1.85 1.78
1668.882 1.75 1.76 1.74 1.72 1.71 1.7 1.71 1.72 1.69 1.66
1688.175 1.65 1.66 1.65 1.63 1.67 1.69 1.66 1.65 1.71 1.73
1707.469 1.73 1.77 1.78 1.8 1.85 1.91 2 2.04 2.08 2.15
1726.762 2.23 2.35 2.45 2.57 2.716 2.849 2.963 3.071 3.107 3.108
1746.056 3.099 3.075 3.056 3.05 3.075 3.097 3.131 3.192 3.292 3.386
1765.349 3.407 3.4 3.39 3.355 3.326 3.282 3.177 3.054 2.899 2.725
1784.642 2.57 2.42 2.31 2.22 2.16 2.13 2.09 2.04 2.03 2.05
1803.936 2.06 2.07 2.08 2.07 2.06 2.07 2.08 2.06 2.06 2.05
1823.229 2.04 2.02 2.01 1.98 1.96 1.96 1.92 1.89 1.89 1.9
1842.523 1.9 1.91 1.92 1.87 1.86 1.88 1.87 1.89 1.89 1.87
1861.816 1.87 1.84 1.82 1.83 1.8 1.8 1.82 1.81 1.78 1.76
1881.110 1.75 1.72 1.72 1.72 1.69 1.67 1.68 1.67 1.68 1.69
1900.403 1.67 1.7 1.7 1.68 1.71 1.73 1.7 1.68 1.7 1.72
1919.696 1.72 1.72 1.73 1.76 1.77 1.76 1.76 1.78 1.81 1.81
1938.990 1.79 1.81 1.83 1.82 1.82 1.81 1.82 1.84 1.8 1.81
1958.283 1.86 1.86 1.87 1.87 1.86 1.86 1.83 1.85 1.89 1.9
1977.577 1.91 1.92 1.94 1.98 2 2 2.02 2.05 2.05 2.07
1996.870 2.11 2.13 2.13 2.16 2.2 2.22 2.24 2.25 2.29 2.33
2016.164 2.34 2.36 2.42 2.45 2.47 2.51 2.54 2.57 2.62 2.664
2035.457 2.695 2.757 2.825 2.876 2.947 3.006 3.057 3.155 3.21 3.254
2054.750 3.319 3.38 3.476 3.558 3.5958 3.6352 3.74854 3.8668 3.9139 3.93
2074.044 3.9886 4.0978 4.2296 4.3627 4.4807 4.6297 4.78 4.93 5.09 5.28
2093.337 5.51 5.71 5.93 6.15 6.37 6.62 6.89 7.16 7.41 7.69
2112.631 8.01 8.3 8.56 8.9 9.27 9.61 9.95 10.29 10.62 10.94
2131.924 11.29 11.66 12.02 12.38 12.74 13.12 13.52 13.89 14.31 14.81
2151.218 15.34 15.86 16.43 17.04 17.7 18.4 19.11 19.87 20.68 21.55
2170.511 22.4 23.25 24.19 25.17 26.14 27.12 28.16 29.29 30.5 31.8
2189.804 33.23 34.79 36.52 38.46 40.59 42.92 45.46 48.2 51.14 54.26
2209.098 57.51 60.88 64.37 67.9 71.45 75 78.56 82.13 85.7 89.33
2228.391 93.06 96.88 100.86 105.02 109.38 113.98 118.87 124.2 130.05 136.51
2247.685 143.78 152.06 161.6 172.62 185.47 200.5 218.08 238.74 263.03 291.4
2266.978 324.39 362.58 406.54 456.49 512.59 574.51 640.92 709.55 776.4 835.67
2286.272 880.08 902.5 898.45 867.43 813.75 745.11 669.37 593.14 520.93 455.12
2305.565 396.65 345.48 301.06 262.8 229.99 201.98 178.23 158.14 141.14 126.77
2324.858 114.63 104.36 95.62 88.19 81.9 76.59 72.1 68.37 65.28 62.76
2344.152 60.68 59 57.71 56.71 55.97 55.5 55.24 55.08 54.98 54.92
2363.445 54.84 54.62 54.2 53.52 52.54 51.25 49.64 47.78 45.72 43.52
2382.739 41.2 38.85 36.55 34.3 32.17 30.15 28.26 26.52 24.9 23.42
2402.032 22.07 20.79 19.59 18.52 17.48 16.51 15.62 14.78 14.01 13.32
2421.326 12.64 11.99 11.41 10.94 10.44 9.94 9.52 9.12 8.72 8.39
2440.619 8.07 7.72 7.42 7.11 6.82 6.56 6.35 6.13 5.9 5.71
2459.912 5.56 5.4 5.23 5.03 4.91 4.82 4.67 4.5397 4.431 4.3103
2479.206 4.1875 4.0655 3.9683 3.876 3.7706 3.69173 3.6314 3.5748 3.475 3.372
2498.499 3.312 3.267 3.203 3.137 3.104 3.071 3.043 2.996 2.987 2.983
2517.793 2.935 2.901 2.871 2.827 2.792 2.774 2.763 2.767 2.756 2.72
2537.086 2.681 2.665 2.655 2.63 2.61 2.61 2.63 2.63 2.62 2.63
2556.380 2.63 2.62 2.63 2.64 2.651 2.685 2.701 2.729 2.764 2.787
2575.673 2.783 2.812 2.821 2.761 2.745 2.791 2.831 2.833 2.791 2.728
2594.966 2.745 2.753 2.682 2.662 2.682 2.64 2.62 2.6 2.57 2.57
2614.260 2.57 2.6 2.62 2.59 2.6 2.61 2.65 2.689 2.697 2.745
2633.553 2.747 2.764 2.798 2.8 2.847 2.859 2.823 2.784 2.809 2.81
2652.847 2.752 2.755 2.737 2.721 2.709 2.688 2.673 2.652 2.695 2.692
2672.140 2.61 2.6 2.61 2.651 2.715 2.697 2.683 2.681 2.71 2.722
2691.434 2.706 2.755 2.805 2.844 2.9 2.949 3.037 3.107 3.168 3.282
2710.727 3.329 3.378 3.462 3.521 3.5704 3.584 3.6117 3.6277 3.625 3.65377
2730.020 3.67426 3.71032 3.7739 3.8461 3.9031 3.9203 3.9039 3.9132 3.8728 3.70203
2749.314 3.5893 3.541 3.486 3.478 3.454 3.388 3.372 3.35 3.327 3.342
2768.607 3.37 3.378 3.438 3.52 3.542 3.537 3.5673 3.5849 3.6166 3.639
2787.901 3.69166 3.766 3.7789 3.7741 3.7949 3.8281 3.9071 4.0086 4.0188 4.0511
2807.194 4.0926 4.1357 4.2171 4.3174 4.4604 4.6447 4.78 4.91 5.11 5.33
2826.488 5.58 5.95 6.24 6.59 7.06 7.46 7.95 8.52 9.08 9.6
2845.781 10.02 10.42 10.82 11.21 11.59 12.06 12.59 13.19 13.93 14.86
2865.074 16.07 17.47 19.2 21.3 23.74 26.45 29.34 32.29 34.93 37.02
2884.368 38.27 38.56 37.95 36.68 35.02 33.22 31.57 30.31 29.48 29.18
2903.661 29.46 29.97 30.82 31.82 32.7 33.53 34.26 34.82 35.24 35.71
2922.955 36.28 36.94 37.94 39.41 41.3 43.74 46.78 50.43 54.41 57.9
2942.248 60.47 61.69 61.2 59.19 56.09 52.52 49.07 46.35 44.94 45.04
2961.542 46.97 51.18 58.12 68.08 81.27 97.04 112.33 122.33 122.96 114.04
2980.835 98.96 82.21 66.9 54.39 44.9 38.03 33.22 29.85 27.35 25.45
3000.128 24.14 23.22 22.51 22 21.44 20.83 20.3 19.67 19.01 18.39
3019.422 17.69 17.03 16.47 15.98 15.49 15.11 14.82 14.55 14.25 14.02
3038.715 13.85 13.54 13.13 12.58 11.95 11.28 10.58 9.8 9.04 8.3
3058.009 7.55 6.89 6.32 5.84 5.43 5.07 4.72 4.3306 4.0615 3.8688
3077.302 3.5957 3.37 3.269 3.129 2.984 2.891 2.766 2.678 2.61 2.56
3096.596 2.57 2.5 2.49 2.51 2.35 2.29 2.31 2.25 2.18 2.08
3115.889 2.03 2 1.94 1.92 1.89 1.74 1.73 1.72 1.65 1.66
3135.182 1.66 1.63 1.58 1.5 1.53 1.64 1.5 1.37 1.32 1.27
3154.476 1.29 1.33 1.29 1.22 1.21 1.14 1.07 1.03 0.92 0.82
3173.769 0.82 0.87 0.81 0.73 0.64 0.56 0.54 0.45 0.38 0.39
3193.063 0.36 0.32 0.27 0.28 0.32 0.3 0.31 0.35 0.36 0.37
3212.356 0.35 0.29 0.22 0.23 0.3 0.28 0.3 0.3 0.23 0.26
3231.650 0.22 0.23 0.2 0.1 0.14 0.11 0.1 0.13 0.15 0.15
3250.943 0.15 0.18 0.15 0.13 0.13 0.13 0.16 0.17 0.26 0.24
3270.236 0.15 0.2 0.2 0.1 0 0.03 0.09 0.11 0.12 0.18
3289.530 0.22 0.22 0.22 0.18 0.29 0.34 0.28 0.37 0.5 0.48
3308.823 0.41 0.46 0.54 0.57 0.57 0.64 0.77 0.83 0.85 0.98
3328.117 1.06 1.13 1.25 1.28 1.37 1.47 1.57 1.73 1.95 2.04
3347.410 2.08 2.21 2.34 2.49 2.715 2.916 3.006 3.165 3.361 3.523
3366.704 3.69667 3.74762 3.67925 3.70421 3.7581 3.8167 3.8238 3.67494 3.512 3.443
3385.997 3.415 3.32 3.216 3.139 2.988 2.924 2.902 2.758 2.6 2.55
3405.290 2.48 2.41 2.45 2.44 2.29 2.18 2.23 2.21 2.12 1.99
3424.584 1.92 1.95 1.87 1.87 1.93 1.91 1.85 1.82 1.92 1.88
3443.877 1.85 1.88 1.87 1.96 2.04 2.14 2.21 2.25 2.31 2.34
3463.171 2.36 2.32 2.35 2.43 2.39 2.34 2.27 2.18 2.17 2.12
3482.464 2.08 2.07 1.98 1.9 1.82 1.72 1.71 1.7 1.67 1.62
3501.758 1.55 1.58 1.58 1.57 1.59 1.51 1.49 1.62 1.7 1.8
3521.051 1.9 1.82 1.72 1.79 1.91 2 2.07 1.99 1.88 1.9
3540.344 1.96 1.95 2.04 2.23 2.16 2.06 2.12 2.13 2.1 2.06
3559.638 1.99 1.96 2.03 2.08 2.08 2.1 2.1 2.07 2.04 2.07
3578.931 2.11 2.12 2.15 2.19 2.2 2.17 2.15 2.14 2.1 2.11
3598.225 2.22 2.23 2.13 2.11 2.2 2.23 2.21 2.28 2.35 2.4
3617.518 2.46 2.46 2.53 2.55 2.52 2.51 2.57 2.659 2.62 2.61
3636.812 2.64 2.672 2.716 2.746 2.763 2.833 2.908 2.971 3.037 3.088
3656.105 3.167 3.223 3.249 3.27 3.28 3.384 3.545 3.5911 3.67222 3.7758
3675.398 3.7757 3.8078 3.8995 4.0073 4.0868 4.1644 4.2564 4.4202 4.5568 4.5398
3694.692 4.71 4.91 4.97 5.09 5.16 5.17 5.29 5.37 5.34 5.35
3713.985 5.34 5.3 5.26 5.16 5.02 4.93 4.82 4.68 4.5975 4.4759
3733.279 4.2822 4.2214 4.153 4.0408 3.873 3.73117 3.72546 3.67489 3.625 3.6178
3752.572 3.6018 3.528 3.504 3.5565 3.5615 3.535 3.507 3.482 3.5672 3.72289
3771.866 3.73927 3.8289 3.9401 3.8978 3.9435 4.0002 4.0436 4.1061 4.1307 4.1467
3791.159 4.2145 4.272 4.223 4.1537 4.1099 4.0082 3.9346 3.8773 3.7936 3.71985
3810.452 3.65172 3.6238 3.495 3.356 3.253 3.178 3.154 3.044 2.957 2.909
3829.746 2.814 2.76 2.737 2.679 2.63 2.63 2.63 2.58 2.57 2.6
3849.039 2.55 2.49 2.46 2.48 2.45 2.39 2.37 2.36 2.34 2.35
3868.333 2.39 2.39 2.32 2.32 2.32 2.3 2.33 2.31 2.3 2.34
3887.626 2.3 2.29 2.25 2.26 2.25 2.14 2.15 2.15 2.13 2.1
3906.920 2.13 2.15 2.11 2.08 2.07 2.09 2.1 2.11 2.12 2.1
3926.213 2.08 2.09 2.14 2.13 2.15 2.18 2.18 2.24 2.27 2.23
3945.506 2.17 2.18 2.19 2.16 2.21 2.3 2.28 2.23 2.24 2.22
3964.800 2.25 2.22 2.22 2.23 2.18 2.21 2.22 2.16 2.15 2.2
3984.093 2.23 2.23 2.22 2.27 2.3 2.26 2.26 2.25 2.29
##END=
