##TITLE=1,4-Benzoquinone
##JCAMP-DX=4.24
##DATA TYPE=INFRARED SPECTRUM
##ORIGIN=NIST Mass Spectrometry Data Center
##OWNER=NIST Standard Reference Data Program
Collection (C) 2018 copyright by the U.S. Secretary of Commerce
on behalf of the United States of America. All rights reserved.
##CAS REGISTRY NO=106-51-4
##MOLFORM=C 6 H 4 O 2
##$NIST SOURCE=MSDC-IR
##SPECTROMETER/DATA SYSTEM=HP-GC/MS/IRD
##STATE=gas
##XUNITS=1/CM
##YUNITS=ABSORBANCE
##XFACTOR=1.0
##YFACTOR=0.000003200
##DELTAX=4.0
##FIRSTX=550.0
##LASTX=3846.0
##FIRSTY=0.000118
##MAXX=3846
##MINX=550
##MAXY=0.032
##MINY=0
##NPOINTS=825
##XYDATA=(X++(Y..Y))
550.0 37 34 40 35 21 27 17 3 21 21
590.0 12 22 14 13 13 10 22 30 39 25
630.0 9 15 25 37 31 16 19 31 37 35
670.0 32 33 26 36 38 28 32 30 28 29
710.0 36 38 38 32 32 29 12 21 31 26
750.0 27 28 34 43 40 30 32 36 25 15
790.0 16 19 17 26 28 34 39 24 29 48
830.0 65 82 121 186 290 458 688 969 1276 1569
870.0 1891 2393 3005 3070 2455 1996 1777 1475 1105 755
910.0 486 311 217 176 187 247 335 384 395 413
950.0 418 378 266 142 65 37 33 35 36 26
990.0 17 17 18 11 9 19 25 31 42 75
1030.0 135 231 376 581 864 1224 1520 1471 1234 1326
1070.0 1461 1210 831 543 360 243 162 110 84 72
1110.0 65 65 69 70 66 62 47 37 36 40
1150.0 47 50 50 47 48 56 55 53 48 43
1190.0 49 55 58 56 57 70 76 69 68 75
1230.0 80 78 81 95 118 148 186 245 345 499
1270.0 705 974 1312 1681 1987 2158 2220 2280 2330 2194
1310.0 1840 1435 1105 873 694 545 455 422 439 465
1350.0 451 429 397 345 265 166 95 60 47 42
1390.0 39 39 36 32 28 29 30 26 26 27
1430.0 24 22 19 19 17 17 20 21 32 38
1470.0 43 51 49 51 52 57 69 77 93 114
1510.0 126 130 131 123 113 100 85 77 75 78
1550.0 82 99 126 159 201 261 345 436 505 523
1590.0 505 540 588 552 459 389 358 355 384 449
1630.0 558 734 1011 1370 1741 2132 2745 3717 5195 7135
1670.0 8932 9770 10000 9787 9194 7816 5198 3055 2086 1658
1710.0 1376 1129 888 653 485 408 415 486 574 647
1750.0 679 683 661 595 480 355 267 215 173 144
1790.0 120 101 92 82 74 71 66 57 49 46
1830.0 45 44 42 38 39 47 54 62 72 78
1870.0 86 83 76 74 63 53 48 41 31 28
1910.0 28 24 24 27 31 33 35 38 41 41
1950.0 41 47 53 56 56 51 47 47 45 43
1990.0 39 30 29 26 19 17 24 23 22 23
2030.0 25 31 36 35 33 32 30 28 24 23
2070.0 22 19 20 24 26 28 32 34 34 38
2110.0 41 40 38 41 41 35 32 32 33 35
2150.0 34 32 28 26 23 24 25 24 28 30
2190.0 31 31 33 37 35 33 40 36 25 22
2230.0 17 14 16 18 19 22 17 12 13 13
2270.0 16 16 18 19 19 20 18 17 19 21
2310.0 22 19 22 29 32 30 28 29 29 25
2350.0 25 23 16 16 15 12 12 10 13 19
2390.0 17 16 16 14 10 13 16 18 26 32
2430.0 28 26 29 28 33 32 25 20 17 17
2470.0 20 16 15 21 23 20 19 19 21 21
2510.0 18 19 15 15 23 23 22 24 25 29
2550.0 38 42 34 31 32 33 33 28 26 24
2590.0 22 22 21 16 11 15 17 14 16 15
2630.0 17 17 15 14 9 10 14 14 11 14
2670.0 16 17 15 14 17 15 12 8 8 9
2710.0 15 20 16 14 16 17 15 12 17 19
2750.0 16 14 17 18 9 5 7 15 15 13
2790.0 15 18 17 16 28 30 29 36 38 38
2830.0 31 23 18 10 11 21 21 16 12 8
2870.0 6 1 0 8 10 12 15 17 21 23
2910.0 19 15 11 5 2 0 1 5 10 11
2950.0 12 17 18 16 17 23 14 14 22 23
2990.0 20 15 14 16 13 14 20 19 24 30
3030.0 36 50 66 86 113 146 184 217 237 254
3070.0 265 244 207 172 118 65 42 32 22 16
3110.0 20 20 12 12 10 11 14 12 17 23
3150.0 19 13 12 13 18 17 15 20 27 26
3190.0 19 15 19 27 29 25 29 30 32 31
3230.0 23 24 20 27 33 32 37 42 60 75
3270.0 82 98 112 118 120 121 123 121 121 127
3310.0 135 143 163 193 218 243 265 266 260 248
3350.0 233 207 172 143 131 115 92 74 61 50
3390.0 45 39 31 33 33 26 22 20 21 21
3430.0 18 14 12 19 18 10 22 26 11 10
3470.0 16 11 4 9 14 16 28 29 19 15
3510.0 14 17 23 18 15 21 24 21 22 23
3550.0 23 24 28 27 15 19 20 13 14 14
3590.0 11 12 12 19 20 9 9 20 25 21
3630.0 17 20 19 17 15 13 18 20 23 30
3670.0 26 23 25 27 26 17 16 20 15 21
3710.0 26 21 22 27 22 27 28 5 5 13
3750.0 15 17 11 4 10 10 19 29 23 22
3790.0 15 11 15 16 17 21 20 20 22 18
3830.0 10 6 9 8 8
##END=
