##TITLE=4-Hydroxy-1-methylpiperidine
##JCAMP-DX=4.24
##DATA TYPE=INFRARED SPECTRUM
##ORIGIN=EPA-IR VAPOR PHASE LIBRARY
##OWNER=SRD/NIST
Collection (C) 2018 copyright by the U.S. Secretary of Commerce
on behalf of the United States of America. All rights reserved.
##CAS REGISTRY NO=106-52-5
##MOLFORM=C 6 H 13 N O
##$NIST SOURCE=MSDC-IR
##STATE=gas
##XUNITS=1/CM
##YUNITS=ABSORBANCE
##XFACTOR=1.
##YFACTOR=0.001
##DELTAX=1.92934
##FIRSTX=549.9
##LASTX=3999.5
##FIRSTY=0.8677
##MAXX=3999.53
##MINX=549.863
##MAXY=0.131532
##MINY=0
##NPOINTS=1789
##XYDATA=(X++(Y..Y))
549.863 0.8677 0.88065 0.9281 0.7778 0.81734 0.7186 0.544 0.521 0.576 0.719
569.156 0.83396 0.8399 0.65 0.606 0.644 0.525 0.502 0.61 0.79853 0.8417
588.450 0.85665 0.81719 0.87071 0.9734 0.9294 1.0353 1.3067 1.5124 1.7953 2.292
607.743 2.712 2.952 3.132 3.212 3.262 3.512 3.622 3.502 3.442 3.332
627.037 3.122 2.792 2.342 1.922 1.481 1.1677 1.0112 0.8719 0.7485 0.671
646.330 0.66 0.647 0.682 0.697 0.641 0.615 0.584 0.574 0.635 0.676
665.624 0.7 0.692 0.67 0.667 0.676 0.7081 0.7842 0.82117 0.807046 0.87376
684.917 0.805204 0.7741 0.85169 0.86062 0.9268 0.9059 0.85988 0.87124 0.81425 0.7549
704.210 0.7059 0.647 0.644 0.642 0.664 0.7154 0.7295 0.7894 0.83331 0.83101
723.504 0.86855 0.9166 0.9224 1.0451 1.1808 1.2409 1.3352 1.4484 1.606 1.812
742.797 2.122 2.402 2.652 3.002 3.392 3.842 4.272 4.642 5.132 5.672
762.091 6.052 6.392 6.722 6.992 7.192 7.412 7.862 8.212 8.212 7.742
781.384 7.072 6.502 5.942 5.462 5.102 4.772 4.422 4.072 3.712 3.502
800.678 3.422 3.282 3.202 3.182 3.122 3.042 3.092 3.232 3.372 3.532
819.971 3.552 3.442 3.282 3.162 3.152 3.072 2.832 2.642 2.512 2.472
839.264 2.382 2.202 2.032 1.892 1.7626 1.6513 1.5539 1.4246 1.3373 1.3327
858.558 1.2931 1.158 1.0162 0.9693 1.0161 1.0614 1.0282 0.9883 1.0105 1.0441
877.851 1.045 1.0431 1.1252 1.1487 1.1686 1.2155 1.2303 1.2869 1.3156 1.357
897.145 1.3988 1.4206 1.4821 1.5027 1.5387 1.6707 1.7709 1.882 2.022 2.112
916.438 2.232 2.372 2.522 2.692 2.922 3.222 3.542 3.862 4.242 4.662
935.732 5.152 5.772 6.432 7.092 7.712 8.342 8.922 9.472 10.042 10.622
955.025 11.062 11.032 10.542 10.172 10.112 10.062 9.982 9.872 9.822 9.872
974.318 10.012 10.172 10.212 10.362 10.812 11.152 11.072 11.002 11.102 11.112
993.612 11.162 11.442 11.882 12.332 12.782 13.272 13.722 14.172 14.632 15.092
1012.905 15.652 16.072 16.272 16.452 16.732 17.002 17.252 17.672 18.282 19.212
1032.199 20.472 21.942 23.472 25.222 27.422 29.982 32.852 36.022 39.652 44.032
1051.492 48.962 54.152 59.402 64.312 68.402 71.592 73.962 75.552 76.542 76.902
1070.786 76.312 74.172 70.352 64.952 58.202 50.832 43.722 37.552 32.652 28.892
1090.079 26.032 23.792 21.902 20.382 19.092 17.802 16.702 15.812 14.872 13.952
1109.372 13.172 12.582 12.282 12.232 12.622 13.272 14.092 15.242 16.542 18.162
1128.666 20.082 21.982 23.982 26.152 28.182 29.962 31.342 31.972 31.832 30.842
1147.959 29.562 28.262 26.512 24.582 22.352 20.102 18.232 16.622 15.182 14.022
1167.253 13.232 12.662 12.292 11.952 11.642 11.282 10.842 10.392 10.012 9.902
1186.546 9.702 9.342 9.152 9.122 9.202 9.212 9.222 9.162 9.382 9.672
1205.840 9.652 9.952 10.072 10.182 10.702 11.212 11.842 12.572 13.212 13.602
1225.133 13.972 14.512 14.762 14.772 14.712 14.602 14.472 14.302 14.202 14.162
1244.426 13.922 13.702 13.802 14.172 14.782 15.552 16.622 18.022 19.552 21.382
1263.720 23.312 25.392 27.612 29.712 31.332 32.352 33.032 33.532 33.882 33.882
1283.013 33.372 32.432 31.172 29.392 26.982 24.322 21.892 19.692 17.772 16.052
1302.307 14.592 13.472 12.452 11.642 10.972 10.362 9.942 9.642 9.432 9.342
1321.600 9.262 9.212 9.182 9.142 9.202 9.402 9.642 9.902 10.182 10.572
1340.894 11.072 11.662 12.282 12.962 13.712 14.542 15.582 16.692 17.822 19.092
1360.187 20.512 21.992 23.362 24.462 25.252 25.672 25.772 25.532 25.032 24.232
1379.480 23.122 21.912 20.662 19.292 17.702 16.032 14.542 13.262 12.112 11.132
1398.774 10.282 9.502 8.882 8.402 8.072 7.812 7.672 7.562 7.582 7.752
1418.067 8.012 8.422 8.922 9.392 9.772 10.292 11.112 11.942 12.662 13.402
1437.361 14.412 15.592 16.542 17.302 18.112 18.962 19.672 20.102 20.372 20.742
1456.654 21.072 21.112 20.842 20.282 19.522 18.582 17.582 16.682 15.792 14.502
1475.948 13.102 11.902 10.722 9.422 8.182 7.112 6.152 5.302 4.592 3.972
1495.241 3.482 3.112 2.752 2.492 2.322 2.162 2.032 1.872 1.7534 1.7378
1514.534 1.7027 1.6181 1.5477 1.5071 1.4519 1.4798 1.5149 1.4147 1.347 1.3666
1533.828 1.3425 1.2518 1.2516 1.2779 1.259 1.2064 1.1642 1.0928 1.0463 1.0092
1553.121 0.9554 0.9342 0.9417 0.9545 0.86382 0.81483 0.846 0.86041 0.8765 0.85279
1572.415 0.8408 0.86285 0.801493 0.7557 0.7721 0.765 0.7623 0.7474 0.7197 0.7211
1591.708 0.7525 0.7862 0.7873 0.79362 0.76 0.7545 0.754 0.701 0.616 0.592
1611.002 0.633 0.639 0.701 0.7368 0.7156 0.678 0.629 0.62 0.647 0.688
1630.295 0.676 0.698 0.7422 0.7507 0.7567 0.7629 0.7445 0.741 0.7345 0.7301
1649.588 0.7733 0.7827 0.747 0.7307 0.7065 0.696 0.7567 0.7641 0.7525 0.7891
1668.882 0.808047 0.79625 0.7539 0.7205 0.718 0.7034 0.673 0.63 0.554 0.527
1688.175 0.555 0.517 0.466 0.457 0.452 0.424 0.434 0.458 0.478 0.479
1707.469 0.442 0.438 0.453 0.464 0.444 0.409 0.455 0.536 0.484 0.379
1726.762 0.355 0.417 0.455 0.431 0.408 0.394 0.374 0.365 0.415 0.446
1746.056 0.459 0.46 0.505 0.527 0.466 0.488 0.548 0.56 0.53 0.471
1765.349 0.443 0.449 0.477 0.506 0.497 0.509 0.536 0.479 0.434 0.403
1784.642 0.38 0.408 0.421 0.438 0.427 0.446 0.495 0.52 0.527 0.495
1803.936 0.49 0.49 0.489 0.494 0.525 0.534 0.531 0.524 0.515 0.572
1823.229 0.584 0.587 0.562 0.536 0.596 0.63 0.574 0.532 0.508 0.486
1842.523 0.505 0.522 0.515 0.47 0.438 0.415 0.432 0.479 0.453 0.431
1861.816 0.478 0.444 0.403 0.437 0.432 0.434 0.45 0.438 0.415 0.44
1881.110 0.482 0.521 0.524 0.497 0.529 0.536 0.548 0.573 0.549 0.544
1900.403 0.594 0.682 0.7444 0.7401 0.7224 0.698 0.7283 0.7809 0.805142 0.81525
1919.696 0.749 0.691 0.677 0.662 0.62 0.583 0.569 0.572 0.54 0.504
1938.990 0.515 0.466 0.441 0.452 0.393 0.366 0.382 0.364 0.367 0.377
1958.283 0.363 0.366 0.392 0.424 0.435 0.416 0.39 0.405 0.427 0.422
1977.577 0.411 0.413 0.445 0.434 0.383 0.399 0.444 0.444 0.455 0.48
1996.870 0.471 0.433 0.46 0.459 0.404 0.425 0.442 0.428 0.441 0.43
2016.164 0.472 0.54 0.557 0.591 0.66 0.7119 0.701 0.687 0.695 0.7744
2035.457 0.811961 0.7658 0.7615 0.7973 0.84017 0.86225 0.86817 0.85451 0.84641 0.84001
2054.750 0.83838 0.84918 0.802383 0.7504 0.7189 0.652 0.623 0.622 0.607 0.554
2074.044 0.495 0.495 0.498 0.47 0.449 0.393 0.38 0.424 0.381 0.348
2093.337 0.363 0.351 0.315 0.311 0.363 0.371 0.329 0.324 0.361 0.409
2112.631 0.4 0.372 0.423 0.493 0.527 0.535 0.556 0.588 0.6 0.582
2131.924 0.561 0.548 0.577 0.639 0.645 0.641 0.652 0.634 0.595 0.602
2151.218 0.611 0.614 0.655 0.608 0.55 0.591 0.568 0.528 0.564 0.542
2170.511 0.508 0.498 0.455 0.427 0.394 0.411 0.435 0.397 0.411 0.405
2189.804 0.391 0.401 0.43 0.46 0.468 0.497 0.474 0.454 0.506 0.532
2209.098 0.527 0.501 0.462 0.512 0.55 0.564 0.585 0.575 0.62 0.68
2228.391 0.677 0.66 0.67 0.693 0.7253 0.7463 0.7247 0.693 0.674 0.7174
2247.685 0.766 0.7475 0.7308 0.7305 0.7526 0.7655 0.79796 0.83423 0.84639 0.88374
2266.978 0.915 0.9197 0.9109 0.9072 0.9077 0.90178 0.9448 0.9749 0.9468 0.9096
2286.272 0.9099 0.88752 0.7832 0.7226 0.7365 0.7316 0.685 0.647 0.642 0.639
2305.565 0.636 0.633 0.604 0.592 0.578 0.55 0.543 0.542 0.546 0.548
2324.858 0.558 0.569 0.611 0.615 0.609 0.626 0.599 0.582 0.58 0.575
2344.152 0.592 0.586 0.595 0.642 0.628 0.632 0.645 0.652 0.664 0.669
2363.445 0.679 0.669 0.7121 0.715 0.667 0.668 0.671 0.692 0.7345 0.7222
2382.739 0.67 0.661 0.697 0.7212 0.7172 0.7034 0.701 0.7262 0.7454 0.7344
2402.032 0.7512 0.7751 0.79577 0.7743 0.7509 0.808226 0.8501 0.84973 0.87096 0.9153
2421.326 0.89694 0.88692 0.9382 0.9542 0.9289 0.9813 1.0331 0.9824 0.943 0.9171
2440.619 0.9079 0.9208 0.87953 0.83717 0.85635 0.86654 0.86756 0.84024 0.83078 0.86396
2459.912 0.82888 0.811074 0.84261 0.87421 0.84665 0.810815 0.811907 0.8766 0.8494 0.8267
2479.206 0.84139 0.80311 0.9023 0.9894 1.002 1.0163 1.0213 1.0342 1.0183 1.0637
2498.499 1.164 1.1918 1.2224 1.2308 1.2568 1.3169 1.3551 1.3636 1.309 1.3118
2517.793 1.3843 1.3965 1.4067 1.4134 1.4053 1.3953 1.3919 1.4316 1.4158 1.3955
2537.086 1.4152 1.4467 1.4863 1.4776 1.4541 1.4452 1.4824 1.5553 1.5255 1.5246
2556.380 1.5484 1.5472 1.579 1.5344 1.4909 1.5788 1.6353 1.6365 1.6341 1.6814
2575.673 1.7212 1.6805 1.7138 1.7773 1.832 1.832 1.822 1.972 2.102 2.182
2594.966 2.272 2.332 2.382 2.492 2.642 2.722 2.832 2.952 3.082 3.122
2614.260 3.162 3.302 3.392 3.442 3.572 3.632 3.672 3.792 3.832 3.872
2633.553 4.002 4.162 4.292 4.442 4.622 4.822 5.032 5.252 5.572 5.902
2652.847 6.232 6.632 7.032 7.492 7.992 8.392 8.852 9.282 9.622 10.022
2672.140 10.492 10.892 11.302 11.732 11.932 12.132 12.332 12.362 12.372 12.372
2691.434 12.232 12.132 12.112 12.092 12.142 12.202 12.292 12.302 12.392 12.572
2710.727 12.832 13.192 13.642 14.222 14.822 15.512 16.312 17.192 18.102 18.992
2730.020 19.912 20.902 21.832 22.562 23.192 23.762 24.302 24.892 25.682 26.632
2749.314 27.702 29.082 30.742 32.702 35.052 37.642 40.342 43.192 46.182 49.252
2768.607 52.592 56.052 59.252 62.362 65.422 68.252 70.782 73.092 75.002 76.052
2787.901 75.872 74.452 72.302 69.812 67.192 64.522 61.692 58.502 54.962 51.242
2807.194 47.442 43.702 40.212 36.902 33.942 31.342 28.932 26.852 25.162 23.892
2826.488 22.942 22.342 22.242 22.462 22.902 23.752 24.872 26.082 27.542 29.222
2845.781 30.832 32.332 33.612 34.252 34.432 34.412 34.192 33.792 33.312 32.952
2865.074 32.542 32.062 31.632 31.322 31.312 31.412 31.632 31.892 32.272 32.832
2884.368 33.472 34.342 35.212 36.082 37.002 37.972 39.082 40.242 41.402 42.652
2903.661 44.062 45.662 47.472 49.522 51.942 54.662 57.612 60.832 64.472 68.492
2922.955 73.062 78.192 83.832 90.122 96.882 103.792 110.762 117.472 123.292 127.752
2942.248 130.492 131.532 131.142 129.702 127.422 123.742 118.202 111.172 102.892 93.742
2961.542 84.252 74.792 65.892 57.862 50.622 44.022 37.952 32.752 28.912 26.662
2980.835 24.952 22.602 19.862 17.152 14.692 12.372 10.342 8.692 7.242 6.142
3000.128 5.262 4.592 4.042 3.442 2.992 2.702 2.532 2.362 2.062 1.962
3019.422 1.912 1.7389 1.5663 1.5096 1.5633 1.4701 1.4114 1.3941 1.497 1.4508
3038.715 1.2877 1.3803 1.4246 1.3482 1.1896 1.2671 1.2985 1.1867 1.157 1.038
3058.009 1.0732 1.1816 1.1145 1.0427 1.1269 1.0982 1.0083 1.0899 1.1195 0.9887
3077.302 0.9445 0.9357 0.8817 0.83536 0.7201 0.7436 0.79322 0.752 0.651 0.616
3096.596 0.609 0.583 0.575 0.608 0.7223 0.7196 0.7255 0.84189 0.8414 0.7425
3115.889 0.7454 0.7421 0.649 0.598 0.567 0.544 0.608 0.592 0.537 0.691
3135.182 0.79882 0.625 0.625 0.7348 0.698 0.701 0.79958 0.9536 0.9333 0.8555
3154.476 0.7601 0.656 0.7499 0.82717 0.7673 0.696 0.79471 0.804373 0.79681 0.9258
3173.769 0.955 0.9039 0.87547 0.9562 0.928 0.9279 0.9408 0.7865 0.773 0.664
3193.063 0.553 0.481 0.577 0.611 0.491 0.573 0.504 0.331 0.42 0.574
3212.356 0.407 0.33 0.428 0.382 0.256 0.204 0.229 0.132 0.146 0.18
3231.650 0.134 0.191 0.028 0.036 0.315 0.295 0.072 0.222 0.272 0.057
3250.943 0.14 0.287 0.33 0.299 0.156 0 0.086 0.137 0.097 0.254
3270.236 0.267 0.184 0.139 0.216 0.346 0.326 0.349 0.409 0.268 0.208
3289.530 0.353 0.32 0.382 0.679 0.7458 0.555 0.537 0.603 0.562 0.482
3308.823 0.539 0.593 0.569 0.546 0.496 0.536 0.637 0.619 0.641 0.556
3328.117 0.442 0.615 0.642 0.576 0.526 0.494 0.462 0.362 0.449 0.532
3347.410 0.446 0.444 0.456 0.453 0.487 0.486 0.468 0.4 0.336 0.41
3366.704 0.472 0.495 0.461 0.414 0.395 0.434 0.413 0.376 0.501 0.558
3385.997 0.509 0.558 0.565 0.521 0.667 0.67 0.559 0.515 0.399 0.483
3405.290 0.7034 0.7 0.7171 0.685 0.645 0.86319 0.85577 0.7442 0.8315 0.7266
3424.584 0.691 0.7734 0.83073 0.9303 0.81609 0.654 0.547 0.626 0.804666 0.82751
3443.877 0.9049 0.88304 0.85542 0.9235 0.7463 0.632 0.675 0.79372 0.82931 0.7563
3463.171 0.685 0.61 0.618 0.67 0.7538 0.7561 0.7349 0.7224 0.685 0.613
3482.464 0.662 0.7477 0.698 0.67 0.577 0.534 0.571 0.641 0.7858 0.805389
3501.758 0.79391 0.8564 0.8419 0.696 0.7057 1.0388 1.0474 0.79698 0.83683 0.86335
3521.051 0.7785 0.7841 0.89458 0.9347 0.9337 0.83975 0.7791 0.79828 0.83467 0.7285
3540.344 0.591 0.7 0.7574 0.801561 0.7161 0.653 0.669 0.516 0.453 0.584
3559.638 0.674 0.578 0.542 0.633 0.617 0.603 0.604 0.525 0.485 0.451
3578.931 0.448 0.476 0.555 0.682 0.7149 0.649 0.625 0.641 0.698 0.7688
3598.225 0.7145 0.599 0.695 0.9536 0.82424 0.7527 0.9198 0.88213 0.9819 1.1798
3617.518 1.4086 1.5672 1.6612 1.922 2.292 2.772 3.252 3.702 4.292 5.042
3636.812 5.912 6.812 7.772 8.612 9.272 9.612 9.682 9.882 9.942 9.732
3656.105 9.242 8.622 7.972 7.182 6.312 5.352 4.502 3.812 3.202 2.542
3675.398 1.952 1.6716 1.4545 1.1933 1.0335 0.9654 0.85039 0.805246 0.82617 0.808224
3694.692 0.675 0.541 0.551 0.586 0.662 0.633 0.527 0.612 0.698 0.519
3713.985 0.408 0.482 0.553 0.549 0.554 0.662 0.66 0.608 0.604 0.569
3733.279 0.597 0.583 0.562 0.518 0.507 0.647 0.7176 0.7428 0.7182 0.623
3752.572 0.583 0.59 0.702 0.678 0.598 0.697 0.7401 0.7196 0.656 0.668
3771.866 0.661 0.62 0.67 0.7092 0.673 0.628 0.573 0.526 0.631 0.593
3791.159 0.573 0.7036 0.7877 0.810925 0.697 0.507 0.456 0.592 0.679 0.698
3810.452 0.619 0.53 0.595 0.659 0.7239 0.85127 0.86599 0.79392 0.82623 0.801317
3829.746 0.7669 0.83439 0.85419 0.7865 0.7563 0.7491 0.7165 0.7496 0.84744 0.8594
3849.039 0.7625 0.81744 0.85654 0.7754 0.7024 0.7256 0.781 0.81294 0.81493 0.82745
3868.333 0.9105 0.89632 0.83075 0.7918 0.7176 0.647 0.7287 0.85624 0.79224 0.82356
3887.626 0.9103 0.919 0.89852 0.88267 0.82185 0.83202 0.83809 0.81676 0.9446 0.801366
3906.920 0.676 0.7638 0.86837 0.9142 0.7685 0.687 0.7795 0.85936 0.909 0.9209
3926.213 0.89552 0.85954 0.88373 0.89466 0.7846 0.806849 0.89487 0.89993 0.84058 0.7638
3945.506 0.7608 0.7882 0.7681 0.7161 0.7723 0.789 0.747 0.7376 0.662 0.48
3964.800 0.565 0.7255 0.63 0.635 0.7767 0.87503 0.75 0.577 0.666 0.704
3984.093 0.693 0.7496 0.7053 0.65 0.584 0.549 0.562 0.572 0.606
##END=
