##TITLE=cis-3,7-Dimethyl-2,6-octadien-1-ol
##JCAMP-DX=4.24
##DATA TYPE=INFRARED SPECTRUM
##ORIGIN=NIST Mass Spectrometry Data Center
##OWNER=NIST Standard Reference Data Program
Collection (C) 2018 copyright by the U.S. Secretary of Commerce
on behalf of the United States of America. All rights reserved.
##CAS REGISTRY NO=106-25-2
##MOLFORM=C 10 H 18 O
##$NIST SOURCE=MSDC-IR
##SPECTROMETER/DATA SYSTEM=HP-GC/MS/IRD
##STATE=gas
##XUNITS=1/CM
##YUNITS=ABSORBANCE
##XFACTOR=1.0
##YFACTOR=0.000001600
##DELTAX=4.0
##FIRSTX=550.0
##LASTX=3846.0
##FIRSTY=0.000579
##MAXX=3846
##MINX=550
##MAXY=0.016
##MINY=0
##NPOINTS=825
##XYDATA=(X++(Y..Y))
550.0 362 293 258 263 272 190 260 392 354 373
590.0 345 324 308 272 241 202 234 177 129 122
630.0 75 63 64 80 82 61 51 16 25 87
670.0 99 73 30 46 48 50 80 82 90 91
710.0 117 116 151 202 201 217 259 246 215 192
750.0 203 244 262 290 337 362 344 340 379 417
790.0 433 512 609 667 772 894 976 1104 1247 1311
830.0 1299 1172 1016 892 767 686 646 610 552 471
870.0 456 494 511 495 511 577 594 587 621 641
910.0 683 745 811 837 888 1008 1131 1294 1487 1692
950.0 1916 2138 2341 2495 2671 2916 3219 3591 4007 4436
990.0 4814 5133 5358 5401 5273 4991 4545 4041 3584 3180
1030.0 2835 2561 2327 2084 1836 1623 1464 1335 1270 1225
1070.0 1216 1223 1218 1201 1183 1151 1131 1121 1127 1174
1110.0 1167 1105 1009 900 818 757 747 753 779 778
1150.0 764 776 823 807 793 834 867 913 926 933
1190.0 991 1031 1066 1131 1168 1178 1195 1184 1172 1169
1230.0 1188 1162 1087 1038 1006 974 929 905 880 855
1270.0 844 848 824 807 830 853 866 920 974 1026
1310.0 1086 1104 1086 1056 1020 1011 1061 1168 1279 1380
1350.0 1477 1542 1616 1788 2067 2443 2903 3299 3479 3373
1390.0 3003 2552 2139 1805 1570 1392 1274 1232 1237 1298
1430.0 1429 1607 1795 1989 2142 2227 2208 2085 1899 1665
1470.0 1422 1208 1019 866 749 652 570 500 444 424
1510.0 389 353 347 333 327 341 334 319 312 291
1550.0 292 303 296 292 286 282 274 295 312 296
1590.0 296 284 275 301 313 325 326 309 334 365
1630.0 400 451 517 601 687 814 968 1059 1094 1054
1670.0 884 677 488 362 291 223 176 160 133 122
1710.0 105 88 83 61 60 92 96 70 73 86
1750.0 80 62 45 59 69 80 81 76 86 92
1790.0 95 91 74 79 80 63 60 62 55 54
1830.0 62 71 76 66 64 61 55 49 44 54
1870.0 53 33 29 49 51 31 34 40 33 25
1910.0 34 53 42 33 44 47 51 57 62 45
1950.0 36 45 45 55 66 72 80 75 82 91
1990.0 84 83 82 76 59 67 75 86 86 87
2030.0 85 69 72 68 58 45 44 38 21 16
2070.0 26 51 59 36 17 29 59 58 29 26
2110.0 39 31 28 20 8 14 48 70 52 27
2150.0 22 20 31 42 39 42 43 38 26 22
2190.0 27 30 22 30 27 24 50 42 38 36
2230.0 26 37 34 15 33 45 28 26 22 11
2270.0 17 42 52 34 35 43 28 10 4 17
2310.0 41 45 42 51 62 59 65 64 47 44
2350.0 56 61 50 51 67 75 79 66 59 69
2390.0 57 59 63 54 53 60 74 97 88 75
2430.0 75 74 79 92 107 116 98 94 89 77
2470.0 94 93 85 96 90 87 79 65 67 71
2510.0 62 59 79 87 90 86 64 72 90 80
2550.0 89 88 94 103 101 101 95 87 97 98
2590.0 86 76 80 95 97 106 109 109 122 135
2630.0 141 149 133 124 131 126 140 160 183 189
2670.0 200 203 189 165 181 204 209 231 247 246
2710.0 245 260 294 325 373 446 507 519 505 511
2750.0 491 446 436 425 405 408 423 442 467 514
2790.0 555 603 652 707 764 830 926 1031 1157 1303
2830.0 1448 1656 1929 2231 2672 3286 3979 4713 5468 6051
2870.0 6371 6485 6469 6437 6400 6411 6472 6550 6744 7091
2910.0 7623 8350 9103 9684 10000 9977 9691 9243 8745 8310
2950.0 7916 7591 7436 7448 7599 7820 7871 7583 6954 6115
2990.0 5278 4553 3944 3441 3022 2711 2504 2378 2257 2130
3030.0 2016 1894 1775 1633 1476 1340 1207 1106 1014 897
3070.0 824 792 749 710 677 616 564 543 494 438
3110.0 415 376 333 305 272 247 244 224 192 197
3150.0 184 150 160 143 93 99 116 94 79 105
3190.0 96 57 71 109 92 76 100 92 93 87
3230.0 87 86 82 67 70 63 26 40 69 73
3270.0 58 48 30 41 67 38 12 41 59 63
3310.0 49 17 7 30 64 60 51 47 15 11
3350.0 45 50 36 19 35 49 49 54 32 16
3390.0 30 53 68 62 29 37 36 22 42 44
3430.0 19 34 93 77 14 57 91 45 48 84
3470.0 82 86 75 54 48 24 29 56 58 55
3510.0 72 66 42 58 51 42 38 45 63 90
3550.0 67 48 65 79 80 74 71 98 138 135
3590.0 134 110 131 192 238 264 272 310 325 313
3630.0 379 445 488 587 728 843 881 859 757 648
3670.0 539 421 345 301 267 226 201 164 128 103
3710.0 83 69 57 84 78 36 63 77 73 78
3750.0 79 73 23 32 77 90 57 46 50 29
3790.0 12 28 52 26 0 47 63 39 47 44
3830.0 50 31 6 61 65
##END=
