##TITLE=p-Bromoaniline
##JCAMP-DX=4.24
##DATA TYPE=INFRARED SPECTRUM
##ORIGIN=NIST Mass Spectrometry Data Center
##OWNER=NIST Standard Reference Data Program
Collection (C) 2018 copyright by the U.S. Secretary of Commerce
on behalf of the United States of America. All rights reserved.
##CAS REGISTRY NO=106-40-1
##MOLFORM=C 6 H 6 Br N
##$NIST SOURCE=MSDC-IR
##SPECTROMETER/DATA SYSTEM=HP-GC/MS/IRD
##STATE=gas
##XUNITS=1/CM
##YUNITS=ABSORBANCE
##XFACTOR=1.0
##YFACTOR=0.000014500
##DELTAX=4.0
##FIRSTX=550.0
##LASTX=3846.0
##FIRSTY=0.005365
##MAXX=3846
##MINX=550
##MAXY=0.145
##MINY=0
##NPOINTS=825
##XYDATA=(X++(Y..Y))
550.0 370 572 465 559 622 708 769 814 869 933
590.0 1073 1454 2098 2654 2800 2621 1949 980 474 440
630.0 577 777 970 1139 1253 1358 1494 1600 1706 1812
670.0 1883 1993 2113 2147 2071 1857 1564 1289 1065 887
710.0 743 634 551 489 444 413 394 375 365 366
750.0 376 398 430 473 519 579 670 809 1003 1241
790.0 1505 1801 2117 2427 2689 2968 3205 3037 2672 2347
830.0 1962 1539 1140 830 625 496 411 353 308 269
870.0 228 196 170 144 122 109 101 93 86 77
910.0 69 63 57 51 43 36 41 52 62 75
950.0 84 95 108 122 137 148 158 163 164 167
990.0 191 298 612 1071 1275 1277 1166 739 358 221
1030.0 175 154 143 148 170 220 319 556 1056 1807
1070.0 2443 2721 2648 1983 1177 871 843 821 812 791
1110.0 725 660 594 496 416 353 276 204 142 94
1150.0 63 58 95 245 630 1033 1130 1115 895 437
1190.0 164 96 83 94 106 115 120 116 118 140
1230.0 178 248 368 558 852 1313 2022 3027 4212 5269
1270.0 5938 5908 5002 3727 2448 1335 728 507 409 341
1310.0 266 196 132 78 45 31 29 26 20 11
1350.0 4 0 2 9 13 18 23 28 36 47
1390.0 61 83 120 179 273 382 455 476 444 363
1430.0 282 240 227 230 244 265 301 384 534 834
1470.0 1387 2422 4132 6511 8878 10000 9578 7969 5370 2980
1510.0 1659 1103 831 726 668 605 530 421 318 273
1550.0 263 262 275 304 346 416 524 699 963 1321
1590.0 1672 1871 1911 1892 1985 2500 3452 4294 4844 4977
1630.0 4266 3276 2398 1589 1051 760 560 435 374 335
1670.0 309 292 278 272 276 288 297 289 273 243
1710.0 203 174 154 140 140 146 150 145 127 99
1750.0 70 46 29 20 18 20 22 27 30 31
1790.0 33 35 37 41 46 49 53 58 67 82
1830.0 99 121 149 179 212 252 290 312 316 315
1870.0 300 258 205 155 112 80 60 48 44 46
1910.0 49 54 57 59 62 64 66 69 71 71
1950.0 69 66 62 57 53 47 43 39 38 37
1990.0 41 45 47 53 57 58 62 65 66 66
2030.0 67 67 68 70 77 84 93 98 99 97
2070.0 93 89 85 81 79 75 70 67 65 60
2110.0 53 48 44 38 37 37 39 41 42 42
2150.0 41 41 40 42 48 51 53 54 53 50
2190.0 46 43 42 41 39 37 39 41 43 47
2230.0 52 54 54 53 53 51 51 53 53 54
2270.0 57 59 62 65 69 74 75 74 75 74
2310.0 74 70 66 60 53 46 41 37 38 39
2350.0 41 41 42 43 44 49 51 53 57 60
2390.0 63 64 63 60 58 58 61 60 57 57
2430.0 57 57 57 56 55 53 48 43 40 36
2470.0 33 33 35 35 34 35 37 36 35 37
2510.0 40 44 51 57 65 73 77 81 85 88
2550.0 85 81 75 69 64 62 64 66 68 70
2590.0 69 65 60 57 53 48 44 43 44 43
2630.0 44 46 47 47 50 51 53 56 59 63
2670.0 60 58 57 55 53 52 52 54 55 54
2710.0 52 49 45 44 46 48 47 48 51 52
2750.0 51 50 52 53 50 46 43 39 36 36
2790.0 37 39 40 40 41 43 47 49 54 62
2830.0 69 73 80 86 91 92 89 88 86 84
2870.0 83 85 90 94 99 102 103 97 86 76
2910.0 66 60 57 54 50 47 46 47 49 50
2950.0 50 54 59 69 83 98 118 146 179 219
2990.0 263 301 332 346 345 346 360 416 549 776
3030.0 1058 1266 1315 1233 1008 757 641 616 602 572
3070.0 530 495 467 463 477 485 481 451 390 313
3110.0 244 182 135 103 81 69 60 55 55 54
3150.0 52 51 51 50 50 49 49 48 49 55
3190.0 61 68 83 98 109 118 122 126 129 129
3230.0 131 131 126 120 113 104 93 83 73 64
3270.0 57 55 53 48 45 47 44 43 40 38
3310.0 42 44 42 42 43 45 44 45 46 47
3350.0 52 56 65 76 85 99 116 138 171 222
3390.0 294 399 527 685 820 859 897 911 794 680
3430.0 589 414 273 209 172 158 155 165 188 220
3470.0 261 312 363 410 459 486 495 508 507 482
3510.0 424 379 349 296 235 187 148 115 92 73
3550.0 62 54 46 43 44 42 39 39 38 37
3590.0 37 39 37 38 40 39 40 45 45 44
3630.0 44 46 47 45 43 46 50 52 53 52
3670.0 53 52 52 52 49 47 49 50 52 52
3710.0 54 57 58 59 60 57 53 57 55 53
3750.0 51 47 49 48 47 45 44 44 43 44
3790.0 46 45 44 44 45 44 44 46 50 53
3830.0 55 62 70 80 99
##END=
