##TITLE=n-Butyric anhydride
##JCAMP-DX=4.24
##DATA TYPE=INFRARED SPECTRUM
##ORIGIN=NIST Mass Spectrometry Data Center
##OWNER=NIST Standard Reference Data Program
Collection (C) 2018 copyright by the U.S. Secretary of Commerce
on behalf of the United States of America. All rights reserved.
##CAS REGISTRY NO=106-31-0
##MOLFORM=C 8 H 14 O 3
##$NIST SOURCE=MSDC-IR
##SPECTROMETER/DATA SYSTEM=HP-GC/MS/IRD
##STATE=gas
##XUNITS=1/CM
##YUNITS=ABSORBANCE
##XFACTOR=1.0
##YFACTOR=0.000024200
##DELTAX=4.0
##FIRSTX=550.0
##LASTX=3846.0
##FIRSTY=0.004404
##MAXX=3846
##MINX=550
##MAXY=0.242
##MINY=0
##NPOINTS=825
##XYDATA=(X++(Y..Y))
550.0 182 227 134 158 154 149 139 125 109 100
590.0 91 77 69 60 49 42 37 31 27 23
630.0 20 19 19 17 10 7 12 12 9 9
670.0 13 13 17 20 22 26 32 38 44 52
710.0 62 70 78 89 107 124 142 158 178 196
750.0 211 227 242 255 272 291 313 340 366 392
790.0 416 441 465 485 502 517 530 546 560 577
830.0 602 632 671 713 760 808 852 887 919 951
870.0 985 1020 1050 1068 1082 1105 1149 1231 1355 1509
910.0 1672 1825 1949 2020 2012 1912 1733 1507 1272 1066
950.0 907 797 727 695 700 735 805 917 1089 1342
990.0 1706 2221 2930 3859 4993 6273 7580 8758 9613 10000
1030.0 9898 9421 8765 8105 7508 6946 6371 5771 5165 4604
1070.0 4115 3714 3408 3189 3029 2911 2831 2793 2805 2871
1110.0 2972 3068 3114 3088 3008 2904 2779 2626 2443 2247
1150.0 2056 1890 1750 1627 1513 1416 1334 1263 1193 1118
1190.0 1035 946 860 788 738 713 714 744 794 857
1230.0 921 969 986 971 928 870 810 764 731 706
1270.0 681 663 661 680 707 730 734 713 674 621
1310.0 571 530 508 510 539 592 666 757 856 948
1350.0 1031 1091 1107 1076 1003 902 795 706 638 588
1390.0 550 514 483 462 458 470 497 532 566 594
1430.0 612 610 592 572 565 580 612 648 662 639
1470.0 582 503 417 340 277 227 188 156 132 114
1510.0 97 83 72 65 58 51 47 44 42 38
1550.0 37 38 38 37 36 37 36 36 37 36
1590.0 37 38 41 41 42 43 45 47 49 51
1630.0 53 56 59 61 63 66 68 69 72 76
1670.0 81 87 95 103 117 129 146 167 192 222
1710.0 261 312 374 451 548 680 859 1101 1432 1876
1750.0 2428 3031 3580 3955 4054 3870 3493 3055 2669 2406
1790.0 2285 2297 2440 2725 3142 3662 4211 4677 4945 4932
1830.0 4615 4060 3382 2694 2083 1593 1221 944 741 590
1870.0 473 383 312 258 216 182 156 137 121 107
1910.0 96 87 79 71 65 60 54 48 43 37
1950.0 32 30 28 25 24 22 21 19 17 17
1990.0 17 16 17 16 17 16 18 19 20 19
2030.0 20 22 24 25 26 29 30 32 34 37
2070.0 39 44 49 56 66 81 104 131 163 198
2110.0 228 251 264 274 275 267 247 209 159 116
2150.0 83 60 44 33 27 22 17 14 13 10
2190.0 8 7 7 6 5 4 2 3 3 3
2230.0 0 1 1 0 1 2 1 2 1 2
2270.0 1 0 0 1 1 2 1 1 0 1
2310.0 2 1 2 3 3 2 2 4 3 3
2350.0 4 4 5 4 4 5 4 3 4 3
2390.0 4 4 5 6 5 6 7 8 8 7
2430.0 6 5 4 3 2 4 2 3 5 4
2470.0 4 5 6 7 6 6 7 6 7 7
2510.0 7 8 8 7 8 6 8 9 8 8
2550.0 9 10 10 9 8 9 10 9 10 9
2590.0 10 9 8 9 10 9 8 9 10 10
2630.0 9 10 11 13 14 14 16 21 23 23
2670.0 26 28 30 30 31 30 31 30 29 28
2710.0 29 30 30 32 34 36 39 44 50 56
2750.0 61 64 65 66 68 69 69 71 74 78
2790.0 82 89 94 99 107 115 125 134 144 157
2830.0 169 183 200 219 242 270 301 343 399 473
2870.0 579 728 911 1091 1214 1251 1212 1130 1060 1032
2910.0 1044 1088 1157 1241 1345 1483 1664 1888 2113 2279
2950.0 2359 2374 2386 2477 2693 2994 3245 3302 3113 2702
2990.0 2197 1722 1335 1043 826 663 540 447 378 323
3030.0 278 242 215 193 172 155 143 131 121 112
3070.0 106 103 97 91 87 82 76 70 69 65
3110.0 64 65 64 61 59 56 54 53 53 52
3150.0 50 49 48 47 45 41 39 38 37 37
3190.0 36 35 32 31 29 27 29 25 20 20
3230.0 20 18 16 15 14 13 13 12 11 8
3270.0 8 9 9 7 7 8 9 9 8 7
3310.0 9 11 9 7 6 7 8 8 9 8
3350.0 9 10 9 10 9 8 8 9 10 9
3390.0 8 7 8 8 8 9 7 8 7 10
3430.0 11 11 10 11 11 11 13 16 15 16
3470.0 19 23 24 26 31 34 37 43 48 51
3510.0 54 56 55 53 53 54 50 48 46 47
3550.0 50 56 62 73 83 88 95 99 98 96
3590.0 86 73 66 62 60 61 60 59 60 60
3630.0 57 54 53 50 49 47 43 43 38 34
3670.0 32 32 30 28 26 26 25 23 22 19
3710.0 22 21 18 17 18 21 21 19 18 16
3750.0 17 16 16 18 17 15 17 18 17 16
3790.0 19 18 18 19 18 20 21 18 18 19
3830.0 18 18 18 18 18
##END=
