##TITLE=3-Hepten-1-ol
##JCAMP-DX=4.24
##DATA TYPE=INFRARED SPECTRUM
##ORIGIN=NIST Mass Spectrometry Data Center
##OWNER=NIST Standard Reference Data Program
Collection (C) 2018 copyright by the U.S. Secretary of Commerce
on behalf of the United States of America. All rights reserved.
##CAS REGISTRY NO=10606-47-0
##MOLFORM=C 7 H 14 O
##$NIST SOURCE=MSDC-IR
##SPECTROMETER/DATA SYSTEM=HP-GC/MS/IRD
##STATE=gas
##XUNITS=1/CM
##YUNITS=ABSORBANCE
##XFACTOR=1.0
##YFACTOR=0.000002500
##DELTAX=4.0
##FIRSTX=550.0
##LASTX=3846.0
##FIRSTY=0.000383
##MAXX=3846
##MINX=550
##MAXY=0.025
##MINY=0
##NPOINTS=825
##XYDATA=(X++(Y..Y))
550.0 153 93 53 54 53 36 30 13 27 46
590.0 38 15 25 29 26 25 31 33 15 1
630.0 3 10 12 29 16 1 5 8 27 33
670.0 18 6 18 31 21 9 14 27 42 42
710.0 35 34 34 44 51 67 90 92 101 131
750.0 147 156 177 179 173 186 190 186 169 134
790.0 143 151 138 148 139 125 151 174 182 204
830.0 226 238 264 294 313 335 362 386 404 409
870.0 410 425 441 441 436 435 436 427 414 414
910.0 429 446 465 501 562 647 761 905 1125 1399
950.0 1724 2078 2421 2714 2907 2956 2858 2642 2375 2143
990.0 1985 1931 1958 2042 2182 2377 2614 2890 3265 3765
1030.0 4398 5098 5687 6035 6028 5630 4997 4335 3729 3206
1070.0 2769 2423 2139 1887 1661 1456 1261 1088 941 817
1110.0 726 666 631 599 568 563 555 548 539 544
1150.0 565 575 590 619 642 662 687 710 715 713
1190.0 724 733 736 729 714 698 696 685 649 629
1230.0 617 608 597 591 610 634 658 691 723 755
1270.0 778 785 767 761 752 747 748 756 756 760
1310.0 782 785 789 806 840 887 943 981 997 995
1350.0 973 947 958 1016 1110 1239 1390 1526 1607 1624
1390.0 1554 1412 1253 1101 976 886 843 833 858 911
1430.0 970 1030 1076 1100 1111 1113 1108 1097 1060 1007
1470.0 950 864 768 659 559 462 374 310 260 217
1510.0 183 161 137 119 105 95 90 90 87 80
1550.0 67 57 66 60 50 54 53 48 43 38
1590.0 37 38 35 27 22 24 33 33 19 15
1630.0 30 39 36 32 31 38 45 42 39 39
1670.0 49 50 39 43 43 44 55 61 62 65
1710.0 71 74 76 75 76 78 77 72 70 70
1750.0 70 71 70 64 56 55 49 35 29 26
1790.0 22 24 26 27 30 27 34 37 33 35
1830.0 37 36 32 32 37 35 29 26 28 33
1870.0 33 29 26 20 16 16 15 18 20 20
1910.0 22 26 24 19 16 12 14 12 8 7
1950.0 6 3 5 6 3 3 8 9 8 11
1990.0 10 4 5 9 14 18 19 27 32 31
2030.0 32 42 50 49 46 47 48 45 42 40
2070.0 42 47 45 32 28 32 29 25 19 17
2110.0 18 19 18 16 11 9 8 7 10 12
2150.0 10 0 1 4 7 8 9 15 13 7
2190.0 6 3 3 7 5 0 2 4 5 10
2230.0 8 8 6 1 2 3 8 6 8 15
2270.0 14 9 9 9 7 6 9 14 11 9
2310.0 10 16 25 26 29 30 28 21 21 22
2350.0 22 22 20 20 20 18 19 27 31 32
2390.0 32 34 35 41 46 44 39 38 37 33
2430.0 34 35 26 27 32 27 26 28 26 23
2470.0 20 24 32 32 29 24 24 23 19 14
2510.0 19 29 26 26 33 41 40 33 35 29
2550.0 28 34 29 33 37 33 27 33 35 34
2590.0 50 55 50 48 49 57 60 67 71 73
2630.0 76 74 75 86 92 101 110 118 130 137
2670.0 137 140 146 149 156 163 165 171 182 194
2710.0 199 207 222 237 252 265 282 290 299 309
2750.0 320 328 337 356 366 377 398 412 432 457
2790.0 486 521 544 577 624 687 763 849 958 1107
2830.0 1298 1538 1821 2122 2460 2808 3148 3488 3867 4300
2870.0 4777 5285 5716 5919 5919 5843 5755 5793 6044 6461
2910.0 6970 7515 8078 8639 9172 9627 9935 10000 9744 9281
2950.0 8811 8448 8307 8452 8622 8391 7782 6896 5724 4586
2990.0 3745 3151 2707 2390 2151 1966 1833 1724 1631 1532
3030.0 1425 1321 1191 1044 909 797 701 608 521 455
3070.0 406 368 335 310 283 266 241 222 206 195
3110.0 200 175 149 142 135 130 119 109 103 107
3150.0 102 85 79 71 74 76 75 71 68 72
3190.0 64 58 63 70 52 39 31 31 37 36
3230.0 38 27 23 31 30 29 22 14 11 20
3270.0 29 21 17 13 13 7 4 15 12 8
3310.0 4 0 6 7 10 14 10 6 4 6
3350.0 11 9 13 14 20 17 18 27 36 38
3390.0 43 34 29 37 40 34 29 39 40 31
3430.0 39 41 42 48 40 37 46 55 56 47
3470.0 42 34 34 36 40 41 43 42 38 53
3510.0 52 47 51 43 47 57 65 66 59 59
3550.0 73 74 77 68 63 75 75 77 90 105
3590.0 121 143 165 198 259 345 415 453 467 484
3630.0 486 478 477 489 533 604 698 796 894 949
3670.0 923 844 735 588 448 351 285 229 185 156
3710.0 134 119 110 100 90 88 89 87 84 90
3750.0 83 69 60 58 53 56 72 68 57 55
3790.0 64 58 59 63 68 61 48 52 47 49
3830.0 56 61 69 78 65
##END=
