##TITLE=Bis(3,4-dichlorophenylthio)methane
##JCAMP-DX=4.24
##DATA TYPE=INFRARED SPECTRUM
##ORIGIN=EPA-IR VAPOR PHASE LIBRARY
##OWNER=SRD/NIST
Collection (C) 2018 copyright by the U.S. Secretary of Commerce
on behalf of the United States of America. All rights reserved.
##CAS REGISTRY NO=106241-40-1
##MOLFORM=C 13 H 8 Cl 4 S 2
##$NIST SOURCE=MSDC-IR
##STATE=gas
##XUNITS=1/CM
##YUNITS=ABSORBANCE
##XFACTOR=1.
##YFACTOR=0.001
##DELTAX=1.92898
##FIRSTX=549.8
##LASTX=4000.7
##FIRSTY=5.664
##MAXX=4000.7
##MINX=549.759
##MAXY=0.063494
##MINY=0
##NPOINTS=1790
##XYDATA=(X++(Y..Y))
549.759 5.664 6.554 7.864 8.734 9.614 10.114 10.214 10.724 10.464 10.474
569.049 9.764 8.964 8.894 8.044 6.794 5.904 5.064 4.564 4.244 3.294
588.339 2.624 2.664 2.504 1.964 1.3347 1.0433 1.7944 2.114 2.004 2.004
607.628 1.8481 1.6199 1.6112 1.8683 1.954 1.7892 1.3585 1.0761 1.2577 1.491
626.918 1.7124 1.4724 0.931634 0.8728 1.079 1.4333 1.6881 1.6987 1.6434 1.6188
646.208 1.7701 1.6531 1.3544 1.678 2.254 2.604 2.474 2.414 2.834 3.654
665.498 4.304 4.894 6.874 9.844 12.694 14.094 13.744 11.984 9.524 6.904
684.787 5.054 4.614 4.634 4.604 4.824 5.404 5.584 5.684 5.744 5.714
704.077 6.134 6.454 6.474 6.364 6.594 7.264 7.384 7.214 6.954 6.534
723.367 5.954 5.194 5.164 4.724 3.994 4.134 3.804 3.484 3.274 3.044
742.657 2.984 2.594 2.274 2.074 2.044 1.7613 1.6509 2.014 2.374 2.604
761.947 2.064 2.064 2.284 2.214 2.214 2.564 3.164 3.754 4.214 4.224
781.236 4.354 4.534 5.214 5.894 6.514 7.874 9.624 11.714 14.144 16.874
800.526 19.704 22.394 25.414 28.424 31.334 33.884 35.104 34.424 31.814 27.254
819.816 21.414 16.854 13.674 11.004 10.344 9.834 8.724 7.834 6.904 5.954
839.106 5.164 4.674 4.604 4.624 4.294 4.004 3.804 3.794 4.144 4.414
858.395 4.184 4.034 4.524 5.384 5.474 5.444 5.924 6.414 7.044 7.834
877.685 8.764 8.574 7.864 7.204 6.084 5.504 4.514 3.454 2.924 2.724
896.975 2.624 2.354 2.114 1.934 1.6813 1.3501 1.4865 1.7076 1.6618 1.6201
916.265 1.4595 1.1513 0.95455 1.1941 1.2104 1.1297 1.1904 0.93671 1.0241 1.00256
935.555 0.848 0.96605 1.1719 1.2549 1.5588 1.6467 1.5869 1.6577 1.3505 1.3286
954.844 1.2602 1.1494 1.7572 1.7189 1.3741 1.2888 1.168 1.2848 1.2367 1.647
974.134 1.2871 0.744 1.3173 1.5448 1.298 1.7493 2.094 1.7574 1.0403 1.1441
993.424 1.974 1.9169 1.5456 1.3323 1.2056 1.4666 1.9024 2.574 3.134 3.184
1012.714 3.994 4.784 5.094 6.344 8.134 10.444 13.794 17.464 22.074 27.164
1032.003 30.694 31.904 29.804 23.914 17.544 12.864 10.104 8.464 6.674 5.354
1051.293 4.594 3.964 3.194 3.724 3.954 2.744 2.944 3.134 2.744 2.584
1070.583 2.864 3.914 4.104 3.794 3.364 4.004 4.724 5.074 7.554 9.034
1089.873 9.764 12.304 14.234 15.194 15.634 13.914 11.944 10.684 10.094 11.354
1109.163 12.954 14.264 15.044 16.924 19.404 20.524 21.524 21.834 21.974 22.454
1128.452 22.814 22.254 21.354 20.904 20.064 19.864 20.824 20.934 20.364 20.844
1147.742 20.344 17.984 16.374 14.724 12.824 10.534 8.254 7.614 6.634 5.564
1167.032 4.524 3.604 3.444 3.464 3.964 4.284 3.874 3.714 3.874 4.914
1186.322 7.464 10.084 12.204 14.784 18.464 21.204 21.314 20.844 17.984 12.714
1205.611 8.324 6.334 5.404 3.404 2.944 2.924 2.214 1.7066 1.3463 1.161
1224.901 1.8498 2.854 2.374 1.7277 2.054 3.094 3.884 4.144 4.964 5.514
1244.191 5.634 5.774 5.724 4.984 4.424 4.244 3.664 3.244 2.844 2.454
1263.481 2.444 2.084 1.5626 1.5366 1.649 1.7057 1.8021 1.5948 1.1558 1.1865
1282.771 1.189 1.0902 0.8271 0.6 0.687 0.771 0.96943 0.99659 0.9 0.803
1302.060 1.0955 1.3097 1.1238 1.2434 1.4257 1.5653 1.491 1.3587 1.3316 1.371
1321.350 1.5053 1.6005 1.5937 1.5826 1.7089 1.7079 1.9022 2.344 2.624 2.904
1340.640 3.294 3.824 4.444 5.454 6.624 7.874 9.304 10.694 12.094 13.284
1359.930 14.034 14.304 14.114 13.464 12.424 11.404 10.534 9.684 8.984 8.484
1379.219 8.194 7.874 7.704 7.524 7.234 7.104 7.144 6.904 6.524 6.454
1398.509 6.424 6.294 6.214 6.234 6.134 5.924 5.934 5.934 5.804 5.904
1417.799 6.264 6.694 7.454 8.404 9.304 10.394 11.714 13.024 14.464 16.034
1437.089 17.624 19.204 20.894 22.604 24.884 27.904 31.684 36.384 42.264 48.954
1456.378 55.944 61.704 63.494 60.054 51.354 39.664 28.354 19.434 13.494 9.684
1475.668 7.404 5.984 5.134 4.524 4.134 4.044 4.044 3.924 3.624 3.494
1494.958 3.534 3.424 3.294 3.254 3.284 3.314 3.274 2.954 2.794 2.764
1514.248 2.674 2.604 2.534 2.664 2.934 3.094 3.244 3.624 3.934 4.404
1533.538 5.174 6.124 7.144 8.254 9.314 9.934 10.384 10.234 9.454 8.584
1552.827 7.804 6.954 6.454 6.514 6.914 7.214 7.414 7.614 7.814 7.644
1572.117 7.144 6.704 5.934 5.104 4.624 4.124 3.624 3.184 2.854 2.734
1591.407 2.514 2.434 2.334 2.334 2.264 1.994 2.174 2.294 2.044 2.024
1610.697 2.204 2.114 1.984 2.044 1.954 1.8423 1.843 1.954 2.124 2.004
1629.986 1.8123 1.5918 1.4721 1.7003 1.6327 1.5326 1.6271 1.4878 1.1661 1.1241
1649.276 1.1737 1.234 1.1967 0.97646 1.0315 1.2695 1.315 1.1333 1.0986 1.1994
1668.566 1.3597 1.2768 1.1564 1.2511 1.1456 1.0805 1.1017 1.0967 1.2262 1.2474
1687.856 1.0359 0.8606 0.95661 1.1395 1.096 1.1517 1.3453 1.3824 1.2909 1.2339
1707.146 1.1892 1.1593 1.1656 1.1315 1.2875 1.3073 1.2624 1.2928 1.35 1.399
1726.435 1.435 1.4456 1.2425 1.2882 1.4988 1.5524 1.5971 1.6003 1.5683 1.5898
1745.725 1.6823 1.8082 1.6874 1.7089 1.8933 1.8552 1.934 1.974 1.7959 1.7193
1765.015 1.616 1.4681 1.4446 1.3597 1.2381 1.1364 1.2676 1.4753 1.3253 1.1979
1784.305 1.2902 1.3403 1.1948 0.99732 1.0294 1.0926 1.1301 1.1732 1.1509 1.1929
1803.594 1.1872 1.1736 1.115 1.1129 1.2045 1.0797 1.0473 1.2337 1.3025 1.0998
1822.884 1.0976 1.2438 1.1796 1.1307 1.1225 1.0835 1.00787 1.0368 0.95615 0.8707
1842.174 0.9548 1.0648 1.0491 0.95843 0.8668 0.745 0.782 0.91737 1.0516 1.0677
1861.464 1.0508 1.083 1.0924 1.1153 1.1514 1.2973 1.4313 1.4059 1.4885 1.5989
1880.754 1.67 1.7567 1.7865 1.8507 1.846 1.8722 1.9163 1.8033 1.6645 1.6061
1900.043 1.518 1.3625 1.2966 1.2584 1.2407 1.2097 1.1339 1.1093 1.0884 1.0156
1919.333 0.8634 0.735 0.775 0.8804 0.9076 0.9009 0.866 0.926432 1.0639 0.9693
1938.623 0.9911 1.0922 0.98211 0.8638 0.94611 0.97475 0.96919 0.94553 0.9123 1.00681
1957.913 0.926026 0.8744 0.8865 0.8271 0.803 0.761 0.8463 1.00478 1.01529 1.0381
1977.202 1.0713 0.98262 0.8682 0.92138 0.9097 0.718 0.632 0.731 0.8299 0.8251
1996.492 0.8471 0.866 0.9083 0.97438 0.94469 0.99258 0.98563 0.932142 0.8889 0.693
2015.782 0.744 0.91685 0.799 0.751 0.8559 0.9538 1.01835 0.8578 0.793 0.861
2035.072 0.93961 0.9001 0.77 0.8597 0.8691 0.8905 0.929115 0.98065 1.0075 1.00276
2054.362 0.924421 0.782 0.814 0.8452 0.792 0.77 0.715 0.8596 0.97769 0.8376
2073.651 0.725 0.696 0.752 0.823 0.8841 0.8726 1.01497 1.00173 0.808 0.8968
2092.941 0.927762 0.8711 1.00438 0.8742 0.806 0.804 0.8339 0.8396 0.65 0.741
2112.231 0.8252 0.8709 0.8956 0.8526 0.675 0.665 0.928145 0.95822 0.8626 0.8699
2131.521 0.95691 1.0573 0.96828 0.8587 0.787 0.774 0.8572 0.8514 0.8837 0.8374
2150.810 0.82 0.763 0.629 0.663 0.779 0.8942 1.0433 0.96625 0.82 0.788
2170.100 0.808 0.8528 0.781 0.8794 1.029 1.0832 0.923342 0.798 0.862 0.8422
2189.390 0.822 0.77 0.76 0.8568 0.8906 0.665 0.572 0.783 0.822 0.8982
2208.680 0.97102 0.792 0.681 0.808 0.932112 1.01174 1.00335 0.8685 0.9139 0.8936
2227.970 0.715 0.742 0.79 0.747 0.754 0.82 0.8573 0.792 0.8858 1.01953
2247.259 0.9084 0.771 0.8246 0.933164 0.8503 0.8442 0.824 0.637 0.684 0.794
2266.549 0.98838 1.0311 0.751 0.785 0.8477 0.833 0.96414 1.0604 0.8977 0.722
2285.839 0.8519 1.037 1.0526 1.0345 1.0979 1.0559 0.95746 1.1113 1.2042 1.00275
2305.129 0.8263 0.779 0.873 1.0454 1.0532 0.98091 0.93838 0.8519 0.9098 0.91781
2324.418 0.9007 0.99788 1.037 0.96892 0.8668 0.98405 1.0318 0.96856 0.93982 0.877
2343.708 0.96709 1.0372 0.928774 1.00231 1.1131 1.1723 1.2854 1.0717 0.97165 1.00656
2362.998 1.0527 1.0333 0.8556 0.95194 1.1167 1.01656 0.8258 0.94876 1.00985 1.01029
2382.288 1.0549 0.93928 0.8994 0.8801 0.8811 0.726 0.671 0.9022 0.99888 0.96117
2401.578 0.9268 0.931904 0.923366 0.927302 0.96337 0.9123 0.771 0.8296 0.823 0.8809
2420.867 0.96057 0.781 0.793 0.756 0.751 0.701 0.788 0.8274 0.589 0.525
2440.157 0.761 0.92065 0.709 0.638 0.8674 0.99036 0.912 0.8455 0.93673 1.0476
2459.447 0.96748 0.94032 1.0266 0.99707 1.00413 0.9669 0.97924 0.8521 0.728 1.0428
2478.737 1.0811 0.8929 0.99476 1.0769 0.96005 0.96405 1.0323 0.8537 0.921 1.0459
2498.026 1.0786 1.2782 1.1809 1.127 1.1515 0.99058 0.853 0.771 0.792 0.94476
2517.316 0.94234 0.803 0.736 0.708 0.75 0.859 0.93566 0.883 0.712 0.661
2536.606 0.549 0.571 0.623 0.601 0.712 0.779 0.77 0.655 0.781 0.749
2555.896 0.697 0.769 0.756 0.674 0.718 0.91916 0.94725 0.8909 0.794 0.9016
2575.186 0.8418 0.748 0.8721 0.8742 0.8563 0.8308 1.0308 1.303 1.2513 1.1216
2594.475 1.0853 1.0942 1.01696 0.98948 1.1567 1.2285 1.1016 0.98886 0.924087 0.9079
2613.765 0.8473 0.8551 0.926083 0.8534 0.9033 0.929405 0.8267 0.8799 0.9105 0.98041
2633.055 0.91766 0.785 0.793 0.776 0.809 0.762 0.767 1.0591 1.2423 0.98088
2652.345 0.752 0.747 0.8291 0.8737 0.8285 0.727 0.76 0.8296 0.654 0.789
2671.634 0.98115 0.697 0.59 0.709 0.798 0.852 0.8881 0.8748 0.699 0.595
2690.924 0.608 0.8909 1.0454 1.0991 1.0927 0.923668 0.9132 0.97311 1.0697 0.727
2710.214 0.748 1.044 1.0441 0.94744 0.97603 1.1465 1.0425 1.02097 0.762 0.612
2729.504 0.662 0.67 0.796 0.9821 1.1999 1.1216 0.8278 0.801 0.783 0.793
2748.794 0.9109 0.749 0.931142 1.1358 1.0408 1.0623 0.98007 0.929078 0.9939 0.9432
2768.083 0.8671 0.930144 1.0488 1.01775 0.8468 0.8672 1.00211 1.0639 1.1585 1.2765
2787.373 1.2637 1.02313 0.9915 0.99751 0.92105 1.1572 1.1813 1.0697 1.2124 1.1506
2806.663 0.801 0.98772 0.8503 0.462 0.614 0.97678 1.1065 0.8324 0.9077 0.8964
2825.953 0.771 1.0191 1.0454 0.96959 1.0271 0.96561 1.153 1.1411 0.93961 1.0263
2845.242 1.0759 0.8472 0.718 0.807 0.784 0.672 0.729 0.727 0.728 0.723
2864.532 0.317 0.509 0.8957 0.8432 0.804 0.527 0.545 0.625 0.52 0.53
2883.822 0.564 0.8287 0.928016 0.9827 1.062 1.1591 1.182 1.0377 1.0882 1.0323
2903.112 0.97277 0.8577 0.79 1.1183 1.2432 0.95386 0.9134 1.2425 1.416 1.7924
2922.401 2.234 2.154 2.384 2.864 2.944 2.864 2.964 3.134 2.914 2.234
2941.691 1.7778 1.5427 1.3328 0.95755 0.749 1.0716 1.1751 1.0495 1.1757 1.1044
2960.981 1.0501 1.1574 1.0583 0.97868 1.0449 1.039 1.01421 1.1364 1.2569 1.2067
2980.271 1.0761 1.3432 1.1982 0.95605 1.1043 1.00291 1.1887 1.3233 0.98379 0.659
2999.561 0.8337 1.1067 1.01655 0.715 0.465 0.494 0.642 1.14 1.3185 1.0493
3018.850 1.01396 0.93669 1.2104 1.1944 0.864 1.1521 1.175 0.8416 1.01149 1.0698
3038.140 0.8267 1.0762 1.2881 1.1261 1.1103 1.4668 1.8814 2.014 1.7244 1.842
3057.430 2.134 2.024 2.204 2.214 2.044 2.084 2.054 1.964 1.8269 1.6613
3076.720 1.7373 2.114 2.154 1.8188 1.7164 1.7093 1.6962 1.6107 1.6328 1.5775
3096.009 1.1419 1.0416 1.1104 1.2765 1.2428 0.783 0.789 1.01668 1.1521 1.1343
3115.299 1.1829 1.1677 0.95768 0.726 1.01944 1.3391 1.1674 1.2479 1.1559 0.95776
3134.589 0.857 0.688 0.649 0.686 0.693 0.766 1.0513 1.112 0.8541 0.819
3153.879 0.742 0.8796 0.97083 0.724 0.669 0.703 0.406 0.445 0.615 0.665
3173.169 0.96843 0.95337 0.8828 1.194 1.4477 1.2072 0.99866 0.99106 0.69 0.781
3192.458 1.00098 0.778 0.628 0.782 0.8971 1.0395 1.1133 0.728 0.488 0.263
3211.748 0.354 0.791 0.754 0.574 0.657 0.91648 0.718 0.428 0.521 0.738
3231.038 0.97895 1.0356 1.0368 0.99578 0.664 0.536 0.8703 0.8559 0.396 0.392
3250.328 0.823 0.8549 0.8701 0.862 0.735 0.539 0.424 0.622 0.797 0.9012
3269.617 0.756 0.649 0.8929 0.8533 0.667 0.651 0.67 0.709 0.623 0.605
3288.907 0.651 0.437 0.713 0.98801 0.726 0.781 0.924935 0.8654 0.68 0.486
3308.197 0.312 0.657 0.96289 0.803 0.615 0.743 0.678 0.746 0.815 0.667
3327.487 0.79 0.714 0.797 0.8822 0.582 0.186 0.242 0.56 0.91897 1.01279
3346.777 0.95944 0.657 0.294 0.178 0.191 0.548 0.68 0.763 1.00802 0.98367
3366.066 0.94668 0.767 0.584 0.602 0.645 0.669 0.93954 0.930464 0.731 0.91598
3385.356 0.8855 0.71 0.77 0.98876 0.8436 0.731 0.669 0.529 0.806 0.99546
3404.646 0.95112 1.1313 1.0921 0.755 0.537 0.716 1.0986 0.92018 0.57 0.718
3423.936 0.8805 0.773 0.732 0.664 0.766 0.69 0.631 0.626 0.658 0.764
3443.225 0.8677 0.96698 0.8411 0.8463 0.8547 0.645 0.55 0.784 0.626 0.515
3462.515 0.588 0.672 1.01447 1.0298 0.569 0.302 0.176 0.364 0.35 0.361
3481.805 0.539 0.244 0.446 0.606 0.455 0.534 0.611 0.555 0.313 0.345
3501.095 0.349 0.631 1.01823 0.636 0.188 0.248 0.29 0.423 0.548 0.57
3520.385 0.8996 1.1163 1.221 1.1283 1.0293 1.1575 1.00416 0.91707 0.93776 0.801
3539.674 0.8838 0.9107 0.755 0.591 0.505 0.634 0.52 0.747 1.1302 0.8494
3558.964 0.96424 1.209 0.92505 0.637 0.647 0.562 0.743 1.0841 0.8817 0.335
3578.254 0.339 0.653 0.736 0.807 0.97937 0.9127 0.682 0.478 0.55 0.8327
3597.544 0.9084 0.95813 0.698 0.528 0.456 0.343 0.702 0.92412 0.8602 0.728
3616.833 0.593 0.8661 0.8757 0.754 0.657 0.495 0.54 0.355 0.422 0.727
3636.123 0.719 0.8458 0.658 0.9012 1.049 0.467 0.153 0.215 0.719 1.00858
3655.413 1.041 0.8407 1.0567 0.98485 0.592 0.8746 0.8751 0.677 0.712 0.574
3674.703 0.675 0.94654 1.1156 0.747 0.305 0.442 0.434 0.733 1.1285 1.00967
3693.993 0.752 0.773 0.651 0.771 1.312 1.2486 0.95453 0.68 0.288 0.037
3713.282 0.191 0.576 0.796 0.607 0.628 0.8702 0.9297 0.778 0.697 0.712
3732.572 0.384 0.438 0.578 0.655 0.774 0.662 0.79 0.98588 1.0702 0.97993
3751.862 0.8982 1.2548 1.429 1.2659 1.4865 1.4574 1.0984 0.436 0 0.346
3771.152 0.672 0.71 0.711 0.812 0.94135 1.0521 1.215 1.01694 0.8896 1.01094
3790.441 0.658 0.584 0.565 0.164 0.37 1.01451 0.722 0.379 0.608 0.571
3809.731 0.482 0.64 0.673 0.426 0.229 0.443 1.029 1.2231 0.715 0.486
3829.021 0.8477 0.555 0.22 0.702 0.817 0.493 0.491 0.714 0.723 0.552
3848.311 0.666 0.823 0.755 0.92137 1.2073 0.98224 0.8282 0.774 0.9055 0.838
3867.601 0.755 0.93977 0.797 0.8813 0.928464 0.361 0.323 0.777 0.775 0.802
3886.890 0.93844 0.94757 0.754 0.652 0.494 0.484 0.91521 1.1712 0.571 0.685
3906.180 1.1382 0.609 0.757 0.8 0.235 0.182 0.201 0.468 0.737 0.78
3925.470 0.661 0.483 0.535 0.619 0.95158 1.1082 0.809 0.749 0.804 0.556
3944.760 0.7 0.91629 0.627 0.711 0.8259 0.712 0.8705 1.00135 0.806 0.777
3964.049 0.99776 0.657 0.383 0.62 0.496 0.502 0.8407 0.632 0.643 0.929866
3983.339 1.1065 1.1918 0.96489 0.678 0.714 0.76 0.756 0.95428 1.0609 1.2598
##END=
