##TITLE=3,3-Diethylpentane
##JCAMP-DX=4.24
##DATA TYPE=INFRARED SPECTRUM
##ORIGIN=NIST Mass Spectrometry Data Center
##OWNER=NIST Standard Reference Data Program
Collection (C) 2018 copyright by the U.S. Secretary of Commerce
on behalf of the United States of America. All rights reserved.
##CAS REGISTRY NO=1067-20-5
##MOLFORM=C 9 H 20
##$NIST SOURCE=MSDC-IR
##SPECTROMETER/DATA SYSTEM=HP-GC/MS/IRD
##STATE=gas
##XUNITS=1/CM
##YUNITS=ABSORBANCE
##XFACTOR=1.0
##YFACTOR=0.000002600
##DELTAX=4.0
##FIRSTX=550.0
##LASTX=3846.0
##FIRSTY=0.000816
##MAXX=3846
##MINX=550
##MAXY=0.026
##MINY=0
##NPOINTS=825
##XYDATA=(X++(Y..Y))
550.0 314 102 14 67 39 23 47 78 92 83
590.0 59 70 66 67 83 80 76 49 38 50
630.0 25 31 65 58 42 73 101 114 84 52
670.0 75 75 54 78 90 77 80 73 83 94
710.0 89 97 91 100 123 118 115 128 133 173
750.0 212 252 315 358 358 346 343 323 270 220
790.0 185 157 159 152 119 120 132 118 110 104
830.0 113 124 102 103 115 116 114 107 108 117
870.0 141 180 207 255 329 414 512 618 692 686
910.0 620 534 441 351 278 229 200 191 182 159
950.0 136 131 126 115 118 117 113 110 105 96
990.0 109 127 140 149 166 200 231 254 277 304
1030.0 307 305 288 262 222 173 150 127 109 111
1070.0 105 107 126 128 114 105 109 108 106 95
1110.0 87 93 95 89 98 103 112 128 116 128
1150.0 144 153 184 202 207 209 213 204 186 180
1190.0 166 150 141 125 111 126 136 123 124 135
1230.0 136 145 159 157 151 151 151 149 157 167
1270.0 185 212 239 248 271 299 300 298 290 271
1310.0 250 231 216 212 213 213 221 242 255 263
1350.0 292 328 364 416 504 654 815 948 1035 1032
1390.0 922 742 554 404 312 262 251 267 273 282
1430.0 315 388 496 642 843 1074 1343 1580 1729 1799
1470.0 1655 1418 1182 917 688 522 407 339 302 294
1510.0 274 246 239 231 217 203 199 205 215 203
1550.0 194 199 208 190 181 190 182 174 171 173
1590.0 164 150 145 140 136 130 137 143 139 142
1630.0 138 138 136 139 152 161 160 139 127 121
1670.0 132 137 129 143 138 118 121 129 125 112
1710.0 107 112 115 100 94 108 117 109 100 109
1750.0 114 103 99 100 102 99 93 89 93 87
1790.0 85 95 100 99 92 86 81 81 83 83
1830.0 78 78 82 88 90 86 83 78 74 81
1870.0 78 71 72 68 64 64 62 63 68 72
1910.0 65 60 68 69 58 54 58 63 64 61
1950.0 60 58 60 62 58 53 56 60 57 62
1990.0 65 61 63 60 55 54 59 61 58 63
2030.0 69 67 63 58 57 62 66 65 60 56
2070.0 54 54 52 56 52 48 51 55 59 59
2110.0 55 57 57 58 55 54 56 52 48 48
2150.0 52 50 47 48 52 47 45 48 46 43
2190.0 39 42 43 43 46 47 48 45 47 51
2230.0 49 46 43 45 47 46 41 42 43 49
2270.0 53 42 38 47 54 56 60 57 49 48
2310.0 54 57 59 68 73 74 71 66 65 67
2350.0 71 76 78 83 89 89 87 75 65 64
2390.0 59 53 51 49 48 51 52 48 48 49
2430.0 46 46 43 46 43 34 36 36 44 46
2470.0 44 50 46 45 40 37 37 32 30 29
2510.0 34 36 30 33 38 38 33 34 36 24
2550.0 31 45 49 53 53 50 50 50 52 54
2590.0 56 66 77 75 76 86 99 104 101 107
2630.0 116 118 118 116 108 107 104 105 106 101
2670.0 109 120 121 135 131 115 120 122 117 117
2710.0 124 137 142 142 155 170 192 220 239 245
2750.0 251 236 226 227 223 216 224 248 262 265
2790.0 283 297 316 346 367 391 413 436 468 498
2830.0 534 594 672 770 901 1090 1338 1665 2058 2463
2870.0 2909 3331 3690 4022 4314 4498 4516 4447 4379 4438
2910.0 4758 5358 6162 6995 7707 8173 8377 8327 8076 7815
2950.0 7634 7622 7924 8538 9423 10000 9779 8943 7558 5910
2990.0 4388 3206 2387 1844 1476 1195 1003 879 780 710
3030.0 658 618 586 550 531 516 508 497 484 480
3070.0 479 481 474 461 447 428 411 395 373 341
3110.0 314 298 280 271 263 237 224 222 212 198
3150.0 196 195 179 170 164 159 154 141 124 118
3190.0 116 114 113 104 98 90 81 79 91 100
3230.0 84 78 83 87 83 78 78 71 70 79
3270.0 81 78 80 72 55 46 46 58 55 57
3310.0 69 50 37 36 39 48 41 39 41 38
3350.0 41 34 24 35 51 47 39 38 24 8
3390.0 23 36 31 32 28 24 32 39 32 28
3430.0 28 31 31 20 12 6 4 22 30 12
3470.0 13 25 22 15 21 26 27 34 32 17
3510.0 12 26 29 21 14 7 21 26 24 27
3550.0 17 19 9 4 17 15 15 18 22 44
3590.0 43 27 19 12 15 18 29 34 33 51
3630.0 60 54 33 22 41 56 41 25 33 34
3670.0 30 34 27 24 23 24 29 31 21 17
3710.0 24 7 1 4 17 11 36 39 25 39
3750.0 39 36 20 3 10 21 24 16 11 23
3790.0 17 4 10 25 24 24 29 37 42 13
3830.0 0 15 25 15 18
##END=
