##TITLE=Methyl diethylphosphonoacetate
##JCAMP-DX=4.24
##DATA TYPE=INFRARED SPECTRUM
##ORIGIN=EPA-IR VAPOR PHASE LIBRARY
##OWNER=SRD/NIST
Collection (C) 2018 copyright by the U.S. Secretary of Commerce
on behalf of the United States of America. All rights reserved.
##CAS REGISTRY NO=1067-74-9
##MOLFORM=C 7 H 15 O 5 P
##$NIST SOURCE=MSDC-IR
##STATE=gas
##XUNITS=1/CM
##YUNITS=ABSORBANCE
##XFACTOR=1.
##YFACTOR=0.001
##DELTAX=1.92898
##FIRSTX=549.8
##LASTX=4000.7
##FIRSTY=5.404
##MAXX=4000.7
##MINX=549.759
##MAXY=0.185314
##MINY=0
##NPOINTS=1790
##XYDATA=(X++(Y..Y))
549.759 5.404 4.854 5.154 5.244 4.964 4.954 4.054 3.814 4.164 4.004
569.049 4.084 4.214 4.254 4.304 4.124 4.614 5.004 5.024 5.144 4.754
588.339 5.094 5.754 6.004 6.484 7.824 8.844 9.544 10.664 11.764 12.784
607.628 13.794 13.884 13.774 14.114 13.764 12.354 11.484 10.974 9.314 7.894
626.918 6.884 6.504 6.094 5.254 4.324 4.174 4.664 3.694 3.094 3.134
646.208 3.044 2.834 3.074 3.234 2.704 2.764 2.504 2.414 2.704 2.364
665.498 2.544 3.044 2.484 1.904 2.084 2.744 2.854 2.404 2.454 2.714
684.787 2.594 2.734 2.864 2.884 3.014 3.134 3.944 4.884 5.044 4.764
704.077 5.014 5.714 5.954 6.104 6.074 6.114 5.994 6.114 6.674 6.724
723.367 6.664 6.664 6.444 6.694 7.184 6.954 7.024 7.274 7.584 7.974
742.657 8.314 8.854 9.524 9.694 9.794 10.604 11.594 12.874 13.274 13.454
761.947 14.524 16.334 18.324 19.274 20.484 21.794 22.614 23.844 24.204 23.764
781.236 23.004 21.584 20.174 19.264 18.084 16.744 16.184 15.684 15.364 15.214
800.526 14.674 14.424 14.884 15.254 15.424 15.734 16.244 16.414 17.104 18.124
819.816 18.614 18.634 18.304 18.914 19.604 20.014 20.864 20.994 19.774 18.944
839.106 18.604 18.104 17.424 16.454 15.264 14.574 13.674 12.214 11.774 11.644
858.395 11.264 10.824 11.364 11.564 11.194 11.304 11.354 12.064 12.944 13.534
877.685 14.174 14.644 15.394 16.664 17.664 18.254 18.554 19.234 19.604 19.254
896.975 18.194 16.944 16.264 15.374 15.174 15.274 14.804 14.854 14.884 15.394
916.265 16.354 17.074 18.494 20.134 21.924 23.764 26.384 29.714 33.014 36.814
935.555 41.564 46.984 52.504 57.784 62.814 67.834 72.414 76.554 80.384 83.314
954.844 85.184 86.014 85.514 83.504 80.484 77.224 72.934 68.334 64.254 59.144
974.134 53.964 49.524 45.054 40.494 36.634 33.364 31.064 30.064 28.974 28.634
993.424 28.704 29.064 30.024 31.304 33.914 37.204 40.234 44.434 50.084 56.524
1012.714 63.614 71.774 80.654 90.944 103.594 116.424 129.414 142.324 153.124 162.994
1032.003 172.574 180.214 183.794 185.314 185.234 180.784 175.154 169.184 162.564 157.234
1051.293 153.444 150.514 147.644 145.544 143.304 139.054 132.264 125.544 118.244 109.314
1070.583 100.954 91.164 82.044 75.954 69.304 63.754 60.564 58.044 56.054 54.944
1089.873 56.594 58.884 59.584 60.684 61.764 62.474 63.734 64.484 64.114 64.384
1109.163 64.414 64.094 64.674 66.284 67.194 65.424 63.544 61.444 58.114 54.154
1128.452 50.394 47.164 44.034 41.164 38.614 35.554 33.454 31.544 30.414 30.334
1147.742 29.834 29.134 28.674 28.104 27.024 26.594 26.464 25.774 25.644 25.894
1167.032 25.184 24.374 23.694 23.074 23.624 23.364 21.404 21.084 21.374 20.404
1186.322 19.764 20.914 21.784 20.694 20.144 20.644 21.024 20.954 22.244 23.524
1205.611 23.704 23.974 24.364 25.984 26.734 26.124 27.164 29.434 29.564 29.764
1224.901 30.184 31.694 34.944 37.094 38.164 39.744 41.804 44.234 46.674 49.684
1244.191 52.084 54.884 58.314 62.154 66.454 69.944 73.614 77.824 81.914 85.504
1263.481 89.504 95.004 100.974 105.984 112.354 120.234 128.194 136.724 144.024 148.554
1282.771 151.404 151.334 147.784 141.394 132.854 122.914 112.314 101.634 91.494 82.474
1302.060 74.434 67.104 60.484 54.544 49.064 44.164 39.664 35.564 31.794 28.424
1321.350 25.484 22.934 20.784 18.774 16.914 15.534 14.344 13.074 12.114 11.504
1340.640 10.704 10.094 9.754 9.424 9.114 8.754 8.654 8.724 8.774 8.804
1359.930 9.104 9.624 9.934 10.364 10.934 11.414 11.984 12.234 12.344 12.404
1379.219 12.644 13.364 14.204 15.154 16.354 17.774 19.134 20.444 21.474 22.054
1398.509 22.074 21.644 20.894 19.794 18.384 16.894 15.434 14.144 13.374 12.694
1417.799 12.204 11.704 11.554 12.044 12.864 13.954 15.654 18.004 20.274 22.044
1437.089 23.424 24.154 23.824 22.784 20.914 18.044 15.344 13.604 12.414 11.464
1456.378 10.774 10.124 9.814 9.414 8.924 8.674 8.464 8.314 7.964 7.654
1475.668 7.554 7.164 6.844 6.694 6.554 6.254 6.144 5.994 5.754 5.494
1494.958 5.144 5.094 4.814 4.644 4.664 4.494 4.454 4.264 4.024 3.884
1514.248 3.524 3.514 3.814 3.844 3.564 3.234 3.204 3.234 3.324 3.314
1533.538 3.234 3.274 3.144 2.994 2.944 2.914 2.944 3.144 3.314 3.054
1552.827 2.864 2.734 2.704 2.764 2.834 2.704 2.494 2.694 2.804 2.704
1572.117 2.664 2.814 2.754 2.334 2.464 2.854 2.674 2.554 2.624 2.604
1591.407 2.394 2.134 2.334 2.384 2.534 2.874 2.894 2.544 2.334 2.424
1610.697 2.384 2.374 2.274 2.374 2.704 2.704 2.514 2.494 2.404 2.314
1629.986 2.294 2.444 2.544 2.344 2.334 2.484 2.624 2.594 2.604 2.604
1649.276 2.644 2.624 2.704 2.964 2.914 3.014 3.214 3.234 3.234 3.464
1668.566 3.394 3.334 3.554 3.674 3.544 3.394 3.384 3.554 3.884 4.084
1687.856 4.404 4.514 4.544 4.934 5.174 5.374 5.834 6.114 6.234 6.684
1707.146 7.174 7.574 8.384 9.114 9.684 10.584 11.554 12.384 13.284 14.514
1726.435 15.894 17.324 19.034 20.834 23.234 25.974 29.094 33.114 37.694 43.324
1745.725 50.304 58.194 66.844 76.564 85.584 93.194 99.444 102.944 103.444 101.134
1765.015 95.994 88.694 79.854 70.994 62.214 54.334 47.404 41.104 35.594 30.894
1784.305 26.804 23.274 20.244 17.594 15.404 13.674 12.324 11.114 10.134 9.214
1803.594 8.274 7.604 7.254 6.684 6.164 5.954 5.624 5.264 4.984 4.814
1822.884 4.734 4.664 4.454 4.254 4.244 4.064 3.804 3.654 3.584 3.514
1842.174 3.624 3.644 3.344 3.274 3.104 2.894 2.914 2.924 2.864 2.724
1861.464 2.774 2.824 2.814 2.824 2.724 2.684 2.734 2.674 2.624 2.574
1880.754 2.384 2.324 2.344 2.464 2.634 2.554 2.434 2.444 2.304 2.134
1900.043 2.114 2.194 2.184 2.054 2.074 2.164 2.214 2.054 1.844 1.934
1919.333 2.064 2.004 1.924 1.894 1.854 1.954 2.164 2.094 1.914 1.904
1938.623 1.924 2.064 2.114 1.994 1.854 1.724 1.764 1.854 1.814 1.6934
1957.913 1.6724 1.6742 1.5812 1.5872 1.5338 1.3621 1.5015 1.6296 1.5433 1.5638
1977.202 1.6572 1.6114 1.4919 1.4082 1.3779 1.4247 1.5945 1.6437 1.605 1.794
1996.492 1.774 1.844 1.944 1.914 2.064 2.124 2.194 2.144 2.134 2.134
2015.782 2.094 2.104 2.014 2.014 2.054 2.044 2.064 2.114 2.174 2.024
2035.072 1.924 1.994 1.954 1.904 1.824 1.754 1.874 1.744 1.5346 1.4665
2054.362 1.4916 1.5764 1.361 1.2415 1.3155 1.4335 1.4751 1.5132 1.6101 1.5739
2073.651 1.6505 1.774 1.6692 1.744 1.864 1.814 1.734 1.4968 1.3409 1.3264
2092.941 1.4056 1.4976 1.4868 1.5057 1.5433 1.4202 1.2336 1.3595 1.545 1.4907
2112.231 1.4688 1.4124 1.2801 1.2343 1.4389 1.437 1.1262 1.0451 1.407 1.6449
2131.521 1.5389 1.5352 1.6226 1.6041 1.3892 1.4648 1.6423 1.6064 1.6257 1.3947
2150.810 1.3352 1.5188 1.497 1.4924 1.6014 1.4949 1.3911 1.3938 1.3121 1.3487
2170.100 1.1932 1.1269 1.2218 1.2345 1.3105 1.2509 1.3119 1.4555 1.3729 1.2499
2189.390 1.1981 1.2554 1.3815 1.4012 1.2042 1.2671 1.3147 1.1266 1.2253 1.297
2208.680 1.0767 0.9839 1.1118 1.1805 1.0498 0.8078 0.8162 1.0168 0.9874 0.9958
2227.970 1.0163 1.1064 1.0088 0.8643 0.8485 0.958 1.1985 0.9611 0.9615 1.2217
2247.259 1.1676 1.0559 1.043 0.865 0.6648 0.67 0.70622 0.77449 0.8956 0.983
2266.549 0.8561 0.8264 1.1007 1.2039 1.0744 0.9556 0.8464 0.9512 1.0453 0.9045
2285.839 0.9298 1.255 1.3629 1.1402 0.9036 0.9258 1.0559 0.9913 1.0121 1.0098
2305.129 1.022 1.1829 1.1255 1.0897 1.1176 0.9777 0.9726 1.0894 1.2675 1.2348
2324.418 1.1119 1.1653 1.0266 0.9052 1.1537 1.181 1.2706 1.4343 1.3903 1.3497
2343.708 1.2211 1.2842 0.9854 0.8371 0.9843 0.8538 0.9047 1.0812 0.9947 0.9055
2362.998 1.055 0.9891 0.8905 0.9873 0.9011 0.78551 0.9517 1.1503 1.0356 0.8504
2382.288 0.79139 0.75535 0.74532 0.831 1.0049 1.0085 1.0482 1.0821 0.9822 0.9521
2401.578 1.0729 1.1592 1.0586 0.972 0.9761 0.9248 0.74837 0.9383 1.1715 0.8838
2420.867 0.9576 1.0252 0.8174 0.79669 0.8419 0.874 0.78045 1.1451 1.3002 1.1173
2440.157 1.1174 1.2277 1.1994 0.954 0.9573 1.2205 1.2975 1.0175 0.9575 1.0722
2459.447 1.1272 0.9364 0.9157 1.1595 1.2411 1.3626 1.4308 1.2481 1.2131 1.0734
2478.737 0.9132 0.9896 0.8269 0.9899 1.1734 1.0337 1.0014 0.9568 1.0754 1.2655
2498.026 1.2969 1.1617 1.2103 1.2766 1.0835 1.0225 1.0996 1.1414 1.0455 1.0178
2517.316 1.1341 0.9989 0.75458 1.1155 1.2745 1.0507 0.9855 0.9383 0.8149 0.9298
2536.606 1.1223 1.134 1.3532 1.1582 0.8479 0.8454 0.924 0.9686 0.9717 1.0979
2555.896 1.2971 1.2628 1.0272 0.8927 1.0163 1.1299 0.9788 0.8948 0.79861 0.9977
2575.186 1.1442 0.9043 0.80328 0.8098 0.962 0.9674 1.1195 1.1456 1.0171 1.0884
2594.475 0.9756 0.8654 0.888 1.1401 1.1038 0.9169 0.9869 0.8196 0.8723 1.1056
2613.765 1.0895 1.1247 1.0582 0.8551 0.841 1.3126 1.4639 1.0492 0.9259 0.9417
2633.055 1.1653 1.5227 1.3904 0.8793 0.571 0.57 0.712383 0.80114 0.8306 0.8947
2652.345 0.8736 0.975 1.1861 1.212 1.135 1.2111 1.0709 0.8273 0.8281 0.9904
2671.634 1.2255 1.1183 0.9374 0.9977 0.9444 0.72799 0.8329 1.1929 1.2594 1.1533
2690.924 1.0585 0.8094 0.6901 0.75889 1.1391 1.1028 0.974 1.036 0.939 1.208
2710.214 1.0467 0.79395 0.77177 0.9097 1.1439 1.1111 1.0999 1.2342 1.3077 1.2705
2729.504 1.177 1.1726 1.4008 1.5257 1.4389 1.5585 1.5584 1.3307 1.3512 1.4948
2748.794 1.425 1.2045 1.173 1.5085 1.7014 1.5834 1.397 1.282 1.3938 1.744
2768.083 1.984 1.6776 1.303 1.6712 1.934 2.014 2.254 2.154 2.174 1.914
2787.373 1.794 1.914 2.014 2.324 2.224 1.824 1.5518 1.5795 1.6539 1.704
2806.663 1.764 1.924 2.164 2.294 2.274 2.314 2.394 2.334 2.554 2.604
2825.953 2.574 2.874 3.114 3.494 4.074 4.064 3.914 4.264 4.584 4.534
2845.242 4.834 5.294 5.434 5.624 5.814 5.894 5.774 5.924 5.964 5.814
2864.532 6.084 6.404 6.744 7.054 7.294 7.444 7.634 7.924 8.544 9.054
2883.822 8.954 9.274 9.554 9.864 10.144 10.334 11.144 11.854 12.424 12.764
2903.112 13.044 14.374 15.184 15.444 16.054 16.444 16.814 16.914 16.934 16.934
2922.401 17.074 17.454 18.134 19.084 20.084 21.634 23.454 25.284 26.484 27.684
2941.691 28.614 28.904 29.294 29.164 29.094 29.824 31.144 32.284 33.594 34.924
2960.981 35.264 34.894 34.274 33.304 32.194 31.574 31.154 31.414 32.844 34.534
2980.271 36.374 37.974 39.254 40.054 39.794 39.284 38.344 36.484 34.154 32.124
2999.561 30.604 28.684 26.524 24.754 23.114 21.304 19.894 18.824 17.444 16.134
3018.850 15.394 14.644 13.614 12.794 12.044 11.034 10.214 9.854 9.364 8.734
3038.140 8.064 7.264 6.584 6.154 5.944 5.584 5.254 5.124 4.714 4.404
3057.430 4.064 3.854 4.124 4.034 3.664 3.504 3.364 3.264 3.514 3.704
3076.720 3.504 3.364 2.984 2.674 2.694 2.694 2.944 3.084 2.564 2.274
3096.009 2.374 2.474 2.274 1.924 2.064 2.034 2.034 2.194 2.024 2.024
3115.299 1.944 1.774 1.834 2.184 2.264 1.954 2.094 2.084 1.954 2.164
3134.589 1.904 1.854 2.244 2.084 1.6779 1.6022 1.5431 1.6349 1.804 1.834
3153.879 1.6274 1.3424 1.4614 1.5746 1.864 1.964 1.824 1.6632 1.4297 1.2643
3173.169 1.5148 1.5215 0.8818 1.2184 1.3513 1.0492 0.9629 0.9144 1.3861 1.4099
3192.458 1.168 1.268 0.9483 0.553 0.76008 1.0174 1.3377 1.4718 1.4485 1.5706
3211.748 1.2238 1.0615 1.1552 1.2282 1.3619 1.4809 1.2852 1.1976 1.0702 0.75667
3231.038 0.9544 1.4452 1.3631 0.9758 1.105 1.1787 0.8915 0.9411 1.3618 1.5675
3250.328 1.4059 0.9512 1.0232 1.0019 1.2637 1.5247 0.8926 0.8406 1.1087 1.2824
3269.617 1.0748 0.77307 0.8466 0.706778 0.8497 0.9318 0.711809 0.573 0.8464 0.9188
3288.907 0.6819 1.3384 1.5924 1.0148 0.8085 0.72164 0.9455 1.0166 0.7979 0.9817
3308.197 1.1327 1.1311 0.8418 0.526 0.49 0.518 0.601 0.75132 0.558 0.6343
3327.487 0.8395 0.6626 0.77967 0.9773 1.3212 1.335 1.111 0.908 0.9413 1.1363
3346.777 0.9332 0.836 0.77924 0.72589 0.6222 0.706483 1.144 1.1987 0.874 0.8525
3366.066 0.9846 0.8468 0.6517 0.8529 0.9459 0.9261 1.3935 1.227 0.488 0.6175
3385.356 0.8676 0.8649 1.0667 0.929 0.8707 1.0315 1.1787 1.1189 0.74117 0.412
3404.646 0.6756 0.73177 0.384 0.8551 1.0544 0.6579 0.74785 1.0652 1.0737 0.73123
3423.936 0.49 0.256 0.036 0.456 0.9034 0.8078 0.9867 1.2849 0.8567 0.583
3443.225 0.76373 1.0496 0.995 0.74996 0.924 1.0072 1.3034 1.1512 0.6307 0.6138
3462.515 0.599 0.6892 1.0256 0.75091 0.525 0.8165 1.1088 1.2287 1.1022 0.7835
3481.805 0.99 1.595 1.294 0.9173 1.2569 1.774 1.714 1.884 1.824 1.3048
3501.095 1.3378 1.523 1.994 1.974 1.6483 1.641 1.4952 1.6196 1.5044 1.208
3520.385 1.5739 1.904 1.874 1.5687 0.8236 0.557 1.0123 1.0874 1.0024 0.74895
3539.674 0.71643 0.6869 0.498 0.9651 1.2323 1.2798 1.1989 1.0164 0.9462 1.1232
3558.964 1.0083 0.448 0.197 0.531 0.79631 0.77424 0.78963 0.6807 0.74903 0.76689
3578.254 0.710842 1.0915 1.1086 0.75848 0.557 0.6658 1.034 0.6749 0.557 0.76992
3597.544 0.49 0.70897 0.9285 0.73594 0.416 0.16 0.432 0.79879 1.0728 0.545
3616.833 0.046 0.54 1.0117 1.3987 0.9253 0.497 0.654 0.6736 1.0606 1.0574
3636.123 0.8496 0.8839 0.76071 0.578 0.388 0.555 0.524 0.353 0.353 0.6197
3655.413 0.9728 0.585 0.506 0.523 0.379 1.0123 1.2209 0.9848 0.899 0.501
3674.703 0.6062 1.0469 1.2091 1.1528 1.082 0.80297 0.372 0.403 0.7744 0.75524
3693.993 0.299 0.15 0.6115 1.0026 1.4087 1.4729 0.79301 0.6 1.299 1.3051
3713.282 0.51 0.592 0.6177 0.43 0.591 0.78042 0.268 0 0.431 0.71492
3732.572 0.8709 1.054 1.299 1.1202 0.6798 0.431 0.9879 1.0669 0.8358 0.6704
3751.862 0.6687 0.8998 0.8309 0.9679 1.0254 1.0497 1.6111 1.398 1.0491 1.2736
3771.152 1.1213 0.9692 1.3213 1.3683 0.76444 0.6492 0.78069 1.1842 1.4849 1.18
3790.441 0.6659 0.472 0.553 0.518 0.9749 1.1656 0.6176 0.9702 1.6207 1.3261
3809.731 0.564 0.6533 1.2723 1.3316 0.709008 0.941 0.9798 0.78956 0.9445 1.059
3829.021 1.1603 0.74607 0.9873 1.5304 1.814 1.2558 0.6935 0.76114 0.8396 0.887
3848.311 0.6551 0.453 0.531 0.003 0.113 1.0536 0.8261 0.364 0.77829 1.0898
3867.601 0.8602 0.6152 0.8733 1.0709 1.0987 1.0392 1.0539 0.71859 0.527 1.4406
3886.890 1.3213 1.0731 1.301 1.0158 0.7003 0.76239 0.8072 0.6214 1.2413 1.4175
3906.180 0.9051 0.544 1.032 1.4924 1.0327 0.396 0.181 0.476 1.0091 1.2988
3925.470 1.1344 1.2025 1.2628 1.0456 0.76476 0.8419 0.9985 0.9968 1.3987 1.2823
3944.760 0.9506 0.76833 0.712724 1.3224 1.4949 1.3239 1.2953 0.9361 0.8663 1.2233
3964.049 0.9727 0.6546 1.0969 0.9762 0.9672 1.3084 1.1752 1.4343 1.3892 1.1732
3983.339 1.3807 1.5315 1.305 0.9337 0.525 0.9393 1.5081 1.486 1.5909 1.2195
##END=
