##TITLE=4,4-Dimethylheptane
##JCAMP-DX=4.24
##DATA TYPE=INFRARED SPECTRUM
##ORIGIN=NIST Mass Spectrometry Data Center
##OWNER=NIST Standard Reference Data Program
Collection (C) 2018 copyright by the U.S. Secretary of Commerce
on behalf of the United States of America. All rights reserved.
##CAS REGISTRY NO=1068-19-5
##MOLFORM=C 9 H 20
##$NIST SOURCE=MSDC-IR
##SPECTROMETER/DATA SYSTEM=HP-GC/MS/IRD
##STATE=gas
##XUNITS=1/CM
##YUNITS=ABSORBANCE
##XFACTOR=1.0
##YFACTOR=0.000001800
##DELTAX=4.0
##FIRSTX=550.0
##LASTX=3846.0
##FIRSTY=0.000205
##MAXX=3846
##MINX=550
##MAXY=0.018
##MINY=0
##NPOINTS=825
##XYDATA=(X++(Y..Y))
550.0 114 122 89 65 55 47 64 94 135 178
590.0 160 142 113 106 147 174 164 150 132 132
630.0 151 149 147 149 164 166 135 134 165 160
670.0 165 182 164 145 169 189 155 142 156 164
710.0 153 169 209 189 191 231 245 242 270 283
750.0 246 224 184 139 155 172 156 167 152 140
790.0 151 162 191 181 173 170 171 160 104 120
830.0 161 176 177 156 152 148 141 147 153 164
870.0 175 168 148 145 167 186 193 188 189 203
910.0 213 212 226 255 288 310 298 289 272 251
950.0 235 211 194 183 176 173 158 131 111 108
990.0 113 109 100 94 84 97 109 107 120 130
1030.0 133 144 180 209 202 206 234 254 258 257
1070.0 268 275 276 272 276 288 291 294 291 278
1110.0 277 274 268 271 288 287 282 282 268 273
1150.0 283 302 320 326 347 381 397 409 450 478
1190.0 488 484 467 457 443 417 395 385 382 384
1230.0 398 404 402 395 396 396 396 391 371 350
1270.0 341 344 334 333 326 321 333 340 343 329
1310.0 314 297 299 325 331 341 302 220 292 405
1350.0 472 551 592 628 800 880 841 874 890 808
1390.0 744 654 550 518 450 407 335 230 283 371
1430.0 398 363 428 598 665 771 770 868 1139 1258
1470.0 1212 1094 1057 947 705 514 415 344 287 110
1510.0 49 108 89 56 116 162 169 111 45 97
1550.0 147 111 36 132 223 219 206 211 256 254
1590.0 259 252 240 238 242 238 220 204 195 201
1630.0 204 140 142 153 104 39 18 121 158 133
1670.0 99 83 77 14 28 120 76 0 28 107
1710.0 144 59 24 134 174 92 37 114 152 119
1750.0 72 118 159 165 133 104 135 147 109 96
1790.0 76 79 90 69 123 134 122 120 105 86
1830.0 91 117 125 67 53 125 152 137 139 110
1870.0 95 134 141 140 130 122 127 129 138 129
1910.0 116 117 99 96 121 130 136 131 104 119
1950.0 135 115 110 113 105 116 129 125 127 121
1990.0 100 98 117 122 121 131 114 97 102 104
2030.0 108 111 106 105 113 120 121 117 109 103
2070.0 106 99 98 105 100 88 96 104 100 101
2110.0 99 86 84 88 80 85 88 90 100 101
2150.0 96 96 86 79 87 92 89 85 84 86
2190.0 92 84 78 86 88 84 78 81 87 76
2230.0 78 79 70 75 67 61 57 54 57 57
2270.0 59 59 53 47 55 60 56 51 50 52
2310.0 60 56 40 50 59 63 57 48 52 52
2350.0 55 53 53 58 56 52 62 66 63 72
2390.0 80 87 89 91 85 76 75 77 75 64
2430.0 71 86 83 78 78 70 70 74 83 79
2470.0 73 75 72 68 74 79 83 91 92 84
2510.0 76 75 81 86 89 91 86 88 84 86
2550.0 92 94 111 117 104 96 105 111 106 108
2590.0 107 107 105 115 121 121 123 127 129 142
2630.0 148 141 139 139 138 140 148 148 140 141
2670.0 140 137 152 170 175 167 157 161 170 171
2710.0 169 187 200 212 234 253 256 254 261 266
2750.0 266 263 254 246 252 255 260 265 283 291
2790.0 293 322 350 373 407 446 486 521 563 619
2830.0 694 813 980 1173 1375 1579 1763 1918 2079 2333
2870.0 2715 3174 3562 3806 3949 4005 4013 4022 4059 4094
2910.0 4089 4060 4079 4215 4507 4970 5492 5913 6201 6446
2950.0 6892 7687 8751 9704 10000 9242 7629 5731 3968 2691
2990.0 1923 1480 1210 1023 904 812 734 688 643 609
3030.0 571 522 491 480 450 419 389 357 349 345
3070.0 341 322 303 300 288 280 274 273 277 278
3110.0 279 260 245 244 249 249 227 214 222 224
3150.0 210 215 227 230 222 228 227 209 215 221
3190.0 213 205 210 208 193 176 187 194 174 168
3230.0 167 175 181 183 181 175 173 152 159 186
3270.0 172 164 172 171 164 175 180 178 181 170
3310.0 166 171 174 164 166 165 142 147 177 180
3350.0 158 162 168 162 168 161 146 152 158 160
3390.0 171 166 170 195 208 197 174 172 174 183
3430.0 195 182 159 157 153 173 200 190 176 180
3470.0 179 179 176 156 155 177 200 166 116 123
3510.0 153 181 174 119 96 166 191 179 135 67
3550.0 124 174 176 137 38 92 191 192 170 81
3590.0 86 134 161 185 113 55 78 81 133 89
3630.0 42 160 201 207 129 60 129 192 226 190
3670.0 112 90 149 213 181 170 227 224 206 202
3710.0 164 151 193 160 122 146 45 70 91 70
3750.0 134 178 212 223 222 224 251 252 254 263
3790.0 264 254 222 201 230 250 221 191 215 252
3830.0 243 204 168 197 258
##END=
