##TITLE=Diethyl phosphoroamidate
##JCAMP-DX=4.24
##DATA TYPE=INFRARED SPECTRUM
##ORIGIN=EPA-IR VAPOR PHASE LIBRARY
##OWNER=SRD/NIST
Collection (C) 2018 copyright by the U.S. Secretary of Commerce
on behalf of the United States of America. All rights reserved.
##CAS REGISTRY NO=1068-21-9
##MOLFORM=C 4 H 12 N O 3 P
##$NIST SOURCE=MSDC-IR
##STATE=gas
##XUNITS=1/CM
##YUNITS=ABSORBANCE
##XFACTOR=1.
##YFACTOR=0.001
##DELTAX=3.85796
##FIRSTX=501.5
##LASTX=4000.7
##FIRSTY=7.89
##MAXX=4000.7
##MINX=501.534
##MAXY=0.06496
##MINY=0.00004561
##NPOINTS=908
##XYDATA=(X++(Y..Y))
501.534 7.89 8.38 8.61 8.67 8.5 8.25 7.95 7.54 7.07 6.34
540.114 5.6 5.07 4.47 4.01 3.7 3.35 3.13 3 2.87 2.81
578.693 2.74 2.63 2.53 2.49 2.41 2.37 2.37 2.38 2.35 2.29
617.273 2.27 2.24 2.2 2.15 2.15 2.12 2.04 2.07 2.06 1.98
655.852 1.92 1.95 1.98 2 1.98 1.98 2.02 2.06 2.12 2.12
694.432 2.15 2.25 2.35 2.47 2.62 2.83 3.14 3.52 3.91 4.32
733.011 4.77 5.24 5.46 5.46 5.35 5.19 5.11 5.1 5.24 5.58
771.591 6.09 6.84 7.71 8.53 9.16 9.54 9.58 9.32 8.79 8.06
810.170 7.34 6.59 5.86 5.24 4.75 4.37 4.03 3.85 3.78 3.79
848.750 3.86 4 4.28 4.65 5.18 5.96 7 8.33 9.92 11.68
887.330 13.3 14.51 15 14.68 13.77 12.44 11.08 10.15 9.78 10.16
925.909 11.4 13.53 16.49 20.25 24.6 29 32.82 35.52 36.76 36.4
964.489 34.66 31.87 28.41 24.67 21.01 17.73 15.05 13.15 12.03 11.63
1003.068 11.93 13.07 15.24 18.74 23.9 30.87 39.48 48.75 57.08 62.83
1041.648 64.96 63.07 57.77 50.9 44.39 39.33 35.61 32.56 29.72 26.87
1080.227 23.95 21.31 19.2 17.63 16.44 15.32 14.13 12.78 11.3 10
1118.807 8.98 8.15 7.48 7.01 6.71 6.53 6.32 6.11 5.95 5.8
1157.387 5.64 5.44 5.22 5 4.82 4.57 4.15 3.74 3.34 2.92
1195.966 2.58 2.24 1.99 1.84 1.78 1.84 1.81 1.79 1.9 2.07
1234.546 2.29 2.53 2.77 3.16 3.76 4.58 5.69 7.36 9.89 13.26
1273.125 17.31 21.64 25.8 29.11 30.35 29.1 26.12 22.32 18.26 14.41
1311.705 11.15 8.57 6.61 5.14 4.07 3.31 2.81 2.45 2.21 2.06
1350.284 2.02 2.08 2.2 2.42 2.68 2.96 3.19 3.36 3.68 4.12
1388.864 4.51 4.73 4.71 4.43 3.88 3.2 2.59 2.18 1.97 1.86
1427.443 1.8 1.78 1.81 1.85 1.87 1.86 1.82 1.77 1.73 1.7
1466.023 1.65 1.61 1.58 1.54 1.5 1.47 1.43 1.37 1.33 1.3
1504.603 1.28 1.28 1.33 1.41 1.54 1.77 2.12 2.66 3.47 4.66
1543.182 6.14 7.65 8.92 9.58 9.42 8.48 7.06 5.45 4 2.84
1581.762 2.08 1.6 1.27 1.05 0.8797 0.7422 0.6327 0.5854 0.5591 0.5142
1620.341 0.4865 0.4588 0.4495 0.4267 0.3941 0.3754 0.3765 0.3707 0.3726 0.3818
1658.921 0.3722 0.3824 0.3871 0.3865 0.3914 0.408 0.4096 0.4114 0.4081 0.3904
1697.500 0.3906 0.3958 0.3789 0.3694 0.3766 0.3754 0.379 0.3701 0.3765 0.4055
1736.080 0.4119 0.4102 0.4422 0.4792 0.5041 0.5459 0.5808 0.6245 0.668 0.6902
1774.659 0.6976 0.6972 0.6966 0.6761 0.6642 0.6368 0.5965 0.573 0.5541 0.5311
1813.239 0.5018 0.4977 0.5014 0.4997 0.5045 0.5052 0.5211 0.5525 0.5678 0.5666
1851.819 0.5894 0.5996 0.593 0.5932 0.5833 0.5782 0.5626 0.5344 0.504 0.485
1890.398 0.4593 0.4313 0.3978 0.3626 0.3557 0.3317 0.3026 0.2987 0.2834 0.2433
1928.978 0.2273 0.2421 0.2369 0.2262 0.2286 0.2082 0.1906 0.1803 0.1589 0.148
1967.557 0.1444 0.1395 0.1228 0.126 0.1339 0.1269 0.1147 0.1059 0.106 0.08462
2006.137 0.08583 0.09264 0.08672 0.09554 0.1008 0.1041 0.09268 0.07764 0.06794 0.06819
2044.716 0.07702 0.08638 0.08854 0.08432 0.07919 0.08561 0.09582 0.08367 0.07486 0.0805
2083.296 0.08586 0.08368 0.08371 0.1075 0.1112 0.1117 0.09405 0.06686 0.08568 0.0934
2121.875 0.08706 0.09553 0.115 0.1093 0.08659 0.08369 0.08058 0.07325 0.08438 0.08114
2160.455 0.08801 0.1008 0.09553 0.09822 0.1019 0.1027 0.09745 0.0971 0.08675 0.05703
2199.035 0.04665 0.06397 0.07291 0.07218 0.08072 0.07344 0.07449 0.08046 0.07402 0.09416
2237.614 0.09807 0.08633 0.1012 0.1057 0.09752 0.09632 0.09253 0.09044 0.09514 0.1019
2276.194 0.09276 0.06868 0.07171 0.09086 0.09209 0.1016 0.1079 0.08987 0.09379 0.1022
2314.773 0.09913 0.1035 0.1103 0.1347 0.1421 0.1252 0.1101 0.1105 0.1058 0.08424
2353.353 0.08735 0.09372 0.08556 0.08468 0.08219 0.0729 0.06551 0.06939 0.06428 0.05904
2391.932 0.04561 0.04895 0.07346 0.08001 0.08335 0.08675 0.1003 0.1143 0.1269 0.1426
2430.512 0.1444 0.1395 0.1583 0.2021 0.2211 0.2201 0.2138 0.1807 0.1457 0.1581
2469.092 0.1559 0.1339 0.1329 0.1369 0.1296 0.1291 0.1366 0.133 0.15 0.1433
2507.671 0.1244 0.1255 0.1159 0.1305 0.1648 0.1673 0.1662 0.1753 0.1717 0.1589
2546.251 0.1584 0.1691 0.1822 0.1682 0.1407 0.1389 0.1285 0.1123 0.1302 0.12
2584.830 0.1159 0.1366 0.1298 0.1108 0.08782 0.08257 0.1015 0.1169 0.1037 0.09361
2623.410 0.07733 0.06274 0.0983 0.1132 0.09695 0.1153 0.1147 0.1144 0.1165 0.11
2661.989 0.1113 0.1199 0.1435 0.152 0.1386 0.1347 0.1296 0.12 0.1321 0.144
2700.569 0.1488 0.1431 0.1604 0.1827 0.1993 0.223 0.2506 0.2769 0.3054 0.3354
2739.148 0.3395 0.3554 0.3621 0.3598 0.3721 0.3886 0.428 0.4661 0.4557 0.4432
2777.728 0.4708 0.5155 0.5401 0.5151 0.5018 0.492 0.4857 0.4941 0.5116 0.5436
2816.308 0.5457 0.5712 0.6173 0.6536 0.7119 0.7581 0.7823 0.8482 0.938 1.04
2854.887 1.18 1.32 1.5 1.76 2.03 2.36 2.69 2.96 3.21 3.42
2893.467 3.63 3.92 4.31 4.73 5.07 5.31 5.51 5.71 6.01 6.54
2932.046 7.28 8 8.49 8.64 8.54 8.18 7.74 7.53 7.7 8.22
2970.626 9.12 10.36 11.63 12.62 13.1 12.95 12.1 10.68 9.11 7.71
3009.205 6.47 5.43 4.59 3.89 3.29 2.74 2.29 1.88 1.58 1.37
3047.785 1.19 1.06 0.9404 0.8212 0.7525 0.7132 0.6371 0.5901 0.5823 0.541
3086.364 0.5266 0.5159 0.515 0.5216 0.5098 0.488 0.4503 0.4488 0.4345 0.4306
3124.944 0.4435 0.4223 0.4049 0.3837 0.3689 0.3594 0.3769 0.3927 0.3493 0.3256
3163.524 0.3445 0.3666 0.3431 0.2993 0.339 0.3428 0.3344 0.3023 0.2513 0.2756
3202.103 0.2655 0.2501 0.2694 0.3059 0.3338 0.3094 0.2736 0.2571 0.249 0.2574
3240.683 0.2817 0.274 0.2283 0.2369 0.2275 0.2294 0.2365 0.2245 0.1948 0.1501
3279.262 0.1858 0.2103 0.2206 0.2595 0.245 0.2343 0.2777 0.2974 0.311 0.3106
3317.842 0.3013 0.2762 0.2758 0.3148 0.3254 0.2818 0.2864 0.3063 0.2734 0.3063
3356.421 0.3513 0.3581 0.3833 0.4419 0.5083 0.5479 0.587 0.7142 0.8968 1.12
3395.001 1.49 1.95 2.54 3.24 3.99 4.63 4.94 4.92 4.56 3.93
3433.580 3.11 2.36 1.75 1.33 1.14 1.01 0.9178 0.8872 0.8579 0.8734
3472.160 0.9191 0.968 1.1 1.28 1.44 1.65 1.88 2.17 2.54 2.83
3510.740 3.09 3.2 3.04 2.81 2.47 2.04 1.71 1.36 1.08 0.8921
3549.319 0.7715 0.6819 0.6089 0.5606 0.5238 0.5106 0.4713 0.3941 0.3842 0.3705
3587.899 0.3277 0.3361 0.3385 0.2915 0.2254 0.2064 0.2533 0.2542 0.2723 0.3008
3626.478 0.2601 0.2596 0.2884 0.2387 0.2302 0.2404 0.2054 0.1968 0.2231 0.2694
3665.058 0.2558 0.2323 0.2075 0.2112 0.255 0.2615 0.2493 0.2092 0.2021 0.218
3703.637 0.1934 0.1994 0.2464 0.2558 0.196 0.2052 0.2375 0.209 0.1776 0.1932
3742.217 0.1929 0.174 0.1894 0.1576 0.1603 0.1956 0.2234 0.2093 0.1361 0.1711
3780.797 0.2166 0.1936 0.1888 0.1543 0.1427 0.1991 0.1933 0.1667 0.1732 0.1674
3819.376 0.1175 0.1123 0.1341 0.1275 0.1597 0.1712 0.1791 0.2324 0.2488 0.225
3857.956 0.178 0.1354 0.2015 0.223 0.1775 0.1544 0.1502 0.1814 0.2423 0.2606
3896.535 0.2119 0.225 0.2223 0.1923 0.1764 0.1909 0.274 0.2956 0.2357 0.2225
3935.115 0.2288 0.1933 0.1849 0.1687 0.182 0.259 0.2653 0.2477 0.2245 0.2232
3973.694 0.2598 0.2116 0.2455 0.2819 0.2236 0.2192 0.2542 0.2348
##END=
