##TITLE=2,4,4-Trimethyl-1-pentene
##JCAMP-DX=4.24
##DATA TYPE=INFRARED SPECTRUM
##ORIGIN=NIST Mass Spectrometry Data Center
##OWNER=NIST Standard Reference Data Program
Collection (C) 2018 copyright by the U.S. Secretary of Commerce
on behalf of the United States of America. All rights reserved.
##CAS REGISTRY NO=107-39-1
##MOLFORM=C 8 H 16
##$NIST SOURCE=MSDC-IR
##SPECTROMETER/DATA SYSTEM=HP-GC/MS/IRD
##STATE=gas
##XUNITS=1/CM
##YUNITS=ABSORBANCE
##XFACTOR=1.0
##YFACTOR=0.000004100
##DELTAX=4.0
##FIRSTX=550.0
##LASTX=3846.0
##FIRSTY=0.000717
##MAXX=3846
##MINX=550
##MAXY=0.041
##MINY=0
##NPOINTS=825
##XYDATA=(X++(Y..Y))
550.0 175 194 192 188 153 114 89 78 77 55
590.0 31 37 64 59 42 40 32 12 2 19
630.0 33 16 9 21 10 9 14 15 35 41
670.0 27 25 41 40 28 16 3 10 2 0
710.0 25 28 19 13 15 27 32 50 62 64
750.0 69 75 85 90 81 70 50 33 48 56
790.0 40 35 40 39 62 90 102 89 64 79
830.0 103 117 114 115 130 139 156 183 240 319
870.0 452 684 991 1363 1726 2089 2331 2183 1849 1469
910.0 1069 738 493 340 254 208 172 148 123 102
950.0 80 60 56 61 67 71 75 85 96 103
990.0 108 109 107 109 98 85 79 77 83 83
1030.0 84 79 83 96 84 78 72 56 56 62
1070.0 57 49 48 41 39 39 41 43 35 34
1110.0 37 36 37 44 52 60 65 73 93 109
1150.0 114 128 138 145 164 181 196 229 275 329
1190.0 374 404 429 429 399 380 387 430 502 580
1230.0 636 659 652 618 557 494 438 383 353 324
1270.0 281 242 209 179 160 150 151 158 165 179
1310.0 197 224 253 275 285 286 285 289 326 414
1350.0 549 755 1013 1292 1590 1773 1765 1664 1512 1321
1390.0 1096 895 764 685 633 568 514 495 507 529
1430.0 566 628 714 812 914 1030 1152 1266 1373 1470
1470.0 1528 1522 1452 1321 1141 938 729 533 388 293
1510.0 224 185 159 137 124 115 109 104 101 99
1550.0 103 105 105 113 121 125 130 133 137 135
1590.0 140 155 170 186 216 260 306 373 463 560
1630.0 664 756 812 820 779 698 578 454 339 247
1670.0 176 125 101 79 66 61 53 49 46 39
1710.0 33 33 36 40 40 36 34 34 36 32
1750.0 27 30 33 41 52 67 89 111 136 161
1790.0 177 186 183 165 140 111 85 67 52 43
1830.0 34 29 33 31 29 25 20 21 21 18
1870.0 17 18 20 17 14 14 15 14 16 25
1910.0 22 18 24 24 24 27 20 15 16 12
1950.0 14 16 15 14 15 14 7 7 9 7
1990.0 10 12 9 7 9 10 14 14 12 11
2030.0 8 12 17 14 14 13 14 15 12 12
2070.0 11 9 10 10 12 11 6 4 3 7
2110.0 9 10 11 13 16 12 11 12 12 16
2150.0 17 13 11 8 6 1 4 9 9 14
2190.0 13 9 9 10 11 10 10 9 8 13
2230.0 13 7 1 2 5 4 1 5 10 8
2270.0 9 11 10 11 18 20 18 20 22 15
2310.0 8 4 4 0 0 1 0 0 2 4
2350.0 0 0 0 0 1 2 1 0 1 4
2390.0 7 8 6 10 12 12 10 13 16 9
2430.0 5 2 2 1 0 3 3 8 6 6
2470.0 9 8 9 13 17 16 12 7 8 7
2510.0 6 7 12 15 15 20 19 14 17 22
2550.0 25 22 27 29 21 20 17 13 18 20
2590.0 22 29 28 23 24 26 30 34 42 47
2630.0 47 48 49 51 53 50 45 42 48 49
2670.0 50 59 56 54 61 67 71 74 83 89
2710.0 96 111 126 138 148 157 158 150 154 155
2750.0 149 151 153 145 144 147 150 160 172 184
2790.0 203 222 242 268 308 343 381 431 488 560
2830.0 655 772 903 1055 1220 1411 1631 1884 2186 2504
2870.0 2804 3054 3220 3315 3380 3464 3608 3821 4096 4386
2910.0 4650 4856 4975 5021 5026 5050 5197 5560 6174 7021
2950.0 7972 8863 9602 10000 9766 8932 7761 6388 5028 3853
2990.0 2890 2178 1693 1359 1111 916 768 655 578 519
3030.0 477 445 427 437 453 481 525 588 708 903
3070.0 1120 1258 1332 1314 1187 1007 750 521 386 322
3110.0 276 244 214 179 162 158 149 139 127 117
3150.0 112 109 104 103 108 110 110 111 111 116
3190.0 120 117 111 110 108 94 89 98 107 102
3230.0 91 87 91 88 74 69 70 70 65 65
3270.0 62 51 42 38 43 38 30 29 22 18
3310.0 27 38 36 38 41 37 37 40 45 50
3350.0 56 61 52 40 45 45 35 35 37 33
3390.0 33 36 28 30 25 17 26 24 19 28
3430.0 19 6 12 17 14 6 2 4 11 23
3470.0 28 17 13 23 23 18 17 5 1 5
3510.0 10 20 20 18 16 14 14 14 16 17
3550.0 16 18 20 14 6 20 17 2 5 6
3590.0 11 19 9 0 0 5 16 18 8 0
3630.0 1 4 3 7 6 4 15 18 12 13
3670.0 13 16 14 8 12 12 15 25 24 24
3710.0 23 13 17 19 19 30 35 22 13 19
3750.0 22 31 30 17 15 30 29 21 28 33
3790.0 37 40 38 21 19 37 36 31 23 28
3830.0 40 31 23 28 32
##END=
