##TITLE=2,2,4,4,-Tetramethylpentane
##JCAMP-DX=4.24
##DATA TYPE=INFRARED SPECTRUM
##ORIGIN=NIST Mass Spectrometry Data Center
##OWNER=NIST Standard Reference Data Program
Collection (C) 2018 copyright by the U.S. Secretary of Commerce
on behalf of the United States of America. All rights reserved.
##CAS REGISTRY NO=1070-87-7
##MOLFORM=C 9 H 20
##$NIST SOURCE=MSDC-IR
##SPECTROMETER/DATA SYSTEM=HP-GC/MS/IRD
##STATE=gas
##XUNITS=1/CM
##YUNITS=ABSORBANCE
##XFACTOR=1.0
##YFACTOR=0.000001800
##DELTAX=4.0
##FIRSTX=550.0
##LASTX=3846.0
##FIRSTY=0.000198
##MAXX=3846
##MINX=550
##MAXY=0.018
##MINY=0
##NPOINTS=825
##XYDATA=(X++(Y..Y))
550.0 110 110 167 263 271 300 355 374 313 228
590.0 222 217 177 108 48 4 31 95 133 156
630.0 140 177 208 209 191 177 221 247 197 195
670.0 184 123 115 85 53 88 126 149 173 169
710.0 124 111 192 247 218 215 212 158 161 165
750.0 118 120 110 81 88 101 67 64 95 98
790.0 108 104 76 103 146 130 147 147 78 85
830.0 129 160 170 173 198 177 136 154 169 143
870.0 122 127 137 142 143 162 190 207 220 238
910.0 264 285 277 259 246 229 222 213 207 215
950.0 248 258 260 268 281 303 304 276 227 193
990.0 176 163 155 145 138 130 123 142 180 182
1030.0 173 182 172 170 182 169 150 149 159 139
1070.0 136 164 158 154 157 145 130 138 163 172
1110.0 185 188 178 177 173 175 167 187 205 190
1150.0 205 238 267 289 318 349 349 310 264 238
1190.0 223 233 267 310 352 386 450 532 624 770
1230.0 961 1150 1234 1144 908 639 429 334 304 275
1270.0 231 207 195 190 202 184 161 157 163 163
1310.0 145 153 187 185 189 216 261 350 424 503
1350.0 645 842 1081 1316 1545 1713 1629 1347 1077 888
1390.0 784 782 796 744 694 577 434 388 337 284
1430.0 285 362 414 414 484 558 754 958 1065 1249
1470.0 1467 1628 1564 1453 1323 1083 843 637 481 477
1510.0 373 254 276 273 188 150 175 269 285 189
1550.0 149 203 327 226 130 149 184 191 123 122
1590.0 130 143 134 129 146 128 146 166 137 113
1630.0 92 161 150 117 166 253 266 139 97 96
1670.0 125 165 141 197 206 107 186 290 236 150
1710.0 137 205 252 172 133 195 254 214 176 179
1750.0 184 146 138 141 134 169 151 103 106 96
1790.0 119 113 82 92 76 77 78 74 80 86
1830.0 92 83 71 94 106 74 62 55 52 88
1870.0 94 62 54 64 76 74 72 67 56 65
1910.0 67 65 82 85 68 57 63 70 84 77
1950.0 62 69 75 70 67 54 53 61 67 57
1990.0 43 42 41 48 35 25 49 43 29 43
2030.0 36 32 48 54 39 29 41 48 36 28
2070.0 36 42 39 39 37 42 39 38 53 62
2110.0 53 45 50 41 42 55 46 37 46 39
2150.0 31 36 34 28 23 25 29 29 31 28
2190.0 24 19 16 20 30 30 31 19 18 30
2230.0 32 25 23 24 19 13 6 14 14 12
2270.0 26 32 26 33 27 12 18 19 18 28
2310.0 47 62 74 96 119 129 135 126 93 58
2350.0 53 115 163 173 179 137 85 45 30 33
2390.0 25 20 20 14 16 15 12 16 10 2
2430.0 0 12 11 7 17 12 4 4 4 7
2470.0 17 20 22 30 34 20 18 21 14 7
2510.0 13 23 17 15 30 37 28 37 48 33
2550.0 20 19 16 7 15 22 15 12 20 26
2590.0 34 42 31 28 44 47 45 44 36 39
2630.0 44 59 64 65 70 61 58 72 84 87
2670.0 92 101 101 93 102 108 97 89 78 88
2710.0 101 119 146 149 142 137 143 148 139 123
2750.0 110 107 99 114 122 111 105 118 141 155
2790.0 187 204 218 254 290 325 356 377 396 416
2830.0 455 509 580 662 741 849 1015 1246 1561 1955
2870.0 2401 2829 3184 3478 3688 3864 4053 4221 4292 4230
2910.0 4096 3911 3710 3547 3467 3548 3850 4415 5276 6479
2950.0 7933 9230 10000 9986 9150 7777 6224 4958 4149 3629
2990.0 3232 2783 2269 1761 1306 945 666 479 372 305
3030.0 259 220 194 164 142 153 154 140 140 147
3070.0 140 141 131 114 124 116 116 120 111 121
3110.0 118 108 110 110 120 118 89 89 97 101
3150.0 98 93 105 113 115 122 116 118 149 134
3190.0 90 119 153 137 119 115 132 131 119 131
3230.0 115 83 102 122 124 109 94 101 111 121
3270.0 126 107 82 82 72 53 61 70 55 71
3310.0 91 84 77 85 101 95 91 88 85 85
3350.0 85 70 76 105 89 77 72 76 74 54
3390.0 65 59 46 49 61 72 58 49 68 76
3430.0 67 59 47 49 69 66 41 42 68 83
3470.0 64 46 50 57 76 81 56 67 93 67
3510.0 23 37 68 64 40 17 26 40 67 73
3550.0 50 43 36 36 67 77 37 24 23 58
3590.0 87 65 61 50 64 105 100 77 53 108
3630.0 117 42 25 6 78 139 74 46 10 22
3670.0 120 143 95 46 91 125 55 29 43 56
3710.0 111 96 38 52 47 66 143 116 157 223
3750.0 205 132 55 49 48 39 28 66 81 53
3790.0 54 76 116 144 135 109 115 150 126 80
3830.0 55 77 118 109 52
##END=
