##TITLE=1,4-Butanediol diacrylate
##JCAMP-DX=4.24
##DATA TYPE=INFRARED SPECTRUM
##ORIGIN=EPA-IR VAPOR PHASE LIBRARY
##OWNER=SRD/NIST
Collection (C) 2018 copyright by the U.S. Secretary of Commerce
on behalf of the United States of America. All rights reserved.
##CAS REGISTRY NO=1070-70-8
##MOLFORM=C 10 H 14 O 4
##$NIST SOURCE=MSDC-IR
##STATE=gas
##XUNITS=1/CM
##YUNITS=ABSORBANCE
##XFACTOR=1.
##YFACTOR=0.001
##DELTAX=3.85796
##FIRSTX=501.5
##LASTX=4000.7
##FIRSTY=0.1092
##MAXX=4000.7
##MINX=501.534
##MAXY=0.182748
##MINY=0
##NPOINTS=908
##XYDATA=(X++(Y..Y))
501.534 0.1092 0.089 0.23562 0.3489 0.4218 0.5871 0.6383 0.5578 0.5814 0.642
540.114 0.5326 0.4861 0.512 0.4426 0.4078 0.3557 0.3448 0.3581 0.382 0.3374
578.693 0.2947 0.3362 0.4107 0.4605 0.5268 0.6729 0.859 1.0692 1.228 1.218
617.273 1.1007 0.9689 0.8556 0.8184 0.7838 0.7667 0.759 0.8232 0.9575 1.218
655.852 1.578 1.878 2.078 2.138 1.938 1.548 1.156 0.8492 0.7167 0.6222
694.432 0.519 0.5054 0.5104 0.4725 0.4497 0.4966 0.5528 0.6096 0.6825 0.74
733.011 0.8187 0.9193 1.0372 1.1886 1.278 1.298 1.318 1.388 1.468 1.608
771.591 1.848 2.168 2.708 3.478 4.418 5.698 7.438 9.548 11.638 13.088
810.170 13.278 12.138 10.388 8.608 7.048 5.878 5.038 4.438 4.018 3.738
848.750 3.548 3.428 3.318 3.228 3.248 3.318 3.368 3.388 3.408 3.428
887.330 3.458 3.548 3.608 3.648 3.728 3.828 3.908 3.978 4.168 4.428
925.909 4.848 5.608 6.718 8.218 10.028 12.078 14.388 16.938 19.628 22.018
964.489 23.548 24.108 24.268 24.588 25.078 25.238 24.398 22.568 20.388 18.458
1003.068 16.848 15.418 14.078 12.928 12.378 12.708 14.028 16.498 19.818 23.638
1041.648 27.728 31.968 36.598 41.398 45.038 45.708 42.718 37.198 31.108 25.708
1080.227 21.178 17.428 14.438 12.138 10.398 9.178 8.338 7.778 7.478 7.388
1118.807 7.498 7.838 8.408 9.238 10.448 12.138 14.378 17.578 21.968 28.088
1157.387 36.958 50.028 69.738 97.928 132.658 165.248 182.748 177.238 153.518 123.448
1195.966 95.768 73.458 56.488 44.358 36.248 31.078 27.918 26.148 25.548 26.318
1234.546 28.758 33.138 40.088 49.778 61.368 72.738 80.518 81.688 75.458 64.238
1273.125 51.948 42.008 35.848 33.528 34.388 36.248 36.068 32.388 26.338 20.448
1311.705 16.128 13.238 11.288 9.738 8.338 7.048 6.018 5.328 4.908 4.698
1350.284 4.618 4.608 4.648 4.768 5.048 5.558 6.388 7.458 8.628 9.968
1388.864 11.708 14.328 18.778 26.508 37.358 45.788 45.978 37.708 26.318 18.028
1427.443 13.258 10.558 9.208 8.648 8.518 8.578 8.718 8.748 8.698 8.648
1466.023 8.508 8.148 7.518 6.678 5.718 4.798 4.038 3.498 3.108 2.788
1504.603 2.558 2.358 2.208 2.078 1.938 1.838 1.758 1.678 1.598 1.528
1543.182 1.478 1.438 1.398 1.398 1.398 1.398 1.438 1.508 1.608 1.738
1581.762 1.888 2.078 2.318 2.628 3.048 3.558 4.148 4.838 5.608 6.438
1620.341 7.368 8.328 9.268 10.128 10.568 10.078 8.538 6.438 4.798 3.828
1658.921 3.308 3.068 2.998 3.048 3.218 3.518 3.958 4.558 5.328 6.348
1697.500 7.668 9.338 11.378 13.978 17.368 22.068 28.458 36.898 48.028 62.458
1736.080 80.858 100.598 115.488 117.868 105.928 85.488 64.758 47.788 35.048 25.788
1774.659 19.248 14.638 11.358 8.998 7.308 6.048 5.128 4.418 3.838 3.358
1813.239 2.988 2.688 2.428 2.208 2.028 1.888 1.808 1.738 1.678 1.628
1851.819 1.578 1.528 1.488 1.478 1.438 1.388 1.368 1.348 1.348 1.348
1890.398 1.358 1.388 1.428 1.528 1.658 1.838 2.058 2.308 2.588 2.838
1928.978 2.918 2.778 2.468 2.158 1.918 1.708 1.518 1.368 1.248 1.1609
1967.557 1.0941 1.0457 1.0148 0.9937 0.9936 1.0034 1.0256 1.0484 1.0688 1.0954
2006.137 1.118 1.1443 1.1827 1.218 1.248 1.268 1.278 1.268 1.288 1.288
2044.716 1.268 1.238 1.208 1.1952 1.1841 1.1474 1.1141 1.1032 1.0843 1.0603
2083.296 1.0367 0.9971 0.9446 0.9236 0.8946 0.8546 0.8421 0.8218 0.7925 0.7737
2121.875 0.7382 0.703 0.6895 0.6679 0.6465 0.6287 0.6052 0.5814 0.5649 0.5538
2160.455 0.54 0.5127 0.4939 0.4953 0.4742 0.4535 0.4294 0.4186 0.4055 0.3964
2199.035 0.3831 0.3504 0.3391 0.3236 0.3269 0.3369 0.3146 0.30509 0.3224 0.3316
2237.614 0.3266 0.3281 0.3294 0.3134 0.3159 0.3434 0.3626 0.3691 0.3649 0.3575
2276.194 0.3562 0.3583 0.3664 0.376 0.3924 0.4104 0.4309 0.4505 0.4609 0.4704
2314.773 0.4953 0.5013 0.4904 0.5037 0.517 0.5484 0.5855 0.6105 0.6415 0.7034
2353.353 0.767 0.7737 0.7684 0.7605 0.7319 0.6821 0.6071 0.5384 0.4898 0.4548
2391.932 0.4127 0.3816 0.3692 0.3418 0.30273 0.29734 0.28477 0.26397 0.26896 0.26143
2430.512 0.26571 0.26923 0.26893 0.2608 0.25085 0.2674 0.28138 0.29056 0.30685 0.3151
2469.092 0.3279 0.3471 0.3798 0.3822 0.3727 0.3545 0.3325 0.336 0.3133 0.29508
2507.671 0.30037 0.3128 0.3241 0.3195 0.29693 0.28241 0.28123 0.29246 0.29318 0.29875
2546.251 0.28756 0.26453 0.27285 0.26596 0.24492 0.24401 0.24412 0.2403 0.25397 0.24247
2584.830 0.25048 0.2761 0.27164 0.26101 0.26305 0.24698 0.24469 0.25904 0.24295 0.24826
2623.410 0.23926 0.23555 0.27621 0.29533 0.30018 0.29442 0.29287 0.303 0.29975 0.3291
2661.989 0.3385 0.322 0.3298 0.331 0.351 0.3766 0.4121 0.4473 0.4826 0.5228
2700.569 0.5312 0.5232 0.4874 0.4469 0.431 0.4126 0.393 0.4033 0.4096 0.4246
2739.148 0.4128 0.4112 0.4606 0.5071 0.531 0.5018 0.4626 0.4588 0.4595 0.4413
2777.728 0.448 0.4722 0.4803 0.5061 0.535 0.5238 0.5242 0.5518 0.5813 0.6025
2816.308 0.6274 0.6771 0.7687 0.866 0.955 1.0936 1.268 1.468 1.788 2.188
2854.887 2.658 3.138 3.448 3.588 3.698 3.848 4.038 4.308 4.698 5.138
2893.467 5.658 6.258 6.848 7.408 7.878 8.348 8.968 9.678 10.308 10.808
2932.046 11.308 11.948 12.878 14.168 15.778 17.598 19.438 21.018 22.048 22.218
2970.626 21.318 19.508 17.218 14.848 12.608 10.618 8.878 7.338 5.978 4.738
3009.205 3.788 3.158 2.778 2.608 2.578 2.668 2.868 3.188 3.508 3.658
3047.785 3.418 2.838 2.158 1.688 1.488 1.428 1.448 1.478 1.468 1.438
3086.364 1.408 1.388 1.478 1.778 2.258 3.018 3.568 3.428 2.628 1.608
3124.944 0.9801 0.6838 0.5322 0.4432 0.3717 0.3306 0.3103 0.30093 0.2518 0.22375
3163.524 0.2016 0.183 0.20211 0.1955 0.1629 0.1342 0.1386 0.1513 0.20027 0.1675
3202.103 0.109 0.1428 0.1675 0.1639 0.1484 0.1449 0.1253 0.1389 0.1657 0.1572
3240.683 0.1454 0.1353 0.1267 0.1218 0.143 0.1523 0.1392 0.1144 0.073 0.053
3279.262 0.057 0.09 0.107 0.05 0.019 0.09 0.1255 0.106 0.101 0.074
3317.842 0.061 0.054 0.053 0.047 0.023 0.079 0.1417 0.1417 0.1388 0.1841
3356.421 0.1909 0.1806 0.1966 0.207886 0.22677 0.23521 0.2637 0.24881 0.23182 0.1785
3395.001 0.1648 0.1787 0.1452 0.1433 0.169 0.1963 0.20602 0.24025 0.25645 0.26842
3433.580 0.3164 0.3826 0.4463 0.5321 0.6023 0.6676 0.8039 0.9367 1.0816 1.278
3472.160 1.388 1.428 1.368 1.1935 1.0564 0.8925 0.6657 0.5401 0.4913 0.4238
3510.740 0.3398 0.27655 0.2309 0.21815 0.214705 0.1603 0.1411 0.1333 0.1124 0.1263
3549.319 0.1487 0.1488 0.098 0.098 0.098 0.045 0.067 0.086 0.079 0.099
3587.899 0.095 0.05 0.021 0 0.03 0.058 0.045 0.042 0.074 0.1132
3626.478 0.076 0.007 0.024 0.093 0.105 0.094 0.071 0.067 0.056 0.041
3665.058 0.056 0.046 0.052 0.098 0.08 0.091 0.099 0.074 0.064 0.049
3703.637 0.092 0.1183 0.1331 0.148 0.079 0.036 0.076 0.066 0.039 0.074
3742.217 0.102 0.047 0.055 0.075 0.031 0.037 0.05 0.073 0.1254 0.1128
3780.797 0.071 0.045 0.029 0.065 0.093 0.061 0.062 0.1093 0.088 0.061
3819.376 0.063 0.035 0.048 0.027 0.015 0.062 0.062 0.079 0.08 0.042
3857.956 0.081 0.1378 0.1266 0.098 0.084 0.085 0.096 0.076 0.068 0.071
3896.535 0.032 0.06 0.081 0.069 0.097 0.1251 0.1236 0.1332 0.212819 0.1851
3935.115 0.1099 0.1248 0.1576 0.1385 0.1293 0.1396 0.1367 0.172 0.1791 0.177
3973.694 0.1956 0.20408 0.1857 0.172 0.1434 0.1432 0.1832 0.1698
##END=
