##TITLE=2,2,5,5-Tetramethylhexane
##JCAMP-DX=4.24
##DATA TYPE=INFRARED SPECTRUM
##ORIGIN=NIST Mass Spectrometry Data Center
##OWNER=NIST Standard Reference Data Program
Collection (C) 2018 copyright by the U.S. Secretary of Commerce
on behalf of the United States of America. All rights reserved.
##CAS REGISTRY NO=1071-81-4
##MOLFORM=C 10 H 22
##$NIST SOURCE=MSDC-IR
##SPECTROMETER/DATA SYSTEM=HP-GC/MS/IRD
##STATE=gas
##XUNITS=1/CM
##YUNITS=ABSORBANCE
##XFACTOR=1.0
##YFACTOR=0.000001100
##DELTAX=4.0
##FIRSTX=550.0
##LASTX=3846.0
##FIRSTY=0.000251
##MAXX=3846
##MINX=550
##MAXY=0.011
##MINY=0
##NPOINTS=825
##XYDATA=(X++(Y..Y))
550.0 228 105 102 161 50 0 105 165 164 189
590.0 163 167 167 174 204 264 273 259 245 174
630.0 214 254 198 207 225 205 218 250 241 215
670.0 232 275 298 316 295 294 285 276 277 268
710.0 269 285 302 275 273 264 257 281 289 274
750.0 286 303 295 288 274 264 266 277 295 305
790.0 298 302 283 259 278 294 277 287 352 338
830.0 278 255 269 296 280 278 305 310 300 298
870.0 300 285 255 259 279 289 340 390 396 389
910.0 342 313 309 301 303 281 269 295 296 275
950.0 268 273 266 253 269 287 278 265 259 245
990.0 245 266 269 251 267 274 258 250 262 279
1030.0 253 249 287 275 244 232 230 242 252 254
1070.0 260 265 275 261 224 210 217 224 247 271
1110.0 292 291 287 293 297 312 325 325 327 340
1150.0 315 302 327 341 351 374 407 431 431 418
1190.0 382 355 362 361 359 373 387 415 492 599
1230.0 688 766 799 797 762 643 491 421 390 356
1270.0 356 386 402 415 452 465 465 461 444 404
1310.0 345 321 307 296 299 297 301 311 358 422
1350.0 539 736 986 1275 1531 1620 1478 1188 937 802
1390.0 783 798 755 659 525 423 359 325 327 335
1430.0 336 344 362 395 431 476 574 714 876 1061
1470.0 1242 1335 1291 1173 968 721 549 439 365 330
1510.0 289 259 256 261 246 236 234 241 214 179
1550.0 188 204 235 221 202 214 205 201 182 169
1590.0 181 181 174 176 190 186 191 203 198 185
1630.0 176 177 169 175 185 203 216 188 168 166
1670.0 176 174 171 178 179 175 192 194 173 172
1710.0 172 170 165 162 164 165 180 177 160 158
1750.0 149 137 145 153 155 160 158 148 134 139
1790.0 132 128 139 139 150 139 131 140 142 141
1830.0 138 134 129 133 134 130 134 119 111 122
1870.0 127 141 139 127 129 142 132 111 121 128
1910.0 117 112 115 116 121 116 111 112 109 116
1950.0 116 112 114 115 107 97 99 105 106 112
1990.0 105 90 99 94 88 90 101 99 83 81
2030.0 97 103 93 86 84 91 89 99 95 79
2070.0 72 66 73 76 72 77 80 79 72 71
2110.0 70 72 85 79 68 68 85 85 59 54
2150.0 54 47 59 72 70 70 79 76 60 59
2190.0 56 48 54 66 74 62 54 81 83 56
2230.0 49 48 46 37 39 45 48 55 55 50
2270.0 54 42 37 52 50 32 21 19 18 16
2310.0 19 30 26 19 27 27 39 51 37 33
2350.0 42 46 45 53 58 54 43 34 42 43
2390.0 51 59 49 40 44 52 53 36 31 36
2430.0 32 34 41 34 36 40 25 22 17 20
2470.0 29 38 30 32 43 32 30 32 30 24
2510.0 31 36 36 43 54 51 41 38 40 44
2550.0 33 41 47 33 20 19 22 20 30 44
2590.0 31 19 29 36 42 48 51 53 51 50
2630.0 36 39 61 62 57 64 56 63 69 52
2670.0 49 50 55 67 70 71 75 93 96 89
2710.0 87 98 123 131 124 116 106 107 112 120
2750.0 128 127 123 108 103 112 99 91 99 131
2790.0 154 158 183 194 206 237 251 270 306 344
2830.0 376 403 459 542 662 838 1035 1309 1672 2006
2870.0 2275 2455 2496 2469 2386 2298 2288 2350 2480 2671
2910.0 2917 3179 3457 3763 4078 4370 4657 4987 5444 6209
2950.0 7380 8750 9768 10000 9176 7335 5217 3448 2170 1419
2990.0 993 739 565 444 363 295 252 240 227 209
3030.0 206 220 191 159 163 163 143 133 130 144
3070.0 170 171 147 119 107 114 122 118 103 118
3110.0 130 102 85 83 82 82 91 87 102 119
3150.0 117 120 106 94 103 102 118 143 139 137
3190.0 121 107 112 106 114 122 132 156 132 121
3230.0 135 114 120 137 121 98 79 75 85 87
3270.0 76 57 22 29 62 85 108 104 71 43
3310.0 43 48 44 45 51 56 52 40 33 38
3350.0 53 96 90 76 91 97 80 56 53 53
3390.0 54 54 43 34 47 54 53 55 59 53
3430.0 51 69 79 45 44 65 75 72 63 66
3470.0 52 39 42 59 67 67 71 69 42 17
3510.0 26 25 42 52 33 50 70 71 46 22
3550.0 51 61 44 51 51 30 42 54 32 33
3590.0 60 56 44 51 72 85 78 58 57 107
3630.0 100 45 19 54 88 68 35 46 72 65
3670.0 73 94 83 62 73 73 40 64 93 71
3710.0 63 45 39 50 52 43 33 38 52 74
3750.0 59 51 53 65 64 48 30 42 58 38
3790.0 39 49 41 57 77 77 91 76 47 44
3830.0 63 94 120 112 95
##END=
