##TITLE=3-Amino-5-methylisoxazole
##JCAMP-DX=4.24
##DATA TYPE=INFRARED SPECTRUM
##ORIGIN=NIST Mass Spectrometry Data Center
##OWNER=NIST Standard Reference Data Program
Collection (C) 2018 copyright by the U.S. Secretary of Commerce
on behalf of the United States of America. All rights reserved.
##CAS REGISTRY NO=1072-67-9
##MOLFORM=C 4 H 6 N 2 O
##$NIST SOURCE=MSDC-IR
##SPECTROMETER/DATA SYSTEM=HP-GC/MS/IRD
##STATE=gas
##XUNITS=1/CM
##YUNITS=ABSORBANCE
##XFACTOR=1.0
##YFACTOR=0.000002300
##DELTAX=4.0
##FIRSTX=550.0
##LASTX=3846.0
##FIRSTY=0.001599
##MAXX=3846
##MINX=550
##MAXY=0.023
##MINY=0
##NPOINTS=825
##XYDATA=(X++(Y..Y))
550.0 695 1111 872 947 985 1010 1021 1032 1030 1027
590.0 1064 1113 1140 1180 1230 1286 1306 1286 1282 1278
630.0 1244 1207 1164 1093 1037 1015 973 907 849 815
670.0 795 776 746 720 710 704 707 720 725 717
710.0 703 718 735 760 827 964 1156 1378 1597 1819
750.0 2057 2317 2826 3291 3028 2593 2418 2248 2031 1769
790.0 1519 1275 1056 914 802 704 616 548 509 493
830.0 464 441 445 450 443 446 436 443 455 472
870.0 507 547 627 735 873 1029 1154 1221 1209 1172
910.0 1171 1102 885 627 445 354 288 241 207 189
950.0 178 178 191 219 253 300 350 396 458 539
990.0 590 604 606 602 574 512 456 455 454 399
1030.0 342 297 262 200 125 102 78 65 61 50
1070.0 43 41 35 37 64 89 126 188 257 323
1110.0 400 483 547 589 589 541 475 405 326 239
1150.0 160 99 62 46 36 29 33 35 27 30
1190.0 32 25 15 26 44 43 43 50 64 73
1230.0 85 99 121 165 235 321 445 613 812 1035
1270.0 1242 1363 1361 1317 1333 1366 1262 1015 759 559
1310.0 407 292 219 175 141 129 118 120 137 143
1350.0 165 194 216 247 275 293 311 321 318 313
1390.0 323 324 338 364 402 462 540 654 832 1077
1430.0 1411 1865 2465 3149 3936 5026 6267 7406 8092 8236
1470.0 8062 7630 6816 5430 3795 2673 2265 2238 2270 2219
1510.0 2141 2100 2023 1802 1476 1195 1000 876 798 754
1550.0 720 711 720 765 827 899 970 1051 1168 1321
1590.0 1520 1797 2218 2856 3803 5127 6722 8314 9437 9922
1630.0 10000 9750 9010 7580 5579 3759 2529 1821 1341 975
1670.0 717 550 444 364 313 293 275 264 268 273
1710.0 271 264 250 242 234 207 173 155 140 113
1750.0 87 70 52 35 33 24 17 23 20 15
1790.0 14 13 14 22 24 10 10 12 10 13
1830.0 13 14 16 19 24 25 29 38 46 47
1870.0 42 44 54 57 45 41 42 41 35 29
1910.0 22 12 13 5 0 6 11 11 8 12
1950.0 20 23 29 38 43 45 50 58 60 57
1990.0 61 60 52 49 47 42 39 45 46 49
2030.0 49 50 53 52 57 62 62 60 57 52
2070.0 46 37 27 24 30 30 28 33 44 47
2110.0 38 33 34 40 47 47 44 44 42 36
2150.0 34 36 35 32 32 34 38 39 38 43
2190.0 47 52 61 75 84 83 83 87 88 89
2230.0 85 83 82 83 82 80 79 76 72 66
2270.0 62 55 59 57 46 42 44 42 34 35
2310.0 31 28 33 25 20 24 26 22 30 41
2350.0 41 41 42 46 46 43 44 41 40 39
2390.0 34 36 38 34 34 39 44 44 43 44
2430.0 42 43 39 41 55 50 41 39 38 35
2470.0 32 38 44 39 36 40 47 35 27 33
2510.0 31 34 43 45 48 47 44 43 40 43
2550.0 44 40 52 58 48 52 63 62 54 50
2590.0 51 57 67 69 63 63 69 65 64 63
2630.0 65 66 61 61 66 76 71 60 48 42
2670.0 47 49 44 37 31 37 41 32 34 41
2710.0 44 51 61 75 86 89 81 83 96 92
2750.0 87 79 71 73 64 58 62 60 55 50
2790.0 51 52 48 49 55 54 50 53 56 51
2830.0 57 69 76 86 109 129 141 167 199 233
2870.0 254 260 269 269 261 247 226 214 212 213
2910.0 225 262 321 400 519 676 803 852 862 850
2950.0 827 767 610 458 377 347 360 407 409 394
2990.0 400 391 377 356 336 319 291 272 257 229
3030.0 209 204 194 191 195 192 189 187 177 185
3070.0 199 203 202 194 172 148 129 129 128 117
3110.0 120 107 99 99 99 99 88 77 66 59
3150.0 57 61 65 71 76 73 68 62 70 72
3190.0 77 88 83 84 90 96 96 95 96 107
3230.0 117 116 111 95 85 89 91 107 99 75
3270.0 84 78 70 75 66 57 56 57 68 67
3310.0 64 58 44 52 58 48 53 65 55 53
3350.0 64 71 68 81 106 122 145 191 265 380
3390.0 574 823 1029 1131 1175 1160 1114 998 758 509
3430.0 341 247 197 169 160 183 212 249 304 375
3470.0 470 591 732 862 949 969 951 952 948 898
3510.0 781 632 494 392 303 229 188 158 129 101
3550.0 77 73 74 72 65 61 78 76 67 75
3590.0 71 63 66 58 35 34 44 47 42 39
3630.0 55 65 55 46 37 44 55 55 62 57
3670.0 41 39 50 51 40 33 38 55 56 53
3710.0 42 41 45 52 68 63 55 54 56 51
3750.0 34 33 38 47 51 56 55 42 45 37
3790.0 36 49 35 15 22 37 34 38 49 51
3830.0 38 15 19 28 31
##END=
