##TITLE=3-Acetylpyrrole
##JCAMP-DX=4.24
##DATA TYPE=INFRARED SPECTRUM
##ORIGIN=EPA-IR VAPOR PHASE LIBRARY
##OWNER=SRD/NIST
Collection (C) 2018 copyright by the U.S. Secretary of Commerce
on behalf of the United States of America. All rights reserved.
##CAS REGISTRY NO=1072-82-8
##MOLFORM=C 6 H 7 N O
##$NIST SOURCE=MSDC-IR
##STATE=gas
##XUNITS=1/CM
##YUNITS=ABSORBANCE
##XFACTOR=1.
##YFACTOR=0.001
##DELTAX=1.92898
##FIRSTX=549.8
##LASTX=4000.7
##FIRSTY=11.84
##MAXX=4000.7
##MINX=549.759
##MAXY=0.06121
##MINY=0
##NPOINTS=1790
##XYDATA=(X++(Y..Y))
549.759 11.84 11.62 11.03 9.72 9.75 9.43 8.83 8.99 8.65 8.85
569.049 9.74 9.84 8.94 8.45 7.8996 7.4119 7.9189 7.7622 6.953 7.4094
588.339 7.8146 7.4153 7.7561 9.14 9.55 9.08 10.39 11.18 11.76 13.3
607.628 13.77 14.24 14.72 15.35 15.86 15.02 15 16.36 16.37 16.17
626.918 15 13.06 12.13 10.98 10.28 9.95 9.37 9.31 9.85 9.62
646.208 9.06 9.24 9.94 10.3 10.47 11.1 10.96 10.15 9.81 9.54
665.498 9.65 9.56 8.74 8.8 9.18 8.83 8.72 9.15 9.35 9.63
684.787 10.24 10.67 10.89 11.13 11.28 11.76 12.27 12.91 14.1 15.65
704.077 16.26 15.6 15.07 14.87 15.02 15.23 14.69 13.59 12.45 11.76
723.367 11.29 10.98 10.83 9.62 8.87 8.63 8.0975 7.8269 7.4329 7.6491
742.657 7.8498 7.1495 7.3007 7.496 7.18079 7.5291 7.7217 7.22641 7.7334 8.7
761.947 8.86 8.93 9.07 9.34 9.81 10.41 11.15 11.78 11.75 11.95
781.236 12.54 12.87 14.13 16.89 18.38 16.81 15.11 14.96 14.62 13.89
800.526 13.95 13.82 14.29 15.34 14.73 14.35 13.69 12.55 12.14 10.55
819.816 9.61 10.94 10.4 9.74 10.04 9.04 8.41 8.47 8.1449 7.9419
839.106 8.0759 8.0709 8.19 7.8917 7.7151 8.0516 8.18 8.0523 7.5302 7.278
858.395 7.9873 8.65 8.44 8.136 8.5 8.44 8.1626 8.33 8.32 8.55
877.685 8.99 8.82 8.59 8.66 8.58 8.89 9.43 9.76 9.84 10.05
896.975 10.59 11.67 13.17 14.13 15.06 16.37 17.16 17.2 17.01 17.13
916.265 17.95 17.64 16.31 16.74 16.63 15.34 13.78 11.92 10.03 8.9
935.555 8.67 8.19 7.843 7.5643 7.6134 7.5968 7.8294 7.9957 7.9595 8.29
954.844 8.28 8.24 8.32 7.9433 8.0999 8.6 9.05 9.1 8.86 9.18
974.134 9.27 9.26 9.28 8.94 8.7 9.23 9.59 9.84 10.69 10.94
993.424 10.86 11.13 12.12 13.18 13.33 13.38 13.81 14.43 14.96 14.64
1012.714 14.87 15.83 16.44 17.33 17.94 18.01 18.64 20.25 20.26 18.91
1032.003 19.51 19.6 18.36 18.78 19.32 18.62 18.02 17.77 17.71 17.09
1051.293 15.6 14.8 14.87 14.07 13.49 13.65 13.23 12.69 12.86 13.26
1070.583 13.84 13.19 12.36 12.85 12.92 11.93 11.25 11.35 11.05 11.02
1089.873 10.69 10.15 10.55 11.27 11.43 10.11 9.46 11.13 11.19 11.68
1109.163 11.67 11.25 11.03 10.18 11.28 13.44 14.53 16.56 18.83 20.31
1128.452 21.33 22.08 22.19 21.9 22.79 22.24 21.12 20.87 19.71 17.11
1147.742 14.83 12.23 9.08 7.6587 6.607 6.06 6.389 6.701 6.13 5.29
1167.032 4.76 4.49 4.79 4.53 4.57 4.96 4.64 3.74 3.52 3.59
1186.322 3.85 4.27 4.56 4.35 3.71 2.36 1.92 1.93 0.13 0
1205.611 0.72 1.34 2.21 0.93 0.99 1.72 1.94 3.2 3.94 4.47
1224.901 4.88 4.4 3.72 4.2 4.86 5.21 5.2 5.44 5.68 6.05
1244.191 6.211 7.066 7.5543 7.3299 7.6141 7.5934 7.2703 6.823 6.954 6.753
1263.481 6.657 6.963 6.591 6.439 6.659 7.051 6.672 6.511 7.042 7.16334
1282.771 7.3813 7.852 8.53 9.08 9.58 10.61 11.83 12.88 14.07 15.7
1302.060 17.17 18.47 19.92 21.05 21.71 22.16 22.56 22.63 22.59 22.32
1321.350 21.6 20.79 19.59 17.75 15.75 14.16 13.06 12.54 12.64 12.81
1340.640 12.97 13.61 14.48 15.59 16.67 17.45 18.05 18.67 19.37 19.61
1359.930 19.8 20 19.96 19.87 19.53 18.97 18.24 17.45 16.61 15.67
1379.219 14.83 14.12 13.54 13.27 13.06 12.95 12.88 12.8 12.89 13.23
1398.509 13.43 13.75 14.72 15.89 17.07 18.42 19.53 20.35 21.16 21.74
1417.799 21.96 21.8 21.66 21.62 20.99 20.12 19.57 18.54 16.89 15.4
1437.089 14.28 13.25 12.3 11.73 11.47 11.14 10.89 10.75 10.34 10.02
1456.378 9.89 9.64 9.33 9.42 9.69 10.06 10.58 11.2 12.04 12.94
1475.668 13.87 14.96 16.02 16.99 18.26 19.54 20.18 20.53 21.07 21.51
1494.958 21.78 21.84 21.2 19.91 18.75 17.48 16.14 15.18 13.96 12.96
1514.248 12.24 11.59 11.37 11.27 11.25 11.33 11.52 12.02 12.82 13.77
1533.538 15.01 16.63 18.49 20.28 21.94 23.44 23.94 24.03 24.32 24.54
1552.827 24.26 23.68 23.42 22.64 20.89 19.05 17.17 15.25 14 13.04
1572.117 12.13 11.69 11.37 11.2 11.23 11.07 10.81 10.54 10.1 10.04
1591.407 9.92 9.53 9.09 8.93 8.8 8.51 8.55 8.62 8.28 8.1647
1610.697 8.54 8.53 8.52 8.72 8.41 8.33 8.61 8.81 8.64 8.36
1629.986 8.53 8.61 8.56 8.51 8.58 8.76 9.18 9.53 9.65 9.6
1649.276 9.48 9.69 10.01 10.27 10.8 11.29 11.71 12.37 13.38 14.52
1668.566 15.79 17.37 19.49 22.31 26.18 30.76 36.44 42.65 48.8 54.46
1687.856 58.26 60.01 60.26 59.85 59.31 59.4 60.45 61.21 59.92 55.56
1707.146 48.33 40.2 32.37 26.29 21.72 18.24 15.76 13.94 12.65 11.57
1726.435 10.81 10.06 9.48 8.99 8.72 8.8 8.85 8.64 8.17 8.0013
1745.725 7.8949 7.951 8.0899 8.1484 8.0584 7.7641 7.7652 7.8807 7.8347 7.6922
1765.015 7.523 7.6541 7.8347 7.6163 7.441 7.4349 7.4392 7.526 7.4492 7.2354
1784.305 7.317 7.2878 7.2926 7.3711 7.3143 7.064 6.98 7.1455 7.2 7.23819
1803.594 7.038 7.1342 7.3582 7.24779 7.23001 7.3155 7.4259 7.3467 7.1849 7.1532
1822.884 6.957 6.927 7.1126 7.1464 7.066 6.905 6.963 7.024 6.969 7.1389
1842.174 7.20006 6.984 6.976 6.917 6.726 6.707 6.871 7.031 7.1264 7.18615
1861.464 7.18699 7.17149 7.20132 7.3005 7.21489 7.23063 7.1517 7.012 7.062 7.2101
1880.754 7.19029 7.036 7.22897 7.2738 7.24822 7.3162 7.25138 7.2905 7.23022 7.16553
1900.043 7.108 6.925 7.033 7.2979 7.3898 7.3032 7.19346 7.24898 7.3444 7.5331
1919.333 7.7113 7.5334 7.3856 7.4216 7.3561 7.3624 7.5556 7.4368 7.2412 7.378
1938.623 7.4365 7.4757 7.48 7.25463 7.1149 7.16284 7.26485 7.22956 7.18218 7.18894
1957.913 7.1459 7.0778 7.1545 7.34 7.25393 7.2429 7.4261 7.3892 7.20178 7.24617
1977.202 7.4221 7.4244 7.4566 7.544 7.4542 7.4179 7.3979 7.3166 7.3995 7.399
1996.492 7.22858 7.1078 7.1053 7.1808 7.25523 7.3226 7.25825 7.25108 7.4143 7.5088
2015.782 7.383 7.3125 7.3984 7.4782 7.5565 7.4763 7.3707 7.2894 7.23023 7.034
2035.072 6.985 7.421 7.4991 7.23725 7.2131 7.20467 7.3793 7.3861 7.3092 7.3104
2054.362 7.26295 7.4111 7.4056 7.2079 7.3662 7.5075 7.4451 7.24739 7.3939 7.6316
2073.651 7.3903 7.3466 7.3804 7.2962 7.23708 7.1405 7.268 7.4072 7.0999 7.0737
2092.941 7.0977 7.23513 7.4962 7.348 7.3063 7.3389 7.25868 7.24825 7.19257 7.26506
2112.231 7.4668 7.537 7.5043 7.22045 7.1498 7.3427 7.3542 7.3242 7.21943 7.17952
2131.521 7.23768 7.26447 7.3879 7.511 7.4682 7.3985 7.4434 7.5818 7.6445 7.5846
2150.810 7.4617 7.26132 7.23261 7.3554 7.41 7.563 7.577 7.4039 7.4138 7.4696
2170.100 7.3875 7.5746 7.5522 7.2904 7.4473 7.6282 7.6133 7.4436 7.372 7.3578
2189.390 7.5333 7.4118 7.21803 7.4142 7.6392 7.63 7.3811 7.4613 7.6808 7.5351
2208.680 7.3471 7.20879 7.0897 7.3212 7.4298 7.4988 7.4197 7.3611 7.5158 7.5255
2227.970 7.4644 7.6348 7.5908 7.312 7.4653 7.4894 7.4239 7.6518 7.7102 7.5678
2247.259 7.4113 7.3178 7.4545 7.6913 7.7796 7.5349 7.4964 7.756 7.8546 7.8174
2266.549 7.6344 7.524 7.6273 7.8001 7.9627 7.9137 7.7628 7.6071 7.6335 7.852
2285.839 7.8792 7.7373 7.6565 7.5336 7.512 7.4545 7.3802 7.5902 7.7585 7.6201
2305.129 7.572 7.7197 7.5604 7.5131 7.7143 7.6158 7.6396 7.9278 7.9053 7.6039
2324.418 7.6101 7.9066 7.854 7.6841 7.4475 7.5093 7.6751 7.5698 7.8625 7.8509
2343.708 7.6008 7.521 7.4956 7.6027 7.8152 7.7462 7.4538 7.5347 7.6688 8.1003
2362.998 8.0638 7.6152 7.6327 7.4961 7.2746 7.6103 8.0302 8.0263 7.8571 7.5839
2382.288 7.583 7.7099 7.5873 7.4754 7.5143 7.6069 7.8147 7.9224 7.9575 7.9373
2401.578 7.8366 7.9036 7.7634 7.5406 7.5301 7.6366 7.7825 7.5768 7.4943 7.6936
2420.867 7.6532 7.6328 7.7494 7.7601 7.6373 7.3732 7.4088 7.5023 7.429 7.5026
2440.157 7.5527 7.6012 7.7196 7.6757 7.5407 7.5111 7.5561 7.4817 7.5698 7.7778
2459.447 7.8269 7.7456 7.6811 7.6565 7.6765 7.6664 7.4837 7.4549 7.4203 7.5811
2478.737 7.6747 7.7589 7.7386 7.5334 7.6609 7.8364 7.8197 7.7771 7.7761 7.5998
2498.026 7.5746 7.8701 7.7883 7.6177 7.8369 7.8721 7.8187 7.6558 7.4872 7.7391
2517.316 7.9927 8.063 8.0647 7.9443 7.9005 8.1007 8.0659 8.1279 8.37 8.37
2536.606 8.57 8.68 8.63 8.56 8.68 8.63 8.34 8.52 8.59 8.53
2555.896 8.44 8.0349 7.9323 7.9835 7.9189 8.1049 7.9635 7.5593 7.5824 7.6688
2575.186 7.5937 7.573 7.8968 8.0365 7.9547 7.8995 7.9133 7.8396 7.6829 7.8932
2594.475 7.9732 7.9598 7.7552 7.6599 7.6654 7.6973 7.8143 8.0782 8.19 7.8267
2613.765 7.7549 7.8966 8.1118 8.1393 8.2 8.36 8.47 8.51 7.9888 7.7084
2633.055 7.8851 7.7672 7.8721 7.6638 7.411 7.2954 7.23041 7.7353 7.991 7.9331
2652.345 7.8727 8.0758 8.0898 8.0034 8.34 8.27 7.8146 7.7488 7.6598 7.4719
2671.634 7.4918 7.5176 7.5827 7.5698 7.5881 7.5736 7.5016 7.6272 7.7793 7.822
2690.924 7.6864 7.5187 7.531 7.7932 7.836 7.7255 7.6794 7.4853 7.3506 7.4433
2710.214 7.9142 8.1516 8.0363 8.26 8.22 7.8991 7.7833 7.7606 7.8631 7.7199
2729.504 7.7437 7.9021 8.041 7.9287 7.8966 7.9568 7.8691 8.0013 7.9001 7.8382
2748.794 7.6994 7.7073 7.8697 7.9187 7.9308 7.7797 7.8476 7.7755 7.7078 8.002
2768.083 7.926 7.6605 7.769 8.0339 7.906 7.7981 7.978 7.8107 7.8712 8.26
2787.373 7.9603 7.9109 8.18 7.9375 7.8391 7.9372 8.0561 8.17 8.0663 7.7964
2806.663 7.793 7.8223 7.8428 7.973 7.8958 8.1683 7.9981 7.628 7.9102 8.1248
2825.953 7.9495 7.7984 8.21 8.44 8.22 7.9439 8.1247 8.52 8.59 8.22
2845.242 8.21 8.1167 7.8927 8.0922 7.9515 8.0249 8.25 8.41 8.37 8.51
2864.532 8.33 7.6928 7.7468 7.6505 7.9774 8.21 8.0648 8.27 8.4 8.53
2883.822 8.39 8.33 8.3 8.19 8.0363 8.1535 8.31 8.2 8.26 8.1678
2903.112 8.107 8.22 8.46 8.61 8.47 8.57 9.07 9.51 9.2 9.14
2922.401 9.34 9.34 9.29 10.01 10.25 9.6 9.5 9.29 9.53 9.97
2941.691 10.03 9.72 9.48 9.43 9.83 10.04 9.85 10.06 9.89 9.8
2960.981 9.94 9.68 8.88 9.33 10.14 9.93 9.62 9.5 9.56 9.46
2980.271 9.46 9.6 9.68 9.49 9.37 9.33 9.45 9.58 9.65 9.55
2999.561 9.88 10.22 9.66 9.54 9.74 9.5 9.76 10.06 9.56 9.54
3018.850 9.63 9.35 9.32 9.26 9.05 8.72 8.78 8.64 8.49 8.61
3038.140 8.43 8.28 8.28 8.37 8.41 8.35 7.9814 8.0544 8.6 8.61
3057.430 8.39 8.1028 8.0028 8.24 8.84 8.63 7.9799 8.36 8.41 8.28
3076.720 8.45 8.32 8.45 8.63 8.45 8.36 8.3 8.0332 8.1284 8.58
3096.009 8.48 8.19 7.9766 7.9742 7.8379 7.7464 7.9637 8.1537 8.23 8.55
3115.299 8.56 8.18 8.29 8.33 8.21 8.021 8.1078 8.71 8.67 8.76
3134.589 9.41 8.89 8.54 8.63 8.43 8.73 8.78 8.62 8.55 8.121
3153.879 7.8847 7.8767 7.8954 7.8304 7.6962 7.9953 8.1244 8.25 8.05 7.7933
3173.169 8.1111 8.1549 7.8895 7.6325 7.5472 7.6268 7.5726 7.4898 7.4997 7.6232
3192.458 7.5818 7.7128 8.0194 7.8875 7.7719 8.0775 8.18 7.799 7.375 7.4389
3211.748 7.5839 7.7284 8.0443 8.17 8.1176 7.5797 7.448 7.7759 8.0141 7.8715
3231.038 7.4565 7.4353 7.5267 7.8777 7.9832 7.8498 7.6818 7.2727 7.4779 7.6175
3250.328 7.9009 7.8227 7.4723 7.3934 6.899 6.96 7.18652 7.795 7.94 7.2815
3269.617 7.1097 7.18227 7.3945 7.5571 7.4989 7.4896 8.1041 8.21 7.7403 6.994
3288.907 6.719 6.868 6.745 6.764 6.993 6.886 6.654 6.869 7.17187 7.5633
3308.197 7.5225 7.26627 7.4625 8.1052 8.1278 7.5951 7.2808 6.974 7.08 7.3474
3327.487 7.1446 7.26482 8.1294 7.5662 6.909 7.6164 7.9158 7.6161 7.7281 8.38
3346.777 8.66 8.53 8.37 8.1525 8.1492 7.9573 7.9697 8.29 8.35 8.44
3366.066 8.51 8.98 8.87 8.42 8.25 8.59 8.96 8.78 8.69 8.62
3385.356 8.59 8.51 7.6788 7.24917 7.7626 7.9546 7.385 7.5418 7.7987 7.6685
3404.646 7.6463 7.8019 7.7019 7.312 7.9854 8.25 7.8976 7.4405 7.17451 7.6262
3423.936 7.544 7.2934 7.17086 7.25436 7.8021 7.9291 7.8548 7.6873 8.0412 8.0114
3443.225 7.6686 8.1574 7.6344 6.937 7.4206 7.6406 7.5934 7.5594 7.4063 7.6053
3462.515 7.9977 7.8526 8.39 9.46 9.32 8.8 9.01 9.47 9.96 10.4
3481.805 10.78 11.21 11.77 12.45 12.9 13.25 13.74 14.78 15.76 16.71
3501.095 18.58 20.59 22.93 25.52 27.45 27.76 26.58 25.54 25.35 25.11
3520.385 24.13 24.55 24.98 23.37 20.4 17.21 14.72 12.52 10.78 9.55
3539.674 9.18 8.88 8.0959 7.7486 7.9027 7.729 7.3679 7.26728 7.141 7.038
3558.964 7.1492 7.26917 7.1031 7.057 7.5395 7.2712 6.74 7.5143 7.8315 7.5013
3578.254 7.6366 7.7943 7.797 7.17206 7.0793 7.5719 7.5919 7.6494 7.3521 7.108
3597.544 7.3416 7.17749 6.815 6.711 7.023 7.469 7.2806 7.7976 8.31 7.6475
3616.833 7.3429 7.1696 6.893 7.23632 7.2863 6.824 6.357 6.687 7.17551 6.818
3636.123 7.059 7.4512 7.0814 6.828 7.034 7.6961 8.1344 7.4583 7.4227 7.142
3655.413 6.731 6.942 7.18728 7.8147 7.4983 7.041 7.4906 7.4766 7.042 7.023
3674.703 7.5169 7.5432 7.19656 7.21731 7.5748 7.5641 7.1591 6.945 7.26069 7.6885
3693.993 6.914 6.737 6.902 6.745 7.1015 6.969 6.915 7.3358 7.5479 7.3336
3713.282 6.819 6.576 6.702 6.917 6.798 6.748 7.3037 7.5728 7.3814 7.6463
3732.572 7.7704 7.6809 7.2763 7.0954 7.8637 7.8439 7.2561 7.5463 7.5645 7.20406
3751.862 7.17898 7.4418 7.3205 7.4336 7.7863 6.919 6.791 7.4624 7.4169 7.441
3771.152 7.498 7.6359 7.7775 7.5468 7.4059 7.7197 8.0298 7.9155 7.8111 7.3688
3790.441 6.767 7.1182 7.1921 7.3265 7.0913 6.521 6.912 7.3055 7.9717 8.37
3809.731 7.5944 7.3088 7.6121 7.2792 7.22926 7.1223 6.78 7.1297 7.4526 7.24795
3829.021 7.6319 8.005 7.8083 7.6418 6.897 6.732 7.576 7.6272 7.5921 8.1224
3848.311 8.0573 7.4769 7.5524 7.5342 7.2897 7.6834 7.535 7.2179 7.19723 7.5155
3867.601 7.5663 7.22115 7.552 7.8337 7.8996 7.8122 7.3966 7.044 7.3405 7.2773
3886.890 7.2452 7.16026 6.982 7.6 7.8324 7.7372 7.574 7.3677 7.7136 7.784
3906.180 7.8546 7.9276 7.9405 7.8898 7.316 7.0747 7.5061 7.5556 7.3326 7.4535
3925.470 7.6837 7.7695 7.67 7.3712 7.2305 7.7164 7.6898 7.5904 7.4847 7.5136
3944.760 8.1183 7.8816 7.3989 7.4588 7.7249 7.8626 7.991 7.8532 7.7262 8.25
3964.049 7.652 6.909 7.2808 7.23481 6.99 7.6117 7.8961 7.19494 6.957 6.726
3983.339 6.933 7.4332 7.5778 7.842 7.741 7.4534 7.6508 8.104 8.59 8.4
##END=
