##TITLE=2,7-Dimethyloctane
##JCAMP-DX=4.24
##DATA TYPE=INFRARED SPECTRUM
##ORIGIN=NIST Mass Spectrometry Data Center
##OWNER=NIST Standard Reference Data Program
Collection (C) 2018 copyright by the U.S. Secretary of Commerce
on behalf of the United States of America. All rights reserved.
##CAS REGISTRY NO=1072-16-8
##MOLFORM=C 10 H 22
##$NIST SOURCE=MSDC-IR
##SPECTROMETER/DATA SYSTEM=HP-GC/MS/IRD
##STATE=gas
##XUNITS=1/CM
##YUNITS=ABSORBANCE
##XFACTOR=1.0
##YFACTOR=0.000003900
##DELTAX=4.0
##FIRSTX=550.0
##LASTX=3846.0
##FIRSTY=0.000160
##MAXX=3846
##MINX=550
##MAXY=0.039
##MINY=0
##NPOINTS=825
##XYDATA=(X++(Y..Y))
550.0 41 27 34 45 34 53 56 45 40 36
590.0 25 25 19 13 21 21 27 37 25 18
630.0 29 32 42 48 49 49 42 36 33 26
670.0 20 33 46 33 26 38 47 55 68 80
710.0 81 92 103 100 100 105 100 82 81 80
750.0 65 60 62 58 55 53 56 49 34 37
790.0 43 45 49 55 52 50 62 74 83 70
830.0 63 65 65 64 60 58 54 55 52 48
870.0 54 63 60 55 48 43 48 59 66 67
910.0 82 96 105 111 101 95 93 79 80 95
950.0 99 91 90 81 70 66 55 43 36 27
990.0 20 14 11 5 3 6 4 5 14 19
1030.0 25 33 36 38 46 60 68 73 82 95
1070.0 106 110 111 113 116 116 114 111 110 104
1110.0 100 97 102 120 131 138 149 162 175 189
1150.0 216 253 296 348 386 383 334 263 205 168
1190.0 154 157 154 148 148 149 146 151 160 167
1230.0 170 165 166 164 160 161 165 168 172 175
1270.0 178 180 179 183 182 178 191 205 215 231
1310.0 239 241 257 288 318 347 364 359 384 423
1350.0 464 525 600 687 802 871 901 937 975 949
1390.0 863 701 498 375 310 269 229 187 212 259
1430.0 286 304 373 497 598 725 827 965 1139 1215
1470.0 1184 1057 909 731 538 396 311 255 204 110
1510.0 75 94 69 54 73 88 76 41 16 37
1550.0 54 38 3 45 88 83 73 76 97 96
1590.0 97 95 95 94 92 86 72 64 71 76
1630.0 76 53 58 66 51 25 16 56 69 65
1670.0 57 48 50 25 23 59 39 3 17 53
1710.0 66 35 14 51 67 30 0 27 48 36
1750.0 13 23 37 39 29 19 34 49 39 36
1790.0 31 34 42 33 46 49 47 47 43 43
1830.0 47 51 54 38 31 49 63 57 51 41
1870.0 39 53 51 51 49 47 51 50 51 55
1910.0 51 41 34 36 42 43 40 37 34 37
1950.0 45 45 42 43 39 39 42 41 37 37
1990.0 35 35 41 41 39 38 35 35 37 40
2030.0 40 39 38 36 34 35 39 39 37 37
2070.0 37 36 32 30 31 33 38 39 37 34
2110.0 33 32 33 32 26 29 27 26 30 29
2150.0 29 33 34 28 26 29 33 36 33 27
2190.0 28 29 29 27 27 27 27 26 25 23
2230.0 23 26 23 20 18 18 17 18 19 21
2270.0 18 16 21 22 21 23 22 17 14 12
2310.0 10 5 3 3 3 3 7 10 7 7
2350.0 4 3 3 3 3 5 12 15 20 25
2390.0 24 22 24 25 26 26 22 25 27 25
2430.0 27 30 32 28 28 29 28 29 30 30
2470.0 29 30 32 33 31 34 36 36 35 33
2510.0 35 40 41 40 40 43 48 49 48 48
2550.0 51 55 60 61 62 67 71 72 74 80
2590.0 89 94 94 94 99 103 105 106 107 112
2630.0 120 116 110 108 108 107 106 105 112 120
2670.0 115 115 119 120 122 124 126 129 128 134
2710.0 146 158 172 187 197 204 209 205 201 200
2750.0 193 190 201 208 215 223 229 240 248 257
2790.0 275 299 324 350 378 412 452 493 541 607
2830.0 699 829 1004 1251 1568 1917 2270 2588 2873 3159
2870.0 3486 3796 4002 4083 4043 3988 4038 4242 4599 5050
2910.0 5504 5947 6430 7017 7645 8131 8307 8137 7755 7444
2950.0 7496 8127 9211 10000 9827 8501 6439 4444 2963 2053
2990.0 1514 1173 947 780 652 551 474 416 374 336
3030.0 311 296 281 270 263 251 247 245 235 227
3070.0 221 214 214 212 203 196 192 187 184 180
3110.0 174 171 167 167 159 153 155 160 158 155
3150.0 152 150 145 144 151 154 155 154 154 145
3190.0 137 128 120 112 109 102 94 90 86 76
3230.0 67 61 57 58 58 59 61 64 62 56
3270.0 54 50 51 55 54 52 51 56 59 63
3310.0 65 55 58 61 57 62 61 66 74 70
3350.0 67 69 64 55 60 61 61 71 66 57
3390.0 58 58 53 55 57 49 49 52 52 51
3430.0 50 47 44 44 45 47 47 37 34 45
3470.0 47 47 43 40 43 43 47 41 30 37
3510.0 42 49 46 32 31 43 53 54 44 28
3550.0 41 44 44 44 13 25 58 57 51 24
3590.0 19 38 48 53 25 11 23 21 41 19
3630.0 2 51 68 70 39 19 39 45 63 57
3670.0 23 19 45 65 49 35 55 55 52 59
3710.0 40 40 60 42 41 50 8 10 8 3
3750.0 26 48 77 78 72 74 81 82 81 80
3790.0 83 80 72 68 77 87 77 68 75 96
3830.0 105 91 72 83 101
##END=
