##TITLE=Dodecyl isothiocyanate
##JCAMP-DX=4.24
##DATA TYPE=INFRARED SPECTRUM
##ORIGIN=EPA-IR VAPOR PHASE LIBRARY
##OWNER=SRD/NIST
Collection (C) 2018 copyright by the U.S. Secretary of Commerce
on behalf of the United States of America. All rights reserved.
##CAS REGISTRY NO=1072-32-8
##MOLFORM=C 13 H 25 N S
##$NIST SOURCE=MSDC-IR
##STATE=gas
##XUNITS=1/CM
##YUNITS=ABSORBANCE
##XFACTOR=1.
##YFACTOR=0.001
##DELTAX=1.92898
##FIRSTX=549.8
##LASTX=4000.7
##FIRSTY=8.443
##MAXX=4000.7
##MINX=549.759
##MAXY=0.284223
##MINY=0
##NPOINTS=1790
##XYDATA=(X++(Y..Y))
549.759 8.443 8.123 8.063 7.873 7.583 7.443 7.043 6.993 6.783 6.243
569.049 6.113 6.203 6.143 5.923 5.763 5.523 5.063 4.683 4.553 4.563
588.339 4.153 3.633 3.493 3.423 3.583 3.663 3.493 3.263 3.093 3.193
607.628 3.013 2.753 2.683 2.553 2.433 2.373 2.253 2.113 2.103 2.123
626.918 2.133 2.083 2.013 2.013 2.053 2.093 2.233 2.243 2.093 2.013
646.208 2.213 2.463 2.343 2.433 2.753 2.883 2.853 2.893 2.863 2.833
665.498 2.823 2.793 2.693 2.583 2.663 2.683 2.573 2.493 2.603 2.803
684.787 2.923 3.043 3.253 3.673 4.103 4.393 4.843 5.353 5.813 6.053
704.077 6.013 6.183 6.573 6.843 7.013 7.163 7.333 7.203 7.063 6.973
723.367 6.953 6.923 6.673 6.653 6.343 5.903 5.623 5.383 5.233 5.093
742.657 4.963 4.743 4.463 4.133 3.833 3.893 4.023 4.143 4.143 3.833
761.947 3.793 3.813 3.663 3.663 3.683 3.513 3.323 3.183 2.983 2.803
781.236 2.723 2.643 2.533 2.633 2.583 2.443 2.363 2.313 2.323 2.323
800.526 2.273 2.183 2.143 2.103 2.163 2.093 2.053 2.033 1.953 1.953
819.816 1.993 1.863 1.643 1.723 1.753 1.453 1.273 1.443 1.563 1.623
839.106 1.693 1.563 1.503 1.583 1.653 1.603 1.543 1.533 1.453 1.573
858.395 1.683 1.683 1.773 1.823 1.823 1.943 1.943 1.793 1.893 2.053
877.685 1.973 1.863 1.913 2.133 2.143 1.973 2.183 2.393 2.293 2.163
896.975 2.243 2.333 2.323 2.313 2.273 2.323 2.433 2.443 2.443 2.463
916.265 2.463 2.473 2.463 2.503 2.513 2.443 2.463 2.583 2.633 2.553
935.555 2.513 2.533 2.523 2.583 2.493 2.513 2.503 2.493 2.533 2.553
954.844 2.563 2.433 2.333 2.293 2.403 2.633 2.643 2.343 2.433 2.573
974.134 2.303 2.093 2.223 2.393 2.383 2.353 2.353 2.393 2.333 2.323
993.424 2.313 2.343 2.513 2.703 2.553 2.423 2.363 2.153 2.253 2.313
1012.714 2.453 2.623 2.783 2.943 2.963 2.933 2.883 3.053 2.953 2.723
1032.003 2.833 2.893 2.653 2.453 2.643 2.793 2.853 2.873 2.733 3.053
1051.293 3.283 3.403 3.603 3.493 3.313 3.163 3.253 3.423 3.583 3.513
1070.583 3.603 3.743 3.443 3.213 3.143 3.233 3.363 3.313 3.273 3.433
1089.873 3.413 3.103 2.783 2.863 3.123 3.243 3.373 3.443 3.243 2.913
1109.163 2.933 3.083 3.443 3.733 3.523 3.593 3.483 3.053 3.173 3.003
1128.452 2.833 2.893 2.713 2.783 3.103 2.903 2.683 2.903 2.683 2.273
1147.742 2.153 2.423 2.393 2.253 2.633 2.893 2.603 2.373 2.493 2.603
1167.032 2.663 2.663 2.613 2.673 2.783 2.833 2.853 2.693 2.733 2.993
1186.322 2.793 2.613 2.563 2.573 2.743 2.773 2.563 2.513 2.903 2.903
1205.611 2.783 2.843 3.083 2.893 2.863 2.883 2.973 3.343 3.343 3.233
1224.901 3.153 3.453 3.653 3.633 3.883 4.043 3.973 3.943 4.063 4.293
1244.191 4.383 4.453 4.613 4.603 4.753 4.983 5.053 5.163 5.363 5.463
1263.481 5.433 5.613 5.913 6.013 6.173 6.323 6.383 6.683 7.063 7.213
1282.771 7.343 7.813 8.263 8.623 9.003 9.413 10.003 10.553 10.993 11.503
1302.060 12.033 12.613 13.163 13.573 14.013 14.473 14.833 15.133 15.513 15.933
1321.350 16.483 17.263 18.263 19.493 21.053 23.063 25.553 28.343 31.423 34.813
1340.640 38.233 41.493 44.353 46.433 47.543 47.383 46.063 43.903 41.093 38.053
1359.930 35.163 32.533 30.193 28.053 25.903 23.693 21.473 19.283 17.293 15.553
1379.219 14.123 12.883 11.753 10.733 9.703 8.753 7.933 7.203 6.643 6.223
1398.509 5.863 5.533 5.243 5.073 5.013 4.943 4.883 4.863 4.913 5.013
1417.799 5.123 5.243 5.493 5.783 6.123 6.593 7.183 7.923 8.913 10.023
1437.089 11.363 13.043 14.943 16.963 19.183 21.583 24.143 26.933 29.933 33.073
1456.378 36.163 38.793 40.363 40.463 38.903 35.943 32.273 28.273 24.223 20.403
1475.668 17.013 14.153 11.893 10.073 8.623 7.523 6.603 5.903 5.353 4.753
1494.958 4.363 4.043 3.673 3.423 3.183 3.013 2.833 2.593 2.493 2.423
1514.248 2.303 2.173 2.083 1.923 1.833 1.823 1.773 1.763 1.743 1.673
1533.538 1.643 1.563 1.503 1.453 1.343 1.343 1.363 1.393 1.333 1.253
1552.827 1.253 1.1778 1.1363 1.1707 1.1446 1.1097 1.0471 1.0673 1.1157 1.0521
1572.117 1.0844 1.0355 1.021 1.022 1.0327 1.0685 0.9619 0.9048 0.8767 0.8722
1591.407 0.8139 0.7399 0.7714 0.8426 0.8674 0.7802 0.7284 0.7359 0.7948 0.8878
1610.697 0.855 0.8319 0.8245 0.7713 0.8133 0.7999 0.7449 0.7554 0.8074 0.789
1629.986 0.7042 0.8017 0.8489 0.8311 0.8142 0.7293 0.754 0.7806 0.7725 0.8175
1649.276 0.8452 0.8349 0.7707 0.6954 0.6462 0.6021 0.5875 0.6357 0.6537 0.6312
1668.566 0.7204 0.7367 0.728 0.6957 0.6518 0.6897 0.6485 0.5861 0.6156 0.6969
1687.856 0.6161 0.5452 0.6176 0.6674 0.5986 0.5565 0.5778 0.5774 0.6179 0.6356
1707.146 0.6868 0.7193 0.6905 0.6288 0.5722 0.6064 0.6545 0.6146 0.5881 0.6339
1726.435 0.6333 0.6464 0.6978 0.6986 0.6338 0.6358 0.6523 0.6514 0.6671 0.6025
1745.725 0.5903 0.6341 0.6398 0.7212 0.7833 0.716 0.7121 0.6731 0.598 0.6768
1765.015 0.7228 0.7008 0.7256 0.7187 0.6664 0.669 0.688 0.7286 0.782 0.7805
1784.305 0.7405 0.722 0.7862 0.7608 0.7083 0.7701 0.7674 0.7678 0.8355 0.8561
1803.594 0.8172 0.8319 0.8579 0.8109 0.8261 0.8657 0.8756 0.9249 0.9483 0.9433
1822.884 0.983 1.0252 1.0244 1.0289 1.1069 1.183 1.193 1.1689 1.1366 1.203
1842.174 1.293 1.323 1.373 1.453 1.503 1.533 1.603 1.633 1.713 1.823
1861.464 1.893 1.983 2.093 2.213 2.263 2.273 2.363 2.513 2.623 2.723
1880.754 2.873 3.033 3.183 3.273 3.403 3.623 3.813 3.943 4.123 4.363
1900.043 4.583 4.773 4.983 5.213 5.443 5.683 5.923 6.273 6.603 6.883
1919.333 7.183 7.503 7.833 8.203 8.563 8.963 9.423 9.893 10.443 10.933
1938.623 11.423 11.973 12.543 13.133 13.763 14.423 15.083 15.803 16.603 17.473
1957.913 18.353 19.323 20.343 21.423 22.583 23.813 25.063 26.423 27.933 29.503
1977.202 31.183 33.013 34.973 37.073 39.313 41.643 44.183 46.883 49.793 52.933
1996.492 56.223 59.813 63.553 67.523 71.843 76.433 81.293 86.443 91.863 97.603
2015.782 103.633 110.113 117.053 124.263 131.923 140.053 148.543 157.543 166.873 176.463
2035.072 186.483 196.673 206.963 217.293 227.513 237.473 246.943 255.673 263.553 270.373
2054.362 276.033 280.403 283.093 284.223 283.813 281.733 278.193 273.003 266.393 258.613
2073.651 249.833 240.283 230.143 219.563 208.693 197.973 187.483 177.263 167.453 158.143
2092.941 149.363 141.183 133.683 126.643 120.033 114.063 108.583 103.413 98.653 94.273
2112.231 90.313 86.663 83.253 80.053 77.093 74.373 71.813 69.423 67.213 65.173
2131.521 63.373 61.643 59.943 58.373 56.863 55.473 54.273 53.153 52.033 50.963
2150.810 49.953 49.013 48.213 47.463 46.703 45.983 45.313 44.773 44.253 43.733
2170.100 43.293 42.873 42.503 42.133 41.763 41.453 41.153 40.843 40.513 40.133
2189.390 39.703 39.213 38.743 38.223 37.483 36.543 35.553 34.513 33.443 32.283
2208.680 31.003 29.743 28.433 27.103 25.823 24.613 23.343 22.093 21.033 19.933
2227.970 18.833 17.803 16.813 15.923 15.033 14.183 13.403 12.613 11.963 11.393
2247.259 10.813 10.293 9.833 9.353 8.833 8.463 8.083 7.663 7.333 6.993
2266.549 6.733 6.483 6.203 5.943 5.733 5.493 5.263 5.133 4.963 4.743
2285.839 4.563 4.513 4.393 4.143 3.993 3.813 3.683 3.593 3.453 3.323
2305.129 3.263 3.173 2.993 2.873 2.823 2.823 2.723 2.633 2.613 2.433
2324.418 2.333 2.353 2.333 2.273 2.183 2.113 2.043 1.983 1.943 1.983
2343.708 1.953 1.843 1.793 1.743 1.713 1.713 1.673 1.633 1.583 1.533
2362.998 1.533 1.513 1.453 1.463 1.483 1.383 1.343 1.313 1.333 1.393
2382.288 1.323 1.293 1.353 1.363 1.283 1.273 1.193 1.1364 1.223 1.243
2401.578 1.203 1.203 1.223 1.1764 1.203 1.183 1.1318 1.1821 1.233 1.203
2420.867 1.1189 1.0663 1.0501 1.0499 1.0942 1.183 1.193 1.1309 1.1058 1.1043
2440.157 1.1277 1.0817 1.0632 1.1042 1.1193 1.0453 1.0432 1.0856 0.9966 0.9514
2459.447 1.0254 1.1113 1.1145 1.0711 1.0358 1.0743 1.13 1.1314 1.126 1.132
2478.737 1.1177 1.1129 1.1575 1.1605 1.1506 1.155 1.233 1.273 1.223 1.253
2498.026 1.293 1.363 1.383 1.353 1.353 1.343 1.343 1.313 1.363 1.463
2517.316 1.553 1.573 1.593 1.593 1.593 1.663 1.753 1.793 1.803 1.813
2536.606 1.813 1.803 1.843 1.873 1.873 1.923 1.923 1.933 1.933 1.883
2555.896 1.943 2.043 2.013 2.043 2.053 2.063 2.123 2.173 2.213 2.203
2575.186 2.173 2.253 2.313 2.263 2.273 2.313 2.373 2.343 2.273 2.303
2594.475 2.383 2.373 2.303 2.313 2.313 2.333 2.333 2.303 2.293 2.273
2613.765 2.203 2.213 2.223 2.253 2.363 2.323 2.303 2.303 2.313 2.413
2633.055 2.463 2.543 2.503 2.503 2.493 2.533 2.643 2.633 2.653 2.793
2652.345 2.853 2.863 3.003 3.073 3.103 3.193 3.353 3.513 3.643 3.803
2671.634 3.823 3.853 4.013 4.163 4.233 4.283 4.373 4.363 4.443 4.483
2690.924 4.493 4.613 4.613 4.633 4.693 4.753 4.783 4.853 4.943 5.023
2710.214 5.173 5.313 5.453 5.633 5.773 5.853 5.943 6.093 6.263 6.333
2729.504 6.453 6.623 6.673 6.663 6.663 6.723 6.793 6.713 6.733 6.693
2748.794 6.493 6.393 6.353 6.353 6.353 6.223 6.073 6.133 6.233 6.233
2768.083 6.173 6.053 6.013 6.073 6.133 6.203 6.293 6.393 6.593 6.683
2787.373 6.733 6.923 7.183 7.393 7.583 7.813 8.013 8.223 8.403 8.713
2806.663 9.103 9.423 9.663 9.993 10.363 10.733 11.233 11.813 12.373 12.973
2825.953 13.683 14.413 15.263 16.293 17.413 18.763 20.363 22.103 24.363 27.403
2845.242 31.133 35.853 41.733 49.013 57.913 67.933 78.533 88.683 96.863 102.183
2864.532 104.293 103.083 99.323 94.123 88.253 82.733 78.033 74.463 71.913 70.053
2883.822 68.603 67.013 65.283 63.713 62.513 61.973 62.323 63.523 65.593 68.623
2903.112 72.623 77.753 83.813 90.743 98.783 108.013 118.733 131.183 145.783 163.033
2922.401 182.753 204.473 226.683 247.183 263.643 273.703 276.773 273.553 264.923 252.263
2941.691 237.533 221.553 205.403 189.983 175.513 162.323 150.573 140.193 130.863 122.543
2960.981 115.183 108.433 102.393 96.603 90.043 82.523 74.203 65.263 56.473 48.723
2980.271 42.353 37.023 32.673 29.103 26.073 23.573 21.393 19.643 18.083 16.693
2999.561 15.443 14.363 13.453 12.583 11.833 11.263 10.583 9.933 9.553 9.113
3018.850 8.633 8.143 7.713 7.393 7.073 6.813 6.593 6.283 6.033 5.813
3038.140 5.493 5.353 5.143 4.953 4.843 4.533 4.333 4.193 4.143 4.003
3057.430 3.803 3.673 3.623 3.533 3.233 3.133 3.323 3.223 2.973 2.943
3076.720 2.823 2.663 2.583 2.513 2.383 2.313 2.413 2.333 2.303 2.343
3096.009 2.163 2.083 2.163 2.073 1.953 1.923 1.973 1.973 1.813 1.743
3115.299 1.723 1.753 1.753 1.673 1.633 1.573 1.523 1.533 1.653 1.633
3134.589 1.523 1.513 1.493 1.463 1.443 1.453 1.313 1.283 1.393 1.373
3153.879 1.333 1.443 1.373 1.193 1.273 1.253 1.193 1.1571 0.9142 0.8438
3173.169 1.0256 1.1399 1.0539 0.9758 1.0762 0.9911 0.9275 1.0865 0.9602 0.916
3192.458 0.9474 0.8917 0.8426 0.7223 0.7339 0.764 0.7746 0.7016 0.5733 0.5528
3211.748 0.6019 0.624 0.6847 0.7218 0.5572 0.4467 0.5612 0.6722 0.6151 0.5526
3231.038 0.6778 0.6846 0.5446 0.4634 0.4151 0.3986 0.427 0.4603 0.3989 0.4036
3250.328 0.5304 0.6103 0.5859 0.4339 0.3188 0.21637 0.21304 0.1234 0.039 0.23782
3269.617 0.22233 0.1483 0.3075 0.4034 0.3277 0.2966 0.32 0.3873 0.3754 0.3629
3288.907 0.3435 0.19415 0.2861 0.3575 0.3088 0.3405 0.1972 0.1078 0.18071 0.1723
3308.197 0.192822 0.3124 0.3449 0.3529 0.2942 0.22569 0.3153 0.3538 0.32 0.2916
3327.487 0.26011 0.2916 0.2947 0.24371 0.26701 0.25366 0.1428 0.1573 0.28001 0.3083
3346.777 0.2914 0.3357 0.27039 0.2835 0.3503 0.3589 0.4106 0.4002 0.3901 0.4151
3366.066 0.4445 0.433 0.4439 0.4259 0.3196 0.3218 0.4542 0.4432 0.3874 0.3917
3385.356 0.3298 0.22538 0.2925 0.3822 0.3632 0.3555 0.2883 0.23972 0.21884 0.21368
3404.646 0.3016 0.3387 0.2958 0.3951 0.5602 0.5424 0.4548 0.3325 0.3795 0.3809
3423.936 0.26554 0.3294 0.3237 0.27629 0.2715 0.22894 0.25615 0.28101 0.3794 0.4758
3443.225 0.3364 0.25455 0.26569 0.3176 0.3753 0.3072 0.3124 0.3556 0.23344 0.24177
3462.515 0.3164 0.23725 0.21917 0.27929 0.23943 0.1676 0.1076 0.048 0.1704 0.2195
3481.805 0.3129 0.3155 0.28028 0.27586 0.17424 0.1759 0.2215 0.22451 0.190863 0.18126
3501.095 0.25077 0.27228 0.1303 0.048 0.0958 0.182091 0.1126 0.045 0.1615 0.2948
3520.385 0.20839 0.0895 0 0.1068 0.3008 0.348 0.3921 0.26057 0.1506 0.1524
3539.674 0.17482 0.3187 0.3893 0.25381 0.24485 0.3909 0.4104 0.3458 0.24765 0.187139
3558.964 0.190923 0.17352 0.22594 0.3317 0.2941 0.21287 0.17764 0.20065 0.24076 0.3275
3578.254 0.3545 0.3302 0.4346 0.335 0.0978 0.1103 0.1636 0.3584 0.3965 0.3343
3597.544 0.3942 0.4085 0.5869 0.4796 0.3316 0.4019 0.3558 0.3196 0.3756 0.4536
3616.833 0.5867 0.4821 0.5455 0.7149 0.7118 0.7465 0.6578 0.7398 0.7243 0.6066
3636.123 0.5936 0.5742 0.5534 0.5838 0.6465 0.5875 0.5605 0.6645 0.646 0.5805
3655.413 0.5655 0.5281 0.5857 0.4946 0.4007 0.5012 0.568 0.4786 0.4348 0.4125
3674.703 0.4656 0.5039 0.3993 0.5599 0.6395 0.4871 0.5193 0.7233 0.6888 0.503
3693.993 0.4207 0.4175 0.6109 0.6762 0.5037 0.5209 0.6041 0.5452 0.5907 0.6667
3713.282 0.525 0.5705 0.6413 0.5181 0.4487 0.4799 0.5286 0.5403 0.5389 0.5326
3732.572 0.506 0.4523 0.4409 0.5108 0.6094 0.4952 0.4264 0.5762 0.6544 0.6887
3751.862 0.6019 0.4474 0.3942 0.3768 0.3062 0.354 0.5668 0.581 0.5058 0.4996
3771.152 0.4729 0.4805 0.67 0.6697 0.529 0.6692 0.7702 0.7373 0.6503 0.5918
3790.441 0.6142 0.6162 0.6599 0.6973 0.8016 0.834 0.8121 0.8208 0.7953 0.7704
3809.731 0.5911 0.5857 0.7082 0.6635 0.6252 0.6691 0.6795 0.7955 0.8236 0.778
3829.021 0.7817 0.674 0.6487 0.7261 0.712 0.7244 0.5816 0.587 0.856 0.788
3848.311 0.6752 0.6833 0.7844 0.9137 0.8461 0.6177 0.717 0.9043 0.8368 0.8727
3867.601 0.8441 0.7356 0.7592 0.746 0.7671 0.9413 0.9874 0.826 0.7794 0.7458
3886.890 0.7087 0.6876 0.6295 0.7687 0.8571 0.8026 0.7647 0.7512 0.7803 0.8835
3906.180 1.0101 1.0276 0.9124 0.7406 0.802 0.8992 0.9424 1.0052 0.7769 0.7299
3925.470 0.8744 0.8931 0.9257 0.9794 0.9933 0.9557 0.9676 0.9427 0.9172 0.8946
3944.760 0.8124 0.9977 1.1256 1.0824 1.1224 0.9654 0.9842 1.203 1.1636 1.0578
3964.049 1.1649 1.303 1.333 1.273 1.353 1.503 1.443 1.333 1.443 1.573
3983.339 1.573 1.523 1.483 1.533 1.653 1.563 1.543 1.653 1.653 1.703
##END=
