##TITLE=2-Ethylimidazole
##JCAMP-DX=4.24
##DATA TYPE=INFRARED SPECTRUM
##ORIGIN=NIST Mass Spectrometry Data Center
##OWNER=NIST Standard Reference Data Program
Collection (C) 2018 copyright by the U.S. Secretary of Commerce
on behalf of the United States of America. All rights reserved.
##CAS REGISTRY NO=1072-62-4
##MOLFORM=C 5 H 8 N 2
##$NIST SOURCE=MSDC-IR
##SPECTROMETER/DATA SYSTEM=HP-GC/MS/IRD
##STATE=gas
##XUNITS=1/CM
##YUNITS=ABSORBANCE
##XFACTOR=1.0
##YFACTOR=0.000000300
##DELTAX=4.0
##FIRSTX=550.0
##LASTX=3846.0
##FIRSTY=0.000370
##MAXX=3846
##MINX=550
##MAXY=0.003
##MINY=0
##NPOINTS=825
##XYDATA=(X++(Y..Y))
550.0 1234 1588 623 545 366 360 285 70 237 232
590.0 243 362 351 389 679 928 989 1195 1704 1906
630.0 1525 1255 1143 1008 900 842 744 734 877 1037
670.0 1140 1429 2023 2612 3121 3919 5034 6115 7052 8110
710.0 9238 9880 10000 9491 8474 7291 6178 5318 4341 3222
750.0 2451 1895 1353 947 610 448 388 258 48 60
790.0 91 3 91 215 132 125 286 425 602 703
830.0 794 944 1120 1409 1848 2009 1634 1347 1230 1091
870.0 972 746 606 657 640 508 517 615 665 671
910.0 765 959 1202 1423 1671 1868 1924 2004 2084 2108
950.0 2038 1793 1531 1253 1035 1025 1065 1098 1183 1329
990.0 1548 1799 2071 2547 3117 3701 4365 4948 5484 5958
1030.0 6298 6499 6667 6785 6547 6034 5645 5523 5429 5220
1070.0 5012 4782 4506 4100 3759 3400 2832 2252 1797 1368
1110.0 1033 859 855 834 839 943 1252 1665 1792 1784
1150.0 1771 1710 1638 1450 1111 784 583 460 382 393
1190.0 462 618 760 890 1036 1075 1148 1186 1100 1021
1230.0 966 878 709 636 679 611 562 537 490 513
1270.0 494 474 440 467 593 645 730 944 1291 1776
1310.0 2285 2683 2903 3007 2982 2845 2565 2140 1842 1697
1350.0 1598 1566 1598 1597 1562 1556 1537 1498 1450 1483
1390.0 1691 1952 2205 2485 2893 3437 4007 4695 5492 6302
1430.0 7014 7473 7638 7640 7447 7092 6350 5383 4569 3963
1470.0 3598 3509 3534 3345 3082 2847 2583 2320 1955 1563
1510.0 1297 1226 1295 1525 2070 3058 4528 6164 7422 7906
1550.0 7999 7740 7252 6274 4402 2685 1805 1328 1058 898
1590.0 758 604 494 388 308 311 325 306 238 225
1630.0 243 246 247 244 271 250 269 317 332 354
1670.0 435 534 682 882 964 964 929 891 906 836
1710.0 634 466 375 325 284 222 188 186 181 179
1750.0 198 198 165 122 108 160 179 169 153 128
1790.0 125 147 167 163 147 107 84 77 95 80
1830.0 67 95 87 63 57 73 100 88 85 104
1870.0 105 86 88 96 75 69 80 71 93 77
1910.0 68 72 50 67 74 57 59 49 53 64
1950.0 61 82 94 70 53 87 101 66 73 90
1990.0 104 114 95 89 100 109 88 63 59 57
2030.0 76 79 61 83 132 103 55 83 109 78
2070.0 87 68 38 60 50 58 70 73 84 34
2110.0 38 117 111 65 6 5 86 121 122 100
2150.0 84 110 131 144 193 177 132 163 157 132
2190.0 149 193 191 192 193 160 142 162 194 158
2230.0 137 145 142 121 67 13 4 27 46 82
2270.0 85 87 108 73 44 48 64 80 62 51
2310.0 63 89 79 68 55 20 1 30 95 75
2350.0 76 118 138 149 137 122 102 83 43 65
2390.0 140 142 109 142 198 200 191 223 262 257
2430.0 247 229 249 285 265 256 278 252 248 238
2470.0 209 196 188 232 239 215 210 207 227 262
2510.0 280 257 174 156 213 212 220 239 249 242
2550.0 229 231 193 174 206 259 239 215 173 160
2590.0 196 192 193 194 199 211 224 254 261 269
2630.0 262 247 236 189 180 215 210 136 130 163
2670.0 167 194 182 134 129 170 189 173 182 225
2710.0 234 207 207 210 249 338 368 339 345 385
2750.0 371 318 328 385 408 400 390 332 345 399
2790.0 421 447 481 518 531 604 657 665 783 928
2830.0 957 1014 1174 1323 1500 1699 1838 1999 2265 2557
2870.0 2829 3154 3585 3853 4054 4325 4626 4874 4993 5154
2910.0 5373 5486 5580 5714 6018 6366 6656 6954 7141 7282
2950.0 7455 7614 7831 8060 8366 8760 9115 9247 9075 8556
2990.0 7792 6889 5842 4652 3724 3030 2529 2147 1800 1477
3030.0 1209 957 833 760 666 561 506 496 513 509
3070.0 504 563 554 542 687 766 760 833 930 958
3110.0 1062 1304 1375 1414 1577 1655 1720 1768 1644 1439
3150.0 1328 1256 1172 1086 867 656 475 298 291 312
3190.0 249 235 179 210 206 115 188 209 148 96
3230.0 81 125 79 56 63 73 97 172 259 204
3270.0 144 128 31 22 111 236 222 155 229 257
3310.0 135 139 222 167 95 95 148 151 138 127
3350.0 195 205 163 176 205 173 98 77 152 243
3390.0 185 149 201 221 195 290 304 204 200 321
3430.0 296 283 364 362 505 666 884 1141 1360 1739
3470.0 2281 2824 3378 4030 4782 5644 6405 6870 6640 6037
3510.0 6010 6126 5536 4435 3225 2375 1657 1045 737 535
3550.0 314 240 214 180 137 216 308 228 141 158
3590.0 262 230 138 61 8 46 45 91 100 43
3630.0 1 65 212 209 186 120 70 128 148 147
3670.0 164 178 180 99 62 106 93 76 76 83
3710.0 188 264 199 107 33 18 140 181 171 256
3750.0 133 44 0 2 10 46 189 138 29 106
3790.0 128 47 60 148 239 197 124 113 172 192
3830.0 105 94 85 111 167
##END=
