##TITLE=Vinylimidazole
##JCAMP-DX=4.24
##DATA TYPE=INFRARED SPECTRUM
##ORIGIN=NIST Mass Spectrometry Data Center
##OWNER=NIST Standard Reference Data Program
Collection (C) 2018 copyright by the U.S. Secretary of Commerce
on behalf of the United States of America. All rights reserved.
##CAS REGISTRY NO=1072-63-5
##MOLFORM=C 5 H 6 N 2
##$NIST SOURCE=MSDC-IR
##SPECTROMETER/DATA SYSTEM=HP-GC/MS/IRD
##STATE=gas
##XUNITS=1/CM
##YUNITS=ABSORBANCE
##XFACTOR=1.0
##YFACTOR=0.000002600
##DELTAX=4.0
##FIRSTX=550.0
##LASTX=3846.0
##FIRSTY=0.000065
##MAXX=3846
##MINX=550
##MAXY=0.026
##MINY=0
##NPOINTS=825
##XYDATA=(X++(Y..Y))
550.0 25 21 0 43 120 125 168 262 328 461
590.0 614 699 701 659 617 614 601 610 666 738
630.0 851 965 1098 1319 1891 2517 2336 1980 1920 1811
670.0 1718 1510 1118 804 691 729 908 1103 1294 1470
710.0 1712 2231 2794 2637 2009 1733 1594 1406 1149 880
750.0 667 488 369 315 303 337 426 551 716 906
790.0 1085 1215 1354 1578 2243 2568 1870 1479 1427 1300
830.0 1189 1053 964 953 1011 1158 1417 1613 1804 2158
870.0 2538 2808 2936 2995 2965 2750 2479 2261 2038 1810
910.0 1489 1137 910 834 834 867 950 1041 1123 1249
950.0 1472 1686 1630 1381 1290 1283 1231 1233 1360 1615
990.0 1927 2177 2182 2092 2006 1851 1684 1312 930 762
1030.0 815 1052 1349 1572 1695 1820 2019 2272 2488 2512
1070.0 2315 2106 2004 1989 1978 1820 1601 1376 1117 1000
1110.0 1077 1110 921 665 451 284 169 100 71 42
1150.0 22 15 23 35 27 30 39 36 39 72
1190.0 129 235 429 854 1676 2928 4260 5022 5418 5600
1230.0 5745 5785 4861 3263 1900 1165 915 994 1318 1824
1270.0 2322 2681 3021 3312 3491 3473 3049 2507 2138 1924
1310.0 1749 1562 1378 1204 1090 995 881 781 634 478
1350.0 407 422 510 619 685 720 744 763 762 709
1390.0 603 522 497 523 591 674 737 776 828 909
1430.0 986 1034 1071 1145 1264 1369 1488 1750 2291 3285
1470.0 4806 6766 8572 9423 9684 9880 10000 9905 8253 5649
1510.0 3913 3242 2953 2690 2187 1544 1098 891 772 674
1550.0 649 725 885 1061 1159 1197 1206 1219 1237 1157
1590.0 1015 944 964 1057 1185 1339 1574 1981 2625 3569
1630.0 4794 6177 7427 8238 8624 8727 8508 7831 6435 4625
1670.0 3161 2195 1587 1193 878 679 589 545 509 464
1710.0 433 411 370 308 236 190 170 157 152 153
1750.0 152 137 122 113 111 108 96 86 79 65
1790.0 61 57 41 28 21 24 24 13 8 14
1830.0 22 18 17 25 22 11 9 15 29 49
1870.0 58 71 96 120 132 151 165 159 144 123
1910.0 97 84 71 56 53 53 54 51 46 51
1950.0 55 53 47 35 26 28 24 17 17 19
1990.0 17 14 13 12 13 12 13 19 30 37
2030.0 35 39 47 51 50 44 32 29 27 20
2070.0 25 32 32 36 41 39 38 35 29 24
2110.0 25 26 26 37 41 45 52 66 65 61
2150.0 68 64 55 49 39 24 15 11 8 7
2190.0 11 13 16 20 15 13 14 19 15 10
2230.0 11 13 10 7 17 14 9 18 30 37
2270.0 35 40 47 52 65 74 74 76 78 73
2310.0 77 81 70 66 69 61 47 45 43 32
2350.0 31 48 57 57 56 57 55 54 59 57
2390.0 58 65 72 80 82 80 79 81 77 76
2430.0 73 68 60 48 35 40 41 42 43 44
2470.0 49 49 51 41 35 55 69 66 61 70
2510.0 85 88 80 69 69 74 88 87 83 92
2550.0 93 98 103 106 109 101 100 96 92 109
2590.0 113 106 110 112 107 102 91 88 89 88
2630.0 93 92 84 88 104 102 97 102 103 102
2670.0 101 93 90 90 91 104 114 122 128 130
2710.0 134 122 99 93 84 66 64 74 75 78
2750.0 87 79 73 75 78 80 73 78 85 84
2790.0 98 110 119 107 99 104 97 88 76 68
2830.0 62 57 53 59 78 86 87 87 77 77
2870.0 81 87 75 64 65 63 61 60 57 57
2910.0 60 56 63 69 72 80 82 92 92 99
2950.0 112 125 134 132 124 114 117 123 132 130
2990.0 136 153 177 193 190 196 211 204 182 174
3030.0 179 201 235 273 310 342 348 344 343 330
3070.0 320 305 301 301 324 371 407 439 501 616
3110.0 731 811 827 809 796 790 774 667 520 407
3150.0 339 295 240 201 191 161 120 97 80 71
3190.0 65 58 66 68 57 51 38 26 26 23
3230.0 34 41 37 29 17 34 57 43 15 25
3270.0 48 40 34 45 44 35 51 68 50 53
3310.0 54 43 62 72 60 41 47 48 42 46
3350.0 35 15 21 38 44 34 33 40 48 49
3390.0 46 42 29 30 26 27 24 28 35 18
3430.0 22 25 11 22 25 18 28 31 36 45
3470.0 33 24 29 21 23 35 34 15 11 19
3510.0 17 17 17 13 16 24 15 28 45 57
3550.0 74 60 38 32 29 33 31 26 21 26
3590.0 47 43 31 17 21 34 24 16 20 34
3630.0 23 7 8 24 38 29 35 48 54 34
3670.0 22 41 50 35 25 36 36 29 31 33
3710.0 36 39 30 29 29 42 49 40 49 53
3750.0 50 48 41 44 46 34 28 30 39 43
3790.0 32 32 54 54 42 54 58 55 46 43
3830.0 44 43 53 58 48
##END=
