##TITLE=Dibromophenylphosphine
##JCAMP-DX=4.24
##DATA TYPE=INFRARED SPECTRUM
##ORIGIN=EPA-IR VAPOR PHASE LIBRARY
##OWNER=SRD/NIST
Collection (C) 2018 copyright by the U.S. Secretary of Commerce
on behalf of the United States of America. All rights reserved.
##CAS REGISTRY NO=1073-47-8
##MOLFORM=C 6 H 5 Br 2 P
##$NIST SOURCE=MSDC-IR
##STATE=gas
##XUNITS=1/CM
##YUNITS=ABSORBANCE
##XFACTOR=1.
##YFACTOR=0.001
##DELTAX=3.85796
##FIRSTX=501.5
##LASTX=4000.7
##FIRSTY=2.41082
##MAXX=4000.7
##MINX=501.534
##MAXY=0.0103208
##MINY=0
##NPOINTS=908
##XYDATA=(X++(Y..Y))
501.534 2.41082 2.28082 2.06082 1.56082 1.03082 0.761123 0.650623 0.640323 0.603323 0.590423
540.114 0.496323 0.376023 0.376523 0.436223 0.358723 0.300123 0.381523 0.355523 0.311223 0.276323
578.693 0.253223 0.259323 0.335023 0.379023 0.339523 0.300423 0.274623 0.288123 0.332923 0.393623
617.273 0.396023 0.379923 0.412323 0.319123 0.330823 0.473923 0.554223 0.676923 0.721923 0.952623
655.852 1.37082 1.89082 2.72082 3.64082 4.59082 5.80082 7.40082 8.95082 9.98082 10.3208
694.432 9.49082 7.93082 6.40082 5.06082 4.16082 3.81082 3.75082 3.88082 4.36082 5.55082
733.011 7.69082 9.70082 10.2108 9.04082 6.73082 4.84082 3.81082 3.12082 2.47082 1.77082
771.591 1.23082 0.876423 0.699223 0.613323 0.595523 0.580023 0.519823 0.525623 0.485623 0.450223
810.170 0.394823 0.314423 0.259923 0.220923 0.246723 0.191623 0.144723 0.139623 0.170423 0.208223
848.750 0.241623 0.220923 0.136123 0.146323 0.194823 0.167623 0.160823 0.155023 0.096173 0.100043
887.330 0.127623 0.135923 0.145223 0.176423 0.108023 0.076113 0.113423 0.113023 0.103523 0.086873
925.909 0.131723 0.216223 0.244923 0.274923 0.346423 0.378123 0.375323 0.298023 0.241623 0.230623
964.489 0.146323 0.117723 0.126823 0.112123 0.192723 0.270823 0.490023 1.09082 1.66082 1.81082
1003.068 1.54082 0.932423 0.475423 0.406723 0.496023 0.605223 0.629923 0.546823 0.391923 0.361223
1041.648 0.464323 0.598023 0.807023 1.10082 1.49082 2.03082 2.60082 3.53082 4.87082 6.16082
1080.227 6.88082 6.74082 5.97082 5.14082 4.84082 4.91082 4.84082 4.38082 3.46082 2.50082
1118.807 1.82082 1.37082 1.03082 0.790923 0.574223 0.455423 0.409123 0.313123 0.216723 0.257523
1157.387 0.344323 0.350623 0.381523 0.430623 0.509523 0.633723 0.896023 1.20082 1.37082 1.28082
1195.966 1.08082 0.861623 0.683423 0.607923 0.541423 0.528323 0.516623 0.442323 0.337923 0.353223
1234.546 0.348223 0.282223 0.287923 0.373523 0.341823 0.234723 0.301323 0.423223 0.537623 0.610323
1273.125 0.547923 0.506323 0.532023 0.551623 0.649523 0.765723 0.917823 1.08082 1.15082 1.17082
1311.705 1.15082 1.08082 1.02082 1.02082 1.08082 1.14082 1.09082 0.922023 0.733423 0.589623
1350.284 0.502023 0.459723 0.435323 0.427323 0.449323 0.461223 0.461923 0.434523 0.399323 0.390923
1388.864 0.374323 0.359823 0.387623 0.440323 0.529223 0.694623 0.970123 1.30082 1.68082 2.25082
1427.443 2.95082 3.58082 4.09082 3.92082 3.12082 2.35082 1.69082 1.30082 1.12082 0.988423
1466.023 0.910323 0.877523 0.934223 1.07082 1.15082 1.04082 0.783023 0.492423 0.311323 0.263023
1504.603 0.265823 0.268123 0.270523 0.281223 0.278323 0.264423 0.231823 0.177823 0.137523 0.120923
1543.182 0.125123 0.140223 0.157223 0.175123 0.222623 0.284723 0.366023 0.436223 0.495723 0.549923
1581.762 0.535823 0.469523 0.405323 0.349423 0.302823 0.269923 0.242623 0.234323 0.210323 0.186423
1620.341 0.191223 0.206123 0.218323 0.214823 0.230223 0.293423 0.422623 0.582523 0.707023 0.763723
1658.921 0.707123 0.555623 0.389823 0.301523 0.288723 0.279123 0.269223 0.261923 0.267023 0.230723
1697.500 0.198723 0.230723 0.236323 0.243823 0.254223 0.261523 0.301523 0.310923 0.292323 0.288323
1736.080 0.316523 0.362423 0.396523 0.411323 0.425323 0.438623 0.422623 0.392123 0.381623 0.417023
1774.659 0.462823 0.480523 0.503623 0.579223 0.736423 0.940923 1.05082 1.01082 0.848123 0.648723
1813.239 0.482223 0.409223 0.419023 0.400623 0.356723 0.335623 0.284223 0.227823 0.223123 0.241723
1851.819 0.254923 0.280223 0.314423 0.361123 0.401123 0.458423 0.535923 0.620323 0.671723 0.682823
1890.398 0.697823 0.697323 0.659623 0.580323 0.457023 0.320923 0.264223 0.262023 0.261623 0.278023
1928.978 0.303423 0.330123 0.382623 0.470923 0.535123 0.595123 0.658723 0.688123 0.706723 0.708223
1967.557 0.684723 0.616623 0.513023 0.395423 0.291223 0.228223 0.191923 0.160223 0.152223 0.129823
2006.137 0.109423 0.107423 0.098463 0.108123 0.118823 0.117023 0.109323 0.103023 0.100153 0.091923
2044.716 0.092453 0.094063 0.088633 0.099823 0.097283 0.088653 0.099193 0.117123 0.149523 0.145123
2083.296 0.115523 0.119723 0.129423 0.125523 0.137223 0.134823 0.115523 0.101623 0.091243 0.094503
2121.875 0.100693 0.105923 0.100263 0.098503 0.110623 0.126923 0.121223 0.128423 0.133023 0.133823
2160.455 0.164323 0.181723 0.175523 0.174323 0.181323 0.198523 0.198523 0.179123 0.160223 0.123823
2199.035 0.103323 0.100273 0.101523 0.095693 0.098563 0.088783 0.081833 0.084113 0.088793 0.118223
2237.614 0.110123 0.091843 0.104623 0.106123 0.103323 0.103423 0.099643 0.114023 0.127723 0.139423
2276.194 0.148323 0.140523 0.139223 0.133523 0.119123 0.114723 0.117123 0.118423 0.139623 0.173123
2314.773 0.191723 0.224823 0.254623 0.237723 0.190823 0.167223 0.155023 0.147323 0.166223 0.181623
2353.353 0.147923 0.123123 0.113123 0.094693 0.097323 0.104523 0.112123 0.109423 0.113023 0.095553
2391.932 0.071313 0.111023 0.126823 0.086193 0.062443 0.078433 0.087303 0.070903 0.073263 0.071123
2430.512 0.108523 0.119223 0.105623 0.107123 0.091263 0.087603 0.077813 0.078963 0.090613 0.106523
2469.092 0.100503 0.078943 0.078713 0.082673 0.078923 0.098343 0.120523 0.119323 0.107723 0.098733
2507.671 0.086183 0.091783 0.126523 0.123923 0.096543 0.114523 0.133323 0.118023 0.126823 0.146223
2546.251 0.137223 0.124123 0.157023 0.194223 0.194723 0.187623 0.185323 0.190023 0.190123 0.225423
2584.830 0.229723 0.193223 0.167823 0.154323 0.167623 0.174523 0.167723 0.153723 0.159023 0.189223
2623.410 0.179123 0.144423 0.165323 0.168723 0.151323 0.148523 0.162823 0.177623 0.183023 0.231223
2661.989 0.254823 0.237423 0.212423 0.179123 0.192823 0.232423 0.216923 0.194523 0.192023 0.179423
2700.569 0.153123 0.114223 0.109923 0.105223 0.084313 0.084323 0.085643 0.084473 0.094283 0.080653
2739.148 0.057973 0.088963 0.100673 0.054463 0.012933 0.035353 0.060913 0.054173 0.075383 0.103423
2777.728 0.102123 0.091753 0.061463 0.039873 0.088573 0.093203 0.084543 0.084243 0.094893 0.115723
2816.308 0.081073 0.075203 0.129123 0.175423 0.170823 0.165723 0.142623 0.089103 0.112123 0.159223
2854.887 0.161623 0.130223 0.138023 0.185623 0.194123 0.151623 0.131623 0.130923 0.142623 0.187823
2893.467 0.172923 0.164123 0.169623 0.177223 0.196923 0.182023 0.165123 0.184123 0.198723 0.197523
2932.046 0.184623 0.176223 0.133823 0.138023 0.203723 0.210023 0.180923 0.185223 0.184623 0.173723
2970.626 0.216023 0.248523 0.269623 0.305423 0.409823 0.527023 0.567523 0.653223 0.798123 1.00082
3009.205 1.21082 1.33082 1.40082 1.37082 1.27082 1.11082 0.996523 1.01082 1.07082 1.25082
3047.785 1.62082 2.25082 3.39082 5.08082 6.89082 8.06082 8.24082 7.54082 6.55082 5.77082
3086.364 5.01082 4.10082 3.12082 2.23082 1.55082 1.07082 0.791523 0.641823 0.530523 0.442323
3124.944 0.417823 0.481623 0.542923 0.536523 0.523323 0.545923 0.554223 0.496323 0.387423 0.323623
3163.524 0.238023 0.162323 0.127023 0.129923 0.156523 0.160623 0.147823 0.150623 0.152223 0.120623
3202.103 0.080563 0.086503 0.124323 0.165623 0.193623 0.154423 0.154623 0.175323 0.167423 0.144423
3240.683 0.118323 0.093063 0.088373 0.095883 0.128623 0.127923 0.111023 0.148223 0.166423 0.137223
3279.262 0.135623 0.159523 0.117223 0.064373 0.057123 0.075373 0.106623 0.122223 0.113523 0.132023
3317.842 0.136723 0.111323 0.059273 0.074783 0.122923 0.115623 0.102323 0.090273 0.116123 0.115223
3356.421 0.088323 0.111323 0.135823 0.087473 0.072053 0.096643 0.087333 0.077213 0.095493 0.151123
3395.001 0.136123 0.074173 0.074313 0.117823 0.150823 0.124723 0.072143 0.080143 0.089843 0.059883
3433.580 0.089013 0.112923 0.113423 0.133423 0.153623 0.170223 0.168423 0.149723 0.124723 0.143123
3472.160 0.164523 0.146023 0.142123 0.152423 0.155623 0.138223 0.133923 0.140023 0.113423 0.098433
3510.740 0.134723 0.122823 0.134823 0.163623 0.139023 0.148523 0.143823 0.151223 0.176123 0.169923
3549.319 0.135123 0.106123 0.148823 0.171023 0.135823 0.079103 0.052863 0.085853 0.088453 0.123923
3587.899 0.164323 0.126423 0.154523 0.151023 0.085263 0.108223 0.116423 0.131923 0.152823 0.144023
3626.478 0.145023 0.163623 0.177023 0.167323 0.186423 0.121223 0.078233 0.111123 0.155523 0.156523
3665.058 0.106823 0.152423 0.166823 0.111423 0.126023 0.179223 0.232023 0.217123 0.178123 0.165823
3703.637 0.168723 0.158023 0.090803 0.084613 0.090043 0.102723 0.137723 0.136623 0.118523 0.109423
3742.217 0.119923 0.119323 0.170723 0.214023 0.158323 0.166923 0.220623 0.184323 0.150623 0.138623
3780.797 0.103223 0.078443 0.073313 0.093383 0.085893 0.110323 0.107123 0.123723 0.190423 0.178323
3819.376 0.105223 0.031603 0.059493 0.065663 0.045673 0.097733 0.105523 0.078663 0.070823 0.096313
3857.956 0.100513 0.106123 0.188523 0.196323 0.138823 0.074723 0 0.030763 0.086563 0.070343
3896.535 0.101323 0.141223 0.108323 0.123923 0.142323 0.100043 0.087653 0.117923 0.119523 0.085643
3935.115 0.084373 0.064473 0.055133 0.107523 0.155723 0.218823 0.187923 0.082243 0.134923 0.197523
3973.694 0.129423 0.119623 0.173523 0.182223 0.167523 0.175923 0.183823 0.116523
##END=
