##TITLE=2,6-Lutidine-N-oxide
##JCAMP-DX=4.24
##DATA TYPE=INFRARED SPECTRUM
##ORIGIN=EPA-IR VAPOR PHASE LIBRARY
##OWNER=SRD/NIST
Collection (C) 2018 copyright by the U.S. Secretary of Commerce
on behalf of the United States of America. All rights reserved.
##CAS REGISTRY NO=1073-23-0
##MOLFORM=C 7 H 9 N O
##$NIST SOURCE=MSDC-IR
##STATE=gas
##XUNITS=1/CM
##YUNITS=ABSORBANCE
##XFACTOR=1.
##YFACTOR=0.001
##DELTAX=1.92934
##FIRSTX=549.9
##LASTX=3999.5
##FIRSTY=0.48134
##MAXX=3999.53
##MINX=549.863
##MAXY=0.068995
##MINY=0
##NPOINTS=1789
##XYDATA=(X++(Y..Y))
549.863 0.48134 0.47176 0.44538 0.5762 0.62 0.5561 0.4495 0.55109 0.6545 0.65
569.156 0.7227 0.574 0.51061 0.586 0.53721 0.51066 0.5607 0.584 0.5816 0.6194
588.450 0.5686 0.53237 0.5687 0.4352 0.4025 0.54815 0.454046 0.47859 0.5746 0.4413
607.743 0.3654 0.3743 0.4105 0.3901 0.3737 0.4463 0.44786 0.3604 0.3665 0.4307
627.037 0.48339 0.3995 0.302 0.4085 0.463082 0.407 0.304 0.309 0.4107 0.3729
646.330 0.306 0.307 0.3687 0.4318 0.4079 0.4135 0.4145 0.4128 0.4119 0.463624
665.624 0.523 0.55117 0.55106 0.4744 0.3993 0.4367 0.50671 0.53646 0.54232 0.54349
684.917 0.52521 0.51734 0.5917 0.5976 0.598 0.6148 0.5591 0.55157 0.54503 0.55383
704.210 0.6077 0.6769 0.6973 0.7067 0.6798 0.7127 0.7356 0.748 0.8147 0.933
723.504 1.0287 1.1168 1.3178 1.645 2.135 2.865 3.875 5.175 6.725 8.555
742.797 10.215 11.585 12.405 12.795 13.065 14.805 20.315 33.535 42.615 28.735
762.091 14.655 13.065 13.565 14.105 13.735 12.545 10.635 8.545 6.465 4.685
781.384 3.315 2.365 1.725 1.3952 1.1839 1.0446 1.0097 1.0168 1.0804 1.1608
800.678 1.1721 1.1839 1.2721 1.3324 1.3286 1.4149 1.475 1.475 1.555 1.675
819.971 1.775 2.005 2.325 2.775 3.335 4.075 4.925 5.785 6.555 7.045
839.264 7.245 6.995 6.435 6.435 6.975 7.095 6.835 6.275 5.355 4.425
858.558 3.485 2.665 2.095 1.665 1.4369 1.2508 1.0548 0.9234 0.8316 0.7946
877.851 0.775 0.7647 0.71 0.6461 0.6654 0.6875 0.6732 0.6837 0.7199 0.7228
897.145 0.7095 0.7272 0.7331 0.8647 1.0275 1.1768 1.3237 1.465 1.595 1.615
916.438 1.655 1.735 1.825 1.825 1.845 1.875 1.805 1.725 1.595 1.485
935.732 1.4493 1.3651 1.3 1.2576 1.2482 1.3186 1.3608 1.3557 1.3321 1.2888
955.025 1.2759 1.2716 1.3235 1.3933 1.4324 1.4472 1.475 1.645 1.825 1.995
974.318 2.185 2.345 2.525 2.655 2.665 2.705 2.645 2.575 2.625 2.655
993.612 2.595 2.455 2.295 2.105 1.845 1.595 1.465 1.3515 1.2254 1.1441
1012.905 1.1947 1.2455 1.2017 1.1989 1.2926 1.3718 1.4342 1.505 1.565 1.665
1032.199 1.795 1.895 1.935 1.835 1.635 1.495 1.4435 1.4201 1.395 1.3843
1051.492 1.3782 1.4103 1.505 1.635 1.795 1.945 2.075 2.275 2.425 2.535
1070.786 2.675 2.715 2.775 2.945 3.165 3.435 3.815 4.215 4.605 5.055
1090.079 5.385 5.535 5.545 5.285 4.915 4.825 4.955 4.965 4.785 4.365
1109.372 3.805 3.185 2.595 2.075 1.675 1.4162 1.1584 1.0314 0.9858 0.8441
1128.666 0.742 0.6947 0.6637 0.6629 0.6975 0.7764 0.8257 0.8788 0.9232 0.8564
1147.959 0.8319 0.8538 0.7905 0.8516 0.9009 0.9061 0.8848 0.8315 0.7712 0.7407
1167.253 0.7966 0.8229 0.8812 0.9126 1.004 1.0834 1.1003 1.2582 1.455 1.525
1186.546 1.655 1.795 1.755 1.795 1.945 2.095 2.165 2.205 2.205 2.185
1205.840 2.225 2.165 2.125 2.095 2.085 2.195 2.245 2.275 2.365 2.365
1225.133 2.435 2.735 3.005 3.295 3.715 4.305 5.035 6.025 7.375 8.905
1244.426 10.755 12.975 15.725 18.895 22.395 26.405 30.995 36.115 41.755 47.915
1263.720 54.235 60.115 64.925 68.005 68.995 68.315 66.595 64.645 62.855 60.665
1283.013 57.115 51.875 45.045 37.295 29.635 22.655 16.815 12.325 9.165 6.945
1302.307 5.395 4.395 3.715 3.195 2.785 2.495 2.215 2.035 1.905 1.765
1321.600 1.645 1.565 1.545 1.525 1.505 1.465 1.465 1.475 1.505 1.615
1340.894 1.795 2.085 2.465 2.945 3.665 4.625 5.845 7.345 9.125 11.175
1360.187 13.235 15.045 16.525 17.555 18.065 18.305 18.695 19.585 20.565 20.855
1379.480 20.295 19.105 17.615 16.365 15.465 14.775 14.045 13.045 11.995 11.255
1398.774 10.985 11.065 11.165 11.155 10.975 10.685 10.355 10.015 9.755 9.575
1418.067 9.385 9.105 8.835 8.585 8.485 8.625 8.885 9.115 9.105 9.015
1437.361 9.155 9.635 10.425 11.405 12.455 13.495 14.385 14.985 15.215 15.075
1456.654 14.675 14.265 14.175 14.175 13.655 12.655 11.415 10.035 8.785 7.685
1475.948 6.785 6.265 6.145 6.285 6.655 7.195 7.885 8.645 9.355 9.815
1495.241 10.105 10.285 10.325 10.295 10.065 9.705 9.385 8.975 8.165 6.955
1514.534 5.745 4.725 3.955 3.495 3.255 3.115 3.055 3.065 3.145 3.235
1533.828 3.415 3.685 3.975 4.275 4.675 5.085 5.475 5.885 6.175 6.375
1553.121 6.495 6.535 6.505 6.335 6.105 5.835 5.485 5.015 4.455 3.825
1572.415 3.205 2.675 2.235 1.975 1.815 1.675 1.585 1.515 1.465 1.454
1591.708 1.4179 1.3622 1.3603 1.3704 1.3768 1.4155 1.465 1.475 1.505 1.535
1611.002 1.595 1.655 1.675 1.745 1.745 1.765 1.855 1.855 1.815 1.825
1630.295 1.815 1.755 1.675 1.605 1.515 1.4335 1.3948 1.338 1.2223 1.1249
1649.588 1.1133 1.0646 0.9516 0.8352 0.7774 0.8026 0.7547 0.7128 0.6856 0.6547
1668.882 0.6727 0.7024 0.7036 0.6542 0.6337 0.6457 0.6272 0.6507 0.7063 0.7436
1688.175 0.7692 0.7611 0.7889 0.8079 0.7626 0.7822 0.8421 0.8238 0.7855 0.7778
1707.469 0.7401 0.6852 0.6821 0.6796 0.6383 0.5898 0.53888 0.50479 0.5097 0.50545
1726.762 0.5074 0.51308 0.52481 0.52944 0.53246 0.53424 0.5561 0.6505 0.7217 0.7843
1746.056 0.825 0.8512 0.9127 0.9834 1.0622 1.1082 1.1437 1.1811 1.1996 1.2096
1765.349 1.2542 1.2663 1.2607 1.2368 1.1706 1.1443 1.0475 0.9475 0.8873 0.8433
1784.642 0.8077 0.7349 0.6754 0.6466 0.6565 0.6477 0.63 0.6335 0.624 0.6017
1803.936 0.5868 0.5593 0.5936 0.6813 0.7311 0.7502 0.7967 0.8978 0.9379 0.9509
1823.229 1.0189 1.033 0.9857 0.9868 0.9833 0.9866 0.9517 0.8998 0.8479 0.7654
1842.523 0.6888 0.606 0.53166 0.51307 0.52526 0.462306 0.4316 0.4138 0.3963 0.45388
1861.816 0.49254 0.50782 0.5657 0.6016 0.6175 0.6918 0.7684 0.8472 0.9242 0.9745
1881.110 1.0535 1.1956 1.3334 1.4171 1.465 1.475 1.505 1.485 1.455 1.4438
1900.403 1.4063 1.3396 1.2611 1.1813 1.0955 0.9928 0.8406 0.7475 0.6912 0.6346
1919.696 0.6027 0.5698 0.53575 0.55134 0.6064 0.6054 0.57 0.53961 0.53908 0.55025
1938.990 0.5946 0.6411 0.6371 0.6265 0.616 0.6279 0.6466 0.6376 0.6164 0.5719
1958.283 0.54133 0.52899 0.49077 0.51505 0.50588 0.4343 0.4218 0.4184 0.3807 0.3683
1977.577 0.352 0.337 0.345 0.3616 0.355 0.347 0.3596 0.323 0.341 0.3801
1996.870 0.3576 0.3568 0.3774 0.4126 0.44973 0.4104 0.351 0.3558 0.3559 0.3758
2016.164 0.4187 0.4168 0.3736 0.346 0.353 0.3832 0.4086 0.3785 0.344 0.35
2035.457 0.3588 0.344 0.314 0.34 0.4155 0.4166 0.4288 0.4405 0.44694 0.48867
2054.750 0.50143 0.50158 0.51096 0.53321 0.51591 0.50343 0.51903 0.516 0.51356 0.52174
2074.044 0.54402 0.53021 0.52754 0.52555 0.50918 0.49432 0.49188 0.52608 0.53198 0.585
2093.337 0.6405 0.6107 0.6251 0.6714 0.7339 0.7838 0.785 0.8541 0.9119 0.9331
2112.631 0.9296 0.8791 0.8575 0.8751 0.8703 0.8388 0.7857 0.7136 0.6723 0.6067
2131.924 0.54125 0.49986 0.47053 0.44503 0.3923 0.354 0.347 0.3826 0.3688 0.3607
2151.218 0.3616 0.345 0.334 0.319 0.353 0.367 0.3575 0.3737 0.4125 0.401
2170.511 0.3791 0.4245 0.461655 0.46578 0.47132 0.47829 0.463011 0.47904 0.51509 0.52625
2189.804 0.52938 0.53769 0.52834 0.54278 0.5581 0.5559 0.5851 0.5994 0.613 0.6351
2209.098 0.6157 0.5587 0.54904 0.5813 0.6191 0.6502 0.6987 0.7406 0.7518 0.7642
2228.391 0.7707 0.8093 0.8355 0.7954 0.78 0.8017 0.7504 0.699 0.722 0.7167
2247.685 0.6565 0.5983 0.579 0.54713 0.47285 0.4368 0.427 0.4226 0.426 0.4048
2266.978 0.4033 0.4044 0.3804 0.3742 0.4267 0.4352 0.4037 0.4209 0.4444 0.460276
2286.272 0.464773 0.46842 0.47857 0.4876 0.48868 0.51876 0.5673 0.53051 0.50431 0.53446
2305.565 0.54882 0.54314 0.54436 0.54046 0.52581 0.5665 0.6098 0.5561 0.50442 0.53199
2324.858 0.51939 0.46872 0.48657 0.48351 0.4423 0.48252 0.49018 0.460997 0.48451 0.50227
2344.152 0.48251 0.48251 0.52944 0.5049 0.49606 0.54651 0.5718 0.625 0.6444 0.6452
2363.445 0.636 0.6728 0.7013 0.6831 0.698 0.6833 0.7138 0.7614 0.7551 0.7203
2382.739 0.7143 0.736 0.7595 0.7864 0.7988 0.7882 0.7783 0.7861 0.799 0.7988
2402.032 0.7749 0.7323 0.7118 0.7236 0.7264 0.7561 0.7666 0.7074 0.7013 0.7055
2421.326 0.6563 0.6533 0.6531 0.6593 0.6915 0.7026 0.7107 0.6888 0.6699 0.6711
2440.619 0.6543 0.6625 0.7003 0.7336 0.735 0.7292 0.7622 0.8083 0.8059 0.7644
2459.912 0.7528 0.7446 0.7307 0.7647 0.7696 0.7661 0.8046 0.7862 0.699 0.63
2479.206 0.6618 0.6534 0.5991 0.5596 0.5606 0.5905 0.55452 0.50289 0.5084 0.53281
2498.499 0.5616 0.6032 0.5841 0.6073 0.647 0.6707 0.7485 0.8333 0.897 0.9501
2517.793 1.0433 1.1483 1.2268 1.2855 1.3435 1.4441 1.465 1.485 1.585 1.635
2537.086 1.635 1.605 1.585 1.535 1.505 1.452 1.374 1.309 1.2377 1.1118
2556.380 1.0166 0.931 0.7992 0.7478 0.691 0.6535 0.602 0.53579 0.49038 0.47399
2575.673 0.46734 0.44702 0.428 0.3878 0.3665 0.344 0.312 0.31 0.32 0.337
2594.966 0.3557 0.324 0.285 0.288 0.321 0.311 0.263 0.248 0.27 0.315
2614.260 0.344 0.347 0.324 0.326 0.3854 0.4407 0.4055 0.3806 0.4125 0.4435
2633.553 0.4725 0.50487 0.51663 0.54059 0.6063 0.6345 0.6344 0.6337 0.6444 0.6635
2652.847 0.6476 0.6545 0.6085 0.5563 0.5476 0.53498 0.54576 0.5597 0.5703 0.5917
2672.140 0.5982 0.53002 0.46871 0.47924 0.51932 0.44655 0.4136 0.460198 0.402 0.338
2691.434 0.331 0.334 0.343 0.326 0.276 0.265 0.305 0.284 0.238 0.25
2710.727 0.296 0.3603 0.324 0.292 0.328 0.4158 0.4158 0.3761 0.4111 0.4055
2730.020 0.47096 0.53168 0.47101 0.4298 0.44662 0.52104 0.6128 0.6098 0.5832 0.5726
2749.314 0.6014 0.6824 0.7019 0.6418 0.6432 0.6953 0.6567 0.6593 0.691 0.7197
2768.607 0.7462 0.7507 0.7168 0.6425 0.6614 0.5697 0.5987 0.6652 0.5908 0.51251
2787.901 0.48109 0.50984 0.53987 0.51979 0.51476 0.6458 0.6816 0.6377 0.6379 0.6587
2807.194 0.6891 0.6481 0.6829 0.813 0.8322 0.7867 0.8252 0.9044 0.9219 0.9687
2826.488 1.0356 1.0962 1.1273 1.1598 1.1688 1.1889 1.2371 1.23 1.227 1.3037
2845.781 1.2658 1.1967 1.3039 1.3807 1.2969 1.2561 1.2794 1.2671 1.3208 1.3115
2865.074 1.2796 1.2882 1.2578 1.2772 1.3257 1.4467 1.515 1.595 1.745 1.755
2884.368 1.805 1.925 1.975 2.035 2.175 2.275 2.275 2.325 2.475 2.595
2903.661 2.735 2.985 3.305 3.705 4.315 5.095 5.975 7.005 8.035 8.915
2922.955 9.615 10.195 10.535 10.715 10.805 10.725 10.625 10.325 9.705 8.975
2942.248 8.195 7.355 6.585 5.965 5.565 5.205 4.955 4.935 4.905 5.045
2961.542 5.275 5.685 6.205 6.275 5.875 5.305 4.945 4.945 5.115 5.255
2980.835 5.385 5.515 5.645 5.815 5.955 6.075 6.245 6.255 6.185 6.195
3000.128 6.175 5.915 5.605 5.345 4.985 4.505 3.975 3.535 3.215 2.885
3019.422 2.475 2.125 1.955 1.885 1.695 1.705 1.765 1.715 1.795 1.985
3038.715 2.275 2.525 2.815 3.075 3.415 3.755 3.955 4.295 4.575 4.755
3058.009 5.015 5.155 5.185 5.045 4.975 4.995 4.805 4.565 4.325 4.095
3077.302 3.905 3.665 3.305 3.015 2.875 2.665 2.535 2.455 2.385 2.295
3096.596 2.115 2.055 1.895 1.845 1.785 1.615 1.645 1.725 1.635 1.535
3115.889 1.4271 1.2653 1.412 1.4312 1.2258 1.0767 1.0648 1.03 0.7946 0.7265
3135.182 0.7515 0.6946 0.55377 0.48987 0.460333 0.4139 0.3699 0.3916 0.3746 0.44677
3154.476 0.5644 0.438 0.3723 0.3636 0.352 0.52587 0.5731 0.4324 0.455103 0.437
3173.769 0.4111 0.344 0.249 0.23 0.228 0.263 0.235 0.273 0.4212 0.4075
3193.063 0.26 0.277 0.262 0.057 0.033 0.163 0.262 0.241 0.243 0.201
3212.356 0.055 0.062 0.103 0.12 0.179 0.277 0.3789 0.306 0.205 0.309
3231.650 0.349 0.254 0.166 0.197 0.311 0.51633 0.4256 0.27 0.3962 0.4079
3250.943 0.282 0.061 0.033 0.174 0.244 0.242 0.164 0.124 0.1 0.161
3270.236 0.202 0.258 0.283 0.196 0.297 0.3816 0.314 0.181 0.089 0.11
3289.530 0.184 0.126 0.21 0.235 0.292 0.3711 0.182 0.206 0.249 0.304
3308.823 0.334 0.287 0.326 0.289 0.134 0.097 0.147 0.257 0.27 0.167
3328.117 0.086 0.211 0.3808 0.275 0.319 0.339 0.246 0.16 0.123 0.267
3347.410 0.3994 0.301 0.211 0.165 0.186 0.257 0.186 0.078 0.117 0.245
3366.704 0.265 0.255 0.297 0.3607 0.27 0.126 0.087 0.15 0.313 0.31
3385.997 0.238 0.224 0.29 0.292 0.175 0.249 0.275 0.222 0.2 0.217
3405.290 0.119 0.159 0.126 0.117 0.213 0.309 0.464481 0.4301 0.277 0.218
3424.584 0.265 0.224 0.223 0.086 0 0.068 0.169 0.291 0.313 0.237
3443.877 0.303 0.3877 0.4043 0.35 0.303 0.3985 0.3699 0.26 0.201 0.111
3463.171 0.117 0.253 0.325 0.304 0.339 0.35 0.276 0.249 0.265 0.3671
3482.464 0.3658 0.279 0.332 0.284 0.289 0.348 0.274 0.227 0.235 0.265
3501.758 0.21 0.193 0.124 0.127 0.203 0.137 0.141 0.137 0.17 0.264
3521.051 0.226 0.248 0.348 0.4198 0.3955 0.3836 0.3637 0.259 0.134 0.144
3540.344 0.247 0.191 0.264 0.341 0.297 0.178 0.182 0.3731 0.4323 0.3859
3559.638 0.4128 0.50926 0.457757 0.352 0.26 0.303 0.4238 0.257 0.214 0.293
3578.931 0.227 0.27 0.348 0.438 0.4309 0.286 0.308 0.44875 0.3768 0.4216
3598.225 0.3707 0.252 0.32 0.3739 0.3712 0.338 0.278 0.194 0.264 0.262
3617.518 0.274 0.3 0.239 0.292 0.343 0.3826 0.4133 0.316 0.315 0.3779
3636.812 0.3668 0.3586 0.304 0.293 0.34 0.32 0.276 0.183 0.155 0.162
3656.105 0.192 0.313 0.3706 0.329 0.285 0.3639 0.324 0.247 0.339 0.329
3675.398 0.313 0.335 0.339 0.271 0.278 0.353 0.379 0.4435 0.3758 0.344
3694.692 0.301 0.186 0.217 0.199 0.248 0.32 0.244 0.283 0.32 0.267
3713.985 0.307 0.317 0.3 0.28 0.224 0.227 0.27 0.273 0.26 0.26
3733.279 0.316 0.3706 0.349 0.305 0.354 0.3674 0.229 0.266 0.313 0.291
3752.572 0.287 0.376 0.3853 0.333 0.3965 0.368 0.3 0.284 0.297 0.4116
3771.866 0.49982 0.47803 0.44584 0.39 0.4203 0.4164 0.3855 0.3775 0.3584 0.3891
3791.159 0.4066 0.329 0.254 0.208 0.247 0.292 0.3588 0.4128 0.327 0.295
3810.452 0.33 0.3746 0.339 0.317 0.297 0.354 0.3839 0.271 0.304 0.348
3829.746 0.325 0.3692 0.4046 0.39 0.333 0.4009 0.434 0.333 0.293 0.3606
3849.039 0.3726 0.255 0.301 0.48382 0.48288 0.326 0.295 0.4271 0.47596 0.3606
3868.333 0.337 0.3867 0.4019 0.4214 0.47299 0.405 0.299 0.345 0.3694 0.389
3887.626 0.45283 0.4136 0.352 0.46724 0.6156 0.567 0.46818 0.49309 0.53475 0.54552
3906.920 0.51622 0.4343 0.4131 0.4165 0.4453 0.51652 0.51901 0.55331 0.5936 0.5556
3926.213 0.51906 0.45063 0.3739 0.4171 0.5669 0.6704 0.632 0.428 0.308 0.4033
3945.506 0.379 0.4158 0.47579 0.46794 0.45708 0.4206 0.3936 0.4171 0.47081 0.49707
3964.800 0.50754 0.52334 0.4891 0.3738 0.3608 0.3619 0.344 0.321 0.341 0.37
3984.093 0.4304 0.4365 0.305 0.333 0.432 0.457817 0.4148 0.4028 0.53085
##END=
