##TITLE=(1,2-Dichloroethyl)benzene
##JCAMP-DX=4.24
##DATA TYPE=INFRARED SPECTRUM
##ORIGIN=EPA-IR VAPOR PHASE LIBRARY
##OWNER=SRD/NIST
Collection (C) 2018 copyright by the U.S. Secretary of Commerce
on behalf of the United States of America. All rights reserved.
##CAS REGISTRY NO=1074-11-9
##MOLFORM=C 8 H 8 Cl 2
##$NIST SOURCE=MSDC-IR
##STATE=gas
##XUNITS=1/CM
##YUNITS=ABSORBANCE
##XFACTOR=1.
##YFACTOR=0.001
##DELTAX=1.92898
##FIRSTX=549.8
##LASTX=4000.7
##FIRSTY=1.132
##MAXX=4000.7
##MINX=549.759
##MAXY=0.032107
##MINY=0
##NPOINTS=1790
##XYDATA=(X++(Y..Y))
549.759 1.132 1.1679 1.327 1.687 1.747 1.777 2.077 2.067 1.887 1.537
569.049 1.707 1.937 1.737 1.517 1.577 1.647 1.777 2.007 2.357 2.587
588.339 2.777 3.047 3.157 3.527 3.417 3.047 2.897 2.717 2.597 2.397
607.628 2.297 2.417 2.497 2.517 2.507 2.397 2.247 1.767 1.437 1.567
626.918 1.527 1.377 1.407 1.527 1.567 1.627 1.627 1.837 2.087 2.097
646.208 2.197 2.317 2.577 2.807 3.087 3.387 3.627 3.937 4.297 4.807
665.498 5.207 5.677 6.327 6.807 7.317 7.967 8.577 9.407 10.637 11.987
684.787 13.417 15.017 16.897 18.877 20.737 22.727 24.877 26.947 28.857 30.447
704.077 31.587 32.107 31.797 30.907 29.417 27.427 24.597 21.207 18.057 15.277
723.367 13.327 11.997 11.237 11.107 11.117 11.127 11.107 10.947 10.647 10.097
742.657 9.337 8.637 7.767 6.747 5.777 5.137 4.897 4.847 4.827 5.067
761.947 5.397 5.657 6.017 6.337 6.507 6.417 6.297 6.027 5.537 5.047
781.236 4.427 3.987 3.697 3.377 3.337 3.447 3.407 3.377 3.437 3.337
800.526 3.057 3.037 3.147 2.907 2.537 2.347 2.307 1.997 1.737 1.567
819.816 1.297 1.0594 0.8882 0.8849 1.0877 1.307 1.1419 0.9629 1.0968 1.1476
839.106 1.0915 1.0636 1.1428 1.1276 1.0931 1.066 0.9801 0.8785 0.8323 0.8903
858.395 0.8196 0.7131 0.756 0.8799 0.9894 0.9632 0.8225 0.7376 0.7602 0.7926
877.685 0.9458 0.9508 0.7733 0.8248 0.9179 1.0498 1.0717 0.9243 1.0395 1.1271
896.975 1.0908 1.2454 1.397 1.377 1.377 1.607 1.737 1.877 1.857 1.837
916.265 1.877 1.847 1.967 2.187 2.447 2.657 2.887 3.137 3.467 3.807
935.555 4.057 4.247 4.377 4.427 4.267 4.027 3.787 3.537 3.227 2.797
954.844 2.197 1.637 1.497 1.447 1.437 1.207 0.754 0.7005 0.7594 0.7012
974.134 0.7587 0.5885 0.4454 0.7034 0.6948 0.7181 0.9654 1.1054 1.1342 1.0494
993.424 1.0441 1.0889 1.0877 1.1084 1.1134 1.1737 1.437 1.457 1.257 1.327
1012.714 1.377 1.1478 1.2433 1.387 1.1985 1.277 1.527 1.727 1.597 1.577
1032.003 1.937 2.097 1.987 1.577 1.637 1.677 1.337 1.0493 0.6168 0.5316
1051.293 0.7641 0.7634 0.7816 0.9597 0.9819 1.044 1.0386 1.0743 1.507 1.577
1070.583 1.477 1.537 1.527 1.297 1.2331 1.287 1.0197 0.807 1.0002 1.257
1089.873 1.0473 0.618 0.8349 1.0817 0.906 0.9371 0.7166 0.4861 0.719 0.8758
1109.163 0.7391 0.5649 0.5271 0.4545 0.3656 0.7774 0.9739 0.9467 0.741 0.6754
1128.452 0.8803 0.7384 0.7288 0.8652 0.8077 1.0097 0.9523 0.9064 1.1157 1.1943
1147.742 1.437 1.777 1.817 1.867 1.967 1.997 2.017 1.837 1.847 1.667
1167.032 1.537 1.547 1.727 2.037 2.207 2.297 2.387 2.257 1.827 1.897
1186.322 2.457 2.737 3.107 3.327 3.507 4.017 4.337 4.687 4.847 4.727
1205.611 4.577 4.137 3.857 3.847 3.327 2.857 2.717 2.557 2.527 2.477
1224.901 2.537 2.777 2.667 2.507 2.567 2.617 2.647 2.777 2.617 2.287
1244.191 2.307 2.417 2.367 2.257 2.507 2.877 2.807 2.767 2.957 3.117
1263.481 3.267 3.557 3.737 3.677 3.777 4.007 4.187 4.127 3.797 3.587
1282.771 3.447 3.157 2.987 2.767 2.467 2.267 2.297 2.377 2.407 2.417
1302.060 2.397 2.437 2.437 2.387 2.337 2.307 2.197 2.147 2.047 1.937
1321.350 1.907 1.927 1.907 1.817 1.817 1.747 1.707 1.687 1.697 1.717
1340.640 1.727 1.737 1.727 1.747 1.757 1.747 1.717 1.687 1.647 1.557
1359.930 1.457 1.347 1.1921 1.0983 1.0675 1.0014 0.9179 0.9055 0.9227 0.9155
1379.219 0.9073 0.8971 0.8322 0.7898 0.7789 0.7625 0.7519 0.7527 0.7604 0.7373
1398.509 0.7006 0.6602 0.6592 0.7067 0.7945 0.7778 0.7791 0.8945 0.9884 1.1169
1417.799 1.257 1.427 1.557 1.697 1.967 2.247 2.487 2.787 3.057 3.257
1437.089 3.597 3.977 4.317 4.747 5.217 5.497 5.567 5.627 5.687 5.697
1456.378 5.557 4.987 4.257 3.697 3.267 2.847 2.477 2.197 1.987 1.857
1475.668 1.877 1.987 2.137 2.297 2.467 2.667 2.957 3.207 3.377 3.517
1494.958 3.587 3.617 3.567 3.397 3.097 2.747 2.397 2.027 1.647 1.417
1514.248 1.297 1.1661 1.118 1.0057 1.0036 1.0594 1.0095 0.9903 0.9877 0.989
1533.538 0.9311 0.8836 0.7865 0.7493 0.8124 0.8115 0.7986 0.8014 0.8304 0.8313
1552.827 0.8124 0.7746 0.6698 0.5933 0.6121 0.7506 0.8451 0.815 0.8201 0.8394
1572.117 0.9248 0.9203 0.8948 0.9857 1.0587 1.1332 1.153 1.1439 1.2213 1.267
1591.407 1.2233 1.2222 1.257 1.247 1.2229 1.277 1.257 1.207 1.1702 1.0794
1610.697 1.037 0.9448 0.7668 0.6805 0.6765 0.6097 0.5439 0.535 0.5009 0.4983
1629.986 0.5056 0.4746 0.475 0.4864 0.4813 0.5097 0.5393 0.4946 0.436 0.4297
1649.276 0.4437 0.3929 0.4303 0.5138 0.48 0.5019 0.4839 0.4538 0.461 0.373
1668.566 0.386 0.4257 0.4186 0.4391 0.4389 0.4839 0.4933 0.4208 0.4179 0.4566
1687.856 0.4715 0.4678 0.3655 0.33483 0.412 0.4218 0.3806 0.3791 0.3988 0.3868
1707.146 0.3883 0.3884 0.3874 0.3858 0.34303 0.32919 0.4026 0.4325 0.4426 0.4654
1726.435 0.4969 0.5887 0.6572 0.6496 0.6429 0.6682 0.6862 0.6727 0.7043 0.7175
1745.725 0.6474 0.6363 0.6015 0.5625 0.5725 0.562 0.5482 0.561 0.5726 0.5447
1765.015 0.568 0.6117 0.5718 0.4798 0.507 0.6097 0.719 0.7564 0.7848 0.8687
1784.305 0.9362 1.0152 1.0767 1.1501 1.1485 1.1278 1.1403 1.0937 1.078 1.0205
1803.594 0.9489 0.8601 0.713 0.6822 0.7076 0.7103 0.6362 0.5556 0.5787 0.5634
1822.884 0.5326 0.5286 0.4606 0.4408 0.4632 0.4694 0.5193 0.5133 0.4572 0.4387
1842.174 0.4569 0.4977 0.5616 0.5463 0.5527 0.5984 0.6125 0.6645 0.695 0.7044
1861.464 0.7676 0.889 0.9023 0.8932 0.8993 0.8968 0.9261 0.9346 0.9784 1.0113
1880.754 0.9944 0.9365 0.8843 0.9009 0.9467 0.9048 0.8697 0.8115 0.7063 0.6492
1900.043 0.6016 0.5813 0.5616 0.581 0.6012 0.5876 0.5836 0.5883 0.5805 0.5915
1919.333 0.6081 0.6306 0.688 0.723 0.7319 0.8206 0.888 0.8943 0.9797 1.0459
1938.623 1.0501 1.0878 1.1127 1.122 1.0679 1.0681 1.0859 1.0449 1.0339 1.0101
1957.913 1.0456 1.0429 1.0284 0.9819 0.853 0.8178 0.7629 0.6698 0.5503 0.4536
1977.202 0.4586 0.4113 0.4133 0.4458 0.3851 0.42 0.4368 0.3867 0.4031 0.3532
1996.492 0.3309 0.3605 0.3408 0.3557 0.4254 0.4702 0.3901 0.369 0.4038 0.386
2015.782 0.4047 0.3969 0.3741 0.3728 0.33272 0.33065 0.34216 0.33625 0.33014 0.31738
2035.072 0.4101 0.3882 0.32736 0.33735 0.32381 0.31316 0.32824 0.3596 0.34418 0.32193
2054.362 0.30034 0.29211 0.32657 0.33301 0.33274 0.30634 0.27699 0.30052 0.27988 0.31926
2073.651 0.3811 0.34478 0.29211 0.30667 0.32108 0.33697 0.3475 0.31882 0.29952 0.31026
2092.941 0.33023 0.3682 0.3804 0.3545 0.34248 0.3553 0.3489 0.32828 0.34026 0.34224
2112.231 0.3606 0.3819 0.422 0.3969 0.4033 0.4472 0.3823 0.3564 0.3572 0.32124
2131.521 0.30294 0.29818 0.32662 0.3531 0.3969 0.3847 0.30168 0.29755 0.3569 0.393
2150.810 0.4303 0.4312 0.4043 0.3627 0.31849 0.3686 0.358 0.3658 0.351 0.2868
2170.100 0.32687 0.3728 0.358 0.3564 0.4102 0.4246 0.4459 0.4201 0.3685 0.33685
2189.390 0.3707 0.4414 0.4165 0.3947 0.352 0.29434 0.32832 0.4013 0.4013 0.3744
2208.680 0.3615 0.3829 0.3795 0.31271 0.32289 0.34448 0.353 0.3305 0.256919 0.2322
2227.970 0.25332 0.3328 0.3724 0.3626 0.3663 0.3436 0.3713 0.3666 0.3588 0.3948
2247.259 0.3994 0.4087 0.4065 0.4255 0.4433 0.4124 0.3954 0.4055 0.3685 0.3644
2266.549 0.3498 0.34159 0.3696 0.3545 0.3598 0.3647 0.384 0.3794 0.3962 0.4453
2285.839 0.3856 0.3708 0.4182 0.4306 0.3761 0.30578 0.29859 0.34461 0.4012 0.451
2305.129 0.4804 0.4542 0.4351 0.4226 0.4427 0.4072 0.3733 0.4132 0.4502 0.4571
2324.418 0.3808 0.3517 0.4569 0.4365 0.3533 0.3922 0.374 0.3575 0.3942 0.4636
2343.708 0.5371 0.5458 0.4995 0.4382 0.4184 0.4726 0.5141 0.4513 0.417 0.4431
2362.998 0.3847 0.3694 0.4016 0.4011 0.4266 0.4147 0.4428 0.5162 0.5114 0.4826
2382.288 0.4302 0.3993 0.3912 0.3559 0.34435 0.34342 0.3687 0.3501 0.33987 0.3748
2401.578 0.3977 0.3597 0.28261 0.30105 0.3863 0.4308 0.4114 0.3635 0.3642 0.4224
2420.867 0.4212 0.38 0.3798 0.438 0.4299 0.4188 0.3747 0.30947 0.30384 0.33457
2440.157 0.3577 0.32956 0.34281 0.34176 0.3646 0.33541 0.30447 0.28918 0.2172 0.227
2459.447 0.2875 0.4079 0.4439 0.4342 0.4152 0.3675 0.3967 0.3922 0.3926 0.4134
2478.737 0.3919 0.3755 0.4 0.30859 0.2153 0.29645 0.3778 0.4194 0.4638 0.3996
2498.026 0.3953 0.4134 0.4291 0.3814 0.30297 0.3659 0.3738 0.3671 0.3819 0.4214
2517.316 0.4401 0.4414 0.471 0.5057 0.4749 0.4288 0.4585 0.444 0.3938 0.3764
2536.606 0.4085 0.4639 0.4151 0.3892 0.4663 0.4743 0.4193 0.3718 0.3824 0.463
2555.896 0.467 0.4666 0.4428 0.31231 0.2987 0.26982 0.256532 0.3584 0.4205 0.4491
2575.186 0.427 0.381 0.34528 0.2986 0.30842 0.31431 0.30951 0.4207 0.4446 0.365
2594.475 0.32263 0.3829 0.4079 0.4146 0.4293 0.4305 0.3931 0.4107 0.4217 0.3782
2613.765 0.3586 0.2766 0.3495 0.364 0.29818 0.34476 0.385 0.374 0.3561 0.29902
2633.055 0.27128 0.32205 0.4304 0.4747 0.4412 0.4298 0.3836 0.32379 0.34287 0.34383
2652.345 0.32089 0.3839 0.4268 0.4097 0.3519 0.4102 0.4736 0.4238 0.4259 0.378
2671.634 0.3622 0.33355 0.28201 0.30718 0.363 0.4148 0.4044 0.4153 0.4438 0.4019
2690.924 0.3555 0.3699 0.3471 0.3692 0.419 0.3756 0.32741 0.30995 0.33466 0.31416
2710.214 0.27182 0.34489 0.34004 0.3541 0.3711 0.30815 0.3873 0.3896 0.34194 0.33922
2729.504 0.30816 0.31741 0.354 0.435 0.413 0.4176 0.4544 0.3729 0.3824 0.4232
2748.794 0.3841 0.4112 0.3893 0.33493 0.3946 0.3844 0.30798 0.26314 0.3702 0.4602
2768.083 0.3942 0.344 0.33502 0.3545 0.3693 0.4299 0.4766 0.3888 0.24454 0.30413
2787.373 0.4115 0.3285 0.349 0.3991 0.30748 0.32769 0.4493 0.5008 0.5652 0.4905
2806.663 0.4432 0.5242 0.5316 0.4519 0.3598 0.33402 0.3829 0.5125 0.4291 0.32688
2825.953 0.3843 0.4096 0.4001 0.3577 0.3614 0.4447 0.5279 0.5674 0.5552 0.5738
2845.242 0.5824 0.6485 0.6612 0.6477 0.7095 0.7744 0.713 0.5584 0.5296 0.5396
2864.532 0.5733 0.5339 0.5581 0.5675 0.5529 0.544 0.5289 0.5523 0.5086 0.54
2883.822 0.528 0.5137 0.5668 0.5555 0.6651 0.677 0.5816 0.4925 0.4507 0.4625
2903.112 0.4487 0.5523 0.605 0.5507 0.5381 0.5077 0.4979 0.5485 0.5562 0.6293
2922.401 0.6605 0.5845 0.5512 0.5926 0.5692 0.553 0.6472 0.7762 0.8171 0.8672
2941.691 0.9084 0.9447 1.0549 1.183 1.497 1.957 2.357 2.577 2.737 2.997
2960.981 3.167 3.147 3.227 3.247 3.057 2.907 2.947 3.047 2.987 2.947
2980.271 3.077 2.997 2.707 2.427 2.187 1.947 1.687 1.477 1.297 1.247
2999.561 1.337 1.457 1.617 1.727 1.797 1.827 1.907 2.137 2.517 2.857
3018.850 3.087 3.377 3.797 4.237 4.657 5.097 5.617 5.967 6.307 6.717
3038.140 6.927 6.977 6.837 6.487 6.047 5.677 5.237 4.917 4.657 4.427
3057.430 4.447 4.647 5.007 5.587 6.227 6.797 7.347 7.867 8.217 8.397
3076.720 8.417 8.177 7.637 7.067 6.447 5.807 5.447 5.147 4.887 4.547
3096.009 4.237 4.087 3.787 3.417 3.137 2.877 2.587 2.327 2.167 2.037
3115.299 1.897 1.787 1.617 1.367 1.219 1.1276 0.8873 0.6692 0.5326 0.4209
3134.589 0.3907 0.4798 0.5289 0.5727 0.5416 0.3719 0.3747 0.3708 0.4031 0.393
3153.879 0.34201 0.4692 0.6218 0.5189 0.4206 0.4007 0.253647 0.29844 0.4659 0.5006
3173.169 0.4683 0.4115 0.3948 0.4143 0.3588 0.3138 0.27346 0.31736 0.29932 0.3691
3192.458 0.5004 0.4288 0.3708 0.2786 0.1613 0.062 0.039 0.1763 0.2236 0.2185
3211.748 0.248497 0.3813 0.3912 0.24401 0.2866 0.29683 0.369 0.4989 0.4506 0.3926
3231.038 0.3507 0.2128 0.23 0.32237 0.2866 0.3496 0.4276 0.25898 0.1492 0.30687
3250.328 0.4299 0.4015 0.26015 0.29285 0.4028 0.356 0.2277 0.1677 0.255287 0.3676
3269.617 0.3803 0.3813 0.4098 0.29512 0.2059 0.28151 0.3747 0.30325 0.253918 0.2106
3288.907 0.251134 0.4334 0.3519 0.1877 0.254515 0.32641 0.24949 0.1989 0.2116 0.2355
3308.197 0.32582 0.3707 0.2143 0.2138 0.2311 0.1663 0.25863 0.2293 0.132 0.1608
3327.487 0.26353 0.33462 0.3818 0.24195 0.1678 0.1707 0.113 0.2043 0.1998 0.2161
3346.777 0.248192 0.28005 0.26052 0.31505 0.4743 0.31284 0.26054 0.3951 0.4504 0.4641
3366.066 0.32041 0.26735 0.30234 0.30321 0.32705 0.32315 0.2728 0.28514 0.366 0.3893
3385.356 0.3856 0.30119 0.1693 0.251587 0.3753 0.3961 0.3944 0.26033 0.2098 0.26372
3404.646 0.2354 0.252263 0.2617 0.1618 0.099 0.064 0.079 0.06 0 0.2123
3423.936 0.26402 0.2337 0.3966 0.3917 0.33239 0.26434 0.27474 0.32502 0.25888 0.1953
3443.225 0.1582 0.1728 0.33537 0.32454 0.23855 0.1716 0.1717 0.28705 0.248527 0.4654
3462.515 0.4414 0.144 0.2019 0.25847 0.3585 0.33912 0.251299 0.28133 0.23876 0.255837
3481.805 0.398 0.4504 0.4082 0.5452 0.5068 0.3625 0.451 0.4033 0.3643 0.30168
3501.095 0.2034 0.2267 0.093 0.123 0.078 0.055 0.2359 0.2421 0.31505 0.28556
3520.385 0.255937 0.33609 0.30617 0.29901 0.2023 0.27294 0.3696 0.26349 0.4169 0.4453
3539.674 0.3496 0.24232 0.139 0.30005 0.4019 0.3653 0.4152 0.4255 0.3928 0.4317
3558.964 0.28297 0.1586 0.25978 0.29717 0.2314 0.1863 0.117 0.146 0.30805 0.4541
3578.254 0.4143 0.29736 0.31323 0.1943 0.007 0.076 0.251895 0.1619 0.14 0.223
3597.544 0.2215 0.3656 0.4245 0.30971 0.2721 0.27038 0.26892 0.3797 0.5023 0.4471
3616.833 0.3572 0.3668 0.31692 0.27799 0.1809 0.218 0.4358 0.4577 0.3598 0.413
3636.123 0.3871 0.27966 0.34326 0.31206 0.2231 0.29697 0.29784 0.249429 0.3521 0.34409
3655.413 0.27827 0.3475 0.3608 0.248863 0.2332 0.27969 0.27338 0.4497 0.4849 0.26554
3674.703 0.27956 0.34556 0.371 0.4271 0.33882 0.1959 0.104 0.074 0.1723 0.212
3693.993 0.2349 0.24043 0.2724 0.3619 0.33427 0.33527 0.3548 0.3819 0.32612 0.3325
3713.282 0.3545 0.27175 0.3997 0.3687 0.29535 0.3948 0.5394 0.5279 0.3998 0.33421
3732.572 0.2182 0.31338 0.4065 0.4261 0.428 0.28874 0.2247 0.3953 0.4598 0.4149
3751.862 0.5041 0.5386 0.4499 0.33636 0.27403 0.32019 0.3998 0.3738 0.4887 0.4987
3771.152 0.3556 0.3528 0.3875 0.24404 0.086 0.144 0.23905 0.4051 0.3879 0.3537
3790.441 0.4399 0.3658 0.30065 0.1522 0.068 0.124 0.163 0.2183 0.29879 0.33363
3809.731 0.26449 0.256135 0.27762 0.32094 0.29201 0.32344 0.33642 0.3893 0.421 0.3683
3829.021 0.3579 0.30459 0.3802 0.3481 0.2879 0.4616 0.5199 0.4222 0.32706 0.4375
3848.311 0.5017 0.3804 0.4197 0.4198 0.3797 0.31542 0.26662 0.32815 0.31564 0.081
3867.601 0.136 0.29364 0.2024 0.2096 0.27816 0.3719 0.3944 0.31812 0.3959 0.5141
3886.890 0.26128 0.1985 0.349 0.3475 0.29596 0.1896 0.1797 0.2149 0.2094 0.254284
3906.180 0.32668 0.4326 0.34683 0.23753 0.33036 0.3925 0.4231 0.3953 0.4057 0.31129
3925.470 0.3238 0.499 0.3888 0.28442 0.32872 0.30866 0.429 0.5131 0.2014 0.112
3944.760 0.256377 0.28138 0.25516 0.26064 0.3479 0.4079 0.4587 0.26507 0.186 0.27533
3964.049 0.26285 0.33763 0.3714 0.3907 0.435 0.3922 0.4957 0.4252 0.2091 0.27989
3983.339 0.28458 0.119 0.1819 0.31203 0.28775 0.29408 0.34359 0.3795 0.33227 0.1881
##END=
