##TITLE=1-Methyl-3-propylbenzene
##JCAMP-DX=4.24
##DATA TYPE=INFRARED SPECTRUM
##ORIGIN=NIST Mass Spectrometry Data Center
##OWNER=NIST Standard Reference Data Program
Collection (C) 2018 copyright by the U.S. Secretary of Commerce
on behalf of the United States of America. All rights reserved.
##CAS REGISTRY NO=1074-43-7
##MOLFORM=C 10 H 14
##$NIST SOURCE=MSDC-IR
##SPECTROMETER/DATA SYSTEM=HP-GC/MS/IRD
##STATE=gas
##XUNITS=1/CM
##YUNITS=ABSORBANCE
##XFACTOR=1.0
##YFACTOR=0.000003000
##DELTAX=4.0
##FIRSTX=550.0
##LASTX=3846.0
##FIRSTY=0.000288
##MAXX=3846
##MINX=550
##MAXY=0.03
##MINY=0
##NPOINTS=825
##XYDATA=(X++(Y..Y))
550.0 96 49 42 63 29 17 25 4 11 49
590.0 49 64 78 73 97 116 124 123 114 137
630.0 115 94 151 167 168 175 184 202 216 257
670.0 351 477 644 936 1292 1691 2122 2201 1922 1597
710.0 1259 967 788 687 667 698 737 803 901 1061
750.0 1310 1661 2111 2670 3111 3148 3010 2788 2339 1876
790.0 1533 1279 1058 872 689 499 364 295 202 163
830.0 204 212 215 231 236 258 309 364 428 500
870.0 567 602 596 547 497 462 449 431 390 356
910.0 334 312 299 268 221 201 190 186 177 157
950.0 157 164 175 184 179 183 199 206 212 208
990.0 204 196 191 201 188 171 167 171 187 219
1030.0 262 284 299 342 364 387 420 420 420 440
1070.0 460 463 468 489 547 610 650 661 619 550
1110.0 453 345 268 216 178 168 159 161 147 128
1150.0 138 137 146 160 172 174 164 137 112 108
1190.0 108 102 100 102 109 126 136 143 143 153
1230.0 174 188 208 226 233 223 225 232 223 232
1270.0 237 246 278 290 288 285 273 259 247 243
1310.0 249 265 279 304 367 457 542 581 589 568
1350.0 506 427 395 402 442 519 626 748 836 864
1390.0 818 723 626 563 548 560 577 606 683 789
1430.0 900 1035 1188 1332 1450 1552 1606 1656 1709 1717
1470.0 1727 1737 1796 1873 1892 1850 1742 1538 1300 1072
1510.0 914 825 755 713 690 670 631 576 534 521
1550.0 506 477 463 509 583 665 770 901 1069 1260
1590.0 1498 1804 2137 2444 2590 2486 2150 1650 1123 712
1630.0 467 327 255 218 183 160 153 172 174 170
1670.0 167 156 146 113 102 116 100 74 73 89
1710.0 83 68 77 104 112 114 111 119 136 138
1750.0 140 152 158 170 180 178 191 200 185 163
1790.0 141 117 101 91 88 86 88 92 94 101
1830.0 126 151 171 193 204 202 199 193 176 158
1870.0 136 115 86 69 70 65 62 69 83 101
1910.0 121 145 177 204 216 210 195 167 128 89
1950.0 68 60 49 43 41 34 32 31 31 30
1990.0 24 20 19 23 24 21 17 14 24 29
2030.0 28 33 37 32 27 24 18 21 24 21
2070.0 20 21 20 18 23 26 21 16 14 17
2110.0 23 17 9 11 16 18 19 20 11 10
2150.0 12 12 15 24 25 16 8 3 8 14
2190.0 11 12 17 18 13 11 16 23 22 17
2230.0 7 3 2 13 23 19 15 20 26 25
2270.0 20 18 16 16 21 21 24 32 33 28
2310.0 30 28 28 32 23 22 34 36 40 50
2350.0 51 37 29 29 26 28 29 37 42 43
2390.0 38 37 48 54 49 50 54 54 52 46
2430.0 39 35 43 49 43 43 36 36 51 52
2470.0 46 48 57 57 52 46 43 43 41 44
2510.0 53 55 53 59 56 51 60 63 60 63
2550.0 59 57 58 59 65 66 64 68 72 77
2590.0 72 66 72 83 87 81 88 97 90 86
2630.0 82 81 77 78 85 85 88 89 105 122
2670.0 131 141 138 127 115 117 125 130 132 130
2710.0 137 156 166 181 205 233 273 295 303 308
2750.0 299 277 251 232 221 232 252 264 283 304
2790.0 320 345 376 401 426 459 507 560 630 709
2830.0 799 912 1062 1265 1535 1863 2239 2676 3152 3672
2870.0 4202 4702 5044 5091 4901 4582 4229 4013 4044 4308
2910.0 4773 5448 6331 7371 8432 9361 9951 10000 9526 8728
2950.0 7880 7271 7075 7272 7631 7661 7158 6298 5227 4159
2990.0 3404 3039 2912 2952 3121 3340 3597 3869 4132 4337
3030.0 4402 4300 4064 3772 3503 3334 3236 3115 2936 2686
3070.0 2319 1901 1537 1287 1120 1004 942 887 819 750
3110.0 679 594 499 411 338 285 249 222 199 185
3150.0 174 171 175 167 158 151 141 141 141 137
3190.0 139 140 126 125 127 109 103 102 97 107
3230.0 105 92 77 70 70 70 69 66 72 74
3270.0 67 57 54 69 78 81 71 54 45 47
3310.0 57 54 48 46 41 49 43 43 48 41
3350.0 46 45 42 36 35 44 49 49 51 56
3390.0 46 40 29 21 28 26 35 34 29 23
3430.0 28 31 25 12 18 36 39 31 40 43
3470.0 20 21 25 27 37 36 20 17 21 25
3510.0 16 11 22 19 24 26 29 44 33 23
3550.0 37 46 44 49 26 19 29 28 34 33
3590.0 22 22 25 21 16 19 24 21 10 8
3630.0 3 18 23 12 9 11 25 23 33 36
3670.0 15 0 10 22 11 17 35 35 34 29
3710.0 20 39 50 39 42 42 34 37 48 40
3750.0 25 41 60 64 58 49 56 67 74 67
3790.0 62 59 49 50 53 50 36 24 42 62
3830.0 59 34 28 35 36
##END=
