##TITLE=1-tert-Butyl-3-methylbenzene
##JCAMP-DX=4.24
##DATA TYPE=INFRARED SPECTRUM
##ORIGIN=NIST Mass Spectrometry Data Center
##OWNER=NIST Standard Reference Data Program
Collection (C) 2018 copyright by the U.S. Secretary of Commerce
on behalf of the United States of America. All rights reserved.
##CAS REGISTRY NO=1075-38-3
##MOLFORM=C 11 H 16
##$NIST SOURCE=MSDC-IR
##SPECTROMETER/DATA SYSTEM=HP-GC/MS/IRD
##STATE=gas
##XUNITS=1/CM
##YUNITS=ABSORBANCE
##XFACTOR=1.0
##YFACTOR=0.000002600
##DELTAX=4.0
##FIRSTX=550.0
##LASTX=3846.0
##FIRSTY=0.000257
##MAXX=3846
##MINX=550
##MAXY=0.026
##MINY=0
##NPOINTS=825
##XYDATA=(X++(Y..Y))
550.0 99 72 55 35 0 36 81 72 72 102
590.0 73 52 76 61 30 33 55 61 53 53
630.0 44 35 47 68 66 71 120 162 150 143
670.0 168 196 261 394 611 904 1224 1604 1926 1812
710.0 1407 1063 765 505 295 190 138 101 113 136
750.0 169 234 335 514 776 1079 1418 1803 1903 1552
790.0 1192 894 593 377 233 158 143 132 125 111
830.0 95 94 82 99 123 126 130 154 202 254
870.0 325 424 537 633 690 707 666 566 421 307
910.0 237 196 178 159 156 164 164 145 130 117
950.0 115 124 129 117 116 130 142 152 152 154
990.0 160 157 158 158 153 153 137 135 147 146
1030.0 160 174 174 187 194 198 203 184 180 195
1070.0 205 226 282 386 494 553 567 532 442 335
1110.0 238 176 136 123 115 92 85 91 105 110
1150.0 112 115 126 140 151 165 180 213 269 355
1190.0 497 676 845 922 849 672 503 397 332 288
1230.0 251 224 204 195 218 282 370 512 726 955
1270.0 1136 1192 1082 845 581 381 265 199 171 161
1310.0 153 148 151 157 168 180 190 223 289 384
1350.0 517 702 913 1133 1297 1341 1261 1113 942 835
1390.0 817 813 790 756 679 594 567 577 607 645
1430.0 687 723 750 778 815 889 984 1085 1180 1278
1470.0 1384 1519 1668 1801 1872 1812 1620 1340 1039 787
1510.0 623 530 473 448 441 422 385 367 354 346
1550.0 351 355 373 411 451 507 577 651 743 854
1590.0 1015 1246 1507 1706 1733 1568 1250 854 529 337
1630.0 228 162 131 120 107 106 108 109 124 143
1670.0 145 142 141 127 107 97 89 75 59 55
1710.0 59 58 61 66 71 76 89 108 122 132
1750.0 135 138 135 141 144 136 134 131 120 109
1790.0 102 94 82 72 64 65 72 68 66 77
1830.0 94 109 117 121 132 140 143 141 129 113
1870.0 98 78 64 61 58 55 57 61 61 63
1910.0 71 85 111 133 141 140 131 116 90 68
1950.0 61 56 43 34 34 39 38 34 33 36
1990.0 29 23 25 20 23 25 25 19 19 23
2030.0 21 21 21 26 24 25 25 18 16 20
2070.0 19 25 27 19 17 16 18 16 13 13
2110.0 9 7 9 15 17 13 11 9 6 11
2150.0 15 17 24 23 25 30 27 22 23 24
2190.0 22 21 21 17 11 7 1 7 8 13
2230.0 17 12 9 15 23 17 12 18 26 35
2270.0 32 28 24 21 25 26 22 23 27 25
2310.0 21 14 18 21 7 4 13 14 21 22
2350.0 24 37 37 32 37 38 41 47 44 41
2390.0 43 46 45 43 46 48 44 41 43 44
2430.0 41 38 31 26 30 28 31 32 30 32
2470.0 36 35 34 31 39 45 37 34 40 40
2510.0 32 32 38 41 39 31 29 37 37 34
2550.0 38 46 44 45 56 59 64 68 64 56
2590.0 54 51 51 47 46 47 47 41 39 47
2630.0 52 50 49 60 66 66 67 70 75 68
2670.0 70 73 64 63 64 63 68 76 83 91
2710.0 99 109 125 139 148 158 172 171 171 178
2750.0 165 153 146 141 136 132 132 136 140 149
2790.0 164 166 183 208 229 243 252 264 289 321
2830.0 355 399 454 531 629 771 972 1239 1584 1975
2870.0 2340 2619 2771 2780 2717 2664 2664 2757 2955 3207
2910.0 3458 3680 3858 3988 4084 4135 4142 4164 4289 4655
2950.0 5388 6522 7935 9248 10000 9869 8834 7151 5317 3824
2990.0 2790 2111 1672 1405 1271 1233 1294 1419 1573 1739
3030.0 1884 2017 2113 2167 2177 2137 2023 1860 1702 1559
3070.0 1433 1319 1203 1089 970 847 749 650 572 510
3110.0 447 387 319 259 223 194 170 160 148 127
3150.0 125 136 143 152 144 132 131 141 139 135
3190.0 135 130 132 119 107 112 107 95 93 97
3230.0 101 101 98 92 84 78 79 75 72 82
3270.0 86 78 78 66 56 70 66 53 47 44
3310.0 38 37 44 43 34 28 25 26 38 41
3350.0 39 51 55 41 34 37 43 45 50 42
3390.0 23 33 41 17 9 21 29 32 28 28
3430.0 18 20 36 41 31 32 29 19 6 2
3470.0 11 14 11 5 13 15 27 26 12 23
3510.0 17 26 27 8 14 32 30 13 18 27
3550.0 21 20 27 35 35 28 23 16 15 27
3590.0 27 25 17 17 28 23 15 16 15 10
3630.0 9 10 17 28 26 13 9 18 21 20
3670.0 18 14 17 15 15 24 32 30 21 17
3710.0 23 26 32 35 45 44 26 11 8 18
3750.0 19 20 30 30 24 26 29 30 30 33
3790.0 35 29 18 24 35 29 27 24 13 20
3830.0 33 32 31 44 43
##END=
