##TITLE=1,4-Cyclohexanedicarboxylic acid
##JCAMP-DX=4.24
##DATA TYPE=INFRARED SPECTRUM
##ORIGIN=EPA-IR VAPOR PHASE LIBRARY
##OWNER=SRD/NIST
Collection (C) 2018 copyright by the U.S. Secretary of Commerce
on behalf of the United States of America. All rights reserved.
##CAS REGISTRY NO=1076-97-7
##MOLFORM=C 8 H 12 O 4
##$NIST SOURCE=MSDC-IR
##STATE=gas
##XUNITS=1/CM
##YUNITS=ABSORBANCE
##XFACTOR=1.
##YFACTOR=0.001
##DELTAX=1.92898
##FIRSTX=549.8
##LASTX=4000.7
##FIRSTY=12.5259
##MAXX=4000.7
##MINX=549.759
##MAXY=0.0899359
##MINY=0
##NPOINTS=1790
##XYDATA=(X++(Y..Y))
549.759 12.5259 12.5959 12.9759 12.9959 12.9059 12.9959 12.8159 12.4559 12.5459 12.8659
569.049 13.0159 12.9859 12.7459 12.5859 12.9059 12.9759 12.7959 12.2759 11.7359 11.4459
588.339 11.0859 10.6459 10.3959 10.1759 9.7559 9.3559 8.9959 8.8759 8.4759 7.9859
607.628 7.8259 7.6259 7.3259 7.1359 6.9659 6.6159 6.2259 6.1959 6.1859 6.1859
626.918 6.4959 6.7059 6.9759 7.2459 7.3259 7.3959 7.8459 8.4259 8.8259 9.2759
646.208 9.7659 10.1759 10.4059 10.3759 10.3059 10.1959 9.7659 9.3159 8.6559 7.7459
665.498 7.1559 6.8559 6.4059 5.9059 5.4959 5.1759 4.9159 4.7459 4.4159 4.1459
684.787 4.2459 4.3459 4.2459 4.2959 4.4359 4.4159 4.5559 4.7659 4.8259 4.9859
704.077 5.3759 5.6859 5.9259 6.2659 6.6759 7.0959 7.5659 7.9859 8.0959 7.9359
723.367 7.8559 7.7959 7.5059 6.9859 6.3759 5.8059 5.4459 5.0559 4.7459 4.5659
742.657 4.2759 4.0859 4.0159 3.8959 3.8359 3.9259 3.7959 3.4759 3.2759 3.2059
761.947 2.9559 2.7759 2.6959 2.4659 2.4059 2.3559 2.2259 2.0259 1.8459 1.7759
781.236 1.6259 1.6059 1.7159 1.7359 1.6559 1.4959 1.3159 1.2159 1.3259 1.3359
800.526 1.2759 1.3059 1.2159 1.0559 0.8733 0.8143 0.867 0.8943 0.8666 0.8704
819.816 0.8645 0.8828 0.8283 0.9046 1.0116 1.0415 1.3059 1.5159 1.5959 1.8259
839.106 2.0259 1.9259 1.7959 1.7859 1.9259 1.8959 1.6259 1.5559 1.4259 1.0759
858.395 0.9885 1.1059 1.1359 1.1359 1.0859 1.0759 1.1859 1.2359 1.1759 1.2359
877.685 1.2559 1.2359 1.2659 1.3159 1.5459 1.6059 1.5859 1.6259 1.7059 1.7559
896.975 1.9259 2.1059 2.1859 2.3459 2.6559 3.0159 3.0759 3.0359 3.0059 2.9759
916.265 2.9159 2.6459 2.4559 2.4959 2.3859 2.2259 2.1059 1.9559 1.8859 1.9959
935.555 2.0959 2.0759 2.0759 2.0059 1.8559 1.7259 1.5659 1.3559 1.2559 1.2059
954.844 1.0379 0.9847 1.1259 1.0959 1.0496 1.1659 1.1559 1.0859 1.0859 1.2959
974.134 1.4959 1.3759 1.3959 1.5159 1.7359 1.9859 2.1359 2.3159 2.3859 2.6159
993.424 2.9559 3.1159 3.2059 3.7059 4.2659 4.8559 5.5959 6.2659 7.1359 7.9759
1012.714 8.7459 9.5059 10.0959 10.3559 10.3659 10.2759 10.1059 9.8159 9.2759 8.4759
1032.003 7.9259 7.3359 6.7159 6.4759 6.2859 5.7959 5.3259 5.2459 5.1659 5.2259
1051.293 5.1959 5.4959 6.1759 6.8259 7.3959 7.8159 8.5659 9.3059 10.1759 11.5659
1070.583 12.6059 13.3559 14.6059 15.7459 16.7759 17.7959 18.6759 19.7159 20.9059 22.2459
1089.873 23.7359 26.1559 28.8859 31.7159 35.3059 38.9959 42.8959 47.0659 50.2959 52.5759
1109.163 54.4259 55.9259 55.9659 55.1059 54.4959 52.8659 50.4359 48.7559 47.5259 45.7459
1128.452 43.8959 41.9259 39.9959 38.2359 36.0959 34.1559 32.4559 31.0959 29.8859 28.9059
1147.742 28.3659 27.5959 27.3859 27.4659 27.0659 26.5659 26.1059 25.4159 24.4759 23.4059
1167.032 22.0259 20.4059 18.8459 17.1459 15.5759 14.2059 12.7359 11.6059 10.6559 9.6159
1186.322 8.9859 8.4259 7.9959 7.6659 7.0959 6.7559 6.4259 5.8359 5.4559 5.3359
1205.611 5.1659 5.1359 5.3559 5.6559 5.5959 5.3359 5.2059 5.0059 4.8759 5.1659
1224.901 5.1959 4.9759 4.6859 4.4159 4.6459 4.7859 4.8559 4.9259 4.6659 4.2659
1244.191 4.0959 4.1459 4.2459 4.2459 4.2559 4.4959 4.6159 4.5359 4.5259 4.7759
1263.481 4.8459 4.8659 5.1059 5.1659 5.2559 5.2459 5.2859 5.3559 5.2959 5.4259
1282.771 5.5759 5.5359 5.6559 5.9759 6.2059 6.3059 6.4359 6.6359 6.7159 6.6059
1302.060 6.5259 6.5159 6.5259 6.5159 6.4459 6.4359 6.4659 6.4859 6.5659 6.7259
1321.350 6.8859 7.0259 7.1759 7.2459 7.3359 7.4859 7.6059 7.6959 7.7359 7.7459
1340.640 7.7159 7.6359 7.5559 7.4559 7.2959 7.0359 6.7659 6.5059 6.2559 6.0459
1359.930 5.8259 5.6659 5.5859 5.5059 5.4859 5.5759 5.7159 5.8859 6.0759 6.2959
1379.219 6.5259 6.6859 6.8359 6.8259 6.7059 6.6059 6.3459 6.0459 5.7659 5.4159
1398.509 5.0159 4.6459 4.3159 4.0859 3.8959 3.7359 3.6059 3.4659 3.3459 3.1859
1417.799 3.0759 2.9159 2.7659 2.6959 2.6259 2.5359 2.5059 2.6059 2.7659 2.9359
1437.089 3.1859 3.4959 3.8459 4.2359 4.7259 5.2759 5.7559 6.2059 6.6359 6.9159
1456.378 7.0259 7.0459 6.9259 6.6759 6.1859 5.5859 5.0059 4.3759 3.7659 3.2459
1475.668 2.7759 2.2659 1.8659 1.5759 1.3259 1.1959 1.1059 1.0241 0.9684 0.9002
1494.958 0.8185 0.78 0.7749 0.7328 0.6454 0.6344 0.6843 0.6891 0.6353 0.6
1514.248 0.6423 0.5934 0.5416 0.575 0.5782 0.5378 0.5576 0.5312 0.4948 0.4879
1533.538 0.4816 0.5327 0.5516 0.528 0.5062 0.5039 0.5025 0.5083 0.4841 0.4909
1552.827 0.5153 0.5385 0.569 0.6072 0.6288 0.6261 0.5933 0.5354 0.4776 0.4812
1572.117 0.4981 0.4925 0.5574 0.5181 0.4647 0.4699 0.4655 0.4521 0.4349 0.47
1591.407 0.4877 0.5287 0.5985 0.5509 0.5221 0.5514 0.4886 0.466 0.4657 0.465
1610.697 0.4473 0.3818 0.3922 0.4408 0.4686 0.432 0.393 0.3608 0.3945 0.4249
1629.986 0.3724 0.4159 0.4823 0.435 0.4157 0.4894 0.5028 0.4696 0.5306 0.6196
1649.276 0.6105 0.548 0.553 0.5617 0.5879 0.6502 0.7236 0.7018 0.6597 0.712
1668.566 0.7702 0.8242 0.7911 0.7886 0.8602 0.9174 1.003 1.0461 1.1259 1.1859
1687.856 1.2759 1.3759 1.4259 1.5759 1.7159 1.8759 2.0159 2.2459 2.4959 2.7159
1707.146 2.9459 3.2159 3.5559 4.0059 4.4559 4.9559 5.5959 6.3659 7.2559 8.2559
1726.435 9.4359 10.7659 12.2459 13.7759 15.4259 17.1159 18.7459 20.5059 22.3359 24.3559
1745.725 26.6359 29.2159 32.2459 36.0759 40.7259 46.1859 52.6959 59.8359 67.3259 74.6859
1765.015 81.1159 86.0059 89.0659 89.9359 88.2259 84.1259 78.0859 70.9159 63.4159 56.2259
1784.305 49.6959 43.9259 39.1559 35.1759 31.7559 28.7459 26.0459 23.5059 21.0559 18.6659
1803.594 16.4259 14.3359 12.4059 10.7659 9.3259 8.0659 7.0659 6.1859 5.4759 4.8959
1822.884 4.3559 3.9059 3.5759 3.3059 3.0159 2.7059 2.4259 2.2159 2.0359 1.8359
1842.174 1.6859 1.5559 1.4459 1.3559 1.2259 1.1559 1.1159 1.0659 1.018 0.9588
1861.464 0.9645 0.9096 0.8783 0.8412 0.7828 0.8225 0.7523 0.6777 0.7022 0.7494
1880.754 0.7725 0.7303 0.6904 0.6817 0.614 0.5615 0.5797 0.5532 0.606 0.6698
1900.043 0.6403 0.5931 0.6034 0.6592 0.6232 0.585 0.5445 0.5546 0.5838 0.5752
1919.333 0.5604 0.5369 0.5168 0.5011 0.5199 0.5217 0.5129 0.5046 0.5008 0.5303
1938.623 0.5537 0.5111 0.4565 0.4963 0.5239 0.4651 0.4424 0.4398 0.4246 0.4555
1957.913 0.4467 0.3844 0.422 0.4444 0.464 0.4744 0.4666 0.4575 0.4347 0.4378
1977.202 0.426 0.4019 0.4071 0.4528 0.4453 0.484 0.5322 0.4786 0.4523 0.4648
1996.492 0.4388 0.3946 0.3986 0.4321 0.4509 0.4447 0.4189 0.4264 0.4228 0.4123
2015.782 0.4187 0.4178 0.4427 0.4508 0.455 0.4511 0.42 0.386 0.3878 0.4249
2035.072 0.391 0.3641 0.3584 0.3656 0.3882 0.3721 0.3865 0.3899 0.3444 0.3624
2054.362 0.3368 0.2886 0.2996 0.2723 0.2826 0.3216 0.3362 0.2989 0.2443 0.2554
2073.651 0.2665 0.2371 0.2706 0.3415 0.2894 0.2206 0.241 0.2426 0.2538 0.2815
2092.941 0.2701 0.2636 0.2505 0.2456 0.2744 0.298 0.2849 0.2562 0.2702 0.2717
2112.231 0.3176 0.295 0.223 0.2569 0.3066 0.3103 0.2789 0.2822 0.3061 0.3133
2131.521 0.2788 0.2971 0.3296 0.3094 0.3266 0.3638 0.369 0.3266 0.3332 0.3592
2150.810 0.3282 0.3088 0.3131 0.3223 0.3357 0.3356 0.3407 0.345 0.3317 0.3578
2170.100 0.3951 0.4171 0.4628 0.4985 0.4683 0.3842 0.3978 0.4931 0.4974 0.4703
2189.390 0.4424 0.4572 0.5085 0.5189 0.5067 0.4568 0.468 0.4909 0.5098 0.5294
2208.680 0.5222 0.5469 0.4964 0.4854 0.506 0.4748 0.4726 0.52 0.5395 0.5329
2227.970 0.5235 0.4279 0.4564 0.5618 0.5229 0.4664 0.4836 0.4921 0.457 0.4126
2247.259 0.4044 0.4236 0.433 0.4052 0.3947 0.4411 0.3955 0.3279 0.3811 0.4304
2266.549 0.4086 0.3667 0.3619 0.3794 0.3929 0.4 0.4248 0.459 0.4224 0.3788
2285.839 0.3894 0.35 0.3476 0.3972 0.3887 0.3428 0.3189 0.38 0.39 0.3348
2305.129 0.3184 0.3322 0.3141 0.3434 0.4168 0.382 0.322 0.2878 0.3227 0.3719
2324.418 0.3441 0.3701 0.3895 0.382 0.3467 0.2904 0.2657 0.3211 0.3888 0.464
2343.708 0.4248 0.3572 0.3862 0.3557 0.3233 0.2954 0.3434 0.385 0.3645 0.3258
2362.998 0.3574 0.4444 0.4941 0.4538 0.3543 0.3205 0.35 0.3715 0.3767 0.3237
2382.288 0.3178 0.3093 0.2984 0.3462 0.3756 0.3775 0.3406 0.2945 0.2742 0.3337
2401.578 0.3085 0.2633 0.2991 0.2984 0.2976 0.3616 0.3708 0.3354 0.3253 0.3008
2420.867 0.3145 0.2814 0.3003 0.3687 0.3525 0.3065 0.3263 0.3334 0.3414 0.3629
2440.157 0.3619 0.3394 0.3272 0.3227 0.3265 0.3168 0.2648 0.2445 0.2672 0.3505
2459.447 0.3567 0.3503 0.3998 0.3628 0.3052 0.3335 0.2911 0.266 0.3126 0.3714
2478.737 0.3754 0.3235 0.3664 0.4129 0.4542 0.4455 0.3535 0.3464 0.3416 0.3402
2498.026 0.3576 0.3018 0.2571 0.2615 0.2695 0.3032 0.3263 0.254 0.2709 0.3169
2517.316 0.2886 0.2969 0.2948 0.3074 0.2735 0.2215 0.2072 0.2387 0.2635 0.2217
2536.606 0.2463 0.2748 0.2508 0.2215 0.2065 0.244 0.2817 0.2591 0.1751 0.13457
2555.896 0.1598 0.1714 0.2171 0.2351 0.2489 0.2746 0.2236 0.1645 0.1656 0.1688
2575.186 0.14459 0.1723 0.2386 0.3111 0.3063 0.2739 0.3196 0.3702 0.356 0.3274
2594.475 0.2952 0.2612 0.2802 0.312 0.2262 0.2408 0.3283 0.2638 0.2059 0.2283
2613.765 0.3253 0.3178 0.2408 0.2111 0.2374 0.3228 0.3202 0.2821 0.2841 0.3011
2633.055 0.3336 0.3597 0.3462 0.2876 0.2619 0.2425 0.292 0.3193 0.3267 0.3333
2652.345 0.3241 0.3463 0.3122 0.3445 0.39 0.3392 0.3241 0.3849 0.3656 0.3291
2671.634 0.3754 0.413 0.4486 0.4348 0.3812 0.3346 0.334 0.3782 0.3667 0.2924
2690.924 0.2671 0.2748 0.2476 0.2822 0.3043 0.2574 0.3315 0.3525 0.3272 0.3433
2710.214 0.3329 0.3701 0.3433 0.329 0.3759 0.3168 0.202 0.1969 0.2462 0.2688
2729.504 0.2248 0.2958 0.3883 0.3177 0.2954 0.3139 0.3294 0.3389 0.3722 0.3897
2748.794 0.4106 0.3412 0.2329 0.296 0.2694 0.14071 0.1821 0.3098 0.2975 0.3315
2768.083 0.3645 0.3436 0.3933 0.4216 0.4145 0.405 0.4454 0.4347 0.3829 0.4485
2787.373 0.4637 0.4635 0.5102 0.4764 0.5096 0.5642 0.502 0.3932 0.3641 0.4435
2806.663 0.4994 0.4532 0.4449 0.5219 0.5691 0.5504 0.5477 0.6054 0.6033 0.5748
2825.953 0.6599 0.7759 0.8296 0.8474 0.9122 0.9433 1.0176 1.1259 1.1659 1.1959
2845.242 1.3059 1.5359 1.8359 2.1259 2.4359 2.8359 3.3059 3.8359 4.3459 4.9059
2864.532 5.4859 6.0259 6.6059 7.0359 7.2359 7.3959 7.5659 7.5259 7.4359 7.3659
2883.822 7.1559 6.9559 6.7959 6.6859 6.5859 6.5559 6.6259 6.7159 6.9259 7.0759
2903.112 7.1359 7.3759 7.7159 7.9659 8.1759 8.4959 8.8659 9.2559 9.5259 9.7059
2922.401 9.9659 10.1359 10.4159 10.7159 10.8259 11.0559 11.3059 11.5959 12.1959 12.8159
2941.691 13.5459 14.5859 15.7159 16.9559 18.3559 19.8159 21.0859 21.8459 22.2559 22.3059
2960.981 21.8059 20.6959 19.1959 17.5759 15.6959 13.6659 11.6459 9.7659 8.1259 6.7159
2980.271 5.5059 4.4159 3.5159 2.8259 2.3259 1.9159 1.7259 1.5659 1.3559 1.2459
2999.561 1.1459 1.0759 1.0234 0.9444 0.8652 0.7587 0.6554 0.5912 0.5935 0.5868
3018.850 0.5647 0.5239 0.4124 0.3512 0.4018 0.4706 0.5353 0.5349 0.4603 0.4514
3038.140 0.4515 0.4255 0.3362 0.3299 0.3521 0.3352 0.3881 0.3519 0.3245 0.3903
3057.430 0.3635 0.2857 0.3168 0.3519 0.3318 0.4085 0.4275 0.353 0.3324 0.3372
3076.720 0.3221 0.321 0.3355 0.3164 0.2395 0.193 0.2727 0.3598 0.3548 0.3042
3096.009 0.2964 0.3216 0.3079 0.342 0.3671 0.3459 0.2532 0.31 0.3519 0.14475
3115.299 0.15325 0.2608 0.2803 0.2475 0.156 0.1648 0.1901 0.11425 0.1617 0.2215
3134.589 0.1953 0.2315 0.3106 0.2968 0.2275 0.2119 0.2022 0.2126 0.2196 0.15049
3153.879 0.14984 0.167 0.1753 0.1581 0.11892 0.12202 0.12994 0.11528 0.0896 0.10616
3173.169 0.063178 0.0091 0.14467 0.2138 0.063423 0.07603 0.13794 0.1746 0.15381 0.1917
3192.458 0.1635 0.0564347 0.0133 0.0108 0.13967 0.2023 0.12475 0.1145 0.2538 0.2205
3211.748 0.1317 0.12486 0.09968 0.1612 0.2326 0.10506 0.07952 0.13613 0.12173 0.3191
3231.038 0.3052 0.12544 0.09568 0.249 0.3152 0.1695 0.1664 0.1599 0.13156 0.2104
3250.328 0.238 0.1941 0.12914 0.10753 0.13102 0.15192 0.15093 0.14466 0.1961 0.11804
3269.617 0.12222 0.14121 0.1966 0.2821 0.2122 0.1809 0.08633 0.14558 0.233 0.2071
3288.907 0.15387 0.13012 0.1943 0.2936 0.3039 0.1603 0.09522 0.11012 0.09994 0.0891
3308.197 0.157 0.12074 0.1838 0.1942 0.13759 0.1642 0.1761 0.1925 0.14396 0.1747
3327.487 0.2025 0.10309 0.13625 0.1937 0.2151 0.2007 0.10991 0.14214 0.1227 0.13245
3346.777 0.1971 0.1822 0.13473 0.14225 0.1986 0.14522 0.12277 0.059074 0.064138 0.2048
3366.066 0.1872 0.166 0.2099 0.1653 0.061781 0.055196 0.10196 0.12486 0.1754 0.3227
3385.356 0.2862 0.1305 0.13125 0.13258 0.13189 0.1639 0.14886 0.14825 0.1149 0.14622
3404.646 0.1769 0.164 0.13126 0.14057 0.1915 0.2108 0.2414 0.1763 0.1934 0.14566
3423.936 0.0325 0.08343 0.1127 0.1975 0.2788 0.15511 0.2156 0.3302 0.2227 0.196
3443.225 0.2238 0.1745 0.13649 0.2141 0.2906 0.2412 0.2475 0.3523 0.3171 0.2252
3462.515 0.2486 0.4156 0.3846 0.2167 0.3007 0.3748 0.3089 0.3316 0.4298 0.4482
3481.805 0.4433 0.3457 0.3225 0.482 0.4796 0.3863 0.5054 0.6708 0.7566 0.7238
3501.095 0.6263 0.7972 0.885 0.8187 0.9031 1.0959 1.2459 1.2659 1.2659 1.2259
3520.385 1.2059 1.2459 1.2759 1.2059 1.1859 1.3059 1.3859 1.3159 1.2859 1.3959
3539.674 1.4859 1.5159 1.6659 1.8259 2.1359 2.6059 3.1059 3.8159 4.9559 6.7559
3558.964 9.1259 12.3559 16.9259 22.6159 28.7059 34.0659 37.1859 38.2459 38.0459 36.3359
3578.254 32.8259 27.4959 21.0859 15.2359 10.6559 7.3559 5.1959 3.8659 3.0059 2.2459
3597.544 1.7859 1.5559 1.2859 1.1959 1.1959 1.1359 0.9424 0.819 0.7972 0.6895
3616.833 0.7592 0.7253 0.5324 0.5834 0.6289 0.569 0.6451 0.6206 0.475 0.4298
3636.123 0.503 0.5522 0.535 0.3974 0.2972 0.376 0.348 0.2707 0.3484 0.3572
3655.413 0.2621 0.3325 0.4149 0.3665 0.2146 0.13436 0.15207 0.1677 0.2202 0.29
3674.703 0.2883 0.2368 0.1908 0.2032 0.2887 0.2947 0.3 0.2842 0.2093 0.14953
3693.993 0.15233 0.2094 0.2611 0.2843 0.2288 0.15329 0.14804 0.2092 0.15297 0.0461
3713.282 0.11486 0.1562 0.12446 0.2994 0.3789 0.2284 0.1843 0.1838 0.2164 0.278
3732.572 0.254 0.3527 0.3948 0.337 0.3518 0.3338 0.2013 0.11594 0.08441 0.1952
3751.862 0.259 0.2175 0.2605 0.3381 0.4419 0.4289 0.2954 0.10059 0.12792 0.2389
3771.152 0.2683 0.1887 0.1984 0.2637 0.242 0.3249 0.4205 0.4465 0.3588 0.15398
3790.441 0.13947 0.2077 0.3129 0.3726 0.2692 0.1972 0.15231 0.1783 0.10819 0.08644
3809.731 0.09378 0.1667 0.1813 0.1372 0.13192 0.06755 0.08401 0.10829 0.14031 0.15543
3829.021 0.1563 0.214 0.1709 0.13526 0.1842 0.13104 0.13933 0.10394 0.0104 0.14227
3848.311 0.3396 0.3012 0.163 0.1745 0.1984 0.1982 0.2458 0.2116 0.1699 0.1859
3867.601 0.1779 0.04663 0.08059 0.12629 0.15141 0.2468 0.1646 0.2946 0.2923 0.1685
3886.890 0.2383 0.2512 0.3047 0.3195 0.3212 0.3268 0.1835 0.1694 0.1647 0.2096
3906.180 0.3242 0.247 0.2358 0.1646 0.08884 0.14277 0.0337 0.0306 0.12617 0.184
3925.470 0.3017 0.3302 0.2855 0.2972 0.2604 0.1932 0.038 0 0.1568 0.1925
3944.760 0.13592 0.1573 0.1503 0.0341 0.09562 0.2111 0.2129 0.2695 0.3638 0.3667
3964.049 0.3622 0.3448 0.397 0.4102 0.3206 0.3302 0.3215 0.2411 0.2951 0.1895
3983.339 0.08621 0.2154 0.1982 0.2468 0.2734 0.11073 0.1967 0.3084 0.3257 0.3427
##END=
