##TITLE=4-Hydroxycoumarin
##JCAMP-DX=4.24
##DATA TYPE=INFRARED SPECTRUM
##ORIGIN=EPA-IR VAPOR PHASE LIBRARY
##OWNER=SRD/NIST
Collection (C) 2018 copyright by the U.S. Secretary of Commerce
on behalf of the United States of America. All rights reserved.
##CAS REGISTRY NO=1076-38-6
##MOLFORM=C 9 H 6 O 3
##$NIST SOURCE=MSDC-IR
##STATE=gas
##XUNITS=1/CM
##YUNITS=ABSORBANCE
##XFACTOR=1.
##YFACTOR=0.001
##DELTAX=3.85796
##FIRSTX=501.5
##LASTX=4000.7
##FIRSTY=1.96
##MAXX=4000.7
##MINX=501.534
##MAXY=0.02383
##MINY=0.00009024
##NPOINTS=908
##XYDATA=(X++(Y..Y))
501.534 1.96 1.47 1.12 1.21 1.29 1.39 1.33 1.15 0.9664 0.6823
540.114 0.6947 0.8006 0.6551 0.5406 0.4999 0.517 0.5422 0.499 0.439 0.3267
578.693 0.2396 0.2178 0.3432 0.5355 0.5456 0.5585 0.5018 0.3952 0.4032 0.4617
617.273 0.5539 0.5219 0.5229 0.5989 0.4887 0.3862 0.3665 0.3007 0.2865 0.4131
655.852 0.5819 0.6334 0.6136 0.6189 0.6488 0.6773 0.5635 0.4085 0.3162 0.3169
694.432 0.3982 0.3573 0.3878 0.5399 0.5308 0.4733 0.5042 0.6222 0.7423 0.8903
733.011 1.33 1.89 2.61 3.55 4.73 5.84 6.91 8.57 7.92 5.65
771.591 4.35 3.08 1.96 1.31 0.955 0.8294 0.8421 0.8372 0.879 0.9853
810.170 1.15 1.46 1.72 2.05 2.46 2.58 2.55 2.46 2.3 2.13
848.750 1.95 1.8 1.73 1.71 1.58 1.23 0.8849 0.816 0.8728 0.9678
887.330 1.13 1.4 1.81 2.48 3.54 4.77 5.91 6.53 6.42 5.71
925.909 4.45 2.99 1.89 1.29 0.9736 0.8018 0.644 0.5099 0.4798 0.4763
964.489 0.4068 0.3092 0.3163 0.3472 0.2983 0.3757 0.4254 0.3905 0.4178 0.411
1003.068 0.3694 0.4432 0.6771 0.833 0.9442 1.1 1.13 1.15 1.26 1.22
1041.648 1.21 1.31 1.45 1.53 1.49 1.44 1.42 1.44 1.59 1.87
1080.227 2.21 2.36 2.32 2.4 2.34 2.23 2.31 2.67 3.2 4.09
1118.807 5.36 6.76 8.02 9.09 9.89 9.81 9.09 8.13 7.09 6.61
1157.387 7.01 8.31 9.84 10.81 11 10.3 8.96 7.77 7.07 6.71
1195.966 6.73 7.14 7.7 8.2 8.48 8.5 8.29 7.83 7.62 7.81
1234.546 7.68 7.35 6.78 5.75 4.76 4.09 3.72 3.56 3.49 3.51
1273.125 3.41 3.3 3.44 3.84 4.6 5.88 7.84 10.28 12.91 15.02
1311.705 15.85 15.3 13.56 10.93 8.16 5.97 4.44 3.38 2.64 2.14
1350.284 1.73 1.43 1.28 1.21 1.26 1.41 1.65 1.95 2.22 2.39
1388.864 2.46 2.4 2.23 2.01 1.75 1.52 1.42 1.51 1.67 1.82
1427.443 1.9 1.96 2.1 2.25 2.76 4.1 6.4 9.03 11.05 11.72
1466.023 11.04 8.92 5.72 3.5 2.73 2.42 2.23 2.09 1.96 1.8
1504.603 1.61 1.37 1.16 1.04 0.962 0.9226 0.9415 0.9828 1.03 1.09
1543.182 1.13 1.15 1.17 1.28 1.5 1.78 2.07 2.31 2.53 2.75
1581.762 2.99 3.36 3.96 4.89 6.18 7.65 8.9 9.5 9.3 8.44
1620.341 7.18 6.11 5.75 6.07 6.69 7.09 7.13 6.75 5.92 4.83
1658.921 3.92 3.23 2.75 2.46 2.33 2.3 2.37 2.51 2.71 3.06
1697.500 3.68 4.8 6.58 9.17 12.09 14.37 15.66 15.95 14.61 11.98
1736.080 9.35 7.55 6.54 6.27 6.66 7.75 9.4 11.17 12.84 14.57
1774.659 16.11 16.75 16.58 15.95 14.75 13.37 13.21 15.35 19.06 22.4
1813.239 23.83 22.86 19.33 13.85 8.71 5.44 3.66 2.7 2.09 1.72
1851.819 1.52 1.38 1.27 1.17 1.07 1.03 1.01 0.9559 0.902 0.8242
1890.398 0.7155 0.6494 0.5905 0.5333 0.5164 0.5099 0.4984 0.5243 0.524 0.4914
1928.978 0.4929 0.5185 0.5571 0.5826 0.5698 0.547 0.5339 0.5472 0.5307 0.5058
1967.557 0.5081 0.5011 0.4813 0.4282 0.4068 0.42 0.401 0.3712 0.3547 0.3437
2006.137 0.3307 0.3356 0.3467 0.3315 0.3246 0.3239 0.3219 0.3376 0.3414 0.3241
2044.716 0.3201 0.3355 0.3297 0.3014 0.2913 0.3089 0.3106 0.2771 0.2464 0.2626
2083.296 0.2885 0.273 0.269 0.2688 0.2606 0.25 0.2366 0.2521 0.2644 0.2661
2121.875 0.2785 0.3086 0.3056 0.2953 0.2998 0.2878 0.2919 0.3029 0.2807 0.2616
2160.455 0.2724 0.2864 0.2654 0.2322 0.2664 0.2737 0.2284 0.2351 0.2486 0.2467
2199.035 0.2386 0.2335 0.2771 0.2775 0.241 0.2375 0.2317 0.2452 0.266 0.2674
2237.614 0.2709 0.279 0.2794 0.2625 0.2904 0.3116 0.2989 0.3263 0.3369 0.3292
2276.194 0.3404 0.3451 0.3776 0.3991 0.3785 0.3898 0.4233 0.4155 0.422 0.4518
2314.773 0.4297 0.3974 0.3999 0.3786 0.3732 0.3911 0.3828 0.3877 0.3772 0.3683
2353.353 0.3418 0.3266 0.3608 0.3632 0.3404 0.334 0.3277 0.3311 0.3181 0.2793
2391.932 0.2526 0.2567 0.2843 0.3382 0.3619 0.3321 0.3122 0.3097 0.3144 0.3354
2430.512 0.3119 0.2709 0.2843 0.3139 0.3375 0.3191 0.2842 0.3135 0.3257 0.2768
2469.092 0.2548 0.2702 0.2436 0.2264 0.2579 0.2676 0.2618 0.2762 0.2824 0.2616
2507.671 0.227 0.2312 0.2592 0.2614 0.2896 0.2742 0.2478 0.2566 0.2516 0.2268
2546.251 0.2219 0.2409 0.2363 0.2281 0.257 0.2787 0.2403 0.2354 0.2597 0.2506
2584.830 0.2643 0.2523 0.2376 0.2556 0.2416 0.2427 0.2338 0.2143 0.2209 0.2336
2623.410 0.2371 0.2464 0.2489 0.2362 0.2234 0.2113 0.2073 0.184 0.1465 0.1318
2661.989 0.1676 0.1822 0.1942 0.2268 0.219 0.2099 0.2363 0.2526 0.2475 0.2365
2700.569 0.2229 0.2607 0.2994 0.2835 0.2697 0.2657 0.2967 0.2947 0.2851 0.2901
2739.148 0.2629 0.2618 0.2933 0.2816 0.2723 0.2615 0.2451 0.2667 0.2584 0.2293
2777.728 0.2283 0.2439 0.2245 0.2198 0.1856 0.1784 0.221 0.2473 0.228 0.1959
2816.308 0.2089 0.2275 0.2066 0.1708 0.1723 0.1911 0.2171 0.2462 0.2163 0.1366
2854.887 0.1454 0.1238 0.1264 0.2225 0.2357 0.2141 0.2195 0.2229 0.2376 0.3157
2893.467 0.3582 0.3354 0.3554 0.331 0.2923 0.2753 0.2718 0.2902 0.2876 0.2886
2932.046 0.2716 0.2969 0.2809 0.242 0.2194 0.2044 0.201 0.171 0.1648 0.1872
2970.626 0.2473 0.2883 0.2632 0.1834 0.1664 0.2346 0.2656 0.2645 0.2724 0.3176
3009.205 0.357 0.3713 0.4588 0.4593 0.4102 0.4752 0.5359 0.5312 0.5381 0.6598
3047.785 0.7473 0.7827 0.781 0.7371 0.8046 0.9414 1.09 1.22 1.31 1.42
3086.364 1.46 1.38 1.2 0.9885 0.7766 0.4936 0.3456 0.3196 0.2396 0.2654
3124.944 0.3436 0.317 0.2787 0.3136 0.3249 0.3419 0.3558 0.2892 0.2902 0.3204
3163.524 0.3527 0.3619 0.2783 0.2116 0.2288 0.266 0.2604 0.3121 0.3625 0.301
3202.103 0.3151 0.3071 0.3246 0.3606 0.3146 0.3008 0.3668 0.4083 0.3923 0.411
3240.683 0.3728 0.3498 0.345 0.2787 0.2688 0.2953 0.2935 0.3574 0.4093 0.3521
3279.262 0.2948 0.3102 0.2838 0.2305 0.2621 0.3337 0.3947 0.3522 0.356 0.3128
3317.842 0.2084 0.2574 0.2742 0.3153 0.3435 0.2755 0.3047 0.3726 0.3631 0.3133
3356.421 0.2586 0.2734 0.371 0.363 0.2989 0.318 0.3354 0.2906 0.2374 0.2073
3395.001 0.2043 0.2726 0.3234 0.3346 0.3778 0.4303 0.448 0.5019 0.5692 0.5372
3433.580 0.5052 0.4855 0.4376 0.375 0.3024 0.3357 0.3599 0.3345 0.3305 0.276
3472.160 0.2754 0.2691 0.3101 0.4082 0.355 0.2838 0.2801 0.3449 0.4276 0.4236
3510.740 0.4145 0.4404 0.4566 0.4869 0.4689 0.3901 0.4091 0.4774 0.4505 0.3755
3549.319 0.377 0.4121 0.4075 0.3986 0.398 0.4772 0.5396 0.4992 0.4194 0.3859
3587.899 0.4114 0.4672 0.5767 0.5973 0.6334 0.7268 0.8319 1.01 1.28 1.75
3626.478 2.23 2.38 2.37 2.28 1.73 1.12 0.7412 0.4583 0.3676 0.3939
3665.058 0.2762 0.1693 0.2483 0.2619 0.1571 0.1904 0.2578 0.2959 0.3503 0.2921
3703.637 0.2311 0.1832 0.1909 0.166 0.1629 0.1674 0.1259 0.1528 0.2117 0.2745
3742.217 0.27 0.2174 0.2451 0.3312 0.376 0.2936 0.1929 0.1991 0.1767 0.1724
3780.797 0.164 0.1664 0.1942 0.2001 0.2051 0.152 0.1807 0.2467 0.2669 0.2327
3819.376 0.1744 0.2185 0.1734 0.125 0.1557 0.1871 0.1896 0.19 0.188 0.1264
3857.956 0.1324 0.1886 0.1535 0.1696 0.1812 0.1855 0.2559 0.2161 0.2177 0.2192
3896.535 0.1271 0.107 0.1136 0.1669 0.2142 0.2151 0.2911 0.3479 0.3548 0.3033
3935.115 0.216 0.2137 0.2108 0.1683 0.264 0.3149 0.2939 0.2477 0.1455 0.1593
3973.694 0.2222 0.194 0.1722 0.18 0.1526 0.09024 0.1354 0.2096
##END=
