##TITLE=Heptylbenzene
##JCAMP-DX=4.24
##DATA TYPE=INFRARED SPECTRUM
##ORIGIN=NIST Mass Spectrometry Data Center
##OWNER=NIST Standard Reference Data Program
Collection (C) 2018 copyright by the U.S. Secretary of Commerce
on behalf of the United States of America. All rights reserved.
##CAS REGISTRY NO=1078-71-3
##MOLFORM=C 13 H 20
##$NIST SOURCE=MSDC-IR
##SPECTROMETER/DATA SYSTEM=HP-GC/MS/IRD
##STATE=gas
##XUNITS=1/CM
##YUNITS=ABSORBANCE
##XFACTOR=1.0
##YFACTOR=0.000003200
##DELTAX=4.0
##FIRSTX=550.0
##LASTX=3846.0
##FIRSTY=0.000083
##MAXX=3846
##MINX=550
##MAXY=0.032
##MINY=0
##NPOINTS=825
##XYDATA=(X++(Y..Y))
550.0 26 60 77 107 131 130 100 49 47 63
590.0 62 62 67 47 48 49 41 16 1 26
630.0 36 28 23 31 52 79 103 125 186 257
670.0 306 388 522 704 1006 1445 1838 1968 1786 1474
710.0 1266 1164 1122 1141 1204 1303 1417 1465 1385 1195
750.0 956 733 570 442 360 317 263 220 187 165
790.0 144 112 107 130 136 124 106 80 79 71
830.0 63 67 71 74 80 74 71 82 83 85
870.0 85 92 109 109 102 112 127 137 149 152
910.0 148 135 123 119 112 103 98 100 83 64
950.0 63 63 69 81 81 75 72 76 79 83
990.0 94 100 105 114 123 132 151 193 264 345
1030.0 364 313 226 159 127 128 144 156 177 187
1070.0 180 168 153 131 117 109 104 103 108 113
1110.0 110 110 100 77 56 40 32 42 43 31
1150.0 33 31 29 35 42 45 56 58 60 80
1190.0 73 61 73 75 68 58 52 54 63 71
1230.0 72 77 80 76 73 79 90 91 91 100
1270.0 106 103 112 118 130 148 162 177 187 191
1310.0 197 202 202 207 227 245 267 303 333 351
1350.0 357 345 336 325 304 287 287 294 295 285
1390.0 252 218 195 180 175 179 190 212 232 256
1430.0 312 400 511 656 816 960 1068 1108 1066 969
1470.0 858 737 628 583 648 825 982 964 758 489
1510.0 299 216 182 159 143 131 118 119 116 100
1550.0 95 105 116 112 107 115 140 178 208 258
1590.0 317 386 463 506 475 366 247 159 108 83
1630.0 70 72 71 68 69 74 74 57 47 44
1670.0 36 33 31 41 45 32 36 51 49 38
1710.0 40 54 61 48 44 56 65 60 53 55
1750.0 58 50 43 41 46 56 55 65 86 108
1790.0 128 134 119 93 72 58 48 42 42 39
1830.0 39 43 44 55 66 61 64 74 81 87
1870.0 85 78 74 69 55 50 45 35 29 30
1910.0 36 46 53 66 89 103 114 120 118 116
1950.0 109 86 59 37 25 22 20 19 16 12
1990.0 13 9 12 16 19 16 12 13 11 7
2030.0 10 15 19 12 10 14 14 13 12 9
2070.0 4 4 4 6 11 11 9 10 10 9
2110.0 8 3 6 12 9 9 9 9 6 2
2150.0 4 7 6 5 6 6 5 7 12 8
2190.0 6 10 14 15 14 12 12 11 10 9
2230.0 5 9 11 11 9 11 12 13 17 11
2270.0 9 13 13 14 14 12 14 17 18 30
2310.0 39 39 40 34 31 35 37 40 39 32
2350.0 29 31 32 33 34 31 25 20 17 14
2390.0 14 14 12 12 7 1 1 8 9 9
2430.0 10 11 15 11 3 3 7 12 9 3
2470.0 6 4 0 4 10 15 13 13 9 6
2510.0 14 20 18 12 11 17 18 16 22 30
2550.0 29 28 28 30 29 31 35 36 42 44
2590.0 46 51 51 50 51 53 56 60 60 62
2630.0 67 69 76 77 78 83 82 78 88 96
2670.0 92 96 101 101 97 96 90 85 89 89
2710.0 91 92 88 93 101 104 108 118 122 127
2750.0 132 133 137 139 146 151 165 181 198 218
2790.0 239 258 269 284 313 346 379 425 478 535
2830.0 606 702 846 1068 1395 1861 2462 3088 3564 3738
2870.0 3624 3360 3092 2877 2697 2555 2513 2630 2898 3326
2910.0 3897 4651 5671 6955 8319 9450 10000 9757 8781 7395
2950.0 6024 5023 4497 4343 4278 3961 3329 2561 1916 1480
2990.0 1206 1038 947 921 926 949 1015 1157 1378 1649
3030.0 1854 1866 1668 1365 1113 985 979 1090 1305 1543
3070.0 1648 1546 1298 1088 968 860 738 636 547 466
3110.0 389 318 260 201 151 131 119 102 96 97
3150.0 93 83 81 85 78 73 68 61 54 51
3190.0 53 54 49 45 39 39 37 27 32 33
3230.0 28 28 29 31 25 15 18 27 23 15
3270.0 15 13 14 23 23 16 8 8 13 15
3310.0 16 14 12 14 15 13 11 9 12 8
3350.0 11 20 17 16 22 15 10 13 20 24
3390.0 18 13 11 15 22 24 20 12 8 9
3430.0 4 11 22 25 13 3 15 16 17 15
3470.0 9 12 21 31 25 12 12 12 13 14
3510.0 7 10 7 0 5 11 14 13 10 18
3550.0 22 15 12 24 36 27 21 24 17 27
3590.0 34 28 28 33 39 46 41 32 27 40
3630.0 45 39 42 44 51 58 43 40 39 31
3670.0 48 60 54 39 36 46 46 45 42 41
3710.0 50 53 39 40 44 47 48 46 59 64
3750.0 64 55 52 49 38 43 50 48 40 35
3790.0 33 30 39 51 62 60 54 55 54 49
3830.0 51 60 51 40 37
##END=
