##TITLE=1,2,3,4,5,6,7,8-Octahydroanthracene
##JCAMP-DX=4.24
##DATA TYPE=INFRARED SPECTRUM
##ORIGIN=NIST Mass Spectrometry Data Center
##OWNER=NIST Standard Reference Data Program
Collection (C) 2018 copyright by the U.S. Secretary of Commerce
on behalf of the United States of America. All rights reserved.
##CAS REGISTRY NO=1079-71-6
##MOLFORM=C 14 H 18
##$NIST SOURCE=MSDC-IR
##SPECTROMETER/DATA SYSTEM=HP-GC/MS/IRD
##STATE=gas
##XUNITS=1/CM
##YUNITS=ABSORBANCE
##XFACTOR=1.0
##YFACTOR=0.000005700
##DELTAX=4.0
##FIRSTX=550.0
##LASTX=3846.0
##FIRSTY=0.000234
##MAXX=3846
##MINX=550
##MAXY=0.057
##MINY=0
##NPOINTS=825
##XYDATA=(X++(Y..Y))
550.0 41 31 25 23 18 12 13 22 37 39
590.0 18 16 21 20 33 28 12 10 13 24
630.0 28 24 14 5 10 22 22 17 19 25
670.0 18 17 17 19 28 34 37 32 30 33
710.0 31 28 31 34 30 24 29 39 39 36
750.0 37 40 40 46 55 57 62 62 55 57
790.0 57 59 63 67 85 110 133 142 135 122
830.0 110 114 142 196 274 368 457 464 398 329
870.0 257 189 147 117 96 87 87 95 105 114
910.0 135 166 206 248 289 287 231 182 141 104
950.0 90 93 92 97 107 115 127 131 120 102
990.0 83 59 41 34 33 29 28 30 27 31
1030.0 34 28 28 27 25 24 31 44 51 60
1070.0 65 60 55 51 47 42 41 38 33 37
1110.0 40 39 43 50 66 83 95 103 102 97
1150.0 91 82 71 61 59 63 71 75 68 63
1190.0 68 72 72 71 67 70 76 79 86 103
1230.0 126 166 240 315 350 330 266 196 159 154
1270.0 171 204 236 253 251 243 234 229 220 196
1310.0 165 144 134 140 163 206 269 352 482 601
1350.0 615 509 331 169 102 78 64 61 60 64
1390.0 72 79 94 122 150 172 190 203 231 276
1430.0 347 458 596 714 789 814 762 701 642 565
1470.0 473 389 367 390 441 546 728 952 1098 1037
1510.0 802 505 275 165 121 92 68 50 44 45
1550.0 42 35 23 28 35 30 27 29 29 28
1590.0 24 24 24 22 22 23 20 19 19 16
1630.0 15 10 10 11 8 5 4 13 17 18
1670.0 20 17 15 8 4 13 10 5 12 22
1710.0 28 25 30 48 62 68 68 68 60 48
1750.0 37 33 28 25 27 24 23 24 23 24
1790.0 21 26 35 40 49 46 38 34 26 16
1830.0 12 12 11 5 5 8 10 8 6 7
1870.0 5 5 4 5 6 8 8 7 6 8
1910.0 9 5 4 6 5 5 9 10 5 7
1950.0 12 13 11 9 8 8 10 11 12 12
1990.0 8 11 12 10 12 13 14 11 6 6
2030.0 9 9 6 1 0 4 0 0 3 4
2070.0 6 7 6 8 10 8 5 8 3 2
2110.0 4 4 4 9 12 10 9 7 6 8
2150.0 9 11 10 11 10 9 9 10 10 9
2190.0 8 9 10 9 10 14 15 12 10 7
2230.0 11 15 13 11 12 11 10 13 14 13
2270.0 10 6 7 11 13 13 12 12 14 18
2310.0 18 16 18 18 11 7 7 4 1 3
2350.0 3 1 3 6 6 4 6 10 11 13
2390.0 16 14 14 19 21 21 21 21 20 17
2430.0 17 16 12 17 16 13 10 10 15 15
2470.0 14 15 15 12 13 17 17 19 22 20
2510.0 19 24 26 27 27 27 29 25 21 16
2550.0 14 17 17 15 18 22 28 31 33 37
2590.0 38 39 38 36 38 41 42 41 42 46
2630.0 49 53 57 61 73 85 105 129 138 133
2670.0 117 102 92 85 78 75 70 65 60 58
2710.0 58 55 55 55 56 57 62 66 74 85
2750.0 91 97 108 121 131 139 148 158 165 173
2790.0 179 186 199 218 242 266 289 322 371 453
2830.0 593 816 1157 1596 2007 2304 2504 2667 2881 3066
2870.0 3043 2799 2460 2191 2060 2050 2107 2164 2234 2383
2910.0 2699 3292 4242 5440 6670 7872 8889 9623 10000 9395
2950.0 7601 5134 3043 1899 1343 1052 901 849 900 1062
2990.0 1320 1582 1680 1606 1370 980 645 435 313 246
3030.0 200 162 137 122 108 97 89 84 82 78
3070.0 71 66 64 62 62 63 66 72 74 82
3110.0 83 86 89 90 85 73 65 56 46 42
3150.0 42 39 36 35 33 31 30 31 30 30
3190.0 32 35 36 30 30 28 27 27 29 34
3230.0 35 40 37 32 28 26 25 24 26 26
3270.0 25 26 24 21 22 19 14 14 16 16
3310.0 15 16 19 17 18 17 17 17 16 15
3350.0 14 18 24 25 24 23 23 21 20 20
3390.0 20 21 22 19 17 21 22 23 26 27
3430.0 25 22 24 24 19 17 19 18 13 17
3470.0 20 15 12 15 16 16 19 17 19 20
3510.0 21 21 16 13 20 26 21 20 19 18
3550.0 21 20 21 18 14 20 25 24 18 9
3590.0 7 12 15 18 17 15 13 11 17 18
3630.0 12 21 22 12 12 13 15 21 26 21
3670.0 18 22 27 27 26 26 28 28 29 30
3710.0 23 23 28 27 28 29 24 31 33 25
3750.0 23 27 31 34 32 32 33 34 34 34
3790.0 38 46 42 32 33 36 38 37 36 43
3830.0 49 39 33 32 35
##END=
