##TITLE=Phenylhydroquinone
##JCAMP-DX=4.24
##DATA TYPE=INFRARED SPECTRUM
##ORIGIN=NIST Mass Spectrometry Data Center
##OWNER=NIST Standard Reference Data Program
Collection (C) 2018 copyright by the U.S. Secretary of Commerce
on behalf of the United States of America. All rights reserved.
##CAS REGISTRY NO=1079-21-6
##MOLFORM=C 12 H 10 O 2
##$NIST SOURCE=MSDC-IR
##SPECTROMETER/DATA SYSTEM=HP-GC/MS/IRD
##STATE=gas
##XUNITS=1/CM
##YUNITS=ABSORBANCE
##XFACTOR=1.0
##YFACTOR=0.000002200
##DELTAX=4.0
##FIRSTX=550.0
##LASTX=3846.0
##FIRSTY=0.001034
##MAXX=3846
##MINX=550
##MAXY=0.022
##MINY=0
##NPOINTS=825
##XYDATA=(X++(Y..Y))
550.0 470 406 327 305 238 205 245 269 318 424
590.0 526 611 679 646 518 425 391 390 441 546
630.0 696 724 604 436 300 254 256 317 381 448
670.0 528 565 624 754 1015 1437 1991 2396 2532 2512
710.0 2324 2047 1794 1481 1172 1117 1319 1690 2157 2762
750.0 3401 3670 3449 2809 1957 1321 1091 1231 1638 2068
790.0 2284 2220 1971 1789 1715 1653 1578 1469 1252 983
830.0 785 666 624 651 731 765 754 738 726 759
870.0 792 747 685 705 852 1026 1099 1013 774 551
910.0 410 317 257 192 127 87 53 33 33 37
950.0 38 53 69 82 96 116 146 142 120 105
990.0 95 112 153 183 196 225 285 344 356 336
1030.0 303 283 270 252 242 229 243 309 404 496
1070.0 551 574 584 604 634 650 637 621 680 829
1110.0 1007 1135 1174 1112 1024 1039 1189 1522 2166 3269
1150.0 4866 6615 8057 8956 9252 9249 9200 8942 8301 7298
1190.0 6119 5061 4277 3719 3336 3093 2992 3049 3273 3550
1230.0 3689 3583 3246 2858 2573 2418 2388 2471 2650 2919
1270.0 3288 3762 4235 4481 4323 3755 3012 2417 2051 1847
1310.0 1755 1744 1823 2021 2233 2274 2085 1668 1150 744
1350.0 508 388 326 300 286 282 279 276 265 272
1390.0 299 339 395 468 579 722 883 1086 1318 1579
1430.0 1877 2152 2366 2504 2567 2568 2522 2433 2394 2493
1470.0 2803 3496 4901 7127 9199 10000 9263 7308 5413 4272
1510.0 3343 2421 1677 1195 904 739 659 612 556 502
1550.0 468 457 478 504 551 635 726 790 845 931
1590.0 1084 1305 1472 1452 1244 950 739 663 643 610
1630.0 540 464 389 346 351 397 468 550 682 852
1670.0 1024 1110 1075 944 720 506 385 330 278 234
1710.0 209 204 191 162 151 163 184 195 203 210
1750.0 217 203 175 154 140 127 115 105 106 111
1790.0 125 140 156 180 183 179 162 143 135 142
1830.0 155 160 150 138 124 117 127 156 188 215
1870.0 227 212 192 180 181 182 176 162 137 110
1910.0 90 88 84 83 90 108 127 150 181 204
1950.0 214 212 201 184 157 127 108 90 76 73
1990.0 70 74 76 75 80 83 81 74 72 71
2030.0 67 71 71 64 62 63 69 72 68 65
2070.0 67 67 64 67 67 63 57 58 64 55
2110.0 58 61 49 40 42 46 48 51 48 36
2150.0 32 34 38 43 39 37 40 38 37 37
2190.0 39 40 34 34 40 38 36 40 39 38
2230.0 39 38 35 32 33 36 39 44 49 45
2270.0 44 48 52 58 57 59 61 58 63 74
2310.0 75 73 77 80 82 84 91 100 105 99
2350.0 95 103 107 120 129 131 142 149 139 126
2390.0 119 114 118 114 99 94 91 89 88 88
2430.0 86 81 89 94 90 85 86 85 84 90
2470.0 94 94 89 79 76 85 85 78 74 72
2510.0 64 53 48 47 38 30 30 28 27 25
2550.0 17 21 26 23 29 25 19 20 26 31
2590.0 31 36 34 32 35 36 37 41 36 35
2630.0 26 19 26 31 41 44 48 44 38 38
2670.0 30 30 28 19 14 8 1 2 9 13
2710.0 14 11 10 6 0 0 7 24 29 23
2750.0 21 15 8 16 21 25 22 14 14 21
2790.0 18 17 27 22 8 3 14 25 17 10
2830.0 18 18 13 18 18 17 25 24 21 32
2870.0 30 28 38 42 55 57 53 49 47 53
2910.0 57 55 55 61 63 63 65 50 46 54
2950.0 52 50 50 45 51 63 81 90 99 114
2990.0 125 141 172 215 288 427 621 864 1162 1457
3030.0 1641 1667 1549 1383 1267 1241 1331 1557 1894 2161
3070.0 2228 2075 1758 1478 1285 1084 878 707 573 469
3110.0 384 332 276 212 177 159 141 133 133 116
3150.0 105 112 98 74 65 54 35 39 59 70
3190.0 59 49 63 78 69 50 47 56 53 50
3230.0 64 65 53 56 62 71 74 69 62 59
3270.0 63 75 75 62 61 57 53 59 79 90
3310.0 85 91 96 89 89 103 103 99 100 102
3350.0 103 93 85 85 74 72 93 103 110 106
3390.0 119 152 146 127 127 128 125 125 140 149
3430.0 146 127 105 112 105 81 91 119 119 115
3470.0 108 105 112 99 101 101 87 97 122 135
3510.0 144 177 190 187 187 171 150 139 146 149
3550.0 139 150 183 214 234 251 288 364 502 821
3590.0 1667 3419 5355 6269 5671 3802 2005 1110 759 647
3630.0 663 770 1066 1627 2524 3615 4312 4170 3302 2025
3670.0 987 511 336 246 199 170 135 112 116 119
3710.0 108 100 86 79 81 93 116 114 122 119
3750.0 112 114 103 98 93 95 95 96 102 103
3790.0 98 100 108 111 106 107 109 122 130 128
3830.0 121 124 140 125 115
##END=
