##TITLE=Phloroglucinol
##JCAMP-DX=4.24
##DATA TYPE=INFRARED SPECTRUM
##ORIGIN=NIST Mass Spectrometry Data Center
##OWNER=NIST Standard Reference Data Program
Collection (C) 2018 copyright by the U.S. Secretary of Commerce
on behalf of the United States of America. All rights reserved.
##CAS REGISTRY NO=108-73-6
##MOLFORM=C 6 H 6 O 3
##$NIST SOURCE=MSDC-IR
##SPECTROMETER/DATA SYSTEM=HP-GC/MS/IRD
##STATE=gas
##XUNITS=1/CM
##YUNITS=ABSORBANCE
##XFACTOR=1.0
##YFACTOR=0.000001000
##DELTAX=4.0
##FIRSTX=550.0
##LASTX=3846.0
##FIRSTY=0.000523
##MAXX=3846
##MINX=550
##MAXY=0.01
##MINY=0
##NPOINTS=825
##XYDATA=(X++(Y..Y))
550.0 523 558 407 409 344 293 223 188 191 163
590.0 114 133 178 245 244 210 215 189 191 167
630.0 125 113 72 115 252 393 550 566 744 1358
670.0 1160 603 563 441 269 110 49 59 22 4
710.0 42 93 86 64 41 24 37 51 44 44
750.0 51 40 65 127 148 177 243 314 329 356
790.0 437 540 658 775 941 1082 1276 1413 1329 1258
830.0 1273 1245 1021 730 590 445 305 231 198 186
870.0 174 164 146 148 179 215 222 242 249 226
910.0 225 210 184 192 180 129 121 122 104 107
950.0 139 167 199 263 366 529 803 1255 1855 2461
990.0 2901 3280 3530 3322 2912 2463 1815 1164 742 516
1030.0 400 322 269 196 167 167 205 249 251 317
1070.0 338 335 375 416 522 644 778 958 1158 1441
1110.0 1898 2576 3527 4672 5798 6941 8246 9468 10000 9591
1150.0 8717 7687 6253 4344 2612 1663 1275 1112 1170 1473
1190.0 2039 2726 3370 3991 4538 4758 4552 4113 3526 2820
1230.0 2137 1550 1108 804 625 531 477 476 492 504
1270.0 532 612 738 855 951 1042 1097 1127 1162 1163
1310.0 1126 1074 1028 980 906 830 791 784 806 817
1350.0 783 706 583 480 435 427 408 398 409 424
1390.0 441 436 438 452 453 432 403 382 370 364
1430.0 377 401 391 375 384 408 472 609 842 1212
1470.0 1691 2200 2643 2951 3101 3056 2837 2533 2282 2182
1510.0 2176 2161 2093 1974 1707 1295 924 701 567 492
1550.0 459 439 464 493 555 681 868 1154 1602 2219
1590.0 2992 3882 4742 5486 6055 6406 6541 6490 6414 6358
1630.0 6134 5614 4856 3940 3000 2254 1722 1370 1201 1126
1670.0 1067 1010 924 835 720 577 473 412 370 339
1710.0 317 318 341 377 412 458 505 517 488 443
1750.0 396 335 278 240 196 162 144 113 87 77
1790.0 68 75 71 58 49 46 57 71 74 65
1830.0 61 60 47 39 50 55 42 36 34 33
1870.0 24 21 32 39 33 29 32 34 28 23
1910.0 16 17 17 22 21 17 14 15 29 24
1950.0 7 3 8 12 18 22 30 32 30 29
1990.0 30 39 47 45 38 28 31 35 28 19
2030.0 4 8 9 5 5 8 16 29 29 24
2070.0 17 15 28 35 33 30 29 28 33 43
2110.0 46 58 73 76 72 87 97 100 96 89
2150.0 93 95 92 79 53 54 60 58 67 61
2190.0 62 66 60 69 69 72 72 58 43 37
2230.0 60 64 54 57 56 52 47 48 45 41
2270.0 51 65 60 56 70 83 86 88 89 86
2310.0 89 92 97 105 122 125 129 138 129 137
2350.0 148 159 163 150 148 132 119 108 83 64
2390.0 56 44 44 44 46 71 80 74 90 109
2430.0 120 109 91 93 96 81 63 73 84 80
2470.0 81 100 119 131 158 156 132 155 179 170
2510.0 147 119 101 94 71 49 35 17 20 32
2550.0 34 37 30 28 40 28 24 44 42 12
2590.0 14 30 26 20 12 30 44 32 26 35
2630.0 32 25 36 52 63 46 24 30 33 45
2670.0 36 20 25 26 34 43 22 14 24 34
2710.0 44 36 26 30 44 41 18 7 32 40
2750.0 30 24 11 20 32 36 26 31 42 24
2790.0 5 7 27 46 71 69 66 68 52 47
2830.0 58 53 56 56 40 44 67 78 54 43
2870.0 50 41 40 55 49 20 23 50 36 14
2910.0 21 41 51 55 43 29 28 34 43 65
2950.0 95 78 42 39 53 71 56 42 32 26
2990.0 46 52 41 33 37 40 58 110 134 133
3030.0 164 173 183 214 230 227 224 211 197 188
3070.0 164 100 55 73 97 71 44 53 53 44
3110.0 33 20 8 20 47 44 18 6 11 14
3150.0 31 50 40 11 8 15 8 24 49 43
3190.0 36 49 40 46 30 6 15 9 22 26
3230.0 33 48 67 32 8 15 18 17 22 15
3270.0 0 43 70 52 24 8 37 60 82 71
3310.0 42 65 81 90 88 70 105 131 116 105
3350.0 108 109 104 124 129 97 98 92 102 118
3390.0 95 94 94 80 97 108 102 118 122 116
3430.0 117 88 72 113 109 95 118 117 105 91
3470.0 90 92 109 121 107 73 74 72 39 40
3510.0 76 87 113 127 113 107 83 85 110 133
3550.0 121 109 103 109 103 116 115 117 140 160
3590.0 140 122 118 119 181 253 284 347 457 632
3630.0 988 1605 2549 3754 4740 5115 5069 4746 3919 2685
3670.0 1510 761 421 252 182 188 167 118 130 122
3710.0 144 151 102 68 29 32 73 101 86 71
3750.0 78 92 111 114 104 64 56 89 112 133
3790.0 132 104 91 101 98 78 100 105 95 101
3830.0 105 118 117 129 142
##END=
