##TITLE=Bis(2-Chloroisopropyl)ether
##JCAMP-DX=4.24
##DATA TYPE=INFRARED SPECTRUM
##ORIGIN=NIST Mass Spectrometry Data Center
##OWNER=NIST Standard Reference Data Program
Collection (C) 2018 copyright by the U.S. Secretary of Commerce
on behalf of the United States of America. All rights reserved.
##CAS REGISTRY NO=108-60-1
##MOLFORM=C 6 H 12 Cl 2 O
##$NIST SOURCE=MSDC-IR
##SPECTROMETER/DATA SYSTEM=HP-GC/MS/IRD
##STATE=gas
##XUNITS=1/CM
##YUNITS=ABSORBANCE
##XFACTOR=1.0
##YFACTOR=0.000001200
##DELTAX=4.0
##FIRSTX=550.0
##LASTX=3846.0
##FIRSTY=0.000188
##MAXX=3846
##MINX=550
##MAXY=0.012
##MINY=0
##NPOINTS=825
##XYDATA=(X++(Y..Y))
550.0 157 99 4 23 125 244 272 238 326 366
590.0 310 296 296 316 320 237 182 251 248 195
630.0 207 240 286 304 313 322 300 296 285 278
670.0 357 407 405 505 584 667 775 952 1167 1248
710.0 1270 1200 1131 1132 1208 1397 1841 2530 3235 3966
750.0 4621 4864 4640 3990 3131 2318 1711 1297 1048 901
790.0 833 817 745 710 701 725 705 679 709 702
830.0 728 757 846 997 1069 1033 1020 987 871 804
870.0 810 851 905 947 982 998 1003 958 864 897
910.0 932 928 909 843 796 751 690 629 592 606
950.0 602 622 709 815 955 1123 1353 1567 1655 1604
990.0 1413 1135 921 833 766 726 734 766 852 980
1030.0 1107 1259 1470 1682 1906 2191 2510 2984 3652 4423
1070.0 5393 6608 7908 9132 9930 10000 9424 8347 7108 6068
1110.0 5360 5065 5199 5638 6175 6637 6787 6422 5640 4685
1150.0 3779 3009 2462 2068 1738 1512 1371 1293 1218 1240
1190.0 1444 1744 2044 2247 2219 2038 1786 1495 1272 1077
1230.0 921 887 898 1019 1265 1546 1799 1959 1949 1786
1270.0 1570 1314 1144 1029 943 903 888 924 987 1106
1310.0 1337 1680 2052 2383 2609 2590 2380 2120 1812 1527
1350.0 1356 1294 1337 1492 1797 2267 2831 3271 3435 3276
1390.0 2798 2194 1647 1238 995 863 815 861 1014 1269
1430.0 1551 1806 2006 2052 2044 1993 1869 1685 1480 1238
1470.0 1009 820 675 561 479 428 378 358 349 358
1510.0 330 305 331 324 303 285 267 247 240 241
1550.0 255 251 240 239 234 241 239 222 193 188
1590.0 196 191 202 209 203 206 216 204 206 213
1630.0 202 211 225 214 207 215 210 192 172 181
1670.0 164 156 178 187 189 175 170 168 168 153
1710.0 136 161 168 139 132 151 163 157 164 166
1750.0 161 160 160 157 153 157 154 145 146 147
1790.0 161 158 129 121 125 148 144 142 150 142
1830.0 145 148 157 164 151 140 138 151 175 184
1870.0 166 146 149 156 159 162 163 167 161 167
1910.0 169 137 132 140 135 142 148 159 147 127
1950.0 128 127 117 117 106 96 107 106 98 98
1990.0 111 127 103 96 114 120 100 83 87 77
2030.0 62 65 84 96 97 84 68 76 74 69
2070.0 77 73 69 57 49 56 51 41 42 57
2110.0 49 56 71 68 63 47 41 39 30 35
2150.0 48 37 48 68 59 47 45 46 53 59
2190.0 73 65 47 61 69 71 85 82 85 91
2230.0 81 67 44 23 26 37 38 49 48 37
2270.0 34 30 31 23 20 16 0 2 6 9
2310.0 13 20 31 62 86 68 54 44 34 41
2350.0 48 59 81 80 79 57 28 22 32 39
2390.0 37 32 42 73 65 23 21 42 51 63
2430.0 65 49 48 75 90 80 74 72 82 65
2470.0 66 91 110 114 83 77 66 61 97 96
2510.0 76 92 130 142 126 122 120 136 117 107
2550.0 110 114 127 118 130 147 134 131 144 162
2590.0 165 158 172 184 198 186 155 167 192 192
2630.0 200 211 214 210 196 192 214 231 221 209
2670.0 230 248 246 244 240 256 251 251 269 253
2710.0 247 243 248 255 256 260 251 254 275 279
2750.0 260 257 287 302 286 264 269 284 289 297
2790.0 306 321 307 317 359 381 393 423 472 499
2830.0 501 537 629 709 747 812 901 1003 1109 1214
2870.0 1330 1436 1527 1580 1624 1663 1767 1902 2020 2072
2910.0 2041 1994 1923 1856 1870 1997 2197 2416 2561 2610
2950.0 2674 2828 3112 3472 3819 4122 4441 4827 5161 5374
2990.0 5236 4736 4088 3418 2784 2224 1734 1309 983 775
3030.0 633 561 511 444 389 382 389 361 344 323
3070.0 311 316 326 306 311 369 371 317 315 324
3110.0 281 303 302 279 283 260 236 239 266 275
3150.0 264 273 280 227 217 218 198 227 235 253
3190.0 253 227 219 213 227 245 268 235 223 225
3230.0 193 178 178 212 202 157 183 186 152 155
3270.0 160 172 141 119 145 150 139 132 160 172
3310.0 172 157 127 111 144 171 168 170 167 162
3350.0 130 136 144 118 95 105 127 146 143 140
3390.0 129 139 144 167 190 152 104 90 97 115
3430.0 151 157 145 140 121 82 91 121 121 114
3470.0 91 58 91 128 116 111 108 103 76 86
3510.0 119 91 59 36 49 65 42 46 91 80
3550.0 4 3 27 45 68 46 59 99 65 74
3590.0 116 117 85 57 59 67 67 94 73 49
3630.0 52 54 46 14 23 85 121 109 84 52
3670.0 68 105 62 32 55 53 53 84 112 116
3710.0 126 132 95 83 94 81 109 102 94 101
3750.0 109 132 90 111 136 86 58 62 108 125
3790.0 112 114 138 148 111 67 90 87 53 81
3830.0 98 75 93 129 110
##END=
