##TITLE=3-Methyl-5-pyrazolone
##JCAMP-DX=4.24
##DATA TYPE=INFRARED SPECTRUM
##ORIGIN=EPA-IR VAPOR PHASE LIBRARY
##OWNER=SRD/NIST
Collection (C) 2018 copyright by the U.S. Secretary of Commerce
on behalf of the United States of America. All rights reserved.
##CAS REGISTRY NO=108-26-9
##MOLFORM=C 4 H 6 N 2 O
##$NIST SOURCE=MSDC-IR
##STATE=gas
##XUNITS=1/CM
##YUNITS=ABSORBANCE
##XFACTOR=1.
##YFACTOR=0.001
##DELTAX=1.92898
##FIRSTX=549.8
##LASTX=4000.7
##FIRSTY=1.268
##MAXX=4000.7
##MINX=549.759
##MAXY=0.024438
##MINY=0
##NPOINTS=1790
##XYDATA=(X++(Y..Y))
549.759 1.268 1.218 1.0988 0.9795 0.9257 1.0802 1.0829 0.9318 0.8847 0.8804
569.049 0.9874 0.9839 0.6686 0.6492 0.7999 0.7812 0.9606 0.8445 0.5965 0.8431
588.339 1.0483 0.9584 0.853 0.8051 0.8333 0.8062 0.6889 0.8362 0.9748 0.7563
607.628 0.6719 0.8094 0.8832 0.9664 1.0147 0.9888 0.9053 0.9916 1.0312 1.0385
626.918 1.1349 1.1312 1.1069 1.103 1.288 1.458 1.508 1.528 1.448 1.448
646.208 1.448 1.298 1.1338 1.1524 1.1061 1.0811 1.1354 1.056 1.0669 0.9657
665.498 0.8024 0.7688 0.5901 0.5409 0.7278 0.6895 0.6096 0.5812 0.6232 0.6735
684.787 0.6375 0.6752 0.742 0.8764 0.7719 0.5771 0.6369 0.7299 0.6993 0.6299
704.077 0.5276 0.4051 0.4891 0.5951 0.5382 0.447 0.4875 0.6638 0.7114 0.6473
723.367 0.7044 0.8269 0.8027 0.6822 0.7967 1.0291 1.308 1.568 1.598 1.628
742.657 1.918 2.258 2.328 2.378 2.478 2.578 2.668 2.718 2.668 2.758
761.947 3.088 3.438 3.748 3.688 3.328 2.988 2.618 2.438 2.388 2.338
781.236 2.328 2.218 2.158 2.168 2.118 2.098 1.958 1.818 1.818 1.778
800.526 1.648 1.668 1.728 1.618 1.698 1.778 1.708 1.738 1.798 1.778
819.816 1.758 1.758 1.758 1.858 1.918 1.988 2.038 2.108 2.208 2.168
839.106 2.248 2.408 2.558 2.628 2.678 2.838 2.908 2.928 2.938 2.948
858.395 2.948 2.938 2.938 2.928 2.958 2.968 2.848 2.748 2.718 2.648
877.685 2.558 2.538 2.468 2.368 2.328 2.188 2.078 2.058 2.028 1.918
896.975 1.858 1.808 1.788 1.748 1.738 1.758 1.728 1.678 1.668 1.798
916.265 1.748 1.628 1.608 1.618 1.608 1.568 1.578 1.588 1.438 1.268
935.555 1.288 1.1718 1.1489 1.0952 0.9849 0.9671 0.7668 0.7364 0.8852 0.9072
954.844 0.8376 1.0393 1.1718 1.029 1.0577 1.1479 1.228 1.378 1.448 1.528
974.134 1.668 1.698 1.648 1.598 1.598 1.598 1.648 1.648 1.708 1.828
993.424 1.668 1.548 1.738 1.658 1.428 1.358 1.368 1.388 1.378 1.378
1012.714 1.308 1.408 1.488 1.628 1.748 1.708 1.658 1.668 1.788 1.958
1032.003 2.258 2.258 2.028 1.648 1.578 1.708 1.748 2.098 2.368 2.348
1051.293 2.308 2.418 2.668 2.658 2.718 2.938 2.978 2.958 2.858 2.728
1070.583 2.718 2.878 2.718 2.558 2.348 1.838 1.828 1.998 1.678 1.0811
1089.873 0.9321 1.208 1.448 1.628 1.578 1.548 1.788 2.148 2.628 2.688
1109.163 2.818 3.118 3.188 3.258 3.278 3.298 3.468 3.618 3.538 3.648
1128.452 3.438 3.368 3.148 2.508 2.338 2.168 2.118 2.108 1.858 1.798
1147.742 1.718 1.668 1.818 1.828 1.738 1.738 1.788 1.548 1.378 1.738
1167.032 1.918 1.998 1.878 1.728 1.878 1.958 1.988 1.898 2.218 3.058
1186.322 3.378 3.808 4.528 5.048 5.548 5.898 6.398 6.868 7.388 7.788
1205.611 7.938 7.798 7.968 8.328 8.428 8.198 7.588 7.288 7.158 6.768
1224.901 6.288 5.818 5.418 5.178 4.838 4.688 4.648 4.468 4.278 4.218
1244.191 4.248 4.138 3.928 3.798 3.548 3.258 3.108 2.878 2.598 2.378
1263.481 2.178 2.128 2.048 1.868 1.788 1.798 1.708 1.648 1.708 1.748
1282.771 1.768 1.778 1.818 1.918 2.088 2.218 2.368 2.528 2.658 2.818
1302.060 2.918 2.928 2.958 2.928 2.898 2.848 2.778 2.828 2.818 2.638
1321.350 2.498 2.378 2.168 1.928 1.698 1.518 1.448 1.438 1.418 1.458
1340.640 1.508 1.478 1.528 1.638 1.658 1.668 1.718 1.718 1.698 1.778
1359.930 1.868 1.948 1.968 1.968 1.998 1.988 2.038 2.118 2.118 2.128
1379.219 2.148 2.118 2.078 2.108 2.168 2.108 2.068 2.098 2.148 2.148
1398.509 2.118 2.068 1.998 1.988 1.928 1.828 1.788 1.728 1.648 1.658
1417.799 1.658 1.608 1.558 1.528 1.468 1.478 1.508 1.438 1.418 1.508
1437.089 1.578 1.548 1.548 1.578 1.608 1.638 1.688 1.798 1.898 1.938
1456.378 2.088 2.168 2.148 2.198 2.318 2.468 2.668 2.898 3.168 3.328
1475.668 3.498 3.758 4.018 4.338 4.628 4.858 5.118 5.448 5.688 5.918
1494.958 6.238 6.508 6.648 6.688 6.668 6.758 6.968 7.048 7.008 6.958
1514.248 6.868 6.698 6.448 6.298 6.088 5.778 5.588 5.408 5.158 4.798
1533.538 4.308 3.688 3.138 2.708 2.318 1.998 1.778 1.668 1.678 1.728
1552.827 1.788 1.938 2.128 2.448 2.678 2.948 3.458 3.988 4.558 5.208
1572.117 5.838 6.428 6.998 7.378 7.588 7.778 7.878 7.828 7.748 7.658
1591.407 7.458 7.148 6.768 6.198 5.388 4.558 3.768 3.028 2.478 2.058
1610.697 1.668 1.428 1.328 1.278 1.1753 1.0692 1.0062 0.9513 0.881 0.8556
1629.986 0.8212 0.7507 0.7562 0.7897 0.7653 0.7371 0.7078 0.7066 0.7329 0.7444
1649.276 0.6913 0.734 0.8733 0.8328 0.7825 0.7778 0.7531 0.7713 0.8157 0.865
1668.566 0.9471 0.9558 0.9493 1.0211 1.0109 1.0031 1.0539 1.1184 1.1455 1.0802
1687.856 1.0223 1.0248 1.0785 1.178 1.278 1.258 1.298 1.308 1.298 1.388
1707.146 1.388 1.438 1.598 1.788 1.958 2.158 2.358 2.448 2.638 2.918
1726.435 3.138 3.378 3.708 4.148 4.648 5.078 5.578 6.278 7.158 8.218
1745.725 9.418 10.798 12.358 13.998 15.598 17.258 18.998 20.608 22.058 23.208
1765.015 23.968 24.388 24.438 24.138 23.618 22.948 21.978 20.758 19.458 17.798
1784.305 15.658 13.188 10.668 8.408 6.598 5.168 4.128 3.378 2.858 2.508
1803.594 2.158 1.948 1.768 1.598 1.498 1.368 1.228 1.135 1.0884 1.0305
1822.884 0.9647 0.9189 0.8859 0.8471 0.8315 0.8138 0.7804 0.7264 0.6315 0.6044
1842.174 0.6219 0.6257 0.6037 0.5725 0.5493 0.5064 0.5345 0.5215 0.5092 0.5368
1861.464 0.5137 0.495 0.4644 0.4888 0.5152 0.4943 0.4961 0.4626 0.434 0.4595
1880.754 0.4931 0.5254 0.5126 0.4916 0.5051 0.5147 0.5041 0.4878 0.4711 0.4815
1900.043 0.5061 0.5156 0.4848 0.416 0.412 0.4358 0.4491 0.4246 0.4087 0.4741
1919.333 0.4764 0.476 0.4776 0.4108 0.3918 0.3617 0.3483 0.3719 0.3623 0.3647
1938.623 0.3593 0.351 0.3836 0.4072 0.4006 0.4108 0.3627 0.3229 0.3888 0.4081
1957.913 0.3459 0.3508 0.3768 0.3908 0.4223 0.4201 0.4326 0.4344 0.4133 0.3877
1977.202 0.4053 0.4164 0.4084 0.4315 0.4044 0.3602 0.3846 0.4584 0.4616 0.4422
1996.492 0.4165 0.3848 0.4156 0.3891 0.3641 0.3683 0.3772 0.3921 0.3524 0.3589
2015.782 0.3616 0.3314 0.3349 0.3407 0.3093 0.3113 0.3282 0.3201 0.3445 0.3369
2035.072 0.2796 0.2968 0.311 0.3227 0.3398 0.2866 0.3065 0.3458 0.3349 0.2995
2054.362 0.2877 0.334 0.3536 0.3657 0.3621 0.3291 0.3468 0.3583 0.3487 0.3493
2073.651 0.3633 0.3764 0.3904 0.3793 0.347 0.351 0.4154 0.4117 0.3601 0.3534
2092.941 0.3468 0.3267 0.3551 0.4009 0.4136 0.3872 0.3494 0.411 0.4556 0.3745
2112.231 0.3597 0.3838 0.3576 0.3638 0.3791 0.3975 0.3893 0.3577 0.3396 0.3755
2131.521 0.3274 0.2872 0.3254 0.3229 0.3392 0.3676 0.3672 0.3532 0.3779 0.4058
2150.810 0.4038 0.3744 0.3397 0.3982 0.3811 0.3194 0.3409 0.3159 0.2983 0.3107
2170.100 0.3432 0.3617 0.3285 0.287 0.2625 0.26178 0.3002 0.3121 0.3112 0.3243
2189.390 0.26741 0.24187 0.2972 0.3029 0.2495 0.26823 0.3561 0.3619 0.3349 0.3308
2208.680 0.3126 0.3094 0.346 0.3765 0.3617 0.3031 0.26541 0.27267 0.3176 0.3283
2227.970 0.3368 0.3794 0.3724 0.3524 0.3791 0.4247 0.4079 0.3448 0.3214 0.3395
2247.259 0.3403 0.3311 0.3524 0.3559 0.2991 0.3056 0.3612 0.3916 0.365 0.3606
2266.549 0.3493 0.3454 0.3989 0.4136 0.3878 0.3911 0.3854 0.3401 0.3136 0.308
2285.839 0.3368 0.3232 0.3233 0.3682 0.405 0.4231 0.4317 0.4688 0.4877 0.4252
2305.129 0.4109 0.4015 0.3766 0.4075 0.4483 0.4189 0.312 0.3237 0.3927 0.3618
2324.418 0.3361 0.3795 0.3772 0.3679 0.3777 0.3232 0.3303 0.4038 0.3701 0.3429
2343.708 0.397 0.422 0.3884 0.3796 0.4159 0.3509 0.3372 0.405 0.3819 0.3692
2362.998 0.3958 0.4129 0.3904 0.3862 0.378 0.3682 0.3805 0.3634 0.3838 0.3929
2382.288 0.3285 0.2803 0.27774 0.2832 0.2833 0.3111 0.3469 0.3411 0.3461 0.3619
2401.578 0.3479 0.3307 0.3343 0.3101 0.3086 0.3451 0.3291 0.3181 0.3288 0.3318
2420.867 0.3179 0.3002 0.2867 0.3024 0.3815 0.4028 0.3422 0.3362 0.3359 0.2958
2440.157 0.24027 0.2988 0.3597 0.3055 0.27004 0.2924 0.3313 0.3133 0.2727 0.26291
2459.447 0.3019 0.3679 0.4147 0.4268 0.3922 0.3399 0.3053 0.3416 0.432 0.4026
2478.737 0.3442 0.346 0.3542 0.4082 0.4491 0.4265 0.361 0.3121 0.3494 0.3428
2498.026 0.3327 0.3374 0.3271 0.3386 0.3127 0.3249 0.3139 0.27298 0.327 0.3951
2517.316 0.3466 0.3258 0.3117 0.3352 0.4238 0.4064 0.4098 0.4103 0.375 0.3515
2536.606 0.3322 0.2869 0.3267 0.3252 0.3368 0.3777 0.3198 0.3133 0.27407 0.27413
2555.896 0.3002 0.3079 0.337 0.3227 0.3062 0.2917 0.27588 0.2965 0.3341 0.3399
2575.186 0.3147 0.3163 0.3283 0.3126 0.322 0.3581 0.3485 0.3284 0.3689 0.3624
2594.475 0.3422 0.3794 0.3567 0.316 0.3181 0.3264 0.3387 0.3295 0.2616 0.364
2613.765 0.4456 0.3113 0.296 0.4419 0.4583 0.3992 0.4518 0.3791 0.3157 0.3853
2633.055 0.3716 0.3517 0.3864 0.3416 0.3957 0.4387 0.435 0.4855 0.4538 0.4512
2652.345 0.4114 0.3916 0.379 0.27629 0.2814 0.354 0.3648 0.4168 0.4068 0.2875
2671.634 0.2912 0.3451 0.4169 0.4205 0.4189 0.4157 0.3536 0.4456 0.4683 0.383
2690.924 0.3602 0.3223 0.3048 0.3056 0.3626 0.4439 0.363 0.3294 0.385 0.3414
2710.214 0.3268 0.3353 0.3641 0.4243 0.425 0.3998 0.4135 0.4429 0.4578 0.384
2729.504 0.3122 0.4122 0.4226 0.315 0.3121 0.3267 0.3518 0.3784 0.3463 0.4018
2748.794 0.4572 0.3383 0.3447 0.4184 0.429 0.4057 0.3734 0.4402 0.483 0.5166
2768.083 0.4599 0.4045 0.3663 0.3591 0.4722 0.4262 0.3767 0.4415 0.4143 0.3709
2787.373 0.391 0.4387 0.4408 0.4212 0.4221 0.4908 0.4865 0.4269 0.4724 0.4603
2806.663 0.4598 0.4845 0.4185 0.3956 0.4229 0.4471 0.4708 0.4614 0.4198 0.4461
2825.953 0.4273 0.4363 0.5565 0.5317 0.4958 0.584 0.6392 0.6275 0.6268 0.7175
2845.242 0.8021 0.6795 0.6214 0.7094 0.6919 0.7804 0.8615 0.8829 0.8999 0.925
2864.532 0.888 0.9219 1.0104 1.0416 1.1339 1.0735 1.026 1.1097 1.1573 1.0953
2883.822 1.057 1.0573 1.0393 1.0564 1.1099 1.0656 0.9794 0.9663 1.0291 1.1298
2903.112 1.0978 1.1696 1.188 1.064 1.198 1.418 1.538 1.638 1.848 1.938
2922.401 1.988 2.138 2.188 2.208 2.278 2.388 2.398 2.398 2.478 2.498
2941.691 2.488 2.518 2.478 2.198 2.058 1.948 1.798 1.828 1.868 1.888
2960.981 1.838 1.718 1.578 1.508 1.518 1.398 1.298 1.348 1.308 1.238
2980.271 1.228 1.248 1.218 1.288 1.428 1.318 1.188 1.198 1.125 1.0573
2999.561 1.1084 1.208 1.248 1.258 1.298 1.208 1.1167 1.1139 1.1251 1.1265
3018.850 1.0129 0.9272 0.97 1.0342 1.045 1.0839 1.034 0.9388 0.9672 0.9159
3038.140 0.8477 0.7878 0.7062 0.7383 0.7026 0.6988 0.7203 0.7305 0.7693 0.7652
3057.430 0.7254 0.7228 0.7525 0.7469 0.6734 0.5995 0.6961 0.6969 0.7136 0.7177
3076.720 0.6275 0.6889 0.7142 0.6892 0.7671 0.7532 0.68 0.7034 0.673 0.6127
3096.009 0.5672 0.4768 0.4679 0.5219 0.516 0.416 0.3112 0.25831 0.3358 0.4509
3115.299 0.3846 0.3665 0.4479 0.5033 0.4752 0.5132 0.4562 0.3227 0.27709 0.3262
3134.589 0.3289 0.3144 0.3898 0.4615 0.4879 0.3698 0.3515 0.3598 0.26921 0.2787
3153.879 0.368 0.3383 0.25325 0.23449 0.3042 0.2819 0.24179 0.2791 0.24558 0.2754
3173.169 0.24292 0.20647 0.3194 0.3746 0.3224 0.2789 0.25036 0.22257 0.1007 0.059
3192.458 0.17239 0.22445 0.1453 0.061 0.1234 0.18881 0.3579 0.3133 0.18973 0.17277
3211.748 0.1294 0.180623 0.16817 0.17026 0.17428 0.23205 0.2829 0.283 0.2953 0.20024
3231.038 0.1323 0.22781 0.22253 0.1417 0.138 0.17598 0.19338 0.1356 0.21105 0.3154
3250.328 0.3958 0.4036 0.23399 0.19324 0.3459 0.3499 0.22913 0.17137 0.22314 0.25812
3269.617 0.23187 0.1398 0.069 0.0979 0.17921 0.27753 0.2882 0.25173 0.19353 0.20526
3288.907 0.187488 0.178722 0.2871 0.23454 0.18946 0.2861 0.35 0.3339 0.3064 0.23671
3308.197 0.063 0 0.1434 0.184821 0.184126 0.22468 0.187596 0.187939 0.19233 0.27551
3327.487 0.2862 0.2999 0.361 0.27014 0.2373 0.26432 0.2448 0.22871 0.3029 0.3649
3346.777 0.27036 0.3031 0.2971 0.19647 0.151 0.058 0.047 0.1104 0.21121 0.1223
3366.066 0.1346 0.27293 0.21779 0.0892 0.0975 0.23467 0.2598 0.2782 0.22185 0.20317
3385.356 0.25785 0.23775 0.3582 0.399 0.2953 0.28 0.3867 0.26518 0.1286 0.24305
3404.646 0.178701 0.1076 0.17414 0.20867 0.2279 0.3554 0.3982 0.317 0.18243 0.17108
3423.936 0.19551 0.1624 0.1584 0.22681 0.3865 0.3745 0.3432 0.3045 0.2985 0.3014
3443.225 0.3923 0.546 0.5292 0.6012 0.6077 0.5948 0.7428 0.9748 1.1476 1.198
3462.515 1.378 1.548 1.738 1.868 2.058 2.368 2.558 2.838 3.128 3.388
3481.805 3.548 3.698 3.928 4.078 4.218 4.378 4.508 4.738 4.958 5.018
3501.095 5.048 5.038 4.998 4.948 4.808 4.488 4.208 3.978 3.708 3.628
3520.385 3.558 3.288 3.098 2.978 2.698 2.478 2.218 1.838 1.578 1.338
3539.674 1.1229 1.0902 1.0669 0.949 0.9473 0.9416 0.772 0.7318 0.7007 0.5406
3558.964 0.4316 0.428 0.492 0.6528 0.6658 0.5935 0.5429 0.4395 0.4236 0.4879
3578.254 0.4975 0.4019 0.3151 0.24013 0.2893 0.4434 0.4955 0.4927 0.5489 0.6889
3597.544 0.7226 0.6309 0.6705 0.8479 0.958 1.156 1.598 2.048 2.488 3.068
3616.833 3.538 3.758 3.758 3.508 3.328 3.448 3.768 3.728 3.608 3.828
3636.123 3.978 3.858 3.388 2.688 2.118 1.818 1.638 1.378 1.1031 0.9126
3655.413 1.0103 1.0004 0.8021 0.8351 0.8884 0.7876 0.7645 0.8395 0.7487 0.6732
3674.703 0.7009 0.5951 0.6257 0.6461 0.5815 0.5413 0.544 0.5331 0.4617 0.3671
3693.993 0.3331 0.4603 0.3947 0.25873 0.2584 0.3882 0.4254 0.3397 0.3559 0.4333
3713.282 0.4402 0.4018 0.2939 0.3156 0.5187 0.4992 0.4269 0.3762 0.3077 0.4177
3732.572 0.4236 0.3496 0.441 0.3719 0.23503 0.3726 0.6105 0.5247 0.4104 0.3549
3751.862 0.3117 0.3152 0.2485 0.24681 0.27304 0.25498 0.21955 0.26839 0.3317 0.2929
3771.152 0.24662 0.20707 0.1116 0.180904 0.26514 0.2709 0.3627 0.3255 0.1675 0.18978
3790.441 0.3267 0.26643 0.26047 0.3861 0.3819 0.4291 0.3547 0.20204 0.187854 0.2787
3809.731 0.3141 0.4273 0.4408 0.2433 0.20047 0.20298 0.26888 0.1639 0.20467 0.337
3829.021 0.27609 0.3346 0.3075 0.27559 0.3291 0.3238 0.3211 0.3191 0.3301 0.3525
3848.311 0.4048 0.4341 0.5255 0.5461 0.5055 0.4964 0.3006 0.20198 0.2344 0.3307
3867.601 0.3564 0.24259 0.187459 0.26675 0.26454 0.1274 0.1062 0.22795 0.24941 0.3893
3886.890 0.4441 0.22959 0.3029 0.3734 0.3646 0.4222 0.4319 0.3131 0.23975 0.3396
3906.180 0.3834 0.3408 0.3547 0.21409 0.016 0.0867 0.21045 0.2943 0.27709 0.2908
3925.470 0.3602 0.3235 0.2793 0.21197 0.21846 0.3395 0.3008 0.20302 0.25056 0.25746
3944.760 0.21469 0.18822 0.3994 0.6058 0.3906 0.16913 0.19025 0.3664 0.5635 0.5475
3964.049 0.3838 0.27606 0.21847 0.25568 0.17532 0.23865 0.286 0.25958 0.4005 0.27683
3983.339 0.1667 0.22269 0.187852 0.177648 0.3147 0.3956 0.3757 0.4319 0.3124 0.22931
##END=
