##TITLE=2-Amino-4-methylpyrimidine
##JCAMP-DX=4.24
##DATA TYPE=INFRARED SPECTRUM
##ORIGIN=NIST Mass Spectrometry Data Center
##OWNER=NIST Standard Reference Data Program
Collection (C) 2018 copyright by the U.S. Secretary of Commerce
on behalf of the United States of America. All rights reserved.
##CAS REGISTRY NO=108-52-1
##MOLFORM=C 5 H 7 N 3
##$NIST SOURCE=MSDC-IR
##SPECTROMETER/DATA SYSTEM=HP-GC/MS/IRD
##STATE=gas
##XUNITS=1/CM
##YUNITS=ABSORBANCE
##XFACTOR=1.0
##YFACTOR=0.000002000
##DELTAX=4.0
##FIRSTX=550.0
##LASTX=3846.0
##FIRSTY=0.000440
##MAXX=3846
##MINX=550
##MAXY=0.02
##MINY=0
##NPOINTS=825
##XYDATA=(X++(Y..Y))
550.0 220 317 159 112 98 110 136 157 146 166
590.0 183 172 154 132 128 113 121 137 125 112
630.0 107 93 84 86 93 103 118 140 154 158
670.0 169 182 200 241 283 311 364 436 492 533
710.0 572 592 590 563 530 515 504 520 540 558
750.0 572 576 583 594 567 550 579 625 690 782
790.0 881 992 1170 1397 1336 1105 992 882 750 613
830.0 506 425 372 341 319 296 266 243 234 221
870.0 200 190 175 165 169 167 168 171 174 175
910.0 173 173 174 186 192 194 186 169 159 154
950.0 134 111 99 99 112 121 130 134 132 140
990.0 151 150 148 146 137 123 110 94 72 67
1030.0 66 67 66 68 82 77 77 76 84 92
1070.0 88 82 74 54 28 29 24 7 2 5
1110.0 5 8 8 4 17 27 32 34 36 40
1150.0 42 42 41 44 52 74 101 143 207 270
1190.0 337 392 417 415 403 385 332 253 192 163
1230.0 156 159 168 195 245 286 309 314 310 296
1270.0 270 227 169 121 96 82 69 60 61 64
1310.0 62 63 74 100 127 146 155 169 182 192
1350.0 191 188 208 258 328 386 426 451 464 470
1390.0 440 408 443 562 781 1133 1649 2330 3035 3619
1430.0 4082 4458 4764 4861 4649 4195 3697 3315 2994 2657
1470.0 2180 1496 977 724 636 608 607 622 655 689
1510.0 726 767 810 868 937 1027 1152 1319 1542 1811
1550.0 2144 2542 3045 3703 4485 5359 6137 6857 7656 8595
1590.0 9483 10000 9915 9365 8608 7673 6440 4845 3310 2184
1630.0 1479 1072 817 653 544 471 412 357 311 261
1670.0 214 185 155 118 98 86 74 64 59 51
1710.0 45 37 29 30 32 36 40 43 37 33
1750.0 35 36 35 34 34 33 29 29 28 22
1790.0 20 17 13 15 16 12 7 8 6 6
1830.0 8 5 1 0 0 0 3 5 15 25
1870.0 25 24 25 25 27 27 25 26 22 19
1910.0 21 30 34 31 36 37 37 43 43 39
1950.0 40 39 34 28 18 12 12 13 9 8
1990.0 10 7 3 10 19 22 16 18 20 22
2030.0 20 18 14 13 17 21 25 23 17 15
2070.0 16 15 14 17 13 12 15 14 13 14
2110.0 14 23 31 33 33 35 38 40 39 35
2150.0 30 26 26 24 20 22 29 39 41 37
2190.0 38 42 43 43 39 33 24 17 17 12
2230.0 3 0 0 1 2 8 8 10 12 11
2270.0 13 10 10 14 14 12 10 8 7 9
2310.0 14 24 25 26 30 29 33 34 30 26
2350.0 31 38 37 36 40 41 33 30 28 22
2390.0 15 14 18 14 9 8 10 11 8 3
2430.0 3 6 7 7 8 6 9 11 11 10
2470.0 11 13 10 5 11 15 15 17 20 20
2510.0 20 23 28 23 16 21 25 27 28 26
2550.0 26 23 24 23 23 18 12 10 13 16
2590.0 12 12 12 9 9 4 2 12 20 26
2630.0 27 31 30 27 26 23 25 29 28 27
2670.0 23 14 14 18 15 13 13 14 15 16
2710.0 15 5 7 17 15 7 5 12 17 16
2750.0 13 11 7 4 7 13 15 14 12 10
2790.0 9 8 6 9 13 12 17 23 29 35
2830.0 39 39 34 35 34 40 55 66 68 75
2870.0 75 65 68 67 62 70 72 81 94 106
2910.0 125 152 182 221 261 292 310 308 288 260
2950.0 230 199 171 154 147 152 151 157 187 213
2990.0 230 262 294 312 320 318 320 323 334 346
3030.0 355 358 357 367 374 379 379 360 358 358
3070.0 341 334 314 288 268 235 187 146 124 100
3110.0 84 78 72 63 60 57 55 55 57 65
3150.0 65 51 48 57 66 60 46 46 55 56
3190.0 38 31 45 36 23 27 27 20 24 23
3230.0 26 27 18 26 26 30 40 35 25 17
3270.0 23 29 23 11 14 30 30 21 30 30
3310.0 19 17 13 3 11 22 20 23 28 17
3350.0 17 32 33 34 47 48 39 46 58 73
3390.0 83 90 112 140 178 225 285 352 431 530
3430.0 640 762 843 890 915 908 859 748 613 496
3470.0 396 295 211 178 160 139 136 153 168 175
3510.0 202 237 272 300 317 346 380 432 466 470
3550.0 500 542 559 562 532 505 459 389 331 278
3590.0 237 196 164 144 116 93 83 84 87 72
3630.0 73 75 57 53 59 57 52 55 58 62
3670.0 62 61 56 57 58 55 56 59 59 55
3710.0 53 51 47 44 39 49 56 50 56 65
3750.0 73 67 60 62 60 61 55 35 27 44
3790.0 59 60 57 60 61 60 46 40 48 60
3830.0 67 58 55 50 43
##END=
