##TITLE=1-Methoxy-2-propyl acetate
##JCAMP-DX=4.24
##DATA TYPE=INFRARED SPECTRUM
##ORIGIN=EPA-IR VAPOR PHASE LIBRARY
##OWNER=SRD/NIST
Collection (C) 2018 copyright by the U.S. Secretary of Commerce
on behalf of the United States of America. All rights reserved.
##CAS REGISTRY NO=108-65-6
##MOLFORM=C 6 H 12 O 3
##$NIST SOURCE=MSDC-IR
##STATE=gas
##XUNITS=1/CM
##YUNITS=ABSORBANCE
##XFACTOR=1.
##YFACTOR=0.001
##DELTAX=1.92898
##FIRSTX=549.8
##LASTX=4000.7
##FIRSTY=0.4076
##MAXX=4000.7
##MINX=549.759
##MAXY=0.124512
##MINY=0
##NPOINTS=1790
##XYDATA=(X++(Y..Y))
549.759 0.4076 0.0974 0.0525 0.094 0.2665 0.4812 0.3054 0.3503 0.5248 0.6118
569.049 0.6624 0.589 0.4556 0.1346 0.4047 0.7662 0.5881 0.6458 0.5796 0.4751
588.339 0.6068 1.0517 1.482 1.462 1.632 1.932 2.212 2.542 2.832 3.032
607.628 3.062 3.072 3.082 2.882 2.672 2.572 2.472 2.382 2.192 2.092
626.918 2.152 2.192 2.072 1.972 1.872 1.882 2.062 2.082 2.002 1.932
646.208 1.642 1.482 1.572 1.532 1.212 1.0448 0.9958 0.6752 0.6508 0.7689
665.498 0.6522 0.5527 0.6419 0.5463 0.4477 0.5383 0.5214 0.443 0.3669 0.3229
684.787 0.36 0.3027 0.3203 0.4189 0.39 0.3557 0.2771 0.0985 0.10751 0.13476
704.077 0.14251 0.19405 0.19451 0.18628 0.227 0.2472 0.2537 0.3151 0.303 0.4403
723.367 0.3857 0.16541 0.13373 0.2584 0.2253 0.15401 0.18828 0.392 0.5731 0.4962
742.657 0.3869 0.4203 0.4738 0.299 0.1916 0.2828 0.2432 0.3009 0.3152 0.2955
761.947 0.2873 0.2676 0.4634 0.3832 0.3817 0.5819 0.6766 0.6573 0.563 0.6433
781.236 0.7512 0.6947 0.5635 0.6136 0.6696 0.7876 0.9178 0.9172 1.0164 0.9287
800.526 0.9131 1.162 1.162 1.192 1.352 1.332 1.442 1.662 1.862 2.052
819.816 2.362 2.492 2.442 2.572 2.702 2.712 2.742 2.712 2.452 2.412
839.106 2.582 2.432 2.312 2.312 2.292 2.222 2.082 1.962 2.042 2.042
858.395 1.942 1.972 2.042 2.132 2.132 2.172 2.292 2.482 2.652 2.682
877.685 2.772 2.992 3.212 3.352 3.522 3.392 3.282 3.492 3.372 3.272
896.975 3.342 3.522 3.662 3.612 3.412 3.412 3.622 3.522 3.502 3.692
916.265 3.792 4.002 4.242 4.262 4.442 4.522 4.712 5.072 5.222 5.472
935.555 5.902 6.332 6.562 6.872 7.322 7.602 7.932 8.312 8.572 8.942
954.844 9.272 9.492 9.662 9.702 9.652 9.632 9.452 9.292 9.252 8.892
974.134 8.382 8.242 8.212 7.992 7.812 7.882 8.172 8.212 8.152 8.382
993.424 8.802 9.222 9.972 10.682 11.232 11.942 12.472 13.252 14.222 14.762
1012.714 14.942 14.962 14.902 14.812 14.682 14.252 13.292 12.192 11.452 10.872
1032.003 10.342 10.032 9.742 9.542 9.482 9.872 10.582 10.912 11.472 12.292
1051.293 13.102 14.112 15.442 17.032 18.892 20.862 22.412 23.662 25.412 27.122
1070.583 28.062 28.642 28.752 28.762 28.912 29.012 28.822 28.742 29.242 29.542
1089.873 29.902 30.952 31.852 32.852 34.142 35.222 36.812 38.352 39.502 40.812
1109.163 41.882 42.912 44.162 44.862 44.832 44.422 43.812 42.982 41.382 39.472
1128.452 37.472 35.142 32.272 29.152 26.462 24.252 22.572 21.302 20.032 19.222
1147.742 19.232 19.482 19.392 19.342 19.382 19.362 19.172 18.692 18.382 17.802
1167.032 17.172 16.482 15.752 15.002 14.212 13.822 13.532 13.242 13.252 13.422
1186.322 13.962 14.832 15.522 16.612 17.982 19.072 20.432 22.142 23.792 25.272
1205.611 27.202 29.352 31.592 34.262 37.812 42.242 47.902 54.902 62.992 72.292
1224.901 82.432 93.012 102.902 111.542 118.282 122.632 124.512 123.702 120.312 114.592
1244.191 106.352 96.162 84.522 72.132 60.512 50.642 42.732 36.572 31.712 27.812
1263.481 24.802 22.322 20.112 18.282 16.752 15.432 14.242 13.172 12.162 11.212
1282.771 10.572 9.862 9.132 8.642 8.092 7.652 7.202 6.662 6.262 5.972
1302.060 5.672 5.382 5.182 4.982 4.752 4.562 4.372 4.242 4.132 4.042
1321.350 3.922 3.882 3.852 3.762 3.782 3.812 3.842 3.952 4.172 4.432
1340.640 4.762 5.152 5.652 6.262 6.932 7.702 8.582 9.722 11.162 12.832
1359.930 14.832 17.122 19.512 21.842 23.942 25.692 27.022 27.892 28.282 28.082
1379.219 27.352 25.992 24.112 22.032 19.802 17.652 15.762 14.062 12.602 11.312
1398.509 10.092 8.982 7.972 7.102 6.382 5.742 5.222 4.802 4.512 4.302
1417.799 4.172 4.132 4.122 4.092 4.172 4.282 4.432 4.602 4.782 4.982
1437.089 5.272 5.602 5.902 6.252 6.622 7.032 7.472 7.842 8.162 8.402
1456.378 8.552 8.662 8.722 8.662 8.402 8.082 7.772 7.382 6.972 6.492
1475.668 5.952 5.452 5.042 4.622 4.252 3.972 3.702 3.442 3.242 3.092
1494.958 2.962 2.792 2.642 2.562 2.452 2.392 2.402 2.362 2.312 2.282
1514.248 2.272 2.232 2.232 2.172 2.152 2.232 2.222 2.202 2.172 2.152
1533.538 2.132 2.092 2.092 2.012 2.002 2.032 1.952 1.922 1.962 2.012
1552.827 2.042 1.942 1.792 1.762 1.852 1.892 1.822 1.812 1.792 1.772
1572.117 1.752 1.682 1.622 1.642 1.702 1.702 1.622 1.602 1.632 1.612
1591.407 1.622 1.662 1.662 1.562 1.472 1.502 1.522 1.512 1.542 1.542
1610.697 1.442 1.402 1.432 1.372 1.342 1.322 1.252 1.192 1.162 1.142
1629.986 1.262 1.352 1.282 1.262 1.232 1.272 1.392 1.462 1.442 1.412
1649.276 1.462 1.472 1.442 1.572 1.672 1.642 1.582 1.592 1.682 1.782
1668.566 1.802 1.772 1.792 1.852 1.992 2.122 2.182 2.222 2.312 2.392
1687.856 2.492 2.622 2.762 2.932 3.082 3.292 3.572 3.892 4.162 4.462
1707.146 4.802 5.172 5.642 6.062 6.512 7.032 7.572 8.162 8.892 9.692
1726.435 10.682 11.902 13.382 15.262 17.732 20.752 24.372 28.802 33.852 39.632
1745.725 45.692 51.792 57.612 63.192 68.102 71.992 74.732 75.922 74.652 70.582
1765.015 64.832 58.482 52.062 45.782 39.322 33.262 27.792 22.972 18.992 15.752
1784.305 13.162 11.152 9.692 8.572 7.652 6.942 6.442 5.972 5.512 5.162
1803.594 4.842 4.562 4.332 4.082 3.782 3.522 3.312 3.132 2.962 2.822
1822.884 2.742 2.622 2.512 2.402 2.282 2.232 2.152 2.022 1.932 1.882
1842.174 1.832 1.752 1.712 1.692 1.692 1.622 1.542 1.492 1.442 1.412
1861.464 1.362 1.282 1.202 1.212 1.192 1.152 1.152 1.152 1.142 1.0782
1880.754 1.1077 1.122 1.0864 1.0991 1.0751 1.0291 1.0279 1.0076 0.996 0.9857
1900.043 0.9564 0.9684 0.9461 0.9159 0.9688 0.9792 0.9177 0.9166 0.934 0.9104
1919.333 0.8708 0.8087 0.7949 0.8175 0.7998 0.7694 0.7885 0.8015 0.7355 0.7096
1938.623 0.7371 0.7582 0.7529 0.7162 0.6348 0.646 0.6859 0.6324 0.6458 0.6387
1957.913 0.6364 0.6529 0.6263 0.6024 0.5748 0.5815 0.6286 0.6084 0.57 0.5872
1977.202 0.612 0.6372 0.6036 0.6073 0.597 0.5962 0.6505 0.6668 0.7073 0.6765
1996.492 0.7072 0.7692 0.7512 0.7287 0.7297 0.7818 0.8252 0.8715 0.8859 0.8996
2015.782 0.9266 0.9176 0.8997 0.9027 0.8882 0.8644 0.877 0.8965 0.9402 0.9667
2035.072 0.9861 0.9825 0.9533 1.0113 1.0872 1.0983 1.142 1.172 1.172 1.222
2054.362 1.272 1.312 1.352 1.362 1.322 1.282 1.332 1.352 1.332 1.342
2073.651 1.342 1.342 1.292 1.232 1.222 1.172 1.152 1.182 1.152 1.0908
2092.941 1.122 1.152 1.1073 1.0662 1.0475 1.0435 0.999 0.9772 0.9639 0.9307
2112.231 1.0133 1.0292 0.924 0.9068 0.8961 0.8732 0.8612 0.8442 0.8173 0.8101
2131.521 0.8243 0.8076 0.7734 0.7238 0.7102 0.6703 0.6471 0.6135 0.5695 0.6091
2150.810 0.5896 0.5634 0.594 0.6531 0.6824 0.6302 0.5981 0.5816 0.5866 0.5631
2170.100 0.541 0.5894 0.5949 0.5203 0.5545 0.6355 0.5561 0.5139 0.54 0.5242
2189.390 0.4685 0.4608 0.5106 0.5231 0.5146 0.5269 0.5249 0.4555 0.5073 0.5896
2208.680 0.5535 0.4719 0.4439 0.4751 0.4625 0.4711 0.4924 0.4895 0.4181 0.4623
2227.970 0.5183 0.5464 0.5939 0.4756 0.4537 0.5627 0.5318 0.4689 0.5262 0.585
2247.259 0.5812 0.5481 0.5883 0.5734 0.5508 0.5543 0.5114 0.5554 0.5578 0.5304
2266.549 0.4731 0.4607 0.4606 0.4109 0.4079 0.3892 0.4323 0.4962 0.4809 0.4899
2285.839 0.5001 0.4784 0.4503 0.4336 0.4201 0.433 0.4761 0.4654 0.4551 0.4791
2305.129 0.523 0.5121 0.4884 0.5214 0.5002 0.4736 0.508 0.544 0.5232 0.5567
2324.418 0.635 0.6129 0.4954 0.4201 0.4617 0.519 0.5366 0.4963 0.4514 0.4175
2343.708 0.4616 0.5334 0.5322 0.4389 0.3683 0.3032 0.3151 0.4167 0.4416 0.4215
2362.998 0.3977 0.427 0.4252 0.3682 0.4198 0.4675 0.4468 0.4559 0.42 0.4007
2382.288 0.4206 0.4417 0.498 0.523 0.517 0.5339 0.5138 0.5009 0.4666 0.5093
2401.578 0.5123 0.4451 0.4334 0.419 0.5226 0.5078 0.4221 0.45 0.4447 0.4768
2420.867 0.4968 0.4402 0.3962 0.3808 0.4152 0.43 0.438 0.4899 0.5254 0.464
2440.157 0.4108 0.4932 0.5889 0.5882 0.5738 0.5621 0.5414 0.6077 0.6169 0.5719
2459.447 0.6138 0.5918 0.5536 0.6112 0.5951 0.5341 0.5763 0.6234 0.6294 0.6098
2478.737 0.5794 0.5454 0.5163 0.5374 0.5125 0.5035 0.512 0.5115 0.4543 0.3595
2498.026 0.4417 0.47 0.3838 0.3524 0.3725 0.425 0.4361 0.4747 0.5101 0.503
2517.316 0.4504 0.4149 0.3826 0.3155 0.2969 0.358 0.3798 0.3659 0.4415 0.4359
2536.606 0.3623 0.3839 0.3891 0.3677 0.3641 0.3455 0.3667 0.3315 0.3286 0.4065
2555.896 0.3925 0.3687 0.4179 0.4304 0.386 0.4107 0.5055 0.5241 0.4636 0.4682
2575.186 0.507 0.5327 0.5269 0.5391 0.5996 0.6125 0.5902 0.5907 0.5933 0.6074
2594.475 0.6509 0.7018 0.7148 0.7181 0.7205 0.666 0.6516 0.6411 0.6725 0.6644
2613.765 0.6009 0.6154 0.6011 0.6971 0.693 0.6295 0.6508 0.5951 0.5875 0.581
2633.055 0.5677 0.5553 0.5751 0.6171 0.6355 0.6424 0.7222 0.7128 0.6199 0.6511
2652.345 0.6664 0.6444 0.662 0.7163 0.6992 0.6316 0.6844 0.7118 0.6789 0.6327
2671.634 0.6086 0.6397 0.6856 0.697 0.6608 0.667 0.6967 0.6693 0.7206 0.8213
2690.924 0.7893 0.7709 0.8166 0.8363 0.8647 0.9741 0.987 0.8937 0.8769 0.918
2710.214 0.9643 1.0068 1.142 1.152 1.112 1.172 1.202 1.312 1.382 1.382
2729.504 1.432 1.492 1.552 1.642 1.712 1.732 1.772 1.902 1.992 2.002
2748.794 2.032 2.072 2.092 2.162 2.142 2.162 2.332 2.352 2.272 2.322
2768.083 2.312 2.202 2.262 2.332 2.422 2.552 2.532 2.532 2.642 2.692
2787.373 2.762 2.792 2.892 3.112 3.412 3.672 3.892 4.242 4.632 5.062
2806.663 5.562 6.172 6.942 7.752 8.552 9.252 9.842 10.422 11.022 11.552
2825.953 11.932 12.202 12.392 12.502 12.462 12.452 12.442 12.272 12.042 12.012
2845.242 11.882 11.682 11.612 11.452 11.422 11.422 11.422 11.552 11.812 12.142
2864.532 12.552 12.982 13.322 13.682 14.212 14.802 15.332 15.862 16.302 16.682
2883.822 17.012 17.222 17.472 17.582 17.542 17.592 17.602 17.362 17.052 16.882
2903.112 16.682 16.492 16.362 16.102 15.832 15.782 15.722 15.732 15.972 16.252
2922.401 16.572 17.102 17.722 18.412 19.102 19.592 20.002 20.412 20.622 20.572
2941.691 20.452 20.202 19.732 19.142 18.562 17.792 16.902 16.022 15.302 14.682
2960.981 14.062 13.662 13.472 13.442 13.592 13.912 14.392 14.982 15.772 16.852
2980.271 18.052 19.192 20.102 20.812 21.372 21.622 21.372 20.732 19.792 18.602
2999.561 17.272 15.772 14.152 12.482 10.872 9.322 8.012 6.972 6.162 5.552
3018.850 5.042 4.672 4.292 4.062 3.852 3.612 3.542 3.472 3.272 3.202
3038.140 3.242 3.172 3.052 2.922 2.802 2.762 2.732 2.612 2.592 2.582
3057.430 2.442 2.372 2.282 2.282 2.422 2.452 2.372 2.262 2.292 2.312
3076.720 2.222 2.142 2.112 2.052 1.922 1.852 1.842 1.792 1.752 1.622
3096.009 1.642 1.712 1.552 1.422 1.322 1.432 1.442 1.382 1.452 1.342
3115.299 1.0994 1.152 1.272 1.262 1.252 1.152 1.0144 0.9945 1.122 1.1061
3134.589 1.122 1.064 0.9534 0.8539 0.7622 0.8491 0.9035 0.8488 0.7332 0.6478
3153.879 0.6698 0.7658 0.8143 0.8105 0.7183 0.646 0.667 0.7255 0.6593 0.5403
3173.169 0.5708 0.6188 0.6348 0.553 0.5605 0.5718 0.6001 0.6541 0.6221 0.5192
3192.458 0.5116 0.5716 0.5318 0.6313 0.7434 0.5767 0.4151 0.43 0.448 0.358
3211.748 0.3809 0.4207 0.3334 0.3303 0.4403 0.4987 0.3955 0.4534 0.4272 0.3887
3231.038 0.4463 0.3581 0.2256 0.23 0.269 0.3495 0.3855 0.4615 0.5552 0.4714
3250.328 0.3903 0.4369 0.3381 0.11019 0.13811 0.2265 0.2425 0.2196 0.2615 0.2158
3269.617 0.14418 0.2543 0.2953 0.2374 0.2444 0.2451 0.2897 0.114398 0.0593 0.2896
3288.907 0.3346 0.3885 0.4085 0.3511 0.4408 0.5549 0.4638 0.3687 0.3852 0.3264
3308.197 0.2576 0.3153 0.2183 0.2401 0.2951 0.077 0 0.0761 0.16937 0.2332
3327.487 0.2235 0.2411 0.248 0.19709 0.20487 0.2904 0.3121 0.2779 0.2739 0.3198
3346.777 0.339 0.32 0.2756 0.20753 0.2747 0.2906 0.2553 0.2572 0.3145 0.3369
3366.066 0.2164 0.15431 0.10991 0.0337 0.111833 0.2818 0.3644 0.2286 0.1424 0.2155
3385.356 0.15873 0.1539 0.2851 0.3151 0.2165 0.2743 0.4357 0.4187 0.3462 0.3516
3404.646 0.4018 0.3459 0.20108 0.20148 0.2347 0.17409 0.2523 0.2958 0.2749 0.4602
3423.936 0.5259 0.4734 0.3687 0.2284 0.2294 0.21183 0.2012 0.16704 0.2129 0.2592
3443.225 0.20424 0.2802 0.3842 0.4061 0.4375 0.418 0.3833 0.4151 0.4665 0.4619
3462.515 0.3506 0.3011 0.4682 0.5676 0.5958 0.6746 0.6043 0.5949 0.724 0.7949
3481.805 0.6836 0.5489 0.6188 0.8562 0.9493 0.9465 0.9745 0.972 0.9543 0.9284
3501.095 0.9743 0.9929 0.9371 0.8395 0.7822 0.8039 0.8444 0.7685 0.7601 0.7946
3520.385 0.6801 0.5275 0.4245 0.4674 0.456 0.434 0.4396 0.2496 0.17936 0.2299
3539.674 0.1294 0.10992 0.2817 0.38 0.3849 0.4053 0.4227 0.3179 0.2329 0.3594
3558.964 0.3982 0.3399 0.3106 0.20424 0.15209 0.17185 0.18431 0.3269 0.3782 0.3271
3578.254 0.4519 0.4212 0.291 0.2653 0.25 0.19133 0.15673 0.2149 0.18515 0.2167
3597.544 0.17171 0.0898 0.17099 0.20021 0.2475 0.386 0.4362 0.4468 0.3334 0.2463
3616.833 0.3616 0.3351 0.309 0.3585 0.2639 0.2866 0.3467 0.2556 0.2385 0.2375
3636.123 0.16219 0.13475 0.11562 0.14608 0.20688 0.3209 0.3482 0.2553 0.2173 0.16507
3655.413 0.19747 0.2515 0.2174 0.14115 0.16513 0.15598 0.0949 0.15845 0.2366 0.2818
3674.703 0.2977 0.2241 0.15976 0.18757 0.21035 0.2636 0.4133 0.3927 0.3001 0.3261
3693.993 0.3922 0.4088 0.3232 0.18767 0.15847 0.13023 0.20124 0.3564 0.362 0.2411
3713.282 0.12857 0.17193 0.21196 0.14215 0.083 0.1789 0.2664 0.13422 0.16633 0.20308
3732.572 0.16357 0.2511 0.2531 0.2853 0.2644 0.10813 0.0678 0.14003 0.0624 0.0386
3751.862 0.0806 0.0723 0.1887 0.2168 0.12332 0.19674 0.2288 0.2347 0.2539 0.2717
3771.152 0.4171 0.4594 0.4211 0.3523 0.2369 0.3266 0.4214 0.4312 0.3316 0.2289
3790.441 0.21042 0.2836 0.3238 0.2923 0.33 0.2975 0.3579 0.2577 0.14235 0.2428
3809.731 0.3056 0.3709 0.5117 0.442 0.2729 0.324 0.3096 0.2937 0.264 0.14835
3829.021 0.0916 0.196 0.3797 0.367 0.3822 0.3886 0.3588 0.4739 0.4774 0.3894
3848.311 0.2758 0.3316 0.437 0.2191 0.14746 0.2819 0.3263 0.2799 0.2122 0.2513
3867.601 0.4146 0.5003 0.3831 0.3059 0.2882 0.239 0.3017 0.3538 0.3896 0.3288
3886.890 0.2958 0.3544 0.3461 0.3808 0.404 0.4322 0.387 0.3794 0.3673 0.3073
3906.180 0.3726 0.5145 0.4345 0.1917 0.0948 0.2262 0.436 0.4352 0.5045 0.4729
3925.470 0.4266 0.4966 0.3178 0.3443 0.4704 0.4905 0.4749 0.4322 0.4869 0.5495
3944.760 0.4454 0.3951 0.4487 0.3688 0.3461 0.4993 0.5411 0.3567 0.397 0.4634
3964.049 0.5062 0.5566 0.543 0.5745 0.567 0.6262 0.5218 0.4176 0.5739 0.4333
3983.339 0.2942 0.3959 0.4156 0.4484 0.3745 0.4014 0.5347 0.6465 0.6179 0.4975
##END=
