##TITLE=Thiophenol
##JCAMP-DX=4.24
##DATA TYPE=INFRARED SPECTRUM
##ORIGIN=NIST Mass Spectrometry Data Center
##OWNER=NIST Standard Reference Data Program
Collection (C) 2018 copyright by the U.S. Secretary of Commerce
on behalf of the United States of America. All rights reserved.
##CAS REGISTRY NO=108-98-5
##MOLFORM=C 6 H 6 S
##$NIST SOURCE=MSDC-IR
##SPECTROMETER/DATA SYSTEM=HP-GC/MS/IRD
##STATE=gas
##XUNITS=1/CM
##YUNITS=ABSORBANCE
##XFACTOR=1.0
##YFACTOR=0.000001000
##DELTAX=4.0
##FIRSTX=550.0
##LASTX=3846.0
##FIRSTY=0.000073
##MAXX=3846
##MINX=550
##MAXY=0.01
##MINY=0
##NPOINTS=825
##XYDATA=(X++(Y..Y))
550.0 73 152 204 247 214 218 168 30 3 62
590.0 152 151 98 147 194 200 204 190 231 241
630.0 225 264 256 287 432 610 808 1010 1315 1796
670.0 2208 2465 2657 3428 4322 4017 3836 4109 4303 4997
710.0 5741 6094 6412 6929 8191 10000 8951 6440 5464 4681
750.0 3656 2622 1740 1069 703 505 395 340 278 233
790.0 176 150 149 168 193 197 155 133 175 208
830.0 195 175 156 127 167 228 234 196 190 228
870.0 260 288 307 367 439 505 574 668 761 781
910.0 771 750 741 700 595 463 351 292 255 232
950.0 221 201 149 133 204 276 290 281 317 351
990.0 391 431 449 500 668 1013 1482 1659 1661 1648
1030.0 1514 1437 1094 681 505 472 488 510 588 702
1070.0 846 1113 1394 1597 1757 1798 1735 1630 1535 1400
1110.0 1265 1201 1154 1109 1011 779 470 303 228 186
1150.0 193 121 91 118 96 76 84 60 58 84
1190.0 91 63 58 84 86 80 42 67 102 57
1230.0 47 64 56 39 52 82 73 69 101 123
1270.0 100 113 143 173 231 267 257 258 280 285
1310.0 288 284 255 233 214 212 235 196 168 188
1350.0 193 204 239 246 234 216 174 166 169 157
1390.0 154 168 200 210 237 332 461 651 874 1085
1430.0 1338 1544 1542 1367 1346 1443 1394 1365 1671 2424
1470.0 3409 4022 4183 4164 3995 3534 2410 1330 813 595
1510.0 464 377 339 311 292 289 304 322 350 393
1550.0 488 605 744 969 1312 1756 2236 2676 2899 2871
1590.0 2620 2224 1786 1342 1001 784 633 521 424 351
1630.0 302 276 247 215 205 192 184 165 126 136
1670.0 150 145 147 164 176 168 184 217 216 215
1710.0 232 252 258 265 277 258 259 259 228 226
1750.0 225 213 219 227 250 313 358 396 432 444
1790.0 432 397 363 325 273 239 239 237 227 229
1830.0 241 248 272 308 334 343 334 352 387 410
1870.0 406 371 334 295 224 162 154 168 167 168
1910.0 212 264 308 347 365 376 402 456 477 458
1950.0 424 341 267 233 178 115 106 106 92 98
1990.0 83 65 67 63 60 66 64 70 58 43
2030.0 78 78 61 28 21 41 50 39 32 37
2070.0 30 20 31 38 24 32 37 32 31 24
2110.0 18 6 2 26 27 4 13 29 24 20
2150.0 18 13 16 42 61 45 22 10 0 24
2190.0 42 24 19 21 19 39 34 11 8 10
2230.0 21 38 47 21 36 61 54 72 56 66
2270.0 90 72 56 53 77 84 73 49 36 95
2310.0 130 119 100 91 106 106 100 92 94 101
2350.0 89 75 84 78 61 28 16 36 48 52
2390.0 62 76 77 74 78 94 114 120 112 93
2430.0 72 57 43 35 47 41 48 66 65 88
2470.0 95 96 99 94 87 87 89 69 63 78
2510.0 76 85 92 76 68 70 96 106 96 94
2550.0 83 108 140 121 122 182 178 150 169 188
2590.0 198 189 164 164 165 155 137 115 117 103
2630.0 85 94 70 63 88 92 90 104 136 132
2670.0 132 136 137 128 115 115 125 127 120 128
2710.0 108 83 83 92 112 119 109 126 117 103
2750.0 104 80 99 133 130 121 105 120 113 88
2790.0 102 109 113 99 85 115 106 102 141 121
2830.0 117 120 129 100 83 146 173 155 139 153
2870.0 173 168 171 173 156 162 170 159 162 150
2910.0 172 200 179 169 161 160 174 189 171 147
2950.0 155 164 129 134 149 177 178 151 182 259
2990.0 393 502 588 681 828 1016 1144 1228 1348 1492
3030.0 1547 1488 1464 1466 1517 1709 2107 2776 3539 4185
3070.0 4657 4917 4892 4547 4055 3524 2876 2205 1621 1108
3110.0 734 523 401 315 264 233 213 173 151 153
3150.0 160 187 192 167 130 92 73 83 64 54
3190.0 34 28 88 76 73 77 48 62 87 93
3230.0 73 75 92 108 60 38 63 60 64 52
3270.0 44 66 100 82 85 117 83 93 111 92
3310.0 90 61 81 85 85 106 103 116 91 37
3350.0 83 117 81 86 96 72 89 79 60 86
3390.0 89 91 81 59 65 47 20 59 90 95
3430.0 92 72 82 64 49 51 57 78 70 63
3470.0 73 92 119 116 93 76 79 109 121 121
3510.0 97 47 76 82 48 36 78 107 66 84
3550.0 38 48 116 76 29 5 39 64 35 31
3590.0 53 116 70 12 54 67 108 138 92 103
3630.0 122 100 98 83 78 98 54 19 60 118
3670.0 107 62 74 134 151 122 90 76 109 103
3710.0 51 56 92 79 42 51 77 118 132 59
3750.0 72 91 43 93 141 92 50 56 87 110
3790.0 90 63 62 81 99 89 67 60 71 77
3830.0 83 105 93 80 63
##END=
