##TITLE=3-(Trifluoromethoxy)phenylacetonitrile
##JCAMP-DX=4.24
##DATA TYPE=INFRARED SPECTRUM
##ORIGIN=EPA-IR VAPOR PHASE LIBRARY
##OWNER=SRD/NIST
Collection (C) 2018 copyright by the U.S. Secretary of Commerce
on behalf of the United States of America. All rights reserved.
##CAS REGISTRY NO=108307-56-8
##MOLFORM=C9 H6 F3 N O
##$NIST SOURCE=MSDC-IR
##STATE=gas
##XUNITS=1/CM
##YUNITS=ABSORBANCE
##XFACTOR=1.
##YFACTOR=0.001
##DELTAX=1.92898
##FIRSTX=549.8
##LASTX=4000.7
##FIRSTY=1.9062
##MAXX=4000.7
##MINX=549.759
##MAXY=0.3202
##MINY=0
##NPOINTS=1790
##XYDATA=(X++(Y..Y))
549.759 1.9062 0.512 0.677 1.4632 0.69 0 1.004 0.607 0.719 2.0036
569.049 2.0735 1.7022 1.573 1.2559 0.345 0.612 1.444 0.787 0.596 1.4079
588.339 1.7852 2.36 2.41 1.7866 1.2496 1.164 1.4423 1.6774 2.0436 2.2048
607.628 3.11 3.95 3.79 3.67 3.86 4.04 4.1 4.9 5.22 5.68
626.918 7.55 8.66 9.15 10.19 10.37 10.2 10.02 8.77 7.12 5.63
646.208 4.55 4.28 3.99 2.97 2.2608 2.0405 2.2367 2.1283 2.3 2.81
665.498 3 3.08 3.1 3.71 3.82 4.22 5.43 5.81 6.18 7.72
684.787 8.65 8.49 8.73 9.63 10.18 10.61 11.27 11.41 11.64 11.57
704.077 10.59 9.9 9.36 8.73 7.79 6.62 5.56 4.63 4.34 4.38
723.367 4.42 3.86 3.37 3.33 2.64 2.4 2.98 3.21 3.3 3.39
742.657 3.11 3.61 3.81 4.18 5.56 5.83 5.92 5.77 5.88 6.12
761.947 6.3 6.88 7.02 7.51 8.28 8.6 8.39 8.69 9.02 9.06
781.236 9.97 10.83 11.12 11.2 10.75 10.74 10.19 8.66 7.88 7.23
800.526 6.34 5.21 4.67 4.21 3.86 3.18 2.7 3.21 2.0928 0
819.816 0.15 2.4 2.34 2.0013 2.3 2.274 2.82 2.72 2.36 2.91
839.106 3.79 3.61 4.22 5.34 5.91 6.73 7.31 7.83 8.1 8.65
858.395 9.18 9.27 8.95 8.56 8.13 8 7.41 6.41 6.22 5.45
877.685 5.07 5.49 5.01 4.24 4.25 4.03 3.9 4 3.74 3.76
896.975 3.79 3.72 3.73 4.03 3.61 3.28 3.37 2.97 2.86 2.9
916.265 3.71 4.27 3.71 3.01 3.4 3.93 3.52 3.43 3.45 3.91
935.555 4.19 4.01 3.98 3.44 3.26 3.14 2.65 2.97 3.38 2.73
954.844 3.17 3.16 2.36 2.63 2.99 3.02 3.28 3.72 3.38 3.32
974.134 4.13 4.95 4.87 4.42 4.31 4.57 4.51 4.4 4.77 4.36
993.424 3.53 3.94 4.65 4.87 4.98 5.17 5.25 5.26 4.54 4.09
1012.714 3.81 3.31 3.2 2.97 3.42 2.91 3.09 3.23 2.1236 2.66
1032.003 1.9267 1.4718 2.34 2.0313 1.8189 1.9319 1.7961 1.9231 2.1437 2.2481
1051.293 2.37 2.37 2.2635 3.02 3.42 3.3 4.29 3.81 3.12 3.79
1070.583 3.88 3 3.69 4.92 4.82 5.96 6.67 5.74 4.18 3.94
1089.873 4.76 4.83 4.76 3.88 3.36 3.15 2.42 3.01 4.73 5.15
1109.163 5.78 6.68 4 4.27 5.23 3.63 4.46 6.02 7.1 7.07
1128.452 6.89 7.25 8.63 10.12 10.19 10.43 12.24 14.84 17.47 18.37
1147.742 18.45 19.95 21.41 21.96 23.82 25.45 27.56 31.96 35.92 39.3
1167.032 43.8 50.27 57.61 64.19 71.64 81.15 91.37 101.54 111.44 121.66
1186.322 129.14 133.96 138.67 141.35 140.57 134.78 128.85 125.28 124.63 127.48
1205.611 130.81 136.61 147.52 163.07 176.36 189.2 204.95 218.96 225.98 225.09
1224.901 218.78 208.73 193.44 174.29 155.09 137.15 122.72 113.85 110.64 110.42
1244.191 112.42 119.34 128.25 138.87 153.19 169.61 188.47 210.68 236.23 260.51
1263.481 281.75 301.17 314.74 320.2 315.52 299.36 274.12 242.07 207.26 171.28
1282.771 137.59 109.76 88.03 72.2 60.85 51.58 44.27 38.66 33.98 30.63
1302.060 27.68 25.18 23.75 22.67 21.66 20.46 19.5 19 18.15 17.23
1321.350 16.17 14.92 14.05 13.22 12.08 11.24 10.52 9.83 9 8.3
1340.640 7.92 7.25 6.65 6.19 5.77 5.45 5.18 4.98 4.86 4.62
1359.930 4.34 4.22 4.1 4.05 4.23 4.22 4.1 3.97 3.75 3.69
1379.219 3.7 3.87 3.92 3.91 3.9 3.92 3.98 4.2 4.48 4.74
1398.509 4.73 4.62 4.9 5.01 5.12 5.39 5.55 5.7 5.92 6.09
1417.799 6.45 6.96 7.46 7.97 8.27 8.56 8.9 9.29 9.61 9.88
1437.089 10.67 11.6 12.66 14.17 15.66 16.96 17.94 18.18 17.64 16.69
1456.378 14.93 12.6 10.76 9.31 8.28 7.67 7.52 7.47 7.73 8.26
1475.668 9.09 10.32 11.71 13.62 15.85 18.15 20.5 22.38 23.31 23.13
1494.958 21.94 20.23 17.97 15.26 12.63 10.51 8.66 7.19 6.46 5.94
1514.248 5.36 5.09 4.81 4.36 4.39 3.97 3.56 3.63 3.47 3.22
1533.538 3.44 3.85 3.86 3.64 3.77 4.1 4.11 3.86 3.99 4.2
1552.827 4.22 4.74 5.02 4.65 4.74 5.23 5.51 5.52 5.6 6.18
1572.117 6.47 6.58 7.61 8.58 9.39 10.67 12.28 13.99 15.3 16.64
1591.407 17.79 18.39 18.72 19.21 19.25 18.95 19.08 19.56 20.37 20.83
1610.697 21.29 21.38 19.91 18.29 16.17 13.41 11.17 9.03 7.38 6.35
1629.986 5.48 4.65 3.89 3.55 3.47 3.27 3.17 3.14 3.12 2.88
1649.276 2.51 2.33 2.35 2.4 2.1506 2.122 2.2582 2.2332 2.36 2.33
1668.566 2.4 2.45 2.1078 2.0673 2.1858 2.121 2.1301 2.0974 2.0219 2.0507
1687.856 2.0883 2.0328 1.8851 2.1121 2.35 2.4 2.29 2.0808 2.33 2.52
1707.146 2.47 2.3 2.0584 2.0553 2.1486 2.1198 1.9991 2.0388 2.2191 2.2117
1726.435 2.32 2.5 2.57 2.52 2.1752 2.0211 2.0258 2.0139 2.2384 2.2114
1745.725 2.0698 2.32 2.49 2.39 2.49 2.67 2.49 2.35 2.48 2.49
1765.015 2.6 2.55 2.33 2.51 2.77 2.57 2.39 2.45 2.38 2.2267
1784.305 2.1827 2.33 2.42 2.3 2.226 2.1862 2.267 2.2068 1.9296 1.9141
1803.594 2.0254 2.1544 2.1314 1.9188 1.7659 1.8115 1.9636 2.0175 2.0394 1.9954
1822.884 1.9733 2.1043 2.1223 1.9418 2.0212 2.1443 2.1358 2.2431 2.28 2.265
1842.174 2.0074 2.0046 1.9427 1.8903 1.9097 1.8358 2.0632 2.1521 2.0646 1.9735
1861.464 1.9526 2.0052 2.0739 2.1186 2.36 2.45 2.2447 2.36 2.53 2.2555
1880.754 2.0835 2.0263 1.9542 2.0376 1.9557 1.9068 1.9718 1.8842 1.9365 2.1991
1900.043 2.2124 2.0286 2.0037 2.1059 2.2615 2.34 2.2089 2.1441 2.1266 2.1505
1919.333 2.32 2.46 2.38 2.39 2.49 2.58 2.79 2.84 2.78 2.76
1938.623 2.58 2.38 2.36 2.1964 1.9247 1.9215 1.9537 1.9862 2.0794 1.9682
1957.913 1.9157 1.8325 1.7453 1.7878 1.938 1.8169 1.6365 1.8517 1.9767 2.0008
1977.202 1.8881 1.8953 1.8983 1.8037 1.8368 1.7947 1.8637 1.934 2.0605 1.9774
1996.492 1.8125 1.7658 1.6743 1.8146 1.9326 2.0714 2.1726 2.1154 2.0149 1.9176
2015.782 1.9854 2.1033 2.0797 2.0879 2.0172 1.7104 1.8881 2.1571 2.0767 1.9046
2035.072 1.7919 2.0383 2.2042 2.1886 2.2298 2.0705 1.9726 2.1061 2.1256 2.3
2054.362 2.34 2.33 2.42 2.2552 2.0817 2.2187 2.38 2.37 2.41 2.39
2073.651 2.1942 2.28 2.56 2.63 2.67 2.54 2.48 2.41 2.1844 2.0315
2092.941 2.1519 2.44 2.3 2.0503 2.079 2.0732 2.2223 2.33 2.2517 2.1128
2112.231 2.0037 2.0578 2.3 2.58 2.53 2.49 2.6 2.56 2.58 2.63
2131.521 2.61 2.5 2.32 2.2578 2.36 2.42 2.2573 2.078 2.0795 2.1684
2150.810 2.1423 2.1725 1.9641 1.8882 1.8927 1.6338 1.896 1.8891 1.5636 1.6998
2170.100 1.7926 1.9768 2.1366 1.9598 1.8711 2.0382 2.1868 2.0982 1.9202 1.8765
2189.390 1.6889 1.4828 1.3915 1.5896 1.9665 1.8605 1.6082 1.5024 1.638 1.7324
2208.680 1.6521 1.7016 1.7423 1.7269 1.7443 1.5228 1.5737 1.7613 1.6305 1.5174
2227.970 1.6962 1.8155 1.7487 1.8332 2.0811 2.0783 1.8451 1.839 1.9335 2.0139
2247.259 1.9504 2.0626 2.2106 2.2405 2.2663 2.2653 2.29 2.2018 2.0741 2.0361
2266.549 1.9199 1.7056 1.876 2.1372 2.1125 1.9414 1.692 1.8074 1.9642 1.8652
2285.839 1.9059 1.8661 1.9974 1.9463 1.8223 1.9083 1.9591 1.7759 1.5655 1.6851
2305.129 1.6704 1.6501 1.8283 1.99 1.856 1.8309 1.6323 1.8593 2.1105 2.0942
2324.418 2.164 1.9925 2.004 1.914 1.7702 1.8364 1.9529 1.8294 1.8758 2.0377
2343.708 2.0383 2.0352 2.1433 2.2308 2.2243 2.0702 2.0909 2.45 2.3 2.1527
2362.998 2.2461 2.0669 2.1033 2.0429 2.0173 2.1882 2.1437 2.2255 2.0732 1.7473
2382.288 1.9064 2.1219 2.2442 2.1148 1.7429 1.7108 1.8071 1.895 2.0331 2.0963
2401.578 2.2283 2.29 2.1255 2.2162 2.35 2.1834 2.1266 2.1172 2.2319 2.2522
2420.867 2.0792 2.2458 2.63 2.67 2.76 3 3.04 2.98 2.76 2.73
2440.157 3.02 2.94 2.74 3.02 3.17 3.2 3.21 2.94 2.82 2.82
2459.447 2.58 2.76 2.93 2.84 2.99 2.73 2.32 2.34 2.37 2.61
2478.737 2.46 2.6 3.03 2.87 2.77 2.68 2.69 2.79 2.74 2.75
2498.026 2.53 2.2456 2.1603 2.1144 2.2631 2.51 2.68 2.51 2.39 2.1634
2517.316 2.0676 1.9834 2.017 2.2165 2.1425 2.0402 2.1424 2.3 2.1494 2.2353
2536.606 2.2645 2.1172 1.9854 1.8769 1.8011 2.0274 2.215 1.9912 1.6086 1.666
2555.896 1.7505 1.6528 1.672 1.618 1.5748 1.4283 1.6728 1.5717 1.7277 1.8721
2575.186 1.5355 1.5757 1.8657 1.8075 1.6561 2.0435 2.0369 1.8422 1.6421 1.6664
2594.475 1.6896 1.7578 2.0876 1.9527 1.91 1.6536 1.5854 1.8694 1.6133 1.4962
2613.765 1.4293 1.473 1.7384 1.7369 1.5952 1.8721 1.899 1.5803 1.7797 1.8918
2633.055 1.9238 1.5588 1.074 1.382 1.7347 1.32332 0.969 0.953 1.146 1.4303
2652.345 1.4589 1.3929 1.7277 1.5999 1.34343 1.6403 1.6175 1.6802 1.5491 1.34723
2671.634 1.5463 1.663 1.6744 1.7647 1.31248 1.2266 1.5598 1.5129 1.34495 1.30905
2690.924 1.2069 0.957 1.17 1.144 1.2476 1.4758 1.27872 1.244 1.5779 1.4421
2710.214 1.28876 1.6155 1.6008 1.2433 1.31149 1.8838 1.7311 1.614 1.4305 1.35617
2729.504 1.5677 1.154 1.066 1.4293 1.6391 1.6478 1.8047 1.7322 1.5112 1.68
2748.794 1.6057 1.6648 1.7598 1.4642 1.5581 1.6751 1.201 1.148 1.4464 1.8303
2768.083 1.8255 1.6127 1.5992 1.4577 1.5546 1.5882 1.7663 1.6524 1.1899 1.28222
2787.373 1.33061 1.31673 1.3762 1.2509 1.4445 1.5598 1.484 1.2552 1.28192 1.5105
2806.663 1.4479 1.491 1.5939 1.629 1.7907 1.6207 1.36596 1.2534 1.5973 2.069
2825.953 1.6167 1.3814 1.6032 1.587 1.4059 1.2397 1.5873 1.8238 1.5298 1.6222
2845.242 1.9689 1.874 1.27506 1.5518 1.8366 1.7983 2.37 2.1232 1.5895 1.6146
2864.532 1.7396 1.6233 2.0438 2.214 1.7641 1.7254 1.6066 1.59 1.6122 1.4345
2883.822 1.086 0.987 1.4617 1.7155 1.6691 1.5308 1.68 1.8054 1.6911 2.008
2903.112 1.6678 1.5341 1.8331 1.6693 1.6719 1.6305 1.937 2.0793 1.8376 2.1762
2922.401 2.0459 1.9105 2.56 2.81 2.71 2.65 2.56 2.63 2.96 2.88
2941.691 2.65 2.65 2.62 2.32 2.1985 2.1659 1.7907 1.8592 1.9169 1.9183
2960.981 2.0502 1.708 1.7549 1.9604 1.6573 1.62 2.2612 2.48 1.7503 1.042
2980.271 1.009 1.32061 1.2086 1.2308 1.6226 1.7811 1.401 1.29391 1.36647 1.28027
2999.561 1.2424 1.5903 2.168 1.7702 1.28787 1.30633 1.9362 2.34 1.7556 1.4788
3018.850 1.4861 1.7508 2.1019 1.9101 2.127 2.43 2.36 2.89 3.17 3.16
3038.140 3.04 3.08 3.34 3.35 3.58 3.62 3.65 3.57 3.18 3.15
3057.430 3.44 3.53 3.61 3.82 3.5 3.41 3.94 4.48 4.63 4.47
3076.720 4.27 3.77 3.75 3.79 4.04 4.19 3.66 3.18 3.01 3.02
3096.009 2.55 1.909 2.42 2.76 2.0211 1.7923 1.7264 1.6224 1.852 2.2264
3115.299 1.7974 1.5808 1.8386 1.4961 1.4449 1.5091 1.9075 2.44 1.9732 1.2025
3134.589 1.2152 1.36669 1.5548 1.6229 1.1947 1.4551 1.7981 1.472 1.30266 1.1824
3153.879 1.2304 1.2018 1.533 2.106 1.9402 1.5896 1.532 1.36521 1.03 1.4235
3173.169 1.6652 1.3701 1.6005 1.7395 1.7091 2.38 2.3 1.8509 1.8092 1.5802
3192.458 2.0809 2.2625 1.2648 0.99 1.5361 1.6963 1.9016 2.59 2.32 1.7766
3211.748 1.9716 2.1491 1.4612 0.843 1.30102 1.3347 1.396 1.5332 1.7958 1.6672
3231.038 1.3867 1.722 1.6204 1.4344 1.5725 1.4613 1.5392 1.7063 1.8081 1.71
3250.328 1.4362 1.3743 1.383 1.157 1.036 1.4359 1.5112 1.3873 1.5008 1.4353
3269.617 1.4494 1.7202 2.003 2.1162 2.1481 1.8402 2.036 2.69 1.9745 1.485
3288.907 1.139 0.587 0.695 1.111 1.29152 1.089 0.79 0.545 0.95 1.116
3308.197 0.989 1.36528 1.5659 1.4447 1.5743 1.3645 1.136 1.4806 1.7993 1.678
3327.487 1.5415 2.0701 2.2038 1.4967 1.5806 1.7338 1.5535 1.27985 0.878 1.2686
3346.777 1.6691 1.601 1.3831 1.4188 1.31485 0.991 1.099 1.5364 1.6309 1.1843
3366.066 1.34102 1.5056 1.31202 1.7402 1.2294 1.171 1.6562 1.36167 1.6145 2.1578
3385.356 2.1509 1.8986 2.0013 2.0788 2.0285 1.9363 1.5138 1.2118 1.177 1.7384
3404.646 1.6214 1.30841 2.2102 2.9 2.1954 1.4731 1.5477 1.003 0.637 1.09
3423.936 1.597 1.8246 1.8334 1.8986 2.32 2.38 2.156 1.6937 1.6834 1.742
3443.225 0.926 0.8 1.2606 1.2475 1.2277 1.32155 1.2674 1.2562 1.2553 0.881
3462.515 0.747 0.835 0.832 0.852 0.904 1.4697 2.1079 2.147 1.6783 1.201
3481.805 0.962 1.5468 1.5314 1.4082 1.8333 1.2387 0.773 1.017 1.3938 1.3958
3501.095 1.159 1.5682 1.8406 1.633 1.056 1.2273 1.7911 1.734 1.3939 0.996
3520.385 1.2605 2.0044 2.34 1.9312 1.5937 1.5632 1.4071 0.857 0.698 1.432
3539.674 1.9956 2.1622 2.0262 1.6192 1.2556 1.172 0.887 0.74 1.1976 1.163
3558.964 1.065 1.3555 1.4078 0.983 0.749 0.648 0.639 1.001 1.33694 1.083
3578.254 1.2007 1.5446 1.117 1.023 1.32622 1.112 1.28575 1.1902 0.794 0.984
3597.544 1.2381 1.34777 1.1945 0.821 1.248 2.1846 1.9811 1.7428 1.35608 1.099
3616.833 1.8051 1.8461 1.34911 1.164 1.4127 1.8009 1.6373 1.446 1.2591 0.82
3636.123 0.442 0.669 1.145 0.802 1.08 1.6705 1.28311 1.071 1.1867 1.135
3655.413 1.33668 1.5258 1.5525 1.6637 1.4375 1.143 0.867 1.063 1.6369 1.8873
3674.703 1.7698 1.7389 1.6636 1.4466 1.36354 1.5596 2.1686 2.66 2.47 1.6572
3693.993 1.6578 1.9184 2.0049 2.1096 1.5205 0.442 0.891 1.9265 1.6533 1.111
3713.282 1.4165 2.1437 1.8516 1.4153 1.399 1.116 1.33819 1.7215 1.9231 1.6939
3732.572 1.37572 1.6006 1.119 0.918 0.69 0.536 1.28401 1.5303 1.1 0.913
3751.862 1.3901 1.8429 1.6622 1.261 1.072 0.693 0.769 1.6119 1.5708 1.31734
3771.152 1.7151 2.1986 2.6 2.2595 1.8098 1.6465 1.4575 1.114 1.088 1.3983
3790.441 1.5889 1.627 1.6508 1.33321 1.066 1.6715 1.757 1.27031 1.5596 1.864
3809.731 1.9195 2.33 2.1479 1.31211 1.3671 1.117 1.086 1.5748 1.37598 1.7727
3829.021 2.149 2.0899 1.6843 1.03 0.401 0.87 1.5636 1.4322 1.2398 1.2113
3848.311 1.4978 1.859 1.2241 0.553 1.34994 1.8267 1.29038 1.4849 1.8019 1.4256
3867.601 1.4743 1.3991 1.8503 2.31 1.6805 1.28301 1.6367 1.28793 1.172 1.2176
3886.890 1.33589 1.8457 1.2328 1.036 0.828 0.715 1.32602 0.998 0.738 1.2474
3906.180 1.30022 1.32863 1.2517 1.5179 2.079 1.7846 1.3018 1.28501 1.8066 1.7519
3925.470 1.165 0.963 1.1915 1.7183 1.8545 1.2596 0.924 1.31232 1.6949 1.5057
3944.760 1.6446 1.9903 1.3922 1.4147 1.7257 1.8619 1.9748 1.5768 1.741 1.9785
3964.049 1.9881 1.8072 1.7689 1.6393 1.28473 1.4984 1.6423 1.5189 1.35021 0.813
3983.339 0.582 0.751 0.859 1.2533 1.6739 1.9994 1.8984 1.5406 1.3714 1.118
##END=
