##TITLE=N-Methylpiperizine
##JCAMP-DX=4.24
##DATA TYPE=INFRARED SPECTRUM
##ORIGIN=EPA-IR VAPOR PHASE LIBRARY
##OWNER=SRD/NIST
Collection (C) 2018 copyright by the U.S. Secretary of Commerce
on behalf of the United States of America. All rights reserved.
##CAS REGISTRY NO=109-01-3
##MOLFORM=C 5 H 12 N 2
##$NIST SOURCE=MSDC-IR
##STATE=gas
##XUNITS=1/CM
##YUNITS=ABSORBANCE
##XFACTOR=1.
##YFACTOR=0.001
##DELTAX=1.92898
##FIRSTX=549.8
##LASTX=4000.7
##FIRSTY=4.269
##MAXX=4000.7
##MINX=549.759
##MAXY=0.126149
##MINY=0
##NPOINTS=1790
##XYDATA=(X++(Y..Y))
549.759 4.269 4.859 5.689 6.489 7.369 8.259 9.009 9.729 10.559 11.329
569.049 11.939 12.669 13.669 14.959 15.209 13.949 12.929 12.589 12.399 12.049
588.339 11.539 10.849 9.919 9.099 8.559 8.129 7.249 6.269 5.659 5.179
607.628 4.819 4.399 3.889 3.369 2.969 2.769 2.529 2.209 1.859 1.5688
626.918 1.5172 1.53 1.5462 1.5079 1.3485 1.3642 1.4449 1.3989 1.4653 1.4999
646.208 1.4685 1.4983 1.6189 1.729 1.869 2.069 2.169 2.189 2.159 2.319
665.498 2.579 2.629 2.849 3.059 3.049 3.289 3.509 3.679 4.019 4.239
684.787 4.429 4.549 4.779 5.149 5.449 5.769 6.199 6.569 6.789 7.159
704.077 7.659 7.939 8.449 9.229 9.819 10.319 10.999 11.839 12.649 13.429
723.367 14.409 15.549 16.669 17.949 19.449 20.869 22.559 24.599 26.509 28.129
742.657 29.969 32.069 33.769 35.049 36.169 37.289 38.029 38.459 38.919 39.039
761.947 38.859 39.139 39.719 39.819 38.499 35.099 31.959 30.439 29.479 28.319
781.236 26.339 23.659 20.609 18.379 17.079 15.649 14.129 12.479 11.029 9.789
800.526 8.499 7.229 6.299 5.619 4.949 4.429 4.049 3.889 3.659 3.349
819.816 3.279 3.199 3.019 3.009 2.969 2.849 2.819 2.889 2.889 2.849
839.106 2.809 2.789 2.839 2.859 2.849 2.899 2.809 2.809 2.899 2.969
858.395 3.069 3.099 3.239 3.299 3.509 3.539 3.459 3.779 4.179 4.419
877.685 4.589 4.839 5.179 5.479 5.579 5.719 5.969 5.929 5.839 5.879
896.975 5.919 5.959 6.019 6.009 5.609 5.179 4.949 4.579 4.349 4.169
916.265 3.939 3.649 3.279 3.029 2.709 2.449 2.359 2.209 1.979 1.909
935.555 1.709 1.5204 1.629 1.5915 1.4268 1.3235 1.3116 1.3331 1.2047 1.186
954.844 1.2925 1.3954 1.3653 1.2704 1.4055 1.6017 1.839 2.079 2.159 2.289
974.134 2.619 3.139 3.719 4.399 5.159 5.969 6.819 7.769 8.569 9.369
993.424 10.199 10.969 11.899 12.839 13.519 13.519 13.519 13.669 13.789 13.879
1012.714 13.389 12.269 10.739 9.489 9.109 9.129 8.859 8.439 8.069 7.899
1032.003 7.689 6.939 6.449 6.769 7.309 7.829 8.249 8.619 8.959 8.849
1051.293 8.939 9.279 9.629 10.139 10.379 10.139 9.449 8.919 8.399 8.009
1070.583 7.809 7.399 7.159 6.909 6.349 5.909 5.999 6.119 6.069 6.279
1089.873 6.419 6.219 6.389 7.029 7.619 8.089 8.309 8.749 9.679 10.639
1109.163 11.889 13.029 14.099 15.609 17.149 18.789 20.479 22.349 24.539 26.969
1128.452 29.609 32.689 36.399 39.929 42.649 44.819 46.829 48.249 48.629 48.809
1147.742 49.249 49.869 49.999 49.019 46.959 43.939 40.209 36.019 32.539 29.339
1167.032 25.999 23.029 20.359 18.089 16.079 14.199 12.369 10.859 9.799 9.279
1186.322 8.569 7.559 6.639 5.789 5.159 4.349 3.709 3.369 2.879 2.369
1205.611 2.249 2.309 2.079 1.819 1.4681 1.3344 1.4015 1.2235 1.3019 1.3883
1224.901 1.1584 1.2149 1.3286 1.2408 1.2782 1.5316 1.669 1.5538 1.729 2.099
1244.191 2.339 2.579 3.039 3.579 4.229 5.099 5.999 6.909 8.069 9.399
1263.481 10.849 12.449 14.459 16.699 18.959 20.819 21.219 21.059 21.229 21.129
1282.771 20.729 20.509 20.449 20.209 19.739 18.899 17.839 16.839 15.849 15.089
1302.060 14.539 14.229 14.229 14.459 14.819 15.109 15.299 15.289 14.889 13.919
1321.350 12.729 12.739 14.289 15.509 15.419 14.659 13.659 12.629 11.639 10.709
1340.640 9.839 9.089 8.579 8.529 8.869 9.269 9.599 9.969 10.449 10.969
1359.930 11.409 11.709 11.779 11.449 10.849 10.489 10.599 10.859 10.079 8.699
1379.219 8.319 8.279 7.759 6.899 5.899 4.899 4.029 3.429 3.069 2.899
1398.509 2.849 2.819 2.849 3.019 3.239 3.439 3.619 3.819 4.069 4.419
1417.799 4.829 5.339 6.009 6.719 7.499 8.529 9.719 11.049 12.629 14.329
1437.089 16.249 18.219 20.019 21.709 23.449 25.339 27.239 28.259 28.389 28.209
1456.378 28.339 28.709 28.019 26.169 23.879 21.429 19.089 16.999 15.179 13.549
1475.668 12.099 10.729 9.449 8.289 7.249 6.339 5.569 4.869 4.249 3.739
1494.958 3.269 2.899 2.639 2.419 2.229 2.049 1.889 1.769 1.709 1.619
1514.248 1.5901 1.5639 1.469 1.4296 1.4093 1.4255 1.383 1.3263 1.2969 1.2852
1533.538 1.287 1.2338 1.2265 1.1854 1.1246 1.1558 1.174 1.1683 1.178 1.1709
1552.827 1.1556 1.1907 1.2092 1.1578 1.1857 1.1601 1.1244 1.1452 1.106 1.047
1572.117 1.0498 1.0754 1.0469 1.0617 1.1044 1.0925 1.0787 1.0813 1.0463 1.0455
1591.407 1.0858 1.075 1.0498 1.061 1.0842 1.1105 1.1215 1.0784 1.0658 1.1103
1610.697 1.1418 1.1421 1.1796 1.158 1.1228 1.1482 1.2204 1.273 1.237 1.2569
1629.986 1.2445 1.2384 1.3053 1.2553 1.2456 1.2738 1.2704 1.3136 1.3251 1.2719
1649.276 1.2445 1.2563 1.1889 1.2258 1.3253 1.3405 1.2965 1.1911 1.1743 1.2293
1668.566 1.2335 1.2427 1.2167 1.1941 1.2134 1.2063 1.1828 1.1181 1.0917 1.1031
1687.856 1.1308 1.1752 1.1262 1.0363 1.0542 1.1245 1.0692 1.0145 0.9889 0.9628
1707.146 0.9851 1.0109 1.0674 1.0861 1.0327 0.9758 0.967 0.9948 1.0039 0.989
1726.435 0.987 0.9754 0.9623 0.9843 0.9512 0.9554 0.9976 0.9691 0.9287 0.9363
1745.725 0.9572 0.9565 0.9486 0.9481 0.9141 0.908 0.941 0.9409 0.943 0.9533
1765.015 0.9786 0.9669 0.9324 0.9381 0.9977 1.017 1.0516 1.0852 1.0258 1.018
1784.305 1.0285 1.0411 1.0779 1.0322 0.9928 1.0075 1.0285 1.0087 0.9255 0.8952
1803.594 0.9377 0.962 0.9702 0.9522 0.9719 1.0034 0.9932 0.9741 0.9524 1.0008
1822.884 1.0197 1.0076 1.0148 1.016 1.0455 1.0644 1.0161 0.9795 1.0294 1.0638
1842.174 1.0382 1.0437 1.0085 1.0165 1.0749 1.0235 1.0145 1.0367 1.0197 0.9848
1861.464 1.0379 1.0596 1.0508 1.063 1.0145 1.0304 1.0775 1.1096 1.1152 1.1463
1880.754 1.1592 1.172 1.2452 1.3073 1.3095 1.3048 1.3466 1.3971 1.4259 1.4745
1900.043 1.4973 1.5129 1.562 1.6037 1.639 1.669 1.639 1.6171 1.669 1.629
1919.333 1.568 1.5828 1.5651 1.5845 1.5978 1.5544 1.5282 1.524 1.5131 1.4384
1938.623 1.367 1.3455 1.3344 1.3164 1.3243 1.2423 1.1983 1.2397 1.1921 1.1309
1957.913 1.0932 1.1073 1.113 1.1094 1.0763 1.0496 1.0506 0.9889 0.9336 0.9173
1977.202 0.9038 0.9036 0.9062 0.9327 0.9588 0.9305 0.9341 0.9703 0.9262 0.9016
1996.492 0.9463 0.9724 0.9877 1.0226 1.0334 1.0328 0.9928 0.9819 1.0843 1.0759
2015.782 1.0492 1.1544 1.2164 1.2086 1.184 1.1918 1.2685 1.3108 1.3099 1.3166
2035.072 1.3425 1.3934 1.4455 1.4388 1.4387 1.4376 1.4386 1.4834 1.5115 1.4675
2054.362 1.4931 1.5185 1.4352 1.4002 1.3972 1.3862 1.3324 1.3098 1.3089 1.2381
2073.651 1.2028 1.1827 1.1364 1.1192 1.1033 1.1362 1.1568 1.0848 1.0397 1.045
2092.941 1.0678 1.0708 1.0539 1.0119 0.9628 0.9476 0.949 0.9656 0.899 0.8731
2112.231 0.8965 0.9084 0.9329 0.9584 0.9717 1.0456 1.1002 1.0318 0.9332 0.8717
2131.521 0.9576 1.0809 1.0538 1.0235 1.0882 1.0967 1.0697 1.0837 1.0803 1.0449
2150.810 0.997 0.9951 1.0475 1.0853 1.0741 1.0438 1.0355 1.0375 1.0573 1.096
2170.100 1.1715 1.1685 1.1328 1.1335 1.129 1.1689 1.1847 1.1322 1.1121 1.1452
2189.390 1.0835 1.0368 1.0979 1.0831 1.0736 1.125 1.1324 1.1211 1.1714 1.2195
2208.680 1.1953 1.2394 1.2533 1.217 1.2018 1.2263 1.259 1.235 1.2503 1.2251
2227.970 1.2322 1.2766 1.2528 1.2912 1.3497 1.3566 1.3399 1.3438 1.3613 1.3475
2247.259 1.364 1.3177 1.2562 1.3306 1.386 1.3627 1.3423 1.3315 1.3726 1.4022
2266.549 1.4162 1.4775 1.4658 1.449 1.4992 1.4646 1.4387 1.536 1.6183 1.639
2285.839 1.6128 1.629 1.659 1.629 1.5857 1.5994 1.629 1.6159 1.5436 1.5498
2305.129 1.5723 1.5275 1.496 1.522 1.5255 1.4711 1.4893 1.4311 1.3731 1.3795
2324.418 1.3704 1.3837 1.3604 1.3471 1.4244 1.4251 1.3624 1.364 1.402 1.3821
2343.708 1.3684 1.3616 1.3517 1.4176 1.4116 1.3409 1.3423 1.2662 1.2181 1.2912
2362.998 1.219 1.1791 1.2129 1.2114 1.2493 1.2544 1.2366 1.2009 1.1117 1.0948
2382.288 1.1579 1.1628 1.1275 1.1455 1.1487 1.1449 1.2032 1.1981 1.1635 1.1327
2401.578 1.1474 1.1412 1.0782 1.0787 1.0872 1.1198 1.1484 1.14 1.1304 1.1644
2420.867 1.2201 1.2436 1.222 1.2143 1.249 1.3316 1.3542 1.314 1.3298 1.3731
2440.157 1.4291 1.4212 1.3975 1.443 1.5127 1.5782 1.639 1.5997 1.5778 1.619
2459.447 1.629 1.629 1.5816 1.6133 1.709 1.789 1.739 1.679 1.709 1.719
2478.737 1.739 1.759 1.759 1.739 1.709 1.709 1.799 1.919 1.979 2.009
2498.026 2.009 2.009 2.059 2.169 2.209 2.139 2.119 2.169 2.219 2.329
2517.316 2.309 2.219 2.259 2.229 2.229 2.249 2.239 2.249 2.179 2.069
2536.606 2.019 2.139 2.159 2.069 2.019 1.999 2.129 2.149 2.049 2.019
2555.896 2.039 2.099 2.089 2.039 2.059 2.089 2.099 2.089 2.089 2.109
2575.186 2.099 2.099 2.139 2.099 2.089 2.239 2.369 2.479 2.529 2.509
2594.475 2.589 2.729 2.849 2.919 3.029 3.179 3.329 3.469 3.619 3.759
2613.765 3.959 4.159 4.309 4.479 4.619 4.819 4.989 5.149 5.319 5.509
2633.055 5.759 6.019 6.249 6.399 6.509 6.709 6.979 7.279 7.639 7.929
2652.345 8.279 8.599 8.969 9.469 9.859 10.299 10.759 11.209 11.629 11.949
2671.634 12.279 12.619 12.889 13.079 13.189 13.269 13.239 13.179 13.119 12.969
2690.924 12.869 12.839 12.779 12.649 12.499 12.369 12.379 12.429 12.609 12.969
2710.214 13.399 13.909 14.419 15.049 15.889 16.819 17.919 19.089 20.279 21.479
2729.504 22.589 23.819 25.019 26.099 27.099 27.979 28.899 30.069 31.669 33.549
2748.794 35.199 36.539 38.079 39.999 42.199 44.559 46.949 49.319 51.529 53.969
2768.083 56.539 59.109 61.969 65.019 68.789 73.339 76.979 77.949 77.679 77.759
2787.373 77.939 78.029 78.209 78.749 79.559 80.639 81.589 81.579 79.829 77.089
2806.663 74.319 71.379 68.549 66.369 64.709 63.359 62.339 61.609 60.969 60.429
2825.953 60.679 61.449 61.939 61.069 58.579 56.409 55.419 55.279 55.489 55.369
2845.242 54.479 52.439 49.569 46.639 44.169 42.239 40.529 38.849 37.149 35.539
2864.532 34.139 32.939 31.869 31.059 30.559 30.419 30.539 31.039 31.719 32.239
2883.822 32.769 33.289 33.739 34.069 34.559 35.379 36.229 37.019 37.919 39.019
2903.112 40.479 42.139 43.949 46.089 48.469 51.259 54.539 58.049 61.939 66.549
2922.401 71.799 77.699 84.019 89.709 94.309 98.679 103.349 108.219 113.219 117.749
2941.691 121.299 124.149 126.149 124.209 115.249 105.949 103.509 103.499 100.679 95.529
2960.981 88.359 79.789 71.089 62.369 54.029 45.959 38.449 32.819 29.659 27.899
2980.271 25.979 23.399 20.479 17.619 15.049 12.839 10.919 9.259 7.969 6.869
2999.561 5.919 5.289 4.669 4.099 3.629 3.319 3.129 2.949 2.879 2.719
3018.850 2.559 2.509 2.389 2.349 2.369 2.269 2.229 2.249 2.199 2.189
3038.140 2.099 2.029 2.009 2.039 2.029 1.929 2.049 1.959 1.829 1.869
3057.430 1.959 1.929 1.929 1.969 1.889 1.989 2.009 1.879 1.839 1.879
3076.720 1.859 1.809 1.829 1.869 1.919 1.859 1.819 1.829 1.789 1.729
3096.009 1.679 1.629 1.6148 1.699 1.639 1.5842 1.5554 1.5832 1.629 1.5523
3115.299 1.5308 1.4927 1.5512 1.58 1.4204 1.3143 1.3288 1.4201 1.4064 1.2222
3134.589 1.2103 1.3924 1.383 1.3354 1.3848 1.3251 1.355 1.2946 1.1598 1.1662
3153.879 1.2128 1.2109 1.1984 1.2622 1.3266 1.3919 1.441 1.3897 1.2893 1.328
3173.169 1.3422 1.3062 1.3473 1.3002 1.4039 1.3671 1.1337 1.2254 1.2492 1.2299
3192.458 1.3344 1.3704 1.4322 1.4432 1.3659 1.2251 1.1754 1.2341 1.1807 1.1688
3211.748 1.1328 1.0499 1.073 1.0773 1.0809 1.1059 1.0873 0.892 0.71048 0.67473
3231.038 0.7296 0.8561 0.9528 1.0157 0.9538 0.9211 0.976 0.8885 0.8465 0.9028
3250.328 0.8527 0.70664 0.65745 0.794 0.8718 0.8541 0.895 0.8341 0.65932 0.69659
3269.617 0.776 0.7723 0.857 0.7727 0.620267 0.618 0.65857 0.65372 0.628716 0.65357
3288.907 0.5871 0.5215 0.507 0.5726 0.7201 0.67185 0.5463 0.6066 0.6427 0.7036
3308.197 0.9171 0.8489 0.71595 0.7838 0.8894 0.976 0.9649 0.9114 0.8998 0.9983
3327.487 1.0475 0.9464 1.0768 1.1456 1.0501 1.0906 1.004 0.9599 0.9682 0.8489
3346.777 0.8407 0.7671 0.7263 0.7495 0.65467 0.68329 0.5683 0.455 0.5643 0.487
3366.066 0.499 0.5891 0.622851 0.71415 0.519 0.439 0.65079 0.65182 0.5442 0.5768
3385.356 0.67728 0.5532 0.465 0.5338 0.463 0.501 0.5302 0.388 0.299 0.391
3404.646 0.386 0.361 0.429 0.465 0.379 0.238 0.182 0.199 0.375 0.441
3423.936 0.419 0.433 0.397 0.423 0.357 0.097 0.024 0.299 0.312 0.345
3443.225 0.386 0.238 0.344 0.352 0.291 0.398 0.348 0.248 0.177 0.176
3462.515 0.262 0.323 0.329 0.297 0.101 0.021 0.256 0.281 0.223 0.256
3481.805 0.303 0.25 0.249 0.325 0.309 0.425 0.443 0.277 0.261 0.314
3501.095 0.374 0.343 0.364 0.338 0.243 0.275 0.308 0.286 0.263 0.317
3520.385 0.409 0.409 0.295 0.278 0.213 0.161 0.208 0.25 0.313 0.318
3539.674 0.264 0.31 0.396 0.358 0.327 0.236 0.215 0.187 0.144 0.296
3558.964 0.39 0.442 0.381 0.236 0.153 0.219 0.359 0.359 0.18 0.109
3578.254 0.234 0.327 0.289 0.155 0.123 0.065 0 0.09 0.264 0.346
3597.544 0.454 0.366 0.266 0.424 0.41 0.297 0.271 0.238 0.304 0.436
3616.833 0.385 0.409 0.408 0.344 0.246 0.103 0.213 0.299 0.176 0.093
3636.123 0.08 0.237 0.432 0.49 0.371 0.248 0.399 0.5495 0.475 0.452
3655.413 0.432 0.401 0.503 0.415 0.272 0.314 0.287 0.337 0.427 0.33
3674.703 0.333 0.46 0.5297 0.5586 0.64041 0.558 0.369 0.378 0.294 0.22
3693.993 0.373 0.291 0.367 0.63442 0.61448 0.5884 0.488 0.427 0.5256 0.437
3713.282 0.419 0.461 0.328 0.223 0.279 0.307 0.332 0.381 0.303 0.357
3732.572 0.391 0.39 0.35 0.253 0.312 0.265 0.194 0.215 0.191 0.172
3751.862 0.297 0.446 0.432 0.445 0.266 0.146 0.385 0.394 0.286 0.295
3771.152 0.261 0.313 0.494 0.555 0.366 0.255 0.202 0.274 0.393 0.437
3790.441 0.5291 0.453 0.303 0.192 0.071 0.271 0.393 0.376 0.48 0.364
3809.731 0.317 0.376 0.427 0.482 0.413 0.397 0.619881 0.68882 0.68571 0.7768
3829.021 0.7654 0.6369 0.5965 0.6661 0.543 0.392 0.428 0.407 0.393 0.417
3848.311 0.42 0.423 0.384 0.312 0.471 0.5683 0.466 0.5779 0.5221 0.381
3867.601 0.369 0.224 0.174 0.298 0.349 0.278 0.281 0.546 0.5302 0.361
3886.890 0.341 0.44 0.514 0.409 0.485 0.484 0.363 0.432 0.425 0.374
3906.180 0.452 0.5556 0.627041 0.70865 0.71864 0.69183 0.71807 0.7404 0.69331 0.68566
3925.470 0.66292 0.5897 0.63152 0.68914 0.8084 0.7745 0.864 0.881 0.6036 0.618512
3944.760 0.7734 0.8587 0.7949 0.9467 1.0397 0.8474 0.9064 0.9455 0.9947 0.9609
3964.049 0.7594 0.70768 0.6141 0.5611 0.62584 0.7237 0.8763 0.9662 0.8843 0.772
3983.339 0.7907 0.7573 0.7749 0.8414 0.9438 1.012 0.8999 0.9133 0.8058 0.576
##END=
