##TITLE=2-Methylpiperidine
##JCAMP-DX=4.24
##DATA TYPE=INFRARED SPECTRUM
##ORIGIN=NIST Mass Spectrometry Data Center
##OWNER=NIST Standard Reference Data Program
Collection (C) 2018 copyright by the U.S. Secretary of Commerce
on behalf of the United States of America. All rights reserved.
##CAS REGISTRY NO=109-05-7
##MOLFORM=C 6 H 13 N
##$NIST SOURCE=MSDC-IR
##SPECTROMETER/DATA SYSTEM=HP-GC/MS/IRD
##STATE=gas
##XUNITS=1/CM
##YUNITS=ABSORBANCE
##XFACTOR=1.0
##YFACTOR=0.000004000
##DELTAX=4.0
##FIRSTX=550.0
##LASTX=3846.0
##FIRSTY=0.001140
##MAXX=3846
##MINX=550
##MAXY=0.04
##MINY=0
##NPOINTS=825
##XYDATA=(X++(Y..Y))
550.0 285 249 258 281 228 186 148 117 104 92
590.0 40 18 16 18 25 26 28 20 16 31
630.0 49 51 64 88 108 130 151 182 234 278
670.0 309 357 436 520 610 726 879 1055 1216 1365
710.0 1492 1587 1649 1666 1618 1494 1261 1018 840 659
750.0 486 354 266 200 150 130 125 121 115 125
790.0 133 131 134 139 140 145 163 183 212 239
830.0 254 256 235 197 150 108 99 89 71 64
870.0 62 72 93 109 118 128 147 184 201 177
910.0 155 141 109 82 58 33 22 15 16 18
950.0 18 30 49 70 91 104 109 107 101 96
990.0 91 76 64 67 66 52 43 34 25 35
1030.0 60 89 136 177 205 263 307 333 373 378
1070.0 375 404 463 478 458 483 538 602 687 797
1110.0 919 1009 1046 1038 973 869 748 608 476 395
1150.0 362 337 319 307 294 247 193 158 133 115
1190.0 106 108 124 148 183 216 220 206 197 201
1230.0 193 171 160 164 179 191 213 245 259 259
1270.0 256 235 210 200 212 248 297 355 421 508
1310.0 637 803 935 967 965 931 892 841 708 560
1350.0 460 430 457 532 636 714 750 776 739 673
1390.0 579 427 295 228 210 237 316 438 577 697
1430.0 816 922 1034 1195 1249 1171 1109 1063 983 845
1470.0 691 555 422 303 212 144 103 78 54 41
1510.0 26 22 23 16 11 4 0 9 13 9
1550.0 7 4 8 9 8 7 6 7 3 3
1590.0 7 9 5 7 11 11 8 14 20 11
1630.0 5 6 6 7 11 12 9 9 13 14
1670.0 13 14 14 15 16 17 16 17 14 5
1710.0 5 8 6 0 2 9 12 5 1 2
1750.0 6 9 9 13 17 19 20 18 17 16
1790.0 23 23 18 18 20 20 23 21 19 19
1830.0 20 22 24 24 22 24 25 25 21 16
1870.0 15 9 11 13 12 10 10 11 14 14
1910.0 15 16 12 14 19 16 19 19 13 16
1950.0 21 20 20 16 15 15 16 19 15 16
1990.0 18 18 15 19 23 23 23 28 26 25
2030.0 27 25 27 28 25 22 19 19 17 15
2070.0 18 18 18 21 20 18 21 19 16 19
2110.0 20 23 22 15 17 19 20 20 24 27
2150.0 30 33 31 32 34 33 32 31 32 34
2190.0 32 31 31 31 30 35 33 30 30 30
2230.0 26 22 21 25 21 18 20 21 21 21
2270.0 20 16 17 21 22 21 22 21 20 23
2310.0 26 21 19 25 28 23 24 24 20 23
2350.0 23 24 26 26 22 17 14 15 20 18
2390.0 17 18 21 23 24 23 26 27 24 25
2430.0 28 30 32 33 36 38 39 43 43 43
2470.0 45 46 48 51 50 46 46 46 44 41
2510.0 39 45 49 48 53 53 49 51 52 53
2550.0 62 68 79 85 96 116 134 149 170 193
2590.0 213 225 234 254 267 258 246 250 254 261
2630.0 266 262 264 265 271 273 269 273 273 277
2670.0 294 304 313 330 342 360 381 409 436 463
2710.0 504 552 603 634 640 651 665 663 649 634
2750.0 633 649 696 764 870 1008 1163 1333 1519 1695
2790.0 1859 2008 2130 2193 2137 2012 1898 1784 1659 1553
2830.0 1502 1518 1604 1748 1934 2156 2387 2563 2680 2712
2870.0 2634 2537 2410 2268 2179 2178 2285 2512 2874 3406
2910.0 4133 5062 6128 7229 8357 9379 9879 10000 9866 8941
2950.0 7870 6911 5905 4981 4081 3384 2858 2237 1686 1324
2990.0 1007 733 511 361 267 205 169 148 141 126
3030.0 108 100 95 94 102 110 106 107 112 112
3070.0 111 108 104 117 121 116 117 101 96 99
3110.0 96 87 77 76 78 73 73 74 80 81
3150.0 75 80 84 84 82 80 76 73 72 62
3190.0 54 52 48 49 43 35 36 37 44 46
3230.0 39 33 34 33 34 36 38 44 46 38
3270.0 35 38 42 41 42 40 41 41 37 41
3310.0 41 47 56 46 40 44 50 58 50 43
3350.0 46 47 50 47 37 42 45 32 30 32
3390.0 35 36 37 37 31 35 30 25 35 33
3430.0 24 29 36 39 43 35 30 31 37 38
3470.0 31 28 25 33 34 33 41 41 35 24
3510.0 30 38 34 27 21 16 17 22 21 24
3550.0 24 23 22 22 20 18 26 32 37 46
3590.0 36 27 35 28 19 26 29 30 28 38
3630.0 47 41 33 31 33 25 27 38 36 36
3670.0 44 43 36 32 32 31 29 28 25 32
3710.0 34 26 19 16 22 30 32 34 45 53
3750.0 52 35 29 25 35 54 45 44 60 61
3790.0 51 44 45 42 44 46 41 40 38 47
3830.0 51 42 45 55 41
##END=
