##TITLE=Phenyl acridine-9-carboxylate
##JCAMP-DX=4.24
##DATA TYPE=INFRARED SPECTRUM
##ORIGIN=EPA-IR VAPOR PHASE LIBRARY
##OWNER=SRD/NIST
Collection (C) 2018 copyright by the U.S. Secretary of Commerce
on behalf of the United States of America. All rights reserved.
##CAS REGISTRY NO=109392-90-7
##MOLFORM=C 20 H 13 N O 2
##$NIST SOURCE=MSDC-IR
##STATE=gas
##XUNITS=1/CM
##YUNITS=ABSORBANCE
##XFACTOR=1.
##YFACTOR=0.001
##DELTAX=1.92898
##FIRSTX=549.8
##LASTX=4000.7
##FIRSTY=1.698
##MAXX=4000.7
##MINX=549.759
##MAXY=0.063257
##MINY=0
##NPOINTS=1790
##XYDATA=(X++(Y..Y))
549.759 1.698 1.2093 1.6144 2.047 1.957 1.2701 0.9031 1.6897 1.8662 1.6937
569.049 1.6891 1.4225 2.117 1.8612 1.5747 2.107 1.2255 1.1374 1.7514 1.8303
588.339 1.4916 1.036 1.4514 2.207 2.647 3.667 3.937 3.117 2.887 2.657
607.628 2.187 2.227 2.467 2.207 2.047 2.077 1.4509 1.0488 1.7954 2.027
626.918 1.6765 1.7887 2.277 2.437 2.567 3.517 4.417 5.317 5.277 4.867
646.208 4.347 3.627 3.317 2.787 2.727 2.427 1.937 1.6416 1.4948 2.007
665.498 2.467 2.727 2.667 2.487 2.627 2.807 3.057 3.517 4.017 4.457
684.787 4.707 4.147 3.807 3.897 3.807 3.527 3.047 3.037 2.797 2.877
704.077 3.477 3.107 2.687 2.537 2.607 3.707 4.167 3.927 4.417 4.917
723.367 4.577 4.667 5.677 5.987 6.337 7.537 8.047 8.207 8.857 9.437
742.657 10.187 11.317 12.567 13.547 14.507 14.787 14.347 13.477 11.747 10.507
761.947 9.227 7.357 6.127 5.637 5.527 5.007 4.397 4.147 3.727 3.277
781.236 3.107 3.337 3.437 3.237 3.127 3.267 3.637 3.617 3.337 2.957
800.526 2.547 2.617 2.647 2.717 2.967 2.627 2.287 2.387 3.057 3.147
819.816 3.837 5.447 5.757 4.767 3.787 3.817 3.237 2.967 2.817 2.517
839.106 2.137 1.761 1.8984 1.967 2.057 2.007 1.937 2.327 2.877 3.207
858.395 3.667 3.667 3.907 3.667 2.907 2.417 2.457 2.537 1.937 1.967
877.685 2.247 2.067 1.7846 1.5353 1.73 2.157 2.197 2.287 2.177 2.077
896.975 2.477 2.407 2.147 2.367 2.447 2.307 2.357 2.357 2.257 2.317
916.265 2.017 1.8342 1.708 1.3211 1.2757 1.6293 2.137 1.937 1.518 1.6677
935.555 1.6704 1.3557 1.3292 1.4585 1.7612 2.117 2.337 2.637 2.917 2.697
954.844 3.127 3.547 3.457 4.137 5.627 7.217 9.167 11.457 13.027 13.897
974.134 13.707 12.667 11.047 8.977 7.317 6.037 5.497 4.977 3.857 3.367
993.424 3.307 3.267 2.917 2.577 2.317 2.817 3.657 4.287 4.627 5.087
1012.714 4.957 4.307 4.347 4.307 4.067 3.777 4.487 4.397 3.207 2.557
1032.003 1.6389 1.3456 1.6498 1.6719 1.2788 0.457 0.772 1.957 1.746 1.5894
1051.293 1.7071 1.5833 1.3025 0.98364 1.4974 2.437 2.587 2.117 1.8088 1.1395
1070.583 1.0594 1.7627 2.587 2.837 2.567 2.767 4.227 3.857 1.7155 0.94435
1089.873 1.4017 1.7716 1.7318 3.147 4.017 3.507 4.287 3.787 3.697 4.727
1109.163 4.657 4.957 4.637 4.887 6.917 6.757 6.457 8.637 9.027 8.547
1128.452 10.857 13.827 16.047 19.347 22.317 23.997 23.817 20.397 16.117 13.467
1147.742 13.077 15.327 19.777 26.407 33.997 42.287 49.837 54.007 53.607 48.237
1167.032 39.537 29.647 22.057 18.907 18.237 20.387 24.437 30.377 38.287 46.337
1186.322 55.037 61.387 63.257 60.767 54.757 46.667 38.067 30.617 24.167 20.537
1205.611 19.337 16.817 14.287 13.777 12.767 9.807 8.707 9.797 10.617 9.837
1224.901 8.327 8.207 8.377 7.707 6.627 6.927 7.197 6.147 5.367 5.747
1244.191 6.457 5.367 4.197 4.307 4.777 4.897 4.337 3.907 3.847 3.437
1263.481 3.207 3.977 4.647 4.607 4.457 4.377 4.547 5.237 5.807 6.107
1282.771 5.997 6.127 6.697 6.607 5.687 5.047 4.617 3.807 3.357 3.017
1302.060 2.777 2.807 2.877 2.937 3.077 3.227 3.077 2.937 2.987 3.047
1321.350 2.967 2.927 3.147 3.297 3.417 3.647 3.967 4.407 4.967 5.707
1340.640 6.477 7.307 8.217 8.617 8.697 8.537 7.647 6.677 5.917 5.247
1359.930 4.587 4.007 3.597 3.217 3.007 2.857 2.697 2.487 2.537 2.657
1379.219 2.427 2.167 2.127 2.217 2.207 2.107 2.077 2.047 2.037 1.967
1398.509 1.8644 1.967 2.187 2.247 2.217 2.237 2.247 2.097 2.007 2.097
1417.799 2.087 2.057 1.9257 1.7532 1.7466 1.937 2.167 2.327 2.557 2.667
1437.089 2.887 3.147 3.107 2.917 2.817 2.707 2.627 2.517 2.497 2.907
1456.378 3.477 3.817 4.117 4.527 4.717 4.787 4.867 4.737 4.587 4.487
1475.668 4.507 4.977 5.687 6.827 8.297 9.817 11.597 13.327 14.357 14.297
1494.958 12.917 10.297 7.727 6.027 5.127 4.817 4.857 5.187 5.827 6.387
1514.248 6.627 6.757 6.577 5.857 5.147 4.347 3.587 3.117 2.797 2.657
1533.538 2.417 2.377 2.337 2.197 2.427 2.987 3.227 3.247 3.547 3.767
1552.827 3.687 3.637 3.607 3.567 3.137 2.447 2.227 2.197 2.277 2.517
1572.117 2.727 2.947 3.367 3.817 4.117 4.497 5.307 6.157 6.847 7.477
1591.407 7.627 7.647 7.287 6.157 5.187 4.507 3.767 3.327 3.067 2.987
1610.697 2.987 2.897 2.727 2.417 2.167 2.187 2.287 2.137 2.117 2.127
1629.986 2.017 1.8784 1.7575 1.6588 1.5041 1.5805 1.7085 1.7469 1.7733 1.7083
1649.276 1.7978 1.8793 1.937 1.8692 1.7359 1.6571 1.7577 1.9131 1.6807 1.7057
1668.566 1.967 1.9048 1.9125 2.017 1.927 1.947 2.007 1.947 1.8432 1.8774
1687.856 2.047 2.187 2.177 2.257 2.467 2.597 2.907 2.967 2.717 2.817
1707.146 3.177 3.327 3.407 3.517 3.707 3.767 3.527 3.327 3.297 3.407
1726.435 3.347 3.317 3.317 3.397 3.647 3.807 4.057 4.447 4.797 5.167
1745.725 5.547 6.037 6.847 7.977 9.637 12.127 15.367 19.017 22.677 25.247
1765.015 25.827 24.157 20.887 17.287 13.727 10.807 8.857 7.457 6.357 5.527
1784.305 4.807 4.177 3.677 3.307 3.157 2.967 2.867 3.007 3.127 3.007
1803.594 2.857 2.797 2.607 2.417 2.317 2.337 2.317 2.397 2.357 2.277
1822.884 2.497 2.417 2.137 2.027 1.916 1.8443 1.9158 1.957 1.8573 1.7792
1842.174 1.7855 1.6224 1.5283 1.5017 1.3055 1.2559 1.3312 1.4781 1.5958 1.576
1861.464 1.5345 1.6134 1.5457 1.3217 1.3018 1.4377 1.3878 1.3463 1.4465 1.4728
1880.754 1.3054 1.3453 1.503 1.3273 1.3699 1.4082 1.35 1.473 1.4992 1.5192
1900.043 1.7578 1.8344 1.7752 1.7999 1.8415 1.8587 1.7262 1.487 1.5777 1.8627
1919.333 1.8938 1.987 2.137 2.047 1.8714 1.8781 1.8497 1.9142 2.037 1.977
1938.623 1.957 2.007 2.307 2.397 2.217 2.367 2.507 2.277 1.8836 1.8206
1957.913 1.8589 1.6059 1.2376 1.1827 1.427 1.3711 1.2812 1.4092 1.3513 1.3905
1977.202 1.5245 1.4437 1.3002 1.2607 1.3426 1.4652 1.4504 1.498 1.5961 1.517
1996.492 1.4242 1.3271 1.4357 1.4172 1.294 1.5516 1.7193 1.598 1.4856 1.5261
2015.782 1.6135 1.597 1.5415 1.5274 1.4629 1.2926 1.2117 1.2156 1.2641 1.3323
2035.072 1.3516 1.4098 1.4505 1.4884 1.4412 1.3961 1.3884 1.2719 1.2233 1.2808
2054.362 1.3294 1.2539 1.1913 1.1808 1.269 1.2692 1.1799 1.0319 1.00627 1.1558
2073.651 1.0935 0.94936 0.97937 1.1581 1.1818 1.1918 1.1451 1.154 1.1972 1.1539
2092.941 1.1942 1.2577 1.2522 1.2234 1.2667 1.3645 1.3937 1.357 1.3104 1.282
2112.231 1.2814 1.3214 1.2419 1.1634 1.1648 1.0502 1.0351 1.1052 1.2081 1.3301
2131.521 1.3127 1.2381 1.0563 0.99938 1.01772 1.00235 1.1614 1.2239 1.0508 1.1154
2150.810 1.3471 1.3869 1.3813 1.3894 1.2201 1.3879 1.5362 1.1575 1.0329 1.159
2170.100 1.2093 1.1832 1.2006 1.2569 1.204 1.0728 1.0637 1.0602 1.0634 1.0975
2189.390 1.2329 1.3431 1.1734 1.0305 1.0644 1.1109 1.1356 1.1264 1.2874 1.1993
2208.680 1.0787 1.1198 1.0507 1.1393 1.1577 1.1166 1.0895 1.1754 1.2008 0.98227
2227.970 1.1023 1.2476 0.987 0.8743 0.930251 1.0772 1.2378 1.2719 1.2405 1.1694
2247.259 1.0599 0.94351 0.92363 0.92488 1.0224 1.2077 1.1691 1.0422 1.1101 1.1963
2266.549 1.1411 0.97002 0.926821 0.93922 1.127 1.2461 1.01909 1.0617 1.2202 1.1982
2285.839 1.1353 1.0933 1.0981 1.1246 1.0314 0.95933 1.1141 1.2867 1.36 1.3176
2305.129 1.1906 1.1972 1.1109 1.1516 1.3819 1.2908 1.3064 1.4829 1.411 1.3835
2324.418 1.4222 1.2967 1.1788 1.0857 1.0334 1.01957 1.0619 1.2192 1.1752 1.0346
2343.708 1.00963 0.99538 0.93554 1.0279 1.3239 1.4157 1.4661 1.4775 1.3453 1.329
2362.998 1.3077 1.1629 1.2481 1.4899 1.28 1.0963 1.0545 0.95856 1.1539 1.3214
2382.288 1.2896 1.1069 1.0719 1.3 1.4265 1.375 1.3938 1.3908 1.2743 1.1267
2401.578 1.1645 1.351 1.2671 0.99673 0.92481 1.1741 1.1631 1.0595 1.0507 0.95509
2420.867 1.1101 1.00956 0.943 1.01865 0.825 0.76 0.935004 0.9157 0.8644 1.1087
2440.157 1.2957 1.3737 1.3297 1.287 1.1044 0.786 0.8629 0.822 0.705 0.801
2459.447 0.723 0.926038 1.1188 1.2207 1.2254 1.0378 1.1315 1.2126 1.245 1.1654
2478.737 1.01826 1.1245 1.032 0.8362 0.774 0.736 0.95156 1.1114 1.00122 1.00272
2498.026 1.14 1.01244 0.91955 1.00665 1.2813 1.3817 1.0506 1.00132 1.041 0.92318
2517.316 0.8454 0.8359 0.8503 0.97096 1.257 1.1689 0.9715 1.1712 1.0926 1.1629
2536.606 1.4564 1.336 1.188 1.0329 0.98584 1.0324 1.0657 0.98751 0.97453 1.0988
2555.896 1.0345 1.0831 1.1444 0.8762 1.0289 1.322 1.154 0.97748 1.159 1.4901
2575.186 1.3072 0.819 0.778 1.0632 1.1299 1.3139 1.4396 1.2845 1.2721 1.1464
2594.475 0.96424 0.798 0.628 0.787 0.98826 0.936125 0.732 0.777 0.92546 1.1606
2613.765 1.1143 0.82 0.92161 1.1124 1.2064 1.1723 1.1695 1.1082 0.784 0.808
2633.055 0.95068 0.907 0.868 0.631 0.563 0.713 0.8649 0.8606 0.789 0.8294
2652.345 0.8724 1.1017 1.1328 1.0087 0.8632 0.97308 1.2333 0.91786 0.773 1.1103
2671.634 1.1717 0.795 0.782 0.808 0.77 0.95 1.0346 1.0552 0.8939 0.783
2690.924 0.8 0.772 1.01717 1.2003 0.9095 0.94241 1.2157 1.1759 0.697 0.748
2710.214 1.2432 1.2637 1.1523 1.1009 0.97442 0.869 0.9047 0.781 0.821 1.0838
2729.504 0.8565 0.807 0.94917 0.94501 0.927683 0.824 0.8861 0.799 1.0304 1.3958
2748.794 1.1211 0.94164 1.2117 1.2805 1.1928 1.245 1.324 1.3775 1.2711 0.814
2768.083 0.748 1.2764 1.2807 0.8609 0.758 0.8609 1.0854 1.2699 1.1857 0.8782
2787.373 0.94041 1.1934 1.0949 0.75 0.699 0.8935 0.8379 0.783 0.926554 1.01966
2806.663 1.2123 1.0913 0.734 0.63 0.598 0.651 0.8296 1.00274 1.1234 1.0323
2825.953 0.799 0.769 0.767 0.97893 1.1331 1.2481 0.926201 0.653 0.96864 1.1895
2845.242 0.95902 0.822 0.96885 1.00676 0.94763 1.0353 1.3101 1.2846 0.96706 0.746
2864.532 1.0477 1.2713 1.3038 1.2044 0.94841 0.9782 1.2276 1.206 0.8824 0.98479
2883.822 1.276 0.95137 0.441 0.788 1.2485 0.95141 1.0335 0.8918 0.94726 1.3979
2903.112 1.3093 1.5289 1.5036 1.01945 0.95439 1.108 0.97928 1.0942 0.933516 0.9029
2922.401 1.0801 0.98877 1.2526 1.00774 0.99903 1.0489 0.94798 1.2047 1.0794 1.0792
2941.691 1.4239 1.1924 0.821 0.738 0.832 1.1941 1.1475 1.2728 1.5787 1.5989
2960.981 1.4151 1.0412 0.9073 0.768 0.659 0.762 0.824 0.8984 1.1373 1.12
2980.271 0.697 0.92071 1.3482 1.4917 1.5219 1.2908 1.2271 1.5413 1.6831 1.3657
2999.561 1.0271 1.0782 1.3664 1.7508 1.83 1.7351 1.4791 1.4534 1.921 2.157
3018.850 1.6742 1.3098 1.6388 1.8548 2.037 2.227 2.237 2.387 2.477 2.447
3038.140 2.777 3.337 4.207 4.857 5.027 5.077 5.157 5.357 5.297 5.277
3057.430 5.217 4.637 4.597 5.137 5.527 5.677 6.217 6.507 7.177 8.307
3076.720 8.917 9.257 8.857 8.707 8.407 7.767 7.107 6.447 5.617 4.767
3096.009 4.347 4.027 3.627 3.317 3.017 2.527 1.9169 1.4152 1.3751 1.5411
3115.299 1.475 1.3566 1.3559 1.3645 1.5316 0.95674 0.566 0.787 1.00417 1.1539
3134.589 1.1297 1.4737 1.2995 1.2981 1.6678 1.5084 1.3501 1.1864 1.1338 0.712
3153.879 0.693 0.94116 0.805 0.733 0.618 0.9035 0.8709 1.097 1.6082 1.1853
3173.169 0.811 1.0541 1.00514 0.8545 0.556 0.8673 1.4468 1.202 0.92948 0.94725
3192.458 1.164 1.1333 1.0789 0.755 0.723 1.0302 1.0297 0.9135 0.927325 0.8553
3211.748 0.93885 1.1119 1.1299 1.3272 1.3196 1.0477 0.8295 0.757 1.02442 1.395
3231.038 1.3872 1.0754 1.1179 1.3505 1.1277 0.8661 0.5 0.342 0.503 0.95177
3250.328 1.3452 1.0802 1.2888 1.631 1.088 0.775 1.0294 0.94899 0.806 0.557
3269.617 0.589 0.708 0.469 0.8936 1.00782 0.646 0.527 0.91799 1.01614 0.8594
3288.907 0.9574 0.8906 0.72 0.9015 1.4769 1.2025 0.97305 1.1495 1.2442 1.2582
3308.197 0.812 0.795 1.2544 1.3912 1.094 1.2675 1.4268 1.2183 1.3248 1.7311
3327.487 1.967 1.5311 1.1711 0.729 0.95668 1.3937 1.1513 0.9064 1.01191 0.97679
3346.777 1.1885 1.0985 0.598 0.8991 1.4195 0.96016 0.94884 1.4935 1.3858 1.5129
3366.066 1.1132 0.8803 1.0403 1.1121 1.2483 1.343 1.4648 1.0538 0.97758 0.797
3385.356 0.436 0.666 0.775 0.8768 0.9148 0.809 0.596 0.379 0.504 0.757
3404.646 0.615 0.787 1.00574 1.0951 1.2219 1.296 1.3528 0.896 0.737 1.4383
3423.936 1.5027 1.2785 1.2709 0.97348 0.95154 0.99028 1.01434 1.02508 1.0512 1.2796
3443.225 1.2787 1.0099 1.1381 1.1653 1.4132 1.8208 1.1829 0.599 0.96218 1.0719
3462.515 0.576 0.607 0.8583 0.94409 1.01417 1.1005 1.3696 1.0289 0.726 1.0518
3481.805 1.2938 1.4065 1.3619 1.4993 1.00468 0.706 0.823 1.1266 1.3686 0.96233
3501.095 0.8708 1.0484 0.92494 0.705 0.9081 1.0785 0.886 0.8781 1.2786 1.6686
3520.385 1.4429 1.1501 1.4172 1.2599 1.2428 1.8747 1.9018 1.8262 1.8589 1.4082
3539.674 1.0304 0.8778 1.2734 1.3855 1.1009 0.92523 0.394 0.796 1.01727 0.555
3558.964 0.589 0.702 1.0915 1.0768 0.8887 1.0965 0.8979 0.769 1.1071 1.2389
3578.254 0.96889 0.355 0.282 0.641 0.838 1.3598 1.5511 1.01168 1.1497 1.6748
3597.544 2.047 1.957 1.2335 1.2826 1.7072 1.7758 1.2101 0.96287 1.2202 1.1017
3616.833 0.94474 0.9052 0.792 1.2668 1.2955 0.97721 1.2217 1.3188 1.6117 1.2549
3636.123 0.68 0.578 0.66 0.774 0.8458 1.2988 1.4579 0.99963 0.586 0.516
3655.413 1.0359 1.0755 0.642 1.1103 0.822 0 0.618 1.5488 1.3852 1.0603
3674.703 1.2575 1.1998 0.932692 0.8838 0.97553 1.0433 1.6783 2.027 1.0743 0.595
3693.993 0.804 0.8358 0.8798 0.596 0.597 1.0478 0.823 0.8662 1.3791 1.2629
3713.282 0.626 0.455 0.798 0.717 0.648 0.76 0.824 0.97364 0.94341 0.95437
3732.572 0.748 0.438 0.393 0.723 0.8758 0.57 0.8392 1.139 1.2428 1.1211
3751.862 1.2518 1.7504 1.2837 0.95793 1.3326 1.0399 0.78 0.822 0.8729 0.94899
3771.152 0.687 0.8514 1.0998 0.8467 0.669 0.789 0.935386 0.774 0.803 1.0681
3790.441 1.1146 0.97352 0.722 0.52 1.1727 1.3554 1.1546 1.2572 0.624 0.447
3809.731 1.0452 1.5469 1.6919 1.6255 1.3394 0.812 1.0539 1.5092 0.837 0.404
3829.021 0.463 0.686 0.8492 0.407 0.334 0.655 0.9112 0.92351 1.0595 1.4173
3848.311 1.3941 1.2113 1.0884 1.2218 1.4813 1.3146 0.99825 0.722 0.77 1.0989
3867.601 1.0574 1.0645 1.2589 0.71 0.372 0.936629 1.3258 1.2325 1.2035 0.97232
3886.890 0.97375 1.2208 1.388 1.6777 1.641 1.6137 1.5397 1.2856 1.0795 1.00876
3906.180 1.2924 1.7189 1.4075 0.94813 1.4646 1.5661 0.653 0.764 1.2901 1.1352
3925.470 1.0456 1.0473 0.539 0.401 0.931286 1.0641 1.0997 1.5083 1.3786 0.767
3944.760 0.815 0.8565 0.655 0.076 0.116 0.749 0.771 0.769 0.682 0.858
3964.049 0.927846 0.98034 1.2561 0.8285 0.803 1.2161 1.2746 1.5238 1.5124 1.5177
3983.339 1.456 1.3165 1.2243 0.98443 0.98224 1.2498 1.1597 0.542 0.598 0.71
##END=
