##TITLE=N-Octadecyl m-nitrobenzamide
##JCAMP-DX=4.24
##DATA TYPE=INFRARED SPECTRUM
##ORIGIN=EPA-IR VAPOR PHASE LIBRARY
##OWNER=SRD/NIST
Collection (C) 2018 copyright by the U.S. Secretary of Commerce
on behalf of the United States of America. All rights reserved.
##CAS REGISTRY NO=109799-65-7
##MOLFORM=C 25 H 42 N 2 O 3
##$NIST SOURCE=MSDC-IR
##STATE=gas
##XUNITS=1/CM
##YUNITS=ABSORBANCE
##XFACTOR=1.
##YFACTOR=0.001
##DELTAX=1.92898
##FIRSTX=549.8
##LASTX=4000.7
##FIRSTY=0.3874
##MAXX=4000.7
##MINX=549.759
##MAXY=0.02425
##MINY=0.00008586
##NPOINTS=1790
##XYDATA=(X++(Y..Y))
549.759 0.3874 0.3148 0.3911 0.5206 0.5306 0.3414 0.3816 0.4321 0.3595 0.3933
569.049 0.3923 0.2814 0.4118 0.5994 0.5656 0.5867 0.4243 0.256 0.2881 0.1676
588.339 0.2358 0.3369 0.2031 0.2663 0.2281 0.1588 0.2173 0.3031 0.4989 0.4838
607.628 0.4123 0.3477 0.2729 0.2876 0.2589 0.2229 0.3039 0.4061 0.331 0.2353
626.918 0.2984 0.3601 0.2206 0.1911 0.3992 0.5012 0.4507 0.4139 0.3607 0.3276
646.208 0.4427 0.5088 0.4874 0.593 0.6613 0.629 0.4821 0.4882 0.5561 0.5289
665.498 0.4332 0.3498 0.5928 0.7535 0.7395 0.7382 0.7547 0.6132 0.4279 0.5018
684.787 0.6668 0.7543 0.831 0.9064 0.9354 1.01 1.21 1.35 1.48 1.88
704.077 2.3 2.42 2.62 2.91 3.13 3.44 3.7 3.66 3.5 3.17
723.367 2.73 2.43 2.08 1.72 1.59 1.46 1.26 1.09 0.8834 0.7809
742.657 0.7404 0.7208 0.7963 0.8283 0.7264 0.7071 0.6651 0.5567 0.559 0.5804
761.947 0.6654 0.701 0.6602 0.7016 0.6722 0.569 0.6079 0.6464 0.6274 0.7257
781.236 0.6594 0.5469 0.573 0.631 0.6939 0.7713 0.8388 0.8669 0.8833 0.9419
800.526 1.03 0.9764 0.9552 1.01 1.05 1.1 1.1 1.14 1.05 0.9469
819.816 0.9033 0.8398 0.8675 0.8453 0.7291 0.736 0.7934 0.754 0.7409 0.7622
839.106 0.7687 0.7929 0.8063 0.7033 0.6927 0.6806 0.6895 0.69 0.6123 0.6945
858.395 0.808 0.8144 0.7733 0.7006 0.7404 0.7036 0.6817 0.7034 0.6741 0.6732
877.685 0.7431 0.811 0.8111 0.8403 0.8234 0.843 0.8312 0.9064 0.9562 0.8746
896.975 0.8851 0.8644 0.8043 0.8538 0.886 0.9174 0.9281 0.9598 0.9195 0.7328
916.265 0.6478 0.6347 0.6364 0.6875 0.628 0.5364 0.579 0.5594 0.5317 0.6112
935.555 0.566 0.4811 0.5704 0.5573 0.4874 0.4713 0.438 0.2927 0.2129 0.2936
954.844 0.2983 0.3177 0.3786 0.2997 0.1501 0.09849 0.2262 0.3221 0.2293 0.2333
974.134 0.2021 0.2303 0.2777 0.2823 0.3352 0.2967 0.2671 0.2417 0.3255 0.3909
993.424 0.2874 0.2175 0.1458 0.08586 0.1292 0.2535 0.4195 0.5395 0.4798 0.4018
1012.714 0.4467 0.4174 0.4405 0.6243 0.5987 0.4585 0.4594 0.4492 0.3315 0.3888
1032.003 0.5977 0.7004 0.6131 0.4861 0.5939 0.6338 0.3657 0.2984 0.4596 0.4858
1051.293 0.533 0.4909 0.5895 0.7584 0.7188 0.7169 0.7359 0.8604 1.05 0.8787
1070.583 0.5395 0.5918 0.7519 0.8191 1.09 1.15 0.9386 0.9232 1.03 1.23
1089.873 1.19 0.9487 0.7707 0.9434 0.9836 0.7079 0.6066 0.6891 0.8091 0.4962
1109.163 0.2967 0.3293 0.5285 0.8146 0.848 0.7397 0.5281 0.6803 0.9167 0.6639
1128.452 0.6694 0.7444 0.57 0.6765 0.8103 0.8132 1.15 1.38 1.47 1.78
1147.742 1.98 1.94 2.03 2.19 2.06 1.89 1.77 1.69 1.43 1.24
1167.032 1.24 1.16 1.11 1.09 1.08 1.11 1.19 1.06 1.04 1.1
1186.322 0.9393 1.05 1.12 1.23 1.4 1.15 1.19 1.52 1.51 1.31
1205.611 1.28 1.29 1.6 1.83 1.83 1.72 1.6 1.65 1.83 1.97
1224.901 1.83 1.65 1.69 1.75 1.67 1.72 1.94 2.14 2.2 2.2
1244.191 2.16 2.33 2.69 2.87 3.03 3.25 3.43 3.56 3.57 3.66
1263.481 3.73 3.69 3.57 3.38 3.18 2.87 2.53 2.35 2.31 2.3
1282.771 2.39 2.5 2.62 2.67 2.68 2.65 2.54 2.52 2.53 2.62
1302.060 2.61 2.55 2.51 2.47 2.42 2.35 2.26 2.19 2.14 2.08
1321.350 2.01 1.97 1.99 1.99 2.05 2.22 2.39 2.64 3.05 3.54
1340.640 3.94 4.37 5.06 5.83 6.53 7.1 7.32 7.12 6.58 5.81
1359.930 5.03 4.32 3.65 3.06 2.64 2.35 2.14 1.99 1.8 1.7
1379.219 1.64 1.58 1.51 1.46 1.49 1.36 1.21 1.24 1.26 1.21
1398.509 1.2 1.11 1.09 1.14 1.1 1.08 1.11 1.1 1.12 1.21
1417.799 1.34 1.33 1.24 1.32 1.39 1.48 1.56 1.61 1.69 1.93
1437.089 2.11 2.11 2.2 2.35 2.54 2.67 2.81 2.98 3.12 3.33
1456.378 3.69 3.77 3.74 3.87 4 4.1 4.22 4.31 4.39 4.35
1475.668 4.15 3.91 3.72 3.63 3.63 3.78 4.06 4.45 4.84 5.26
1494.958 5.89 6.59 7.21 7.79 8.27 8.61 8.89 8.81 8.36 7.75
1514.248 7.06 6.5 5.98 5.57 5.11 4.68 4.54 4.4 4.3 4.42
1533.538 4.62 4.9 5.31 5.93 6.69 7.42 7.93 7.92 7.53 6.69
1552.827 5.68 4.76 4.02 3.46 2.92 2.51 2.28 2.09 2 1.98
1572.117 1.92 1.86 1.85 1.84 1.8 1.79 1.7 1.66 1.63 1.58
1591.407 1.53 1.52 1.5 1.46 1.47 1.46 1.51 1.55 1.54 1.58
1610.697 1.69 1.79 1.83 1.89 1.9 1.81 1.69 1.5 1.41 1.37
1629.986 1.27 1.23 1.24 1.27 1.29 1.3 1.31 1.36 1.46 1.51
1649.276 1.51 1.53 1.65 1.71 1.69 1.76 1.81 1.83 1.86 1.93
1668.566 1.99 2.03 2.12 2.25 2.39 2.52 2.73 2.93 3.17 3.49
1687.856 3.94 4.51 5.16 6.05 7.08 7.92 8.52 8.69 8.33 7.6
1707.146 6.63 5.69 4.78 4.03 3.54 3.2 2.87 2.55 2.35 2.16
1726.435 2.02 1.96 1.91 1.87 1.84 1.64 1.49 1.47 1.43 1.38
1745.725 1.29 1.24 1.31 1.32 1.19 1.15 1.13 1.08 1.05 0.9872
1765.015 0.9449 1.03 1.02 0.9201 0.887 0.914 0.9443 0.9168 0.904 0.9023
1784.305 0.9426 0.8802 0.8343 0.9125 0.9618 0.9137 0.8713 0.8518 0.9049 0.9566
1803.594 0.8483 0.7941 0.8271 0.8433 0.8406 0.8439 0.8447 0.8617 0.8506 0.8297
1822.884 0.8267 0.8485 0.828 0.808 0.8152 0.8123 0.8279 0.8266 0.8056 0.8112
1842.174 0.8668 0.8647 0.8509 0.8403 0.7674 0.732 0.7784 0.8472 0.8242 0.8077
1861.464 0.8324 0.83 0.8255 0.8159 0.8418 0.8221 0.7832 0.7631 0.7601 0.7931
1880.754 0.7891 0.7966 0.7975 0.764 0.7907 0.7768 0.7614 0.8019 0.7973 0.7871
1900.043 0.7733 0.7647 0.7654 0.7683 0.8007 0.8302 0.8303 0.8007 0.8085 0.8463
1919.333 0.8611 0.9051 0.8586 0.7662 0.7934 0.7869 0.7668 0.7859 0.7669 0.7629
1938.623 0.7726 0.7828 0.7838 0.7668 0.7575 0.7771 0.7943 0.7828 0.7686 0.7815
1957.913 0.8276 0.8202 0.7907 0.7679 0.768 0.7913 0.7965 0.7885 0.7758 0.7453
1977.202 0.76 0.7746 0.7634 0.7851 0.8065 0.7929 0.7834 0.8024 0.7788 0.7623
1996.492 0.7506 0.7407 0.7621 0.787 0.7683 0.7694 0.7627 0.7229 0.7451 0.7667
2015.782 0.7769 0.8111 0.8025 0.7823 0.7905 0.7795 0.7763 0.7941 0.7958 0.7821
2035.072 0.8192 0.8401 0.8078 0.7973 0.8022 0.8017 0.8048 0.8208 0.8216 0.8219
2054.362 0.8117 0.7878 0.7543 0.7694 0.8047 0.796 0.7951 0.7913 0.7906 0.8147
2073.651 0.7959 0.7711 0.8088 0.8318 0.8148 0.827 0.8253 0.7732 0.7883 0.815
2092.941 0.8226 0.8335 0.8019 0.7761 0.7902 0.8089 0.8204 0.8164 0.7896 0.7934
2112.231 0.8252 0.8287 0.8413 0.8561 0.8255 0.7869 0.7635 0.75 0.7859 0.7983
2131.521 0.7884 0.816 0.8216 0.8153 0.8354 0.8459 0.8075 0.7892 0.7901 0.8132
2150.810 0.8156 0.8059 0.7988 0.7872 0.7903 0.8089 0.8568 0.8761 0.8561 0.8606
2170.100 0.8628 0.8486 0.8513 0.8608 0.8527 0.8159 0.8108 0.8147 0.8103 0.834
2189.390 0.8441 0.8386 0.8422 0.8596 0.8524 0.8323 0.8256 0.8341 0.8384 0.8135
2208.680 0.826 0.8425 0.8592 0.8339 0.8144 0.8576 0.8313 0.855 0.8682 0.844
2227.970 0.8485 0.8183 0.8523 0.8569 0.7983 0.7983 0.8265 0.8526 0.8493 0.8428
2247.259 0.8658 0.8819 0.8952 0.8569 0.8776 0.9091 0.8516 0.8205 0.8375 0.8504
2266.549 0.8644 0.9034 0.903 0.8777 0.8619 0.9054 0.9349 0.9101 0.8768 0.8988
2285.839 0.9111 0.8878 0.8554 0.8819 0.9534 0.9724 1 1 0.9995 0.948
2305.129 0.8899 0.9196 0.952 0.9864 0.9616 0.9134 0.9189 0.9013 0.8674 0.8482
2324.418 0.8576 0.8531 0.8411 0.8075 0.78 0.7503 0.7246 0.7247 0.778 0.8381
2343.708 0.8518 0.8562 0.9077 0.9694 0.9276 0.8098 0.7356 0.704 0.6189 0.5612
2362.998 0.5897 0.6373 0.6835 0.7513 0.8322 0.9159 0.9388 0.9464 0.9316 0.931
2382.288 0.9085 0.8795 0.9128 0.9233 0.9218 0.9209 0.9079 0.9168 0.9117 0.8577
2401.578 0.8457 0.8479 0.87 0.9364 0.9187 0.8786 0.9084 0.9134 0.937 0.9431
2420.867 0.9385 0.9472 0.9175 0.91 0.9048 0.9125 0.9202 0.9265 0.9535 0.9644
2440.157 0.9867 0.9773 0.8996 0.8808 0.8918 0.9006 0.9458 0.9286 0.8985 0.9085
2459.447 0.9248 0.8935 0.8804 0.9361 0.9614 0.925 0.9021 0.91 0.8926 0.9521
2478.737 0.9667 0.9099 0.928 0.9444 0.9636 1 1.02 0.9684 0.9162 0.922
2498.026 0.9379 0.9475 0.9624 0.9512 0.9507 0.9245 0.9172 0.9562 0.9402 0.8851
2517.316 0.9118 0.9503 0.9731 1.01 0.9816 0.9848 0.982 0.9667 0.9535 0.9502
2536.606 0.991 0.9913 0.9363 0.9548 0.9819 0.9495 0.9682 0.995 0.9784 1.03
2555.896 1.05 1.02 1.04 1.01 0.961 0.9742 1.03 1.04 1.06 1.05
2575.186 0.9995 0.9851 0.9634 0.9971 1.01 1.03 1.1 1.07 1.05 1.07
2594.475 1.01 1.01 1.05 1.03 1.06 1.07 1.09 1.05 1.01 1.01
2613.765 1 1.05 1.11 1.08 1.04 1.09 1.09 1.07 1.08 1.07
2633.055 1.06 1.05 1.05 1.05 1.12 1.17 1.1 1.08 1.1 1.05
2652.345 1.07 1.17 1.2 1.15 1.13 1.2 1.19 1.18 1.23 1.17
2671.634 1.11 1.11 1.17 1.2 1.17 1.18 1.16 1.16 1.21 1.15
2690.924 1.14 1.16 1.21 1.25 1.28 1.29 1.17 1.11 1.13 1.19
2710.214 1.22 1.23 1.2 1.19 1.27 1.22 1.12 1.12 1.21 1.2
2729.504 1.16 1.23 1.21 1.19 1.24 1.21 1.22 1.25 1.21 1.2
2748.794 1.22 1.23 1.23 1.22 1.17 1.23 1.25 1.23 1.27 1.26
2768.083 1.29 1.3 1.28 1.3 1.26 1.24 1.32 1.38 1.38 1.38
2787.373 1.39 1.42 1.48 1.52 1.48 1.51 1.55 1.54 1.56 1.52
2806.663 1.53 1.58 1.64 1.68 1.71 1.8 1.9 1.92 1.89 1.88
2825.953 1.95 2.07 2.15 2.26 2.38 2.48 2.61 2.78 2.95 3.2
2845.242 3.56 3.95 4.47 5.15 6.01 6.98 7.9 8.68 9.27 9.54
2864.532 9.32 8.87 8.34 7.65 7 6.47 6.05 5.69 5.4 5.27
2883.822 5.2 5.14 5.12 5.11 5.2 5.26 5.34 5.56 5.91 6.37
2903.112 6.75 7.18 7.73 8.33 9 9.74 10.54 11.57 12.81 14.3
2922.401 16.05 17.98 20.12 22.12 23.55 24.25 24.09 23.05 21.41 19.44
2941.691 17.36 15.33 13.46 11.87 10.49 9.32 8.4 7.63 7.09 6.71
2960.981 6.43 6.25 6.07 5.72 5.43 5.1 4.66 4.32 3.94 3.56
2980.271 3.26 3.02 2.82 2.74 2.58 2.38 2.27 2.13 2.04 2.01
2999.561 1.94 1.85 1.85 1.81 1.74 1.71 1.69 1.69 1.7 1.69
3018.850 1.6 1.58 1.59 1.58 1.63 1.62 1.59 1.51 1.46 1.48
3038.140 1.48 1.49 1.52 1.49 1.52 1.51 1.45 1.43 1.42 1.45
3057.430 1.45 1.4 1.41 1.48 1.48 1.54 1.62 1.59 1.57 1.64
3076.720 1.67 1.68 1.65 1.66 1.65 1.65 1.68 1.62 1.65 1.61
3096.009 1.49 1.43 1.43 1.44 1.43 1.42 1.4 1.39 1.36 1.32
3115.299 1.3 1.31 1.34 1.41 1.45 1.36 1.35 1.38 1.43 1.52
3134.589 1.48 1.39 1.36 1.42 1.41 1.39 1.43 1.42 1.39 1.43
3153.879 1.44 1.45 1.5 1.46 1.45 1.45 1.41 1.43 1.42 1.39
3173.169 1.47 1.46 1.39 1.43 1.49 1.52 1.47 1.4 1.43 1.46
3192.458 1.46 1.47 1.52 1.46 1.42 1.47 1.52 1.54 1.45 1.44
3211.748 1.48 1.46 1.44 1.41 1.44 1.52 1.51 1.47 1.47 1.47
3231.038 1.49 1.49 1.47 1.42 1.34 1.41 1.32 1.22 1.32 1.42
3250.328 1.44 1.47 1.54 1.54 1.48 1.4 1.37 1.33 1.26 1.28
3269.617 1.35 1.33 1.39 1.42 1.41 1.45 1.37 1.39 1.43 1.35
3288.907 1.34 1.39 1.42 1.45 1.46 1.37 1.33 1.37 1.4 1.45
3308.197 1.41 1.31 1.35 1.32 1.32 1.35 1.33 1.36 1.4 1.4
3327.487 1.39 1.37 1.38 1.35 1.22 1.16 1.24 1.31 1.32 1.27
3346.777 1.27 1.28 1.24 1.3 1.42 1.43 1.37 1.38 1.36 1.32
3366.066 1.27 1.24 1.24 1.23 1.22 1.25 1.32 1.4 1.38 1.34
3385.356 1.33 1.36 1.34 1.29 1.31 1.29 1.28 1.23 1.23 1.25
3404.646 1.26 1.33 1.35 1.33 1.31 1.28 1.23 1.19 1.18 1.25
3423.936 1.31 1.33 1.26 1.23 1.28 1.19 1.2 1.36 1.4 1.33
3443.225 1.3 1.3 1.23 1.22 1.29 1.33 1.38 1.46 1.45 1.44
3462.515 1.47 1.47 1.5 1.51 1.51 1.5 1.51 1.55 1.52 1.51
3481.805 1.48 1.44 1.43 1.42 1.38 1.32 1.32 1.25 1.15 1.19
3501.095 1.28 1.28 1.18 1.12 1.18 1.26 1.23 1.12 1.12 1.16
3520.385 1.18 1.19 1.22 1.2 1.12 1.14 1.1 1.06 1.11 1.17
3539.674 1.2 1.23 1.26 1.28 1.22 1.14 1.12 1.21 1.29 1.33
3558.964 1.35 1.3 1.21 1.28 1.48 1.44 1.26 1.19 1.11 1.13
3578.254 1.21 1.1 0.9988 1.13 1.24 1.34 1.27 1.14 1.18 1.14
3597.544 1.11 1.09 1.13 1.25 1.31 1.31 1.25 1.24 1.2 1.19
3616.833 1.3 1.28 1.17 1.1 1.1 1.21 1.37 1.26 1.13 1.17
3636.123 1.18 1.14 1.13 1.12 1.1 1.14 1.12 1.15 1.13 1.13
3655.413 1.17 1.19 1.18 1.12 1.13 1.18 1.21 1.19 1.18 1.13
3674.703 1.2 1.26 1.21 1.21 1.19 1.17 1.23 1.18 1.17 1.21
3693.993 1.15 1.16 1.13 1.16 1.23 1.09 1.06 1.19 1.19 1.2
3713.282 1.26 1.2 1.13 1.19 1.29 1.39 1.43 1.38 1.28 1.2
3732.572 1.24 1.41 1.42 1.28 1.24 1.27 1.31 1.26 1.21 1.21
3751.862 1.18 1.25 1.27 1.27 1.24 1.07 1.02 1.15 1.2 1.08
3771.152 1.06 1.16 1.18 1.16 1.22 1.22 1.2 1.18 1.16 1.22
3790.441 1.25 1.18 1.15 1.24 1.27 1.17 1.12 1.18 1.16 1.12
3809.731 1.14 1.14 1.22 1.22 1.16 1.22 1.24 1.2 1.3 1.33
3829.021 1.26 1.24 1.25 1.23 1.26 1.35 1.18 1.08 1.17 1.15
3848.311 1.13 1.28 1.42 1.44 1.33 1.2 1.21 1.23 1.19 1.16
3867.601 1.18 1.32 1.35 1.33 1.33 1.33 1.32 1.15 1.09 1.18
3886.890 1.2 1.15 1.2 1.31 1.27 1.21 1.28 1.37 1.35 1.37
3906.180 1.34 1.26 1.22 1.16 1.18 1.23 1.27 1.28 1.31 1.32
3925.470 1.32 1.29 1.33 1.38 1.37 1.26 1.18 1.28 1.28 1.25
3944.760 1.25 1.23 1.25 1.27 1.26 1.22 1.25 1.29 1.36 1.35
3964.049 1.27 1.21 1.15 1.16 1.14 1.17 1.25 1.22 1.19 1.23
3983.339 1.25 1.22 1.15 1.22 1.23 1.21 1.26 1.19 1.14 1.18
##END=
