##TITLE=4-Chlorobenzyl diphenyl carbinol
##JCAMP-DX=4.24
##DATA TYPE=INFRARED SPECTRUM
##ORIGIN=EPA-IR VAPOR PHASE LIBRARY
##OWNER=SRD/NIST
Collection (C) 2018 copyright by the U.S. Secretary of Commerce
on behalf of the United States of America. All rights reserved.
##CAS REGISTRY NO=109936-21-2
##MOLFORM=C 20 H 17 Cl O
##$NIST SOURCE=MSDC-IR
##STATE=gas
##XUNITS=1/CM
##YUNITS=ABSORBANCE
##XFACTOR=1.
##YFACTOR=0.001
##DELTAX=1.92898
##FIRSTX=549.8
##LASTX=4000.7
##FIRSTY=1.517
##MAXX=4000.7
##MINX=549.759
##MAXY=0.033347
##MINY=0
##NPOINTS=1790
##XYDATA=(X++(Y..Y))
549.759 1.517 2.667 2.497 2.227 2.627 2.327 1.977 1.617 1.787 1.647
569.049 1.327 1.407 1.727 1.547 1.287 2.097 2.237 1.887 1.827 2.347
588.339 3.537 4.347 5.557 7.617 9.177 9.677 10.207 9.667 7.847 6.657
607.628 5.737 4.497 3.467 3.027 3.277 3.327 3.167 3.567 4.507 5.587
626.918 5.787 5.397 5.217 4.787 3.807 2.777 2.077 2.127 2.017 1.797
646.208 2.177 2.477 2.567 2.477 2.547 2.857 3.597 4.427 4.787 5.097
665.498 5.887 7.127 8.137 8.367 8.097 7.867 7.787 7.647 7.827 8.397
684.787 9.817 11.607 13.567 16.367 20.387 25.337 29.267 31.247 30.967 27.937
704.077 23.417 19.337 15.757 12.767 10.497 9.307 8.717 8.387 8.987 10.347
723.367 11.607 12.267 12.197 11.047 9.307 7.857 6.887 6.207 5.687 5.627
742.657 6.427 7.467 8.487 9.257 9.957 10.777 10.717 10.097 9.807 9.617
761.947 8.717 8.287 8.297 7.877 7.667 7.507 6.567 5.537 4.707 3.737
781.236 3.437 3.597 3.317 3.117 3.447 3.457 3.817 4.367 4.487 4.937
800.526 5.677 6.267 7.017 7.527 7.897 8.217 9.037 9.947 10.937 12.557
819.816 13.247 12.767 11.447 10.237 8.777 6.707 5.457 5.017 4.717 4.277
839.106 3.737 3.237 2.857 2.937 2.787 2.597 2.357 2.347 2.427 2.087
858.395 2.107 2.147 2.427 2.687 2.957 3.147 3.437 3.337 2.977 2.957
877.685 2.537 2.047 1.957 1.957 1.817 1.777 2.007 2.167 2.047 2.247
896.975 2.597 2.967 3.267 3.697 3.697 3.277 3.577 3.657 3.087 2.507
916.265 2.147 2.127 2.327 2.277 2.187 2.177 2.427 2.637 2.307 2.697
935.555 3.077 3.047 3.337 3.067 2.487 2.507 2.947 3.137 2.647 2.417
954.844 2.427 2.217 2.397 2.387 2.107 2.117 2.337 2.587 2.977 2.887
974.134 2.927 2.947 2.777 2.997 3.067 3.307 3.807 3.997 3.987 4.267
993.424 5.097 5.647 5.967 6.527 6.917 7.317 7.457 7.647 9.027 11.397
1012.714 14.807 17.977 18.797 17.327 14.197 10.557 8.357 8.287 8.977 9.477
1032.003 9.487 9.327 9.677 9.667 10.327 10.657 10.087 9.607 8.097 7.817
1051.293 7.707 6.467 6.147 6.247 4.847 4.007 4.537 4.837 4.717 3.947
1070.583 4.687 5.917 6.267 6.927 8.237 8.297 8.107 8.327 7.807 9.267
1089.873 11.357 12.947 15.567 18.347 20.187 19.437 15.967 14.177 13.377 10.267
1109.163 8.037 7.707 6.407 5.567 5.377 4.857 3.937 3.947 3.927 3.717
1128.452 3.987 3.337 2.887 2.987 3.287 3.807 3.167 2.577 3.887 4.887
1147.742 4.487 4.467 4.617 4.197 4.187 4.527 4.627 4.377 4.267 4.397
1167.032 5.127 5.427 4.407 4.307 4.507 4.827 5.257 5.177 5.427 5.357
1186.322 5.747 6.947 6.767 5.217 5.397 6.177 5.527 4.847 5.037 5.027
1205.611 5.027 5.557 5.787 5.597 5.257 4.517 4.737 5.547 5.187 5.247
1224.901 5.757 5.947 6.257 6.167 5.637 5.257 4.907 4.877 5.367 5.527
1244.191 5.307 5.107 4.687 4.477 4.577 4.557 4.847 4.797 4.587 5.127
1263.481 4.807 4.467 4.657 4.687 4.627 4.737 5.137 5.087 5.197 5.517
1282.771 5.457 5.747 5.887 5.497 5.427 5.137 4.927 4.987 4.797 4.847
1302.060 4.947 4.917 5.027 5.197 5.247 5.177 5.217 5.377 5.697 5.917
1321.350 6.097 6.337 6.477 6.507 6.677 6.997 7.287 7.387 7.267 7.237
1340.640 7.217 7.037 6.777 6.537 6.297 5.927 5.557 5.257 4.927 4.567
1359.930 4.207 3.947 3.707 3.407 3.277 3.177 3.047 2.927 2.757 2.657
1379.219 2.687 2.557 2.427 2.417 2.367 2.307 2.427 2.527 2.557 2.617
1398.509 2.827 3.087 3.107 3.267 3.527 3.557 3.417 3.357 3.267 3.087
1417.799 3.007 2.927 2.867 2.917 3.197 3.547 3.887 4.247 4.727 5.357
1437.089 6.217 7.237 8.207 9.057 9.777 10.227 9.907 8.857 7.597 6.577
1456.378 5.597 4.717 4.147 3.847 3.837 3.747 3.777 4.187 4.597 5.117
1475.668 6.077 7.387 9.077 11.447 14.687 18.797 23.517 28.257 31.957 33.347
1494.958 31.677 27.387 21.827 16.247 11.787 8.907 7.017 5.617 4.637 3.757
1514.248 3.117 2.867 2.627 2.477 2.387 2.137 1.887 1.757 1.697 1.607
1533.538 1.597 1.637 1.637 1.557 1.447 1.417 1.307 1.0654 0.9414 1.066
1552.827 1.076 1.1227 1.217 1.1814 1.317 1.427 1.427 1.597 1.567 1.517
1572.117 1.747 1.847 1.857 1.977 2.097 2.317 2.787 3.287 3.667 4.057
1591.407 4.697 5.147 5.327 5.377 5.237 5.067 4.597 3.967 3.367 2.887
1610.697 2.237 1.777 1.817 1.867 1.637 1.457 1.417 1.427 1.527 1.267
1629.986 1.1829 1.307 1.217 1.1517 1.347 1.487 1.337 1.257 1.187 1.227
1649.276 1.227 1.1573 1.247 1.287 1.1793 1.1171 1.1065 1.1108 1.0001 0.8247
1668.566 0.9833 1.1106 1.1484 1.0234 0.7786 0.8337 0.9474 0.9749 0.9971 0.9906
1687.856 0.8741 0.7748 0.8047 0.7853 0.711 0.7089 0.7793 0.7523 0.7335 0.8031
1707.146 0.8273 0.8087 0.8076 0.9441 0.9007 0.7232 0.7546 0.7476 0.6725 0.7918
1726.435 0.9725 0.9674 0.9563 1.0033 1.0757 1.1379 1.187 1.1186 1.0276 1.0039
1745.725 0.8958 0.9314 1.1586 1.1807 0.9641 1.011 1.1068 1.0503 1.081 1.1368
1765.015 1.197 1.257 1.247 1.367 1.487 1.407 1.427 1.477 1.327 1.287
1784.305 1.337 1.307 1.347 1.467 1.657 1.767 1.787 1.837 1.897 1.847
1803.594 1.727 1.657 1.617 1.487 1.357 1.277 1.217 1.257 1.0901 0.9747
1822.884 0.9679 0.8481 0.7369 0.7388 0.7685 0.6935 0.7341 0.6958 0.5813 0.6295
1842.174 0.7311 0.6535 0.6543 0.7017 0.7582 0.8942 0.8338 0.7434 0.7883 0.9627
1861.464 1.1647 1.1663 1.1686 1.257 1.227 1.237 1.347 1.547 1.637 1.717
1880.754 1.867 1.937 1.947 1.887 1.887 1.897 1.817 1.607 1.477 1.387
1900.043 1.287 1.1863 1.187 1.217 1.1147 1.0374 0.928 0.7872 0.8465 0.9266
1919.333 0.927 0.8653 0.8537 1.0142 1.1382 1.1058 0.9577 1.0124 1.1725 1.277
1938.623 1.487 1.707 1.787 1.837 1.737 1.617 1.627 1.547 1.597 1.687
1957.913 1.597 1.467 1.337 1.217 1.117 0.9665 0.866 0.7687 0.6174 0.5855
1977.202 0.6351 0.5466 0.5625 0.6637 0.5925 0.5846 0.5795 0.6233 0.5918 0.4101
1996.492 0.4238 0.5322 0.478 0.28079 0.3076 0.423 0.4321 0.4103 0.3371 0.3627
2015.782 0.4501 0.4449 0.4815 0.6248 0.6597 0.5691 0.446 0.3844 0.4116 0.4129
2035.072 0.3781 0.3918 0.4311 0.3886 0.4072 0.4469 0.3721 0.308 0.3972 0.3713
2054.362 0.23341 0.3596 0.4597 0.453 0.4029 0.4808 0.5716 0.545 0.4889 0.4652
2073.651 0.4505 0.3287 0.3992 0.4504 0.4091 0.4717 0.3926 0.365 0.5008 0.4902
2092.941 0.3915 0.4091 0.3754 0.25175 0.25769 0.3542 0.4269 0.313 0.3323 0.4256
2112.231 0.4167 0.5621 0.6176 0.5112 0.3907 0.3027 0.2652 0.27366 0.3028 0.32
2131.521 0.5184 0.5693 0.4386 0.4812 0.4559 0.3467 0.23264 0.3026 0.335 0.28387
2150.810 0.3068 0.27719 0.3102 0.4377 0.429 0.2986 0.3192 0.4059 0.3614 0.296
2170.100 0.2811 0.308 0.3208 0.388 0.4035 0.3553 0.2984 0.3049 0.349 0.19873
2189.390 0.1681 0.3026 0.3389 0.3264 0.23354 0.2655 0.2728 0.24404 0.4603 0.5628
2208.680 0.3483 0.26259 0.371 0.3897 0.3773 0.3305 0.3524 0.4246 0.4609 0.4565
2227.970 0.3232 0.23573 0.4068 0.4437 0.4724 0.4802 0.4555 0.5367 0.5029 0.4405
2247.259 0.3244 0.3657 0.5165 0.3831 0.21256 0.3704 0.5188 0.4375 0.3549 0.28195
2266.549 0.3022 0.3701 0.4196 0.4565 0.3234 0.26487 0.4426 0.5164 0.5115 0.5351
2285.839 0.5109 0.5449 0.544 0.5399 0.4315 0.3158 0.477 0.4637 0.3629 0.389
2305.129 0.3608 0.4546 0.4996 0.4936 0.6388 0.5907 0.6218 0.7206 0.6146 0.4701
2324.418 0.4553 0.6038 0.6558 0.6744 0.6203 0.4758 0.5359 0.5346 0.5241 0.5765
2343.708 0.6157 0.6661 0.5891 0.5241 0.4118 0.2991 0.3033 0.3265 0.3897 0.6094
2362.998 0.568 0.4486 0.5987 0.6396 0.4077 0.3291 0.5209 0.4797 0.4222 0.4076
2382.288 0.27737 0.3248 0.3796 0.3211 0.27575 0.1233 0.1531 0.2405 0.26218 0.421
2401.578 0.4059 0.2939 0.3758 0.4286 0.3212 0.3081 0.4665 0.6021 0.5169 0.3064
2420.867 0.2988 0.4339 0.4064 0.3519 0.27903 0.379 0.489 0.4232 0.4384 0.4346
2440.157 0.3944 0.4677 0.4401 0.3417 0.4652 0.545 0.462 0.2997 0.3302 0.4738
2459.447 0.4214 0.4451 0.3661 0.20104 0.358 0.4069 0.3864 0.4351 0.422 0.4129
2478.737 0.27876 0.21797 0.20299 0.2801 0.2992 0.195466 0.171 0.21738 0.4936 0.5099
2498.026 0.3438 0.332 0.186878 0.19961 0.23883 0.3021 0.4001 0.3202 0.4163 0.5219
2517.316 0.5352 0.5699 0.5114 0.398 0.3553 0.3596 0.28156 0.1497 0.1177 0.22915
2536.606 0.4432 0.5206 0.524 0.4583 0.3687 0.4993 0.4032 0.27183 0.3507 0.3341
2555.896 0.3532 0.4063 0.4809 0.5652 0.503 0.3693 0.3896 0.4235 0.4987 0.5547
2575.186 0.5106 0.5 0.5887 0.5782 0.3963 0.3809 0.3886 0.4544 0.5029 0.4695
2594.475 0.5694 0.5765 0.5419 0.5457 0.4231 0.4225 0.4943 0.3189 0.1567 0.23654
2613.765 0.4367 0.6233 0.6119 0.5236 0.4192 0.3634 0.4437 0.5011 0.4189 0.3554
2633.055 0.3836 0.3269 0.3353 0.3672 0.3212 0.4873 0.5315 0.3459 0.3401 0.4188
2652.345 0.514 0.6043 0.373 0.1698 0.24622 0.1495 0.1572 0.3191 0.2974 0.2884
2671.634 0.3023 0.25492 0.2832 0.3449 0.3393 0.21179 0.2977 0.4529 0.4606 0.459
2690.924 0.3578 0.3738 0.3529 0.3648 0.3693 0.1563 0.1678 0.3536 0.4698 0.3998
2710.214 0.2421 0.1726 0.165 0.17853 0.20578 0.20896 0.1361 0.1127 0.22293 0.25766
2729.504 0.088 0.21277 0.3143 0.4718 0.5184 0.27988 0.25365 0.3527 0.6121 0.6215
2748.794 0.5038 0.5467 0.4478 0.191071 0.25907 0.2991 0.22558 0.3275 0.4784 0.47
2768.083 0.3495 0.3571 0.3372 0.2891 0.5106 0.4995 0.3799 0.4302 0.4212 0.4415
2787.373 0.3738 0.4073 0.5021 0.4234 0.3197 0.4441 0.4574 0.3662 0.3851 0.397
2806.663 0.4484 0.5056 0.4828 0.3216 0.3567 0.4217 0.438 0.5128 0.421 0.5272
2825.953 0.5831 0.4282 0.3686 0.4496 0.474 0.6105 0.7691 0.7763 0.8335 0.8681
2845.242 0.8504 0.7032 0.7042 0.9829 1.247 1.367 1.337 1.367 1.537 1.567
2864.532 1.457 1.487 1.397 1.287 1.0897 0.8885 0.8167 0.6879 0.802 0.9303
2883.822 1.0266 1.049 0.7957 0.8212 0.9416 1.0637 1.0161 0.8511 1.005 0.9653
2903.112 1.0251 1.0602 1.1806 1.637 1.787 1.597 1.637 1.907 2.207 2.567
2922.401 2.697 2.987 3.367 3.627 3.867 4.137 3.987 3.937 4.177 4.047
2941.691 3.757 3.637 3.757 3.567 3.397 3.407 3.507 3.527 3.647 3.857
2960.981 3.807 3.577 3.067 2.707 2.667 2.467 2.297 2.077 1.837 1.577
2980.271 1.387 1.377 1.367 1.517 1.697 1.717 1.747 1.797 1.587 1.637
2999.561 1.747 1.757 1.847 1.847 2.007 2.327 2.897 3.297 3.557 3.817
3018.850 4.397 5.167 5.797 6.697 7.567 8.587 9.567 10.237 10.517 10.797
3038.140 10.717 10.147 9.587 8.817 8.227 8.047 8.097 8.407 8.787 9.167
3057.430 9.917 10.977 12.307 13.827 15.487 17.027 18.037 18.167 16.987 15.077
3076.720 13.277 11.587 10.467 10.057 9.957 10.037 9.977 9.697 9.507 9.077
3096.009 8.297 7.317 6.237 5.507 5.007 4.447 3.937 3.367 3.107 2.967
3115.299 2.517 2.057 1.707 1.497 1.377 1.357 1.467 1.277 0.9125 0.9636
3134.589 0.9559 0.946 1.0825 0.9736 0.9712 1.1008 1.0867 0.7791 0.3948 0.369
3153.879 0.5595 0.7743 0.7309 0.6241 0.5496 0.5604 0.6983 0.7816 0.9099 0.9297
3173.169 0.861 0.7889 0.7654 0.5485 0.28482 0.4883 0.7547 0.719 0.6525 0.543
3192.458 0.4888 0.568 0.3572 0.1322 0.3451 0.5813 0.5373 0.4002 0.3686 0.5525
3211.748 0.4441 0.3255 0.4941 0.4777 0.26079 0.491 0.7872 0.5048 0.5015 0.4917
3231.038 0.189065 0.18158 0.1676 0 0.1814 0.3795 0.23035 0.142 0.3522 0.4397
3250.328 0.23874 0.3199 0.3602 0.2941 0.4206 0.438 0.3613 0.5079 0.3271 0.3077
3269.617 0.7635 0.9755 0.8739 0.5446 0.3969 0.322 0.1291 0.1029 0.24118 0.3255
3288.907 0.13 0.1828 0.4848 0.5691 0.58 0.5995 0.7538 0.8186 0.8988 0.8256
3308.197 0.5838 0.5225 0.4563 0.3514 0.3018 0.3071 0.481 0.4349 0.5088 0.6569
3327.487 0.4793 0.5265 0.5016 0.4171 0.5192 0.5063 0.48 0.5434 0.5658 0.778
3346.777 0.9311 0.8382 0.8526 0.8054 0.6796 0.4909 0.22154 0.4293 0.6165 0.3971
3366.066 0.6053 0.7547 0.6402 0.736 0.5833 0.538 0.7291 0.6323 0.26111 0.21708
3385.356 0.407 0.6366 0.8191 0.6006 0.4311 0.5408 0.6916 0.6998 0.4742 0.3523
3404.646 0.3539 0.24945 0.131 0.24757 0.4257 0.4487 0.4361 0.575 0.3118 0.1464
3423.936 0.5658 0.6719 0.6171 0.6088 0.6944 0.6997 0.6096 0.5188 0.4678 0.3313
3443.225 0.102 0.22459 0.6809 0.6474 0.6036 0.6523 0.3779 0.4611 0.6644 0.6376
3462.515 0.584 0.4173 0.194814 0.3737 0.7124 0.4456 0.3632 0.5994 0.5881 0.5552
3481.805 0.2929 0.3402 0.5914 0.6413 0.6778 0.5253 0.4376 0.5681 0.6521 0.4204
3501.095 0.4873 0.6694 0.4691 0.2977 0.20689 0.21293 0.195371 0.1116 0.1456 0.4311
3520.385 0.6637 0.5324 0.4338 0.4143 0.4607 0.3333 0.3884 0.6124 0.4864 0.3546
3539.674 0.2933 0.4538 0.6085 0.544 0.44 0.4759 0.4369 0.4677 0.8802 1.0676
3558.964 0.8078 0.6026 0.6352 0.6691 0.8522 1.068 0.9856 0.9186 1.0286 1.0138
3578.254 1.247 1.397 1.317 1.647 1.947 2.347 2.677 2.967 3.437 3.657
3597.544 3.627 3.557 3.417 3.307 3.237 2.937 2.517 2.347 2.337 2.327
3616.833 2.447 2.257 2.087 2.367 2.867 3.607 4.027 3.977 4.077 4.337
3636.123 4.197 3.617 3.087 2.447 1.947 1.697 1.607 1.557 1.1781 0.9467
3655.413 1.0296 0.9652 0.9943 1.1612 0.8472 0.721 0.7674 0.7201 0.8595 0.6932
3674.703 0.7593 0.8614 0.9715 1.0011 0.6998 0.6326 0.514 0.4277 0.5752 0.7352
3693.993 0.832 0.7969 0.7331 0.8005 0.7557 0.6686 0.6418 0.5807 0.4813 0.4467
3713.282 0.5268 0.6622 0.4718 0.4584 0.6727 0.4235 0.3354 0.3394 0.3106 0.4554
3732.572 0.5004 0.658 0.8138 0.9598 1.0139 0.6393 0.6576 0.835 0.752 0.7572
3751.862 0.775 0.6831 0.6299 0.4922 0.4264 0.4475 0.4118 0.4515 0.5895 0.5689
3771.152 0.4506 0.6536 0.7109 0.5863 0.3646 0.2991 0.3421 0.26694 0.384 0.5488
3790.441 0.4478 0.5428 0.8693 0.7606 0.4327 0.5406 0.8268 0.4785 0.24707 0.3957
3809.731 0.2874 0.26094 0.4141 0.2018 0.3745 0.8206 0.5144 0.20877 0.138 0.176
3829.021 0.4097 0.5105 0.7239 0.7642 0.497 0.3637 0.3704 0.5975 0.5967 0.4432
3848.311 0.586 0.6737 0.6482 0.7185 0.7782 0.7531 0.5936 0.4064 0.4581 0.6415
3867.601 0.6993 0.7572 0.7387 0.4911 0.26207 0.464 0.6023 0.4377 0.4997 0.8024
3886.890 0.6269 0.4676 0.7955 0.7482 0.3808 0.4741 0.7477 0.5417 0.5556 0.8784
3906.180 0.7486 0.28156 0.3147 0.6583 0.599 0.679 0.7178 0.5118 0.6714 0.8143
3925.470 0.6389 0.5484 0.8876 0.9282 0.8452 0.8349 0.6859 0.704 0.8191 0.8048
3944.760 0.6874 0.6086 0.5148 0.7039 0.6066 0.5869 0.9508 0.8382 0.583 0.6817
3964.049 0.457 0.22911 0.5069 0.4751 0.4043 0.5959 0.4928 0.4241 0.3994 0.4843
3983.339 0.4792 0.3046 0.26291 0.3603 0.4801 0.5381 0.5967 0.3851 0.3563 0.5498
##END=
