##TITLE=4-Amino-3-bromo-5-chlorobenzotrifluoride
##JCAMP-DX=4.24
##DATA TYPE=INFRARED SPECTRUM
##ORIGIN=EPA-IR VAPOR PHASE LIBRARY
##OWNER=SRD/NIST
Collection (C) 2018 copyright by the U.S. Secretary of Commerce
on behalf of the United States of America. All rights reserved.
##CAS REGISTRY NO=109919-26-8
##MOLFORM=C 7 H 4 Br Cl F 3 N
##$NIST SOURCE=MSDC-IR
##STATE=gas
##XUNITS=1/CM
##YUNITS=ABSORBANCE
##XFACTOR=1.
##YFACTOR=0.001
##DELTAX=1.92898
##FIRSTX=549.8
##LASTX=4000.7
##FIRSTY=4.095
##MAXX=4000.7
##MINX=549.759
##MAXY=0.401355
##MINY=0
##NPOINTS=1790
##XYDATA=(X++(Y..Y))
549.759 4.095 4.175 5.425 5.795 5.255 5.525 5.965 6.075 5.575 4.785
569.049 4.765 5.015 4.705 4.695 5.135 5.025 4.695 4.405 4.055 4.125
588.339 4.355 4.525 4.945 5.505 5.205 5.055 5.205 4.835 4.965 5.245
607.628 5.545 5.465 4.685 4.265 4.815 5.365 5.815 5.975 5.495 6.185
626.918 6.345 6.405 7.475 7.875 8.585 10.085 11.475 13.885 17.045 20.255
646.208 25.495 31.955 38.465 46.045 54.045 61.175 65.395 65.295 61.185 53.395
665.498 43.375 32.705 23.005 15.595 10.935 8.865 7.155 5.935 5.885 5.815
684.787 6.335 6.865 6.805 7.355 8.225 8.775 9.625 10.535 11.165 11.885
704.077 12.605 13.365 14.235 15.035 15.605 16.745 17.545 18.015 19.395 19.875
723.367 18.145 16.285 14.575 13.265 12.315 11.915 12.295 12.685 13.575 15.515
742.657 18.275 21.175 24.755 28.555 33.275 38.175 42.755 48.005 51.455 52.045
761.947 51.385 49.335 45.815 41.935 37.565 33.645 30.685 28.135 25.925 23.615
781.236 21.425 19.755 18.335 16.875 15.735 14.915 14.335 13.445 12.805 12.125
800.526 11.385 10.775 10.325 9.905 9.625 9.775 9.285 8.715 8.205 8.055
819.816 8.215 8.015 8.125 8.145 7.485 7.025 6.815 6.975 7.105 6.965
839.106 7.025 6.505 6.265 6.255 6.045 6.065 5.695 5.275 4.895 5.145
858.395 5.335 5.195 6.285 7.905 10.385 13.795 17.805 22.575 28.015 34.275
877.685 39.775 43.935 46.675 49.235 51.565 46.515 36.605 29.935 24.765 19.215
896.975 14.655 11.765 9.825 8.945 8.445 8.025 7.525 6.865 6.855 6.825
916.265 6.275 5.895 5.745 5.835 6.115 6.035 5.715 5.395 5.465 5.355
935.555 5.195 5.465 5.835 5.555 4.875 4.565 4.705 5.125 4.935 4.275
954.844 3.945 4.615 4.855 4.335 4.195 4.665 5.015 4.715 4.525 4.295
974.134 4.595 4.755 4.775 4.955 4.125 4.245 4.885 4.515 4.285 3.965
993.424 3.905 4.235 4.065 3.705 3.935 4.105 3.865 3.805 3.995 5.295
1012.714 6.325 5.645 4.575 4.045 4.285 4.775 4.775 4.785 4.965 4.805
1032.003 4.835 5.115 5.325 4.815 5.925 7.595 8.245 8.785 8.735 8.905
1051.293 9.105 9.575 10.195 10.905 11.775 12.015 11.495 12.635 14.295 14.915
1070.583 15.685 16.765 17.705 18.415 18.075 17.395 18.585 19.305 19.365 19.885
1089.873 21.375 25.885 30.735 36.585 45.435 53.385 59.295 61.825 60.275 54.925
1109.163 46.175 38.325 32.505 27.485 25.845 26.905 29.495 33.435 38.635 47.275
1128.452 60.575 76.775 96.735 122.905 153.695 186.805 220.055 249.455 267.245 263.275
1147.742 232.815 189.955 149.075 113.015 83.925 64.715 57.225 60.405 72.435 91.865
1167.032 116.775 145.845 174.355 195.465 201.475 190.685 168.405 139.675 108.945 79.115
1186.322 55.685 40.795 31.285 25.035 21.395 18.615 16.325 14.885 14.245 12.455
1205.611 11.545 12.935 13.595 13.535 13.595 12.775 11.465 12.945 14.965 16.205
1224.901 15.455 15.775 17.935 18.215 20.065 21.635 20.975 20.075 19.745 18.375
1244.191 16.625 14.665 13.125 12.005 11.135 11.795 12.445 13.615 15.885 18.585
1263.481 23.075 29.845 38.445 51.315 69.455 91.695 115.205 135.225 148.745 153.315
1282.771 148.575 135.535 115.465 94.305 77.495 66.305 59.885 56.455 56.165 59.405
1302.060 65.585 75.065 88.235 105.235 127.325 155.815 191.455 233.635 279.245 324.445
1321.350 364.235 391.725 401.355 390.505 359.685 313.185 258.205 202.375 151.695 110.415
1340.640 79.065 56.295 40.585 30.265 23.615 19.735 17.525 16.315 15.795 15.445
1359.930 15.235 14.875 14.185 13.455 12.855 12.225 11.415 10.765 10.565 10.425
1379.219 10.295 10.215 9.775 9.395 9.625 10.205 11.065 12.555 14.695 17.605
1398.509 21.615 26.755 32.715 39.065 44.555 47.765 48.015 46.025 42.135 35.895
1417.799 28.395 21.745 17.105 13.775 11.495 10.005 9.005 8.275 7.475 6.745
1437.089 6.325 6.235 6.055 5.865 5.485 4.975 4.815 4.545 4.485 4.435
1456.378 4.235 4.275 4.395 4.775 5.045 5.295 5.835 6.575 7.295 8.695
1475.668 10.855 13.125 15.545 18.045 20.475 22.125 22.925 22.625 20.995 18.435
1494.958 14.845 11.345 8.745 6.485 4.855 3.995 3.295 2.945 2.895 2.825
1514.248 2.885 3.205 3.415 3.535 3.965 4.375 4.755 5.085 5.375 5.895
1533.538 6.135 6.165 6.325 6.235 6.105 6.165 6.325 6.365 6.825 7.825
1552.827 8.975 10.255 11.495 12.735 13.595 14.165 14.575 14.285 13.295 12.575
1572.117 12.605 13.305 14.285 15.545 16.625 17.325 17.705 17.695 17.355 16.915
1591.407 16.465 16.415 16.795 17.505 18.675 20.585 23.905 28.465 34.425 42.705
1610.697 53.335 66.195 79.695 92.845 103.685 109.805 110.275 105.155 95.135 81.555
1629.986 67.205 54.015 43.065 34.265 28.165 23.915 20.645 18.305 16.295 14.655
1649.276 13.255 12.095 11.005 10.075 9.495 8.785 7.805 6.895 6.175 5.485
1668.566 5.005 4.775 4.585 4.415 4.095 3.895 3.715 3.435 3.095 2.925
1687.856 2.865 2.815 2.725 2.545 2.355 2.235 2.255 2.445 2.735 2.875
1707.146 2.805 2.715 2.615 2.415 2.395 2.325 2.275 2.255 2.215 2.405
1726.435 2.395 2.295 2.225 2.105 2.125 2.155 2.045 2.195 2.205 2.205
1745.725 2.415 2.415 2.545 2.975 3.465 3.775 4.045 4.755 5.525 6.215
1765.015 7.115 7.845 8.255 8.385 8.145 7.615 6.905 6.155 5.295 4.425
1784.305 3.785 3.285 2.945 2.805 2.695 2.535 2.335 2.135 2.195 2.265
1803.594 2.295 2.205 1.915 1.775 1.905 1.995 1.935 1.875 1.905 2.005
1822.884 1.885 1.825 1.965 1.985 1.955 2.035 2.015 1.955 1.955 1.945
1842.174 1.755 1.695 1.865 1.695 1.545 1.535 1.445 1.545 1.565 1.465
1861.464 1.555 1.595 1.615 1.685 1.655 1.595 1.685 1.795 1.695 1.655
1880.754 1.695 1.625 1.695 1.635 1.535 1.525 1.565 1.535 1.475 1.495
1900.043 1.435 1.485 1.565 1.575 1.595 1.615 1.525 1.425 1.575 1.515
1919.333 1.485 1.565 1.495 1.575 1.705 1.775 1.635 1.645 1.755 1.705
1938.623 1.615 1.635 1.465 1.3046 1.387 1.3913 1.495 1.625 1.525 1.415
1957.913 1.405 1.3881 1.485 1.445 1.445 1.585 1.505 1.415 1.3111 1.2886
1977.202 1.3098 1.3251 1.555 1.605 1.485 1.405 1.3302 1.425 1.455 1.465
1996.492 1.405 1.2867 1.3048 1.3563 1.425 1.535 1.555 1.615 1.595 1.445
2015.782 1.515 1.605 1.675 1.715 1.695 1.565 1.535 1.575 1.3837 1.395
2035.072 1.585 1.775 1.795 1.755 1.815 1.835 1.755 1.535 1.565 1.565
2054.362 1.495 1.565 1.645 1.705 1.585 1.405 1.395 1.555 1.575 1.445
2073.651 1.455 1.505 1.405 1.465 1.475 1.465 1.575 1.475 1.435 1.3519
2092.941 1.3513 1.425 1.3877 1.515 1.565 1.485 1.535 1.585 1.605 1.575
2112.231 1.615 1.785 1.635 1.415 1.455 1.515 1.625 1.835 1.825 1.655
2131.521 1.515 1.655 1.975 1.855 1.815 2.005 1.995 1.855 1.815 1.805
2150.810 1.695 1.705 1.795 1.825 1.645 1.535 1.545 1.645 1.745 1.685
2170.100 1.475 1.415 1.465 1.495 1.645 1.835 1.875 1.815 1.775 1.885
2189.390 1.905 1.905 2.015 2.105 2.135 2.195 2.275 2.205 2.175 2.005
2208.680 1.825 1.725 1.645 1.635 1.655 1.585 1.2498 1.2573 1.655 1.725
2227.970 1.645 1.655 1.485 1.505 1.875 1.935 1.825 1.865 1.875 1.925
2247.259 2.005 1.925 2.055 2.155 1.895 2.085 2.325 2.075 2.065 2.175
2266.549 2.195 2.165 2.035 2.265 2.505 2.375 2.255 2.295 2.345 2.365
2285.839 2.315 1.895 1.705 2.015 1.945 1.775 1.935 1.765 1.515 1.665
2305.129 1.795 1.905 1.905 1.685 1.755 1.855 1.575 1.455 1.735 1.835
2324.418 1.735 1.625 1.605 1.605 1.545 1.705 1.765 1.835 1.905 1.855
2343.708 1.935 1.925 1.695 1.725 1.635 1.605 1.685 1.565 1.595 1.505
2362.998 1.2478 1.3648 1.575 1.675 1.695 1.605 1.695 1.635 1.515 1.625
2382.288 1.855 1.895 1.735 1.535 1.505 1.525 1.415 1.435 1.2861 1.2086
2401.578 1.3697 1.3297 1.3796 1.2141 0.95 0.9728 0.9375 1.2168 1.395 1.415
2420.867 1.347 1.2426 1.3861 1.405 1.505 1.405 1.2288 1.166 1.2499 1.405
2440.157 1.384 1.2781 1.445 1.565 1.3657 1.2354 1.2139 1.3564 1.3818 1.3766
2459.447 1.405 1.595 1.565 1.3566 1.505 1.575 1.465 1.405 1.475 1.435
2478.737 1.2511 1.3484 1.394 1.405 1.575 1.545 1.455 1.415 1.495 1.765
2498.026 1.975 1.965 1.825 1.665 1.745 1.835 1.805 1.785 1.875 1.795
2517.316 1.535 1.645 1.655 1.475 1.3909 1.395 1.515 1.505 1.515 1.825
2536.606 1.865 2.005 2.235 2.075 2.105 2.185 1.995 2.075 2.205 2.185
2555.896 2.065 1.835 1.725 1.775 1.925 1.665 1.304 1.2049 1.1964 1.1734
2575.186 1.0783 0.9463 1.0728 1.3441 1.435 1.3289 1.2243 1.3103 1.415 1.585
2594.475 1.735 1.795 1.795 1.825 1.945 1.965 2.055 2.265 2.305 2.245
2613.765 2.265 2.485 2.765 2.665 2.505 2.385 2.245 2.205 2.355 2.435
2633.055 2.285 2.185 2.055 1.835 1.745 2.145 2.375 2.335 2.275 1.875
2652.345 1.685 1.735 1.625 1.595 1.585 1.645 1.605 1.425 1.445 1.3143
2671.634 1.2321 1.2657 1.3096 1.505 1.3861 1.1954 1.2873 1.435 1.445 1.3255
2690.924 1.1558 1.0047 0.9081 1.1679 1.495 1.2008 0.883 1.0935 1.2733 1.3405
2710.214 1.0777 0.9467 1.0822 0.8639 0.926 1.1388 1.1893 1.3571 1.425 0.9907
2729.504 0.7948 1.1708 1.475 1.3706 1.0061 0.9155 1.0094 1.2588 1.485 1.415
2748.794 1.3567 1.395 1.445 1.1688 1.0457 1.1542 1.1748 1.395 1.725 1.475
2768.083 1.0432 0.6985 0.6491 1.1267 1.0079 1.0286 1.23 0.9018 0.8031 0.7088
2787.373 0.5447 0.6827 0.7039 0.8585 1.0535 0.8284 0.8397 1.1973 1.2123 1.2467
2806.663 1.2938 1.1057 1.0531 0.9438 1.0277 1.0087 0.7008 0.49342 0.6818 0.7033
2825.953 0.6733 0.7522 0.7372 0.7405 0.7151 0.9347 0.9441 0.967 1.1604 1.1598
2845.242 1.0456 1.1358 1.505 1.435 0.9821 1.0223 1.3618 1.535 1.565 1.445
2864.532 1.2276 1.605 1.935 1.415 0.9891 1.2981 1.725 1.565 1.3101 1.119
2883.822 1.2893 1.3455 1.2233 1.327 1.445 1.281 1.1397 1.3698 1.237 0.9904
2903.112 1.2292 1.3194 1.3165 1.595 1.915 1.875 1.635 1.695 1.605 1.435
2922.401 1.415 1.405 1.445 1.745 1.855 1.825 1.735 1.575 1.425 1.445
2941.691 1.705 1.915 1.615 1.535 1.765 1.495 1.495 1.605 1.505 1.935
2960.981 2.055 1.695 1.455 1.2776 1.3209 1.475 1.505 1.515 1.3202 1.0873
2980.271 1.3195 1.1444 0.8462 0.6686 0.6259 0.9248 0.8765 0.7363 0.8225 0.9832
2999.561 1.1853 0.9945 0.807 0.7864 0.988 0.8726 0.5987 0.8208 0.9824 1.235
3018.850 1.395 1.0617 0.8257 0.8044 0.8726 1.339 1.1032 0.7266 0.8701 1.1346
3038.140 1.2501 1.1401 0.9724 1.0417 1.1935 1.0163 1.0494 1.1839 1.2486 1.2098
3057.430 1.455 1.725 1.965 1.825 1.775 1.795 1.485 1.475 1.435 1.3393
3076.720 1.1832 0.9872 1.198 1.545 1.435 1.3017 1.695 1.905 1.685 1.675
3096.009 1.825 1.835 1.725 1.975 2.195 1.845 1.845 2.005 1.875 2.045
3115.299 2.065 2.265 2.555 2.535 2.055 1.845 1.825 1.495 1.348 1.0742
3134.589 0.9206 1.0198 1.425 1.615 1.455 1.3101 1.2965 1.0703 0.9872 1.0227
3153.879 1.2593 1.565 1.0636 1.0014 1.455 1.545 1.2643 0.9666 0.9193 1.2486
3173.169 1.1995 1.1466 1.108 0.6286 0.9165 1.485 1.3871 1.595 2.035 1.765
3192.458 1.545 1.3536 1.485 1.705 1.525 1.3853 1.505 1.705 1.455 0.9367
3211.748 1.0202 1.3864 1.805 1.715 1.1823 0.8835 0.9419 1.2403 1.3086 1.3343
3231.038 0.9781 1.1612 1.3136 1.231 1.39 1.3798 1.2952 1.296 1.725 1.645
3250.328 1.2351 1.415 1.485 1.555 1.515 1.2159 0.8558 0.5883 0.628 0.48982
3269.617 0.661 1.2335 1.3629 1.3322 1.415 0.9904 0.5187 1.1279 1.263 1.0445
3288.907 1.0147 0.5304 0.586 0.9082 1.0389 0.8625 0.6724 1.0112 1.475 1.485
3308.197 1.2334 1.0553 1.3321 1.485 1.3169 0.8682 0.64 0.7657 0.5618 0.5905
3327.487 0.7657 0.907 0.6764 0.5319 0.715 0.93 1.2753 1.1206 0.8633 1.0371
3346.777 1.172 1.1579 1.2588 1.361 1.1932 1.2069 1.125 1.0892 1.425 1.545
3366.066 1.905 2.095 2.205 2.355 2.215 2.635 3.015 2.845 3.285 3.915
3385.356 4.365 5.345 6.395 7.235 8.305 9.775 11.625 12.645 13.445 15.195
3404.646 17.285 19.355 20.465 20.865 20.545 19.805 19.595 19.205 18.875 19.165
3423.936 19.785 20.395 19.875 18.425 16.625 14.275 11.635 8.825 6.565 4.855
3443.225 3.895 3.465 2.995 2.735 2.685 2.685 2.765 2.575 2.185 2.505
3462.515 2.825 3.245 3.695 3.885 4.495 5.075 5.365 5.985 6.315 6.795
3481.805 7.595 8.175 8.685 9.195 10.095 10.925 11.505 12.355 13.505 14.875
3501.095 16.115 17.835 19.305 19.715 19.765 19.475 18.945 18.135 17.645 17.225
3520.385 16.795 16.725 17.625 18.375 18.885 19.295 19.065 18.515 17.565 15.645
3539.674 13.095 10.975 8.735 6.855 5.275 3.695 2.915 2.385 2.215 2.575
3558.964 2.195 1.445 1.525 1.625 1.675 1.715 1.495 1.2657 1.425 1.715
3578.254 1.675 1.435 1.1344 1.2948 1.3688 1.3029 1.635 1.3822 1.1327 1.775
3597.544 1.575 1.3084 1.565 0.9341 0.3622 0.3832 0.45763 0.6994 0.883 0.9234
3616.833 1.0779 1.1991 0.5508 0.3903 0.8681 0.8467 1.0013 1.2366 1.2854 1.0937
3636.123 0.9939 1.2925 1.1564 0.9282 0.9097 0.8621 1.0741 1.1297 0.7465 0.6722
3655.413 0.9512 0.9777 1.1934 1.1237 0.25 0.004 0.6894 0.8621 0.6263 0.9063
3674.703 1.0007 0.7036 0.276 0.3439 0.995 1.2998 1.1669 0.9294 0.6523 0.8882
3693.993 1.1744 1.2594 1.3215 0.9297 1.077 1.2696 1.555 1.445 0.9157 0.6338
3713.282 0.5022 0.9663 1.0233 1.2228 0.9828 0.5372 0.6806 0.5312 0.5999 0.8267
3732.572 0.6024 0.400213 1.1057 1.0067 0.48117 0.5915 0.6373 0.47435 0.6526 0.7101
3751.862 0 0.095 0.43546 0.275 0.6218 0.7855 0.294 0.39345 0.8668 0.8693
3771.152 1.011 0.9879 0.7275 0.37 0.032 0.294 0.5228 0.6153 0.48357 0.6314
3790.441 0.8178 0.5546 0.8166 0.9739 0.7143 0.6828 0.657 0.6785 0.735 0.923
3809.731 1.1376 0.8617 0.7557 0.9357 1.305 1.555 1.0183 1.2975 1.675 1.2938
3829.021 1.415 1.1835 0.795 0.8484 0.8898 0.9198 0.6947 0.6666 0.9241 1.0106
3848.311 0.8376 0.7232 0.8401 0.8525 0.9894 1.1672 1.0615 0.9735 1.1241 1.3498
3867.601 1.565 1.595 1.395 1.3355 1.1765 0.9516 0.612 0.898 1.485 1.395
3886.890 1.2955 1.405 1.565 1.485 1.2658 1.0856 1.535 2.075 1.425 0.9263
3906.180 1.1123 1.455 1.785 1.575 1.2344 1.2743 1.2487 1.3555 1.445 1.405
3925.470 1.3412 1.2516 1.2902 1.395 1.3171 0.9085 1.0136 1.2252 1.1704 1.2952
3944.760 1.3118 1.1218 0.9977 0.7817 1.1331 1.845 1.885 1.2066 0.6827 0.8863
3964.049 1.2273 1.2523 1.3845 1.815 1.775 1.495 0.702 0.7401 1.555 1.525
3983.339 1.725 1.855 1.2324 0.9422 1.2069 1.2133 1.208 1.0246 1.1701 1.765
##END=
