##TITLE=1,4-Dichloro-2-butene
##JCAMP-DX=4.24
##DATA TYPE=INFRARED SPECTRUM
##ORIGIN=NIST Mass Spectrometry Data Center
##OWNER=NIST Standard Reference Data Program
Collection (C) 2018 copyright by the U.S. Secretary of Commerce
on behalf of the United States of America. All rights reserved.
##CAS REGISTRY NO=110-57-6
##MOLFORM=C 4 H 6 Cl 2
##$NIST SOURCE=MSDC-IR
##SPECTROMETER/DATA SYSTEM=HP-GC/MS/IRD
##STATE=gas
##XUNITS=1/CM
##YUNITS=ABSORBANCE
##XFACTOR=1.0
##YFACTOR=0.000001100
##DELTAX=4.0
##FIRSTX=550.0
##LASTX=3846.0
##FIRSTY=0.000146
##MAXX=3846
##MINX=550
##MAXY=0.011
##MINY=0
##NPOINTS=825
##XYDATA=(X++(Y..Y))
550.0 133 29 2 17 4 18 66 43 89 156
590.0 81 109 126 86 198 279 318 362 335 308
630.0 315 379 474 564 719 910 1164 1452 1881 2434
670.0 3108 3846 4530 5113 5422 5630 5986 6493 7276 8259
710.0 9197 9822 10000 9719 8932 7875 6922 6076 5136 4145
750.0 3218 2508 2015 1651 1410 1212 1076 966 841 693
790.0 577 516 440 437 385 330 338 293 250 184
830.0 147 118 87 91 98 72 108 185 199 179
870.0 207 268 288 334 394 429 497 615 706 795
910.0 897 972 1096 1270 1565 1944 2365 2928 3667 4488
950.0 5368 6253 6848 6892 6570 5974 5018 4033 3175 2484
990.0 1968 1587 1304 1097 982 939 898 842 791 721
1030.0 706 700 642 595 608 631 635 742 895 1127
1070.0 1395 1550 1562 1412 1105 745 472 345 256 156
1110.0 127 124 137 179 206 315 501 600 614 636
1150.0 599 516 448 395 357 352 340 293 281 268
1190.0 261 314 356 384 430 533 697 914 1221 1698
1230.0 2497 3786 5549 7600 9266 9804 9543 8350 6558 5495
1270.0 5123 4834 4504 4145 3712 3280 3020 2921 2955 3101
1310.0 3329 3510 3439 3148 2672 2051 1510 1150 896 758
1350.0 670 592 525 462 394 326 285 260 233 216
1390.0 212 229 240 256 291 325 389 477 572 712
1430.0 919 1142 1323 1440 1504 1438 1270 1078 885 728
1470.0 549 417 341 236 164 130 104 79 60 54
1510.0 56 48 30 48 53 34 27 24 31 40
1550.0 39 14 9 11 6 24 34 11 6 22
1590.0 29 21 24 37 45 72 63 47 69 84
1630.0 91 89 106 128 136 125 130 160 176 200
1670.0 238 247 238 211 167 118 82 70 69 79
1710.0 72 79 91 86 71 73 91 114 128 139
1750.0 164 181 171 158 142 123 120 124 103 103
1790.0 102 81 79 73 67 69 71 71 60 53
1830.0 56 65 90 95 75 81 113 144 143 124
1870.0 118 117 119 128 127 118 94 74 66 58
1910.0 48 19 26 17 0 18 28 36 38 34
1950.0 25 15 14 21 19 16 28 27 32 32
1990.0 30 32 27 23 8 3 13 29 50 59
2030.0 53 43 42 50 59 58 31 27 32 30
2070.0 43 66 73 66 68 67 59 52 52 66
2110.0 45 24 38 50 48 50 44 45 46 31
2150.0 37 53 44 42 51 45 45 43 32 29
2190.0 33 39 37 54 78 73 66 56 47 61
2230.0 84 75 54 54 63 64 59 53 62 98
2270.0 107 84 87 96 95 93 83 64 79 99
2310.0 90 95 104 112 136 156 175 162 144 166
2350.0 161 140 136 123 123 150 138 127 131 123
2390.0 105 94 95 90 77 78 89 82 61 68
2430.0 68 40 18 9 17 39 60 33 2 14
2470.0 37 56 59 45 54 85 93 86 89 77
2510.0 66 72 73 70 67 70 85 63 25 11
2550.0 14 21 27 11 28 55 24 25 41 40
2590.0 19 20 43 45 35 41 38 38 34 24
2630.0 31 43 50 35 25 40 34 46 75 82
2670.0 98 89 97 132 150 173 201 202 182 185
2710.0 178 154 147 157 141 122 135 132 117 113
2750.0 105 88 85 85 80 75 65 63 75 69
2790.0 48 65 93 105 111 111 115 136 168 185
2830.0 199 211 259 320 383 453 525 593 645 688
2870.0 723 708 674 660 616 551 498 490 484 451
2910.0 460 541 653 751 889 1116 1416 1800 2258 2744
2950.0 3153 3516 3828 3991 3993 3875 3643 3333 3042 2792
2990.0 2534 2314 2161 2059 1927 1801 1691 1599 1556 1542
3030.0 1533 1525 1534 1545 1505 1402 1265 1103 940 803
3070.0 678 567 470 370 288 240 232 210 172 158
3110.0 172 166 148 149 117 110 118 115 98 75
3150.0 90 101 126 137 110 84 90 109 91 77
3190.0 107 128 124 120 78 55 65 68 77 57
3230.0 35 53 88 63 48 93 91 86 77 80
3270.0 88 77 78 89 96 90 88 61 29 74
3310.0 89 29 3 14 40 87 106 90 108 79
3350.0 39 47 51 60 57 72 83 38 24 71
3390.0 110 91 89 117 101 61 41 28 46 81
3430.0 52 26 32 35 73 95 89 75 77 105
3470.0 105 95 78 77 94 76 67 69 83 69
3510.0 87 162 157 119 99 100 141 128 79 79
3550.0 75 89 109 95 101 93 68 48 50 76
3590.0 69 53 70 88 78 85 72 76 118 92
3630.0 71 62 46 67 110 144 124 98 102 99
3670.0 108 111 116 125 120 105 78 78 98 111
3710.0 119 122 101 55 47 99 142 127 53 35
3750.0 84 69 41 80 108 100 105 113 109 128
3790.0 144 94 54 48 52 74 71 60 85 80
3830.0 92 104 87 96 116
##END=
