##TITLE=t-Butyl peroxide
##JCAMP-DX=4.24
##DATA TYPE=INFRARED SPECTRUM
##ORIGIN=NIST Mass Spectrometry Data Center
##OWNER=NIST Standard Reference Data Program
Collection (C) 2018 copyright by the U.S. Secretary of Commerce
on behalf of the United States of America. All rights reserved.
##CAS REGISTRY NO=110-05-4
##MOLFORM=C 8 H 18 O 2
##$NIST SOURCE=MSDC-IR
##SPECTROMETER/DATA SYSTEM=HP-GC/MS/IRD
##STATE=gas
##XUNITS=1/CM
##YUNITS=ABSORBANCE
##XFACTOR=1.0
##YFACTOR=0.000001500
##DELTAX=4.0
##FIRSTX=550.0
##LASTX=3846.0
##FIRSTY=0.000897
##MAXX=3846
##MINX=550
##MAXY=0.015
##MINY=0
##NPOINTS=825
##XYDATA=(X++(Y..Y))
550.0 598 901 640 491 343 303 239 227 142 43
590.0 138 191 208 143 102 105 106 162 142 71
630.0 7 11 42 20 17 26 21 39 25 153
670.0 210 88 68 78 92 114 98 93 118 98
710.0 30 21 47 35 47 59 43 111 148 146
750.0 155 202 243 167 161 186 173 186 188 235
790.0 303 305 310 363 355 313 268 232 128 79
830.0 196 200 212 271 289 322 368 435 555 618
870.0 633 662 659 638 604 533 521 557 540 525
910.0 531 520 534 507 458 438 429 447 444 383
950.0 358 389 361 323 353 415 494 533 533 599
990.0 661 649 670 699 695 707 746 741 714 695
1030.0 893 972 716 682 765 840 988 1056 1038 1042
1070.0 955 858 824 815 794 779 795 711 622 643
1110.0 688 739 800 798 755 728 671 631 628 695
1150.0 832 914 973 1186 1429 1741 2254 2932 3707 4605
1190.0 5550 6207 6424 6391 6325 6445 6467 5814 5321 5489
1230.0 5464 4831 3761 2639 1688 1074 778 701 659 621
1270.0 535 421 321 303 352 370 419 533 676 758
1310.0 794 927 1161 1455 1776 2202 2772 3450 4127 4682
1350.0 5086 5389 5749 6320 6689 6539 6196 5845 5366 4661
1390.0 3849 3118 2512 2100 1903 1808 1763 1757 1737 1721
1430.0 1721 1749 1766 1755 1748 1723 1717 1650 1507 1426
1470.0 1400 1353 1258 1134 1043 979 917 891 917 928
1510.0 870 832 828 831 815 777 759 761 766 759
1550.0 731 733 750 694 628 583 545 515 473 465
1590.0 456 419 392 391 373 345 325 304 278 252
1630.0 252 273 272 275 303 357 414 450 513 617
1670.0 784 990 1244 1604 2058 2604 3352 4247 5191 6105
1710.0 6994 7779 8375 8809 9094 9361 9735 9881 10000 9837
1750.0 9043 8222 7329 6382 5453 4595 3817 3157 2640 2247
1790.0 1919 1625 1378 1138 920 742 592 475 400 336
1830.0 272 218 177 137 123 120 112 97 77 73
1870.0 74 64 50 35 31 29 21 24 11 6
1910.0 35 41 38 31 22 9 9 19 20 28
1950.0 33 16 6 18 17 17 28 21 14 28
1990.0 24 29 26 3 1 8 10 13 26 18
2030.0 12 27 24 21 29 46 59 60 55 59
2070.0 89 111 130 144 140 142 167 186 193 187
2110.0 198 207 207 209 200 185 165 142 140 152
2150.0 136 112 119 144 160 163 159 153 143 138
2190.0 126 124 122 110 110 116 99 76 58 57
2230.0 77 70 48 40 55 73 55 42 48 64
2270.0 73 68 77 98 127 122 144 182 212 264
2310.0 311 332 367 407 409 431 450 412 380 353
2350.0 323 411 541 592 573 487 386 296 210 103
2390.0 48 46 36 23 32 22 19 44 32 17
2430.0 23 41 35 37 48 47 38 21 17 0
2470.0 11 39 40 23 14 26 35 36 32 45
2510.0 61 56 55 70 56 45 67 77 71 82
2550.0 86 88 117 120 125 131 114 111 112 116
2590.0 136 118 89 110 118 92 89 108 103 112
2630.0 141 127 113 129 133 161 189 173 144 163
2670.0 187 189 185 185 214 227 220 240 273 288
2710.0 324 348 378 418 501 578 582 581 586 650
2750.0 697 700 647 678 787 732 727 866 816 685
2790.0 750 928 1145 1268 1279 1260 1253 1315 1321 1227
2830.0 1234 1276 1262 1289 1347 1354 1387 1500 1717 1865
2870.0 1928 1999 2019 2058 2137 2271 2507 2519 2390 2581
2910.0 2831 3015 3200 3434 3598 3562 3605 3728 3736 3738
2950.0 3794 3775 3664 3729 4089 4355 4386 4407 4440 4436
2990.0 4365 4152 3845 3571 3350 3158 3120 2934 2602 2460
3030.0 2347 2215 2028 1862 1758 1640 1532 1456 1388 1324
3070.0 1215 1124 1064 999 954 882 854 789 733 674
3110.0 621 590 514 490 423 365 325 328 336 263
3150.0 249 246 207 181 204 197 185 182 164 135
3190.0 121 139 145 142 131 113 139 138 137 176
3230.0 150 121 103 86 100 131 113 80 133 145
3270.0 114 105 35 1 47 84 89 84 74 75
3310.0 40 14 1 28 44 34 76 115 101 74
3350.0 80 81 71 60 36 75 100 106 143 140
3390.0 125 104 100 153 222 249 259 253 281 312
3430.0 291 284 303 320 311 332 400 368 283 287
3470.0 331 304 219 149 167 206 165 125 151 154
3510.0 108 139 235 193 117 118 152 168 134 89
3550.0 80 89 67 102 150 105 46 57 106 184
3590.0 200 164 140 116 99 137 150 109 83 119
3630.0 156 120 123 176 225 207 201 160 90 147
3670.0 168 175 194 157 141 116 74 83 123 140
3710.0 130 130 155 184 188 152 161 141 150 183
3750.0 247 254 163 146 119 107 153 138 125 141
3790.0 134 173 178 129 138 178 161 117 114 152
3830.0 160 191 203 150 128
##END=
