##TITLE=Dihydropyran
##JCAMP-DX=4.24
##DATA TYPE=INFRARED SPECTRUM
##ORIGIN=NIST Mass Spectrometry Data Center
##OWNER=NIST Standard Reference Data Program
Collection (C) 2018 copyright by the U.S. Secretary of Commerce
on behalf of the United States of America. All rights reserved.
##CAS REGISTRY NO=110-87-2
##MOLFORM=C 5 H 8 O
##$NIST SOURCE=MSDC-IR
##SPECTROMETER/DATA SYSTEM=HP-GC/MS/IRD
##STATE=gas
##XUNITS=1/CM
##YUNITS=ABSORBANCE
##XFACTOR=1.0
##YFACTOR=0.000001300
##DELTAX=4.0
##FIRSTX=550.0
##LASTX=3846.0
##FIRSTY=0.000199
##MAXX=3846
##MINX=550
##MAXY=0.013
##MINY=0
##NPOINTS=825
##XYDATA=(X++(Y..Y))
550.0 153 77 117 41 9 125 184 187 166 100
590.0 130 141 108 72 94 68 59 114 78 44
630.0 73 90 131 177 149 158 164 151 213 233
670.0 200 189 234 297 383 550 774 1033 1301 1565
710.0 1691 1767 1920 3172 4871 3388 1830 2115 2198 2212
750.0 2320 1804 1089 868 723 655 581 455 324 235
790.0 206 241 243 246 351 450 516 602 650 776
830.0 865 899 899 869 941 1038 1055 1014 1084 1298
870.0 1572 1967 2307 2416 2589 2852 2746 2596 2688 2569
910.0 2209 1947 1743 1479 1400 1394 1236 1208 1169 1013
950.0 832 645 508 417 324 273 256 237 230 248
990.0 291 348 374 393 455 519 544 642 743 852
1030.0 1043 1280 1657 2171 2959 4076 5463 7162 8757 9610
1070.0 9784 9506 9213 9139 9025 8138 6342 4388 2798 1717
1110.0 1068 701 480 369 335 329 304 272 263 318
1150.0 339 322 342 366 412 467 518 543 591 633
1190.0 697 796 962 1275 1628 2042 2640 3453 4586 5919
1230.0 7098 7813 8125 8263 8232 8091 7745 7079 5937 4407
1270.0 2985 1962 1306 922 729 635 536 474 489 545
1310.0 578 564 591 648 661 647 664 645 583 552
1350.0 530 505 503 493 478 479 502 542 545 549
1390.0 546 520 517 526 528 527 529 514 509 535
1430.0 579 689 976 1101 913 904 1010 976 906 990
1470.0 1049 790 578 516 443 396 353 292 252 231
1510.0 205 178 168 160 161 163 164 164 177 192
1550.0 188 190 194 221 233 240 268 289 336 414
1590.0 460 519 666 876 1160 1557 2073 2704 3420 4203
1630.0 4942 5605 6114 6307 6287 6194 5813 5179 4543 3806
1670.0 2837 1871 1171 750 516 420 355 304 275 246
1710.0 239 247 225 205 203 204 202 203 210 212
1750.0 197 186 198 193 184 177 183 200 188 171
1790.0 186 212 197 204 220 238 265 263 281 284
1830.0 275 279 257 225 202 176 168 159 143 148
1870.0 160 166 158 150 167 195 215 212 203 213
1910.0 222 232 236 213 187 190 196 189 203 220
1950.0 242 275 286 269 265 276 287 277 235 213
1990.0 204 179 158 148 128 116 120 121 115 104
2030.0 101 91 83 82 86 92 106 116 127 132
2070.0 113 118 127 130 130 124 113 111 129 140
2110.0 160 178 165 151 161 168 176 177 170 168
2150.0 184 183 167 160 158 150 155 157 139 130
2190.0 120 114 120 112 93 90 90 71 73 74
2230.0 73 74 58 52 58 56 46 44 52 71
2270.0 81 80 89 100 95 90 108 113 115 114
2310.0 108 118 130 138 131 123 108 92 88 68
2350.0 68 64 28 30 48 32 40 52 54 45
2390.0 31 35 46 56 55 42 18 0 34 56
2430.0 32 35 51 40 50 73 58 74 74 54
2470.0 73 89 83 75 65 57 69 63 59 65
2510.0 66 60 67 64 49 38 33 36 53 57
2550.0 43 44 42 50 75 86 78 81 81 61
2590.0 76 100 104 95 84 84 113 141 121 76
2630.0 97 140 162 130 132 180 184 175 149 136
2670.0 134 140 146 157 173 181 180 174 213 255
2710.0 274 302 315 301 284 311 289 255 245 249
2750.0 263 260 259 255 245 251 240 238 246 240
2790.0 236 242 276 297 325 371 392 421 522 599
2830.0 723 1031 1499 2068 2673 3199 3614 4240 4885 5048
2870.0 4935 5277 6118 5743 4522 3973 3783 3673 3745 4134
2910.0 4418 4423 4686 5265 5901 6529 7368 8187 8134 7406
2950.0 8316 10000 8425 6702 6667 6487 5988 5321 4719 4132
2990.0 3648 3192 2613 1952 1322 856 591 481 418 384
3030.0 401 401 473 640 894 1232 1565 1848 2060 2201
3070.0 2263 2309 2341 2239 2013 1710 1326 961 749 560
3110.0 386 262 170 126 126 129 105 69 48 56
3150.0 74 68 58 71 88 105 104 66 69 126
3190.0 126 69 63 91 86 120 126 105 99 96
3230.0 108 89 98 135 123 87 85 95 119 151
3270.0 116 72 79 100 99 86 110 132 108 84
3310.0 83 95 95 69 53 70 111 132 101 60
3350.0 49 74 104 148 116 25 2 72 118 97
3390.0 63 48 78 91 91 110 89 85 101 104
3430.0 99 96 78 89 108 98 113 99 96 152
3470.0 173 126 99 95 114 116 108 96 89 91
3510.0 98 101 88 53 42 78 89 82 98 104
3550.0 106 88 101 141 151 150 92 97 136 120
3590.0 109 159 217 185 96 79 109 80 85 102
3630.0 93 151 149 127 124 130 144 111 103 86
3670.0 107 141 163 156 137 157 149 155 183 133
3710.0 97 140 143 121 77 82 162 212 216 164
3750.0 121 109 123 156 159 165 129 109 135 134
3790.0 162 222 224 192 165 169 190 195 191 206
3830.0 221 195 160 155 148
##END=
