##TITLE=2-Methylundecanal
##JCAMP-DX=4.24
##DATA TYPE=INFRARED SPECTRUM
##ORIGIN=NIST Mass Spectrometry Data Center
##OWNER=NIST Standard Reference Data Program
Collection (C) 2018 copyright by the U.S. Secretary of Commerce
on behalf of the United States of America. All rights reserved.
##CAS REGISTRY NO=110-41-8
##MOLFORM=C 12 H 24 O
##$NIST SOURCE=MSDC-IR
##SPECTROMETER/DATA SYSTEM=HP-GC/MS/IRD
##STATE=gas
##XUNITS=1/CM
##YUNITS=ABSORBANCE
##XFACTOR=1.0
##YFACTOR=0.000004200
##DELTAX=4.0
##FIRSTX=550.0
##LASTX=3846.0
##FIRSTY=0.000475
##MAXX=3846
##MINX=550
##MAXY=0.042
##MINY=0
##NPOINTS=825
##XYDATA=(X++(Y..Y))
550.0 113 59 39 39 21 35 40 33 44 33
590.0 28 25 3 0 14 4 5 16 26 48
630.0 56 51 54 61 62 48 33 38 41 42
670.0 57 72 63 51 54 58 68 68 89 115
710.0 134 163 184 194 192 183 166 162 161 150
750.0 140 143 137 124 128 127 127 136 132 128
790.0 139 152 165 163 165 175 174 167 161 155
830.0 156 158 159 150 141 142 144 148 155 158
870.0 160 170 178 189 208 227 253 287 321 357
910.0 393 409 422 425 403 360 315 270 235 208
950.0 184 171 152 135 130 116 101 104 105 95
990.0 84 76 73 77 79 74 72 71 72 78
1030.0 81 77 83 92 88 78 76 80 81 82
1070.0 86 87 89 92 93 95 97 106 108 107
1110.0 117 126 133 125 120 124 132 140 142 135
1150.0 122 109 98 105 109 102 111 122 110 99
1190.0 94 87 90 84 70 68 75 78 71 66
1230.0 69 67 65 65 71 78 84 95 108 110
1270.0 109 115 125 132 141 151 163 175 186 187
1310.0 189 189 189 194 198 207 226 253 283 305
1350.0 316 323 319 314 327 349 388 415 410 386
1390.0 349 320 289 252 221 206 193 192 205 222
1430.0 253 306 384 487 615 752 886 996 1033 983
1470.0 858 690 522 389 299 233 186 155 134 118
1510.0 101 85 75 69 61 57 53 49 49 49
1550.0 49 45 47 46 35 38 41 33 36 34
1590.0 34 35 34 34 37 38 38 39 41 46
1630.0 50 54 59 69 73 80 93 103 117 137
1670.0 154 174 205 239 275 315 364 433 510 601
1710.0 720 883 1112 1410 1810 2320 2904 3395 3553 3288
1750.0 2723 2102 1587 1201 928 735 590 484 405 347
1790.0 301 264 232 199 174 152 133 119 108 96
1830.0 86 74 64 58 53 49 39 35 34 26
1870.0 23 30 30 19 12 13 17 15 14 17
1910.0 14 12 7 6 6 4 5 6 10 11
1950.0 6 3 3 1 2 6 6 5 3 0
1990.0 1 6 5 0 7 10 14 12 7 11
2030.0 20 19 14 12 8 9 13 12 12 14
2070.0 13 9 8 10 12 13 10 9 9 8
2110.0 3 2 6 1 2 3 0 0 2 1
2150.0 1 2 6 6 6 8 5 2 0 3
2190.0 7 4 2 5 3 3 6 9 10 9
2230.0 8 0 5 12 13 13 9 6 8 9
2270.0 7 4 4 8 9 6 6 6 7 7
2310.0 7 11 14 17 15 8 8 12 11 11
2350.0 10 11 19 18 13 14 10 10 11 6
2390.0 4 7 8 7 8 13 14 14 12 12
2430.0 11 7 9 13 12 12 14 12 8 6
2470.0 11 11 12 13 15 17 19 16 14 19
2510.0 23 23 28 30 28 30 32 38 42 44
2550.0 41 40 47 44 46 54 58 63 70 73
2590.0 76 83 92 100 112 123 133 146 164 182
2630.0 199 216 232 251 278 306 335 372 418 471
2670.0 531 610 706 805 919 1030 1121 1173 1163 1095
2710.0 1003 905 815 738 675 630 603 574 552 541
2750.0 532 525 516 518 523 536 563 585 612 654
2790.0 714 781 848 898 908 879 839 818 815 829
2830.0 869 938 1060 1255 1548 2003 2622 3274 3762 3931
2870.0 3781 3490 3207 2991 2823 2683 2626 2712 2963 3361
2910.0 3907 4643 5641 6938 8377 9551 10000 9569 8462 7047
2950.0 5704 4732 4223 4076 4076 3940 3539 2978 2426 1934
2990.0 1502 1157 908 731 605 517 447 397 355 320
3030.0 291 271 251 229 214 207 193 180 170 162
3070.0 160 156 145 141 139 132 125 122 118 116
3110.0 111 105 105 103 100 95 87 82 81 81
3150.0 82 82 75 67 68 67 59 58 62 55
3190.0 49 45 44 43 38 34 37 26 26 34
3230.0 27 23 22 18 19 21 18 14 12 12
3270.0 11 13 17 14 12 11 10 10 13 13
3310.0 8 7 5 10 13 14 22 22 13 7
3350.0 8 13 19 26 20 21 16 7 17 19
3390.0 8 14 16 15 23 20 28 31 34 34
3430.0 39 49 45 48 56 67 67 72 83 79
3470.0 71 65 61 54 43 34 27 23 20 23
3510.0 26 23 18 13 16 16 15 11 6 5
3550.0 1 1 8 8 15 18 16 15 19 27
3590.0 22 17 11 3 12 21 21 20 23 31
3630.0 33 30 31 30 23 18 18 20 26 21
3670.0 16 12 6 13 11 9 14 19 23 22
3710.0 16 14 19 13 15 23 30 28 27 34
3750.0 29 29 28 23 21 15 14 17 30 33
3790.0 20 17 15 22 28 28 36 37 26 23
3830.0 28 22 19 22 12
##END=
