##TITLE=Vinylphenylacetonitrile
##JCAMP-DX=4.24
##DATA TYPE=INFRARED SPECTRUM
##ORIGIN=EPA-IR VAPOR PHASE LIBRARY
##OWNER=SRD/NIST
Collection (C) 2018 copyright by the U.S. Secretary of Commerce
on behalf of the United States of America. All rights reserved.
##CAS REGISTRY NO=110013-89-3
##MOLFORM=C 10 H 9 N
##$NIST SOURCE=MSDC-IR
##STATE=gas
##XUNITS=1/CM
##YUNITS=ABSORBANCE
##XFACTOR=1.
##YFACTOR=0.001
##DELTAX=1.92898
##FIRSTX=549.8
##LASTX=4000.7
##FIRSTY=0.6318
##MAXX=4000.7
##MINX=549.759
##MAXY=0.011696
##MINY=0
##NPOINTS=1790
##XYDATA=(X++(Y..Y))
549.759 0.6318 1.0111 1.0855 0.8058 1.0421 1.416 1.3007 1.0753 1.2321 1.0148
569.049 0.7913 1.009 1.087 1.2085 1.2802 1.1612 1.1543 1.2253 0.9421 0.7764
588.339 1.0713 1.1673 1.0382 1.0548 1.1796 1.1766 0.9706 1.0377 1.0252 0.9808
607.628 0.8661 0.7374 0.7893 0.8646 0.7684 0.6281 0.7519 0.9891 0.8663 0.6294
626.918 0.5861 0.8172 0.6868 0.4805 0.5515 0.5066 0.5285 0.5975 0.7488 0.7972
646.208 0.6459 0.5086 0.5488 0.7649 0.9157 0.5918 0.6257 0.7339 0.612 0.7179
665.498 0.8981 0.8341 0.8353 0.853 0.8293 0.9951 1.0939 1.1585 1.1996 1.2853
684.787 1.2696 1.2958 1.2764 1.3045 1.376 1.556 1.736 1.616 1.716 1.836
704.077 1.926 2.146 2.186 2.046 1.996 2.046 2.106 2.036 1.836 1.826
723.367 2.006 2.126 2.046 1.836 1.656 1.456 1.406 1.426 1.3101 1.1549
742.657 1.1283 1.3259 1.376 1.2015 1.2825 1.396 1.366 1.446 1.616 1.616
761.947 1.516 1.486 1.566 1.726 1.526 1.506 1.746 1.716 1.706 1.796
781.236 1.846 1.896 1.766 1.856 2.256 2.396 2.596 2.856 3.286 3.916
800.526 4.426 5.066 5.816 6.496 7.196 7.956 8.606 9.186 9.856 10.276
819.816 10.566 10.966 11.066 10.966 10.756 10.156 9.636 9.106 8.346 7.686
839.106 7.066 6.566 5.896 5.246 4.996 4.526 3.956 3.656 3.336 3.056
858.395 2.956 2.946 2.766 2.466 2.396 2.416 2.346 2.316 2.176 2.176
877.685 2.426 2.346 2.406 2.596 2.766 3.076 3.296 3.776 4.266 4.586
896.975 5.106 5.806 6.526 7.176 7.796 8.396 8.976 9.766 10.536 10.886
916.265 10.616 9.946 9.346 8.836 8.446 7.936 7.216 6.396 5.796 5.276
935.555 4.596 4.056 3.686 3.426 3.096 2.866 2.666 2.586 2.716 2.726
954.844 2.696 2.856 3.006 3.106 3.216 3.436 3.806 3.886 3.926 4.306
974.134 4.616 4.736 4.786 5.036 5.296 5.446 5.636 5.646 5.566 5.166
993.424 4.706 4.586 4.536 4.106 3.526 3.436 3.416 3.426 3.926 4.396
1012.714 4.586 4.556 4.226 4.186 4.286 4.086 3.906 3.396 2.846 2.556
1032.003 2.226 2.116 2.086 2.066 1.946 1.666 1.376 1.132 1.1279 1.1654
1051.293 0.9944 0.9552 1.2652 1.27 0.8886 0.7779 0.69 0.8136 1.1244 0.9628
1070.583 0.9125 1.2133 1.1593 1.2027 1.546 1.1445 0.817 0.9918 1.0196 0.9054
1089.873 0.8201 1.0538 1.446 1.386 1.1043 1.1786 1.2737 1.426 1.1612 1.2778
1109.163 1.696 1.616 1.576 1.766 2.076 1.726 1.506 1.716 1.656 1.496
1128.452 1.2954 1.426 1.646 1.1994 0.7925 0.5825 0.4485 0.6195 0.7818 0.5302
1147.742 0.42035 0.6713 0.7254 0.7876 0.6493 0.6946 0.8885 0.9082 0.9274 1.0833
1167.032 1.171 0.7298 0.6455 0.9209 0.8221 0.725 0.9166 1.2026 1.2844 1.2505
1186.322 1.1949 1.0366 0.9972 1.0242 0.9833 0.9916 0.8161 0.5288 0.5802 0.6801
1205.611 0.7684 1.0493 0.9384 0.7222 0.8061 0.8008 0.5813 0.4989 0.7099 0.9304
1224.901 1.1835 1.1338 1.0173 0.9734 0.7721 0.795 1.077 0.9075 0.6441 0.6329
1244.191 0.5209 0.5231 0.6172 0.6763 0.719 0.7161 0.7847 0.5811 0.5482 0.87
1263.481 0.9839 1.0399 0.8943 0.9035 0.9571 0.9626 1.0195 1.2405 1.366 1.396
1282.771 1.466 1.556 1.636 1.626 1.666 1.766 1.766 1.736 1.776 1.736
1302.060 1.736 1.696 1.506 1.446 1.366 1.2643 1.1949 1.0743 0.9829 0.9171
1321.350 0.8699 0.8239 0.7964 0.8309 0.7821 0.7195 0.6577 0.6288 0.6929 0.6912
1340.640 0.668 0.6552 0.6069 0.6407 0.6811 0.6686 0.7259 0.7401 0.6865 0.6825
1359.930 0.7323 0.7526 0.755 0.8109 0.8655 0.8357 0.831 0.9187 0.9559 1.0439
1379.219 1.1712 1.2867 1.456 1.586 1.756 1.986 2.166 2.406 2.666 2.916
1398.509 3.176 3.436 3.706 3.896 4.036 4.156 4.306 4.456 4.586 4.756
1417.799 4.976 5.236 5.486 5.606 5.476 5.266 5.126 4.916 4.616 4.086
1437.089 3.386 2.876 2.496 2.156 1.896 1.746 1.666 1.486 1.2731 1.1666
1456.378 1.0949 1.0593 1.0218 0.9634 0.9725 0.9382 0.8845 0.8887 0.891 0.8875
1475.668 0.8677 0.8569 0.9387 1.0176 1.0378 1.1341 1.1837 1.3156 1.666 2.006
1494.958 2.426 3.136 4.076 5.326 6.896 8.576 10.186 11.296 11.696 11.666
1514.248 11.326 10.586 9.366 7.596 5.476 3.796 2.716 2.056 1.706 1.456
1533.538 1.2598 1.2237 1.2217 1.2055 1.1669 1.237 1.276 1.1961 1.2386 1.2498
1552.827 1.2929 1.3144 1.2669 1.356 1.396 1.346 1.376 1.376 1.2426 1.2176
1572.117 1.2479 1.1856 1.0649 1.1064 1.1458 1.1209 1.1228 0.987 0.9072 0.9492
1591.407 0.9575 0.8825 0.8598 0.9216 0.9592 1.0464 1.203 1.2442 1.2707 1.436
1610.697 1.586 1.746 1.926 2.066 2.246 2.556 2.966 3.306 3.626 4.026
1629.986 4.256 4.346 4.416 4.236 3.916 3.606 3.236 2.856 2.396 1.996
1649.276 1.786 1.616 1.486 1.2927 1.1778 1.1037 1.0082 1.0476 1.0512 0.9381
1668.566 0.8131 0.7838 0.7803 0.7469 0.7398 0.7689 0.7102 0.6511 0.6789 0.6503
1687.856 0.635 0.5941 0.5391 0.5069 0.4909 0.4891 0.5255 0.5122 0.4079 0.37631
1707.146 0.4622 0.485 0.42497 0.42466 0.4333 0.4997 0.4634 0.40545 0.40579 0.39928
1726.435 0.38214 0.331269 0.40254 0.4416 0.4729 0.4842 0.4838 0.519 0.528 0.5416
1745.725 0.5563 0.6081 0.5815 0.5519 0.5784 0.5937 0.6374 0.6751 0.683 0.6663
1765.015 0.6343 0.6487 0.6826 0.8009 0.9268 0.9276 0.9368 0.9588 1.0514 1.1421
1784.305 1.1278 1.0762 1.0616 0.9944 0.9317 0.8982 0.782 0.7594 0.7047 0.5695
1803.594 0.5483 0.5717 0.5903 0.6686 0.6976 0.7852 0.9267 1.0857 1.2353 1.376
1822.884 1.686 1.946 2.056 2.256 2.466 2.536 2.516 2.426 2.266 2.026
1842.174 1.766 1.526 1.2611 1.0854 0.9671 0.9099 0.8299 0.7205 0.7249 0.676
1861.464 0.6393 0.6649 0.6315 0.6555 0.7669 0.7632 0.7108 0.7483 0.8198 0.8816
1880.754 0.8347 0.8159 0.889 0.9242 0.9715 0.9813 0.957 1.0006 1.0444 1.1033
1900.043 1.1867 1.2106 1.1937 1.1215 1.0888 1.1002 1.1024 1.069 1.0252 0.9391
1919.333 0.8072 0.8004 0.7706 0.669 0.6151 0.5712 0.5112 0.4856 0.4872 0.5019
1938.623 0.4689 0.41263 0.4503 0.4828 0.4896 0.4594 0.4331 0.41622 0.4429 0.4361
1957.913 0.36092 0.35566 0.39296 0.4626 0.4648 0.37592 0.3148 0.35853 0.39347 0.38134
1977.202 0.38728 0.37638 0.335256 0.3218 0.327776 0.330304 0.315 0.3022 0.32495 0.2872
1996.492 0.2363 0.3088 0.331279 0.2618 0.2629 0.2732 0.2798 0.3069 0.3043 0.2681
2015.782 0.2478 0.32712 0.32398 0.2541 0.2842 0.2658 0.2811 0.2503 0.209 0.2786
2035.072 0.2493 0.2855 0.37883 0.31845 0.3147 0.33989 0.3136 0.3009 0.2785 0.31881
2054.362 0.34225 0.2985 0.3121 0.2819 0.2669 0.33763 0.37461 0.36319 0.2837 0.3065
2073.651 0.33771 0.2965 0.3114 0.3153 0.2902 0.2597 0.2556 0.2859 0.3012 0.2702
2092.941 0.258 0.2769 0.2802 0.2807 0.273 0.2875 0.2862 0.22 0.2286 0.3145
2112.231 0.36201 0.34813 0.32096 0.2879 0.286 0.31624 0.2628 0.2837 0.3092 0.2382
2131.521 0.269 0.2832 0.2278 0.2918 0.32086 0.2862 0.2522 0.208 0.2813 0.3132
2150.810 0.2688 0.2654 0.2426 0.2779 0.36352 0.2975 0.146 0.159 0.207 0.176
2170.100 0.185 0.2261 0.2589 0.204 0.203 0.2452 0.272 0.3068 0.2924 0.215
2189.390 0.217 0.2453 0.2395 0.2491 0.223 0.254 0.2624 0.235 0.2795 0.2896
2208.680 0.217 0.223 0.221 0.198 0.174 0.2502 0.38489 0.34643 0.2584 0.2784
2227.970 0.35564 0.42461 0.41774 0.338 0.41424 0.5477 0.5381 0.5627 0.5913 0.615
2247.259 0.7202 0.7911 0.8094 0.8251 0.9017 0.922 0.9323 0.9161 0.8182 0.7706
2266.549 0.7291 0.6694 0.67 0.6352 0.503 0.41468 0.38193 0.4272 0.4949 0.4376
2285.839 0.36598 0.36435 0.326874 0.2633 0.2948 0.37007 0.38903 0.35088 0.293 0.3059
2305.129 0.35645 0.42339 0.4524 0.40947 0.3921 0.39611 0.3621 0.35516 0.33605 0.3153
2324.418 0.39827 0.38833 0.35727 0.40666 0.4331 0.4658 0.4741 0.42039 0.40603 0.38908
2343.708 0.35438 0.37422 0.40037 0.39371 0.37608 0.35595 0.35782 0.35221 0.36799 0.4343
2362.998 0.40093 0.33645 0.36068 0.41361 0.39278 0.3011 0.2488 0.2718 0.2708 0.207
2382.288 0.2423 0.3064 0.34641 0.32283 0.2485 0.2449 0.2794 0.2829 0.2628 0.265
2401.578 0.302 0.2968 0.294 0.3105 0.293 0.31605 0.32442 0.3134 0.2291 0.19
2420.867 0.2383 0.2604 0.2606 0.2595 0.2686 0.3037 0.3005 0.2805 0.193 0.115
2440.157 0.215 0.2639 0.2619 0.2837 0.2535 0.2481 0.2898 0.2291 0.192 0.2663
2459.447 0.2591 0.2332 0.2567 0.2788 0.205 0.146 0.211 0.2743 0.262 0.2898
2478.737 0.331276 0.2746 0.2569 0.31856 0.261 0.179 0.3018 0.35607 0.2483 0.205
2498.026 0.2566 0.2924 0.2841 0.2802 0.235 0.2472 0.32115 0.332771 0.3189 0.3123
2517.316 0.2472 0.185 0.3062 0.328496 0.3031 0.31711 0.2551 0.199 0.121 0.129
2536.606 0.214 0.2458 0.209 0.18 0.213 0.3185 0.327249 0.2899 0.326217 0.32026
2555.896 0.3037 0.3054 0.2678 0.223 0.2309 0.2595 0.2339 0.2438 0.34297 0.4412
2575.186 0.429 0.37143 0.38629 0.41799 0.39739 0.33701 0.3124 0.2892 0.2869 0.35691
2594.475 0.35141 0.35961 0.4391 0.40385 0.2607 0.2408 0.3022 0.2847 0.32024 0.37986
2613.765 0.37777 0.34308 0.40993 0.39101 0.37445 0.41348 0.31866 0.36123 0.4288 0.37462
2633.055 0.331729 0.2858 0.2427 0.223 0.2428 0.3016 0.2994 0.221 0.209 0.2836
2652.345 0.293 0.2607 0.204 0.176 0.2947 0.2549 0.21 0.3393 0.32328 0.2481
2671.634 0.2559 0.35536 0.38611 0.2836 0.207 0.237 0.2677 0.2803 0.2756 0.2267
2690.924 0.2341 0.2604 0.225 0.194 0.2524 0.2813 0.285 0.2442 0.224 0.3104
2710.214 0.35325 0.32463 0.335259 0.335301 0.34183 0.34283 0.2636 0.2279 0.2964 0.35198
2729.504 0.3126 0.3154 0.32188 0.4008 0.42066 0.41169 0.40683 0.3235 0.34232 0.40031
2748.794 0.36717 0.2515 0.181 0.2276 0.224 0.2538 0.2896 0.3025 0.37289 0.2727
2768.083 0.157 0.148 0.17 0.147 0.111 0.222 0.2777 0.192 0.2675 0.38804
2787.373 0.40448 0.3047 0.2856 0.35876 0.334455 0.218 0.3052 0.4853 0.4591 0.4789
2806.663 0.4635 0.4548 0.4343 0.36683 0.39908 0.467 0.491 0.5527 0.4781 0.4714
2825.953 0.6135 0.5916 0.6419 0.7197 0.6736 0.6097 0.6838 0.7138 0.6093 0.4958
2845.242 0.45 0.5387 0.5145 0.482 0.5901 0.5483 0.4941 0.4791 0.40845 0.40239
2864.532 0.444 0.40814 0.41763 0.4833 0.5226 0.5042 0.32354 0.225 0.2519 0.34674
2883.822 0.4738 0.41502 0.3087 0.35364 0.4489 0.498 0.5074 0.5869 0.7642 0.7299
2903.112 0.6874 0.8627 0.9657 0.9371 0.9944 1.2155 1.406 1.476 1.576 1.706
2922.401 1.866 1.986 2.156 2.346 2.396 2.506 2.456 2.206 2.136 2.176
2941.691 1.966 1.676 1.546 1.556 1.586 1.496 1.406 1.446 1.436 1.426
2960.981 1.446 1.476 1.536 1.566 1.716 1.876 1.916 1.856 2.016 2.076
2980.271 2.206 2.406 2.416 2.616 2.796 2.836 2.926 3.076 3.206 3.336
2999.561 3.456 3.716 4.226 4.626 5.086 5.836 6.556 7.156 7.576 7.796
3018.850 7.996 8.266 8.316 8.096 7.786 7.376 7.106 6.996 7.016 7.036
3038.140 6.826 6.536 6.266 5.856 5.536 5.546 5.556 5.456 5.296 5.236
3057.430 5.266 5.316 5.236 5.006 4.826 4.906 4.946 4.776 4.706 4.676
3076.720 4.706 4.856 4.886 4.946 5.136 5.436 6.056 7.036 7.746 7.836
3096.009 7.716 7.406 7.036 6.686 5.996 4.816 3.656 2.926 2.556 2.246
3115.299 1.896 1.646 1.476 1.3192 1.2768 1.2885 1.2909 1.3128 1.2041 1.1144
3134.589 1.1574 1.0479 0.9003 0.8606 0.7269 0.5975 0.5511 0.5531 0.6478 0.8141
3153.879 0.8381 0.7249 0.7125 0.5557 0.5451 0.6166 0.5603 0.5548 0.5255 0.5123
3173.169 0.6292 0.6567 0.4938 0.4447 0.42307 0.501 0.5711 0.5596 0.6085 0.5228
3192.458 0.4646 0.41177 0.4381 0.712 0.7836 0.6775 0.5567 0.4953 0.4985 0.327814
3211.748 0.2654 0.38291 0.41284 0.39026 0.3123 0.2764 0.3106 0.3188 0.36795 0.34396
3231.038 0.449 0.5546 0.334143 0.151 0.187 0.3156 0.335774 0.33223 0.335418 0.41473
3250.328 0.38686 0.4236 0.5386 0.5106 0.5068 0.41574 0.38866 0.37637 0.33641 0.2914
3269.617 0.223 0.2344 0.33806 0.4723 0.34077 0.2443 0.32035 0.2971 0.325986 0.34427
3288.907 0.3071 0.2828 0.34982 0.4517 0.39129 0.3105 0.35016 0.2318 0.207 0.41255
3308.197 0.38888 0.2504 0.3009 0.327178 0.40023 0.394 0.186 0.13 0.119 0.203
3327.487 0.35069 0.34696 0.2461 0.36455 0.469 0.32305 0.32132 0.38012 0.38289 0.4302
3346.777 0.34771 0.2469 0.315 0.3038 0.2291 0.33974 0.6105 0.5487 0.3081 0.3557
3366.066 0.46 0.4647 0.4314 0.4178 0.326765 0.16 0.212 0.233 0.36538 0.5291
3385.356 0.3037 0.3081 0.5051 0.5 0.4289 0.5476 0.6128 0.4523 0.2702 0.36319
3404.646 0.4867 0.4318 0.42197 0.219 0.094 0.2317 0.38518 0.34696 0.2892 0.399
3423.936 0.37633 0.2272 0.117 0.121 0.2361 0.3078 0.3051 0.36413 0.422 0.4263
3443.225 0.3141 0.193 0.19 0.2878 0.207 0.098 0.2975 0.2857 0.119 0.049
3462.515 0.129 0.233 0.2972 0.326929 0.199 0.209 0.226 0.2326 0.329249 0.36892
3481.805 0.2612 0.2583 0.5095 0.4864 0.3103 0.2448 0.155 0.17 0.192 0.211
3501.095 0.2661 0.2466 0.207 0.2455 0.2944 0.236 0.213 0.2333 0.3107 0.39398
3520.385 0.244 0.141 0.3014 0.32198 0.138 0.2524 0.38321 0.2587 0.2506 0.41804
3539.674 0.4808 0.333974 0.36117 0.35828 0.330022 0.35647 0.2611 0.4493 0.4734 0.3822
3558.964 0.34847 0.097 0 0.098 0.34202 0.504 0.38465 0.35605 0.2742 0.2
3578.254 0.37082 0.42464 0.3398 0.3782 0.35486 0.309 0.4626 0.4986 0.41211 0.38313
3597.544 0.36359 0.2733 0.2433 0.265 0.2973 0.35755 0.306 0.2893 0.2986 0.35245
3616.833 0.37014 0.326291 0.32328 0.40255 0.4311 0.4737 0.6292 0.6878 0.6021 0.4729
3636.123 0.36921 0.334865 0.3048 0.177 0.37795 0.5321 0.4509 0.4765 0.4631 0.4466
3655.413 0.36411 0.2529 0.3086 0.40286 0.2636 0.216 0.3085 0.449 0.54 0.40877
3674.703 0.36238 0.35645 0.3031 0.3108 0.35925 0.4504 0.557 0.5445 0.4676 0.42238
3693.993 0.35605 0.33684 0.32126 0.35037 0.39701 0.35695 0.37494 0.3065 0.33911 0.4387
3713.282 0.4383 0.5945 0.5803 0.35942 0.35698 0.39214 0.31635 0.36283 0.3129 0.34402
3732.572 0.5106 0.4821 0.35984 0.3934 0.4904 0.4335 0.6351 0.7314 0.6145 0.4736
3751.862 0.35387 0.36202 0.37317 0.4425 0.4981 0.40766 0.332746 0.4356 0.5617 0.4434
3771.152 0.33847 0.4311 0.453 0.36002 0.331626 0.39994 0.40249 0.39051 0.3052 0.189
3790.441 0.221 0.4263 0.4458 0.37209 0.3123 0.4303 0.4899 0.332333 0.34994 0.22
3809.731 0.221 0.39795 0.37354 0.38175 0.5809 0.5452 0.4811 0.5476 0.563 0.4835
3829.021 0.36336 0.4429 0.5058 0.4474 0.4797 0.5102 0.4481 0.325732 0.2979 0.3609
3848.311 0.4457 0.4369 0.5285 0.592 0.5395 0.6215 0.6098 0.4943 0.34534 0.40214
3867.601 0.5258 0.5433 0.40274 0.312 0.40083 0.4476 0.38825 0.38065 0.37695 0.39241
3886.890 0.5144 0.4867 0.4368 0.5687 0.6356 0.4785 0.35828 0.4598 0.4734 0.41156
3906.180 0.5247 0.4291 0.216 0.330488 0.4773 0.333833 0.2597 0.35513 0.36263 0.5028
3925.470 0.5376 0.35799 0.40277 0.4505 0.3498 0.37858 0.38676 0.36932 0.4748 0.5128
3944.760 0.4962 0.4478 0.40651 0.41026 0.301 0.187 0.213 0.32498 0.34809 0.37488
3964.049 0.5198 0.4918 0.5316 0.6136 0.5069 0.42417 0.4305 0.34081 0.2984 0.4529
3983.339 0.4409 0.39529 0.5857 0.5717 0.37549 0.4262 0.48 0.4813 0.5271 0.5823
##END=
