##TITLE=2,6-Dibromo-4-nitrotoluene
##JCAMP-DX=4.24
##DATA TYPE=INFRARED SPECTRUM
##ORIGIN=EPA-IR VAPOR PHASE LIBRARY
##OWNER=SRD/NIST
Collection (C) 2018 copyright by the U.S. Secretary of Commerce
on behalf of the United States of America. All rights reserved.
##CAS REGISTRY NO=110127-07-6
##MOLFORM=C 7 H 5 Br 2 N O 2
##$NIST SOURCE=MSDC-IR
##STATE=gas
##XUNITS=1/CM
##YUNITS=ABSORBANCE
##XFACTOR=1.
##YFACTOR=0.001
##DELTAX=1.92934
##FIRSTX=549.9
##LASTX=3999.5
##FIRSTY=3.24
##MAXX=3999.53
##MINX=549.863
##MAXY=0.42099
##MINY=0
##NPOINTS=1789
##XYDATA=(X++(Y..Y))
549.863 3.24 3.24 3.17 3.2 3.17 3.1228 3.16 3.21 3.42 3.57
569.156 3.62 3.66 3.67 3.65 3.6 3.64 3.57 3.45 3.48 3.4
588.450 3.31 3.25 3.0122 2.9308 2.9038 2.8117 2.7132 2.6354 2.6107 2.4953
607.743 2.3894 2.3255 2.2738 2.2739 2.2881 2.3865 2.3311 2.23909 2.3116 2.4579
627.037 2.6001 2.7338 3.0063 3.27 3.6 3.93 4.24 4.54 4.78 5.18
646.330 5.82 6.8 8.29 10.84 14.6 19.72 26.29 33.5 39.55 42.44
665.624 42.13 39.68 34.56 27.26 20.27 15.69 13.7 13.24 13.76 15.81
684.917 16.98 15.31 14.23 14.26 13.96 13.52 12.9 12.09 11.06 10.25
704.210 10.01 10.48 11.6 13.34 15.77 18.74 22.02 25.44 28.84 32.35
723.504 36.36 41.8 50.02 62.3 78.15 95.62 112.67 128.92 133.1 117.57
742.797 97.58 77.14 55.34 37.86 26.27 19.21 14.97 12.36 10.56 9.34
762.091 8.46 7.69 7.17 7.03 7.17 7.75 8.87 10.61 13.15 16.65
781.384 21.65 29.11 39.73 52.42 63.39 68.27 67.86 65.2 57.12 43.34
800.678 29.77 19.97 13.88 10.15 7.82 6.27 5.23 4.33 3.72 3.5
819.971 3.21 2.9132 2.7223 2.7077 2.8103 2.8567 3.0115 3.31 3.53 3.64
839.264 3.81 4.01 4.08 4.11 4.06 3.94 3.8 3.63 3.49 3.44
858.558 3.49 3.65 3.92 4.35 4.85 5.47 6.28 7.09 7.9 8.9
877.851 10.35 12.45 15.57 19.82 25.34 31.92 38.59 44.4 48.22 49.24
897.145 46.83 40.91 33.18 26.01 20.16 15.36 11.61 8.95 7.25 6.21
916.438 5.54 5.19 5 4.94 4.91 4.8 4.66 4.5 4.28 4.01
935.732 3.77 3.62 3.51 3.46 3.51 3.67 3.84 4.02 4.29 4.66
955.025 5.12 5.67 6.34 7.1 7.94 8.96 10.09 11.29 12.6 13.92
974.318 15.24 16.6 17.93 19.28 20.57 21.8 23.01 24.16 25.18 25.97
993.612 26.47 26.6 26.22 25.38 24.1 22.37 20.36 18.29 16.35 14.71
1012.905 13.48 12.6 11.9 11.34 10.92 10.6 10.4 10.3 10.24 10.23
1032.199 10.35 10.47 10.53 10.59 10.67 10.71 10.73 10.68 10.56 10.45
1051.492 10.2 9.84 9.47 8.97 8.43 7.98 7.57 7.19 6.86 6.57
1070.786 6.3 6.05 5.86 5.69 5.48 5.22 5.1 5.07 4.92 4.82
1090.079 4.85 4.9 4.96 4.98 5.03 5.06 5.16 5.58 6.32 7.41
1109.372 9.15 11.79 15.51 20.96 28.47 37.77 48.16 58.12 65.45 68.82
1128.666 67.92 62.23 52.21 40.54 29.92 21.71 16.07 12.35 9.87 8.13
1147.959 6.83 5.83 5.02 4.33 3.8 3.39 3.18 3.1104 3.1247 3.1291
1167.253 3.28 3.52 3.75 4.02 4.38 4.91 5.28 5.55 5.9 6.08
1186.546 5.99 5.61 5.37 5.03 4.45 4.15 4.2 4.39 4.38 4.39
1205.840 4.41 4.27 4.12 4.28 4.45 4.55 4.81 5.28 5.75 6.07
1225.133 6.24 6.53 6.77 6.94 7.06 7.09 7.27 7.35 7.33 7.36
1244.426 7.38 7.36 7.19 6.87 6.58 6.28 5.94 5.82 5.74 5.68
1263.720 5.74 5.96 6.31 6.61 6.77 6.75 6.78 6.74 6.59 6.42
1283.013 6.22 6.08 5.98 5.89 5.87 5.95 6.16 6.45 6.82 7.28
1302.307 7.88 8.57 9.26 10.04 10.86 11.83 13.19 15.01 17.5 20.95
1321.600 25.51 31.34 38.87 48.33 60.2 75.5 95.6 122.28 157.42 201.93
1340.894 254.34 308.31 353.66 379.56 381.58 360.4 314.7 249.98 183.52 130.67
1360.187 96.3 77.89 70.73 70.54 73.85 77.79 80.27 80.29 77.53 72.36
1379.480 65.74 59.07 53.15 48.14 43.77 40.01 36.66 33.55 30.95 29.4
1398.774 28.8 28.66 28.65 28.44 27.84 26.8 25.46 24.17 23.38 23.41
1418.067 24.47 26.59 29.4 32.54 35.52 37.84 39.23 39.33 38.03 35.6
1437.361 32.47 29.27 26.14 23.19 20.56 18.39 16.73 15.6 14.97 14.72
1456.654 14.73 14.88 15.09 15.41 15.97 16.84 18.08 19.8 22 24.43
1475.948 26.68 28.51 29.6 29.79 29.11 27.95 26.79 26.11 26.15 26.93
1495.241 28.15 29.3 29.93 30.1 30.03 30.22 31.05 32.61 35.32 39.62
1514.534 45.49 53.23 62.99 75.01 90.37 108.6 131.59 160.2 195.23 237.37
1533.828 286.38 337.54 381.78 412.67 420.99 403.28 361.4 303.09 238.27 177.79
1553.121 131.93 100.04 80.2 66.7 57.03 50.55 45.97 42.84 40.9 39.9
1572.415 39.79 40.32 41.35 42.73 44.18 45.52 46.32 46.02 44.18 40.72
1591.708 35.97 30.62 25.26 20.42 16.52 13.72 11.92 10.89 10.32 10
1611.002 9.89 10.12 10.6 11.14 11.82 12.65 13.57 14.38 14.95 15.2
1630.295 15.01 14.43 13.39 11.86 10.21 8.59 7.17 6.15 5.37 4.81
1649.588 4.52 4.43 4.37 4.33 4.39 4.45 4.51 4.59 4.6 4.57
1668.882 4.59 4.52 4.42 4.33 4.18 4.03 3.84 3.66 3.52 3.35
1688.175 3.21 3.16 3.1273 3.18 3.27 3.36 3.54 3.61 3.53 3.45
1707.469 3.32 3.17 2.9976 2.8465 2.7699 2.737 2.7334 2.7263 2.6801 2.6638
1726.762 2.6285 2.5575 2.5592 2.5897 2.6021 2.5755 2.6116 2.7162 2.8025 2.917
1746.056 3.1118 3.32 3.59 3.93 4.27 4.66 5.1 5.61 6.2 6.77
1765.349 7.3 7.8 8.19 8.51 8.7 8.66 8.42 8.05 7.55 6.93
1784.642 6.26 5.63 5.05 4.44 3.92 3.54 3.2 2.8608 2.5628 2.3276
1803.936 2.0929 1.895 1.768 1.669 1.604 1.574 1.552 1.519 1.479 1.446
1823.229 1.419 1.428 1.444 1.446 1.466 1.463 1.522 1.593 1.531 1.488
1842.523 1.517 1.557 1.584 1.57 1.591 1.64 1.663 1.628 1.623 1.61
1861.816 1.593 1.612 1.563 1.553 1.535 1.467 1.454 1.476 1.471 1.435
1881.110 1.409 1.392 1.402 1.406 1.453 1.499 1.502 1.515 1.537 1.531
1900.403 1.53 1.524 1.497 1.503 1.501 1.48 1.497 1.523 1.537 1.578
1919.696 1.556 1.525 1.519 1.546 1.558 1.516 1.551 1.577 1.539 1.526
1938.990 1.504 1.502 1.5 1.439 1.427 1.42 1.364 1.336 1.304 1.296
1958.283 1.29 1.279 1.286 1.263 1.266 1.299 1.301 1.297 1.314 1.309
1977.577 1.265 1.261 1.283 1.31 1.344 1.362 1.356 1.357 1.416 1.438
1996.870 1.394 1.399 1.454 1.488 1.519 1.565 1.582 1.611 1.679 1.761
2016.164 1.788 1.763 1.741 1.683 1.646 1.641 1.612 1.571 1.554 1.539
2035.457 1.528 1.536 1.535 1.553 1.553 1.553 1.612 1.67 1.629 1.559
2054.750 1.552 1.546 1.536 1.516 1.489 1.49 1.49 1.478 1.436 1.415
2074.044 1.425 1.448 1.466 1.503 1.513 1.463 1.457 1.449 1.411 1.382
2093.337 1.392 1.358 1.317 1.333 1.317 1.284 1.243 1.219 1.212 1.202
2112.631 1.233 1.223 1.173 1.141 1.14 1.16 1.167 1.163 1.154 1.14
2131.924 1.12 1.11 1.11 1.14 1.162 1.13 1.12 1.12 1.11 1.09
2151.218 1.07 1.09 1.13 1.14 1.13 1.157 1.168 1.14 1.2 1.26
2170.511 1.218 1.196 1.244 1.259 1.24 1.245 1.233 1.207 1.158 1.14
2189.804 1.148 1.1 1.07 1.1 1.11 1.12 1.13 1.13 1.148 1.19
2209.098 1.196 1.184 1.178 1.192 1.211 1.26 1.313 1.344 1.353 1.364
2228.391 1.421 1.454 1.471 1.499 1.533 1.534 1.54 1.562 1.576 1.568
2247.685 1.542 1.536 1.513 1.503 1.479 1.4 1.336 1.304 1.291 1.276
2266.978 1.24 1.2 1.172 1.145 1.11 1.1 1.11 1.12 1.09 1.1
2286.272 1.12 1.11 1.12 1.149 1.158 1.165 1.204 1.246 1.276 1.282
2305.565 1.285 1.309 1.339 1.348 1.334 1.374 1.471 1.493 1.509 1.514
2324.858 1.48 1.482 1.464 1.443 1.394 1.329 1.292 1.261 1.225 1.158
2344.152 1.1 1.11 1.11 1.1 1.09 1.11 1.148 1.17 1.209 1.253
2363.445 1.267 1.253 1.241 1.259 1.295 1.34 1.407 1.401 1.352 1.362
2382.739 1.366 1.364 1.353 1.344 1.343 1.366 1.368 1.338 1.385 1.432
2402.032 1.455 1.487 1.533 1.54 1.51 1.549 1.594 1.577 1.585 1.642
2421.326 1.678 1.705 1.741 1.812 1.884 1.898 1.929 1.926 1.897 1.87
2440.619 1.845 1.843 1.79 1.748 1.74 1.755 1.776 1.796 1.849 1.895
2459.912 1.991 2.1011 2.17412 2.3115 2.3928 2.4493 2.4907 2.4234 2.3635 2.295
2479.206 2.20098 2.0628 1.908 1.824 1.769 1.716 1.632 1.582 1.574 1.585
2498.499 1.57 1.549 1.573 1.551 1.532 1.495 1.454 1.503 1.52 1.492
2517.793 1.528 1.576 1.601 1.679 1.727 1.772 1.882 1.978 2.032 2.031
2537.086 2.022 1.954 1.877 1.858 1.802 1.682 1.595 1.525 1.409 1.362
2556.380 1.337 1.263 1.209 1.189 1.166 1.1 1.05 1.08 1.1 1.156
2575.673 1.245 1.262 1.228 1.273 1.368 1.412 1.46 1.506 1.514 1.475
2594.966 1.428 1.382 1.314 1.262 1.223 1.206 1.219 1.163 1.142 1.12
2614.260 1.07 1.11 1.11 1.11 1.166 1.185 1.176 1.181 1.174 1.155
2633.553 1.168 1.178 1.173 1.168 1.13 1.146 1.153 1.1 1.166 1.255
2652.847 1.275 1.315 1.278 1.295 1.422 1.509 1.601 1.694 1.836 1.951
2672.140 2.057 2.22995 2.3483 2.5212 2.7076 2.8174 2.9337 3.0472 3.14 3.15
2691.434 3.0792 2.9791 2.7814 2.6038 2.5369 2.4953 2.3635 2.2767 2.2522 2.2662
2710.727 2.273 2.20699 2.16172 2.0916 1.942 1.781 1.666 1.526 1.389 1.255
2730.020 1.217 1.154 1.12 1.13 1.13 1.165 1.188 1.255 1.217 1.204
2749.314 1.241 1.267 1.348 1.356 1.327 1.238 1.188 1.234 1.292 1.334
2768.607 1.268 1.239 1.284 1.366 1.453 1.456 1.491 1.592 1.637 1.706
2787.901 1.777 1.837 1.86 1.835 1.85 1.915 1.997 2.035 2.0408 2.0809
2807.194 2.1262 2.0916 2.1142 2.23616 2.2698 2.3012 2.3731 2.3544 2.3395 2.338
2826.488 2.3092 2.3384 2.3926 2.4114 2.4804 2.5525 2.6097 2.7333 2.8825 2.9664
2845.781 2.9059 2.9325 3.1341 3.32 3.54 3.69 3.77 4.03 4.38 4.67
2865.074 5.06 5.47 5.74 6.02 6.32 6.64 6.85 6.88 6.82 6.68
2884.368 6.4 5.93 5.29 4.69 4.18 3.75 3.41 3.19 3.0983 3.0457
2903.661 3.075 3.19 3.29 3.43 3.57 3.79 4.12 4.44 4.71 4.93
2922.955 5.32 5.83 6.31 6.68 6.98 7.34 7.69 7.87 7.87 7.84
2942.248 7.7 7.32 6.92 6.54 6.14 5.8 5.48 5.21 5.11 4.9
2961.542 4.58 4.4 4.24 3.93 3.64 3.47 3.28 3.0558 2.9343 2.7191
2980.835 2.5875 2.503 2.4241 2.3592 2.18843 2.14614 2.1165 2.0813 2.0466 2.0689
3000.128 2.1254 2.1128 2.0986 2.097 2.0759 2.005 1.965 2.0523 2.17567 2.1732
3019.422 2.20298 2.2565 2.17329 2.16459 2.2341 2.2188 2.2653 2.3258 2.3899 2.4129
3038.715 2.3851 2.3971 2.4206 2.4769 2.4723 2.4634 2.3905 2.2484 2.23337 2.15098
3058.009 2.14052 2.2727 2.3402 2.3878 2.3769 2.4492 2.4982 2.5862 2.7467 2.8788
3077.302 3.29 3.87 4.48 5.34 6.61 8.27 10.41 12.98 15.85 18.8
3096.596 21.38 23 23.27 22.29 20.23 17.3 14 11.15 8.95 7.31
3115.889 6.16 5.32 4.67 4.1 3.57 3.0697 2.5734 2.2412 2.0943 1.837
3135.182 1.593 1.507 1.262 1.01 1.03 1.04 1 1.02 0.98 0.89
3154.476 1.04 1.178 1.12 1.187 1.301 1.227 1.08 1.223 1.282 1.13
3173.769 1.12 1.12 1.03 0.93 0.83 0.66 0.54 0.5 0.44 0.3
3193.063 0.21 0.16 0.17 0.19 0.14 0.16 0.18 0.18 0.21 0.2
3212.356 0.08 0.04 0.15 0.21 0.06 0.09 0.29 0.27 0.2 0.15
3231.650 0.21 0.24 0.32 0.42 0.39 0.23 0.18 0.25 0.32 0.32
3250.943 0.08 0 0.1 0.21 0.31 0.28 0.21 0.16 0.19 0.21
3270.236 0.11 0.14 0.15 0.14 0.25 0.25 0.27 0.23 0.1 0.13
3289.530 0.21 0.26 0.31 0.26 0.15 0.19 0.32 0.26 0.18 0.17
3308.823 0.13 0.14 0.15 0.15 0.19 0.29 0.29 0.3 0.38 0.4
3328.117 0.53 0.62 0.5 0.41 0.37 0.31 0.37 0.44 0.31 0.19
3347.410 0.31 0.52 0.53 0.39 0.42 0.49 0.49 0.49 0.45 0.39
3366.704 0.45 0.5 0.39 0.37 0.41 0.52 0.68 0.71 0.62 0.5
3385.997 0.48 0.51 0.5 0.54 0.57 0.46 0.47 0.53 0.57 0.5
3405.290 0.44 0.49 0.47 0.44 0.52 0.56 0.58 0.65 0.65 0.66
3424.584 0.59 0.48 0.58 0.68 0.63 0.68 0.64 0.51 0.67 0.89
3443.877 0.86 0.84 0.93 0.76 0.67 0.69 0.64 0.76 0.85 0.72
3463.171 0.63 0.73 0.77 0.83 0.83 0.79 0.8 0.77 0.76 0.79
3482.464 0.76 0.66 0.65 0.75 0.83 0.69 0.62 0.79 0.85 0.87
3501.758 0.85 0.79 0.8 0.74 0.63 0.68 0.81 0.86 0.75 0.68
3521.051 0.71 0.69 0.83 0.84 0.8 0.93 0.95 0.83 0.81 0.84
3540.344 0.87 0.92 0.87 0.88 0.97 0.91 0.82 0.84 0.85 0.91
3559.638 1 1.06 1.07 0.99 0.94 0.89 0.87 0.95 0.96 0.94
3578.931 1.03 1.12 1.07 1.02 0.98 0.95 1 0.95 1.03 1.05
3598.225 1 1 0.96 0.9 0.85 0.92 0.95 0.99 1.02 0.96
3617.518 0.97 1.04 1.04 1.03 1.06 0.97 0.96 0.98 1.07 1.184
3636.812 1.08 0.93 0.92 0.99 0.96 1 0.99 0.97 1.08 1.12
3656.105 0.98 0.9 1 1.11 1.08 1.01 1 1.1 1.1 1.03
3675.398 1.1 1.11 1.1 1.02 0.94 1.04 1.05 1.12 1.151 1.13
3694.692 1.143 1.12 1.143 1.07 1.02 1.02 1.04 1.04 0.96 0.98
3713.985 1 0.97 0.99 1.03 1.03 1.07 1.12 1.05 1.02 1.06
3733.279 1.1 1.174 1.159 1.168 1.1 1.06 1.12 1.158 1.246 1.226
3752.572 1.162 1.179 1.13 1 1.08 1.12 1.144 1.22 1.195 1.222
3771.866 1.11 0.99 1.08 1.07 1.03 1.04 1.04 1.159 1.157 1.09
3791.159 1.08 1.12 1.179 1.151 1.145 1.12 1.11 1.218 1.304 1.207
3810.452 1.05 1.03 1.13 1.12 1.12 1.218 1.215 1.11 1.198 1.304
3829.746 1.279 1.323 1.321 1.396 1.461 1.431 1.419 1.409 1.374 1.221
3849.039 1.12 1.15 1.233 1.233 1.13 1.08 1.02 1.07 1.12 1.14
3868.333 1.193 1.158 1.266 1.382 1.303 1.223 1.188 1.262 1.379 1.401
3887.626 1.414 1.371 1.352 1.32 1.296 1.312 1.28 1.259 1.256 1.264
3906.920 1.248 1.168 1.04 1.07 1.187 1.11 1.04 1.07 1.01 1.01
3926.213 1.1 1.187 1.232 1.169 1.148 1.202 1.173 1.198 1.158 1.11
3945.506 1.142 1.151 1.222 1.199 1.181 1.229 1.192 1.19 1.243 1.26
3964.800 1.191 1.2 1.173 1.13 1.196 1.11 1.18 1.239 1.218 1.257
3984.093 1.186 1.16 1.242 1.29 1.308 1.27 1.201 1.179 1.157
##END=
