##TITLE=Hexylamine
##JCAMP-DX=4.24
##DATA TYPE=INFRARED SPECTRUM
##ORIGIN=EPA-IR VAPOR PHASE LIBRARY
##OWNER=SRD/NIST
Collection (C) 2018 copyright by the U.S. Secretary of Commerce
on behalf of the United States of America. All rights reserved.
##CAS REGISTRY NO=111-26-2
##MOLFORM=C 6 H 15 N
##$NIST SOURCE=MSDC-IR
##STATE=gas
##XUNITS=1/CM
##YUNITS=ABSORBANCE
##XFACTOR=1.
##YFACTOR=0.001
##DELTAX=3.85796
##FIRSTX=501.5
##LASTX=4000.7
##FIRSTY=1.58
##MAXX=4000.7
##MINX=501.534
##MAXY=0.09109
##MINY=0.0001433
##NPOINTS=908
##XYDATA=(X++(Y..Y))
501.534 1.58 1.7 1.75 1.69 1.57 1.61 1.77 1.64 1.64 1.72
540.114 1.66 1.6 1.53 1.6 1.67 1.73 1.79 1.76 1.79 1.83
578.693 1.87 1.9 1.96 2.05 2.13 2.13 2.15 2.27 2.41 2.53
617.273 2.57 2.62 2.68 2.69 2.79 2.95 3 3.08 3.24 3.39
655.852 3.52 3.63 3.8 4 4.15 4.26 4.39 4.52 4.78 5.1
694.432 5.4 5.74 6.16 6.68 7.25 7.92 8.73 9.57 10.5 11.45
733.011 12.42 13.59 14.83 15.91 16.96 18.07 19.14 20.05 20.74 21.12
771.591 21.11 20.7 19.72 18.23 16.6 14.83 12.95 11.25 9.92 8.83
810.170 7.91 7.17 6.57 6.02 5.61 5.36 5.05 4.75 4.55 4.37
848.750 4.22 4.08 3.94 3.81 3.65 3.53 3.51 3.45 3.4 3.34
887.330 3.24 3.23 3.24 3.21 3.14 3.07 3.05 3.05 3.01 2.92
925.909 2.86 2.84 2.72 2.62 2.53 2.43 2.39 2.28 2.22 2.21
964.489 2.2 2.16 2.12 2.12 2.12 2.09 2.13 2.16 2.23 2.39
1003.068 2.51 2.64 2.74 2.84 2.95 3.12 3.29 3.34 3.41 3.43
1041.648 3.55 3.75 3.99 4.38 4.86 5.3 5.53 5.72 5.81 5.73
1080.227 5.51 5.2 4.93 4.58 4.26 3.88 3.41 3.04 2.73 2.41
1118.807 2.16 2.05 1.94 1.74 1.53 1.5 1.44 1.25 1.22 1.25
1157.387 1.19 1.03 0.9575 0.975 0.9399 0.9198 0.8403 0.771 0.8182 0.9236
1195.966 0.9821 0.9972 1.01 1.05 1.14 1.2 1.19 1.14 1.16 1.22
1234.546 1.23 1.18 1.2 1.28 1.32 1.32 1.36 1.43 1.55 1.62
1273.125 1.63 1.7 1.83 1.89 1.92 2.01 2.13 2.21 2.25 2.33
1311.705 2.35 2.34 2.38 2.44 2.56 2.76 3.01 3.26 3.48 3.74
1350.284 4 4.19 4.37 4.57 4.8 5.1 5.47 5.79 5.94 5.99
1388.864 5.88 5.39 4.72 4.1 3.55 3.12 2.85 2.74 2.78 2.91
1427.443 3.17 3.57 4.09 4.7 5.38 6.11 6.84 7.47 7.94 8.17
1466.023 8.11 7.76 7.18 6.41 5.53 4.65 3.88 3.26 2.8 2.4
1504.603 2.14 1.97 1.79 1.67 1.6 1.54 1.5 1.49 1.45 1.44
1543.182 1.43 1.44 1.47 1.48 1.51 1.58 1.66 1.75 1.86 1.99
1581.762 2.13 2.35 2.62 2.93 3.31 3.75 4.33 4.95 5.57 6.04
1620.341 6.27 6.24 5.96 5.43 4.72 4.01 3.39 2.86 2.45 2.09
1658.921 1.8 1.6 1.45 1.31 1.22 1.15 1.07 0.9994 0.9495 0.9022
1697.500 0.8715 0.8369 0.8034 0.7864 0.7693 0.7537 0.7246 0.7069 0.7051 0.7103
1736.080 0.7014 0.6938 0.6919 0.6634 0.6615 0.6797 0.686 0.6734 0.6583 0.6467
1774.659 0.6554 0.6563 0.6528 0.6474 0.6443 0.6591 0.6603 0.6664 0.6713 0.6516
1813.239 0.6308 0.6301 0.6385 0.645 0.6416 0.6214 0.5929 0.5893 0.5782 0.5554
1851.819 0.5502 0.533 0.4993 0.4779 0.4828 0.4738 0.4403 0.4219 0.4045 0.3809
1890.398 0.3655 0.3598 0.3523 0.3378 0.318 0.3182 0.3179 0.3079 0.3061 0.2945
1928.978 0.2844 0.2919 0.3024 0.3009 0.2965 0.2778 0.2723 0.2736 0.2603 0.2611
1967.557 0.263 0.2517 0.2444 0.235 0.2462 0.2605 0.2588 0.261 0.2529 0.2508
2006.137 0.277 0.2951 0.3139 0.3425 0.3337 0.3365 0.3507 0.3481 0.3577 0.3524
2044.716 0.3392 0.3459 0.3511 0.3514 0.3492 0.3535 0.3426 0.3161 0.314 0.3207
2083.296 0.3192 0.31 0.3092 0.3113 0.3212 0.3238 0.313 0.3189 0.3084 0.3068
2121.875 0.3125 0.3049 0.302 0.3121 0.3315 0.3335 0.332 0.3446 0.3434 0.3219
2160.455 0.319 0.3071 0.3006 0.3258 0.3261 0.3227 0.3362 0.3398 0.3285 0.3422
2199.035 0.3461 0.3332 0.349 0.3436 0.3608 0.3622 0.3454 0.3732 0.374 0.3704
2237.614 0.3727 0.3812 0.4117 0.4131 0.398 0.4159 0.445 0.4593 0.475 0.4762
2276.194 0.4649 0.4625 0.4314 0.4197 0.435 0.4204 0.4084 0.3975 0.396 0.4058
2314.773 0.398 0.4259 0.4376 0.4097 0.4024 0.4146 0.4245 0.407 0.4218 0.4372
2353.353 0.4342 0.4421 0.4437 0.4292 0.4246 0.415 0.3886 0.4001 0.3922 0.3725
2391.932 0.3853 0.3964 0.4126 0.4133 0.3937 0.385 0.388 0.3898 0.3912 0.4086
2430.512 0.4079 0.3811 0.3845 0.3943 0.4042 0.3896 0.3802 0.3896 0.387 0.387
2469.092 0.377 0.3911 0.3881 0.374 0.4049 0.4403 0.4342 0.4156 0.4022 0.4124
2507.671 0.424 0.4304 0.46 0.4816 0.502 0.4982 0.5187 0.5515 0.576 0.61
2546.251 0.6121 0.6121 0.6331 0.6636 0.6685 0.673 0.6983 0.7464 0.7809 0.7976
2584.830 0.8067 0.8026 0.8218 0.8706 0.8998 0.9002 0.9376 0.9893 0.9945 0.9969
2623.410 1.04 1.1 1.13 1.18 1.21 1.25 1.34 1.39 1.42 1.46
2661.989 1.53 1.62 1.72 1.8 1.84 1.86 1.88 1.9 1.9 1.92
2700.569 1.97 2.01 2.04 2.09 2.17 2.26 2.35 2.48 2.6 2.68
2739.148 2.78 2.9 2.97 3.02 3.03 3.06 3.12 3.17 3.22 3.3
2777.728 3.41 3.53 3.69 3.91 4.16 4.42 4.78 5.22 5.75 6.41
2816.308 7.21 8.19 9.43 10.96 12.83 15.14 18.03 21.41 25.13 29.07
2854.887 32.88 36.13 38.58 40.06 40.73 40.79 40.16 38.81 37.42 36.54
2893.467 36.17 36.85 39.27 43.54 49.63 57.18 65.55 74.08 81.84 87.78
2932.046 91.09 90.96 87.4 81.53 74.62 67.62 61.46 57.02 53.85 50.08
2970.626 45.24 39.9 33.59 26.56 20.38 15.82 12.57 10.21 8.47 7.2
3009.205 6.22 5.52 5.04 4.61 4.16 3.8 3.54 3.3 3.05 2.79
3047.785 2.59 2.44 2.31 2.19 2.05 1.94 1.82 1.73 1.67 1.63
3086.364 1.57 1.5 1.45 1.41 1.34 1.26 1.24 1.2 1.17 1.13
3124.944 1.08 1.05 0.9684 0.9173 0.9502 0.9509 0.9127 0.8701 0.8399 0.8472
3163.524 0.8517 0.8251 0.8171 0.8176 0.8083 0.7957 0.7951 0.7737 0.7305 0.7223
3202.103 0.7033 0.6585 0.6403 0.6751 0.6575 0.5784 0.543 0.4881 0.4339 0.4215
3240.683 0.3773 0.3492 0.3871 0.4226 0.4399 0.4419 0.3948 0.3768 0.3839 0.38
3279.262 0.363 0.3826 0.3723 0.3377 0.3218 0.3292 0.3711 0.3552 0.3406 0.3771
3317.842 0.4253 0.4391 0.4973 0.5815 0.6248 0.6897 0.7475 0.802 0.848 0.7947
3356.421 0.7098 0.6704 0.6026 0.5249 0.4538 0.4228 0.3925 0.3754 0.4154 0.4168
3395.001 0.4467 0.4607 0.4287 0.4247 0.406 0.4477 0.4662 0.4586 0.4654 0.3908
3433.580 0.3139 0.2937 0.3626 0.3802 0.292 0.2327 0.2374 0.2263 0.2439 0.2499
3472.160 0.1727 0.2089 0.2828 0.27 0.2279 0.2108 0.2069 0.2062 0.2297 0.2152
3510.740 0.2007 0.1433 0.151 0.195 0.1698 0.214 0.2564 0.3015 0.2942 0.2495
3549.319 0.2425 0.189 0.1631 0.2029 0.2575 0.2544 0.2312 0.1991 0.152 0.1661
3587.899 0.2099 0.246 0.2382 0.1879 0.2023 0.2817 0.2727 0.2115 0.2295 0.2589
3626.478 0.2858 0.2934 0.2453 0.2565 0.3397 0.3767 0.3658 0.3461 0.357 0.3689
3665.058 0.2926 0.2672 0.311 0.328 0.2944 0.27 0.2705 0.3509 0.3801 0.3026
3703.637 0.3362 0.3387 0.2896 0.2866 0.3088 0.3057 0.2594 0.296 0.327 0.2998
3742.217 0.3447 0.3498 0.3205 0.3169 0.3046 0.3039 0.2651 0.2442 0.2833 0.3062
3780.797 0.3182 0.3012 0.2947 0.2672 0.2332 0.2382 0.2843 0.3603 0.3752 0.3256
3819.376 0.3266 0.3535 0.3389 0.3339 0.3968 0.4158 0.3339 0.305 0.293 0.263
3857.956 0.3076 0.3405 0.2932 0.3196 0.3518 0.4066 0.4512 0.4217 0.3868 0.3531
3896.535 0.3654 0.3776 0.389 0.3841 0.3584 0.3677 0.3672 0.3387 0.3381 0.3314
3935.115 0.3644 0.4409 0.4609 0.4398 0.4185 0.4344 0.4656 0.425 0.4033 0.4133
3973.694 0.413 0.4403 0.4835 0.5151 0.5182 0.5281 0.5423 0.5384
##END=
