##TITLE=Methyl-2-octynoate
##JCAMP-DX=4.24
##DATA TYPE=INFRARED SPECTRUM
##ORIGIN=NIST Mass Spectrometry Data Center
##OWNER=NIST Standard Reference Data Program
Collection (C) 2018 copyright by the U.S. Secretary of Commerce
on behalf of the United States of America. All rights reserved.
##CAS REGISTRY NO=111-12-6
##MOLFORM=C 9 H 14 O 2
##$NIST SOURCE=MSDC-IR
##SPECTROMETER/DATA SYSTEM=HP-GC/MS/IRD
##STATE=gas
##XUNITS=1/CM
##YUNITS=ABSORBANCE
##XFACTOR=1.0
##YFACTOR=0.000008800
##DELTAX=4.0
##FIRSTX=550.0
##LASTX=3846.0
##FIRSTY=0.000950
##MAXX=3846
##MINX=550
##MAXY=0.088
##MINY=0
##NPOINTS=825
##XYDATA=(X++(Y..Y))
550.0 108 71 50 51 43 37 29 22 19 25
590.0 25 15 7 8 5 5 4 1 0 0
630.0 1 8 7 6 9 13 14 5 4 16
670.0 20 17 11 12 14 15 17 20 19 25
710.0 37 43 64 85 112 144 172 202 234 271
750.0 302 320 323 313 299 277 249 216 182 159
790.0 149 148 161 182 194 201 191 166 140 117
830.0 100 86 72 65 60 54 51 48 44 44
870.0 48 50 53 57 64 68 73 77 78 77
910.0 73 71 69 67 62 60 62 68 73 78
950.0 84 89 96 103 103 99 95 88 83 76
990.0 70 71 73 73 79 86 97 109 126 149
1030.0 174 210 265 349 468 618 793 982 1178 1399
1070.0 1639 1835 1875 1704 1386 1053 804 658 569 500
1110.0 430 359 297 252 224 207 196 194 191 194
1150.0 203 215 225 241 256 272 292 314 347 392
1190.0 440 494 567 669 809 1006 1288 1675 2205 2939
1230.0 3949 5269 6850 8472 9691 10000 9183 7518 5611 4035
1270.0 2953 2237 1750 1411 1162 971 822 710 625 563
1310.0 525 509 526 561 587 576 525 455 390 344
1350.0 314 291 268 248 231 220 212 207 208 210
1390.0 204 192 185 187 198 214 236 274 347 498
1430.0 777 1066 1181 1047 740 537 475 452 438 413
1470.0 377 330 280 234 200 174 156 142 130 123
1510.0 113 102 93 88 80 71 66 65 63 60
1550.0 58 58 59 59 58 56 55 56 54 53
1590.0 54 52 52 51 49 47 48 48 50 54
1630.0 56 60 63 65 68 74 83 87 92 103
1670.0 117 134 160 196 243 301 383 490 633 822
1710.0 1080 1420 1845 2353 2984 3814 4645 5061 4889 4113
1750.0 3171 2480 1936 1448 1032 710 480 326 231 170
1790.0 127 100 82 69 59 50 43 39 36 31
1830.0 26 23 20 18 17 14 12 11 12 11
1870.0 10 9 10 9 10 9 10 9 7 6
1910.0 7 7 6 4 5 4 3 3 3 4
1950.0 6 7 7 8 10 10 12 13 12 13
1990.0 15 16 19 23 26 29 34 36 34 35
2030.0 37 35 32 31 29 28 30 28 26 23
2070.0 20 15 10 9 6 4 3 2 1 0
2110.0 0 0 1 5 7 9 13 16 20 25
2150.0 27 32 39 46 53 64 78 99 125 157
2190.0 196 242 304 387 496 646 847 1098 1382 1660
2230.0 1873 1954 1866 1617 1270 918 627 430 308 236
2270.0 191 162 144 133 124 121 124 126 129 131
2310.0 132 133 132 131 125 116 104 88 72 56
2350.0 48 51 53 54 51 41 32 25 20 18
2390.0 15 15 13 10 9 10 11 10 9 9
2430.0 8 7 8 9 9 8 7 6 8 10
2470.0 11 12 11 11 12 12 10 8 6 3
2510.0 1 1 0 2 3 3 2 1 3 1
2550.0 1 1 0 3 3 1 3 6 6 7
2590.0 6 5 5 4 4 5 6 7 7 10
2630.0 11 11 14 19 22 24 23 23 25 23
2670.0 24 25 27 26 22 23 27 24 21 20
2710.0 18 19 22 20 20 23 24 26 30 33
2750.0 33 32 31 32 32 33 36 39 43 46
2790.0 49 57 66 73 81 90 99 113 131 154
2830.0 184 221 268 334 406 469 526 587 672 778
2870.0 866 912 923 901 860 820 781 772 809 878
2910.0 971 1084 1220 1386 1593 1846 2122 2371 2546 2591
2950.0 2532 2485 2484 2463 2350 2081 1732 1387 1064 825
2990.0 667 563 493 443 407 379 354 331 309 289
3030.0 266 241 219 196 177 160 143 126 116 108
3070.0 98 93 91 86 81 79 75 71 70 66
3110.0 63 58 51 47 46 42 39 38 35 34
3150.0 35 35 33 32 32 32 33 31 30 30
3190.0 28 24 21 24 24 18 19 17 9 7
3230.0 10 10 12 9 6 8 9 7 5 5
3270.0 7 7 9 10 9 10 9 10 8 9
3310.0 10 10 8 5 6 8 12 10 8 8
3350.0 6 5 4 5 7 8 6 3 5 8
3390.0 9 8 9 8 7 11 15 17 18 24
3430.0 26 29 35 41 48 56 62 66 64 57
3470.0 51 47 42 35 27 25 23 22 20 14
3510.0 13 14 13 9 8 8 9 9 4 6
3550.0 7 5 1 0 4 6 7 4 5 11
3590.0 7 4 7 6 4 5 5 7 6 7
3630.0 11 9 9 12 10 7 9 7 5 8
3670.0 11 10 7 9 14 14 14 12 9 9
3710.0 9 12 10 9 12 12 12 12 14 17
3750.0 13 9 12 13 14 12 7 11 14 10
3790.0 8 11 13 12 13 12 11 11 14 12
3830.0 13 15 14 18 18
##END=
