##TITLE=1-Heptylamine
##JCAMP-DX=4.24
##DATA TYPE=INFRARED SPECTRUM
##ORIGIN=EPA-IR VAPOR PHASE LIBRARY
##OWNER=SRD/NIST
Collection (C) 2018 copyright by the U.S. Secretary of Commerce
on behalf of the United States of America. All rights reserved.
##CAS REGISTRY NO=111-68-2
##MOLFORM=C 7 H 17 N
##$NIST SOURCE=MSDC-IR
##STATE=gas
##XUNITS=1/CM
##YUNITS=ABSORBANCE
##XFACTOR=1.
##YFACTOR=0.001
##DELTAX=3.85796
##FIRSTX=501.5
##LASTX=4000.7
##FIRSTY=1.68
##MAXX=4000.7
##MINX=501.534
##MAXY=0.13072
##MINY=0.0002461
##NPOINTS=908
##XYDATA=(X++(Y..Y))
501.534 1.68 1.84 1.9 2.01 2 1.96 1.96 1.92 1.92 1.93
540.114 1.93 1.92 1.97 2.07 2.07 2.05 2.03 2.07 2.02 1.98
578.693 2.06 2.2 2.36 2.44 2.47 2.47 2.59 2.63 2.65 2.74
617.273 2.88 2.99 3.04 3.14 3.25 3.4 3.55 3.62 3.76 3.96
655.852 4.08 4.12 4.24 4.52 4.77 4.92 5.11 5.32 5.56 5.87
694.432 6.25 6.73 7.25 7.87 8.66 9.49 10.37 11.32 12.35 13.43
733.011 14.56 15.77 17.1 18.39 19.63 20.91 22.03 22.94 23.59 23.85
771.591 23.79 23.35 22.48 21.06 19.23 17.18 14.99 13.02 11.41 10.13
810.170 9.11 8.34 7.72 7.18 6.78 6.45 6.13 5.85 5.61 5.35
848.750 5.09 4.88 4.7 4.49 4.35 4.22 4.04 3.94 3.82 3.74
887.330 3.71 3.6 3.51 3.45 3.38 3.35 3.28 3.2 3.17 3.11
925.909 3.01 2.92 2.87 2.82 2.75 2.71 2.67 2.56 2.53 2.53
964.489 2.55 2.49 2.46 2.45 2.48 2.52 2.5 2.5 2.56 2.65
1003.068 2.65 2.7 2.89 3.03 3.22 3.41 3.62 3.88 4.14 4.38
1041.648 4.59 4.85 5.06 5.45 6.15 6.83 7.29 7.57 7.58 7.17
1080.227 6.64 6.08 5.55 5.08 4.52 3.99 3.48 3.13 2.88 2.65
1118.807 2.33 2.05 1.91 1.73 1.58 1.52 1.53 1.46 1.33 1.3
1157.387 1.26 1.23 1.24 1.16 1.08 1.04 1.07 1.11 1.07 0.9583
1195.966 1.05 1.17 1.21 1.27 1.25 1.25 1.23 1.27 1.29 1.31
1234.546 1.34 1.38 1.44 1.48 1.55 1.62 1.67 1.76 1.83 1.94
1273.125 1.95 2.02 2.21 2.32 2.4 2.59 2.77 2.88 2.97 2.99
1311.705 3 3.02 3.03 3.09 3.26 3.5 3.81 4.17 4.53 4.86
1350.284 5.13 5.37 5.55 5.69 5.87 6.18 6.62 7.03 7.26 7.27
1388.864 6.99 6.32 5.49 4.73 4.08 3.6 3.33 3.23 3.29 3.46
1427.443 3.8 4.33 5.02 5.89 6.88 7.94 8.99 9.89 10.57 10.89
1466.023 10.77 10.21 9.25 8.04 6.75 5.56 4.57 3.82 3.26 2.83
1504.603 2.52 2.3 2.13 2 1.93 1.87 1.79 1.74 1.71 1.71
1543.182 1.71 1.69 1.7 1.73 1.78 1.84 1.89 1.97 2.1 2.24
1581.762 2.41 2.67 2.98 3.32 3.74 4.28 4.94 5.68 6.41 7.01
1620.341 7.36 7.35 6.92 6.21 5.37 4.52 3.81 3.24 2.75 2.33
1658.921 2.03 1.8 1.65 1.52 1.37 1.24 1.17 1.11 1.02 0.9742
1697.500 0.932 0.8731 0.8352 0.8182 0.7968 0.7804 0.7874 0.7722 0.744 0.7541
1736.080 0.7277 0.6939 0.7035 0.713 0.7028 0.6789 0.6628 0.6719 0.6713 0.6622
1774.659 0.6697 0.6561 0.6619 0.6539 0.6416 0.6535 0.6683 0.686 0.6894 0.6676
1813.239 0.671 0.6836 0.6707 0.666 0.6393 0.6332 0.6276 0.6053 0.6097 0.5956
1851.819 0.5864 0.5646 0.5266 0.5119 0.4984 0.472 0.4315 0.4091 0.4122 0.4014
1890.398 0.3663 0.3447 0.3321 0.3252 0.3299 0.3336 0.3255 0.3136 0.3262 0.3148
1928.978 0.2828 0.2767 0.2762 0.2634 0.2607 0.2639 0.2598 0.2461 0.2513 0.2564
1967.557 0.2512 0.2615 0.2674 0.2784 0.2855 0.2898 0.294 0.2874 0.2929 0.2915
2006.137 0.2877 0.3226 0.341 0.3423 0.3503 0.3683 0.3896 0.3975 0.4071 0.404
2044.716 0.3949 0.3899 0.3651 0.357 0.3547 0.3452 0.341 0.3249 0.3156 0.3239
2083.296 0.3323 0.3158 0.2983 0.309 0.3256 0.3028 0.3027 0.3184 0.3151 0.3239
2121.875 0.3147 0.3075 0.3308 0.3499 0.3372 0.3186 0.3074 0.3098 0.3181 0.3251
2160.455 0.3484 0.3425 0.3245 0.3334 0.3223 0.3053 0.3138 0.3026 0.3125 0.3276
2199.035 0.3177 0.3141 0.319 0.326 0.3356 0.3693 0.3528 0.3195 0.3407 0.3429
2237.614 0.3423 0.3751 0.3917 0.3823 0.3714 0.3791 0.4126 0.4294 0.4293 0.4493
2276.194 0.4367 0.4217 0.4397 0.4246 0.4117 0.416 0.4149 0.4044 0.3939 0.401
2314.773 0.4173 0.4338 0.4371 0.4311 0.4295 0.433 0.4361 0.4346 0.4318 0.4426
2353.353 0.4335 0.4434 0.4642 0.4559 0.4533 0.4492 0.453 0.4464 0.4281 0.4353
2391.932 0.4481 0.4463 0.4537 0.4317 0.4111 0.42 0.4324 0.4432 0.4422 0.4254
2430.512 0.4277 0.4522 0.4305 0.4037 0.4077 0.4048 0.4074 0.3897 0.3793 0.4046
2469.092 0.4335 0.4301 0.4322 0.4133 0.3671 0.3771 0.4316 0.4573 0.4614 0.462
2507.671 0.4688 0.5106 0.5273 0.5239 0.5406 0.5802 0.5928 0.6251 0.6711 0.6793
2546.251 0.6887 0.7179 0.7281 0.7446 0.7651 0.779 0.8148 0.8511 0.8673 0.8967
2584.830 0.9385 0.9738 1.02 1.06 1.06 1.07 1.12 1.19 1.23 1.26
2623.410 1.29 1.33 1.39 1.44 1.48 1.53 1.63 1.72 1.8 1.87
2661.989 1.95 2.05 2.14 2.19 2.24 2.3 2.33 2.38 2.42 2.43
2700.569 2.43 2.44 2.49 2.56 2.64 2.73 2.81 2.92 3.09 3.26
2739.148 3.37 3.47 3.61 3.7 3.7 3.71 3.78 3.83 3.88 3.98
2777.728 4.14 4.33 4.59 4.9 5.26 5.67 6.12 6.68 7.3 8.07
2816.308 9.03 10.21 11.66 13.44 15.77 18.75 22.52 27.22 32.77 38.93
2854.887 44.98 50.09 53.71 55.35 55.17 54.02 52.13 49.63 47.3 45.58
2893.467 44.85 45.96 49.53 55.7 64.48 75.65 88.77 102.81 115.9 125.85
2932.046 130.72 129.52 122.45 111.31 98.61 86.36 76.37 69.76 65.69 61.43
2970.626 55.53 48.2 39.36 30.41 23.34 18.29 14.72 12.17 10.32 8.95
3009.205 7.91 7.07 6.35 5.74 5.24 4.84 4.48 4.13 3.82 3.54
3047.785 3.28 3.05 2.88 2.72 2.53 2.4 2.32 2.19 2.1 2
3086.364 1.92 1.94 1.88 1.78 1.69 1.61 1.54 1.44 1.4 1.4
3124.944 1.36 1.34 1.35 1.29 1.26 1.29 1.27 1.22 1.14 1.14
3163.524 1.11 1.07 1.08 1.06 1.04 1.03 0.9932 0.9677 0.925 0.8625
3202.103 0.8254 0.8142 0.7862 0.7478 0.7416 0.7076 0.6353 0.6581 0.6903 0.613
3240.683 0.5498 0.5649 0.5555 0.5229 0.6011 0.6444 0.5693 0.5298 0.5243 0.5204
3279.262 0.4942 0.4575 0.5165 0.5582 0.5346 0.5305 0.487 0.4923 0.5594 0.5435
3317.842 0.5651 0.6344 0.6552 0.6884 0.8076 0.9204 1.02 1.07 1.03 0.9662
3356.421 0.8726 0.8143 0.782 0.728 0.6757 0.6092 0.5642 0.5839 0.5756 0.5584
3395.001 0.5617 0.6238 0.6788 0.6891 0.6815 0.5833 0.5363 0.55 0.473 0.453
3433.580 0.477 0.4572 0.4241 0.3781 0.3777 0.4192 0.3888 0.3506 0.3493 0.3335
3472.160 0.3811 0.3904 0.3607 0.3822 0.3818 0.3681 0.3861 0.3774 0.335 0.3288
3510.740 0.3238 0.2985 0.3302 0.3547 0.3391 0.374 0.3701 0.405 0.4051 0.354
3549.319 0.3871 0.3822 0.3441 0.3541 0.4103 0.4311 0.3976 0.3701 0.397 0.3895
3587.899 0.4139 0.4442 0.4341 0.4372 0.4266 0.4901 0.5036 0.4883 0.5018 0.5091
3626.478 0.5153 0.4586 0.4969 0.5054 0.4993 0.5495 0.5142 0.5092 0.5436 0.5527
3665.058 0.5474 0.5248 0.5154 0.5496 0.5399 0.4757 0.4821 0.5066 0.4657 0.4745
3703.637 0.5717 0.5482 0.4375 0.4501 0.4806 0.4813 0.4836 0.4725 0.4667 0.4427
3742.217 0.4726 0.5382 0.4906 0.4662 0.4993 0.4696 0.5185 0.5589 0.4648 0.476
3780.797 0.5494 0.5268 0.4965 0.5183 0.554 0.5593 0.5307 0.5275 0.5177 0.4845
3819.376 0.4287 0.3989 0.4639 0.4951 0.498 0.5243 0.4872 0.4814 0.5416 0.5585
3857.956 0.5756 0.5988 0.5516 0.5536 0.5937 0.5624 0.5836 0.5977 0.5496 0.5844
3896.535 0.6159 0.6039 0.5831 0.5596 0.5242 0.5068 0.5694 0.6077 0.577 0.5473
3935.115 0.5476 0.6002 0.6166 0.5885 0.5949 0.6344 0.6654 0.632 0.6588 0.664
3973.694 0.6755 0.7136 0.6929 0.6727 0.6413 0.6516 0.6575 0.6844
##END=
