##TITLE=1-Bromooctane
##JCAMP-DX=4.24
##DATA TYPE=INFRARED SPECTRUM
##ORIGIN=NIST Mass Spectrometry Data Center
##OWNER=NIST Standard Reference Data Program
Collection (C) 2018 copyright by the U.S. Secretary of Commerce
on behalf of the United States of America. All rights reserved.
##CAS REGISTRY NO=111-83-1
##MOLFORM=C 8 H 17 Br
##$NIST SOURCE=MSDC-IR
##SPECTROMETER/DATA SYSTEM=HP-GC/MS/IRD
##STATE=gas
##XUNITS=1/CM
##YUNITS=ABSORBANCE
##XFACTOR=1.0
##YFACTOR=0.000003300
##DELTAX=4.0
##FIRSTX=550.0
##LASTX=3846.0
##FIRSTY=0.000498
##MAXX=3846
##MINX=550
##MAXY=0.033
##MINY=0
##NPOINTS=825
##XYDATA=(X++(Y..Y))
550.0 151 167 212 307 352 359 330 239 159 144
590.0 99 48 26 16 22 13 4 41 89 109
630.0 128 184 257 333 409 447 411 328 227 157
670.0 102 67 58 60 58 61 61 72 99 119
710.0 155 199 220 228 234 226 218 222 220 199
750.0 179 160 158 165 149 149 137 111 104 88
790.0 81 77 75 86 83 81 71 56 50 49
830.0 48 45 47 49 49 44 48 57 65 60
870.0 68 78 74 83 96 92 86 90 101 106
910.0 100 97 96 104 104 89 77 72 68 71
950.0 71 62 63 65 66 63 61 65 60 56
990.0 59 61 64 64 62 62 71 80 81 87
1030.0 84 67 74 75 67 65 63 59 53 57
1070.0 54 44 45 41 36 38 40 42 34 30
1110.0 27 20 20 12 15 20 14 14 19 14
1150.0 22 41 51 59 63 67 77 90 103 124
1190.0 155 185 233 288 333 386 480 584 652 696
1230.0 712 713 712 734 780 828 889 945 956 914
1270.0 831 744 689 645 608 577 537 494 445 400
1310.0 361 325 293 262 251 255 274 305 327 347
1350.0 359 363 344 316 292 279 275 291 298 289
1390.0 264 224 193 174 172 178 197 237 282 341
1430.0 427 552 697 814 894 945 995 1036 1034 966
1470.0 849 702 553 420 321 252 206 174 147 133
1510.0 123 104 90 85 80 75 65 57 55 52
1550.0 44 41 45 45 40 35 30 19 21 27
1590.0 20 16 21 21 13 16 20 20 15 5
1630.0 9 20 20 15 14 18 22 17 14 20
1670.0 25 22 19 22 16 10 18 16 14 17
1710.0 11 10 15 16 13 14 16 13 15 17
1750.0 13 8 3 5 12 14 13 21 20 12
1790.0 12 14 13 13 9 8 7 4 8 14
1830.0 16 11 4 9 9 3 5 7 9 11
1870.0 7 8 7 0 1 5 8 12 6 3
1910.0 5 9 9 6 11 10 9 13 11 9
1950.0 4 3 4 5 4 6 7 5 8 7
1990.0 5 5 3 5 11 13 19 17 15 18
2030.0 19 17 21 23 20 18 17 13 11 12
2070.0 13 12 11 12 12 8 8 6 3 5
2110.0 6 5 7 2 6 8 13 11 6 7
2150.0 5 4 7 5 8 10 11 12 10 9
2190.0 10 11 11 15 16 11 8 9 12 9
2230.0 7 11 12 14 12 6 7 11 10 12
2270.0 15 7 3 10 12 8 5 6 10 12
2310.0 14 19 17 13 15 19 23 22 18 18
2350.0 26 29 21 21 23 23 22 16 15 14
2390.0 16 20 21 21 20 20 23 24 16 15
2430.0 16 14 21 22 18 15 12 17 22 18
2470.0 17 14 17 18 16 21 22 20 18 13
2510.0 17 30 29 26 23 28 33 32 36 30
2550.0 26 30 32 33 38 39 39 45 43 42
2590.0 48 51 51 48 54 60 57 58 62 67
2630.0 76 79 72 73 84 91 92 95 108 118
2670.0 119 115 118 125 128 125 119 116 117 119
2710.0 117 120 120 118 125 128 134 144 147 156
2750.0 160 155 150 155 159 167 182 197 212 231
2790.0 252 281 310 327 360 396 433 483 548 631
2830.0 723 847 1024 1261 1599 2046 2581 3149 3612 3851
2870.0 3846 3685 3490 3311 3149 3009 2950 3025 3249 3611
2910.0 4130 4866 5862 7082 8367 9430 10000 9937 9272 8208
2950.0 7058 6149 5654 5550 5577 5345 4677 3713 2802 2128
2990.0 1659 1361 1172 1065 1022 1000 953 855 709 566
3030.0 470 404 345 303 267 245 237 221 205 190
3070.0 174 171 170 166 159 142 121 114 112 107
3110.0 112 117 112 106 94 89 90 90 92 91
3150.0 82 80 87 87 83 76 73 74 73 76
3190.0 74 74 70 61 55 44 44 44 50 54
3230.0 54 54 49 40 38 33 32 31 25 25
3270.0 24 33 30 17 16 22 25 29 22 16
3310.0 20 14 30 31 26 27 32 28 21 34
3350.0 40 35 27 29 31 27 21 16 25 28
3390.0 19 20 20 14 14 19 23 26 22 23
3430.0 21 9 16 20 7 11 12 6 14 18
3470.0 20 13 8 13 14 15 16 17 18 21
3510.0 16 9 14 12 3 7 14 16 16 9
3550.0 7 12 15 15 16 25 24 22 22 21
3590.0 21 22 18 23 31 25 31 39 36 40
3630.0 36 20 24 29 30 40 34 30 33 27
3670.0 31 38 28 23 29 30 33 32 29 40
3710.0 36 28 29 27 38 43 44 45 37 34
3750.0 36 33 31 34 36 30 32 35 34 31
3790.0 36 44 50 52 51 48 47 43 40 38
3830.0 34 43 61 61 50
##END=
