##TITLE=1-Octanethiol
##JCAMP-DX=4.24
##DATA TYPE=INFRARED SPECTRUM
##ORIGIN=NIST Mass Spectrometry Data Center
##OWNER=NIST Standard Reference Data Program
Collection (C) 2018 copyright by the U.S. Secretary of Commerce
on behalf of the United States of America. All rights reserved.
##CAS REGISTRY NO=111-88-6
##MOLFORM=C 8 H 18 S
##$NIST SOURCE=MSDC-IR
##SPECTROMETER/DATA SYSTEM=HP-GC/MS/IRD
##STATE=gas
##XUNITS=1/CM
##YUNITS=ABSORBANCE
##XFACTOR=1.0
##YFACTOR=0.000003400
##DELTAX=4.0
##FIRSTX=550.0
##LASTX=3846.0
##FIRSTY=0.000238
##MAXX=3846
##MINX=550
##MAXY=0.034
##MINY=0
##NPOINTS=825
##XYDATA=(X++(Y..Y))
550.0 70 53 4 21 28 50 72 62 29 18
590.0 9 0 13 16 0 2 22 45 37 38
630.0 51 34 27 22 34 60 46 45 71 78
670.0 63 50 56 56 50 84 118 129 158 185
710.0 197 209 222 233 245 233 217 202 187 172
750.0 156 139 126 137 138 123 123 123 111 90
790.0 97 94 83 80 73 78 73 61 71 71
830.0 71 79 63 50 58 69 68 60 60 78
870.0 84 72 65 67 75 82 87 95 99 94
910.0 89 89 77 73 69 62 65 68 61 66
950.0 65 66 66 59 64 65 52 49 53 44
990.0 36 38 52 58 55 56 51 63 81 65
1030.0 63 63 79 103 81 74 89 77 66 65
1070.0 58 59 54 45 45 43 50 54 53 63
1110.0 65 58 41 35 47 35 32 37 29 35
1150.0 43 40 42 56 59 63 75 64 52 65
1190.0 76 73 68 69 83 98 104 122 143 162
1230.0 185 205 224 245 263 275 279 294 318 340
1270.0 378 407 422 430 434 432 426 419 406 385
1310.0 358 327 296 270 249 244 256 274 294 318
1350.0 330 318 307 291 277 265 269 271 268 259
1390.0 234 204 179 168 168 168 179 209 242 286
1430.0 362 454 550 632 703 778 841 878 875 820
1470.0 726 603 477 371 290 224 182 154 129 113
1510.0 100 93 87 77 72 66 56 49 51 49
1550.0 42 39 39 36 30 32 26 28 32 30
1590.0 28 26 27 25 25 24 20 21 16 9
1630.0 11 11 14 19 17 13 15 21 22 19
1670.0 14 17 22 18 14 19 24 21 18 17
1710.0 13 12 14 15 17 18 14 16 15 12
1750.0 9 8 13 11 8 9 8 8 13 15
1790.0 12 7 7 9 5 3 4 2 1 2
1830.0 5 6 3 0 4 9 8 5 4 7
1870.0 5 2 4 6 11 13 12 11 10 6
1910.0 5 5 4 3 9 12 8 4 6 8
1950.0 8 6 7 8 8 9 6 6 9 4
1990.0 7 10 6 10 10 9 8 7 9 11
2030.0 12 18 20 16 12 14 15 14 16 14
2070.0 9 11 11 12 10 3 0 2 7 8
2110.0 6 10 12 8 6 5 8 16 14 11
2150.0 10 10 15 15 13 14 14 9 8 12
2190.0 10 3 0 4 5 7 7 6 9 11
2230.0 3 2 8 13 15 8 3 10 8 5
2270.0 5 4 5 5 7 12 15 19 27 33
2310.0 37 42 48 59 69 70 73 72 67 51
2350.0 51 71 84 97 95 72 50 29 17 18
2390.0 22 24 23 24 24 20 20 19 16 17
2430.0 17 11 10 13 7 12 15 15 11 8
2470.0 12 19 24 21 19 18 23 28 27 19
2510.0 19 22 27 32 29 29 26 26 37 34
2550.0 31 38 51 57 54 61 68 86 111 126
2590.0 128 121 113 107 99 93 89 91 88 74
2630.0 67 74 78 77 77 79 89 95 102 109
2670.0 109 117 122 124 117 114 116 112 112 114
2710.0 111 108 101 107 119 128 135 139 144 153
2750.0 164 163 153 156 166 168 172 190 211 228
2790.0 241 265 285 308 340 375 411 453 508 570
2830.0 649 776 952 1194 1538 1988 2530 3053 3436 3605
2870.0 3562 3386 3177 2970 2793 2649 2583 2680 2938 3352
2910.0 3955 4784 5866 7158 8498 9539 10000 9772 8956 7832
2950.0 6684 5806 5321 5164 5061 4709 4029 3142 2329 1738
2990.0 1333 1054 866 745 652 565 502 459 412 360
3030.0 311 291 265 245 235 217 194 176 171 173
3070.0 158 142 139 131 123 109 107 115 102 91
3110.0 100 101 91 87 82 90 88 77 83 84
3150.0 73 66 65 64 65 72 68 66 56 55
3190.0 64 63 57 54 47 35 43 45 43 46
3230.0 32 26 26 18 26 28 20 31 43 37
3270.0 34 33 20 9 22 29 19 21 30 36
3310.0 34 37 40 35 37 25 7 23 41 26
3350.0 18 25 28 25 22 21 20 18 27 38
3390.0 42 37 39 41 20 18 31 35 19 12
3430.0 27 25 8 11 14 11 11 11 10 4
3470.0 1 17 23 14 18 20 24 17 2 8
3510.0 18 13 4 11 11 11 20 21 21 11
3550.0 19 23 17 21 23 26 19 18 24 30
3590.0 30 19 7 5 13 25 25 21 40 35
3630.0 13 13 17 23 20 25 35 19 14 30
3670.0 25 31 39 40 29 30 41 34 26 22
3710.0 17 16 27 31 24 16 26 21 20 38
3750.0 33 26 22 27 32 17 10 24 30 22
3790.0 17 23 23 27 32 24 22 25 30 32
3830.0 26 18 3 11 26
##END=
