##TITLE=2,4-Hexadiene-1-ol
##JCAMP-DX=4.24
##DATA TYPE=INFRARED SPECTRUM
##ORIGIN=NIST Mass Spectrometry Data Center
##OWNER=NIST Standard Reference Data Program
Collection (C) 2018 copyright by the U.S. Secretary of Commerce
on behalf of the United States of America. All rights reserved.
##CAS REGISTRY NO=111-28-4
##MOLFORM=C 6 H 10 O
##$NIST SOURCE=MSDC-IR
##SPECTROMETER/DATA SYSTEM=HP-GC/MS/IRD
##STATE=gas
##XUNITS=1/CM
##YUNITS=ABSORBANCE
##XFACTOR=1.0
##YFACTOR=0.000000900
##DELTAX=4.0
##FIRSTX=550.0
##LASTX=3846.0
##FIRSTY=0.000349
##MAXX=3846
##MINX=550
##MAXY=0.009
##MINY=0
##NPOINTS=825
##XYDATA=(X++(Y..Y))
550.0 388 126 61 36 113 55 0 85 116 84
590.0 94 180 232 233 279 230 224 269 275 304
630.0 296 328 341 297 307 358 399 404 453 490
670.0 480 445 476 526 477 475 504 519 476 445
710.0 456 504 502 460 443 458 528 561 538 515
750.0 473 433 435 465 530 533 497 493 462 456
790.0 481 455 450 472 459 446 456 449 463 519
830.0 530 543 604 622 620 630 655 741 817 840
870.0 906 997 1099 1215 1331 1472 1629 1900 2136 2264
910.0 2372 2569 2844 3123 3354 3562 3733 3884 4059 4274
950.0 4625 5101 5713 6363 7030 7688 8275 8839 9292 9614
990.0 9829 9947 10000 9917 9537 8862 8016 7014 5918 4947
1030.0 4204 3679 3331 3077 2891 2836 2875 3005 3143 3204
1070.0 3241 3338 3477 3574 3685 3749 3654 3400 3010 2582
1110.0 2189 1877 1638 1469 1317 1228 1160 1093 1091 1110
1150.0 1102 1118 1152 1150 1145 1163 1188 1199 1209 1209
1190.0 1248 1270 1240 1242 1256 1275 1309 1291 1256 1258
1230.0 1231 1215 1213 1207 1180 1134 1150 1174 1191 1198
1270.0 1181 1166 1194 1251 1288 1306 1351 1390 1387 1407
1310.0 1439 1469 1487 1474 1470 1465 1508 1597 1637 1715
1350.0 1892 2142 2476 2917 3321 3730 4094 4261 4272 4132
1390.0 3790 3383 2934 2517 2243 2003 1840 1774 1639 1506
1430.0 1425 1436 1433 1353 1340 1344 1401 1393 1277 1214
1470.0 1190 1150 1018 890 838 806 741 693 663 723
1510.0 711 623 617 611 555 504 496 537 557 501
1550.0 467 502 545 469 406 430 438 423 402 420
1590.0 432 437 471 527 572 618 683 739 753 760
1630.0 779 816 800 824 927 1039 1140 1111 1037 956
1670.0 860 711 568 581 587 562 699 864 892 806
1710.0 754 740 603 406 312 318 333 286 261 254
1750.0 261 266 270 260 298 343 314 306 348 392
1790.0 439 494 545 585 572 556 560 544 498 451
1830.0 396 332 296 310 277 209 188 184 182 194
1870.0 186 151 141 129 123 129 132 115 106 107
1910.0 104 111 119 124 116 101 84 80 92 97
1950.0 98 104 118 131 141 151 144 141 144 137
1990.0 150 164 163 149 135 141 145 138 112 97
2030.0 98 84 76 81 73 83 81 56 53 51
2070.0 44 33 37 46 45 60 55 47 48 14
2110.0 12 34 43 26 21 37 46 50 37 45
2150.0 32 10 10 25 35 26 13 8 18 13
2190.0 18 31 24 31 44 44 47 49 52 43
2230.0 29 30 39 48 52 51 23 8 15 18
2270.0 21 19 20 23 32 36 47 54 42 37
2310.0 35 48 57 49 39 41 41 44 54 67
2350.0 76 68 81 94 69 69 108 133 121 102
2390.0 102 113 120 108 92 92 80 76 88 81
2430.0 62 70 72 63 68 76 104 105 87 80
2470.0 94 103 68 48 42 51 61 71 67 77
2510.0 98 80 57 65 71 61 74 80 102 102
2550.0 83 89 103 97 85 86 71 69 89 91
2590.0 89 105 129 119 103 113 108 108 110 91
2630.0 111 142 126 129 148 142 136 130 124 143
2670.0 145 143 158 180 203 206 203 209 220 240
2710.0 273 292 315 341 371 423 477 512 531 544
2750.0 555 509 459 477 480 454 448 484 522 554
2790.0 581 604 648 687 742 766 799 883 975 1091
2830.0 1230 1381 1568 1818 2156 2530 2985 3553 4135 4595
2870.0 4938 5071 5030 4867 4634 4439 4270 4188 4143 4138
2910.0 4265 4550 5046 5559 5785 5782 5608 5168 4620 4220
2950.0 3985 3817 3662 3527 3411 3273 3172 3099 3061 3059
2990.0 3140 3303 3516 3776 4066 4342 4572 4711 4730 4611
3030.0 4358 3941 3477 3055 2653 2324 2072 1790 1523 1327
3070.0 1195 1059 958 909 868 834 777 719 692 618
3110.0 528 454 399 371 325 278 269 276 260 223
3150.0 188 159 149 182 178 146 149 145 164 139
3190.0 111 110 92 93 105 133 115 90 110 109
3230.0 94 133 153 98 63 73 77 66 64 79
3270.0 98 111 113 121 114 87 33 24 71 89
3310.0 85 48 8 64 125 66 30 50 51 63
3350.0 78 78 66 59 52 54 72 70 100 93
3390.0 68 67 60 50 48 93 117 94 108 108
3430.0 48 34 92 113 110 81 103 140 93 72
3470.0 60 51 46 33 28 55 35 12 63 91
3510.0 75 69 40 64 109 37 25 76 98 111
3550.0 89 51 59 91 140 129 82 60 63 150
3590.0 160 126 128 114 154 293 388 422 426 498
3630.0 619 631 697 772 910 1149 1256 1304 1300 1282
3670.0 1188 1042 891 684 530 448 356 255 223 165
3710.0 183 203 143 153 174 175 210 208 238 252
3750.0 206 150 80 99 76 83 121 113 113 77
3790.0 13 16 60 117 91 33 65 124 120 88
3830.0 115 124 97 62 76
##END=
