##TITLE=Dipropyl ether
##JCAMP-DX=4.24
##DATA TYPE=INFRARED SPECTRUM
##ORIGIN=NIST Mass Spectrometry Data Center
##OWNER=NIST Standard Reference Data Program
Collection (C) 2018 copyright by the U.S. Secretary of Commerce
on behalf of the United States of America. All rights reserved.
##CAS REGISTRY NO=111-43-3
##MOLFORM=C 6 H 14 O
##$NIST SOURCE=MSDC-IR
##SPECTROMETER/DATA SYSTEM=HP-GC/MS/IRD
##STATE=gas
##XUNITS=1/CM
##YUNITS=ABSORBANCE
##XFACTOR=1.0
##YFACTOR=0.000003700
##DELTAX=4.0
##FIRSTX=550.0
##LASTX=3846.0
##FIRSTY=0.000255
##MAXX=3846
##MINX=550
##MAXY=0.037
##MINY=0
##NPOINTS=825
##XYDATA=(X++(Y..Y))
550.0 69 81 51 84 71 47 67 56 64 61
590.0 20 30 37 11 8 36 51 49 56 42
630.0 19 8 2 5 32 56 34 5 30 53
670.0 35 9 7 28 15 13 26 33 40 14
710.0 0 16 38 54 52 74 72 65 78 90
750.0 112 128 118 96 97 119 121 112 105 94
790.0 85 85 81 70 66 57 55 71 74 80
830.0 86 110 126 134 156 161 177 219 255 272
870.0 293 320 354 398 433 463 494 523 551 585
910.0 635 665 696 735 773 807 837 860 887 887
950.0 886 858 798 740 687 636 593 586 613 672
990.0 774 930 1125 1331 1518 1654 1728 1737 1657 1511
1030.0 1367 1263 1211 1193 1199 1245 1337 1454 1614 1879
1070.0 2283 2798 3344 3892 4446 4996 5525 6078 6733 7474
1110.0 8276 9083 9701 9997 9941 9454 8520 7289 6036 4917
1150.0 3998 3272 2701 2254 1885 1573 1335 1152 988 852
1190.0 750 673 613 569 536 510 491 471 475 492
1230.0 508 529 549 591 644 685 728 769 802 822
1270.0 822 810 802 785 760 740 713 684 651 604
1310.0 551 515 502 507 549 633 740 846 946 1065
1350.0 1218 1372 1516 1673 1814 1944 2036 2000 1842 1657
1390.0 1491 1244 950 759 669 613 577 566 579 604
1430.0 658 735 840 959 1092 1243 1362 1462 1540 1572
1470.0 1538 1447 1324 1162 966 789 644 526 438 354
1510.0 299 264 223 190 170 156 139 125 118 111
1550.0 101 86 72 68 61 65 68 74 77 72
1590.0 67 64 74 79 74 73 65 54 55 55
1630.0 57 51 43 42 39 29 26 39 42 39
1670.0 33 24 26 32 26 28 27 16 17 16
1710.0 19 21 18 14 9 8 6 1 2 6
1750.0 1 3 8 10 14 8 1 4 4 5
1790.0 3 5 7 7 11 19 16 9 17 30
1830.0 27 26 27 23 19 24 37 49 48 44
1870.0 50 53 52 53 56 52 48 47 44 44
1910.0 43 42 43 36 33 40 48 47 47 46
1950.0 42 46 50 47 46 51 52 50 52 48
1990.0 46 50 59 66 64 64 68 73 74 76
2030.0 86 92 96 101 103 103 103 102 102 103
2070.0 99 89 88 91 82 68 53 45 45 36
2110.0 29 25 15 12 18 20 10 11 22 22
2150.0 16 19 21 21 21 27 31 30 28 28
2190.0 30 33 33 32 36 33 30 27 20 14
2230.0 18 27 23 19 21 21 20 21 25 25
2270.0 27 36 36 28 19 18 20 19 14 8
2310.0 13 13 6 8 13 16 11 7 8 5
2350.0 0 7 15 11 9 16 23 24 13 20
2390.0 24 24 31 33 34 24 14 19 27 18
2430.0 4 10 11 2 1 0 1 6 2 0
2470.0 3 7 8 16 18 11 5 5 12 5
2510.0 7 22 22 10 8 18 17 14 17 26
2550.0 29 28 37 44 52 54 54 63 75 80
2590.0 85 90 96 102 107 107 109 117 119 104
2630.0 101 110 110 113 118 124 144 158 173 187
2670.0 199 218 223 238 259 283 304 334 378 408
2710.0 436 479 520 553 592 622 654 692 710 725
2750.0 745 762 781 798 822 862 913 988 1069 1126
2790.0 1211 1280 1348 1436 1518 1596 1707 1858 2048 2317
2830.0 2683 3151 3723 4385 5117 5905 6693 7387 7912 8243
2870.0 8390 8407 8326 8067 7669 7236 6783 6332 5987 5821
2910.0 5876 6154 6586 7133 7737 8386 9091 9677 9952 10000
2950.0 9961 9810 9611 9519 9593 9678 9504 8989 8137 7031
2990.0 5821 4605 3483 2632 2061 1662 1372 1158 997 873
3030.0 771 689 628 583 533 479 433 418 408 373
3070.0 351 343 337 319 304 300 307 304 288 281
3110.0 278 260 244 226 207 203 203 185 178 184
3150.0 186 176 163 157 149 143 136 133 130 113
3190.0 107 113 100 97 88 72 76 78 74 67
3230.0 63 64 67 69 70 63 52 51 47 33
3270.0 19 16 30 46 47 41 42 27 23 36
3310.0 51 36 0 17 33 24 23 24 42 51
3350.0 42 38 37 41 34 27 25 29 34 34
3390.0 37 37 38 40 41 48 44 41 52 51
3430.0 49 43 39 34 28 45 38 27 37 33
3470.0 41 57 54 60 69 58 45 46 58 59
3510.0 39 29 36 47 52 52 56 48 48 53
3550.0 47 46 45 44 44 56 65 56 39 43
3590.0 56 52 42 49 60 64 56 41 46 47
3630.0 45 60 74 78 74 73 72 68 65 74
3670.0 78 61 67 71 55 58 56 64 77 63
3710.0 59 69 66 67 61 40 49 66 51 50
3750.0 59 66 62 62 79 87 85 76 80 97
3790.0 95 79 84 98 94 90 90 85 71 71
3830.0 100 118 101 87 90
##END=
