##TITLE=4-Methoxybutanol
##JCAMP-DX=4.24
##DATA TYPE=INFRARED SPECTRUM
##ORIGIN=NIST Mass Spectrometry Data Center
##OWNER=NIST Standard Reference Data Program
Collection (C) 2018 copyright by the U.S. Secretary of Commerce
on behalf of the United States of America. All rights reserved.
##CAS REGISTRY NO=111-32-0
##MOLFORM=C 5 H 12 O 2
##$NIST SOURCE=MSDC-IR
##SPECTROMETER/DATA SYSTEM=HP-GC/MS/IRD
##STATE=gas
##XUNITS=1/CM
##YUNITS=ABSORBANCE
##XFACTOR=1.0
##YFACTOR=0.000001300
##DELTAX=4.0
##FIRSTX=550.0
##LASTX=3846.0
##FIRSTY=0.000226
##MAXX=3846
##MINX=550
##MAXY=0.013
##MINY=0
##NPOINTS=825
##XYDATA=(X++(Y..Y))
550.0 174 155 182 192 96 73 101 124 112 93
590.0 116 110 61 54 81 78 51 45 68 38
630.0 6 25 45 58 53 62 82 65 39 40
670.0 46 41 29 41 92 85 78 98 79 79
710.0 86 80 99 89 82 98 112 127 124 123
750.0 134 121 107 110 105 107 105 100 124 148
790.0 163 174 184 193 208 195 217 252 254 259
830.0 269 293 290 279 292 306 324 347 356 368
870.0 393 405 414 423 421 431 469 530 570 637
910.0 735 840 973 1109 1237 1371 1514 1638 1732 1802
950.0 1841 1855 1846 1836 1807 1788 1791 1793 1830 1908
990.0 1990 2084 2202 2313 2409 2526 2707 2954 3250 3579
1030.0 3901 4217 4493 4731 4955 5145 5263 5272 5200 5026
1070.0 4768 4499 4287 4215 4278 4430 4690 5089 5612 6234
1110.0 6958 7721 8374 8767 8794 8400 7634 6558 5380 4387
1150.0 3700 3268 2971 2763 2654 2622 2619 2633 2669 2699
1190.0 2688 2655 2596 2473 2325 2188 2057 1940 1827 1725
1230.0 1634 1551 1479 1434 1381 1351 1298 1254 1217 1163
1270.0 1110 1065 1023 993 952 909 875 843 802 772
1310.0 751 737 740 748 753 774 806 843 874 909
1350.0 956 979 1030 1136 1265 1474 1724 1974 2149 2216
1390.0 2191 2051 1806 1516 1241 1052 953 892 881 914
1430.0 959 1028 1103 1190 1265 1299 1336 1353 1348 1311
1470.0 1258 1190 1084 961 824 692 562 447 372 333
1510.0 299 254 222 199 177 176 165 145 139 132
1550.0 129 120 101 98 95 88 82 74 86 89
1590.0 64 61 73 66 69 63 42 39 54 50
1630.0 42 36 38 43 45 41 31 29 28 39
1670.0 47 37 22 19 27 30 28 28 31 27
1710.0 17 19 29 21 19 36 36 27 31 31
1750.0 27 24 32 32 14 9 15 18 17 13
1790.0 11 14 11 7 8 0 1 10 8 10
1830.0 12 2 5 23 32 21 16 24 33 34
1870.0 30 30 43 48 47 49 45 40 42 49
1910.0 48 50 44 45 59 67 68 60 55 62
1950.0 75 76 75 77 79 77 71 83 94 93
1990.0 96 96 97 98 100 102 91 94 109 128
2030.0 136 139 135 135 146 148 143 147 149 141
2070.0 142 148 146 136 127 110 96 89 89 85
2110.0 80 78 80 85 77 56 47 43 42 53
2150.0 49 44 50 51 45 45 48 46 41 32
2190.0 31 25 19 29 27 33 29 30 42 42
2230.0 41 42 41 33 37 48 41 40 38 30
2270.0 23 16 9 13 24 27 23 23 31 33
2310.0 40 33 23 32 37 25 26 19 15 23
2350.0 23 29 25 25 32 43 52 47 55 53
2390.0 45 49 51 51 43 37 48 48 43 50
2430.0 53 57 52 30 34 32 34 59 49 40
2470.0 50 46 34 48 54 41 45 53 38 26
2510.0 34 48 53 45 45 62 51 48 58 66
2550.0 70 69 55 52 70 76 84 92 99 100
2590.0 98 114 129 135 134 132 138 144 148 152
2630.0 148 153 162 158 150 155 179 185 204 225
2670.0 228 247 263 262 273 296 329 364 383 403
2710.0 430 462 508 562 597 629 661 682 717 758
2750.0 764 764 768 788 809 839 869 931 1014 1090
2790.0 1204 1379 1609 1903 2256 2646 3032 3438 3824 4109
2830.0 4333 4535 4711 4872 5057 5335 5737 6220 6740 7191
2870.0 7527 7747 7827 7797 7660 7465 7321 7226 7240 7352
2910.0 7514 7752 8118 8606 9116 9571 9905 10000 9853 9501
2950.0 8916 8175 7381 6558 5756 5038 4438 4012 3708 3431
2990.0 3138 2831 2505 2123 1716 1403 1158 961 831 748
3030.0 658 586 556 505 458 426 403 392 375 350
3070.0 324 296 293 279 254 251 246 217 182 172
3110.0 180 183 159 131 115 100 94 108 97 86
3150.0 82 64 81 97 74 66 63 68 64 44
3190.0 29 48 73 75 64 34 49 62 63 61
3230.0 39 44 47 41 41 21 6 27 49 49
3270.0 48 41 39 37 29 15 14 26 22 24
3310.0 27 46 49 40 41 47 44 40 61 65
3350.0 80 94 81 67 42 56 84 79 78 86
3390.0 74 89 96 74 76 58 74 106 106 105
3430.0 106 115 117 109 102 91 89 95 93 89
3470.0 128 158 151 148 158 173 189 193 208 238
3510.0 288 357 393 423 459 506 530 519 512 521
3550.0 490 455 446 411 384 371 361 357 364 385
3590.0 378 332 309 312 315 301 284 289 271 278
3630.0 325 325 346 401 474 604 718 828 941 1008
3670.0 1016 943 856 728 580 456 366 296 237 197
3710.0 169 168 159 123 133 150 127 126 113 87
3750.0 79 99 92 72 82 93 90 73 84 98
3790.0 93 97 85 71 76 97 113 112 133 146
3830.0 108 84 105 113 81
##END=
