##TITLE=Dimethoate oxygen analog
##JCAMP-DX=4.24
##DATA TYPE=INFRARED SPECTRUM
##ORIGIN=NIST Mass Spectrometry Data Center
##OWNER=NIST Standard Reference Data Program
Collection (C) 2018 copyright by the U.S. Secretary of Commerce
on behalf of the United States of America. All rights reserved.
##CAS REGISTRY NO=1113-02-6
##MOLFORM=C 5 H 12 N O 4 P S
##$NIST SOURCE=MSDC-IR
##SPECTROMETER/DATA SYSTEM=HP-GC/MS/IRD
##STATE=gas
##XUNITS=1/CM
##YUNITS=ABSORBANCE
##XFACTOR=1.0
##YFACTOR=0.000014500
##DELTAX=4.0
##FIRSTX=550.0
##LASTX=3846.0
##FIRSTY=0.007468
##MAXX=3846
##MINX=550
##MAXY=0.145
##MINY=0
##NPOINTS=825
##XYDATA=(X++(Y..Y))
550.0 515 957 972 1196 1361 1506 1607 1658 1685 1721
590.0 1775 1858 1941 1978 1924 1753 1488 1189 920 713
630.0 562 459 382 318 270 232 200 176 157 139
670.0 128 126 133 151 173 191 201 199 183 165
710.0 152 151 160 184 227 285 377 511 691 937
750.0 1262 1653 2099 2545 2895 3062 3011 2762 2395 2004
790.0 1665 1394 1196 1080 1060 1146 1343 1597 1814 1886
830.0 1750 1441 1062 723 481 327 234 174 131 98
870.0 72 56 49 46 46 48 48 42 31 21
910.0 10 3 2 4 9 14 21 27 36 46
950.0 57 73 90 110 136 167 203 244 296 365
990.0 455 570 730 951 1267 1706 2318 3152 4240 5566
1030.0 7027 8420 9483 10000 9908 9330 8467 7494 6512 5568
1070.0 4664 3811 3052 2429 1970 1660 1455 1321 1226 1153
1110.0 1094 1040 984 938 897 861 836 832 832 832
1150.0 826 820 821 844 900 982 1081 1173 1231 1230
1190.0 1172 1082 991 914 861 834 833 857 898 958
1230.0 1033 1120 1237 1407 1640 1918 2218 2515 2798 3074
1270.0 3346 3588 3758 3776 3571 3129 2532 1929 1433 1073
1310.0 821 646 525 440 382 340 308 282 265 256
1350.0 247 243 237 229 223 221 223 231 246 271
1390.0 307 362 440 539 642 724 759 738 676 601
1430.0 535 493 485 512 561 618 666 709 748 798
1470.0 858 928 1009 1104 1214 1339 1470 1595 1704 1788
1510.0 1853 1893 1913 1914 1898 1867 1813 1738 1640 1531
1550.0 1409 1278 1141 1002 878 757 650 556 480 415
1590.0 361 316 277 243 214 189 170 157 149 143
1630.0 141 145 152 164 182 209 246 294 357 428
1670.0 511 607 736 923 1217 1634 2270 3241 4552 5855
1710.0 6617 6454 5391 3959 2777 2010 1517 1164 898 688
1750.0 524 402 309 240 185 144 119 101 91 86
1790.0 84 83 84 86 90 93 96 95 92 87
1830.0 81 75 68 62 59 60 60 61 63 64
1870.0 65 65 64 61 57 53 48 42 36 30
1910.0 24 20 16 12 10 9 7 6 4 5
1950.0 4 3 4 5 4 5 4 4 6 8
1990.0 7 8 9 9 8 7 5 4 3 2
2030.0 2 3 4 4 5 5 6 6 7 7
2070.0 8 9 10 10 11 12 13 13 14 14
2110.0 14 15 15 13 11 8 5 4 3 3
2150.0 2 1 0 1 0 1 2 2 3 4
2190.0 3 4 6 7 6 5 5 6 5 4
2230.0 4 3 2 4 4 5 7 6 7 8
2270.0 9 9 10 9 9 9 8 7 6 5
2310.0 5 4 3 3 2 1 2 2 2 3
2350.0 2 1 1 1 2 2 1 2 3 4
2390.0 4 3 2 3 4 3 4 3 2 2
2430.0 3 4 3 3 5 6 5 5 6 7
2470.0 6 5 4 3 4 5 5 4 3 2
2510.0 3 4 4 5 5 5 6 7 8 10
2550.0 11 12 13 15 16 15 15 17 16 16
2590.0 15 15 18 19 19 20 19 20 21 22
2630.0 21 22 24 24 22 21 19 17 14 12
2670.0 13 13 12 13 14 14 13 11 11 11
2710.0 12 13 14 14 13 15 16 16 15 17
2750.0 18 20 22 25 29 33 38 43 47 52
2790.0 61 73 89 109 133 160 184 201 207 205
2830.0 202 209 228 260 319 417 540 638 671 624
2870.0 529 451 414 417 438 466 500 538 580 624
2910.0 674 724 773 814 854 905 973 1064 1186 1356
2950.0 1592 1884 2133 2196 2029 1682 1295 1001 826 728
2990.0 675 651 639 626 612 598 588 581 575 561
3030.0 532 490 446 409 381 359 342 328 315 303
3070.0 294 283 270 255 243 228 213 199 184 169
3110.0 157 146 134 125 116 107 101 93 85 80
3150.0 74 67 62 57 54 54 52 49 48 47
3190.0 46 45 45 44 46 45 46 50 53 54
3230.0 55 60 63 64 69 74 79 84 89 98
3270.0 104 110 117 122 128 135 141 147 155 161
3310.0 170 176 187 202 223 245 276 321 374 441
3350.0 521 605 686 755 798 813 803 771 723 672
3390.0 626 584 544 506 469 433 396 367 349 339
3430.0 340 359 388 419 440 432 395 341 284 237
3470.0 199 174 156 139 122 105 91 75 60 49
3510.0 42 35 28 21 17 16 14 13 10 10
3550.0 12 10 9 7 4 7 9 7 5 5
3590.0 7 7 7 10 8 5 5 4 4 3
3630.0 2 6 7 5 6 5 6 5 4 6
3670.0 10 6 4 4 3 3 4 4 3 3
3710.0 3 2 3 3 4 4 1 1 3 1
3750.0 0 1 5 4 2 4 5 5 4 3
3790.0 2 2 3 1 2 4 4 5 3 2
3830.0 2 3 5 7 5
##END=
