##TITLE=N-Methyldiacetamide
##JCAMP-DX=4.24
##DATA TYPE=INFRARED SPECTRUM
##ORIGIN=EPA-IR VAPOR PHASE LIBRARY
##OWNER=SRD/NIST
Collection (C) 2018 copyright by the U.S. Secretary of Commerce
on behalf of the United States of America. All rights reserved.
##CAS REGISTRY NO=1113-68-4
##MOLFORM=C 5 H 9 N O 2
##$NIST SOURCE=MSDC-IR
##STATE=gas
##XUNITS=1/CM
##YUNITS=ABSORBANCE
##XFACTOR=1.
##YFACTOR=0.001
##DELTAX=1.92898
##FIRSTX=549.8
##LASTX=4000.7
##FIRSTY=4.236
##MAXX=4000.7
##MINX=549.759
##MAXY=0.134506
##MINY=0
##NPOINTS=1790
##XYDATA=(X++(Y..Y))
549.759 4.236 4.376 4.796 5.086 5.056 5.206 5.176 4.776 4.626 4.476
569.049 4.066 3.566 2.916 2.816 2.916 2.806 2.836 3.036 3.126 3.356
588.339 3.966 4.576 5.296 6.046 6.916 7.926 8.826 9.626 10.266 10.826
607.628 11.376 11.526 11.286 11.006 10.776 10.456 9.706 8.696 7.846 7.096
626.918 6.336 5.666 4.776 3.976 3.586 2.956 2.466 2.216 1.896 1.556
646.208 1.436 1.376 1.276 1.246 1.0804 0.9606 1.0497 0.9782 0.8736 0.869
665.498 0.8512 0.8857 0.9077 1.0967 1.286 1.246 1.1551 1.206 1.326 1.276
684.787 1.1414 1.1765 1.216 1.206 1.196 1.206 1.0356 0.8886 0.8644 0.624
704.077 0.4608 0.3647 0.2578 0.3552 0.3204 0.25643 0.195869 0.1064 0.1822 0.2914
723.367 0.3508 0.3007 0.20638 0.22326 0.2963 0.29573 0.19162 0.1691 0.1471 0.1318
742.657 0.29106 0.26322 0.1625 0.1554 0.22473 0.25991 0.1859 0.309 0.2516 0.1405
761.947 0.1793 0.22229 0.22772 0.27765 0.25389 0.1339 0.21981 0.26344 0.3297 0.393
781.236 0.3084 0.195057 0.200337 0.3364 0.2963 0.27233 0.4655 0.5867 0.5246 0.3488
800.526 0.27305 0.23267 0.325 0.3978 0.4223 0.5545 0.53 0.4251 0.3941 0.3933
819.816 0.4876 0.4845 0.4375 0.6178 0.6027 0.6228 0.7045 0.682 0.7762 0.7843
839.106 0.8017 0.8324 0.7802 0.6754 0.7103 0.7939 0.8592 0.8983 1.0537 1.226
858.395 1.246 1.346 1.316 1.316 1.476 1.716 1.886 2.096 2.456 2.766
877.685 3.286 3.696 4.186 4.746 5.076 5.556 5.836 6.016 6.176 6.096
896.975 5.946 5.956 5.796 5.356 4.956 4.516 3.846 3.066 2.376 1.926
916.265 1.606 1.276 1.0733 0.9304 0.9225 0.9995 1.0813 1.1538 1.196 1.216
935.555 1.356 1.526 1.736 1.946 2.136 2.486 2.956 3.476 4.016 4.606
954.844 5.406 6.526 7.976 9.466 10.806 12.236 13.486 14.606 15.596 16.466
974.134 17.326 17.966 18.306 18.866 19.596 20.116 20.526 20.446 19.966 19.476
993.424 19.036 18.736 18.436 17.926 17.476 17.046 16.426 15.626 14.526 13.296
1012.714 11.916 10.356 9.066 8.196 7.376 6.656 6.316 6.156 5.746 5.546
1032.003 5.666 5.646 5.396 5.356 5.536 5.526 5.296 5.186 5.026 4.496
1051.293 4.326 4.506 4.596 4.486 4.316 4.246 4.236 3.996 3.946 4.026
1070.583 4.086 4.046 3.926 4.136 3.986 3.956 4.096 4.246 4.656 4.726
1089.873 4.926 5.096 5.426 6.206 6.416 6.666 7.506 7.616 7.706 8.696
1109.163 9.656 10.866 11.916 12.676 13.816 15.236 16.746 18.116 19.786 21.416
1128.452 22.876 24.296 25.336 26.256 27.006 27.596 28.086 27.876 27.286 26.786
1147.742 26.316 25.406 24.106 23.076 21.756 20.276 19.046 17.926 16.926 15.846
1167.032 15.126 14.416 13.446 12.806 12.196 11.606 11.086 10.606 10.256 9.836
1186.322 9.206 8.946 8.826 8.746 8.676 8.366 8.136 7.996 7.876 7.976
1205.611 8.256 8.446 8.926 9.596 9.886 10.406 11.376 12.156 13.156 14.426
1224.901 15.896 17.856 20.136 22.616 25.576 29.026 32.566 36.376 40.516 44.656
1244.191 48.796 52.736 56.266 59.136 61.366 63.106 64.076 64.256 63.756 62.446
1263.481 60.336 57.676 54.816 51.726 48.476 45.426 42.796 40.866 39.636 39.216
1282.771 39.636 40.636 42.146 43.976 45.846 47.766 49.596 51.246 52.616 53.636
1302.060 54.406 54.896 54.976 54.596 53.696 52.316 50.396 48.016 45.306 42.326
1321.350 39.176 35.916 32.576 29.216 25.986 22.916 19.986 17.396 15.246 13.556
1340.640 12.296 11.556 11.266 11.366 12.016 13.186 14.946 17.356 20.426 24.176
1359.930 28.306 32.496 36.356 39.416 41.726 43.716 45.546 46.306 45.736 45.106
1379.219 44.616 43.126 39.926 35.506 30.556 25.776 21.856 18.866 16.666 15.166
1398.509 14.206 13.556 13.306 13.346 13.496 13.836 14.346 14.876 15.436 15.906
1417.799 16.226 16.466 16.586 16.586 16.506 16.326 16.066 15.716 15.196 14.606
1437.089 13.916 13.156 12.436 11.786 11.206 10.736 10.346 10.046 9.836 9.636
1456.378 9.426 9.216 9.046 8.816 8.616 8.396 8.126 7.906 7.736 7.456
1475.668 7.156 6.916 6.706 6.456 6.196 5.996 5.816 5.676 5.456 5.246
1494.958 5.126 4.976 4.806 4.626 4.496 4.456 4.346 4.266 4.196 4.046
1514.248 3.956 3.926 3.866 3.826 3.796 3.726 3.646 3.566 3.516 3.486
1533.538 3.426 3.356 3.336 3.346 3.296 3.216 3.176 3.066 3.046 3.026
1552.827 3.006 2.986 2.976 2.976 2.876 2.816 2.796 2.836 2.866 2.846
1572.117 2.806 2.826 2.846 2.746 2.696 2.716 2.716 2.706 2.676 2.676
1591.407 2.716 2.776 2.766 2.736 2.716 2.656 2.736 2.866 2.886 2.896
1610.697 2.956 3.026 3.106 3.116 3.126 3.256 3.336 3.326 3.426 3.516
1629.986 3.586 3.686 3.806 3.996 4.196 4.336 4.496 4.786 5.126 5.446
1649.276 5.716 6.056 6.396 6.586 6.856 7.196 7.616 8.106 8.616 9.206
1668.566 9.926 10.686 11.556 12.626 13.846 15.066 16.436 17.856 19.366 20.836
1687.856 22.316 24.076 26.106 28.396 31.206 34.576 38.816 44.566 51.216 60.016
1707.146 70.776 83.296 96.926 110.296 121.696 129.616 133.606 134.506 134.386 133.676
1726.435 132.566 133.116 132.306 125.186 110.376 91.906 73.736 56.786 43.486 33.376
1745.725 26.056 20.696 16.796 13.906 11.766 10.286 9.206 8.356 7.776 7.326
1765.015 6.946 6.656 6.366 6.166 6.006 5.816 5.666 5.516 5.346 5.156
1784.305 4.976 4.856 4.756 4.676 4.676 4.616 4.486 4.296 4.106 3.836
1803.594 3.516 3.256 3.006 2.736 2.506 2.306 2.096 1.896 1.726 1.556
1822.884 1.446 1.406 1.306 1.236 1.1591 1.1087 1.08 1.031 1.0509 1.0735
1842.174 1.0646 1.0863 1.0927 1.0525 1.0595 1.0664 1.0093 1.0279 1.0683 1.0471
1861.464 1.0381 1.0196 0.9833 0.9571 0.9718 0.9903 0.9264 0.8542 0.839 0.8148
1880.754 0.7677 0.7511 0.7372 0.6881 0.6519 0.6 0.5884 0.5972 0.6117 0.65
1900.043 0.6232 0.6208 0.6486 0.6339 0.5899 0.5547 0.6388 0.6989 0.6932 0.7007
1919.333 0.7118 0.7551 0.8053 0.8563 0.8479 0.8459 0.8721 0.8583 0.8986 0.9925
1938.623 0.9838 0.9303 0.9309 0.8709 0.8674 0.9222 0.8802 0.811 0.8054 0.7848
1957.913 0.7873 0.773 0.726 0.7485 0.7712 0.7532 0.7328 0.748 0.7764 0.7702
1977.202 0.7769 0.7902 0.8024 0.8238 0.8415 0.8582 0.8701 0.8838 0.81 0.754
1996.492 0.7499 0.7713 0.7567 0.6903 0.7047 0.671 0.5996 0.5835 0.5604 0.5364
2015.782 0.5489 0.4966 0.4326 0.4319 0.4235 0.3935 0.3693 0.3872 0.4372 0.4346
2035.072 0.4143 0.4282 0.417 0.4153 0.4348 0.4908 0.5266 0.4963 0.5064 0.5022
2054.362 0.5003 0.53 0.5565 0.5124 0.4638 0.4523 0.4281 0.484 0.4743 0.4369
2073.651 0.4087 0.359 0.3292 0.3171 0.3529 0.3642 0.3334 0.337 0.3886 0.4362
2092.941 0.4459 0.4016 0.3982 0.4732 0.5185 0.5599 0.569 0.5671 0.5942 0.5706
2112.231 0.584 0.6224 0.6595 0.688 0.7098 0.7155 0.6846 0.7532 0.7906 0.7422
2131.521 0.714 0.7061 0.7577 0.7461 0.6977 0.7048 0.7131 0.7088 0.6961 0.6793
2150.810 0.7217 0.743 0.7181 0.726 0.6894 0.7091 0.7421 0.7149 0.6889 0.6114
2170.100 0.5702 0.5625 0.4726 0.4298 0.3945 0.3685 0.3726 0.3667 0.3774 0.3449
2189.390 0.3137 0.3538 0.3394 0.28011 0.3193 0.3313 0.3397 0.3381 0.2961 0.3194
2208.680 0.3322 0.26471 0.204603 0.23609 0.27487 0.23415 0.21541 0.273 0.3193 0.28946
2227.970 0.24475 0.27846 0.3082 0.28723 0.3217 0.3355 0.3288 0.3227 0.3394 0.3363
2247.259 0.3295 0.3752 0.3918 0.3999 0.4021 0.369 0.3538 0.3855 0.4424 0.4736
2266.549 0.4894 0.4982 0.5332 0.5145 0.4497 0.4591 0.4563 0.4304 0.4029 0.3463
2285.839 0.3325 0.3463 0.3069 0.3536 0.3783 0.3575 0.3599 0.3551 0.3641 0.3954
2305.129 0.3534 0.2972 0.3359 0.3667 0.3539 0.3317 0.3286 0.3461 0.3516 0.3263
2324.418 0.27252 0.25414 0.289 0.3572 0.3923 0.3609 0.3537 0.3377 0.382 0.3887
2343.708 0.3239 0.28451 0.28145 0.3204 0.3322 0.2984 0.3072 0.3464 0.29266 0.26602
2362.998 0.3101 0.3386 0.3535 0.3465 0.3443 0.3104 0.3163 0.28981 0.2669 0.3439
2382.288 0.3341 0.3309 0.3676 0.3568 0.3154 0.29233 0.3054 0.3653 0.4156 0.4175
2401.578 0.3817 0.36 0.3888 0.3652 0.29273 0.2834 0.3009 0.27609 0.2826 0.28725
2420.867 0.24089 0.21262 0.199748 0.18 0.20988 0.21134 0.20955 0.22957 0.23485 0.28958
2440.157 0.26479 0.27887 0.29197 0.205743 0.18929 0.18705 0.196822 0.25099 0.22513 0.1834
2459.447 0.21092 0.203602 0.18753 0.22261 0.23798 0.26892 0.3174 0.3498 0.29277 0.21102
2478.737 0.25248 0.27953 0.28849 0.27816 0.26698 0.3403 0.4055 0.3766 0.4011 0.4235
2498.026 0.3808 0.4157 0.4098 0.3845 0.4185 0.3888 0.3417 0.3296 0.3703 0.3792
2517.316 0.3492 0.3183 0.26718 0.28118 0.3618 0.3706 0.3403 0.3296 0.3595 0.3461
2536.606 0.28753 0.28153 0.3096 0.3744 0.3843 0.343 0.3177 0.3645 0.3702 0.3511
2555.896 0.4077 0.4121 0.4349 0.4524 0.3689 0.393 0.3792 0.355 0.4579 0.5027
2575.186 0.4527 0.4045 0.3598 0.4237 0.5294 0.4872 0.4536 0.4324 0.4723 0.4781
2594.475 0.4481 0.4669 0.4962 0.5199 0.5544 0.5516 0.5315 0.5663 0.549 0.471
2613.765 0.4306 0.4883 0.4844 0.4764 0.5376 0.4836 0.4377 0.4357 0.3747 0.29471
2633.055 0.2882 0.3368 0.3498 0.27461 0.22564 0.27682 0.28631 0.23992 0.24095 0.23415
2652.345 0.27143 0.28471 0.1795 0.196713 0.25343 0.22441 0.1764 0.23265 0.27499 0.24867
2671.634 0.22815 0.1577 0.1618 0.23065 0.27973 0.3534 0.3384 0.25843 0.3606 0.4575
2690.924 0.3745 0.3424 0.3183 0.28064 0.3392 0.3412 0.316 0.3291 0.3645 0.3859
2710.214 0.3255 0.23293 0.21122 0.25351 0.29184 0.3417 0.24036 0.172 0.29525 0.3262
2729.504 0.27711 0.3505 0.3423 0.27554 0.29136 0.26988 0.24941 0.2762 0.3085 0.26293
2748.794 0.2566 0.3238 0.25647 0.1531 0.1663 0.2298 0.2807 0.28354 0.24142 0.19441
2768.083 0.1742 0.26924 0.3448 0.3191 0.3736 0.3649 0.3352 0.3771 0.3629 0.3289
2787.373 0.4049 0.4388 0.4175 0.4547 0.4467 0.4694 0.5139 0.4785 0.4137 0.4097
2806.663 0.4909 0.5631 0.6194 0.727 0.7025 0.7211 0.7607 0.8125 0.8904 0.8721
2825.953 0.9011 0.9681 0.9982 1.0656 1.1814 1.1747 1.1652 1.266 1.326 1.326
2845.242 1.306 1.266 1.226 1.172 1.1727 1.1897 1.1813 1.1514 1.1895 1.246
2864.532 1.256 1.286 1.336 1.346 1.426 1.476 1.506 1.526 1.546 1.626
2883.822 1.636 1.716 1.816 1.846 1.876 1.996 2.126 2.286 2.436 2.556
2903.112 2.676 2.796 2.916 2.936 3.016 3.176 3.366 3.476 3.576 3.746
2922.401 3.886 4.076 4.266 4.496 4.736 5.006 5.326 5.666 5.996 6.346
2941.691 6.796 7.196 7.476 7.806 8.176 8.356 8.486 8.676 8.736 8.766
2960.981 8.786 8.746 8.606 8.426 8.266 8.076 7.936 7.746 7.526 7.306
2980.271 7.016 6.786 6.666 6.456 6.276 6.166 5.956 5.736 5.616 5.466
2999.561 5.296 5.206 5.176 5.266 5.266 5.326 5.386 5.326 5.166 5.146
3018.850 5.096 4.916 4.736 4.496 4.356 4.276 4.096 3.846 3.566 3.366
3038.140 3.196 2.936 2.626 2.466 2.366 2.216 2.126 2.106 2.066 1.926
3057.430 1.756 1.626 1.646 1.626 1.596 1.576 1.486 1.396 1.436 1.506
3076.720 1.386 1.266 1.246 1.256 1.256 1.1756 1.1114 1.0595 1.0352 1.0264
3096.009 0.9961 0.9953 0.9899 0.9479 0.9872 1.1069 1.0019 0.8844 0.9498 0.9114
3115.299 0.938 1.017 0.9922 0.853 0.7585 0.8074 0.7387 0.6586 0.7541 0.7979
3134.589 0.7648 0.7853 0.7161 0.7266 0.7169 0.7299 0.7863 0.7077 0.6882 0.6238
3153.879 0.5683 0.5753 0.617 0.659 0.6068 0.5892 0.672 0.6218 0.4727 0.5476
3173.169 0.5912 0.5875 0.6174 0.5175 0.4922 0.4105 0.3475 0.4344 0.3558 0.3005
3192.458 0.4425 0.4289 0.348 0.366 0.4087 0.4736 0.4282 0.2998 0.26871 0.3423
3211.748 0.4295 0.3648 0.3842 0.4248 0.3968 0.4119 0.3672 0.26848 0.1852 0.22878
3231.038 0.21766 0.22695 0.2655 0.1797 0.1705 0.25859 0.25743 0.1715 0.1767 0.22953
3250.328 0.18874 0.1795 0.2771 0.25326 0.27592 0.3614 0.24835 0.26442 0.4091 0.4013
3269.617 0.24255 0.18829 0.18932 0.23087 0.28001 0.22876 0.1444 0.1173 0.1571 0.2131
3288.907 0.199807 0.2596 0.3606 0.28903 0.2906 0.3534 0.3637 0.3185 0.24052 0.22046
3308.197 0.22789 0.2147 0.2733 0.2689 0.1423 0.1135 0.1694 0.3075 0.3627 0.2816
3327.487 0.26614 0.27347 0.3642 0.4037 0.3628 0.3501 0.357 0.319 0.3015 0.3285
3346.777 0.3225 0.3313 0.3115 0.24787 0.28859 0.4373 0.4649 0.3593 0.3618 0.3106
3366.066 0.28562 0.3952 0.4282 0.4859 0.4866 0.5418 0.5647 0.4913 0.4693 0.492
3385.356 0.5263 0.551 0.6021 0.6655 0.7893 0.856 0.7524 0.6509 0.7087 0.849
3404.646 1.0455 1.1856 1.246 1.286 1.356 1.446 1.536 1.656 1.736 1.776
3423.936 1.816 1.876 1.916 1.886 1.796 1.806 1.806 1.676 1.586 1.586
3443.225 1.476 1.196 1.0549 1.0804 0.9026 0.7189 0.6894 0.6927 0.6642 0.5498
3462.515 0.5542 0.6531 0.5872 0.5476 0.5086 0.4773 0.5445 0.5457 0.4814 0.3732
3481.805 0.3783 0.4097 0.4237 0.3794 0.393 0.421 0.3852 0.3375 0.23912 0.21464
3501.095 0.21498 0.2169 0.3157 0.3817 0.4078 0.4001 0.3535 0.367 0.3594 0.3965
3520.385 0.27032 0.178 0.197034 0.19263 0.18727 0.1055 0.1127 0.2999 0.3631 0.3097
3539.674 0.3623 0.3246 0.1765 0.1496 0.093 0.022 0.1576 0.3128 0.18757 0.1638
3558.964 0.3753 0.4486 0.4337 0.29387 0.24161 0.23933 0.18703 0.24245 0.24316 0.28475
3578.254 0.4 0.29278 0.20718 0.289 0.18774 0.1747 0.23794 0.22113 0.21605 0.2275
3597.544 0.26679 0.22367 0.22995 0.1833 0.199032 0.28654 0.3129 0.25484 0.1528 0.25597
3616.833 0.3663 0.3156 0.27346 0.15 0.077 0.19148 0.2097 0.1829 0.1837 0.1445
3636.123 0.1837 0.1454 0.013 0.0976 0.1508 0.1305 0.21264 0.1478 0.0968 0.1546
3655.413 0.25648 0.26823 0.24291 0.23621 0.1455 0.1731 0.22857 0.26257 0.2593 0.21141
3674.703 0.21483 0.27192 0.27888 0.1831 0.20984 0.1654 0.019 0.1256 0.1805 0.046
3693.993 0.1061 0.19367 0.20825 0.1556 0.084 0.1219 0.1325 0.1313 0.1138 0.22794
3713.282 0.3495 0.2161 0.1821 0.1761 0.089 0.092 0.148 0.21286 0.196703 0.1343
3732.572 0.1431 0.197786 0.1379 0.1695 0.1434 0.078 0.26253 0.1699 0.019 0.199171
3751.862 0.27668 0.1553 0.03 0.076 0.1705 0.1666 0.1502 0.1774 0.158 0.064
3771.152 0.056 0.089 0.082 0.054 0.1133 0.095 0.031 0.23513 0.355 0.26147
3790.441 0.22519 0.22918 0.18987 0.205093 0.196303 0.1279 0.066 0.18868 0.3336 0.25758
3809.731 0.3233 0.3011 0.1575 0.25637 0.22046 0.039 0.011 0.062 0.1468 0.22191
3829.021 0.1266 0.062 0.086 0.096 0.22613 0.1523 0.048 0.081 0.138 0.1783
3848.311 0.1685 0.24751 0.26497 0.21699 0.20822 0.19219 0.1653 0.1693 0.1217 0.022
3867.601 0.088 0.2991 0.405 0.3664 0.3108 0.1632 0.1188 0.201987 0.1292 0.03
3886.890 0.046 0.093 0.077 0.1076 0.1366 0.1321 0.1419 0.22474 0.26665 0.197966
3906.180 0.1679 0.25638 0.26596 0.18629 0.2552 0.28643 0.168 0.127 0.19009 0.1636
3925.470 0.181 0.103 0.046 0.19126 0.1496 0.042 0.1071 0.27001 0.22956 0.14
3944.760 0.1606 0.1754 0.25588 0.2323 0.1586 0.21635 0.22723 0.23572 0.22954 0.2173
3964.049 0.22427 0.23161 0.28659 0.3406 0.27588 0.122 0 0.043 0.2714 0.3538
3983.339 0.3344 0.4518 0.5639 0.4046 0.26265 0.25224 0.28808 0.3239 0.3089 0.3263
##END=
