##TITLE=N,N-Diethylbutyramide
##JCAMP-DX=4.24
##DATA TYPE=INFRARED SPECTRUM
##ORIGIN=EPA-IR VAPOR PHASE LIBRARY
##OWNER=SRD/NIST
Collection (C) 2018 copyright by the U.S. Secretary of Commerce
on behalf of the United States of America. All rights reserved.
##CAS REGISTRY NO=1114-76-7
##MOLFORM=C 8 H 17 N O
##$NIST SOURCE=MSDC-IR
##STATE=gas
##XUNITS=1/CM
##YUNITS=ABSORBANCE
##XFACTOR=1.
##YFACTOR=0.001
##DELTAX=1.92898
##FIRSTX=549.8
##LASTX=4000.7
##FIRSTY=1.2256
##MAXX=4000.7
##MINX=549.759
##MAXY=0.143213
##MINY=0
##NPOINTS=1790
##XYDATA=(X++(Y..Y))
549.759 1.2256 1.2048 1.2097 1.373 1.563 1.693 1.743 1.573 1.513 1.833
569.049 2.053 2.153 2.263 2.323 2.263 2.693 2.993 2.863 3.033 2.993
588.339 2.943 2.823 2.763 2.843 2.873 3.013 2.883 2.883 2.713 2.363
607.628 2.403 2.443 2.193 2.053 1.993 1.653 1.393 1.305 1.2256 1.1253
626.918 0.9573 0.7454 0.5553 0.6098 0.7488 0.8334 0.7535 0.7521 0.8109 0.6933
646.208 0.7025 0.9547 0.972 0.7996 0.8145 0.8014 0.9332 0.8359 0.8466 1.0722
665.498 1.0186 0.9561 0.9518 0.9919 0.7922 0.6677 0.7283 0.6972 0.8294 0.9841
684.787 0.9183 0.861 0.9734 0.95 0.9806 1.0369 1.105 1.1686 1.0843 1.0827
704.077 1.2108 1.2472 1.0339 0.9475 0.9848 0.8654 0.9147 1.0485 0.9683 1.095
723.367 1.1869 0.924 0.9871 1.072 0.8373 0.7266 0.7836 0.8763 0.9842 1.0954
742.657 1.1543 1.0071 1.0442 1.403 1.473 1.473 1.663 1.843 1.803 1.733
761.947 1.663 1.733 2.023 2.153 2.233 2.333 2.553 3.023 3.383 3.593
781.236 3.863 4.243 4.793 5.053 5.363 5.723 5.523 5.263 5.203 5.173
800.526 5.253 5.263 5.153 5.133 5.143 5.053 4.793 4.763 4.683 4.533
819.816 4.553 4.203 3.623 3.113 2.763 2.493 2.213 1.993 1.823 1.653
839.106 1.543 1.523 1.3071 1.0579 1.3295 1.503 1.383 1.333 1.2839 1.503
858.395 1.723 1.763 1.873 1.993 1.993 1.933 1.963 2.003 2.213 2.553
877.685 2.653 2.803 2.953 3.093 3.103 2.963 3.043 3.033 2.643 2.353
896.975 2.193 2.163 2.183 1.943 1.773 1.673 1.603 1.483 1.513 1.623
916.265 1.553 1.643 1.693 1.743 1.793 1.853 1.823 1.723 1.723 1.743
935.555 1.823 1.953 2.033 1.963 1.943 1.823 1.763 1.723 1.773 1.743
954.844 1.473 1.463 1.443 1.1767 1.0037 0.9594 0.8905 1.0385 1.1931 1.0938
974.134 1.1596 1.1499 1.1461 1.583 1.513 1.191 1.2276 1.423 1.633 1.763
993.424 1.733 1.673 1.853 1.923 1.943 2.333 2.723 2.853 2.903 2.863
1012.714 2.813 2.933 3.253 3.563 3.573 3.483 3.603 3.813 3.863 3.783
1032.003 3.973 4.303 4.523 4.973 5.193 5.513 5.983 6.173 6.613 7.453
1051.293 8.193 8.423 9.443 10.883 11.823 12.833 14.013 15.023 15.743 16.573
1070.583 17.703 18.783 19.303 19.683 20.053 20.173 20.343 20.673 20.623 20.433
1089.873 20.273 19.793 19.143 18.473 17.403 16.383 15.403 14.323 13.473 12.453
1109.163 11.673 11.003 10.333 9.903 9.653 9.673 9.373 9.113 9.803 10.653
1128.452 11.453 12.353 13.783 15.513 17.053 18.163 18.943 19.713 20.153 20.343
1147.742 20.293 19.373 17.903 16.693 15.023 13.033 11.263 9.973 8.863 7.843
1167.032 6.923 6.113 5.623 5.063 4.873 4.713 4.553 4.603 4.973 5.253
1186.322 4.923 4.813 5.053 5.543 6.273 6.733 7.413 8.773 9.793 10.423
1205.611 11.843 13.363 14.703 16.833 18.883 20.303 21.753 23.163 23.923 24.483
1224.901 25.153 25.463 25.413 25.403 25.493 25.563 25.933 26.813 27.713 28.753
1244.191 29.793 30.553 31.393 32.093 32.303 32.233 31.923 31.493 30.823 29.943
1263.481 29.333 28.803 28.193 27.613 27.103 26.453 25.613 24.663 23.623 22.513
1282.771 21.513 20.463 19.243 18.063 16.993 16.243 15.933 15.813 15.693 15.633
1302.060 15.703 15.853 16.063 16.203 16.153 15.973 15.633 15.173 14.613 13.933
1321.350 13.213 12.613 12.193 11.843 11.663 11.763 12.033 12.443 13.003 13.723
1340.640 14.503 15.353 16.243 17.123 18.043 18.983 19.973 20.943 21.833 22.623
1359.930 23.253 23.763 24.233 24.743 25.463 26.603 27.853 28.993 30.093 31.123
1379.219 32.023 32.663 33.083 33.203 32.873 32.183 31.343 30.433 29.843 29.853
1398.509 30.443 31.733 33.603 35.943 38.633 41.513 44.423 47.173 49.423 50.963
1417.799 51.763 51.763 50.963 49.333 46.993 44.283 41.243 38.103 35.233 32.873
1437.089 30.873 29.493 28.733 28.383 28.403 28.843 29.583 30.373 31.173 31.863
1456.378 32.283 32.523 32.463 32.163 31.553 30.753 29.783 28.613 27.333 25.863
1475.668 24.383 22.913 21.403 19.753 18.073 16.373 14.703 13.083 11.583 10.363
1494.958 9.323 8.503 7.883 7.323 6.863 6.513 6.123 5.783 5.553 5.403
1514.248 5.253 5.033 4.903 4.793 4.683 4.523 4.433 4.313 4.113 4.083
1533.538 4.023 3.823 3.733 3.633 3.473 3.363 3.283 3.203 3.143 3.063
1552.827 2.963 2.903 2.903 2.923 2.953 2.943 2.853 2.823 2.833 2.783
1572.117 2.793 2.783 2.783 2.873 2.963 2.953 2.883 2.943 3.063 3.163
1591.407 3.183 3.293 3.493 3.583 3.583 3.663 3.803 4.073 4.293 4.363
1610.697 4.583 4.893 5.163 5.533 5.873 6.253 6.763 7.293 7.893 8.523
1629.986 9.153 9.853 10.663 11.633 12.793 14.033 15.543 17.443 20.003 23.193
1649.276 27.143 32.053 38.943 47.323 57.053 68.913 82.133 96.623 110.983 123.793
1668.566 133.823 140.473 143.213 142.633 138.733 131.363 119.513 104.633 87.583 70.703
1687.856 56.513 44.243 34.513 27.223 21.683 17.453 14.653 12.383 10.783 9.463
1707.146 8.533 7.773 7.083 6.513 6.093 5.673 5.353 5.053 4.783 4.583
1726.435 4.363 4.173 4.003 3.833 3.723 3.593 3.463 3.383 3.243 3.033
1745.725 2.913 2.853 2.753 2.573 2.423 2.383 2.303 2.203 2.143 2.083
1765.015 1.963 1.823 1.753 1.743 1.763 1.713 1.613 1.533 1.473 1.443
1784.305 1.433 1.423 1.423 1.383 1.363 1.373 1.314 1.2766 1.2559 1.24
1803.594 1.2243 1.1981 1.1627 1.1188 1.0761 1.0364 1.0113 0.9862 0.959 0.9608
1822.884 0.962 0.9243 0.9561 0.9797 0.915 0.8916 0.96 1.0016 0.9635 0.8997
1842.174 0.8088 0.8037 0.8553 0.8675 0.9004 0.8779 0.8132 0.8137 0.8577 0.8435
1861.464 0.8071 0.8172 0.8425 0.7876 0.7445 0.717 0.6797 0.68 0.7137 0.7339
1880.754 0.7441 0.758 0.7646 0.7741 0.7637 0.7791 0.7642 0.7037 0.7162 0.7379
1900.043 0.708 0.6807 0.701 0.7436 0.7487 0.7441 0.6966 0.6581 0.7052 0.6948
1919.333 0.6714 0.7016 0.6886 0.6787 0.6399 0.6067 0.6207 0.6539 0.6698 0.6597
1938.623 0.6993 0.7031 0.6776 0.6668 0.6434 0.6094 0.6114 0.6108 0.6447 0.6464
1957.913 0.632 0.6652 0.6252 0.5765 0.5887 0.6206 0.632 0.5994 0.57 0.6371
1977.202 0.6563 0.5795 0.585 0.5923 0.579 0.5865 0.5425 0.5555 0.5682 0.5451
1996.492 0.5582 0.5602 0.5846 0.5977 0.5769 0.5812 0.5665 0.5477 0.5224 0.5265
2015.782 0.555 0.5487 0.5183 0.5123 0.557 0.5454 0.5098 0.5782 0.5862 0.5165
2035.072 0.5246 0.5508 0.5637 0.556 0.5331 0.5334 0.5757 0.6132 0.5894 0.5721
2054.362 0.5504 0.5036 0.4831 0.554 0.6229 0.5742 0.5166 0.5615 0.5807 0.5423
2073.651 0.5973 0.6255 0.6105 0.614 0.6714 0.6686 0.6716 0.6676 0.6905 0.7622
2092.941 0.6918 0.6932 0.7221 0.7368 0.6916 0.5953 0.5756 0.553 0.5867 0.6492
2112.231 0.634 0.6367 0.6143 0.6096 0.6311 0.6107 0.5847 0.587 0.5983 0.5728
2131.521 0.56 0.6072 0.6495 0.6325 0.5888 0.586 0.6063 0.5577 0.5539 0.5658
2150.810 0.5948 0.6514 0.6334 0.568 0.5497 0.6415 0.6956 0.6713 0.6509 0.6818
2170.100 0.6238 0.5642 0.5909 0.5475 0.5552 0.6037 0.6261 0.6203 0.6327 0.5632
2189.390 0.5028 0.5623 0.5954 0.6165 0.581 0.5534 0.5436 0.5074 0.5442 0.571
2208.680 0.5278 0.538 0.5477 0.5775 0.6675 0.6627 0.6017 0.5845 0.5541 0.5394
2227.970 0.5188 0.5612 0.5837 0.5606 0.6223 0.636 0.6296 0.6417 0.5965 0.5749
2247.259 0.5546 0.5129 0.514 0.6331 0.6533 0.551 0.5288 0.5045 0.4886 0.4731
2266.549 0.4715 0.4888 0.4899 0.4817 0.5556 0.6167 0.6348 0.5967 0.5103 0.5501
2285.839 0.5746 0.5529 0.5567 0.5189 0.5475 0.5718 0.5686 0.559 0.5836 0.6039
2305.129 0.5748 0.5844 0.6063 0.6243 0.6143 0.5853 0.6145 0.6349 0.5738 0.5905
2324.418 0.6666 0.6315 0.5756 0.6115 0.6266 0.5698 0.5788 0.6071 0.5879 0.6082
2343.708 0.607 0.5188 0.5302 0.5891 0.6206 0.6442 0.5991 0.5985 0.5701 0.5399
2362.998 0.6157 0.6378 0.6301 0.6231 0.5363 0.5417 0.6415 0.6643 0.6353 0.6122
2382.288 0.5838 0.5716 0.6044 0.6454 0.6276 0.6662 0.6686 0.6474 0.6951 0.6634
2401.578 0.6389 0.6425 0.6007 0.5819 0.6229 0.6638 0.6182 0.5324 0.5717 0.6564
2420.867 0.727 0.7065 0.6709 0.7011 0.6759 0.6609 0.6254 0.6421 0.6404 0.6089
2440.157 0.6932 0.6537 0.5948 0.6596 0.6765 0.6474 0.6248 0.6242 0.644 0.6283
2459.447 0.6206 0.6367 0.6399 0.6641 0.7017 0.7127 0.6383 0.6299 0.6032 0.5798
2478.737 0.6161 0.5643 0.581 0.6629 0.6758 0.5879 0.5646 0.6593 0.7346 0.7618
2498.026 0.6826 0.5849 0.5979 0.5779 0.564 0.5974 0.6384 0.7351 0.6633 0.5167
2517.316 0.5544 0.6178 0.5898 0.5596 0.5633 0.5639 0.5645 0.595 0.6814 0.7557
2536.606 0.7492 0.651 0.6798 0.7356 0.6858 0.6918 0.6891 0.669 0.6797 0.7204
2555.896 0.7622 0.7466 0.6768 0.613 0.6617 0.6681 0.6288 0.6399 0.6144 0.6376
2575.186 0.6024 0.5961 0.6276 0.5486 0.4897 0.4684 0.4875 0.5888 0.5822 0.5531
2594.475 0.6008 0.659 0.6576 0.649 0.6262 0.6024 0.6595 0.6671 0.7354 0.8059
2613.765 0.7513 0.598 0.6194 0.7388 0.6641 0.6587 0.67 0.6352 0.698 0.7368
2633.055 0.7069 0.6704 0.684 0.7462 0.7557 0.6976 0.6771 0.6781 0.761 0.8215
2652.345 0.7795 0.751 0.7557 0.7845 0.774 0.8628 0.9686 0.9622 0.9836 0.9989
2671.634 1.0089 1.0938 1.1829 1.1823 1.151 1.2138 1.2908 1.3213 1.3289 1.343
2690.924 1.393 1.373 1.3209 1.3172 1.3254 1.363 1.3158 1.2487 1.2588 1.3239
2710.214 1.2914 1.2325 1.2656 1.2707 1.3225 1.343 1.373 1.503 1.523 1.483
2729.504 1.513 1.583 1.633 1.723 1.793 1.833 1.823 1.813 1.823 1.873
2748.794 1.913 1.883 1.903 1.913 1.863 1.823 1.833 1.843 1.843 1.813
2768.083 1.853 1.963 1.983 2.043 2.123 2.063 2.113 2.203 2.243 2.353
2787.373 2.413 2.543 2.693 2.763 2.763 2.933 3.063 3.113 3.333 3.423
2806.663 3.453 3.533 3.673 3.923 4.033 4.153 4.293 4.533 4.773 4.883
2825.953 5.123 5.303 5.513 5.673 5.793 5.863 5.953 6.113 6.283 6.583
2845.242 6.973 7.323 7.543 7.923 8.573 9.283 9.923 10.593 11.583 12.743
2864.532 14.053 15.503 17.233 19.263 21.233 23.283 25.443 27.413 28.903 29.973
2883.822 30.683 31.043 31.143 30.943 30.423 29.853 29.273 28.713 28.313 28.163
2903.112 28.293 28.573 28.933 29.293 29.873 30.673 31.523 32.463 33.683 35.153
2922.401 36.673 38.443 40.443 42.613 45.073 47.563 49.853 51.733 52.863 53.333
2941.691 53.323 52.773 51.853 50.653 49.333 48.043 47.043 46.843 47.583 49.243
2960.981 51.743 54.903 58.403 61.823 65.133 68.083 70.293 71.663 72.123 71.593
2980.271 69.943 67.323 64.083 60.423 56.453 52.243 47.933 43.763 39.673 35.743
2999.561 32.053 28.643 25.483 22.583 20.123 17.893 15.953 14.373 13.023 11.883
3018.850 10.833 9.923 9.143 8.533 8.133 7.733 7.233 6.793 6.413 6.043
3038.140 5.703 5.453 5.243 4.953 4.663 4.473 4.323 4.183 4.043 3.923
3057.430 3.893 3.813 3.643 3.613 3.603 3.453 3.293 3.143 3.033 2.973
3076.720 2.853 2.773 2.863 2.893 2.783 2.743 2.843 2.773 2.453 2.323
3096.009 2.333 2.323 2.243 2.173 2.223 2.333 2.293 2.103 2.123 2.233
3115.299 2.213 2.093 1.933 1.923 1.923 1.893 1.943 1.913 1.813 1.773
3134.589 1.703 1.643 1.663 1.733 1.723 1.633 1.603 1.573 1.613 1.623
3153.879 1.603 1.443 1.353 1.523 1.553 1.533 1.553 1.513 1.413 1.423
3173.169 1.483 1.393 1.3185 1.2781 1.214 1.1496 1.0724 0.9959 1.0378 1.0834
3192.458 1.0179 0.8958 0.8493 0.9692 1.0538 0.9874 1.011 1.0099 0.8746 0.8072
3211.748 0.7371 0.7086 0.7417 0.7442 0.7709 0.7969 0.7001 0.6106 0.6069 0.608
3231.038 0.5959 0.4991 0.5658 0.6309 0.5143 0.4886 0.5123 0.4752 0.4846 0.57
3250.328 0.5484 0.4406 0.4907 0.647 0.5715 0.4318 0.36796 0.4466 0.493 0.4981
3269.617 0.6842 0.5844 0.42282 0.5575 0.5252 0.6338 0.7797 0.6903 0.62 0.601
3288.907 0.5608 0.517 0.5897 0.6546 0.7737 0.9316 0.9055 0.8403 0.882 0.9977
3308.197 1.1515 1.2406 1.3175 1.3003 1.3292 1.403 1.413 1.533 1.593 1.523
3327.487 1.483 1.463 1.473 1.423 1.373 1.403 1.473 1.3107 1.0933 0.9777
3346.777 1.0192 1.049 0.8341 0.8006 0.8097 0.6911 0.7337 0.7598 0.5604 0.5219
3366.066 0.4997 0.4669 0.5121 0.5221 0.5283 0.4691 0.38017 0.4486 0.578 0.5392
3385.356 0.497 0.4609 0.4967 0.4839 0.4467 0.5524 0.586 0.4934 0.4417 0.4489
3404.646 0.39996 0.336846 0.39372 0.36347 0.2789 0.2687 0.2433 0.40242 0.4681 0.36361
3423.936 0.3221 0.32317 0.37305 0.40723 0.35691 0.32602 0.35871 0.4463 0.5304 0.4668
3443.225 0.41408 0.4625 0.42201 0.32715 0.40758 0.43216 0.4516 0.36923 0.159 0.2436
3462.515 0.4761 0.5026 0.4346 0.4591 0.5872 0.5493 0.4907 0.5848 0.4985 0.42071
3481.805 0.35244 0.2926 0.2456 0.2679 0.2844 0.3171 0.5048 0.5315 0.4395 0.42132
3501.095 0.36065 0.337719 0.36939 0.259 0.154 0.174 0.3002 0.37194 0.408 0.41083
3520.385 0.40333 0.4781 0.5357 0.5523 0.5338 0.5512 0.4952 0.36387 0.3142 0.2725
3539.674 0.205 0.37156 0.3804 0.191 0.2 0.33035 0.40063 0.3002 0.342376 0.3566
3558.964 0.305 0.37976 0.4854 0.38739 0.146 0.21 0.3215 0.2612 0.36494 0.42958
3578.254 0.2895 0.2697 0.2693 0.2677 0.4341 0.4941 0.37821 0.35614 0.335619 0.34523
3597.544 0.39715 0.39031 0.2538 0.2804 0.4725 0.3044 0.156 0.215 0.2641 0.36821
3616.833 0.2641 0.18 0.224 0.2834 0.340065 0.35609 0.3892 0.40575 0.4344 0.3009
3636.123 0.206 0.2891 0.226 0.212 0.35058 0.3017 0.2492 0.3001 0.2336 0.3089
3655.413 0.2331 0.074 0.189 0.2919 0.2672 0.36391 0.4499 0.38833 0.33316 0.34355
3674.703 0.2863 0.189 0.2621 0.2525 0.35347 0.4884 0.40619 0.42621 0.645 0.5882
3693.993 0.38682 0.38204 0.4685 0.4975 0.37397 0.278 0.2342 0.2368 0.2939 0.36237
3713.282 0.2723 0.2674 0.3443 0.2872 0.199 0.226 0.42856 0.4735 0.455 0.43269
3732.572 0.42757 0.4973 0.492 0.4827 0.506 0.5311 0.5726 0.4643 0.35254 0.38779
3751.862 0.3191 0.2566 0.40582 0.41312 0.335352 0.40517 0.43083 0.2952 0.208 0.3011
3771.152 0.2959 0.2521 0.318 0.42135 0.39179 0.335532 0.4636 0.4069 0.334596 0.4529
3790.441 0.4333 0.2977 0.2815 0.38933 0.4167 0.41954 0.4812 0.503 0.5455 0.6005
3809.731 0.5216 0.40468 0.36424 0.35899 0.359 0.40756 0.35256 0.117 0 0.19
3829.021 0.41478 0.3815 0.2701 0.2438 0.3087 0.334901 0.41577 0.5332 0.35669 0.2475
3848.311 0.32352 0.2601 0.165 0.068 0.096 0.2683 0.3155 0.2944 0.2603 0.2479
3867.601 0.336655 0.3517 0.39756 0.4798 0.5239 0.5189 0.3083 0.225 0.3562 0.39623
3886.890 0.301 0.2686 0.2877 0.33184 0.4353 0.36306 0.2983 0.3131 0.2878 0.38313
3906.180 0.4994 0.4426 0.41817 0.4663 0.38432 0.2496 0.2956 0.341758 0.43202 0.5288
3925.470 0.4514 0.4848 0.4374 0.35336 0.33199 0.36067 0.5282 0.6284 0.5585 0.4857
3944.760 0.42572 0.4427 0.5179 0.4778 0.5019 0.4574 0.4435 0.465 0.37466 0.3919
3964.049 0.5292 0.5884 0.5196 0.4544 0.4669 0.6224 0.6256 0.6185 0.588 0.42082
3983.339 0.4332 0.4631 0.4732 0.5166 0.5293 0.48 0.5501 0.6242 0.6632 0.7754
##END=
