##TITLE=Tillam
##JCAMP-DX=4.24
##DATA TYPE=INFRARED SPECTRUM
##ORIGIN=NIST Mass Spectrometry Data Center
##OWNER=NIST Standard Reference Data Program
Collection (C) 2018 copyright by the U.S. Secretary of Commerce
on behalf of the United States of America. All rights reserved.
##CAS REGISTRY NO=1114-71-2
##MOLFORM=C 10 H 21 N O S
##$NIST SOURCE=MSDC-IR
##SPECTROMETER/DATA SYSTEM=HP-GC/MS/IRD
##STATE=gas
##XUNITS=1/CM
##YUNITS=ABSORBANCE
##XFACTOR=1.0
##YFACTOR=0.000011000
##DELTAX=4.0
##FIRSTX=550.0
##LASTX=3846.0
##FIRSTY=0.000396
##MAXX=3846
##MINX=550
##MAXY=0.11
##MINY=0
##NPOINTS=825
##XYDATA=(X++(Y..Y))
550.0 36 30 26 10 0 9 20 23 17 15
590.0 18 22 29 41 42 40 46 51 54 60
630.0 68 82 99 132 185 266 374 490 594 633
670.0 581 473 354 263 212 184 183 204 225 236
710.0 233 223 206 193 193 208 226 240 250 243
750.0 226 204 177 161 158 168 202 255 319 378
790.0 409 396 351 288 231 195 179 183 204 236
830.0 282 334 385 441 503 561 591 558 476 391
870.0 330 300 306 337 364 375 365 335 295 256
910.0 218 195 181 182 204 246 304 372 438 471
950.0 469 444 409 379 349 314 283 268 260 257
990.0 259 261 259 254 246 232 215 201 198 211
1030.0 228 255 283 304 341 398 463 548 661 790
1070.0 913 1008 1090 1212 1438 1784 2182 2546 2838 3080
1110.0 3290 3397 3252 2802 2165 1540 1076 794 634 534
1150.0 476 451 445 464 511 588 719 918 1188 1517
1190.0 1838 2057 2127 2056 1908 1798 1849 2137 2630 3171
1230.0 3518 3491 3093 2543 2088 1799 1630 1539 1501 1501
1270.0 1515 1505 1453 1369 1265 1156 1059 991 974 999
1310.0 1018 981 891 790 724 708 736 797 879 981
1350.0 1096 1215 1339 1481 1665 1898 2165 2425 2621 2741
1390.0 2819 2873 2853 2677 2344 1942 1566 1264 1043 907
1430.0 851 863 922 1003 1090 1189 1299 1401 1454 1420
1470.0 1293 1080 840 634 489 400 341 299 267 241
1510.0 219 200 185 174 164 153 146 142 136 131
1550.0 128 125 125 127 129 133 137 143 149 156
1590.0 166 175 185 197 212 236 272 322 387 464
1630.0 547 640 760 943 1253 1773 2734 4326 6642 8963
1670.0 10000 9003 6391 3787 2122 1299 892 666 525 429
1710.0 357 301 256 223 196 175 159 146 138 130
1750.0 121 112 104 96 88 82 77 70 63 57
1790.0 51 44 40 38 36 33 30 28 28 26
1830.0 25 25 23 21 21 22 21 21 22 20
1870.0 19 18 17 17 18 18 19 17 15 16
1910.0 14 14 13 12 13 12 11 11 9 7
1950.0 8 7 6 6 5 4 3 5 4 3
1990.0 2 1 2 3 3 4 7 7 9 11
2030.0 12 14 15 14 14 15 15 16 18 18
2070.0 16 17 15 13 15 14 12 12 11 10
2110.0 10 11 10 7 6 4 3 3 4 5
2150.0 5 5 4 5 7 7 6 7 6 7
2190.0 6 8 5 4 5 6 5 7 9 8
2230.0 8 8 7 6 4 1 3 3 2 3
2270.0 3 1 1 3 4 3 3 4 5 5
2310.0 8 10 10 11 13 15 16 14 14 16
2350.0 16 15 14 13 13 14 15 14 12 13
2390.0 13 15 15 14 16 19 20 20 22 20
2430.0 18 17 15 13 14 12 11 9 10 11
2470.0 11 12 13 15 19 17 16 21 22 20
2510.0 22 22 20 18 15 13 12 13 12 13
2550.0 12 12 14 14 13 12 12 14 14 11
2590.0 12 14 13 14 16 19 21 22 25 28
2630.0 27 28 30 32 34 36 40 45 48 52
2670.0 52 54 58 57 58 58 57 57 58 59
2710.0 62 65 66 69 74 82 88 95 107 111
2750.0 112 111 109 110 113 118 125 134 144 156
2790.0 169 182 195 205 217 232 245 263 284 304
2830.0 328 360 401 451 513 599 723 898 1128 1399
2870.0 1672 1921 2144 2283 2282 2144 1946 1809 1788 1864
2910.0 2015 2232 2510 2849 3221 3591 3930 4197 4293 4158
2950.0 3875 3644 3677 4017 4541 4933 4863 4312 3532 2809
2990.0 2232 1754 1361 1060 844 692 583 503 443 398
3030.0 362 330 303 278 254 234 219 203 188 178
3070.0 169 161 151 143 135 127 120 115 112 108
3110.0 105 101 98 96 94 89 87 84 82 84
3150.0 84 79 80 83 79 71 67 62 59 57
3190.0 58 57 52 47 43 38 35 32 29 29
3230.0 26 25 26 28 25 20 21 22 24 25
3270.0 25 24 25 24 25 31 35 37 42 54
3310.0 65 75 82 84 79 66 54 47 45 39
3350.0 34 30 25 25 26 25 22 20 18 18
3390.0 18 16 16 15 16 17 14 14 13 8
3430.0 12 16 15 13 13 15 12 11 13 12
3470.0 10 7 7 9 9 10 10 7 3 3
3510.0 3 6 10 6 5 7 6 5 2 1
3550.0 8 11 12 13 8 7 8 11 10 7
3590.0 9 11 11 11 9 6 7 14 17 17
3630.0 16 16 13 17 14 9 13 14 13 16
3670.0 17 17 19 19 17 16 17 19 19 15
3710.0 12 14 19 21 18 18 15 10 12 18
3750.0 19 22 21 20 25 24 20 21 24 22
3790.0 19 21 19 19 20 22 27 25 21 18
3830.0 19 22 19 21 24
##END=
