##TITLE=cis-4-Methyl-1,4-hexadiene
##JCAMP-DX=4.24
##DATA TYPE=INFRARED SPECTRUM
##ORIGIN=NIST Mass Spectrometry Data Center
##OWNER=NIST Standard Reference Data Program
Collection (C) 2018 copyright by the U.S. Secretary of Commerce
on behalf of the United States of America. All rights reserved.
##CAS REGISTRY NO=1116-90-1
##MOLFORM=C 7 H 12
##$NIST SOURCE=MSDC-IR
##SPECTROMETER/DATA SYSTEM=HP-GC/MS/IRD
##STATE=gas
##XUNITS=1/CM
##YUNITS=ABSORBANCE
##XFACTOR=1.0
##YFACTOR=0.000001000
##DELTAX=4.0
##FIRSTX=550.0
##LASTX=3846.0
##FIRSTY=0.000244
##MAXX=3846
##MINX=550
##MAXY=0.01
##MINY=0
##NPOINTS=825
##XYDATA=(X++(Y..Y))
550.0 244 222 295 294 243 270 272 167 135 319
590.0 446 457 377 440 613 680 639 694 766 651
630.0 531 452 439 361 207 157 91 0 48 109
670.0 131 121 102 127 93 77 118 165 148 137
710.0 116 55 83 127 153 177 166 164 164 129
750.0 113 174 268 378 478 620 755 866 1001 1144
790.0 1285 1405 1553 1679 1898 2149 2284 2173 1883 1680
830.0 1469 1197 1020 860 757 733 714 720 748 780
870.0 831 905 1059 1305 1606 1969 2543 3317 4097 4695
910.0 4985 5047 4849 4351 3616 2910 2300 1831 1554 1390
950.0 1287 1219 1182 1179 1280 1442 1646 1902 2147 2320
990.0 2394 2437 2384 2167 1893 1652 1469 1359 1319 1373
1030.0 1425 1406 1396 1405 1368 1299 1250 1188 1120 1034
1070.0 949 868 792 701 626 618 609 575 599 631
1110.0 597 559 560 529 422 360 333 282 247 277
1150.0 289 274 269 277 291 313 350 374 389 373
1190.0 377 369 324 311 262 228 273 329 426 505
1230.0 554 577 596 611 593 559 532 506 503 516
1270.0 544 553 557 581 588 577 547 512 482 469
1310.0 458 445 460 482 511 554 647 770 862 934
1350.0 993 1045 1116 1193 1304 1475 1620 1732 1810 1861
1390.0 1759 1549 1362 1260 1233 1279 1331 1405 1553 1737
1430.0 1930 2102 2296 2514 2639 2570 2385 2195 2007 1759
1470.0 1539 1308 1099 952 828 763 709 662 629 616
1510.0 627 612 603 581 537 536 554 563 538 524
1550.0 508 469 452 446 450 456 435 439 442 464
1590.0 499 518 575 652 733 821 964 1213 1547 1903
1630.0 2156 2291 2328 2200 1936 1539 1106 776 552 427
1670.0 360 326 283 249 204 160 150 127 129 137
1710.0 122 106 95 94 107 103 70 81 129 133
1750.0 102 71 63 84 88 94 105 108 112 118
1790.0 143 161 183 242 309 354 411 498 566 613
1830.0 626 607 578 516 433 346 287 243 199 163
1870.0 142 144 122 106 115 106 83 80 75 88
1910.0 103 89 88 73 69 62 36 41 50 43
1950.0 39 48 58 76 89 72 53 60 71 62
1990.0 45 59 47 29 30 36 47 49 60 56
2030.0 47 34 31 45 41 32 40 44 36 15
2070.0 19 54 57 47 35 26 12 19 15 5
2110.0 28 37 33 45 51 55 52 40 28 25
2150.0 39 49 42 35 42 54 37 22 22 21
2190.0 44 61 55 48 43 39 29 14 13 37
2230.0 52 21 1 17 36 28 30 33 36 39
2270.0 21 32 33 32 40 41 45 50 42 35
2310.0 56 74 74 65 52 26 16 26 41 37
2350.0 38 59 67 56 46 59 73 57 60 83
2390.0 75 58 69 94 89 79 101 103 98 102
2430.0 96 107 110 95 84 77 78 78 80 83
2470.0 85 102 92 64 80 83 86 90 72 94
2510.0 109 94 94 114 116 100 112 106 98 132
2550.0 133 122 118 122 116 92 103 137 98 49
2590.0 84 110 107 128 109 96 110 105 84 92
2630.0 119 121 107 88 96 104 126 137 142 133
2670.0 143 156 152 175 185 180 204 227 250 276
2710.0 288 311 349 383 411 459 500 505 474 474
2750.0 483 458 426 402 390 375 386 402 439 475
2790.0 503 560 617 675 749 834 929 1053 1180 1316
2830.0 1550 1820 2083 2402 2806 3265 3766 4324 4816 5190
2870.0 5458 5679 5852 5962 6040 6120 6228 6468 6844 7307
2910.0 7885 8505 9110 9566 9856 10000 9938 9681 9177 8368
2950.0 7563 7074 6936 7125 7505 7847 8126 8190 8119 7836
2990.0 7143 6417 5840 5401 5047 4844 4725 4614 4599 4523
3030.0 4363 4243 4109 3868 3588 3328 3067 2875 2781 2807
3070.0 2927 3189 3383 3454 3542 3264 2853 2455 1937 1498
3110.0 1221 1014 836 739 669 599 571 518 440 396
3150.0 390 398 367 358 339 281 220 180 207 206
3190.0 211 215 233 261 227 179 180 198 155 201
3230.0 235 189 163 134 145 191 204 177 190 196
3270.0 182 168 163 169 139 123 127 136 140 105
3310.0 130 164 178 160 104 119 147 140 149 128
3350.0 141 138 107 135 154 118 117 181 139 78
3390.0 95 84 81 103 104 79 106 144 141 117
3430.0 135 155 130 137 118 100 108 119 147 149
3470.0 104 70 85 128 132 139 159 124 126 113
3510.0 126 164 147 138 117 97 122 118 111 143
3550.0 163 124 96 101 93 104 99 78 112 94
3590.0 10 26 71 51 68 118 85 78 129 101
3630.0 71 72 125 110 46 58 60 84 102 60
3670.0 8 34 75 57 69 122 150 145 172 152
3710.0 62 34 94 85 30 49 77 127 147 165
3750.0 191 144 73 55 122 167 137 135 133 63
3790.0 60 71 44 87 115 76 108 173 149 118
3830.0 129 161 163 118 107
##END=
