##TITLE=3-Chlorooctane
##JCAMP-DX=4.24
##DATA TYPE=INFRARED SPECTRUM
##ORIGIN=NIST Mass Spectrometry Data Center
##OWNER=NIST Standard Reference Data Program
Collection (C) 2018 copyright by the U.S. Secretary of Commerce
on behalf of the United States of America. All rights reserved.
##CAS REGISTRY NO=1117-79-9
##MOLFORM=C 8 H 17 Cl
##$NIST SOURCE=MSDC-IR
##SPECTROMETER/DATA SYSTEM=HP-GC/MS/IRD
##STATE=gas
##XUNITS=1/CM
##YUNITS=ABSORBANCE
##XFACTOR=1.0
##YFACTOR=0.000003600
##DELTAX=4.0
##FIRSTX=550.0
##LASTX=3846.0
##FIRSTY=0.000580
##MAXX=3846
##MINX=550
##MAXY=0.036
##MINY=0
##NPOINTS=825
##XYDATA=(X++(Y..Y))
550.0 161 86 42 35 18 18 11 1 31 62
590.0 60 96 138 173 226 255 261 263 255 235
630.0 225 240 245 255 287 323 354 387 419 417
670.0 405 382 319 255 201 151 120 106 97 105
710.0 123 142 185 220 257 281 274 264 248 226
750.0 201 180 188 204 210 215 227 246 270 308
790.0 343 373 415 459 495 515 538 519 467 408
830.0 352 324 330 335 349 379 405 430 464 485
870.0 488 477 473 468 441 419 400 370 335 290
910.0 254 212 169 143 126 120 108 101 103 114
950.0 128 148 169 175 176 174 164 154 131 107
990.0 92 77 77 81 78 77 66 66 73 73
1030.0 80 89 96 98 91 96 106 113 124 128
1070.0 130 139 148 147 139 146 166 162 157 157
1110.0 158 168 171 176 183 179 188 203 194 168
1150.0 136 113 102 92 80 71 84 106 123 149
1190.0 169 186 206 215 233 263 308 372 437 497
1230.0 542 580 585 566 527 468 413 385 372 377
1270.0 397 431 480 531 586 649 694 710 711 693
1310.0 661 624 576 525 497 475 452 440 422 401
1350.0 384 369 365 372 389 420 483 570 653 699
1390.0 665 555 435 343 293 269 270 286 327 387
1430.0 469 583 716 859 1019 1182 1337 1473 1532 1491
1470.0 1346 1123 881 666 499 375 297 245 201 173
1510.0 150 130 117 112 104 92 85 79 77 70
1550.0 65 69 68 65 64 62 57 52 50 50
1590.0 44 38 41 41 40 38 36 31 35 39
1630.0 37 34 28 28 31 33 27 28 33 29
1670.0 27 27 27 22 18 19 19 21 20 16
1710.0 16 13 12 13 13 16 18 17 12 12
1750.0 12 12 11 8 11 11 12 11 10 5
1790.0 2 7 8 6 4 6 9 13 18 20
1830.0 15 11 12 9 7 10 8 9 12 9
1870.0 9 7 6 5 6 13 12 9 11 5
1910.0 4 5 6 8 13 14 9 3 5 4
1950.0 4 11 7 5 12 11 11 13 11 6
1990.0 6 11 10 6 8 12 13 9 10 15
2030.0 17 17 18 18 19 15 10 15 16 16
2070.0 18 13 11 15 18 17 14 15 15 7
2110.0 0 0 5 7 4 2 5 8 6 7
2150.0 10 10 7 8 13 14 12 10 5 7
2190.0 12 13 13 10 8 11 13 10 5 5
2230.0 9 7 5 3 7 11 13 15 13 15
2270.0 19 19 17 16 15 24 28 20 19 18
2310.0 22 26 23 28 36 34 31 32 32 37
2350.0 36 35 35 34 40 38 35 34 33 46
2390.0 46 37 39 37 38 44 48 47 43 41
2430.0 44 45 40 38 38 32 36 38 33 32
2470.0 34 36 39 39 40 46 50 47 39 41
2510.0 43 44 50 47 46 56 60 58 58 56
2550.0 58 64 64 67 72 72 76 77 76 76
2590.0 79 84 81 79 80 79 80 79 75 81
2630.0 87 94 98 97 98 105 115 119 123 133
2670.0 142 138 136 139 141 142 141 140 145 144
2710.0 148 159 159 163 174 187 199 210 217 226
2750.0 233 228 221 225 230 236 246 261 274 290
2790.0 312 335 359 385 415 450 497 544 595 668
2830.0 763 880 1045 1262 1540 1886 2283 2708 3108 3434
2870.0 3673 3847 3991 4066 4054 3959 3827 3772 3869 4150
2910.0 4596 5158 5831 6595 7380 8143 8878 9509 9912 10000
2950.0 9770 9339 8959 8847 8874 8716 8137 7048 5664 4348
2990.0 3275 2490 1914 1491 1205 1007 864 766 704 643
3030.0 580 529 487 449 416 397 378 363 350 338
3070.0 330 324 310 294 278 268 261 247 233 220
3110.0 219 211 193 181 177 163 158 159 150 151
3150.0 150 151 151 142 135 127 129 134 124 118
3190.0 118 109 101 106 103 89 73 70 79 74
3230.0 60 57 53 43 47 59 63 51 43 41
3270.0 31 31 39 36 40 43 35 34 35 32
3310.0 37 41 42 38 36 35 28 28 35 25
3350.0 16 32 39 43 42 28 19 24 33 31
3390.0 26 26 23 23 19 13 17 21 21 12
3430.0 11 18 26 21 14 20 28 27 24 25
3470.0 32 23 10 6 7 15 11 3 5 12
3510.0 13 15 20 20 11 8 15 24 21 18
3550.0 16 17 20 21 23 21 17 18 25 31
3590.0 31 29 34 36 31 25 24 32 32 34
3630.0 39 46 54 48 41 37 37 34 30 39
3670.0 40 38 38 39 37 41 47 35 35 42
3710.0 45 49 47 52 48 29 43 47 36 38
3750.0 43 37 31 35 41 52 51 55 55 49
3790.0 46 41 35 34 44 53 54 51 52 51
3830.0 50 54 59 58 55
##END=
