##TITLE=6-Heptenoic acid
##JCAMP-DX=4.24
##DATA TYPE=INFRARED SPECTRUM
##ORIGIN=EPA-IR VAPOR PHASE LIBRARY
##OWNER=SRD/NIST
Collection (C) 2018 copyright by the U.S. Secretary of Commerce
on behalf of the United States of America. All rights reserved.
##CAS REGISTRY NO=1119-60-4
##MOLFORM=C 7 H 12 O 2
##$NIST SOURCE=MSDC-IR
##STATE=gas
##XUNITS=1/CM
##YUNITS=ABSORBANCE
##XFACTOR=1.
##YFACTOR=0.001
##DELTAX=1.92898
##FIRSTX=549.8
##LASTX=4000.7
##FIRSTY=19.051
##MAXX=4000.7
##MINX=549.759
##MAXY=0.127931
##MINY=0
##NPOINTS=1790
##XYDATA=(X++(Y..Y))
549.759 19.051 19.431 19.841 20.321 20.871 21.541 21.631 21.631 21.951 21.471
569.049 20.421 20.191 20.261 20.931 21.541 21.341 21.671 21.791 21.841 22.361
588.339 22.811 23.101 23.161 23.131 23.891 24.641 24.661 24.491 24.341 24.661
607.628 24.531 24.371 24.201 23.861 24.121 23.751 23.431 23.381 23.331 23.011
626.918 22.361 22.281 21.561 20.611 19.991 18.881 17.791 16.931 16.101 15.471
646.208 14.681 13.511 13.141 12.951 12.501 11.641 10.901 10.601 9.821 9.651
665.498 9.611 9.391 9.181 8.641 8.411 8.611 8.621 8.101 7.551 7.341
684.787 7.381 7.391 7.411 7.521 7.481 7.301 7.141 7.071 7.011 7.141
704.077 7.561 7.311 6.881 7.081 7.281 7.181 6.991 6.591 6.431 7.121
723.367 7.281 6.851 6.731 6.851 7.431 7.591 7.711 7.851 7.881 8.201
742.657 8.201 8.051 7.921 7.551 6.781 6.441 6.851 7.331 6.801 5.691
761.947 5.331 5.071 4.261 3.931 4.011 3.711 3.871 4.191 3.631 3.261
781.236 3.431 3.301 3.281 3.561 3.261 2.931 3.131 3.311 3.301 3.121
800.526 3.001 3.111 2.791 2.761 2.821 3.031 3.551 3.131 2.921 4.101
819.816 5.151 3.741 2.431 2.351 2.491 2.811 3.251 3.791 3.791 3.511
839.106 3.161 3.321 3.561 3.741 3.911 3.931 4.241 4.561 4.431 4.251
858.395 4.281 4.761 5.021 5.181 5.201 5.131 5.271 5.351 5.901 6.601
877.685 6.921 6.621 6.741 7.261 7.181 7.371 8.081 8.581 9.141 9.981
896.975 10.871 11.751 12.551 13.731 15.491 17.271 18.911 20.331 21.121 21.611
916.265 22.021 21.551 20.651 19.731 18.251 16.491 14.931 13.311 12.111 11.221
935.555 10.111 9.461 9.461 9.101 8.491 8.491 8.231 7.531 7.251 7.291
954.844 7.041 6.331 6.161 6.431 6.611 7.021 7.121 7.321 7.611 7.781
974.134 8.201 8.651 9.091 9.601 10.301 11.001 11.831 12.851 13.361 13.761
993.424 14.391 14.191 13.891 13.841 13.461 12.591 12.041 12.211 12.271 12.251
1012.714 12.081 12.171 12.701 12.831 12.651 12.451 12.681 13.541 14.461 14.331
1032.003 13.951 14.121 14.601 15.271 15.501 15.921 15.981 16.481 17.151 17.281
1051.293 17.311 17.001 17.741 18.991 19.241 19.161 19.891 21.201 22.061 23.041
1070.583 23.591 24.121 25.231 27.401 28.661 29.531 32.441 34.111 36.421 38.861
1089.873 41.321 43.861 45.411 47.361 49.771 52.021 54.251 56.431 57.721 59.611
1109.163 61.601 63.331 63.721 65.011 66.841 67.331 69.611 70.081 68.521 68.811
1128.452 67.941 66.391 65.391 64.051 61.931 58.461 55.611 53.931 51.101 48.021
1147.742 45.891 43.921 41.351 38.631 37.061 35.561 33.921 32.431 31.191 30.541
1167.032 29.881 28.281 26.941 26.371 25.501 24.851 23.661 22.261 23.161 23.511
1186.322 22.341 22.491 22.051 21.291 20.801 19.671 19.371 18.851 17.781 18.401
1205.611 18.361 17.021 15.631 14.421 14.091 13.961 14.721 15.191 13.931 12.151
1224.901 12.251 13.001 12.211 11.061 10.821 10.941 10.601 10.551 10.541 10.781
1244.191 11.361 10.971 10.601 10.691 10.481 10.611 11.231 11.231 10.721 10.531
1263.481 10.801 10.581 10.251 10.551 10.631 10.851 11.001 10.711 10.751 11.021
1282.771 11.071 11.071 10.921 10.831 10.901 10.621 10.221 10.301 10.361 10.251
1302.060 10.141 10.131 9.941 9.691 9.631 9.521 9.421 9.351 9.301 9.361
1321.350 9.361 9.521 9.741 9.651 9.651 9.901 10.301 10.831 11.271 11.541
1340.640 12.061 12.541 12.931 13.241 13.701 14.161 14.651 15.131 15.491 15.911
1359.930 16.371 16.891 17.271 17.561 17.771 17.971 18.361 18.691 18.951 19.121
1379.219 19.151 19.121 18.901 18.561 17.911 17.101 16.261 15.431 14.511 13.641
1398.509 12.801 11.861 11.211 10.881 10.451 10.031 9.901 9.851 9.771 9.891
1417.799 10.121 10.161 10.151 10.291 10.551 10.621 10.731 10.801 11.001 11.361
1437.089 11.531 11.641 11.751 11.771 11.911 12.061 11.971 11.901 11.801 11.591
1456.378 11.411 11.051 10.481 9.941 9.501 8.901 8.101 7.341 6.731 6.161
1475.668 5.581 5.081 4.681 4.411 4.051 3.681 3.451 3.321 3.081 2.931
1494.958 3.031 2.781 2.371 2.131 2.231 2.461 2.271 2.201 2.231 2.041
1514.248 1.981 1.911 1.871 1.961 1.941 1.891 1.931 1.991 1.871 1.7013
1533.538 1.7634 1.941 2.031 2.031 1.921 1.7851 1.841 1.8025 1.951 2.001
1552.827 1.881 1.951 1.7998 1.7701 1.7112 1.5101 1.4207 1.5324 1.7381 1.7244
1572.117 1.6094 1.5286 1.7803 1.7464 1.6173 1.6752 1.5752 1.6367 1.5935 1.6707
1591.407 1.951 1.841 1.7607 1.901 1.931 1.971 2.181 2.401 2.371 2.381
1610.697 2.491 2.691 2.971 3.301 3.591 4.041 4.431 4.791 5.271 5.841
1629.986 6.651 7.461 8.121 8.761 9.261 9.381 9.411 9.291 9.001 8.311
1649.276 7.461 6.841 5.921 4.851 4.161 3.751 3.551 3.441 3.181 2.951
1668.566 2.831 2.771 2.801 2.931 2.981 2.921 2.911 2.901 2.971 3.261
1687.856 3.451 3.361 3.391 3.641 3.901 4.111 4.401 4.621 4.831 5.131
1707.146 5.571 6.201 6.661 7.111 7.771 8.411 9.301 10.231 11.221 12.511
1726.435 13.741 15.161 16.901 18.481 20.401 22.761 25.121 27.781 30.851 34.251
1745.725 37.711 41.501 45.811 50.361 55.141 60.471 66.421 72.821 80.031 87.731
1765.015 95.461 103.201 110.681 117.071 122.501 126.241 127.931 127.781 125.881 122.241
1784.305 116.711 109.391 101.181 92.861 84.491 76.361 68.671 61.491 55.001 49.021
1803.594 43.671 38.951 34.631 30.651 27.101 23.871 21.131 18.641 16.641 14.961
1822.884 13.321 12.031 11.071 10.271 9.451 8.691 7.931 7.151 6.561 6.191
1842.174 5.821 5.321 4.941 4.601 4.221 3.951 3.801 3.591 3.341 3.071
1861.464 2.931 2.861 2.691 2.501 2.351 2.271 2.241 2.241 2.221 2.161
1880.754 2.101 2.041 2.041 2.101 2.171 2.121 2.121 2.041 1.991 2.001
1900.043 1.871 1.789 1.831 1.841 1.841 1.8062 1.7463 1.7133 1.674 1.7564
1919.333 1.7943 1.4776 1.3202 1.4968 1.547 1.6228 1.5892 1.6296 1.6488 1.5939
1938.623 1.6166 1.6615 1.6629 1.4808 1.3345 1.449 1.537 1.5365 1.6963 1.5741
1957.913 1.4445 1.4567 1.3527 1.3973 1.5187 1.5841 1.5405 1.4963 1.551 1.5429
1977.202 1.6607 1.7439 1.5427 1.4161 1.559 1.5029 1.3589 1.4594 1.448 1.3223
1996.492 1.2516 1.2819 1.3869 1.3986 1.4119 1.3292 1.1061 1.1977 1.2592 1.2128
2015.782 1.3908 1.4244 1.4179 1.4709 1.3595 1.2646 1.289 1.2915 1.3281 1.2441
2035.072 1.1792 1.2541 1.3162 1.1951 1.2218 1.3185 1.2316 1.1689 1.08 1.1119
2054.362 1.2587 1.2951 1.2545 1.2584 1.0519 1.0143 1.0483 1.0633 1.1784 1.0608
2073.651 0.92553 0.9801 1.099 1.1033 0.9953 0.89508 1.0002 1.092 1.0301 1.0316
2092.941 0.9763 0.9476 1.0371 0.9719 0.9928 1.1128 1.0717 0.9312 1.0097 1.1507
2112.231 1.0679 1.1003 1.0463 1.0096 1.2392 1.2095 1.0387 1.1753 1.2122 1.1301
2131.521 1.1757 1.1919 1.1684 1.2176 1.1862 1.1307 1.3217 1.3925 1.238 1.1533
2150.810 1.1019 1.143 1.2836 1.2778 1.2777 1.4192 1.3531 1.1977 1.1798 1.2261
2170.100 1.1911 1.436 1.6118 1.3735 1.3478 1.2626 1.2128 1.2559 1.2857 1.4499
2189.390 1.3599 1.2046 1.2797 1.3554 1.2933 1.225 1.3673 1.4482 1.4446 1.4868
2208.680 1.3817 1.3002 1.3026 1.3693 1.3519 1.274 1.1964 1.1542 1.27 1.2844
2227.970 1.3589 1.3447 1.2272 1.4332 1.5979 1.561 1.4375 1.4057 1.318 1.2197
2247.259 1.3862 1.4541 1.5016 1.4314 1.3239 1.1682 1.1612 1.3454 1.3849 1.2201
2266.549 0.9966 1.1139 1.0803 0.9641 1.0957 1.1003 0.9985 0.9434 1.0468 1.0614
2285.839 1.0743 1.1335 1.1301 1.3412 1.301 1.0979 1.2468 1.3075 1.199 1.201
2305.129 1.3086 1.2168 0.92436 0.9159 1.2491 1.338 1.126 1.1778 1.2551 1.1761
2324.418 1.2483 1.4198 1.3885 1.2841 1.0964 1.0618 1.2605 1.3202 1.1695 1.0953
2343.708 1.1613 1.2644 1.1218 1.0373 1.1799 1.1993 1.0687 1.0457 1.0186 0.91892
2362.998 1.1835 1.2321 1.0467 1.0895 1.092 1.1183 1.2996 1.101 1.1254 1.2331
2382.288 1.1659 1.142 1.1189 1.2512 1.2085 1.1233 1.0542 1.1154 1.3431 1.231
2401.578 1.0682 1.1635 1.1567 1.0291 0.9729 1.0776 1.1906 1.2227 1.0838 1.1374
2420.867 1.1547 1.1492 1.301 1.1463 1.0248 0.9913 0.9422 1.1429 1.2335 0.9839
2440.157 0.89269 1.1175 1.1707 0.9896 0.84373 0.8239 0.9413 1.0402 1.1023 1.2277
2459.447 1.1033 1.0407 1.0806 0.91802 0.9007 0.9593 0.9768 0.92431 0.9643 0.86885
2478.737 0.7761 1.0192 1.1074 1.0178 1.0643 1.0673 1.0981 1.101 1.0958 1.1198
2498.026 1.0917 1.0028 1.0214 1.0429 1.0201 1.0149 0.90525 0.9873 1.0058 1.059
2517.316 1.1298 0.9776 1.0608 1.2714 1.2659 1.0746 1.0189 0.9846 0.82577 0.984
2536.606 1.1909 1.0241 0.91636 1.0299 1.043 1.1117 1.0202 1.0138 1.2787 1.2192
2555.896 0.84408 0.8027 0.89402 0.7533 0.637 0.92002 1.2187 1.2548 1.3048 1.2674
2575.186 1.0604 0.9748 1.1574 1.1462 1.1718 1.0604 0.85267 0.9781 1.0142 0.9354
2594.475 1.0454 1.3976 1.3617 1.0296 0.9808 1.253 1.3298 1.0397 1.1145 1.273
2613.765 1.1432 1.0086 0.9612 0.9468 0.9782 1.1075 1.0685 0.92648 1.0657 1.2383
2633.055 1.084 1.0333 1.3029 1.4368 1.2558 1.3319 1.4604 1.3838 1.5596 1.576
2652.345 1.3491 1.1923 0.9949 0.91359 1.2527 1.5847 1.5585 1.4817 1.4604 1.3549
2671.634 1.3859 1.4625 1.2974 1.0676 1.2552 1.3825 1.2672 1.2695 1.3664 1.354
2690.924 1.1591 1.1664 1.5161 1.649 1.5253 1.4789 1.4508 1.3617 1.4111 1.6486
2710.214 1.8013 1.5751 1.4093 1.4552 1.4834 1.3336 1.3799 1.7046 1.6213 1.4818
2729.504 1.2908 1.2818 1.358 1.3249 1.4842 1.6346 1.4566 1.4636 1.7375 1.54
2748.794 1.4018 1.6219 1.6771 1.6821 1.7059 1.695 1.5919 1.4522 1.4123 1.4389
2768.083 1.3968 1.4721 1.5465 1.831 2.051 1.8272 1.6371 1.6864 1.841 1.7719
2787.373 1.6822 1.6985 1.921 2.231 2.301 2.011 1.881 2.001 2.141 2.401
2806.663 2.501 2.641 2.521 2.421 2.701 2.931 2.941 2.801 3.271 3.841
2825.953 4.031 4.491 4.801 5.031 5.331 5.371 5.901 6.821 7.491 8.011
2845.242 8.701 9.631 10.641 11.031 11.461 12.681 13.481 14.031 15.021 15.491
2864.532 15.821 16.401 16.601 16.641 16.601 16.621 16.621 16.551 16.411 15.951
2883.822 15.451 15.181 15.081 14.921 14.811 14.921 15.331 15.921 16.251 16.911
2903.112 18.101 19.501 20.641 22.061 23.741 25.481 27.171 28.721 30.771 32.861
2922.401 34.691 36.551 38.711 40.631 42.151 43.691 45.091 45.931 46.491 47.021
2941.691 46.971 46.261 45.721 44.701 43.101 41.521 39.731 37.791 35.771 33.821
2960.981 31.901 29.671 27.851 26.431 24.841 23.291 22.191 21.141 20.311 19.581
2980.271 18.771 18.241 17.541 17.251 16.981 16.481 15.611 14.841 14.551 14.091
2999.561 13.511 13.221 13.041 12.211 11.451 11.061 10.491 10.121 9.731 8.911
3018.850 8.051 7.461 7.021 6.471 6.201 5.931 5.561 5.371 5.031 5.091
3038.140 5.381 5.181 4.851 4.961 4.901 4.821 5.011 5.061 5.111 5.551
3057.430 5.881 5.771 6.021 6.211 6.531 7.231 7.711 8.081 8.611 9.021
3076.720 9.751 11.201 12.441 12.941 13.171 13.111 12.581 12.211 11.771 10.811
3096.009 9.371 7.561 6.181 5.421 4.741 4.271 3.931 3.971 3.601 2.851
3115.299 2.631 2.691 2.741 2.341 2.241 2.391 2.231 2.041 2.111 2.071
3134.589 1.5779 1.3013 1.4574 1.4588 1.2622 1.2886 1.668 1.6233 1.4361 1.6764
3153.879 1.6104 1.3788 1.2822 1.1704 1.3441 1.5905 1.4574 1.2767 1.354 1.391
3173.169 1.4454 1.3467 1.4588 1.643 1.3347 0.92179 1.0657 1.3648 1.4949 1.6834
3192.458 1.3816 1.1859 1.0834 0.84105 0.757 0.92568 1.3699 1.5001 1.4236 1.548
3211.748 1.4258 0.93024 0.687 0.7376 0.85769 0.995 0.9496 1.1964 1.0066 0.583
3231.038 0.84289 0.8552 0.693 0.86517 0.839318 0.84478 1.1127 1.0451 0.92436 1.1426
3250.328 0.92781 0.456 0.534 0.722 0.7587 1.1241 1.0057 0.689 0.705 0.464
3269.617 0.499 0.536 0.496 0.697 1.0511 1.0084 0.716 0.509 0.7312 1.0497
3288.907 1.0872 1.0746 0.785 0.617 0.728 0.90657 0.92314 0.9372 1.0171 1.1983
3308.197 1.1051 0.685 0.666 0.28 0.186 0.557 0.7675 1.4129 1.3949 1.1318
3327.487 0.88092 0.446 0.626 0.88062 0.9883 1.074 0.636 0.7928 1.1533 1.0307
3346.777 0.840631 0.572 0.7842 0.89488 0.54 0.571 0.548 0.478 0.943 0.8182
3366.066 0.497 0.359 0.435 0.8759 0.9401 0.7649 0.7594 0.409 0.337 0.7602
3385.356 0.7976 1.2604 1.2159 0.729 0.89367 1.095 0.88625 0.354 0.51 0.6
3404.646 0.646 1.133 1.1406 0.92309 0.718 0.669 0.7377 0.604 0.769 0.7989
3423.936 0.684 0.86883 1.2827 1.1205 0.7887 0.628 0.585 0.712 0.455 0.476
3443.225 0.9461 0.7867 0 0.183 0.516 0.641 0.88802 1.0306 1.1561 0.7487
3462.515 0.577 0.7588 0.8039 0.684 1.0455 1.459 1.2082 1.2737 1.3674 1.0111
3481.805 0.91992 1.1178 1.3855 1.43 1.3378 1.3628 1.259 1.0955 1.1316 1.1027
3501.095 1.2546 1.961 2.241 2.191 2.251 1.8086 1.5346 1.941 2.011 1.901
3520.385 2.291 2.501 2.491 3.071 3.211 2.761 2.631 2.911 3.211 3.221
3539.674 3.281 3.761 4.221 4.531 5.441 6.121 6.811 7.951 9.021 10.571
3558.964 12.631 15.991 20.541 26.621 34.051 41.051 45.811 47.821 48.101 47.461
3578.254 46.351 44.121 38.961 30.971 23.471 17.481 13.111 10.391 8.661 7.131
3597.544 5.751 4.921 4.291 3.911 3.751 3.731 3.361 3.111 2.681 2.221
3616.833 1.931 1.6322 1.861 1.7894 1.5678 1.6128 1.7513 1.921 1.971 1.8025
3636.123 1.5726 1.2587 1.3207 1.5905 1.729 1.5421 1.3262 1.2913 1.2972 1.3099
3655.413 1.1457 1.0935 1.1368 1.4281 1.2164 0.533 0.519 1.1494 1.354 1.1117
3674.703 1.2225 1.5551 1.5943 1.197 1.0211 1.216 1.2341 1.2462 1.6222 1.6353
3693.993 1.258 1.0383 0.9737 0.9895 1.2549 1.3724 0.9989 1.1335 0.9336 0.705
3713.282 1.0544 0.79 0.7337 0.693 0.815 0.91909 0.625 0.8024 0.7 0.661
3732.572 1.1076 1.2826 0.9537 0.713 0.555 0.7366 0.87558 0.603 0.8115 0.7508
3751.862 0.637 0.459 0.581 0.91159 0.86305 0.83188 0.85225 0.7776 0.7458 0.9725
3771.152 0.92193 0.687 0.474 0.654 0.549 0.715 1.1209 0.830138 0.604 0.684
3790.441 1.0515 1.1316 0.7522 0.654 0.87124 1.1084 1.1872 0.9314 0.8113 0.7752
3809.731 0.84754 1.2501 1.2723 0.85674 0.609 0.254 0.212 0.5 0.7734 0.86141
3829.021 0.86497 1.0576 1.1875 0.91077 0.594 0.7859 0.443 0.292 0.531 0.90448
3848.311 0.7676 0.506 0.9444 0.89216 0.7357 1.0277 1.0476 0.7406 0.8033 0.834968
3867.601 0.699 0.652 0.631 0.621 0.89891 0.9945 0.747 0.986 1.0783 0.601
3886.890 0.452 0.53 0.88645 1.2621 1.3756 1.2981 1.2204 1.1514 1.0867 1.1605
3906.180 0.90037 0.9359 0.92321 0.9696 1.2934 0.89906 0.513 0.88008 1.191 0.688
3925.470 0.348 0.84563 0.90828 0.596 0.668 0.9676 1.3018 0.9769 0.582 0.376
3944.760 0.398 0.86407 1.388 1.2566 0.9119 0.834169 0.7771 0.728 0.53 0.85755
3964.049 0.8017 0.684 1.2378 1.5737 1.1907 0.492 0.474 1.2108 1.519 0.7738
3983.339 0.9389 1.3425 0.613 0.382 0.91895 1.0432 0.89552 0.7546 0.85231 1.0825
##END=
