##TITLE=Elaidic acid
##JCAMP-DX=4.24
##DATA TYPE=INFRARED SPECTRUM
##ORIGIN=EPA-IR VAPOR PHASE LIBRARY
##OWNER=SRD/NIST
Collection (C) 2018 copyright by the U.S. Secretary of Commerce
on behalf of the United States of America. All rights reserved.
##CAS REGISTRY NO=112-79-8
##MOLFORM=C 18 H 34 O 2
##$NIST SOURCE=MSDC-IR
##STATE=gas
##XUNITS=1/CM
##YUNITS=ABSORBANCE
##XFACTOR=1.
##YFACTOR=0.001
##DELTAX=3.85796
##FIRSTX=501.5
##LASTX=4000.7
##FIRSTY=1.429
##MAXX=4000.7
##MINX=501.534
##MAXY=0.065869
##MINY=0
##NPOINTS=908
##XYDATA=(X++(Y..Y))
501.534 1.429 1.529 1.719 1.759 1.799 1.969 2.149 2.229 2.379 2.589
540.114 2.789 3.029 3.289 3.549 3.749 3.889 3.929 3.949 3.899 3.879
578.693 3.999 4.009 4.129 4.299 4.459 4.549 4.549 4.539 4.519 4.529
617.273 4.399 4.189 4.039 3.899 3.709 3.359 3.009 2.729 2.499 2.249
655.852 1.999 1.919 1.809 1.639 1.599 1.579 1.549 1.559 1.599 1.599
694.432 1.609 1.669 1.759 1.849 1.959 2.089 2.209 2.239 2.149 2.019
733.011 1.869 1.769 1.639 1.509 1.439 1.399 1.319 1.229 1.1519 1.0994
771.591 1.0359 0.9961 0.9783 0.9624 0.9094 0.8063 0.7761 0.7484 0.7082 0.6933
810.170 0.6535 0.656 0.6854 0.8529 0.8944 0.7573 0.718 0.6995 0.6965 0.7124
848.750 0.7229 0.739 0.7641 0.7656 0.792 0.8257 0.786 0.7624 0.8051 0.8524
887.330 0.8785 0.9007 0.905 0.9321 0.9314 0.8907 0.8836 0.8907 0.9259 1.0072
925.909 1.0639 1.084 1.1574 1.319 1.539 1.789 2.179 2.819 3.749 4.909
964.489 5.819 5.799 4.859 3.749 2.979 2.499 2.179 1.999 1.889 1.879
1003.068 1.929 1.959 2.009 2.059 2.099 2.189 2.309 2.499 2.669 2.779
1041.648 2.989 3.309 3.669 4.039 4.519 5.029 5.509 6.079 6.739 7.359
1080.227 7.859 8.369 8.809 9.179 9.559 10.039 10.789 11.679 12.479 13.189
1118.807 13.669 13.669 13.249 12.539 11.599 10.609 9.739 8.979 8.319 7.789
1157.387 7.259 6.849 6.539 6.199 5.839 5.529 5.259 4.959 4.609 4.269
1195.966 4.009 3.729 3.469 3.249 3.139 3.099 2.959 2.739 2.519 2.379
1234.546 2.389 2.449 2.449 2.409 2.419 2.459 2.489 2.569 2.569 2.609
1273.125 2.659 2.669 2.699 2.699 2.719 2.759 2.799 2.859 2.899 2.899
1311.705 2.859 2.809 2.779 2.809 2.919 3.099 3.349 3.649 3.999 4.319
1350.284 4.559 4.659 4.659 4.639 4.649 4.659 4.669 4.649 4.589 4.339
1388.864 3.879 3.399 2.959 2.609 2.359 2.199 2.119 2.119 2.219 2.419
1427.443 2.679 3.009 3.459 4.049 4.609 5.009 5.339 5.629 5.829 5.729
1466.023 5.179 4.349 3.409 2.579 1.959 1.529 1.249 1.0754 0.9196 0.7909
1504.603 0.7022 0.6083 0.5602 0.5323 0.4759 0.4532 0.4426 0.3946 0.3474 0.3253
1543.182 0.3256 0.3192 0.3234 0.3207 0.2952 0.2936 0.301 0.2956 0.2814 0.27737
1581.762 0.285 0.2802 0.26965 0.26238 0.26293 0.25448 0.26311 0.27464 0.26674 0.26529
1620.341 0.25645 0.25231 0.26765 0.26937 0.27719 0.297 0.2883 0.2894 0.3174 0.3287
1658.921 0.3528 0.3958 0.4342 0.4588 0.4758 0.502 0.533 0.593 0.665 0.7431
1697.500 0.843 0.9626 1.1034 1.289 1.509 1.799 2.189 2.669 3.259 3.969
1736.080 4.859 5.929 7.209 8.629 10.289 12.159 14.349 17.009 20.049 23.159
1774.659 25.419 25.549 23.359 19.969 16.659 13.819 11.459 9.349 7.489 5.879
1813.239 4.519 3.469 2.679 2.089 1.659 1.359 1.1134 0.9435 0.8217 0.7072
1851.819 0.625 0.5698 0.5125 0.4683 0.4357 0.4017 0.3658 0.3448 0.3417 0.3326
1890.398 0.3241 0.3201 0.3119 0.2925 0.2804 0.2891 0.27614 0.25695 0.25444 0.25287
1928.978 0.24257 0.2385 0.25116 0.25162 0.23608 0.22385 0.21856 0.22613 0.22493 0.2007
1967.557 0.20284 0.21205 0.19968 0.1937 0.2073 0.20344 0.186012 0.17722 0.186052 0.19802
2006.137 0.20282 0.20512 0.20527 0.2113 0.20748 0.20127 0.1981 0.21254 0.21334 0.2121
2044.716 0.2202 0.2124 0.20293 0.20133 0.19613 0.183442 0.188462 0.19571 0.188757 0.17796
2083.296 0.1663 0.1689 0.17676 0.19219 0.19614 0.182675 0.184634 0.178563 0.19441 0.20614
2121.875 0.20388 0.21322 0.21465 0.20805 0.21416 0.21903 0.20249 0.2134 0.23714 0.24405
2160.455 0.22458 0.21483 0.21662 0.21742 0.23226 0.23792 0.25051 0.25791 0.25072 0.23496
2199.035 0.2156 0.23283 0.24155 0.24655 0.25375 0.23966 0.23755 0.23691 0.23261 0.2439
2237.614 0.25458 0.23905 0.22159 0.23512 0.24264 0.23596 0.24101 0.24037 0.23508 0.21949
2276.194 0.20918 0.20809 0.20975 0.21965 0.23103 0.22112 0.20059 0.20049 0.20758 0.19869
2314.773 0.194 0.2056 0.20958 0.20493 0.20436 0.21596 0.21953 0.2057 0.20351 0.21771
2353.353 0.20796 0.19088 0.19715 0.21475 0.22887 0.22664 0.22664 0.21974 0.21252 0.21851
2391.932 0.22216 0.22691 0.22537 0.22294 0.2459 0.24887 0.23545 0.23532 0.23136 0.21814
2430.512 0.21004 0.22446 0.22278 0.2071 0.20466 0.20273 0.188313 0.19399 0.20821 0.20443
2469.092 0.19996 0.20905 0.22456 0.20863 0.17479 0.188408 0.2141 0.21996 0.23087 0.24749
2507.671 0.2719 0.27866 0.25484 0.2467 0.26828 0.2906 0.2889 0.2881 0.3051 0.3038
2546.251 0.3053 0.3193 0.3141 0.3047 0.2874 0.27629 0.2885 0.2853 0.3001 0.3212
2584.830 0.3213 0.3156 0.3504 0.3759 0.3682 0.381 0.3959 0.416 0.4159 0.4144
2623.410 0.4378 0.4737 0.4868 0.4819 0.4979 0.5313 0.5561 0.5562 0.5953 0.6501
2661.989 0.6537 0.6545 0.6752 0.6932 0.7237 0.7577 0.76 0.7321 0.7053 0.6987
2700.569 0.6864 0.6724 0.6622 0.6549 0.6578 0.6733 0.6836 0.6802 0.7018 0.7408
2739.148 0.76 0.7785 0.7864 0.8021 0.8669 0.8985 0.9073 0.9427 0.9778 1.0249
2777.728 1.1175 1.209 1.289 1.409 1.549 1.659 1.789 1.959 2.149 2.349
2816.308 2.629 2.959 3.299 3.769 4.419 5.289 6.519 8.299 10.789 14.089
2854.887 18.049 21.979 24.289 23.819 21.429 18.729 16.659 15.399 14.619 14.319
2893.467 14.719 15.899 17.919 20.839 24.499 28.849 34.379 41.769 51.109 60.549
2932.046 65.869 64.119 56.779 47.449 38.719 31.769 26.879 23.779 21.929 20.379
2970.626 18.199 15.319 12.479 10.269 8.689 7.509 6.529 5.729 5.109 4.659
3009.205 4.339 4.069 3.829 3.619 3.349 3.049 2.719 2.359 2.059 1.809
3047.785 1.599 1.449 1.309 1.179 1.0696 0.9689 0.9029 0.8671 0.8506 0.7892
3086.364 0.7054 0.6819 0.6873 0.6338 0.5829 0.571 0.5188 0.4736 0.4679 0.4652
3124.944 0.4644 0.4274 0.4004 0.4193 0.3847 0.3471 0.3387 0.3223 0.2872 0.26242
3163.524 0.2798 0.27888 0.2923 0.3237 0.3113 0.23266 0.1891 0.22557 0.22835 0.20637
3202.103 0.18829 0.187438 0.182394 0.178989 0.1608 0.1256 0.1095 0.104 0.087 0.0939
3240.683 0.1341 0.1519 0.128 0.1125 0.0935 0.0822 0.1009 0.0841 0.077 0.0989
3279.262 0.078 0.051 0.0805 0.1281 0.1562 0.1203 0.077 0.066 0.0823 0.097
3317.842 0.0984 0.1092 0.1027 0.104 0.0974 0.077 0.0844 0.07 0.009 0.018
3356.421 0.054 0.068 0.0801 0.0799 0.055 0.071 0.066 0.044 0.031 0.015
3395.001 0.069 0.071 0.072 0.069 0.023 0.004 0.043 0.048 0.019 0.036
3433.580 0.028 0.029 0.052 0.071 0.035 0 0.03 0.066 0.0962 0.102
3472.160 0.1063 0.0854 0.0809 0.0928 0.1128 0.133 0.1415 0.1454 0.1425 0.1939
3510.740 0.22543 0.24796 0.27277 0.3251 0.4261 0.4961 0.5803 0.6814 0.8055 0.9625
3549.319 1.179 1.509 2.029 2.919 4.449 6.859 9.459 10.189 8.029 5.029
3587.899 3.019 1.949 1.339 0.9475 0.7223 0.5733 0.4522 0.3471 0.322 0.3262
3626.478 0.3132 0.2947 0.26848 0.25298 0.21461 0.20015 0.186988 0.1613 0.1574 0.1066
3665.058 0.0843 0.1197 0.1299 0.1426 0.1139 0.078 0.0966 0.1028 0.0983 0.0806
3703.637 0.067 0.1141 0.1168 0.117 0.0841 0.048 0.066 0.072 0.0946 0.081
3742.217 0.033 0.014 0.038 0.0902 0.1222 0.1284 0.1306 0.1153 0.0823 0.061
3780.797 0.1334 0.1586 0.0911 0.038 0.0949 0.1592 0.1261 0.075 0.027 0.047
3819.376 0.0945 0.1007 0.0805 0.0818 0.1401 0.1654 0.1135 0.0934 0.1336 0.1474
3857.956 0.0861 0.037 0.038 0.067 0.0853 0.059 0.07 0.0829 0.041 0.037
3896.535 0.078 0.1062 0.1035 0.1036 0.1325 0.0995 0.074 0.0829 0.044 0.026
3935.115 0.069 0.04 0.014 0.078 0.1173 0.1304 0.1369 0.1616 0.19043 0.179298
3973.694 0.185651 0.22219 0.19989 0.1939 0.19163 0.215 0.23879 0.23336
##END=
