##TITLE=Heptyl formate
##JCAMP-DX=4.24
##DATA TYPE=INFRARED SPECTRUM
##ORIGIN=EPA-IR VAPOR PHASE LIBRARY
##OWNER=SRD/NIST
Collection (C) 2018 copyright by the U.S. Secretary of Commerce
on behalf of the United States of America. All rights reserved.
##CAS REGISTRY NO=112-23-2
##MOLFORM=C 8 H 16 O 2
##$NIST SOURCE=MSDC-IR
##STATE=gas
##XUNITS=1/CM
##YUNITS=ABSORBANCE
##XFACTOR=1.
##YFACTOR=0.001
##DELTAX=3.85796
##FIRSTX=501.5
##LASTX=4000.7
##FIRSTY=0.5194
##MAXX=4000.7
##MINX=501.534
##MAXY=0.143988
##MINY=0
##NPOINTS=908
##XYDATA=(X++(Y..Y))
501.534 0.5194 0.5408 0.7204 0.7534 0.8565 0.8591 0.6627 0.6966 0.731 0.6938
540.114 0.6661 0.4866 0.2867 0.3216 0.43109 0.3436 0.108 0 0.079 0.176
578.693 0.201 0.173 0.226 0.186 0.081 0.063 0.126 0.174 0.192 0.167
617.273 0.174 0.222 0.179 0.153 0.206 0.199 0.15 0.102 0.062 0.098
655.852 0.199 0.258 0.2802 0.2905 0.2806 0.2804 0.381089 0.46877 0.39774 0.44511
694.432 0.5964 0.7481 0.9263 1.1321 1.408 1.718 1.948 2.068 2.078 2.088
733.011 2.108 2.058 2.078 2.098 2.088 2.108 2.148 2.108 2.038 2.008
771.591 1.928 1.778 1.698 1.658 1.568 1.458 1.3052 1.1759 1.0778 1.0633
810.170 1.1459 1.2232 1.252 1.3157 1.468 1.608 1.868 2.088 2.198 2.388
848.750 2.478 2.438 2.418 2.428 2.368 2.338 2.348 2.378 2.448 2.538
887.330 2.678 2.908 3.098 3.278 3.558 3.898 4.218 4.468 4.618 4.638
925.909 4.488 4.248 4.048 3.768 3.598 3.468 3.238 2.938 2.648 2.448
964.489 2.218 2.038 1.978 1.948 2.028 2.208 2.348 2.398 2.488 2.698
1003.068 2.848 2.968 2.938 2.958 3.098 3.128 3.108 3.038 3.018 3.058
1041.648 3.178 3.248 3.318 3.428 3.458 3.508 3.578 3.528 3.578 3.728
1080.227 3.828 4.118 4.468 4.868 5.658 6.448 7.238 8.548 10.028 11.648
1118.807 13.698 16.148 19.288 23.398 28.828 35.948 45.188 57.408 73.018 92.088
1157.387 112.808 131.198 142.548 143.988 135.868 121.198 103.608 85.398 67.818 52.288
1195.966 40.168 31.548 25.418 21.038 17.838 15.358 13.468 12.048 10.838 9.738
1234.546 8.908 8.268 7.808 7.478 7.188 7.058 6.948 6.758 6.578 6.358
1273.125 6.068 5.828 5.658 5.548 5.498 5.408 5.238 5.058 4.838 4.548
1311.705 4.218 3.868 3.588 3.368 3.188 3.098 3.088 3.148 3.208 3.278
1350.284 3.368 3.428 3.498 3.608 3.778 4.028 4.378 4.658 4.658 4.468
1388.864 4.038 3.428 2.908 2.548 2.298 2.168 2.158 2.238 2.388 2.608
1427.443 2.948 3.428 4.028 4.748 5.578 6.508 7.548 8.658 9.678 10.378
1466.023 10.598 10.198 9.218 7.848 6.318 4.958 3.888 3.118 2.568 2.188
1504.603 1.928 1.688 1.518 1.418 1.3209 1.2464 1.2066 1.1405 1.0775 1.0341
1543.182 1.0128 0.9865 0.9307 0.9007 0.9031 0.8814 0.8615 0.8528 0.8334 0.8152
1581.762 0.8068 0.8155 0.8115 0.8101 0.812 0.8173 0.8056 0.805 0.8226 0.8409
1620.341 0.8631 0.9174 0.9493 0.9703 1.0243 1.0685 1.1302 1.204 1.3099 1.458
1658.921 1.568 1.708 1.918 2.168 2.478 2.898 3.388 4.038 4.838 5.878
1697.500 7.288 9.178 11.438 14.188 17.668 22.378 28.678 36.678 46.308 58.158
1736.080 75.708 102.068 124.128 129.578 123.228 99.068 71.208 53.758 41.328 31.858
1774.659 25.718 22.198 19.318 16.418 12.958 9.058 6.338 4.748 3.678 2.978
1813.239 2.478 2.128 1.828 1.588 1.418 1.2828 1.15 1.0477 0.9869 0.9473
1851.819 0.8989 0.844 0.8037 0.7744 0.7596 0.7517 0.7484 0.7297 0.7022 0.7028
1890.398 0.7285 0.7558 0.7657 0.8023 0.8524 0.8812 0.8806 0.8641 0.8549 0.8452
1928.978 0.8374 0.8559 0.8596 0.8471 0.8356 0.8421 0.8365 0.8313 0.8334 0.8178
1967.557 0.8045 0.8099 0.8011 0.7755 0.7763 0.7726 0.7693 0.7761 0.8106 0.8367
2006.137 0.8523 0.8777 0.8856 0.9089 0.9347 0.928 0.9399 0.9898 0.9997 1.0022
2044.716 1.0117 0.9913 0.9853 0.9949 1.0006 1.0323 1.0502 1.0076 0.9764 0.9839
2083.296 0.9635 0.947 0.9389 0.9176 0.8878 0.8359 0.7825 0.7603 0.7414 0.7174
2121.875 0.6732 0.6293 0.6243 0.625 0.582 0.5578 0.5681 0.5515 0.5278 0.5083
2160.455 0.5143 0.5282 0.5271 0.502 0.4997 0.5148 0.5221 0.5128 0.5101 0.5115
2199.035 0.47698 0.46204 0.47497 0.4838 0.45807 0.42088 0.42494 0.43563 0.41946 0.41974
2237.614 0.44134 0.45961 0.4709 0.492 0.4939 0.4874 0.5321 0.5419 0.5543 0.6047
2276.194 0.6276 0.6547 0.7149 0.7981 0.8683 0.9269 0.9729 1.0427 1.1181 1.16
2314.773 1.1993 1.2206 1.2243 1.2291 1.2216 1.2045 1.1697 1.1232 1.0703 1.001
2353.353 0.9314 0.8586 0.763 0.7165 0.7071 0.664 0.6321 0.6031 0.59 0.5783
2391.932 0.5883 0.5868 0.5354 0.5324 0.5305 0.5156 0.4862 0.46213 0.47404 0.46737
2430.512 0.45011 0.43169 0.4313 0.44316 0.43572 0.42324 0.43258 0.41209 0.379681 0.3497
2469.092 0.3371 0.380572 0.40981 0.42112 0.44508 0.47606 0.4918 0.4936 0.4865 0.4816
2507.671 0.4819 0.4943 0.4961 0.4925 0.4924 0.5005 0.5218 0.5138 0.5063 0.5122
2546.251 0.5173 0.5234 0.5106 0.4999 0.5192 0.5262 0.5301 0.5522 0.5641 0.5749
2584.830 0.5819 0.6133 0.6564 0.6506 0.6381 0.6351 0.6218 0.6539 0.6733 0.676
2623.410 0.7071 0.7189 0.7218 0.763 0.8245 0.8477 0.847 0.8683 0.8915 0.9236
2661.989 0.9709 1.0221 1.0766 1.0909 1.1025 1.1409 1.1693 1.2001 1.2371 1.2429
2700.569 1.2614 1.2963 1.3543 1.478 1.598 1.718 1.838 1.898 1.888 1.808
2739.148 1.748 1.748 1.748 1.728 1.708 1.718 1.758 1.768 1.798 1.858
2777.728 1.898 1.938 2.028 2.228 2.448 2.598 2.778 2.988 3.248 3.558
2816.308 3.908 4.348 4.848 5.428 6.158 7.128 8.458 10.268 12.758 16.018
2854.887 19.868 23.868 27.418 29.988 31.298 31.648 31.568 31.078 30.428 30.048
2893.467 30.258 31.618 34.388 38.538 43.948 50.758 59.258 69.258 79.158 86.638
2932.046 90.368 89.728 85.628 79.568 72.468 65.668 60.588 57.908 57.268 56.508
2970.626 53.288 47.418 39.568 31.518 25.038 20.098 16.238 13.178 10.728 8.888
3009.205 7.528 6.418 5.558 4.908 4.418 4.008 3.658 3.338 3.018 2.768
3047.785 2.528 2.328 2.198 2.038 1.898 1.818 1.758 1.708 1.628 1.578
3086.364 1.558 1.528 1.488 1.448 1.448 1.538 1.668 1.748 1.688 1.618
3124.944 1.558 1.3737 1.2066 1.094 1.0345 0.968 0.8994 0.8926 0.855 0.8141
3163.524 0.7888 0.7779 0.7691 0.7982 0.7847 0.7373 0.712 0.6557 0.663 0.6603
3202.103 0.6098 0.5863 0.5805 0.65 0.666 0.5557 0.4904 0.4578 0.44427 0.46439
3240.683 0.46341 0.41263 0.3332 0.3104 0.3334 0.3562 0.3663 0.3549 0.38727 0.42591
3279.262 0.43991 0.3663 0.2882 0.3104 0.2861 0.258 0.262 0.277 0.3264 0.3373
3317.842 0.3368 0.3191 0.25 0.269 0.3522 0.3023 0.276 0.276 0.205 0.222
3356.421 0.241 0.24 0.255 0.252 0.278 0.3232 0.3092 0.3451 0.37387 0.341
3395.001 0.37384 0.41139 0.37655 0.3315 0.3395 0.37186 0.378914 0.384127 0.46086 0.5625
3433.580 0.559 0.5454 0.604 0.649 0.7636 0.8907 1.0048 1.1351 1.2535 1.408
3472.160 1.558 1.638 1.638 1.548 1.3267 1.147 0.9977 0.775 0.6784 0.6368
3510.740 0.5563 0.5604 0.4916 0.44216 0.43952 0.40243 0.381499 0.41937 0.44003 0.39805
3549.319 0.4298 0.40345 0.3255 0.278 0.2986 0.274 0.202 0.227 0.256 0.3026
3587.899 0.3489 0.3055 0.2782 0.2892 0.25 0.231 0.3206 0.274 0.257 0.3556
3626.478 0.3489 0.37385 0.3676 0.3353 0.3502 0.3442 0.381579 0.42966 0.41003 0.3637
3665.058 0.327 0.380085 0.42745 0.44739 0.45636 0.40084 0.37651 0.38967 0.39664 0.378625
3703.637 0.3593 0.37295 0.41972 0.47349 0.42111 0.3844 0.44385 0.44027 0.44578 0.41734
3742.217 0.3418 0.2905 0.332 0.43955 0.42181 0.3395 0.3238 0.3334 0.3882 0.4403
3780.797 0.37569 0.3489 0.4017 0.42596 0.42902 0.41893 0.47443 0.45598 0.3615 0.3669
3819.376 0.386758 0.41333 0.43533 0.42629 0.46559 0.47154 0.41274 0.3379 0.3245 0.379682
3857.956 0.4358 0.41366 0.37096 0.43902 0.46662 0.43494 0.38988 0.37446 0.38819 0.382879
3896.535 0.44203 0.503 0.493 0.46484 0.45576 0.46368 0.44498 0.4349 0.41781 0.41237
3935.115 0.42233 0.40995 0.386862 0.3644 0.41656 0.44166 0.44734 0.41973 0.43612 0.5036
3973.694 0.5206 0.5218 0.4986 0.5101 0.5346 0.5743 0.5534 0.47219
##END=
