##TITLE=1-Octadecanol
##JCAMP-DX=4.24
##DATA TYPE=INFRARED SPECTRUM
##ORIGIN=NIST Mass Spectrometry Data Center
##OWNER=NIST Standard Reference Data Program
Collection (C) 2018 copyright by the U.S. Secretary of Commerce
on behalf of the United States of America. All rights reserved.
##CAS REGISTRY NO=112-92-5
##MOLFORM=C 18 H 38 O
##$NIST SOURCE=MSDC-IR
##SPECTROMETER/DATA SYSTEM=HP-GC/MS/IRD
##STATE=gas
##XUNITS=1/CM
##YUNITS=ABSORBANCE
##XFACTOR=1.0
##YFACTOR=0.000004900
##DELTAX=4.0
##FIRSTX=550.0
##LASTX=3846.0
##FIRSTY=0.000515
##MAXX=3846
##MINX=550
##MAXY=0.049
##MINY=0
##NPOINTS=825
##XYDATA=(X++(Y..Y))
550.0 105 47 0 29 31 26 21 19 29 25
590.0 45 49 57 70 49 49 59 60 60 65
630.0 75 64 49 49 60 59 42 60 80 67
670.0 58 58 62 71 69 79 100 118 130 157
710.0 180 185 185 190 185 167 163 159 143 127
750.0 125 122 117 115 105 102 111 107 104 99
790.0 93 91 84 95 99 87 85 74 46 60
830.0 94 95 94 103 102 103 113 121 136 138
870.0 132 142 151 153 155 154 150 139 134 144
910.0 148 152 161 172 168 169 175 180 186 188
950.0 188 191 203 209 209 225 234 246 260 278
990.0 306 324 337 355 378 410 447 492 546 590
1030.0 633 663 687 705 704 694 666 620 567 501
1070.0 437 387 345 309 269 227 196 177 162 136
1110.0 119 118 115 97 90 93 90 91 89 82
1150.0 80 81 84 84 87 96 93 95 101 96
1190.0 95 100 103 105 110 126 136 138 135 131
1230.0 137 146 152 157 163 164 167 174 180 188
1270.0 194 194 190 191 205 223 231 236 236 237
1310.0 244 249 244 235 235 245 263 306 328 339
1350.0 364 370 366 365 345 330 331 325 321 326
1390.0 304 280 261 227 204 187 190 214 211 200
1430.0 220 279 331 372 454 535 633 710 697 646
1470.0 565 469 348 256 223 198 161 138 128 155
1510.0 154 121 123 119 94 79 75 95 110 83
1550.0 65 78 104 74 44 44 46 45 31 28
1590.0 33 37 34 31 32 36 42 45 46 46
1630.0 42 60 57 47 61 81 89 58 44 52
1670.0 67 73 66 84 81 56 73 98 86 60
1710.0 51 73 85 57 51 77 93 81 71 76
1750.0 83 67 53 52 60 67 54 45 48 46
1790.0 50 46 47 49 36 40 42 37 43 49
1830.0 45 40 38 46 49 35 28 29 31 43
1870.0 45 31 27 25 24 25 22 29 31 29
1910.0 26 30 35 33 32 29 27 29 32 28
1950.0 22 23 27 25 25 25 22 25 29 27
1990.0 30 29 27 30 30 27 31 39 37 39
2030.0 39 38 36 33 32 34 36 35 35 33
2070.0 30 27 26 24 21 23 20 20 26 28
2110.0 27 28 26 21 22 21 22 26 27 25
2150.0 23 24 24 23 26 26 21 22 26 27
2190.0 27 26 26 27 23 20 20 23 24 21
2230.0 20 21 23 23 24 24 22 21 25 27
2270.0 25 23 22 20 20 20 18 16 15 14
2310.0 10 13 15 11 11 10 11 18 16 12
2350.0 13 12 10 10 10 10 14 16 19 24
2390.0 24 26 30 27 27 27 27 25 22 28
2430.0 33 30 29 26 29 30 25 22 25 23
2470.0 25 32 34 34 33 36 41 40 38 35
2510.0 38 43 46 47 46 48 49 48 52 54
2550.0 53 49 52 53 52 55 54 54 59 68
2590.0 70 68 71 75 77 76 78 84 86 86
2630.0 84 87 91 98 103 101 108 114 116 120
2670.0 125 129 127 126 132 136 133 129 131 137
2710.0 135 131 133 134 142 148 149 150 157 158
2750.0 156 161 167 174 181 188 199 208 223 236
2790.0 254 276 298 315 340 370 403 443 490 546
2830.0 616 710 844 1047 1364 1847 2532 3282 3731 3665
2870.0 3259 2818 2500 2300 2175 2125 2185 2379 2706 3156
2910.0 3726 4450 5441 6832 8508 9814 10000 9024 7447 5817
2950.0 4462 3505 2909 2561 2299 2002 1634 1280 1010 815
2990.0 669 573 497 438 385 340 306 282 260 237
3030.0 226 209 189 175 161 151 139 130 127 123
3070.0 116 113 108 101 101 97 91 93 94 90
3110.0 90 87 86 83 76 75 75 75 77 81
3150.0 78 79 82 74 69 68 62 63 69 64
3190.0 59 61 60 60 65 57 47 47 49 52
3230.0 50 44 48 56 57 51 44 47 46 47
3270.0 54 60 60 53 39 30 34 43 41 37
3310.0 36 31 36 39 42 39 35 29 24 31
3350.0 34 39 37 26 27 34 29 31 40 37
3390.0 27 30 36 35 38 37 33 31 32 27
3430.0 21 26 33 29 27 31 32 34 29 20
3470.0 19 23 27 32 24 18 18 17 17 12
3510.0 13 13 18 28 22 10 13 11 17 32
3550.0 20 12 13 22 45 36 17 18 18 35
3590.0 42 31 28 26 44 59 51 53 49 62
3630.0 80 54 47 73 110 142 156 167 168 176
3670.0 198 199 163 115 95 80 57 52 49 40
3710.0 47 41 27 34 37 38 57 50 57 66
3750.0 53 44 28 21 14 12 10 12 10 11
3790.0 15 20 30 40 31 18 24 34 25 17
3830.0 27 35 41 36 18
##END=
