##TITLE=Erucylamide
##JCAMP-DX=4.24
##DATA TYPE=INFRARED SPECTRUM
##ORIGIN=EPA-IR VAPOR PHASE LIBRARY
##OWNER=SRD/NIST
Collection (C) 2018 copyright by the U.S. Secretary of Commerce
on behalf of the United States of America. All rights reserved.
##CAS REGISTRY NO=112-84-5
##MOLFORM=C 22 H 43 N O
##$NIST SOURCE=MSDC-IR
##STATE=gas
##XUNITS=1/CM
##YUNITS=ABSORBANCE
##XFACTOR=1.
##YFACTOR=0.001
##DELTAX=3.85796
##FIRSTX=501.5
##LASTX=4000.7
##FIRSTY=0.1046
##MAXX=4000.7
##MINX=501.534
##MAXY=0.039025
##MINY=0
##NPOINTS=908
##XYDATA=(X++(Y..Y))
501.534 0.1046 0.18505 0.3139 0.4746 0.6628 0.6905 0.7844 0.7759 0.6386 0.5806
540.114 0.6672 0.5867 0.4192 0.5826 0.5873 0.4424 0.5176 0.5852 0.4773 0.5177
578.693 0.7376 0.8935 0.8753 0.87 0.9601 0.9265 0.8875 0.9139 1.0242 1.0289
617.273 0.9403 0.8846 0.7511 0.6639 0.6442 0.5736 0.5207 0.5919 0.6187 0.606
655.852 0.5564 0.4529 0.5032 0.683 0.8016 0.8616 0.8717 0.927 1.0483 1.195
694.432 1.375 1.485 1.545 1.675 1.825 1.975 2.065 2.065 2.055 2.045
733.011 2.045 1.985 1.885 1.785 1.855 1.815 1.575 1.445 1.475 1.505
771.591 1.375 1.295 1.215 1.1875 1.181 1.1235 1.1113 0.9668 0.8481 0.9336
810.170 1.0094 0.9988 0.9352 0.9313 0.9567 0.9319 0.8917 0.8401 0.7494 0.7496
848.750 0.8437 0.8936 0.9016 0.876 0.8111 0.8634 1.008 0.9433 0.7957 0.8172
887.330 0.839 0.7651 0.7053 0.6877 0.6445 0.6515 0.7081 0.6824 0.6709 0.7174
925.909 0.693 0.6336 0.5853 0.6573 0.7982 0.6947 0.5988 0.6858 0.7347 0.7296
964.489 0.7962 0.8061 0.7876 0.7707 0.7407 0.7424 0.7328 0.7215 0.6463 0.7291
1003.068 0.7772 0.6977 0.7247 0.8077 0.8982 0.9264 0.876 0.729 0.7959 0.8076
1041.648 0.6764 0.673 0.7241 0.7567 0.7482 0.6987 0.6415 0.7118 0.8795 0.8069
1080.227 0.7714 0.895 0.6467 0.595 0.6734 0.5816 0.6173 0.7031 0.7363 0.7621
1118.807 0.6441 0.4552 0.3621 0.4782 0.6647 0.6842 0.5693 0.5765 0.7445 0.6899
1157.387 0.5603 0.6234 0.709 0.6047 0.4264 0.4462 0.4951 0.4926 0.5222 0.4715
1195.966 0.5548 0.6353 0.5686 0.5795 0.6544 0.7405 0.8304 0.928 1.0442 0.9966
1234.546 1.0531 1.1846 1.245 1.405 1.495 1.565 1.665 1.775 1.885 1.855
1273.125 1.965 2.135 2.055 2.015 2.055 2.075 2.095 2.175 2.215 2.205
1311.705 2.235 2.245 2.235 2.265 2.315 2.465 2.685 2.905 3.085 3.235
1350.284 3.385 3.385 3.325 3.295 3.295 3.265 3.135 2.935 2.695 2.365
1388.864 2.005 1.725 1.545 1.485 1.415 1.255 1.1244 1.0417 1.0163 1.1376
1427.443 1.315 1.485 1.685 1.965 2.275 2.565 2.875 3.125 3.315 3.295
1466.023 2.995 2.525 1.955 1.495 1.1858 0.9589 0.7994 0.6888 0.6194 0.6102
1504.603 0.5361 0.465 0.4417 0.426 0.4166 0.4388 0.4675 0.4545 0.484 0.483
1543.182 0.5289 0.6374 0.7534 0.8517 0.9507 1.1873 1.495 1.845 2.295 2.915
1581.762 3.565 4.025 4.045 3.645 3.125 2.675 2.245 1.825 1.485 1.275
1620.341 1.106 0.9404 0.8673 0.8068 0.7213 0.7295 0.7347 0.7341 0.7453 0.7918
1658.921 0.8549 0.9286 1.0434 1.1629 1.305 1.505 1.735 2.045 2.465 2.935
1697.500 3.475 4.115 4.865 5.705 6.605 7.635 8.805 9.935 10.735 10.845
1736.080 10.275 9.225 7.975 6.765 5.605 4.635 3.755 2.945 2.265 1.715
1774.659 1.325 1.061 0.8589 0.66 0.5472 0.5145 0.4474 0.3858 0.3507 0.3173
1813.239 0.29344 0.26879 0.27918 0.28349 0.25917 0.27151 0.26675 0.22173 0.204341 0.18506
1851.819 0.199801 0.200473 0.1835 0.203476 0.198296 0.201161 0.20753 0.196287 0.198268 0.194137
1890.398 0.1778 0.1666 0.1507 0.1409 0.1382 0.151 0.1732 0.18739 0.196205 0.18941
1928.978 0.1707 0.18666 0.19273 0.195549 0.197189 0.1727 0.1698 0.1818 0.1814 0.1822
1967.557 0.21057 0.201236 0.1696 0.1729 0.1735 0.1681 0.1736 0.1658 0.1471 0.1693
2006.137 0.1692 0.1441 0.1361 0.1776 0.22279 0.199816 0.1661 0.1819 0.22295 0.21353
2044.716 0.204928 0.20882 0.197932 0.19306 0.164 0.1424 0.1499 0.1421 0.1321 0.1693
2083.296 0.1859 0.18522 0.202986 0.19132 0.1759 0.19204 0.20739 0.18751 0.1739 0.1765
2121.875 0.1918 0.20563 0.18766 0.1779 0.203395 0.2104 0.181 0.18593 0.19377 0.19249
2160.455 0.204238 0.19113 0.174 0.1786 0.21946 0.22498 0.22121 0.20833 0.19033 0.1903
2199.035 0.203864 0.25036 0.24113 0.18838 0.1672 0.1634 0.1701 0.1777 0.19795 0.24828
2237.614 0.24494 0.23113 0.23888 0.200623 0.197519 0.22599 0.24045 0.21367 0.171 0.153
2276.194 0.19545 0.25277 0.21988 0.21207 0.20567 0.196787 0.22599 0.22177 0.19126 0.18803
2314.773 0.19343 0.18513 0.21107 0.20799 0.1411 0.118 0.1509 0.18593 0.1625 0.1347
2353.353 0.1228 0.1066 0.1405 0.1257 0.1261 0.1819 0.18675 0.1559 0.1694 0.198514
2391.932 0.1682 0.1718 0.19224 0.1425 0.1475 0.20846 0.22143 0.1787 0.1548 0.18542
2430.512 0.199823 0.200714 0.205 0.1829 0.1483 0.1574 0.18526 0.20728 0.2128 0.1733
2469.092 0.1367 0.1424 0.161 0.20668 0.23065 0.196045 0.1822 0.18964 0.1768 0.196101
2507.671 0.2384 0.21793 0.22852 0.2957 0.3075 0.24221 0.21802 0.25987 0.29205 0.25047
2546.251 0.22577 0.2701 0.23059 0.22694 0.28467 0.3264 0.3088 0.25469 0.24286 0.29254
2584.830 0.3263 0.3165 0.27606 0.26213 0.28357 0.27228 0.29247 0.3045 0.306 0.3357
2623.410 0.3603 0.3574 0.4217 0.4528 0.347 0.3647 0.4501 0.4446 0.4487 0.4597
2661.989 0.4686 0.4986 0.5388 0.5693 0.5834 0.584 0.5801 0.5529 0.5259 0.4913
2700.569 0.4958 0.5192 0.4784 0.4636 0.4557 0.5073 0.6138 0.5974 0.5129 0.4726
2739.148 0.5608 0.6338 0.5969 0.6028 0.5906 0.6109 0.6871 0.7191 0.7116 0.7316
2777.728 0.7968 0.8527 0.8792 0.961 1.095 1.1859 1.255 1.335 1.455 1.505
2816.308 1.665 1.935 2.155 2.365 2.745 3.245 3.825 4.725 6.065 8.075
2854.887 10.825 13.595 15.105 14.675 12.995 11.075 9.645 8.885 8.465 8.355
2893.467 8.625 9.375 10.635 12.315 14.445 17.015 20.395 24.985 30.665 36.195
2932.046 39.025 37.595 32.955 27.205 21.865 17.635 14.565 12.585 11.295 10.165
2970.626 8.875 7.315 5.805 4.685 3.855 3.275 2.955 2.885 3.175 3.555
3009.205 4.015 4.165 3.685 2.905 2.205 1.805 1.475 1.1912 1.0424 0.9417
3047.785 0.8342 0.7564 0.7282 0.644 0.5955 0.6241 0.6517 0.6037 0.5351 0.5238
3086.364 0.4922 0.404 0.3559 0.3079 0.3115 0.3659 0.3256 0.2999 0.3538 0.4016
3124.944 0.4894 0.4363 0.3164 0.3533 0.3308 0.28982 0.3085 0.3325 0.338 0.3249
3163.524 0.3658 0.4037 0.4295 0.4442 0.3805 0.3319 0.35 0.3665 0.3075 0.26345
3202.103 0.3133 0.3192 0.22923 0.23124 0.27017 0.25486 0.25781 0.24436 0.3001 0.3282
3240.683 0.301 0.22086 0.196205 0.3164 0.29436 0.28881 0.2972 0.2614 0.24585 0.26937
3279.262 0.3387 0.24448 0.1324 0.1485 0.202432 0.202643 0.1496 0.1336 0.2242 0.28214
3317.842 0.1781 0.13 0.21369 0.26875 0.29112 0.27002 0.28505 0.3331 0.3235 0.3064
3356.421 0.24418 0.23192 0.24344 0.2745 0.3117 0.3332 0.34 0.3874 0.437 0.4564
3395.001 0.4715 0.5934 0.6853 0.6483 0.7016 0.7839 0.8157 0.8304 0.8735 0.8694
3433.580 0.9512 1.1312 1.1099 0.9332 0.6771 0.501 0.4961 0.5252 0.4847 0.3992
3472.160 0.4129 0.4344 0.4375 0.4214 0.3953 0.3995 0.4515 0.459 0.4648 0.541
3510.740 0.5848 0.5977 0.6023 0.5526 0.6424 0.7292 0.6676 0.699 0.7409 0.802
3549.319 0.9382 0.9797 1.0349 1.1122 1.0444 0.8561 0.6665 0.556 0.5138 0.4109
3587.899 0.27251 0.1805 0.074 0.087 0.194392 0.24324 0.21405 0.196784 0.24059 0.21901
3626.478 0.1188 0.0977 0.1607 0.21583 0.1432 0.1306 0.23251 0.27965 0.2954 0.172
3665.058 0.1354 0.17 0.22549 0.2577 0.18967 0.079 0.01 0.117 0.18588 0.1524
3703.637 0.1236 0.1466 0.20981 0.2964 0.18864 0.074 0.1379 0.1432 0.114 0.1468
3742.217 0.1726 0.21831 0.23482 0.21317 0.1575 0.1845 0.25398 0.1015 0 0.1365
3780.797 0.2118 0.134 0.20729 0.346 0.3285 0.22345 0.1467 0.065 0.081 0.20932
3819.376 0.21712 0.1808 0.18716 0.25714 0.27065 0.19001 0.21874 0.27074 0.26092 0.22081
3857.956 0.21105 0.20654 0.3047 0.301 0.196371 0.2461 0.26329 0.21694 0.195972 0.21628
3896.535 0.1229 0.1556 0.26115 0.26446 0.3263 0.24946 0.20819 0.25946 0.2497 0.24047
3935.115 0.28657 0.29316 0.2995 0.3145 0.3006 0.3816 0.3234 0.25588 0.28699 0.24658
3973.694 0.1507 0.1826 0.24237 0.198853 0.23989 0.21895 0.19195 0.204768
##END=
