##TITLE=Palmitic chloride
##JCAMP-DX=4.24
##DATA TYPE=INFRARED SPECTRUM
##ORIGIN=EPA-IR VAPOR PHASE LIBRARY
##OWNER=SRD/NIST
Collection (C) 2018 copyright by the U.S. Secretary of Commerce
on behalf of the United States of America. All rights reserved.
##CAS REGISTRY NO=112-67-4
##MOLFORM=C 16 H 31 Cl O
##$NIST SOURCE=MSDC-IR
##STATE=gas
##XUNITS=1/CM
##YUNITS=ABSORBANCE
##XFACTOR=1.
##YFACTOR=0.001
##DELTAX=1.92898
##FIRSTX=549.8
##LASTX=4000.7
##FIRSTY=3.3224
##MAXX=4000.7
##MINX=549.759
##MAXY=0.142732
##MINY=0
##NPOINTS=1790
##XYDATA=(X++(Y..Y))
549.759 3.3224 3.6324 4.2024 4.4224 4.7924 5.2924 5.7024 6.1624 6.7024 6.9824
569.049 7.2124 7.5124 7.5224 7.4224 7.3424 7.2424 7.4024 7.1924 6.9924 6.9624
588.339 6.7324 6.4624 6.2624 6.0424 5.7724 5.3824 4.9324 4.5524 4.2624 4.0024
607.628 3.6224 3.3624 3.0924 2.6524 2.3924 2.2624 2.1624 2.1324 2.0124 1.7924
626.918 1.5924 1.5924 1.7924 1.9224 1.8724 1.7724 1.8024 1.7724 1.7024 1.7424
646.208 1.8224 2.0124 2.0524 2.0724 2.1524 2.1924 2.3524 2.5824 2.7724 2.9024
665.498 3.0224 3.3524 3.8024 4.2624 4.8524 5.4424 6.0324 6.6524 6.9824 7.0724
684.787 6.9724 6.7424 6.4524 6.1324 5.7824 5.5624 5.5824 5.5924 5.5324 5.5524
704.077 5.8324 6.1724 6.6124 7.1524 7.4324 7.8124 8.3324 8.5824 8.7524 8.8424
723.367 8.9624 8.9824 8.7924 8.6024 8.3324 7.9724 7.6024 7.3624 7.0924 6.7924
742.657 6.4424 6.1324 5.9224 5.6524 5.2724 5.1424 5.0824 4.8824 4.8124 4.6624
761.947 4.5524 4.3824 4.1324 3.8624 3.7224 3.7124 3.6924 3.6924 3.5924 3.3824
781.236 3.3324 3.3224 3.1224 3.0324 3.0524 3.0724 3.0324 2.9324 3.0024 2.8824
800.526 2.6924 2.6624 2.6424 2.7224 2.6424 2.6224 2.7224 2.7224 2.6824 2.7424
819.816 2.8524 2.9024 2.8624 2.8824 2.7524 2.6124 2.7824 2.8524 2.7124 2.7924
839.106 2.9424 2.8324 2.8024 2.8824 2.9624 3.0524 3.1524 3.0924 3.0524 3.1024
858.395 3.1224 3.1424 3.2324 3.2524 3.2624 3.3624 3.3124 3.3724 3.6124 3.7424
877.685 3.8124 3.8824 3.9424 4.0724 4.2124 4.3324 4.4424 4.6124 4.7224 4.8524
896.975 4.9424 5.1324 5.3724 5.5624 5.8124 6.0324 6.3624 6.6524 6.9424 7.1324
916.265 7.3824 7.7224 7.9824 8.3424 8.7024 8.8924 9.1324 9.4424 9.7324 10.0924
935.555 10.2824 10.4924 10.7824 11.0224 11.2724 11.4224 11.6824 11.8924 11.8824 12.0724
954.844 12.2424 12.1724 12.0024 11.8124 11.7424 11.8524 11.9224 11.7324 11.4824 11.3524
974.134 11.1824 11.0024 10.8724 10.8824 10.7624 10.6524 10.6324 10.6824 10.6824 10.5324
993.424 10.5324 10.4224 10.1824 10.0924 10.0524 10.0024 9.8424 9.5024 9.2924 9.1324
1012.714 8.9024 8.6524 8.3724 8.2924 8.2424 7.9624 7.6124 7.2324 6.9824 7.0424
1032.003 6.9424 6.5524 6.2524 6.1224 6.1724 5.9924 5.6824 5.6324 5.5024 5.1224
1051.293 4.8724 4.8024 4.6424 4.3624 4.2424 4.2524 4.0624 3.8224 3.6424 3.5224
1070.583 3.3824 3.2324 3.2124 3.1124 3.0524 3.1724 3.3024 3.1624 2.9624 3.0024
1089.873 2.9624 2.9024 2.7524 2.7224 2.7824 2.6224 2.4924 2.4124 2.4824 2.5924
1109.163 2.6624 2.6524 2.6524 2.6924 2.6124 2.6424 2.7724 2.8924 2.8424 2.9224
1128.452 2.8124 2.6224 2.6024 2.4824 2.4724 2.4024 2.3124 2.2124 1.9624 1.8824
1147.742 2.1124 2.2124 2.1224 2.0424 1.9124 1.7824 1.7724 1.8924 1.9524 1.8524
1167.032 1.7924 1.7124 1.7624 1.9224 1.9624 1.8524 1.8024 1.8424 1.8224 1.8124
1186.322 1.8624 1.7324 1.6624 1.7724 1.7524 1.7524 1.8024 1.7324 1.7024 1.6824
1205.611 1.7224 1.7224 1.6724 1.8424 1.8024 1.6124 1.6224 1.5424 1.6324 1.7524
1224.901 1.6924 1.7924 1.8524 1.7724 1.6524 1.5824 1.6324 1.6624 1.7024 1.8624
1244.191 1.9524 1.9424 2.0024 2.0224 1.9724 2.0024 2.0924 2.0924 2.0624 2.1824
1263.481 2.4524 2.3624 2.2824 2.3724 2.4124 2.4024 2.4024 2.4824 2.6024 2.6524
1282.771 2.6124 2.7424 2.8924 2.9224 2.9424 2.9524 3.0124 3.0924 3.1024 3.1024
1302.060 3.1624 3.2324 3.2924 3.2824 3.2424 3.2324 3.1624 3.1124 3.1124 3.0424
1321.350 2.9524 2.9924 3.0424 3.0824 3.1724 3.2724 3.4024 3.5524 3.7424 4.0024
1340.640 4.2524 4.4124 4.5724 4.7524 4.9024 5.0224 5.1024 5.0724 4.9624 4.7924
1359.930 4.6324 4.4824 4.3124 4.1024 3.9124 3.7424 3.5424 3.3324 3.1224 2.9724
1379.219 2.9024 2.8724 2.8124 2.6824 2.5324 2.4324 2.3124 2.2424 2.2224 2.1724
1398.509 2.1924 2.2624 2.3424 2.4724 2.6124 2.8124 2.9924 3.1224 3.2824 3.4124
1417.799 3.4424 3.4524 3.4924 3.5524 3.5724 3.6624 3.8024 3.8724 4.0124 4.2224
1437.089 4.4724 4.8324 5.3024 5.8124 6.4324 7.1224 7.8124 8.4724 9.1424 9.8024
1456.378 10.4524 11.0024 11.2724 11.2324 10.9124 10.3024 9.4924 8.5724 7.5524 6.4924
1475.668 5.5024 4.6124 3.8824 3.2724 2.8124 2.4524 2.1624 1.9224 1.6824 1.4824
1494.958 1.3624 1.2424 1.0424 0.9543 0.9337 0.8783 0.8372 0.7601 0.6645 0.6025
1514.248 0.5728 0.5779 0.5238 0.488 0.5078 0.4106 0.3727 0.3754 0.336 0.3383
1533.538 0.3008 0.2647 0.2742 0.3102 0.3082 0.2849 0.2568 0.2494 0.3155 0.2607
1552.827 0.1966 0.2196 0.2434 0.2877 0.2529 0.229 0.2603 0.2568 0.2304 0.261
1572.117 0.2672 0.2408 0.2888 0.2964 0.2634 0.264 0.2562 0.2687 0.2752 0.2835
1591.407 0.264 0.2394 0.3135 0.3377 0.3064 0.3196 0.3698 0.3729 0.3486 0.331
1610.697 0.3047 0.3093 0.3506 0.4166 0.4293 0.4432 0.4952 0.4979 0.4947 0.4776
1629.986 0.4488 0.4704 0.4827 0.4856 0.5299 0.5595 0.5083 0.5222 0.5627 0.5381
1649.276 0.5122 0.5436 0.5742 0.5841 0.5863 0.5916 0.6489 0.6695 0.6738 0.6803
1668.566 0.7057 0.7346 0.7169 0.7149 0.6879 0.7134 0.8103 0.8075 0.8079 0.8264
1687.856 0.8159 0.7837 0.7613 0.8046 0.8397 0.8222 0.8611 0.9239 0.9834 1.0081
1707.146 0.9761 1.0424 1.0624 1.0424 1.1124 1.1424 1.1824 1.2124 1.2324 1.2524
1726.435 1.3024 1.3524 1.4424 1.5324 1.5724 1.6724 1.7824 1.8924 2.0024 2.1424
1745.725 2.3424 2.5124 2.7024 2.9524 3.1924 3.4724 3.7924 4.1324 4.5724 5.0324
1765.015 5.5424 6.1424 6.8124 7.5424 8.3824 9.3324 10.4024 11.6424 13.0924 14.6824
1784.305 16.4924 18.5824 20.8324 23.3724 26.2124 29.2424 32.4024 35.6624 38.9124 42.0324
1803.594 44.7424 46.7724 47.9624 48.1724 47.2924 45.3624 42.5724 39.3024 35.8424 32.3624
1822.884 29.0524 25.9424 23.0424 20.4424 18.0724 15.9724 14.0924 12.4624 11.0024 9.7724
1842.174 8.7524 7.8024 7.0124 6.3424 5.7624 5.2624 4.8524 4.5024 4.1124 3.7824
1861.464 3.5724 3.3924 3.1924 2.9924 2.8324 2.6524 2.5124 2.3724 2.2824 2.1924
1880.754 2.1124 2.0424 1.9124 1.8224 1.7824 1.7324 1.6824 1.5924 1.5724 1.5424
1900.043 1.4924 1.4224 1.3424 1.3324 1.3424 1.3124 1.2824 1.2024 1.1524 1.1724
1919.333 1.1224 1.0824 1.0524 1.0361 1.0524 1.0409 0.9913 0.9855 0.9606 0.9174
1938.623 0.9307 0.9078 0.8388 0.7846 0.7989 0.8397 0.7846 0.7512 0.784 0.7505
1957.913 0.7449 0.7546 0.7461 0.7137 0.6799 0.709 0.7363 0.7336 0.686 0.6614
1977.202 0.6574 0.6591 0.6509 0.6209 0.6208 0.6273 0.6202 0.593 0.6371 0.6707
1996.492 0.6128 0.5779 0.6031 0.625 0.6145 0.6192 0.6296 0.6451 0.6244 0.5859
2015.782 0.5957 0.5662 0.5613 0.6197 0.6449 0.6279 0.6272 0.6441 0.6412 0.6517
2035.072 0.641 0.6297 0.6313 0.6449 0.6499 0.6598 0.5792 0.5985 0.6366 0.5926
2054.362 0.6019 0.5822 0.5873 0.6055 0.6433 0.6691 0.678 0.6978 0.7303 0.7417
2073.651 0.7216 0.7267 0.757 0.7771 0.8291 0.9034 0.9837 1.0724 1.1124 1.1824
2092.941 1.2724 1.3724 1.5024 1.6024 1.7724 1.9624 2.1424 2.3524 2.5824 2.8424
2112.231 3.1424 3.4624 3.6724 3.9224 4.1724 4.3124 4.3524 4.2424 4.0424 3.7324
2131.521 3.3524 3.0124 2.6824 2.3624 2.0724 1.8024 1.6024 1.3924 1.2124 1.1324
2150.810 1.0724 0.9664 0.8414 0.7916 0.766 0.6827 0.6419 0.6845 0.6872 0.6366
2170.100 0.6192 0.5939 0.6049 0.6188 0.5606 0.5091 0.5241 0.513 0.4761 0.5204
2189.390 0.4864 0.4411 0.4722 0.4529 0.4533 0.454 0.4571 0.5072 0.488 0.4693
2208.680 0.5206 0.5516 0.573 0.578 0.5703 0.5568 0.5573 0.5515 0.5393 0.5284
2227.970 0.5175 0.5605 0.5857 0.5895 0.608 0.6298 0.6153 0.6191 0.614 0.5766
2247.259 0.5722 0.5745 0.5549 0.5508 0.5655 0.5686 0.5824 0.6032 0.6107 0.5605
2266.549 0.499 0.466 0.5161 0.6072 0.6061 0.5616 0.5326 0.4586 0.4401 0.5149
2285.839 0.5372 0.5461 0.5434 0.4573 0.4694 0.5689 0.5944 0.6224 0.6256 0.5452
2305.129 0.5248 0.5643 0.5496 0.5319 0.5523 0.5759 0.5562 0.5185 0.5049 0.5503
2324.418 0.5603 0.5155 0.5601 0.5831 0.5706 0.582 0.5538 0.5484 0.5291 0.5213
2343.708 0.5079 0.4723 0.5057 0.5482 0.5287 0.5319 0.5283 0.4882 0.4774 0.5204
2362.998 0.5394 0.5195 0.5524 0.5757 0.5557 0.5282 0.5226 0.5243 0.541 0.5325
2382.288 0.4999 0.5283 0.5509 0.5089 0.5104 0.528 0.5005 0.5094 0.56 0.5729
2401.578 0.5541 0.5547 0.5496 0.5514 0.5416 0.531 0.5034 0.4895 0.4969 0.4974
2420.867 0.4907 0.5219 0.4928 0.4526 0.496 0.5069 0.5016 0.5075 0.5132 0.5041
2440.157 0.5011 0.4941 0.4769 0.4624 0.4712 0.4351 0.4521 0.5113 0.544 0.5534
2459.447 0.5209 0.503 0.4461 0.4216 0.4453 0.4669 0.5177 0.4869 0.5094 0.5438
2478.737 0.5077 0.4992 0.5135 0.5408 0.5383 0.506 0.5014 0.5446 0.5785 0.5797
2498.026 0.6303 0.6183 0.546 0.5375 0.5188 0.5789 0.5737 0.5204 0.5722 0.6593
2517.316 0.6759 0.6853 0.7018 0.6602 0.636 0.6925 0.7346 0.6421 0.6075 0.6224
2536.606 0.6224 0.6793 0.7022 0.7426 0.7982 0.7678 0.7154 0.7183 0.6722 0.6771
2555.896 0.7275 0.7081 0.701 0.7334 0.7951 0.8032 0.7654 0.7298 0.7423 0.7964
2575.186 0.8341 0.8498 0.8333 0.7884 0.7522 0.7731 0.8594 0.902 0.8987 0.8883
2594.475 0.9095 0.9379 0.9304 0.9037 0.8786 0.908 0.9009 0.8975 0.9127 0.9527
2613.765 1.0091 1.0524 1.0524 1.0524 1.1024 1.1224 1.1224 1.1424 1.1124 1.0924
2633.055 1.1524 1.2224 1.2724 1.2224 1.1924 1.3524 1.4024 1.3424 1.3424 1.4024
2652.345 1.3824 1.3424 1.4124 1.3924 1.3924 1.4724 1.4824 1.5124 1.5424 1.6324
2671.634 1.7024 1.6424 1.6724 1.7524 1.6824 1.6724 1.7324 1.7424 1.7424 1.7224
2690.924 1.6924 1.7224 1.7724 1.7624 1.7024 1.6724 1.6624 1.5524 1.4824 1.5224
2710.214 1.5424 1.5624 1.5824 1.5324 1.4724 1.5424 1.5724 1.5324 1.5724 1.6924
2729.504 1.6924 1.6424 1.6524 1.6624 1.6824 1.7024 1.7524 1.7924 1.8324 1.9424
2748.794 1.9524 1.9824 2.0024 1.9224 1.8824 1.8824 1.9124 1.9824 2.0924 2.1324
2768.083 2.1824 2.1924 2.1624 2.2324 2.3424 2.3124 2.3024 2.4324 2.5024 2.5724
2787.373 2.7224 2.8624 2.9724 3.1024 3.2524 3.3824 3.4624 3.5224 3.6424 3.7824
2806.663 3.9024 4.0724 4.3124 4.5324 4.7524 5.0024 5.2124 5.4924 5.7624 5.9924
2825.953 6.3024 6.7824 7.2324 7.6124 8.1724 8.8324 9.6024 10.4824 11.6124 13.1024
2845.242 14.8524 17.0924 19.9624 23.6424 28.2624 33.5824 39.3724 45.0524 49.5824 52.1424
2864.532 52.6224 51.3124 48.6424 45.1324 41.3524 37.8724 34.8324 32.2924 30.3724 28.9524
2883.822 27.8124 26.8224 26.0124 25.4624 25.2924 25.5324 26.2524 27.3824 28.7824 30.6924
2903.112 33.1624 36.0524 39.3624 43.0124 47.1024 51.8624 57.3024 63.5424 71.1224 80.2424
2922.401 90.9624 103.092 115.862 127.852 137.182 142.372 142.732 138.622 130.942 120.922
2941.691 109.752 98.4624 87.5824 77.5224 68.7124 61.2624 55.1424 50.2424 46.3524 43.3924
2960.981 41.2924 39.8024 38.3824 36.9224 35.2024 32.7524 29.7624 26.6124 23.4324 20.5424
2980.271 18.0924 16.0224 14.2724 12.8924 11.7024 10.5124 9.6024 8.8224 8.0524 7.5224
2999.561 6.9824 6.4824 6.1524 5.8024 5.4524 5.1324 4.7924 4.5624 4.3624 4.1224
3018.850 3.9724 3.7624 3.5824 3.3824 3.2424 3.1324 2.9824 2.8924 2.8124 2.7324
3038.140 2.6324 2.5924 2.5324 2.3624 2.2824 2.2724 2.1624 2.0824 2.0424 1.9924
3057.430 1.8924 1.7824 1.7824 1.7724 1.6824 1.6324 1.5424 1.4424 1.4924 1.5524
3076.720 1.5124 1.5324 1.5124 1.3824 1.3124 1.3324 1.4024 1.3624 1.2424 1.1824
3096.009 1.2324 1.2324 1.1524 1.1424 1.1424 1.0424 1.0015 1.1224 1.2124 1.1624
3115.299 1.0524 0.9387 0.9477 0.9571 1.0051 1.0524 1.0001 0.8948 0.8039 0.8607
3134.589 0.9283 0.9509 0.8952 0.8556 0.901 0.9611 0.917 0.8486 0.8662 0.7974
3153.879 0.7798 0.8481 0.8894 0.9116 0.7987 0.7658 0.8205 0.8247 0.8282 0.7931
3173.169 0.7963 0.8022 0.744 0.652 0.663 0.7381 0.7308 0.6876 0.7083 0.7549
3192.458 0.6686 0.6694 0.7177 0.6916 0.7091 0.7101 0.6654 0.6537 0.6029 0.5504
3211.748 0.6291 0.6632 0.7135 0.6008 0.3722 0.4164 0.5318 0.5606 0.5336 0.4947
3231.038 0.5735 0.6173 0.512 0.4309 0.5011 0.5645 0.4836 0.4676 0.4427 0.359
3250.328 0.4199 0.4425 0.3671 0.3629 0.3014 0.2529 0.3525 0.3989 0.3337 0.4015
3269.617 0.5005 0.467 0.5204 0.4769 0.3589 0.3997 0.3811 0.3499 0.4122 0.4019
3288.907 0.4839 0.5526 0.4408 0.4124 0.4595 0.5278 0.5254 0.4721 0.4209 0.4586
3308.197 0.5175 0.5252 0.3974 0.2691 0.2926 0.3365 0.4137 0.4675 0.4547 0.3357
3327.487 0.3528 0.4001 0.4226 0.3415 0.2048 0.3214 0.3114 0.2916 0.3239 0.3024
3346.777 0.3607 0.4027 0.3072 0.2459 0.3082 0.3503 0.3389 0.2452 0.1742 0.1821
3366.066 0.2491 0.2987 0.325 0.3828 0.3878 0.3003 0.3047 0.4309 0.5304 0.5028
3385.356 0.4265 0.3135 0.2793 0.3521 0.3383 0.3116 0.344 0.3722 0.3198 0.1807
3404.646 0.12691 0.1753 0.2085 0.2733 0.2855 0.1865 0.222 0.305 0.3247 0.2648
3423.936 0.194 0.334 0.3585 0.2127 0.1994 0.2149 0.2832 0.338 0.2732 0.2109
3443.225 0.2819 0.2765 0.2058 0.2397 0.2435 0.1727 0.028 0.12217 0.2496 0.2921
3462.515 0.2312 0.1771 0.3123 0.18 0.043747 0.1597 0.1733 0.1203 0.13853 0.2307
3481.805 0.2416 0.2316 0.266 0.1846 0.12652 0.12401 0.09538 0.0319 0.0102 0.11567
3501.095 0.2412 0.2072 0.11339 0.12582 0.268 0.2803 0.1608 0.1454 0.1633 0.1574
3520.385 0.13072 0.2716 0.359 0.3252 0.2392 0.05251 0.14088 0.3124 0.2809 0.2483
3539.674 0.2873 0.27 0.10124 0 0.1499 0.2732 0.2972 0.2998 0.3398 0.3917
3558.964 0.384 0.5333 0.6338 0.5456 0.6251 0.6813 0.5553 0.4136 0.4691 0.6714
3578.254 0.634 0.6574 0.7059 0.7883 0.8801 0.9245 0.9799 0.9392 0.98 0.9328
3597.544 0.9296 0.9947 0.9775 1 0.9957 0.9424 0.9263 0.86 0.7137 0.5992
3616.833 0.6105 0.748 0.7154 0.7051 0.6995 0.7823 0.8125 0.581 0.5648 0.5938
3636.123 0.5468 0.4353 0.4545 0.4755 0.3805 0.3776 0.4904 0.5721 0.5335 0.4758
3655.413 0.4274 0.3665 0.3881 0.4293 0.4159 0.4611 0.4711 0.3771 0.3874 0.4078
3674.703 0.356 0.3728 0.3414 0.2501 0.3272 0.4504 0.4056 0.3615 0.3854 0.3626
3693.993 0.3289 0.2972 0.2311 0.2493 0.3529 0.3523 0.1807 0.1799 0.3275 0.3792
3713.282 0.3213 0.2342 0.2418 0.2469 0.2271 0.2646 0.2989 0.2385 0.1639 0.2063
3732.572 0.3178 0.2943 0.2738 0.3033 0.2855 0.322 0.2214 0.2049 0.1939 0.10152
3751.862 0.3503 0.431 0.2627 0.2389 0.2317 0.2744 0.3435 0.1722 0.12307 0.2051
3771.152 0.2299 0.2516 0.2182 0.2159 0.3077 0.3745 0.3624 0.3865 0.3894 0.402
3790.441 0.3227 0.1473 0.1633 0.2869 0.2614 0.2393 0.2591 0.1822 0.2063 0.2178
3809.731 0.2653 0.3104 0.2209 0.2418 0.3326 0.3053 0.3082 0.3807 0.3061 0.3126
3829.021 0.3149 0.3633 0.3058 0.2687 0.3934 0.2955 0.2815 0.2056 0.0262 0.1802
3848.311 0.314 0.3372 0.39 0.4293 0.4924 0.3967 0.2967 0.3202 0.3162 0.2602
3867.601 0.2482 0.3485 0.327 0.3048 0.2727 0.2495 0.3313 0.393 0.4466 0.3324
3886.890 0.2888 0.369 0.4124 0.4378 0.4139 0.4165 0.3902 0.3787 0.5466 0.4737
3906.180 0.2834 0.4215 0.4262 0.2389 0.2466 0.3885 0.4444 0.4662 0.4387 0.4499
3925.470 0.4598 0.4767 0.5592 0.6915 0.5846 0.5308 0.635 0.556 0.5128 0.5527
3944.760 0.5549 0.3774 0.4817 0.5517 0.4459 0.4438 0.3892 0.3672 0.2035 0.2093
3964.049 0.2901 0.2449 0.363 0.4116 0.4337 0.2794 0.2385 0.3721 0.2842 0.3164
3983.339 0.3784 0.4305 0.5056 0.3624 0.2996 0.282 0.2733 0.3823 0.427 0.4942
##END=
