##TITLE=Dodecanal
##JCAMP-DX=4.24
##DATA TYPE=INFRARED SPECTRUM
##ORIGIN=NIST Mass Spectrometry Data Center
##OWNER=NIST Standard Reference Data Program
Collection (C) 2018 copyright by the U.S. Secretary of Commerce
on behalf of the United States of America. All rights reserved.
##CAS REGISTRY NO=112-54-9
##MOLFORM=C 12 H 24 O
##$NIST SOURCE=MSDC-IR
##SPECTROMETER/DATA SYSTEM=HP-GC/MS/IRD
##STATE=gas
##XUNITS=1/CM
##YUNITS=ABSORBANCE
##XFACTOR=1.0
##YFACTOR=0.000006600
##DELTAX=4.0
##FIRSTX=550.0
##LASTX=3846.0
##FIRSTY=0.000330
##MAXX=3846
##MINX=550
##MAXY=0.066
##MINY=0
##NPOINTS=825
##XYDATA=(X++(Y..Y))
550.0 50 43 46 23 19 26 41 37 23 24
590.0 40 35 15 14 4 9 9 2 28 22
630.0 17 32 26 17 17 31 51 63 68 69
670.0 64 65 74 72 67 73 79 92 112 120
710.0 128 160 177 175 170 165 155 141 132 115
750.0 103 105 104 98 98 92 82 74 76 80
790.0 84 80 71 74 71 62 68 76 71 72
830.0 78 85 95 94 98 100 97 100 102 98
870.0 96 103 101 103 104 105 113 111 104 104
910.0 101 99 105 106 105 110 110 101 100 111
950.0 114 118 125 127 127 129 137 141 145 147
990.0 152 160 166 173 174 174 182 179 175 176
1030.0 169 158 156 157 153 149 149 154 150 147
1070.0 148 144 141 135 126 124 121 116 119 112
1110.0 102 110 116 114 120 119 113 107 97 95
1150.0 95 93 94 97 100 102 96 97 102 97
1190.0 91 94 94 93 93 91 86 86 86 88
1230.0 89 92 96 98 104 108 108 118 120 124
1270.0 134 140 142 147 155 162 170 180 191 200
1310.0 204 203 204 205 212 231 254 287 329 362
1350.0 382 392 384 361 335 318 305 310 335 352
1390.0 352 329 300 279 276 292 314 333 347 352
1430.0 352 364 397 456 538 635 729 802 819 766
1470.0 661 530 399 299 230 178 142 116 98 89
1510.0 79 67 59 55 50 47 45 39 35 33
1550.0 31 30 31 28 24 23 23 23 25 26
1590.0 21 20 23 26 26 27 29 29 31 32
1630.0 38 42 47 52 57 68 74 80 92 108
1670.0 130 154 179 211 251 292 343 405 481 566
1710.0 667 796 970 1214 1540 1964 2485 2968 3160 2942
1750.0 2448 1935 1518 1203 968 795 659 545 458 384
1790.0 321 269 228 194 166 143 123 104 88 77
1830.0 70 63 56 48 43 40 39 34 29 27
1870.0 26 24 21 20 21 19 17 14 11 8
1910.0 10 9 9 11 11 13 11 9 8 6
1950.0 7 9 8 3 3 5 8 5 3 5
1990.0 6 5 5 6 9 6 7 9 9 12
2030.0 11 12 11 11 14 11 7 6 10 12
2070.0 9 4 5 6 5 5 4 3 4 5
2110.0 3 2 3 4 4 6 8 5 4 2
2150.0 1 2 5 5 5 6 6 8 7 5
2190.0 5 6 5 4 6 1 2 4 4 3
2230.0 6 5 4 3 5 8 6 4 2 3
2270.0 4 6 5 4 5 5 8 8 4 1
2310.0 0 2 0 1 3 4 2 0 2 3
2350.0 1 0 1 2 0 0 0 3 1 1
2390.0 5 3 2 2 0 2 5 7 7 4
2430.0 3 2 3 6 7 5 8 7 7 10
2470.0 8 6 7 8 3 3 8 10 9 11
2510.0 16 18 17 20 20 21 25 25 24 25
2550.0 27 34 33 34 38 42 47 51 52 54
2590.0 59 68 74 78 88 98 104 109 121 131
2630.0 144 162 177 193 206 221 245 267 292 323
2670.0 358 391 436 491 561 643 738 874 1050 1221
2710.0 1300 1231 1064 893 766 679 619 578 547 519
2750.0 501 491 479 477 478 483 499 518 559 617
2790.0 684 764 854 952 1034 1085 1086 1042 990 960
2830.0 965 1004 1094 1258 1533 1966 2566 3216 3695 3831
2870.0 3642 3294 2969 2735 2592 2535 2579 2734 3005 3397
2910.0 3932 4657 5656 6987 8458 9615 10000 9514 8406 7030
2950.0 5725 4707 4046 3682 3427 3067 2536 1952 1482 1152
2990.0 924 768 649 553 488 431 385 352 317 280
3030.0 253 235 218 198 181 170 160 151 141 133
3070.0 124 120 114 105 103 93 88 88 83 78
3110.0 75 74 76 74 73 67 62 64 61 62
3150.0 66 67 63 55 48 43 38 38 43 43
3190.0 41 35 37 37 30 32 34 32 28 18
3230.0 13 16 10 9 17 16 14 15 14 14
3270.0 12 10 11 15 15 13 11 5 5 2
3310.0 0 1 6 12 15 16 15 10 13 11
3350.0 9 12 14 10 16 25 24 28 28 25
3390.0 23 19 19 21 25 28 28 26 33 38
3430.0 45 48 48 50 50 56 66 74 74 73
3470.0 72 65 62 64 55 47 50 49 38 33
3510.0 34 26 20 19 14 11 13 21 19 13
3550.0 10 20 24 16 17 20 17 13 18 21
3590.0 22 22 21 24 27 26 27 26 24 24
3630.0 23 22 25 21 24 27 28 32 29 31
3670.0 33 34 33 34 35 33 33 31 28 30
3710.0 39 36 27 32 36 35 38 36 27 27
3750.0 25 24 33 34 35 32 23 18 15 18
3790.0 31 29 17 25 34 35 40 37 31 34
3830.0 37 37 36 35 43
##END=
