##TITLE=Undecanal
##JCAMP-DX=4.24
##DATA TYPE=INFRARED SPECTRUM
##ORIGIN=NIST Mass Spectrometry Data Center
##OWNER=NIST Standard Reference Data Program
Collection (C) 2018 copyright by the U.S. Secretary of Commerce
on behalf of the United States of America. All rights reserved.
##CAS REGISTRY NO=112-44-7
##MOLFORM=C 11 H 22 O
##$NIST SOURCE=MSDC-IR
##SPECTROMETER/DATA SYSTEM=HP-GC/MS/IRD
##STATE=gas
##XUNITS=1/CM
##YUNITS=ABSORBANCE
##XFACTOR=1.0
##YFACTOR=0.000005500
##DELTAX=4.0
##FIRSTX=550.0
##LASTX=3846.0
##FIRSTY=0.000209
##MAXX=3846
##MINX=550
##MAXY=0.055
##MINY=0
##NPOINTS=825
##XYDATA=(X++(Y..Y))
550.0 38 24 39 49 41 27 17 4 0 0
590.0 7 23 32 28 16 18 27 28 28 23
630.0 17 30 37 40 52 61 58 61 66 72
670.0 84 91 94 97 99 103 109 112 127 143
710.0 158 176 186 190 188 176 163 163 165 157
750.0 145 135 128 127 125 116 111 120 122 114
790.0 109 107 108 103 100 100 105 111 119 125
830.0 123 118 123 135 141 137 128 124 129 133
870.0 135 134 135 133 137 139 132 132 138 134
910.0 131 129 127 131 135 143 150 154 162 165
950.0 169 165 161 164 165 169 172 175 182 189
990.0 198 203 205 211 210 209 211 209 207 200
1030.0 187 178 183 189 183 179 178 184 193 189
1070.0 185 186 179 168 163 149 139 134 126 129
1110.0 138 146 145 147 145 136 133 132 133 130
1150.0 130 129 129 136 136 131 129 132 132 129
1190.0 129 126 122 119 120 125 123 117 118 123
1230.0 120 122 121 118 128 136 142 145 152 158
1270.0 163 167 178 186 190 196 202 218 229 233
1310.0 240 243 242 243 254 271 295 329 368 402
1350.0 424 429 419 400 379 361 351 359 385 405
1390.0 408 386 350 332 331 344 364 386 401 406
1430.0 408 414 444 501 584 682 777 850 865 812
1470.0 705 567 443 341 265 212 172 143 126 119
1510.0 102 89 85 79 71 66 65 72 66 54
1550.0 50 52 58 52 48 47 49 45 40 39
1590.0 40 41 43 46 46 47 52 55 57 59
1630.0 60 69 71 74 86 102 113 113 126 145
1670.0 165 191 219 259 304 345 407 488 570 658
1710.0 775 926 1135 1405 1771 2252 2850 3401 3615 3378
1750.0 2819 2228 1755 1392 1122 924 764 639 535 447
1790.0 380 321 272 232 196 169 146 127 112 103
1830.0 96 84 75 72 65 57 54 50 45 44
1870.0 42 37 32 30 29 29 26 25 22 24
1910.0 24 21 20 21 20 19 20 18 18 15
1950.0 11 11 14 16 17 16 14 12 10 12
1990.0 13 12 12 15 17 13 10 13 18 21
2030.0 20 18 17 17 16 14 17 16 10 11
2070.0 14 11 9 11 11 8 9 11 8 6
2110.0 7 6 6 9 7 8 10 8 9 9
2150.0 6 7 11 8 8 9 8 10 10 8
2190.0 9 10 8 5 5 7 3 7 10 9
2230.0 7 3 0 3 8 9 6 8 7 4
2270.0 9 12 9 8 8 10 13 10 7 6
2310.0 9 11 11 13 16 14 16 21 18 17
2350.0 16 16 19 23 24 21 15 13 13 12
2390.0 14 16 16 17 14 16 20 17 14 14
2430.0 14 15 19 19 21 19 20 20 21 23
2470.0 26 26 23 24 23 23 24 25 29 32
2510.0 35 34 35 41 42 40 42 46 49 52
2550.0 49 49 52 55 61 66 69 71 76 81
2590.0 79 83 97 101 107 120 129 139 154 170
2630.0 185 199 219 239 258 277 299 325 351 379
2670.0 418 464 514 576 649 746 869 1024 1222 1407
2710.0 1490 1420 1235 1041 890 782 713 666 631 606
2750.0 583 567 558 552 554 560 577 605 647 704
2790.0 782 879 983 1085 1169 1219 1212 1157 1098 1065
2830.0 1061 1094 1179 1338 1614 2051 2622 3231 3700 3871
2870.0 3744 3453 3157 2934 2791 2717 2748 2896 3156 3544
2910.0 4079 4808 5804 7093 8496 9595 10000 9615 8637 7364
2950.0 6095 5083 4418 4046 3791 3416 2847 2201 1662 1295
2990.0 1040 860 728 625 551 491 438 390 350 323
3030.0 296 266 246 230 210 196 187 174 164 158
3070.0 147 129 122 118 119 120 107 98 102 102
3110.0 91 86 91 89 81 81 80 76 77 72
3150.0 72 67 61 62 62 63 57 46 43 42
3190.0 42 48 49 44 41 33 33 30 23 27
3230.0 30 29 22 15 18 18 20 18 13 14
3270.0 17 18 17 13 5 7 12 13 12 13
3310.0 16 19 17 12 16 21 19 12 9 9
3350.0 8 6 7 8 12 17 21 24 16 12
3390.0 17 17 12 14 21 26 26 24 27 31
3430.0 34 39 42 36 46 59 59 59 68 78
3470.0 76 73 59 49 47 39 28 21 20 15
3510.0 6 5 5 6 11 14 8 10 13 12
3550.0 10 10 5 0 3 5 2 8 17 14
3590.0 5 5 11 11 11 13 9 9 12 21
3630.0 24 19 19 18 23 26 24 24 15 14
3670.0 25 24 21 26 23 19 21 17 10 20
3710.0 26 18 16 15 13 21 29 26 26 26
3750.0 20 21 21 19 24 29 25 19 22 21
3790.0 18 28 35 33 28 16 15 25 23 21
3830.0 22 26 29 25 20
##END=
