##TITLE=10-Undecen-1-ol
##JCAMP-DX=4.24
##DATA TYPE=INFRARED SPECTRUM
##ORIGIN=NIST Mass Spectrometry Data Center
##OWNER=NIST Standard Reference Data Program
Collection (C) 2018 copyright by the U.S. Secretary of Commerce
on behalf of the United States of America. All rights reserved.
##CAS REGISTRY NO=112-43-6
##MOLFORM=C 11 H 22 O
##$NIST SOURCE=MSDC-IR
##SPECTROMETER/DATA SYSTEM=HP-GC/MS/IRD
##STATE=gas
##XUNITS=1/CM
##YUNITS=ABSORBANCE
##XFACTOR=1.0
##YFACTOR=0.000003000
##DELTAX=4.0
##FIRSTX=550.0
##LASTX=3846.0
##FIRSTY=0.000309
##MAXX=3846
##MINX=550
##MAXY=0.03
##MINY=0
##NPOINTS=825
##XYDATA=(X++(Y..Y))
550.0 103 43 19 19 14 50 66 37 53 61
590.0 25 20 43 48 32 44 66 74 88 109
630.0 100 87 76 60 51 28 4 6 23 37
670.0 27 27 44 52 45 38 52 59 55 59
710.0 90 97 99 133 135 94 77 87 69 63
750.0 75 60 55 57 28 32 57 41 30 32
790.0 37 52 29 24 47 52 61 72 78 72
830.0 76 81 88 88 98 137 160 168 176 203
870.0 235 250 266 286 326 390 459 557 707 897
910.0 1061 1113 1016 843 692 587 517 476 454 442
950.0 429 428 444 466 491 516 561 618 694 801
990.0 899 944 954 958 961 994 1052 1129 1215 1314
1030.0 1412 1482 1516 1540 1550 1507 1419 1313 1193 1067
1070.0 945 826 723 630 541 469 405 348 308 269
1110.0 223 196 180 164 152 143 134 120 113 118
1150.0 129 135 137 135 136 147 153 145 151 170
1190.0 168 170 180 195 210 208 215 230 232 226
1230.0 221 214 210 213 219 230 235 241 257 273
1270.0 275 259 250 257 284 302 296 290 288 293
1310.0 305 324 324 304 294 286 334 453 444 411
1350.0 435 445 484 526 455 440 479 471 466 514
1390.0 514 504 472 386 351 319 348 432 397 341
1430.0 368 488 557 545 629 692 830 879 734 634
1470.0 594 565 413 292 282 265 200 174 167 306
1510.0 344 230 232 231 170 131 128 177 221 167
1550.0 115 140 202 111 35 40 38 34 2 0
1590.0 0 2 7 25 42 65 105 139 169 208
1630.0 266 393 449 440 418 377 314 182 121 117
1670.0 130 135 122 169 162 85 120 194 166 94
1710.0 76 155 188 96 61 142 204 142 113 150
1750.0 187 140 103 98 120 132 91 70 94 95
1790.0 109 103 93 117 76 72 93 106 127 158
1830.0 152 123 102 131 128 63 30 34 33 53
1870.0 61 24 21 20 20 30 28 24 9 12
1910.0 22 29 49 39 15 7 8 18 38 28
1950.0 8 14 15 16 29 28 21 21 18 24
1990.0 43 34 19 15 20 21 22 26 17 16
2030.0 18 16 20 24 18 20 23 24 26 24
2070.0 23 20 14 11 16 19 9 7 8 7
2110.0 5 14 16 10 14 15 14 10 13 9
2150.0 5 11 14 9 6 11 14 7 3 10
2190.0 14 13 12 12 5 3 6 7 8 8
2230.0 5 2 5 7 9 6 7 11 11 18
2270.0 20 15 15 17 24 33 36 37 40 46
2310.0 54 60 66 69 62 63 64 63 63 52
2350.0 52 66 68 67 74 72 64 57 42 26
2390.0 16 16 19 15 7 6 13 17 11 9
2430.0 12 15 13 12 10 15 22 17 13 17
2470.0 15 13 16 17 16 13 14 19 18 16
2510.0 19 25 27 27 28 28 28 26 31 32
2550.0 26 26 25 20 24 30 35 35 41 43
2590.0 30 31 41 41 40 42 45 52 53 54
2630.0 57 62 67 69 78 84 86 86 89 94
2670.0 92 104 118 118 115 114 122 126 129 132
2710.0 133 136 137 134 132 129 136 149 154 152
2750.0 154 166 180 188 201 205 206 224 236 245
2790.0 263 284 311 335 362 396 432 472 533 605
2830.0 692 814 979 1215 1556 2015 2581 3155 3571 3699
2870.0 3549 3256 2954 2714 2546 2487 2552 2757 3082 3529
2910.0 4112 4852 5802 7004 8346 9498 10000 9609 8453 6912
2950.0 5398 4151 3214 2550 2077 1731 1485 1300 1157 1040
2990.0 933 846 778 732 697 639 555 472 407 347
3030.0 316 299 278 266 265 275 291 304 328 365
3070.0 411 466 551 645 670 601 460 321 242 192
3110.0 155 130 119 101 90 79 69 69 69 67
3150.0 61 56 56 53 52 52 49 34 22 32
3190.0 35 30 35 37 34 27 23 20 18 20
3230.0 21 18 25 28 20 17 16 12 17 17
3270.0 15 19 23 32 24 16 17 6 9 12
3310.0 12 17 13 18 18 11 13 12 14 9
3350.0 2 12 21 15 10 5 7 15 17 20
3390.0 21 17 16 18 21 23 18 27 27 17
3430.0 22 22 29 30 35 21 21 50 49 28
3470.0 23 28 44 57 51 42 30 57 77 55
3510.0 34 15 20 63 78 36 35 27 52 106
3550.0 57 24 37 79 174 129 28 20 57 154
3590.0 140 71 52 36 100 149 128 137 109 164
3630.0 211 122 102 132 242 327 329 344 347 408
3670.0 477 462 365 249 213 197 133 104 86 75
3710.0 122 121 75 114 135 103 186 156 138 170
3750.0 127 89 38 16 22 32 2 0 0 0
3790.0 0 0 19 40 29 12 22 48 31 8
3830.0 20 61 83 59 17
##END=
