##TITLE=1-Bromohexadecane
##JCAMP-DX=4.24
##DATA TYPE=INFRARED SPECTRUM
##ORIGIN=NIST Mass Spectrometry Data Center
##OWNER=NIST Standard Reference Data Program
Collection (C) 2018 copyright by the U.S. Secretary of Commerce
on behalf of the United States of America. All rights reserved.
##CAS REGISTRY NO=112-82-3
##MOLFORM=C 16 H 33 Br
##$NIST SOURCE=MSDC-IR
##SPECTROMETER/DATA SYSTEM=HP-GC/MS/IRD
##STATE=gas
##XUNITS=1/CM
##YUNITS=ABSORBANCE
##XFACTOR=1.0
##YFACTOR=0.000006600
##DELTAX=4.0
##FIRSTX=550.0
##LASTX=3846.0
##FIRSTY=0.000568
##MAXX=3846
##MINX=550
##MAXY=0.066
##MINY=0
##NPOINTS=825
##XYDATA=(X++(Y..Y))
550.0 86 66 71 100 106 107 99 67 35 29
590.0 24 11 8 10 0 1 10 24 33 31
630.0 42 74 103 127 158 172 154 118 82 55
670.0 44 36 27 27 35 54 63 69 93 120
710.0 140 164 180 183 177 170 160 144 136 129
750.0 119 110 101 98 97 89 79 73 67 65
790.0 71 66 52 55 57 53 55 52 48 47
830.0 42 42 44 47 45 46 49 49 45 48
870.0 54 55 55 56 56 55 52 55 55 49
910.0 46 41 38 39 42 40 37 41 38 35
950.0 36 35 36 39 39 36 41 46 45 47
990.0 49 53 56 56 57 55 56 59 59 57
1030.0 56 58 55 52 49 46 43 40 41 33
1070.0 29 33 31 25 17 20 23 18 19 21
1110.0 14 13 15 23 23 18 20 21 16 21
1150.0 28 25 24 30 35 34 39 46 53 62
1190.0 69 83 105 130 153 179 205 225 247 258
1230.0 261 265 277 294 313 329 346 356 351 339
1270.0 324 306 287 274 269 261 255 249 240 230
1310.0 218 202 183 170 162 165 185 215 238 265
1350.0 293 296 284 263 232 205 185 165 155 141
1390.0 122 108 97 88 88 92 104 120 139 171
1430.0 219 285 370 458 538 603 674 738 742 678
1470.0 569 433 307 222 168 134 108 89 73 68
1510.0 65 57 48 40 34 30 30 28 26 24
1550.0 20 20 17 13 11 13 14 9 6 5
1590.0 5 7 10 13 13 9 7 7 9 9
1630.0 7 6 5 6 10 10 12 13 14 13
1670.0 11 9 11 10 7 7 7 8 6 6
1710.0 8 9 8 7 7 8 7 5 7 9
1750.0 10 8 8 7 8 7 4 7 8 6
1790.0 8 6 8 8 5 6 7 7 8 6
1830.0 5 7 4 5 8 4 0 2 5 8
1870.0 6 3 4 3 5 4 1 3 3 3
1910.0 1 0 4 7 5 5 4 4 4 3
1950.0 2 3 4 5 6 5 1 1 5 5
1990.0 7 7 5 8 8 8 13 16 15 14
2030.0 14 15 16 16 15 15 13 12 13 11
2070.0 9 8 7 8 10 9 5 3 4 5
2110.0 8 8 7 7 7 9 11 9 8 9
2150.0 10 10 11 9 7 7 8 10 10 9
2190.0 9 10 9 10 6 4 6 7 9 10
2230.0 8 6 5 5 7 10 8 7 7 6
2270.0 4 5 7 7 8 9 10 10 9 8
2310.0 7 10 13 8 3 0 2 4 5 6
2350.0 4 1 0 1 4 5 6 7 7 8
2390.0 5 4 4 2 1 4 5 3 7 9
2430.0 8 5 1 3 5 4 5 7 8 5
2470.0 3 4 4 5 6 8 9 8 7 10
2510.0 12 13 16 16 17 19 20 20 20 23
2550.0 20 18 21 22 23 27 25 22 26 28
2590.0 29 31 32 34 38 40 44 48 49 50
2630.0 52 55 60 65 68 69 72 76 81 88
2670.0 89 91 95 96 93 89 89 87 86 83
2710.0 82 85 85 84 84 86 88 90 96 101
2750.0 101 105 110 115 120 127 134 143 156 170
2790.0 185 204 225 245 269 297 333 372 422 485
2830.0 554 646 782 983 1287 1762 2453 3238 3736 3674
2870.0 3225 2717 2340 2115 1990 1955 2022 2209 2519 2946
2910.0 3493 4207 5200 6612 8330 9713 10000 9121 7608 5990
2950.0 4611 3629 3048 2769 2622 2397 2004 1561 1204 952
2990.0 779 656 569 517 490 478 458 405 333 276
3030.0 240 214 194 180 159 141 134 128 121 110
3070.0 101 97 91 84 78 70 64 63 63 64
3110.0 67 66 56 49 51 54 53 51 48 45
3150.0 46 44 43 42 40 37 29 27 31 32
3190.0 32 33 32 29 28 22 22 27 26 22
3230.0 17 17 20 19 17 16 17 17 18 19
3270.0 19 16 12 15 19 16 11 10 13 9
3310.0 5 9 11 6 1 2 8 10 10 12
3350.0 14 11 6 7 8 8 12 12 12 12
3390.0 9 11 12 10 9 10 9 8 10 9
3430.0 11 13 13 7 3 5 7 4 1 3
3470.0 7 2 0 3 0 2 5 10 14 8
3510.0 6 8 6 9 11 5 6 3 2 7
3550.0 4 4 3 2 11 12 4 3 7 11
3590.0 10 9 10 11 16 23 24 19 14 15
3630.0 14 6 9 14 14 19 20 15 11 10
3670.0 14 16 8 5 10 13 12 13 15 17
3710.0 18 14 16 22 15 7 14 19 15 13
3750.0 9 9 9 9 12 17 15 9 8 12
3790.0 12 15 11 7 10 17 13 11 16 12
3830.0 9 13 13 18 17
##END=
