##TITLE=2-Hydroxythiophenol
##JCAMP-DX=4.24
##DATA TYPE=INFRARED SPECTRUM
##ORIGIN=EPA-IR VAPOR PHASE LIBRARY
##OWNER=SRD/NIST
Collection (C) 2018 copyright by the U.S. Secretary of Commerce
on behalf of the United States of America. All rights reserved.
##CAS REGISTRY NO=1121-24-0
##MOLFORM=C 6 H 6 O S
##$NIST SOURCE=MSDC-IR
##STATE=gas
##XUNITS=1/CM
##YUNITS=ABSORBANCE
##XFACTOR=1.
##YFACTOR=0.001
##DELTAX=1.92898
##FIRSTX=549.8
##LASTX=4000.7
##FIRSTY=3.498
##MAXX=4000.7
##MINX=549.759
##MAXY=0.035428
##MINY=0
##NPOINTS=1790
##XYDATA=(X++(Y..Y))
549.759 3.498 3.328 3.338 2.958 2.758 2.568 2.288 2.048 1.848 2.068
569.049 2.198 2.248 1.6629 1.968 2.038 1.808 2.798 3.228 2.048 1.3952
588.339 1.567 2.118 2.178 2.148 2.548 2.798 2.658 1.928 1.6023 1.738
607.628 1.918 2.038 1.998 2.408 2.478 1.1411 1.6423 2.908 2.598 2.498
626.918 2.698 2.338 2.148 2.648 2.028 1.998 3.078 2.508 2.038 1.808
646.208 1.708 2.058 2.288 2.598 2.698 2.418 1.6267 2.298 3.668 3.238
665.498 3.138 3.358 2.868 3.448 4.358 4.738 4.958 4.338 3.778 3.678
684.787 4.098 4.228 3.848 3.758 3.418 3.148 3.558 3.498 3.368 4.308
704.077 4.128 4.008 4.128 3.098 3.518 4.108 4.038 4.458 4.638 5.278
723.367 6.408 7.468 8.978 10.558 11.738 12.508 14.098 16.618 18.778 20.468
742.657 23.028 25.728 29.178 31.488 30.208 26.138 20.548 17.338 16.428 15.558
761.947 14.158 12.468 10.948 9.148 7.398 6.718 5.568 4.138 3.468 3.098
781.236 2.858 2.998 3.058 2.908 3.158 2.728 2.328 2.828 2.518 2.548
800.526 2.998 2.828 2.638 3.208 3.628 3.668 3.138 3.638 4.008 3.588
819.816 3.658 4.638 6.248 6.108 5.838 6.128 6.868 6.788 6.168 6.108
839.106 6.058 5.908 5.108 4.398 3.918 3.358 3.328 3.038 2.768 3.008
858.395 3.088 2.988 3.358 3.048 2.218 2.288 2.308 2.038 2.458 3.068
877.685 2.448 2.218 2.398 2.138 2.298 1.788 1.938 2.498 2.458 2.678
896.975 3.038 3.058 3.268 3.928 4.158 3.968 4.018 4.208 4.128 3.798
916.265 3.518 3.538 3.398 3.208 3.658 3.468 2.858 2.948 3.048 2.528
935.555 2.198 2.478 2.598 2.398 2.188 2.018 1.5328 1.6935 2.148 2.428
954.844 2.188 2.048 2.388 2.318 2.148 1.778 1.6988 1.838 1.5974 1.5456
974.134 1.6767 2.138 2.118 1.6914 2.018 2.398 2.528 2.638 2.628 2.708
993.424 2.778 2.138 1.788 1.978 2.098 1.828 2.388 2.698 2.408 3.118
1012.714 3.858 4.648 6.018 6.368 5.358 5.908 6.498 5.778 4.868 4.498
1032.003 4.548 4.738 4.698 4.718 4.008 3.088 3.658 3.808 3.988 4.118
1051.293 3.338 3.678 4.458 3.888 3.158 2.848 2.748 3.988 5.008 3.988
1070.583 3.938 3.538 3.168 4.298 3.848 2.948 2.848 3.718 2.168 1.868
1089.873 3.288 3.148 3.798 3.678 3.118 3.868 3.628 4.308 4.068 2.748
1109.163 3.938 4.508 5.738 6.858 8.258 6.928 5.438 7.438 8.308 7.958
1128.452 7.848 7.798 7.668 6.938 6.248 6.348 6.358 6.278 6.858 7.508
1147.742 9.048 9.708 9.608 9.908 10.268 12.098 13.458 13.648 13.168 14.128
1167.032 15.288 15.738 16.458 17.458 17.978 17.458 18.158 19.308 20.888 22.758
1186.322 23.658 24.788 26.548 28.128 31.208 32.448 32.788 34.158 33.348 32.888
1205.611 34.578 31.868 28.658 27.828 27.818 27.588 25.218 24.168 20.558 17.148
1224.901 15.508 14.368 14.318 14.778 16.408 15.358 14.178 14.458 15.088 16.148
1244.191 15.688 15.618 15.458 14.828 15.308 15.288 14.198 13.918 14.028 13.378
1263.481 12.488 11.868 11.838 12.668 13.308 13.708 14.988 15.638 16.308 17.388
1282.771 17.488 17.338 17.338 17.258 16.768 16.028 15.468 14.538 13.448 12.038
1302.060 9.998 8.268 7.068 6.528 6.598 6.538 6.198 6.078 6.378 6.708
1321.350 6.988 7.498 8.008 8.288 8.738 9.258 9.398 9.448 9.478 9.228
1340.640 8.878 8.748 8.738 8.198 7.598 7.218 6.708 5.948 5.058 4.348
1359.930 3.848 3.468 3.208 3.158 2.928 2.848 2.938 2.928 2.898 2.838
1379.219 2.938 3.038 3.088 3.098 3.108 3.088 2.948 2.788 2.388 2.278
1398.509 2.538 2.448 2.268 2.108 2.028 2.128 2.288 2.228 2.138 2.228
1417.799 2.228 2.438 2.818 2.928 3.088 3.578 3.958 4.228 4.678 5.298
1437.089 5.838 6.368 6.968 7.718 8.778 9.708 10.558 11.648 12.988 14.518
1456.378 16.388 18.988 21.988 25.438 29.378 32.768 34.898 35.428 34.458 32.898
1475.668 31.848 31.598 31.658 31.128 29.498 26.418 22.318 18.428 15.188 12.588
1494.958 10.528 9.138 8.108 7.168 6.288 5.998 5.788 5.288 4.638 4.118
1514.248 3.808 3.308 2.738 2.528 2.358 2.078 2.168 2.098 1.868 1.948
1533.538 2.058 1.988 2.188 2.258 2.158 2.328 2.638 2.668 2.818 3.408
1552.827 4.058 4.528 5.078 6.068 7.008 7.758 8.998 10.208 11.158 12.028
1572.117 12.488 12.678 12.948 13.688 14.148 14.238 14.028 13.588 12.748 11.798
1591.407 10.938 10.218 9.568 8.578 7.618 6.898 6.068 5.148 4.828 4.638
1610.697 4.028 3.388 3.218 3.108 3.118 2.918 2.498 2.528 2.138 1.908
1629.986 2.018 2.128 2.108 1.6803 1.5802 1.728 1.768 1.888 1.898 1.5215
1649.276 1.3049 1.6424 1.968 2.088 2.368 2.078 2.008 2.268 2.188 2.178
1668.566 2.148 2.378 2.508 2.278 2.278 2.348 2.138 1.908 2.018 2.328
1687.856 2.208 2.078 2.098 1.938 2.028 2.078 2.088 2.208 1.988 1.988
1707.146 2.058 1.948 1.848 1.728 1.738 1.858 1.828 1.6879 1.6392 1.6153
1726.435 1.878 1.898 1.5984 1.706 1.768 1.6773 1.728 1.5909 1.5868 1.778
1745.725 1.898 1.798 1.798 2.018 1.968 1.728 1.6185 1.758 1.868 1.838
1765.015 1.6248 1.828 2.088 1.738 1.5374 1.858 2.178 2.288 2.118 1.838
1784.305 2.038 2.238 2.218 2.278 2.108 1.858 1.848 2.018 2.168 1.998
1803.594 1.7049 1.6599 1.708 1.828 1.808 1.788 1.848 1.818 1.828 1.848
1822.884 1.748 1.5114 1.4804 1.4583 1.4647 1.5209 1.4224 1.5623 1.758 1.788
1842.174 1.6789 1.5429 1.838 1.958 1.6761 1.6235 1.6922 1.728 1.808 1.838
1861.464 1.5853 1.4338 1.4456 1.3619 1.5793 1.6179 1.5219 1.5348 1.5007 1.728
1880.754 1.948 1.798 1.4866 1.5397 1.6686 1.602 1.718 1.918 1.838 1.888
1900.043 2.108 2.058 1.758 1.868 1.858 1.738 1.818 1.878 1.988 2.018
1919.333 2.018 1.908 1.808 1.858 1.908 2.058 1.998 1.728 1.798 1.6053
1938.623 1.4846 1.6774 1.5668 1.4592 1.4174 1.2878 0.9938 0.9051 1.1083 1.328
1957.913 1.3355 1.2427 1.1513 1.164 1.2488 1.0824 0.878 1.1254 1.2343 1.0077
1977.202 1.156 1.3702 1.5029 1.3958 1.0367 0.9218 1.0283 0.8972 0.7255 0.8789
1996.492 0.8801 0.9444 1.1202 0.9987 0.876 0.8884 0.8964 0.9587 1.0619 1.0374
2015.782 1.0781 1.1102 1.133 1.0425 1.0075 1.038 0.9223 1.0085 0.9905 0.9098
2035.072 0.9344 0.9661 1.0082 1.0825 1.2691 1.264 1.0822 1.1591 1.0081 0.9037
2054.362 1.3272 1.3445 1.2812 1.2941 1.0902 1.1525 1.2672 1.1129 1.1822 1.3686
2073.651 1.2632 1.1567 1.2024 1.0009 0.9381 1.1732 1.1232 1.1078 1.1202 1.0455
2092.941 1.0273 1.1157 1.2332 1.1429 1.0862 1.0248 0.9098 1.0926 1.2738 1.2042
2112.231 1.1505 1.1025 1.2165 1.1922 0.9749 1.099 1.2402 1.1661 1.1074 0.8741
2131.521 0.74285 0.9272 1.0473 1.0918 0.9956 1.0424 0.9303 0.8741 0.9985 1.0734
2150.810 1.0546 0.9756 1.0391 0.8564 0.79741 0.9334 1.0839 0.9769 0.70268 0.80777
2170.100 0.75085 0.606 0.73642 0.8852 1.0421 0.8917 0.75998 0.78647 0.8503 1.1617
2189.390 0.9195 0.28 0.25 0.6 0.8665 0.8462 0.8093 0.8468 0.74761 0.9451
2208.680 0.9826 0.9162 0.9983 0.8369 0.8586 1.1744 1.1858 0.9868 0.993 0.73383
2227.970 0.73102 0.8925 0.9214 0.9724 1.1239 1.2765 1.0333 0.9174 1.0016 0.9358
2247.259 0.8272 0.78252 0.74089 0.6886 0.548 0.8802 1.157 1.0707 1.1405 0.8879
2266.549 0.608 0.6596 0.74912 0.79739 0.909 0.9494 0.9939 0.8919 0.8309 0.8211
2285.839 0.78898 0.9616 1.1508 1.2198 1.2701 1.1494 0.9632 1.0808 0.9341 0.79513
2305.129 1.0932 1.3651 1.3925 1.2082 1.1571 1.0754 1.08 1.2468 1.1919 0.9083
2324.418 0.6966 0.708836 0.6307 0.78201 0.8989 0.9375 1.0361 0.8284 0.71846 0.72632
2343.708 0.8689 0.9723 0.74569 0.80243 0.9404 0.505 0.554 0.9575 0.9554 1.091
2362.998 1.1462 1.1229 0.9653 0.6257 0.486 0.6876 0.9668 1.1005 1.012 0.9489
2382.288 1.0433 0.9723 0.70549 0.577 0.875 0.9709 0.8515 0.9982 1.007 1.0437
2401.578 1.3926 1.4327 1.173 0.9125 0.6803 0.9358 1.2761 1.3772 1.2846 1.0434
2420.867 1.131 1.0173 0.8325 1.0898 1.1353 1.0175 1.209 1.2199 0.9406 1.0038
2440.157 1.271 1.1595 0.74157 0.6634 0.8956 1.0432 0.9745 0.928 1.0996 1.2591
2459.447 0.9407 0.511 0.548 0.80356 0.9435 1.0033 1.2373 1.3386 1.2437 1.1531
2478.737 0.9843 0.8964 1.0803 1.2843 1.2807 1.1807 1.1013 1.2995 1.4152 1.0903
2498.026 1.0407 1.1818 1.1502 1.1806 1.0741 0.9945 1.0719 1.0613 1.1004 1.3201
2517.316 1.1789 0.8677 1.0333 1.3589 1.593 1.2759 0.8429 0.8596 1.1309 1.138
2536.606 1.0048 1.0374 1.3048 1.1813 1.057 1.4841 1.5048 1.5192 1.4029 1.3254
2555.896 1.5066 1.5006 1.5232 1.51 1.4722 1.6802 1.5876 1.4219 1.4191 1.1527
2575.186 1.0783 1.0398 0.9846 0.9776 0.6856 0.538 0.78877 1.2921 1.494 1.2608
2594.475 1.019 0.9264 1.0807 1.0434 0.8939 1.1214 1.1302 0.79759 0.6809 0.78207
2613.765 0.9608 1.3019 1.6027 1.1448 0.6887 0.6448 0.8891 1.047 0.7684 0.71981
2633.055 0.75018 0.9148 1.3084 1.2732 0.8743 0.75146 0.9678 1.0888 0.76817 0.409
2652.345 0.376 0.76765 1.0192 0.9934 0.9277 0.7787 1.004 1.3129 1.1903 0.9635
2671.634 0.70082 0.264 0.581 0.9657 0.6775 0.8604 0.8479 0.599 0.75154 0.8661
2690.924 0.8406 0.717754 0.6166 0.595 0.79788 0.8989 0.488 0.344 0.591 0.77698
2710.214 1.0166 1.0066 0.9067 0.564 0.594 0.9388 0.75265 0.44 0.486 0.8635
2729.504 1.0342 0.8783 0.70393 0.9516 1.2353 0.97 0.78059 0.8986 0.7997 0.9031
2748.794 1.134 0.9738 0.8138 0.9783 0.8653 0.43 0.461 0.75636 0.6985 0.515
2768.083 0.9337 1.334 1.2749 0.8758 0.6137 0.751 0.423 0.45 0.82 0.70346
2787.373 0.6908 0.8411 0.75477 0.78978 1.0002 0.8945 0.73861 0.76409 0.80647 0.9152
2806.663 0.6969 0.441 0.384 0.273 0.477 0.76264 0.714311 0.308 0.242 0.514
2825.953 0.562 0.79303 0.902 0.377 0.245 0.269 0.42 0.8109 0.75514 0.6366
2845.242 0.822 0.9064 1.0022 0.9896 0.6504 0.604 0.6452 1.0839 1.0873 0.9655
2864.532 1.096 0.589 0.321 0.417 0.77763 1.0423 0.707759 0.224 0.17 0.554
2883.822 0.6136 0.6759 0.6737 1.0323 1.3766 1.0774 1.0257 0.710923 0.6745 0.76476
2903.112 0.73216 0.322 0.284 0.84 1.0939 1.1819 1.0385 1.0819 0.6704 0.133
2922.401 0.039 0.253 0.603 0.54 0.605 0.6228 0.334 0.298 0.599 0.8473
2941.691 0.6862 0.70901 0.8746 0.518 0.174 0.312 0.543 0.8606 0.6159 0.259
2960.981 0.003 0 0.199 0.213 0.41 0.44 0.492 0.49 0.556 0.78689
2980.271 0.816 0.8497 0.6894 0.508 0.388 0.274 0.8251 1.1735 0.8921 0.6157
2999.561 0.9887 1.2267 0.9174 1.0651 1.3612 1.67 1.918 1.978 2.068 2.328
3018.850 2.528 2.728 2.778 2.888 2.838 2.948 3.348 3.238 3.228 3.518
3038.140 3.708 3.738 3.538 3.358 3.348 3.358 4.068 4.418 3.978 3.818
3057.430 3.778 4.218 4.678 4.878 5.468 5.898 6.708 7.578 8.018 8.318
3076.720 8.148 7.738 7.618 7.628 7.448 7.468 7.138 6.768 6.008 5.118
3096.009 4.518 3.748 3.088 2.598 2.068 1.3465 1.6019 2.188 2.238 1.768
3115.299 1.3151 1.4497 1.4509 1.2598 1.0758 1.2699 1.2537 0.8809 1.5562 1.6711
3134.589 1.4749 1.6898 1.4284 1.035 1.2183 1.4927 1.1765 1.0153 0.9508 1.2737
3153.879 1.1883 0.8262 1.0602 1.0814 0.74964 0.6458 0.75193 0.9661 1.2622 1.2421
3173.169 1.0265 0.79643 0.533 0.8404 1.3155 1.123 0.77053 0.9413 1.2205 1.0833
3192.458 1.1268 1.3102 1.1012 0.528 0.396 0.6413 0.6215 0.72478 1.0332 1.0102
3211.748 0.9476 1.1339 1.2361 1.352 1.0816 0.947 0.80665 0.258 0.595 1.0158
3231.038 1.1838 1.2918 1.3025 1.768 1.6484 1.3658 1.0826 1.0094 1.2691 1.2136
3250.328 0.8719 1.257 1.788 1.1929 1.515 2.308 1.868 1.3737 1.1729 0.72831
3269.617 0.918 1.3052 1.0777 0.707536 0.586 0.488 0.6111 0.7976 0.9554 1.2051
3288.907 0.9291 0.562 1.067 1.3412 0.72611 0.6415 0.73825 0.78382 1.2227 1.4582
3308.197 1.2673 1.3359 1.3711 1.1521 0.79469 0.76025 1.3248 1.4431 1.0863 0.905
3327.487 0.8437 0.72797 0.72788 0.7778 0.8913 1.1956 1.0119 0.844 1.0098 1.139
3346.777 1.1269 0.8722 0.97 1.342 1.1723 0.549 0.6848 1.3652 1.4819 1.6766
3366.066 1.6328 1.1917 0.6806 0.451 0.8843 1.1218 1.4627 1.4879 1.6457 1.858
3385.356 1.4943 1.2026 0.9711 0.77361 0.6146 0.461 0.78891 1.1626 0.6848 0.576
3404.646 1.0436 1.4535 1.908 1.948 1.3546 1.1678 1.4248 1.4638 1.2515 1.2017
3423.936 1.0533 1.0319 1.2125 1.3519 1.6395 1.1448 1.0805 1.2022 0.74355 1.0053
3443.225 1.2024 1.2367 2.108 2.208 1.2644 1.0553 1.593 1.758 1.808 2.198
3462.515 2.128 2.628 3.128 3.058 3.418 4.318 5.368 6.918 8.058 8.758
3481.805 9.968 11.178 12.648 13.608 14.478 15.528 16.338 16.838 17.118 16.708
3501.095 15.828 16.068 16.108 15.268 14.388 13.458 12.768 12.078 11.448 11.238
3520.385 11.008 10.088 9.378 9.158 8.688 7.648 6.928 7.558 7.898 6.818
3539.674 5.928 6.018 6.068 5.938 5.738 5.538 5.418 5.448 4.638 4.188
3558.964 4.528 3.928 3.598 3.498 3.098 2.668 2.258 2.578 3.108 2.618
3578.254 2.278 2.408 2.118 2.138 2.118 1.718 1.418 1.5474 2.028 2.208
3597.544 2.208 1.848 1.788 1.4676 1.4299 2.128 2.318 1.898 1.204 1.4084
3616.833 1.1861 0.76351 0.6414 1.1504 1.708 1.4792 1.6343 1.998 2.188 2.268
3636.123 2.438 2.428 2.848 3.418 3.868 4.548 3.868 3.038 3.458 3.778
3655.413 3.518 3.458 3.308 3.018 3.028 3.138 2.828 2.308 2.098 1.5733
3674.703 1.3721 1.418 1.42 1.6428 1.5699 1.5333 1.2536 1.0751 1.684 1.5237
3693.993 0.8881 1.1678 1.848 1.798 1.3203 1.0724 0.923 0.386 0.546 1.5858
3713.282 1.6323 1.2397 1.0205 0.9374 1.498 1.4309 0.6937 0.6297 1.3113 1.778
3732.572 1.4501 1.2799 1.509 1.6273 1.4624 1.3297 1.3977 1.3812 1.1685 1.3798
3751.862 1.778 1.551 1.6065 1.6444 1.3358 0.595 0.374 0.75567 0.7502 1.1989
3771.152 1.6277 1.6378 1.3619 1.0858 1.3473 1.6126 1.4402 0.8827 0.79104 1.1211
3790.441 1.4208 1.2254 1.3664 1.5405 1.3669 1.538 1.5875 1.2318 0.63 0.79847
3809.731 1.2376 1.0549 0.7879 0.6564 0.501 0.458 0.849 1.4085 1.1072 0.6775
3829.021 0.6229 0.476 0.248 0.261 0.431 0.9768 1.3303 0.9798 0.9814 1.32
3848.311 1.5112 1.6279 1.7029 1.4541 1.4934 1.2912 0.6142 0.482 0.80232 0.559
3867.601 0.185 0.8826 1.5508 1.4598 1.5793 1.3147 1.31 1.1164 0.562 0.8804
3886.890 0.9456 1.0035 0.74205 0.6442 0.8617 1.1112 1.5641 1.1989 0.72491 1.1177
3906.180 1.3059 1.0079 1.1242 1.0138 0.46 0.593 1.065 1.0414 1.0105 1.1095
3925.470 0.7466 0.194 0.6088 1.05 0.9056 1.1665 1.457 1.918 2.108 1.4369
3944.760 1.5012 1.5054 1.1368 0.79645 0.571 0.448 0.458 0.8525 1.2078 1.4045
3964.049 0.435 0.195 0.6444 0.71959 0.9801 0.826 0.6114 0.9053 1.1932 0.7639
3983.339 0.577 1.3302 1.6442 1.113 0.8428 0.9512 0.712045 1.1065 1.4071 1.1779
##END=
