##TITLE=trans-1,2-Cyclohexanediamine
##JCAMP-DX=4.24
##DATA TYPE=INFRARED SPECTRUM
##ORIGIN=EPA-IR VAPOR PHASE LIBRARY
##OWNER=SRD/NIST
Collection (C) 2018 copyright by the U.S. Secretary of Commerce
on behalf of the United States of America. All rights reserved.
##CAS REGISTRY NO=1121-22-8
##MOLFORM=C 6 H 14 N 2
##$NIST SOURCE=MSDC-IR
##STATE=gas
##XUNITS=1/CM
##YUNITS=ABSORBANCE
##XFACTOR=1.
##YFACTOR=0.001
##DELTAX=1.92898
##FIRSTX=549.8
##LASTX=4000.7
##FIRSTY=1.4261
##MAXX=4000.7
##MINX=549.759
##MAXY=0.051976
##MINY=0
##NPOINTS=1790
##XYDATA=(X++(Y..Y))
549.759 1.4261 2.056 2.316 2.086 2.266 2.566 2.186 2.066 2.276 2.156
569.049 2.216 2.426 2.276 2.436 3.186 2.866 2.296 2.246 2.136 2.206
588.339 2.406 2.346 1.876 1.786 1.836 1.726 2.006 2.156 2.016 2.146
607.628 2.496 2.576 2.216 2.116 2.236 2.126 2.036 1.816 1.5997 1.746
626.918 2.296 2.566 2.666 2.656 2.566 2.426 2.396 2.716 2.616 2.566
646.208 2.716 2.706 2.776 2.886 3.126 3.026 2.726 3.046 3.256 3.226
665.498 3.376 3.426 3.396 3.366 3.336 3.556 3.566 3.356 3.466 3.746
684.787 3.866 3.926 4.116 4.096 3.906 3.976 4.146 4.226 4.576 4.706
704.077 4.476 4.796 5.056 5.016 5.186 5.476 5.806 5.796 5.866 6.146
723.367 6.266 6.586 6.896 7.046 7.236 7.326 7.386 7.606 7.996 7.946
742.657 7.926 8.316 8.276 8.356 8.956 9.076 9.176 9.456 9.826 10.236
761.947 10.476 11.016 11.426 11.486 11.736 12.036 12.546 13.236 13.576 13.816
781.236 14.106 14.156 13.946 14.026 14.036 13.816 13.816 13.726 13.616 13.386
800.526 12.946 12.586 12.076 11.886 11.596 10.976 10.756 10.666 10.226 9.786
819.816 9.576 9.396 9.106 9.086 8.876 8.386 8.356 8.276 8.226 8.156
839.106 8.056 7.926 7.996 8.026 7.826 7.586 7.316 7.166 7.156 6.806
858.395 6.556 6.526 6.196 6.106 6.256 5.936 5.356 5.336 5.216 4.866
877.685 4.756 4.726 4.546 4.396 4.456 4.196 3.936 3.886 3.806 3.846
896.975 3.566 3.246 3.376 3.296 2.886 2.726 2.836 2.926 2.936 3.016
916.265 2.786 2.476 2.616 2.786 2.956 2.866 2.766 2.616 2.706 2.956
935.555 2.726 2.666 2.806 2.806 2.836 2.916 2.796 2.736 2.646 2.536
954.844 2.486 2.486 2.426 2.096 2.096 2.166 2.106 2.276 2.406 2.226
974.134 2.136 2.056 1.976 2.236 2.376 2.296 2.176 2.036 2.096 2.206
993.424 2.106 2.266 2.216 2.056 2.126 2.096 2.036 2.156 2.176 2.276
1012.714 2.226 1.986 2.116 2.346 2.246 2.066 1.956 2.196 2.456 2.476
1032.003 2.736 2.946 3.006 2.896 2.876 2.956 2.886 2.706 2.716 2.866
1051.293 2.806 2.836 3.456 3.696 3.376 3.626 4.496 4.876 4.876 4.586
1070.583 4.496 4.726 5.146 5.326 5.646 6.416 6.896 6.746 6.136 5.896
1089.873 5.986 5.956 5.336 4.506 4.316 4.086 3.666 3.486 3.166 3.026
1109.163 2.916 2.866 3.086 2.676 2.216 2.326 1.996 2.046 2.096 1.776
1128.452 1.926 2.206 1.896 1.1913 0.9237 1.1128 1.6002 1.986 1.766 1.3057
1147.742 1.2405 1.3382 1.375 1.5429 1.5951 1.4734 1.2412 1.0741 1.3465 1.4142
1167.032 1.3663 1.1543 1.1888 1.5403 1.3781 1.132 0.8592 0.8389 0.7591 0.526
1186.322 0.246 0.5834 1.2452 0.976 0.7354 1.2371 1.5097 0.71322 0 0.151
1205.611 0.186 0.121 0.446 0.62118 0.445 0.268 0.267 0.278 0.488 0.087
1224.901 0.053 0.466 0.7356 0.8501 0.7897 0.8771 0.9525 1.2831 0.8938 0.7876
1244.191 0.8735 0.8695 1.0061 0.71613 0.65452 0.69512 0.8004 0.8514 0.68646 0.69484
1263.481 0.6608 0.635119 0.65224 0.451 0.466 0.7615 0.9079 0.8847 0.836 0.8513
1282.771 1.0661 1.0384 0.9489 0.9377 1.0383 1.264 1.315 1.3076 1.3227 1.2978
1302.060 1.3484 1.3953 1.4452 1.5265 1.6068 1.646 1.646 1.706 1.696 1.676
1321.350 1.826 1.906 1.876 1.906 1.966 2.086 2.066 2.056 2.086 2.126
1340.640 2.206 2.276 2.396 2.366 2.316 2.326 2.386 2.406 2.436 2.376
1359.930 2.306 2.406 2.446 2.406 2.366 2.396 2.396 2.346 2.426 2.436
1379.219 2.376 2.296 2.166 2.156 2.126 2.086 2.056 1.986 1.896 1.816
1398.509 1.756 1.696 1.656 1.636 1.666 1.636 1.5321 1.5587 1.5093 1.4728
1417.799 1.5626 1.6141 1.636 1.676 1.726 1.906 2.126 2.326 2.616 2.906
1437.089 3.166 3.406 3.656 3.856 4.066 4.396 4.856 5.416 5.926 5.826
1456.378 5.226 4.856 4.756 4.546 4.366 4.156 3.786 3.586 3.546 3.376
1475.668 3.016 2.726 2.576 2.376 2.176 2.096 2.046 1.966 1.836 1.796
1494.958 1.836 1.876 1.936 1.956 1.916 1.846 1.876 1.916 1.766 1.766
1514.248 1.896 1.886 1.886 1.916 1.966 1.956 2.056 2.066 1.926 1.966
1533.538 2.046 2.036 2.086 2.076 2.076 2.136 2.046 1.976 2.076 2.186
1552.827 2.186 2.296 2.346 2.306 2.406 2.436 2.406 2.566 2.666 2.526
1572.117 2.626 2.876 2.916 3.006 3.136 3.256 3.466 3.586 3.666 3.946
1591.407 4.106 4.206 4.456 4.746 5.056 5.286 5.396 5.616 5.866 5.966
1610.697 6.206 6.506 6.626 6.666 6.556 6.396 6.276 6.116 5.836 5.606
1629.986 5.376 5.026 4.606 4.276 3.996 3.726 3.456 3.136 2.816 2.666
1649.276 2.526 2.446 2.256 1.856 1.696 1.656 1.6213 1.5583 1.5052 1.4133
1668.566 1.3107 1.2893 1.2394 1.2145 1.1751 1.093 0.9791 1.0115 1.1339 1.0381
1687.856 0.9455 0.9107 0.8532 0.8398 0.9015 0.9555 0.9957 1.0054 0.9015 0.8537
1707.146 0.8564 0.7752 0.7576 0.7847 0.7684 0.8163 0.8806 0.8819 0.8094 0.8083
1726.435 0.899 0.9161 0.8567 0.7437 0.7316 0.7983 0.8597 0.8557 0.72526 0.72515
1745.725 0.8215 0.7757 0.66803 0.64853 0.68502 0.8574 0.8781 0.7398 0.7489 0.7869
1765.015 0.798 0.8134 0.8158 0.8507 0.8323 0.7716 0.7758 0.8888 0.9346 0.9098
1784.305 0.8811 0.7438 0.68416 0.764 0.8787 0.7921 0.7305 0.7908 0.7928 0.7885
1803.594 0.8657 0.8896 0.7929 0.8058 0.8219 0.7928 0.7969 0.8062 0.7909 0.7392
1822.884 0.8115 0.8508 0.7624 0.70104 0.7599 0.7633 0.7316 0.7841 0.7339 0.7809
1842.174 0.9144 0.8949 0.8083 0.8179 0.8874 0.8823 0.8648 0.8693 0.8132 0.8361
1861.464 0.9019 0.8593 0.8501 0.828 0.7722 0.71394 0.7493 0.8123 0.7301 0.70237
1880.754 0.7924 0.817 0.7958 0.8074 0.8149 0.7978 0.8122 0.757 0.7102 0.813
1900.043 0.7808 0.7984 0.862 0.7864 0.7836 0.7596 0.7429 0.7909 0.7904 0.7391
1919.333 0.7507 0.7649 0.70762 0.66312 0.66426 0.66594 0.633544 0.5815 0.5767 0.67921
1938.623 0.766 0.7929 0.7694 0.7396 0.7435 0.824 0.8245 0.68843 0.5812 0.6153
1957.913 0.63999 0.63837 0.66788 0.70607 0.66407 0.5734 0.6157 0.7374 0.7333 0.62815
1977.202 0.5956 0.5988 0.71342 0.7795 0.71473 0.67224 0.7364 0.7699 0.7373 0.7362
1996.492 0.69735 0.69525 0.67698 0.6135 0.6091 0.64418 0.65004 0.632094 0.64508 0.629803
2015.782 0.5991 0.628738 0.65906 0.5871 0.613 0.65777 0.65467 0.7671 0.71797 0.65847
2035.072 0.6881 0.63995 0.67422 0.7261 0.66728 0.61753 0.66247 0.658 0.6399 0.659
2054.362 0.6183 0.5853 0.5676 0.5561 0.5869 0.64179 0.6664 0.69421 0.7309 0.67779
2073.651 0.71364 0.70461 0.67352 0.70862 0.7344 0.71364 0.6569 0.67943 0.63844 0.6097
2092.941 0.63966 0.71731 0.7263 0.6587 0.626272 0.63209 0.686 0.69935 0.7473 0.66164
2112.231 0.5572 0.634239 0.66643 0.70749 0.68354 0.5355 0.582 0.66978 0.70746 0.7367
2131.521 0.69281 0.70032 0.70412 0.68111 0.6024 0.6059 0.6434 0.67303 0.71659 0.7302
2150.810 0.70076 0.69512 0.6988 0.65238 0.62304 0.6067 0.71191 0.807 0.7859 0.7596
2170.100 0.68715 0.5556 0.5523 0.64489 0.630991 0.6077 0.7569 0.7769 0.64359 0.6016
2189.390 0.70019 0.7754 0.71089 0.7566 0.795 0.7551 0.64562 0.5855 0.6112 0.5971
2208.680 0.5521 0.5547 0.66394 0.6733 0.66067 0.61899 0.635502 0.66986 0.633044 0.64927
2227.970 0.66255 0.7285 0.7346 0.67322 0.70931 0.729 0.69176 0.66339 0.635034 0.6018
2247.259 0.62067 0.63802 0.64761 0.68806 0.67384 0.64663 0.626142 0.63778 0.67426 0.7551
2266.549 0.69402 0.61619 0.6219 0.64784 0.67249 0.628572 0.62298 0.66978 0.8023 0.8112
2285.839 0.7766 0.8397 0.7638 0.69041 0.71559 0.7578 0.7835 0.7447 0.70888 0.7501
2305.129 0.72454 0.70672 0.729 0.69516 0.65936 0.5358 0.5687 0.7542 0.8201 0.812
2324.418 0.7595 0.7292 0.71799 0.70943 0.69936 0.65325 0.7555 0.7513 0.64038 0.67974
2343.708 0.7485 0.8459 0.8304 0.7556 0.71176 0.8322 0.9799 0.8745 0.8113 0.8828
2362.998 0.8639 0.7719 0.76 0.71865 0.65298 0.72193 0.7533 0.7265 0.751 0.7975
2382.288 0.7785 0.65786 0.65241 0.66022 0.63689 0.72243 0.68701 0.67543 0.64429 0.5555
2401.578 0.6166 0.71102 0.7725 0.8295 0.7727 0.7308 0.7442 0.68583 0.71358 0.811
2420.867 0.8746 0.864 0.9088 0.8096 0.72029 0.7941 0.8324 0.7588 0.65308 0.64263
2440.157 0.6122 0.61608 0.5909 0.5835 0.67629 0.67572 0.64558 0.7651 0.7918 0.7414
2459.447 0.7743 0.7359 0.67983 0.69622 0.66936 0.7432 0.8682 0.7848 0.70746 0.67954
2478.737 0.5802 0.5715 0.65393 0.5996 0.63956 0.8299 0.9313 0.8561 0.8364 0.738
2498.026 0.71064 0.8405 0.8573 0.9001 0.765 0.7218 0.8063 0.7826 0.7866 0.8589
2517.316 0.8445 0.7539 0.8191 0.8786 0.8748 0.8887 0.7938 0.7891 0.93 0.9416
2536.606 0.8511 0.8605 0.9136 0.9331 0.9291 0.7995 0.7808 0.9058 0.9757 0.9303
2555.896 0.8635 0.9515 0.9641 0.9313 0.9718 1.024 1.0868 1.0557 0.955 0.9159
2575.186 0.9331 0.9342 0.9203 0.9389 1.0005 1.0172 0.9644 0.9655 0.9999 1.0064
2594.475 1.1312 1.2451 1.3491 1.203 1.0039 1.1644 1.1847 1.1637 1.2848 1.435
2613.765 1.4114 1.3154 1.3171 1.2427 1.1572 1.2094 1.2283 1.2516 1.2174 1.309
2633.055 1.3075 1.0761 1.2158 1.382 1.357 1.373 1.3864 1.3515 1.3234 1.3806
2652.345 1.4689 1.4579 1.4948 1.4404 1.426 1.4956 1.5611 1.656 1.776 1.776
2671.634 1.726 1.696 1.5897 1.552 1.6055 1.746 1.646 1.4318 1.4597 1.556
2690.924 1.604 1.636 1.646 1.5379 1.4771 1.4328 1.3393 1.261 1.2554 1.4195
2710.214 1.4719 1.4408 1.5326 1.5528 1.469 1.4665 1.5111 1.456 1.4393 1.4332
2729.504 1.3858 1.3909 1.4358 1.5259 1.5671 1.636 1.626 1.5431 1.4587 1.5182
2748.794 1.5657 1.5036 1.592 1.656 1.636 1.5372 1.5051 1.666 1.726 1.816
2768.083 1.786 1.6088 1.696 1.876 2.026 2.156 2.206 2.156 2.076 2.206
2787.373 2.416 2.466 2.566 2.666 2.756 2.876 2.946 2.986 3.146 3.296
2806.663 3.296 3.356 3.426 3.726 3.906 3.806 3.876 4.066 4.256 4.456
2825.953 4.636 4.856 5.216 5.536 5.766 6.366 6.996 7.386 7.986 8.876
2845.242 9.876 11.126 12.476 13.556 14.766 16.126 17.296 18.216 18.906 19.446
2864.532 19.886 20.146 19.896 18.866 17.776 16.966 16.176 15.236 14.286 13.216
2883.822 12.036 11.276 10.906 10.506 10.156 10.116 10.216 10.656 11.476 12.376
2903.112 13.486 14.856 16.326 18.026 19.956 22.086 24.596 27.056 29.226 31.476
2922.401 33.716 36.246 39.766 44.856 49.916 51.976 50.556 47.456 44.246 41.396
2941.691 39.156 37.546 35.206 31.656 28.126 24.966 21.746 18.256 14.846 11.726
2960.981 9.006 6.796 5.306 4.336 3.536 2.896 2.316 1.966 1.856 1.726
2980.271 1.5308 1.3695 1.4217 1.4152 1.2983 1.3128 1.244 1.0754 1.0451 1.1422
2999.561 1.2365 1.0393 1.0008 0.9768 0.8604 0.892 0.8149 0.7849 0.8131 0.9253
3018.850 0.9857 0.7879 0.68347 0.7796 0.7999 0.8351 0.753 0.5395 0.62229 0.8731
3038.140 0.9081 0.9185 0.9411 0.9278 0.9232 0.9745 1.0168 0.8798 0.9149 0.9368
3057.430 0.93 0.9336 0.8549 0.8919 0.8625 0.9034 0.9344 0.8654 0.9057 0.7811
3076.720 0.7158 0.635955 0.62012 0.7642 0.786 0.8529 0.8355 0.8016 0.64464 0.52
3096.009 0.5933 0.70022 0.8904 0.9852 0.9657 0.918 0.7783 0.70534 0.7995 0.907
3115.299 0.8837 0.8122 0.71724 0.8631 1.031 0.9117 0.7987 0.7538 0.67751 0.5484
3134.589 0.65021 0.802 0.8329 0.7679 0.5735 0.5451 0.628235 0.7409 0.7958 0.69088
3153.879 0.626652 0.7323 0.8147 0.8403 0.8358 0.7415 0.7694 0.8056 0.8253 0.9168
3173.169 0.7916 0.69954 0.8007 0.8891 0.69478 0.5682 0.65981 0.67303 0.66581 0.7394
3192.458 0.7927 0.7717 0.7654 0.8616 0.8395 0.8052 0.7865 0.7295 0.7968 0.8801
3211.748 0.8865 0.8004 0.7851 0.67893 0.65505 0.67642 0.68612 0.5584 0.64442 0.8282
3231.038 0.7884 0.9161 0.8334 0.7891 0.7362 0.781 0.843 0.792 0.9148 0.939
3250.328 0.9139 0.9171 0.9889 0.9669 0.8639 0.9152 0.9658 0.8883 0.9953 1.0061
3269.617 0.7947 0.7878 0.7714 0.66349 0.70967 0.7669 0.66176 0.632515 0.8322 0.9348
3288.907 0.9594 0.9325 0.8224 0.67453 0.506 0.63728 0.9626 0.9841 0.7808 0.7769
3308.197 0.8645 0.8074 0.8258 1.0009 1.0516 0.9986 0.9109 0.8818 1.0399 1.2526
3327.487 1.2096 1.1251 1.2618 1.0455 0.9469 1.2017 1.1964 1.2223 1.1271 1.0735
3346.777 1.141 1.2244 1.1603 1.047 1.202 1.1124 0.9405 0.8063 0.8231 0.9966
3366.066 0.9858 0.9637 0.8467 0.67445 0.5943 0.499 0.61709 0.8645 0.8907 0.8589
3385.356 1.0351 1.0915 1.1349 1.0677 0.9245 0.9695 0.9534 1.0242 1.1534 1.1707
3404.646 1.0922 0.984 0.9831 1.0622 1.0467 1.0095 1.113 1.0861 1.0276 0.9765
3423.936 0.907 0.8849 0.8968 0.8889 0.7579 0.64456 0.68943 0.8692 0.8782 0.792
3443.225 0.8495 0.7725 0.63998 0.69547 0.582 0.5713 0.72395 0.426 0.267 0.481
3462.515 0.5571 0.5803 0.8569 0.8674 0.72467 0.6019 0.5442 0.8332 0.8715 0.5713
3481.805 0.351 0.5737 0.7885 0.6944 0.5267 0.634671 0.67088 0.5409 0.476 0.502
3501.095 0.5724 0.63812 0.72028 0.648 0.525 0.46 0.6052 0.71525 0.68295 0.5325
3520.385 0.504 0.5817 0.486 0.445 0.497 0.429 0.286 0.444 0.5517 0.372
3539.674 0.447 0.5659 0.484 0.5465 0.65142 0.6128 0.65556 0.559 0.5898 0.66105
3558.964 0.72487 0.933 0.7505 0.5759 0.5528 0.516 0.5872 0.7066 0.7746 0.7355
3578.254 0.70942 0.66743 0.474 0.466 0.7482 0.71515 0.362 0.389 0.64153 0.61901
3597.544 0.6069 0.5549 0.515 0.65543 0.67516 0.8893 0.9649 0.7926 0.578 0.469
3616.833 0.7406 0.71749 0.5721 0.5539 0.494 0.5957 0.64032 0.52 0.67256 0.7711
3636.123 0.5557 0.62122 0.506 0.443 0.6368 0.5726 0.5287 0.65231 0.7289 0.5937
3655.413 0.288 0.238 0.519 0.626341 0.626272 0.64058 0.70808 0.63641 0.6074 0.5745
3674.703 0.361 0.39 0.496 0.394 0.257 0.5585 0.8244 0.7712 0.8397 0.8474
3693.993 0.7281 0.8508 0.8033 0.65215 0.5905 0.501 0.502 0.462 0.515 0.431
3713.282 0.401 0.68873 0.8777 0.8496 0.7311 0.8138 0.8789 0.7692 0.477 0.317
3732.572 0.62166 0.7399 0.8543 0.8782 0.7365 0.7998 0.851 0.69747 0.65163 0.66194
3751.862 0.5825 0.7879 0.9448 0.9137 0.881 0.9142 0.8181 0.69126 0.70304 0.6826
3771.152 0.67118 0.65429 0.61995 0.5331 0.5965 0.7398 0.7545 0.7565 0.7793 0.8711
3790.441 0.9036 0.7248 0.7594 0.7343 0.504 0.62466 0.628816 0.523 0.65782 0.5593
3809.731 0.247 0.193 0.373 0.439 0.25 0.176 0.486 0.491 0.403 0.487
3829.021 0.631759 0.7607 0.62181 0.38 0.349 0.5482 0.504 0.5379 0.69885 0.5963
3848.311 0.52 0.508 0.5966 0.5813 0.5804 0.7679 0.7281 0.5447 0.41 0.343
3867.601 0.66838 0.8006 0.5265 0.486 0.5591 0.7573 0.71334 0.7621 0.9048 0.755
3886.890 0.5924 0.486 0.52 0.581 0.5942 0.7718 0.8692 0.66107 0.477 0.503
3906.180 0.591 0.5846 0.68626 0.71642 0.5694 0.5815 0.7644 0.7903 0.484 0.389
3925.470 0.67948 0.8664 0.7807 0.5501 0.7316 0.7464 0.339 0.271 0.43 0.496
3944.760 0.609 0.7906 0.784 0.8584 0.871 0.63883 0.395 0.506 0.7562 0.747
3964.049 0.68856 0.489 0.62344 0.9208 0.9837 1.0569 0.8375 0.631266 0.72055 0.8463
3983.339 0.467 0.259 0.63723 0.68867 0.5527 0.49 0.5648 0.5619 0.70277 0.9112
##END=
