##TITLE=3-Chloro-6-methylpyridazine
##JCAMP-DX=4.24
##DATA TYPE=INFRARED SPECTRUM
##ORIGIN=EPA-IR VAPOR PHASE LIBRARY
##OWNER=SRD/NIST
Collection (C) 2018 copyright by the U.S. Secretary of Commerce
on behalf of the United States of America. All rights reserved.
##CAS REGISTRY NO=1121-79-5
##MOLFORM=C 5 H 5 Cl N 2
##$NIST SOURCE=MSDC-IR
##STATE=gas
##XUNITS=1/CM
##YUNITS=ABSORBANCE
##XFACTOR=1.
##YFACTOR=0.001
##DELTAX=1.92898
##FIRSTX=549.8
##LASTX=4000.7
##FIRSTY=1.75468
##MAXX=4000.7
##MINX=549.759
##MAXY=0.06693
##MINY=0
##NPOINTS=1790
##XYDATA=(X++(Y..Y))
549.759 1.75468 1.233 0.771 1.74017 2.2787 1.75734 0.722 0 1.135 1.384
569.049 0.779 1.185 1.5768 1.6009 1.005 1.095 1.476 1.377 1.465 1.504
588.339 1.7834 2.5993 2.67 1.42 1.8804 2.1096 1.6573 1.431 1.227 1.919
607.628 2.3304 2.084 1.73484 1.71334 1.8874 2.117 2.4781 2.5189 1.8484 2.2026
626.918 2.5883 2.6386 3.06 2.5155 2.501 2.94 2.91 3.04 3.06 3.55
646.208 4.02 4.41 4.7 4.71 5.06 5.51 5.86 5.46 4.98 5.14
665.498 4.9 4.03 3.42 3.05 2.6219 2.5687 2.0378 1.5957 1.71702 1.74074
684.787 1.9785 1.8942 1.6185 1.8489 1.9617 1.66589 1.47 1.55 1.7832 1.9686
704.077 1.5742 1.28 1.445 1.7722 1.6337 1.233 1.327 1.6226 2.0774 2.1677
723.367 1.8651 1.398 1.097 1.273 1.6142 1.47 1.41 1.76702 2.3071 2.5321
742.657 1.7739 1.549 1.8547 1.468 1.556 1.8091 1.71371 1.7896 2.1392 2.1465
761.947 2.1938 2.5631 2.3428 2.6466 3.45 3.89 3.87 3.86 4.2 4.34
781.236 4.32 4.33 4.63 5.56 5.88 5.8 6.13 6.63 7 6.71
800.526 7.42 9.15 10.3 11.04 12.02 13.15 13.62 14.24 15.2 16.24
819.816 16.78 15.22 13.76 13.99 13.15 11.52 10.66 9.86 9.28 8.21
839.106 6.9 6.4 6.23 5.35 3.92 3.64 3.71 3.11 2.99 3.12
858.395 2.77 2.4471 2.4419 2.4788 2.464 2.5048 2.1157 1.566 1.501 1.8968
877.685 2.1919 1.9812 2.0847 2.0096 1.74398 2.0924 2.1351 1.542 1.379 1.5767
896.975 1.544 1.8675 2.2801 2.3409 2.2581 2.1041 2.1541 2.0035 1.6378 1.9009
916.265 2.1448 1.6979 1.71634 2.3492 2.336 1.6197 1.8525 2.319 1.8855 1.9059
935.555 2.4158 2.6027 1.8842 1.569 1.8328 2.2263 2.3919 2.5377 2.6498 2.3758
954.844 2.76 2.87 2.6581 2.3774 2.0451 2.1424 2.6376 3.29 3.26 3.49
974.134 3.18 2.4904 3.39 3.83 3.44 3.31 3.69 3.53 2.72 2.2615
993.424 2.468 3.17 3.32 2.81 2.5043 2.5331 2.8 3.2 3.44 3.62
1012.714 4.05 4.33 3.71 3.74 4.71 5.38 6.03 6.78 7.61 8.4
1032.003 8.53 8.84 9.94 9.94 9.18 9.62 10.41 10.77 11.65 12.15
1051.293 11.65 11.39 12.06 12.09 11.13 10.38 10 10.38 9.64 8.29
1070.583 7.58 7.23 7.08 5.6 3.88 4.17 4.65 4.88 4.8 4.21
1089.873 3.32 2.94 4.38 4.45 3.53 3.6 3.82 4.58 5.02 5.29
1109.163 5.57 5.99 6.17 6.21 7.79 9.41 10.28 11.12 13.86 17.28
1128.452 20.59 24.29 30.86 38.34 44.35 50.03 53.62 54.49 55.29 55.54
1147.742 53.71 51.25 47.34 41.15 33.72 26.02 19.24 13.63 9.24 7.51
1167.032 6.58 5.47 5.12 4.82 4.75 5.09 5.06 4.72 4.03 2.6508
1186.322 1.8933 2.85 3.67 3.43 4.01 5.07 4.5 3.29 2.82 3
1205.611 4.25 5.15 4.56 3.58 3.67 5.28 6.28 6.54 8.24 9.19
1224.901 8.55 9.21 9.83 9.18 8.51 7.55 7.16 6.31 4.38 2.99
1244.191 2.5625 2.4533 2.3018 2.0132 1.477 1.431 1.395 1.42 0.817 0.07
1263.481 0.3 0.949 1.317 1.038 1.015 1.197 0.989 1.038 1.183 1.29
1282.771 1.095 0.98 1.122 0.993 1.323 1.8422 1.6204 1.552 2.0595 2.1737
1302.060 2.1321 2.1363 2.3267 2.79 3.08 2.99 2.87 2.85 2.9 2.85
1321.350 2.78 2.7 2.6422 2.7 2.69 2.5118 2.3538 2.3044 2.2379 2.2435
1340.640 2.2152 2.1777 2.234 2.3031 2.5538 2.71 2.5667 2.7 2.92 3.08
1359.930 3.2 3.25 3.44 3.55 3.95 4.43 4.86 5.46 6.14 6.94
1379.219 8.08 9.76 11.91 14.79 18.37 22.67 28.03 34.11 40.82 48.18
1398.509 55.3 61.47 65.67 66.93 66.02 64.19 61.79 58.83 55.06 49.7
1417.799 42 32.93 25.21 19.28 15.34 13.17 11.62 10.74 10.38 10.21
1437.089 9.99 9.75 9.76 9.79 9.58 9.37 9.19 8.95 8.72 8.25
1456.378 7.72 7.25 6.64 6.39 5.98 5.41 5.51 5.37 5.06 4.76
1475.668 4.44 4.5 4.67 4.51 4.32 4.27 4.03 4.05 4.07 3.86
1494.958 3.96 4.01 4.08 4.27 4.23 4.2 4.29 4.43 4.65 4.89
1514.248 5.29 5.69 5.99 6.35 6.84 7.54 8.01 8.3 8.72 9.04
1533.538 9.38 9.75 9.86 9.73 9.35 8.76 8.26 7.95 7.94 7.48
1552.827 6.8 6.08 5.51 5.31 5 4.96 5.02 4.95 5.05 4.65
1572.117 4.18 4.22 4.17 4.27 4.32 4.26 4.12 3.9 3.55 3.35
1591.407 3.02 2.83 2.83 2.6291 2.3368 2.1904 2.3845 2.5178 2.4419 2.2652
1610.697 2.3831 2.2335 2.0449 2.1828 2.357 2.4205 2.2735 2.2145 2.3093 2.1921
1629.986 2.0788 2.2266 2.1733 2.0919 2.2304 2.4152 2.494 2.4204 2.2108 2.1567
1649.276 2.2049 2.1598 2.0769 2.1344 1.9717 1.8164 2.1249 2.2126 2.2266 2.1171
1668.566 1.8334 1.8819 2.0704 2.0738 2.0136 2.1304 2.1717 2.0601 1.8762 1.8876
1687.856 2.0573 2.1059 2.0988 2.0492 1.9743 1.89 1.8685 1.8291 1.72081 1.69652
1707.146 1.7947 1.8574 1.8131 1.71704 1.8546 1.8947 1.69945 1.8064 1.8854 1.8159
1726.435 1.74814 1.73246 1.73401 1.441 1.255 1.568 1.76068 1.66911 1.69463 1.8263
1745.725 1.73877 1.7624 1.76797 1.67661 1.776 1.8785 1.9459 1.8484 1.773 1.8687
1765.015 1.8687 1.75465 1.7784 1.8908 1.9311 2.0044 2.004 1.9559 1.9856 2.1374
1784.305 2.1822 2.1051 2.0563 1.9605 1.9754 2.0874 2.0841 2.0306 2.0282 2.028
1803.594 1.986 1.76394 1.7729 1.8978 1.9618 1.919 1.8229 1.8109 1.71667 1.8857
1822.884 1.9561 1.933 2.0153 1.8738 1.72656 1.8062 1.8626 1.8361 1.819 1.8082
1842.174 1.7151 1.8097 2.0858 2.0162 1.889 1.8361 1.71145 1.75772 1.9518 1.9966
1861.464 2.0413 2.0118 1.7818 1.85 1.8488 1.8018 1.8558 1.8412 1.8607 1.9013
1880.754 1.9131 1.8391 1.8871 1.8989 1.8964 1.9914 1.8589 1.8264 1.8526 1.7622
1900.043 1.9272 1.8646 1.7735 1.895 1.8864 1.9474 2.1658 2.3149 2.4779 2.5514
1919.333 2.4842 2.4818 2.4294 2.4855 2.6497 2.71 2.6607 2.628 2.6047 2.6521
1938.623 2.5863 2.3297 2.3119 2.3399 2.3318 2.2236 2.1306 2.2004 2.2253 2.0835
1957.913 1.9464 2.121 2.1403 1.9868 1.9224 1.9659 1.9798 1.8693 2.0066 1.9542
1977.202 1.72874 1.72895 1.8302 1.8128 1.7948 2.0347 2.0718 2.0031 1.9496 1.8776
1996.492 1.9617 2.0388 1.9804 2.0019 1.943 1.7888 1.8334 2.013 1.9031 1.8029
2015.782 1.8014 1.9218 2.0077 1.8339 1.9148 1.9838 2.1471 2.1747 1.9347 1.8967
2035.072 2.0646 2.0611 1.9331 1.9404 2.031 2.0635 1.76988 1.76314 2.0722 1.9995
2054.362 1.8255 1.8439 1.8661 1.74357 1.71312 1.8182 1.8167 1.9124 1.9792 2.0546
2073.651 2.0813 1.9591 1.9649 2.0323 2.033 1.9597 1.9048 1.8973 1.9239 2.0482
2092.941 2.0513 2.0231 2.0566 2.0899 2.1261 2.1204 2.1022 1.9892 1.907 1.8849
2112.231 1.8633 1.8703 1.9582 2.0136 2.0722 2.0927 2.1145 2.1446 2.0992 1.991
2131.521 2.01 2.0185 1.8728 1.7896 1.8068 1.9223 2.0519 2.0114 1.9557 1.7794
2150.810 1.6938 1.8559 1.8879 1.9237 1.8687 1.9673 2.2029 2.1918 2.2189 2.2851
2170.100 2.1608 2.1389 2.2504 2.3347 2.3374 2.3452 2.3568 2.2406 2.2825 2.4453
2189.390 2.5263 2.4065 2.1576 2.112 2.2058 2.2097 2.1377 2.1512 1.9236 1.69006
2208.680 1.8096 1.9006 1.9688 2.1681 2.1561 1.8987 1.8924 1.9553 1.881 1.9613
2227.970 2.0313 1.978 1.9756 1.9361 1.8293 1.8177 1.815 1.997 2.3304 2.2046
2247.259 2.0776 2.1698 2.2479 2.2991 2.1514 1.8834 1.832 2.0557 2.183 2.2614
2266.549 2.1523 2.2038 2.4351 2.2626 2.196 2.2606 2.3231 2.286 2.1529 2.195
2285.839 2.2364 2.1643 2.2892 2.2935 2.0411 2.1466 2.2507 2.2549 2.1993 2.1149
2305.129 1.983 1.9567 2.0759 1.9449 2.0501 2.2569 2.191 2.2748 2.4144 2.0755
2324.418 1.8625 1.9095 2.0776 2.268 2.0883 1.9506 1.9262 1.9386 1.8389 1.72425
2343.708 1.8061 1.8454 1.8732 1.8659 1.74786 1.69268 1.8318 2.0949 2.2908 2.2037
2362.998 1.9794 2.091 1.985 1.8133 2.015 2.0986 2.2279 2.15 1.8581 1.8309
2382.288 2.1122 2.2338 2.1116 1.9697 1.853 1.9247 1.9029 2.0309 2.029 1.9646
2401.578 2.0481 2.054 2.0787 2.2516 2.2224 2.1025 2.1037 1.9914 2.2496 2.1852
2420.867 1.6504 1.73702 2.3385 2.3308 2.1783 2.1926 2.1097 2.0597 2.0245 2.2164
2440.157 2.3306 2.2179 1.9239 2.0289 2.3774 2.2031 1.9867 1.9204 2.2443 2.4465
2459.447 2.3424 2.6518 2.4626 2.2746 2.4166 2.0984 1.9109 2.0415 2.189 2.4091
2478.737 2.2402 1.9536 1.928 1.73126 1.8654 1.8481 1.7392 2.0527 2.1399 2.1091
2498.026 2.2516 1.9203 1.6434 1.8911 2.0862 2.096 2.1711 2.1316 2.0908 2.0688
2517.316 1.9767 2.2639 2.3208 2.3519 2.69 2.6634 2.5276 2.5885 2.4627 2.3792
2536.606 2.3023 2.3458 2.2611 2.2264 2.4912 2.4128 2.4835 2.4503 2.0494 1.6443
2555.896 1.6261 1.9617 2.1541 2.1387 1.8759 1.991 2.066 1.9646 2.0915 1.8924
2575.186 1.9597 1.9901 2.0879 2.1191 1.8728 2.1734 2.2744 2.115 2.1379 2.0738
2594.475 1.9542 1.9621 1.8558 2.0186 2.2226 2.1926 1.9987 1.8711 1.75335 1.72785
2613.765 2.0791 2.2158 2.171 1.9618 1.6498 1.8516 1.9706 1.9753 1.9759 1.75769
2633.055 1.75476 1.71063 1.8217 1.8978 1.8321 1.7976 1.8698 2.0265 1.9121 1.7765
2652.345 2.0505 2.4254 2.2094 1.9318 1.9823 2.1075 2.1743 2.062 2.0481 1.9774
2671.634 2.2038 2.3376 1.8739 2.0288 2.6537 2.4099 2.0764 2.282 2.468 2.2443
2690.924 1.9385 2.0849 2.1627 2.0482 1.8902 1.9343 1.9383 2.0374 2.1794 2.1418
2710.214 2.3139 2.3124 2.2662 2.1494 2.001 2.1498 2.1987 2.1875 2.4551 2.5043
2729.504 2.0529 2.1863 2.335 2.1289 2.25 2.1714 2.0945 2.1958 2.079 1.9615
2748.794 2.0679 1.9253 1.72974 1.8856 1.8831 1.9517 2.0688 1.8966 1.8073 1.8135
2768.083 1.9283 2.2284 2.1937 1.9093 2.0704 2.2899 2.1913 1.9935 1.8983 2.0185
2787.373 2.0226 2.078 2.2577 2.0439 2.0964 2.268 2.222 2.2577 2.1317 2.029
2806.663 2.1314 2.0616 1.9938 2.1385 2.0711 2.0353 2.1603 2.3732 2.3294 2.0471
2825.953 2.2916 2.6295 2.4227 2.4059 2.4828 2.2887 2.4041 2.3603 2.361 2.501
2845.242 2.5021 2.83 3 2.97 3.06 2.97 3.05 3.28 2.93 2.69
2864.532 2.95 3.29 3.24 2.94 3.07 3.07 3.2 3.46 3.22 3.34
2883.822 3.62 3.4 3.26 3.01 3 3.4 3.4 3.56 3.52 3.28
2903.112 3.47 3.45 3.56 3.34 3.1 3.43 3.61 3.89 4.3 4.64
2922.401 4.84 5.25 5.89 6.16 6.49 7.22 7.81 7.93 7.95 8.22
2941.691 8.13 7.97 7.67 6.89 6.56 6.36 5.58 5.1 5.01 4.64
2960.981 4.43 4.35 4.03 4.03 4.19 3.95 3.49 3.33 3.41 3.25
2980.271 3.09 2.89 2.86 2.94 3.01 3.01 2.84 2.5351 2.5487 2.82
2999.561 2.76 2.5744 2.5993 3.06 2.89 2.93 3.39 3.34 3.74 3.86
3018.850 3.64 3.45 3.57 3.99 3.75 3.64 4.16 4.25 4.05 4.55
3038.140 5.07 5 4.99 5.08 5.18 5.43 5.53 5.31 5.19 5.39
3057.430 5.18 4.93 4.9 4.64 4.12 3.96 3.87 3.71 3.89 3.97
3076.720 3.86 3.47 3.33 3.21 3.07 3.06 3.19 2.97 2.69 2.6299
3096.009 2.77 2.81 2.5827 2.2189 1.9761 1.8559 1.7849 1.9684 1.9922 1.9383
3115.299 2.2928 2.94 2.9 2.4909 2.3528 2.1998 2.0517 2.0394 2.0252 2.0319
3134.589 2.1185 2.0865 1.8101 1.6445 1.6096 1.8063 2.0465 2.2855 2.1367 1.74234
3153.879 1.9751 2.4866 2.5068 1.9892 1.569 1.71571 2.0665 1.998 1.7853 1.7688
3173.169 1.67715 1.445 1.5922 1.422 1.7052 2.3199 1.9588 1.6382 1.67412 1.6029
3192.458 1.495 1.402 1.359 1.67467 2.1163 2.2326 1.9647 1.68884 1.8164 1.8752
3211.748 1.7863 2.1806 2.1038 1.55 1.7703 1.9024 1.68551 1.66137 1.75162 1.591
3231.038 1.436 1.6014 1.7712 1.9809 1.9558 2.0134 1.8238 2.0282 2.4061 1.9873
3250.328 1.70709 1.8338 2.1673 2.0899 1.9344 1.8086 1.543 1.69728 2.1153 2.1145
3269.617 1.245 1.065 1.9059 2.0482 1.76302 1.8126 1.646 1.391 1.028 1.03
3288.907 1.6016 1.72442 1.805 2.0291 2.2597 1.9481 1.554 1.519 1.9041 2.0684
3308.197 1.551 1.202 1.239 1.6087 1.8129 1.69501 1.529 1.814 1.8481 1.327
3327.487 1.416 2.1434 2.207 1.8305 1.981 2.0712 1.9252 2.0631 1.842 1.448
3346.777 1.429 1.6061 1.522 1.518 1.73841 1.8289 2.0707 2.2772 1.8709 1.455
3366.066 1.72138 1.9821 1.69297 1.218 1.072 1.73219 2.303 2.086 1.8388 1.55
3385.356 1.454 1.9754 1.9566 1.5984 1.67379 1.8361 2.2049 2.6056 2.4708 2.0143
3404.646 2.1186 2.3537 1.8112 1.207 1.508 1.76394 1.8309 1.9418 1.554 1.527
3423.936 2.1643 1.8603 1.6044 1.8787 1.836 1.351 1.22 1.71766 1.6186 1.528
3443.225 1.493 1.76431 1.9385 1.8346 2.1479 2.5964 2.79 2.3473 2.1487 1.423
3462.515 1.048 1.6174 1.8407 1.9753 2.171 1.9703 1.5892 1.8166 1.9268 1.5772
3481.805 1.41 1.5772 1.519 1.5717 1.524 1.428 1.199 1.155 1.451 1.087
3501.095 1.263 1.68599 1.7934 1.72058 1.8047 2.0541 1.7926 1.351 1.401 1.68119
3520.385 1.5 1.402 1.292 1.5812 2.0106 1.8673 1.9551 1.8959 1.457 1.505
3539.674 1.67005 1.411 1.75771 2.3464 1.66265 1.277 1.5896 1.7878 1.8116 1.507
3558.964 1.307 1.8098 2.006 1.7832 1.998 1.9091 1.399 1.043 1.398 1.70313
3578.254 1.5739 1.75398 2.012 1.5975 1.291 1.362 1.342 1.74608 2.0393 1.803
3597.544 1.376 1.516 1.6185 1.42 1.226 1.192 1.8985 2.2206 2.1473 2.1864
3616.833 1.58 0.855 1.084 1.35 1.15 1.269 1.286 1.394 1.61 1.7986
3636.123 2.2152 1.9959 1.9684 1.8544 1.429 1.5762 1.6477 1.463 1.368 1.231
3655.413 1.43 1.67776 1.70424 1.521 1.543 2.0231 1.7955 1.36 1.6019 1.8835
3674.703 1.8386 1.8066 1.9166 1.543 1.365 1.409 1.375 1.66009 2.1338 2.1033
3693.993 1.9014 2.0706 2.1638 2.0449 1.6568 1.543 1.8524 1.6297 1.379 1.6936
3713.282 1.7867 2.0454 2.67 2.3533 1.8117 2.1363 1.68608 1.283 1.75068 1.239
3732.572 1.06 1.8141 1.307 1.046 1.5713 1.5753 1.504 1.6238 1.74891 1.72395
3751.862 1.66251 1.5859 1.459 1.8682 2.1216 1.7745 1.8804 1.75184 1.68936 1.515
3771.152 1.018 1.187 1.35 1.034 0.911 1.562 2.0505 1.9991 2.1237 2.2458
3790.441 2.2884 2.2625 1.9605 1.7842 1.371 1.448 1.9965 1.68999 1.4 1.8645
3809.731 1.9746 1.8597 2.371 2.3871 2.2318 2.1537 1.872 2.0018 2.107 2.113
3829.021 2.3302 2.2446 1.66755 1.70864 2.0237 1.6107 1.047 1.486 1.8039 1.477
3848.311 1.6165 1.66866 1.7893 2.0348 2.009 1.913 1.273 1.11 1.174 1.23
3867.601 1.235 1.024 1.70043 2.1268 1.8372 1.71848 1.7769 1.74531 1.74164 1.72272
3886.890 1.285 1.189 1.528 1.362 1.126 1.274 1.8813 1.9429 1.67483 1.69022
3906.180 1.5701 1.498 1.6598 1.867 1.6261 1.389 1.7914 2.3283 2.6033 2.2684
3925.470 1.9523 2.035 2.2782 2.3271 1.9079 1.74402 1.71749 1.76551 2.1217 2.6563
3944.760 2.71 2.3735 2.2959 1.9038 1.446 1.6161 1.884 2.2039 1.9385 1.7956
3964.049 2.1129 1.9192 1.75473 2.3271 2.5802 1.5733 0.856 0.77 1.339 1.9076
3983.339 1.9015 1.9395 1.631 1.66487 2.0085 1.66805 1.463 1.426 1.52 2.3262
##END=
