##TITLE=Dichloromaleic anhydride
##JCAMP-DX=4.24
##DATA TYPE=INFRARED SPECTRUM
##ORIGIN=NIST Mass Spectrometry Data Center
##OWNER=NIST Standard Reference Data Program
Collection (C) 2018 copyright by the U.S. Secretary of Commerce
on behalf of the United States of America. All rights reserved.
##CAS REGISTRY NO=1122-17-4
##MOLFORM=C 4 Cl 2 O 3
##$NIST SOURCE=MSDC-IR
##SPECTROMETER/DATA SYSTEM=HP-GC/MS/IRD
##STATE=gas
##XUNITS=1/CM
##YUNITS=ABSORBANCE
##XFACTOR=1.0
##YFACTOR=0.000001200
##DELTAX=4.0
##FIRSTX=550.0
##LASTX=3846.0
##FIRSTY=0.001019
##MAXX=3846
##MINX=550
##MAXY=0.012
##MINY=0
##NPOINTS=825
##XYDATA=(X++(Y..Y))
550.0 849 718 602 508 439 514 551 508 373 270
590.0 315 394 409 332 278 259 326 329 272 251
630.0 262 334 355 284 282 258 242 206 168 213
670.0 264 253 251 248 245 288 328 369 431 457
710.0 382 494 623 802 880 619 534 517 381 253
750.0 235 245 198 212 228 234 278 297 301 323
790.0 336 323 233 181 176 120 177 250 245 217
830.0 215 181 156 173 124 133 203 326 509 718
870.0 1005 1271 1407 1379 1180 917 716 668 800 1109
910.0 1549 2065 2588 3007 3086 2889 2421 1670 980 571
950.0 414 311 248 195 178 199 219 230 270 455
990.0 716 926 1111 1156 1009 776 491 254 154 117
1030.0 29 13 74 92 119 173 180 213 189 171
1070.0 229 120 26 103 168 217 256 252 295 360
1110.0 361 394 441 482 562 586 555 609 664 700
1150.0 791 884 911 967 1160 1342 1548 1827 2103 2324
1190.0 2456 2455 2340 2246 2191 2116 2118 2340 2643 3008
1230.0 3419 3791 3912 3676 3192 2519 1828 1286 1025 904
1270.0 813 756 714 685 630 546 507 497 491 496
1310.0 483 468 478 482 484 511 529 531 547 533
1350.0 503 491 468 429 396 376 359 342 349 350
1390.0 346 323 320 344 336 314 283 264 255 219
1430.0 192 149 129 127 116 115 86 73 105 108
1470.0 90 102 126 142 136 128 118 96 77 59
1510.0 61 71 77 85 76 81 100 96 101 129
1550.0 140 115 119 162 166 161 172 206 215 236
1590.0 307 371 483 648 832 1036 1194 1243 1181 1032
1630.0 808 582 409 297 230 172 147 147 128 111
1670.0 116 134 158 152 136 171 191 195 203 208
1710.0 234 234 220 243 264 239 212 224 235 225
1750.0 222 254 304 363 434 503 634 826 1103 1623
1790.0 2539 4094 6282 8457 9778 10000 9160 7201 4698 2966
1830.0 2250 1869 1563 1293 1022 796 690 684 729 772
1870.0 824 918 1017 1078 1102 1081 1025 901 747 612
1910.0 477 383 345 349 355 351 352 326 275 226
1950.0 194 167 132 116 109 88 98 120 110 89
1990.0 83 81 90 107 104 84 74 95 109 117
2030.0 105 85 76 78 83 79 81 86 84 72
2070.0 64 67 66 81 89 93 95 89 92 100
2110.0 116 118 129 144 141 124 100 82 81 79
2150.0 87 129 130 118 99 73 77 50 15 15
2190.0 29 45 26 8 26 48 27 19 44 35
2230.0 14 7 7 4 28 29 3 17 40 66
2270.0 75 69 40 9 12 41 61 71 112 145
2310.0 164 183 200 225 229 233 219 178 185 182
2350.0 183 230 258 268 248 206 189 165 126 87
2390.0 55 43 45 46 44 46 57 59 32 8
2430.0 26 73 60 37 49 62 74 107 88 50
2470.0 47 43 47 40 38 48 68 70 36 0
2510.0 15 51 55 56 68 56 49 58 64 26
2550.0 46 79 53 63 44 31 48 51 56 37
2590.0 34 55 68 65 61 31 4 30 47 42
2630.0 42 52 46 34 65 72 45 47 60 54
2670.0 33 51 94 94 68 80 64 61 103 103
2710.0 83 67 56 55 59 47 61 64 39 41
2750.0 40 78 96 97 55 35 72 70 56 29
2790.0 11 15 27 27 31 50 71 64 39 46
2830.0 21 15 61 53 24 38 28 20 52 70
2870.0 57 33 47 38 23 91 102 78 108 61
2910.0 55 71 17 4 44 75 91 80 80 85
2950.0 83 64 0 1 26 49 65 52 56 78
2990.0 108 88 74 53 30 44 22 52 63 51
3030.0 83 109 118 105 117 112 99 85 87 99
3070.0 61 87 143 149 117 137 165 163 162 122
3110.0 102 86 69 133 150 98 106 79 62 106
3150.0 112 79 74 139 144 112 120 141 140 98
3190.0 97 105 128 92 13 52 139 142 113 90
3230.0 81 89 99 104 135 121 79 81 75 111
3270.0 125 118 142 191 189 157 137 134 130 144
3310.0 184 111 122 133 129 211 229 221 216 193
3350.0 116 85 103 126 175 221 179 123 175 179
3390.0 146 178 189 169 166 195 214 202 195 188
3430.0 215 202 190 202 218 241 225 187 163 181
3470.0 235 249 207 215 240 301 301 227 232 250
3510.0 261 270 226 173 223 323 299 259 244 261
3550.0 224 171 240 237 186 215 248 249 270 270
3590.0 271 291 277 304 287 248 290 309 267 228
3630.0 259 300 267 250 299 283 273 352 364 395
3670.0 387 296 247 261 296 290 276 312 328 262
3710.0 246 264 256 277 287 228 261 319 287 222
3750.0 211 219 272 259 174 229 283 260 232 212
3790.0 211 184 195 235 240 221 179 204 223 201
3830.0 123 70 103 159 161
##END=
