##TITLE=4-n-Propylpyridine
##JCAMP-DX=4.24
##DATA TYPE=INFRARED SPECTRUM
##ORIGIN=NIST Mass Spectrometry Data Center
##OWNER=NIST Standard Reference Data Program
Collection (C) 2018 copyright by the U.S. Secretary of Commerce
on behalf of the United States of America. All rights reserved.
##CAS REGISTRY NO=1122-81-2
##MOLFORM=C 8 H 11 N
##$NIST SOURCE=MSDC-IR
##SPECTROMETER/DATA SYSTEM=HP-GC/MS/IRD
##STATE=gas
##XUNITS=1/CM
##YUNITS=ABSORBANCE
##XFACTOR=1.0
##YFACTOR=0.000002400
##DELTAX=4.0
##FIRSTX=550.0
##LASTX=3846.0
##FIRSTY=0.000869
##MAXX=3846
##MINX=550
##MAXY=0.024
##MINY=0
##NPOINTS=825
##XYDATA=(X++(Y..Y))
550.0 362 436 621 835 1049 1237 1354 1380 1310 1213
590.0 1016 808 607 398 257 178 122 58 0 13
630.0 69 53 22 75 76 27 63 115 86 55
670.0 60 68 76 90 74 80 71 63 110 161
710.0 220 248 258 313 362 499 727 999 1254 1371
750.0 1400 1367 1224 1106 1205 1512 2001 2653 3311 3968
790.0 4311 4045 3517 2936 2354 1884 1591 1415 1236 1205
830.0 1256 1250 1191 1104 992 870 760 645 551 484
870.0 418 323 265 256 249 233 232 224 201 199
910.0 186 152 141 135 119 115 123 117 129 135
950.0 119 136 145 163 196 232 302 455 736 983
990.0 1060 1023 905 650 398 287 229 217 225 240
1030.0 260 285 313 319 324 353 370 421 532 602
1070.0 610 617 612 553 503 486 475 459 426 348
1110.0 284 250 225 214 200 185 180 165 147 136
1150.0 130 130 143 154 145 153 181 197 216 235
1190.0 259 295 343 427 596 836 1024 1068 1027 920
1230.0 673 442 316 259 234 218 230 241 258 280
1270.0 287 301 335 363 371 362 335 319 300 274
1310.0 287 311 364 437 496 615 778 899 916 862
1350.0 807 714 597 536 524 569 666 801 967 1161
1390.0 1382 1623 1903 2227 2546 2726 2761 2733 2535 2187
1430.0 1847 1589 1442 1422 1483 1542 1675 1761 1716 1631
1470.0 1533 1419 1265 1212 1230 1234 1177 1071 926 755
1510.0 588 491 490 517 560 633 760 959 1205 1494
1550.0 1830 2174 2472 2702 2889 2982 3011 3237 3867 5112
1590.0 6954 8814 9854 9749 8634 6652 4234 2313 1302 875
1630.0 685 590 518 485 485 476 446 377 319 290
1670.0 261 235 220 227 225 206 224 241 222 194
1710.0 191 212 230 215 199 221 243 217 193 182
1750.0 170 150 133 126 131 138 130 119 116 117
1790.0 124 129 129 129 112 110 106 112 128 150
1830.0 180 200 197 194 181 131 95 82 74 78
1870.0 85 88 95 94 94 110 113 123 154 194
1910.0 256 332 388 427 451 439 412 378 319 253
1950.0 206 171 141 120 95 75 72 64 51 46
1990.0 55 48 29 36 41 35 34 45 55 49
2030.0 47 55 63 54 45 45 51 65 68 60
2070.0 49 42 42 38 35 38 45 43 36 44
2110.0 27 17 29 27 21 31 47 52 60 50
2150.0 41 44 45 46 60 64 57 57 59 55
2190.0 45 42 51 52 46 51 44 32 42 42
2230.0 36 36 33 38 31 24 35 35 38 53
2270.0 48 44 51 51 48 59 71 59 47 43
2310.0 50 51 43 52 55 52 37 18 26 36
2350.0 33 24 21 15 7 13 25 39 40 33
2390.0 45 52 48 56 69 91 108 90 84 86
2430.0 81 79 86 92 81 70 58 54 54 53
2470.0 53 46 36 34 15 6 5 3 14 17
2510.0 15 14 7 12 20 27 35 27 21 13
2550.0 25 33 31 33 23 18 10 7 16 14
2590.0 7 22 40 42 56 70 71 70 75 67
2630.0 55 54 53 49 62 85 95 101 106 98
2670.0 100 112 104 106 107 80 74 83 89 73
2710.0 60 93 106 95 95 104 134 137 144 168
2750.0 174 183 190 183 175 182 198 213 222 230
2790.0 251 275 291 324 361 381 413 447 481 541
2830.0 617 699 811 951 1140 1350 1600 1929 2314 2771
2870.0 3291 3857 4407 4721 4713 4506 4106 3678 3442 3417
2910.0 3610 3999 4554 5282 6230 7366 8494 9337 9703 9647
2950.0 9301 8825 8557 8755 9404 10000 9980 9398 8405 7029
2990.0 5559 4481 3831 3405 3130 3054 3184 3452 3736 3898
3030.0 3916 3775 3526 3322 3270 3406 3703 4078 4435 4611
3070.0 4549 4346 3916 3253 2534 1897 1419 1096 871 704
3110.0 577 480 397 318 262 239 215 186 163 156
3150.0 160 136 106 117 144 136 113 96 90 102
3190.0 99 120 116 117 132 117 96 80 82 75
3230.0 67 60 63 49 27 34 38 49 50 36
3270.0 41 53 39 30 34 40 41 30 24 9
3310.0 14 30 31 21 13 26 25 18 39 42
3350.0 15 6 25 28 27 35 50 59 48 61
3390.0 57 15 1 9 20 25 31 19 4 19
3430.0 15 21 17 4 21 30 29 29 28 32
3470.0 32 16 19 20 11 18 23 29 34 39
3510.0 32 35 28 26 39 25 27 42 68 63
3550.0 21 11 11 26 44 29 29 19 8 57
3590.0 72 45 43 19 21 53 53 44 39 64
3630.0 69 19 7 30 51 65 67 59 47 47
3670.0 75 114 91 58 91 111 76 57 50 53
3710.0 90 87 46 58 68 72 100 87 92 121
3750.0 101 51 25 36 47 44 53 62 42 50
3790.0 61 55 66 74 59 43 46 69 59 31
3830.0 38 58 70 55 41
##END=
