##TITLE=4-(Methylthio)thiophenol
##JCAMP-DX=4.24
##DATA TYPE=INFRARED SPECTRUM
##ORIGIN=EPA-IR VAPOR PHASE LIBRARY
##OWNER=SRD/NIST
Collection (C) 2018 copyright by the U.S. Secretary of Commerce
on behalf of the United States of America. All rights reserved.
##CAS REGISTRY NO=1122-97-0
##MOLFORM=C 7 H 8 S 2
##$NIST SOURCE=MSDC-IR
##STATE=gas
##XUNITS=1/CM
##YUNITS=ABSORBANCE
##XFACTOR=1.
##YFACTOR=0.001
##DELTAX=1.92898
##FIRSTX=549.8
##LASTX=4000.7
##FIRSTY=2.95
##MAXX=4000.7
##MINX=549.759
##MAXY=0.07594
##MINY=0
##NPOINTS=1790
##XYDATA=(X++(Y..Y))
549.759 2.95 1.525 1.47 1.9564 1.85331 1.533 1.602 2.1775 2.5025 2.2383
569.049 2.1305 1.80225 1.667 2.98 3.54 3.82 4.01 2.87 2.5708 2.4793
588.339 2.0178 1.9506 1.7817 2.0228 3.01 3.84 3.45 3.27 3.17 2.6174
607.628 3.3 3.9 3.27 3.25 3.43 3.24 3.04 2.1654 2.1644 2.97
626.918 2.98 2.4001 1.9003 2.358 2.427 1.526 1.7766 2.0573 2.0039 2.1461
646.208 2.196 2.0981 1.7708 2.2521 2.2975 1.578 1.542 1.9526 2.1677 1.9335
665.498 1.87947 2.039 2.3368 2.701 2.4923 2.6427 2.82 2.5404 2.4305 2.713
684.787 2.4071 2.87 2.98 2.2476 2.82 2.6072 2.7117 3.21 3.12 3.23
704.077 3.44 3.65 3.63 3.54 3.46 3.2 2.86 3.08 3.6 3.36
723.367 2.85 2.6884 2.5859 2.3206 2.176 2.5586 3.1 3.94 4.27 3.83
742.657 3.54 4.03 4.13 3.51 3.92 3.98 4.07 4.77 4.81 5.13
761.947 5.64 5.78 6.36 7.08 7.47 8.53 10.35 11.21 12.66 14.44
781.236 15.99 18.23 20.67 23.17 25.22 27.36 29.82 31.61 33.36 35.46
800.526 37.67 38.37 37.8 37.78 37.19 35.12 33.09 31.67 29.34 27
819.816 25.08 22.9 20.21 18.37 16.21 13.85 12.93 12.2 10.89 9.77
839.106 8.62 7.44 7.46 7.11 6.31 5.74 5.24 4.71 4.63 5.07
858.395 4.61 4.2 3.78 3.15 3.96 4.55 4.56 4.28 3.75 4.06
877.685 4.12 3.6 3.22 3.92 4.81 4.65 4.29 4.69 5.07 4.39
896.975 3.99 4.32 4.98 5.32 4.95 5.14 5.44 5.79 6.63 6.43
916.265 5.77 6.2 6.76 6.77 6.53 6.59 7.04 6.65 6.23 6.39
935.555 6.19 6.25 6.57 7.22 7.21 6.79 6.98 7.26 7.89 8.57
954.844 9.26 10.55 12.06 13.07 14.33 15.43 16.44 16.61 15.94 15.66
974.134 14.74 12.73 10.7 9.24 7.61 7.21 7.27 6.6 6.08 5.89
993.424 5.54 5.57 6.29 7.47 10.3 13.89 17.55 20.99 23.96 26.36
1012.714 26.19 25.97 26.43 25.27 22.29 17.05 11.87 8.59 7.51 6.88
1032.003 6.02 5.47 5.01 4.65 4.51 5.06 5.48 5.37 6.9 6.71
1051.293 5.57 5.8 6.47 6.96 6.5 6.34 6.39 6.8 7.22 6.73
1070.583 7.07 7.75 7.05 6.78 7.5 8.78 8.67 8.59 9.06 9.44
1089.873 11.33 14.22 17.34 22.33 29.76 39.09 47.87 56.46 63.14 64.85
1109.163 66.18 64.36 59.85 52.77 40.24 29.39 22.56 16.57 12.13 10.03
1128.452 9.28 8.39 6.57 5.13 4.69 4.71 5.01 4.49 3.33 3.65
1147.742 4.26 4.26 4.17 3.46 4.23 4.3 3.55 2.5939 2.3915 2.0111
1167.032 2.2849 3.89 3.07 2.776 2.4704 1.7374 2.7857 3.77 4.17 3.54
1186.322 2.5702 2.1575 2.0331 3.02 2.4791 1.627 1.397 1.522 2.5845 1.466
1205.611 1.144 2.5904 3.1 2.99 1.128 1.431 3.98 4.95 4.17 3.64
1224.901 2.4659 1.007 0.49 0 1.046 1.589 1.7444 2.5161 3.29 3.57
1244.191 2.5616 2.1122 2.2848 2.1557 2.4249 3.05 2.88 2.3151 2.1799 2.3072
1263.481 2.5834 2.5088 2.4393 2.2539 2.3397 3.05 2.96 3.39 3.64 3.3
1282.771 3.33 2.98 3.27 4.26 4.32 4.01 4.18 4.27 4.71 4.92
1302.060 4.88 5.31 5.96 6.25 6.9 7.54 7.81 8.6 9.35 9.56
1321.350 9.41 9.23 8.89 8.47 8.08 7.33 6.26 5.36 4.91 4.63
1340.640 4.36 4.25 4.22 4.38 4.45 4.19 4.35 4.57 4.53 4.68
1359.930 4.79 5.21 5.83 6.34 6.88 7.25 7.85 8.48 9.11 10.04
1379.219 10.75 11.08 11.39 11.9 12.16 12.08 12.35 12.45 12.26 12.26
1398.509 12 11.6 11.17 10.91 10.76 10.8 10.96 11.24 11.69 12.21
1417.799 12.85 13.5 14.02 14.65 15.42 16.13 16.95 17.93 18.93 20.05
1437.089 21.18 22 22.38 22.3 21.99 21.42 20.67 19.53 18.33 17.25
1456.378 16.61 17.14 18.49 20.92 25.36 31.66 39.69 49.58 60.07 69.6
1475.668 74.89 75.94 74.14 70.61 65.21 56.17 43.71 31.42 22.23 16.39
1494.958 12.76 10.65 9.42 8.44 7.64 7.07 6.43 5.74 5.42 5.16
1514.248 4.93 4.88 4.77 4.73 4.53 4.22 4.09 4.16 4.25 4.29
1533.538 4.19 3.77 3.84 4.15 4.06 4.22 4.49 4.37 4.56 4.76
1552.827 4.76 5.12 5.29 5.85 5.82 5.16 5.24 5.78 5.8 5.58
1572.117 5.95 6.12 5.79 5.94 6.5 6.23 5.89 6.3 6.24 5.97
1591.407 5.82 5.41 5.35 5.46 5.4 5.03 4.76 5.07 5.4 5.57
1610.697 5.71 6.39 6.73 6.72 6.71 6.83 6.73 6.44 6.34 5.96
1629.986 6.05 5.98 5.6 5.65 5.68 5.4 5.02 4.82 4.57 4.46
1649.276 4.38 4.16 4.19 4.1 3.68 3.54 3.66 3.51 3.29 3.23
1668.566 3.33 3.23 3.04 2.92 2.86 2.94 3.06 2.7116 2.1678 2.1804
1687.856 2.4027 2.6854 2.8 2.6774 2.5185 2.6801 2.7568 2.4809 2.3954 2.3433
1707.146 2.4577 2.4908 2.5756 2.7143 2.1998 1.9189 2.4883 2.674 2.5291 2.643
1726.435 2.6058 2.4692 2.4064 2.4659 2.4688 2.6133 2.7082 2.6603 2.7279 2.7546
1745.725 2.6388 2.6554 2.82 2.6261 2.6529 2.95 3.23 3.29 3.13 3.04
1765.015 3.33 3.62 3.35 3.31 3.56 3.5 3.34 3.09 2.92 2.9
1784.305 2.86 2.6046 2.4194 2.3021 2.2769 2.4383 2.229 2.2159 2.1923 1.9212
1803.594 2.0853 2.2774 2.2544 2.2373 2.1353 2.1376 2.3254 2.3687 2.1974 2.1341
1822.884 2.191 2.1467 2.1949 2.3771 2.5778 2.7038 2.5064 2.3609 2.4681 2.4867
1842.174 2.6212 2.7161 2.7085 2.6388 2.5851 2.81 3 2.99 2.92 3.06
1861.464 3.25 3.3 3.4 3.88 4.23 4.36 4.41 4.31 4.5 4.7
1880.754 4.86 4.96 4.92 4.85 4.75 4.73 4.84 4.78 4.46 4.28
1900.043 4.13 3.88 3.78 3.75 3.37 3.05 3.05 3.01 2.96 2.7648
1919.333 2.5319 2.345 2.578 2.5114 2.259 2.2562 2.1028 2.0902 2.2281 2.5349
1938.623 2.7754 2.6811 2.5325 2.5128 2.3606 2.2133 2.2647 2.4113 2.2472 2.1095
1957.913 2.1315 2.3936 2.7386 2.5508 2.3281 2.2464 2.0261 1.9862 2.0062 2.0332
1977.202 2.309 2.2539 2.0637 2.0994 2.0412 1.987 2.1617 2.3757 2.2618 2.2093
1996.492 2.0688 1.9556 2.1782 2.1745 2.031 2.0947 2.2463 2.2161 2.0962 2.0829
2015.782 2.0844 2.0473 1.89995 1.86879 2.118 2.4539 2.498 2.3773 2.4979 2.3408
2035.072 2.2208 2.5191 2.6027 2.3482 2.1645 2.107 2.022 2.028 2.1022 2.0693
2054.362 2.0713 2.1707 2.2551 2.3442 2.3068 2.286 2.4114 2.3763 2.2265 2.2238
2073.651 2.3131 2.2004 1.9627 1.89842 2.0097 2.1755 2.2118 2.0327 2.1183 2.2189
2092.941 2.1146 2.1508 2.2962 2.3395 2.3863 2.4413 2.2956 2.2058 2.1866 2.2368
2112.231 2.4336 2.329 2.1663 2.2368 2.057 2.1137 2.2569 2.0442 2.0502 2.3157
2131.521 2.3263 2.1414 2.1201 2.22 2.3574 2.3287 2.2431 2.2443 2.2123 2.3693
2150.810 2.3833 2.2292 2.471 2.3198 2.074 2.291 2.1837 1.88554 1.9312 2.1146
2170.100 2.0606 2.0099 2.1257 2.1769 1.9883 2.1697 2.3173 2.1359 2.0481 2.0358
2189.390 2.1548 2.2398 2.1013 2.1595 2.136 1.89948 2.1061 2.208 1.9539 1.9524
2208.680 2.0699 2.1471 2.3777 2.3709 2.2087 2.025 2.034 2.0334 1.9768 2.0717
2227.970 2.1273 2.2184 2.2737 2.2999 2.1741 2.1001 2.2603 2.4466 2.3225 2.2347
2247.259 2.0869 1.925 2.256 2.5661 2.5124 2.3221 2.5087 2.6391 2.4213 2.3123
2266.549 2.5741 2.7454 2.5375 2.4714 2.3985 2.5018 2.6314 2.6677 2.701 2.7135
2285.839 2.6174 2.7064 2.95 2.85 2.82 2.98 2.92 2.6886 2.7506 2.96
2305.129 2.95 2.94 2.577 2.3352 2.4997 2.2977 1.9771 2.0149 2.216 2.4197
2324.418 2.5846 2.2774 2.1823 2.3296 2.2134 2.1856 2.3149 2.1077 1.9615 2.1103
2343.708 2.1281 2.1716 1.9061 1.7099 1.9543 2.4211 2.4434 2.1607 2.2192 2.3689
2362.998 2.3327 2.1453 2.3617 2.4419 2.4155 2.5543 2.7449 2.6709 2.3839 2.6076
2382.288 2.5525 2.3451 2.2997 2.2116 2.233 2.3674 2.4512 2.3171 2.7015 2.87
2401.578 2.5842 2.7387 3.09 2.96 2.7284 2.7476 2.7086 2.4459 2.5063 2.4433
2420.867 2.3087 2.4575 2.7418 2.7033 2.4788 2.6695 2.4731 2.3441 2.5339 2.7207
2440.157 2.4595 2.3259 2.1715 1.89491 2.3928 2.6034 2.4445 2.4189 2.41 2.3573
2459.447 2.3784 2.4035 2.4863 2.3403 2.0735 2.2118 2.2345 2.1794 2.4193 2.4036
2478.737 2.2046 2.2813 2.2815 2.24 2.2422 2.2278 2.4481 2.4934 2.3581 2.2138
2498.026 2.0815 2.182 2.169 2.4573 2.7066 2.4742 2.6135 2.6819 2.3799 2.4289
2517.316 2.3309 2.4691 2.89 2.6118 2.4394 2.4953 2.2163 2.2829 2.7174 2.9
2536.606 2.6898 2.4517 2.4245 2.4635 2.5924 2.7269 2.5996 2.6538 2.6298 2.4411
2555.896 2.5612 2.5829 2.6838 2.7658 2.5772 2.7153 2.92 2.92 3.25 3.35
2575.186 3.39 3.4 3.67 3.6 2.88 2.94 3.17 3.36 3.42 3.18
2594.475 3 2.92 2.92 2.97 2.7951 2.81 3.06 2.656 2.5467 2.5299
2613.765 2.2345 2.4555 2.6779 2.6759 2.4793 2.3735 2.2855 2.4322 2.2368 1.79314
2633.055 2.1798 2.6831 2.7995 2.7166 2.5373 2.4399 2.572 2.639 2.5992 2.3209
2652.345 2.1535 2.5235 2.5895 2.167 2.1076 2.5266 2.6198 2.7732 2.81 2.5499
2671.634 2.7772 2.6605 2.3607 2.95 3.26 3.08 2.96 2.6709 2.4381 2.317
2690.924 2.517 2.7525 2.4928 2.426 2.5285 2.1738 1.9767 2.2155 2.2912 2.015
2710.214 1.947 2.1771 2.4877 2.6006 2.4079 2.3961 2.6546 2.521 2.2732 2.4286
2729.504 2.3909 2.2775 2.578 2.88 2.5372 2.3665 2.5347 2.5563 2.3187 2.3933
2748.794 2.81 2.3731 2.353 2.667 2.1427 2.1471 2.4227 2.3135 2.1465 2.2678
2768.083 2.6021 2.5279 2.5851 2.81 2.81 2.81 2.86 3.29 3.11 2.6354
2787.373 2.82 2.81 3 3.04 3.28 3.44 3.41 3.46 2.99 2.9
2806.663 3.02 2.85 2.92 3.15 2.93 2.97 3.81 4.11 3.82 3.92
2825.953 4.21 4.08 4.16 4.63 5.37 5.95 5.87 5.95 6.37 6.41
2845.242 6.56 6.83 7.06 7.19 7.16 6.92 6.45 6.42 6.44 6.13
2864.532 5.71 5.63 5.27 5.12 5.16 4.86 4.84 5.15 5.43 5.46
2883.822 5.08 4.56 4.97 5.37 5.23 5.72 6.35 6.45 6.46 6.66
2903.112 7.04 7.91 8.91 9.47 9.83 10.83 11.79 12.55 14.21 16.38
2922.401 18.42 20.66 23.64 26.07 27.12 27.06 26.51 26.07 25.17 23.06
2941.691 20.05 17.53 15.83 14.21 12.69 11.26 10.69 10.45 9.64 9.22
2960.981 9 8.73 8.61 8.34 8.44 8.69 8.65 8.68 8.6 8.94
2980.271 9.67 10.07 10.03 10.59 11.57 12.18 12.99 13.87 14.35 14.06
2999.561 13.77 13.93 13.57 12.85 11.81 11.08 10.8 11.03 11.06 10.46
3018.850 11.05 11.43 10.54 9.74 9.42 9.01 8.52 7.55 6.71 6.28
3038.140 5.9 5.83 5.82 6.06 6.39 6.97 7.52 7.97 8.78 9.8
3057.430 10.56 11.46 13.2 14.06 14.99 16.5 17.02 17.71 18.58 18.92
3076.720 18.73 18.38 18.01 17.52 16.38 15.19 13.9 12.38 11.53 10.02
3096.009 8.52 7.81 6.72 6.03 5.94 5.28 4.15 3.49 3.54 3.56
3115.299 3.5 3.71 3.7 3.61 3.34 3.14 3.14 3.04 2.91 2.89
3134.589 2.5992 2.4269 2.5807 2.6421 2.4732 2.2448 2.96 3.34 2.87 2.6951
3153.879 2.7569 2.5988 2.722 2.6795 2.6272 2.5638 2.4099 2.85 2.7353 2.2362
3173.169 2.6189 3.14 2.82 2.3948 1.7444 2.041 3.19 3.04 2.4135 2.3668
3192.458 2.88 2.7402 2.2866 2.0716 2.2406 2.1442 1.595 1.82654 1.962 2.0068
3211.748 1.962 1.99 2.3367 2.1602 2.1121 1.788 1.295 1.64 2.7708 3.1
3231.038 2.0577 2.1582 2.3803 2.1681 2.2194 2.4738 2.8 2.3899 1.454 1.04
3250.328 0.887 0.937 1.239 1.416 1.7425 1.684 1.485 1.622 2.1964 2.2572
3269.617 2.1986 2.1872 1.88894 1.9417 2.1232 1.7519 1.439 1.86205 1.625 1.583
3288.907 2.2331 2.1494 2.1045 1.9496 2.0471 2.0282 1.53 1.687 2.2457 2.4092
3308.197 2.004 2.0751 2.4064 2.3608 2.2863 2.6461 3.04 2.6588 2.0252 2.1348
3327.487 2.3593 2.293 1.743 1.559 1.685 1.605 2.0267 2.0844 1.633 1.154
3346.777 1.657 1.8378 1.84385 2.3103 1.715 1.557 2.1823 2.0559 2.0819 2.4712
3366.066 1.7429 1.426 1.601 1.653 1.79184 1.9804 2.0379 1.7792 1.86042 2.2033
3385.356 2.4448 2.3968 2.3901 1.89512 1.80186 1.86704 1.609 1.477 1.195 1.073
3404.646 1.281 1.7708 1.85802 1.529 1.556 1.472 1.231 1.55 1.88398 2.0231
3423.936 2.0095 2.1646 2.1356 1.552 1.461 1.9758 2.4898 2.4552 2.0036 1.536
3443.225 1.319 1.66 2.1823 1.8502 1.682 2.0988 2.244 1.89934 1.582 1.413
3462.515 1.332 1.449 1.35 1.567 1.738 1.667 2.171 2.3273 1.7672 1.611
3481.805 1.72 2.1673 2.2826 2.1328 2.3556 2.4881 2.3726 2.4406 2.2153 2.1533
3501.095 2.2149 2.2171 2.84 2.7362 2.5017 2.7938 2.7895 2.3345 2.0826 2.0772
3520.385 1.9012 2.0562 2.4412 2.4633 2.3846 2.0572 1.752 2.1174 2.1851 1.654
3539.674 1.61 1.656 1.629 2.1988 2.236 2.111 2.4786 2.2761 2.2304 3.06
3558.964 2.3982 1.356 1.505 1.8441 2.5957 2.3561 1.423 1.465 1.88319 2.2721
3578.254 1.89585 1.513 1.532 1.328 1.651 1.359 1.072 1.05 0.97 1.415
3597.544 1.679 1.9032 2.0822 1.9688 1.443 1.569 2.3013 2.267 2.0789 2.1229
3616.833 2.1774 1.7848 1.7105 1.7414 1.488 1.455 1.372 1.695 2.1326 2.494
3636.123 2.1678 1.28 1.359 1.657 1.661 1.7166 1.9706 2.0395 1.82068 1.82055
3655.413 1.9622 1.477 1.239 2.0057 2.1243 2.1248 2.0821 1.84107 1.9983 2.2879
3674.703 2.3927 2.2901 2.0685 2.0784 2.0508 2.2059 2.4915 2.3146 2.1119 2.1067
3693.993 1.87306 1.9105 3.04 3.24 2.94 2.95 2.3214 2.2499 2.4241 2.1838
3713.282 1.9449 2.0047 2.198 2.3593 2.722 2.4129 2.1378 2.0891 2.0381 2.3246
3732.572 2.3122 1.85804 2.0561 2.5605 1.88555 1.209 1.678 1.9649 1.52 1.7858
3751.862 2.19 1.7746 1.682 2.0639 2.1826 2.2319 1.87996 1.545 1.80628 2.0142
3771.152 2.292 2.0087 1.513 1.647 1.816 1.7305 1.7721 2.3069 2.2886 1.653
3790.441 1.511 2.215 2.521 2.0638 1.665 1.286 1.659 1.9209 1.707 1.911
3809.731 1.8252 1.7854 1.9668 2.0648 2.475 2.465 2.0547 2.0201 2.1641 2.3357
3829.021 2.4585 2.6681 2.4555 1.862 1.9273 2.4749 2.0835 1.7632 2.0083 1.949
3848.311 1.607 1.399 1.165 1.355 1.9837 2.0056 2.0091 2.0594 1.9673 2.0041
3867.601 2.1633 2.1481 2.0108 1.556 1.201 1.699 2.5043 2.7409 2.6753 2.3132
3886.890 2.1836 2.4385 3.24 3.13 1.9225 2.1849 2.463 2.6678 2.4856 1.531
3906.180 1.696 2.0353 1.694 1.088 1.457 2.1106 2.1261 2.3871 2.1546 1.83254
3925.470 1.9478 1.7836 2.0378 2.1798 2.3138 2.5977 2.6362 2.4821 2.2509 2.149
3944.760 1.80033 1.9685 2.2036 1.79809 1.581 2.2793 2.6789 2.3149 2.1269 2.126
3964.049 1.9519 1.9612 1.9879 1.9783 2.1734 2.62 3.16 3.11 2.5351 1.9175
3983.339 1.87007 2.0591 1.9102 1.9715 2.3991 2.2226 2.0567 2.2381 1.9657 2.2061
##END=
