##TITLE=Cyclopentylacetone
##JCAMP-DX=4.24
##DATA TYPE=INFRARED SPECTRUM
##ORIGIN=EPA-IR VAPOR PHASE LIBRARY
##OWNER=SRD/NIST
Collection (C) 2018 copyright by the U.S. Secretary of Commerce
on behalf of the United States of America. All rights reserved.
##CAS REGISTRY NO=1122-98-1
##MOLFORM=C 8 H 14 O
##$NIST SOURCE=MSDC-IR
##STATE=gas
##XUNITS=1/CM
##YUNITS=ABSORBANCE
##XFACTOR=1.
##YFACTOR=0.001
##DELTAX=1.92898
##FIRSTX=549.8
##LASTX=4000.7
##FIRSTY=4.555
##MAXX=4000.7
##MINX=549.759
##MAXY=0.075315
##MINY=0
##NPOINTS=1790
##XYDATA=(X++(Y..Y))
549.759 4.555 3.905 3.605 3.255 3.125 3.125 2.555 2.565 2.685 2.215
569.049 2.145 2.035 1.675 1.585 1.615 1.475 1.3014 1.1203 1.1179 1.2422
588.339 1.1077 0.9657 1.0312 1.1627 1.1984 1.1075 0.9579 0.924 1.0141 1.105
607.628 1.0415 0.9806 0.9959 0.9421 0.7331 0.6676 0.8579 0.7687 0.7163 0.8829
626.918 0.9043 0.7784 0.7038 0.8034 0.7352 0.7694 0.7618 0.6005 0.5166 0.40929
646.208 0.4758 0.5448 0.5895 0.5678 0.6107 0.4594 0.244 0.3156 0.4067 0.349
665.498 0.37138 0.5047 0.6091 0.44355 0.225 0.3056 0.4162 0.5774 0.5873 0.36171
684.787 0.2572 0.2938 0.3003 0.3382 0.42433 0.40848 0.35028 0.362696 0.2754 0.3043
704.077 0.39525 0.2742 0.243 0.2912 0.225 0.162 0 0.087 0.38023 0.43086
723.367 0.42984 0.3339 0.3121 0.3363 0.3151 0.43631 0.3402 0.253 0.219 0.162
742.657 0.363434 0.38862 0.2696 0.21 0.3254 0.3091 0.2 0.3074 0.37161 0.45032
761.947 0.5031 0.45032 0.3104 0.38409 0.5288 0.4706 0.363225 0.39482 0.4965 0.5494
781.236 0.6346 0.6525 0.5889 0.4631 0.4394 0.5378 0.6233 0.6921 0.8043 0.7788
800.526 0.6504 0.652 0.6432 0.4983 0.5161 0.792 0.9251 0.9377 0.7922 0.6935
819.816 0.716 0.6593 0.7438 0.7295 0.7052 0.8296 0.775 0.6887 0.7226 0.7726
839.106 0.7487 0.6155 0.7116 0.8006 0.7189 0.6675 0.6832 0.7432 0.7046 0.7641
858.395 0.8471 0.9065 0.922 0.9326 0.9728 1.0223 1.0917 0.9554 0.8544 0.9572
877.685 1.0101 0.8867 0.8985 1.0375 1.1322 1.2707 1.339 1.385 1.2749 1.1995
896.975 1.318 1.395 1.605 1.565 1.415 1.515 1.545 1.555 1.625 1.595
916.265 1.745 1.945 2.005 2.085 2.045 2.155 2.445 2.605 2.635 2.575
935.555 2.605 2.715 2.775 2.955 2.995 2.955 3.135 3.135 3.175 3.335
954.844 3.255 3.205 3.205 3.185 3.155 3.105 3.165 3.305 3.415 3.225
974.134 2.935 2.865 2.795 2.705 2.815 2.765 2.515 2.415 2.425 2.445
993.424 2.245 2.415 2.455 2.265 2.335 2.315 2.395 2.405 2.045 1.875
1012.714 2.045 1.835 1.655 1.595 1.415 1.505 1.735 1.915 1.905 1.815
1032.003 1.655 1.2492 0.9591 0.9566 0.988 1.0034 1.2176 1.2827 1.0804 1.0053
1051.293 1.0702 1.043 0.9729 1.0408 1.0779 0.9316 1.026 1.2196 1.3106 1.545
1070.583 1.535 1.415 1.2738 1.395 1.685 1.835 1.565 1.545 1.605 1.635
1089.873 1.745 1.725 1.785 1.825 2.495 2.695 2.315 2.375 2.245 1.985
1109.163 2.265 2.795 3.475 3.845 3.895 4.005 4.345 4.685 5.215 5.835
1128.452 6.575 7.165 7.595 8.155 8.525 9.175 10.035 10.245 10.295 10.605
1147.742 10.625 10.755 11.035 11.405 12.075 12.485 12.835 13.525 14.165 14.805
1167.032 15.305 15.765 16.195 15.955 15.355 15.105 14.845 13.935 12.985 12.065
1186.322 11.225 10.585 10.025 9.565 9.235 8.945 8.595 8.485 8.515 8.335
1205.611 8.275 7.925 7.735 7.955 7.825 7.695 7.735 7.945 8.155 8.225
1224.901 8.315 8.215 8.405 8.685 8.615 8.535 8.185 7.825 7.705 7.495
1244.191 7.285 7.085 6.715 6.485 6.355 6.435 6.575 6.525 6.425 6.385
1263.481 6.535 6.435 6.475 6.555 6.435 6.445 6.435 6.365 6.355 6.385
1282.771 6.315 6.215 6.065 5.935 5.775 5.605 5.505 5.395 5.215 5.015
1302.060 4.745 4.675 4.735 4.715 4.775 4.845 4.985 5.195 5.405 5.645
1321.350 5.935 6.185 6.465 6.785 7.115 7.465 7.855 8.315 8.895 9.645
1340.640 10.525 11.635 13.025 14.615 16.315 18.135 19.945 21.545 22.875 23.855
1359.930 24.485 24.655 24.385 23.565 22.155 20.455 18.515 16.515 14.585 12.845
1379.219 11.305 9.985 8.905 8.015 7.385 6.955 6.635 6.435 6.325 6.305
1398.509 6.355 6.465 6.605 6.715 6.885 7.075 7.255 7.455 7.565 7.645
1417.799 7.725 7.765 7.795 7.745 7.665 7.625 7.565 7.395 7.265 7.195
1437.089 7.095 7.035 7.015 6.965 6.935 6.955 6.945 6.885 6.795 6.715
1456.378 6.545 6.325 6.155 5.955 5.715 5.485 5.235 5.025 4.845 4.585
1475.668 4.375 4.295 4.175 3.945 3.745 3.645 3.475 3.285 3.115 2.935
1494.958 2.795 2.685 2.525 2.375 2.355 2.275 2.165 2.125 2.085 2.035
1514.248 1.995 1.975 1.945 1.865 1.835 1.855 1.795 1.725 1.735 1.765
1533.538 1.735 1.725 1.745 1.735 1.715 1.685 1.735 1.755 1.645 1.535
1552.827 1.535 1.555 1.595 1.635 1.625 1.615 1.525 1.485 1.555 1.545
1572.117 1.535 1.605 1.575 1.415 1.365 1.405 1.405 1.395 1.395 1.365
1591.407 1.319 1.2923 1.3103 1.2538 1.2646 1.2743 1.1969 1.2393 1.2487 1.1765
1610.697 1.1778 1.1785 1.1899 1.1617 1.1469 1.2397 1.2606 1.2544 1.3042 1.2826
1629.986 1.2689 1.2976 1.3383 1.385 1.395 1.355 1.365 1.455 1.515 1.535
1649.276 1.635 1.765 1.905 2.005 2.095 2.155 2.215 2.395 2.565 2.705
1668.566 2.955 3.235 3.525 3.825 4.185 4.595 5.015 5.465 6.055 6.725
1687.856 7.385 8.175 9.055 10.015 11.135 12.355 13.645 15.325 17.155 19.265
1707.146 21.645 24.375 27.325 30.415 33.695 37.035 40.335 43.265 45.745 47.765
1726.435 49.265 50.015 49.965 49.065 47.205 44.795 41.885 38.425 34.855 31.305
1745.725 27.795 24.365 21.235 18.295 15.715 13.595 11.715 10.185 8.895 7.805
1765.015 6.955 6.215 5.585 5.065 4.545 4.075 3.785 3.515 3.235 2.945
1784.305 2.705 2.515 2.385 2.235 2.105 1.965 1.825 1.765 1.685 1.555
1803.594 1.485 1.435 1.3542 1.2609 1.2047 1.1577 1.1562 1.1667 1.1068 1.0419
1822.884 1.025 0.983 0.9653 0.9498 0.8536 0.8462 0.8673 0.8641 0.8681 0.8341
1842.174 0.7925 0.7806 0.7798 0.776 0.7851 0.7938 0.7488 0.7145 0.7726 0.7844
1861.464 0.7438 0.7362 0.6994 0.7185 0.7092 0.6768 0.7004 0.6815 0.6929 0.724
1880.754 0.7246 0.7026 0.7151 0.6682 0.6335 0.6701 0.6504 0.6435 0.6579 0.6773
1900.043 0.6484 0.6184 0.6431 0.6185 0.5912 0.6059 0.6168 0.5884 0.5482 0.6042
1919.333 0.6012 0.5868 0.605 0.5475 0.55 0.5511 0.5675 0.5569 0.498 0.4805
1938.623 0.5101 0.5159 0.4959 0.4849 0.4798 0.5118 0.5551 0.5869 0.5456 0.4726
1957.913 0.4771 0.5275 0.5364 0.564 0.5635 0.5153 0.5183 0.5521 0.5317 0.4919
1977.202 0.5053 0.5176 0.5738 0.6166 0.5923 0.5858 0.6353 0.6076 0.528 0.4978
1996.492 0.4773 0.501 0.5093 0.5078 0.5351 0.5132 0.507 0.514 0.4556 0.4979
2015.782 0.5534 0.5831 0.5461 0.5019 0.5562 0.585 0.5572 0.5134 0.5202 0.5053
2035.072 0.4895 0.5474 0.5775 0.5235 0.483 0.5127 0.5471 0.5214 0.4963 0.4895
2054.362 0.4979 0.5299 0.5309 0.4861 0.5237 0.5886 0.5727 0.5885 0.6228 0.5895
2073.651 0.5773 0.5879 0.5671 0.5763 0.6175 0.6629 0.6446 0.5983 0.6171 0.6692
2092.941 0.6413 0.5897 0.5566 0.5628 0.6605 0.6839 0.6175 0.5664 0.5677 0.6005
2112.231 0.6616 0.687 0.6846 0.6848 0.6442 0.6656 0.6963 0.7286 0.701 0.672
2131.521 0.7056 0.707 0.6802 0.6732 0.7171 0.7348 0.7244 0.7349 0.739 0.711
2150.810 0.7053 0.7335 0.7428 0.7267 0.7128 0.7139 0.7321 0.7212 0.737 0.7585
2170.100 0.7771 0.7605 0.6995 0.7157 0.7207 0.724 0.778 0.6897 0.5882 0.6291
2189.390 0.6719 0.6534 0.6219 0.6612 0.7237 0.7071 0.6631 0.6515 0.6783 0.6886
2208.680 0.6837 0.7087 0.7451 0.704 0.6435 0.6653 0.6726 0.6844 0.6917 0.6669
2227.970 0.6864 0.7094 0.6625 0.6183 0.6359 0.6627 0.695 0.6379 0.5996 0.6484
2247.259 0.6194 0.6078 0.638 0.6549 0.6459 0.6171 0.5588 0.531 0.5937 0.6436
2266.549 0.6673 0.675 0.6221 0.6154 0.6232 0.6167 0.6365 0.6619 0.6968 0.6718
2285.839 0.6105 0.6751 0.6984 0.6256 0.6641 0.6911 0.704 0.7142 0.6948 0.7011
2305.129 0.7082 0.7349 0.7208 0.6891 0.692 0.6556 0.6437 0.6689 0.6777 0.6403
2324.418 0.6224 0.6938 0.7279 0.6716 0.6504 0.5915 0.5839 0.6908 0.7498 0.7415
2343.708 0.7111 0.7244 0.7191 0.6811 0.6916 0.7176 0.6506 0.6222 0.6376 0.6183
2362.998 0.6448 0.6043 0.5489 0.5457 0.5499 0.5258 0.5127 0.5754 0.58 0.5272
2382.288 0.5219 0.5463 0.5124 0.4939 0.5336 0.5436 0.5792 0.5839 0.5969 0.6124
2401.578 0.5617 0.5439 0.5367 0.5453 0.5436 0.5513 0.5287 0.4902 0.4702 0.5251
2420.867 0.5748 0.5906 0.5634 0.4624 0.5111 0.5367 0.4721 0.4861 0.5348 0.5758
2440.157 0.5627 0.5722 0.5072 0.43996 0.4838 0.5088 0.5134 0.4789 0.4603 0.5097
2459.447 0.5474 0.5269 0.501 0.4582 0.4974 0.5932 0.5637 0.5049 0.5348 0.547
2478.737 0.5685 0.5607 0.5015 0.503 0.5456 0.5461 0.5331 0.5399 0.5177 0.537
2498.026 0.5645 0.6149 0.6438 0.5721 0.5778 0.6072 0.6353 0.6531 0.5839 0.6052
2517.316 0.6276 0.6206 0.6461 0.6632 0.6771 0.6692 0.6356 0.5882 0.5945 0.6245
2536.606 0.6096 0.6505 0.6771 0.6036 0.5688 0.5517 0.5546 0.5622 0.5667 0.592
2555.896 0.5957 0.6194 0.6395 0.6839 0.7049 0.6434 0.6256 0.6555 0.6748 0.746
2575.186 0.7693 0.6833 0.6914 0.6779 0.5743 0.6137 0.697 0.6801 0.7098 0.704
2594.475 0.6777 0.7008 0.6987 0.6795 0.6423 0.6634 0.7638 0.7975 0.7908 0.744
2613.765 0.6828 0.7128 0.7341 0.6941 0.657 0.6989 0.7663 0.7668 0.7432 0.711
2633.055 0.6878 0.726 0.784 0.8104 0.8137 0.7393 0.6551 0.7286 0.742 0.7412
2652.345 0.7597 0.6847 0.6852 0.7217 0.7873 0.82 0.723 0.7141 0.7731 0.7646
2671.634 0.7858 0.8455 0.8776 0.8458 0.8003 0.7741 0.7677 0.7446 0.7171 0.7723
2690.924 0.7737 0.8104 0.7881 0.7373 0.7743 0.7848 0.8102 0.8103 0.8117 0.8512
2710.214 0.8839 0.8632 0.9179 0.9679 0.9691 0.9499 0.8831 0.9082 0.9791 0.988
2729.504 1.044 1.0214 0.9335 0.9439 1.0008 1.0393 1.0073 1.0259 1.0294 1.0001
2748.794 1.011 1.0602 1.0681 1.0699 1.1643 1.2261 1.1689 1.1757 1.258 1.2627
2768.083 1.2809 1.259 1.2711 1.3423 1.495 1.605 1.585 1.595 1.615 1.665
2787.373 1.735 1.825 1.925 2.065 2.195 2.235 2.275 2.315 2.355 2.505
2806.663 2.585 2.655 2.845 3.055 3.195 3.275 3.355 3.545 3.775 3.895
2825.953 4.085 4.375 4.665 4.965 5.355 5.705 6.055 6.535 7.175 7.835
2845.242 8.425 9.005 9.675 10.585 11.615 12.675 13.955 15.335 16.785 18.335
2864.532 19.935 21.775 23.605 25.435 27.305 28.825 29.855 30.685 31.395 31.655
2883.822 31.605 31.395 30.885 30.135 29.305 28.455 27.725 27.115 26.745 26.645
2903.112 26.735 27.125 27.625 28.135 28.855 29.835 30.895 31.915 32.965 34.095
2922.401 35.295 36.585 37.805 39.065 40.515 42.215 43.985 45.925 48.225 50.835
2941.691 53.625 56.675 59.935 62.955 65.845 68.575 70.955 73.015 74.545 75.315
2960.981 75.045 73.665 71.055 67.225 62.875 58.345 53.625 48.725 43.805 39.105
2980.271 34.715 30.685 26.975 23.795 21.085 18.805 16.915 15.275 13.995 13.005
2999.561 12.175 11.425 10.805 10.355 9.895 9.375 8.785 8.335 7.945 7.495
3018.850 6.995 6.445 5.975 5.545 5.135 4.845 4.625 4.335 4.055 3.885
3038.140 3.655 3.525 3.395 3.205 3.165 3.075 2.945 2.915 2.935 2.925
3057.430 2.835 2.725 2.625 2.545 2.425 2.325 2.305 2.305 2.355 2.335
3076.720 2.265 2.265 2.245 2.125 1.965 1.885 1.865 1.785 1.635 1.585
3096.009 1.655 1.705 1.655 1.645 1.625 1.405 1.1746 1.2331 1.2972 1.1689
3115.299 1.1176 1.2012 1.0623 0.9479 0.9919 1.01 1.0708 1.0199 0.875 0.8086
3134.589 0.8415 0.806 0.7417 0.7765 0.7614 0.7443 0.7471 0.6885 0.7415 0.7828
3153.879 0.7375 0.6482 0.6665 0.7127 0.687 0.7169 0.7535 0.6508 0.5653 0.6061
3173.169 0.5866 0.5983 0.6398 0.6148 0.5838 0.5547 0.6357 0.7506 0.7277 0.593
3192.458 0.5487 0.643 0.667 0.6724 0.6401 0.6947 0.6508 0.5733 0.6473 0.5884
3211.748 0.561 0.6636 0.5913 0.44698 0.4867 0.5566 0.587 0.6257 0.5987 0.5642
3231.038 0.5031 0.42443 0.45267 0.43537 0.493 0.5201 0.5187 0.5981 0.4965 0.5046
3250.328 0.6122 0.6197 0.5561 0.43672 0.43807 0.5105 0.5437 0.39182 0.37447 0.39273
3269.617 0.359737 0.4615 0.5914 0.5725 0.40392 0.43149 0.39769 0.36976 0.4788 0.39581
3288.907 0.36725 0.38788 0.3205 0.354438 0.39943 0.42235 0.43052 0.4555 0.43608 0.34513
3308.197 0.3079 0.3331 0.35348 0.41128 0.4701 0.4952 0.4713 0.44078 0.4842 0.5434
3327.487 0.5198 0.43784 0.35308 0.42086 0.5696 0.4946 0.45329 0.4637 0.4639 0.5839
3346.777 0.5449 0.4777 0.43435 0.41374 0.356541 0.3291 0.45194 0.4494 0.4926 0.4995
3366.066 0.4771 0.474 0.5188 0.5641 0.5239 0.5538 0.5279 0.506 0.5588 0.6305
3385.356 0.6626 0.7237 0.6763 0.6342 0.6375 0.6186 0.7208 0.6269 0.5395 0.6118
3404.646 0.6339 0.7586 0.8322 0.7972 0.8562 0.9033 1.0254 1.0621 0.9973 1.0388
3423.936 0.9747 1.0225 1.1223 1.1336 1.2608 1.465 1.515 1.435 1.3525 1.1718
3443.225 1.1672 1.2155 1.0528 1.0663 1.1888 1.1476 1.0686 1.0492 0.9192 0.8136
3462.515 0.92 0.9834 0.9363 0.8315 0.7931 0.7592 0.712 0.6338 0.5856 0.6081
3481.805 0.5791 0.5473 0.5699 0.5673 0.5069 0.5571 0.636 0.5891 0.5494 0.44611
3501.095 0.38506 0.43227 0.5328 0.623 0.5657 0.4681 0.5301 0.5751 0.4871 0.3056
3520.385 0.3266 0.41792 0.3397 0.39458 0.3307 0.2625 0.2769 0.3511 0.4619 0.4754
3539.674 0.5154 0.5486 0.4729 0.4836 0.5043 0.39585 0.40378 0.3223 0.359075 0.4919
3558.964 0.514 0.511 0.4297 0.40633 0.42407 0.3304 0.40869 0.5623 0.4553 0.4625
3578.254 0.5103 0.39969 0.32 0.242 0.2687 0.37378 0.40441 0.5018 0.5032 0.38855
3597.544 0.43179 0.5397 0.5567 0.4864 0.4893 0.4907 0.3353 0.3343 0.354542 0.4658
3616.833 0.5003 0.37516 0.43095 0.42172 0.34523 0.3021 0.35123 0.43437 0.34591 0.361106
3636.123 0.42552 0.2801 0.2599 0.35349 0.3355 0.38327 0.38377 0.37136 0.40181 0.38941
3655.413 0.4559 0.40197 0.3847 0.4791 0.45164 0.40602 0.39748 0.302 0.248 0.3412
3674.703 0.43019 0.4835 0.5299 0.5771 0.6164 0.5814 0.511 0.5398 0.6141 0.5957
3693.993 0.538 0.534 0.5403 0.4976 0.4793 0.4621 0.3924 0.40248 0.4567 0.5043
3713.282 0.5511 0.4803 0.44539 0.4877 0.4924 0.4858 0.5233 0.6167 0.5049 0.45378
3732.572 0.4757 0.43155 0.36861 0.37367 0.43986 0.5341 0.5533 0.4934 0.5694 0.6667
3751.862 0.6537 0.549 0.6155 0.7025 0.5499 0.4932 0.4819 0.42287 0.5689 0.6131
3771.152 0.4562 0.39714 0.36679 0.357198 0.41852 0.43699 0.5134 0.5551 0.5189 0.6038
3790.441 0.6154 0.609 0.6394 0.6132 0.5235 0.5931 0.7277 0.5846 0.42777 0.40168
3809.731 0.5031 0.5939 0.5277 0.43309 0.45099 0.4632 0.5471 0.5809 0.5456 0.542
3829.021 0.4992 0.6697 0.7691 0.7179 0.6399 0.4949 0.5829 0.6425 0.5324 0.4621
3848.311 0.6973 0.8916 0.7831 0.6534 0.5585 0.5719 0.5497 0.4928 0.46 0.41489
3867.601 0.4623 0.6242 0.7172 0.6317 0.4748 0.4558 0.5684 0.5403 0.5541 0.6096
3886.890 0.5014 0.4935 0.5482 0.5254 0.43584 0.5006 0.562 0.5271 0.5389 0.4798
3906.180 0.39441 0.457 0.6124 0.6068 0.5341 0.5169 0.5745 0.5905 0.6153 0.5773
3925.470 0.5084 0.43378 0.45216 0.364533 0.355179 0.5834 0.5478 0.4658 0.5491 0.504
3944.760 0.5084 0.5884 0.5219 0.4755 0.529 0.4947 0.3303 0.3013 0.3333 0.44365
3964.049 0.4674 0.4619 0.41507 0.3927 0.465 0.42196 0.305 0.42689 0.6664 0.45125
3983.339 0.2891 0.354959 0.4553 0.4367 0.4692 0.6335 0.5987 0.6295 0.5162 0.3411
##END=
