##TITLE=2-Bromo-5-fluorobenzyl bromide
##JCAMP-DX=4.24
##DATA TYPE=INFRARED SPECTRUM
##ORIGIN=EPA-IR VAPOR PHASE LIBRARY
##OWNER=SRD/NIST
Collection (C) 2018 copyright by the U.S. Secretary of Commerce
on behalf of the United States of America. All rights reserved.
##CAS REGISTRY NO=112399-50-5
##MOLFORM=C 7 H 5 Br 2 F
##$NIST SOURCE=MSDC-IR
##STATE=gas
##XUNITS=1/CM
##YUNITS=ABSORBANCE
##XFACTOR=1.
##YFACTOR=0.001
##DELTAX=1.92898
##FIRSTX=549.8
##LASTX=4000.7
##FIRSTY=9.01
##MAXX=4000.7
##MINX=549.759
##MAXY=0.21559
##MINY=0.0001017
##NPOINTS=1790
##XYDATA=(X++(Y..Y))
549.759 9.01 8.45 9.04 9.33 9.1 10.14 12.23 14.55 17.45 23.24
569.049 30.17 37.27 44.88 52.02 58.08 62.34 66.75 70.95 71.97 70.45
588.339 70.11 70.99 70.94 68.82 63.15 55.01 46.87 39.32 32.5 25.91
607.628 20.14 15.69 12.56 10.48 8.44 7.14 6.34 5.55 5.14 5.06
626.918 5.6 6.57 7.84 9.33 11.1 12.61 13.75 14.6 14.73 13.81
646.208 11.99 11.25 10.79 9.1 7.6 6.69 6.11 5.6 5.2 4.81
665.498 4.91 4.87 4.35 4.75 5.24 5.76 6.55 6.99 7.51 7.86
684.787 7.76 7.89 8.05 7.6 7.07 6.89 6.75 6.67 7.28 8.74
704.077 10.47 12.62 14.77 16.25 17.29 17.89 17.12 15.49 13.53 11.3
723.367 9.72 9.19 9.8 11.61 14.02 16.69 18.78 19.6 19.69 18.92
742.657 17.1 14.29 11.31 8.54 6.23 4.74 3.84 3.56 3.47 3.29
761.947 3.17 2.98 2.84 2.57 2.45 2.76 2.94 3.01 3.09 3.16
781.236 3.6 4.1 4.34 4.83 5.51 6.04 7.42 10.29 14.42 20.42
800.526 28.43 37.94 47.39 57.04 69.78 82.46 78.48 59.84 47.66 40.33
819.816 30.62 21.03 13.69 9.83 8.39 7.66 7.36 7.36 7.24 7.28
839.106 7.83 8.36 8.2 7.76 8.06 8.86 9.74 11.01 12.47 14.46
858.395 17.84 22.18 27.68 33.32 38.56 43.84 47.09 48.09 46.45 40.85
877.685 34.1 27.96 22.29 17.74 14.09 11.39 10.15 9.51 8.73 8.12
896.975 7.99 8.47 9.04 8.51 7.21 6.04 5.16 4.69 4.11 3.35
916.265 2.84 2.65 2.64 2.55 2.29 2.32 2.38 2.46 2.5 2.36
935.555 2.63 3.22 3.62 4.04 5.06 6.29 7.58 9.79 12.51 15.7
954.844 19.38 22.49 24.78 25.59 24.86 23.09 20.11 16.48 12.67 9.54
974.134 7.04 5.49 4.78 4.09 3.49 2.99 3.03 2.75 2.51 2.38
993.424 3.02 3.59 2.97 2.84 3.08 3.39 3.84 4.71 5.81 6.36
1012.714 6.97 9.2 11.71 14.99 20.29 28.3 38.9 50.54 60.59 67.49
1032.003 71.44 71.07 66.49 56.94 43.19 29.94 20.83 14.48 10.43 8.38
1051.293 7.69 7.31 6.46 6.29 6.12 5.33 5.09 5.69 5.01 4.99
1070.583 4.78 4.45 5.59 5.53 4.76 5.87 7.82 9.26 9.93 11.36
1089.873 14.61 18.31 22.87 26.79 29.52 30.94 31.87 31.07 29.12 25.77
1109.163 20.46 16.21 13 11.25 12.43 15.1 16.14 16.09 17.09 18.97
1128.452 20.09 19.01 16.25 14.05 13.22 12.15 11.98 13.99 17.27 22.62
1147.742 29.21 37.97 48.97 58.51 65.11 67.46 66.37 61.37 53.34 43.53
1167.032 32.46 23.88 18.6 14.69 11.56 10.19 9.3 8.82 9.46 9.68
1186.322 10 11.58 12.52 12.79 13.88 15.78 19.08 22.58 26.24 32.09
1205.611 38.82 44.71 50.84 57.32 63.08 66.62 68.84 69.17 68.36 69.54
1224.901 72.14 77.56 85.25 94.84 103.48 107.52 107.91 102.46 90.92 77.36
1244.191 62.25 47.59 37.28 31.98 29.7 29.01 29.72 32.06 36.87 44.15
1263.481 53.81 66.06 80.19 94.2 108.04 120.95 131.13 137.56 138.56 134.31
1282.771 126.74 116.55 103.73 88.83 73.43 58.92 46.31 36.02 28.15 22.56
1302.060 18.45 15.63 14.03 12.78 11.61 10.73 9.92 9.16 8.21 7.42
1321.350 7.08 6.77 6.25 5.93 5.77 5.57 5.35 5.07 4.71 4.52
1340.640 4.29 3.8 3.44 3.38 3.41 3.22 3.17 3.22 3.3 3.55
1359.930 3.85 4.28 5 5.87 6.84 7.94 9.11 10.38 11.5 12.2
1379.219 12.52 12.64 12.49 12.34 12.37 12.87 14.21 16.54 20.5 26.06
1398.509 33.41 42.49 51.74 59.95 65.64 68.43 68.23 64.65 57.86 48.83
1417.799 39.57 31.78 27.1 24.86 23.93 24.03 24.78 25.72 27.28 29.41
1437.089 31.99 34.92 38.19 41.75 45.25 48.07 51.07 54.59 58.8 64.33
1456.378 72.48 84.21 98.72 116.7 137.6 160.28 181.65 200.14 212.21 215.59
1475.668 208.21 192.23 170.3 143.55 114.35 86.06 62.4 45.6 34.41 27.16
1494.958 22.41 18.81 16.1 14.04 12.47 11.23 10.23 9.47 8.79 8.2
1514.248 7.72 7.12 6.5 6.17 5.86 5.42 5.11 4.96 5.03 5.14
1533.538 5.31 5.7 6.11 6.57 7.23 8.08 9.43 10.75 11.79 13.09
1552.827 14.57 16.17 17.79 19.85 22.3 25 28.89 33.67 38.88 45.06
1572.117 51.47 57.31 62.41 66.03 67.38 65.9 61.7 55.62 48.76 41.97
1591.407 36.55 33.28 32.19 33.22 35.43 37.79 40.13 42 42.36 41.45
1610.697 39.43 36.24 32.59 28.52 24.24 20.16 16.54 13.39 10.57 8.29
1629.986 6.7 5.25 4.18 3.59 3.05 2.65 2.51 2.49 2.53 2.56
1649.276 2.46 2.35 2.21 2.19 2.28 2.36 2.31 2.25 2.29 2.28
1668.566 2.2 2.14 2.13 2.2 2.43 2.62 2.58 2.58 2.36 2.29
1687.856 2.28 2.14 2.04 1.92 1.9 2.02 1.99 1.94 2.19 2.29
1707.146 2.24 2.22 2.18 1.96 1.85 1.94 2.1 2.22 2.3 2.47
1726.435 2.92 3.61 4.21 4.53 4.96 5.58 6.15 6.47 6.62 6.55
1745.725 6.2 5.61 4.82 4.06 3.47 2.84 2.19 1.85 1.62 1.51
1765.015 1.47 1.31 1.3 1.26 1.22 1.39 1.29 1.18 1.3 1.27
1784.305 1.22 1.2 1.14 1.28 1.39 1.37 1.35 1.35 1.5 1.7
1803.594 1.83 1.77 1.7 1.8 1.85 1.85 1.88 1.85 1.94 1.92
1822.884 1.88 1.75 1.62 1.7 1.64 1.64 1.71 1.71 1.68 1.62
1842.174 1.63 1.6 1.58 1.67 1.84 1.87 2.04 2.37 2.65 3.03
1861.464 3.48 4.06 4.64 5.25 6.03 6.83 7.52 7.67 7.32 6.82
1880.754 6.13 5.43 4.58 3.46 2.61 2.31 2.15 1.95 1.72 1.52
1900.043 1.45 1.49 1.35 1.15 1.02 0.8475 0.832 0.9029 0.9528 0.9909
1919.333 1 1.04 1.05 0.8832 0.7703 0.8133 0.7775 0.821 0.9561 0.8949
1938.623 0.8669 0.9111 0.8335 0.9504 1.09 0.9696 0.8966 0.8684 0.9227 1.1
1957.913 1.19 1.36 1.51 1.55 1.62 1.69 1.78 1.87 1.83 1.7
1977.202 1.67 1.6 1.63 1.67 1.59 1.57 1.66 1.75 1.7 1.67
1996.492 1.69 1.67 1.58 1.54 1.72 1.59 1.39 1.36 1.27 1.4
2015.782 1.45 1.26 1.14 1.12 1.07 1 1.14 1.13 0.9961 0.9212
2035.072 0.8867 0.9932 1.05 0.8963 0.8004 0.7492 0.6494 0.7544 0.951 0.9864
2054.362 1.04 1.17 1.05 1.02 1.06 1.07 1.21 1.12 1.02 1.13
2073.651 1.24 1.24 1.09 1.01 0.9702 1.14 1.2 1.02 1.15 1.28
2092.941 1.15 1.15 1.15 0.9257 0.8956 0.9061 0.9488 1.11 1.18 1.22
2112.231 1.2 1.12 1.02 1.07 1.22 1.22 1.06 1.05 1.17 1.17
2131.521 1.17 1.14 1.04 0.9266 0.9765 0.9255 0.7872 0.9206 0.9684 1.06
2150.810 1.15 1.12 1.16 1.13 1.1 1.04 0.9769 1.02 1.15 1.12
2170.100 1.12 1.21 1.2 1.25 1.34 1.46 1.45 1.31 1.27 1.52
2189.390 1.7 1.78 1.91 1.84 1.88 1.89 1.84 1.77 1.55 1.46
2208.680 1.38 1.38 1.45 1.27 1.2 1.35 1.2 1.16 1.33 1.4
2227.970 1.42 1.31 1.14 1.19 1.16 1.06 1.05 1.23 1.4 1.27
2247.259 1.16 1.08 0.9316 1.01 1.26 1.22 1.09 1.01 0.9803 1.04
2266.549 0.9936 0.9315 0.9366 0.9757 1.12 1.25 1.33 1.25 1.17 1.23
2285.839 1.38 1.57 1.51 1.4 1.42 1.42 1.64 1.74 1.63 1.68
2305.129 1.56 1.4 1.48 1.61 1.62 1.57 1.39 1.08 0.9668 1.06
2324.418 1.01 0.9698 0.9983 1.04 1.19 1.19 0.9693 1.02 1.12 0.8418
2343.708 0.7225 0.9065 1.1 1.11 1.09 1.14 0.9534 0.7619 0.8857 0.9249
2362.998 0.9551 1.05 1.13 1.29 1.35 1.39 1.51 1.41 1.24 1.27
2382.288 1.31 1.35 1.55 1.54 1.43 1.5 1.58 1.65 1.6 1.41
2401.578 1.32 1.47 1.64 1.7 1.63 1.73 1.86 1.99 2.18 2.31
2420.867 2.61 2.75 2.65 2.53 2.5 2.66 2.58 2.27 2.19 1.96
2440.157 1.69 1.61 1.57 1.45 1.48 1.48 1.33 1.44 1.53 1.43
2459.447 1.4 1.36 1.26 1.27 1.37 1.4 1.25 1.26 1.42 1.29
2478.737 1.15 1.22 1.24 1.26 1.16 1.15 1.28 1.25 1.11 1.21
2498.026 1.35 1.18 1.22 1.48 1.63 1.66 1.64 1.65 1.67 1.46
2517.316 1.33 1.5 1.57 1.49 1.47 1.39 1.38 1.33 1.39 1.5
2536.606 1.41 1.46 1.38 1.41 1.4 1.24 1.34 1.38 1.21 1.12
2555.896 1.25 1.38 1.21 1.11 1.23 1.16 1.23 1.38 1.21 1.12
2575.186 1.25 1.24 1.12 1.08 0.726 0.5621 0.7249 0.8179 0.9551 0.9618
2594.475 0.7787 0.7725 1.01 1.06 1.02 0.9434 0.9642 0.9217 0.9498 1.01
2613.765 0.8705 0.7101 0.8162 0.9217 1.12 1.34 1.19 1.22 1.29 1.38
2633.055 1.52 1.63 1.43 1.24 1.31 1.16 0.9754 1.18 1.31 1.43
2652.345 1.47 1.09 1.11 1.44 1.3 1.1 1.16 1.21 1.34 1.5
2671.634 1.38 1.42 1.46 1.16 0.9607 1.02 0.9163 0.8638 0.96 0.9787
2690.924 0.9721 0.7904 0.8138 1.02 0.9972 1.04 1.11 1.02 0.9742 1.1
2710.214 1.33 1.13 0.8342 0.8414 0.986 1.09 0.9515 0.6789 0.7485 1.26
2729.504 1.22 0.7927 0.8135 0.8464 0.9084 1.2 1.13 0.8228 0.9504 1.07
2748.794 0.9791 0.9274 0.8669 0.9126 0.8971 0.6777 0.6062 0.6538 0.7486 0.9801
2768.083 0.759 0.6049 0.7796 0.8698 0.8819 0.8113 0.6888 0.5037 0.4644 0.6033
2787.373 0.8946 1.1 0.8203 0.6545 0.7836 0.6714 0.8507 1.02 0.9634 0.6763
2806.663 0.4899 0.7267 1.03 1.15 0.9929 0.8857 0.9783 1.17 1.44 1.49
2825.953 1.45 1.4 1.2 1.15 1.29 1.36 1.45 1.48 1.3 1.42
2845.242 1.55 1.5 1.45 1.59 1.94 2.03 2.06 2.2 2.28 2.3
2864.532 2.21 2.24 2.46 2.49 2.49 2.42 2.16 2.11 2.03 1.8
2883.822 1.79 1.62 1.24 1.16 1.18 1.1 0.9909 1.1 1.06 0.8554
2903.112 0.8229 0.9654 1.03 0.9177 1.01 1.2 1.05 0.8159 0.7966 0.9805
2922.401 1.03 0.9567 0.859 0.6964 0.9097 0.9654 0.8173 0.8068 0.8639 1.08
2941.691 1.18 1.08 1.22 1.61 1.8 2.03 2.17 1.72 1.72 2.2
2960.981 2.29 2.26 2.34 2.51 2.96 3.37 3.8 4.35 5.05 6.21
2980.271 7.75 9.07 10.06 11.2 12.16 11.74 9.77 7.99 7.04 6
2999.561 4.54 3.65 3.05 2.46 2.48 2.44 2.2 2.08 2.12 2.13
3018.850 1.94 1.85 1.77 1.54 1.25 1.19 1.21 1.28 1.38 1.52
3038.140 2.08 2.34 2.15 2.2 2.06 1.93 2.17 2.07 1.66 1.56
3057.430 1.78 2.17 2.36 2.58 2.85 2.9 3.24 4.04 4.68 4.91
3076.720 5.29 5.64 5.72 5.65 5.57 5.32 4.56 3.94 3.44 2.67
3096.009 1.99 1.7 1.44 1.51 1.68 1.56 1.98 1.81 1.02 1.1
3115.299 1.23 1.1 0.7408 0.3175 0.3202 0.3063 0.6092 0.7353 0.5473 0.4858
3134.589 0.7339 0.8943 0.9068 1 0.9613 0.9459 0.8079 1.07 1.07 0.6456
3153.879 0.5305 0.7681 0.4039 0.3676 0.4872 0.3983 0.7862 0.7354 0.5627 0.6027
3173.169 0.9617 1.14 0.906 0.684 0.5789 0.5231 0.4924 0.5853 0.7769 0.7548
3192.458 0.6672 0.1235 0.1649 0.9675 1.05 0.8793 0.9937 1.09 0.8033 0.5696
3211.748 0.3587 0.5839 0.7494 0.4073 0.4938 0.5069 0.5065 0.7592 0.6534 0.5742
3231.038 0.9808 1.42 1.4 1.21 1.04 0.6835 0.5894 0.6001 0.57 0.9725
3250.328 1.15 0.8923 0.9352 0.987 0.5751 0.3986 0.5624 0.5195 0.5383 0.7278
3269.617 0.8235 0.6823 0.6014 0.8729 0.6518 0.3316 0.5076 0.4343 0.7134 0.5688
3288.907 0.1988 0.2466 0.3177 0.5707 0.4322 0.1017 0.2061 0.5781 0.6718 0.7018
3308.197 0.663 0.895 0.8876 0.5505 0.943 1.27 0.9701 0.9264 0.6722 0.5949
3327.487 0.9243 0.7805 0.506 0.1546 0.3502 0.8521 1.01 0.6705 0.4945 0.972
3346.777 1.24 1.28 0.8603 0.6588 1.28 1.41 0.996 0.6105 0.6245 0.9096
3366.066 0.8437 0.7278 0.7552 0.6254 0.5933 0.5209 0.3231 0.4427 0.4486 0.2414
3385.356 0.6506 1.16 1.13 0.5874 0.3131 0.6287 0.6067 0.5168 0.6856 0.6541
3404.646 0.294 0.175 0.5134 0.6193 0.608 0.7016 0.6136 0.6599 0.5838 0.636
3423.936 1.06 0.9535 0.6367 0.4426 0.3189 0.6886 0.6567 0.6186 0.8602 0.9183
3443.225 0.8584 0.5821 0.231 0.1606 0.1517 0.2607 1.1 1.31 1.04 1.05
3462.515 0.7839 0.5294 0.6862 0.7417 0.8883 1.03 0.9518 0.7333 0.7943 0.8397
3481.805 0.7077 0.6966 0.5152 0.3246 0.3052 0.6455 0.9662 0.9576 0.5984 0.2236
3501.095 0.354 0.7763 0.8383 0.9297 0.8062 0.4586 0.4427 0.5914 0.565 0.5762
3520.385 0.5377 0.4788 0.71 0.4389 0.234 0.3158 0.1708 0.4743 0.9212 0.9504
3539.674 0.9673 0.9492 1.01 1.04 1.04 1.31 0.9951 0.6034 0.6724 0.7322
3558.964 0.6682 0.4853 0.5052 0.5635 0.6287 0.8207 0.597 0.3169 0.4106 0.7011
3578.254 0.738 0.6106 0.8215 0.786 0.5273 0.2891 0.6517 1.13 0.7862 0.8241
3597.544 1.24 1.19 0.7949 0.5312 0.6216 0.7675 0.6855 0.3637 0.4365 0.7019
3616.833 0.6337 0.8356 0.7213 0.7763 1.26 1.04 0.7661 0.8104 0.8582 0.8655
3636.123 0.8665 1.16 1.55 1.34 0.6245 0.4315 0.5327 0.5052 0.4017 0.6134
3655.413 1.07 1.02 0.7219 0.6341 0.3559 0.3882 0.8858 1.08 1.11 0.7801
3674.703 0.7273 1.13 1.33 1.29 1.21 1.07 0.7348 0.8995 1.08 0.868
3693.993 0.5343 0.3736 0.5642 0.6523 0.573 0.482 0.9584 1.07 0.7218 0.4841
3713.282 0.1044 0.2702 0.5397 0.6507 0.8778 1.07 0.9258 0.6427 0.8306 0.5909
3732.572 0.4267 0.6275 0.4688 0.6278 0.8493 0.8197 0.9957 1.15 1.47 1.51
3751.862 1.01 0.5786 0.3941 0.553 1.01 1.37 1.24 0.8559 0.6027 0.8292
3771.152 0.808 0.3896 0.4337 1.06 1.08 0.8361 1.08 0.8959 0.7033 0.6178
3790.441 0.5299 0.6434 0.8333 0.8226 0.6559 0.9346 0.9876 0.7539 0.7046 0.6383
3809.731 0.9052 0.8044 0.9698 1.3 0.7848 0.5987 0.401 0.4607 0.9878 1.02
3829.021 0.7874 0.8937 0.8098 0.6447 0.81 0.7566 0.8268 1.27 1.44 1.42
3848.311 1.29 0.9319 0.1798 0.4814 0.9914 0.3939 0.2213 0.4335 0.7517 0.9289
3867.601 1.03 0.9824 0.8169 0.9029 1.19 1.09 1.12 1.03 0.8077 0.9084
3886.890 0.6825 0.7272 1.13 1.29 1.1 0.9908 0.815 0.6891 0.9571 0.8943
3906.180 1.21 1.6 1.22 0.8967 0.5992 0.4879 0.7117 0.7476 0.5077 0.5684
3925.470 0.7921 0.3806 0.4629 1.22 1.06 0.831 1.02 0.6369 0.6497 1.26
3944.760 1.17 0.893 1.03 1.18 0.9521 0.8071 0.9518 0.9959 0.7001 0.4382
3964.049 0.6555 0.8109 0.9093 1.09 1.24 1.21 1.13 0.8024 0.4184 0.563
3983.339 0.8797 1.11 1.11 0.8233 0.5647 0.5648 0.2431 0.2647 0.9226 1
##END=
