##TITLE=3,3-Dimethylglutarimide
##JCAMP-DX=4.24
##DATA TYPE=INFRARED SPECTRUM
##ORIGIN=EPA-IR VAPOR PHASE LIBRARY
##OWNER=SRD/NIST
Collection (C) 2018 copyright by the U.S. Secretary of Commerce
on behalf of the United States of America. All rights reserved.
##CAS REGISTRY NO=1123-40-6
##MOLFORM=C 7 H 11 N O 2
##$NIST SOURCE=MSDC-IR
##STATE=gas
##XUNITS=1/CM
##YUNITS=ABSORBANCE
##XFACTOR=1.
##YFACTOR=0.001
##DELTAX=3.85796
##FIRSTX=501.5
##LASTX=4000.7
##FIRSTY=0.17429
##MAXX=4000.7
##MINX=501.534
##MAXY=0.0641385
##MINY=0
##NPOINTS=908
##XYDATA=(X++(Y..Y))
501.534 0.17429 0.0366 0.10924 0.0555 0 0.09854 0.12305 0.2065 0.3585 0.4189
540.114 0.5204 0.7021 1.0576 1.4785 1.7785 1.9185 1.9785 1.9185 1.5685 1.1785
578.693 0.8674 0.5996 0.5272 0.5044 0.3424 0.2651 0.3161 0.3587 0.356 0.4134
617.273 0.4412 0.4539 0.5402 0.5403 0.5552 0.6371 0.7272 0.9381 1.0766 1.1685
655.852 1.3385 1.4085 1.4285 1.4985 1.6785 2.0585 2.5785 3.1185 3.6085 3.9585
694.432 4.0485 3.8085 3.4585 3.3085 3.3185 3.3485 3.5285 3.7785 3.6785 3.2285
733.011 2.7385 2.3985 2.2485 2.3185 2.7185 3.2385 3.8685 4.7385 5.1185 4.7685
771.591 4.2985 3.7585 3.0685 2.3785 1.8385 1.4585 1.1585 0.9273 0.834 0.8041
810.170 0.756 0.6968 0.6494 0.6456 0.5663 0.4887 0.4542 0.409 0.3707 0.3837
848.750 0.3666 0.3527 0.3893 0.3982 0.4075 0.4295 0.4211 0.4048 0.3561 0.3175
887.330 0.366 0.3705 0.357 0.3727 0.352 0.3396 0.3295 0.3516 0.4008 0.436
925.909 0.4528 0.4355 0.439 0.4734 0.4621 0.4815 0.5189 0.5561 0.5575 0.474
964.489 0.4313 0.4035 0.3633 0.3325 0.3502 0.3386 0.3215 0.3629 0.4567 0.5162
1003.068 0.555 0.665 0.803 0.967 1.1585 1.4085 1.5485 1.5385 1.4385 1.2785
1041.648 1.0247 0.7127 0.5238 0.4689 0.4148 0.3471 0.3293 0.3323 0.3654 0.4535
1080.227 0.4277 0.3685 0.4856 0.5095 0.583 0.7019 0.7262 0.8385 1.0109 1.2385
1118.807 1.4685 1.6985 1.9685 2.1685 2.5685 3.3185 4.3685 5.9385 8.0785 10.6385
1157.387 13.5685 17.1385 21.3285 25.7385 29.8985 33.0085 34.0285 32.5085 28.2885 22.1585
1195.966 15.4485 9.6785 6.1785 4.4685 3.6485 3.2585 2.9385 2.6685 2.4085 2.1685
1234.546 1.9485 1.7885 1.7085 1.7185 1.7585 1.9185 2.2785 2.8185 3.6185 4.8085
1273.125 6.3785 7.8685 8.7485 8.8885 8.4885 7.5085 6.1085 4.9385 4.5785 5.0585
1311.705 6.0285 7.1685 8.1685 8.9385 9.3885 9.5285 9.4185 9.1485 8.7985 8.2585
1350.284 7.5185 6.7185 6.1785 6.0885 6.6385 7.7285 8.7685 9.6185 10.4985 10.9085
1388.864 10.5785 9.5485 8.0885 6.6985 5.0385 3.5485 2.7685 2.4085 2.2385 2.1585
1427.443 2.1285 2.0885 2.0285 2.0185 2.0985 2.2885 2.5485 2.8485 3.1285 3.2685
1466.023 3.2885 3.2385 3.0485 2.7685 2.4785 2.1285 1.7285 1.3385 1.0442 0.8514
1504.603 0.7625 0.7376 0.7081 0.7088 0.7356 0.7308 0.7207 0.6842 0.6542 0.6516
1543.182 0.6222 0.6298 0.6735 0.7289 0.7986 0.8456 0.8827 0.9203 0.9411 0.9181
1581.762 0.8855 0.8109 0.7285 0.6759 0.6277 0.5966 0.5848 0.6027 0.6469 0.6892
1620.341 0.7287 0.7726 0.8169 0.873 0.9387 1.0191 1.1285 1.2685 1.3985 1.5485
1658.921 1.6985 1.8785 2.0885 2.3485 2.6385 2.9585 3.3585 3.7885 4.2285 4.8285
1697.500 5.6385 6.7485 8.2885 10.6585 14.3485 20.0885 28.2885 38.4185 48.8985 57.2485
1736.080 62.4385 64.1385 62.5685 57.1385 49.1885 41.6785 35.0385 28.4685 21.1885 14.5485
1774.659 10.2385 7.7185 6.0585 4.9185 4.1985 3.6485 3.1885 2.8285 2.5185 2.2385
1813.239 1.9785 1.7785 1.6185 1.4985 1.4085 1.3485 1.3285 1.2985 1.2385 1.1685
1851.819 1.0883 1.0016 0.9409 0.9087 0.8683 0.8012 0.7322 0.678 0.6293 0.6018
1890.398 0.5808 0.5568 0.5315 0.5069 0.4774 0.4285 0.3787 0.3518 0.3376 0.3242
1928.978 0.301 0.2836 0.2924 0.2986 0.2784 0.247 0.2456 0.2574 0.2569 0.2567
1967.557 0.25 0.2628 0.2898 0.2789 0.2453 0.2243 0.2292 0.2461 0.2457 0.2382
2006.137 0.2237 0.2194 0.2324 0.243 0.2544 0.2624 0.2604 0.253 0.249 0.2268
2044.716 0.1995 0.18647 0.18215 0.1782 0.16451 0.15971 0.15184 0.14919 0.15514 0.14821
2083.296 0.144 0.15599 0.15882 0.14 0.13023 0.13688 0.15067 0.14116 0.14688 0.16648
2121.875 0.16261 0.14164 0.13751 0.1386 0.13196 0.1414 0.15023 0.12953 0.11934 0.12947
2160.455 0.12999 0.15162 0.16612 0.15777 0.13694 0.13898 0.16504 0.17229 0.16779 0.16617
2199.035 0.15942 0.15548 0.16409 0.17516 0.17485 0.15484 0.13823 0.16153 0.17729 0.15882
2237.614 0.15246 0.15897 0.17452 0.1895 0.18384 0.16503 0.16381 0.17476 0.17032 0.15729
2276.194 0.14171 0.13959 0.15272 0.16151 0.16785 0.17134 0.1896 0.2064 0.2051 0.2091
2314.773 0.2175 0.2167 0.2232 0.2286 0.2379 0.2336 0.2044 0.2099 0.2183 0.202
2353.353 0.16529 0.14108 0.14235 0.14622 0.16073 0.16759 0.16126 0.16887 0.17327 0.18641
2391.932 0.1941 0.17941 0.17352 0.17154 0.1803 0.17455 0.17025 0.16408 0.16764 0.17224
2430.512 0.16858 0.18084 0.2031 0.2126 0.1994 0.18244 0.18797 0.2128 0.2188 0.2169
2469.092 0.2379 0.2398 0.2228 0.247 0.2741 0.2851 0.2733 0.2568 0.2789 0.2868
2507.671 0.2672 0.2579 0.2493 0.2725 0.2644 0.2368 0.2366 0.2207 0.2117 0.18473
2546.251 0.16808 0.18676 0.16119 0.12404 0.13754 0.15682 0.1373 0.12992 0.13593 0.12711
2584.830 0.12807 0.139 0.13798 0.13322 0.16532 0.17207 0.1603 0.14032 0.13852 0.16644
2623.410 0.18252 0.16017 0.15215 0.18292 0.18765 0.18526 0.2002 0.2137 0.2017 0.2177
2661.989 0.2235 0.2372 0.2526 0.2271 0.2311 0.2502 0.2658 0.2872 0.2722 0.2562
2700.569 0.2685 0.2666 0.2656 0.2773 0.2963 0.2931 0.2852 0.3082 0.298 0.2787
2739.148 0.2999 0.3246 0.2977 0.2703 0.2912 0.2828 0.2751 0.2939 0.2702 0.2632
2777.728 0.2633 0.2559 0.2643 0.2939 0.3032 0.2773 0.2817 0.2861 0.2909 0.3114
2816.308 0.3455 0.3592 0.3703 0.4248 0.4382 0.4425 0.5162 0.5847 0.6313 0.72
2854.887 0.8947 1.1585 1.4785 1.8585 2.3085 2.7285 2.9785 3.0185 2.9085 2.7085
2893.467 2.5285 2.4285 2.3485 2.3385 2.4685 2.6385 2.9085 3.3685 3.9885 4.7385
2932.046 5.6085 6.5085 7.3085 7.5985 7.2885 6.8985 6.5185 6.2385 6.3785 6.9685
2970.626 7.7685 8.2285 7.9585 7.3885 6.5085 5.3185 4.2885 3.3785 2.5485 1.8885
3009.205 1.2985 0.8782 0.6467 0.5096 0.4353 0.3919 0.383 0.3673 0.347 0.2952
3047.785 0.2667 0.2605 0.2523 0.2549 0.2304 0.2302 0.2451 0.2475 0.2524 0.2539
3086.364 0.2724 0.293 0.2874 0.3204 0.3311 0.3828 0.4075 0.3769 0.3864 0.3523
3124.944 0.3366 0.3271 0.3077 0.3172 0.3258 0.3217 0.2979 0.2615 0.239 0.2414
3163.524 0.2616 0.2712 0.2529 0.229 0.2426 0.2243 0.2084 0.1923 0.18176 0.2028
3202.103 0.1905 0.16068 0.1914 0.2299 0.2207 0.1927 0.16334 0.14618 0.1472 0.16405
3240.683 0.14843 0.13266 0.15345 0.13055 0.10681 0.10834 0.10943 0.1323 0.1407 0.13685
3279.262 0.17659 0.1684 0.10922 0.097908 0.08376 0.10911 0.13067 0.14548 0.17579 0.17701
3317.842 0.16953 0.15708 0.1912 0.16233 0.11542 0.15264 0.16866 0.13307 0.13435 0.18126
3356.421 0.2009 0.2494 0.3356 0.4379 0.521 0.7309 1.1385 1.6685 2.4685 3.5185
3395.001 4.5485 5.2985 5.4985 5.2485 4.6585 3.6385 2.4585 1.5785 1.0357 0.7634
3433.580 0.6476 0.5972 0.6148 0.6765 0.7393 0.7806 0.798 0.828 0.887 0.9122
3472.160 0.82 0.7484 0.7215 0.6845 0.6626 0.5978 0.5436 0.4965 0.4345 0.4167
3510.740 0.3668 0.3261 0.3207 0.276 0.2519 0.2513 0.2596 0.2512 0.2276 0.18516
3549.319 0.15782 0.11347 0.0674 0.0887772 0.11408 0.16638 0.2144 0.1888 0.13927 0.13054
3587.899 0.1064 0.10885 0.1591 0.16273 0.12898 0.11088 0.12285 0.12057 0.15599 0.1634
3626.478 0.11939 0.12766 0.10713 0.103 0.097137 0.08063 0.10687 0.08007 0.0596 0.0424
3665.058 0.0402 0.093015 0.12436 0.15383 0.192 0.1933 0.15795 0.12773 0.12968 0.10908
3703.637 0.096852 0.11167 0.09938 0.10685 0.14066 0.15602 0.14058 0.12932 0.12687 0.14065
3742.217 0.17498 0.2099 0.2217 0.1941 0.13596 0.11478 0.08135 0.08697 0.14493 0.1102
3780.797 0.094946 0.11161 0.1527 0.2314 0.2572 0.227 0.18524 0.17836 0.194 0.17425
3819.376 0.12906 0.1033 0.092072 0.10673 0.14338 0.16172 0.17043 0.14281 0.14139 0.14931
3857.956 0.12736 0.14219 0.16466 0.14789 0.18268 0.2157 0.2017 0.17499 0.16225 0.14296
3896.535 0.11235 0.13237 0.15376 0.14505 0.13004 0.12647 0.1261 0.12187 0.13057 0.15437
3935.115 0.14305 0.16339 0.16326 0.16218 0.1888 0.16486 0.14086 0.13069 0.093057 0.10222
3973.694 0.16493 0.15114 0.13913 0.1264 0.10035 0.13758 0.12455 0.08689
##END=
