##TITLE=1-Cyclohexyl-1-propanone
##JCAMP-DX=4.24
##DATA TYPE=INFRARED SPECTRUM
##ORIGIN=NIST Mass Spectrometry Data Center
##OWNER=NIST Standard Reference Data Program
Collection (C) 2018 copyright by the U.S. Secretary of Commerce
on behalf of the United States of America. All rights reserved.
##CAS REGISTRY NO=1123-86-0
##MOLFORM=C 9 H 16 O
##$NIST SOURCE=MSDC-IR
##SPECTROMETER/DATA SYSTEM=HP-GC/MS/IRD
##STATE=gas
##XUNITS=1/CM
##YUNITS=ABSORBANCE
##XFACTOR=1.0
##YFACTOR=0.000005300
##DELTAX=4.0
##FIRSTX=550.0
##LASTX=3846.0
##FIRSTY=0.000186
##MAXX=3846
##MINX=550
##MAXY=0.053
##MINY=0
##NPOINTS=825
##XYDATA=(X++(Y..Y))
550.0 35 30 31 38 42 33 36 54 52 37
590.0 31 33 33 28 22 15 14 7 3 17
630.0 13 9 23 22 16 26 33 40 60 69
670.0 67 74 68 54 43 26 20 22 20 25
710.0 14 7 7 9 11 13 10 17 28 29
750.0 28 21 24 37 31 27 35 39 43 51
790.0 62 72 78 88 110 138 171 199 202 194
830.0 173 135 102 89 89 88 91 99 115 135
870.0 155 175 195 216 220 201 173 150 139 131
910.0 127 128 129 137 136 140 166 202 261 345
950.0 446 559 670 768 825 819 752 647 517 399
990.0 330 302 298 315 347 387 425 455 473 464
1030.0 424 369 318 274 248 233 220 205 195 194
1070.0 199 205 220 252 289 342 409 473 542 606
1110.0 650 657 632 602 581 592 646 730 818 871
1150.0 879 840 768 703 658 616 569 513 448 385
1190.0 323 267 224 189 165 160 167 187 215 241
1230.0 270 291 299 293 276 255 241 227 212 203
1270.0 193 189 203 228 266 307 344 374 385 396
1310.0 417 448 495 555 620 684 737 768 769 741
1350.0 692 651 639 657 674 672 644 584 509 445
1390.0 385 335 306 296 305 320 337 362 390 418
1430.0 465 546 676 856 1040 1178 1254 1220 1080 903
1470.0 725 563 420 310 238 191 157 132 113 99
1510.0 89 78 69 65 63 58 54 54 48 45
1550.0 46 48 49 44 43 41 45 45 43 42
1590.0 43 45 49 52 53 55 59 62 67 70
1630.0 73 77 78 82 90 104 119 134 157 187
1670.0 228 274 340 427 536 683 888 1171 1555 2038
1710.0 2597 3124 3504 3629 3424 2940 2323 1722 1223 851
1750.0 596 422 307 228 174 138 111 88 74 61
1790.0 52 48 44 42 40 36 36 36 38 37
1830.0 34 32 32 31 29 26 23 22 22 22
1870.0 21 21 19 19 21 18 17 15 12 12
1910.0 10 11 11 9 10 11 12 9 10 9
1950.0 9 9 7 8 7 9 12 13 11 9
1990.0 12 12 9 8 6 4 5 6 7 8
2030.0 10 10 9 6 5 6 5 6 5 7
2070.0 7 5 4 4 4 5 6 6 5 7
2110.0 5 8 9 11 10 8 10 10 9 8
2150.0 12 12 9 9 10 13 14 13 14 13
2190.0 11 14 14 11 11 11 9 9 8 12
2230.0 12 10 10 9 8 8 9 7 4 4
2270.0 8 8 6 3 2 5 6 7 8 8
2310.0 8 10 9 9 11 12 12 17 18 16
2350.0 14 16 17 16 17 18 17 16 16 17
2390.0 16 12 11 13 14 14 13 14 13 12
2430.0 12 8 6 8 8 11 8 8 11 11
2470.0 12 15 18 19 18 18 17 18 17 15
2510.0 13 13 11 11 15 16 17 19 16 13
2550.0 13 14 17 19 21 23 23 24 24 25
2590.0 30 32 33 36 38 40 42 42 42 48
2630.0 54 55 58 61 68 79 90 97 107 111
2670.0 107 104 102 95 87 82 77 73 71 67
2710.0 66 65 61 57 55 55 54 60 64 67
2750.0 73 77 78 85 90 96 103 110 127 142
2790.0 156 171 187 197 210 228 249 273 302 337
2830.0 388 462 573 756 1048 1493 2077 2663 3063 3184
2870.0 3028 2676 2292 2002 1834 1765 1790 1908 2114 2409
2910.0 2795 3297 3994 4974 6268 7795 9220 10000 9860 8864
2950.0 7210 5345 3769 2699 2076 1761 1627 1573 1512 1413
2990.0 1256 1058 859 688 558 460 382 327 285 256
3030.0 235 216 201 184 166 149 132 117 105 96
3070.0 90 85 80 80 80 75 73 77 75 68
3110.0 61 63 63 56 55 56 53 55 56 55
3150.0 60 63 62 59 53 49 43 40 38 33
3190.0 30 25 21 26 26 22 25 23 20 18
3230.0 20 22 16 14 13 6 6 8 7 8
3270.0 11 11 9 9 11 9 13 11 9 13
3310.0 9 11 7 0 0 2 5 5 10 9
3350.0 9 11 11 11 12 17 23 23 25 27
3390.0 27 31 42 53 53 55 66 72 74 73
3430.0 73 70 63 62 57 50 43 33 27 26
3470.0 25 19 13 14 9 8 12 12 11 12
3510.0 7 4 7 3 1 6 7 3 4 3
3550.0 4 9 8 5 7 8 11 7 6 11
3590.0 11 9 6 4 5 8 9 6 6 8
3630.0 11 11 9 11 13 17 12 5 8 6
3670.0 5 11 11 8 11 12 11 12 12 13
3710.0 16 16 17 17 17 15 20 25 28 26
3750.0 15 15 21 16 13 14 17 23 21 14
3790.0 11 14 15 17 17 18 15 13 17 16
3830.0 17 17 22 20 14
##END=
