##TITLE=3,5-Dimethyl-2-cyclohexene-1-one
##JCAMP-DX=4.24
##DATA TYPE=INFRARED SPECTRUM
##ORIGIN=NIST Mass Spectrometry Data Center
##OWNER=NIST Standard Reference Data Program
Collection (C) 2018 copyright by the U.S. Secretary of Commerce
on behalf of the United States of America. All rights reserved.
##CAS REGISTRY NO=1123-09-7
##MOLFORM=C 8 H 12 O
##$NIST SOURCE=MSDC-IR
##SPECTROMETER/DATA SYSTEM=HP-GC/MS/IRD
##STATE=gas
##XUNITS=1/CM
##YUNITS=ABSORBANCE
##XFACTOR=1.0
##YFACTOR=0.000002300
##DELTAX=4.0
##FIRSTX=550.0
##LASTX=3846.0
##FIRSTY=0.000393
##MAXX=3846
##MINX=550
##MAXY=0.023
##MINY=0
##NPOINTS=825
##XYDATA=(X++(Y..Y))
550.0 171 130 122 122 61 32 45 28 20 3
590.0 29 57 36 34 35 41 40 32 42 12
630.0 1 22 35 27 28 46 26 16 38 50
670.0 48 32 19 24 19 30 42 35 43 57
710.0 66 59 47 51 49 32 29 45 57 60
750.0 53 50 62 59 54 47 47 74 96 100
790.0 109 118 143 186 225 285 329 334 339 313
830.0 307 331 333 342 356 354 348 340 346 376
870.0 424 499 554 582 730 891 772 624 600 527
910.0 374 265 207 158 123 98 100 90 96 106
950.0 106 109 117 116 114 120 119 105 105 118
990.0 115 119 132 161 193 213 231 258 284 288
1030.0 284 272 252 239 241 248 257 254 231 204
1070.0 164 132 113 114 133 130 129 129 114 121
1110.0 136 144 181 234 299 360 423 483 524 560
1150.0 562 539 515 491 452 391 332 274 218 191
1190.0 185 197 223 266 339 425 562 765 1007 1298
1230.0 1616 1925 2115 2150 2061 1870 1625 1366 1211 1188
1270.0 1224 1285 1363 1442 1466 1452 1416 1343 1195 981
1310.0 808 738 729 742 760 777 799 823 840 889
1350.0 1018 1173 1285 1363 1464 1595 1698 1681 1632 1549
1390.0 1357 1035 716 556 539 596 681 792 889 960
1430.0 1044 1087 1059 1059 1050 1008 969 943 863 718
1470.0 601 488 390 309 248 205 180 163 153 146
1510.0 134 129 120 110 114 119 120 125 131 136
1550.0 150 161 173 181 185 191 194 194 206 226
1590.0 238 259 296 345 407 495 612 770 966 1182
1630.0 1377 1522 1607 1633 1604 1550 1538 1657 1934 2346
1670.0 2897 3610 4563 5796 7258 8584 9496 10000 9996 9298
1710.0 7954 6309 4813 3618 2627 1834 1293 957 748 619
1750.0 531 464 424 388 351 326 305 286 266 249
1790.0 236 220 196 179 153 132 124 110 104 97
1830.0 95 95 90 83 80 74 65 62 54 46
1870.0 43 40 36 36 33 31 27 26 31 32
1910.0 31 24 22 28 24 19 18 17 20 23
1950.0 18 15 13 12 18 17 14 21 25 25
1990.0 22 19 14 16 21 21 20 21 15 7
2030.0 12 18 19 13 4 4 6 14 15 11
2070.0 15 14 10 16 18 18 23 20 16 18
2110.0 19 18 20 24 28 30 28 28 21 18
2150.0 21 19 20 25 25 17 13 16 20 21
2190.0 27 30 26 23 23 25 21 17 14 17
2230.0 21 15 11 16 22 19 12 12 16 16
2270.0 11 12 14 15 17 11 7 14 20 17
2310.0 16 19 15 10 12 7 4 9 6 9
2350.0 17 14 1 0 0 2 8 12 15 22
2390.0 19 8 13 15 3 1 5 7 8 8
2430.0 4 1 12 19 20 22 18 12 7 14
2470.0 22 21 18 19 23 19 21 23 16 13
2510.0 20 22 23 24 15 13 13 6 11 18
2550.0 16 21 13 13 15 14 22 22 20 14
2590.0 11 16 20 18 20 23 20 20 24 30
2630.0 30 36 39 39 42 35 36 40 40 34
2670.0 40 50 40 41 47 45 51 49 34 42
2710.0 56 59 70 84 90 93 108 120 120 119
2750.0 119 106 82 81 86 85 91 97 102 109
2790.0 130 153 171 193 241 309 389 509 649 747
2830.0 797 806 778 731 688 681 721 790 881 1038
2870.0 1260 1537 1817 2057 2245 2391 2654 2868 2902 3118
2910.0 3490 3793 3800 3565 3314 2960 2555 2291 2269 2440
2950.0 2678 2983 3590 4123 3955 3608 3260 2700 2009 1441
2990.0 1091 849 661 502 413 367 327 322 356 402
3030.0 471 540 595 615 597 545 464 378 304 260
3070.0 241 224 210 198 187 182 163 149 142 117
3110.0 89 89 97 90 82 78 79 81 69 59
3150.0 56 48 44 41 45 50 48 53 55 44
3190.0 41 55 56 50 55 43 35 43 43 40
3230.0 21 12 29 31 29 36 31 26 36 37
3270.0 32 36 38 44 46 44 40 33 34 38
3310.0 48 55 51 63 86 94 99 107 109 113
3350.0 133 137 153 178 171 164 182 176 157 143
3390.0 117 113 111 103 99 86 67 60 77 71
3430.0 50 43 41 36 28 34 22 6 23 33
3470.0 23 16 18 19 21 15 16 32 21 7
3510.0 10 15 20 15 12 9 5 11 15 9
3550.0 15 31 43 46 31 13 12 13 12 3
3590.0 5 21 23 27 20 10 16 14 23 28
3630.0 12 10 15 28 26 14 16 22 16 16
3670.0 21 21 29 37 28 13 10 11 6 0
3710.0 18 26 17 14 8 14 20 15 17 28
3750.0 22 3 20 26 19 29 27 36 26 8
3790.0 4 7 2 4 16 11 9 14 8 7
3830.0 22 30 31 39 27
##END=
