##TITLE=2,5-Dichloro-p-xylene
##JCAMP-DX=4.24
##DATA TYPE=INFRARED SPECTRUM
##ORIGIN=EPA-IR VAPOR PHASE LIBRARY
##OWNER=SRD/NIST
Collection (C) 2018 copyright by the U.S. Secretary of Commerce
on behalf of the United States of America. All rights reserved.
##CAS REGISTRY NO=1124-05-6
##MOLFORM=C 8 H 8 Cl 2
##$NIST SOURCE=MSDC-IR
##STATE=gas
##XUNITS=1/CM
##YUNITS=ABSORBANCE
##XFACTOR=1.
##YFACTOR=0.001
##DELTAX=3.85796
##FIRSTX=501.5
##LASTX=4000.7
##FIRSTY=0.632
##MAXX=4000.7
##MINX=501.534
##MAXY=0.167222
##MINY=0
##NPOINTS=908
##XYDATA=(X++(Y..Y))
501.534 0.632 0.6578 0.7766 1.081 1.562 2.822 6.372 14.262 25.542 34.082
540.114 36.742 32.852 21.212 9.522 4.122 2.112 1.162 0.7918 0.4868 0.3034
578.693 0.4024 0.4067 0.3387 0.4456 0.6771 1.0332 1.422 1.602 1.612 1.362
617.273 0.8135 0.4132 0.19046 0.1141 0.16156 0.20416 0.2042 0.17879 0.1778 0.2871
655.852 0.4287 0.5258 0.6131 0.6882 0.7515 0.7607 0.7443 0.6297 0.5374 0.4961
694.432 0.4451 0.4731 0.6001 0.6432 0.6381 0.6741 0.8398 1.0052 1.0396 1.242
733.011 1.622 2.352 4.022 6.892 11.132 16.112 19.722 20.592 19.082 15.552
771.591 11.382 8.722 7.552 6.542 5.502 4.472 3.342 2.412 1.892 1.782
810.170 2.142 2.992 4.072 4.902 5.092 4.652 3.912 3.092 2.652 2.442
848.750 2.572 3.332 5.462 9.412 15.422 21.592 29.822 37.062 31.102 22.192
887.330 16.322 9.852 5.462 3.092 2.162 1.812 1.712 1.782 2.002 2.292
925.909 2.652 2.862 2.972 2.992 2.902 2.912 3.112 3.452 4.112 5.002
964.489 6.152 7.622 9.462 11.682 14.262 16.652 17.982 17.812 16.122 13.372
1003.068 10.682 8.712 7.312 6.252 5.652 5.532 5.752 6.122 6.542 7.012
1041.648 7.202 7.112 7.422 9.192 13.992 25.032 48.192 87.452 131.992 161.112
1080.227 167.222 143.162 94.172 51.972 28.602 16.842 11.592 9.292 8.182 7.472
1118.807 6.932 6.732 6.562 6.062 5.312 4.432 3.552 2.832 2.352 2.122
1157.387 2.122 2.172 2.452 3.422 5.532 8.482 10.532 10.822 9.672 6.872
1195.966 3.912 2.552 2.232 2.322 2.712 3.022 3.032 2.792 2.372 1.932
1234.546 1.882 2.112 2.272 2.442 2.622 2.772 2.992 3.082 3.002 2.822
1273.125 2.602 2.562 2.672 2.712 2.642 2.392 2.142 2.162 2.372 2.602
1311.705 2.872 3.112 3.222 3.312 3.502 3.892 4.732 6.542 10.162 16.372
1350.284 24.392 30.872 33.272 31.092 24.692 17.642 13.632 12.522 13.222 13.892
1388.864 13.662 13.342 11.842 9.542 8.012 7.262 7.122 7.462 8.282 9.562
1427.443 11.492 14.192 17.762 22.372 27.712 32.562 35.612 36.662 35.972 34.802
1466.023 35.322 39.162 47.452 61.422 78.692 89.892 89.312 78.192 55.172 30.542
1504.603 17.612 12.982 10.802 9.442 8.392 7.532 6.852 6.382 6.062 5.822
1543.182 5.652 5.522 5.392 5.302 5.202 5.052 4.832 4.542 4.172 3.732
1581.762 3.362 3.052 2.772 2.552 2.382 2.222 2.082 1.982 1.872 1.792
1620.341 1.742 1.702 1.612 1.512 1.432 1.342 1.252 1.1334 1.047 0.9954
1658.921 0.943 0.8867 0.8728 0.8808 0.8987 0.963 1.0273 1.0617 1.0952 1.1066
1697.500 1.0817 1.1019 1.172 1.342 1.682 2.262 3.072 4.012 4.832 5.142
1736.080 4.832 4.172 3.192 2.132 1.422 1.0556 0.8827 0.8446 0.8627 0.8982
1774.659 0.9225 0.9317 0.9221 0.8812 0.8232 0.6917 0.5535 0.5032 0.4827 0.4628
1813.239 0.4536 0.4469 0.4203 0.3808 0.3505 0.3264 0.3057 0.3042 0.3242 0.3246
1851.819 0.3109 0.2984 0.2727 0.2687 0.2838 0.3051 0.3492 0.4127 0.4773 0.5374
1890.398 0.5958 0.6304 0.6591 0.6623 0.6428 0.6154 0.5833 0.5456 0.4801 0.4065
1928.978 0.3496 0.3165 0.2885 0.2623 0.2651 0.2637 0.2496 0.2614 0.2741 0.2967
1967.557 0.3142 0.3212 0.357 0.3564 0.3362 0.3308 0.298 0.2653 0.2448 0.24167
2006.137 0.2502 0.2692 0.2595 0.22433 0.19518 0.1624 0.13878 0.1098 0.0845 0.07
2044.716 0.0672 0.0745 0.0871 0.0969 0.1051 0.1182 0.13388 0.16395 0.17596 0.16991
2083.296 0.17826 0.17638 0.16152 0.147576 0.1303 0.1245 0.1199 0.1055 0.1069 0.13583
2121.875 0.17221 0.20135 0.22647 0.2636 0.3116 0.3706 0.3973 0.3823 0.3568 0.2949
2160.455 0.2466 0.2315 0.19974 0.19675 0.23244 0.2687 0.3094 0.3356 0.3315 0.3239
2199.035 0.3008 0.2491 0.18612 0.145803 0.111 0.0952 0.1073 0.101 0.1042 0.083
2237.614 0.0626 0.0531 0.04 0.0531 0.0428 0.037 0.0708 0.0715 0.0587 0.0762
2276.194 0.0839 0.0853 0.0926 0.0975 0.1206 0.143295 0.1622 0.17382 0.18614 0.21178
2314.773 0.2609 0.3223 0.3796 0.4479 0.4867 0.4842 0.4353 0.3921 0.3437 0.3233
2353.353 0.3327 0.3204 0.3335 0.3588 0.3725 0.3905 0.401 0.3849 0.3481 0.345
2391.932 0.3557 0.3589 0.3978 0.4259 0.4534 0.4901 0.5146 0.5244 0.5433 0.6012
2430.512 0.6732 0.7322 0.734 0.6917 0.6417 0.5351 0.4437 0.4094 0.4058 0.4198
2469.092 0.4436 0.4733 0.5047 0.535 0.4965 0.4377 0.4018 0.3625 0.301 0.2686
2507.671 0.2661 0.23045 0.20892 0.20307 0.19921 0.21733 0.22522 0.20291 0.18657 0.16064
2546.251 0.16448 0.19334 0.21041 0.2538 0.2818 0.2856 0.3113 0.3447 0.344 0.3005
2584.830 0.2809 0.3076 0.3822 0.4735 0.5809 0.7332 0.8718 0.97 1.0006 0.9671
2623.410 0.8473 0.6748 0.5361 0.4689 0.46 0.4421 0.3989 0.3644 0.3448 0.3262
2661.989 0.3103 0.2997 0.3206 0.3367 0.3403 0.3576 0.3686 0.3749 0.4123 0.4264
2700.569 0.41 0.4178 0.4563 0.5023 0.5329 0.5785 0.6447 0.7258 0.8236 0.9643
2739.148 1.162 1.412 1.712 1.922 1.992 1.892 1.582 1.192 0.8764 0.7387
2777.728 0.7243 0.7433 0.8202 0.946 1.0587 1.1407 1.222 1.342 1.422 1.502
2816.308 1.642 1.802 1.982 2.192 2.452 2.752 3.092 3.562 4.202 5.032
2854.887 6.112 7.492 9.122 10.712 11.972 12.652 12.652 12.112 11.292 10.472
2893.467 9.802 9.322 9.072 9.102 9.492 10.472 12.302 15.442 20.372 27.032
2932.046 33.502 36.952 37.112 34.232 28.522 22.892 19.522 18.202 18.132 18.622
2970.626 18.832 18.792 19.002 19.292 19.182 18.412 16.992 14.962 12.712 10.642
3009.205 9.062 8.022 7.312 6.912 6.892 7.052 7.302 7.672 7.932 7.992
3047.785 7.862 7.552 7.062 6.462 5.862 5.352 4.942 4.622 4.422 4.302
3086.364 4.192 4.112 4.042 3.842 3.532 3.092 2.592 2.202 1.912 1.642
3124.944 1.432 1.242 1.0733 0.9541 0.8486 0.7119 0.5927 0.5141 0.4699 0.4669
3163.524 0.4307 0.3858 0.3415 0.3384 0.3156 0.3014 0.3185 0.2903 0.2575 0.2545
3202.103 0.23469 0.18794 0.15903 0.1193 0.13886 0.1632 0.18805 0.17901 0.17554 0.17256
3240.683 0.1139 0.1215 0.143661 0.0976 0.0929 0.147757 0.16102 0.145582 0.18102 0.20562
3279.262 0.15613 0.151409 0.17056 0.15664 0.146518 0.15946 0.17385 0.17225 0.1582 0.17455
3317.842 0.146732 0.1104 0.13263 0.0799 0.034 0.0758 0.0674 0.0566 0.0749 0.1037
3356.421 0.1016 0.0605 0.0678 0.0551 0.025 0.0519 0.0823 0.0901 0.16645 0.21392
3395.001 0.20539 0.16893 0.16419 0.17525 0.0925 0.0508 0.0619 0.05 0.03 0.009
3433.580 0 0.025 0.0798 0.1016 0.0713 0.041 0.007 0.036 0.0634 0.066
3472.160 0.0926 0.0487 0.041 0.032 0.0491 0.124 0.0982 0.0841 0.17555 0.18056
3510.740 0.0974 0.12 0.11 0.036 0.0946 0.141762 0.0532 0.0514 0.0976 0.0854
3549.319 0.0754 0.0729 0.106 0.1033 0.0759 0.1058 0.1115 0.0839 0.0421 0.0621
3587.899 0.1073 0.0968 0.1136 0.15945 0.19304 0.15484 0.0724 0.035 0.0504 0.0962
3626.478 0.0736 0.041 0.042 0.003 0.003 0.0451 0.0488 0.0556 0.042 0.008
3665.058 0.02 0.016 0.029 0.037 0.052 0.0705 0.0813 0.0633 0.009 0.008
3703.637 0.014 0.0896 0.1123 0.016 0.0577 0.141932 0.15468 0.19458 0.24155 0.21728
3742.217 0.19197 0.23346 0.2641 0.2558 0.2849 0.2722 0.20047 0.17012 0.1161 0.141625
3780.797 0.20831 0.21388 0.22496 0.2564 0.2604 0.2611 0.244 0.19579 0.21213 0.23614
3819.376 0.1974 0.16679 0.20436 0.17786 0.14412 0.15775 0.1113 0.0581 0.098 0.17768
3857.956 0.17101 0.16365 0.16796 0.17793 0.2206 0.21181 0.24053 0.2447 0.145092 0.19725
3896.535 0.21734 0.17428 0.17403 0.16727 0.17812 0.19077 0.21782 0.16076 0.15903 0.20946
3935.115 0.22354 0.21831 0.23117 0.313 0.3705 0.3906 0.3806 0.3504 0.3657 0.363
3973.694 0.3251 0.2962 0.2489 0.2581 0.294 0.2696 0.23354 0.16828
##END=
