##TITLE=3-Cyclohexyl-1-propanol
##JCAMP-DX=4.24
##DATA TYPE=INFRARED SPECTRUM
##ORIGIN=NIST Mass Spectrometry Data Center
##OWNER=NIST Standard Reference Data Program
Collection (C) 2018 copyright by the U.S. Secretary of Commerce
on behalf of the United States of America. All rights reserved.
##CAS REGISTRY NO=1124-63-6
##MOLFORM=C 9 H 18 O
##$NIST SOURCE=MSDC-IR
##SPECTROMETER/DATA SYSTEM=HP-GC/MS/IRD
##STATE=gas
##XUNITS=1/CM
##YUNITS=ABSORBANCE
##XFACTOR=1.0
##YFACTOR=0.000006700
##DELTAX=4.0
##FIRSTX=550.0
##LASTX=3846.0
##FIRSTY=0.000114
##MAXX=3846
##MINX=550
##MAXY=0.067
##MINY=0
##NPOINTS=825
##XYDATA=(X++(Y..Y))
550.0 17 9 0 5 4 1 5 17 19 11
590.0 11 20 26 28 32 30 30 35 33 26
630.0 20 20 19 15 13 13 20 21 14 13
670.0 21 22 24 26 20 17 20 24 29 24
710.0 16 16 22 24 22 27 31 34 38 39
750.0 38 32 32 34 34 36 35 29 28 33
790.0 38 40 36 31 28 34 48 56 56 65
830.0 82 101 113 118 115 105 102 105 108 114
870.0 117 123 135 150 171 193 218 235 245 255
910.0 264 264 271 274 270 264 253 246 240 235
950.0 237 243 245 242 237 232 236 248 272 308
990.0 356 413 474 536 608 682 757 849 949 1042
1030.0 1123 1191 1258 1325 1393 1448 1446 1365 1228 1052
1070.0 870 721 594 500 437 388 350 318 291 265
1110.0 237 217 204 195 188 179 173 170 167 166
1150.0 169 168 166 167 171 175 178 184 187 188
1190.0 193 201 206 207 209 212 215 221 227 230
1230.0 239 243 249 255 261 273 289 302 315 319
1270.0 311 297 281 262 247 234 226 220 213 208
1310.0 208 206 205 209 216 223 237 253 273 288
1350.0 292 283 274 277 293 317 347 375 396 402
1390.0 388 364 324 283 245 218 196 183 186 202
1430.0 239 300 398 521 644 737 772 723 617 494
1470.0 387 306 241 190 147 111 87 72 63 57
1510.0 50 45 41 39 35 29 26 27 29 26
1550.0 20 18 20 21 19 16 16 15 13 12
1590.0 8 9 9 9 11 10 9 7 5 5
1630.0 4 6 7 4 5 5 6 7 4 2
1670.0 3 4 5 3 0 2 5 6 5 5
1710.0 3 3 5 4 3 2 2 1 1 2
1750.0 4 5 4 4 4 4 3 3 4 3
1790.0 3 4 3 2 3 3 2 1 0 1
1830.0 2 2 1 1 2 3 2 1 0 1
1870.0 3 4 2 2 2 1 3 4 4 2
1910.0 4 5 4 3 3 1 2 3 3 6
1950.0 6 5 5 4 4 5 4 4 5 6
1990.0 6 5 7 8 6 7 4 5 5 6
2030.0 8 12 12 13 13 14 16 13 11 11
2070.0 10 9 9 8 7 6 6 4 2 3
2110.0 4 3 3 3 2 3 6 6 3 3
2150.0 4 6 5 6 7 7 7 7 7 9
2190.0 8 7 6 5 6 6 6 8 8 7
2230.0 9 8 9 8 5 7 4 2 7 7
2270.0 5 6 7 8 8 7 8 9 9 10
2310.0 9 7 8 10 10 10 9 13 15 13
2350.0 16 17 18 17 14 16 16 14 17 17
2390.0 15 15 16 16 15 16 17 17 17 19
2430.0 20 19 17 14 17 15 13 14 14 15
2470.0 18 21 21 21 20 21 23 23 20 18
2510.0 18 19 21 23 25 27 27 25 24 26
2550.0 26 27 29 32 34 35 38 38 41 45
2590.0 47 51 55 56 57 60 65 65 68 71
2630.0 70 72 81 90 95 105 116 125 133 140
2670.0 136 130 126 121 116 113 111 111 111 111
2710.0 112 110 108 111 113 114 115 116 122 128
2750.0 129 132 138 148 154 161 173 187 202 221
2790.0 239 255 274 286 299 317 340 369 412 469
2830.0 558 704 931 1271 1735 2298 2919 3427 3631 3536
2870.0 3217 2814 2499 2306 2222 2239 2368 2607 2969 3483
2910.0 4160 5014 6071 7336 8698 9766 10000 9351 8024 6277
2950.0 4558 3169 2209 1604 1202 918 717 567 457 377
2990.0 318 271 234 206 182 163 146 136 126 115
3030.0 104 91 82 79 69 63 66 64 61 56
3070.0 52 48 44 43 42 41 40 36 35 34
3110.0 35 37 34 34 36 31 29 33 37 37
3150.0 35 34 36 33 27 24 25 21 17 14
3190.0 12 12 15 18 15 14 15 16 15 16
3230.0 15 14 13 15 16 15 16 16 10 10
3270.0 16 15 10 10 11 13 16 9 2 5
3310.0 7 8 7 5 6 9 15 13 15 12
3350.0 9 13 16 14 14 16 11 10 14 15
3390.0 14 13 15 13 13 14 15 19 21 19
3430.0 19 19 16 12 14 17 16 14 13 17
3470.0 24 23 18 21 24 21 23 22 19 17
3510.0 12 14 16 14 12 12 11 13 19 15
3550.0 11 9 5 8 14 15 13 11 11 13
3590.0 18 22 21 22 26 28 33 39 46 54
3630.0 60 71 88 113 147 188 236 284 327 360
3670.0 358 321 269 207 156 117 88 64 51 43
3710.0 42 44 39 34 28 29 32 30 25 21
3750.0 25 27 28 27 25 23 21 21 22 24
3790.0 25 24 20 19 23 23 23 25 27 30
3830.0 27 28 32 32 24
##END=
