##TITLE=4-Nitro-1,3,5-trimethylpyrazole
##JCAMP-DX=4.24
##DATA TYPE=INFRARED SPECTRUM
##ORIGIN=EPA-IR VAPOR PHASE LIBRARY
##OWNER=SRD/NIST
Collection (C) 2018 copyright by the U.S. Secretary of Commerce
on behalf of the United States of America. All rights reserved.
##CAS REGISTRY NO=1125-30-0
##MOLFORM=C 6 H 9 N 3 O 2
##$NIST SOURCE=MSDC-IR
##STATE=gas
##XUNITS=1/CM
##YUNITS=ABSORBANCE
##XFACTOR=1.
##YFACTOR=0.001
##DELTAX=1.92898
##FIRSTX=549.8
##LASTX=4000.7
##FIRSTY=2.88
##MAXX=4000.7
##MINX=549.759
##MAXY=0.10151
##MINY=0
##NPOINTS=1790
##XYDATA=(X++(Y..Y))
549.759 2.88 2.101 1.699 1.4555 1.11612 2.45 3 2.15 2.15 2.34
569.049 1.8282 2.0749 3.5 4.77 5.93 6.82 6.05 5.77 6.25 5.59
588.339 4.51 5.02 6.5 5.87 4.79 4.62 4.89 4.88 3.83 2.96
607.628 2.88 2.89 2.81 2.67 2.56 2.8 2.27 1.8149 1.8301 2.0889
626.918 2.18 1.9486 1.9258 2.15 2.51 2.2 1.7058 1.6273 2.0849 2.16
646.208 2.13 2.75 2.45 2.28 2.67 2.88 3.73 4.16 4.56 4.57
665.498 4.09 4.49 4.26 3.94 4.23 3.48 2.44 2.0908 1.9051 1.7065
684.787 1.8556 2.13 1.7002 1.289 1.5297 1.6102 1.4513 1.43 1.3476 1.225
704.077 1.3714 1.5286 1.3627 1.3335 1.2378 1.2213 1.4184 1.3777 0.938 0.74
723.367 1.11617 1.7738 1.8493 1.4354 1.5607 1.5976 1.369 1.8267 2.27 1.8705
742.657 1.7456 2.65 3.17 3.18 3.35 3.3 3.02 3.33 4.38 4.92
761.947 5.33 6.03 5.98 5.35 4.82 4.13 3.73 3.78 3.72 3.43
781.236 3.17 2.97 2.68 3.12 3.81 3.98 4.38 4.87 5.38 6.18
800.526 7.68 9.66 11.54 13.72 16.48 18.57 19.35 19.8 20.03 19.56
819.816 18.54 17.16 15.78 13.76 10.81 8.65 7.05 5.42 4.69 4.61
839.106 4.51 4.28 4.04 4.21 4.94 5.63 6 6.86 8.01 9.32
858.395 10.46 10.57 11.22 12.56 12.76 11.86 10.95 9.86 8.7 7.62
877.685 6.35 5.2 4.24 3.04 2.2 2.53 2.38 1.7412 2.0415 2.18
896.975 2.0907 2.38 2.33 2.69 2.85 1.9993 1.6216 2.027 2.22 1.7862
916.265 1.8582 1.9442 1.7799 1.8258 1.809 1.8581 2.22 2.12 1.7764 1.8074
935.555 1.7336 2.066 2.25 2.0518 1.8835 1.8352 1.6239 1.6777 1.8461 2.15
954.844 2.15 1.9215 2.23 2.26 2.63 2.82 2.83 3 3.17 3.53
974.134 3.79 4.02 4.1 4.48 5.36 5.81 6.41 7.05 7.26 7.13
993.424 6.76 7.06 7.73 7.48 6.57 6.41 6.26 5.43 5.12 5.03
1012.714 4.88 4.82 4.54 4.34 4.04 4.21 4.09 3.83 4.12 4.37
1032.003 3.72 3.21 3.5 3.5 3.58 3.88 3.74 3.9 4.3 3.87
1051.293 4.1 4.34 3.47 2.45 2.0177 2.1166 2.32 2.81 2.33 1.9084
1070.583 2.57 2.15 1.6037 1.9752 2.8 3.41 3.45 3.01 2.27 1.7782
1089.873 1.9408 2.21 1.20605 1.5191 2.42 2.75 2.89 2.68 2.65 2.68
1109.163 3.81 3.62 2.7 3.25 4.41 4.67 3.55 3.47 5.08 5.31
1128.452 4.69 4.98 5.1 4.91 4.54 4.23 5.2 5.87 4.89 3.88
1147.742 3.23 2.58 2.95 4.32 5.16 4.66 4.14 3.97 3.19 2.54
1167.032 3.15 3.39 2.78 2.77 2.55 2.72 3.29 3.87 4.19 5.2
1186.322 5.41 5.41 6.84 7.03 8.46 9.74 8.86 8.04 7.49 7.14
1205.611 6.77 5.76 4.82 4.6 2.96 1.8492 3.96 4.38 2.89 2.72
1224.901 2.73 1.842 1.8403 2.54 3.07 3.29 3.17 3.48 3.92 3.94
1244.191 4.45 5.26 5.05 5.21 5.85 6.48 6.96 6.95 7.57 8.48
1263.481 9.75 10.34 11.25 12.12 11.79 11.71 11.58 10.95 10.2 9.82
1282.771 9.45 8.91 8.18 7.38 7.04 6.76 6.54 6.15 5.73 5.8
1302.060 5.87 5.75 5.53 5.57 5.82 5.95 6.04 6.21 6.46 6.91
1321.350 7.3 7.62 7.9 8.26 8.78 9.41 10.32 11.56 13.28 15.56
1340.640 18.98 23.75 29.74 37.31 46.82 57.58 68.72 79.4 88.25 94.84
1359.930 99.04 101.35 101.51 99.11 94.71 88.05 78.58 68.07 59.68 54.49
1379.219 51.99 50.7 49.65 49.19 48.31 46.23 43.46 40.45 37.54 35.41
1398.509 34.32 33.75 33.66 33.85 34.27 35.07 35.97 36.82 37.45 37.79
1417.799 37.59 37.04 36.34 35.43 34.19 32.85 31.35 29.89 29.03 28.71
1437.089 29.18 30.43 32 33.72 36.03 38.75 41.51 44.09 46.63 48.84
1456.378 50.63 52.33 53.28 53.52 53.05 51.65 49.8 47.87 45.59 43.38
1475.668 41.73 40.18 39.26 39.02 39.65 40.96 42.94 45.76 49.24 53.18
1494.958 57.84 63.17 68.42 73.6 78.18 81.61 83.89 85.08 84.8 83.54
1514.248 81.31 77.36 71.89 65.43 58.24 51.58 45.04 39.46 35.08 31.59
1533.538 29.07 27.49 26.7 26.36 26.89 28.1 29.63 31.78 34.54 38.2
1552.827 42.62 48.32 54.68 62.13 70.27 77.45 83.85 88.3 90.24 90.17
1572.117 87.94 84.04 78.12 71.01 62.93 53 43.05 33.86 26.4 20.71
1591.407 16.47 13.4 11.4 10.03 9.03 8.18 7.51 7.14 6.55 6.44
1610.697 6.45 5.87 5.7 5.64 5.21 4.98 4.7 4.46 4.32 3.93
1629.986 3.88 3.89 3.59 3.19 3.04 2.91 2.74 2.78 2.81 2.75
1649.276 2.77 2.86 2.53 2.26 2.25 2.3 2.18 2.24 2.39 2.35
1668.566 2.44 2.54 2.49 2.34 2.25 2.14 2.0744 2.018 2.0781 2.13
1687.856 2.15 2.0951 2.0573 1.8727 1.7093 1.8218 1.631 1.6501 1.8138 1.9992
1707.146 2.22 2.22 2.0635 2.0561 1.9504 1.7553 1.9884 2.0976 1.9901 1.7937
1726.435 1.8489 2.14 2.1043 1.6789 1.5867 1.7387 1.8077 1.7672 1.7671 1.8334
1745.725 1.703 1.7798 1.8565 2.0406 2.19 2.0751 2.0635 2.1172 2.21 2.37
1765.015 2.32 2.3 2.46 2.27 2.26 2.53 2.74 2.72 2.57 2.41
1784.305 2.21 2.17 2.0642 1.7782 1.6359 1.6967 1.842 1.966 1.8008 1.7052
1803.594 1.7888 1.7535 1.7539 1.6932 1.6291 1.6287 1.5669 1.4749 1.5337 1.6745
1822.884 1.7076 1.6971 1.6859 1.6153 1.7246 1.5994 1.4815 1.653 1.5052 1.4131
1842.174 1.4104 1.3754 1.4772 1.6263 1.6855 1.6838 1.6188 1.6054 1.5084 1.4165
1861.464 1.446 1.5144 1.5671 1.6141 1.6429 1.6423 1.7428 1.5561 1.4809 1.5799
1880.754 1.515 1.5727 1.6179 1.5209 1.5081 1.5208 1.4961 1.605 1.5781 1.4415
1900.043 1.4648 1.6141 1.6663 1.6555 1.6046 1.5085 1.5778 1.5611 1.6272 1.5883
1919.333 1.5921 1.7148 1.599 1.5902 1.6744 1.6529 1.4978 1.5268 1.6459 1.6058
1938.623 1.5553 1.5796 1.5586 1.7202 1.8373 1.6886 1.5775 1.5856 1.5417 1.5677
1957.913 1.5673 1.5389 1.6079 1.5449 1.6192 1.682 1.596 1.5825 1.6805 1.6705
1977.202 1.6635 1.5417 1.5425 1.6356 1.4543 1.3983 1.4482 1.3599 1.3199 1.398
1996.492 1.5528 1.5844 1.4773 1.6345 1.5321 1.351 1.5843 1.6284 1.427 1.4117
2015.782 1.5488 1.5963 1.6483 1.5999 1.4536 1.5822 1.6978 1.6467 1.7769 1.8133
2035.072 1.6393 1.5218 1.4693 1.6603 1.7634 1.5844 1.5529 1.576 1.577 1.6664
2054.362 1.624 1.6486 1.7311 1.6891 1.5496 1.6299 1.8036 1.666 1.4852 1.6231
2073.651 1.7076 1.4975 1.5666 1.6066 1.4851 1.471 1.4657 1.5412 1.5584 1.6452
2092.941 1.772 1.6259 1.5508 1.6183 1.6045 1.645 1.6532 1.5439 1.4293 1.3955
2112.231 1.4608 1.5844 1.5792 1.6351 1.7439 1.7797 1.7222 1.6197 1.7209 1.648
2131.521 1.5816 1.5823 1.6623 1.645 1.532 1.4937 1.5365 1.6153 1.5075 1.536
2150.810 1.6639 1.609 1.6306 1.713 1.5995 1.5047 1.6491 1.6782 1.5848 1.6376
2170.100 1.576 1.3261 1.3071 1.6113 1.6289 1.5757 1.6771 1.4696 1.4136 1.5856
2189.390 1.5195 1.5067 1.6173 1.66 1.6607 1.5457 1.4948 1.3399 1.2909 1.5935
2208.680 1.5348 1.4386 1.5466 1.5474 1.7516 1.8162 1.5698 1.6314 1.6874 1.6206
2227.970 1.5984 1.6224 1.6814 1.7169 1.6141 1.5237 1.5486 1.5886 1.6966 1.8078
2247.259 1.738 1.5552 1.5011 1.5893 1.8619 1.9869 1.8978 1.8379 1.8467 1.8503
2266.549 1.6918 1.7105 1.7354 1.5122 1.4348 1.3861 1.6285 1.8603 1.6819 1.5856
2285.839 1.6004 1.6561 1.6196 1.529 1.4907 1.5229 1.6543 1.667 1.4993 1.4854
2305.129 1.591 1.4834 1.4009 1.4691 1.6312 1.8199 1.5868 1.3779 1.4935 1.5995
2324.418 1.7475 1.6744 1.4485 1.3845 1.4027 1.3787 1.4849 1.6715 1.7195 1.7947
2343.708 1.8719 1.8348 1.8175 1.9249 1.9235 1.7966 1.8796 1.9424 1.9386 1.9035
2362.998 1.9775 2.16 1.9389 2.0821 2.25 1.8246 1.7456 1.9638 2.1157 2.21
2382.288 2.15 2.28 2.47 2.42 2.38 2.29 2.26 2.15 2.0111 2.13
2401.578 2.2 2.23 2.28 2.33 2.46 2.23 1.8739 1.8296 2.0627 2.36
2420.867 2.23 2.0251 1.9392 1.867 1.977 2.0324 1.8405 1.8239 2.0485 1.9887
2440.157 1.8709 1.8184 1.8292 1.9028 1.8286 1.8303 1.9285 1.948 2.0195 1.9673
2459.447 1.7514 1.7606 1.8941 1.9055 2.0668 2.0923 2.0243 2.072 2.0615 2.17
2478.737 2.34 2.33 2.2 2.14 2.19 2.28 2.28 2.22 2.2 2.16
2498.026 2.17 2.0919 2.0873 2.15 2.1048 2.0628 2.0464 1.9811 1.8225 1.9408
2517.316 2.0436 1.8581 1.7156 1.8645 2.0539 1.9859 2.0152 2.17 1.9725 2.0208
2536.606 2.51 2.53 2.12 2.0251 2.0421 1.8805 2.0209 2.0895 2.0518 2.28
2555.896 2.0899 1.973 1.8985 1.7788 1.7627 1.3579 1.5048 1.8847 1.9317 1.9723
2575.186 1.9356 1.939 2.21 2.2 1.9594 1.9326 2.0221 2.26 2.27 2.32
2594.475 2.15 1.9615 2.3 2.49 2.22 1.9962 2.12 2.47 2.61 2.18
2613.765 2.0134 2.18 2.1053 2.1137 2.18 2.39 2.57 2.38 2.18 2.18
2633.055 2.27 2.32 2.49 2.52 2.21 2.18 2.33 2.35 2.16 2.0683
2652.345 2.25 2.0368 2.23 2.49 2.0917 2.0832 2.15 2.14 2.0248 2.23
2671.634 2.44 2.0941 2.0904 2.28 2.0929 1.9441 2.0738 1.7762 1.8929 2.42
2690.924 2.51 2.59 2.58 2.38 2.23 2.29 2.53 2.76 2.83 2.64
2710.214 2.42 2.42 2.32 2.15 2.19 2.37 2.41 2.31 2.17 2.19
2729.504 2.0816 2.25 2.53 2.46 2.54 2.56 2.72 2.56 2.4 2.74
2748.794 2.7 2.58 2.66 2.82 3.11 2.92 2.65 2.5 2.55 2.59
2768.083 2.52 2.68 2.66 2.37 2.38 2.63 2.66 2.66 2.53 2.61
2787.373 2.89 3.09 3.14 2.86 2.82 3.07 3.38 3.64 3.66 3.67
2806.663 3.81 3.76 3.35 3.49 4.01 3.87 3.72 4.03 4.23 4.2
2825.953 4.16 4.65 4.84 4.45 4.45 4.86 5.2 5.24 5.18 5.24
2845.242 5.25 5.18 5.39 5.68 5.92 6.12 6.16 6.41 7.02 6.84
2864.532 6.58 6.72 6.59 6.56 6.55 6.63 6.81 6.86 7.09 7.2
2883.822 7.17 7.14 7.08 7.32 7.63 7.61 7.68 7.97 7.96 7.97
2903.112 8.25 8.57 8.36 8.05 8.29 8.5 8.81 9.03 9.07 9.57
2922.401 9.94 10.39 11.21 11.97 13.1 14.28 15.47 16.85 17.97 19.16
2941.691 20.58 21.39 22.06 23.48 24.49 25.13 25.49 25.37 24.76 23.85
2960.981 22.91 21.55 20.31 19.17 17.4 15.71 14.41 13.16 12.57 12.23
2980.271 11.49 10.97 10.35 9.96 9.75 9.31 8.73 8.42 8.66 8.52
2999.561 8.44 8.34 7.9 7.42 6.74 6.44 6.1 5.68 5.67 5.32
3018.850 5.22 4.86 4.52 4.57 4.36 4.39 4.16 3.67 3.35 3.46
3038.140 3.58 3.79 4.02 3.95 4.12 3.97 3.53 3.51 4.28 4.37
3057.430 3.67 3.49 3.87 4.36 4.27 4.15 3.62 3.56 3.9 3.59
3076.720 3.37 3.43 3.35 3.18 3.51 3.56 3.38 3.28 2.9 2.88
3096.009 3.17 2.98 2.35 2.43 2.84 2.85 2.67 2.22 2.4 2.89
3115.299 2.82 2.31 2.41 2.66 2.53 2.98 2.96 2.5 2.31 2.55
3134.589 2.48 1.9763 1.8648 2.47 2.42 2.0764 2.17 2.13 2.28 2.14
3153.879 1.9501 2.0609 2.16 2.33 2.17 1.8216 1.9082 1.8178 1.512 1.4917
3173.169 1.6277 1.6622 1.7499 1.8381 1.8039 1.91 1.9301 1.8629 1.8639 1.5903
3192.458 1.4496 1.8228 1.8322 1.5586 1.6874 1.4281 1.3893 1.3719 1.1059 1.18132
3211.748 1.2808 1.3348 1.3363 1.3346 1.3991 1.15402 1.0514 1.5849 1.9116 1.8883
3231.038 2.21 2.45 1.9718 1.8818 1.9159 1.5687 1.5293 1.3918 1.17818 1.3349
3250.328 1.5607 1.3869 1.16092 1.7025 1.9756 1.8971 2.13 2.32 1.7923 1.3358
3269.617 1.5146 1.2257 1.2583 1.5861 1.3032 1.1209 1.6889 1.7769 1.18718 1.0758
3288.907 1.3413 1.2703 1.635 2.0089 1.8655 2.0628 1.8886 1.13445 1.1638 1.7013
3308.197 1.6892 1.7046 1.68 1.4632 1.4381 1.7265 1.7749 1.9275 2.0016 1.6318
3327.487 1.5136 1.3311 1.4387 1.7544 1.6211 1.3773 0.93 0.618 1.1743 1.7019
3346.777 1.7873 1.6532 1.713 1.5785 1.261 1.2281 1.12667 1.0989 1.4892 2.0229
3366.066 1.6544 1.756 1.9646 1.6224 1.997 2.1036 1.5639 1.4467 1.5643 1.3304
3385.356 1.331 1.20393 1.0606 1.13636 1.3955 1.5594 1.6342 1.7912 1.6649 1.3353
3404.646 1.4208 1.6761 1.6661 1.6887 1.3961 1.2501 1.2763 1.81 2.43 2.0297
3423.936 1.4241 1.2217 1.14953 1.4561 1.5766 1.3891 1.8107 2.15 1.6119 0.92
3443.225 0.89 1.3894 1.681 1.571 1.1024 0.75 0.96 1.3145 1.204 1.2545
3462.515 1.6733 1.6118 1.5722 1.8586 1.7165 1.4083 1.3602 0.951 0.796 1.5033
3481.805 2.12 1.8818 1.21307 1.21835 1.4598 1.2626 1.0625 1.3494 1.8366 2.1121
3501.095 1.33 1.13 1.7479 1.5394 1.227 1.3949 1.9082 1.7055 1.042 1.3265
3520.385 1.7454 1.3835 1.5642 1.5612 1.3479 1.498 1.5335 1.5862 1.8344 2.14
3539.674 2.0655 1.6479 1.335 1.1007 1.2917 1.5678 1.4664 1.7297 2.058 1.8329
3558.964 1.8201 1.9454 1.0947 0.814 1.7021 1.6265 1.2287 1.8729 1.9946 1.4911
3578.254 1.256 1.0697 1.4859 1.827 1.7741 1.824 1.9131 1.9266 1.3349 1.3934
3597.544 2.0429 1.8624 1.5272 1.46 1.5365 1.4778 1.2576 0.77 0.799 1.3326
3616.833 1.21347 1.2939 1.7513 1.9232 2.18 2.4 1.8532 0.943 1.2674 1.6394
3636.123 1.5611 1.5306 0.973 1.0782 1.5086 1.4324 1.4228 1.3129 1.18039 1.2922
3655.413 1.3087 1.3174 1.5113 1.4159 1.6168 1.9039 1.6524 1.3598 1.003 1.2324
3674.703 1.0897 0.941 1.3751 1.6755 1.7979 1.5303 1.4402 1.0757 0.684 1.3225
3693.993 1.6754 1.0834 0.782 0.81 0.814 0.742 0.662 0.934 0.966 1.2228
3713.282 1.7222 1.7022 1.73 1.637 1.34 1.16902 1.3907 1.5508 1.7179 2.041
3732.572 1.8405 1.6232 1.8061 1.9514 1.3004 0.465 0 0.274 0.973 1.005
3751.862 1.17083 1.8541 1.8647 1.2807 1.271 1.7625 1.8815 1.6494 1.6404 1.5515
3771.152 1.2741 1.3239 1.8146 2.0775 1.814 1.5309 1.3116 1.2562 1.9609 2.0968
3790.441 1.4033 1.18778 0.998 1.14322 1.2326 0.877 0.491 1.1018 1.9156 1.794
3809.731 1.7248 1.7083 0.996 0.558 1.2476 1.8287 1.6398 1.21691 1.3588 1.5114
3829.021 1.3131 1.3151 1.3818 1.4954 1.4945 1.13371 1.0687 1.2381 1.18398 1.2664
3848.311 1.4731 1.6895 1.8829 1.2699 1.15154 1.3172 1.1409 1.3407 1.5013 1.4511
3867.601 1.4002 1.334 1.3934 1.4162 1.6195 1.3723 1.2892 1.6296 1.3333 1.3385
3886.890 1.5265 1.8653 1.8011 1.0354 1.3745 1.7697 1.2604 1.1692 1.0813 0.638
3906.180 0.78 1.252 1.2761 1.0885 1.3124 1.5868 1.7289 1.6169 1.3602 1.12386
3925.470 0.595 0.756 1.14578 1.3882 1.8845 2.0243 1.8628 1.9643 1.939 1.912
3944.760 1.7288 1.4378 1.12254 0.351 0.375 0.773 0.891 1.14365 1.7212 1.6193
3964.049 1.3078 1.7637 1.9393 1.7166 1.5198 1.6738 1.8393 1.9574 2.0257 1.9826
3983.339 1.9073 1.3971 1.5015 2.24 2.38 2.16 2.27 2.0702 1.4582 1.606
##END=
