##TITLE=2-Fluoro-3-(trifluoromethyl)benzaldehyde
##JCAMP-DX=4.24
##DATA TYPE=INFRARED SPECTRUM
##ORIGIN=EPA-IR VAPOR PHASE LIBRARY
##OWNER=SRD/NIST
Collection (C) 2018 copyright by the U.S. Secretary of Commerce
on behalf of the United States of America. All rights reserved.
##CAS REGISTRY NO=112641-20-0
##MOLFORM=C 8 H 4 F 4 O
##$NIST SOURCE=MSDC-IR
##STATE=gas
##XUNITS=1/CM
##YUNITS=ABSORBANCE
##XFACTOR=1.
##YFACTOR=0.001
##DELTAX=1.92898
##FIRSTX=549.8
##LASTX=4000.7
##FIRSTY=12.194
##MAXX=4000.7
##MINX=549.759
##MAXY=0.467174
##MINY=0
##NPOINTS=1790
##XYDATA=(X++(Y..Y))
549.759 12.194 10.514 8.974 6.824 5.514 6.184 6.014 4.404 3.444 4.024
569.049 4.214 3.724 3.044 3.044 3.314 3.104 3.354 3.204 2.994 2.924
588.339 2.874 3.104 3.084 3.434 4.784 5.744 5.924 7.034 8.504 10.334
607.628 12.424 13.044 12.344 12.034 12.094 11.224 9.224 7.694 6.214 4.744
626.918 4.224 4.284 4.414 4.044 3.834 3.544 3.214 3.714 4.214 4.564
646.208 5.134 5.124 5.524 6.834 8.344 9.574 10.684 12.054 13.794 14.974
665.498 15.944 17.314 18.564 20.104 22.714 26.494 31.914 39.444 47.094 51.214
684.787 52.474 52.884 51.774 49.234 43.634 34.054 24.014 16.264 11.574 8.914
704.077 7.104 5.824 5.384 5.394 4.734 4.454 3.864 3.674 4.714 5.424
723.367 5.904 7.244 9.134 11.094 14.104 17.444 21.004 24.874 28.704 32.544
742.657 35.724 36.844 35.034 32.354 30.574 29.004 27.474 26.654 25.424 23.894
761.947 22.504 21.414 20.464 19.394 18.284 16.484 14.284 12.874 12.864 13.624
781.236 14.994 16.994 19.604 23.034 26.624 30.624 34.434 38.204 40.734 39.354
800.526 35.854 31.884 28.444 25.204 21.844 18.654 15.734 13.934 13.274 12.984
819.816 13.464 16.504 20.304 21.564 23.684 24.734 22.634 22.514 23.644 22.474
839.106 19.424 15.404 11.664 9.474 7.464 6.204 6.094 5.524 4.924 5.234
858.395 5.784 6.014 6.654 8.144 9.734 10.944 11.744 12.214 12.364 11.824
877.685 11.694 11.434 10.064 9.074 7.734 6.174 5.074 3.884 3.124 2.984
896.975 3.184 3.144 2.724 2.784 2.834 3.014 3.734 3.894 3.524 3.734
916.265 4.134 4.164 4.214 4.304 4.644 4.584 3.874 3.324 3.244 3.574
935.555 3.244 2.674 2.844 2.604 2.044 1.874 1.934 1.964 1.944 2.184
954.844 2.214 2.124 2.144 2.234 2.674 3.154 2.844 2.414 2.414 2.644
974.134 2.594 2.644 2.834 2.804 3.044 3.214 3.594 3.694 3.294 3.314
993.424 3.074 3.034 3.494 4.014 4.454 4.234 3.634 3.284 3.444 3.804
1012.714 4.104 3.864 3.734 3.834 4.134 4.304 4.154 4.964 5.294 4.764
1032.003 5.294 5.554 5.114 5.374 6.564 7.154 7.214 8.594 9.584 10.654
1051.293 11.614 12.354 14.044 16.114 17.324 17.704 18.734 19.704 20.744 22.574
1070.583 24.294 26.744 29.484 31.114 32.014 33.224 35.294 36.064 37.334 38.574
1089.873 38.624 38.914 41.604 47.024 52.694 62.444 77.714 95.354 117.094 140.314
1109.163 159.624 172.904 180.944 184.404 180.874 169.314 150.684 128.224 107.044 93.824
1128.452 87.044 83.514 83.024 82.884 84.154 88.724 96.004 106.174 118.234 131.954
1147.742 148.254 166.334 187.114 211.084 236.854 267.814 303.734 343.374 386.424 424.214
1167.032 452.774 467.134 467.174 452.034 419.974 376.924 324.484 273.624 229.604 190.234
1186.322 156.154 126.924 104.124 86.034 71.384 61.924 54.524 48.124 43.494 40.394
1205.611 38.144 33.864 31.024 31.884 30.334 29.214 31.164 33.894 36.944 40.684
1224.901 47.664 55.864 64.254 73.114 81.664 87.444 90.234 92.144 92.174 88.714
1244.191 83.254 77.024 71.384 68.354 66.964 66.534 65.504 63.984 61.734 58.424
1263.481 53.264 45.724 37.944 31.444 27.314 25.354 24.614 25.214 26.154 27.254
1282.771 28.884 30.404 32.054 33.644 35.084 36.154 37.374 38.544 40.374 42.564
1302.060 45.124 49.324 55.574 64.674 77.524 95.924 121.334 154.134 193.214 235.784
1321.350 276.434 309.094 330.084 336.834 328.864 306.084 269.104 219.794 165.454 116.854
1340.640 80.154 55.864 40.434 30.894 24.994 20.894 18.224 16.704 15.424 14.234
1359.930 13.424 12.964 12.624 12.424 12.584 12.854 13.044 13.354 14.114 15.344
1379.219 17.244 20.214 24.194 29.314 36.124 44.654 53.934 62.154 67.404 69.234
1398.509 69.574 69.964 68.534 63.244 54.974 45.794 37.274 30.164 24.534 20.044
1417.799 16.634 14.164 12.444 11.264 10.744 10.694 10.834 11.324 12.354 14.004
1437.089 16.464 19.594 23.654 29.004 35.684 43.724 53.614 64.214 75.254 85.954
1456.378 94.834 101.654 106.584 110.604 112.724 111.694 106.674 98.664 89.844 81.624
1475.668 74.374 66.734 59.114 51.774 44.754 38.234 32.204 26.744 21.894 18.014
1494.958 15.004 12.604 10.774 9.234 8.074 7.274 6.904 6.544 6.314 5.974
1514.248 5.654 5.434 5.194 5.144 5.114 4.884 4.624 4.544 4.564 4.704
1533.538 4.804 4.674 4.564 4.744 4.704 4.634 4.824 4.864 4.824 5.074
1552.827 5.574 5.894 6.334 6.824 7.294 8.114 9.054 10.384 11.894 13.974
1572.117 16.864 20.044 23.654 27.794 32.474 37.274 41.814 46.504 50.644 53.604
1591.407 56.094 58.584 60.224 61.054 61.814 62.614 64.144 66.334 68.764 71.654
1610.697 74.064 75.674 75.904 74.314 71.214 67.194 62.034 55.854 49.844 44.134
1629.986 39.164 35.124 31.834 28.754 26.114 23.924 21.744 19.674 17.834 16.394
1649.276 14.914 13.594 12.444 11.684 10.954 10.274 9.994 9.664 9.514 9.634
1668.566 10.054 10.334 10.524 10.634 10.774 11.114 11.204 11.384 11.504 11.884
1687.856 12.734 13.784 15.614 18.484 22.634 28.464 37.494 52.854 75.234 107.664
1707.146 146.864 183.334 205.774 217.134 224.534 221.604 208.374 179.664 133.914 94.344
1726.435 71.644 61.424 56.604 53.494 51.134 49.484 48.074 45.414 41.284 36.734
1745.725 32.784 29.604 26.814 23.894 21.184 18.874 16.414 14.284 12.484 10.964
1765.015 9.994 8.924 8.144 7.914 7.724 7.684 7.674 7.404 7.014 6.504
1784.305 5.934 5.244 4.724 4.394 4.184 3.984 3.634 3.374 3.254 3.104
1803.594 3.064 2.924 2.744 2.804 2.844 2.644 2.474 2.594 2.844 3.004
1822.884 2.934 2.824 2.834 2.964 3.134 3.284 3.344 3.364 3.334 3.384
1842.174 3.534 3.594 3.564 3.524 3.644 3.734 3.714 3.774 3.894 3.944
1861.464 3.854 3.834 3.804 3.674 3.564 3.504 3.404 3.314 3.114 2.814
1880.754 2.674 2.704 2.734 2.644 2.664 2.784 2.884 2.934 3.224 3.504
1900.043 3.774 4.064 4.214 4.424 4.534 4.594 4.684 4.474 4.174 4.054
1919.333 3.894 3.664 3.534 3.604 3.544 3.364 3.404 3.464 3.224 3.034
1938.623 3.194 3.224 3.024 2.954 2.964 2.934 2.944 2.974 2.944 2.894
1957.913 2.724 2.624 2.774 2.744 2.624 2.504 2.514 2.544 2.434 2.314
1977.202 2.304 2.344 2.214 2.184 2.164 1.984 1.924 1.8456 1.7503 1.7425
1996.492 1.7933 1.884 1.884 1.984 1.994 1.924 1.954 1.8086 1.7733 1.7632
2015.782 1.6523 1.671 1.6015 1.6332 1.6592 1.599 1.6041 1.5752 1.5537 1.5246
2035.072 1.5671 1.5483 1.3619 1.4527 1.6405 1.5243 1.4808 1.4126 1.5391 1.6063
2054.362 1.5914 1.7034 1.6489 1.7048 1.8302 1.874 1.7469 1.6686 1.8294 1.944
2073.651 1.7831 1.7681 1.7845 1.632 1.8633 1.8187 1.6145 1.8169 1.924 1.884
2092.941 1.7585 1.7542 1.7681 1.7561 1.6323 1.4867 1.4405 1.5385 1.6169 1.6231
2112.231 1.6918 1.6595 1.6115 1.5381 1.6184 1.6521 1.8529 1.924 1.8125 1.924
2131.521 1.8108 1.7764 1.914 1.8332 1.6126 1.4651 1.4423 1.4221 1.439 1.3878
2150.810 1.3424 1.4678 1.3283 1.1079 1.38 1.4845 1.3855 1.3717 1.1886 1.1517
2170.100 1.04 1.0759 1.2083 1.2398 1.3659 1.5728 1.6688 1.6165 1.6045 1.7007
2189.390 1.994 1.974 1.874 2.074 2.154 2.134 2.154 2.134 2.114 1.934
2208.680 1.6507 1.4587 1.6608 1.682 1.3146 1.226 1.3235 1.4405 1.3988 1.369
2227.970 1.6608 1.8384 1.8059 1.7627 1.4899 1.4367 1.545 1.7007 1.872 1.8263
2247.259 1.994 2.264 2.284 2.334 2.334 2.314 2.214 2.094 2.064 2.024
2266.549 2.134 2.184 2.184 2.224 2.324 2.224 2.254 2.684 2.844 2.584
2285.839 2.294 2.374 2.624 2.844 2.964 2.594 2.354 2.554 2.624 2.394
2305.129 2.134 2.264 2.514 2.454 2.254 2.114 2.244 2.364 2.294 2.334
2324.418 2.504 2.534 2.534 2.544 2.554 2.534 2.494 2.374 2.284 2.294
2343.708 2.344 2.464 2.374 2.154 2.174 2.284 2.374 2.244 2.124 2.124
2362.998 1.7671 1.7842 1.8735 1.7936 1.7714 1.894 2.024 1.8332 1.793 1.6922
2382.288 1.5855 1.6953 1.6713 1.6947 1.5662 1.315 1.2264 1.2088 1.2342 1.3355
2401.578 1.4409 1.3001 1.273 1.3782 1.3915 1.3793 1.1304 0.89095 1.0413 1.2915
2420.867 1.5661 1.5164 1.3387 1.3496 1.3706 1.4041 1.4375 1.5743 1.6104 1.7046
2440.157 1.7428 1.6039 1.5007 1.4399 1.5035 1.6463 1.7181 1.7385 1.904 1.8365
2459.447 1.7163 1.7681 1.974 2.334 2.274 2.054 2.044 2.114 2.104 2.054
2478.737 1.7262 1.6328 1.884 1.8335 1.748 1.6221 1.5315 1.6735 1.673 1.5092
2498.026 1.6252 1.6551 1.6537 1.7523 1.5757 1.394 1.4638 1.4015 1.3331 1.5147
2517.316 1.4287 1.0411 1.0364 1.3983 1.3653 1.2154 1.1236 1.0153 0.9803 0.95185
2536.606 1.0071 1.0325 0.9944 1.1165 1.2372 1.3829 1.3874 1.136 1.1669 1.2708
2555.896 1.2715 1.2457 1.2384 0.9957 0.755 0.7841 0.633 0.698 0.93171 1.0636
2575.186 1.2021 1.1833 1.1209 1.073 1.3373 1.5044 1.3458 1.3075 1.1863 1.1468
2594.475 1.2135 1.2622 1.3417 1.2376 1.1716 1.125 1.3059 1.3729 1.1563 1.0441
2613.765 1.1416 1.3518 1.248 1.2038 1.2877 1.3866 1.5569 1.5501 1.7793 1.984
2633.055 1.6378 1.5657 1.6833 1.642 1.5996 1.8235 1.944 1.7 1.4415 1.4104
2652.345 1.6683 1.8382 1.8024 1.6865 1.7203 1.5203 1.1138 1.188 1.3988 1.4489
2671.634 1.4033 1.5724 1.776 1.5974 1.71 1.7503 1.5595 1.6775 2.124 2.444
2690.924 2.434 2.564 2.744 2.844 2.874 3.084 3.084 3.104 3.494 3.814
2710.214 4.324 4.804 5.394 6.144 6.474 6.824 7.104 7.224 7.404 7.354
2729.504 6.944 6.434 6.244 6.044 5.954 5.844 5.484 5.394 5.664 6.104
2748.794 6.494 7.034 7.694 8.234 8.834 9.474 10.184 10.884 11.544 11.714
2768.083 11.764 11.904 11.434 10.764 9.914 8.684 7.764 6.934 6.154 5.594
2787.373 5.114 4.544 4.024 3.644 3.524 3.774 3.974 3.924 3.774 4.114
2806.663 4.434 4.594 5.004 5.644 5.904 6.204 6.834 7.164 6.994 6.614
2825.953 6.794 6.954 6.504 5.934 5.584 5.604 5.904 6.314 6.934 8.034
2845.242 9.204 10.694 12.064 13.454 15.804 18.254 20.844 23.504 26.034 28.874
2864.532 31.334 32.934 33.874 33.964 33.634 32.724 31.054 29.014 26.474 23.654
2883.822 20.304 17.174 14.764 12.164 10.044 8.554 7.054 5.984 5.144 4.504
2903.112 4.024 3.554 3.364 3.034 2.784 2.714 2.634 2.664 2.884 3.044
2922.401 3.024 2.634 2.174 2.334 2.594 2.874 2.924 2.704 2.574 2.474
2941.691 2.304 2.274 2.344 2.334 2.164 2.164 2.104 2.034 2.134 1.904
2960.981 1.5913 1.2566 1.2864 1.2785 1.0924 1.1522 1.4854 1.934 1.904 1.6086
2980.271 1.5914 1.3194 1.5318 1.8065 1.4963 1.7146 1.8332 1.6193 1.8649 2.094
2999.561 2.094 2.114 1.6029 1.2604 1.564 1.7035 1.5019 1.3127 1.2895 1.3454
3018.850 1.5406 1.666 1.6419 1.4459 1.2394 1.2009 1.0808 1.3678 1.944 2.144
3038.140 2.234 2.234 1.884 2.204 2.584 2.644 2.714 2.574 3.114 3.254
3057.430 3.244 3.554 3.524 3.574 3.574 3.674 3.584 3.694 4.254 4.114
3076.720 4.274 4.604 4.374 4.504 4.614 4.714 4.664 4.654 4.484 4.674
3096.009 4.834 4.464 4.404 4.524 4.284 3.874 3.744 3.744 3.224 2.664
3115.299 2.554 2.434 2.504 2.024 1.4553 1.7304 2.054 1.7911 1.295 0.712
3134.589 0.647 0.661 0.754 0.747 0.577 0.665 0.325 0.066 0.612 1.0277
3153.879 0.741 1.0961 1.1151 0.631 0.548 0.527 0.9912 1.2305 1.2387 1.5858
3173.169 1.5324 1.4066 1.2208 1.1635 1.2712 1.0097 0.95959 0.9958 1.1732 1.3423
3192.458 1.0413 0.93947 0.7847 0.558 1.1095 1.0421 0.697 0.8214 0.90462 1.2769
3211.748 1.1875 0.815 1.1077 1.3629 1.4307 1.474 0.875705 0.415 0.534 0.689
3231.038 0.515 0.402 0.706 0.738 0.334 0.301 0.7822 1.0227 0.67 0.234
3250.328 0.346 0.7911 0.7863 0.662 0.8196 0.8406 0.678 0.762 0.711 0.533
3269.617 0.737 1.2018 0.9827 0.626 0.92723 0.618 0.047 0.43 0.759 0.8205
3288.907 1.192 1.4022 1.0497 0.733 1.0312 1.0085 0.601 0.7786 1.14 1.0554
3308.197 0.7974 0.9897 0.93958 0.543 0.94906 1.208 1.0405 0.9767 0.755 0.637
3327.487 0.574 0.454 0.278 0.63 0.812 0.62 1.0405 1.6062 1.649 1.3363
3346.777 1.6281 1.4586 0.8122 0.762 1.0336 0.7789 0.9837 1.1266 1.0896 1.3085
3366.066 0.9755 0.8467 1.1016 1.0146 0.729 0.7871 1.2687 1.964 1.5928 1.7515
3385.356 1.914 1.2775 1.3732 1.8497 2.264 2.144 2.014 2.684 3.604 4.104
3404.646 4.334 4.904 5.074 4.614 4.704 4.764 4.864 4.564 3.464 2.854
3423.936 2.794 1.954 1.3011 1.6085 1.5117 1.7347 2.144 1.944 1.5254 1.0497
3443.225 1.0015 1.7254 2.234 1.964 1.4726 1.2242 1.2113 1.2582 0.9809 0.90726
3462.515 0.9997 1.2631 1.3821 1.1909 1.2392 0.648 0.8387 1.5507 1.2867 0.7826
3481.805 0.89444 0.89483 1.3013 1.8645 1.2983 0.66 0.595 0.681 0.691 0.8604
3501.095 1.1192 1.2631 0.651 0.228 0.716 0.485 0.323 1.1079 1.5544 0.88443
3520.385 0.486 0.574 1.0803 1.4501 0.92601 1.0082 0.89954 0.414 0.677 1.2323
3539.674 1.3345 1.1682 0.64 0.465 0.703 0.689 0.629 0.8369 0.9905 1.0144
3558.964 0.91266 0.91312 0.733 0.528 0.96172 1.0403 0.432 0.545 1.2424 0.93868
3578.254 0.384 0.48 0.572 0.48 0.701 0.8576 1.0057 0.87045 0.477 0.92636
3597.544 0.96792 0.375 0.53 0.596 0.568 0.9755 0.9921 1.2192 1.2117 0.89294
3616.833 1.1478 1.1653 0.96688 0.8063 0.93168 1.0119 0.92434 1.0525 0.441 0.482
3636.123 1.0218 0.618 0.462 0.459 0.481 0.453 0.673 1.0376 1.3493 1.4745
3655.413 1.3511 1.2839 1.3892 1.409 1.1155 1.0716 1.5407 1.7829 1.538 1.5062
3674.703 0.92511 0.3 0.646 0.8178 0.8293 0.702 0.64 1.3439 1.0134 0.68
3693.993 1.2217 1.0168 0.9066 0.603 0.596 1.1427 0.8365 0.414 0.45 0.661
3713.282 0.9845 1.0138 1.0376 1.2193 1.0714 0.94271 0.8509 1.2952 1.2445 0.8429
3732.572 0.8547 1.0163 1.1945 1.1372 1.0379 0.768 1.1505 1.1954 1.586 1.726
3751.862 1.0333 1.24 1.1116 0.89073 0.8283 0.93186 1.0923 1.3648 0.88413 0.176
3771.152 0.533 0.356 0.075 0.361 0.625 0.8632 1.3672 1.5595 0.91871 0.735
3790.441 0.764 0.593 1.0018 1.3456 1.033 0.663 0.95979 0.947 0.473 0.56
3809.731 0.467 0.643 0.658 0.458 0.454 0.114 0.286 0.8029 0.94677 0.8096
3829.021 0.88983 1.0881 1.4874 1.3336 0.765 0.505 0.372 0.689 1.0782 1.1621
3848.311 0.9919 0.746 0.829 0.7777 0.29 0.736 0.8282 0.379 0.55 0.882068
3867.601 0.641 0 0.715 1.2097 1.3313 1.4921 0.89159 0.9568 1.4701 1.7954
3886.890 1.6366 0.8389 0.89077 0.9983 0.88615 1.0378 0.8455 0.844 1.1687 1.3747
3906.180 1.1173 0.881636 0.95756 1.2157 1.5634 1.5727 1.3208 0.89974 0.94316 1.1142
3925.470 1.4984 1.6079 1.0178 0.8528 1.0986 1.4359 1.6039 1.3225 0.953 1.202
3944.760 1.2426 1.1409 0.89338 0.615 0.95205 1.0319 0.7971 0.796 0.687 0.655
3964.049 0.91202 0.686 0.415 0.642 0.758 0.8168 0.8081 0.663 0.749 0.651
3983.339 0.717 0.7904 0.8328 1.4309 1.5382 1.295 1.0968 0.7803 0.7847 0.63
##END=
