##TITLE=N-Methylbenzothiazolone
##JCAMP-DX=4.24
##DATA TYPE=INFRARED SPECTRUM
##ORIGIN=EPA-IR VAPOR PHASE LIBRARY
##OWNER=SRD/NIST
Collection (C) 2018 copyright by the U.S. Secretary of Commerce
on behalf of the United States of America. All rights reserved.
##CAS REGISTRY NO=1128-67-2
##MOLFORM=C 8 H 9 N 3 S
##$NIST SOURCE=MSDC-IR
##STATE=gas
##XUNITS=1/CM
##YUNITS=ABSORBANCE
##XFACTOR=1.
##YFACTOR=0.001
##DELTAX=1.92898
##FIRSTX=549.8
##LASTX=4000.7
##FIRSTY=1.3138
##MAXX=4000.7
##MINX=549.759
##MAXY=0.092948
##MINY=0
##NPOINTS=1790
##XYDATA=(X++(Y..Y))
549.759 1.3138 1.0246 1.1751 1.3109 1.4081 1.2993 1.3481 1.538 1.4433 1.4185
569.049 1.3765 1.4223 1.558 1.598 1.678 1.878 2.278 2.628 3.128 3.728
588.339 4.068 4.218 4.428 4.638 4.588 4.348 4.238 4.138 3.658 3.178
607.628 2.578 2.118 1.828 1.648 1.628 1.3649 1.2324 1.3035 1.4255 1.3203
626.918 1.1574 1.1631 1.2609 1.3115 1.1694 1.1348 1.3202 1.2105 1.1651 1.2649
646.208 1.401 1.4405 1.3789 1.4747 1.698 1.888 1.938 2.158 2.368 2.498
665.498 2.768 2.908 2.808 2.678 2.618 2.598 2.408 2.208 2.078 2.018
684.787 1.958 1.818 1.768 1.788 1.888 1.948 1.998 2.278 2.628 3.048
704.077 3.578 4.198 4.768 5.168 5.688 6.638 7.958 8.868 9.038 9.838
723.367 11.708 13.708 15.508 17.128 18.968 22.048 27.888 30.648 24.868 19.068
742.657 16.968 15.388 13.378 10.918 8.648 6.718 5.128 4.018 3.328 2.778
761.947 2.508 2.428 2.468 2.438 2.508 2.598 2.378 2.358 2.598 2.488
781.236 2.268 2.348 2.498 2.478 2.398 2.548 2.728 2.648 2.638 2.728
800.526 2.828 2.908 2.828 2.708 2.778 2.878 2.818 2.868 3.028 3.038
819.816 3.048 3.258 3.378 3.498 3.678 3.778 3.738 3.718 3.908 3.978
839.106 3.938 4.148 4.298 4.108 4.058 4.168 4.198 4.408 4.588 4.738
858.395 5.058 5.288 5.528 5.678 5.868 6.208 6.448 6.578 6.798 7.158
877.685 7.618 7.848 8.028 8.398 8.628 8.708 8.738 8.798 8.818 8.758
896.975 8.798 8.628 8.278 8.078 7.828 7.468 7.168 6.828 6.508 6.288
916.265 5.958 5.538 5.188 4.758 4.418 4.138 3.838 3.688 3.518 3.468
935.555 3.388 3.198 3.058 2.938 2.598 2.368 2.348 2.218 2.318 2.448
954.844 2.428 2.328 2.178 2.138 2.138 2.258 2.368 2.188 2.248 2.288
974.134 2.088 2.088 2.148 2.148 2.008 2.078 2.288 2.328 2.438 2.678
993.424 2.858 2.728 2.838 3.268 3.838 4.408 4.908 5.678 6.568 7.448
1012.714 8.318 9.188 9.548 9.558 9.648 9.308 8.828 8.168 7.078 6.128
1032.003 5.628 5.148 4.648 4.488 4.508 4.748 5.108 5.498 6.128 6.538
1051.293 6.648 7.048 7.508 7.508 7.778 8.338 8.248 8.208 8.148 8.068
1070.583 8.248 8.378 8.308 8.288 8.118 7.608 7.088 6.538 6.028 5.578
1089.873 5.108 4.628 4.348 4.198 3.978 3.738 3.798 3.818 3.708 4.358
1109.163 5.148 5.588 6.008 6.538 7.258 7.898 8.708 9.698 10.468 11.008
1128.452 11.758 12.248 12.208 11.828 11.558 11.298 10.598 9.908 9.438 8.788
1147.742 7.898 7.768 7.828 7.998 8.478 8.508 8.338 8.268 8.158 8.158
1167.032 7.708 6.888 6.378 5.588 5.138 5.008 4.408 4.248 4.008 3.508
1186.322 3.338 3.438 3.568 3.618 3.638 3.638 3.708 3.668 3.748 4.008
1205.611 4.008 3.578 3.638 4.148 4.168 4.048 3.848 3.948 4.118 4.068
1224.901 4.158 4.308 4.758 5.128 5.368 5.538 5.788 6.348 7.008 7.718
1244.191 8.478 9.368 9.878 10.088 10.358 10.408 10.038 9.508 8.708 7.558
1263.481 6.478 5.298 4.618 4.268 3.808 3.668 3.738 3.918 4.308 4.888
1282.771 5.798 7.048 8.308 9.698 11.118 12.208 13.168 13.758 13.738 13.458
1302.060 12.758 11.628 10.388 9.328 8.658 8.318 8.328 8.608 9.008 9.438
1321.350 9.878 10.378 10.878 11.228 11.498 11.678 11.688 11.718 11.838 11.938
1340.640 12.218 12.708 13.408 14.248 15.158 16.118 16.928 17.458 17.528 17.178
1359.930 16.548 15.658 14.528 13.198 11.738 10.358 9.148 8.158 7.368 6.698
1379.219 6.078 5.428 4.908 4.478 4.088 3.848 3.668 3.538 3.328 3.138
1398.509 3.058 2.968 2.888 2.868 2.878 2.838 2.828 2.838 2.818 2.808
1417.799 2.788 2.768 2.778 2.798 2.828 2.838 2.858 2.858 2.888 2.938
1437.089 2.998 3.178 3.438 3.688 4.098 4.588 5.108 5.658 6.278 7.038
1456.378 7.968 9.178 10.698 12.848 15.818 19.778 24.728 30.518 36.468 41.628
1475.668 44.848 46.108 45.698 44.048 41.058 36.568 30.498 23.978 18.328 14.288
1494.958 11.628 9.808 8.528 7.558 6.728 5.998 5.328 4.758 4.378 4.178
1514.248 4.028 3.888 3.818 3.808 3.788 3.778 3.858 3.868 3.978 4.158
1533.538 4.248 4.368 4.558 4.918 5.238 5.558 6.098 6.638 7.218 8.008
1552.827 8.948 10.068 11.348 12.828 14.298 15.868 17.518 18.988 20.338 21.668
1572.117 22.958 24.018 24.858 25.608 26.268 26.798 27.158 27.108 26.548 25.368
1591.407 23.628 21.608 19.468 17.368 15.388 13.698 12.378 11.398 10.778 10.558
1610.697 10.588 10.808 11.148 11.758 12.458 13.178 14.178 15.488 17.098 19.118
1629.986 21.748 25.138 29.468 35.218 42.348 50.728 60.498 70.488 79.768 87.278
1649.276 91.828 92.948 90.618 85.408 77.428 66.508 54.268 42.008 31.688 23.988
1668.566 18.558 14.728 12.118 10.278 8.888 7.868 7.018 6.388 5.918 5.498
1687.856 5.118 4.758 4.438 4.148 3.928 3.678 3.468 3.288 3.188 3.108
1707.146 3.018 3.008 2.918 2.818 2.818 2.748 2.758 2.688 2.628 2.628
1726.435 2.538 2.388 2.358 2.348 2.338 2.398 2.418 2.388 2.348 2.268
1745.725 2.178 2.178 2.148 2.048 1.918 1.768 1.618 1.518 1.446 1.3455
1765.015 1.2574 1.2895 1.3256 1.2881 1.318 1.3511 1.3073 1.2506 1.2901 1.358
1784.305 1.3532 1.3341 1.3477 1.3643 1.3648 1.3079 1.2767 1.2594 1.2513 1.2248
1803.594 1.1794 1.1602 1.2072 1.202 1.178 1.2411 1.2891 1.3246 1.4412 1.558
1822.884 1.528 1.538 1.568 1.508 1.4348 1.3492 1.2681 1.2279 1.2026 1.1716
1842.174 1.1165 1.0636 1.1003 1.1944 1.2061 1.1958 1.306 1.38 1.4192 1.528
1861.464 1.588 1.618 1.638 1.678 1.688 1.588 1.518 1.4481 1.3126 1.1869
1880.754 1.1661 1.0788 1.0235 1.037 1.0563 1.1179 1.1067 1.121 1.151 1.2142
1900.043 1.3396 1.498 1.578 1.618 1.688 1.678 1.618 1.538 1.508 1.4119
1919.333 1.2756 1.143 0.9903 0.9111 0.867 0.8373 0.7743 0.7042 0.721 0.7414
1938.623 0.7569 0.7459 0.7072 0.7128 0.7409 0.7186 0.6898 0.7216 0.7418 0.7265
1957.913 0.7006 0.7128 0.7374 0.7585 0.7824 0.7383 0.6793 0.6846 0.7233 0.7177
1977.202 0.6898 0.6706 0.6654 0.6784 0.6971 0.7704 0.7647 0.7548 0.7826 0.7492
1996.492 0.7167 0.713 0.7356 0.7591 0.7808 0.7659 0.7547 0.7053 0.6759 0.7155
2015.782 0.7262 0.7646 0.732 0.7152 0.749 0.74 0.7305 0.7311 0.725 0.6959
2035.072 0.6835 0.6483 0.662 0.7303 0.7237 0.6772 0.6867 0.6778 0.6594 0.6371
2054.362 0.6352 0.6389 0.6277 0.6438 0.679 0.6785 0.6579 0.6693 0.6745 0.7142
2073.651 0.7287 0.6742 0.6496 0.6498 0.6498 0.6266 0.6269 0.611 0.613 0.6212
2092.941 0.57438 0.55483 0.4946 0.50052 0.56215 0.5207 0.50365 0.6031 0.6192 0.5822
2112.231 0.5484 0.49393 0.53882 0.53849 0.52148 0.52215 0.51557 0.53934 0.6031 0.6468
2131.521 0.642 0.6449 0.6386 0.6736 0.6817 0.6278 0.6913 0.7672 0.7013 0.67
2150.810 0.6714 0.6369 0.6083 0.623 0.6371 0.6605 0.6835 0.6903 0.671 0.63
2170.100 0.6035 0.6026 0.5797 0.5862 0.56179 0.55782 0.6374 0.6401 0.6771 0.6973
2189.390 0.648 0.6412 0.6183 0.6101 0.6534 0.6369 0.5881 0.6005 0.654 0.6531
2208.680 0.56911 0.57658 0.6244 0.6047 0.55322 0.56986 0.582 0.52202 0.53272 0.5922
2227.970 0.6079 0.5829 0.6301 0.639 0.56581 0.5875 0.625 0.53177 0.54491 0.6711
2247.259 0.7154 0.6965 0.623 0.6593 0.676 0.6519 0.6985 0.625 0.56579 0.625
2266.549 0.6232 0.6158 0.6223 0.6042 0.6304 0.57152 0.52709 0.5847 0.6313 0.6186
2285.839 0.56864 0.57472 0.6228 0.6522 0.6757 0.6717 0.6457 0.6767 0.7539 0.7398
2305.129 0.7434 0.7708 0.7523 0.7888 0.7744 0.7873 0.8277 0.8303 0.7853 0.73
2324.418 0.7162 0.7003 0.6708 0.6259 0.6942 0.7393 0.6898 0.7381 0.7688 0.7165
2343.708 0.681 0.7041 0.7096 0.6718 0.6586 0.6847 0.7738 0.7907 0.6861 0.658
2362.998 0.6798 0.6523 0.6192 0.6249 0.6607 0.6625 0.6474 0.6108 0.54794 0.57161
2382.288 0.6191 0.6379 0.639 0.55379 0.5785 0.6292 0.6276 0.57534 0.5826 0.6546
2401.578 0.6637 0.6307 0.5969 0.6047 0.5841 0.6274 0.6301 0.5932 0.6338 0.6548
2420.867 0.6193 0.6524 0.7359 0.6737 0.54695 0.56152 0.6162 0.5832 0.6129 0.6743
2440.157 0.6784 0.6647 0.6373 0.6756 0.7571 0.7249 0.7201 0.7545 0.7135 0.7453
2459.447 0.7385 0.659 0.6668 0.6742 0.6158 0.6048 0.6466 0.633 0.6422 0.6687
2478.737 0.6336 0.6483 0.715 0.6476 0.51054 0.5761 0.6982 0.6107 0.52675 0.56242
2498.026 0.56224 0.51779 0.56942 0.6372 0.5841 0.6067 0.6497 0.6353 0.6265 0.53609
2517.316 0.4495 0.54598 0.6658 0.6762 0.7104 0.6932 0.6793 0.759 0.6967 0.6092
2536.606 0.6834 0.767 0.785 0.7215 0.7014 0.778 0.7562 0.7144 0.7087 0.6908
2555.896 0.7001 0.7666 0.8499 0.7608 0.687 0.7122 0.7023 0.6548 0.691 0.7868
2575.186 0.7734 0.807 0.8315 0.7664 0.717 0.74 0.8591 0.9035 0.8459 0.818
2594.475 0.7772 0.746 0.803 0.8299 0.8166 0.8456 0.8228 0.7563 0.7204 0.7548
2613.765 0.8256 0.8327 0.765 0.7202 0.7295 0.8001 0.8376 0.8244 0.8622 0.9468
2633.055 0.8668 0.7828 0.8967 0.942 0.9591 1.0107 1.0855 1.1263 1.0854 1.1134
2652.345 1.1514 1.1637 1.1909 1.1893 1.1678 1.0747 0.9761 0.9053 0.9433 0.9565
2671.634 0.92 0.9637 0.9145 0.8653 0.8288 0.7447 0.6069 0.666 0.8579 0.7638
2690.924 0.6361 0.6692 0.7133 0.7319 0.734 0.7057 0.6882 0.6992 0.6728 0.6639
2710.214 0.6493 0.5823 0.53486 0.6697 0.7228 0.6106 0.5908 0.55118 0.50439 0.4417
2729.504 0.4366 0.49249 0.50697 0.5244 0.52294 0.53394 0.5279 0.5887 0.6585 0.6688
2748.794 0.6736 0.6506 0.6121 0.4495 0.50806 0.5902 0.5808 0.6744 0.6782 0.6742
2768.083 0.635 0.6459 0.7308 0.7858 0.793 0.7898 0.7523 0.7251 0.8363 0.788
2787.373 0.6766 0.6723 0.699 0.7595 0.8018 0.7792 0.7408 0.7991 0.8655 0.9817
2806.663 1.0007 0.9753 1.0383 1.0716 1.1719 1.3335 1.4676 1.508 1.4308 1.488
2825.953 1.658 1.778 1.748 1.778 1.948 2.018 1.998 1.778 1.668 1.718
2845.242 1.678 1.538 1.4436 1.508 1.498 1.3399 1.3538 1.538 1.598 1.638
2864.532 1.608 1.698 1.958 2.118 2.178 2.338 2.498 2.678 2.858 2.928
2883.822 2.958 3.038 3.218 3.358 3.398 3.428 3.438 3.498 3.598 3.638
2903.112 3.638 3.658 3.778 3.818 3.928 4.128 4.178 4.108 4.128 4.378
2922.401 4.608 4.898 5.268 5.568 5.878 6.148 6.498 6.868 7.138 7.328
2941.691 7.398 7.428 7.298 7.008 6.718 6.468 6.148 5.838 5.488 5.028
2960.981 4.528 4.118 3.818 3.528 3.258 3.008 2.808 2.618 2.458 2.268
2980.271 2.078 2.008 1.878 1.838 1.818 1.698 1.638 1.628 1.608 1.618
2999.561 1.598 1.568 1.638 1.618 1.608 1.618 1.728 1.848 1.838 2.038
3018.850 2.178 2.198 2.338 2.468 2.518 2.698 2.798 2.738 2.878 3.138
3038.140 3.348 3.388 3.418 3.488 3.558 3.698 3.738 3.738 3.858 3.908
3057.430 3.938 4.088 4.328 4.658 5.048 5.518 6.148 6.838 7.398 7.928
3076.720 8.378 8.518 8.548 8.278 7.718 7.008 5.968 4.968 4.168 3.548
3096.009 3.168 2.758 2.308 1.938 1.658 1.548 1.3087 1.0478 0.8881 0.8077
3115.299 0.8488 0.8539 0.8993 0.9284 0.8875 0.8055 0.7235 0.6342 0.55504 0.51793
3134.589 0.54134 0.6182 0.671 0.7091 0.6557 0.6426 0.56666 0.5738 0.6646 0.7096
3153.879 0.7485 0.6973 0.6398 0.7286 0.742 0.6248 0.5893 0.47687 0.53216 0.6536
3173.169 0.6427 0.729 0.7697 0.704 0.676 0.6247 0.6688 0.7882 0.6988 0.57043
3192.458 0.6388 0.7381 0.78 0.7836 0.8027 0.7749 0.7123 0.7272 0.718 0.6701
3211.748 0.6785 0.5851 0.54495 0.55977 0.583 0.6965 0.6947 0.7646 0.806 0.7857
3231.038 0.8251 0.8636 0.9264 0.9407 0.9667 1.1085 1.1574 1.0285 1.0363 1.1862
3250.328 1.3526 1.4267 1.3836 1.4064 1.3907 1.2938 1.1958 1.2495 1.3087 1.1732
3269.617 1.025 1.016 1.0988 0.935 0.6865 0.7745 0.907 0.858 0.8262 0.8835
3288.907 0.9283 0.9985 0.8809 0.6452 0.7258 0.8785 0.6974 0.486062 0.6165 0.7411
3308.197 0.7294 0.6408 0.6492 0.7909 0.7986 0.7583 0.7499 0.7246 0.51718 0.4607
3327.487 0.6073 0.7725 0.7119 0.588 0.629 0.5211 0.52445 0.5974 0.6769 0.6428
3346.777 0.51409 0.55843 0.49483 0.364 0.50081 0.56458 0.49603 0.4223 0.4604 0.476
3366.066 0.50829 0.6335 0.6282 0.55505 0.5056 0.6409 0.6307 0.6024 0.6916 0.7536
3385.356 0.7895 0.7391 0.6742 0.5858 0.6775 0.7526 0.6763 0.8008 0.8288 0.6613
3404.646 0.6343 0.6765 0.6932 0.6803 0.6166 0.5987 0.7094 0.6872 0.52707 0.6245
3423.936 0.75 0.52956 0.49177 0.6852 0.6964 0.6643 0.6069 0.5453 0.6729 0.7568
3443.225 0.5949 0.55281 0.5916 0.6929 0.7347 0.6124 0.53708 0.54723 0.53065 0.477446
3462.515 0.4337 0.4061 0.51513 0.5824 0.5996 0.52312 0.376 0.483949 0.5912 0.372
3481.805 0.169 0.332 0.6049 0.6432 0.5062 0.46 0.336 0.157 0.242 0.334
3501.095 0.361 0.373 0.349 0.327 0.253 0.266 0.362 0.19 0.061 0.198
3520.385 0.368 0.50605 0.327 0.287 0.333 0.143 0.168 0.24 0.231 0.246
3539.674 0.23 0.371 0.368 0.25 0.355 0.3828 0.256 0.288 0.4224 0.314
3558.964 0.36 0.3795 0.345 0.3938 0.295 0.204 0.042 0.151 0.31 0.238
3578.254 0.274 0.3999 0.4493 0.46925 0.4344 0.4393 0.48996 0.455 0.47781 0.4308
3597.544 0.321 0.305 0.344 0.288 0.35 0.359 0.227 0.137 0.112 0.183
3616.833 0.164 0.279 0.4248 0.359 0.296 0.328 0.324 0.4135 0.296 0.123
3636.123 0.072 0.097 0.147 0.164 0.234 0.277 0.268 0.172 0.234 0.208
3655.413 0.123 0.329 0.3997 0.257 0.369 0.4072 0.27 0.362 0.50491 0.4069
3674.703 0.229 0.29 0.361 0.288 0.391 0.53389 0.52602 0.4267 0.419 0.287
3693.993 0.144 0.252 0.224 0.215 0.331 0.377 0.246 0.152 0.337 0.4153
3713.282 0.252 0.102 0.144 0.188 0.228 0.344 0.358 0.375 0.4135 0.4321
3732.572 0.4559 0.54529 0.3994 0.099 0.233 0.318 0.204 0.18 0.273 0.316
3751.862 0.375 0.357 0.094 0.044 0.332 0.37 0.293 0.456 0.4609 0.4632
3771.152 0.4433 0.336 0.3862 0.334 0.22 0.277 0.3959 0.364 0.224 0.212
3790.441 0.366 0.4903 0.5423 0.49779 0.221 0.251 0.3934 0.343 0.292 0.352
3809.731 0.185 0.143 0.375 0.296 0.104 0.053 0.035 0.093 0.32 0.354
3829.021 0.232 0.309 0.3886 0.4218 0.324 0.2 0.308 0.153 0.05 0.172
3848.311 0.236 0.208 0.158 0.201 0.219 0.285 0.375 0.4117 0.3915 0.3895
3867.601 0.298 0.2 0.033 0.055 0.238 0.33 0.4287 0.3943 0.263 0.371
3886.890 0.7387 0.7882 0.6517 0.4758 0.186 0.108 0.316 0.3781 0.227 0.236
3906.180 0.316 0.286 0.293 0.251 0.282 0.376 0.366 0.46962 0.4398 0.282
3925.470 0.232 0.111 0.212 0.242 0.036 0 0.144 0.32 0.218 0.156
3944.760 0.343 0.329 0.182 0.201 0.355 0.375 0.199 0.212 0.3 0.414
3964.049 0.371 0.223 0.183 0.082 0.231 0.4137 0.4081 0.373 0.185 0.067
3983.339 0.162 0.207 0.116 0.142 0.249 0.25 0.281 0.3888 0.262 0.072
##END=
