##TITLE=1-Isopropenyl-3-isopropylbenzene
##JCAMP-DX=4.24
##DATA TYPE=INFRARED SPECTRUM
##ORIGIN=NIST Mass Spectrometry Data Center
##OWNER=NIST Standard Reference Data Program
Collection (C) 2018 copyright by the U.S. Secretary of Commerce
on behalf of the United States of America. All rights reserved.
##CAS REGISTRY NO=1129-29-9
##MOLFORM=C 12 H 16
##$NIST SOURCE=MSDC-IR
##SPECTROMETER/DATA SYSTEM=HP-GC/MS/IRD
##STATE=gas
##XUNITS=1/CM
##YUNITS=ABSORBANCE
##XFACTOR=1.0
##YFACTOR=0.000002500
##DELTAX=4.0
##FIRSTX=550.0
##LASTX=3846.0
##FIRSTY=0.000370
##MAXX=3846
##MINX=550
##MAXY=0.025
##MINY=0
##NPOINTS=825
##XYDATA=(X++(Y..Y))
550.0 148 78 53 74 70 55 75 98 63 61
590.0 34 10 14 20 12 1 18 41 49 19
630.0 50 74 43 42 61 75 78 77 89 102
670.0 119 215 360 555 816 1129 1489 1706 1713 1602
710.0 1456 1316 1174 965 717 503 355 251 168 143
750.0 119 101 111 135 159 211 326 534 869 1257
790.0 1685 1999 1853 1455 1082 750 528 385 264 210
830.0 182 140 132 143 169 198 234 294 382 510
870.0 680 938 1305 1800 2384 2876 2987 2657 2136 1614
910.0 1219 948 773 664 564 510 507 474 408 322
950.0 217 136 95 79 69 69 64 53 57 70
990.0 83 113 143 162 190 186 162 141 119 114
1030.0 137 177 223 282 347 399 430 417 402 404
1070.0 412 436 458 449 429 419 418 402 339 268
1110.0 226 182 148 125 98 96 98 94 79 69
1150.0 72 66 55 59 60 67 71 77 97 114
1190.0 145 224 349 457 518 511 416 281 176 138
1230.0 128 122 143 187 245 330 421 479 509 523
1270.0 512 497 493 525 606 714 833 928 968 927
1310.0 824 712 613 532 482 457 448 438 419 407
1350.0 435 486 578 714 921 1136 1262 1327 1333 1214
1390.0 1046 907 771 699 686 727 808 888 948 976
1430.0 1002 1022 1041 1087 1178 1307 1473 1630 1719 1722
1470.0 1674 1640 1658 1663 1557 1322 992 663 449 350
1510.0 302 266 238 228 211 192 188 192 200 214
1550.0 243 302 382 486 622 795 996 1195 1395 1584
1590.0 1751 1883 1928 1810 1560 1250 987 858 843 862
1630.0 868 833 742 604 468 368 298 255 220 190
1670.0 163 143 148 172 196 217 214 191 152 110
1710.0 84 70 60 55 55 59 62 63 62 67
1750.0 84 106 118 130 155 179 209 254 310 362
1790.0 392 396 360 298 239 178 129 103 89 82
1830.0 71 63 66 75 87 110 143 179 196 181
1870.0 144 103 68 50 40 39 37 39 41 40
1910.0 47 68 90 113 132 140 142 124 89 55
1950.0 34 25 20 16 17 17 13 5 6 13
1990.0 11 11 12 14 17 14 15 18 18 11
2030.0 3 9 13 10 10 6 5 11 13 16
2070.0 21 13 7 15 12 11 14 9 6 7
2110.0 7 8 6 7 8 2 7 8 4 7
2150.0 2 1 6 11 11 9 13 15 8 11
2190.0 12 9 10 10 10 7 6 8 7 5
2230.0 4 1 9 13 9 12 10 14 21 20
2270.0 17 24 31 25 23 27 21 17 18 17
2310.0 17 20 24 30 22 10 10 17 20 23
2350.0 24 29 30 27 23 22 25 20 11 18
2390.0 24 22 20 19 24 23 18 18 20 21
2430.0 16 14 16 14 9 10 9 10 18 14
2470.0 22 33 28 26 33 32 22 11 11 14
2510.0 18 19 16 17 13 14 9 10 20 18
2550.0 16 25 21 12 24 30 38 45 52 57
2590.0 53 53 51 50 55 47 32 28 35 42
2630.0 38 31 29 33 29 23 32 38 38 40
2670.0 34 32 46 57 52 36 33 42 56 66
2710.0 71 83 91 100 115 124 128 131 128 114
2750.0 107 102 107 120 124 121 113 112 117 125
2790.0 130 144 161 170 189 208 225 248 265 283
2830.0 315 353 397 468 549 640 767 925 1123 1377
2870.0 1699 2041 2308 2460 2501 2471 2457 2505 2586 2645
2910.0 2686 2734 2834 3027 3294 3584 3829 3947 3972 4018
2950.0 4245 4930 6315 8068 9465 10000 9178 7329 5460 4008
2990.0 2978 2326 1937 1679 1497 1381 1349 1369 1404 1462
3030.0 1547 1619 1683 1742 1805 1881 1955 2047 2140 2180
3070.0 2146 2032 1943 2021 2142 2131 1968 1579 1098 790
3110.0 601 471 373 306 272 241 209 183 167 155
3150.0 152 152 154 155 145 149 156 148 135 128
3190.0 132 131 128 124 125 115 98 98 89 79
3230.0 75 62 64 70 61 51 46 49 49 47
3270.0 45 44 45 44 44 43 29 25 27 19
3310.0 5 15 30 18 9 10 0 7 30 18
3350.0 5 10 14 20 24 18 12 8 0 5
3390.0 10 23 35 29 17 21 31 36 33 31
3430.0 42 42 29 19 25 21 12 15 21 29
3470.0 35 31 36 44 25 21 31 22 37 36
3510.0 15 36 42 29 27 27 19 14 0 6
3550.0 18 14 8 8 18 26 23 24 26 17
3590.0 20 22 13 22 26 22 23 11 15 18
3630.0 17 28 31 33 19 10 18 22 27 26
3670.0 17 16 17 33 31 11 5 19 29 31
3710.0 40 39 33 29 29 31 31 41 38 27
3750.0 28 22 18 29 32 31 33 24 27 29
3790.0 24 23 22 15 24 35 34 42 43 37
3830.0 33 41 51 49 58
##END=
