##TITLE=Methyl 3-bromomethylbenzoate
##JCAMP-DX=4.24
##DATA TYPE=INFRARED SPECTRUM
##ORIGIN=EPA-IR VAPOR PHASE LIBRARY
##OWNER=SRD/NIST
Collection (C) 2018 copyright by the U.S. Secretary of Commerce
on behalf of the United States of America. All rights reserved.
##CAS REGISTRY NO=1129-28-8
##MOLFORM=C 9 H 9 Br O 2
##$NIST SOURCE=MSDC-IR
##STATE=gas
##XUNITS=1/CM
##YUNITS=ABSORBANCE
##XFACTOR=1.
##YFACTOR=0.001
##DELTAX=1.92898
##FIRSTX=549.8
##LASTX=4000.7
##FIRSTY=5.255
##MAXX=4000.7
##MINX=549.759
##MAXY=0.231965
##MINY=0
##NPOINTS=1790
##XYDATA=(X++(Y..Y))
549.759 5.255 6.305 8.815 11.875 15.085 17.595 17.945 16.915 14.965 12.195
569.049 10.445 8.635 6.305 5.185 4.775 4.135 3.485 3.465 3.125 2.995
588.339 3.355 3.695 3.475 3.295 3.315 3.275 3.825 4.455 4.655 5.115
607.628 5.875 6.775 7.395 8.155 9.535 11.395 13.715 15.825 17.865 19.395
626.918 20.455 20.905 20.445 18.905 17.475 15.875 13.705 11.785 10.135 9.175
646.208 8.375 7.785 7.875 8.085 8.095 8.205 8.205 8.275 8.535 9.255
665.498 10.215 11.215 12.285 13.065 13.805 14.355 14.445 15.045 15.965 17.675
684.787 20.195 22.575 24.845 26.515 26.435 24.935 23.025 20.875 18.565 15.345
704.077 12.265 10.205 8.695 7.505 6.445 5.585 4.985 4.545 4.505 4.875
723.367 4.665 4.545 5.205 5.575 6.265 7.525 8.685 10.485 12.825 15.845
742.657 19.325 22.035 25.195 29.045 31.335 31.765 30.475 27.715 24.545 20.925
761.947 17.105 13.545 10.605 8.325 6.855 6.015 5.115 4.765 5.385 6.055
781.236 6.685 7.805 8.625 9.175 9.365 8.925 8.355 7.935 7.555 6.825
800.526 6.435 6.315 6.225 5.855 5.675 5.585 4.975 4.395 3.815 3.385
819.816 3.875 4.895 5.335 4.175 2.655 2.495 2.435 2.695 2.575 2.345
839.106 2.665 2.935 3.285 2.985 2.795 2.935 2.905 2.995 3.325 3.665
858.395 3.875 4.105 3.905 3.745 3.825 3.675 3.405 3.345 3.555 3.725
877.685 3.775 3.945 4.175 4.145 3.965 4.215 4.615 5.005 5.345 5.465
896.975 5.655 5.895 6.375 6.535 6.505 6.855 7.395 7.705 7.825 7.995
916.265 7.945 7.525 6.925 6.125 5.505 5.265 4.715 3.945 3.255 2.845
935.555 2.785 2.755 2.545 2.475 2.655 2.635 2.755 2.705 2.745 3.055
954.844 2.995 3.115 3.345 3.245 3.475 4.075 4.715 5.285 6.055 6.735
974.134 7.575 9.185 10.845 12.085 13.045 14.025 14.955 15.635 16.475 17.365
993.424 17.475 17.035 16.145 14.645 12.505 10.245 8.305 7.015 6.015 5.435
1012.714 5.105 4.355 3.835 3.305 3.075 3.245 3.305 3.195 3.125 3.095
1032.003 3.185 3.155 3.275 3.555 3.555 3.805 3.755 3.645 3.615 4.215
1051.293 5.105 5.395 5.505 6.075 6.975 8.675 10.835 12.515 15.365 18.565
1070.583 21.085 24.535 28.895 32.395 34.895 36.295 37.255 38.135 38.155 38.775
1089.873 40.695 43.245 47.125 51.285 55.485 61.115 66.275 67.475 66.725 65.145
1109.163 60.565 53.615 46.035 39.535 33.705 29.825 27.385 24.475 22.285 20.195
1128.452 18.405 17.785 17.035 16.015 15.425 14.645 14.515 14.465 14.015 14.195
1147.742 14.555 14.715 14.675 15.235 15.595 15.505 16.495 17.965 19.335 20.995
1167.032 21.715 22.765 25.555 28.925 31.885 35.595 41.785 50.945 61.485 72.175
1186.322 82.905 93.775 104.505 112.365 118.225 120.955 118.345 112.475 104.905 98.565
1205.611 94.135 91.515 94.095 105.735 123.705 141.635 156.705 162.665 159.635 149.785
1224.901 133.175 111.035 86.475 67.865 55.775 47.145 41.185 38.255 37.135 34.925
1244.191 33.635 33.855 33.535 33.375 34.045 34.905 36.075 38.515 41.505 45.635
1263.481 51.045 57.635 66.685 78.765 94.335 112.655 134.075 158.025 182.335 203.615
1282.771 217.735 223.645 219.635 205.085 183.865 159.635 136.655 118.295 104.735 94.355
1302.060 85.285 76.525 67.895 59.425 50.565 41.925 34.525 28.765 24.695 21.585
1321.350 19.255 17.625 16.275 15.115 13.995 13.025 12.345 11.745 11.155 10.505
1340.640 9.885 9.465 8.945 8.435 7.915 7.505 7.165 6.835 6.505 6.155
1359.930 5.905 5.795 5.665 5.505 5.495 5.505 5.505 5.455 5.515 5.605
1379.219 5.715 5.715 5.745 5.945 6.075 6.235 6.255 6.265 6.315 6.295
1398.509 6.245 6.345 6.495 6.625 6.715 6.935 7.405 7.935 8.345 8.845
1417.799 9.655 10.685 11.885 13.355 15.435 18.115 21.475 25.555 30.225 34.905
1437.089 39.295 42.835 44.815 44.955 43.015 39.165 34.365 29.285 24.185 19.975
1456.378 16.805 14.555 13.055 11.875 11.065 10.345 9.745 9.295 8.745 8.295
1475.668 8.055 7.865 7.895 8.145 8.465 8.745 8.635 8.305 8.145 7.635
1494.958 6.855 6.265 5.725 5.215 4.805 4.475 4.225 4.075 3.785 3.515
1514.248 3.445 3.385 3.345 3.265 3.255 3.325 3.295 3.285 3.305 3.275
1533.538 3.225 3.235 3.245 3.315 3.395 3.465 3.605 3.655 3.685 3.835
1552.827 4.035 4.235 4.425 4.525 4.665 4.835 4.825 5.005 5.275 5.345
1572.117 5.565 5.865 6.285 6.935 7.635 8.255 9.105 9.895 10.325 10.415
1591.407 10.335 10.055 9.255 8.515 7.935 7.485 7.275 7.315 7.335 7.155
1610.697 7.095 6.945 6.545 6.335 6.135 5.755 5.535 5.365 5.125 4.955
1629.986 4.805 4.585 4.425 4.395 4.405 4.395 4.315 4.245 4.255 4.265
1649.276 4.195 4.125 3.945 4.005 4.235 4.225 4.135 4.145 4.315 4.385
1668.566 4.415 4.535 4.485 4.525 4.695 4.915 4.935 4.855 5.155 5.435
1687.856 5.585 5.895 6.545 7.445 8.635 10.065 11.375 12.695 13.885 14.945
1707.146 15.775 16.205 16.215 16.255 16.575 17.365 18.625 20.245 22.535 25.675
1726.435 30.075 36.115 44.445 55.965 72.595 94.985 124.035 160.005 195.035 220.685
1745.725 231.965 231.135 217.405 185.765 141.015 99.475 70.035 51.135 38.315 29.695
1765.015 24.345 21.035 18.895 17.645 16.815 16.375 16.235 16.305 16.395 16.385
1784.305 16.255 15.955 15.375 14.465 13.205 11.735 10.215 8.805 7.535 6.595
1803.594 5.865 5.125 4.545 4.205 3.935 3.695 3.645 3.525 3.365 3.245
1822.884 3.085 3.125 3.145 3.045 3.155 3.245 3.215 3.155 3.115 3.075
1842.174 3.055 3.055 3.005 2.845 2.775 2.885 2.785 2.565 2.425 2.325
1861.464 2.415 2.525 2.325 2.155 2.135 2.175 2.275 2.255 2.405 2.545
1880.754 2.585 2.685 2.835 2.975 3.115 3.165 3.195 3.275 3.355 3.525
1900.043 3.545 3.425 3.225 2.915 2.715 2.515 2.185 1.915 1.725 1.5573
1919.333 1.5368 1.468 1.3836 1.4096 1.4284 1.5044 1.625 1.725 1.695 1.785
1938.623 1.985 2.205 2.515 2.585 2.605 2.815 3.065 3.085 2.975 2.945
1957.913 2.985 2.975 2.855 2.785 2.725 2.575 2.475 2.475 2.475 2.515
1977.202 2.505 2.565 2.655 2.665 2.675 2.655 2.545 2.525 2.555 2.365
1996.492 2.185 2.025 1.895 1.805 1.605 1.5047 1.5042 1.4819 1.5205 1.5601
2015.782 1.472 1.4375 1.4156 1.3356 1.3398 1.3689 1.3907 1.4047 1.3449 1.1934
2035.072 1.0505 1.1232 1.1687 1.1759 1.2893 1.3337 1.3662 1.4936 1.5026 1.4844
2054.362 1.615 1.705 1.835 1.895 1.835 1.895 1.995 2.145 2.265 2.125
2073.651 2.085 2.175 2.245 2.335 2.255 2.225 2.235 2.125 2.185 2.175
2092.941 2.185 2.155 1.955 1.995 1.985 1.825 1.655 1.605 1.5484 1.595
2112.231 1.575 1.4148 1.3484 1.3218 1.2491 1.2786 1.2608 1.1336 1.15 1.132
2131.521 1.1647 1.1654 1.2668 1.2299 1.1858 1.3557 1.3418 1.3915 1.3821 1.1986
2150.810 1.2956 1.4593 1.4338 1.3295 1.2976 1.4492 1.595 1.499 1.366 1.4636
2170.100 1.4777 1.455 1.5627 1.635 1.557 1.4334 1.2924 1.1503 1.2055 1.253
2189.390 1.1624 1.2984 1.362 1.1937 1.1925 1.2115 1.1707 1.1008 1.0927 1.1396
2208.680 1.0605 1.1153 1.2196 1.1297 1.0367 0.9724 0.9421 0.9268 1.0191 1.0422
2227.970 0.8294 0.8152 0.9396 0.898 0.9242 0.922 0.7413 0.7917 0.896 0.7565
2247.259 0.773 0.9885 1.0706 1.0133 0.9557 0.953 0.9475 0.8049 0.6812 0.8873
2266.549 1.1039 1.0933 1.0703 1.0268 1.0432 1.1486 1.2286 1.2205 1.073 1.0876
2285.839 1.1455 1.017 1.0398 1.0891 1.0381 1.0807 1.1554 1.1506 1.0509 1.013
2305.129 1.1151 1.0588 0.9499 0.9049 1.0426 1.3765 1.2598 1.0715 1.2168 1.2516
2324.418 1.1858 1.212 1.2424 1.2009 1.1701 1.2213 1.3652 1.2407 1.0988 1.1581
2343.708 1.101 1.1044 1.0513 0.8859 0.9116 0.8954 0.908 0.9251 0.8846 0.8814
2362.998 0.7649 0.7453 0.8979 0.9956 0.9994 0.9567 1.0836 1.1562 0.9756 1.0369
2382.288 1.2046 1.3213 1.2525 1.1714 1.2818 1.1934 1.0814 1.0955 1.204 1.2814
2401.578 1.095 1.0283 1.3327 1.3125 1.2638 1.3718 1.2404 1.3321 1.2943 1.1804
2420.867 1.3683 1.4117 1.2935 1.2434 1.2006 1.1143 0.9669 0.99 1.0383 0.8687
2440.157 0.8026 0.935 0.95 0.8501 0.8696 0.8739 0.8519 0.8239 0.8275 0.9569
2459.447 0.9353 0.884 0.8789 0.8714 0.9874 1.0356 1.0362 1.0459 1.0413 1.0874
2478.737 1.1359 1.171 1.1122 1.0713 1.2006 1.1021 0.9098 0.8475 0.9549 1.0358
2498.026 0.9264 0.881 0.6931 0.63875 0.8086 0.9125 0.9599 1.0151 1.0675 1.0107
2517.316 0.9593 1.0211 1.0083 0.9197 0.9431 1.0265 1.2325 1.0485 0.9137 1.1736
2536.606 1.1781 1.1318 1.1573 1.0608 0.8099 0.808 0.9723 0.9725 0.9081 0.9928
2555.896 1.0031 0.8564 0.8503 0.9296 0.9999 1.0347 1.1267 1.1133 1.1099 1.3025
2575.186 1.2504 1.1711 1.0575 0.8509 1.0276 1.1848 1.1433 1.0883 1.0548 1.1255
2594.475 1.2155 1.2856 1.1891 1.1576 1.249 1.1934 1.1748 1.1227 0.9689 0.9927
2613.765 1.1236 1.2808 1.2146 0.9887 1.0131 1.0585 1.0722 0.9688 1.0199 1.1345
2633.055 1.0567 1.0281 0.9483 1.051 1.1721 1.1815 1.3451 1.1718 0.9272 1.0483
2652.345 1.2417 1.3266 1.311 1.2512 0.9511 0.8438 1.1654 1.2128 1.0152 1.0054
2671.634 0.9915 0.9395 0.8921 0.8637 0.813 0.8435 0.9424 0.9665 0.8353 0.66739
2690.924 0.64611 0.8977 0.9952 0.8851 0.9662 0.9626 0.8111 0.57772 0.452 0.65797
2710.214 1.0191 1.0384 0.9454 0.9179 0.9457 0.9699 0.9783 1.0015 1.0459 1.0552
2729.504 0.9656 0.7621 0.64597 0.9465 1.0853 0.812 0.7684 0.821 0.9488 1.051
2748.794 0.8841 0.65871 0.6937 1.0256 1.0927 0.9995 1.0992 1.0236 0.9462 1.1144
2768.083 1.0169 0.798 0.732 0.8153 0.9193 1.1274 1.2084 0.8889 0.9237 1.2608
2787.373 1.0784 0.8235 0.8139 0.8326 0.9116 1.2833 1.4093 1.0756 0.8766 0.8113
2806.663 0.9686 1.0688 1.2015 1.2752 0.937 1.1163 1.4361 1.5057 1.665 1.695
2825.953 1.865 1.945 2.145 2.365 2.405 2.605 2.955 3.425 3.895 4.705
2845.242 5.795 6.625 7.055 7.275 7.035 6.525 5.925 5.115 4.585 4.035
2864.532 3.645 3.685 3.475 3.605 3.825 3.745 3.655 3.675 3.885 4.025
2883.822 4.045 4.045 4.205 4.535 4.675 4.775 5.255 5.455 5.325 5.455
2903.112 5.625 5.815 6.145 6.275 6.145 6.225 6.435 6.405 6.515 6.575
2922.401 6.475 6.355 6.225 6.245 6.345 6.355 6.325 6.575 7.205 7.835
2941.691 8.785 9.925 11.325 13.275 15.795 19.015 22.905 27.955 33.385 37.315
2960.981 39.055 38.665 36.895 33.255 28.005 22.895 18.985 16.645 15.285 14.615
2980.271 13.875 13.025 12.105 11.255 10.775 10.465 10.195 10.125 10.515 10.645
2999.561 10.555 10.795 10.925 10.625 10.245 9.995 10.015 10.085 9.965 9.835
3018.850 9.705 9.655 10.025 10.705 11.025 11.155 11.095 10.985 10.925 10.585
3038.140 10.265 10.115 9.855 9.455 9.095 8.955 9.015 8.935 8.985 9.245
3057.430 9.515 9.635 10.035 10.515 10.815 10.905 10.985 11.145 10.655 10.005
3076.720 9.585 9.335 8.845 8.125 7.805 7.545 7.055 6.515 6.035 5.535
3096.009 5.205 5.065 4.985 4.885 4.765 4.705 4.415 4.055 3.575 3.225
3115.299 3.165 2.875 2.645 2.655 2.325 2.095 2.185 1.945 1.715 1.4047
3134.589 1.2296 1.3659 1.2507 1.3745 1.5007 1.5329 1.4716 1.428 1.3851 1.2939
3153.879 1.3279 1.2657 1.2993 1.3436 1.2641 1.0108 0.9491 1.2994 1.3758 1.0475
3173.169 0.9556 1.1246 1.0503 0.8466 0.9696 1.3602 1.585 1.5633 1.1537 0.9091
3192.458 1.1837 1.0263 0.7701 0.7232 0.9919 0.8916 0.64923 0.7086 0.61786 0.7612
3211.748 0.9754 1.2283 0.9777 0.7059 0.8467 0.65059 0.5202 0.65723 0.67423 0.8146
3231.038 0.9056 0.62681 0.449 0.56978 0.65876 0.67218 0.7091 0.7633 0.67194 0.449
3250.328 0.5331 0.7038 0.6374 0.56 0.581698 0.5359 0.56737 0.6228 0.8299 0.787
3269.617 0.63206 0.907 0.9853 0.7828 0.846 0.8553 0.5476 0.6982 0.8749 0.6834
3288.907 0.358 0.275 0.60934 0.59487 0.425 0.8591 1.0224 0.4751 0.235 0.5347
3308.197 0.448 0.248 0.424 0.5965 0.7909 0.936 0.8251 0.8376 1.0293 1.0456
3327.487 0.9406 0.8159 0.8335 0.867 0.9259 1.0066 0.8419 0.8305 0.8201 0.8066
3346.777 0.8584 0.7454 0.64791 0.5279 0.393 0.299 0.64209 0.6996 0.4831 0.5319
3366.066 0.7519 0.7862 0.59076 0.7393 0.893 0.8105 0.7106 0.6915 0.57069 0.7167
3385.356 0.9249 1.0234 0.7095 0.435 0.65319 0.5596 0.584488 0.8874 0.9483 0.8179
3404.646 0.7989 1.0162 1.3382 1.2215 0.9737 0.8435 0.7664 0.66116 0.7716 0.6969
3423.936 0.7536 0.9676 0.8627 0.9214 0.8144 0.9309 1.0352 0.9662 0.7272 0.60962
3443.225 0.8512 0.64581 0.7382 1.2422 1.5149 1.3435 1.0968 1.3045 1.3829 1.3226
3462.515 1.4823 1.915 2.535 2.765 2.645 2.775 2.705 2.495 2.415 2.135
3481.805 1.975 1.945 1.855 1.675 1.645 1.675 1.0987 0.9738 0.8992 0.816
3501.095 0.9331 0.9591 1.1302 1.0933 1.0911 1.3553 1.3443 1.2331 1.1211 0.7564
3520.385 0.7091 0.8939 0.65974 0.5605 0.7592 0.8298 1.002 0.8588 0.7802 0.7347
3539.674 0.8207 1.0632 1.2038 0.944 0.8433 1.0631 0.7556 0.42 0.353 0.415
3558.964 0.578113 0.8436 1.1255 1.0945 0.9401 0.8587 0.464 0.378 0.67402 0.5593
3578.254 0.4921 0.6917 0.7128 0.59558 0.5087 0.282 0.336 0.61571 0.6668 0.7705
3597.544 0.60829 0.452 0.5183 0.373 0.448 0.6802 0.7071 0.575521 0.5121 0.62831
3616.833 0.5458 0.65076 0.66266 0.7222 0.6956 0.5604 0.9099 0.8652 0.65385 0.6933
3636.123 0.5212 0.5625 0.8398 0.7618 0.448 0.179 0.082 0.171 0.61536 0.9324
3655.413 0.9955 0.8287 0.61932 0.7139 0.63219 0.67431 0.8279 0.65484 0.7142 0.66615
3674.703 0.375 0.424 0.578489 0.7985 0.792 0.5498 0.5198 0.59011 0.7218 0.7497
3693.993 0.5231 0.255 0.165 0.075 0.121 0.409 0.411 0.296 0.6854 0.9297
3713.282 0.6979 0.5248 0.383 0.315 0.356 0.354 0.4869 0.8345 0.8681 0.67128
3732.572 0.66401 0.5351 0.429 0.62146 0.66179 0.64534 0.5493 0.35 0.435 0.65811
3751.862 0.9953 1.2796 1.08 0.8805 0.8166 0.60215 0.63144 0.8918 1.1182 1.052
3771.152 0.8575 0.6982 0.485 0.58541 0.5403 0.5132 0.579247 0.387 0.365 0.5072
3790.441 0.7011 0.8832 1.0989 1.1896 0.8283 0.7325 0.8263 0.7451 0.56808 0.4944
3809.731 0.7293 0.428 0 0.375 0.56942 0.354 0.5148 0.59924 0.56568 0.8141
3829.021 0.9847 1.1265 0.8663 0.333 0.322 0.432 0.7152 0.6719 0.4957 0.61832
3848.311 0.61522 0.6572 0.59416 0.244 0.109 0.417 0.6948 0.59492 0.256 0.249
3867.601 0.342 0.4935 0.63827 0.699 0.59338 0.438 0.6088 0.7902 0.8439 0.575723
3886.890 0.5395 0.7739 0.7049 0.5567 0.737 1.0607 1.1579 1.1836 0.9668 0.67109
3906.180 0.7907 0.997 0.9491 0.767 0.463 0.382 0.462 0.294 0.424 0.7651
3925.470 0.8787 0.8342 0.9405 0.9129 0.64505 0.5298 0.63066 0.6971 0.577735 0.7397
3944.760 0.8394 0.6565 0.7954 0.574327 0.4914 0.8865 0.8506 0.8216 0.8329 0.57174
3964.049 0.5523 0.9193 0.7589 0.708 1.2282 1.0904 0.61685 0.7065 0.9184 1.1013
3983.339 1.0794 0.9151 0.7915 0.9004 1.0667 0.8817 0.8132 0.9289 1.1935 1.1808
##END=
