##TITLE=17B-Estradiol dipropionate
##JCAMP-DX=4.24
##DATA TYPE=INFRARED SPECTRUM
##ORIGIN=EPA-IR VAPOR PHASE LIBRARY
##OWNER=SRD/NIST
Collection (C) 2018 copyright by the U.S. Secretary of Commerce
on behalf of the United States of America. All rights reserved.
##CAS REGISTRY NO=113-38-2
##MOLFORM=C 24 H 32 O 4
##$NIST SOURCE=MSDC-IR
##STATE=gas
##XUNITS=1/CM
##YUNITS=ABSORBANCE
##XFACTOR=1.
##YFACTOR=0.001
##DELTAX=3.85796
##FIRSTX=501.5
##LASTX=4000.7
##FIRSTY=0.062
##MAXX=4000.7
##MINX=501.534
##MAXY=0.039516
##MINY=0
##NPOINTS=908
##XYDATA=(X++(Y..Y))
501.534 0.062 0 0.24764 0.3628 0.5516 0.6127 0.4783 0.3524 0.3671 0.4347
540.114 0.4455 0.5066 0.5917 0.6827 0.7832 0.854 0.798 0.6053 0.5082 0.5394
578.693 0.4605 0.31657 0.3986 0.5177 0.5474 0.5977 0.6345 0.6786 0.6807 0.6264
617.273 0.5237 0.4331 0.4425 0.4416 0.4427 0.4567 0.3963 0.4136 0.4483 0.3962
655.852 0.3939 0.4358 0.3933 0.3857 0.4112 0.3806 0.3853 0.414 0.4057 0.4018
694.432 0.4482 0.4503 0.4217 0.4268 0.4208 0.3818 0.3749 0.3835 0.3658 0.3931
733.011 0.4512 0.4764 0.4678 0.4485 0.4798 0.517 0.4789 0.5115 0.6029 0.6415
771.591 0.7315 0.858 0.9754 1.1249 1.226 1.266 1.236 1.213 1.276 1.456
810.170 1.666 1.796 1.856 1.856 1.796 1.686 1.546 1.486 1.446 1.316
848.750 1.236 1.1789 1.1644 1.2209 1.296 1.456 1.746 2.156 2.616 3.176
887.330 3.786 4.186 4.156 3.736 3.166 2.716 2.606 2.786 2.956 2.826
925.909 2.536 2.216 1.886 1.726 1.746 1.856 1.996 2.226 2.516 2.806
964.489 3.116 3.536 4.096 4.756 5.556 6.256 6.686 6.856 6.966 7.466
1003.068 8.306 9.176 9.686 9.286 8.376 8.026 8.526 9.426 10.016 9.886
1041.648 9.666 10.076 11.066 12.016 12.696 13.146 13.356 13.346 13.106 12.796
1080.227 12.486 12.086 11.466 10.596 9.806 9.446 9.596 10.116 11.006 12.166
1118.807 13.376 14.906 16.916 19.296 21.896 24.386 26.746 29.726 33.636 36.266
1157.387 35.946 34.276 33.756 35.296 37.636 39.086 39.516 38.936 36.946 33.856
1195.966 30.536 27.636 25.346 23.676 22.496 21.906 21.986 22.046 20.836 18.216
1234.546 15.486 13.606 12.726 12.516 12.216 11.546 10.756 10.136 9.836 9.816
1273.125 9.716 9.146 8.236 7.216 6.176 5.256 4.476 3.956 3.716 3.686
1311.705 3.906 4.426 5.326 6.516 7.676 8.546 9.156 9.666 10.126 10.346
1350.284 9.986 8.876 7.396 6.166 5.386 4.926 4.686 4.716 5.076 5.346
1388.864 5.026 4.336 3.596 3.046 2.766 2.706 2.866 3.196 3.516 3.626
1427.443 3.686 3.936 4.286 4.516 4.656 4.976 5.306 5.376 5.606 6.286
1466.023 7.316 7.736 7.076 6.576 7.236 9.156 11.796 13.126 11.726 9.066
1504.603 6.696 4.656 3.376 2.656 2.236 1.936 1.706 1.546 1.456 1.376
1543.182 1.306 1.256 1.256 1.266 1.316 1.366 1.446 1.586 1.786 2.046
1581.762 2.206 2.156 2.036 2.066 2.276 2.626 3.006 3.206 2.996 2.446
1620.341 1.876 1.486 1.236 1.0843 1.0026 0.9285 0.8852 0.875 0.8836 0.8628
1658.921 0.8456 0.8757 0.8969 0.9147 0.9658 1.0147 1.0803 1.1477 1.256 1.426
1697.500 1.616 1.846 2.106 2.406 2.756 3.166 3.696 4.366 5.276 6.536
1736.080 8.406 11.116 15.196 20.236 24.376 24.966 22.216 18.976 17.456 17.716
1774.659 18.286 17.496 15.076 12.106 9.456 7.236 5.576 4.336 3.406 2.756
1813.239 2.256 1.896 1.626 1.406 1.236 1.1136 1.0088 0.9236 0.8556 0.8074
1851.819 0.7733 0.7535 0.7579 0.775 0.8004 0.8414 0.8628 0.8344 0.7841 0.7303
1890.398 0.6854 0.654 0.6405 0.6269 0.6126 0.5973 0.587 0.6019 0.595 0.5789
1928.978 0.5802 0.5794 0.5886 0.5981 0.6011 0.5921 0.5935 0.5971 0.603 0.6182
1967.557 0.6095 0.6082 0.6204 0.6219 0.6338 0.6516 0.6461 0.6363 0.6346 0.642
2006.137 0.6506 0.6563 0.6505 0.6519 0.6706 0.6806 0.682 0.6795 0.6781 0.6907
2044.716 0.7158 0.7121 0.6917 0.6893 0.6849 0.6855 0.6955 0.6773 0.6439 0.6408
2083.296 0.6412 0.6359 0.6303 0.6077 0.5884 0.5689 0.5575 0.555 0.5639 0.5749
2121.875 0.5653 0.543 0.5439 0.5614 0.5641 0.5507 0.544 0.559 0.5452 0.5316
2160.455 0.5365 0.536 0.5469 0.5509 0.5402 0.5299 0.5178 0.5063 0.5225 0.5498
2199.035 0.5558 0.5477 0.5476 0.551 0.542 0.5422 0.5563 0.5542 0.5599 0.575
2237.614 0.5787 0.587 0.5847 0.5679 0.5713 0.5723 0.5672 0.562 0.5514 0.5685
2276.194 0.5774 0.559 0.5355 0.5439 0.5732 0.5782 0.5712 0.5655 0.5513 0.5429
2314.773 0.5417 0.5414 0.5419 0.565 0.6054 0.6106 0.597 0.5984 0.5879 0.5849
2353.353 0.6023 0.6065 0.6024 0.592 0.5905 0.5906 0.5805 0.5738 0.5786 0.5768
2391.932 0.5719 0.5745 0.5748 0.5698 0.5766 0.5921 0.5961 0.5926 0.5814 0.5685
2430.512 0.5625 0.5609 0.5652 0.5808 0.5779 0.5713 0.5543 0.5319 0.5398 0.5509
2469.092 0.5359 0.5227 0.5002 0.4683 0.4748 0.496 0.5101 0.5068 0.5076 0.5189
2507.671 0.53 0.5401 0.5497 0.5527 0.5264 0.5124 0.5355 0.5427 0.5312 0.5331
2546.251 0.5605 0.5857 0.5785 0.556 0.5628 0.5877 0.5901 0.5692 0.5767 0.5898
2584.830 0.5951 0.5978 0.6004 0.6098 0.6054 0.6059 0.6193 0.6275 0.6182 0.6291
2623.410 0.647 0.6574 0.6788 0.6959 0.6956 0.6987 0.7051 0.6847 0.6762 0.6774
2661.989 0.6719 0.6833 0.6836 0.6739 0.6687 0.6829 0.6769 0.6956 0.722 0.7099
2700.569 0.7092 0.7255 0.7378 0.7277 0.7367 0.74 0.744 0.7754 0.7947 0.7868
2739.148 0.7862 0.8199 0.8408 0.8428 0.8614 0.9081 0.9307 0.9226 0.9534 0.9506
2777.728 0.9398 0.9447 0.983 1.0358 1.0524 1.0912 1.149 1.2103 1.276 1.366
2816.308 1.486 1.656 1.936 2.406 3.026 3.546 3.906 4.276 4.866 5.676
2854.887 6.546 7.256 7.466 7.176 6.976 7.256 7.986 8.886 9.176 8.626
2893.467 8.006 7.676 7.556 7.696 8.226 9.276 10.756 12.516 14.536 16.576
2932.046 18.016 18.836 19.556 19.986 19.676 18.636 16.776 14.356 12.576 12.046
2970.626 12.516 13.146 13.116 12.786 12.876 12.266 10.086 7.676 6.026 4.996
3009.205 4.286 3.726 3.276 2.966 2.776 2.686 2.706 2.766 2.726 2.526
3047.785 2.216 1.916 1.756 1.676 1.646 1.626 1.606 1.606 1.596 1.566
3086.364 1.466 1.346 1.236 1.2112 1.2024 1.1772 1.1497 1.0789 1.0292 0.9813
3124.944 0.9111 0.8734 0.8291 0.7833 0.7812 0.7932 0.7631 0.7169 0.7116 0.7347
3163.524 0.7357 0.7077 0.6827 0.6552 0.6421 0.6524 0.6666 0.6794 0.6529 0.6378
3202.103 0.6332 0.6067 0.6134 0.612 0.5788 0.5382 0.5339 0.5475 0.5509 0.5262
3240.683 0.5326 0.5512 0.5372 0.5238 0.5216 0.5445 0.5284 0.5248 0.5205 0.4943
3279.262 0.4919 0.5053 0.5514 0.5551 0.5263 0.5105 0.5194 0.52 0.5103 0.5042
3317.842 0.4781 0.4741 0.5176 0.5426 0.5245 0.5127 0.4929 0.4859 0.5225 0.5064
3356.421 0.4789 0.4825 0.4947 0.5145 0.5324 0.5091 0.5064 0.5405 0.4902 0.4565
3395.001 0.4638 0.4666 0.4585 0.4691 0.4937 0.5015 0.5005 0.5137 0.5047 0.5012
3433.580 0.5001 0.5161 0.5386 0.5063 0.5343 0.5481 0.543 0.5719 0.5921 0.6074
3472.160 0.6198 0.6433 0.6636 0.6712 0.681 0.6826 0.6692 0.6643 0.6987 0.6794
3510.740 0.6178 0.606 0.6061 0.6304 0.6731 0.6854 0.6663 0.6416 0.65 0.6511
3549.319 0.6469 0.6486 0.6152 0.5638 0.5558 0.5641 0.5328 0.4815 0.4312 0.4445
3587.899 0.4551 0.4704 0.4845 0.4557 0.4731 0.4872 0.4843 0.5093 0.4838 0.4788
3626.478 0.5391 0.5048 0.4831 0.4987 0.4898 0.4871 0.4781 0.4861 0.4744 0.4692
3665.058 0.5168 0.5536 0.5511 0.5632 0.5513 0.5174 0.5111 0.5138 0.5046 0.5554
3703.637 0.5926 0.5826 0.5379 0.4764 0.4971 0.5388 0.6052 0.6232 0.5131 0.509
3742.217 0.5874 0.5656 0.5843 0.5859 0.585 0.6191 0.6052 0.5915 0.5903 0.5772
3780.797 0.5683 0.6011 0.6015 0.5498 0.5389 0.5631 0.588 0.5937 0.611 0.6429
3819.376 0.6135 0.5761 0.6222 0.6214 0.5191 0.5255 0.5661 0.5465 0.5691 0.5673
3857.956 0.5528 0.5709 0.535 0.492 0.5019 0.5148 0.5396 0.5319 0.543 0.5933
3896.535 0.5496 0.5117 0.5185 0.5549 0.61 0.5767 0.5633 0.6255 0.6171 0.5791
3935.115 0.5827 0.5891 0.5663 0.5348 0.5611 0.566 0.5406 0.5758 0.6302 0.638
3973.694 0.6314 0.6219 0.626 0.6544 0.6354 0.6206 0.5865 0.587
##END=
