##TITLE=MGK-264
##JCAMP-DX=4.24
##DATA TYPE=INFRARED SPECTRUM
##ORIGIN=NIST Mass Spectrometry Data Center
##OWNER=NIST Standard Reference Data Program
Collection (C) 2018 copyright by the U.S. Secretary of Commerce
on behalf of the United States of America. All rights reserved.
##CAS REGISTRY NO=113-48-4
##MOLFORM=C 17 H 25 N O 2
##$NIST SOURCE=MSDC-IR
##SPECTROMETER/DATA SYSTEM=HP-GC/MS/IRD
##STATE=gas
##XUNITS=1/CM
##YUNITS=ABSORBANCE
##XFACTOR=1.0
##YFACTOR=0.000012800
##DELTAX=4.0
##FIRSTX=550.0
##LASTX=3846.0
##FIRSTY=0.000064
##MAXX=3846
##MINX=550
##MAXY=0.128
##MINY=0
##NPOINTS=825
##XYDATA=(X++(Y..Y))
550.0 5 3 2 5 0 0 2 5 10 26
590.0 44 77 138 242 376 480 491 408 299 220
630.0 191 202 213 208 188 172 157 266 393 247
670.0 118 120 129 141 165 198 231 254 247 228
710.0 225 310 579 1030 1267 995 534 311 288 280
750.0 228 165 129 120 122 124 128 136 144 146
790.0 138 123 117 130 136 138 151 188 243 292
830.0 305 290 284 276 239 183 141 127 133 153
870.0 189 234 274 302 322 343 329 295 295 301
910.0 277 246 229 202 175 154 143 143 152 161
950.0 161 161 164 162 165 167 157 142 124 108
990.0 94 83 76 73 76 80 85 94 105 123
1030.0 148 172 190 224 265 253 183 116 86 76
1070.0 72 72 73 86 120 173 210 208 197 214
1110.0 255 315 409 557 739 850 804 669 567 514
1150.0 493 495 523 590 695 829 959 1028 993 862
1190.0 698 567 482 419 361 316 297 297 300 282
1230.0 242 208 194 202 221 240 253 257 264 272
1270.0 282 304 341 395 458 524 565 569 567 596
1310.0 660 744 855 997 1171 1368 1548 1673 1763 1882
1350.0 2048 2217 2306 2268 2110 1893 1715 1685 1835 2094
1390.0 2298 2261 1953 1545 1197 923 700 545 471 464
1430.0 519 620 712 738 704 659 636 635 627 573
1470.0 484 381 291 226 180 152 133 118 105 91
1510.0 83 78 70 63 63 63 61 57 53 56
1550.0 58 55 50 56 65 71 72 72 74 78
1590.0 80 81 82 82 84 89 93 102 115 126
1630.0 138 150 163 171 170 163 159 169 189 218
1670.0 256 309 389 503 676 895 1162 1524 2133 3233
1710.0 5130 7683 9826 10000 8061 5590 3788 2716 2016 1484
1750.0 1096 838 683 600 567 581 643 718 724 634
1790.0 497 376 292 238 198 169 145 126 111 98
1830.0 89 81 72 60 51 47 44 41 38 35
1870.0 33 32 33 33 32 29 28 28 29 26
1910.0 25 25 26 26 25 24 24 21 18 18
1950.0 17 15 15 15 13 12 13 12 13 12
1990.0 13 12 13 14 15 15 12 13 13 12
2030.0 13 14 16 14 12 12 12 14 14 11
2070.0 11 11 10 10 12 13 15 17 18 15
2110.0 13 11 13 13 11 11 10 12 15 14
2150.0 14 15 16 15 13 14 15 15 16 17
2190.0 18 17 16 15 16 15 16 15 14 16
2230.0 14 16 14 11 9 8 9 8 7 7
2270.0 8 10 10 9 9 9 8 9 8 9
2310.0 11 15 16 15 15 17 16 16 15 16
2350.0 15 14 13 13 14 13 11 12 11 12
2390.0 11 9 9 10 9 10 11 10 9 10
2430.0 10 9 9 7 5 5 4 3 4 4
2470.0 1 0 6 6 6 8 7 8 9 10
2510.0 9 10 9 8 9 11 13 14 15 13
2550.0 12 14 14 14 15 15 15 17 17 18
2590.0 17 14 14 15 14 13 14 13 14 14
2630.0 15 16 15 16 17 21 25 22 20 24
2670.0 27 25 25 26 26 28 28 29 30 32
2710.0 35 36 37 40 42 46 50 52 53 55
2750.0 56 57 56 57 57 58 59 61 65 72
2790.0 79 85 90 99 107 115 126 139 154 172
2830.0 192 215 244 281 331 408 521 682 875 1070
2870.0 1232 1348 1417 1416 1333 1201 1080 1022 1031 1103
2910.0 1232 1406 1610 1853 2135 2432 2722 2956 3043 2901
2950.0 2606 2391 2406 2593 2806 2908 2757 2277 1623 1101
2990.0 849 835 1044 1340 1363 1001 570 338 257 216
3030.0 191 171 153 140 133 130 131 137 146 172
3070.0 210 242 241 199 153 128 116 109 103 97
3110.0 90 85 81 80 75 67 66 64 64 57
3150.0 49 40 36 36 31 28 28 26 25 21
3190.0 19 20 16 14 10 10 13 12 11 12
3230.0 13 14 12 13 11 10 11 10 11 11
3270.0 10 10 13 12 8 7 7 6 6 7
3310.0 8 8 3 6 3 0 1 8 10 8
3350.0 6 4 3 8 10 10 8 8 10 9
3390.0 8 8 9 9 13 19 25 27 25 31
3430.0 36 38 39 41 43 41 43 43 44 54
3470.0 67 79 89 100 102 90 73 58 43 34
3510.0 30 27 26 20 16 18 17 13 11 7
3550.0 6 9 12 12 8 8 14 12 9 7
3590.0 5 5 5 9 8 7 5 3 8 8
3630.0 6 9 10 12 10 6 4 7 13 14
3670.0 8 9 12 11 10 12 13 9 7 7
3710.0 8 7 7 8 8 6 6 13 14 10
3750.0 12 13 15 17 15 13 19 24 22 24
3790.0 24 20 19 21 21 24 25 21 19 19
3830.0 18 16 12 14 18
##END=
