##TITLE=Methylphenidate
##JCAMP-DX=4.24
##DATA TYPE=INFRARED SPECTRUM
##ORIGIN=NIST Mass Spectrometry Data Center
##OWNER=NIST Standard Reference Data Program
Collection (C) 2018 copyright by the U.S. Secretary of Commerce
on behalf of the United States of America. All rights reserved.
##CAS REGISTRY NO=113-45-1
##MOLFORM=C 14 H 19 N O 2
##$NIST SOURCE=MSDC-IR
##SPECTROMETER/DATA SYSTEM=HP-GC/MS/IRD
##STATE=gas
##XUNITS=1/CM
##YUNITS=ABSORBANCE
##XFACTOR=1.0
##YFACTOR=0.000001500
##DELTAX=4.0
##FIRSTX=550.0
##LASTX=3846.0
##FIRSTY=0.000722
##MAXX=3846
##MINX=550
##MAXY=0.015
##MINY=0
##NPOINTS=825
##XYDATA=(X++(Y..Y))
550.0 481 220 11 15 14 102 185 197 241 355
590.0 407 344 324 295 255 232 201 251 238 178
630.0 137 139 165 174 173 140 157 207 275 394
670.0 451 506 622 835 1217 1858 2612 3038 2901 2391
710.0 1959 1731 1677 1785 1924 1995 1825 1514 1222 978
750.0 837 769 735 688 684 716 663 628 594 479
790.0 392 317 210 107 124 132 126 182 185 185
830.0 229 230 211 255 287 268 247 235 259 296
870.0 341 382 416 441 452 447 392 313 255 195
910.0 166 170 147 139 154 139 106 115 108 90
950.0 62 69 102 110 124 163 211 244 265 300
990.0 379 545 765 1039 1396 1755 2050 2229 2227 2029
1030.0 1721 1389 1098 845 706 729 796 818 794 778
1070.0 771 742 706 700 716 791 961 1176 1393 1619
1110.0 1910 2294 2701 3018 3211 3356 3643 4200 4992 5924
1150.0 6786 7428 7778 7695 7081 6114 5096 4342 3969 3884
1190.0 3932 3928 3814 3614 3430 3304 3212 3189 3275 3450
1230.0 3633 3779 3834 3799 3752 3673 3632 3559 3359 3060
1270.0 2762 2534 2407 2393 2450 2507 2473 2332 2175 2116
1310.0 2137 2163 2175 2157 2165 2270 2389 2468 2477 2385
1350.0 2176 1897 1590 1339 1147 1017 924 826 711 595
1390.0 487 418 390 374 393 461 551 657 833 1147
1430.0 1664 2240 2569 2579 2391 2239 2192 2149 2077 1945
1470.0 1707 1353 1034 860 877 999 1125 1125 959 663
1510.0 381 261 217 188 170 172 166 154 148 150
1550.0 162 154 143 147 176 203 223 263 301 348
1590.0 408 488 582 610 549 444 359 309 296 304
1630.0 331 399 467 520 567 609 638 629 592 556
1670.0 520 466 402 350 336 359 417 498 599 736
1710.0 892 1052 1269 1519 1870 2480 3546 5084 6735 7818
1750.0 8063 7729 6927 5803 4647 3681 2952 2364 1844 1429
1790.0 1113 861 666 520 404 307 243 208 171 158
1830.0 153 146 125 116 113 106 107 112 118 130
1870.0 140 140 130 131 130 118 112 93 77 69
1910.0 56 55 69 82 87 111 138 160 177 164
1950.0 148 145 132 100 76 70 69 57 55 55
1990.0 59 53 40 48 60 63 63 79 78 82
2030.0 94 103 100 95 90 64 56 69 71 61
2070.0 57 71 75 62 58 63 56 51 58 54
2110.0 62 77 77 77 84 89 84 58 33 21
2150.0 6 3 18 22 24 24 27 23 16 22
2190.0 23 28 30 17 12 17 21 22 29 15
2230.0 6 20 20 17 19 19 31 43 36 30
2270.0 32 35 22 17 26 26 13 14 17 27
2310.0 47 49 35 38 45 33 31 40 36 41
2350.0 53 55 51 43 45 35 24 30 35 24
2390.0 5 13 30 29 16 4 13 19 4 0
2430.0 22 16 0 17 25 22 19 20 13 0
2470.0 16 28 18 9 19 28 19 12 14 24
2510.0 30 12 15 29 22 17 22 19 27 34
2550.0 30 30 30 37 27 15 40 57 52 54
2590.0 45 48 84 109 106 89 84 92 90 97
2630.0 98 108 116 117 136 146 145 155 188 200
2670.0 201 172 141 159 159 149 164 181 204 220
2710.0 228 238 239 246 266 269 266 295 316 291
2750.0 286 294 274 276 300 340 378 435 551 677
2790.0 821 1007 1143 1177 1169 1146 1137 1142 1153 1200
2830.0 1251 1305 1374 1503 1718 1955 2209 2461 2646 2654
2870.0 2401 2034 1764 1588 1524 1556 1649 1793 2005 2331
2910.0 2778 3316 3992 4875 5937 7076 8238 9325 10000 9784
2950.0 8918 7887 6682 5263 3853 2686 1880 1427 1172 1031
2990.0 983 977 990 975 966 987 994 1067 1260 1513
3030.0 1746 1875 1832 1654 1409 1219 1149 1216 1446 1722
3070.0 1892 1845 1580 1279 1122 1020 886 744 613 511
3110.0 449 379 312 248 190 163 135 107 90 85
3150.0 84 79 91 80 68 75 59 47 48 43
3190.0 39 39 28 12 10 5 29 36 12 27
3230.0 44 32 34 44 39 33 24 3 5 23
3270.0 45 46 22 18 20 20 18 34 53 50
3310.0 24 12 24 23 37 67 73 59 69 81
3350.0 111 167 195 176 138 95 57 55 88 84
3390.0 64 74 77 79 75 65 57 62 63 72
3430.0 91 78 53 63 92 117 117 92 103 107
3470.0 110 103 79 86 92 104 121 88 72 90
3510.0 79 63 54 45 31 43 59 53 39 39
3550.0 48 38 40 32 0 7 31 44 57 68
3590.0 47 33 29 41 46 41 53 41 33 46
3630.0 75 75 58 61 47 18 11 13 8 42
3670.0 62 59 53 34 21 4 7 41 57 37
3710.0 34 49 56 32 16 43 51 56 63 27
3750.0 32 68 63 49 41 39 42 31 37 36
3790.0 30 47 40 36 35 34 21 8 25 32
3830.0 24 24 25 18 16
##END=
