##TITLE=1-Phenyl-3-methyl-5-aminopyrazole
##JCAMP-DX=4.24
##DATA TYPE=INFRARED SPECTRUM
##ORIGIN=EPA-IR VAPOR PHASE LIBRARY
##OWNER=SRD/NIST
Collection (C) 2018 copyright by the U.S. Secretary of Commerce
on behalf of the United States of America. All rights reserved.
##CAS REGISTRY NO=1131-18-6
##MOLFORM=C 10 H 11 N 3
##$NIST SOURCE=MSDC-IR
##STATE=gas
##XUNITS=1/CM
##YUNITS=ABSORBANCE
##XFACTOR=1.
##YFACTOR=0.001
##DELTAX=1.92898
##FIRSTX=549.8
##LASTX=4000.7
##FIRSTY=18.7962
##MAXX=4000.7
##MINX=549.759
##MAXY=0.122906
##MINY=0
##NPOINTS=1790
##XYDATA=(X++(Y..Y))
549.759 18.7962 19.8262 20.8762 21.1062 20.8262 21.3362 21.6062 21.2062 21.1162 20.9162
569.049 21.0562 21.2162 21.0662 21.1462 21.4262 21.6962 21.8862 22.2962 22.5862 22.4062
588.339 22.2162 22.0462 21.5762 20.6162 19.6862 18.9862 17.9362 16.6662 15.1962 14.0962
607.628 13.4962 12.9862 12.5562 12.1762 12.1062 12.2062 12.3362 12.3262 12.4362 12.8562
626.918 13.1862 13.4462 13.6162 13.7462 14.0462 14.4162 14.4862 14.6262 15.1262 15.4662
646.208 15.6562 15.9662 16.3262 16.6162 17.1762 17.5462 17.6762 17.7362 17.6362 17.6862
665.498 17.7562 18.3562 19.8562 22.0662 25.0162 28.3162 31.2662 33.1162 34.6862 36.3562
684.787 37.8862 39.1362 39.3262 38.7462 38.0062 37.4962 36.8862 35.2362 32.5262 29.3662
704.077 26.1062 22.9762 20.3262 18.2362 16.4362 15.1862 14.4462 14.1162 14.2962 15.0262
723.367 16.0962 17.5062 19.2762 21.2462 23.7262 26.6562 29.6562 32.8962 36.8262 40.8062
742.657 44.3662 47.9262 51.3462 54.4162 57.3962 59.9762 60.9762 60.0462 57.6762 53.8862
761.947 48.8162 43.6262 38.4162 33.4062 29.1162 25.0662 21.8062 19.4862 18.0662 17.1862
781.236 16.5262 16.3162 16.2862 16.1162 15.8362 15.5362 15.1262 14.4562 13.7362 12.6362
800.526 11.3962 10.5562 9.9962 9.4862 8.8762 8.3662 7.8962 7.6462 7.4562 7.1262
819.816 7.0362 7.1662 7.1562 7.1262 7.1862 7.1662 7.0662 6.8562 6.7062 6.7162
839.106 6.5562 6.1862 5.9462 5.7662 5.3362 5.1762 5.2162 5.0962 5.0862 5.0262
858.395 4.8862 4.8962 4.8862 4.8362 4.8962 4.8862 4.8162 4.7062 4.6762 4.6962
877.685 4.5162 4.3162 4.3662 4.4862 4.4662 4.4062 4.3662 4.5162 4.7462 4.9462
896.975 5.0962 5.1562 5.5462 6.0462 6.2862 6.5662 6.6462 6.4262 6.3062 6.2262
916.265 6.0362 5.6462 5.3462 4.8662 4.3062 4.1962 4.2262 4.1162 3.9862 3.8862
935.555 3.9862 3.9162 3.7462 3.7062 3.7162 3.8962 3.9162 3.8662 3.9462 4.2962
954.844 4.7962 5.2062 5.5662 5.9762 6.5462 7.1862 7.6962 8.1462 8.5762 8.7662
974.134 8.7262 8.3662 8.0262 7.9662 7.9262 7.8362 8.0862 8.4762 8.9562 9.8462
993.424 10.7162 11.7562 12.9862 14.2662 15.6562 16.5362 17.2362 18.0462 19.1462 20.7862
1012.714 22.4762 23.7862 24.6162 24.9562 24.9162 23.8562 22.3762 20.6862 17.8462 14.8162
1032.003 11.9962 9.9662 8.8062 8.0562 7.6162 7.4762 7.5462 7.7262 7.6462 7.4962
1051.293 7.4862 7.5162 7.9962 8.4462 8.7362 9.1762 9.4662 9.5762 9.6562 9.8562
1070.583 9.6162 9.1462 9.1362 8.8762 8.5962 8.5762 8.5462 8.2662 7.7662 7.4862
1089.873 7.4462 7.2962 7.0062 6.9862 6.7362 6.3562 6.0062 5.5862 5.7462 5.8162
1109.163 5.6762 5.3762 4.8662 4.8462 4.9562 5.1262 5.4062 5.5962 6.0162 6.4162
1128.452 7.0262 7.5162 7.5862 7.9562 8.6262 9.2262 9.2562 9.0062 8.6462 8.5362
1147.742 8.3962 7.9362 7.3462 6.5362 6.0662 5.8462 5.6962 5.3762 5.2462 5.0062
1167.032 4.7262 4.5062 4.0562 3.7762 3.6362 3.2762 2.8862 2.8162 2.4362 2.0462
1186.322 1.8362 1.6462 1.6162 1.5162 1.3362 1.3062 1.3062 1.3262 1.2362 1.0129
1205.611 1.0862 1.1862 1.1062 1.3062 1.6862 1.5562 1.4762 1.5462 1.8262 1.7562
1224.901 1.4962 1.5162 1.5762 1.5262 1.4962 1.6362 1.9162 2.0962 1.9562 1.9362
1244.191 1.8662 1.9462 1.9462 1.8362 2.0762 2.1162 1.9762 1.9462 1.9362 1.7862
1263.481 1.5562 1.6062 1.9262 2.1662 2.2662 2.5062 2.7362 3.0262 3.5262 4.0062
1282.771 4.3362 4.7562 5.5162 6.3162 6.8962 7.3662 7.8562 8.3162 8.6562 8.8762
1302.060 8.9462 8.9862 9.0462 8.9962 8.9862 8.9962 8.8962 8.7662 8.6462 8.5062
1321.350 8.3262 8.2362 8.1362 7.9362 7.9062 7.9862 8.0362 8.0962 8.2362 8.5062
1340.640 8.8862 9.3962 10.0462 10.8062 11.8262 13.0762 14.4662 16.1362 18.1262 20.4862
1359.930 23.0162 25.5462 27.7862 29.2762 30.0662 30.4262 30.4762 30.3562 30.1262 29.8862
1379.219 30.0962 31.2462 33.4362 36.3262 39.6162 42.9962 45.9962 48.3062 49.6862 50.0262
1398.509 49.1862 47.1762 44.0362 39.9562 35.6562 31.4862 27.7462 24.7062 22.3362 20.7262
1417.799 19.7962 19.3162 19.3362 19.6962 20.4462 21.3962 22.6662 24.2662 26.0262 27.9462
1437.089 30.1362 32.4662 34.8162 37.1262 39.4062 41.4962 43.3562 44.9862 46.1162 46.7362
1456.378 47.0262 46.9562 46.5862 45.7662 44.5262 43.1962 41.8262 40.3862 39.0362 37.8262
1475.668 36.9862 36.5862 37.0062 38.4262 40.9562 44.6062 49.4762 55.6662 63.3862 72.1362
1494.958 81.7162 92.1262 102.196 111.256 118.366 122.426 122.906 120.126 113.926 104.196
1514.248 92.1362 78.7962 65.4062 53.8462 43.6062 36.1662 30.9162 27.4362 25.2962 24.0262
1533.538 23.5962 23.7562 24.3562 25.5062 27.1162 29.2962 32.3262 36.2362 41.1962 47.7362
1552.827 55.4762 64.8462 74.5862 84.5262 93.7462 99.9762 102.976 102.836 99.8462 94.4562
1572.117 87.3862 79.4462 71.5162 65.1762 61.4162 59.8362 60.1562 62.1262 65.3062 69.2262
1591.407 73.7962 78.5962 83.2162 87.2262 90.4662 92.6462 93.6662 93.6662 92.5962 90.5162
1610.697 87.4862 83.6962 79.4062 74.7662 70.2962 65.9762 61.3562 56.1462 50.7962 45.3262
1629.986 39.9162 35.0662 30.7362 26.7462 23.4062 20.8262 18.5962 16.7062 15.0062 13.6562
1649.276 12.5462 11.6662 10.8862 10.1962 9.6362 9.1662 8.6562 8.1662 7.8262 7.4262
1668.566 6.9862 6.6762 6.4662 6.1962 5.9162 5.6262 5.3462 5.1062 4.8362 4.5362
1687.856 4.2762 4.0962 4.0062 3.9462 3.8262 3.6762 3.6162 3.5962 3.6662 3.6662
1707.146 3.6862 3.7062 3.7162 3.8462 3.8962 3.8462 3.8462 4.0262 4.1662 4.1262
1726.435 4.1262 4.1162 3.9962 3.9262 3.7762 3.8462 3.9062 3.7462 3.6662 3.6262
1745.725 3.5962 3.4062 3.2262 3.1062 3.0162 2.9862 2.9062 2.7862 2.6262 2.5862
1765.015 2.5262 2.4362 2.4362 2.3562 2.2562 2.2762 2.2562 2.2962 2.4062 2.4962
1784.305 2.6562 2.8262 2.9762 3.0462 3.0662 3.0962 3.0162 2.8462 2.6862 2.4762
1803.594 2.2962 2.2062 2.1762 2.1362 2.0462 2.0062 2.0462 2.0562 2.0362 1.9562
1822.884 1.8062 1.7362 1.6762 1.5862 1.5662 1.5962 1.4962 1.4062 1.3962 1.4462
1842.174 1.5162 1.4962 1.4862 1.5662 1.6562 1.7362 1.8662 1.9762 2.0362 2.1662
1861.464 2.3162 2.4662 2.5762 2.5662 2.5962 2.6462 2.7362 2.8162 2.7462 2.7062
1880.754 2.6962 2.6362 2.5662 2.4462 2.2662 2.0262 1.8862 1.7962 1.6162 1.4262
1900.043 1.3062 1.2062 1.1562 1.1962 1.1962 1.1862 1.2662 1.2862 1.3662 1.4462
1919.333 1.4762 1.6462 1.8562 1.9862 2.0762 2.2362 2.4262 2.5762 2.7462 2.8662
1938.623 2.9662 3.0462 3.1362 3.2362 3.2562 3.2962 3.3062 3.2662 3.2162 3.1162
1957.913 2.9162 2.6362 2.3862 2.2062 1.9162 1.6262 1.5362 1.4262 1.2862 1.2462
1977.202 1.1662 1.1462 1.1662 1.1462 1.1162 1.1162 1.1062 1.0862 1.0462 0.9973
1996.492 0.9429 0.896 0.917 0.8881 0.8812 0.9075 0.8341 0.8039 0.8115 0.769
2015.782 0.7893 0.7873 0.7808 0.7907 0.8067 0.7915 0.76 0.8703 0.9071 0.8523
2035.072 0.7623 0.7096 0.7216 0.6748 0.6732 0.7222 0.768 0.821 0.7776 0.7951
2054.362 0.8834 0.9026 0.8703 0.8455 0.9047 0.8651 0.8585 0.9384 0.89 0.8038
2073.651 0.773 0.8959 0.9702 0.9276 0.9475 0.9506 0.8713 0.874 0.8987 0.9023
2092.941 0.8939 0.8806 0.8795 0.8625 0.8467 0.8833 0.8687 0.7917 0.8202 0.883
2112.231 0.8927 0.922 0.9258 0.8592 0.8835 0.8832 0.8602 0.857 0.8794 0.9049
2131.521 0.8715 0.8852 0.9152 0.9283 0.981 0.9784 0.9827 0.9724 1.0188 1.1262
2150.810 1.1462 1.2162 1.2162 1.1562 1.1262 1.1462 1.1762 1.1262 1.0862 1.0962
2170.100 1.0962 1.0662 1.02 0.9662 0.9548 0.9121 0.8908 0.9458 0.9815 0.9928
2189.390 0.9803 0.9852 0.9863 0.9385 0.936 0.938 0.8541 0.8445 0.8514 0.8214
2208.680 0.8451 0.8392 0.8035 0.828 0.8248 0.7902 0.8184 0.7742 0.7706 0.7946
2227.970 0.7587 0.7636 0.8091 0.9303 0.9579 0.9405 0.924 0.9385 0.9769 0.9854
2247.259 1.0066 0.9909 1.0108 0.9812 0.934 0.9052 0.9063 0.9322 0.9556 0.9697
2266.549 0.9334 0.9408 0.9918 1.0309 1.0316 1.0099 1.0462 1.1062 1.0239 0.9905
2285.839 1.0662 1.0562 1.0462 1.0862 1.0562 0.9423 0.9168 0.9664 0.9125 0.9087
2305.129 1.0062 1.0962 1.0862 1.0562 1.1462 1.2162 1.2462 1.2062 1.1362 1.1462
2324.418 1.1162 1.0962 1.0066 0.9525 1.0662 1.0181 0.9203 0.9405 0.9376 0.8688
2343.708 0.801 0.8054 0.85 0.7969 0.712 0.6857 0.6747 0.6688 0.6491 0.5834
2362.998 0.5822 0.5809 0.5612 0.5813 0.5563 0.5711 0.5923 0.6395 0.622 0.5538
2382.288 0.5945 0.6036 0.5887 0.5543 0.6557 0.7069 0.6213 0.6 0.6214 0.7114
2401.578 0.7336 0.6709 0.7152 0.7875 0.8037 0.7587 0.7019 0.6966 0.7288 0.7813
2420.867 0.7207 0.6389 0.6396 0.6972 0.7161 0.6793 0.6115 0.5664 0.5833 0.6154
2440.157 0.5742 0.4991 0.5516 0.6337 0.6331 0.7049 0.6622 0.5119 0.4869 0.5042
2459.447 0.6359 0.6902 0.6883 0.655 0.617 0.7203 0.7409 0.6784 0.7276 0.7733
2478.737 0.7691 0.7693 0.7383 0.6203 0.5721 0.6535 0.6938 0.6778 0.626 0.6093
2498.026 0.5261 0.4799 0.529 0.5611 0.5954 0.5809 0.5067 0.4328 0.4754 0.5969
2517.316 0.5548 0.4643 0.5591 0.5395 0.5404 0.6466 0.7215 0.6538 0.5001 0.5986
2536.606 0.6905 0.6006 0.6549 0.8023 0.7764 0.7081 0.6657 0.6793 0.7827 0.8106
2555.896 0.7657 0.7814 0.8782 0.898 0.8662 0.9346 0.9031 0.7983 0.7976 0.8618
2575.186 0.9336 0.9179 0.8547 0.8519 0.8714 0.9024 0.9829 1.1062 1.1362 1.0762
2594.475 1.0362 1.0562 1.0862 1.1362 1.2062 1.2262 1.2162 1.1662 1.1462 1.1662
2613.765 1.2062 1.1762 1.0235 1.0218 1.1762 1.2062 1.0362 1.0334 1.2162 1.1162
2633.055 1.0047 1.0662 1.1062 1.1362 1.1162 1.1062 1.036 0.9746 1.0362 1.0148
2652.345 0.9293 0.9201 1.005 1.0662 1.0073 0.9086 0.9554 1.0762 1.0001 0.9558
2671.634 0.9629 0.9378 0.8747 0.9252 1.1262 1.0862 1.034 1.0117 0.9607 1.0231
2690.924 1.0309 1.0562 1.0862 0.9797 0.9143 1.0017 1.1062 1.0271 0.9941 1.0562
2710.214 0.9675 0.9574 1.0247 0.9572 0.8966 1.008 1.0562 1.0562 1.1262 1.1162
2729.504 1.1362 1.1062 1.0862 1.0962 0.9958 1.0259 1.0962 1.0462 1.0042 0.8978
2748.794 0.9444 1.0168 0.9311 0.94 1.0862 1.1762 1.2262 1.2762 1.1862 1.2762
2768.083 1.3062 1.2962 1.3862 1.3962 1.4062 1.4062 1.4062 1.3662 1.3562 1.3462
2787.373 1.3462 1.3962 1.4762 1.4362 1.4362 1.6062 1.6362 1.5162 1.4162 1.5162
2806.663 1.6062 1.6062 1.6462 1.7862 1.8762 1.9062 2.0762 2.2662 2.2962 2.4662
2825.953 2.8362 2.8862 2.8162 2.7862 2.7362 2.6662 2.7062 2.7062 2.7262 2.7462
2845.242 2.7262 2.7962 2.8162 2.9462 3.1462 3.2462 3.4162 3.5762 3.6962 4.1062
2864.532 4.6162 5.0662 5.4962 5.9762 6.4762 6.7862 7.0562 7.3562 7.4862 7.4962
2883.822 7.4862 7.3062 7.0862 6.9762 6.9362 6.8362 6.6362 6.3862 6.2762 6.4762
2903.112 6.6562 6.7662 6.9562 7.3062 7.9462 8.4862 9.0462 9.8062 10.9062 12.3562
2922.401 13.8462 15.6762 17.9262 20.2362 22.3462 24.0562 25.1862 25.6562 25.3262 24.1362
2941.691 22.4762 20.3662 17.8562 15.4462 13.3162 11.6062 10.4262 9.6262 9.1862 8.9462
2960.981 8.7662 8.6062 8.3962 8.0062 7.6362 7.2562 6.7962 6.3462 6.0662 5.8062
2980.271 5.5962 5.5862 5.3962 5.2362 5.2662 5.4662 5.6362 5.7162 5.8562 5.8062
2999.561 5.7462 5.5962 5.3262 5.0462 4.8162 4.7662 4.7962 4.8862 5.0962 5.3262
3018.850 5.5462 6.0062 6.5362 7.1462 7.8762 8.6962 9.5662 10.3362 11.0662 12.0562
3038.140 13.1362 14.0662 14.9462 15.7462 16.3662 16.9762 17.4662 17.6562 17.9462 18.1162
3057.430 18.0962 18.2962 18.7062 19.2262 20.0362 21.1662 22.2162 22.9462 23.5662 23.8762
3076.720 23.5362 22.6462 21.3362 19.7862 17.9362 15.8862 13.9862 12.3862 11.2762 10.4262
3096.009 9.7662 9.3462 8.8862 8.4962 8.2062 7.8862 7.5862 7.1362 6.5762 6.1762
3115.299 5.7962 5.3562 4.9962 4.5562 4.1062 3.8562 3.6462 3.3762 3.0362 2.8762
3134.589 2.6962 2.4262 2.2162 1.9562 1.8562 1.7862 1.4862 1.2962 1.2662 1.2462
3153.879 1.2262 1.1462 1.0562 1.0344 1.0762 1.0662 1.0235 0.9104 0.7909 0.8026
3173.169 1.029 1.1362 1.0662 1.0462 0.9936 0.9625 0.8866 0.8137 0.7629 0.8454
3192.458 0.906 0.7478 0.7103 0.7486 0.7523 0.7922 0.7829 0.7607 0.6408 0.6571
3211.748 0.8611 0.8841 0.7533 0.6889 0.805 0.8245 0.7587 0.7482 0.7641 0.7909
3231.038 0.7928 0.7208 0.7067 0.8435 0.828 0.8094 0.8527 0.8092 0.77 0.7557
3250.328 0.745 0.6539 0.7047 0.9313 0.9186 0.8065 0.7951 0.7676 0.6845 0.7159
3269.617 0.7693 0.8076 0.9441 0.9651 0.888 0.808 0.7753 0.711 0.6581 0.7446
3288.907 0.627 0.703 0.8787 0.8438 1.0562 1.0862 0.8875 0.8241 0.8654 0.9065
3308.197 0.846 0.8073 1.0038 0.9923 0.9416 0.9123 0.6953 0.7927 0.9464 0.889
3327.487 0.7328 0.7385 0.8986 1.0231 0.9221 0.7265 0.6957 0.7339 0.9099 0.9977
3346.777 1.0017 0.9876 0.9848 0.9099 0.8626 0.9071 1.0462 1.2262 1.3662 1.5562
3366.066 1.6662 1.8662 2.4162 2.8962 3.3062 3.9162 4.4462 4.9662 5.5262 5.9762
3385.356 6.3862 6.4762 6.3462 6.3362 6.0562 5.6862 5.3462 4.8462 4.4662 4.1162
3404.646 3.7362 3.4362 3.3462 3.1962 2.9562 2.9362 2.7162 2.4962 2.4462 2.2862
3423.936 2.1162 2.1562 2.1462 1.9862 1.9362 1.9962 1.9862 1.8262 2.0062 2.2362
3443.225 2.3362 2.4362 2.3662 2.5062 3.0662 3.6762 4.2762 4.9962 5.6862 6.2662
3462.515 6.9662 7.8862 8.6762 9.3162 9.8362 10.2062 10.4262 10.4162 10.2162 9.8062
3481.805 9.2662 8.7262 8.0862 7.2962 6.9062 6.5662 6.0562 5.6162 5.2062 4.9162
3501.095 4.5262 4.1862 3.9662 3.5762 3.1862 2.9662 2.7062 2.5062 2.3462 2.2462
3520.385 2.1062 1.9762 1.6762 1.4362 1.3962 1.4562 1.4262 1.2762 1.3362 1.3162
3539.674 1.1162 1.0662 1.1062 1.0962 1.0052 1.0027 1.1262 0.9848 0.8676 1.0052
3558.964 0.8776 0.8118 0.9481 0.7794 0.7706 0.9651 0.8421 0.726 0.8798 0.9961
3578.254 0.9222 0.8326 0.8946 0.9883 0.8867 0.7298 0.7919 0.7504 0.6687 0.8121
3597.544 0.8696 0.7754 0.652 0.591 0.5931 0.5158 0.5028 0.449 0.4474 0.6306
3616.833 0.6192 0.5612 0.5128 0.5883 0.7341 0.7306 0.8065 0.7988 0.6475 0.6298
3636.123 0.6366 0.6175 0.7194 0.7098 0.6239 0.5214 0.5387 0.8351 1.0177 0.9296
3655.413 0.779 0.7218 0.9361 1.0762 0.7637 0.6632 0.6984 0.6989 0.8725 0.8922
3674.703 0.7057 0.469 0.3895 0.6319 0.8973 0.7324 0.569 0.6362 0.7338 0.8707
3693.993 0.8321 0.7608 0.7536 0.7729 0.8237 0.8592 0.8943 0.7358 0.4774 0.4044
3713.282 0.6028 0.6049 0.52 0.7353 0.7425 0.5867 0.5905 0.7439 0.6919 0.5085
3732.572 0.519 0.5155 0.5841 0.6981 0.7822 0.6189 0.4543 0.6269 0.3993 0.2087
3751.862 0.5042 0.4012 0.13426 0.1879 0.4505 0.7999 0.8095 0.5936 0.4611 0.3181
3771.152 0.4654 0.5447 0.5081 0.5511 0.3547 0.2608 0.235 0.3009 0.4612 0.6334
3790.441 0.7134 0.5525 0.4241 0.4202 0.3346 0.2988 0.3633 0.3002 0.3628 0.4094
3809.731 0.3039 0.2924 0.2335 0.2791 0.3948 0.3835 0.3429 0.4181 0.5572 0.4904
3829.021 0.367 0.4622 0.2154 0 0.12365 0.3291 0.5807 0.4149 0.3648 0.6895
3848.311 0.5211 0.2886 0.5225 0.5631 0.5168 0.4467 0.4121 0.4215 0.4269 0.4639
3867.601 0.5085 0.5453 0.4288 0.346 0.3956 0.4129 0.1796 0.07683 0.2083 0.11675
3886.890 0.12336 0.2969 0.286 0.3328 0.3641 0.3604 0.4492 0.2103 0.3889 0.6913
3906.180 0.7319 0.755 0.5375 0.5389 0.6393 0.7224 0.6451 0.5129 0.7676 0.8833
3925.470 0.6259 0.5104 0.5846 0.6254 0.4532 0.4514 0.5542 0.5671 0.6013 0.617
3944.760 0.6543 0.6045 0.6095 0.862 1.0176 0.9224 0.6417 0.4151 0.4597 0.4839
3964.049 0.484 0.535 0.5452 0.6276 0.6417 0.5314 0.4614 0.4318 0.5017 0.7219
3983.339 0.7361 0.8113 0.8526 0.6501 0.6804 0.7747 0.7934 0.9041 0.9021 0.645
##END=
