##TITLE=3-Allyl-4-hydroxyacetophenone
##JCAMP-DX=4.24
##DATA TYPE=INFRARED SPECTRUM
##ORIGIN=EPA-IR VAPOR PHASE LIBRARY
##OWNER=SRD/NIST
Collection (C) 2018 copyright by the U.S. Secretary of Commerce
on behalf of the United States of America. All rights reserved.
##CAS REGISTRY NO=1132-05-4
##MOLFORM=C 11 H 12 O 2
##$NIST SOURCE=MSDC-IR
##STATE=gas
##XUNITS=1/CM
##YUNITS=ABSORBANCE
##XFACTOR=1.
##YFACTOR=0.001
##DELTAX=1.92898
##FIRSTX=549.8
##LASTX=4000.7
##FIRSTY=12.506
##MAXX=4000.7
##MINX=549.759
##MAXY=0.190676
##MINY=0
##NPOINTS=1790
##XYDATA=(X++(Y..Y))
549.759 12.506 13.496 14.396 13.796 13.736 14.506 15.086 16.576 17.556 18.246
569.049 19.846 21.376 21.456 21.816 22.626 22.876 24.286 24.946 25.246 25.466
588.339 24.776 22.956 20.886 20.116 19.346 17.516 15.836 14.786 13.786 12.936
607.628 12.536 12.316 12.476 12.686 12.356 11.486 10.736 9.696 9.506 9.576
626.918 8.646 7.616 7.136 6.676 5.936 6.356 6.606 6.216 6.196 6.456
646.208 6.926 7.266 7.986 8.386 8.646 9.346 9.506 9.076 8.366 8.056
665.498 7.036 6.076 5.996 5.516 4.976 4.336 4.166 4.476 4.526 4.366
684.787 4.026 4.286 4.316 4.346 4.736 3.736 3.006 3.446 3.606 3.156
704.077 3.126 3.426 3.606 3.546 3.096 3.056 3.436 3.736 3.376 2.946
723.367 2.926 3.126 3.516 3.736 4.316 4.766 4.896 4.956 4.626 3.686
742.657 3.406 4.096 3.866 3.326 3.256 4.016 4.286 4.026 4.356 4.206
761.947 4.316 5.346 6.076 6.486 7.106 8.076 8.056 8.226 9.456 8.896
781.236 8.096 8.426 8.276 7.986 7.956 8.276 9.216 9.936 10.586 11.796
800.526 13.006 14.416 16.116 17.476 18.416 19.666 20.586 21.956 23.126 23.326
819.816 23.126 22.646 22.026 20.586 18.826 17.116 16.346 15.726 14.836 13.436
839.106 11.876 10.776 9.556 8.586 7.826 6.826 6.376 6.226 5.906 5.916
858.395 5.946 6.286 6.616 7.236 7.716 8.026 9.076 9.716 10.526 11.506
877.685 11.936 11.806 11.006 10.916 11.386 11.756 11.886 11.846 12.196 12.606
896.975 13.516 15.136 16.496 18.016 19.986 21.826 24.286 26.166 28.016 30.166
916.265 31.706 32.866 32.756 31.956 30.766 29.606 28.116 25.666 23.776 22.236
935.555 20.396 19.256 18.626 18.186 17.796 18.086 18.936 19.346 19.466 19.666
954.844 19.896 19.816 20.036 19.716 18.786 17.656 16.686 16.436 15.986 15.546
974.134 15.596 16.236 16.276 15.986 16.286 16.826 17.436 18.226 18.806 18.686
993.424 18.936 18.826 18.266 17.266 15.566 14.636 13.816 11.846 10.816 10.146
1012.714 9.106 8.646 8.236 7.676 7.826 7.886 7.536 7.866 7.886 7.436
1032.003 7.696 7.746 7.306 7.636 7.416 6.556 6.176 6.926 8.346 8.326
1051.293 7.266 6.866 7.106 8.036 8.636 9.516 10.586 11.096 12.076 12.586
1070.583 11.976 12.636 13.996 14.666 14.666 13.976 13.846 14.876 16.696 18.646
1089.873 20.466 22.956 26.236 29.266 32.726 36.356 39.026 41.686 43.956 44.986
1109.163 45.736 45.676 44.366 42.196 38.756 35.986 34.356 31.496 28.596 27.046
1128.452 24.986 21.926 20.476 19.576 17.436 16.426 16.456 17.516 18.946 19.156
1147.742 20.646 22.546 23.776 26.006 27.136 28.116 30.086 30.466 30.636 31.166
1167.032 32.466 33.726 34.266 36.066 39.006 43.486 49.496 56.406 64.866 73.836
1186.322 82.856 93.516 103.166 110.306 113.456 114.686 114.996 112.516 108.416 101.296
1205.611 92.706 83.726 74.696 65.676 57.496 52.186 46.206 40.186 37.316 35.806
1224.901 34.146 32.926 31.696 31.496 32.546 34.496 37.696 41.096 45.366 49.776
1244.191 55.076 62.366 70.256 78.866 89.166 101.336 115.716 131.106 146.536 162.086
1263.481 174.256 183.816 190.286 190.676 186.106 176.016 162.706 147.266 130.086 113.886
1282.771 99.176 86.316 75.616 66.866 59.736 53.826 48.586 43.916 39.626 35.226
1302.060 31.306 28.286 25.746 23.576 22.226 21.586 21.386 21.586 22.436 23.546
1321.350 24.466 25.196 25.696 25.866 25.646 25.236 24.546 23.776 23.116 22.826
1340.640 23.116 24.196 26.196 29.076 33.156 38.476 44.166 49.836 54.506 57.086
1359.930 57.566 55.996 52.516 46.956 40.126 33.396 27.516 22.746 19.056 16.536
1379.219 14.816 13.386 12.446 11.876 11.666 11.746 11.886 12.336 13.026 13.886
1398.509 14.776 15.836 17.326 18.876 20.496 22.656 24.676 26.476 28.306 29.836
1417.799 30.646 30.826 30.616 29.986 28.966 27.496 26.076 24.686 23.156 22.046
1437.089 21.166 20.426 19.756 18.796 17.596 16.416 15.126 13.746 12.696 11.686
1456.378 10.676 9.986 9.676 9.396 9.186 9.106 9.056 9.256 9.646 10.376
1475.668 11.226 12.306 13.786 15.736 18.506 22.336 26.746 31.406 36.276 40.416
1494.958 43.706 45.826 45.876 44.276 41.036 36.366 30.926 25.716 20.966 16.956
1514.248 14.006 11.606 9.836 8.976 8.556 8.246 8.026 8.006 7.846 7.646
1533.538 7.516 7.486 7.606 7.726 7.966 8.256 8.336 8.636 8.986 9.176
1552.827 9.686 10.506 11.256 12.136 13.596 15.006 16.486 18.806 21.276 24.156
1572.117 27.986 31.706 35.706 39.896 44.176 47.966 51.246 53.926 55.716 56.986
1591.407 57.626 58.026 58.486 59.046 59.486 59.736 60.086 59.686 57.916 55.316
1610.697 51.576 47.046 42.276 36.936 31.856 27.796 24.686 22.686 21.746 21.446
1629.986 21.636 22.146 22.676 23.126 23.186 22.526 21.546 20.666 19.496 17.996
1649.276 16.926 16.306 15.956 15.866 16.136 16.356 16.256 16.186 16.036 16.136
1668.566 16.616 16.776 17.446 18.766 21.056 23.806 27.886 33.476 42.056 54.296
1687.856 69.396 89.126 112.706 135.216 153.896 165.786 169.126 167.996 160.166 142.246
1707.146 116.236 88.116 63.706 45.996 33.796 25.456 19.656 15.926 13.746 12.136
1726.435 10.986 10.706 10.606 10.496 10.946 11.146 11.326 11.546 11.556 11.496
1745.725 11.146 10.376 9.616 8.916 8.276 7.616 6.686 6.046 5.656 5.476
1765.015 5.016 4.436 4.416 4.156 3.886 3.816 3.636 3.476 3.326 3.186
1784.305 3.016 2.996 2.976 2.836 2.966 3.046 2.996 2.946 2.876 2.946
1803.594 2.876 2.736 2.836 2.876 2.776 2.766 2.976 3.206 3.176 3.346
1822.884 3.586 3.596 3.716 3.826 3.986 4.286 4.516 4.576 4.576 4.656
1842.174 4.846 4.856 4.806 4.676 4.686 4.776 4.556 4.216 4.046 3.836
1861.464 3.576 3.466 3.296 3.176 3.096 3.046 2.896 2.756 2.836 2.876
1880.754 2.756 2.746 2.836 2.756 2.616 2.576 2.576 2.536 2.486 2.376
1900.043 2.356 2.446 2.326 2.376 2.586 2.586 2.486 2.306 2.266 2.286
1919.333 2.436 2.356 2.316 2.506 2.486 2.316 2.266 2.266 2.126 2.216
1938.623 2.326 2.296 2.316 2.296 2.246 2.266 2.216 2.246 2.346 2.236
1957.913 2.076 2.056 2.036 1.966 1.906 1.746 1.786 1.966 1.916 1.936
1977.202 2.086 2.056 2.096 2.086 1.996 1.976 1.916 1.826 1.7052 1.756
1996.492 1.6616 1.4791 1.5318 1.5218 1.4766 1.619 1.5516 1.386 1.4316 1.5105
2015.782 1.6473 1.61 1.4318 1.5627 1.746 1.716 1.776 1.846 1.866 1.866
2035.072 1.796 1.916 2.016 1.926 2.026 1.926 1.776 1.916 2.036 2.036
2054.362 1.886 1.6649 1.6167 1.4004 1.1922 1.3193 1.3154 1.306 1.4742 1.4996
2073.651 1.3739 1.3882 1.4394 1.4123 1.2141 1.2447 1.2595 1.3048 1.2709 1.0454
2092.941 1.1647 1.2639 1.3368 1.2838 1.2943 1.3951 1.3289 1.2925 1.3257 1.276
2112.231 1.2581 1.3795 1.3975 1.1665 1.1067 1.0387 0.9147 1.2818 1.3489 1.1505
2131.521 1.123 1.1062 1.4237 1.5477 1.2638 1.1014 1.1876 1.3112 1.2296 1.1355
2150.810 1.1656 1.3254 1.526 1.6141 1.5498 1.4063 1.3452 1.2066 1.1816 1.2417
2170.100 1.2874 1.3228 1.3677 1.4232 1.4353 1.746 1.716 1.3577 1.3322 1.4339
2189.390 1.546 1.5144 1.3559 1.4566 1.4086 1.3106 1.4935 1.5661 1.5505 1.4594
2208.680 1.3351 1.2409 1.2321 1.3441 1.3331 1.276 1.3869 1.4926 1.4586 1.4285
2227.970 1.3908 1.4182 1.3522 1.1325 1.1576 1.3615 1.5852 1.826 1.766 1.629
2247.259 1.5866 1.446 1.4385 1.5253 1.525 1.5304 1.5016 1.5973 1.746 1.5573
2266.549 1.5513 1.594 1.4469 1.5257 1.6121 1.4215 1.4299 1.5711 1.689 1.5511
2285.839 1.374 1.4821 1.4075 1.3635 1.3381 1.2005 1.2077 1.3005 1.2442 1.424
2305.129 1.4784 1.1449 1.0873 1.3776 1.4764 1.3747 1.3681 1.3929 1.5412 1.4825
2324.418 1.545 1.766 1.816 1.756 1.4531 1.3819 1.5761 1.6551 1.6006 1.706
2343.708 1.766 1.816 1.716 1.3147 1.524 1.716 1.6298 1.826 2.046 2.016
2362.998 1.776 1.6534 1.776 1.836 1.746 1.6751 1.786 1.856 1.6174 1.4421
2382.288 1.5771 1.816 1.6335 1.5989 1.856 1.836 1.5965 1.4102 1.6489 1.806
2401.578 1.746 1.6393 1.5364 1.4207 1.2397 1.432 1.6195 1.3795 1.3561 1.6573
2420.867 1.5952 1.5325 1.5733 1.5234 1.4824 1.4454 1.4231 1.4462 1.3401 1.4606
2440.157 1.5613 1.4925 1.6139 1.6612 1.726 2.036 2.006 1.6883 1.5862 1.706
2459.447 1.936 1.976 2.106 2.116 2.026 1.896 1.846 1.986 2.106 2.176
2478.737 2.106 2.116 2.296 2.216 2.136 2.346 2.286 2.166 2.386 2.356
2498.026 2.186 2.276 2.416 2.366 2.476 2.526 2.386 2.236 2.256 2.466
2517.316 2.506 2.246 2.026 2.146 2.096 2.006 2.066 2.216 2.216 2.056
2536.606 2.096 2.016 1.6734 1.816 1.756 1.6513 1.699 1.5381 1.6715 1.736
2555.896 1.836 1.946 1.816 1.5448 1.6642 2.016 1.936 1.5532 1.5382 1.6087
2575.186 1.756 1.786 1.6865 1.706 1.6886 1.6179 1.545 1.736 1.5627 1.2677
2594.475 1.264 1.2564 1.3727 1.5217 1.716 1.716 1.836 2.056 1.816 1.726
2613.765 1.846 1.956 1.946 1.776 1.736 1.766 1.726 1.5085 1.3763 1.5838
2633.055 1.886 1.826 1.4089 1.443 1.6632 1.816 1.756 1.3803 1.5885 2.076
2652.345 2.296 2.336 2.046 1.836 1.766 1.706 1.776 1.716 1.716 1.547
2671.634 1.5653 1.6711 1.477 1.4304 1.3899 1.4446 1.5993 1.726 1.6868 1.5559
2690.924 1.604 1.2583 1.0951 1.462 1.5421 1.786 1.906 1.5592 1.3347 1.3372
2710.214 1.5247 1.65 1.4403 1.3225 1.336 1.1376 1.026 1.3929 1.2643 0.9574
2729.504 1.1187 1.2656 1.4719 1.3443 1.288 1.679 1.6419 1.581 1.6257 1.356
2748.794 1.3659 1.4079 1.4995 1.5682 1.2839 1.1724 1.2945 1.2427 1.1925 1.349
2768.083 1.1765 0.9037 1.0492 1.3665 1.3729 1.1352 1.1298 1.365 1.5215 1.2801
2787.373 1.2305 1.4525 1.3925 1.4639 1.866 1.736 1.5149 1.5927 1.686 1.4138
2806.663 1.084 1.4517 1.746 1.916 1.836 2.086 2.636 2.736 2.526 2.516
2825.953 2.606 2.636 3.126 3.816 4.266 4.406 4.446 4.596 4.876 5.476
2845.242 5.876 5.916 6.076 6.276 6.296 6.286 6.416 6.246 5.766 5.616
2864.532 5.696 5.626 5.556 5.526 5.376 5.306 5.336 5.206 5.376 5.506
2883.822 5.606 5.956 6.326 6.376 6.336 6.776 7.396 7.836 8.016 8.276
2903.112 8.756 9.426 10.166 10.936 11.296 11.406 11.576 11.666 12.476 13.066
2922.401 12.766 12.846 13.036 12.596 12.306 12.286 11.686 11.226 10.906 10.096
2941.691 9.166 8.606 8.406 7.966 7.806 7.686 7.266 6.926 7.006 7.236
2960.981 7.226 7.326 7.336 7.796 8.736 9.416 9.606 9.796 10.766 11.446
2980.271 11.806 12.006 12.066 12.436 12.386 12.626 12.706 12.126 11.836 11.716
2999.561 11.916 12.356 12.956 14.016 14.986 15.686 16.656 17.486 17.896 18.076
3018.850 17.476 16.336 15.416 14.456 13.386 12.656 12.126 11.786 11.736 11.346
3038.140 10.896 10.556 10.236 10.006 9.686 10.276 10.796 10.976 11.556 12.096
3057.430 12.216 12.456 13.076 13.386 13.496 13.376 13.586 13.496 13.726 14.446
3076.720 14.566 15.126 15.986 16.336 17.086 18.106 18.586 18.246 16.666 14.826
3096.009 13.486 11.996 10.386 8.976 7.636 6.656 6.146 5.726 5.466 4.926
3115.299 4.426 4.476 3.946 3.716 3.776 3.036 2.566 2.656 2.486 2.386
3134.589 2.306 1.876 1.996 1.936 1.3819 1.3975 1.6696 1.5948 1.2337 1.0303
3153.879 1.0411 1.0733 1.4276 1.716 1.601 1.5789 1.3696 1.6991 1.856 1.4833
3173.169 1.6528 2.166 1.826 1.5532 1.746 1.5609 1.678 1.926 2.106 2.316
3192.458 2.046 1.886 2.456 2.176 1.5483 1.3478 0.9994 1.1651 1.3792 1.1465
3211.748 1.2226 1.497 1.5837 1.736 1.5259 1.1373 1.1069 1.0516 1.0414 0.9542
3231.038 0.706065 0.9793 1.4122 1.2277 1.0942 0.9465 0.599 0.507 0.77118 1.2469
3250.328 1.1405 1.0674 1.2754 1.2283 1.0381 0.73171 0.76767 0.66 0.368 0.6868
3269.617 0.9684 1.0582 1.1411 0.76424 0.708868 1.0197 1.171 1.3974 1.4965 1.6119
3288.907 0.9836 0.507 1.0841 1.1202 1.2954 1.3316 1.2056 1.0841 1.098 1.3566
3308.197 1.102 1.1378 1.3847 1.6511 1.916 1.876 1.4019 1.0627 1.0385 0.899
3327.487 1.0472 1.026 1.27 1.6326 1.786 1.846 1.5233 1.4648 1.6827 1.826
3346.777 1.886 2.056 2.136 2.116 1.926 1.6241 1.5491 2.076 2.116 2.116
3366.066 2.876 2.916 3.356 3.886 3.656 3.656 3.736 3.546 3.516 3.606
3385.356 3.576 3.396 2.976 2.696 2.666 2.446 2.636 2.376 1.5194 1.2881
3404.646 1.4791 1.5521 1.4426 1.6169 1.816 1.996 1.916 1.5516 1.4855 1.6592
3423.936 1.806 1.53 1.3973 1.5217 1.5074 1.4659 1.5937 1.5331 1.5602 1.856
3443.225 1.886 1.7043 1.936 2.096 1.5369 1.6616 1.826 1.706 1.6978 1.726
3462.515 1.4917 1.4038 1.6342 1.726 2.156 2.466 2.536 2.136 1.3678 1.4528
3481.805 2.196 2.296 1.846 1.886 1.876 1.766 1.886 2.306 2.416 2.516
3501.095 2.716 2.786 2.906 2.456 2.246 2.826 2.866 2.666 3.386 3.906
3520.385 4.066 4.286 4.296 4.386 4.416 4.676 5.296 6.086 6.666 6.826
3539.674 7.356 7.396 7.456 8.286 8.376 8.696 9.436 9.796 10.576 11.016
3558.964 11.556 12.596 13.956 15.176 15.936 17.186 18.756 20.006 20.656 21.346
3578.254 21.656 21.726 21.966 22.016 22.036 21.886 21.556 21.286 21.086 20.636
3597.544 19.866 19.306 18.766 17.646 16.656 15.706 14.736 13.436 12.436 11.976
3616.833 11.296 10.966 10.966 10.776 11.206 12.626 14.056 15.846 18.406 22.476
3636.123 27.706 33.636 39.586 44.856 47.566 46.716 44.666 42.366 38.826 32.826
3655.413 25.036 17.676 12.216 8.846 6.416 4.926 4.066 3.016 2.686 2.746
3674.703 2.376 2.016 1.826 1.5057 1.5408 1.2812 1.706 2.036 1.3837 1.2889
3693.993 1.3924 0.9184 0.6711 0.8629 0.76566 0.77575 1.2756 1.2262 0.76342 1.0456
3713.282 1.2652 1.0457 0.8687 1.3035 1.5758 1.4246 1.1253 1.1551 1.2542 1.2069
3732.572 1.4708 1.4294 1.4358 1.6082 1.3246 1.0732 0.9411 0.447 0.599 1.3376
3751.862 1.1106 0.69629 0.8969 1.0745 0.9551 1.0127 0.9762 0.76522 0.7177 1.1279
3771.152 1.4423 0.9517 0.968 1.2801 1.1517 0.7953 0.77779 1.0576 0.9521 0.9174
3790.441 1.2969 1.3324 1.0034 0.78253 0.501 0.328 0.484 1.1801 1.736 1.6452
3809.731 1.4527 1.3459 1.2577 0.8294 0.6207 0.8292 0.9948 0.709803 0.393 0.36
3829.021 0.8428 1.3446 1.3287 1.2313 0.6857 0 0.337 0.9351 0.79383 0.6279
3848.311 0.77527 1.173 1.5327 1.4445 0.8557 0.8456 1.2505 1.2471 1.0599 0.8373
3867.601 0.6563 0.516 0.9148 1.195 0.6697 0.356 0.6651 0.8289 0.714426 0.8768
3886.890 1.367 1.6755 1.3876 1.2928 1.1378 0.71653 0.632 0.9683 1.5106 1.4032
3906.180 0.78578 0.6363 0.6683 0.9372 1.1365 1.1507 1.5654 1.4314 0.9912 1.0636
3925.470 1.0827 1.1366 1.3029 1.746 1.746 1.3342 1.2031 1.1554 1.726 1.896
3944.760 1.1675 1.0941 1.3288 1.1586 1.2659 1.0492 0.6513 0.8704 1.1333 0.9661
3964.049 0.453 0.512 1.321 1.6472 0.75147 0.577 1.4275 1.2582 1.173 1.446
3983.339 1.3888 1.4337 1.531 1.404 1.4039 1.3344 0.8459 0.9275 0.73158 0.8682
##END=
