##TITLE=2,3-Difluorobenzyl bromide
##JCAMP-DX=4.24
##DATA TYPE=INFRARED SPECTRUM
##ORIGIN=EPA-IR VAPOR PHASE LIBRARY
##OWNER=SRD/NIST
Collection (C) 2018 copyright by the U.S. Secretary of Commerce
on behalf of the United States of America. All rights reserved.
##CAS REGISTRY NO=113211-94-2
##MOLFORM=C 7 H 5 Br F 2
##$NIST SOURCE=MSDC-IR
##STATE=gas
##XUNITS=1/CM
##YUNITS=ABSORBANCE
##XFACTOR=1.
##YFACTOR=0.001
##DELTAX=1.92898
##FIRSTX=549.8
##LASTX=4000.7
##FIRSTY=16.077
##MAXX=4000.7
##MINX=549.759
##MAXY=0.232347
##MINY=0
##NPOINTS=1790
##XYDATA=(X++(Y..Y))
549.759 16.077 15.587 15.847 15.107 14.327 12.777 10.707 10.067 9.047 8.057
569.049 6.897 6.217 5.097 4.307 4.447 4.147 3.507 3.337 3.817 3.777
588.339 3.667 3.847 3.447 3.137 3.307 3.437 3.587 3.617 3.207 3.277
607.628 3.267 2.817 3.417 4.007 4.547 5.947 7.167 8.277 9.137 10.327
626.918 12.277 14.327 17.087 19.927 20.777 21.507 22.267 21.817 20.907 19.077
646.208 17.147 14.567 12.207 11.297 10.187 8.557 7.997 8.317 8.207 8.207
665.498 8.517 9.357 11.017 12.917 15.027 17.247 20.327 24.227 29.187 34.597
684.787 38.487 40.727 41.967 42.357 41.027 37.667 32.597 27.327 23.057 20.187
704.077 18.877 18.867 20.367 22.827 27.127 32.217 36.747 42.037 48.157 52.847
723.367 55.137 55.827 53.027 47.527 42.187 36.217 29.927 24.207 19.147 14.977
742.657 11.997 9.877 8.707 8.307 7.767 7.867 8.237 8.347 8.907 10.177
761.947 12.017 14.177 16.737 19.767 22.707 26.227 30.167 33.417 36.577 38.877
781.236 39.937 39.417 36.797 32.767 28.497 24.517 20.707 17.407 14.747 12.437
800.526 10.257 8.957 8.377 8.377 8.987 10.057 12.597 15.397 18.267 21.667
819.816 24.807 25.957 26.427 28.097 27.047 25.087 23.217 19.847 16.847 14.367
839.106 12.377 10.617 8.887 7.967 6.817 5.837 5.657 5.607 5.877 6.477
858.395 7.127 7.477 7.667 8.047 8.637 8.477 8.217 8.727 9.147 8.597
877.685 7.887 7.007 6.287 5.737 4.917 4.487 3.967 3.447 3.117 2.357
896.975 2.287 2.497 2.037 1.9179 2.077 1.6805 1.3795 2.017 2.197 1.7924
916.265 1.6423 1.7442 1.8281 2.027 2.247 2.027 1.7749 2.097 2.437 2.187
935.555 2.087 2.327 2.477 2.597 2.737 2.537 2.857 3.547 3.407 3.537
954.844 4.817 5.827 5.947 6.457 6.857 7.237 8.257 9.167 10.137 11.587
974.134 13.527 16.287 19.757 23.247 26.907 31.117 35.387 39.177 42.157 43.517
993.424 43.817 43.327 41.297 37.497 32.677 26.827 21.057 16.707 13.557 11.487
1012.714 10.087 9.117 8.207 8.037 8.007 7.547 7.537 6.867 6.077 5.607
1032.003 5.247 5.057 5.627 6.927 7.347 7.787 7.977 8.367 9.497 11.307
1051.293 13.417 14.267 15.747 16.657 16.707 17.317 17.017 16.437 15.367 13.467
1070.583 11.027 9.607 8.667 7.077 6.127 5.907 5.657 6.157 6.057 5.007
1089.873 5.307 5.067 6.157 5.997 4.367 4.257 3.057 2.317 2.957 3.417
1109.163 3.247 3.457 3.427 3.787 5.027 4.227 3.427 4.047 4.387 6.267
1128.452 7.027 6.387 6.347 6.317 7.577 7.597 6.117 5.637 5.537 5.197
1147.742 5.167 5.557 5.367 5.637 6.847 7.977 8.227 7.737 7.877 8.047
1167.032 7.527 6.697 6.107 6.117 6.397 6.077 5.387 5.787 6.897 7.307
1186.322 7.247 8.627 10.467 12.057 14.257 16.697 18.457 21.787 24.337 25.907
1205.611 28.037 28.887 29.817 31.237 32.397 32.397 33.017 33.527 36.857 43.387
1224.901 52.287 62.387 73.777 85.787 93.887 97.737 99.467 98.587 94.387 85.697
1244.191 74.097 62.417 52.447 45.347 40.347 37.667 36.157 35.527 36.307 37.427
1263.481 38.937 40.717 43.017 46.797 51.767 57.877 65.967 75.447 85.457 95.827
1282.771 105.177 112.617 117.387 118.937 117.617 112.347 102.437 89.637 76.087 64.197
1302.060 54.567 46.287 38.817 31.857 25.727 20.987 17.577 15.197 13.627 12.217
1321.350 11.127 10.497 9.987 9.587 9.237 8.797 8.397 8.087 7.617 7.147
1340.640 6.707 6.017 5.437 5.127 4.737 4.427 4.137 3.757 3.467 3.477
1359.930 3.457 3.247 3.137 3.177 3.167 3.017 3.067 3.017 2.887 2.837
1379.219 2.757 2.597 2.487 2.487 2.357 2.337 2.427 2.317 2.177 2.317
1398.509 2.467 2.577 2.707 2.797 2.797 2.837 2.837 2.877 3.127 3.367
1417.799 3.627 3.897 4.107 4.387 4.657 5.107 5.757 6.447 7.277 8.137
1437.089 9.167 10.007 10.857 11.957 13.117 14.067 14.987 16.117 17.467 19.217
1456.378 21.597 24.667 28.197 32.417 37.697 44.297 52.217 61.457 71.727 83.337
1475.668 95.907 110.677 127.567 146.657 167.027 187.067 204.837 218.997 228.417 232.347
1494.958 229.417 219.747 204.477 185.427 163.487 140.047 115.757 94.227 77.127 62.907
1514.248 52.067 43.627 36.667 31.037 26.197 22.437 19.427 17.027 15.177 13.827
1533.538 12.887 12.307 11.767 11.397 11.537 11.387 11.147 11.217 10.987 10.807
1552.827 10.857 10.557 10.357 10.227 9.907 9.857 9.557 9.487 9.637 9.617
1572.117 10.057 10.597 11.247 11.767 12.617 14.057 15.617 17.687 20.277 23.067
1591.407 25.587 27.577 28.847 29.087 28.677 27.717 26.037 24.177 22.117 19.887
1610.697 18.417 18.157 18.927 20.567 22.357 23.967 25.087 25.397 25.127 24.207
1629.986 22.637 20.207 17.217 13.707 10.487 8.057 6.287 4.987 4.197 3.787
1649.276 3.197 2.837 2.777 2.667 2.567 2.707 3.167 3.217 3.217 3.527
1668.566 3.477 3.577 3.637 3.437 3.377 3.177 2.907 2.617 2.167 1.8629
1687.856 1.9354 1.9617 1.6446 1.3867 1.4799 1.6512 1.5829 1.3442 1.3034 1.6971
1707.146 1.8444 1.7088 1.6735 1.5998 1.6875 1.8062 1.7626 1.8065 1.6727 1.5524
1726.435 1.7628 1.8215 1.6775 1.6937 1.7443 1.738 1.6641 1.7015 1.741 1.633
1745.725 1.7527 1.9594 1.935 1.8425 1.8959 2.097 2.207 2.307 2.447 2.657
1765.015 2.867 3.057 3.207 3.207 3.187 3.077 3.047 3.037 2.897 2.547
1784.305 2.367 2.257 2.067 1.9481 1.9384 1.8625 1.612 1.5179 1.6777 1.6161
1803.594 1.5083 1.5484 1.537 1.6566 1.703 1.6153 1.5185 1.481 1.5877 1.6646
1822.884 1.8319 2.037 2.097 2.267 2.357 2.687 3.107 3.337 3.647 3.967
1842.174 4.307 4.427 4.327 4.217 3.857 3.377 2.817 2.367 2.187 2.067
1861.464 1.987 1.8155 1.7076 1.6638 1.6628 1.5645 1.4149 1.5439 1.507 1.3005
1880.754 1.3619 1.5597 1.5264 1.5053 1.6172 1.5828 1.6312 1.776 1.9234 2.197
1900.043 2.487 2.627 2.717 2.927 3.327 3.667 3.897 3.937 3.917 3.897
1919.333 3.747 3.727 3.497 3.167 2.807 2.317 2.117 2.087 1.8346 1.7249
1938.623 1.7878 1.7399 1.8556 1.8003 1.6825 1.7458 1.8436 1.9622 2.097 2.147
1957.913 2.187 2.207 2.067 2.027 2.147 2.237 2.287 2.427 2.497 2.457
1977.202 2.517 2.487 2.437 2.327 2.027 1.9382 2.007 1.8764 1.8079 1.6716
1996.492 1.5688 1.6613 1.7628 1.8092 1.7755 1.7383 1.6892 1.7188 1.6556 1.5579
2015.782 1.3386 1.2593 1.3736 1.4567 1.5433 1.4774 1.472 1.5505 1.4948 1.4517
2035.072 1.4974 1.4386 1.4272 1.5048 1.4981 1.5036 1.4864 1.5426 1.5484 1.53
2054.362 1.5312 1.545 1.6686 1.7149 1.5887 1.4894 1.4511 1.4424 1.4173 1.4348
2073.651 1.4713 1.4653 1.5066 1.4672 1.3714 1.3554 1.3108 1.2504 1.2488 1.1396
2092.941 1.1571 1.2973 1.3504 1.4258 1.5271 1.551 1.5422 1.4048 1.3343 1.4796
2112.231 1.5987 1.5803 1.401 1.365 1.5309 1.4123 1.3672 1.5337 1.4954 1.322
2131.521 1.2323 1.2783 1.1717 1.0979 1.2239 1.3455 1.3892 1.4383 1.3708 1.2574
2150.810 1.2967 1.3934 1.5839 1.7238 1.7004 1.6853 1.6716 1.6584 1.6579 1.8664
2170.100 2.097 2.077 2.067 2.217 2.317 2.387 2.387 2.427 2.377 2.267
2189.390 2.277 2.137 1.937 1.6984 1.529 1.4993 1.4743 1.4696 1.4663 1.4303
2208.680 1.4298 1.3797 1.4111 1.4467 1.3328 1.286 1.4305 1.5033 1.4147 1.207
2227.970 1.329 1.593 1.4953 1.4957 1.6966 1.6511 1.6244 1.7072 1.4181 1.4312
2247.259 1.635 1.5596 1.7612 1.9532 1.7075 1.6379 1.675 1.8009 1.8259 1.6639
2266.549 1.8535 2.087 2.147 2.007 1.8306 1.7108 1.8028 1.8624 1.8849 1.9107
2285.839 1.8476 1.87 1.9661 1.977 1.8552 1.8526 1.977 2.027 2.097 2.137
2305.129 1.9256 2.017 2.347 2.427 2.297 2.257 2.257 2.117 2.047 2.167
2324.418 2.257 2.247 2.257 2.217 2.057 1.8701 1.7356 1.6212 1.4096 1.3117
2343.708 1.4409 1.5041 1.2951 1.3537 1.3423 1.2405 1.385 1.4225 1.4324 1.5409
2362.998 1.6128 1.4663 1.4006 1.41 1.4181 1.3586 1.4162 1.4018 1.181 1.2708
2382.288 1.5232 1.463 1.229 1.2208 1.3012 1.4445 1.4833 1.5636 1.7544 1.6028
2401.578 1.6978 1.8068 1.599 1.8287 2.017 1.7876 1.8068 1.987 1.9362 1.9291
2420.867 1.9646 2.087 2.107 2.037 2.147 2.307 2.137 2.017 2.147 2.257
2440.157 2.527 2.517 2.377 2.447 2.417 2.397 2.387 2.167 2.137 2.257
2459.447 2.097 2.007 2.197 2.357 2.327 2.147 2.087 1.8592 1.5998 1.6863
2478.737 1.7253 1.7412 1.677 1.7579 2.037 1.9459 1.8355 1.9127 1.9651 1.9471
2498.026 1.997 1.987 1.8363 1.9294 1.967 1.8374 1.8643 1.9183 1.8752 1.8798
2517.316 1.967 1.7691 1.6155 1.7617 1.6659 1.6679 1.7793 1.8769 1.8863 1.699
2536.606 1.6804 1.6439 1.7245 1.6635 1.5892 1.6706 1.7548 1.9012 1.8927 1.9602
2555.896 1.9176 1.8838 2.057 1.997 1.8557 1.9007 1.9124 1.9268 1.7488 1.8431
2575.186 2.277 2.417 2.497 2.727 2.557 2.327 2.327 2.317 2.487 2.567
2594.475 2.487 2.307 2.357 2.287 1.997 2.097 2.177 2.107 2.127 1.997
2613.765 1.8215 1.7924 1.7778 1.7876 1.7947 1.572 1.411 1.4143 1.6324 1.7973
2633.055 1.6024 1.4378 1.4916 1.4531 1.2694 1.5296 1.5091 1.162 1.3718 1.3563
2652.345 1.3407 1.3963 1.3906 1.6251 1.596 1.3314 1.2953 1.2729 1.291 1.4037
2671.634 1.7044 1.6526 1.2654 1.322 1.3214 1.2449 1.1645 1.2383 1.5664 1.7337
2690.924 1.7118 1.7338 1.5901 1.2911 1.2234 1.4927 1.5084 1.257 1.2208 1.2943
2710.214 1.2664 1.2939 1.494 1.5121 1.3672 1.4123 1.627 1.5856 1.5641 1.6727
2729.504 1.6088 1.3058 1.2173 1.4696 1.5499 1.5206 1.4171 1.2774 1.2753 1.476
2748.794 1.5325 1.4282 1.5958 1.5616 1.5535 1.4397 1.2503 1.3132 1.1609 1.2274
2768.083 1.5223 1.5428 1.6123 1.4851 1.3304 1.4813 1.5257 1.4684 1.3572 1.1663
2787.373 1.1507 1.4051 1.4299 1.3653 1.2139 1.2025 1.4245 1.4189 1.3063 1.03276
2806.663 0.9155 1.02276 0.9403 0.9186 0.8826 0.674 0.658 0.72 1.03997 1.2894
2825.953 1.3853 1.4554 1.02667 0.95971 1.2085 1.1948 0.99407 1.1833 1.3482 1.3287
2845.242 1.5809 1.6555 1.632 1.6406 1.6592 1.6311 1.7691 1.7774 1.6658 1.6036
2864.532 1.5338 1.8493 1.8542 1.7244 1.7617 1.7863 1.9327 1.7637 1.8981 2.107
2883.822 1.963 1.7266 1.4842 1.5412 1.4983 1.4229 1.2885 1.06069 1.1751 1.3517
2903.112 1.0922 0.83 0.9015 0.809 0.95972 1.509 1.4929 1.2768 1.7623 1.905
2922.401 1.6186 1.7629 1.7464 1.3397 1.3669 1.5274 1.2945 1.2304 1.3444 1.2704
2941.691 1.1945 1.457 1.7279 1.8267 1.8157 2.247 2.647 2.567 2.607 2.517
2960.981 2.517 2.557 2.697 2.997 3.347 3.617 3.677 4.187 4.947 5.617
2980.271 6.237 6.667 7.357 7.917 8.097 8.157 7.987 7.467 6.777 6.097
2999.561 5.727 5.187 4.377 4.007 3.547 3.157 3.217 3.047 2.767 2.407
3018.850 2.147 2.157 2.157 2.217 2.447 2.667 2.857 3.277 3.747 4.117
3038.140 4.467 4.557 4.937 5.487 5.847 6.467 7.007 7.307 7.457 7.527
3057.430 7.737 8.197 8.777 9.117 9.467 10.057 10.157 9.877 9.577 9.517
3076.720 9.137 8.417 8.167 7.597 6.847 6.717 6.407 5.797 5.247 4.537
3096.009 4.107 4.157 3.957 3.557 3.417 3.627 3.637 3.247 2.787 2.857
3115.299 2.797 2.597 2.347 2.017 2.217 2.197 1.8311 1.3917 1.1647 1.1324
3134.589 1.3475 1.3648 1.1202 1.1475 1.3952 1.3489 1.0797 1.1593 1.1464 0.834
3153.879 0.776 1.02481 1.2531 0.95897 0.8746 0.845 0.804 0.9498 0.8729 1.02428
3173.169 0.749 0.719 1.1008 0.884 0.811 0.551 0.8 1.1579 0.8968 0.972912
3192.458 0.9488 1.3475 1.4676 1.0859 1.0952 1.1258 1.2128 1.5024 1.2331 0.772
3211.748 0.9389 1.0726 1.2726 1.2303 1.3537 1.6699 1.2648 0.815 0.648 0.661
3231.038 0.771 0.789 1.03872 1.2869 1.00926 0.849 0.9206 1.0996 1.1218 0.97849
3250.328 1.1318 1.1334 0.862 0.708 0.562 0.8711 1.1953 0.9169 1.0988 1.06556
3269.617 0.782 0.8682 0.727 0.819 0.9083 0.98799 1.1301 0.99887 1.0899 1.337
3288.907 0.8935 0.721 1.1872 1.03058 0.859 0.9232 0.96324 0.79 0.79 1.1758
3308.197 1.2871 0.523 0 0.708 1.3396 1.5112 1.1214 0.96559 1.4706 1.146
3327.487 0.647 0.626 0.704 0.659 0.329 0.701 1.02216 1.03608 1.132 0.674
3346.777 0.422 0.616 1.1649 1.1534 1.00161 1.0973 0.623 1.1395 1.1434 0.583
3366.066 0.789 1.1485 1.2343 0.823 0.607 0.78 0.756 0.707 1.05223 0.8689
3385.356 0.641 0.66 0.595 0.9221 0.842 0.623 0.612 0.646 0.729 0.637
3404.646 0.637 0.493 0.463 0.673 0.9563 0.955 0.969448 1.1749 0.972433 0.78
3423.936 0.761 0.9245 1.1822 1.2213 1.1766 1.2095 1.2946 1.1794 0.865 0.9195
3443.225 0.96385 0.531 0.512 0.785 1.1085 1.3482 1.0814 0.9376 0.9087 0.498
3462.515 0.598 0.552 0.36 0.671 0.822 0.677 0.539 0.663 0.8946 0.889
3481.805 0.862 0.95705 0.688 0.664 1.01356 1.04699 0.8947 1.05545 1.2836 1.2579
3501.095 1.2176 1.06208 0.578 0.356 0.53 0.663 0.9279 1.078 0.753 0.746
3520.385 0.8842 0.678 0.8917 1.02991 0.852 0.733 0.745 0.9402 1.03026 0.8852
3539.674 0.744 0.771 0.656 0.69 1.04282 0.9366 0.709 1.1016 0.858 0.359
3558.964 0.548 0.773 1.2461 1.3269 0.9538 0.92 1.1352 1.2825 1.06095 0.9032
3578.254 0.801 0.822 1.0716 1.3671 1.3484 1.2975 1.1535 0.859 0.639 0.44
3597.544 0.645 0.99196 1.00813 0.697 0.794 0.9222 0.834 0.9525 1.0828 0.96375
3616.833 0.98022 0.972284 0.845 0.835 0.8935 1.1833 1.7224 1.83 1.4993 1.3218
3636.123 1.4312 1.2243 0.8879 1.0348 1.1164 1.3501 1.356 1.05125 0.9202 0.857
3655.413 0.83 0.9355 1.02315 1.1851 1.1041 0.98297 0.96432 0.779 0.96423 1.3443
3674.703 1.3134 1.3125 1.2996 0.676 0.556 0.9544 1.2634 1.387 1.069 1.1901
3693.993 1.4123 1.226 1.3729 1.6463 1.5766 0.9624 0.783 0.9207 0.863 1.1483
3713.282 1.0836 1.2935 1.4412 1.0746 1.2044 1.5764 1.3998 1.00478 1.1216 1.0804
3732.572 1.1216 1.3202 1.1366 0.692 0.932 1.3052 1.05758 1.2077 1.1576 1.0817
3751.862 0.99316 0.858 1.371 1.4904 1.5544 1.5686 1.383 1.5002 1.552 1.3853
3771.152 1.0811 0.9969 0.96015 0.743 0.771 1.2157 1.6095 1.5888 1.1237 1.1748
3790.441 1.1559 0.805 0.422 0.571 1.2844 1.8163 1.6587 1.4711 1.501 0.98823
3809.731 0.68 0.691 0.863 0.864 1.00646 1.1768 1.1758 0.9393 0.9049 1.1374
3829.021 0.9222 0.9491 1.3596 1.3902 1.2036 1.3866 1.3041 1.1385 1.2207 1.2063
3848.311 0.9561 1.2768 1.4834 0.816 1.1787 1.9269 1.7845 1.6501 1.4067 0.9363
3867.601 1.2302 1.6738 1.7683 1.2428 1.3086 1.774 1.6665 1.5786 1.1269 1.00148
3886.890 1.6183 1.4748 1.1627 1.3358 1.2638 1.2672 1.5513 1.6243 1.2114 1.1886
3906.180 1.7532 1.7814 1.4947 1.4678 1.3532 1.656 1.7228 1.04288 1.3309 1.66
3925.470 1.01875 1.05127 1.1532 1.1895 1.6213 1.5784 1.4182 1.04324 0.695 0.583
3944.760 0.491 0.798 0.795 0.595 0.726 0.95 1.0952 1.01811 0.8762 1.2215
3964.049 1.1511 0.8969 1.1257 0.867 0.814 0.9465 0.836 1.0993 1.1885 0.863
3983.339 0.655 0.812 0.914 0.56 0.083 0.514 1.1086 1.0987 0.970379 0.695
##END=
