##TITLE=2-Bromofluorene
##JCAMP-DX=4.24
##DATA TYPE=INFRARED SPECTRUM
##ORIGIN=EPA-IR VAPOR PHASE LIBRARY
##OWNER=SRD/NIST
Collection (C) 2018 copyright by the U.S. Secretary of Commerce
on behalf of the United States of America. All rights reserved.
##CAS REGISTRY NO=1133-80-8
##MOLFORM=C 13 H 9 Br
##$NIST SOURCE=MSDC-IR
##STATE=gas
##XUNITS=1/CM
##YUNITS=ABSORBANCE
##XFACTOR=1.
##YFACTOR=0.001
##DELTAX=1.92898
##FIRSTX=549.8
##LASTX=4000.7
##FIRSTY=0.6973
##MAXX=4000.7
##MINX=549.759
##MAXY=0.047987
##MINY=0
##NPOINTS=1790
##XYDATA=(X++(Y..Y))
549.759 0.6973 0.8917 1.307 1.747 1.757 2.027 2.107 2.147 2.607 2.557
569.049 1.767 1.627 1.517 1.187 1.447 1.297 0.5301 0.3295 0.3867 0.5271
588.339 0.9415 0.9919 0.8171 0.6573 0.4936 0.5143 0.5497 0.3978 0.3074 0.4343
607.628 0.21397 0.25047 0.5248 0.23802 0.1222 0.6333 0.7961 0.599 1.0458 1.227
626.918 0.9606 1.123 1.557 1.707 1.647 1.587 1.487 1.1446 0.9028 0.9165
646.208 0.835 0.8825 1.0639 1.417 1.567 1.637 1.617 1.417 1.387 1.0684
665.498 0.8329 0.7192 0.5789 0.5857 0.676 0.6838 0.6754 0.7409 1.0072 1.1017
684.787 0.9988 1.0438 1.1448 1.1358 0.9961 1.1218 1.347 1.517 1.577 1.937
704.077 2.537 3.137 4.017 5.367 7.047 9.287 12.177 15.407 18.597 21.417
723.367 24.067 28.037 31.297 28.927 25.247 23.627 21.687 19.467 17.857 17.297
742.657 17.547 18.317 19.607 20.997 21.527 22.597 24.827 26.837 28.837 31.987
761.947 32.457 28.457 24.867 21.927 18.367 14.637 11.247 8.327 5.967 4.287
781.236 3.267 2.637 2.137 2.027 2.037 2.137 2.347 2.417 2.737 3.297
800.526 3.827 4.787 5.967 7.337 9.127 11.477 13.687 15.137 16.117 17.337
819.816 16.757 13.617 11.437 10.197 8.567 6.847 5.317 4.197 3.407 2.937
839.106 2.987 3.367 3.867 4.417 5.207 6.667 9.167 13.007 18.057 22.777
858.395 24.887 24.967 23.967 20.097 14.237 9.837 7.587 6.127 5.197 4.757
877.685 4.127 3.597 3.187 2.567 1.867 1.597 1.467 1.487 1.677 1.707
896.975 1.557 1.417 1.487 1.507 1.437 1.297 1.1481 0.9419 0.9293 1.0521
916.265 1.0544 1.197 1.287 1.227 1.1436 0.9659 0.9678 1.197 1.1761 1.0668
935.555 1.1381 1.337 1.717 1.907 2.057 2.267 2.587 2.857 2.947 2.997
954.844 2.577 2.207 2.137 1.977 1.797 1.597 1.427 1.457 1.747 1.937
974.134 2.007 2.047 1.607 1.287 1.487 1.587 1.457 1.307 1.527 1.847
993.424 2.127 2.807 4.277 6.707 9.527 10.907 10.807 10.327 8.597 5.497
1012.714 2.997 2.017 1.717 1.477 1.577 1.697 1.597 1.537 1.477 1.407
1032.003 1.237 1.0548 1.377 1.817 2.227 2.757 3.487 4.937 6.927 8.127
1051.293 8.647 9.377 10.077 11.307 13.347 14.977 15.837 15.807 13.747 10.127
1070.583 6.917 5.497 4.637 3.947 3.937 3.177 2.747 3.367 3.517 3.627
1089.873 3.337 3.537 3.947 3.537 3.017 2.707 2.547 2.377 2.477 2.227
1109.163 2.247 2.857 2.837 2.417 1.757 1.777 2.177 2.087 1.687 1.557
1128.452 1.737 1.917 1.857 1.357 1.1372 1.134 1.207 1.477 1.927 2.827
1147.742 4.417 6.207 7.157 7.147 7.317 7.167 6.237 5.597 5.447 5.787
1167.032 6.457 6.867 6.987 7.437 8.057 8.217 7.987 7.897 8.357 9.117
1186.322 9.687 10.147 10.087 8.937 7.337 5.467 3.607 2.687 2.137 1.597
1205.611 1.287 1.1403 0.9396 0.8816 1.457 1.847 2.387 3.017 3.017 2.847
1224.901 3.077 3.607 3.847 3.787 3.517 2.957 2.117 1.787 1.927 2.017
1244.191 2.167 2.037 1.797 2.147 2.457 2.897 3.917 4.817 5.677 6.827
1263.481 8.237 9.577 10.037 9.677 8.667 7.157 5.387 4.077 3.877 4.157
1282.771 4.537 5.037 5.427 5.447 5.077 4.417 3.667 3.067 2.887 2.857
1302.060 2.837 2.827 2.617 2.307 1.947 1.697 1.567 1.477 1.437 1.477
1321.350 1.487 1.437 1.437 1.427 1.367 1.337 1.327 1.307 1.337 1.407
1340.640 1.527 1.827 2.137 2.397 2.627 2.717 2.667 2.457 2.157 1.857
1359.930 1.687 1.657 1.627 1.587 1.577 1.647 1.777 1.947 2.027 2.157
1379.219 2.337 2.437 2.677 3.007 3.417 3.957 4.607 5.427 6.537 7.887
1398.509 9.557 11.547 13.557 15.497 17.047 18.127 18.667 18.407 17.207 15.657
1417.799 14.497 13.467 12.397 11.357 10.467 9.697 8.877 8.187 7.957 8.457
1437.089 10.197 13.707 19.647 28.277 38.177 45.747 47.987 45.897 40.007 30.157
1456.378 19.827 13.727 12.177 13.017 14.887 16.417 17.127 16.927 15.667 13.677
1475.668 11.747 10.317 9.237 8.257 7.237 6.117 5.177 4.357 3.607 2.987
1494.958 2.407 2.027 1.817 1.617 1.467 1.347 1.277 1.237 1.197 1.1336
1514.248 1.0425 0.9589 1.007 1.0578 1.0187 0.9846 1.0442 1.0044 0.8675 0.8939
1533.538 0.9714 1.0847 1.1219 1.1243 1.277 1.477 1.607 1.667 1.727 1.817
1552.827 1.857 1.997 2.167 2.287 2.687 3.237 3.727 4.217 4.797 5.477
1572.117 5.887 5.887 5.727 5.407 4.957 4.507 4.137 3.927 3.847 3.857
1591.407 3.947 4.227 4.747 5.307 5.837 6.147 6.187 5.927 5.387 4.817
1610.697 4.377 3.947 3.477 3.077 2.867 2.727 2.477 2.297 2.227 2.087
1629.986 1.937 1.867 1.847 1.827 1.817 1.797 1.747 1.677 1.617 1.587
1649.276 1.557 1.417 1.187 1.1172 1.1425 1.0926 1.0435 1.0817 1.0792 0.9791
1668.566 0.9493 1.0392 1.1423 1.1224 1.1374 1.377 1.487 1.337 1.247 1.247
1687.856 1.1491 1.0777 1.119 1.1025 1.0644 1.1317 1.1311 1.1619 1.327 1.387
1707.146 1.427 1.517 1.597 1.697 1.757 1.757 1.767 1.737 1.687 1.607
1726.435 1.507 1.487 1.447 1.357 1.177 1.1725 1.177 1.089 1.076 1.0397
1745.725 1.0168 0.991 1.0197 1.0955 1.187 1.197 1.0408 0.9415 0.953 0.9305
1765.015 0.9491 0.9829 1.0294 1.1462 1.1435 1.1497 1.257 1.397 1.447 1.507
1784.305 1.667 1.717 1.727 1.767 1.837 1.867 1.797 1.757 1.727 1.607
1803.594 1.567 1.527 1.527 1.507 1.467 1.517 1.517 1.517 1.607 1.677
1822.884 1.667 1.637 1.587 1.507 1.437 1.367 1.267 1.237 1.187 1.1032
1842.174 1.0634 1.0145 0.9934 1.0234 1.0532 1.129 1.217 1.257 1.347 1.397
1861.464 1.517 1.647 1.687 1.767 1.877 1.967 2.077 2.147 2.127 2.197
1880.754 2.247 2.227 2.267 2.287 2.287 2.287 2.167 2.007 1.877 1.727
1900.043 1.527 1.367 1.357 1.277 1.1404 1.0992 1.0988 1.1196 1.082 1.013
1919.333 1.0432 1.1341 1.1667 1.267 1.397 1.457 1.597 1.837 2.127 2.457
1938.623 2.667 2.637 2.447 2.117 1.637 1.1571 0.8542 0.7096 0.6217 0.5643
1957.913 0.5767 0.538 0.4292 0.4578 0.5158 0.4895 0.4751 0.4821 0.5208 0.5566
1977.202 0.5099 0.482 0.4932 0.4571 0.4846 0.5487 0.5413 0.519 0.517 0.4545
1996.492 0.4348 0.5254 0.5681 0.5542 0.5244 0.4458 0.3961 0.4019 0.4638 0.4968
2015.782 0.4982 0.4717 0.4624 0.448 0.3908 0.3246 0.3067 0.3542 0.3468 0.3567
2035.072 0.4079 0.4459 0.4239 0.3743 0.417 0.4506 0.3998 0.3313 0.3383 0.4291
2054.362 0.408 0.3697 0.3737 0.4139 0.4595 0.4399 0.4273 0.3921 0.3807 0.4378
2073.651 0.4365 0.4453 0.4968 0.4989 0.5004 0.4668 0.5023 0.5047 0.3934 0.398
2092.941 0.4696 0.4737 0.4676 0.5309 0.5936 0.5772 0.5131 0.5021 0.4733 0.4223
2112.231 0.4624 0.5139 0.5278 0.5356 0.5041 0.5068 0.5153 0.3906 0.3647 0.4198
2131.521 0.4351 0.4618 0.471 0.4619 0.4025 0.4058 0.437 0.4241 0.4047 0.3331
2150.810 0.2852 0.3104 0.3091 0.3562 0.4085 0.372 0.386 0.4391 0.4054 0.4071
2170.100 0.4647 0.5418 0.5232 0.4533 0.4148 0.4446 0.4947 0.4281 0.3839 0.3827
2189.390 0.4452 0.5566 0.5951 0.5281 0.5147 0.5515 0.5269 0.5353 0.5238 0.488
2208.680 0.4951 0.486 0.4904 0.5243 0.5744 0.5388 0.4431 0.4558 0.5491 0.6053
2227.970 0.5998 0.5664 0.5436 0.5551 0.5386 0.5632 0.6224 0.606 0.6121 0.657
2247.259 0.6453 0.6197 0.6679 0.6477 0.6266 0.6621 0.7092 0.7738 0.754 0.7385
2266.549 0.8199 0.8554 0.7659 0.7421 0.7955 0.7937 0.7157 0.6331 0.6472 0.6117
2285.839 0.5379 0.5844 0.6045 0.541 0.5361 0.5632 0.6286 0.6115 0.521 0.5082
2305.129 0.5707 0.6356 0.6724 0.7182 0.7117 0.6777 0.7281 0.8324 0.7526 0.6815
2324.418 0.744 0.7531 0.73 0.6993 0.7337 0.7095 0.6784 0.7497 0.6876 0.6133
2343.708 0.5818 0.6121 0.6881 0.6768 0.6966 0.6567 0.5971 0.6056 0.5902 0.5855
2362.998 0.5386 0.5171 0.5049 0.4709 0.499 0.5105 0.5 0.5078 0.5011 0.4252
2382.288 0.4308 0.4815 0.4809 0.5091 0.4633 0.4535 0.5589 0.5606 0.5302 0.5265
2401.578 0.4996 0.4798 0.4228 0.4728 0.5859 0.5772 0.5295 0.4853 0.4656 0.4455
2420.867 0.482 0.5196 0.565 0.5695 0.4839 0.4568 0.4858 0.6145 0.6158 0.5434
2440.157 0.5358 0.5599 0.5991 0.5228 0.434 0.4869 0.5332 0.5249 0.6031 0.5942
2459.447 0.5163 0.564 0.5511 0.5049 0.5664 0.6233 0.6878 0.6199 0.5687 0.6175
2478.737 0.5524 0.4748 0.4565 0.5634 0.6048 0.5553 0.5537 0.4628 0.3924 0.356
2498.026 0.434 0.5405 0.4744 0.4581 0.5631 0.5639 0.5028 0.5726 0.6266 0.577
2517.316 0.5739 0.6992 0.7679 0.7247 0.6915 0.7644 0.7945 0.7335 0.732 0.6635
2536.606 0.6471 0.6925 0.5867 0.507 0.4703 0.4522 0.4585 0.4242 0.4857 0.5259
2555.896 0.4582 0.4168 0.4937 0.5546 0.528 0.5233 0.5358 0.604 0.6781 0.6918
2575.186 0.5941 0.5924 0.6181 0.5844 0.6391 0.7269 0.6986 0.5782 0.4928 0.5626
2594.475 0.6896 0.651 0.6756 0.7053 0.726 0.8412 0.8596 0.795 0.7363 0.6797
2613.765 0.6482 0.67 0.6728 0.6531 0.7122 0.6919 0.6436 0.6934 0.633 0.608
2633.055 0.7036 0.7547 0.7911 0.7852 0.7231 0.7529 0.7803 0.6649 0.5854 0.6141
2652.345 0.6439 0.6381 0.5713 0.5625 0.6181 0.6962 0.7397 0.6795 0.7172 0.7209
2671.634 0.6799 0.6519 0.5827 0.6112 0.6856 0.6326 0.5838 0.6139 0.594 0.5686
2690.924 0.4942 0.5404 0.5065 0.3659 0.4929 0.679 0.6188 0.5452 0.5988 0.6234
2710.214 0.6124 0.5549 0.511 0.4922 0.5513 0.6513 0.5439 0.455 0.457 0.4462
2729.504 0.5244 0.5449 0.5995 0.6307 0.5881 0.6237 0.7139 0.7163 0.6799 0.5902
2748.794 0.4952 0.624 0.6285 0.5193 0.5209 0.5875 0.7218 0.7078 0.5763 0.6024
2768.083 0.6063 0.6671 0.8618 0.7655 0.6913 0.7918 0.8258 0.818 0.8583 0.9686
2787.373 1.1117 1.217 1.277 1.407 1.467 1.507 1.657 1.887 1.897 1.787
2806.663 1.897 1.817 1.747 1.797 1.627 1.387 1.267 1.1437 1.0264 0.9766
2825.953 0.9151 0.8812 0.9487 0.8474 0.7155 0.7898 0.8147 0.8655 0.8845 0.7869
2845.242 0.7688 0.6136 0.6229 0.7967 0.7314 0.6728 0.7062 0.8129 0.8778 0.8842
2864.532 0.9304 0.8368 0.7171 0.7939 0.8383 0.7952 0.7699 0.7261 0.7735 0.987
2883.822 1.1266 1.1411 1.197 1.387 1.677 2.007 2.577 3.257 3.857 4.597
2903.112 5.577 6.607 7.657 8.397 8.577 8.827 9.297 9.577 9.297 8.697
2922.401 8.007 7.437 7.357 6.677 5.317 4.577 4.027 3.327 2.767 2.177
2941.691 1.667 1.377 1.1221 1.025 0.9995 1.0047 0.976 0.9135 0.8386 0.7659
2960.981 0.6475 0.462 0.6278 0.7388 0.6388 0.6615 0.7467 0.7836 0.8269 0.8506
2980.271 0.8079 0.9012 1.0738 1.1425 1.0381 1.257 1.477 1.547 1.797 2.027
2999.561 2.327 2.677 3.087 3.447 3.827 4.377 5.007 5.547 6.197 6.917
3018.850 7.517 8.127 8.767 9.427 9.987 10.397 10.667 10.827 10.827 10.717
3038.140 10.647 10.527 10.427 10.327 10.267 10.267 10.197 10.457 11.267 12.507
3057.430 13.857 15.617 17.887 20.157 22.467 24.367 25.457 25.577 24.617 23.007
3076.720 20.957 18.907 17.157 15.467 13.887 12.457 11.127 9.777 8.677 7.747
3096.009 6.657 5.627 4.797 3.977 3.397 2.937 2.387 1.897 1.607 1.337
3115.299 1.237 1.327 1.247 1.1407 1.0687 0.9582 0.8786 0.8546 0.8485 0.845
3134.589 0.8587 0.8637 0.8481 0.9654 0.8866 0.7443 0.8305 0.9072 0.927 1.1756
3153.879 1.287 1.327 1.397 1.227 1.297 1.467 1.387 1.0571 0.9995 1.0195
3173.169 0.9538 1.0456 0.8021 0.6167 0.6734 0.6135 0.6061 0.6182 0.4894 0.4968
3192.458 0.623 0.5797 0.4531 0.4467 0.4746 0.3702 0.3385 0.3994 0.5429 0.7026
3211.748 0.664 0.5107 0.5507 0.6356 0.5079 0.4004 0.4246 0.3287 0.3413 0.4827
3231.038 0.5544 0.4999 0.424 0.3827 0.4238 0.4851 0.5322 0.4561 0.3148 0.3032
3250.328 0.3786 0.3371 0.28 0.2902 0.27424 0.1106 0.178103 0.3041 0.3113 0.4183
3269.617 0.3026 0.4291 0.5097 0.4429 0.3687 0.26304 0.3391 0.3047 0.1113 0.012
3288.907 0.19398 0.21031 0.16725 0.2618 0.3148 0.3066 0.2918 0.4589 0.4266 0.25685
3308.197 0.1029 0.1921 0.4259 0.2838 0.0795 0.1656 0.1196 0.0968 0.3319 0.507
3327.487 0.5048 0.4676 0.5122 0.5092 0.5858 0.646 0.5812 0.4848 0.3666 0.4274
3346.777 0.5905 0.6455 0.4534 0.3936 0.3714 0.3471 0.3115 0.177623 0.3386 0.4394
3366.066 0.4754 0.4256 0.2802 0.19512 0.22171 0.4006 0.4903 0.3154 0.24091 0.3616
3385.356 0.4109 0.3388 0.1182 0.0968 0.2888 0.3397 0.26593 0.3303 0.3179 0.23152
3404.646 0.26358 0.3373 0.3243 0.24888 0.2975 0.4019 0.4265 0.4182 0.3893 0.4041
3423.936 0.3736 0.314 0.3219 0.283 0.31 0.4262 0.5722 0.6189 0.5798 0.5394
3443.225 0.6514 0.6386 0.571 0.607 0.4407 0.3672 0.4713 0.5345 0.4625 0.4271
3462.515 0.4283 0.4307 0.5041 0.427 0.4417 0.5036 0.4714 0.4741 0.3835 0.26942
3481.805 0.3409 0.3613 0.3926 0.3506 0.26056 0.25191 0.3104 0.3993 0.3027 0.3393
3501.095 0.21422 0.16999 0.4656 0.3677 0.283 0.3397 0.3661 0.4732 0.4918 0.4652
3520.385 0.339 0.318 0.4746 0.487 0.3212 0.26343 0.22156 0.3294 0.4733 0.384
3539.674 0.3999 0.4182 0.4961 0.5448 0.5548 0.5344 0.34 0.2925 0.4363 0.575
3558.964 0.556 0.4936 0.4563 0.4256 0.2921 0.27282 0.4195 0.4349 0.578 0.5662
3578.254 0.4621 0.5022 0.23412 0.122 0.3275 0.4568 0.5994 0.4209 0.20536 0.3975
3597.544 0.5565 0.2809 0.025 0.1191 0.176567 0.17224 0.23063 0.4559 0.5336 0.4356
3616.833 0.4436 0.5245 0.5347 0.44 0.2792 0.24768 0.3898 0.3728 0.3794 0.4956
3636.123 0.457 0.4291 0.3937 0.3568 0.2986 0.4015 0.4469 0.3925 0.3637 0.3897
3655.413 0.5397 0.4543 0.2823 0.20875 0.3882 0.5433 0.4816 0.5679 0.5623 0.3467
3674.703 0.24705 0.3534 0.6201 0.7736 0.6941 0.4968 0.4028 0.5093 0.5784 0.5585
3693.993 0.4063 0.3123 0.3725 0.2907 0.2609 0.3891 0.5269 0.5893 0.4343 0.2806
3713.282 0.4163 0.5345 0.6323 0.7628 0.6718 0.5686 0.5177 0.2831 0.2929 0.3301
3732.572 0.25685 0.4565 0.5942 0.6398 0.4444 0.19722 0.22243 0.3709 0.24413 0
3751.862 0.0921 0.3614 0.5735 0.4868 0.4613 0.5375 0.5554 0.6785 0.5799 0.5062
3771.152 0.4786 0.4027 0.4709 0.4288 0.1642 0.1373 0.3987 0.4899 0.6775 0.7361
3790.441 0.5009 0.4594 0.393 0.395 0.4268 0.4256 0.3957 0.4034 0.5577 0.5382
3809.731 0.5044 0.4492 0.5181 0.591 0.5005 0.3286 0.3193 0.4896 0.4795 0.3514
3829.021 0.3942 0.4216 0.20579 0.1158 0.1204 0.24753 0.5111 0.6724 0.8193 0.7877
3848.311 0.5958 0.642 0.4995 0.181441 0.2923 0.4562 0.4675 0.4004 0.4753 0.5012
3867.601 0.3749 0.5165 0.5855 0.3053 0.2923 0.5149 0.508 0.6691 0.6617 0.5513
3886.890 0.6907 0.8208 0.5673 0.3497 0.4875 0.4377 0.3828 0.4338 0.5361 0.4594
3906.180 0.3674 0.2861 0.2774 0.4047 0.4645 0.614 0.7134 0.7253 0.6776 0.6902
3925.470 0.7115 0.5738 0.5706 0.8055 0.7467 0.6501 0.7052 0.6752 0.7025 0.5609
3944.760 0.5391 0.4724 0.3442 0.4346 0.4375 0.374 0.5738 0.6777 0.4687 0.3995
3964.049 0.4307 0.4134 0.27454 0.21759 0.2978 0.27398 0.3118 0.3766 0.3779 0.414
3983.339 0.3318 0.22913 0.3609 0.3666 0.19125 0.21986 0.345 0.286 0.26938 0.3557
##END=
