##TITLE=Cycloate
##JCAMP-DX=4.24
##DATA TYPE=INFRARED SPECTRUM
##ORIGIN=NIST Mass Spectrometry Data Center
##OWNER=NIST Standard Reference Data Program
Collection (C) 2018 copyright by the U.S. Secretary of Commerce
on behalf of the United States of America. All rights reserved.
##CAS REGISTRY NO=1134-23-2
##MOLFORM=C 11 H 21 N O S
##$NIST SOURCE=MSDC-IR
##SPECTROMETER/DATA SYSTEM=HP-GC/MS/IRD
##STATE=gas
##XUNITS=1/CM
##YUNITS=ABSORBANCE
##XFACTOR=1.0
##YFACTOR=0.000009400
##DELTAX=4.0
##FIRSTX=550.0
##LASTX=3846.0
##FIRSTY=0.000141
##MAXX=3846
##MINX=550
##MAXY=0.094
##MINY=0
##NPOINTS=825
##XYDATA=(X++(Y..Y))
550.0 15 16 0 20 43 45 57 63 54 35
590.0 30 28 20 20 27 28 29 31 32 22
630.0 17 26 34 48 67 98 161 255 359 440
670.0 448 397 329 291 308 353 378 343 273 215
710.0 211 278 366 410 369 268 162 94 79 71
750.0 63 70 79 77 78 88 118 157 199 265
790.0 361 461 514 494 438 387 322 245 166 125
830.0 135 178 251 354 473 593 654 620 517 420
870.0 355 302 253 236 279 369 441 440 406 379
910.0 369 388 409 386 314 251 207 170 153 159
950.0 174 198 238 305 404 518 612 615 520 388
990.0 276 222 214 219 229 259 282 290 302 334
1030.0 372 387 405 434 471 527 620 725 844 993
1070.0 1178 1374 1601 1933 2411 2867 3032 2786 2239 1639
1110.0 1188 949 841 838 988 1246 1490 1559 1381 1039
1150.0 704 508 422 399 412 449 517 622 768 918
1190.0 1056 1182 1312 1473 1676 1980 2484 3338 4558 5708
1230.0 6126 5446 4000 2622 1792 1509 1625 1937 2214 2314
1270.0 2250 2183 2206 2151 1855 1392 977 739 653 655
1310.0 710 818 958 1093 1179 1204 1224 1318 1551 1875
1350.0 2151 2251 2139 1907 1666 1498 1424 1436 1513 1617
1390.0 1737 1864 1941 1902 1744 1539 1355 1201 1059 917
1430.0 794 723 734 844 1032 1257 1407 1406 1296 1129
1470.0 958 777 593 441 337 270 226 201 180 160
1510.0 152 145 134 124 117 114 112 106 104 103
1550.0 104 103 102 108 117 125 133 144 151 160
1590.0 168 183 199 216 238 272 317 374 443 521
1630.0 615 737 929 1245 1782 2656 4126 6288 8648 10000
1670.0 9378 6947 4297 2567 1554 995 698 529 429 366
1710.0 320 281 247 221 201 184 168 156 142 129
1750.0 116 104 91 81 72 63 56 54 50 47
1790.0 43 38 37 32 33 31 27 23 22 23
1830.0 23 18 15 15 13 11 11 11 11 9
1870.0 9 12 13 12 12 13 12 13 11 11
1910.0 14 15 14 13 12 13 12 10 10 10
1950.0 8 8 10 10 8 7 6 6 5 7
1990.0 7 6 9 12 10 9 7 4 6 5
2030.0 4 5 3 2 4 6 5 5 7 7
2070.0 10 12 12 10 8 8 7 6 5 5
2110.0 6 4 4 8 9 8 7 6 6 7
2150.0 8 7 5 8 10 8 8 10 10 12
2190.0 12 10 8 10 5 4 7 10 13 15
2230.0 21 21 23 22 15 10 9 11 9 4
2270.0 2 8 9 5 4 5 8 10 5 5
2310.0 6 8 9 7 8 12 10 9 15 19
2350.0 16 17 19 14 12 15 16 15 14 17
2390.0 17 17 18 18 21 26 28 28 29 28
2430.0 26 25 23 21 21 20 19 14 12 14
2470.0 14 18 22 21 22 23 22 24 23 18
2510.0 17 14 16 19 16 11 11 12 8 6
2550.0 8 9 12 12 11 13 16 23 26 26
2590.0 27 30 33 38 37 33 35 36 38 41
2630.0 42 44 48 52 57 60 66 77 85 93
2670.0 96 93 84 80 81 76 74 76 76 75
2710.0 73 74 74 73 74 75 78 79 78 77
2750.0 80 85 84 85 84 87 99 105 115 128
2790.0 137 160 174 187 199 207 220 235 258 286
2830.0 310 342 385 452 575 811 1249 1883 2461 2704
2870.0 2541 2172 1855 1660 1531 1426 1360 1351 1421 1580
2910.0 1817 2120 2535 3151 4092 5460 7155 8696 9294 8435
2950.0 6520 4565 3243 2610 2409 2393 2400 2325 2136 1895
2990.0 1676 1485 1284 1053 817 622 488 398 339 301
3030.0 268 237 211 184 170 164 153 141 132 121
3070.0 116 117 116 112 101 101 107 99 97 96
3110.0 90 85 86 85 81 78 74 74 79 81
3150.0 77 74 73 67 65 62 59 57 51 47
3190.0 50 43 40 37 31 31 32 26 21 27
3230.0 27 25 27 31 40 46 37 33 38 39
3270.0 33 36 38 34 45 54 57 62 68 77
3310.0 79 80 89 84 64 55 51 41 37 33
3350.0 25 22 24 23 25 30 29 28 24 23
3390.0 28 31 28 27 27 29 26 22 19 21
3430.0 23 23 19 19 30 27 30 32 31 30
3470.0 24 21 17 17 15 13 14 15 15 14
3510.0 12 10 8 7 10 2 2 5 7 8
3550.0 8 13 12 6 11 14 10 15 17 13
3590.0 16 22 21 16 17 19 23 25 27 24
3630.0 13 18 22 20 24 29 31 27 24 27
3670.0 20 13 17 17 17 16 15 15 22 29
3710.0 23 20 16 11 18 26 24 22 22 20
3750.0 21 28 32 18 19 30 29 31 37 40
3790.0 29 22 27 30 30 24 13 10 17 27
3830.0 28 30 29 23 25
##END=
