##TITLE=3-(4-Hydroxy-3-methoxyphenyl)propionic acid
##JCAMP-DX=4.24
##DATA TYPE=INFRARED SPECTRUM
##ORIGIN=EPA-IR VAPOR PHASE LIBRARY
##OWNER=SRD/NIST
Collection (C) 2018 copyright by the U.S. Secretary of Commerce
on behalf of the United States of America. All rights reserved.
##CAS REGISTRY NO=1135-23-5
##MOLFORM=C 10 H 12 O 4
##$NIST SOURCE=MSDC-IR
##STATE=gas
##XUNITS=1/CM
##YUNITS=ABSORBANCE
##XFACTOR=1.
##YFACTOR=0.001
##DELTAX=1.92898
##FIRSTX=549.8
##LASTX=4000.7
##FIRSTY=4.73
##MAXX=4000.7
##MINX=549.759
##MAXY=0.01955
##MINY=0
##NPOINTS=1790
##XYDATA=(X++(Y..Y))
549.759 4.73 5.27 5.09 4.64 4.87 4.82 4.39 4.23 4.25 4.67
569.049 4.62 3.93 3.31 3.54 4.23 3.7 3.21 3.5 3.56 3.68
588.339 3.73 3.57 3.53 3.16 3.45 4.28 4.49 4.37 4.16 3.91
607.628 3.8 3.67 3.38 3.22 3.51 3.52 3.24 3 3.44 3.77
626.918 3.54 3.81 3.98 3.85 3.65 3.45 3.26 3.45 3.15 2.78
646.208 3.02 2.8 2.43 2.42 2.31 2.19 2.42 2.26 1.5967 1.04005
665.498 1.4229 2.07 2.19 2.09 1.6484 1.348 1.601 2.06 2.27 1.9592
684.787 1.7807 1.9981 1.9811 1.6052 1.4496 1.2779 1.2246 1.6507 1.5894 1.4198
704.077 1.4761 1.3234 1.2442 1.309 1.1067 1.1902 1.4206 1.4785 1.6129 1.7578
723.367 1.6345 1.4327 1.6081 1.8609 1.8651 1.7286 1.6139 1.5499 1.4982 1.5753
742.657 1.3107 0.9608 1.283 1.91 1.8784 1.6558 2.21 1.8652 1.3061 1.7309
761.947 1.7738 1.6454 1.7849 1.7988 2.15 2.3 2.21 2.17 2.57 3.18
781.236 3.23 3.12 3.1 3.09 3.22 3.26 3.53 4.02 4.21 3.92
800.526 3.65 3.69 3.69 3.85 3.64 3.52 3.69 3.51 3.92 4.59
819.816 3.88 2.91 2.8 2.37 2.42 2.08 1.7147 1.6978 2.17 2.69
839.106 2.22 1.9186 1.8725 2.04 2.07 2.54 2.32 2.22 2.35 2.05
858.395 2.06 1.8477 1.8619 1.8975 1.7723 1.787 2.17 2.36 1.7409 1.6892
877.685 2.001 1.8439 2.0093 1.9348 1.684 1.79 2.0212 2.08 1.6433 1.4875
896.975 1.7036 2.36 2.41 1.6919 1.5331 2.13 2.2 1.7583 1.4876 1.2759
916.265 1.3568 1.4377 1.7298 1.929 1.7944 2.15 2.47 1.8741 1.5131 2.17
935.555 2.6 1.834 1.462 2.0254 2.0208 1.6266 1.8418 2.18 1.95 1.7693
954.844 1.7313 1.7205 1.9645 1.913 1.8053 1.8487 1.9174 1.9973 2.2 2.57
974.134 2.16 2.2 2.81 2.49 2.07 2.22 2.2 1.8782 2.17 2.35
993.424 2.3 2.96 3.01 2.69 2.39 2.12 2.69 2.84 2.77 3.08
1012.714 3.85 4.78 5.08 4.8 4.73 5.21 5.54 5.5 6.21 6.95
1032.003 6.91 7.09 7.23 6.23 5 5.35 6.04 5.04 4.59 4.8
1051.293 4.38 4 3.03 2.81 2.8 2.74 3.34 3.18 3.05 3.36
1070.583 4.02 4.43 3.77 3.55 3.68 3.97 3.96 4.25 5.83 5.43
1089.873 5.05 6.49 7.01 7.47 7.96 7.66 8.43 9.69 11.92 13.69
1109.163 13.2 14.17 15.23 15.62 16.92 18.54 17.9 15.57 14.25 13.49
1128.452 12.38 11.26 10.77 10.27 10.44 10.32 9.88 9.68 9.25 9.32
1147.742 8.37 8.03 8.44 8.18 7.92 8.09 7.91 7.57 6.58 5.81
1167.032 6.2 6.03 6.03 6.89 6.6 6.22 6.68 5.98 6.28 7.18
1186.322 7.26 7.09 6.99 7.51 8.37 8.94 7.41 6.63 7.59 8.45
1205.611 9.65 10.41 10.45 9.76 8.62 7.66 6.97 6.35 6.97 7.25
1224.901 7.64 8.98 8.97 8.52 9.67 10.04 10.21 11.17 10.52 10.36
1244.191 10.55 10.16 9.77 9.47 9.65 10.33 11.27 11.62 12.14 12.53
1263.481 13.62 15.21 16.01 16.61 16.57 16.08 15.15 13.6 12.12 11.11
1282.771 9.98 8.84 7.53 6.47 5.86 5.48 4.93 4.4 4.25 3.79
1302.060 3.22 3.26 3.3 3.06 2.96 2.96 2.92 2.89 2.87 2.78
1321.350 2.78 2.79 2.79 2.72 2.8 3.06 3.11 3.13 3.34 3.39
1340.640 3.43 3.67 3.67 3.83 4.18 4.33 4.6 4.86 5.19 5.63
1359.930 5.79 5.96 6.14 6.15 6.1 6.12 6.06 5.83 5.64 5.42
1379.219 5.19 4.91 4.72 4.35 3.85 3.67 3.5 3.22 2.9 2.63
1398.509 2.57 2.56 2.49 2.55 2.64 2.51 2.38 2.64 2.86 2.86
1417.799 2.93 3.19 3.63 4.03 4.41 4.61 4.89 5.27 5.39 5.16
1437.089 4.89 4.62 4.33 3.96 3.79 3.95 3.93 4.06 4.27 4.35
1456.378 4.22 4.2 4.5 4.51 4.42 4.54 4.56 4.56 4.45 4.21
1475.668 4.03 3.73 3.68 3.7 3.69 3.77 3.68 3.86 4.21 4.48
1494.958 5.03 5.88 6.82 8.06 9.74 11.57 13.68 15.81 17.58 18.9
1514.248 19.55 19.05 17.35 15.28 12.82 10.2 7.68 6.03 4.98 4.14
1533.538 3.57 2.88 2.35 2.15 2.17 2.1 1.7992 1.9165 1.9289 1.7669
1552.827 1.6466 1.3967 1.1865 1.2265 1.5648 1.4429 1.4201 1.5376 1.3871 1.2716
1572.117 1.416 1.5737 1.4624 1.5709 1.6537 1.5881 1.7212 1.8622 2.1 2.3
1591.407 2.38 2.6 2.88 3.02 3.11 3.07 2.97 3.27 3.24 3.1
1610.697 3.25 3.08 2.85 2.66 2.32 2.18 2.21 2.09 1.9654 1.9881
1629.986 1.9426 1.5873 1.4556 1.4022 1.2436 1.1656 1.08513 1.1599 1.2853 1.168
1649.276 1.06361 1.09379 0.9 0.875 0.845 0.778 0.9518 1.05672 1.1441 1.1616
1668.566 1.02165 0.888 0.9761 0.9608 0.816 0.763 0.805 0.9655 0.9989 1.002
1687.856 0.9872 0.924 1.0109 1.08369 1.08572 1.12695 1.162 1.2625 1.4709 1.5776
1707.146 1.5543 1.5521 1.6062 1.7348 1.8476 1.9674 1.9777 2.0102 2.24 2.3
1726.435 2.47 2.59 2.87 3.14 3.28 3.54 3.68 4.08 4.5 4.83
1745.725 5.04 5.41 5.8 6.26 6.92 7.47 8.26 9.09 9.72 10.65
1765.015 11.72 12.69 13.79 14.79 15.54 16.08 16.44 16.37 15.81 14.99
1784.305 13.94 12.86 11.91 10.84 9.62 8.63 7.86 7.19 6.68 6.22
1803.594 5.71 5.2 4.83 4.53 4.11 3.73 3.3 2.82 2.51 2.35
1822.884 2.18 2.23 2.19 1.937 1.8007 1.642 1.5125 1.4867 1.5135 1.4266
1842.174 1.3412 1.2912 1.2482 1.33 1.3228 1.3658 1.3597 1.1322 1.1801 1.4144
1861.464 1.3652 1.3542 1.4948 1.4779 1.3511 1.2428 1.1823 1.09509 1.0175 0.9996
1880.754 1.06113 1.04337 1.2199 1.2657 1.0816 1.1463 1.1479 1.2644 1.2605 1.12874
1900.043 1.2405 1.08846 0.9858 1.0072 1.02251 1.06757 0.964 1.02238 1.1403 1.0841
1919.333 0.9666 1.03949 1.1935 1.10679 1.0012 1.0132 0.9751 0.9458 1.0072 1.09083
1938.623 1.10408 0.9511 0.918 0.988 1.05934 1.09249 0.972 0.841 0.799 0.877
1957.913 0.906 0.9669 1.08798 1.04968 0.9411 0.9681 0.905 0.86 0.9662 1.10138
1977.202 1.0056 0.9428 1.04605 1.0784 1.06377 0.894 0.82 0.9474 1.08245 1.12918
1996.492 1.10812 1.10217 1.0262 0.9812 0.9575 1.002 0.945 0.858 0.9566 1.1394
2015.782 1.12592 1.0129 1.1456 1.2022 1.151 1.03828 0.9495 0.9458 0.9439 0.9853
2035.072 0.9756 0.9758 1.10203 1.09716 0.9638 1.10883 1.04398 0.9826 1.1835 0.9773
2054.362 1.02183 1.1473 1.12528 1.2694 1.2204 1.10946 1.0157 1.0019 1.0094 1.06284
2073.651 1.1127 1.08781 1.0175 0.9519 0.9494 0.89 0.9584 1.08684 1.1131 1.0186
2092.941 0.891 0.78 0.9479 1.12949 0.9829 0.928 1.0178 1.03153 1.02858 0.9996
2112.231 0.966 0.9519 0.799 0.746 0.783 0.78 1.02148 1.2412 1.1315 0.904
2131.521 0.912 0.9869 0.928 0.9536 1.0025 1.0144 0.9874 1.03087 1.1366 1.07958
2150.810 0.905 0.861 0.9952 1.0118 1.10559 1.12781 0.9755 1.08485 1.1672 1.11253
2170.100 1.06011 1.05465 1.12063 1.0647 0.901 0.89 0.9475 0.9748 0.872 0.794
2189.390 1.0183 1.08027 0.9426 0.9879 1.03435 0.858 0.682 0.745 0.849 0.873
2208.680 0.886 0.949 1.03224 1.0003 1.0168 0.837 0.768 0.9905 1.016 0.9676
2227.970 0.869 1.0198 1.1719 1.02958 0.9622 1.07761 1.11536 1.0229 0.9677 0.875
2247.259 0.823 0.875 0.916 0.886 0.91 0.9301 0.9461 1.02484 1.0031 1.0164
2266.549 1.08118 0.9492 0.9418 0.925 0.906 0.9657 0.9462 0.9616 0.865 0.92
2285.839 1.04112 0.928 0.895 0.9944 1.016 1.0657 1.12861 1.11162 1.06197 0.877
2305.129 0.79 0.885 0.9548 1.05849 1.1823 1.2697 1.275 1.2513 1.1926 1.05633
2324.418 1.1577 1.1612 0.9772 0.9825 0.9603 0.9425 0.79 0.796 0.863 0.834
2343.708 0.9576 0.878 0.9655 1.08639 0.998 0.863 0.853 0.9455 0.9758 1.2867
2362.998 1.3831 1.0981 0.9798 1.03877 1.1647 1.2392 1.10189 0.967 0.9899 0.905
2382.288 0.896 0.9705 0.844 0.886 1.08008 0.942 0.8 0.822 0.85 0.927
2401.578 0.815 0.85 1.05206 1.06747 1.05388 0.9662 0.921 1.0037 0.904 0.892
2420.867 0.9998 0.9767 0.895 0.9334 0.876 1.0136 1.05168 0.884 0.914 0.885
2440.157 0.993 0.9902 0.9892 0.9726 0.861 0.9564 1.06347 1.0899 0.9861 1.0095
2459.447 1.0677 1.08582 1.0017 0.9539 1.04759 0.9439 0.868 0.913 0.9896 1.2641
2478.737 1.08202 0.737 1.03806 1.06162 1.0012 1.03575 0.877 1.05773 1.04512 0.871
2498.026 1.02934 0.9802 0.896 0.9794 1.07744 1.2199 0.9976 0.681 0.726 1.07743
2517.316 1.2451 1.12995 0.882 0.897 1.1812 1.11477 0.974 0.807 0.672 0.807
2536.606 0.884 0.9719 1.07489 1.10537 1.05845 1.143 1.1691 0.9916 1.0764 1.2021
2555.896 1.1744 1.06432 1.03 0.864 0.732 0.805 0.85 0.838 0.9402 0.9959
2575.186 0.9411 0.88 1.0139 1.1521 1.1425 1.0683 1.1496 0.927 0.797 0.837
2594.475 0.757 0.764 0.692 0.879 0.845 0.901 1.03007 0.896 0.9394 1.09538
2613.765 1.09157 0.846 0.727 0.775 0.836 0.9582 0.87 0.815 1.06016 1.1863
2633.055 0.9838 1.05042 1.12897 0.927 0.712 0.712 1.0105 0.9758 0.79 0.824
2652.345 0.9734 0.913 0.787 0.865 0.83 0.684 0.674 0.794 0.881 0.9861
2671.634 1.0045 0.977 0.9881 1.03922 0.765 0.576 0.751 0.658 0.623 0.65
2690.924 0.571 0.465 0.501 0.889 1.02868 1.11236 1.04555 0.919 0.903 0.9707
2710.214 0.915 0.785 0.9526 0.855 1.11423 1.2958 0.9497 0.862 0.9637 0.9661
2729.504 1.10697 1.0149 0.899 0.896 0.822 0.99 1.3101 1.1994 0.9667 1.1635
2748.794 1.2044 1.3293 1.12561 0.868 1.2191 1.11006 0.78 0.788 0.846 0.872
2768.083 0.746 0.762 0.9997 1.10564 1.11682 1.03645 1.1771 1.1787 0.906 1.08652
2787.373 1.1603 1.04229 0.9945 1.04571 1.2331 1.1616 1.0026 1.1511 1.2543 1.05404
2806.663 0.874 0.862 1.03226 1.1776 1.2958 1.3228 1.1613 1.2067 1.2572 1.3811
2825.953 1.4051 1.3831 1.5874 1.609 1.7436 1.9037 1.8693 1.8561 2.12 2.47
2845.242 2.49 2.35 2.23 2.41 2.59 2.7 2.76 2.27 2.06 2.27
2864.532 2.17 1.9874 1.9692 1.9508 2.16 2.39 2.12 2.025 2.05 1.9199
2883.822 1.879 1.9491 1.8199 1.6087 1.7048 1.7894 2.03 2.22 2.28 2.1
2903.112 1.9004 2.04 2.23 2.57 2.52 2.5 2.83 3.1 3.26 3.13
2922.401 2.96 3.28 3.54 3.52 3.84 4.09 4.15 4.23 4.53 4.92
2941.691 4.78 4.57 4.96 4.93 4.67 4.72 4.61 4.54 4.41 4.51
2960.981 4.48 4.27 4.33 3.87 3.3 3.1 3.32 3.61 3.33 3.08
2980.271 2.83 2.46 2.18 2.32 2.7 2.75 2.72 2.41 2.28 2.6
2999.561 2.85 2.74 2.71 2.98 2.97 2.65 2.45 2.56 2.49 2.39
3018.850 2.11 1.9697 2.17 2.31 2.2 1.7725 1.7222 2.21 2.47 2.37
3038.140 2.26 2.42 2.38 1.9233 1.9823 2.4 2.53 2.24 2.22 2.16
3057.430 2.05 2.37 2.31 1.8678 1.6342 1.8182 2.28 2.29 1.825 1.6092
3076.720 1.5041 1.5026 1.325 1.0064 1.04273 1.51 1.288 1.05278 1.4843 1.2668
3096.009 1.11554 1.312 1.09088 1.1891 1.2055 1.11466 1.196 1.0369 0.9377 1.02261
3115.299 1.1517 0.879 1.03586 1.06894 0.878 1.12931 1.1561 1.10934 1.1347 0.759
3134.589 0.528 0.802 1.05423 0.797 0.454 0.552 0.745 0.92 0.9769 0.743
3153.879 0.728 0.856 0.715 0.328 0.361 0.82 1.02076 0.815 0.545 1.2315
3173.169 1.2737 0.795 1.2496 1.5853 1.3047 0.921 0.785 1.05729 0.9926 0.836
3192.458 0.833 0.9817 0.9846 0.633 0.776 0.781 0.922 0.916 0.747 0.946
3211.748 1.017 1.06296 0.9337 0.829 0.64 0.481 0.772 0.779 1.06014 1.0548
3231.038 0.716 0.742 1.04815 1.2847 0.916 0.697 0.832 0.755 0.836 0.895
3250.328 0.754 0.678 0.711 0.564 0.436 0.645 0.758 0.9521 1.2076 1.1426
3269.617 1.009 1.136 0.862 0.506 0.632 0.9347 0.837 0.843 1.1336 1.1459
3288.907 1.1676 1.12119 0.847 0.486 0.598 0.93 1.195 1.3394 0.9944 0.559
3308.197 0.732 0.84 0.737 0.9455 1.07276 1.08505 1.03282 1.1488 1.1416 0.9501
3327.487 0.747 0.774 0.849 0.754 0.714 0.926 0.617 0.536 0.848 0.714
3346.777 0.826 0.9374 0.763 0.715 1.05476 1.0038 1.1326 1.4572 1.173 0.761
3366.066 0.587 1.03558 1.2316 0.886 1.09547 1.3398 1.4218 1.05149 0.9508 1.413
3385.356 1.489 0.917 0.786 1.4038 1.4454 0.818 0.611 1.03883 0.9774 1.0492
3404.646 1.288 0.886 0.758 1.1596 1.2214 0.88 0.788 0.661 0.891 1.03162
3423.936 0.721 0.78 0.794 0.706 0.9416 1.10263 1.1026 1.2211 1.1704 0.9454
3443.225 0.787 0.831 0.69 0.571 0.586 0.472 0.756 0.9458 1.03982 1.1811
3462.515 1.08483 1.0544 0.874 0.645 0.568 0.784 0.78 1.03516 0.845 0.229
3481.805 0.491 1.1494 1.1435 1.0817 1.2521 1.0146 1.1773 0.9309 0.504 0.42
3501.095 0.852 1.09979 0.881 1.04874 0.9431 1.2184 1.5476 1.3873 1.3793 1.1667
3520.385 1.10591 1.193 1.3154 1.4797 1.3981 0.914 0.9453 1.3466 1.2637 1.2975
3539.674 1.3902 1.561 1.721 1.6363 1.4325 1.261 1.2927 1.9101 2.25 2.37
3558.964 2.65 2.71 3.04 4.11 5.64 7.2 8.55 9.43 10.49 10.76
3578.254 10.87 11.47 11.16 10.69 10.6 10.8 10.62 9.38 8.16 7.17
3597.544 6.27 5.78 4.94 3.99 2.9 2.54 2.37 1.7571 1.9322 2.11
3616.833 1.9515 1.61 1.4196 1.4223 1.2688 1.04582 1.10675 1.07095 1.1419 1.4952
3636.123 1.4187 1.2242 1.0027 1.1356 1.3223 1.1702 1.5525 1.5529 1.02102 1.05463
3655.413 1.04952 0.863 0.859 1.03105 0.9872 1.03502 0.863 0.596 0.812 0.638
3674.703 0.388 0.737 0.9412 1.1865 1.10387 0.759 0.668 0.632 0.794 1.02992
3693.993 1.1505 1.1406 1.3077 1.1358 0.692 0.659 1.2376 1.4937 1.1659 0.917
3713.282 0.631 0.9815 0.9835 0.51 0.716 0.698 0.62 0.697 0.821 0.901
3732.572 0.9467 0.9782 0.9644 0.597 0.48 0.613 0.563 0.634 0.81 1.03401
3751.862 1.3494 1.4438 1.4564 1.1798 0.877 1.08114 0.9384 0.9763 0.9446 0.871
3771.152 1.06731 1.2507 0.9734 0.552 0.811 1.11211 1.2325 1.02287 0.59 0.568
3790.441 0.719 1.06625 1.2152 1.02308 0.88 0.782 0.9867 1.1304 0.612 0.586
3809.731 0.928 0.385 0.253 0.851 1.07812 0.9428 0.796 0.828 0.736 1.0018
3829.021 1.1866 0.713 0.878 1.05223 0.9993 1.05825 1.2788 1.5026 1.3963 1.11345
3848.311 1.03671 1.2693 1.3094 1.2289 0.781 0.584 1.09412 1.3374 1.2459 0.922
3867.601 0.788 1.2234 1.07218 0.9582 1.4936 1.03586 0.72 1.0122 1.1384 1.1349
3886.890 1.0557 1.2448 1.2526 0.848 0.355 0.814 1.10002 0.696 0.73 0.9588
3906.180 1.2977 1.6294 1.09348 0.714 1.057 0.658 0 0.436 1.1069 1.04274
3925.470 1.1522 1.4305 1.1322 1.2183 1.3343 0.845 0.909 1.11021 1.2554 1.1967
3944.760 0.9338 0.818 0.827 0.9372 0.885 0.747 0.9437 0.892 0.462 0.556
3964.049 0.68 1.02717 1.2007 1.3659 1.4235 1.152 1.4178 1.4558 1.05579 1.1544
3983.339 1.4222 1.1848 1.1931 1.4392 1.0444 0.726 0.975 1.29 0.776 0.719
##END=
