##TITLE=4-Hydroxybenzophenone
##JCAMP-DX=4.24
##DATA TYPE=INFRARED SPECTRUM
##ORIGIN=NIST Mass Spectrometry Data Center
##OWNER=NIST Standard Reference Data Program
Collection (C) 2018 copyright by the U.S. Secretary of Commerce
on behalf of the United States of America. All rights reserved.
##CAS REGISTRY NO=1137-42-4
##MOLFORM=C 13 H 10 O 2
##$NIST SOURCE=MSDC-IR
##SPECTROMETER/DATA SYSTEM=HP-GC/MS/IRD
##STATE=gas
##XUNITS=1/CM
##YUNITS=ABSORBANCE
##XFACTOR=1.0
##YFACTOR=0.000011800
##DELTAX=4.0
##FIRSTX=550.0
##LASTX=3846.0
##FIRSTY=0.002112
##MAXX=3846
##MINX=550
##MAXY=0.118
##MINY=0
##NPOINTS=825
##XYDATA=(X++(Y..Y))
550.0 179 254 183 193 151 125 110 116 141 191
590.0 316 678 1502 2288 2428 1783 866 390 230 169
630.0 176 198 200 163 119 96 99 126 176 245
670.0 330 442 609 851 1172 1593 2043 2256 2050 1543
710.0 1042 706 524 473 550 729 938 1031 912 674
750.0 453 301 211 166 153 169 211 285 373 424
790.0 421 374 318 304 341 392 428 443 469 548
830.0 691 866 1024 1102 1035 832 591 388 252 171
870.0 126 109 103 108 129 158 196 255 358 554
910.0 914 1363 1692 1829 1938 2156 2202 1851 1243 751
950.0 516 370 258 188 146 94 41 8 2 5
990.0 17 56 102 119 100 56 43 62 112 152
1030.0 142 91 40 24 25 35 59 88 124 168
1070.0 197 201 206 228 273 344 438 537 600 617
1110.0 594 561 551 582 666 847 1169 1695 2371 2883
1150.0 3015 2929 3364 4831 6302 6592 5704 4701 4571 4643
1190.0 4136 3145 2166 1535 1176 959 839 795 810 887
1230.0 1043 1281 1579 1946 2492 3468 5151 7410 9327 10000
1270.0 9191 7473 5663 3981 2883 2573 2665 2775 2711 2551
1310.0 2443 2356 2166 1869 1543 1217 879 603 434 343
1350.0 291 258 244 234 228 219 204 185 163 139
1390.0 125 122 132 152 194 266 379 557 809 1036
1430.0 1087 939 724 617 590 522 401 280 216 190
1470.0 175 171 177 202 255 355 542 866 1288 1576
1510.0 1515 1133 696 453 393 398 410 410 395 382
1550.0 380 400 447 524 629 774 980 1301 1797 2478
1590.0 3249 4029 4819 5495 5596 4783 3394 2116 1359 975
1630.0 773 679 627 598 601 655 808 1127 1757 2813
1670.0 4159 5165 5434 4878 3606 2374 1516 997 709 543
1710.0 437 363 315 289 275 257 230 197 164 141
1750.0 127 119 117 119 123 123 119 108 91 76
1790.0 69 69 75 82 93 91 79 62 50 43
1830.0 37 32 28 25 28 31 36 40 43 50
1870.0 58 64 72 84 93 102 108 117 121 120
1910.0 112 98 79 66 54 47 44 46 54 66
1950.0 83 95 103 107 102 90 70 50 39 33
1990.0 33 32 29 24 20 17 18 19 23 22
2030.0 16 12 9 8 9 14 20 26 34 43
2070.0 49 54 58 56 51 46 37 31 25 18
2110.0 14 11 8 4 4 4 2 3 6 5
2150.0 4 3 4 3 4 7 9 9 8 10
2190.0 13 16 16 14 13 11 10 12 10 9
2230.0 9 10 11 12 11 11 13 14 17 21
2270.0 23 24 26 26 25 25 25 24 24 30
2310.0 36 43 47 45 43 42 43 43 40 36
2350.0 30 25 20 19 22 23 24 25 27 30
2390.0 36 44 57 70 85 98 107 110 109 104
2430.0 99 98 94 93 87 76 65 54 45 39
2470.0 31 27 28 28 26 25 26 31 31 32
2510.0 39 44 50 54 51 43 34 26 22 21
2550.0 20 21 22 24 24 26 31 29 30 31
2590.0 33 33 35 36 33 31 30 29 28 29
2630.0 28 26 25 24 26 26 27 27 24 21
2670.0 17 16 14 12 14 14 12 10 9 9
2710.0 12 12 11 12 11 16 21 22 24 28
2750.0 31 29 29 31 28 24 18 13 10 8
2790.0 5 4 2 1 0 0 0 0 3 3
2830.0 5 6 5 7 13 16 19 23 27 32
2870.0 35 34 34 36 31 27 29 26 22 20
2910.0 17 16 16 17 17 15 15 15 13 13
2950.0 12 11 10 11 15 21 25 31 41 51
2990.0 66 92 123 159 202 240 281 333 408 523
3030.0 677 823 880 807 664 556 556 659 854 1108
3070.0 1275 1261 1095 909 798 703 596 486 391 313
3110.0 240 177 132 106 85 66 54 47 43 42
3150.0 42 43 42 38 35 30 30 30 24 23
3190.0 23 24 24 24 23 15 12 10 10 9
3230.0 9 6 3 3 8 13 14 15 16 18
3270.0 15 11 13 13 13 19 24 25 28 35
3310.0 41 45 51 64 81 94 104 114 111 99
3350.0 80 60 50 44 41 36 33 31 26 24
3390.0 26 27 21 16 15 14 15 21 18 18
3430.0 18 13 14 17 17 17 19 17 12 10
3470.0 11 11 11 10 11 13 9 7 4 2
3510.0 11 9 6 13 13 14 16 12 10 9
3550.0 12 18 17 15 17 21 25 25 26 32
3590.0 36 41 48 53 66 88 112 146 197 299
3630.0 514 954 1722 2768 3464 3233 2263 1142 505 275
3670.0 164 111 78 63 56 52 53 50 41 39
3710.0 36 31 32 29 20 13 12 13 11 14
3750.0 17 19 19 16 18 16 9 11 15 14
3790.0 12 14 18 19 18 16 15 13 10 12
3830.0 12 14 16 15 18
##END=
