##TITLE=N-Phenyliminodiacetic acid ((anhydride)
##JCAMP-DX=4.24
##DATA TYPE=INFRARED SPECTRUM
##ORIGIN=EPA-IR VAPOR PHASE LIBRARY
##OWNER=SRD/NIST
Collection (C) 2018 copyright by the U.S. Secretary of Commerce
on behalf of the United States of America. All rights reserved.
##CAS REGISTRY NO=1137-73-1
##MOLFORM=C 10 H 11 N O 4
##$NIST SOURCE=MSDC-IR
##STATE=gas
##XUNITS=1/CM
##YUNITS=ABSORBANCE
##XFACTOR=1.
##YFACTOR=0.001
##DELTAX=1.92898
##FIRSTX=549.8
##LASTX=4000.7
##FIRSTY=2.164
##MAXX=4000.7
##MINX=549.759
##MAXY=0.068484
##MINY=0
##NPOINTS=1790
##XYDATA=(X++(Y..Y))
549.759 2.164 2.024 1.744 1.914 2.044 1.814 1.904 1.864 1.974 2.094
569.049 2.124 2.194 2.294 1.964 1.834 2.204 2.074 1.614 1.634 1.504
588.339 1.374 1.944 2.284 2.234 2.324 2.614 3.114 3.364 3.424 3.534
607.628 3.724 3.654 3.234 3.154 3.314 3.024 2.414 2.184 2.154 2.224
626.918 2.124 1.984 1.764 1.444 1.674 1.724 1.664 1.674 1.444 1.284
646.208 1.434 1.324 1.254 1.374 1.324 1.504 1.574 1.424 1.414 1.464
665.498 1.854 3.284 3.314 2.244 2.284 2.604 2.944 3.414 3.774 4.134
684.787 4.454 4.734 5.174 5.414 5.284 4.894 4.594 4.444 4.214 3.714
704.077 3.264 2.954 2.564 2.284 2.084 1.974 1.864 1.694 1.804 1.874
723.367 1.724 1.614 1.714 2.014 2.134 2.264 2.344 2.554 3.204 3.914
742.657 4.324 4.864 5.624 6.304 6.854 7.364 7.664 7.494 7.064 6.474
761.947 5.804 5.104 4.274 3.544 3.104 2.594 2.114 2.024 2.024 1.704
781.236 1.424 1.384 1.344 1.1365 0.8697 0.9518 0.9388 0.7876 0.955 0.8811
800.526 0.6813 0.781 0.7666 0.7772 0.8245 0.8774 0.9603 0.9695 1.0191 1.0421
819.816 1.1389 1.254 1.334 1.424 1.714 2.114 2.234 2.314 2.404 2.164
839.106 1.944 1.994 1.914 1.614 1.404 1.1647 1.0064 1.1969 1.224 1.0656
858.395 1.1704 1.364 1.484 1.584 1.624 1.574 1.684 1.914 2.104 2.154
877.685 2.244 2.314 2.264 2.234 2.164 2.064 1.934 1.904 2.184 2.414
896.975 2.584 2.614 2.624 2.794 2.974 3.464 4.114 4.654 4.894 5.204
916.265 5.814 6.594 7.244 7.594 7.914 8.074 8.204 8.304 8.304 8.504
935.555 8.674 8.824 9.044 9.344 9.584 9.864 10.084 10.064 9.954 9.964
954.844 9.974 9.774 9.394 9.434 9.634 9.724 10.144 10.224 10.234 9.984
974.134 9.234 8.414 7.564 6.534 5.574 4.824 4.034 3.514 3.394 3.344
993.424 3.294 3.294 3.214 3.234 3.334 3.094 2.714 2.484 2.234 2.234
1012.714 2.464 2.514 2.794 3.184 3.234 3.384 3.594 3.844 4.474 5.104
1032.003 5.164 5.074 5.094 5.104 5.214 5.524 5.584 5.644 6.064 6.404
1051.293 6.984 8.074 8.794 9.504 10.564 11.544 12.374 13.334 14.554 16.094
1070.583 17.424 18.384 19.024 20.064 21.444 22.354 23.334 24.514 26.054 26.854
1089.873 27.404 28.814 29.664 30.134 30.094 29.844 29.994 29.824 29.564 29.244
1109.163 28.564 27.804 27.314 26.284 24.634 22.994 20.974 18.984 17.204 15.394
1128.452 13.774 12.174 11.194 10.694 9.904 9.034 8.204 7.814 7.344 7.294
1147.742 7.514 7.384 7.784 8.114 8.184 8.334 8.364 8.274 8.384 8.474
1167.032 8.404 8.654 8.834 9.094 9.454 9.814 10.464 10.954 11.414 11.734
1186.322 11.854 11.934 12.574 13.654 14.054 14.444 15.194 15.954 16.664 16.894
1205.611 16.914 17.054 17.064 17.044 16.714 16.104 15.574 15.494 15.714 15.774
1224.901 15.824 16.094 16.264 16.014 15.824 15.594 15.054 14.354 13.714 12.734
1244.191 11.624 10.754 10.094 9.644 8.954 8.394 8.184 7.964 7.744 7.534
1263.481 7.004 6.634 6.344 5.764 5.344 4.984 4.684 4.414 4.114 3.784
1282.771 3.434 3.404 3.524 3.584 3.724 3.904 4.144 4.334 4.434 4.634
1302.060 4.874 5.094 5.294 5.334 5.364 5.334 5.194 5.074 4.984 4.864
1321.350 4.714 4.654 4.554 4.384 4.194 4.054 3.984 3.884 3.724 3.544
1340.640 3.534 3.574 3.574 3.614 3.734 3.964 4.174 4.364 4.564 4.744
1359.930 4.814 4.734 4.714 4.664 4.474 4.274 4.034 3.774 3.534 3.284
1379.219 3.044 2.864 2.714 2.564 2.394 2.284 2.184 2.054 1.994 1.934
1398.509 1.924 1.944 1.914 1.884 1.824 1.874 1.964 2.004 2.094 2.204
1417.799 2.234 2.284 2.504 2.634 2.784 2.964 3.154 3.384 3.684 3.924
1437.089 4.294 4.804 5.114 5.334 5.374 5.234 5.064 4.764 4.234 3.604
1456.378 3.164 2.884 2.724 2.604 2.454 2.494 2.624 2.704 2.864 3.164
1475.668 3.584 4.054 4.574 5.184 5.824 6.664 7.714 8.824 10.244 11.814
1494.958 13.244 14.414 15.024 15.064 14.514 13.424 11.774 9.894 8.084 6.474
1514.248 5.244 4.264 3.554 3.034 2.664 2.464 2.334 2.134 1.914 1.744
1533.538 1.614 1.594 1.574 1.584 1.524 1.484 1.534 1.524 1.524 1.534
1552.827 1.574 1.654 1.674 1.614 1.694 1.854 1.954 2.064 2.214 2.414
1572.117 2.644 2.824 2.994 3.354 3.864 4.334 4.874 5.634 6.554 7.524
1591.407 8.594 9.714 10.734 11.474 11.724 11.434 10.574 9.424 8.204 6.864
1610.697 5.574 4.494 3.744 3.054 2.524 2.204 1.984 1.824 1.584 1.494
1629.986 1.444 1.354 1.324 1.224 1.224 1.254 1.2035 1.1304 1.0894 1.0376
1649.276 1.0519 0.9758 0.8724 0.9446 0.95 1.0088 1.0644 0.9597 0.8794 0.8863
1668.566 0.9117 0.8851 0.9237 0.8909 0.8647 0.9841 1.015 0.9543 0.8929 0.9819
1687.856 1.0402 0.9757 0.9573 0.9846 1.0062 1.0938 1.0609 1.0864 1.294 1.404
1707.146 1.444 1.534 1.614 1.634 1.594 1.554 1.654 1.784 1.944 2.044
1726.435 2.114 2.164 2.224 2.354 2.454 2.564 2.684 2.834 2.924 3.044
1745.725 3.214 3.474 3.764 4.064 4.494 4.864 5.344 5.914 6.454 7.184
1765.015 7.984 8.894 10.124 11.514 13.314 15.734 18.794 22.674 27.484 33.204
1784.305 39.694 46.804 53.864 60.144 64.954 67.744 68.484 67.574 64.904 60.054
1803.594 53.364 45.834 38.464 32.054 26.924 22.994 20.234 18.594 17.904 18.094
1822.884 19.064 20.564 22.554 24.854 27.314 29.614 31.324 32.134 31.904 30.554
1842.174 28.174 25.014 21.394 17.624 14.094 11.284 9.204 7.594 6.294 5.394
1861.464 4.764 4.224 3.744 3.414 3.194 2.994 2.744 2.554 2.344 2.224
1880.754 2.164 1.984 1.854 1.774 1.754 1.724 1.604 1.554 1.464 1.314
1900.043 1.264 1.274 1.274 1.1759 1.1597 1.1886 1.1111 1.0745 1.0781 1.0805
1919.333 1.141 1.1347 1.0823 1.1575 1.1726 1.1243 1.1334 1.1251 1.0679 1.0835
1938.623 1.1457 1.0977 1.0844 1.1545 1.214 1.234 1.204 1.1089 1.0584 1.0192
1957.913 0.8241 0.675 0.5928 0.5513 0.6455 0.6358 0.5854 0.6249 0.5867 0.5909
1977.202 0.6022 0.5654 0.5277 0.507 0.5565 0.4882 0.4449 0.5232 0.5081 0.4901
1996.492 0.5513 0.5383 0.4513 0.427 0.4347 0.4526 0.4495 0.4899 0.4982 0.4664
2015.782 0.5157 0.4803 0.4773 0.5567 0.4816 0.4166 0.3833 0.3053 0.3665 0.4608
2035.072 0.5006 0.5054 0.4858 0.4914 0.4435 0.4442 0.4352 0.3978 0.4326 0.4997
2054.362 0.432 0.3702 0.4931 0.4801 0.402 0.3949 0.3665 0.4191 0.4499 0.482
2073.651 0.4638 0.4793 0.5781 0.4621 0.4386 0.4949 0.5689 0.5841 0.5484 0.5365
2092.941 0.5114 0.5521 0.5719 0.6232 0.5886 0.5731 0.5501 0.6071 0.5698 0.5024
2112.231 0.5937 0.6882 0.6057 0.5226 0.5704 0.5445 0.5565 0.5764 0.609 0.5859
2131.521 0.567 0.5126 0.4921 0.5059 0.5027 0.5334 0.5769 0.5111 0.4399 0.5023
2150.810 0.5608 0.6528 0.6444 0.597 0.6448 0.6765 0.7456 0.7588 0.6693 0.6963
2170.100 0.72 0.6628 0.6411 0.6035 0.571 0.5177 0.4749 0.5083 0.5555 0.5493
2189.390 0.599 0.6466 0.604 0.5519 0.5815 0.5892 0.5997 0.6535 0.6026 0.5607
2208.680 0.5855 0.5852 0.6044 0.5886 0.5513 0.5363 0.5195 0.559 0.4617 0.488
2227.970 0.5916 0.5502 0.496 0.4507 0.4058 0.4138 0.4621 0.4413 0.5125 0.5801
2247.259 0.5589 0.538 0.5348 0.5654 0.5467 0.482 0.5222 0.534 0.4817 0.4973
2266.549 0.4808 0.5099 0.5578 0.5202 0.6125 0.7277 0.698 0.6815 0.7532 0.857
2285.839 0.9606 0.9827 0.9775 1.1293 1.304 1.404 1.434 1.534 1.704 1.864
2305.129 2.004 2.114 2.264 2.404 2.594 2.714 2.794 2.874 2.934 3.064
2324.418 3.074 3.114 3.164 3.134 3.064 2.964 2.974 2.904 2.804 2.734
2343.708 2.614 2.444 2.194 2.214 2.684 3.114 3.464 3.704 3.864 4.034
2362.998 4.104 4.014 3.914 3.864 3.594 3.194 2.824 2.494 2.134 1.744
2382.288 1.414 1.0887 0.8697 0.7038 0.5548 0.4924 0.5323 0.5316 0.4274 0.4294
2401.578 0.4718 0.4444 0.4683 0.4648 0.4906 0.469 0.3844 0.4259 0.3813 0.3124
2420.867 0.3336 0.3801 0.3563 0.3597 0.3925 0.453 0.4504 0.4611 0.4386 0.3324
2440.157 0.4241 0.4694 0.3351 0.341 0.4268 0.4278 0.4555 0.4427 0.3778 0.4301
2459.447 0.4417 0.3188 0.23643 0.29568 0.3771 0.4054 0.4037 0.4194 0.3698 0.3671
2478.737 0.4443 0.4598 0.439 0.3124 0.3274 0.4548 0.4702 0.4434 0.4357 0.3875
2498.026 0.3596 0.3411 0.3192 0.3735 0.4408 0.4414 0.3379 0.28478 0.29064 0.232
2517.316 0.25802 0.3562 0.3989 0.4171 0.3938 0.3508 0.4072 0.4933 0.4248 0.3737
2536.606 0.4656 0.549 0.5613 0.5591 0.4748 0.3904 0.4022 0.4159 0.4643 0.4014
2555.896 0.27647 0.3309 0.409 0.4675 0.5125 0.4318 0.3327 0.3297 0.3226 0.3785
2575.186 0.4562 0.447 0.4253 0.4483 0.449 0.3864 0.3127 0.25659 0.27879 0.3246
2594.475 0.3727 0.3612 0.4006 0.3401 0.27595 0.28766 0.3228 0.4402 0.3941 0.3843
2613.765 0.4454 0.3778 0.30282 0.3301 0.4507 0.4643 0.4463 0.4677 0.4378 0.4365
2633.055 0.3446 0.345 0.3291 0.30353 0.4419 0.5454 0.4961 0.3334 0.207216 0.29449
2652.345 0.4155 0.4643 0.4896 0.4211 0.4487 0.4799 0.4 0.3548 0.3819 0.3934
2671.634 0.3864 0.4223 0.46 0.4047 0.3074 0.28234 0.3314 0.3574 0.3936 0.468
2690.924 0.4549 0.4209 0.4274 0.4758 0.463 0.4635 0.402 0.3269 0.3665 0.3404
2710.214 0.3464 0.4056 0.4577 0.3674 0.4791 0.6964 0.6851 0.6398 0.6968 0.7367
2729.504 0.687 0.6401 0.6363 0.6345 0.6491 0.6391 0.6868 0.6972 0.7049 0.7358
2748.794 0.7064 0.6871 0.5985 0.6151 0.7391 0.7857 0.7613 0.7768 0.7799 0.848
2768.083 0.8027 0.8694 0.9377 0.8464 0.834 0.9771 1.214 1.274 1.324 1.484
2787.373 1.624 1.794 2.164 2.474 2.664 3.024 3.364 3.614 3.934 4.284
2806.663 4.584 4.674 4.594 4.424 4.194 4.014 3.754 3.454 3.134 2.824
2825.953 2.614 2.494 2.344 2.094 1.904 1.744 1.784 1.684 1.464 1.444
2845.242 1.334 1.234 1.314 1.324 1.284 1.254 1.204 1.214 1.214 1.324
2864.532 1.414 1.374 1.414 1.414 1.474 1.554 1.514 1.424 1.414 1.404
2883.822 1.354 1.374 1.414 1.514 1.674 1.624 1.674 1.914 2.044 2.254
2903.112 2.394 2.504 2.604 2.614 2.704 2.744 2.584 2.374 2.184 1.844
2922.401 1.594 1.354 1.0585 0.8942 0.7614 0.8222 0.7852 0.6981 0.6847 0.7418
2941.691 0.7897 0.671 0.6152 0.5785 0.5471 0.5257 0.4812 0.5099 0.5501 0.4928
2960.981 0.5738 0.6196 0.4337 0.3924 0.476 0.518 0.5436 0.5323 0.5284 0.6113
2980.271 0.5163 0.4617 0.6461 0.7559 0.7556 0.6896 0.7085 0.7717 0.8131 0.8649
2999.561 0.927 0.9997 0.9614 0.8539 0.8803 0.9289 0.8825 1.0212 1.294 1.264
3018.850 1.264 1.464 1.474 1.484 1.584 1.704 1.834 2.014 2.204 2.464
3038.140 2.624 2.744 2.844 2.764 2.934 3.084 3.034 2.944 2.674 2.514
3057.430 2.544 2.574 2.634 2.634 2.764 2.984 3.184 3.554 3.844 3.754
3076.720 3.774 3.914 3.654 3.244 2.944 2.754 2.584 2.284 2.164 2.174
3096.009 2.164 2.184 2.074 1.964 2.014 1.974 1.774 1.634 1.544 1.464
3115.299 1.324 1.1112 0.9373 0.8998 0.8875 0.7275 0.609 0.6078 0.5256 0.3159
3134.589 0.21607 0.414 0.4577 0.4291 0.4471 0.3691 0.3232 0.3245 0.3404 0.4157
3153.879 0.4245 0.3681 0.22521 0.19824 0.37 0.3777 0.4795 0.4801 0.209859 0.1437
3173.169 0.1806 0.19888 0.21565 0.1476 0.211752 0.3187 0.3228 0.28743 0.26985 0.20289
3192.458 0.22725 0.3524 0.29339 0.22582 0.27238 0.4762 0.5343 0.4232 0.27748 0.1188
3211.748 0.22695 0.23538 0.078 0.1893 0.1835 0.035 0.045 0.209131 0.25964 0.1399
3231.038 0.1142 0.1329 0.239 0.23651 0.1292 0.1094 0.1876 0.1708 0.3256 0.5057
3250.328 0.4479 0.3175 0.093 0.1637 0.3686 0.3209 0.24407 0.1826 0.069 0.1297
3269.617 0.3239 0.3168 0.3195 0.4262 0.4209 0.4994 0.5189 0.463 0.3181 0.27484
3288.907 0.3768 0.3757 0.3692 0.30364 0.28741 0.3005 0.29895 0.27354 0.24324 0.27174
3308.197 0.1639 0.1583 0.23536 0.24127 0.26927 0.24405 0.3507 0.4974 0.4869 0.3946
3327.487 0.4937 0.4075 0.3397 0.4981 0.5686 0.3571 0.1939 0.26071 0.23849 0.3617
3346.777 0.4724 0.21672 0 0.203679 0.416 0.5524 0.5468 0.25618 0.1256 0.213631
3366.066 0.24178 0.3255 0.4413 0.3292 0.1409 0.2821 0.3628 0.3112 0.22245 0.1633
3385.356 0.28308 0.1633 0.087 0.19448 0.24155 0.27558 0.3331 0.5707 0.6048 0.4327
3404.646 0.432 0.5134 0.3347 0.22499 0.347 0.334 0.23122 0.1683 0.1438 0.1301
3423.936 0.20051 0.29652 0.4086 0.4437 0.4224 0.3658 0.3436 0.3679 0.315 0.3152
3443.225 0.3528 0.26404 0.2693 0.4385 0.3545 0.1774 0.29745 0.4647 0.3812 0.3299
3462.515 0.5017 0.5473 0.4385 0.3152 0.26913 0.1506 0.095 0.21403 0.28585 0.209801
3481.805 0.19996 0.3737 0.443 0.4145 0.4062 0.4006 0.3626 0.29743 0.3423 0.3936
3501.095 0.28046 0.2283 0.1715 0.1241 0.432 0.4946 0.25468 0.20063 0.1568 0.24953
3520.385 0.29258 0.346 0.4345 0.4186 0.3527 0.3417 0.3934 0.3187 0.28955 0.538
3539.674 0.4917 0.22002 0.24867 0.3312 0.3918 0.445 0.4558 0.4736 0.5073 0.5369
3558.964 0.5257 0.4708 0.4608 0.5792 0.6453 0.5738 0.6121 0.623 0.6912 0.8437
3578.254 0.9671 0.8846 0.7501 0.7566 0.8418 1.0476 0.9638 0.8097 0.8978 0.9435
3597.544 1.304 1.514 1.214 1.0304 1.1888 1.294 1.254 1.244 1.1982 1.204
3616.833 1.1768 1.1534 1.0243 0.8689 0.9035 0.9468 0.8306 0.6574 0.6556 0.704
3636.123 0.4867 0.5134 0.7133 0.6082 0.6202 0.6598 0.3938 0.29108 0.5901 0.657
3655.413 0.5516 0.6051 0.5776 0.47 0.4809 0.5687 0.7497 0.7704 0.6491 0.6791
3674.703 0.6125 0.5927 0.734 0.6847 0.5488 0.6292 0.5262 0.441 0.4737 0.4735
3693.993 0.4618 0.5617 0.5516 0.4064 0.5332 0.5505 0.4656 0.5203 0.4796 0.3052
3713.282 0.3178 0.451 0.5648 0.5832 0.4442 0.354 0.3784 0.396 0.4298 0.3974
3732.572 0.30243 0.4878 0.5857 0.4243 0.3809 0.3996 0.3973 0.4946 0.4711 0.4009
3751.862 0.417 0.4066 0.394 0.5418 0.3895 0.2561 0.4803 0.4473 0.5473 0.5553
3771.152 0.5722 0.6547 0.5844 0.4616 0.4892 0.5513 0.4865 0.5133 0.4104 0.26458
3790.441 0.24394 0.29238 0.398 0.3817 0.4107 0.4322 0.3694 0.467 0.5228 0.488
3809.731 0.4448 0.3639 0.26749 0.3406 0.3869 0.3368 0.3155 0.2598 0.4934 0.5734
3829.021 0.4558 0.5567 0.4006 0.26312 0.3046 0.3142 0.3607 0.396 0.3855 0.4379
3848.311 0.4531 0.4399 0.4398 0.3177 0.3653 0.5129 0.4011 0.29471 0.3608 0.3936
3867.601 0.56 0.5356 0.4237 0.2633 0.1394 0.1925 0.22042 0.3516 0.4795 0.4261
3886.890 0.3684 0.4327 0.24027 0.23908 0.4296 0.4636 0.6017 0.5485 0.5111 0.484
3906.180 0.3492 0.4181 0.4602 0.4245 0.5475 0.5262 0.3927 0.24699 0.27511 0.499
3925.470 0.5222 0.28818 0.3217 0.4825 0.4613 0.5819 0.5111 0.4949 0.5282 0.3787
3944.760 0.3139 0.4622 0.5848 0.524 0.4661 0.4445 0.3301 0.3052 0.3477 0.3941
3964.049 0.4064 0.421 0.27286 0.27021 0.57 0.4982 0.3512 0.5161 0.5219 0.3666
3983.339 0.29748 0.27901 0.4992 0.6587 0.4688 0.27537 0.27258 0.25559 0.22776 0.3675
##END=
