##TITLE=.alpha.-Pyridoin
##JCAMP-DX=4.24
##DATA TYPE=INFRARED SPECTRUM
##ORIGIN=EPA-IR VAPOR PHASE LIBRARY
##OWNER=SRD/NIST
Collection (C) 2018 copyright by the U.S. Secretary of Commerce
on behalf of the United States of America. All rights reserved.
##CAS REGISTRY NO=1141-06-6
##MOLFORM=C 12 H 10 N 2 O 2
##$NIST SOURCE=MSDC-IR
##STATE=gas
##XUNITS=1/CM
##YUNITS=ABSORBANCE
##XFACTOR=1.
##YFACTOR=0.001
##DELTAX=1.92898
##FIRSTX=549.8
##LASTX=4000.7
##FIRSTY=1.153
##MAXX=4000.7
##MINX=549.759
##MAXY=0.016483
##MINY=0
##NPOINTS=1790
##XYDATA=(X++(Y..Y))
549.759 1.153 0.9727 0.9058 0.9843 1.183 0.998 0.7268 0.553 0.4673 0.6212
569.049 0.5318 0.4153 0.4505 0.3089 0.3636 0.5994 0.6291 0.6624 0.39 0.3777
588.339 0.7578 0.6061 0.6087 0.8045 0.6942 1.0692 1.403 1.223 1.343 1.743
607.628 1.853 1.683 1.673 1.603 1.433 1.203 0.953 0.902 0.8938 0.9496
626.918 1.0523 0.8899 0.7934 0.9746 1.133 1.183 1.058 1.0495 1.283 1.433
646.208 1.413 1.423 1.453 1.373 1.203 1.0082 0.8168 0.6654 0.6405 0.7308
665.498 0.7644 0.6889 0.7296 0.7965 0.771 0.7263 0.7627 1.026 1.123 1.0396
684.787 0.9177 0.8545 0.9762 1.0201 0.9807 1.0424 1.0578 1.0839 1.0795 1.123
704.077 1.313 1.343 1.323 1.413 1.523 1.653 1.793 2.023 2.353 2.713
723.367 3.033 3.343 3.653 3.863 4.123 4.463 4.403 4.213 3.993 3.583
742.657 3.363 3.053 2.653 2.313 1.843 1.423 1.203 1.163 1.0743 1.133
761.947 1.273 1.293 1.443 1.733 2.093 2.303 2.713 3.373 3.813 4.353
781.236 4.853 5.103 5.393 5.423 5.193 4.833 4.413 3.963 3.333 2.833
800.526 2.473 2.183 1.863 1.343 1.103 1.0387 0.9164 0.8999 0.9433 0.8971
819.816 0.7551 0.8587 0.8903 0.7808 0.8341 0.9306 0.9628 1.0329 1.263 1.373
839.106 1.343 1.243 1.133 1.133 1.0637 1.0804 1.0481 0.8468 0.7535 0.8001
858.395 0.715 0.6084 0.567 0.3912 0.413 0.4912 0.4886 0.4346 0.3936 0.4512
877.685 0.5706 0.6992 0.6751 0.7433 0.8062 0.824 0.8305 0.7616 0.7137 0.6952
896.975 0.5402 0.5265 0.73 0.7319 0.6634 0.6314 0.5514 0.5286 0.4728 0.3574
916.265 0.4018 0.4745 0.4795 0.4752 0.4146 0.3403 0.422 0.3639 0.3301 0.3114
935.555 0.2697 0.3814 0.2608 0.17306 0.2666 0.2877 0.3116 0.2803 0.3013 0.4956
954.844 0.5996 0.5623 0.6092 0.6307 0.5195 0.5086 0.5996 0.6945 0.7424 0.9641
974.134 1.0609 1.0146 1.113 1.253 1.353 1.393 1.383 1.293 1.233 1.263
993.424 1.233 1.263 1.273 1.233 1.173 1.123 1.173 0.9805 0.7926 0.5396
1012.714 0.5072 0.679 0.5879 0.5976 0.5404 0.4408 0.4132 0.4633 0.565 0.4725
1032.003 0.4739 0.532 0.6774 0.8617 0.924 1.0084 1.173 1.193 1.193 1.0816
1051.293 0.7532 0.613 0.5464 0.653 0.7611 0.7848 0.7443 0.7569 0.6319 0.3589
1070.583 0.4784 0.7381 0.9186 1.0196 1.173 1.293 1.483 1.893 2.503 3.173
1089.873 3.323 3.423 3.373 2.793 2.303 1.833 1.343 0.9983 0.8965 0.6728
1109.163 0.5371 0.4057 0.2268 0.3962 0.3818 0.14246 0.17368 0.361 0.3436 0.2192
1128.452 0.2806 0.3747 0.5212 0.5759 0.5568 0.804 1.0457 1.343 1.903 2.243
1147.742 2.183 2.353 2.263 1.763 1.313 1.1005 1.233 1.203 1.0919 1.203
1167.032 1.453 1.733 2.193 2.723 2.963 3.343 3.813 4.293 4.863 5.213
1186.322 5.603 5.683 5.303 5.283 5.183 4.703 4.233 3.793 3.353 2.763
1205.611 2.263 1.973 1.733 1.603 1.433 1.303 1.333 1.303 1.273 1.423
1224.901 1.533 1.713 1.833 1.883 2.063 2.323 2.593 3.043 3.553 4.183
1244.191 4.783 5.343 6.103 7.113 8.143 9.133 10.343 11.663 12.893 13.713
1263.481 14.043 13.753 12.903 11.463 9.273 7.223 5.653 4.563 3.933 3.533
1282.771 3.333 3.173 3.033 2.933 2.843 2.703 2.563 2.383 2.153 1.953
1302.060 1.783 1.613 1.473 1.413 1.303 1.163 1.0996 1.0755 1.0399 1.0188
1321.350 1.0153 1.0415 1.0447 1.0265 1.0509 1.123 1.143 1.103 1.123 1.123
1340.640 1.123 1.143 1.133 1.163 1.203 1.233 1.263 1.293 1.333 1.373
1359.930 1.303 1.273 1.363 1.423 1.433 1.473 1.513 1.603 1.713 1.823
1379.219 1.973 2.083 2.193 2.323 2.433 2.553 2.713 2.873 2.983 3.113
1398.509 3.253 3.323 3.413 3.553 3.713 3.953 4.233 4.493 4.793 5.103
1417.799 5.343 5.483 5.583 5.613 5.463 5.283 5.123 4.933 4.773 4.623
1437.089 4.463 4.273 4.083 3.953 3.853 3.853 4.063 4.493 5.193 6.283
1456.378 7.893 9.803 11.633 13.063 13.743 13.713 12.913 11.413 9.553 7.793
1475.668 6.373 5.313 4.603 4.113 3.743 3.453 3.223 3.043 2.923 2.833
1494.958 2.743 2.683 2.573 2.463 2.383 2.283 2.113 2.053 2.023 1.903
1514.248 1.813 1.773 1.743 1.643 1.583 1.553 1.483 1.433 1.413 1.383
1533.538 1.383 1.403 1.463 1.453 1.383 1.453 1.513 1.603 1.783 1.993
1552.827 2.283 2.673 3.053 3.423 3.753 3.883 3.893 3.773 3.603 3.443
1572.117 3.443 3.783 4.433 5.323 6.593 8.333 10.443 12.733 14.803 16.173
1591.407 16.483 15.753 14.013 11.643 9.153 6.853 5.253 4.323 3.733 3.363
1610.697 2.973 2.593 2.243 1.883 1.573 1.323 1.183 1.0989 1.0313 1.0137
1629.986 0.9706 0.9414 0.9416 0.9465 0.9173 0.9091 0.9004 0.8699 0.8855 0.8422
1649.276 0.8228 0.7671 0.7162 0.7194 0.7374 0.727 0.6606 0.6364 0.6715 0.6882
1668.566 0.622 0.6321 0.6686 0.6172 0.5909 0.5807 0.5301 0.5691 0.6085 0.6131
1687.856 0.6151 0.5879 0.6326 0.6616 0.6558 0.6989 0.7972 0.9253 1.0337 1.113
1707.146 1.193 1.323 1.453 1.613 1.753 1.853 1.943 1.983 1.983 1.923
1726.435 1.843 1.713 1.543 1.333 1.143 1.026 0.9393 0.8328 0.7239 0.6677
1745.725 0.6445 0.5789 0.5324 0.5225 0.5065 0.4577 0.4235 0.3909 0.4092 0.4977
1765.015 0.5398 0.5053 0.4533 0.449 0.406 0.4197 0.4287 0.3588 0.3354 0.3066
1784.305 0.2555 0.2277 0.2601 0.2514 0.2034 0.2212 0.2355 0.2396 0.2376 0.2237
1803.594 0.2626 0.2972 0.2791 0.2745 0.2428 0.2545 0.3292 0.3293 0.326 0.3541
1822.884 0.3639 0.367 0.3771 0.3569 0.3288 0.348 0.387 0.4065 0.4724 0.4998
1842.174 0.4516 0.4399 0.4737 0.4351 0.3408 0.3374 0.3557 0.3576 0.3516 0.327
1861.464 0.3048 0.3331 0.3657 0.3858 0.4007 0.4291 0.4328 0.4207 0.4374 0.3884
1880.754 0.3607 0.3703 0.3461 0.3053 0.3382 0.3481 0.2765 0.3462 0.3736 0.2986
1900.043 0.326 0.413 0.4493 0.4641 0.5167 0.5333 0.516 0.5162 0.4829 0.441
1919.333 0.3616 0.3191 0.3353 0.3029 0.2751 0.2907 0.2959 0.2616 0.2666 0.2983
1938.623 0.3468 0.3674 0.4003 0.4447 0.4021 0.3434 0.3437 0.3214 0.2962 0.3299
1957.913 0.3642 0.3596 0.3596 0.4001 0.4124 0.4286 0.4772 0.5138 0.5283 0.512
1977.202 0.4518 0.4505 0.4956 0.4566 0.4043 0.4106 0.3863 0.366 0.3454 0.29
1996.492 0.3237 0.3704 0.3325 0.3241 0.3204 0.284 0.2929 0.2819 0.2843 0.3039
2015.782 0.2916 0.2991 0.3076 0.2668 0.2541 0.2663 0.2792 0.2708 0.2968 0.315
2035.072 0.2736 0.2357 0.2013 0.17568 0.2045 0.2882 0.3195 0.3071 0.2795 0.2684
2054.362 0.3133 0.3081 0.2704 0.2654 0.2729 0.2476 0.2146 0.2225 0.235 0.2748
2073.651 0.2582 0.2235 0.2134 0.20028 0.2244 0.263 0.3082 0.3136 0.3112 0.2772
2092.941 0.2306 0.2411 0.2402 0.2636 0.2527 0.2277 0.2512 0.2346 0.2263 0.3027
2112.231 0.3783 0.3457 0.2626 0.2379 0.258 0.2735 0.2562 0.2441 0.2304 0.2269
2131.521 0.2685 0.2972 0.3145 0.3189 0.2807 0.2499 0.2726 0.2935 0.2906 0.308
2150.810 0.3515 0.3148 0.2812 0.2814 0.2682 0.2699 0.2412 0.2782 0.2844 0.2724
2170.100 0.2921 0.2889 0.3214 0.3265 0.3583 0.4533 0.4428 0.3762 0.3718 0.3927
2189.390 0.3804 0.4163 0.4247 0.3352 0.3242 0.3568 0.3213 0.3002 0.3252 0.3305
2208.680 0.3076 0.3349 0.3663 0.38 0.3773 0.3453 0.3539 0.3618 0.37 0.3491
2227.970 0.3551 0.3868 0.41 0.4125 0.3797 0.4109 0.372 0.3368 0.3578 0.3275
2247.259 0.2899 0.34 0.403 0.3594 0.3735 0.4177 0.4184 0.4502 0.4564 0.4099
2266.549 0.3515 0.3128 0.3902 0.4462 0.4113 0.4284 0.4218 0.4158 0.4219 0.4174
2285.839 0.4798 0.4872 0.4786 0.5075 0.5143 0.524 0.5249 0.4969 0.4577 0.4862
2305.129 0.486 0.4852 0.4848 0.4732 0.5307 0.5052 0.4236 0.4247 0.4685 0.4719
2324.418 0.4727 0.4354 0.4372 0.5315 0.5318 0.5072 0.564 0.5911 0.5905 0.5359
2343.708 0.4993 0.4931 0.4823 0.522 0.5464 0.5594 0.514 0.5567 0.6214 0.6061
2362.998 0.5861 0.4947 0.5207 0.5331 0.4684 0.4919 0.5062 0.502 0.488 0.4982
2382.288 0.4706 0.4716 0.519 0.5241 0.4982 0.4559 0.5238 0.5847 0.5671 0.5779
2401.578 0.5917 0.559 0.5601 0.601 0.5907 0.5428 0.5357 0.5829 0.6147 0.6316
2420.867 0.6054 0.5951 0.6319 0.6056 0.5944 0.6253 0.5856 0.6244 0.6919 0.6738
2440.157 0.6947 0.6727 0.6604 0.639 0.6333 0.6249 0.5878 0.6043 0.5929 0.608
2459.447 0.6616 0.6749 0.6872 0.7017 0.6817 0.6418 0.6346 0.6777 0.7273 0.7456
2478.737 0.7322 0.6886 0.6302 0.577 0.568 0.5828 0.5696 0.5897 0.6265 0.6245
2498.026 0.6443 0.6925 0.6897 0.6607 0.6194 0.5902 0.6252 0.6725 0.6739 0.6382
2517.316 0.6536 0.6812 0.7178 0.7566 0.7348 0.7641 0.825 0.8467 0.8059 0.7312
2536.606 0.8053 0.922 0.8517 0.8246 0.8022 0.7375 0.7428 0.7994 0.7774 0.7287
2555.896 0.7902 0.8147 0.7954 0.7793 0.7564 0.6845 0.7492 0.8494 0.8027 0.7318
2575.186 0.7457 0.868 0.8621 0.7813 0.7983 0.7882 0.8058 0.9204 0.9077 0.8427
2594.475 0.8881 0.9295 0.9374 0.9254 0.8765 0.9002 0.9474 0.9528 0.9074 0.9249
2613.765 1.0107 0.9636 0.9341 0.9601 1.0098 1.0237 1.013 1.0181 1.0083 1.0497
2633.055 1.0791 0.9906 0.9605 0.9902 1.034 1.103 1.123 1.153 1.173 1.123
2652.345 1.103 1.143 1.123 1.153 1.193 1.203 1.273 1.303 1.253 1.203
2671.634 1.173 1.173 1.233 1.303 1.293 1.353 1.393 1.283 1.273 1.233
2690.924 1.233 1.303 1.293 1.293 1.343 1.403 1.423 1.413 1.373 1.363
2710.214 1.443 1.483 1.533 1.503 1.483 1.583 1.543 1.513 1.583 1.553
2729.504 1.433 1.393 1.513 1.493 1.403 1.393 1.493 1.543 1.543 1.573
2748.794 1.613 1.613 1.593 1.563 1.593 1.623 1.653 1.753 1.713 1.733
2768.083 1.733 1.813 1.853 1.713 1.723 1.743 1.803 1.863 1.783 1.663
2787.373 1.653 1.703 1.743 1.753 1.763 1.783 1.753 1.793 1.833 1.753
2806.663 1.633 1.663 1.723 1.713 1.703 1.673 1.643 1.573 1.513 1.603
2825.953 1.673 1.613 1.633 1.643 1.593 1.563 1.553 1.593 1.603 1.543
2845.242 1.623 1.713 1.793 1.843 1.713 1.723 1.773 1.703 1.673 1.743
2864.532 1.753 1.763 1.863 1.833 1.783 1.803 1.913 1.993 1.913 1.843
2883.822 1.853 1.823 1.813 1.933 1.963 1.853 1.863 2.003 1.963 1.923
2903.112 1.873 1.833 1.843 1.863 1.963 1.943 1.893 1.973 2.013 1.843
2922.401 1.723 1.803 1.713 1.743 1.903 1.863 1.963 2.073 1.953 1.883
2941.691 1.983 2.003 2.023 2.073 1.973 1.943 2.033 2.003 1.923 1.893
2960.981 1.913 2.023 2.023 1.973 1.933 1.883 1.873 1.813 1.873 1.963
2980.271 2.023 2.103 2.123 2.053 2.043 2.073 2.103 2.103 2.043 2.143
2999.561 2.223 2.253 2.273 2.283 2.363 2.473 2.563 2.563 2.643 2.713
3018.850 2.813 2.913 2.923 2.873 2.833 2.883 2.833 2.773 2.683 2.653
3038.140 2.783 2.853 2.823 2.743 2.833 3.023 3.193 3.403 3.583 3.793
3057.430 3.993 4.183 4.393 4.503 4.643 4.723 4.683 4.703 4.713 4.633
3076.720 4.443 4.263 3.953 3.623 3.233 2.833 2.593 2.513 2.483 2.373
3096.009 2.253 2.133 2.143 2.223 2.343 2.353 2.253 2.213 2.233 2.213
3115.299 2.133 2.183 2.153 2.013 1.963 1.903 2.013 1.933 1.743 1.793
3134.589 1.783 1.743 1.783 1.913 1.963 1.873 1.843 1.843 1.803 1.763
3153.879 1.773 1.783 1.753 1.783 1.713 1.713 1.843 1.703 1.543 1.543
3173.169 1.623 1.683 1.733 1.763 1.773 1.813 1.763 1.873 1.903 1.713
3192.458 1.593 1.613 1.663 1.683 1.623 1.463 1.493 1.543 1.583 1.553
3211.748 1.493 1.533 1.473 1.483 1.563 1.563 1.503 1.413 1.473 1.533
3231.038 1.443 1.403 1.353 1.393 1.433 1.333 1.233 1.193 1.293 1.413
3250.328 1.413 1.353 1.413 1.463 1.353 1.283 1.303 1.363 1.293 1.233
3269.617 1.363 1.333 1.253 1.273 1.143 1.113 1.113 1.0889 1.0818 1.0637
3288.907 1.203 1.213 1.123 1.113 1.0421 1.143 1.0927 0.9304 1.0276 1.0903
3308.197 1.103 1.0584 1.0581 0.983 0.8957 0.8959 0.8928 0.874 0.9336 1.0181
3327.487 0.959 0.931 0.8782 0.8425 0.918 0.9566 0.8738 0.832 0.842 0.8353
3346.777 0.8238 0.8547 0.8599 0.8892 0.8424 0.7727 0.8054 0.8832 0.9419 0.7852
3366.066 0.6118 0.6695 0.8319 0.8438 0.7455 0.6222 0.5212 0.7008 0.768 0.6724
3385.356 0.7293 0.7581 0.6993 0.7019 0.6915 0.6437 0.619 0.626 0.674 0.5902
3404.646 0.4783 0.5297 0.5369 0.475 0.6059 0.6641 0.6269 0.6121 0.6535 0.6822
3423.936 0.6983 0.6589 0.6163 0.7202 0.6853 0.4936 0.4335 0.5846 0.4759 0.3214
3443.225 0.4759 0.5342 0.5049 0.501 0.6065 0.5584 0.486 0.5949 0.5632 0.5709
3462.515 0.5931 0.6294 0.6042 0.5102 0.4307 0.3767 0.5082 0.5547 0.3757 0.3846
3481.805 0.4239 0.4232 0.4596 0.4255 0.4973 0.6456 0.6453 0.4606 0.4642 0.5286
3501.095 0.5912 0.6177 0.5316 0.367 0.3053 0.3993 0.4501 0.4459 0.379 0.4732
3520.385 0.5574 0.5359 0.6228 0.5799 0.461 0.5139 0.7047 0.6693 0.6241 0.6533
3539.674 0.5646 0.3912 0.3505 0.476 0.447 0.5417 0.7102 0.6973 0.4513 0.3685
3558.964 0.357 0.331 0.4566 0.5551 0.4211 0.3985 0.5038 0.4941 0.3945 0.2598
3578.254 0.3487 0.4346 0.4167 0.3668 0.4549 0.4376 0.3623 0.3999 0.3554 0.327
3597.544 0.3493 0.2788 0.2525 0.4606 0.4825 0.3098 0.3755 0.3094 0.2054 0.3309
3616.833 0.4318 0.3674 0.14705 0.2193 0.4688 0.4719 0.2986 0.3477 0.3735 0.2058
3636.123 0.2352 0.3478 0.3784 0.3024 0.3688 0.3598 0.2611 0.19512 0.1345 0.2676
3655.413 0.3273 0.18286 0.18327 0.3329 0.3252 0.3038 0.383 0.3117 0.2711 0.2793
3674.703 0.16542 0.2258 0.2912 0.2169 0.216 0.19077 0.16019 0.2642 0.3172 0.3582
3693.993 0.4579 0.3659 0.2703 0.4067 0.2669 0.16212 0.38 0.4028 0.3109 0.4106
3713.282 0.4171 0.3944 0.5098 0.5143 0.3666 0.3402 0.465 0.3749 0.2377 0.18055
3732.572 0.2289 0.3103 0.3653 0.4356 0.4169 0.3577 0.2558 0.2097 0.2567 0.2758
3751.862 0.3554 0.4813 0.4182 0.2592 0.09998 0.037 0.2465 0.5215 0.5821 0.5057
3771.152 0.3639 0.19269 0.17588 0.3145 0.2655 0.2365 0.2569 0.3415 0.4415 0.3056
3790.441 0.3052 0.3248 0.3218 0.327 0.3168 0.4165 0.2437 0.2654 0.4004 0.2916
3809.731 0.2929 0.3298 0.2995 0.284 0.2485 0.2236 0.301 0.2694 0.3396 0.3435
3829.021 0.3024 0.2627 0.14105 0.2039 0.2758 0.373 0.3291 0.19242 0.2114 0.2221
3848.311 0.3625 0.3053 0.18866 0.2843 0.3132 0.2825 0.2571 0.375 0.4251 0.3617
3867.601 0.3756 0.3293 0.2804 0.3501 0.3977 0.3581 0.2297 0.19074 0.110624 0.112606
3886.890 0.2918 0.2881 0.2372 0.2175 0.17559 0.2449 0.2403 0.2624 0.4634 0.3949
3906.180 0.3337 0.372 0.3363 0.444 0.4198 0.234 0.2464 0.3601 0.4948 0.2055
3925.470 0.17232 0.3616 0.3094 0.3442 0.4174 0.393 0.3465 0.3718 0.4044 0.5429
3944.760 0.4233 0.2373 0.2959 0.3741 0.3411 0.3124 0.3034 0.12603 0 0.287
3964.049 0.4232 0.2684 0.253 0.459 0.3954 0.3245 0.4469 0.4845 0.3591 0.2326
3983.339 0.298 0.2995 0.2349 0.2856 0.3481 0.3873 0.3392 0.3281 0.2741 0.17261
##END=
