##TITLE=p-N,N-bis(2-Chloroethyl)aminobenzoic a
##JCAMP-DX=4.24
##DATA TYPE=INFRARED SPECTRUM
##ORIGIN=NIST Mass Spectrometry Data Center
##OWNER=NIST Standard Reference Data Program
Collection (C) 2018 copyright by the U.S. Secretary of Commerce
on behalf of the United States of America. All rights reserved.
##CAS REGISTRY NO=1141-37-3
##MOLFORM=C 11 H 13 Cl 2 N O 2
##$NIST SOURCE=MSDC-IR
##SPECTROMETER/DATA SYSTEM=HP-GC/MS/IRD
##STATE=gas
##XUNITS=1/CM
##YUNITS=ABSORBANCE
##XFACTOR=1.0
##YFACTOR=0.000003500
##DELTAX=4.0
##FIRSTX=550.0
##LASTX=3846.0
##FIRSTY=0.001204
##MAXX=3846
##MINX=550
##MAXY=0.035
##MINY=0
##NPOINTS=825
##XYDATA=(X++(Y..Y))
550.0 344 585 472 496 507 559 547 457 464 571
590.0 653 611 438 242 128 97 55 25 14 7
630.0 29 43 46 36 24 20 49 114 219 362
670.0 478 538 593 711 906 1086 1196 1158 954 694
710.0 507 390 319 260 237 237 245 280 353 464
750.0 591 719 881 1134 1384 1378 1065 716 529 473
790.0 440 398 324 247 207 165 135 153 202 286
830.0 381 440 406 294 198 144 124 129 124 120
870.0 115 88 64 62 63 58 69 87 96 113
910.0 150 185 232 283 285 268 248 234 231 262
950.0 314 354 372 352 315 282 254 239 227 234
990.0 250 273 304 326 351 357 347 320 292 290
1030.0 283 265 275 306 329 384 479 580 738 1016
1070.0 1512 2444 3691 4477 4025 2663 1497 960 758 671
1110.0 636 633 651 723 829 947 1110 1299 1485 1748
1150.0 2199 2978 4296 6239 7879 7701 5727 3637 2445 1863
1190.0 1539 1361 1263 1198 1096 956 849 797 802 865
1230.0 984 1152 1302 1400 1473 1544 1580 1548 1467 1396
1270.0 1366 1334 1255 1149 1067 1035 1062 1104 1126 1151
1310.0 1227 1368 1575 1809 1998 2090 2065 2022 2120 2394
1350.0 2777 3126 3276 3074 2542 1899 1421 1190 1107 1065
1390.0 1001 883 729 589 483 430 431 457 491 493
1430.0 462 453 504 579 644 687 656 572 504 455
1470.0 422 396 395 395 382 405 476 606 848 1251
1510.0 1847 2422 2579 2161 1509 998 706 541 432 371
1550.0 353 370 413 502 587 639 687 764 923 1188
1590.0 1570 2125 2876 3778 4588 4832 4202 2987 1865 1153
1630.0 763 545 404 314 251 202 165 147 130 117
1670.0 115 111 109 117 145 172 188 204 242 319
1710.0 398 448 496 574 696 874 1158 1642 2661 4816
1750.0 7992 10000 8698 5336 2741 1558 1069 829 659 515
1790.0 397 315 248 198 181 159 139 133 117 88
1830.0 67 49 37 20 11 21 22 16 11 5
1870.0 10 21 20 26 26 32 43 51 63 70
1910.0 66 63 60 52 48 44 43 43 39 37
1950.0 37 39 43 37 26 17 11 9 4 1
1990.0 0 0 3 4 6 8 9 5 5 9
2030.0 6 5 4 1 2 7 7 2 1 5
2070.0 8 8 6 9 7 3 6 11 17 15
2110.0 10 11 15 21 24 28 39 47 46 42
2150.0 43 52 53 53 53 45 44 41 32 28
2190.0 35 39 39 45 45 48 42 40 43 47
2230.0 62 76 85 101 123 138 143 139 125 122
2270.0 132 138 133 124 116 100 82 70 61 52
2310.0 47 43 36 40 47 50 47 31 29 36
2350.0 35 34 40 46 44 41 39 33 27 29
2390.0 27 15 12 15 23 30 27 28 28 28
2430.0 28 27 26 29 30 24 20 18 11 4
2470.0 8 9 5 11 17 14 14 19 21 19
2510.0 14 18 29 30 28 29 36 34 38 41
2550.0 39 38 37 37 35 35 33 36 50 56
2590.0 47 44 54 58 53 51 51 46 40 39
2630.0 35 29 34 33 33 30 27 29 32 26
2670.0 25 30 27 24 21 26 41 48 46 46
2710.0 45 42 40 41 41 42 45 43 39 31
2750.0 31 41 49 50 54 60 59 60 68 67
2790.0 66 65 69 89 100 106 119 121 127 147
2830.0 164 172 192 211 220 237 256 255 258 270
2870.0 284 296 313 339 356 348 334 320 312 295
2910.0 278 259 246 239 228 236 246 247 272 305
2950.0 332 406 534 661 728 712 650 558 466 401
2990.0 340 294 301 347 406 443 402 303 219 171
3030.0 149 133 116 113 117 130 142 157 160 149
3070.0 143 143 152 176 179 170 168 163 170 175
3110.0 162 151 128 101 92 88 88 85 70 52
3150.0 40 50 48 33 24 33 37 29 28 23
3190.0 21 31 47 52 39 41 46 45 41 24
3230.0 28 37 26 22 34 32 25 28 33 32
3270.0 29 26 23 18 26 28 23 22 13 18
3310.0 20 24 17 5 24 37 30 34 33 27
3350.0 41 56 64 57 58 59 49 49 42 40
3390.0 37 35 37 27 32 32 31 31 26 20
3430.0 18 43 50 42 22 25 43 41 46 50
3470.0 49 62 70 67 70 80 94 92 74 71
3510.0 69 72 67 57 58 56 57 61 61 49
3550.0 57 80 115 145 187 325 660 1452 2596 3019
3590.0 2142 948 374 215 133 115 111 88 77 68
3630.0 54 46 38 43 40 28 43 51 54 50
3670.0 46 34 33 51 48 48 54 50 39 48
3710.0 61 56 61 55 40 63 60 55 53 51
3750.0 48 38 48 50 49 49 59 71 55 49
3790.0 62 56 55 50 53 62 63 65 53 54
3830.0 67 78 55 40 61
##END=
