##TITLE=p-Hexyloxybenzoic acid
##JCAMP-DX=4.24
##DATA TYPE=INFRARED SPECTRUM
##ORIGIN=EPA-IR VAPOR PHASE LIBRARY
##OWNER=SRD/NIST
Collection (C) 2018 copyright by the U.S. Secretary of Commerce
on behalf of the United States of America. All rights reserved.
##CAS REGISTRY NO=1142-39-8
##MOLFORM=C 13 H 18 O 3
##$NIST SOURCE=MSDC-IR
##STATE=gas
##XUNITS=1/CM
##YUNITS=ABSORBANCE
##XFACTOR=1.
##YFACTOR=0.001
##DELTAX=3.85796
##FIRSTX=501.5
##LASTX=4000.7
##FIRSTY=3.19
##MAXX=4000.7
##MINX=501.534
##MAXY=0.04288
##MINY=0.00008405
##NPOINTS=908
##XYDATA=(X++(Y..Y))
501.534 3.19 2.87 2.4 2.07 1.81 1.68 1.63 1.68 1.81 1.83
540.114 1.83 1.97 2.16 2.28 2.45 2.76 3.1 3.36 3.28 3
578.693 2.77 2.76 2.86 3.05 3.33 3.38 3.39 3.72 4.52 5.54
617.273 5.83 4.82 3.3 2.37 2.03 1.67 1.26 0.9229 0.7248 0.608
655.852 0.5296 0.5184 0.5403 0.5515 0.5769 0.6932 0.9012 1.25 1.73 2.22
694.432 2.62 2.79 2.78 2.63 2.37 2.1 1.84 1.61 1.45 1.36
733.011 1.23 1.05 1 1.04 1.14 1.39 1.85 2.62 3.55 4.32
771.591 4.47 3.97 3.19 2.46 1.96 1.68 1.54 1.41 1.36 1.32
810.170 1.22 1.13 1.03 1.03 1.14 1.31 1.6 2.06 2.63 3.04
848.750 3.07 2.7 2.14 1.65 1.28 1 0.8109 0.7386 0.6799 0.5959
887.330 0.566 0.5547 0.566 0.587 0.6158 0.6652 0.6828 0.7365 0.7962 0.9377
925.909 1.15 1.29 1.46 1.58 1.55 1.46 1.36 1.28 1.22 1.24
964.489 1.29 1.3 1.37 1.46 1.59 1.71 1.85 2.1 2.48 3.09
1003.068 3.94 4.96 5.78 6.11 6.13 6.02 5.78 5.43 5.03 4.76
1041.648 4.78 5.05 5.38 5.87 6.58 7.63 9.42 12.17 15.68 18.8
1080.227 19.41 16.5 11.73 7.75 5.49 4.23 3.47 3.05 2.74 2.69
1118.807 2.72 2.67 2.76 2.95 3.17 3.61 4.44 5.79 8.23 13.07
1157.387 21.46 29.98 31.34 24.04 15.32 10.8 9.8 10.38 10.65 9.46
1195.966 7.62 6.31 5.71 5.7 6.02 6.6 7.48 8.53 9.78 11.51
1234.546 13.96 17.05 20.46 23.47 25.02 24.14 20.81 16.46 12.67 9.98
1273.125 8.15 6.98 6.34 6.19 6.49 7.1 7.89 8.38 8.17 7.54
1311.705 7.12 7.13 7.38 7.74 8.01 7.79 6.89 5.74 5.01 4.87
1350.284 5.33 6.51 8.27 9.63 9.32 7.38 5.27 3.98 3.4 3.18
1388.864 2.95 2.56 2.17 1.93 1.89 2.05 2.37 2.69 2.75 2.45
1427.443 2 1.69 1.56 1.55 1.64 1.76 1.9 2.07 2.31 2.6
1466.023 3.04 3.58 3.84 3.55 2.91 2.46 2.46 2.94 4.04 6.05
1504.603 8.74 10.81 10.36 7.65 4.77 3.01 2.12 1.65 1.42 1.31
1543.182 1.26 1.26 1.31 1.41 1.58 1.87 2.31 2.86 3.43 4.06
1581.762 4.7 5.39 6.45 8.35 11.33 14.98 17.66 17.23 13.63 9.23
1620.341 6.01 4.05 2.81 2.03 1.55 1.26 1.11 1.02 0.9783 0.9545
1658.921 0.9097 0.8811 0.8632 0.8471 0.8648 0.9193 0.9833 1.07 1.18 1.27
1697.500 1.36 1.49 1.65 1.88 2.15 2.39 2.63 3.03 3.73 4.85
1736.080 6.64 9.5 14.38 22.92 35 42.88 38.41 25.52 14.93 9.31
1774.659 6.32 4.66 3.54 2.7 2.1 1.72 1.47 1.3 1.2 1.16
1813.239 1.14 1.12 1.05 0.9372 0.7932 0.6517 0.5615 0.4939 0.4198 0.3621
1851.819 0.3492 0.3459 0.3303 0.3303 0.3296 0.3373 0.353 0.363 0.3937 0.4337
1890.398 0.4776 0.5064 0.5334 0.5757 0.5982 0.6128 0.6062 0.5758 0.532 0.4978
1928.978 0.4645 0.4294 0.4227 0.4072 0.3943 0.3972 0.3872 0.4039 0.4203 0.4358
1967.557 0.4362 0.4233 0.4275 0.3948 0.3686 0.3764 0.3758 0.3431 0.3137 0.315
2006.137 0.3286 0.3372 0.34 0.3509 0.362 0.3554 0.3345 0.3204 0.3147 0.3227
2044.716 0.3334 0.3231 0.2979 0.292 0.3066 0.3212 0.3244 0.3024 0.2936 0.2914
2083.296 0.2807 0.2888 0.281 0.2792 0.2839 0.2753 0.2745 0.2496 0.2047 0.2155
2121.875 0.2423 0.2363 0.2348 0.2443 0.2484 0.2573 0.2595 0.2525 0.2598 0.2746
2160.455 0.277 0.2336 0.1905 0.1832 0.1825 0.1767 0.1579 0.1461 0.1534 0.1575
2199.035 0.1582 0.1563 0.1663 0.1644 0.1543 0.1777 0.1983 0.191 0.203 0.1985
2237.614 0.1714 0.1614 0.1643 0.1822 0.176 0.1538 0.1325 0.1202 0.1475 0.1636
2276.194 0.1649 0.1742 0.1678 0.1681 0.1648 0.15 0.1613 0.1708 0.1774 0.2049
2314.773 0.2481 0.2695 0.2476 0.2335 0.2253 0.2218 0.234 0.2372 0.2262 0.229
2353.353 0.2416 0.2432 0.2269 0.215 0.2382 0.2706 0.263 0.2295 0.2351 0.2616
2391.932 0.2534 0.2438 0.2488 0.2548 0.2619 0.2817 0.298 0.3064 0.2896 0.2714
2430.512 0.2741 0.2632 0.271 0.277 0.2457 0.2449 0.2859 0.2864 0.2782 0.2801
2469.092 0.2725 0.2774 0.2884 0.2895 0.2884 0.2842 0.2882 0.2992 0.2663 0.2542
2507.671 0.2866 0.2656 0.2634 0.3163 0.3001 0.2836 0.2967 0.3043 0.352 0.3926
2546.251 0.4052 0.4083 0.3952 0.3994 0.4 0.3856 0.3805 0.3915 0.3918 0.3604
2584.830 0.3435 0.3349 0.3432 0.352 0.3431 0.3374 0.3076 0.2906 0.2969 0.2886
2623.410 0.2755 0.2581 0.2357 0.2382 0.259 0.2567 0.2284 0.2174 0.2369 0.2422
2661.989 0.241 0.2638 0.2512 0.2244 0.2341 0.2542 0.2823 0.3 0.2784 0.2747
2700.569 0.287 0.2764 0.2825 0.2835 0.265 0.2783 0.3135 0.3383 0.3775 0.4139
2739.148 0.441 0.4515 0.4334 0.4443 0.4736 0.474 0.482 0.476 0.4542 0.4595
2777.728 0.4684 0.4433 0.4261 0.4525 0.4792 0.4857 0.5182 0.5837 0.6088 0.6451
2816.308 0.7373 0.8205 0.907 1.01 1.12 1.28 1.49 1.73 2.06 2.51
2854.887 3.1 3.77 4.41 4.93 5.28 5.49 5.56 5.58 5.51 5.23
2893.467 4.99 4.92 5.09 5.48 5.99 6.68 7.52 8.46 9.53 10.64
2932.046 11.71 12.53 12.88 12.73 12.1 11.22 10.49 10.11 10.01 9.89
2970.626 9.24 7.89 6.16 4.58 3.47 2.72 2.22 1.86 1.6 1.39
3009.205 1.21 1.09 0.9892 0.8929 0.8259 0.8241 0.7781 0.7221 0.7243 0.7376
3047.785 0.8028 0.8902 0.9471 0.9385 0.8587 0.805 0.8624 0.9594 1.05 1.08
3086.364 0.9951 0.8759 0.765 0.74 0.7552 0.7246 0.6542 0.5649 0.5282 0.5004
3124.944 0.4538 0.4033 0.3403 0.3372 0.3313 0.321 0.3062 0.2522 0.2384 0.2657
3163.524 0.2727 0.2424 0.2692 0.2648 0.2038 0.2178 0.2708 0.3118 0.291 0.2371
3202.103 0.2229 0.1945 0.1941 0.2449 0.2536 0.1975 0.1601 0.1446 0.1288 0.1172
3240.683 0.08583 0.08405 0.1336 0.1703 0.1768 0.1619 0.1419 0.1328 0.163 0.1855
3279.262 0.1586 0.15 0.1302 0.1317 0.1512 0.1522 0.128 0.1272 0.1556 0.1569
3317.842 0.1355 0.1309 0.1552 0.1724 0.1691 0.1415 0.1396 0.1157 0.1109 0.1071
3356.421 0.1033 0.1925 0.2259 0.16 0.1718 0.1838 0.1256 0.1407 0.1645 0.1388
3395.001 0.1128 0.1187 0.1541 0.1879 0.1886 0.1841 0.186 0.1657 0.1604 0.1553
3433.580 0.1536 0.1792 0.1989 0.1671 0.1509 0.1788 0.1414 0.1832 0.2396 0.2201
3472.160 0.2259 0.1921 0.2196 0.3447 0.4172 0.4253 0.4106 0.4348 0.4097 0.3497
3510.740 0.3601 0.3767 0.3145 0.247 0.3025 0.3288 0.3308 0.3352 0.3236 0.3417
3549.319 0.4003 0.4317 0.514 0.6606 0.9064 1.44 2.5 4.65 8.74 12.7
3587.899 12.3 7.69 3.42 1.59 0.9438 0.6889 0.5194 0.3828 0.3566 0.3283
3626.478 0.2668 0.2174 0.2169 0.2125 0.2103 0.236 0.2119 0.1696 0.1968 0.2286
3665.058 0.2442 0.228 0.2168 0.2354 0.212 0.2192 0.2366 0.2195 0.2106 0.1884
3703.637 0.1831 0.1887 0.1994 0.249 0.2358 0.2258 0.2417 0.2117 0.2107 0.2211
3742.217 0.2059 0.1927 0.1769 0.158 0.1526 0.122 0.1714 0.216 0.232 0.2093
3780.797 0.176 0.1628 0.1197 0.1132 0.1217 0.1434 0.1259 0.111 0.1917 0.2452
3819.376 0.2157 0.1721 0.1662 0.1769 0.2105 0.2187 0.1806 0.1815 0.2435 0.2503
3857.956 0.1645 0.2032 0.1983 0.0995 0.1111 0.1361 0.1361 0.1405 0.1717 0.1809
3896.535 0.1626 0.1831 0.2313 0.2265 0.1611 0.1199 0.1512 0.1676 0.1709 0.1963
3935.115 0.2215 0.2227 0.1739 0.1674 0.198 0.2159 0.2178 0.2008 0.1746 0.1849
3973.694 0.2375 0.2482 0.1872 0.2083 0.186 0.1794 0.2993 0.2599
##END=
