##TITLE=Bis(p-chlorophenyl)-disulfide
##JCAMP-DX=4.24
##DATA TYPE=INFRARED SPECTRUM
##ORIGIN=NIST Mass Spectrometry Data Center
##OWNER=NIST Standard Reference Data Program
Collection (C) 2018 copyright by the U.S. Secretary of Commerce
on behalf of the United States of America. All rights reserved.
##CAS REGISTRY NO=1142-19-4
##MOLFORM=C 12 H 8 Cl 2 S 2
##$NIST SOURCE=MSDC-IR
##SPECTROMETER/DATA SYSTEM=HP-GC/MS/IRD
##STATE=gas
##XUNITS=1/CM
##YUNITS=ABSORBANCE
##XFACTOR=1.0
##YFACTOR=0.000002500
##DELTAX=4.0
##FIRSTX=550.0
##LASTX=3846.0
##FIRSTY=0.001113
##MAXX=3846
##MINX=550
##MAXY=0.025
##MINY=0
##NPOINTS=825
##XYDATA=(X++(Y..Y))
550.0 445 312 190 154 87 63 62 24 36 56
590.0 0 32 55 13 20 55 76 56 4 27
630.0 82 77 81 95 67 45 32 20 16 16
670.0 28 53 97 90 85 94 87 109 125 130
710.0 128 120 121 190 297 465 859 1426 1672 1338
750.0 796 478 353 299 304 299 295 333 404 533
790.0 687 914 1293 1787 2371 3207 4237 4794 4385 3301
830.0 2250 1547 1054 706 500 354 230 188 170 125
870.0 118 109 85 93 114 114 102 93 75 60
910.0 59 69 80 87 93 92 85 68 52 64
950.0 92 121 120 98 112 129 122 132 145 158
990.0 217 357 650 1308 3055 5400 5724 3502 1392 663
1030.0 460 387 341 329 372 422 531 621 736 901
1070.0 1094 1451 2111 3426 5682 8152 9307 8362 6224 4180
1110.0 2654 1641 1053 712 493 344 253 180 129 133
1150.0 117 96 123 158 176 268 349 332 243 134
1190.0 96 101 93 102 164 228 298 298 221 140
1230.0 89 77 87 91 111 111 97 93 71 32
1270.0 8 16 29 53 79 119 139 120 98 78
1310.0 66 65 68 77 77 80 92 99 106 108
1350.0 112 135 157 189 267 359 478 650 825 949
1390.0 951 824 665 542 474 474 520 553 553 538
1430.0 530 531 547 586 660 793 1027 1532 2530 4466
1470.0 7521 10000 9083 5435 2436 1208 740 513 398 315
1510.0 250 220 187 171 167 168 174 190 237 298
1550.0 368 453 573 755 969 1146 1160 965 693 481
1590.0 357 304 279 260 259 286 309 336 381 423
1630.0 461 467 434 365 285 212 150 119 101 79
1670.0 58 38 26 15 10 23 25 22 26 39
1710.0 40 29 33 41 43 37 36 53 66 80
1750.0 103 132 157 185 204 200 148 87 59 39
1790.0 28 30 23 16 27 25 19 29 33 43
1830.0 65 78 80 72 69 71 68 71 93 129
1870.0 161 204 248 287 311 319 310 275 215 156
1910.0 117 89 80 69 51 46 43 39 35 38
1950.0 30 17 20 29 22 27 28 25 34 26
1990.0 9 6 6 1 13 14 20 15 7 18
2030.0 17 20 27 31 29 28 24 23 24 21
2070.0 23 26 26 19 17 26 28 22 28 31
2110.0 23 21 16 23 25 24 28 22 23 31
2150.0 30 25 13 7 18 22 17 21 22 24
2190.0 30 34 31 30 43 42 37 33 25 22
2230.0 33 45 37 31 41 40 41 58 58 63
2270.0 65 61 72 80 77 74 77 59 49 58
2310.0 51 38 31 25 22 24 33 31 27 33
2350.0 34 28 27 19 10 24 39 35 41 54
2390.0 55 51 51 54 41 30 26 29 28 22
2430.0 14 14 25 24 16 29 30 22 28 26
2470.0 34 32 29 42 46 47 46 51 62 59
2510.0 44 46 55 45 46 56 61 66 60 46
2550.0 47 49 52 54 55 63 66 77 86 81
2590.0 60 44 40 37 37 32 20 23 30 31
2630.0 45 57 57 62 77 89 82 69 61 64
2670.0 67 51 25 14 26 39 46 48 42 28
2710.0 2 5 14 11 10 24 41 42 40 33
2750.0 42 43 37 37 37 54 68 54 47 58
2790.0 58 62 77 82 67 52 47 46 42 47
2830.0 53 45 44 51 61 54 43 38 22 22
2870.0 34 39 35 12 38 54 37 36 29 13
2910.0 6 28 45 56 64 48 28 26 33 50
2950.0 67 58 37 24 19 31 32 39 54 60
2990.0 61 63 47 59 85 95 96 127 172 174
3030.0 155 121 114 117 109 118 140 178 237 312
3070.0 386 460 542 628 616 484 338 240 179 137
3110.0 113 92 87 90 87 67 58 68 55 37
3150.0 45 51 44 50 53 39 43 47 38 47
3190.0 42 54 52 43 35 22 14 30 45 47
3230.0 53 40 32 47 54 29 17 34 29 11
3270.0 18 22 3 1 16 48 58 68 68 38
3310.0 27 38 51 38 30 42 60 37 28 33
3350.0 12 20 40 43 35 53 55 30 22 37
3390.0 45 39 37 35 37 27 54 65 29 14
3430.0 11 19 27 38 42 33 52 64 37 31
3470.0 35 32 42 59 74 55 9 0 35 26
3510.0 33 67 48 47 55 49 27 29 47 1
3550.0 19 64 75 74 37 53 87 89 89 38
3590.0 22 57 50 45 36 21 39 48 33 40
3630.0 18 15 22 36 57 64 70 65 86 72
3670.0 34 28 37 49 62 60 68 93 89 88
3710.0 107 93 51 40 68 78 64 66 68 51
3750.0 44 52 76 97 70 54 65 50 47 61
3790.0 69 68 61 53 56 64 76 87 106 117
3830.0 98 65 67 76 49
##END=
