##TITLE=Anthralin
##JCAMP-DX=4.24
##DATA TYPE=INFRARED SPECTRUM
##ORIGIN=NIST Mass Spectrometry Data Center
##OWNER=NIST Standard Reference Data Program
Collection (C) 2018 copyright by the U.S. Secretary of Commerce
on behalf of the United States of America. All rights reserved.
##CAS REGISTRY NO=1143-38-0
##MOLFORM=C 14 H 10 O 3
##$NIST SOURCE=MSDC-IR
##SPECTROMETER/DATA SYSTEM=HP-GC/MS/IRD
##STATE=gas
##XUNITS=1/CM
##YUNITS=ABSORBANCE
##XFACTOR=1.0
##YFACTOR=0.000003600
##DELTAX=4.0
##FIRSTX=550.0
##LASTX=3846.0
##FIRSTY=0.000540
##MAXX=3846
##MINX=550
##MAXY=0.036
##MINY=0
##NPOINTS=825
##XYDATA=(X++(Y..Y))
550.0 150 187 80 80 80 65 60 88 98 105
590.0 178 337 554 776 924 898 769 604 388 262
630.0 240 239 260 257 230 196 162 163 171 189
670.0 246 313 366 393 412 422 422 444 497 568
710.0 659 775 919 1099 1319 1567 1836 2098 2310 2438
750.0 2416 2248 2076 2115 2438 2793 2783 2128 1290 758
790.0 463 326 288 309 346 388 371 283 204 149
830.0 129 114 101 88 71 62 70 93 149 215
870.0 264 249 188 138 91 69 75 107 206 442
910.0 896 1406 1601 1324 796 430 313 241 173 118
950.0 71 48 36 40 51 63 69 53 28 18
990.0 14 7 8 19 46 86 140 220 274 281
1030.0 235 137 80 76 80 101 145 250 467 756
1070.0 940 908 706 421 209 119 90 90 103 116
1110.0 120 123 148 178 209 249 312 400 526 711
1150.0 969 1387 2025 2633 2963 2815 2497 2509 2610 2465
1190.0 1948 1390 1232 1439 1974 2972 4311 5340 5405 4456
1230.0 3212 2385 1943 1588 1275 1110 1112 1245 1497 1870
1270.0 2301 2841 3636 4589 5252 5317 4680 3510 2429 1737
1310.0 1391 1304 1354 1487 1642 1723 1705 1612 1555 1689
1350.0 2036 2566 3217 3567 3238 2323 1339 814 646 596
1390.0 618 685 782 901 1026 1125 1186 1219 1259 1377
1430.0 1628 2081 2847 4008 5333 6393 6865 6228 4780 3195
1470.0 2104 1881 2227 2787 3285 3523 3425 3052 2553 2049
1510.0 1590 1224 952 761 638 572 550 569 626 697
1550.0 770 854 966 1102 1226 1330 1471 1721 2012 2284
1590.0 2675 3471 4864 6739 8730 10000 9840 8666 7431 6706
1630.0 6331 5767 4785 3607 2488 1648 1099 782 597 479
1670.0 404 354 322 305 286 264 233 195 157 125
1710.0 105 89 78 67 63 65 72 85 111 128
1750.0 126 111 94 86 84 88 90 89 92 94
1790.0 97 87 72 64 58 56 54 56 59 66
1830.0 78 92 106 106 94 74 53 37 28 22
1870.0 13 12 18 16 15 17 19 20 20 28
1910.0 29 30 35 47 74 111 148 172 160 121
1950.0 75 45 29 16 10 8 3 0 1 5
1990.0 9 6 4 5 7 4 6 3 4 5
2030.0 6 15 15 15 17 12 15 20 23 29
2070.0 34 35 34 31 28 30 28 18 10 11
2110.0 10 5 7 8 4 6 8 5 6 11
2150.0 9 4 8 11 8 10 10 11 13 9
2190.0 5 8 10 11 13 19 25 26 28 31
2230.0 33 30 26 24 26 25 18 15 10 9
2270.0 12 7 6 9 15 20 22 25 24 28
2310.0 37 38 32 33 39 40 39 39 40 39
2350.0 37 35 34 35 38 39 44 44 43 41
2390.0 33 34 38 33 25 25 26 27 27 29
2430.0 36 37 43 40 33 37 39 38 45 47
2470.0 47 51 52 52 48 46 50 52 58 65
2510.0 64 70 80 78 72 65 56 59 63 65
2550.0 64 65 71 74 83 91 106 124 130 131
2590.0 136 139 142 150 158 165 167 162 159 155
2630.0 150 144 140 134 128 123 131 143 143 147
2670.0 148 149 147 141 142 143 144 149 149 142
2710.0 143 145 148 156 161 163 170 181 190 192
2750.0 185 172 170 182 188 195 206 207 216 224
2790.0 226 224 219 220 214 210 212 208 203 204
2830.0 208 220 225 225 234 242 244 252 273 290
2870.0 291 290 292 303 316 338 374 411 434 418
2910.0 381 343 307 281 265 262 259 256 258 257
2950.0 253 244 231 228 230 233 242 249 261 275
2990.0 290 310 322 342 369 391 408 431 473 531
3030.0 599 678 779 898 1037 1164 1268 1346 1386 1409
3070.0 1420 1399 1352 1312 1283 1290 1293 1281 1278 1270
3110.0 1265 1267 1273 1263 1253 1237 1196 1164 1126 1083
3150.0 1051 1026 995 964 933 891 849 812 787 765
3190.0 739 718 706 693 687 684 685 684 677 672
3230.0 665 655 646 642 640 646 642 637 625 606
3270.0 594 583 568 549 543 538 518 501 492 480
3310.0 477 469 454 446 434 420 413 407 374 353
3350.0 352 345 339 328 305 294 287 276 268 260
3390.0 256 239 227 220 222 226 225 210 195 194
3430.0 196 201 185 172 173 166 172 168 150 145
3470.0 144 142 139 134 130 121 116 115 109 101
3510.0 99 105 106 91 80 80 75 76 87 89
3550.0 81 77 69 63 67 70 65 54 51 53
3590.0 52 49 48 45 36 43 47 40 33 31
3630.0 30 20 19 17 10 22 25 23 21 16
3670.0 23 28 24 22 17 7 7 10 10 3
3710.0 0 0 4 10 8 8 13 17 19 17
3750.0 6 11 11 10 8 15 13 7 8 15
3790.0 15 8 6 10 12 9 15 19 30 32
3830.0 14 12 24 21 22
##END=
