##TITLE=4-Nitrobenzophenone
##JCAMP-DX=4.24
##DATA TYPE=INFRARED SPECTRUM
##ORIGIN=EPA-IR VAPOR PHASE LIBRARY
##OWNER=SRD/NIST
Collection (C) 2018 copyright by the U.S. Secretary of Commerce
on behalf of the United States of America. All rights reserved.
##CAS REGISTRY NO=1144-74-7
##MOLFORM=C 13 H 9 N O 3
##$NIST SOURCE=MSDC-IR
##STATE=gas
##XUNITS=1/CM
##YUNITS=ABSORBANCE
##XFACTOR=1.
##YFACTOR=0.001
##DELTAX=1.92898
##FIRSTX=549.8
##LASTX=4000.7
##FIRSTY=0.5769
##MAXX=4000.7
##MINX=549.759
##MAXY=0.135178
##MINY=0
##NPOINTS=1790
##XYDATA=(X++(Y..Y))
549.759 0.5769 0.3068 0.361 0.57 0.3158 0.7284 1.4884 1.7884 2.0884 2.3384
569.049 2.6884 3.0484 2.6184 2.0984 2.0584 1.8184 1.6084 1.6384 1.5884 1.5884
588.339 1.4384 1.4684 1.4784 1.2084 1.2684 1.5684 1.7584 1.6484 1.3184 1.1284
607.628 1.1884 1.2784 1.5184 1.5584 1.5384 1.7984 1.8484 1.4384 1.2884 1.6584
626.918 1.7484 1.7384 1.7684 1.8784 1.9984 2.1084 2.4084 2.7084 2.8784 3.3184
646.208 4.3584 5.7984 7.9584 11.1684 14.9684 18.1184 20.0184 20.3084 18.6884 15.8684
665.498 12.9484 10.9284 9.9584 9.5884 9.6084 10.0084 10.5284 11.2384 12.2784 13.4284
684.787 14.9984 17.5684 20.2884 23.1584 26.9184 31.1784 35.8384 40.7284 46.0884 51.6084
704.077 56.6384 60.7884 62.3884 59.5684 53.7284 47.0184 40.1784 33.9384 28.9084 25.4084
723.367 23.4284 22.7284 22.5584 21.7984 20.1184 18.2284 15.4284 12.1484 9.6484 8.0084
742.657 7.2984 7.0984 7.2684 7.4984 7.7484 7.9484 7.8184 7.3684 6.8184 6.2484
761.947 5.3784 4.4784 3.6184 3.2584 3.2384 3.1484 3.3684 3.6384 3.5984 3.4984
781.236 3.3484 3.3984 3.4984 3.7484 4.3184 4.6584 4.9184 4.9084 4.7684 4.6884
800.526 4.2384 3.9184 3.7384 3.4084 3.2884 3.4284 3.4784 3.6484 3.9684 4.2484
819.816 4.4784 4.7284 5.2184 5.8784 6.9384 8.5284 10.1884 12.2884 15.2084 19.1884
839.106 25.0384 33.4584 45.1384 58.0784 67.5084 70.3284 67.6284 60.3084 48.4084 36.6684
858.395 29.2784 25.7184 24.2284 23.1584 21.5384 19.3984 16.7484 14.2984 12.1584 9.7784
877.685 7.9184 6.5884 5.8484 5.6484 5.0584 4.5884 4.7684 4.8084 4.6684 4.7984
896.975 5.1284 5.2084 5.4784 5.9284 6.6484 7.8184 9.2484 11.0884 13.5784 16.8284
916.265 20.6084 24.5484 28.2984 31.4284 33.8584 35.8084 37.2584 38.7184 40.2384 40.9384
935.555 39.7984 36.4484 31.1684 24.3984 17.5384 12.1984 8.6984 6.6784 5.5284 4.6684
954.844 4.1784 4.0084 3.9884 3.9784 3.8684 4.0984 4.4584 4.5884 4.5284 4.3284
974.134 4.1084 3.4884 2.6984 2.2284 2.0484 1.7884 1.6684 1.6384 1.3784 1.5584
993.424 2.0584 2.8884 3.8884 4.8384 5.0384 4.9384 4.8284 4.2984 4.9684 6.6384
1012.714 8.5184 9.5884 9.7184 9.4584 8.2384 6.3984 4.9484 4.1184 3.5484 3.1684
1032.003 2.6284 1.9684 1.7184 1.2384 0.8386 1.0584 0.9652 0.6857 0.5909 0.8555
1051.293 1.2584 1.2884 1.1684 1.1584 1.3284 1.3884 1.5284 1.9884 2.2684 2.6084
1070.583 3.2284 3.2784 2.8784 2.7884 2.6084 2.7384 2.9284 2.8884 2.6484 2.7784
1089.873 3.5684 3.5684 3.7684 4.5984 4.6384 5.0984 5.9884 6.2184 6.1684 6.1484
1109.163 5.8984 4.9684 4.2384 3.8284 3.2984 3.0884 3.2484 3.1084 2.8384 2.5584
1128.452 2.8984 3.3984 3.5484 3.8484 3.9284 4.4984 5.1284 5.5584 5.9684 5.8384
1147.742 6.1184 5.9684 5.3984 5.3084 4.9684 4.8484 5.1084 5.0384 5.0384 5.6084
1167.032 6.3684 6.8084 7.5684 8.4984 9.6484 11.3984 12.8184 13.6084 13.2284 12.0184
1186.322 10.1584 7.6684 5.8384 4.7784 4.0884 3.5984 3.3584 3.2984 3.6984 3.8284
1205.611 3.8784 4.2284 4.5784 5.2484 5.6084 6.4684 7.3684 8.0784 9.1984 10.3284
1224.901 12.0284 14.1284 16.6184 19.1984 21.4484 23.5384 24.8784 25.9384 26.5984 26.9784
1244.191 28.3484 30.0184 32.4084 36.1484 40.6284 46.4284 54.1684 63.9184 75.6884 89.3084
1263.481 104.258 118.858 130.008 135.178 133.588 125.398 111.688 95.3584 79.5284 66.0784
1282.771 56.0484 49.4284 45.7184 44.0084 43.6384 44.3384 44.9184 44.7484 43.6584 41.5484
1302.060 38.6384 35.6384 33.5784 32.8784 33.4684 34.5684 35.2484 35.0784 34.0484 32.3484
1321.350 30.3384 28.6484 27.9384 28.1984 29.2384 31.0284 33.5684 36.8284 40.7184 45.4184
1340.640 51.0284 57.3484 64.1784 71.0884 77.3284 81.8484 83.6084 82.1184 77.4784 70.1384
1359.930 61.2484 52.4184 44.5884 38.1884 33.1584 29.1184 25.6884 22.7684 20.2184 17.9884
1379.219 16.1184 14.6484 13.4384 12.4184 11.5384 10.7984 10.1684 9.5884 9.3184 9.2484
1398.509 9.3984 9.7584 9.8984 9.8784 9.5884 8.9584 8.1784 7.3284 6.6284 6.0584
1417.799 5.6184 5.2884 5.0284 4.8984 4.8084 4.7984 4.8684 4.9884 5.2884 5.6784
1437.089 6.2884 7.1284 8.2684 9.8584 11.4784 12.6784 12.9684 12.4184 11.3284 9.6384
1456.378 7.7084 6.2084 5.3884 4.9584 4.6984 4.4684 4.4284 4.5484 4.7184 4.9284
1475.668 5.2284 5.6884 6.1184 6.6284 7.1984 7.7484 8.3384 8.8784 9.4384 10.0484
1494.958 10.8184 11.7284 12.6684 13.6884 14.7684 15.8484 16.9884 18.0284 19.1784 20.5984
1514.248 22.1484 23.9584 26.1184 28.7084 31.8584 35.4884 40.0384 45.4884 51.8584 59.1984
1533.538 67.3384 75.7784 83.5184 90.3184 94.9084 96.2984 94.2684 88.8984 80.9484 71.2284
1552.827 61.3084 51.7084 43.6084 36.8684 31.2884 27.4484 24.8184 23.1584 22.1584 21.5384
1572.117 21.4584 21.7784 22.2884 22.8284 23.5584 24.3184 25.0984 26.1584 27.3784 28.6584
1591.407 30.1284 31.7484 33.3784 34.7284 35.4384 35.2784 34.1784 32.2484 29.5784 26.3884
1610.697 23.0884 19.8084 17.0184 14.5784 12.4084 10.9184 9.8384 8.9684 8.4284 8.1384
1629.986 7.9484 7.7884 7.6184 7.5384 7.5284 7.4584 7.4184 7.3884 7.4884 7.6984
1649.276 7.8484 8.1184 8.4884 8.6884 9.0684 9.8484 10.8884 12.1884 13.9884 16.3784
1668.566 19.8584 24.6984 31.0584 39.4384 49.9484 61.2784 72.7784 82.2484 88.3084 90.8784
1687.856 89.7984 84.7084 75.8584 65.1784 53.8384 43.4284 35.0284 27.4884 21.9984 17.7484
1707.146 14.7684 12.5384 10.8184 9.5184 8.5184 7.7584 7.1384 6.6884 6.4184 6.1384
1726.435 5.9084 5.7484 5.5184 5.1784 4.8584 4.4384 3.9384 3.4484 3.0184 2.6284
1745.725 2.4384 2.2884 2.1284 1.9884 1.9084 1.8884 1.8884 1.8884 1.8984 1.8984
1765.015 1.8784 1.9084 1.9484 1.9684 1.9584 1.9784 1.9984 1.9884 1.9584 1.9484
1784.305 1.9284 1.8784 1.9384 2.0784 2.2984 2.5284 2.7584 2.9884 3.2184 3.5084
1803.594 3.7184 3.7284 3.6584 3.5284 3.3484 3.0784 2.7184 2.4284 2.1384 1.8484
1822.884 1.6884 1.6284 1.5284 1.4684 1.3784 1.2884 1.2684 1.1984 1.0984 1.0277
1842.174 0.9807 0.9471 0.8759 0.8791 0.925 0.8186 0.7665 0.7811 0.7236 0.7029
1861.464 0.748 0.7216 0.6778 0.654 0.6516 0.6934 0.7011 0.7429 0.781 0.8255
1880.754 0.8912 0.9139 0.9597 1.0684 1.2284 1.3084 1.3084 1.3084 1.3784 1.5684
1900.043 1.6184 1.5884 1.6784 1.7884 1.7884 1.8184 1.8084 1.7384 1.7784 1.8684
1919.333 1.9384 2.0184 2.0684 2.0284 2.0284 2.1484 2.2584 2.1784 2.1084 2.1584
1938.623 2.1084 2.0384 1.9584 1.8784 1.8784 1.9284 1.8784 1.8284 1.8184 1.8084
1957.913 1.8684 1.7584 1.6184 1.6684 1.6484 1.5484 1.5384 1.5384 1.4484 1.2884
1977.202 1.0984 0.8977 0.7527 0.6569 0.5801 0.5657 0.5976 0.6006 0.619 0.5942
1996.492 0.576 0.5702 0.5733 0.5422 0.4505 0.4696 0.4864 0.4608 0.4491 0.4159
2015.782 0.3285 0.3207 0.3084 0.2816 0.2988 0.3141 0.3262 0.3003 0.2829 0.3341
2035.072 0.3736 0.2997 0.2452 0.2103 0.1911 0.2521 0.3194 0.2969 0.2366 0.2083
2054.362 0.2677 0.2693 0.2345 0.3328 0.3814 0.3429 0.342 0.3237 0.3069 0.3234
2073.651 0.2536 0.24 0.3185 0.3223 0.2988 0.2645 0.2352 0.262 0.3036 0.3042
2092.941 0.2537 0.1771 0.1695 0.1711 0.2346 0.2772 0.2797 0.281 0.2206 0.2631
2112.231 0.2217 0.2086 0.2934 0.3026 0.3752 0.2887 0.2389 0.2486 0.2002 0.1843
2131.521 0.2307 0.334 0.2843 0.231 0.2443 0.2316 0.2476 0.2189 0.1834 0.189
2150.810 0.1959 0.2382 0.1569 0.1537 0.158 0.09993 0.1664 0.228 0.214 0.1613
2170.100 0.11754 0.09407 0.11225 0.08619 0.0171 0.1559 0.3044 0.3457 0.337 0.2422
2189.390 0.2436 0.2306 0.2003 0.2018 0.2311 0.3361 0.3924 0.3943 0.4241 0.5583
2208.680 0.547 0.4122 0.3414 0.3769 0.4264 0.3476 0.3069 0.2542 0.3205 0.4235
2227.970 0.3655 0.2894 0.3028 0.2832 0.2443 0.2931 0.3161 0.2918 0.2866 0.3066
2247.259 0.2881 0.2888 0.3268 0.3848 0.4238 0.3901 0.3078 0.3108 0.3517 0.3868
2266.549 0.411 0.3808 0.4551 0.5664 0.5755 0.5529 0.6898 0.8128 0.7431 0.6293
2285.839 0.5337 0.433 0.4419 0.4986 0.4726 0.5127 0.4649 0.4036 0.4325 0.3428
2305.129 0.3409 0.4437 0.4599 0.4444 0.423 0.4801 0.5732 0.6576 0.6473 0.6523
2324.418 0.67 0.5984 0.5228 0.3973 0.4505 0.5385 0.5348 0.5839 0.5707 0.6155
2343.708 0.6742 0.5999 0.5034 0.4389 0.4713 0.5641 0.5617 0.4198 0.3295 0.4581
2362.998 0.5671 0.5473 0.5294 0.5289 0.5179 0.5474 0.6186 0.7061 0.7243 0.7081
2382.288 0.7458 0.7658 0.7392 0.6936 0.7722 0.8171 0.7671 0.7401 0.7774 0.8512
2401.578 0.8619 0.8829 0.9477 0.95 0.9653 1.0101 0.9224 0.8993 0.9011 0.7534
2420.867 0.6996 0.7146 0.6838 0.661 0.6544 0.5585 0.5284 0.6026 0.5722 0.5286
2440.157 0.5819 0.7122 0.7273 0.7015 0.7006 0.7398 0.7381 0.5714 0.5766 0.7195
2459.447 0.7298 0.7251 0.7608 0.7626 0.6707 0.6391 0.6024 0.5675 0.5622 0.538
2478.737 0.5798 0.4909 0.3793 0.3211 0.2984 0.3544 0.3138 0.2806 0.3605 0.3223
2498.026 0.3288 0.3386 0.3149 0.407 0.4532 0.4152 0.4008 0.3791 0.3683 0.3676
2517.316 0.2963 0.2432 0.2261 0.2346 0.2977 0.3358 0.2896 0.2595 0.2942 0.2998
2536.606 0.2582 0.2031 0.2621 0.3549 0.3334 0.3229 0.2962 0.2713 0.3257 0.3732
2555.896 0.3616 0.3873 0.3929 0.4293 0.4451 0.427 0.4462 0.4588 0.4424 0.3839
2575.186 0.4514 0.5127 0.4663 0.5129 0.6326 0.5183 0.4742 0.5313 0.4948 0.6093
2594.475 0.6093 0.5612 0.5656 0.598 0.6666 0.6065 0.5708 0.6068 0.6141 0.5583
2613.765 0.5176 0.53 0.5393 0.5287 0.5191 0.5971 0.6834 0.6478 0.6139 0.5519
2633.055 0.4406 0.4898 0.5906 0.5769 0.5452 0.5465 0.4816 0.4536 0.5413 0.6415
2652.345 0.6809 0.5705 0.5183 0.5369 0.5632 0.6317 0.5312 0.4773 0.5715 0.6975
2671.634 0.8014 0.724 0.7358 0.838 0.83 0.8063 0.7462 0.7646 0.9134 0.917
2690.924 0.8581 0.7683 0.865 1.0784 0.903 0.9193 1.1784 1.0384 0.9105 1.0287
2710.214 1.0484 0.9381 0.8824 0.8273 0.7805 0.9614 1.0312 0.8753 0.8204 0.8471
2729.504 0.7246 0.7132 0.794 0.8205 0.8659 0.9336 0.9781 1.0484 1.0158 0.8524
2748.794 0.8645 0.8958 0.8437 0.8013 0.7668 0.6769 0.6818 0.6666 0.5834 0.6555
2768.083 0.5946 0.5466 0.6795 0.759 0.6611 0.5822 0.6457 0.5621 0.5107 0.4656
2787.373 0.5263 0.6721 0.6192 0.5817 0.632 0.5154 0.4315 0.4588 0.448 0.4873
2806.663 0.502 0.4096 0.5786 0.6147 0.4744 0.6023 0.6696 0.6976 0.5792 0.4916
2825.953 0.5682 0.697 0.8526 0.8788 0.9253 1.1084 1.1784 1.1584 1.0784 1.1684
2845.242 1.3284 1.3184 1.4284 1.5884 1.6784 1.7184 1.8784 1.9784 2.1084 2.2484
2864.532 2.1784 2.2184 2.3584 2.3684 2.3784 2.3884 2.2384 2.1384 2.3284 2.3284
2883.822 2.1984 2.2584 2.2884 2.1984 1.9984 1.9184 1.8584 1.6684 1.6584 1.7184
2903.112 1.5784 1.4084 1.3484 1.3684 1.3984 1.4184 1.3284 1.1584 1.0684 1.0884
2922.401 1.0384 1.1084 1.1984 1.1884 1.1984 1.1484 1.1084 1.0124 1.025 1.1184
2941.691 1.0784 1.0191 0.9981 1.1384 1.1884 1.0137 0.9027 1.0331 1.1284 1.0307
2960.981 0.9267 0.8758 0.9785 0.9613 0.8377 0.8345 0.8186 0.9055 0.9023 0.798
2980.271 0.7359 0.7196 0.7742 0.7258 0.6648 0.7109 0.8885 0.9811 0.9028 0.8054
2999.561 0.8972 1.0684 1.1084 1.1884 1.2884 1.4184 1.6384 1.6984 1.8784 2.0684
3018.850 2.3284 2.7684 3.1184 3.5784 3.9084 4.3284 4.9684 5.5584 5.9984 6.3484
3038.140 6.4984 6.3784 6.2784 5.9484 5.6584 5.4484 5.0884 5.1284 5.4984 5.9184
3057.430 6.5784 7.3584 8.5384 10.0184 11.4584 13.2184 15.0184 16.4784 17.0684 16.7584
3076.720 16.0784 14.7384 13.1084 12.0284 11.7284 11.5584 11.1184 10.4284 9.6784 8.9184
3096.009 8.0284 7.0584 6.2584 5.7184 5.2884 4.7784 4.2084 3.7384 3.3184 2.8484
3115.299 2.3384 1.9784 1.7884 1.4784 1.2884 1.2584 1.1584 0.9436 0.7662 0.851
3134.589 1.0384 1.1084 1.1484 1.2384 1.0784 1.017 1.1484 1.0584 1.0048 0.9691
3153.879 0.7256 0.6852 0.7733 0.8113 1.0108 1.0784 0.9679 0.8355 0.7275 0.6326
3173.169 0.5413 0.5783 0.7191 0.6691 0.5166 0.549 0.7107 0.6522 0.4844 0.5405
3192.458 0.5036 0.4927 0.5377 0.5873 0.7248 0.5748 0.4172 0.5762 0.5845 0.6292
3211.748 0.7243 0.5495 0.2056 0.3054 0.4313 0.2905 0.3465 0.4705 0.3448 0.2871
3231.038 0.4926 0.428 0.5212 0.649 0.3889 0.2969 0.5593 0.6551 0.4577 0.1558
3250.328 0.11217 0.2458 0.4284 0.5558 0.4487 0.3703 0.4564 0.6033 0.5636 0.4448
3269.617 0.4416 0.6181 0.5858 0.468 0.3126 0.1887 0.2882 0.2818 0.361 0.5147
3288.907 0.5763 0.5969 0.722 0.7564 0.5512 0.6397 0.7158 0.4552 0.4737 0.573
3308.197 0.6275 0.5335 0.4548 0.5885 0.6243 0.56 0.6116 0.7258 0.7816 0.7372
3327.487 0.6965 0.8306 0.7441 0.6536 0.9031 1.2284 1.3984 1.4384 1.5684 1.8584
3346.777 2.0584 2.0084 1.9584 1.9184 1.7084 1.8184 1.8784 1.5684 1.3484 1.1884
3366.066 1.1484 1.3384 1.2584 1.0091 0.8754 0.6437 0.5616 0.7589 0.7737 0.9534
3385.356 0.9526 0.6977 0.7945 0.683 0.4929 0.4926 0.5852 0.7081 0.6201 0.4899
3404.646 0.5162 0.5773 0.5659 0.429 0.3057 0.3934 0.6914 0.5845 0.4761 0.5688
3423.936 0.3689 0.5365 0.6413 0.3338 0.3989 0.2999 0.3615 0.5098 0.2957 0.1922
3443.225 0.1921 0.3264 0.44 0.4169 0.3658 0.3292 0.3699 0.3462 0.1963 0.05984
3462.515 0.11177 0.3579 0.5286 0.4067 0.3222 0.4071 0.4244 0.4099 0.382 0.4795
3481.805 0.4571 0.3535 0.3589 0.3859 0.2751 0.3095 0.5957 0.4115 0.1216 0.0029
3501.095 0.1962 0.4648 0.2518 0.2315 0.4119 0.4451 0.5084 0.4776 0.4803 0.4387
3520.385 0.5523 0.6937 0.4879 0.3386 0.1959 0.195 0.2453 0.1816 0.2745 0.3297
3539.674 0.2266 0.2803 0.1774 0.2552 0.4955 0.4908 0.4752 0.3178 0.0259 0.002
3558.964 0.1581 0.3199 0.4116 0.4593 0.355 0.11035 0.3373 0.312 0.08416 0.1976
3578.254 0.3285 0.4579 0.3801 0.2986 0.361 0.3857 0.4111 0.3248 0.12601 0.1479
3597.544 0.2294 0.296 0.3352 0.3033 0.4013 0.3781 0.4796 0.6827 0.6807 0.5455
3616.833 0.4616 0.4873 0.3245 0.3148 0.4352 0.5984 0.6075 0.5205 0.5263 0.3037
3636.123 0.3558 0.5146 0.2801 0.2271 0.4915 0.591 0.4525 0.3739 0.3648 0.4429
3655.413 0.4083 0.3379 0.3058 0.175 0.2138 0.3597 0.5122 0.5853 0.5733 0.5406
3674.703 0.6638 0.5738 0.4139 0.4244 0.3823 0.6642 0.8507 0.6997 0.6118 0.5735
3693.993 0.698 0.833 0.6683 0.4778 0.5478 0.4288 0.4109 0.5847 0.6362 0.6006
3713.282 0.4401 0.3731 0.5876 0.6276 0.446 0.5639 0.7008 0.7043 0.7987 0.6691
3732.572 0.5105 0.7582 0.7974 0.7471 0.5816 0.4078 0.3774 0.427 0.7556 0.9814
3751.862 0.9381 0.722 0.5601 0.744 0.6484 0.4856 0.5133 0.4812 0.5283 0.6341
3771.152 0.6066 0.5448 0.5197 0.4743 0.3679 0.2394 0.4871 0.6407 0.5682 0.6078
3790.441 0.7914 0.7424 0.6025 0.6619 0.3969 0.2512 0.2127 0.12172 0.3964 0.4692
3809.731 0.2955 0.3844 0.5745 0.5075 0.3717 0.4544 0.5398 0.3853 0.4609 0.6232
3829.021 0.6992 0.6089 0.3854 0.3991 0.4284 0.4853 0.4311 0.5807 0.59 0.3503
3848.311 0.4206 0.2911 0.3715 0.4733 0.44 0.6843 0.7098 0.4773 0.32 0.2138
3867.601 0.1995 0.3372 0.4762 0.4925 0.4359 0.4419 0.3924 0.405 0.4363 0.3579
3886.890 0.2727 0.3645 0.6099 0.6304 0.5826 0.4447 0.3296 0.3123 0.3415 0.2939
3906.180 0.3378 0.2563 0 0.0673 0.2696 0.5941 0.7495 0.754 0.5749 0.5989
3925.470 0.6655 0.494 0.47 0.4374 0.225 0.2185 0.3371 0.3064 0.3624 0.5894
3944.760 0.7602 0.7636 0.5494 0.2419 0.2766 0.4692 0.3497 0.394 0.7 0.5036
3964.049 0.3109 0.3601 0.3489 0.3538 0.1897 0.1829 0.4467 0.5676 0.5468 0.6008
3983.339 0.4586 0.2859 0.4132 0.4766 0.4775 0.7963 0.6645 0.1645 0.3213 0.5598
##END=
