##TITLE=Diethyl 4-Methoxybenzylphosphonate
##JCAMP-DX=4.24
##DATA TYPE=INFRARED SPECTRUM
##ORIGIN=EPA-IR VAPOR PHASE LIBRARY
##OWNER=SRD/NIST
Collection (C) 2018 copyright by the U.S. Secretary of Commerce
on behalf of the United States of America. All rights reserved.
##CAS REGISTRY NO=1145-93-3
##MOLFORM=C 12 H 19 O 4 P
##$NIST SOURCE=MSDC-IR
##STATE=gas
##XUNITS=1/CM
##YUNITS=ABSORBANCE
##XFACTOR=1.
##YFACTOR=0.001
##DELTAX=1.92934
##FIRSTX=549.9
##LASTX=3999.5
##FIRSTY=36.06
##MAXX=3999.53
##MINX=549.863
##MAXY=0.44274
##MINY=0
##NPOINTS=1789
##XYDATA=(X++(Y..Y))
549.863 36.06 38.36 41.48 45.21 49.32 53.62 57.11 59.12 59.47 57.62
569.156 53.82 48.55 42.71 37.06 31.81 27.48 24.01 21.18 18.75 16.77
588.450 15.19 13.84 12.84 12.01 11.28 10.66 10.1 9.57 9.12 8.8
607.743 8.5 8.2 7.96 7.73 7.46 7.26 7.15 7.03 6.97 6.91
627.037 6.9 7.01 7.23 7.58 7.79 7.82 7.86 7.7 7.37 7.13
646.330 7.01 6.91 6.87 6.89 6.91 6.99 7.06 7.07 7.1 7.19
665.624 7.34 7.46 7.62 7.71 7.85 8.1 8.3 8.55 8.87 9.17
684.917 9.51 9.8 10.03 10.29 10.6 10.83 10.97 10.93 10.78 10.59
704.210 10.44 10.46 10.61 10.93 11.51 12.24 13.23 14.4 15.55 16.71
723.504 17.77 18.62 19.22 19.56 19.6 19.49 19.38 19.34 19.51 19.92
742.797 20.64 21.73 23.13 24.71 26.26 27.64 28.89 30.14 31.64 33.65
762.091 36.37 40.02 44.67 50.52 57.7 66.04 75.25 84.65 93.28 100.06
781.384 104.06 104.82 102.33 96.96 89.6 81.32 72.92 65.1 58.43 52.97
800.678 48.79 45.86 43.82 42.57 42.04 42.06 42.56 43.42 44.45 45.56
819.971 46.88 48.38 50.26 52.69 55.64 59.07 62.84 66.97 71.52 76.48
839.264 81.77 86.93 91.34 94.49 95.78 94.83 91.57 86.11 78.67 69.79
858.558 60.46 51.65 44.07 37.96 33.16 29.49 26.77 24.73 23.22 22.1
877.851 21.28 20.67 20.32 20.14 20.08 20.19 20.38 20.72 21.26 21.92
897.145 22.69 23.66 24.81 26.09 27.6 29.39 31.4 33.72 36.44 39.52
916.438 43.17 47.47 52.48 58.34 65.26 73.43 82.94 94.08 107.04 121.67
935.732 137.69 154.59 171.42 187.08 200.54 210.94 217.85 221.21 221.11 217.73
955.025 211.45 202.62 191.65 179.1 165.49 151.43 137.51 124.15 111.74 100.62
974.318 90.81 82.32 75.2 69.4 64.8 61.3 58.79 57.19 56.42 56.44
993.612 57.25 58.9 61.33 64.55 68.84 74.45 81.53 90.41 101.18 113.31
1012.905 126.92 142.88 161.4 182.74 207.71 236.56 268.66 302.88 337.52 370.56
1032.199 399.68 422.53 437.27 442.74 439.14 427.8 410.95 391.68 372.64 355.88
1051.492 342.68 333.16 326.5 321.04 314.87 306.25 293.95 277.74 258.04 236.22
1070.786 213.9 192.46 173.07 156.44 142.7 131.77 123.55 117.86 114.63 113.57
1090.079 114.37 116.47 119.03 120.87 120.65 117.62 111.74 103.73 94.69 85.87
1109.372 78.09 71.63 66.4 62.1 58.6 55.77 53.47 51.62 50.06 48.68
1128.666 47.53 46.48 45.49 44.67 43.93 43.21 42.78 42.51 42.44 42.58
1147.959 42.77 43.14 43.67 44.25 44.74 45.5 46.61 48.15 50.46 54
1167.253 59.18 66.31 75.26 84.68 92.11 95.43 94.37 89.13 80.61 71.35
1186.546 63.47 57.1 51.81 47.13 42.92 39.12 35.89 33.77 32.68 32.34
1205.840 32.6 33.4 34.7 36.34 38.36 40.78 43.73 47.21 51.59 57.26
1225.133 64.35 73.17 83.93 96.79 112.02 129.74 150.1 173.64 199.96 227.07
1244.426 251.62 269.37 276.99 273.43 260.51 242.36 224.12 210.24 202.69 200.88
1263.720 202.67 205.74 207.79 206.84 202.34 195.09 186.36 177.77 170.22 163.74
1283.013 158.06 152.46 146.2 138.89 130.43 121.23 111.63 101.82 92.04 82.34
1302.307 72.95 64.19 56.34 49.6 44.12 39.81 36.45 33.79 31.56 29.59
1321.600 27.78 25.98 24.14 22.4 20.83 19.43 18.25 17.24 16.4 15.71
1340.894 15.13 14.65 14.25 13.96 13.75 13.65 13.69 13.87 14.14 14.54
1360.187 15.13 15.95 17.03 18.26 19.49 20.59 21.33 21.63 21.8 22.08
1379.480 22.71 23.86 25.67 28.15 31.2 34.59 37.69 39.87 40.84 40.58
1398.774 39.23 37.21 35.09 33.28 31.86 30.65 29.37 27.89 26.28 24.72
1418.067 23.32 22.2 21.46 20.94 20.67 20.69 20.96 21.48 22.3 23.39
1437.361 24.9 26.8 28.92 30.87 32.21 32.71 32.51 31.71 30.69 30.06
1456.654 30.06 30.81 32.01 33.52 35.28 36.87 37.74 37.65 36.65 34.98
1475.948 33.02 31.22 30.08 29.75 30.1 30.99 32.54 34.8 37.94 42.25
1495.241 48.3 57 69.25 86.44 109.85 140.13 177.9 215.5 241.86 249.82
1514.534 237.12 206.18 163.25 119.23 82.43 59.02 44.19 34.75 28.43 23.93
1533.828 20.62 18.12 16.21 14.67 13.41 12.44 11.7 11.12 10.62 10.27
1553.121 10.07 9.9 9.77 9.69 9.77 9.94 10.17 10.56 11.08 11.79
1572.415 12.7 13.64 14.74 15.99 17.12 18.1 18.88 19.34 19.61 19.92
1591.708 20.4 21.31 22.83 24.95 27.68 30.89 34.24 37.41 40.06 41.7
1611.002 41.94 40.68 38.13 34.45 30.36 26.43 22.74 19.61 17.16 15.23
1630.295 13.74 12.59 11.64 10.85 10.24 9.75 9.31 8.91 8.55 8.23
1649.588 7.95 7.65 7.39 7.26 7.1 6.92 6.79 6.69 6.62 6.54
1668.882 6.42 6.32 6.29 6.24 6.19 6.12 6.04 5.96 5.88 5.89
1688.175 5.87 5.83 5.77 5.69 5.62 5.59 5.51 5.46 5.46 5.47
1707.469 5.47 5.46 5.47 5.45 5.45 5.5 5.57 5.67 5.75 5.82
1726.762 5.9 5.99 6.03 6.05 6.14 6.29 6.42 6.53 6.68 6.88
1746.056 7.07 7.27 7.45 7.58 7.65 7.62 7.52 7.39 7.21 7.04
1765.349 6.89 6.7 6.56 6.46 6.36 6.28 6.2 6.14 6.11 6.09
1784.642 6.08 6.08 6.05 5.99 5.94 5.94 5.98 5.98 5.94 5.93
1803.936 5.93 5.97 5.99 6 6.01 6.02 6.02 6.03 6.05 6.06
1823.229 6.06 6.07 6.08 6.08 6.11 6.15 6.17 6.2 6.23 6.26
1842.523 6.31 6.4 6.46 6.48 6.5 6.52 6.57 6.57 6.52 6.51
1861.816 6.57 6.63 6.7 6.78 6.88 7.02 7.13 7.18 7.21 7.16
1881.110 7.03 6.83 6.61 6.37 6.11 5.88 5.7 5.48 5.3017 5.2006
1900.403 5.0889 4.9988 4.9107 4.8221 4.7483 4.6936 4.6489 4.5912 4.49647 4.39387
1919.696 4.323 4.256 4.188 4.159 4.114 4.051 4.02 3.986 3.981 3.932
1938.990 3.879 3.887 3.872 3.861 3.867 3.855 3.842 3.855 3.892 3.933
1958.283 3.954 3.995 4.084 4.172 4.234 4.3106 4.3744 4.4441 4.5248 4.5928
1977.577 4.6545 4.685 4.7091 4.7406 4.7253 4.6836 4.6466 4.6014 4.543 4.47383
1996.870 4.4156 4.3791 4.3351 4.297 4.272 4.22 4.226 4.278 4.323 4.3862
2016.164 4.4476 4.5106 4.5751 4.6778 4.7972 4.8541 4.8964 4.9382 4.9801 5.0057
2035.457 5.0053 5.0243 5.0367 5.0292 5.0349 5.0618 5.0924 5.1126 5.1283 5.1704
2054.750 5.2168 5.2614 5.2973 5.336 5.3661 5.3934 5.42 5.42 5.45 5.48
2074.044 5.49 5.48 5.45 5.42 5.3535 5.2416 5.1131 4.9402 4.7285 4.5279
2093.337 4.3602 4.165 3.944 3.753 3.599 3.49 3.39 3.31 3.25 3.14
2112.631 3.05 2.98 2.92 2.88 2.83 2.8 2.79 2.78 2.76 2.74
2131.924 2.71 2.67 2.66 2.65 2.63 2.62 2.61 2.59 2.57 2.57
2151.218 2.55 2.52 2.53 2.54 2.52 2.5 2.5 2.49 2.48 2.48
2170.511 2.46 2.46 2.47 2.48 2.49 2.47 2.48 2.49 2.49 2.5
2189.804 2.52 2.53 2.54 2.57 2.55 2.54 2.54 2.56 2.54 2.54
2209.098 2.57 2.56 2.57 2.6 2.6 2.59 2.6 2.61 2.61 2.61
2228.391 2.6 2.58 2.58 2.6 2.64 2.66 2.66 2.7 2.73 2.74
2247.685 2.75 2.8 2.83 2.87 2.93 2.93 2.91 2.93 2.96 2.98
2266.978 2.99 3 3.03 3.07 3.1 3.1 3.1 3.14 3.18 3.18
2286.272 3.22 3.26 3.26 3.27 3.26 3.23 3.23 3.19 3.16 3.16
2305.565 3.17 3.15 3.09 3.06 3.1 3.08 3.03 3.04 3.06 3.08
2324.858 3.09 3.1 3.11 3.11 3.08 3.09 3.09 3.1 3.14 3.13
2344.152 3.12 3.11 3.13 3.15 3.13 3.04 2.96 2.91 2.81 2.72
2363.445 2.64 2.54 2.51 2.46 2.37 2.32 2.31 2.3 2.29 2.29
2382.739 2.29 2.29 2.3 2.32 2.34 2.33 2.33 2.34 2.37 2.4
2402.032 2.45 2.51 2.57 2.62 2.65 2.7 2.74 2.81 2.9 2.94
2421.326 2.97 3.02 3.02 2.99 3 3.01 2.98 2.95 2.94 2.9
2440.619 2.86 2.85 2.85 2.88 2.89 2.9 2.92 2.98 3.02 3.06
2459.912 3.11 3.16 3.18 3.16 3.2 3.21 3.22 3.24 3.24 3.25
2479.206 3.29 3.31 3.33 3.36 3.31 3.29 3.27 3.22 3.19 3.16
2498.499 3.1 3.06 3.04 3.02 3.01 3.02 3.03 3.03 3.05 3.08
2517.793 3.1 3.11 3.18 3.29 3.34 3.36 3.41 3.484 3.566 3.612
2537.086 3.641 3.631 3.653 3.687 3.656 3.618 3.559 3.462 3.33 3.23
2556.380 3.15 3.04 2.94 2.84 2.77 2.72 2.66 2.62 2.57 2.57
2575.673 2.57 2.57 2.59 2.6 2.61 2.63 2.65 2.69 2.75 2.76
2594.966 2.74 2.76 2.8 2.83 2.82 2.78 2.71 2.65 2.59 2.57
2614.260 2.56 2.51 2.45 2.42 2.42 2.42 2.42 2.4 2.4 2.4
2633.553 2.39 2.41 2.42 2.43 2.45 2.47 2.51 2.5 2.45 2.4
2652.847 2.33 2.26 2.24 2.25 2.2 2.15 2.13 2.12 2.08 2.09
2672.140 2.1 2.05 2.05 2.05 2.06 2.12 2.14 2.19 2.21 2.19
2691.434 2.23 2.26 2.25 2.24 2.26 2.29 2.3 2.28 2.31 2.38
2710.727 2.43 2.5 2.61 2.72 2.79 2.86 2.97 3.12 3.25 3.38
2730.020 3.503 3.524 3.497 3.478 3.505 3.567 3.602 3.612 3.646 3.712
2749.314 3.789 3.879 3.928 3.993 4.066 4.104 4.196 4.279 4.40675 4.5699
2768.607 4.6154 4.715 4.8413 4.9735 5.1009 5.1738 5.2469 5.2287 5.2667 5.3785
2787.901 5.47 5.6 5.73 5.86 6.04 6.22 6.39 6.61 6.96 7.26
2807.194 7.44 7.68 8 8.39 8.82 9.28 9.77 10.34 11.01 11.77
2826.488 12.64 13.65 14.94 16.7 19.04 22.03 25.53 28.98 31.59 32.68
2845.781 32.22 30.39 27.58 24.63 22.22 20.47 19.34 18.67 18.45 18.54
2865.074 18.83 19.35 20.08 21.09 22.17 23.29 24.5 25.69 26.74 27.64
2884.368 28.38 29.03 29.64 30.43 31.55 32.93 34.72 37.01 39.74 42.85
2903.661 46.41 50.31 54.38 58.39 62.18 65.56 68.15 69.68 70.08 69.67
2922.955 68.8 67.95 67.7 68.43 70.49 74.02 78.55 83.43 87.86 90.81
2942.248 91.87 91.02 88.53 85.17 81.75 78.8 76.64 75.09 74.11 73.5
2961.542 72.95 72.42 71.98 71.84 72.17 73.42 75.87 79.45 84.12 89.7
2980.835 95.26 99.37 101.31 100.94 98.6 94.95 90.85 87.28 84.56 82.56
3000.128 81.1 80.08 78.89 76.61 72.77 67.35 60.92 53.93 47.31 41.87
3019.422 37.62 34.55 32.26 30.57 29.58 29.13 29.04 29.09 29.24 29.25
3038.715 28.73 27.62 25.87 23.67 21.33 19.05 17.06 15.54 14.54 13.82
3058.009 13.39 13.38 13.61 14.05 14.64 15.31 15.92 16.15 15.97 15.4
3077.302 14.54 13.47 12.32 11.3 10.52 9.99 9.57 9.3 9.18 9.14
3096.596 9.18 9.15 8.98 8.67 8.25 7.82 7.36 6.84 6.31 5.89
3115.889 5.46 5.1519 4.9284 4.6652 4.5053 4.39894 4.206 3.939 3.703 3.588
3135.182 3.469 3.23 3.01 2.82 2.63 2.43 2.41 2.32 2.19 2.19
3154.476 2.09 2.01 1.98 1.96 1.93 1.82 1.7 1.64 1.63 1.53
3173.769 1.5 1.43 1.42 1.49 1.39 1.29 1.34 1.3 1.14 1.09
3193.063 1.07 1.07 1.05 0.97 0.95 0.95 0.84 0.81 0.76 0.77
3212.356 0.78 0.75 0.77 0.8 0.84 0.79 0.77 0.73 0.69 0.77
3231.650 0.79 0.69 0.66 0.59 0.54 0.49 0.39 0.43 0.51 0.45
3250.943 0.38 0.31 0.27 0.27 0.37 0.47 0.29 0.08 0.08 0.15
3270.236 0.2 0.24 0.21 0.13 0.1 0.07 0.11 0.21 0.25 0.14
3289.530 0.05 0.07 0 0 0.09 0.14 0.16 0.09 0.07 0.13
3308.823 0.15 0.16 0.13 0.13 0.21 0.15 0.07 0.17 0.22 0.2
3328.117 0.18 0.15 0.13 0.12 0.13 0.11 0.13 0.07 0.08 0.26
3347.410 0.33 0.32 0.27 0.26 0.31 0.32 0.32 0.37 0.4 0.34
3366.704 0.33 0.35 0.34 0.32 0.28 0.35 0.41 0.37 0.37 0.38
3385.997 0.36 0.36 0.38 0.34 0.35 0.42 0.44 0.34 0.36 0.47
3405.290 0.39 0.35 0.34 0.3 0.32 0.4 0.41 0.35 0.36 0.42
3424.584 0.49 0.51 0.57 0.59 0.56 0.59 0.6 0.45 0.37 0.39
3443.877 0.52 0.53 0.45 0.53 0.52 0.55 0.57 0.59 0.59 0.66
3463.171 0.65 0.59 0.68 0.73 0.79 0.84 0.75 0.68 0.65 0.65
3482.464 0.62 0.63 0.75 0.82 0.81 0.77 0.75 0.71 0.67 0.78
3501.758 0.8 0.78 0.77 0.77 0.78 0.69 0.74 0.75 0.76 0.82
3521.051 0.92 0.97 0.85 0.8 0.88 0.87 0.88 0.84 0.8 0.87
3540.344 0.85 0.85 0.85 0.8 0.81 0.88 0.91 0.85 0.9 1.01
3559.638 1.04 1.01 1 0.93 0.91 0.96 1.02 1.04 1.08 1.08
3578.931 1.04 1.12 1.1 1.05 1.05 1.08 1.06 1.03 1.04 1.01
3598.225 1.12 1.11 1.06 1.05 1.05 1.08 1.04 1.13 1.21 1.14
3617.518 1.11 1.2 1.29 1.33 1.3 1.25 1.21 1.26 1.28 1.28
3636.812 1.4 1.41 1.33 1.35 1.42 1.46 1.47 1.4 1.37 1.42
3656.105 1.44 1.44 1.48 1.44 1.44 1.58 1.61 1.5 1.45 1.52
3675.398 1.53 1.52 1.53 1.54 1.59 1.61 1.55 1.53 1.6 1.58
3694.692 1.63 1.68 1.64 1.65 1.68 1.72 1.7 1.64 1.58 1.59
3713.985 1.66 1.68 1.65 1.7 1.77 1.77 1.79 1.8 1.74 1.76
3733.279 1.81 1.79 1.73 1.77 1.84 1.76 1.75 1.82 1.92 1.9
3752.572 1.8 1.88 1.91 1.9 1.98 2.06 2.05 1.99 2.04 2.06
3771.866 2.03 2.02 1.96 1.96 1.91 1.86 1.94 2.01 1.91 1.77
3791.159 1.79 1.92 1.93 1.88 1.92 1.88 1.82 1.88 1.86 1.8
3810.452 1.87 1.86 1.77 1.74 1.8 1.86 1.89 1.91 1.86 1.86
3829.746 1.85 1.84 1.87 1.86 1.82 1.83 1.92 1.91 1.91 1.97
3849.039 1.99 2 1.94 1.9 1.94 2.02 2.04 1.95 1.98 2.02
3868.333 2.06 2.12 2.12 2.16 2.19 2.21 2.2 2.17 2.2 2.19
3887.626 2.28 2.34 2.19 2.18 2.26 2.25 2.27 2.21 2.11 2.13
3906.920 2.27 2.34 2.3 2.21 2.23 2.23 2.21 2.26 2.24 2.22
3926.213 2.28 2.28 2.18 2.23 2.3 2.31 2.33 2.36 2.42 2.49
3945.506 2.48 2.44 2.45 2.4 2.38 2.44 2.45 2.47 2.5 2.55
3964.800 2.61 2.58 2.57 2.58 2.58 2.53 2.5 2.59 2.61 2.63
3984.093 2.59 2.6 2.72 2.71 2.64 2.63 2.68 2.71 2.71
##END=
