##TITLE=1-Nitro-4-(phenylsulfonyl)benzene
##JCAMP-DX=4.24
##DATA TYPE=INFRARED SPECTRUM
##ORIGIN=EPA-IR VAPOR PHASE LIBRARY
##OWNER=SRD/NIST
Collection (C) 2018 copyright by the U.S. Secretary of Commerce
on behalf of the United States of America. All rights reserved.
##CAS REGISTRY NO=1146-39-0
##MOLFORM=C 12 H 9 N O 4 S
##$NIST SOURCE=MSDC-IR
##STATE=gas
##XUNITS=1/CM
##YUNITS=ABSORBANCE
##XFACTOR=1.
##YFACTOR=0.001
##DELTAX=1.92898
##FIRSTX=549.8
##LASTX=4000.7
##FIRSTY=4.272
##MAXX=4000.7
##MINX=549.759
##MAXY=0.100712
##MINY=0
##NPOINTS=1790
##XYDATA=(X++(Y..Y))
549.759 4.272 6.062 8.422 11.162 15.102 20.262 25.802 29.902 31.852 32.222
569.049 30.742 26.682 21.132 16.182 12.542 9.872 7.992 7.172 6.762 6.402
588.339 6.692 7.772 9.472 12.262 16.632 23.942 35.772 54.012 76.412 93.442
607.628 98.992 95.192 82.512 60.032 37.042 22.582 14.942 10.462 7.932 6.222
626.918 5.072 4.352 3.822 3.502 3.152 2.982 2.682 2.332 2.202 2.252
646.208 2.412 2.682 2.942 2.852 2.762 3.012 3.372 3.742 4.162 4.682
665.498 5.492 6.262 7.052 8.022 8.802 10.032 11.322 12.722 15.002 17.442
684.787 19.212 19.752 19.442 18.412 16.442 14.572 13.782 13.862 14.722 16.582
704.077 18.912 20.952 22.242 22.482 21.762 19.802 16.932 14.522 13.202 12.852
723.367 13.912 17.932 27.222 42.252 58.822 69.722 72.052 67.872 57.872 44.552
742.657 34.372 30.582 30.602 31.362 32.402 33.202 32.142 28.532 24.592 20.922
761.947 16.552 12.082 8.562 6.552 5.412 4.632 4.102 3.722 3.472 3.252
781.236 3.082 2.982 2.882 2.742 2.732 2.792 2.912 3.002 2.832 2.852
800.526 2.912 2.832 2.682 2.232 1.952 1.832 1.422 1.2996 1.432 1.246
819.816 1.0932 1.492 1.612 1.642 1.962 2.002 2.272 2.822 3.322 3.912
839.106 4.792 6.142 8.102 10.942 14.452 17.672 19.702 20.342 19.532 17.152
858.395 13.842 10.862 8.342 6.292 4.822 3.652 3.042 2.612 2.152 2.042
877.685 1.912 1.662 1.552 1.3607 1.3329 1.2633 1.0552 1.024 1.0094 0.9946
896.975 0.8996 0.8583 0.7522 0.775 0.9208 0.8864 0.7921 0.6468 0.627 0.9233
916.265 0.9454 0.8762 1.0816 1.0799 0.9455 0.8107 0.795 0.7846 0.7447 0.7979
935.555 0.8672 0.6436 0.42099 0.6288 0.6182 0.5034 0.6895 0.6429 0.5666 0.6568
954.844 0.696 0.7317 0.8758 0.8528 0.8067 0.9131 0.9276 0.949 0.7764 0.8011
974.134 0.9111 0.7492 0.9262 1.0212 0.8954 0.804 0.7668 0.8083 0.9312 1.1963
993.424 1.462 1.882 2.272 2.602 2.912 2.962 3.212 4.132 5.742 7.692
1012.714 9.212 9.802 9.692 8.952 6.972 5.002 4.222 3.562 2.862 2.292
1032.003 1.632 1.462 1.3348 0.9993 0.9692 1.0034 1.0266 1.0988 0.906 1.1753
1051.293 1.732 1.792 1.552 1.772 2.482 2.732 3.032 3.952 4.672 4.862
1070.583 5.092 5.502 5.562 5.282 5.142 4.962 5.392 6.432 7.482 8.942
1089.873 11.152 14.432 18.522 23.392 29.312 34.992 38.832 40.602 39.562 35.392
1109.163 29.312 22.032 15.532 11.522 8.622 6.642 5.462 4.612 4.542 4.372
1128.452 3.862 3.482 3.612 3.832 4.202 4.892 5.262 5.612 6.452 7.482
1147.742 9.222 11.932 15.422 20.262 26.282 34.402 44.612 55.802 67.472 77.372
1167.032 83.272 84.172 80.172 71.492 59.702 47.422 36.222 26.872 19.662 14.422
1186.322 10.632 8.472 6.972 5.602 5.062 4.772 4.682 4.742 4.442 3.912
1205.611 3.762 3.942 3.772 3.692 3.692 3.702 3.532 3.132 2.952 2.812
1224.901 2.622 2.392 2.172 2.152 2.252 2.172 2.002 2.082 2.112 2.072
1244.191 2.052 2.082 2.202 2.322 2.452 2.642 2.612 2.582 2.632 2.642
1263.481 2.702 3.002 3.272 3.362 3.512 4.042 4.832 5.412 6.092 6.962
1282.771 7.642 8.182 8.822 9.412 9.872 10.472 11.292 12.262 13.502 14.702
1302.060 15.702 16.462 16.712 16.482 15.902 15.152 14.382 13.782 13.532 13.602
1321.350 14.152 15.212 16.782 18.822 21.122 23.752 26.832 30.502 34.942 40.492
1340.640 47.702 56.712 67.182 78.372 88.812 96.802 100.712 99.302 92.522 81.862
1359.930 69.482 57.122 45.732 35.912 27.852 21.512 16.752 13.252 10.792 9.072
1379.219 7.892 7.082 6.492 6.152 5.922 5.872 5.972 6.132 6.272 6.322
1398.509 6.322 6.132 5.832 5.502 5.182 4.802 4.402 4.122 3.932 3.732
1417.799 3.562 3.472 3.392 3.332 3.292 3.302 3.392 3.552 3.772 4.122
1437.089 4.712 5.552 6.452 7.262 8.002 8.582 8.652 8.092 7.192 6.262
1456.378 5.362 4.662 4.252 4.082 4.042 4.152 4.442 4.822 5.392 6.112
1475.668 6.872 7.512 7.832 7.832 7.482 6.932 6.342 5.852 5.592 5.482
1494.958 5.432 5.462 5.562 5.742 5.992 6.272 6.532 6.922 7.552 8.262
1514.248 9.022 9.972 11.162 12.532 14.232 16.162 18.382 21.062 24.262 28.092
1533.538 32.802 38.282 44.232 50.722 56.722 61.052 63.072 62.102 58.022 51.492
1552.827 44.212 36.992 30.842 25.782 21.852 19.092 17.002 15.332 13.862 12.552
1572.117 11.532 10.792 10.272 9.862 9.592 9.462 9.332 9.192 9.172 9.222
1591.407 9.252 9.462 9.842 10.272 10.722 11.112 11.392 11.492 11.262 10.632
1610.697 9.672 8.502 7.272 6.092 5.142 4.362 3.782 3.392 3.022 2.682
1629.986 2.442 2.352 2.202 2.102 2.102 1.992 1.862 1.832 1.792 1.732
1649.276 1.732 1.722 1.652 1.682 1.722 1.692 1.662 1.662 1.692 1.722
1668.566 1.702 1.712 1.782 1.842 1.872 1.902 1.972 1.932 1.802 1.702
1687.856 1.682 1.552 1.3564 1.2414 1.1321 1.0369 0.9628 0.8703 0.7805 0.7219
1707.146 0.7653 0.8283 0.7981 0.7206 0.6343 0.6468 0.6883 0.6434 0.6462 0.6874
1726.435 0.6416 0.594 0.5574 0.5284 0.5213 0.5168 0.5326 0.5354 0.5415 0.581
1745.725 0.6156 0.6326 0.6888 0.7683 0.8408 0.8966 0.8943 0.8945 0.9069 0.9065
1765.015 0.9202 0.9439 0.9721 0.9647 0.9415 0.9784 1.0196 1.0899 1.1696 1.2244
1784.305 1.2841 1.3876 1.572 1.742 1.872 2.092 2.302 2.432 2.432 2.412
1803.594 2.372 2.262 2.202 2.132 1.952 1.772 1.662 1.552 1.422 1.2987
1822.884 1.1994 1.0841 0.9909 0.9414 0.8473 0.7917 0.8049 0.786 0.7547 0.7146
1842.174 0.663 0.6099 0.6201 0.6111 0.5917 0.5769 0.5576 0.6218 0.6345 0.6195
1861.464 0.6495 0.6593 0.6861 0.6323 0.6042 0.689 0.6996 0.6965 0.7226 0.7396
1880.754 0.7624 0.8167 0.8767 0.923 1.0211 1.0894 1.0912 1.118 1.17 1.1892
1900.043 1.2533 1.2214 1.2046 1.2986 1.3305 1.3594 1.3795 1.422 1.412 1.3397
1919.333 1.349 1.3941 1.3532 1.402 1.522 1.492 1.412 1.401 1.432 1.3586
1938.623 1.248 1.2021 1.155 1.0954 1.0761 1.0486 1.0823 1.1885 1.1808 1.1556
1957.913 1.1528 1.2007 1.213 1.1738 1.18 1.1664 1.1475 1.1462 1.1345 1.0706
1977.202 1.0103 0.946 0.8862 0.7801 0.6832 0.6652 0.6115 0.5401 0.48545 0.48289
1996.492 0.5317 0.5111 0.47278 0.47295 0.43652 0.43728 0.46437 0.43119 0.403141 0.42651
2015.782 0.44382 0.48118 0.5204 0.48249 0.44249 0.42445 0.40003 0.401165 0.3775 0.3445
2035.072 0.411862 0.4268 0.3862 0.406693 0.410983 0.42077 0.41946 0.40381 0.3702 0.3089
2054.362 0.3351 0.401254 0.409081 0.45128 0.48502 0.50099 0.48293 0.45661 0.5057 0.47656
2073.651 0.3919 0.40255 0.44598 0.45254 0.41302 0.407689 0.45624 0.45406 0.41252 0.3802
2092.941 0.42102 0.47045 0.44008 0.46345 0.49407 0.4599 0.42274 0.39415 0.41389 0.49306
2112.231 0.49346 0.44165 0.4488 0.43556 0.3809 0.3709 0.41886 0.4679 0.47442 0.47386
2131.521 0.43249 0.374 0.3877 0.39939 0.44873 0.45051 0.39321 0.39651 0.3875 0.3504
2150.810 0.3754 0.45176 0.48279 0.47938 0.5442 0.6014 0.5818 0.5877 0.6305 0.6001
2170.100 0.6061 0.7249 0.7926 0.7987 0.7573 0.6957 0.6042 0.5736 0.5735 0.5497
2189.390 0.6 0.6252 0.6091 0.63 0.6319 0.6121 0.6763 0.6422 0.5985 0.642
2208.680 0.6305 0.6717 0.6763 0.647 0.5893 0.5184 0.5358 0.5366 0.5509 0.601
2227.970 0.5979 0.6073 0.6519 0.7389 0.755 0.706 0.6955 0.6894 0.6841 0.7046
2247.259 0.6949 0.6809 0.6388 0.5684 0.6086 0.6044 0.5707 0.574 0.6005 0.6497
2266.549 0.6602 0.6833 0.6622 0.6968 0.7953 0.7794 0.7506 0.7652 0.7633 0.7319
2285.839 0.6907 0.6657 0.6212 0.5728 0.575 0.5472 0.551 0.5507 0.5534 0.5971
2305.129 0.5885 0.5583 0.5275 0.5821 0.623 0.628 0.6835 0.6979 0.7146 0.7675
2324.418 0.77 0.7571 0.8114 0.816 0.7781 0.6985 0.6591 0.6763 0.629 0.5977
2343.708 0.6089 0.6963 0.6954 0.6374 0.592 0.5448 0.5641 0.5623 0.5346 0.5495
2362.998 0.6094 0.6111 0.5101 0.47499 0.5207 0.5195 0.5313 0.5853 0.5426 0.5249
2382.288 0.5657 0.5609 0.5646 0.6353 0.6752 0.6148 0.6281 0.6441 0.607 0.6147
2401.578 0.6074 0.6283 0.6808 0.6192 0.5989 0.6157 0.5837 0.5354 0.5214 0.585
2420.867 0.6067 0.6126 0.625 0.6411 0.6254 0.5836 0.6347 0.6497 0.5829 0.5473
2440.157 0.5637 0.5894 0.5891 0.6164 0.6291 0.5803 0.5887 0.6763 0.6957 0.6786
2459.447 0.6458 0.622 0.6076 0.5846 0.6267 0.6129 0.5339 0.5039 0.5462 0.6287
2478.737 0.6505 0.5976 0.5783 0.5725 0.47138 0.47787 0.5476 0.5309 0.5704 0.6088
2498.026 0.5664 0.5501 0.6048 0.6522 0.726 0.7357 0.687 0.6947 0.7612 0.743
2517.316 0.6431 0.5753 0.6017 0.6318 0.5631 0.5904 0.5906 0.5414 0.534 0.5218
2536.606 0.47129 0.43795 0.43275 0.43328 0.47115 0.5239 0.5614 0.5068 0.48927 0.5116
2555.896 0.4863 0.5106 0.517 0.43786 0.45239 0.5396 0.5856 0.5945 0.5924 0.6097
2575.186 0.6387 0.6969 0.7303 0.6868 0.618 0.663 0.7781 0.7729 0.6968 0.6676
2594.475 0.694 0.7149 0.6985 0.6518 0.6379 0.6715 0.675 0.6945 0.6265 0.5315
2613.765 0.5649 0.627 0.5849 0.5206 0.516 0.5238 0.5059 0.44427 0.5096 0.6035
2633.055 0.5355 0.5278 0.6856 0.7854 0.79 0.7892 0.7376 0.7494 0.8146 0.87
2652.345 0.8645 0.8394 0.8454 0.8388 0.8433 0.7937 0.7879 0.7206 0.7556 0.8783
2671.634 0.8545 0.8828 0.9025 0.9336 1.0063 1.02 1.0524 1.1838 1.2477 1.1396
2690.924 1.1199 1.1553 1.1021 1.1054 1.1464 1.0633 1.0621 1.0561 0.9061 0.8112
2710.214 0.724 0.7065 0.7089 0.6507 0.6283 0.6487 0.6132 0.6108 0.6077 0.5562
2729.504 0.6136 0.5381 0.45689 0.5144 0.5236 0.558 0.6217 0.6203 0.6305 0.6728
2748.794 0.6836 0.7022 0.6882 0.6538 0.6209 0.5987 0.5818 0.5656 0.6006 0.5887
2768.083 0.5661 0.6028 0.53 0.43422 0.49614 0.5529 0.5208 0.5327 0.5926 0.6445
2787.373 0.5838 0.5265 0.5489 0.5849 0.5587 0.49325 0.49402 0.5209 0.5307 0.5202
2806.663 0.5082 0.5224 0.5348 0.50158 0.5869 0.6032 0.5514 0.5941 0.659 0.6724
2825.953 0.6155 0.6397 0.7012 0.6961 0.6447 0.6061 0.6537 0.762 0.8264 0.8098
2845.242 0.7655 0.8334 0.8352 0.8603 0.9368 0.9225 0.9218 0.9686 1.0928 1.1169
2864.532 1.1191 1.1406 1.0987 1.1017 1.1461 1.3186 1.492 1.3875 1.3348 1.3535
2883.822 1.3118 1.402 1.502 1.412 1.3212 1.422 1.3217 1.2609 1.3095 1.1824
2903.112 1.0822 1.1002 1.0362 0.8786 0.7892 0.7671 0.798 0.7963 0.7667 0.8682
2922.401 0.828 0.7321 0.7207 0.7682 0.887 0.8057 0.8007 0.8964 0.8412 0.858
2941.691 0.8484 0.7483 0.8152 0.8385 0.7868 0.7782 0.6754 0.5694 0.6318 0.611
2960.981 0.6244 0.6004 0.5831 0.6149 0.5144 0.5673 0.619 0.5747 0.5584 0.6194
2980.271 0.6264 0.6002 0.5416 0.4622 0.6028 0.7789 0.7441 0.6607 0.7088 0.7285
2999.561 0.7232 0.817 0.8769 0.9273 1.0007 1.0213 1.042 1.0521 1.0692 1.1106
3018.850 1.1864 1.2417 1.2587 1.3791 1.542 1.652 1.662 1.682 1.682 1.742
3038.140 1.892 1.972 1.982 1.952 1.922 1.862 1.862 1.942 2.002 2.162
3057.430 2.552 2.982 3.422 3.982 4.642 5.432 6.412 7.442 8.252 8.702
3076.720 8.722 8.292 7.472 6.462 5.542 4.792 4.292 4.152 4.022 3.692
3096.009 3.392 3.272 3.072 2.822 2.692 2.472 2.182 1.902 1.642 1.368
3115.299 1.1989 1.0833 0.9948 0.9142 0.6951 0.6654 0.8182 0.7247 0.6091 0.6372
3134.589 0.617 0.5999 0.6158 0.5425 0.5762 0.5633 0.5031 0.5672 0.5284 0.6071
3153.879 0.6646 0.5867 0.6732 0.7768 0.7226 0.6519 0.7251 0.7123 0.6174 0.6137
3173.169 0.601 0.5777 0.6138 0.5296 0.5311 0.5768 0.46311 0.44923 0.42665 0.3584
3192.458 0.43411 0.5082 0.45285 0.46894 0.5371 0.5033 0.46968 0.4393 0.44247 0.46107
3211.748 0.45921 0.5491 0.4349 0.278 0.3 0.228 0.198 0.3256 0.3754 0.3515
3231.038 0.47171 0.6202 0.7093 0.6631 0.41735 0.279 0.41543 0.5387 0.549 0.43061
3250.328 0.39202 0.4212 0.213 0.294 0.41693 0.3868 0.405391 0.3763 0.3541 0.292
3269.617 0.173 0.142 0.219 0.183 0.161 0.151 0.24 0.4282 0.43037 0.281
3288.907 0.263 0.3357 0.39622 0.47259 0.41213 0.43064 0.536 0.5833 0.5784 0.407771
3308.197 0.3059 0.408197 0.5384 0.47349 0.3841 0.4251 0.3374 0.268 0.3239 0.3
3327.487 0.236 0.268 0.212 0.209 0.29 0.288 0.286 0.273 0.295 0.3576
3346.777 0.289 0.182 0.209 0.3743 0.43181 0.285 0.296 0.3644 0.44534 0.46389
3366.066 0.3031 0.3262 0.43461 0.406729 0.405925 0.294 0.40025 0.5749 0.3443 0.247
3385.356 0.43274 0.48345 0.297 0.3868 0.44991 0.272 0.274 0.265 0.3177 0.3637
3404.646 0.3025 0.293 0.3881 0.45335 0.402037 0.389 0.3478 0.3206 0.3597 0.247
3423.936 0.275 0.409058 0.39571 0.46438 0.5193 0.43346 0.3495 0.27 0.323 0.5039
3443.225 0.5204 0.4873 0.44274 0.313 0.335 0.3522 0.275 0.3175 0.3672 0.3244
3462.515 0.3676 0.41361 0.27 0.233 0.289 0.254 0.289 0.289 0.211 0.19
3481.805 0.3447 0.39365 0.3112 0.3831 0.3249 0.183 0.205 0.255 0.233 0.275
3501.095 0.284 0.285 0.3748 0.46464 0.45026 0.3699 0.295 0.239 0.3243 0.3024
3520.385 0.187 0.298 0.287 0.214 0.201 0.239 0.3761 0.3077 0.3325 0.3776
3539.674 0.239 0.198 0.17 0.254 0.273 0.3321 0.39922 0.277 0.261 0.3297
3558.964 0.298 0.406796 0.41844 0.203 0.199 0.247 0.175 0.148 0.181 0.155
3578.254 0.174 0.175 0.075 0.112 0.28 0.259 0.239 0.3294 0.3125 0.275
3597.544 0.3472 0.4386 0.409987 0.226 0.098 0.129 0.235 0.225 0.213 0.17
3616.833 0.164 0.28 0.3822 0.3061 0.155 0.234 0.241 0.242 0.3669 0.348
3636.123 0.235 0.43061 0.5658 0.3646 0.3259 0.43782 0.44428 0.277 0.3194 0.3572
3655.413 0.162 0.243 0.38 0.3833 0.406609 0.3688 0.3604 0.241 0.182 0.232
3674.703 0.3289 0.3341 0.23 0.39839 0.4474 0.42508 0.49496 0.43705 0.3715 0.3915
3693.993 0.42122 0.49858 0.46113 0.3552 0.3839 0.4459 0.44393 0.408131 0.498 0.5708
3713.282 0.512 0.5321 0.5987 0.5289 0.3691 0.3096 0.3086 0.261 0.3184 0.3651
3732.572 0.45946 0.3473 0.211 0.377 0.39392 0.3399 0.27 0.201 0.199 0.118
3751.862 0 0.15 0.286 0.265 0.262 0.3378 0.42602 0.287 0.233 0.29
3771.152 0.3431 0.3094 0.22 0.3604 0.43162 0.368 0.3201 0.4195 0.44152 0.282
3790.441 0.3442 0.5277 0.46899 0.404002 0.42226 0.3474 0.342 0.3767 0.268 0.265
3809.731 0.3274 0.3753 0.578 0.5466 0.46833 0.5083 0.3705 0.3137 0.43404 0.3606
3829.021 0.216 0.197 0.188 0.301 0.3148 0.172 0.132 0.207 0.297 0.3869
3848.311 0.48042 0.3239 0.141 0.108 0.175 0.191 0.163 0.28 0.3893 0.408104
3867.601 0.225 0.178 0.3712 0.3173 0.183 0.243 0.249 0.134 0.164 0.3447
3886.890 0.42627 0.403256 0.3729 0.41572 0.273 0.123 0.197 0.174 0.188 0.286
3906.180 0.3267 0.287 0.295 0.3165 0.283 0.303 0.191 0.082 0.161 0.257
3925.470 0.3695 0.3067 0.3695 0.3702 0.239 0.243 0.243 0.408763 0.47046 0.3382
3944.760 0.3081 0.288 0.215 0.292 0.42257 0.3069 0.207 0.215 0.188 0.253
3964.049 0.3366 0.3735 0.3272 0.3 0.3188 0.410935 0.41295 0.194 0.186 0.249
3983.339 0.211 0.3494 0.295 0.206 0.3551 0.401654 0.43166 0.47494 0.45682 0.3433
##END=
