##TITLE=Naphthalene-d8
##JCAMP-DX=4.24
##DATA TYPE=INFRARED SPECTRUM
##ORIGIN=NIST Mass Spectrometry Data Center
##OWNER=NIST Standard Reference Data Program
Collection (C) 2018 copyright by the U.S. Secretary of Commerce
on behalf of the United States of America. All rights reserved.
##CAS REGISTRY NO=1146-65-2
##MOLFORM=C 10 D 8
##$NIST SOURCE=MSDC-IR
##SPECTROMETER/DATA SYSTEM=HP-GC/MS/IRD
##STATE=gas
##XUNITS=1/CM
##YUNITS=ABSORBANCE
##XFACTOR=1.0
##YFACTOR=0.000002000
##DELTAX=4.0
##FIRSTX=550.0
##LASTX=3846.0
##FIRSTY=0.000218
##MAXX=3846
##MINX=550
##MAXY=0.02
##MINY=0
##NPOINTS=825
##XYDATA=(X++(Y..Y))
550.0 109 150 116 112 78 121 172 231 419 686
590.0 884 1156 1471 1775 2250 3126 4284 5360 7736 10000
630.0 7674 5114 4358 2996 1694 821 393 256 231 232
670.0 217 176 168 179 176 200 219 194 173 183
710.0 174 139 133 146 128 109 100 76 67 53
750.0 40 45 57 74 136 248 387 586 751 1162
790.0 1467 1127 920 798 566 435 459 744 1064 1128
830.0 1082 981 805 492 249 163 173 227 287 373
870.0 517 756 969 867 766 855 703 433 259 148
910.0 101 77 58 69 81 108 134 130 118 106
950.0 84 51 38 40 33 22 26 37 46 51
990.0 51 41 27 25 19 17 33 32 44 79
1030.0 85 80 76 63 53 35 21 30 43 28
1070.0 28 29 24 32 32 26 12 13 14 1
1110.0 14 31 24 22 31 42 47 60 82 99
1150.0 138 205 269 295 309 327 326 286 269 269
1190.0 268 242 210 190 164 160 158 140 131 129
1230.0 134 150 189 252 352 473 505 503 541 483
1270.0 350 235 168 131 118 111 104 93 88 92
1310.0 103 128 168 202 215 216 194 144 108 103
1350.0 95 92 108 161 251 367 476 521 534 527
1390.0 476 413 396 439 505 558 584 590 607 672
1430.0 747 774 751 691 606 470 317 201 158 126
1470.0 96 78 67 65 58 55 46 52 59 58
1510.0 59 64 78 114 141 164 212 257 285 314
1550.0 370 427 523 635 643 567 491 356 179 88
1590.0 72 69 67 85 117 163 210 255 289 325
1630.0 343 306 253 212 163 124 102 102 118 131
1670.0 124 107 100 92 75 69 71 78 88 96
1710.0 95 93 95 90 86 82 76 67 64 67
1750.0 66 60 57 55 51 50 51 50 49 55
1790.0 61 64 63 59 59 58 52 46 45 42
1830.0 45 34 29 33 36 40 46 42 40 42
1870.0 33 33 46 50 49 47 45 45 45 47
1910.0 60 58 58 64 60 55 58 53 48 53
1950.0 54 51 48 47 53 51 45 41 38 32
1990.0 27 27 26 26 29 35 41 35 25 23
2030.0 25 22 21 25 23 23 24 24 20 12
2070.0 17 18 14 15 22 31 31 30 36 42
2110.0 39 45 48 44 49 65 75 78 72 59
2150.0 49 44 37 32 40 42 39 45 49 54
2190.0 50 45 51 57 67 84 101 129 175 230
2230.0 323 476 683 954 1273 1627 2109 2813 3714 4638
2270.0 5176 5350 5690 5897 5516 4941 4411 3854 3168 2251
2310.0 1333 781 567 499 490 513 525 505 471 435
2350.0 374 289 234 230 256 293 323 333 328 310
2390.0 263 205 164 142 126 114 101 99 106 105
2430.0 102 97 89 84 74 62 55 46 48 50
2470.0 46 54 54 38 29 35 32 30 33 30
2510.0 29 26 29 36 31 29 32 30 27 15
2550.0 14 19 14 20 25 23 13 19 34 39
2590.0 47 36 26 39 40 28 32 27 13 20
2630.0 24 18 14 14 18 11 16 16 14 25
2670.0 19 18 24 19 14 25 26 23 21 15
2710.0 13 5 2 14 23 21 20 32 35 24
2750.0 21 27 33 27 19 29 33 26 26 21
2790.0 20 22 19 16 20 19 11 11 29 31
2830.0 24 32 31 36 38 28 30 40 44 33
2870.0 25 27 29 40 42 33 23 28 36 22
2910.0 20 33 36 32 34 29 21 30 40 41
2950.0 33 27 26 22 26 28 18 28 41 58
2990.0 65 48 49 57 52 52 62 56 48 54
3030.0 56 65 70 63 69 92 100 104 105 87
3070.0 73 62 54 43 45 53 47 43 46 49
3110.0 59 78 74 78 104 109 107 118 126 122
3150.0 107 87 71 64 61 55 49 44 21 17
3190.0 30 20 22 20 1 3 25 35 29 33
3230.0 31 12 16 12 9 18 27 34 33 35
3270.0 45 51 46 63 84 73 63 65 68 53
3310.0 37 52 58 43 27 18 13 12 22 28
3350.0 25 18 10 14 12 18 24 14 12 9
3390.0 7 18 27 25 15 11 13 5 10 17
3430.0 20 15 0 3 23 35 32 39 44 31
3470.0 28 44 47 45 42 39 46 48 44 52
3510.0 70 65 57 57 43 47 69 72 66 48
3550.0 51 49 31 24 38 33 29 51 58 45
3590.0 39 31 29 42 45 37 26 44 48 36
3630.0 32 17 16 42 60 45 27 31 25 22
3670.0 38 33 26 43 51 45 32 36 44 33
3710.0 20 28 36 21 27 25 2 5 25 25
3750.0 1 7 1 3 18 18 20 10 21 32
3790.0 37 36 45 72 77 83 94 67 39 44
3830.0 53 49 38 42 38
##END=
