##TITLE=(3R)-(-)-1-Benzyl-3-aminopyrrolidine
##JCAMP-DX=4.24
##DATA TYPE=INFRARED SPECTRUM
##ORIGIN=EPA-IR VAPOR PHASE LIBRARY
##OWNER=SRD/NIST
Collection (C) 2018 copyright by the U.S. Secretary of Commerce
on behalf of the United States of America. All rights reserved.
##CAS REGISTRY NO=114715-39-8
##MOLFORM=C 11 H 16 N 2
##$NIST SOURCE=MSDC-IR
##STATE=gas
##XUNITS=1/CM
##YUNITS=ABSORBANCE
##XFACTOR=1.
##YFACTOR=0.001
##DELTAX=1.92898
##FIRSTX=549.8
##LASTX=4000.7
##FIRSTY=3.871
##MAXX=4000.7
##MINX=549.759
##MAXY=0.075671
##MINY=0
##NPOINTS=1790
##XYDATA=(X++(Y..Y))
549.759 3.871 4.571 4.701 4.221 3.881 3.701 3.841 4.491 4.811 4.461
569.049 4.931 4.781 4.691 4.911 5.141 5.521 4.861 4.811 5.701 5.881
588.339 5.551 5.071 4.661 4.651 4.751 4.821 4.721 4.471 4.421 4.841
607.628 5.051 5.581 5.911 5.271 6.111 7.101 6.891 6.981 6.901 6.561
626.918 6.781 7.171 7.181 7.211 7.501 8.091 8.601 8.751 8.461 8.711
646.208 8.321 7.851 7.991 7.991 8.291 8.581 8.531 9.041 9.881 10.391
665.498 11.241 11.721 11.991 12.321 12.961 13.771 14.521 15.651 17.081 19.091
684.787 22.001 25.511 29.421 33.891 37.711 40.441 42.441 43.571 43.481 41.611
704.077 38.541 35.221 32.421 29.941 28.101 26.721 25.831 25.291 24.651 25.111
723.367 25.731 26.051 27.411 29.681 31.921 34.081 36.181 38.241 40.261 41.701
742.657 41.921 41.281 39.781 38.251 36.791 34.581 32.621 31.161 30.421 29.921
761.947 29.421 29.571 29.661 29.821 29.951 30.271 30.721 30.651 30.251 29.691
781.236 29.191 28.841 28.491 27.741 27.271 27.811 27.951 27.051 26.291 26.021
800.526 25.221 24.431 24.031 23.421 22.481 21.741 21.771 21.011 19.831 18.791
819.816 17.541 17.481 17.171 16.161 15.761 15.101 14.671 14.821 14.921 14.381
839.106 14.121 13.991 13.731 13.921 13.701 13.331 13.461 13.551 13.251 12.891
858.395 12.861 13.161 13.331 12.981 13.301 13.421 13.011 12.731 12.561 12.431
877.685 12.351 12.541 12.251 11.991 11.841 11.551 11.251 11.271 10.821 10.811
896.975 11.231 11.681 12.071 11.721 12.221 12.571 11.961 11.651 10.791 9.881
916.265 9.411 8.571 7.681 7.321 7.381 7.461 7.211 7.131 6.971 6.481
935.555 6.611 7.161 7.201 6.771 6.851 7.141 6.991 6.821 7.171 7.571
954.844 7.741 7.661 7.691 7.771 8.031 8.301 7.941 7.951 8.011 8.091
974.134 8.051 7.801 8.061 8.361 8.051 7.411 7.771 8.501 8.241 7.731
993.424 7.521 7.001 7.401 7.521 6.801 6.581 6.811 7.281 6.771 7.131
1012.714 7.651 7.521 8.721 10.221 11.891 14.121 15.121 15.001 15.221 15.261
1032.003 14.991 13.611 11.761 10.781 10.221 10.471 10.631 10.611 10.841 11.651
1051.293 11.621 11.271 12.251 13.171 13.561 14.881 15.601 15.711 16.741 16.781
1070.583 16.331 16.671 16.861 15.981 14.851 15.341 16.331 15.651 15.491 15.411
1089.873 15.351 15.711 16.411 15.391 14.211 15.341 15.781 16.761 17.651 16.401
1109.163 16.891 16.861 16.891 17.881 18.771 20.261 21.281 23.641 25.581 25.561
1128.452 26.781 28.201 28.741 29.391 30.771 33.611 34.601 33.181 31.431 30.991
1147.742 30.191 28.261 27.491 27.361 26.371 24.721 23.311 21.441 20.431 20.081
1167.032 18.461 16.541 15.721 15.861 15.251 14.221 13.021 12.401 13.221 13.841
1186.322 13.471 13.181 12.131 11.501 12.091 12.391 12.601 11.821 12.191 13.311
1205.611 11.711 10.971 11.661 12.031 12.931 12.671 12.391 11.791 11.251 10.641
1224.901 10.531 11.041 10.881 10.851 11.091 11.561 11.981 12.391 12.621 13.301
1244.191 13.601 13.511 14.641 14.821 14.211 13.921 13.151 13.471 13.921 13.941
1263.481 13.541 12.861 13.051 13.411 13.111 12.811 13.141 13.391 13.651 13.741
1282.771 13.631 13.851 14.361 14.741 15.181 15.391 15.611 15.821 16.091 16.461
1302.060 16.501 16.181 15.981 15.621 15.231 15.171 15.191 15.421 16.101 16.951
1321.350 17.891 19.011 19.931 20.821 21.811 22.891 23.851 24.731 25.501 26.041
1340.640 26.161 25.861 25.361 24.421 22.961 21.471 20.041 18.651 17.591 16.851
1359.930 16.751 17.141 17.611 18.291 19.081 19.871 20.481 20.671 20.541 20.151
1379.219 19.641 18.791 17.601 16.331 14.991 13.841 12.531 11.171 10.111 9.201
1398.509 8.381 7.631 7.121 6.811 6.591 6.241 6.151 6.281 6.301 6.331
1417.799 6.501 6.781 6.931 6.961 7.291 7.691 7.951 8.551 9.291 10.191
1437.089 11.631 13.071 14.631 16.321 17.541 18.201 18.621 18.631 17.931 17.181
1456.378 16.041 14.581 13.451 12.361 11.441 10.741 10.101 9.741 9.931 10.151
1475.668 10.081 10.261 10.791 11.411 12.231 13.091 13.961 15.031 16.031 16.391
1494.958 15.911 15.101 14.231 12.641 10.571 8.501 6.671 5.791 5.261 4.961
1514.248 4.631 4.161 4.171 4.261 4.041 3.981 4.131 4.351 4.391 4.351
1533.538 4.441 4.431 4.401 4.331 4.241 4.261 4.211 4.181 4.301 4.351
1552.827 4.391 4.341 4.261 4.301 4.521 4.591 4.681 4.741 5.001 5.231
1572.117 5.381 5.681 6.061 6.471 6.751 7.491 7.941 8.031 8.161 8.651
1591.407 9.051 9.461 10.131 10.861 11.631 12.281 12.761 13.111 13.421 13.671
1610.697 13.681 13.531 13.501 13.441 13.371 12.731 12.171 12.111 11.471 10.841
1629.986 10.501 9.891 9.181 8.291 7.591 7.101 6.661 6.311 5.901 5.521
1649.276 5.331 4.951 4.401 4.141 3.841 3.501 3.451 3.411 3.251 3.221
1668.566 2.991 2.741 2.641 2.571 2.741 2.741 2.501 2.341 2.061 1.971
1687.856 2.091 2.151 2.081 1.761 1.621 1.651 1.671 1.891 1.921 1.861
1707.146 1.991 1.891 1.991 2.121 2.111 2.021 1.981 1.941 1.811 1.951
1726.435 2.001 2.051 2.251 2.231 1.991 2.101 2.151 2.021 1.931 1.901
1745.725 1.991 2.041 2.111 2.021 1.961 1.931 1.871 1.971 2.071 2.031
1765.015 1.991 2.011 1.921 1.941 1.981 2.061 2.091 2.101 2.281 2.321
1784.305 2.321 2.521 2.821 2.961 3.031 3.291 3.601 3.691 3.571 3.611
1803.594 3.611 3.401 3.171 2.861 2.661 2.561 2.491 2.461 2.331 2.281
1822.884 2.131 2.031 2.131 2.171 2.221 2.211 2.081 2.011 1.931 1.811
1842.174 1.881 2.011 2.131 2.261 2.261 2.291 2.461 2.511 2.591 2.821
1861.464 2.851 2.741 2.891 2.961 2.931 3.041 2.961 2.931 3.011 3.021
1880.754 2.911 2.731 2.691 2.601 2.421 2.331 2.191 1.921 1.861 1.821
1900.043 1.821 1.971 1.871 1.831 1.931 1.981 2.011 1.871 1.911 2.161
1919.333 2.251 2.261 2.231 2.381 2.551 2.691 3.011 3.181 3.171 3.351
1938.623 3.391 3.281 3.461 3.651 3.641 3.621 3.461 3.191 3.071 2.931
1957.913 2.951 2.921 2.691 2.551 2.231 2.011 1.931 1.681 1.681 1.671
1977.202 1.531 1.601 1.611 1.511 1.491 1.561 1.661 1.751 1.701 1.611
1996.492 1.631 1.511 1.351 1.461 1.571 1.611 1.591 1.551 1.601 1.601
2015.782 1.561 1.461 1.381 1.391 1.481 1.591 1.501 1.471 1.341 1.1714
2035.072 1.241 1.281 1.341 1.401 1.191 1.15 1.381 1.381 1.134 1.0909
2054.362 1.281 1.471 1.431 1.271 1.211 1.1364 1.271 1.341 1.251 1.1871
2073.651 1.1646 1.0436 1.1907 1.371 1.241 1.1713 1.271 1.321 1.271 1.1864
2092.941 1.231 1.351 1.441 1.481 1.1529 1.1832 1.271 1.211 1.531 1.581
2112.231 1.461 1.451 1.471 1.451 1.491 1.481 1.341 1.341 1.571 1.561
2131.521 1.421 1.451 1.361 1.1514 1.1719 1.541 1.711 1.651 1.511 1.411
2150.810 1.481 1.511 1.411 1.391 1.331 1.361 1.571 1.541 1.541 1.621
2170.100 1.521 1.471 1.471 1.401 1.431 1.441 1.371 1.381 1.431 1.471
2189.390 1.531 1.531 1.581 1.721 1.591 1.471 1.371 1.481 1.661 1.561
2208.680 1.611 1.541 1.341 1.371 1.501 1.681 1.641 1.461 1.481 1.631
2227.970 1.581 1.521 1.501 1.581 1.741 1.761 1.811 1.691 1.691 1.841
2247.259 1.831 1.751 1.641 1.641 1.651 1.581 1.611 1.631 1.621 1.731
2266.549 1.891 1.861 1.861 1.861 1.691 1.521 1.461 1.671 1.911 2.021
2285.839 1.921 1.761 1.761 1.571 1.481 1.561 1.541 1.561 1.341 1.391
2305.129 1.731 1.861 1.851 1.811 1.671 1.541 1.701 1.841 1.901 1.671
2324.418 1.301 1.551 1.861 1.821 1.901 1.951 1.631 1.351 1.471 1.521
2343.708 1.591 1.661 1.571 1.591 1.731 1.741 1.511 1.421 1.631 1.741
2362.998 1.561 1.491 1.551 1.541 1.561 1.581 1.471 1.481 1.611 1.511
2382.288 1.531 1.471 1.481 1.521 1.401 1.411 1.411 1.601 1.571 1.451
2401.578 1.631 1.641 1.471 1.451 1.421 1.351 1.531 1.621 1.581 1.571
2420.867 1.661 1.791 1.531 1.331 1.541 1.461 1.321 1.311 1.441 1.481
2440.157 1.301 1.421 1.691 1.531 1.411 1.561 1.411 1.361 1.641 1.771
2459.447 1.721 1.611 1.541 1.571 1.651 1.661 1.661 1.641 1.541 1.571
2478.737 1.581 1.501 1.501 1.531 1.561 1.701 1.671 1.701 1.681 1.441
2498.026 1.481 1.731 1.751 1.741 1.811 1.611 1.571 1.801 1.851 1.911
2517.316 1.801 1.661 1.701 1.811 1.961 1.731 1.841 1.871 1.851 2.041
2536.606 1.961 1.961 1.911 2.071 2.321 2.141 2.121 2.391 2.201 2.141
2555.896 2.311 2.411 2.411 2.431 2.501 2.701 2.991 2.851 2.611 2.531
2575.186 2.901 3.141 2.901 2.961 3.261 3.371 3.271 3.131 3.141 3.241
2594.475 3.351 3.401 3.591 3.711 3.581 3.501 3.401 3.501 3.631 3.771
2613.765 3.901 3.801 3.731 3.931 4.491 4.541 4.321 4.271 4.301 4.401
2633.055 4.261 4.171 4.201 4.471 4.641 4.561 4.471 4.471 4.281 4.421
2652.345 4.911 5.081 5.051 5.011 5.191 5.101 5.231 5.691 5.801 5.621
2671.634 5.691 5.771 6.131 6.611 6.581 6.781 6.791 6.751 6.951 7.221
2690.924 7.501 7.441 7.451 7.731 7.981 8.171 8.311 8.611 9.181 9.631
2710.214 10.101 10.511 11.081 11.821 12.321 12.611 13.071 13.801 14.381 14.811
2729.504 15.401 15.921 16.071 16.461 17.021 17.121 17.161 17.821 18.721 19.501
2748.794 20.171 21.261 22.271 23.101 24.401 26.021 27.741 29.461 31.331 33.561
2768.083 36.071 38.741 41.571 44.811 48.551 52.141 55.611 59.181 62.871 66.631
2787.373 69.701 72.101 74.081 75.521 75.671 74.171 71.971 69.181 65.921 62.121
2806.663 57.841 53.671 49.731 45.901 42.101 38.681 35.711 32.881 30.851 29.051
2825.953 27.161 25.841 24.851 23.851 22.841 21.971 21.101 20.581 19.971 19.121
2845.242 19.221 19.361 19.511 19.741 19.521 19.811 20.501 21.501 22.531 23.731
2864.532 25.021 25.861 27.051 28.541 29.671 30.581 31.371 31.881 32.091 31.891
2883.822 31.401 31.011 30.841 31.041 31.431 31.411 31.841 32.781 33.741 35.201
2903.112 36.671 38.241 40.251 42.281 43.971 45.511 46.731 47.751 48.641 49.171
2922.401 49.521 49.351 49.021 48.931 48.781 48.661 48.891 49.281 50.121 51.061
2941.691 52.011 53.311 54.711 55.961 57.001 58.281 59.361 60.281 60.541 60.591
2960.981 60.421 59.231 56.781 53.661 50.511 46.621 42.241 37.631 33.181 29.031
2980.271 25.181 22.061 19.421 17.311 15.811 14.181 12.811 11.681 10.731 10.251
2999.561 10.121 10.101 9.941 9.701 9.611 10.071 10.771 11.481 12.271 13.201
3018.850 14.731 16.631 18.461 20.531 22.731 24.761 26.091 26.321 26.741 26.941
3038.140 25.871 24.061 22.411 20.751 18.861 17.431 16.531 15.821 15.421 16.211
3057.430 17.811 19.641 21.981 24.761 27.421 29.251 30.001 30.161 29.361 27.051
3076.720 24.791 22.651 20.181 18.441 17.141 16.071 15.361 14.601 13.441 12.601
3096.009 11.681 10.251 9.451 8.971 8.181 7.381 6.941 6.581 5.771 4.941
3115.299 4.641 4.131 4.011 4.011 3.641 3.401 3.071 2.491 2.041 2.341
3134.589 2.201 1.731 1.751 1.911 2.021 2.101 1.861 1.731 1.981 1.621
3153.879 1.241 1.471 2.051 2.411 1.931 1.831 1.901 1.981 1.871 1.241
3173.169 1.441 1.701 1.731 1.881 1.441 0.9082 1.191 1.471 1.1215 1.0213
3192.458 1.1223 1.1753 1.341 1.191 1.321 1.441 0.9211 0.7765 0.5851 0.9381
3211.748 1.381 1.154 1.1709 1.241 1.1458 1.1319 1.361 1.701 1.491 0.9528
3231.038 0.9825 0.9572 1.0262 1.361 1.1169 0.7797 0.8671 0.9534 1.0555 1.023
3250.328 1.1507 1.391 1.671 1.481 1.301 1.201 0.8753 1.0341 1.1056 1.0124
3269.617 0.9537 1.0843 1.1792 1.281 1.471 1.601 1.491 1.381 1.0474 0.8112
3288.907 0.9644 1.391 1.501 1.271 1.381 1.271 1.351 1.201 0.9126 0.9056
3308.197 1.1288 1.201 1.1195 1.471 1.0489 0.26478 0.6219 1.241 1.501 1.731
3327.487 1.781 1.911 1.981 2.081 2.111 1.951 2.081 1.771 1.681 1.711
3346.777 1.371 1.611 1.801 1.611 1.841 1.951 1.651 1.431 1.401 1.441
3366.066 1.311 1.641 1.801 1.471 1.241 1.341 1.301 1.1637 0.822 0.6372
3385.356 1.1268 1.281 1.1325 1.331 1.0866 1.0645 1.211 1.281 1.371 1.1443
3404.646 1.221 1.221 1.065 0.9414 1.201 1.0798 0.6768 0.9612 1.341 1.321
3423.936 1.261 1.1194 0.782 0.5306 0.7395 0.8301 0.7345 0.743 0.5279 0.6872
3443.225 0.8785 0.9644 0.9267 0.8395 1.096 0.8804 0.6907 0.8468 0.7642 0.5116
3462.515 0.7618 1.1521 1.221 1.048 0.6419 0.5235 0.6631 0.9121 0.8039 0.5323
3481.805 0.8182 0.8763 0.747 1.271 1.691 1.201 0.6923 1.114 1.391 0.9576
3501.095 0.7874 0.8901 0.7083 0.7798 1.0407 0.757 0.4743 0.4246 0.6751 1.0143
3520.385 1.027 0.894 0.5726 0.395 0.24373 0.5737 0.7547 0.4871 0.5931 0.75
3539.674 0.8503 0.739 0.3545 0.312 0.8433 1.0837 1.321 1.241 0.7418 0.7515
3558.964 0.7659 0.446 0.1603 0.23071 0.3111 0.3415 0.458 0.7624 0.8995 0.762
3578.254 0.8722 0.57 0.046 0.309 0.9916 1.1412 1.261 1.441 1.361 1.531
3597.544 1.601 1.241 1.1387 0.9055 1.351 1.351 0.478 0.8006 0.6802 0.6727
3616.833 1.301 1.1519 1.0314 1.1829 1.1249 1.271 1.1167 0.7839 1.231 1.361
3636.123 1.0985 1.0841 1.0672 1.1353 1.0364 0.885 1.0228 1.1666 1.1843 1.0944
3655.413 1.201 1.291 1.0925 1.0149 1.0637 0.9908 0.8025 0.608 0.74 0.9066
3674.703 0.9573 1.341 1.591 1.0095 0.6934 1.261 1.251 0.8409 0.8284 0.8174
3693.993 1.1148 1.351 1.551 1.731 1.471 1.261 0.7855 1.0568 1.471 1.241
3713.282 1.491 1.491 1.451 1.471 1.211 0.8994 0.7403 1.1074 1.201 1.0511
3732.572 0.9277 0.7832 1.11 1.251 1.441 1.651 1.077 0.9692 0.9299 0.9613
3751.862 1.571 1.631 1.501 1.761 1.681 1.351 1.301 0.8616 0.5361 0.85
3771.152 0.9184 0.8586 0.8189 0.8061 1.055 1.231 1.0848 0.7638 0.9786 1.1696
3790.441 1.401 1.501 1.591 1.351 0.5884 0 0.28912 1.0887 0.817 1.1091
3809.731 1.551 1.641 1.741 1.1427 0.5578 0.6053 0.7561 0.948 1.481 1.361
3829.021 1.221 1.701 1.461 1.191 1.361 1.241 0.9503 0.7505 1.153 1.331
3848.311 0.9444 1.0507 1.1861 1.0992 1.261 1.137 1.1625 1.591 1.751 1.241
3867.601 0.7765 0.9414 1.1284 0.9023 0.8319 0.9742 1.0784 0.9691 0.9371 1.401
3886.890 1.571 1.631 1.621 1.0375 0.7976 1.0275 0.9678 1.1183 0.9668 1.0801
3906.180 1.0803 0.9044 1.431 0.9662 0.6595 0.9275 0.6248 0.3724 0.6871 1.0854
3925.470 1.1593 1.0805 0.9484 0.9806 1.0911 1.291 1.431 1.221 1.321 1.391
3944.760 1.0678 1.251 1.321 1.231 1.1431 1.1397 1.1346 1.0266 1.361 0.8782
3964.049 0.3836 1.221 1.501 1.0526 1.241 1.621 1.541 1.321 1.1843 1.271
3983.339 1.1749 0.9378 1.431 1.591 0.9974 0.7112 1.0031 1.211 1.0299 1.311
##END=
