##TITLE=2-Cyano-4'-methylbiphenyl
##JCAMP-DX=4.24
##DATA TYPE=INFRARED SPECTRUM
##ORIGIN=EPA-IR VAPOR PHASE LIBRARY
##OWNER=SRD/NIST
Collection (C) 2018 copyright by the U.S. Secretary of Commerce
on behalf of the United States of America. All rights reserved.
##CAS REGISTRY NO=114772-53-1
##MOLFORM=C 14 H 11 N
##$NIST SOURCE=MSDC-IR
##STATE=gas
##XUNITS=1/CM
##YUNITS=ABSORBANCE
##XFACTOR=1.
##YFACTOR=0.001
##DELTAX=1.92898
##FIRSTX=549.8
##LASTX=4000.7
##FIRSTY=3.402
##MAXX=4000.7
##MINX=549.759
##MAXY=0.071622
##MINY=0
##NPOINTS=1790
##XYDATA=(X++(Y..Y))
549.759 3.402 4.092 4.202 3.612 4.042 4.772 5.642 6.322 5.522 4.832
569.049 4.742 4.592 4.052 4.532 4.682 3.682 2.942 3.062 3.402 3.052
588.339 2.852 2.942 3.702 4.402 3.612 3.242 3.382 2.852 2.622 2.152
607.628 1.802 1.782 1.642 1.662 2.102 1.792 0.7614 0.45813 0.717 1.242
626.918 1.652 1.892 1.892 1.402 1.812 2.042 2.432 3.242 2.772 2.362
646.208 1.982 1.802 2.072 2.062 2.512 2.772 2.412 2.412 2.102 1.442
665.498 1.522 2.312 2.712 2.262 2.392 2.742 2.682 3.612 3.772 3.382
684.787 3.792 3.672 2.962 2.692 2.582 2.342 2.232 2.392 2.752 2.482
704.077 2.262 2.902 2.932 2.562 2.982 3.622 4.082 3.932 3.542 4.012
723.367 4.472 4.492 4.582 4.792 5.392 6.262 7.002 8.522 10.742 13.532
742.657 16.962 21.352 27.812 35.262 42.792 50.582 58.192 66.362 71.622 67.362
761.947 58.222 50.032 42.442 34.972 27.312 20.542 15.282 11.022 8.222 6.752
781.236 5.532 4.662 4.622 4.412 4.212 4.172 3.902 4.582 5.282 5.792
800.526 6.452 7.602 9.972 12.442 15.382 18.932 22.692 25.332 26.192 26.392
819.816 25.872 23.922 20.462 16.102 12.342 10.212 8.582 6.702 5.332 4.462
839.106 4.002 3.982 3.612 3.322 2.892 3.322 3.462 2.912 2.662 2.552
858.395 2.352 2.052 2.342 2.792 2.482 2.262 2.662 2.572 2.742 2.942
877.685 3.272 3.212 2.932 2.672 2.722 3.242 2.702 2.292 2.512 2.422
896.975 1.952 1.982 2.272 1.992 1.572 1.452 1.732 2.012 2.242 2.102
916.265 2.132 2.062 2.082 2.252 2.122 2.302 2.142 1.822 2.252 2.652
935.555 2.682 2.982 3.102 3.282 3.382 2.932 2.972 3.012 2.962 2.942
954.844 2.642 2.452 2.222 2.342 2.532 2.652 2.172 1.482 1.3167 1.592
974.134 1.512 1.522 1.992 1.782 1.0976 0.7311 1.1926 1.842 2.302 2.652
993.424 4.112 5.222 6.252 8.142 9.532 10.652 11.442 11.422 10.272 8.852
1012.714 7.342 5.822 4.152 3.222 3.442 3.102 2.592 2.502 3.292 3.412
1032.003 2.402 2.452 2.812 2.952 3.732 3.592 3.652 4.802 4.892 3.762
1051.293 3.662 3.792 2.202 1.872 2.232 1.582 1.722 1.772 2.172 2.432
1070.583 1.0548 1.482 2.192 1.892 0.9866 1.0444 2.332 2.722 2.202 1.912
1089.873 2.182 2.552 2.312 2.202 3.262 3.912 4.232 4.512 4.462 4.712
1109.163 4.632 4.792 6.102 6.242 5.282 5.652 4.492 4.382 5.772 4.522
1128.452 4.172 5.012 4.562 3.022 3.092 3.162 2.152 1.432 1.2779 1.732
1147.742 2.282 2.392 3.282 3.792 2.622 3.092 3.352 2.802 2.632 2.262
1167.032 2.622 2.802 3.082 2.752 3.152 3.902 3.572 3.872 4.582 5.622
1186.322 6.542 7.872 7.962 7.042 6.542 5.902 6.172 5.972 4.312 4.932
1205.611 4.842 4.342 5.932 6.182 6.412 5.052 3.812 4.972 6.112 6.282
1224.901 5.642 4.922 4.282 4.252 4.842 4.952 4.932 4.392 4.152 4.262
1244.191 4.592 4.472 4.472 5.052 4.772 5.012 5.332 5.342 5.572 6.062
1263.481 6.552 6.142 5.912 5.982 5.402 5.052 5.052 4.762 4.182 3.762
1282.771 3.342 3.372 3.452 2.912 2.502 2.042 1.992 2.072 1.912 2.032
1302.060 2.042 1.942 1.962 2.092 2.372 2.402 2.232 2.352 2.442 2.372
1321.350 2.172 2.112 2.132 1.822 1.892 2.132 2.122 2.182 2.152 2.022
1340.640 2.082 2.212 2.222 2.152 2.262 2.472 2.582 2.592 2.642 2.742
1359.930 2.692 2.652 2.512 2.472 2.652 2.712 2.622 2.882 3.252 3.262
1379.219 3.372 3.562 3.652 3.662 3.792 3.862 3.942 3.862 3.842 4.112
1398.509 4.162 4.302 4.572 4.782 5.002 5.262 5.412 5.602 5.742 5.832
1417.799 5.862 5.792 5.822 6.092 6.412 6.792 7.102 7.642 8.332 9.082
1437.089 10.312 11.492 12.372 12.722 12.562 11.892 10.992 9.912 8.652 7.582
1456.378 6.912 7.112 7.832 8.782 10.482 12.902 16.202 20.462 25.322 30.692
1475.668 34.932 36.802 36.572 34.772 31.192 25.842 19.622 14.462 10.752 8.592
1494.958 7.462 6.902 6.702 6.732 7.022 7.502 8.332 9.442 10.562 11.422
1514.248 11.802 11.872 11.702 11.002 9.612 8.092 6.832 5.632 4.872 4.482
1533.538 4.142 4.172 3.972 3.452 3.222 3.302 3.552 3.452 3.222 3.242
1552.827 3.202 3.482 3.632 3.382 3.592 3.912 4.102 4.442 4.532 4.222
1572.117 4.092 4.132 4.062 4.172 4.342 4.432 4.582 5.172 5.702 6.222
1591.407 6.972 7.452 7.982 8.182 8.142 8.162 8.162 7.822 7.922 8.262
1610.697 7.982 7.982 8.212 8.172 7.642 6.902 6.332 6.042 5.902 5.742
1629.986 5.682 5.362 4.962 4.872 4.832 4.692 4.742 4.682 3.972 3.452
1649.276 3.282 3.122 2.882 2.932 2.702 2.342 2.342 2.202 1.992 1.862
1668.566 1.652 1.442 1.602 1.772 1.702 1.632 1.562 1.522 1.512 1.542
1687.856 1.712 1.932 1.932 1.832 1.782 1.902 2.102 2.342 2.602 2.882
1707.146 2.832 2.462 2.242 2.182 2.082 1.852 1.602 1.632 1.772 1.782
1726.435 1.722 1.612 1.792 1.852 1.912 2.142 1.892 1.762 1.892 2.012
1745.725 2.172 2.262 2.352 2.272 2.222 2.332 2.222 2.162 2.192 2.092
1765.015 1.972 1.992 2.052 1.962 2.142 2.472 2.502 2.522 2.722 2.952
1784.305 3.002 3.182 3.242 3.102 2.842 2.552 2.362 2.162 1.932 1.672
1803.594 1.662 1.882 2.092 2.332 2.342 2.222 2.412 2.622 2.772 2.732
1822.884 2.722 2.672 2.362 2.072 1.872 1.802 1.902 1.792 1.732 1.912
1842.174 2.042 2.122 2.212 2.412 2.352 2.152 2.292 2.272 2.122 2.092
1861.464 2.042 1.992 1.902 1.772 1.702 1.732 1.782 1.852 1.962 2.102
1880.754 2.282 2.572 2.772 3.172 3.722 4.052 4.292 4.482 4.652 4.802
1900.043 4.782 4.432 3.992 3.562 3.202 2.792 2.522 2.562 2.572 2.792
1919.333 2.992 3.182 3.252 3.412 3.462 3.412 3.492 3.222 2.992 2.812
1938.623 2.552 2.132 1.792 1.582 1.542 2.022 2.342 2.352 2.532 2.752
1957.913 3.032 2.942 2.802 2.792 2.452 2.192 2.102 1.742 1.502 1.562
1977.202 1.3894 1.228 1.3263 1.3478 1.1847 1.1646 1.1336 1.0975 1.1405 0.8366
1996.492 0.7843 0.999 0.9959 0.9779 1.0119 1.1829 1.249 1.1272 1.0816 1.0113
2015.782 1.0726 1.1595 0.9819 0.9306 0.9513 1.0999 1.2127 1.107 1.1497 1.1239
2035.072 1.0304 1.2076 1.3143 1.0861 1.112 1.1325 0.883 0.9101 0.9495 1.0847
2054.362 1.2564 1.0166 0.8104 0.9308 0.9662 1.1188 1.1348 1.1103 1.2789 1.1984
2073.651 0.9825 0.8508 0.9957 1.0513 0.9508 0.9681 0.9726 1.1033 1.2073 0.9638
2092.941 0.8182 0.7251 0.8535 1.1913 1.3143 1.2325 0.9796 0.9351 1.0098 1.0072
2112.231 0.9709 0.9005 0.9301 1.0801 1.2262 1.2386 1.0428 0.8531 0.8297 0.8552
2131.521 1.0058 1.0595 1.205 1.2784 0.8486 0.6941 0.9155 0.8751 0.8941 0.9142
2150.810 0.7739 0.7754 0.9619 0.9444 0.9776 0.9485 0.9776 1.1996 1.1514 0.9204
2170.100 0.8771 0.9264 0.911 1.0871 1.2213 1.2743 1.309 1.2783 1.247 0.9873
2189.390 0.7477 0.7521 0.9054 1.314 1.532 1.482 1.432 1.377 1.432 1.782
2208.680 1.992 2.122 2.322 2.642 3.152 3.712 4.332 4.952 5.512 5.972
2227.970 6.092 6.052 6.002 5.452 4.782 4.142 3.642 3.162 2.432 2.092
2247.259 1.832 1.562 1.552 1.502 1.3848 1.2784 1.2004 1.2562 1.2995 1.3743
2266.549 1.412 1.1822 1.3088 1.632 1.462 1.3327 1.1462 0.9009 1.0543 1.2549
2285.839 1.3328 1.442 1.692 1.792 1.612 1.522 1.452 1.3381 1.3517 1.2471
2305.129 1.2968 1.542 1.462 1.402 1.582 1.682 1.562 1.442 1.632 1.742
2324.418 1.482 1.2921 1.532 1.622 1.522 1.622 1.512 1.612 1.632 1.3913
2343.708 1.2172 1.018 1.2907 1.532 1.0503 0.8019 0.9405 0.7975 0.8166 1.0028
2362.998 0.9864 1.0465 1.0246 1.0628 1.2645 1.3638 1.2755 0.9771 0.8305 0.8991
2382.288 1.1972 1.2891 1.0423 0.8964 1.1458 1.422 1.2016 0.8425 0.7918 0.9984
2401.578 1.206 1.0897 1.1256 1.278 1.1742 1.3405 1.1967 0.969 1.2627 1.3503
2420.867 0.9972 0.8539 0.9945 1.0446 1.1605 1.2382 0.9476 0.8615 1.1923 1.3775
2440.157 1.301 1.0451 0.9437 0.675 0.6913 1.1456 0.976 0.6818 0.6889 0.6841
2459.447 0.8794 1.1996 1.1407 1.1644 1.0792 0.6714 0.7251 0.7823 0.6388 0.5096
2478.737 0.7234 0.9697 0.7725 0.7525 0.8497 0.8934 1.0021 1.2751 1.442 1.246
2498.026 1.0392 0.8568 0.7761 0.9204 1.1193 1.1589 1.022 1.075 1.0588 0.9536
2517.316 0.9835 1.0809 1.0047 0.845 0.9904 1.1428 0.9705 0.767 0.9084 1.0617
2536.606 1.3741 1.3522 1.0475 0.8645 0.9031 1.0843 1.0006 1.1423 1.3227 1.2622
2555.896 1.1643 1.0405 1.0837 1.1397 1.1046 0.8618 0.7058 1.176 1.2138 0.9921
2575.186 1.2779 1.512 1.3464 1.0286 1.2608 1.582 1.672 1.662 1.492 1.652
2594.475 1.672 1.472 1.502 1.702 1.772 1.502 1.582 1.662 1.2566 0.9725
2613.765 0.9958 1.1999 1.1933 1.0981 1.1372 1.0018 0.8512 0.7859 0.9387 1.2509
2633.055 1.2493 1.0061 1.1416 1.2801 0.9746 0.6943 0.7654 0.9672 0.9802 0.9788
2652.345 1.1692 1.402 1.3674 1.0284 1.0102 1.3572 1.1939 0.9953 0.8037 0.8927
2671.634 1.412 1.502 1.3066 1.3469 1.373 1.1718 1.0498 0.9985 0.9653 0.9139
2690.924 0.8767 0.7689 0.9241 1.1038 1.2015 1.2482 1.148 0.957 0.9783 1.2258
2710.214 1.1808 1.2125 1.1857 1.0331 1.1132 1.1967 1.0436 1.0689 1.3708 1.522
2729.504 1.2522 1.006 1.0872 1.642 2.062 1.852 1.942 2.142 1.842 1.592
2748.794 1.642 1.682 1.912 1.852 1.622 1.502 1.2705 1.1116 1.002 1.196
2768.083 1.2019 1.3286 1.2896 1.1637 1.3108 1.3726 1.412 1.3231 1.2407 1.1837
2787.373 1.238 1.0901 1.3812 1.642 1.452 1.692 1.732 1.422 1.642 1.652
2806.663 1.512 1.822 1.752 1.532 1.812 1.882 1.722 1.912 1.942 1.842
2825.953 1.772 1.682 1.822 2.342 2.532 2.572 2.762 2.562 2.322 2.502
2845.242 2.782 2.982 3.122 3.292 3.712 4.092 4.312 4.842 5.402 5.862
2864.532 6.102 6.462 7.162 7.512 8.132 8.682 9.182 9.442 9.362 9.202
2883.822 9.342 9.432 8.982 8.632 8.052 7.882 8.122 8.162 7.802 7.562
2903.112 7.652 7.682 7.632 7.732 8.202 8.842 9.542 9.932 10.162 11.432
2922.401 12.832 14.112 15.622 16.882 18.122 18.752 18.872 18.802 17.972 16.792
2941.691 15.402 13.762 12.162 10.422 9.422 8.602 7.922 7.272 6.802 6.512
2960.981 6.172 6.022 6.132 5.852 5.582 5.552 5.732 6.192 6.192 6.122
2980.271 6.292 6.802 7.202 7.322 7.562 7.972 8.412 8.852 9.492 10.322
2999.561 10.312 10.492 10.792 11.132 11.602 11.732 11.712 12.212 13.112 13.952
3018.850 15.642 17.852 20.102 22.592 24.852 26.522 27.802 28.202 27.122 25.112
3038.140 22.802 20.112 17.872 16.292 15.102 14.652 14.932 15.322 15.602 16.032
3057.430 16.542 17.712 19.152 20.032 20.972 22.162 23.232 24.432 25.352 25.032
3076.720 23.862 22.132 20.482 18.602 16.212 14.082 12.392 11.332 10.792 9.772
3096.009 8.772 8.282 7.952 7.382 6.152 5.622 5.112 4.492 4.192 4.222
3115.299 4.382 4.042 3.602 3.642 3.782 3.772 3.522 3.422 4.052 4.152
3134.589 4.012 3.582 2.942 3.172 2.912 2.372 2.172 1.772 1.802 1.762
3153.879 1.642 1.392 1.1902 0.7028 0.261 0.6309 0.793 0.716 0.8047 0.42568
3173.169 0.176 0.8888 1.1888 0.6867 0.393751 0.9057 1.3666 1.0144 0.45841 0.8704
3192.458 1.3156 1.0717 0.9101 0.9749 1.0871 1.0219 0.9253 0.6245 0.44145 0.6293
3211.748 0.7778 1.308 1.3391 1.0804 1.2917 0.8764 0.9894 1.2755 1.1048 0.7562
3231.038 0.7157 1.1588 1.1892 0.5991 0.3372 0.43754 0.148 0.45308 0.7291 0.5521
3250.328 0.6238 0.7482 0.42402 0.47231 0.7629 0.8609 1.3075 0.8524 0.42581 0.8871
3269.617 1.1288 1.1047 0.9963 1.0757 0.8811 0.9709 1.1276 0.796 0.4967 0.266
3288.907 0.5367 1.2971 1.3154 0.285 0.3304 0.8518 0.6895 0.7888 0.5686 0.543
3308.197 0.7493 0.8331 1.1259 0.9316 0.8817 0.9097 0.9031 0.9521 0.7563 0.549
3327.487 0.7775 1.2066 1.0447 0.544 0.7499 1.1834 0.7468 0.3666 0.40399 0.43539
3346.777 0.2977 0.5329 1.0679 1.0229 0.5023 0.328 1.0058 1.1075 0.8744 1.1778
3366.066 1.021 0.7999 0.9247 1.1327 1.0178 0.8317 0.8649 0.6486 0.9158 1.1534
3385.356 1.1431 1.522 1.512 1.492 1.332 1.1005 0.9551 1.0219 0.7708 0.5537
3404.646 0.7374 1.0256 1.3405 1.1911 1.0578 1.1142 1.2314 1.0118 0.755 1.0343
3423.936 1.1499 1.284 1.388 1.1267 1.0484 0.714 0.7097 0.7394 0.40828 0.44354
3443.225 0.7837 0.8968 0.7648 0.6657 0.8376 1.129 0.6838 0.246 0.614 0.5791
3462.515 0.5349 0.64 0.5479 0.6361 0.6632 1.249 1.2311 0.8074 1.0177 0.912
3481.805 0.5774 0.5194 0.4379 0.47759 0.8165 0.7082 0.8474 1.1075 1.0175 0.5469
3501.095 0.6052 1.0332 1.2756 1.562 1.2656 1.258 1.532 1.3719 0.9785 1.1105
3520.385 1.021 0.7686 1.0897 0.8244 0.6102 0.7158 0.6065 0.6883 0.9905 1.3039
3539.674 1.1662 1.1473 1.2157 0.6365 0.237 0.48312 0.6591 0.7492 0.6726 0.8254
3558.964 1.272 1.1568 0.278 0.243 0.9951 1.1152 1.2974 0.8632 0.085 0.015
3578.254 0.46819 0.8876 1.051 1.1995 1.0367 1.0006 1.3898 1.602 1.582 1.3246
3597.544 0.9443 1.0645 1.2807 0.9399 0.7179 0.8338 0.7944 0.7221 0.5324 0.695
3616.833 0.6332 0.551 0.8543 0.6088 0.6337 0.595 0.269 0.723 1.1159 0.8497
3636.123 1.0417 1.652 1.642 1.492 0.9211 0.4923 0.8536 0.6349 0.4971 0.7175
3655.413 0.5276 0.549 0.7441 0.7833 0.9074 1.1667 1.482 1.3248 1.0629 0.899
3674.703 0.5164 0.3321 0.40626 0.44895 0.8343 1.2974 1.0168 0.218 0.2985 0.7804
3693.993 1.0967 0.9553 0.239 0.184 0.7071 1.1072 1.0395 0.3337 0.207 1.038
3713.282 1.492 1.442 1.1367 0.6848 1.0288 1.3394 0.8911 0.7938 1.0025 1.1977
3732.572 1.1177 0.9862 1.1105 0.9098 0.235 0.094 0 0.039 0.272 0.396565
3751.862 0.7363 1.0312 1.1026 1.2598 1.732 1.402 0.47211 0.6037 1.472 1.3242
3771.152 0.6207 0.6383 1.173 1.462 0.839 0.075 0.396292 0.682 1.1726 1.752
3790.441 1.3129 1.0328 0.8281 1.0078 1.0023 0.9258 1.2953 0.8556 0.43231 0.45069
3809.731 0.9079 1.1032 0.8572 0.9859 1.3209 1.0166 0.6807 1.0817 1.3634 1.452
3829.021 1.642 1.632 1.602 1.3416 0.9094 0.7744 0.5697 1.0686 1.3056 0.8762
3848.311 0.9412 0.8775 0.47889 0.4974 0.7248 0.631 0.5871 0.947 1.0503 1.0766
3867.601 1.0116 0.7361 0.7839 0.6137 0.6263 0.7161 0.7791 0.5113 0.8925 1.572
3886.890 1.412 1.3517 1.532 1.2317 0.5067 0.277 0.043 0.45285 0.6458 0.132
3906.180 0.3371 0.8297 0.8573 0.6071 0.5753 0.6457 0.7118 0.944 1.3724 1.2178
3925.470 0.4929 0.6363 1.3189 1.532 1.542 1.742 1.442 1.392 1.652 0.8279
3944.760 0.3614 0.42407 0.266 0.5003 0.848 1.0623 1.3344 1.2356 1.2653 1.2233
3964.049 0.6095 0.5123 0.7164 0.7869 1.2894 1.702 1.682 1.302 0.6456 0.5053
3983.339 0.679 0.7762 0.757 0.395762 0.4995 0.6816 0.7099 0.9002 1.2141 1.3024
##END=
