##TITLE=2-Acetylthiophene-O-methyloxime
##JCAMP-DX=4.24
##DATA TYPE=INFRARED SPECTRUM
##ORIGIN=EPA-IR VAPOR PHASE LIBRARY
##OWNER=SRD/NIST
Collection (C) 2018 copyright by the U.S. Secretary of Commerce
on behalf of the United States of America. All rights reserved.
##CAS REGISTRY NO=114773-97-6
##MOLFORM=C 7 H 9 N O S
##$NIST SOURCE=MSDC-IR
##STATE=gas
##XUNITS=1/CM
##YUNITS=ABSORBANCE
##XFACTOR=1.
##YFACTOR=0.001
##DELTAX=1.92898
##FIRSTX=549.8
##LASTX=4000.7
##FIRSTY=1.4696
##MAXX=4000.7
##MINX=549.759
##MAXY=0.103502
##MINY=0
##NPOINTS=1790
##XYDATA=(X++(Y..Y))
549.759 1.4696 0.9618 2.202 2.862 2.282 2.162 2.632 2.382 2.362 2.542
569.049 1.7445 1.7505 2.592 2.432 1.932 2.972 3.782 3.372 3.272 2.952
588.339 2.712 2.522 2.732 2.582 2.232 2.732 2.822 2.122 1.7336 1.6312
607.628 1.982 2.482 2.992 3.132 3.012 3.912 4.132 4.382 4.872 5.202
626.918 5.872 5.532 5.142 5.022 4.492 3.532 2.902 2.672 2.542 2.192
646.208 1.7405 1.7532 1.8217 2.382 2.742 2.562 2.822 3.062 2.872 2.542
665.498 2.752 3.572 4.052 4.572 5.472 7.022 8.922 10.742 13.582 17.322
684.787 21.522 25.402 28.632 32.482 38.702 44.022 47.662 53.632 49.312 38.062
704.077 33.382 30.972 28.072 24.272 20.272 16.702 13.532 11.072 9.162 7.872
723.367 7.442 6.922 6.922 7.702 7.572 7.102 6.882 6.682 6.742 6.702
742.657 6.352 5.502 4.942 4.922 4.712 4.522 4.102 3.442 3.122 2.702
761.947 2.352 2.462 2.592 2.242 1.7587 1.8434 1.962 2.362 2.712 2.252
781.236 1.7946 1.972 2.432 2.322 1.902 1.7571 1.7029 2.042 2.642 2.722
800.526 2.852 3.182 3.082 3.322 3.992 4.632 5.142 5.412 5.722 6.232
819.816 6.762 7.702 7.792 7.492 7.592 7.522 8.122 8.062 8.062 9.052
839.106 10.722 12.912 15.342 17.782 19.712 20.282 20.192 20.222 20.392 20.002
858.395 18.152 15.352 12.692 10.942 10.372 11.592 14.132 17.062 20.562 25.052
877.685 30.142 35.492 40.072 43.782 46.342 47.342 46.092 43.162 39.142 33.642
896.975 27.792 22.052 16.312 11.862 8.662 6.612 5.592 4.462 4.002 3.822
916.265 3.612 3.272 3.312 3.172 2.742 2.922 2.432 2.172 2.942 3.362
935.555 3.692 3.612 3.102 3.372 3.312 3.272 3.712 4.162 4.712 4.872
954.844 5.592 6.402 6.882 7.612 7.832 8.142 8.872 9.112 9.342 8.902
974.134 7.882 7.292 6.932 6.522 6.072 5.532 5.062 4.862 5.212 5.652
993.424 5.392 5.792 6.362 6.462 7.322 8.042 8.282 8.022 8.092 9.202
1012.714 10.052 10.642 11.812 12.742 13.482 15.152 17.082 19.112 21.552 24.002
1032.003 26.472 30.782 36.132 41.362 46.622 52.102 57.882 63.852 71.042 79.022
1051.293 85.452 90.362 95.502 99.352 101.792 103.502 102.982 100.272 95.272 87.362
1070.583 78.082 68.672 59.492 49.872 40.562 32.442 25.632 20.852 18.542 17.222
1089.873 14.332 11.912 11.872 11.482 9.712 7.922 7.492 7.632 7.352 6.202
1109.163 5.492 4.972 5.152 6.002 4.822 3.872 2.712 2.612 3.022 2.852
1128.452 2.282 1.3402 2.522 2.592 1.7896 2.412 2.282 2.982 3.652 2.502
1147.742 1.2756 2.042 4.222 3.622 2.162 2.432 3.282 3.222 2.722 3.102
1167.032 3.502 3.982 3.722 2.922 3.642 4.292 4.222 4.452 4.482 5.012
1186.322 4.882 4.422 4.062 3.292 2.812 2.892 3.902 4.322 3.792 3.942
1205.611 2.902 1.4091 1.3743 1.6916 2.432 3.662 4.962 5.202 5.282 6.242
1224.901 7.442 8.092 8.532 8.862 8.262 7.922 8.442 8.052 6.612 6.232
1244.191 5.782 4.762 3.872 2.612 2.302 2.982 3.632 4.252 4.072 3.932
1263.481 4.522 5.212 6.302 7.672 8.942 10.442 11.432 12.232 12.952 13.432
1282.771 14.272 14.622 14.652 14.912 14.752 13.952 13.812 13.862 13.252 12.402
1302.060 11.662 10.982 9.782 7.982 6.342 4.882 3.712 3.202 2.892 2.562
1321.350 2.522 2.642 2.672 2.562 2.512 2.462 2.422 2.572 2.862 3.402
1340.640 3.872 4.172 4.402 4.852 5.652 6.292 6.832 7.292 7.872 8.562
1359.930 9.072 9.432 9.802 10.372 10.912 11.392 11.672 11.802 11.982 12.132
1379.219 11.942 11.502 11.152 10.472 9.722 9.112 8.562 7.992 7.302 6.882
1398.509 6.492 6.242 5.992 5.782 5.862 5.782 5.832 6.062 6.442 7.002
1417.799 7.832 8.942 10.302 11.712 12.882 13.892 14.472 14.812 15.032 15.082
1437.089 14.592 13.662 12.672 11.732 10.822 10.062 9.232 8.552 8.352 8.002
1456.378 7.682 7.822 7.992 8.172 8.442 8.542 8.712 8.852 8.802 8.612
1475.668 8.412 8.112 7.612 7.092 6.482 6.032 5.712 5.442 5.262 5.052
1494.958 4.912 4.752 4.622 4.482 4.512 4.552 4.802 5.242 5.582 5.912
1514.248 6.172 6.442 6.842 7.332 7.622 7.572 7.332 7.102 6.632 6.032
1533.538 5.732 5.152 4.632 4.552 4.232 3.772 3.392 3.212 3.032 2.772
1552.827 2.882 3.042 3.162 3.112 2.912 2.882 2.752 2.832 2.772 2.602
1572.117 2.652 2.922 3.212 3.312 3.332 3.292 3.292 3.622 3.842 3.752
1591.407 3.792 3.912 4.222 4.012 3.522 3.452 3.112 2.572 2.312 2.472
1610.697 2.482 2.082 1.942 2.102 2.042 1.942 2.192 2.382 2.302 2.302
1629.986 2.222 2.162 2.322 2.492 2.622 2.732 2.702 2.672 2.612 2.362
1649.276 2.222 2.122 1.7402 1.6856 1.852 1.7347 1.6879 1.5495 1.4965 1.5165
1668.566 1.5001 1.8272 1.862 1.5068 1.4897 1.4507 1.3134 1.434 1.5311 1.6997
1687.856 1.6835 1.4674 1.5124 1.7285 1.7795 1.6556 1.6113 1.7316 1.7903 1.932
1707.146 2.082 2.082 2.112 2.102 1.962 1.8278 1.8022 1.7727 1.6915 1.616
1726.435 1.5933 1.464 1.4816 1.643 1.3976 1.3162 1.3909 1.3459 1.5045 1.6783
1745.725 1.6614 1.4951 1.3043 1.3642 1.7187 1.952 1.942 2.052 2.212 2.222
1765.015 2.232 2.222 2.522 2.792 2.782 2.922 3.082 3.152 3.092 2.982
1784.305 3.022 3.122 2.912 2.652 2.432 2.162 1.972 1.892 1.7979 1.6748
1803.594 1.5155 1.4147 1.4603 1.6248 1.6114 1.3006 1.3344 1.3546 1.2517 1.4511
1822.884 1.4174 1.2092 1.2692 1.4048 1.3315 1.2659 1.3522 1.3541 1.3059 1.3562
1842.174 1.2921 1.1625 1.1859 1.2082 1.2394 1.1761 1.1006 1.1785 1.3146 1.3635
1861.464 1.227 1.1664 1.221 1.106 1.1337 1.1485 1.0131 1.1188 1.081 1.123
1880.754 1.2839 1.3131 1.312 1.2359 1.1927 1.2071 1.3202 1.4246 1.4841 1.5222
1900.043 1.4334 1.3322 1.5986 1.6872 1.5838 1.6707 1.7149 1.5981 1.5926 1.6661
1919.333 1.7661 1.8367 1.7589 1.7991 1.932 2.022 1.942 1.7651 1.8014 2.022
1938.623 2.202 2.162 2.032 2.032 1.972 1.992 2.002 2.072 2.052 1.7485
1957.913 1.6649 1.6588 1.6897 1.6761 1.6171 1.5936 1.558 1.4801 1.2909 1.3224
1977.202 1.3963 1.2466 1.0749 1.1131 1.2458 1.3674 1.2933 1.2631 1.3229 1.2505
1996.492 1.2756 1.4287 1.4798 1.195 1.0389 1.1123 1.2702 1.4031 1.3537 1.2415
2015.782 1.244 1.3688 1.398 1.4719 1.4846 1.5112 1.4876 1.4057 1.5242 1.5103
2035.072 1.4953 1.5927 1.5506 1.4932 1.5515 1.479 1.3978 1.4552 1.4225 1.2659
2054.362 1.2141 1.2744 1.2277 1.3279 1.4273 1.5134 1.5869 1.4556 1.4822 1.489
2073.651 1.4469 1.393 1.618 1.7588 1.7197 1.6918 1.6583 1.7779 1.7008 1.6582
2092.941 1.852 1.902 1.5318 1.4766 1.5212 1.5011 1.6867 1.6054 1.4856 1.5324
2112.231 1.5385 1.4457 1.4062 1.3481 1.2537 1.3357 1.3001 1.2502 1.2783 1.2001
2131.521 1.3342 1.3486 1.2044 1.2305 1.3343 1.3506 1.3222 1.3917 1.383 1.2803
2150.810 1.2305 1.0916 1.022 1.2571 1.2075 1.1016 1.3935 1.4536 1.3478 1.349
2170.100 1.3935 1.3729 1.2035 1.2596 1.3957 1.2824 1.2106 1.1816 1.1319 1.1026
2189.390 1.1409 1.1314 1.1476 1.163 0.90524 0.7716 0.9713 1.2845 1.4738 1.4641
2208.680 1.2508 1.0275 0.94621 0.9975 1.0897 1.1346 1.1554 1.2339 1.4001 1.3531
2227.970 1.0825 1.1443 1.2297 1.0344 0.9862 1.0517 1.0752 1.152 1.1643 1.1802
2247.259 1.1374 1.2072 1.519 1.4655 1.1821 1.0691 1.1899 1.1179 0.87541 1.1181
2266.549 1.2466 1.2305 1.24 1.1137 1.1743 1.3073 1.2763 1.2267 1.2691 1.1393
2285.839 1.3046 1.4402 1.4112 1.4056 1.3467 1.3858 1.2241 1.0647 0.93684 0.91209
2305.129 1.1686 1.329 1.2035 1.113 1.2148 1.4085 1.3989 1.1836 1.2018 1.243
2324.418 1.0521 0.7864 0.7542 0.88726 0.9619 1.0629 1.1176 1.0959 1.0895 1.0349
2343.708 1.072 1.0318 1.1376 1.1361 0.84906 0.7977 1.084 1.2946 1.1073 1.1964
2362.998 1.2698 1.269 1.1392 0.8245 0.90508 0.9836 0.9914 1.2939 1.4471 1.3524
2382.288 1.3125 1.2124 1.2727 1.4225 1.3651 1.1178 0.92159 0.8761 1.0135 1.19
2401.578 1.2452 1.1636 0.9887 1.2125 1.2904 1.2813 1.5292 1.4336 1.0421 0.88485
2420.867 1.0885 1.2205 1.1429 1.2429 1.2606 1.0438 0.9621 1.1196 1.3934 1.417
2440.157 1.3499 1.4546 1.331 1.3347 1.4483 1.3758 1.4255 1.3577 1.3547 1.3341
2459.447 1.3569 1.5912 1.7204 1.5612 1.2937 1.2676 1.3714 1.4796 1.5162 1.5106
2478.737 1.4111 1.2761 1.206 1.0788 1.1332 1.1536 1.2529 1.5276 1.4209 1.1123
2498.026 1.0275 1.0725 1.1097 1.1651 1.1163 1.125 1.2454 1.3944 1.4516 1.1753
2517.316 1.0962 1.2075 1.3398 1.4328 1.2265 0.99 0.8382 0.87306 0.93475 1.1256
2536.606 1.1446 1.0779 1.2871 1.3557 1.179 1.1629 1.1426 1.133 1.158 1.1257
2555.896 0.9604 0.827 1.0207 1.0635 1.0529 1.058 1.1111 1.1626 1.3178 1.4753
2575.186 1.4776 1.137 1.0421 1.4536 1.4116 1.1193 1.3689 1.5665 1.6261 1.882
2594.475 1.7522 1.5024 1.3773 0.93471 0.7819 1.0868 0.9836 1.02 1.2023 1.3052
2613.765 1.5401 1.4032 1.3393 1.5177 1.4912 1.4194 1.306 1.2747 1.376 1.3365
2633.055 1.3612 1.5631 1.6182 1.5113 1.5137 1.3484 1.4135 1.4375 1.1897 1.279
2652.345 1.2427 1.1751 1.4144 1.5117 1.5234 1.5691 1.4673 1.3698 1.0716 1.0847
2671.634 1.3007 1.1486 1.101 0.9836 0.7954 1.089 1.3305 1.1512 1.1173 1.3498
2690.924 1.1643 1.0144 1.3393 1.3835 1.2348 1.4663 1.714 1.3577 1.3207 1.4617
2710.214 1.0755 0.91553 1.218 1.5989 1.4551 1.1184 1.2116 1.4967 1.2492 0.7912
2729.504 1.0225 1.084 1.0697 1.2792 1.3462 1.2976 1.426 1.6725 1.5835 1.6544
2748.794 1.6173 1.5956 1.6749 1.4672 1.2963 1.1768 1.1516 1.3118 1.4359 1.1993
2768.083 1.0961 1.3188 1.6894 1.872 1.902 2.082 2.132 2.042 2.042 2.232
2787.373 2.032 2.222 2.472 2.782 3.462 3.382 3.172 3.212 3.302 3.352
2806.663 3.862 4.362 4.942 5.582 6.242 7.512 8.852 10.202 11.242 11.832
2825.953 12.012 12.082 12.062 11.572 10.762 9.442 7.922 6.962 5.872 5.002
2845.242 4.582 4.482 4.632 4.632 4.662 4.632 4.552 4.682 5.292 5.672
2864.532 5.762 5.802 5.622 5.952 6.472 6.472 6.432 6.872 7.722 8.162
2883.822 8.092 8.372 9.022 10.162 10.922 11.062 11.572 11.922 12.552 13.922
2903.112 15.382 16.102 16.492 17.382 18.152 18.212 18.312 18.332 18.002 18.312
2922.401 18.572 18.362 18.662 19.262 19.952 21.772 23.812 25.362 27.222 29.242
2941.691 31.182 32.672 32.932 32.602 32.202 30.852 28.862 27.002 25.072 22.372
2960.981 19.952 18.532 17.242 15.892 15.572 15.752 15.002 14.262 13.572 12.782
2980.271 12.362 11.802 11.322 10.892 10.512 10.562 10.292 10.332 10.802 10.562
2999.561 10.532 10.732 10.602 10.362 9.842 9.282 8.752 8.232 7.852 7.442
3018.850 6.782 6.152 5.752 5.642 5.622 5.452 5.692 5.702 5.662 5.612
3038.140 5.292 5.272 5.162 5.162 5.172 4.992 4.862 4.952 5.042 4.962
3057.430 4.572 4.662 5.042 4.972 5.092 5.102 5.082 5.672 6.572 6.992
3076.720 7.422 8.342 8.652 8.552 8.592 8.472 8.002 7.742 7.642 6.962
3096.009 6.212 5.622 5.102 4.532 4.192 4.362 4.192 3.872 3.682 3.452
3115.299 3.342 2.942 2.542 2.612 2.452 2.092 1.882 1.6759 1.8131 1.851
3134.589 1.972 1.942 1.5932 1.3158 1.2847 1.7549 1.5353 1.2469 1.3813 1.4435
3153.879 1.2696 1.0725 1.287 1.2348 1.2949 1.2023 0.9714 1.0618 1.1411 1.2906
3173.169 1.3404 1.4156 1.3548 1.6467 2.052 1.872 1.3778 1.2006 1.2403 1.1325
3192.458 1.4631 1.7121 1.3516 1.1524 0.8333 0.643 1.0003 1.0136 0.9692 1.0011
3211.748 0.8293 1.327 1.765 1.026 0.633 1.1031 1.2205 1.1175 1.2261 1.2584
3231.038 0.992 0.489 0.561 0.572 0.411 0.566 0.88127 0.7946 0.337 0.546
3250.328 0.7732 0.529 0.658 0.742 0.407 0.336 0.33 0.66 1.0787 1.3595
3269.617 1.4347 1.0663 0.91182 1.0207 1.2508 1.2843 1.5858 1.4385 1.1778 1.1844
3288.907 0.8319 0.98 1.0608 0.88122 0.88428 1.0571 1.1104 1.0886 1.0994 0.90729
3308.197 0.9708 1.3535 1.2941 0.683 0.358 0.21 0.464 0.645 0.471 0.745
3327.487 1.1578 1.1941 0.87312 0.8367 0.861865 0.90247 0.9116 0.7572 0.852957 0.9071
3346.777 0.652 0.9795 1.1618 1.0141 0.7543 0.334 0.6 0.687 0.8634 0.95188
3366.066 0.822 1.0995 0.624 0.192 0.94153 1.3909 1.0495 1.1426 0.84353 0.53
3385.356 1.1624 1.5438 0.9874 0.7555 0.9846 1.1962 1.3452 1.2669 1.1691 1.1636
3404.646 0.89745 0.682 1.1124 1.1067 0.9545 0.682 0.531 0.87002 1.1085 0.9909
3423.936 0.855575 0.95041 1.357 1.5623 1.217 1.0055 0.91424 1.0317 1.2505 0.7959
3443.225 0.657 1.38 1.496 1.3801 1.4017 1.0936 0.93548 1.0008 0.89288 0.531
3462.515 0.556 0.90816 0.7793 0.569 0.7762 1.136 1.2626 0.7987 0.74 1.1643
3481.805 1.3289 1.2054 1.2987 1.111 0.568 0.708 0.89098 0.627 0.367 0.118
3501.095 0.127 0.673 0.7832 0.8143 0.87873 0.667 0.531 0.349 0.574 0.9679
3520.385 0.8147 0.7662 0.9561 0.7723 0.90277 0.736 0.68 1.0095 0.84937 0.616
3539.674 0.43 0.568 1.2072 1.3497 0.84981 1.0568 1.1165 0.708 0.7714 1.1876
3558.964 1.2403 1.0379 0.735 0.297 0.558 1.1927 1.5043 1.3743 0.669 0.301
3578.254 0.723 1.0702 0.9781 1.0302 1.1901 1.1839 1.1131 0.9588 0.7546 0.746
3597.544 0.402 0.323 0.652 0.67 0.685 0.498 0.591 0.8209 1.1497 1.1884
3616.833 0.91002 0.91127 0.558 0.585 0.86241 0.491 0.526 1.1456 1.4489 1.0572
3636.123 0.7921 0.9967 0.91755 1.209 1.1923 0.64 0.197 0.519 0.9494 0.602
3655.413 0.8144 1.0459 0.8407 1.0881 1.4586 1.0148 0.607 0.746 0.733 0.88277
3674.703 1.0808 1.4961 1.3649 0.728 0.298 0.054 0.653 0.61 0.282 1.2337
3693.993 1.4955 0.741 0.686 0.8699 0.87733 0.689 0.719 0.8391 0.58 0.987
3713.282 1.1659 1.1116 1.5579 1.1414 0.628 0.737 0.731 0.8386 1.2768 1.6021
3732.572 1.364 1.1013 1.3598 1.6325 1.2838 1.01 1.0237 0.493 0.572 1.1727
3751.862 1.1487 0.8365 0.88912 1.1929 1.175 1.2564 1.1306 1.2013 1.3745 1.1836
3771.152 1.0829 1.1556 0.706 0.45 0.609 1.1338 1.683 1.1039 0.84923 1.0207
3790.441 0.646 0.344 0.16 0 0.404 0.599 0.9667 1.1134 0.88775 1.3367
3809.731 1.2725 0.94911 0.9137 1.078 1.2057 0.84732 1.1082 1.1564 1.0982 1.426
3829.021 1.5125 1.5947 0.9735 0.971 1.1803 0.87572 1.1075 1.0645 0.90775 1.4953
3848.311 1.5665 1.2061 1.2768 1.0147 1.2112 1.2686 1.3322 1.2207 0.749 0.538
3867.601 0.452 0.966 1.0629 0.7635 0.9989 1.3587 1.2429 0.593 0.126 0.257
3886.890 0.342 0.706 1.0904 1.063 0.7881 0.54 0.7848 0.93821 1.5364 1.6466
3906.180 0.718 0.7627 0.8407 0.91229 1.4236 1.1473 0.86888 0.9686 1.3009 1.5465
3925.470 1.3152 1.6193 1.842 1.7461 1.8352 1.6514 1.3555 1.3152 1.852 1.8356
3944.760 1.902 1.5939 1.1236 0.90423 0.7932 1.1533 1.2235 1.0897 0.92572 1.3169
3964.049 1.4615 1.0865 1.217 1.5359 1.4139 1.1844 1.3665 1.286 0.838 0.344
3983.339 0.651 0.91008 0.442 0.519 0.8362 1.1608 0.9927 1.0625 1.2232 1.3388
##END=
