##TITLE=Methyl 2-isothiocyanato-3-methylbutyrate
##JCAMP-DX=4.24
##DATA TYPE=INFRARED SPECTRUM
##ORIGIN=EPA-IR VAPOR PHASE LIBRARY
##OWNER=SRD/NIST
Collection (C) 2018 copyright by the U.S. Secretary of Commerce
on behalf of the United States of America. All rights reserved.
##CAS REGISTRY NO=114877-91-7
##MOLFORM=C 7 H 11 N O 2 S
##$NIST SOURCE=MSDC-IR
##STATE=gas
##XUNITS=1/CM
##YUNITS=ABSORBANCE
##XFACTOR=1.
##YFACTOR=0.001
##DELTAX=1.92898
##FIRSTX=549.8
##LASTX=4000.7
##FIRSTY=7.78
##MAXX=4000.7
##MINX=549.759
##MAXY=0.3267
##MINY=0
##NPOINTS=1790
##XYDATA=(X++(Y..Y))
549.759 7.78 7.62 7.77 7.72 7.35 7 6.76 6.57 6.28 6.03
569.049 5.84 5.7 5.49 5.4 5.53 5.4 5 4.67 4.53 4.54
588.339 4.29 3.67 3.49 3.56 3.68 3.77 3.64 3.48 3.28 3.2
607.628 3.27 3.25 3.09 3.08 2.94 2.94 3.25 3.26 3.31 3.26
626.918 3.07 3 3.08 3.16 3.23 3.5 3.62 3.67 3.82 3.71
646.208 3.65 3.7 3.81 3.91 3.92 3.89 4.03 4.1 3.99 4.06
665.498 4.13 4.06 4.15 4.31 4.26 4.32 4.5 4.75 4.88 5.1
684.787 5.36 5.5 5.73 5.92 5.94 6.12 6.58 7.18 7.53 7.61
704.077 7.81 8.14 8.48 8.88 9.21 9.45 9.8 10.15 10.64 11.44
723.367 12.26 13.34 14.51 15.81 17.18 18.36 19.41 19.98 20.19 20.21
742.657 19.67 18.52 17.1 15.74 14.67 13.94 13.38 12.98 12.99 13.24
761.947 13.58 13.9 14.13 14.33 14.49 14.66 14.83 14.78 14.71 14.53
781.236 14.17 13.83 13.51 12.95 12.22 11.34 10.45 9.7 8.86 8.24
800.526 7.67 7.05 6.76 6.53 6.13 5.96 5.85 5.75 6.09 6.57
819.816 6.86 7.14 7.37 7.48 7.49 7.33 6.95 6.44 6.06 5.77
839.106 5.42 5.02 4.43 4.09 3.87 3.6 3.35 3.1 2.95 3.01
858.395 3.08 2.92 2.85 2.75 2.63 2.72 2.73 2.66 2.85 2.88
877.685 2.76 2.97 3.05 3 3.04 3.21 3.38 3.38 3.43 3.38
896.975 3.32 3.25 3.08 3.1 3.13 3.02 3.17 3.31 3.38 3.68
916.265 3.81 3.94 4.37 4.85 5.4 5.93 6.32 6.65 6.95 7.3
935.555 7.64 7.69 7.61 7.7 7.74 7.61 7.38 7.11 6.92 6.65
954.844 6.21 5.81 5.6 5.44 5.25 5.04 4.83 4.85 5.09 5.48
974.134 5.76 6.1 6.6 7.48 8.58 9.78 11.16 12.83 14.88 16.97
993.424 19 21.12 23.32 25.19 26.85 28.4 29.66 30.96 32.04 32.79
1012.714 33.8 34.53 34.81 34.85 34.48 33.18 31.42 29.46 26.87 23.77
1032.003 20.34 16.94 14.26 12.12 10.44 9.33 8.31 7.65 7.35 7.42
1051.293 7.14 6.64 6.79 6.95 7.13 7.42 7.59 7.83 8.1 8.03
1070.583 8.2 8.37 7.98 7.88 7.69 7.35 7.41 7.49 8.02 8.5
1089.873 8.43 8.71 9.21 9.6 9.78 9.94 10.61 11.53 12.04 12.37
1109.163 13.07 13.91 14.75 15.45 16.01 16.71 17.9 19.05 19.78 21.01
1128.452 22.52 24.33 26.57 28.82 30.97 33.43 35.97 38.33 40.82 43.03
1147.742 45.02 46.43 47.03 47.29 47.59 47.39 47.27 48.07 49.34 50.99
1167.032 53.3 56.39 59.78 63.54 66.65 69.04 71.43 73.3 74.33 74.7
1186.322 74.79 74.96 75.34 75.13 74.4 73.25 71.9 70.03 67.08 63.84
1205.611 60.07 55.73 51.31 48.14 45.87 43.69 42.38 41.62 41.01 40.79
1224.901 41.09 41.49 42.28 43.49 45.08 46.7 48.25 49.98 51.89 54.15
1244.191 56.56 59.24 62.25 65.24 68.07 70.73 73.04 74.73 75.69 75.92
1263.481 75.02 73.06 70.51 67.3 63.51 59.58 55.71 51.87 48.5 45.51
1282.771 42.89 40.98 39.49 38.52 37.94 37.33 36.81 36.33 35.73 34.93
1302.060 33.93 32.83 31.72 30.76 29.71 28.5 27.41 26.51 25.76 25.27
1321.350 24.95 24.73 24.79 25.18 25.71 26.24 26.9 27.84 28.76 29.54
1340.640 30.09 30.06 29.63 28.98 28 26.6 24.84 22.78 20.49 18.37
1359.930 16.46 14.91 13.88 13.25 12.97 12.89 12.96 13.14 13.49 14.01
1379.219 14.1 13.65 13.3 13.22 13.22 13.24 13.3 13.34 13.35 13.27
1398.509 12.96 12.26 11.38 10.46 9.4 8.31 7.51 6.96 6.64 6.48
1417.799 6.42 6.66 7.13 7.8 8.77 10.2 12.19 14.54 16.97 19.12
1437.089 20.77 21.9 22.5 22.41 21.48 19.68 17.44 15.59 14.45 13.97
1456.378 14.05 14.41 14.91 15.43 15.84 16.07 16.17 16.08 15.71 15.09
1475.668 14.15 12.96 11.73 10.46 9.27 8.24 7.31 6.5 5.94 5.54
1494.958 5.11 4.81 4.57 4.32 4.11 3.99 3.92 3.8 3.7 3.62
1514.248 3.57 3.47 3.37 3.29 3.19 3.12 3.1 3.04 2.98 2.98
1533.538 2.95 2.87 2.81 2.93 3 2.92 2.89 2.89 2.92 2.85
1552.827 2.82 2.85 2.85 2.83 2.85 2.86 2.85 2.8 2.75 2.72
1572.117 2.66 2.65 2.68 2.76 2.7 2.58 2.64 2.78 2.81 2.7
1591.407 2.65 2.7 2.7 2.6 2.62 2.64 2.62 2.58 2.52 2.5
1610.697 2.48 2.46 2.45 2.52 2.6 2.54 2.48 2.5 2.53 2.49
1629.986 2.48 2.48 2.46 2.49 2.56 2.54 2.44 2.39 2.4 2.44
1649.276 2.49 2.48 2.54 2.56 2.55 2.49 2.49 2.57 2.58 2.62
1668.566 2.63 2.66 2.72 2.76 2.8 2.9 3 3.09 3.17 3.24
1687.856 3.36 3.51 3.61 3.73 3.89 4.06 4.36 4.64 4.94 5.43
1707.146 5.9 6.38 7.07 7.85 8.6 9.47 10.51 11.56 12.7 14.05
1726.435 15.45 16.86 18.36 19.98 21.77 23.83 26.16 29.19 33.28 38.81
1745.725 46.11 55.47 66.75 79.18 91.41 102.31 111.29 117.61 120.94 120.44
1765.015 115.45 107.67 99.54 91.47 82.97 74.94 68.12 62.13 56.31 50.46
1784.305 44.7 39.19 34.17 29.73 25.92 22.73 20.01 17.68 15.68 14.04
1803.594 12.69 11.47 10.4 9.49 8.66 7.85 7.07 6.41 5.77 5.26
1822.884 4.85 4.5 4.2 3.97 3.78 3.56 3.42 3.29 3.2 3.16
1842.174 3.14 3.12 3.12 3.13 3.15 3.19 3.22 3.23 3.22 3.22
1861.464 3.35 3.45 3.5 3.56 3.63 3.73 3.83 3.92 4.03 4.17
1880.754 4.34 4.54 4.72 4.88 5.01 5.19 5.39 5.56 5.77 5.98
1900.043 6.21 6.5 6.82 7.12 7.42 7.76 8.15 8.59 9.04 9.5
1919.333 10.03 10.6 11.18 11.81 12.49 13.19 13.92 14.67 15.59 16.53
1938.623 17.42 18.36 19.39 20.61 21.82 23 24.35 25.81 27.37 29.07
1957.913 30.81 32.64 34.59 36.61 38.75 41.1 43.6 46.21 49 52
1977.202 55.09 58.35 61.89 65.65 69.67 73.93 78.42 83.18 88.25 93.67
1996.492 99.33 105.22 111.49 118.16 125.16 132.42 140.07 148.12 156.55 165.44
2015.782 174.54 183.98 193.87 204.15 214.69 225.6 236.87 248.24 259.82 271.38
2035.072 282.45 292.96 302.63 310.99 317.74 322.76 325.88 326.7 325.56 322.64
2054.362 317.75 311.34 303.75 295.12 285.51 275.24 264.47 253.21 241.71 230.15
2073.651 218.59 207.23 196.31 185.95 176.19 167.05 158.58 150.81 143.67 137.06
2092.941 131.03 125.61 120.75 116.42 112.57 109.16 106.18 103.53 101.08 98.85
2112.231 96.63 94.49 92.47 90.54 88.65 86.79 84.95 83.08 81.36 79.65
2131.521 77.86 76.05 74.12 72.04 69.81 67.34 64.71 62 59.23 56.36
2150.810 53.49 50.8 48.22 45.76 43.44 41.24 39.3 37.54 35.88 34.38
2170.100 32.95 31.56 30.3 29.14 27.96 26.88 25.9 24.99 24.18 23.36
2189.390 22.64 22.16 21.73 21.33 21.01 20.8 20.55 20.27 20.13 19.99
2208.680 19.77 19.48 19.2 18.93 18.58 18.16 17.72 17.19 16.69 16.17
2227.970 15.5 14.79 14.18 13.66 13.13 12.59 12.14 11.84 11.5 11.08
2247.259 10.73 10.35 10.05 9.76 9.45 9.11 8.77 8.47 8.08 7.78
2266.549 7.52 7.27 7 6.71 6.55 6.35 6.08 5.89 5.75 5.58
2285.839 5.44 5.39 5.21 5.07 4.93 4.78 4.73 4.58 4.43 4.38
2305.129 4.21 4.04 3.93 3.71 3.63 3.59 3.48 3.37 3.24 3.17
2324.418 3.1 2.95 2.86 2.83 2.66 2.52 2.55 2.5 2.45 2.45
2343.708 2.41 2.39 2.33 2.23 2.12 2.09 2.08 1.99 1.89 1.93
2362.998 1.98 1.91 1.89 1.88 1.77 1.66 1.63 1.69 1.7 1.66
2382.288 1.72 1.68 1.62 1.61 1.58 1.62 1.64 1.59 1.59 1.59
2401.578 1.58 1.62 1.6 1.61 1.66 1.57 1.45 1.48 1.44 1.36
2420.867 1.41 1.42 1.35 1.35 1.41 1.38 1.35 1.36 1.41 1.38
2440.157 1.3 1.28 1.31 1.3 1.28 1.36 1.39 1.37 1.35 1.3
2459.447 1.35 1.39 1.4 1.51 1.53 1.52 1.5 1.53 1.55 1.55
2478.737 1.59 1.63 1.67 1.64 1.62 1.71 1.67 1.63 1.63 1.63
2498.026 1.73 1.78 1.85 1.85 1.81 1.88 1.91 1.85 1.84 1.92
2517.316 1.94 1.88 1.86 1.85 1.85 1.92 1.93 2.01 2.11 2.13
2536.606 2.13 2.15 2.17 2.16 2.21 2.3 2.39 2.46 2.53 2.62
2555.896 2.69 2.77 2.81 2.9 3.04 3.11 3.15 3.13 3.15 3.3
2575.186 3.49 3.56 3.6 3.66 3.66 3.74 3.73 3.75 3.73 3.62
2594.475 3.64 3.59 3.52 3.5 3.46 3.41 3.35 3.27 3.2 3.2
2613.765 3.09 2.99 2.99 2.94 2.87 2.79 2.74 2.74 2.71 2.6
2633.055 2.54 2.52 2.46 2.36 2.26 2.31 2.36 2.33 2.23 2.2
2652.345 2.18 2.12 2.13 2.11 2.08 2.01 2.01 2.01 1.95 1.95
2671.634 1.87 1.78 1.7 1.6 1.53 1.57 1.59 1.57 1.58 1.57
2690.924 1.54 1.55 1.59 1.58 1.51 1.54 1.72 1.63 1.48 1.48
2710.214 1.45 1.46 1.46 1.55 1.69 1.67 1.67 1.77 1.88 1.92
2729.504 1.95 2.01 2.07 2.18 2.28 2.38 2.43 2.47 2.46 2.49
2748.794 2.62 2.65 2.64 2.66 2.7 2.7 2.63 2.54 2.59 2.76
2768.083 2.84 2.84 2.74 2.68 2.8 2.94 2.97 3.01 3.02 3.04
2787.373 3.12 3.13 3.2 3.21 3.2 3.26 3.22 3.16 3.13 3.18
2806.663 3.27 3.32 3.29 3.27 3.31 3.37 3.44 3.57 3.73 3.81
2825.953 3.96 4.04 4.15 4.37 4.48 4.63 4.94 5.28 5.74 6.23
2845.242 6.69 7.27 7.72 7.89 8 8.19 8.19 8.05 7.89 7.66
2864.532 7.64 7.9 8.32 9.03 9.95 11.02 12.3 13.74 15.2 16.5
2883.822 17.55 18.33 18.88 18.98 18.77 18.37 17.79 17.3 17.04 16.94
2903.112 16.94 17.15 17.47 17.94 18.62 19.41 20.16 20.96 21.81 22.54
2922.401 23.35 24.18 25.13 26.24 27.36 28.5 29.75 30.93 31.97 33.03
2941.691 33.78 34.28 34.66 35.06 35.8 37.02 39.14 42.3 45.85 49.31
2960.981 52.77 56.35 60.23 64.37 68.61 72.47 74.77 74.73 72.84 69.89
2980.271 66.45 62.1 56.23 49.34 42 35.09 29.38 24.75 21.02 18.06
2999.561 15.77 14.15 13.15 12.51 11.94 11.31 10.77 10.28 9.75 9.27
3018.850 8.77 8.35 8.07 7.84 7.65 7.49 7.32 7.17 6.92 6.73
3038.140 6.54 6.43 6.22 5.67 5.36 5.12 4.91 4.76 4.49 4.16
3057.430 4 3.98 3.83 3.59 3.5 3.42 3.17 2.97 3.06 3.27
3076.720 3.15 2.93 2.88 2.8 2.78 2.82 2.84 2.75 2.7 2.72
3096.009 2.73 2.79 2.74 2.67 2.65 2.62 2.54 2.5 2.52 2.43
3115.299 2.3 2.26 2.16 2.08 2.07 2.04 1.99 1.82 1.69 1.78
3134.589 1.84 1.82 1.7 1.66 1.67 1.68 1.65 1.63 1.56 1.46
3153.879 1.35 1.38 1.39 1.191 1.1933 1.37 1.39 1.21 1.1345 1.1713
3173.169 1.195 1.24 1.21 1.25 1.4 1.34 1.2 1.1205 1.24 1.37
3192.458 1.32 1.1765 1.0935 1.1179 1.0788 0.975 0.9855 1.1356 1.1014 0.9852
3211.748 0.9891 0.8944 0.8658 0.9249 0.83 0.7236 0.6605 0.4787 0.4548 0.534
3231.038 0.55 0.6581 0.6907 0.5401 0.4541 0.4417 0.4075 0.3432 0.3158 0.3976
3250.328 0.3501 0.3074 0.3712 0.371 0.3409 0.3674 0.342 0.303 0.1844 0.056
3269.617 0.081 0.1501 0.206641 0.3167 0.3371 0.433 0.3039 0.1114 0.27487 0.21524
3288.907 0.1878 0.22244 0.1154 0.1464 0.27181 0.2371 0.1571 0.19505 0.29614 0.27058
3308.197 0.19897 0.2659 0.2838 0.334 0.1961 0.076 0.23216 0.1979 0.24907 0.23235
3327.487 0.25057 0.29311 0.1632 0.076 0.045 0.1123 0.23387 0.266 0.1816 0.1705
3346.777 0.21333 0.28342 0.2395 0.1572 0.106 0.21677 0.26205 0.19744 0.151 0.1254
3366.066 0.22965 0.289 0.28053 0.24075 0.27395 0.22002 0.1247 0.23181 0.372 0.4377
3385.356 0.3863 0.3138 0.3171 0.4019 0.4329 0.3835 0.4528 0.5175 0.4146 0.24782
3404.646 0.1285 0.1739 0.24403 0.29566 0.3281 0.26538 0.3933 0.4771 0.3218 0.26467
3423.936 0.3634 0.3917 0.4074 0.3826 0.3364 0.3234 0.2721 0.3471 0.3494 0.28804
3443.225 0.303 0.3078 0.3352 0.3697 0.3595 0.3998 0.4856 0.5389 0.3918 0.3108
3462.515 0.3737 0.341 0.4022 0.4476 0.4173 0.4776 0.5964 0.6256 0.734 0.7714
3481.805 0.6881 0.8272 0.8073 0.7129 0.9703 1.24 1.39 1.42 1.31 1.37
3501.095 1.44 1.35 1.44 1.45 1.24 1.21 1.23 1.29 1.1936 1.1052
3520.385 1.1349 1.0206 1.0191 1.0495 1.0879 0.9978 0.894 0.9294 0.8743 0.8833
3539.674 0.9816 0.9035 0.661 0.677 0.6545 0.4644 0.5025 0.5031 0.4376 0.4688
3558.964 0.4949 0.5456 0.6797 0.5999 0.4521 0.4423 0.3184 0.26064 0.22075 0.26272
3578.254 0.3041 0.162 0.19006 0.22754 0.3245 0.3986 0.302 0.28204 0.22145 0.205477
3597.544 0.3541 0.2955 0.1159 0.121 0.3058 0.3876 0.208369 0.1575 0.1504 0.203716
3616.833 0.3534 0.28778 0.1274 0.107 0.1675 0.1098 0.1232 0.1842 0.202476 0.27384
3636.123 0.26099 0.28074 0.20612 0.1484 0.1874 0.3053 0.3344 0.1581 0.042 0.077
3655.413 0.1021 0.097 0.1698 0.052 0 0.1614 0.1715 0.25879 0.29631 0.1484
3674.703 0.1755 0.23464 0.3032 0.3467 0.2551 0.2454 0.3536 0.29783 0.21957 0.24504
3693.993 0.2247 0.22916 0.24198 0.3429 0.29988 0.1561 0.29957 0.5053 0.5568 0.371
3713.282 0.21864 0.2847 0.29527 0.28862 0.3164 0.26334 0.206283 0.29604 0.3721 0.3739
3732.572 0.3485 0.29903 0.2561 0.3157 0.3201 0.209698 0.3419 0.3937 0.4135 0.4302
3751.862 0.3351 0.26222 0.24968 0.3896 0.3134 0.26104 0.3124 0.3779 0.3264 0.1735
3771.152 0.24858 0.3332 0.4504 0.5356 0.3805 0.4416 0.4634 0.1723 0.208007 0.3547
3790.441 0.4443 0.4673 0.3514 0.3516 0.3512 0.3003 0.26325 0.4004 0.4703 0.4621
3809.731 0.5288 0.3447 0.26423 0.3658 0.4556 0.5706 0.5843 0.4388 0.3264 0.4537
3829.021 0.5249 0.5368 0.4228 0.3779 0.6196 0.5826 0.3622 0.4298 0.6197 0.6179
3848.311 0.6133 0.596 0.512 0.5254 0.5735 0.6019 0.5945 0.529 0.6264 0.694
3867.601 0.6751 0.6602 0.6763 0.5359 0.6084 0.8059 0.748 0.6655 0.5203 0.5449
3886.890 0.6151 0.5135 0.4791 0.6529 0.6396 0.6728 0.8284 0.7518 0.6287 0.863
3906.180 1.1389 1.0081 0.688 0.8005 0.9864 0.7763 0.608 0.5609 0.6323 0.7452
3925.470 0.8046 0.8425 0.7824 0.7682 0.8684 0.9726 0.7645 0.6239 0.786 0.8265
3944.760 0.9016 1.0114 1.077 1.0615 1.1045 1.0731 1.1792 1.24 1.1891 1.26
3964.049 1.1879 1.21 1.23 1.1615 1.26 1.199 1.1846 1.34 1.24 1.25
3983.339 1.24 1.1995 1.37 1.43 1.43 1.53 1.51 1.44 1.49 1.53
##END=
