##TITLE=2-Fluoro-3-(trifluoromethyl)benzoic acid
##JCAMP-DX=4.24
##DATA TYPE=INFRARED SPECTRUM
##ORIGIN=EPA-IR VAPOR PHASE LIBRARY
##OWNER=SRD/NIST
Collection (C) 2018 copyright by the U.S. Secretary of Commerce
on behalf of the United States of America. All rights reserved.
##CAS REGISTRY NO=115029-22-6
##MOLFORM=C 8 H 4 F 4 O 2
##$NIST SOURCE=MSDC-IR
##STATE=gas
##XUNITS=1/CM
##YUNITS=ABSORBANCE
##XFACTOR=1.
##YFACTOR=0.001
##DELTAX=1.92898
##FIRSTX=549.8
##LASTX=4000.7
##FIRSTY=10.294
##MAXX=4000.7
##MINX=549.759
##MAXY=0.188564
##MINY=0
##NPOINTS=1790
##XYDATA=(X++(Y..Y))
549.759 10.294 10.864 11.024 11.184 12.244 13.654 14.854 15.474 15.914 17.274
569.049 18.224 18.354 19.224 19.794 19.454 19.634 19.154 17.944 17.314 16.834
588.339 15.154 13.474 13.164 13.244 13.254 12.954 12.684 12.164 11.654 12.454
607.628 13.934 14.604 14.464 14.084 14.214 14.754 14.464 12.994 11.694 10.964
626.918 10.574 10.944 11.094 11.354 13.404 17.534 23.824 29.464 33.744 38.374
646.208 41.274 42.084 39.974 34.864 29.624 24.674 19.264 14.564 10.564 7.624
665.498 6.684 6.114 5.334 4.814 4.214 3.624 3.244 3.194 2.964 2.434
684.787 2.494 2.454 2.264 2.244 1.994 2.224 2.404 1.854 1.4321 1.3666
704.077 1.3608 1.2864 1.4949 2.144 2.404 2.114 2.204 2.514 2.594 2.804
723.367 3.044 3.934 4.814 4.784 4.994 5.374 5.244 5.104 5.444 6.724
742.657 8.174 9.804 12.134 14.734 18.104 21.634 24.874 28.294 31.264 33.904
761.947 34.624 32.244 28.294 24.234 21.154 18.044 14.624 12.054 9.754 7.884
781.236 6.824 6.024 4.864 4.354 4.954 4.564 4.114 4.324 3.854 3.424
800.526 3.774 4.164 3.914 3.944 4.204 4.164 4.444 4.904 5.254 5.314
819.816 4.994 4.224 3.844 5.604 7.714 7.864 8.754 9.874 9.754 9.874
839.106 10.504 10.194 9.454 8.454 7.584 7.394 6.574 5.394 4.674 4.254
858.395 3.704 3.274 2.734 2.574 2.584 2.154 2.104 1.934 1.5627 1.3651
877.685 1.2043 1.3939 1.582 1.784 1.834 1.736 1.824 1.854 1.7041 1.5982
896.975 1.6651 1.5543 1.434 1.601 1.4746 1.3713 1.6957 1.914 1.894 1.964
916.265 1.934 1.726 1.6002 1.2069 1.3062 1.864 1.974 1.794 1.864 1.844
935.555 1.582 1.4924 1.3392 1.2891 1.4265 1.954 1.924 1.844 2.224 2.054
954.844 2.204 2.334 2.364 2.674 2.944 3.084 2.884 2.704 2.644 2.944
974.134 3.124 3.014 2.584 2.224 2.524 2.824 3.084 2.854 2.224 1.5744
993.424 1.814 1.994 2.294 2.754 2.644 2.774 3.124 3.724 3.604 2.824
1012.714 2.434 2.564 2.444 2.034 2.134 3.484 4.094 3.084 2.734 3.704
1032.003 4.654 4.454 4.284 4.794 5.214 5.704 6.174 6.624 8.524 10.064
1051.293 10.764 13.034 14.424 15.204 17.184 18.684 20.484 22.944 24.544 26.934
1070.583 29.554 30.874 31.634 32.764 33.504 32.684 32.604 32.384 30.604 28.924
1089.873 29.324 31.824 33.604 34.264 34.834 35.614 34.314 33.214 33.214 31.184
1109.163 28.964 27.134 27.444 29.474 30.984 34.314 39.814 45.874 51.754 58.294
1128.452 66.214 73.654 79.334 84.874 87.974 89.184 91.024 90.504 90.024 90.454
1147.742 89.124 89.614 91.814 95.644 103.194 111.884 123.084 138.004 153.254 167.594
1167.032 179.984 187.284 188.564 182.394 168.114 151.774 135.444 119.314 105.734 93.544
1186.322 82.444 72.384 63.614 56.234 47.914 40.294 35.424 31.644 28.904 27.504
1205.611 25.534 23.414 22.524 21.484 20.744 21.194 21.344 19.884 19.464 20.394
1224.901 20.084 20.194 20.204 18.954 19.224 20.234 19.464 19.324 21.624 24.054
1244.191 25.384 27.204 28.324 28.424 28.844 28.754 28.154 27.364 24.784 21.694
1263.481 19.534 17.534 15.934 15.394 14.944 14.974 15.714 16.254 17.564 19.544
1282.771 21.294 23.214 25.694 28.324 30.594 33.814 37.864 41.614 45.814 50.754
1302.060 56.394 62.694 69.784 77.804 86.374 94.614 101.684 106.694 109.174 108.694
1321.350 105.034 98.464 89.664 79.994 70.184 61.254 54.014 48.354 44.004 40.534
1340.640 38.064 36.544 35.354 34.254 33.384 32.524 31.584 30.504 29.364 28.414
1359.930 27.614 26.964 26.354 25.824 25.384 24.864 24.434 23.714 22.754 22.044
1379.219 21.244 20.244 19.084 17.994 16.984 15.744 14.634 13.574 12.364 11.284
1398.509 10.214 9.054 8.104 7.204 6.344 5.634 5.254 4.944 4.514 4.404
1417.799 4.394 4.354 4.334 4.224 4.054 4.174 4.434 4.584 4.834 5.104
1437.089 5.564 6.114 6.774 7.734 9.044 10.654 12.454 14.844 17.834 21.154
1456.378 25.074 29.374 33.884 38.454 42.744 46.384 48.954 50.624 51.154 50.234
1475.668 47.494 43.034 37.044 30.764 25.144 20.314 16.314 12.904 10.394 8.624
1494.958 7.254 6.364 5.844 5.144 4.684 4.554 4.624 4.654 4.194 3.834
1514.248 3.694 3.534 3.464 3.184 2.934 2.964 2.954 2.884 2.714 2.814
1533.538 2.834 2.854 3.054 2.954 2.754 2.694 2.814 2.864 2.974 2.914
1552.827 2.894 3.004 3.024 3.194 3.414 3.594 3.624 3.674 3.934 4.394
1572.117 4.724 5.244 6.264 7.224 8.204 9.304 10.394 11.494 12.484 13.564
1591.407 14.604 15.284 16.224 17.434 18.194 18.574 19.104 19.804 20.734 21.994
1610.697 23.684 25.554 26.774 27.824 28.044 26.764 24.584 21.744 18.534 15.374
1629.986 12.634 10.224 8.104 6.764 6.164 5.534 4.864 4.564 4.284 4.024
1649.276 3.944 3.844 3.584 3.274 3.284 3.274 3.284 3.284 3.424 3.364
1668.566 2.934 3.004 3.144 3.294 3.404 3.464 3.434 3.564 3.844 3.814
1687.856 3.974 4.204 4.424 4.844 5.074 5.414 5.544 5.354 5.584 5.534
1707.146 5.804 6.124 6.174 6.504 6.954 7.364 7.784 8.464 9.384 10.264
1726.435 11.034 11.844 12.864 14.084 15.044 16.094 17.514 19.314 21.754 25.504
1745.725 30.744 37.924 47.694 59.374 70.834 80.604 88.174 92.624 94.134 92.324
1765.015 86.814 79.214 72.274 67.924 65.554 64.264 63.074 61.764 61.154 59.914
1784.305 56.014 49.794 43.094 37.294 32.124 27.584 24.204 21.584 19.544 17.864
1803.594 16.464 15.144 13.684 12.144 10.774 9.444 8.104 6.964 5.984 5.304
1822.884 4.974 4.594 4.134 3.824 3.564 3.194 2.894 2.714 2.834 2.754
1842.174 2.374 2.274 2.174 2.144 2.014 1.974 2.044 2.054 2.024 2.144
1861.464 2.344 2.274 2.204 2.154 2.184 2.294 2.284 2.174 2.114 2.044
1880.754 2.054 2.064 2.114 2.184 2.234 2.274 2.224 2.294 2.364 2.404
1900.043 2.534 2.684 2.814 2.744 2.644 2.434 2.414 2.674 2.474 2.214
1919.333 2.254 2.274 2.114 1.984 1.964 1.764 1.7188 1.7044 1.7393 1.744
1938.623 1.5669 1.5538 1.5095 1.5311 1.7385 1.834 1.844 1.764 1.7329 1.814
1957.913 1.834 1.7155 1.594 1.6339 1.7064 1.6945 1.4963 1.5104 1.6062 1.5762
1977.202 1.5159 1.5279 1.5092 1.3426 1.43 1.4661 1.4125 1.3817 1.4125 1.421
1996.492 1.2043 1.3488 1.6046 1.4062 1.3049 1.437 1.3848 1.3165 1.3732 1.4039
2015.782 1.137 1.1526 1.334 1.4176 1.4481 1.1581 1.1915 1.1539 1.054 1.1483
2035.072 1.2141 1.1918 1.029 1.0671 1.2461 1.2283 1.2366 1.3187 1.1929 1.045
2054.362 1.0096 1.0624 1.2147 1.1647 1.2136 1.2085 1.0593 1.207 1.2584 1.235
2073.651 1.1646 1.1179 1.0775 1.0873 1.2195 1.3575 1.5311 1.613 1.3393 1.159
2092.941 1.2645 1.3106 1.3253 1.3048 1.3504 1.3412 1.1593 1.0397 1.2052 1.4738
2112.231 1.5089 1.2918 1.2699 1.3956 1.2724 1.1773 1.2147 1.2413 1.223 1.174
2131.521 0.9897 0.991 1.1431 1.2304 1.3046 1.2211 1.1283 1.1529 1.1786 1.2434
2150.810 1.2977 1.5145 1.6194 1.3644 1.4662 1.5854 1.486 1.4472 1.4358 1.4567
2170.100 1.4825 1.5307 1.5765 1.4611 1.4164 1.5827 1.6386 1.4888 1.4741 1.5053
2189.390 1.5231 1.5433 1.4645 1.5493 1.5 1.1696 1.1173 1.2521 1.3333 1.5074
2208.680 1.5709 1.47 1.4894 1.5601 1.5119 1.4742 1.3033 1.2857 1.3185 1.2409
2227.970 1.3634 1.4031 1.4177 1.5339 1.544 1.5188 1.4754 1.4676 1.464 1.4658
2247.259 1.659 1.641 1.5052 1.4128 1.3667 1.3926 1.2831 1.331 1.4122 1.4914
2266.549 1.6726 1.5041 1.2316 1.4306 1.5487 1.4125 1.4211 1.5127 1.5218 1.3775
2285.839 1.2753 1.457 1.484 1.384 1.5484 1.6444 1.7434 1.774 1.744 1.854
2305.129 1.934 1.844 1.6507 1.6043 1.684 1.6364 1.5618 1.4737 1.5523 1.764
2324.418 1.924 1.954 1.6517 1.638 1.784 1.6936 1.4483 1.3931 1.5473 1.5552
2343.708 1.5658 1.6824 1.7174 1.5878 1.4519 1.5752 1.5265 1.4034 1.5284 1.4599
2362.998 1.3491 1.2694 1.4134 1.5648 1.3228 1.1485 1.3478 1.4478 1.3705 1.4415
2382.288 1.3539 1.4853 1.5905 1.2838 1.2339 1.3184 1.1391 0.8904 0.9643 1.3179
2401.578 1.3481 1.2115 1.3111 1.286 1.2102 1.3143 1.4409 1.3544 1.2455 1.223
2420.867 1.2176 1.4283 1.5281 1.4878 1.3917 1.1994 1.4258 1.5937 1.4645 1.3696
2440.157 1.2977 1.3751 1.45 1.4769 1.5661 1.4207 1.3719 1.492 1.3834 1.2571
2459.447 1.3081 1.2859 1.1599 1.1524 1.3092 1.3649 1.4295 1.4663 1.461 1.4953
2478.737 1.4643 1.248 1.3083 1.4537 1.4059 1.6775 1.6189 1.5468 1.764 1.864
2498.026 1.7373 1.5666 1.4587 1.3337 1.1819 1.2335 1.4187 1.5607 1.5111 1.2581
2517.316 1.113 1.0979 0.9798 0.75591 0.77616 0.948 1.0276 1.0038 1.0795 1.2236
2536.606 1.331 1.1822 0.9593 1.0612 1.3163 1.2436 0.9797 0.8819 0.8704 1.0075
2555.896 1.1571 1.0131 0.80024 1.0805 1.1084 0.8864 1.0659 1.1395 0.9902 0.9682
2575.186 0.8537 1.0298 1.3264 1.4267 1.5147 1.3723 1.355 1.4558 1.2495 1.1662
2594.475 1.1913 0.887 0.77182 1.0485 1.0661 1.0791 1.3449 1.2161 1.2027 1.0839
2613.765 0.77237 0.73766 0.857 1.1094 1.1463 0.7295 0.618 1.0251 1.249 1.0144
2633.055 0.7081 0.8451 1.0083 0.81109 0.753432 0.83441 1.0865 1.0293 0.604 0.80415
2652.345 0.9149 0.8592 0.8533 0.8598 0.9621 0.9744 0.9832 0.9696 0.9105 0.987
2671.634 1.12 1.0603 1.1382 1.0459 0.9427 0.9599 0.967 0.9896 0.82314 0.8354
2690.924 0.9653 0.81399 0.8548 1.006 0.8967 0.9871 1.0551 1.1009 1.1417 1.1075
2710.214 1.0799 1.0698 1.0857 1.0495 0.873 0.6938 0.8898 1.0776 1.0377 1.1722
2729.504 1.0603 1.0006 1.1423 0.9856 1.1238 1.1232 0.9624 0.9461 0.9719 1.0884
2748.794 1.1594 1.0749 1.126 1.442 1.4238 1.0237 0.9147 1.2064 1.2799 1.2382
2768.083 1.1767 1.1997 1.2315 1.2006 1.088 1.0151 1.1361 1.2388 1.0487 0.9662
2787.373 1.1005 1.0507 1.112 1.2493 0.9954 0.7001 0.79595 0.695 0.575 0.8518
2806.663 1.0093 1.0109 0.8833 0.748385 0.879 1.0529 1.0167 1.0434 1.2052 1.2702
2825.953 1.5313 1.3203 0.9756 1.0884 1.241 1.2113 0.82992 0.641 0.80396 1.137
2845.242 1.3749 1.3671 1.2214 1.0399 0.7099 1.0065 1.1628 1.1497 1.2515 1.3058
2864.532 1.618 1.1895 0.78948 0.9174 0.9197 0.6615 0.7278 0.78256 0.6969 1.0103
2883.822 1.0565 1.1066 1.1216 0.9857 1.038 0.7176 0.472 0.73782 0.83144 0.9592
2903.112 1.1297 0.83719 0.74232 1.0014 1.2757 1.3402 1.3159 1.2081 0.9567 0.542
2922.401 0.572 1.0369 1.077 0.9569 0.9766 1.0468 1.172 1.0949 1.0884 1.2268
2941.691 1.0522 0.6944 0.9291 1.0583 1.1066 1.2276 0.9948 0.9978 1.0932 0.75737
2960.981 0.6705 1.149 1.2623 1.0913 1.0066 0.958 1.021 0.83687 0.9535 1.2115
2980.271 1.089 1.1446 0.916 0.7188 1.0781 0.9926 0.7076 0.83621 0.8873 0.8794
2999.561 1.0026 1.0158 0.9138 0.80901 0.82225 1.2473 1.2354 1.1604 1.0155 0.77116
3018.850 1.1713 1.0895 0.9872 1.1942 1.2311 1.2681 0.78982 0.416 0.8556 1.0847
3038.140 1.1079 1.1973 1.0121 1.0861 1.1605 1.268 1.3504 1.408 1.3418 1.3248
3057.430 1.593 1.764 1.6599 1.3404 1.4146 1.5537 1.3466 1.5119 1.754 1.3972
3076.720 1.2582 1.5412 1.754 1.934 2.294 2.354 1.7201 1.4274 1.7062 1.814
3096.009 1.874 2.004 2.094 2.024 2.224 2.484 2.104 1.4363 1.2739 1.3817
3115.299 1.4237 1.212 1.1906 1.2557 1.078 0.9822 0.99 0.9158 0.82493 1.2187
3134.589 1.2292 0.91 1.0493 1.1189 1.2224 1.3346 1.195 0.9201 0.7174 1.0329
3153.879 0.8459 0.525 0.6804 0.386 0.56 0.9157 0.6772 0.868 1.1793 0.7048
3173.169 0.64 0.9806 0.9897 1.1477 1.2016 1.2119 1.1949 0.9521 0.9018 1.1257
3192.458 1.2271 1.1514 0.8605 0.82947 1.1253 1.105 0.8531 0.8788 0.9393 1.1135
3211.748 1.4196 1.1477 0.701 1.0154 1.103 0.9751 0.9666 0.9644 1.0076 1.0325
3231.038 1.0257 0.9052 0.633 0.481 1.0219 1.2196 1.0617 1.2765 1.4299 1.1822
3250.328 0.8971 0.934 1.0667 1.0298 0.6911 0.363 0.6803 0.9312 1.0807 1.0524
3269.617 0.483 0.357 0.391 0.748215 0.9933 0.412 0.271 0.7026 0.79645 1.0661
3288.907 1.2853 1.042 0.879 0.80054 0.6455 0.368 0.107 0.055 0.272 0.56
3308.197 0.9025 0.9152 0.9832 1.4025 1.6043 1.523 1.2085 1.1613 1.1034 1.0148
3327.487 0.7184 0.619 1.1264 1.2496 1.0745 0.83453 0.6949 0.9029 0.84026 0.752131
3346.777 0.986 1.059 1.495 1.3263 0.8929 0.8313 0.78001 0.699 0.6835 0.8644
3366.066 0.6839 0.83216 1.0313 0.7049 0.80076 0.853 0.9261 1.2966 1.3419 0.9207
3385.356 0.587 0.75495 0.8923 0.81651 0.615 0.78597 1.0041 0.6525 0.81439 0.9561
3404.646 0.6485 0.6755 1.0523 1.4455 0.9726 0.972 1.361 1.244 1.233 1.264
3423.936 0.9205 0.572 0.618 0.857 0.47 0.066 0.557 0.6849 0.572 1.1207
3443.225 1.055 0.9607 1.5531 1.1919 0.57 0.6575 0.8453 0.8664 0.9614 0.81092
3462.515 0.9482 1.0364 0.8807 0.8637 0.8566 1.5453 1.7409 1.1888 1.0057 0.8488
3481.805 1.0758 1.2143 1.1514 1.7102 1.814 1.7063 2.034 1.924 2.114 1.844
3501.095 1.4511 1.6912 1.7283 1.834 1.5215 1.3152 1.6231 1.6539 1.7082 1.954
3520.385 1.804 1.4963 1.262 0.9591 0.8858 0.9333 1.5578 2.204 2.154 2.364
3539.674 2.474 2.414 2.484 2.444 2.034 2.424 3.304 3.914 5.024 6.704
3558.964 9.244 13.234 18.664 25.144 31.914 37.484 40.934 42.904 43.844 43.104
3578.254 39.404 32.624 25.784 20.184 15.064 10.894 8.254 6.264 4.604 3.804
3597.544 3.264 3.194 3.444 3.414 3.484 3.564 4.104 4.414 4.474 4.474
3616.833 3.814 3.284 3.044 2.674 2.094 1.6463 1.4234 1.5376 1.4997 1.4004
3636.123 1.363 1.2056 1.4789 1.5929 1.3176 1.183 0.9624 0.80871 0.8961 0.9555
3655.413 1.3045 1.1957 0.9365 0.9303 0.75556 0.78063 0.7027 0.82538 0.62 0.153
3674.703 0.368 0.484 0.638 1.0655 1.2685 0.9886 0.6772 1.1767 1.6373 1.3465
3693.993 1.1342 0.8702 0.633 0.6886 0.8726 0.6506 0.609 1.2232 1.1952 0.745915
3713.282 0.364 0.117 0.591 1.0058 0.9851 1.124 1.0837 0.555 0.314 1.0719
3732.572 1.0197 0.9768 1.2332 1.1779 1.6775 1.0454 0.478 0.9912 1.0243 0.927
3751.862 1.1414 1.0744 0.8738 0.9207 1.0848 1.1936 1.2047 1.2208 0.78281 0.315
3771.152 0.097 0.308 0.9533 0.9596 0.479 0.334 0.184 0.362 0.7293 0.78962
3790.441 0.77368 1.0726 1.2794 1.2034 0.501 0.157 0.8555 1.1114 1.3437 0.9301
3809.731 0.599 0.587 0.873 1.5399 1.2061 0.9789 1.0403 1.0126 1.0385 0.78983
3829.021 1.1086 1.0659 1.2228 1.583 1.0732 0.566 0.558 0.9132 0.76557 0.517
3848.311 0.6475 0.8632 1.0147 0.6978 0.329 0.578 1.1413 1.3777 0.609 0
3867.601 0.536 1.0189 1.0961 1.4443 1.0483 0.121 0.343 0.9561 0.9308 0.8674
3886.890 0.516 0.484 0.9983 0.7853 0.7059 1.0269 0.7036 1.0365 1.4207 0.8634
3906.180 0.9598 1.081 0.9805 0.7215 0.7228 1.341 1.3197 0.8673 1.2407 1.904
3925.470 1.5311 0.919 0.715 0.6891 0.77956 1.1434 1.2595 1.1769 0.82221 0.9304
3944.760 1.616 1.2332 0.6564 0.8643 1.161 1.287 1.1439 0.79648 0.8592 0.9846
3964.049 0.852 0.75125 0.6843 0.6478 0.80935 0.9078 1.0054 1.3624 1.1983 0.996
3983.339 0.9121 0.8519 0.9739 0.8663 0.379 0.547 1.0372 0.9144 0.6544 0.355
##END=
