##TITLE=Tris(4-chlorophenyl)phosphine
##JCAMP-DX=4.24
##DATA TYPE=INFRARED SPECTRUM
##ORIGIN=EPA-IR VAPOR PHASE LIBRARY
##OWNER=SRD/NIST
Collection (C) 2018 copyright by the U.S. Secretary of Commerce
on behalf of the United States of America. All rights reserved.
##CAS REGISTRY NO=1159-54-2
##MOLFORM=C 18 H 12 Cl 3 P
##$NIST SOURCE=MSDC-IR
##STATE=gas
##XUNITS=1/CM
##YUNITS=ABSORBANCE
##XFACTOR=1.
##YFACTOR=0.001
##DELTAX=1.92898
##FIRSTX=549.8
##LASTX=4000.7
##FIRSTY=5.398
##MAXX=4000.7
##MINX=549.759
##MAXY=0.042708
##MINY=0
##NPOINTS=1790
##XYDATA=(X++(Y..Y))
549.759 5.398 4.418 3.538 3.088 2.048 1.2561 1.247 2.068 2.588 1.808
569.049 1.0901 0.635 0.7319 1.0641 1.5558 1.2108 0.7574 0.87336 1.0829 1.5692
588.339 1.1448 0.437 0.557 0.805397 0.86746 1.0835 1.4975 1.4243 0.9533 1.0191
607.628 1.2472 1.1362 0.797166 0.7122 0.8436 1.0776 1.0028 0.576 0.533 0.7851
626.918 1.2497 1.2497 0.802478 0.86745 1.1814 1.2425 1.0373 0.9189 0.859 0.452
646.208 0.6 0.9735 1.175 1.2141 1.057 1.053 0.8232 0.7307 0.9154 1.1318
665.498 1.3081 1.0927 0.79445 0.9458 1.113 1.2613 1.6912 1.6688 1.7472 1.6925
684.787 1.47 1.4728 1.5558 1.6736 1.682 1.2461 1.1561 1.858 1.888 1.858
704.077 2.328 2.468 2.418 2.568 2.458 2.448 2.278 2.148 2.518 2.958
723.367 3.308 3.888 5.288 7.288 10.048 14.268 20.588 27.778 34.398 38.248
742.657 36.618 29.398 19.978 12.358 7.618 5.508 4.318 3.668 3.078 2.548
761.947 2.228 1.818 1.938 2.008 2.078 2.128 2.108 2.078 2.248 2.218
781.236 2.168 2.718 3.138 2.998 2.898 3.448 3.828 4.038 4.548 5.068
800.526 5.378 5.558 6.428 7.818 9.378 12.058 16.438 22.288 28.248 31.158
819.816 28.968 23.108 16.478 11.498 8.288 6.148 4.928 4.118 3.678 3.628
839.106 3.258 2.838 2.578 2.698 2.768 2.548 2.418 2.168 2.168 1.968
858.395 1.5685 1.4533 1.3973 1.4458 1.3586 1.3172 1.5582 1.6503 1.2129 0.88663
877.685 0.9717 1.1778 1.1116 0.89095 1.0446 0.8901 0.7805 0.9108 0.9136 1.2641
896.975 1.306 0.962 0.88343 0.9469 1.0873 1.1373 0.9307 0.80895 1.3428 1.4733
916.265 1.2536 1.2517 1.1119 1.1162 1.3061 1.4773 1.293 1.1855 1.2777 1.1305
935.555 1.1787 1.503 1.5949 1.4091 1.1459 0.85265 0.689 0.85487 0.87141 0.671
954.844 0.67 1.1181 1.1682 0.89438 1.2255 1.2731 1.2258 1.3319 1.5609 1.4554
974.134 0.83945 1.1715 1.908 1.838 1.6443 2.028 2.128 2.098 1.988 1.7114
993.424 1.968 2.118 2.128 2.548 3.328 4.618 7.078 12.398 21.348 32.968
1012.714 41.738 42.548 34.628 21.668 11.498 6.318 4.608 4.008 3.268 3.028
1032.003 3.288 3.308 3.248 3.248 3.358 3.788 3.778 3.748 3.738 2.908
1051.293 3.848 5.818 5.738 5.848 6.978 7.668 8.268 9.438 11.068 13.058
1070.583 14.408 15.928 17.698 18.818 21.218 23.058 23.878 25.888 26.148 26.308
1089.873 27.768 29.398 32.788 35.208 36.638 36.688 31.778 25.118 18.438 13.258
1109.163 11.008 9.758 8.228 7.888 7.398 5.758 4.178 3.378 3.438 2.838
1128.452 2.198 3.058 3.258 1.988 1.6762 1.7464 1.948 2.088 1.6989 1.6685
1147.742 2.408 2.188 1.7024 1.798 1.4135 1.2939 1.1679 1.0777 1.2655 1.4529
1167.032 1.0267 0.448 1.2429 2.368 2.748 2.988 3.578 3.568 3.938 3.768
1186.322 2.218 1.5117 1.7455 1.7657 1.732 2.098 2.018 2.068 2.488 2.608
1205.611 2.428 2.288 2.108 1.4105 1.3338 2.758 3.688 3.788 3.918 3.688
1224.901 3.038 2.168 1.828 2.358 2.548 1.868 2.008 2.228 2.008 2.128
1244.191 2.398 2.648 2.458 2.248 2.288 2.088 1.968 1.7166 1.7418 1.6679
1263.481 1.349 1.3707 1.5487 1.58 1.1834 1.338 1.6178 1.5799 1.5166 1.3295
1282.771 1.3859 1.5287 1.5989 1.5378 1.3443 1.6076 1.958 2.328 2.438 2.458
1302.060 2.438 2.038 1.7117 1.6874 1.7417 1.7834 1.828 1.878 1.968 2.158
1321.350 2.138 2.088 2.068 1.928 1.868 1.878 1.998 2.108 2.118 2.168
1340.640 2.258 2.178 2.148 2.098 2.008 2.058 2.028 1.948 2.068 2.108
1359.930 2.218 2.438 2.458 2.638 2.908 3.178 3.538 4.018 4.468 4.958
1379.219 5.788 6.548 7.068 7.448 7.298 6.658 5.988 5.258 4.418 3.788
1398.509 3.398 3.068 2.778 2.528 2.328 1.998 1.878 1.928 1.838 1.7605
1417.799 1.7183 1.7287 1.878 1.948 2.078 2.398 2.728 3.028 3.328 3.608
1437.089 3.898 4.058 3.988 3.858 3.748 3.578 3.428 3.428 3.498 3.588
1456.378 3.778 4.288 4.888 5.668 6.958 8.718 11.068 14.598 19.238 25.298
1475.668 32.398 39.048 42.708 41.628 35.728 26.988 18.518 12.618 8.768 6.428
1494.958 5.178 4.078 3.318 2.978 2.818 2.668 2.408 2.188 2.018 1.988
1514.248 1.968 1.818 1.7021 1.6537 1.7376 1.888 1.888 1.7824 1.828 1.918
1533.538 1.948 1.888 1.978 2.378 2.698 3.048 3.408 3.678 4.078 4.738
1552.827 5.488 6.228 6.678 6.898 7.088 7.208 7.368 7.968 8.798 9.528
1572.117 10.428 11.368 12.078 12.338 12.378 11.798 10.508 8.878 7.198 5.648
1591.407 4.588 3.958 3.518 3.168 2.778 2.448 2.248 2.028 1.988 2.058
1610.697 1.888 1.7526 1.908 2.008 1.848 1.741 1.7808 1.878 1.958 2.158
1629.986 2.308 2.458 2.858 3.118 3.188 3.378 3.648 3.698 3.308 2.958
1649.276 2.768 2.548 2.148 1.908 1.7365 1.4565 1.2788 1.3097 1.5032 1.3672
1668.566 1.1438 1.1405 1.1644 1.1266 1.1327 1.1142 1.1117 1.1656 1.1443 1.1189
1687.856 1.0368 1.0429 1.1448 1.0002 0.9808 1.0474 0.9944 1.0614 1.1387 1.0875
1707.146 1.0034 1.033 1.0644 1.0499 0.9749 0.9297 0.80979 0.82771 1.0207 1.0844
1726.435 0.9808 0.9404 0.9332 1.0016 1.0677 1.1271 1.1417 1.09 1.0838 1.0613
1745.725 1.1698 1.1994 1.2334 1.3017 1.3017 1.3523 1.3731 1.4641 1.4994 1.4358
1765.015 1.4098 1.3511 1.465 1.5448 1.4915 1.7012 1.938 2.068 2.208 2.338
1784.305 2.378 2.178 1.938 1.7326 1.4502 1.2568 1.2651 1.179 1.1815 1.2168
1803.594 1.0906 1.0606 1.1 1.1915 1.1652 1.1848 1.2469 1.2231 1.2779 1.3076
1822.884 1.272 1.246 1.1371 1.0304 1.091 1.1858 1.2074 1.1041 1.0357 0.963
1842.174 0.9333 1.059 1.1096 1.0035 0.9774 1.0727 1.0778 0.9413 0.9177 1.0515
1861.464 1.0937 1.0889 1.0435 0.9906 0.975 1.0124 1.0909 1.1292 1.0541 1.0618
1880.754 1.2116 1.345 1.5363 1.617 1.7209 1.928 2.078 2.248 2.488 2.788
1900.043 3.038 3.088 2.988 2.728 2.418 2.158 1.7893 1.5381 1.5495 1.4627
1919.333 1.4032 1.2937 1.177 1.1528 1.0776 1.1709 1.1769 1.1425 1.1336 1.0385
1938.623 0.9645 0.9152 0.8822 0.915 0.82247 0.80901 0.9682 0.83852 0.79529 0.9248
1957.913 1.0072 1.144 1.2542 1.1651 1.0464 1.009 0.9602 0.9131 0.9061 0.944
1977.202 1.072 1.036 0.9295 0.8588 0.84742 0.81586 0.7539 0.79268 0.80845 0.87962
1996.492 0.89051 0.797205 0.83509 0.9225 0.9364 0.86191 0.7813 0.84913 0.9678 1.0937
2015.782 0.9931 0.8294 0.82512 0.84287 0.83739 0.89076 0.9388 0.9715 0.9939 0.9325
2035.072 0.86348 0.7621 0.7319 0.697 0.7161 0.87251 0.9817 0.84017 0.7069 0.79676
2054.362 0.8996 0.9193 0.8433 0.87251 0.9869 0.9234 0.7613 0.7552 0.83925 0.7789
2073.651 0.669 0.85501 0.9609 0.7807 0.7476 0.82912 0.87989 0.9047 0.7844 0.7728
2092.941 0.85994 0.86313 0.9087 0.800015 0.82127 1.0019 0.9816 0.9253 0.81526 0.84353
2112.231 0.9161 0.901 0.87437 0.7681 0.86364 0.81103 0.661 0.757 0.8474 0.85775
2131.521 0.7964 0.7662 0.8484 0.84869 0.84369 0.78971 0.694 0.7193 0.802537 0.84254
2150.810 0.78953 0.674 0.774 0.882 0.83908 0.9644 0.87372 0.7466 0.759 0.7855
2170.100 0.648 0.549 0.7153 0.86147 0.9375 0.7719 0.633 0.715 0.7859 0.86854
2189.390 0.89524 1.0267 0.9674 0.66 0.634 0.81764 1.0541 1.1364 1.013 0.81115
2208.680 0.79071 0.87634 0.7795 0.71 0.7428 0.87708 0.9561 0.7838 0.7172 0.7805
2227.970 0.7825 0.7468 0.655 0.68 0.7147 0.7621 0.7522 0.7222 0.7005 0.774
2247.259 0.9787 1.0158 0.87228 0.7573 0.86647 1.0361 1.0533 0.86544 0.85002 0.9962
2266.549 1.0133 0.9808 0.9549 1.028 1.0657 0.9727 0.9446 1.031 1.0554 1.021
2285.839 1.1224 1.1028 0.9785 1.0504 1.1669 1.1374 1.1785 1.276 1.2239 1.1669
2305.129 1.2132 1.0816 0.9724 0.9231 0.81638 0.9117 1.0253 0.86768 0.662 0.669
2324.418 0.7359 0.87227 0.9413 0.84787 0.7712 0.87595 1.0739 1.1096 0.9118 0.804759
2343.708 0.7673 0.79506 0.85169 0.685 0.685 0.798908 0.79546 0.652 0.572 0.597
2362.998 0.62 0.61 0.619 0.682 0.82151 0.89622 0.86134 0.9543 0.9892 1.1358
2382.288 1.0878 0.80431 0.7397 0.89002 1.1064 1.1223 0.9847 0.9318 0.87094 0.9261
2401.578 1.1091 1.0057 0.81984 0.769 0.79518 0.802438 0.87988 0.9523 0.9878 0.9937
2420.867 0.9776 1.014 0.923 0.79675 0.7107 0.676 0.651 0.682 0.7048 0.688
2440.157 0.7596 0.7797 0.647 0.7157 0.874 0.9972 0.9966 0.9279 0.899 0.7863
2459.447 0.88009 0.9065 0.79492 0.82786 0.86819 0.9274 1.0317 1.0284 1.0661 1.0961
2478.737 1.0189 1.0427 1.0985 1.0839 1.181 1.2459 1.1634 1.1195 1.0965 1.0584
2498.026 0.9698 0.9866 1.2596 1.3832 1.2619 1.2214 1.2035 1.0711 0.9001 0.86507
2517.316 1.0482 0.9994 0.8113 0.9428 0.9177 0.89411 0.84772 0.669 0.683 0.87227
2536.606 1.0543 1.0206 0.84001 0.82759 1.1051 1.1275 0.84354 0.907 1.0217 0.9574
2555.896 0.88374 0.8316 0.8981 0.903 0.9848 1.0519 1.0688 1.0755 1.045 1.1859
2575.186 1.269 1.2447 1.1655 1.2595 1.1765 0.86202 0.8883 1.0475 1.0186 1.0573
2594.475 1.1787 0.9606 0.9539 1.221 1.1757 1.0164 0.9677 1.1057 1.1314 0.87935
2613.765 0.697 0.655 0.655 0.532 0.641 0.7031 0.7719 1.0147 1.0481 0.9739
2633.055 0.805121 0.804765 0.9746 0.9749 0.85928 0.81826 0.7622 0.678 0.646 0.653
2652.345 0.81646 1.0606 0.9096 0.7514 0.9945 0.9674 0.9367 1.0479 1.1087 1.1231
2671.634 1.0445 0.89366 0.9668 1.074 0.79332 0.84659 1.0386 1.0344 1.1004 1.0182
2690.924 0.7802 0.7206 0.805084 0.800835 0.85875 0.83983 0.639 0.85283 1.1141 0.851
2710.214 0.89334 0.85375 0.543 0.7806 0.9054 0.7462 0.549 0.7225 0.9457 0.9092
2729.504 0.85606 0.88288 1.0708 1.0453 0.7525 0.565 0.616 0.542 0.629 0.674
2748.794 0.9626 1.1124 0.84703 0.805798 0.7824 0.7764 0.658 0.48 0.657 0.938
2768.083 0.9527 0.7003 0.546 0.663 0.614 0.538 0.78957 0.88289 0.9742 1.1237
2787.373 0.87795 0.7066 0.7645 0.8343 0.553 0.571 0.626 0.6 0.7797 0.563
2806.663 0.604 0.676 0.604 0.7691 0.9429 1.077 1.1168 1.0398 1.1062 1.0999
2825.953 0.797942 0.66 0.8539 0.82108 0.655 0.85718 0.88337 0.85151 0.78878 0.584
2845.242 0.57 0.831 0.981 0.7895 0.622 0.639 0.9054 1.0971 0.9029 0.633
2864.532 0.9154 1.079 0.9183 0.9392 0.9916 1.0485 0.86596 0.7413 0.79282 0.9572
2883.822 0.9704 0.9043 1.0445 0.968 0.806803 0.627 0.685 0.7563 0.7468 0.7358
2903.112 0.57 0.552 0.483 0.534 0.87238 0.9688 0.80882 0.58 0.468 0.486
2922.401 0.552 0.589 0.68 0.85773 0.7334 0.7396 0.9548 0.7682 0.584 0.7399
2941.691 0.9219 1.0672 1.0349 0.9096 0.88065 0.88098 0.9862 1.0624 0.9399 0.9318
2960.981 0.87237 0.82644 0.87924 0.7584 0.87175 1.0551 1.003 0.936 0.83882 1.0109
2980.271 1.0658 1.0025 0.9069 0.88936 1.1559 1.1775 1.0618 0.9883 0.9974 1.0893
2999.561 1.2836 1.2416 1.3987 1.4444 1.344 1.6937 1.998 2.008 1.988 2.078
3018.850 1.898 1.958 2.318 2.008 1.998 2.068 1.958 1.828 1.5303 1.7561
3038.140 1.828 1.808 1.918 2.128 2.278 2.098 2.028 1.858 1.7612 1.958
3057.430 1.858 1.808 2.138 2.178 2.338 2.648 2.488 2.778 3.428 3.998
3076.720 4.638 5.298 5.728 5.988 5.738 5.108 4.398 3.338 2.518 2.198
3096.009 1.908 1.4167 1.3766 1.5039 1.4782 1.4489 1.4034 1.4359 1.3296 1.3318
3115.299 1.1497 1.0437 1.2509 1.1674 1.036 1.1031 1.0999 1.1092 1.0264 0.9682
3134.589 1.0259 0.9277 0.7929 0.651 0.769 0.7455 0.83142 1.1482 1.2549 1.1866
3153.879 1.0659 0.9967 0.87982 0.800317 0.9896 1.1919 1.0896 0.9604 0.945 1.1186
3173.169 1.0969 1.0049 0.9568 0.79668 0.696 0.685 0.7744 0.9632 0.7833 0.661
3192.458 0.87339 0.639 0.353 0.442 0.7333 0.554 0.58 0.83168 0.653 0.7325
3211.748 0.709 0.7072 0.521 0.425 0.807878 1.0803 1.0501 0.7613 0.929 1.1976
3231.038 1.1259 0.83511 0.78967 1.1677 1.1562 0.86342 0.7314 0.503 0.537 0.93
3250.328 1.1304 1.1783 0.89052 0.7515 0.9174 0.7707 0.7722 0.7875 0.594 0.688
3269.617 0.9792 0.7236 0.404 0.674 0.7758 0.88629 0.9395 0.514 0.246 0.374
3288.907 0.561 0.9153 0.8996 0.561 0.455 0.675 1.0635 1.2232 1.1757 1.059
3308.197 0.781 0.505 0.78 0.9893 0.7331 0.7347 0.9376 0.88998 0.84279 0.7041
3327.487 0.55 0.56 0.7185 0.84094 0.527 0.392 0.7716 0.874 0.656 0.535
3346.777 0.652 0.674 0.519 0.55 0.609 0.68 0.85736 0.7269 0.522 0.594
3366.066 0.625 0.7241 0.7555 0.82072 0.9015 0.87797 0.83592 0.633 0.7065 0.7834
3385.356 0.526 0.61 0.957 0.7086 0.459 0.677 0.7185 0.82384 0.7525 0.31
3404.646 0.107 0.019 0.297 0.56 0.691 0.573 0.554 0.9256 0.88905 0.83864
3423.936 0.9577 0.653 0.56 1.1787 1.4076 1.1193 0.86967 1.0969 1.0362 0.568
3443.225 0.571 0.655 0.7958 1.0838 1.3018 1.1474 0.668 0.533 0.604 0.7843
3462.515 0.9571 0.924 0.765 0.803224 0.676 0.588 0.9026 0.943 0.8505 1.1797
3481.805 1.3202 1.0569 0.8416 0.667 0.474 0.405 0.556 0.541 0.598 0.80989
3501.095 0.9199 0.9441 0.63 0.389 0.554 0.89009 0.9137 0.7667 0.7443 0.7252
3520.385 0.7625 0.773 0.7837 0.9404 0.984 0.768 0.75 0.84584 0.9296 1.0996
3539.674 0.85415 0.584 0.596 0.465 0.535 0.503 0.498 0.402 0.573 0.9661
3558.964 0.9191 0.86939 1.0222 0.711 0.304 0.502 0.535 0.511 0.54 0.339
3578.254 0.545 0.85214 0.81605 0.9943 0.9665 1.0111 1.1977 1.0453 1.109 0.81537
3597.544 0.7004 0.691 0.7178 1.1091 0.9132 0.605 0.671 0.86821 0.463 0.183
3616.833 0.383 0.253 0.37 0.7741 0.9696 0.503 0.066 0.392 0.574 0.58
3636.123 0.82907 1.007 0.9714 0.51 0.344 0.687 0.605 0.84515 1.2035 0.9963
3655.413 0.542 0.461 0.68 0.7768 0.87396 0.7356 0.9525 1.108 1.0412 1.0019
3674.703 0.82377 0.83222 0.84771 0.595 0.611 1.0216 1.3034 0.89054 0.426 0.86645
3693.993 1.2022 1.0354 0.81052 0.7461 0.677 1.0179 1.0574 1.0732 1.4759 1.1612
3713.282 0.83127 1.024 1.0849 1.1314 1.0109 0.7865 0.85842 0.7783 0.551 0.645
3732.572 0.605 0.628 0.681 0.611 0.9533 0.9678 0.461 0.466 0.7047 0.7807
3751.862 0.82874 0.693 0.79185 0.81948 0.451 0.85872 1.2792 0.9543 0.87067 1.0353
3771.152 0.9955 0.64 0.523 0.459 0.518 0.8993 0.7166 0.494 0.522 0.566
3790.441 0.517 0.488 0.81422 0.7861 0.691 0.664 0.488 0.652 0.9917 1.1231
3809.731 0.87802 0.9554 0.8988 0.9143 1.2147 0.7735 0.348 0.257 0.81407 0.9495
3829.021 0.502 0.662 0.82607 0.591 0.516 0.668 0.799092 0.594 0.418 0.454
3848.311 0.385 0.553 0.677 0.64 0.86196 1.2048 1.4819 1.2364 0.692 0.531
3867.601 0.255 0.457 0.84564 0.632 0.397 0.567 0.544 0.323 0.7504 0.83801
3886.890 0.622 0.563 0.525 0.611 0.688 0.86496 0.7079 0.565 0.589 0.657
3906.180 0.797063 0.7332 0.82833 0.85881 0.7426 0.7807 0.639 0.7035 0.7726 0.603
3925.470 0.827 1.1195 0.84053 0.403 0.286 0.543 0.7856 0.412 0.039 0
3944.760 0.333 0.69 0.69 0.80841 0.88966 0.7744 0.65 0.64 0.683 0.82797
3964.049 0.7289 0.497 0.689 0.729 0.7734 1.24 1.3606 0.9656 0.7079 0.9464
3983.339 1.2005 1.171 0.86099 0.648 0.8981 0.9563 0.89449 0.9787 1.0808 0.7484
##END=
