##TITLE=1,3-Dibenzoylbenzene
##JCAMP-DX=4.24
##DATA TYPE=INFRARED SPECTRUM
##ORIGIN=EPA-IR VAPOR PHASE LIBRARY
##OWNER=SRD/NIST
Collection (C) 2018 copyright by the U.S. Secretary of Commerce
on behalf of the United States of America. All rights reserved.
##CAS REGISTRY NO=1159-86-0
##MOLFORM=C 20 H 14 O 2
##$NIST SOURCE=MSDC-IR
##STATE=gas
##XUNITS=1/CM
##YUNITS=ABSORBANCE
##XFACTOR=1.
##YFACTOR=0.001
##DELTAX=3.85796
##FIRSTX=501.5
##LASTX=4000.7
##FIRSTY=1.0526
##MAXX=4000.7
##MINX=501.534
##MAXY=0.067322
##MINY=0
##NPOINTS=908
##XYDATA=(X++(Y..Y))
501.534 1.0526 0.9532 0.9528 0.8636 0.8722 0.9041 0.8702 0.8601 0.925 0.9083
540.114 0.8948 0.9337 0.9071 0.8473 0.9643 1.137 1.1764 1.2546 1.3286 1.3785
578.693 1.4958 1.682 1.812 1.952 1.982 1.932 1.932 1.942 2.062 2.222
617.273 2.352 2.722 3.612 5.612 10.232 17.652 23.572 23.402 19.022 13.842
655.852 9.442 6.812 5.712 5.432 5.712 6.332 7.292 9.092 12.522 17.832
694.432 23.102 25.882 27.042 28.752 29.582 26.812 21.572 16.712 13.192 10.312
733.011 7.902 6.292 5.562 5.412 5.632 6.062 6.262 5.912 5.182 4.662
771.591 4.712 5.022 5.042 4.732 4.462 4.552 4.752 4.692 4.202 3.612
810.170 3.512 3.802 4.092 3.962 3.272 2.522 2.152 2.052 2.092 2.042
848.750 1.902 1.792 1.632 1.612 1.672 1.702 1.822 2.012 2.232 2.482
887.330 2.832 3.422 4.292 5.512 6.952 8.442 9.592 9.872 9.362 8.642
925.909 8.182 8.012 7.792 7.022 5.722 4.452 3.702 3.552 3.932 4.912
964.489 6.512 8.472 10.482 12.652 14.562 14.662 12.652 10.122 8.462 8.002
1003.068 7.172 4.912 3.032 2.412 2.322 2.482 2.642 2.452 2.002 1.712
1041.648 1.592 1.582 1.5627 1.632 1.932 2.302 2.672 3.002 3.142 3.202
1080.227 3.292 3.352 3.312 3.202 3.192 3.342 3.642 4.012 4.772 6.382
1118.807 8.392 9.342 8.512 6.882 5.512 4.652 4.302 4.332 4.622 5.262
1157.387 6.322 7.812 9.802 11.162 11.242 11.692 12.092 9.892 6.742 5.372
1195.966 5.282 5.692 6.272 7.002 8.092 9.732 12.332 16.092 21.122 27.032
1234.546 32.622 36.992 40.852 45.452 49.702 49.702 43.612 34.852 28.032 24.172
1273.125 22.082 21.312 21.622 22.732 24.752 27.042 28.232 27.442 25.292 23.292
1311.705 21.892 20.002 16.562 12.252 8.662 6.362 5.002 4.102 3.452 2.962
1350.284 2.622 2.392 2.242 2.162 2.122 2.092 2.102 2.162 2.192 2.182
1388.864 2.182 2.222 2.372 2.612 2.892 3.232 3.712 4.342 4.942 5.102
1427.443 4.662 4.172 4.242 5.082 6.532 7.672 7.172 5.362 3.682 2.772
1466.023 2.332 2.142 2.152 2.192 2.142 2.042 1.972 1.922 1.832 1.732
1504.603 1.682 1.702 1.722 1.752 1.842 1.932 2.032 2.162 2.272 2.322
1543.182 2.362 2.382 2.432 2.522 2.692 2.972 3.372 3.962 4.672 5.322
1581.762 5.762 6.222 7.162 8.712 10.072 9.922 7.972 5.742 4.452 3.902
1620.341 3.642 3.492 3.472 3.652 4.082 4.692 5.332 5.942 6.602 7.672
1658.921 9.472 12.362 17.062 25.272 39.282 57.002 67.322 61.142 45.382 31.512
1697.500 22.372 16.472 12.472 9.732 7.892 6.622 5.662 4.872 4.212 3.672
1736.080 3.232 2.912 2.672 2.492 2.352 2.222 2.082 1.952 1.842 1.742
1774.659 1.662 1.5311 1.4168 1.3583 1.361 1.4558 1.632 1.842 2.022 2.072
1813.239 1.982 1.792 1.582 1.4317 1.3286 1.2582 1.1975 1.1422 1.1311 1.1384
1851.819 1.1315 1.1217 1.1188 1.1149 1.1265 1.1689 1.2307 1.2964 1.3724 1.4609
1890.398 1.5662 1.652 1.712 1.772 1.792 1.762 1.692 1.5748 1.4038 1.2464
1928.978 1.1512 1.095 1.0876 1.1681 1.3308 1.5605 1.762 1.852 1.792 1.702
1967.557 1.632 1.4516 1.1958 0.9803 0.8641 0.7956 0.7417 0.7024 0.66682 0.63036
2006.137 0.62765 0.63485 0.64056 0.64384 0.59675 0.587027 0.61494 0.61469 0.62369 0.62344
2044.716 0.61013 0.6044 0.6075 0.61526 0.61091 0.60645 0.57275 0.5324 0.5397 0.5556
2083.296 0.5712 0.5597 0.5468 0.5437 0.514 0.4975 0.5192 0.5114 0.5026 0.5133
2121.875 0.4913 0.5001 0.5097 0.5044 0.494 0.4944 0.5031 0.5008 0.4948 0.5086
2160.455 0.5253 0.503 0.5093 0.522 0.5125 0.5067 0.5076 0.4934 0.461 0.445
2199.035 0.451 0.461 0.477 0.4932 0.479 0.466 0.481 0.4968 0.4991 0.4898
2237.614 0.5008 0.496 0.5079 0.5426 0.5456 0.5537 0.5498 0.5527 0.5567 0.5588
2276.194 0.589815 0.57595 0.5639 0.5687 0.5493 0.5199 0.5062 0.5291 0.5407 0.57447
2314.773 0.6599 0.7126 0.67276 0.60975 0.60475 0.66087 0.6885 0.66994 0.6435 0.591003
2353.353 0.5322 0.5266 0.5367 0.5208 0.5074 0.5284 0.5649 0.57555 0.5658 0.5554
2391.932 0.586107 0.62296 0.64505 0.66383 0.646 0.61149 0.60897 0.59903 0.5629 0.537
2430.512 0.539 0.536 0.5042 0.4986 0.4968 0.4832 0.477 0.468 0.473 0.464
2469.092 0.461 0.469 0.467 0.438 0.427 0.452 0.446 0.45 0.407 0.381
2507.671 0.41 0.419 0.4 0.379 0.39 0.414 0.422 0.408 0.433 0.477
2546.251 0.4826 0.4875 0.493 0.472 0.461 0.48 0.4911 0.4894 0.5053 0.5299
2584.830 0.54 0.5554 0.5682 0.5588 0.5444 0.5209 0.458 0.414 0.414 0.42
2623.410 0.419 0.41 0.427 0.404 0.369 0.381 0.389 0.393 0.388 0.392
2661.989 0.397 0.363 0.338 0.356 0.36 0.34 0.34 0.339 0.335 0.351
2700.569 0.36 0.374 0.404 0.408 0.402 0.4 0.364 0.348 0.397 0.418
2739.148 0.434 0.453 0.457 0.4874 0.4919 0.4821 0.462 0.445 0.446 0.407
2777.728 0.365 0.35 0.346 0.359 0.355 0.321 0.33 0.362 0.362 0.352
2816.308 0.362 0.36 0.364 0.421 0.468 0.465 0.434 0.427 0.4824 0.503
2854.887 0.4975 0.4977 0.5041 0.5382 0.5668 0.582802 0.5706 0.583327 0.6224 0.61515
2893.467 0.59782 0.589829 0.5218 0.443 0.441 0.407 0.36 0.398 0.427 0.432
2932.046 0.456 0.4943 0.456 0.388 0.398 0.421 0.416 0.404 0.406 0.38
2970.626 0.399 0.5061 0.5693 0.5642 0.5587 0.57675 0.64922 0.7377 0.8202 0.954
3009.205 1.1299 1.3953 1.822 2.452 3.242 4.092 4.822 5.252 5.262 4.842
3047.785 4.462 4.592 5.372 6.892 9.172 12.012 14.012 13.352 10.952 9.432
3086.364 9.062 8.342 6.902 5.422 4.232 3.212 2.372 1.712 1.2698 1.0393
3124.944 0.8807 0.7615 0.7214 0.6989 0.67229 0.6961 0.66849 0.62981 0.6287 0.60507
3163.524 0.59626 0.5467 0.451 0.405 0.397 0.407 0.411 0.386 0.345 0.345
3202.103 0.33 0.274 0.276 0.276 0.233 0.21 0.185 0.189 0.226 0.245
3240.683 0.259 0.235 0.242 0.281 0.274 0.245 0.307 0.37 0.304 0.237
3279.262 0.24 0.247 0.246 0.268 0.334 0.38 0.341 0.303 0.349 0.354
3317.842 0.417 0.4822 0.4906 0.584997 0.6914 0.9034 1.1028 1.2045 1.2447 1.1194
3356.421 0.8964 0.7551 0.7359 0.66536 0.5637 0.481 0.415 0.384 0.372 0.392
3395.001 0.37 0.356 0.325 0.246 0.18 0.147 0.195 0.291 0.31 0.229
3433.580 0.183 0.192 0.204 0.201 0.232 0.213 0.168 0.143 0.149 0.177
3472.160 0.146 0.17 0.216 0.198 0.175 0.189 0.127 0.116 0.169 0.152
3510.740 0.17 0.17 0.117 0.137 0.129 0.125 0.167 0.166 0.182 0.195
3549.319 0.152 0.098 0.096 0.136 0.185 0.192 0.203 0.168 0.105 0.119
3587.899 0.141 0.181 0.225 0.232 0.144 0.089 0.185 0.218 0.219 0.251
3626.478 0.255 0.244 0.197 0.18 0.207 0.21 0.219 0.24 0.232 0.219
3665.058 0.264 0.267 0.214 0.23 0.22 0.221 0.248 0.246 0.22 0.234
3703.637 0.27 0.235 0.261 0.249 0.235 0.311 0.295 0.237 0.176 0.137
3742.217 0.183 0.201 0.195 0.248 0.244 0.241 0.227 0.176 0.16 0.155
3780.797 0.165 0.126 0.131 0.126 0.101 0.117 0.132 0.119 0.148 0.232
3819.376 0.231 0.164 0.114 0.171 0.196 0.081 0.092 0.119 0.113 0.118
3857.956 0.081 0.104 0.134 0.121 0.083 0.114 0.156 0.127 0.11 0.083
3896.535 0.073 0.13 0.155 0.088 0 0.079 0.25 0.194 0.078 0.04
3935.115 0.038 0.037 0.016 0.135 0.158 0.041 0.075 0.126 0.134 0.163
3973.694 0.167 0.259 0.276 0.15 0.091 0.127 0.189 0.185
##END=
