##TITLE=m-Tetraphenyl
##JCAMP-DX=4.24
##DATA TYPE=INFRARED SPECTRUM
##ORIGIN=NIST Mass Spectrometry Data Center
##OWNER=NIST Standard Reference Data Program
Collection (C) 2018 copyright by the U.S. Secretary of Commerce
on behalf of the United States of America. All rights reserved.
##CAS REGISTRY NO=1166-18-3
##MOLFORM=C 24 H 18
##$NIST SOURCE=MSDC-IR
##SPECTROMETER/DATA SYSTEM=HP-GC/MS/IRD
##STATE=gas
##XUNITS=1/CM
##YUNITS=ABSORBANCE
##XFACTOR=1.0
##YFACTOR=0.000000500
##DELTAX=4.0
##FIRSTX=550.0
##LASTX=3846.0
##FIRSTY=0.000130
##MAXX=3846
##MINX=550
##MAXY=0.005
##MINY=0
##NPOINTS=825
##XYDATA=(X++(Y..Y))
550.0 260 171 229 116 83 123 145 235 384 428
590.0 408 487 583 669 1185 2524 3884 3521 2309 1705
630.0 1255 914 780 694 659 665 718 898 1027 1178
670.0 1404 1557 1752 2077 2871 4631 7256 9310 9588 8079
710.0 5704 3719 2660 2261 2157 2163 2383 3021 4293 6785
750.0 9484 10000 8154 5647 3684 2616 2094 1976 2240 2708
790.0 3022 2729 2081 1467 956 693 579 556 520 580
830.0 626 625 703 758 706 638 612 593 606 668
870.0 720 767 871 1115 1522 1700 1490 1190 1014 940
910.0 862 780 697 591 478 491 532 455 410 443
950.0 483 504 532 577 639 633 546 513 546 594
990.0 605 581 555 649 900 1236 1323 1126 984 952
1030.0 953 1009 980 845 641 536 636 845 1081 1207
1070.0 1192 1104 1014 1004 1105 1167 1122 1038 890 693
1110.0 581 477 415 398 393 343 239 260 283 197
1150.0 143 133 110 128 320 465 335 253 303 213
1190.0 58 58 79 24 25 106 162 174 230 300
1230.0 340 380 451 531 629 719 732 742 723 684
1270.0 656 633 622 603 575 531 532 559 565 578
1310.0 625 636 582 546 532 526 527 486 433 447
1350.0 474 490 516 527 566 637 719 832 949 1045
1390.0 1189 1289 1304 1206 1120 1103 1199 1300 1104 992
1430.0 1033 1081 1114 1231 1495 1711 1785 2053 2823 4595
1470.0 6281 5842 4219 3071 2612 2387 2094 1930 1730 1365
1510.0 999 821 827 750 648 756 812 948 897 831
1550.0 1014 1222 1477 1818 2254 2764 3185 3439 3991 5233
1590.0 6997 8034 7357 5397 3510 2310 1631 1209 960 848
1630.0 700 607 516 473 511 465 470 528 455 470
1670.0 504 483 572 467 478 438 544 653 565 505
1710.0 409 443 417 269 322 485 437 304 347 453
1750.0 488 397 317 376 439 419 438 492 596 653
1790.0 717 798 794 762 673 546 506 466 405 395
1830.0 329 263 247 277 315 363 427 531 648 755
1870.0 808 807 759 626 534 507 459 398 346 274
1910.0 267 315 364 420 508 658 825 892 801 645
1950.0 560 534 463 345 269 235 223 186 145 150
1990.0 171 191 175 179 158 132 134 134 159 146
2030.0 117 126 131 126 136 122 103 129 145 117
2070.0 90 83 73 83 99 84 54 60 76 90
2110.0 91 100 111 81 75 69 60 70 74 85
2150.0 95 96 93 69 71 83 78 76 84 103
2190.0 100 86 87 89 99 108 112 113 102 74
2230.0 54 68 72 77 69 58 55 46 34 12
2270.0 15 38 60 49 16 12 15 17 26 30
2310.0 71 127 123 83 62 56 67 102 144 170
2350.0 161 165 165 159 151 122 116 117 81 72
2390.0 69 60 83 117 102 42 47 102 107 79
2430.0 44 26 56 55 62 68 25 46 64 53
2470.0 68 61 58 49 34 24 23 22 39 57
2510.0 43 37 73 64 26 43 74 82 40 20
2550.0 51 59 62 87 68 42 55 71 90 97
2590.0 99 125 122 73 82 105 99 108 118 100
2630.0 82 83 74 56 52 60 53 67 80 80
2670.0 105 94 79 105 85 66 49 51 64 55
2710.0 72 92 67 56 51 76 93 59 56 79
2750.0 54 78 91 54 62 64 78 80 101 118
2790.0 103 103 99 93 93 93 72 54 55 70
2830.0 92 131 182 173 161 180 188 207 195 193
2870.0 201 195 216 223 176 156 171 166 209 224
2910.0 207 211 191 195 207 209 247 309 329 348
2950.0 389 357 315 329 344 380 389 382 411 458
2990.0 495 506 593 663 721 917 1258 1678 2272 3079
3030.0 4001 4829 5130 4792 4314 4218 4727 5789 7332 8770
3070.0 8849 7315 5557 4548 4009 3496 2979 2481 2044 1713
3110.0 1471 1147 878 702 539 424 386 361 300 266
3150.0 268 267 231 198 227 226 158 174 165 155
3190.0 161 158 150 127 126 105 91 96 99 74
3230.0 77 123 126 95 104 134 107 75 122 115
3270.0 59 69 87 104 76 18 20 77 116 126
3310.0 141 133 136 88 59 112 100 103 90 28
3350.0 38 65 66 35 79 112 76 79 106 128
3390.0 122 84 84 124 121 95 49 72 100 90
3430.0 75 72 86 89 142 135 171 153 93 136
3470.0 146 169 178 140 128 124 93 92 132 151
3510.0 130 143 122 117 138 125 108 89 121 215
3550.0 190 110 161 158 170 166 95 148 159 132
3590.0 169 96 119 108 120 267 162 198 225 227
3630.0 396 275 129 170 249 345 221 178 378 265
3670.0 274 328 248 370 349 301 268 206 260 274
3710.0 106 0 107 309 267 280 319 247 371 385
3750.0 231 294 343 296 321 233 195 416 337 198
3790.0 192 303 402 354 229 287 448 255 156 319
3830.0 363 333 251 257 314
##END=
