##TITLE=Bis(2-ethylhexyl)phthalate
##JCAMP-DX=4.24
##DATA TYPE=INFRARED SPECTRUM
##ORIGIN=NIST Mass Spectrometry Data Center
##OWNER=NIST Standard Reference Data Program
Collection (C) 2018 copyright by the U.S. Secretary of Commerce
on behalf of the United States of America. All rights reserved.
##CAS REGISTRY NO=117-81-7
##MOLFORM=C 24 H 38 O 4
##$NIST SOURCE=MSDC-IR
##SPECTROMETER/DATA SYSTEM=HP-GC/MS/IRD
##STATE=gas
##XUNITS=1/CM
##YUNITS=ABSORBANCE
##XFACTOR=1.0
##YFACTOR=0.000005300
##DELTAX=4.0
##FIRSTX=550.0
##LASTX=3846.0
##FIRSTY=0.000530
##MAXX=3846
##MINX=550
##MAXY=0.053
##MINY=0
##NPOINTS=825
##XYDATA=(X++(Y..Y))
550.0 100 39 0 6 12 26 43 41 28 42
590.0 37 30 28 16 16 19 22 23 26 34
630.0 32 28 45 86 139 183 159 101 79 74
670.0 89 119 148 188 263 382 508 584 587 536
710.0 499 509 553 622 726 861 1017 1192 1296 1235
750.0 1061 884 757 688 669 669 669 663 632 582
790.0 528 455 391 351 315 293 281 265 258 256
830.0 246 232 221 213 217 218 225 238 232 225
870.0 226 220 212 216 225 230 247 273 290 310
910.0 321 334 362 399 442 472 495 545 608 667
950.0 727 787 812 779 707 635 595 576 556 530
990.0 506 493 484 465 455 464 472 506 576 680
1030.0 867 1188 1532 1608 1492 1536 1931 2726 3846 4787
1070.0 4778 3799 2655 1903 1532 1412 1477 1715 2188 2985
1110.0 4120 5370 6203 6232 5715 5139 4543 3712 2791 2079
1150.0 1612 1294 1084 941 791 647 567 538 526 530
1190.0 547 571 614 679 751 843 973 1141 1368 1696
1230.0 2173 2835 3671 4620 5648 6703 7717 8694 9552 10000
1270.0 9881 9455 9039 8575 7781 6595 5274 4101 3193 2529
1310.0 2049 1697 1428 1222 1067 962 900 853 804 750
1350.0 702 678 663 661 684 735 851 1032 1195 1233
1390.0 1093 850 635 508 438 400 381 372 372 390
1430.0 422 474 572 727 907 1051 1160 1307 1464 1525
1470.0 1426 1196 952 776 654 550 453 377 330 291
1510.0 261 247 234 220 205 195 187 177 172 167
1550.0 166 172 181 199 236 302 385 438 410 337
1590.0 298 307 334 329 275 220 187 176 169 164
1630.0 166 167 166 168 172 177 189 202 213 226
1670.0 241 261 288 320 362 422 503 606 724 854
1710.0 1015 1244 1576 2050 2744 3828 5557 7780 9477 9477
1750.0 7781 5544 3739 2570 1852 1385 1069 851 689 567
1790.0 473 403 348 306 270 246 227 210 199 194
1830.0 187 170 150 129 117 114 114 116 113 102
1870.0 90 83 76 70 67 67 65 68 71 73
1910.0 74 73 71 78 93 107 113 104 87 72
1950.0 68 70 77 83 79 66 49 40 40 37
1990.0 33 30 29 30 30 35 36 33 32 37
2030.0 36 35 38 38 35 37 41 43 44 46
2070.0 47 46 48 49 46 46 47 45 40 40
2110.0 42 38 37 35 33 34 33 32 28 26
2150.0 28 28 27 25 28 32 30 26 28 29
2190.0 29 29 28 26 27 30 29 26 27 23
2230.0 24 28 30 28 25 25 26 25 21 20
2270.0 22 21 20 20 21 22 22 27 31 28
2310.0 25 29 35 41 44 46 41 32 32 40
2350.0 41 37 36 36 37 36 36 38 38 37
2390.0 40 39 35 39 41 35 31 26 25 26
2430.0 23 19 14 13 15 13 10 6 6 8
2470.0 11 11 7 8 9 9 11 13 14 17
2510.0 15 15 23 24 19 20 25 28 30 31
2550.0 34 37 35 36 39 43 47 45 46 47
2590.0 49 51 51 53 55 55 56 53 48 50
2630.0 58 58 57 68 70 69 74 78 80 81
2670.0 83 87 85 85 86 88 88 89 92 101
2710.0 109 105 105 115 124 131 140 149 155 159
2750.0 161 163 165 165 165 166 168 175 188 197
2790.0 205 216 237 258 278 301 329 358 400 450
2830.0 497 560 638 740 881 1081 1373 1771 2247 2700
2870.0 2978 3041 3058 3130 3137 2995 2832 2770 2825 2981
2910.0 3244 3610 4078 4634 5245 5853 6345 6577 6443 5964
2950.0 5408 5132 5346 5993 6675 6714 5757 4344 3162 2360
2990.0 1823 1446 1168 962 806 688 611 556 510 485
3030.0 473 454 423 396 375 368 374 392 432 501
3070.0 609 719 756 650 469 336 274 252 231 209
3110.0 190 173 154 141 132 125 128 129 127 124
3150.0 119 115 109 104 100 93 96 91 85 85
3190.0 85 78 64 60 63 57 51 48 41 41
3230.0 42 40 40 38 32 32 34 37 40 41
3270.0 36 26 28 32 32 29 26 27 24 24
3310.0 33 33 36 38 34 36 36 31 31 29
3350.0 29 30 30 31 30 23 22 27 29 29
3390.0 30 29 32 30 33 39 33 33 37 41
3430.0 40 45 53 52 59 71 73 78 83 80
3470.0 82 88 87 80 73 68 63 54 44 39
3510.0 42 39 31 28 24 26 26 20 18 19
3550.0 16 16 20 14 9 9 14 14 7 6
3590.0 11 20 23 15 16 19 11 7 15 25
3630.0 20 17 10 9 15 12 13 21 20 14
3670.0 13 7 13 27 33 36 35 35 29 22
3710.0 27 28 22 22 22 24 21 25 26 22
3750.0 27 23 23 28 28 26 26 23 21 22
3790.0 20 17 16 13 19 25 23 24 28 28
3830.0 22 21 26 25 25
##END=
