##TITLE=2-Aminobenzoic acid
##JCAMP-DX=4.24
##DATA TYPE=INFRARED SPECTRUM
##ORIGIN=NIST Mass Spectrometry Data Center
##OWNER=NIST Standard Reference Data Program
Collection (C) 2018 copyright by the U.S. Secretary of Commerce
on behalf of the United States of America. All rights reserved.
##CAS REGISTRY NO=118-92-3
##MOLFORM=C 7 H 7 N O 2
##$NIST SOURCE=MSDC-IR
##SPECTROMETER/DATA SYSTEM=HP-GC/MS/IRD
##STATE=gas
##XUNITS=1/CM
##YUNITS=ABSORBANCE
##XFACTOR=1.0
##YFACTOR=0.000002400
##DELTAX=4.0
##FIRSTX=550.0
##LASTX=3846.0
##FIRSTY=0.004915
##MAXX=3846
##MINX=550
##MAXY=0.024
##MINY=0
##NPOINTS=825
##XYDATA=(X++(Y..Y))
550.0 2048 2005 2032 2235 2186 1881 1599 1292 982 754
590.0 610 513 433 377 348 372 456 591 787 1046
630.0 1344 1676 2010 2159 2129 1953 1616 1206 910 847
670.0 794 715 750 856 994 1140 1302 1611 1840 1605
710.0 1355 1217 1096 1107 1241 1498 1825 2158 2511 3058
750.0 3002 2224 1735 1380 979 651 429 333 308 307
790.0 310 315 315 326 344 348 341 307 293 296
830.0 347 389 412 419 413 405 343 260 194 153
870.0 124 109 125 122 91 104 132 120 90 55
910.0 58 82 108 104 79 64 33 32 44 44
950.0 27 6 7 27 26 18 14 24 42 51
990.0 56 67 98 133 164 236 339 437 543 616
1030.0 701 884 1127 1476 1939 2412 2773 3018 3194 3173
1070.0 3036 2962 3010 3122 3223 3218 3072 2823 2474 2028
1110.0 1598 1289 1083 995 992 1050 1217 1553 2135 3152
1150.0 4266 4765 4805 4938 4949 4679 4625 4673 4635 4512
1190.0 3906 2762 1724 1137 851 713 652 660 680 687
1230.0 726 798 906 1050 1166 1267 1332 1311 1245 1136
1270.0 960 787 638 537 487 491 585 744 955 1198
1310.0 1438 1655 1869 2048 2129 2142 2133 2065 1893 1683
1350.0 1517 1378 1227 1107 1112 1193 1228 1177 1067 881
1390.0 623 385 220 132 94 74 64 67 69 69
1430.0 89 135 228 365 558 788 929 1016 1096 1070
1470.0 996 983 1060 1179 1307 1408 1376 1221 1032 814
1510.0 583 416 315 263 240 242 284 371 468 602
1550.0 804 1044 1286 1469 1581 1646 1674 1722 1858 2133
1590.0 2490 2900 3365 3915 4575 5284 5772 5759 5394 4850
1630.0 3987 2891 1926 1278 896 707 616 568 550 559
1670.0 584 620 670 757 875 990 1166 1441 1892 2684
1710.0 4037 5950 7955 9303 9946 10000 9036 7206 5399 4091
1750.0 3195 2583 2076 1498 969 633 455 379 371 382
1790.0 408 440 430 382 318 268 227 190 154 118
1830.0 92 62 45 49 49 37 33 36 30 37
1870.0 40 41 48 59 75 89 99 113 126 137
1910.0 147 154 152 142 143 128 100 75 60 49
1950.0 33 27 18 11 16 19 16 15 18 4
1990.0 0 6 5 5 7 14 17 18 13 13
2030.0 15 6 2 3 8 8 8 15 16 15
2070.0 19 21 36 37 40 45 38 31 24 31
2110.0 41 46 51 45 44 44 48 49 34 31
2150.0 34 32 38 37 39 34 28 37 39 34
2190.0 29 28 23 23 30 24 20 28 27 23
2230.0 18 6 4 10 15 17 18 18 24 14
2270.0 15 29 33 38 60 79 94 123 150 174
2310.0 198 221 260 287 298 320 319 298 286 257
2350.0 246 294 360 393 376 338 279 196 128 88
2390.0 61 39 28 28 25 19 26 26 22 31
2430.0 35 27 32 37 37 30 35 47 35 26
2470.0 26 21 12 14 14 4 2 8 14 7
2510.0 7 13 16 26 24 14 13 18 19 18
2550.0 22 23 11 4 7 5 14 14 8 6
2590.0 6 8 10 12 18 18 11 17 28 37
2630.0 37 31 37 43 44 46 50 50 33 25
2670.0 31 31 27 20 11 10 15 22 27 11
2710.0 8 34 44 35 30 26 25 26 26 18
2750.0 14 16 21 14 10 21 24 31 35 26
2790.0 29 32 36 38 39 46 54 41 31 23
2830.0 13 11 10 15 26 28 26 28 27 25
2870.0 27 35 50 60 58 60 42 19 23 36
2910.0 24 25 37 30 31 29 27 36 31 21
2950.0 23 20 29 30 35 53 54 61 69 65
2990.0 81 83 80 105 116 125 168 223 279 346
3030.0 417 477 505 532 563 589 616 636 638 619
3070.0 598 599 590 570 525 479 469 413 305 207
3110.0 136 104 72 63 77 76 69 66 76 46
3150.0 34 60 49 40 50 52 50 58 85 78
3190.0 52 51 60 80 60 39 50 59 67 55
3230.0 39 22 15 34 33 8 6 31 35 29
3270.0 34 33 48 62 49 42 55 65 69 94
3310.0 110 121 134 132 152 161 153 168 204 213
3350.0 196 208 243 281 363 528 808 1112 1410 1679
3390.0 1803 1749 1536 1235 912 652 470 367 345 356
3430.0 336 314 302 285 268 242 201 182 194 206
3470.0 221 228 259 322 374 425 506 610 729 858
3510.0 994 1106 1181 1191 1093 979 847 682 519 410
3550.0 336 317 374 520 843 1352 2136 2924 3298 3291
3590.0 3000 2365 1475 673 278 175 136 115 79 69
3630.0 90 83 72 47 56 89 77 35 44 46
3670.0 41 46 45 52 68 62 28 9 10 44
3710.0 76 76 41 21 34 40 39 44 66 77
3750.0 82 59 35 41 45 34 20 20 28 37
3790.0 23 4 16 37 29 3 7 11 13 28
3830.0 46 37 10 3 1
##END=
