##TITLE=4-Methyl-1-hepten-4-ol
##JCAMP-DX=4.24
##DATA TYPE=INFRARED SPECTRUM
##ORIGIN=NIST Mass Spectrometry Data Center
##OWNER=NIST Standard Reference Data Program
Collection (C) 2018 copyright by the U.S. Secretary of Commerce
on behalf of the United States of America. All rights reserved.
##CAS REGISTRY NO=1186-31-8
##MOLFORM=C 8 H 16 O
##$NIST SOURCE=MSDC-IR
##SPECTROMETER/DATA SYSTEM=HP-GC/MS/IRD
##STATE=gas
##XUNITS=1/CM
##YUNITS=ABSORBANCE
##XFACTOR=1.0
##YFACTOR=0.000001900
##DELTAX=4.0
##FIRSTX=550.0
##LASTX=3846.0
##FIRSTY=0.000543
##MAXX=3846
##MINX=550
##MAXY=0.019
##MINY=0
##NPOINTS=825
##XYDATA=(X++(Y..Y))
550.0 286 198 127 86 76 65 77 96 71 21
590.0 47 118 133 134 200 266 287 319 367 376
630.0 356 363 366 332 368 388 327 266 230 203
670.0 175 174 177 170 148 123 91 86 91 126
710.0 168 162 174 196 213 196 222 255 255 285
750.0 308 309 331 398 438 463 491 483 471 432
790.0 373 331 291 262 250 235 210 164 178 255
830.0 299 308 328 373 440 531 636 727 839 951
870.0 1060 1156 1199 1233 1245 1242 1322 1515 1829 2296
910.0 2838 3333 3604 3525 3202 2758 2361 2063 1819 1662
950.0 1534 1364 1192 1046 928 883 914 1009 1173 1410
990.0 1675 1856 1903 1891 1828 1698 1557 1467 1418 1356
1030.0 1284 1215 1139 1089 1065 1074 1097 1124 1141 1168
1070.0 1223 1246 1235 1214 1208 1218 1229 1262 1304 1364
1110.0 1453 1570 1671 1789 1952 2068 2141 2198 2290 2386
1150.0 2450 2479 2462 2396 2296 2152 1977 1777 1602 1471
1190.0 1344 1235 1165 1133 1105 1075 1078 1104 1132 1159
1230.0 1184 1218 1236 1260 1307 1362 1396 1439 1468 1467
1270.0 1472 1447 1393 1360 1338 1318 1295 1287 1273 1259
1310.0 1247 1227 1209 1218 1233 1238 1254 1289 1334 1373
1350.0 1409 1461 1542 1677 1867 2067 2250 2343 2297 2121
1390.0 1829 1509 1229 1025 916 866 850 882 927 995
1430.0 1116 1239 1362 1477 1554 1611 1638 1631 1580 1475
1470.0 1335 1155 945 753 598 482 392 335 287 256
1510.0 231 206 201 205 196 172 166 181 172 153
1550.0 144 145 139 119 119 118 113 116 113 102
1590.0 109 121 118 133 163 187 238 308 397 550
1630.0 732 878 932 903 807 635 423 266 184 135
1670.0 114 103 94 87 82 77 71 61 54 55
1710.0 54 40 36 45 49 49 53 53 46 39
1750.0 36 33 36 42 42 50 51 39 45 57
1790.0 53 58 67 69 68 80 112 128 160 218
1830.0 267 298 323 310 267 225 182 144 113 81
1870.0 70 62 50 44 38 37 46 57 54 47
1910.0 48 40 41 39 30 34 39 26 25 27
1950.0 18 22 34 51 54 37 33 36 41 50
1990.0 43 41 46 43 46 55 45 41 41 33
2030.0 29 39 47 41 30 27 28 29 29 30
2070.0 25 24 32 25 27 45 41 35 27 25
2110.0 30 35 36 28 20 29 43 44 41 42
2150.0 37 25 32 43 41 42 28 25 34 35
2190.0 44 49 40 37 36 29 35 27 27 44
2230.0 47 34 26 34 31 33 44 48 47 44
2270.0 32 27 30 34 25 19 31 27 23 31
2310.0 32 21 30 39 34 37 40 45 47 36
2350.0 43 45 37 42 41 44 42 33 32 27
2390.0 26 36 37 37 40 43 30 33 34 15
2430.0 11 18 29 34 27 13 6 20 27 21
2470.0 9 15 27 21 13 16 19 29 32 28
2510.0 35 38 39 48 38 28 28 31 31 44
2550.0 60 58 53 45 37 39 48 58 58 44
2590.0 39 44 48 54 66 69 56 52 59 62
2630.0 54 54 65 59 69 74 60 71 81 86
2670.0 81 74 64 69 72 90 113 103 91 102
2710.0 126 130 121 141 170 179 199 215 209 203
2750.0 198 198 199 182 171 186 192 195 227 231
2790.0 233 269 307 336 369 412 454 529 607 685
2830.0 779 915 1079 1231 1389 1542 1696 1858 2024 2261
2870.0 2603 3056 3491 3791 3960 4023 4014 4025 4176 4485
2910.0 4889 5336 5756 6129 6514 6916 7285 7495 7439 7227
2950.0 7061 7153 7689 8617 9523 10000 9819 8983 7732 6343
2990.0 5017 3868 2963 2314 1931 1705 1542 1409 1252 1087
3030.0 958 836 762 718 687 695 725 782 870 991
3070.0 1196 1483 1762 1896 1839 1640 1332 950 633 454
3110.0 341 280 248 230 223 216 224 225 227 220
3150.0 197 189 189 169 158 160 141 106 120 131
3190.0 116 102 109 126 116 104 105 106 93 83
3230.0 91 103 88 79 68 61 68 70 70 73
3270.0 62 56 62 64 75 83 62 45 60 59
3310.0 48 52 74 47 19 20 33 46 66 81
3350.0 43 24 37 56 80 86 54 35 47 47
3390.0 31 33 34 57 70 70 65 61 55 43
3430.0 41 41 46 37 37 47 35 33 49 48
3470.0 37 37 69 67 37 28 13 31 50 36
3510.0 31 22 15 19 32 29 31 14 1 30
3550.0 48 27 0 6 11 14 25 44 66 93
3590.0 106 137 229 328 387 425 445 462 500 556
3630.0 636 674 678 668 595 469 337 239 150 111
3670.0 94 62 29 6 10 21 30 40 23 1
3710.0 10 27 7 0 1 1 1 1 5 1
3750.0 1 1 1 1 1 1 1 1 1 1
3790.0 1 2 23 33 8 0 2 10 7 2
3830.0 1 1 2 1 0
##END=
