##TITLE=Dimethyl 2,3-Dibromo-1,4-butanedioate
##JCAMP-DX=4.24
##DATA TYPE=INFRARED SPECTRUM
##ORIGIN=EPA-IR VAPOR PHASE LIBRARY
##OWNER=SRD/NIST
Collection (C) 2018 copyright by the U.S. Secretary of Commerce
on behalf of the United States of America. All rights reserved.
##CAS REGISTRY NO=1186-98-7
##MOLFORM=C6 H8 Br2 O4
##$NIST SOURCE=MSDC-IR
##STATE=gas
##XUNITS=1/CM
##YUNITS=ABSORBANCE
##XFACTOR=1.
##YFACTOR=0.001
##DELTAX=1.92898
##FIRSTX=549.8
##LASTX=4000.7
##FIRSTY=14.293
##MAXX=4000.7
##MINX=549.759
##MAXY=0.414353
##MINY=0
##NPOINTS=1790
##XYDATA=(X++(Y..Y))
549.759 14.293 15.963 17.643 19.653 21.083 21.883 22.503 22.613 22.323 21.613
569.049 20.193 18.653 16.953 15.603 14.603 13.433 12.513 11.623 10.673 9.963
588.339 9.483 8.853 8.393 7.763 7.103 7.033 6.473 5.663 5.423 5.293
607.628 5.143 4.803 4.273 4.063 3.943 3.603 3.113 2.813 2.873 2.713
626.918 2.613 2.583 2.483 2.633 2.723 2.673 2.773 2.823 2.993 3.483
646.208 3.813 4.013 4.713 5.593 6.503 7.713 9.073 10.893 13.503 16.393
665.498 19.213 22.023 24.183 25.443 25.473 24.193 22.183 19.483 16.473 13.583
684.787 11.133 9.133 7.523 6.433 5.763 5.163 4.603 4.243 4.073 3.853
704.077 3.463 3.423 3.373 3.213 3.033 2.833 2.843 2.643 2.543 2.673
723.367 2.453 2.363 2.373 2.453 2.473 2.293 2.303 2.353 2.353 2.303
742.657 2.293 2.353 2.273 2.383 2.523 2.363 2.223 2.113 2.183 2.423
761.947 2.463 2.453 2.593 2.823 2.943 2.983 2.863 2.913 3.183 3.193
781.236 3.163 3.213 3.373 3.443 3.353 3.383 3.473 3.363 3.213 3.053
800.526 2.863 2.773 2.793 2.753 2.563 2.513 2.643 2.753 2.793 2.833
819.816 2.883 2.903 2.993 3.053 3.123 3.423 3.523 3.433 3.743 4.063
839.106 4.253 4.663 5.163 5.573 6.183 6.863 7.373 7.663 7.753 8.093
858.395 8.553 9.093 9.553 10.163 10.983 11.363 11.793 12.133 11.753 10.763
877.685 9.463 8.023 6.743 5.753 5.083 4.693 4.323 4.133 4.463 4.953
896.975 5.543 6.253 6.773 7.343 7.713 7.713 7.233 6.333 5.453 4.713
916.265 4.003 3.373 2.763 2.453 2.253 1.963 2.003 2.113 2.113 2.083
935.555 2.233 2.273 2.253 2.283 2.283 2.533 2.773 2.923 2.943 2.993
954.844 3.053 3.273 3.583 3.713 4.153 4.443 4.673 5.193 5.863 6.643
974.134 7.513 8.523 9.803 11.573 13.873 16.693 19.853 23.173 26.763 30.363
993.424 33.773 37.073 39.923 41.973 43.313 44.063 44.563 44.613 44.203 44.053
1012.714 44.413 45.533 47.483 49.893 52.613 54.973 56.143 55.983 54.793 52.083
1032.003 47.793 42.793 37.163 31.513 26.543 22.623 19.753 17.593 16.023 14.443
1051.293 13.293 12.263 11.093 10.273 9.423 8.813 8.393 8.093 8.133 8.393
1070.583 8.473 8.563 8.853 8.873 8.383 8.303 8.513 8.393 8.663 9.173
1089.873 9.223 9.383 9.513 9.363 10.043 10.693 11.273 12.003 12.713 13.693
1109.163 14.843 16.123 17.283 18.853 20.973 23.343 25.983 28.743 32.073 36.713
1128.452 42.593 50.013 59.413 70.483 84.033 99.203 114.073 127.553 138.373 145.483
1147.742 149.193 151.103 151.153 149.083 144.293 136.643 126.073 112.583 97.213 80.513
1167.032 64.833 53.003 45.303 40.573 38.113 36.873 36.593 37.513 39.053 40.983
1186.322 42.953 45.253 47.583 49.963 52.413 54.493 57.633 60.943 64.133 68.173
1205.611 72.223 76.093 78.623 79.483 78.343 75.663 71.783 67.493 64.173 62.033
1224.901 61.823 62.863 64.463 67.193 70.353 73.993 78.993 85.153 93.033 103.393
1244.191 116.093 131.103 148.453 166.953 184.503 199.473 210.073 214.403 212.483 204.613
1263.481 191.993 177.033 161.803 147.523 134.663 123.063 111.923 102.013 94.613 90.063
1282.771 89.183 92.643 100.343 112.053 127.063 143.703 159.473 172.393 179.803 179.923
1302.060 172.283 157.223 136.833 114.083 92.163 73.423 58.943 48.623 41.433 36.483
1321.350 32.993 30.423 28.533 27.143 26.153 25.413 24.913 24.573 24.453 24.633
1340.640 24.933 25.393 26.103 26.953 27.923 28.903 29.763 30.353 30.603 30.333
1359.930 29.323 27.743 25.713 23.273 20.623 18.093 15.823 13.923 12.473 11.303
1379.219 10.443 9.833 9.353 8.973 8.683 8.563 8.503 8.423 8.423 8.353
1398.509 8.263 8.223 8.173 8.243 8.373 8.543 8.793 8.993 9.153 9.423
1417.799 9.733 10.083 10.673 11.653 13.203 15.713 19.793 25.783 33.893 42.933
1437.089 51.073 56.533 58.573 56.873 51.453 42.673 32.783 25.353 20.973 18.503
1456.378 16.983 16.013 15.293 14.573 13.933 13.203 12.443 11.713 10.983 10.253
1475.668 9.573 8.963 8.413 7.943 7.543 7.173 6.823 6.443 6.163 5.983
1494.958 5.813 5.603 5.423 5.323 5.253 5.173 5.093 5.053 5.083 5.023
1514.248 4.853 4.783 4.793 4.863 4.873 4.823 4.753 4.653 4.663 4.703
1533.538 4.733 4.703 4.713 4.743 4.853 4.923 4.963 5.003 5.063 5.233
1552.827 5.333 5.343 5.363 5.473 5.553 5.503 5.343 5.223 5.213 5.153
1572.117 4.993 4.803 4.663 4.553 4.423 4.213 4.123 4.053 3.893 3.773
1591.407 3.683 3.603 3.523 3.473 3.433 3.423 3.433 3.343 3.293 3.323
1610.697 3.353 3.413 3.403 3.373 3.443 3.453 3.403 3.373 3.373 3.343
1629.986 3.253 3.103 2.993 2.953 2.853 2.763 2.703 2.723 2.793 2.703
1649.276 2.693 2.823 2.833 2.903 3.003 2.993 3.003 3.113 3.153 3.073
1668.566 3.113 3.303 3.373 3.353 3.453 3.563 3.613 3.763 3.833 3.933
1687.856 4.143 4.283 4.413 4.623 4.883 5.093 5.443 5.883 6.313 6.903
1707.146 7.623 8.513 9.603 10.963 12.493 14.173 16.003 17.753 19.513 21.023
1726.435 21.983 22.563 23.063 23.803 25.023 26.603 28.613 31.213 34.393 38.213
1745.725 42.983 49.503 59.073 73.733 95.773 127.363 169.993 220.453 275.883 333.843
1765.015 385.853 414.353 401.233 348.473 282.173 223.493 167.453 115.993 77.303 52.743
1784.305 38.863 30.923 26.223 23.143 21.043 19.523 18.653 18.403 18.573 18.833
1803.594 19.023 18.923 18.473 17.663 16.523 15.233 13.873 12.443 11.023 9.733
1822.884 8.543 7.443 6.583 5.843 5.193 4.713 4.323 4.043 3.933 3.773
1842.174 3.633 3.563 3.463 3.353 3.263 3.133 3.023 3.053 3.133 3.183
1861.464 3.213 3.303 3.323 3.333 3.403 3.333 3.283 3.283 3.263 3.173
1880.754 3.073 3.063 3.083 3.043 3.053 3.073 2.973 2.893 2.833 2.713
1900.043 2.623 2.513 2.363 2.313 2.273 2.213 2.203 2.213 2.213 2.143
1919.333 2.083 2.013 1.923 1.923 1.943 1.963 1.943 1.983 1.993 1.943
1938.623 1.923 1.873 1.793 1.713 1.703 1.703 1.663 1.633 1.613 1.593
1957.913 1.603 1.653 1.713 1.673 1.723 1.893 1.893 1.843 1.893 1.953
1977.202 2.003 1.963 1.843 1.733 1.633 1.643 1.693 1.643 1.553 1.573
1996.492 1.533 1.523 1.583 1.573 1.643 1.763 1.793 1.853 1.913 1.903
2015.782 1.993 2.103 2.143 2.203 2.283 2.363 2.343 2.323 2.373 2.423
2035.072 2.453 2.453 2.513 2.533 2.563 2.613 2.633 2.683 2.643 2.543
2054.362 2.523 2.523 2.473 2.403 2.343 2.253 2.173 2.133 2.073 2.023
2073.651 2.023 2.063 2.073 2.083 2.153 2.223 2.233 2.243 2.263 2.353
2092.941 2.463 2.453 2.443 2.483 2.583 2.643 2.643 2.673 2.683 2.613
2112.231 2.543 2.523 2.513 2.383 2.223 2.133 2.073 2.043 1.983 1.923
2131.521 1.863 1.783 1.743 1.723 1.693 1.663 1.533 1.443 1.433 1.373
2150.810 1.333 1.2785 1.2103 1.1805 1.1492 1.1427 1.1522 1.1164 1.0573 0.9769
2170.100 0.9925 1.0138 0.9786 0.9547 0.899 0.875 0.8864 0.8912 0.8516 0.8458
2189.390 0.7721 0.708 0.7428 0.7259 0.6791 0.5903 0.5476 0.5903 0.6368 0.6739
2208.680 0.6513 0.6149 0.6257 0.618 0.6104 0.6989 0.7336 0.7724 0.8319 0.8043
2227.970 0.7396 0.7394 0.8302 0.846 0.8122 0.835 0.8114 0.7574 0.7783 0.7574
2247.259 0.7225 0.7245 0.7161 0.6596 0.647 0.7386 0.6929 0.6138 0.6268 0.6085
2266.549 0.6107 0.6719 0.6908 0.6819 0.7084 0.7061 0.704 0.7385 0.7503 0.7466
2285.839 0.7401 0.7791 0.8586 0.8393 0.8527 0.939 0.9869 0.9949 0.9905 0.9946
2305.129 1.0607 1.1301 1.0869 1.0092 0.9829 1.0006 1.031 1.0071 0.9358 0.9127
2324.418 0.8839 0.8878 0.9284 1.0244 1.067 0.9542 0.912 0.951 1.0111 1.0318
2343.708 1.051 1.1 1.026 0.9028 0.9126 0.9431 0.9381 0.8879 0.8131 0.8511
2362.998 0.837 0.8243 0.8354 0.8599 0.9158 0.9099 0.9031 0.8653 0.8293 0.7934
2382.288 0.7938 0.8185 0.7859 0.7818 0.7414 0.6976 0.7015 0.6449 0.6939 0.6967
2401.578 0.6166 0.6876 0.6866 0.6164 0.6473 0.6125 0.6663 0.7147 0.6625 0.6512
2420.867 0.6775 0.6693 0.5927 0.5882 0.6299 0.5891 0.5469 0.627 0.6925 0.7296
2440.157 0.7623 0.7623 0.7656 0.7214 0.6935 0.7297 0.6591 0.5847 0.6286 0.6413
2459.447 0.6378 0.7276 0.731 0.6733 0.6349 0.6469 0.674 0.6092 0.5608 0.5648
2478.737 0.6261 0.6633 0.7333 0.7608 0.7296 0.8311 0.8671 0.8182 0.7882 0.7611
2498.026 0.8041 0.8909 0.9316 0.9677 0.9727 0.9684 0.9585 1.015 1.02 0.9596
2517.316 0.9493 0.9995 1.0308 0.9555 0.8967 0.9016 0.955 0.9376 0.953 0.9906
2536.606 1.0027 0.9171 0.8841 0.8853 0.8758 0.8177 0.7021 0.7441 0.7386 0.6852
2555.896 0.6158 0.6215 0.6384 0.6115 0.6066 0.5739 0.5778 0.5974 0.5015 0.4807
2575.186 0.558 0.5568 0.557 0.5594 0.58 0.5444 0.5564 0.6522 0.7016 0.7143
2594.475 0.6549 0.6151 0.6353 0.6723 0.6841 0.6738 0.6814 0.6626 0.6539 0.6366
2613.765 0.6377 0.7001 0.7024 0.6689 0.6816 0.6799 0.6153 0.5772 0.5603 0.513
2633.055 0.6126 0.6497 0.5746 0.6175 0.6809 0.6633 0.6958 0.6147 0.5546 0.6713
2652.345 0.6475 0.6173 0.653 0.6038 0.5004 0.4866 0.5043 0.4938 0.503 0.5093
2671.634 0.4517 0.4583 0.5085 0.4113 0.31556 0.31116 0.31524 0.37125 0.4557 0.461
2690.924 0.405 0.33755 0.38575 0.5146 0.5191 0.5213 0.465 0.35458 0.38848 0.3774
2710.214 0.298404 0.32699 0.318 0.33346 0.31835 0.32206 0.38027 0.3801 0.32631 0.19
2729.504 0.2335 0.35342 0.31049 0.32511 0.4386 0.4416 0.39221 0.3257 0.34276 0.37422
2748.794 0.4018 0.4661 0.4895 0.4844 0.4287 0.38358 0.33991 0.4436 0.5981 0.5262
2768.083 0.4413 0.4927 0.4858 0.38614 0.38628 0.4144 0.37348 0.36629 0.3975 0.4022
2787.373 0.4349 0.4324 0.37078 0.425 0.5053 0.5569 0.6118 0.6412 0.6475 0.676
2806.663 0.7099 0.7193 0.7454 0.7686 0.757 0.9018 1.0776 1.1291 1.2091 1.2742
2825.953 1.423 1.573 1.693 1.853 2.053 2.383 2.743 3.183 3.793 4.693
2845.242 5.653 6.633 7.703 8.483 8.983 9.193 8.873 8.093 6.963 5.763
2864.532 4.793 4.053 3.493 3.033 2.733 2.623 2.553 2.593 2.723 2.893
2883.822 2.963 3.153 3.513 3.893 4.393 4.803 5.193 5.643 5.943 6.223
2903.112 6.653 6.973 7.143 7.273 7.283 7.273 7.173 7.083 6.913 6.803
2922.401 6.763 6.593 6.503 6.263 6.223 6.433 6.573 6.693 6.993 7.583
2941.691 8.333 9.243 10.583 12.613 15.513 19.733 25.703 33.753 43.503 52.813
2960.981 59.513 62.753 61.933 57.063 49.233 39.463 29.323 21.283 16.033 12.703
2980.271 10.783 9.563 8.823 8.533 8.473 8.593 8.913 9.253 9.803 10.623
2999.561 11.303 11.953 12.673 13.163 13.503 13.693 13.563 13.413 13.343 13.173
3018.850 12.953 12.973 13.283 13.513 13.713 13.893 13.883 13.643 13.103 12.483
3038.140 11.963 11.213 10.333 9.453 8.583 7.833 6.993 6.343 5.813 5.313
3057.430 4.963 4.683 4.483 4.183 3.853 3.813 3.833 3.753 3.463 3.313
3076.720 3.403 3.383 3.373 3.403 3.253 3.033 2.993 3.023 3.003 3.083
3096.009 3.053 2.903 2.893 2.903 2.873 2.733 2.613 2.533 2.393 2.303
3115.299 2.333 2.433 2.263 2.103 2.103 2.013 1.973 1.803 1.563 1.543
3134.589 1.533 1.443 1.433 1.353 1.2509 1.2708 1.1362 1.0237 1.0497 1.1178
3153.879 1.0874 0.8829 0.8486 0.8787 0.887 0.8938 0.732 0.6943 0.7873 0.7772
3173.169 0.6615 0.6436 0.6769 0.7001 0.6398 0.5403 0.6077 0.629 0.5836 0.5
3192.458 0.4662 0.5656 0.6018 0.5635 0.5457 0.6058 0.7112 0.7975 0.8051 0.7511
3211.748 0.7638 0.7177 0.6016 0.5321 0.4375 0.4211 0.4824 0.4158 0.31354 0.35304
3231.038 0.4119 0.34806 0.35598 0.4771 0.4252 0.2762 0.296704 0.2587 0.127 0.145
3250.328 0.2714 0.293908 0.2403 0.2324 0.293541 0.297769 0.148 0.096 0.079 0.033
3269.617 0.112 0.28656 0.4481 0.4374 0.35688 0.32993 0.2605 0.1 0.079 0.135
3288.907 0.183 0.2553 0.31976 0.33092 0.32314 0.4034 0.3977 0.3722 0.419 0.36697
3308.197 0.33765 0.2106 0.193 0.31298 0.158 0.021 0.171 0.35632 0.35037 0.2107
3327.487 0.145 0.184 0.2071 0.16 0.173 0.277 0.34267 0.31588 0.33752 0.38329
3346.777 0.32461 0.2417 0.2318 0.2443 0.169 0.2065 0.2628 0.2221 0.175 0.2057
3366.066 0.186 0.133 0.1989 0.173 0.043 0.075 0.1991 0.168 0.145 0.182
3385.356 0.105 0.104 0.296846 0.36769 0.28576 0.205 0.165 0.132 0.075 0.115
3404.646 0.2382 0.2244 0.029 0.061 0.18 0.2075 0.2547 0.29674 0.32968 0.34532
3423.936 0.37041 0.300403 0.2859 0.2653 0.28659 0.2826 0.2327 0.33558 0.37686 0.34971
3443.225 0.2539 0.162 0.193 0.2763 0.34645 0.31846 0.28745 0.37138 0.4196 0.3958
3462.515 0.5249 0.6271 0.7122 0.6853 0.579 0.6728 0.6796 0.6513 0.6496 0.5894
3481.805 0.6191 0.6091 0.6392 0.7601 0.7575 0.7745 0.7958 0.7962 1.0279 1.333
3501.095 1.543 1.783 2.013 2.353 2.643 3.013 3.433 3.733 3.963 4.063
3520.385 4.073 3.973 3.633 3.053 2.533 2.123 1.873 1.663 1.393 1.2862
3539.674 1.1806 0.9918 0.9742 0.9114 0.8484 0.8189 0.7861 0.847 0.779 0.6542
3558.964 0.5532 0.4205 0.4687 0.37617 0.242 0.2971 0.1974 0.2656 0.232 0.2642
3578.254 0.30804 0.2207 0.3124 0.2741 0.2399 0.31791 0.34768 0.295903 0.33518 0.35619
3597.544 0.257 0.301104 0.32365 0.2476 0.234 0.179 0.191 0.2693 0.33298 0.4664
3616.833 0.4002 0.33202 0.31188 0.2378 0.2617 0.35111 0.2758 0.188 0.2478 0.32299
3636.123 0.31591 0.145 0.032 0.099 0.186 0.092 0.13 0.2293 0.2476 0.32064
3655.413 0.299623 0.35925 0.2768 0.24 0.34807 0.2583 0.185 0.2551 0.2153 0.104
3674.703 0.2395 0.192 0.082 0.053 0.2244 0.3719 0.167 0.048 0 0.063
3693.993 0.2074 0.2542 0.30536 0.30332 0.145 0.193 0.28689 0.299954 0.2535 0.119
3713.282 0.152 0.135 0.164 0.124 0.06 0.094 0.119 0.094 0.072 0.157
3732.572 0.161 0.169 0.214 0.2155 0.34142 0.2648 0.179 0.30466 0.2165 0.2393
3751.862 0.2483 0.102 0.2298 0.34306 0.36413 0.323 0.2138 0.33105 0.33612 0.32045
3771.152 0.4272 0.38551 0.3955 0.4649 0.38347 0.29199 0.31184 0.30611 0.2997 0.35751
3790.441 0.37007 0.37945 0.4247 0.4349 0.32372 0.188 0.164 0.171 0.2246 0.2223
3809.731 0.2333 0.2269 0.166 0.297572 0.2826 0.2156 0.27 0.32934 0.2575 0.30561
3829.021 0.4221 0.36632 0.298433 0.2718 0.2401 0.2656 0.35961 0.37451 0.4326 0.4663
3848.311 0.35219 0.18 0.125 0.2571 0.2764 0.2065 0.2337 0.4238 0.442 0.332
3867.601 0.34692 0.30907 0.2553 0.3938 0.4279 0.29052 0.296721 0.3175 0.2428 0.173
3886.890 0.2001 0.2583 0.39221 0.4998 0.4343 0.2752 0.133 0.087 0.096 0.153
3906.180 0.30705 0.33453 0.300568 0.38242 0.33692 0.2284 0.294656 0.2516 0.159 0.2216
3925.470 0.37808 0.5048 0.3971 0.2101 0.396 0.5509 0.4965 0.5092 0.4895 0.5271
3944.760 0.4788 0.33976 0.2806 0.35101 0.4867 0.5421 0.5282 0.5579 0.5655 0.479
3964.049 0.5075 0.4965 0.4327 0.4138 0.32691 0.32399 0.4382 0.4602 0.4173 0.4433
3983.339 0.5991 0.6939 0.5958 0.5971 0.6293 0.6019 0.5205 0.4497 0.5406 0.5849
##END=
