##TITLE=N-Octyl-N-decyl phthalate
##JCAMP-DX=4.24
##DATA TYPE=INFRARED SPECTRUM
##ORIGIN=EPA-IR VAPOR PHASE LIBRARY
##OWNER=SRD/NIST
Collection (C) 2018 copyright by the U.S. Secretary of Commerce
on behalf of the United States of America. All rights reserved.
##CAS REGISTRY NO=119-07-3
##MOLFORM=C 26 H 42 O 4
##$NIST SOURCE=MSDC-IR
##STATE=gas
##XUNITS=1/CM
##YUNITS=ABSORBANCE
##XFACTOR=1.
##YFACTOR=0.001
##DELTAX=1.92898
##FIRSTX=549.8
##LASTX=4000.7
##FIRSTY=0.587722
##MAXX=4000.7
##MINX=549.759
##MAXY=0.0906707
##MINY=0
##NPOINTS=1790
##XYDATA=(X++(Y..Y))
549.759 0.587722 0.514222 0.377622 0.483322 0.519022 0.486622 0.836922 1.01072 0.729322 0.663422
569.049 0.773322 0.786922 0.840722 0.777322 0.637922 0.590422 0.486922 0.379022 0.469722 0.474122
588.339 0.364122 0.221722 0.016472 0.135322 0.195422 0.173922 0.306522 0.282722 0.157322 0.161722
607.628 0.136022 0.022482 0.123622 0.134322 0 0.039682 0.138822 0.231122 0.203522 0.099552
626.918 0.071752 0.096392 0.160022 0.125722 0.081502 0.099622 0.337422 0.653022 0.700322 0.722322
646.208 1.14072 1.72072 1.94072 1.90072 1.57072 1.22072 0.967022 0.816222 0.854422 0.788822
665.498 0.759422 0.733522 0.754522 0.858022 0.861122 0.980022 1.04072 1.13072 1.37072 1.58072
684.787 1.85072 2.28072 2.82072 3.36072 3.91072 4.40072 4.74072 4.97072 5.16072 5.23072
704.077 5.13072 4.99072 4.93072 4.95072 5.10072 5.35072 5.58072 5.77072 6.02072 6.44072
723.367 6.86072 7.27072 7.71072 8.15072 8.79072 9.48072 10.2307 10.9307 11.4907 11.8707
742.657 11.8107 11.2707 10.5807 9.93072 9.04072 8.09072 7.33072 6.69072 6.16072 5.69072
761.947 5.24072 4.88072 4.68072 4.55072 4.40072 4.32072 4.25072 4.19072 4.17072 4.10072
781.236 4.07072 3.95072 3.83072 3.69072 3.45072 3.21072 3.04072 2.83072 2.58072 2.47072
800.526 2.46072 2.36072 2.18072 2.11072 2.01072 2.06072 2.12072 1.99072 1.95072 1.97072
819.816 2.06072 2.11072 2.09072 2.03072 2.00072 2.05072 2.00072 1.89072 1.89072 1.95072
839.106 1.98072 1.95072 1.90072 1.83072 1.77072 1.83072 1.92072 1.99072 2.00072 2.02072
858.395 2.10072 2.10072 2.04072 2.03072 2.06072 2.03072 2.03072 2.07072 2.04072 2.05072
877.685 2.08072 2.04072 1.98072 2.02072 2.09072 2.08072 2.06072 1.96072 1.92072 1.98072
896.975 1.99072 2.00072 1.97072 1.96072 1.98072 1.97072 1.95072 1.99072 2.01072 2.01072
916.265 2.03072 2.03072 2.11072 2.18072 2.22072 2.32072 2.41072 2.44072 2.52072 2.64072
935.555 2.71072 2.87072 3.14072 3.34072 3.51072 3.81072 4.13072 4.38072 4.76072 5.05072
954.844 5.13072 5.30072 5.39072 5.33072 5.23072 5.04072 4.96072 5.00072 4.87072 4.64072
974.134 4.56072 4.43072 4.15072 3.95072 3.75072 3.53072 3.56072 3.56072 3.38072 3.33072
993.424 3.18072 3.06072 3.01072 2.94072 2.94072 2.93072 3.03072 3.07072 3.13072 3.18072
1012.714 3.19072 3.23072 3.43072 3.63072 3.87072 4.27072 4.66072 5.18072 5.80072 6.53072
1032.003 7.71072 9.31072 10.9807 12.6307 13.6407 13.6907 13.0807 12.4007 12.1507 12.1607
1051.293 12.8107 13.9207 15.4107 17.5907 20.2407 23.1607 26.2707 29.7107 32.4507 33.7807
1070.583 33.9007 32.7107 30.1307 26.8507 23.6507 20.3607 17.3907 15.3407 13.8407 12.5707
1089.873 11.8907 11.8207 11.7807 11.9307 12.5707 13.6007 15.4207 17.5207 20.0707 23.6207
1109.163 27.7207 32.6507 38.2607 44.1207 49.5407 53.6207 55.7707 55.9707 54.9307 52.6807
1128.452 49.9107 47.4707 44.9507 41.8207 38.0507 33.7307 28.9907 24.1407 19.7107 16.2107
1147.742 13.6007 11.7107 10.2107 8.83072 7.90072 7.22072 6.81072 6.68072 6.20072 5.76072
1167.032 5.57072 5.27072 4.89072 4.59072 4.52072 4.61072 4.48072 4.43072 4.50072 4.42072
1186.322 4.50072 4.56072 4.51072 4.53072 4.73072 4.92072 4.97072 5.10072 5.26072 5.40072
1205.611 5.52072 5.85072 6.19072 6.61072 7.13072 7.56072 8.15072 8.82072 9.59072 10.3707
1224.901 11.3307 12.6607 14.1207 15.9407 18.0707 20.4807 23.4607 26.7007 30.1507 33.6707
1244.191 37.2907 41.2807 45.3307 49.3407 53.2807 57.2207 61.3207 65.5707 70.1507 75.1007
1263.481 79.9807 84.3707 87.5007 89.1007 89.2707 88.2107 86.7207 85.1607 83.4407 81.3407
1282.771 78.6007 75.0507 70.4107 64.7907 58.4407 51.8607 45.7207 40.1007 35.0007 30.6607
1302.060 27.0507 23.9607 21.3607 19.2007 17.3507 15.7607 14.4607 13.4107 12.4407 11.6207
1321.350 10.9607 10.4007 9.91072 9.41072 8.84072 8.32072 7.82072 7.36072 7.02072 6.76072
1340.640 6.51072 6.36072 6.26072 6.10072 6.03072 6.00072 5.98072 5.94072 5.81072 5.70072
1359.930 5.58072 5.46072 5.33072 5.25072 5.23072 5.25072 5.36072 5.52072 5.80072 6.24072
1379.219 6.74072 7.26072 7.61072 7.71072 7.50072 7.00072 6.37072 5.75072 5.15072 4.61072
1398.509 4.17072 3.82072 3.55072 3.38072 3.26072 3.11072 3.04072 3.02072 2.97072 2.95072
1417.799 3.00072 3.06072 3.10072 3.19072 3.36072 3.58072 3.81072 4.14072 4.58072 5.09072
1437.089 5.66072 6.26072 6.85072 7.50072 8.22072 8.87072 9.38072 9.75072 10.0807 10.4807
1456.378 10.9607 11.3907 11.6807 11.8307 11.8607 11.7107 11.3807 10.8807 10.1407 9.25072
1475.668 8.34072 7.50072 6.76072 6.16072 5.70072 5.32072 4.98072 4.60072 4.17072 3.73072
1494.958 3.41072 3.17072 2.88072 2.65072 2.49072 2.37072 2.29072 2.18072 2.07072 2.00072
1514.248 1.97072 1.94072 1.88072 1.86072 1.83072 1.79072 1.72072 1.62072 1.60072 1.59072
1533.538 1.59072 1.56072 1.52072 1.49072 1.51072 1.50072 1.45072 1.45072 1.46072 1.46072
1552.827 1.44072 1.48072 1.57072 1.66072 1.73072 1.78072 1.90072 2.03072 2.25072 2.55072
1572.117 2.85072 3.22072 3.60072 3.77072 3.73072 3.51072 3.15072 2.82072 2.66072 2.57072
1591.407 2.51072 2.53072 2.72072 2.96072 3.11072 3.14072 2.96072 2.64072 2.35072 2.10072
1610.697 1.96072 1.84072 1.71072 1.65072 1.64072 1.62072 1.59072 1.52072 1.47072 1.47072
1629.986 1.50072 1.53072 1.53072 1.45072 1.42072 1.51072 1.55072 1.48072 1.49072 1.52072
1649.276 1.50072 1.54072 1.64072 1.67072 1.68072 1.69072 1.75072 1.79072 1.85072 1.99072
1668.566 2.08072 2.15072 2.25072 2.31072 2.33072 2.44072 2.54072 2.65072 2.80072 2.93072
1687.856 3.14072 3.41072 3.63072 3.90072 4.26072 4.65072 5.07072 5.53072 5.90072 6.37072
1707.146 6.86072 7.34072 8.08072 8.98072 10.0307 11.3307 12.9007 14.6907 16.9407 19.6607
1726.435 22.9407 26.9607 31.9607 38.0507 45.7607 54.9007 64.5207 74.5307 82.8207 87.7907
1745.725 88.2107 84.0607 76.2807 66.2407 55.7607 46.2807 37.9807 31.3507 26.0307 21.8107
1765.015 18.4707 15.7407 13.4907 11.7207 10.2007 8.98072 7.98072 7.14072 6.42072 5.81072
1784.305 5.25072 4.77072 4.39072 4.02072 3.70072 3.46072 3.23072 3.03072 2.88072 2.76072
1803.594 2.58072 2.43072 2.33072 2.23072 2.14072 2.04072 1.98072 1.96072 1.91072 1.86072
1822.884 1.83072 1.82072 1.80072 1.79072 1.77072 1.71072 1.64072 1.56072 1.46072 1.41072
1842.174 1.33072 1.24072 1.22072 1.23072 1.22072 1.17072 1.18072 1.19072 1.14072 1.15072
1861.464 1.16072 1.09072 1.06072 1.04072 0.965022 0.927722 0.901722 0.833922 0.801822 0.788022
1880.754 0.754322 0.721022 0.755422 0.822422 0.811122 0.751922 0.737422 0.740222 0.707822 0.743122
1900.043 0.786622 0.782222 0.839122 0.875722 0.852622 0.842022 0.854322 0.840422 0.785922 0.780822
1919.333 0.808822 0.845822 0.896522 0.954122 1.02072 1.09072 1.16072 1.18072 1.20072 1.16072
1938.623 1.12072 1.08072 0.959022 0.893422 0.861422 0.785222 0.760422 0.776922 0.849222 0.919722
1957.913 0.943922 0.994422 1.00072 0.997422 0.952322 0.864122 0.792622 0.727522 0.667822 0.649522
1977.202 0.655122 0.630122 0.580122 0.557322 0.569322 0.563722 0.541822 0.531722 0.508922 0.526622
1996.492 0.563122 0.545322 0.532522 0.510622 0.528622 0.558522 0.573222 0.603222 0.588522 0.603122
2015.782 0.602322 0.609422 0.630422 0.579722 0.594922 0.602122 0.548022 0.559022 0.604922 0.583122
2035.072 0.571222 0.597222 0.600022 0.623322 0.604022 0.543122 0.548522 0.589122 0.596422 0.611122
2054.362 0.598322 0.597922 0.609522 0.632922 0.646022 0.614622 0.636022 0.640422 0.596422 0.629722
2073.651 0.725322 0.745922 0.724822 0.708622 0.703322 0.718622 0.769422 0.774522 0.704022 0.687422
2092.941 0.698222 0.691022 0.683922 0.672522 0.664422 0.650622 0.666222 0.683422 0.664322 0.651922
2112.231 0.625822 0.603222 0.606422 0.624022 0.634422 0.602022 0.581922 0.564522 0.589322 0.628222
2131.521 0.575122 0.562522 0.597722 0.575522 0.569622 0.569822 0.556622 0.559322 0.557522 0.559122
2150.810 0.538022 0.490522 0.498522 0.502222 0.476322 0.491722 0.519622 0.510222 0.467422 0.432522
2170.100 0.444922 0.442922 0.438222 0.532522 0.566922 0.516222 0.533722 0.547222 0.525822 0.519122
2189.390 0.538122 0.561322 0.528622 0.498922 0.466822 0.445422 0.478222 0.508422 0.519322 0.548122
2208.680 0.551522 0.517022 0.482422 0.471022 0.481022 0.469722 0.480222 0.507022 0.513122 0.494422
2227.970 0.497522 0.509822 0.485122 0.498522 0.509922 0.515822 0.537622 0.564022 0.546322 0.478522
2247.259 0.476822 0.494022 0.490722 0.486122 0.488822 0.487322 0.506722 0.515522 0.511522 0.493322
2266.549 0.444522 0.446822 0.464822 0.459022 0.449622 0.405922 0.366222 0.365022 0.385322 0.439122
2285.839 0.492322 0.458822 0.471922 0.483122 0.421822 0.456122 0.496722 0.481222 0.460822 0.452422
2305.129 0.494622 0.525022 0.506622 0.495922 0.504722 0.547822 0.560422 0.583122 0.619322 0.649022
2324.418 0.689622 0.726322 0.700822 0.637122 0.637022 0.644922 0.626522 0.568922 0.559522 0.576122
2343.708 0.546322 0.572622 0.599622 0.560922 0.508522 0.486422 0.519222 0.532922 0.538722 0.571022
2362.998 0.570022 0.519822 0.507922 0.548122 0.561022 0.546722 0.521522 0.515022 0.534222 0.521422
2382.288 0.499522 0.516722 0.544222 0.523622 0.489622 0.513022 0.517222 0.519422 0.534622 0.521222
2401.578 0.514322 0.543622 0.553122 0.532522 0.527622 0.540722 0.462522 0.392822 0.438422 0.462822
2420.867 0.468522 0.488622 0.471322 0.463722 0.463322 0.409822 0.409922 0.410022 0.406422 0.408322
2440.157 0.388922 0.361822 0.368822 0.398622 0.400222 0.398822 0.359722 0.308722 0.322222 0.356422
2459.447 0.368622 0.384822 0.399622 0.367722 0.345422 0.370622 0.398922 0.372722 0.290522 0.277522
2478.737 0.306822 0.301222 0.304022 0.355722 0.406122 0.415522 0.412822 0.405822 0.409122 0.438322
2498.026 0.390222 0.338222 0.378322 0.441022 0.435722 0.389522 0.415222 0.477822 0.497422 0.494622
2517.316 0.513422 0.492622 0.496422 0.532922 0.543222 0.562022 0.591022 0.567822 0.545722 0.569322
2536.606 0.584722 0.557922 0.543622 0.594922 0.598822 0.602222 0.629022 0.624822 0.618622 0.592722
2555.896 0.571022 0.547122 0.539122 0.591522 0.631022 0.622822 0.640122 0.618722 0.611222 0.612522
2575.186 0.549422 0.585922 0.644522 0.633922 0.636022 0.648022 0.658222 0.676622 0.642022 0.625622
2594.475 0.642222 0.634322 0.613522 0.671822 0.706522 0.688022 0.727722 0.728822 0.720022 0.694222
2613.765 0.720822 0.723922 0.698622 0.709722 0.726922 0.771722 0.782822 0.772222 0.786922 0.818122
2633.055 0.790322 0.783222 0.815722 0.879822 0.904522 0.846322 0.861322 0.909122 0.907422 0.959422
2652.345 0.988822 0.951422 1.00072 0.969622 0.931622 0.990822 1.03072 1.07072 1.03072 1.03072
2671.634 1.09072 1.15072 1.13072 1.12072 1.14072 1.07072 1.04072 1.09072 1.11072 1.09072
2690.924 1.12072 1.16072 1.20072 1.20072 1.18072 1.18072 1.21072 1.20072 1.21072 1.20072
2710.214 1.11072 1.10072 1.15072 1.10072 1.04072 1.09072 1.12072 1.08072 1.10072 1.17072
2729.504 1.23072 1.28072 1.31072 1.33072 1.33072 1.37072 1.39072 1.44072 1.52072 1.53072
2748.794 1.54072 1.55072 1.57072 1.55072 1.51072 1.52072 1.53072 1.57072 1.59072 1.59072
2768.083 1.55072 1.58072 1.66072 1.67072 1.67072 1.77072 1.80072 1.86072 1.97072 2.02072
2787.373 2.04072 2.11072 2.20072 2.26072 2.36072 2.47072 2.52072 2.56072 2.72072 2.88072
2806.663 2.95072 3.05072 3.13072 3.25072 3.47072 3.73072 3.97072 4.17072 4.38072 4.63072
2825.953 4.87072 5.20072 5.57072 5.97072 6.44072 7.00072 7.63072 8.25072 9.04072 10.1407
2845.242 11.4907 13.0907 15.0207 17.4507 20.3107 23.4707 26.9007 30.2007 32.8607 34.5207
2864.532 35.1207 34.8707 33.8407 32.2407 30.4707 28.8007 27.4207 26.4507 25.6407 25.0107
2883.822 24.5707 24.0107 23.3707 22.9507 22.8507 23.0307 23.4907 24.3707 25.7007 27.2207
2903.112 28.9507 30.9807 33.3107 35.8407 38.5507 41.5407 44.8407 48.5807 52.8407 57.6907
2922.401 63.2607 69.4607 75.9007 81.9507 86.8907 89.9207 90.6707 89.3807 86.3607 82.1107
2941.691 77.1307 71.7907 66.3207 61.0807 56.6007 53.1207 50.6407 49.1807 48.4607 48.3407
2960.981 48.5607 48.5207 48.1207 47.0407 44.9607 41.9307 38.0707 33.7007 29.4907 25.8907
2980.271 22.9207 20.4807 18.3807 16.5307 14.8807 13.4207 12.1407 10.9607 9.82072 8.80072
2999.561 8.04072 7.35072 6.68072 6.22072 5.82072 5.44072 5.14072 4.78072 4.48072 4.20072
3018.850 4.05072 3.93072 3.82072 3.74072 3.63072 3.51072 3.45072 3.48072 3.40072 3.29072
3038.140 3.26072 3.20072 3.04072 2.82072 2.74072 2.73072 2.67072 2.67072 2.71072 2.78072
3057.430 2.85072 2.91072 3.06072 3.32072 3.60072 3.97072 4.46072 4.99072 5.49072 5.93072
3076.720 6.22072 6.20072 5.86072 5.22072 4.35072 3.49072 2.86072 2.48072 2.16072 1.93072
3096.009 1.84072 1.82072 1.74072 1.70072 1.65072 1.49072 1.43072 1.41072 1.33072 1.24072
3115.299 1.14072 1.05072 1.03072 1.02072 0.995722 1.00072 1.07072 0.993622 0.901622 0.905822
3134.589 0.875222 0.836822 0.925922 1.05072 0.986222 0.922122 0.977622 0.922122 0.909022 0.928922
3153.879 0.813022 0.796822 0.811422 0.849622 0.843022 0.759122 0.616922 0.601922 0.651822 0.714822
3173.169 0.769122 0.673622 0.628522 0.661422 0.614422 0.674922 0.787722 0.684122 0.603622 0.578222
3192.458 0.567122 0.547822 0.577622 0.573622 0.488722 0.526522 0.657322 0.690422 0.606622 0.518022
3211.748 0.471122 0.401322 0.385722 0.423022 0.425622 0.392122 0.374222 0.413022 0.432822 0.391422
3231.038 0.423122 0.381922 0.326722 0.347522 0.314622 0.327522 0.337922 0.347122 0.385822 0.389322
3250.328 0.425622 0.460822 0.370922 0.329222 0.378122 0.434722 0.405722 0.282722 0.167322 0.216522
3269.617 0.248822 0.246422 0.345622 0.344422 0.332422 0.296522 0.268022 0.245222 0.151122 0.213322
3288.907 0.290222 0.266022 0.236222 0.260422 0.260022 0.262222 0.347022 0.315522 0.250622 0.312322
3308.197 0.391822 0.311322 0.184722 0.267322 0.352222 0.389622 0.329122 0.205122 0.263822 0.292822
3327.487 0.276522 0.219822 0.229122 0.285822 0.361622 0.414422 0.348122 0.339522 0.386622 0.321322
3346.777 0.253122 0.236722 0.237222 0.286322 0.271822 0.322622 0.280922 0.178622 0.244022 0.312122
3366.066 0.344722 0.253022 0.205522 0.307222 0.287822 0.308122 0.423222 0.365822 0.290022 0.267622
3385.356 0.284622 0.386722 0.393522 0.312222 0.298622 0.218322 0.195522 0.316422 0.285822 0.279822
3404.646 0.242622 0.185222 0.212622 0.183422 0.326322 0.417122 0.305922 0.325322 0.375222 0.366422
3423.936 0.330422 0.360522 0.375822 0.401522 0.443322 0.338722 0.261922 0.312422 0.355922 0.380922
3443.225 0.479222 0.501022 0.535422 0.632622 0.668322 0.642222 0.692322 0.744222 0.753922 0.881322
3462.515 0.880622 0.819722 0.819622 0.740022 0.785822 0.954822 0.887522 0.801322 0.856422 0.904322
3481.805 0.941422 0.920122 0.869222 0.775222 0.633522 0.528822 0.645622 0.783422 0.727822 0.708022
3501.095 0.685022 0.582622 0.494522 0.442222 0.453022 0.435522 0.483222 0.459522 0.385222 0.388222
3520.385 0.381222 0.324922 0.257622 0.252922 0.255322 0.214122 0.195422 0.259822 0.182222 0.145422
3539.674 0.242022 0.317622 0.449622 0.395022 0.252522 0.260322 0.262122 0.207122 0.156222 0.219522
3558.964 0.238722 0.201122 0.210122 0.183922 0.226522 0.304722 0.277822 0.222822 0.178322 0.133022
3578.254 0.117622 0.072722 0.133922 0.219322 0.244622 0.282322 0.253722 0.238322 0.232522 0.260422
3597.544 0.241922 0.138722 0.117522 0.283322 0.279122 0.220322 0.266622 0.255222 0.255322 0.251022
3616.833 0.272922 0.285922 0.334722 0.358622 0.310722 0.216922 0.231522 0.296622 0.270422 0.220922
3636.123 0.236022 0.250222 0.229422 0.219222 0.177322 0.242622 0.342122 0.306422 0.234322 0.227322
3655.413 0.274822 0.309522 0.237322 0.292222 0.482522 0.384622 0.179222 0.237822 0.285322 0.137922
3674.703 0.212622 0.366922 0.311822 0.336022 0.359922 0.316222 0.258322 0.341422 0.392522 0.321322
3693.993 0.323422 0.283522 0.206722 0.264822 0.414222 0.364822 0.329222 0.219422 0.281222 0.429922
3713.282 0.328522 0.339222 0.310622 0.298522 0.282022 0.300122 0.279022 0.204622 0.227222 0.385922
3732.572 0.513322 0.415122 0.365122 0.390422 0.315822 0.253222 0.335622 0.289922 0.280422 0.313522
3751.862 0.288622 0.341822 0.335922 0.344022 0.349922 0.353422 0.387522 0.423322 0.411022 0.350422
3771.152 0.377522 0.416422 0.480022 0.525822 0.515822 0.503422 0.310022 0.150722 0.189722 0.210722
3790.441 0.313622 0.360722 0.276022 0.350722 0.379622 0.370422 0.433022 0.369522 0.387422 0.487622
3809.731 0.421322 0.347822 0.349922 0.388522 0.362122 0.321522 0.373522 0.409322 0.426222 0.360422
3829.021 0.339722 0.395122 0.369222 0.340222 0.324822 0.342222 0.332922 0.309522 0.298022 0.311122
3848.311 0.365622 0.374522 0.390922 0.306622 0.289222 0.305422 0.260822 0.228822 0.237722 0.337222
3867.601 0.352122 0.445522 0.389322 0.289722 0.373122 0.396222 0.352722 0.426722 0.461522 0.414122
3886.890 0.451622 0.430222 0.481422 0.476922 0.385722 0.394022 0.395222 0.333822 0.406522 0.496722
3906.180 0.379622 0.340122 0.390922 0.427522 0.427922 0.265022 0.236022 0.374922 0.373222 0.428422
3925.470 0.496922 0.519722 0.455322 0.298222 0.296022 0.341822 0.367622 0.511822 0.582322 0.492222
3944.760 0.366522 0.406022 0.484522 0.360922 0.372422 0.434422 0.397422 0.454222 0.490322 0.515122
3964.049 0.557422 0.478922 0.385522 0.482522 0.507122 0.360522 0.414522 0.473722 0.348922 0.352322
3983.339 0.421922 0.463322 0.542822 0.466222 0.425122 0.428322 0.437222 0.546222 0.529622 0.571422
##END=
