##TITLE=2,2'-Methylenebis(6-t-butyl-4-methylphenol)
##JCAMP-DX=4.24
##DATA TYPE=INFRARED SPECTRUM
##ORIGIN=EPA-IR VAPOR PHASE LIBRARY
##OWNER=SRD/NIST
Collection (C) 2018 copyright by the U.S. Secretary of Commerce
on behalf of the United States of America. All rights reserved.
##CAS REGISTRY NO=119-47-1
##MOLFORM=C 23 H 32 O 2
##$NIST SOURCE=MSDC-IR
##STATE=gas
##XUNITS=1/CM
##YUNITS=ABSORBANCE
##XFACTOR=1.
##YFACTOR=0.001
##DELTAX=1.92898
##FIRSTX=549.8
##LASTX=4000.7
##FIRSTY=4.79
##MAXX=4000.7
##MINX=549.759
##MAXY=0.10592
##MINY=0.0002972
##NPOINTS=1790
##XYDATA=(X++(Y..Y))
549.759 4.79 4.64 4.78 4.82 4.72 4.33 4.02 4.02 4.2 4.47
569.049 4.41 4.53 4.95 5.21 5.13 5.16 5.12 5.17 5.45 5.43
588.339 5.2 4.99 4.78 4.8 4.99 4.99 4.75 4.74 4.94 5.27
607.628 5.81 6.25 6.5 6.4 6.15 5.61 4.92 4.41 4.09 3.86
626.918 3.61 3.59 3.49 3.28 3.14 2.9 2.89 3.11 3.06 3.05
646.208 3.06 2.89 2.85 2.89 2.95 3.01 2.96 3.03 3.01 3.14
665.498 3.29 3.16 3.14 3.24 3.41 3.55 3.77 3.9 3.74 3.7
684.787 3.68 3.48 3.29 3.09 2.94 2.78 2.62 2.74 2.78 2.82
704.077 2.8 2.62 2.62 2.45 2.5 2.61 2.6 2.77 2.72 2.64
723.367 2.72 2.85 2.76 2.74 2.94 3.01 3.18 3.45 3.67 4.15
742.657 4.83 5.45 6.21 7.31 8.43 9.48 10.78 12.34 13.68 14.88
761.947 15.74 15.55 14.58 13.2 11.39 9.6 8.27 7.14 6.25 5.7
781.236 5.29 5.14 5.34 5.62 6.13 6.61 6.9 6.8 6.42 6.08
800.526 5.33 4.34 3.81 3.52 3.12 2.93 2.71 2.38 2.2 2.12
819.816 1.98 2 2.06 2.26 2.26 2.21 2.27 2.46 2.7 2.79
839.106 3.18 3.69 4.41 5.65 7.32 9.85 13.53 17.42 20.56 22.1
858.395 21.52 18.95 15.45 12.06 9.18 7.08 5.64 4.83 4.46 4.29
877.685 4.36 4.55 4.84 5.11 5.34 5.47 5.36 5.5 5.66 5.76
896.975 5.99 6.07 5.96 5.78 5.54 5.29 5.25 5.1 4.93 4.72
916.265 4.57 4.5 4.53 4.99 5.32 5.4 5.45 5.38 5.08 4.7
935.555 4.29 3.92 3.77 3.64 3.61 3.49 3.31 3.42 3.57 3.69
954.844 3.77 3.91 4.01 4.07 4.02 3.76 3.82 4.07 3.93 3.58
974.134 3.53 3.64 3.51 3.32 3.28 3.39 3.36 3.39 3.7 3.83
993.424 3.86 4.07 4.35 4.52 4.56 4.66 4.97 5.06 4.78 4.5
1012.714 4.38 4.37 4.31 4.12 4.16 4.15 4.05 3.99 3.79 3.63
1032.003 3.63 3.47 3.07 3.11 3.2 3.15 3.31 3.18 3.19 3.33
1051.293 3.27 2.97 2.9 3.12 3.04 2.74 2.51 2.4 2.62 2.87
1070.583 2.59 2.22 2.37 2.69 2.6 2.52 2.64 2.47 2.34 2.64
1089.873 2.77 3 3.3 3.29 3.24 3.05 2.84 3.34 4.17 4.78
1109.163 5.17 5.69 6.12 6.75 7.51 8.23 9.32 9.8 10.11 10.88
1128.452 11.7 12.21 12.46 12.88 13.36 13.85 13.98 14.08 14.39 14.6
1147.742 14.6 14.9 15.61 16.73 18.48 19.99 21.61 23.71 26.02 28.54
1167.032 31.4 34.41 37.48 40.81 44 46.51 48.49 49.79 49.92 48.94
1186.322 47.12 44.33 41.35 38.59 35.84 33.51 31.48 29.91 28.51 27.63
1205.611 27.4 27.91 28.88 30.23 32.18 34.48 36.91 39.03 40.65 41.6
1224.901 41.95 41.53 40.68 39.79 38.58 37.8 37.03 35.43 34.06 32.82
1244.191 30.98 29.07 27.41 25.74 23.98 22.21 20.32 18.55 17.11 16.06
1263.481 15.31 14.58 14.36 14.46 14.82 15.41 15.76 16.13 16.62 16.96
1282.771 17.34 17.5 17.22 16.84 16.27 15.53 14.95 14.61 14.48 14.65
1302.060 15 15.4 15.82 16.11 16.28 16.43 16.51 16.47 16.45 16.35
1321.350 16.01 15.38 14.4 13.21 12.03 10.92 9.96 9.25 8.74 8.3
1340.640 7.98 7.76 7.61 7.64 7.8 8.14 8.69 9.48 10.71 12.45
1359.930 14.94 18.1 21.3 23.63 24.22 22.88 20.22 17.25 14.68 12.83
1379.219 11.71 11.13 11.01 11.29 11.92 12.97 14.47 16.24 17.8 18.62
1398.509 18.45 17.45 16.04 14.77 14.05 13.92 14.22 14.86 15.81 16.97
1417.799 18.36 20.06 22.01 24.13 26.29 28.42 30.36 32.13 33.89 35.65
1437.089 37.6 39.83 42.33 45.05 47.93 50.67 52.89 54.3 54.85 54.78
1456.378 54.41 54.09 54.04 54.18 54.37 54.65 54.85 54.49 53.35 51.08
1475.668 47.66 43.48 39.18 35.15 31.46 27.95 24.45 21.05 17.78 14.94
1494.958 12.81 11.11 9.78 8.8 8.08 7.48 6.97 6.57 6.28 6
1514.248 5.79 5.57 5.35 5.16 4.92 4.73 4.57 4.38 4.21 3.98
1533.538 3.82 3.73 3.59 3.43 3.32 3.25 3.19 3.1 3.04 2.97
1552.827 2.84 2.83 2.84 2.76 2.74 2.73 2.75 2.77 2.76 2.79
1572.117 2.81 2.8 2.88 2.95 3.05 3.16 3.31 3.51 3.62 3.76
1591.407 3.99 4.22 4.4 4.51 4.65 4.74 4.67 4.45 4.21 3.88
1610.697 3.5 3.21 2.91 2.64 2.4 2.26 2.14 2.01 1.91 1.77
1629.986 1.67 1.61 1.59 1.55 1.48 1.47 1.47 1.39 1.35 1.33
1649.276 1.27 1.24 1.24 1.24 1.21 1.14 1.12 1.1 1.07 1.07
1668.566 1.09 1.16 1.13 1.08 1.08 1.06 1.09 1.11 1.13 1.09
1687.856 1.04 1.07 1.09 1.1 1.1 1.09 1.1 1.1 1.16 1.27
1707.146 1.35 1.34 1.3 1.35 1.38 1.41 1.53 1.67 1.78 1.89
1726.435 2.06 2.25 2.55 2.86 3.11 3.39 3.6 3.71 3.82 3.81
1745.725 3.62 3.35 3.1 2.86 2.58 2.39 2.28 2.16 2.08 2.01
1765.015 1.96 1.93 1.89 1.81 1.75 1.72 1.64 1.56 1.56 1.47
1784.305 1.3 1.28 1.28 1.2 1.15 1.17 1.12 1.03 1.01 0.978
1803.594 0.9724 0.9834 0.9397 0.8433 0.8212 0.8505 0.7811 0.7607 0.7562 0.7223
1822.884 0.7144 0.6711 0.631 0.6224 0.5567 0.4943 0.5211 0.5593 0.583 0.5626
1842.174 0.5487 0.5433 0.5752 0.6084 0.5656 0.5325 0.5335 0.5273 0.5091 0.49
1861.464 0.4702 0.5104 0.5394 0.4936 0.5116 0.5532 0.4962 0.478 0.5074 0.4883
1880.754 0.5225 0.5794 0.6023 0.6242 0.6092 0.6366 0.7109 0.7103 0.6732 0.6601
1900.043 0.673 0.6742 0.666 0.6636 0.6847 0.7085 0.6972 0.677 0.6749 0.7244
1919.333 0.7844 0.7573 0.7229 0.7459 0.723 0.7218 0.7562 0.7818 0.8325 0.793
1938.623 0.7285 0.7124 0.6982 0.7142 0.6811 0.6423 0.6334 0.6593 0.6821 0.7199
1957.913 0.7263 0.6763 0.6562 0.666 0.6693 0.6254 0.6429 0.692 0.6551 0.5815
1977.202 0.5718 0.5878 0.584 0.6319 0.6415 0.5713 0.6153 0.5998 0.5811 0.617
1996.492 0.6033 0.608 0.5662 0.5283 0.5286 0.5042 0.5037 0.4973 0.5106 0.5496
2015.782 0.5103 0.5016 0.5211 0.5138 0.5291 0.545 0.5099 0.5254 0.5456 0.4951
2035.072 0.4698 0.4679 0.4917 0.4624 0.4027 0.3995 0.3719 0.4011 0.4369 0.4241
2054.362 0.4573 0.4069 0.3449 0.3802 0.3689 0.3052 0.3256 0.3909 0.3709 0.3232
2073.651 0.3189 0.3381 0.3511 0.3705 0.3543 0.3419 0.3414 0.3336 0.3295 0.3348
2092.941 0.3337 0.3022 0.2972 0.3165 0.3543 0.3733 0.3616 0.3603 0.39 0.3923
2112.231 0.3826 0.4184 0.388 0.3859 0.4146 0.3551 0.3385 0.3818 0.4157 0.4398
2131.521 0.4459 0.3918 0.3668 0.3746 0.3942 0.3866 0.3891 0.4602 0.4424 0.433
2150.810 0.4695 0.4846 0.502 0.4713 0.5009 0.5453 0.4899 0.4683 0.5058 0.4743
2170.100 0.4081 0.438 0.4505 0.4358 0.4297 0.385 0.3594 0.3709 0.4108 0.4442
2189.390 0.4663 0.4465 0.4213 0.425 0.4593 0.4243 0.3772 0.46 0.4591 0.439
2208.680 0.4546 0.4624 0.4822 0.4017 0.3904 0.4413 0.4485 0.4738 0.4867 0.4662
2227.970 0.4389 0.463 0.4952 0.5361 0.4981 0.4224 0.4225 0.4234 0.5205 0.5731
2247.259 0.4504 0.4104 0.4857 0.4729 0.4153 0.4021 0.4084 0.4587 0.5123 0.489
2266.549 0.4632 0.474 0.4637 0.4941 0.5136 0.4998 0.5327 0.5322 0.4907 0.5258
2285.839 0.6034 0.5878 0.5823 0.5941 0.5983 0.5724 0.5587 0.5341 0.5109 0.4767
2305.129 0.4218 0.4525 0.5092 0.4929 0.4968 0.5178 0.5253 0.5771 0.5511 0.5652
2324.418 0.581 0.5475 0.5415 0.5929 0.6789 0.7111 0.7162 0.7398 0.7506 0.772
2343.708 0.8206 0.9083 0.8739 0.8292 0.891 0.8747 0.891 0.9397 0.9445 0.9085
2362.998 0.9359 0.9716 0.972 1.01 1.01 1.05 1.08 1.02 1 1.02
2382.288 1.04 1.1 1.11 1.1 1.12 1.15 1.11 1 0.9947 1.06
2401.578 1.06 1.03 1.04 1.07 1.07 1.08 1.11 1.07 1.03 1.03
2420.867 1.02 1.06 1.09 1.14 1.11 1.1 1.18 1.13 1.08 1.13
2440.157 1.19 1.18 1.16 1.14 1.08 1.1 1.16 1.2 1.19 1.17
2459.447 1.16 1.17 1.15 1.18 1.2 1.15 1.17 1.19 1.2 1.17
2478.737 1.18 1.25 1.25 1.24 1.23 1.27 1.28 1.28 1.3 1.3
2498.026 1.34 1.32 1.25 1.26 1.19 1.17 1.24 1.18 1.09 1.05
2517.316 1.05 1.08 1.04 0.9476 0.9373 0.9638 0.9567 0.9335 0.9357 0.9942
2536.606 0.9757 0.8785 0.9491 1.02 0.9405 0.9331 1.01 0.9941 0.9419 1.04
2555.896 1.11 1.09 1.08 1.03 1.03 1.09 1.04 1.02 1.06 1.06
2575.186 0.9662 0.9642 1.03 1.04 1.07 1.02 1.02 1.02 1 0.981
2594.475 0.9753 0.9749 0.9832 1.03 0.9962 1 0.9514 0.928 1.03 1
2613.765 1.01 1.03 1.08 1.13 1.11 1.13 1.16 1.21 1.17 1.17
2633.055 1.24 1.31 1.4 1.41 1.33 1.25 1.26 1.28 1.3 1.41
2652.345 1.42 1.32 1.23 1.17 1.24 1.35 1.4 1.38 1.32 1.25
2671.634 1.14 1.11 1.22 1.22 1.14 1.2 1.32 1.32 1.32 1.32
2690.924 1.3 1.29 1.3 1.32 1.28 1.34 1.38 1.41 1.58 1.66
2710.214 1.67 1.81 1.95 1.96 2.01 2.19 2.23 2.21 2.26 2.3
2729.504 2.38 2.48 2.57 2.69 2.79 2.94 3.09 3.11 3.13 3.04
2748.794 2.89 2.77 2.59 2.48 2.42 2.3 2.27 2.27 2.27 2.31
2768.083 2.26 2.23 2.23 2.22 2.25 2.38 2.58 2.7 2.78 2.86
2787.373 2.89 2.88 2.85 2.86 2.91 2.89 2.92 3.04 3.12 3.22
2806.663 3.39 3.61 3.84 3.99 4.08 4.31 4.52 4.67 4.85 5.12
2825.953 5.48 5.75 6.06 6.43 6.86 7.39 7.82 8.29 8.83 9.28
2845.242 9.8 10.44 11.22 12.21 13.26 14.53 16.16 18.1 20.43 23.1
2864.532 26.16 29.66 33.39 37.04 40.35 42.94 44.73 45.78 46.17 45.96
2883.822 45.11 43.95 42.84 41.92 41.28 40.82 40.85 41.44 42.28 43.51
2903.112 45.22 47.25 49.54 52.08 54.72 57.4 60 62.68 65.3 67.63
2922.401 69.83 71.72 72.91 73.21 72.61 70.96 68.46 65.79 63.42 61.74
2941.691 61.1 61.65 63.42 66.5 70.83 76.07 81.71 87.12 91.67 95.1
2960.981 97.75 100.34 103 105.21 105.92 103.84 98.29 89.14 77.62 65.76
2980.271 54.99 46.09 39.38 34.68 31.44 29.3 27.96 27.36 27.43 27.92
2999.561 28.74 29.68 30.43 30.69 30.09 28.71 26.74 24.53 22.41 20.54
3018.850 19 17.87 16.94 16.02 15.17 14.37 13.8 13.34 12.73 12.26
3038.140 11.96 11.61 11.3 11.03 10.74 10.48 10.28 10.17 10.11 9.96
3057.430 9.81 9.68 9.51 9.18 8.85 8.77 8.59 8.4 8.25 8.06
3076.720 7.91 7.75 7.58 7.38 7.02 6.4 5.87 5.41 4.93 4.48
3096.009 4.07 3.84 3.72 3.44 3.21 3.06 2.88 2.78 2.7 2.64
3115.299 2.62 2.61 2.61 2.57 2.47 2.33 2.3 2.34 2.35 2.25
3134.589 2.28 2.28 2.15 2.13 2.11 2.2 2.23 2.18 2.14 2.07
3153.879 2.18 2.26 2.24 2.14 2 2.01 2.07 2.08 2.02 1.97
3173.169 2.03 2 1.97 2.08 2.1 1.98 1.91 1.95 1.95 1.92
3192.458 1.94 1.93 1.91 1.93 1.89 1.78 1.75 1.89 1.81 1.62
3211.748 1.65 1.74 1.75 1.69 1.64 1.63 1.62 1.69 1.6 1.56
3231.038 1.6 1.6 1.53 1.46 1.52 1.5 1.54 1.53 1.65 1.66
3250.328 1.43 1.44 1.5 1.48 1.44 1.44 1.53 1.56 1.47 1.38
3269.617 1.42 1.48 1.46 1.47 1.63 1.8 1.69 1.59 1.63 1.72
3288.907 1.73 1.76 1.75 1.6 1.59 1.57 1.64 1.78 1.83 1.72
3308.197 1.62 1.74 1.8 1.87 1.86 1.78 1.84 1.81 1.77 1.85
3327.487 1.87 1.87 1.86 1.85 1.89 1.85 1.79 1.8 1.88 1.85
3346.777 1.82 1.86 1.91 1.92 1.88 1.83 1.88 1.89 1.85 1.94
3366.066 1.98 2.05 2.19 2.29 2.35 2.22 2.27 2.31 2.19 2.34
3385.356 2.45 2.45 2.54 2.55 2.54 2.56 2.48 2.43 2.57 2.67
3404.646 2.71 2.81 2.75 2.83 3.04 3.06 3.02 3.19 3.37 3.48
3423.936 3.57 3.62 3.81 3.96 4.11 4.35 4.54 4.69 4.83 5.02
3443.225 5.18 5.36 5.68 6.02 6.23 6.4 6.61 6.95 7.31 7.66
3462.515 7.94 8.22 8.66 9.08 9.52 9.98 10.63 11.38 11.97 12.77
3481.805 13.7 14.44 15.33 16.31 17.08 17.97 18.97 19.78 20.58 21.53
3501.095 22.36 23.29 24.47 25.83 27.43 29.2 31.24 33.46 35.99 38.82
3520.385 41.93 45.51 49.27 53 56.45 59.34 61.37 62.34 62.43 61.75
3539.674 60.41 58.72 56.76 54.75 52.68 50.58 48.62 46.84 45.16 43.35
3558.964 41.57 39.76 38.04 36.32 34.55 32.85 31.32 29.75 28.03 26.53
3578.254 25.17 23.76 22.32 20.78 19.27 17.97 16.69 15.45 14.26 13.26
3597.544 12.56 11.89 11.13 10.4 9.8 9.26 8.68 8.28 7.93 7.73
3616.833 7.57 7.43 7.46 7.51 7.58 7.77 8.22 8.71 9.27 10
3636.123 10.94 11.91 12.66 13.37 13.94 14.42 14.99 15.47 16.02 16.65
3655.413 17.11 17.56 17.87 17.98 17.93 17.7 17.33 16.55 15.58 14.52
3674.703 13.21 11.89 10.71 9.62 8.52 7.57 6.83 6.02 5.28 4.8
3693.993 4.29 3.91 3.63 3.24 2.99 2.69 2.33 2.3 2.32 2.13
3713.282 1.95 1.88 1.91 1.75 1.58 1.54 1.33 1.27 1.45 1.45
3732.572 1.38 1.38 1.22 1.19 1.23 1.21 1.09 0.9934 1.01 1.03
3751.862 1.11 1.07 0.9213 0.9753 1.2 1.15 0.9984 0.8551 0.8557 0.8628
3771.152 0.8101 0.8589 0.9817 1.01 0.9365 0.8946 0.9472 1.04 1.06 1.01
3790.441 0.9085 0.9057 0.8574 0.7797 0.8803 1.01 1.09 1.13 1.14 1.01
3809.731 0.9053 1.03 1.09 0.9799 0.9599 0.9927 1.04 1.11 1.02 0.9515
3829.021 0.9638 0.9775 1.08 1.17 1.08 0.9485 1.08 1.2 1.07 1.03
3848.311 1.06 1.1 1.17 0.9935 0.8945 1.05 1.15 1.07 1.04 1.14
3867.601 1.15 1.09 1.07 1.2 1.28 1.21 1.11 1.08 1.08 1.12
3886.890 1.09 1.18 1.33 1.29 1.28 1.27 1.25 1.25 1.17 1.06
3906.180 1.15 1.19 1.05 1.21 1.2 1.13 1.08 0.9057 0.9587 1.04
3925.470 1.06 1.1 1.24 1.2 1.1 1.02 0.9906 1.01 0.9659 1
3944.760 0.985 0.9855 0.9731 0.9882 1.12 0.9841 0.9679 1.03 0.9597 0.8849
3964.049 0.8697 0.8421 0.8697 1.04 0.942 0.8546 0.9015 0.9441 0.7638 0.7322
3983.339 0.9209 0.9556 0.8472 0.8554 0.8674 0.7278 0.7969 0.8633 0.795 0.7002
##END=
