##TITLE=Ethyl .gamma.-phenylbutyrate
##JCAMP-DX=4.24
##DATA TYPE=INFRARED SPECTRUM
##ORIGIN=EPA-IR VAPOR PHASE LIBRARY
##OWNER=SRD/NIST
Collection (C) 2018 copyright by the U.S. Secretary of Commerce
on behalf of the United States of America. All rights reserved.
##CAS REGISTRY NO=119-43-7
##MOLFORM=C 12 H 16 O 2
##$NIST SOURCE=MSDC-IR
##STATE=gas
##XUNITS=1/CM
##YUNITS=ABSORBANCE
##XFACTOR=1.
##YFACTOR=0.001
##DELTAX=3.85796
##FIRSTX=501.5
##LASTX=4000.7
##FIRSTY=3.33
##MAXX=4000.7
##MINX=501.534
##MAXY=0.13312
##MINY=0.00011
##NPOINTS=908
##XYDATA=(X++(Y..Y))
501.534 3.33 2.57 1.9 1.39 1.01 0.7824 0.6884 0.6523 0.7149 0.7211
540.114 0.7201 0.8809 1.18 1.74 2.35 2.75 2.79 2.35 1.9 1.62
578.693 1.53 1.63 1.7 1.72 1.67 1.61 1.59 1.63 1.59 1.49
617.273 1.45 1.53 1.59 1.6 1.68 1.73 1.78 1.9 2.04 2.2
655.852 2.45 2.88 3.58 4.6 5.93 7.55 9.59 12.38 16.48 22.12
694.432 27.67 30.16 28.33 23.84 19.51 16.5 14.86 14.62 15.72 18
733.011 20.98 23.51 24.17 22.46 19.13 15.72 13.07 11 9.4 8.17
771.591 7.18 6.37 5.72 5.22 4.76 4.37 4.15 4 3.91 3.84
810.170 3.81 3.81 3.83 3.86 3.85 3.89 3.95 4.06 4.25 4.53
848.750 4.85 5.12 5.32 5.44 5.48 5.4 5.22 4.98 4.55 4.15
887.330 3.94 3.85 3.92 4.17 4.49 4.82 5.09 5.29 5.43 5.56
925.909 5.63 5.5 5.21 4.84 4.42 4.02 3.68 3.45 3.41 3.48
964.489 3.66 3.91 4.18 4.5 4.83 5.04 5.25 5.59 6.17 7.11
1003.068 8.41 10.13 12.5 15.87 20.17 25.44 31.17 35.9 38.75 39.5
1041.648 38.83 37.03 34.13 30.77 27.33 24.21 21.81 20.15 19.15 18.7
1080.227 18.54 18.74 19.66 21.21 22.84 24.04 24.53 24.65 25.23 26.97
1118.807 30.21 35.22 42.21 51.34 62.33 73.78 83.53 89.65 91.86 91.24
1157.387 88.6 84.87 80.71 77.18 75.21 74.58 74.79 75.44 76.19 76.55
1195.966 75.91 73.99 71.3 68.56 66.26 64.58 63.62 63.37 63.65 64.09
1234.546 64.13 63.23 60.89 57.13 52.49 47.64 43.14 39.05 35.32 32.02
1273.125 29.12 26.85 25.22 24.12 23.67 23.89 24.56 25.33 25.79 25.76
1311.705 25.29 24.65 24.03 23.62 23.58 23.8 23.95 23.87 23.64 23.35
1350.284 22.94 22.35 21.82 22.38 24.96 28.39 30.02 28.12 23.49 18.71
1388.864 15.31 13.25 11.92 10.88 10.1 9.66 9.67 10.13 10.96 12.02
1427.443 13.1 14.08 15.01 16.13 17.58 19.25 20.65 21.25 20.7 19.32
1466.023 17.62 15.84 14.08 12.53 11.63 11.86 13.8 16.56 17.5 15.34
1504.603 10.93 6.94 5.01 4.08 3.61 3.33 3.16 3.04 2.93 2.81
1543.182 2.69 2.59 2.54 2.56 2.62 2.7 2.83 3.03 3.29 3.65
1581.762 4.13 4.81 5.7 6.75 7.81 8.51 8.31 7.06 5.38 3.95
1620.341 3.13 2.76 2.57 2.5 2.49 2.5 2.54 2.59 2.64 2.7
1658.921 2.75 2.83 2.97 3.18 3.42 3.74 4.14 4.67 5.36 6.25
1697.500 7.38 8.77 10.47 12.55 15.08 18.31 22.56 28.35 36.6 48.3
1736.080 64.28 83.56 104.66 123.28 133.12 129.16 113.15 91.47 70.1 51.78
1774.659 37.61 27.61 20.86 16.43 13.48 11.32 9.55 7.98 6.67 5.7
1813.239 4.96 4.35 3.86 3.47 3.14 2.9 2.73 2.62 2.58 2.58
1851.819 2.6 2.68 2.77 2.85 2.9 2.94 2.97 2.92 2.75 2.51
1890.398 2.27 2.05 1.95 1.89 1.85 1.87 1.94 2.05 2.19 2.4
1928.978 2.67 2.89 3.02 3.07 3.06 3 2.85 2.53 2.1 1.74
1967.557 1.52 1.41 1.37 1.38 1.37 1.37 1.35 1.34 1.36 1.36
2006.137 1.36 1.38 1.37 1.34 1.31 1.27 1.26 1.23 1.19 1.16
2044.716 1.15 1.15 1.15 1.14 1.13 1.12 1.11 1.12 1.09 1.05
2083.296 1.04 1.01 0.9696 0.9412 0.8968 0.8767 0.8456 0.7941 0.7719 0.7403
2121.875 0.7107 0.7272 0.694 0.6398 0.6327 0.6228 0.6389 0.6411 0.6143 0.6071
2160.455 0.5988 0.592 0.5998 0.5992 0.6011 0.6146 0.6244 0.6121 0.586 0.5757
2199.035 0.5644 0.557 0.5631 0.5701 0.5757 0.5507 0.5542 0.5708 0.5636 0.5848
2237.614 0.5789 0.5666 0.5684 0.5686 0.5663 0.5639 0.567 0.5911 0.5916 0.5692
2276.194 0.5877 0.6132 0.6185 0.6273 0.6462 0.6527 0.6933 0.7687 0.8388 0.9021
2314.773 0.9563 0.9506 0.8734 0.8403 0.8765 0.8758 0.8637 0.8412 0.8165 0.8127
2353.353 0.7789 0.753 0.7429 0.7271 0.7226 0.6834 0.6586 0.6518 0.623 0.6013
2391.932 0.5699 0.5762 0.5973 0.6098 0.6124 0.5902 0.5595 0.542 0.5538 0.5582
2430.512 0.5328 0.5239 0.5397 0.5338 0.5234 0.5166 0.4793 0.4597 0.4766 0.4666
2469.092 0.4856 0.4988 0.469 0.4587 0.4628 0.4708 0.4632 0.4365 0.4111 0.4009
2507.671 0.3826 0.3552 0.3537 0.399 0.4212 0.3908 0.3652 0.3718 0.3813 0.3881
2546.251 0.3861 0.382 0.3874 0.3831 0.3971 0.402 0.403 0.4177 0.4336 0.4655
2584.830 0.497 0.5136 0.5139 0.5246 0.5665 0.5966 0.5938 0.5963 0.5978 0.6086
2623.410 0.6299 0.6181 0.6232 0.6519 0.6602 0.6482 0.6641 0.6563 0.6327 0.6445
2661.989 0.6725 0.6627 0.6562 0.657 0.6415 0.6502 0.6656 0.7109 0.6887 0.6737
2700.569 0.6855 0.6559 0.6569 0.674 0.6879 0.6915 0.7352 0.7715 0.8172 0.8567
2739.148 0.8947 0.9495 0.9761 1.03 1.08 1.12 1.19 1.3 1.39 1.46
2777.728 1.57 1.68 1.76 1.83 1.9 1.97 2.04 2.17 2.33 2.46
2816.308 2.64 2.88 3.16 3.44 3.81 4.26 4.81 5.57 6.61 7.91
2854.887 9.43 11.09 12.68 14.02 14.98 15.48 15.63 15.57 15.32 15.05
2893.467 14.99 15.37 16.38 18 20.22 22.97 26.16 29.67 33.24 36.66
2932.046 39.87 43.01 45.93 47.92 48.31 46.96 44.54 42.02 39.88 38.31
2970.626 37.59 38.11 40.04 42.12 41.95 38.66 33.53 28.82 25.55 23.23
3009.205 21.54 20.55 20.63 22.12 24.84 27.88 29.53 28.3 24.31 19.57
3047.785 16.22 14.82 15.13 17.02 20.37 23.87 25.23 23.57 19.93 16.7
3086.364 14.72 13.12 11.47 9.82 8.44 7.3 6.29 5.26 4.22 3.32
3124.944 2.58 2.1 1.81 1.58 1.43 1.34 1.27 1.22 1.15 1.1
3163.524 1.08 1.04 0.9505 0.8455 0.759 0.6889 0.6844 0.6658 0.6106 0.6117
3202.103 0.5895 0.5409 0.5096 0.4845 0.4457 0.3926 0.397 0.3899 0.3593 0.3621
3240.683 0.3338 0.2829 0.2317 0.2234 0.254 0.2133 0.2047 0.214 0.192 0.1958
3279.262 0.1913 0.1693 0.2 0.2191 0.1934 0.1792 0.176 0.1677 0.148 0.1327
3317.842 0.1375 0.1822 0.1884 0.1364 0.1671 0.2031 0.2283 0.2368 0.1677 0.1275
3356.421 0.1273 0.134 0.1362 0.1846 0.2213 0.1846 0.1597 0.2004 0.2105 0.1763
3395.001 0.1946 0.2252 0.2146 0.1852 0.179 0.1864 0.1806 0.2141 0.2394 0.2587
3433.580 0.2616 0.3199 0.4668 0.507 0.488 0.5333 0.6067 0.6689 0.7695 0.9072
3472.160 1.1 1.29 1.43 1.52 1.55 1.46 1.36 1.23 1 0.85
3510.740 0.7702 0.6402 0.5215 0.4777 0.4817 0.4685 0.3639 0.2845 0.2618 0.2438
3549.319 0.2093 0.1485 0.1117 0.1246 0.1495 0.1617 0.2044 0.1886 0.1339 0.1346
3587.899 0.1224 0.1101 0.11 0.1357 0.1687 0.1564 0.135 0.1597 0.2117 0.1966
3626.478 0.2212 0.2282 0.2547 0.2763 0.2292 0.2399 0.2832 0.3567 0.3569 0.306
3665.058 0.2654 0.2391 0.1961 0.2044 0.2579 0.2958 0.3195 0.2583 0.2479 0.2731
3703.637 0.2501 0.2659 0.2476 0.2153 0.253 0.272 0.2147 0.1605 0.1972 0.2477
3742.217 0.2653 0.2927 0.319 0.3082 0.3089 0.3399 0.3284 0.3086 0.2608 0.2724
3780.797 0.3279 0.3279 0.3518 0.3184 0.2725 0.2786 0.3288 0.3399 0.3684 0.3861
3819.376 0.3167 0.3366 0.3231 0.3195 0.3617 0.3799 0.4135 0.3684 0.305 0.2959
3857.956 0.3411 0.3578 0.2833 0.2433 0.249 0.2905 0.3401 0.309 0.2862 0.3303
3896.535 0.3678 0.3828 0.3553 0.3217 0.2848 0.2996 0.3587 0.3838 0.4215 0.3964
3935.115 0.3365 0.3546 0.3741 0.3754 0.4163 0.44 0.3865 0.3357 0.4036 0.4497
3973.694 0.4663 0.4533 0.4147 0.4338 0.4682 0.4812 0.4817 0.5038
##END=
