##TITLE=1-Dimethylamino-2-nitroethylene
##JCAMP-DX=4.24
##DATA TYPE=INFRARED SPECTRUM
##ORIGIN=EPA-IR VAPOR PHASE LIBRARY
##OWNER=SRD/NIST
Collection (C) 2018 copyright by the U.S. Secretary of Commerce
on behalf of the United States of America. All rights reserved.
##CAS REGISTRY NO=1190-92-7
##MOLFORM=C 4 H 8 N 2 O 2
##$NIST SOURCE=MSDC-IR
##STATE=gas
##XUNITS=1/CM
##YUNITS=ABSORBANCE
##XFACTOR=1.
##YFACTOR=0.001
##DELTAX=1.92898
##FIRSTX=549.8
##LASTX=4000.7
##FIRSTY=1.2747
##MAXX=4000.7
##MINX=549.759
##MAXY=0.07225
##MINY=0
##NPOINTS=1790
##XYDATA=(X++(Y..Y))
549.759 1.2747 1.89 1.2846 0.79761 1.0384 1.228 1.4414 2.04 1.81 1.203
569.049 1.6396 1.2821 0.9251 0.6918 0.462 0.7092 0.529 0.7638 1.2145 1.0402
588.339 0.9746 1.5498 1.3795 1.0187 1.1193 0.79444 1.213 1.3409 1.1462 1.2875
607.628 1.3272 1.325 1.1042 1.3116 1.4386 1.3009 0.8812 0.7146 0.7595 0.43
626.918 0.423 0.6942 0.312 0.233 0.556 0.83624 1.128 1.3461 1.3402 1.1831
646.208 1.5008 1.2486 0.7515 0.7604 0.969 0.9657 1.064 0.8615 0.546 0.780913
665.498 0.7589 0.9245 1.2782 0.84947 0.589 0.85503 0.9612 1.1133 1.3083 1.567
684.787 1.7477 1.83 1.86 1.83 1.675 1.7154 2.11 2.33 2.11 2.12
704.077 2.25 2.49 2.48 1.99 1.88 1.7444 1.7775 1.81 1.88 2.03
723.367 1.86 1.95 2.43 2.47 2.44 2.67 3.07 3.82 4.23 4.27
742.657 4.32 4.7 5.26 5.82 6.37 6.51 6.25 6.24 6.15 6.01
761.947 6.09 6.88 6.98 5.86 5.4 4.82 3.98 3.79 3.59 3.44
781.236 3.34 2.62 2.31 2.45 2.13 1.79 1.4944 1.2749 1.722 1.7088
800.526 1.511 1.4006 1.3299 1.3634 1.3088 1.3936 1.1803 1.0839 1.2929 1.2948
819.816 1.7403 2.03 1.6306 1.7697 1.81 1.5396 1.329 1.2477 1.236 1.2912
839.106 1.1962 1.2023 1.656 1.4169 1.1252 1.4319 1.9 2.23 2.16 2.23
858.395 2.38 3.07 3.24 2.45 2.85 3.63 3.16 2.79 2.87 2.55
877.685 1.98 2 2.23 2.19 2.71 2.76 2.38 2.07 2 2.08
896.975 2.17 2.34 2.57 2.63 2.2 1.83 1.7593 1.7686 1.715 1.91
916.265 2.04 1.6849 1.5927 1.5938 1.6341 2.07 1.7373 1.2937 1.3456 1.84
935.555 2.32 2.18 2.29 2.4 2.53 2.65 2.57 2.73 3.05 3.06
954.844 3.05 3.37 3.38 3.93 4.61 4.63 4.88 4.99 4.9 4.99
974.134 5.25 5.57 5.79 5.78 6.29 6.89 7 7.2 7.37 7.36
993.424 7.16 6.88 6.62 6.36 5.59 4.68 3.87 3.11 2.97 3.29
1012.714 3.35 3.06 3.44 3.12 2.82 2.95 2.94 2.99 2.7 2.95
1032.003 3.01 3.53 3.17 1.87 2.3 3.31 3.28 3.01 2.44 2.03
1051.293 2.2 2.64 3.19 3.01 2.76 2.58 3.44 4.38 4.09 4.1
1070.583 3.99 3.94 4.32 4.55 4.02 4.67 5.46 4.94 5.55 5.91
1089.873 6.3 7.44 7.9 9.41 10.08 10.09 11.29 12.38 12.9 12.69
1109.163 12.64 12.59 11.97 11.23 10.52 9.99 9.22 8.61 8.1 7.47
1128.452 7.3 6.72 6.23 6.03 6.03 6.13 5.36 3.6 3.04 2.85
1147.742 2.9 3.06 3.25 4.03 3.9 2.76 2.63 3.15 3.41 3.45
1167.032 3.17 3.29 2.73 2.82 2.83 2.68 2.17 1.97 2.37 2.09
1186.322 2.68 2.86 2.4 3.2 3.09 1.92 2.35 3.98 4.05 3.04
1205.611 3.41 3.15 3.32 2.65 1.86 2.3 1.97 1.7528 1.87 2.47
1224.901 3.16 3.27 3.71 4.31 4.72 4.73 4.58 5.13 5.72 5.5
1244.191 5.15 5.81 6.03 5.91 6.06 6.26 6.66 6.84 7.47 8.43
1263.481 9.14 10.11 11.29 12.19 12.84 13.04 13.13 13.8 14.04 14.03
1282.771 14.41 14.32 13.53 12.63 11.76 10.97 10.93 11.27 11.61 12.09
1302.060 12.82 13.83 15.15 17.18 19.61 22.46 26.09 30.48 35.59 41.12
1321.350 46.99 53.22 59.36 64.52 68.44 71.12 72.25 71.53 69.25 66.1
1340.640 61.76 55.95 48.98 41.11 33.35 26.74 21.6 18.02 15.6 13.88
1359.930 12.72 11.85 11.21 10.72 10.29 9.92 9.55 9.13 8.75 8.4
1379.219 8 7.71 7.54 7.32 7.09 6.78 6.38 6.14 6.03 5.9
1398.509 5.56 5.33 5.31 5.13 4.87 4.65 4.59 4.55 4.32 4.15
1417.799 4.18 4.23 4.26 4.38 4.54 4.62 4.78 5.1 5.38 5.47
1437.089 5.41 5.23 5.26 5.41 5.43 5.41 5.38 5.39 5.34 5.29
1456.378 5.28 5.26 5.2 5.24 5.35 5.43 5.52 5.66 5.67 5.53
1475.668 5.58 5.71 5.66 5.83 6.1 6.31 6.63 7 7.58 8.25
1494.958 8.98 9.76 10.66 11.67 13 14.47 15.78 17.25 18.59 19.74
1514.248 20.56 20.9 21.11 21.1 21.05 21.06 21.06 20.66 19.67 18.19
1533.538 16.44 14.78 13.08 11.38 10.01 8.76 7.64 6.87 6.05 5.31
1552.827 4.85 4.44 4.15 4.04 3.96 3.81 3.54 3.29 3.22 3.34
1572.117 3.48 3.44 3.45 3.43 3.31 3.23 3.22 3.36 3.48 3.5
1591.407 3.6 3.52 3.38 3.59 3.74 3.83 4.03 4.38 4.87 5.23
1610.697 5.73 6.48 7.47 8.67 10.24 12.32 14.76 17.61 21.03 25.51
1629.986 30.8 36.16 41.49 46.97 51.86 55.34 57.44 58.3 58.03 56.62
1649.276 54.07 50.09 44.45 37.53 29.86 22.76 17.08 13.07 10.59 8.85
1668.566 7.58 6.64 5.89 5.29 4.97 4.57 4.25 3.94 3.48 3.31
1687.856 3.18 3.05 2.94 2.82 2.64 2.51 2.39 2.35 2.35 2.15
1707.146 2.07 2.22 2.26 2.15 2.13 2.13 2.05 2.11 2.21 2.08
1726.435 2.16 2.34 2.34 2.34 2.27 2.2 2.19 2.09 1.94 1.7765
1745.725 1.7478 1.78 1.771 1.7408 1.5562 1.4436 1.303 1.312 1.3437 1.3185
1765.015 1.3492 1.1929 1.2488 1.3872 1.3657 1.2528 1.2559 1.4494 1.3555 1.2601
1784.305 1.3325 1.4093 1.3546 1.2331 1.2853 1.2753 1.1521 1.1653 1.2376 1.3184
1803.594 1.3574 1.3491 1.3494 1.3325 1.3168 1.3578 1.4552 1.4572 1.3011 1.2599
1822.884 1.309 1.3516 1.4743 1.4535 1.4219 1.3288 1.3047 1.3412 1.2259 1.1237
1842.174 1.1766 1.1786 1.0832 1.2316 1.3158 1.0754 1.0395 1.1634 1.1898 1.2201
1861.464 1.187 1.1058 1.1802 1.1052 0.9385 0.9626 0.883 0.9593 1.165 1.0975
1880.754 1.0762 1.0501 0.86694 0.8859 1.0275 1.0198 0.9555 1.0011 1.0098 0.9636
1900.043 0.9753 1.0231 1.0276 0.9773 1.1012 1.2875 1.2683 1.2953 1.2765 1.0822
1919.333 0.9947 1.0225 0.9797 0.8907 1.0685 1.0733 1.0183 1.1437 1.1581 1.1727
1938.623 1.1358 1.0859 1.0443 1.1917 1.2314 1.1365 1.1771 1.1044 0.9966 0.9396
1957.913 0.9434 0.9689 0.9298 0.9662 1.0119 1.0038 0.953 1.0607 1.2845 1.2009
1977.202 1.0202 0.9965 1.1225 1.2805 1.1736 1.0191 1.1133 1.2015 1.1187 1.0551
1996.492 1.1221 1.0561 0.9865 1.0649 1.1178 1.0943 0.9671 0.9088 0.9568 0.9736
2015.782 0.9862 0.8819 0.83699 0.974 1.0393 0.9914 0.8921 0.975 1 0.9914
2035.072 1.0277 0.9758 0.9616 0.9736 0.85809 0.780982 0.8696 0.905 1.0409 1.0948
2054.362 0.9666 0.9211 0.9461 0.9677 0.9159 0.9452 0.8947 0.80057 0.9185 1.0188
2073.651 0.9178 0.9075 1.033 1.0413 0.9524 0.9536 1.0298 1.0143 0.937 0.9786
2092.941 1.0082 0.9161 0.9507 1.0531 1.0054 0.8904 0.9341 0.9972 1.0267 0.9513
2112.231 0.9363 1.0225 0.9394 0.8933 0.9789 1.0122 1.0909 1.2684 1.2774 1.2056
2131.521 1.1068 1.0091 1.176 1.2669 1.1598 1.0184 1.064 1.1722 1.1199 1.0012
2150.810 0.8222 0.9347 1.0586 0.86438 0.7675 0.85562 0.9294 0.83377 0.7233 0.7346
2170.100 0.756 0.80358 0.87657 0.81803 0.7252 0.7653 0.7222 0.82593 1.0535 1.0048
2189.390 0.85961 0.81831 0.9408 0.9113 0.9082 1.0327 1.0073 1.065 1.0707 1.0023
2208.680 0.917 0.9041 0.9719 1.0166 1.091 1.0927 1.127 1.0798 0.9484 0.9529
2227.970 1.0619 1.1239 1.0862 1.0549 0.8844 0.76 0.9844 1.1398 1.1243 1.2025
2247.259 1.06 1.0646 1.1419 0.9547 0.981 1.0587 1.0535 0.9977 0.9592 1.136
2266.549 1.2548 1.228 1.2489 1.3014 1.0882 0.9834 1.0574 1.0816 1.1211 1.0704
2285.839 1.083 1.1786 1.2553 1.1285 1.1327 1.2397 1.2574 1.2214 1.162 1.3031
2305.129 1.2358 1.1553 1.2751 1.4076 1.4497 1.3585 1.3671 1.2778 1.2563 1.3365
2324.418 1.353 1.388 1.4048 1.4545 1.4298 1.3335 1.277 1.2207 1.157 1.0715
2343.708 1.0353 1.0124 0.781719 0.82138 1.0308 1.0269 1.0231 0.9351 0.82089 1.0008
2362.998 1.1283 1.0965 1.1419 1.1508 1.1434 1.0512 1.0853 1.2239 1.1309 0.9656
2382.288 0.9669 0.9602 1.0419 1.1078 1.0732 1.088 0.9951 0.789877 0.85841 1.0145
2401.578 0.9378 0.9696 1.1236 0.9884 0.9266 1.0443 0.9743 0.9391 0.9323 0.77102
2420.867 0.743 0.86522 0.83067 0.9231 0.8831 0.7363 0.9142 0.83411 0.8357 1.0155
2440.157 0.9073 0.83016 0.80403 0.82609 0.889 0.9291 0.83559 0.80525 0.84125 0.79935
2459.447 0.9379 0.9161 0.8259 0.9422 1.0007 0.9744 0.8569 0.87513 0.9458 0.87901
2478.737 0.9688 0.8837 0.8998 1.0131 1.0063 1.0551 0.9806 1.0857 1.0846 1.0335
2498.026 1.0967 1.0733 1.0059 0.9774 0.9368 0.898 0.9882 1.0856 1.084 0.9884
2517.316 0.9314 0.8821 0.87932 0.9288 0.9151 0.9254 0.9938 0.8861 0.78328 1.0377
2536.606 1.2191 1.2266 1.1004 0.9986 1.213 1.1061 0.9034 0.85239 0.7638 0.958
2555.896 0.9266 0.7442 0.80429 0.9742 1.0514 0.9808 0.8831 1.067 1.1809 0.9352
2575.186 0.9059 1.0847 1.0384 0.9118 0.9387 1.0718 1.1964 1.0391 0.8865 0.87615
2594.475 0.85697 0.7587 0.8435 1.0637 0.87945 0.9936 1.2277 1.0941 1.0304 0.9354
2613.765 0.79004 0.622 0.642 0.8894 1.1764 1.2329 1.0695 1.2264 1.4047 1.3207
2633.055 1.2254 1.0726 1.0577 1.0661 1.0709 1.0316 1.0062 0.9682 0.84531 0.8314
2652.345 1.0088 1.1316 1.1522 1.1224 1.1599 1.1997 0.9105 0.7689 0.77472 0.9714
2671.634 1.2424 1.1594 1.0947 1.012 0.7515 0.9496 1.019 1.0197 1.0045 0.9507
2690.924 1.0547 0.9545 1.0081 0.9163 0.84135 0.79317 0.679 0.468 0.7139 0.9771
2710.214 0.84511 1.1053 1.0415 0.87819 0.9925 1.1409 1.1847 1.1907 1.1205 0.8989
2729.504 0.9949 1.2741 1.1526 0.82621 1.1985 1.5105 1.3607 1.1986 1.2398 1.2994
2748.794 1.4336 1.7039 1.596 1.5844 1.6618 1.5674 1.6534 1.5603 1.4813 1.5247
2768.083 1.3482 1.2787 1.4546 1.5208 1.4571 1.632 1.6331 1.6282 1.771 1.82
2787.373 1.97 2.15 2.28 2.25 2.22 2.51 2.77 2.84 2.72 2.89
2806.663 3.11 3.3 3.89 3.86 3.84 4.35 4.44 4.32 4.27 4.29
2825.953 4.43 4.42 4.37 4.04 3.63 3.39 3.21 3.11 2.93 2.91
2845.242 3.06 2.94 2.99 3.15 3.4 3.61 3.61 3.77 3.64 3.66
2864.532 3.65 3.78 4.05 3.89 3.78 3.8 3.79 3.72 3.86 3.99
2883.822 4.12 4.23 4.28 4.58 4.81 4.89 5.09 5.24 5.32 5.62
2903.112 5.97 5.96 6.09 6.62 6.72 6.76 7.02 7.21 7.37 7.56
2922.401 7.56 7.54 7.63 7.7 7.81 7.6 7.71 7.78 7.68 7.29
2941.691 6.92 7.11 6.9 6.78 6.5 6.06 6.02 5.92 5.76 5.61
2960.981 4.94 4.45 4.47 4.48 4.35 4.22 4.21 3.94 3.67 3.72
2980.271 3.59 3.45 3.43 3.26 3.23 3.29 3.2 3.08 3.09 3.24
2999.561 3.27 3.02 2.84 2.8 2.97 3.02 2.68 2.58 2.44 2.05
3018.850 2.05 2.07 2.16 2.13 2.09 2.12 1.97 2.03 1.97 1.85
3038.140 1.86 1.81 1.93 1.78 1.5436 1.6204 1.5329 1.3856 1.5214 1.5399
3057.430 1.4751 1.5765 1.5223 1.4336 1.525 1.4489 1.1626 0.9178 1.092 1.612
3076.720 1.4568 1.1938 1.1046 0.85716 1.0628 1.2277 1.1882 1.254 1.4134 1.3263
3096.009 1.1118 1.0639 0.9249 1.0783 1.3298 1.2307 1.2474 1.1794 1.0067 1.4144
3115.299 1.4579 1.3893 1.4472 1.406 1.5 1.5503 1.87 2 2.15 2.38
3134.589 2.26 2.26 2.08 1.7376 1.97 2.3 2.19 1.95 1.5703 1.3476
3153.879 1.3084 1.2262 1.374 1.4508 1.2229 0.9688 1.0128 0.9914 0.75 0.9458
3173.169 1.335 1.1694 0.9506 0.7468 0.596 0.77696 0.9413 0.87336 0.9854 0.9737
3192.458 0.8443 1.0681 1.1268 1.0925 1.0132 0.984 0.9744 0.87931 0.7211 0.84102
3211.748 1.1252 1.1828 1.0985 1.0924 1.0259 0.86583 0.83834 0.7686 0.82248 1.0901
3231.038 1.024 0.808 0.7431 0.9164 1.1789 1.104 0.9692 0.9208 1.0103 0.9805
3250.328 0.9538 0.9677 0.79635 0.656 0.9106 1.0798 1.0848 0.9061 0.548 0.785658
3269.617 1.1667 1.3158 1.1703 0.663 0.6815 0.80141 0.9052 1.2819 1.3477 1.1201
3288.907 0.9292 0.8423 0.7375 0.632 0.668 0.9474 1.0323 0.624 0.638 0.62
3308.197 0.517 0.79437 0.9559 1.0144 0.73 0.7264 0.7122 0.7255 0.82582 0.7442
3327.487 0.7592 0.83776 1.0419 0.9721 0.8307 0.7129 0.6857 0.713 0.607 1.0205
3346.777 1.0816 0.81912 0.706 0.8663 1.2589 1.2089 1.1 1.0662 1.0513 0.9138
3366.066 0.695 0.7025 0.784206 0.79864 0.7603 0.596 0.641 0.7397 0.9336 1.0698
3385.356 1.0854 0.9722 0.789419 0.8819 0.9669 0.9002 0.87592 0.87005 0.84231 1.0347
3404.646 1.0645 0.9342 0.85588 0.609 0.587 0.648 0.7423 1.0896 0.9304 0.9882
3423.936 1.2715 0.9793 0.573 0.666 0.9196 0.87592 0.601 0.491 0.544 0.7067
3443.225 0.85715 0.7275 0.581 0.693 1.0246 0.83067 0.608 0.83042 1.0691 1.0343
3462.515 0.8529 0.7656 0.576 0.37 0.583 1.0729 1.0802 1.0066 1.0468 1.0223
3481.805 0.8932 0.77756 1.0142 0.9535 0.625 0.577 0.9504 0.77785 0.7411 1.0575
3501.095 1.0711 0.8925 0.7218 0.619 0.601 0.9139 0.82213 0.7012 0.79522 0.674
3520.385 0.76 0.616 0.497 0.9105 0.9716 0.9377 0.7029 0.653 1.1515 1.1232
3539.674 0.85762 0.7229 0.7302 0.85253 0.85488 0.9853 1.0748 0.87178 0.631 0.83143
3558.964 1.0316 1.1433 1.2631 1.2138 1.0404 1.0439 1.0036 0.9696 0.87051 0.622
3578.254 0.7119 0.721 0.645 0.593 0.636 0.84551 1.0364 1.3449 1.5166 1.1872
3597.544 1.0643 1.2374 1.2456 1.1562 1.0961 0.9003 0.80626 0.9268 0.9347 0.9382
3616.833 1.0925 0.80354 0.442 0.7511 0.9362 0.9448 0.678 0.519 0.79362 0.8244
3636.123 0.626 0.583 0.9395 0.9558 0.7065 0.7408 0.79495 0.9485 1.1717 0.9255
3655.413 0.7202 0.9147 0.9691 0.9347 0.7566 0.606 0.541 0.621 0.7582 1.1442
3674.703 1.0382 0.7188 0.84647 0.7275 0.79723 0.77618 0.536 0.536 0.9281 1.2513
3693.993 0.9035 0.77012 0.8948 0.787204 1.0298 1.2178 0.85081 0.85552 1.1236 1.1074
3713.282 1.0788 0.8973 0.82678 1.0459 1.1579 0.81868 0.533 0.7629 1.0786 1.023
3732.572 0.9808 1.2419 1.1555 0.86986 0.51 0.475 0.77135 0.8815 1.0557 1.1364
3751.862 1.0568 0.9538 0.83483 0.516 0.601 0.9543 1.0658 1.0263 0.7645 0.6809
3771.152 0.643 0.662 0.85503 0.8132 0.636 0.7267 0.66 0.371 0.349 0.352
3790.441 0.651 0.7549 0.663 0.81488 0.655 0.633 0.644 0.592 0.7167 0.77556
3809.731 0.8839 0.969 0.674 0.531 1.0751 1.2959 0.8945 0.9769 1.3117 0.9753
3829.021 0.7645 0.9426 1.1191 0.9242 0.688 0.9386 0.8929 0.7218 0.7133 0.608
3848.311 0.7289 0.82609 0.9625 1.0431 0.87656 0.9314 1.0804 1.0168 0.85093 1.0148
3867.601 1.0153 0.8894 0.9622 1.0104 0.86931 0.887 0.8001 0.82488 1.1113 1.0049
3886.890 0.9287 0.7691 0.6937 0.67 0.647 0.83556 0.9721 1.1766 1.2423 1.4241
3906.180 1.2806 0.9792 0.8606 1.0324 1.2964 1.1303 1.2439 1.305 1.1654 0.515
3925.470 0.28 0.789706 0.9752 1.2176 1.204 0.8366 0.348 0 0.361 0.9389
3944.760 1.026 0.82219 0.9136 1.1223 0.9935 0.783119 0.735 0.9594 0.8814 0.605
3964.049 0.9294 1.0508 0.81311 0.7328 0.556 0.28 0.652 1.0441 0.80437 0.9314
3983.339 1.1076 1.0138 0.7388 0.6873 0.83831 0.665 0.83473 1.0294 0.9243 0.9765
##END=
