##TITLE=1,6-Hexanedithiol
##JCAMP-DX=4.24
##DATA TYPE=INFRARED SPECTRUM
##ORIGIN=NIST Mass Spectrometry Data Center
##OWNER=NIST Standard Reference Data Program
Collection (C) 2018 copyright by the U.S. Secretary of Commerce
on behalf of the United States of America. All rights reserved.
##CAS REGISTRY NO=1191-43-1
##MOLFORM=C 6 H 14 S 2
##$NIST SOURCE=MSDC-IR
##SPECTROMETER/DATA SYSTEM=HP-GC/MS/IRD
##STATE=gas
##XUNITS=1/CM
##YUNITS=ABSORBANCE
##XFACTOR=1.0
##YFACTOR=0.000002200
##DELTAX=4.0
##FIRSTX=550.0
##LASTX=3846.0
##FIRSTY=0.000209
##MAXX=3846
##MINX=550
##MAXY=0.022
##MINY=0
##NPOINTS=825
##XYDATA=(X++(Y..Y))
550.0 95 48 1 1 39 72 69 86 62 43
590.0 83 91 56 49 67 69 64 72 66 64
630.0 104 105 112 138 171 193 187 210 208 174
670.0 165 164 161 190 208 227 265 304 337 387
710.0 422 417 449 486 515 519 512 488 451 438
750.0 419 385 347 305 305 292 231 224 246 232
790.0 227 217 204 199 176 158 180 198 226 263
830.0 233 199 193 207 195 190 210 224 234 223
870.0 221 236 237 229 240 247 239 243 240 230
910.0 237 235 218 211 206 203 203 194 200 197
950.0 192 212 220 219 216 220 218 216 230 240
990.0 234 233 236 222 212 223 228 221 221 221
1030.0 216 200 198 219 225 237 240 232 234 214
1070.0 221 238 240 234 185 184 211 210 198 185
1110.0 183 194 206 225 235 226 217 227 240 232
1150.0 221 227 237 219 220 228 214 203 207 217
1190.0 224 238 265 282 290 295 323 380 442 496
1230.0 552 607 641 684 734 799 890 1009 1132 1250
1270.0 1348 1370 1344 1299 1259 1229 1184 1137 1084 1016
1310.0 930 833 715 609 529 475 456 470 495 530
1350.0 561 564 530 467 412 353 296 251 216 197
1390.0 182 169 180 200 213 239 286 352 440 574
1430.0 763 968 1147 1261 1307 1290 1260 1189 1059 908
1470.0 739 578 447 353 273 219 184 156 138 134
1510.0 128 116 109 106 102 96 94 95 82 64
1550.0 64 58 55 62 67 67 67 60 43 40
1590.0 36 40 40 39 40 39 43 47 45 42
1630.0 36 40 39 36 41 47 41 35 39 41
1670.0 35 32 34 39 43 36 25 36 42 36
1710.0 33 33 38 24 17 35 34 21 25 37
1750.0 42 34 31 29 20 20 30 28 25 31
1790.0 31 24 21 29 24 23 25 30 35 29
1830.0 26 18 19 17 19 22 19 21 24 21
1870.0 17 20 19 12 15 23 26 29 24 18
1910.0 15 9 10 15 15 15 18 27 32 31
1950.0 36 30 22 22 20 19 24 25 17 14
1990.0 18 23 25 23 29 36 34 30 30 28
2030.0 25 28 28 27 26 31 33 26 24 26
2070.0 20 15 12 18 27 24 16 19 29 26
2110.0 19 24 24 17 20 28 24 15 19 18
2150.0 14 25 28 27 30 31 28 20 18 24
2190.0 26 25 30 31 23 13 10 8 14 17
2230.0 12 11 14 14 4 4 16 21 13 19
2270.0 22 10 0 7 21 20 27 30 19 14
2310.0 13 12 15 17 14 19 17 21 30 23
2350.0 14 16 24 18 8 3 2 2 1 2
2390.0 8 17 23 21 16 20 22 24 25 16
2430.0 13 17 17 17 21 17 15 19 20 17
2470.0 24 32 23 26 34 41 45 40 38 47
2510.0 45 42 48 40 49 56 46 56 56 48
2550.0 52 59 67 76 88 105 130 161 207 251
2590.0 283 300 279 232 190 162 135 124 128 111
2630.0 104 109 103 105 120 115 108 117 127 122
2670.0 129 137 135 145 143 140 144 141 148 156
2710.0 157 146 141 149 149 133 128 138 142 142
2750.0 137 134 142 142 149 159 166 180 187 181
2790.0 205 237 256 283 326 363 379 415 475 547
2830.0 634 751 948 1232 1591 2029 2512 2934 3226 3310
2870.0 3171 2891 2553 2261 2053 1977 2027 2197 2500 2900
2910.0 3420 4107 5015 6145 7437 8690 9634 10000 9666 8782
2950.0 7640 6525 5666 5080 4592 3996 3246 2458 1811 1352
2990.0 1038 823 676 576 488 429 379 340 307 256
3030.0 227 224 204 176 157 145 138 124 109 111
3070.0 115 114 116 105 103 104 91 82 73 61
3110.0 68 73 81 91 87 77 67 59 58 54
3150.0 54 59 62 70 73 58 49 63 65 57
3190.0 64 66 68 65 47 36 33 35 38 57
3230.0 78 63 38 28 44 42 31 39 42 41
3270.0 45 59 50 34 42 35 33 42 29 25
3310.0 28 30 43 50 37 40 41 36 32 31
3350.0 30 32 33 25 31 45 57 53 37 37
3390.0 35 24 32 34 37 41 35 39 37 44
3430.0 46 38 34 56 69 49 31 25 36 45
3470.0 24 12 21 23 19 27 32 24 27 38
3510.0 40 28 14 1 5 26 36 38 50 42
3550.0 34 38 37 41 39 35 43 53 55 65
3590.0 59 53 65 70 70 69 79 86 83 79
3630.0 69 62 70 65 43 42 65 71 59 61
3670.0 80 88 79 78 78 75 70 54 55 64
3710.0 66 60 55 57 61 70 71 70 66 77
3750.0 103 76 56 66 66 63 61 60 65 71
3790.0 83 83 75 72 71 59 65 72 68 76
3830.0 76 64 63 83 89
##END=
