##TITLE=Methylenecyclohexane
##JCAMP-DX=4.24
##DATA TYPE=INFRARED SPECTRUM
##ORIGIN=NIST Mass Spectrometry Data Center
##OWNER=NIST Standard Reference Data Program
Collection (C) 2018 copyright by the U.S. Secretary of Commerce
on behalf of the United States of America. All rights reserved.
##CAS REGISTRY NO=1192-37-6
##MOLFORM=C 7 H 12
##$NIST SOURCE=MSDC-IR
##SPECTROMETER/DATA SYSTEM=HP-GC/MS/IRD
##STATE=gas
##XUNITS=1/CM
##YUNITS=ABSORBANCE
##XFACTOR=1.0
##YFACTOR=0.000005100
##DELTAX=4.0
##FIRSTX=550.0
##LASTX=3846.0
##FIRSTY=0.000321
##MAXX=3846
##MINX=550
##MAXY=0.051
##MINY=0
##NPOINTS=825
##XYDATA=(X++(Y..Y))
550.0 63 27 0 17 35 33 34 51 55 55
590.0 68 68 72 115 136 137 147 199 220 174
630.0 170 168 130 93 83 63 43 49 57 54
670.0 45 42 50 62 58 41 37 44 43 35
710.0 39 51 53 46 49 51 53 67 80 82
750.0 85 95 104 103 99 94 88 80 76 78
790.0 77 83 74 53 62 68 63 69 93 116
830.0 147 194 247 302 350 410 474 519 585 697
870.0 831 944 1037 1134 1415 1903 1754 1253 1068 933
910.0 756 542 366 247 173 130 113 100 94 96
950.0 97 107 119 125 133 152 170 179 179 182
990.0 200 190 164 158 142 123 110 102 111 104
1030.0 79 70 64 50 45 49 53 47 39 42
1070.0 47 47 51 59 64 69 69 69 71 64
1110.0 61 64 66 69 74 80 78 80 73 76
1150.0 82 74 73 59 47 54 58 54 47 41
1190.0 46 50 52 68 77 83 104 111 121 134
1230.0 148 153 154 149 145 148 138 130 129 127
1270.0 123 109 92 87 82 75 71 68 64 66
1310.0 74 78 86 106 123 134 148 159 164 164
1350.0 161 149 132 122 120 118 116 116 115 121
1390.0 130 132 139 148 157 174 205 249 318 427
1430.0 581 740 847 912 1009 1100 1046 903 759 596
1470.0 439 313 220 154 109 81 70 64 56 53
1510.0 51 49 49 48 47 43 42 40 38 44
1550.0 47 43 41 45 47 47 51 56 62 67
1590.0 71 73 75 77 90 108 131 174 232 319
1630.0 429 539 639 719 765 769 719 648 543 414
1670.0 308 231 176 137 114 100 79 66 54 41
1710.0 43 41 37 41 44 46 48 49 47 47
1750.0 50 53 56 64 75 95 119 136 149 162
1790.0 159 146 137 119 89 66 52 42 32 25
1830.0 23 25 27 26 26 26 24 26 23 20
1870.0 21 21 20 19 19 18 17 15 15 16
1910.0 16 18 17 15 16 18 20 20 20 21
1950.0 17 19 18 15 14 15 16 16 13 12
1990.0 10 14 16 10 8 9 15 16 12 11
2030.0 13 13 9 9 13 15 14 15 14 10
2070.0 8 12 13 13 18 20 16 12 14 18
2110.0 19 19 15 13 12 11 12 11 11 13
2150.0 12 9 9 13 16 13 12 12 10 14
2190.0 15 18 21 17 15 16 15 15 14 14
2230.0 13 12 10 9 14 11 5 5 8 11
2270.0 12 8 7 12 14 12 15 18 18 19
2310.0 15 13 15 14 13 16 17 18 17 15
2350.0 15 14 12 8 10 9 8 8 13 14
2390.0 10 11 14 17 19 19 17 14 13 17
2430.0 19 15 13 12 12 13 16 18 16 18
2470.0 20 20 21 21 22 19 17 18 19 18
2510.0 14 14 19 23 19 19 24 30 27 26
2550.0 25 29 29 31 34 34 35 41 44 43
2590.0 40 40 39 41 47 50 52 56 62 69
2630.0 72 75 77 86 99 106 113 117 114 117
2670.0 123 116 114 110 94 83 70 63 61 59
2710.0 57 52 53 56 58 56 56 64 67 69
2750.0 75 76 80 88 101 116 128 135 141 154
2790.0 166 170 176 188 204 234 281 351 455 589
2830.0 746 929 1154 1466 1855 2174 2339 2524 2719 2702
2870.0 2558 2366 2168 1967 1783 1683 1706 1810 1958 2222
2910.0 2706 3426 4373 5564 7048 8719 10000 9985 9143 8436
2950.0 7650 6346 4658 3107 2014 1390 1066 917 838 789
2990.0 749 682 611 529 425 320 239 187 158 152
3030.0 151 164 181 205 252 314 399 504 621 747
3070.0 840 811 739 778 738 584 425 292 203 138
3110.0 100 78 73 73 76 72 66 61 59 57
3150.0 52 43 39 41 36 33 32 23 25 22
3190.0 23 29 30 35 38 35 36 42 38 36
3230.0 38 39 37 31 25 31 29 21 23 22
3270.0 26 30 25 21 17 17 21 21 25 27
3310.0 31 32 27 27 34 32 32 35 33 30
3350.0 36 36 27 23 26 27 21 23 24 22
3390.0 22 29 31 25 25 26 25 24 27 23
3430.0 21 22 21 22 23 22 11 7 15 17
3470.0 11 15 19 19 18 18 16 15 22 15
3510.0 8 7 9 14 9 9 18 17 11 17
3550.0 24 20 19 14 7 16 20 13 8 10
3590.0 18 21 18 15 10 5 11 16 12 14
3630.0 18 15 15 19 19 18 19 20 20 19
3670.0 18 17 18 17 16 17 22 29 26 24
3710.0 30 35 33 32 33 21 20 20 14 20
3750.0 33 33 31 35 36 34 27 23 33 39
3790.0 35 32 29 24 22 24 26 27 26 27
3830.0 35 37 30 24 27
##END=
