##TITLE=1-Bromo-2,4-dichlorobenzene
##JCAMP-DX=4.24
##DATA TYPE=INFRARED SPECTRUM
##ORIGIN=EPA-IR VAPOR PHASE LIBRARY
##OWNER=SRD/NIST
Collection (C) 2018 copyright by the U.S. Secretary of Commerce
on behalf of the United States of America. All rights reserved.
##CAS REGISTRY NO=1193-72-2
##MOLFORM=C 6 H 3 Br Cl 2
##$NIST SOURCE=MSDC-IR
##STATE=gas
##XUNITS=1/CM
##YUNITS=ABSORBANCE
##XFACTOR=1.
##YFACTOR=0.001
##DELTAX=1.92898
##FIRSTX=549.8
##LASTX=4000.7
##FIRSTY=6.937
##MAXX=4000.7
##MINX=549.759
##MAXY=0.114727
##MINY=0
##NPOINTS=1790
##XYDATA=(X++(Y..Y))
549.759 6.937 5.427 4.487 4.107 3.507 2.897 2.557 2.047 1.857 1.767
569.049 1.417 1.2329 1.0896 0.8738 0.9029 1.023 1.0165 0.7988 0.9172 1.1321
588.339 0.9936 0.9872 1.188 1.347 1.517 1.557 1.637 1.987 1.997 1.927
607.628 1.917 1.507 1.1926 0.9556 0.7017 0.7934 0.8905 0.7801 0.7539 0.7438
626.918 0.6959 0.6684 0.6583 0.717 0.691 0.743 0.7483 0.6753 0.6116 0.7548
646.208 0.7748 0.7455 0.8191 0.9335 1.3087 1.527 1.757 2.137 2.747 3.427
665.498 3.857 4.087 4.037 4.067 4.367 4.247 3.607 3.167 2.877 2.637
684.787 2.327 1.947 1.917 1.767 1.337 1.1235 0.9382 0.8759 1.0118 0.9885
704.077 0.9938 1.0502 1.0857 1.1056 1.151 1.2672 1.397 1.467 1.377 1.2088
723.367 1.0459 0.9328 0.9616 0.919 0.7158 0.6804 0.843 1.0731 1.101 1.0123
742.657 0.8601 0.8249 0.9553 1.0745 1.1429 1.377 1.797 2.047 2.327 2.507
761.947 2.627 2.547 2.457 2.397 2.057 1.877 1.897 1.827 1.887 2.207
781.236 2.577 3.167 4.177 5.627 7.697 10.817 15.397 21.317 29.317 39.577
800.526 51.487 63.667 73.457 78.457 78.097 73.347 64.367 50.957 36.157 24.307
819.816 16.477 11.837 9.117 7.297 6.227 5.757 5.247 4.627 4.257 3.947
839.106 3.587 3.457 3.347 3.267 3.247 3.307 3.737 4.727 6.117 7.737
858.395 9.587 11.427 13.147 15.157 17.477 20.407 20.947 16.677 13.217 11.827
877.685 10.127 8.257 6.427 4.837 3.567 2.767 2.117 1.657 1.427 1.2638
896.975 1.1569 1.0336 0.9624 1.0462 1.1521 1.1363 0.975 0.9835 0.9969 0.962
916.265 0.9059 0.8768 0.9034 0.8453 0.9014 0.9201 0.7619 0.7208 0.9817 1.0817
935.555 0.8429 0.7962 0.8211 0.8202 1.006 1.1128 1.1517 1.0424 0.9588 1.0358
954.844 0.9823 0.9976 1.18 1.2588 1.1195 1.2089 1.2968 1.347 1.527 1.537
974.134 1.607 1.677 1.787 1.787 1.707 1.677 1.477 1.377 1.387 1.2946
993.424 1.367 1.517 1.687 2.077 2.857 3.927 5.557 8.177 11.957 17.717
1012.714 25.987 35.567 44.357 49.907 51.917 52.287 51.377 46.847 37.527 26.347
1032.003 17.897 13.147 10.557 9.417 8.737 8.197 7.717 7.337 6.757 6.097
1051.293 5.267 4.697 4.507 3.967 3.567 3.597 3.877 3.757 3.497 4.017
1070.583 4.497 5.007 5.997 7.487 10.057 13.537 18.607 25.637 32.457 38.817
1089.873 45.467 51.777 58.357 64.187 65.747 63.017 58.837 53.257 46.507 38.187
1109.163 28.607 21.327 17.007 14.357 12.977 12.287 12.297 12.617 12.857 12.977
1128.452 12.697 12.467 12.777 13.247 13.537 13.577 13.497 12.827 11.687 11.097
1147.742 11.597 10.757 8.107 6.007 4.617 3.707 3.207 2.637 2.057 1.737
1167.032 1.707 1.777 1.497 1.2342 1.337 1.627 1.597 1.437 1.417 1.3007
1186.322 1.1763 1.2431 1.747 1.807 1.387 1.507 1.527 1.567 1.677 1.627
1205.611 1.777 1.727 1.647 1.807 1.727 2.007 2.417 2.497 2.917 3.257
1224.901 3.277 3.357 3.707 3.787 4.057 4.987 5.987 6.677 6.957 7.197
1244.191 7.347 7.597 7.397 6.457 5.747 5.247 4.737 4.447 4.227 3.667
1263.481 2.787 2.007 1.547 1.497 1.417 1.0854 0.932 0.9352 0.8526 0.8366
1282.771 0.8493 0.8931 0.9363 0.9177 1.0927 1.1267 1.0165 1.0275 0.9894 0.9756
1302.060 1.0443 1.0613 1.0782 1.0754 1.0874 1.0608 1.0314 1.0412 1.0086 0.9564
1321.350 0.9244 0.9146 0.9087 1.0068 1.1926 1.347 1.477 1.707 2.137 2.667
1340.640 3.437 4.437 5.587 6.947 8.487 10.197 11.967 13.837 15.747 17.507
1359.930 18.877 19.667 19.877 19.657 19.137 18.437 17.537 16.217 14.457 12.557
1379.219 10.737 9.247 8.037 7.007 6.027 5.087 4.347 3.817 3.547 3.507
1398.509 3.737 4.347 5.317 6.787 8.907 11.497 14.267 16.507 17.657 17.687
1417.799 16.947 15.497 13.397 10.847 8.417 6.957 6.587 7.037 8.257 10.357
1437.089 13.697 18.867 26.787 38.437 54.587 74.607 95.217 109.987 114.727 112.047
1456.378 104.727 92.527 73.177 47.647 26.227 14.307 9.137 6.827 5.497 4.747
1475.668 4.377 4.247 4.407 4.737 5.207 5.647 6.107 6.477 6.557 6.397
1494.958 6.057 5.517 4.867 4.177 3.397 2.717 2.297 2.057 1.867 1.777
1514.248 1.817 1.867 1.937 2.077 2.267 2.487 2.737 2.977 3.347 3.877
1533.538 4.517 5.347 6.277 7.297 8.517 9.797 11.177 12.707 14.217 15.737
1552.827 17.227 18.847 20.447 21.807 22.977 24.007 24.757 25.027 24.367 22.907
1572.117 20.997 18.557 15.747 12.847 10.167 7.707 5.697 4.197 3.117 2.397
1591.407 2.007 1.837 1.787 1.857 1.827 1.947 2.147 2.287 2.507 2.637
1610.697 2.737 2.807 2.877 2.897 2.827 2.717 2.537 2.347 2.177 1.967
1629.986 1.807 1.667 1.477 1.467 1.497 1.477 1.527 1.497 1.417 1.387
1649.276 1.347 1.308 1.3258 1.2943 1.2028 1.04 0.931 0.949 0.8897 0.8904
1668.566 0.944 0.8479 0.7766 0.722 0.6599 0.7035 0.7494 0.7356 0.7396 0.7224
1687.856 0.7035 0.7108 0.6965 0.6923 0.6642 0.6568 0.6849 0.7008 0.739 0.7992
1707.146 0.7874 0.7617 0.829 0.9221 1.0209 1.1689 1.377 1.537 1.737 2.027
1726.435 2.267 2.517 2.737 2.927 3.047 3.007 2.957 2.937 2.837 2.597
1745.725 2.307 1.997 1.717 1.547 1.407 1.2623 1.1402 0.9841 0.9508 1.0154
1765.015 1.0151 1.0006 1.0784 1.0436 0.9542 0.9481 0.8403 0.7885 0.7852 0.7138
1784.305 0.6369 0.6206 0.6065 0.5589 0.5991 0.6268 0.6122 0.6675 0.7254 0.7684
1803.594 0.8117 0.8641 0.9032 0.9515 0.9617 0.898 0.8792 0.8692 0.8246 0.8035
1822.884 0.7072 0.6398 0.6206 0.5775 0.5553 0.5312 0.5371 0.5505 0.506 0.4589
1842.174 0.4654 0.5268 0.6088 0.6191 0.6081 0.5984 0.6035 0.6231 0.6663 0.7502
1861.464 0.8282 0.8836 1.003 1.1886 1.357 1.587 1.837 2.067 2.257 2.407
1880.754 2.597 2.627 2.477 2.337 2.257 2.087 1.887 1.617 1.3232 1.1079
1900.043 0.9539 0.8943 0.8036 0.7516 0.7186 0.6322 0.5653 0.5527 0.5403 0.49
1919.333 0.4674 0.5123 0.5154 0.4975 0.5104 0.5299 0.5662 0.5679 0.5473 0.5228
1938.623 0.527 0.566 0.6213 0.6253 0.6279 0.6423 0.6685 0.6964 0.654 0.644
1957.913 0.6329 0.549 0.4894 0.4761 0.4935 0.552 0.5588 0.5159 0.5303 0.4921
1977.202 0.4668 0.5177 0.4629 0.40324 0.41969 0.4555 0.42126 0.42743 0.43533 0.37979
1996.492 0.40856 0.4534 0.4704 0.4694 0.458 0.4401 0.43549 0.39507 0.39383 0.4846
2015.782 0.4767 0.43261 0.4679 0.4727 0.42793 0.43226 0.4479 0.40442 0.4823 0.5115
2035.072 0.4074 0.41273 0.4937 0.4976 0.4707 0.4896 0.4595 0.41688 0.43646 0.4764
2054.362 0.4506 0.4356 0.4483 0.40185 0.40559 0.464 0.4703 0.4562 0.4625 0.4614
2073.651 0.4623 0.4538 0.39786 0.42597 0.4708 0.4535 0.42072 0.42608 0.4614 0.39966
2092.941 0.37187 0.40589 0.35068 0.3139 0.37692 0.4308 0.42251 0.4422 0.49 0.5078
2112.231 0.4772 0.4835 0.5362 0.5267 0.5616 0.6061 0.6011 0.6468 0.6004 0.5175
2131.521 0.5349 0.5307 0.4615 0.4406 0.5113 0.467 0.3999 0.4466 0.4797 0.42699
2150.810 0.39657 0.42655 0.40999 0.38028 0.4239 0.4845 0.4797 0.4687 0.4496 0.4492
2170.100 0.487 0.453 0.37063 0.35027 0.35607 0.32911 0.39028 0.42023 0.37584 0.343464
2189.390 0.2853 0.3109 0.343167 0.3053 0.346689 0.38922 0.35309 0.38048 0.38235 0.35937
2208.680 0.35896 0.35284 0.38205 0.38094 0.33345 0.34898 0.42423 0.42606 0.37324 0.37749
2227.970 0.41684 0.40805 0.37809 0.36896 0.4139 0.4518 0.4309 0.4179 0.43653 0.4254
2247.259 0.4491 0.4613 0.424 0.42462 0.4845 0.5113 0.5574 0.5998 0.5643 0.572
2266.549 0.592 0.6263 0.5778 0.457 0.4493 0.5373 0.5679 0.566 0.5767 0.6329
2285.839 0.622 0.5548 0.5347 0.5717 0.5377 0.4556 0.4872 0.499 0.4662 0.4852
2305.129 0.4715 0.42396 0.39937 0.40792 0.40594 0.39762 0.4484 0.4521 0.41558 0.4407
2324.418 0.4842 0.5301 0.5428 0.554 0.6335 0.6775 0.6473 0.6432 0.6449 0.6551
2343.708 0.6927 0.6254 0.6058 0.681 0.6793 0.6283 0.5682 0.5342 0.5433 0.57
2362.998 0.5564 0.4886 0.5182 0.5269 0.4727 0.5147 0.547 0.5148 0.4897 0.4844
2382.288 0.4655 0.5228 0.5811 0.5793 0.5752 0.5344 0.5286 0.5053 0.509 0.4776
2401.578 0.40733 0.4729 0.4959 0.4569 0.41854 0.39546 0.42572 0.38569 0.38515 0.454
2420.867 0.3948 0.39511 0.4487 0.39455 0.33382 0.3161 0.36004 0.37712 0.341964 0.35232
2440.157 0.36453 0.38052 0.41122 0.40851 0.38831 0.37367 0.40773 0.42418 0.4045 0.3762
2459.447 0.345538 0.3911 0.40439 0.37768 0.473 0.4955 0.4374 0.4465 0.4573 0.4644
2478.737 0.43323 0.427 0.4927 0.4689 0.42729 0.4669 0.4891 0.5197 0.5151 0.5446
2498.026 0.5398 0.4598 0.5145 0.5911 0.5812 0.4957 0.4627 0.4923 0.4984 0.4333
2517.316 0.4175 0.39318 0.33054 0.41384 0.4509 0.39764 0.37498 0.35631 0.33452 0.3074
2536.606 0.34135 0.32957 0.34888 0.40016 0.344709 0.339024 0.2982 0.3237 0.41526 0.36697
2555.896 0.2912 0.340496 0.36171 0.4078 0.4458 0.353 0.35414 0.41706 0.4863 0.5237
2575.186 0.4748 0.4729 0.4865 0.4916 0.5265 0.5428 0.5041 0.4663 0.4754 0.4957
2594.475 0.5047 0.5165 0.5283 0.5776 0.5796 0.4835 0.4503 0.4395 0.455 0.4905
2613.765 0.5143 0.5566 0.5224 0.4774 0.4957 0.472 0.4799 0.4702 0.39645 0.3533
2633.055 0.40905 0.4902 0.512 0.5327 0.5144 0.472 0.42264 0.4563 0.4767 0.39884
2652.345 0.39984 0.41041 0.41992 0.4618 0.4797 0.4637 0.39658 0.35306 0.40981 0.465
2671.634 0.42711 0.4632 0.4933 0.39773 0.36268 0.43454 0.40917 0.41959 0.5077 0.5606
2690.924 0.6852 0.7159 0.6735 0.5843 0.5008 0.4612 0.5048 0.5398 0.38749 0.341679
2710.214 0.40046 0.4574 0.4831 0.41703 0.3771 0.36703 0.2956 0.2555 0.3065 0.36798
2729.504 0.38953 0.3223 0.2678 0.3003 0.2983 0.34929 0.39847 0.2807 0.2874 0.41746
2748.794 0.42666 0.35687 0.304 0.3109 0.33512 0.3181 0.36322 0.4792 0.4741 0.4943
2768.083 0.4736 0.379 0.4692 0.5384 0.5841 0.7279 0.7727 0.7669 0.8203 0.8438
2787.373 0.8905 0.9261 0.9594 0.9282 0.8883 0.9513 1.0066 0.908 0.8292 0.762
2806.663 0.6128 0.4809 0.39388 0.4503 0.5011 0.4694 0.40771 0.36428 0.340611 0.341043
2825.953 0.33333 0.37992 0.3074 0.2659 0.41388 0.42023 0.3115 0.2776 0.33174 0.2611
2845.242 0.158 0.109 0.125 0.203 0.184 0.186 0.2556 0.277 0.2816 0.2768
2864.532 0.215 0.163 0.143 0.23 0.232 0.16 0.223 0.228 0.143 0.107
2883.822 0.089 0.209 0.293 0.229 0.176 0.172 0.184 0.102 0.13 0.2658
2903.112 0.2479 0.177 0.227 0.279 0.2885 0.3086 0.338068 0.3075 0.298 0.3253
2922.401 0.32758 0.36168 0.3128 0.244 0.3045 0.37037 0.37946 0.296 0.2967 0.2732
2941.691 0.174 0.136 0.146 0.2769 0.2663 0.2588 0.35218 0.2882 0.2583 0.3076
2960.981 0.29 0.2676 0.2535 0.2589 0.2697 0.2887 0.2896 0.327 0.39821 0.35459
2980.271 0.40617 0.4513 0.4619 0.42597 0.3478 0.41642 0.4473 0.4571 0.3218 0.2655
2999.561 0.323 0.2958 0.2493 0.227 0.2926 0.301 0.2984 0.2409 0.193 0.222
3018.850 0.2826 0.337427 0.322 0.2992 0.212 0.159 0.278 0.345404 0.35266 0.4159
3038.140 0.42074 0.2559 0.153 0.205 0.2482 0.228 0.2625 0.42351 0.4828 0.4907
3057.430 0.4941 0.53 0.6109 0.5954 0.7121 0.9113 1.0095 1.1419 1.2082 1.1817
3076.720 1.1868 1.1557 1.1264 1.0598 0.9524 0.8369 0.7647 0.7657 0.6248 0.6175
3096.009 0.6837 0.5735 0.5091 0.5516 0.5615 0.514 0.4859 0.4923 0.4887 0.4705
3115.299 0.4464 0.37369 0.2905 0.35951 0.38475 0.35451 0.2793 0.3125 0.475 0.41986
3134.589 0.41886 0.42292 0.41912 0.4337 0.41482 0.41443 0.40969 0.37709 0.2874 0.2482
3153.879 0.246 0.198 0.273 0.2555 0.141 0.192 0.25 0.36937 0.39397 0.2911
3173.169 0.33461 0.37875 0.3072 0.2913 0.201 0 0.069 0.2559 0.39957 0.43184
3192.458 0.38458 0.3238 0.3155 0.36041 0.3287 0.2561 0.2935 0.4178 0.39109 0.298
3211.748 0.2774 0.4005 0.474 0.343229 0.2875 0.326 0.2702 0.221 0.2629 0.3104
3231.038 0.2883 0.2617 0.2459 0.2767 0.205 0.225 0.4487 0.471 0.35709 0.189
3250.328 0.149 0.3254 0.3236 0.2376 0.2431 0.42602 0.544 0.4454 0.42527 0.39784
3269.617 0.340681 0.2906 0.339317 0.33215 0.258 0.27 0.33347 0.278 0.2847 0.35222
3288.907 0.2645 0.2488 0.218 0.232 0.204 0.168 0.341575 0.38642 0.2904 0.37668
3308.197 0.5026 0.42398 0.4211 0.40134 0.36683 0.3119 0.236 0.262 0.316 0.342168
3327.487 0.3741 0.39394 0.2876 0.185 0.233 0.36696 0.2674 0.143 0.168 0.273
3346.777 0.3059 0.3038 0.35861 0.2919 0.194 0.255 0.2768 0.2573 0.179 0.208
3366.066 0.2928 0.307 0.4679 0.39062 0.175 0.109 0.18 0.164 0.184 0.3232
3385.356 0.218 0.2533 0.3196 0.2705 0.3549 0.39817 0.3738 0.2678 0.32753 0.4494
3404.646 0.4246 0.39146 0.3056 0.2583 0.3139 0.39656 0.3023 0.215 0.229 0.301
3423.936 0.2598 0.171 0.232 0.2494 0.2611 0.2515 0.215 0.2797 0.337297 0.2842
3443.225 0.3049 0.38035 0.38283 0.24 0.132 0.17 0.156 0.156 0.177 0.2621
3462.515 0.38668 0.2771 0.198 0.3664 0.40624 0.32952 0.343594 0.2424 0.178 0.254
3481.805 0.41784 0.41308 0.223 0.2537 0.2404 0.2824 0.42978 0.43346 0.337105 0.2955
3501.095 0.345867 0.37624 0.3199 0.2637 0.237 0.192 0.284 0.4853 0.4837 0.3032
3520.385 0.41264 0.5369 0.40486 0.2752 0.36175 0.3739 0.34803 0.4907 0.4694 0.2797
3539.674 0.121 0.2673 0.4642 0.42502 0.345524 0.2496 0.2647 0.41008 0.42266 0.342907
3558.964 0.258 0.204 0.225 0.2911 0.40237 0.5224 0.5142 0.43353 0.38464 0.2931
3578.254 0.3058 0.37895 0.4481 0.42925 0.2985 0.233 0.3222 0.37799 0.2919 0.3151
3597.544 0.474 0.5786 0.5052 0.39437 0.341032 0.3135 0.37835 0.42601 0.344821 0.42586
3616.833 0.4448 0.3229 0.2971 0.2854 0.168 0.133 0.2656 0.3014 0.284 0.3117
3636.123 0.4479 0.4992 0.37532 0.2862 0.32934 0.468 0.5901 0.5536 0.4309 0.43159
3655.413 0.5305 0.5548 0.38293 0.265 0.33099 0.39634 0.43159 0.37926 0.38545 0.32718
3674.703 0.2953 0.4885 0.5264 0.40856 0.39655 0.3218 0.2455 0.35117 0.4783 0.5324
3693.993 0.36159 0.117 0.177 0.3717 0.35471 0.2429 0.214 0.2447 0.3 0.3137
3713.282 0.4123 0.5004 0.42825 0.5029 0.5194 0.36061 0.37138 0.4667 0.5026 0.4413
3732.572 0.38605 0.40297 0.35878 0.3076 0.36648 0.35417 0.36492 0.4641 0.5829 0.6656
3751.862 0.5523 0.5695 0.6406 0.7284 0.7794 0.7724 0.8503 0.7721 0.5528 0.534
3771.152 0.5051 0.4372 0.4484 0.4449 0.561 0.5521 0.37961 0.35568 0.3245 0.34924
3790.441 0.342441 0.33037 0.5328 0.5941 0.4748 0.33558 0.38676 0.4849 0.3166 0.2574
3809.731 0.33417 0.2796 0.2715 0.228 0.176 0.226 0.2814 0.2996 0.40512 0.4961
3829.021 0.5669 0.6213 0.4659 0.2627 0.40845 0.5006 0.341363 0.2954 0.3154 0.33066
3848.311 0.4555 0.5215 0.42075 0.4689 0.5057 0.36719 0.39375 0.4986 0.36066 0.35881
3867.601 0.4477 0.5148 0.494 0.4939 0.6631 0.6719 0.684 0.6411 0.6124 0.8347
3886.890 0.8985 0.5942 0.2986 0.3111 0.4341 0.502 0.5426 0.5176 0.4856 0.4877
3906.180 0.42705 0.43442 0.4601 0.5097 0.5305 0.4395 0.4816 0.5797 0.535 0.5272
3925.470 0.5891 0.5132 0.5726 0.5042 0.4591 0.4496 0.37921 0.42053 0.443 0.525
3944.760 0.4822 0.39209 0.39194 0.4564 0.37306 0.2805 0.41144 0.5429 0.42726 0.345418
3964.049 0.42821 0.37507 0.211 0.2608 0.3993 0.40715 0.35259 0.345663 0.3518 0.3065
3983.339 0.3066 0.236 0.229 0.2951 0.32943 0.37916 0.37317 0.2617 0.337551 0.5374
##END=
