##TITLE=4,6-Dichloropyrimidine
##JCAMP-DX=4.24
##DATA TYPE=INFRARED SPECTRUM
##ORIGIN=EPA-IR VAPOR PHASE LIBRARY
##OWNER=SRD/NIST
Collection (C) 2018 copyright by the U.S. Secretary of Commerce
on behalf of the United States of America. All rights reserved.
##CAS REGISTRY NO=1193-21-1
##MOLFORM=C 4 H 2 Cl 2 N 2
##$NIST SOURCE=MSDC-IR
##STATE=gas
##XUNITS=1/CM
##YUNITS=ABSORBANCE
##XFACTOR=1.
##YFACTOR=0.001
##DELTAX=1.92898
##FIRSTX=549.8
##LASTX=4000.7
##FIRSTY=1.7042
##MAXX=4000.7
##MINX=549.759
##MAXY=0.64116
##MINY=0
##NPOINTS=1790
##XYDATA=(X++(Y..Y))
549.759 1.7042 1.2177 1.6592 1.5844 1.696 1.6402 0.523 0.774 1.4532 1.0422
569.049 0.487 0.717 0.785 0.34 0.437 1.2581 1.1004 0.845 1.7406 1.6566
588.339 0.152 0.141 1.2084 1.2132 1.3791 1.06299 0.759 1.5382 1.3798 0.888
607.628 1.09815 1.13952 0.9959 0.888 0.874 0.943 0 0.314 0.593 0.267
626.918 1.0101 1.3022 0.887 0.688 0.634 0.602 0.858 1.2316 1.6615 1.3466
646.208 1.2099 1.6719 0.926 0.664 1.15119 1.0363 1.15619 0.759 0.562 1.1818
665.498 1.9551 1.7862 1.5879 2.0527 1.6776 1.2512 1.3736 1.7326 1.7821 1.1998
684.787 1.2824 1.3604 1.2814 1.775 1.7048 1.5051 1.7958 2.56 3.13 3.31
704.077 4.36 5.33 5.64 6.52 8.81 11.91 15.04 18.47 21.84 26.17
723.367 30.28 31.98 32.26 31.58 30.67 32.57 36.61 37.84 34.84 29.41
742.657 24.17 20.19 16.92 14.38 12.97 12.9 12.78 10.52 8.47 7.28
761.947 6.35 6.24 6.31 6.27 6.08 6.07 6.7 7.06 7.61 9.31
781.236 11.76 15.69 20.72 28.52 39.47 54.25 74.03 96.56 120.47 144.44
800.526 165.66 180.52 187.56 187.9 184.88 177.61 163.23 143.58 117.06 84.88
819.816 57.42 40.82 33.74 31.39 30.44 30.65 30.26 28.81 27.32 25.92
839.106 25.55 25.97 26.7 28.49 30.82 33.3 35.9 38.04 40.01 42.75
858.395 45.17 43.79 37.77 31.75 27.62 24.35 21.61 18.14 15.1 12.59
877.685 10.59 8.92 7.18 6.38 5.33 4.7 4.17 3.61 3.73 3.59
896.975 2.97 2.57 2.58 2.28 2.17 2.24 2.54 2.83 2.26 1.985
916.265 2.1 1.5427 0.912 1.0354 2.0114 2.39 2.0102 1.7938 1.8972 2.0167
935.555 2.4 3.21 3.25 3.14 3.37 3.58 3.98 4.51 4.7 4.42
954.844 4.15 4.28 4.43 4.72 5.67 6.35 6.43 6.99 8.32 9.15
974.134 10.11 10.7 9.73 8.67 8.35 9.74 11.13 10.75 9.14 7.34
993.424 5.92 4.66 4.2 3.62 2.37 1.9969 2.23 1.8811 2.27 2.8
1012.714 2.75 2.68 2.5 2.33 2.26 2.58 3.6 3.99 4.16 5.21
1032.003 5.89 6.51 7.12 7.39 7.23 6.53 5.87 5.82 5.88 5.33
1051.293 4.63 3.81 2.7 2.74 3.18 4.28 5.37 7.8 12.51 18.6
1070.583 27.82 40.69 55.61 67.32 74.21 76.79 79.11 80.99 80.24 79.66
1089.873 73.02 56.54 39.68 25.74 15.23 10.01 6.68 4.56 4.78 3.76
1109.163 2.1 1.9448 2.23 2.79 2.88 3.35 2.91 2.45 1.8415 2.41
1128.452 3.69 3.44 3.42 3.54 3.5 4.78 5.3 5.05 5.63 5.42
1147.742 5.52 6.39 7.75 8.85 9.86 11.48 13 14.39 15.66 16.75
1167.032 17.61 17.75 18.93 21.21 22.23 21.84 22.51 23.19 22.85 22.64
1186.322 21.91 20.87 19.63 18.3 16.56 15.36 15.41 14.52 12.14 10.25
1205.611 7.3 5.35 5.91 6.18 5.09 3.64 2.73 1.9154 1.12224 1.2723
1224.901 2.26 2.21 1.2763 1.503 1.4326 1.16605 2.33 2.89 2.14 1.9965
1244.191 2.44 2.44 2.64 3.01 3.93 4.61 5.16 5.95 8.46 11.34
1263.481 13.63 17.76 22.06 26.71 33.5 41.63 49.52 57.46 66.38 74.09
1282.771 79.83 84.13 87.99 92.55 96.96 100.75 100.39 92.33 80.73 71.9
1302.060 67.01 63.17 57.33 49.1 40.04 31.8 25.08 20.28 16.62 13.95
1321.350 12.36 11.16 10.51 10.07 9.83 9.62 9.19 8.7 8.28 7.87
1340.640 7.37 6.93 6.32 5.89 5.71 5.73 5.84 6.08 6.28 6.24
1359.930 6.5 6.68 6.68 6.74 6.37 6.13 6.16 6.24 6.49 6.65
1379.219 6.9 7.27 7.51 7.32 7.08 6.91 6.68 6.37 6.28 6.35
1398.509 6.57 7.12 8.24 10.47 13.76 18.55 25.22 34.66 47.35 64.19
1417.799 85.49 111.19 135.28 153.88 163.55 164.56 162.28 158.94 150.45 139.38
1437.089 120.77 91.55 60.36 36.61 22.73 15.16 11.08 8.77 7.5 6.62
1456.378 6.28 6.22 6.41 6.67 6.87 7.29 7.83 8.33 9.18 10.38
1475.668 11.64 12.86 14.07 15.52 17.28 19.14 21.14 23.2 25.44 28.02
1494.958 30.82 33.91 37.18 40.99 45.93 52.35 62.19 74.95 90.17 109.96
1514.248 133.51 162.35 198.13 239.1 292.77 348.95 409.45 472.65 531.75 581.22
1533.538 618.71 641.16 636.79 603 548.49 481.4 407.96 337.29 271.27 207.48
1552.827 154.54 111.67 86.06 70.32 58.9 51.66 46.14 41.87 38.06 34.26
1572.117 30.81 27.99 25.49 22.54 19.86 17.52 15.05 12.38 10.33 8.9
1591.407 7.45 6.41 5.71 4.88 4.34 4.42 4.29 3.95 3.84 3.61
1610.697 3.62 3.58 3.77 4.1 4.22 4.22 4.22 4.28 4.44 4.63
1629.986 4.51 4.4 4.29 3.96 3.65 3.68 3.61 3.25 3.05 2.73
1649.276 2.44 2.54 2.57 2.34 2.37 2.82 3.01 2.97 3.24 3.6
1668.566 3.98 4.05 4.02 4.17 4.11 4.18 4.26 4.19 3.88 3.58
1687.856 3.47 3.51 3.41 3.18 3.17 3.14 3.28 3.51 3.74 3.98
1707.146 3.92 3.87 3.8 3.78 3.8 3.61 3.51 3.3 3.14 3.33
1726.435 3.17 2.85 2.84 2.77 2.57 2.48 2.4 2.37 2.52 2.46
1745.725 1.9774 1.7536 1.9142 1.9791 1.8078 1.6642 1.5657 1.2581 1.2266 1.4349
1765.015 1.2176 1.07308 1.3438 1.4639 1.2806 1.2882 1.2895 1.14796 1.3707 1.5014
1784.305 1.3327 1.3034 1.5272 1.451 1.2265 1.1455 1.1945 1.4107 1.5295 1.5166
1803.594 1.3674 1.6028 1.788 1.7081 1.7281 1.807 1.8711 1.8116 1.8885 1.8007
1822.884 1.7747 1.843 1.8738 1.7886 1.6058 1.5017 1.3037 1.12785 1.2156 1.2844
1842.174 1.2844 1.2953 1.2149 1.2568 1.2664 1.15736 1.15834 1.3236 1.4645 1.4427
1861.464 1.6148 1.7207 1.5321 1.4119 1.4924 1.6889 1.8021 1.98 2.19 2.24
1880.754 2.22 2.24 2.24 2.21 2.28 2.47 2.48 2.64 2.9 2.92
1900.043 2.98 3.25 3.58 3.49 3.52 3.95 4.04 3.84 3.91 4.03
1919.333 3.94 3.71 3.44 3.5 3.5 3.44 3.39 3.14 2.9 2.91
1938.623 2.95 2.99 2.86 2.71 2.88 2.91 2.89 2.69 2.47 2.59
1957.913 2.63 2.48 2.35 2.23 2.16 2.26 2.21 2.0428 2.0607 2.12
1977.202 2.0651 2.09 2.14 2.08 2.0204 1.9915 2.039 1.9755 1.7951 1.7145
1996.492 1.6946 1.5749 1.5856 1.4523 1.4315 1.5631 1.3188 1.3815 1.4229 1.3676
2015.782 1.3562 1.4593 1.7243 1.6206 1.412 1.4562 1.5006 1.5447 1.5431 1.4605
2035.072 1.3625 1.3349 1.4103 1.4746 1.4908 1.4088 1.4801 1.3355 1.14638 1.2359
2054.362 1.2601 1.4194 1.5241 1.5948 1.589 1.506 1.4859 1.3943 1.5027 1.6788
2073.651 1.7232 1.8202 1.8205 1.6835 1.6153 1.5565 1.6819 1.9291 2.1 2.38
2092.941 2.67 2.64 2.39 2.36 2.58 2.53 2.33 2.18 2.22 2.25
2112.231 2.0679 1.8728 1.557 1.5104 1.5512 1.574 1.624 1.4309 1.4566 1.4962
2131.521 1.4426 1.507 1.4479 1.3715 1.4185 1.5344 1.6774 1.7476 1.6053 1.6283
2150.810 1.9397 2.16 2.24 2.16 2.0075 2.0646 2.15 2.09 2.13 2.11
2170.100 2.0482 2.15 2.16 1.9138 1.572 1.6011 1.6714 1.3222 1.245 1.3574
2189.390 1.2252 1.2268 1.2228 1.15603 1.2288 1.2862 1.1748 1.2679 1.4657 1.4169
2208.680 1.3946 1.4161 1.5865 1.7837 1.7313 1.7298 1.7869 1.7245 1.8861 2.12
2227.970 2.11 2.0525 1.9992 2.2 2.45 2.4 2.36 2.41 2.44 2.38
2247.259 2.2 2.22 2.48 2.61 2.84 3.07 3.16 3.11 2.94 3.02
2266.549 3.39 3.62 3.33 3.16 3.18 2.93 2.68 2.56 2.51 2.31
2285.839 2.11 1.9301 2.0061 2.0044 1.7691 1.6809 1.592 1.6725 1.9571 2.0582
2305.129 2.0371 2.08 2.0505 2.0431 1.9774 1.9783 2.14 2.26 2.27 2.17
2324.418 2.25 2.41 2.37 2.34 2.53 2.63 2.61 2.73 2.77 2.67
2343.708 2.74 2.67 2.47 2.49 2.7 2.94 2.67 2.38 2.51 2.74
2362.998 2.84 2.75 2.57 2.46 2.41 2.28 2.19 2.18 2.19 2.07
2382.288 1.7664 1.6237 1.6416 1.5821 1.6381 1.7705 1.7942 1.5388 1.4844 1.7536
2401.578 1.8801 1.613 1.5975 1.7393 1.6613 1.6429 1.8614 1.8443 1.5351 1.5533
2420.867 1.5006 1.3465 1.269 1.2681 1.4525 1.5409 1.5943 1.7363 1.7356 1.6354
2440.157 1.8788 2.28 2.16 1.9431 1.8918 1.9387 2.07 2.18 1.9002 1.7679
2459.447 2.21 2.27 2.11 1.9694 1.8452 2.0673 2.28 2.2 2.12 1.9533
2478.737 2.15 2.26 1.8071 1.7198 1.813 1.7584 1.8744 2.0625 2.09 2.15
2498.026 2.35 2.42 2.58 2.83 2.8 2.8 2.68 2.75 3.11 3.17
2517.316 2.79 2.74 2.79 2.43 2.24 2.1 2.07 1.9308 1.6175 1.3152
2536.606 1.1832 1.1868 1.2308 1.3154 1.3757 1.4736 1.5686 1.545 1.6005 1.881
2555.896 1.8283 1.6594 1.5821 1.6302 1.8634 1.906 1.8981 2.1 2.0359 1.9915
2575.186 1.9757 1.7468 1.7768 1.8928 1.7057 1.61 1.6399 1.7777 1.8879 1.7192
2594.475 2.0648 2.16 1.9281 1.8185 1.8394 1.7286 1.4971 1.7838 1.9252 1.6987
2613.765 1.8389 2.007 1.7036 1.5349 1.5544 1.4671 1.4454 1.5875 1.7458 1.6973
2633.055 1.5543 1.7514 2.08 1.7755 1.3252 1.5957 1.7493 1.4449 1.6196 1.8836
2652.345 1.9949 2.0202 1.8869 1.7921 1.8892 1.8361 1.7155 1.9141 2.0002 2.0165
2671.634 1.9115 2.062 2.26 2.4 2.44 2.23 2.48 2.67 2.63 2.57
2690.924 2.37 2.75 2.92 2.83 2.89 2.86 3.2 3.48 3.36 3.28
2710.214 3.29 3.32 3.06 2.82 3.03 2.97 2.76 2.63 2.49 2.16
2729.504 1.8917 1.8259 1.7116 1.6751 1.5366 1.4459 1.5008 1.4733 1.2747 1.4083
2748.794 1.6045 1.5482 1.6154 1.1796 0.954 1.209 1.15877 1.028 0.916 0.9998
2768.083 1.13359 1.3563 1.4557 1.0452 0.9837 1.1834 1.1299 1.4737 1.3338 1.08738
2787.373 1.303 0.958 0.918 1.14465 0.812 0.665 1.2967 1.5943 1.2313 1.06771
2806.663 1.2087 1.316 1.2379 1.3573 1.453 1.3464 1.1773 1.3479 1.6663 1.8073
2825.953 1.5191 1.1971 1.13825 1.1692 1.4982 1.5127 1.5345 1.7871 1.5198 1.4749
2845.242 1.5979 1.5334 1.2895 0.952 0.963 0.9845 1.1696 1.3378 1.3898 1.3137
2864.532 1.3163 1.5261 1.3146 1.0127 1.14948 1.483 1.4761 1.314 1.2661 1.13772
2883.822 0.955 1.06723 1.06307 1.2521 1.5886 1.2239 1.0435 1.2355 1.5994 1.7226
2903.112 1.2771 1.0586 1.2541 1.13673 1.0441 1.1763 0.9993 1.0189 1.08643 0.792
2922.401 0.758 0.877 1.2197 1.3966 1.3886 1.3964 1.0297 1.0273 1.1869 1.2865
2941.691 1.2984 1.15694 0.9798 0.84 1.0042 0.9959 1.08358 1.4571 1.3365 1.13746
2960.981 1.3558 1.12277 0.854 1.3074 1.6983 1.6686 1.09097 0.938 1.0559 0.962
2980.271 1.08758 1.3073 1.3167 1.5866 1.4589 0.864 1.1728 1.434 1.1891 0.879
2999.561 1.09913 1.374 1.442 1.2337 1.09632 0.866 0.766 1.4372 1.5625 1.6588
3018.850 1.837 1.5393 1.4685 1.8288 1.9723 2.2 2.69 2.8 2.74 2.4
3038.140 2.65 3.34 3.62 4.24 4.86 5.23 5.44 5.43 5.74 6.21
3057.430 6.79 7.36 7.6 7.95 8.05 8.83 9.79 10.23 10.23 9.83
3076.720 10.13 10.36 9.95 9.79 9.71 9.57 9.06 7.91 6.84 6.48
3096.009 6.14 5.12 4.39 4.05 3.96 3.76 3.65 3.85 3.9 3.73
3115.299 3.81 3.84 3.15 2.77 2.88 2.96 2.85 2.37 2.14 1.7999
3134.589 1.3271 1.39 1.425 1.3278 1.4764 1.2326 1.2005 1.1751 1.0773 1.2552
3153.879 1.2905 1.4601 1.2689 1.1835 1.3196 1.258 1.2053 0.959 0.908 1.13709
3173.169 1.2532 1.2517 1.0254 0.873 0.779 1.0494 1.349 0.894 0.635 1.0185
3192.458 0.897 0.691 0.696 0.594 0.654 0.724 0.893 1.10192 1.2508 1.2152
3211.748 0.942 1.1192 1.3742 1.0095 0.576 0.791 0.798 0.704 0.823 0.9865
3231.038 1.2387 1.241 1.2295 1.2959 1.0509 0.498 0.282 0.545 0.722 0.802
3250.328 0.873 0.953 1.07341 1.1826 1.2283 1.0447 0.888 1.0278 0.911 0.881
3269.617 1.4175 1.2405 1.0347 1.13909 1.3991 1.08482 0.507 0.721 1.2046 0.853
3288.907 0.636 1.09135 1.197 1.06384 1.0191 1.0227 1.08369 1.3899 1.5159 1.1788
3308.197 1.08298 1.4797 1.09603 1.0113 1.298 0.702 0.73 0.968 0.877 1.06727
3327.487 1.0255 1.3729 1.6989 1.9717 2.08 1.6203 1.6044 1.7258 1.07161 0.638
3346.777 0.886 0.847 0.654 1.0565 1.3304 1.1856 1.1955 1.2843 1.3828 1.1816
3366.066 0.655 0.484 0.726 1.0199 1.06513 0.732 0.627 0.944 0.958 1.11163
3385.356 1.7049 1.7294 1.5197 1.4359 1.4261 1.0251 1.0297 0.876 0.671 0.939
3404.646 0.879 1.10382 1.3005 1.4083 1.2654 1.2618 1.4116 0.848 0.944 1.3311
3423.936 0.714 0.393 0.545 0.697 0.857 0.949 1.2242 1.4085 1.1744 1.3031
3443.225 1.2344 1.1774 1.1832 1.0195 0.793 0.768 1.07069 0.647 0.899 1.06929
3462.515 0.654 0.557 0.508 0.401 0.415 0.775 1.2255 1.3466 0.948 0.871
3481.805 1.0091 1.13851 1.1753 1.11825 1.12131 0.851 0.895 1.3848 1.3298 0.898
3501.095 0.966 0.866 1.0119 1.4321 1.4749 1.2245 0.609 0.663 1.0429 1.3112
3520.385 1.16334 0.958 0.9935 1.09662 0.9736 0.896 1.3119 1.6797 1.7406 1.12693
3539.674 0.781 1.0489 0.869 0.196 0.396 0.683 0.52 1.061 1.07254 0.869
3558.964 0.818 0.693 1.0598 1.10915 0.616 0.438 0.805 0.857 0.634 0.428
3578.254 0.625 1.0213 1.2448 0.9913 0.837 0.688 0.748 0.938 0.903 0.723
3597.544 0.75 1.0451 1.0208 0.609 0.88 1.4798 1.0268 0.866 0.713 0.576
3616.833 0.944 1.4626 1.4194 1.14216 1.2066 1.16511 0.838 0.723 0.863 1.0962
3636.123 0.955 0.727 0.614 0.562 0.878 0.886 1.0133 1.08482 1.0495 1.3902
3655.413 1.1977 1.15909 1.1976 0.91 0.9984 0.566 0.293 0.89 1.2471 1.10776
3674.703 0.761 0.71 1.2666 1.4702 1.5947 1.3686 1.11703 0.95 0.805 0.712
3693.993 0.25 0.564 1.12792 1.3519 1.346 1.0365 0.61 0.365 0.362 0.897
3713.282 1.275 1.09997 0.798 0.759 0.873 0.898 1.0506 0.832 0.477 0.742
3732.572 1.0195 0.86 1.16779 1.13542 0.753 0.633 0.921 1.6228 1.8538 1.6288
3751.862 1.9506 2.0437 1.1897 0.849 0.911 0.95 1.2503 1.5524 1.519 0.893
3771.152 0.94 1.462 1.2004 0.781 0.833 1.12356 1.06411 1.13225 1.4439 1.4234
3790.441 1.459 1.7117 1.2251 0.756 0.856 0.715 0.926 1.2292 1.285 1.5246
3809.731 1.4446 1.4667 1.3533 0.962 1.13022 1.272 1.3648 1.4783 1.014 0.699
3829.021 1.1507 1.7411 1.302 0.551 0.541 1.3608 1.8516 1.6587 1.4121 1.10202
3848.311 1.2158 1.3535 1.1877 1.12103 1.12287 1.08248 1.11276 1.0459 0.791 0.776
3867.601 1.1623 1.12463 0.093 0.073 1.0478 1.0349 0.934 0.958 0.656 0.69
3886.890 0.814 0.906 1.1324 1.404 1.2032 0.566 0.617 0.927 1.0337 1.16873
3906.180 1.16683 1.4868 1.2691 1.13885 1.6999 1.7781 1.5054 0.806 0.513 0.872
3925.470 0.9933 0.876 0.848 0.955 0.764 0.784 0.9704 0.977 1.181 0.802
3944.760 0.683 1.0173 1.12674 1.16943 1.0443 1.10353 0.871 0.939 0.947 0.954
3964.049 1.5036 1.7981 1.5689 0.724 0.808 1.0153 0.906 1.06971 0.813 0.879
3983.339 0.901 0.656 0.407 0.776 1.4358 1.5415 1.396 0.748 0.751 1.0252
##END=
