##TITLE=2,5-Dihydroxybenzaldehyde
##JCAMP-DX=4.24
##DATA TYPE=INFRARED SPECTRUM
##ORIGIN=EPA-IR VAPOR PHASE LIBRARY
##OWNER=SRD/NIST
Collection (C) 2018 copyright by the U.S. Secretary of Commerce
on behalf of the United States of America. All rights reserved.
##CAS REGISTRY NO=1194-98-5
##MOLFORM=C 7 H 6 O 3
##$NIST SOURCE=MSDC-IR
##STATE=gas
##XUNITS=1/CM
##YUNITS=ABSORBANCE
##XFACTOR=1.
##YFACTOR=0.001
##DELTAX=3.85796
##FIRSTX=501.5
##LASTX=4000.7
##FIRSTY=0.6323
##MAXX=4000.7
##MINX=501.534
##MAXY=0.082941
##MINY=0
##NPOINTS=908
##XYDATA=(X++(Y..Y))
501.534 0.6323 0.6781 0.791 0.8293 0.7743 0.8021 1.0412 1.251 1.501 1.901
540.114 2.381 3.091 4.021 4.621 5.071 5.531 5.411 4.731 4.031 3.581
578.693 3.041 2.611 2.421 2.371 2.331 2.471 2.791 2.881 2.801 2.711
617.273 2.571 2.421 2.291 2.271 2.341 2.401 2.511 2.831 3.391 4.061
655.852 4.971 6.361 8.141 10.451 12.931 14.691 16.071 17.091 16.731 15.321
694.432 13.601 11.761 9.951 8.291 7.001 6.311 6.131 5.661 4.791 4.061
733.011 3.411 2.851 2.491 2.471 3.011 4.191 5.931 7.681 8.281 8.341
771.591 9.041 9.111 8.641 9.481 11.931 15.101 18.921 22.641 24.221 23.051
810.170 20.771 18.111 14.921 12.131 10.601 10.011 9.191 8.381 8.531 8.141
848.750 6.721 5.981 5.691 5.301 5.171 4.731 3.611 2.711 2.211 1.721
887.330 1.231 0.9284 0.8947 0.9534 1.028 1.171 1.261 1.471 1.691 1.861
925.909 2.171 2.671 3.471 4.481 5.401 5.481 5.201 5.051 4.101 2.621
964.489 1.571 0.9298 0.5749 0.4006 0.3474 0.3395 0.3721 0.3632 0.374 0.5018
1003.068 0.5636 0.6012 0.5082 0.4892 0.5705 0.6034 0.5912 0.6009 0.6076 0.6359
1041.648 0.7781 0.8236 0.8097 0.8843 0.983 0.9775 1.0063 1.201 1.271 1.321
1080.227 1.541 1.891 2.421 3.071 4.171 5.361 6.391 7.241 8.371 10.051
1118.807 12.411 16.041 20.831 25.001 27.461 29.551 30.811 29.531 26.811 24.811
1157.387 25.361 27.591 28.761 28.621 28.181 26.821 24.111 22.791 23.511 24.661
1195.966 25.351 24.711 22.571 19.591 16.561 13.731 11.481 9.971 9.211 9.101
1234.546 9.621 10.701 12.481 15.081 18.451 22.921 28.711 35.891 44.231 52.301
1273.125 58.611 62.141 62.061 57.621 49.411 39.921 31.071 22.931 16.001 11.761
1311.705 10.201 10.101 10.611 11.321 11.991 12.301 12.091 11.451 10.631 10.081
1350.284 10.211 11.211 12.901 14.681 16.011 16.461 15.871 14.631 13.261 12.051
1388.864 11.211 10.911 10.941 10.881 10.551 10.021 9.411 8.781 8.191 7.681
1427.443 7.331 7.161 7.141 7.311 7.671 8.251 9.261 10.781 13.021 16.201
1466.023 21.061 27.831 36.441 44.661 49.831 51.831 50.121 44.141 35.751 27.111
1504.603 19.671 13.851 10.041 7.591 6.001 4.941 4.311 3.981 3.861 3.861
1543.182 3.821 3.761 3.781 3.831 4.021 4.441 5.181 6.451 8.311 10.761
1581.762 13.301 15.241 15.941 15.371 13.771 11.411 8.951 7.351 6.981 7.541
1620.341 8.401 9.151 9.691 9.931 9.801 9.501 9.471 9.911 11.311 14.651
1658.921 20.951 32.241 48.651 66.381 78.591 82.941 79.491 66.631 47.781 30.611
1697.500 20.221 15.251 12.971 11.901 11.131 10.201 8.931 7.351 5.501 3.931
1736.080 2.941 2.381 2.021 1.831 1.721 1.621 1.531 1.451 1.331 1.171
1774.659 1.0205 0.8655 0.7373 0.6552 0.6344 0.6491 0.6407 0.6321 0.64 0.6387
1813.239 0.5872 0.5296 0.4819 0.415 0.3609 0.3462 0.3436 0.3504 0.41 0.4969
1851.819 0.5486 0.5921 0.6617 0.6926 0.6949 0.6763 0.6653 0.6754 0.7175 0.7929
1890.398 0.8528 0.8914 0.8724 0.8228 0.7655 0.6756 0.5432 0.4339 0.3724 0.3203
1928.978 0.2825 0.2597 0.21302 0.19965 0.20202 0.1892 0.19873 0.19863 0.20222 0.2154
1967.557 0.21466 0.19386 0.17155 0.15825 0.14925 0.125365 0.121006 0.14066 0.126641 0.1087
2006.137 0.13607 0.15836 0.13423 0.1397 0.16089 0.1894 0.2542 0.2856 0.3167 0.3618
2044.716 0.4061 0.4452 0.4422 0.4414 0.443 0.4421 0.4692 0.4721 0.4602 0.4599
2083.296 0.4608 0.4494 0.4088 0.3805 0.3438 0.313 0.3131 0.3 0.2646 0.229
2121.875 0.17832 0.11862 0.122229 0.13179 0.13189 0.15561 0.128129 0.1002 0.1116 0.0991
2160.455 0.0642 0.0331 0.0296 0.0279 0.003 0.016 0.0343 0.0266 0.019 0.006
2199.035 0 0.004 0.007 0.0325 0.055 0.0769 0.11582 0.12727 0.17001 0.2513
2237.614 0.2801 0.2777 0.3237 0.3657 0.3608 0.3414 0.3024 0.2657 0.2484 0.231
2276.194 0.2143 0.2316 0.2706 0.2595 0.2379 0.21022 0.19166 0.2428 0.2602 0.22066
2314.773 0.2102 0.21024 0.2251 0.26 0.2537 0.2402 0.21188 0.18094 0.20393 0.21991
2353.353 0.2042 0.2531 0.3368 0.3539 0.3871 0.4015 0.3998 0.4274 0.4649 0.5068
2391.932 0.4966 0.4967 0.49 0.44 0.4331 0.4189 0.3969 0.4086 0.3946 0.4287
2430.512 0.4921 0.4993 0.5069 0.5056 0.4672 0.4609 0.4737 0.4513 0.4343 0.4353
2469.092 0.4431 0.4596 0.4297 0.4195 0.4407 0.431 0.3907 0.3677 0.4049 0.4136
2507.671 0.404 0.4346 0.4628 0.4968 0.5259 0.5741 0.6504 0.6891 0.6871 0.6923
2546.251 0.6824 0.6137 0.5793 0.5674 0.5496 0.5392 0.5141 0.4928 0.4945 0.5053
2584.830 0.5415 0.6018 0.6166 0.6143 0.6663 0.7258 0.7512 0.7796 0.7921 0.8082
2623.410 0.7925 0.7727 0.7669 0.7639 0.769 0.7564 0.757 0.8118 0.9048 0.9882
2661.989 1.0406 1.0685 1.0833 1.121 1.161 1.151 1.191 1.241 1.201 1.181
2700.569 1.271 1.361 1.481 1.761 2.231 2.841 3.651 4.591 5.341 5.681
2739.148 5.781 5.721 5.241 4.501 3.801 3.221 2.811 2.561 2.401 2.291
2777.728 2.321 2.361 2.391 2.521 2.751 3.111 3.641 4.391 5.411 6.751
2816.308 8.401 10.331 12.371 14.071 15.041 15.011 14.211 12.721 10.421 7.901
2854.887 5.721 4.141 3.121 2.441 1.991 1.701 1.461 1.241 1.097 1.0478
2893.467 1.0204 1.0096 0.9883 0.9482 0.9847 1.0043 1.0009 0.9837 1.0305 1.0774
2932.046 1.0626 1.121 1.171 1.171 1.251 1.331 1.331 1.351 1.391 1.421
2970.626 1.441 1.451 1.491 1.541 1.571 1.581 1.621 1.721 1.861 2.121
3009.205 2.361 2.671 3.111 3.571 4.061 4.421 4.581 4.471 4.151 3.801
3047.785 3.381 2.991 2.731 2.531 2.461 2.391 2.281 2.191 2.171 2.111
3086.364 1.981 1.811 1.591 1.451 1.421 1.401 1.341 1.331 1.411 1.451
3124.944 1.371 1.391 1.391 1.401 1.511 1.541 1.551 1.581 1.681 1.871
3163.524 2.011 2.151 2.311 2.471 2.721 2.951 3.161 3.441 3.711 3.991
3202.103 4.281 4.531 4.771 5.011 5.231 5.571 5.841 5.991 6.161 6.261
3240.683 6.371 6.431 6.391 6.271 6.131 6.011 5.811 5.711 5.611 5.431
3279.262 5.331 5.281 5.161 5.021 4.921 4.871 4.821 4.711 4.701 4.671
3317.842 4.621 4.641 4.671 4.721 4.891 5.021 5.141 5.241 5.221 5.121
3356.421 4.951 4.751 4.521 4.301 4.141 3.941 3.711 3.601 3.561 3.481
3395.001 3.441 3.371 3.311 3.291 3.201 3.191 3.101 2.941 2.921 2.871
3433.580 2.751 2.721 2.681 2.681 2.641 2.531 2.501 2.461 2.311 2.181
3472.160 2.151 2.111 2.011 1.901 1.951 1.921 1.791 1.781 1.761 1.641
3510.740 1.571 1.531 1.481 1.431 1.361 1.351 1.301 1.231 1.241 1.191
3549.319 1.0648 1.0499 1.0372 1.0058 0.9688 0.89 0.9117 0.8643 0.8114 0.8088
3587.899 0.8228 0.8572 0.8947 0.906 0.8803 0.9288 1.0041 1.131 1.351 1.631
3626.478 2.041 2.701 3.681 5.261 7.971 11.651 15.921 18.721 18.511 17.131
3665.058 14.921 10.511 5.611 2.721 1.591 1.121 0.8249 0.6346 0.5337 0.4913
3703.637 0.4519 0.435 0.3434 0.2853 0.3479 0.3496 0.3239 0.3442 0.362 0.2949
3742.217 0.2908 0.324 0.2529 0.2729 0.3427 0.3664 0.4374 0.4568 0.4026 0.407
3780.797 0.4567 0.4322 0.394 0.4169 0.4457 0.4292 0.468 0.4345 0.3683 0.3798
3819.376 0.4307 0.4669 0.42 0.4347 0.4665 0.4388 0.4117 0.4942 0.6021 0.6196
3857.956 0.549 0.5291 0.593 0.5605 0.4817 0.4341 0.3631 0.2832 0.2514 0.2374
3896.535 0.2728 0.3729 0.4851 0.4652 0.3508 0.3016 0.3377 0.3321 0.2442 0.1653
3935.115 0.14286 0.0962 0.0884 0.17846 0.19514 0.1737 0.16512 0.0812 0.1035 0.2283
3973.694 0.2664 0.20672 0.21812 0.2268 0.229 0.2329 0.21785 0.244
##END=
