##TITLE=N-Isopropylcyclohexylamine
##JCAMP-DX=4.24
##DATA TYPE=INFRARED SPECTRUM
##ORIGIN=EPA-IR VAPOR PHASE LIBRARY
##OWNER=SRD/NIST
Collection (C) 2018 copyright by the U.S. Secretary of Commerce
on behalf of the United States of America. All rights reserved.
##CAS REGISTRY NO=1195-42-2
##MOLFORM=C 9 H 19 N
##$NIST SOURCE=MSDC-IR
##STATE=gas
##XUNITS=1/CM
##YUNITS=ABSORBANCE
##XFACTOR=1.
##YFACTOR=0.001
##DELTAX=3.85796
##FIRSTX=501.5
##LASTX=4000.7
##FIRSTY=2.572
##MAXX=4000.7
##MINX=501.534
##MAXY=0.249002
##MINY=0
##NPOINTS=908
##XYDATA=(X++(Y..Y))
501.534 2.572 2.282 2.062 1.962 2.052 2.032 1.912 1.892 1.912 2.032
540.114 2.292 2.502 2.662 2.932 3.282 3.592 3.852 4.072 4.202 4.182
578.693 4.062 3.832 3.592 3.532 3.642 3.742 3.862 4.042 4.292 4.502
617.273 4.582 4.702 4.822 4.812 4.842 4.992 5.172 5.412 5.742 6.112
655.852 6.502 7.012 7.522 8.032 8.542 9.062 9.522 9.832 9.972 9.952
694.432 9.732 9.332 8.782 8.072 7.242 6.502 5.822 5.112 4.512 3.962
733.011 3.512 3.182 2.882 2.632 2.512 2.352 2.232 2.162 2.102 2.082
771.591 2.062 2.062 2.132 2.202 2.232 2.192 2.152 2.122 1.992 1.902
810.170 1.902 1.912 1.952 2.082 2.252 2.492 2.842 3.292 3.682 3.772
848.750 3.672 3.392 2.962 2.662 2.672 2.842 3.172 3.682 4.312 4.972
887.330 5.412 5.442 4.992 4.262 3.582 3.092 2.852 2.782 2.782 2.852
925.909 2.892 2.822 2.732 2.632 2.492 2.302 2.082 1.802 1.562 1.382
964.489 1.242 1.182 1.1152 1.122 1.242 1.352 1.492 1.662 1.732 1.832
1003.068 2.012 2.282 2.672 3.042 3.322 3.472 3.522 3.582 3.692 3.902
1041.648 4.182 4.352 4.332 4.262 4.112 4.052 4.222 4.572 5.172 6.092
1080.227 7.302 8.782 10.272 11.592 12.902 14.052 15.052 16.122 17.272 18.142
1118.807 18.512 18.452 17.942 17.092 16.232 15.672 15.552 16.112 17.602 20.282
1157.387 24.222 29.052 33.522 36.012 35.702 32.432 27.042 21.192 16.182 12.412
1195.966 9.782 7.922 6.602 5.702 5.042 4.622 4.362 4.232 4.312 4.492
1234.546 4.802 5.182 5.532 5.942 6.432 6.902 7.242 7.472 7.392 6.882
1273.125 6.242 5.672 5.262 5.062 5.162 5.562 6.192 6.982 7.902 8.912
1311.705 9.992 11.202 12.652 14.372 16.212 17.902 19.152 19.632 19.322 18.632
1350.284 18.112 18.082 18.562 19.602 21.142 23.242 25.742 27.212 26.282 23.302
1388.864 18.712 13.392 9.382 7.332 6.362 5.952 5.892 6.102 6.642 7.622
1427.443 9.242 11.652 14.922 18.992 23.282 27.052 29.992 31.772 31.942 31.112
1466.023 29.772 27.722 24.622 20.772 16.732 12.872 9.582 7.112 5.402 4.222
1504.603 3.432 2.862 2.452 2.142 1.892 1.682 1.532 1.422 1.312 1.242
1543.182 1.152 1.0823 1.0405 0.9966 0.9745 0.9673 0.9526 0.9054 0.863 0.8656
1581.762 0.863 0.832 0.806 0.8079 0.7762 0.7356 0.7551 0.7528 0.7442 0.7513
1620.341 0.7367 0.7235 0.7286 0.7561 0.8038 0.8263 0.8372 0.8632 0.8903 0.9257
1658.921 0.9643 0.9877 1.0139 1.0056 0.9733 0.9546 0.92 0.8748 0.8611 0.8518
1697.500 0.8329 0.8119 0.79 0.7807 0.7534 0.7166 0.719 0.7409 0.7489 0.7354
1736.080 0.7283 0.7272 0.717 0.7114 0.7035 0.7021 0.7079 0.6969 0.6834 0.6886
1774.659 0.6734 0.6669 0.6636 0.6504 0.6436 0.6407 0.6396 0.6198 0.6184 0.6293
1813.239 0.6094 0.6016 0.6032 0.5826 0.5674 0.5647 0.5579 0.5597 0.5497 0.5185
1851.819 0.5123 0.5032 0.4899 0.4777 0.4682 0.463 0.4556 0.4446 0.4061 0.3929
1890.398 0.3904 0.3866 0.3806 0.3516 0.3386 0.3439 0.3334 0.3275 0.3437 0.3466
1928.978 0.3504 0.358 0.362 0.3493 0.3341 0.327 0.3222 0.3122 0.3218 0.3337
1967.557 0.3238 0.2966 0.2546 0.2441 0.232 0.20421 0.19979 0.20339 0.20256 0.2029
2006.137 0.20028 0.20406 0.20731 0.2321 0.2583 0.2709 0.2741 0.2831 0.3029 0.2968
2044.716 0.29 0.2983 0.2861 0.2598 0.2411 0.2248 0.21124 0.21325 0.2158 0.21775
2083.296 0.2224 0.22049 0.2258 0.2337 0.2339 0.2255 0.2399 0.246 0.2513 0.2762
2121.875 0.2736 0.2793 0.3168 0.3288 0.3316 0.3442 0.3465 0.3462 0.3452 0.3718
2160.455 0.3769 0.3805 0.4044 0.4114 0.428 0.436 0.4394 0.4616 0.4992 0.5163
2199.035 0.4978 0.4627 0.4395 0.4181 0.4027 0.4335 0.4527 0.4414 0.4474 0.4575
2237.614 0.4608 0.46 0.4365 0.4115 0.4179 0.4071 0.4043 0.4098 0.4011 0.3987
2276.194 0.3937 0.4135 0.4342 0.4316 0.4221 0.4104 0.3981 0.3865 0.3773 0.3486
2314.773 0.33 0.3123 0.3074 0.3452 0.3616 0.3572 0.3795 0.4101 0.4225 0.4284
2353.353 0.4466 0.4554 0.4663 0.4954 0.5358 0.5618 0.5708 0.5671 0.569 0.5591
2391.932 0.5331 0.5188 0.5008 0.4912 0.5103 0.5308 0.5293 0.5209 0.5017 0.4842
2430.512 0.4805 0.4571 0.4554 0.4612 0.4344 0.4448 0.4468 0.4465 0.4713 0.5151
2469.092 0.5369 0.5721 0.6632 0.7074 0.7185 0.724 0.6878 0.6397 0.6301 0.6204
2507.671 0.6069 0.6309 0.6639 0.6699 0.6971 0.7434 0.7667 0.7956 0.8141 0.8514
2546.251 0.8937 0.955 1.0495 1.162 1.262 1.362 1.522 1.712 1.912 2.102
2584.830 2.332 2.572 2.812 3.002 3.122 3.232 3.332 3.382 3.412 3.462
2623.410 3.472 3.472 3.542 3.592 3.682 3.802 3.922 4.072 4.222 4.342
2661.989 4.442 4.482 4.412 4.262 4.022 3.802 3.652 3.522 3.422 3.392
2700.569 3.362 3.322 3.332 3.362 3.382 3.432 3.472 3.542 3.642 3.792
2739.148 3.982 4.162 4.342 4.602 4.912 5.212 5.572 6.042 6.572 7.182
2777.728 7.892 8.622 9.372 10.122 10.832 11.522 12.232 12.932 13.742 14.682
2816.308 15.772 17.052 18.562 20.362 22.722 25.962 30.642 37.382 46.702 58.822
2854.887 71.932 81.882 85.602 83.212 75.642 65.442 56.572 50.682 47.502 46.922
2893.467 48.952 53.502 60.392 69.642 81.462 96.412 116.142 142.172 174.042 208.552
2932.046 238.002 249.002 237.122 209.412 172.042 135.002 109.322 98.172 96.512 96.852
2970.626 93.612 84.442 70.152 53.832 39.172 27.942 20.082 14.872 11.492 9.292
3009.205 7.762 6.612 5.772 5.072 4.462 4.022 3.702 3.412 3.112 2.872
3047.785 2.722 2.602 2.532 2.452 2.312 2.182 2.112 2.072 2.062 2.052
3086.364 2.012 1.962 1.862 1.792 1.722 1.632 1.612 1.592 1.522 1.512
3124.944 1.512 1.502 1.512 1.512 1.552 1.612 1.602 1.592 1.622 1.592
3163.524 1.532 1.492 1.482 1.442 1.402 1.382 1.332 1.302 1.232 1.162
3202.103 1.122 1.0618 0.9961 0.9163 0.8474 0.7912 0.7145 0.6935 0.628 0.5568
3240.683 0.5569 0.561 0.5478 0.5274 0.4975 0.4648 0.4596 0.456 0.4373 0.4159
3279.262 0.3621 0.3189 0.3644 0.351 0.2766 0.2785 0.2896 0.3384 0.417 0.4641
3317.842 0.5346 0.6161 0.6572 0.6663 0.6419 0.6177 0.594 0.6119 0.6266 0.5803
3356.421 0.5582 0.5552 0.5076 0.4533 0.4383 0.4406 0.4902 0.4985 0.4826 0.5092
3395.001 0.4836 0.4575 0.513 0.5126 0.4583 0.4399 0.4662 0.4797 0.4678 0.4403
3433.580 0.3678 0.3362 0.3179 0.2698 0.254 0.21104 0.14577 0.15959 0.11461 0.126816
3472.160 0.14726 0.11313 0.14671 0.13803 0.131716 0.20787 0.21449 0.18193 0.18553 0.17628
3510.740 0.17834 0.1725 0.126471 0.131254 0.13624 0.094 0.0998 0.11372 0.128966 0.13966
3549.319 0.1059 0.0281 0.0536 0.0935 0.0713 0.1067 0.0948 0.0364 0.0246 0.004
3587.899 0 0.0227 0.0464 0.0719 0.0395 0.01 0.001 0.011 0.0574 0.0635
3626.478 0.0624 0.0713 0.1108 0.1014 0.0732 0.0646 0.0634 0.08 0.11686 0.14718
3665.058 0.14033 0.15859 0.15512 0.14608 0.14731 0.18154 0.17882 0.14913 0.14877 0.17126
3703.637 0.21072 0.2614 0.3037 0.2597 0.22007 0.2771 0.2773 0.2366 0.2588 0.2834
3742.217 0.2768 0.2455 0.2298 0.2816 0.3635 0.3707 0.2872 0.2656 0.3165 0.294
3780.797 0.2782 0.3309 0.3707 0.3945 0.3911 0.3752 0.3681 0.3311 0.3521 0.3673
3819.376 0.3476 0.3368 0.3623 0.391 0.318 0.2623 0.3148 0.375 0.3185 0.3276
3857.956 0.3548 0.2987 0.3452 0.4042 0.3309 0.2964 0.3209 0.3201 0.3167 0.3323
3896.535 0.3435 0.3142 0.3175 0.2994 0.3176 0.4412 0.4975 0.5358 0.5677 0.5103
3935.115 0.4697 0.4799 0.4795 0.418 0.4295 0.5223 0.5317 0.4749 0.4973 0.5286
3973.694 0.5029 0.4755 0.4975 0.4969 0.4402 0.4589 0.5085 0.4574
##END=
