##TITLE=3',4'-Dihydroxyacetophenone
##JCAMP-DX=4.24
##DATA TYPE=INFRARED SPECTRUM
##ORIGIN=EPA-IR VAPOR PHASE LIBRARY
##OWNER=SRD/NIST
Collection (C) 2018 copyright by the U.S. Secretary of Commerce
on behalf of the United States of America. All rights reserved.
##CAS REGISTRY NO=1197-09-7
##MOLFORM=C8 H8 O3
##$NIST SOURCE=MSDC-IR
##STATE=gas
##XUNITS=1/CM
##YUNITS=ABSORBANCE
##XFACTOR=1.
##YFACTOR=0.001
##DELTAX=1.92898
##FIRSTX=549.8
##LASTX=4000.7
##FIRSTY=4.677
##MAXX=4000.7
##MINX=549.759
##MAXY=0.099537
##MINY=0
##NPOINTS=1790
##XYDATA=(X++(Y..Y))
549.759 4.677 5.637 6.487 7.367 7.867 7.987 8.167 8.317 8.237 7.967
569.049 7.637 7.387 7.167 7.007 7.217 7.587 8.037 8.707 9.007 9.237
588.339 9.447 9.127 9.027 8.877 8.467 8.057 7.547 6.887 6.087 5.347
607.628 4.787 4.347 3.837 3.487 3.477 3.587 3.737 3.897 3.847 3.887
626.918 4.207 4.287 4.317 4.847 5.377 5.177 4.887 4.757 4.547 4.297
646.208 4.017 3.787 3.507 3.177 2.747 2.427 2.257 2.017 1.807 1.867
665.498 1.847 1.787 1.967 2.147 2.197 2.337 2.627 2.877 3.087 3.197
684.787 3.257 3.437 3.407 3.157 2.977 2.747 2.517 2.247 1.987 1.897
704.077 1.857 1.877 1.817 1.767 1.847 1.857 1.827 1.927 1.957 1.907
723.367 1.747 1.727 1.867 1.897 1.827 1.827 1.887 1.807 1.787 1.777
742.657 1.867 1.927 1.797 1.957 2.317 2.527 2.707 2.757 3.047 3.447
761.947 3.777 4.297 5.037 6.337 7.777 9.197 10.697 11.977 12.797 13.237
781.236 13.257 13.037 12.637 11.627 10.567 9.447 8.387 7.687 6.877 6.687
800.526 6.997 7.227 7.547 7.977 8.437 8.687 8.787 9.177 9.307 8.637
819.816 7.667 7.127 6.997 6.667 6.267 6.107 5.607 4.987 4.587 4.327
839.106 4.347 4.187 4.157 4.227 4.157 4.157 3.997 3.707 3.667 3.857
858.395 4.067 4.287 4.367 4.537 4.787 5.157 5.467 5.597 5.897 6.317
877.685 6.657 7.017 7.347 7.877 8.527 9.287 10.237 10.987 11.157 10.927
896.975 10.767 10.627 10.557 10.207 9.197 7.877 6.797 6.007 5.427 5.137
916.265 4.807 4.437 4.247 3.917 3.587 3.337 3.107 2.847 2.557 2.587
935.555 2.747 2.717 2.777 3.007 3.347 3.837 4.247 4.467 4.587 4.917
954.844 5.207 5.127 5.127 5.037 4.847 4.717 4.707 4.477 4.087 3.917
974.134 3.667 3.607 3.537 3.337 3.147 2.977 2.697 2.367 2.157 2.007
993.424 1.917 1.847 1.677 1.607 1.547 1.507 1.587 1.627 1.667 1.697
1012.714 1.697 1.797 1.917 2.077 2.387 2.177 2.117 2.277 2.227 2.297
1032.003 2.117 2.167 2.417 2.397 2.537 2.677 2.917 3.207 3.397 3.717
1051.293 3.967 4.047 4.217 4.597 4.827 4.907 4.927 5.007 5.217 5.567
1070.583 5.567 5.267 5.127 4.777 4.687 4.867 5.057 5.427 5.987 6.607
1089.873 7.327 9.017 10.957 12.767 15.447 18.537 21.557 24.127 26.017 27.517
1109.163 28.447 28.487 27.407 25.307 22.677 19.787 16.787 13.947 11.497 9.717
1128.452 8.487 8.027 7.907 7.867 7.917 8.317 10.007 12.237 15.087 18.697
1147.742 21.787 24.977 27.677 29.767 32.147 34.197 35.637 36.117 35.487 34.037
1167.032 32.477 31.207 29.857 28.337 27.027 25.697 24.137 22.907 22.397 22.527
1186.322 22.827 23.357 24.477 26.007 27.847 30.467 33.447 36.937 41.247 45.827
1205.611 50.877 55.617 59.557 61.607 60.947 59.397 56.807 52.817 47.257 40.047
1224.901 32.207 25.117 19.957 16.747 14.927 13.887 13.297 13.217 13.377 13.657
1244.191 14.427 15.137 16.137 17.737 19.577 21.967 24.697 27.897 31.857 36.297
1263.481 41.197 46.687 52.247 58.527 65.557 72.947 80.087 86.197 91.067 94.627
1282.771 97.487 99.467 99.537 96.497 90.487 82.687 74.257 65.897 57.897 50.297
1302.060 43.057 36.417 30.957 27.017 24.197 21.967 20.227 18.717 17.217 15.687
1321.350 14.147 12.727 11.637 10.897 10.317 9.947 9.787 9.697 9.717 9.927
1340.640 10.327 10.877 11.767 13.117 14.767 16.657 18.687 20.587 22.137 23.317
1359.930 24.097 24.397 24.007 22.947 21.377 19.447 17.497 15.797 14.187 12.737
1379.219 11.447 10.337 9.437 8.777 8.237 7.747 7.287 6.817 6.437 6.127
1398.509 5.957 6.007 6.147 6.487 6.977 7.627 8.497 9.607 10.967 12.637
1417.799 14.597 16.807 19.237 21.717 24.107 26.167 27.597 28.317 28.447 28.007
1437.089 26.887 25.157 22.817 20.057 17.317 14.867 12.857 11.377 10.237 9.277
1456.378 8.547 7.997 7.547 7.167 6.857 6.617 6.407 6.117 5.887 5.747
1475.668 5.527 5.347 5.317 5.437 5.597 5.837 6.307 6.997 7.837 8.937
1494.958 10.377 12.137 14.117 16.347 18.757 20.997 22.997 24.597 25.697 26.347
1514.248 26.487 26.057 25.057 23.507 21.467 19.287 17.187 15.217 13.337 11.647
1533.538 10.007 8.377 7.197 6.367 5.777 5.377 5.087 4.937 4.767 4.647
1552.827 4.707 4.767 4.807 4.877 5.047 5.187 5.347 5.667 6.007 6.337
1572.117 6.797 7.437 8.147 8.957 9.977 11.147 12.557 14.287 16.177 18.267
1591.407 20.597 23.007 25.417 27.707 29.657 31.207 32.317 32.937 32.887 32.107
1610.697 30.887 29.227 27.187 24.987 22.637 20.337 18.107 15.857 13.757 11.847
1629.986 10.197 8.817 7.737 6.907 6.257 5.787 5.447 5.227 5.117 5.097
1649.276 5.127 5.157 5.267 5.437 5.637 5.787 5.957 6.187 6.387 6.657
1668.566 7.067 7.607 8.357 9.297 10.527 12.087 14.147 16.767 20.097 24.207
1687.856 28.887 34.087 39.287 43.897 47.807 50.777 52.437 52.737 51.397 48.487
1707.146 44.307 39.047 32.887 26.407 20.577 15.867 12.127 9.457 7.677 6.397
1726.435 5.467 4.967 4.727 4.497 4.347 4.327 4.317 4.377 4.487 4.607
1745.725 4.727 4.827 4.897 4.927 4.907 4.777 4.617 4.407 4.077 3.707
1765.015 3.437 3.197 2.987 2.887 2.947 3.077 3.157 3.187 3.147 3.027
1784.305 2.787 2.507 2.307 2.147 1.997 1.817 1.697 1.617 1.557 1.487
1803.594 1.3808 1.3461 1.3186 1.2948 1.2594 1.2388 1.2172 1.2498 1.3069 1.2483
1822.884 1.2162 1.2433 1.2306 1.2167 1.1822 1.1636 1.2253 1.1967 1.1345 1.1369
1842.174 1.1515 1.2123 1.2538 1.2333 1.213 1.2176 1.2203 1.2351 1.2896 1.3514
1861.464 1.3649 1.3126 1.3211 1.3362 1.324 1.319 1.2862 1.3138 1.3243 1.2956
1880.754 1.2333 1.184 1.1917 1.1546 1.1078 1.0662 1.042 1.0122 0.9947 0.9827
1900.043 0.9604 0.9352 0.8756 0.8663 0.9111 0.9061 0.8759 0.9019 0.9337 0.8898
1919.333 0.8739 0.9066 0.9246 0.9017 0.8866 0.9047 0.8636 0.8735 0.9077 0.8804
1938.623 0.8971 0.9492 0.994 0.9903 0.9963 0.9997 1.0214 1.0595 1.0439 1.0166
1957.913 1.0195 1.0203 1.0288 1.0234 0.9656 0.9279 0.8902 0.8791 0.8781 0.91
1977.202 0.9016 0.8354 0.7914 0.7959 0.8071 0.8227 0.8687 0.8185 0.7641 0.7904
1996.492 0.8153 0.7945 0.8161 0.8052 0.7485 0.7605 0.7789 0.7584 0.7939 0.8273
2015.782 0.7852 0.8025 0.7906 0.7899 0.8884 0.8926 0.9154 0.9961 1.0772 1.1812
2035.072 1.1891 1.1851 1.2769 1.3453 1.3802 1.397 1.36 1.3282 1.3702 1.3428
2054.362 1.3074 1.2445 1.1308 1.1154 1.0922 1.0313 1.0053 1.016 0.9371 0.8553
2073.651 0.8928 0.8842 0.8152 0.7854 0.7559 0.7018 0.7074 0.7139 0.6896 0.7053
2092.941 0.7416 0.7895 0.7491 0.7105 0.7729 0.7792 0.7479 0.7372 0.7202 0.7409
2112.231 0.7401 0.7517 0.777 0.7703 0.7533 0.7201 0.6773 0.6459 0.6383 0.6588
2131.521 0.6105 0.5415 0.5795 0.5981 0.6118 0.5972 0.5693 0.6138 0.6109 0.6194
2150.810 0.6445 0.645 0.6125 0.6028 0.6806 0.6572 0.6061 0.6511 0.6632 0.6665
2170.100 0.703 0.6167 0.6107 0.6834 0.6645 0.6597 0.6447 0.6605 0.6342 0.539
2189.390 0.5033 0.5692 0.5706 0.5213 0.5468 0.6051 0.6348 0.6785 0.6886 0.6256
2208.680 0.67 0.6783 0.6405 0.6043 0.5234 0.5467 0.589 0.5682 0.5548 0.5398
2227.970 0.5174 0.5321 0.6027 0.697 0.7135 0.668 0.5786 0.5892 0.7264 0.7215
2247.259 0.7018 0.7476 0.7226 0.6655 0.6986 0.7829 0.8086 0.8166 0.8851 0.9004
2266.549 0.8698 0.9071 0.8816 0.8433 0.8571 0.8959 0.9316 0.8881 0.8836 0.9152
2285.839 0.9087 0.8918 0.9693 1.0492 1.0047 0.972 0.9804 0.9406 0.9138 0.96
2305.129 0.9429 0.9127 0.9169 0.9175 0.9734 0.9913 0.9265 0.8617 0.9084 0.9428
2324.418 0.9046 0.935 0.9287 0.9143 0.8931 0.8972 0.9627 1.0152 1.0373 1.02
2343.708 1.0094 0.9925 0.9355 0.935 0.9511 0.9825 1.0193 1.0273 1.0471 1.0235
2362.998 1.0596 1.1056 1.0945 1.0951 1.0936 1.0796 1.0664 1.0519 1.0478 1.0173
2382.288 1.0118 1.0258 0.9874 0.9758 1.0023 1.0071 1.0144 0.9795 0.9438 0.9913
2401.578 1.0155 1.0275 1.0061 1.0025 1.0334 1.011 0.9578 0.9437 0.9575 0.9093
2420.867 0.8385 0.8149 0.82 0.8406 0.8341 0.8075 0.8055 0.8061 0.8276 0.7973
2440.157 0.7372 0.6873 0.6974 0.6769 0.7399 0.8639 0.8357 0.8478 0.8464 0.8203
2459.447 0.864 0.8657 0.8631 0.8755 0.8627 0.9118 0.8485 0.8504 0.9647 0.9887
2478.737 1.0205 1.077 1.0254 1.0098 1.0998 1.175 1.1811 1.158 1.1696 1.1337
2498.026 1.1306 1.1314 1.1665 1.096 1.0614 1.149 1.0911 1.0846 1.1051 1.0555
2517.316 1.0376 0.9532 0.9776 1.0859 1.0591 1.0397 1.0677 1.0479 0.9941 1.0308
2536.606 1.0339 0.9539 0.93 0.9194 0.9888 1.0386 0.8852 0.79 0.8236 0.7784
2555.896 0.7595 0.8263 0.8329 0.8168 0.9047 0.9464 0.887 0.8579 0.8693 0.8851
2575.186 0.8636 0.8805 0.9481 0.9873 0.9491 0.9108 0.9033 0.8267 0.8389 0.8648
2594.475 0.8266 0.7712 0.6953 0.7181 0.8061 0.822 0.8147 0.8458 0.8089 0.8443
2613.765 0.9425 0.9065 0.8858 0.873 0.8976 0.9715 0.9634 0.9306 0.9391 0.9545
2633.055 0.9155 0.877 0.8724 0.8717 0.8177 0.8259 0.863 0.8511 0.8997 0.9246
2652.345 0.8415 0.8455 0.8295 0.7784 0.8118 0.7797 0.8046 0.8818 0.8123 0.7399
2671.634 0.8163 0.8748 0.8422 0.8248 0.8959 0.8084 0.7562 0.8737 0.847 0.7331
2690.924 0.7512 0.8113 0.7349 0.7076 0.6645 0.6145 0.5888 0.6332 0.7573 0.6847
2710.214 0.558 0.5863 0.7102 0.7308 0.6603 0.5903 0.5369 0.6531 0.6936 0.6471
2729.504 0.6382 0.6263 0.641 0.6937 0.7237 0.6423 0.6349 0.6442 0.5428 0.4889
2748.794 0.6541 0.7998 0.7655 0.7379 0.7042 0.7108 0.7995 0.7707 0.6991 0.6662
2768.083 0.6412 0.6191 0.6207 0.6845 0.6451 0.576 0.6543 0.7293 0.6361 0.6417
2787.373 0.6422 0.6232 0.7349 0.7278 0.6664 0.6105 0.5717 0.589 0.5624 0.5749
2806.663 0.6589 0.6756 0.658 0.5907 0.6126 0.7193 0.7598 0.5897 0.44138 0.4916
2825.953 0.555 0.6327 0.7052 0.6323 0.6273 0.713 0.6722 0.6577 0.6816 0.6695
2845.242 0.6693 0.6754 0.6491 0.6783 0.6627 0.6186 0.6538 0.6889 0.6693 0.703
2864.532 0.871 0.9112 0.8547 0.8365 0.8819 0.9332 0.9149 0.9749 1.0712 1.088
2883.822 1.0435 1.0216 1.0761 1.1177 1.059 0.9954 0.9294 0.9482 0.9848 0.9824
2903.112 1.0277 1.1591 1.2803 1.2434 1.1368 1.14 1.18 1.2176 1.298 1.417
2922.401 1.547 1.607 1.687 1.797 1.887 1.967 2.067 2.147 2.077 1.977
2941.691 1.977 1.987 1.947 1.847 1.747 1.687 1.737 1.817 1.947 1.987
2960.981 2.107 2.487 2.847 3.027 3.067 3.057 2.997 2.887 2.697 2.597
2980.271 2.507 2.397 2.277 2.117 2.047 2.017 1.937 1.867 1.887 2.067
2999.561 2.217 2.367 2.477 2.647 3.017 3.307 3.417 3.457 3.437 3.447
3018.850 3.387 3.237 3.057 2.917 2.937 2.857 2.737 2.797 2.887 2.897
3038.140 2.777 2.787 2.857 2.807 2.917 2.977 2.907 2.997 3.067 3.057
3057.430 3.067 3.197 3.217 3.227 3.337 3.387 3.477 3.507 3.517 3.477
3076.720 3.187 3.007 2.947 2.727 2.587 2.537 2.397 2.207 2.027 1.867
3096.009 1.817 1.637 1.537 1.447 1.387 1.407 1.2893 1.2605 1.1039 1.1168
3115.299 1.1663 1.0989 1.0143 0.9465 0.8963 0.8875 0.9193 0.8724 0.8294 0.8036
3134.589 0.7967 0.7395 0.7697 0.859 0.8093 0.6942 0.6246 0.6269 0.6478 0.5999
3153.879 0.605 0.5963 0.5387 0.5592 0.5502 0.6483 0.7808 0.7804 0.7109 0.5644
3173.169 0.557 0.6273 0.6642 0.7166 0.6886 0.5984 0.6189 0.6953 0.6872 0.6397
3192.458 0.6323 0.6545 0.6625 0.6367 0.677 0.8624 0.7976 0.7851 0.7985 0.6958
3211.748 0.7563 0.8367 0.8049 0.7361 0.7339 0.6905 0.7083 0.7641 0.7893 0.6874
3231.038 0.6012 0.6513 0.6552 0.6577 0.6536 0.551 0.5356 0.6359 0.6406 0.5692
3250.328 0.6445 0.6602 0.5756 0.5953 0.6498 0.5737 0.46944 0.4961 0.6189 0.5725
3269.617 0.5429 0.6424 0.6796 0.8721 0.8689 0.7655 0.7083 0.6474 0.7106 0.6763
3288.907 0.6124 0.7392 0.8365 0.7529 0.7257 0.7161 0.7718 0.746 0.587 0.6189
3308.197 0.6503 0.6523 0.7593 0.751 0.6781 0.6976 0.6776 0.6818 0.7017 0.6337
3327.487 0.531 0.5349 0.5977 0.5403 0.5594 0.5752 0.6639 0.7435 0.7747 0.7764
3346.777 0.6709 0.6946 0.7414 0.7116 0.6868 0.7062 0.7899 0.871 0.9544 1.084
3366.066 1.1125 1.1027 1.0824 1.145 1.2759 1.3675 1.427 1.417 1.437 1.467
3385.356 1.447 1.457 1.497 1.407 1.2657 1.2192 1.2756 1.1942 1.1774 1.1824
3404.646 1.0871 1.0647 0.8865 0.8449 0.8859 0.9242 0.9635 0.9045 0.8645 0.8933
3423.936 0.9208 0.919 1.0078 0.9416 0.8575 0.8213 0.8296 0.952 1.0073 0.8944
3443.225 0.8604 0.9555 0.8393 0.8327 0.8813 0.752 0.8122 0.8526 0.7383 0.7272
3462.515 0.8017 0.872 0.8339 0.7377 0.7784 0.8317 0.8602 0.815 0.7526 0.787
3481.805 0.8135 0.7185 0.7519 0.9133 0.8762 0.821 0.9683 1.0041 0.847 0.7846
3501.095 0.8132 0.8623 0.7735 0.8048 0.7742 0.6536 0.6206 0.5723 0.6634 0.7496
3520.385 0.6691 0.6577 0.7447 0.7349 0.6207 0.5959 0.5924 0.6581 0.8591 0.8998
3539.674 0.893 0.8631 0.9565 1.1567 1.2531 1.447 1.547 1.597 1.867 2.097
3558.964 2.247 2.427 2.667 2.887 3.257 3.857 4.487 5.207 6.337 8.007
3578.254 9.857 12.047 14.497 17.277 20.327 23.507 26.727 29.697 31.957 33.187
3597.544 33.757 33.707 33.167 31.947 29.577 26.117 22.317 18.767 15.587 12.717
3616.833 10.057 7.727 5.917 4.767 4.197 3.937 4.007 4.257 4.547 4.897
3636.123 5.497 6.317 7.297 8.667 10.257 11.947 13.807 15.817 17.957 19.897
3655.413 21.167 21.647 21.127 20.147 19.277 18.187 16.807 14.667 11.787 9.067
3674.703 6.757 5.027 3.897 2.817 2.007 1.647 1.387 1.1689 0.8677 0.7787
3693.993 0.8504 0.5779 0.4826 0.6164 0.51 0.42212 0.5578 0.6063 0.5145 0.5804
3713.282 0.6258 0.5064 0.5169 0.5884 0.3755 0.264 0.3527 0.4628 0.5291 0.5517
3732.572 0.6827 0.7309 0.5923 0.54 0.48164 0.42526 0.45597 0.363 0.3649 0.227
3751.862 0.159 0.3052 0.3296 0.3662 0.365 0.3103 0.314 0.3694 0.41585 0.394008
3771.152 0.3559 0.40256 0.41548 0.255 0.192 0.4102 0.390674 0.225 0.266 0.37888
3790.441 0.5087 0.3759 0.279 0.4519 0.5375 0.4996 0.6868 0.7146 0.5368 0.5042
3809.731 0.42646 0.44099 0.5435 0.5118 0.46159 0.43508 0.40783 0.42451 0.5003 0.631
3829.021 0.5729 0.6098 0.6048 0.40159 0.248 0.3494 0.42156 0.42455 0.554 0.4812
3848.311 0.38955 0.512 0.6303 0.4971 0.5114 0.5575 0.5356 0.5908 0.46936 0.5129
3867.601 0.47831 0.4034 0.5837 0.4992 0.43801 0.5843 0.5973 0.5419 0.5035 0.5638
3886.890 0.6105 0.6462 0.6611 0.45489 0.4909 0.6819 0.6441 0.5071 0.5395 0.6364
3906.180 0.6657 0.7412 0.677 0.5448 0.5537 0.46763 0.42305 0.42249 0.47925 0.5978
3925.470 0.2916 0.187 0.3054 0.2926 0.39995 0.251 0.222 0.42516 0.264 0.123
3944.760 0 0.001 0.095 0.174 0.269 0.3305 0.356 0.2996 0.3159 0.373
3964.049 0.42904 0.3413 0.28 0.2946 0.40255 0.45234 0.38499 0.38164 0.3872 0.2964
3983.339 0.276 0.316 0.212 0.23 0.242 0.153 0.3162 0.3384 0.184 0.229
##END=
