##TITLE=.alpha.-Methylcinnamic acid
##JCAMP-DX=4.24
##DATA TYPE=INFRARED SPECTRUM
##ORIGIN=EPA-IR VAPOR PHASE LIBRARY
##OWNER=SRD/NIST
Collection (C) 2018 copyright by the U.S. Secretary of Commerce
on behalf of the United States of America. All rights reserved.
##CAS REGISTRY NO=1199-77-5
##MOLFORM=C 10 H 10 O 2
##$NIST SOURCE=MSDC-IR
##STATE=gas
##XUNITS=1/CM
##YUNITS=ABSORBANCE
##XFACTOR=1.
##YFACTOR=0.001
##DELTAX=1.92898
##FIRSTX=549.8
##LASTX=4000.7
##FIRSTY=38.04
##MAXX=4000.7
##MINX=549.759
##MAXY=0.43674
##MINY=0.00007351
##NPOINTS=1790
##XYDATA=(X++(Y..Y))
549.759 38.04 40.99 45.53 51.74 59.11 66.7 71.78 73.66 73.93 73.41
569.049 71.36 66.4 60.07 55.51 53.22 52.9 53.53 53.13 51.83 50.28
588.339 47.95 44.16 38.67 32.88 28.35 24.75 21.91 19.43 17.31 15.85
607.628 14.69 13.72 12.92 12.12 11.73 11.76 11.34 10.67 10.46 10.61
626.918 10.55 10.27 10.34 10.39 10.23 10.32 10.72 11.68 13.11 15.36
646.208 18.93 23.29 27.54 30.16 31.15 31.55 31.44 30.27 27.34 23.73
665.498 20.81 19.24 18.82 18.92 19.72 20.91 22.31 24.04 26.3 29.21
684.787 32.18 35.45 38.99 42.17 45.25 47.76 48.26 46.95 44.99 42.64
704.077 39.96 36.82 33.63 30.72 28.21 26.09 24.63 23.88 23.62 23.9
723.367 24.33 25.2 26.19 27.12 28.51 30.04 31.63 33.48 35.36 37.28
742.657 39.71 42.37 44.84 47.54 50.26 52.39 54.05 54.89 53.98 51.56
761.947 48.37 44.94 41.55 38.01 34.36 31.09 28.44 26.34 25.01 24.76
781.236 25.48 26.59 28.3 30.52 32.33 33.32 33.31 32.51 30.94 28.3
800.526 24.72 21.02 17.91 15.37 13.6 12.27 11.04 9.9 8.83 8.08
819.816 7.55 7.29 7.33 7.34 7.34 7.44 7.77 7.98 7.88 7.75
839.106 7.49 7.07 6.72 6.12 5.51 5.1 4.66 4.27 3.87 3.78
858.395 3.8 3.81 3.78 3.95 4 3.91 4.04 4.09 4.29 4.58
877.685 4.68 4.83 5.26 5.62 5.73 5.9 6.07 6.28 6.66 6.85
896.975 6.84 6.93 7.35 7.63 7.77 8.28 8.87 9.36 9.78 10.16
916.265 10.61 11 11.36 11.76 11.79 11.55 11.18 10.79 10.41 9.89
935.555 9.42 9 8.68 8.36 8.18 8.13 8.14 8.23 8.22 8.39
954.844 8.79 9.26 9.99 10.8 11.5 12.52 13.88 15.28 16.74 18.16
974.134 19.74 21.42 22.52 23.67 24.94 25.84 26.3 26.35 26.03 25.54
993.424 25.24 25.18 25.07 24.09 22.35 20.95 20 18.85 17.25 15.27
1012.714 13.66 12.9 12.45 12.28 12.72 13.57 14.46 15.23 15.5 15.48
1032.003 15.77 16.04 15.99 15.56 15.41 16 16.37 16.62 17.46 18.3
1051.293 19.41 20.59 21.87 23.39 24.85 26.81 29.17 32.29 36.16 40.29
1070.583 45.29 51.56 58.95 67.72 78.43 91.97 108.21 127.25 150.24 175.79
1089.873 201.93 226.16 244.77 255.89 258.41 252.76 239.77 219.52 194.17 166.57
1109.163 140.01 118.26 101.11 87.37 76.65 68.31 62.27 57.56 53.52 50.7
1128.452 48.9 47.5 46.47 45.99 45.95 45.97 46.4 47.81 49.5 51.31
1147.742 53.81 57.03 61.21 66.44 72.62 80.47 91.02 103.94 118.21 133.35
1167.032 148.14 159.94 166.88 169.16 167.49 160.48 147.24 130.41 112.58 95.54
1186.322 80.29 66.98 56.23 47.73 41.18 36.26 32.29 29.44 27.17 25.4
1205.611 24.53 24.01 23.35 22.83 22.35 21.47 20.25 19.05 17.89 16.82
1224.901 15.83 14.83 14.14 13.9 13.84 13.6 13.64 13.62 13.6 13.93
1244.191 14.15 14.43 14.83 15.18 15.6 16.32 16.96 17.61 18.54 19.63
1263.481 20.74 21.86 23.19 24.57 26.12 27.8 29.62 31.56 33.5 35.65
1282.771 37.93 40.25 42.45 44.53 46.39 48.27 50.02 51.1 51.63 51.37
1302.060 50.38 48.95 46.95 44.48 41.83 39.27 37.14 35.37 33.75 32.29
1321.350 30.96 29.7 28.47 27.25 26.15 25.22 24.47 23.96 23.64 23.62
1340.640 23.96 24.61 25.73 27.33 29.35 31.94 35.17 39.12 43.83 48.84
1359.930 53.66 57.81 60.58 61.76 61.59 59.83 56.4 51.55 46.08 41.15
1379.219 36.92 33.61 31.31 29.9 29.14 28.63 28.3 27.88 27.01 25.69
1398.509 23.93 21.91 19.76 17.56 15.54 13.8 12.51 11.64 11.07 10.75
1417.799 10.74 10.85 10.95 11.18 11.53 11.96 12.51 13.13 13.87 14.67
1437.089 15.51 16.33 17.06 17.63 18.03 18.31 18.37 18.1 17.64 16.93
1456.378 15.99 14.92 13.75 12.69 11.86 11.14 10.66 10.42 10.33 10.37
1475.668 10.53 10.84 11.36 12.13 13.17 14.53 16.26 18.15 19.73 20.57
1494.958 20.65 20 18.81 17.19 14.97 12.48 10.13 8.39 7.34 6.69
1514.248 6.28 6 5.82 5.74 5.61 5.36 5.26 5.26 5.15 5.13
1533.538 5.06 4.88 4.79 4.77 4.72 4.61 4.51 4.42 4.39 4.47
1552.827 4.51 4.58 4.75 4.96 5.13 5.3 5.57 5.82 6.06 6.32
1572.117 6.59 6.88 7.09 7.26 7.46 7.63 7.82 8.03 8.26 8.61
1591.407 8.98 9.34 9.74 10.16 10.37 10.37 10.33 10.16 9.97 9.66
1610.697 9.33 9.32 9.5 9.79 10.44 11.48 12.83 14.62 16.76 19.28
1629.986 22.12 24.98 27.38 29.29 30.54 30.86 30.14 28.53 26.12 23
1649.276 19.72 16.96 14.57 12.86 11.81 10.96 10.37 10.11 9.85 9.7
1668.566 9.74 9.7 9.8 10.04 10.44 10.87 11.41 12.03 12.68 13.43
1687.856 14.2 15.03 15.92 16.84 17.87 19.07 20.35 21.77 23 24.24
1707.146 25.43 26.74 28.14 29.61 31.38 34.01 37.58 41.85 47.62 55.09
1726.435 64.59 76.96 93.36 114.93 145.52 185.57 233.65 290.27 343.63 385.72
1745.725 413.46 430.96 436.74 422.89 382.65 328.03 275.75 233.98 197.88 165.23
1765.015 137.18 113.8 94.32 78.92 66.39 56.63 49.13 43.42 39.07 35.73
1784.305 33.15 31.03 29.46 28.47 27.94 27.61 27.33 27.01 26.6 26
1803.594 25.08 23.92 22.49 20.95 19.43 17.89 16.45 15.14 13.89 12.72
1822.884 11.65 10.79 9.99 9.24 8.6 8.07 7.63 7.21 6.85 6.48
1842.174 6.24 6 5.74 5.54 5.38 5.25 5.1 5.03 4.89 4.72
1861.464 4.6 4.5 4.44 4.49 4.52 4.42 4.42 4.49 4.49 4.5
1880.754 4.53 4.55 4.6 4.52 4.43 4.35 4.17 4.04 3.99 3.88
1900.043 3.75 3.62 3.52 3.46 3.34 3.17 3.1 3.08 3.08 3.13
1919.333 3.18 3.27 3.39 3.51 3.67 3.84 4.02 4.22 4.33 4.44
1938.623 4.6 4.77 4.95 5.13 5.3 5.5 5.73 5.94 6.12 6.29
1957.913 6.35 6.29 6.14 5.88 5.54 5.05 4.47 3.99 3.57 3.13
1977.202 2.81 2.61 2.45 2.35 2.22 2.1 2.01 1.91 1.85 1.79
1996.492 1.78 1.85 1.81 1.81 1.79 1.77 1.71 1.61 1.69 1.67
2015.782 1.58 1.6 1.57 1.49 1.41 1.38 1.33 1.27 1.33 1.3
2035.072 1.23 1.24 1.16 1.14 1.19 1.22 1.26 1.27 1.24 1.25
2054.362 1.3 1.32 1.32 1.43 1.49 1.47 1.46 1.45 1.46 1.47
2073.651 1.5 1.54 1.55 1.52 1.45 1.42 1.43 1.44 1.36 1.28
2092.941 1.27 1.28 1.28 1.24 1.26 1.22 1.15 1.14 1.14 1.19
2112.231 1.26 1.21 1.12 1.12 1.13 1.15 1.13 1.08 1.17 1.23
2131.521 1.18 1.17 1.2 1.26 1.28 1.32 1.4 1.37 1.29 1.4
2150.810 1.43 1.39 1.45 1.51 1.52 1.48 1.49 1.58 1.63 1.65
2170.100 1.62 1.61 1.55 1.52 1.58 1.61 1.61 1.63 1.63 1.57
2189.390 1.57 1.62 1.62 1.53 1.42 1.36 1.34 1.27 1.22 1.24
2208.680 1.2 1.12 1.08 1.12 1.21 1.15 1.02 1.06 1.06 1.1
2227.970 1.15 1.12 1.18 1.26 1.21 1.1 1.11 1.11 1.11 1.12
2247.259 1.1 1.15 1.25 1.24 1.21 1.22 1.28 1.27 1.21 1.22
2266.549 1.27 1.24 1.2 1.17 1.15 1.17 1.21 1.23 1.18 1.07
2285.839 1.03 1.1 1.11 1.13 1.12 1.11 1.1 1.16 1.31 1.33
2305.129 1.37 1.52 1.67 1.83 1.9 1.93 1.99 2.01 2.08 2.07
2324.418 2.02 1.99 2.05 2.19 2.25 2.29 2.28 2.27 2.3 2.42
2343.708 2.52 2.41 2.39 2.43 2.34 2.27 2.22 2.13 1.98 1.95
2362.998 1.91 1.77 1.79 1.82 1.81 1.82 1.79 1.72 1.65 1.63
2382.288 1.56 1.56 1.61 1.57 1.54 1.52 1.58 1.62 1.51 1.42
2401.578 1.39 1.46 1.44 1.35 1.37 1.37 1.45 1.51 1.53 1.57
2420.867 1.61 1.52 1.43 1.52 1.53 1.54 1.6 1.62 1.62 1.57
2440.157 1.55 1.57 1.54 1.52 1.62 1.65 1.6 1.58 1.54 1.49
2459.447 1.43 1.5 1.59 1.55 1.5 1.48 1.49 1.39 1.28 1.33
2478.737 1.4 1.44 1.39 1.3 1.3 1.36 1.3 1.21 1.17 1.25
2498.026 1.4 1.32 1.19 1.11 1.13 1.2 1.22 1.2 1.17 1.18
2517.316 1.21 1.27 1.26 1.15 1.11 1.12 1.07 1.03 1.07 1.13
2536.606 1.22 1.23 1.2 1.23 1.26 1.25 1.2 1.14 1.07 1.11
2555.896 1.14 1.02 0.9235 1.05 1.19 1.06 0.988 0.9975 1.02 1.14
2575.186 1.07 0.9506 0.882 0.8784 0.937 1.06 1.09 0.9977 1.02 1.03
2594.475 1 1.09 1.09 0.9242 0.9571 1.05 0.9675 0.9298 0.9704 0.9471
2613.765 0.9366 0.8764 0.8114 0.9311 1.03 0.9276 0.8322 0.8472 0.8887 0.8839
2633.055 0.842 0.8566 0.9022 0.9161 0.9171 0.9139 0.885 0.8248 0.8645 0.8652
2652.345 0.796 0.9029 1.05 1.1 0.9788 0.8001 0.81 0.9001 0.8658 0.8093
2671.634 0.8429 0.7826 0.7454 0.7634 0.7487 0.7426 0.6717 0.6805 0.7263 0.821
2690.924 0.884 0.8495 0.7848 0.7374 0.7406 0.6992 0.7466 0.8743 0.8424 0.7741
2710.214 0.736 0.7347 0.7965 0.8842 0.9168 0.8649 0.773 0.6865 0.7716 0.8261
2729.504 0.8128 0.7878 0.8572 0.8925 0.8735 0.9191 0.9667 1.1 1.04 0.9566
2748.794 0.9998 1.11 1.22 1.23 1.14 1.21 1.29 1.2 1.15 1.07
2768.083 1.03 1.11 1.22 1.23 1.34 1.4 1.26 1.25 1.35 1.4
2787.373 1.44 1.42 1.48 1.59 1.54 1.5 1.64 1.77 1.89 1.95
2806.663 2.05 2.1 2.03 2.09 2.21 2.2 2.1 2.06 1.98 2.04
2825.953 2.21 2.17 2.13 2.3 2.37 2.37 2.41 2.5 2.61 2.53
2845.242 2.59 2.77 2.84 2.98 3.14 3.18 3.19 3.27 3.56 3.72
2864.532 3.91 4.27 4.33 4.46 4.73 4.82 4.94 5.13 5.17 5.15
2883.822 5.15 5.14 5.02 4.9 4.89 4.89 4.89 4.77 4.61 4.51
2903.112 4.51 4.62 4.7 4.85 5.04 5.19 5.48 5.81 6.21 6.75
2922.401 7.3 8 8.65 9.37 10.09 10.57 11.12 11.71 11.99 12.15
2941.691 12.29 12.23 12.17 11.99 11.69 11.37 10.98 10.77 10.65 10.35
2960.981 10.24 10.29 10.22 10.1 10.07 10.02 10.05 10.01 9.68 9.36
2980.271 9.12 8.96 8.76 8.75 8.78 8.95 9.32 9.73 10.07 10.39
2999.561 10.6 10.56 10.58 10.62 10.59 10.69 10.86 11.15 11.75 12.52
3018.850 13.46 14.75 15.97 17.44 19.12 20.25 21.34 22.09 22.28 22.25
3038.140 21.76 21.04 20.22 19.19 18.26 17.86 17.97 18.4 19.39 20.85
3057.430 22.97 25.79 29.1 32.7 35.9 38.09 38.93 38.87 38.23 36.57
3076.720 33.68 30.32 27.32 25.21 23.91 22.86 22.03 21.36 20.48 19.46
3096.009 18.35 17.23 16.22 15.22 14.2 13.07 11.86 10.84 9.94 8.91
3115.299 7.76 6.65 5.71 4.97 4.29 3.75 3.43 3.1 2.83 2.79
3134.589 2.65 2.53 2.41 2.46 2.51 2.44 2.35 2.29 2.32 2.29
3153.879 2.24 2.1 1.99 1.83 1.58 1.38 1.4 1.33 1.12 1.17
3173.169 1.22 1.21 1.04 0.8861 0.8334 0.8619 0.9083 0.846 0.7337 0.7015
3192.458 0.7164 0.82 0.8057 0.605 0.7772 0.8521 0.7593 0.7485 0.7453 0.7629
3211.748 0.7285 0.6696 0.5638 0.6368 0.6756 0.5123 0.4878 0.5669 0.6468 0.6988
3231.038 0.8139 0.7453 0.6977 0.7732 0.6138 0.6129 0.6874 0.6814 0.7276 0.6974
3250.328 0.7347 0.7252 0.4339 0.4058 0.5369 0.6107 0.6938 0.5924 0.6458 0.744
3269.617 0.6188 0.6047 0.7205 0.8954 1.06 0.7376 0.4366 0.5857 0.5191 0.518
3288.907 0.568 0.4169 0.4867 0.6823 0.599 0.4969 0.6303 0.7379 0.7868 0.8096
3308.197 0.8479 0.7209 0.6795 0.7409 0.7258 0.7449 0.7057 0.559 0.4424 0.3382
3327.487 0.493 0.6761 0.4292 0.4261 0.6001 0.6785 0.5994 0.6171 0.6908 0.6309
3346.777 0.6638 0.6982 0.5984 0.3978 0.2855 0.4465 0.518 0.504 0.6871 0.697
3366.066 0.7112 0.8419 1.04 1.18 1.19 1.11 1.2 1.26 1.06 1.18
3385.356 1.16 1.03 1.16 1.21 1.21 1.06 0.8945 0.7006 0.649 0.795
3404.646 0.7662 0.6731 0.5797 0.7287 0.7548 0.614 0.8472 0.816 0.6117 0.7113
3423.936 0.8712 0.87 0.8002 0.7467 0.8389 1.05 1.11 1.01 0.9578 0.9493
3443.225 0.9639 1.06 1.19 1.23 1.25 1.38 1.34 1.35 1.4 1.56
3462.515 1.69 1.91 2.4 2.64 2.86 3.11 3.35 3.64 3.77 3.61
3481.805 3.49 3.35 3.05 2.92 2.95 2.85 2.69 2.64 2.61 2.65
3501.095 2.45 2.16 2.06 1.92 1.87 1.73 1.56 1.66 1.74 1.77
3520.385 1.76 1.59 1.58 1.76 1.86 2.01 1.84 1.69 1.78 1.75
3539.674 1.8 2.01 2.01 2.09 2.35 2.55 2.98 3.64 4.39 5.35
3558.964 6.86 9.06 12.03 16.18 22.06 30.36 42.14 58.44 78.26 98.52
3578.254 115.54 127.49 134.56 135.64 128.73 113.98 94.44 74.49 55.56 38.71
3597.544 25.91 17.35 12.19 9.19 7.17 6.02 5.39 4.69 4.13 3.76
3616.833 3.34 3.13 2.99 2.77 2.57 2.53 2.36 2.17 2.24 2.04
3636.123 1.74 1.61 1.58 1.53 1.49 1.55 1.52 1.55 1.55 1.35
3655.413 1.29 1.3 1.24 1.19 1.18 1.23 1.26 1.21 1.2 0.9063
3674.703 0.7706 0.8563 0.9547 1.01 0.9579 0.9662 0.8963 0.8191 0.7779 0.9905
3693.993 0.9593 0.6672 0.6283 0.714 0.7055 0.6122 0.6457 0.779 0.7561 0.7235
3713.282 0.6917 0.562 0.5957 0.7325 0.7104 0.5645 0.5235 0.6508 0.5385 0.3029
3732.572 0.3585 0.485 0.4914 0.4389 0.4054 0.3492 0.6712 0.9602 0.5821 0.274
3751.862 0.3531 0.4778 0.4805 0.4219 0.3616 0.3981 0.4305 0.4199 0.3565 0.3028
3771.152 0.3423 0.3711 0.2278 0.1633 0.2798 0.2111 0.3914 0.419 0.2121 0.1835
3790.441 0.2524 0.3963 0.3096 0.1919 0.3086 0.4915 0.5164 0.4768 0.3252 0.41
3809.731 0.5658 0.4367 0.1561 0.094 0.3141 0.3234 0.225 0.2521 0.2837 0.3929
3829.021 0.3569 0.1697 0.3422 0.3812 0.272 0.2128 0.1943 0.252 0.2936 0.45
3848.311 0.4365 0.2381 0.2633 0.3785 0.4762 0.3831 0.3434 0.4654 0.3332 0.3203
3867.601 0.3714 0.4093 0.5795 0.541 0.5638 0.6157 0.6505 0.5705 0.3507 0.363
3886.890 0.5166 0.6723 0.7217 0.709 0.5721 0.5404 0.6379 0.7661 0.8013 0.7939
3906.180 0.7408 0.4872 0.3316 0.6015 0.7651 0.4541 0.4867 0.5507 0.6928 0.9125
3925.470 0.4703 0.3462 0.4292 0.4775 0.455 0.1959 0.2992 0.4711 0.4743 0.5971
3944.760 0.6448 0.6477 0.6789 0.4697 0.1258 0.07351 0.3308 0.6653 0.8191 0.7043
3964.049 0.3865 0.3224 0.3659 0.1666 0.2244 0.2595 0.3955 0.5613 0.694 0.6908
3983.339 0.4563 0.503 0.5629 0.4185 0.3063 0.3642 0.5171 0.7071 0.6639 0.5238
##END=
