##TITLE=4-Dimethylamino-2-methylbenzaldehyde
##JCAMP-DX=4.24
##DATA TYPE=INFRARED SPECTRUM
##ORIGIN=EPA-IR VAPOR PHASE LIBRARY
##OWNER=SRD/NIST
Collection (C) 2018 copyright by the U.S. Secretary of Commerce
on behalf of the United States of America. All rights reserved.
##CAS REGISTRY NO=1199-59-3
##MOLFORM=C 10 H 13 N O
##$NIST SOURCE=MSDC-IR
##STATE=gas
##XUNITS=1/CM
##YUNITS=ABSORBANCE
##XFACTOR=1.
##YFACTOR=0.001
##DELTAX=1.92898
##FIRSTX=549.8
##LASTX=4000.7
##FIRSTY=4.765
##MAXX=4000.7
##MINX=549.759
##MAXY=0.351075
##MINY=0
##NPOINTS=1790
##XYDATA=(X++(Y..Y))
549.759 4.765 4.505 4.395 4.285 3.675 3.355 3.075 2.545 2.555 2.755
569.049 2.845 2.675 2.535 2.585 3.105 3.535 3.455 3.865 4.335 4.545
588.339 5.095 5.405 5.855 6.675 7.425 8.395 9.195 10.065 11.185 12.045
607.628 12.425 12.065 11.365 10.885 10.165 8.835 7.425 6.055 5.115 4.305
626.918 3.345 3.025 2.725 2.315 2.275 2.315 2.135 2.085 2.195 2.105
646.208 2.085 2.105 2.065 2.135 2.245 2.155 1.865 1.635 1.505 1.455
665.498 1.625 1.675 1.415 1.245 1.265 1.335 1.335 1.345 1.515 1.715
684.787 2.015 2.455 2.795 3.055 3.195 3.535 3.945 4.265 4.805 5.355
704.077 5.795 6.095 6.155 6.195 6.285 6.305 5.795 4.675 3.735 2.945
723.367 2.425 2.275 2.295 2.205 2.045 1.975 2.075 2.135 2.295 2.555
742.657 2.705 2.905 3.185 3.545 3.935 4.505 5.075 5.835 7.005 8.275
761.947 9.815 12.055 14.765 18.085 21.975 25.835 29.455 32.345 34.375 35.735
781.236 36.355 36.045 35.245 34.305 33.645 33.895 35.205 37.355 39.895 41.295
800.526 40.905 39.745 38.395 36.665 33.555 29.265 25.085 21.345 18.035 15.505
819.816 13.825 12.955 12.465 12.135 12.295 12.835 13.965 15.285 16.255 17.165
839.106 17.755 18.155 18.385 18.115 17.335 15.945 14.345 12.855 11.335 10.085
858.395 8.805 7.575 6.575 5.745 5.225 4.745 4.295 4.115 3.825 3.605
877.685 3.455 3.325 3.445 3.305 3.165 3.265 3.465 3.675 3.565 3.555
896.975 3.715 3.835 3.605 3.375 3.375 3.195 3.185 3.215 3.045 2.755
916.265 2.745 2.925 3.015 3.005 2.985 3.275 3.585 3.955 4.175 4.295
935.555 4.735 5.015 5.275 5.885 6.465 7.085 7.835 8.895 10.305 12.075
954.844 14.175 16.425 18.545 20.155 21.255 22.025 21.825 20.885 19.815 17.965
974.134 15.595 13.275 11.405 9.955 8.945 8.245 7.845 7.485 7.415 7.735
993.424 7.805 7.795 7.985 8.345 8.765 9.095 9.355 9.905 10.485 10.695
1012.714 11.045 11.375 11.245 11.215 11.315 11.115 10.565 10.335 10.455 10.495
1032.003 10.555 10.665 11.225 11.775 12.245 13.135 13.975 14.325 14.835 15.755
1051.293 16.485 17.465 18.715 19.795 20.645 21.235 21.945 22.655 22.905 23.375
1070.583 23.965 24.515 25.385 26.075 26.835 28.415 30.815 33.125 35.645 39.575
1089.873 44.425 48.985 52.955 57.255 61.675 65.015 68.005 71.385 75.245 79.965
1109.163 85.085 91.225 98.245 105.485 112.065 115.885 116.065 112.745 106.515 98.075
1128.452 87.545 74.405 61.365 50.815 42.465 36.345 32.235 29.475 28.075 27.625
1147.742 27.305 27.125 27.405 27.215 27.105 26.895 25.885 25.105 23.885 22.595
1167.032 21.335 20.265 19.765 19.435 19.385 19.605 20.145 21.455 23.455 26.425
1186.322 30.895 36.915 44.985 55.275 65.725 74.725 81.835 86.535 88.855 88.495
1205.611 86.515 81.605 73.895 67.315 62.985 60.085 59.115 60.045 61.015 61.045
1224.901 60.825 59.995 58.365 55.915 52.085 47.375 42.375 37.265 32.425 28.735
1244.191 25.755 23.245 21.415 20.105 19.435 18.905 18.305 17.995 18.185 18.395
1263.481 18.885 19.875 21.195 22.965 25.275 28.535 32.705 37.415 42.355 46.715
1282.771 49.715 51.275 51.415 50.425 48.365 45.045 40.755 36.645 33.695 31.905
1302.060 31.135 31.125 31.415 31.625 31.585 31.355 30.915 30.075 29.165 28.355
1321.350 27.645 27.375 27.735 28.815 30.775 33.555 37.115 41.615 47.105 53.855
1340.640 62.085 71.845 83.205 96.135 110.305 124.785 138.365 149.785 157.475 160.635
1359.930 159.015 152.685 142.235 128.665 113.145 97.295 82.965 71.135 61.945 55.145
1379.219 50.185 46.385 43.355 40.955 38.865 37.025 35.315 33.855 32.685 31.765
1398.509 31.015 30.375 29.795 29.315 29.015 28.695 28.335 28.065 27.825 27.775
1417.799 28.055 28.605 29.125 29.555 29.995 30.475 31.165 32.045 32.965 33.875
1437.089 34.895 35.845 36.645 37.205 37.245 36.885 36.185 35.235 34.235 33.155
1456.378 32.025 31.045 30.485 30.345 30.445 30.795 31.295 31.745 32.295 32.925
1475.668 33.435 33.825 34.035 34.185 34.305 34.265 34.135 34.145 34.405 35.115
1494.958 36.485 38.625 41.525 45.155 49.305 53.565 57.745 61.295 63.835 65.255
1514.248 65.365 64.285 62.135 59.475 56.465 53.595 51.085 49.305 48.535 48.655
1533.538 49.635 51.635 54.845 59.635 65.805 73.245 81.935 91.495 101.235 110.565
1552.827 118.265 124.165 127.115 126.635 123.305 117.635 109.695 100.905 92.585 85.485
1572.117 80.915 79.635 81.765 87.255 96.085 108.755 124.875 144.745 167.825 193.855
1591.407 222.145 251.435 280.265 306.415 328.125 343.665 351.075 349.345 338.005 317.545
1610.697 290.275 258.115 223.995 188.555 154.975 126.265 102.285 83.385 69.175 58.645
1629.986 50.635 44.545 39.865 36.315 33.505 31.335 29.515 28.105 27.155 26.265
1649.276 25.445 25.015 24.775 24.555 24.825 25.515 26.445 27.615 29.075 30.725
1668.566 32.645 34.845 37.375 40.265 43.685 47.465 52.165 57.895 65.655 75.805
1687.856 88.445 104.705 124.485 146.975 173.905 205.985 240.305 274.275 292.345 293.665
1707.146 283.895 267.955 245.695 210.955 162.065 113.305 75.475 51.715 37.075 27.885
1726.435 21.885 17.815 14.935 12.955 11.355 9.985 9.015 8.185 7.645 7.225
1745.725 6.855 6.635 6.455 6.255 6.165 6.145 6.175 6.185 6.195 6.205
1765.015 6.225 6.135 5.895 5.605 5.305 5.025 4.765 4.555 4.375 4.255
1784.305 4.155 4.025 3.975 3.965 3.935 3.945 3.925 3.905 3.905 3.915
1803.594 3.905 3.815 3.815 3.885 3.865 3.815 3.805 3.805 3.815 3.905
1822.884 3.945 3.875 3.835 3.845 3.795 3.695 3.605 3.515 3.335 3.155
1842.174 3.025 2.925 2.845 2.805 2.815 2.775 2.745 2.795 2.915 2.955
1861.464 2.985 3.045 3.095 3.115 3.145 3.155 3.125 3.095 3.105 3.115
1880.754 3.065 3.045 3.005 3.005 3.055 3.055 3.065 3.115 3.135 3.175
1900.043 3.185 3.165 3.145 3.095 3.125 3.105 2.965 2.875 2.845 2.815
1919.333 2.795 2.795 2.825 2.835 2.845 2.835 2.755 2.725 2.715 2.655
1938.623 2.625 2.645 2.675 2.545 2.365 2.305 2.315 2.325 2.305 2.295
1957.913 2.365 2.345 2.305 2.345 2.385 2.385 2.395 2.395 2.405 2.445
1977.202 2.435 2.415 2.365 2.335 2.315 2.235 2.165 2.175 2.095 1.995
1996.492 1.945 1.865 1.845 1.875 1.895 1.845 1.765 1.705 1.785 1.835
2015.782 1.775 1.795 1.825 1.805 1.795 1.815 1.875 1.865 1.905 1.905
2035.072 1.845 1.865 1.885 1.855 1.785 1.825 1.885 1.955 2.055 2.085
2054.362 2.105 2.135 2.155 2.135 2.195 2.295 2.295 2.235 2.215 2.225
2073.651 2.185 2.155 2.165 2.145 2.085 2.085 2.115 2.175 2.175 2.085
2092.941 1.975 1.945 1.895 1.805 1.735 1.755 1.775 1.735 1.715 1.685
2112.231 1.665 1.655 1.645 1.555 1.535 1.545 1.465 1.405 1.475 1.425
2131.521 1.295 1.285 1.285 1.285 1.275 1.245 1.195 1.185 1.215 1.155
2150.810 1.1054 1.1213 1.0985 1.1196 1.205 1.205 1.1315 1.0933 1.0134 1.0013
2170.100 1.0654 1.0872 1.175 1.165 1.059 1.1244 1.1431 1.155 1.215 1.195
2189.390 1.205 1.245 1.265 1.275 1.295 1.335 1.395 1.415 1.415 1.405
2208.680 1.325 1.305 1.275 1.235 1.285 1.355 1.335 1.315 1.285 1.295
2227.970 1.365 1.365 1.315 1.355 1.395 1.385 1.415 1.455 1.445 1.425
2247.259 1.365 1.385 1.425 1.365 1.345 1.355 1.395 1.385 1.375 1.405
2266.549 1.365 1.355 1.305 1.275 1.295 1.285 1.345 1.375 1.395 1.485
2285.839 1.525 1.575 1.625 1.645 1.695 1.725 1.745 1.785 1.885 1.905
2305.129 1.925 1.945 1.965 1.935 1.985 2.085 2.085 2.105 2.095 1.975
2324.418 1.935 1.915 1.795 1.675 1.535 1.415 1.345 1.335 1.335 1.345
2343.708 1.355 1.325 1.295 1.255 1.235 1.185 1.185 1.265 1.315 1.295
2362.998 1.195 1.165 1.175 1.155 1.195 1.235 1.265 1.285 1.375 1.475
2382.288 1.495 1.505 1.485 1.495 1.595 1.575 1.525 1.525 1.575 1.585
2401.578 1.595 1.645 1.635 1.615 1.635 1.615 1.565 1.655 1.745 1.755
2420.867 1.725 1.805 1.905 1.915 1.925 1.945 1.985 2.045 2.095 2.125
2440.157 2.155 2.195 2.275 2.275 2.265 2.345 2.325 2.365 2.445 2.425
2459.447 2.425 2.465 2.435 2.415 2.385 2.365 2.355 2.385 2.415 2.345
2478.737 2.335 2.355 2.345 2.345 2.315 2.265 2.235 2.255 2.275 2.355
2498.026 2.445 2.405 2.415 2.425 2.545 2.715 2.715 2.755 2.795 2.725
2517.316 2.685 2.725 2.725 2.695 2.665 2.645 2.635 2.615 2.615 2.595
2536.606 2.515 2.425 2.405 2.395 2.305 2.245 2.265 2.335 2.305 2.305
2555.896 2.335 2.385 2.495 2.525 2.485 2.585 2.685 2.745 2.735 2.765
2575.186 2.855 2.945 3.045 3.035 3.095 3.225 3.345 3.495 3.635 3.715
2594.475 3.935 4.275 4.445 4.535 4.645 4.895 5.165 5.285 5.415 5.535
2613.765 5.705 5.825 5.835 5.825 5.825 5.715 5.615 5.455 5.335 5.295
2633.055 5.135 5.045 4.955 4.845 4.855 4.775 4.625 4.635 4.715 4.695
2652.345 4.805 4.955 5.075 5.215 5.315 5.465 5.735 6.085 6.385 6.835
2671.634 7.375 7.965 8.785 9.585 10.435 11.545 12.835 14.115 15.625 17.485
2690.924 19.525 21.795 24.395 27.315 30.525 34.125 38.095 42.255 46.445 50.235
2710.214 53.165 55.055 56.015 55.795 54.385 52.095 48.915 44.995 40.565 36.265
2729.504 32.425 29.235 27.025 25.565 24.815 24.835 25.285 26.035 26.765 27.195
2748.794 27.115 26.655 25.915 24.785 23.435 21.735 19.925 18.395 17.295 16.655
2768.083 16.185 16.055 16.455 16.975 17.485 18.125 19.025 19.995 21.135 22.515
2787.373 24.025 25.805 27.805 29.875 32.095 34.335 36.555 38.895 41.165 43.095
2806.663 44.945 46.535 47.725 48.865 49.945 50.725 51.285 51.765 52.165 52.405
2825.953 52.515 52.585 52.555 52.425 52.105 51.735 51.265 50.705 50.285 49.755
2845.242 49.125 48.555 48.115 47.695 47.265 46.965 46.625 46.305 46.165 46.025
2864.532 45.955 45.795 45.525 45.295 44.885 44.575 44.335 43.985 43.775 43.725
2883.822 43.565 43.485 43.545 43.645 43.745 43.765 43.975 44.155 44.075 44.055
2903.112 44.105 44.085 44.115 44.175 44.345 44.655 44.955 45.425 46.245 47.185
2922.401 48.275 49.735 51.365 52.985 54.465 55.785 56.865 57.565 57.895 57.885
2941.691 57.675 56.915 55.465 53.815 52.245 50.575 48.955 47.415 45.965 44.675
2960.981 43.575 42.595 41.645 40.845 40.135 39.485 38.865 38.325 37.745 37.195
2980.271 36.495 35.845 35.245 34.475 33.645 32.695 31.845 31.035 30.055 29.125
2999.561 28.175 27.305 26.615 25.925 25.235 24.595 24.035 23.625 23.265 22.825
3018.850 22.425 22.005 21.495 20.915 20.335 19.665 18.845 17.845 16.875 16.075
3038.140 15.255 14.385 13.565 12.945 12.515 12.105 11.675 11.305 11.115 11.005
3057.430 11.025 11.055 11.165 11.405 11.645 11.885 12.035 12.315 12.795 13.005
3076.720 13.055 13.305 13.585 13.985 14.255 14.055 13.965 13.855 13.535 13.295
3096.009 12.855 12.275 11.875 11.545 11.095 10.555 10.105 9.685 9.155 8.675
3115.299 8.245 7.835 7.335 6.745 6.255 5.685 5.065 4.655 4.275 3.825
3134.589 3.385 3.135 2.985 2.785 2.635 2.515 2.325 2.065 1.965 1.985
3153.879 1.835 1.865 1.915 1.785 1.765 1.715 1.655 1.595 1.575 1.555
3173.169 1.475 1.435 1.425 1.335 1.305 1.315 1.255 1.275 1.205 1.255
3192.458 1.305 1.265 1.355 1.315 1.195 1.155 1.225 1.245 1.175 1.137
3211.748 1.195 1.205 0.9988 0.9371 0.9418 0.896 0.8691 0.8767 0.8887 0.8413
3231.038 0.7557 0.66 0.7418 0.7463 0.6709 0.7292 0.7292 0.6321 0.6321 0.648
3250.328 0.6099 0.6146 0.5525 0.5403 0.7012 0.6035 0.4509 0.4145 0.4371 0.4896
3269.617 0.5215 0.6176 0.5416 0.4278 0.4229 0.502 0.5869 0.4935 0.3508 0.3121
3288.907 0.3768 0.4217 0.4344 0.4273 0.3411 0.3788 0.5039 0.569 0.5289 0.5742
3308.197 0.6691 0.64 0.6069 0.6076 0.5836 0.6557 0.6953 0.5297 0.4862 0.4955
3327.487 0.5029 0.5776 0.5459 0.5283 0.6128 0.632 0.5163 0.5034 0.6805 0.754
3346.777 0.8234 0.8482 0.7673 0.9172 1.0644 1.0698 1.265 1.605 1.785 1.825
3366.066 2.035 2.225 2.345 2.405 2.475 2.575 2.635 2.835 3.005 2.925
3385.356 2.895 2.915 2.945 3.035 3.115 3.135 3.035 2.965 2.775 2.585
3404.646 2.445 2.025 1.585 1.365 1.245 1.0811 0.995 0.8632 0.7476 0.7395
3423.936 0.7316 0.7923 0.6034 0.5379 0.4849 0.3875 0.4647 0.289 0.1282 0.152474
3443.225 0.2689 0.3231 0.3202 0.3373 0.3503 0.4049 0.351 0.3417 0.4098 0.3642
3462.515 0.3891 0.4715 0.3445 0.14265 0.152232 0.24456 0.2569 0.21094 0.22302 0.4956
3481.805 0.5482 0.3888 0.2989 0.22264 0.3077 0.2916 0.3671 0.4404 0.3437 0.3372
3501.095 0.3746 0.312 0.3447 0.4315 0.3176 0.2654 0.3201 0.305 0.3816 0.3146
3520.385 0.2517 0.3113 0.3151 0.3209 0.21675 0.16879 0.152456 0.2562 0.4383 0.365
3539.674 0.21819 0.15983 0.151713 0.1274 0.3104 0.4344 0.2556 0.125 0 0.146079
3558.964 0.3627 0.3598 0.3506 0.20998 0.17346 0.18352 0.1332 0.16102 0.1979 0.23059
3578.254 0.3535 0.3153 0.19259 0.2588 0.3482 0.2964 0.23654 0.2518 0.19606 0.21103
3597.544 0.14377 0.0532 0.2501 0.3728 0.3089 0.2543 0.22079 0.23935 0.2558 0.22023
3616.833 0.19972 0.16273 0.149301 0.20196 0.1235 0.3144 0.3676 0.24055 0.2799 0.3728
3636.123 0.3498 0.24426 0.22788 0.081 0.0752 0.17377 0.18606 0.24191 0.262 0.2624
3655.413 0.3016 0.3469 0.2773 0.18605 0.19637 0.2693 0.3156 0.2457 0.3117 0.4063
3674.703 0.3709 0.2601 0.247 0.3758 0.4366 0.41 0.3782 0.3195 0.3385 0.24121
3693.993 0.146219 0.3715 0.5792 0.525 0.4553 0.3622 0.3311 0.5459 0.4759 0.3985
3713.282 0.3932 0.16696 0.0551 0.146234 0.2793 0.2815 0.4061 0.4717 0.3928 0.4141
3732.572 0.475 0.5235 0.3751 0.2865 0.3016 0.23861 0.1016 0.102 0.339 0.3036
3751.862 0.2273 0.3144 0.3109 0.2618 0.18516 0.17667 0.3536 0.3799 0.3152 0.3909
3771.152 0.3607 0.4696 0.543 0.4718 0.4378 0.2932 0.21808 0.22949 0.3106 0.2379
3790.441 0.19633 0.3178 0.3189 0.3008 0.2504 0.3257 0.5228 0.4856 0.2944 0.3363
3809.731 0.3554 0.3144 0.3112 0.345 0.4569 0.41 0.3445 0.21887 0.20972 0.3403
3829.021 0.3715 0.3551 0.3242 0.3057 0.4461 0.5682 0.4452 0.3245 0.3105 0.3022
3848.311 0.2481 0.24374 0.2566 0.3052 0.4124 0.4229 0.4209 0.3854 0.3362 0.2872
3867.601 0.37 0.4423 0.5102 0.6393 0.612 0.5974 0.5648 0.5458 0.4939 0.3728
3886.890 0.4331 0.5209 0.6117 0.5763 0.4618 0.5612 0.6417 0.5635 0.362 0.5212
3906.180 0.6723 0.7205 0.7957 0.5222 0.5085 0.5818 0.3759 0.4855 0.6595 0.6258
3925.470 0.615 0.6266 0.7204 0.7275 0.6301 0.6615 0.7718 0.6701 0.6172 0.6151
3944.760 0.6479 0.707 0.6713 0.6953 0.6286 0.7046 0.8375 0.8824 0.7884 0.5955
3964.049 0.667 0.929 0.9148 0.6602 0.5824 0.4958 0.4604 0.6545 0.8507 0.9854
3983.339 0.9105 0.7015 0.5537 0.5754 0.728 0.6661 0.6955 0.7588 0.6891 0.6739
##END=
