##TITLE=N,N'-Bis(2-hydroxyethyl)dithioxamide
##JCAMP-DX=4.24
##DATA TYPE=INFRARED SPECTRUM
##ORIGIN=NIST Mass Spectrometry Data Center
##OWNER=NIST Standard Reference Data Program
Collection (C) 2018 copyright by the U.S. Secretary of Commerce
on behalf of the United States of America. All rights reserved.
##CAS REGISTRY NO=120-86-5
##MOLFORM=C 6 H 12 N 2 O 2 S 2
##$NIST SOURCE=MSDC-IR
##SPECTROMETER/DATA SYSTEM=HP-GC/MS/IRD
##STATE=gas
##XUNITS=1/CM
##YUNITS=ABSORBANCE
##XFACTOR=1.0
##YFACTOR=0.000005900
##DELTAX=4.0
##FIRSTX=550.0
##LASTX=3846.0
##FIRSTY=0.000496
##MAXX=3846
##MINX=550
##MAXY=0.059
##MINY=0
##NPOINTS=825
##XYDATA=(X++(Y..Y))
550.0 84 87 20 23 30 31 36 48 65 79
590.0 78 77 83 91 107 133 156 175 197 220
630.0 233 249 267 274 293 328 354 378 421 466
670.0 508 558 607 652 672 676 674 662 636 586
710.0 531 476 426 379 331 276 232 199 168 137
750.0 117 110 97 84 77 65 57 66 78 79
790.0 74 79 94 94 95 109 124 149 190 246
830.0 309 358 389 388 381 389 391 387 375 360
870.0 351 337 326 328 337 353 377 397 418 467
910.0 533 611 707 815 910 986 1020 970 851 701
950.0 550 420 336 293 270 259 251 245 253 271
990.0 303 343 387 446 513 580 667 792 963 1150
1030.0 1354 1596 1864 2140 2404 2645 2795 2813 2694 2450
1070.0 2123 1758 1415 1150 963 830 748 687 636 593
1110.0 542 487 444 408 369 345 325 304 293 279
1150.0 276 271 268 287 306 318 332 356 386 410
1190.0 433 460 493 524 546 553 555 560 565 573
1230.0 592 617 638 665 689 708 716 731 762 800
1270.0 843 882 915 944 960 976 1002 1040 1098 1174
1310.0 1274 1405 1567 1764 1980 2177 2309 2335 2251 2079
1350.0 1883 1722 1636 1644 1750 1944 2203 2494 2759 2932
1390.0 2990 2923 2758 2540 2298 2061 1840 1648 1494 1370
1430.0 1285 1243 1255 1328 1423 1485 1451 1341 1238 1203
1470.0 1217 1229 1237 1275 1396 1647 2058 2706 3673 5087
1510.0 6965 8854 10000 9643 7805 5382 3406 2203 1511 1103
1550.0 846 667 542 460 406 364 328 300 279 257
1590.0 233 213 195 175 157 140 133 130 128 125
1630.0 118 105 95 87 77 68 60 61 64 62
1670.0 53 48 50 45 41 45 43 38 38 40
1710.0 44 42 39 45 48 40 34 38 43 40
1750.0 36 38 36 29 24 21 19 17 15 15
1790.0 12 10 11 9 9 11 10 9 6 1
1830.0 2 5 3 1 1 1 0 3 8 7
1870.0 4 5 4 8 9 10 13 14 15 18
1910.0 18 21 23 24 25 23 25 25 19 20
1950.0 19 16 15 12 10 10 10 11 12 11
1990.0 13 13 14 16 14 13 19 19 16 16
2030.0 20 21 20 20 22 25 27 27 28 29
2070.0 30 33 37 36 36 35 34 34 35 39
2110.0 38 36 39 38 34 34 34 32 32 31
2150.0 32 34 30 30 33 35 32 27 23 24
2190.0 24 21 26 31 31 30 30 31 34 34
2230.0 31 31 28 29 32 33 29 27 28 27
2270.0 26 26 25 23 24 24 21 21 24 26
2310.0 27 23 22 22 21 21 24 25 23 22
2350.0 21 21 22 26 28 30 33 33 32 33
2390.0 34 32 31 28 29 30 30 31 29 26
2430.0 24 26 27 27 32 29 29 30 28 26
2470.0 28 28 25 25 28 31 34 32 29 30
2510.0 30 27 22 24 27 25 29 34 29 28
2550.0 30 33 30 33 33 30 31 35 37 38
2590.0 33 31 34 31 26 22 25 28 26 26
2630.0 25 23 25 29 35 35 35 40 42 38
2670.0 41 41 42 43 45 50 55 59 63 60
2710.0 56 58 59 64 65 64 67 70 70 71
2750.0 72 72 73 73 75 80 85 86 90 92
2790.0 96 101 104 114 118 125 133 134 143 151
2830.0 157 169 185 206 229 257 291 333 385 453
2870.0 531 609 694 785 876 947 971 933 874 831
2910.0 819 850 919 1023 1168 1338 1509 1664 1752 1758
2950.0 1667 1497 1307 1131 987 862 752 659 583 511
2990.0 439 383 334 295 275 261 244 229 224 217
3030.0 221 224 216 204 192 180 165 162 152 145
3070.0 142 137 138 137 138 144 147 151 158 165
3110.0 177 191 201 212 227 245 272 303 339 383
3150.0 423 471 535 604 690 798 919 1052 1204 1375
3190.0 1561 1752 1934 2103 2240 2318 2327 2271 2153 1990
3230.0 1800 1614 1436 1275 1142 1019 909 810 721 652
3270.0 588 519 461 416 371 327 290 263 240 218
3310.0 202 192 178 161 152 141 128 119 110 105
3350.0 99 93 93 104 110 108 105 98 83 74
3390.0 71 66 59 53 56 53 44 43 41 34
3430.0 34 34 32 34 26 22 29 31 32 32
3470.0 34 33 29 24 34 50 50 45 49 55
3510.0 69 81 82 83 84 78 76 86 91 91
3550.0 88 88 89 85 84 85 83 76 72 65
3590.0 67 76 70 63 65 64 66 70 72 81
3630.0 100 117 140 181 221 279 361 455 563 628
3670.0 627 572 495 403 308 231 169 126 99 82
3710.0 67 49 33 23 15 10 5 0 0 0
3750.0 0 0 0 0 0 0 0 0 0 0
3790.0 0 0 0 0 0 0 0 0 0 0
3830.0 0 0 0 0 0
##END=
