##TITLE=3,4-Dimethoxyphenethylamine
##JCAMP-DX=4.24
##DATA TYPE=INFRARED SPECTRUM
##ORIGIN=EPA-IR VAPOR PHASE LIBRARY
##OWNER=SRD/NIST
Collection (C) 2018 copyright by the U.S. Secretary of Commerce
on behalf of the United States of America. All rights reserved.
##CAS REGISTRY NO=120-20-7
##MOLFORM=C 10 H 15 N O 2
##$NIST SOURCE=MSDC-IR
##STATE=gas
##XUNITS=1/CM
##YUNITS=ABSORBANCE
##XFACTOR=1.
##YFACTOR=0.001
##DELTAX=1.92898
##FIRSTX=549.8
##LASTX=4000.7
##FIRSTY=3.218
##MAXX=4000.7
##MINX=549.759
##MAXY=0.073168
##MINY=0
##NPOINTS=1790
##XYDATA=(X++(Y..Y))
549.759 3.218 3.478 3.238 2.758 2.758 3.348 3.728 3.368 2.998 3.208
569.049 3.238 3.378 3.408 2.968 3.008 2.828 2.328 2.228 2.758 3.208
588.339 3.158 3.158 2.828 2.798 2.898 2.798 2.928 3.038 3.228 3.148
607.628 2.988 2.908 3.038 3.238 3.508 3.718 3.718 3.778 4.128 4.298
626.918 4.368 4.648 4.548 4.698 4.678 4.338 4.648 4.828 4.538 4.348
646.208 4.228 4.108 3.958 4.078 4.028 3.748 3.648 3.638 3.648 3.718
665.498 3.638 3.628 3.618 3.418 3.608 3.818 3.858 3.988 4.148 4.148
684.787 4.308 4.658 4.768 4.888 5.088 5.218 5.258 5.388 5.648 5.858
704.077 6.068 6.108 6.018 6.078 6.178 6.378 6.618 7.008 7.328 7.828
723.367 8.228 8.638 9.288 10.088 10.728 10.848 11.488 12.338 12.708 13.008
742.657 13.558 13.938 14.428 15.268 15.968 16.598 17.228 17.588 17.778 18.228
761.947 18.508 18.378 18.258 18.158 18.058 18.248 18.268 18.218 18.308 18.338
781.236 18.338 18.178 18.078 17.898 17.648 17.398 17.208 16.798 16.388 16.288
800.526 16.228 15.918 15.238 14.808 14.398 13.808 13.338 12.968 12.408 11.558
819.816 10.908 10.268 9.418 8.598 7.788 7.228 6.858 6.308 5.908 5.848
839.106 5.818 5.588 5.478 5.628 5.588 5.358 5.288 5.318 5.328 5.368
858.395 5.428 5.268 5.118 5.108 5.168 5.198 5.278 5.298 5.298 5.268
877.685 5.138 5.008 4.888 4.828 4.678 4.528 4.468 4.358 4.108 3.818
896.975 3.478 3.158 3.028 3.198 3.458 3.488 3.368 3.618 3.628 3.248
916.265 3.248 3.448 3.408 3.398 3.568 3.608 3.698 3.798 3.788 3.728
935.555 3.828 3.728 3.548 3.478 3.378 3.388 3.468 3.498 3.188 3.268
954.844 3.578 3.558 3.608 3.728 3.868 3.898 3.908 3.938 4.018 4.438
974.134 4.708 4.688 4.878 5.148 5.408 5.538 5.688 6.188 6.798 7.378
993.424 7.868 8.368 8.948 9.618 10.368 11.368 12.538 13.858 15.428 17.128
1012.714 19.098 21.428 24.038 26.368 28.348 30.378 32.398 34.458 36.008 36.558
1032.003 36.408 35.998 34.928 33.388 31.988 30.188 27.598 24.768 22.248 19.838
1051.293 17.928 16.228 14.968 14.458 13.648 13.138 13.008 12.518 11.988 11.628
1070.583 11.488 11.078 10.418 9.948 8.918 8.008 8.068 7.658 6.598 6.068
1089.873 5.868 5.808 6.118 6.478 6.438 6.368 7.308 8.138 8.628 9.738
1109.163 10.798 12.178 13.698 15.348 17.488 18.858 20.308 21.838 23.238 23.998
1128.452 24.098 24.838 25.078 24.708 24.068 23.548 23.248 22.988 22.848 22.738
1147.742 22.518 22.098 21.938 21.578 20.858 19.908 18.698 17.648 16.328 14.588
1167.032 13.448 12.668 11.878 10.888 10.178 10.248 10.098 9.808 10.018 9.968
1186.322 9.678 9.808 9.648 9.508 10.068 10.188 10.128 10.258 10.848 11.808
1205.611 12.708 14.238 15.748 17.008 18.598 20.648 23.078 25.678 28.038 30.268
1224.901 32.308 33.838 35.038 35.678 36.088 36.558 36.388 35.928 35.498 34.948
1244.191 34.458 34.478 34.758 35.608 37.298 39.588 42.378 45.658 49.698 54.278
1263.481 58.828 63.028 66.688 69.378 70.848 70.668 69.108 66.458 62.558 58.198
1282.771 53.808 49.118 44.238 39.498 35.518 32.078 28.898 26.148 23.738 21.778
1302.060 20.058 18.378 16.948 15.678 14.518 13.558 12.708 11.908 11.318 10.748
1321.350 10.208 9.898 9.598 9.358 9.228 9.038 8.838 8.698 8.538 8.308
1340.640 8.068 7.788 7.468 7.268 7.108 7.018 6.898 6.648 6.518 6.378
1359.930 6.218 6.178 6.018 5.858 5.858 5.838 5.868 5.878 5.868 5.958
1379.219 6.038 6.068 6.058 6.098 6.228 6.338 6.418 6.648 6.978 7.558
1398.509 8.368 9.298 10.418 11.628 12.878 14.008 14.918 15.568 15.868 15.828
1417.799 15.358 14.548 13.638 12.708 11.858 11.248 11.018 11.138 11.588 12.278
1437.089 13.148 13.978 14.678 15.268 15.658 15.878 16.018 16.058 16.178 16.358
1456.378 16.688 17.178 17.628 18.148 18.548 18.828 18.958 18.818 18.478 18.148
1475.668 17.668 17.098 16.818 16.828 17.278 18.288 19.838 22.088 25.328 29.358
1494.958 34.218 40.278 47.088 54.128 60.918 66.618 70.948 73.168 72.638 69.528
1514.248 64.178 57.218 49.208 41.338 33.688 27.328 22.228 18.228 15.178 12.928
1533.538 11.218 9.988 9.088 8.358 7.748 7.218 6.818 6.598 6.398 6.158
1552.827 6.118 6.178 6.258 6.358 6.628 6.908 7.268 7.748 8.208 8.678
1572.117 9.358 10.008 10.488 10.998 11.398 11.508 11.358 11.178 10.908 10.588
1591.407 10.288 10.038 9.758 9.518 9.398 9.488 9.608 9.678 9.758 9.778
1610.697 9.728 9.538 9.368 9.158 8.828 8.558 8.238 7.738 7.258 6.858
1629.986 6.438 5.978 5.498 5.088 4.718 4.438 4.088 3.778 3.588 3.328
1649.276 3.178 3.018 2.808 2.708 2.538 2.368 2.318 2.248 2.188 2.138
1668.566 2.088 1.968 1.888 1.878 1.808 1.758 1.728 1.718 1.758 1.768
1687.856 1.708 1.688 1.688 1.708 1.718 1.648 1.668 1.688 1.658 1.688
1707.146 1.638 1.518 1.568 1.598 1.528 1.588 1.668 1.618 1.558 1.598
1726.435 1.608 1.478 1.458 1.518 1.428 1.378 1.448 1.458 1.378 1.428
1745.725 1.508 1.458 1.388 1.378 1.408 1.378 1.298 1.328 1.368 1.348
1765.015 1.358 1.278 1.228 1.238 1.238 1.238 1.188 1.188 1.218 1.198
1784.305 1.1544 1.1461 1.228 1.298 1.298 1.298 1.278 1.218 1.238 1.238
1803.594 1.218 1.248 1.248 1.168 1.158 1.228 1.248 1.288 1.328 1.368
1822.884 1.338 1.278 1.268 1.248 1.288 1.318 1.338 1.358 1.378 1.408
1842.174 1.438 1.498 1.468 1.428 1.418 1.418 1.458 1.498 1.488 1.468
1861.464 1.508 1.478 1.478 1.508 1.448 1.388 1.348 1.328 1.298 1.258
1880.754 1.288 1.268 1.188 1.1116 1.118 1.0768 1.004 1.0138 1.0178 0.9494
1900.043 0.9592 1.0046 0.9753 0.9709 0.9444 0.9673 1.0062 0.9554 0.9717 1.0071
1919.333 1.0152 0.9926 0.9369 0.9326 0.9408 0.9408 0.8798 0.8538 0.9032 0.9742
1938.623 0.9631 0.8976 0.9348 1.0017 1.0595 1.1293 1.1285 1.0538 1.026 1.0397
1957.913 1.0731 1.0831 1.0864 1.168 1.198 1.198 1.188 1.178 1.188 1.228
1977.202 1.228 1.238 1.268 1.248 1.278 1.308 1.348 1.408 1.428 1.418
1996.492 1.438 1.488 1.558 1.558 1.518 1.578 1.648 1.688 1.768 1.868
2015.782 1.938 1.958 1.958 1.998 2.108 2.098 1.978 2.028 2.118 2.088
2035.072 2.028 1.968 1.928 1.878 1.818 1.768 1.768 1.688 1.588 1.698
2054.362 1.738 1.618 1.608 1.618 1.598 1.518 1.478 1.488 1.508 1.518
2073.651 1.478 1.438 1.378 1.278 1.178 1.168 1.208 1.168 1.1204 1.0804
2092.941 1.0787 1.0331 0.9796 0.9803 0.9788 0.9069 0.8413 0.8236 0.7121 0.6771
2112.231 0.7696 0.7565 0.6915 0.7031 0.7069 0.6387 0.597 0.5721 0.6358 0.7631
2131.521 0.7567 0.6673 0.7029 0.7252 0.668 0.6865 0.7283 0.7352 0.7218 0.7972
2150.810 0.7979 0.7757 0.801 0.8028 0.8074 0.8182 0.7841 0.7133 0.713 0.6924
2170.100 0.7243 0.8293 0.7998 0.7399 0.7529 0.7674 0.8055 0.8227 0.8259 0.8326
2189.390 0.7849 0.708 0.7492 0.8063 0.833 0.8509 0.8241 0.7695 0.7042 0.6509
2208.680 0.7055 0.7813 0.7435 0.6624 0.6791 0.743 0.723 0.7117 0.7228 0.7634
2227.970 0.7785 0.7591 0.7659 0.734 0.6794 0.6729 0.6702 0.7517 0.8797 0.9296
2247.259 0.9621 0.9474 0.921 0.9847 1.0102 0.9651 1.0568 1.0833 1.012 1.0425
2266.549 0.995 0.9253 0.962 0.9861 0.9949 1.0287 1.0151 0.9754 0.9846 1.0055
2285.839 1.0094 0.9592 0.8866 0.8545 0.8304 0.7742 0.7011 0.7111 0.7293 0.6947
2305.129 0.7031 0.6873 0.7181 0.7955 0.7984 0.7136 0.7037 0.8071 0.8384 0.7634
2324.418 0.667 0.6981 0.7226 0.6926 0.6503 0.6598 0.6843 0.6802 0.758 0.7586
2343.708 0.5989 0.5854 0.6545 0.5781 0.5682 0.6255 0.594 0.6289 0.6763 0.6566
2362.998 0.7206 0.6919 0.5808 0.6057 0.7108 0.7172 0.6976 0.7319 0.7094 0.7301
2382.288 0.7854 0.7473 0.6579 0.6805 0.6467 0.6295 0.7604 0.7464 0.6135 0.5641
2401.578 0.6249 0.6069 0.5993 0.6154 0.5762 0.5975 0.5825 0.5412 0.6305 0.7318
2420.867 0.6801 0.641 0.5721 0.5823 0.7099 0.6651 0.5913 0.5595 0.5438 0.5744
2440.157 0.6569 0.7507 0.7216 0.7031 0.7378 0.8163 0.9089 0.9241 0.857 0.7767
2459.447 0.8157 0.8554 0.7598 0.7029 0.7209 0.7266 0.7229 0.6793 0.6844 0.6567
2478.737 0.6264 0.7078 0.7316 0.7864 0.7589 0.6981 0.7889 0.817 0.8116 0.7961
2498.026 0.8019 0.8144 0.8714 0.9268 0.9214 0.8574 0.8383 0.9751 0.9594 0.8492
2517.316 0.8921 0.9267 1.0104 1.05 0.9731 0.9128 0.9415 1.0199 1.0588 1.07
2536.606 1.0942 1.1477 1.1444 1.1563 1.1168 1.0979 1.168 1.198 1.178 1.228
2555.896 1.218 1.1414 1.218 1.288 1.238 1.248 1.308 1.278 1.188 1.1203
2575.186 1.1115 1.1051 1.0753 1.093 1.1361 1.1359 1.075 1.0751 1.153 1.0909
2594.475 0.9987 0.9976 1.026 1.0751 1.0983 1.065 1.0062 0.9487 1.0007 1.0144
2613.765 1.0354 1.0717 1.0923 1.0706 0.9155 0.9364 1.0196 0.9685 0.9753 0.9731
2633.055 0.9165 0.9307 0.9519 0.9608 0.9974 0.9869 1.0177 1.0519 1.039 1.0757
2652.345 1.1112 1.1035 1.0504 1.0621 1.0515 1.0533 1.0728 1.0374 1.0222 1.0052
2671.634 1.0311 1.0788 1.151 1.198 1.1444 1.1493 1.228 1.258 1.228 1.168
2690.924 1.1415 1.1278 1.168 1.258 1.268 1.278 1.288 1.278 1.278 1.238
2710.214 1.218 1.288 1.358 1.368 1.368 1.448 1.528 1.578 1.588 1.548
2729.504 1.638 1.648 1.588 1.568 1.538 1.618 1.658 1.818 1.888 1.908
2748.794 1.988 1.988 1.918 1.788 1.828 1.838 1.758 1.698 1.808 1.908
2768.083 1.918 2.118 2.118 2.008 2.168 2.358 2.328 2.228 2.268 2.378
2787.373 2.448 2.668 2.848 2.838 2.998 3.148 3.238 3.378 3.698 4.018
2806.663 4.198 4.458 4.668 5.078 5.628 6.078 6.758 7.508 8.198 9.118
2825.953 10.208 11.398 12.658 14.248 15.898 17.528 18.938 19.988 20.868 21.338
2845.242 21.418 21.258 21.008 20.668 20.258 19.808 19.418 18.958 18.408 17.978
2864.532 17.628 17.258 16.908 16.478 16.138 15.988 15.758 15.508 15.318 15.258
2883.822 15.098 14.708 14.588 14.718 14.808 15.018 15.398 16.008 16.808 17.628
2903.112 18.668 19.808 21.098 22.668 24.258 25.808 27.198 28.348 29.348 30.368
2922.401 31.338 32.108 32.898 34.028 35.398 36.878 38.658 40.588 42.048 42.938
2941.691 43.338 43.078 42.198 40.818 38.788 36.298 33.808 31.288 29.048 27.108
2960.981 25.128 23.258 21.608 20.258 19.038 17.908 16.868 15.958 15.278 14.778
2980.271 14.398 14.108 14.198 14.368 14.638 15.248 15.908 16.708 17.578 18.478
2999.561 19.268 19.708 19.708 19.208 18.288 17.078 15.688 14.198 12.718 11.358
3018.850 10.408 9.778 9.328 9.148 9.058 9.058 9.158 9.188 9.248 9.208
3038.140 9.078 9.108 8.948 8.848 8.888 8.668 8.378 8.208 8.058 7.728
3057.430 7.378 7.198 6.928 6.608 6.228 5.798 5.608 5.458 5.108 4.808
3076.720 4.438 4.038 3.828 3.748 3.558 3.488 3.458 3.168 2.908 2.788
3096.009 2.678 2.608 2.498 2.568 2.538 2.258 2.198 2.138 2.038 2.028
3115.299 1.898 1.868 1.838 1.728 1.708 1.638 1.548 1.408 1.438 1.448
3134.589 1.278 1.278 1.298 1.208 1.1458 1.248 1.278 1.0512 0.975 1.0496
3153.879 1.0828 1.0345 0.9979 1.0858 0.9844 0.7234 0.7505 0.7473 0.6664 0.6422
3173.169 0.6002 0.5941 0.6226 0.6345 0.552 0.6713 0.6251 0.4948 0.4703 0.5466
3192.458 0.6148 0.5649 0.6038 0.675 0.6745 0.6158 0.5688 0.5521 0.4902 0.4159
3211.748 0.4232 0.4734 0.5938 0.6022 0.6049 0.5889 0.4996 0.4819 0.4972 0.4199
3231.038 0.4276 0.4205 0.4248 0.4777 0.2839 0.3003 0.3146 0.1302 0.0904 0.20252
3250.328 0.22694 0.166926 0.21999 0.3098 0.3503 0.4209 0.4081 0.2821 0.3414 0.3924
3269.617 0.3941 0.4167 0.3636 0.3204 0.4173 0.3598 0.158044 0.3035 0.3933 0.4357
3288.907 0.6085 0.5046 0.3508 0.3828 0.3372 0.4162 0.5501 0.4665 0.4545 0.4887
3308.197 0.3791 0.3626 0.4342 0.3748 0.3325 0.25341 0.2139 0.3071 0.361 0.4554
3327.487 0.6443 0.4675 0.357 0.3694 0.3332 0.5744 0.7273 0.7843 0.7461 0.6389
3346.777 0.7221 0.5649 0.446 0.7023 0.7285 0.635 0.6057 0.5955 0.6112 0.539
3366.066 0.5421 0.574 0.5641 0.5109 0.4567 0.4629 0.3883 0.364 0.4028 0.4568
3385.356 0.3955 0.20205 0.25312 0.4383 0.3861 0.489 0.4756 0.4028 0.5544 0.5152
3404.646 0.4169 0.5881 0.6062 0.6041 0.7058 0.5657 0.4637 0.5481 0.6207 0.6163
3423.936 0.645 0.6741 0.6652 0.4922 0.4486 0.6034 0.5704 0.4566 0.4831 0.3886
3443.225 0.24846 0.3463 0.3814 0.3868 0.463 0.3875 0.3834 0.431 0.3781 0.21419
3462.515 0.3007 0.6156 0.4986 0.24336 0.3193 0.372 0.4093 0.4167 0.2968 0.3424
3481.805 0.4011 0.3625 0.3572 0.3226 0.3586 0.3755 0.2017 0.0955 0.1093 0.17412
3501.095 0.2637 0.159231 0.158448 0.162273 0.0724 0 0.003 0.15057 0.0648 0.1101
3520.385 0.24289 0.2899 0.25551 0.24437 0.3154 0.2805 0.302 0.4278 0.304 0.21228
3539.674 0.2601 0.3042 0.2753 0.296 0.2649 0.14939 0.2667 0.3372 0.325 0.3172
3558.964 0.375 0.3712 0.3265 0.2508 0.2873 0.4096 0.4472 0.3854 0.3508 0.3481
3578.254 0.2855 0.2966 0.23066 0.3094 0.4986 0.4887 0.272 0.1329 0.24654 0.3012
3597.544 0.2918 0.25593 0.3946 0.3818 0.2949 0.324 0.24767 0.338 0.4677 0.5186
3616.833 0.4967 0.3474 0.312 0.2749 0.25627 0.22922 0.103 0.1178 0.160552 0.20266
3636.123 0.25091 0.25682 0.233 0.17716 0.25349 0.3145 0.441 0.532 0.3157 0.21799
3655.413 0.2105 0.2902 0.2681 0.3294 0.3231 0.17178 0.2969 0.2156 0.176 0.2684
3674.703 0.15318 0.165177 0.2769 0.3394 0.19631 0.17844 0.3151 0.1393 0.1768 0.481
3693.993 0.4429 0.17073 0.15129 0.3136 0.2772 0.3615 0.4836 0.3345 0.24643 0.3238
3713.282 0.23963 0.17199 0.22143 0.23181 0.3764 0.2928 0.2674 0.4046 0.3492 0.18132
3732.572 0.162709 0.3511 0.3813 0.534 0.5701 0.3468 0.3203 0.4195 0.3962 0.2706
3751.862 0.3389 0.3457 0.3169 0.457 0.5429 0.5312 0.358 0.3301 0.4725 0.5246
3771.152 0.472 0.4249 0.3629 0.3562 0.4067 0.3544 0.3962 0.4725 0.4973 0.3826
3790.441 0.25097 0.3079 0.4885 0.388 0.24647 0.5579 0.6738 0.42 0.4646 0.585
3809.731 0.4758 0.3476 0.3596 0.5945 0.5417 0.3063 0.3208 0.22229 0.3099 0.4615
3829.021 0.4103 0.4876 0.3653 0.3198 0.557 0.6743 0.5792 0.5321 0.5291 0.4718
3848.311 0.3924 0.4415 0.4365 0.3868 0.5515 0.433 0.20646 0.4497 0.6087 0.3802
3867.601 0.25734 0.22624 0.2569 0.3848 0.3755 0.5334 0.7742 0.5499 0.4991 0.6187
3886.890 0.5824 0.5811 0.4881 0.3798 0.2755 0.3146 0.3199 0.2778 0.2825 0.24016
3906.180 0.4214 0.4804 0.3613 0.5022 0.5453 0.4814 0.4589 0.3546 0.4633 0.6556
3925.470 0.5882 0.4096 0.2919 0.3143 0.3541 0.3921 0.5335 0.5847 0.5284 0.4019
3944.760 0.3315 0.4225 0.503 0.6104 0.5017 0.3939 0.4964 0.6795 0.8531 0.8025
3964.049 0.7545 0.7168 0.7368 0.6436 0.668 0.6635 0.5522 0.757 0.8442 0.5718
3983.339 0.4401 0.4524 0.4822 0.4276 0.4846 0.6061 0.3706 0.15344 0.0649 0.1955
##END=
