##TITLE=3-Ethylamino-4-methylphenol
##JCAMP-DX=4.24
##DATA TYPE=INFRARED SPECTRUM
##ORIGIN=EPA-IR VAPOR PHASE LIBRARY
##OWNER=SRD/NIST
Collection (C) 2018 copyright by the U.S. Secretary of Commerce
on behalf of the United States of America. All rights reserved.
##CAS REGISTRY NO=120-37-6
##MOLFORM=C 9 H 13 N O
##$NIST SOURCE=MSDC-IR
##STATE=gas
##XUNITS=1/CM
##YUNITS=ABSORBANCE
##XFACTOR=1.
##YFACTOR=0.001
##DELTAX=1.92934
##FIRSTX=549.9
##LASTX=3999.5
##FIRSTY=13.06
##MAXX=3999.53
##MINX=549.863
##MAXY=0.18172
##MINY=0
##NPOINTS=1789
##XYDATA=(X++(Y..Y))
549.863 13.06 13.02 12.87 12.68 12.54 12.33 12.14 12.21 12.15 12.03
569.156 12.11 12.21 12.39 12.53 12.51 12.27 11.99 11.78 11.58 11.54
588.450 11.29 10.98 10.82 10.61 10.55 10.81 11.17 11.68 12.47 13.27
607.743 14.21 15.39 16.41 17.42 18.43 19.15 19.45 18.96 17.95 17.03
627.037 16.13 15.36 14.47 13.5 12.71 11.96 11.33 10.9 10.56 10.33
646.330 10.18 9.94 9.8 9.7 9.6 9.51 9.47 9.37 9.26 9.3
665.624 9.2 9.17 9.23 9.09 9.02 8.99 8.97 8.9 8.81 8.82
684.917 8.77 8.71 8.65 8.58 8.49 8.51 8.49 8.42 8.37 8.31
704.210 8.25 8.1 8.06 8.17 8.35 8.62 8.97 9.34 9.78 10.29
723.504 10.85 11.45 11.98 12.43 12.72 12.85 12.9 12.86 12.77 12.61
742.797 12.35 12.19 12.25 12.39 12.68 13.21 14.02 15.04 16.18 17.44
762.091 18.82 20.37 22.2 24.49 26.68 27.22 26.16 24.97 24.2 23.67
781.384 23.05 22.24 21.41 20.68 20.29 19.95 19.42 19.12 19.35 20.06
800.678 20.99 22.16 23.67 25.36 27.47 29.72 31.38 32.19 32.23 31.83
819.971 31.25 30.63 29.93 29.19 28.48 27.85 27.38 26.92 26.35 25.36
839.264 23.76 21.98 20.24 18.57 17.06 15.7 14.4 13.07 11.89 10.87
858.558 10.01 9.33 8.74 8.3 8 7.72 7.42 7.22 7.16 7.09
877.851 7.05 7.08 7.05 7.02 7.13 7.25 7.33 7.47 7.51 7.48
897.145 7.49 7.56 7.62 7.64 7.66 7.71 7.82 7.95 8 7.88
916.438 7.75 7.62 7.53 7.4 7.17 6.92 6.72 6.6 6.53 6.53
935.732 6.5 6.55 6.75 7.09 7.51 8.03 8.67 9.42 10.3 11.33
955.025 12.41 13.55 14.7 15.76 16.69 17.38 17.86 18.04 17.94 17.69
974.318 17.37 17.1 17.04 17.23 17.98 19.54 21.9 25.04 28.8 32.77
993.612 36.29 38.84 40.27 40.53 39.69 37.94 35.13 31.13 26.24 21.11
1012.905 16.62 13.22 10.97 9.6 8.69 8.12 7.89 7.84 7.84 8.03
1032.199 8.37 8.67 8.94 9.28 9.71 10.19 10.65 11.11 11.49 11.83
1051.492 12.19 12.43 12.59 12.71 12.73 12.75 12.76 12.71 12.68 12.72
1070.786 12.83 13 13.22 13.64 14.22 14.9 15.62 16.54 17.84 19.49
1090.079 21.47 23.74 26.07 28.15 29.95 31.51 32.91 34.13 35.14 35.76
1109.372 35.74 35.04 34.1 33.11 32.1 31.17 30.23 29.34 28.83 28.71
1128.666 29.04 29.98 31.82 34.58 37.95 42.13 46.93 52.21 57.93 64
1147.959 70.34 76.84 83.79 91.46 100.08 109.43 119.5 130.59 142.55 155.11
1167.253 166.94 175.96 180.92 181.72 179.17 174.12 167.45 158.18 145.13 130.23
1186.546 116.01 104.24 95.14 87.16 80.12 74.38 69.54 65.45 62.38 60.19
1205.840 58.61 56.94 55.03 53.14 50.6 47.65 44.2 40.33 35.98 31.5
1225.133 27.43 23.76 21.02 19.25 17.9 16.83 16.09 15.89 15.9 16.09
1244.426 16.58 17.35 18.35 19.57 21.33 23.66 26.44 29.8 33.67 37.56
1263.720 41.31 44.48 46.78 48.39 49.35 49.71 49.49 48.71 47.41 46.08
1283.013 45.27 45.28 45.82 46.52 47.3 48.14 48.96 49.55 50.21 50.89
1302.307 51.57 52.55 53.9 55.7 57.95 60.41 62.84 65.03 66.76 67.72
1321.600 67.79 67.06 65.33 62.52 58.82 54.33 49.37 44.3 39.45 35.1
1340.894 31.37 28.26 25.79 24.06 22.88 22.12 21.59 21.13 20.73 20.25
1360.187 19.81 19.49 19.24 19.26 19.66 20.53 21.95 23.86 26.05 28.04
1379.480 29.49 30.26 30.6 31 30.86 29.5 27.26 24.72 22.34 20.33
1398.774 18.77 17.66 17.06 16.82 16.83 17.06 17.57 18.25 19.11 20.23
1418.067 21.63 23.36 25.33 27.64 30.29 33.19 36.52 40.14 44.06 48.22
1437.361 52.58 56.86 60.92 64.71 68.12 71.1 73.63 75.56 76.73 76.96
1456.654 76.39 75.27 73.75 72.08 70.31 68.44 66.46 64.26 61.78 59.15
1475.948 56.63 54.23 52.01 49.79 47.59 45.55 43.9 42.8 42.52 43.26
1495.241 45.09 48.25 52.83 59.23 67.84 78.84 92.58 107.67 122.76 136.92
1514.534 148.31 156.12 159.74 158.95 153.83 144.92 132.24 117.05 100.89 85.47
1533.828 71.82 60.84 52.57 45.98 40.91 37.1 34.08 31.73 29.85 28.23
1553.121 26.94 25.88 25.19 24.77 24.55 24.74 25.3 26.15 27.47 29.2
1572.415 31.4 34.23 37.74 41.82 46.46 51.92 57.85 64.17 70.68 77.16
1591.708 83.49 89.64 95.61 101.4 106.9 112.16 117.19 122.09 126.83 131.43
1611.002 135.68 139.02 140.93 141.02 138.85 134.3 127.26 118.16 107.78 96.42
1630.295 84.74 73.3 62.46 52.36 43.95 37.35 32.2 28.33 25.3 22.88
1649.588 20.87 19.25 17.78 16.44 15.29 14.29 13.41 12.57 11.77 11.16
1668.882 10.64 10.07 9.57 9.1 8.63 8.19 7.72 7.36 7.02 6.68
1688.175 6.44 6.2 5.94 5.76 5.62 5.44 5.33 5.22 5.1 5.05
1707.469 4.93 4.83 4.77 4.72 4.65 4.56 4.48 4.44 4.44 4.4
1726.762 4.37 4.36 4.33 4.33 4.3 4.24 4.15 4.08 4.05 3.98
1746.056 3.9 3.83 3.75 3.68 3.62 3.48 3.38 3.3 3.22 3.13
1765.349 3.0076 2.964 2.9228 2.8667 2.8099 2.7388 2.7192 2.704 2.6795 2.6942
1784.642 2.724 2.7282 2.7552 2.7958 2.8246 2.9035 2.9902 3.05 3.11 3.26
1803.936 3.46 3.61 3.8 4.03 4.23 4.41 4.5 4.56 4.64 4.72
1823.229 4.73 4.68 4.59 4.51 4.42 4.34 4.32 4.31 4.29 4.25
1842.523 4.18 4.13 4.02 3.9 3.8 3.66 3.48 3.28 3.11 2.975
1861.816 2.8862 2.8352 2.8054 2.7625 2.6918 2.6724 2.6581 2.6405 2.6878 2.6842
1881.110 2.6582 2.6867 2.712 2.7576 2.7856 2.7743 2.7878 2.7934 2.7555 2.6795
1900.403 2.6427 2.6602 2.6794 2.6751 2.6281 2.515 2.4844 2.4841 2.3785 2.3164
1919.696 2.33 2.3422 2.3589 2.3582 2.3432 2.3762 2.419 2.4381 2.4354 2.4123
1938.990 2.4184 2.4745 2.4816 2.4378 2.3966 2.401 2.4043 2.3802 2.3593 2.2975
1958.283 2.2175 2.1799 2.2009 2.2016 2.13934 2.10421 2.11356 2.09536 2.09733 2.10451
1977.577 2.13523 2.13968 2.09152 2.04684 2.06263 2.05302 2.0184 2.0293 2.03083 2.0252
1996.870 1.984 2.0202 2.05429 2.03035 1.9892 1.98 1.9831 1.9586 1.903 1.863
2016.164 1.876 1.879 1.879 1.846 1.828 1.856 1.889 1.928 1.9679 1.963
2035.457 1.939 1.9419 1.9693 1.9908 1.9805 2.0116 2.03413 2.0391 2.06336 2.06105
2054.750 2.04175 2.0041 1.9937 2.03166 2.0189 1.9697 1.9513 1.9423 1.916 1.862
2074.044 1.821 1.804 1.771 1.748 1.759 1.743 1.728 1.714 1.747 1.768
2093.337 1.7 1.652 1.619 1.592 1.611 1.648 1.661 1.652 1.645 1.657
2112.631 1.644 1.64 1.627 1.599 1.627 1.657 1.682 1.695 1.705 1.719
2131.924 1.729 1.773 1.774 1.768 1.822 1.851 1.866 1.865 1.874 1.853
2151.218 1.788 1.763 1.784 1.8 1.791 1.816 1.849 1.835 1.802 1.774
2170.511 1.778 1.826 1.837 1.846 1.846 1.799 1.766 1.758 1.772 1.776
2189.804 1.759 1.772 1.764 1.71 1.696 1.694 1.704 1.7 1.665 1.641
2209.098 1.636 1.667 1.658 1.632 1.612 1.6 1.628 1.617 1.598 1.61
2228.391 1.636 1.646 1.656 1.696 1.716 1.699 1.693 1.703 1.707 1.734
2247.685 1.736 1.728 1.722 1.704 1.72 1.721 1.678 1.709 1.778 1.779
2266.978 1.752 1.725 1.732 1.77 1.813 1.813 1.814 1.84 1.869 1.931
2286.272 1.9517 1.9475 1.9708 1.9572 1.926 1.9468 1.9654 1.9548 1.9579 1.97
2305.565 1.9868 2.0077 2.03956 2.04229 2.05033 2.08793 2.09599 2.11376 2.1541 2.1598
2324.858 2.1794 2.201 2.2086 2.2624 2.288 2.3138 2.3471 2.3643 2.4098 2.4488
2344.152 2.489 2.5059 2.5004 2.5408 2.5448 2.5452 2.5466 2.5579 2.5697 2.5035
2363.445 2.5316 2.6157 2.6112 2.6107 2.623 2.6026 2.6023 2.6737 2.7041 2.6829
2382.739 2.6838 2.6686 2.6507 2.6115 2.6303 2.6391 2.582 2.5525 2.555 2.5487
2402.032 2.5279 2.5559 2.5614 2.5246 2.5271 2.5609 2.5497 2.5414 2.5625 2.6009
2421.326 2.6604 2.6492 2.651 2.6707 2.6911 2.6815 2.6564 2.6688 2.6368 2.6033
2440.619 2.57 2.5351 2.5048 2.4717 2.4746 2.4738 2.4212 2.4244 2.4591 2.4591
2459.912 2.4483 2.442 2.4502 2.4736 2.5001 2.496 2.4987 2.5169 2.5389 2.5028
2479.206 2.4831 2.4807 2.4768 2.5025 2.4456 2.3857 2.3879 2.3541 2.364 2.3878
2498.499 2.3752 2.3765 2.3545 2.3794 2.4232 2.4178 2.3947 2.3739 2.3857 2.3596
2517.793 2.3611 2.4258 2.4635 2.4499 2.4357 2.5013 2.5154 2.5182 2.556 2.5336
2537.086 2.553 2.5855 2.5712 2.5196 2.4492 2.4236 2.4307 2.3789 2.3657 2.4094
2556.380 2.3971 2.3791 2.3801 2.3755 2.3672 2.3652 2.3564 2.354 2.3254 2.342
2575.673 2.3676 2.3678 2.3474 2.3979 2.5264 2.4884 2.4539 2.4713 2.5481 2.596
2594.966 2.5914 2.6349 2.6074 2.6459 2.6709 2.6367 2.6542 2.6862 2.7315 2.7036
2614.260 2.637 2.6527 2.6585 2.6186 2.5421 2.4253 2.373 2.3748 2.3599 2.322
2633.553 2.2531 2.2169 2.2194 2.2289 2.192 2.11232 2.10213 2.12196 2.122 2.1659
2652.847 2.1587 2.1695 2.2464 2.2867 2.3216 2.2864 2.2533 2.3055 2.3396 2.3345
2672.140 2.3757 2.4623 2.575 2.6349 2.6409 2.6971 2.8462 2.9144 2.9678 3.07
2691.434 3.1 3.16 3.23 3.27 3.3 3.33 3.37 3.4 3.45 3.47
2710.727 3.48 3.46 3.46 3.53 3.59 3.69 3.8 3.89 4.03 4.2
2730.020 4.37 4.58 4.81 5.03 5.23 5.39 5.48 5.49 5.54 5.51
2749.314 5.31 5.19 5.11 4.94 4.72 4.57 4.51 4.4 4.31 4.32
2768.607 4.41 4.42 4.4 4.49 4.6 4.7 4.87 5.04 5.22 5.39
2787.901 5.58 5.8 5.93 6.18 6.5 6.68 6.93 7.17 7.32 7.62
2807.194 7.99 8.3 8.6 8.83 9.04 9.35 9.75 10.05 10.3 10.69
2826.488 11.08 11.43 11.81 12.31 12.87 13.46 14.14 14.99 15.95 16.96
2845.781 18.22 19.62 21.14 22.96 25.1 27.51 30.13 32.96 35.89 38.86
2865.074 41.58 44.07 46.47 48.66 50.52 52.02 53.16 54.08 54.62 54.73
2884.368 54.53 54.01 53.22 52.23 51.01 49.64 48.29 47.02 45.94 45.08
2903.661 44.52 44.28 44.26 44.34 44.65 45.19 45.73 46.22 46.69 47.26
2922.955 47.85 48.49 49.24 49.97 50.71 51.3 51.68 51.69 51.32 50.62
2942.248 49.49 48.14 46.64 45.07 43.75 43.05 42.73 42.85 43.9 45.65
2961.542 48.19 51.64 55.63 60.03 64.74 69.16 72.53 74.4 74.59 73.1
2980.835 70.13 65.88 60.75 55.13 49.02 42.61 36.56 31.35 27.15 24.03
3000.128 21.75 20.07 19.21 19.03 19.12 19.68 20.7 22.06 23.79 25.63
3019.422 27.51 29.15 30.24 30.99 31.33 31.12 30.52 29.33 27.72 25.96
3038.715 24 22.23 20.73 19.43 18.53 17.91 17.25 16.55 15.91 15.35
3058.009 14.83 14.3 13.8 13.36 12.91 12.46 11.99 11.48 11.12 10.81
3077.302 10.54 10.3 10.09 9.86 9.5 9.05 8.69 8.31 7.73 7.28
3096.596 6.88 6.45 6.11 5.75 5.48 5.21 4.89 4.63 4.41 4.16
3115.889 3.98 3.92 3.79 3.51 3.23 3.2 3.11 2.9714 2.9751 2.862
3135.182 2.7485 2.5962 2.4231 2.3328 2.2522 2.1608 1.9494 1.779 1.706 1.616
3154.476 1.501 1.464 1.4 1.327 1.234 1.216 1.155 1.01 0.95 0.83
3173.769 0.82 0.98 1.02 0.89 0.88 0.92 0.92 0.95 0.97 0.88
3193.063 0.93 1.01 1.02 1 0.95 0.79 0.64 0.66 0.74 0.91
3212.356 0.99 0.91 0.88 0.8 0.71 0.8 0.76 0.59 0.55 0.54
3231.650 0.53 0.59 0.58 0.59 0.65 0.65 0.51 0.47 0.47 0.44
3250.943 0.47 0.31 0.25 0.22 0.1 0.02 0.09 0.16 0.08 0.12
3270.236 0.22 0.33 0.37 0.27 0.17 0.1 0 0.07 0.15 0.12
3289.530 0.18 0.27 0.27 0.27 0.26 0.14 0.17 0.17 0.1 0.17
3308.823 0.21 0.21 0.23 0.15 0.1 0.11 0.12 0.3 0.36 0.34
3328.117 0.3 0.3 0.43 0.47 0.4 0.37 0.49 0.59 0.68 0.69
3347.410 0.74 0.78 0.9 1.048 1.042 1.08 1.02 0.95 1.02 1.11
3366.704 1.179 1.22 1.194 1.17 1.138 1.08 1.073 1.091 1.158 1.137
3385.997 1.162 1.216 1.167 1.153 1.17 1.19 1.264 1.278 1.329 1.482
3405.290 1.569 1.562 1.583 1.756 1.88 2.12584 2.4797 2.6231 2.8409 3.12
3424.584 3.54 4.09 4.57 5.22 5.74 6.18 6.88 7.44 7.8 8.25
3443.877 8.52 8.51 8.48 8.43 8.27 8.04 7.7 7.22 6.76 6.46
3463.171 6.01 5.51 5.12 4.78 4.48 4.05 3.52 3.19 2.8647 2.5363
3482.464 2.401 2.2473 2.07721 1.865 1.625 1.51 1.533 1.537 1.395 1.219
3501.758 1.061 1.07 1.177 1.203 1.123 0.98 1.053 1.157 1.068 0.97
3521.051 1.045 1.129 0.97 0.87 0.87 0.89 0.92 0.93 0.99 0.89
3540.344 0.72 0.74 0.75 0.77 0.83 0.76 0.66 0.62 0.61 0.6
3559.638 0.69 0.79 0.79 0.79 0.87 0.79 0.78 0.9 0.96 0.84
3578.931 0.82 1.053 1.045 0.99 1.02 1.07 1.179 1.134 1.067 1.118
3598.225 1.095 1.213 1.408 1.414 1.411 1.461 1.614 1.817 2.1038 2.2896
3617.518 2.3369 2.6949 3.25 3.74 4.2 4.86 5.97 7.56 9.65 12.38
3636.812 16.21 21.47 28.34 36.83 46.16 55.13 62.1 65.55 65.86 64.57
3656.105 61.99 57.51 50.7 41.41 30.76 21.11 13.94 9.15 6.19 4.54
3675.398 3.57 2.8699 2.465 2.1726 1.883 1.701 1.644 1.593 1.525 1.388
3694.692 1.278 1.342 1.274 1.157 1.205 1.153 1.073 1.11 1.141 1.118
3713.985 1.194 1.224 1.118 1.067 1.01 0.93 0.97 1.061 1.03 1.03
3733.279 1.109 1.064 1.079 1.233 1.201 1.128 1.119 1.111 1.151 1.115
3752.572 1.04 1.053 1.109 1.136 1.141 1.144 1.19 1.144 1.109 1.215
3771.866 1.274 1.233 1.34 1.342 1.19 1.286 1.298 1.262 1.35 1.404
3791.159 1.376 1.346 1.297 1.269 1.296 1.312 1.318 1.312 1.349 1.299
3810.452 1.335 1.463 1.461 1.401 1.355 1.338 1.362 1.413 1.366 1.373
3829.746 1.393 1.384 1.506 1.556 1.495 1.476 1.518 1.575 1.6 1.573
3849.039 1.577 1.634 1.697 1.57 1.44 1.557 1.625 1.637 1.679 1.655
3868.333 1.599 1.533 1.451 1.494 1.582 1.541 1.555 1.549 1.576 1.725
3887.626 1.712 1.679 1.668 1.661 1.712 1.713 1.719 1.765 1.792 1.761
3906.920 1.686 1.707 1.766 1.667 1.632 1.668 1.617 1.675 1.746 1.717
3926.213 1.691 1.788 1.808 1.715 1.663 1.609 1.765 1.845 1.754 1.768
3945.506 1.841 1.794 1.709 1.762 1.705 1.632 1.588 1.56 1.474 1.414
3964.800 1.511 1.488 1.49 1.412 1.343 1.428 1.442 1.382 1.309 1.306
3984.093 1.33 1.363 1.289 1.252 1.382 1.433 1.392 1.331 1.34
##END=
