##TITLE=Desoxyanisoin
##JCAMP-DX=4.24
##DATA TYPE=INFRARED SPECTRUM
##ORIGIN=EPA-IR VAPOR PHASE LIBRARY
##OWNER=SRD/NIST
Collection (C) 2018 copyright by the U.S. Secretary of Commerce
on behalf of the United States of America. All rights reserved.
##CAS REGISTRY NO=120-44-5
##MOLFORM=C 16 H 16 O 3
##$NIST SOURCE=MSDC-IR
##STATE=gas
##XUNITS=1/CM
##YUNITS=ABSORBANCE
##XFACTOR=1.
##YFACTOR=0.001
##DELTAX=3.85796
##FIRSTX=501.5
##LASTX=4000.7
##FIRSTY=2.039
##MAXX=4000.7
##MINX=501.534
##MAXY=0.063399
##MINY=0
##NPOINTS=908
##XYDATA=(X++(Y..Y))
501.534 2.039 1.949 2.209 2.509 2.739 3.219 3.569 3.759 3.849 3.839
540.114 3.649 3.399 3.449 3.649 4.109 4.799 5.659 6.529 7.029 7.159
578.693 6.659 5.659 4.459 3.409 2.759 2.409 2.319 2.259 2.209 2.179
617.273 2.009 1.929 1.979 2.049 2.079 1.989 1.839 1.729 1.549 1.3717
655.852 1.2246 1.2021 1.2447 1.2879 1.3553 1.4252 1.549 1.569 1.519 1.469
694.432 1.4059 1.3056 1.2477 1.2209 1.1978 1.1927 1.25 1.4369 1.499 1.3768
733.011 1.2587 1.2197 1.1957 1.2582 1.3397 1.3958 1.599 1.819 2.239 3.039
771.591 4.389 5.979 6.719 6.219 5.349 5.069 5.589 6.409 6.799 6.619
810.170 6.199 6.049 6.489 7.259 8.139 8.759 8.629 7.709 6.419 5.299
848.750 4.479 3.909 3.539 3.099 2.529 2.099 1.809 1.599 1.4416 1.3392
887.330 1.3188 1.267 1.2025 1.1812 1.1949 1.219 1.2525 1.3794 1.519 1.589
925.909 1.649 1.649 1.629 1.649 1.589 1.529 1.569 1.659 1.759 1.879
964.489 2.029 2.289 2.779 3.539 4.609 5.929 6.939 7.229 7.029 6.959
1003.068 7.199 7.439 7.709 8.469 9.669 11.009 12.399 13.619 14.549 15.039
1041.648 14.749 13.399 11.069 8.459 6.309 4.829 3.879 3.259 2.869 2.689
1080.227 2.649 2.559 2.489 2.479 2.559 2.839 3.179 3.539 3.749 3.689
1118.807 3.489 3.349 3.409 3.799 4.319 5.099 6.389 8.209 10.489 12.869
1157.387 15.689 20.589 29.559 38.739 39.329 30.499 20.549 14.589 11.679 10.589
1195.966 10.599 10.779 10.959 11.439 12.389 13.769 15.559 17.769 20.549 24.359
1234.546 30.319 39.219 49.989 59.409 63.399 60.489 52.779 43.279 34.829 28.919
1273.125 25.169 22.769 21.179 20.299 20.029 19.979 19.469 18.169 16.569 15.159
1311.705 13.929 12.849 11.939 10.999 9.829 8.539 7.289 6.179 5.249 4.509
1350.284 3.949 3.529 3.169 2.849 2.599 2.409 2.259 2.189 2.139 2.109
1388.864 2.119 2.249 2.499 2.849 3.449 4.299 5.139 5.599 5.509 5.209
1427.443 5.189 5.589 6.209 6.859 7.289 7.289 6.909 6.619 6.899 7.659
1466.023 8.559 8.859 8.129 7.019 6.349 6.419 7.379 9.499 13.599 20.699
1504.603 30.629 40.239 41.699 32.789 20.219 11.539 7.419 5.439 4.439 3.899
1543.182 3.629 3.539 3.619 3.879 4.379 5.189 6.399 8.129 10.049 11.579
1581.762 12.579 14.069 17.309 22.519 28.479 32.419 31.789 26.909 20.489 14.699
1620.341 10.369 7.439 5.579 4.499 3.849 3.439 3.209 3.119 3.109 3.139
1658.921 3.259 3.499 3.949 4.679 5.939 8.319 12.489 18.219 22.569 23.159
1697.500 20.319 16.199 12.289 8.819 6.139 4.369 3.279 2.629 2.219 1.949
1736.080 1.789 1.699 1.619 1.579 1.549 1.529 1.509 1.4427 1.3593 1.2921
1774.659 1.2182 1.1066 1.0273 0.9987 0.9476 0.9244 0.9229 0.9133 0.9127 0.906
1813.239 0.8876 0.8733 0.886 0.8774 0.8519 0.8365 0.848 0.8641 0.8889 0.9382
1851.819 0.9733 1.029 1.0744 1.1038 1.1343 1.1671 1.2094 1.1999 1.1906 1.1846
1890.398 1.1803 1.2013 1.1917 1.1626 1.1124 1.068 1.0208 0.9502 0.9224 0.9164
1928.978 0.9168 0.9299 0.9175 0.908 0.9235 0.9484 0.9794 0.9958 0.9905 0.9878
1967.557 0.9927 1.0139 1.0194 1.0008 1.0022 0.9858 0.9529 0.9333 0.9211 0.9296
2006.137 0.9351 0.9414 0.9714 1.013 1.0563 1.1179 1.1402 1.1486 1.2092 1.2832
2044.716 1.3427 1.3908 1.4272 1.459 1.489 1.469 1.4471 1.4176 1.3537 1.2997
2083.296 1.226 1.1075 0.9912 0.8895 0.8114 0.7445 0.6879 0.6537 0.6306 0.6163
2121.875 0.5793 0.53749 0.5285 0.54302 0.54161 0.51258 0.48641 0.49027 0.48966 0.47859
2160.455 0.48314 0.47885 0.47304 0.4704 0.46783 0.48609 0.49528 0.48828 0.49006 0.47642
2199.035 0.467222 0.48782 0.50505 0.49771 0.48698 0.49014 0.51061 0.52081 0.50387 0.51652
2237.614 0.52893 0.51936 0.49833 0.48848 0.50251 0.49112 0.505 0.54189 0.55201 0.5599
2276.194 0.5834 0.6213 0.6764 0.7113 0.6953 0.6699 0.6615 0.6359 0.6258 0.6205
2314.773 0.5874 0.5781 0.5778 0.5681 0.53494 0.51122 0.52361 0.54924 0.5695 0.55759
2353.353 0.5244 0.48897 0.48369 0.5066 0.51861 0.51745 0.49085 0.49902 0.52186 0.51388
2391.932 0.53613 0.5683 0.6257 0.6452 0.6411 0.6438 0.6621 0.7003 0.68 0.6382
2430.512 0.6283 0.6478 0.6182 0.5539 0.55027 0.55251 0.5654 0.574 0.5665 0.5776
2469.092 0.5712 0.5732 0.5795 0.6061 0.6413 0.6423 0.6474 0.6672 0.68 0.6816
2507.671 0.6944 0.7394 0.7643 0.7557 0.7376 0.7429 0.808 0.8826 0.9201 0.9456
2546.251 0.9701 1.0142 1.0491 1.0467 0.9874 0.8991 0.8373 0.8087 0.7752 0.7438
2584.830 0.7493 0.7318 0.6907 0.6661 0.6691 0.6519 0.6403 0.6605 0.6558 0.6134
2623.410 0.5713 0.55104 0.52605 0.50119 0.49121 0.49982 0.47277 0.4394 0.4443 0.4305
2661.989 0.3852 0.4028 0.45182 0.4252 0.3718 0.3797 0.3981 0.3801 0.3903 0.4274
2700.569 0.4367 0.4433 0.4433 0.44 0.45447 0.448 0.461237 0.48163 0.51734 0.5496
2739.148 0.53202 0.53648 0.5908 0.6453 0.6298 0.6334 0.6666 0.6684 0.6477 0.6512
2777.728 0.6895 0.7042 0.7613 0.8174 0.8946 1.0038 1.0713 1.1379 1.2444 1.3841
2816.308 1.569 1.799 2.099 2.499 3.089 4.019 5.309 6.579 6.969 6.239
2854.887 4.989 3.949 3.269 2.849 2.629 2.569 2.559 2.659 2.819 3.009
2893.467 3.359 3.779 4.279 4.879 5.469 5.949 6.369 6.659 6.789 6.899
2932.046 7.199 7.859 8.709 9.449 9.739 9.579 9.309 8.939 8.289 7.419
2970.626 6.459 5.589 4.959 4.619 4.559 4.719 5.129 5.919 7.099 8.359
3009.205 8.949 8.309 6.799 5.319 4.489 4.319 4.449 4.529 4.309 3.849
3047.785 3.449 3.159 2.979 2.889 2.979 3.159 3.359 3.519 3.469 3.089
3086.364 2.649 2.459 2.419 2.389 2.269 2.029 1.769 1.519 1.3567 1.2336
3124.944 1.0785 0.9662 0.866 0.7078 0.6176 0.5914 0.5798 0.5507 0.4968 0.4482
3163.524 0.4286 0.4202 0.3979 0.357 0.299 0.294 0.28 0.338 0.366 0.32
3202.103 0.333 0.318 0.296 0.252 0.223 0.212 0.197 0.186 0.184 0.21
3240.683 0.213 0.209 0.185 0.188 0.16 0.125 0.099 0.118 0.144 0.158
3279.262 0.201 0.157 0.147 0.151 0.133 0.159 0.216 0.222 0.177 0.158
3317.842 0.169 0.158 0.133 0.153 0.153 0.149 0.184 0.271 0.302 0.282
3356.421 0.327 0.45283 0.48448 0.4066 0.324 0.269 0.288 0.272 0.267 0.27
3395.001 0.251 0.227 0.182 0.129 0.113 0.14 0.166 0.179 0.174 0.158
3433.580 0.177 0.182 0.149 0.099 0.103 0.119 0.074 0.044 0.037 0.064
3472.160 0.131 0.16 0.153 0.177 0.114 0.05 0.046 0.031 0.071 0.102
3510.740 0.094 0.114 0.093 0.072 0.105 0.121 0.122 0.094 0.107 0.108
3549.319 0.041 0.064 0.095 0.068 0.097 0.157 0.171 0.126 0.111 0.069
3587.899 0.079 0.13 0.072 0.055 0.059 0.052 0.044 0.056 0.058 0.055
3626.478 0.053 0.059 0.129 0.165 0.171 0.148 0.104 0.13 0.127 0.102
3665.058 0.093 0.147 0.175 0.103 0.129 0.186 0.148 0.079 0.068 0.037
3703.637 0.07 0.089 0.039 0.076 0.08 0.027 0.043 0.133 0.122 0.059
3742.217 0.046 0 0.044 0.105 0.049 0.049 0.082 0.107 0.109 0.067
3780.797 0.029 0.004 0.042 0.045 0.025 0.03 0.062 0.058 0.052 0.073
3819.376 0.066 0.054 0.036 0.085 0.108 0.041 0.015 0.066 0.123 0.176
3857.956 0.173 0.119 0.132 0.161 0.129 0.138 0.148 0.133 0.132 0.094
3896.535 0.11 0.119 0.128 0.16 0.099 0.049 0.067 0.081 0.076 0.083
3935.115 0.103 0.13 0.123 0.093 0.131 0.182 0.177 0.168 0.187 0.176
3973.694 0.135 0.111 0.142 0.172 0.149 0.097 0.047 0.038
##END=
