##TITLE=3,4-Methylenedioxybenzaldehyde
##JCAMP-DX=4.24
##DATA TYPE=INFRARED SPECTRUM
##ORIGIN=EPA-IR VAPOR PHASE LIBRARY
##OWNER=SRD/NIST
Collection (C) 2018 copyright by the U.S. Secretary of Commerce
on behalf of the United States of America. All rights reserved.
##CAS REGISTRY NO=120-57-0
##MOLFORM=C 8 H 6 O 3
##$NIST SOURCE=MSDC-IR
##STATE=gas
##XUNITS=1/CM
##YUNITS=ABSORBANCE
##XFACTOR=1.
##YFACTOR=0.001
##DELTAX=1.92898
##FIRSTX=549.8
##LASTX=4000.7
##FIRSTY=1.36
##MAXX=4000.7
##MINX=549.759
##MAXY=0.43283
##MINY=0
##NPOINTS=1790
##XYDATA=(X++(Y..Y))
549.759 1.36 1.7 1.88 2.37 2.77 3.12 4.05 5.5 7.2 8.31
569.049 9.04 9.71 10.59 11.66 12.39 12.96 14.25 15.86 16.54 15.56
588.339 14.46 14.14 13.51 13.31 12.91 11.42 9.59 8.21 7.55 7.39
607.628 7.87 8.96 10.54 12.59 14.95 17.29 18.88 19.3 19.21 18.87
626.918 18.43 17.56 15.7 13.16 10.73 8.73 7.18 6.22 5.66 5.11
646.208 4.53 4.22 3.94 3.63 3.3 3.02 3.1 3.15 3.24 3.31
665.498 3.37 3.78 4.34 5.05 5.79 6.36 6.85 7.11 7.11 7.02
684.787 6.83 6.48 5.72 4.91 4.21 3.35 2.66 2.33 2.15 2.09
704.077 2.16 2.48 3.17 4.27 5.54 6.37 6.87 7.49 7.97 7.92
723.367 8.04 7.74 6.79 5.69 4.4 3.45 2.85 2.71 2.58 2.32
742.657 2.38 2.56 2.59 2.92 3.29 3.45 3.8 4.36 5.02 5.71
761.947 6.67 8.08 9.9 12.27 15.31 19.2 24.34 30.34 36.22 40.96
781.236 43.71 45.31 46.4 47.28 48.38 47.97 45.32 42.28 40.79 41.18
800.526 43.44 47.01 50.43 50.89 47.82 44.9 43.71 42.94 41.12 36.84
819.816 31.18 26.97 24.07 21.48 18.99 16.68 14.75 13.31 12.21 11.21
839.106 10.6 10.3 9.93 9.59 9.45 9.59 9.85 9.85 10.03 10.53
858.395 11.17 11.76 12.04 12.21 12.44 12.93 13.42 13.54 13.69 13.99
877.685 14.38 14.75 14.12 12.43 11.06 10.14 9.48 8.93 8.39 7.88
896.975 7.52 7.47 7.64 8.16 8.87 10.06 11.86 14.03 16.48 19.44
916.265 22.94 26.44 29.59 32.82 36.73 41.93 47.63 52.21 54.68 55.19
935.555 55.32 56.42 58.26 58.82 56.94 52.97 47.98 43.29 39.08 35.07
954.844 31.39 27.79 24.01 20.58 17.47 14.71 12.64 10.77 9.29 8.42
974.134 7.9 7.39 6.96 6.79 6.98 7.15 6.91 6.98 7.44 7.96
993.424 8.57 9.21 9.44 9.47 9.81 10.71 11.68 12.43 13.48 14.88
1012.714 16.38 18.15 20.61 23.46 26.7 30.39 34.86 40.05 45.89 52.84
1032.003 60.63 69.32 78.84 88.65 98.12 106.49 113.29 117.96 120.35 120.56
1051.293 118.16 113.23 105.84 97.02 88.12 79.44 70.91 62.89 56.44 51.04
1070.583 46.63 43.96 42.57 41.9 42.3 43.34 44.59 46.92 49.42 52.11
1089.873 54.32 54.5 52.94 50.87 49.02 47.47 45.77 41.87 37.7 34.08
1109.163 30.56 27.7 26.05 25.01 24.01 22.85 21.25 20.21 18.75 17.33
1128.452 16 14.52 13.35 12.58 11.92 10.88 9.87 8.85 8.31 7.83
1147.742 6.75 5.87 5.64 5.35 4.98 4.8 4.62 4.56 4.52 4.77
1167.032 5.17 5.14 5.29 5.41 5.31 5.62 5.89 5.9 5.57 5.41
1186.322 5.58 5.81 5.96 5.85 5.7 5.99 6.59 7.04 7.88 8.82
1205.611 9.83 11.06 12.27 14.43 17.26 20.14 23.71 28.03 33.08 39.27
1224.901 46.31 55.31 66.79 81.16 99.9 123.87 154.04 190.53 232.93 279.17
1244.191 324.4 363.94 395.72 419.36 432.83 430.99 413.41 380.25 332.09 281.07
1263.481 234.73 190.51 149.77 116.19 90.88 72.33 58.01 46.51 37.46 31.04
1282.771 26.36 22.8 20.34 18.77 17.92 17.34 16.97 16.83 16.8 16.74
1302.060 16.67 16.44 16.22 15.88 15.52 15.26 14.99 14.79 14.65 14.61
1321.350 14.77 15.12 15.75 16.87 18.66 21.28 25.08 30.16 36.49 43.81
1340.640 51.23 57.57 61.9 63.98 64.32 63.3 60.74 55.94 48.47 39.28
1359.930 30.48 23.6 18.76 15.46 13.32 12.12 11.75 12.22 13.52 15.62
1379.219 18.57 21.92 25.17 27.86 29.87 31.76 33.52 34.93 35.47 34.4
1398.509 32.3 30.06 28.32 26.95 25.56 24.15 23.07 22.49 22.59 23.5
1417.799 25.33 27.93 31.49 36.43 43.15 52.02 63.92 79.15 97.85 119.43
1437.089 143.39 166.54 186.42 201.27 209.7 212.15 209.5 201.11 185.77 164.47
1456.378 136.97 108 84.82 68.38 58.26 52.48 50.41 51.68 56.69 65.95
1475.668 79.25 95.99 113.77 129.95 142.2 149.6 152.28 150.77 145.36 135.98
1494.958 122.03 104.99 88.67 75.38 65.88 58.86 52.89 48.43 45.12 42.15
1514.248 39.06 34.19 27.68 21.44 16.39 12.91 10.53 8.97 7.83 7.02
1533.538 6.52 6.22 6.05 5.95 5.87 5.75 5.74 5.76 5.75 5.77
1552.827 5.87 5.91 6.02 6.19 6.15 6.2 6.44 6.65 6.97 7.46
1572.117 8.02 8.66 9.38 10.22 11.26 12.59 14.2 16.14 18.39 21.04
1591.407 24.2 27.65 31.14 34.66 38.09 41.25 44.18 46.9 49.38 51.25
1610.697 51.88 51.1 49.16 46.57 44.08 41.67 39.18 36.58 33.58 30.18
1629.986 26.85 23.91 21.45 19.36 17.4 15.53 13.73 11.91 10.28 8.98
1649.276 7.99 7.4 6.9 6.53 6.42 6.44 6.58 6.98 7.58 8.3
1668.566 9.06 9.82 10.63 11.46 12.54 13.96 15.68 17.7 20.58 24.58
1687.856 29.86 37.06 46.66 58.97 75.2 95.02 117.51 143.48 168.13 191.32
1707.146 211.07 227.98 242.95 256.77 267.42 270 260.46 241.43 218.25 195.93
1726.435 174.74 152.01 124.59 95.04 67.41 46.68 33.48 25.17 20.28 17.14
1745.725 15.07 13.64 12.71 11.95 11.23 10.68 10.2 9.67 9.1 8.48
1765.015 7.88 7.32 6.79 6.36 5.86 5.41 5.11 4.83 4.56 4.39
1784.305 4.35 4.32 4.35 4.4 4.47 4.55 4.65 4.78 4.92 5.01
1803.594 5.04 5.05 5.09 5.11 5.07 4.93 4.73 4.68 4.67 4.58
1822.884 4.47 4.4 4.42 4.52 4.69 4.85 4.99 5.15 5.27 5.35
1842.174 5.4 5.4 5.44 5.47 5.42 5.25 5 4.81 4.69 4.66
1861.464 4.77 4.89 4.95 5.1 5.31 5.52 5.72 5.92 6.09 6.11
1880.754 6.11 6.12 6.01 5.83 5.59 5.34 5.07 4.68 4.34 4.06
1900.043 3.76 3.51 3.3 3.18 3.09 2.95 2.82 2.66 2.48 2.38
1919.333 2.21 2.06 1.99 1.84 1.74 1.73 1.71 1.71 1.7 1.67
1938.623 1.69 1.7 1.67 1.64 1.62 1.65 1.67 1.72 1.77 1.8
1957.913 1.92 2.03 2.12 2.16 2.19 2.2 2.27 2.34 2.38 2.36
1977.202 2.35 2.39 2.28 2.24 2.27 2.29 2.36 2.41 2.52 2.7
1996.492 2.83 2.92 3.08 3.24 3.37 3.39 3.49 3.6 3.58 3.66
2015.782 3.7 3.7 3.7 3.71 3.84 4.01 4.11 4.18 4.24 4.33
2035.072 4.41 4.4 4.3 4.22 4.11 4 3.94 3.82 3.69 3.58
2054.362 3.45 3.28 3.15 3 2.84 2.76 2.63 2.45 2.41 2.33
2073.651 2.22 2.25 2.24 2.13 2.04 2 1.99 1.91 1.8 1.76
2092.941 1.73 1.7 1.6 1.5 1.42 1.29 1.19 1.13 1.1089 1.0746
2112.231 0.9906 0.9428 1.0135 1.0734 1.0523 1.0479 1.0338 1.0331 1.0525 1.0126
2131.521 1.1017 1.14 1.0451 1.0229 1.0088 0.9611 1.0242 1.0625 1.0519 1.0381
2150.810 1.0345 1.1051 1.13 1.15 1.23 1.29 1.36 1.42 1.47 1.54
2170.100 1.61 1.72 1.77 1.81 1.93 1.95 1.96 2.02 1.99 1.93
2189.390 1.95 1.94 1.86 1.83 1.81 1.73 1.63 1.57 1.49 1.41
2208.680 1.35 1.3 1.33 1.42 1.44 1.44 1.46 1.48 1.53 1.51
2227.970 1.46 1.46 1.45 1.39 1.33 1.29 1.23 1.23 1.27 1.21
2247.259 1.15 1.16 1.17 1.17 1.11 1.0426 1.0884 1.16 1.16 1.15
2266.549 1.16 1.17 1.21 1.29 1.27 1.27 1.34 1.33 1.33 1.41
2285.839 1.45 1.53 1.62 1.57 1.57 1.61 1.6 1.6 1.61 1.59
2305.129 1.5 1.5 1.56 1.5 1.37 1.32 1.27 1.23 1.28 1.25
2324.418 1.13 1.0727 1.0622 0.9689 0.9521 1.0071 1.0228 0.9437 0.901 0.9221
2343.708 0.8952 0.9449 0.9352 0.9259 0.9513 0.9439 0.9498 1.0013 1.0625 1.12
2362.998 1.13 1.16 1.25 1.26 1.24 1.35 1.44 1.41 1.41 1.42
2382.288 1.39 1.34 1.25 1.17 1.1067 0.9961 0.9327 0.9644 0.9209 0.8552
2401.578 0.842 0.8328 0.8132 0.8027 0.8401 0.9043 0.8863 0.8696 0.964 1.0135
2420.867 0.9702 0.9718 1.0298 1.0389 0.9804 1.0571 1.14 1.13 1.18 1.21
2440.157 1.17 1.17 1.21 1.13 1.0192 1.0117 0.9993 0.9208 0.924 0.9587
2459.447 0.9079 0.7991 0.7829 0.7898 0.8232 0.8685 0.846 0.8579 0.9119 0.9434
2478.737 0.9831 1.009 1.0262 1.0364 1.0437 1.0616 1.0693 1.1056 1.18 1.3
2498.026 1.3 1.23 1.31 1.35 1.34 1.46 1.54 1.6 1.61 1.63
2517.316 1.86 2.04 2.09 2.24 2.42 2.52 2.61 2.73 2.85 2.89
2536.606 2.88 2.85 2.85 2.79 2.68 2.58 2.49 2.39 2.33 2.26
2555.896 2.22 2.16 2.15 2.22 2.19 2.17 2.17 2.17 2.28 2.39
2575.186 2.45 2.55 2.58 2.72 2.93 3.04 3.2 3.4 3.52 3.67
2594.475 3.95 4.25 4.42 4.58 4.77 4.84 4.79 4.79 4.75 4.58
2613.765 4.37 4.14 3.87 3.58 3.47 3.27 3.13 3.23 3.23 3.22
2633.055 3.24 3.3 3.47 3.64 3.81 3.87 3.87 3.98 4.02 4.01
2652.345 3.98 4.03 4.11 4.03 4.07 4.12 4.19 4.34 4.54 4.78
2671.634 4.94 5.3 5.77 6.33 7.11 7.91 8.8 9.81 10.97 12.41
2690.924 14.06 15.93 17.93 20.03 22.17 24.12 25.88 27.46 28.82 30.17
2710.214 31.51 32.79 33.88 34.49 34.85 34.97 34.47 33.7 32.84 31.67
2729.504 30.3 28.51 26.48 24.5 22.77 21.46 20.78 20.54 20.5 20.69
2748.794 21.07 21.57 22.21 22.93 23.86 24.93 25.92 27.11 28.17 29.01
2768.083 29.87 30.6 31.05 31.18 31.07 30.5 29.45 28.38 27.36 26.58
2787.373 26.03 25.67 25.58 25.77 26.22 26.76 27.6 28.7 29.93 31.38
2806.663 32.97 34.49 35.86 37.15 38.2 38.84 39.11 38.9 38.32 37.44
2825.953 35.98 34.07 31.79 29.19 26.72 24.37 22.31 20.66 19.16 17.92
2845.242 16.81 15.95 15.44 15.02 14.9 15.04 15.44 16.04 16.72 17.67
2864.532 18.9 20.26 21.69 23.31 24.96 26.36 27.75 29.09 30.18 31
2883.822 31.53 31.85 31.93 31.78 31.62 31.53 31.36 31.33 31.48 31.64
2903.112 32.05 32.78 33.5 34.22 34.84 35.38 35.67 35.65 35.6 35.42
2922.401 34.9 34.21 33.42 32.52 31.65 30.7 29.74 28.78 28.02 27.48
2941.691 26.89 26.43 26.12 25.94 25.63 25.19 24.85 24.48 23.89 23.07
2960.981 22.21 21.27 20.07 18.93 17.81 16.66 15.6 14.54 13.62 12.78
2980.271 12.15 11.59 11.1 10.8 10.52 10.29 10.33 10.3 10.17 10.2
2999.561 10.27 10.39 10.55 10.77 11.15 11.7 12.49 13.35 14.12 14.8
3018.850 15.04 15.19 15.48 15.46 15.19 14.66 13.93 13.14 12.21 11.42
3038.140 10.79 10.14 9.46 8.84 8.28 7.7 7.31 7.04 6.72 6.46
3057.430 6.31 6.28 6.21 6.26 6.38 6.57 6.9 7.26 7.72 8.2
3076.720 8.71 9.09 9.24 9.26 9.07 8.71 8.22 7.66 6.9 5.9
3096.009 5.03 4.38 3.94 3.66 3.39 3.16 3.02 2.81 2.48 2.2
3115.299 2.04 1.86 1.64 1.56 1.46 1.29 1.0946 0.9294 0.8123 0.6833
3134.589 0.659 0.6548 0.5855 0.5646 0.5271 0.4957 0.5606 0.5753 0.4819 0.3166
3153.879 0.2829 0.4113 0.5299 0.5117 0.4886 0.4899 0.3779 0.283 0.3123 0.3533
3173.169 0.2859 0.2295 0.3016 0.418 0.403 0.291 0.2381 0.3689 0.4698 0.4303
3192.458 0.4217 0.3428 0.2432 0.4085 0.5678 0.4394 0.4527 0.5706 0.6619 0.6782
3211.748 0.5797 0.5219 0.5679 0.6706 0.6826 0.6558 0.6853 0.7259 0.7088 0.765
3231.038 0.6696 0.4882 0.515 0.623 0.6408 0.5361 0.4492 0.4994 0.6343 0.4977
3250.328 0.3237 0.4181 0.488 0.4359 0.3126 0.1763 0.2793 0.2653 0.14827 0.3059
3269.617 0.385 0.2657 0.19472 0.3345 0.3156 0.19616 0.1574 0.15189 0.19785 0.2295
3288.907 0.2462 0.16877 0.2484 0.2813 0.0646 0.0243 0.109695 0.19854 0.1862 0.12671
3308.197 0.116435 0.2486 0.3504 0.3112 0.3633 0.3997 0.3329 0.2284 0.19784 0.2185
3327.487 0.3504 0.4235 0.3762 0.4669 0.4608 0.4512 0.4893 0.4058 0.3998 0.3102
3346.777 0.3013 0.20371 0.0623 0.2786 0.3896 0.2751 0.2984 0.4228 0.517 0.5228
3366.066 0.4618 0.472 0.5227 0.5172 0.4992 0.6931 0.7441 0.8101 0.9412 1.0477
3385.356 1.3 1.55 1.85 2.13 2.43 2.81 3.2 3.45 3.77 4.07
3404.646 4.34 4.42 4.43 4.6 4.46 4.16 3.82 3.38 2.95 2.71
3423.936 2.48 2.2 1.94 1.79 1.63 1.47 1.35 1.21 1.0363 1.0268
3443.225 1.0484 0.8509 0.6467 0.6251 0.5945 0.5991 0.5316 0.369 0.4256 0.3772
3462.515 0.3303 0.3164 0.2747 0.3799 0.3489 0.3161 0.3948 0.3349 0.2304 0.3255
3481.805 0.4622 0.3446 0.2668 0.2815 0.3262 0.28 0.19317 0.4062 0.426 0.2728
3501.095 0.2606 0.2021 0.16296 0.20194 0.3184 0.4388 0.3511 0.2616 0.2876 0.17625
3520.385 0.12154 0.2827 0.3276 0.19433 0.0764 0.15829 0.12292 0.069 0.1437 0.12199
3539.674 0.15301 0.2173 0.20218 0.116405 0.0864 0.14557 0.1795 0.15198 0.12844 0.0764
3558.964 0.117322 0.2318 0.0907 0.0178 0.2487 0.3137 0.2443 0.17104 0.2498 0.2446
3578.254 0.2248 0.2446 0.0927 0 0.0754 0.2621 0.3942 0.2489 0.16779 0.20517
3597.544 0.2378 0.3573 0.3241 0.3755 0.3055 0.2449 0.3507 0.29 0.2959 0.2947
3616.833 0.2266 0.2114 0.10418 0.10215 0.2133 0.3358 0.3924 0.304 0.2951 0.3072
3636.123 0.2912 0.2132 0.211 0.3047 0.3016 0.2384 0.19297 0.20825 0.20063 0.2148
3655.413 0.20349 0.15439 0.15144 0.2789 0.3179 0.1759 0.15464 0.119771 0.12901 0.14415
3674.703 0.1274 0.20183 0.0764 0.0884 0.3229 0.3276 0.266 0.3748 0.2814 0.13224
3693.993 0.12267 0.13632 0.17748 0.2446 0.322 0.4005 0.3811 0.2271 0.2481 0.373
3713.282 0.3565 0.201 0.13764 0.3062 0.2988 0.15637 0.20467 0.2599 0.2892 0.20865
3732.572 0.2116 0.20832 0.14832 0.18366 0.2223 0.3376 0.4097 0.3858 0.4358 0.3962
3751.862 0.2945 0.2845 0.2285 0.14673 0.17796 0.2678 0.3152 0.2618 0.2349 0.20833
3771.152 0.19438 0.20701 0.15422 0.0891 0.18841 0.3118 0.2794 0.19744 0.16596 0.17694
3790.441 0.19239 0.2433 0.2797 0.2831 0.344 0.4002 0.4071 0.4358 0.4887 0.3756
3809.731 0.2591 0.4501 0.5503 0.3541 0.16484 0.2365 0.4262 0.4363 0.3577 0.4252
3829.021 0.489 0.5421 0.6052 0.4908 0.3646 0.3038 0.2742 0.2212 0.2576 0.4315
3848.311 0.4713 0.366 0.3808 0.4753 0.491 0.4451 0.3724 0.5074 0.5724 0.4838
3867.601 0.3473 0.2229 0.3539 0.4921 0.5275 0.4305 0.2818 0.2902 0.3979 0.4289
3886.890 0.4274 0.4312 0.4188 0.4361 0.2444 0.17832 0.2785 0.3137 0.4798 0.6029
3906.180 0.5677 0.5269 0.3596 0.2933 0.4163 0.4562 0.4454 0.4194 0.4474 0.4762
3925.470 0.4106 0.454 0.5664 0.6275 0.5758 0.3956 0.4445 0.6013 0.6529 0.6027
3944.760 0.6306 0.7487 0.6677 0.4126 0.4794 0.7355 0.7198 0.5736 0.5704 0.8457
3964.049 0.931 0.7493 0.8087 0.9494 0.9572 0.7995 0.698 0.6618 0.7166 0.7534
3983.339 0.7351 0.7346 0.6762 0.475 0.4505 0.6692 0.5428 0.4735 0.5453 0.6163
##END=
