##TITLE=4-Ethoxy-3-methoxybenzaldehyde
##JCAMP-DX=4.24
##DATA TYPE=INFRARED SPECTRUM
##ORIGIN=EPA-IR VAPOR PHASE LIBRARY
##OWNER=SRD/NIST
Collection (C) 2018 copyright by the U.S. Secretary of Commerce
on behalf of the United States of America. All rights reserved.
##CAS REGISTRY NO=120-25-2
##MOLFORM=C 10 H 12 O 3
##$NIST SOURCE=MSDC-IR
##STATE=gas
##XUNITS=1/CM
##YUNITS=ABSORBANCE
##XFACTOR=1.
##YFACTOR=0.001
##DELTAX=3.85796
##FIRSTX=501.5
##LASTX=4000.7
##FIRSTY=0.7892
##MAXX=4000.7
##MINX=501.534
##MAXY=0.164011
##MINY=0
##NPOINTS=908
##XYDATA=(X++(Y..Y))
501.534 0.7892 0.7584 0.7687 0.8091 0.8688 0.9437 1.151 1.351 1.491 1.641
540.114 1.781 1.941 2.211 2.451 2.671 3.031 3.191 3.261 3.421 3.651
578.693 3.911 4.181 4.381 4.431 4.261 4.011 3.851 3.871 4.161 4.631
617.273 5.291 6.241 7.331 8.171 8.611 8.481 7.771 6.781 5.741 4.711
655.852 3.671 2.661 1.921 1.451 1.171 1.0892 1.0232 0.985 0.9601 0.9991
694.432 1.141 1.311 1.641 2.181 3.161 4.901 7.651 11.171 14.311 15.911
733.011 15.521 13.471 11.171 9.481 8.481 8.021 8.031 8.711 10.031 11.891
771.591 13.721 14.541 13.951 12.331 10.721 9.981 10.321 11.391 12.101 12.181
810.170 11.811 10.981 10.071 9.381 8.661 7.811 6.941 6.111 5.391 4.841
848.750 4.561 4.461 4.561 4.911 5.491 6.231 6.761 6.871 6.851 6.871
887.330 6.951 7.111 7.301 7.331 7.111 6.811 6.681 6.821 7.381 8.321
925.909 9.321 9.961 10.131 9.911 9.461 8.931 8.401 7.761 6.901 5.991
964.489 5.191 4.511 4.131 4.071 4.271 4.711 5.271 6.061 7.161 8.331
1003.068 9.861 12.271 15.921 21.171 28.301 36.821 45.141 51.351 53.671 51.321
1041.648 45.101 37.051 28.971 22.171 17.261 13.911 11.771 10.591 10.111 10.271
1080.227 11.031 12.201 13.741 15.521 17.661 20.701 25.191 31.471 38.991 46.801
1118.807 53.631 58.241 60.041 58.941 55.781 52.201 49.631 48.011 46.241 42.871
1157.387 37.031 29.701 22.971 18.131 15.251 13.871 13.541 13.881 14.611 15.511
1195.966 16.671 18.361 20.881 24.311 28.491 33.101 37.761 42.251 46.231 49.301
1234.546 51.591 53.561 56.341 61.881 71.991 88.051 109.511 133.221 153.461 164.011
1273.125 161.441 146.971 125.371 102.121 81.651 65.791 54.471 46.571 40.661 35.751
1311.705 31.311 27.291 23.801 20.851 18.441 16.371 14.521 12.781 11.201 9.991
1350.284 9.221 8.981 9.341 10.341 12.161 14.971 18.861 23.841 29.261 33.141
1388.864 34.441 32.971 29.241 25.331 23.161 23.491 26.231 29.681 31.491 30.291
1427.443 26.131 20.571 16.181 13.921 13.541 14.481 16.351 18.711 21.481 24.171
1466.023 26.751 29.381 32.181 33.781 34.161 35.061 38.391 46.141 57.701 68.591
1504.603 73.291 69.631 58.801 44.781 32.141 23.001 17.351 13.941 11.891 10.701
1543.182 10.091 10.021 10.421 11.361 13.181 16.081 20.061 25.461 31.501 37.741
1581.762 43.541 49.091 54.261 57.671 57.131 51.481 41.571 30.021 20.361 13.881
1620.341 10.051 7.881 6.521 5.701 5.181 4.881 4.741 4.751 4.881 5.171
1658.921 5.621 6.351 7.311 8.521 10.021 11.891 14.121 17.091 20.881 26.481
1697.500 35.671 51.901 78.111 109.951 133.101 137.731 119.141 85.381 53.071 30.901
1736.080 18.181 12.101 8.761 6.841 5.561 4.701 4.101 3.671 3.341 3.101
1774.659 2.881 2.741 2.621 2.531 2.431 2.341 2.261 2.191 2.121 2.061
1813.239 2.021 1.991 1.981 1.971 1.951 1.951 1.951 1.931 1.891 1.891
1851.819 1.931 2.001 2.061 2.121 2.171 2.201 2.171 2.081 2.001 1.931
1890.398 1.851 1.801 1.791 1.781 1.771 1.751 1.731 1.721 1.701 1.661
1928.978 1.631 1.601 1.571 1.541 1.511 1.491 1.511 1.531 1.521 1.531
1967.557 1.571 1.601 1.641 1.681 1.731 1.781 1.831 1.851 1.821 1.761
2006.137 1.721 1.691 1.651 1.641 1.661 1.711 1.761 1.821 1.911 1.991
2044.716 2.041 2.071 2.061 2.021 1.931 1.811 1.701 1.611 1.541 1.451
2083.296 1.361 1.281 1.231 1.171 1.1036 1.0596 1.0187 0.973 0.9203 0.8694
2121.875 0.8174 0.779 0.7695 0.7523 0.7364 0.7449 0.7549 0.7587 0.7821 0.7945
2160.455 0.7502 0.7163 0.7238 0.7145 0.7034 0.7309 0.7477 0.7345 0.7312 0.7312
2199.035 0.7311 0.7339 0.7315 0.7433 0.7582 0.7595 0.7869 0.8186 0.8174 0.7897
2237.614 0.7865 0.7823 0.7572 0.7646 0.7744 0.7746 0.8056 0.8374 0.8423 0.8584
2276.194 0.8642 0.8393 0.8214 0.8234 0.8221 0.8225 0.8263 0.8104 0.7853 0.7582
2314.773 0.7161 0.6681 0.6264 0.5753 0.5515 0.5545 0.5332 0.5165 0.5216 0.5122
2353.353 0.466 0.4271 0.4235 0.4356 0.4324 0.4519 0.4739 0.4745 0.4943 0.5207
2391.932 0.5475 0.5768 0.6069 0.6394 0.6777 0.7055 0.7234 0.7376 0.7312 0.7454
2430.512 0.7592 0.7511 0.7519 0.738 0.7445 0.7692 0.7742 0.7852 0.8201 0.8315
2469.092 0.8101 0.8265 0.8507 0.8544 0.8906 0.915 0.928 0.9458 0.9604 1.0122
2507.671 1.0721 1.151 1.251 1.351 1.461 1.561 1.651 1.731 1.801 1.841
2546.251 1.861 1.901 1.921 1.931 1.961 2.011 2.071 2.151 2.201 2.231
2584.830 2.261 2.311 2.331 2.331 2.331 2.331 2.301 2.241 2.171 2.111
2623.410 2.061 2.011 2.001 2.041 2.121 2.181 2.251 2.301 2.321 2.331
2661.989 2.361 2.431 2.501 2.621 2.791 3.131 3.701 4.531 5.811 7.711
2700.569 10.311 13.461 16.661 19.521 21.501 22.141 21.351 19.341 16.501 13.561
2739.148 11.161 9.441 8.281 7.571 7.291 7.381 7.701 8.171 8.721 9.231
2777.728 9.741 10.411 11.341 12.631 14.241 16.081 17.951 19.571 20.661 20.861
2816.308 20.011 18.341 16.291 14.461 13.261 12.691 12.511 12.431 12.231 11.811
2854.887 11.211 10.591 10.171 10.181 10.661 11.521 12.581 13.611 14.391 14.791
2893.467 14.911 14.961 15.061 15.381 15.861 16.381 16.991 17.711 18.621 20.001
2932.046 22.071 24.781 27.411 28.921 28.841 27.321 25.101 23.231 22.261 22.021
2970.626 22.321 23.321 25.001 26.861 28.101 28.161 26.991 24.761 22.361 20.441
3009.205 18.551 16.401 14.001 11.531 9.511 8.281 7.661 7.341 7.091 6.871
3047.785 6.701 6.541 6.411 6.331 6.331 6.311 6.181 5.871 5.421 4.901
3086.364 4.331 3.831 3.411 3.081 2.781 2.541 2.301 2.041 1.801 1.581
3124.944 1.411 1.281 1.171 1.0555 0.9812 0.978 0.9674 0.9252 0.9084 0.8499
3163.524 0.8399 0.8382 0.8039 0.8196 0.8228 0.8034 0.7593 0.7271 0.6886 0.6348
3202.103 0.5637 0.5039 0.4434 0.3904 0.3665 0.3547 0.3302 0.2968 0.2891 0.2279
3240.683 0.20632 0.19625 0.14464 0.13808 0.16186 0.18334 0.15569 0.14082 0.1707 0.1472
3279.262 0.1036 0.0805 0.0975 0.1441 0.14829 0.128613 0.130867 0.14373 0.13808 0.11702
3317.842 0.1445 0.17636 0.16461 0.1925 0.1524 0.0951 0.14204 0.19606 0.20106 0.17195
3356.421 0.15206 0.18392 0.2519 0.3106 0.343 0.4204 0.5071 0.6139 0.7924 1.0008
3395.001 1.271 1.501 1.681 1.841 1.881 1.781 1.561 1.281 1.0354 0.8684
3433.580 0.7172 0.62 0.5361 0.436 0.3577 0.2922 0.2389 0.18028 0.14673 0.16214
3472.160 0.17834 0.14398 0.0879 0.0843 0.1167 0.0981 0.072 0.1005 0.0944 0.055
3510.740 0.051 0.0677 0.081 0.0896 0.0763 0.0551 0.0567 0.0601 0.0863 0.0995
3549.319 0.0731 0.0889 0.12316 0.0853 0.072 0.0941 0.0677 0.0227 0.0371 0.0988
3587.899 0.130789 0.1029 0.1005 0.0981 0.0789 0.0384 0 0.0487 0.0813 0.0609
3626.478 0.0566 0.11656 0.1023 0.052 0.0775 0.089 0.0959 0.1001 0.0903 0.0936
3665.058 0.0981 0.1066 0.130218 0.128054 0.13408 0.17908 0.15986 0.0921 0.0655 0.0894
3703.637 0.1 0.0678 0.0816 0.132 0.15578 0.120841 0.11273 0.11401 0.0834 0.125268
3742.217 0.16956 0.122329 0.0989 0.14783 0.18709 0.2415 0.2338 0.18978 0.2296 0.2457
3780.797 0.21925 0.18995 0.18006 0.21469 0.235 0.21511 0.20258 0.2226 0.21586 0.21097
3819.376 0.2374 0.2432 0.2249 0.19085 0.17199 0.14958 0.15437 0.19353 0.16337 0.14876
3857.956 0.21083 0.2669 0.2616 0.2288 0.16819 0.15235 0.18765 0.1821 0.18562 0.22062
3896.535 0.2289 0.16759 0.14475 0.17142 0.19966 0.17491 0.15934 0.17827 0.1915 0.21314
3935.115 0.2017 0.20363 0.2286 0.21936 0.20171 0.2572 0.3191 0.3417 0.3288 0.3297
3973.694 0.3311 0.341 0.3901 0.4401 0.4565 0.4228 0.3912 0.4163
##END=
