##TITLE=2,2'-Dipyridylamine
##JCAMP-DX=4.24
##DATA TYPE=INFRARED SPECTRUM
##ORIGIN=NIST Mass Spectrometry Data Center
##OWNER=NIST Standard Reference Data Program
Collection (C) 2018 copyright by the U.S. Secretary of Commerce
on behalf of the United States of America. All rights reserved.
##CAS REGISTRY NO=1202-34-2
##MOLFORM=C 10 H 9 N 3
##$NIST SOURCE=MSDC-IR
##SPECTROMETER/DATA SYSTEM=HP-GC/MS/IRD
##STATE=gas
##XUNITS=1/CM
##YUNITS=ABSORBANCE
##XFACTOR=1.0
##YFACTOR=0.000008400
##DELTAX=4.0
##FIRSTX=550.0
##LASTX=3846.0
##FIRSTY=0.006636
##MAXX=3846
##MINX=550
##MAXY=0.084
##MINY=0
##NPOINTS=825
##XYDATA=(X++(Y..Y))
550.0 790 384 125 194 191 203 202 207 209 251
590.0 300 302 281 227 187 179 183 189 179 168
630.0 174 173 157 137 109 85 68 61 55 66
670.0 85 83 85 84 86 83 92 103 115 137
710.0 151 192 292 403 520 655 713 671 639 646
750.0 713 888 1138 1392 1608 1642 1429 1142 846 569
790.0 378 266 204 178 157 140 127 101 79 66
830.0 54 52 50 49 49 41 32 27 26 24
870.0 25 29 26 23 28 45 63 93 122 136
910.0 124 95 61 44 29 27 29 35 47 53
950.0 62 68 63 63 71 91 126 196 323 437
990.0 480 437 306 173 102 70 52 45 41 51
1030.0 75 94 111 143 168 166 160 140 106 77
1070.0 61 54 53 61 70 73 77 80 80 76
1110.0 75 74 80 94 123 181 306 589 890 988
1150.0 912 625 323 193 137 116 108 102 105 111
1190.0 119 126 140 167 210 279 384 474 511 476
1230.0 399 342 313 293 270 244 236 244 266 296
1270.0 334 368 397 423 467 552 727 1075 1729 2661
1310.0 3410 3653 3393 2824 2434 2227 1937 1517 1065 735
1350.0 550 460 419 384 334 289 255 237 232 229
1390.0 232 247 289 364 468 612 801 1075 1645 2893
1430.0 5319 8338 10000 9538 7057 3925 2276 1818 1651 1561
1470.0 1684 2070 2475 2680 2700 2646 2840 3581 4845 6387
1510.0 7611 7614 6273 4207 2397 1407 1015 833 814 917
1550.0 1036 1193 1480 2084 2818 3535 4132 4634 5220 5907
1590.0 6421 6421 5807 4721 3547 2542 1723 1140 816 638
1630.0 535 447 412 392 342 265 234 275 257 217
1670.0 178 149 138 84 59 91 49 0 19 58
1710.0 73 51 32 66 81 55 29 44 70 77
1750.0 74 84 89 84 86 55 46 70 74 75
1790.0 63 66 80 91 95 98 111 125 133 129
1830.0 122 120 111 95 90 91 80 70 62 50
1870.0 43 49 55 66 74 87 107 123 130 124
1910.0 111 97 90 91 97 101 100 97 92 89
1950.0 84 77 67 55 45 38 34 31 25 23
1990.0 20 19 18 16 14 15 16 17 18 20
2030.0 23 24 25 22 19 21 22 20 20 19
2070.0 17 17 19 20 20 21 20 19 17 19
2110.0 21 20 23 25 28 31 38 44 46 50
2150.0 47 45 43 36 32 32 27 25 26 25
2190.0 24 23 23 20 16 16 15 15 19 20
2230.0 24 25 25 26 26 27 27 31 34 37
2270.0 40 38 35 34 34 35 37 43 48 52
2310.0 57 61 64 66 67 63 61 66 66 62
2350.0 58 58 61 63 67 64 56 53 52 47
2390.0 45 43 40 38 35 35 37 37 36 36
2430.0 33 31 33 34 36 39 40 41 40 37
2470.0 36 37 40 46 51 51 52 52 49 47
2510.0 45 41 40 41 41 40 39 38 39 47
2550.0 52 54 56 53 51 51 49 45 44 39
2590.0 34 30 27 28 24 22 23 23 22 18
2630.0 17 18 18 18 17 15 13 13 16 20
2670.0 19 20 19 16 15 14 15 16 15 19
2710.0 21 25 29 30 32 29 24 27 28 29
2750.0 30 31 31 33 30 25 24 30 35 35
2790.0 34 31 32 33 30 30 31 30 28 24
2830.0 21 22 28 30 30 35 39 38 33 32
2870.0 34 32 31 34 36 34 36 44 45 45
2910.0 47 44 47 53 52 47 45 46 47 47
2950.0 47 50 57 59 61 66 74 83 95 112
2990.0 135 157 186 225 269 319 380 450 511 544
3030.0 543 516 480 461 474 527 605 685 749 786
3070.0 799 792 767 728 671 594 499 390 288 214
3110.0 162 138 124 119 118 109 98 95 93 90
3150.0 84 83 84 83 83 87 88 87 84 83
3190.0 78 76 75 71 61 56 56 55 53 52
3230.0 51 56 58 58 56 55 56 55 54 53
3270.0 48 44 47 50 51 51 50 51 52 53
3310.0 54 55 57 56 57 58 57 54 56 60
3350.0 62 67 69 68 67 69 72 73 76 84
3390.0 94 105 123 149 178 223 280 345 417 486
3430.0 544 581 583 543 464 369 280 208 157 121
3470.0 99 93 92 90 88 83 77 81 88 89
3510.0 85 79 82 84 81 77 77 80 84 82
3550.0 77 78 80 81 82 81 74 74 77 78
3590.0 80 77 76 78 74 69 64 59 69 56
3630.0 44 60 72 76 51 39 59 70 81 67
3670.0 36 22 44 76 55 38 70 83 80 76
3710.0 58 71 85 81 80 58 41 51 25 2
3750.0 2 26 62 72 75 78 89 85 85 93
3790.0 92 82 51 31 46 68 51 33 49 69
3830.0 71 44 29 55 78
##END=
