##TITLE=2-Amino-N-t-butylbenzamide
##JCAMP-DX=4.24
##DATA TYPE=INFRARED SPECTRUM
##ORIGIN=EPA-IR VAPOR PHASE LIBRARY
##OWNER=SRD/NIST
Collection (C) 2018 copyright by the U.S. Secretary of Commerce
on behalf of the United States of America. All rights reserved.
##CAS REGISTRY NO=1203-89-0
##MOLFORM=C 11 H 16 N 2 O
##$NIST SOURCE=MSDC-IR
##STATE=gas
##XUNITS=1/CM
##YUNITS=ABSORBANCE
##XFACTOR=1.
##YFACTOR=0.001
##DELTAX=3.85796
##FIRSTX=551.7
##LASTX=4000.7
##FIRSTY=10.8
##MAXX=4000.7
##MINX=551.688
##MAXY=0.10057
##MINY=0.0009007
##NPOINTS=895
##XYDATA=(X++(Y..Y))
551.688 10.8 10.9 10.79 10.49 10.05 9.69 9.57 9.4 9.41 9.4
590.268 9.24 9.19 9.17 9.19 9.13 8.94 8.74 8.62 8.58 8.58
628.847 8.54 8.5 8.54 8.61 8.87 9.46 10.44 12.3 14.76 16.37
667.427 16.27 14.34 11.87 10.46 10.09 10.31 10.98 11.92 13.04 13.71
706.006 13.27 12.37 11.6 11.19 11.67 13.43 16.81 21.62 27.14 31.25
744.586 30.75 26.62 21.7 17.13 13.55 11.22 9.81 8.76 8.08 7.69
783.165 7.45 7.28 7.16 7.06 6.97 6.93 6.92 7.02 7.05 7.13
821.745 7.32 7.33 7.46 7.69 7.9 8.27 8.57 8.58 8.49 8.49
860.324 8.57 8.88 9.61 10.57 11.43 11.81 11.57 10.91 10.14 9.5
898.904 9.11 8.86 8.66 8.42 7.95 7.4 6.91 6.52 6.38 6.43
937.484 6.47 6.46 6.47 6.49 6.47 6.39 6.29 6.19 6.05 5.94
976.063 5.92 5.86 5.78 5.7 5.62 5.6 5.56 5.45 5.33 5.31
1014.643 5.34 5.46 5.69 5.87 6.13 6.32 6.39 6.38 6.19 5.89
1053.222 5.59 5.39 5.19 5.05 4.89 4.63 4.45 4.42 4.5 4.47
1091.802 4.54 4.74 4.94 5.34 5.89 6.67 7.47 8.4 9.27 9.74
1130.381 9.72 9.37 9.07 9.36 11.06 14.67 19.2 22.35 22.38 19.04
1168.961 14.42 11.32 10.33 10.57 11.55 13.06 15.1 17.9 21.6 26.11
1207.540 30.69 34.16 35.81 35.79 35.09 34.23 32.45 29.6 27 26.62
1246.120 29.58 35.28 41.72 46.06 46.38 43.1 38.91 36.92 37.82 40.09
1284.699 41.51 40.13 35.76 29.92 24.83 21.82 20.72 20.59 20.22 18.82
1323.279 16.33 13.34 10.82 9.18 8.27 7.96 8.19 9.03 10.69 13.44
1361.859 17.22 21.05 22.73 21.25 17.94 15.22 15.25 18.38 21.84 22.64
1400.438 20.18 15.55 11.74 10.15 9.79 10.01 10.69 11.89 13.76 16.67
1439.018 21.11 27.29 34.78 41.87 46.23 46.87 44.8 42.32 42.2 46.14
1477.597 53.53 62.05 69.66 76.09 82.53 90.29 97.67 100.57 96.98 87.3
1516.177 73.59 58.94 45.81 35.93 29.2 24.99 22.56 21.34 21.08 21.48
1554.756 22.15 22.75 23.08 23.29 23.92 25.59 28.88 33.43 38.33 42.38
1593.336 44.79 45.81 46.77 49.2 53.25 56.27 55.79 51.21 43.21 34.37
1631.915 27.44 22.75 20.05 18.92 19.07 20.66 24.33 30.28 39.48 51.44
1670.495 63.61 71.49 72.35 65.86 53.59 41.36 31.69 24.54 19.32 15.5
1709.075 12.65 10.61 9.18 8.12 7.32 6.62 6 5.44 4.99 4.63
1747.654 4.36 4.14 4.02 3.98 4.01 4.09 4.12 4.07 3.92 3.71
1786.234 3.49 3.29 3.16 3.09 3.02 2.95 2.86 2.75 2.65 2.58
1824.813 2.51 2.44 2.38 2.34 2.34 2.36 2.38 2.39 2.39 2.38
1863.393 2.39 2.37 2.34 2.34 2.4 2.47 2.54 2.6 2.59 2.51
1901.972 2.43 2.4 2.44 2.58 2.76 2.85 2.75 2.48 2.19 1.97
1940.552 1.82 1.74 1.7 1.7 1.69 1.68 1.67 1.65 1.64 1.62
1979.131 1.62 1.6 1.57 1.54 1.5 1.48 1.48 1.45 1.42 1.42
2017.711 1.42 1.43 1.44 1.43 1.42 1.41 1.4 1.38 1.37 1.36
2056.291 1.32 1.3 1.27 1.24 1.23 1.22 1.2 1.19 1.18 1.17
2094.870 1.19 1.18 1.16 1.17 1.21 1.24 1.26 1.28 1.29 1.31
2133.450 1.34 1.33 1.32 1.33 1.28 1.24 1.24 1.21 1.22 1.21
2172.029 1.19 1.19 1.17 1.17 1.17 1.15 1.12 1.12 1.1 1.09
2210.609 1.1 1.09 1.09 1.11 1.12 1.1 1.08 1.07 1.07 1.08
2249.188 1.09 1.09 1.08 1.08 1.1 1.11 1.13 1.17 1.17 1.17
2287.768 1.17 1.17 1.19 1.16 1.17 1.18 1.18 1.23 1.26 1.26
2326.347 1.27 1.25 1.23 1.22 1.23 1.24 1.22 1.23 1.22 1.21
2364.927 1.23 1.24 1.25 1.26 1.29 1.3 1.3 1.32 1.32 1.33
2403.507 1.34 1.34 1.34 1.32 1.31 1.29 1.26 1.25 1.22 1.18
2442.086 1.15 1.13 1.09 1.05 1.03 1.02 1 1.01 1.05 1.07
2480.666 1.08 1.06 1.02 1.03 1.04 1.02 1.03 1.03 1.02 1.01
2519.245 1.01 1.04 1.05 1.06 1.06 1.07 1.09 1.11 1.12 1.14
2557.825 1.16 1.16 1.16 1.2 1.23 1.25 1.27 1.29 1.3 1.28
2596.404 1.28 1.28 1.29 1.31 1.34 1.35 1.34 1.38 1.44 1.49
2634.984 1.54 1.55 1.53 1.52 1.49 1.42 1.38 1.37 1.34 1.3
2673.563 1.27 1.29 1.29 1.29 1.3 1.31 1.36 1.39 1.43 1.47
2712.143 1.51 1.58 1.64 1.69 1.75 1.75 1.67 1.65 1.66 1.65
2750.722 1.66 1.7 1.75 1.75 1.78 1.8 1.79 1.78 1.78 1.79
2789.302 1.78 1.78 1.79 1.81 1.88 1.93 1.99 2.09 2.18 2.28
2827.882 2.39 2.51 2.64 2.81 3.03 3.34 3.78 4.34 5.01 5.86
2866.461 6.87 7.95 8.96 9.78 10.33 10.67 10.94 11.23 11.55 11.92
2905.041 12.53 13.29 14.2 15.27 16.48 17.76 18.86 19.57 19.77 19.54
2943.620 19.15 19.15 20.16 22.71 27.1 32.76 37.63 40.34 42.05 41.13
2982.200 36.12 28.4 19.41 13.44 11.65 11.38 11.16 10.72 10.17 10.1
3020.779 10.61 11.12 11.19 10.67 9.89 9.15 8.68 8.58 8.92 9.63
3059.359 10.43 11.03 11.22 11.1 10.82 10.42 9.77 8.75 7.44 6.09
3097.938 5.03 4.29 3.77 3.38 3.09 2.9 2.71 2.53 2.38 2.25
3136.518 2.18 2.11 2.04 2.01 1.99 2.01 2.04 2.06 2.11 2.14
3175.098 2.12 2.13 2.11 2.07 2.05 2.04 1.98 1.99 2.02 2.03
3213.677 2.05 2.04 2.04 2.11 2.16 2.11 2.14 2.2 2.18 2.17
3252.257 2.15 2.2 2.25 2.28 2.37 2.44 2.45 2.49 2.57 2.63
3290.836 2.68 2.73 2.8 2.92 3.11 3.36 3.76 4.36 5.13 6.05
3329.416 6.9 7.5 7.84 8.11 8.64 9.9 12.18 15.54 19.55 22.83
3367.995 24.03 22.66 19.36 15.37 11.79 9.06 7.12 5.81 4.92 4.37
3406.575 3.96 3.67 3.49 3.26 3.1 3.08 3.11 3.25 3.54 3.97
3445.154 4.58 5.38 6.35 7.25 7.92 8.2 8.07 7.76 7.61 7.74
3483.734 8.37 9.63 11.51 13.66 15.42 15.93 14.7 12.13 9.14 6.59
3522.314 4.84 3.83 3.23 2.79 2.48 2.26 1.98 1.75 1.64 1.55
3560.893 1.52 1.47 1.38 1.32 1.27 1.22 1.21 1.22 1.2 1.16
3599.473 1.14 1.16 1.13 1.09 1.13 1.15 1.19 1.22 1.2 1.11
3638.052 1.04 1.04 1.05 1.07 1.05 1.07 1.11 1.07 1.09 1.08
3676.632 1.02 1.07 1.13 1.09 1.05 1.04 1.02 1.06 1.08 1.04
3715.211 0.9941 0.9888 1.02 1.05 1.04 1.04 0.9869 0.919 0.9007 0.9415
3753.791 0.9246 0.9032 0.9751 1.04 1.03 0.9803 0.9856 1.01 1.02 1.07
3792.370 1.1 1.11 1.12 1.07 1.03 1.02 1 1.03 1.04 1.03
3830.950 1.04 1.01 1.04 1.07 1.03 1.1 1.15 1.13 1.16 1.14
3869.530 1.11 1.12 1.13 1.1 1.11 1.13 1.15 1.18 1.14 1.18
3908.109 1.23 1.21 1.2 1.23 1.18 1.12 1.1 1.16 1.25 1.19
3946.689 1.18 1.24 1.23 1.23 1.21 1.16 1.18 1.19 1.17 1.21
3985.268 1.18 1.09 1.04 1.07 1.13
##END=
