##TITLE=p-Phenylenediacetate
##JCAMP-DX=4.24
##DATA TYPE=INFRARED SPECTRUM
##ORIGIN=EPA-IR VAPOR PHASE LIBRARY
##OWNER=SRD/NIST
Collection (C) 2018 copyright by the U.S. Secretary of Commerce
on behalf of the United States of America. All rights reserved.
##CAS REGISTRY NO=1205-91-0
##MOLFORM=C 10 H 10 O 4
##$NIST SOURCE=MSDC-IR
##STATE=gas
##XUNITS=1/CM
##YUNITS=ABSORBANCE
##XFACTOR=1.
##YFACTOR=0.001
##DELTAX=3.85796
##FIRSTX=551.7
##LASTX=4000.7
##FIRSTY=2.87
##MAXX=4000.7
##MINX=551.688
##MAXY=0.77653
##MINY=0.00008985
##NPOINTS=895
##XYDATA=(X++(Y..Y))
551.688 2.87 2.66 2.74 3.05 3.48 4.04 4.82 5.99 7.89 10.4
590.268 13.36 17.15 23.17 30.94 35.82 34.04 26.49 17.78 11.84 8.2
628.847 5.85 4.39 3.62 3.32 3.22 3.25 3.24 3.16 3.16 3.19
667.427 3.08 2.99 2.96 2.89 2.76 2.72 2.64 2.45 2.32 2.23
706.006 2.07 1.9 1.97 2.05 2.1 2.16 2.32 2.52 2.75 2.98
744.586 3.16 3.5 4.15 4.95 5.6 6 6.13 6.24 6.45 6.75
783.165 6.96 6.94 6.85 6.66 6.63 6.92 7.38 8.01 9.02 10.57
821.745 12.65 15.47 18.92 22.54 25.42 26.7 26.48 25.49 24.28 22.84
860.324 21.46 20.23 19.43 19.58 20.93 23.63 27.82 33.65 41.38 50.67
898.904 60.49 69.81 77.21 80.41 76.71 65.79 50.68 36.45 26.4 19.85
937.484 15.24 11.74 9.17 7.72 7.13 7.12 7.49 8.21 9.49 11.5
976.063 14.23 17.66 21.77 26.58 32.58 41.3 54.68 72.09 88.05 97.88
1014.643 93.36 75.21 52.67 33.37 24.19 20.82 19.39 19.18 19.73 20.74
1053.222 22.24 24.48 27.39 31.01 34.94 38.4 40.5 41.11 40.34 38.75
1091.802 37.08 35.45 33.87 32.71 31.77 30.91 30.27 30.18 30.68 31.49
1130.381 33.33 37.11 43.12 52.79 68.76 94.37 135.36 201.56 304.89 448.86
1168.961 611.53 737.43 776.53 724.76 624.57 538.86 504.01 522.84 560.36 554.44
1207.540 471.98 343 233.76 169.19 132.38 107.46 88.46 73.11 60.98 51.66
1246.120 44.79 39.92 36.52 34.19 32.32 30.69 29.31 27.92 26.38 24.6
1284.699 22.61 20.75 19.07 17.69 16.48 15.31 14.21 13.2 12.3 11.49
1323.279 10.82 10.36 10.19 10.38 11.08 12.55 15.15 19.45 26.49 38.49
1361.859 59.9 91.86 122.61 132.89 113.94 79.42 50.05 32.97 24.43 19.89
1400.438 17.32 15.95 15.39 15.3 15.44 15.62 15.85 16.26 16.81 17.42
1439.018 17.98 18.41 18.44 17.89 16.85 15.71 15.19 15.62 16.9 19.4
1477.597 23.5 31.09 45.87 75.63 127.56 195.98 240.4 222.6 150.39 76.69
1516.177 37.78 24.44 18.71 15.78 13.71 12.14 10.75 9.78 9.14 8.81
1554.756 8.71 8.75 8.83 9.05 9.35 9.74 10.11 10.37 10.48 10.46
1593.336 10.27 9.96 9.59 9.18 8.72 8.23 7.82 7.43 7.14 7.01
1631.915 6.98 7.06 7.13 7.25 7.38 7.47 7.52 7.52 7.43 7.34
1670.495 7.27 7.31 7.45 7.68 7.91 8.12 8.48 8.99 9.61 10.35
1709.075 11.24 12.31 13.74 15.61 17.91 20.71 24.14 28.5 33.7 39.96
1747.654 47.52 57.36 70.09 86.57 107.29 132.02 160.35 190.05 216.36 234.17
1786.234 238.84 230.21 210.11 181.43 147.82 115.01 88.31 69.02 55.09 44.64
1824.813 36.66 30.47 25.76 22.12 19.23 16.81 14.62 12.71 11.15 9.95
1863.393 9.17 8.73 8.44 8.12 7.68 7.02 6.22 5.49 4.9 4.48
1901.972 4.17 3.96 3.88 3.8 3.67 3.53 3.38 3.25 3.13 3.08
1940.552 3.08 3.13 3.29 3.53 3.81 4.17 4.65 5.15 5.67 6.12
1979.131 6.51 6.77 6.87 6.8 6.61 6.43 6.24 6.01 5.77 5.45
2017.711 5.03 4.66 4.35 4.07 3.82 3.64 3.51 3.32 3.13 2.96
2056.291 2.79 2.65 2.54 2.49 2.49 2.56 2.65 2.78 2.97 3.2
2094.870 3.43 3.65 3.84 3.84 3.64 3.36 3.07 2.79 2.51 2.25
2133.450 2.04 1.88 1.69 1.52 1.44 1.35 1.29 1.28 1.26 1.2
2172.029 1.16 1.15 1.1 1.02 0.9863 0.9852 0.9618 1 1.06 1.09
2210.609 1.09 1.06 1.02 0.9965 0.9691 0.9101 0.8742 0.8721 0.8794 0.9076
2249.188 1.01 1.11 1.15 1.23 1.32 1.39 1.49 1.51 1.49 1.45
2287.768 1.37 1.32 1.29 1.28 1.27 1.24 1.21 1.23 1.33 1.41
2326.347 1.49 1.58 1.64 1.65 1.63 1.68 1.74 1.81 1.88 2.02
2364.927 2.27 2.56 2.84 3.13 3.4 3.61 3.71 3.68 3.56 3.39
2403.507 3.18 2.9 2.62 2.39 2.16 1.94 1.78 1.65 1.54 1.49
2442.086 1.38 1.26 1.18 1.06 0.9331 0.8416 0.8218 0.806 0.7727 0.7356
2480.666 0.7212 0.7178 0.6909 0.6869 0.6626 0.6475 0.6122 0.5948 0.6003 0.5957
2519.245 0.5518 0.4949 0.4891 0.5047 0.4903 0.4906 0.5287 0.5223 0.5315 0.5772
2557.825 0.6519 0.7295 0.8172 0.8799 0.8705 0.7979 0.7103 0.6617 0.5808 0.5282
2596.404 0.4731 0.3868 0.3245 0.321 0.3104 0.263 0.2928 0.2645 0.2326 0.2911
2634.984 0.2932 0.2608 0.2843 0.2936 0.2898 0.3216 0.3405 0.3639 0.3749 0.3777
2673.563 0.4126 0.441 0.4531 0.4799 0.4675 0.4411 0.5045 0.5567 0.5591 0.624
2712.143 0.715 0.7116 0.6474 0.6249 0.6294 0.5787 0.4977 0.449 0.4131 0.3815
2750.722 0.3833 0.3916 0.4173 0.4388 0.44 0.4678 0.4852 0.5182 0.6335 0.6869
2789.302 0.6736 0.6953 0.6845 0.6301 0.6045 0.6134 0.6283 0.5964 0.5563 0.5716
2827.882 0.6372 0.7075 0.7448 0.843 0.959 1.07 1.27 1.48 1.57 1.62
2866.461 1.52 1.36 1.27 1.18 1.14 1.09 1.08 0.9863 0.8921 0.9141
2905.041 0.982 1.03 1.06 1.14 1.28 1.42 1.62 1.95 2.38 3.07
2943.620 4.23 5.5 6.15 5.89 4.94 3.89 3.22 2.98 2.91 2.95
2982.200 2.99 3.04 3.21 3.33 3.45 3.63 3.85 4.15 4.47 4.76
3020.779 5.14 5.62 6.08 6.41 6.55 6.69 7.13 7.87 8.64 8.96
3059.359 8.55 7.72 6.97 6.51 6.36 6.26 6.09 5.8 5.46 5.2
3097.938 4.91 4.67 4.43 4.15 3.86 3.46 3.04 2.7 2.37 2.04
3136.518 1.73 1.51 1.34 1.22 1.17 1.11 1.09 1.01 0.9046 0.8676
3175.098 0.8066 0.7362 0.6713 0.6508 0.587 0.4687 0.4416 0.4191 0.3845 0.3229
3213.677 0.3307 0.4395 0.3962 0.3298 0.3192 0.3021 0.306 0.2764 0.2281 0.2435
3252.257 0.2694 0.2093 0.1401 0.1705 0.1885 0.1484 0.1672 0.1974 0.2195 0.2265
3290.836 0.1651 0.1414 0.1467 0.1285 0.1056 0.1015 0.1704 0.1944 0.2033 0.2015
3329.416 0.1219 0.1222 0.1487 0.1691 0.1431 0.1015 0.1597 0.1244 0.08985 0.1277
3367.995 0.1844 0.1925 0.1882 0.1657 0.1852 0.2307 0.1735 0.1435 0.1505 0.2195
3406.575 0.1457 0.08997 0.104 0.1061 0.1847 0.1669 0.1493 0.2458 0.2687 0.2021
3445.154 0.2204 0.307 0.3347 0.3764 0.4103 0.3831 0.3877 0.4241 0.4548 0.467
3483.734 0.5022 0.5512 0.6166 0.6529 0.7631 0.8824 0.9653 1.1 1.29 1.5
3522.314 1.72 1.91 2.08 2.32 2.64 2.94 3.07 3.11 3.05 2.83
3560.893 2.53 2.23 1.94 1.74 1.54 1.31 1.15 1.02 0.9392 0.8313
3599.473 0.7639 0.6398 0.5303 0.5453 0.489 0.3963 0.3697 0.3463 0.3518 0.3762
3638.052 0.302 0.3032 0.3705 0.3438 0.3434 0.3276 0.3411 0.3888 0.2977 0.2361
3676.632 0.2593 0.29 0.2521 0.2662 0.3589 0.2768 0.1743 0.2372 0.2675 0.2477
3715.211 0.2167 0.185 0.2046 0.1758 0.1578 0.1922 0.1499 0.09114 0.1264 0.1828
3753.791 0.2004 0.2519 0.2405 0.1354 0.1201 0.2109 0.2345 0.1888 0.2152 0.2049
3792.370 0.2109 0.2074 0.1293 0.1279 0.1314 0.09258 0.09764 0.1701 0.2259 0.2084
3830.950 0.2079 0.203 0.1885 0.1942 0.1758 0.2049 0.2871 0.3534 0.3609 0.302
3869.530 0.3111 0.2892 0.2381 0.3127 0.3502 0.3587 0.3425 0.3201 0.3339 0.2985
3908.109 0.2579 0.3061 0.3477 0.2808 0.3504 0.4504 0.4466 0.4888 0.441 0.3468
3946.689 0.3299 0.4101 0.4631 0.5188 0.5706 0.4901 0.4356 0.4561 0.4256 0.4312
3985.268 0.5524 0.5832 0.5748 0.546 0.5519
##END=
