##TITLE=4-Ethoxycarbonylphenylisothiocyanate
##JCAMP-DX=4.24
##DATA TYPE=INFRARED SPECTRUM
##ORIGIN=EPA-IR VAPOR PHASE LIBRARY
##OWNER=SRD/NIST
Collection (C) 2018 copyright by the U.S. Secretary of Commerce
on behalf of the United States of America. All rights reserved.
##CAS REGISTRY NO=1205-06-7
##MOLFORM=C 10 H 9 N O 2 S
##$NIST SOURCE=MSDC-IR
##STATE=gas
##XUNITS=1/CM
##YUNITS=ABSORBANCE
##XFACTOR=1.
##YFACTOR=0.001
##DELTAX=1.92898
##FIRSTX=549.8
##LASTX=4000.7
##FIRSTY=6.794
##MAXX=4000.7
##MINX=549.759
##MAXY=0.805164
##MINY=0
##NPOINTS=1790
##XYDATA=(X++(Y..Y))
549.759 6.794 7.114 7.094 6.734 6.894 7.134 7.144 7.344 7.544 7.454
569.049 7.434 7.574 7.544 7.764 8.054 8.324 8.344 8.274 8.264 7.844
588.339 7.734 7.854 7.734 7.574 7.344 7.024 6.794 6.804 6.524 6.214
607.628 6.184 5.944 5.604 5.374 5.364 5.064 4.804 4.754 4.714 4.874
626.918 4.944 4.994 5.344 5.554 5.704 5.744 5.494 5.264 5.024 4.654
646.208 4.294 4.134 4.044 3.894 3.694 3.764 3.974 3.974 4.024 4.224
665.498 4.564 5.254 5.974 6.544 7.434 8.584 9.634 10.694 11.784 12.774
684.787 13.594 14.044 14.254 13.924 13.154 12.314 11.454 10.414 9.234 8.254
704.077 7.664 7.284 7.004 7.324 8.034 9.004 10.274 11.314 11.904 12.014
723.367 11.334 10.194 8.764 7.694 7.194 6.864 6.934 7.524 8.164 8.754
742.657 9.514 10.954 13.084 15.654 19.234 23.904 29.564 36.094 42.964 49.514
761.947 55.764 62.064 67.204 68.224 65.384 61.854 57.734 52.394 46.564 40.784
781.236 35.274 30.634 27.064 24.144 22.094 20.714 19.394 18.294 17.274 16.284
800.526 15.344 14.254 13.454 12.674 12.214 12.124 11.924 11.734 11.734 11.914
819.816 12.064 12.444 13.004 13.714 14.934 16.444 18.244 20.754 23.974 27.714
839.106 32.684 38.914 45.624 52.544 59.004 64.454 68.444 70.704 69.514 64.104
858.395 56.744 49.454 42.344 35.374 29.094 23.644 19.364 16.364 14.134 12.464
877.685 11.434 10.654 9.984 9.484 9.284 9.704 10.254 10.854 11.864 12.944
896.975 14.224 15.804 17.364 18.974 20.284 21.634 22.954 24.134 25.274 26.494
916.265 27.684 28.804 30.434 32.324 34.364 36.634 39.524 42.844 46.274 49.634
935.555 52.654 54.894 56.204 56.454 55.284 53.294 50.564 47.224 43.834 40.054
954.844 36.194 33.084 30.294 27.464 25.084 23.234 21.374 19.734 18.534 17.594
974.134 16.814 15.994 15.494 15.254 14.824 14.694 15.024 14.994 15.064 15.684
993.424 16.064 16.384 17.104 17.884 19.074 20.424 21.794 23.664 26.404 30.914
1012.714 38.624 48.964 57.454 61.774 62.664 58.854 50.184 40.254 32.024 26.184
1032.003 22.154 19.024 16.674 15.044 13.744 13.094 12.544 12.174 12.164 12.064
1051.293 12.664 13.294 13.664 14.514 15.824 16.964 18.094 19.984 22.244 25.154
1070.583 28.804 33.474 39.674 46.904 56.064 68.194 83.184 100.304 120.254 142.884
1089.873 167.594 196.444 231.434 274.014 322.994 371.944 407.844 422.664 418.034 396.994
1109.163 360.094 316.684 279.434 247.734 213.944 177.744 146.214 122.274 104.224 90.174
1128.452 79.084 69.614 61.744 55.494 50.294 46.194 42.824 40.554 38.864 37.024
1147.742 35.804 35.674 35.634 35.634 36.444 38.424 43.134 52.594 70.234 100.524
1167.032 135.734 156.884 162.814 159.524 136.504 99.414 69.024 50.954 40.814 34.514
1186.322 29.554 26.124 23.904 22.214 21.014 19.954 19.654 19.774 19.774 19.984
1205.611 20.754 22.334 24.664 27.484 31.054 36.494 42.864 49.264 56.084 63.214
1224.901 68.914 71.984 73.214 72.724 71.654 72.064 74.904 80.794 90.574 103.934
1244.191 120.724 141.614 167.044 197.634 233.694 276.164 326.624 384.964 451.014 524.014
1263.481 597.774 664.134 716.274 746.064 745.104 713.294 655.734 579.024 496.794 419.674
1282.771 353.544 300.204 255.234 214.874 178.184 145.614 118.704 98.994 87.394 82.194
1302.060 79.824 78.184 76.154 72.104 65.534 58.084 51.434 46.174 42.174 39.054
1321.350 36.464 34.094 31.764 29.564 27.394 25.234 23.314 21.704 20.454 19.534
1340.640 18.934 18.644 18.604 18.824 19.414 20.294 21.474 23.094 25.194 27.994
1359.930 31.964 37.794 46.014 55.804 64.014 67.534 66.594 61.634 52.494 42.184
1379.219 34.094 28.994 25.964 24.224 23.414 23.194 23.404 23.884 24.574 25.494
1398.509 26.494 27.564 29.024 31.084 33.824 37.204 40.674 42.894 42.864 40.864
1417.799 36.944 31.304 25.704 21.654 19.164 17.624 16.614 16.054 15.774 15.724
1437.089 15.864 16.264 16.804 17.384 18.074 18.834 19.584 20.264 20.974 21.664
1456.378 22.194 22.814 23.664 24.744 26.114 27.644 29.074 30.174 30.784 30.734
1475.668 30.014 28.784 27.484 26.374 25.784 26.084 27.514 30.454 35.094 41.554
1494.958 49.984 59.764 68.904 74.734 75.134 70.104 60.854 48.904 37.084 28.194
1514.248 22.534 19.054 16.884 15.414 14.424 13.794 13.344 12.974 12.794 12.844
1533.538 12.864 12.834 12.984 13.164 13.444 13.864 14.184 14.534 15.004 15.474
1552.827 16.004 16.584 17.304 18.244 19.444 21.024 22.734 24.514 26.544 28.704
1572.117 30.894 33.294 35.964 39.224 43.374 48.754 56.084 65.864 78.594 94.894
1591.407 115.154 139.544 167.464 196.484 222.234 239.064 242.224 229.844 203.744 168.894
1610.697 131.904 99.614 75.794 59.834 49.304 41.964 36.434 31.974 28.324 25.284
1629.986 22.914 21.144 19.704 18.724 18.134 17.754 17.544 17.384 17.294 17.384
1649.276 17.434 17.394 17.284 17.104 16.994 16.834 16.624 16.494 16.404 16.364
1668.566 16.344 16.314 16.354 16.484 16.704 16.974 17.224 17.524 17.744 18.084
1687.856 18.704 19.264 19.974 20.774 21.584 22.474 23.284 24.194 25.254 26.734
1707.146 28.844 31.644 35.524 40.484 46.804 55.384 66.544 80.684 98.784 121.244
1726.435 148.714 181.884 221.234 266.594 316.664 366.124 405.324 427.124 429.454 410.604
1745.725 370.954 318.774 264.864 215.734 173.524 138.264 109.434 86.434 68.524 54.824
1765.015 44.624 37.104 31.524 27.464 24.564 22.444 20.954 19.984 19.394 19.164
1784.305 19.094 19.044 18.984 18.824 18.444 17.904 17.254 16.454 15.664 15.064
1803.594 14.654 14.324 14.054 13.874 13.734 13.554 13.404 13.374 13.394 13.414
1822.884 13.394 13.364 13.364 13.394 13.484 13.534 13.684 13.814 13.934 14.194
1842.174 14.434 14.704 15.004 15.324 15.594 15.964 16.374 16.624 16.954 17.324
1861.464 17.624 17.934 18.184 18.354 18.564 18.824 19.024 19.144 19.294 19.444
1880.754 19.604 19.804 20.054 20.224 20.434 20.724 21.004 21.454 22.054 22.714
1900.043 23.474 24.364 25.314 26.494 27.884 29.184 30.564 32.014 33.454 34.994
1919.333 36.624 38.364 40.204 42.244 44.504 46.924 49.484 52.184 55.164 58.384
1938.623 61.794 65.564 69.734 74.234 79.114 84.424 90.214 96.424 103.094 110.164
1957.913 117.584 125.524 133.804 142.384 151.364 160.674 170.224 180.004 190.224 201.044
1977.202 212.394 224.334 237.064 250.754 265.354 280.804 297.274 314.774 333.314 353.094
1996.492 373.884 395.674 418.274 441.314 464.724 488.224 511.304 533.594 555.034 575.674
2015.782 594.984 613.114 630.934 648.694 666.814 686.114 706.824 729.274 752.444 774.584
2035.072 793.324 804.964 805.164 790.744 761.624 720.214 670.034 616.114 563.224 514.624
2054.362 472.454 437.584 410.874 392.014 380.164 375.154 376.224 382.674 394.334 410.634
2073.651 430.714 453.674 478.314 502.664 524.484 541.674 551.874 552.904 544.244 526.014
2092.941 499.474 467.204 431.854 396.164 362.184 331.114 303.444 279.604 259.414 242.294
2112.231 227.874 215.654 205.424 197.094 190.434 185.174 181.094 178.034 175.644 173.514
2131.521 171.184 168.374 164.894 160.394 155.024 149.074 142.644 136.064 129.664 123.454
2150.810 117.584 112.154 106.984 102.094 97.424 92.864 88.474 84.374 80.514 76.914
2170.100 73.714 70.744 68.014 65.704 63.624 61.824 60.324 58.964 57.784 56.774
2189.390 55.784 54.694 53.384 51.944 50.344 48.474 46.374 44.154 41.864 39.414
2208.680 36.954 34.574 32.244 30.034 27.974 26.124 24.434 22.834 21.264 19.824
2227.970 18.544 17.284 16.104 15.094 14.174 13.354 12.554 11.854 11.204 10.554
2247.259 10.084 9.594 9.054 8.694 8.464 8.224 8.004 7.834 7.714 7.614
2266.549 7.484 7.404 7.354 7.264 7.224 7.324 7.314 7.124 7.014 6.964
2285.839 6.914 6.814 6.784 6.774 6.744 6.744 6.674 6.654 6.704 6.794
2305.129 6.904 6.994 7.034 7.134 7.244 7.304 7.354 7.334 7.354 7.334
2324.418 7.154 6.944 6.724 6.504 6.284 6.054 5.804 5.584 5.474 5.344
2343.708 5.404 5.534 5.494 5.444 5.504 5.654 5.784 5.824 5.904 5.954
2362.998 5.944 5.894 5.854 5.814 5.684 5.584 5.474 5.384 5.294 5.084
2382.288 4.974 4.904 4.854 4.744 4.654 4.604 4.534 4.554 4.504 4.464
2401.578 4.424 4.344 4.384 4.364 4.384 4.444 4.364 4.384 4.504 4.644
2420.867 4.654 4.564 4.464 4.374 4.284 4.174 4.064 3.894 3.834 3.864
2440.157 3.834 3.734 3.714 3.714 3.684 3.754 3.754 3.754 3.854 3.914
2459.447 4.034 4.114 4.154 4.314 4.524 4.644 4.774 5.044 5.284 5.424
2478.737 5.624 5.874 6.084 6.244 6.434 6.674 6.934 7.244 7.464 7.764
2498.026 8.044 8.184 8.274 8.314 8.284 8.144 8.034 7.854 7.624 7.574
2517.316 7.614 7.584 7.464 7.434 7.454 7.384 7.344 7.394 7.414 7.354
2536.606 7.374 7.314 7.224 7.124 7.064 6.984 6.894 6.874 6.864 6.974
2555.896 7.034 7.124 7.304 7.484 7.754 8.044 8.384 8.754 9.084 9.534
2575.186 9.994 10.484 10.994 11.534 12.144 12.674 13.284 14.034 14.844 15.774
2594.475 16.754 17.584 18.274 18.794 19.214 19.384 19.204 18.844 18.154 16.994
2613.765 15.634 14.354 13.134 11.864 10.634 9.534 8.584 7.724 7.004 6.424
2633.055 5.884 5.514 5.244 4.964 4.764 4.614 4.484 4.324 4.194 4.064
2652.345 4.014 3.894 3.744 3.704 3.684 3.544 3.394 3.324 3.194 3.104
2671.634 3.044 2.964 2.904 2.814 2.684 2.644 2.664 2.664 2.674 2.644
2690.924 2.584 2.634 2.674 2.694 2.824 2.854 2.894 3.014 3.014 3.064
2710.214 3.334 3.554 3.594 3.774 3.984 4.014 4.104 4.374 4.624 4.774
2729.504 4.934 5.144 5.364 5.614 5.794 5.994 6.164 6.314 6.554 6.804
2748.794 6.944 7.124 7.334 7.464 7.664 8.014 8.114 7.944 7.784 7.794
2768.083 7.714 7.214 6.764 6.444 6.054 5.724 5.344 5.084 4.864 4.534
2787.373 4.354 4.304 4.204 4.124 4.094 4.034 4.034 4.134 4.184 4.204
2806.663 4.184 4.114 4.234 4.394 4.264 4.204 4.374 4.364 4.364 4.364
2825.953 4.324 4.414 4.354 4.194 4.154 4.164 4.194 4.274 4.304 4.424
2845.242 4.704 4.844 4.984 5.294 5.514 5.734 5.904 6.314 6.794 7.014
2864.532 7.304 7.664 8.024 8.484 8.914 9.374 9.964 10.634 11.494 12.304
2883.822 12.964 13.494 13.854 13.664 13.144 12.934 12.804 12.804 13.144 13.594
2903.112 14.134 14.814 15.424 16.124 16.964 17.634 17.944 17.984 17.904 17.804
2922.401 17.714 17.674 17.784 18.224 19.004 20.224 21.994 24.034 26.504 29.244
2941.691 31.734 33.604 34.544 34.424 33.504 32.054 30.464 29.234 28.634 28.694
2960.981 29.194 30.294 31.734 33.274 35.374 37.534 39.834 42.804 46.674 51.684
2980.271 57.854 64.464 69.744 72.404 71.624 67.474 61.174 53.984 47.604 42.994
2999.561 39.424 36.554 34.154 31.864 29.534 27.234 25.104 22.904 20.864 19.144
3018.850 17.394 15.754 14.474 13.334 12.334 11.544 10.834 10.214 9.674 9.274
3038.140 8.954 8.564 8.174 8.074 8.044 8.054 8.124 8.064 7.924 7.714
3057.430 7.574 7.404 7.224 7.144 7.094 7.094 7.174 7.284 7.444 7.754
3076.720 8.204 8.524 8.504 8.234 7.774 7.274 6.754 6.244 6.024 6.014
3096.009 6.044 6.064 5.934 5.744 5.644 5.524 5.374 5.184 4.894 4.584
3115.299 4.334 4.124 3.894 3.594 3.434 3.224 2.984 2.794 2.654 2.624
3134.589 2.654 2.674 2.664 2.504 2.224 2.174 2.204 2.184 1.994 1.894
3153.879 1.854 1.604 1.464 1.404 1.334 1.194 1.1537 1.1805 1.0679 1.0912
3173.169 1.0511 0.9481 0.9773 1.0155 1.1499 1.204 1.1023 0.9766 1.0577 1.204
3192.458 1.051 0.8796 0.7394 0.7588 0.8263 0.7391 0.9013 0.9071 0.8273 0.77
3211.748 0.7016 0.8094 0.7368 0.8305 0.7723 0.5075 0.5059 0.499 0.4534 0.4034
3231.038 0.26455 0.24059 0.4019 0.3443 0.20076 0.2913 0.2888 0.3133 0.336 0.27937
3250.328 0.22339 0.1136 0.187063 0.27533 0.190631 0.0845 0 0.0892 0.23066 0.1625
3269.617 0.09 0.186545 0.27671 0.26392 0.1314 0.074 0.20204 0.319 0.4445 0.4323
3288.907 0.25993 0.1729 0.2902 0.3462 0.3868 0.4623 0.4274 0.3765 0.3074 0.20323
3308.197 0.2946 0.4908 0.5383 0.5337 0.5371 0.5676 0.5706 0.6063 0.738 0.6751
3327.487 0.4974 0.5056 0.6827 0.849 0.8703 0.8327 0.7591 0.7359 0.6599 0.7663
3346.777 0.7172 0.709 0.8579 0.6458 0.5379 0.5159 0.4338 0.3118 0.3691 0.4234
3366.066 0.4876 0.4842 0.4315 0.3913 0.4413 0.5413 0.3805 0.442 0.4999 0.4133
3385.356 0.3506 0.3214 0.3274 0.27034 0.20895 0.2599 0.316 0.3143 0.2708 0.3283
3404.646 0.3664 0.2792 0.26933 0.3171 0.5032 0.4599 0.3213 0.4505 0.5102 0.3987
3423.936 0.4454 0.6465 0.643 0.6581 0.749 0.8644 1.0358 1.1241 1.244 1.434
3443.225 1.724 2.034 2.314 2.574 2.684 2.774 3.044 3.434 3.694 3.864
3462.515 3.874 3.554 3.284 3.114 2.924 2.624 2.374 2.124 1.784 1.614
3481.805 1.594 1.394 1.1732 1.334 1.284 1.1085 1.0892 0.9991 0.8586 0.775
3501.095 0.8744 0.7676 0.5532 0.4362 0.4392 0.6404 0.65 0.5894 0.6797 0.5979
3520.385 0.407 0.2892 0.3972 0.4803 0.3845 0.3779 0.3857 0.2793 0.21928 0.3026
3539.674 0.4111 0.437 0.1357 0.082 0.327 0.313 0.2916 0.3049 0.3397 0.4447
3558.964 0.4207 0.4268 0.3932 0.2984 0.3283 0.4349 0.5172 0.4494 0.3086 0.2869
3578.254 0.3729 0.3525 0.3356 0.3969 0.3098 0.25299 0.3591 0.4733 0.5288 0.4128
3597.544 0.3754 0.4489 0.4335 0.4429 0.4065 0.24255 0.19938 0.26769 0.3048 0.2922
3616.833 0.22461 0.25458 0.3707 0.4424 0.3551 0.3124 0.27277 0.186873 0.2996 0.451
3636.123 0.4518 0.362 0.2874 0.17493 0.27297 0.3436 0.26157 0.3369 0.3778 0.4594
3655.413 0.4037 0.27976 0.2999 0.2842 0.396 0.4724 0.4696 0.3513 0.23895 0.4714
3674.703 0.6589 0.6642 0.5264 0.4862 0.6523 0.7232 0.643 0.6209 0.7574 0.7736
3693.993 0.655 0.6412 0.8081 0.8883 0.7448 0.698 0.6548 0.6114 0.6517 0.4694
3713.282 0.424 0.6778 0.7828 0.5329 0.5348 0.7571 0.7303 0.8122 0.8204 0.6428
3732.572 0.7029 0.7197 0.6785 0.701 0.7454 0.829 0.7855 0.8277 0.7429 0.6184
3751.862 0.6245 0.613 0.7162 0.822 0.7499 0.605 0.596 0.5344 0.6749 0.9466
3771.152 0.9011 0.6471 0.6307 0.8151 0.8332 0.7629 0.7523 0.6654 0.7249 0.9203
3790.441 0.9028 0.8778 0.8374 0.6791 0.6385 0.7776 0.9569 1.0795 0.9014 0.7819
3809.731 0.8923 0.8885 0.7957 0.8991 1.0185 1.027 1.0202 1.0839 1.1478 1.0449
3829.021 0.9553 1.1171 1.214 0.9901 0.9138 0.9365 0.956 1.1134 1.1631 1.047
3848.311 0.9627 1.0265 1.0568 1.204 1.304 1.1001 1.0325 1.224 1.274 1.204
3867.601 1.1168 1.1014 1.1343 1.1809 1.304 1.184 1.1654 1.1757 1.0098 1.0769
3886.890 1.244 1.194 1.354 1.354 1.274 1.484 1.534 1.494 1.404 1.334
3906.180 1.474 1.654 1.684 1.754 1.714 1.734 1.894 1.964 1.784 1.804
3925.470 1.984 1.964 1.994 1.934 2.064 2.204 1.934 1.884 2.094 2.104
3944.760 2.024 2.014 2.114 2.134 2.074 2.334 2.464 2.404 2.494 2.454
3964.049 2.444 2.504 2.494 2.624 2.664 2.684 2.764 2.694 2.764 2.754
3983.339 2.834 2.914 2.894 2.804 2.744 2.874 2.964 3.194 3.184 3.064
##END=
