##TITLE=Methyl 10,12-pentacosadiynoate
##JCAMP-DX=4.24
##DATA TYPE=INFRARED SPECTRUM
##ORIGIN=EPA-IR VAPOR PHASE LIBRARY
##OWNER=SRD/NIST
Collection (C) 2018 copyright by the U.S. Secretary of Commerce
on behalf of the United States of America. All rights reserved.
##CAS REGISTRY NO=120650-77-3
##MOLFORM=C 26 H 44 O 2
##$NIST SOURCE=MSDC-IR
##STATE=gas
##XUNITS=1/CM
##YUNITS=ABSORBANCE
##XFACTOR=1.
##YFACTOR=0.001
##DELTAX=1.92934
##FIRSTX=549.9
##LASTX=3999.5
##FIRSTY=0.5026
##MAXX=3999.53
##MINX=549.863
##MAXY=0.047886
##MINY=0
##NPOINTS=1789
##XYDATA=(X++(Y..Y))
549.863 0.5026 0.4905 0.525 0.5471 0.5145 0.5042 0.4942 0.4786 0.5137 0.4601
569.156 0.4332 0.459 0.4333 0.4681 0.5323 0.5521 0.4891 0.4248 0.4601 0.4878
588.450 0.4783 0.5033 0.4802 0.4886 0.5198 0.4779 0.4193 0.431 0.4729 0.4432
607.743 0.4614 0.4918 0.4798 0.4356 0.4237 0.40028 0.35671 0.41056 0.4505 0.38472
627.037 0.36594 0.37728 0.35028 0.36929 0.37535 0.36083 0.33535 0.304 0.316696 0.32937
646.330 0.3051 0.316777 0.3075 0.2685 0.2605 0.281 0.2947 0.2662 0.2658 0.2273
665.624 0.198 0.2472 0.269 0.2768 0.2521 0.2403 0.3039 0.34119 0.316094 0.3057
684.917 0.30967 0.325386 0.35778 0.35294 0.36556 0.4019 0.4165 0.4289 0.4708 0.539
704.210 0.6276 0.6754 0.6808 0.7477 0.8123 0.8529 0.8769 0.893 0.9283 0.936
723.504 0.9068 0.8993 0.913 0.9048 0.8528 0.8152 0.8066 0.735 0.6776 0.6605
742.797 0.6337 0.6518 0.6521 0.6215 0.6119 0.5932 0.5861 0.5787 0.5777 0.5937
762.091 0.5745 0.5331 0.5338 0.5534 0.5536 0.5407 0.5167 0.4983 0.5012 0.5259
781.384 0.5263 0.5051 0.5089 0.5083 0.4802 0.4844 0.4909 0.4916 0.5023 0.4982
800.678 0.5176 0.5335 0.5165 0.5126 0.5067 0.5269 0.5521 0.5445 0.562 0.5949
819.971 0.6087 0.6306 0.6425 0.6373 0.6562 0.6586 0.6667 0.6753 0.6533 0.6439
839.264 0.6562 0.6594 0.6506 0.6614 0.6815 0.6819 0.702 0.7073 0.6668 0.6541
858.558 0.6529 0.6594 0.6677 0.6314 0.6086 0.6052 0.6188 0.6388 0.6244 0.5885
877.851 0.5518 0.5416 0.5472 0.5348 0.4998 0.4911 0.476 0.4299 0.4242 0.4184
897.145 0.37525 0.36778 0.36615 0.34417 0.33164 0.335 0.33701 0.32769 0.305 0.2846
916.438 0.2788 0.2699 0.2787 0.285 0.2789 0.2738 0.2704 0.2712 0.2696 0.2667
935.732 0.2815 0.284 0.2805 0.2714 0.2662 0.2628 0.2713 0.2956 0.3019 0.2882
955.025 0.2879 0.30655 0.3033 0.320226 0.34522 0.34761 0.36711 0.39919 0.40689 0.4397
974.318 0.4899 0.5003 0.5306 0.5692 0.6024 0.6493 0.6879 0.7613 0.8385 0.8914
993.612 0.9573 1.0124 1.0873 1.1609 1.1968 1.2537 1.326 1.406 1.486 1.536
1012.905 1.556 1.596 1.616 1.626 1.646 1.646 1.636 1.626 1.606 1.566
1032.199 1.506 1.466 1.446 1.406 1.346 1.2849 1.2375 1.1909 1.1735 1.1619
1051.492 1.1267 1.12 1.1383 1.1352 1.1196 1.1411 1.1877 1.2364 1.2647 1.2859
1070.786 1.336 1.366 1.396 1.476 1.536 1.596 1.656 1.706 1.736 1.786
1090.079 1.836 1.866 1.866 1.876 1.866 1.836 1.866 1.866 1.816 1.806
1109.372 1.856 1.896 1.916 1.956 2.036 2.136 2.266 2.396 2.556 2.756
1128.666 2.956 3.156 3.366 3.566 3.786 4.016 4.236 4.476 4.706 4.916
1147.959 5.146 5.406 5.666 5.896 6.136 6.396 6.606 6.826 7.036 7.216
1167.253 7.396 7.516 7.566 7.576 7.546 7.446 7.306 7.146 6.956 6.766
1186.546 6.606 6.476 6.376 6.306 6.256 6.186 6.096 6.026 5.946 5.866
1205.840 5.796 5.726 5.656 5.606 5.566 5.516 5.506 5.496 5.466 5.436
1225.133 5.446 5.476 5.486 5.476 5.496 5.516 5.516 5.496 5.476 5.456
1244.426 5.396 5.356 5.306 5.226 5.146 5.036 4.876 4.736 4.566 4.426
1263.720 4.296 4.126 3.956 3.836 3.746 3.636 3.536 3.456 3.386 3.336
1283.013 3.326 3.296 3.256 3.246 3.236 3.246 3.266 3.266 3.316 3.376
1302.307 3.396 3.426 3.506 3.576 3.626 3.726 3.836 3.966 4.106 4.206
1321.600 4.266 4.246 4.176 4.036 3.886 3.756 3.646 3.566 3.526 3.556
1340.894 3.626 3.726 3.836 3.936 4.016 4.056 4.036 3.976 3.876 3.776
1360.187 3.656 3.506 3.356 3.186 3.026 2.836 2.626 2.416 2.206 2.016
1379.480 1.846 1.706 1.566 1.436 1.326 1.2414 1.1421 1.0742 1.0319 0.9973
1398.774 0.9924 0.9881 0.9865 0.9883 1.0039 1.0556 1.1052 1.1459 1.2421 1.346
1418.067 1.446 1.566 1.736 1.986 2.316 2.716 3.246 3.886 4.506 4.926
1437.361 5.096 5.026 4.806 4.546 4.336 4.246 4.246 4.296 4.356 4.456
1456.654 4.566 4.616 4.576 4.466 4.256 3.946 3.606 3.236 2.856 2.466
1475.948 2.116 1.846 1.616 1.426 1.2798 1.1557 1.0316 0.9377 0.8646 0.8066
1495.241 0.7414 0.6793 0.6404 0.5957 0.5554 0.5318 0.5098 0.498 0.496 0.47
1514.534 0.4419 0.4215 0.4252 0.4243 0.38902 0.37982 0.38105 0.34879 0.35032 0.37421
1533.828 0.34315 0.318882 0.3024 0.2985 0.316458 0.3037 0.2797 0.2556 0.2634 0.2885
1553.121 0.2734 0.2539 0.256 0.2346 0.2312 0.2651 0.2656 0.2619 0.2625 0.2446
1572.415 0.2382 0.2235 0.206 0.215 0.214 0.198 0.2222 0.229 0.201 0.216
1591.708 0.2309 0.214 0.197 0.19 0.182 0.174 0.17 0.169 0.186 0.207
1611.002 0.196 0.174 0.163 0.16 0.164 0.155 0.16 0.181 0.177 0.153
1630.295 0.163 0.158 0.116 0.142 0.169 0.147 0.149 0.168 0.178 0.164
1649.588 0.16 0.163 0.17 0.189 0.198 0.212 0.205 0.215 0.209 0.202
1668.882 0.214 0.207 0.215 0.2394 0.2749 0.2892 0.2843 0.2925 0.31168 0.323887
1688.175 0.35295 0.39657 0.4311 0.456 0.4793 0.5209 0.5711 0.6251 0.6828 0.7687
1707.469 0.8526 0.9451 1.0728 1.1917 1.326 1.496 1.686 1.886 2.106 2.356
1726.762 2.666 3.026 3.406 3.806 4.266 4.756 5.266 5.876 6.516 7.206
1746.056 7.956 8.776 9.666 10.506 11.236 11.786 12.026 11.936 11.426 10.616
1765.349 9.696 8.736 7.856 7.066 6.336 5.686 5.046 4.426 3.866 3.356
1784.642 2.886 2.446 2.066 1.756 1.486 1.2582 1.0708 0.944 0.8394 0.7189
1803.936 0.6343 0.5754 0.5121 0.4429 0.37117 0.35001 0.33423 0.2973 0.2766 0.2608
1823.229 0.2552 0.2421 0.2352 0.222 0.201 0.173 0.156 0.166 0.165 0.162
1842.523 0.152 0.144 0.14 0.143 0.134 0.139 0.156 0.13 0.125 0.133
1861.816 0.133 0.13 0.13 0.142 0.14 0.13 0.128 0.136 0.146 0.136
1881.110 0.134 0.135 0.124 0.126 0.125 0.106 0.095 0.115 0.137 0.14
1900.403 0.123 0.106 0.103 0.103 0.117 0.112 0.111 0.14 0.146 0.134
1919.696 0.134 0.142 0.13 0.104 0.111 0.124 0.126 0.113 0.11 0.13
1938.990 0.146 0.152 0.155 0.162 0.163 0.132 0.11 0.125 0.143 0.154
1958.283 0.137 0.152 0.174 0.158 0.142 0.151 0.168 0.185 0.183 0.194
1977.577 0.2 0.192 0.196 0.19 0.214 0.215 0.192 0.188 0.197 0.201
1996.870 0.199 0.19 0.189 0.199 0.198 0.2197 0.2358 0.227 0.2298 0.2364
2016.164 0.2369 0.2364 0.2472 0.254 0.2557 0.2536 0.2551 0.2745 0.2687 0.2582
2035.457 0.2639 0.2741 0.2606 0.2498 0.261 0.2686 0.2742 0.2633 0.2461 0.2499
2054.750 0.256 0.2524 0.2401 0.2361 0.2394 0.2246 0.2202 0.2309 0.2337 0.2384
2074.044 0.2264 0.203 0.203 0.21 0.201 0.197 0.196 0.187 0.174 0.165
2093.337 0.181 0.193 0.189 0.191 0.189 0.183 0.184 0.179 0.174 0.168
2112.631 0.17 0.17 0.162 0.169 0.172 0.159 0.148 0.155 0.161 0.162
2131.924 0.169 0.182 0.173 0.159 0.177 0.19 0.187 0.184 0.185 0.194
2151.218 0.215 0.2249 0.2388 0.2238 0.203 0.201 0.201 0.202 0.208 0.213
2170.511 0.205 0.205 0.203 0.195 0.21 0.2207 0.211 0.2 0.18 0.183
2189.804 0.193 0.185 0.183 0.181 0.177 0.196 0.199 0.208 0.211 0.199
2209.098 0.192 0.175 0.182 0.187 0.188 0.192 0.196 0.196 0.181 0.187
2228.391 0.202 0.215 0.2262 0.2313 0.2245 0.207 0.214 0.2225 0.2272 0.2303
2247.685 0.2314 0.2272 0.2269 0.2347 0.213 0.199 0.211 0.222 0.207 0.18
2266.978 0.185 0.196 0.195 0.192 0.203 0.204 0.192 0.192 0.196 0.2
2286.272 0.203 0.196 0.196 0.201 0.202 0.211 0.208 0.192 0.19 0.192
2305.565 0.21 0.2264 0.218 0.2 0.198 0.199 0.204 0.2209 0.213 0.213
2324.858 0.203 0.194 0.207 0.213 0.199 0.188 0.19 0.194 0.196 0.182
2344.152 0.201 0.2167 0.203 0.195 0.205 0.2374 0.2312 0.2205 0.2503 0.2455
2363.445 0.213 0.212 0.2212 0.2177 0.2311 0.2382 0.213 0.202 0.216 0.2275
2382.739 0.2297 0.213 0.204 0.201 0.192 0.192 0.206 0.206 0.207 0.214
2402.032 0.203 0.205 0.211 0.201 0.192 0.207 0.211 0.207 0.2218 0.2239
2421.326 0.206 0.186 0.178 0.196 0.208 0.211 0.211 0.198 0.195 0.194
2440.619 0.197 0.21 0.216 0.205 0.183 0.183 0.21 0.2271 0.221 0.2175
2459.912 0.2167 0.2211 0.208 0.188 0.202 0.209 0.201 0.201 0.2162 0.213
2479.206 0.194 0.189 0.197 0.212 0.215 0.197 0.206 0.211 0.21 0.2245
2498.499 0.21 0.199 0.199 0.2212 0.2472 0.2309 0.2175 0.2431 0.251 0.2337
2517.793 0.231 0.212 0.2239 0.2407 0.2308 0.2501 0.2561 0.2547 0.2602 0.2534
2537.086 0.2664 0.281 0.2581 0.2658 0.2867 0.2801 0.2724 0.2835 0.30905 0.3006
2556.380 0.31255 0.3068 0.2731 0.277 0.315304 0.33891 0.321333 0.320015 0.33283 0.32969
2575.673 0.325968 0.319103 0.31485 0.316019 0.33965 0.35188 0.34723 0.36096 0.37846 0.38949
2594.966 0.38221 0.38486 0.39675 0.40078 0.40256 0.4214 0.4315 0.4284 0.4173 0.4257
2614.260 0.4243 0.4203 0.4627 0.4652 0.4603 0.4637 0.4667 0.4809 0.4789 0.4991
2633.553 0.5075 0.5112 0.5119 0.5064 0.5131 0.5469 0.5865 0.5762 0.5589 0.5644
2652.847 0.584 0.6137 0.6453 0.6451 0.6272 0.6275 0.6451 0.6453 0.6426 0.6457
2672.140 0.6319 0.6506 0.6601 0.6547 0.6694 0.6698 0.6816 0.6599 0.6445 0.6816
2691.434 0.6726 0.6309 0.6087 0.6339 0.6176 0.5803 0.584 0.5675 0.5576 0.5641
2710.727 0.579 0.5674 0.5561 0.5783 0.592 0.5963 0.5742 0.5635 0.5735 0.5852
2730.020 0.6114 0.6035 0.5923 0.6211 0.6473 0.6663 0.6582 0.6601 0.684 0.7063
2749.314 0.6966 0.683 0.7249 0.7269 0.7132 0.7396 0.7549 0.7215 0.7308 0.7475
2768.607 0.7449 0.7682 0.7857 0.8475 0.8871 0.8544 0.8702 0.9209 0.9339 0.9607
2787.901 1.0137 1.0564 1.0844 1.0995 1.1203 1.1909 1.265 1.2945 1.326 1.406
2807.194 1.506 1.546 1.586 1.646 1.746 1.876 1.956 2.056 2.196 2.346
2826.488 2.486 2.666 2.876 3.106 3.406 3.756 4.166 4.686 5.266 5.936
2845.781 6.676 7.466 8.366 9.476 10.826 12.386 14.066 15.676 16.896 17.636
2865.074 17.856 17.526 16.726 15.586 14.306 13.096 11.996 11.096 10.436 9.936
2884.368 9.566 9.266 9.076 9.046 9.146 9.336 9.776 10.346 11.086 12.116
2903.661 13.286 14.636 16.076 17.566 19.046 20.516 22.126 24.026 26.346 29.046
2922.955 32.106 35.466 38.906 42.086 44.786 46.816 47.886 47.866 46.876 45.076
2942.248 42.686 39.696 36.216 32.566 28.846 25.506 22.796 20.626 18.946 17.636
2961.542 16.566 15.556 14.486 13.396 12.326 11.236 10.066 8.936 7.936 7.096
2980.835 6.346 5.726 5.216 4.816 4.466 4.166 3.936 3.736 3.516 3.346
3000.128 3.216 3.056 2.906 2.776 2.596 2.466 2.396 2.296 2.246 2.156
3019.422 2.056 1.996 1.956 1.906 1.836 1.756 1.716 1.696 1.576 1.476
3038.715 1.456 1.386 1.326 1.346 1.2472 1.1719 1.1681 1.1165 1.056 1.0656
3058.009 1.0764 1.0065 0.9262 0.874 0.8662 0.8459 0.8084 0.8058 0.7639 0.7544
3077.302 0.7939 0.7384 0.745 0.7841 0.7531 0.7569 0.6995 0.6467 0.6681 0.6341
3096.596 0.6227 0.6527 0.6391 0.6353 0.5945 0.5287 0.5584 0.5867 0.5603 0.5806
3115.889 0.5612 0.5273 0.5287 0.5468 0.5486 0.5327 0.4509 0.36882 0.40564 0.4421
3135.182 0.4655 0.4688 0.4221 0.37917 0.34197 0.36926 0.4365 0.4322 0.4583 0.4856
3154.476 0.41105 0.35313 0.38242 0.4248 0.4276 0.38146 0.35221 0.33742 0.3413 0.40847
3173.769 0.39973 0.3872 0.3908 0.39032 0.4163 0.38178 0.35377 0.31345 0.32727 0.4185
3193.063 0.40517 0.38207 0.36813 0.37141 0.38405 0.2719 0.2475 0.2775 0.2806 0.318671
3212.356 0.3047 0.3027 0.315033 0.322939 0.29 0.2801 0.325848 0.3053 0.2162 0.187
3231.650 0.216 0.2401 0.3028 0.2812 0.2375 0.2357 0.2219 0.212 0.2211 0.2772
3250.943 0.2838 0.2639 0.2394 0.2407 0.3026 0.2964 0.2978 0.2906 0.2612 0.2758
3270.236 0.2566 0.2634 0.2475 0.2746 0.2306 0.155 0.186 0.174 0.156 0.119
3289.530 0.114 0.146 0.194 0.188 0.174 0.207 0.2686 0.2454 0.173 0.203
3308.823 0.159 0.091 0.112 0.124 0.115 0.209 0.2875 0.192 0.118 0.172
3328.117 0.157 0.122 0.158 0.15 0.173 0.169 0.126 0.141 0.163 0.129
3347.410 0.101 0.135 0.184 0.197 0.169 0.199 0.195 0.083 0.093 0.155
3366.704 0.192 0.188 0.148 0.193 0.178 0.177 0.212 0.189 0.21 0.185
3385.997 0.174 0.2 0.143 0.117 0.151 0.174 0.185 0.2243 0.2501 0.185
3405.290 0.129 0.135 0.114 0.123 0.162 0.127 0.135 0.119 0.041 0.149
3424.584 0.157 0.078 0.132 0.136 0.141 0.135 0.145 0.16 0.085 0.101
3443.877 0.12 0.079 0.08 0.12 0.103 0.082 0.124 0.166 0.206 0.14
3463.171 0.142 0.174 0.167 0.207 0.175 0.118 0.129 0.2188 0.2371 0.17
3482.464 0.165 0.184 0.185 0.203 0.193 0.115 0.123 0.18 0.193 0.209
3501.758 0.166 0.156 0.173 0.204 0.187 0.185 0.165 0.137 0.194 0.196
3521.051 0.183 0.203 0.121 0.023 0.06 0.126 0.106 0.103 0.104 0.114
3540.344 0.183 0.169 0.098 0.056 0.023 0 0.055 0.086 0.088 0.075
3559.638 0.051 0.099 0.122 0.106 0.076 0.077 0.132 0.188 0.182 0.141
3578.931 0.162 0.177 0.178 0.135 0.103 0.123 0.099 0.122 0.129 0.082
3598.225 0.114 0.132 0.103 0.131 0.153 0.147 0.115 0.142 0.163 0.112
3617.518 0.149 0.144 0.095 0.118 0.148 0.166 0.175 0.12 0.072 0.085
3636.812 0.096 0.098 0.123 0.15 0.155 0.178 0.188 0.156 0.177 0.247
3656.105 0.2246 0.144 0.132 0.167 0.126 0.089 0.136 0.139 0.118 0.097
3675.398 0.109 0.112 0.123 0.123 0.123 0.156 0.135 0.103 0.099 0.131
3694.692 0.137 0.132 0.126 0.072 0.094 0.136 0.105 0.112 0.186 0.182
3713.985 0.124 0.116 0.159 0.179 0.103 0.109 0.149 0.169 0.174 0.115
3733.279 0.107 0.158 0.151 0.117 0.11 0.148 0.161 0.164 0.193 0.175
3752.572 0.162 0.177 0.178 0.135 0.111 0.115 0.127 0.142 0.162 0.155
3771.866 0.137 0.159 0.173 0.176 0.177 0.17 0.164 0.197 0.18 0.136
3791.159 0.118 0.135 0.184 0.156 0.165 0.196 0.161 0.118 0.127 0.168
3810.452 0.219 0.201 0.188 0.189 0.142 0.165 0.188 0.193 0.203 0.159
3829.746 0.15 0.194 0.219 0.194 0.138 0.154 0.198 0.151 0.148 0.188
3849.039 0.2207 0.2273 0.175 0.184 0.208 0.187 0.193 0.195 0.203 0.205
3868.333 0.207 0.182 0.097 0.102 0.174 0.2413 0.2343 0.196 0.192 0.189
3887.626 0.202 0.2212 0.2188 0.2364 0.2418 0.209 0.182 0.208 0.179 0.12
3906.920 0.145 0.192 0.2241 0.2546 0.2646 0.237 0.2294 0.2683 0.2872 0.24
3926.213 0.2179 0.182 0.149 0.166 0.194 0.204 0.217 0.2222 0.262 0.30999
3945.506 0.2762 0.2492 0.2393 0.2498 0.2894 0.2977 0.2587 0.2395 0.2567 0.2878
3964.800 0.2814 0.2404 0.208 0.19 0.21 0.189 0.181 0.215 0.2432 0.2691
3984.093 0.275 0.2368 0.265 0.3321 0.323055 0.32038 0.2987 0.2429 0.2237
##END=
