##TITLE=p-N,N-Bis(2-chloroethyl)aminobenzaldehyde
##JCAMP-DX=4.24
##DATA TYPE=INFRARED SPECTRUM
##ORIGIN=EPA-IR VAPOR PHASE LIBRARY
##OWNER=SRD/NIST
Collection (C) 2018 copyright by the U.S. Secretary of Commerce
on behalf of the United States of America. All rights reserved.
##CAS REGISTRY NO=1208-03-3
##MOLFORM=C 11 H 13 Cl 2 N O
##$NIST SOURCE=MSDC-IR
##STATE=gas
##XUNITS=1/CM
##YUNITS=ABSORBANCE
##XFACTOR=1.
##YFACTOR=0.001
##DELTAX=1.92898
##FIRSTX=549.8
##LASTX=4000.7
##FIRSTY=6
##MAXX=4000.7
##MINX=549.759
##MAXY=0.20473
##MINY=0
##NPOINTS=1790
##XYDATA=(X++(Y..Y))
549.759 6 5.46 5.12 4.94 5.23 5.38 4.95 4.84 4.61 4.12
569.049 4 4.06 3.69 3.66 4.21 4.34 4.18 4.6 5.12 5.44
588.339 5.87 6.6 7.08 7.27 7.64 8.2 8.43 8.32 8.12 7.34
607.628 6.22 5.43 4.83 4.04 3.66 3.29 2.84 2.77 2.64 2.44
626.918 2.54 2.78 3.05 3.25 3.2 3.41 3.39 3.36 3.38 3.25
646.208 3.51 3.55 3.47 3.65 3.95 4.32 4.81 5.6 6.74 7.87
665.498 8.94 9.99 11.04 11.89 12.21 11.87 10.96 9.87 8.84 8.01
684.787 7.1 6.38 6.12 6.2 6.3 6.5 6.97 7.59 8.72 10.42
704.077 12.47 14.85 17.9 21.48 24.85 27.71 29.78 30.48 29.8 27.74
723.367 24.56 21.06 17.53 14.23 11.64 10.15 9.15 8.49 8.46 8.6
742.657 8.75 9.3 10.03 10.95 12.11 13.45 14.78 15.76 16.73 17.45
761.947 17.68 17.52 17.23 16.72 15.77 14.8 13.78 12.48 11.4 10.5
781.236 9.72 9.2 8.88 8.92 9.09 9.42 9.97 10.83 11.92 13.05
800.526 14.6 16.67 18.95 21.49 24.53 27.89 31.3 34.25 36.34 37.05
819.816 36.36 34.53 31.89 29.44 27.45 25.75 24.46 23.7 23.31 23.35
839.106 23.45 23.35 23.02 22.12 20.76 19.27 17.81 16.18 14.8 13.78
858.395 12.84 12.16 11.65 11.15 10.78 10.27 9.5 8.97 8.28 7.32
877.685 6.85 6.36 5.7 5.25 4.86 4.8 4.95 4.71 4.39 4.67
896.975 4.75 4.52 4.68 4.87 4.96 5.22 5.46 5.8 6.63 7.41
916.265 8.07 8.94 9.56 10.16 10.64 10.43 10.04 9.63 9.07 8.75
935.555 8.55 8.17 7.94 7.91 7.89 7.88 7.97 8.32 8.55 8.75
954.844 9.11 9.28 9.35 9.19 8.97 8.83 8.54 8.03 7.61 7.32
974.134 7.06 6.91 6.76 6.73 6.56 6.51 6.75 6.88 7.25 7.58
993.424 7.76 8.31 8.77 8.92 9.16 9.35 9.27 8.82 8.36 8.12
1012.714 7.71 7.03 6.68 6.59 6.27 6 5.39 5.15 5.54 5.52
1032.003 5.31 5.14 4.9 4.65 4.26 3.91 4.15 4.01 3.72 4.01
1051.293 4.08 4.08 4.15 4.25 4.24 4 3.93 3.93 3.9 3.54
1070.583 3.3 3.36 3.18 3.36 3.45 3.63 3.76 3.41 3.45 3.87
1089.873 4.13 4.49 4.59 4.51 5.17 5.67 5.87 6.35 6.91 6.94
1109.163 7.08 7.55 8.36 9.64 10.74 11.15 12.15 13.17 14.07 15.71
1128.452 17.26 19.12 20.9 22.38 24.17 26.56 28.52 29.6 30.82 32.79
1147.742 35.51 39.4 44.58 51.3 60.61 73.51 91.89 116.41 144.7 170.13
1167.032 184.75 185.23 171.08 144.56 111.82 81.89 60.29 46.89 38.95 34.38
1186.322 31.68 30.19 29.55 29.24 29.6 30.42 31.32 31.89 32.38 32.92
1205.611 33.55 34.2 34.55 35.46 37.01 38.37 39.97 42.09 43.74 45.27
1224.901 46.26 45.77 44.59 42.9 40.58 37.72 34.94 33.11 31.96 31.1
1244.191 31.07 31.58 32.04 32.42 32.52 32.68 32.44 31.35 29.86 28.34
1263.481 27 26.39 26.34 26.88 27.86 28.42 28.93 29.02 28.43 27.41
1282.771 26.04 24.72 23.88 23.59 23.76 24.14 24.72 25.35 25.97 26.73
1302.060 27.65 28.84 30.45 32.29 34.23 35.89 36.79 36.76 35.65 33.75
1321.350 31.55 29.51 28.02 27.3 27.26 27.97 29.36 31.27 33.83 36.97
1340.640 40.81 45.23 49.95 54.73 59 62.12 63.63 63.2 60.81 56.85
1359.930 51.95 46.73 41.72 37.37 33.75 30.94 28.96 27.7 27.15 27.4
1379.219 28.36 29.88 31.77 33.5 34.71 35.04 34.25 32.41 29.61 26.34
1398.509 23.11 20.14 17.64 15.53 13.88 12.81 12.15 11.63 11.39 11.49
1417.799 11.97 12.82 13.71 14.65 15.53 16.11 16.45 16.47 16.37 16.29
1437.089 16.41 16.85 17.43 18.22 19.11 19.91 20.59 20.98 20.84 20.17
1456.378 18.97 17.45 15.96 14.55 13.46 12.76 12.2 11.79 11.64 11.49
1475.668 11.21 10.96 10.72 10.53 10.4 10.3 10.36 10.66 11.33 12.26
1494.958 13.74 15.99 18.96 22.93 28.28 35.08 43.5 53.06 62.48 70.31
1514.248 74.85 75.1 70.84 62.85 52.4 42.2 33.32 26.73 22.2 19.1
1533.538 16.9 15.3 14.23 13.45 12.85 12.46 12.39 12.62 12.97 13.69
1552.827 14.91 16.61 18.88 22.06 26.19 30.86 35.94 40.58 44 45.85
1572.117 45.96 44.85 43.67 43.71 45.86 50.49 57.41 66.19 76.79 89.19
1591.407 103.08 118.22 133.85 148.87 161.93 171.28 175.13 172.41 163.14 147.97
1610.697 129.08 108.75 89.33 71.95 57.74 46.92 38.55 32.38 27.83 24.37
1629.986 21.52 19.25 17.45 15.99 14.73 13.62 12.78 12.1 11.55 11.07
1649.276 10.73 10.65 10.61 10.55 10.65 10.9 11.2 11.59 12.11 12.7
1668.566 13.37 14.08 14.81 15.51 16.16 16.72 17.2 17.78 18.53 19.37
1687.856 20.46 21.93 23.79 26.14 29.38 33.89 40.36 50.1 63.59 83.55
1707.146 110.59 142.84 174.35 196.94 204.73 195.66 170.21 135.23 98.65 68.68
1726.435 47.78 34.22 25.46 19.87 16.1 13.51 11.77 10.43 9.35 8.43
1745.725 7.68 6.96 6.29 5.75 5.28 4.85 4.51 4.21 3.93 3.72
1765.015 3.54 3.29 3.06 2.93 2.81 2.63 2.48 2.41 2.35 2.2
1784.305 2.09 2.12 2.07 1.97 1.93 1.91 1.92 1.92 1.81 1.78
1803.594 1.77 1.7 1.71 1.74 1.74 1.67 1.62 1.61 1.62 1.6
1822.884 1.61 1.59 1.57 1.55 1.5 1.48 1.55 1.62 1.6 1.57
1842.174 1.59 1.53 1.5 1.6 1.65 1.64 1.71 1.77 1.76 1.82
1861.464 1.89 1.89 1.92 1.95 1.94 1.99 2.03 2 2.01 2.04
1880.754 2.06 2.12 2.15 2.19 2.24 2.32 2.39 2.41 2.35 2.25
1900.043 2.12 2 1.86 1.73 1.71 1.69 1.68 1.69 1.72 1.7
1919.333 1.7 1.75 1.67 1.6 1.57 1.55 1.57 1.52 1.49 1.4
1938.623 1.36 1.4 1.39 1.4 1.45 1.45 1.49 1.52 1.51 1.53
1957.913 1.51 1.46 1.48 1.47 1.43 1.42 1.41 1.35 1.36 1.44
1977.202 1.52 1.6 1.6 1.6 1.67 1.81 1.88 1.86 1.84 1.88
1996.492 1.94 1.98 2.05 2.09 2.1 2.17 2.14 2.12 2.11 1.98
2015.782 1.89 1.79 1.69 1.65 1.63 1.52 1.43 1.42 1.4 1.37
2035.072 1.31 1.36 1.36 1.29 1.29 1.31 1.31 1.34 1.36 1.37
2054.362 1.34 1.32 1.33 1.37 1.34 1.27 1.29 1.27 1.2438 1.2359
2073.651 1.179 1.148 1.1544 1.1078 1.0913 1.0594 1.0462 1.0804 1.0699 1.094
2092.941 1.0532 0.9962 0.973 1.0454 1.0497 0.927 0.9829 1.013 1.0124 1.0348
2112.231 0.995 0.9856 1.014 0.9787 0.9122 0.833 0.8056 0.8395 0.8474 0.8173
2131.521 0.7886 0.7692 0.7405 0.7871 0.7952 0.8042 0.8742 0.8951 0.9087 0.8534
2150.810 0.8252 0.8305 0.809 0.8367 0.8685 0.8519 0.8475 0.8411 0.7416 0.7237
2170.100 0.7513 0.8207 0.8405 0.7754 0.7998 0.815 0.8124 0.8333 0.8548 0.843
2189.390 0.8251 0.8211 0.8074 0.862 0.8827 0.8955 0.9563 0.8438 0.8023 0.8918
2208.680 0.871 0.8218 0.8411 0.8785 0.851 0.8364 0.8952 0.978 0.9409 0.8953
2227.970 0.9375 0.9537 0.9741 0.9942 0.9254 0.9473 0.9461 0.8618 0.8443 0.7796
2247.259 0.7892 0.7637 0.7528 0.8371 0.8091 0.7617 0.7553 0.7469 0.7488 0.7559
2266.549 0.8117 0.8237 0.763 0.8422 0.9377 0.9156 0.8619 0.8397 0.7845 0.8571
2285.839 0.9333 0.8606 0.8786 0.8618 0.8423 0.8201 0.783 0.8329 0.8589 0.8337
2305.129 0.8234 0.8978 1.0079 1.0362 1.0595 1.0829 1.1316 1.161 1.1439 1.1615
2324.418 1.1374 1.1814 1.2565 1.2464 1.3 1.35 1.37 1.34 1.28 1.3
2343.708 1.2032 1.0703 1.091 1.1066 1.0216 0.9834 0.981 0.9749 0.9498 0.9135
2362.998 0.8596 0.8066 0.8462 0.8681 0.8307 0.8566 0.9097 0.8633 0.8279 0.9386
2382.288 1.0051 0.9865 1.0538 1.0772 1.0246 1.0319 1.0863 1.1517 1.1535 1.0643
2401.578 1.1037 1.1818 1.1569 1.1599 1.1903 1.1754 1.179 1.2084 1.2522 1.2525
2420.867 1.2549 1.27 1.1994 1.2158 1.34 1.38 1.45 1.5 1.5 1.54
2440.157 1.65 1.69 1.64 1.64 1.61 1.64 1.61 1.56 1.58 1.55
2459.447 1.54 1.51 1.44 1.41 1.43 1.36 1.32 1.39 1.43 1.45
2478.737 1.42 1.32 1.3 1.33 1.38 1.43 1.36 1.25 1.32 1.39
2498.026 1.36 1.44 1.56 1.61 1.58 1.56 1.61 1.71 1.77 1.81
2517.316 1.84 1.92 2.01 1.94 1.82 1.73 1.75 1.78 1.76 1.78
2536.606 1.84 1.81 1.76 1.82 1.92 1.98 2.01 1.97 2.03 2.18
2555.896 2.22 2.25 2.25 2.22 2.28 2.31 2.41 2.44 2.42 2.42
2575.186 2.34 2.35 2.42 2.43 2.54 2.64 2.65 2.7 2.75 2.78
2594.475 2.76 2.77 2.77 2.71 2.68 2.66 2.67 2.65 2.67 2.74
2613.765 2.66 2.61 2.6 2.61 2.55 2.46 2.43 2.31 2.32 2.31
2633.055 2.29 2.35 2.26 2.24 2.35 2.31 2.23 2.31 2.42 2.43
2652.345 2.47 2.58 2.67 2.76 2.83 2.97 3.04 3.11 3.29 3.43
2671.634 3.62 3.86 4.22 4.6 4.98 5.51 6.06 6.69 7.48 8.34
2690.924 9.13 9.94 10.75 11.31 11.76 12.21 12.44 12.68 13.14 13.85
2710.214 14.91 16.33 18.27 20.74 23.64 26.79 29.68 31.82 32.69 32.25
2729.504 30.51 27.68 24.37 21 18.09 15.78 13.88 12.16 10.86 9.88
2748.794 8.9 8.18 7.67 7.3 7.07 6.9 6.73 6.74 6.86 6.91
2768.083 6.95 7.11 7.23 7.43 7.88 8.29 8.79 9.46 10.26 11.31
2787.373 12.58 14.09 15.66 17.33 19.1 20.57 21.66 22.51 22.95 22.78
2806.663 22.23 21.61 21.04 20.47 19.99 19.83 19.53 18.75 17.79 16.77
2825.953 15.39 13.96 12.81 11.82 10.97 10.24 9.75 9.37 9.13 8.96
2845.242 8.83 8.9 9.02 8.95 8.96 9.05 9.06 9.19 9.35 9.47
2864.532 9.58 9.53 9.47 9.53 9.72 9.91 10.15 10.46 10.81 11.09
2883.822 11.22 11.36 11.37 11.28 11.2 11.05 10.8 10.59 10.55 10.33
2903.112 9.94 9.61 9.31 9.14 8.95 8.72 8.59 8.48 8.33 8.17
2922.401 8.13 8.1 8.07 8.18 8.36 8.37 8.43 8.66 8.71 8.79
2941.691 8.94 9.13 9.42 9.87 10.32 10.98 11.97 13.26 15.06 17.02
2960.981 18.94 20.72 21.89 22.26 22.01 21.31 20.36 19.27 18.06 16.61
2980.271 15.28 14.21 13.24 12.28 11.38 10.67 10.09 9.79 9.7 9.87
2999.561 10.32 11.09 12.34 13.66 14.58 15.16 15.09 14.32 13.08 11.53
3018.850 10.2 9.24 8.53 8.09 7.94 7.78 7.77 7.93 7.92 7.74
3038.140 7.54 7.24 6.68 6.05 5.48 4.8 4.33 4.08 3.73 3.58
3057.430 3.54 3.53 3.55 3.61 3.72 3.93 4.23 4.53 4.65 4.82
3076.720 5.18 5.58 5.9 6.08 6.11 6.08 6.19 6.31 6.21 6.33
3096.009 6.56 6.48 6.48 6.34 5.84 5.3 4.76 4.2 3.68 3.37
3115.299 3.17 2.95 2.76 2.49 2.41 2.65 2.69 2.46 2.3 2.18
3134.589 2.07 1.92 1.75 1.53 1.44 1.29 1.0575 1.0203 0.9003 0.7092
3153.879 0.7418 0.8368 0.8643 0.8121 0.7564 0.7167 0.606 0.5447 0.674 0.7857
3173.169 0.704 0.657 0.643 0.5117 0.6052 0.7853 0.7742 0.8359 0.9372 0.9286
3192.458 0.8339 0.7835 0.8543 1.0352 0.9744 0.8664 0.8811 0.83 0.8382 0.9216
3211.748 0.8325 0.7317 0.8074 0.8129 0.7281 0.6572 0.6346 0.5186 0.4609 0.4943
3231.038 0.3813 0.381 0.4561 0.32467 0.3639 0.5094 0.3991 0.34473 0.3643 0.30954
3250.328 0.33217 0.33826 0.4745 0.4801 0.4001 0.4342 0.4433 0.5665 0.4773 0.4662
3269.617 0.4841 0.33714 0.3609 0.4023 0.34808 0.28523 0.2203 0.27772 0.4975 0.4089
3288.907 0.30293 0.3897 0.3393 0.3788 0.5301 0.4506 0.3968 0.32165 0.2332 0.28826
3308.197 0.33401 0.4789 0.4901 0.4254 0.4264 0.4244 0.4136 0.5094 0.481 0.3676
3327.487 0.4147 0.4543 0.4892 0.4913 0.3829 0.29575 0.4317 0.5247 0.514 0.4463
3346.777 0.4746 0.5519 0.518 0.6413 0.6311 0.4704 0.4393 0.5512 0.6583 0.6578
3366.066 0.6662 0.594 0.5321 0.7394 0.8253 0.7834 0.8232 0.9492 1.0892 1.069
3385.356 1.0746 1.2466 1.5 1.66 1.66 1.64 1.68 1.82 2 2.11
3404.646 2.22 2.22 2.26 2.34 2.25 2.07 1.91 1.79 1.71 1.76
3423.936 1.46 1.26 1.27 1.1094 0.9669 0.8873 0.8733 0.7545 0.7202 0.6858
3443.225 0.5435 0.504 0.5191 0.4234 0.44 0.5705 0.4932 0.3798 0.2724 0.2102
3462.515 0.34696 0.4075 0.34564 0.34772 0.412 0.30027 0.2418 0.25823 0.3923 0.5258
3481.805 0.3749 0.3971 0.5434 0.5378 0.30108 0.27575 0.30164 0.32706 0.3893 0.3091
3501.095 0.3682 0.28809 0.102 0.2223 0.32603 0.265463 0.28183 0.27513 0.31357 0.31752
3520.385 0.30767 0.4152 0.408 0.25264 0.1778 0.4017 0.483 0.4272 0.4455 0.29279
3539.674 0.1709 0.16 0.2153 0.2315 0.151 0.059 0.128 0.3766 0.4405 0.27886
3558.964 0.144 0.146 0.066 0.082 0.152 0.263379 0.34682 0.29016 0.261499 0.32106
3578.254 0.3264 0.27993 0.35648 0.2178 0.018 0.083 0.31389 0.31305 0.29553 0.35839
3597.544 0.28062 0.2193 0.2577 0.3597 0.4611 0.31405 0.039 0 0.154 0.233
3616.833 0.22 0.32304 0.4171 0.27425 0.34885 0.5389 0.4095 0.4182 0.35439 0.2351
3636.123 0.32936 0.3958 0.4857 0.4881 0.4285 0.5747 0.6278 0.4956 0.4897 0.5048
3655.413 0.4534 0.33674 0.32384 0.4338 0.4952 0.5151 0.4622 0.4749 0.5818 0.5374
3674.703 0.462 0.3807 0.34362 0.3111 0.32501 0.29988 0.29985 0.4611 0.5652 0.5108
3693.993 0.4408 0.4952 0.4195 0.5452 0.637 0.4482 0.5014 0.3977 0.30404 0.3695
3713.282 0.34678 0.4926 0.6052 0.6514 0.636 0.5384 0.422 0.4066 0.4847 0.4437
3732.572 0.3269 0.28333 0.263477 0.31223 0.3853 0.4579 0.502 0.3926 0.262301 0.2485
3751.862 0.35228 0.3804 0.3673 0.3882 0.28855 0.29406 0.4281 0.3744 0.3678 0.4082
3771.152 0.3896 0.3713 0.33989 0.34013 0.30616 0.3907 0.5393 0.5861 0.4384 0.29088
3790.441 0.27387 0.3955 0.4218 0.3884 0.522 0.4707 0.4808 0.5683 0.3829 0.4637
3809.731 0.5808 0.4734 0.4474 0.4013 0.5098 0.5426 0.5716 0.6081 0.4086 0.3637
3829.021 0.5338 0.5137 0.2427 0.2476 0.4947 0.455 0.3988 0.3923 0.4117 0.3657
3848.311 0.366 0.4981 0.511 0.4602 0.409 0.245 0.2233 0.34603 0.3173 0.268165
3867.601 0.235 0.4344 0.4231 0.3959 0.4974 0.472 0.4774 0.29532 0.31685 0.3769
3886.890 0.473 0.5177 0.4186 0.674 0.5207 0.236 0.27884 0.28584 0.34846 0.4481
3906.180 0.4451 0.4412 0.31041 0.128 0.2152 0.30598 0.4116 0.5445 0.5832 0.3999
3925.470 0.27971 0.34578 0.4074 0.4536 0.4129 0.4542 0.3911 0.33623 0.5786 0.7132
3944.760 0.3791 0.25601 0.4381 0.4206 0.4193 0.4969 0.4096 0.35258 0.4867 0.5772
3964.049 0.4781 0.4873 0.685 0.5457 0.4112 0.33844 0.2062 0.34389 0.5036 0.4003
3983.339 0.4025 0.5884 0.5368 0.4714 0.6774 0.8347 0.6953 0.5523 0.5981 0.6606
##END=
