##TITLE=3-Amino-4-chlorobenzotrifluoride
##JCAMP-DX=4.24
##DATA TYPE=INFRARED SPECTRUM
##ORIGIN=EPA-IR VAPOR PHASE LIBRARY
##OWNER=SRD/NIST
Collection (C) 2018 copyright by the U.S. Secretary of Commerce
on behalf of the United States of America. All rights reserved.
##CAS REGISTRY NO=121-50-6
##MOLFORM=C 7 H 5 Cl F 3 N
##$NIST SOURCE=MSDC-IR
##STATE=gas
##XUNITS=1/CM
##YUNITS=ABSORBANCE
##XFACTOR=1.
##YFACTOR=0.001
##DELTAX=1.92898
##FIRSTX=549.8
##LASTX=4000.7
##FIRSTY=7.277
##MAXX=4000.7
##MINX=549.759
##MAXY=0.272427
##MINY=0
##NPOINTS=1790
##XYDATA=(X++(Y..Y))
549.759 7.277 7.427 7.377 7.487 7.757 8.767 10.247 12.247 14.977 16.907
569.049 17.077 17.047 16.927 15.877 13.567 11.047 8.887 7.567 7.327 7.197
588.339 7.077 7.367 7.937 8.117 7.957 7.897 7.737 7.197 7.047 7.167
607.628 7.317 7.457 7.397 7.237 7.177 7.217 7.197 7.197 7.287 7.467
626.918 7.707 7.917 8.027 8.447 8.707 8.987 9.557 9.797 10.017 10.537
646.208 11.097 11.507 11.947 12.547 13.237 13.457 13.587 13.797 13.807 13.927
665.498 13.987 14.377 14.977 15.507 15.867 16.117 16.527 16.987 17.397 17.727
684.787 18.077 18.527 18.927 19.187 19.257 19.427 19.857 20.087 20.257 20.457
704.077 20.437 20.447 20.447 20.427 20.427 20.497 20.507 20.167 19.647 19.387
723.367 19.497 19.557 19.527 19.197 18.957 19.137 19.507 20.317 21.577 23.057
742.657 24.637 25.357 24.837 24.007 22.757 20.587 17.537 13.887 11.247 9.887
761.947 9.297 9.177 9.087 9.087 8.797 8.437 8.447 8.667 8.907 9.247
781.236 9.317 9.457 10.217 11.127 11.777 13.187 15.207 16.917 18.817 20.747
800.526 22.437 24.357 26.277 28.197 29.727 28.267 25.027 22.907 21.377 19.697
819.816 17.897 15.867 13.657 11.717 10.437 9.327 8.477 8.187 7.717 7.357
839.106 7.547 7.707 7.957 8.547 9.197 10.037 11.287 12.947 14.397 16.207
858.395 18.277 19.747 21.187 22.967 24.777 25.897 24.957 22.947 21.357 19.697
877.685 18.047 16.227 14.307 12.977 11.777 10.497 9.467 8.877 8.627 8.517
896.975 8.707 9.197 9.777 10.637 11.877 13.497 15.417 17.657 20.187 22.617
916.265 24.077 23.937 22.877 21.477 19.537 16.367 12.687 9.387 7.207 6.157
935.555 5.557 5.327 5.207 4.977 4.607 4.347 4.347 4.387 4.227 4.347
954.844 4.367 4.097 4.157 4.347 4.467 4.247 4.207 4.327 4.367 4.547
974.134 4.677 4.647 4.397 4.197 3.957 3.757 3.677 3.377 3.127 3.307
993.424 3.437 3.457 3.507 3.477 3.277 3.327 3.907 4.247 4.487 4.697
1012.714 4.857 5.417 5.987 6.127 6.077 6.597 7.117 7.277 7.867 9.197
1032.003 10.247 10.797 11.057 10.897 10.927 10.647 10.447 10.117 9.397 9.507
1051.293 9.957 10.657 12.307 13.917 15.677 19.067 23.807 30.117 39.197 53.187
1070.583 72.927 95.867 119.377 138.537 149.487 153.547 151.547 141.407 121.357 95.507
1089.873 72.717 58.387 50.787 45.907 42.147 39.607 37.207 34.267 31.437 29.677
1109.163 28.947 28.817 28.897 29.027 30.417 33.147 37.117 41.837 47.997 56.787
1128.452 67.167 79.327 93.707 110.207 129.337 151.457 175.687 200.877 225.277 244.167
1147.742 250.217 241.487 225.447 207.117 185.507 162.317 143.107 132.187 131.627 141.167
1167.032 157.357 175.427 189.157 193.957 187.947 172.637 152.737 133.857 117.847 101.737
1186.322 84.437 68.057 54.437 43.807 36.177 30.317 25.117 21.107 18.377 16.197
1205.611 14.577 13.567 12.817 12.357 12.067 12.157 12.867 13.387 13.387 13.347
1224.901 13.507 13.977 14.507 15.887 18.497 21.787 26.037 31.797 38.517 45.407
1244.191 52.797 60.047 65.707 69.177 69.537 66.907 62.037 55.577 48.027 39.767
1263.481 32.417 26.797 23.197 22.137 23.937 28.897 36.887 44.747 48.417 48.327
1282.771 47.287 45.607 41.497 33.027 23.477 17.227 14.037 12.777 12.597 12.987
1302.060 13.727 14.687 16.067 17.767 19.767 22.427 26.167 31.557 39.387 50.927
1321.350 67.777 91.147 121.907 158.977 198.207 233.627 259.407 272.427 272.057 256.897
1340.640 226.207 184.327 139.127 99.517 69.577 48.537 34.637 26.017 20.787 17.557
1359.930 15.487 14.087 13.117 12.407 11.967 11.667 11.467 11.397 11.497 11.667
1379.219 11.797 11.977 12.067 11.947 11.587 11.007 10.377 9.817 9.297 8.907
1398.509 8.837 8.987 9.447 10.307 11.437 12.937 14.977 17.567 20.607 24.247
1417.799 28.547 33.567 39.087 45.347 52.397 59.767 67.297 74.207 79.677 82.927
1437.089 83.757 81.997 77.797 71.257 62.347 52.037 41.517 32.407 25.297 20.127
1456.378 16.307 13.127 11.057 9.717 8.597 7.897 7.647 7.557 7.677 8.177
1475.668 8.927 9.917 11.167 12.747 14.867 17.337 20.017 22.857 25.457 27.337
1494.958 28.087 27.857 26.857 25.167 22.537 19.057 15.197 11.887 9.737 8.367
1514.248 7.417 6.697 6.167 5.817 5.447 5.077 4.737 4.407 4.187 3.987
1533.538 3.767 3.587 3.567 3.507 3.467 3.637 3.817 3.947 4.047 4.247
1552.827 4.487 4.717 5.057 5.447 5.967 6.437 6.937 7.717 8.627 9.727
1572.117 10.927 12.197 13.587 14.897 15.997 16.867 17.597 18.487 19.287 20.187
1591.407 21.507 23.137 25.067 27.557 30.587 34.037 37.847 42.037 46.317 50.637
1610.697 54.747 58.527 61.837 64.767 67.107 68.387 68.477 67.247 65.117 62.377
1629.986 59.087 55.047 50.227 44.617 39.137 34.297 29.587 25.407 22.087 19.287
1649.276 16.927 15.067 13.437 12.137 11.097 10.177 9.197 8.277 7.477 6.947
1668.566 6.457 5.907 5.477 5.107 4.767 4.517 4.317 4.067 3.787 3.667
1687.856 3.607 3.497 3.437 3.467 3.347 3.177 3.227 3.297 3.327 3.347
1707.146 3.367 3.387 3.347 3.357 3.477 3.657 3.737 3.757 3.827 3.947
1726.435 4.127 4.297 4.507 4.687 4.757 4.747 4.757 4.707 4.477 4.157
1745.725 3.847 3.527 3.147 2.777 2.407 2.097 2.017 2.047 2.057 2.037
1765.015 2.037 2.077 2.077 2.067 2.067 2.037 1.967 1.887 1.837 1.827
1784.305 1.857 1.867 1.927 1.857 1.657 1.587 1.617 1.587 1.557 1.587
1803.594 1.477 1.327 1.287 1.2327 1.257 1.247 1.1925 1.1376 1.1197 1.2325
1822.884 1.337 1.407 1.357 1.307 1.337 1.357 1.337 1.307 1.337 1.407
1842.174 1.417 1.417 1.497 1.617 1.667 1.737 1.777 1.887 2.097 2.207
1861.464 2.397 2.647 2.807 2.857 2.897 3.027 3.147 3.087 3.037 2.997
1880.754 2.807 2.577 2.397 2.227 2.007 1.787 1.737 1.727 1.657 1.537
1900.043 1.357 1.267 1.327 1.377 1.277 1.1958 1.297 1.337 1.287 1.267
1919.333 1.247 1.247 1.277 1.2235 1.1553 1.0995 1.1443 1.1602 1.1082 1.1553
1938.623 1.0999 1.0075 1.0307 1.0251 1.1048 1.2035 1.183 1.0785 1.0479 1.0124
1957.913 0.9626 1.0393 0.9868 1.017 1.0333 0.9015 0.9361 0.9652 0.9579 0.973
1977.202 0.9289 0.8898 0.9121 0.9341 0.928 0.9962 1.007 1.0439 1.1347 1.0812
1996.492 1.0151 1.0309 1.0201 0.9507 0.9223 0.9705 0.9996 0.9819 0.9069 0.8448
2015.782 0.8731 0.8379 0.8214 0.8892 0.892 0.9098 0.9558 0.9639 0.9632 0.9823
2035.072 1.0023 1.0206 1.0181 0.9789 0.8634 0.8785 1.0009 0.9565 1.0157 1.0702
2054.362 1.0731 1.1465 1.1607 1.0838 1.1386 1.247 1.257 1.337 1.347 1.307
2073.651 1.297 1.407 1.507 1.587 1.627 1.567 1.567 1.487 1.397 1.397
2092.941 1.2358 1.0639 0.9907 0.8817 0.8406 0.8693 0.8023 0.7359 0.7808 0.8582
2112.231 0.8112 0.753 0.7628 0.7388 0.7415 0.7541 0.6929 0.6985 0.7263 0.7163
2131.521 0.7809 0.7891 0.7929 0.7822 0.7527 0.7915 0.8431 0.8722 0.8377 0.8725
2150.810 0.9636 0.9598 0.9495 0.969 1.013 1.0439 1.0416 1.0642 1.0709 1.1285
2170.100 1.171 1.1946 1.1275 1.098 1.1877 1.1373 1.2056 1.267 1.1921 1.1847
2189.390 1.1398 1.0961 1.2119 1.257 1.1845 1.1587 1.15 1.1724 1.1618 1.1234
2208.680 1.0911 1.0158 0.993 1.0836 1.09 1.0963 1.1579 1.1245 1.1214 1.0798
2227.970 1.0424 1.0691 1.0621 1.0788 1.1001 1.0504 1.0626 1.1017 1.0432 1.0929
2247.259 1.1936 1.2096 1.2274 1.1778 1.2084 1.205 1.1674 1.1992 1.1477 1.2203
2266.549 1.297 1.2289 1.1786 1.267 1.297 1.267 1.297 1.317 1.317 1.232
2285.839 1.2065 1.2114 1.1708 1.161 1.153 1.1534 1.0826 1.0232 1.061 1.1276
2305.129 1.1485 1.133 1.1599 1.1672 1.1865 1.199 1.247 1.237 1.1942 1.277
2324.418 1.277 1.267 1.2159 1.221 1.267 1.287 1.287 1.247 1.277 1.267
2343.708 1.206 1.1948 1.317 1.347 1.307 1.397 1.397 1.307 1.1943 1.1319
2362.998 1.1257 1.1223 1.108 0.9816 0.9445 0.9213 0.8912 0.8747 0.8774 0.9136
2382.288 0.7762 0.675 0.803 0.828 0.6995 0.684 0.7555 0.8065 0.8163 0.755
2401.578 0.7352 0.748 0.8393 1.0089 0.9694 0.834 0.8316 0.862 0.8237 0.7737
2420.867 0.7099 0.6631 0.6962 0.7262 0.7607 0.7382 0.6352 0.5754 0.5578 0.5541
2440.157 0.561 0.5549 0.6148 0.6574 0.623 0.5916 0.5743 0.6682 0.737 0.6597
2459.447 0.5845 0.5791 0.5721 0.5839 0.6775 0.6875 0.7101 0.8242 0.7209 0.639
2478.737 0.659 0.7143 0.8482 0.8797 0.8023 0.7342 0.7969 0.8043 0.7762 0.6544
2498.026 0.5681 0.7198 0.7043 0.5445 0.5056 0.652 0.7211 0.6321 0.6929 0.7586
2517.316 0.8439 0.8332 0.7996 0.8121 0.7724 0.8663 0.8426 0.8152 0.8891 0.9428
2536.606 0.9238 0.9056 0.9303 0.9068 0.9204 0.9577 1.1155 1.0739 0.9285 0.9788
2555.896 1.0131 0.9673 0.9518 0.9941 0.9093 0.8599 0.8631 0.7845 0.8291 0.9118
2575.186 0.8705 0.8725 0.8067 0.7033 0.737 0.6337 0.6308 0.7733 0.731 0.8133
2594.475 0.9088 0.8423 0.855 0.9803 1.0215 1.029 1.0997 1.0815 1.0408 1.1008
2613.765 1.257 1.347 1.317 1.297 1.2087 1.0922 0.9932 0.9574 0.8719 0.8597
2633.055 0.9299 0.9349 0.9823 0.9836 0.8789 0.7873 0.8021 0.8215 0.8252 0.7015
2652.345 0.6848 0.8241 0.7861 0.8473 0.8944 0.7845 0.7915 0.8305 0.9166 0.8924
2671.634 0.8074 0.8049 0.8249 0.8213 0.7311 0.6101 0.5484 0.5152 0.4041 0.3803
2690.924 0.4587 0.4318 0.3569 0.3591 0.4525 0.5137 0.3787 0.3867 0.4929 0.5106
2710.214 0.486 0.4763 0.5354 0.5161 0.4137 0.30222 0.30363 0.4715 0.5414 0.5401
2729.504 0.4797 0.3666 0.346 0.28433 0.4233 0.4208 0.3698 0.4462 0.4855 0.4853
2748.794 0.4164 0.4045 0.4436 0.5586 0.6213 0.7145 0.7252 0.6124 0.634 0.5961
2768.083 0.5313 0.6144 0.5241 0.6261 0.6443 0.4911 0.4539 0.3661 0.3972 0.416
2787.373 0.3026 0.2131 0.3495 0.4783 0.4472 0.33065 0.2093 0.08 0.114 0.113
2806.663 0.2151 0.399 0.4496 0.514 0.5021 0.4706 0.4263 0.3661 0.33293 0.29112
2825.953 0.30604 0.32257 0.222 0.1745 0.29554 0.3428 0.3799 0.3382 0.1699 0.244324
2845.242 0.3941 0.3655 0.4032 0.4139 0.31413 0.4372 0.5907 0.627 0.5841 0.6491
2864.532 0.7156 0.6941 0.7889 0.7672 0.6286 0.5647 0.5145 0.4785 0.5562 0.6196
2883.822 0.6563 0.5908 0.5084 0.5385 0.5882 0.6394 0.6437 0.7261 0.7345 0.6872
2903.112 0.7584 0.5938 0.5321 0.789 0.8044 0.7074 0.7915 0.8626 0.8387 0.8239
2922.401 0.6404 0.5744 0.6839 0.5992 0.6321 0.6921 0.5917 0.5692 0.4713 0.4756
2941.691 0.6466 0.5995 0.4839 0.5258 0.5342 0.4183 0.3859 0.381 0.3784 0.4879
2960.981 0.4467 0.27365 0.33169 0.3144 0.27846 0.4225 0.3845 0.25741 0.25757 0.29847
2980.271 0.088 0 0.2028 0.31923 0.28414 0.1783 0.27311 0.4353 0.5149 0.4305
2999.561 0.29499 0.3437 0.394 0.506 0.5543 0.4475 0.4556 0.4122 0.3148 0.3591
3018.850 0.5668 0.5641 0.5042 0.6786 0.5673 0.5063 0.7304 1.0173 1.1099 1.267
3038.140 1.477 1.467 1.637 1.837 1.977 2.047 2.117 2.187 2.167 2.057
3057.430 2.157 2.217 1.997 1.797 1.717 1.827 1.747 1.727 1.867 1.757
3076.720 1.637 1.657 1.557 1.577 1.567 1.397 1.437 1.567 1.457 1.327
3096.009 1.437 1.487 1.427 1.257 1.1406 1.0543 0.934 0.9916 1.049 0.8518
3115.299 0.677 0.7484 0.7813 0.7895 0.8262 0.7975 0.7248 0.5379 0.5129 0.4957
3134.589 0.4788 0.5555 0.4518 0.3672 0.29175 0.31291 0.27343 0.357 0.5065 0.4239
3153.879 0.3405 0.4631 0.5753 0.5018 0.4914 0.5439 0.5243 0.5903 0.7659 0.7818
3173.169 0.8524 0.9238 1.0381 0.9598 0.9843 1.046 1.039 1.1703 1.1726 1.2174
3192.458 1.307 1.237 1.0205 1.0686 1.1488 1.0868 1.1703 1.1684 0.9587 1.0959
3211.748 1.1412 0.8197 0.8515 0.8408 0.783 0.9778 0.8511 0.697 0.7445 0.7964
3231.038 0.7594 0.6652 0.4864 0.4081 0.6407 0.6989 0.4538 0.3763 0.4665 0.4812
3250.328 0.5253 0.4314 0.25618 0.1548 0.27393 0.6255 0.5552 0.3619 0.3565 0.28032
3269.617 0.33419 0.3964 0.4273 0.3965 0.3572 0.2569 0.031 0.2221 0.4454 0.4931
3288.907 0.4241 0.1829 0.11 0.1929 0.30864 0.31326 0.2107 0.113 0.2224 0.3669
3308.197 0.5515 0.4968 0.25113 0.074 0.1624 0.3707 0.3305 0.3832 0.5388 0.5899
3327.487 0.5176 0.5127 0.437 0.3966 0.4089 0.4644 0.4645 0.31635 0.31732 0.5091
3346.777 0.3688 0.31416 0.5404 0.5164 0.5368 0.5422 0.5665 0.8181 0.959 0.7699
3366.066 0.6928 0.782 0.8181 0.9441 1.1241 1.055 1.135 1.387 1.717 2.057
3385.356 2.407 2.707 3.027 3.677 4.427 4.917 5.647 6.767 7.907 8.897
3404.646 9.917 11.467 12.857 14.037 15.527 16.757 17.787 18.417 18.307 17.817
3423.936 17.047 15.937 14.387 12.687 11.037 9.267 7.687 6.657 5.977 5.287
3443.225 4.507 3.897 3.497 3.197 2.967 2.577 2.127 1.977 1.927 2.067
3462.515 2.217 2.017 1.987 2.057 2.167 2.497 2.647 2.967 3.387 3.537
3481.805 3.957 4.397 4.657 5.497 6.487 7.057 7.657 8.417 9.087 9.837
3501.095 10.527 11.067 11.497 11.947 12.447 12.857 13.307 13.447 13.207 12.627
3520.385 11.797 10.897 9.827 8.887 8.087 7.147 6.387 5.737 5.137 4.657
3539.674 4.167 3.787 3.427 2.947 2.497 2.217 1.937 1.597 1.377 1.1732
3558.964 0.9487 1.028 0.9015 0.7591 0.8128 0.8503 0.7868 0.6607 0.6346 0.4706
3578.254 0.3386 0.3918 0.5149 0.5754 0.6486 0.6362 0.6078 0.5755 0.5543 0.4788
3597.544 0.33691 0.558 0.6615 0.4239 0.27415 0.1641 0.1391 0.23121 0.31042 0.27856
3616.833 0.29005 0.3487 0.3404 0.30776 0.3508 0.4626 0.4336 0.4461 0.4032 0.2062
3636.123 0.074 0.13 0.1936 0.1779 0.2227 0.23319 0.25146 0.3816 0.4421 0.4348
3655.413 0.3724 0.3565 0.5682 0.5413 0.30888 0.3896 0.5366 0.365 0.2081 0.4296
3674.703 0.5458 0.4877 0.5041 0.5048 0.3616 0.439 0.5882 0.5223 0.4477 0.3958
3693.993 0.521 0.5712 0.4555 0.4676 0.4235 0.27705 0.4901 0.489 0.236509 0.3787
3713.282 0.4804 0.4875 0.4314 0.1943 0.25594 0.2231 0.1802 0.4093 0.5103 0.5876
3732.572 0.653 0.6339 0.4991 0.3855 0.33152 0.5115 0.6971 0.477 0.31021 0.242334
3751.862 0.3674 0.5385 0.5166 0.6048 0.6374 0.5668 0.5661 0.5903 0.553 0.3925
3771.152 0.4099 0.5546 0.5309 0.3985 0.3939 0.5341 0.6251 0.5283 0.4122 0.4562
3790.441 0.5935 0.814 0.7524 0.5753 0.4417 0.4843 0.6835 0.7806 0.8536 0.8916
3809.731 0.9121 0.8592 0.7657 0.7033 0.5861 0.4734 0.4427 0.3962 0.463 0.5677
3829.021 0.6345 0.7473 0.9376 0.9216 0.9099 1.0728 0.9197 0.7572 0.8399 0.8001
3848.311 0.8193 0.8786 0.9921 1.1083 1.0147 0.7256 0.8668 1.0552 0.9614 0.9749
3867.601 0.6911 0.6964 0.729 0.5061 0.7378 0.7887 0.4851 0.4487 0.6632 0.6547
3886.890 0.595 0.6606 0.478 0.31601 0.32828 0.4389 0.33551 0.31249 0.4644 0.454
3906.180 0.4615 0.4211 0.24775 0.3979 0.6169 0.5313 0.5443 0.5841 0.5633 0.5374
3925.470 0.4071 0.3474 0.5991 0.7459 0.7584 0.7875 0.7091 0.9277 0.9559 0.8801
3944.760 0.973 0.9933 0.8102 0.6729 0.779 0.7378 0.9149 0.8448 0.8643 0.9397
3964.049 0.8076 0.7743 0.627 0.4273 0.4571 0.6386 0.7584 0.6629 0.4301 0.6276
3983.339 0.6677 0.6344 0.591 0.4465 0.4255 0.6069 0.7117 0.7751 0.7536 0.4461
##END=
