##TITLE=Malathion
##JCAMP-DX=4.24
##DATA TYPE=INFRARED SPECTRUM
##ORIGIN=NIST Mass Spectrometry Data Center
##OWNER=NIST Standard Reference Data Program
Collection (C) 2018 copyright by the U.S. Secretary of Commerce
on behalf of the United States of America. All rights reserved.
##CAS REGISTRY NO=121-75-5
##MOLFORM=C 10 H 19 O 6 P S 2
##$NIST SOURCE=MSDC-IR
##SPECTROMETER/DATA SYSTEM=HP-GC/MS/IRD
##STATE=gas
##XUNITS=1/CM
##YUNITS=ABSORBANCE
##XFACTOR=1.0
##YFACTOR=0.000028500
##DELTAX=4.0
##FIRSTX=550.0
##LASTX=3846.0
##FIRSTY=0.003648
##MAXX=3846
##MINX=550
##MAXY=0.285
##MINY=0
##NPOINTS=825
##XYDATA=(X++(Y..Y))
550.0 128 113 14 17 6 3 2 1 2 5
590.0 10 17 24 35 51 73 101 140 189 255
630.0 337 443 593 833 1247 1961 3045 4223 4795 4334
670.0 3248 2182 1401 915 638 472 360 279 228 190
710.0 162 143 129 114 98 87 81 78 83 94
750.0 112 138 173 217 279 360 468 614 809 1061
790.0 1368 1708 2033 2308 2555 2823 3113 3348 3420 3244
830.0 2844 2346 1871 1497 1229 1045 919 817 712 600
870.0 495 401 320 259 222 197 180 167 161 165
910.0 181 212 241 262 269 266 260 254 250 251
950.0 261 282 319 372 430 484 529 578 643 735
990.0 861 1031 1275 1634 2152 2875 3841 5067 6527 8068
1030.0 9365 10000 9775 8938 7961 7122 6368 5556 4665 3805
1070.0 3101 2586 2234 2006 1880 1846 1868 1878 1828 1731
1110.0 1638 1593 1604 1686 1861 2147 2555 3100 3761 4480
1150.0 5158 5684 5971 5983 5784 5509 5247 5008 4760 4504
1190.0 4283 4136 4066 4028 3974 3889 3800 3748 3753 3805
1230.0 3877 3938 3962 3951 3901 3791 3581 3281 2944 2638
1270.0 2398 2225 2109 2030 1975 1933 1899 1867 1825 1769
1310.0 1714 1679 1665 1631 1544 1428 1346 1335 1376 1400
1350.0 1325 1147 993 1015 1255 1539 1594 1341 1003 781
1390.0 686 652 634 623 630 659 687 693 677 649
1430.0 617 598 612 657 707 736 740 751 777 802
1470.0 800 746 651 538 431 347 286 243 211 185
1510.0 167 156 146 140 136 135 131 127 126 125
1550.0 122 119 112 110 107 104 98 93 90 88
1590.0 84 81 79 78 76 75 74 75 74 74
1630.0 75 75 77 78 80 83 86 92 102 113
1670.0 125 140 159 182 213 247 291 348 422 509
1710.0 605 710 845 1026 1280 1657 2260 3223 4710 6554
1750.0 7985 8240 7385 5928 4345 3024 2113 1536 1152 888
1790.0 701 565 464 390 334 291 261 239 223 210
1830.0 201 197 192 188 184 180 174 166 159 148
1870.0 137 129 119 108 98 88 80 71 63 55
1910.0 49 44 39 37 35 32 31 30 30 29
1950.0 28 29 29 28 29 30 30 29 30 31
1990.0 31 32 34 35 36 36 39 37 36 37
2030.0 36 34 33 34 34 33 34 36 38 38
2070.0 39 40 41 40 39 38 35 31 27 25
2110.0 21 18 15 12 11 9 8 7 6 5
2150.0 4 4 3 2 2 1 0 0 1 1
2190.0 0 0 1 2 2 3 4 3 4 4
2230.0 6 7 8 9 8 9 10 9 10 9
2270.0 10 9 10 9 8 9 8 7 7 8
2310.0 9 9 8 9 10 9 8 9 8 9
2350.0 8 7 6 6 7 8 9 10 10 9
2390.0 9 9 10 10 10 11 10 10 11 10
2430.0 9 9 8 7 8 9 10 10 9 8
2470.0 7 8 8 7 6 7 6 6 4 3
2510.0 4 3 3 2 1 2 1 2 2 2
2550.0 3 2 2 1 2 1 1 3 3 4
2590.0 5 5 6 7 7 8 9 10 9 8
2630.0 8 7 7 6 5 5 5 2 4 4
2670.0 5 4 4 5 4 3 4 3 4 3
2710.0 4 6 7 11 14 16 20 21 20 23
2750.0 24 24 26 29 31 36 41 45 47 48
2790.0 50 53 56 61 69 79 90 104 119 138
2830.0 162 192 232 293 399 530 594 534 432 372
2870.0 357 373 410 458 496 518 535 569 624 689
2910.0 741 768 775 780 819 913 1080 1323 1599 1859
2950.0 2124 2378 2415 2148 1828 1675 1679 1823 2082 2254
2990.0 2142 1848 1577 1373 1200 1053 927 818 721 625
3030.0 532 450 383 332 291 261 238 221 207 195
3070.0 185 177 169 161 154 149 142 133 126 119
3110.0 111 104 96 88 82 75 69 64 60 55
3150.0 51 48 43 40 37 34 32 31 30 27
3190.0 24 24 22 21 21 18 15 14 13 12
3230.0 11 9 10 9 7 7 6 5 6 5
3270.0 6 5 4 4 4 3 4 4 3 4
3310.0 3 0 3 1 0 1 3 2 2 3
3350.0 4 4 5 5 6 5 4 5 6 5
3390.0 4 4 5 5 7 7 8 9 8 7
3430.0 9 12 12 15 18 19 21 26 30 36
3470.0 45 54 64 70 71 71 69 64 58 48
3510.0 40 34 31 28 24 21 18 16 13 9
3550.0 9 7 5 7 5 3 3 4 4 3
3590.0 2 2 3 3 2 3 4 5 3 2
3630.0 3 2 3 3 2 0 2 2 4 4
3670.0 3 3 1 0 0 1 4 5 4 3
3710.0 1 3 6 5 4 4 5 4 2 1
3750.0 2 4 6 5 5 7 8 9 10 9
3790.0 7 8 7 8 9 8 7 8 7 9
3830.0 9 8 9 10 11
##END=
