##TITLE=3-t-Butyl-4-hydroxyanisole
##JCAMP-DX=4.24
##DATA TYPE=INFRARED SPECTRUM
##ORIGIN=NIST Mass Spectrometry Data Center
##OWNER=NIST Standard Reference Data Program
Collection (C) 2018 copyright by the U.S. Secretary of Commerce
on behalf of the United States of America. All rights reserved.
##CAS REGISTRY NO=121-00-6
##MOLFORM=C 11 H 16 O 2
##$NIST SOURCE=MSDC-IR
##SPECTROMETER/DATA SYSTEM=HP-GC/MS/IRD
##STATE=gas
##XUNITS=1/CM
##YUNITS=ABSORBANCE
##XFACTOR=1.0
##YFACTOR=0.000012900
##DELTAX=4.0
##FIRSTX=550.0
##LASTX=3846.0
##FIRSTY=0.001316
##MAXX=3846
##MINX=550
##MAXY=0.129
##MINY=0
##NPOINTS=825
##XYDATA=(X++(Y..Y))
550.0 102 116 58 83 95 131 177 208 215 199
590.0 167 131 94 73 66 67 80 100 113 125
630.0 130 121 104 86 62 37 23 13 3 8
670.0 28 60 128 216 294 327 300 227 145 89
710.0 71 77 101 146 210 317 499 801 1271 1856
750.0 2424 2821 2901 2640 2176 1661 1235 1015 1008 1183
790.0 1484 1782 2022 2145 2032 1755 1429 1072 745 509
830.0 367 300 290 324 386 458 522 578 642 725
870.0 812 857 799 663 517 406 348 346 393 461
910.0 516 533 499 433 362 298 246 200 161 133
950.0 117 117 127 142 162 183 204 232 268 309
990.0 361 427 511 614 742 894 1057 1238 1461 1762
1030.0 2201 2819 3574 4328 4925 5238 5187 4768 4099 3369
1070.0 2747 2322 2018 1704 1351 1034 823 705 648 637
1110.0 665 739 887 1136 1477 1830 2104 2260 2339 2484
1150.0 2905 3829 5429 7476 9211 10000 9642 8382 6992 5993
1190.0 5395 5100 5056 5268 5785 6623 7602 8329 8478 7940
1230.0 6871 5661 4600 3773 3199 2877 2823 3082 3629 4368
1270.0 5161 5836 6261 6364 6101 5464 4562 3628 2923 2594
1310.0 2564 2664 2733 2647 2366 1939 1488 1129 912 830
1350.0 868 1023 1296 1655 1962 2039 1912 1729 1690 1933
1390.0 2405 2945 3498 4078 4661 5143 5337 5058 4360 3536
1430.0 2832 2382 2209 2252 2438 2734 3087 3529 3999 4450
1470.0 4915 5480 6207 7114 8088 8904 9299 9110 8333 7011
1510.0 5387 3867 2648 1832 1337 1044 857 737 659 609
1550.0 589 604 654 749 896 1109 1346 1564 1696 1720
1590.0 1668 1595 1555 1548 1542 1484 1350 1145 913 696
1630.0 526 408 326 272 237 212 193 177 167 157
1670.0 147 137 129 126 121 119 118 119 117 117
1710.0 118 119 111 104 99 96 97 101 105 106
1750.0 105 102 99 98 98 100 97 94 91 88
1790.0 86 84 83 82 84 90 100 113 127 135
1830.0 134 123 105 86 69 56 51 48 43 35
1870.0 26 16 8 2 2 4 7 10 16 23
1910.0 27 30 29 28 27 26 26 27 31 36
1950.0 40 44 50 55 62 68 76 86 94 101
1990.0 107 107 103 96 85 75 69 69 71 74
2030.0 79 83 85 82 78 78 77 75 77 81
2070.0 83 87 90 89 89 87 85 81 75 73
2110.0 70 66 61 55 51 46 41 34 25 17
2150.0 11 6 3 3 7 13 19 22 25 28
2190.0 26 21 17 13 7 2 2 0 0 3
2230.0 0 0 2 0 2 2 3 6 8 13
2270.0 17 20 23 27 31 36 39 40 42 45
2310.0 46 46 49 51 53 50 46 40 36 31
2350.0 28 28 29 34 40 44 46 49 52 54
2390.0 58 60 64 70 73 73 71 65 59 54
2430.0 52 51 50 51 55 56 60 65 67 72
2470.0 78 81 84 88 91 88 83 77 70 65
2510.0 59 53 47 40 33 28 27 26 27 29
2550.0 33 37 40 40 39 36 31 29 30 31
2590.0 31 32 32 33 34 33 34 38 40 40
2630.0 41 47 52 53 54 55 55 53 49 46
2670.0 45 44 43 44 45 47 49 53 57 64
2710.0 74 91 108 120 128 129 126 121 121 124
2750.0 133 142 149 155 161 172 192 215 241 272
2790.0 302 332 367 407 458 517 587 676 798 990
2830.0 1273 1606 1873 1984 1922 1758 1639 1648 1800 2068
2870.0 2416 2787 3095 3277 3344 3349 3358 3427 3604 3892
2910.0 4261 4620 4886 5029 5097 5177 5363 5685 6108 6619
2950.0 7219 7891 8589 9267 9704 9581 8720 7173 5491 4291
2990.0 3725 3649 3810 3875 3645 3150 2529 2013 1715 1546
3030.0 1406 1249 1082 930 809 720 664 646 662 706
3070.0 759 786 774 718 636 548 472 414 374 351
3110.0 339 329 322 312 290 268 245 220 196 173
3150.0 157 148 141 135 132 126 117 110 101 95
3190.0 92 85 81 78 73 67 64 60 53 49
3230.0 48 50 46 45 43 37 33 30 30 32
3270.0 31 28 29 33 33 31 33 28 24 23
3310.0 23 19 17 14 12 10 6 7 9 12
3350.0 14 16 23 28 33 39 46 52 53 50
3390.0 44 45 48 47 50 50 46 42 38 39
3430.0 35 32 35 38 37 36 37 37 36 32
3470.0 28 27 29 29 26 23 19 19 19 14
3510.0 13 13 12 10 7 4 7 8 3 7
3550.0 7 3 13 16 11 16 23 23 24 26
3590.0 32 42 49 59 77 95 126 170 234 348
3630.0 564 961 1622 2495 3126 3250 3000 2331 1618 1231
3670.0 1053 952 854 745 632 527 438 362 289 228
3710.0 181 148 120 98 85 74 63 58 53 50
3750.0 46 40 39 37 38 42 40 38 36 39
3790.0 39 38 40 40 43 44 44 45 49 50
3830.0 49 52 53 53 52
##END=
