##TITLE=Dimethyl isothiocyanatosuccinate
##JCAMP-DX=4.24
##DATA TYPE=INFRARED SPECTRUM
##ORIGIN=EPA-IR VAPOR PHASE LIBRARY
##OWNER=SRD/NIST
Collection (C) 2018 copyright by the U.S. Secretary of Commerce
on behalf of the United States of America. All rights reserved.
##CAS REGISTRY NO=121928-38-9
##MOLFORM=C 7 H 9 N O 4 S
##$NIST SOURCE=MSDC-IR
##STATE=gas
##XUNITS=1/CM
##YUNITS=ABSORBANCE
##XFACTOR=1.
##YFACTOR=0.001
##DELTAX=1.92898
##FIRSTX=549.8
##LASTX=4000.7
##FIRSTY=13.118
##MAXX=4000.7
##MINX=549.759
##MAXY=0.301698
##MINY=0
##NPOINTS=1790
##XYDATA=(X++(Y..Y))
549.759 13.118 12.758 12.248 11.538 11.178 11.088 10.928 10.438 9.658 9.198
569.049 8.778 8.628 8.768 8.438 7.958 7.738 7.648 7.338 7.158 6.988
588.339 6.618 6.568 6.388 6.198 6.178 6.128 6.198 6.088 5.898 5.888
607.628 5.878 5.858 6.048 6.228 6.128 6.088 6.258 6.678 7.068 7.178
626.918 7.518 7.648 7.798 8.518 8.928 9.078 9.318 9.648 9.848 9.938
646.208 10.258 10.568 10.668 10.538 10.528 10.548 10.568 10.408 9.948 10.048
665.498 10.158 9.938 10.008 10.008 9.938 9.808 9.708 9.868 9.858 9.778
684.787 9.938 10.028 9.908 9.808 9.848 9.638 9.358 9.208 9.128 9.048
704.077 8.938 8.758 8.528 8.398 8.248 8.268 8.268 8.118 7.888 7.758
723.367 7.498 7.228 7.078 6.838 6.438 6.048 5.798 5.568 5.358 5.108
742.657 4.808 4.558 4.488 4.288 3.878 3.728 3.708 3.628 3.828 3.878
761.947 3.408 3.258 3.338 3.418 3.528 3.598 3.738 3.928 4.028 4.028
781.236 4.078 4.208 4.168 4.138 4.128 4.128 4.418 4.698 4.828 4.848
800.526 4.898 5.038 5.248 5.248 5.438 5.728 5.638 5.608 5.648 5.658
819.816 5.548 5.608 5.758 5.868 6.218 6.588 6.838 7.258 7.718 8.028
839.106 8.288 8.548 8.898 9.108 9.128 9.058 8.988 8.698 8.188 7.878
858.395 7.548 7.218 7.148 6.888 6.618 6.638 6.188 5.738 5.588 5.388
877.685 5.298 5.308 5.338 5.228 5.498 5.898 6.188 6.648 6.998 7.168
896.975 7.338 7.608 7.958 8.018 7.618 7.328 7.178 7.048 7.138 7.158
916.265 7.188 7.448 7.678 7.878 8.098 8.448 8.798 9.178 9.678 10.168
935.555 10.738 11.348 11.798 11.898 12.098 12.328 12.218 12.008 11.968 11.878
954.844 11.568 11.288 11.078 11.168 11.278 11.198 11.378 11.648 12.098 12.648
974.134 13.328 14.308 15.298 16.528 17.958 19.688 21.748 23.828 25.968 28.468
993.424 30.898 33.298 35.768 37.808 39.868 41.588 42.558 42.998 42.938 42.678
1012.714 42.068 41.068 39.808 38.278 36.548 34.628 32.928 31.268 29.858 28.558
1032.003 26.898 25.798 24.918 24.208 23.668 23.268 22.928 22.548 22.368 22.028
1051.293 21.568 20.828 19.978 19.098 18.258 17.058 15.998 15.158 14.668 14.268
1070.583 13.538 13.338 13.138 12.868 12.538 12.358 12.578 12.748 12.858 12.978
1089.873 12.978 12.668 12.648 13.038 13.338 13.508 13.728 13.948 14.718 15.668
1109.163 16.448 17.318 18.118 19.288 20.098 20.818 22.238 23.628 24.858 26.058
1128.452 27.208 29.028 31.108 32.788 35.118 38.108 41.208 44.588 48.948 54.158
1147.742 59.298 65.518 72.928 80.638 89.368 98.678 108.038 117.518 125.618 131.658
1167.032 136.178 138.848 139.258 137.848 135.358 132.078 128.178 124.578 120.998 118.038
1186.322 116.208 114.968 113.748 112.658 112.668 112.848 112.368 111.468 110.868 110.258
1205.611 109.188 107.868 105.808 103.618 101.988 100.388 98.618 97.308 96.628 96.188
1224.901 96.058 95.868 95.728 95.848 95.988 96.418 97.398 98.648 99.988 101.718
1244.191 103.168 104.628 106.238 107.508 108.438 108.658 108.738 108.828 108.518 108.118
1263.481 107.508 106.828 106.038 104.988 104.098 102.808 100.908 98.698 95.848 92.408
1282.771 88.748 84.788 80.418 75.868 71.428 67.018 62.498 58.168 54.268 50.668
1302.060 47.588 45.008 42.748 40.908 39.528 38.678 38.228 38.228 38.628 39.288
1321.350 40.178 41.268 42.478 43.628 44.598 45.408 45.998 46.438 46.688 46.798
1340.640 46.888 46.998 47.128 47.398 47.698 48.078 48.608 49.218 49.958 50.678
1359.930 51.218 51.218 50.418 48.788 46.388 43.318 39.578 35.378 31.158 27.238
1379.219 23.838 21.018 18.708 16.888 15.428 14.288 13.388 12.568 12.028 11.758
1398.509 11.538 11.478 11.608 11.898 12.398 13.038 13.818 14.778 15.838 16.878
1417.799 17.848 18.758 19.628 20.508 21.578 23.218 26.008 30.258 36.018 42.448
1437.089 48.068 51.988 53.638 52.428 48.588 42.078 34.088 27.158 22.218 19.048
1456.378 17.058 15.708 14.738 14.008 13.368 12.748 12.208 11.688 11.078 10.528
1475.668 9.998 9.418 8.878 8.438 8.118 7.748 7.338 6.978 6.678 6.408
1494.958 6.168 5.938 5.748 5.608 5.468 5.278 5.088 5.028 4.948 4.888
1514.248 4.838 4.768 4.738 4.728 4.668 4.638 4.648 4.688 4.678 4.608
1533.538 4.558 4.558 4.618 4.598 4.558 4.588 4.498 4.458 4.498 4.498
1552.827 4.498 4.508 4.478 4.458 4.458 4.478 4.468 4.418 4.358 4.338
1572.117 4.398 4.328 4.248 4.238 4.208 4.138 4.088 4.078 3.998 3.988
1591.407 4.008 3.978 3.958 3.878 3.778 3.678 3.678 3.718 3.658 3.568
1610.697 3.578 3.598 3.548 3.508 3.458 3.368 3.348 3.378 3.398 3.368
1629.986 3.268 3.338 3.348 3.288 3.348 3.328 3.278 3.318 3.388 3.418
1649.276 3.408 3.428 3.498 3.588 3.628 3.678 3.718 3.728 3.788 3.898
1668.566 4.028 4.178 4.318 4.438 4.528 4.638 4.848 5.008 5.248 5.538
1687.856 5.778 6.058 6.338 6.648 7.078 7.458 7.918 8.598 9.288 10.038
1707.146 10.848 11.838 12.978 14.118 15.408 16.858 18.398 20.018 21.938 24.188
1726.435 26.708 29.468 32.688 36.328 40.558 45.508 51.008 57.418 64.978 73.968
1745.725 84.778 98.008 113.858 132.258 152.538 173.608 194.538 213.558 228.068 235.248
1765.015 234.818 229.248 219.228 204.078 184.958 165.808 148.558 133.358 119.878 107.848
1784.305 97.058 86.908 77.128 67.658 58.908 51.078 44.228 38.328 33.358 29.138
1803.594 25.628 22.678 20.198 18.128 16.358 14.818 13.428 12.188 11.118 10.268
1822.884 9.558 8.898 8.348 7.848 7.468 7.088 6.678 6.328 6.108 5.958
1842.174 5.758 5.658 5.588 5.508 5.448 5.408 5.398 5.348 5.318 5.338
1861.464 5.348 5.388 5.468 5.498 5.558 5.678 5.798 5.868 5.968 6.038
1880.754 6.158 6.408 6.608 6.778 6.978 7.178 7.388 7.668 7.938 8.268
1900.043 8.558 8.838 9.278 9.788 10.238 10.658 11.198 11.778 12.348 12.978
1919.333 13.668 14.378 15.108 15.898 16.788 17.688 18.608 19.568 20.648 21.768
1938.623 22.868 24.118 25.508 26.958 28.498 30.148 31.948 33.938 35.948 38.008
1957.913 40.278 42.758 45.428 48.268 51.238 54.398 57.778 61.398 65.218 69.228
1977.202 73.548 78.158 83.028 88.198 93.598 99.368 105.508 111.958 118.808 125.998
1996.492 133.638 141.718 150.208 159.048 168.278 177.998 188.098 198.478 209.198 220.048
2015.782 231.038 242.148 253.068 263.738 273.648 282.598 290.308 296.178 300.048 301.698
2035.072 301.008 298.008 292.838 285.888 277.378 267.578 256.878 245.708 234.118 222.398
2054.362 210.788 199.448 188.498 178.048 168.328 159.318 151.128 143.728 137.128 131.388
2073.651 126.348 121.958 118.128 114.778 111.838 109.158 106.668 104.338 102.038 99.738
2092.941 97.488 95.158 92.828 90.608 88.408 86.198 84.098 82.098 80.108 78.178
2112.231 76.248 74.368 72.468 70.528 68.598 66.528 64.408 62.188 59.878 57.618
2131.521 55.258 52.888 50.628 48.358 46.068 43.888 41.798 39.798 37.918 36.088
2150.810 34.338 32.738 31.248 29.878 28.568 27.278 26.068 24.948 23.938 23.038
2170.100 22.158 21.368 20.628 19.868 19.228 18.638 18.068 17.548 17.038 16.568
2189.390 16.148 15.708 15.238 14.768 14.418 14.068 13.698 13.308 12.948 12.658
2208.680 12.388 12.078 11.798 11.598 11.368 11.118 10.888 10.668 10.508 10.308
2227.970 10.148 10.008 9.748 9.528 9.448 9.328 9.138 8.988 8.918 8.818
2247.259 8.608 8.428 8.238 8.138 8.028 7.788 7.638 7.498 7.288 7.098
2266.549 6.948 6.918 6.828 6.658 6.358 6.138 6.098 5.978 5.778 5.588
2285.839 5.378 5.178 4.998 4.798 4.638 4.518 4.438 4.228 4.038 3.968
2305.129 3.818 3.778 3.778 3.618 3.518 3.428 3.318 3.238 3.138 3.038
2324.418 2.998 2.968 2.868 2.838 2.788 2.778 2.778 2.748 2.778 2.698
2343.708 2.688 2.698 2.578 2.468 2.458 2.458 2.358 2.308 2.338 2.378
2362.998 2.318 2.238 2.168 2.128 2.178 2.178 2.168 2.108 2.128 2.128
2382.288 1.978 1.908 1.938 1.938 1.868 1.828 1.868 1.828 1.728 1.708
2401.578 1.678 1.708 1.778 1.698 1.668 1.638 1.588 1.638 1.618 1.578
2420.867 1.558 1.516 1.4978 1.522 1.538 1.558 1.4827 1.4594 1.4834 1.4784
2440.157 1.4849 1.4482 1.448 1.4818 1.4651 1.4268 1.5004 1.4702 1.3674 1.4271
2459.447 1.484 1.5047 1.4988 1.5081 1.485 1.4901 1.4952 1.4567 1.48 1.4364
2478.737 1.4169 1.517 1.568 1.578 1.5058 1.5161 1.638 1.628 1.578 1.638
2498.026 1.628 1.558 1.538 1.558 1.588 1.638 1.668 1.648 1.708 1.838
2517.316 1.828 1.758 1.868 1.928 1.938 2.068 2.138 2.198 2.178 2.158
2536.606 2.298 2.328 2.298 2.408 2.448 2.478 2.548 2.578 2.678 2.728
2555.896 2.808 2.798 2.828 2.888 2.798 2.758 2.748 2.758 2.778 2.778
2575.186 2.798 2.798 2.748 2.688 2.578 2.598 2.548 2.478 2.588 2.668
2594.475 2.568 2.408 2.388 2.338 2.288 2.258 2.268 2.378 2.388 2.348
2613.765 2.278 2.238 2.248 2.158 2.048 2.018 1.958 1.978 1.988 1.888
2633.055 1.928 2.008 1.918 1.868 1.808 1.728 1.778 1.808 1.778 1.838
2652.345 1.818 1.718 1.808 1.858 1.828 1.748 1.668 1.718 1.748 1.678
2671.634 1.708 1.738 1.748 1.738 1.658 1.688 1.748 1.828 1.898 1.888
2690.924 1.828 1.818 1.938 2.078 2.128 2.118 1.998 1.938 2.058 2.158
2710.214 2.218 2.278 2.238 2.218 2.308 2.378 2.388 2.498 2.618 2.638
2729.504 2.688 2.678 2.608 2.648 2.698 2.788 2.898 2.978 2.938 2.888
2748.794 2.948 3.008 3.018 2.978 2.988 2.968 2.888 2.878 2.888 2.778
2768.083 2.668 2.678 2.618 2.578 2.568 2.488 2.478 2.418 2.338 2.268
2787.373 2.238 2.218 2.168 2.208 2.198 2.098 1.988 1.978 2.088 1.988
2806.663 1.938 2.018 2.038 1.988 1.958 2.058 2.148 2.248 2.258 2.268
2825.953 2.368 2.528 2.718 2.918 3.098 3.248 3.478 3.898 4.418 4.988
2845.242 5.898 6.818 7.558 8.158 8.548 8.638 8.428 7.868 6.988 6.128
2864.532 5.298 4.648 4.178 4.008 4.018 3.898 3.798 3.598 3.508 3.718
2883.822 3.838 4.148 4.588 4.908 5.138 5.488 5.918 6.378 6.988 7.418
2903.112 7.738 8.138 8.468 8.698 8.878 9.038 9.178 9.318 9.368 9.398
2922.401 9.318 9.288 9.328 9.368 9.568 9.748 10.058 10.588 11.198 11.878
2941.691 12.738 13.878 15.428 17.218 19.788 23.288 27.828 33.648 40.218 46.388
2960.981 50.678 52.638 52.058 49.168 44.138 37.408 30.098 23.418 18.428 15.258
2980.271 13.228 12.058 11.448 10.948 10.778 10.778 10.888 11.018 11.188 11.538
2999.561 11.898 12.268 12.468 12.728 12.808 12.658 12.468 12.038 11.638 11.268
3018.850 10.878 10.538 10.258 10.098 10.028 9.968 9.828 9.768 9.608 9.308
3038.140 9.088 8.798 8.368 7.808 7.188 6.628 6.148 5.768 5.418 5.238
3057.430 4.968 4.558 4.458 4.178 3.908 3.838 3.618 3.478 3.408 3.288
3076.720 3.158 3.108 3.138 3.118 2.978 2.748 2.828 2.988 2.928 2.918
3096.009 2.888 2.828 2.718 2.598 2.638 2.588 2.518 2.468 2.378 2.308
3115.299 2.258 2.178 2.028 1.958 2.008 1.968 1.838 1.628 1.538 1.4811
3134.589 1.3944 1.4837 1.3981 1.2795 1.2847 1.2928 1.2691 1.2081 1.0855 0.9676
3153.879 1.0447 1.0755 0.9745 0.9579 0.9475 0.8531 0.854 0.8257 0.6347 0.59781
3173.169 0.6923 0.6457 0.62099 0.658 0.7967 0.8058 0.61033 0.60838 0.56878 0.52664
3192.458 0.6383 0.6397 0.6301 0.54168 0.52412 0.4598 0.369 0.4818 0.53879 0.57802
3211.748 0.377 0.278 0.4407 0.375 0.186 0.222 0.381 0.349 0.302 0.226
3231.038 0.153 0.194 0.144 0.182 0.291 0.27 0.167 0.193 0.184 0.215
3250.328 0.248 0.096 0.111 0.253 0.242 0.253 0.349 0.283 0.25 0.243
3269.617 0.194 0.227 0.214 0.239 0.229 0.216 0.398 0.405 0.214 0.185
3288.907 0.262 0.12 0.069 0.252 0.371 0.298 0.137 0.201 0.273 0.259
3308.197 0.28 0.22 0.254 0.333 0.318 0.145 0.087 0.264 0.268 0.17
3327.487 0.085 0 0.019 0.073 0.188 0.271 0.359 0.381 0.326 0.305
3346.777 0.162 0.067 0.051 0.197 0.273 0.227 0.257 0.232 0.154 0.184
3366.066 0.307 0.205 0.168 0.33 0.364 0.3 0.376 0.41 0.358 0.339
3385.356 0.29 0.331 0.342 0.177 0.068 0.14 0.212 0.324 0.369 0.314
3404.646 0.4 0.4973 0.5074 0.454 0.276 0.315 0.4577 0.533262 0.58358 0.4957
3423.936 0.34 0.303 0.299 0.26 0.311 0.277 0.153 0.251 0.532109 0.4928
3443.225 0.373 0.367 0.334 0.327 0.4626 0.59865 0.52601 0.4767 0.54187 0.58858
3462.515 0.54907 0.56403 0.537119 0.528779 0.58852 0.6403 0.7237 0.8424 0.9212 0.9408
3481.805 1.0736 1.2799 1.4161 1.3851 1.4692 1.598 1.768 2.008 2.088 2.058
3501.095 2.148 2.238 2.318 2.358 2.408 2.488 2.388 2.328 2.258 2.198
3520.385 2.128 2.038 2.068 1.978 1.868 1.768 1.5176 1.5196 1.548 1.4646
3539.674 1.4329 1.4927 1.4003 1.0317 0.9634 0.998 0.8935 0.7878 0.9522 1.016
3558.964 0.8642 0.843 0.8064 0.7684 0.723 0.55728 0.4965 0.6875 0.7469 0.702
3578.254 0.7112 0.6322 0.4869 0.5077 0.424 0.337 0.388 0.27 0.246 0.355
3597.544 0.4359 0.4947 0.60925 0.6313 0.328 0.212 0.352 0.351 0.321 0.356
3616.833 0.4692 0.4915 0.404 0.38 0.404 0.527565 0.4728 0.358 0.4727 0.4465
3636.123 0.363 0.377 0.341 0.4421 0.4827 0.397 0.405 0.381 0.325 0.186
3655.413 0.136 0.211 0.275 0.282 0.325 0.364 0.342 0.328 0.265 0.273
3674.703 0.272 0.18 0.175 0.206 0.22 0.25 0.49 0.6768 0.4838 0.305
3693.993 0.279 0.263 0.166 0.136 0.14 0.132 0.322 0.333 0.223 0.331
3713.282 0.381 0.419 0.342 0.277 0.377 0.356 0.27 0.361 0.56622 0.54215
3732.572 0.4455 0.288 0.162 0.222 0.349 0.318 0.294 0.427 0.4333 0.351
3751.862 0.35 0.263 0.256 0.249 0.295 0.6501 0.5116 0.311 0.231 0.201
3771.152 0.337 0.409 0.4626 0.5101 0.58339 0.416 0.213 0.283 0.293 0.439
3790.441 0.529621 0.42 0.41 0.36 0.325 0.4511 0.4742 0.391 0.388 0.4393
3809.731 0.4541 0.4393 0.393 0.403 0.423 0.315 0.37 0.4516 0.424 0.291
3829.021 0.285 0.361 0.326 0.418 0.411 0.301 0.388 0.506 0.56587 0.4544
3848.311 0.369 0.534484 0.706 0.59341 0.52141 0.56583 0.52579 0.58843 0.58368 0.53982
3867.601 0.52898 0.4616 0.4319 0.4959 0.522 0.6858 0.8776 0.8495 0.7924 0.7699
3886.890 0.7 0.8027 0.7958 0.60705 0.6327 0.6298 0.6632 0.6428 0.4442 0.5374
3906.180 0.8472 0.975 0.9433 0.8242 0.8339 0.9991 1.0408 0.9484 0.9141 0.9903
3925.470 0.9271 0.8714 1.0504 1.1535 1.0467 0.9745 0.9062 0.7077 0.7937 1.0289
3944.760 1.1279 1.1447 1.0873 1.0693 1.1946 1.3307 1.2636 1.1971 1.2026 1.2861
3964.049 1.3227 1.3509 1.5037 1.528 1.578 1.568 1.508 1.568 1.5055 1.5092
3983.339 1.638 1.688 1.748 1.708 1.628 1.618 1.648 1.698 1.678 1.698
##END=
