##TITLE=Acetaldehyde diphenylethylacetal
##JCAMP-DX=4.24
##DATA TYPE=INFRARED SPECTRUM
##ORIGIN=NIST Mass Spectrometry Data Center
##OWNER=NIST Standard Reference Data Program
Collection (C) 2018 copyright by the U.S. Secretary of Commerce
on behalf of the United States of America. All rights reserved.
##CAS REGISTRY NO=122-71-4
##MOLFORM=C 18 H 22 O 2
##$NIST SOURCE=MSDC-IR
##SPECTROMETER/DATA SYSTEM=HP-GC/MS/IRD
##STATE=gas
##XUNITS=1/CM
##YUNITS=ABSORBANCE
##XFACTOR=1.0
##YFACTOR=0.000002300
##DELTAX=4.0
##FIRSTX=550.0
##LASTX=3846.0
##FIRSTY=0.000458
##MAXX=3846
##MINX=550
##MAXY=0.023
##MINY=0
##NPOINTS=825
##XYDATA=(X++(Y..Y))
550.0 199 247 229 311 361 412 455 415 320 253
590.0 206 191 172 127 108 98 61 31 30 29
630.0 32 16 14 55 80 100 139 197 300 435
670.0 612 879 1235 1680 2253 3060 3915 4184 3700 2970
710.0 2400 2049 1844 1768 1808 1912 2128 2479 2782 2758
750.0 2322 1734 1246 933 758 627 519 431 373 370
790.0 383 378 371 385 424 486 565 643 724 765
830.0 744 661 557 481 444 439 450 470 505 527
870.0 558 604 665 749 841 969 1131 1267 1325 1335
910.0 1329 1358 1462 1606 1735 1825 1846 1784 1647 1443
950.0 1199 971 823 727 688 687 723 821 982 1206
990.0 1450 1616 1684 1702 1717 1787 1989 2386 2991 3718
1030.0 4320 4607 4700 4855 5219 5732 6241 6634 6753 6613
1070.0 6331 5973 5721 5705 6061 6941 8237 9470 10000 9558
1110.0 8586 7677 7222 7295 7644 7898 7704 7012 6115 5272
1150.0 4544 3925 3381 2920 2534 2232 2017 1871 1813 1802
1190.0 1821 1847 1842 1805 1717 1586 1422 1247 1069 920
1230.0 824 752 708 688 684 679 675 680 674 667
1270.0 671 653 625 601 583 572 570 574 587 612
1310.0 665 751 854 949 1056 1211 1451 1771 2049 2050
1350.0 1760 1420 1233 1254 1421 1660 1956 2232 2330 2198
1390.0 1923 1622 1371 1144 915 729 601 540 538 581
1430.0 673 803 931 1036 1116 1176 1144 1044 927 832
1470.0 799 800 816 862 1013 1375 1796 1879 1472 888
1510.0 490 311 225 189 177 172 167 150 136 135
1550.0 133 130 129 142 168 205 253 317 401 504
1590.0 648 818 1014 1175 1218 1102 916 751 643 592
1630.0 599 621 631 614 547 434 334 286 244 197
1670.0 156 123 99 80 64 60 53 38 34 46
1710.0 54 46 41 55 74 82 85 90 78 64
1750.0 58 58 53 43 50 65 87 115 139 180
1790.0 226 258 245 193 155 130 102 84 73 63
1830.0 59 63 75 85 102 129 156 179 194 201
1870.0 205 206 202 180 150 120 98 92 97 104
1910.0 111 130 149 173 205 237 260 272 284 296
1950.0 289 253 198 139 96 76 67 62 57 53
1990.0 51 51 50 45 41 42 37 24 26 37
2030.0 42 41 42 43 47 41 36 34 39 53
2070.0 59 53 44 43 49 50 46 44 38 39
2110.0 38 30 28 27 32 26 23 23 16 9
2150.0 13 15 17 17 11 9 10 14 11 7
2190.0 12 19 18 15 16 21 19 12 10 17
2230.0 16 14 17 10 5 13 20 22 18 17
2270.0 26 28 25 21 22 20 20 24 24 33
2310.0 50 53 39 29 26 32 37 39 38 29
2350.0 24 27 22 16 18 16 20 26 21 20
2390.0 20 17 17 21 21 9 11 11 12 18
2430.0 16 21 19 14 19 16 19 22 19 17
2470.0 17 15 17 20 20 24 25 21 16 16
2510.0 24 31 36 27 22 24 26 23 23 26
2550.0 29 39 47 48 44 33 35 43 45 54
2590.0 56 65 71 70 77 87 87 84 99 108
2630.0 117 141 156 163 164 165 167 168 171 162
2670.0 145 142 153 154 146 139 135 143 150 153
2710.0 161 170 177 187 201 218 226 236 245 252
2750.0 268 284 293 303 309 316 338 352 363 367
2790.0 365 372 380 388 392 402 429 479 525 576
2830.0 658 757 876 1019 1169 1344 1577 1860 2212 2595
2870.0 2891 3032 3042 2957 2835 2723 2656 2711 2898 3128
2910.0 3319 3447 3568 3698 3774 3728 3661 3739 3921 4036
2950.0 3902 3544 3093 2626 2203 1842 1568 1422 1441 1742
2990.0 2307 2703 2492 1947 1546 1398 1467 1721 2145 2680
3030.0 3156 3339 3101 2618 2174 1906 1847 2013 2413 2937
3070.0 3250 3068 2565 2132 1857 1652 1446 1225 1038 886
3110.0 755 620 498 397 320 259 200 160 141 128
3150.0 114 113 123 122 109 105 95 78 84 70
3190.0 54 61 50 53 60 54 39 24 33 44
3230.0 43 25 12 24 35 37 27 14 19 31
3270.0 19 15 32 38 30 38 37 17 0 7
3310.0 12 9 36 39 32 16 11 10 10 12
3350.0 14 34 37 21 17 28 31 31 26 17
3390.0 19 28 36 38 23 13 17 16 25 35
3430.0 33 27 23 30 27 17 30 38 32 31
3470.0 20 8 6 8 33 46 43 30 6 21
3510.0 27 13 16 9 12 36 40 24 25 26
3550.0 37 37 25 19 13 5 15 31 22 9
3590.0 11 22 20 20 28 44 68 62 71 94
3630.0 91 99 106 103 101 95 95 109 120 115
3670.0 98 97 99 93 76 60 61 56 33 27
3710.0 37 36 34 30 31 49 54 50 40 45
3750.0 51 53 58 71 69 56 61 75 81 69
3790.0 64 53 39 37 53 82 83 58 62 63
3830.0 41 44 61 71 70
##END=
