##TITLE=4-Isopropylbenzaldehyde
##JCAMP-DX=4.24
##DATA TYPE=INFRARED SPECTRUM
##ORIGIN=NIST Mass Spectrometry Data Center
##OWNER=NIST Standard Reference Data Program
Collection (C) 2018 copyright by the U.S. Secretary of Commerce
on behalf of the United States of America. All rights reserved.
##CAS REGISTRY NO=122-03-2
##MOLFORM=C 10 H 12 O
##$NIST SOURCE=MSDC-IR
##SPECTROMETER/DATA SYSTEM=HP-GC/MS/IRD
##STATE=gas
##XUNITS=1/CM
##YUNITS=ABSORBANCE
##XFACTOR=1.0
##YFACTOR=0.000006400
##DELTAX=4.0
##FIRSTX=550.0
##LASTX=3846.0
##FIRSTY=0.002733
##MAXX=3846
##MINX=550
##MAXY=0.064
##MINY=0
##NPOINTS=825
##XYDATA=(X++(Y..Y))
550.0 427 328 226 155 102 78 79 78 107 146
590.0 186 217 234 245 206 148 98 47 18 19
630.0 22 14 9 2 1 8 16 21 11 8
670.0 4 0 8 15 22 40 64 93 139 213
710.0 360 584 814 963 961 783 509 281 156 98
750.0 71 54 46 49 46 40 50 65 85 118
790.0 163 234 333 456 617 821 1055 1323 1684 2105
830.0 2453 2567 2358 1850 1179 660 392 264 196 161
870.0 143 130 125 122 115 103 92 76 64 59
910.0 51 48 46 39 30 29 25 17 19 20
950.0 17 20 26 27 26 20 18 20 28 40
990.0 53 63 81 104 161 238 263 250 204 125
1030.0 83 93 153 262 418 579 675 679 586 438
1070.0 311 243 201 172 170 187 224 261 282 278
1110.0 246 206 170 162 177 200 232 260 265 251
1150.0 247 298 485 909 1373 1565 1518 1196 706 429
1190.0 433 666 1092 1505 1713 1650 1275 806 513 380
1230.0 300 243 188 145 119 101 94 94 104 132
1270.0 183 257 332 389 431 493 630 798 880 848
1310.0 682 458 329 298 309 339 366 382 376 354
1350.0 328 320 333 366 415 469 514 569 631 663
1390.0 649 591 499 412 364 354 372 391 396 383
1430.0 339 288 267 273 301 334 373 414 445 455
1470.0 439 400 342 280 224 174 144 126 112 102
1510.0 93 81 70 64 63 60 59 65 77 96
1550.0 118 151 201 283 411 574 709 774 775 732
1590.0 781 1038 1514 2082 2446 2423 2028 1366 766 454
1630.0 327 278 269 286 316 343 376 422 480 546
1670.0 606 653 669 661 676 741 901 1233 1867 3141
1710.0 5505 8327 9939 10000 8362 5249 2759 1558 957 616
1750.0 410 286 215 173 153 141 131 121 115 118
1790.0 127 136 140 136 126 108 87 68 56 49
1830.0 46 50 53 55 60 59 56 55 51 51
1870.0 54 60 69 74 76 77 73 72 75 80
1910.0 84 85 83 78 72 66 58 51 46 38
1950.0 33 32 29 28 29 29 30 31 29 28
1990.0 31 36 44 51 54 51 43 36 36 39
2030.0 42 44 50 49 38 30 24 19 16 11
2070.0 10 10 8 7 6 6 5 5 9 9
2110.0 7 8 8 9 9 8 8 9 7 4
2150.0 3 1 3 1 0 0 0 1 0 1
2190.0 2 2 3 5 6 6 9 11 9 7
2230.0 4 1 0 2 5 6 7 9 10 12
2270.0 11 7 7 8 7 8 12 13 12 14
2310.0 14 11 9 11 13 13 16 15 14 13
2350.0 12 11 10 8 10 13 13 16 18 18
2390.0 16 16 18 17 23 28 26 27 27 21
2430.0 17 17 18 18 16 18 19 17 16 19
2470.0 22 22 21 21 22 21 21 21 23 27
2510.0 27 23 22 19 17 16 20 22 20 27
2550.0 34 37 40 45 49 54 61 69 75 79
2590.0 77 72 68 63 57 52 51 55 55 57
2630.0 57 56 58 62 67 75 87 100 118 141
2670.0 166 198 243 296 341 390 446 521 630 792
2710.0 998 1206 1364 1443 1415 1298 1128 945 778 644
2750.0 554 501 472 461 467 483 512 562 635 737
2790.0 857 971 1063 1124 1159 1182 1182 1138 1051 921
2830.0 765 619 507 427 379 361 364 387 434 504
2870.0 609 749 879 965 996 988 965 953 958 968
2910.0 977 975 981 1006 1049 1122 1215 1303 1349 1362
2950.0 1399 1540 1917 2635 3455 3978 3995 3384 2439 1616
2990.0 1081 788 627 537 489 471 480 517 566 599
3030.0 604 574 516 463 436 437 449 452 442 420
3070.0 399 379 361 347 333 321 301 281 250 215
3110.0 184 161 143 129 122 111 91 73 68 66
3150.0 66 64 56 52 53 56 55 58 57 59
3190.0 64 60 58 54 54 62 58 53 51 45
3230.0 36 33 31 22 21 23 23 21 15 12
3270.0 15 19 17 14 14 19 13 12 13 9
3310.0 6 5 10 12 15 17 16 22 16 12
3350.0 17 13 12 22 26 25 24 27 36 37
3390.0 43 59 67 74 87 99 121 145 154 148
3430.0 131 105 81 65 48 40 40 33 23 16
3470.0 9 7 10 9 14 15 14 6 2 12
3510.0 13 12 10 5 7 7 0 5 9 0
3550.0 3 11 9 11 13 11 16 18 13 11
3590.0 9 7 5 2 4 3 1 8 16 10
3630.0 11 14 14 11 11 20 19 18 21 15
3670.0 13 12 11 10 14 14 11 11 14 10
3710.0 9 16 14 9 10 5 0 1 0 4
3750.0 6 9 14 10 13 12 9 9 15 17
3790.0 11 12 15 16 14 8 7 10 13 12
3830.0 10 4 5 11 16
##END=
