##TITLE=p-Butoxyphenol
##JCAMP-DX=4.24
##DATA TYPE=INFRARED SPECTRUM
##ORIGIN=NIST Mass Spectrometry Data Center
##OWNER=NIST Standard Reference Data Program
Collection (C) 2018 copyright by the U.S. Secretary of Commerce
on behalf of the United States of America. All rights reserved.
##CAS REGISTRY NO=122-94-1
##MOLFORM=C 10 H 14 O 2
##$NIST SOURCE=MSDC-IR
##SPECTROMETER/DATA SYSTEM=HP-GC/MS/IRD
##STATE=gas
##XUNITS=1/CM
##YUNITS=ABSORBANCE
##XFACTOR=1.0
##YFACTOR=0.000030500
##DELTAX=4.0
##FIRSTX=550.0
##LASTX=3846.0
##FIRSTY=0.003203
##MAXX=3846
##MINX=550
##MAXY=0.305
##MINY=0
##NPOINTS=825
##XYDATA=(X++(Y..Y))
550.0 105 160 109 100 81 67 52 38 24 17
590.0 12 10 8 4 2 0 0 1 1 1
630.0 3 11 19 22 18 8 2 3 5 9
670.0 13 17 23 31 43 58 81 113 152 209
710.0 275 351 432 500 542 560 565 568 571 572
750.0 587 633 694 724 686 581 462 376 335 327
790.0 339 369 427 527 682 884 1113 1331 1476 1506
830.0 1422 1272 1084 883 692 524 395 309 259 242
870.0 245 253 254 240 215 185 160 146 139 131
910.0 120 109 102 99 104 114 129 149 177 212
950.0 260 310 363 419 476 523 549 541 511 481
990.0 471 496 559 671 820 974 1112 1218 1295 1331
1030.0 1317 1249 1141 1017 899 809 784 830 914 983
1070.0 1000 959 886 825 806 819 823 798 749 687
1110.0 633 590 556 525 500 490 503 548 627 756
1150.0 972 1353 2032 3079 4258 5179 5497 5086 4288 3465
1190.0 2870 2617 2615 2770 3075 3559 4213 4980 5803 6615
1230.0 7262 7470 6982 5847 4436 3174 2285 1722 1368 1159
1270.0 1040 976 949 939 924 897 864 841 836 843
1310.0 867 913 967 1003 992 918 790 636 489 377
1350.0 307 265 242 237 251 290 369 494 634 723
1390.0 720 626 497 396 346 345 382 457 577 735
1430.0 889 961 909 770 634 574 585 653 778 976
1470.0 1213 1388 1436 1393 1421 1763 2699 4579 7326 9644
1510.0 10000 8139 5157 2832 1712 1160 804 566 408 308
1550.0 249 213 193 180 169 161 155 152 156 165
1590.0 183 206 224 228 219 199 178 158 139 121
1630.0 107 95 85 76 69 65 60 55 51 49
1670.0 47 45 43 42 40 38 39 39 40 41
1710.0 46 51 57 59 59 56 50 44 37 30
1750.0 27 24 23 22 21 21 20 19 21 23
1790.0 26 29 30 32 34 39 43 48 55 63
1830.0 72 80 86 90 90 88 82 74 68 62
1870.0 59 57 54 50 45 40 34 30 28 26
1910.0 27 28 30 31 33 34 34 34 36 37
1950.0 38 39 42 46 50 54 58 62 64 67
1990.0 71 72 73 74 76 77 77 76 75 72
2030.0 69 67 65 66 65 64 63 63 62 60
2070.0 59 56 52 47 42 37 31 26 22 19
2110.0 16 14 11 8 6 4 2 3 3 2
2150.0 1 2 1 2 2 1 0 0 0 1
2190.0 0 0 1 0 0 1 1 2 3 4
2230.0 5 7 8 9 11 12 13 14 13 13
2270.0 13 12 10 10 10 11 11 13 15 17
2310.0 23 28 34 42 48 52 54 53 52 51
2350.0 51 49 45 40 37 37 36 34 36 37
2390.0 38 41 43 45 49 54 61 67 71 71
2430.0 67 62 55 51 47 48 49 50 52 53
2470.0 55 59 63 67 67 64 59 52 45 40
2510.0 33 30 29 27 24 23 21 20 19 17
2550.0 16 15 16 15 16 18 19 21 23 25
2590.0 26 25 26 26 24 21 20 19 18 19
2630.0 17 16 17 17 19 20 20 23 26 30
2670.0 32 33 34 36 37 38 38 39 41 43
2710.0 46 49 52 57 62 68 76 85 90 96
2750.0 98 100 100 99 98 96 92 90 88 90
2790.0 93 97 103 110 120 131 143 157 174 197
2830.0 224 258 301 355 423 503 594 693 812 954
2870.0 1112 1273 1428 1542 1575 1535 1455 1400 1400 1445
2910.0 1515 1595 1673 1753 1852 1990 2171 2372 2538 2619
2950.0 2620 2591 2605 2681 2747 2681 2409 1985 1527 1158
2990.0 900 721 609 549 526 533 556 583 601 605
3030.0 610 621 633 619 568 492 420 372 345 326
3070.0 307 289 272 251 227 204 184 169 158 151
3110.0 145 135 123 111 99 86 73 63 53 45
3150.0 40 37 33 30 27 24 23 23 21 20
3190.0 21 20 17 15 14 11 9 10 9 7
3230.0 6 7 6 5 3 1 2 2 1 0
3270.0 0 0 0 1 1 0 1 0 1 1
3310.0 0 0 0 0 3 5 3 2 3 5
3350.0 4 4 6 6 8 11 12 14 18 20
3390.0 21 23 25 26 25 26 27 29 30 30
3430.0 28 26 24 21 20 18 17 15 16 17
3470.0 16 15 15 15 13 12 12 11 10 9
3510.0 9 10 11 7 6 8 6 5 4 4
3550.0 6 4 5 6 6 7 7 8 9 10
3590.0 13 18 24 29 36 46 57 75 100 135
3630.0 192 283 429 657 993 1456 1883 1931 1607 1050
3670.0 535 294 188 121 81 58 44 33 27 23
3710.0 22 21 18 17 15 13 14 13 10 12
3750.0 14 12 12 14 16 17 16 16 17 19
3790.0 18 17 17 18 20 20 21 22 23 24
3830.0 26 28 29 31 32
##END=
