##TITLE=2,2-Dimethoxy-N-methyl-ethanamine
##JCAMP-DX=4.24
##DATA TYPE=INFRARED SPECTRUM
##ORIGIN=EPA-IR VAPOR PHASE LIBRARY
##OWNER=SRD/NIST
Collection (C) 2018 copyright by the U.S. Secretary of Commerce
on behalf of the United States of America. All rights reserved.
##CAS REGISTRY NO=122-07-6
##MOLFORM=C 5 H 13 N O 2
##$NIST SOURCE=MSDC-IR
##STATE=gas
##XUNITS=1/CM
##YUNITS=ABSORBANCE
##XFACTOR=1.
##YFACTOR=0.001
##DELTAX=1.92898
##FIRSTX=549.8
##LASTX=4000.7
##FIRSTY=3.448
##MAXX=4000.7
##MINX=549.759
##MAXY=0.079738
##MINY=0
##NPOINTS=1790
##XYDATA=(X++(Y..Y))
549.759 3.448 3.358 3.288 3.298 3.188 3.328 3.598 3.588 3.688 3.808
569.049 3.868 4.108 4.128 3.998 3.898 3.948 3.928 3.758 3.638 3.598
588.339 3.558 3.388 3.228 3.188 3.238 3.128 3.048 2.968 3.048 3.148
607.628 3.158 3.148 3.138 3.078 3.218 3.648 3.848 4.008 4.168 4.258
626.918 4.208 4.328 4.508 4.588 4.648 4.818 4.958 4.968 5.078 5.148
646.208 5.278 5.478 5.528 5.528 5.588 5.798 6.018 6.058 6.048 6.238
665.498 6.358 6.498 6.708 6.868 7.058 7.168 7.278 7.478 7.588 7.738
684.787 7.988 8.098 8.238 8.308 8.268 8.288 8.278 8.378 8.558 8.558
704.077 8.438 8.278 8.308 8.318 8.138 8.118 8.178 8.168 8.138 8.098
723.367 8.048 8.078 8.048 7.948 8.018 7.978 7.938 8.038 7.988 7.908
742.657 7.828 7.738 7.618 7.518 7.588 7.628 7.598 7.608 7.448 7.288
761.947 7.248 7.148 6.998 6.758 6.568 6.388 6.308 6.028 5.698 5.488
781.236 5.298 5.088 4.788 4.588 4.428 4.288 4.188 4.028 3.808 3.748
800.526 3.818 3.978 4.238 4.318 4.508 4.738 4.708 4.888 5.288 5.528
819.816 5.808 6.238 6.468 6.538 6.838 7.108 7.168 7.338 7.458 7.618
839.106 7.728 7.618 7.528 7.588 7.678 7.568 7.508 7.338 7.188 7.348
858.395 7.168 6.938 6.848 6.648 6.418 6.138 5.928 5.808 5.508 5.248
877.685 5.248 5.198 5.228 5.248 5.148 5.308 5.588 5.598 5.848 6.108
896.975 6.078 6.438 6.908 7.198 7.528 7.888 8.248 8.698 9.088 9.518
916.265 9.878 10.168 10.398 10.578 10.868 11.098 11.218 11.328 11.658 11.828
935.555 11.838 12.098 12.198 12.368 12.618 12.738 12.818 12.658 12.368 12.248
954.844 12.188 12.058 11.938 11.908 11.948 11.978 12.118 12.278 12.358 12.388
974.134 12.488 12.588 12.718 12.868 12.898 12.758 12.468 12.188 11.858 11.688
993.424 11.788 11.628 11.348 11.238 11.088 11.158 11.378 11.658 12.048 12.408
1012.714 12.728 13.038 13.438 13.908 14.218 14.638 15.558 16.408 16.828 17.418
1032.003 18.488 19.618 21.018 22.588 24.138 26.078 28.318 30.808 33.838 36.968
1051.293 39.968 43.178 46.518 50.058 53.618 57.138 60.488 63.778 66.898 69.708
1070.583 72.338 75.038 77.168 78.198 79.348 79.738 79.688 79.728 78.918 77.898
1089.873 76.318 74.468 72.698 70.738 68.938 67.498 66.208 65.228 64.948 65.168
1109.163 65.978 67.438 68.658 70.018 71.538 72.638 73.378 73.668 73.978 73.738
1128.452 72.638 71.078 69.118 67.138 65.028 62.698 60.178 57.798 55.298 52.518
1147.742 49.888 47.328 44.748 42.228 40.088 38.228 36.078 33.718 31.938 30.578
1167.032 29.488 28.788 28.198 27.698 27.298 27.048 26.998 27.008 27.228 27.408
1186.322 27.528 27.938 28.088 27.988 27.818 27.528 27.158 26.678 26.088 25.198
1205.611 24.208 23.278 22.228 21.168 20.138 18.938 17.808 17.038 16.078 14.898
1224.901 14.198 13.538 12.708 12.038 11.608 11.268 10.888 10.558 10.288 10.158
1244.191 9.928 9.658 9.678 9.688 9.488 9.418 9.308 9.098 9.008 8.748
1263.481 8.388 8.188 7.948 7.698 7.448 7.318 7.028 6.728 6.628 6.448
1282.771 6.338 6.228 6.068 5.958 5.808 5.798 5.968 6.048 6.188 6.338
1302.060 6.468 6.678 6.868 6.958 7.028 7.058 6.998 6.938 6.848 6.678
1321.350 6.408 6.068 5.798 5.518 5.228 5.048 4.958 4.958 4.978 5.058
1340.640 5.268 5.588 6.008 6.508 7.098 7.798 8.568 9.368 10.108 10.818
1359.930 11.458 11.948 12.418 12.828 13.128 13.308 13.358 13.208 12.848 12.378
1379.219 11.818 11.208 10.538 9.888 9.248 8.578 7.948 7.368 6.748 6.138
1398.509 5.648 5.238 4.908 4.628 4.388 4.218 4.168 4.208 4.318 4.508
1417.799 4.708 4.918 5.128 5.408 5.788 6.208 6.698 7.268 7.938 8.628
1437.089 9.408 10.218 11.078 11.988 12.878 13.668 14.428 15.128 15.658 16.038
1456.378 16.318 16.478 16.438 16.408 16.418 16.378 16.278 16.048 15.668 15.158
1475.668 14.548 13.838 13.148 12.418 11.598 10.758 9.798 8.828 7.898 7.028
1494.958 6.278 5.608 5.078 4.548 4.128 3.878 3.618 3.328 3.118 2.948
1514.248 2.848 2.778 2.628 2.528 2.468 2.368 2.278 2.228 2.238 2.218
1533.538 2.208 2.158 2.128 2.188 2.188 2.088 2.008 2.018 2.038 1.978
1552.827 1.928 1.938 1.968 2.008 1.958 1.938 1.878 1.798 1.768 1.738
1572.117 1.718 1.768 1.738 1.688 1.688 1.578 1.558 1.608 1.578 1.558
1591.407 1.518 1.468 1.428 1.448 1.448 1.428 1.368 1.328 1.388 1.418
1610.697 1.338 1.228 1.268 1.248 1.128 1.198 1.258 1.178 1.158 1.158
1629.986 1.158 1.158 1.118 1.118 1.1135 1.0858 1.066 1.1013 1.0978 1.0206
1649.276 1.0093 1.0599 1.0261 0.9917 1.0272 1 0.9062 0.9171 0.9319 0.8723
1668.566 0.8926 0.8722 0.8675 0.8583 0.7603 0.7343 0.7967 0.8035 0.8015 0.8662
1687.856 0.8522 0.7852 0.7895 0.8222 0.7802 0.7268 0.7518 0.7727 0.729 0.7312
1707.146 0.7638 0.7103 0.6622 0.6695 0.7115 0.7908 0.7984 0.719 0.6761 0.6512
1726.435 0.6181 0.6678 0.7077 0.6242 0.634 0.6387 0.6056 0.6633 0.6279 0.5816
1745.725 0.6098 0.6161 0.5721 0.6092 0.6324 0.6004 0.5902 0.6046 0.6567 0.6615
1765.015 0.6065 0.5818 0.5515 0.5239 0.5297 0.4979 0.526 0.5611 0.5581 0.5398
1784.305 0.5046 0.5233 0.5501 0.5656 0.5219 0.489 0.4799 0.4946 0.5252 0.5314
1803.594 0.5176 0.503 0.507 0.4672 0.4805 0.5442 0.5493 0.5202 0.5177 0.5064
1822.884 0.4525 0.4803 0.5004 0.4868 0.5406 0.5077 0.5271 0.59 0.589 0.5911
1842.174 0.594 0.5974 0.6002 0.581 0.5476 0.5136 0.5143 0.5428 0.536 0.5294
1861.464 0.5634 0.5697 0.5663 0.6029 0.6524 0.6406 0.6301 0.6558 0.6635 0.6738
1880.754 0.6911 0.7215 0.6874 0.6674 0.6758 0.701 0.7369 0.6789 0.6979 0.7721
1900.043 0.728 0.7572 0.7798 0.7478 0.7419 0.7329 0.7399 0.8012 0.862 0.8413
1919.333 0.8422 0.803 0.7775 0.7699 0.7882 0.7762 0.7395 0.7722 0.7931 0.7846
1938.623 0.7903 0.8161 0.7957 0.8322 0.8681 0.8881 0.8625 0.8617 0.9385 0.9498
1957.913 0.9187 0.9286 0.9729 0.9174 0.8619 0.9094 0.9578 0.9706 0.9785 0.9499
1977.202 0.955 0.9981 1.0057 1.0252 1.0214 1.0112 1.0265 1.0411 1.0992 1.1123
1996.492 1.0502 1.0243 1.025 1.037 1.0416 1.093 1.128 1.0503 1.0395 1.0467
2015.782 1.047 1.0557 1.076 1.118 1.138 1.128 1.128 1.148 1.138 1.138
2035.072 1.148 1.168 1.158 1.148 1.138 1.168 1.198 1.198 1.228 1.288
2054.362 1.278 1.198 1.208 1.278 1.288 1.288 1.268 1.248 1.298 1.348
2073.651 1.338 1.248 1.288 1.298 1.208 1.238 1.248 1.218 1.218 1.248
2092.941 1.268 1.268 1.258 1.258 1.238 1.238 1.208 1.218 1.188 1.128
2112.231 1.128 1.1167 1.148 1.128 1.0993 1.0886 1.1119 1.138 1.0904 1.005
2131.521 0.9634 0.9532 0.9753 0.9925 0.955 0.9519 0.9642 0.9852 0.9476 0.9056
2150.810 0.9176 0.9286 0.9601 0.9404 0.8834 0.8559 0.8101 0.7863 0.7908 0.7933
2170.100 0.787 0.7862 0.7947 0.7455 0.7093 0.6854 0.6379 0.6622 0.7193 0.7491
2189.390 0.691 0.6848 0.6736 0.5985 0.5868 0.5675 0.4829 0.4554 0.5927 0.6358
2208.680 0.5718 0.5406 0.548 0.547 0.5183 0.507 0.4991 0.4274 0.4065 0.4251
2227.970 0.436 0.4833 0.469 0.4876 0.4674 0.4614 0.5144 0.504 0.4931 0.5267
2247.259 0.5685 0.5554 0.5204 0.4618 0.4602 0.4669 0.4871 0.5184 0.4795 0.448
2266.549 0.4725 0.5168 0.5225 0.4663 0.4089 0.3865 0.4186 0.5007 0.486 0.4615
2285.839 0.4393 0.4062 0.3954 0.3911 0.3967 0.3623 0.4156 0.4344 0.4251 0.4963
2305.129 0.4968 0.4479 0.4795 0.4858 0.439 0.4713 0.4676 0.4341 0.4192 0.4012
2324.418 0.4471 0.4717 0.4416 0.4014 0.4448 0.4339 0.4031 0.4227 0.4913 0.5373
2343.708 0.4424 0.3954 0.41 0.4257 0.4554 0.5152 0.5248 0.514 0.4785 0.4757
2362.998 0.5106 0.4741 0.4034 0.4296 0.4418 0.4173 0.4907 0.516 0.4487 0.4561
2382.288 0.4221 0.4151 0.4462 0.4221 0.4598 0.4452 0.437 0.4644 0.4341 0.4136
2401.578 0.4478 0.4357 0.4146 0.4127 0.4259 0.4172 0.3187 0.3771 0.4416 0.4293
2420.867 0.4626 0.4721 0.456 0.4411 0.4624 0.398 0.3276 0.36 0.3815 0.3456
2440.157 0.3397 0.4055 0.3916 0.3265 0.3512 0.3617 0.3923 0.4668 0.468 0.4472
2459.447 0.4787 0.4383 0.366 0.3589 0.4156 0.4309 0.4332 0.4687 0.4756 0.4499
2478.737 0.4252 0.5015 0.4778 0.4439 0.4928 0.5088 0.5237 0.4424 0.4142 0.5037
2498.026 0.5382 0.5334 0.5336 0.4714 0.4955 0.5617 0.5292 0.5355 0.6056 0.62
2517.316 0.6163 0.6399 0.6608 0.6538 0.6463 0.6654 0.6544 0.7162 0.7699 0.746
2536.606 0.6968 0.701 0.6931 0.6542 0.6942 0.6943 0.6642 0.8058 0.8958 0.8267
2555.896 0.8387 0.8523 0.8608 0.8276 0.8275 0.8716 0.9155 0.9779 1.0231 1.0593
2575.186 1.0825 1.0843 1.0644 1.0947 1.168 1.168 1.148 1.218 1.268 1.288
2594.475 1.288 1.288 1.338 1.418 1.438 1.378 1.338 1.408 1.498 1.488
2613.765 1.468 1.478 1.528 1.588 1.618 1.628 1.598 1.608 1.618 1.608
2633.055 1.688 1.828 1.858 1.898 1.948 1.958 1.978 2.098 2.188 2.208
2652.345 2.308 2.388 2.428 2.508 2.588 2.568 2.548 2.528 2.568 2.628
2671.634 2.598 2.558 2.568 2.608 2.638 2.708 2.748 2.738 2.718 2.718
2690.924 2.688 2.638 2.728 2.768 2.748 2.768 2.708 2.768 2.838 2.778
2710.214 2.728 2.808 2.868 2.898 2.988 3.078 3.118 3.058 3.198 3.348
2729.504 3.368 3.408 3.518 3.708 3.778 3.938 4.118 4.208 4.388 4.548
2748.794 4.648 4.788 4.928 5.098 5.388 5.588 5.728 6.078 6.458 6.798
2768.083 7.178 7.648 8.218 9.008 9.818 10.628 11.608 12.678 13.878 15.308
2787.373 16.788 18.178 19.448 20.698 21.888 22.828 23.578 24.238 24.788 25.168
2806.663 25.458 25.608 25.808 26.048 26.478 27.188 27.958 29.078 30.498 32.208
2825.953 34.218 36.238 38.188 40.178 41.958 43.428 44.588 45.248 45.528 45.518
2845.242 45.088 44.348 43.298 41.858 40.348 38.918 37.428 36.088 34.848 33.588
2864.532 32.568 31.648 30.778 30.178 29.788 29.468 29.398 29.558 29.918 30.508
2883.822 31.148 31.958 32.858 33.818 34.978 36.318 37.738 39.038 40.258 41.468
2903.112 42.628 43.768 44.738 45.728 46.758 47.558 48.388 49.308 50.058 50.798
2922.401 51.438 52.178 52.928 53.528 54.388 55.268 56.028 56.708 57.338 57.848
2941.691 58.108 58.408 58.628 58.278 57.578 56.788 55.728 54.258 52.628 50.968
2960.981 49.198 47.268 45.328 43.578 41.928 40.198 38.498 36.878 35.338 34.118
2980.271 33.218 32.498 31.838 31.048 30.138 29.128 28.228 27.298 26.248 25.308
2999.561 24.208 22.928 21.648 20.388 19.018 17.588 16.258 14.958 13.768 12.728
3018.850 11.668 10.788 10.298 9.868 9.258 8.648 8.278 8.068 7.788 7.418
3038.140 7.238 7.188 7.028 6.798 6.578 6.378 6.248 6.128 6.038 5.898
3057.430 5.718 5.738 5.608 5.328 5.178 5.098 5.028 4.788 4.598 4.458
3076.720 4.298 4.258 4.168 4.048 3.948 3.808 3.658 3.578 3.458 3.268
3096.009 3.148 2.978 2.868 2.788 2.698 2.568 2.508 2.478 2.348 2.208
3115.299 2.138 2.098 1.918 1.868 1.838 1.678 1.648 1.678 1.598 1.538
3134.589 1.478 1.378 1.328 1.258 1.188 1.218 1.218 1.138 1.148 1.218
3153.879 1.178 1.0191 0.9626 0.9467 0.9167 0.9142 0.9114 0.8131 0.746 0.7121
3173.169 0.7752 0.7669 0.7199 0.9087 0.841 0.6568 0.5928 0.6222 0.7064 0.719
3192.458 0.6786 0.6699 0.6813 0.7479 0.6288 0.4463 0.581 0.6337 0.5967 0.5352
3211.748 0.4883 0.5701 0.5646 0.5196 0.5036 0.461 0.5886 0.6976 0.6704 0.7195
3231.038 0.6275 0.3506 0.2245 0.2398 0.3716 0.5298 0.5094 0.5546 0.59 0.4075
3250.328 0.3244 0.3706 0.3803 0.4219 0.4087 0.3068 0.271 0.2594 0.2651 0.2255
3269.617 0.121926 0.19343 0.21501 0.3421 0.444 0.3829 0.3731 0.3711 0.3749 0.2723
3288.907 0.21114 0.4054 0.5771 0.442 0.3642 0.3847 0.3394 0.4066 0.4013 0.3768
3308.197 0.4871 0.5155 0.4134 0.4908 0.4817 0.3516 0.3833 0.364 0.3042 0.2005
3327.487 0.19932 0.3009 0.3875 0.4036 0.3383 0.2547 0.19267 0.2541 0.3853 0.4756
3346.777 0.4756 0.3694 0.3338 0.385 0.4669 0.6907 0.7565 0.9005 1.0216 1.0822
3366.066 1.238 1.1002 1.1125 1.318 1.448 1.488 1.348 1.298 1.438 1.348
3385.356 1.128 0.9585 0.8854 0.8649 0.6984 0.7048 0.7837 0.7509 0.7402 0.7373
3404.646 0.7207 0.6205 0.4821 0.4264 0.4942 0.5091 0.5343 0.4768 0.3915 0.3155
3423.936 0.15361 0.17338 0.3026 0.2485 0.20349 0.2984 0.3629 0.2684 0.2403 0.3308
3443.225 0.2541 0.202 0.4242 0.4603 0.3678 0.3385 0.3445 0.4152 0.3262 0.15955
3462.515 0.0814 0.2827 0.4236 0.4093 0.3887 0.3066 0.2776 0.2597 0.2812 0.2549
3481.805 0.1814 0.06 0.18343 0.3185 0.16904 0.1034 0.15993 0.2634 0.2729 0.2781
3501.095 0.2136 0.2804 0.4061 0.3534 0.2334 0.1133 0.0876 0.13575 0.2953 0.3523
3520.385 0.2976 0.2288 0.3088 0.3503 0.3018 0.2367 0.0888 0.2196 0.2874 0.0679
3539.674 0 0.2831 0.4617 0.3656 0.3818 0.4098 0.2428 0.262 0.4109 0.3753
3558.964 0.4278 0.3901 0.32 0.358 0.393 0.3701 0.2791 0.3026 0.286 0.16531
3578.254 0.16613 0.13247 0.13594 0.2747 0.27 0.2776 0.18065 0.2405 0.4479 0.3506
3597.544 0.2256 0.1943 0.15046 0.19904 0.3202 0.2801 0.2428 0.2601 0.20084 0.13764
3616.833 0.17186 0.2791 0.343 0.4253 0.3454 0.19168 0.3592 0.4173 0.2877 0.2689
3636.123 0.19443 0.14625 0.2362 0.3151 0.3241 0.3161 0.3393 0.2474 0.20306 0.2638
3655.413 0.2513 0.3201 0.2867 0.0794 0.14629 0.3127 0.2618 0.3307 0.3426 0.2558
3674.703 0.4107 0.2947 0.018 0.15768 0.3266 0.2276 0.2989 0.441 0.3037 0.2475
3693.993 0.2993 0.2727 0.2442 0.20033 0.18553 0.2442 0.15112 0.0758 0.1308 0.3146
3713.282 0.3825 0.2858 0.2933 0.3325 0.318 0.3498 0.3466 0.10841 0.049 0.2196
3732.572 0.3825 0.4012 0.4631 0.4067 0.3229 0.389 0.4913 0.6321 0.534 0.5115
3751.862 0.6593 0.5461 0.2588 0.2939 0.3267 0.3975 0.4953 0.3464 0.3192 0.2951
3771.152 0.1682 0.0988 0.2513 0.2401 0.2207 0.3112 0.2793 0.3154 0.3189 0.3792
3790.441 0.438 0.405 0.3089 0.2853 0.4045 0.5091 0.4512 0.2184 0.2462 0.3954
3809.731 0.4843 0.5503 0.3485 0.2532 0.3253 0.3168 0.3318 0.18985 0.142 0.2256
3829.021 0.3053 0.3513 0.297 0.2945 0.3256 0.4429 0.4612 0.4117 0.3839 0.3201
3848.311 0.3576 0.3112 0.2328 0.4167 0.4773 0.4789 0.4857 0.4331 0.5296 0.4719
3867.601 0.3898 0.4351 0.4509 0.5072 0.357 0.3502 0.4922 0.4599 0.6383 0.572
3886.890 0.4223 0.4866 0.4113 0.4545 0.5764 0.8071 0.6989 0.5592 0.5397 0.5336
3906.180 0.732 0.7108 0.6956 0.8306 0.8263 0.6216 0.5228 0.7712 0.8032 0.6955
3925.470 0.7011 0.6028 0.5815 0.5782 0.7288 0.7005 0.626 0.6183 0.5966 0.5229
3944.760 0.6115 0.9669 0.916 0.7481 0.7292 0.6587 0.7468 0.8003 0.7727 0.708
3964.049 0.7092 0.85 0.8622 0.8481 0.9507 0.999 0.6312 0.5034 0.7023 0.9108
3983.339 0.9996 0.7018 0.6357 0.7549 0.6456 0.6938 0.6888 0.7046 0.9597 0.8551
##END=
