##TITLE=Phenylethanal
##JCAMP-DX=4.24
##DATA TYPE=INFRARED SPECTRUM
##ORIGIN=NIST Mass Spectrometry Data Center
##OWNER=NIST Standard Reference Data Program
Collection (C) 2018 copyright by the U.S. Secretary of Commerce
on behalf of the United States of America. All rights reserved.
##CAS REGISTRY NO=122-78-1
##MOLFORM=C 8 H 8 O
##$NIST SOURCE=MSDC-IR
##SPECTROMETER/DATA SYSTEM=HP-GC/MS/IRD
##STATE=gas
##XUNITS=1/CM
##YUNITS=ABSORBANCE
##XFACTOR=1.0
##YFACTOR=0.000001200
##DELTAX=4.0
##FIRSTX=550.0
##LASTX=3846.0
##FIRSTY=0.001202
##MAXX=3846
##MINX=550
##MAXY=0.012
##MINY=0
##NPOINTS=825
##XYDATA=(X++(Y..Y))
550.0 1002 518 57 115 224 264 222 183 92 85
590.0 165 189 269 237 259 203 100 157 200 160
630.0 217 221 143 250 312 327 393 427 442 531
670.0 787 1067 1343 1720 2062 2397 2843 3009 2801 2563
710.0 2272 1999 1771 1666 1625 1678 1788 1893 1956 1852
750.0 1607 1357 1103 897 683 497 430 375 294 288
790.0 299 315 297 215 231 226 195 222 240 211
830.0 151 156 179 180 211 227 206 213 225 227
870.0 239 245 245 257 270 287 287 306 339 352
910.0 389 414 391 413 469 468 449 401 391 397
950.0 356 326 313 313 309 322 383 417 413 444
990.0 465 463 509 591 708 837 988 1246 1540 1760
1030.0 1886 1905 1726 1467 1219 1050 876 729 719 732
1070.0 723 675 655 638 622 573 480 461 415 335
1110.0 322 343 364 313 292 342 315 320 365 364
1150.0 340 358 396 416 467 495 482 513 530 485
1190.0 480 433 384 351 301 307 325 335 334 316
1230.0 294 284 278 263 256 264 282 289 303 347
1270.0 347 352 374 379 376 377 411 452 447 438
1310.0 449 444 441 430 422 397 362 359 332 306
1350.0 292 302 342 359 370 384 416 460 491 494
1390.0 539 585 592 607 642 677 704 736 725 695
1430.0 666 649 674 692 703 715 708 682 616 572
1470.0 539 516 562 699 940 1205 1344 1332 1258 1084
1510.0 755 479 356 291 271 276 270 241 245 264
1550.0 250 253 254 272 296 329 365 427 510 579
1590.0 654 750 820 833 800 706 588 490 414 349
1630.0 314 308 330 345 343 342 355 362 369 414
1670.0 481 528 592 678 773 902 1034 1198 1412 1636
1710.0 1903 2258 2812 3674 4965 6725 8503 9627 10000 9856
1750.0 8753 6622 4611 3391 2728 2307 1951 1690 1475 1304
1790.0 1163 1031 916 786 662 559 491 429 392 372
1830.0 345 323 321 325 321 321 348 380 378 382
1870.0 391 382 360 343 310 252 233 237 231 210
1910.0 208 207 214 233 251 259 259 268 281 297
1950.0 296 279 266 247 224 195 169 158 150 143
1990.0 142 149 140 148 152 136 141 150 154 150
2030.0 163 166 142 135 162 172 140 114 125 132
2070.0 124 106 96 113 122 98 76 74 67 87
2110.0 118 118 89 107 117 94 90 84 102 111
2150.0 89 90 103 109 128 117 92 106 124 123
2190.0 111 113 111 101 106 115 103 105 127 133
2230.0 116 85 69 85 108 114 122 118 118 122
2270.0 127 132 100 85 113 124 116 109 142 167
2310.0 146 145 147 147 155 146 119 110 122 144
2350.0 150 129 115 114 116 123 117 110 92 83
2390.0 82 86 112 105 75 79 94 103 126 128
2430.0 97 114 110 94 108 102 91 78 113 124
2470.0 91 103 89 66 88 104 96 84 97 112
2510.0 103 106 121 131 140 153 161 146 130 109
2550.0 116 152 145 160 159 110 111 159 174 176
2590.0 180 176 190 183 185 188 192 225 225 244
2630.0 276 262 285 322 340 400 460 488 521 585
2670.0 633 685 769 843 905 1005 1117 1248 1418 1576
2710.0 1737 1817 1796 1742 1641 1522 1385 1265 1149 1078
2750.0 1077 1050 1039 1053 1081 1074 1076 1113 1141 1201
2790.0 1291 1398 1549 1669 1781 1835 1797 1698 1540 1384
2830.0 1255 1112 986 883 819 749 685 696 671 607
2870.0 583 554 544 586 598 594 647 724 808 894
2910.0 968 1018 1014 959 882 794 699 646 637 599
2950.0 551 520 461 429 412 376 337 286 280 319
2990.0 332 355 393 449 541 626 761 1001 1269 1509
3030.0 1755 1943 1987 1924 1736 1489 1352 1366 1525 1772
3070.0 1921 1948 1917 1788 1557 1319 1136 1015 899 748
3110.0 639 537 423 320 241 205 217 194 140 127
3150.0 129 120 113 95 115 129 119 107 81 81
3190.0 100 92 83 65 61 106 114 113 119 113
3230.0 79 86 92 68 81 90 101 126 122 110
3270.0 119 100 62 81 98 89 65 46 46 60
3310.0 81 76 80 61 43 62 48 46 45 0
3350.0 25 57 64 92 90 66 70 59 47 86
3390.0 130 135 133 113 94 77 101 130 128 129
3430.0 132 129 128 159 191 194 235 299 339 316
3470.0 269 256 213 177 169 166 151 141 167 190
3510.0 194 163 149 115 97 82 74 120 152 147
3550.0 109 112 101 100 118 93 106 133 109 90
3590.0 79 73 71 93 128 111 68 102 98 54
3630.0 65 71 77 55 48 61 72 99 97 112
3670.0 99 87 97 87 77 79 93 78 57 28
3710.0 27 45 39 58 45 32 34 41 91 109
3750.0 86 26 56 108 66 48 74 89 106 109
3790.0 88 54 52 36 8 38 72 95 77 73
3830.0 97 77 84 108 64
##END=
