##TITLE=Di(hydroxyethyl)piperazine
##JCAMP-DX=4.24
##DATA TYPE=INFRARED SPECTRUM
##ORIGIN=EPA-IR VAPOR PHASE LIBRARY
##OWNER=SRD/NIST
Collection (C) 2018 copyright by the U.S. Secretary of Commerce
on behalf of the United States of America. All rights reserved.
##CAS REGISTRY NO=122-96-3
##MOLFORM=C 8 H 18 N 2 O 2
##$NIST SOURCE=MSDC-IR
##STATE=gas
##XUNITS=1/CM
##YUNITS=ABSORBANCE
##XFACTOR=1.
##YFACTOR=0.001
##DELTAX=3.85796
##FIRSTX=501.5
##LASTX=4000.7
##FIRSTY=2.2495
##MAXX=4000.7
##MINX=501.534
##MAXY=0.0482395
##MINY=0
##NPOINTS=908
##XYDATA=(X++(Y..Y))
501.534 2.2495 1.8295 1.7595 1.8995 1.9695 2.0895 1.9395 1.9795 2.1095 1.9195
540.114 1.7895 1.8095 1.6895 1.6195 1.6195 1.4995 1.3795 1.1795 1.0495 1.0895
578.693 1.0495 0.9709 0.9954 1.0114 0.9363 0.9457 0.988 0.908 0.8817 0.9191
617.273 0.9583 1.0495 1.0995 1.0088 0.9866 0.9488 0.7925 0.7286 0.7328 0.7875
655.852 0.7414 0.7521 0.7615 0.6998 0.6331 0.6306 0.7245 0.7061 0.6534 0.6436
694.432 0.6439 0.6493 0.7517 0.8515 0.8458 0.8718 0.9105 0.9152 0.9495 1.0595
733.011 1.1595 1.2695 1.4595 1.6395 1.8495 2.1595 2.5795 2.9895 3.3595 3.7295
771.591 3.9795 3.9995 3.7495 3.3795 3.0795 2.7495 2.3795 2.1895 2.1195 2.0395
810.170 2.0195 1.9295 1.8695 1.8395 1.7895 1.7895 1.7595 1.8195 1.9295 2.0495
848.750 2.2695 2.5795 2.9495 3.4995 4.1195 4.6695 5.1495 5.3795 5.2195 4.7195
887.330 4.0395 3.4095 2.9795 2.6995 2.5395 2.4895 2.5195 2.7195 3.0995 3.6295
925.909 4.2895 5.0495 5.8295 6.4495 6.6195 6.3395 5.9495 5.6095 5.4095 5.2495
964.489 5.0895 4.9695 4.8995 4.9295 5.1795 5.5995 6.2195 7.2195 8.8095 11.3195
1003.068 15.3195 20.7195 25.6095 27.6695 26.3395 22.6795 18.9095 16.7595 16.1095 16.1295
1041.648 16.5195 17.2095 18.2695 19.6595 21.3595 23.3095 24.8295 25.2595 24.2595 21.9595
1080.227 18.7495 15.2695 12.4295 10.3695 8.8695 8.0095 7.6895 7.5895 7.6695 7.8995
1118.807 8.2395 8.9395 9.9395 11.2695 13.1295 15.5295 18.4395 21.6695 24.3895 25.3395
1157.387 23.9795 20.9395 17.2895 14.0795 11.6295 10.0095 8.9695 8.1295 7.7195 7.5595
1195.966 7.5595 7.7195 7.7895 7.8495 7.8695 7.7395 7.4695 7.0895 6.7295 6.2795
1234.546 5.7795 5.3695 4.9895 4.7395 4.6995 4.7995 5.0895 5.4795 5.9795 6.6795
1273.125 7.5795 8.4495 9.3595 10.3495 11.3995 12.4395 13.1595 13.3695 13.0795 12.4795
1311.705 11.7595 11.1495 10.7795 10.6795 10.7395 10.9195 11.2495 11.8195 12.6695 13.6995
1350.284 14.6595 15.1195 14.9495 14.2495 13.1695 11.9195 10.6895 9.7195 9.0795 8.9095
1388.864 9.1995 9.7695 10.3895 10.7295 10.5095 9.6695 8.4095 7.0895 6.0095 5.3095
1427.443 4.9995 5.0695 5.5295 6.2795 7.1395 7.9595 8.6395 9.1895 9.4795 9.3295
1466.023 8.5995 7.4695 6.2295 5.0495 3.9795 3.0495 2.2995 1.7895 1.4795 1.2595
1504.603 1.1195 0.9842 0.8887 0.811 0.7187 0.6745 0.6429 0.602 0.5669 0.5452
1543.182 0.5263 0.475 0.4287 0.4288 0.437 0.3759 0.352 0.3515 0.3415 0.2988
1581.762 0.2721 0.2741 0.2559 0.2417 0.2419 0.2455 0.2199 0.1875 0.1609 0.1494
1620.341 0.1426 0.1459 0.156 0.1626 0.173 0.1532 0.1418 0.1631 0.1707 0.155
1658.921 0.12625 0.1379 0.1447 0.1464 0.1651 0.1592 0.1656 0.1997 0.2121 0.2143
1697.500 0.2302 0.2248 0.2164 0.2025 0.1702 0.1526 0.1723 0.1801 0.136 0.1463
1736.080 0.148 0.12664 0.1437 0.11689 0.05713 0.030286 0.02587 0 0.008 0.05773
1774.659 0.09348 0.11508 0.10436 0.09809 0.101 0.10099 0.09089 0.0818 0.09252 0.1012
1813.239 0.08486 0.04911 0.05408 0.07515 0.07375 0.05559 0.0679 0.09451 0.10129 0.1068
1851.819 0.09114 0.08323 0.12791 0.1491 0.1637 0.205 0.2306 0.2408 0.232 0.2402
1890.398 0.2666 0.2881 0.3243 0.359 0.3778 0.3855 0.3996 0.4063 0.3891 0.3829
1928.978 0.3751 0.366 0.3563 0.3222 0.294 0.2797 0.254 0.2363 0.2165 0.1805
1967.557 0.1617 0.1569 0.1419 0.1305 0.1448 0.1602 0.146 0.1615 0.1674 0.1353
2006.137 0.11237 0.11465 0.10939 0.11205 0.1345 0.12795 0.1376 0.1599 0.1795 0.2078
2044.716 0.2361 0.2628 0.2868 0.2977 0.3145 0.329 0.3279 0.3431 0.3551 0.3215
2083.296 0.2905 0.2875 0.2828 0.2484 0.2265 0.2444 0.2669 0.266 0.243 0.2461
2121.875 0.263 0.2774 0.2726 0.2594 0.2378 0.2041 0.1832 0.166 0.1661 0.1727
2160.455 0.146 0.12465 0.1438 0.163 0.1498 0.1436 0.1384 0.1332 0.1405 0.1441
2199.035 0.1503 0.152 0.1532 0.1444 0.1329 0.1514 0.1514 0.1392 0.1416 0.1579
2237.614 0.1817 0.1852 0.1939 0.1986 0.2216 0.2536 0.274 0.2798 0.2787 0.279
2276.194 0.2718 0.2732 0.2616 0.2351 0.2265 0.236 0.2295 0.223 0.2415 0.2604
2314.773 0.2758 0.2607 0.257 0.2517 0.2525 0.2785 0.2858 0.2751 0.2351 0.2214
2353.353 0.2567 0.2637 0.2531 0.2723 0.2749 0.2544 0.2265 0.233 0.259 0.2458
2391.932 0.244 0.2627 0.2699 0.2704 0.2863 0.2692 0.2467 0.2538 0.2256 0.2158
2430.512 0.2349 0.2475 0.25 0.2608 0.2671 0.306 0.3552 0.3427 0.3242 0.3261
2469.092 0.3424 0.3516 0.3569 0.3722 0.3737 0.3996 0.4285 0.4092 0.3811 0.3652
2507.671 0.3528 0.3821 0.4079 0.4173 0.4603 0.4853 0.4623 0.4739 0.5452 0.5783
2546.251 0.5741 0.5907 0.6155 0.6301 0.5975 0.5831 0.6109 0.6246 0.6157 0.5951
2584.830 0.5892 0.6014 0.6368 0.6458 0.6606 0.704 0.7326 0.7914 0.8691 0.9169
2623.410 0.9955 1.1195 1.2395 1.3795 1.5295 1.6795 1.8795 2.0595 2.2495 2.4795
2661.989 2.7595 3.0495 3.2995 3.5495 3.7995 4.0395 4.2495 4.4395 4.6195 4.7495
2700.569 4.8695 4.9395 4.9695 4.9895 5.0395 5.1395 5.3295 5.6395 5.9995 6.4795
2739.148 7.0595 7.6695 8.4095 9.1895 10.0095 10.8595 11.6995 12.4595 13.0995 13.6795
2777.728 14.3695 15.3295 16.7195 18.7895 21.7095 25.5795 30.3895 35.9595 41.5795 46.0695
2816.308 48.2395 47.3895 43.7495 38.1395 31.7295 25.6895 20.8195 17.2595 14.8795 13.4795
2854.887 12.8495 12.9895 13.8695 15.2895 17.1995 19.3895 21.3795 22.6895 23.0995 22.6295
2893.467 21.5895 20.4395 19.5595 19.1895 19.3095 19.8895 20.9995 22.6195 24.7095 27.3995
2932.046 30.7495 34.8395 39.5395 44.0195 46.6195 46.0195 41.9095 35.2995 28.2595 21.9095
2970.626 16.7495 12.7795 9.6795 7.3495 5.6795 4.5195 3.6695 3.0195 2.4495 2.0295
3009.205 1.8195 1.6495 1.4395 1.2395 1.0695 0.9931 0.9377 0.8583 0.7689 0.7329
3047.785 0.6845 0.5732 0.5733 0.5912 0.5742 0.5391 0.5116 0.5453 0.466 0.3589
3086.364 0.3984 0.4199 0.341 0.2891 0.2727 0.2675 0.2766 0.229 0.1773 0.178
3124.944 0.2302 0.3174 0.3716 0.3096 0.2472 0.2094 0.1926 0.2612 0.2682 0.2419
3163.524 0.257 0.2808 0.2894 0.2741 0.2956 0.276 0.2441 0.2485 0.2277 0.1963
3202.103 0.2277 0.2651 0.2553 0.2553 0.2652 0.2372 0.1635 0.2396 0.2758 0.2022
3240.683 0.1842 0.1888 0.1892 0.1576 0.182 0.2274 0.2337 0.234 0.1842 0.1883
3279.262 0.2623 0.3194 0.2824 0.2589 0.2683 0.2196 0.2623 0.3204 0.3207 0.3047
3317.842 0.2915 0.3169 0.3327 0.4025 0.4476 0.4041 0.4368 0.4299 0.4607 0.5032
3356.421 0.4725 0.4819 0.5396 0.5801 0.5763 0.6232 0.6511 0.6547 0.718 0.7831
3395.001 0.7955 0.7853 0.8494 0.94 0.9613 0.9565 0.9785 1.0295 1.0395 1.0295
3433.580 1.0261 1.0495 1.1295 1.1895 1.2495 1.4095 1.5595 1.6295 1.6795 1.7195
3472.160 1.7795 1.7795 1.7395 1.7195 1.7595 1.8095 1.8595 1.8295 1.7795 1.7695
3510.740 1.7595 1.7895 1.8295 2.0195 2.4095 2.8695 3.4695 4.3195 5.2095 5.7995
3549.319 5.9295 5.5895 5.0895 4.6095 4.1495 3.7695 3.4795 3.2695 3.0995 3.0095
3587.899 2.8995 2.7195 2.4995 2.2895 2.0495 1.8695 1.7095 1.5495 1.4295 1.3495
3626.478 1.3295 1.3395 1.3795 1.4195 1.5395 1.7095 1.9095 2.3195 2.8295 3.2995
3665.058 3.6095 3.6295 3.4395 3.1095 2.5995 2.0595 1.5995 1.2295 0.9792 0.8692
3703.637 0.7466 0.6054 0.5613 0.5151 0.5142 0.4708 0.4436 0.4364 0.3817 0.3631
3742.217 0.3819 0.3994 0.3386 0.2499 0.1826 0.2131 0.2879 0.2882 0.2773 0.2275
3780.797 0.1689 0.2099 0.2929 0.2682 0.1704 0.1919 0.252 0.2541 0.2173 0.219
3819.376 0.2519 0.2502 0.207 0.2165 0.3073 0.3678 0.2894 0.2476 0.3177 0.3189
3857.956 0.3163 0.2954 0.3055 0.3062 0.2959 0.34 0.3539 0.3559 0.381 0.3312
3896.535 0.3041 0.3129 0.3082 0.3227 0.2975 0.2117 0.2117 0.3408 0.4204 0.3679
3935.115 0.3106 0.3416 0.3241 0.2879 0.3087 0.321 0.3011 0.3054 0.299 0.2228
3973.694 0.212 0.1856 0.2048 0.3279 0.2695 0.2672 0.3562 0.2578
##END=
