##TITLE=2-Fluoro-4-(trifluoromethyl)acetophenone
##JCAMP-DX=4.24
##DATA TYPE=INFRARED SPECTRUM
##ORIGIN=EPA-IR VAPOR PHASE LIBRARY
##OWNER=SRD/NIST
Collection (C) 2018 copyright by the U.S. Secretary of Commerce
on behalf of the United States of America. All rights reserved.
##CAS REGISTRY NO=122023-29-4
##MOLFORM=C 9 H 6 F 4 O
##$NIST SOURCE=MSDC-IR
##STATE=gas
##XUNITS=1/CM
##YUNITS=ABSORBANCE
##XFACTOR=1.
##YFACTOR=0.001
##DELTAX=1.92898
##FIRSTX=549.8
##LASTX=4000.7
##FIRSTY=9.08
##MAXX=4000.7
##MINX=549.759
##MAXY=0.2844
##MINY=0
##NPOINTS=1790
##XYDATA=(X++(Y..Y))
549.759 9.08 7.31 6.82 6.01 5.07 4.85 4.82 4.72 5.62 6.18
569.049 5.33 4.96 4.48 4.76 4.87 4.63 3.82 3.36 3.81 3.65
588.339 3.39 3.66 3.62 3.49 3.49 3.68 4.63 4.69 4.68 4.96
607.628 5.29 5.25 4.83 4.83 3.76 2.59 2.37 1.5237 0.856 1.3526
626.918 2.039 2.28 1.929 1.7093 1.9297 2.12 2.12 1.9148 1.815 2.1
646.208 2.64 2.63 3.2 4.34 5.35 6.18 6.65 6.98 8.09 9.54
665.498 9.82 10.2 10.11 9.11 8.13 7.23 6.66 5.78 5 4.97
684.787 4.79 4.89 5.77 6.78 8.27 9.83 11.26 12.79 13.62 13.83
704.077 13.3 11.71 9.56 6.94 4.91 3.88 3.34 3.07 2.74 2.51
723.367 2.47 2.95 3.39 3.67 4.1 4.72 5.41 7.51 11.38 15.84
742.657 19.42 20.96 21.15 20.93 19.83 15.47 10.35 6.8 4.34 3.52
761.947 3.35 2.86 2.13 1.9295 1.6473 1.2231 1.2453 1.4556 1.5833 1.5999
781.236 1.724 1.7121 1.8101 1.8926 2.16 1.8753 1.402 1.9129 2.16 2.34
800.526 2.36 2.18 2.32 2.53 2.82 3.83 4.64 4.99 6 7.22
819.816 8.19 9.71 11.77 14.17 16.37 17.42 18.55 20.12 21.01 20.76
839.106 19.53 17.84 15.76 13.56 11.58 9.63 8.14 6.34 5.19 4.95
858.395 4.98 4.88 4.82 6.3 8.18 9.76 12.18 14.73 17.33 20.08
877.685 22.79 25.87 29.14 29.43 26.45 24.93 24.27 23.4 23.37 23.94
896.975 24.98 27.43 32.28 38.34 44.96 51.57 55.65 57.25 55.78 51.2
916.265 44.72 36.21 27.18 19.98 14.84 11.66 9.89 8.56 7.89 7.24
935.555 6.94 6.7 6.33 6.56 6.64 6.75 7.75 9.12 10.05 11.52
954.844 13.46 15.28 17.27 18.9 20.33 21.15 20.28 18.73 17.27 15.4
974.134 13.21 11.36 9.89 8.17 6.68 6.38 6.39 5.81 5.51 5.44
993.424 5.2 4.93 4.94 4.92 5.11 5.31 4.95 4.93 4.81 4.6
1012.714 5 5.17 4.76 4 3.8 4.6 4.85 4.3 4.33 4.91
1032.003 4.76 4.2 4.8 5.01 4.26 5.24 6.72 7.77 7.94 8.11
1051.293 9.77 11.79 13.16 13.93 14.23 14.52 16.04 18.65 21.79 25.75
1070.583 31.53 38.82 46.69 53.67 58.5 61.69 62.58 60.53 55.69 47.99
1089.873 40.1 33.2 27.88 24.31 19.98 16.76 14.9 13.84 13.94 14.65
1109.163 15.9 16.99 17.69 19.11 21.18 24.41 29.94 34.3 39.04 45.71
1128.452 53.96 63.77 73.77 83.46 95.46 109.18 121.78 133.65 145.47 159.43
1147.742 174.13 188.18 202.2 213.05 218.5 215.22 204.23 187.95 170.13 156.17
1167.032 146.48 143.94 150.21 163.34 180.12 193.6 197.74 191.7 176.32 157.6
1186.322 140.16 123.52 107.02 91.22 79.96 76.63 77.86 79.34 80.99 81.85
1205.611 81.51 79.41 76.98 73.88 69.12 66.86 66.36 70.15 74.62 77.89
1224.901 79.79 79.33 77.32 72.06 65.34 57.94 50.24 42.33 36.14 31.11
1244.191 27.43 24.46 21.19 19.25 18.07 17.48 18.21 20.46 23.39 27.3
1263.481 32.04 37.48 42.53 45.36 46.34 45.52 42.57 38.01 32.15 26.32
1282.771 22.64 21.05 21.16 21.89 23.53 26.09 29.37 32.98 36.31 39.51
1302.060 42.11 44.48 46.96 49.57 53.05 58.69 67.52 81.01 100.07 125.75
1321.350 158.35 195.58 232.61 262.97 281.33 284.4 271.71 243.3 201.6 154.98
1340.640 112.71 80.77 59.17 45.18 36.51 30.99 27.44 25.62 25 25.29
1359.930 26.11 27.07 27.97 28.31 27.93 27 25.67 24.1 22.12 20.34
1379.219 19.3 19.01 19.29 19.94 20.9 22.39 24.09 25.67 27.77 30.58
1398.509 33.92 38.23 43.46 49.94 57.57 66.43 76.3 86.26 95.65 104.03
1417.799 110.33 114.5 115.74 113.26 107.12 98.94 89.23 78.52 67.72 57.91
1437.089 49.07 42.31 36.81 32.24 28.65 25.61 22.68 20.11 17.96 16.05
1456.378 14.31 12.54 11.29 10.37 9.69 9.07 8.46 8.48 8.64 8.9
1475.668 9.4 9.97 10.88 11.82 13.05 15 17.31 19.87 23.07 26.01
1494.958 28.41 29.87 30.17 29.33 27.19 24.5 20.84 16.9 13.74 11.26
1514.248 9.48 8.22 7.18 6.55 6.12 5.77 5.53 5.28 4.91 4.55
1533.538 4.54 4.6 4.41 4.4 4.68 4.59 4.75 5.19 5.39 5.6
1552.827 5.87 6.14 6.8 7.75 8.42 9.1 9.93 10.96 12.34 13.58
1572.117 14.25 15.17 15.79 15.62 15.51 14.7 13.28 12 10.75 9.56
1591.407 8.55 7.87 7.04 6.31 5.81 5.59 5.82 6.01 6.07 6.61
1610.697 7.3 7.75 8.8 10.24 11.37 12.08 12.65 13.08 12.98 12.62
1629.986 11.77 10.64 9.8 8.94 8.04 7.49 6.87 6.31 6.42 6.4
1649.276 6.13 6.15 6.39 6.5 6.64 6.81 7.01 7.3 7.74 8.07
1668.566 8.4 9.01 9.61 10.16 10.81 11.44 12.36 13.59 14.8 16.15
1687.856 18.01 20.37 23.02 26.43 31.21 37.02 44.5 54.66 65.12 76.07
1707.146 84.62 89.85 92.92 95.01 94.21 87.96 77.22 66.64 56.76 48.03
1726.435 40.64 34.12 28.48 24.59 21.58 19.42 18.18 17.05 16.14 15.47
1745.725 14.71 14.05 13.4 12.38 11.45 10.91 10.36 9.49 8.62 7.98
1765.015 7.39 6.65 6.08 5.71 5.23 4.78 4.39 4.14 3.94 3.83
1784.305 3.82 3.62 3.52 3.49 3.46 3.46 3.39 3.38 3.39 3.26
1803.594 3.14 2.93 2.73 2.62 2.56 2.49 2.36 2.33 2.24 2.21
1822.884 2.29 2.27 2.24 2.21 2.2 2.15 1.9574 1.866 1.987 2.2
1842.174 2.22 1.9476 1.8404 1.9908 2.0283 2.0011 1.8893 1.7888 1.7497 1.5862
1861.464 1.4804 1.401 1.3215 1.3798 1.4745 1.5426 1.5778 1.5971 1.6192 1.5739
1880.754 1.7625 2.0182 2.0482 1.8755 1.7474 1.6804 1.7712 1.891 1.9383 2.0429
1900.043 2.0185 1.9851 1.9346 2.0238 2.19 2.28 2.29 2.18 2.25 2.48
1919.333 2.46 2.24 2.23 2.35 2.42 2.47 2.36 2.35 2.42 2.38
1938.623 2.0746 1.8218 1.8431 1.8305 1.7099 1.6865 1.6239 1.4984 1.4939 1.5038
1957.913 1.4997 1.4636 1.3696 1.3169 1.422 1.4417 1.3797 1.4608 1.5589 1.4666
1977.202 1.3847 1.4416 1.409 1.3675 1.3302 1.2632 1.17366 1.09944 1.10254 0.9901
1996.492 1.0192 1.07562 1.0132 1.0402 1.1906 1.1956 1.2225 1.10372 0.829 0.952
2015.782 1.13107 1.0406 1.0401 1.11226 1.10656 1.2276 1.062 0.9968 1.0228 0.9803
2035.072 1.11475 1.287 1.3323 1.2537 1.16028 1.09932 1.14078 1.247 1.3291 1.301
2054.362 1.4064 1.4056 1.3976 1.412 1.393 1.4113 1.4388 1.5851 1.669 1.7351
2073.651 1.8657 1.8228 1.706 1.5882 1.4655 1.426 1.349 1.3081 1.17489 1.16881
2092.941 1.4411 1.3839 1.225 1.456 1.4772 1.367 1.3444 1.3993 1.506 1.5924
2112.231 1.6721 1.5377 1.4683 1.5405 1.4691 1.3123 1.238 1.12835 1.1973 1.1996
2131.521 1.07148 1.1184 1.09247 0.965 0.929 0.943 0.916 0.898 0.874 0.9
2150.810 0.85 0.864 0.967 0.898 0.836 0.857 0.83 1.0253 1.11967 0.958
2170.100 0.9814 0.967 0.9923 1.2364 1.2837 1.13373 1.1668 1.09891 0.924 0.94
2189.390 0.959 1.0277 1.052 0.849 0.883 0.95 0.937 1.0085 1.0303 1.16956
2208.680 1.10051 0.912 1.0023 1.14645 1.2229 1.1995 1.17216 1.1921 1.3519 1.4361
2227.970 1.3923 1.4709 1.4498 1.3136 1.4294 1.4186 1.4373 1.6833 1.5348 1.32
2247.259 1.16581 1.10918 1.3986 1.3247 1.2098 1.48 1.5782 1.3934 1.2479 1.4807
2266.549 1.4112 1.2326 1.4683 1.4126 1.292 1.5112 1.7017 1.5616 1.3912 1.5458
2285.839 1.5245 1.5939 1.6365 1.6936 1.8967 1.7981 1.867 1.9919 1.9284 2.0241
2305.129 2.0796 1.8138 1.6402 1.6742 1.6614 1.6397 1.6879 1.7562 1.7468 1.7326
2324.418 1.9778 2.075 1.9431 1.9404 2.15 2.23 2.19 1.996 1.8221 1.9116
2343.708 1.7219 1.6441 1.6614 1.7114 1.7072 1.6659 1.8082 1.5876 1.4119 1.3975
2362.998 1.3643 1.2705 1.12071 0.934 0.967 1.2658 1.488 1.5857 1.4681 1.261
2382.288 1.3845 1.5091 1.314 1.2124 1.2219 1.2866 1.1586 1.14546 1.3025 1.2484
2401.578 1.17431 1.4107 1.4803 1.3245 1.2853 1.2582 1.1339 1.16155 1.3489 1.236
2420.867 0.93 0.932 0.825 0.69 0.754 0.848 1.0067 0.9833 1.0064 0.9944
2440.157 1.0491 1.12837 0.959 1.0226 1.11637 0.918 0.853 0.803 0.926 1.0193
2459.447 1.0142 1.13449 0.9932 1.0575 1.241 1.4042 1.4622 1.2181 1.07586 0.964
2478.737 0.94 0.962 1.07572 1.3203 1.3875 1.308 1.3203 1.14752 1.0666 1.2941
2498.026 1.4932 1.52 1.2371 1.13315 1.17821 0.9857 1.002 1.0543 0.882 1.11239
2517.316 1.3 1.15877 0.909 1.07523 1.193 1.0685 1.3161 1.3188 1.08105 1.0291
2536.606 0.9913 0.918 1.0104 1.09455 0.9838 0.968 1.08711 0.876 0.839 0.933
2555.896 0.787 0.847 0.977 1.0631 0.937 0.824 0.823 0.607 0.513 0.668
2575.186 0.567 0.509 0.682 0.678 0.709 0.796 1.0387 1.0267 0.754 0.782
2594.475 1.0049 1.07698 1.15337 1.1888 1.0647 1.09826 1.09785 0.866 0.524 0.771
2613.765 0.824 0.57 0.825 0.762 0.565 0.67 0.723 0.843 0.907 1.0061
2633.055 1.17935 1.15835 1.2447 1.16176 1.0268 1.0624 0.782 0.526 0.664 0.853
2652.345 1.1026 1.2174 1.10673 1.15168 1.17436 1.09821 1.15387 1.2257 1.0357 0.885
2671.634 0.916 1.0206 1.2364 1.10703 1.0649 1.1955 1.2457 1.15083 1.0225 1.0278
2690.924 1.0001 0.947 0.979 1.0343 0.787 0.84 1.07236 1.0353 0.972 1.0216
2710.214 0.915 0.706 0.815 1.0012 0.964 0.801 0.667 0.819 0.848 0.756
2729.504 0.697 0.719 0.914 0.892 0.782 0.891 0.9981 1.0443 1.0587 0.87
2748.794 0.658 0.668 0.789 0.928 1.07867 0.74 0.533 0.651 0.461 0.247
2768.083 0.336 0.546 0.53 0.487 0.692 0.975 0.831 0.671 0.778 0.772
2787.373 0.693 0.761 0.694 0.672 0.896 0.952 1.16917 1.2125 0.96 0.811
2806.663 1.0027 0.723 0.445 0.914 0.901 0.783 0.9985 0.773 0.803 1.0552
2825.953 0.736 0.761 0.922 0.795 0.611 0.657 1.0141 1.0246 0.911 1.15498
2845.242 1.07139 0.961 1.14645 1.14962 0.958 0.541 0.651 0.954 1.2355 1.3381
2864.532 1.08649 1.2682 1.249 0.796 0.57 0.796 1.10566 1.0289 1.067 1.2232
2883.822 1.0151 0.725 1.0068 1.09258 0.834 0.886 1.2204 1.3481 1.3128 1.4621
2903.112 1.5153 1.4803 1.18 1.16005 1.3956 1.2133 1.0578 1.2515 1.6012 1.6673
2922.401 1.6959 1.7356 1.4498 1.4879 1.3713 1.4911 1.9487 1.951 1.9075 1.9743
2941.691 2.17 2.51 2.59 2.35 2.16 2.29 2.51 2.37 2.15 2.0019
2960.981 2.0788 2.3 2.1 1.8935 2.0447 2.3 2.36 2.56 2.6 2.36
2980.271 2.16 2.1 2.39 2.56 2.72 3.1 3.33 3.15 2.9 2.77
2999.561 2.73 2.53 2.84 3.46 3.6 3.9 4.01 4.2 4.38 4.25
3018.850 4.68 4.58 4.02 3.79 3.52 3.27 2.69 2.31 2.56 2.24
3038.140 2.0474 2.0381 1.7071 1.717 2.039 2.47 2.3 2.17 2.39 2.32
3057.430 2.34 2.53 2.63 2.6 2.52 2.39 2.34 2.25 2.0553 2.12
3076.720 2.32 2.19 1.9776 2.24 2.33 2.3 2.38 2.42 2.82 2.75
3096.009 2.73 2.84 2.56 2.39 2.13 2.26 2.0235 1.5285 1.3846 1.4872
3115.299 1.5194 1.3725 1.1006 1.2034 1.4469 1.2097 1.5091 1.12311 0.767 1.3684
3134.589 1.1905 1.09529 1.5497 1.493 1.3091 1.07593 0.831 1.0541 1.17727 0.894
3153.879 0.636 0.744 1.09546 1.09994 0.463 0.07 0.608 0.896 1.0366 1.2012
3173.169 0.799 0.762 0.663 0.448 0.644 0.61 0.856 1.14966 0.85 0.624
3192.458 0.778 1.15685 0.9896 0.642 0.906 1.005 0.9917 0.824 0.531 0.509
3211.748 0.434 0.353 0.371 0.241 0.142 0.331 0.693 1.12917 1.0117 0.745
3231.038 0.601 0.531 0.85 0.902 0.915 0.9849 1.1058 1.2282 1.2373 0.917
3250.328 0.792 1.10827 0.798 0.9912 1.186 0.798 0.857 1.2509 1.11122 0.85
3269.617 0.833 0.655 0.768 0.686 0.578 0.9986 1.3812 0.957 0.722 1.12518
3288.907 1.2334 1.188 1.2513 1.2749 0.948 1.07637 1.2613 1.10887 1.1933 1.2035
3308.197 1.12542 0.76 0.628 0.933 0.986 0.884 1.0661 1.17183 0.804 0.808
3327.487 1.15376 0.816 0.79 1.12681 1.0417 1.0153 1.11575 0.904 0.806 0.86
3346.777 0.956 1.08337 1.0429 0.978 0.77 0.424 0.28 0.894 1.3719 1.1817
3366.066 1.3448 1.12946 0.813 1.0556 1.3645 1.5693 1.4776 1.5579 1.4422 1.3425
3385.356 1.1827 1.3961 1.425 1.3921 1.9951 2.38 2.55 2.66 2.71 2.39
3404.646 2.24 2.4 2.1 2.007 2.0029 2.0074 1.7656 1.374 1.5464 1.8775
3423.936 2.15 1.7863 1.3334 1.6113 1.4607 1.436 1.6078 1.0596 0.963 0.828
3443.225 1.0897 1.4797 1.2024 0.731 0.852 1.261 1.15357 1.0452 0.956 0.84
3462.515 1.143 1.2982 0.921 1.0287 0.979 0.687 0.9957 1.3203 1.4536 1.4754
3481.805 1.2674 1.21 1.08306 0.729 1.08072 1.16025 0.82 0.61 0.606 0.9815
3501.095 1.1826 1.13329 0.987 0.919 0.956 0.88 0.589 0.481 0.352 0.528
3520.385 0.9945 1.12942 0.961 1.11475 1.3655 0.889 0.478 0.606 1.12342 1.3093
3539.674 1.07342 1.0495 0.712 0.674 0.777 0.669 0.743 0.691 0.702 0.84
3558.964 0.749 0.779 0.906 0.806 0.85 0.642 0.567 0.63 0.609 0.701
3578.254 0.922 0.9908 0.607 0.42 0.18 0.01 0.149 0 0.213 0.836
3597.544 0.835 0.602 0.69 0.832 0.908 0.912 0.722 0.482 0.746 1.0281
3616.833 1.1991 1.15576 0.709 0.43 0.745 0.948 0.774 0.904 0.967 1.14967
3636.123 1.2437 0.977 0.754 0.881 1.0325 0.701 0.502 0.754 0.802 0.738
3655.413 0.666 0.823 1.0537 0.719 0.503 0.55 0.544 0.822 0.801 0.863
3674.703 1.0211 0.728 0.519 0.595 0.847 0.697 0.469 0.726 0.883 0.592
3693.993 0.712 0.669 0.639 0.944 0.776 0.71 0.723 0.569 0.966 1.11768
3713.282 0.933 1.08555 0.831 0.675 0.735 0.74 0.865 0.95 0.9871 1.16734
3732.572 1.0146 0.759 0.842 0.857 1.11215 0.9 0.692 0.835 0.9828 1.3961
3751.862 1.1418 0.924 1.09276 0.772 0.729 0.868 1.0008 0.961 0.604 0.567
3771.152 0.403 0.423 0.532 0.227 0.227 0.693 0.765 0.816 0.918 0.592
3790.441 0.593 0.856 0.675 0.64 0.615 0.349 0.509 0.813 0.829 0.607
3809.731 0.761 0.959 0.608 0.65 0.697 0.562 0.991 1.2298 0.892 0.489
3829.021 0.413 0.919 1.2628 1.09943 0.787 0.915 0.899 0.702 0.907 0.9836
3848.311 0.772 1.0564 1.3816 0.798 0.413 0.478 0.6 0.899 1.16794 0.804
3867.601 0.347 0.207 0.119 0.126 0.629 0.72 0.43 0.516 0.671 0.519
3886.890 0.16 0.76 1.11298 0.928 1.2347 1.1909 1.3038 1.2494 0.684 0.14
3906.180 0.284 0.472 0.56 0.9865 1.0409 1.0194 1.07437 0.943 0.832 0.691
3925.470 0.343 0.734 0.885 0.605 0.645 0.745 1.0456 1.2225 1.2366 0.674
3944.760 0.541 1.0672 1.3443 1.1564 0.82 0.509 0.534 0.968 0.851 0.726
3964.049 0.859 0.742 0.655 0.506 0.408 0.619 0.733 0.702 0.855 0.696
3983.339 0.584 0.831 0.469 0.6 0.86 0.9816 1.08871 1.0027 1.07968 1.0657
##END=
