##TITLE=1-Methyl-3-trifluoromethyl-2-pyrazolin-5-one
##JCAMP-DX=4.24
##DATA TYPE=INFRARED SPECTRUM
##ORIGIN=EPA-IR VAPOR PHASE LIBRARY
##OWNER=SRD/NIST
Collection (C) 2018 copyright by the U.S. Secretary of Commerce
on behalf of the United States of America. All rights reserved.
##CAS REGISTRY NO=122431-37-2
##MOLFORM=C 5 H 5 F 3 N 2 O
##$NIST SOURCE=MSDC-IR
##STATE=gas
##XUNITS=1/CM
##YUNITS=ABSORBANCE
##XFACTOR=1.
##YFACTOR=0.001
##DELTAX=1.92898
##FIRSTX=549.8
##LASTX=4000.7
##FIRSTY=1.914
##MAXX=4000.7
##MINX=549.759
##MAXY=0.231774
##MINY=0
##NPOINTS=1790
##XYDATA=(X++(Y..Y))
549.759 1.914 1.984 2.304 2.694 2.154 1.834 1.944 2.284 2.324 2.304
569.049 2.334 2.204 2.344 2.444 2.604 2.654 2.824 3.074 3.214 3.414
588.339 3.764 4.004 4.514 5.034 5.094 5.824 6.444 6.474 6.634 6.674
607.628 6.734 6.754 6.584 6.154 5.464 4.774 4.684 4.664 4.444 4.794
626.918 5.024 5.294 5.644 5.844 6.214 6.634 6.934 7.374 7.984 8.474
646.208 9.204 10.674 12.734 14.974 17.794 20.144 20.394 20.264 19.984 18.524
665.498 17.524 15.654 12.304 9.084 6.704 5.084 3.994 3.444 3.084 2.854
684.787 2.774 2.854 3.044 3.294 3.544 3.624 3.854 4.444 5.214 5.914
704.077 6.944 8.764 10.994 13.584 15.864 17.784 20.144 22.324 23.124 22.354
723.367 21.394 19.964 17.384 16.154 15.144 12.774 10.344 8.364 7.074 6.574
742.657 6.344 6.504 7.174 7.964 8.674 9.164 10.074 10.704 10.774 10.624
761.947 10.624 10.804 10.414 10.164 9.954 9.574 9.364 9.254 8.674 7.794
781.236 7.284 6.894 6.374 5.854 5.484 4.914 4.594 4.264 3.834 3.484
800.526 3.064 2.754 2.574 2.404 2.444 2.314 2.054 1.804 1.784 1.884
819.816 1.844 2.214 2.064 1.854 2.124 2.214 2.194 2.154 2.054 1.974
839.106 2.124 2.374 2.014 1.844 2.224 2.364 2.304 2.364 2.764 2.974
858.395 2.944 3.204 3.634 3.944 4.554 5.054 5.174 5.634 6.444 7.374
877.685 8.064 8.844 9.894 10.914 12.014 12.904 13.264 13.144 12.814 12.524
896.975 12.104 11.104 9.844 8.644 7.314 6.164 5.584 5.054 4.504 4.304
916.265 4.434 4.824 5.214 5.544 5.684 5.774 6.244 6.644 6.754 6.874
935.555 7.044 7.334 7.514 7.794 8.164 8.594 9.374 10.444 11.994 14.194
954.844 17.654 22.624 29.274 37.434 46.914 56.474 63.894 68.394 70.574 71.034
974.134 69.194 65.174 58.334 48.364 36.854 26.314 18.464 13.284 10.164 8.194
993.424 7.064 6.324 5.854 5.494 5.054 5.174 5.444 5.574 5.994 6.214
1012.714 6.294 7.034 7.604 7.854 8.334 8.334 8.424 8.804 8.954 8.734
1032.003 8.274 8.014 7.404 6.914 6.784 6.334 5.944 5.744 5.784 5.614
1051.293 5.354 5.414 5.754 5.554 5.354 6.004 6.224 6.664 7.154 7.574
1070.583 8.584 9.474 10.554 11.954 13.704 16.474 19.514 23.104 27.984 33.834
1089.873 39.824 45.674 50.634 53.944 56.264 56.844 56.034 55.244 52.814 47.804
1109.163 43.414 41.694 42.434 45.014 49.914 56.834 64.954 74.464 84.754 95.824
1128.452 107.424 119.444 132.124 145.574 159.714 173.374 185.784 198.324 210.664 220.594
1147.742 227.184 231.134 231.774 227.214 218.754 208.414 196.724 184.924 173.984 164.234
1167.032 157.134 153.534 153.334 155.314 158.954 164.194 169.034 172.644 175.114 177.664
1186.322 179.924 181.244 181.924 182.024 180.564 175.914 168.384 159.904 152.404 145.404
1205.611 138.084 131.414 126.324 123.624 123.344 125.774 130.984 137.924 146.004 154.394
1224.901 162.464 167.854 169.524 167.394 161.494 152.904 141.784 129.044 114.904 98.984
1244.191 82.924 68.284 56.674 48.504 42.314 37.544 33.824 30.664 28.344 26.014
1263.481 23.964 22.184 20.514 19.324 18.494 17.804 17.004 16.434 16.374 16.504
1282.771 16.744 17.184 17.434 17.694 17.904 18.034 18.314 18.294 18.084 18.094
1302.060 18.104 18.254 18.504 18.964 19.804 20.784 21.904 23.284 24.914 26.624
1321.350 28.404 30.364 32.244 33.904 35.434 36.734 37.504 37.764 37.544 36.844
1340.640 35.644 34.054 32.224 30.194 28.014 25.844 23.824 22.114 20.754 19.624
1359.930 18.824 18.374 18.234 18.474 18.984 19.654 20.504 21.504 22.684 24.004
1379.219 25.364 26.864 28.404 29.844 31.324 32.824 34.344 35.764 37.134 38.554
1398.509 39.874 41.314 42.984 44.674 46.394 47.884 48.894 49.394 49.194 48.544
1417.799 47.554 45.944 43.664 40.574 36.864 33.244 30.284 27.984 25.914 24.024
1437.089 22.244 20.614 19.064 17.674 16.544 15.544 14.644 14.024 13.624 13.364
1456.378 13.324 13.564 14.064 14.734 15.754 17.084 18.754 20.974 23.954 27.894
1475.668 32.734 38.494 45.124 52.374 59.824 66.714 72.334 76.394 78.324 77.764
1494.958 74.964 70.164 63.384 55.194 46.634 38.654 32.084 27.604 24.914 23.264
1514.248 22.234 21.484 20.664 19.704 18.804 18.284 18.054 17.844 17.754 17.904
1533.538 18.184 18.484 18.964 19.704 20.584 21.664 23.064 24.754 26.704 29.014
1552.827 31.804 35.124 38.534 41.744 44.524 46.334 47.064 46.854 45.654 43.594
1572.117 40.824 37.414 33.614 29.694 26.314 23.904 22.214 21.174 20.674 20.394
1591.407 20.104 19.954 19.844 19.484 18.864 17.974 16.814 15.284 13.374 11.474
1610.697 9.794 8.174 6.864 5.894 5.134 4.534 4.114 3.684 3.304 3.164
1629.986 3.014 2.804 2.624 2.514 2.394 2.294 2.284 2.264 2.174 2.214
1649.276 2.184 2.164 2.254 2.244 2.264 2.324 2.394 2.434 2.484 2.644
1668.566 2.774 2.904 3.004 3.034 3.044 2.994 2.924 2.954 3.004 3.014
1687.856 3.004 3.074 3.184 3.314 3.484 3.564 3.694 3.954 4.274 4.674
1707.146 5.174 5.684 6.124 6.644 7.274 7.864 8.584 9.354 9.974 10.674
1726.435 11.584 12.724 14.234 16.214 18.814 22.194 26.674 32.744 40.794 51.534
1745.725 65.314 82.174 101.514 121.794 140.474 155.504 165.874 171.184 171.714 167.354
1765.015 157.264 141.014 119.434 95.734 73.884 57.064 45.124 36.714 30.444 25.404
1784.305 21.324 17.934 15.124 12.724 10.594 8.834 7.474 6.394 5.614 4.964
1803.594 4.434 4.074 3.694 3.484 3.324 3.134 3.074 2.984 2.824 2.794
1822.884 2.914 2.944 2.904 2.874 2.914 3.024 3.094 3.094 3.154 3.194
1842.174 3.174 3.194 3.134 2.994 2.884 2.824 2.754 2.684 2.604 2.504
1861.464 2.374 2.274 2.184 2.034 1.934 1.934 1.854 1.774 1.694 1.644
1880.754 1.694 1.624 1.524 1.564 1.584 1.534 1.594 1.634 1.694 1.644
1900.043 1.504 1.504 1.514 1.574 1.534 1.454 1.464 1.404 1.404 1.404
1919.333 1.374 1.434 1.484 1.544 1.594 1.614 1.554 1.464 1.484 1.494
1938.623 1.534 1.544 1.534 1.484 1.434 1.404 1.374 1.414 1.424 1.434
1957.913 1.504 1.454 1.283 1.2256 1.2751 1.3094 1.2708 1.2094 1.2367 1.2339
1977.202 1.1688 1.1991 1.2016 1.1054 1.1488 1.1685 1.1429 1.1652 1.1553 1.1451
1996.492 1.0612 0.9785 0.8508 0.7895 0.8532 0.8541 0.8801 0.8896 0.9026 0.8934
2015.782 0.8689 0.913 0.9307 0.946 1.0044 1.0807 1.1116 1.1678 1.1838 1.0762
2035.072 1.085 1.1115 1.083 1.0593 1.033 0.998 0.9291 0.9166 0.8623 0.8191
2054.362 0.7686 0.763 0.7696 0.7604 0.7911 0.752 0.7562 0.7502 0.7683 0.8318
2073.651 0.8263 0.7757 0.8342 0.84 0.8023 0.8848 0.8926 0.8781 0.9272 0.9942
2092.941 0.979 0.948 0.9322 0.9377 0.9582 1.035 1.1069 1.0602 1.0955 1.1675
2112.231 1.2784 1.3078 1.2692 1.3338 1.3123 1.2655 1.2649 1.2362 1.1671 1.124
2131.521 1.1634 1.1152 1.0557 1.0654 1.0508 1.0399 1.0706 1.1021 1.1356 1.1319
2150.810 1.1373 1.1542 1.0754 1.0503 1.0195 0.9687 0.9669 0.9941 1.0045 1.0417
2170.100 1.0776 1.0224 1.0168 1.045 1.0763 1.0913 1.0917 1.1196 1.1694 1.1968
2189.390 1.2556 1.344 1.464 1.544 1.534 1.544 1.624 1.644 1.674 1.764
2208.680 1.734 1.724 1.754 1.784 1.744 1.714 1.764 1.714 1.664 1.614
2227.970 1.584 1.554 1.474 1.394 1.354 1.3354 1.2766 1.2165 1.2325 1.2251
2247.259 1.2061 1.2386 1.2342 1.229 1.1986 1.2263 1.29 1.2877 1.3083 1.354
2266.549 1.424 1.474 1.474 1.474 1.474 1.534 1.594 1.644 1.674 1.644
2285.839 1.654 1.664 1.694 1.824 1.874 1.834 1.744 1.754 1.784 1.724
2305.129 1.654 1.594 1.614 1.634 1.604 1.604 1.594 1.564 1.614 1.644
2324.418 1.624 1.624 1.544 1.484 1.494 1.514 1.524 1.544 1.574 1.524
2343.708 1.474 1.514 1.524 1.584 1.614 1.504 1.504 1.584 1.584 1.694
2362.998 1.744 1.614 1.594 1.664 1.534 1.464 1.534 1.524 1.554 1.544
2382.288 1.434 1.444 1.454 1.464 1.564 1.574 1.604 1.654 1.564 1.534
2401.578 1.534 1.424 1.434 1.444 1.464 1.474 1.394 1.354 1.286 1.308
2420.867 1.2705 1.189 1.2416 1.2448 1.0969 1.024 1.0787 1.0862 1.0494 1.0744
2440.157 1.0738 1.0384 1.1098 1.0895 1.1159 1.074 0.9615 0.9899 1.0266 1.1111
2459.447 1.0145 0.9109 0.9842 0.8928 0.9329 1.0507 1.0629 1.0782 0.9803 0.9401
2478.737 1.0031 1.0305 1.0223 0.9951 1.0044 0.9436 0.8709 0.9503 1.0829 1.0592
2498.026 0.9825 1.0056 0.9826 0.946 1.0144 1.1218 1.0513 0.9554 0.9523 0.9816
2517.316 1.0297 1.0127 1.0608 1.1209 1.0734 0.9711 1.0102 1.0779 1.0956 1.1973
2536.606 1.171 1.2269 1.2969 1.2157 1.1552 1.14 1.1012 1.0788 1.0656 1.0148
2555.896 1.001 1.0586 1.1017 1.0801 1.0245 1.0595 1.1247 1.1658 1.1919 1.2073
2575.186 1.1411 1.0687 1.049 0.9921 1.0254 1.0626 1.0324 0.9818 0.9515 0.978
2594.475 0.9138 0.7861 0.9113 0.9117 0.7578 0.7524 0.755 0.7668 0.8277 0.8631
2613.765 0.849 0.7938 0.8 0.8808 0.8653 0.8561 0.9214 1.0165 1.0059 0.9205
2633.055 0.8889 0.8294 0.8425 0.9076 0.8495 0.9052 1.0026 1.0252 1.0735 1.0384
2652.345 1.0241 1.1253 1.057 1.037 1.1083 0.9989 0.9783 1.0819 1.1237 1.1108
2671.634 1.0568 0.9895 0.9879 0.9466 1.0095 1.1534 1.2045 1.1143 1.0025 1.0149
2690.924 1.0027 0.9276 0.9397 0.9941 1.0169 1.0489 1.0277 1.0753 1.0575 0.9064
2710.214 0.8902 0.944 0.8605 0.7818 0.8224 0.8956 0.9937 0.999 0.8794 0.9071
2729.504 0.9474 0.8279 0.7751 0.8685 1.0145 0.9981 0.918 0.9254 0.9218 0.9382
2748.794 0.935 0.881 0.7952 0.8071 0.9166 0.9593 0.8832 0.8529 0.8907 0.9739
2768.083 0.971 0.9617 1.0671 1.0912 1.0485 0.9395 0.978 1.1356 1.1849 1.344
2787.373 1.454 1.404 1.484 1.554 1.594 1.634 1.654 1.614 1.684 1.754
2806.663 1.814 2.034 2.154 2.154 2.274 2.364 2.294 2.224 2.164 2.084
2825.953 2.124 2.264 2.194 2.124 2.014 1.904 1.944 1.894 1.874 1.904
2845.242 1.834 1.904 2.024 1.944 1.834 1.814 1.834 1.954 1.934 1.764
2864.532 1.804 1.904 1.984 2.104 2.144 2.204 2.444 2.734 2.894 3.194
2883.822 3.404 3.704 4.334 4.724 4.934 5.204 5.414 5.564 5.684 5.744
2903.112 5.814 5.834 5.964 5.954 5.784 5.714 5.764 5.864 5.834 5.824
2922.401 5.884 6.054 6.324 6.524 6.704 7.064 7.554 8.184 8.964 9.664
2941.691 10.484 11.514 12.434 13.304 14.314 15.244 15.984 16.364 16.664 16.784
2960.981 16.484 16.034 15.224 14.214 13.264 12.334 11.364 10.384 9.394 8.614
2980.271 8.004 7.534 7.154 6.734 6.374 6.084 5.734 5.334 4.994 4.654
2999.561 4.464 4.204 3.894 3.584 3.304 3.164 2.984 2.784 2.584 2.394
3018.850 2.344 2.234 2.074 2.114 2.174 2.024 1.894 1.814 1.734 1.934
3038.140 1.814 1.504 1.704 1.774 1.634 1.664 1.774 1.924 2.004 2.064
3057.430 2.044 2.074 2.114 2.044 2.094 2.114 1.974 1.854 1.864 1.914
3076.720 1.954 1.944 1.784 1.564 1.524 1.494 1.454 1.484 1.464 1.494
3096.009 1.494 1.3075 1.038 1.1364 1.2929 1.2666 1.291 1.2273 1.1198 1.0871
3115.299 1.0529 1.1317 1.07 0.9674 1.1517 1.2266 1.166 1.1892 1.1438 1.0074
3134.589 0.932 1.0154 1.1245 1.0822 1.0046 1.0882 1.2551 1.2491 1.1415 1.1976
3153.879 1.2421 1.1391 1.3018 1.2939 1.1284 0.9538 0.6096 0.5119 0.639 0.6334
3173.169 0.642 0.7105 0.658 0.5498 0.489 0.6296 0.6256 0.6477 0.6132 0.4989
3192.458 0.5604 0.5356 0.33836 0.226 0.43685 0.451 0.3001 0.352464 0.3297 0.242
3211.748 0.3093 0.44183 0.6138 0.42615 0.049 0.11 0.3082 0.2827 0.288 0.3008
3231.038 0.36817 0.38906 0.39415 0.5908 0.445 0.4163 0.5261 0.42041 0.3308 0.3195
3250.328 0.44097 0.4714 0.5277 0.36054 0.233 0.3994 0.44108 0.36991 0.42618 0.4608
3269.617 0.242 0.2586 0.306 0.207 0.162 0.2841 0.35981 0.28 0.2754 0.33594
3288.907 0.4526 0.488 0.5821 0.581 0.41151 0.3063 0.2552 0.36263 0.5143 0.5792
3308.197 0.4365 0.3308 0.328 0.37252 0.4789 0.5763 0.5545 0.40472 0.41268 0.44156
3327.487 0.42818 0.3367 0.2508 0.3322 0.5419 0.4777 0.40116 0.4575 0.4582 0.4471
3346.777 0.344546 0.4604 0.717 0.6211 0.39119 0.4576 0.5664 0.5272 0.2998 0.36243
3366.066 0.6205 0.6926 0.5334 0.5866 0.5748 0.3122 0.4948 0.4471 0.2659 0.37353
3385.356 0.4565 0.535 0.6041 0.5572 0.6954 0.7282 0.4756 0.4421 0.5056 0.537
3404.646 0.5803 0.5774 0.5212 0.5091 0.4431 0.6158 0.684 0.5207 0.6414 0.6643
3423.936 0.6778 0.6262 0.5987 0.7474 0.8629 0.8732 0.9033 0.8316 0.7938 0.788
3443.225 0.7049 0.9823 1.0687 1.1026 1.0988 1.053 1.0761 1.0467 1.2326 1.434
3462.515 1.614 1.434 1.2381 1.454 1.524 1.624 1.734 1.814 1.874 1.904
3481.805 2.004 2.074 2.154 2.364 2.704 2.644 2.614 3.014 3.204 3.134
3501.095 3.074 2.934 3.034 3.084 2.764 2.564 2.454 2.254 2.004 1.794
3520.385 1.634 1.454 1.354 1.3025 1.0788 0.9898 1.1017 0.989 0.9629 0.9563
3539.674 0.8635 0.8891 0.8189 0.6765 0.6579 0.7283 0.8166 0.823 0.682 0.5959
3558.964 0.5992 0.7252 0.853 0.6877 0.6609 0.7977 0.7304 0.7268 0.7329 0.8335
3578.254 0.8869 0.6375 0.5123 0.71 0.847 0.8028 0.8502 0.8655 0.8296 0.8169
3597.544 0.8997 1.0897 1.2575 1.1753 1.2513 1.634 1.844 1.814 1.704 1.774
3616.833 1.994 2.424 3.004 3.534 4.114 4.984 5.764 6.454 7.094 7.704
3636.123 8.354 8.574 8.874 9.484 10.174 10.894 11.724 12.814 13.984 15.274
3655.413 16.774 18.154 19.534 21.114 22.314 22.634 22.344 21.424 20.184 19.294
3674.703 18.344 16.964 14.784 12.164 9.804 7.874 6.414 5.104 3.944 3.154
3693.993 2.664 2.274 1.874 1.504 1.424 1.0849 0.686 0.8499 1.0275 0.9088
3713.282 0.7818 0.7604 0.6882 0.6675 0.6618 0.6993 0.7186 0.6493 0.5803 0.4835
3732.572 0.7213 0.8686 0.8941 1.0068 0.8574 0.7676 0.7861 0.7048 0.7138 0.6488
3751.862 0.6643 0.8674 0.8733 0.7551 0.6972 0.8717 0.9947 0.8811 0.87 0.771
3771.152 0.6712 0.7376 0.8428 1.0162 0.9396 0.8646 0.8452 0.7637 0.8006 0.9644
3790.441 0.9986 0.8996 0.846 0.7108 0.6172 0.6862 0.855 0.9235 0.9268 0.902
3809.731 0.9099 1.0794 1.0227 0.8126 0.7215 0.7266 0.9247 1.0482 1.2001 1.1758
3829.021 0.9842 0.9088 0.8713 1.0565 1.2279 1.1357 0.9881 0.8327 0.7211 0.6942
3848.311 0.7167 0.8212 0.885 0.8086 0.635 0.7949 0.9924 1.0566 0.9349 0.8007
3867.601 0.7514 0.6116 0.5157 0.7208 0.8979 0.8197 0.7228 0.7545 0.7947 0.5955
3886.890 0.4815 0.4959 0.6909 0.793 0.6459 0.6664 0.7095 0.6512 0.5571 0.523
3906.180 0.43689 0.36822 0.6232 0.6646 0.4967 0.4601 0.472 0.43119 0.5544 0.7016
3925.470 0.4978 0.5124 0.5474 0.346662 0.4627 0.5492 0.4949 0.42561 0.352557 0.5363
3944.760 0.4705 0.2462 0.34071 0.41911 0.40039 0.594 0.4944 0.168 0.213 0.3176
3964.049 0.3131 0.213 0.246 0.33687 0.2624 0 0.174 0.5949 0.5082 0.4646
3983.339 0.5729 0.3073 0.149 0.203 0.121 0.167 0.3242 0.4601 0.4758 0.5323
##END=
