##TITLE=Anisil
##JCAMP-DX=4.24
##DATA TYPE=INFRARED SPECTRUM
##ORIGIN=EPA-IR VAPOR PHASE LIBRARY
##OWNER=SRD/NIST
Collection (C) 2018 copyright by the U.S. Secretary of Commerce
on behalf of the United States of America. All rights reserved.
##CAS REGISTRY NO=1226-42-2
##MOLFORM=C 16 H 14 O 4
##$NIST SOURCE=MSDC-IR
##STATE=gas
##XUNITS=1/CM
##YUNITS=ABSORBANCE
##XFACTOR=1.
##YFACTOR=0.001
##DELTAX=1.92934
##FIRSTX=549.9
##LASTX=3999.5
##FIRSTY=2.979
##MAXX=3999.53
##MINX=549.863
##MAXY=0.121069
##MINY=0
##NPOINTS=1789
##XYDATA=(X++(Y..Y))
549.863 2.979 2.869 2.779 2.769 2.729 2.659 2.759 2.759 2.769 2.919
569.156 2.939 3.009 3.009 3.089 3.399 3.709 4.059 4.509 5.329 6.449
588.450 8.009 10.199 12.799 15.719 18.669 21.039 22.219 21.819 19.959 16.989
607.743 13.579 10.499 7.979 6.209 5.049 4.379 4.039 3.669 3.389 3.209
627.037 3.139 3.229 3.369 3.649 4.049 4.419 4.589 4.449 4.049 3.569
646.330 3.139 2.709 2.429 2.319 2.209 2.089 2.049 2.159 2.159 2.069
665.624 2.049 2.069 2.159 2.269 2.449 2.619 2.689 2.729 2.939 3.229
684.917 3.429 3.729 4.119 4.469 4.709 4.789 4.709 4.449 4.029 3.599
704.210 3.279 2.999 2.819 2.629 2.489 2.439 2.319 2.269 2.299 2.409
723.504 2.539 2.679 2.809 3.009 3.309 3.629 4.029 4.439 4.969 5.669
742.797 6.589 7.759 8.959 9.989 10.569 10.529 9.999 9.179 8.209 7.309
762.091 6.549 5.869 5.319 4.829 4.339 3.919 3.649 3.579 3.559 3.669
781.384 4.059 4.699 5.399 5.979 6.379 6.459 6.149 5.609 5.059 4.679
800.678 4.449 4.369 4.399 4.359 4.299 4.299 4.319 4.339 4.359 4.449
819.971 4.539 4.709 4.999 5.349 5.829 6.559 7.629 9.159 11.149 13.269
839.264 14.959 15.739 15.399 14.189 12.449 10.559 8.989 7.939 7.359 7.049
858.558 6.899 7.029 7.609 8.589 9.749 11.029 12.349 13.859 15.959 18.829
877.851 22.049 24.699 25.749 24.009 19.809 15.279 11.919 9.879 8.609 7.649
897.145 6.769 5.769 4.849 4.069 3.449 3.019 2.649 2.419 2.229 2.019
916.438 1.8578 1.7514 1.6716 1.606 1.5195 1.4371 1.3863 1.3908 1.4455 1.4572
935.732 1.4197 1.4133 1.4898 1.5855 1.6339 1.6208 1.6133 1.5831 1.5594 1.5538
955.025 1.4815 1.4617 1.4501 1.4405 1.471 1.555 1.6039 1.6125 1.6187 1.6441
974.318 1.6961 1.7307 1.7836 1.8315 1.8387 1.8224 1.8921 1.949 2.009 2.099
993.612 2.209 2.349 2.469 2.659 2.859 3.079 3.329 3.619 4.019 4.469
1012.905 4.999 5.639 6.389 7.289 8.359 9.639 11.079 12.619 14.329 15.999
1032.199 17.409 18.449 18.799 18.349 17.139 15.289 13.219 11.269 9.649 8.409
1051.492 7.399 6.559 5.919 5.379 4.839 4.379 3.949 3.599 3.369 3.109
1070.786 2.879 2.809 2.709 2.569 2.479 2.419 2.419 2.409 2.429 2.409
1090.079 2.429 2.459 2.509 2.639 2.769 2.859 2.999 3.199 3.469 3.799
1109.372 4.139 4.539 4.979 5.259 5.279 5.129 4.829 4.489 4.239 4.119
1128.666 4.129 4.229 4.469 4.779 5.109 5.599 6.339 7.279 8.449 10.009
1147.959 12.159 15.269 20.029 27.549 39.879 59.229 84.249 107.749 121.069 119.819
1167.253 104.219 80.219 57.289 40.999 31.359 25.879 22.369 19.689 17.449 15.649
1186.546 14.349 13.639 13.609 14.239 15.569 17.769 20.749 24.399 28.519 32.579
1205.840 35.809 37.429 37.379 36.049 34.099 32.499 31.399 30.569 29.529 27.899
1225.133 25.749 23.279 20.959 19.159 18.179 18.139 18.919 20.479 22.819 26.019
1244.426 30.179 35.299 41.339 48.289 55.739 62.929 68.819 72.079 71.769 67.689
1263.720 60.449 51.489 42.439 34.589 28.589 24.399 21.659 19.959 19.039 18.689
1283.013 18.749 19.039 19.509 20.109 20.739 21.419 22.049 22.489 22.729 22.749
1302.307 22.659 22.449 21.999 21.139 19.809 18.079 16.159 14.429 13.149 12.199
1321.600 11.359 10.579 9.789 8.969 8.109 7.199 6.309 5.549 4.979 4.489
1340.894 4.119 3.909 3.709 3.559 3.439 3.339 3.249 3.139 3.079 2.989
1360.187 2.899 2.829 2.739 2.649 2.599 2.519 2.459 2.429 2.359 2.299
1379.480 2.269 2.279 2.329 2.299 2.279 2.299 2.339 2.409 2.439 2.529
1398.774 2.639 2.839 3.179 3.589 4.139 4.789 5.659 6.709 7.759 8.719
1418.067 9.299 9.409 9.059 8.109 6.889 5.819 4.949 4.429 4.259 4.229
1437.361 4.349 4.739 5.339 6.039 6.669 6.999 6.979 6.729 6.409 6.239
1456.654 6.359 6.749 7.319 8.039 8.779 9.419 9.759 9.669 9.139 8.319
1475.948 7.429 6.629 6.089 5.719 5.589 5.639 5.869 6.339 7.109 8.249
1495.241 9.859 12.189 15.309 19.269 23.889 28.469 32.019 33.029 31.079 26.689
1514.534 21.219 16.049 12.179 9.709 7.959 6.759 5.979 5.439 5.059 4.789
1533.828 4.609 4.499 4.359 4.299 4.379 4.449 4.489 4.599 4.779 4.989
1553.121 5.229 5.559 6.039 6.689 7.599 8.699 10.139 11.999 14.329 17.129
1572.415 20.129 22.919 25.239 26.709 27.439 28.159 29.819 33.339 38.989 46.549
1591.708 55.609 65.219 73.999 80.249 82.449 79.939 73.079 63.179 52.309 42.089
1611.002 33.519 26.819 21.819 17.909 14.969 12.799 11.089 9.779 8.729 7.919
1630.295 7.349 6.919 6.539 6.209 6.039 5.949 5.889 5.899 5.969 6.099
1649.588 6.239 6.379 6.639 6.989 7.489 8.289 9.339 10.749 12.649 14.919
1668.882 17.699 21.129 25.229 30.069 35.319 40.069 43.699 45.259 44.209 41.169
1688.175 37.259 33.089 29.259 25.899 22.819 20.159 17.649 15.179 13.139 11.179
1707.469 9.469 8.019 6.829 5.839 5.009 4.319 3.779 3.319 2.949 2.669
1726.762 2.439 2.189 1.989 1.8464 1.7291 1.6091 1.5409 1.5213 1.4546 1.3898
1746.056 1.3765 1.3709 1.3546 1.3364 1.3251 1.3069 1.3143 1.3599 1.4059 1.4307
1765.349 1.494 1.5248 1.5801 1.5625 1.4913 1.442 1.3574 1.2964 1.228 1.1935
1784.642 1.1654 1.1615 1.1914 1.1423 1.1095 1.1121 1.1021 1.0883 1.0834 1.0846
1803.936 1.0847 1.0522 0.97661 0.97682 0.97416 0.931026 0.8762 0.787 0.742 0.73
1823.229 0.694 0.698 0.731 0.76 0.743 0.706 0.714 0.741 0.706 0.688
1842.523 0.709 0.682 0.706 0.746 0.756 0.744 0.707 0.69 0.734 0.769
1861.816 0.761 0.756 0.759 0.767 0.803 0.822 0.8626 0.9118 0.9169 0.95901
1881.110 0.9752 0.96302 0.97128 0.95154 0.94259 0.96168 0.97688 0.98899 1.0498 1.0983
1900.403 1.117 1.1705 1.221 1.2415 1.2431 1.2145 1.1389 1.0449 0.99669 0.9526
1919.696 0.8793 0.833 0.807 0.809 0.824 0.8483 0.8484 0.796 0.767 0.769
1938.990 0.801 0.807 0.779 0.754 0.736 0.752 0.743 0.756 0.79 0.822
1958.283 0.8567 0.9177 0.95119 0.9064 0.859 0.818 0.809 0.814 0.758 0.705
1977.577 0.686 0.691 0.688 0.636 0.622 0.633 0.648 0.643 0.632 0.62
1996.870 0.597 0.627 0.677 0.668 0.695 0.762 0.794 0.8562 0.92589 0.96946
2016.164 0.98615 0.97704 0.99436 1.01707 1.01139 0.99488 0.97429 0.99488 1.09 1.1666
2035.457 1.2168 1.2887 1.3511 1.4412 1.5393 1.5768 1.6018 1.706 1.7745 1.7593
2054.750 1.758 1.762 1.7396 1.6953 1.6189 1.518 1.4293 1.3788 1.333 1.2138
2074.044 1.0908 1.0391 1.00222 0.93909 0.8836 0.8675 0.8407 0.775 0.729 0.721
2093.337 0.716 0.688 0.652 0.636 0.647 0.628 0.576 0.526 0.508 0.501
2112.631 0.444 0.447 0.458 0.433 0.422 0.445 0.453 0.406 0.389 0.394
2131.924 0.417 0.408 0.4 0.402 0.386 0.37 0.367 0.358 0.341 0.322
2151.218 0.296 0.308 0.304 0.291 0.301 0.33 0.333 0.299 0.313 0.348
2170.511 0.377 0.336 0.267 0.272 0.288 0.276 0.252 0.261 0.279 0.27
2189.804 0.272 0.289 0.299 0.291 0.254 0.243 0.264 0.272 0.268 0.25
2209.098 0.226 0.228 0.243 0.226 0.212 0.224 0.233 0.253 0.265 0.249
2228.391 0.233 0.223 0.221 0.229 0.238 0.249 0.243 0.238 0.232 0.228
2247.685 0.262 0.258 0.251 0.294 0.313 0.305 0.322 0.362 0.349 0.325
2266.978 0.351 0.335 0.316 0.349 0.357 0.349 0.384 0.43 0.432 0.457
2286.272 0.505 0.486 0.47 0.487 0.529 0.536 0.471 0.423 0.438 0.385
2305.565 0.345 0.379 0.361 0.35 0.322 0.315 0.327 0.276 0.226 0.226
2324.858 0.219 0.193 0.166 0.156 0.132 0.138 0.157 0.188 0.245 0.236
2344.152 0.198 0.225 0.23 0.214 0.202 0.194 0.18 0.151 0.168 0.19
2363.445 0.178 0.179 0.21 0.203 0.188 0.222 0.271 0.29 0.268 0.326
2382.739 0.383 0.352 0.34 0.314 0.335 0.396 0.404 0.375 0.389 0.405
2402.032 0.394 0.385 0.389 0.4 0.393 0.389 0.404 0.429 0.444 0.463
2421.326 0.509 0.525 0.494 0.47 0.484 0.479 0.457 0.462 0.442 0.427
2440.619 0.42 0.421 0.403 0.384 0.387 0.419 0.406 0.348 0.39 0.433
2459.912 0.43 0.439 0.462 0.493 0.524 0.555 0.561 0.558 0.533 0.474
2479.206 0.484 0.541 0.524 0.515 0.57 0.567 0.553 0.541 0.499 0.503
2498.499 0.542 0.543 0.532 0.537 0.567 0.653 0.722 0.729 0.717 0.687
2517.793 0.672 0.69 0.732 0.754 0.688 0.662 0.652 0.639 0.68 0.688
2537.086 0.677 0.684 0.773 0.8947 0.938256 0.96394 0.99664 1.02271 1.1547 1.2521
2556.380 1.2748 1.3236 1.3247 1.2791 1.2639 1.2932 1.256 1.1939 1.1672 1.1021
2575.673 1.00867 0.9628 0.95041 0.8626 0.796 0.789 0.766 0.791 0.821 0.793
2594.966 0.695 0.67 0.65 0.601 0.608 0.586 0.585 0.578 0.541 0.562
2614.260 0.544 0.494 0.49 0.446 0.456 0.511 0.46 0.405 0.433 0.41
2633.553 0.376 0.358 0.301 0.269 0.271 0.285 0.239 0.248 0.256 0.234
2652.847 0.224 0.172 0.149 0.12 0.132 0.135 0.073 0.105 0.148 0.095
2672.140 0.068 0.091 0.103 0.054 0 0.037 0.032 0.041 0.079 0.058
2691.434 0.08 0.115 0.087 0.059 0.093 0.105 0.128 0.111 0.093 0.136
2710.727 0.177 0.156 0.125 0.2 0.256 0.207 0.185 0.182 0.202 0.259
2730.020 0.238 0.226 0.263 0.263 0.211 0.233 0.214 0.198 0.273 0.308
2749.314 0.319 0.306 0.331 0.382 0.428 0.446 0.443 0.374 0.334 0.344
2768.607 0.313 0.321 0.31 0.277 0.306 0.269 0.272 0.301 0.294 0.35
2787.901 0.378 0.363 0.331 0.39 0.451 0.52 0.525 0.44 0.485 0.533
2807.194 0.563 0.645 0.725 0.777 0.8314 0.95206 1.0688 1.1488 1.2497 1.3747
2826.488 1.4835 1.6404 1.8472 2.009 2.259 2.589 3.069 3.759 4.529 5.399
2845.781 6.359 7.039 7.199 6.869 6.169 5.259 4.279 3.579 3.079 2.639
2865.074 2.319 1.959 1.8232 1.7854 1.6629 1.6679 1.6957 1.6702 1.6621 1.6559
2884.368 1.5616 1.5792 1.7071 1.8055 1.8751 1.923 2.029 2.199 2.449 2.659
2903.661 2.849 3.149 3.449 3.699 3.959 4.329 4.599 4.649 4.669 4.729
2922.955 4.779 4.689 4.669 4.759 4.809 4.939 5.259 5.769 6.379 6.999
2942.248 7.669 8.229 8.629 8.739 8.549 8.329 8.139 8.019 7.879 7.769
2961.542 7.789 7.809 7.599 7.289 6.939 6.329 5.589 4.929 4.419 3.999
2980.835 3.719 3.499 3.239 3.149 3.069 3.039 3.059 3.109 3.329 3.669
3000.128 3.999 4.359 4.949 5.739 6.629 7.609 8.389 8.769 8.469 7.549
3019.422 6.309 5.029 4.009 3.339 2.879 2.579 2.339 2.109 2.019 1.949
3038.715 2.019 2.069 1.999 1.949 1.9083 1.8444 1.7569 1.6875 1.6669 1.6866
3058.009 1.7559 1.7922 1.8585 1.939 1.979 2.109 2.379 2.749 3.139 3.489
3077.302 3.759 3.919 3.879 3.569 3.089 2.739 2.519 2.259 2.159 2.129
3096.596 2.019 1.939 1.929 1.959 1.818 1.6428 1.5905 1.3372 1.0994 1.1176
3115.889 1.1257 1.02271 0.933129 0.9171 0.787 0.703 0.696 0.721 0.695 0.663
3135.182 0.624 0.576 0.591 0.543 0.564 0.618 0.598 0.503 0.518 0.558
3154.476 0.442 0.376 0.336 0.372 0.443 0.375 0.288 0.331 0.424 0.42
3173.769 0.428 0.382 0.298 0.255 0.234 0.262 0.214 0.236 0.345 0.31
3193.063 0.383 0.493 0.364 0.305 0.255 0.259 0.35 0.284 0.174 0.15
3212.356 0.196 0.272 0.404 0.39 0.261 0.249 0.282 0.241 0.139 0.142
3231.650 0.147 0.091 0.15 0.167 0.2 0.252 0.228 0.191 0.272 0.271
3250.943 0.192 0.224 0.273 0.351 0.338 0.345 0.426 0.353 0.206 0.201
3270.236 0.251 0.206 0.229 0.295 0.307 0.373 0.284 0.155 0.331 0.43
3289.530 0.368 0.431 0.455 0.394 0.454 0.524 0.484 0.459 0.37 0.348
3308.823 0.401 0.419 0.435 0.429 0.424 0.462 0.595 0.614 0.564 0.547
3328.117 0.548 0.654 0.749 0.779 0.8549 1.0316 1.02045 0.91953 0.903 1.0765
3347.410 1.1067 0.99819 1.087 1.0098 0.934571 0.936159 0.95927 0.97627 0.98628 0.8827
3366.704 0.675 0.718 0.809 0.713 0.655 0.665 0.575 0.592 0.568 0.507
3385.997 0.595 0.637 0.619 0.487 0.391 0.463 0.609 0.662 0.543 0.55
3405.290 0.516 0.411 0.481 0.552 0.45 0.377 0.492 0.534 0.488 0.504
3424.584 0.532 0.605 0.626 0.42 0.386 0.442 0.53 0.658 0.573 0.441
3443.877 0.37 0.517 0.596 0.542 0.495 0.413 0.459 0.413 0.462 0.648
3463.171 0.692 0.631 0.551 0.56 0.609 0.538 0.457 0.435 0.476 0.615
3482.464 0.612 0.522 0.486 0.546 0.57 0.507 0.515 0.565 0.58 0.636
3501.758 0.697 0.647 0.62 0.66 0.738 0.596 0.612 0.81 0.823 0.699
3521.051 0.589 0.56 0.583 0.653 0.624 0.592 0.606 0.671 0.645 0.588
3540.344 0.51 0.416 0.542 0.571 0.529 0.614 0.614 0.643 0.624 0.569
3559.638 0.622 0.625 0.632 0.653 0.597 0.555 0.559 0.557 0.586 0.661
3578.931 0.711 0.716 0.763 0.728 0.606 0.668 0.659 0.581 0.65 0.638
3598.225 0.6 0.582 0.582 0.598 0.578 0.628 0.604 0.6 0.693 0.649
3617.518 0.555 0.52 0.505 0.448 0.489 0.597 0.666 0.793 0.748 0.63
3636.812 0.618 0.677 0.732 0.739 0.722 0.686 0.615 0.569 0.596 0.618
3656.105 0.631 0.671 0.628 0.583 0.624 0.688 0.732 0.704 0.71 0.654
3675.398 0.569 0.592 0.709 0.698 0.606 0.575 0.671 0.674 0.636 0.657
3694.692 0.564 0.598 0.643 0.719 0.76 0.662 0.643 0.743 0.748 0.7
3713.985 0.652 0.58 0.601 0.622 0.562 0.536 0.576 0.582 0.556 0.617
3733.279 0.678 0.645 0.609 0.578 0.608 0.631 0.583 0.592 0.619 0.582
3752.572 0.613 0.681 0.73 0.71 0.652 0.708 0.674 0.625 0.689 0.66
3771.866 0.604 0.711 0.744 0.684 0.598 0.494 0.549 0.648 0.699 0.654
3791.159 0.619 0.654 0.628 0.616 0.635 0.63 0.674 0.672 0.568 0.6
3810.452 0.696 0.644 0.566 0.647 0.716 0.65 0.599 0.646 0.673 0.615
3829.746 0.636 0.631 0.624 0.597 0.514 0.547 0.603 0.619 0.69 0.683
3849.039 0.629 0.656 0.661 0.641 0.648 0.643 0.615 0.6 0.569 0.518
3868.333 0.504 0.559 0.595 0.627 0.632 0.586 0.544 0.531 0.648 0.727
3887.626 0.669 0.581 0.548 0.574 0.568 0.599 0.672 0.623 0.574 0.61
3906.920 0.659 0.651 0.653 0.618 0.553 0.563 0.576 0.6 0.611 0.625
3926.213 0.619 0.585 0.519 0.535 0.556 0.517 0.578 0.65 0.607 0.537
3945.506 0.508 0.542 0.581 0.548 0.479 0.554 0.656 0.579 0.57 0.558
3964.800 0.536 0.563 0.593 0.617 0.559 0.577 0.633 0.569 0.507 0.622
3984.093 0.701 0.65 0.554 0.52 0.563 0.599 0.61 0.6 0.579
##END=
