##TITLE=Octanal
##JCAMP-DX=4.24
##DATA TYPE=INFRARED SPECTRUM
##ORIGIN=NIST Mass Spectrometry Data Center
##OWNER=NIST Standard Reference Data Program
Collection (C) 2018 copyright by the U.S. Secretary of Commerce
on behalf of the United States of America. All rights reserved.
##CAS REGISTRY NO=124-13-0
##MOLFORM=C 8 H 16 O
##SOURCE REFERENCE=No.20675 (NIST/EPA/NIH MS Database)
##$NIST SOURCE=MSDC-IR
##SPECTROMETER/DATA SYSTEM=HP-GC/MS/IRD
##STATE=gas
##XUNITS=1/CM
##YUNITS=ABSORBANCE
##XFACTOR=1.0
##YFACTOR=0.000004100
##DELTAX=4.0
##FIRSTX=550.0
##LASTX=3846.0
##FIRSTY=0.000279
##MAXX=3846
##MINX=550
##MAXY=0.041
##MINY=0
##NPOINTS=825
##XYDATA=(X++(Y..Y))
550.0 68 60 21 11 16 12 28 24 15 16
590.0 10 1 9 20 10 8 17 18 18 16
630.0 25 38 38 44 54 59 65 79 88 91
670.0 100 114 118 105 103 111 102 117 131 137
710.0 150 174 192 202 190 180 189 188 173 153
750.0 141 137 133 135 138 133 126 124 124 128
790.0 124 134 153 144 140 148 142 128 124 130
830.0 135 144 152 153 165 172 176 175 171 168
870.0 165 170 180 191 194 184 173 161 156 151
910.0 139 133 138 139 141 151 164 180 209 235
950.0 247 261 273 280 287 283 279 284 286 282
990.0 274 276 283 283 285 289 286 291 296 299
1030.0 298 295 299 300 295 296 296 288 275 256
1070.0 237 227 227 222 214 209 205 201 196 198
1110.0 205 210 221 227 226 209 205 211 194 186
1150.0 174 164 164 168 174 176 183 185 184 186
1190.0 177 170 168 167 163 155 146 140 140 136
1230.0 140 151 152 153 165 175 184 186 188 192
1270.0 195 194 198 210 220 226 238 251 258 262
1310.0 267 275 284 296 311 336 369 407 454 489
1350.0 512 519 512 492 470 466 479 517 570 620
1390.0 628 596 552 519 512 531 567 594 602 598
1430.0 589 590 613 666 754 857 952 1024 1038 982
1470.0 876 743 599 469 365 285 225 185 154 132
1510.0 115 102 92 80 69 63 57 52 47 43
1550.0 44 44 42 42 40 36 34 34 32 36
1590.0 41 42 43 42 42 46 51 53 54 60
1630.0 71 79 86 97 111 126 146 169 193 223
1670.0 261 305 357 419 493 585 693 821 967 1136
1710.0 1337 1600 1960 2438 3097 3998 5029 5824 6112 5847
1750.0 5017 3969 3114 2485 2005 1632 1335 1105 921 766
1790.0 643 538 458 393 331 281 244 213 190 166
1830.0 146 129 113 102 93 85 78 70 64 60
1870.0 54 49 42 36 35 34 32 27 25 25
1910.0 22 24 25 21 19 17 16 16 17 14
1950.0 11 11 9 10 10 9 6 6 9 9
1990.0 9 8 4 5 8 9 10 12 14 15
2030.0 18 16 12 13 17 12 7 7 7 8
2070.0 10 6 3 6 8 8 7 6 8 5
2110.0 5 9 5 0 5 7 4 7 7 6
2150.0 7 7 5 7 10 7 7 10 9 8
2190.0 8 9 7 6 8 7 10 11 12 8
2230.0 2 5 10 8 5 5 6 8 11 9
2270.0 8 7 8 11 12 8 7 8 5 6
2310.0 11 12 9 6 4 6 0 1 6 5
2350.0 4 2 2 2 3 3 2 3 5 5
2390.0 4 5 5 7 8 9 12 12 7 7
2430.0 8 5 7 9 4 1 5 4 3 5
2470.0 7 6 4 4 8 10 7 8 17 17
2510.0 14 16 19 22 26 27 27 30 33 35
2550.0 36 40 49 54 57 63 71 77 84 89
2590.0 98 110 121 132 141 154 168 182 202 224
2630.0 249 274 305 339 372 404 440 479 520 579
2670.0 642 716 816 926 1057 1224 1443 1725 2051 2328
2710.0 2446 2368 2112 1783 1507 1317 1185 1086 1016 966
2750.0 926 895 875 872 870 871 894 941 1008 1101
2790.0 1220 1361 1526 1693 1829 1892 1868 1775 1643 1524
2830.0 1464 1465 1537 1694 1950 2320 2786 3284 3720 4022
2870.0 4160 4160 4088 3949 3808 3703 3649 3705 3908 4254
2910.0 4777 5497 6417 7481 8552 9442 9966 10000 9567 8805
2950.0 7883 7013 6380 6005 5700 5223 4537 3678 2781 2083
2990.0 1608 1287 1057 884 763 670 593 541 493 448
3030.0 410 373 344 320 292 269 249 227 213 203
3070.0 191 186 178 157 154 154 149 140 131 135
3110.0 129 122 122 117 113 107 98 94 88 85
3150.0 87 87 80 70 66 70 71 65 62 57
3190.0 50 51 54 47 42 41 40 36 30 26
3230.0 25 26 22 22 25 20 19 20 20 14
3270.0 13 21 21 14 8 3 6 15 12 9
3310.0 3 0 7 8 9 10 18 20 16 14
3350.0 11 16 27 26 21 20 24 26 21 22
3390.0 28 31 32 29 35 37 34 42 49 55
3430.0 62 64 68 84 100 109 115 130 138 140
3470.0 141 128 111 96 80 65 58 53 40 35
3510.0 39 32 22 21 23 23 22 25 21 14
3550.0 16 19 17 16 20 24 23 23 19 19
3590.0 23 22 23 28 24 20 24 26 29 30
3630.0 23 20 22 27 28 28 25 27 23 18
3670.0 26 30 30 29 34 34 27 26 32 33
3710.0 21 19 20 13 17 24 21 22 26 23
3750.0 28 26 29 37 35 33 41 44 38 31
3790.0 27 29 34 38 38 32 37 43 42 39
3830.0 33 42 50 42 27
##END=
