##TITLE=Tetradecanal
##JCAMP-DX=4.24
##DATA TYPE=INFRARED SPECTRUM
##ORIGIN=NIST Mass Spectrometry Data Center
##OWNER=NIST Standard Reference Data Program
Collection (C) 2018 copyright by the U.S. Secretary of Commerce
on behalf of the United States of America. All rights reserved.
##CAS REGISTRY NO=124-25-4
##MOLFORM=C 14 H 28 O
##$NIST SOURCE=MSDC-IR
##SPECTROMETER/DATA SYSTEM=HP-GC/MS/IRD
##STATE=gas
##XUNITS=1/CM
##YUNITS=ABSORBANCE
##XFACTOR=1.0
##YFACTOR=0.000004400
##DELTAX=4.0
##FIRSTX=550.0
##LASTX=3846.0
##FIRSTY=0.000480
##MAXX=3846
##MINX=550
##MAXY=0.044
##MINY=0
##NPOINTS=825
##XYDATA=(X++(Y..Y))
550.0 109 66 25 22 22 15 1 0 14 38
590.0 44 38 36 48 44 15 18 32 28 18
630.0 14 35 44 35 31 24 47 90 94 80
670.0 57 44 54 72 84 89 97 108 116 135
710.0 152 154 175 181 175 177 171 147 138 133
750.0 124 128 119 107 110 109 104 103 96 83
790.0 82 85 79 73 74 80 84 83 89 95
830.0 84 81 92 97 98 109 110 106 104 102
870.0 100 98 107 116 115 108 110 109 102 98
910.0 98 99 98 107 108 107 110 115 116 117
950.0 119 119 121 121 126 132 136 142 147 148
990.0 153 155 149 156 156 159 159 154 160 161
1030.0 161 167 162 148 146 148 137 136 138 138
1070.0 136 136 134 133 136 132 123 118 113 109
1110.0 104 105 109 111 109 105 103 105 99 97
1150.0 92 91 95 92 93 91 91 87 88 96
1190.0 93 89 91 99 96 84 84 81 76 80
1230.0 89 97 90 90 97 101 112 123 122 123
1270.0 130 133 140 154 161 166 174 185 197 204
1310.0 208 207 205 203 204 216 239 271 307 342
1350.0 367 376 364 348 326 302 285 283 294 302
1390.0 300 280 250 233 236 252 270 292 307 312
1430.0 314 324 362 425 506 608 696 758 772 718
1470.0 618 488 371 277 209 167 136 117 102 84
1510.0 73 67 60 53 47 46 45 36 31 33
1550.0 33 25 22 34 33 28 26 30 34 35
1590.0 37 36 34 33 32 32 31 29 32 36
1630.0 38 39 44 46 46 51 61 73 87 103
1670.0 116 132 149 169 199 235 277 328 385 454
1710.0 536 639 779 968 1225 1564 1977 2364 2523 2346
1750.0 1945 1531 1207 960 774 637 533 448 372 312
1790.0 263 217 188 167 145 125 107 93 81 72
1830.0 65 60 57 49 42 36 32 31 28 25
1870.0 23 23 25 22 21 20 19 18 20 21
1910.0 19 18 15 13 11 11 14 13 12 10
1950.0 11 14 12 9 11 12 10 8 8 10
1990.0 8 7 9 13 16 15 14 15 15 13
2030.0 17 22 20 21 21 18 13 14 15 13
2070.0 12 11 13 13 9 11 11 6 8 9
2110.0 8 7 3 5 7 10 13 16 11 5
2150.0 5 8 11 12 16 13 7 7 10 12
2190.0 11 14 14 12 11 6 4 5 8 14
2230.0 13 11 7 9 13 13 14 10 8 9
2270.0 8 9 9 8 9 9 5 6 9 10
2310.0 10 12 14 10 10 15 17 11 11 14
2350.0 11 8 10 15 15 19 15 12 9 8
2390.0 9 10 9 5 7 12 13 13 18 12
2430.0 6 5 2 3 8 7 3 0 2 5
2470.0 2 3 7 7 5 8 12 13 15 18
2510.0 20 19 14 16 25 28 28 31 30 32
2550.0 35 34 38 39 39 37 40 48 46 51
2590.0 60 61 63 71 84 94 98 102 107 123
2630.0 141 148 156 172 187 197 210 231 256 281
2670.0 306 333 371 413 468 534 615 718 852 993
2710.0 1056 998 863 730 629 557 509 473 450 436
2750.0 415 407 406 399 400 409 424 448 479 527
2790.0 582 652 734 810 877 924 933 904 870 853
2830.0 864 915 1015 1177 1449 1893 2532 3237 3717 3776
2870.0 3479 3057 2700 2463 2336 2296 2363 2533 2813 3223
2910.0 3762 4472 5460 6830 8409 9660 10000 9328 8018 6525
2950.0 5190 4191 3550 3178 2917 2590 2132 1645 1256 984
2990.0 807 678 575 498 433 383 339 311 287 257
3030.0 230 210 199 185 167 154 145 136 127 119
3070.0 111 111 110 96 93 93 85 81 75 68
3110.0 65 64 58 63 64 60 64 66 60 53
3150.0 53 53 49 54 59 54 45 41 39 35
3190.0 32 31 35 35 32 35 36 40 40 32
3230.0 24 18 14 13 13 12 15 12 7 11
3270.0 16 17 12 13 16 14 20 21 16 13
3310.0 10 11 7 2 6 8 12 20 22 23
3350.0 25 24 20 16 12 13 16 18 17 14
3390.0 16 14 12 20 24 20 16 23 35 38
3430.0 33 35 42 47 37 37 51 54 57 58
3470.0 53 44 39 33 37 38 24 17 19 18
3510.0 15 15 14 16 13 9 15 25 27 17
3550.0 6 3 0 3 9 13 16 18 15 15
3590.0 11 9 9 9 11 14 23 28 20 16
3630.0 12 7 10 20 21 20 23 22 17 13
3670.0 17 17 17 20 21 29 26 16 18 20
3710.0 20 20 17 16 19 15 14 17 18 17
3750.0 16 15 11 9 23 32 30 28 30 26
3790.0 19 18 16 18 23 22 27 32 26 29
3830.0 31 15 8 23 31
##END=
