##TITLE=exo-1,7,7-Trimethylbicyclo[2.2.1]-2-heptanol
##JCAMP-DX=4.24
##DATA TYPE=INFRARED SPECTRUM
##ORIGIN=NIST Mass Spectrometry Data Center
##OWNER=NIST Standard Reference Data Program
Collection (C) 2018 copyright by the U.S. Secretary of Commerce
on behalf of the United States of America. All rights reserved.
##CAS REGISTRY NO=124-76-5
##MOLFORM=C 10 H 18 O
##$NIST SOURCE=MSDC-IR
##SPECTROMETER/DATA SYSTEM=HP-GC/MS/IRD
##STATE=gas
##XUNITS=1/CM
##YUNITS=ABSORBANCE
##XFACTOR=1.0
##YFACTOR=0.000003800
##DELTAX=4.0
##FIRSTX=550.0
##LASTX=3846.0
##FIRSTY=0.000072
##MAXX=3846
##MINX=550
##MAXY=0.038
##MINY=0
##NPOINTS=825
##XYDATA=(X++(Y..Y))
550.0 19 33 25 20 18 4 16 51 38 20
590.0 17 30 29 33 43 44 41 48 41 39
630.0 53 53 51 54 65 77 59 40 38 42
670.0 32 17 7 10 10 11 22 20 23 29
710.0 34 27 27 33 28 28 27 21 24 22
750.0 24 37 37 37 48 62 75 87 100 112
790.0 114 98 64 42 39 37 44 58 82 123
830.0 153 186 213 213 211 204 197 187 176 162
870.0 149 135 123 117 130 170 221 269 308 330
910.0 317 300 286 277 280 301 323 341 352 356
950.0 358 360 362 377 394 415 457 514 600 731
990.0 887 1040 1152 1193 1135 1005 839 657 507 413
1030.0 360 336 339 387 509 705 1024 1480 1924 2296
1070.0 2538 2414 2075 1682 1254 988 888 839 797 735
1110.0 631 505 395 317 270 244 224 216 216 226
1150.0 227 226 238 252 268 287 322 379 443 506
1190.0 569 620 656 662 656 658 648 639 641 658
1230.0 679 699 721 733 731 718 698 665 639 624
1270.0 614 599 573 540 509 477 445 425 414 402
1310.0 388 376 366 351 327 305 286 271 256 254
1350.0 270 315 397 518 645 779 918 952 950 944
1390.0 917 885 752 611 481 335 250 216 203 210
1430.0 238 290 375 493 643 800 931 1036 1056 1016
1470.0 967 903 833 753 646 528 411 303 216 161
1510.0 121 92 75 67 55 45 43 40 37 34
1550.0 35 39 40 40 41 38 35 33 33 35
1590.0 34 32 31 27 23 27 30 28 28 27
1630.0 21 21 24 23 25 22 21 20 15 17
1670.0 18 13 11 14 13 13 12 12 12 7
1710.0 2 5 9 8 6 7 10 12 9 3
1750.0 3 2 3 6 3 1 3 4 5 7
1790.0 7 7 6 4 4 5 7 6 1 0
1830.0 3 9 8 6 8 10 7 5 9 11
1870.0 8 5 2 4 4 2 3 5 9 6
1910.0 6 5 0 3 9 3 0 0 2 5
1950.0 3 0 0 1 2 5 5 2 2 3
1990.0 2 5 4 0 2 3 3 6 9 9
2030.0 5 8 11 9 9 8 6 7 12 15
2070.0 11 9 11 12 12 13 15 16 17 18
2110.0 18 20 18 18 16 14 15 17 16 15
2150.0 18 17 15 15 15 12 8 9 13 10
2190.0 8 7 3 5 12 16 18 13 6 5
2230.0 9 11 12 10 13 18 13 13 17 15
2270.0 13 16 15 10 12 15 19 21 21 22
2310.0 21 21 20 19 19 22 23 23 25 25
2350.0 25 23 21 18 20 18 16 12 17 23
2390.0 18 20 18 13 15 14 16 25 23 20
2430.0 20 18 16 19 24 23 27 26 24 26
2470.0 25 22 19 20 22 23 23 25 25 25
2510.0 28 26 21 17 20 25 27 30 27 22
2550.0 25 28 27 25 27 33 33 28 30 34
2590.0 30 27 32 33 33 38 42 42 43 42
2630.0 39 43 47 52 51 45 40 40 48 46
2670.0 42 42 46 53 57 65 75 81 84 83
2710.0 88 102 119 141 158 177 195 203 200 185
2750.0 180 182 179 178 179 179 177 183 183 178
2790.0 175 170 166 170 178 190 214 243 268 291
2830.0 320 355 388 425 482 563 682 868 1147 1551
2870.0 2093 2745 3412 4008 4447 4645 4587 4355 4030 3731
2910.0 3532 3485 3638 3963 4459 5102 5791 6502 7322 8201
2950.0 8996 9573 10000 9564 8225 6799 5156 3717 2814 2277
2990.0 1991 1787 1532 1291 1069 878 745 650 582 513
3030.0 433 357 297 253 217 203 196 185 179 184
3070.0 188 182 173 167 161 158 157 152 141 145
3110.0 143 139 141 142 144 135 130 128 127 132
3150.0 117 100 99 96 86 75 68 66 59 54
3190.0 55 54 53 50 54 54 49 44 34 30
3230.0 26 26 30 31 32 28 27 19 19 24
3270.0 21 23 26 25 27 18 12 14 12 18
3310.0 21 16 13 12 12 23 27 22 17 22
3350.0 24 20 14 24 33 18 20 28 19 17
3390.0 15 19 20 17 24 26 25 28 31 25
3430.0 24 17 14 25 24 26 32 25 21 21
3470.0 20 16 11 6 2 11 22 24 16 11
3510.0 22 24 17 25 27 26 23 23 23 25
3550.0 21 16 22 26 26 29 26 16 11 17
3590.0 19 11 11 21 33 39 35 39 53 57
3630.0 69 103 158 260 400 518 632 682 594 487
3670.0 369 224 127 89 66 58 55 41 32 25
3710.0 21 16 13 16 18 12 10 10 4 2
3750.0 9 21 25 19 14 19 23 23 19 22
3790.0 27 36 31 21 28 27 30 35 21 19
3830.0 29 26 28 33 36
##END=
