##TITLE=d-Camphoric acid
##JCAMP-DX=4.24
##DATA TYPE=INFRARED SPECTRUM
##ORIGIN=NIST Mass Spectrometry Data Center
##OWNER=NIST Standard Reference Data Program
Collection (C) 2018 copyright by the U.S. Secretary of Commerce
on behalf of the United States of America. All rights reserved.
##CAS REGISTRY NO=124-83-4
##MOLFORM=C 10 H 16 O 4
##$NIST SOURCE=MSDC-IR
##SPECTROMETER/DATA SYSTEM=HP-GC/MS/IRD
##STATE=gas
##XUNITS=1/CM
##YUNITS=ABSORBANCE
##XFACTOR=1.0
##YFACTOR=0.000002700
##DELTAX=4.0
##FIRSTX=550.0
##LASTX=3846.0
##FIRSTY=0.001661
##MAXX=3846
##MINX=550
##MAXY=0.027
##MINY=0
##NPOINTS=825
##XYDATA=(X++(Y..Y))
550.0 615 935 867 1050 1173 1249 1318 1420 1496 1531
590.0 1523 1477 1379 1256 1121 983 895 868 869 874
630.0 894 861 828 817 790 762 720 666 600 577
670.0 536 445 379 348 313 261 227 222 211 191
710.0 207 232 243 274 303 330 363 395 399 377
750.0 360 347 355 424 518 565 539 449 321 230
790.0 211 179 134 114 101 57 39 54 31 26
830.0 39 20 6 21 31 45 36 16 18 16
870.0 7 11 6 1 14 18 27 46 35 36
910.0 56 53 36 45 91 115 139 169 206 244
950.0 289 317 310 310 300 283 299 327 359 414
990.0 432 401 387 358 330 313 291 300 329 355
1030.0 422 518 624 716 782 832 853 928 1103 1355
1070.0 1728 2183 2686 3216 3620 3816 3800 3601 3398 3313
1110.0 3335 3471 3662 3877 4039 4043 3862 3558 3196 2853
1150.0 2570 2309 2074 1846 1649 1485 1323 1202 1104 1015
1190.0 913 813 740 676 644 655 703 747 757 736
1230.0 665 570 477 419 389 355 348 365 380 400
1270.0 440 489 544 594 634 669 704 728 747 745
1310.0 699 647 601 568 533 497 470 447 448 463
1350.0 485 507 535 589 685 793 902 1006 1071 1044
1390.0 926 773 622 491 385 291 223 188 174 169
1430.0 164 174 199 233 301 399 520 630 688 697
1470.0 667 617 556 474 385 289 214 160 122 106
1510.0 92 72 64 67 62 54 63 74 71 56
1550.0 50 67 77 59 36 25 38 43 32 27
1590.0 22 24 22 16 11 9 23 29 20 21
1630.0 36 46 38 38 44 52 56 49 51 61
1670.0 64 71 82 102 136 161 194 253 323 396
1710.0 499 623 764 895 1005 1135 1325 1643 2229 3242
1750.0 4828 6843 8794 10000 9920 8534 6438 4446 3008 2148
1790.0 1673 1382 1158 968 809 677 561 463 389 318
1830.0 245 193 160 135 109 88 77 64 55 46
1870.0 37 38 34 30 32 26 24 19 18 22
1910.0 21 21 17 21 20 9 7 11 7 2
1950.0 5 10 13 12 13 22 19 9 4 8
1990.0 17 12 8 14 9 0 3 8 4 6
2030.0 14 16 18 18 17 14 14 14 13 18
2070.0 20 19 20 20 21 12 8 7 11 14
2110.0 14 14 13 14 6 2 15 23 10 4
2150.0 16 21 20 23 25 27 25 27 32 34
2190.0 33 30 24 24 32 39 37 35 30 25
2230.0 25 25 24 31 27 14 7 11 29 30
2270.0 23 22 20 24 31 30 25 30 36 28
2310.0 28 29 31 31 24 28 37 40 35 36
2350.0 44 50 51 50 51 38 32 35 25 24
2390.0 27 18 15 19 26 29 22 21 25 28
2430.0 26 24 25 17 14 17 20 19 18 24
2470.0 27 18 13 19 25 28 30 30 28 20
2510.0 23 20 17 23 25 24 30 23 16 24
2550.0 25 17 11 9 3 2 11 19 22 17
2590.0 18 23 17 13 17 25 31 27 25 25
2630.0 18 19 25 24 29 37 39 46 32 23
2670.0 27 27 36 38 36 33 22 28 33 29
2710.0 28 20 24 37 35 37 46 49 47 45
2750.0 44 52 52 50 60 55 40 41 49 45
2790.0 50 65 56 40 49 64 73 80 77 83
2830.0 89 99 115 120 124 136 148 163 177 198
2870.0 228 296 380 477 587 689 769 799 783 746
2910.0 701 674 678 721 790 861 936 1025 1107 1195
2950.0 1298 1387 1466 1557 1705 1928 2151 2334 2415 2331
2990.0 2095 1763 1421 1133 880 649 453 310 243 209
3030.0 166 135 132 116 97 90 71 72 76 76
3070.0 76 78 74 63 52 54 58 45 60 68
3110.0 68 58 36 39 48 59 69 63 48 36
3150.0 47 56 39 39 48 48 56 63 46 43
3190.0 60 44 56 74 45 37 41 32 30 27
3230.0 14 9 16 25 30 20 17 13 9 26
3270.0 26 25 23 14 28 30 20 14 12 11
3310.0 18 40 39 24 14 2 14 37 47 50
3350.0 46 15 7 18 33 59 48 10 0 23
3390.0 27 14 36 52 33 15 34 53 56 59
3430.0 58 31 20 54 45 33 46 39 34 48
3470.0 53 41 35 41 61 79 90 94 101 124
3510.0 129 111 106 135 138 140 154 174 207 286
3550.0 427 806 1716 3032 4021 4122 3296 1944 888 424
3590.0 264 186 141 119 101 85 68 67 80 77
3630.0 80 93 94 79 68 53 30 23 30 47
3670.0 47 30 23 26 39 58 51 41 54 50
3710.0 37 39 34 30 33 28 43 55 49 48
3750.0 55 33 23 45 47 43 46 49 53 66
3790.0 40 27 55 67 58 41 24 40 37 32
3830.0 43 56 70 67 58
##END=
