##TITLE=Primidone
##JCAMP-DX=4.24
##DATA TYPE=INFRARED SPECTRUM
##ORIGIN=NIST Mass Spectrometry Data Center
##OWNER=NIST Standard Reference Data Program
Collection (C) 2018 copyright by the U.S. Secretary of Commerce
on behalf of the United States of America. All rights reserved.
##CAS REGISTRY NO=125-33-7
##MOLFORM=C 12 H 14 N 2 O 2
##$NIST SOURCE=MSDC-IR
##SPECTROMETER/DATA SYSTEM=HP-GC/MS/IRD
##STATE=gas
##XUNITS=1/CM
##YUNITS=ABSORBANCE
##XFACTOR=1.0
##YFACTOR=0.000001200
##DELTAX=4.0
##FIRSTX=550.0
##LASTX=3846.0
##FIRSTY=0.000925
##MAXX=3846
##MINX=550
##MAXY=0.012
##MINY=0
##NPOINTS=825
##XYDATA=(X++(Y..Y))
550.0 771 528 319 227 241 315 410 573 636 706
590.0 790 721 595 475 382 347 256 208 212 166
630.0 158 145 92 108 105 77 96 136 176 151
670.0 121 173 210 257 409 654 966 1176 1137 951
710.0 736 632 609 564 492 399 314 307 391 527
750.0 679 770 767 666 535 437 389 368 372 380
790.0 369 333 291 253 214 204 223 246 265 286
830.0 323 340 347 367 375 370 364 372 374 335
870.0 300 296 282 261 253 254 267 281 280 293
910.0 315 296 262 216 172 156 168 206 247 262
950.0 243 203 134 77 40 20 30 60 83 110
990.0 135 164 169 120 77 65 59 44 82 180
1030.0 246 262 245 169 77 16 8 27 57 113
1070.0 155 191 228 260 317 416 539 709 872 919
1110.0 833 646 446 303 248 237 225 226 236 225
1150.0 170 136 122 89 69 72 73 80 86 112
1190.0 146 164 187 209 235 276 308 305 293 308
1230.0 302 282 269 251 212 188 186 195 208 221
1270.0 229 242 248 255 273 299 323 367 437 533
1310.0 663 835 1042 1320 1628 1921 2223 2526 2897 3256
1350.0 3456 3406 3011 2392 1792 1314 1016 871 780 689
1390.0 588 492 428 416 440 527 670 868 1172 1587
1430.0 2112 2680 3240 3675 3837 3678 3213 2596 2044 1595
1470.0 1242 1025 929 942 1048 1173 1203 1067 811 547
1510.0 382 295 202 133 105 91 75 46 38 69
1550.0 82 61 26 64 109 124 145 187 235 259
1590.0 289 328 356 356 331 281 224 201 204 211
1630.0 224 223 241 278 298 299 341 443 548 674
1670.0 807 951 1130 1318 1587 2042 2858 4284 6365 8544
1710.0 10000 9911 8517 7142 6808 7685 9064 9680 8687 6574
1750.0 4302 2592 1638 1146 863 686 580 509 462 446
1790.0 419 395 379 380 369 329 275 223 192 167
1830.0 160 159 144 124 119 106 92 89 80 75
1870.0 88 107 93 83 88 80 75 60 45 46
1910.0 41 32 28 29 33 42 57 68 79 89
1950.0 91 93 88 76 60 47 39 25 24 23
1990.0 13 6 13 24 17 14 18 27 38 22
2030.0 15 16 11 16 24 22 16 10 8 11
2070.0 5 0 2 6 10 7 12 25 26 25
2110.0 25 28 17 10 18 6 0 6 3 6
2150.0 1 5 21 21 8 4 8 9 9 16
2190.0 19 8 5 9 13 16 15 17 23 21
2230.0 13 16 13 14 18 10 10 20 18 14
2270.0 15 12 26 39 27 23 26 20 19 18
2310.0 22 29 25 22 21 15 11 13 15 31
2350.0 36 26 12 9 8 1 3 21 31 28
2390.0 33 31 32 32 33 46 47 20 4 10
2430.0 31 40 38 44 39 34 19 12 17 31
2470.0 43 44 39 33 28 22 13 19 24 17
2510.0 18 26 28 19 30 36 33 34 48 51
2550.0 41 56 55 52 58 52 33 41 65 60
2590.0 39 35 33 20 26 27 11 7 15 37
2630.0 45 34 22 23 37 45 33 33 20 5
2670.0 10 15 7 15 40 40 34 31 36 45
2710.0 53 70 80 61 51 64 70 71 64 76
2750.0 101 99 91 101 107 124 136 136 143 148
2790.0 154 160 177 184 180 179 175 176 195 228
2830.0 276 330 388 465 522 543 530 481 442 443
2870.0 473 510 564 663 773 870 894 817 674 548
2910.0 479 439 414 408 428 482 614 824 1063 1241
2950.0 1321 1289 1175 1081 1048 1085 1117 1106 1041 980
2990.0 936 893 826 689 538 436 373 346 340 349
3030.0 379 408 399 374 386 407 460 568 714 876
3070.0 947 886 712 524 438 397 365 327 268 223
3110.0 195 174 163 136 112 98 95 96 88 94
3150.0 99 94 88 81 80 88 73 60 49 52
3190.0 66 77 79 45 40 65 70 45 28 43
3230.0 39 19 18 33 32 36 44 33 39 43
3270.0 36 28 21 31 36 33 53 64 56 34
3310.0 43 55 46 32 38 41 27 36 39 29
3350.0 71 84 61 57 63 59 60 83 104 124
3390.0 145 149 154 169 191 224 276 316 374 485
3430.0 654 915 1261 1623 1955 2121 2002 1620 1138 736
3470.0 486 324 221 180 141 108 95 91 67 63
3510.0 70 64 64 57 73 79 63 62 60 64
3550.0 53 39 55 33 9 47 80 67 45 31
3590.0 21 16 49 70 35 33 47 33 29 38
3630.0 31 41 41 41 11 7 31 30 46 42
3670.0 19 29 48 56 38 23 39 46 63 53
3710.0 17 10 24 40 42 36 9 26 17 0
3750.0 0 0 32 54 48 47 45 53 39 35
3790.0 34 42 30 4 22 38 22 33 55 25
3830.0 24 31 15 26 51
##END=
