##TITLE=Demeton-S
##JCAMP-DX=4.24
##DATA TYPE=INFRARED SPECTRUM
##ORIGIN=NIST Mass Spectrometry Data Center
##OWNER=NIST Standard Reference Data Program
Collection (C) 2018 copyright by the U.S. Secretary of Commerce
on behalf of the United States of America. All rights reserved.
##CAS REGISTRY NO=126-75-0
##MOLFORM=C 8 H 19 O 3 P S 2
##$NIST SOURCE=MSDC-IR
##SPECTROMETER/DATA SYSTEM=HP-GC/MS/IRD
##STATE=gas
##XUNITS=1/CM
##YUNITS=ABSORBANCE
##XFACTOR=1.0
##YFACTOR=0.000011000
##DELTAX=4.0
##FIRSTX=550.0
##LASTX=3846.0
##FIRSTY=0.004774
##MAXX=3846
##MINX=550
##MAXY=0.11
##MINY=0
##NPOINTS=825
##XYDATA=(X++(Y..Y))
550.0 434 757 826 1114 1336 1509 1600 1657 1713 1813
590.0 1981 2216 2502 2720 2702 2386 1866 1326 907 628
630.0 441 325 260 215 190 173 152 126 98 80
670.0 88 119 176 266 376 476 521 481 383 283
710.0 226 214 240 301 409 567 786 1064 1372 1654
750.0 1861 1954 1915 1780 1616 1477 1391 1352 1337 1309
790.0 1240 1127 983 828 668 519 394 300 236 195
830.0 160 138 131 132 124 115 108 101 96 95
870.0 96 100 115 135 160 192 239 298 364 443
910.0 540 677 860 1099 1427 1851 2369 2942 3497 3956
950.0 4265 4431 4456 4321 4011 3548 3006 2482 2056 1781
990.0 1673 1729 1960 2390 3069 4058 5358 6871 8363 9503
1030.0 10000 9820 9199 8455 7800 7250 6698 6034 5244 4394
1070.0 3584 2918 2442 2144 1985 1918 1883 1800 1617 1387
1110.0 1194 1057 961 897 853 824 804 795 790 788
1150.0 782 772 745 711 682 650 621 582 534 485
1190.0 441 422 443 477 482 445 390 355 361 397
1230.0 459 564 738 1012 1420 1959 2546 3007 3209 3224
1270.0 3204 3201 3125 2908 2588 2226 1846 1471 1142 877
1310.0 674 520 403 317 254 205 173 153 144 143
1350.0 148 161 186 226 283 345 398 452 533 646
1390.0 772 845 814 693 561 484 460 467 485 505
1430.0 512 497 476 464 459 451 430 397 362 324
1470.0 287 260 240 223 199 173 144 121 103 87
1510.0 75 67 55 44 39 34 28 23 19 15
1550.0 13 11 6 4 6 5 2 0 0 0
1590.0 0 2 2 1 3 5 4 4 5 7
1630.0 7 7 7 9 10 10 15 19 20 21
1670.0 24 29 34 36 43 49 49 50 52 51
1710.0 50 50 50 53 54 53 53 57 61 64
1750.0 68 72 77 82 86 92 98 104 107 108
1790.0 107 110 111 111 112 113 112 110 109 110
1830.0 109 108 106 104 100 97 92 86 81 76
1870.0 71 67 64 57 55 53 50 48 48 45
1910.0 43 44 43 41 42 44 42 41 41 40
1950.0 39 38 39 40 41 42 43 44 46 48
1990.0 46 46 47 49 49 48 48 47 49 51
2030.0 50 51 53 52 53 55 57 58 57 58
2070.0 60 60 58 61 64 65 67 68 68 69
2110.0 70 70 72 70 72 73 74 76 76 75
2150.0 74 72 75 78 78 79 80 80 81 82
2190.0 80 81 81 80 82 82 81 82 80 82
2230.0 81 79 80 82 82 80 81 83 86 85
2270.0 84 84 83 81 82 83 81 80 81 80
2310.0 81 81 82 83 83 84 85 84 86 86
2350.0 88 88 85 83 83 82 82 83 85 87
2390.0 86 85 85 88 90 90 92 95 97 99
2430.0 97 96 95 93 95 93 92 92 93 91
2470.0 89 91 92 88 88 88 86 85 86 85
2510.0 84 85 86 86 85 84 84 86 87 86
2550.0 85 83 84 85 81 80 84 85 84 84
2590.0 85 86 85 84 85 88 89 89 90 90
2630.0 89 88 89 91 92 90 89 89 91 91
2670.0 92 95 100 100 101 103 108 111 114 118
2710.0 121 120 122 127 132 139 141 140 139 135
2750.0 131 132 137 140 142 146 151 156 161 161
2790.0 159 160 165 174 184 194 208 225 241 261
2830.0 275 293 319 339 358 380 403 436 477 530
2870.0 599 687 783 867 919 934 935 965 1042 1159
2910.0 1287 1406 1500 1592 1731 1963 2265 2515 2574 2407
2950.0 2124 1885 1781 1822 1964 2146 2334 2534 2709 2749
2990.0 2583 2272 1931 1615 1345 1130 967 832 715 608
3030.0 521 454 398 352 317 289 266 246 229 211
3070.0 198 190 180 171 169 167 165 161 153 152
3110.0 153 149 147 149 147 145 142 139 139 139
3150.0 138 134 132 134 132 127 127 129 127 126
3190.0 127 125 123 121 115 116 116 117 116 114
3230.0 111 110 109 102 104 108 105 104 103 100
3270.0 99 98 96 92 90 95 96 94 93 95
3310.0 91 88 92 96 91 88 92 92 88 88
3350.0 89 86 87 87 85 85 89 90 88 85
3390.0 83 86 90 90 91 90 87 84 84 86
3430.0 84 80 80 80 81 85 86 88 85 81
3470.0 85 87 84 84 81 79 85 84 80 81
3510.0 83 85 86 87 89 87 83 83 82 81
3550.0 83 85 87 87 83 87 90 86 87 86
3590.0 86 87 88 88 85 84 86 83 86 86
3630.0 85 86 82 91 92 89 88 88 92 91
3670.0 87 88 85 85 86 86 93 97 95 94
3710.0 90 89 93 94 95 98 97 93 92 93
3750.0 92 94 92 90 94 93 93 95 93 91
3790.0 89 89 87 92 98 94 92 93 92 94
3830.0 94 91 93 97 95
##END=
