##TITLE=1-Bromo-2,2-dimethoxypropane
##JCAMP-DX=4.24
##DATA TYPE=INFRARED SPECTRUM
##ORIGIN=EPA-IR VAPOR PHASE LIBRARY
##OWNER=SRD/NIST
Collection (C) 2018 copyright by the U.S. Secretary of Commerce
on behalf of the United States of America. All rights reserved.
##CAS REGISTRY NO=126-38-5
##MOLFORM=C 5 H 11 Br O 2
##$NIST SOURCE=MSDC-IR
##STATE=gas
##XUNITS=1/CM
##YUNITS=ABSORBANCE
##XFACTOR=1.
##YFACTOR=0.001
##DELTAX=1.92934
##FIRSTX=549.9
##LASTX=3999.5
##FIRSTY=6.6
##MAXX=3999.53
##MINX=549.863
##MAXY=0.2276
##MINY=0
##NPOINTS=1789
##XYDATA=(X++(Y..Y))
549.863 6.6 6.86 7.03 7.14 6.98 6.7 6.45 6.16 5.91 5.57
569.156 5.29 5.12 5.24 5.56 5.74 6.02 6.57 6.91 7.22 7.74
588.450 8.35 8.8 8.92 9.11 9.18 8.81 8.29 7.82 7.15 6.31
607.743 5.63 5.01 4.41 3.9 3.41 3.12 2.9214 2.7396 2.7718 2.82
627.037 2.7051 2.6289 2.6753 2.797 2.8364 2.8812 2.9753 2.9968 3.1 3.19
646.330 3.31 3.61 3.91 4.3 4.86 5.59 6.6 7.88 9.56 11.78
665.624 14.59 18.21 22.51 27.42 32.66 37.64 42.03 45.39 47.67 48.72
684.917 48.22 46.14 42.26 36.62 29.85 23.11 17.39 13.24 10.45 8.44
704.210 7.15 6.22 5.6 5.29 5.15 5.18 5.31 5.62 6.12 6.86
723.504 7.9 9.23 10.8 12.6 14.59 16.39 17.93 19.12 19.72 19.71
742.797 19.18 18.26 16.98 15.38 13.53 11.47 9.48 7.92 6.78 5.95
762.091 5.35 4.86 4.51 4.23 3.92 3.69 3.53 3.49 3.52 3.5
781.384 3.52 3.66 3.87 4.09 4.42 4.75 5.14 5.8 6.48 7.21
800.678 8.11 9.19 10.43 11.83 13.37 15.15 17.25 19.48 21.84 24.17
819.971 26.4 28.34 29.89 31.04 31.41 31.11 30.2 28.48 25.93 23.06
839.264 20.25 17.49 15.07 12.93 11.19 10.05 9.43 9.22 9.5 10.36
858.558 11.75 13.66 16.01 18.8 22.02 25.44 28.9 32.24 35.21 37.62
877.851 39.24 39.93 39.54 38.09 35.77 32.73 29.16 25.44 22.11 19.35
897.145 17.05 15.27 14.04 13.21 12.63 12.34 12.19 12.14 12.19 12.2
916.438 12.23 12.22 12.11 11.93 11.63 11.29 10.88 10.35 9.75 9.2
935.732 8.64 8.09 7.58 7.11 6.73 6.4 6.11 5.91 5.71 5.55
955.025 5.49 5.47 5.49 5.48 5.46 5.45 5.51 5.56 5.61 5.72
974.318 5.83 5.93 6.01 6.14 6.28 6.38 6.57 6.82 7.07 7.34
993.612 7.61 7.95 8.38 8.85 9.38 10.01 10.75 11.69 12.78 14.09
1012.905 15.64 17.54 19.82 22.59 25.87 29.83 34.69 40.59 47.67 56.08
1032.199 65.91 76.37 87.65 100.33 113.87 128.11 142.7 156.95 170.15 181.42
1051.492 190.02 195.51 197.96 197.73 195.33 191.11 185.27 178.44 171.48 165.56
1070.786 161.6 159.81 159.95 161.4 163.71 166.67 170.1 173.8 177.11 179.97
1090.079 182.84 186.32 190.93 196.48 202.9 209.68 216.12 221.69 225.66 227.6
1109.372 227.09 223.85 217.77 208.81 197.4 184.38 170.6 156.15 141.61 127.91
1128.666 115.39 104.25 94.78 87.27 81.42 77.01 73.97 71.8 70.36 69.73
1147.959 69.79 70.34 71.51 73.43 75.92 78.97 82.37 85.64 88.39 90.27
1167.253 91.52 92.14 91.53 90.04 87.7 84.26 80.36 76.6 73.26 70.45
1186.546 68.43 67.21 66.82 67.79 69.73 72.46 76.66 82.19 89.27 97.48
1205.840 105.42 113.14 119.97 124.87 127.87 128.77 126.62 122.13 116.34 109.02
1225.133 100.94 92.24 83.71 76.44 70.58 66.63 64.84 64.76 66.15 68.41
1244.426 71 73.78 76.3 78.41 79.87 80.33 79.49 77.1 73.55 69.54
1263.720 65.06 60.26 55.37 50.56 46.01 41.71 37.7 33.96 30.53 27.46
1283.013 24.82 22.42 20.33 18.57 17.02 15.71 14.56 13.59 12.68 11.91
1302.307 11.27 10.65 10.07 9.55 9.13 8.72 8.36 8.13 7.88 7.69
1321.600 7.61 7.55 7.51 7.53 7.57 7.59 7.62 7.69 7.81 7.94
1340.894 8.08 8.25 8.52 8.85 9.26 9.79 10.49 11.46 12.76 14.44
1360.187 16.6 19.38 22.63 26.38 30.69 35.32 40.04 44.63 48.9 52.73
1379.480 55.85 57.94 58 55.31 51.19 46.5 41.3 35.96 30.73 25.98
1398.774 21.87 18.52 16.08 14.56 13.87 13.98 14.82 16.33 18.52 21.2
1418.067 24.04 26.79 29.09 30.82 32.01 32.59 32.66 32.25 31.18 29.62
1437.361 27.83 26.3 25.17 24.42 24.07 23.98 24.08 24.26 24.49 24.76
1456.654 24.92 24.87 24.7 24.42 23.99 23.43 22.69 21.84 20.91 19.81
1475.948 18.66 17.5 16.34 15.15 14.02 12.94 11.92 11.09 10.32 9.55
1495.241 8.9 8.38 7.88 7.46 7.12 6.82 6.56 6.32 6.09 5.86
1514.534 5.71 5.62 5.49 5.33 5.24 5.17 5.06 4.99 4.91 4.85
1533.828 4.85 4.84 4.83 4.82 4.79 4.79 4.85 4.94 5.01 5.06
1553.121 5.09 5.15 5.22 5.28 5.3 5.28 5.28 5.3 5.28 5.22
1572.415 5.14 5.05 5 4.9 4.79 4.68 4.53 4.42 4.37 4.32
1591.708 4.21 4.15 4.13 4.08 4.06 4.06 4.06 4.07 4.06 4.07
1611.002 4.12 4.11 4.05 4.05 4.05 4 4.01 3.98 3.92 3.85
1630.295 3.79 3.72 3.68 3.69 3.63 3.62 3.61 3.58 3.53 3.47
1649.588 3.46 3.37 3.34 3.38 3.3 3.16 3.0789 3.0085 2.8867 2.8119
1668.882 2.7341 2.6007 2.4997 2.4393 2.3668 2.2827 2.2437 2.1933 2.13188 2.10215
1688.175 2.12349 2.12583 2.11508 2.13449 2.13971 2.17016 2.1868 2.1904 2.238 2.2723
1707.469 2.2113 2.17091 2.1898 2.17612 2.15114 2.14201 2.14162 2.14328 2.10104 2.10793
1726.762 2.16875 2.16852 2.17198 2.2578 2.3119 2.3073 2.338 2.362 2.4074 2.4936
1746.056 2.5436 2.5356 2.5757 2.593 2.5842 2.6032 2.5609 2.5343 2.5658 2.553
1765.349 2.502 2.4773 2.4809 2.4859 2.4726 2.4815 2.505 2.5181 2.5562 2.6308
1784.642 2.6932 2.7459 2.7763 2.7554 2.7369 2.7421 2.7924 2.7897 2.7661 2.8045
1803.936 2.7836 2.7291 2.6924 2.6707 2.6459 2.6062 2.5617 2.5391 2.5575 2.5444
1823.229 2.5056 2.4841 2.4718 2.4989 2.5131 2.4651 2.4423 2.4472 2.4167 2.4047
1842.523 2.3938 2.3778 2.3254 2.2829 2.2709 2.2501 2.2285 2.2257 2.2251 2.1944
1861.816 2.17374 2.17244 2.195 2.1944 2.1875 2.1802 2.1726 2.1874 2.1961 2.17669
1881.110 2.2136 2.2816 2.3158 2.3533 2.3872 2.42 2.4435 2.4695 2.4863 2.5333
1900.403 2.616 2.6674 2.6895 2.7593 2.8354 2.8649 2.9021 2.9697 3.0412 3.09
1919.696 3.09 3.0611 3.1 3.11 3.1 3.1 3.0596 3.0391 3.0217 2.9521
1938.990 2.8919 2.8151 2.7139 2.6412 2.5902 2.5343 2.476 2.4303 2.3882 2.4372
1958.283 2.458 2.4089 2.4477 2.5213 2.5644 2.6187 2.6405 2.6471 2.7216 2.7621
1977.577 2.8024 2.8549 2.8774 2.9013 2.947 2.9785 2.9991 2.9849 2.9437 2.8749
1996.870 2.8257 2.8049 2.7527 2.6797 2.6041 2.5463 2.5162 2.4726 2.3557 2.3085
2016.164 2.3192 2.2671 2.229 2.2375 2.2538 2.2299 2.2144 2.2064 2.16918 2.19
2035.457 2.207 2.2099 2.246 2.2463 2.2472 2.2896 2.2972 2.3226 2.3423 2.3684
2054.750 2.3844 2.4108 2.4891 2.568 2.6186 2.6335 2.7368 2.8611 2.9531 3.08
2074.044 3.21 3.32 3.43 3.54 3.63 3.69 3.73 3.77 3.81 3.81
2093.337 3.79 3.76 3.73 3.7 3.65 3.53 3.46 3.4 3.31 3.24
2112.631 3.19 3.12 3.038 3.0028 3.0144 2.9492 2.8711 2.8668 2.8222 2.7611
2131.924 2.7377 2.6925 2.6485 2.6158 2.5573 2.5165 2.5045 2.4732 2.4197 2.382
2151.218 2.3544 2.3154 2.2672 2.2171 2.15029 2.11739 2.07855 1.9816 1.946 1.893
2170.511 1.82 1.802 1.759 1.716 1.69 1.666 1.655 1.671 1.657 1.602
2189.804 1.578 1.559 1.543 1.577 1.614 1.578 1.528 1.518 1.495 1.493
2209.098 1.52 1.502 1.475 1.439 1.383 1.372 1.349 1.328 1.307 1.282
2228.391 1.282 1.248 1.231 1.235 1.249 1.247 1.247 1.291 1.299 1.322
2247.685 1.347 1.33 1.328 1.36 1.391 1.373 1.358 1.371 1.367 1.382
2266.978 1.38 1.341 1.341 1.35 1.342 1.342 1.337 1.34 1.369 1.386
2286.272 1.401 1.419 1.457 1.502 1.503 1.463 1.446 1.508 1.509 1.511
2305.565 1.507 1.513 1.546 1.494 1.477 1.493 1.494 1.482 1.477 1.506
2324.858 1.535 1.494 1.449 1.452 1.409 1.411 1.438 1.429 1.449 1.42
2344.152 1.385 1.36 1.353 1.342 1.32 1.331 1.327 1.305 1.264 1.214
2363.445 1.203 1.178 1.13 1.141 1.158 1.134 1.106 1.07 1.05 1.02
2382.739 0.98 0.99 1 0.96 0.96 0.96 0.91 0.87 0.9 0.96
2402.032 0.95 0.95 0.98 0.99 1.01 1.01 1 0.97 0.96 0.99
2421.326 1 0.98 1 1.01 1.02 1 0.99 1.02 0.97 0.96
2440.619 0.97 0.93 0.92 0.91 0.87 0.9 0.9 0.85 0.85 0.87
2459.912 0.85 0.85 0.88 0.87 0.88 0.9 0.89 0.9 0.93 0.92
2479.206 0.92 0.94 0.92 0.93 0.92 0.91 0.95 0.96 0.94 0.94
2498.499 0.89 0.87 0.93 0.93 0.85 0.86 0.91 0.91 0.9 0.86
2517.793 0.83 0.8 0.78 0.81 0.83 0.85 0.85 0.84 0.83 0.81
2537.086 0.82 0.83 0.85 0.86 0.89 0.98 1 0.95 0.93 0.97
2556.380 1.03 1.01 1 1.03 1.04 1.091 1.138 1.091 1.07 1.126
2575.673 1.184 1.22 1.244 1.29 1.344 1.403 1.408 1.412 1.447 1.463
2594.966 1.54 1.589 1.609 1.611 1.583 1.57 1.547 1.559 1.625 1.619
2614.260 1.622 1.655 1.666 1.671 1.662 1.649 1.64 1.712 1.751 1.749
2633.553 1.762 1.803 1.766 1.718 1.762 1.784 1.821 1.849 1.831 1.807
2652.847 1.81 1.748 1.669 1.656 1.635 1.658 1.651 1.638 1.631 1.531
2672.140 1.448 1.485 1.513 1.486 1.459 1.432 1.378 1.426 1.442 1.327
2691.434 1.288 1.311 1.301 1.268 1.297 1.306 1.317 1.367 1.357 1.328
2710.727 1.319 1.293 1.291 1.336 1.392 1.429 1.455 1.453 1.427 1.496
2730.020 1.553 1.541 1.609 1.655 1.711 1.742 1.769 1.814 1.884 1.963
2749.314 1.97 2.0254 2.07444 2.09448 2.13742 2.182 2.2294 2.2981 2.397 2.4697
2768.607 2.5301 2.6743 2.8092 2.9186 3.0413 3.27 3.46 3.6 3.79 4.01
2787.901 4.32 4.59 4.82 5.11 5.53 5.98 6.38 6.88 7.51 8.08
2807.194 8.82 9.65 10.53 11.62 12.84 14.23 16.09 18.39 21.14 24.45
2826.488 28.31 32.97 38.18 43.4 48.23 52.02 54.44 55.74 56.05 55.08
2845.781 52.79 49.16 44.28 39.06 34.1 29.78 26.46 23.95 22.27 21.22
2865.074 20.53 20.26 20.28 20.58 21.17 21.92 22.83 23.87 25.08 26.36
2884.368 27.68 29.15 30.67 32.33 34.03 35.81 37.54 39.34 41.28 43.11
2903.661 44.92 46.54 48.02 49.5 50.78 51.89 52.86 53.66 54.62 55.78
2922.955 57.14 58.84 61.03 63.9 67.43 71.79 77 82.83 89.07 95.43
2942.248 101.56 107.08 111.53 114.68 116.58 117.08 116.15 113.99 110.87 106.74
2961.542 102.03 97.38 92.96 89.05 85.52 82.4 80.04 78.29 76.93 76.07
2980.835 75.73 75.86 76.73 78.1 79.79 81.67 83.41 84.82 85.68 86.3
3000.128 86.37 85.34 83.31 80.01 75.52 70.32 64.59 58.62 52.44 46.13
3019.422 40.35 35.45 31.25 28.08 25.91 24.11 22.73 21.83 20.94 20.06
3038.715 19.34 18.58 17.78 16.9 16.13 15.29 14.41 13.77 13.19 12.55
3058.009 12.04 11.75 11.34 10.82 10.64 10.47 10.24 10.18 10.01 9.76
3077.302 9.53 9.27 9.03 8.75 8.5 8.34 8.08 7.78 7.61 7.46
3096.596 7.14 6.77 6.49 6.15 6 6.01 5.82 5.56 5.34 5.14
3115.889 4.91 4.66 4.48 4.23 3.87 3.74 3.71 3.5 3.26 3.0452
3135.182 2.9812 2.9748 2.8151 2.6171 2.5113 2.4288 2.2606 2.0483 1.924 1.873
3154.476 1.776 1.618 1.546 1.548 1.474 1.374 1.365 1.467 1.406 1.162
3173.769 1.05 1.01 1.03 1 0.93 0.93 0.91 1.01 0.92 0.79
3193.063 0.87 0.84 0.82 0.86 0.71 0.63 0.61 0.57 0.64 0.72
3212.356 0.85 0.79 0.52 0.4 0.36 0.32 0.47 0.59 0.62 0.6
3231.650 0.51 0.37 0.34 0.43 0.32 0.37 0.5 0.36 0.23 0.19
3250.943 0.2 0.25 0.3 0.37 0.25 0.26 0.29 0.22 0.23 0.06
3270.236 0.09 0.26 0.18 0.08 0.12 0.21 0.18 0 0 0.14
3289.530 0.15 0.25 0.27 0.31 0.35 0.12 0.2 0.3 0.15 0.06
3308.823 0.07 0.15 0.16 0.22 0.39 0.49 0.46 0.37 0.28 0.28
3328.117 0.28 0.2 0.14 0.27 0.33 0.26 0.35 0.45 0.32 0.14
3347.410 0.25 0.47 0.45 0.42 0.39 0.48 0.61 0.47 0.38 0.43
3366.704 0.39 0.36 0.4 0.37 0.32 0.24 0.38 0.48 0.46 0.49
3385.997 0.39 0.34 0.32 0.27 0.35 0.48 0.48 0.43 0.49 0.43
3405.290 0.28 0.34 0.4 0.43 0.5 0.48 0.48 0.52 0.44 0.4
3424.584 0.39 0.47 0.54 0.34 0.39 0.42 0.34 0.43 0.5 0.44
3443.877 0.35 0.4 0.41 0.24 0.25 0.38 0.35 0.34 0.37 0.43
3463.171 0.48 0.5 0.48 0.41 0.42 0.55 0.62 0.54 0.5 0.53
3482.464 0.53 0.56 0.52 0.56 0.67 0.69 0.52 0.44 0.53 0.52
3501.758 0.51 0.63 0.71 0.53 0.48 0.63 0.54 0.55 0.57 0.45
3521.051 0.51 0.54 0.56 0.58 0.53 0.56 0.55 0.59 0.56 0.52
3540.344 0.51 0.43 0.5 0.59 0.61 0.53 0.46 0.52 0.63 0.65
3559.638 0.56 0.53 0.54 0.51 0.48 0.55 0.72 0.7 0.53 0.64
3578.931 0.67 0.52 0.62 0.67 0.6 0.7 0.71 0.69 0.75 0.72
3598.225 0.66 0.56 0.49 0.53 0.53 0.58 0.58 0.62 0.68 0.64
3617.518 0.59 0.58 0.55 0.54 0.59 0.65 0.67 0.69 0.67 0.75
3636.812 0.73 0.62 0.68 0.7 0.61 0.66 0.72 0.76 0.81 0.79
3656.105 0.83 0.75 0.68 0.69 0.78 0.83 0.83 0.86 0.9 0.89
3675.398 0.87 0.82 0.86 0.84 0.72 0.7 0.72 0.88 0.88 0.76
3694.692 0.8 0.84 0.83 0.8 0.77 0.81 0.84 0.71 0.64 0.71
3713.985 0.84 0.89 0.84 0.86 0.93 0.87 0.82 0.85 0.77 0.74
3733.279 0.81 0.81 0.81 0.71 0.67 0.79 0.74 0.73 0.8 0.68
3752.572 0.64 0.68 0.69 0.69 0.68 0.82 0.84 0.75 0.63 0.63
3771.866 0.63 0.61 0.7 0.71 0.65 0.65 0.63 0.6 0.57 0.53
3791.159 0.57 0.61 0.67 0.65 0.7 0.84 0.83 0.81 0.83 0.77
3810.452 0.7 0.7 0.76 0.84 0.84 0.86 0.85 0.83 0.82 0.65
3829.746 0.65 0.72 0.8 0.85 0.76 0.85 0.89 0.84 0.82 0.88
3849.039 0.86 0.81 0.89 0.89 0.81 0.91 1.02 1.03 1.01 1.03
3868.333 1.135 1.092 1.07 1.139 1.07 1 1.04 1.07 1.08 1.138
3887.626 1.118 1.159 1.221 1.224 1.212 1.154 1.06 1.03 1.08 1.138
3906.920 1.181 1.207 1.25 1.162 1.03 1.06 1.124 1.108 1.169 1.117
3926.213 1.086 1.107 1.087 1.03 1 1.119 1.092 1.13 1.241 1.191
3945.506 1.199 1.333 1.306 1.179 1.173 1.158 1.187 1.264 1.189 1.314
3964.800 1.471 1.393 1.459 1.48 1.423 1.513 1.482 1.482 1.591 1.63
3984.093 1.597 1.536 1.654 1.759 1.753 1.768 1.729 1.739 1.74
##END=
