##TITLE=4,7-Dimethyl-5-decyn-4,7-diol
##JCAMP-DX=4.24
##DATA TYPE=INFRARED SPECTRUM
##ORIGIN=NIST Mass Spectrometry Data Center
##OWNER=NIST Standard Reference Data Program
Collection (C) 2018 copyright by the U.S. Secretary of Commerce
on behalf of the United States of America. All rights reserved.
##CAS REGISTRY NO=126-87-4
##MOLFORM=C 12 H 22 O 2
##$NIST SOURCE=MSDC-IR
##SPECTROMETER/DATA SYSTEM=HP-GC/MS/IRD
##STATE=gas
##XUNITS=1/CM
##YUNITS=ABSORBANCE
##XFACTOR=1.0
##YFACTOR=0.000001900
##DELTAX=4.0
##FIRSTX=550.0
##LASTX=3846.0
##FIRSTY=0.004005
##MAXX=3846
##MINX=550
##MAXY=0.019
##MINY=0
##NPOINTS=825
##XYDATA=(X++(Y..Y))
550.0 2108 1077 427 544 441 398 396 402 367 349
590.0 381 383 373 321 267 247 229 221 232 266
630.0 262 219 209 240 240 211 218 189 127 115
670.0 131 120 116 102 98 95 88 90 57 45
710.0 53 48 47 78 110 130 162 206 259 269
750.0 267 262 228 185 154 124 131 163 176 178
790.0 220 265 258 269 264 227 216 211 169 164
830.0 187 204 234 279 317 382 447 468 474 482
870.0 518 585 656 734 815 894 996 1097 1187 1273
910.0 1312 1355 1427 1549 1739 1987 2277 2466 2440 2189
950.0 1812 1406 1073 839 711 643 589 555 533 535
990.0 574 648 774 961 1189 1423 1631 1796 1909 1972
1030.0 1964 1905 1812 1737 1687 1640 1550 1433 1322 1245
1070.0 1223 1257 1314 1381 1428 1454 1503 1578 1692 1867
1110.0 2098 2382 2711 3089 3485 3810 4017 4077 4028 3923
1150.0 3809 3654 3458 3217 2947 2660 2423 2288 2236 2254
1190.0 2331 2416 2450 2424 2366 2268 2154 2042 1938 1857
1230.0 1801 1788 1760 1736 1773 1814 1854 1929 2013 2081
1270.0 2150 2210 2276 2341 2389 2422 2434 2457 2526 2662
1310.0 2880 3179 3520 3854 4163 4388 4486 4451 4272 4012
1350.0 3750 3530 3374 3282 3212 3195 3191 3040 2687 2226
1390.0 1757 1398 1150 972 862 792 765 767 775 809
1430.0 885 1001 1120 1220 1346 1463 1567 1616 1593 1513
1470.0 1359 1142 888 667 519 434 373 329 303 293
1510.0 282 256 249 237 211 196 180 178 177 159
1550.0 147 141 143 123 102 105 103 94 79 76
1590.0 79 73 78 75 69 81 86 83 82 75
1630.0 72 84 80 69 68 83 88 65 52 54
1670.0 56 55 48 60 63 40 46 63 58 45
1710.0 43 56 50 17 12 24 33 22 25 38
1750.0 43 33 27 29 34 47 43 32 36 43
1790.0 47 50 51 49 38 29 35 43 45 47
1830.0 45 44 49 47 47 42 37 44 46 49
1870.0 50 40 32 33 33 28 26 30 34 33
1910.0 32 33 31 33 28 25 29 23 29 37
1950.0 42 46 54 49 32 30 32 34 35 39
1990.0 43 45 39 28 30 34 42 48 46 49
2030.0 36 27 32 41 43 44 54 54 53 55
2070.0 51 44 42 49 52 52 45 45 47 41
2110.0 43 49 48 49 46 38 41 50 51 50
2150.0 57 58 52 44 49 62 67 55 59 72
2190.0 71 67 62 60 62 71 75 72 76 66
2230.0 60 58 58 74 72 59 57 64 63 63
2270.0 61 59 73 68 56 57 62 64 57 56
2310.0 55 43 42 47 42 35 38 45 39 40
2350.0 45 39 22 13 33 41 49 68 74 67
2390.0 61 60 67 71 71 73 64 62 64 56
2430.0 53 61 53 46 49 45 44 39 37 32
2470.0 39 34 32 36 36 41 35 36 34 33
2510.0 43 43 39 40 48 41 25 25 40 45
2550.0 35 35 37 30 34 40 34 37 52 53
2590.0 46 48 55 49 50 56 52 53 47 47
2630.0 54 56 51 39 44 57 58 55 65 68
2670.0 45 55 69 64 78 80 73 70 81 82
2710.0 79 95 113 118 129 141 150 172 199 192
2750.0 181 166 150 153 159 177 193 194 193 214
2790.0 238 255 280 309 338 363 409 463 498 538
2830.0 603 686 795 946 1113 1258 1401 1568 1777 2044
2870.0 2432 2961 3553 3978 4074 3833 3459 3203 3167 3368
2910.0 3780 4323 4847 5322 5856 6566 7456 8319 8692 8339
2950.0 7600 7116 7445 8531 9638 10000 9541 8959 8605 8113
2990.0 7036 5449 3911 2744 1925 1449 1165 970 852 763
3030.0 683 608 561 507 445 405 368 315 279 258
3070.0 247 235 230 228 202 188 190 196 201 181
3110.0 180 177 151 138 135 144 143 141 136 124
3150.0 117 117 125 122 122 130 123 101 100 116
3190.0 116 120 117 113 111 97 94 89 79 70
3230.0 69 69 55 57 50 37 40 30 31 35
3270.0 30 21 19 43 45 24 12 11 0 21
3310.0 42 12 9 23 16 10 24 45 31 18
3350.0 16 30 45 50 43 28 34 46 57 66
3390.0 49 56 68 49 35 23 21 22 27 36
3430.0 24 8 16 24 35 38 33 30 11 2
3470.0 22 34 34 48 47 40 37 30 36 40
3510.0 34 29 38 36 24 15 8 10 16 25
3550.0 28 29 6 19 41 33 36 37 42 66
3590.0 74 69 73 96 142 167 185 280 447 722
3630.0 1125 1504 1780 1838 1589 1124 704 424 238 155
3670.0 127 108 78 58 64 72 59 47 42 33
3710.0 24 18 21 16 0 21 48 37 46 40
3750.0 26 30 14 0 1 17 31 40 43 52
3790.0 47 23 16 31 33 23 29 26 40 37
3830.0 22 23 12 0 5
##END=
