##TITLE=2,3-Dichlorothiophene-5-sulphonyl chloride
##JCAMP-DX=4.24
##DATA TYPE=INFRARED SPECTRUM
##ORIGIN=EPA-IR VAPOR PHASE LIBRARY
##OWNER=SRD/NIST
Collection (C) 2018 copyright by the U.S. Secretary of Commerce
on behalf of the United States of America. All rights reserved.
##CAS REGISTRY NO=126714-85-0
##MOLFORM=C 4 H Cl 3 O 2 S 2
##$NIST SOURCE=MSDC-IR
##STATE=gas
##XUNITS=1/CM
##YUNITS=ABSORBANCE
##XFACTOR=1.
##YFACTOR=0.001
##DELTAX=1.92898
##FIRSTX=549.8
##LASTX=4000.7
##FIRSTY=27.138
##MAXX=4000.7
##MINX=549.759
##MAXY=0.404738
##MINY=0
##NPOINTS=1790
##XYDATA=(X++(Y..Y))
549.759 27.138 26.918 27.858 28.988 31.258 36.318 45.648 58.948 76.458 99.278
569.049 124.668 152.268 178.188 198.928 209.398 198.358 173.228 148.428 125.788 105.268
588.339 89.668 82.488 85.018 99.658 127.458 169.368 227.168 293.308 354.138 394.698
607.628 404.738 383.238 333.228 263.768 187.568 121.038 74.538 47.578 32.798 23.818
626.918 18.628 15.058 13.128 11.848 10.318 9.308 8.988 8.048 6.468 6.098
646.208 5.948 5.538 5.448 5.398 4.848 4.828 4.778 4.748 4.698 4.988
665.498 5.698 5.888 6.518 6.638 6.868 7.048 6.588 6.538 6.258 6.188
684.787 6.458 6.948 8.238 9.828 12.718 17.758 25.058 35.048 46.938 57.328
704.077 62.638 63.358 59.688 50.898 37.138 22.718 13.218 8.818 7.078 5.778
723.367 5.088 5.048 4.718 4.698 4.898 4.558 4.568 4.268 4.348 5.178
742.657 5.318 5.188 5.038 5.368 5.278 5.128 5.428 5.458 5.278 4.578
761.947 3.568 2.998 3.458 3.328 2.688 2.568 2.278 2.138 2.228 2.278
781.236 2.228 2.148 2.038 1.738 1.968 2.158 1.688 1.6613 2.038 2.498
800.526 2.728 2.508 2.388 2.188 1.938 2.248 2.528 2.988 3.248 3.008
819.816 4.278 5.698 6.208 5.168 3.528 4.828 5.958 5.678 6.248 7.918
839.106 9.588 11.498 14.208 17.398 20.368 22.918 25.858 28.608 29.638 29.648
858.395 30.728 32.208 32.968 33.038 33.448 33.388 31.848 29.978 27.348 23.708
877.685 19.858 16.068 12.978 10.568 8.878 7.498 6.408 6.208 5.448 4.508
896.975 4.228 4.468 4.578 4.908 5.628 5.758 5.398 5.428 5.858 5.528
916.265 5.278 5.238 4.858 4.508 4.228 3.748 3.958 3.898 3.168 3.208
935.555 3.548 3.058 2.548 3.008 3.078 3.018 2.758 2.878 3.268 3.208
954.844 3.058 2.828 3.408 3.888 3.658 3.828 4.098 4.218 4.008 3.778
974.134 4.488 4.668 5.008 5.708 6.228 7.088 7.838 8.168 8.768 10.148
993.424 11.418 13.418 16.058 18.658 21.528 25.828 32.268 40.398 50.758 63.728
1012.714 77.938 92.868 108.198 121.418 131.648 137.168 136.578 130.698 119.878 105.728
1032.003 90.708 75.698 63.448 55.558 49.338 43.608 39.398 35.738 32.898 28.998
1051.293 24.678 21.748 16.968 12.798 11.348 10.058 8.608 7.458 6.628 6.268
1070.583 6.048 5.518 5.508 6.158 4.968 4.478 5.338 4.698 4.348 4.988
1089.873 5.578 5.868 6.708 6.898 6.558 6.478 5.638 3.888 2.928 4.508
1109.163 6.248 6.038 5.518 5.428 6.208 7.058 6.828 7.188 7.878 7.978
1128.452 8.228 9.638 11.328 11.918 13.078 15.228 18.118 22.958 26.598 30.618
1147.742 37.198 43.348 48.378 51.738 53.468 54.558 55.968 58.148 62.018 68.658
1167.032 79.368 94.868 116.448 145.598 179.018 215.958 252.328 280.878 298.188 297.478
1186.322 278.748 245.998 205.468 165.288 127.598 95.598 72.288 56.028 45.108 37.538
1205.611 36.618 38.348 38.298 37.428 35.558 37.058 38.228 34.528 30.158 27.168
1224.901 22.578 17.958 14.808 12.238 10.218 8.478 8.238 7.798 7.448 7.378
1244.191 6.308 6.288 5.808 5.138 5.478 5.378 5.678 5.818 5.198 5.558
1263.481 5.718 5.098 5.168 5.508 6.008 6.448 6.858 7.718 8.728 9.018
1282.771 9.268 9.838 10.548 11.408 12.098 12.928 13.848 14.488 14.778 14.938
1302.060 15.508 16.748 17.888 19.568 22.888 27.358 33.138 40.768 50.298 61.068
1321.350 72.078 81.828 88.248 90.058 87.158 80.008 68.938 55.268 41.918 32.018
1340.640 26.028 22.618 20.448 19.058 18.318 17.628 17.188 17.238 17.538 17.928
1359.930 18.458 18.818 19.758 21.778 24.848 28.998 34.128 40.658 49.158 59.678
1379.219 72.728 88.598 108.118 131.638 159.898 193.028 229.698 266.918 300.888 327.418
1398.509 344.418 352.598 350.728 337.658 313.878 283.058 250.838 219.458 184.808 145.168
1417.799 107.678 77.168 56.028 41.888 32.728 27.458 23.898 21.488 19.758 18.128
1437.089 16.488 14.928 13.388 12.048 10.718 9.368 8.338 7.328 6.368 5.428
1456.378 4.638 4.248 3.908 3.628 3.398 3.238 3.138 2.678 2.338 2.468
1475.668 2.518 2.598 2.718 2.788 2.818 2.788 2.818 3.018 3.528 3.798
1494.958 3.998 4.608 5.418 6.378 7.508 8.828 10.438 11.988 13.228 13.808
1514.248 13.668 13.258 12.278 10.548 8.538 7.008 5.958 5.098 4.448 4.218
1533.538 3.738 3.208 2.988 2.528 2.158 2.088 1.808 1.788 2.148 1.938
1552.827 1.688 1.888 2.138 1.968 1.918 2.298 2.428 2.698 2.788 2.848
1572.117 2.708 2.338 2.368 2.568 2.448 2.268 2.128 1.958 1.978 1.968
1591.407 1.718 1.698 1.748 1.758 1.958 1.838 1.858 1.888 1.5576 1.5559
1610.697 1.6533 1.666 1.698 1.758 1.868 1.908 1.948 2.018 2.328 2.608
1629.986 2.708 2.688 2.578 2.448 2.448 2.498 2.608 2.508 2.318 2.388
1649.276 2.328 2.228 2.158 2.178 2.618 2.598 2.388 2.668 2.698 2.518
1668.566 2.528 2.588 2.538 2.828 3.008 2.918 3.028 3.158 3.308 3.678
1687.856 3.968 4.188 4.348 4.438 4.678 4.808 4.838 4.928 4.938 4.448
1707.146 4.168 4.218 3.898 3.438 3.158 3.218 3.248 3.258 3.398 3.608
1726.435 3.748 3.738 3.558 3.168 2.938 2.808 2.658 2.448 2.408 2.518
1745.725 2.158 1.838 1.6183 1.728 1.858 1.6062 1.6435 1.624 1.5063 1.5019
1765.015 1.4035 1.2983 1.2805 1.3329 1.4069 1.426 1.4264 1.3621 1.3782 1.4502
1784.305 1.4521 1.3257 1.168 1.2089 1.3187 1.2822 1.2853 1.3257 1.2788 1.2402
1803.594 1.3299 1.4752 1.5248 1.4913 1.3295 1.1731 1.2825 1.383 1.2519 1.1518
1822.884 1.1827 1.33 1.1624 0.9266 1.0145 1.0268 1.0854 1.1045 0.9365 1.0276
1842.174 1.0342 0.9605 1.1153 1.1909 1.3262 1.489 1.5139 1.4625 1.5086 1.5052
1861.464 1.2869 1.2103 1.3647 1.435 1.2827 1.1672 1.295 1.4218 1.429 1.6651
1880.754 1.6705 1.4103 1.6094 1.878 1.828 1.738 1.868 1.788 1.5849 1.768
1900.043 1.858 1.688 1.688 1.898 1.908 1.758 1.728 1.748 1.768 1.778
1919.333 1.617 1.5317 1.6772 1.718 1.6363 1.4354 1.2924 1.3059 1.3623 1.2831
1938.623 1.0617 1.0299 1.2069 1.2881 1.191 1.1951 1.1094 1.1114 1.079 0.9815
1957.913 1.191 1.1381 1.2149 1.28 1.1327 1.1527 1.2065 1.2114 1.2649 1.2523
1977.202 0.993 1.008 1.1126 1.1603 1.2721 1.1493 0.9947 1.2259 1.2678 1.043
1996.492 1.0685 1.138 1.1523 1.1307 1.1466 1.1605 1.1796 1.3419 1.3703 1.277
2015.782 1.1443 1.092 1.1551 1.2394 1.3212 1.4671 1.5295 1.4123 1.3373 1.4475
2035.072 1.5109 1.581 1.6213 1.5688 1.5794 1.6015 1.5489 1.5809 1.778 1.6462
2054.362 1.5597 1.778 1.868 1.738 1.5778 1.3497 1.2843 1.3917 1.4994 1.5444
2073.651 1.5576 1.698 1.838 1.898 1.918 1.838 1.708 1.688 1.6332 1.5631
2092.941 1.6235 1.5952 1.555 1.758 1.898 1.748 1.5296 1.5465 1.5765 1.3598
2112.231 1.169 1.211 1.364 1.339 1.3471 1.4629 1.3443 1.3487 1.3868 1.2923
2131.521 1.2277 1.0657 1.2222 1.3309 1.0904 1.0177 1.0929 1.0456 1.0407 1.173
2150.810 1.1036 1.0403 1.0991 1.0889 1.0681 0.9296 0.9759 1.1895 1.4532 1.5832
2170.100 1.451 1.3844 1.4074 1.3782 1.3275 1.3656 1.5013 1.561 1.3765 1.2004
2189.390 1.2322 1.2736 1.3204 1.3394 1.2959 1.2477 1.3003 1.4122 1.5867 1.5261
2208.680 1.3332 1.505 1.5775 1.5249 1.3668 1.3427 1.2618 1.1703 1.2918 1.1934
2227.970 0.9198 0.8809 1.2162 1.2091 1.185 1.1492 0.916 0.9416 1.0779 1.1663
2247.259 1.1371 0.9221 0.8693 1.0301 1.0818 1.0275 1.007 1.1516 1.0448 1.0747
2266.549 1.0207 0.8079 1.0015 1.068 0.9528 1.1128 1.137 1.1269 1.2794 1.2376
2285.839 0.9729 0.9079 1.0527 1.0855 1.108 1.0938 1.0991 1.1253 1.2128 1.2691
2305.129 1.181 1.0444 1.0996 1.2218 1.1201 0.9619 1.1897 1.4239 1.3299 1.1993
2324.418 1.1969 1.2338 1.2594 1.321 1.2528 1.0616 1.177 1.1499 1.0394 1.2353
2343.708 1.2841 1.375 1.5486 1.6411 1.798 1.968 2.048 2.118 2.028 1.908
2362.998 1.848 1.718 1.6416 1.938 2.038 1.898 1.858 1.6597 1.6274 1.778
2382.288 1.858 1.878 1.728 1.5398 1.6268 1.748 1.928 2.038 2.268 2.408
2401.578 2.488 2.528 2.598 2.748 2.838 3.248 3.528 3.418 3.448 3.588
2420.867 3.418 3.248 3.238 3.078 2.768 2.658 2.508 2.308 2.258 1.878
2440.157 1.2725 1.0573 1.1735 1.3187 1.1531 1.3631 1.4205 1.3734 1.2856 1.1503
2459.447 1.4933 1.2738 1.2153 1.2352 1.0262 1.0258 1.0824 0.8805 0.88 1.1583
2478.737 1.1743 1.2107 1.1709 1.0454 0.8586 0.9302 1.1707 1.0326 0.9903 1.1768
2498.026 1.0497 0.9286 0.9206 0.6637 0.8087 1.0821 1.006 1.1271 1.1321 0.976
2517.316 1.1559 1.211 1.0386 1.1776 1.2459 1.3865 1.708 1.768 1.5275 1.3893
2536.606 1.6027 1.728 1.898 1.998 1.818 1.6645 1.4478 1.4278 2.038 2.418
2555.896 2.358 2.388 2.498 2.438 2.288 2.418 2.598 2.498 2.458 2.628
2575.186 2.488 2.618 2.898 2.798 2.958 3.088 2.778 2.518 2.518 2.308
2594.475 1.818 1.6358 1.5609 1.3718 1.4833 1.394 1.1221 1.3458 1.708 1.2296
2613.765 0.989 1.364 1.3532 1.1692 1.078 1.1703 1.275 1.3024 1.3024 1.1504
2633.055 1.0359 0.9679 0.76612 0.9844 1.0657 0.8627 1.2232 1.778 1.448 0.786
2652.345 0.8342 1.2941 1.5586 1.6543 1.788 1.878 1.738 1.3816 1.1489 1.3664
2671.634 1.2891 1.2071 1.4336 1.4465 1.4388 1.3207 1.3612 1.5389 1.3782 1.1002
2690.924 1.0942 1.3862 1.4548 1.5796 1.6355 1.1608 0.8878 0.8788 1.2436 1.2072
2710.214 0.9507 0.76805 0.8587 0.9198 0.9123 1.4019 1.4987 1.1015 1.001 1.2207
2729.504 1.0325 1.1871 1.3825 1.2147 1.1009 0.447 0.208 0.68487 0.6549 0.887
2748.794 0.9237 0.6275 0.67977 0.538 0.585 0.6718 0.68696 0.9631 0.8868 0.695212
2768.083 0.8945 0.9891 1.151 1.1773 0.73803 0.374 0.73384 1.0616 1.3282 1.3546
2787.373 1.1915 1.3514 1.3177 1.1705 1.1491 1.5193 1.718 1.4725 1.2299 1.2963
2806.663 1.4439 1.3364 1.1398 1.1495 0.9633 0.9367 0.9371 0.9492 1.2151 1.0273
2825.953 1.0939 1.3357 1.2028 1.284 1.022 0.72661 0.7135 0.71316 0.8576 0.9558
2845.242 1.2736 1.3387 1.2592 1.0041 0.6069 0.477 0.529 0.70862 1.0348 0.9397
2864.532 0.8712 0.9449 0.823 0.7395 0.9305 1.1825 0.9838 0.8275 0.77291 0.6438
2883.822 0.545 0.7986 0.8276 0.69804 0.6773 0.75327 0.77202 0.72471 0.921 0.6684
2903.112 0.369 0.454 0.525 0.6191 0.8352 1.0946 1.1723 1.1214 0.7939 0.74021
2922.401 0.9131 0.9756 1.1329 1.0766 0.696796 0.69941 0.6533 0.5 0.5953 0.6734
2941.691 0.513 0.381 0.9757 0.7967 0.6376 1.0344 1.0142 0.838 0.9023 1.0676
2960.981 1.0743 1.1406 1.0455 0.9186 0.8339 0.74691 0.72014 0.8551 1.0545 0.89
2980.271 0.582 0.409 0.369 0.51 0.73463 0.72453 0.8927 1.0068 0.8617 0.9027
2999.561 0.9449 1.1971 1.3441 1.18 0.656 0.309 0.477 0.8538 1.0392 1.0023
3018.850 1.1388 1.0426 0.9169 1.1069 1.3182 1.3144 1.4437 1.708 1.556 0.9933
3038.140 0.483 0.8233 0.9581 0.74144 0.9171 0.8612 0.8208 0.6754 0.8922 1.1435
3057.430 1.0063 1.2828 1.1365 0.9824 1.3307 1.4354 1.6441 1.698 1.2319 0.8127
3076.720 0.6508 0.8655 1.2391 1.4919 1.938 2.308 2.698 3.538 3.638 3.518
3096.009 4.328 4.958 5.788 7.298 8.868 10.248 11.388 11.308 10.498 9.818
3115.299 8.308 6.098 4.198 2.818 2.078 1.645 1.5394 1.5592 1.0121 0.8377
3134.589 1.1026 1.2558 0.975 1.1401 1.6704 1.3369 0.8412 1.013 1.1723 1.008
3153.879 1.0216 0.76829 0.459 0.445 0.8353 1.1407 1.1663 1.2033 1.0505 1.1595
3173.169 1.0531 0.8817 0.9243 1.2451 1.5887 1.3031 1.4235 1.6551 1.3247 1.2349
3192.458 1.698 1.4715 0.6776 0.6226 0.8228 0.8516 0.8531 1.0251 0.9703 0.4
3211.748 0.334 0.73154 0.8391 1.2181 1.5088 1.5766 1.3147 1.1485 1.2521 0.9531
3231.038 1.0816 1.4876 1.1516 0.9917 1.2159 1.2495 1.4469 1.5055 1.5853 1.3532
3250.328 1.0236 1.1909 1.0016 0.9003 0.465 0.399 1.2262 1.5145 1.1531 0.55
3269.617 0.33 0.6284 0.9753 0.9383 0.8831 0.482 0.262 0.8695 1.3467 1.1864
3288.907 1.4841 1.4939 0.8816 0.75104 0.73192 0.6724 0.9395 1.1696 1.2049 0.9486
3308.197 0.363 0.289 0.6625 0.6004 1.0469 1.768 1.848 1.1508 0.15 0.6529
3327.487 0.9116 0.525 0.49 0.7924 0.9206 1.1103 1.2486 1.2643 1.6153 1.517
3346.777 1.1013 1.1831 1.1394 0.672 0.344 0.491 0.747 0.6249 0.363 0.437
3366.066 0.9608 1.1112 1.089 1.1389 0.9862 0.9631 1.3073 1.254 1.0456 1.2171
3385.356 0.8949 0.392 0.457 1.0884 1.2495 0.8429 0.9989 0.858 0.70052 1.0477
3404.646 1.4598 1.5455 1.4999 1.0875 0.77264 1.1834 1.1434 0.9098 0.8369 0.8346
3423.936 1.2882 1.818 1.3299 0.8594 1.5311 1.6349 0.928 0.447 0.549 0.448
3443.225 0.46 1.1191 1.4599 1.6787 1.5988 1.0186 0.8181 0.68105 0.9315 1.5611
3462.515 1.5875 1.3694 0.5913 0.208 0.567 1.3005 1.4245 1.0101 0.8775 0.175
3481.805 0.245 0.689255 0.853 1.0371 0.8995 0.8943 1.1414 1.1626 0.77308 0.348
3501.095 0.519 0.70065 0.9898 1.2219 1.1453 1.0429 0.8745 1.0178 0.78036 0.8837
3520.385 0.9227 1.0349 1.1329 0.9229 0.8902 0.9854 1.2213 1.1597 0.7985 0.9135
3539.674 1.1501 1.4659 1.818 1.4623 1.231 1.4541 1.1667 0.7503 1.2101 1.675
3558.964 1.6045 1.2562 0.9674 0.881 1.0379 1.16 0.8096 0.75707 1.2261 1.0756
3578.254 0.8013 0.8173 1.0823 1.0751 0.6309 0.6227 0.5895 0.627 0.8913 1.0148
3597.544 1.3787 1.2638 0.6253 0.8708 1.4151 0.8055 0.424 1.2485 1.2768 0.9416
3616.833 1.5303 1.6504 1.2272 0.78422 0.76311 1.0534 1.2134 1.1563 1.2588 1.3418
3636.123 1.2922 1.2991 0.8791 0.6504 0.384 0.371 1.0703 1.5682 1.4015 0.9993
3655.413 0.48 0.6117 0.5944 0.1 0.268 0.17 0.394 1.0732 0.6363 0.012
3674.703 0.407 0.7998 0.8411 1.0511 1.403 1.4301 0.6525 0.222 0.584 0.9842
3693.993 1.1327 1.1617 0.8675 0.561 0.533 0.5987 0.547 0.873 0.8716 1.0183
3713.282 1.3613 1.1355 1.2812 1.3771 1.4875 1.698 1.2784 0.9428 1.2187 0.9023
3732.572 0.6296 0.6699 0.8352 0.70232 0.547 1.1198 0.9577 0.491 0.78548 0.9008
3751.862 0.7114 1.048 1.4125 0.8781 0.9122 1.3701 1.2588 1.5289 1.798 1.206
3771.152 0.7983 0.8627 1.0768 1.5198 1.459 0.507 0.217 0.6732 0.6681 0.7778
3790.441 1.2536 0.8227 0.443 0.8565 0.8606 0.7 0.6244 0.361 0.376 0.8022
3809.731 1.0826 1.2273 1.0483 0.78165 0.55 0.572 1.3612 1.938 1.6325 1.2928
3829.021 1.0826 1.2057 1.3758 1.2724 1.0328 0.697064 0.201 0 0.6752 0.6692
3848.311 0.5926 1.0073 0.539 0.5998 1.2722 1.2589 1.0489 0.9245 1.2292 1.4479
3867.601 1.1886 1.0326 0.9689 0.8513 0.688923 1.0384 0.8593 0.71552 1.2818 1.2854
3886.890 1.4035 1.278 1.708 2.298 1.4829 1.1539 1.2127 1.0233 1.0951 0.694522
3906.180 0.571 0.6631 0.6183 0.9958 1.5477 1.0737 0.8353 1.0386 0.6248 0.8115
3925.470 0.9671 1.3085 1.6453 1.878 1.998 1.3862 0.78593 0.2 0.168 0.586
3944.760 0.76922 0.799 0.9173 0.9835 0.805 0.71986 1.4721 1.828 1.2794 1.5209
3964.049 1.748 1.788 1.2364 0.8385 1.4557 1.6286 1.3124 1.1024 1.4786 1.1128
3983.339 0.832 1.2548 1.5385 1.5644 1.3171 1.357 1.2181 0.9184 0.78387 0.71029
##END=
