##TITLE=2-Fluoro-4-(trifluoromethyl)benzoyl chloride
##JCAMP-DX=4.24
##DATA TYPE=INFRARED SPECTRUM
##ORIGIN=EPA-IR VAPOR PHASE LIBRARY
##OWNER=SRD/NIST
Collection (C) 2018 copyright by the U.S. Secretary of Commerce
on behalf of the United States of America. All rights reserved.
##CAS REGISTRY NO=126917-10-0
##MOLFORM=C 8 H 3 Cl F 4 O
##$NIST SOURCE=MSDC-IR
##STATE=gas
##XUNITS=1/CM
##YUNITS=ABSORBANCE
##XFACTOR=1.
##YFACTOR=0.001
##DELTAX=1.92898
##FIRSTX=549.8
##LASTX=4000.7
##FIRSTY=5.459
##MAXX=4000.7
##MINX=549.759
##MAXY=0.205599
##MINY=0
##NPOINTS=1790
##XYDATA=(X++(Y..Y))
549.759 5.459 6.279 6.149 5.889 6.379 6.229 6.089 6.789 7.229 6.809
569.049 6.439 6.619 6.399 6.649 7.709 8.039 7.709 7.739 8.629 8.719
588.339 7.729 7.149 6.619 6.229 6.229 6.029 6.169 6.259 5.919 5.559
607.628 5.109 4.539 3.839 3.589 3.599 3.149 3.199 3.129 2.699 2.639
626.918 2.749 3.019 2.859 2.639 2.749 3.229 2.909 2.389 2.899 2.959
646.208 2.979 3.739 4.269 4.369 4.809 4.889 4.969 5.859 7.029 7.819
665.498 9.609 11.949 13.629 15.619 17.529 19.699 21.539 22.109 21.189 19.029
684.787 17.009 15.369 12.999 10.839 8.859 6.649 5.419 4.839 4.159 3.489
704.077 3.379 2.929 2.239 2.299 2.439 2.329 2.099 2.049 1.879 1.8062
723.367 2.139 2.239 2.629 2.979 3.249 3.679 4.419 5.649 7.969 12.399
742.657 18.309 22.689 23.949 23.829 23.199 19.709 12.899 7.229 4.569 3.619
761.947 3.119 2.469 2.219 2.819 3.179 3.139 2.999 2.759 2.629 2.669
781.236 2.649 2.979 3.199 3.299 3.679 4.179 4.979 5.729 6.169 6.439
800.526 7.099 8.219 9.589 10.589 11.389 12.209 13.489 15.679 18.339 21.309
819.816 24.769 28.589 33.499 38.789 43.769 49.169 54.839 60.519 66.039 70.649
839.106 73.429 74.869 75.379 73.569 70.229 65.409 59.119 52.699 46.699 42.399
858.395 39.219 37.189 36.319 35.229 34.499 34.459 34.189 33.379 32.739 31.929
877.685 31.619 31.839 31.469 31.099 30.899 29.149 26.179 23.659 21.369 19.239
896.975 17.649 16.209 15.139 14.909 15.489 16.909 19.539 23.309 28.499 35.659
916.265 45.599 58.749 73.299 87.299 98.399 104.269 104.119 98.059 86.639 71.729
935.555 56.619 43.909 34.619 28.289 23.519 20.559 17.819 15.069 13.309 11.749
954.844 10.219 9.059 8.199 7.259 6.649 6.449 5.659 5.119 4.759 3.939
974.134 3.869 3.999 3.909 3.789 3.669 3.529 4.059 4.219 3.729 3.909
993.424 3.749 3.419 3.269 3.589 3.299 2.679 3.059 2.879 2.329 2.329
1012.714 2.349 1.969 1.919 2.089 1.549 1.847 3.279 3.059 2.479 2.589
1032.003 2.699 3.219 3.049 2.849 3.059 3.759 4.499 5.129 5.689 6.789
1051.293 8.619 10.259 13.339 18.389 25.489 34.549 43.179 50.509 54.599 54.039
1070.583 51.069 45.019 35.179 25.509 18.689 14.179 11.929 9.799 7.809 7.679
1089.873 8.379 8.379 7.259 6.779 7.649 8.499 7.849 7.209 8.089 7.839
1109.163 7.619 9.649 10.859 12.419 14.559 16.809 19.489 21.489 23.849 26.139
1128.452 27.829 30.739 34.059 36.039 39.239 43.869 49.749 56.509 64.099 73.709
1147.742 85.749 99.349 114.069 129.549 145.149 159.849 169.229 169.419 163.799 155.059
1167.032 143.819 132.919 125.019 122.999 127.649 138.019 148.729 155.189 155.879 151.229
1186.322 143.979 134.959 126.069 116.479 105.119 95.029 86.209 76.589 67.509 59.319
1205.611 50.529 43.989 40.079 39.149 41.949 47.409 52.329 55.929 57.679 55.249
1224.901 50.369 42.639 34.319 26.139 18.169 12.719 10.829 9.869 8.289 7.449
1244.191 6.989 7.069 6.879 7.249 7.569 7.939 8.669 8.539 9.129 10.249
1263.481 10.659 10.659 10.349 10.289 10.299 10.059 10.109 10.099 10.009 10.139
1282.771 10.539 11.879 13.259 14.969 17.759 20.629 23.819 26.969 29.599 31.629
1302.060 32.459 32.629 32.739 32.339 32.369 33.939 37.679 44.109 53.589 67.419
1321.350 86.729 111.639 140.649 169.639 192.999 205.599 204.659 190.179 163.429 128.379
1340.640 92.579 64.229 45.179 32.979 25.019 19.509 15.719 13.229 11.469 10.079
1359.930 9.059 8.309 7.629 7.049 6.659 6.399 6.199 5.949 5.699 5.519
1379.219 5.499 5.629 5.849 6.109 6.389 6.879 7.599 8.279 9.179 10.499
1398.509 12.249 14.289 16.539 19.329 22.399 25.929 29.739 33.959 38.629 43.839
1417.799 49.839 56.709 63.619 70.329 76.279 79.789 80.099 77.319 71.469 63.459
1437.089 53.319 42.989 34.129 26.779 20.989 16.889 13.729 11.089 9.119 7.809
1456.378 6.869 6.279 5.969 5.489 5.259 5.019 4.669 4.789 4.759 4.639
1475.668 5.119 5.779 6.289 6.919 8.049 9.259 10.619 12.509 14.729 16.759
1494.958 18.739 20.679 21.859 22.149 21.639 20.659 18.749 16.119 13.529 10.949
1514.248 8.939 7.439 6.199 5.369 4.719 4.149 3.539 3.229 3.169 3.129
1533.538 3.049 2.779 2.669 2.549 2.449 2.379 2.589 2.669 2.619 2.789
1552.827 3.019 3.429 3.709 3.939 4.579 5.059 5.709 6.579 7.369 8.429
1572.117 9.429 10.029 10.499 11.099 11.289 11.169 10.869 10.219 9.229 8.179
1591.407 7.449 6.679 5.709 5.059 4.739 4.249 4.129 4.199 4.279 4.949
1610.697 5.639 6.119 6.559 7.119 7.869 8.459 8.899 9.079 8.779 8.339
1629.986 7.719 6.989 6.209 5.419 4.849 4.239 3.739 3.579 3.679 3.629
1649.276 3.159 2.879 2.989 2.899 2.779 2.889 2.729 2.819 3.009 3.069
1668.566 3.179 3.049 3.259 3.539 3.509 3.439 3.519 3.659 3.779 3.829
1687.856 3.709 3.569 3.719 3.699 3.839 4.189 4.459 4.689 4.509 4.549
1707.146 4.819 4.889 5.149 5.469 5.699 6.109 6.709 7.219 7.609 8.069
1726.435 8.529 8.989 9.569 10.079 10.699 11.239 11.689 12.339 12.889 13.439
1745.725 14.089 14.959 15.929 17.069 18.419 20.089 22.029 24.099 26.499 29.039
1765.015 31.449 33.839 36.249 38.099 39.779 41.149 42.059 42.779 43.659 44.729
1784.305 46.269 48.599 51.579 55.849 61.469 67.779 73.809 78.549 80.959 81.229
1803.594 80.039 76.629 69.949 61.359 52.779 45.169 38.619 33.169 28.709 25.049
1822.884 22.179 19.859 17.789 15.809 13.899 12.209 10.789 9.499 8.309 7.309
1842.174 6.549 5.899 5.159 4.419 3.859 3.449 3.309 3.249 3.149 2.889
1861.464 2.599 2.529 2.439 2.189 2.029 2.109 2.019 1.939 1.989 1.869
1880.754 1.8252 1.8287 1.7747 1.8264 1.7493 1.7759 1.8345 1.8069 1.929 1.929
1900.043 1.8155 1.859 1.849 1.879 2.109 2.049 1.899 1.919 2.029 2.179
1919.333 2.199 2.209 2.099 2.029 2.049 2.019 1.859 1.6087 1.3067 1.2234
1938.623 1.2558 1.0771 1.0165 1.207 1.3046 1.1481 1.0625 1.0031 0.9729 1.0631
1957.913 1.069 1.0136 0.9897 1.0374 1.0049 1.0602 1.1208 1.0061 1.0425 1.0443
1977.202 1.075 1.2485 1.209 1.0973 1.1446 1.037 0.9916 1.1108 1.1554 1.088
1996.492 0.9786 1.0075 1.0262 1.0501 1.1153 1.1156 1.0378 1.001 1.0425 0.8881
2015.782 0.8216 1.0593 1.1336 1.0378 1.0078 0.9493 1.0319 1.2436 1.3759 1.3077
2035.072 1.2004 1.161 1.055 1.0551 1.1758 1.2541 1.1454 1.1008 1.296 1.3856
2054.362 1.2309 1.2155 1.3528 1.3494 1.1694 1.1701 1.2585 1.3405 1.4254 1.346
2073.651 1.4411 1.3702 1.3496 1.4266 1.4144 1.4374 1.3969 1.3432 1.209 1.0922
2092.941 1.1111 1.1585 1.0759 1.14 1.1786 1.0064 0.9294 0.9823 1.0541 1.0611
2112.231 1.1454 1.1818 1.1664 0.94615 0.7867 1.0848 1.2042 1.2356 1.3341 1.2406
2131.521 1.1411 1.0603 0.9882 1.0464 1.2398 1.409 1.334 1.2918 1.286 1.1945
2150.810 1.1154 1.183 1.1499 1.0735 1.1411 1.0839 0.84301 0.89789 1.0872 1.085
2170.100 1.0682 0.90645 0.8258 0.955 0.9884 0.806 0.8172 0.84007 0.7715 0.89025
2189.390 0.92362 0.9622 1.0708 1.1075 1.0089 0.90527 0.84733 0.94037 1.2148 1.1677
2208.680 1.0372 1.0641 1.0467 1.0999 1.2003 1.207 1.2366 1.1766 1.1554 1.2708
2227.970 1.2863 1.1955 1.1335 1.2213 1.2942 1.4292 1.5296 1.367 1.2678 1.4676
2247.259 1.4912 1.2387 1.1734 1.4082 1.4807 1.39 1.3336 1.2535 1.2666 1.4294
2266.549 1.4774 1.3432 1.269 1.2982 1.3435 1.1722 1.0885 1.2812 1.4704 1.5467
2285.839 1.3457 1.1147 1.405 1.5992 1.3852 1.2218 1.2273 1.3752 1.3867 1.2365
2305.129 1.331 1.5333 1.4338 1.3624 1.3142 1.3315 1.351 1.2713 1.2541 1.4468
2324.418 1.7155 1.4544 1.4003 1.4229 1.367 1.5436 1.4922 1.3684 1.3974 1.6452
2343.708 1.4597 1.3577 1.5241 1.5812 1.5712 1.656 1.6343 1.457 1.4716 1.3814
2362.998 1.2395 1.2721 1.4733 1.4711 1.5412 1.5387 1.2674 1.1819 1.3546 1.2745
2382.288 1.2728 1.4098 1.2563 1.2897 1.4366 1.4619 1.2915 1.292 1.4145 1.4274
2401.578 1.4937 1.2764 1.1758 1.3158 1.2175 1.2069 1.11 0.9679 1.3589 1.3986
2420.867 1.0745 1.0869 0.9848 1.029 1.1506 1.0125 1.1597 1.1455 0.89706 0.93337
2440.157 1.2157 1.3706 1.1224 1.0064 1.3346 1.443 1.0834 1.0168 1.0832 1.0842
2459.447 1.2139 1.1899 1.0117 1.0768 1.0903 0.9639 1.1104 1.0871 1.1409 1.4002
2478.737 1.2197 1.0211 1.0497 1.0425 0.9503 0.8752 1.1382 1.2972 1.2594 1.4247
2498.026 1.2992 1.0475 1.1494 1.2459 1.1028 0.84022 0.93459 1.1493 1.3028 1.3555
2517.316 1.2255 1.0473 0.8091 0.9993 1.1755 1.1482 1.0654 1.0394 1.3529 1.3902
2536.606 1.0723 1.1075 1.2067 1.1763 1.1247 1.0067 0.9794 0.94735 1.0466 0.94173
2555.896 1.0164 1.1563 1.0348 1.1999 1.4106 1.3916 1.1954 0.90151 0.73 0.94067
2575.186 1.1379 1.245 1.1254 0.7584 0.609 0.704 0.8074 0.92811 1.0179 0.9947
2594.475 0.9779 0.92785 1.1365 1.1242 0.8079 0.849678 0.92734 0.87298 0.7518 0.688
2613.765 0.8189 1.1168 1.2251 1.0367 0.86645 1.0323 1.1416 1.091 0.89803 0.708
2633.055 1.0434 1.2687 1.1473 0.9603 1.0028 1.0296 1.0701 1.1578 1.0822 1.1578
2652.345 1.1973 1.2448 1.2872 1.3126 1.3865 1.3814 1.1535 0.86147 0.9575 1.0076
2671.634 0.8781 0.8608 0.9936 0.88036 0.582 0.848439 1.032 0.88046 1.0363 0.88054
2690.924 0.616 0.88953 1.164 1.3075 1.362 1.0157 0.7977 0.89929 1.0091 0.8175
2710.214 0.727 1.0017 1.1073 0.8595 0.7559 1.1164 1.3122 1.3339 1.2887 1.3563
2729.504 1.2393 1.2317 1.3028 1.0989 1.0598 1.1351 1.1417 0.9665 0.7661 0.8346
2748.794 1.0921 1.2577 1.1739 0.9754 1.0697 1.1507 1.0487 1.2003 1.5952 1.3909
2768.083 0.9999 0.8243 0.56 0.89263 1.0071 0.9832 1.2475 1.1335 1.2307 1.2753
2787.373 0.9677 0.852482 0.90305 1.045 1.0091 0.87695 0.93239 0.87188 0.7515 0.90151
2806.663 1.1328 1.0492 1.1351 1.203 0.7842 0.7743 0.9995 1.0899 1.1525 1.1059
2825.953 1.1302 1.0073 0.9817 0.9856 0.743 0.578 0.8093 0.9699 0.86596 1.0131
2845.242 1.0711 0.89002 0.93524 0.9711 1.0332 1.0683 0.7922 0.575 0.628 0.8273
2864.532 0.854518 0.737 0.91913 1.0052 0.8099 0.9623 0.9921 0.87647 0.9861 1.0312
2883.822 1.0421 1.1654 1.0854 1.0886 0.9607 0.518 0.68 0.8884 1.0169 1.13
2903.112 1.2064 1.3622 1.4005 1.3917 1.2866 0.91403 0.9973 1.4001 1.2769 1.2073
2922.401 1.1146 0.93332 0.87681 1.1284 1.0905 0.87109 0.83974 0.7786 0.94572 0.9965
2941.691 1.0489 1.1757 1.251 1.4973 1.5583 1.3731 1.1603 1.2941 1.4296 1.3619
2960.981 1.143 0.90103 1.0055 0.92872 0.89029 0.88691 0.9237 1.0652 0.91167 0.88686
2980.271 1.097 1.1601 0.9265 0.9804 1.1603 0.9602 0.86946 0.7562 0.9534 1.6019
2999.561 1.4468 1.0893 1.1372 0.8071 0.8038 0.9932 0.9705 0.671 0.586 1.0445
3018.850 0.88822 0.856166 0.7597 0.461 0.712 1.0443 1.1704 0.93414 0.737 0.724
3038.140 0.773 0.679 0.629 0.87069 0.992 0.94771 0.90505 0.9856 0.9711 0.8038
3057.430 1.0007 1.332 1.4461 1.3545 1.3391 1.3593 1.7023 1.6839 1.4355 1.7078
3076.720 2.019 1.969 1.6796 1.513 1.4948 1.522 1.4739 1.6458 2.009 2.279
3096.009 2.029 1.8153 1.6558 1.2813 1.1544 1.25 0.88055 0.747 1.017 1.1164
3115.299 1.2555 1.0305 1.1201 1.2425 0.93523 0.89356 0.8258 0.852774 0.646 0.655
3134.589 0.88488 0.88577 0.90508 0.69 0.7931 0.653 0.595 0.738 0.585 0.658
3153.879 0.666 0.554 0.419 0.325 0.304 0.494 0.7552 0.741 0.9506 1.0983
3173.169 0.754 0.72 1.0439 0.698 0.503 0.453 0.263 0.725 1.1081 0.7782
3192.458 0.28 0.625 0.557 0.126 0.386 0.7688 0.687 0.399 0.408 0.603
3211.748 0.8105 0.8282 0.7827 0.601 0.701 0.67 0.17 0.527 0.9574 0.53
3231.038 0.717 0.8624 0.641 0.8259 0.815 0.89973 0.88715 0.426 0.238 0.8362
3250.328 1.3318 1.0272 0.616 0.658 1.003 0.90488 0.83906 1.1009 1.0702 0.7729
3269.617 0.493 0.632 0.635 0.303 0.414 0.27 0.151 0.512 0.655 0.736
3288.907 1.0265 0.696 0.395 0.453 0.625 0.86538 0.585 0.365 0.304 0.198
3308.197 0.554 1.0144 1.0998 1.1353 0.8166 0.7952 0.94494 0.697 0.472 0.87974
3327.487 1.3635 0.88881 0.433 0.458 0.48 0.7895 0.737 0.384 0.515 0.643
3346.777 0.515 0.4 0.587 0.742 0.592 0.489 0.685 0.86787 0.90118 0.8102
3366.066 0.579 0.53 0.411 0.25 0.237 0.53 0.709 0.682 0.609 0.519
3385.356 0.673 0.8298 0.91924 0.9758 0.88032 0.93561 0.7989 0.186 0 0.121
3404.646 0.422 0.686 0.692 0.644 0.611 0.515 0.613 0.7541 0.7769 1.0285
3423.936 0.8176 0.633 0.707 0.8066 1.1631 1.406 1.1426 0.9927 1.4355 1.4592
3443.225 0.986 0.443 0.591 0.67 0.56 0.609 0.646 0.8027 0.679 0.697
3462.515 0.742 0.668 0.523 0.464 0.713 0.9554 0.9594 0.9936 0.8094 0.9931
3481.805 0.89761 0.674 0.976 1.1087 1.0362 0.9873 0.9645 0.8041 0.679 1.0911
3501.095 1.0899 0.8841 1.3423 1.5985 1.4922 1.417 1.6495 1.5669 1.2716 1.273
3520.385 1.2646 1.3475 1.2491 1.0709 1.0165 1.0016 1.1553 1.1506 1.3766 1.3493
3539.674 1.2331 1.0568 0.9772 1.2541 1.6252 1.5957 1.6239 1.919 1.849 1.4333
3558.964 1.0933 1.3134 1.8281 1.8333 1.4469 1.448 1.6877 1.7569 1.5816 1.372
3578.254 1.5554 1.6268 1.3557 1.4819 1.2651 1.0916 1.2835 1.616 1.7155 1.5119
3597.544 1.1884 1.1578 1.1457 1.3419 1.8407 1.6258 1.6512 1.7039 1.4425 1.2014
3616.833 0.94607 0.681 0.353 0.679 1.0329 1.0711 0.823 0.499 0.727 0.61
3636.123 0.35 0.362 0.375 0.681 0.726 0.345 0.424 0.89527 0.706 0.386
3655.413 0.724 0.9744 1.0569 1.1149 1.0066 0.67 0.7559 0.9495 0.705 1.03
3674.703 1.0005 0.9553 0.9941 0.578 0.504 0.7677 1.0749 1.033 0.727 0.579
3693.993 1.0372 1.1959 0.701 0.272 0.039 0.367 0.674 0.822 0.748 0.654
3713.282 1.1227 1.3141 1.1974 1.0689 0.94777 0.743 0.776 0.484 0.662 1.281
3732.572 1.0053 0.94849 0.9619 0.709 0.622 0.452 0.396 0.7895 0.94047 0.507
3751.862 0.666 0.719 0.253 0.289 0.741 0.8769 0.639 0.245 0.557 1.1717
3771.152 0.9775 0.87017 0.7992 0.9931 0.9625 0.515 0.688 0.739 0.399 0.48
3790.441 0.605 0.556 0.8358 0.619 0.578 1.0253 1.1133 0.93999 0.723 0.611
3809.731 0.724 1.0356 1.0925 0.7939 0.681 0.519 0.35 0.702 0.84182 0.61
3829.021 0.653 0.598 0.416 0.708 1.1697 1.136 0.704 0.91907 0.92219 0.551
3848.311 0.759 1.041 1.0933 1.1071 0.93858 0.622 0.7725 1.0174 0.9716 0.681
3867.601 0.345 0.661 0.94352 0.741 0.467 0.465 0.7581 0.623 0.531 0.717
3886.890 0.714 0.559 0.217 0.594 0.9964 0.87539 1.016 1.1182 1.1723 1.2347
3906.180 1.017 1.3532 1.3897 1.0728 1.0735 0.8192 0.94218 1.1779 1.1668 0.9317
3925.470 0.87067 0.8958 0.89767 0.93071 0.9991 1.2953 1.2252 0.89807 0.87218 0.401
3944.760 0.391 0.86714 0.8389 0.91173 1.129 1.0777 1.006 1.6102 1.7791 1.2298
3964.049 0.703 0.712 1.1273 1.0215 0.74 0.68 0.82 0.94736 0.7513 0.8251
3983.339 1.0086 0.685 0.7753 0.90621 0.594 0.62 0.426 0.565 1.2364 1.2706
##END=
