##TITLE=2-Phenyl-3-butyn-2-ol
##JCAMP-DX=4.24
##DATA TYPE=INFRARED SPECTRUM
##ORIGIN=NIST Mass Spectrometry Data Center
##OWNER=NIST Standard Reference Data Program
Collection (C) 2018 copyright by the U.S. Secretary of Commerce
on behalf of the United States of America. All rights reserved.
##CAS REGISTRY NO=127-66-2
##MOLFORM=C 10 H 10 O
##$NIST SOURCE=MSDC-IR
##SPECTROMETER/DATA SYSTEM=HP-GC/MS/IRD
##STATE=gas
##XUNITS=1/CM
##YUNITS=ABSORBANCE
##XFACTOR=1.0
##YFACTOR=0.000001400
##DELTAX=4.0
##FIRSTX=550.0
##LASTX=3846.0
##FIRSTY=0.000711
##MAXX=3846
##MINX=550
##MAXY=0.014
##MINY=0
##NPOINTS=825
##XYDATA=(X++(Y..Y))
550.0 508 785 819 1156 1616 2180 2696 3057 2968 2633
590.0 2366 2227 2335 2592 2773 2820 2921 3376 4547 6341
630.0 8271 9584 10000 8686 7179 7543 8224 7825 6563 5380
670.0 4440 3738 3530 3908 4672 5611 6730 7301 6618 5487
710.0 4354 3174 2225 1591 1237 1105 1097 1187 1452 1935
750.0 2546 3199 3942 4201 3550 2753 2067 1406 928 610
790.0 402 277 176 118 72 30 8 19 69 96
830.0 142 179 194 260 332 414 576 811 1092 1411
870.0 1715 1909 1965 1866 1682 1493 1360 1344 1444 1630
910.0 1891 2226 2586 3015 3407 3558 3452 3090 2487 1839
950.0 1270 827 569 431 348 287 269 270 260 297
990.0 363 427 532 726 998 1380 1953 2793 3683 4348
1030.0 4739 4846 4581 4123 3835 3703 3711 3889 4180 4594
1070.0 5013 5413 5732 5862 5729 5345 4784 4129 3508 2994
1110.0 2626 2360 2202 2123 2118 2200 2328 2457 2602 2715
1150.0 2791 2882 2934 2922 2913 2949 3006 2996 2907 2767
1190.0 2596 2448 2443 2599 2830 3148 3484 3744 3888 3879
1230.0 3740 3544 3401 3429 3682 4154 4711 5049 5055 4835
1270.0 4424 3939 3569 3374 3351 3480 3690 3953 4343 4811
1310.0 5151 5316 5350 5156 4738 4245 3787 3367 2984 2652
1350.0 2409 2254 2186 2225 2325 2472 2556 2363 1996 1614
1390.0 1209 895 715 613 566 554 583 649 734 875
1430.0 1104 1445 1832 2162 2340 2316 2158 1813 1411 1120
1470.0 972 978 1116 1352 1631 1818 1816 1606 1283 917
1510.0 570 343 248 206 178 158 149 139 123 111
1550.0 88 79 98 89 62 71 111 164 237 342
1590.0 462 591 669 668 591 457 309 189 106 53
1630.0 20 10 9 8 4 1 11 14 37 78
1670.0 113 132 128 116 92 51 34 41 35 26
1710.0 26 31 37 26 39 72 87 86 97 114
1750.0 122 118 106 84 75 81 83 101 134 188
1790.0 259 322 353 356 315 247 188 132 89 63
1830.0 50 42 25 32 43 53 70 93 132 180
1870.0 215 239 273 304 305 281 250 196 149 109
1910.0 76 70 73 94 122 160 222 269 307 341
1950.0 366 356 309 250 190 137 84 48 38 27
1990.0 26 27 25 25 18 9 2 2 9 11
2030.0 2 4 10 9 14 16 15 29 45 40
2070.0 29 26 26 35 31 27 31 33 44 55
2110.0 50 49 54 53 45 42 37 22 20 23
2150.0 22 13 9 20 17 16 34 37 24 23
2190.0 27 29 35 28 20 26 22 17 17 29
2230.0 40 37 34 28 27 38 42 36 35 42
2270.0 47 43 38 39 40 44 40 28 27 49
2310.0 71 83 94 105 99 82 79 84 93 74
2350.0 53 74 79 76 77 70 64 60 43 47
2390.0 63 58 45 40 48 62 60 48 64 58
2430.0 55 63 45 23 34 34 38 53 30 16
2470.0 33 38 21 24 30 22 19 20 23 27
2510.0 10 21 35 16 19 32 23 8 14 38
2550.0 31 11 12 17 14 20 26 22 34 41
2590.0 32 49 61 56 52 61 59 51 51 48
2630.0 42 48 43 34 45 44 51 68 63 64
2670.0 75 82 71 55 58 60 60 48 27 15
2710.0 13 6 14 37 39 36 22 1 10 32
2750.0 34 37 48 36 27 39 44 39 24 12
2790.0 11 26 50 51 51 72 94 96 95 82
2830.0 75 69 62 81 101 120 162 212 273 336
2870.0 396 443 442 430 424 399 387 366 326 334
2910.0 375 409 481 619 827 1104 1356 1553 1612 1477
2950.0 1249 1022 825 698 676 784 1053 1599 2450 3503
2990.0 4402 4817 4687 4051 3088 2209 1671 1464 1506 1694
3030.0 1963 2226 2404 2473 2453 2406 2450 2733 3270 3853
3070.0 4190 4192 3924 3403 2786 2335 2051 1780 1499 1228
3110.0 982 765 569 427 305 210 163 151 158 144
3150.0 115 99 108 120 113 117 124 98 75 55
3190.0 46 54 73 77 62 75 75 58 73 93
3230.0 87 70 88 113 109 127 172 212 253 309
3270.0 405 536 689 859 1053 1341 1790 2318 2787 3246
3310.0 3942 5003 6146 6741 6739 6302 4886 2953 1662 1035
3350.0 696 506 399 330 279 239 187 136 132 122
3390.0 111 114 95 92 98 61 40 48 54 69
3430.0 60 46 46 44 29 21 21 37 54 48
3470.0 49 44 43 49 46 43 63 77 49 44
3510.0 61 43 39 55 50 51 34 23 44 55
3550.0 34 8 9 19 41 61 41 46 71 90
3590.0 105 122 182 234 277 394 583 880 1336 1906
3630.0 2512 2993 3073 2709 2185 1594 1048 688 469 328
3670.0 254 229 188 130 100 87 80 81 67 66
3710.0 65 54 59 34 28 31 17 35 36 43
3750.0 69 70 43 37 23 0 24 48 41 16
3790.0 3 14 9 8 3 3 9 1 9 12
3830.0 1 0 0 3 10
##END=
