##TITLE=l-.beta.-Pinene
##JCAMP-DX=4.24
##DATA TYPE=INFRARED SPECTRUM
##ORIGIN=NIST Mass Spectrometry Data Center
##OWNER=NIST Standard Reference Data Program
Collection (C) 2018 copyright by the U.S. Secretary of Commerce
on behalf of the United States of America. All rights reserved.
##CAS REGISTRY NO=127-91-3
##MOLFORM=C 10 H 16
##$NIST SOURCE=MSDC-IR
##SPECTROMETER/DATA SYSTEM=HP-GC/MS/IRD
##STATE=gas
##XUNITS=1/CM
##YUNITS=ABSORBANCE
##XFACTOR=1.0
##YFACTOR=0.000004200
##DELTAX=4.0
##FIRSTX=550.0
##LASTX=3846.0
##FIRSTY=0.000311
##MAXX=3846
##MINX=550
##MAXY=0.042
##MINY=0
##NPOINTS=825
##XYDATA=(X++(Y..Y))
550.0 74 58 47 64 77 47 55 71 75 114
590.0 148 160 172 152 116 85 52 42 46 42
630.0 35 33 36 33 30 21 19 21 8 0
670.0 13 28 17 11 15 17 21 23 24 24
710.0 30 39 38 38 35 34 41 46 48 55
750.0 72 90 111 132 135 129 114 89 75 82
790.0 82 79 80 72 66 69 70 69 66 76
830.0 97 139 193 249 315 398 491 606 818 1133
870.0 1433 1739 2083 2053 1693 1363 999 650 422 302
910.0 246 215 198 191 177 168 161 150 135 128
950.0 127 126 125 123 120 120 111 96 85 71
990.0 60 48 49 53 50 49 48 47 45 48
1030.0 49 60 83 102 129 151 150 126 106 100
1070.0 81 59 57 70 88 106 133 159 177 187
1110.0 189 180 161 146 150 161 176 185 184 171
1150.0 152 128 100 81 70 71 88 106 135 166
1190.0 190 219 235 242 240 228 213 197 179 178
1230.0 185 185 187 184 192 205 209 199 188 169
1270.0 149 140 136 135 137 141 145 148 153 157
1310.0 159 158 146 134 123 105 96 98 106 125
1350.0 153 211 289 362 452 594 677 703 755 790
1390.0 720 603 512 396 290 233 216 233 273 339
1430.0 417 499 583 642 699 755 805 874 946 958
1470.0 917 854 759 637 506 395 304 226 168 132
1510.0 113 101 91 85 80 74 67 61 59 58
1550.0 59 55 53 60 63 68 77 82 88 95
1590.0 103 114 128 150 183 231 298 401 540 712
1630.0 893 1053 1158 1179 1095 932 733 538 378 268
1670.0 199 158 131 110 93 82 73 66 57 52
1710.0 50 49 48 50 52 56 60 62 71 86
1750.0 106 131 151 167 171 159 140 113 88 69
1790.0 53 40 35 33 25 21 21 22 21 21
1830.0 21 15 15 17 16 17 19 16 18 17
1870.0 12 11 12 9 9 13 13 12 15 9
1910.0 9 9 10 13 11 8 8 10 11 8
1950.0 10 10 5 8 9 8 8 6 9 10
1990.0 8 10 17 15 13 13 10 15 19 19
2030.0 17 12 11 13 15 15 14 14 15 12
2070.0 12 17 17 15 15 17 18 22 22 17
2110.0 15 17 20 18 17 17 18 19 21 17
2150.0 14 18 16 12 16 22 21 16 15 15
2190.0 14 14 16 15 14 15 13 15 15 10
2230.0 10 11 12 11 10 11 13 11 10 10
2270.0 10 11 13 11 11 13 15 17 14 6
2310.0 7 12 17 15 11 10 14 14 12 12
2350.0 11 10 10 8 8 10 8 6 8 7
2390.0 6 9 11 13 14 14 14 12 10 9
2430.0 9 9 5 7 11 7 3 5 5 2
2470.0 5 3 4 7 7 9 11 11 12 16
2510.0 16 16 17 17 16 18 19 16 18 22
2550.0 23 23 23 25 25 22 18 16 17 19
2590.0 15 15 17 17 19 18 15 15 16 19
2630.0 24 27 28 28 32 44 49 53 58 56
2670.0 52 48 48 41 36 36 36 34 37 44
2710.0 51 58 69 82 93 104 110 110 101 96
2750.0 95 95 95 101 111 116 113 114 116 119
2790.0 126 135 144 151 166 178 194 213 226 252
2830.0 290 339 407 491 590 718 885 1115 1427 1822
2870.0 2242 2647 2967 3097 3141 3171 3189 3348 3817 4712
2910.0 5850 7031 8395 9352 9766 10000 9619 8970 8537 7921
2950.0 7150 6557 5914 5207 4632 4209 4028 3974 3996 4105
2990.0 4037 3884 3436 2707 2062 1476 1008 724 567 486
3030.0 438 402 382 374 381 410 463 560 724 897
3070.0 1021 1165 1150 948 782 570 372 268 213 182
3110.0 169 163 152 140 134 132 121 109 110 111
3150.0 104 92 86 86 81 77 72 70 66 52
3190.0 45 47 42 38 37 33 29 28 30 28
3230.0 25 22 16 14 13 13 13 15 18 15
3270.0 16 20 20 20 23 19 15 14 19 24
3310.0 25 20 14 18 21 17 15 22 28 30
3350.0 30 30 28 28 27 30 30 23 16 15
3390.0 21 22 14 18 24 18 16 16 17 19
3430.0 26 22 17 19 21 21 19 22 27 30
3470.0 24 19 18 16 15 10 6 4 2 5
3510.0 13 16 17 18 15 14 15 16 19 24
3550.0 19 16 17 12 12 17 12 7 11 13
3590.0 10 14 16 7 2 7 11 13 10 12
3630.0 15 10 12 20 14 9 14 15 16 15
3670.0 14 22 21 15 12 11 10 10 11 17
3710.0 25 23 19 17 19 22 19 23 27 22
3750.0 24 24 20 24 23 21 21 28 27 24
3790.0 29 28 30 32 30 29 34 41 44 46
3830.0 45 38 42 46 45
##END=
