##TITLE=4-Chloro-3-nitrophenyl isothiocyanate
##JCAMP-DX=4.24
##DATA TYPE=INFRARED SPECTRUM
##ORIGIN=EPA-IR VAPOR PHASE LIBRARY
##OWNER=SRD/NIST
Collection (C) 2018 copyright by the U.S. Secretary of Commerce
on behalf of the United States of America. All rights reserved.
##CAS REGISTRY NO=127142-66-9
##MOLFORM=C 7 H 3 Cl N 2 O 2 S
##$NIST SOURCE=MSDC-IR
##STATE=gas
##XUNITS=1/CM
##YUNITS=ABSORBANCE
##XFACTOR=1.
##YFACTOR=0.001
##DELTAX=1.92898
##FIRSTX=549.8
##LASTX=4000.7
##FIRSTY=9.064
##MAXX=4000.7
##MINX=549.759
##MAXY=0.803874
##MINY=0
##NPOINTS=1790
##XYDATA=(X++(Y..Y))
549.759 9.064 8.594 7.944 7.494 7.324 7.184 7.194 7.164 7.124 7.374
569.049 7.384 7.124 7.284 7.564 8.164 8.724 8.634 8.454 8.464 8.744
588.339 8.774 8.834 8.974 8.544 8.314 8.404 8.394 8.324 8.384 8.324
607.628 8.204 8.114 7.854 7.584 7.414 7.154 6.874 6.694 6.574 6.504
626.918 6.234 5.914 5.694 5.404 5.094 4.684 4.334 4.264 4.154 3.904
646.208 3.854 3.814 3.884 4.124 4.444 5.084 5.994 7.144 8.794 11.074
665.498 13.924 16.984 20.004 22.544 23.934 24.134 22.904 20.624 18.124 15.784
684.787 13.814 12.344 11.524 11.084 11.114 11.354 11.434 11.274 11.094 10.744
704.077 10.054 9.204 8.334 7.624 7.044 6.884 6.524 5.994 5.854 5.604
723.367 5.454 5.564 5.774 5.974 6.144 6.474 6.764 7.124 7.774 8.794
742.657 10.124 11.684 13.754 16.814 20.874 25.914 31.814 38.394 44.544 49.394
761.947 52.544 53.304 51.434 46.964 40.544 33.314 26.464 20.684 16.414 13.674
781.236 11.854 10.444 9.354 8.424 7.674 7.094 6.964 7.024 7.094 7.524
800.526 8.184 9.114 10.894 13.524 17.184 21.894 27.344 33.204 38.754 44.324
819.816 49.544 52.294 49.604 43.064 36.574 30.494 24.844 19.794 15.574 12.954
839.106 11.654 11.214 11.994 13.674 15.704 17.924 20.064 21.874 23.064 23.804
858.395 24.024 23.334 22.034 20.584 19.544 19.054 19.454 20.974 23.184 25.854
877.685 28.414 30.624 31.914 31.054 28.304 24.754 21.044 17.444 13.974 10.904
896.975 8.444 6.624 5.434 4.614 4.114 3.964 3.914 3.934 4.014 4.064
916.265 4.014 3.924 3.884 3.644 3.314 3.024 2.814 2.774 2.724 2.554
935.555 2.494 2.754 2.764 2.534 2.584 2.814 2.924 3.024 3.384 3.674
954.844 3.864 4.194 4.664 5.314 6.114 7.054 8.034 9.244 11.154 13.734
974.134 16.574 19.864 23.044 25.824 27.974 28.894 28.484 26.724 23.784 20.344
993.424 17.084 14.214 11.844 9.884 8.104 6.704 5.994 5.534 4.954 4.614
1012.714 4.364 4.004 4.254 4.454 4.194 4.384 4.944 5.564 6.334 7.094
1032.003 8.154 10.264 13.074 16.854 22.364 29.434 38.204 48.384 58.534 66.564
1051.293 70.744 70.734 66.234 57.494 46.304 35.054 25.564 18.554 14.224 11.684
1070.583 9.864 8.244 7.134 6.474 6.154 6.214 6.254 6.204 6.604 7.164
1089.873 7.354 7.464 7.514 7.254 7.184 7.434 7.484 7.344 7.694 8.504
1109.163 9.494 10.534 11.974 14.554 17.244 20.364 24.454 28.664 32.384 35.524
1128.452 37.774 38.284 36.994 34.154 30.574 26.954 23.604 20.974 18.384 15.894
1147.742 13.744 11.714 9.764 7.994 6.714 5.984 5.474 5.384 5.624 5.594
1167.032 5.424 5.274 5.374 5.154 4.834 4.914 5.124 4.954 4.494 4.524
1186.322 4.904 4.674 4.304 4.464 4.514 4.354 4.234 4.194 4.064 3.834
1205.611 3.804 3.694 3.704 4.184 4.104 3.884 3.934 3.824 4.104 4.514
1224.901 4.584 4.644 4.904 5.004 5.004 5.194 5.064 5.024 5.274 5.424
1244.191 5.404 5.634 5.994 6.214 6.454 6.934 7.704 8.464 9.414 10.574
1263.481 12.264 14.654 17.114 19.604 22.214 24.924 27.364 28.964 29.394 28.634
1282.771 26.874 24.364 21.604 18.774 16.364 14.724 13.694 13.054 12.734 12.664
1302.060 12.784 13.124 13.634 14.224 14.854 15.664 16.634 17.704 19.014 20.614
1321.350 22.574 24.934 27.754 31.144 35.234 40.074 45.754 52.264 59.654 68.014
1340.640 76.944 86.124 95.264 103.694 110.814 116.064 118.654 118.134 114.584 108.254
1359.930 99.704 89.624 78.824 68.374 58.684 49.994 42.564 36.264 31.034 26.854
1379.219 23.454 20.674 18.534 16.864 15.434 14.414 13.794 13.544 13.674 14.124
1398.509 14.994 16.174 17.434 18.574 19.414 19.894 19.864 19.274 18.384 17.344
1417.799 16.314 15.484 14.874 14.494 14.234 14.174 14.284 14.434 14.774 15.204
1437.089 15.684 16.094 16.554 17.124 17.864 18.784 19.934 21.444 23.614 26.614
1456.378 30.764 36.524 44.004 53.974 66.994 83.434 102.354 122.464 140.594 153.454
1475.668 157.474 152.064 138.244 117.984 94.494 72.414 55.144 43.604 36.614 32.744
1494.958 30.864 30.004 29.784 30.124 30.894 32.004 33.464 35.354 37.564 40.144
1514.248 43.094 46.554 50.384 54.274 58.564 62.914 67.534 72.444 77.624 83.204
1533.538 89.254 95.824 102.754 110.784 119.874 129.994 141.684 154.884 169.024 183.974
1552.827 198.034 210.624 219.804 225.004 225.614 221.244 212.184 199.964 186.224 172.174
1572.117 158.934 146.944 136.154 126.964 119.254 111.744 104.314 96.644 88.784 81.214
1591.407 74.234 68.094 62.994 58.524 54.254 49.684 44.734 39.454 33.914 28.444
1610.697 23.634 19.844 17.164 15.184 13.574 12.334 11.464 10.924 10.524 10.134
1629.986 9.914 9.884 9.774 9.644 9.484 9.234 9.014 8.724 8.314 7.854
1649.276 7.294 6.684 6.074 5.564 5.104 4.744 4.494 4.254 4.064 3.994
1668.566 3.884 3.794 3.754 3.624 3.584 3.684 3.614 3.604 3.674 3.674
1687.856 3.704 3.814 3.914 4.034 4.154 4.224 4.364 4.444 4.534 4.644
1707.146 4.664 4.674 4.604 4.484 4.364 4.224 4.134 4.064 4.024 4.034
1726.435 4.054 4.134 4.284 4.374 4.454 4.544 4.644 4.884 5.084 5.224
1745.725 5.394 5.534 5.694 5.904 6.054 6.144 6.304 6.354 6.404 6.394
1765.015 6.324 6.294 6.174 6.074 5.934 5.684 5.464 5.354 5.314 5.224
1784.305 5.114 5.064 5.054 4.994 4.974 4.974 4.964 4.934 4.854 4.834
1803.594 4.804 4.774 4.784 4.794 4.844 4.904 4.974 5.064 5.224 5.494
1822.884 5.814 6.164 6.624 7.174 7.724 8.294 8.914 9.414 9.814 10.164
1842.174 10.314 10.314 10.194 9.954 9.674 9.374 9.164 9.084 9.104 9.254
1861.464 9.414 9.554 9.784 10.074 10.334 10.724 11.214 11.774 12.394 13.014
1880.754 13.724 14.544 15.504 16.574 17.684 18.914 20.214 21.574 23.034 24.504
1900.043 25.954 27.414 28.904 30.464 32.094 33.874 35.784 37.854 40.234 42.884
1919.333 45.724 48.834 52.364 56.194 60.414 64.944 69.874 75.324 81.244 87.664
1938.623 94.614 102.024 109.954 118.344 127.164 136.284 145.544 155.004 164.334 173.504
1957.913 182.674 191.684 200.654 209.964 219.624 229.794 240.544 252.004 264.054 276.474
1977.202 289.464 302.764 316.134 329.874 343.614 357.004 370.124 382.654 394.544 405.924
1996.492 416.684 427.194 438.604 451.594 467.404 487.444 512.694 544.754 584.694 632.124
2015.782 684.634 737.444 780.614 803.874 803.684 781.004 738.614 681.944 618.504 554.254
2035.072 493.404 438.914 392.254 353.924 323.844 301.594 286.414 277.714 274.914 277.434
2054.362 284.534 295.544 309.944 327.034 346.414 367.194 388.014 407.194 423.204 434.674
2073.651 440.534 440.554 434.634 423.054 406.564 386.194 363.294 338.974 314.304 289.914
2092.941 266.464 244.594 224.734 207.144 192.044 179.494 169.284 161.274 155.224 150.754
2112.231 147.524 145.174 143.344 141.854 140.434 138.964 137.334 135.314 132.804 129.774
2131.521 126.034 121.524 116.194 110.124 103.444 96.254 88.904 81.524 74.424 67.944
2150.810 62.134 56.914 52.364 48.454 45.024 42.014 39.324 36.814 34.634 32.774
2170.100 30.994 29.374 27.934 26.604 25.364 24.234 23.244 22.304 21.434 20.664
2189.390 19.964 19.264 18.684 18.224 17.864 17.644 17.444 17.344 17.374 17.464
2208.680 17.564 17.664 17.754 17.694 17.464 16.994 16.264 15.434 14.514 13.554
2227.970 12.644 11.894 11.274 10.784 10.434 10.214 10.094 10.084 10.134 10.294
2247.259 10.544 10.844 11.194 11.534 11.864 12.104 12.254 12.304 12.134 11.844
2266.549 11.404 10.754 10.044 9.324 8.584 7.824 7.084 6.504 6.044 5.694
2285.839 5.384 5.064 4.764 4.564 4.464 4.294 4.114 4.064 3.974 3.854
2305.129 3.814 3.794 3.794 3.844 3.924 4.044 4.064 4.194 4.354 4.394
2324.418 4.464 4.544 4.664 4.864 5.014 5.164 5.304 5.494 5.804 6.014
2343.708 6.154 6.324 6.474 6.544 6.574 6.564 6.504 6.394 6.244 6.104
2362.998 5.964 5.764 5.544 5.384 5.234 5.094 5.074 5.164 5.174 5.174
2382.288 5.264 5.404 5.584 5.694 5.804 5.944 6.034 6.084 6.204 6.264
2401.578 6.214 6.094 5.984 5.904 5.754 5.514 5.284 5.134 4.914 4.634
2420.867 4.424 4.314 4.204 4.094 4.014 3.844 3.794 3.794 3.794 3.814
2440.157 3.874 3.994 4.034 4.094 4.184 4.244 4.334 4.394 4.444 4.424
2459.447 4.284 4.174 4.074 3.924 3.774 3.634 3.544 3.494 3.374 3.274
2478.737 3.314 3.304 3.334 3.444 3.594 3.794 3.984 4.104 4.244 4.534
2498.026 4.694 4.764 4.964 5.104 5.224 5.344 5.394 5.474 5.544 5.514
2517.316 5.504 5.554 5.504 5.434 5.374 5.344 5.374 5.384 5.344 5.404
2536.606 5.514 5.504 5.634 5.764 5.814 5.964 6.154 6.344 6.434 6.444
2555.896 6.434 6.404 6.524 6.584 6.444 6.394 6.434 6.474 6.434 6.374
2575.186 6.444 6.524 6.634 6.784 6.934 7.134 7.314 7.494 7.704 7.954
2594.475 8.264 8.584 8.874 9.144 9.454 9.724 9.884 10.054 10.234 10.374
2613.765 10.584 10.754 10.844 10.814 10.684 10.724 10.784 10.754 10.604 10.414
2633.055 10.204 10.014 9.734 9.324 8.974 8.604 8.194 7.774 7.374 6.964
2652.345 6.564 6.204 5.894 5.674 5.494 5.234 4.924 4.764 4.674 4.654
2671.634 4.584 4.504 4.524 4.564 4.574 4.554 4.484 4.494 4.484 4.454
2690.924 4.444 4.394 4.474 4.434 4.274 4.204 4.144 4.094 4.054 3.994
2710.214 3.814 3.654 3.574 3.514 3.424 3.314 3.274 3.264 3.284 3.244
2729.504 3.164 3.194 3.254 3.314 3.334 3.434 3.544 3.484 3.504 3.534
2748.794 3.484 3.434 3.524 3.644 3.674 3.664 3.694 3.854 3.954 4.004
2768.083 4.124 4.314 4.504 4.604 4.784 4.994 5.134 5.284 5.364 5.494
2787.373 5.684 5.744 5.674 5.524 5.334 5.284 5.114 4.924 4.794 4.644
2806.663 4.434 4.254 4.274 4.244 4.154 4.254 4.414 4.364 4.304 4.364
2825.953 4.434 4.424 4.434 4.424 4.404 4.444 4.404 4.364 4.354 4.434
2845.242 4.484 4.424 4.374 4.334 4.374 4.404 4.314 4.264 4.274 4.314
2864.532 4.304 4.424 4.634 4.704 4.824 4.964 5.054 5.174 5.284 5.444
2883.822 5.554 5.504 5.494 5.634 5.644 5.614 5.704 5.764 5.804 5.784
2903.112 5.834 5.864 5.794 5.724 5.654 5.534 5.384 5.344 5.264 5.154
2922.401 5.044 4.974 4.784 4.534 4.544 4.554 4.454 4.214 4.044 3.954
2941.691 3.834 3.734 3.564 3.314 3.134 3.154 3.244 3.164 3.034 2.904
2960.981 2.904 2.944 2.904 2.824 2.714 2.634 2.624 2.634 2.574 2.584
2980.271 2.614 2.744 2.734 2.644 2.614 2.584 2.654 2.674 2.694 2.724
2999.561 2.694 2.594 2.694 2.734 2.644 2.644 2.594 2.484 2.424 2.414
3018.850 2.384 2.304 2.184 2.104 2.074 2.004 1.894 1.984 2.084 2.034
3038.140 2.004 2.054 2.034 2.014 2.044 2.064 2.264 2.294 2.224 2.194
3057.430 2.104 2.054 2.094 2.324 2.354 2.374 2.544 2.944 3.344 3.634
3076.720 4.014 4.404 4.634 4.734 4.744 4.694 4.484 4.054 3.724 3.514
3096.009 3.214 3.014 2.924 2.764 2.624 2.354 2.034 1.924 1.814 1.577
3115.299 1.4182 1.4372 1.42 1.3539 1.2735 1.1602 1.098 1.0532 1.0123 0.8872
3134.589 0.71629 0.7231 0.8019 0.69845 0.5672 0.604 0.624 0.502 0.437 0.464
3153.879 0.512 0.5785 0.6536 0.6425 0.5964 0.53 0.483 0.507 0.384 0.249
3173.169 0.327 0.471 0.477 0.416 0.376 0.395 0.439 0.448 0.477 0.365
3192.458 0.277 0.355 0.405 0.394 0.351 0.32 0.338 0.303 0.351 0.441
3211.748 0.368 0.373 0.389 0.221 0.078 0.182 0.354 0.379 0.184 0.088
3231.038 0.169 0.195 0.244 0.262 0.235 0.286 0.291 0.25 0.259 0.129
3250.328 0.188 0.385 0.257 0.17 0.153 0.14 0.301 0.33 0.325 0.293
3269.617 0.198 0.155 0.136 0.143 0.178 0.089 0 0.146 0.198 0.136
3288.907 0.2 0.333 0.355 0.294 0.249 0.11 0.091 0.19 0.323 0.284
3308.197 0.182 0.348 0.368 0.224 0.083 0.043 0.144 0.239 0.291 0.274
3327.487 0.242 0.278 0.246 0.128 0.144 0.218 0.24 0.238 0.238 0.309
3346.777 0.184 0.134 0.271 0.253 0.191 0.188 0.315 0.438 0.353 0.2
3366.066 0.211 0.259 0.198 0.192 0.275 0.348 0.248 0.156 0.319 0.414
3385.356 0.367 0.347 0.446 0.432 0.265 0.236 0.316 0.361 0.396 0.448
3404.646 0.484 0.451 0.397 0.501 0.539 0.482 0.439 0.357 0.408 0.431
3423.936 0.352 0.26 0.288 0.348 0.261 0.312 0.469 0.502 0.384 0.26
3443.225 0.292 0.198 0.103 0.188 0.261 0.276 0.25 0.316 0.363 0.443
3462.515 0.491 0.423 0.393 0.31 0.292 0.284 0.343 0.414 0.437 0.446
3481.805 0.431 0.393 0.362 0.5684 0.65 0.548 0.529 0.5759 0.551 0.474
3501.095 0.325 0.413 0.501 0.364 0.437 0.561 0.497 0.428 0.475 0.472
3520.385 0.444 0.421 0.384 0.49 0.475 0.374 0.405 0.38 0.414 0.507
3539.674 0.561 0.501 0.439 0.6053 0.6263 0.445 0.391 0.403 0.426 0.417
3558.964 0.318 0.241 0.246 0.331 0.478 0.539 0.535 0.452 0.423 0.523
3578.254 0.5643 0.382 0.176 0.193 0.176 0.315 0.384 0.414 0.538 0.508
3597.544 0.443 0.502 0.512 0.47 0.5874 0.6319 0.558 0.39 0.293 0.348
3616.833 0.365 0.332 0.295 0.33 0.406 0.494 0.70597 0.717 0.476 0.467
3636.123 0.554 0.483 0.41 0.411 0.49 0.539 0.428 0.425 0.495 0.344
3655.413 0.396 0.67784 0.6427 0.542 0.554 0.5889 0.5805 0.546 0.6464 0.70956
3674.703 0.6101 0.516 0.6106 0.5914 0.432 0.409 0.5 0.5942 0.6064 0.524
3693.993 0.513 0.6025 0.5806 0.457 0.525 0.6739 0.70569 0.73524 0.72498 0.5806
3713.282 0.483 0.517 0.6462 0.70292 0.5673 0.499 0.6295 0.6002 0.528 0.6401
3732.572 0.74281 0.7316 0.7025 0.673009 0.67945 0.68407 0.66251 0.6449 0.7792 0.9257
3751.862 0.9345 0.9202 0.9272 0.9619 0.9865 1.0862 1.0411 0.9904 0.8701 0.75171
3771.152 0.8774 0.9515 0.9596 0.9783 0.7953 0.70585 0.8032 0.792 0.7889 0.70712
3790.441 0.71516 0.8045 0.7941 0.8834 0.9171 0.9653 0.9665 0.8079 0.76332 0.8035
3809.731 0.8946 0.7889 0.699 0.8192 0.8591 0.7823 0.863 1.0353 1.0309 1.0808
3829.021 0.9663 0.9086 1.0803 1.2256 1.2642 1.1339 1.0659 1.1207 1.0831 0.952
3848.311 0.9515 1.0297 1.2056 1.2473 1.1194 1.269 1.3537 1.3084 1.4062 1.4148
3867.601 1.2998 1.2376 1.2766 1.5459 1.6075 1.455 1.4868 1.5641 1.5121 1.5375
3886.890 1.638 1.4373 1.407 1.5797 1.704 1.6472 1.664 1.744 1.704 1.764
3906.180 1.814 1.734 1.6026 1.6366 1.814 1.914 1.864 1.864 1.964 2.144
3925.470 2.114 2.014 2.014 2.164 2.174 2.274 2.544 2.444 2.304 2.274
3944.760 2.304 2.364 2.374 2.404 2.404 2.324 2.324 2.494 2.604 2.614
3964.049 2.644 2.684 2.674 2.654 2.734 2.774 2.654 2.514 2.494 2.674
3983.339 2.754 2.644 2.714 2.774 2.624 2.584 2.514 2.564 2.774 2.744
##END=
