##TITLE=2,3,4-Trichlorophenyl isothiocyanate
##JCAMP-DX=4.24
##DATA TYPE=INFRARED SPECTRUM
##ORIGIN=EPA-IR VAPOR PHASE LIBRARY
##OWNER=SRD/NIST
Collection (C) 2018 copyright by the U.S. Secretary of Commerce
on behalf of the United States of America. All rights reserved.
##CAS REGISTRY NO=127142-69-2
##MOLFORM=C 7 H 2 Cl 3 N S
##$NIST SOURCE=MSDC-IR
##STATE=gas
##XUNITS=1/CM
##YUNITS=ABSORBANCE
##XFACTOR=1.
##YFACTOR=0.001
##DELTAX=1.92898
##FIRSTX=549.8
##LASTX=4000.7
##FIRSTY=12.77
##MAXX=4000.7
##MINX=549.759
##MAXY=0.68201
##MINY=0
##NPOINTS=1790
##XYDATA=(X++(Y..Y))
549.759 12.77 14.95 17.52 20.25 22.27 23.54 24.14 23.28 21.53 19.96
569.049 18.25 16.97 16.49 15.8 15.12 15 14.47 13.98 13.77 13.3
588.339 12.8 12.13 11.67 11.47 11.56 11.22 10.52 10.03 9.24 8.36
607.628 7.53 6.56 5.51 4.78 4.33 3.79 3.26 3.01 2.8 2.83
626.918 2.99 2.76 2.67 2.65 2.37 2.08 1.62 1.4314 1.67 1.95
646.208 2.19 2.51 2.79 2.95 3.13 3.18 2.97 2.8 2.58 2.35
665.498 2.12 1.76 1.79 2.03 2.09 2.14 2.39 2.66 2.66 2.62
684.787 2.48 2.15 1.83 1.67 1.61 1.517 1.4574 1.4106 1.3962 1.15
704.077 0.9026 0.9148 0.8259 0.8332 0.9324 0.8009 0.7839 0.9647 0.9148 1.0688
723.367 1.2598 1.4871 1.73 1.82 2.26 2.95 3.82 4.78 5.66 6.56
742.657 7.41 7.97 8.34 8.71 9.02 9.53 10.68 12.99 16.61 21.41
761.947 27.58 34.61 41.69 47.6 51.32 52.6 50.96 47.31 41.95 35.25
781.236 28.73 23.28 19.31 16.82 15.67 15.63 17.16 20.15 24.81 31.61
800.526 40.27 49.88 59.57 69.32 79.1 82.94 75.78 63.82 52.48 42.06
819.816 31.97 22.89 16.07 11.6 8.97 7.43 6.45 5.82 5.53 5.42
839.106 5.36 5.13 4.79 4.46 3.93 3.36 2.83 2.42 2.22 1.96
858.395 1.76 1.64 1.5084 1.5037 1.64 1.71 1.61 1.61 1.8 2.05
877.685 2.14 2.04 1.99 2.16 2.22 2.3 2.72 3.3 3.97 4.44
896.975 4.65 4.58 4.52 4.54 4.27 3.97 3.75 3.51 3.35 3.27
916.265 3.15 3.03 2.85 2.62 2.64 2.71 2.82 2.89 2.94 3.13
935.555 3.13 3.26 3.45 3.41 3.34 3.43 3.66 3.8 3.94 4.16
954.844 4.44 4.73 4.99 5.5 6.02 6.74 7.75 8.92 10.56 12.77
974.134 15.6 19.28 23.72 28.65 33.63 37.59 39.74 40.16 39.15 36.11
993.424 31.21 25.81 20.91 16.82 13.62 11.23 9.64 8.3 7.33 7.12
1012.714 7.1 7.07 6.84 6.51 5.85 5.24 4.58 3.9 3.19 2.73
1032.003 2.78 2.76 2.54 2.55 2.59 2.3 2.11 2.05 1.99 1.73
1051.293 1.4622 1.3175 1.4756 1.4929 1.4526 1.4635 1.315 1.57 1.6 1.4558
1070.583 1.53 1.58 1.88 2.02 2.05 2.18 2.37 2.85 3.53 4.33
1089.873 5.07 6.13 7.39 7.92 8.18 8.16 7.5 6.45 5.35 4.4
1109.163 3.11 1.99 2.04 2.09 1.74 1.72 2.08 2.23 2.38 2.54
1128.452 2.51 2.92 3.73 4.32 5.02 6.62 8.46 11.02 14.26 16.73
1147.742 18.2 18.81 18.04 16.44 14.5 12.45 11.19 11.45 13.14 16.41
1167.032 21.9 30.1 41.29 54.37 66.01 72.34 71.92 66.81 56.91 41.77
1186.322 26.57 16.03 10.18 7.1 5.43 4.22 3.29 2.93 2.7 2.43
1205.611 2.32 2.54 3.17 3.35 3.33 3.65 4.13 4.25 4.43 4.61
1224.901 4.33 4.4 4.49 4.26 4.32 4.63 4.59 4.3 4.03 3.76
1244.191 3.37 3 2.56 2.23 1.91 1.84 2.26 2.46 2.54 2.79
1263.481 3.1 3.25 3.59 4.02 4.44 5.27 6.06 6.58 7.16 7.82
1282.771 8.34 8.34 7.95 7.31 6.36 5.31 4.27 3.38 2.78 2.34
1302.060 2.01 1.83 1.78 1.82 1.9 2.01 2.1 2.16 2.15 2.13
1321.350 2.11 2 2 2.13 2.19 2.3 2.48 2.7 3.01 3.41
1340.640 3.88 4.37 4.95 5.73 6.94 8.61 10.87 13.89 17.71 22.56
1359.930 28.3 34.48 40.41 45.18 48.11 48.77 47.28 44.01 38.76 31.7
1379.219 24.3 18.11 13.46 10.03 7.53 5.92 4.85 4.15 3.78 3.6
1398.509 3.63 3.75 3.93 4.25 4.71 5.29 6.02 6.87 7.95 9.32
1417.799 11.04 13.16 16.02 20.02 25.44 32.88 42.92 56.22 73.3 94.39
1437.089 119.28 146.14 171.53 190.59 198.77 193.84 176.24 148.8 115.1 80.46
1456.378 51.38 31.66 20.48 14.63 11.55 9.67 8.44 7.67 7.11 6.7
1475.668 6.32 6 5.68 5.31 4.98 4.59 4.3 4.13 3.94 3.86
1494.958 3.83 3.81 3.93 4.1 4.35 4.6 4.69 4.67 4.68 4.59
1514.248 4.45 4.38 4.29 4.21 4.26 4.3 4.43 4.78 5.11 5.43
1533.538 5.86 6.44 7.05 7.68 8.4 9 9.27 9.4 9.45 9.52
1552.827 9.76 10.37 11.69 13.92 16.88 20.44 24.41 28.22 31.25 33
1572.117 33.11 31.41 28.07 23.77 19.34 15.13 11.37 8.53 6.54 5.21
1591.407 4.42 3.92 3.49 3.33 3.31 3.29 3.34 3.32 3.31 3.44
1610.697 3.63 3.85 4.01 4.06 4.12 4.05 3.79 3.51 3.26 2.93
1629.986 2.51 2.28 1.97 1.67 1.61 1.4675 1.3779 1.4154 1.3621 1.2743
1649.276 1.2795 1.2587 1.2545 1.2785 1.2811 1.3305 1.3552 1.3379 1.3452 1.3363
1668.566 1.3898 1.4592 1.4538 1.5131 1.64 1.65 1.71 1.72 1.6 1.63
1687.856 1.74 1.81 1.8 1.78 1.74 1.73 1.79 1.83 1.83 1.81
1707.146 1.88 1.97 1.99 2.01 1.97 1.94 1.95 2 2.04 2.05
1726.435 2 1.99 2.08 2.14 2.24 2.38 2.49 2.61 2.69 2.71
1745.725 2.77 2.73 2.6 2.55 2.57 2.55 2.55 2.59 2.65 2.67
1765.015 2.67 2.74 2.86 2.89 2.98 3.17 3.26 3.34 3.45 3.55
1784.305 3.65 3.7 3.7 3.74 3.72 3.69 3.68 3.62 3.53 3.45
1803.594 3.31 3.25 3.21 3.16 3.13 3.09 3.05 3.03 3.03 3.05
1822.884 3.15 3.24 3.29 3.37 3.52 3.72 3.86 3.95 4.1 4.26
1842.174 4.33 4.41 4.52 4.59 4.63 4.76 4.89 5.03 5.25 5.52
1861.464 5.79 6.17 6.61 7.08 7.59 7.96 8.16 8.31 8.37 8.36
1880.754 8.34 8.33 8.43 8.68 9.15 9.79 10.5 11.29 12.18 13.06
1900.043 13.94 14.78 15.53 16.14 16.68 17.2 17.71 18.34 19.04 19.9
1919.333 21.04 22.32 23.7 25.43 27.36 29.48 31.92 34.58 37.44 40.52
1938.623 43.85 47.46 51.38 55.67 60.34 65.31 70.56 76.07 82.03 88.24
1957.913 94.51 100.99 107.38 113.62 119.53 124.95 129.86 134.22 138.29 142.31
1977.202 146.54 151.16 156.37 162.37 169.1 176.57 184.72 193.27 202.46 212.28
1996.492 222.5 233.14 244.07 255.38 267.04 278.79 290.52 302.75 315.51 328.65
2015.782 342.6 357.79 374.7 393.99 416.19 441.7 471.07 504.48 541.28 579.67
2035.072 616.89 649.29 672.25 682.01 676.62 656.39 623.5 581.64 535.49 488.74
2054.362 444.05 403.34 367.45 336.88 311.31 290.2 273.32 260.33 250.78 244.29
2073.651 240.61 239.54 240.77 243.88 248.75 254.97 261.65 268.11 274.09 279.2
2092.941 283.08 285.62 286.77 286.24 283.84 279.48 273.14 264.84 254.65 243.06
2112.231 230.42 216.97 203.33 189.99 177.18 165.11 154.02 144.07 135.06 126.92
2131.521 119.46 112.41 105.59 98.9 92.27 85.68 79.25 73.06 67.34 62.2
2150.810 57.65 53.79 50.52 47.81 45.49 43.37 41.41 39.51 37.64 35.67
2170.100 33.74 31.86 29.9 28.03 26.26 24.61 23.11 21.77 20.53 19.36
2189.390 18.3 17.25 16.21 15.36 14.52 13.62 12.93 12.32 11.62 11.01
2208.680 10.56 10.14 9.73 9.31 8.98 8.75 8.58 8.42 8.22 8.04
2227.970 7.93 7.87 7.82 7.81 7.83 7.8 7.88 8.02 8.14 8.42
2247.259 8.76 9.14 9.6 10.13 10.77 11.47 12.23 12.92 13.64 14.24
2266.549 14.59 14.77 14.7 14.3 13.6 12.64 11.54 10.38 9.22 8.18
2285.839 7.33 6.57 5.91 5.42 4.97 4.66 4.48 4.3 4.08 3.84
2305.129 3.7 3.62 3.45 3.22 3.1 3.01 2.97 2.93 2.9 2.93
2324.418 2.92 2.89 2.92 2.99 2.98 3.02 3.14 3.2 3.35 3.51
2343.708 3.59 3.66 3.84 4.01 4.16 4.35 4.52 4.73 4.98 5.3
2362.998 5.64 5.96 6.3 6.5 6.76 7.03 7.09 7.09 7.02 6.79
2382.288 6.49 6.18 5.81 5.41 5.04 4.78 4.55 4.3 4.07 3.94
2401.578 3.94 3.89 3.82 3.83 3.83 3.89 3.93 3.94 4.04 4.15
2420.867 4.3 4.4 4.41 4.46 4.48 4.49 4.43 4.29 4.14 4.01
2440.157 3.83 3.64 3.48 3.38 3.25 3.19 3.21 3.13 3.11 3.11
2459.447 3.14 3.18 3.16 3.23 3.34 3.38 3.39 3.44 3.48 3.46
2478.737 3.46 3.44 3.4 3.45 3.54 3.62 3.71 3.79 3.83 3.89
2498.026 4 4.11 4.15 4.19 4.38 4.51 4.59 4.65 4.75 4.82
2517.316 4.83 4.93 5.03 5.07 5.04 5.08 5.05 4.89 4.78 4.65
2536.606 4.51 4.37 4.33 4.23 4.1 4.07 4.09 4.22 4.32 4.48
2555.896 4.76 4.86 4.99 5.05 5.01 5.01 4.9 4.67 4.48 4.31
2575.186 4.02 3.74 3.54 3.37 3.29 3.24 3.08 3.02 3.11 3.13
2594.475 3.05 2.9 2.87 2.96 3.01 2.96 3.01 3.04 3.01 3.06
2613.765 3.11 3.23 3.37 3.49 3.6 3.64 3.69 3.82 3.97 4.13
2633.055 4.33 4.58 4.85 5.11 5.37 5.76 6.08 6.3 6.65 7.06
2652.345 7.54 7.99 8.34 8.67 8.97 9.19 9.29 9.15 9.1 9.01
2671.634 8.62 8.11 7.39 6.74 6.23 5.69 5.12 4.64 4.24 3.86
2690.924 3.51 3.21 3.01 2.92 2.9 2.82 2.62 2.53 2.53 2.53
2710.214 2.63 2.74 2.81 2.85 2.87 2.93 2.87 2.85 2.89 2.79
2729.504 2.75 2.6 2.34 2.22 2.13 1.92 1.76 1.7 1.7 1.67
2748.794 1.5251 1.53 1.68 1.68 1.64 1.76 1.86 1.94 1.98 1.98
2768.083 1.96 1.9 2.01 2.22 2.27 2.24 2.16 2.11 2.11 2.07
2787.373 2.12 2.15 1.99 1.88 2.03 2.13 2.06 2.07 2.29 2.44
2806.663 2.45 2.51 2.59 2.5 2.49 2.65 2.67 2.63 2.66 2.66
2825.953 2.65 2.71 2.88 2.96 3.05 3.15 3.12 3.14 3.22 3.23
2845.242 3.18 3.19 3.21 3.3 3.34 3.18 3.08 3.05 2.98 2.85
2864.532 2.71 2.57 2.44 2.36 2.31 2.16 2.05 1.96 1.99 2.01
2883.822 1.9 1.96 1.92 1.78 1.7 1.68 1.76 1.72 1.7 1.78
2903.112 1.72 1.71 1.84 1.82 1.75 1.79 1.82 1.82 1.79 1.72
2922.401 1.75 1.81 1.78 1.72 1.73 1.65 1.63 1.78 1.77 1.63
2941.691 1.59 1.69 1.6 1.4432 1.54 1.4521 1.3543 1.3846 1.3205 1.3034
2960.981 1.2399 1.2959 1.2865 1.281 1.3083 1.2473 1.1758 1.1404 1.257 1.3087
2980.271 1.3611 1.4082 1.4012 1.3914 1.445 1.4823 1.4968 1.53 1.6 1.65
2999.561 1.64 1.56 1.53 1.5151 1.58 1.69 1.69 1.64 1.64 1.65
3018.850 1.7 1.74 1.73 1.83 1.91 1.84 1.79 1.7 1.5053 1.4755
3038.140 1.4344 1.3974 1.4399 1.415 1.202 1.0737 1.1384 1.1263 1.1236 1.1264
3057.430 1.1904 1.2967 1.3566 1.3614 1.3237 1.2875 1.3782 1.443 1.3932 1.4013
3076.720 1.424 1.2649 1.1418 1.0812 0.938 0.9505 0.9955 0.9019 0.7953 0.8392
3096.009 0.964 0.9021 0.7484 0.7911 0.7395 0.6757 0.6771 0.56189 0.52809 0.62565
3115.299 0.62628 0.6698 0.60625 0.5094 0.6056 0.61463 0.57065 0.4664 0.425 0.4
3134.589 0.412 0.362 0.408 0.5103 0.424 0.343 0.34 0.305 0.177 0.23
3153.879 0.204 0.084 0.135 0.209 0.265 0.319 0.232 0.163 0.292 0.208
3173.169 0.12 0.242 0.295 0.277 0.256 0.153 0.209 0.355 0.312 0.384
3192.458 0.336 0.1 0.141 0.255 0.15 0.069 0.057 0.068 0.109 0.121
3211.748 0.05 0 0.067 0.123 0.249 0.357 0.396 0.258 0.091 0.188
3231.038 0.21 0.25 0.251 0.182 0.231 0.222 0.139 0.032 0.113 0.213
3250.328 0.136 0.067 0.172 0.25 0.258 0.33 0.279 0.148 0.226 0.283
3269.617 0.256 0.235 0.205 0.291 0.27 0.272 0.224 0.237 0.288 0.244
3288.907 0.255 0.225 0.245 0.26 0.322 0.248 0.129 0.206 0.197 0.135
3308.197 0.264 0.384 0.266 0.249 0.304 0.277 0.275 0.266 0.146 0.235
3327.487 0.385 0.303 0.277 0.276 0.204 0.147 0.233 0.252 0.236 0.253
3346.777 0.2 0.147 0.207 0.263 0.277 0.299 0.228 0.311 0.392 0.325
3366.066 0.345 0.391 0.319 0.362 0.359 0.366 0.4782 0.418 0.381 0.293
3385.356 0.344 0.4807 0.5025 0.4414 0.411 0.4348 0.4663 0.4581 0.4545 0.333
3404.646 0.267 0.384 0.364 0.314 0.367 0.361 0.236 0.2 0.375 0.5094
3423.936 0.394 0.37 0.4338 0.384 0.283 0.294 0.411 0.363 0.222 0.297
3443.225 0.392 0.418 0.377 0.298 0.336 0.406 0.4428 0.331 0.343 0.394
3462.515 0.432 0.52119 0.4702 0.421 0.417 0.54915 0.61237 0.52765 0.5023 0.641
3481.805 0.6013 0.361 0.4744 0.57918 0.52096 0.5113 0.4523 0.5185 0.5694 0.56516
3501.095 0.4551 0.332 0.386 0.4999 0.55252 0.57749 0.61447 0.52442 0.348 0.4396
3520.385 0.56558 0.5005 0.4429 0.359 0.362 0.4985 0.56984 0.409 0.314 0.356
3539.674 0.313 0.385 0.4762 0.423 0.392 0.402 0.361 0.4342 0.4704 0.323
3558.964 0.294 0.423 0.6369 0.7031 0.394 0.412 0.6875 0.54805 0.4393 0.4704
3578.254 0.415 0.42 0.4387 0.57147 0.62471 0.423 0.4 0.53762 0.59504 0.59817
3597.544 0.60896 0.4977 0.4591 0.4864 0.4543 0.52052 0.428 0.347 0.4541 0.61205
3616.833 0.6335 0.5072 0.4946 0.57641 0.6805 0.54054 0.425 0.530587 0.427 0.349
3636.123 0.483 0.5969 0.5027 0.4383 0.422 0.348 0.374 0.4438 0.55455 0.62716
3655.413 0.60881 0.5608 0.4456 0.4926 0.6363 0.6671 0.635 0.6465 0.7467 0.7733
3674.703 0.7083 0.61347 0.6928 0.6712 0.6609 0.6306 0.55142 0.4726 0.5049 0.493
3693.993 0.37 0.419 0.5646 0.7141 0.55786 0.396 0.424 0.5089 0.55805 0.60423
3713.282 0.6371 0.56454 0.52633 0.4905 0.59934 0.6516 0.6352 0.6716 0.6144 0.56644
3732.572 0.4371 0.372 0.407 0.4554 0.4762 0.406 0.4586 0.62829 0.6513 0.6121
3751.862 0.6952 0.55268 0.4596 0.6933 0.7702 0.6774 0.6323 0.7268 0.7251 0.57696
3771.152 0.57457 0.60175 0.7478 0.9126 0.7394 0.58551 0.5669 0.6539 0.6818 0.664
3790.441 0.832 0.9008 0.6783 0.60601 0.6916 0.7209 0.8041 0.8138 0.8669 0.8609
3809.731 0.8102 0.7507 0.679 0.6715 0.6833 0.7037 0.7175 0.7891 0.9098 0.8907
3829.021 0.9433 1.0789 1.1115 0.9572 0.9004 0.85 0.8428 1.0382 0.9609 0.8493
3848.311 0.8167 0.8053 0.8627 1.0706 1.1099 1.0431 1.1431 1.0369 1.0644 1.0959
3867.601 1.0504 1.0618 1.0539 1.088 1.1058 1.1202 1.1322 1.1843 1.2475 1.3133
3886.890 1.2564 1.1816 1.1042 1.1405 1.24 1.2809 1.3024 1.2868 1.3161 1.3556
3906.180 1.2248 1.1956 1.2938 1.3111 1.2865 1.3032 1.3671 1.4811 1.57 1.63
3925.470 1.75 1.66 1.54 1.55 1.69 1.75 1.67 1.62 1.72 1.74
3944.760 1.76 1.66 1.66 1.79 1.71 1.76 1.75 1.84 1.85 1.71
3964.049 1.75 2.03 2.09 2.01 2.06 1.89 1.92 2 1.92 1.88
3983.339 1.97 2.09 2.17 2.2 2.11 2.21 2.19 2.06 2.21 2.42
##END=
