##TITLE=Pyrene
##JCAMP-DX=4.24
##DATA TYPE=INFRARED SPECTRUM
##ORIGIN=NIST Mass Spectrometry Data Center
##OWNER=NIST Standard Reference Data Program
Collection (C) 2018 copyright by the U.S. Secretary of Commerce
on behalf of the United States of America. All rights reserved.
##CAS REGISTRY NO=129-00-0
##MOLFORM=C 16 H 10
##$NIST SOURCE=MSDC-IR
##SPECTROMETER/DATA SYSTEM=HP-GC/MS/IRD
##STATE=gas
##XUNITS=1/CM
##YUNITS=ABSORBANCE
##XFACTOR=1.0
##YFACTOR=0.000001700
##DELTAX=4.0
##FIRSTX=550.0
##LASTX=3846.0
##FIRSTY=0.000296
##MAXX=3846
##MINX=550
##MAXY=0.017
##MINY=0
##NPOINTS=825
##XYDATA=(X++(Y..Y))
550.0 174 104 48 52 88 85 86 89 51 54
590.0 47 26 36 35 31 58 49 28 35 63
630.0 57 83 93 63 87 115 152 144 104 98
670.0 102 131 126 147 180 370 892 1849 2876 4578
710.0 5135 3372 2207 1346 841 1008 1382 2057 1954 1229
750.0 829 456 204 110 79 76 73 83 88 93
790.0 109 125 147 183 230 321 572 1024 1850 3337
830.0 5218 7777 10000 8260 5299 3434 1797 951 587 383
870.0 243 157 121 116 121 132 130 116 90 71
910.0 60 41 51 77 55 41 62 81 107 131
950.0 149 206 278 284 244 202 153 137 149 179
990.0 228 265 273 250 203 140 91 63 48 52
1030.0 53 43 69 119 175 226 246 234 188 124
1070.0 109 126 136 188 305 448 527 493 374 222
1110.0 155 141 109 85 90 113 108 81 59 51
1150.0 63 48 42 76 152 322 708 1101 1170 1099
1190.0 742 313 139 80 75 87 92 79 52 65
1230.0 126 228 278 274 234 156 102 80 81 87
1270.0 91 88 85 83 76 80 117 183 228 228
1310.0 196 121 55 36 31 29 24 3 7 27
1350.0 31 32 27 6 7 12 8 10 16 9
1390.0 8 22 52 102 143 190 211 251 421 636
1430.0 760 744 653 528 391 328 256 203 211 187
1470.0 155 156 196 235 229 208 237 285 337 321
1510.0 269 197 100 64 111 171 176 129 79 52
1550.0 52 43 20 67 146 186 211 282 393 518
1590.0 672 784 800 715 554 379 243 156 144 183
1630.0 247 277 291 279 250 255 284 330 301 206
1670.0 119 107 141 147 143 149 105 75 98 113
1710.0 103 57 41 82 132 171 200 250 298 325
1750.0 324 294 222 148 110 138 254 435 617 709
1790.0 655 479 291 167 110 80 62 44 35 43
1830.0 72 111 143 169 213 277 323 322 269 179
1870.0 106 80 67 73 86 100 146 228 360 498
1910.0 595 655 668 653 605 505 345 184 104 69
1950.0 51 41 36 36 35 33 36 37 53 57
1990.0 41 41 37 32 38 39 26 19 27 28
2030.0 25 36 37 32 43 43 36 38 36 29
2070.0 22 22 25 24 30 26 24 33 30 26
2110.0 28 33 39 45 50 54 47 37 42 31
2150.0 23 25 36 43 40 43 37 36 38 26
2190.0 25 36 31 30 34 31 36 42 50 48
2230.0 52 66 60 57 58 48 44 47 46 49
2270.0 60 71 66 61 62 52 36 32 31 25
2310.0 20 15 34 48 45 45 48 42 31 40
2350.0 60 55 35 19 3 0 2 20 34 33
2390.0 31 31 33 29 36 31 24 39 45 37
2430.0 28 25 35 37 32 35 32 33 28 27
2470.0 31 36 40 35 32 42 59 58 48 43
2510.0 42 44 39 32 26 27 29 28 35 40
2550.0 30 24 25 21 17 17 16 12 16 27
2590.0 27 34 35 33 37 34 34 38 29 18
2630.0 23 40 33 22 26 31 36 39 46 39
2670.0 36 25 19 12 10 8 4 13 10 5
2710.0 9 7 8 7 11 27 24 12 19 24
2750.0 24 24 14 4 6 16 8 1 13 16
2790.0 13 19 29 30 30 29 36 32 26 38
2830.0 50 54 59 60 52 31 22 37 44 42
2870.0 46 45 52 66 69 84 100 99 80 68
2910.0 69 69 90 117 132 130 119 122 132 134
2950.0 150 169 183 195 201 227 261 288 322 347
2990.0 371 380 362 357 357 382 446 576 794 1164
3030.0 1821 2902 4443 6125 7460 8190 7903 6607 5011 3505
3070.0 2311 1634 1362 1254 1158 1036 924 813 733 681
3110.0 610 485 358 276 207 174 175 173 155 133
3150.0 131 144 136 124 109 87 64 53 43 44
3190.0 68 66 49 61 61 47 48 55 59 59
3230.0 53 55 47 36 30 23 27 29 27 27
3270.0 46 64 41 24 31 24 30 34 31 30
3310.0 28 30 32 29 29 21 8 1 4 29
3350.0 19 14 34 32 23 29 35 44 43 29
3390.0 38 41 35 30 33 28 29 42 33 24
3430.0 35 36 20 20 25 34 31 32 48 43
3470.0 46 60 36 14 14 18 36 33 30 36
3510.0 29 20 20 35 47 46 28 28 36 40
3550.0 56 59 54 52 35 27 31 24 33 28
3590.0 30 39 53 62 37 13 8 7 30 15
3630.0 14 48 43 34 20 19 17 25 44 36
3670.0 8 2 24 43 37 37 52 43 36 42
3710.0 31 27 52 62 49 46 23 49 57 35
3750.0 58 87 103 84 66 82 108 96 96 107
3790.0 86 67 69 72 66 78 97 88 88 100
3830.0 104 107 101 103 111
##END=
