##TITLE=1,4-Naphthaquinone
##JCAMP-DX=4.24
##DATA TYPE=INFRARED SPECTRUM
##ORIGIN=NIST Mass Spectrometry Data Center
##OWNER=NIST Standard Reference Data Program
Collection (C) 2018 copyright by the U.S. Secretary of Commerce
on behalf of the United States of America. All rights reserved.
##CAS REGISTRY NO=130-15-4
##MOLFORM=C 10 H 6 O 2
##$NIST SOURCE=MSDC-IR
##SPECTROMETER/DATA SYSTEM=HP-GC/MS/IRD
##STATE=gas
##XUNITS=1/CM
##YUNITS=ABSORBANCE
##XFACTOR=1.0
##YFACTOR=0.000004000
##DELTAX=4.0
##FIRSTX=550.0
##LASTX=3846.0
##FIRSTY=0.001596
##MAXX=3846
##MINX=550
##MAXY=0.04
##MINY=0
##NPOINTS=825
##XYDATA=(X++(Y..Y))
550.0 399 433 423 381 284 163 73 48 65 62
590.0 82 105 86 85 87 52 32 31 22 28
630.0 19 13 8 1 13 6 2 10 13 19
670.0 19 21 42 71 90 95 99 97 85 65
710.0 63 81 91 93 112 140 218 381 702 1222
750.0 1784 2396 3534 3710 2580 1884 1305 700 342 181
790.0 110 75 58 50 50 55 35 31 47 60
830.0 97 178 306 454 618 820 880 688 494 372
870.0 239 144 99 74 58 48 39 34 42 46
910.0 48 58 71 76 82 79 64 45 28 21
950.0 24 31 49 78 93 103 110 100 95 123
990.0 177 254 412 699 1019 1216 1261 1163 904 563
1030.0 333 265 325 509 713 820 840 774 577 349
1070.0 224 174 151 142 137 133 138 146 170 210
1110.0 250 267 276 310 400 535 626 645 603 482
1150.0 299 149 85 61 49 47 52 55 66 68
1190.0 63 67 69 68 82 110 137 160 173 174
1230.0 171 180 194 198 203 203 214 242 293 405
1270.0 620 1052 1862 3150 4658 5799 6233 6017 5197 4143
1310.0 3660 3738 3739 3377 2631 1647 829 414 258 200
1350.0 175 169 180 197 200 188 173 141 106 87
1390.0 78 76 74 66 59 56 56 61 64 66
1430.0 68 73 78 82 83 85 81 69 63 59
1470.0 51 55 69 78 83 96 107 107 99 82
1510.0 74 71 63 60 62 68 80 96 118 139
1550.0 146 147 148 159 182 219 276 368 509 742
1590.0 1083 1460 1734 1848 1756 1432 1013 663 433 310
1630.0 271 291 358 459 600 774 979 1244 1681 2510
1670.0 4074 6532 9011 10000 9877 8855 6014 2949 1303 673
1710.0 433 333 299 300 322 351 377 389 386 372
1750.0 353 347 356 356 320 258 198 142 101 82
1790.0 76 76 78 81 83 76 69 64 63 68
1830.0 68 70 73 73 74 74 74 77 77 75
1870.0 71 71 73 67 59 54 45 34 25 18
1910.0 15 17 21 22 24 29 36 47 55 65
1950.0 77 90 99 101 101 99 96 98 93 78
1990.0 63 42 21 13 9 8 5 4 7 7
2030.0 4 9 16 19 20 21 21 20 18 13
2070.0 10 9 7 5 2 1 5 9 6 6
2110.0 6 3 6 9 8 8 9 8 9 16
2150.0 17 16 12 6 4 4 8 9 7 4
2190.0 5 7 8 9 6 3 0 1 2 3
2230.0 3 4 8 10 8 5 4 9 16 21
2270.0 24 27 27 24 19 16 14 14 17 16
2310.0 12 10 12 15 17 15 13 10 11 9
2350.0 6 6 7 9 8 7 11 9 3 6
2390.0 9 8 8 9 10 12 19 24 23 20
2430.0 17 20 21 15 10 11 12 12 11 11
2470.0 15 17 14 13 12 11 14 11 10 17
2510.0 21 17 15 18 16 15 16 16 16 16
2550.0 15 10 13 16 10 11 18 19 17 18
2590.0 26 30 28 29 37 38 38 36 32 30
2630.0 28 24 25 28 27 28 36 41 40 34
2670.0 30 28 30 29 27 29 28 23 17 21
2710.0 24 19 20 20 21 21 23 25 22 24
2750.0 23 17 16 18 21 18 21 25 21 15
2790.0 19 20 18 18 17 20 24 27 32 38
2830.0 35 28 28 27 27 29 30 32 39 48
2870.0 55 59 56 51 53 52 51 48 43 41
2910.0 39 37 34 28 27 25 24 24 17 16
2950.0 24 22 19 20 20 20 26 28 25 22
2990.0 30 36 46 58 67 72 70 72 74 79
3030.0 95 115 136 162 190 222 263 324 394 491
3070.0 618 709 724 675 573 411 235 128 82 60
3110.0 50 40 38 40 41 40 38 42 45 49
3150.0 48 45 47 42 39 37 36 37 37 36
3190.0 33 32 31 28 26 23 18 17 19 15
3230.0 16 19 17 21 30 34 30 35 41 38
3270.0 36 49 64 62 61 66 58 46 37 28
3310.0 30 46 57 64 88 120 156 197 229 249
3350.0 253 227 192 157 116 83 66 54 42 36
3390.0 29 25 18 14 13 14 20 24 20 18
3430.0 16 13 14 18 20 17 14 8 2 7
3470.0 9 7 10 13 15 15 12 5 4 7
3510.0 10 15 18 18 18 15 11 18 13 7
3550.0 10 6 0 0 0 0 1 3 3 7
3590.0 12 14 9 3 0 5 12 9 5 7
3630.0 5 11 12 7 8 5 5 7 10 7
3670.0 0 0 3 4 3 6 8 4 3 10
3710.0 6 4 13 14 11 8 0 0 2 1
3750.0 9 10 8 14 6 6 13 12 16 19
3790.0 14 15 16 9 12 18 21 24 29 33
3830.0 34 26 22 21 18
##END=
