##TITLE=4-Fluoro-2-(trifluoromethyl)phenol
##JCAMP-DX=4.24
##DATA TYPE=INFRARED SPECTRUM
##ORIGIN=EPA-IR VAPOR PHASE LIBRARY
##OWNER=SRD/NIST
Collection (C) 2018 copyright by the U.S. Secretary of Commerce
on behalf of the United States of America. All rights reserved.
##CAS REGISTRY NO=130047-19-7
##MOLFORM=C 7 H 4 F 4 O
##$NIST SOURCE=MSDC-IR
##STATE=gas
##XUNITS=1/CM
##YUNITS=ABSORBANCE
##XFACTOR=1.
##YFACTOR=0.001
##DELTAX=1.92898
##FIRSTX=549.8
##LASTX=4000.7
##FIRSTY=23.2758
##MAXX=4000.7
##MINX=549.759
##MAXY=1.01473
##MINY=0
##NPOINTS=1790
##XYDATA=(X++(Y..Y))
549.759 23.2758 20.7758 19.6358 18.1458 16.1358 15.0958 15.1358 14.8758 15.3758 15.7058
569.049 16.4158 17.8258 19.4258 21.7358 23.1558 24.4058 25.6358 25.9858 26.8158 26.6358
588.339 25.0658 23.6458 22.1758 20.4658 18.2558 15.6158 13.6258 12.7258 13.1458 13.2758
607.628 12.2058 12.4858 12.7458 12.5158 12.9858 13.0758 13.0758 12.6858 11.4358 10.5958
626.918 10.2758 10.2458 9.6758 8.9658 8.6258 8.3158 7.7358 7.4458 7.5258 8.2458
646.208 9.3758 9.8158 10.9658 13.2558 16.7858 22.1558 29.9458 40.6058 51.7758 58.7558
665.498 60.0358 61.1658 62.8658 63.0558 61.6758 55.0358 44.1458 33.4258 25.8658 20.7858
684.787 17.0758 14.3958 12.7458 12.0558 11.0858 10.5558 10.2258 9.9458 9.6958 9.5958
704.077 9.6458 9.2058 9.3158 9.8258 10.2458 10.8558 11.7958 12.6958 13.6658 15.5858
723.367 18.2058 21.8858 27.1458 35.0858 47.6458 65.9558 88.6458 108.086 117.236 122.986
742.657 129.916 126.176 119.916 115.566 98.8358 74.8258 54.5758 42.0458 36.7958 36.1158
761.947 38.2558 43.4258 51.2858 61.2858 74.8058 92.1658 112.266 133.746 155.326 176.006
781.236 193.326 205.816 212.956 213.306 206.526 194.446 177.156 155.906 133.666 111.856
800.526 91.8958 77.2058 68.4158 64.3758 65.7758 70.7258 75.4058 79.2158 84.8258 91.2758
819.816 98.4558 108.356 119.736 128.066 122.526 101.486 83.3258 73.8958 65.9658 57.4358
839.106 47.8958 38.5458 30.9658 25.4058 22.0158 20.0058 18.6958 18.4058 19.7258 22.1858
858.395 26.2358 32.3658 39.9258 49.3258 60.2358 72.5258 85.2458 99.8958 116.746 133.676
877.685 145.916 144.866 133.316 122.326 114.146 105.126 94.4958 85.5158 81.9558 85.4958
896.975 97.9458 120.566 150.376 179.756 201.136 214.256 222.176 222.456 213.146 198.026
916.265 171.846 133.226 94.6158 65.8558 48.5258 39.0358 33.6658 30.5058 28.6758 26.7358
935.555 24.8258 23.2858 21.4158 19.8058 18.6558 17.5858 16.3158 14.6858 13.6858 13.0658
954.844 11.7058 10.6258 10.4858 9.8958 9.2958 9.3958 9.0558 8.5858 8.4258 7.9658
974.134 7.9158 8.0758 7.7458 7.6358 8.1658 8.5958 9.0258 9.3658 9.9258 10.6358
993.424 11.1658 11.5558 11.6858 11.9558 12.4158 12.6558 12.8658 12.9158 12.8258 13.5458
1012.714 14.4258 15.2058 15.5858 16.2058 17.3558 18.6458 20.7458 24.0658 28.5058 34.5258
1032.003 43.6658 56.9958 75.2058 99.5958 129.086 156.616 174.836 186.636 198.316 203.226
1051.293 199.276 189.026 163.506 126.576 93.4858 71.1858 58.1858 49.9858 45.5658 43.6258
1070.583 42.3758 42.2758 43.5258 44.8258 46.0958 49.9458 53.9758 57.6258 61.9658 67.3358
1089.873 73.5158 79.0758 84.9658 92.9058 102.326 113.116 127.456 146.166 170.636 203.246
1109.163 242.876 286.406 330.176 376.066 424.406 472.216 521.116 561.126 590.696 612.186
1128.452 633.366 659.756 690.356 730.636 780.816 834.756 889.466 938.326 969.196 995.776
1147.742 1014.73 1003.95 972.026 939.706 908.336 882.776 866.676 857.646 858.946 867.776
1167.032 876.436 873.916 855.596 825.076 788.796 748.346 708.376 674.126 640.766 610.026
1186.322 582.376 555.226 530.106 509.966 497.406 487.336 472.856 455.246 431.576 403.536
1205.611 374.906 343.726 312.976 282.446 248.906 216.306 186.796 160.406 137.026 117.906
1224.901 106.476 99.7758 95.5358 94.8458 97.1158 101.056 107.686 116.776 127.856 140.106
1244.191 152.406 166.046 180.546 193.326 204.086 214.246 225.036 236.556 251.856 276.336
1263.481 312.596 362.676 428.576 506.146 582.296 642.026 677.816 688.786 676.636 641.216
1282.771 586.726 513.926 417.156 314.486 232.646 182.116 157.686 148.536 147.956 152.936
1302.060 161.816 173.796 188.506 205.906 226.426 250.486 277.606 306.726 337.366 370.096
1321.350 405.846 446.136 492.256 543.866 599.866 655.206 702.406 736.606 751.586 743.396
1340.640 712.966 662.366 592.736 508.226 413.126 314.826 227.436 161.966 118.896 91.7958
1359.930 74.1558 61.7958 52.7658 46.0058 40.7758 36.9058 33.7158 31.0358 28.9158 27.3558
1379.219 26.3858 25.5758 24.9058 24.5558 24.5158 24.5258 24.5458 24.9558 25.6258 26.3158
1398.509 27.2558 28.4058 29.8858 31.6658 33.5058 35.2158 37.1058 39.3758 42.2058 46.1558
1417.799 51.5558 59.0458 68.8758 81.9458 99.1458 120.076 145.456 173.896 204.206 234.236
1437.089 263.936 289.676 309.926 322.536 325.026 317.556 300.296 275.676 245.436 213.906
1456.378 180.606 147.586 120.966 102.406 93.2858 90.8858 93.7458 100.026 109.386 122.476
1475.668 139.826 163.646 195.206 236.256 287.446 348.396 417.926 492.606 569.306 642.546
1494.958 710.796 778.256 837.146 877.276 887.086 864.356 817.386 762.576 699.776 623.246
1514.248 533.646 432.436 332.386 250.126 181.976 133.456 98.1058 72.8758 55.5858 43.9158
1533.538 35.9958 30.6058 27.0658 24.7258 22.6258 20.8558 19.6058 18.5058 17.6958 16.8958
1552.827 16.3058 15.6758 15.0358 14.6558 14.2758 13.6658 13.3758 13.1758 13.2158 13.2058
1572.117 12.7358 12.4058 12.2758 12.3958 12.4558 12.2458 12.3458 12.6358 12.8658 13.2358
1591.407 13.7958 14.8258 15.9258 16.7058 17.4658 18.3658 19.3658 20.2658 21.2158 21.7658
1610.697 22.0958 22.6358 23.3158 23.9758 24.7258 25.6758 26.6158 27.9058 28.9258 29.6858
1629.986 30.2858 30.2658 29.7158 28.7858 27.4358 26.0858 24.7058 23.2658 21.9058 20.4858
1649.276 19.1458 18.4258 17.4458 16.0458 15.1958 14.2558 13.0858 11.7958 10.4158 9.5058
1668.566 9.0158 8.4758 7.8658 7.5758 7.4058 6.9658 6.8358 6.7058 6.3558 6.3258
1687.856 6.3658 6.3958 6.5458 6.7158 7.0458 7.1758 7.2758 7.4758 7.4158 7.5258
1707.146 7.7758 7.9358 7.9058 7.9558 8.0858 8.1158 8.3358 8.4158 8.6658 9.3158
1726.435 9.8458 10.2658 10.7558 11.2458 12.1158 12.8058 13.3958 14.4858 15.4158 16.3158
1745.725 17.0858 17.6358 17.9758 18.0458 17.8958 17.4958 17.0258 16.3458 15.4158 14.2758
1765.015 13.0358 11.8858 10.8258 9.7558 8.7658 8.0958 7.4258 6.6458 6.0358 5.6858
1784.305 5.4858 5.3258 5.1358 4.9258 4.8558 4.7758 4.4658 4.1258 3.9258 3.7958
1803.594 3.7058 3.6958 3.7858 3.7558 3.7458 3.9058 4.0058 4.0758 4.0658 3.7858
1822.884 3.7258 3.7658 3.7258 3.7058 3.6258 3.5658 3.4758 3.5758 3.8358 3.9258
1842.174 4.0658 4.3858 4.6458 4.6958 4.6358 4.5558 4.5558 4.6158 4.5658 4.6958
1861.464 4.8358 5.0358 5.4758 6.0358 6.8358 7.6158 8.4058 9.4458 10.7058 11.7058
1880.754 12.3258 12.6558 12.6558 12.4258 11.8258 10.9258 9.9858 8.9058 7.7458 6.9058
1900.043 6.2758 5.7258 5.5458 5.4058 5.0958 4.9058 4.9358 4.7658 4.5358 4.5258
1919.333 4.5358 4.4958 4.3258 4.2558 4.1758 4.0858 4.0458 3.8958 3.7558 3.7358
1938.623 3.5958 3.4258 3.4558 3.4058 3.3858 3.3558 3.4258 3.5158 3.4158 3.3658
1957.913 3.2658 3.3158 3.2958 3.2558 3.0958 3.0658 3.1758 2.9358 2.8358 2.8658
1977.202 2.6758 2.5358 2.5058 2.4358 2.6058 2.7558 2.6558 2.5658 2.6258 2.8158
1996.492 2.9858 2.9158 2.9458 2.8758 2.8758 3.0158 2.9458 2.9958 3.2558 3.4258
2015.782 3.2858 3.2958 3.6258 3.8158 3.9858 4.2958 4.5558 4.9758 5.2758 5.5558
2035.072 5.8958 6.2058 6.4958 6.6358 6.7458 6.7758 6.8658 7.0658 7.0958 7.0358
2054.362 6.9058 6.9758 6.9958 6.7058 6.4858 6.2558 6.0858 5.9558 5.8558 5.6758
2073.651 5.4258 5.2758 5.2058 5.1558 5.1658 4.9958 4.9358 5.0658 4.9758 4.8658
2092.941 4.8358 4.7058 4.6358 4.6158 4.5958 4.6058 4.4958 4.4758 4.4958 4.4458
2112.231 4.3558 4.2658 4.0058 3.8358 3.6958 3.1658 2.8758 2.8058 2.5558 2.3058
2131.521 2.1258 1.9058 1.7458 1.6058 1.5258 1.6458 1.4558 1.1758 1.1358 1.2558
2150.810 1.3758 1.5258 1.6558 1.5058 1.7558 2.1658 2.0458 1.8458 1.9058 2.1258
2170.100 2.1958 2.1458 2.2358 2.2458 2.1858 2.1458 2.0658 2.0458 2.2858 2.5058
2189.390 2.5558 2.5858 2.6558 2.5558 2.6058 2.8958 3.0158 3.0658 3.1158 3.0958
2208.680 3.3758 3.6658 3.6358 3.6958 3.9758 4.1458 4.3358 4.6658 4.7558 4.9958
2227.970 5.2958 5.4058 5.4258 5.5158 5.4658 5.2958 5.2358 5.0758 4.8858 4.7658
2247.259 4.6058 4.4558 4.4558 4.2458 4.1158 3.9758 3.7258 3.5958 3.5858 3.6158
2266.549 3.6458 3.7858 3.6058 3.8358 4.1558 4.2258 4.6758 4.8858 4.8358 4.8758
2285.839 5.0158 5.1858 5.2258 5.2358 5.3858 5.3658 5.1758 5.0858 5.0958 5.0558
2305.129 4.9058 4.8158 4.9258 4.8458 4.8258 5.1358 5.2758 5.2558 5.1958 5.0158
2324.418 4.8758 4.9658 4.9758 4.7658 4.7358 4.6058 4.5058 4.3958 4.2258 4.1558
2343.708 4.1558 4.2258 4.1258 4.3158 4.3358 4.1358 4.1858 4.0958 3.8358 3.7958
2362.998 3.7658 3.8258 3.8958 3.8558 4.0258 4.1558 4.2158 4.2358 4.2158 4.3358
2382.288 4.5658 4.4458 4.3158 4.5258 4.7458 4.8358 4.8358 5.0358 5.1258 5.2158
2401.578 5.3158 5.3558 5.5958 5.7758 5.8158 5.9858 6.3258 6.4658 6.1658 5.9558
2420.867 6.0758 5.9258 5.7058 5.7858 5.8858 5.7958 5.8058 5.9158 6.1358 6.3058
2440.157 6.3558 6.5958 6.8758 6.9358 6.9458 6.9258 6.8558 6.6858 6.5058 6.4958
2459.447 6.2458 6.0058 5.9458 5.6258 5.4058 5.1958 4.8458 4.7358 4.7058 4.4358
2478.737 4.3758 4.5358 4.4358 4.2058 3.9558 3.9858 4.3058 4.4558 4.3658 4.2458
2498.026 4.1958 4.2358 4.3058 4.3358 4.4058 4.5458 4.6558 4.4558 4.2858 4.4558
2517.316 4.5058 4.3358 4.3558 4.4458 4.1458 3.9058 4.0758 4.0458 3.8858 3.7358
2536.606 3.6858 3.7358 3.6658 3.4858 3.4158 3.6858 3.8158 3.6758 3.4958 3.2158
2555.896 2.8558 2.6758 2.5158 2.2858 2.1758 1.9058 1.6058 1.5058 1.3258 1.0299
2575.186 1.0527 1.2758 1.3658 1.3758 1.3558 1.3758 1.7358 1.8258 1.6858 2.1058
2594.475 2.3758 2.4258 2.7658 2.8358 2.9258 3.1858 3.2458 3.3058 3.4758 3.5558
2613.765 3.6458 3.5758 3.3258 3.3658 3.3858 3.1058 2.8458 2.7758 2.8058 2.5958
2633.055 2.3058 2.2258 2.2058 2.0258 1.8858 1.9158 1.8558 1.6458 1.6158 2.0258
2652.345 2.3058 2.5158 2.5758 2.5358 2.6558 2.8758 3.0258 3.0158 3.3458 3.6758
2671.634 3.6058 3.5658 3.5658 3.6758 3.4658 3.0758 3.0258 2.8158 2.4958 2.3858
2690.924 2.1058 1.6258 1.1958 1.1258 1.1658 0.8456 0.6099 0.7416 0.9345 1.0344
2710.214 0.995 1.0266 1.1058 0.8715 0.8164 1.1158 1.1058 0.9974 1.016 0.8884
2729.504 0.7191 0.6873 0.8947 1.0658 1.0858 1.1158 1.2758 1.4658 1.7358 1.8858
2748.794 1.8458 2.0458 2.2558 2.5658 2.5058 2.0058 2.2158 2.4458 2.2558 2.4658
2768.083 2.5758 2.7558 2.7658 2.6258 2.8858 2.8258 2.9258 3.2658 3.2058 2.7258
2787.373 2.4658 2.5058 2.4758 2.0758 1.6958 1.8358 1.7958 1.5058 1.3458 1.4558
2806.663 1.5958 1.4458 1.0858 1.2358 1.3758 1.2758 1.2258 0.9909 0.764 0.8292
2825.953 0.9597 1.0658 1.1958 0.9936 0.8639 0.9076 1.0521 0.8424 0.8035 1.1958
2845.242 0.8687 0.5074 0.6602 0.6947 0.514 0.4863 0.7056 0.8054 0.7509 0.8122
2864.532 0.8189 0.8278 0.8341 0.6118 0.6797 0.7786 0.8522 0.9281 0.9016 0.9721
2883.822 1.1758 1.0858 1.0159 1.3758 1.3658 1.1458 1.3958 1.7158 1.6858 1.6558
2903.112 1.6358 1.4758 1.2358 1.4358 1.6358 1.7558 1.7958 1.6358 1.4558 1.2558
2922.401 1.3058 1.5258 1.4658 1.1258 1.3858 1.9258 2.1458 2.1358 2.0358 1.9158
2941.691 1.7858 1.9058 2.2158 2.2658 2.1458 2.1558 2.4258 2.4058 2.2658 2.2158
2960.981 2.0058 1.7358 1.4358 1.5058 1.6158 1.6558 1.5258 1.2858 1.4258 1.2358
2980.271 0.9317 0.9209 0.9141 0.8395 0.7005 0.4851 0.3992 0.8477 0.923 0.7838
2999.561 0.5877 0.6393 0.9874 1.0006 1.0858 1.0312 1.0103 1.4358 1.5458 1.4358
3018.850 1.3958 1.6858 1.7858 1.7858 2.3858 2.7558 2.6558 2.7358 3.0858 3.4358
3038.140 4.1758 4.7958 5.3558 6.0058 6.6758 7.2558 8.0258 8.7958 9.2258 9.4358
3057.430 9.5558 10.1658 10.5358 10.4158 10.1958 9.6058 9.2258 8.7358 7.8058 7.3358
3076.720 7.2358 7.2158 7.8258 8.5058 9.1758 9.7858 10.1358 10.5658 10.6058 10.4058
3096.009 9.6858 8.3258 6.8158 5.2758 4.0758 3.3758 2.6058 1.8858 1.6458 1.5758
3115.299 1.4258 1.1458 0.8512 0.9042 0.9004 0.6489 0.5924 0.6682 0.6045 0.3596
3134.589 0.504 0.9043 0.9708 0.8033 0.6905 0.7234 0.6295 0.5163 0.4315 0.7543
3153.879 0.9972 0.6629 0.4759 0.3129 0.2725 0.169 0.0165 0.2839 0.5525 0.6504
3173.169 0.4191 0.3696 0.736 0.8023 0.5787 0.4173 0.6453 0.6963 0.15325 0.0016
3192.458 0.463 0.3719 0.2376 0.2627 0.14823 0.10807 0 0.2121 0.3634 0.3235
3211.748 0.3725 0.484 0.5213 0.4279 0.7065 0.7306 0.0055 0.09273 0.5394 0.5194
3231.038 0.2848 0.7297 1.2358 0.5168 0.6276 0.8326 0.4966 0.8628 0.9118 0.4735
3250.328 0.5258 0.7248 0.7442 0.9807 1.1858 1.0958 1.0426 1.0176 0.7076 0.8339
3269.617 1.0658 1.0758 0.8885 0.9941 1.2158 0.8428 0.9302 1.1058 0.6525 0.7358
3288.907 1.2058 1.2158 1.1858 1.2658 1.2358 0.8699 0.7275 0.8158 1.0046 1.1358
3308.197 1.0009 0.9788 1.3758 1.9158 1.7458 1.1458 0.8181 0.9361 1.2758 1.4358
3327.487 1.4758 1.7958 1.8358 1.3858 1.5258 1.6958 1.6858 2.2858 2.3958 2.1458
3346.777 2.5558 2.5158 2.0558 2.4258 3.2458 3.2958 3.0358 2.9458 2.5458 2.4158
3366.066 2.8558 3.1758 3.4958 3.6358 3.2758 3.1858 3.3258 3.3958 3.4658 3.4758
3385.356 3.3458 3.3058 3.4758 3.3258 3.0458 3.0158 3.1658 3.3658 2.9958 2.6558
3404.646 2.7558 2.7158 2.5158 2.5058 2.4658 2.1858 1.9658 2.0958 2.3158 2.0258
3423.936 1.7658 1.4258 1.1858 1.4158 1.8958 2.0358 1.4858 1.1958 1.6658 1.9358
3443.225 1.8658 1.4358 1.2358 1.6658 1.5958 1.6258 1.9158 1.7358 1.2958 1.0658
3462.515 1.3558 1.7658 1.9258 1.9458 2.0458 2.0058 1.9158 2.1858 2.0058 1.3458
3481.805 1.2558 1.2058 0.966 1.1958 1.4258 1.2758 1.5958 1.7558 1.0858 1.1058
3501.095 1.4858 1.6058 1.6158 1.3058 1.5158 1.5458 1.4958 1.4258 1.1858 1.3858
3520.385 1.0518 0.9644 1.3558 1.6558 1.7058 1.7558 1.5658 1.2158 1.4958 1.3858
3539.674 1.5858 1.8058 1.5258 1.2858 1.2458 1.7758 1.8158 1.4058 1.3758 1.6558
3558.964 1.6558 1.3458 1.4058 1.5958 1.8658 2.1358 1.9958 1.9158 2.2458 2.3658
3578.254 2.3058 2.2158 2.4758 2.7558 2.5058 2.4758 2.8058 2.6758 3.2558 4.5958
3597.544 4.9658 5.6458 5.9758 5.9558 6.6058 7.3058 8.0058 9.2758 10.8358 12.1258
3616.833 14.0458 16.7358 19.9458 24.1658 29.1958 35.4958 43.7358 54.4258 67.1758 83.5158
3636.123 104.556 131.106 164.496 204.936 251.866 301.906 349.336 389.566 419.406 431.526
3655.413 426.026 409.096 379.756 336.446 283.426 226.056 171.186 124.376 88.3458 64.3358
3674.703 47.5858 36.5358 29.4958 24.3658 21.3558 18.5958 16.1958 14.4058 12.6458 11.5658
3693.993 10.7958 9.2958 8.4358 7.7258 6.9658 6.2858 5.8158 5.6758 5.0058 4.2758
3713.282 3.7958 3.3658 3.1658 3.2858 2.9958 2.5058 2.4758 2.7458 2.5258 2.3558
3732.572 2.3158 2.2758 2.1058 1.9758 2.4058 2.7258 2.3658 2.0758 2.3058 2.2458
3751.862 2.4958 2.4058 2.1158 2.0458 1.8458 1.9958 1.8658 1.4258 1.1858 1.6358
3771.152 1.9658 2.0058 1.9658 1.8258 1.7658 1.8358 2.2258 2.2758 1.7858 1.4658
3790.441 1.7058 2.0558 2.2958 2.1058 2.1358 2.0058 1.5958 1.6458 2.3558 2.8658
3809.731 2.8958 3.0058 3.1358 2.9858 2.7558 3.0558 3.1458 3.1258 3.4458 4.0458
3829.021 4.3958 4.0258 3.6358 4.2058 5.2558 5.2558 5.0458 5.3758 5.3658 4.9958
3848.311 4.9758 4.9558 4.9258 4.7458 4.6458 4.6858 4.2058 3.8758 3.6958 3.3458
3867.601 3.1958 3.1158 2.9958 3.0558 3.0058 2.9258 3.1158 3.5658 3.7758 3.3658
3886.890 3.3658 3.6358 3.5358 3.4358 3.1158 3.0458 3.2858 2.8158 2.8258 3.6158
3906.180 3.4758 3.0458 3.1558 2.8558 2.6158 2.7158 2.7558 2.9258 2.9858 3.2958
3925.470 3.4458 3.6958 3.2358 2.5958 2.6758 2.9258 3.1958 2.7658 2.8358 3.3958
3944.760 3.7558 3.4958 3.0858 3.4858 3.5558 3.4158 3.5058 3.3158 3.2358 3.3458
3964.049 3.4758 2.7858 1.9458 1.7758 2.1558 2.3558 2.1858 2.0458 1.6858 2.0058
3983.339 2.5358 2.3058 2.0258 1.8058 1.7058 1.8258 2.0158 1.9658 1.6358 1.6058
##END=
