##TITLE=3-(1-Naphthyl)acrylic acid
##JCAMP-DX=4.24
##DATA TYPE=INFRARED SPECTRUM
##ORIGIN=EPA-IR VAPOR PHASE LIBRARY
##OWNER=SRD/NIST
Collection (C) 2018 copyright by the U.S. Secretary of Commerce
on behalf of the United States of America. All rights reserved.
##CAS REGISTRY NO=13026-12-5
##MOLFORM=C 13 H 10 O 2
##$NIST SOURCE=MSDC-IR
##STATE=gas
##XUNITS=1/CM
##YUNITS=ABSORBANCE
##XFACTOR=1.
##YFACTOR=0.001
##DELTAX=1.929
##FIRSTX=549.8
##LASTX=4000.8
##FIRSTY=3.361
##MAXX=4000.75
##MINX=549.766
##MAXY=0.023581
##MINY=0
##NPOINTS=1790
##XYDATA=(X++(Y..Y))
549.766 3.361 4.021 4.281 4.111 4.031 4.001 3.871 3.911 4.061 4.031
569.056 3.901 4.021 4.451 4.821 5.061 5.651 6.391 6.601 6.421 6.041
588.346 5.381 4.491 3.661 2.811 2.241 1.961 1.651 1.501 1.351 1.261
607.636 1.2193 1.2048 1.2415 1.281 1.301 1.331 1.281 1.321 1.431 1.391
626.926 1.411 1.271 1.0196 1.037 1.1075 1.2122 1.251 1.331 1.441 1.511
646.216 1.541 1.701 1.931 1.931 1.921 1.771 1.491 1.411 1.331 1.1888
665.506 1.1129 1.046 0.873 0.6134 0.6331 0.7128 0.676 0.6605 0.5426 0.4817
684.796 0.5336 0.5014 0.4791 0.5425 0.5121 0.5162 0.6202 0.7309 0.8425 0.9876
704.086 1.1339 1.2247 1.421 1.591 1.581 1.691 1.971 2.231 2.261 2.181
723.376 1.991 1.751 1.601 1.531 1.521 1.321 1.1698 1.2455 1.2154 1.1505
742.666 1.1444 1.1323 1.1625 1.1413 1.2472 1.351 1.351 1.571 1.911 2.341
761.956 2.951 3.701 4.511 5.221 5.821 6.451 6.591 5.861 5.061 4.581
781.246 4.211 3.901 3.631 3.481 3.611 4.061 4.561 4.691 4.311 3.801
800.536 3.301 2.681 2.131 1.711 1.331 1.261 0.8905 0.31303 0.34703 0.4524
819.826 0.5439 0.5023 0.5159 0.6085 0.5647 0.605 0.5991 0.5774 0.6134 0.6626
839.116 0.7027 0.6898 0.7529 0.8558 0.8679 0.9204 1.0331 1.1425 1.1992 1.05
858.406 0.9614 1.0539 1.0218 0.9838 1.0366 1.0514 1.1306 1.2266 1.214 1.156
877.696 1.1107 1.1219 1.1138 1.0501 0.9794 0.9505 1.0097 1.0135 0.9273 0.9342
896.986 0.9773 0.9217 0.8451 0.8102 0.7899 0.7655 0.7687 0.7795 0.799 0.8347
916.276 0.8465 0.8208 0.7339 0.6363 0.6247 0.616 0.5923 0.6227 0.7206 0.8284
935.566 0.934 0.993 0.9755 1.0983 1.2479 1.361 1.421 1.421 1.391 1.341
954.856 1.331 1.331 1.351 1.351 1.451 1.581 1.681 1.881 2.091 2.251
974.146 2.501 2.691 2.711 2.611 2.461 2.291 2.161 1.981 1.781 1.691
993.436 1.531 1.361 1.261 1.1514 1.1318 1.0247 0.9484 1.0152 1.0114 0.9726
1012.726 1.0243 1.1101 1.0601 0.9954 0.9485 0.893 0.8987 0.9474 0.9353 0.9344
1032.016 1.0071 1.0126 1.0297 1.0044 0.9404 0.9192 0.848 0.8546 0.8948 0.9352
1051.306 0.991 0.9664 0.923 0.9755 1.0682 1.1108 1.1723 1.2 1.351 1.531
1070.596 1.671 1.961 2.291 2.681 3.071 3.371 3.511 3.551 3.531 3.401
1089.886 3.271 3.271 3.361 3.591 3.991 4.441 5.051 5.861 6.991 8.521
1109.176 10.441 12.821 15.461 17.871 19.641 20.571 20.411 19.201 17.151 14.441
1128.467 11.831 9.821 8.521 7.881 7.481 7.201 7.151 7.161 7.221 7.441
1147.757 7.741 8.081 8.491 8.651 8.561 8.391 8.051 7.431 6.741 5.991
1167.047 5.221 4.601 4.001 3.531 3.111 2.781 2.471 2.201 2.041 1.851
1186.337 1.681 1.601 1.511 1.401 1.311 1.2342 1.2328 1.2195 1.2114 1.281
1205.627 1.301 1.341 1.411 1.331 1.271 1.331 1.331 1.331 1.361 1.401
1224.917 1.521 1.621 1.671 1.801 1.851 1.941 2.081 2.091 2.081 2.071
1244.207 2.131 2.181 2.191 2.251 2.351 2.371 2.431 2.481 2.511 2.501
1263.497 2.411 2.371 2.381 2.391 2.371 2.321 2.271 2.341 2.431 2.411
1282.787 2.481 2.621 2.701 2.731 2.751 2.831 2.901 2.891 2.791 2.681
1302.077 2.521 2.311 2.181 2.071 1.961 1.891 1.821 1.701 1.661 1.651
1321.367 1.601 1.631 1.661 1.681 1.761 1.851 1.981 2.141 2.311 2.511
1340.657 2.761 3.051 3.441 3.781 4.041 4.391 4.721 4.921 5.071 5.131
1359.947 5.141 5.101 4.891 4.581 4.201 3.771 3.351 2.891 2.451 2.131
1379.237 1.861 1.681 1.611 1.571 1.621 1.781 2.021 2.271 2.391 2.451
1398.527 2.411 2.211 1.941 1.591 1.281 1.1028 0.9557 0.855 0.8402 0.7706
1417.817 0.6747 0.6273 0.6657 0.6978 0.6883 0.6971 0.7018 0.6852 0.6844 0.6936
1437.107 0.6915 0.7166 0.6849 0.6363 0.63 0.622 0.575 0.5006 0.4393 0.3888
1456.397 0.33963 0.33873 0.3914 0.4283 0.4118 0.3798 0.3974 0.3867 0.3513 0.35014
1475.687 0.34062 0.34398 0.367 0.3682 0.32065 0.31655 0.34957 0.3812 0.4273 0.4563
1494.977 0.4701 0.5031 0.5879 0.6654 0.7259 0.8038 0.856 0.8351 0.8562 0.8603
1514.267 0.7948 0.7844 0.7173 0.58 0.5169 0.4452 0.4129 0.4158 0.34989 0.28095
1533.557 0.24721 0.2733 0.31594 0.34811 0.29015 0.2093 0.2171 0.251881 0.2731 0.31991
1552.847 0.32102 0.3521 0.3625 0.32315 0.3542 0.37 0.3791 0.4349 0.463 0.4546
1572.137 0.4834 0.5531 0.6039 0.609 0.6181 0.6538 0.7368 0.8144 0.8364 0.8232
1591.427 0.8414 0.8184 0.8039 0.8008 0.7889 0.7915 0.8508 0.9353 0.9959 1.0941
1610.717 1.2181 1.371 1.481 1.551 1.711 1.941 2.131 2.361 2.671 3.111
1630.007 3.681 4.311 5.011 5.681 6.111 6.331 6.201 5.691 4.821 3.781
1649.297 2.821 2.081 1.531 1.1586 0.9599 0.8568 0.779 0.6999 0.6558 0.68
1668.587 0.6765 0.6864 0.6921 0.6577 0.6998 0.748 0.728 0.6531 0.673 0.7624
1687.877 0.8317 0.9443 1.0227 1.0646 1.0963 1.0762 1.081 1.1646 1.281 1.381
1707.167 1.461 1.591 1.721 1.841 2.001 2.181 2.381 2.581 2.831 3.161
1726.457 3.601 4.071 4.611 5.301 6.231 7.211 8.211 9.551 11.121 13.141
1745.747 15.451 17.931 20.291 22.311 23.581 23.561 22.351 20.471 18.161 15.711
1765.037 13.271 11.081 9.381 8.141 7.261 6.651 6.071 5.551 5.101 4.671
1784.327 4.191 3.771 3.451 3.121 2.761 2.511 2.321 2.101 1.941 1.821
1803.617 1.711 1.541 1.381 1.271 1.181 1.1384 1.086 1.0132 0.9958 0.9492
1822.907 0.889 0.8844 0.9121 0.8648 0.7969 0.7612 0.7158 0.6662 0.6099 0.5341
1842.197 0.4673 0.482 0.4873 0.4811 0.5007 0.48 0.4588 0.4623 0.4609 0.4732
1861.487 0.4642 0.4589 0.4685 0.4753 0.4484 0.4012 0.3803 0.3636 0.3536 0.3582
1880.777 0.3659 0.34997 0.34455 0.3898 0.4173 0.4 0.4009 0.3939 0.3794 0.4146
1900.067 0.4002 0.3538 0.3917 0.3978 0.3989 0.4552 0.4594 0.4326 0.4225 0.4105
1919.357 0.429 0.4706 0.4897 0.4589 0.4394 0.4383 0.4503 0.4544 0.4301 0.413
1938.647 0.4514 0.4564 0.3859 0.3703 0.3847 0.3371 0.28648 0.28977 0.26247 0.2352
1957.937 0.225 0.2101 0.1669 0.136 0.102 0.1532 0.1992 0.1555 0.133 0.128
1977.227 0.1599 0.1554 0.144 0.118 0.119 0.112 0.111 0.126 0.118 0.131
1996.517 0.1518 0.1725 0.1807 0.1584 0.133 0.1596 0.1793 0.134 0.103 0.141
2015.807 0.128 0.115 0.136 0.1547 0.136 0.124 0.142 0.1586 0.1645 0.1597
2035.097 0.1693 0.1739 0.1841 0.1696 0.1703 0.2134 0.2156 0.1932 0.1984 0.1974
2054.387 0.2075 0.1926 0.1751 0.1842 0.197 0.1992 0.1648 0.1693 0.1929 0.1619
2073.677 0.146 0.146 0.104 0.111 0.13 0.121 0.108 0.074 0.083 0.089
2092.967 0.102 0.128 0.118 0.1 0.084 0.089 0.116 0.105 0.103 0.11
2112.257 0.049 0.057 0.092 0.059 0.059 0.083 0.112 0.096 0.083 0.117
2131.547 0.082 0.097 0.14 0.087 0.057 0.058 0.067 0.065 0.021 0
2150.837 0.054 0.082 0.085 0.089 0.065 0.056 0.062 0.094 0.105 0.105
2170.127 0.135 0.099 0.084 0.114 0.094 0.099 0.125 0.115 0.101 0.091
2189.417 0.094 0.123 0.13 0.134 0.149 0.1737 0.149 0.151 0.1788 0.149
2208.707 0.151 0.1515 0.12 0.121 0.144 0.123 0.096 0.134 0.149 0.1883
2227.997 0.260403 0.2252 0.14 0.134 0.1813 0.2034 0.2124 0.1945 0.1585 0.1525
2247.287 0.1928 0.2062 0.1928 0.1526 0.119 0.115 0.095 0.078 0.067 0.121
2266.577 0.12 0.07 0.111 0.117 0.141 0.1927 0.2168 0.1993 0.2046 0.1932
2285.868 0.1515 0.135 0.1531 0.14 0.119 0.137 0.109 0.126 0.164 0.1511
2305.158 0.143 0.1645 0.1757 0.145 0.146 0.134 0.071 0.058 0.063 0.099
2324.448 0.125 0.05 0.009 0.049 0.067 0.068 0.058 0.085 0.078 0.044
2343.738 0.081 0.125 0.138 0.148 0.095 0.063 0.106 0.083 0.018 0.007
2363.028 0.09 0.123 0.063 0.037 0.095 0.109 0.084 0.06 0.041 0.092
2382.318 0.093 0.09 0.1 0.097 0.119 0.115 0.083 0.04 0.054 0.08
2401.608 0.126 0.1763 0.187 0.141 0.093 0.129 0.252253 0.24867 0.15 0.1777
2420.898 0.1588 0.098 0.091 0.117 0.166 0.1793 0.1714 0.1634 0.143 0.139
2440.188 0.11 0.12 0.126 0.104 0.155 0.1904 0.1596 0.132 0.114 0.098
2459.478 0.121 0.103 0.078 0.129 0.1779 0.1802 0.137 0.121 0.1753 0.2369
2478.768 0.2296 0.1852 0.136 0.109 0.087 0.114 0.1852 0.2127 0.2189 0.147
2498.058 0.109 0.133 0.139 0.145 0.1549 0.1672 0.1694 0.1605 0.145 0.149
2517.348 0.1649 0.2134 0.2217 0.1534 0.1786 0.1695 0.1527 0.2033 0.15 0.136
2536.638 0.1513 0.11 0.115 0.1735 0.2361 0.1955 0.104 0.085 0.073 0.081
2555.928 0.1 0.14 0.1739 0.1995 0.198 0.178 0.1618 0.143 0.1603 0.132
2575.218 0.137 0.1676 0.144 0.134 0.104 0.141 0.2226 0.2252 0.1926 0.2117
2594.508 0.1798 0.136 0.148 0.1839 0.2231 0.2 0.1668 0.1733 0.1613 0.163
2613.798 0.1885 0.121 0.11 0.084 0.095 0.1528 0.135 0.178 0.1977 0.1515
2633.088 0.126 0.112 0.097 0.127 0.119 0.1539 0.1665 0.1 0.111 0.09
2652.378 0.097 0.108 0.133 0.1879 0.131 0.1 0.141 0.102 0.106 0.1746
2671.668 0.1712 0.1906 0.2255 0.2255 0.2183 0.1584 0.1522 0.1835 0.131 0.125
2690.958 0.169 0.1959 0.1793 0.1548 0.2307 0.2186 0.1648 0.13 0.131 0.1623
2710.248 0.1843 0.27414 0.26161 0.2313 0.2292 0.2042 0.1662 0.1872 0.1706 0.1561
2729.538 0.2101 0.2077 0.2057 0.2304 0.24591 0.2247 0.228 0.2351 0.1979 0.255133
2748.828 0.26613 0.1515 0.14 0.1753 0.2194 0.257577 0.260449 0.2069 0.1536 0.1741
2768.118 0.1948 0.1617 0.151 0.1808 0.1561 0.1682 0.2216 0.1942 0.2043 0.175
2787.408 0.1784 0.29088 0.30609 0.30836 0.26192 0.1536 0.15 0.1748 0.1683 0.1823
2806.698 0.135 0.124 0.1601 0.1612 0.26934 0.30464 0.2304 0.2063 0.2024 0.1684
2825.988 0.2061 0.316 0.2439 0.1522 0.2091 0.29079 0.26587 0.1612 0.1767 0.2335
2845.278 0.2284 0.2014 0.2132 0.24738 0.2023 0.145 0.1949 0.27878 0.29085 0.2314
2864.568 0.2369 0.2171 0.2094 0.2278 0.1951 0.2318 0.33356 0.29273 0.1617 0.206
2883.858 0.1857 0.1968 0.29422 0.27078 0.27353 0.296 0.254214 0.255793 0.256957 0.26455
2903.148 0.29708 0.29394 0.27776 0.28484 0.32275 0.34878 0.27722 0.30718 0.3926 0.3664
2922.438 0.27137 0.2146 0.2653 0.2733 0.2396 0.31969 0.3792 0.34297 0.31425 0.3135
2941.728 0.3563 0.3637 0.3699 0.4057 0.4566 0.4626 0.394 0.33648 0.30232 0.33565
2961.018 0.3728 0.402 0.4328 0.4047 0.4659 0.4319 0.3516 0.3838 0.4116 0.4759
2980.308 0.4894 0.4505 0.4703 0.4833 0.4473 0.5064 0.6001 0.6784 0.6875 0.6019
2999.598 0.5818 0.708 0.7356 0.6949 0.7755 0.7114 0.6912 0.8396 0.8175 0.7313
3018.888 0.7614 0.8027 0.8322 0.8666 0.9742 0.9805 0.9319 0.939 1.0106 1.115
3038.178 1.201 1.411 1.671 1.861 2.061 2.341 2.631 2.851 3.011 3.211
3057.468 3.511 3.771 3.971 4.151 4.071 3.941 3.841 3.551 3.201 2.881
3076.758 2.651 2.441 2.221 2.101 2.031 2.051 2.031 1.921 1.781 1.651
3096.048 1.491 1.301 1.2119 1.1832 1.0683 0.9354 0.6813 0.4788 0.4929 0.4762
3115.338 0.4264 0.4397 0.5057 0.4515 0.3767 0.3574 0.29363 0.29619 0.357 0.4012
3134.628 0.4327 0.31369 0.1985 0.2713 0.29849 0.256074 0.26331 0.27962 0.30495 0.27431
3153.918 0.28739 0.31128 0.2166 0.1801 0.2298 0.2172 0.3028 0.4255 0.3739 0.32343
3173.208 0.29293 0.259004 0.29049 0.24705 0.24454 0.33492 0.31081 0.2113 0.2149 0.255891
3192.498 0.30713 0.3663 0.3947 0.4257 0.3744 0.2711 0.2024 0.2371 0.2784 0.29084
3211.788 0.27614 0.29117 0.29387 0.26963 0.2941 0.27874 0.30164 0.31485 0.3577 0.3651
3231.078 0.29511 0.213 0.2038 0.31852 0.33918 0.3522 0.29742 0.2219 0.28882 0.31078
3250.368 0.3665 0.3574 0.3922 0.4309 0.32855 0.24694 0.27428 0.3863 0.30512 0.24146
3269.658 0.256118 0.30328 0.31615 0.32001 0.31264 0.26451 0.254981 0.26841 0.4064 0.3837
3288.948 0.231 0.1692 0.151 0.2247 0.29934 0.30715 0.33318 0.26862 0.2217 0.28298
3308.238 0.2316 0.1522 0.1893 0.252246 0.212 0.121 0.1643 0.27398 0.28584 0.3626
3327.528 0.34443 0.32634 0.4061 0.367 0.34578 0.32533 0.26405 0.2275 0.26402 0.25923
3346.818 0.2174 0.2694 0.4031 0.3687 0.30133 0.29493 0.31582 0.3893 0.33814 0.31066
3366.108 0.30748 0.258886 0.2269 0.2086 0.1874 0.28414 0.4132 0.3475 0.357 0.31984
3385.398 0.191 0.3141 0.4135 0.34028 0.3423 0.3606 0.3606 0.3695 0.33855 0.3679
3404.688 0.4206 0.3903 0.26956 0.30789 0.34249 0.24864 0.29537 0.3621 0.3197 0.29846
3423.978 0.30261 0.32585 0.3541 0.31518 0.31596 0.32858 0.4089 0.4484 0.3669 0.3786
3443.269 0.33031 0.30423 0.29767 0.28149 0.33117 0.3806 0.3654 0.2853 0.31785 0.31651
3462.559 0.438 0.529 0.4377 0.32559 0.32954 0.4774 0.5784 0.5586 0.4483 0.4779
3481.849 0.5027 0.454 0.4463 0.4815 0.4676 0.4599 0.4921 0.5116 0.512 0.4577
3501.139 0.4317 0.4259 0.4104 0.4994 0.6006 0.5118 0.4992 0.523 0.4584 0.4218
3520.429 0.4533 0.5197 0.5266 0.5181 0.4406 0.33496 0.3541 0.3901 0.4187 0.4173
3539.719 0.34694 0.27754 0.3683 0.6085 0.5504 0.4419 0.5029 0.6046 0.6603 0.6238
3559.009 0.7197 0.7939 0.8642 1.093 1.311 1.701 2.461 3.711 5.491 7.351
3578.299 8.891 9.811 10.171 9.951 8.961 7.261 5.401 3.811 2.561 1.721
3597.589 1.291 0.974 0.7604 0.7015 0.6445 0.6117 0.5995 0.538 0.456 0.5269
3616.879 0.5329 0.4635 0.4649 0.4341 0.5378 0.5453 0.28799 0.1684 0.32079 0.4787
3636.169 0.4141 0.3914 0.4203 0.4107 0.4934 0.4943 0.3622 0.30023 0.34736 0.3712
3655.459 0.4585 0.4658 0.4277 0.514 0.4382 0.4455 0.5432 0.4256 0.3314 0.3794
3674.749 0.31891 0.1924 0.2752 0.30796 0.28699 0.30752 0.3592 0.4638 0.4565 0.4269
3694.039 0.4459 0.3955 0.4022 0.5042 0.4284 0.4312 0.4831 0.4105 0.4301 0.4459
3713.329 0.3976 0.32329 0.26964 0.260935 0.29299 0.3772 0.4147 0.29495 0.2358 0.33104
3732.619 0.32385 0.29317 0.30438 0.30465 0.4298 0.5083 0.4585 0.4075 0.3593 0.3599
3751.909 0.32426 0.32125 0.4477 0.5246 0.4401 0.4634 0.4274 0.3649 0.33402 0.33235
3771.199 0.4384 0.4759 0.464 0.3852 0.4447 0.4732 0.34701 0.421 0.5112 0.4575
3790.489 0.33882 0.3669 0.5256 0.5112 0.3952 0.3609 0.29801 0.28895 0.4488 0.4309
3809.779 0.3332 0.2131 0.206 0.391 0.462 0.4213 0.4083 0.461 0.5215 0.4663
3829.069 0.3931 0.3794 0.3572 0.4284 0.3821 0.2033 0.1975 0.30529 0.35045 0.3618
3848.359 0.34257 0.34512 0.4155 0.405 0.33918 0.32375 0.3874 0.4692 0.4661 0.4116
3867.649 0.33775 0.24849 0.3575 0.4891 0.3806 0.368 0.4114 0.405 0.383 0.389
3886.939 0.3991 0.4051 0.4405 0.3867 0.4025 0.4324 0.5113 0.4772 0.35052 0.33569
3906.229 0.32751 0.32757 0.26134 0.28034 0.27163 0.29594 0.4201 0.5242 0.567 0.5306
3925.519 0.4888 0.462 0.4068 0.3879 0.389 0.33599 0.3777 0.3836 0.32598 0.3777
3944.809 0.4 0.3873 0.483 0.4901 0.4321 0.3863 0.34312 0.4427 0.3764 0.255152
3964.099 0.28122 0.2084 0.27487 0.30766 0.26566 0.31707 0.31452 0.3579 0.4221 0.381
3983.389 0.28855 0.33928 0.4005 0.33939 0.29429 0.1966 0.1722 0.27988 0.3767 0.4591
##END=
