##TITLE=p-Methoxybenzylidene p-cyanoaniline
##JCAMP-DX=4.24
##DATA TYPE=INFRARED SPECTRUM
##ORIGIN=EPA-IR VAPOR PHASE LIBRARY
##OWNER=SRD/NIST
Collection (C) 2018 copyright by the U.S. Secretary of Commerce
on behalf of the United States of America. All rights reserved.
##CAS REGISTRY NO=13036-19-6
##MOLFORM=C 15 H 12 N 2 O
##$NIST SOURCE=MSDC-IR
##STATE=gas
##XUNITS=1/CM
##YUNITS=ABSORBANCE
##XFACTOR=1.
##YFACTOR=0.001
##DELTAX=1.92898
##FIRSTX=549.8
##LASTX=4000.7
##FIRSTY=13.44
##MAXX=4000.7
##MINX=549.759
##MAXY=0.16984
##MINY=0
##NPOINTS=1790
##XYDATA=(X++(Y..Y))
549.759 13.44 14.33 14.55 14.67 14.56 13.98 13.71 13.84 13.88 13.57
569.049 13.24 12.64 11.79 10.91 9.96 8.82 7.47 6.44 5.66 4.73
588.339 3.94 3.76 3.48 2.85 2.19 1.87 1.85 2.01 1.88 1.72
607.628 1.81 1.62 1.42 1.49 1.61 1.41 1.36 1.0679 0.8697 1.15
626.918 1.34 1.3 1.46 1.76 2.08 2.12 1.57 1.18 1.21 1.28
646.208 1.31 1.34 1.31 1.36 1.31 0.9551 0.918 0.9904 0.8943 0.9661
665.498 1.0535 1.0904 1.12 1.2 1.22 1.2 1.17 1.15 1.21 1.37
684.787 1.52 1.71 1.9 2 2.03 2.21 2.52 2.87 3.16 3.3
704.077 3.56 3.78 4.08 4.29 4.3 4.33 4.26 3.96 3.65 3.26
723.367 2.8 2.58 2.27 1.82 1.64 1.5 1.34 1.52 1.59 1.47
742.657 1.54 1.66 1.55 1.4 1.48 1.62 1.66 1.65 1.64 1.75
761.947 1.79 1.75 1.93 1.98 2.1 2.21 2.14 2.18 2.15 2.21
781.236 2.27 2.35 2.5 2.69 2.87 2.97 3.34 3.74 4.07 4.62
800.526 5.14 5.62 6.08 6.55 7.13 7.86 8.88 10.17 11.67 13.46
819.816 15.34 17.28 19.7 22.4 25.19 28.24 31.21 33.97 35.95 36.56
839.106 36.01 34.21 31.34 28.2 25.29 22.63 20.29 17.96 15.85 14.17
858.395 12.77 11.61 10.7 10.24 9.94 9.78 10 10.25 10.62 11.55
877.685 12.9 14.49 16.46 18.78 20.5 21.03 20.48 18.75 15.89 12.97
896.975 10.8 8.88 7.2 6.13 5.15 4.27 3.88 3.51 3.2 2.93
916.265 2.72 2.59 2.35 2.31 2.28 2.16 2.16 2.11 2.06 2.1
935.555 2.23 2.35 2.31 2.29 2.41 2.57 2.69 2.81 2.91 2.87
954.844 3 3.07 3.25 3.55 3.62 3.84 4.11 4.25 4.5 4.88
974.134 5.27 5.47 5.3 5.13 4.95 4.61 4.4 4.26 4.17 4.29
993.424 4.41 4.53 4.84 5.18 5.48 5.82 6.28 6.84 7.38 8.34
1012.714 9.54 10.54 11.44 12.21 12.73 13.63 15.19 16.96 18.69 20.71
1032.003 22.88 24.67 25.68 25.45 24.32 22.6 20.07 17.26 14.8 12.46
1051.293 10.56 9.16 8.25 7.08 6.04 5.86 5.26 4.19 3.79 4.13
1070.583 4.01 3.52 3.21 3.45 4.12 4.09 3.93 3.67 3.21 3.63
1089.873 4.28 4.63 5.16 5.91 6.25 6.88 7.94 8.58 9.08 9.82
1109.163 9.67 8.44 7.6 7.15 6.36 5.78 5.85 5.8 5.5 5.37
1128.452 5.56 5.9 6.26 6.57 6.8 7.2 7.72 8.7 9.95 11.67
1147.742 14.53 18.3 23.58 32.13 46.94 72.32 109.43 147.49 169.84 169.59
1167.032 143.81 102.45 66.52 44.02 31.99 26.17 24.04 23.53 23.46 24.28
1186.322 25.65 27.41 29.97 33 34.94 33.95 30.39 26.27 22.09 18.22
1205.611 15.99 14.93 14.39 14.39 14.72 15.17 16.08 17.34 18.29 19.03
1224.901 19.85 21.11 23.24 26.18 29.72 34.74 41.05 48.22 56.72 66.4
1244.191 77.23 89.62 102.72 114.53 122.69 125.02 120.78 111.04 97.75 82.71
1263.481 67.55 53.99 43.34 35.64 30.37 26.83 24.57 23.26 22.66 22.81
1282.771 23.29 23.99 25.15 26.77 28.87 31.28 33.74 36.26 38.86 41.86
1302.060 44.5 45.48 44.33 40.59 34.8 28.57 22.96 18.54 15.33 13.06
1321.350 11.52 10.43 9.61 8.97 8.46 8.07 7.85 7.62 7.36 7.26
1340.640 7.12 6.96 6.83 6.63 6.42 6.18 5.93 5.74 5.59 5.48
1359.930 5.49 5.5 5.49 5.57 5.62 5.59 5.5 5.38 5.22 4.99
1379.219 4.76 4.56 4.43 4.3 4.19 4.16 4.18 4.26 4.31 4.42
1398.509 4.68 4.96 5.27 5.77 6.51 7.48 8.7 10.35 12.45 15.02
1417.799 17.7 19.88 20.7 19.87 17.52 14.38 11.5 9.46 8.27 7.77
1437.089 7.82 8.24 9.11 10.32 11.31 11.74 11.65 11.18 10.56 10.22
1456.378 10.44 11.01 11.79 12.79 13.91 15.02 15.8 16.17 16.05 15.39
1475.668 14.51 13.93 13.92 14.56 15.91 18.02 20.87 24.18 27.63 30.65
1494.958 32.97 34.93 37.19 40.95 47.49 57.37 70.96 86.49 99.76 106.25
1514.248 102.8 90.09 71.95 54.22 39.9 30.54 24.24 19.76 16.57 14.27
1533.538 12.64 11.52 10.92 10.66 10.53 10.62 10.79 11.02 11.41 12
1552.827 12.74 13.67 14.88 16.53 18.54 20.99 24.35 28.75 34.56 42.21
1572.117 51.47 61.15 69.53 74.46 75.39 74.1 73.74 77.92 88.32 104.04
1591.407 123.4 143.57 160.45 169.23 166.81 153.63 132.98 110.58 91.02 75.66
1610.697 63.68 54.05 46.6 40.98 37.56 36.51 37.57 41.19 47.63 56.79
1629.986 67.43 77.28 83.37 83.36 76.75 65.62 53.25 42.72 34.83 29.21
1649.276 25.3 22.53 20.41 18.77 17.54 16.47 15.52 14.67 13.75 12.75
1668.566 11.78 10.89 9.9 9.01 8.29 7.63 6.97 6.43 5.96 5.45
1687.856 5.01 4.68 4.4 4.11 3.86 3.64 3.51 3.34 3.15 3.06
1707.146 3.04 3.01 2.96 2.86 2.87 2.9 2.86 2.91 3.03 3.06
1726.435 2.93 2.86 2.8 2.69 2.62 2.54 2.51 2.45 2.33 2.3
1745.725 2.35 2.41 2.47 2.47 2.47 2.58 2.68 2.8 2.94 3
1765.015 3.06 3.16 3.2 3.21 3.18 3.11 3.04 2.96 2.85 2.64
1784.305 2.4 2.2 2.05 1.96 1.89 1.81 1.74 1.64 1.63 1.62
1803.594 1.59 1.6 1.6 1.57 1.48 1.46 1.47 1.48 1.46 1.44
1822.884 1.42 1.36 1.37 1.42 1.46 1.42 1.33 1.31 1.43 1.49
1842.174 1.47 1.52 1.57 1.6 1.64 1.67 1.71 1.72 1.76 1.74
1861.464 1.69 1.74 1.78 1.82 1.85 1.9 1.99 2.03 2.13 2.28
1880.754 2.36 2.46 2.6 2.66 2.7 2.81 2.85 2.91 2.92 2.9
1900.043 2.9 2.82 2.68 2.58 2.52 2.46 2.35 2.18 2.04 1.97
1919.333 1.94 1.9 1.85 1.86 1.84 1.86 1.98 2.05 2.13 2.18
1938.623 2.21 2.23 2.2 2.15 2.08 2.02 1.9 1.83 1.79 1.75
1957.913 1.71 1.68 1.6 1.55 1.65 1.68 1.56 1.47 1.42 1.46
1977.202 1.52 1.44 1.4 1.42 1.38 1.43 1.42 1.43 1.49 1.53
1996.492 1.61 1.71 1.83 1.99 2.19 2.29 2.38 2.48 2.53 2.51
2015.782 2.54 2.58 2.59 2.67 2.64 2.67 2.75 2.75 2.75 2.79
2035.072 2.77 2.74 2.75 2.75 2.77 2.85 2.92 2.97 3.03 3.03
2054.362 3.01 3.01 2.9 2.88 2.91 2.84 2.82 2.79 2.77 2.75
2073.651 2.74 2.63 2.52 2.54 2.52 2.39 2.26 2.11 1.98 1.83
2092.941 1.68 1.57 1.47 1.41 1.27 1.18 1.17 1.0668 1.0112 0.9849
2112.231 0.9335 0.9482 0.9231 0.8744 0.8576 0.8539 0.8193 0.7986 0.8522 0.9053
2131.521 0.9137 0.8354 0.822 0.854 0.8417 0.8482 0.78 0.7631 0.7736 0.7556
2150.810 0.7736 0.7261 0.6754 0.6707 0.6914 0.7309 0.745 0.7515 0.6849 0.7104
2170.100 0.7401 0.7312 0.8032 0.8618 0.9076 0.9083 0.8976 0.9058 0.895 0.8986
2189.390 0.8426 0.7958 0.9008 1.0119 1.0651 1.0151 1.0703 1.25 1.28 1.36
2208.680 1.56 1.76 2 2.43 3 3.79 4.97 6.76 9.51 12.98
2227.970 16.63 19.39 19.98 18.16 14.37 9.85 6.13 3.75 2.47 1.9
2247.259 1.62 1.39 1.28 1.25 1.14 1.16 1.18 1.19 1.25 1.2
2266.549 1.23 1.2 1.27 1.39 1.36 1.34 1.36 1.35 1.39 1.51
2285.839 1.47 1.33 1.29 1.29 1.27 1.18 1.17 1.12 1.0523 1.0506
2305.129 1.0084 0.9916 0.9964 0.9953 0.9704 1.0113 1.0166 1.12 1.19 1.16
2324.418 1.24 1.32 1.27 1.21 1.19 1.15 1.14 1.0827 0.9915 0.9319
2343.708 0.9252 0.9003 0.9431 1.0393 1.016 1.0142 1.0564 1.059 1.0194 1.0593
2362.998 1.0948 1.0545 1.0586 1.0845 1.0968 1.0952 1.13 1.27 1.36 1.42
2382.288 1.51 1.51 1.45 1.41 1.47 1.46 1.44 1.44 1.35 1.37
2401.578 1.38 1.33 1.37 1.42 1.44 1.38 1.31 1.38 1.43 1.4
2420.867 1.37 1.31 1.35 1.36 1.31 1.28 1.32 1.41 1.4 1.46
2440.157 1.47 1.41 1.39 1.37 1.39 1.45 1.5 1.5 1.47 1.48
2459.447 1.53 1.54 1.58 1.63 1.67 1.68 1.73 1.73 1.7 1.73
2478.737 1.73 1.74 1.69 1.67 1.7 1.72 1.72 1.71 1.75 1.83
2498.026 1.86 1.85 1.93 1.96 1.97 1.98 2.02 2.06 2.05 2.04
2517.316 2.1 2.14 2.16 2.24 2.26 2.23 2.25 2.31 2.42 2.48
2536.606 2.55 2.64 2.73 2.83 2.82 2.8 2.9 3.01 3.09 3.09
2555.896 3.01 2.97 2.85 2.64 2.45 2.36 2.3 2.2 2.03 1.93
2575.186 1.82 1.68 1.62 1.61 1.56 1.56 1.58 1.56 1.52 1.47
2594.475 1.47 1.44 1.39 1.43 1.44 1.48 1.53 1.43 1.38 1.34
2613.765 1.3 1.3 1.18 1.12 1.1068 1.0846 1.13 1.0845 1.0275 1.0279
2633.055 1.0428 1.0599 1.0253 1.0011 1.0183 1.0012 0.9765 0.9156 0.8993 0.8857
2652.345 0.8366 0.8898 0.8897 0.8168 0.7324 0.7275 0.7516 0.7215 0.7685 0.754
2671.634 0.7264 0.745 0.6858 0.6796 0.783 0.751 0.7322 0.8227 0.7941 0.7409
2690.924 0.7774 0.9133 0.9048 0.8445 0.9193 0.927 0.9447 0.9814 0.9769 0.9168
2710.214 0.9048 0.9622 0.9158 0.8875 0.9319 0.9671 1.0668 1.19 1.17 1.18
2729.504 1.17 1.22 1.37 1.35 1.42 1.55 1.62 1.66 1.61 1.66
2748.794 1.72 1.75 1.77 1.81 1.78 1.76 1.87 1.9 1.83 1.76
2768.083 1.73 1.77 1.77 1.69 1.7 1.83 1.87 1.82 1.82 1.89
2787.373 1.92 1.99 2.07 2.18 2.29 2.27 2.2 2.19 2.25 2.3
2806.663 2.41 2.41 2.44 2.68 2.79 2.85 3 3.24 3.57 3.87
2825.953 4.14 4.41 4.7 5.11 5.59 6.13 6.99 8.09 9.56 11.42
2845.242 13.25 14.63 15.16 14.8 13.82 12.71 11.78 11.11 10.58 10.09
2864.532 9.73 9.45 9.18 8.94 8.83 8.84 8.68 8.53 8.46 8.32
2883.822 8.29 8.2 7.94 7.75 7.54 7.22 6.96 6.83 6.87 6.79
2903.112 6.8 6.96 7.09 7.34 7.69 7.96 8.12 8.2 8.06 7.99
2922.401 8.09 8.15 8.09 8.09 8.22 8.4 8.82 9.56 10.47 11.57
2941.691 12.51 13.24 13.92 14.18 13.92 13.5 12.95 12.47 12.17 11.82
2960.981 11.51 11.17 10.69 10.26 9.64 8.97 8.51 7.95 7.41 7.07
2980.271 6.74 6.47 6.23 6.06 6.07 6.1 6.2 6.43 6.72 7.14
2999.561 7.83 8.62 9.43 10.41 11.65 13.07 14.31 14.82 14.44 13.15
3018.850 11.1 9.22 8 7.22 6.88 6.77 6.97 7.45 7.83 8.14
3038.140 8.5 8.8 8.75 8.34 7.8 7.13 6.3 5.39 4.76 4.51
3057.430 4.36 4.24 4.2 4.23 4.43 4.74 5.16 5.81 6.55 7.24
3076.720 7.85 8.16 8.18 7.85 7.21 6.68 6.19 5.8 5.56 5.5
3096.009 5.4 5.06 4.83 4.68 4.46 4.23 3.92 3.64 3.6 3.41
3115.299 3.08 2.92 2.74 2.51 2.27 1.97 1.66 1.56 1.58 1.44
3134.589 1.39 1.33 1.22 1.14 1.13 1.2 1.16 1.16 1.25 1.24
3153.879 1.1093 1.0049 0.905 0.9998 1.0774 0.8772 0.6987 0.8416 0.9572 0.8118
3173.169 0.8526 1.0324 1.17 1.13 1.0875 1.0718 1.0644 1.19 1.19 1.2
3192.458 1.16 1.12 1.19 1.21 1.16 1.15 1.0646 0.961 0.8965 0.9088
3211.748 0.9098 0.8438 0.8379 0.8834 0.9058 0.8199 0.8134 0.8675 0.8689 0.8205
3231.038 0.7525 0.6371 0.634 0.7691 0.83 0.8626 0.8922 0.8615 0.9273 0.994
3250.328 1.0604 1.18 1.23 1.17 1.17 1.17 1.0625 1.0153 0.9465 0.9113
3269.617 0.8097 0.7891 0.7466 0.5986 0.5374 0.4564 0.4907 0.4783 0.5403 0.4529
3288.907 0.3635 0.4253 0.4269 0.3744 0.2964 0.3979 0.4766 0.2408 0.18791 0.429
3308.197 0.4478 0.4058 0.4007 0.4413 0.482 0.4455 0.4086 0.2221 0.2918 0.4676
3327.487 0.4204 0.4044 0.2236 0.19819 0.3401 0.2864 0.3023 0.3435 0.3186 0.3013
3346.777 0.3028 0.3324 0.2211 0.15527 0.2399 0.17934 0 0.1032 0.2692 0.3185
3366.066 0.3183 0.2862 0.2207 0.2744 0.3546 0.2464 0.2595 0.3278 0.2496 0.3208
3385.356 0.3923 0.4283 0.5176 0.4472 0.4842 0.6181 0.4747 0.3702 0.4043 0.5224
3404.646 0.5608 0.518 0.5017 0.4828 0.5619 0.5304 0.4854 0.4979 0.5583 0.5049
3423.936 0.5197 0.578 0.4822 0.5432 0.6693 0.4827 0.3184 0.4601 0.397 0.2699
3443.225 0.3527 0.2817 0.2149 0.2267 0.2141 0.2501 0.2112 0.18586 0.2103 0.2622
3462.515 0.2946 0.2756 0.17807 0.10355 0.16296 0.12102 0.1367 0.3178 0.2724 0.18221
3481.805 0.14951 0.0392 0.118351 0.2577 0.2542 0.11602 0.10856 0.2269 0.2639 0.2266
3501.095 0.2822 0.3989 0.2815 0.0834 0.14659 0.2683 0.17372 0.16262 0.3101 0.4137
3520.385 0.4619 0.2872 0.2359 0.3255 0.2314 0.2632 0.3223 0.2756 0.13717 0.19546
3539.674 0.3515 0.287 0.2383 0.2384 0.17156 0.18977 0.2958 0.15262 0.0908 0.2607
3558.964 0.3151 0.3094 0.2356 0.219 0.3576 0.2695 0.12621 0.15584 0.12711 0.17464
3578.254 0.16387 0.0422 0.009 0.19496 0.3676 0.3404 0.284 0.20093 0.0572 0
3597.544 0.10235 0.1853 0.1341 0.2545 0.3781 0.2566 0.249 0.3427 0.3249 0.2822
3616.833 0.2772 0.3279 0.3753 0.16661 0.15782 0.2817 0.2193 0.2335 0.0982 0.0662
3636.123 0.2267 0.3321 0.3752 0.2687 0.0415 0.0678 0.257 0.2456 0.242 0.20805
3655.413 0.12455 0.1769 0.2804 0.3532 0.2466 0.0485 0.0639 0.109903 0.2188 0.2439
3674.703 0.2337 0.4159 0.4867 0.4993 0.4407 0.4022 0.5399 0.4775 0.4426 0.551
3693.993 0.4198 0.324 0.3512 0.2588 0.2968 0.3219 0.342 0.3149 0.3586 0.5929
3713.282 0.5184 0.4124 0.4049 0.3871 0.3533 0.3552 0.3512 0.3931 0.4899 0.4898
3732.572 0.3897 0.3382 0.4722 0.4882 0.4592 0.394 0.2832 0.2651 0.18635 0.1982
3751.862 0.19571 0.0949 0.14284 0.0893 0.0771 0.2449 0.3442 0.3749 0.3735 0.2799
3771.152 0.16087 0.2577 0.3287 0.2313 0.17732 0.20041 0.2399 0.3899 0.3468 0.16464
3790.441 0.20747 0.2515 0.1603 0.112659 0.2197 0.218 0.18181 0.2231 0.3533 0.3917
3809.731 0.3853 0.4404 0.3798 0.3187 0.483 0.586 0.502 0.5833 0.5611 0.4237
3829.021 0.4272 0.463 0.4866 0.4874 0.3234 0.1028 0.14934 0.3475 0.4176 0.3806
3848.311 0.4476 0.5767 0.4217 0.2872 0.2318 0.18256 0.3006 0.2532 0.2276 0.3581
3867.601 0.3836 0.4013 0.3848 0.3256 0.394 0.4707 0.4184 0.3253 0.2281 0.15898
3886.890 0.2133 0.3649 0.3419 0.3207 0.4411 0.4295 0.4168 0.3487 0.2665 0.2476
3906.180 0.19225 0.14837 0.18894 0.2731 0.219 0.2245 0.2345 0.19159 0.16082 0.15712
3925.470 0.18673 0.15486 0.2228 0.2508 0.16719 0.2398 0.113563 0.0428 0.14519 0.1645
3944.760 0.2116 0.2671 0.3372 0.3969 0.3939 0.391 0.4731 0.3782 0.17562 0.14023
3964.049 0.2961 0.321 0.2414 0.3648 0.3796 0.2887 0.2924 0.2783 0.4292 0.4785
3983.339 0.4344 0.4642 0.453 0.426 0.3313 0.2895 0.3402 0.3544 0.4707 0.4621
##END=
