##TITLE=Phenyl propargyl ether
##JCAMP-DX=4.24
##DATA TYPE=INFRARED SPECTRUM
##ORIGIN=EPA-IR VAPOR PHASE LIBRARY
##OWNER=SRD/NIST
Collection (C) 2018 copyright by the U.S. Secretary of Commerce
on behalf of the United States of America. All rights reserved.
##CAS REGISTRY NO=13045-88-0
##MOLFORM=C 9 H 8 O
##$NIST SOURCE=MSDC-IR
##STATE=gas
##XUNITS=1/CM
##YUNITS=ABSORBANCE
##XFACTOR=1.
##YFACTOR=0.001
##DELTAX=1.92898
##FIRSTX=549.8
##LASTX=4000.7
##FIRSTY=5.195
##MAXX=4000.7
##MINX=549.759
##MAXY=0.231705
##MINY=0
##NPOINTS=1790
##XYDATA=(X++(Y..Y))
549.759 5.195 4.995 5.145 6.195 5.705 5.105 5.135 4.925 5.595 5.275
569.049 4.875 5.255 5.845 6.595 6.705 6.895 7.475 8.385 8.665 8.785
588.339 9.785 10.355 11.125 12.205 12.315 12.865 13.795 14.245 14.725 15.485
607.628 16.575 18.245 20.845 23.695 27.255 31.925 37.585 44.155 50.485 56.095
626.918 61.355 66.145 70.385 73.435 75.915 77.045 74.655 70.665 65.545 60.875
646.208 57.065 52.955 50.495 49.745 50.575 54.145 60.685 70.635 80.665 84.155
665.498 81.165 80.495 81.645 78.305 75.135 72.995 69.365 65.865 62.945 60.515
684.787 59.135 58.665 57.295 54.035 49.675 45.205 41.455 37.815 34.315 30.835
704.077 27.055 23.555 21.065 18.545 16.175 14.945 13.945 13.385 13.225 12.995
723.367 13.425 14.505 16.055 18.355 21.585 25.335 29.525 34.215 38.825 43.595
742.657 48.935 54.155 59.325 64.885 68.225 67.465 64.425 61.575 58.775 55.115
761.947 51.625 48.555 44.805 41.545 38.795 35.625 32.785 30.255 27.505 25.395
781.236 23.885 21.855 19.765 17.625 15.385 13.365 11.955 11.045 10.155 9.425
800.526 8.735 8.215 8.415 8.325 7.775 7.775 7.975 8.005 8.105 8.395
819.816 8.605 8.465 8.315 8.465 8.515 8.115 7.495 7.195 6.805 6.185
839.106 5.665 5.345 4.775 4.385 4.365 4.175 3.855 3.815 4.285 4.405
858.395 4.565 4.895 5.055 5.315 5.485 5.875 6.275 6.495 6.925 7.425
877.685 7.855 8.375 8.535 8.455 8.605 8.525 8.425 8.435 8.185 8.025
896.975 7.955 7.865 7.885 8.355 9.075 9.635 10.065 10.925 12.155 13.065
916.265 13.795 14.375 15.235 16.225 16.925 17.375 17.565 17.255 16.695 16.085
935.555 15.245 14.325 13.575 12.705 11.795 11.115 10.715 10.445 9.815 9.305
954.844 9.045 8.935 9.095 9.345 9.745 10.175 10.575 11.065 11.615 12.155
974.134 13.155 14.655 15.775 16.955 18.715 20.295 22.105 24.515 27.015 29.335
993.424 31.435 33.515 35.205 37.055 40.075 42.765 45.305 48.895 52.645 56.455
1012.714 60.775 65.785 71.835 78.845 86.945 96.425 105.575 113.775 121.805 128.165
1032.003 132.235 135.355 137.265 136.435 132.115 124.495 114.115 102.075 90.695 80.115
1051.293 69.045 58.525 47.935 38.025 30.935 26.275 23.415 21.755 20.985 20.795
1070.583 20.265 20.185 19.535 17.975 16.815 15.595 14.295 13.515 12.305 11.465
1089.873 10.685 9.045 8.715 8.235 7.925 7.535 6.285 6.525 6.185 4.545
1109.163 4.525 5.245 5.165 4.895 5.455 5.615 4.635 4.665 5.365 4.965
1128.452 4.565 4.325 4.555 4.855 5.015 5.395 6.125 7.465 8.775 10.765
1147.742 12.655 13.405 14.945 17.875 21.365 25.475 30.325 34.675 37.705 40.765
1167.032 42.905 43.525 43.865 43.615 42.235 40.175 38.025 36.195 34.215 32.865
1186.322 33.885 36.215 40.335 47.555 57.595 71.105 87.575 107.215 129.035 151.535
1205.611 173.175 191.005 204.305 215.385 223.425 229.135 231.705 228.125 220.145 207.635
1224.901 195.255 185.595 178.685 172.575 166.865 161.505 154.875 147.655 139.555 132.285
1244.191 125.365 116.455 106.615 96.315 87.305 82.065 80.405 80.105 79.625 79.015
1263.481 77.905 76.755 75.435 74.215 73.055 71.385 69.215 66.815 64.465 62.345
1282.771 60.605 59.375 58.485 57.965 57.225 55.945 54.465 52.335 50.045 47.895
1302.060 45.475 42.855 39.775 36.125 32.385 28.935 25.865 23.365 21.595 20.575
1321.350 20.175 20.145 20.445 21.035 21.515 21.645 21.785 22.025 22.075 22.005
1340.640 21.765 21.185 20.375 19.605 19.145 19.155 19.705 20.555 21.565 22.965
1359.930 24.675 26.365 27.895 29.235 30.805 32.265 32.795 32.355 30.975 29.005
1379.219 26.675 24.165 21.295 18.015 14.675 11.835 9.825 8.355 7.365 6.885
1398.509 6.655 6.475 6.285 6.195 6.245 6.195 6.305 6.505 6.595 6.655
1417.799 6.655 6.805 6.925 7.115 7.325 7.485 7.865 8.305 8.625 9.045
1437.089 9.765 10.675 11.675 12.955 14.475 15.955 17.505 19.195 20.945 22.445
1456.378 23.845 25.125 25.975 26.595 27.215 28.045 28.875 29.765 31.245 34.165
1475.668 39.345 47.485 59.145 74.715 94.065 115.585 136.275 152.725 162.605 166.645
1494.958 166.345 161.795 153.285 141.095 122.785 98.275 72.125 50.265 35.115 25.555
1514.248 19.805 16.185 13.765 12.005 10.705 9.755 9.155 8.705 8.285 7.925
1533.538 7.705 7.605 7.635 7.695 7.805 8.035 8.335 8.665 9.145 9.695
1552.827 10.415 11.155 11.945 12.955 13.955 15.285 16.885 18.675 20.945 23.825
1572.117 27.305 31.345 36.335 42.265 49.335 57.715 67.155 77.825 89.125 99.945
1591.407 109.805 117.475 121.035 119.985 114.505 106.015 95.625 83.545 70.715 58.045
1610.697 46.215 36.135 28.245 22.365 18.105 15.215 13.185 11.425 10.075 9.035
1629.986 8.195 7.485 6.765 6.255 5.945 5.545 5.225 5.005 4.675 4.545
1649.276 4.415 4.185 3.835 3.685 3.695 3.545 3.335 3.215 3.205 3.185
1668.566 3.295 3.275 3.095 3.085 3.175 3.305 3.485 3.555 3.565 3.655
1687.856 3.805 3.785 3.785 3.955 4.005 4.005 3.925 3.775 3.615 3.495
1707.146 3.555 3.485 3.305 3.215 3.055 2.925 2.905 2.865 2.785 2.665
1726.435 2.585 2.455 2.405 2.465 2.415 2.385 2.295 2.375 2.445 2.455
1745.725 2.685 2.915 3.085 3.275 3.445 3.635 3.755 3.845 4.145 4.355
1765.015 4.215 4.275 4.305 4.075 3.905 3.705 3.465 3.295 3.115 2.835
1784.305 2.645 2.655 2.665 2.505 2.305 2.395 2.455 2.375 2.335 2.255
1803.594 2.295 2.435 2.555 2.565 2.545 2.605 2.705 2.895 3.045 3.235
1822.884 3.395 3.385 3.405 3.515 3.705 3.735 3.695 3.775 3.915 3.825
1842.174 3.725 3.705 3.655 3.725 3.525 3.295 3.345 3.305 3.105 2.915
1861.464 2.855 2.545 2.265 2.235 2.155 2.095 1.915 1.675 1.595 1.615
1880.754 1.585 1.545 1.535 1.625 1.675 1.625 1.655 1.805 2.025 2.185
1900.043 2.425 2.725 2.955 3.205 3.435 3.815 4.095 4.225 4.505 4.685
1919.333 4.685 4.775 4.955 5.025 5.125 5.315 5.425 5.485 5.475 5.375
1938.623 5.225 5.055 4.855 4.735 4.595 4.355 3.925 3.565 3.315 3.095
1957.913 2.945 2.865 2.845 2.775 2.865 2.995 2.995 3.055 3.235 3.475
1977.202 3.695 3.885 4.095 4.295 4.595 4.785 4.775 4.835 4.985 5.095
1996.492 5.005 4.915 4.825 4.605 4.495 4.345 4.055 3.925 3.885 3.875
2015.782 3.825 3.655 3.685 3.805 3.785 3.815 3.805 3.915 4.045 4.035
2035.072 3.995 4.005 4.095 4.175 4.135 4.155 4.265 4.245 4.385 4.455
2054.362 4.415 4.475 4.395 4.325 4.325 4.305 4.155 3.935 3.935 3.975
2073.651 3.875 3.665 3.455 3.325 3.145 2.945 2.875 2.795 2.585 2.365
2092.941 2.235 2.245 2.285 2.235 2.215 2.245 2.215 2.275 2.295 2.305
2112.231 2.435 2.565 2.665 2.805 2.775 2.705 2.785 2.735 2.645 2.525
2131.521 2.465 2.315 2.145 2.065 1.865 1.645 1.525 1.325 1.195 1.0975
2150.810 0.9012 0.8607 0.8773 0.8321 0.7352 0.655 0.6705 0.6466 0.7282 0.7957
2170.100 0.8588 0.8343 0.6933 0.7073 0.627 0.6805 0.8554 0.9122 0.9618 0.9504
2189.390 0.8787 0.8613 0.9047 0.9201 0.9081 0.94 0.9656 0.8703 0.7617 0.8958
2208.680 1.0056 0.9314 0.8969 0.9082 0.9513 0.9846 1.0267 1.0545 0.9792 0.9773
2227.970 1.043 0.9624 1.0257 1.185 1.135 1.135 1.215 1.205 1.215 1.185
2247.259 1.205 1.335 1.295 1.275 1.375 1.405 1.405 1.505 1.625 1.715
2266.549 1.785 1.735 1.745 1.845 1.735 1.715 1.725 1.555 1.505 1.375
2285.839 1.295 1.305 1.345 1.265 1.145 1.205 1.235 1.205 1.215 1.325
2305.129 1.365 1.325 1.315 1.435 1.515 1.635 1.595 1.525 1.515 1.435
2324.418 1.325 1.325 1.335 1.245 1.195 1.165 1.185 1.225 1.225 1.275
2343.708 1.325 1.355 1.415 1.305 1.235 1.295 1.355 1.335 1.265 1.335
2362.998 1.525 1.655 1.755 1.815 1.955 1.905 1.945 2.065 1.985 2.075
2382.288 2.035 1.925 1.865 1.815 1.685 1.605 1.675 1.685 1.665 1.575
2401.578 1.565 1.575 1.635 1.735 1.735 1.725 1.825 1.935 1.975 1.975
2420.867 1.985 2.065 1.995 1.935 2.015 2.065 2.085 2.015 2.025 2.065
2440.157 2.055 1.985 1.915 1.895 1.885 1.975 1.935 1.805 1.765 1.745
2459.447 1.745 1.835 1.925 1.825 1.725 1.855 1.985 1.865 1.735 1.665
2478.737 1.605 1.615 1.645 1.585 1.545 1.605 1.635 1.595 1.635 1.615
2498.026 1.515 1.485 1.585 1.625 1.695 1.785 1.715 1.635 1.605 1.565
2517.316 1.525 1.575 1.605 1.605 1.565 1.495 1.475 1.525 1.545 1.595
2536.606 1.655 1.525 1.445 1.435 1.455 1.345 1.355 1.395 1.355 1.515
2555.896 1.435 1.335 1.425 1.525 1.545 1.535 1.525 1.495 1.495 1.505
2575.186 1.535 1.395 1.275 1.225 1.285 1.455 1.485 1.375 1.295 1.435
2594.475 1.415 1.215 1.285 1.455 1.555 1.455 1.305 1.255 1.0831 0.9659
2613.765 1.0255 1.125 1.145 1.275 1.395 1.255 1.0428 0.961 1.102 1.285
2633.055 1.145 1.0882 1.0972 1.0255 1.0491 1.1139 1.0889 1.067 1.1031 1.1106
2652.345 1.185 0.9881 0.8333 1.0007 1.1078 1.275 1.435 1.165 1.125 1.325
2671.634 1.115 1.0391 1.0811 0.9847 1.0305 1.0665 1.0331 1.108 1.285 1.295
2690.924 1.305 1.285 1.155 1.185 1.275 1.325 1.445 1.525 1.385 1.235
2710.214 1.205 1.295 1.405 1.535 1.635 1.595 1.625 1.565 1.365 1.345
2729.504 1.275 1.165 1.0772 1.0149 1.0808 1.0302 0.9395 0.8972 0.9488 1.0922
2748.794 0.9236 0.7987 0.8471 0.7615 0.7741 1.0431 1.185 1.0262 0.9258 0.9451
2768.083 1.0089 1.0449 1.0959 0.9403 0.8945 1.215 1.275 1.0749 1.185 1.375
2787.373 1.365 1.405 1.425 1.405 1.275 1.175 1.375 1.495 1.455 1.565
2806.663 1.805 1.945 1.875 1.805 1.935 2.045 2.285 2.325 2.195 2.215
2825.953 2.285 2.495 2.565 2.685 2.905 3.015 2.865 2.935 3.235 3.365
2845.242 3.605 3.875 4.265 4.695 5.045 5.595 6.285 6.825 7.445 8.235
2864.532 9.235 9.875 10.605 11.745 12.545 12.955 13.285 13.755 14.065 14.015
2883.822 13.685 13.195 12.755 12.435 11.885 11.515 11.355 11.385 11.345 11.425
2903.112 11.775 12.285 13.065 13.585 14.365 15.455 15.975 16.355 16.895 17.465
2922.401 17.965 18.255 18.305 18.325 18.155 17.465 16.595 15.715 14.915 14.115
2941.691 13.295 12.495 11.835 11.535 11.195 11.115 11.485 12.145 13.205 13.995
2960.981 14.595 15.495 16.105 16.215 15.985 15.565 15.055 13.905 12.325 10.605
2980.271 8.745 6.985 5.635 4.665 4.075 3.935 3.755 3.515 3.315 3.275
2999.561 3.445 3.495 3.875 4.495 4.675 5.015 5.835 6.705 7.445 8.115
3018.850 9.145 10.465 11.765 12.965 14.215 15.955 17.415 18.775 20.895 22.955
3038.140 24.745 26.495 27.805 28.695 29.315 29.505 29.375 28.915 28.445 28.015
3057.430 27.365 26.835 26.995 27.525 28.345 29.805 31.385 33.145 34.615 35.045
3076.720 34.715 34.345 33.895 32.875 31.625 30.315 28.425 26.335 24.415 22.365
3096.009 21.115 20.245 19.165 18.335 17.335 16.065 14.645 13.155 11.575 9.965
3115.299 8.705 7.525 6.425 5.565 4.345 3.455 2.965 2.475 2.095 1.745
3134.589 1.505 1.505 1.405 1.205 1.275 1.335 1.335 1.285 1.155 1.215
3153.879 1.0322 1.0099 1.039 0.8265 0.9095 0.7553 0.6774 0.6638 0.5209 0.5607
3173.169 0.7183 0.8984 0.9231 0.99 0.9737 0.8479 0.6607 0.6115 0.8246 0.7882
3192.458 0.6922 0.7979 0.9906 0.8671 0.694 0.8244 0.7894 0.6647 0.5848 0.6327
3211.748 0.5054 0.392 0.6839 0.6737 0.6458 0.7882 0.7673 0.8961 0.869 0.9009
3231.038 0.9366 0.6798 0.7595 1.0974 1.165 1.125 1.305 1.415 1.425 1.355
3250.328 1.435 1.735 2.025 2.295 2.385 2.615 2.895 3.005 3.105 3.385
3269.617 3.725 4.145 4.735 5.415 6.185 6.755 7.345 8.365 9.325 10.125
3288.907 11.075 12.425 13.695 15.225 17.485 20.055 22.785 25.225 27.455 29.255
3308.197 30.735 32.515 35.835 40.025 44.095 48.795 53.905 58.385 60.615 61.415
3327.487 61.305 59.325 58.985 59.365 54.525 44.335 33.065 24.125 18.035 14.055
3346.777 11.175 9.085 7.755 6.695 5.785 5.245 4.905 4.555 3.975 3.415
3366.066 3.115 2.865 2.705 2.615 2.345 2.025 1.725 1.555 1.615 1.625
3385.356 1.495 1.245 1.115 1.245 1.305 1.165 1.0382 1.04 1.0849 0.6892
3404.646 0.4857 0.814 0.8344 0.8707 0.7552 0.6459 0.5927 0.5768 0.7344 0.7802
3423.936 0.8047 0.5905 0.4034 0.4121 0.338 0.3324 0.522 0.6469 0.6576 0.6182
3443.225 0.6637 0.7365 0.5881 0.5389 0.616 0.6315 0.6168 0.597 0.515 0.5013
3462.515 0.3196 0.2534 0.6602 0.7029 0.4949 0.5036 0.4385 0.3503 0.484 0.4766
3481.805 0.3945 0.5937 0.634 0.3971 0.2339 0.4051 0.4218 0.4992 0.5093 0.417
3501.095 0.4032 0.5047 0.644 0.2882 0.13295 0.4949 0.6631 0.4023 0.2406 0.11278
3520.385 0.2172 0.304 0.17403 0.2233 0.2375 0.3671 0.18202 0.3023 0.6787 0.6974
3539.674 0.3556 0 0.2526 0.6323 0.225 0.002 0.3335 0.3693 0.5001 0.3243
3558.964 0.19118 0.4092 0.5818 0.7252 0.7719 0.3267 0.0674 0.21173 0.2914 0.5785
3578.254 0.7966 0.7405 0.6446 0.4411 0.5022 0.51 0.3442 0.3836 0.4991 0.5706
3597.544 0.5789 0.4851 0.18526 0.117796 0.351 0.4344 0.4107 0.3857 0.5468 0.4372
3616.833 0.2603 0.4263 0.6614 0.8738 0.8811 0.8832 0.8065 0.878 0.8603 0.6183
3636.123 0.4271 0.3773 0.4881 0.3563 0.4813 0.6087 0.3478 0.3817 0.5908 0.7092
3655.413 0.4787 0.4436 0.5874 0.6933 0.7695 0.4998 0.1941 0.3444 0.5599 0.589
3674.703 0.4788 0.4636 0.4872 0.4204 0.545 0.6582 0.7551 0.6965 0.6296 0.7347
3693.993 0.6484 0.4692 0.4981 0.4185 0.2591 0.241 0.3712 0.6494 0.6986 0.421
3713.282 0.4478 0.5942 0.4839 0.6502 0.8824 0.6359 0.5519 0.5348 0.5775 0.6287
3732.572 0.4651 0.3987 0.18393 0.3404 0.5667 0.6682 0.6125 0.4387 0.4838 0.3789
3751.862 0.47 0.6177 0.3585 0.3543 0.6944 0.6312 0.5209 0.4638 0.2978 0.2704
3771.152 0.120362 0.2275 0.5493 0.4827 0.2422 0.18719 0.14342 0.2552 0.5628 0.462
3790.441 0.3042 0.4937 0.6596 0.4458 0.5187 0.5141 0.2868 0.3959 0.4405 0.4216
3809.731 0.4722 0.5834 0.6324 0.6847 0.6908 0.5528 0.6941 0.6855 0.617 0.572
3829.021 0.5484 0.5662 0.3038 0.3465 0.4489 0.4621 0.7203 0.8871 0.7633 0.648
3848.311 0.5432 0.6027 0.6592 0.7114 0.6623 0.7172 0.8321 0.7138 0.6511 0.5992
3867.601 0.5959 0.5458 0.6294 0.7775 0.6266 0.5277 0.7079 0.7511 0.4863 0.4699
3886.890 0.6499 0.6797 0.7745 0.7182 0.6231 0.8111 0.7182 0.4158 0.6707 0.7711
3906.180 0.6788 0.8932 1.175 1.145 1.0707 1.205 1.0706 1.145 1.185 1.0543
3925.470 1.355 1.375 1.295 1.225 1.285 1.415 1.425 1.725 1.745 1.685
3944.760 1.825 1.695 1.415 1.315 1.115 1.0571 1.185 1.405 1.545 1.495
3964.049 1.285 1.405 1.815 1.615 1.575 1.725 1.435 1.485 1.555 1.295
3983.339 1.0278 0.8369 1.0583 1.0692 0.7868 0.7684 0.5924 0.5168 0.7064 0.5367
##END=
