##TITLE=3-Chloro-4-fluorothiobenzamide
##JCAMP-DX=4.24
##DATA TYPE=INFRARED SPECTRUM
##ORIGIN=EPA-IR VAPOR PHASE LIBRARY
##OWNER=SRD/NIST
Collection (C) 2018 copyright by the U.S. Secretary of Commerce
on behalf of the United States of America. All rights reserved.
##CAS REGISTRY NO=130560-97-3
##MOLFORM=C 7 H 5 Cl F N S
##$NIST SOURCE=MSDC-IR
##STATE=gas
##XUNITS=1/CM
##YUNITS=ABSORBANCE
##XFACTOR=1.
##YFACTOR=0.001
##DELTAX=1.92898
##FIRSTX=549.8
##LASTX=4000.7
##FIRSTY=5.5
##MAXX=4000.7
##MINX=549.759
##MAXY=0.08889
##MINY=0
##NPOINTS=1790
##XYDATA=(X++(Y..Y))
549.759 5.5 5.43 5.21 4.27 3.96 5.09 5.03 4.61 4.89 5.58
569.049 6.03 5.85 5.35 5.81 7.43 8.25 7.33 7.29 8.19 8.27
588.339 8.58 8.28 7.67 7.75 7 6.5 6.64 6.24 5.82 5.11
607.628 4.29 3.86 3.98 4.57 4.23 3.86 3.5 3.33 3.67 3.25
626.918 2.55 2.76 3.41 3.39 3.39 3.6 4.06 4.88 5.28 4.77
646.208 4.9 5.59 6.14 5.9 5.72 6.08 5.79 5.48 5.54 5.59
665.498 5.5 5.25 4.82 5.14 5.4 4.96 5.03 4.9 4.49 4.71
684.787 4.66 4.13 4.03 4.63 4.84 5.09 5.81 6.42 7 8.08
704.077 9.3 10.39 11.72 12.79 14.05 15.44 16.9 18.61 20.02 21.41
723.367 22.19 22.36 22.4 21.86 20.92 19.27 17.41 16.16 14.93 13.66
742.657 12.69 12.05 11.61 11.48 10.88 10.31 10.5 10.01 9.4 8.91
761.947 8.5 8.35 7.73 7.01 6.66 6.46 6.38 6.43 6.52 6.66
781.236 6.76 6.98 7.43 7.85 7.69 7.73 8.33 8.26 7.91 8.42
800.526 9.48 10.6 12.09 13.78 15.31 17.2 19.84 22.17 23.94 25.34
819.816 26.27 28.04 30.81 31.49 29.31 26.77 24.97 23.04 21.64 20.64
839.106 18.74 16.82 15.6 14.8 14.01 12.85 11.24 10 9.81 9.95
858.395 9.84 9.33 9.15 9.77 10.61 11.31 11.83 12.85 13.97 14.84
877.685 16.06 17.27 17.93 18.16 18.38 18.95 18.93 17.45 16.31 15.35
896.975 14.65 13.99 12.73 12.11 11.32 10.7 10.58 9.75 8.8 8.94
916.265 9.2 9.04 9.08 9.05 9.14 9.39 9.35 9.92 10.87 10.76
935.555 10.27 10.31 10.35 10.39 10.39 10.46 10.19 9.7 9.46 8.91
954.844 8.9 9.13 9.01 8.72 8.43 8.07 7.83 7.88 7.77 7.39
974.134 7.45 7.49 7.05 7.09 7.09 6.72 6.65 6.36 6.06 6.31
993.424 6.01 5.39 5.32 5.77 5.55 5.3 5.27 4.95 4.55 4.25
1012.714 4.53 5.18 5.28 4.94 5.41 6.33 5.23 3.97 4.27 4.71
1032.003 4.62 4.59 4.64 4.36 4.61 5.03 5.63 6.56 8.47 9.57
1051.293 10.91 13.71 15.73 17.38 18.35 19.08 20.01 19.78 19.64 18.32
1070.583 15.67 13.95 12.5 11.23 10.46 8.98 7.78 6.74 6.33 6.92
1089.873 5.58 5.53 6.87 7.51 7.65 6.26 5.98 6.84 6.96 7.18
1109.163 8.47 7.55 6.4 8.25 9.69 9.49 8.52 8.83 9.19 9.06
1128.452 8.79 8.33 8.96 10.25 10.03 9.41 9.45 9.81 9.43 8.78
1147.742 9.07 8.77 8.2 7.34 7.04 7.41 6.98 7.19 8.41 8.18
1167.032 7.33 7.51 7.88 8.07 7.71 7.08 6.44 6.13 6.18 6.1
1186.322 6.34 6.69 6.92 7.24 7.23 7.05 8.5 9.45 7.33 5.79
1205.611 6.71 7.57 6.07 4.45 3.51 4.01 5.7 6.71 6.96 5.82
1224.901 5.66 6.84 8.27 9.86 10.4 11.18 12.36 14.7 17.59 19.9
1244.191 22.84 25.43 28.3 31.94 36.49 42.04 47.4 52.57 57.73 62.59
1263.481 67.43 70.55 71.92 71.45 68.39 63.77 57.62 50.07 42.01 34.41
1282.771 28.28 24.41 22.11 20.8 20.24 20.27 20.89 21.82 23.4 25.29
1302.060 27.8 31.08 35.1 40.01 45.57 51.78 58.55 65.4 71.81 77.72
1321.350 82.58 85.73 87.05 86.64 84.63 81.24 76.38 70.12 63.07 55.91
1340.640 48.82 41.96 35.81 30.55 26.02 22.31 19.48 17.42 15.87 14.55
1359.930 13.43 12.58 11.77 11.37 11.2 11.09 11.34 12.02 13.1 14.26
1379.219 15.89 18.06 20.39 22.7 24.82 26.21 27.41 28.35 28.7 28.32
1398.509 27.09 25.44 23.31 21.01 18.74 16.37 14.06 12.17 10.63 9.57
1417.799 8.75 8.03 7.55 7.03 6.61 6.33 6.16 5.79 5.62 5.51
1437.089 5.15 4.82 4.75 4.9 5.01 5.02 5.09 5.15 5.12 5.18
1456.378 5.71 6.1 6.41 7.1 8 9.06 10.5 12.42 14.39 16.78
1475.668 19.38 22.13 25.11 28.95 33.95 40.46 48.74 57.96 67.96 76.96
1494.958 83.52 87.82 88.89 86.47 81.25 73.17 61.68 49.76 38.44 27.97
1514.248 20.42 15.27 11.96 10.05 9.01 8.21 7.42 6.93 6.67 6.59
1533.538 6.67 6.45 6.39 6.46 6.6 6.84 6.68 6.68 6.73 6.82
1552.827 7.16 7.41 7.61 8.2 9.15 9.99 11.33 13.07 14.64 16.68
1572.117 19.12 21.62 24.4 27.52 30.73 34.25 38.44 43.44 49.01 54.82
1591.407 60.28 64.52 67.09 68.22 67.57 64.84 60.03 53.13 45.72 38.83
1610.697 32.52 27.53 23.73 20.27 17.52 15.33 13.49 12.03 11.01 9.93
1629.986 9.03 8.29 7.37 6.66 6.08 5.61 5.18 4.85 4.54 4.1
1649.276 3.89 3.67 3.42 3.29 2.99 2.74 2.58 2.29 2.2 2.21
1668.566 1.9768 1.9383 1.9894 1.7976 1.8624 1.9239 1.8476 1.8994 1.8229 1.8295
1687.856 1.8304 1.9154 1.9814 1.9388 1.8664 1.7803 1.6134 1.5979 1.6349 1.6926
1707.146 1.795 1.7644 1.8943 1.8912 1.6655 1.7046 1.8127 1.8906 2.0142 2.0402
1726.435 1.8806 1.77 1.7368 1.6407 1.7598 1.9023 1.982 2.15 2.27 2.43
1745.725 2.49 2.48 2.56 2.46 2.57 2.7 2.81 3 2.97 2.81
1765.015 2.94 3.19 3.18 3.06 3.08 3.1 2.96 2.88 2.69 2.4
1784.305 2.21 2.22 2.24 1.9608 1.8916 1.9807 1.8469 1.7187 1.639 1.6335
1803.594 1.5646 1.4429 1.5414 1.5483 1.5476 1.6798 1.662 1.6687 1.9143 2.0409
1822.884 1.9092 1.7988 1.7316 1.8687 1.9371 1.7802 1.7838 1.7454 1.6649 1.5998
1842.174 1.692 1.8575 1.8904 1.6738 1.6028 1.606 1.4899 1.5661 1.7375 1.7812
1861.464 1.8102 1.9486 2.1004 2.15 2.19 2.34 2.25 2.24 2.21 2.17
1880.754 2.23 2.36 2.43 2.39 2.43 2.39 2.33 2.25 2.25 2.28
1900.043 2.2 2.0245 1.8987 1.9964 2.15 1.9983 1.6792 1.6774 1.6837 1.6203
1919.333 1.6636 1.6119 1.5269 1.3552 1.3152 1.5173 1.464 1.4402 1.5089 1.4866
1938.623 1.6122 1.6523 1.4947 1.3931 1.4358 1.5657 1.6838 1.6923 1.6055 1.5441
1957.913 1.6165 1.6698 1.8473 1.8156 1.7292 1.7177 1.616 1.6291 1.7761 1.9988
1977.202 1.9685 2.0174 2.1032 1.9211 1.8351 1.9264 2.008 2.0739 2.21 2.17
1996.492 2.1168 2.1045 1.9582 1.9667 1.9442 1.8716 1.7504 1.7995 1.8835 1.7769
2015.782 1.6764 1.68 1.6933 1.6222 1.5457 1.5499 1.427 1.2614 1.3914 1.4468
2035.072 1.4439 1.6189 1.8197 1.5822 1.3627 1.4779 1.4711 1.4344 1.4864 1.4977
2054.362 1.5653 1.4874 1.4962 1.5775 1.4889 1.352 1.2691 1.4088 1.5563 1.6005
2073.651 1.68 1.7611 1.6679 1.4676 1.3601 1.4776 1.5621 1.5641 1.5761 1.6014
2092.941 1.5699 1.4124 1.2503 1.4069 1.4889 1.5123 1.6292 1.6544 1.7501 1.7334
2112.231 1.6457 1.6539 1.4786 1.35 1.3882 1.3881 1.4607 1.4792 1.574 1.4939
2131.521 1.3808 1.4752 1.3961 1.2765 1.4789 1.5926 1.5678 1.4565 1.3873 1.4558
2150.810 1.3948 1.2943 1.3148 1.333 1.466 1.7428 1.6284 1.5278 1.7618 1.755
2170.100 1.5001 1.5675 1.5402 1.4 1.4067 1.4452 1.4871 1.4997 1.5173 1.5053
2189.390 1.3144 1.2998 1.4272 1.4288 1.463 1.3785 1.3794 1.5883 1.7047 1.5462
2208.680 1.6296 1.634 1.5845 1.6984 1.7505 1.8398 1.9137 2.0618 2.38 2.5
2227.970 2.7 2.96 3.04 3.28 3.37 3.35 3.45 3.37 3.12 2.99
2247.259 2.73 2.24 2.13 2.0692 1.7922 1.6656 1.548 1.4825 1.4963 1.5618
2266.549 1.6537 1.4605 1.14969 1.2308 1.3266 1.17518 1.2637 1.4274 1.4284 1.5283
2285.839 1.6043 1.7142 1.675 1.5406 1.2757 1.19004 1.19455 1.128 1.15144 1.2584
2305.129 1.2636 1.071 1.262 1.3761 1.3432 1.4564 1.606 1.6202 1.4251 1.327
2324.418 1.4834 1.5408 1.5303 1.6477 1.6701 1.7374 1.8047 1.7283 1.415 1.3108
2343.708 1.4945 1.3825 1.3154 1.4652 1.4301 1.20096 1.2509 1.3717 1.3568 1.3476
2362.998 1.4105 1.6361 1.6101 1.5538 1.6394 1.7689 1.6459 1.3846 1.3139 1.3694
2382.288 1.3881 1.3564 1.3661 1.5362 1.8147 1.6836 1.4445 1.6065 1.6152 1.6891
2401.578 1.7596 1.4489 1.3656 1.4747 1.4487 1.2318 1.2556 1.427 1.4845 1.6205
2420.867 1.6808 1.52 1.4859 1.6124 1.6262 1.383 1.5375 1.8242 1.665 1.6039
2440.157 1.5462 1.4325 1.4609 1.6241 1.6495 1.4786 1.4235 1.3556 1.14227 1.3624
2459.447 1.6874 1.4864 1.3091 1.281 1.0557 1.18318 1.627 1.8032 1.7414 1.5239
2478.737 1.4376 1.3697 1.14948 1.21346 1.412 1.7525 1.9114 1.8674 1.8973 1.7394
2498.026 1.6752 1.6968 1.7619 1.7668 1.8651 1.8489 1.8993 2.0144 1.8709 2.0065
2517.316 2.1045 2.0527 2.0794 2.22 2.35 2.21 2.33 2.16 1.878 1.9818
2536.606 1.951 2.0702 2.0165 1.8384 1.851 1.8388 1.8061 1.9867 2.0139 2.0427
2555.896 2.15 2.13 2.13 2.0127 1.9709 1.7022 1.3989 1.451 1.564 1.6143
2575.186 1.5312 1.2485 1.4365 1.886 1.8951 1.7349 1.7029 1.8048 1.7636 1.4976
2594.475 1.5227 1.7821 1.6421 1.6102 1.7326 1.6021 1.5964 1.5404 1.3839 1.3768
2613.765 1.5503 1.5388 1.2807 1.17758 1.329 1.6583 1.7014 1.2637 1.0329 1.0225
2633.055 1.297 1.6193 1.4244 1.2577 1.5304 1.7325 1.5036 1.5676 1.61 1.4494
2652.345 1.6125 1.6385 1.6944 1.8152 1.4717 1.18542 0.974 1.0818 1.326 1.5457
2671.634 1.7981 1.4185 1.01 1.13322 1.3052 1.3968 1.14547 1.15539 1.1998 1.0445
2690.924 1.0636 1.043 1.2506 1.7294 1.846 1.633 1.6631 1.5855 1.7098 1.8285
2710.214 1.4454 1.18226 1.2529 1.2807 1.4636 1.7442 1.8896 1.8047 1.5744 1.3459
2729.504 1.4137 1.4284 1.2401 1.459 1.7161 1.5357 1.11928 1.17278 1.4516 1.6892
2748.794 1.6444 1.4903 1.7272 1.7327 1.7352 1.6683 1.4436 1.4027 1.6829 1.9853
2768.083 2.0678 1.8012 1.5861 1.3495 0.933 1.0759 1.4939 1.5849 1.5176 1.3289
2787.373 1.0962 1.2338 1.3706 1.3236 1.16746 1.12224 1.2336 1.2774 1.5094 1.7048
2806.663 1.6906 1.3541 1.11866 1.08 1.0422 1.5156 1.6232 1.16996 1.212 1.1264
2825.953 0.849 1.3491 1.5091 1.2743 1.3429 1.2612 1.2476 1.5071 1.6568 1.5731
2845.242 1.9495 2.0681 1.6038 1.096 1.0473 1.4528 1.4289 1.612 1.8326 1.4747
2864.532 1.0641 1.14049 1.3956 1.2689 1.11836 1.4423 1.6311 1.4741 1.15324 0.874
2883.822 0.93 1.0723 1.0321 1.12479 1.1054 1.2207 1.6085 1.5529 1.7174 1.9748
2903.112 1.6446 1.4993 1.8965 1.6967 1.4407 1.7787 1.7146 1.4426 1.3289 1.5982
2922.401 1.4224 0.867 1.21031 1.7025 1.5243 1.5676 1.9149 2.0272 1.5289 1.4437
2941.691 2.0663 1.6384 1.4437 1.4968 1.2436 1.19586 1.0878 0.912 1.2699 1.5916
2960.981 1.2443 1.20801 1.6203 1.6172 1.2602 1.4341 1.5 1.0614 1.11919 1.6101
2980.271 1.5494 1.21356 1.18254 1.0995 0.855 1.14368 1.5778 1.605 1.722 1.3234
2999.561 0.744 0.689 0.847 1.0976 1.0764 0.856 0.891 1.1323 1.4188 1.3378
3018.850 1.21989 1.7689 1.5428 0.974 1.3154 1.4907 1.7324 1.5435 1.1915 1.7034
3038.140 1.4581 1.001 1.5094 2.0414 2.0932 2.1087 2.0707 2.0408 1.8448 1.9345
3057.430 2.1199 1.919 1.8937 2.32 2.68 2.63 2.77 3.09 2.91 2.74
3076.720 2.87 2.71 2.62 2.59 2.5 2.49 2.21 1.9751 1.9335 1.9608
3096.009 1.9938 1.382 1.14395 1.7814 1.9945 1.6155 1.2335 1.0592 1.2818 1.6706
3115.299 1.595 1.7051 1.4983 0.812 0.931 1.2554 1.4153 1.5783 1.5568 1.2582
3134.589 0.968 0.906 1.1984 1.4058 1.2341 1.4258 1.4986 1.5953 1.4885 1.0347
3153.879 1.0925 1.5159 1.8319 2.26 2.15 1.8619 1.4586 1.3645 1.9359 1.7556
3173.169 1.5231 1.3984 1.5985 1.8474 1.5497 1.3357 1.2368 1.0699 1.5362 1.7264
3192.458 1.6737 1.7986 1.2665 1.11958 1.2367 1.0925 1.014 1.0661 1.4149 1.2607
3211.748 0.841 1.2388 1.6692 1.6811 1.5418 1.4122 1.4279 1.0317 0.916 0.907
3231.038 0.588 0.287 0.806 1.6532 1.6404 1.2273 0.942 1.0467 1.0492 0.924
3250.328 0.818 1.0673 0.776 0.415 0.996 1.2204 1.12821 1.2941 1.5282 1.4126
3269.617 1.3859 1.4048 0.923 0.649 0.811 0.897 1.2396 1.4918 1.14991 0.924
3288.907 1.057 0.722 0 0.153 0.648 0.608 0.818 0.882 1.0506 1.13991
3308.197 0.985 1.14342 1.18396 1.3485 1.4753 0.922 0.573 0.852 0.886 1.016
3327.487 1.1068 1.13241 1.2531 1.4591 0.934 0.649 1.003 0.678 0.668 0.891
3346.777 1.2754 1.3025 1.4102 1.565 1.7761 2.3 2.15 2.0242 2.32 2.72
3366.066 2.62 2.55 2.88 3.16 2.85 2.81 3.64 4.61 4.96 5.44
3385.356 5.82 6.06 6.31 7.16 8.64 9.42 10.36 11.76 13.3 14.32
3404.646 15.19 15.25 14.78 14.56 13.66 12.65 11.44 9.76 8.22 7.13
3423.936 6.17 5.29 4.88 4.31 3.75 3.65 3.5 3.23 2.5 1.9755
3443.225 2.54 2.34 1.3924 1.6763 2.0296 1.8621 1.898 2.24 2.4 2.2
3462.515 1.9636 1.654 1.7483 1.6265 1.6719 2.0791 2.54 2.48 1.696 1.5232
3481.805 2.21 2.93 3.16 3.12 3.45 3.81 3.78 3.88 4.19 4.56
3501.095 4.64 5.31 5.86 5.64 6.24 7.66 8.22 8.14 8.76 10.08
3520.385 11.04 11.81 12.85 12.91 12.29 11.78 10.51 9.02 7.51 5.75
3539.674 4.63 3.8 2.97 2.34 2.36 2.74 2.39 1.6314 1.825 2.0504
3558.964 1.5542 1.7821 1.984 1.9004 2.38 1.7183 1.0412 1.19197 1.16863 1.4028
3578.254 1.17133 1.0829 1.3066 1.02 1.0653 0.998 0.583 0.628 0.859 1.2418
3597.544 1.6671 1.9283 1.5869 0.942 0.852 1.016 0.945 0.866 1.12732 1.003
3616.833 0.969 0.986 0.941 1.453 1.409 1.21926 0.992 0.967 1.163 1.0986
3636.123 1.3515 1.2997 1.2652 1.2545 1.0762 0.83 1.0272 1.7167 1.6773 0.946
3655.413 0.63 1.0545 1.2411 1.261 1.4842 1.17934 1.0566 1.4374 1.5932 1.6521
3674.703 1.6841 1.9456 1.7697 1.19158 0.987 1.0284 1.01 0.98 0.717 0.354
3693.993 0.497 0.999 1.2748 1.11185 1.0203 1.2278 1.2365 1.4407 1.2082 1.0504
3713.282 1.3494 1.4365 1.1045 0.611 0.742 0.978 1.3369 1.7358 1.4756 0.775
3732.572 0.601 0.961 1.2218 1.2346 1.5373 1.8054 1.2937 1.0518 0.877 1.005
3751.862 1.5937 1.0765 0.552 0.971 1.5246 1.13239 0.587 0.347 0.375 0.484
3771.152 0.883 1.344 1.3125 1.3997 1.0618 0.9 0.95 0.942 1.548 1.6429
3790.441 1.20815 1.16228 1.2531 1.3562 1.581 1.3769 1.3955 1.6018 1.2909 1.2519
3809.731 1.0865 0.994 0.966 0.733 0.912 1.072 1.2752 1.6101 1.8405 1.4787
3829.021 0.934 0.802 0.404 0.232 0.605 1.0407 1.0463 0.841 1.13409 1.5565
3848.311 1.4205 0.815 1.2721 1.3235 0.836 0.791 1.1033 1.57 1.3098 0.834
3867.601 0.618 1.2482 1.6103 1.5721 1.4804 1.2517 1.627 1.8084 1.6899 1.6651
3886.890 1.6179 1.7451 1.4602 0.85 1.17437 1.4057 1.2239 1.7321 1.7221 1.398
3906.180 1.664 2.0031 1.8784 1.21268 0.898 0.838 0.706 1.5259 1.6425 1.2758
3925.470 1.5427 1.5037 1.2501 0.733 0.519 0.845 1.2899 1.6319 1.4292 1.13867
3944.760 1.3083 1.7287 1.4079 0.87 1.20604 1.6648 1.326 1.1537 1.5329 1.013
3964.049 0.487 0.921 1.14917 0.801 0.956 1.5547 1.5516 1.3698 1.16439 1.472
3983.339 2.12 1.8337 0.874 0.959 1.16476 0.68 1.3949 1.3539 0.648 0.666
##END=
