##TITLE=3',4'-Methylenedioxyacetanilide
##JCAMP-DX=4.24
##DATA TYPE=INFRARED SPECTRUM
##ORIGIN=EPA-IR VAPOR PHASE LIBRARY
##OWNER=SRD/NIST
Collection (C) 2018 copyright by the U.S. Secretary of Commerce
on behalf of the United States of America. All rights reserved.
##CAS REGISTRY NO=13067-19-1
##MOLFORM=C 9 H 9 N O 3
##$NIST SOURCE=MSDC-IR
##STATE=gas
##XUNITS=1/CM
##YUNITS=ABSORBANCE
##XFACTOR=1.
##YFACTOR=0.001
##DELTAX=3.85796
##FIRSTX=551.7
##LASTX=4000.7
##FIRSTY=1.75
##MAXX=4000.7
##MINX=551.688
##MAXY=0.09155
##MINY=0
##NPOINTS=895
##XYDATA=(X++(Y..Y))
551.688 1.75 1.72 1.61 1.68 1.74 1.67 1.75 1.63 1.56 1.81
590.268 1.94 2.03 2.13 2.27 2.59 2.89 2.87 2.68 2.58 2.45
628.847 2.13 1.79 1.6 1.39 1.28 1.26 1.25 1.27 1.31 1.43
667.427 1.42 1.36 1.33 1.25 1.22 1.14 0.9695 0.8922 0.8527 0.8288
706.006 0.8887 1.0204 1.14 1.21 1.17 1.0413 0.9409 0.8205 0.7512 0.7471
744.586 0.7816 0.8918 0.9792 1.11 1.46 1.77 2.14 2.8 3.46 4.08
783.165 4.87 5.55 5.9 6.04 6.09 6.35 6.89 7.47 7.77 7.43
821.745 6.54 5.59 5.02 4.64 4.4 4.47 4.62 4.71 4.82 4.84
860.324 4.78 4.49 3.99 3.38 2.81 2.49 2.19 2.11 2.23 2.37
898.904 2.57 2.91 3.19 3.74 4.6 5.48 6.53 7.64 8.72 9.71
937.484 10.37 10.61 10.36 9.66 8.57 7.33 6.23 5.38 4.87 4.71
976.063 4.97 5.45 6.03 6.55 6.69 6.57 6.16 5.77 5.73 5.96
1014.643 6.47 7.33 8.48 10.05 12.15 14.83 17.97 20.91 22.84 23.19
1053.222 21.73 18.83 15.38 12.13 9.47 7.6 6.3 5.56 5.41 5.62
1091.802 5.9 6.08 6.35 6.51 6.59 6.36 5.89 5.91 6.59 7.02
1130.381 6.88 6.45 5.31 4.18 3.38 3.01 2.97 3.04 3.45 4.06
1168.961 5.02 6.79 9.96 15.04 22.25 29.97 35.54 37.55 36.66 35.25
1207.540 35.83 38.29 40.49 42.2 43.6 43.91 43.31 41.58 38.47 34.26
1246.120 29.05 23.88 19.85 17.12 15.41 14.34 13.9 13.94 13.95 13.72
1284.699 12.9 11.84 11.25 11.14 11.34 11.6 11.55 10.92 9.93 9.05
1323.279 8.71 9.2 10.28 11.14 11.03 9.93 8.45 7.65 8.06 9.54
1361.859 11.71 13.82 15.02 14.73 13.16 11.22 9.56 8.49 8.01 7.87
1400.438 7.96 8.35 9.25 10.84 13.02 15.56 17.88 19.46 20.18 20.33
1439.018 20.22 19.87 19.27 18.39 17.43 16.98 17.62 19.8 24.24 32.44
1477.597 45.73 64.03 82.21 91.55 88.12 75.37 62.32 54.65 50 45.04
1516.177 37.99 31.2 26.11 21.88 18 14.49 11.65 9.54 8.06 6.99
1554.756 6.25 5.69 5.21 4.86 4.59 4.34 4.08 3.89 3.77 3.72
1593.336 3.75 3.96 4.35 4.89 5.48 6.02 6.39 6.5 6.49 6.29
1631.915 5.94 5.4 4.64 3.93 3.39 3.12 3.08 3.16 3.31 3.47
1670.495 3.7 4.05 4.48 5 5.74 6.74 8.18 10.21 13.07 17.12
1709.075 23.22 31.53 40.5 46.61 47.43 42.71 34.63 26.91 21.27 17
1747.654 13.85 11.41 9.45 7.8 6.35 5.21 4.33 3.63 3.18 2.84
1786.234 2.57 2.37 2.21 2.07 1.95 1.82 1.7 1.61 1.54 1.46
1824.813 1.44 1.45 1.45 1.47 1.46 1.43 1.38 1.32 1.34 1.35
1863.393 1.33 1.37 1.39 1.4 1.4 1.37 1.3 1.21 1.1083 1.0073
1901.972 0.9665 0.9629 0.928 0.886 0.8619 0.8343 0.8164 0.7757 0.7456 0.756
1940.552 0.7323 0.6954 0.7148 0.7128 0.6522 0.6277 0.628 0.6239 0.6475 0.6528
1979.131 0.6334 0.6513 0.6552 0.6412 0.6513 0.6809 0.6967 0.6503 0.6436 0.6827
2017.711 0.6719 0.6635 0.6749 0.6733 0.6694 0.6712 0.7238 0.7426 0.7147 0.6965
2056.291 0.6758 0.6125 0.5795 0.5987 0.5911 0.5774 0.5992 0.5773 0.5632 0.6097
2094.870 0.6097 0.5719 0.5424 0.5231 0.5061 0.5024 0.4992 0.5035 0.5234 0.5409
2133.450 0.5448 0.5755 0.5455 0.5265 0.537 0.5413 0.5171 0.4882 0.4941 0.4818
2172.029 0.4963 0.52 0.499 0.4848 0.4951 0.5312 0.5648 0.5564 0.5487 0.5134
2210.609 0.5157 0.5491 0.5476 0.5503 0.5349 0.5118 0.5062 0.4854 0.4738 0.4839
2249.188 0.4996 0.4804 0.4666 0.4789 0.4708 0.4901 0.5417 0.5532 0.5455 0.5511
2287.768 0.558 0.5284 0.5197 0.5586 0.5597 0.545 0.559 0.5266 0.4792 0.4796
2326.347 0.4325 0.4078 0.4097 0.4236 0.4528 0.4534 0.4662 0.476 0.49 0.499
2364.927 0.5113 0.5241 0.4997 0.4691 0.4757 0.5225 0.5357 0.5434 0.5565 0.5668
2403.507 0.5313 0.4987 0.5578 0.5904 0.586 0.583 0.5551 0.5302 0.5084 0.4966
2442.086 0.5059 0.4851 0.5232 0.5157 0.4969 0.5239 0.4856 0.4497 0.4296 0.4046
2480.666 0.3685 0.3527 0.3665 0.3432 0.3161 0.3482 0.3708 0.3726 0.3584 0.3483
2519.245 0.3727 0.4033 0.4407 0.4412 0.4447 0.4985 0.5052 0.4858 0.4701 0.4988
2557.825 0.5256 0.4993 0.4992 0.5468 0.5461 0.5269 0.507 0.4969 0.523 0.4963
2596.404 0.5057 0.4958 0.4332 0.416 0.4735 0.471 0.4435 0.4798 0.4935 0.5339
2634.984 0.5442 0.5254 0.5687 0.5629 0.4833 0.4944 0.5231 0.4972 0.4999 0.5044
2673.563 0.5281 0.515 0.5024 0.5312 0.5338 0.5214 0.5098 0.522 0.5762 0.6432
2712.143 0.6671 0.629 0.604 0.6497 0.6759 0.6775 0.7553 0.8065 0.8025 0.8598
2750.722 0.9828 1.0966 1.3 1.71 2.2 2.63 2.8 2.62 2.19 1.71
2789.302 1.36 1.21 1.18 1.21 1.25 1.26 1.28 1.39 1.48 1.6
2827.882 1.74 1.93 2.11 2.29 2.58 2.94 3.32 3.75 4.36 5.15
2866.461 6.06 7.01 7.85 8.35 8.37 8.06 7.52 7.02 6.69 6.56
2905.041 6.72 6.93 7.13 7.31 7.28 7.1 6.91 6.76 6.61 6.37
2943.620 6.14 5.81 5.47 5.16 4.78 4.32 3.87 3.58 3.32 3.06
2982.200 2.97 2.84 2.8 2.95 3.04 3.13 3.27 3.5 3.91 4.25
3020.779 4.35 4.19 3.77 3.43 3.32 3.24 3.19 3.11 2.92 2.64
3059.359 2.36 2.11 1.97 1.95 1.89 1.79 1.73 1.61 1.5 1.51
3097.938 1.5 1.46 1.34 1.24 1.1044 0.9946 1.0007 0.8973 0.7534 0.7084
3136.518 0.689 0.6246 0.506 0.4003 0.3698 0.3612 0.3515 0.3263 0.3064 0.2601
3175.098 0.3231 0.3719 0.3196 0.3437 0.2853 0.2412 0.2623 0.22261 0.1153 0.12712
3213.677 0.19983 0.2491 0.3177 0.2852 0.2376 0.22943 0.2356 0.21891 0.21854 0.2686
3252.257 0.3205 0.3236 0.3564 0.3545 0.2757 0.21494 0.18363 0.18147 0.18036 0.14789
3290.836 0.16734 0.21807 0.15768 0.18155 0.2437 0.2472 0.2423 0.20411 0.20393 0.22812
3329.416 0.2536 0.266 0.2325 0.2021 0.2473 0.2712 0.2709 0.3209 0.3335 0.2871
3367.995 0.3273 0.3755 0.3928 0.3746 0.3778 0.4765 0.6284 0.7005 0.8438 1.0108
3406.575 1.0559 1.22 1.44 1.6 1.72 1.74 1.73 1.74 1.67 1.69
3445.154 1.82 2 2.18 2.4 2.55 2.71 2.82 2.64 2.28 1.87
3483.734 1.34 0.9561 0.8422 0.7 0.5018 0.3999 0.3609 0.2603 0.22264 0.278
3522.314 0.252 0.20298 0.22628 0.17708 0.20648 0.2306 0.1722 0.22536 0.271 0.2729
3560.893 0.2406 0.3099 0.2752 0.14216 0.16025 0.21054 0.19971 0.16037 0.1767 0.18601
3599.473 0.14882 0.14133 0.19926 0.19433 0.22244 0.3474 0.3807 0.258 0.16842 0.17871
3638.052 0.16657 0.114 0.139025 0.1796 0.1862 0.22901 0.2814 0.3424 0.3482 0.2426
3676.632 0.20124 0.22364 0.20488 0.16036 0.130054 0.1142 0 0.027 0.132995 0.20073
3715.211 0.17837 0.13779 0.2145 0.17449 0.22378 0.2663 0.18131 0.1821 0.20017 0.21843
3753.791 0.18157 0.21522 0.19084 0.12274 0.20091 0.21108 0.2313 0.2765 0.3072 0.296
3792.370 0.22766 0.2575 0.2328 0.16705 0.17497 0.20026 0.19919 0.2386 0.204 0.17696
3830.950 0.2739 0.22152 0.21924 0.2424 0.16559 0.22534 0.2666 0.20422 0.2451 0.22175
3869.530 0.16531 0.2397 0.2848 0.2504 0.2513 0.2629 0.2488 0.2334 0.2541 0.2687
3908.109 0.2347 0.2434 0.3473 0.3666 0.3141 0.3321 0.2808 0.2517 0.2916 0.337
3946.689 0.3718 0.3757 0.411 0.4058 0.3767 0.2939 0.2315 0.2865 0.3017 0.2378
3985.268 0.2688 0.3793 0.3758 0.3439 0.2984
##END=
