##TITLE=3-Bromo-5-fluorobenzotrifluoride
##JCAMP-DX=4.24
##DATA TYPE=INFRARED SPECTRUM
##ORIGIN=EPA-IR VAPOR PHASE LIBRARY
##OWNER=SRD/NIST
Collection (C) 2018 copyright by the U.S. Secretary of Commerce
on behalf of the United States of America. All rights reserved.
##CAS REGISTRY NO=130723-13-6
##MOLFORM=C 7 H 3 Br F 4
##$NIST SOURCE=MSDC-IR
##STATE=gas
##XUNITS=1/CM
##YUNITS=ABSORBANCE
##XFACTOR=1.
##YFACTOR=0.001
##DELTAX=1.929
##FIRSTX=549.8
##LASTX=4000.8
##FIRSTY=0.9516
##MAXX=4000.75
##MINX=549.766
##MAXY=0.16195
##MINY=0
##NPOINTS=1790
##XYDATA=(X++(Y..Y))
549.766 0.9516 0.7898 0.8818 0.8179 0.71317 0.8445 0.72144 0.502 0.5839 0.9317
569.056 0.9068 0.70354 0.68388 0.471 0.69988 1.0654 0.9809 0.8004 0.869 1.066
588.346 0.9879 0.7966 0.7353 0.928 1.1159 1.1187 1.0616 0.8834 0.8267 0.781
607.636 0.524 0.5706 0.5962 0.6271 0.9555 1.1036 1.3036 1.6195 1.81 2.09
626.926 2.29 2.15 2.03 1.93 1.65 1.5319 1.5656 1.3724 1.1367 1.0894
646.216 0.9075 0.807 0.8839 0.9504 1.0586 1.2833 1.2968 1.0091 0.938 1.0369
665.506 1.2248 1.3698 1.3847 1.63 2.02 2.38 2.96 3.86 5.2 6.76
684.796 8.32 10.64 14.76 20.27 24.16 24.72 24.58 23.93 22.37 19.27
704.086 13.46 8.13 4.99 3.25 2.43 2.1 1.83 1.4432 1.2234 1.2404
723.376 1.2572 1.2162 1.001 0.8623 0.7929 0.7735 0.8194 0.8161 0.7964 0.7379
742.666 0.7747 0.7811 0.7611 0.744 0.7821 0.83 0.7822 0.7468 0.7586 0.7999
761.956 0.8208 0.8658 0.9006 0.9178 0.9443 0.9663 1.0162 1.1324 1.2138 1.2573
781.246 1.3716 1.67 2.09 2.64 3.41 4.33 5.54 7.28 9.64 12.35
800.536 14.75 16.24 16.73 16.54 15.45 13.15 9.82 6.55 4.47 3.3
819.826 2.56 2.1 1.77 1.6115 1.5614 1.4384 1.2997 1.2296 1.2303 1.2344
839.116 1.2274 1.2694 1.3131 1.3283 1.4729 1.82 2.36 3.16 4.34 5.97
858.406 7.77 9.84 12.33 15.44 18.64 19.57 18.19 17.54 18.15 18.28
877.696 16.29 12.74 10 8.18 6.58 5.21 4.17 3.52 3.19 3.11
896.986 3.28 3.44 3.63 4.17 4.9 5.78 7.07 9.05 11.95 15.64
916.276 20.25 25.38 29.8 32.76 33.99 34.04 33.15 30.1 24.69 18.47
935.566 12.87 8.66 5.77 4 2.97 2.26 1.94 1.76 1.7 1.67
954.856 1.6089 1.64 1.6123 1.5658 1.5528 1.5165 1.4845 1.5093 1.4524 1.37
974.146 1.3193 1.2665 1.2962 1.3149 1.3209 1.3637 1.4096 1.4553 1.4867 1.5293
993.436 1.5416 1.611 1.64 1.64 1.74 1.74 1.65 1.5746 1.4226 1.3103
1012.726 1.3474 1.3781 1.3292 1.234 1.2998 1.337 1.2683 1.2802 1.2416 1.1601
1032.016 1.2083 1.2403 1.2187 1.2339 1.2817 1.2362 1.0935 1.13 1.3332 1.394
1051.306 1.4239 1.557 1.63 1.84 2.05 2.26 2.55 2.79 3.12 3.57
1070.596 4.19 5.01 5.95 6.92 7.75 8.47 8.93 9.04 8.97 8.57
1089.886 7.98 7.5 7.07 6.81 6.67 6.23 5.66 5.09 4.64 4.46
1109.176 4.43 4.48 4.67 5 5.27 5.65 6.15 6.64 7.21 7.93
1128.467 8.98 10.43 12.45 15.16 18.73 23.49 29.54 37.08 46.23 56.63
1147.757 67.79 79.32 90.64 100.02 104.5 101.37 90.71 77.33 65.97 56.58
1167.047 48.97 44.87 45.22 49.81 57.51 66.7 75.13 80.74 82.26 79.3
1186.337 72.42 63.34 53.28 42.86 33.35 25.91 20.91 18.16 16.98 16.98
1205.627 18.13 20.06 22.41 24.73 26.63 27.58 27.24 25.48 22.48 18.76
1224.917 14.9 11.53 8.94 7.25 6.23 5.5 5.07 4.85 4.65 4.49
1244.207 4.41 4.34 4.2 4.08 4.03 3.94 3.78 3.57 3.39 3.2
1263.497 3.11 3.04 2.96 2.86 2.85 2.95 2.98 3.15 3.35 3.47
1282.787 3.65 3.95 4.24 4.56 5.04 5.69 6.54 7.6 9 10.85
1302.077 13.43 17.03 21.96 28.85 38.43 51.55 68.76 89.73 112.91 135.16
1321.367 152.6 161.95 161.51 150.88 130.87 104.4 76.06 51.33 33.8 23.14
1340.657 16.91 13.11 10.57 8.74 7.44 6.45 5.7 5.12 4.55 4.18
1359.947 3.93 3.68 3.59 3.59 3.62 3.67 3.78 3.86 3.84 3.89
1379.237 3.99 3.94 3.87 3.83 3.8 3.75 3.71 3.69 3.81 4.17
1398.527 4.67 5.41 6.39 7.73 9.33 10.98 12.56 13.65 14.26 14.52
1417.817 14.55 14.35 13.91 13.53 13.53 14.13 15.53 17.64 20.12 22.7
1437.107 25.32 27.67 29.72 31.52 33.08 34.25 34.97 35.22 34.79 32.99
1456.397 29.55 25.36 21.47 17.75 14 10.54 7.93 6.1 4.89 4.06
1475.687 3.49 3.11 2.91 2.75 2.57 2.45 2.41 2.43 2.35 2.3
1494.977 2.33 2.32 2.34 2.38 2.37 2.33 2.24 2.14 2.07 2
1514.267 1.98 1.94 1.95 1.99 1.96 1.96 1.94 1.86 1.82 1.74
1533.557 1.64 1.6078 1.6219 1.6251 1.66 1.74 1.84 1.94 2.15 2.46
1552.847 2.83 3.25 3.61 4.15 4.86 5.51 6.21 6.98 7.76 8.54
1572.137 9.52 10.64 12.02 13.91 16.18 18.92 22.03 25.17 27.92 29.87
1591.427 30.71 30.33 28.85 26.33 22.82 19.25 16.45 14.43 13.16 12.24
1610.717 11.38 10.58 9.7 8.72 7.74 6.81 5.9 5.05 4.29 3.62
1630.007 3.03 2.64 2.29 2 1.86 1.68 1.563 1.4983 1.4638 1.3936
1649.297 1.3152 1.3631 1.3564 1.3238 1.346 1.2655 1.2094 1.2199 1.0862 1.08
1668.587 1.1403 1.0602 0.9994 0.9901 0.9961 1.0118 0.9624 0.8936 0.8864 0.9738
1687.877 0.9704 0.875 0.9107 0.9639 0.9722 0.8543 0.8232 0.973 0.9941 0.9127
1707.167 0.8865 0.949 1.0132 1.0416 1.0313 1.0665 1.1354 1.1583 1.2633 1.3649
1726.457 1.4498 1.6254 1.74 1.81 1.96 2.07 2.27 2.53 2.79 3.06
1745.747 3.28 3.38 3.35 3.15 2.85 2.56 2.19 1.9 1.76 1.65
1765.037 1.5165 1.4406 1.3807 1.2309 1.2034 1.2568 1.1904 1.1442 1.1348 1.0859
1784.327 1.0491 0.9776 0.9198 0.8905 0.8569 0.8483 0.8618 0.8627 0.8786 0.8916
1803.617 0.8556 0.8272 0.7758 0.7486 0.7818 0.7633 0.72105 0.7336 0.7415 0.72381
1822.907 0.70133 0.65975 0.66251 0.7348 0.8034 0.7852 0.7645 0.7987 0.782 0.7754
1842.197 0.81 0.7982 0.8168 0.8379 0.8585 0.8279 0.749 0.7404 0.7543 0.72202
1861.487 0.69805 0.71357 0.69151 0.71212 0.736 0.7421 0.7594 0.7318 0.7366 0.71165
1880.777 0.70609 0.7416 0.72388 0.66718 0.6415 0.66215 0.69641 0.70845 0.67461 0.635307
1900.067 0.6163 0.64164 0.62654 0.634911 0.72218 0.74 0.69804 0.68136 0.65703 0.6126
1919.357 0.636033 0.68478 0.67509 0.67756 0.68546 0.71464 0.71746 0.69357 0.70518 0.67709
1938.647 0.64123 0.62155 0.64139 0.69234 0.66677 0.62663 0.64678 0.67779 0.69773 0.7423
1957.937 0.7557 0.7425 0.7456 0.758 0.72886 0.70529 0.72424 0.7472 0.7306 0.7473
1977.227 0.7688 0.7457 0.7426 0.7544 0.7715 0.7385 0.7498 0.7452 0.7355 0.72202
1996.517 0.68521 0.67926 0.68688 0.737 0.7694 0.7806 0.7551 0.7402 0.7468 0.72836
2015.807 0.71478 0.7392 0.7699 0.7984 0.805 0.8112 0.776 0.72029 0.68324 0.65378
2035.097 0.66437 0.65435 0.62386 0.5927 0.5916 0.585 0.5417 0.5462 0.5793 0.6041
2054.387 0.631833 0.62362 0.5854 0.5448 0.5433 0.5769 0.62133 0.6108 0.5858 0.6148
2073.677 0.65588 0.64706 0.6103 0.66718 0.66742 0.62119 0.6176 0.6068 0.68257 0.68964
2092.967 0.62895 0.62397 0.629175 0.6028 0.630667 0.67211 0.67822 0.70806 0.72902 0.7345
2112.257 0.7451 0.8156 0.899 0.8864 0.8979 0.9927 1.0216 1.0258 1.0637 1.0868
2131.547 1.0735 1.0961 1.1428 1.1326 1.1006 1.073 1.049 1.0151 0.9617 0.9144
2150.837 0.8615 0.8053 0.7486 0.7396 0.69685 0.63524 0.636676 0.633802 0.606 0.5903
2170.127 0.584 0.5761 0.601 0.6112 0.5922 0.5445 0.5391 0.59 0.6237 0.633457
2189.417 0.6135 0.5822 0.5472 0.517 0.501 0.511 0.5505 0.5829 0.6071 0.6164
2208.707 0.5704 0.504 0.5373 0.5435 0.5722 0.62595 0.632203 0.68581 0.71436 0.70567
2227.997 0.68359 0.69819 0.69963 0.65415 0.66156 0.64077 0.62266 0.67413 0.72275 0.72203
2247.287 0.69332 0.68417 0.67189 0.70408 0.68143 0.68362 0.69858 0.70246 0.762 0.70463
2266.577 0.71457 0.6856 0.6185 0.638224 0.68141 0.7477 0.7318 0.72776 0.7482 0.7398
2285.868 0.7726 0.8271 0.8086 0.8099 0.8038 0.7635 0.7481 0.7517 0.7214 0.68164
2305.158 0.7333 0.786 0.72471 0.65847 0.629395 0.5488 0.536 0.5512 0.6156 0.69538
2324.448 0.67893 0.66556 0.65181 0.6149 0.67076 0.72352 0.7246 0.70053 0.70955 0.7396
2343.738 0.7554 0.71412 0.638621 0.67279 0.7448 0.8029 0.7886 0.8106 0.8166 0.7821
2363.028 0.8116 0.8359 0.8268 0.8214 0.7374 0.7287 0.8595 0.906 0.891 0.8415
2382.318 0.8225 0.7744 0.7475 0.7442 0.7301 0.7395 0.72563 0.68969 0.64015 0.64756
2401.608 0.636025 0.64683 0.7364 0.711 0.64283 0.62099 0.64483 0.68585 0.66506 0.68472
2420.898 0.66123 0.5487 0.5306 0.611 0.67105 0.70262 0.70732 0.634229 0.6107 0.62813
2440.188 0.6029 0.5961 0.5621 0.519 0.5474 0.513 0.441 0.479 0.476 0.452
2459.478 0.487 0.495 0.47 0.524 0.5738 0.5516 0.5757 0.5625 0.5323 0.5576
2478.768 0.5662 0.483 0.419 0.463 0.521 0.5527 0.5506 0.5527 0.516 0.467
2498.058 0.525 0.5448 0.481 0.476 0.501 0.497 0.488 0.465 0.466 0.5324
2517.348 0.5654 0.5868 0.529 0.511 0.5588 0.5696 0.6064 0.65262 0.66645 0.67698
2536.638 0.66085 0.66939 0.67532 0.65754 0.6117 0.521 0.514 0.523 0.508 0.498
2555.928 0.507 0.491 0.441 0.375 0.417 0.444 0.402 0.414 0.435 0.423
2575.218 0.353 0.32 0.355 0.37 0.409 0.395 0.297 0.311 0.387 0.386
2594.508 0.373 0.42 0.46 0.407 0.365 0.395 0.331 0.298 0.4 0.413
2613.798 0.362 0.349 0.339 0.388 0.419 0.447 0.417 0.331 0.364 0.458
2633.088 0.445 0.449 0.5562 0.525 0.423 0.388 0.383 0.422 0.416 0.369
2652.378 0.372 0.398 0.476 0.514 0.461 0.391 0.342 0.367 0.381 0.364
2671.668 0.43 0.468 0.462 0.387 0.298 0.298 0.329 0.323 0.323 0.344
2690.958 0.325 0.251 0.249 0.341 0.347 0.27 0.191 0.181 0.198 0.194
2710.248 0.255 0.299 0.293 0.282 0.279 0.271 0.29 0.249 0.155 0.135
2729.538 0.128 0.167 0.177 0.206 0.306 0.339 0.241 0.199 0.219 0.175
2748.828 0.19 0.293 0.321 0.25 0.264 0.284 0.261 0.229 0.195 0.215
2768.118 0.261 0.277 0.318 0.331 0.268 0.235 0.217 0.244 0.221 0.115
2787.408 0.09 0.173 0.208 0.185 0.212 0.214 0.225 0.287 0.26 0.265
2806.698 0.236 0.221 0.217 0.118 0.126 0.154 0.207 0.267 0.227 0.261
2825.988 0.242 0.207 0.26 0.152 0.154 0.172 0.125 0.167 0.189 0.187
2845.278 0.185 0.254 0.234 0.154 0.123 0.05 0.065 0.097 0.157 0.245
2864.568 0.216 0.171 0.101 0.115 0.171 0.179 0.181 0.169 0.238 0.314
2883.858 0.291 0.296 0.347 0.39 0.401 0.406 0.429 0.291 0.213 0.292
2903.148 0.291 0.307 0.379 0.362 0.357 0.418 0.44 0.487 0.326 0.22
2922.438 0.288 0.368 0.423 0.362 0.298 0.275 0.329 0.321 0.284 0.29
2941.728 0.27 0.212 0.173 0.143 0.114 0.129 0.188 0.239 0.215 0.144
2961.018 0.168 0.154 0.11 0.12 0.08 0.089 0.113 0.156 0.184 0.124
2980.308 0.146 0.175 0.151 0.141 0.131 0.18 0.205 0.167 0.189 0.209
2999.598 0.153 0.101 0 0.009 0.19 0.199 0.193 0.218 0.21 0.172
3018.888 0.144 0.088 0.088 0.194 0.207 0.176 0.205 0.205 0.248 0.314
3038.178 0.288 0.305 0.267 0.295 0.357 0.38 0.432 0.458 0.387 0.369
3057.468 0.366 0.367 0.377 0.365 0.435 0.453 0.457 0.5358 0.485 0.412
3076.758 0.428 0.474 0.516 0.5773 0.65088 0.7315 0.9887 1.1611 1.3932 1.68
3096.048 1.68 1.66 1.5653 1.2871 0.9404 0.7998 0.75 0.522 0.382 0.305
3115.338 0.34 0.324 0.349 0.306 0.169 0.217 0.135 0.221 0.344 0.215
3134.628 0.15 0.291 0.419 0.236 0.165 0.244 0.316 0.392 0.311 0.271
3153.918 0.3 0.244 0.231 0.265 0.194 0.227 0.254 0.28 0.2 0.215
3173.208 0.401 0.31 0.293 0.337 0.278 0.284 0.278 0.231 0.261 0.297
3192.498 0.336 0.436 0.405 0.208 0.139 0.3 0.316 0.267 0.247 0.246
3211.788 0.249 0.242 0.262 0.307 0.467 0.5332 0.411 0.241 0.312 0.5358
3231.078 0.475 0.303 0.269 0.351 0.452 0.369 0.265 0.265 0.287 0.294
3250.368 0.288 0.322 0.383 0.341 0.452 0.42 0.317 0.353 0.373 0.406
3269.658 0.295 0.28 0.258 0.222 0.269 0.372 0.473 0.36 0.25 0.248
3288.948 0.342 0.42 0.318 0.407 0.414 0.269 0.377 0.394 0.32 0.356
3308.238 0.391 0.333 0.338 0.372 0.339 0.371 0.362 0.353 0.423 0.397
3327.528 0.328 0.344 0.346 0.35 0.37 0.306 0.215 0.302 0.42 0.444
3346.818 0.352 0.327 0.413 0.352 0.323 0.365 0.423 0.474 0.336 0.273
3366.108 0.408 0.413 0.272 0.324 0.488 0.546 0.515 0.417 0.394 0.475
3385.398 0.505 0.51 0.507 0.507 0.515 0.495 0.538 0.5628 0.5862 0.5395
3404.688 0.5511 0.62084 0.5561 0.487 0.4 0.437 0.479 0.442 0.512 0.5334
3423.978 0.453 0.418 0.489 0.64323 0.63274 0.5837 0.5508 0.5318 0.5703 0.478
3443.269 0.437 0.456 0.48 0.436 0.485 0.5934 0.466 0.336 0.418 0.5876
3462.559 0.6107 0.465 0.476 0.6843 0.756 0.746 0.66428 0.5422 0.6146 0.5643
3481.849 0.455 0.488 0.5836 0.6199 0.522 0.463 0.516 0.5445 0.5441 0.5904
3501.139 0.5926 0.482 0.5441 0.5832 0.427 0.475 0.6185 0.6027 0.6046 0.6057
3520.429 0.5393 0.6018 0.62082 0.477 0.392 0.5 0.443 0.399 0.409 0.503
3539.719 0.71096 0.68849 0.62398 0.522 0.41 0.433 0.455 0.43 0.503 0.53
3559.009 0.5 0.512 0.5666 0.5417 0.452 0.5434 0.634861 0.5661 0.499 0.524
3578.299 0.630562 0.5758 0.481 0.501 0.5863 0.69066 0.67428 0.634462 0.5531 0.43
3597.589 0.385 0.445 0.5795 0.65783 0.5575 0.5781 0.6165 0.495 0.472 0.493
3616.879 0.496 0.5487 0.5613 0.515 0.5745 0.5985 0.506 0.433 0.482 0.5687
3636.169 0.5371 0.492 0.47 0.630142 0.65567 0.508 0.5563 0.5932 0.522 0.507
3655.459 0.5807 0.459 0.377 0.524 0.67161 0.5624 0.5645 0.5801 0.415 0.377
3674.749 0.484 0.67821 0.67293 0.497 0.388 0.5418 0.5534 0.489 0.481 0.424
3694.039 0.477 0.419 0.31 0.366 0.68544 0.7857 0.5365 0.349 0.381 0.468
3713.329 0.451 0.526 0.52 0.518 0.5441 0.512 0.5331 0.638224 0.69778 0.62748
3732.619 0.514 0.425 0.5845 0.71121 0.6273 0.423 0.292 0.437 0.411 0.406
3751.909 0.488 0.493 0.5812 0.5384 0.383 0.39 0.433 0.388 0.316 0.471
3771.199 0.525 0.482 0.449 0.459 0.522 0.41 0.464 0.485 0.5663 0.67254
3790.489 0.609 0.5802 0.491 0.436 0.438 0.31 0.323 0.454 0.469 0.467
3809.779 0.457 0.299 0.303 0.35 0.4 0.515 0.421 0.422 0.516 0.455
3829.069 0.445 0.404 0.449 0.62583 0.415 0.293 0.415 0.34 0.364 0.496
3848.359 0.463 0.418 0.401 0.334 0.319 0.371 0.469 0.484 0.527 0.5392
3867.649 0.352 0.463 0.497 0.317 0.5508 0.5526 0.276 0.272 0.431 0.5443
3886.939 0.5335 0.359 0.193 0.262 0.366 0.451 0.496 0.518 0.62245 0.6188
3906.229 0.6119 0.634689 0.5664 0.427 0.392 0.388 0.441 0.52 0.314 0.317
3925.519 0.475 0.343 0.348 0.6188 0.5838 0.435 0.549 0.6325 0.634199 0.5334
3944.809 0.403 0.474 0.64402 0.632026 0.388 0.266 0.292 0.423 0.485 0.553
3964.099 0.5873 0.468 0.401 0.398 0.412 0.47 0.5536 0.5952 0.5545 0.454
3983.389 0.408 0.351 0.365 0.47 0.492 0.468 0.472 0.427 0.464 0.492
##END=
