##TITLE=DL-Anabasine
##JCAMP-DX=4.24
##DATA TYPE=INFRARED SPECTRUM
##ORIGIN=EPA-IR VAPOR PHASE LIBRARY
##OWNER=SRD/NIST
Collection (C) 2018 copyright by the U.S. Secretary of Commerce
on behalf of the United States of America. All rights reserved.
##CAS REGISTRY NO=13078-04-1
##MOLFORM=C 10 H 14 N 2
##$NIST SOURCE=MSDC-IR
##STATE=gas
##XUNITS=1/CM
##YUNITS=ABSORBANCE
##XFACTOR=1.
##YFACTOR=0.001
##DELTAX=1.92898
##FIRSTX=549.8
##LASTX=4000.7
##FIRSTY=3.885
##MAXX=4000.7
##MINX=549.759
##MAXY=0.116935
##MINY=0
##NPOINTS=1790
##XYDATA=(X++(Y..Y))
549.759 3.885 3.525 3.035 2.485 2.005 1.4953 1.8549 2.245 2.335 1.8144
569.049 1.6328 0.94894 0.277 1.1631 2.205 2.755 2.835 2.075 1.4695 1.3808
588.339 1.6562 1.6393 1.2766 0.99823 1.4589 2.095 1.7039 1.6725 2.055 2.675
607.628 3.155 4.025 4.185 3.555 3.985 4.285 3.765 3.575 3.535 2.825
626.918 2.375 2.875 3.145 2.835 2.435 2.765 3.015 2.375 2.575 2.955
646.208 2.965 3.265 3.285 3.435 3.745 4.045 4.765 5.095 4.945 5.295
665.498 5.225 4.935 5.365 4.835 4.605 5.265 5.565 5.785 5.865 5.875
684.787 6.535 7.535 7.955 8.815 10.435 11.795 13.575 15.465 16.995 18.845
704.077 21.155 23.375 24.925 26.115 27.265 27.715 27.475 26.935 25.755 24.455
723.367 23.065 21.755 20.695 20.175 19.715 18.845 18.855 19.375 19.745 19.925
742.657 19.935 20.125 20.295 20.235 19.895 18.945 18.255 17.375 15.805 14.335
761.947 12.585 11.225 10.425 9.545 9.005 8.845 8.635 8.335 8.525 8.785
781.236 8.885 9.245 9.985 10.845 11.295 11.905 12.605 12.585 12.545 12.515
800.526 11.845 11.315 10.895 10.345 9.585 8.815 7.795 6.815 6.575 6.095
819.816 5.525 4.965 4.215 3.725 3.955 4.205 4.455 5.195 5.445 5.425
839.106 5.855 6.525 6.655 7.115 7.225 6.795 6.315 5.605 4.785 4.095
858.395 3.915 3.515 2.945 2.675 2.885 2.815 2.555 2.585 2.585 2.505
877.685 2.525 2.665 2.725 2.805 3.005 3.215 2.995 2.905 3.255 3.255
896.975 2.685 2.615 2.775 2.895 3.385 3.515 3.595 3.675 3.795 3.565
916.265 3.205 3.675 3.945 3.515 3.225 3.315 3.285 3.025 2.975 2.675
935.555 2.285 2.455 2.575 2.265 2.155 2.005 1.196 1.2571 1.8623 1.682
954.844 1.4957 1.8184 1.8414 1.8368 2.015 1.7707 1.8764 1.995 2.025 2.195
974.134 2.005 2.135 2.735 2.835 2.715 2.935 3.475 4.185 4.325 4.735
993.424 5.275 5.465 5.795 6.225 6.835 7.215 7.455 8.455 9.935 11.015
1012.714 13.145 14.895 14.855 15.755 16.005 14.935 13.925 12.445 11.085 9.885
1032.003 8.115 6.525 5.995 5.215 5.195 5.655 5.555 5.945 6.895 7.385
1051.293 6.835 6.295 6.865 7.465 6.655 5.595 5.045 4.915 4.445 3.875
1070.583 3.615 3.245 3.465 3.635 3.195 3.545 5.425 7.385 7.835 7.945
1089.873 9.285 11.025 11.625 11.925 13.235 15.595 17.455 19.485 21.615 21.855
1109.163 21.945 20.715 20.565 21.705 19.645 17.175 15.705 14.165 13.015 11.035
1128.452 9.425 8.545 7.485 6.935 7.215 7.525 7.465 6.735 6.755 6.845
1147.742 5.815 5.745 5.335 5.165 5.025 4.545 5.245 5.745 5.935 6.095
1167.032 6.115 6.355 6.815 7.245 6.875 7.685 9.005 9.195 8.915 7.635
1186.322 6.815 6.875 7.005 6.975 7.125 8.115 8.355 7.305 6.315 6.625
1205.611 7.375 6.495 6.735 6.995 5.905 5.185 5.955 6.645 5.495 4.795
1224.901 4.415 4.535 3.335 2.925 3.895 3.395 2.655 2.675 3.275 3.075
1244.191 2.895 3.195 3.695 4.285 4.625 4.965 4.825 4.775 5.165 4.895
1263.481 4.155 3.695 3.695 4.145 4.015 3.795 3.535 3.195 3.465 3.585
1282.771 3.415 3.525 3.875 4.165 4.625 5.695 6.925 7.885 8.825 9.595
1302.060 10.455 11.805 13.075 14.365 15.765 17.305 18.765 19.855 20.625 21.115
1321.350 21.405 20.985 19.775 18.305 16.635 15.185 14.125 12.855 11.625 10.525
1340.640 9.575 9.085 8.945 8.865 8.805 8.545 8.235 8.165 8.115 8.335
1359.930 8.935 9.385 9.825 10.435 10.885 10.925 10.665 10.215 9.545 8.685
1379.219 7.755 6.785 5.695 5.015 4.525 4.225 4.275 4.385 4.555 4.665
1398.509 5.115 5.815 6.535 7.265 8.375 9.965 11.675 13.885 16.385 18.865
1417.799 21.205 23.115 24.215 24.835 25.475 25.855 25.585 24.395 22.895 22.125
1437.089 21.875 21.925 22.075 21.985 21.785 21.255 20.645 20.425 19.905 18.835
1456.378 17.405 16.265 15.285 14.035 13.085 12.465 12.145 12.095 12.175 12.055
1475.668 11.775 11.505 11.085 10.385 9.375 8.145 6.895 5.795 4.815 4.085
1494.958 3.715 3.335 2.945 2.695 2.505 2.455 2.435 2.345 2.115 1.965
1514.248 2.015 1.851 1.6996 1.9126 1.8813 1.7321 1.6924 1.8533 1.975 1.995
1533.538 2.285 2.315 2.205 2.345 2.395 2.475 2.425 2.465 2.675 2.855
1552.827 3.495 3.835 3.955 4.825 5.725 6.045 6.675 7.735 8.375 8.925
1572.117 9.375 9.355 9.455 9.315 8.705 8.235 7.555 6.755 5.945 5.105
1591.407 4.555 3.875 3.315 2.955 2.615 2.405 2.295 2.185 2.075 2.095
1610.697 1.975 2.085 2.055 1.6311 1.6322 1.5712 1.4688 1.705 1.6658 1.4101
1629.986 1.3118 1.4872 1.6491 1.5729 1.5876 1.7126 1.5605 1.5228 1.6764 1.6914
1649.276 1.5941 1.3856 1.4392 1.5636 1.5024 1.4708 1.4809 1.3807 1.4179 1.4684
1668.566 1.409 1.3073 1.2537 1.3243 1.3325 1.3866 1.266 1.2293 1.3412 1.3056
1687.856 1.287 1.2186 1.3164 1.5832 1.7112 1.629 1.5352 1.4528 1.5004 1.574
1707.146 1.4806 1.3648 1.2877 1.2041 1.4091 1.4546 1.384 1.6087 1.5735 1.6016
1726.435 1.5703 1.3594 1.294 1.3659 1.4439 1.4913 1.6345 1.6217 1.5704 1.6298
1745.725 1.7812 1.7436 1.5527 1.3825 1.2471 1.3464 1.5066 1.6155 1.6115 1.3292
1765.015 1.0419 1.1027 1.1824 1.2786 1.2861 1.1835 1.196 1.1734 1.227 1.1286
1784.305 1.0205 1.0779 1.047 1.0445 1.0269 1.1116 1.2689 1.3999 1.5104 1.412
1803.594 1.3308 1.4252 1.4734 1.269 1.2251 1.3096 1.2033 1.2183 1.4486 1.5628
1822.884 1.4807 1.4161 1.3216 1.1954 1.2797 1.429 1.3772 1.3944 1.4876 1.615
1842.174 1.6525 1.5764 1.5418 1.5519 1.6691 1.6852 1.7342 1.7129 1.6054 1.7022
1861.464 1.945 1.955 1.7817 1.965 2.175 2.235 2.105 2.115 2.155 2.105
1880.754 2.215 2.165 2.115 2.155 2.075 2.085 2.235 2.515 2.695 2.605
1900.043 2.615 2.845 2.925 2.665 2.485 2.395 2.245 2.085 1.935 1.8042
1919.333 1.9115 2.045 1.8925 1.9096 1.965 1.995 1.995 1.9013 1.8505 1.7405
1938.623 1.7851 1.7557 1.6051 1.4624 1.4813 1.6601 1.7742 1.7216 1.6878 1.7359
1957.913 1.5747 1.5347 1.7002 1.7087 1.5739 1.5186 1.4727 1.3545 1.2921 1.313
1977.202 1.3303 1.2201 1.1114 1.0747 1.0999 1.2019 1.1629 1.1495 1.2181 1.2208
1996.492 1.1058 1.1014 1.113 1.1211 1.1138 1.0364 0.97986 1.1103 1.2871 1.1479
2015.782 1.0425 1.0944 1.1212 1.0541 1.00069 1.0622 1.2412 1.3551 1.3568 1.1968
2035.072 1.1748 1.0891 1.0962 1.0872 0.9696 1.0965 1.1275 1.1348 1.1106 1.0956
2054.362 1.01379 0.765 0.755 0.9008 0.98913 0.92578 0.8163 0.8647 0.92773 1.0225
2073.651 0.98052 0.99983 1.0184 0.97012 1.00143 1.01389 1.0409 0.9388 0.95188 1.1773
2092.941 1.1627 1.0604 0.96358 0.96359 1.0268 1.0195 1.1638 1.1427 0.94298 0.95883
2112.231 0.95297 0.8782 0.8968 1.00622 1.1685 1.1317 1.0489 1.2924 1.3658 1.0472
2131.521 0.94636 1.0972 1.1159 1.0502 1.1438 1.2114 1.2118 1.2114 1.0603 1.1947
2150.810 1.1968 0.8953 0.794 0.8552 0.96949 0.91033 1.0196 1.1667 1.1028 1.1054
2170.100 1.1221 1.1675 1.3767 1.4797 1.3841 1.1687 1.0857 1.2773 1.2594 1.0628
2189.390 1.1928 1.2355 1.1211 1.2137 1.3818 1.3114 1.1698 1.2366 1.3162 1.3384
2208.680 1.3156 1.1582 1.0739 1.0568 1.017 1.1271 1.2313 1.1207 1.0535 1.1204
2227.970 1.0552 1.1901 1.31 1.2511 1.1616 1.3006 1.53 1.3434 1.1741 1.1809
2247.259 1.3381 1.445 1.3265 1.2697 1.2987 1.2704 1.2359 1.3094 1.313 1.145
2266.549 1.1507 1.3442 1.4825 1.4477 1.4051 1.4153 1.3807 1.3653 1.3172 1.3226
2285.839 1.201 1.0474 1.1487 1.1472 1.2225 1.4788 1.3298 1.01261 1.0577 1.1572
2305.129 1.0556 1.1557 1.2548 1.2537 1.1504 1.1356 1.1252 0.98488 1.1142 1.2028
2324.418 1.263 1.217 1.2049 1.2864 1.4446 1.5258 1.4538 1.2985 1.2556 1.2798
2343.708 1.2372 1.1697 1.2706 1.4016 1.1605 1.1429 1.1658 1.1581 1.2704 1.2468
2362.998 1.4467 1.6095 1.4057 1.4374 1.6189 1.4995 1.3266 1.4614 1.2729 1.0764
2382.288 1.3717 1.337 1.161 1.2135 1.2664 1.1519 1.1145 1.1534 1.2247 1.2753
2401.578 1.1067 1.1052 1.1894 1.2696 1.4722 1.5458 1.6216 1.6711 1.5308 1.2438
2420.867 0.99792 1.057 1.2944 1.1532 1.01404 1.1694 1.2159 1.2765 1.253 1.2929
2440.157 1.4648 1.4541 1.267 1.3238 1.4685 1.5221 1.4252 1.3204 1.3833 1.2092
2459.447 1.149 1.2219 1.2991 1.5627 1.7095 1.7156 1.7488 1.5129 1.2276 1.4202
2478.737 1.6396 1.5534 1.4255 1.3753 1.1868 1.2702 1.5335 1.5279 1.4646 1.4465
2498.026 1.4693 1.5081 1.4981 1.4678 1.5757 1.521 1.3873 1.2299 1.0305 1.2208
2517.316 1.4322 1.4601 1.3559 1.3988 1.4895 1.3243 1.5077 1.4286 1.333 1.4901
2536.606 1.6991 1.6812 1.5181 1.8107 2.025 2.005 1.836 1.8799 1.7481 1.6091
2555.896 1.5826 1.5571 1.8619 2.025 2.085 2.115 2.065 2.005 2.055 2.275
2575.186 2.375 2.215 2.215 2.235 2.285 2.565 2.615 2.735 3.025 2.885
2594.475 2.595 2.645 2.735 2.725 2.945 3.075 2.755 2.475 2.625 2.805
2613.765 2.925 2.905 2.745 2.625 2.705 2.785 2.595 2.665 2.725 2.775
2633.055 2.915 2.595 2.535 2.655 2.525 2.735 3.065 3.295 3.285 3.215
2652.345 3.375 3.565 3.665 3.605 3.775 3.785 3.705 3.755 3.625 3.775
2671.634 4.075 4.115 4.005 4.165 4.275 4.185 4.495 4.885 5.005 5.135
2690.924 5.335 5.575 5.865 5.875 5.815 6.095 6.295 6.265 6.435 6.765
2710.214 6.825 6.785 6.965 7.075 6.985 6.935 6.835 6.935 6.995 6.655
2729.504 6.705 6.705 6.575 6.565 6.375 6.205 5.995 5.975 5.775 5.375
2748.794 5.665 6.195 6.385 6.735 7.175 7.635 8.165 8.625 9.085 9.785
2768.083 10.635 11.255 12.185 13.465 14.575 15.805 17.155 18.185 19.615 20.955
2787.373 21.765 22.815 23.795 24.235 24.775 25.485 25.665 25.955 26.195 26.075
2806.663 25.775 25.405 25.175 24.895 24.595 24.105 23.345 22.535 21.515 20.175
2825.953 18.765 17.445 16.145 15.215 14.385 13.655 13.715 13.885 13.955 14.425
2845.242 15.205 16.635 18.055 19.905 22.085 24.495 27.205 28.745 29.535 29.915
2864.532 29.585 28.635 27.275 25.195 22.855 20.725 18.745 17.155 15.895 14.825
2883.822 14.145 13.995 13.775 13.515 13.435 13.555 14.075 14.665 15.125 15.925
2903.112 16.925 17.985 19.195 21.015 23.765 26.805 29.895 33.475 37.365 41.725
2922.401 46.675 52.535 58.755 64.995 71.905 79.835 89.515 99.735 108.445 113.705
2941.691 116.155 116.935 115.575 111.695 104.775 94.325 81.675 69.315 58.565 49.135
2960.981 40.375 32.205 25.035 19.205 15.135 12.625 11.135 9.765 8.375 7.645
2980.271 7.285 7.085 7.015 7.135 7.475 7.575 7.435 7.515 7.735 7.805
2999.561 7.895 8.245 8.385 8.245 8.215 8.595 8.915 8.685 9.015 9.605
3018.850 9.815 10.265 11.035 11.665 12.375 13.255 13.995 14.335 14.825 15.575
3038.140 15.575 15.955 16.275 16.475 17.255 17.955 18.475 18.275 17.905 17.715
3057.430 17.215 15.915 14.505 13.275 11.845 10.675 9.625 8.895 8.535 8.185
3076.720 8.545 9.355 9.975 10.225 9.905 9.745 9.475 8.755 7.585 6.895
3096.009 6.295 5.005 4.245 3.605 3.065 2.765 2.485 2.055 1.935 2.095
3115.299 1.8475 1.6949 1.9105 1.955 1.6394 1.3949 1.2078 1.2836 1.7244 2.035
3134.589 1.8049 1.985 1.955 1.8189 1.8819 1.7456 1.7223 1.6772 1.6376 1.5677
3153.879 1.925 2.005 1.5344 1.1945 1.3442 1.3359 1.1565 1.3031 1.5639 1.5598
3173.169 1.1995 0.9027 1.4369 1.4736 1.3305 1.6439 1.5806 1.5259 1.387 1.1829
3192.458 0.778 0.8888 1.0679 0.923696 1.0821 1.0199 1.0855 1.2917 0.98533 0.813
3211.748 0.803 0.491 0.388 0.564 0.656 0.93848 1.1362 1.1142 1.1051 1.2395
3231.038 1.36 1.2257 1.0527 1.0623 0.693 0.602 0.804 0.758 0.8836 0.8404
3250.328 0.95365 0.9018 0.8446 0.68 0.622 0.8739 0.8343 0.99147 1.2522 1.25
3269.617 0.92961 1.1138 1.4086 1.01116 0.531 0.534 0.98343 1.0954 1.1316 1.0662
3288.907 0.804 0.525 0.637 1.1422 0.8354 0.811 1.2056 1.2378 1.3298 1.2406
3308.197 1.2578 1.134 1.0915 1.267 1.1022 0.595 0.598 0.8572 0.8449 0.727
3327.487 0.91182 1.3015 0.94562 0.75 0.8554 0.815 0.8465 0.795 0.797 0.8654
3346.777 1.1328 0.8396 0.392 0.44 0.51 0.549 0.321 0.203 0.485 0.812
3366.066 0.893 1.1406 1.0328 0.919382 0.8275 0.595 0.64 0.639 0.631 0.748
3385.356 0.71 0.567 0.95308 1.2214 1.0778 0.93695 0.95062 0.95905 0.704 0.411
3404.646 0.8963 1.4251 0.97226 0.416 0.692 1.0675 0.8209 0.695 0.559 0.363
3423.936 0.448 0.72 0.707 0.609 1.00934 1.1818 1.1283 1.2369 1.0863 0.90781
3443.225 0.704 1.0287 1.1799 0.8376 0.46 0 0.433 0.8211 0.9365 0.96539
3462.515 0.693 0.616 0.652 0.704 1.0238 1.1595 0.8769 0.8591 0.98202 0.8733
3481.805 0.94497 1.1942 1.0602 0.94002 0.5 0.555 0.98817 0.94893 0.97464 1.0564
3501.095 1.0771 0.9008 0.467 0.097 0.684 0.8225 0.489 0.8464 0.97162 0.8275
3520.385 0.525 0.598 0.719 0.738 0.779 0.8856 0.799 0.58 0.95648 1.00725
3539.674 1.0445 1.01304 1.0604 1.047 1.0539 1.2673 0.79 0.757 1.1657 0.8635
3558.964 0.416 0.527 0.96918 0.91123 0.635 0.265 0.263 0.616 0.552 0.401
3578.254 0.55 0.828 0.624 0.432 0.566 0.86 0.517 0.44 0.8268 0.8665
3597.544 1.1154 1.3753 1.2358 0.8879 0.601 0.752 0.8283 0.752 1.0591 0.9035
3616.833 0.607 0.8285 0.822 0.585 0.751 0.65 0.371 0.496 0.792 0.8359
3636.123 0.772 0.8511 0.728 0.77 0.814 0.799 0.639 0.069 0.312 0.97507
3655.413 1.1003 1.3195 1.3737 1.2338 1.3861 1.664 1.5717 1.3568 1.0155 1.0172
3674.703 1.3727 0.94031 0.914173 1.1336 1.2252 1.274 0.8981 1.1732 1.7054 1.1525
3693.993 0.256 0.364 1.1255 1.1668 1.0564 0.99599 0.637 0.37 0.338 0.606
3713.282 0.838 0.8833 0.713 0.651 0.46 0.75 1.0589 0.864 0.8358 0.708
3732.572 0.797 1.0989 0.8751 0.244 0.391 0.668 0.487 0.645 0.99775 1.0256
3751.862 0.99104 0.762 0.617 1.069 1.00892 0.569 0.748 0.811 0.8244 0.99731
3771.152 0.99588 1.2648 1.103 0.665 0.534 0.813 1.1184 0.727 0.375 0.727
3790.441 0.93022 0.879 0.8702 0.779 1.0658 1.3112 1.1184 1.2349 1.1489 0.562
3809.731 0.667 0.579 1.0718 1.848 1.1788 0.601 0.572 0.629 0.773 0.99224
3829.021 1.1111 1.2046 1.4298 1.1781 0.607 0.98122 1.1965 1.0423 1.1078 0.814
3848.311 0.8641 1.5685 1.5307 1.4692 1.7851 1.8859 1.6189 1.1058 1.1744 1.1859
3867.601 1.0154 0.77 0.712 0.517 0.605 1.0152 1.0731 0.97632 1.1772 1.3236
3886.890 0.9592 1.00274 1.2535 1.2832 1.0907 0.8577 0.793 0.90572 0.8453 0.529
3906.180 0.678 0.918807 1.00228 1.0498 0.97924 0.823 0.8173 0.8838 0.8951 1.0936
3925.470 1.0323 1.00066 0.8357 0.687 0.8624 0.9347 1.2843 0.8985 0.736 0.787
3944.760 0.66 1.0567 0.813 0.431 0.704 1.141 1.2754 1.2393 1.4508 1.8447
3964.049 2.085 1.6602 1.2259 1.00875 0.56 0.814 0.8942 0.401 0.813 1.3248
3983.339 0.666 0.426 0.691 0.605 0.807 1.2622 1.555 1.0527 0.592 0.9016
##END=
