##TITLE=Terbufos
##JCAMP-DX=4.24
##DATA TYPE=INFRARED SPECTRUM
##ORIGIN=NIST Mass Spectrometry Data Center
##OWNER=NIST Standard Reference Data Program
Collection (C) 2018 copyright by the U.S. Secretary of Commerce
on behalf of the United States of America. All rights reserved.
##CAS REGISTRY NO=13071-79-9
##MOLFORM=C 9 H 21 O 2 P S 3
##$NIST SOURCE=MSDC-IR
##SPECTROMETER/DATA SYSTEM=HP-GC/MS/IRD
##STATE=gas
##XUNITS=1/CM
##YUNITS=ABSORBANCE
##XFACTOR=1.0
##YFACTOR=0.000005400
##DELTAX=4.0
##FIRSTX=550.0
##LASTX=3846.0
##FIRSTY=0.003348
##MAXX=3846
##MINX=550
##MAXY=0.054
##MINY=0
##NPOINTS=825
##XYDATA=(X++(Y..Y))
550.0 620 365 176 106 99 96 77 80 58 53
590.0 41 22 7 11 37 68 109 168 262 392
630.0 571 833 1235 1789 2529 3411 4184 4506 4161 3328
670.0 2444 1792 1367 1079 874 697 546 430 360 339
710.0 351 396 461 556 647 700 678 606 553 518
750.0 527 597 720 902 1112 1339 1566 1778 2003 2218
790.0 2381 2484 2535 2534 2483 2357 2147 1880 1589 1323
830.0 1073 876 691 516 391 294 237 202 182 168
870.0 168 171 174 190 219 249 274 324 393 469
910.0 572 709 904 1161 1504 1974 2586 3363 4230 5028
950.0 5543 5594 5207 4535 3749 2994 2363 1912 1654 1558
990.0 1610 1823 2220 2849 3780 5046 6571 8149 9400 10000
1030.0 9891 9298 8561 7879 7216 6473 5640 4780 3963 3248
1070.0 2687 2294 2030 1864 1785 1773 1744 1609 1402 1206
1110.0 1052 960 908 878 886 918 993 1083 1193 1307
1150.0 1431 1531 1598 1654 1689 1665 1582 1474 1339 1220
1190.0 1139 1075 967 809 644 492 378 300 217 149
1230.0 116 102 84 66 59 58 69 70 64 66
1270.0 80 77 78 84 81 83 90 90 94 97
1310.0 92 82 72 66 65 74 85 101 128 168
1350.0 227 312 433 608 815 959 971 929 969 1115
1390.0 1266 1287 1116 842 608 468 390 344 326 320
1430.0 324 341 375 428 484 530 575 633 681 685
1470.0 678 666 614 500 372 275 210 166 137 112
1510.0 90 75 60 50 43 38 33 30 28 18
1550.0 8 7 7 9 7 5 2 6 2 3
1590.0 5 6 8 8 9 12 12 10 10 9
1630.0 6 7 6 3 1 0 2 8 15 17
1670.0 17 23 31 30 32 39 46 49 51 55
1710.0 55 57 58 57 56 53 50 49 50 48
1750.0 47 46 47 50 53 54 55 59 66 75
1790.0 79 86 93 98 102 106 111 112 111 108
1830.0 108 100 89 81 76 70 64 55 48 40
1870.0 35 33 32 31 31 24 18 19 19 15
1910.0 9 10 17 16 17 22 21 20 18 17
1950.0 14 11 10 11 11 10 9 8 7 8
1990.0 5 5 6 3 2 3 5 9 6 7
2030.0 10 12 12 7 7 10 10 11 13 12
2070.0 11 11 10 10 17 19 18 19 21 22
2110.0 21 21 19 17 21 19 18 24 23 17
2150.0 15 18 20 22 24 24 21 22 25 23
2190.0 24 24 20 20 18 16 16 20 19 14
2230.0 9 12 13 12 14 18 15 13 16 17
2270.0 15 13 13 17 18 17 20 22 22 20
2310.0 19 19 18 21 23 21 18 20 21 21
2350.0 20 21 20 16 17 19 17 19 21 23
2390.0 24 24 24 24 20 21 24 24 17 17
2430.0 16 14 20 21 22 21 20 24 24 23
2470.0 21 21 24 23 18 16 16 17 14 11
2510.0 9 13 11 8 9 9 10 7 11 20
2550.0 20 19 22 20 23 29 28 26 34 37
2590.0 31 31 37 38 34 29 30 29 25 28
2630.0 27 21 20 24 31 33 29 25 27 31
2670.0 28 30 32 32 36 37 33 35 36 38
2710.0 45 54 65 73 82 86 76 67 71 76
2750.0 78 86 86 91 94 94 103 109 112 111
2790.0 111 110 112 122 130 139 146 156 167 175
2830.0 193 218 239 264 290 338 421 518 643 802
2870.0 949 1069 1141 1166 1179 1208 1283 1413 1601 1778
2910.0 1847 1801 1743 1786 1941 2178 2458 2714 2876 2890
2950.0 2763 2638 2719 3058 3461 3658 3622 3543 3434 3150
2990.0 2697 2219 1799 1428 1124 908 759 641 529 442
3030.0 372 309 261 222 200 178 160 157 143 123
3070.0 114 107 105 103 98 91 84 85 90 85
3110.0 80 79 79 77 78 80 83 80 76 82
3150.0 81 68 71 77 73 74 82 80 81 81
3190.0 78 72 71 81 77 67 75 81 68 60
3230.0 62 65 61 52 49 50 52 49 43 42
3270.0 44 38 29 31 38 38 38 30 19 19
3310.0 23 25 32 27 27 26 27 36 30 26
3350.0 25 24 33 27 20 32 39 37 38 41
3390.0 35 24 21 23 28 27 24 28 25 16
3430.0 17 16 16 15 15 22 14 14 13 5
3470.0 14 27 26 23 23 16 15 15 15 17
3510.0 13 13 10 6 19 19 13 20 16 13
3550.0 22 24 11 11 11 8 18 26 27 25
3590.0 16 8 10 13 16 14 15 17 19 14
3630.0 8 8 13 15 15 17 15 10 7 12
3670.0 18 16 13 20 24 20 22 22 24 24
3710.0 19 21 24 13 10 19 28 16 9 10
3750.0 9 22 26 17 23 35 32 27 19 14
3790.0 17 22 18 19 21 17 21 20 9 12
3830.0 24 34 31 19 20
##END=
