##TITLE=3-Chlorophenethylamine
##JCAMP-DX=4.24
##DATA TYPE=INFRARED SPECTRUM
##ORIGIN=EPA-IR VAPOR PHASE LIBRARY
##OWNER=SRD/NIST
Collection (C) 2018 copyright by the U.S. Secretary of Commerce
on behalf of the United States of America. All rights reserved.
##CAS REGISTRY NO=13078-79-0
##MOLFORM=C 8 H 10 Cl N
##$NIST SOURCE=MSDC-IR
##STATE=gas
##XUNITS=1/CM
##YUNITS=ABSORBANCE
##XFACTOR=1.
##YFACTOR=0.001
##DELTAX=1.92898
##FIRSTX=549.8
##LASTX=4000.7
##FIRSTY=3.4022
##MAXX=4000.7
##MINX=549.759
##MAXY=0.0671622
##MINY=0
##NPOINTS=1790
##XYDATA=(X++(Y..Y))
549.759 3.4022 3.2322 3.0922 2.9522 3.0222 3.3322 3.7622 3.7322 3.4722 3.6922
569.049 3.7522 3.5122 3.6522 3.8722 4.0522 4.0022 4.1322 4.4722 4.6322 4.7922
588.339 4.8122 4.8922 5.0422 5.2222 5.6222 5.8822 5.8622 6.0022 6.2022 6.1822
607.628 6.1022 5.9122 5.6922 5.6022 5.4122 5.2622 5.2722 5.3122 5.3322 5.4222
626.918 5.5622 5.5422 5.6022 5.7422 5.8722 6.0222 6.0422 6.2122 6.5122 6.6522
646.208 6.7222 6.9122 7.3522 7.6022 7.7122 8.3122 9.0222 9.5622 10.3622 11.2822
665.498 12.2022 13.6922 15.5022 17.8622 20.8622 23.6322 25.9422 28.1222 30.4722 32.9422
684.787 35.1822 36.5722 37.2122 37.7922 38.2222 37.5922 35.9822 34.4422 32.9422 31.0322
704.077 28.8422 26.8422 24.8622 22.8022 21.1822 20.2522 19.7722 19.4622 19.4222 19.6822
723.367 20.1722 20.7522 21.4922 22.3222 23.2622 24.5922 26.0022 27.2522 28.7022 30.3922
742.657 32.1922 34.2422 36.3922 38.5622 40.9522 43.5922 46.3422 49.3722 52.3422 55.1422
761.947 57.8622 60.2122 62.3022 64.0522 65.4522 66.4222 67.1622 66.9822 64.7722 60.9622
781.236 56.4522 51.6322 47.0622 43.0422 39.0822 35.1822 31.6622 28.5722 26.2422 24.6422
800.526 23.3622 22.3622 21.6522 21.3522 21.2322 20.9922 20.6122 20.3322 20.0822 19.5922
819.816 18.8922 17.8822 16.8822 15.8822 14.9722 14.3522 13.5822 13.0822 12.6022 11.9622
839.106 11.7622 11.5422 11.3222 11.2122 11.1922 11.2622 11.4422 11.7422 12.1622 12.6222
858.395 12.8722 13.2322 13.7122 14.1322 14.3622 14.4222 14.4722 14.5022 14.6622 14.8322
877.685 14.9922 15.0722 14.9822 14.7322 14.3622 13.8722 13.0922 12.3122 11.4622 10.5622
896.975 9.7022 8.7922 8.1922 7.5422 6.8722 6.5522 6.2522 6.0822 6.0422 6.0322
916.265 5.9822 5.8922 6.0622 6.2122 6.2322 6.1822 5.9822 5.8822 5.7422 5.5622
935.555 5.3422 5.1122 4.9222 4.8522 4.8022 4.7022 4.6022 4.4522 4.4722 4.5922
954.844 4.5722 4.4522 4.4422 4.6222 4.8322 4.8922 4.9422 5.1622 5.2922 5.4122
974.134 5.5822 5.7222 5.9222 6.1722 6.6022 6.9122 7.1422 7.7422 8.1822 8.3822
993.424 8.6422 8.8122 8.8122 8.9922 9.0722 8.9922 8.8222 8.5322 8.0322 7.2422
1012.714 6.9722 7.0022 6.9122 6.7222 6.6822 6.6522 6.4822 6.6722 6.9022 6.7122
1032.003 6.8122 7.0322 7.1722 7.5222 7.6722 7.9622 8.6422 9.2922 9.7822 10.5022
1051.293 11.5422 12.5922 14.0422 15.7622 17.4022 19.3622 21.8822 24.5722 26.7822 29.0622
1070.583 31.2122 32.7522 34.0122 34.5522 34.5622 34.3922 34.0322 33.5522 32.4722 30.6522
1089.873 28.6122 26.5222 24.6622 22.7122 20.8122 18.7622 16.6122 14.7922 13.0022 11.3622
1109.163 9.8122 8.4722 7.3022 6.5722 5.8122 4.9622 4.5422 4.5622 4.4322 4.0122
1128.452 3.6822 3.2922 3.1522 3.3022 3.2122 3.1422 2.9622 2.8422 2.9922 2.9622
1147.742 3.0422 3.0022 2.6322 2.7022 2.7722 2.7222 2.7822 2.7222 2.9522 3.0222
1167.032 2.9122 3.0022 3.0722 3.2222 3.1922 3.2122 3.5422 3.7622 4.2322 4.7922
1186.322 5.4422 6.3022 6.7922 7.4822 8.3222 9.0722 9.9522 10.6122 10.8322 10.9922
1205.611 11.1622 11.0822 10.7422 10.1122 9.3722 8.6422 8.0122 7.3322 6.8222 6.5022
1224.901 5.8222 5.3322 4.8922 4.6222 4.5022 4.1022 3.9222 3.7322 3.3322 3.0922
1244.191 3.0322 3.1922 3.2222 3.0722 3.0822 3.1022 3.1322 3.0622 2.9322 3.0322
1263.481 3.2622 3.4122 3.7122 3.7622 3.5722 3.5222 3.5922 3.8022 3.6922 3.7122
1282.771 3.9422 4.0422 4.0522 4.0822 4.2022 4.2422 4.2622 4.3022 4.3822 4.3222
1302.060 4.2422 4.1122 3.9822 4.0122 3.8822 3.7922 3.8822 3.8922 3.9422 4.0022
1321.350 4.1222 4.3722 4.4922 4.5822 4.7822 5.0222 5.1522 5.2622 5.4222 5.5722
1340.640 5.6422 5.8222 6.0322 6.1722 6.4122 6.6922 6.9422 7.1622 7.3922 7.6322
1359.930 7.8422 7.9822 8.1122 8.2822 8.4822 8.7322 9.0122 9.3022 9.5022 9.6722
1379.219 9.8422 9.9222 9.9322 9.8422 9.7222 9.5422 9.2622 9.0122 8.7722 8.5822
1398.509 8.4322 8.3522 8.3822 8.5022 8.7622 9.0922 9.5622 10.2522 11.1222 12.1922
1417.799 13.3622 14.6022 15.8122 16.8122 17.5422 17.9422 18.0422 17.9222 17.6522 17.1122
1437.089 16.1722 15.1122 14.1222 13.2222 12.5222 11.9722 11.6022 11.4722 11.5622 11.9222
1456.378 12.6722 13.8622 15.4622 17.5422 20.0322 22.7822 25.6322 28.2622 30.4622 31.9822
1475.668 32.5622 32.2022 30.9522 28.8722 26.2022 23.2022 20.0322 17.0222 14.4722 12.3522
1494.958 10.6222 9.2922 8.2222 7.4122 6.7422 6.1822 5.6722 5.2122 4.8422 4.4722
1514.248 4.1522 3.9022 3.7722 3.7122 3.5922 3.5222 3.5622 3.5422 3.7022 3.9422
1533.538 4.1422 4.3922 4.6522 5.0322 5.4622 6.0322 6.7122 7.4122 8.3122 9.4322
1552.827 10.8222 12.4522 14.3222 16.5622 19.0422 21.6222 24.2422 26.7422 28.9522 30.7322
1572.117 31.9822 32.7822 33.2522 33.3722 33.1622 32.9422 33.1422 33.9022 35.6222 38.0822
1591.407 40.4022 42.0222 42.5522 41.9122 40.1922 37.6222 34.2522 30.2522 26.0322 22.1222
1610.697 19.0922 16.9922 15.6422 14.8422 14.3222 13.9622 13.7022 13.4022 13.0122 12.4422
1629.986 11.7522 11.0122 10.2522 9.4322 8.5922 7.8322 7.1022 6.4922 5.9522 5.4922
1649.276 5.0822 4.7322 4.4822 4.2022 4.0422 3.9622 3.9222 3.8622 3.7822 3.7322
1668.566 3.6422 3.5322 3.3522 3.2022 3.0622 2.8522 2.6522 2.4722 2.3122 2.1122
1687.856 1.9222 1.7822 1.6922 1.6622 1.6722 1.6022 1.5022 1.4822 1.5022 1.5022
1707.146 1.4922 1.4822 1.4722 1.5622 1.6122 1.6322 1.6522 1.7022 1.7822 1.8922
1726.435 1.9222 1.8922 1.9722 2.1522 2.2722 2.2922 2.3822 2.4622 2.4422 2.4822
1745.725 2.5122 2.5322 2.5122 2.4822 2.4622 2.4722 2.5122 2.5322 2.5522 2.5022
1765.015 2.4322 2.3922 2.4322 2.4822 2.4922 2.4022 2.3522 2.4022 2.4722 2.4622
1784.305 2.4422 2.4522 2.3822 2.3022 2.2622 2.2322 2.1222 2.0222 1.9322 1.8122
1803.594 1.7222 1.6522 1.6222 1.5722 1.4922 1.4922 1.5022 1.5322 1.5222 1.4622
1822.884 1.4722 1.4922 1.5222 1.5122 1.4922 1.5622 1.6022 1.6122 1.6822 1.7722
1842.174 1.8922 2.0022 2.1422 2.3222 2.4822 2.6822 2.8422 2.8822 2.8322 2.7222
1861.464 2.6622 2.5122 2.2422 2.0022 1.7622 1.4822 1.3222 1.2022 1.0693 0.9766
1880.754 0.8768 0.8355 0.8289 0.8005 0.7978 0.7372 0.6857 0.7414 0.7517 0.7105
1900.043 0.7201 0.721 0.7546 0.8672 0.8974 1.0043 1.1922 1.3122 1.4522 1.5622
1919.333 1.6722 1.8322 1.9522 2.0022 2.0322 2.0422 1.9622 1.9022 1.8322 1.6822
1938.623 1.4922 1.2722 1.1522 0.9992 0.8003 0.7204 0.6615 0.5512 0.5127 0.5343
1957.913 0.5212 0.5054 0.4733 0.4226 0.425 0.4536 0.4699 0.5071 0.5496 0.4992
1977.202 0.3559 0.2868 0.3504 0.4166 0.3944 0.3755 0.3441 0.3205 0.2963 0.2735
1996.492 0.2574 0.2874 0.3291 0.2885 0.274 0.294 0.2602 0.2697 0.3272 0.2708
2015.782 0.3025 0.372 0.3183 0.271 0.2263 0.2438 0.2581 0.259 0.2768 0.3247
2035.072 0.3431 0.2993 0.3272 0.3099 0.2696 0.2875 0.2733 0.2771 0.34 0.3765
2054.362 0.3454 0.3417 0.353 0.3942 0.4282 0.3535 0.2912 0.294 0.2978 0.3612
2073.651 0.4111 0.3824 0.3206 0.2786 0.2961 0.3046 0.3156 0.3187 0.3404 0.3587
2092.941 0.2912 0.2588 0.3054 0.2708 0.2433 0.272 0.2499 0.2209 0.2814 0.3007
2112.231 0.2042 0.1783 0.2229 0.2499 0.2654 0.2174 0.14286 0.1884 0.3013 0.3281
2131.521 0.2885 0.2618 0.3077 0.3729 0.3424 0.2392 0.2125 0.2964 0.2666 0.1899
2150.810 0.175 0.2135 0.2688 0.2501 0.2585 0.3034 0.2803 0.2504 0.3199 0.3673
2170.100 0.313 0.2915 0.3183 0.3364 0.3456 0.3222 0.3409 0.3476 0.351 0.3384
2189.390 0.2977 0.3277 0.3499 0.3361 0.352 0.3423 0.3224 0.3224 0.3046 0.3241
2208.680 0.3501 0.315 0.3256 0.3446 0.3114 0.2571 0.267 0.3183 0.3223 0.3356
2227.970 0.2937 0.2739 0.3028 0.3024 0.3085 0.3134 0.3717 0.4152 0.3864 0.4041
2247.259 0.411 0.3836 0.3864 0.4319 0.4063 0.3633 0.3455 0.3213 0.3434 0.3493
2266.549 0.3185 0.3365 0.3764 0.3272 0.2967 0.3295 0.3463 0.3849 0.367 0.3547
2285.839 0.3448 0.2715 0.2849 0.333 0.3149 0.2928 0.2444 0.2181 0.2424 0.2164
2305.129 0.1995 0.2607 0.3383 0.3221 0.3238 0.3482 0.3808 0.4221 0.3771 0.3583
2324.418 0.4342 0.4983 0.504 0.4823 0.4734 0.5019 0.5541 0.5526 0.5004 0.5031
2343.708 0.5325 0.4336 0.3273 0.3452 0.3407 0.3311 0.3734 0.4361 0.4259 0.3523
2362.998 0.3922 0.4353 0.4356 0.4444 0.4453 0.4805 0.4524 0.442 0.4651 0.4341
2382.288 0.4079 0.372 0.3626 0.4009 0.4308 0.4271 0.4025 0.4524 0.4321 0.4157
2401.578 0.432 0.3652 0.342 0.3331 0.3516 0.3601 0.333 0.332 0.3746 0.3236
2420.867 0.2663 0.3094 0.3352 0.3251 0.244 0.2347 0.3005 0.3407 0.38 0.3404
2440.157 0.259 0.1818 0.2013 0.2455 0.2932 0.3335 0.2979 0.2849 0.2746 0.332
2459.447 0.3688 0.3724 0.3734 0.3562 0.3334 0.2957 0.322 0.3435 0.3256 0.3995
2478.737 0.4298 0.3654 0.3456 0.4286 0.4268 0.3639 0.4332 0.4094 0.378 0.3891
2498.026 0.3503 0.3939 0.402 0.3538 0.3823 0.4085 0.4244 0.4392 0.4734 0.4913
2517.316 0.4153 0.3902 0.4478 0.431 0.3462 0.3653 0.3956 0.4564 0.5564 0.5531
2536.606 0.5069 0.4647 0.4495 0.4969 0.5903 0.6104 0.5661 0.5468 0.5442 0.5462
2555.896 0.55 0.5668 0.6088 0.6049 0.5702 0.4974 0.5055 0.5664 0.5724 0.591
2575.186 0.5626 0.581 0.6235 0.5623 0.5543 0.5862 0.5776 0.6499 0.7242 0.6766
2594.475 0.7154 0.7737 0.6962 0.7242 0.7504 0.7388 0.7743 0.7523 0.7115 0.6311
2613.765 0.6084 0.7005 0.706 0.7523 0.7986 0.7833 0.8397 0.8537 0.8834 0.8876
2633.055 0.879 0.9875 1.024 0.991 1.0331 1.1222 1.1522 1.1822 1.2322 1.1922
2652.345 1.1522 1.1522 1.2022 1.2322 1.3322 1.3422 1.2722 1.3122 1.3122 1.2622
2671.634 1.2422 1.2722 1.2622 1.2822 1.3322 1.3522 1.3222 1.4022 1.3822 1.3422
2690.924 1.4222 1.4722 1.5222 1.5622 1.6022 1.5922 1.6522 1.7222 1.6622 1.6222
2710.214 1.7122 1.6922 1.6522 1.7422 1.7822 1.7822 1.8122 1.8622 1.8822 1.9322
2729.504 2.0622 2.1722 2.2322 2.2522 2.2422 2.2822 2.3722 2.4422 2.5222 2.4822
2748.794 2.4122 2.4322 2.3922 2.2922 2.2822 2.3822 2.4322 2.3522 2.3022 2.3222
2768.083 2.2822 2.2522 2.3022 2.3622 2.3522 2.3522 2.3522 2.3522 2.3522 2.3222
2787.373 2.4022 2.5322 2.6222 2.6322 2.6222 2.6722 2.7722 2.9922 3.1122 3.1722
2806.663 3.3222 3.4522 3.5122 3.6922 3.8822 4.0522 4.4122 4.6822 4.9322 5.2922
2825.953 5.6722 6.1322 6.7622 7.3222 7.9622 8.8522 9.7522 10.7822 11.9222 13.2122
2845.242 14.6222 16.1522 17.6522 18.9222 20.2422 21.5622 22.6322 23.4222 23.9322 24.1122
2864.532 24.0122 23.7422 23.3922 22.9622 22.4222 21.9422 21.5222 20.9422 20.1522 19.4222
2883.822 18.7822 18.1122 17.5122 17.1822 16.9322 16.5722 16.3822 16.4722 16.6622 17.1722
2903.112 18.0422 19.0122 20.1522 21.4922 23.1022 24.9322 26.7022 28.5022 30.3422 32.0522
2922.401 33.6522 35.1422 36.4922 37.7622 39.0522 40.1922 41.1622 42.3222 43.4222 44.1322
2941.691 44.3622 44.0422 43.1922 41.8222 39.9722 37.5322 34.4422 31.2822 28.0922 24.7522
2960.981 21.7622 19.0822 16.6022 14.4522 12.5822 11.0922 9.9022 8.8922 7.9822 7.2222
2980.271 6.5922 6.1122 5.6022 5.1622 4.8722 4.5422 4.3022 4.0922 4.0022 4.0122
2999.561 3.9722 3.8322 3.8822 4.1222 4.3022 4.5722 4.8822 5.1622 5.4622 5.8322
3018.850 6.1322 6.4322 6.7322 7.0422 7.2622 7.3622 7.5422 7.7122 7.8622 7.9222
3038.140 8.0222 8.1822 8.2522 8.3022 8.4822 8.7522 9.1222 9.5322 10.1022 10.6922
3057.430 11.2322 11.8322 12.4322 12.8722 13.1222 13.3422 13.4422 13.4822 13.4822 13.3322
3076.720 12.8922 12.3022 11.6122 10.9722 10.4622 9.7022 8.7422 7.8622 7.1622 6.5322
3096.009 5.8822 5.2222 4.6022 4.0922 3.5222 2.9222 2.4922 2.0322 1.7022 1.3222
3115.299 1.1522 1.0356 0.7872 0.8387 0.9057 0.8209 0.6594 0.5741 0.6149 0.6542
3134.589 0.5763 0.4805 0.4955 0.5369 0.4959 0.4868 0.5099 0.4917 0.3444 0.4501
3153.879 0.5969 0.4488 0.3812 0.433 0.5446 0.5479 0.4889 0.5351 0.5515 0.5557
3173.169 0.5084 0.4527 0.483 0.4709 0.4563 0.4182 0.4343 0.5583 0.4576 0.231
3192.458 0.2606 0.4067 0.3832 0.4341 0.5017 0.4438 0.4635 0.5042 0.5096 0.4491
3211.748 0.4671 0.5547 0.5128 0.3665 0.2698 0.3525 0.4102 0.3622 0.27 0.2055
3231.038 0.2678 0.249 0.16761 0.186 0.16871 0.2323 0.2862 0.2115 0.2429 0.3162
3250.328 0.3473 0.3656 0.2266 0.2009 0.3442 0.3791 0.366 0.1985 0.11916 0.13672
3269.617 0.11565 0.1931 0.2951 0.3001 0.2027 0.0648 0.12805 0.2874 0.3892 0.3366
3288.907 0.1839 0.2027 0.3423 0.2969 0.2489 0.3821 0.3311 0.2509 0.2273 0.13897
3308.197 0.1739 0.2292 0.2339 0.208 0.2624 0.311 0.4023 0.4867 0.4779 0.458
3327.487 0.4292 0.445 0.3697 0.4108 0.5814 0.749 0.7744 0.7591 0.7216 0.7969
3346.777 0.946 0.9067 0.8741 0.9352 0.8679 0.8234 0.8563 0.7089 0.5206 0.4651
3366.066 0.531 0.4775 0.4194 0.3254 0.2931 0.3282 0.2688 0.3807 0.4916 0.491
3385.356 0.5042 0.4684 0.4266 0.38 0.4264 0.508 0.5252 0.5519 0.6615 0.7705
3404.646 0.7728 0.9519 1.0572 0.9992 0.9441 0.9489 0.9923 0.9084 0.8215 0.7553
3423.936 0.7306 0.7195 0.6199 0.54 0.5189 0.4394 0.3822 0.373 0.3127 0.264
3443.225 0.2354 0.1797 0.2167 0.4607 0.5657 0.4328 0.396 0.286 0.2316 0.3336
3462.515 0.4773 0.4881 0.3158 0.2144 0.3028 0.4497 0.415 0.3929 0.3947 0.4021
3481.805 0.4055 0.2482 0.2676 0.4094 0.3133 0.2451 0.229 0.2127 0.2494 0.2578
3501.095 0.16408 0.13152 0.1852 0.2876 0.4446 0.411 0.13958 0.072011 0.15572 0.09325
3520.385 0.1169 0.2056 0.2399 0.2193 0.215 0.1861 0.11022 0.10708 0.09299 0.10764
3539.674 0.2327 0.2873 0.201 0.2048 0.341 0.3127 0.16246 0.206 0.3123 0.2887
3558.964 0.3174 0.2486 0.1578 0.17196 0.2196 0.3397 0.4742 0.4203 0.2775 0.1993
3578.254 0.2572 0.3397 0.2701 0.1764 0.2167 0.3152 0.2092 0.211 0.3218 0.2275
3597.544 0.11245 0.14414 0.15226 0.1157 0.1933 0.266 0.1775 0.09066 0.12885 0.2521
3616.833 0.2223 0.2292 0.3284 0.2269 0.11953 0.1871 0.201 0.15007 0.1925 0.2513
3636.123 0.2537 0.303 0.3006 0.3103 0.2086 0 0.0251 0.13574 0.2784 0.2886
3655.413 0.256 0.2017 0.12125 0.12468 0.08401 0.074721 0.16713 0.12681 0.2091 0.2871
3674.703 0.2864 0.2724 0.2625 0.2362 0.2495 0.2941 0.2505 0.3823 0.3626 0.1812
3693.993 0.1583 0.3264 0.3809 0.3514 0.2988 0.3078 0.3664 0.3683 0.4451 0.4252
3713.282 0.3669 0.3255 0.392 0.484 0.4989 0.4091 0.3115 0.3263 0.224 0.1931
3732.572 0.2565 0.1831 0.1848 0.4019 0.4188 0.3049 0.3815 0.4691 0.3717 0.1887
3751.862 0.1976 0.2749 0.2677 0.3564 0.3845 0.3318 0.4613 0.5642 0.4546 0.3631
3771.152 0.2826 0.2111 0.3304 0.3713 0.269 0.2335 0.2277 0.2318 0.10835 0.035
3790.441 0.10335 0.0066 0.079757 0.075375 0.0161 0.187 0.0884 0.11293 0.2636 0.1992
3809.731 0.2137 0.2338 0.12939 0.15039 0.1925 0.14048 0.1899 0.162 0.09535 0.2736
3829.021 0.2762 0.12103 0.14796 0.11845 0.1736 0.15931 0.135 0.1787 0.12295 0.3133
3848.311 0.3724 0.2011 0.2316 0.2528 0.1838 0.09401 0.15116 0.2707 0.15165 0.1255
3867.601 0.2337 0.2452 0.2845 0.3752 0.3457 0.2389 0.10641 0.0154 0.14352 0.2264
3886.890 0.2113 0.1974 0.2626 0.2174 0.10652 0.1924 0.3855 0.3684 0.221 0.4083
3906.180 0.3177 0.13592 0.2403 0.2146 0.13015 0.12836 0.11559 0.15923 0.2327 0.302
3925.470 0.3204 0.2241 0.10226 0.12355 0.12789 0.09063 0.2326 0.3967 0.385 0.2389
3944.760 0.12088 0.13358 0.215 0.14422 0.0558 0.1646 0.3092 0.2232 0.2424 0.3573
3964.049 0.2943 0.2745 0.1841 0.1329 0.2653 0.3722 0.3776 0.2267 0.16667 0.2704
3983.339 0.2894 0.3236 0.343 0.2907 0.3001 0.2526 0.1999 0.2933 0.4038 0.356
##END=
