##TITLE=Phenol-d6
##JCAMP-DX=4.24
##DATA TYPE=INFRARED SPECTRUM
##ORIGIN=NIST Mass Spectrometry Data Center
##OWNER=NIST Standard Reference Data Program
Collection (C) 2018 copyright by the U.S. Secretary of Commerce
on behalf of the United States of America. All rights reserved.
##CAS REGISTRY NO=13127-88-3
##MOLFORM=C 6 D 6 O
##$NIST SOURCE=MSDC-IR
##SPECTROMETER/DATA SYSTEM=HP-GC/MS/IRD
##STATE=gas
##XUNITS=1/CM
##YUNITS=ABSORBANCE
##XFACTOR=1.0
##YFACTOR=0.000005600
##DELTAX=4.0
##FIRSTX=550.0
##LASTX=3846.0
##FIRSTY=0.008702
##MAXX=3846
##MINX=550
##MAXY=0.056
##MINY=0
##NPOINTS=825
##XYDATA=(X++(Y..Y))
550.0 1554 2061 1130 1238 1136 914 627 427 350 327
590.0 288 231 213 207 221 244 305 397 422 320
630.0 243 230 186 147 111 71 61 61 51 38
670.0 29 22 23 20 11 16 22 20 16 19
710.0 27 35 56 85 145 264 498 855 1166 1269
750.0 1414 1560 1461 1275 992 662 404 241 155 133
790.0 151 191 251 323 376 346 338 421 462 428
830.0 375 337 288 239 216 167 116 86 81 93
870.0 108 130 173 231 311 400 444 443 447 427
910.0 388 344 252 162 114 99 106 131 159 186
950.0 205 224 239 257 260 233 207 183 168 163
990.0 165 187 273 435 639 766 771 833 816 750
1030.0 692 500 321 231 209 198 200 210 198 183
1070.0 167 132 103 83 66 71 85 101 134 165
1110.0 183 215 256 295 338 386 473 651 1022 1680
1150.0 2691 4054 5701 7392 8613 9425 10000 9699 8968 7806
1190.0 5893 4144 2882 2042 1574 1350 1208 1047 875 721
1230.0 602 529 478 437 407 376 344 325 329 377
1270.0 465 604 800 1024 1205 1310 1349 1332 1290 1218
1310.0 1030 778 598 541 565 638 764 947 1241 1716
1350.0 2366 3048 3549 3819 4059 4177 4294 4461 4301 4067
1390.0 4006 4013 3974 3714 3251 2649 1911 1274 831 542
1430.0 373 285 231 192 171 156 156 165 166 166
1470.0 163 157 149 134 110 98 99 105 113 125
1510.0 133 146 172 215 292 414 612 909 1350 1953
1550.0 2720 3556 4334 4913 5251 5346 5076 4384 3354 2371
1590.0 1760 1388 1098 831 589 398 285 224 190 174
1630.0 158 146 128 105 92 88 88 88 101 122
1670.0 133 137 138 142 139 126 117 102 78 59
1710.0 54 53 47 41 36 34 34 31 30 28
1750.0 28 28 29 29 27 33 36 35 35 37
1790.0 39 36 33 32 28 21 17 10 9 13
1830.0 12 13 12 11 11 13 14 12 8 12
1870.0 15 12 11 10 11 13 12 13 16 23
1910.0 33 42 48 47 49 49 43 37 32 25
1950.0 18 14 13 10 10 11 15 17 21 29
1990.0 32 33 36 39 39 40 34 30 30 29
2030.0 28 26 24 26 29 27 27 28 25 22
2070.0 20 18 18 16 14 11 12 15 16 19
2110.0 18 19 22 23 24 26 30 29 29 31
2150.0 33 32 30 31 32 32 31 35 37 39
2190.0 41 39 43 52 51 53 65 81 96 123
2230.0 158 204 280 368 460 541 624 733 865 1024
2270.0 1156 1234 1298 1356 1370 1323 1230 1089 887 676
2310.0 493 334 229 180 153 143 138 131 118 110
2350.0 114 115 123 129 136 141 143 144 142 142
2390.0 138 131 123 116 109 103 92 78 71 61
2430.0 54 53 47 44 48 44 39 39 38 39
2470.0 42 42 38 33 34 30 29 32 32 34
2510.0 30 23 24 33 39 42 50 53 61 74
2550.0 84 97 106 110 114 112 106 100 85 69
2590.0 60 51 43 38 33 25 23 21 19 16
2630.0 13 17 19 17 17 19 19 20 27 38
2670.0 59 99 162 242 301 322 323 312 307 286
2710.0 212 128 77 57 48 46 44 43 42 38
2750.0 35 32 30 27 25 25 14 11 15 17
2790.0 18 14 13 14 12 10 13 18 19 22
2830.0 20 18 25 26 31 39 38 37 39 41
2870.0 44 43 35 34 35 31 19 14 10 4
2910.0 6 4 4 9 9 9 13 14 8 5
2950.0 0 2 10 9 8 11 8 12 16 12
2990.0 14 13 9 11 16 14 13 12 13 16
3030.0 20 21 23 26 25 27 37 37 36 38
3070.0 35 35 39 42 33 29 30 21 24 31
3110.0 30 29 23 23 27 32 37 31 26 29
3150.0 29 30 38 40 26 20 29 28 23 20
3190.0 15 23 33 35 33 34 40 48 59 59
3230.0 61 61 55 56 51 48 47 39 31 21
3270.0 18 22 23 27 30 24 17 17 15 28
3310.0 31 28 34 32 34 42 50 58 64 77
3350.0 94 80 69 70 67 74 83 90 84 70
3390.0 71 69 66 71 71 65 65 78 79 73
3430.0 70 71 79 84 82 72 64 62 57 56
3470.0 56 56 59 62 63 55 51 53 53 56
3510.0 55 53 50 47 49 50 55 54 54 56
3550.0 53 50 47 49 52 62 69 62 65 72
3590.0 76 89 99 107 126 148 188 251 350 540
3630.0 861 1350 2015 2663 2996 2974 2919 2857 2717 2243
3670.0 1445 798 431 261 179 133 99 86 82 77
3710.0 74 68 61 60 54 55 59 54 57 57
3750.0 52 54 53 54 63 69 68 68 66 70
3790.0 76 78 81 84 85 80 84 93 95 94
3830.0 93 97 95 96 98
##END=
