##TITLE=2,6-Dimethyldecane
##JCAMP-DX=4.24
##DATA TYPE=INFRARED SPECTRUM
##ORIGIN=NIST Mass Spectrometry Data Center
##OWNER=NIST Standard Reference Data Program
Collection (C) 2018 copyright by the U.S. Secretary of Commerce
on behalf of the United States of America. All rights reserved.
##CAS REGISTRY NO=13150-81-7
##MOLFORM=C 12 H 26
##$NIST SOURCE=MSDC-IR
##SPECTROMETER/DATA SYSTEM=HP-GC/MS/IRD
##STATE=gas
##XUNITS=1/CM
##YUNITS=ABSORBANCE
##XFACTOR=1.0
##YFACTOR=0.000004000
##DELTAX=4.0
##FIRSTX=550.0
##LASTX=3846.0
##FIRSTY=0.000040
##MAXX=3846
##MINX=550
##MAXY=0.04
##MINY=0
##NPOINTS=825
##XYDATA=(X++(Y..Y))
550.0 10 19 16 10 24 35 39 54 55 31
590.0 9 7 13 20 25 30 26 26 35 39
630.0 21 0 8 7 5 20 20 27 37 21
670.0 18 16 7 8 10 21 26 30 40 52
710.0 64 70 87 111 115 122 133 125 124 120
750.0 100 84 70 59 57 59 69 77 70 54
790.0 49 54 51 50 55 53 47 46 56 54
830.0 38 38 49 59 65 61 51 47 40 35
870.0 40 40 43 51 57 68 78 79 84 92
910.0 109 120 124 125 116 116 107 97 89 71
950.0 68 69 65 58 54 63 63 57 53 44
990.0 39 45 45 44 43 38 38 43 49 49
1030.0 50 61 70 74 76 78 77 75 74 67
1070.0 61 62 61 56 57 55 53 57 59 49
1110.0 50 57 59 70 90 101 112 131 147 164
1150.0 180 198 213 222 230 217 191 154 124 116
1190.0 110 112 115 108 108 110 116 120 118 117
1230.0 115 114 120 122 121 118 121 122 123 121
1270.0 122 133 141 148 158 163 166 174 184 187
1310.0 193 204 217 237 264 294 323 349 371 385
1350.0 404 433 482 551 637 738 838 918 969 943
1390.0 809 611 431 320 262 233 222 218 225 241
1430.0 272 325 402 503 635 793 957 1132 1260 1298
1470.0 1225 1045 813 601 445 343 274 222 188 163
1510.0 135 116 106 93 83 76 72 71 67 60
1550.0 53 51 53 49 47 48 51 45 40 43
1590.0 44 47 48 39 34 38 42 42 39 36
1630.0 33 34 33 33 35 40 40 35 33 37
1670.0 39 37 38 37 34 32 31 34 34 26
1710.0 24 28 27 20 20 28 28 23 20 16
1750.0 17 16 19 19 16 15 14 12 13 12
1790.0 10 12 15 15 16 16 13 13 12 9
1830.0 9 7 8 13 10 9 11 6 4 9
1870.0 11 10 10 8 6 5 4 3 5 9
1910.0 6 2 4 6 6 8 7 4 2 0
1950.0 4 5 0 1 5 4 3 4 3 4
1990.0 7 3 3 7 7 6 6 4 4 7
2030.0 8 7 6 9 10 7 7 8 8 6
2070.0 5 6 7 8 8 6 3 2 1 3
2110.0 3 3 2 2 5 5 4 1 4 8
2150.0 8 8 5 3 4 9 11 11 9 8
2190.0 6 9 9 7 10 9 5 2 4 6
2230.0 9 8 7 8 10 12 11 8 8 11
2270.0 13 14 16 15 10 14 20 18 18 17
2310.0 11 11 16 18 21 18 16 20 19 20
2350.0 21 22 22 22 22 25 26 26 25 23
2390.0 24 23 22 21 20 23 25 22 23 25
2430.0 24 24 23 22 19 17 18 22 20 19
2470.0 20 24 24 25 30 33 29 25 26 25
2510.0 26 31 36 38 36 37 40 43 46 46
2550.0 47 50 49 51 53 57 64 68 73 75
2590.0 75 81 86 88 90 92 97 96 92 93
2630.0 98 103 108 109 107 105 107 109 113 119
2670.0 123 120 118 121 122 126 132 134 135 137
2710.0 142 149 155 168 180 186 196 206 211 212
2750.0 204 199 197 201 207 216 225 233 252 280
2790.0 299 313 340 372 408 448 493 548 611 682
2830.0 774 903 1091 1370 1760 2223 2683 3081 3417 3733
2870.0 4065 4382 4600 4631 4493 4328 4320 4550 4979 5540
2910.0 6118 6675 7288 8015 8767 9337 9517 9219 8565 7878
2950.0 7557 7910 8885 9871 10000 8817 6750 4661 3131 2218
2990.0 1673 1322 1075 889 752 649 575 511 461 427
3030.0 390 364 342 320 309 290 271 263 251 240
3070.0 234 229 229 225 212 198 185 173 176 174
3110.0 163 158 155 148 139 135 134 131 127 126
3150.0 125 126 122 118 120 117 117 113 111 108
3190.0 98 93 86 75 72 68 62 59 52 48
3230.0 45 33 23 23 31 31 27 22 19 20
3270.0 21 20 21 25 28 26 29 31 27 22
3310.0 20 21 24 24 22 21 24 23 27 31
3350.0 26 25 26 27 26 25 25 19 15 23
3390.0 25 16 14 20 17 16 19 15 13 8
3430.0 5 6 4 7 13 13 11 19 25 23
3470.0 15 10 10 12 8 4 5 7 10 12
3510.0 11 6 9 11 1 1 8 10 3 3
3550.0 5 7 7 8 9 8 9 9 11 14
3590.0 12 11 13 6 6 7 9 17 16 13
3630.0 15 13 15 15 11 14 11 2 6 16
3670.0 16 17 22 21 22 18 13 19 19 20
3710.0 27 28 25 22 25 17 15 21 17 16
3750.0 17 21 32 26 21 25 21 24 34 31
3790.0 26 28 36 34 29 28 27 32 31 27
3830.0 29 28 32 32 27
##END=
