##TITLE=4-Methyl-1-heptene
##JCAMP-DX=4.24
##DATA TYPE=INFRARED SPECTRUM
##ORIGIN=NIST Mass Spectrometry Data Center
##OWNER=NIST Standard Reference Data Program
Collection (C) 2018 copyright by the U.S. Secretary of Commerce
on behalf of the United States of America. All rights reserved.
##CAS REGISTRY NO=13151-05-8
##MOLFORM=C 8 H 16
##$NIST SOURCE=MSDC-IR
##SPECTROMETER/DATA SYSTEM=HP-GC/MS/IRD
##STATE=gas
##XUNITS=1/CM
##YUNITS=ABSORBANCE
##XFACTOR=1.0
##YFACTOR=0.000002800
##DELTAX=4.0
##FIRSTX=550.0
##LASTX=3846.0
##FIRSTY=0.000283
##MAXX=3846
##MINX=550
##MAXY=0.028
##MINY=0
##NPOINTS=825
##XYDATA=(X++(Y..Y))
550.0 101 54 46 35 15 23 29 37 49 37
590.0 40 50 41 72 114 146 162 194 224 226
630.0 230 222 196 164 138 127 99 73 86 101
670.0 76 33 34 54 38 22 16 9 3 21
710.0 33 23 29 60 80 90 107 131 139 135
750.0 127 103 72 46 28 20 18 8 14 29
790.0 18 15 37 49 52 54 50 61 88 114
830.0 116 124 138 165 181 174 184 212 234 245
870.0 263 292 343 411 497 635 847 1143 1537 1935
910.0 2216 2346 2256 1951 1534 1137 857 670 541 474
950.0 463 462 472 483 494 520 581 679 804 926
990.0 1007 1026 973 856 700 549 436 360 304 274
1030.0 261 246 237 229 226 223 210 194 181 164
1070.0 143 128 116 103 95 93 102 106 101 103
1110.0 115 122 121 129 140 163 188 214 243 265
1150.0 276 275 252 211 167 131 103 77 53 47
1190.0 53 56 53 60 72 87 97 99 110 115
1230.0 111 105 110 121 126 130 125 127 130 134
1270.0 137 140 150 156 153 155 154 155 156 159
1310.0 161 161 173 193 214 250 291 322 348 365
1350.0 379 400 432 480 551 650 753 839 884 893
1390.0 831 705 573 473 417 400 405 422 459 514
1430.0 595 709 851 993 1133 1264 1351 1395 1399 1332
1470.0 1213 1046 853 675 516 389 300 237 193 171
1510.0 149 128 118 114 112 108 101 95 97 97
1550.0 91 90 83 77 78 80 79 82 79 73
1590.0 76 83 99 122 139 169 217 284 383 523
1630.0 685 820 883 867 781 609 398 244 165 121
1670.0 94 77 63 58 52 47 47 46 39 29
1710.0 22 25 29 22 11 11 17 18 20 18
1750.0 16 14 15 17 16 12 12 16 18 17
1790.0 21 27 36 47 60 79 115 163 207 236
1830.0 248 240 206 160 118 79 52 35 29 25
1870.0 21 22 23 19 19 20 20 18 16 13
1910.0 12 12 10 4 4 6 5 1 4 5
1950.0 5 9 13 19 20 21 25 24 26 25
1990.0 16 12 9 4 0 0 2 3 4 7
2030.0 9 11 12 8 10 14 10 11 12 8
2070.0 9 9 10 13 10 10 11 11 14 8
2110.0 4 3 5 10 8 7 9 10 14 18
2150.0 15 7 8 12 14 17 18 17 16 17
2190.0 16 16 17 15 14 11 10 9 10 13
2230.0 9 10 17 17 10 9 5 5 10 11
2270.0 13 12 10 15 18 15 12 14 17 19
2310.0 15 14 17 17 19 24 25 26 25 24
2350.0 25 28 33 31 30 31 29 22 23 30
2390.0 30 26 23 20 19 19 20 22 20 22
2430.0 19 15 12 11 12 16 14 16 13 7
2470.0 13 16 14 17 23 25 22 20 21 22
2510.0 25 22 19 21 24 31 33 29 33 41
2550.0 41 41 42 45 50 55 59 61 65 66
2590.0 65 66 65 68 68 67 69 71 76 79
2630.0 72 73 82 83 84 88 88 93 98 104
2670.0 106 106 107 111 113 113 113 111 114 118
2710.0 127 137 143 153 172 190 199 204 213 214
2750.0 208 205 194 198 207 214 222 232 255 283
2790.0 302 317 347 385 426 472 526 591 674 792
2830.0 942 1121 1340 1600 1871 2139 2414 2684 2965 3308
2870.0 3743 4228 4622 4903 5098 5220 5329 5553 5933 6445
2910.0 7011 7525 7905 8146 8247 8210 8057 7803 7522 7356
2950.0 7433 7870 8664 9537 10000 9752 8814 7411 5780 4272
2990.0 3202 2551 2142 1871 1677 1513 1346 1188 1048 924
3030.0 828 763 721 700 692 706 741 804 894 1016
3070.0 1186 1405 1603 1676 1608 1442 1186 864 607 461
3110.0 381 326 283 250 230 225 223 210 193 182
3150.0 182 177 166 163 156 149 144 137 127 123
3190.0 123 108 93 88 85 81 73 70 65 54
3230.0 43 37 42 39 33 39 42 34 34 40
3270.0 41 44 41 33 29 36 39 39 41 35
3310.0 35 32 28 22 21 26 19 26 35 32
3350.0 26 26 28 18 12 14 23 25 20 25
3390.0 24 14 4 8 21 25 22 15 7 15
3430.0 19 15 15 13 11 12 15 18 19 18
3470.0 18 22 18 8 6 8 16 10 11 19
3510.0 13 19 18 9 9 10 10 9 7 3
3550.0 2 6 14 14 14 11 7 6 7 16
3590.0 13 6 8 13 18 17 21 24 22 19
3630.0 25 28 25 23 27 33 28 21 28 28
3670.0 30 35 25 26 27 23 27 32 32 26
3710.0 28 28 22 28 27 20 25 28 36 44
3750.0 43 41 34 30 33 43 49 41 43 43
3790.0 37 34 28 26 23 25 29 33 39 34
3830.0 30 24 27 35 32
##END=
