##TITLE=5-Bromo-2-chlorobenzhydrazide
##JCAMP-DX=4.24
##DATA TYPE=INFRARED SPECTRUM
##ORIGIN=EPA-IR VAPOR PHASE LIBRARY
##OWNER=SRD/NIST
Collection (C) 2018 copyright by the U.S. Secretary of Commerce
on behalf of the United States of America. All rights reserved.
##CAS REGISTRY NO=131634-71-4
##MOLFORM=C 7 H 6 Br Cl N 2 O
##$NIST SOURCE=MSDC-IR
##STATE=gas
##XUNITS=1/CM
##YUNITS=ABSORBANCE
##XFACTOR=1.
##YFACTOR=0.001
##DELTAX=1.929
##FIRSTX=549.8
##LASTX=4000.8
##FIRSTY=1.8
##MAXX=4000.75
##MINX=549.766
##MAXY=0.01751
##MINY=0
##NPOINTS=1790
##XYDATA=(X++(Y..Y))
549.766 1.8 1.91 1.94 1.91 1.97 1.79 1.74 1.92 1.92 2.12
569.056 2.25 2.02 2 1.86 1.85 1.9 1.71 1.75 1.73 1.59
588.346 1.53 1.48 1.38 1.2764 1.319 1.3204 1.3061 1.37 1.2948 1.1922
607.636 1.1157 1.0358 1.1409 1.2592 1.1715 1.0454 0.969 0.9725 0.9778 0.9762
626.926 0.9305 0.9345 0.9904 0.8655 0.7395 0.8107 0.9915 1.0369 1.0094 1.0562
646.216 0.9646 0.8628 0.8986 0.9404 1.0216 1.2003 1.2267 1.2256 1.2098 1.1392
665.506 1.1927 1.2422 1.1409 1.034 1.0227 1.0026 1.0429 1.0489 1.0597 1.0743
684.796 0.9723 0.9977 1.1154 1.0699 0.9831 1.0051 1.0241 0.9765 0.9191 0.9115
704.086 0.9639 1.0032 0.8959 0.8448 0.8792 0.78 0.7927 0.8475 0.818 0.7667
723.376 0.7728 0.7921 0.735 0.8433 0.8921 0.8066 0.8226 0.8594 0.8954 0.9571
742.666 1.0673 1.1485 1.37 1.78 2.21 2.58 2.9 3.04 2.95 2.7
761.956 2.35 2.06 1.87 1.74 1.69 1.55 1.38 1.3359 1.3155 1.3161
781.246 1.3087 1.2519 1.2074 1.2099 1.1932 1.2843 1.3413 1.4 1.52 1.7
800.536 2.07 2.62 3.3 4.18 4.98 5.8 6.96 7.74 7.26 6.06
819.826 5.41 4.63 3.76 3.12 2.5 2.14 1.91 1.87 1.84 1.78
839.116 1.88 2 2.02 2.03 2.1 2.14 2.21 2.35 2.4 2.46
858.406 2.62 2.73 2.78 2.88 2.94 3.08 3.25 3.33 3.42 3.5
877.696 3.55 3.52 3.51 3.61 3.65 3.65 3.64 3.52 3.38 3.17
896.986 2.92 2.77 2.63 2.45 2.32 2.23 2.23 2.26 2.27 2.4
916.276 2.59 2.84 3.19 3.55 3.95 4.35 4.86 5.41 5.84 6.32
935.566 6.83 7.23 7.52 7.6 7.47 7.08 6.47 5.82 5.18 4.51
954.856 3.85 3.3 2.87 2.53 2.31 2.05 1.85 1.73 1.52 1.3267
974.146 1.2116 1.1272 1.0152 0.9795 1.0012 0.9405 0.9138 0.923 0.9447 0.9719
993.436 0.9297 0.8429 0.8344 0.8843 0.9097 0.8971 0.8974 1.0087 1.0682 1.1108
1012.726 1.2166 1.38 1.5 1.61 1.78 1.97 2.34 2.69 3.06 3.57
1032.016 3.94 4.3 4.82 5.32 5.82 6.37 7 7.66 8.39 9.13
1051.306 9.65 9.98 9.89 9.33 8.47 7.35 6.1 5 4.19 3.72
1070.596 3.58 3.72 4.09 4.71 5.55 6.48 7.23 7.62 7.68 7.4
1089.886 6.68 5.76 5.02 4.36 3.85 3.45 3.14 2.87 2.74 2.61
1109.176 2.4 2.36 2.23 2.08 1.93 1.76 1.64 1.57 1.48 1.3444
1128.467 1.3084 1.43 1.63 1.82 1.84 1.78 1.65 1.52 1.45 1.2598
1147.757 1.0615 0.966 0.9919 0.9966 0.9645 0.9493 0.9829 1.0671 1.0722 1.1071
1167.047 1.1615 1.1736 1.2121 1.3341 1.46 1.44 1.43 1.47 1.44 1.39
1186.337 1.348 1.2938 1.2778 1.2325 1.1833 1.1901 1.1272 1.0346 0.9897 0.9833
1205.627 1.0398 1.0774 1.1087 1.25 1.3142 1.247 1.3037 1.46 1.56 1.6
1224.917 1.68 1.83 1.92 2.08 2.27 2.41 2.59 2.82 3.02 3.2
1244.207 3.37 3.5 3.6 3.61 3.73 3.98 4.16 4.36 4.69 5.1
1263.497 5.62 6.4 7.4 8.54 9.84 11.23 12.62 13.85 14.7 15.01
1282.787 14.72 13.8 12.35 10.62 8.85 7.21 5.82 4.73 3.95 3.38
1302.077 2.93 2.59 2.31 2.09 1.96 1.83 1.78 1.74 1.64 1.62
1321.367 1.65 1.67 1.7 1.74 1.72 1.68 1.68 1.73 1.76 1.71
1340.657 1.65 1.59 1.58 1.54 1.44 1.43 1.47 1.49 1.45 1.51
1359.947 1.63 1.78 1.97 2.21 2.56 2.87 3.21 3.56 3.76 3.88
1379.237 3.87 3.73 3.5 3.21 2.93 2.68 2.51 2.4 2.33 2.22
1398.527 2.16 2.17 2.18 2.2 2.29 2.41 2.55 2.75 2.96 3.24
1417.817 3.58 4.05 4.49 5.01 5.72 6.49 7.4 8.5 9.73 11.04
1437.107 12.41 13.69 14.87 15.87 16.67 17.25 17.51 17.44 17.06 16.51
1456.397 15.83 14.87 13.81 12.84 12.03 11.38 10.89 10.51 10.21 9.89
1475.687 9.62 9.42 9.24 9.06 8.89 8.73 8.55 8.36 8.01 7.62
1494.977 7.32 7.01 6.62 6.26 5.95 5.71 5.49 5.13 4.74 4.41
1514.267 4.11 3.88 3.67 3.49 3.26 3.05 2.91 2.72 2.54 2.47
1533.557 2.41 2.27 2.26 2.36 2.35 2.28 2.25 2.25 2.31 2.3
1552.847 2.29 2.27 2.26 2.21 1.94 1.72 1.6 1.56 1.6 1.62
1572.137 1.6 1.7 1.8 1.75 1.72 1.77 1.79 1.86 1.87 1.82
1591.427 1.81 1.86 1.96 2.07 2.2 2.31 2.45 2.62 2.85 3.08
1610.717 3.3 3.55 3.87 4.23 4.48 4.75 5.08 5.4 5.65 5.82
1630.007 5.95 6.02 6.07 6.02 5.8 5.59 5.32 5.06 4.79 4.49
1649.297 4.26 4.16 4.11 3.91 3.81 3.83 3.93 4.13 4.33 4.58
1668.587 4.92 5.28 5.69 6.2 6.73 7.26 7.9 8.61 9.42 10.28
1687.877 11.2 12.29 13.43 14.55 15.55 16.26 16.8 17.07 17.06 17.03
1707.167 16.96 16.84 16.67 16.52 16.32 15.89 14.93 13.64 12.23 10.73
1726.457 9.27 7.93 6.7 5.72 4.95 4.17 3.59 3.2 2.89 2.6
1745.747 2.34 2.21 2.1 1.98 1.87 1.79 1.77 1.73 1.68 1.61
1765.037 1.53 1.5 1.47 1.4 1.3494 1.2625 1.1715 1.1178 1.0625 0.9912
1784.327 0.9345 0.8757 0.8437 0.8237 0.7902 0.7715 0.7719 0.7768 0.8009 0.783
1803.617 0.738 0.7299 0.685 0.6481 0.6594 0.6466 0.622 0.5992 0.5814 0.5659
1822.907 0.5423 0.5388 0.5294 0.5033 0.496 0.4783 0.466 0.4765 0.5068 0.5028
1842.197 0.513 0.5159 0.4722 0.4515 0.42346 0.44254 0.44132 0.40859 0.37216 0.353713
1861.487 0.38564 0.39369 0.36202 0.358601 0.38887 0.351009 0.3384 0.39097 0.42662 0.4507
1880.777 0.4555 0.44091 0.4441 0.5072 0.5841 0.6474 0.6609 0.6162 0.5754 0.5544
1900.067 0.5112 0.4672 0.40938 0.352126 0.3369 0.3103 0.2592 0.216 0.203 0.248
1919.357 0.2674 0.249 0.239 0.215 0.227 0.2593 0.2538 0.245 0.2718 0.246
1938.647 0.223 0.222 0.232 0.214 0.17 0.188 0.203 0.209 0.243 0.2557
1957.937 0.196 0.173 0.202 0.21 0.188 0.201 0.214 0.183 0.176 0.171
1977.227 0.162 0.179 0.205 0.206 0.207 0.2 0.175 0.174 0.198 0.198
1996.517 0.162 0.151 0.162 0.199 0.199 0.166 0.184 0.185 0.177 0.161
2015.807 0.153 0.168 0.203 0.249 0.233 0.172 0.159 0.173 0.182 0.179
2035.097 0.161 0.161 0.165 0.196 0.225 0.185 0.176 0.178 0.172 0.185
2054.387 0.176 0.163 0.179 0.17 0.164 0.196 0.199 0.205 0.207 0.185
2073.677 0.176 0.202 0.155 0.133 0.186 0.143 0.099 0.119 0.152 0.178
2092.967 0.15 0.142 0.192 0.166 0.129 0.139 0.136 0.137 0.139 0.152
2112.257 0.167 0.173 0.163 0.183 0.197 0.161 0.132 0.137 0.14 0.135
2131.547 0.166 0.165 0.179 0.186 0.176 0.183 0.171 0.187 0.192 0.156
2150.837 0.159 0.18 0.195 0.215 0.196 0.196 0.176 0.163 0.198 0.198
2170.127 0.217 0.229 0.23 0.226 0.23 0.228 0.179 0.193 0.244 0.194
2189.417 0.162 0.187 0.193 0.204 0.231 0.231 0.208 0.22 0.215 0.199
2208.707 0.183 0.164 0.178 0.192 0.168 0.195 0.231 0.204 0.199 0.184
2227.997 0.189 0.204 0.198 0.206 0.178 0.18 0.207 0.186 0.168 0.182
2247.287 0.182 0.201 0.21 0.185 0.201 0.242 0.234 0.223 0.227 0.222
2266.577 0.227 0.215 0.211 0.245 0.2921 0.2837 0.2744 0.3077 0.2718 0.2578
2285.868 0.2656 0.241 0.227 0.244 0.242 0.2629 0.2853 0.248 0.244 0.214
2305.158 0.172 0.208 0.236 0.227 0.2584 0.2916 0.2785 0.249 0.2626 0.3009
2324.448 0.3151 0.2954 0.2718 0.2736 0.3095 0.3393 0.3154 0.3161 0.34349 0.3372
2343.738 0.3318 0.3233 0.2643 0.219 0.2575 0.2959 0.2965 0.2976 0.34736 0.37111
2363.028 0.3777 0.36804 0.329 0.2944 0.243 0.235 0.2799 0.2501 0.2 0.219
2382.318 0.216 0.211 0.225 0.236 0.223 0.208 0.195 0.173 0.187 0.186
2401.608 0.18 0.203 0.197 0.167 0.154 0.157 0.134 0.141 0.151 0.134
2420.898 0.14 0.137 0.134 0.144 0.149 0.165 0.208 0.24 0.154 0.126
2440.188 0.157 0.158 0.161 0.124 0.134 0.193 0.216 0.158 0.135 0.172
2459.478 0.189 0.181 0.212 0.207 0.142 0.121 0.117 0.121 0.123 0.162
2478.768 0.191 0.21 0.217 0.196 0.187 0.171 0.166 0.144 0.181 0.195
2498.058 0.182 0.216 0.216 0.213 0.2598 0.2522 0.175 0.171 0.206 0.236
2517.348 0.235 0.231 0.224 0.207 0.194 0.171 0.175 0.212 0.203 0.185
2536.638 0.187 0.181 0.234 0.2687 0.228 0.19 0.173 0.177 0.206 0.159
2555.928 0.151 0.213 0.195 0.193 0.155 0.13 0.165 0.197 0.19 0.171
2575.218 0.177 0.2 0.238 0.2637 0.234 0.169 0.146 0.139 0.189 0.222
2594.508 0.189 0.198 0.16 0.16 0.18 0.168 0.169 0.175 0.207 0.212
2613.798 0.212 0.223 0.237 0.219 0.207 0.18 0.141 0.175 0.198 0.173
2633.088 0.154 0.122 0.149 0.184 0.195 0.209 0.197 0.159 0.154 0.19
2652.378 0.223 0.169 0.102 0.158 0.221 0.231 0.168 0.187 0.229 0.205
2671.668 0.195 0.183 0.184 0.166 0.141 0.165 0.205 0.205 0.176 0.128
2690.958 0.169 0.244 0.216 0.165 0.207 0.242 0.208 0.145 0.094 0.136
2710.248 0.196 0.217 0.229 0.238 0.2791 0.2691 0.213 0.243 0.2703 0.199
2729.538 0.18 0.229 0.222 0.198 0.207 0.214 0.2555 0.2785 0.24 0.235
2748.828 0.218 0.206 0.233 0.2549 0.2514 0.189 0.153 0.197 0.2545 0.2769
2768.118 0.2559 0.183 0.166 0.202 0.21 0.235 0.24 0.221 0.197 0.24
2787.408 0.3225 0.3166 0.2616 0.25 0.265 0.249 0.224 0.244 0.2539 0.227
2806.698 0.209 0.234 0.2793 0.3021 0.2976 0.224 0.209 0.247 0.2778 0.249
2825.988 0.182 0.211 0.2712 0.217 0.136 0.135 0.144 0.159 0.162 0.115
2845.278 0.102 0.196 0.2753 0.24 0.238 0.2981 0.2771 0.2764 0.3056 0.356449
2864.568 0.41015 0.37981 0.34216 0.324 0.3154 0.34561 0.3357 0.266 0.239 0.194
2883.858 0.19 0.188 0.215 0.22 0.183 0.19 0.166 0.174 0.141 0.141
2903.148 0.202 0.149 0.12 0.151 0.156 0.225 0.195 0.2 0.2653 0.173
2922.438 0.115 0.169 0.215 0.239 0.213 0.234 0.2552 0.199 0.21 0.2843
2941.728 0.2789 0.216 0.179 0.24 0.2716 0.2936 0.3105 0.2947 0.2781 0.198
2961.018 0.243 0.236 0.221 0.212 0.185 0.191 0.174 0.19 0.172 0.118
2980.308 0.118 0.127 0.145 0.233 0.249 0.165 0.092 0.091 0.122 0.133
2999.598 0.215 0.237 0.204 0.188 0.189 0.205 0.234 0.233 0.207 0.113
3018.888 0.032 0.076 0.101 0.105 0.126 0.18 0.111 0.115 0.174 0.139
3038.178 0.094 0.037 0.028 0.076 0.148 0.159 0.113 0.132 0.217 0.2748
3057.468 0.2683 0.207 0.158 0.191 0.3273 0.41232 0.4511 0.505 0.4874 0.4881
3076.758 0.5118 0.4504 0.354353 0.39817 0.39168 0.3019 0.2931 0.3058 0.2534 0.3081
3096.048 0.40751 0.465 0.43941 0.3171 0.2591 0.218 0.219 0.178 0.107 0.208
3115.338 0.3022 0.23 0.176 0.138 0.146 0.132 0.131 0.144 0.112 0.034
3134.628 0.028 0.04 0.014 0.066 0.095 0.105 0.15 0.158 0.053 0.057
3153.918 0.192 0.166 0.101 0.073 0.165 0.233 0.13 0.123 0.125 0.139
3173.208 0.111 0.058 0.078 0.082 0.076 0.102 0.099 0.109 0.181 0.206
3192.498 0.242 0.336 0.34693 0.3121 0.2532 0.2939 0.332 0.239 0.219 0.242
3211.788 0.2734 0.2972 0.2571 0.2782 0.2887 0.2646 0.236 0.3013 0.2784 0.2639
3231.078 0.3181 0.24 0.212 0.121 0.092 0.131 0.125 0.1 0.107 0.072
3250.368 0.053 0.112 0.111 0.088 0.172 0.179 0.082 0.131 0.196 0.192
3269.658 0.095 0.074 0.223 0.247 0.193 0.121 0.056 0.109 0.161 0.222
3288.948 0.217 0.123 0.091 0.066 0.099 0.137 0.095 0.147 0.16 0.196
3308.238 0.218 0.15 0.126 0.094 0.102 0.161 0.204 0.149 0.095 0.095
3327.528 0.182 0.179 0.142 0.2521 0.37828 0.41275 0.38305 0.39783 0.41814 0.4877
3346.818 0.5496 0.5256 0.4795 0.5309 0.5168 0.42997 0.4758 0.503 0.515 0.5064
3366.108 0.4896 0.5057 0.4671 0.36726 0.3283 0.2537 0.2829 0.3336 0.2557 0.2867
3385.398 0.3766 0.478 0.43462 0.358581 0.41092 0.41848 0.4048 0.42505 0.4796 0.5696
3404.688 0.5428 0.42272 0.4744 0.5103 0.36873 0.39897 0.43294 0.44417 0.6074 0.732
3423.978 0.7867 0.8018 0.8822 1.0673 1.18 1.3258 1.51 1.62 1.79 1.94
3443.269 2.06 2.27 2.5 2.68 2.91 3.14 3.4 3.59 3.8 4.12
3462.559 4.17 4.14 4.25 4.26 4.1 3.93 3.8 3.53 3.21 3.08
3481.849 2.8 2.48 2.29 2.08 1.91 1.73 1.57 1.45 1.3288 1.1574
3501.139 0.937 0.8501 0.7808 0.6945 0.7269 0.6233 0.43256 0.4517 0.44297 0.3233
3520.429 0.3152 0.2767 0.2757 0.3279 0.2951 0.198 0.165 0.209 0.2596 0.3111
3539.719 0.173 0.131 0.167 0.147 0.2589 0.3009 0.24 0.113 0.116 0.169
3559.009 0.123 0.159 0.164 0.187 0.2956 0.34554 0.3453 0.3227 0.2716 0.285
3578.299 0.172 0.185 0.3021 0.2952 0.2746 0.236 0.21 0.155 0.08 0.046
3597.589 0.131 0.145 0.091 0.141 0.138 0.119 0.183 0.231 0.2637 0.163
3616.879 0.064 0.08 0.134 0.062 0.022 0.094 0.167 0.192 0.215 0.195
3636.169 0.115 0.137 0.091 0.071 0.134 0.19 0.189 0.188 0.188 0.128
3655.459 0.08 0.061 0.085 0.079 0.077 0.07 0.059 0.118 0.127 0.114
3674.749 0.119 0.103 0.067 0.08 0.102 0.126 0.22 0.194 0.042 0
3694.039 0.043 0.049 0.092 0.086 0.158 0.172 0.053 0.104 0.15 0.169
3713.329 0.107 0.013 0.009 0.059 0.105 0.14 0.191 0.21 0.19 0.167
3732.619 0.2554 0.232 0.21 0.3155 0.2928 0.3061 0.38177 0.3073 0.23 0.2831
3751.909 0.2723 0.228 0.113 0.095 0.214 0.167 0.093 0.106 0.047 0.068
3771.199 0.225 0.193 0.051 0.046 0.129 0.071 0.052 0.105 0.127 0.105
3790.489 0.107 0.091 0.033 0.092 0.126 0.182 0.21 0.208 0.203 0.126
3809.779 0.109 0.14 0.192 0.2563 0.227 0.168 0.136 0.147 0.139 0.176
3829.069 0.246 0.158 0.148 0.2925 0.39252 0.2698 0.14 0.191 0.202 0.204
3848.359 0.176 0.096 0.201 0.2937 0.171 0.096 0.054 0.185 0.34168 0.246
3867.649 0.177 0.168 0.089 0.097 0.2782 0.4616 0.3296 0.204 0.3127 0.246
3886.939 0.21 0.2684 0.2667 0.24 0.187 0.185 0.263 0.2887 0.248 0.229
3906.229 0.171 0.176 0.272 0.209 0.054 0.076 0.199 0.219 0.141 0.117
3925.519 0.107 0.063 0.118 0.14 0.15 0.23 0.199 0.219 0.232 0.182
3944.809 0.191 0.239 0.189 0.093 0.103 0.164 0.224 0.133 0.121 0.225
3964.099 0.152 0.179 0.3164 0.2751 0.217 0.231 0.209 0.172 0.171 0.124
3983.389 0.119 0.104 0.038 0.129 0.164 0.12 0.103 0.056 0.069 0.102
##END=
