##TITLE=DL-Goitrin
##JCAMP-DX=4.24
##DATA TYPE=INFRARED SPECTRUM
##ORIGIN=EPA-IR VAPOR PHASE LIBRARY
##OWNER=SRD/NIST
Collection (C) 2018 copyright by the U.S. Secretary of Commerce
on behalf of the United States of America. All rights reserved.
##CAS REGISTRY NO=13190-34-6
##MOLFORM=C 5 H 7 N O S
##$NIST SOURCE=MSDC-IR
##STATE=gas
##XUNITS=1/CM
##YUNITS=ABSORBANCE
##XFACTOR=1.
##YFACTOR=0.001
##DELTAX=1.92898
##FIRSTX=549.8
##LASTX=4000.7
##FIRSTY=3.258
##MAXX=4000.7
##MINX=549.759
##MAXY=0.062648
##MINY=0
##NPOINTS=1790
##XYDATA=(X++(Y..Y))
549.759 3.258 3.228 3.048 2.448 1.708 2.028 2.058 1.538 1.458 1.1685
569.049 1.0258 1.608 2.468 2.588 2.238 2.048 1.928 1.698 2.028 2.058
588.339 1.508 1.448 1.818 2.488 2.738 2.418 2.298 2.278 2.208 2.498
607.628 2.428 2.158 2.158 2.328 1.888 1.678 1.908 1.918 1.898 1.628
626.918 1.448 1.488 1.808 2.038 1.898 1.958 2.058 2.158 2.568 2.328
646.208 1.988 1.938 1.788 1.858 2.048 2.178 2.448 2.228 1.928 1.878
665.498 1.968 1.868 1.988 2.638 2.468 1.918 1.658 1.578 1.818 1.658
684.787 1.558 1.878 2.078 2.068 1.778 1.728 1.698 1.548 1.678 1.888
704.077 1.838 1.678 1.738 1.768 1.478 1.608 1.978 1.848 1.788 1.928
723.367 1.898 1.788 1.778 1.978 1.958 1.458 1.2384 1.568 1.828 1.568
742.657 1.338 1.438 1.888 1.828 1.1995 0.9891 0.806 1.1293 1.548 1.588
761.947 1.368 1.2069 1.468 1.398 1.458 1.558 1.308 1.308 1.358 1.538
781.236 1.828 1.738 1.678 1.688 1.548 1.588 1.868 1.788 1.488 1.598
800.526 1.768 1.588 1.298 1.568 1.768 1.688 1.518 1.368 1.578 2.158
819.816 2.048 1.978 2.508 2.298 2.028 2.168 2.218 1.528 1.568 2.068
839.106 2.488 2.728 2.508 2.438 2.488 2.658 2.608 3.058 3.028 2.638
858.395 2.928 2.938 2.718 2.898 3.208 3.308 3.248 3.088 3.098 3.308
877.685 3.198 2.998 3.338 3.328 2.838 2.838 3.258 3.868 4.658 4.858
896.975 4.808 5.298 5.898 6.668 6.868 7.418 8.218 8.648 9.618 10.258
916.265 10.598 11.138 11.858 12.368 12.968 13.388 13.408 14.118 14.738 14.688
935.555 14.248 13.688 13.498 13.558 13.358 12.928 12.288 11.738 11.358 10.678
954.844 10.418 10.288 9.838 9.318 9.168 9.088 9.038 9.428 9.658 9.868
974.134 10.238 10.708 11.098 11.158 11.028 10.948 10.948 10.488 10.718 10.978
993.424 10.748 10.378 10.248 10.268 9.678 9.408 9.098 8.578 8.308 8.198
1012.714 8.268 8.318 7.798 7.558 7.758 7.898 7.878 7.988 8.908 9.358
1032.003 9.698 10.688 11.378 11.828 12.268 13.678 14.498 14.288 14.038 13.248
1051.293 12.528 11.828 11.488 10.428 9.148 8.018 6.508 5.598 4.988 4.588
1070.583 4.478 4.408 4.678 4.208 3.428 4.068 4.158 3.608 2.938 3.248
1089.873 3.838 3.788 3.598 3.308 3.538 3.828 4.328 4.838 4.938 4.558
1109.163 3.908 3.888 4.248 4.248 4.458 5.038 5.448 4.988 4.438 4.838
1128.452 4.988 5.378 6.538 8.088 8.638 9.148 9.948 10.638 12.278 14.998
1147.742 17.058 19.518 23.648 27.188 30.748 35.138 40.158 44.668 49.138 53.448
1167.032 57.348 59.368 59.998 60.448 59.338 57.168 53.918 49.118 43.678 37.868
1186.322 31.938 26.698 22.578 19.418 16.728 15.408 14.488 12.798 10.628 9.518
1205.611 9.928 10.658 11.038 10.028 9.508 9.848 10.508 11.198 12.108 14.678
1224.901 16.758 17.638 19.098 21.978 24.808 25.618 25.638 25.198 24.858 24.588
1244.191 24.068 23.248 21.568 19.808 17.768 15.968 14.658 12.968 11.678 11.408
1263.481 11.168 10.618 10.548 10.918 11.368 11.698 12.498 13.158 13.758 14.878
1282.771 16.238 17.368 18.238 19.348 20.458 21.378 21.858 22.088 22.278 22.158
1302.060 21.938 21.538 20.618 19.728 18.878 17.918 17.068 16.228 15.678 15.008
1321.350 14.308 13.948 13.588 13.528 13.678 13.978 14.568 15.398 16.378 17.388
1340.640 18.438 19.368 19.908 20.178 20.408 20.478 19.968 19.068 18.108 17.028
1359.930 15.438 13.618 11.968 10.568 9.438 8.458 7.638 6.898 6.198 5.678
1379.219 5.258 4.838 4.528 4.288 4.098 4.078 4.008 3.888 3.908 4.038
1398.509 4.268 4.438 4.568 4.798 5.068 5.448 5.838 6.288 6.888 7.388
1417.799 8.008 8.818 9.618 10.268 10.908 11.618 12.338 13.318 14.518 15.818
1437.089 17.348 19.288 21.698 24.538 27.998 31.958 36.508 41.528 46.538 51.508
1456.378 55.938 59.498 61.838 62.648 62.338 61.268 59.388 56.508 52.818 48.198
1475.668 42.868 37.618 33.218 30.028 28.088 27.058 26.358 25.668 24.988 24.448
1494.958 23.898 23.568 23.208 22.268 20.758 18.578 16.088 13.818 11.868 10.188
1514.248 8.838 7.598 6.588 5.828 5.168 4.718 4.328 3.938 3.588 3.218
1533.538 3.038 2.848 2.568 2.358 2.138 1.928 1.878 1.868 1.868 1.758
1552.827 1.668 1.748 1.688 1.568 1.608 1.568 1.388 1.398 1.308 1.298
1572.117 1.268 1.2497 1.368 1.468 1.528 1.478 1.398 1.338 1.1418 1.1666
1591.407 1.468 1.498 1.408 1.278 1.278 1.288 1.368 1.578 1.428 1.226
1610.697 1.358 1.528 1.478 1.278 1.2417 1.378 1.408 1.278 1.308 1.498
1629.986 1.598 1.658 1.468 1.368 1.548 1.648 1.628 1.618 1.678 1.748
1649.276 1.748 1.608 1.698 1.748 1.618 1.578 1.478 1.418 1.338 1.288
1668.566 1.2654 1.0775 1.0194 1.1938 1.268 1.2256 1.1679 1.182 1.2623 1.1454
1687.856 1.137 1.1674 1.0467 1.0275 1.0269 1.0975 1.1061 1.0318 1.1115 1.2319
1707.146 1.158 1.0219 1.0895 1.298 1.0765 0.9732 1.209 1.1921 1.0892 1.1022
1726.435 1.0838 1.183 1.428 1.438 1.2672 1.298 1.348 1.2452 1.2106 1.288
1745.725 1.378 1.338 1.338 1.368 1.448 1.438 1.268 1.1365 1.1584 1.138
1765.015 1.052 1.0966 1.0704 1.0158 0.9833 0.9539 0.8773 0.7566 0.8474 0.9264
1784.305 0.8839 0.9385 0.9631 0.983 0.9756 0.9019 0.8366 0.8009 0.7805 0.8029
1803.594 0.8313 0.8144 0.897 0.8543 0.8372 0.9687 0.9117 0.8574 0.8703 0.8951
1822.884 0.9363 0.8998 0.9297 0.9085 0.8348 0.8133 0.8167 0.9307 1.0077 1.0536
1842.174 0.9806 0.97 1.1326 1.1039 1.042 1.0947 1.2036 1.298 1.288 1.288
1861.464 1.2625 1.2626 1.338 1.398 1.538 1.618 1.658 1.628 1.558 1.598
1880.754 1.548 1.608 1.728 1.678 1.548 1.528 1.528 1.548 1.508 1.298
1900.043 1.2452 1.268 1.2388 1.2648 1.308 1.308 1.2101 1.1695 1.1726 1.0736
1919.333 1.224 1.358 1.278 1.2363 1.1584 1.2207 1.378 1.438 1.518 1.528
1938.623 1.398 1.388 1.448 1.488 1.568 1.638 1.648 1.588 1.618 1.728
1957.913 1.878 1.898 1.898 2.048 2.128 2.078 2.118 2.268 2.338 2.448
1977.202 2.548 2.598 2.748 2.948 3.108 3.268 3.328 3.458 3.748 3.948
1996.492 4.058 4.358 4.698 4.918 5.138 5.368 5.718 6.148 6.608 6.998
2015.782 7.408 7.938 8.368 8.938 9.548 10.088 10.778 11.508 12.078 12.628
2035.072 13.308 13.888 14.398 14.978 15.598 16.188 16.498 16.738 17.008 17.188
2054.362 17.338 17.418 17.428 17.358 17.038 16.638 16.338 15.858 15.248 14.548
2073.651 13.808 12.988 12.078 11.128 10.238 9.578 8.898 8.118 7.488 7.078
2092.941 6.678 6.208 5.868 5.568 5.318 5.198 5.078 4.988 4.898 4.748
2112.231 4.658 4.608 4.688 4.728 4.618 4.538 4.468 4.468 4.358 4.248
2131.521 4.278 4.198 4.008 3.888 3.708 3.568 3.498 3.408 3.318 3.078
2150.810 2.908 2.818 2.698 2.668 2.558 2.408 2.368 2.248 2.188 2.178
2170.100 2.068 2.038 2.178 2.188 1.968 1.968 2.038 1.998 1.998 2.178
2189.390 2.188 2.028 1.948 1.938 2.138 2.168 2.108 2.048 2.028 2.168
2208.680 2.258 2.138 2.028 2.028 2.098 2.068 2.038 1.998 1.978 1.958
2227.970 1.918 1.998 1.978 1.918 1.868 1.798 1.758 1.698 1.488 1.518
2247.259 1.598 1.488 1.548 1.628 1.558 1.488 1.358 1.408 1.488 1.298
2266.549 1.2192 1.298 1.308 1.298 1.2209 1.1945 1.2113 1.0664 0.9513 1.0364
2285.839 1.094 0.9355 0.9049 1.0692 1.0808 1.0373 1.0458 0.992 0.996 0.9793
2305.129 0.9601 0.9952 0.8964 0.827 0.8335 0.791 0.8372 0.8588 0.8548 0.7953
2324.418 0.7969 0.8366 0.747 0.899 1.0038 0.9813 0.9005 0.7194 0.7719 0.8277
2343.708 0.7184 0.8799 1.0857 0.9419 0.9044 0.9173 0.8425 0.8557 0.879 0.8569
2362.998 0.8 0.7217 0.6215 0.5749 0.6096 0.6322 0.6098 0.6158 0.5561 0.4524
2382.288 0.4128 0.531 0.6313 0.6831 0.7239 0.7793 0.7816 0.7873 0.8025 0.8152
2401.578 0.8762 0.9247 1.0457 0.9535 0.836 0.9009 0.8837 0.7884 0.7422 0.7262
2420.867 0.9338 0.9764 0.7312 0.5117 0.4785 0.6136 0.6878 0.6028 0.6308 0.6884
2440.157 0.6847 0.7018 0.7062 0.6977 0.6795 0.8298 0.8229 0.699 0.648 0.7499
2459.447 0.8577 0.8393 0.6528 0.5267 0.7072 0.7886 0.7912 0.8425 0.7344 0.7095
2478.737 0.7689 0.6829 0.6761 0.7129 0.7369 0.8971 0.8757 0.7783 0.8658 0.9825
2498.026 0.908 0.5986 0.5409 0.6499 0.6743 0.8362 0.8374 0.7614 0.8559 0.8558
2517.316 0.7931 0.8438 0.6199 0.4921 0.7254 0.8315 0.827 0.688 0.7709 0.8722
2536.606 0.832 0.7489 0.5621 0.6078 0.6504 0.6286 0.6685 0.7165 0.6791 0.5208
2555.896 0.5367 0.7131 0.7459 0.5524 0.6384 0.8023 0.7069 0.5683 0.4997 0.4897
2575.186 0.4734 0.4881 0.4752 0.4831 0.5604 0.5713 0.5799 0.5553 0.5533 0.6293
2594.475 0.7085 0.6599 0.5914 0.6313 0.5908 0.6999 0.8426 0.7389 0.6753 0.6671
2613.765 0.6858 0.6547 0.5766 0.5608 0.5879 0.6009 0.6287 0.6072 0.5385 0.6767
2633.055 0.7618 0.7851 0.7989 0.6851 0.647 0.7073 0.6578 0.6867 0.677 0.614
2652.345 0.6817 0.7072 0.6393 0.5714 0.5825 0.5862 0.6939 0.7722 0.8349 0.8431
2671.634 0.8027 0.7534 0.6588 0.7864 0.7771 0.6544 0.8046 0.8672 0.8382 0.8291
2690.924 0.7996 0.805 0.7261 0.7463 0.8214 0.8283 0.829 0.9225 0.8679 0.6047
2710.214 0.6389 0.6186 0.6769 0.8425 0.9229 0.8681 0.7234 0.8541 0.7564 0.7304
2729.504 0.8078 0.6908 0.7309 0.9325 0.9048 0.8186 0.8249 0.7856 0.762 0.817
2748.794 1.0695 1.2187 1.0896 0.9178 0.9366 0.9078 0.7851 0.8925 0.9502 0.8161
2768.083 0.8347 0.8396 0.9537 1.1396 0.9561 0.8761 0.9295 0.8634 0.987 1.1094
2787.373 0.956 0.8568 0.9251 0.9623 0.9567 1.0531 1.1193 1.1232 1.1866 1.0386
2806.663 1.0542 1.348 1.288 1.1345 1.258 1.2248 1.2295 1.328 1.1146 1.0026
2825.953 1.2442 1.428 1.2619 1.1708 1.378 1.378 1.278 1.388 1.318 1.298
2845.242 1.418 1.568 1.668 1.688 1.798 1.938 1.938 1.888 2.008 2.148
2864.532 2.328 2.618 2.898 3.168 3.578 4.048 4.518 5.148 5.498 5.738
2883.822 6.118 6.548 6.748 6.578 6.658 6.938 6.958 6.628 6.268 6.148
2903.112 5.788 5.348 5.268 5.088 5.008 5.118 5.088 4.808 4.658 4.618
2922.401 4.538 4.568 4.578 4.818 5.208 5.438 5.488 5.508 5.548 5.538
2941.691 5.798 6.088 6.238 6.448 6.278 6.098 6.268 6.368 6.428 6.198
2960.981 5.998 5.918 5.618 5.298 5.128 5.088 5.008 4.738 4.398 4.108
2980.271 4.028 4.098 3.878 3.698 3.798 3.978 4.028 3.988 3.858 3.618
2999.561 3.498 3.558 3.368 3.028 2.838 2.808 3.028 3.078 2.918 2.868
3018.850 2.548 2.278 2.198 2.438 2.508 2.298 2.158 1.878 1.798 1.648
3038.140 1.448 1.468 1.398 1.2155 1.2226 1.2445 1.0572 1.0928 1.0986 0.9493
3057.430 0.8521 0.8886 1.1937 1.318 1.0863 0.9132 1.1161 1.2625 1.358 1.498
3076.720 1.348 1.308 1.618 1.678 1.838 1.998 2.148 2.348 2.348 2.518
3096.009 2.678 2.778 2.808 2.558 2.148 2.098 2.158 1.938 1.728 1.588
3115.299 1.448 1.1918 1.1885 1.0829 0.9344 0.797 0.5741 0.5955 0.5659 0.6859
3134.589 0.7003 0.609 0.5472 0.583 0.5485 0.4339 0.463 0.2299 0.29142 0.6392
3153.879 0.4923 0.5178 0.665 0.6749 0.6356 0.5297 0.4225 0.35234 0.6576 0.7927
3173.169 0.7686 0.8976 0.8774 0.7125 0.7777 0.7642 0.8054 0.7261 0.6586 0.6703
3192.458 0.4013 0.4158 0.6224 0.5169 0.4741 0.6422 0.7644 0.7566 0.6426 0.7732
3211.748 0.6327 0.5173 0.8275 0.6784 0.251 0.1943 0.4752 0.6764 0.5703 0.5436
3231.038 0.6161 0.6398 0.3899 0.132 0.6003 0.8989 0.4837 0.5028 0.6661 0.6459
3250.328 0.7012 0.5765 0.4325 0.374 0.6261 0.7076 0.6038 0.558 0.5146 0.6818
3269.617 0.6741 0.3682 0.4015 0.34437 0.2119 0.33542 0.4209 0.6179 0.6172 0.3995
3288.907 0.027 0.05 0.30655 0.272997 0.155 0.3831 0.6349 0.5292 0.4484 0.4443
3308.197 0.4404 0.4467 0.5714 0.642 0.276737 0.33126 0.6894 0.7337 0.5546 0.5118
3327.487 0.6538 0.6882 0.681 0.5666 0.5224 0.5285 0.6562 0.6709 0.7118 0.8883
3346.777 0.8538 0.6336 0.5987 0.5749 0.6005 0.7341 0.7612 0.4063 0.004 0.092
3366.066 0.1845 0.2167 0.4265 0.4542 0.4262 0.4162 0.4471 0.4076 0.2223 0.33388
3385.356 0.4215 0.605 0.6833 0.7913 0.8428 0.8343 0.9049 0.7562 0.6033 0.5644
3404.646 0.5979 0.6177 0.6426 0.7217 0.584 0.4205 0.4266 0.4318 0.4871 0.5949
3423.936 0.8385 0.6812 0.3772 0.5422 0.8268 0.8247 0.7357 0.7389 0.8806 1.0055
3443.225 1.1831 1.1961 1.2649 1.298 1.2499 1.338 1.468 1.588 1.468 1.578
3462.515 2.198 2.608 2.568 2.828 3.338 3.998 5.008 5.628 6.138 7.228
3481.805 8.128 9.118 9.948 10.358 10.518 10.218 10.028 10.158 10.238 9.788
3501.095 9.198 8.418 7.238 6.138 5.238 4.638 3.628 3.028 2.898 2.468
3520.385 2.048 1.678 1.468 1.318 1.1299 0.8862 0.8434 0.7963 1.0549 1.1159
3539.674 0.7069 0.5567 0.742 0.7549 0.667 0.8148 0.8213 0.6287 0.4972 0.4497
3558.964 0.4897 0.5996 0.6545 0.7228 0.6431 0.4194 0.5556 0.6747 0.5206 0.6594
3578.254 0.7835 0.726 0.5228 0.4042 0.582 0.5813 0.5578 0.6788 0.5552 0.5343
3597.544 0.7131 0.5907 0.5177 0.7989 0.8148 0.6285 0.5167 0.6987 1.2278 0.8269
3616.833 0.4718 0.5846 0.7685 1.0277 0.831 0.8487 0.9179 0.8117 0.9789 0.9715
3636.123 0.9083 0.9623 0.8458 0.617 0.7478 1.054 0.9335 0.899 0.7379 0.8353
3655.413 1.1236 0.7989 0.6384 0.7807 0.8944 0.9996 0.8249 0.676 0.5012 0.6311
3674.703 0.8434 0.5812 0.3925 0.7208 1.1517 1.0882 0.6483 0.4475 0.4094 0.3863
3693.993 0.5233 0.5607 0.28829 0.31771 0.6323 0.5517 0.5603 0.6655 0.5015 0.4274
3713.282 0.29908 0.1814 0.3721 0.6429 0.6687 0.4497 0.3836 0.31938 0.35696 0.4788
3732.572 0.6497 0.5122 0.158 0.1836 0.4263 0.395 0.35476 0.4588 0.34011 0.3778
3751.862 0.252 0.28969 0.4768 0.5579 0.597 0.3748 0.4397 0.566 0.4876 0.34387
3771.152 0.33689 0.077 0 0.30557 0.30119 0.14 0.3763 0.3891 0.5308 0.5135
3790.441 0.26055 0.27919 0.2414 0.4691 0.3704 0.4631 0.6711 0.6119 0.5154 0.2515
3809.731 0.5188 0.818 0.691 0.4838 0.2466 0.3979 0.33717 0.35423 0.7276 0.7202
3829.021 0.6548 0.7824 0.8291 0.8299 0.9032 0.814 0.6177 0.5971 0.6696 0.6892
3848.311 0.7029 0.6743 0.6582 0.8096 0.744 0.4907 0.475 0.6155 0.5786 0.6877
3867.601 0.9859 0.9329 0.9257 0.8912 0.5723 0.4762 0.35017 0.4588 0.6005 0.5391
3886.890 0.7718 0.4347 0.4076 0.7744 0.7307 0.8227 0.7857 0.4769 0.1998 0.2023
3906.180 0.243 0.3927 0.6445 0.9945 1.1245 0.7438 0.6282 0.5428 0.535 0.6877
3925.470 0.7181 0.5909 0.4794 0.8163 0.8126 0.8194 0.8771 0.82 0.965 1.043
3944.760 0.9142 0.8345 0.6839 0.5183 0.5268 0.5753 0.728 0.8145 0.863 0.8968
3964.049 1.0447 0.8578 0.625 0.5199 0.6174 0.6781 0.5676 0.6049 0.6755 0.8381
3983.339 0.582 0.35097 0.4321 0.7187 0.899 0.7244 0.637 0.6492 0.6317 0.7167
##END=
