##TITLE=.alpha.,.alpha.-p-Tribromoacetophenone
##JCAMP-DX=4.24
##DATA TYPE=INFRARED SPECTRUM
##ORIGIN=EPA-IR VAPOR PHASE LIBRARY
##OWNER=SRD/NIST
Collection (C) 2018 copyright by the U.S. Secretary of Commerce
on behalf of the United States of America. All rights reserved.
##CAS REGISTRY NO=13195-79-4
##MOLFORM=C 8 H 5 Br 3 O
##$NIST SOURCE=MSDC-IR
##STATE=gas
##XUNITS=1/CM
##YUNITS=ABSORBANCE
##XFACTOR=1.
##YFACTOR=0.001
##DELTAX=1.92934
##FIRSTX=549.9
##LASTX=3999.5
##FIRSTY=8.3
##MAXX=3999.53
##MINX=549.863
##MAXY=0.0793
##MINY=0
##NPOINTS=1789
##XYDATA=(X++(Y..Y))
549.863 8.3 9.16 10.16 11.21 12.49 14.16 15.84 17.57 19.5 21.05
569.156 21.67 21.91 22.05 22.25 22.93 24.01 25.38 26.7 27.27 27.16
588.450 26.6 25.64 24.45 23.44 22.5 21.35 20.18 19.03 17.82 16.47
607.743 15.18 14.1 13.23 12.42 11.76 11.26 10.75 10.3 9.98 9.76
627.037 9.59 9.47 9.39 9.41 9.82 10.65 11.83 13.27 14.81 16.33
646.330 17.55 18.35 18.56 18.09 17.13 15.52 13.47 11.41 9.59 8.17
665.624 7.25 6.71 6.33 6.13 5.95 5.85 5.87 5.91 6 6.13
684.917 6.37 6.83 7.52 8.43 9.46 10.49 11.43 12.12 12.54 12.67
704.210 12.59 12.56 12.83 13.44 14.27 15.26 16.31 17.31 17.94 18.09
723.504 17.76 16.82 15.61 14.28 13.08 12.25 11.71 11.38 11.32 11.38
742.797 11.49 11.9 12.68 13.97 15.83 18.15 20.69 23.16 25.1 25.9
762.091 25.19 23.07 20.02 16.7 13.96 12.36 11.71 11.92 12.78 13.83
781.384 14.55 14.38 13.2 11.36 9.41 8 7.23 6.9 6.75 6.66
800.678 6.57 6.32 6.02 5.78 5.62 5.77 6.13 6.51 7.02 7.56
819.971 8.1 8.58 9.16 10.19 11.77 14.28 18.26 23.56 29.78 35.98
839.264 40.55 42.32 40.89 36.19 29.24 21.81 15.4 10.7 7.65 5.87
858.558 4.89 4.35 3.99 3.68 3.39 3.12 2.89 2.7 2.52 2.41
877.851 2.35 2.32 2.27 2.28 2.33 2.33 2.35 2.38 2.36 2.31
897.145 2.29 2.31 2.3 2.33 2.35 2.29 2.29 2.3 2.31 2.34
916.438 2.29 2.21 2.21 2.22 2.1663 2.1708 2.19 2.23 2.28 2.35
935.732 2.46 2.55 2.66 2.77 2.9 3.07 3.33 3.65 4.09 4.68
955.025 5.45 6.44 7.79 9.68 12.28 15.72 20.13 25.44 31.23 36.77
974.318 40.95 42.53 40.81 36.1 29.71 23.29 18.19 14.94 13.24 12.58
993.612 12.63 13.4 15.1 17.82 21.97 28.14 36.29 45.04 51.46 52.76
1012.905 47.76 37.58 25.68 15.99 10.58 8.67 8.51 9.17 10.13 10.9
1032.199 11.23 10.82 9.75 8.29 6.85 5.81 5.19 4.89 4.7 4.68
1051.492 4.93 5.41 6.06 6.95 8.39 10.73 14.56 20.63 29.55 41.02
1070.786 52.73 60.9 62.48 56.63 45.04 32.33 22.71 16.94 13.69 11.67
1090.079 10.17 8.89 7.7 6.62 5.74 5.13 4.76 4.56 4.47 4.5
1109.372 4.59 4.75 4.95 5.05 5.04 4.99 5.03 5.17 5.49 5.96
1128.666 6.56 7.3 7.94 8.42 8.72 8.78 8.8 8.77 8.73 8.9
1147.959 9.36 10.11 11.22 12.67 14.44 16.47 18.5 20.29 21.67 22.49
1167.253 22.81 23.13 24.06 26.03 29.24 33.11 36.76 39.34 40 38.49
1186.546 35.24 30.99 26.48 22.31 18.81 16.03 13.87 12.34 11.25 10.46
1205.840 9.97 9.78 9.86 10.14 10.67 11.36 12.12 12.87 13.48 13.76
1225.133 13.67 13.5 13.45 13.69 14.46 15.86 17.89 20.58 24.02 28.28
1244.426 33.45 39.62 46.61 54.08 61.52 68.26 73.77 77.57 79.3 78.61
1263.720 75.38 69.88 62.54 54.16 45.66 37.86 31.31 26.17 22.33 19.56
1283.013 17.52 15.85 14.45 13.28 12.18 11.04 9.97 9.05 8.33 8.06
1302.307 8.34 8.98 9.59 9.84 9.48 8.61 7.62 6.75 6.12 5.6
1321.600 5.18 4.92 4.71 4.57 4.45 4.36 4.35 4.3 4.28 4.37
1340.894 4.46 4.5 4.56 4.56 4.48 4.38 4.26 4.07 3.91 3.8
1360.187 3.72 3.71 3.81 3.9 3.97 4.09 4.13 4.17 4.29 4.51
1379.480 4.86 5.37 6.13 7.24 8.8 10.7 12.92 15.33 17.53 18.93
1398.774 19.02 17.72 15.33 12.28 9.34 7.12 5.56 4.46 3.72 3.19
1418.067 2.8 2.5 2.29 2.1639 2.096 2.025 1.9738 1.9904 2.0142 2.063
1437.361 2.1333 2.1556 2.1498 2.1716 2.21 2.21 2.22 2.25 2.29 2.35
1456.654 2.39 2.46 2.6 2.75 3 3.41 3.94 4.67 5.75 7.23
1475.948 9.27 12.05 15.35 18.9 21.76 22.64 20.99 17.28 12.47 8.21
1495.241 5.49 4.01 3.19 2.74 2.47 2.3 2.23 2.1794 2.1499 2.1664
1514.534 2.1517 2.1304 2.1776 2.24 2.3 2.39 2.47 2.58 2.71 2.84
1533.828 3 3.16 3.29 3.53 3.75 3.98 4.37 4.86 5.56 6.53
1553.121 7.74 9.27 11.07 13.3 15.82 18.19 20.3 22 23.28 24.52
1572.415 26.44 29.76 35.35 42.99 52.17 62.42 71.86 78.22 79.01 73.02
1591.708 61.28 46.72 32.65 21.55 14.54 10.85 8.86 7.62 6.69 5.92
1611.002 5.26 4.7 4.26 3.87 3.61 3.42 3.27 3.14 3.01 2.89
1630.295 2.82 2.83 2.87 2.87 2.93 3 3.03 3.1 3.24 3.44
1649.588 3.71 3.98 4.31 4.68 5.03 5.34 5.62 5.84 6.05 6.36
1668.882 6.74 7.18 7.82 8.75 10.17 12.14 14.96 18.82 24.53 32.23
1688.175 41.6 52.31 62.53 69.98 72.76 70.35 63.45 54.17 45.77 38.99
1707.469 34.9 33.73 35.45 39.59 45.35 51.26 55.25 55.24 50.76 43.07
1726.762 34.55 27.02 20.99 16.46 13.14 10.94 9.41 8.25 7.43 6.79
1746.056 6.26 5.84 5.53 5.25 5.03 4.84 4.68 4.52 4.36 4.22
1765.349 4.07 3.92 3.8 3.7 3.63 3.61 3.55 3.48 3.47 3.49
1784.642 3.41 3.27 3.13 2.94 2.68 2.39 2.1723 1.992 1.8234 1.7375
1803.936 1.6959 1.6213 1.5818 1.5647 1.5043 1.4113 1.3489 1.3172 1.26362 1.22245
1823.229 1.21881 1.21021 1.1867 1.19025 1.21266 1.19608 1.21735 1.23154 1.1736 1.1356
1842.523 1.1339 1.1294 1.1388 1.1284 1.0842 1.021 0.954 0.934 0.936 0.925
1861.816 0.917 0.886 0.89 0.884 0.871 0.908 0.925 0.993 1.063 1.0983
1881.110 1.1435 1.21171 1.3042 1.3514 1.3958 1.4669 1.4911 1.5254 1.5857 1.6442
1900.403 1.6875 1.7284 1.7306 1.7657 1.8319 1.826 1.8438 1.8621 1.8231 1.7638
1919.696 1.697 1.5749 1.5004 1.4943 1.5078 1.4853 1.4382 1.4432 1.4449 1.4069
1938.990 1.3582 1.325 1.24624 1.1392 1.0891 1.068 1.023 0.965 0.915 0.882
1958.283 0.859 0.818 0.818 0.809 0.775 0.764 0.738 0.704 0.69 0.707
1977.577 0.716 0.716 0.68 0.63 0.656 0.663 0.61 0.587 0.576 0.614
1996.870 0.645 0.636 0.618 0.624 0.662 0.669 0.644 0.631 0.673 0.701
2016.164 0.723 0.761 0.747 0.744 0.782 0.782 0.779 0.75 0.714 0.722
2035.457 0.669 0.59 0.599 0.65 0.681 0.669 0.641 0.636 0.594 0.544
2054.750 0.569 0.569 0.555 0.559 0.545 0.556 0.565 0.56 0.5 0.443
2074.044 0.446 0.46 0.464 0.476 0.495 0.475 0.443 0.441 0.457 0.457
2093.337 0.45 0.437 0.436 0.417 0.384 0.416 0.422 0.412 0.43 0.424
2112.631 0.397 0.403 0.429 0.381 0.367 0.402 0.402 0.421 0.466 0.456
2131.924 0.453 0.52 0.512 0.461 0.464 0.494 0.517 0.523 0.498 0.487
2151.218 0.508 0.487 0.499 0.514 0.503 0.458 0.431 0.443 0.438 0.425
2170.511 0.428 0.418 0.382 0.405 0.444 0.454 0.483 0.491 0.467 0.447
2189.804 0.466 0.495 0.468 0.444 0.461 0.467 0.453 0.434 0.413 0.434
2209.098 0.445 0.462 0.471 0.457 0.484 0.511 0.538 0.553 0.541 0.538
2228.391 0.536 0.52 0.525 0.545 0.554 0.59 0.617 0.57 0.558 0.572
2247.685 0.578 0.603 0.603 0.577 0.583 0.6 0.607 0.603 0.599 0.617
2266.978 0.622 0.635 0.643 0.626 0.638 0.664 0.656 0.664 0.711 0.783
2286.272 0.831 0.889 0.914 0.903 0.942 0.998 1.016 0.984 0.974 1.005
2305.565 1.027 1.011 1.014 1.01 0.998 0.997 0.968 0.931 0.898 0.876
2324.858 0.84 0.822 0.848 0.822 0.786 0.804 0.839 0.867 0.887 0.876
2344.152 0.875 0.88 0.86 0.882 0.91 0.89 0.918 0.936 0.872 0.836
2363.445 0.811 0.824 0.855 0.848 0.813 0.799 0.757 0.732 0.757 0.727
2382.739 0.659 0.634 0.634 0.62 0.606 0.566 0.517 0.537 0.543 0.495
2402.032 0.505 0.518 0.51 0.556 0.579 0.551 0.532 0.518 0.559 0.588
2421.326 0.566 0.544 0.55 0.533 0.507 0.535 0.567 0.548 0.525 0.537
2440.619 0.538 0.531 0.572 0.572 0.524 0.521 0.524 0.512 0.511 0.525
2459.912 0.541 0.55 0.533 0.53 0.528 0.492 0.498 0.544 0.52 0.519
2479.206 0.547 0.564 0.568 0.566 0.58 0.618 0.651 0.657 0.686 0.693
2498.499 0.718 0.774 0.822 0.834 0.845 0.861 0.867 0.874 0.898 0.988
2517.793 1.047 1.04 1.053 1.0964 1.0982 1.076 1.0933 1.1305 1.1472 1.1274
2537.086 1.17751 1.21257 1.23093 1.2857 1.3096 1.3601 1.3605 1.2871 1.2431 1.25592
2556.380 1.17703 1.069 1.0864 1.047 0.96 0.959 0.925 0.87 0.886 0.909
2575.673 0.908 0.916 0.896 0.827 0.784 0.771 0.774 0.786 0.786 0.789
2594.966 0.777 0.722 0.672 0.618 0.568 0.529 0.478 0.462 0.444 0.452
2614.260 0.41 0.366 0.396 0.402 0.378 0.36 0.354 0.322 0.344 0.352
2633.553 0.352 0.389 0.375 0.373 0.32 0.249 0.309 0.329 0.347 0.385
2652.847 0.369 0.401 0.449 0.48 0.458 0.36 0.33 0.387 0.362 0.361
2672.140 0.371 0.345 0.374 0.389 0.343 0.313 0.363 0.377 0.34 0.358
2691.434 0.391 0.398 0.382 0.399 0.416 0.425 0.445 0.402 0.356 0.339
2710.727 0.354 0.416 0.466 0.429 0.356 0.361 0.442 0.5 0.499 0.461
2730.020 0.427 0.456 0.507 0.518 0.484 0.475 0.437 0.452 0.517 0.48
2749.314 0.478 0.491 0.486 0.491 0.438 0.471 0.559 0.508 0.514 0.543
2768.607 0.533 0.555 0.51 0.453 0.475 0.485 0.384 0.316 0.292 0.28
2787.901 0.359 0.363 0.325 0.288 0.246 0.232 0.225 0.194 0.244 0.221
2807.194 0.18 0.245 0.209 0.15 0.227 0.329 0.386 0.451 0.338 0.311
2826.488 0.412 0.397 0.378 0.323 0.387 0.424 0.402 0.44 0.403 0.391
2845.781 0.433 0.532 0.556 0.482 0.426 0.407 0.39 0.373 0.368 0.332
2865.074 0.225 0.18 0.2 0.197 0.246 0.234 0.242 0.302 0.272 0.279
2884.368 0.298 0.267 0.244 0.228 0.09 0.03 0.11 0.11 0.04 0.07
2903.661 0.16 0.14 0.15 0.15 0.13 0.187 0.241 0.16 0.12 0.12
2922.955 0.19 0.269 0.217 0.18 0.14 0.05 0.12 0.275 0.234 0.189
2942.248 0.23 0.225 0.216 0.285 0.372 0.291 0.17 0.186 0.185 0.226
2961.542 0.26 0.355 0.383 0.346 0.332 0.288 0.35 0.357 0.322 0.353
2980.835 0.401 0.395 0.389 0.47 0.546 0.523 0.542 0.541 0.568 0.549
3000.128 0.585 0.719 0.754 0.774 0.767 0.845 0.986 1.1395 1.3422 1.6039
3019.422 1.9305 2.1044 2.1214 2.26 2.42 2.47 2.71 2.96 2.98 2.93
3038.715 2.65 2.0946 1.6632 1.3794 1.17267 1.058 1.009 0.998 0.944 0.994
3058.009 1.161 1.3058 1.4976 1.613 1.5744 1.5447 1.4029 1.21963 1.1629 1.25711
3077.302 1.3662 1.485 1.7323 1.996 2.111 2.25 2.44 2.56 2.52 2.32
3096.596 2.092 1.8149 1.6215 1.3392 1.062 0.988 0.869 0.721 0.603 0.59
3115.889 0.682 0.66 0.612 0.604 0.567 0.638 0.489 0.261 0.391 0.535
3135.182 0.459 0.382 0.338 0.332 0.271 0.334 0.341 0.1 0.1 0.286
3154.476 0.305 0.229 0.264 0.262 0.203 0.14 0.14 0.2 0.18 0.248
3173.769 0.338 0.334 0.193 0.09 0.219 0.208 0.14 0.14 0.04 0.03
3193.063 0.09 0.193 0.197 0.1 0.13 0.13 0.09 0.14 0.325 0.299
3212.356 0.225 0.208 0.16 0.11 0.05 0.1 0.1 0.08 0.03 0
3231.650 0.05 0.09 0.15 0.13 0.01 0.02 0.09 0.1 0.01 0.08
3250.943 0.12 0.1 0.183 0.225 0.296 0.265 0.253 0.252 0.18 0.15
3270.236 0.17 0.296 0.333 0.306 0.33 0.279 0.324 0.425 0.455 0.392
3289.530 0.312 0.318 0.281 0.306 0.443 0.409 0.17 0.185 0.306 0.378
3308.823 0.402 0.247 0.202 0.291 0.343 0.328 0.246 0.287 0.299 0.183
3328.117 0.293 0.41 0.373 0.289 0.307 0.367 0.471 0.566 0.441 0.379
3347.410 0.448 0.623 0.724 0.734 0.728 0.797 0.973 1.011 1.0879 1.18733
3366.704 1.21908 1.3538 1.3546 1.3373 1.4171 1.22993 1.084 1.041 0.86 0.759
3385.997 0.795 0.806 0.755 0.78 0.708 0.669 0.738 0.751 0.782 0.81
3405.290 0.841 0.815 0.847 0.978 1.1232 1.21002 1.20928 1.2972 1.26009 1.18385
3424.584 1.23002 1.19191 1.045 0.847 0.714 0.658 0.658 0.711 0.62 0.614
3443.877 0.753 0.719 0.655 0.636 0.577 0.564 0.587 0.657 0.633 0.476
3463.171 0.408 0.426 0.517 0.539 0.585 0.549 0.623 0.717 0.531 0.493
3482.464 0.49 0.439 0.406 0.381 0.497 0.487 0.522 0.644 0.583 0.535
3501.758 0.557 0.575 0.546 0.471 0.454 0.453 0.476 0.578 0.561 0.552
3521.051 0.547 0.556 0.684 0.687 0.635 0.663 0.71 0.639 0.62 0.761
3540.344 0.75 0.76 0.716 0.557 0.538 0.672 0.678 0.574 0.734 0.798
3559.638 0.686 0.678 0.7 0.655 0.597 0.676 0.749 0.679 0.657 0.681
3578.931 0.667 0.543 0.563 0.723 0.692 0.672 0.683 0.621 0.623 0.71
3598.225 0.69 0.651 0.688 0.74 0.769 0.84 0.797 0.723 0.826 0.789
3617.518 0.784 0.772 0.716 0.721 0.727 0.742 0.752 0.745 0.714 0.691
3636.812 0.682 0.677 0.625 0.746 0.831 0.757 0.772 0.746 0.737 0.83
3656.105 0.861 0.785 0.764 0.76 0.762 0.831 0.905 0.837 0.795 0.879
3675.398 0.863 0.785 0.789 0.77 0.761 0.845 0.912 0.853 0.783 0.749
3694.692 0.725 0.843 0.894 0.85 0.794 0.807 0.86 0.874 0.901 0.982
3713.985 0.99 1.02 1.077 0.997 0.976 0.982 0.999 0.964 0.94 0.96
3733.279 0.934 0.957 0.982 0.872 0.825 0.904 0.893 0.885 0.803 0.703
3752.572 0.752 0.764 0.704 0.704 0.787 0.858 0.841 0.795 0.762 0.828
3771.866 0.906 0.814 0.757 0.743 0.718 0.744 0.786 0.864 0.829 0.806
3791.159 0.874 0.928 0.976 0.999 0.949 0.863 0.836 0.831 0.818 0.877
3810.452 0.927 0.904 0.946 0.93 0.903 0.94 0.931 0.841 0.815 0.867
3829.746 0.95 0.991 0.962 0.902 0.815 0.773 0.775 0.808 0.852 0.95
3849.039 0.901 0.775 0.813 0.848 0.742 0.779 0.943 0.938 0.85 0.856
3868.333 0.873 0.841 0.844 0.815 0.776 0.805 0.811 0.762 0.808 0.839
3887.626 0.822 0.815 0.832 0.818 0.798 0.886 0.885 0.869 0.917 0.889
3906.920 0.862 0.904 0.893 0.842 0.816 0.848 0.87 0.758 0.732 0.808
3926.213 0.884 0.941 0.969 0.938 0.775 0.703 0.753 0.741 0.754 0.79
3945.506 0.755 0.726 0.727 0.777 0.738 0.7 0.711 0.69 0.71 0.744
3964.800 0.704 0.749 0.813 0.821 0.837 0.795 0.775 0.77 0.796 0.838
3984.093 0.835 0.754 0.771 0.852 0.841 0.81 0.804 0.818 0.868
##END=
