##TITLE=4-Fluoro-2-iodotoluene
##JCAMP-DX=4.24
##DATA TYPE=INFRARED SPECTRUM
##ORIGIN=EPA-IR VAPOR PHASE LIBRARY
##OWNER=SRD/NIST
Collection (C) 2018 copyright by the U.S. Secretary of Commerce
on behalf of the United States of America. All rights reserved.
##CAS REGISTRY NO=13194-67-7
##MOLFORM=C 7 H 6 F I
##$NIST SOURCE=MSDC-IR
##STATE=gas
##XUNITS=1/CM
##YUNITS=ABSORBANCE
##XFACTOR=1.
##YFACTOR=0.001
##DELTAX=1.92934
##FIRSTX=549.9
##LASTX=3999.5
##FIRSTY=3.88
##MAXX=3999.53
##MINX=549.863
##MAXY=0.13343
##MINY=0
##NPOINTS=1789
##XYDATA=(X++(Y..Y))
549.863 3.88 5.1 5.58 4.54 3.72 3.51 3.19 2.86 2.47 2.0381
569.156 1.6939 1.5083 1.2993 1.081 1.063 1.146 1.075 0.979 0.835 0.703
588.450 0.77 0.827 0.677 0.392 0.321 0.485 0.54 0.561 0.56 0.511
607.743 0.6 0.634 0.642 0.654 0.759 0.908 0.856 0.753 0.854 0.965
627.037 0.928 1.044 1.162 1.186 1.2326 1.2585 1.218 1.30695 1.4538 1.5027
646.330 1.7201 2.0114 2.38 3 3.79 4.74 5.92 6.96 7.56 7.81
665.624 7.92 7.84 7.52 6.97 5.94 4.91 4.25 3.97 4.08 4.35
684.917 4.22 3.59 3.08 2.84 2.63 2.31 2.0405 1.9427 1.8083 1.7149
704.210 1.7509 1.8056 1.9165 2.1087 2.3047 2.59 3.03 3.45 4 4.79
723.504 5.87 7.79 10.77 14.86 19.35 22.68 23.84 23.88 23.46 22.73
742.797 21.28 17.17 11.62 7.31 4.77 3.45 2.78 2.33 2.1325 2.0759
762.091 1.9634 2.0377 2.0641 1.9773 1.9678 1.9368 1.961 2.0541 2.1352 2.2791
781.384 2.58 3.08 3.83 5.04 6.83 9.24 12.05 15.13 18.27 21.31
800.678 24.36 28.06 32.89 36.81 33.48 25.83 21.94 19.83 17.24 14.31
819.971 11.25 8.64 6.67 5.4 4.68 4.3 4.13 4.15 4.44 5.02
839.264 5.89 7.18 9.2 12.48 17.26 23.77 32.09 41.31 50.11 57.41
858.558 63.06 67.63 71.75 72.71 65.53 55.32 47.84 41.9 37.45 34.25
877.851 31.65 29.25 26.78 24.06 21.01 17.87 15.08 12.75 10.67 8.81
897.145 7.26 6.02 5.07 4.41 4.02 3.75 3.54 3.39 3.32 3.23
916.438 3.08 2.98 2.87 2.7 2.52 2.32 2.1756 2.0286 1.9114 1.8953
935.732 1.8212 1.7416 1.6398 1.5524 1.5688 1.5673 1.5195 1.4875 1.4985 1.5561
955.025 1.6379 1.6718 1.7525 1.8226 1.8132 1.9251 2.0754 2.1596 2.2844 2.49
974.318 2.76 3.06 3.36 3.74 4.24 4.9 5.49 5.99 6.41 6.64
993.612 6.69 6.6 6.37 6.08 5.72 5.32 5.16 5.31 5.74 6.45
1012.905 7.5 8.85 10.53 12.67 15.29 18.32 21.35 23.5 24.22 23.93
1032.199 23.2 22.1 20.21 16.75 12.27 8.5 6.07 4.67 3.88 3.41
1051.492 3.06 2.8 2.59 2.44 2.35 2.2845 2.1635 2.0745 2.0267 1.9865
1070.786 2.0308 2.0611 2.0108 1.9731 1.9706 1.9782 1.9249 1.8485 1.7815 1.7647
1090.079 1.7803 1.8076 1.7221 1.7497 1.9624 1.9132 1.9365 1.9887 1.9764 2.0463
1109.372 2.0554 1.9859 1.9655 1.9964 2.0077 2.056 2.31 2.68 2.89 3.12
1128.666 3.28 3.34 3.31 3.19 3.09 2.94 2.55 2.1723 2.0626 1.9086
1147.959 1.8608 1.9595 2.0134 2.1283 2.32 2.69 3.29 4.03 4.88 6.05
1167.253 7.59 9.18 10.87 12.62 13.98 14.56 14.77 15.13 15.28 14.96
1186.546 14.03 12.63 11.24 10.32 9.83 9.48 9.55 9.8 10 10.4
1205.840 11.13 12.45 14.44 17.28 20.91 25.71 31.85 38.94 47.03 54.77
1225.133 60.45 63.49 64.27 64 62.88 59.09 51.38 40.88 30.62 22.99
1244.426 17.8 14.54 13.08 13.12 14.46 17.03 20.31 23.94 27.64 31.02
1263.720 34.23 37.18 39.13 39.14 37.14 34.19 31.19 28.22 24.76 20.41
1283.013 15.78 11.79 8.66 6.51 5.12 4 3.22 2.82 2.6 2.46
1302.307 2.36 2.32 2.2875 2.2901 2.36 2.3038 2.2617 2.2771 2.36 2.42
1321.600 2.44 2.43 2.37 2.32 2.32 2.31 2.31 2.37 2.45 2.51
1340.894 2.62 2.76 2.95 3.26 3.66 4.05 4.38 4.69 4.97 5.1
1360.187 5.25 5.44 5.54 5.57 5.59 5.68 5.98 6.46 7.09 7.78
1379.480 8.4 8.86 9.17 9.34 9.26 9.02 8.79 8.43 7.79 7.05
1398.774 6.52 6.31 6.37 6.68 7.26 8.02 9 9.97 10.64 10.98
1418.067 11.13 11.29 11.35 11.18 10.74 10.28 10.09 10.27 10.76 11.42
1437.361 12.26 13.07 13.87 14.71 15.47 16.12 16.52 16.82 17.28 18.03
1456.654 19.3 21.02 23.32 26.63 31.29 37.73 46.31 57.24 70.55 85.54
1475.948 100.22 113.14 122.51 128.68 132.43 133.43 129.41 118.63 102.32 85.44
1495.241 70.59 57.26 44.64 32.93 23.7 17.35 13.03 10.23 8.5 7.34
1514.534 6.6 6.09 5.74 5.56 5.45 5.36 5.36 5.33 5.31 5.4
1533.828 5.49 5.6 5.73 5.83 6.02 6.32 6.63 6.92 7.23 7.56
1553.121 7.99 8.53 9.17 10.13 11.32 12.83 15.07 17.96 21.69 26.55
1572.415 32.59 39.82 48.48 58.01 67.73 77.36 85.75 91.85 94.55 93.2
1591.708 87.98 80.34 71.48 62.27 53.31 44.9 37.58 31.58 26.99 23.66
1611.002 21.24 19.34 17.83 16.5 15.21 14.03 12.84 11.59 10.32 8.95
1630.295 7.66 6.57 5.73 5.1 4.53 4.06 3.66 3.37 3.18 3.04
1649.588 2.98 2.93 2.89 2.84 2.8 2.72 2.68 2.62 2.48 2.37
1668.882 2.2604 2.1898 2.1095 2.0349 1.978 1.8822 1.8459 1.7903 1.7451 1.7789
1688.175 1.802 1.8547 1.943 2.0008 2.0953 2.1312 2.1987 2.34 2.43 2.55
1707.469 2.66 2.79 3.01 3.25 3.51 3.78 4.05 4.19 4.23 4.29
1726.762 4.31 4.28 4.26 4.18 3.98 3.7 3.39 3.11 2.89 2.6
1746.056 2.3005 2.0572 1.85 1.6818 1.5962 1.5023 1.418 1.39126 1.35021 1.30542
1765.349 1.2837 1.287 1.207 1.175 1.2 1.159 1.123 1.134 1.168 1.145
1784.642 1.133 1.118 1.117 1.109 1.097 1.179 1.191 1.138 1.166 1.209
1803.936 1.188 1.194 1.174 1.163 1.14 1.159 1.209 1.2133 1.213 1.161
1823.229 1.144 1.16 1.198 1.2457 1.2698 1.2909 1.30792 1.364 1.4107 1.4574
1842.523 1.5334 1.6052 1.6454 1.745 1.9505 2.1099 2.31 2.58 2.84 3.11
1861.816 3.41 3.6 3.72 3.8 3.73 3.53 3.34 3.14 2.84 2.55
1881.110 2.266 2.0224 1.9088 1.7493 1.6494 1.5883 1.4522 1.4386 1.4135 1.34508
1900.403 1.35493 1.34878 1.35304 1.32365 1.2677 1.2517 1.2442 1.2236 1.205 1.2189
1919.696 1.2463 1.2746 1.2846 1.2791 1.2785 1.31683 1.33359 1.35571 1.37785 1.37075
1938.990 1.38973 1.4532 1.5049 1.4996 1.5084 1.5308 1.5818 1.6684 1.7297 1.7768
1958.283 1.8673 1.9045 1.9225 1.9469 1.9262 1.8517 1.7564 1.7101 1.5948 1.4884
1977.577 1.4551 1.36327 1.297 1.2333 1.189 1.2126 1.2435 1.2244 1.21 1.202
1996.870 1.187 1.206 1.2281 1.2535 1.2759 1.2597 1.2432 1.2668 1.2446 1.2188
2016.164 1.221 1.167 1.137 1.152 1.136 1.146 1.159 1.172 1.191 1.2235
2035.457 1.2588 1.2592 1.2739 1.2979 1.3212 1.30825 1.30956 1.2992 1.2636 1.30653
2054.750 1.3054 1.2737 1.2787 1.2967 1.2822 1.251 1.2916 1.30628 1.2813 1.31874
2074.044 1.36761 1.33693 1.32254 1.35851 1.4131 1.4297 1.4154 1.4137 1.4268 1.4321
2093.337 1.40261 1.35398 1.32095 1.32614 1.31531 1.2714 1.243 1.24 1.2144 1.189
2112.631 1.182 1.186 1.204 1.2319 1.2106 1.208 1.2208 1.198 1.2265 1.2178
2131.924 1.162 1.136 1.101 1.073 1.089 1.106 1.139 1.132 1.049 1.085
2151.218 1.117 1.085 1.082 1.043 0.987 0.999 0.99 0.909 0.901 0.913
2170.511 0.906 0.883 0.865 0.844 0.806 0.821 0.827 0.831 0.855 0.828
2189.804 0.829 0.852 0.835 0.835 0.812 0.853 0.903 0.887 0.899 0.916
2209.098 0.956 0.954 0.915 0.933 0.948 0.944 0.921 0.897 0.901 0.899
2228.391 0.893 0.902 0.87 0.856 0.862 0.885 0.941 0.943 0.941 0.922
2247.685 0.912 0.949 0.969 0.968 0.983 0.989 1 1.053 1.069 1.023
2266.978 1.008 1.034 1.034 1.019 1.005 1.03 1.037 1.033 1.054 1.075
2286.272 1.138 1.179 1.172 1.2139 1.2656 1.2486 1.2184 1.186 1.149 1.2
2305.565 1.2199 1.147 1.097 1.099 1.104 1.104 1.139 1.144 1.139 1.178
2324.858 1.193 1.2169 1.24 1.2128 1.2401 1.2765 1.2575 1.2479 1.2735 1.2557
2344.152 1.2537 1.263 1.2385 1.2338 1.242 1.2411 1.242 1.197 1.169 1.168
2363.445 1.163 1.17 1.173 1.16 1.125 1.138 1.157 1.124 1.098 1.088
2382.739 1.102 1.125 1.115 1.11 1.166 1.209 1.2118 1.2609 1.2874 1.31728
2402.032 1.33205 1.32631 1.31285 1.31763 1.32383 1.32995 1.32428 1.2605 1.2382 1.2754
2421.326 1.2518 1.2616 1.31 1.32314 1.38481 1.4226 1.443 1.4958 1.6006 1.6493
2440.619 1.7084 1.7956 1.8241 1.8557 1.855 1.8832 1.9434 1.9242 1.8164 1.7749
2459.912 1.7788 1.7312 1.6703 1.6236 1.5855 1.5503 1.5063 1.4738 1.4954 1.4969
2479.206 1.4892 1.4855 1.5004 1.5369 1.5426 1.5019 1.4945 1.4874 1.4278 1.417
2498.499 1.39098 1.3409 1.31886 1.31034 1.32723 1.2762 1.2324 1.196 1.086 1.121
2517.793 1.179 1.108 1.072 1.066 1.067 1.088 1.073 1.057 1.009 0.976
2537.086 1.003 0.992 0.947 0.944 0.954 0.921 0.91 0.914 0.884 0.838
2556.380 0.811 0.819 0.882 0.912 0.905 0.934 0.946 0.883 0.87 0.889
2575.673 0.907 0.94 0.892 0.885 0.918 0.874 0.828 0.922 0.974 0.973
2594.966 1.027 1.047 1.049 1.013 1.013 1.063 1.009 0.975 1.026 1.036
2614.260 1.04 1.006 0.937 0.929 0.942 0.907 0.853 0.806 0.792 0.751
2633.553 0.72 0.741 0.78 0.771 0.787 0.807 0.832 0.869 0.858 0.841
2652.847 0.826 0.864 0.868 0.881 0.892 0.825 0.76 0.807 0.834 0.767
2672.140 0.759 0.788 0.813 0.852 0.862 0.802 0.737 0.75 0.768 0.824
2691.434 0.833 0.801 0.854 0.873 0.881 0.907 0.97 0.975 0.934 0.963
2710.727 0.975 0.976 0.954 0.924 0.969 1.02 1.063 1.005 0.912 0.938
2730.020 0.917 0.922 0.946 0.974 1.065 1.13 1.109 1.102 1.193 1.2674
2749.314 1.36387 1.3636 1.33101 1.2927 1.2569 1.198 1.09 1.1 1.01 0.914
2768.607 0.921 0.899 0.89 0.814 0.763 0.775 0.717 0.612 0.674 0.717
2787.901 0.746 0.816 0.793 0.796 0.814 0.857 0.861 0.826 0.834 0.856
2807.194 0.914 0.957 1.009 1.082 1.109 1.30188 1.4108 1.4152 1.5093 1.5782
2826.488 1.594 1.5974 1.6915 1.7268 1.7643 1.8464 1.9392 2.1215 2.1203 2.1626
2845.781 2.3077 2.36 2.47 2.58 2.69 2.84 2.99 3.19 3.51 3.77
2865.074 3.99 4.24 4.5 4.62 4.68 4.81 4.84 4.8 4.63 4.37
2884.368 4.15 3.93 3.79 3.69 3.49 3.46 3.49 3.51 3.64 3.62
2903.661 3.56 3.73 3.92 4.09 4.25 4.44 4.85 5.3 5.77 6.4
2922.955 7.22 8.17 9.1 10.03 10.85 11.41 11.68 11.7 11.68 11.43
2942.248 10.92 10.27 9.45 8.82 8.43 8.03 7.88 7.87 7.91 8.18
2961.542 8.59 8.68 8.6 8.56 8.57 8.61 8.82 9.08 9.18 9.4
2980.835 9.66 9.83 9.79 9.52 9.12 8.75 8.37 7.68 6.91 6.15
3000.128 5.5 5.1 4.66 4.26 3.96 3.76 3.75 3.86 4.09 4.38
3019.422 4.69 5.09 5.55 6.02 6.5 6.95 7.29 7.32 7.19 7.03
3038.715 6.85 6.55 5.99 5.37 4.89 4.61 4.6 4.72 4.81 5.04
3058.009 5.53 5.96 6.29 6.75 7.01 7.24 7.39 7.32 7.3 7.11
3077.302 6.9 6.72 6.37 5.99 5.58 5.07 4.68 4.32 3.9 3.32
3096.596 2.71 2.32 2.1229 1.7936 1.5992 1.572 1.2769 1.177 1.158 0.99
3115.889 0.932 0.969 0.798 0.662 0.652 0.54 0.484 0.483 0.421 0.409
3135.182 0.505 0.575 0.52 0.376 0.323 0.343 0.458 0.557 0.412 0.3
3154.476 0.28 0.344 0.444 0.326 0.18 0.24 0.24 0.28 0.396 0.377
3173.769 0.366 0.22 0.14 0.17 0.25 0.23 0.21 0.3 0.24 0.18
3193.063 0.28 0.29 0.24 0.11 0.09 0.19 0.16 0.08 0.07 0.1
3212.356 0.09 0.09 0.08 0.14 0.14 0.04 0 0.06 0.09 0.22
3231.650 0.29 0.16 0.07 0.13 0.28 0.25 0.09 0.1 0.16 0.12
3250.943 0.12 0.08 0.04 0.18 0.16 0.18 0.2 0.01 0.09 0.08
3270.236 0.09 0.15 0.14 0.15 0.02 0.03 0.07 0.12 0.23 0.21
3289.530 0.12 0.09 0.19 0.21 0.27 0.31 0.18 0.14 0.22 0.25
3308.823 0.24 0.22 0.25 0.19 0.14 0.25 0.333 0.29 0.27 0.24
3328.117 0.16 0.23 0.423 0.362 0.17 0.09 0.05 0.03 0.12 0.22
3347.410 0.358 0.356 0.29 0.466 0.367 0.25 0.324 0.25 0.28 0.3
3366.704 0.15 0.11 0.24 0.29 0.27 0.329 0.326 0.23 0.25 0.405
3385.997 0.344 0.22 0.314 0.445 0.405 0.401 0.444 0.361 0.34 0.443
3405.290 0.359 0.28 0.323 0.25 0.31 0.377 0.25 0.17 0.23 0.336
3424.584 0.321 0.382 0.425 0.342 0.468 0.401 0.311 0.312 0.338 0.437
3443.877 0.398 0.409 0.515 0.472 0.455 0.501 0.345 0.27 0.26 0.24
3463.171 0.325 0.31 0.35 0.493 0.458 0.25 0.18 0.27 0.347 0.433
3482.464 0.517 0.452 0.29 0.34 0.411 0.352 0.35 0.416 0.439 0.439
3501.758 0.467 0.474 0.425 0.474 0.519 0.371 0.334 0.504 0.527 0.537
3521.051 0.566 0.43 0.327 0.352 0.418 0.485 0.485 0.34 0.322 0.369
3540.344 0.336 0.379 0.461 0.522 0.542 0.409 0.486 0.569 0.439 0.478
3559.638 0.532 0.571 0.63 0.612 0.574 0.411 0.463 0.571 0.528 0.652
3578.931 0.731 0.77 0.747 0.555 0.484 0.546 0.596 0.607 0.592 0.559
3598.225 0.505 0.527 0.49 0.475 0.493 0.416 0.371 0.362 0.41 0.541
3617.518 0.578 0.679 0.703 0.581 0.556 0.511 0.503 0.528 0.552 0.692
3636.812 0.759 0.68 0.66 0.683 0.7 0.745 0.711 0.616 0.599 0.605
3656.105 0.574 0.592 0.645 0.661 0.559 0.425 0.559 0.819 0.757 0.523
3675.398 0.481 0.475 0.428 0.543 0.711 0.73 0.665 0.708 0.811 0.729
3694.692 0.655 0.723 0.856 0.827 0.692 0.749 0.761 0.692 0.691 0.799
3713.985 0.816 0.682 0.604 0.641 0.655 0.682 0.695 0.639 0.765 0.759
3733.279 0.627 0.632 0.782 0.88 0.806 0.745 0.727 0.75 0.718 0.615
3752.572 0.736 0.953 0.848 0.817 0.901 0.885 0.852 0.866 0.824 0.699
3771.866 0.667 0.672 0.652 0.653 0.755 0.701 0.583 0.707 0.754 0.701
3791.159 0.767 0.781 0.711 0.585 0.549 0.571 0.552 0.615 0.658 0.672
3810.452 0.75 0.752 0.671 0.603 0.673 0.846 0.8 0.766 0.814 0.716
3829.746 0.625 0.629 0.682 0.729 0.76 0.737 0.691 0.669 0.695 0.682
3849.039 0.576 0.6 0.678 0.624 0.581 0.662 0.672 0.668 0.79 0.808
3868.333 0.787 0.681 0.643 0.695 0.66 0.652 0.676 0.696 0.656 0.632
3887.626 0.668 0.776 0.863 0.781 0.685 0.721 0.814 0.829 0.753 0.732
3906.920 0.8 0.796 0.72 0.729 0.805 0.775 0.764 0.794 0.794 0.784
3926.213 0.803 0.804 0.792 0.818 0.824 0.932 0.919 0.78 0.776 0.8
3945.506 0.783 0.763 0.664 0.714 0.9 0.846 0.739 0.776 0.802 0.838
3964.800 0.811 0.813 0.868 0.82 0.776 0.766 0.635 0.562 0.787 0.883
3984.093 0.785 0.723 0.756 0.794 0.776 0.793 0.704 0.698 0.665
##END=
