##TITLE=2-Amino-5-iodotoluene
##JCAMP-DX=4.24
##DATA TYPE=INFRARED SPECTRUM
##ORIGIN=NIST Mass Spectrometry Data Center
##OWNER=NIST Standard Reference Data Program
Collection (C) 2018 copyright by the U.S. Secretary of Commerce
on behalf of the United States of America. All rights reserved.
##CAS REGISTRY NO=13194-68-8
##MOLFORM=C 7 H 8 I N
##$NIST SOURCE=MSDC-IR
##SPECTROMETER/DATA SYSTEM=HP-GC/MS/IRD
##STATE=gas
##XUNITS=1/CM
##YUNITS=ABSORBANCE
##XFACTOR=1.0
##YFACTOR=0.000002800
##DELTAX=4.0
##FIRSTX=550.0
##LASTX=3846.0
##FIRSTY=0.001490
##MAXX=3846
##MINX=550
##MAXY=0.028
##MINY=0
##NPOINTS=825
##XYDATA=(X++(Y..Y))
550.0 532 739 488 556 570 589 581 582 587 598
590.0 659 721 807 920 1065 1260 1496 1689 1653 1390
630.0 1032 741 670 726 814 919 973 992 996 998
670.0 1004 1031 1051 1068 1101 1085 1028 958 900 855
710.0 821 832 801 773 758 730 699 635 580 560
750.0 497 409 357 334 336 353 400 490 650 896
790.0 1210 1568 1930 2209 2225 2000 1673 1305 991 757
830.0 614 563 545 553 610 749 978 1272 1551 1688
870.0 1700 1539 1171 840 607 427 305 212 144 117
910.0 98 87 71 64 55 47 44 40 38 48
950.0 67 80 90 104 110 119 143 180 226 293
990.0 318 275 201 121 81 68 47 45 53 60
1030.0 82 139 215 327 455 565 619 595 527 476
1070.0 462 447 427 407 371 333 291 257 239 231
1110.0 227 220 226 224 215 239 289 394 593 949
1150.0 1260 1318 1160 777 397 241 229 312 521 811
1190.0 1061 1122 929 586 283 105 37 22 40 94
1230.0 168 246 340 481 709 1067 1662 2561 3658 4680
1270.0 5250 4950 3914 2599 1500 1061 1081 1126 1033 778
1310.0 466 248 130 73 40 16 3 1 6 16
1350.0 29 42 52 52 54 73 126 228 402 684
1390.0 1040 1375 1542 1482 1241 924 688 554 482 467
1430.0 480 512 548 609 709 877 1114 1442 1782 2094
1470.0 2484 3314 4983 7504 9680 10000 8313 5327 2750 1538
1510.0 1027 749 565 437 358 315 285 267 262 277
1550.0 306 365 449 546 642 729 785 779 747 734
1590.0 761 849 995 1220 1556 2063 2763 3552 4159 4329
1630.0 3984 3244 2387 1671 1155 806 582 437 334 265
1670.0 224 196 167 145 134 124 119 114 115 120
1710.0 122 128 146 168 175 177 188 191 169 134
1750.0 101 63 33 19 8 5 0 1 10 16
1790.0 21 28 30 34 32 30 21 14 14 20
1830.0 24 32 57 93 129 152 157 148 132 104
1870.0 73 53 41 36 33 32 32 36 40 37
1910.0 36 34 28 30 28 23 21 23 20 15
1950.0 16 16 16 16 14 16 18 16 14 17
1990.0 24 34 40 41 44 45 50 56 61 65
2030.0 60 54 46 35 32 35 36 33 37 41
2070.0 38 37 33 38 39 41 42 40 39 38
2110.0 43 44 45 52 55 54 53 50 50 50
2150.0 48 50 48 51 53 54 54 47 40 36
2190.0 46 59 61 62 63 66 63 63 64 64
2230.0 65 67 73 71 70 69 67 60 51 50
2270.0 43 38 47 51 51 54 53 51 48 61
2310.0 67 72 71 65 69 73 72 65 62 58
2350.0 54 56 68 79 77 68 68 66 58 60
2390.0 57 51 52 51 50 52 53 57 65 69
2430.0 68 65 58 60 69 69 73 81 73 65
2470.0 65 57 50 52 55 52 48 47 45 45
2510.0 50 51 50 52 66 85 91 91 89 81
2550.0 75 68 64 76 85 91 92 94 93 78
2590.0 61 46 41 48 47 39 45 51 51 53
2630.0 50 42 45 52 45 41 52 58 58 61
2670.0 60 51 59 66 52 50 54 54 51 54
2710.0 59 63 74 79 72 80 94 111 131 136
2750.0 137 127 102 92 90 83 92 98 100 104
2790.0 105 104 101 93 95 111 117 122 137 148
2830.0 164 197 233 269 320 392 454 524 610 710
2870.0 822 925 998 1012 987 948 912 908 930 953
2910.0 965 966 1020 1135 1268 1366 1402 1366 1246 1094
2950.0 951 835 729 660 636 649 688 729 755 749
2990.0 711 635 562 535 572 660 796 944 1042 1047
3030.0 946 794 681 633 627 634 613 563 532 532
3070.0 536 542 549 524 486 438 376 315 253 205
3110.0 175 156 133 123 118 107 103 97 94 85
3150.0 78 81 81 77 74 67 68 73 71 81
3190.0 91 93 96 106 109 114 101 104 119 115
3230.0 122 136 123 106 98 88 85 77 71 65
3270.0 54 57 66 68 57 55 47 48 44 40
3310.0 65 71 53 37 41 43 60 64 50 42
3350.0 46 57 64 71 75 96 114 119 145 181
3390.0 226 299 404 582 808 976 1036 938 737 549
3430.0 385 264 219 187 163 141 131 143 165 201
3470.0 237 291 376 470 563 641 693 706 671 592
3510.0 503 408 303 236 198 161 134 106 85 76
3550.0 76 70 52 50 59 58 70 77 68 52
3590.0 45 47 47 54 62 69 65 54 52 54
3630.0 46 50 70 74 66 65 62 53 57 64
3670.0 58 61 55 46 52 63 68 63 57 70
3710.0 72 51 44 60 66 67 78 89 87 74
3750.0 60 62 63 51 56 65 83 101 80 68
3790.0 76 59 47 64 72 63 69 71 59 56
3830.0 67 70 79 87 93
##END=
