##TITLE=2,5-Dibromo-3-methylthiophene
##JCAMP-DX=4.24
##DATA TYPE=INFRARED SPECTRUM
##ORIGIN=EPA-IR VAPOR PHASE LIBRARY
##OWNER=SRD/NIST
Collection (C) 2018 copyright by the U.S. Secretary of Commerce
on behalf of the United States of America. All rights reserved.
##CAS REGISTRY NO=13191-36-1
##MOLFORM=C 5 H 4 Br 2 S
##$NIST SOURCE=MSDC-IR
##STATE=gas
##XUNITS=1/CM
##YUNITS=ABSORBANCE
##XFACTOR=1.
##YFACTOR=0.001
##DELTAX=1.92934
##FIRSTX=549.9
##LASTX=3999.5
##FIRSTY=9.15
##MAXX=3999.53
##MINX=549.863
##MAXY=0.13104
##MINY=0
##NPOINTS=1789
##XYDATA=(X++(Y..Y))
549.863 9.15 9.99 10.59 10.43 9.67 8.74 7.66 6.8 6.43 6.44
569.156 6.82 7.38 8.02 8.67 9.31 10.67 12.93 12.4 9.74 8.7
588.450 8.2 7.34 6.17 4.93 3.95 3.138 2.5617 2.121 1.815 1.604
607.743 1.521 1.553 1.544 1.498 1.456 1.512 1.616 1.615 1.606 1.731
627.037 1.796 1.694 1.652 1.767 1.852 1.942 2.11 2.2866 2.5573 2.9962
646.330 3.62 4.33 4.77 4.87 4.82 4.69 4.46 4.31 4.57 5.17
665.624 5.5 5.35 5.19 5.14 4.76 4.18 3.96 4.28 5.27 6.75
684.917 8.11 8.66 8.66 8.81 8.66 7.26 5.15 3.68 3.026 2.7741
704.210 2.6115 2.4755 2.43089 2.41833 2.5561 2.7962 3.1488 3.79 4.78 6.31
723.504 8.52 11.35 14.1 15.71 15.85 15.07 13.71 11.5 8.75 6.36
742.797 4.73 3.82 3.41 3.2401 3.2102 3.266 3.41 3.54 3.61 3.58
762.091 3.55 3.59 3.52 3.47 3.45 3.52 3.77 4.01 4.3 4.52
781.384 4.67 4.79 4.9 4.92 4.95 5.15 5.51 6.22 7.54 9.55
800.678 12.63 16.97 22.79 30.04 38.71 48.19 57.86 66.35 73.94 81.6
819.971 94.82 97.42 78.8 66.73 61.49 53.7 44.97 36.21 28.56 22.15
839.264 17.45 14.11 11.82 9.88 8.31 7.18 6.39 5.8 5.44 5.21
858.558 5.05 4.97 4.96 5.01 5.18 5.37 5.55 5.7 5.85 6.03
877.851 6.32 6.59 6.85 7.05 7.33 7.82 8.58 9.71 11.46 14.32
897.145 18.77 25.44 35.1 47.94 63.24 79.27 93.64 104.11 109.09 106.76
916.438 96.03 79.2 61.07 44.48 29.95 19.46 13.94 11.35 9.71 8.41
935.732 7.54 7.25 7.45 7.98 8.67 9.31 9.85 10.39 11.09 11.94
955.025 12.82 13.93 15.55 17.8 20.7 24.12 28.02 32.45 37.62 43.85
974.318 51.39 60.17 69.73 79.02 86.46 90.53 90.22 85.35 76.6 65.69
993.612 55.41 48.38 45.83 47.42 51.95 58.19 65.16 72.15 79.07 86.23
1012.905 94.09 102.96 112.33 120.98 127.58 131.04 130.36 124.33 112.72 97.49
1032.199 81.86 68.15 56.48 46.73 39.82 35.93 34.24 34.02 34.79 35.78
1051.492 36.13 35.53 34.19 32.29 29.57 26.21 23.07 20.63 18.89 17.81
1070.786 17.29 17 16.48 15.57 14.43 13.21 11.9 10.47 9.16 8.28
1090.079 7.8 7.54 7.37 7.25 7.18 6.98 6.67 6.34 5.99 5.56
1109.372 5.15 4.76 4.38 4.14 3.93 3.72 3.52 3.3481 3.2472 3.1516
1128.666 3.0945 3.0446 2.9443 2.8978 2.962 3.0538 3.1135 3.1018 3.1497 3.2825
1147.959 3.3291 3.37 3.56 3.73 3.92 4.27 4.58 4.78 5 5.23
1167.253 5.58 6.23 7.38 9.81 14.51 22.95 36.78 55.33 72.62 80.87
1186.546 81.06 78.42 71.31 54.88 34.35 19.67 12.27 8.99 7.49 6.68
1205.840 6.14 5.7 5.2 4.71 4.28 4 3.72 3.47 3.3459 3.2503
1225.133 3.1499 3.1276 3.0898 2.9565 2.9141 2.8895 2.9181 2.9775 2.8937 2.8709
1244.426 2.9022 2.8006 2.7341 2.8007 2.8084 2.7843 2.8633 2.9717 3.0191 3.0534
1263.720 3.0986 3.1662 3.2653 3.3165 3.44 3.57 3.72 3.93 4.18 4.52
1283.013 4.83 5.17 5.54 5.86 6.11 6.21 6.16 6.17 6.26 6.29
1302.307 6.2 6.09 6.04 6.12 6.3 6.56 6.95 7.5 8.22 9.1
1321.600 10.11 11.18 12.31 13.55 14.82 15.88 16.65 17.08 17.15 16.92
1340.894 16.45 15.67 14.51 13.16 11.84 10.75 9.9 9.34 9.06 8.93
1360.187 9.03 9.29 9.67 10.2 10.89 11.7 12.7 13.98 15.49 17.28
1379.480 19.41 21.5 22.94 23.77 24.78 26.09 26.87 27.27 28.29 30.23
1398.774 33.09 36.82 41.31 46.65 52.61 58.62 64.08 68.52 71.45 72.69
1418.067 72.17 69.92 66.15 60.84 54.2 47.26 40.65 34.79 29.76 25.67
1437.361 22.39 20.03 18.4 17.4 16.85 16.51 16.33 16.18 16.04 16.01
1456.654 16.04 16.04 15.99 15.91 15.65 15.23 14.74 14.23 13.79 13.4
1475.948 13.06 12.82 12.63 12.49 12.36 12.35 12.45 12.6 12.8 13.06
1495.241 13.4 13.77 14.04 14.31 14.65 15.04 15.46 15.9 16.36 16.88
1514.534 17.47 18.08 18.68 19.39 20.18 21.03 22.12 23.47 25.16 27.42
1533.828 30.43 34.28 39.06 45.17 52.11 59.22 65.83 70.69 72.7 71.41
1553.121 66.81 59.31 50.3 40.16 30.61 23.39 18.24 14.91 12.75 11.3
1572.415 10.25 9.45 8.85 8.39 7.97 7.58 7.24 6.98 6.8 6.65
1591.708 6.53 6.46 6.43 6.42 6.42 6.49 6.58 6.67 6.77 6.88
1611.002 7.11 7.42 7.73 8.12 8.64 9.3 10.08 11.01 11.99 12.98
1630.295 13.91 14.77 15.24 15.01 14.31 13.59 12.89 11.76 10.11 8.42
1649.588 7.01 5.88 4.93 4.21 3.7 3.2969 3.0159 2.8142 2.6725 2.5724
1668.882 2.475 2.38459 2.3006 2.2639 2.209 2.14 2.122 2.148 2.113 1.986
1688.175 1.914 1.903 1.888 1.889 1.873 1.824 1.824 1.794 1.782 1.809
1707.469 1.816 1.814 1.814 1.824 1.859 1.889 1.935 2.031 2.065 2.137
1726.762 2.234 2.2988 2.42168 2.4955 2.5144 2.5028 2.45701 2.39368 2.3255 2.2777
1746.056 2.241 2.175 2.116 2.085 2.082 2.067 2.009 1.948 1.917 1.896
1765.349 1.866 1.846 1.841 1.824 1.811 1.83 1.852 1.867 1.855 1.831
1784.642 1.837 1.873 1.882 1.866 1.857 1.854 1.854 1.838 1.809 1.783
1803.936 1.764 1.773 1.755 1.732 1.749 1.752 1.742 1.729 1.713 1.724
1823.229 1.738 1.739 1.756 1.794 1.824 1.8 1.792 1.81 1.846 1.882
1842.523 1.927 1.987 2.032 2.059 2.079 2.111 2.132 2.157 2.179 2.236
1861.816 2.3288 2.40493 2.5006 2.6031 2.6856 2.7306 2.7537 2.7869 2.7637 2.709
1881.110 2.663 2.5815 2.4878 2.40127 2.344 2.3322 2.3132 2.2898 2.238 2.163
1900.403 2.132 2.067 1.991 1.931 1.883 1.864 1.821 1.786 1.786 1.808
1919.696 1.827 1.831 1.852 1.878 1.9 1.924 1.945 1.98 1.981 2.008
1938.990 2.037 2.04 2.048 2.012 1.96 1.937 1.947 1.935 1.903 1.88
1958.283 1.865 1.868 1.876 1.896 1.891 1.87 1.852 1.813 1.774 1.747
1977.577 1.686 1.638 1.645 1.624 1.589 1.586 1.61 1.626 1.617 1.606
1996.870 1.605 1.631 1.637 1.622 1.599 1.556 1.573 1.567 1.541 1.541
2016.164 1.516 1.494 1.485 1.469 1.478 1.476 1.448 1.446 1.453 1.467
2035.457 1.462 1.443 1.458 1.474 1.459 1.455 1.47 1.498 1.511 1.505
2054.750 1.54 1.584 1.585 1.609 1.659 1.711 1.741 1.751 1.772 1.768
2074.044 1.747 1.749 1.743 1.682 1.669 1.703 1.711 1.721 1.747 1.771
2093.337 1.767 1.763 1.766 1.766 1.767 1.82 1.845 1.78 1.73 1.689
2112.631 1.646 1.609 1.534 1.507 1.548 1.531 1.511 1.515 1.513 1.529
2131.924 1.553 1.584 1.617 1.656 1.726 1.782 1.805 1.86 1.942 2.019
2151.218 2.047 2.045 2.064 2.061 2.028 1.961 1.917 1.877 1.779 1.75
2170.511 1.758 1.717 1.654 1.578 1.55 1.502 1.482 1.505 1.487 1.505
2189.804 1.521 1.515 1.519 1.524 1.532 1.521 1.51 1.539 1.572 1.582
2209.098 1.538 1.507 1.53 1.482 1.438 1.422 1.42 1.429 1.418 1.407
2228.391 1.383 1.373 1.383 1.404 1.421 1.435 1.443 1.471 1.513 1.532
2247.685 1.539 1.528 1.527 1.506 1.48 1.508 1.537 1.551 1.526 1.49
2266.978 1.476 1.503 1.542 1.557 1.561 1.592 1.628 1.661 1.708 1.731
2286.272 1.773 1.839 1.932 2.035 2.069 2.096 2.096 2.074 2.113 2.085
2305.565 2.033 1.959 1.877 1.865 1.845 1.846 1.866 1.841 1.839 1.862
2324.858 1.861 1.859 1.868 1.872 1.849 1.8 1.786 1.817 1.821 1.837
2344.152 1.876 1.922 1.98 2.029 2.079 2.141 2.204 2.3296 2.43081 2.4992
2363.445 2.6326 2.7362 2.7816 2.7885 2.7502 2.7052 2.6299 2.5137 2.41244 2.37397
2382.739 2.3422 2.2973 2.3032 2.3154 2.35056 2.42658 2.4386 2.45563 2.533 2.555
2402.032 2.5612 2.591 2.5966 2.5799 2.5422 2.5385 2.558 2.536 2.5193 2.5014
2421.326 2.5238 2.5249 2.5369 2.5986 2.6408 2.6775 2.7084 2.7477 2.7648 2.7798
2440.619 2.7632 2.6969 2.6341 2.5333 2.40791 2.3297 2.259 2.183 2.122 2.089
2459.912 2.054 2.015 2.019 2.012 1.965 1.95 1.941 1.946 1.917 1.872
2479.206 1.873 1.9 1.914 1.847 1.786 1.817 1.834 1.761 1.733 1.771
2498.499 1.749 1.684 1.662 1.684 1.676 1.683 1.731 1.756 1.775 1.747
2517.793 1.692 1.695 1.706 1.705 1.672 1.62 1.597 1.574 1.519 1.462
2537.086 1.426 1.405 1.379 1.395 1.435 1.422 1.408 1.42 1.441 1.442
2556.380 1.448 1.456 1.485 1.524 1.577 1.61 1.613 1.653 1.672 1.642
2575.673 1.617 1.552 1.507 1.467 1.415 1.399 1.366 1.369 1.379 1.42
2594.966 1.416 1.36 1.362 1.386 1.34 1.34 1.366 1.32 1.23 1.17
2614.260 1.19 1.18 1.15 1.14 1.13 1.14 1.13 1.12 1.14 1.14
2633.553 1.12 1.11 1.12 1.12 1.08 1.12 1.13 1.06 1.09 1.09
2652.847 1.05 1.06 1.05 0.99 0.98 1.03 1.06 1.1 1.07 1.03
2672.140 1.07 1.1 1.16 1.17 1.13 1.11 1.13 1.17 1.16 1.15
2691.434 1.21 1.26 1.26 1.23 1.17 1.26 1.35 1.386 1.476 1.517
2710.727 1.531 1.589 1.607 1.589 1.647 1.767 1.798 1.823 1.992 2.148
2730.020 2.228 2.3012 2.5005 2.7043 2.8821 3.1756 3.45 3.69 3.86 3.93
2749.314 4.03 4.01 3.89 3.72 3.48 3.2097 2.9306 2.7526 2.5175 2.2845
2768.607 2.196 2.06 1.986 2.008 1.969 1.938 1.983 2.1 2.237 2.2765
2787.901 2.3124 2.44649 2.6032 2.7017 2.8141 2.9815 3.1518 3.38 3.55 3.7
2807.194 3.85 3.94 4.12 4.31 4.45 4.62 4.85 5 5.08 5.21
2826.488 5.32 5.36 5.43 5.61 5.73 5.81 6.08 6.33 6.58 7.02
2845.781 7.4 7.89 8.51 9.09 9.73 10.55 11.54 12.54 13.67 14.95
2865.074 16.27 17.58 18.81 20.06 21.18 21.98 22.5 22.61 22.37 21.89
2884.368 21.17 20.45 19.74 19.01 18.45 18.08 17.9 17.93 18.26 18.83
2903.661 19.54 20.57 21.75 23.22 25.2 27.68 30.5 33.68 37.32 41.34
2922.955 45.74 50.32 54.7 58.66 61.95 64.04 64.88 64.49 62.81 59.96
2942.248 56.1 51.53 46.78 42.09 37.65 33.65 30.13 27.22 24.9 22.81
2961.542 21.02 19.47 18.04 16.8 15.62 14.43 13.39 12.4 11.53 10.83
2980.835 10.26 9.99 9.92 10.03 10.31 10.69 11.19 11.75 12.33 12.92
3000.128 13.48 14.06 14.67 15.17 15.57 16.07 16.5 16.84 17.12 17.41
3019.422 17.7 17.82 17.95 18.27 18.48 18.4 18.17 17.89 17.24 16.28
3038.715 15.38 14.45 13.34 12.13 11.04 10.28 9.54 8.78 8.17 7.64
3058.009 7.22 7.04 7.05 6.89 6.66 6.5 6.44 6.49 6.51 6.53
3077.302 6.47 6.29 6.21 6.11 5.96 5.84 5.57 5.28 5.07 4.99
3096.596 4.81 4.39 4.07 3.74 3.3079 3.0386 2.798 2.567 2.41182 2.2719
3115.889 2.164 1.995 1.719 1.566 1.502 1.36 1.31 1.22 1.12 1.03
3135.182 0.96 0.96 0.94 0.84 0.77 0.74 0.7 0.69 0.68 0.61
3154.476 0.55 0.45 0.36 0.35 0.36 0.41 0.33 0.25 0.26 0.27
3173.769 0.33 0.36 0.28 0.3 0.41 0.43 0.34 0.29 0.33 0.3
3193.063 0.26 0.22 0.27 0.27 0.24 0.31 0.3 0.3 0.34 0.32
3212.356 0.22 0.25 0.28 0.21 0.17 0.2 0.23 0.25 0.25 0.3
3231.650 0.3 0.17 0.14 0.1 0.02 0.07 0.14 0.08 0.09 0.15
3250.943 0.16 0.16 0.14 0.16 0.16 0.14 0.09 0.06 0.09 0.07
3270.236 0.06 0.05 0.04 0.07 0.06 0.11 0.17 0.14 0.13 0.19
3289.530 0.19 0.17 0.15 0.12 0.18 0.24 0.19 0.15 0.23 0.3
3308.823 0.14 0.1 0.35 0.4 0.28 0.24 0.16 0.09 0.02 0
3328.117 0.04 0.11 0.19 0.17 0.19 0.28 0.32 0.26 0.25 0.4
3347.410 0.32 0.14 0.17 0.23 0.17 0.16 0.2 0.17 0.25 0.35
3366.704 0.29 0.3 0.32 0.28 0.36 0.36 0.43 0.41 0.26 0.28
3385.997 0.25 0.25 0.37 0.46 0.38 0.25 0.37 0.45 0.45 0.48
3405.290 0.41 0.31 0.3 0.39 0.5 0.48 0.35 0.26 0.33 0.42
3424.584 0.31 0.28 0.24 0.22 0.3 0.31 0.3 0.39 0.49 0.46
3443.877 0.39 0.35 0.28 0.29 0.39 0.44 0.46 0.51 0.51 0.43
3463.171 0.43 0.49 0.4 0.4 0.5 0.58 0.65 0.53 0.56 0.62
3482.464 0.56 0.56 0.56 0.57 0.64 0.59 0.53 0.64 0.65 0.58
3501.758 0.62 0.66 0.66 0.59 0.56 0.55 0.55 0.66 0.68 0.69
3521.051 0.7 0.7 0.68 0.69 0.68 0.59 0.7 0.73 0.72 0.85
3540.344 0.86 0.69 0.7 0.9 0.81 0.66 0.72 0.72 0.65 0.71
3559.638 0.76 0.73 0.75 0.73 0.72 0.64 0.61 0.66 0.72 0.73
3578.931 0.75 0.77 0.74 0.73 0.75 0.72 0.67 0.68 0.67 0.68
3598.225 0.73 0.79 0.81 0.8 0.74 0.78 0.82 0.69 0.69 0.71
3617.518 0.67 0.75 0.81 0.81 0.88 0.91 0.82 0.81 0.84 0.85
3636.812 0.83 0.88 0.87 0.8 0.75 0.71 0.74 0.74 0.76 0.83
3656.105 0.78 0.75 0.78 0.77 0.72 0.74 0.76 0.77 0.79 0.8
3675.398 0.89 0.9 0.81 0.79 0.83 0.83 0.76 0.77 0.79 0.75
3694.692 0.81 0.9 0.98 1 0.9 0.86 0.86 0.84 0.9 0.88
3713.985 0.79 0.85 0.94 0.96 0.95 0.9 0.92 0.98 0.97 1.02
3733.279 1.05 1 1.03 1.04 1 0.91 0.87 0.95 1.13 1.22
3752.572 1.18 1.12 1.2 1.21 1.21 1.29 1.391 1.513 1.487 1.511
3771.866 1.588 1.622 1.592 1.511 1.463 1.47 1.425 1.375 1.395 1.35
3791.159 1.24 1.15 1.17 1.16 1.11 1.05 0.99 0.99 0.98 0.98
3810.452 1.02 0.99 0.99 1.03 1.08 1.07 0.96 1.01 1.12 1.15
3829.746 1.08 1.03 1.05 1.09 1.05 0.96 0.96 1.01 1.06 1.11
3849.039 1.15 1.17 1.11 1.07 1.07 1.08 1.09 1.1 1.11 1.18
3868.333 1.21 1.17 1.13 1.05 0.97 1.01 1.09 1.15 1.21 1.17
3887.626 1.07 1.13 1.15 1.23 1.32 1.36 1.405 1.26 1.21 1.33
3906.920 1.31 1.29 1.379 1.463 1.425 1.32 1.32 1.31 1.25 1.19
3926.213 1.19 1.25 1.24 1.24 1.3 1.35 1.393 1.368 1.29 1.25
3945.506 1.3 1.22 1.24 1.33 1.32 1.34 1.31 1.32 1.395 1.35
3964.800 1.29 1.384 1.381 1.3 1.36 1.34 1.28 1.27 1.24 1.21
3984.093 1.21 1.24 1.33 1.363 1.28 1.29 1.3 1.27 1.29
##END=
