##TITLE=Naphthol-as-bo
##JCAMP-DX=4.24
##DATA TYPE=INFRARED SPECTRUM
##ORIGIN=EPA-IR VAPOR PHASE LIBRARY
##OWNER=SRD/NIST
Collection (C) 2018 copyright by the U.S. Secretary of Commerce
on behalf of the United States of America. All rights reserved.
##CAS REGISTRY NO=132-68-3
##MOLFORM=C 21 H 15 N O 2
##$NIST SOURCE=MSDC-IR
##STATE=gas
##XUNITS=1/CM
##YUNITS=ABSORBANCE
##XFACTOR=1.
##YFACTOR=0.001
##DELTAX=1.92898
##FIRSTX=549.8
##LASTX=4000.7
##FIRSTY=1.0108
##MAXX=4000.7
##MINX=549.759
##MAXY=0.01001
##MINY=0
##NPOINTS=1790
##XYDATA=(X++(Y..Y))
549.759 1.0108 1.0213 1.0906 1.0951 1.0209 1.0889 1.0507 1.0119 1.1264 1.0857
569.049 0.8793 0.8358 0.9147 0.8801 0.7312 0.7567 0.8545 0.9974 0.9623 0.9808
588.339 1.2398 1.3625 1.53 1.45 1.38 1.3684 1.1427 0.9904 1.0162 0.9998
607.628 0.9497 1.0088 1.0762 1.136 1.1593 1.2118 1.2807 1.3161 1.2795 1.2268
626.918 1.2799 1.3408 1.2886 1.0907 1.0041 0.9975 0.934 0.9241 0.9215 0.842
646.208 0.7659 0.6982 0.7385 0.8646 0.9793 1.0183 0.9993 0.9721 1.0057 1.0659
665.498 0.9925 0.9308 0.9103 0.9211 0.8925 0.8055 0.8269 0.8646 0.9353 0.9931
684.787 0.9765 0.9838 0.9618 0.9044 0.9198 0.9849 1.0063 1.0499 1.0876 1.0664
704.077 1.0386 0.998 0.9233 0.9953 1.1297 1.1537 1.1651 1.2095 1.2896 1.42
723.367 1.47 1.55 1.7 1.84 1.99 2.33 2.86 3.41 3.8 3.82
742.657 3.58 3.09 2.57 2.17 1.9 1.76 1.8 2.04 2.31 2.69
761.947 3.26 3.86 4.28 4.28 3.94 3.5 3.03 2.75 2.68 2.74
781.236 2.9 3.12 3.34 3.54 3.46 3.03 2.73 2.49 2.17 1.91
800.526 1.76 1.61 1.44 1.3158 1.1884 1.1039 1.0621 1.0215 0.9835 0.9945
819.816 0.9581 0.8763 0.8635 0.8787 0.9026 0.9158 0.9299 0.9645 0.9161 0.8722
839.106 0.8804 0.9489 0.9961 0.951 1.025 1.1894 1.2075 1.2066 1.275 1.2275
858.395 1.1662 1.2625 1.4 1.67 2.06 2.33 2.52 2.57 2.45 2.21
877.685 1.98 1.78 1.49 1.38 1.42 1.3153 1.247 1.1435 1.0688 1.0699
896.975 1.0629 1.0712 1.0428 1.0554 1.0661 1.0529 1.0308 1.0151 1.0216 1.0476
916.265 0.9894 0.9321 0.8995 0.8302 0.8844 0.8899 0.8319 0.8443 0.9153 0.9622
935.555 1.0004 1.0436 1.0358 1.0651 1.0662 1.061 1.0674 1.0045 0.9563 0.9142
954.844 0.8582 0.91 0.8962 0.8425 0.8993 0.8247 0.7709 0.8133 0.7888 0.8174
974.134 0.8096 0.7883 0.8234 0.7352 0.6933 0.7369 0.75 0.7587 0.7711 0.7848
993.424 0.7679 0.772 0.7843 0.7765 0.7908 0.7888 0.8664 0.9737 0.9545 0.9635
1012.714 1.0177 0.9948 1.0356 1.0631 0.9997 0.9232 0.8603 0.8804 0.8942 0.8839
1032.003 0.8949 0.9109 0.8001 0.6849 0.6835 0.7346 0.7674 0.7999 0.8954 0.7886
1051.293 0.6206 0.5961 0.6545 0.7582 0.8178 0.8839 0.8255 0.7357 0.7981 0.873
1070.583 0.8519 0.8564 0.809 0.7142 0.6595 0.6893 0.8314 0.9086 0.8338 0.8643
1089.873 0.9863 0.9476 0.8995 0.997 0.9502 0.7759 0.9388 0.9527 0.8748 0.7921
1109.163 0.5694 0.6269 0.7439 0.7984 0.9137 0.9711 0.883 0.9106 1.0772 1.2858
1128.452 1.56 1.72 1.92 2.14 2.32 2.7 3.32 3.65 3.48 2.98
1147.742 2.42 1.92 1.49 1.2956 1.1848 1.2021 1.3667 1.48 1.55 1.78
1167.032 2.06 2.27 2.44 2.56 2.46 2.23 2.18 2.09 2.03 2.08
1186.322 2.22 2.45 2.6 2.87 3.35 3.89 4.71 5.46 6.03 6.62
1205.611 6.78 6.38 5.78 5.13 4.42 3.97 3.71 3.47 3.17 2.82
1224.901 2.61 2.44 2.37 2.31 2.18 2.13 2.19 2.26 2.37 2.56
1244.191 2.63 2.63 2.54 2.36 2.25 2.2 2.18 2.29 2.42 2.48
1263.481 2.46 2.57 2.82 3 3.18 3.45 3.83 4.28 4.8 5.31
1282.771 5.65 5.73 5.65 5.4 5.11 4.91 4.82 4.75 4.79 4.93
1302.060 5.05 5.15 5.24 5.24 5.17 4.96 4.66 4.37 4.06 3.71
1321.350 3.38 3.16 3.04 2.98 3.01 3.13 3.3 3.55 3.81 4.07
1340.640 4.27 4.35 4.25 4.04 3.77 3.51 3.3 3.06 2.83 2.61
1359.930 2.4 2.21 2.05 1.95 1.86 1.78 1.73 1.69 1.7 1.74
1379.219 1.77 1.79 1.87 1.92 1.93 2.05 2.21 2.35 2.55 2.75
1398.509 2.88 2.95 2.89 2.72 2.57 2.42 2.29 2.15 2.04 1.98
1417.799 1.9 1.88 1.97 2.01 2.09 2.2 2.3 2.46 2.66 2.77
1437.089 2.93 3.19 3.41 3.62 3.86 4.1 4.39 4.58 4.58 4.4
1456.378 4.08 3.95 4.01 4.06 4.07 4.07 4.09 4.09 4.1 4.31
1475.668 4.69 5.15 5.66 6.22 6.92 7.6 8.28 8.93 9.48 9.91
1494.958 10.01 9.88 9.59 9.17 8.67 8.11 7.66 7.54 7.55 7.62
1514.248 7.76 7.9 8.08 8.17 8.28 8.42 8.42 8.32 8.07 7.63
1533.538 7.05 6.47 5.82 5.07 4.54 4.12 3.78 3.51 3.23 3
1552.827 2.79 2.54 2.3 2.05 2.05 2.17 2.17 2.21 2.24 2.26
1572.117 2.36 2.35 2.23 2.21 2.19 2.09 2 1.89 1.81 1.83
1591.407 1.93 2.01 2.08 2.14 2.14 2.08 1.95 1.81 1.7 1.63
1610.697 1.58 1.57 1.6 1.66 1.8 1.93 2.02 2.21 2.41 2.48
1629.986 2.54 2.58 2.49 2.36 2.39 2.38 2.34 2.28 2.22 2.28
1649.276 2.44 2.45 2.52 2.92 3.28 3.57 3.83 4.17 4.67 5.16
1668.566 5.66 6.28 6.97 7.56 8.12 8.53 8.59 8.3 7.66 6.98
1687.856 6.26 5.42 4.69 3.99 3.37 2.98 2.57 2.29 2.21 2
1707.146 1.85 1.74 1.66 1.55 1.4 1.2436 1.2022 1.2329 1.2026 1.1786
1726.435 1.1382 1.0529 0.9841 0.8574 0.7337 0.8354 0.8644 0.8263 0.8298 0.8049
1745.725 0.7756 0.7009 0.6213 0.5929 0.6266 0.6017 0.5839 0.5717 0.5202 0.5234
1765.015 0.5654 0.5473 0.5174 0.5192 0.5495 0.5957 0.6214 0.6308 0.6204 0.6036
1784.305 0.575 0.6269 0.6778 0.6273 0.5741 0.5983 0.6474 0.674 0.6479 0.6231
1803.594 0.6479 0.6586 0.6514 0.6086 0.5755 0.6084 0.6291 0.6126 0.6192 0.6139
1822.884 0.5948 0.5784 0.5941 0.5882 0.5719 0.5666 0.5537 0.5757 0.5873 0.5738
1842.174 0.5473 0.5224 0.5172 0.5248 0.5586 0.5696 0.5476 0.541 0.5483 0.5613
1861.464 0.5529 0.529 0.5282 0.5152 0.4942 0.5099 0.5085 0.5183 0.515 0.5187
1880.754 0.5429 0.5382 0.5358 0.5414 0.5473 0.5511 0.5651 0.5431 0.5477 0.5784
1900.043 0.5947 0.6121 0.6062 0.613 0.6318 0.6546 0.6733 0.6715 0.6439 0.6116
1919.333 0.6386 0.6682 0.6534 0.6396 0.6463 0.6528 0.6722 0.6999 0.7099 0.707
1938.623 0.6989 0.6862 0.6647 0.6413 0.6055 0.5631 0.5582 0.5576 0.5531 0.5392
1957.913 0.5151 0.5083 0.4927 0.5039 0.5021 0.4819 0.5001 0.4996 0.4863 0.5184
1977.202 0.5274 0.519 0.5091 0.481 0.4714 0.4771 0.4828 0.46176 0.44233 0.45219
1996.492 0.45077 0.46207 0.4758 0.4737 0.4708 0.4806 0.4835 0.4715 0.4719 0.46383
2015.782 0.46117 0.45461 0.45363 0.46229 0.4517 0.46476 0.46726 0.4301 0.43417 0.46708
2035.072 0.4992 0.5009 0.4726 0.4707 0.4853 0.4769 0.46059 0.45101 0.46184 0.46706
2054.362 0.46237 0.4838 0.4896 0.4715 0.45653 0.4489 0.46558 0.4935 0.4843 0.4881
2073.651 0.45976 0.43305 0.45074 0.4799 0.4912 0.4842 0.4878 0.46653 0.46113 0.4667
2092.941 0.45796 0.44846 0.46162 0.4859 0.5133 0.508 0.46424 0.46971 0.507 0.4951
2112.231 0.4728 0.4783 0.5015 0.5014 0.5081 0.5053 0.46293 0.46027 0.4708 0.46685
2131.521 0.45378 0.4796 0.4957 0.46778 0.45278 0.4844 0.5182 0.4967 0.4875 0.4828
2150.810 0.4715 0.45709 0.45471 0.4712 0.4881 0.4714 0.44666 0.45269 0.46622 0.45505
2170.100 0.44489 0.4764 0.472 0.474 0.4707 0.43876 0.45285 0.46415 0.46044 0.45272
2189.390 0.43118 0.41538 0.4193 0.44092 0.4728 0.44405 0.42574 0.45193 0.45738 0.46733
2208.680 0.474 0.46761 0.46167 0.4928 0.5195 0.5131 0.4814 0.4752 0.46625 0.42011
2227.970 0.40959 0.42244 0.44655 0.4897 0.4906 0.45993 0.4767 0.4928 0.4966 0.4948
2247.259 0.4768 0.4817 0.4884 0.4943 0.4961 0.4763 0.4752 0.45927 0.46449 0.4959
2266.549 0.4776 0.4797 0.4997 0.4827 0.4649 0.4677 0.43587 0.4325 0.4834 0.4924
2285.839 0.44793 0.44963 0.46561 0.45013 0.43761 0.43269 0.43819 0.45493 0.44571 0.43424
2305.129 0.44144 0.44277 0.46275 0.44709 0.43957 0.46217 0.45231 0.41638 0.369746 0.38017
2324.418 0.40595 0.41035 0.41762 0.38873 0.372758 0.40945 0.42406 0.42376 0.43411 0.43516
2343.708 0.46964 0.4726 0.4875 0.5079 0.4803 0.4268 0.40701 0.43369 0.40182 0.36386
2362.998 0.39271 0.43444 0.4296 0.42193 0.42536 0.45514 0.46116 0.43748 0.4777 0.4981
2382.288 0.4933 0.5014 0.4929 0.4854 0.4984 0.4904 0.483 0.4938 0.4772 0.4814
2401.578 0.4924 0.4819 0.46094 0.46094 0.4861 0.5135 0.5195 0.4988 0.4816 0.46489
2420.867 0.46157 0.5151 0.5151 0.4763 0.5184 0.5033 0.46908 0.5133 0.5316 0.5032
2440.157 0.5023 0.492 0.4869 0.4922 0.5159 0.5391 0.4861 0.4827 0.5141 0.4987
2459.447 0.5071 0.4965 0.4899 0.5114 0.5003 0.4914 0.4926 0.5027 0.4976 0.5151
2478.737 0.5078 0.46405 0.5048 0.5256 0.5063 0.5005 0.5035 0.5113 0.5102 0.5338
2498.026 0.5335 0.4994 0.46941 0.4712 0.5138 0.5216 0.4715 0.44978 0.4784 0.5432
2517.316 0.562 0.5601 0.5718 0.5381 0.5017 0.5158 0.5115 0.4934 0.5173 0.5025
2536.606 0.4946 0.5083 0.4843 0.4739 0.4779 0.4923 0.5269 0.5476 0.546 0.5185
2555.896 0.4905 0.4615 0.4892 0.4935 0.4812 0.5086 0.5323 0.5431 0.5171 0.4833
2575.186 0.4822 0.5043 0.54 0.5603 0.553 0.572 0.5759 0.5377 0.4933 0.4928
2594.475 0.5399 0.5827 0.5487 0.5067 0.4786 0.4816 0.5418 0.5472 0.5571 0.5701
2613.765 0.5056 0.4915 0.4936 0.4878 0.5191 0.5333 0.5446 0.5714 0.5771 0.5449
2633.055 0.5194 0.5173 0.5554 0.5637 0.5258 0.5544 0.5479 0.5049 0.5132 0.48
2652.345 0.4988 0.4885 0.46652 0.5343 0.5377 0.5331 0.545 0.545 0.5301 0.5424
2671.634 0.5636 0.5401 0.5233 0.5442 0.5777 0.5854 0.5395 0.5413 0.5845 0.5616
2690.924 0.5502 0.5496 0.5576 0.594 0.6113 0.5858 0.5827 0.6088 0.6278 0.5991
2710.214 0.5726 0.5484 0.5208 0.5124 0.4964 0.5172 0.5482 0.508 0.5158 0.5909
2729.504 0.5604 0.5464 0.5605 0.5411 0.5645 0.5713 0.5668 0.5889 0.6179 0.5728
2748.794 0.5336 0.5743 0.5867 0.5621 0.5876 0.6231 0.5946 0.5707 0.5568 0.5738
2768.083 0.5887 0.5865 0.6186 0.6198 0.5779 0.5424 0.5676 0.5796 0.5618 0.5981
2787.373 0.6029 0.5755 0.5652 0.5777 0.5946 0.583 0.5859 0.557 0.5464 0.6032
2806.663 0.6163 0.6318 0.6251 0.6503 0.683 0.6441 0.6105 0.5902 0.5789 0.5579
2825.953 0.5716 0.5929 0.576 0.5794 0.565 0.5474 0.5515 0.5493 0.5821 0.5547
2845.242 0.5178 0.5069 0.4901 0.5418 0.5774 0.591 0.5934 0.5535 0.5473 0.5547
2864.532 0.5684 0.5739 0.5536 0.6029 0.6458 0.578 0.5398 0.5503 0.5744 0.6367
2883.822 0.6274 0.5728 0.556 0.597 0.6206 0.6256 0.6496 0.6678 0.694 0.6855
2903.112 0.6504 0.6195 0.6508 0.6273 0.6022 0.6345 0.6333 0.6104 0.5844 0.6025
2922.401 0.6295 0.6736 0.6977 0.6364 0.6532 0.6713 0.5772 0.6092 0.6265 0.5989
2941.691 0.6453 0.7114 0.7457 0.7027 0.6961 0.7815 0.8314 0.7737 0.7576 0.7817
2960.981 0.7831 0.7648 0.7774 0.8443 0.844 0.8218 0.815 0.8717 0.9506 0.902
2980.271 0.8027 0.8141 0.8834 0.8478 0.8367 0.8633 0.8468 0.9289 0.9688 0.9564
2999.561 1.0161 1.0609 1.0847 1.1684 1.2267 1.2032 1.2438 1.3401 1.43 1.42
3018.850 1.3584 1.3588 1.39 1.41 1.38 1.3565 1.37 1.43 1.44 1.48
3038.140 1.55 1.62 1.64 1.71 1.85 1.98 2.13 2.34 2.66 2.96
3057.430 3.29 3.64 3.89 4.12 4.3 4.26 4.03 3.74 3.4 3.04
3076.720 2.77 2.62 2.51 2.36 2.25 2.13 2.06 2 1.89 1.86
3096.009 1.81 1.74 1.7 1.65 1.61 1.6 1.58 1.56 1.54 1.5
3115.299 1.45 1.49 1.54 1.47 1.4 1.42 1.44 1.46 1.52 1.53
3134.589 1.54 1.55 1.52 1.53 1.57 1.58 1.54 1.55 1.61 1.59
3153.879 1.57 1.57 1.56 1.56 1.59 1.59 1.63 1.64 1.58 1.57
3173.169 1.58 1.59 1.57 1.57 1.57 1.61 1.61 1.55 1.55 1.56
3192.458 1.54 1.51 1.55 1.53 1.51 1.51 1.53 1.55 1.54 1.53
3211.748 1.52 1.51 1.54 1.53 1.53 1.59 1.64 1.66 1.61 1.57
3231.038 1.54 1.53 1.55 1.53 1.5 1.5 1.53 1.53 1.53 1.49
3250.328 1.43 1.41 1.44 1.48 1.52 1.57 1.54 1.44 1.44 1.42
3269.617 1.43 1.45 1.41 1.46 1.45 1.43 1.46 1.47 1.45 1.47
3288.907 1.43 1.37 1.3545 1.3463 1.41 1.4 1.3649 1.3696 1.3478 1.4
3308.197 1.3566 1.2575 1.2911 1.41 1.43 1.3543 1.3514 1.3533 1.3303 1.3123
3327.487 1.2703 1.2741 1.3219 1.2722 1.2156 1.3151 1.3294 1.2821 1.2952 1.2903
3346.777 1.269 1.2102 1.2354 1.2033 1.165 1.1836 1.1401 1.177 1.1554 1.068
3366.066 1.1431 1.2031 1.216 1.2009 1.1893 1.1845 1.1391 1.066 1.0931 1.1729
3385.356 1.1221 1.1247 1.1736 1.1905 1.1861 1.2011 1.2292 1.2192 1.1937 1.1641
3404.646 1.1757 1.167 1.1428 1.0601 0.9869 1.0339 0.9799 0.9285 0.9847 0.9669
3423.936 0.9189 0.8917 0.8764 0.9408 0.9597 0.9797 1.0225 0.9876 0.8915 0.8767
3443.225 0.9409 0.9143 0.9233 1.0035 0.9896 0.8992 0.9599 1.0496 1.0593 0.9854
3462.515 0.9794 1.0254 1.014 1.1019 1.0867 0.9983 0.9939 0.9783 0.915 0.9039
3481.805 0.8745 0.8301 0.8439 0.8673 0.8499 0.7964 0.7109 0.6617 0.7087 0.6961
3501.095 0.6782 0.6823 0.615 0.5942 0.7058 0.743 0.6598 0.6337 0.5923 0.5841
3520.385 0.6189 0.5796 0.5462 0.5438 0.5581 0.5404 0.4904 0.5485 0.5366 0.39816
3539.674 0.376188 0.44588 0.4841 0.39261 0.3299 0.373645 0.41535 0.44042 0.45626 0.46015
3558.964 0.42528 0.45827 0.5056 0.40301 0.3296 0.377377 0.43668 0.5017 0.5412 0.4797
3578.254 0.41177 0.40154 0.44043 0.43205 0.370808 0.293 0.25 0.3509 0.42814 0.36202
3597.544 0.3457 0.36764 0.369713 0.3561 0.36435 0.3328 0.256 0.255 0.3219 0.40333
3616.833 0.371712 0.3212 0.40466 0.42891 0.3233 0.2892 0.223 0.255 0.35 0.3416
3636.123 0.2996 0.2822 0.33 0.416 0.3555 0.237 0.203 0.26 0.329 0.2842
3655.413 0.246 0.3038 0.3328 0.2976 0.3071 0.3316 0.243 0.169 0.228 0.2865
3674.703 0.243 0.221 0.3109 0.3517 0.3314 0.38075 0.38928 0.267 0.219 0.188
3693.993 0.2727 0.346 0.316 0.258 0.192 0.242 0.231 0.205 0.261 0.196
3713.282 0.134 0.202 0.3037 0.3265 0.233 0.218 0.256 0.233 0.258 0.205
3732.572 0.183 0.203 0.159 0.18 0.176 0.207 0.2 0.2725 0.244 0.156
3751.862 0.176 0.2 0.257 0.3075 0.3098 0.3093 0.3078 0.26 0.251 0.229
3771.152 0.237 0.253 0.292 0.3 0.3379 0.41195 0.3389 0.3288 0.36188 0.3047
3790.441 0.3111 0.2979 0.226 0.217 0.232 0.233 0.238 0.3433 0.234 0.196
3809.731 0.3509 0.36018 0.3392 0.24 0.2761 0.3015 0.226 0.242 0.226 0.211
3829.021 0.248 0.257 0.242 0.249 0.248 0.222 0.237 0.38013 0.38843 0.253
3848.311 0.186 0.181 0.115 0 0.164 0.3496 0.40043 0.40716 0.3277 0.2717
3867.601 0.3055 0.237 0.206 0.228 0.23 0.2744 0.239 0.154 0.115 0.206
3886.890 0.2714 0.208 0.133 0.226 0.2984 0.239 0.156 0.122 0.174 0.222
3906.180 0.2759 0.3067 0.3019 0.237 0.24 0.2848 0.2892 0.2794 0.3293 0.3368
3925.470 0.239 0.169 0.151 0.136 0.258 0.36459 0.2923 0.379139 0.36806 0.259
3944.760 0.245 0.23 0.2828 0.2978 0.2749 0.2854 0.25 0.274 0.3454 0.269
3964.049 0.224 0.233 0.199 0.265 0.3201 0.341 0.378148 0.373216 0.379931 0.3281
3983.339 0.322 0.312 0.204 0.092 0.199 0.3312 0.2706 0.2741 0.246 0.185
##END=
