##TITLE=2-Aminobenzhydrol
##JCAMP-DX=4.24
##DATA TYPE=INFRARED SPECTRUM
##ORIGIN=EPA-IR VAPOR PHASE LIBRARY
##OWNER=SRD/NIST
Collection (C) 2018 copyright by the U.S. Secretary of Commerce
on behalf of the United States of America. All rights reserved.
##CAS REGISTRY NO=13209-38-6
##MOLFORM=C 13 H 13 N O
##$NIST SOURCE=MSDC-IR
##STATE=gas
##XUNITS=1/CM
##YUNITS=ABSORBANCE
##XFACTOR=1.
##YFACTOR=0.001
##DELTAX=3.85796
##FIRSTX=551.7
##LASTX=4000.7
##FIRSTY=5.98
##MAXX=4000.7
##MINX=551.688
##MAXY=0.02868
##MINY=0.0004598
##NPOINTS=895
##XYDATA=(X++(Y..Y))
551.688 5.98 5.82 5.81 5.81 5.69 5.66 5.75 5.7 5.73 5.88
590.268 6.08 6.56 7.47 8.68 9.88 10.69 10.71 9.97 8.8 7.61
628.847 6.93 6.71 6.74 7.01 7.53 8.17 8.5 8.47 8.17 7.73
667.427 7.52 7.55 7.77 8.25 9.08 10.59 12.75 14.99 16.29 16.1
706.006 14.87 13.81 13.71 14.25 14.76 15.01 15.73 18.08 22.41 26.84
744.586 28.68 26.54 21.73 16.75 12.85 10.3 8.75 7.65 6.89 6.4
783.165 6.03 5.83 5.7 5.52 5.38 5.27 5.1 4.98 4.88 4.78
821.745 4.71 4.57 4.49 4.48 4.4 4.45 4.66 4.93 5.23 5.41
860.324 5.57 5.7 5.79 5.95 5.94 5.61 5.06 4.44 3.94 3.71
898.904 3.66 3.67 3.78 3.89 3.91 3.88 3.87 3.85 3.83 3.78
937.484 3.61 3.44 3.36 3.3 3.34 3.45 3.64 3.87 4.08 4.48
976.063 5.03 5.69 6.65 7.84 9.21 10.78 12.4 13.9 15.1 15.81
1014.643 15.89 15.38 14.35 13.18 11.8 10.2 8.59 7.23 6.29 5.5
1053.222 5.13 4.99 4.75 4.6 4.45 4.21 3.85 3.45 3.01 2.6
1091.802 2.34 2.25 2.32 2.44 2.52 2.52 2.67 2.75 2.8 2.99
1130.381 3.2 3.53 3.9 4.36 5.02 5.92 6.94 7.85 8.55 8.93
1168.961 9.12 9.1 8.8 8.17 7.19 6.27 5.73 5.38 5.33 5.45
1207.540 5.47 5.51 5.45 5.28 5.19 5.23 5.22 5.44 5.89 6.27
1246.120 6.75 7.39 8.07 8.63 9.03 9.28 9.45 9.63 9.79 10.01
1284.699 10.24 10.41 10.4 10.23 9.99 9.73 9.48 9.17 8.68 8.03
1323.279 7.35 6.78 6.43 6.26 6.25 6.37 6.53 6.63 6.58 6.41
1361.859 6.11 5.74 5.38 4.99 4.6 4.27 3.97 3.68 3.43 3.26
1400.438 3.15 3.07 3.05 3.07 3.1 3.13 3.18 3.37 3.7 4.3
1439.018 5.38 7.05 9.29 11.74 13.59 14.06 13.04 11 9.02 8.09
1477.597 8.5 10.22 12.92 15.8 17.47 16.92 14.27 10.7 7.41 5.32
1516.177 4.1 3.43 3.04 2.83 2.72 2.64 2.61 2.6 2.63 2.73
1554.756 2.89 3.18 3.56 4.07 4.74 5.55 6.44 7.17 7.73 8.2
1593.336 8.85 9.85 11.16 12.6 14.15 15.87 17.89 19.68 20.23 18.98
1631.915 16.24 12.73 9.5 7.15 5.5 4.48 3.79 3.33 3.02 2.83
1670.495 2.7 2.57 2.45 2.31 2.16 2.03 1.94 1.89 1.81 1.72
1709.075 1.66 1.63 1.57 1.5 1.48 1.49 1.49 1.49 1.52 1.57
1747.654 1.6 1.63 1.64 1.62 1.62 1.66 1.7 1.75 1.79 1.8
1786.234 1.82 1.87 1.94 2.02 2.06 2 1.84 1.69 1.51 1.31
1824.813 1.11 0.8366 0.5824 0.4598 0.5235 0.7772 1.04 1.21 1.31 1.38
1863.393 1.44 1.49 1.58 1.7 1.85 2 2.14 2.21 2.19 2.08
1901.972 1.91 1.71 1.59 1.6 1.69 1.74 1.71 1.65 1.61 1.59
1940.552 1.62 1.65 1.64 1.61 1.54 1.44 1.31 1.17 1.08 1.04
1979.131 1.02 0.9819 0.9706 0.9835 0.9728 0.9626 0.9606 0.9582 0.9623 0.9549
2017.711 0.9534 0.9512 0.9612 0.9692 0.9391 0.904 0.8719 0.8425 0.8386 0.8461
2056.291 0.8339 0.797 0.7748 0.7938 0.7759 0.7306 0.728 0.7283 0.7159 0.7032
2094.870 0.6782 0.6467 0.6485 0.6644 0.655 0.6374 0.6231 0.6049 0.5957 0.625
2133.450 0.6457 0.6209 0.6013 0.6082 0.6253 0.6298 0.6123 0.6141 0.628 0.6082
2172.029 0.6203 0.6597 0.6769 0.6933 0.6905 0.6645 0.639 0.646 0.6454 0.6332
2210.609 0.627 0.6419 0.643 0.6437 0.6482 0.6267 0.6147 0.5978 0.5965 0.6213
2249.188 0.6347 0.6176 0.5977 0.6054 0.6064 0.5892 0.5944 0.6035 0.611 0.6595
2287.768 0.6731 0.6363 0.6297 0.6476 0.6918 0.7242 0.7396 0.7748 0.7792 0.7618
2326.347 0.7514 0.7557 0.7529 0.7534 0.7633 0.718 0.6935 0.7105 0.7014 0.6817
2364.927 0.67 0.6751 0.6888 0.6888 0.691 0.7085 0.7036 0.6793 0.6932 0.6752
2403.507 0.6651 0.6606 0.641 0.672 0.6896 0.6819 0.6666 0.6586 0.661 0.6786
2442.086 0.6831 0.6549 0.6475 0.6823 0.7053 0.6893 0.6818 0.675 0.6703 0.6855
2480.666 0.6736 0.6486 0.6269 0.6143 0.6352 0.6567 0.6423 0.6591 0.663 0.6574
2519.245 0.6625 0.6367 0.6538 0.6787 0.6779 0.6597 0.6691 0.676 0.6319 0.6359
2557.825 0.6588 0.6539 0.6665 0.6659 0.6778 0.7013 0.7086 0.6788 0.6568 0.6928
2596.404 0.7124 0.732 0.7741 0.7892 0.7954 0.7712 0.7216 0.7301 0.7407 0.7434
2634.984 0.757 0.7648 0.7602 0.7258 0.6926 0.72 0.742 0.7184 0.6733 0.6566
2673.563 0.6757 0.6836 0.6668 0.6565 0.6914 0.729 0.7137 0.6631 0.663 0.6687
2712.143 0.6735 0.6581 0.643 0.6621 0.6596 0.637 0.6373 0.6621 0.664 0.6747
2750.722 0.6767 0.6784 0.7146 0.742 0.7684 0.8004 0.7749 0.7566 0.789 0.8226
2789.302 0.8273 0.7963 0.8341 0.8587 0.8234 0.8065 0.8427 0.8887 0.9285 0.9519
2827.882 0.9739 1.06 1.12 1.15 1.23 1.34 1.49 1.71 1.92 2.19
2866.461 2.5 2.78 3.12 3.43 3.66 3.78 3.73 3.58 3.34 3.01
2905.041 2.65 2.32 2.04 1.81 1.62 1.41 1.28 1.24 1.17 1.07
2943.620 1.03 0.971 0.9042 0.8816 0.8841 0.9439 0.9712 0.9682 0.9915 1.05
2982.200 1.12 1.22 1.35 1.55 1.81 2.25 2.9 3.72 4.77 6.14
3020.779 7.81 9.58 11.06 11.74 11.45 10.44 9.35 8.69 8.63 9.3
3059.359 10.67 12.52 14.23 15.02 14.53 13.05 11.24 9.64 8.17 6.68
3097.938 5.3 4.22 3.49 2.92 2.47 2.03 1.66 1.43 1.23 1.09
3136.518 0.9965 0.9426 0.8878 0.8799 0.9668 0.9701 0.912 0.9049 0.9308 0.9216
3175.098 0.8423 0.7608 0.7298 0.7709 0.8034 0.8345 0.8017 0.7556 0.7698 0.8067
3213.677 0.8053 0.7615 0.7329 0.7386 0.7649 0.7615 0.7189 0.7068 0.7114 0.6328
3252.257 0.6183 0.657 0.6492 0.5857 0.5738 0.6399 0.6067 0.5583 0.5965 0.5938
3290.836 0.5734 0.5628 0.5973 0.5988 0.6016 0.6407 0.6509 0.7109 0.6979 0.6571
3329.416 0.689 0.7655 0.7635 0.7757 0.7993 0.8846 1.07 1.18 1.25 1.41
3367.995 1.61 1.72 2 2.39 2.93 3.69 4.41 4.97 5.24 5.15
3406.575 4.75 4.17 3.53 2.91 2.44 2.15 1.96 1.82 1.72 1.64
3445.154 1.67 1.81 2 2.27 2.58 2.96 3.47 3.95 4.44 4.91
3483.734 5.27 5.49 5.36 5.01 4.6 4.09 3.52 3.01 2.61 2.3
3522.314 2.02 1.8 1.63 1.46 1.41 1.39 1.29 1.18 1.17 1.22
3560.893 1.16 1.09 1.04 1.05 1.04 0.9915 1.04 1.12 1.12 1.17
3599.473 1.25 1.31 1.42 1.57 1.77 2.12 2.51 3.05 3.72 4.14
3638.052 4.45 4.54 4.18 3.52 2.85 2.24 1.74 1.43 1.19 1.08
3676.632 1.05 0.9538 0.9021 0.8463 0.8062 0.8511 0.8063 0.7476 0.7482 0.7424
3715.211 0.7043 0.6812 0.6722 0.6844 0.6847 0.6682 0.7135 0.7005 0.6333 0.5937
3753.791 0.5571 0.5411 0.5927 0.5919 0.5576 0.5234 0.5338 0.5754 0.5673 0.5352
3792.370 0.5253 0.5366 0.5631 0.556 0.5292 0.5815 0.592 0.6349 0.6303 0.5994
3830.950 0.6153 0.5605 0.5604 0.605 0.5966 0.5475 0.5785 0.6256 0.6543 0.7145
3869.530 0.6715 0.6077 0.5828 0.5488 0.5917 0.6016 0.5971 0.6223 0.7011 0.7608
3908.109 0.7562 0.7405 0.6682 0.6416 0.6805 0.7244 0.7198 0.676 0.6346 0.6207
3946.689 0.5784 0.5923 0.5729 0.4818 0.4838 0.5213 0.6219 0.6171 0.5378 0.5277
3985.268 0.5122 0.4849 0.4607 0.5157 0.5511
##END=
