##TITLE=2-Aminotridecane
##JCAMP-DX=4.24
##DATA TYPE=INFRARED SPECTRUM
##ORIGIN=NIST Mass Spectrometry Data Center
##OWNER=NIST Standard Reference Data Program
Collection (C) 2018 copyright by the U.S. Secretary of Commerce
on behalf of the United States of America. All rights reserved.
##CAS REGISTRY NO=13205-57-7
##MOLFORM=C 13 H 29 N
##$NIST SOURCE=MSDC-IR
##SPECTROMETER/DATA SYSTEM=HP-GC/MS/IRD
##STATE=gas
##XUNITS=1/CM
##YUNITS=ABSORBANCE
##XFACTOR=1.0
##YFACTOR=0.000007200
##DELTAX=4.0
##FIRSTX=550.0
##LASTX=3846.0
##FIRSTY=0.000245
##MAXX=3846
##MINX=550
##MAXY=0.072
##MINY=0
##NPOINTS=825
##XYDATA=(X++(Y..Y))
550.0 34 31 33 22 4 4 18 24 32 37
590.0 33 34 45 51 54 61 58 59 63 62
630.0 70 75 71 70 79 88 98 105 102 114
670.0 126 130 147 161 171 179 187 211 241 264
710.0 295 328 347 373 399 414 430 448 464 495
750.0 535 560 593 648 702 753 809 861 892 901
790.0 874 820 755 671 593 530 478 425 379 342
830.0 315 296 276 260 244 224 203 186 169 155
870.0 146 139 128 124 123 122 120 112 105 103
910.0 105 97 94 94 93 98 95 92 93 86
950.0 81 86 88 85 82 84 86 84 83 85
990.0 87 89 93 93 96 98 103 108 113 116
1030.0 114 118 127 131 123 117 117 117 117 118
1070.0 125 130 129 128 133 138 137 140 143 146
1110.0 153 153 157 165 177 188 197 206 206 201
1150.0 189 176 166 153 138 131 121 110 103 102
1190.0 100 92 84 85 84 80 80 86 87 86
1230.0 90 90 92 87 83 89 95 99 104 108
1270.0 111 116 122 130 139 151 165 177 186 197
1310.0 207 213 220 229 245 270 305 344 384 422
1350.0 450 467 469 475 494 520 540 541 512 450
1390.0 374 301 245 208 184 171 170 173 180 198
1430.0 232 279 344 421 513 613 706 778 795 748
1470.0 648 524 404 311 246 198 166 146 132 120
1510.0 107 98 90 83 80 79 75 73 74 74
1550.0 73 75 78 79 81 90 96 105 113 123
1590.0 137 154 180 212 243 276 306 328 331 311
1630.0 275 237 199 164 136 113 93 79 68 55
1670.0 48 44 39 36 31 26 22 24 25 21
1710.0 18 18 18 17 16 16 17 18 18 16
1750.0 13 14 14 10 9 11 11 10 11 12
1790.0 11 12 12 11 10 10 11 9 6 8
1830.0 10 10 10 8 10 11 9 10 9 10
1870.0 8 6 8 9 7 6 7 7 6 3
1910.0 4 3 3 5 8 8 7 6 5 5
1950.0 3 2 5 6 6 5 4 5 6 7
1990.0 6 2 2 5 7 9 12 12 10 11
2030.0 15 16 15 14 12 10 10 8 7 6
2070.0 6 6 6 6 3 3 2 2 0 0
2110.0 3 5 6 6 6 4 6 4 2 5
2150.0 5 3 3 4 4 3 7 8 4 3
2190.0 6 7 4 4 6 3 1 4 6 4
2230.0 6 10 9 7 5 5 7 5 5 7
2270.0 7 9 5 3 6 7 6 8 9 9
2310.0 8 7 7 6 8 10 11 7 8 7
2350.0 8 7 8 10 10 11 11 9 10 9
2390.0 7 13 14 12 12 11 9 12 13 10
2430.0 10 13 14 12 12 11 10 12 14 12
2470.0 13 16 16 14 13 16 19 21 21 22
2510.0 24 27 27 27 29 32 34 35 36 34
2550.0 37 39 38 36 39 44 46 49 50 53
2590.0 59 62 61 62 66 72 79 81 82 85
2630.0 87 92 95 98 103 106 110 114 118 120
2670.0 124 127 128 130 130 129 129 127 123 124
2710.0 125 127 134 136 140 149 155 160 164 164
2750.0 165 166 167 174 178 181 190 206 222 241
2790.0 261 284 313 348 385 425 469 518 582 660
2830.0 749 867 1032 1266 1604 2088 2717 3348 3728 3731
2870.0 3450 3086 2793 2610 2495 2453 2536 2759 3128 3615
2910.0 4211 4955 5956 7304 8799 9875 10000 9152 7745 6266
2950.0 5081 4356 4066 4014 3903 3538 2943 2309 1784 1384
2990.0 1082 859 694 576 491 424 371 328 293 267
3030.0 244 221 201 178 156 141 135 133 132 126
3070.0 121 116 107 103 97 90 87 88 86 82
3110.0 77 76 78 77 76 72 71 69 70 77
3150.0 76 72 70 62 60 60 63 61 56 61
3190.0 57 54 52 54 50 45 45 39 33 32
3230.0 31 30 27 22 21 22 22 21 25 30
3270.0 30 26 27 26 28 29 27 28 25 23
3310.0 33 40 42 44 50 50 47 48 47 42
3350.0 34 30 31 27 26 28 23 21 21 16
3390.0 14 19 18 9 11 16 18 18 12 12
3430.0 15 16 15 9 7 7 8 9 6 2
3470.0 4 7 2 5 8 4 4 8 8 7
3510.0 8 4 1 6 9 4 1 2 5 6
3550.0 1 5 7 5 14 17 17 15 13 11
3590.0 8 11 10 9 14 13 13 15 17 21
3630.0 16 11 16 15 11 14 20 18 12 11
3670.0 18 21 24 24 22 23 22 18 18 21
3710.0 23 24 23 19 20 23 26 30 29 24
3750.0 23 22 20 16 25 30 18 21 28 23
3790.0 20 25 26 21 23 25 23 25 23 21
3830.0 24 26 28 26 23
##END=
