##TITLE=2-Aminoundecane
##JCAMP-DX=4.24
##DATA TYPE=INFRARED SPECTRUM
##ORIGIN=NIST Mass Spectrometry Data Center
##OWNER=NIST Standard Reference Data Program
Collection (C) 2018 copyright by the U.S. Secretary of Commerce
on behalf of the United States of America. All rights reserved.
##CAS REGISTRY NO=13205-56-6
##MOLFORM=C 11 H 25 N
##$NIST SOURCE=MSDC-IR
##SPECTROMETER/DATA SYSTEM=HP-GC/MS/IRD
##STATE=gas
##XUNITS=1/CM
##YUNITS=ABSORBANCE
##XFACTOR=1.0
##YFACTOR=0.000009100
##DELTAX=4.0
##FIRSTX=550.0
##LASTX=3846.0
##FIRSTY=0.000501
##MAXX=3846
##MINX=550
##MAXY=0.091
##MINY=0
##NPOINTS=825
##XYDATA=(X++(Y..Y))
550.0 55 52 4 11 23 35 45 46 50 46
590.0 36 36 35 33 31 29 32 36 40 38
630.0 40 45 56 69 70 72 74 79 85 98
670.0 111 119 129 141 156 165 180 207 235 266
710.0 303 338 367 398 427 447 471 503 535 573
750.0 616 662 707 765 839 914 991 1052 1086 1093
790.0 1061 987 895 795 698 613 546 492 433 391
830.0 356 325 298 275 251 228 205 184 162 143
870.0 134 116 105 104 97 90 84 82 78 72
910.0 70 64 58 55 49 45 40 40 42 44
950.0 44 41 41 41 43 42 39 36 34 33
990.0 42 48 55 62 74 84 91 97 98 100
1030.0 100 95 94 94 98 96 95 103 104 107
1070.0 114 116 121 128 131 136 140 141 143 150
1110.0 158 164 172 186 200 217 236 251 254 246
1150.0 234 211 184 170 154 144 139 131 125 117
1190.0 106 104 105 99 92 88 93 95 96 92
1230.0 92 91 88 90 93 88 90 93 93 100
1270.0 106 110 116 123 133 143 155 170 184 192
1310.0 200 211 222 235 256 289 328 372 417 452
1350.0 478 496 509 527 555 592 626 637 606 538
1390.0 443 353 280 230 199 179 171 173 184 202
1430.0 235 286 356 443 537 638 741 817 832 785
1470.0 686 559 434 333 259 207 172 146 126 113
1510.0 100 87 82 78 72 68 67 68 66 65
1550.0 66 66 71 79 83 86 98 112 119 134
1590.0 161 187 217 252 293 335 379 405 405 380
1630.0 335 287 235 189 154 128 108 86 68 56
1670.0 48 42 38 35 30 24 23 24 22 19
1710.0 16 16 16 17 14 12 12 10 8 7
1750.0 8 7 6 6 5 6 8 8 7 6
1790.0 6 6 7 7 5 5 4 5 7 6
1830.0 6 5 3 4 6 7 4 1 3 5
1870.0 3 2 2 1 2 3 0 0 1 0
1910.0 1 4 6 5 1 0 0 0 1 2
1950.0 3 2 1 1 4 5 5 4 3 5
1990.0 6 5 5 7 9 10 10 11 11 10
2030.0 13 15 19 20 18 18 14 13 14 14
2070.0 13 13 14 13 12 12 13 12 10 8
2110.0 10 11 12 11 11 13 12 12 13 13
2150.0 14 15 13 14 14 13 12 13 12 11
2190.0 12 12 13 14 9 9 12 13 13 15
2230.0 12 10 10 11 12 14 14 13 12 14
2270.0 17 17 15 16 16 14 13 15 17 16
2310.0 16 19 20 20 19 21 23 20 18 18
2350.0 18 20 23 22 21 20 19 16 17 19
2390.0 18 17 18 19 19 17 16 18 19 19
2430.0 18 16 17 20 21 19 21 21 19 15
2470.0 16 17 15 15 16 16 20 24 23 23
2510.0 24 23 27 32 35 38 39 40 38 40
2550.0 42 44 47 46 48 52 56 56 56 60
2590.0 63 64 67 73 75 77 82 83 87 94
2630.0 98 101 106 106 110 116 116 119 125 128
2670.0 129 131 131 132 133 131 129 130 130 129
2710.0 131 138 143 145 151 156 161 166 170 172
2750.0 172 176 182 183 189 196 205 216 232 254
2790.0 281 307 333 364 405 452 503 562 634 715
2830.0 817 947 1126 1385 1744 2224 2805 3366 3725 3794
2870.0 3624 3356 3121 2949 2824 2769 2831 3044 3403 3892
2910.0 4510 5295 6325 7616 8952 9878 10000 9296 8077 6741
2950.0 5632 4956 4740 4770 4703 4307 3616 2838 2172 1667
2990.0 1285 1006 811 666 563 486 417 371 334 302
3030.0 273 249 227 204 185 169 158 149 140 131
3070.0 131 130 121 117 114 107 103 98 92 93
3110.0 93 90 85 80 83 79 72 73 75 71
3150.0 69 72 72 68 70 70 64 63 69 71
3190.0 67 60 59 60 54 49 48 47 46 40
3230.0 38 34 28 30 33 30 30 31 24 20
3270.0 23 27 26 23 25 29 30 25 25 29
3310.0 36 41 49 57 65 72 67 64 61 54
3350.0 47 41 35 28 27 34 38 40 31 27
3390.0 34 35 31 27 29 27 24 23 21 28
3430.0 24 24 23 22 27 23 18 14 12 13
3470.0 17 23 22 16 12 9 9 13 16 19
3510.0 17 13 13 15 16 17 12 12 21 21
3550.0 16 19 20 16 17 17 18 18 20 24
3590.0 27 27 24 25 28 28 30 34 31 28
3630.0 29 30 27 27 31 29 26 31 31 29
3670.0 32 36 39 35 36 36 32 30 28 27
3710.0 27 30 28 27 25 26 32 33 31 36
3750.0 36 32 27 28 33 28 24 23 22 26
3790.0 27 24 29 32 30 26 28 31 30 31
3830.0 35 35 33 30 27
##END=
