##TITLE=4-Methylphenethyl isothiocyanate
##JCAMP-DX=4.24
##DATA TYPE=INFRARED SPECTRUM
##ORIGIN=EPA-IR VAPOR PHASE LIBRARY
##OWNER=SRD/NIST
Collection (C) 2018 copyright by the U.S. Secretary of Commerce
on behalf of the United States of America. All rights reserved.
##CAS REGISTRY NO=13203-39-9
##MOLFORM=C 10 H 11 N S
##$NIST SOURCE=MSDC-IR
##STATE=gas
##XUNITS=1/CM
##YUNITS=ABSORBANCE
##XFACTOR=1.
##YFACTOR=0.001
##DELTAX=1.92898
##FIRSTX=549.8
##LASTX=4000.7
##FIRSTY=8.48
##MAXX=4000.7
##MINX=549.759
##MAXY=0.15873
##MINY=0
##NPOINTS=1790
##XYDATA=(X++(Y..Y))
549.759 8.48 8.44 8 7.1 6.53 6.02 5.47 5.18 4.84 4.49
569.049 4.29 4.04 3.95 3.99 3.91 3.91 3.73 3.68 3.62 3.47
588.339 3.38 3.34 3.39 3.08 2.8 2.88 2.81 2.56 2.42 2.28
607.628 2.07 2.01 1.87 1.71 1.85 1.86 1.55 1.39 1.62 1.48
626.918 1.43 1.6 1.52 1.52 1.54 1.53 1.55 1.54 1.5 1.63
646.208 1.95 2.01 1.96 1.99 2.1 2.36 2.25 2.14 2.22 2.27
665.498 2.31 2.35 2.33 2.11 2.05 2.17 2.25 2.16 2.13 2.42
684.787 2.82 3.26 3.78 3.95 4.07 4.37 4.53 4.48 4.36 4.2
704.077 3.73 3.47 3.37 3.22 2.99 2.66 2.47 2.27 2.14 2.02
723.367 1.81 1.52 1.2675 1.1912 1.2159 1.1127 0.986 1.0045 1.0639 0.9559
742.657 0.9027 1.1989 1.41 1.4 1.47 1.55 1.61 1.83 1.84 1.92
761.947 2.16 2.26 2.43 2.45 2.45 2.44 2.45 2.65 2.8 2.99
781.236 3.24 3.72 4.27 4.78 5.42 6.09 6.86 7.68 8.95 10.13
800.526 10.49 10.72 10.9 10.46 9.65 8.74 7.44 6.39 5.84 5.23
819.816 4.48 4 3.61 3.26 2.81 2.29 2.19 2.03 1.79 1.64
839.106 1.67 1.77 1.61 1.57 1.36 1.1853 1.2554 1.0552 0.8567 0.8569
858.395 0.8994 0.9019 0.8251 0.9755 0.9777 0.9665 1.29 1.2628 1.0556 1.0394
877.685 1.0735 1.2165 1.51 1.71 1.92 2.16 2.36 2.55 2.7 2.82
896.975 2.88 2.86 2.91 2.87 2.79 2.65 2.4 2.27 2.15 2.05
916.265 1.91 1.72 1.86 1.99 1.91 1.96 2.08 2.07 2.01 1.99
935.555 2.08 2.09 1.94 2.01 2.11 1.99 1.97 1.91 1.78 1.59
954.844 1.57 1.67 1.54 1.45 1.37 1.41 1.48 1.54 1.61 1.54
974.134 1.54 1.5 1.47 1.49 1.35 1.36 1.46 1.41 1.34 1.36
993.424 1.43 1.54 1.63 1.55 1.51 1.58 1.69 1.98 2.13 2.32
1012.714 2.88 3.62 4.14 4.53 4.56 4.67 4.74 4.27 3.76 3.12
1032.003 2.61 2.38 2.37 2.36 2.15 1.8 1.91 2.09 1.98 2
1051.293 2.06 2.1 2.04 2.02 2.21 2.03 1.81 1.91 1.87 1.43
1070.583 1.42 1.89 1.72 1.64 1.87 1.98 1.91 2.25 2.48 1.93
1089.873 1.9 2.32 2.47 2.5 2.35 2.51 2.79 3.07 3.38 3.21
1109.163 3.06 3.44 3.85 3.65 3.7 3.88 3.59 3.42 3.33 2.96
1128.452 2.6 2.42 2.49 2.52 2.41 2.3 2.08 1.92 1.81 1.63
1147.742 1.48 1.47 1.5 1.51 1.54 1.76 1.82 1.61 1.57 1.41
1167.032 1.39 1.81 1.96 1.83 1.97 2.16 2.29 2.31 2.29 2.34
1186.322 2.28 2.63 2.97 2.91 2.85 2.8 2.67 2.6 2.87 3.12
1205.611 3.27 3.34 3.49 3.73 3.75 3.82 3.28 2.64 2.7 3.07
1224.901 3.17 3.15 3.19 3.19 3.36 3.48 3.53 3.49 3.53 3.49
1244.191 3.3 3.22 3.26 3.1 2.84 2.78 2.85 2.94 2.84 2.76
1263.481 2.64 2.63 2.75 3.05 3.35 3.39 3.55 3.8 4.21 4.54
1282.771 4.7 4.84 4.78 4.62 4.54 4.36 4.15 3.97 3.89 3.89
1302.060 3.94 4 4.14 4.34 4.54 4.76 5.02 5.35 5.66 5.97
1321.350 6.32 6.8 7.38 8.09 9 10.04 11.36 13 14.94 17.3
1340.640 20.01 22.78 25.25 27.02 27.88 27.95 27.25 25.66 23.19 20.04
1359.930 16.8 13.98 11.69 9.94 8.62 7.55 6.72 6.09 5.55 5.16
1379.219 4.79 4.52 4.33 4.06 3.8 3.54 3.36 3.2 3.02 2.9
1398.509 2.86 2.87 2.88 2.84 2.91 2.98 3.03 3.12 3.21 3.38
1417.799 3.54 3.63 3.7 3.85 4.02 4.22 4.46 4.68 4.91 5.24
1437.089 5.67 6.17 6.73 7.36 8.09 8.88 9.63 10.31 10.97 11.48
1456.378 11.76 11.98 12.22 12.25 11.7 10.49 8.96 7.48 6.21 5.15
1475.668 4.39 3.93 3.69 3.57 3.47 3.45 3.48 3.59 3.68 3.83
1494.958 4.12 4.55 5.02 5.53 6.3 7.31 8.53 10 11.55 12.93
1514.248 13.92 14.22 13.75 12.7 11.2 9.24 7.14 5.43 4.19 3.38
1533.538 2.89 2.55 2.25 2.05 1.95 1.76 1.67 1.68 1.63 1.52
1552.827 1.39 1.32 1.28 1.2101 1.2051 1.164 1.1651 1.2655 1.2024 1.1681
1572.117 1.2055 1.1521 1.1266 1.1434 1.1385 1.1997 1.2571 1.1717 1.0678 1.0672
1591.407 1.1252 1.1909 1.161 1.0852 1.1069 1.1649 1.1953 1.2785 1.34 1.36
1610.697 1.43 1.44 1.42 1.47 1.53 1.57 1.59 1.6 1.59 1.56
1629.986 1.52 1.5 1.51 1.43 1.31 1.278 1.2682 1.1582 0.9899 0.8793
1649.276 0.819 0.8528 0.906 0.8813 0.8702 0.8633 0.7699 0.7008 0.6857 0.7359
1668.566 0.731 0.72 0.7518 0.7516 0.6839 0.6152 0.6165 0.584 0.523 0.5077
1687.856 0.5715 0.5953 0.6287 0.5796 0.4758 0.5319 0.592 0.5557 0.5146 0.5079
1707.146 0.5254 0.5125 0.5457 0.5684 0.5656 0.5958 0.598 0.6221 0.6127 0.5976
1726.435 0.6323 0.7027 0.716 0.7057 0.7508 0.7508 0.788 0.8632 0.8287 0.7856
1745.725 0.8306 0.844 0.8254 0.8971 0.9283 0.8962 0.8903 0.9546 0.9653 0.9368
1765.015 1.0265 1.0365 1.0224 1.0794 1.1926 1.2361 1.2605 1.35 1.45 1.54
1784.305 1.56 1.55 1.49 1.42 1.33 1.1589 1.0032 0.965 0.9063 0.8365
1803.594 0.8393 0.883 0.8882 0.8207 0.7975 0.8566 0.92 0.9015 0.9076 0.8971
1822.884 0.8612 0.917 0.9966 1.0051 1.002 0.9941 0.9724 1.0358 1.0406 1.05
1842.174 1.1281 1.1582 1.184 1.231 1.29 1.32 1.4 1.47 1.54 1.56
1861.464 1.54 1.64 1.74 1.86 1.97 2.03 2.13 2.3 2.47 2.62
1880.754 2.72 2.85 3.03 3.15 3.28 3.44 3.51 3.55 3.62 3.7
1900.043 3.75 3.77 3.83 3.78 3.79 3.92 4 4.09 4.25 4.44
1919.333 4.54 4.65 4.84 5.1 5.33 5.53 5.79 6.05 6.35 6.69
1938.623 7.01 7.31 7.65 8.02 8.47 8.95 9.43 9.85 10.31 10.88
1957.913 11.45 12.13 12.83 13.51 14.3 15.11 15.98 16.97 17.93 18.94
1977.202 20.05 21.23 22.49 23.78 25.13 26.6 28.15 29.78 31.44 33.22
1996.492 35.15 37.16 39.34 41.72 44.28 47.09 50.07 53.25 56.75 60.47
2015.782 64.44 68.74 73.33 78.16 83.21 88.54 94.1 99.77 105.55 111.39
2035.072 117.05 122.53 127.84 132.82 137.43 141.65 145.53 149 152.01 154.61
2054.362 156.6 158 158.72 158.73 158.1 156.68 154.45 151.51 147.75 143.18
2073.651 138.03 132.36 126.3 120.08 113.78 107.55 101.45 95.53 90.01 84.85
2092.941 80 75.45 71.28 67.44 63.94 60.61 57.41 54.4 51.48 48.72
2112.231 46.1 43.65 41.42 39.35 37.47 35.87 34.44 33.25 32.23 31.33
2131.521 30.58 29.94 29.36 28.87 28.44 28.02 27.62 27.16 26.63 26.09
2150.810 25.54 25.01 24.5 23.97 23.42 22.99 22.57 22.14 21.86 21.61
2170.100 21.44 21.33 21.29 21.4 21.55 21.75 21.97 22.21 22.49 22.71
2189.390 22.88 23.05 23.18 23.2 23.11 22.86 22.44 21.93 21.32 20.56
2208.680 19.64 18.66 17.61 16.54 15.53 14.47 13.39 12.39 11.47 10.58
2227.970 9.81 9.24 8.71 8.09 7.62 7.31 6.98 6.6 6.27 5.99
2247.259 5.69 5.47 5.19 4.95 4.76 4.57 4.38 4.15 3.98 3.81
2266.549 3.65 3.46 3.35 3.31 3.21 3.08 2.99 3.06 3.05 2.92
2285.839 2.87 2.88 2.75 2.6 2.61 2.51 2.4 2.32 2.24 2.24
2305.129 2.22 2.12 2.03 1.97 1.87 1.78 1.76 1.68 1.57 1.52
2324.418 1.52 1.53 1.46 1.41 1.37 1.34 1.36 1.39 1.35 1.3
2343.708 1.2638 1.2271 1.218 1.1631 1.1004 1.0625 0.9922 0.9723 1.0175 1.024
2362.998 1.0316 0.972 0.9004 0.9319 0.9257 0.9286 0.8833 0.8796 0.9154 0.9024
2382.288 0.8624 0.8392 0.8487 0.8322 0.8675 0.8861 0.831 0.7555 0.7271 0.7485
2401.578 0.71 0.6816 0.6728 0.6746 0.7314 0.7081 0.6937 0.6645 0.6446 0.708
2420.867 0.7115 0.5977 0.5994 0.6752 0.7091 0.7003 0.6867 0.6719 0.5634 0.5729
2440.157 0.6341 0.5924 0.5388 0.5195 0.521 0.522 0.4936 0.4811 0.5553 0.6163
2459.447 0.6767 0.7371 0.6965 0.6742 0.6397 0.5393 0.5409 0.5771 0.5828 0.6325
2478.737 0.5964 0.5955 0.6985 0.718 0.6757 0.6539 0.6801 0.6328 0.5636 0.6003
2498.026 0.6767 0.6777 0.6738 0.6677 0.7036 0.7514 0.7411 0.7373 0.7283 0.6667
2517.316 0.6173 0.6973 0.7258 0.6972 0.6701 0.6441 0.729 0.7975 0.7494 0.728
2536.606 0.7593 0.7179 0.6887 0.7036 0.7393 0.7771 0.74 0.7247 0.7255 0.7644
2555.896 0.8078 0.8005 0.8665 0.8672 0.8452 0.962 0.9212 0.8148 0.8969 0.9246
2575.186 0.8647 0.8624 0.8599 0.8998 0.9426 1.01 0.9956 0.9239 0.9394 0.9101
2594.475 0.8518 0.8273 0.9206 0.9549 0.8718 0.8705 0.8205 0.7635 0.7307 0.6833
2613.765 0.693 0.789 0.8949 0.9049 0.8926 0.8032 0.7653 0.724 0.7282 0.8579
2633.055 0.8373 0.8017 0.8265 0.8285 0.7617 0.7543 0.7993 0.7986 0.7645 0.6856
2652.345 0.7237 0.836 0.8342 0.8002 0.8021 0.7356 0.7333 0.734 0.8107 0.9238
2671.634 0.9755 1.0673 1.0959 1.0413 0.9844 0.9718 1.0586 1.1778 1.2209 1.3
2690.924 1.32 1.42 1.5 1.58 1.7 1.66 1.62 1.69 1.78 1.89
2710.214 1.96 2.01 2.07 2.19 2.45 2.56 2.61 2.72 2.81 2.98
2729.504 3.12 3.22 3.27 3.3 3.35 3.35 3.36 3.33 3.26 3.24
2748.794 3.13 2.96 2.77 2.61 2.46 2.33 2.2 2.07 2.01 2
2768.083 2 1.86 1.71 1.69 1.62 1.51 1.51 1.48 1.39 1.37
2787.373 1.44 1.45 1.35 1.31 1.2621 1.2446 1.35 1.48 1.47 1.45
2806.663 1.45 1.44 1.43 1.38 1.45 1.54 1.61 1.67 1.74 1.81
2825.953 1.75 1.79 1.84 1.87 1.94 2.04 2.12 2.29 2.52 2.66
2845.242 2.87 3.01 3.29 3.6 3.9 4.25 4.53 4.97 5.34 5.65
2864.532 5.98 6.41 6.98 7.49 8.01 8.64 9.21 9.74 10.29 10.72
2883.822 11.01 11.17 11.06 10.73 10.36 9.87 9.35 8.91 8.49 8.18
2903.112 7.97 7.96 8.13 8.31 8.69 9.21 9.81 10.6 11.45 12.5
2922.401 13.74 14.89 16.09 17.27 18.31 19.26 19.97 20.39 20.6 20.81
2941.691 20.94 20.94 20.95 20.99 21 21.04 21.1 20.84 20.14 19.2
2960.981 17.94 16.38 14.86 13.37 11.92 10.71 9.73 8.88 8.3 7.87
2980.271 7.53 7.26 7.11 7.21 7.23 7.18 7.23 7.39 7.58 7.6
2999.561 7.79 8.22 8.62 8.85 9.17 9.52 9.9 10.37 10.82 11.51
3018.850 12.4 13.41 14.36 14.98 15.26 15.08 14.26 13.23 12 10.68
3038.140 9.66 8.91 8.64 8.65 8.59 8.57 8.44 8.32 8.25 8.11
3057.430 7.87 7.55 7.26 6.83 6.34 5.97 5.55 5.04 4.67 4.39
3076.720 4.07 3.84 3.62 3.46 3.38 3.21 3.16 3.05 2.88 2.79
3096.009 2.73 2.63 2.45 2.36 2.23 2.07 1.9 1.69 1.63 1.58
3115.299 1.39 1.34 1.36 1.33 1.2767 1.2311 1.1757 1.1436 1.1685 1.1434
3134.589 1.0787 1.2672 1.3 1.0755 1.0324 0.9657 0.8565 0.7135 0.5835 0.5636
3153.879 0.5323 0.5143 0.4878 0.4459 0.4795 0.37618 0.31991 0.3916 0.4625 0.4932
3173.169 0.35133 0.2664 0.2076 0.171 0.2365 0.3351 0.3895 0.27797 0.2051 0.31878
3192.458 0.4402 0.30866 0.27178 0.27747 0.12 0.1896 0.2431 0.268 0.268 0.122
3211.748 0.093 0.167 0.226 0.2598 0.2524 0.2489 0.35839 0.1868 0.133 0.31979
3231.038 0.2435 0.2341 0.2296 0.2692 0.31106 0.2302 0.2617 0.33835 0.307 0.2584
3250.328 0.153 0.011 0.112 0.2585 0.2132 0.138 0.045 0.154 0.37511 0.37065
3269.617 0.2191 0.2653 0.4009 0.4514 0.34806 0.2487 0.33141 0.2657 0.149 0.2169
3288.907 0.215 0.15 0.16 0.122 0.123 0.056 0.059 0.087 0.104 0.178
3308.197 0.2211 0.27863 0.281325 0.282307 0.142 0.019 0.114 0.2 0.2121 0.2585
3327.487 0.29995 0.223 0.286146 0.32009 0.2719 0.4187 0.37786 0.30915 0.36757 0.2328
3346.777 0.2133 0.2556 0.174 0.109 0.101 0.13 0.148 0.1954 0.30644 0.36872
3366.066 0.2125 0.108 0.1959 0.1977 0.137 0.11 0.2001 0.279292 0.092 0.086
3385.356 0.27498 0.2553 0.169 0.1905 0.1963 0.177 0.094 0 0.018 0.1818
3404.646 0.2593 0.2696 0.35519 0.27385 0.2321 0.2656 0.31832 0.29191 0.139 0.176
3423.936 0.2533 0.149 0.07 0.168 0.249 0.2227 0.3936 0.37695 0.2458 0.32478
3443.225 0.37243 0.27488 0.164 0.159 0.16 0.2265 0.3868 0.4624 0.3503 0.173
3462.515 0.129 0.2333 0.2193 0.163 0.166 0.2175 0.118 0.122 0.2086 0.2424
3481.805 0.31875 0.2208 0.15 0.2394 0.302 0.34845 0.1975 0.135 0.2162 0.07
3501.095 0.165 0.2189 0.136 0.214 0.29292 0.1826 0.071 0.123 0.2458 0.2025
3520.385 0.156 0.2212 0.2193 0.27768 0.2055 0.1818 0.30253 0.32088 0.162 0.032
3539.674 0.099 0.2307 0.29366 0.126 0.079 0.2034 0.151 0.2474 0.27067 0.1947
3558.964 0.31483 0.3939 0.33886 0.29107 0.32226 0.34352 0.3998 0.280776 0.2026 0.29679
3578.254 0.2434 0.164 0.116 0.2146 0.284279 0.31539 0.4042 0.4022 0.29172 0.32007
3597.544 0.4682 0.4759 0.3894 0.2507 0.2649 0.3814 0.32536 0.2278 0.152 0.129
3616.833 0.2379 0.33235 0.30523 0.288878 0.2596 0.31053 0.465 0.4487 0.452 0.4296
3636.123 0.31702 0.35867 0.35117 0.2202 0.2286 0.4663 0.6245 0.4554 0.286818 0.30818
3655.413 0.2554 0.139 0.161 0.2588 0.33763 0.289305 0.2696 0.30474 0.34312 0.32687
3674.703 0.33215 0.4413 0.483 0.4046 0.38 0.32567 0.2686 0.3987 0.4501 0.35758
3693.993 0.31957 0.34682 0.29283 0.280709 0.30233 0.32913 0.33798 0.2438 0.155 0.2325
3713.282 0.31772 0.2626 0.32998 0.455 0.33816 0.27227 0.2341 0.33647 0.4961 0.499
3732.572 0.4398 0.154 0.2236 0.33446 0.281874 0.4213 0.4392 0.451 0.4322 0.4539
3751.862 0.501 0.258 0.134 0.29062 0.37769 0.4101 0.3902 0.32298 0.35906 0.2507
3771.152 0.29036 0.4005 0.34508 0.34074 0.33717 0.31941 0.4092 0.4536 0.30509 0.37991
3790.441 0.37665 0.34197 0.4335 0.4662 0.36769 0.2979 0.3886 0.1852 0.04 0.2023
3809.731 0.1932 0.283578 0.3834 0.283655 0.29676 0.2856 0.2048 0.259 0.4376 0.4495
3829.021 0.3983 0.4733 0.4407 0.4342 0.4075 0.2542 0.32986 0.4349 0.4356 0.4817
3848.311 0.5885 0.6307 0.5598 0.5368 0.5644 0.5339 0.3933 0.31931 0.4403 0.605
3867.601 0.6207 0.4051 0.37375 0.3876 0.2352 0.31743 0.4184 0.4749 0.5161 0.6187
3886.890 0.5011 0.35767 0.5143 0.5188 0.4472 0.3999 0.3843 0.5378 0.5973 0.406
3906.180 0.388 0.572 0.5775 0.4241 0.5966 0.6899 0.5194 0.5525 0.7492 0.6924
3925.470 0.5918 0.5015 0.3643 0.3969 0.4074 0.5443 0.6411 0.7618 0.6487 0.4218
3944.760 0.4933 0.6587 0.7328 0.6924 0.6971 0.7236 0.6869 0.6107 0.565 0.6022
3964.049 0.6669 0.5172 0.4133 0.6866 0.828 0.6422 0.7396 0.8471 0.6706 0.6864
3983.339 0.8495 0.9787 0.9645 0.6853 0.5271 0.5658 0.7484 0.8044 0.7694 0.8696
##END=
