##TITLE=5-Hydroxyindole-3-acetic acid
##JCAMP-DX=4.24
##DATA TYPE=INFRARED SPECTRUM
##ORIGIN=EPA-IR VAPOR PHASE LIBRARY
##OWNER=SRD/NIST
Collection (C) 2018 copyright by the U.S. Secretary of Commerce
on behalf of the United States of America. All rights reserved.
##CAS REGISTRY NO=1321-73-9
##MOLFORM=C 10 H 9 N O 3
##$NIST SOURCE=MSDC-IR
##STATE=gas
##XUNITS=1/CM
##YUNITS=ABSORBANCE
##XFACTOR=1.
##YFACTOR=0.001
##DELTAX=3.85796
##FIRSTX=501.5
##LASTX=4000.7
##FIRSTY=2.65
##MAXX=4000.7
##MINX=501.534
##MAXY=0.06864
##MINY=0.0001455
##NPOINTS=908
##XYDATA=(X++(Y..Y))
501.534 2.65 2.33 2.02 1.87 1.73 1.43 1.3 1.21 1.19 1.35
540.114 1.53 1.78 1.99 2.18 2.37 2.74 3.37 4.08 4.63 5.18
578.693 5.78 5.21 3.97 3.21 2.68 2.24 2.16 2.54 3.22 3.98
617.273 4.8 6.27 6.92 5.78 4.9 4.34 3.71 3.36 3.26 3.32
655.852 3.37 3.45 3.55 4.21 5.64 6.8 7.2 7.22 6.73 5.47
694.432 4.4 4.19 4.5 5.09 5.88 6.83 7.89 8.99 10 10.7
733.011 11.02 10.86 10.26 9.39 8.65 8.65 9.86 12.48 16.08 20.12
771.591 25.03 28.61 27.23 23.49 20.18 16.93 14.14 11.73 9.68 8.57
810.170 8.14 8.15 8.71 10.07 11.85 12.29 11.69 11.18 10.23 9.04
848.750 8.6 8.76 7.78 6.11 5 4.08 3.23 2.63 2.26 1.98
887.330 1.85 1.84 1.85 1.91 1.98 2.13 2.5 3.31 5.07 8.33
925.909 12.41 15.08 15.65 14.95 12.38 8.02 4.63 3.17 2.54 2.24
964.489 2.13 2.19 2.51 2.89 3.08 3.22 3.27 3.06 2.76 2.47
1003.068 2.18 2.01 1.98 1.94 2.04 2.36 2.84 3.51 4.42 5.52
1041.648 6.79 8.35 10.04 11.2 11.34 10.94 10.18 8.78 7.53 7.13
1080.227 7.29 7.54 7.67 7.45 6.84 6.11 5.32 4.58 4.08 3.79
1118.807 3.7 3.74 3.84 4.08 4.4 5.06 6.61 9.45 14.33 22.56
1157.387 35.79 52.02 63.94 68.64 68.64 61.04 45.63 31.71 23.23 18.13
1195.966 15.45 14.81 15.84 17.4 18.35 18.88 18.9 17.5 15.46 14.53
1234.546 14.47 13.44 11.57 10.51 9.43 7.64 6.09 5.17 4.79 4.82
1273.125 5.12 5.72 6.64 7.72 8.48 8.65 8.43 7.97 7.62 8.28
1311.705 10.62 14.23 17.73 19.76 20.01 18.55 15.6 12.26 10.02 8.71
1350.284 7.49 6.1 4.52 3.2 2.5 2.25 2.21 2.34 2.52 2.61
1388.864 2.74 2.97 3.18 3.46 3.84 4.19 4.52 4.8 5.13 5.52
1427.443 6.05 6.95 8.52 11.16 15.15 20.07 24.35 27.11 28.53 27.69
1466.023 25.31 24.33 25.43 27.08 27.83 27.06 24.59 20.75 16.29 12.57
1504.603 10.15 8.25 6.56 4.95 3.86 3.46 3.63 4.2 5.05 6.18
1543.182 7.49 8.61 9.41 9.7 9.48 8.98 8.43 8.07 8.1 8.66
1581.762 9.6 10.53 11.15 11.16 10.33 8.9 7.32 6.05 5.57 5.94
1620.341 6.83 7.61 7.81 7.29 6.18 4.76 3.42 2.51 2.15 2.09
1658.921 2.13 2.07 1.94 1.77 1.57 1.42 1.3 1.27 1.34 1.39
1697.500 1.43 1.5 1.58 1.57 1.47 1.31 1.15 0.9477 0.7414 0.5775
1736.080 0.4932 0.4657 0.4189 0.3715 0.3335 0.3194 0.3261 0.3327 0.3349 0.3467
1774.659 0.3716 0.3964 0.4376 0.5063 0.5995 0.7102 0.8058 0.8567 0.8887 0.8895
1813.239 0.8817 0.9093 0.9777 1.09 1.18 1.23 1.19 1.08 0.9519 0.7846
1851.819 0.6154 0.4826 0.3907 0.3507 0.3223 0.2997 0.2926 0.2858 0.2861 0.2994
1890.398 0.3161 0.3107 0.3118 0.3177 0.3036 0.2991 0.2852 0.2665 0.2683 0.2457
1928.978 0.2458 0.2444 0.2317 0.2351 0.239 0.2528 0.2738 0.3089 0.3206 0.3063
1967.557 0.296 0.2968 0.3035 0.3196 0.3479 0.3725 0.3636 0.3645 0.3801 0.3969
2006.137 0.3953 0.3559 0.3382 0.3086 0.291 0.2857 0.2739 0.2804 0.2696 0.2588
2044.716 0.2837 0.2967 0.3174 0.3508 0.3378 0.311 0.3151 0.3204 0.2808 0.2518
2083.296 0.2636 0.2698 0.2732 0.2874 0.302 0.3039 0.3043 0.2907 0.2635 0.2604
2121.875 0.2906 0.3018 0.3049 0.3105 0.3207 0.3293 0.3101 0.2898 0.2712 0.2575
2160.455 0.2454 0.2439 0.2488 0.25 0.2633 0.2661 0.2415 0.2305 0.2381 0.2386
2199.035 0.2548 0.2803 0.3015 0.3107 0.3133 0.3149 0.3065 0.3215 0.3486 0.3467
2237.614 0.3414 0.3376 0.3453 0.3638 0.3697 0.3759 0.3695 0.361 0.3683 0.3589
2276.194 0.3246 0.3183 0.3314 0.3382 0.3445 0.3609 0.385 0.4063 0.448 0.4734
2314.773 0.4896 0.5163 0.5082 0.5043 0.5256 0.5292 0.5203 0.5199 0.5538 0.5631
2353.353 0.5227 0.5209 0.5684 0.6482 0.7543 0.8599 0.9449 0.992 0.9894 0.9702
2391.932 0.917 0.8433 0.783 0.7138 0.6669 0.6444 0.6375 0.6421 0.6293 0.5996
2430.512 0.5757 0.5593 0.5628 0.5527 0.5435 0.5846 0.6166 0.6475 0.6966 0.7408
2469.092 0.7579 0.7738 0.8123 0.8389 0.8572 0.893 0.9218 0.8895 0.8491 0.8173
2507.671 0.73 0.6479 0.5746 0.5347 0.512 0.5035 0.5353 0.5641 0.5857 0.599
2546.251 0.628 0.6336 0.6237 0.6047 0.5842 0.5648 0.5653 0.5725 0.5321 0.4704
2584.830 0.432 0.4289 0.4109 0.3724 0.3755 0.4031 0.3947 0.4088 0.4332 0.4429
2623.410 0.4512 0.4765 0.5229 0.5431 0.5743 0.5928 0.5759 0.5579 0.5335 0.5306
2661.989 0.5305 0.5014 0.4997 0.499 0.4882 0.4904 0.4986 0.4984 0.4819 0.4801
2700.569 0.4867 0.4965 0.4973 0.5254 0.5565 0.5611 0.5678 0.5751 0.614 0.6838
2739.148 0.743 0.8506 0.9625 0.9991 1.01 0.9794 0.8892 0.7641 0.6799 0.6544
2777.728 0.6543 0.68 0.7373 0.7887 0.816 0.8276 0.845 0.912 0.9698 0.9874
2816.308 1.01 1.07 1.17 1.26 1.36 1.53 1.7 1.87 2.13 2.48
2854.887 2.98 3.61 4.41 5.34 6.08 6.51 6.65 6.53 6.22 5.88
2893.467 5.67 5.63 5.67 5.83 6.17 6.75 7.54 8.59 9.71 10.6
2932.046 11.14 11.23 10.79 10.24 9.57 8.26 7.16 6.75 6.76 6.84
2970.626 6.74 6.45 5.8 4.81 3.85 3.2 2.79 2.69 2.75 3
3009.205 3.53 4.3 5.27 6.27 7.13 7.81 8.17 8.07 7.64 7.03
3047.785 6.38 5.85 5.41 4.98 4.61 4.3 4.14 4.05 3.95 3.88
3086.364 3.86 3.74 3.51 3.23 2.86 2.34 1.89 1.53 1.22 1.05
3124.944 0.9423 0.8488 0.7892 0.7225 0.6464 0.602 0.5606 0.5368 0.5285 0.4898
3163.524 0.4602 0.461 0.5001 0.5224 0.5064 0.5157 0.509 0.4677 0.4646 0.4405
3202.103 0.3978 0.4052 0.4156 0.3713 0.3289 0.3389 0.3109 0.2966 0.3161 0.2891
3240.683 0.2859 0.2825 0.2164 0.2299 0.2408 0.229 0.257 0.2419 0.26 0.265
3279.262 0.2198 0.2006 0.2415 0.2797 0.2742 0.2131 0.1455 0.1996 0.2254 0.2143
3317.842 0.2614 0.2851 0.2398 0.2182 0.2495 0.2758 0.2667 0.2646 0.2813 0.2863
3356.421 0.3024 0.3295 0.3166 0.2819 0.3423 0.4216 0.4255 0.4479 0.4963 0.505
3395.001 0.5275 0.5329 0.5971 0.6783 0.7258 0.7993 0.8547 0.9049 0.9242 0.9395
3433.580 0.9772 0.9955 1.05 1.13 1.19 1.32 1.51 1.71 1.96 2.28
3472.160 2.69 3.22 3.99 5.05 6.38 8.04 9.98 11.96 13.71 15.03
3510.740 15.94 16.23 15.32 13.32 11.21 9 6.43 4.25 2.88 2.07
3549.319 1.6 1.34 1.19 1.12 1.07 0.9903 0.9535 0.9106 0.856 0.8183
3587.899 0.8055 0.7289 0.6758 0.6991 0.7106 0.7622 0.8593 0.9771 1.09 1.32
3626.478 1.72 2.35 3.45 5.21 7.89 11.65 16.13 19.17 19.65 18.53
3665.058 15.43 10.6 5.9 2.87 1.56 0.9722 0.6989 0.5758 0.527 0.4717
3703.637 0.4169 0.3435 0.2787 0.2886 0.3017 0.3048 0.3413 0.3077 0.2605 0.2544
3742.217 0.254 0.2607 0.2395 0.3075 0.3408 0.3709 0.4216 0.4081 0.405 0.4039
3780.797 0.4018 0.4195 0.4737 0.5033 0.4838 0.4184 0.4402 0.493 0.4465 0.4387
3819.376 0.479 0.5034 0.5123 0.5635 0.5738 0.574 0.6096 0.6465 0.6571 0.5885
3857.956 0.6206 0.5861 0.5085 0.5237 0.4999 0.5016 0.5101 0.5303 0.5968 0.5839
3896.535 0.5333 0.5261 0.5121 0.4951 0.4667 0.456 0.4119 0.3823 0.4414 0.4263
3935.115 0.3197 0.3009 0.3601 0.3241 0.2653 0.2371 0.2796 0.2846 0.1697 0.1592
3973.694 0.1963 0.2187 0.2636 0.2957 0.3433 0.3889 0.3804 0.3342
##END=
