##TITLE=Ethyl 2-Nonynoate
##JCAMP-DX=4.24
##DATA TYPE=INFRARED SPECTRUM
##ORIGIN=EPA-IR VAPOR PHASE LIBRARY
##OWNER=SRD/NIST
Collection (C) 2018 copyright by the U.S. Secretary of Commerce
on behalf of the United States of America. All rights reserved.
##CAS REGISTRY NO=1322-12-9
##MOLFORM=C 11 H 18 O 2
##$NIST SOURCE=MSDC-IR
##STATE=gas
##XUNITS=1/CM
##YUNITS=ABSORBANCE
##XFACTOR=1.
##YFACTOR=0.001
##DELTAX=1.92934
##FIRSTX=549.9
##LASTX=3999.5
##FIRSTY=3.55
##MAXX=3999.53
##MINX=549.863
##MAXY=0.51646
##MINY=0
##NPOINTS=1789
##XYDATA=(X++(Y..Y))
549.863 3.55 3.69 3.76 3.88 3.92 3.92 3.82 3.76 3.88 3.91
569.156 3.69 3.57 3.43 3.33 3.38 3.43 3.35 3.35 3.36 3.27
588.450 3.2027 3.1029 3.0583 3.0195 2.8989 2.7863 2.6393 2.5383 2.4082 2.21554
607.743 2.083 1.923 1.859 1.895 1.901 1.85 1.779 1.738 1.696 1.638
627.037 1.619 1.638 1.63 1.653 1.649 1.58 1.554 1.618 1.662 1.655
646.330 1.694 1.692 1.67 1.684 1.721 1.7 1.682 1.741 1.834 1.848
665.624 1.843 1.812 1.868 1.997 1.984 1.987 2.016 2.083 2.096 2.046
684.917 2.1133 2.1782 2.1809 2.22581 2.29841 2.3535 2.4878 2.638 2.7296 2.8332
704.210 2.9818 3.1819 3.37 3.61 3.89 4.24 4.65 4.98 5.3 5.68
723.504 6.05 6.4 6.8 7.26 7.77 8.31 8.95 9.66 10.37 11.17
742.797 12.04 12.91 13.76 14.6 15.34 15.86 16.14 16.15 15.99 15.69
762.091 15.18 14.51 13.69 12.85 12 11.12 10.36 9.63 8.97 8.46
781.384 7.95 7.47 7.16 6.92 6.7 6.52 6.34 6.21 6.1 5.99
800.678 5.97 5.95 5.96 5.93 5.85 5.84 5.78 5.74 5.73 5.67
819.971 5.59 5.51 5.51 5.45 5.4 5.39 5.33 5.28 5.31 5.42
839.264 5.49 5.55 5.63 5.73 5.91 6.03 6.15 6.32 6.53 6.68
858.558 6.77 6.82 6.73 6.56 6.32 5.98 5.6 5.28 4.91 4.55
877.851 4.25 3.99 3.8 3.58 3.36 3.23 3.1411 3.053 2.9671 2.8924
897.145 2.8378 2.8043 2.8012 2.7905 2.7697 2.7754 2.7265 2.6836 2.689 2.6777
916.438 2.7572 2.8154 2.7664 2.7775 2.8041 2.8136 2.8294 2.8489 2.9073 2.9147
935.732 2.9204 2.9912 3.0471 3.0748 3.1363 3.1834 3.1994 3.27 3.37 3.4
955.025 3.42 3.5 3.58 3.59 3.63 3.67 3.73 3.79 3.84 3.89
974.318 4 4.15 4.26 4.41 4.61 4.79 4.97 5.2 5.44 5.66
993.612 5.92 6.22 6.58 6.96 7.36 7.74 8.11 8.39 8.61 8.88
1012.905 9.15 9.39 9.68 9.99 10.34 10.8 11.35 12.09 12.96 13.98
1032.199 15.24 16.63 18.16 19.98 21.97 24.09 26.44 29.04 32.06 35.72
1051.492 40.18 45.71 52.4 60.25 68.95 78.15 87.4 95.98 103.25 108.7
1070.786 111.96 112.71 111.13 107.39 101.93 95.52 88.54 81.58 75.12 69.47
1090.079 65.02 61.65 59.03 56.63 53.92 50.65 46.74 42.33 37.72 33.36
1109.372 29.49 26.21 23.42 20.98 18.87 17.11 15.67 14.5 13.53 12.7
1128.666 12.08 11.64 11.27 10.96 10.81 10.72 10.73 10.83 10.88 11.08
1147.959 11.29 11.44 11.74 12 12.23 12.57 12.98 13.41 13.86 14.28
1167.253 14.65 14.99 15.46 16.04 16.53 17.1 17.74 18.42 19.19 20.05
1186.546 21.01 21.94 22.94 24.17 25.74 27.58 29.74 32.27 35.39 39.31
1205.840 43.73 48.94 55.11 62.32 70.76 80.46 91.71 104.97 120.71 139.61
1225.133 162.39 189.93 222.98 261.91 306.54 355.7 406.33 453.41 491.2 513.67
1244.426 516.46 498.41 461.53 411.07 353.9 297.16 245.91 202.34 166.61 138.04
1263.720 115.54 98.09 84.66 74.15 65.89 59.32 53.88 49.23 45.18 41.73
1283.013 38.84 36.4 34.36 32.74 31.53 30.66 30.03 29.62 29.47 29.51
1302.307 29.6 29.64 29.53 29.17 28.64 27.96 27.22 26.64 26.34 26.25
1321.600 26.29 26.36 26.21 25.65 24.63 23.21 21.63 19.99 18.44 17.15
1340.894 16.19 15.64 15.39 15.29 15.35 15.49 15.77 16.33 17.19 18.54
1360.187 20.62 23.58 26.97 29.45 30.27 29.84 28.26 25.19 21.47 18.44
1379.480 16.54 15.49 14.84 14.39 14.04 13.72 13.39 13.05 12.74 12.45
1398.774 12.16 11.85 11.57 11.29 11.07 10.88 10.69 10.57 10.52 10.6
1418.067 10.79 11.06 11.45 12.04 12.79 13.63 14.56 15.43 16.17 16.76
1437.361 17.17 17.47 17.68 17.89 18.19 18.56 19.1 19.78 20.55 21.36
1456.654 22.15 22.94 23.67 24.28 24.75 25.08 25.06 24.61 23.65 22.19
1475.948 20.48 18.59 16.69 14.99 13.55 12.33 11.33 10.53 9.85 9.28
1495.241 8.81 8.32 7.89 7.57 7.23 6.87 6.52 6.22 5.9 5.58
1514.534 5.31 4.99 4.71 4.45 4.25 4.12 3.95 3.83 3.71 3.55
1533.828 3.43 3.38 3.29 3.1431 3.0419 3.0201 3.0397 3.025 2.9976 2.9662
1553.121 2.906 2.819 2.7187 2.6799 2.7175 2.7395 2.7176 2.6899 2.6583 2.6235
1572.415 2.5945 2.5823 2.5851 2.6474 2.6905 2.668 2.6541 2.6715 2.6982 2.685
1591.708 2.7055 2.7401 2.7517 2.7676 2.7969 2.8412 2.8766 2.9423 2.9751 3.0182
1611.002 3.1191 3.191 3.23 3.3 3.43 3.48 3.51 3.61 3.74 3.86
1630.295 3.98 4.05 4.08 4.16 4.26 4.32 4.4 4.45 4.44 4.53
1649.588 4.7 4.75 4.86 5.06 5.24 5.4 5.6 5.86 6.13 6.46
1668.882 6.81 7.17 7.64 8.22 8.84 9.48 10.25 11.1 12.07 13.22
1688.175 14.47 15.87 17.4 19.08 21.06 23.37 26.16 29.66 33.68 38.62
1707.469 44.53 51.63 59.98 69.7 80.92 93.69 107.99 123.13 139.47 157.27
1726.762 176.44 195.27 210.48 218.98 220.45 214.63 199.99 178.68 157.22 138.23
1746.056 121.49 106.11 91.83 78.35 66.05 55.11 45.5 37.58 31.11 25.93
1765.349 21.85 18.6 16.01 13.98 12.34 11.03 9.95 9.04 8.27 7.62
1784.642 7.05 6.55 6.12 5.75 5.36 4.98 4.72 4.52 4.3 4.08
1803.936 3.89 3.72 3.57 3.42 3.27 3.1559 3.0394 2.9065 2.8054 2.7265
1823.229 2.628 2.5442 2.5046 2.4389 2.3713 2.3328 2.27967 2.24293 2.1878 2.129
1842.523 2.089 2.071 2.063 2.034 2.019 2.034 2.054 2.012 1.975 1.971
1861.816 1.974 1.952 1.922 1.948 1.963 1.951 1.942 1.949 1.924 1.899
1881.110 1.918 1.925 1.893 1.883 1.904 1.924 1.974 2 2.009 2.024
1900.403 2.038 2.063 2.096 2.1571 2.20263 2.22129 2.27379 2.3309 2.3704 2.4023
1919.696 2.4118 2.4485 2.5257 2.5729 2.5508 2.5422 2.5746 2.5925 2.5796 2.5251
1938.990 2.4661 2.3775 2.27346 2.2222 2.1911 2.1601 2.1161 2.038 1.979 1.901
1958.283 1.824 1.776 1.717 1.686 1.661 1.643 1.639 1.614 1.569 1.523
1977.577 1.542 1.543 1.501 1.489 1.503 1.516 1.517 1.554 1.59 1.611
1996.870 1.631 1.643 1.668 1.714 1.757 1.734 1.729 1.773 1.813 1.818
2016.164 1.821 1.839 1.847 1.881 1.932 1.945 1.946 1.957 1.968 1.956
2035.457 1.929 1.922 1.943 1.952 1.963 1.984 2.006 2.04 2.056 2.097
2054.750 2.1318 2.1616 2.1743 2.1831 2.2277 2.29229 2.3151 2.3308 2.3777 2.3954
2074.044 2.4102 2.4217 2.4368 2.4599 2.5106 2.5374 2.5586 2.5951 2.5721 2.5623
2093.337 2.5853 2.5798 2.5435 2.5176 2.5042 2.5032 2.5151 2.4969 2.4395 2.4078
2112.631 2.4212 2.4329 2.3898 2.3814 2.3979 2.3742 2.3606 2.3712 2.3878 2.418
2131.924 2.4652 2.4453 2.4101 2.4088 2.4303 2.4818 2.5653 2.6385 2.6773 2.6902
2151.218 2.7386 2.8432 2.9402 2.9911 3.0851 3.26 3.44 3.62 3.8 4
2170.511 4.28 4.61 4.96 5.35 5.81 6.33 6.87 7.48 8.13 8.84
2189.804 9.64 10.49 11.44 12.54 13.78 15.23 16.91 18.87 21.19 23.92
2209.098 27.1 30.81 35.03 39.7 44.82 50.27 55.81 61.23 66.13 70.2
2228.391 73.09 74.45 74.14 72.22 68.8 64.16 58.71 52.94 47.26 41.92
2247.685 37.11 32.87 29.2 26.04 23.27 20.82 18.64 16.74 15.12 13.74
2266.978 12.58 11.56 10.76 10.13 9.57 9.13 8.77 8.5 8.26 8.09
2286.272 8 7.97 7.97 7.98 7.97 8.01 8.1 8.17 8.23 8.26
2305.565 8.25 8.18 8.03 7.86 7.63 7.33 7.02 6.68 6.31 5.93
2324.858 5.58 5.25 4.93 4.62 4.27 3.97 3.76 3.55 3.35 3.1759
2344.152 3.0759 2.987 2.8986 2.8285 2.7149 2.5932 2.5366 2.489 2.4305 2.4054
2363.445 2.3638 2.3184 2.3137 2.30818 2.28389 2.26512 2.24036 2.20818 2.1786 2.1638
2382.739 2.1461 2.1181 2.08 2.076 2.096 2.077 2.071 2.066 2.034 2.013
2402.032 2.013 2.009 1.981 1.968 1.955 1.907 1.883 1.906 1.918 1.912
2421.326 1.906 1.856 1.834 1.878 1.847 1.8 1.803 1.814 1.815 1.814
2440.619 1.822 1.783 1.784 1.807 1.815 1.816 1.815 1.884 1.89 1.866
2459.912 1.866 1.874 1.902 1.92 1.95 1.947 1.943 1.965 1.983 1.999
2479.206 1.99 1.991 1.93 1.862 1.824 1.768 1.718 1.705 1.701 1.628
2498.499 1.55 1.5 1.49 1.467 1.43 1.382 1.329 1.302 1.287 1.306
2517.793 1.283 1.258 1.269 1.269 1.241 1.23 1.241 1.238 1.272 1.277
2537.086 1.285 1.295 1.291 1.287 1.266 1.295 1.284 1.286 1.346 1.334
2556.380 1.314 1.325 1.315 1.299 1.318 1.323 1.336 1.382 1.391 1.345
2575.673 1.336 1.352 1.364 1.379 1.379 1.367 1.37 1.391 1.405 1.388
2594.966 1.368 1.366 1.405 1.415 1.382 1.395 1.438 1.47 1.489 1.534
2614.260 1.532 1.482 1.524 1.612 1.651 1.633 1.61 1.661 1.673 1.666
2633.553 1.686 1.685 1.705 1.715 1.736 1.742 1.753 1.784 1.786 1.791
2652.847 1.823 1.839 1.822 1.824 1.85 1.902 1.96 1.933 1.94 1.983
2672.140 1.98 1.993 2.002 2.019 2.049 2.037 2.04 2.064 2.03 1.995
2691.434 1.993 1.988 1.928 1.934 1.965 1.96 1.919 1.9 1.918 1.883
2710.727 1.902 1.938 1.909 1.936 2.007 2.009 2.016 2.081 2.1483 2.1845
2730.020 2.1882 2.22946 2.27577 2.29447 2.3225 2.3752 2.4341 2.4599 2.4801 2.4831
2749.314 2.5138 2.5392 2.5201 2.5363 2.5486 2.5914 2.615 2.6224 2.6356 2.6832
2768.607 2.7421 2.7775 2.8338 2.8689 2.9513 3.0372 3.1129 3.1829 3.21 3.37
2787.901 3.56 3.67 3.75 3.82 3.98 4.1 4.21 4.41 4.58 4.77
2807.194 5.01 5.2 5.4 5.68 5.98 6.23 6.5 6.86 7.27 7.67
2826.488 8.09 8.62 9.25 9.87 10.52 11.33 12.28 13.33 14.46 15.77
2845.781 17.27 18.96 20.87 23.12 25.73 28.68 31.96 35.35 38.77 42
2865.074 44.88 47.29 49.05 50.05 50.34 50.05 49.37 48.49 47.62 46.65
2884.368 45.52 44.3 43.03 41.75 40.53 39.72 39.56 40.05 41.2 43.06
2903.661 45.46 48.29 51.58 55.15 58.92 62.83 66.83 71.05 75.57 80.4
2922.955 85.83 91.88 98.66 106.04 113.86 121.98 129.76 136.77 142.62 146.71
2942.248 148.35 146.95 142.56 135.94 127.73 118.82 110.29 103.2 98.06 94.82
2961.542 93.35 93.03 93.19 93.14 91.95 89.35 85.64 81.16 76.41 72.17
2980.835 68.99 66.65 64.61 62.06 58.57 54.31 49.43 44.46 40.12 36.64
3000.128 33.74 31.14 28.93 26.82 24.77 22.96 21.07 19.32 17.74 16.13
3019.422 14.72 13.43 12.22 11.16 10.31 9.54 8.77 8.17 7.63 7.05
3038.715 6.59 6.27 5.99 5.67 5.32 5.08 4.86 4.55 4.33 4.17
3058.009 4.04 3.92 3.75 3.65 3.61 3.45 3.36 3.32 3.1882 3.0632
3077.302 2.9952 2.9522 2.8478 2.7857 2.7327 2.6486 2.5595 2.5122 2.5086 2.4768
3096.596 2.4257 2.3425 2.25369 2.1376 2.1 2.076 2.074 2.081 1.921 1.8
3115.889 1.737 1.653 1.641 1.625 1.585 1.473 1.332 1.365 1.482 1.366
3135.182 1.219 1.284 1.336 1.23 1.12 1.13 1.12 1.06 1.08 1.17
3154.476 1.17 1.14 1.15 1.12 1.05 1.03 1.04 1.04 0.98 0.84
3173.769 0.84 0.96 0.84 0.7 0.73 0.77 0.73 0.66 0.69 0.76
3193.063 0.73 0.66 0.71 0.76 0.74 0.73 0.6 0.64 0.65 0.45
3212.356 0.39 0.43 0.39 0.4 0.42 0.32 0.38 0.42 0.32 0.3
3231.650 0.38 0.32 0.2 0.21 0.2 0.25 0.28 0.18 0.1 0.2
3250.943 0.14 0 0.04 0.08 0.15 0.17 0.2 0.17 0.08 0.29
3270.236 0.3 0.16 0.16 0.12 0.17 0.19 0.14 0.19 0.17 0.2
3289.530 0.36 0.41 0.32 0.33 0.38 0.32 0.38 0.41 0.37 0.39
3308.823 0.46 0.46 0.47 0.5 0.37 0.35 0.44 0.44 0.36 0.29
3328.117 0.37 0.46 0.43 0.39 0.48 0.52 0.48 0.42 0.4 0.42
3347.410 0.29 0.34 0.36 0.29 0.33 0.44 0.52 0.44 0.41 0.51
3366.704 0.59 0.45 0.49 0.57 0.56 0.6 0.58 0.7 0.59 0.52
3385.997 0.62 0.51 0.45 0.44 0.48 0.64 0.6 0.58 0.63 0.73
3405.290 0.91 0.87 0.89 0.93 0.96 1.01 1.11 1.249 1.292 1.362
3424.584 1.418 1.576 1.732 1.869 2.069 2.1918 2.3396 2.4597 2.6255 2.7199
3443.877 2.8552 2.9963 2.9316 2.9175 2.8609 2.7157 2.5543 2.3859 2.1924 2.019
3463.171 1.921 1.961 1.822 1.58 1.48 1.377 1.27 1.273 1.285 1.11
3482.464 0.99 0.87 0.73 0.77 0.77 0.81 0.83 0.79 0.75 0.73
3501.758 0.72 0.68 0.73 0.74 0.63 0.7 0.79 0.78 0.73 0.56
3521.051 0.6 0.74 0.71 0.63 0.57 0.56 0.61 0.73 0.73 0.58
3540.344 0.62 0.72 0.72 0.68 0.62 0.6 0.71 0.76 0.61 0.6
3559.638 0.71 0.72 0.73 0.63 0.57 0.67 0.64 0.58 0.58 0.56
3578.931 0.56 0.67 0.75 0.74 0.72 0.71 0.65 0.65 0.71 0.66
3598.225 0.72 0.71 0.68 0.76 0.78 0.76 0.8 0.78 0.72 0.66
3617.518 0.6 0.71 0.75 0.77 0.87 0.84 0.87 0.86 0.76 0.73
3636.812 0.73 0.67 0.69 0.87 0.89 0.82 0.78 0.82 0.88 0.85
3656.105 0.82 0.8 0.76 0.78 0.85 0.83 0.76 0.81 0.91 0.93
3675.398 0.85 0.84 0.91 0.88 0.86 0.86 0.83 0.83 0.91 0.93
3694.692 0.88 0.96 1.04 0.99 0.89 0.91 1 0.96 0.9 0.84
3713.985 0.83 0.91 0.94 0.94 0.97 0.96 0.94 0.88 0.9 1.01
3733.279 1.02 0.95 0.92 1.02 1.08 1.04 1.03 0.99 1 0.97
3752.572 0.95 1 1 1.02 1.09 1.1 1.06 1.13 1.07 0.94
3771.866 1.01 1.06 1.08 1.07 1 1.01 1.03 0.99 0.99 1.03
3791.159 1.08 1.08 1.06 1.06 1.02 0.91 0.9 1.02 1.05 1.02
3810.452 1.01 1 0.99 0.91 0.94 0.98 0.96 1.06 1.1 1.08
3829.746 1.1 1.05 1.03 1.05 1.04 1.05 1.07 1.06 1.01 1.01
3849.039 1.03 0.97 0.94 0.94 0.94 1.04 1.05 0.96 1.05 1.11
3868.333 1.04 1.02 1.05 1.04 0.98 0.97 1.07 1.1 1.04 1.05
3887.626 1.03 1.09 1.16 1.12 1.14 1.09 1.01 1.01 1.05 1.14
3906.920 1.1 1.07 1.07 1.05 1.04 1.01 0.97 0.99 1.05 1.04
3926.213 1.09 1.15 1.11 1.09 1.1 1.13 1.11 1.06 1.05 1
3945.506 0.96 1.06 1.13 1.07 1.1 1.19 1.15 1.222 1.337 1.322
3964.800 1.295 1.326 1.33 1.261 1.299 1.346 1.314 1.321 1.399 1.378
3984.093 1.386 1.411 1.318 1.312 1.368 1.337 1.253 1.291 1.331
##END=
