##TITLE=4-Nitrobenzylthiocyanate
##JCAMP-DX=4.24
##DATA TYPE=INFRARED SPECTRUM
##ORIGIN=EPA-IR VAPOR PHASE LIBRARY
##OWNER=SRD/NIST
Collection (C) 2018 copyright by the U.S. Secretary of Commerce
on behalf of the United States of America. All rights reserved.
##CAS REGISTRY NO=13287-49-5
##MOLFORM=C 8 H 6 N 2 O 2 S
##$NIST SOURCE=MSDC-IR
##STATE=gas
##XUNITS=1/CM
##YUNITS=ABSORBANCE
##XFACTOR=1.
##YFACTOR=0.001
##DELTAX=1.92934
##FIRSTX=549.9
##LASTX=3999.5
##FIRSTY=2.51
##MAXX=3999.53
##MINX=549.863
##MAXY=0.11802
##MINY=0
##NPOINTS=1789
##XYDATA=(X++(Y..Y))
549.863 2.51 2.47 2.4 2.39 2.32 2.31 2.28 2.39 2.43 2.4
569.156 2.45 2.43 2.36 2.29 2.2 2.0932 2.0671 1.9762 1.8883 1.897
588.450 1.9644 1.9972 2.0274 2.0917 2.11 2.21 2.22 2.23 2.36 2.49
607.743 2.67 2.84 3.18 3.63 4.08 4.57 5 5.29 5.36 5.32
627.037 5.19 4.83 4.39 4.05 3.78 3.61 3.47 3.31 3.14 3.03
646.330 3.06 3.12 3.16 3.28 3.45 3.54 3.66 3.81 3.95 4.05
665.624 4.13 4.3 4.51 4.7 4.93 5.25 5.65 6.09 6.66 7.31
684.917 8.03 8.93 10.01 11.24 12.56 14 15.33 16.43 17.32 17.79
704.210 17.79 17.48 16.8 15.81 14.62 13.36 12.19 11.1 10.07 9.11
723.504 8.25 7.5 6.88 6.3 5.85 5.51 5.19 4.97 4.84 4.76
742.797 4.73 4.77 4.84 4.86 4.83 4.8 4.81 4.7 4.48 4.25
762.091 3.99 3.73 3.49 3.3 3.21 3.17 3.23 3.4 3.59 3.92
781.384 4.44 5.16 6.24 7.76 9.78 12.31 14.81 16.8 18.06 18.58
800.678 18.59 18.09 17.06 15.87 14.92 14.08 13.16 12.11 10.96 9.78
819.971 8.68 7.77 7.24 7.05 7.05 7.27 7.69 8.24 8.96 9.89
839.264 11.11 12.59 14.37 16.63 19.53 23.23 27.56 31.66 34.25 34.74
858.558 33.68 31.43 27.66 22.33 17.02 13.21 10.82 9.31 8.25 7.42
877.851 6.75 6.23 5.78 5.34 4.98 4.67 4.45 4.3 4.15 4
897.145 3.81 3.62 3.53 3.42 3.25 3.14 3 2.85 2.74 2.59
916.438 2.41 2.24 2.0846 1.9637 1.8819 1.7775 1.6329 1.5301 1.4831 1.4257
935.732 1.3774 1.3341 1.3179 1.2834 1.2619 1.2641 1.2752 1.3285 1.3751 1.3715
955.025 1.3593 1.338 1.3544 1.3664 1.3221 1.3049 1.2625 1.2092 1.15857 1.1449
974.318 1.16266 1.12274 1.10566 1.14313 1.12998 1.10185 1.1255 1.12023 1.09983 1.10549
993.612 1.12152 1.19481 1.3417 1.4895 1.6649 1.9994 2.57 3.52 4.97 6.76
1012.905 8.14 8.56 8.38 8 7.1 5.33 3.49 2.34 1.7957 1.5467
1032.199 1.3984 1.3532 1.3132 1.2542 1.2114 1.19932 1.18838 1.18208 1.14593 1.12777
1051.492 1.16803 1.19086 1.17873 1.18563 1.2023 1.2035 1.2265 1.2847 1.3726 1.4367
1070.786 1.5216 1.6165 1.6943 1.8008 1.8877 1.9771 2.17 2.41 2.66 2.96
1090.079 3.25 3.61 4.08 4.63 5.25 5.92 6.63 7.31 7.8 8.03
1109.372 7.96 7.59 6.98 6.1 5.07 4.12 3.37 2.81 2.4 2.18
1128.666 1.9689 1.7994 1.7212 1.7037 1.6851 1.6416 1.6587 1.6638 1.6617 1.6801
1147.959 1.6989 1.6785 1.6871 1.7669 1.8155 1.8582 1.8716 1.9018 2.0144 2.14
1167.253 2.26 2.49 2.88 3.43 4.19 4.93 5.52 5.94 6.16 6.2
1186.546 5.97 5.47 5 4.71 4.53 4.32 4.16 4.09 3.96 3.78
1205.840 3.65 3.49 3.41 3.41 3.41 3.61 4.02 4.48 4.95 5.56
1225.133 6.33 7.19 8.05 8.84 9.73 10.7 11.67 12.68 13.46 13.84
1244.426 13.76 13.3 12.38 11.11 9.68 8.3 7.13 6.22 5.64 5.31
1263.720 5.05 4.94 4.9 4.83 4.84 4.91 5 5.13 5.29 5.53
1283.013 5.82 6.14 6.5 6.9 7.33 7.74 8.1 8.54 8.99 9.35
1302.307 9.69 10.02 10.3 10.58 10.95 11.33 11.76 12.31 13 13.87
1321.600 14.86 16.11 17.74 19.86 22.65 26.3 31.06 37.13 44.73 54.13
1340.894 65.5 78.39 91.82 104.16 113.41 118.02 117.11 110.4 98.39 82.83
1360.187 66.45 51.75 39.99 31.3 25.06 20.56 17.33 14.99 13.21 11.89
1379.480 10.88 10.02 9.34 8.85 8.4 7.98 7.64 7.37 7.16 6.96
1398.774 6.77 6.62 6.51 6.39 6.28 6.23 6.21 6.17 6.15 6.21
1418.067 6.27 6.39 6.5 6.58 6.67 6.73 6.7 6.55 6.3 6.07
1437.361 5.82 5.53 5.3 5.12 4.98 4.85 4.77 4.74 4.7 4.68
1456.654 4.63 4.48 4.36 4.34 4.41 4.6 4.92 5.35 5.93 6.58
1475.948 7.31 8.14 9.01 9.93 10.83 11.8 12.85 13.99 15.15 16.15
1495.241 16.86 17.06 16.85 16.46 15.88 15.28 14.92 15.04 15.77 17.14
1514.534 19.07 21.64 24.89 28.92 33.9 39.57 46.29 53.85 61.98 70.48
1533.828 78.99 86.61 92.56 96.58 98.22 97.49 94.4 89.2 82.14 73.71
1553.121 65 56.41 48.98 42.39 36.73 32.32 28.74 25.86 23.56 21.61
1572.415 20 18.73 17.7 16.86 16.28 15.99 15.97 16.21 16.73 17.61
1591.708 18.8 20.33 22.11 24.04 25.89 27.34 28.12 27.98 26.95 25.09
1611.002 22.79 20.49 18.23 15.88 13.6 11.53 9.65 8.02 6.7 5.7
1630.295 4.97 4.44 4.04 3.77 3.54 3.39 3.3 3.25 3.27 3.25
1649.588 3.23 3.25 3.26 3.23 3.2 3.12 3.07 3.03 2.92 2.82
1668.882 2.72 2.64 2.58 2.5 2.39 2.3 2.22 2.16 2.0866 1.97
1688.175 1.878 1.7842 1.6956 1.6496 1.6215 1.575 1.5205 1.5032 1.4838 1.4706
1707.469 1.453 1.4226 1.3745 1.3242 1.3365 1.3375 1.2957 1.2793 1.3032 1.2728
1726.762 1.2652 1.2687 1.2616 1.2985 1.289 1.2673 1.2592 1.2702 1.2687 1.2609
1746.056 1.2572 1.2596 1.2827 1.2591 1.2237 1.2328 1.2616 1.2693 1.2834 1.3076
1765.349 1.3319 1.4176 1.4977 1.5411 1.6222 1.7323 1.8595 1.9961 2.14 2.32
1784.642 2.49 2.58 2.63 2.63 2.51 2.35 2.13 1.8775 1.6649 1.4738
1803.936 1.3542 1.2467 1.15929 1.12398 1.0669 1.0329 1.0206 1.0256 0.997 0.952
1823.229 0.957 0.955 0.937 0.957 0.977 0.937 0.907 0.905 0.889 0.902
1842.523 0.893 0.896 0.899 0.899 0.913 0.931 0.949 0.965 0.982 0.979
1861.816 0.986 0.97 1.0008 1.0464 1.0346 1.0224 1.0356 1.0567 1.0617 1.0769
1881.110 1.11838 1.14652 1.18119 1.215 1.2689 1.3638 1.43 1.5022 1.6058 1.7172
1900.403 1.8242 1.9744 2.13 2.26 2.42 2.6 2.76 2.95 3.11 3.17
1919.696 3.21 3.27 3.24 3.16 3.12 3.07 2.99 2.89 2.85 2.83
1938.990 2.83 2.88 2.96 3.06 3.17 3.3 3.47 3.62 3.78 3.98
1958.283 4.19 4.42 4.63 4.81 4.95 5.09 5.26 5.38 5.48 5.64
1977.577 5.84 6.05 6.32 6.61 6.88 7.16 7.45 7.77 8.07 8.3
1996.870 8.51 8.7 8.97 9.19 9.4 9.69 10.01 10.37 10.78 11.21
2016.164 11.64 12.11 12.56 13.04 13.51 13.97 14.45 14.88 15.28 15.64
2035.457 15.98 16.3 16.55 16.71 16.83 16.92 16.91 16.8 16.57 16.29
2054.750 15.92 15.45 14.92 14.32 13.63 12.92 12.24 11.57 10.9 10.28
2074.044 9.64 8.99 8.37 7.8 7.26 6.73 6.22 5.76 5.34 4.95
2093.337 4.59 4.28 3.99 3.76 3.53 3.31 3.14 3.03 2.95 2.86
2112.631 2.78 2.72 2.66 2.62 2.58 2.56 2.58 2.59 2.57 2.55
2131.924 2.57 2.59 2.61 2.69 2.8 2.91 3.03 3.23 3.48 3.81
2151.218 4.22 4.73 5.29 5.89 6.49 6.93 7.16 7.16 6.92 6.49
2170.511 5.88 5.18 4.52 3.97 3.58 3.33 3.07 2.88 2.78 2.67
2189.804 2.6 2.53 2.46 2.41 2.38 2.34 2.31 2.3 2.26 2.2
2209.098 2.16 2.12 2.0591 1.9933 1.9452 1.913 1.883 1.8025 1.7216 1.6563
2228.391 1.6141 1.5839 1.5334 1.4737 1.4136 1.3902 1.3546 1.2933 1.2302 1.1983
2247.685 1.1935 1.16357 1.18125 1.16591 1.0852 1.0722 1.0749 1.0626 1.0378 1.0388
2266.978 1.0714 1.0879 1.1021 1.1306 1.18032 1.2058 1.2143 1.2287 1.2775 1.3101
2286.272 1.3092 1.3033 1.3156 1.3366 1.3347 1.3366 1.3119 1.2624 1.2342 1.2231
2305.565 1.2258 1.2382 1.2197 1.18945 1.19025 1.17866 1.14113 1.15844 1.15659 1.10454
2324.858 1.0778 1.0737 1.0647 1.0216 1.0079 1 1.0076 1.0072 0.965 0.926
2344.152 0.902 0.906 0.905 0.877 0.868 0.91 0.916 0.892 0.891 0.902
2363.445 0.891 0.881 0.889 0.9 0.896 0.895 0.907 0.916 0.924 0.91
2382.739 0.9 0.899 0.9 0.907 0.905 0.926 0.937 0.929 0.923 0.931
2402.032 0.943 0.926 0.926 0.929 0.903 0.883 0.91 0.923 0.889 0.89
2421.326 0.929 0.917 0.897 0.896 0.894 0.922 0.938 0.944 0.944 0.935
2440.619 0.951 0.984 1.043 1.09472 1.12533 1.17473 1.2286 1.2786 1.2889 1.2644
2459.912 1.2468 1.2209 1.18091 1.13368 1.09435 1.0479 1.0055 0.96 0.941 0.929
2479.206 0.868 0.848 0.847 0.813 0.764 0.75 0.759 0.728 0.723 0.719
2498.499 0.683 0.724 0.748 0.742 0.793 0.822 0.822 0.809 0.799 0.796
2517.793 0.806 0.804 0.795 0.8 0.783 0.753 0.811 0.876 0.868 0.858
2537.086 0.885 0.879 0.868 0.922 0.931 0.952 0.952 0.912 0.941 0.932
2556.380 0.879 0.896 0.864 0.831 0.82 0.813 0.848 0.846 0.828 0.854
2575.673 0.849 0.85 0.854 0.865 0.899 0.886 0.922 0.931 0.909 0.934
2594.966 0.965 0.967 0.972 0.967 0.943 0.972 1.0154 1.0289 1.0596 1.0608
2614.260 1.025 1.0044 0.999 1.012 0.998 0.971 0.926 0.873 0.838 0.817
2633.553 0.821 0.769 0.727 0.787 0.829 0.797 0.786 0.828 0.842 0.861
2652.847 0.919 0.933 0.944 0.925 0.924 0.967 0.994 1.0221 1.0365 1.0736
2672.140 1.12704 1.12978 1.17031 1.2454 1.2612 1.2602 1.2558 1.2974 1.3756 1.3574
2691.434 1.3973 1.4649 1.4326 1.4176 1.4313 1.4171 1.3475 1.3694 1.3849 1.3332
2710.727 1.3093 1.2823 1.2768 1.2542 1.2021 1.15533 1.13242 1.0773 1.0212 1.0154
2730.020 0.992 0.962 0.896 0.873 0.873 0.846 0.876 0.89 0.831 0.822
2749.314 0.827 0.812 0.823 0.841 0.881 0.878 0.847 0.817 0.799 0.79
2768.607 0.846 0.901 0.878 0.848 0.849 0.871 0.898 0.892 0.915 0.932
2787.901 0.917 0.985 0.996 0.987 1.0592 1.0415 1.0096 1.0409 0.986 0.985
2807.194 1.0046 0.942 0.999 1.0727 1.0887 1.09516 1.0845 1.15083 1.16066 1.15439
2826.488 1.2308 1.27 1.3077 1.4168 1.4636 1.4628 1.5846 1.6812 1.7806 1.8795
2845.781 1.8556 1.7536 1.7094 1.8374 1.853 1.8595 1.9583 1.9503 1.9547 2.0623
2865.074 2.11 2.17 2.32 2.4 2.45 2.5 2.52 2.55 2.6 2.63
2884.368 2.59 2.54 2.5 2.45 2.4 2.29 2.22 2.12 1.9873 1.8936
2903.661 1.8298 1.8057 1.7331 1.7265 1.7125 1.6637 1.7189 1.7433 1.7706 1.9047
2922.955 2.0181 2.0719 2.2 2.32 2.43 2.67 2.89 3.07 3.26 3.58
2942.248 3.75 3.78 3.97 3.96 3.74 3.59 3.47 3.24 2.97 2.71
2961.542 2.47 2.22 2.1 2.0531 1.9151 1.7471 1.5743 1.5121 1.543 1.4963
2980.835 1.4579 1.3534 1.356 1.463 1.4512 1.4524 1.3957 1.2914 1.2471 1.1925
3000.128 1.12966 1.0586 0.948 0.946 0.94 0.854 0.831 0.829 0.862 0.86
3019.422 0.842 0.824 0.794 0.844 0.97 1.0508 1.15116 1.2784 1.3927 1.6207
3038.715 1.8533 1.9952 2.19 2.35 2.51 2.71 2.83 3.03 3.16 3.21
3058.009 3.23 3.25 3.28 3.22 3.17 3.06 2.93 2.97 3.09 3.3
3077.302 3.51 3.62 3.86 4.07 4.01 3.79 3.49 3.02 2.52 1.987
3096.596 1.4265 1.15381 0.987 0.749 0.616 0.573 0.56 0.505 0.457 0.5
3115.889 0.431 0.381 0.362 0.303 0.258 0.221 0.237 0.226 0.236 0.222
3135.182 0.219 0.232 0.195 0.219 0.257 0.242 0.22 0.171 0.177 0.234
3154.476 0.187 0.182 0.23 0.24 0.227 0.173 0.112 0.138 0.263 0.247
3173.769 0.133 0.108 0.157 0.159 0.127 0.114 0.14 0.203 0.22 0.214
3193.063 0.257 0.318 0.27 0.263 0.284 0.258 0.284 0.266 0.296 0.357
3212.356 0.381 0.405 0.422 0.408 0.325 0.31 0.342 0.237 0.192 0.216
3231.650 0.199 0.102 0.114 0.156 0.2 0.327 0.248 0.2 0.264 0.2
3250.943 0.126 0.177 0.174 0.211 0.273 0.246 0.186 0.197 0.204 0.213
3270.236 0.241 0.169 0.188 0.238 0.244 0.208 0.126 0.15 0.177 0.104
3289.530 0.123 0.166 0.142 0.183 0.202 0.192 0.28 0.303 0.184 0.126
3308.823 0.22 0.243 0.275 0.3 0.291 0.354 0.255 0.225 0.255 0.203
3328.117 0.101 0 0.149 0.206 0.16 0.285 0.388 0.268 0.17 0.257
3347.410 0.343 0.299 0.362 0.465 0.335 0.262 0.32 0.38 0.362 0.246
3366.704 0.194 0.198 0.273 0.313 0.332 0.38 0.335 0.326 0.286 0.22
3385.997 0.194 0.164 0.23 0.317 0.326 0.371 0.472 0.463 0.323 0.218
3405.290 0.263 0.369 0.452 0.51 0.512 0.424 0.392 0.33 0.246 0.355
3424.584 0.45 0.389 0.38 0.482 0.509 0.441 0.399 0.449 0.406 0.39
3443.877 0.445 0.491 0.51 0.562 0.667 0.592 0.507 0.598 0.648 0.554
3463.171 0.524 0.634 0.644 0.544 0.461 0.408 0.399 0.437 0.484 0.567
3482.464 0.647 0.63 0.643 0.663 0.615 0.642 0.717 0.736 0.726 0.697
3501.758 0.662 0.709 0.827 0.918 0.879 0.886 0.994 0.99 0.979 0.978
3521.051 0.942 0.976 1.0191 0.982 0.899 0.84 0.894 0.902 0.918 1.0068
3540.344 1.021 1.0577 1.1209 1.0685 0.938 0.87 0.872 0.801 0.763 0.777
3559.638 0.678 0.631 0.678 0.759 0.758 0.643 0.579 0.54 0.484 0.54
3578.931 0.533 0.519 0.566 0.497 0.475 0.567 0.678 0.679 0.647 0.637
3598.225 0.618 0.596 0.566 0.627 0.693 0.697 0.661 0.636 0.633 0.582
3617.518 0.565 0.64 0.699 0.736 0.792 0.702 0.665 0.746 0.677 0.61
3636.812 0.563 0.551 0.634 0.657 0.663 0.69 0.697 0.678 0.712 0.751
3656.105 0.739 0.709 0.709 0.82 0.831 0.772 0.822 0.852 0.848 0.887
3675.398 0.893 0.844 0.78 0.728 0.69 0.627 0.623 0.687 0.728 0.687
3694.692 0.634 0.722 0.839 0.855 0.819 0.803 0.805 0.747 0.705 0.726
3713.985 0.714 0.769 0.825 0.812 0.824 0.88 0.897 0.789 0.803 0.836
3733.279 0.831 0.895 0.854 0.845 0.849 0.858 0.814 0.76 0.815 0.814
3752.572 0.771 0.727 0.791 0.878 0.816 0.778 0.779 0.733 0.757 0.786
3771.866 0.771 0.762 0.688 0.649 0.673 0.67 0.658 0.713 0.74 0.685
3791.159 0.69 0.746 0.749 0.759 0.784 0.741 0.771 0.825 0.835 0.751
3810.452 0.659 0.676 0.693 0.71 0.77 0.826 0.779 0.749 0.762 0.717
3829.746 0.753 0.792 0.727 0.815 0.849 0.755 0.71 0.729 0.815 0.81
3849.039 0.795 0.781 0.749 0.78 0.777 0.708 0.735 0.752 0.806 0.917
3868.333 0.899 0.868 0.845 0.848 0.822 0.756 0.709 0.754 0.838 0.836
3887.626 0.883 0.922 0.875 0.836 0.826 0.869 0.988 0.948 0.84 0.804
3906.920 0.819 0.858 0.824 0.862 0.829 0.749 0.772 0.808 0.834 0.761
3926.213 0.711 0.741 0.793 0.83 0.771 0.732 0.747 0.799 0.879 0.877
3945.506 0.845 0.822 0.747 0.692 0.731 0.823 0.828 0.774 0.744 0.747
3964.800 0.759 0.788 0.836 0.825 0.78 0.779 0.736 0.711 0.788 0.831
3984.093 0.805 0.732 0.801 0.821 0.791 0.865 0.864 0.829 0.765
##END=
