##TITLE=2-Hydroxyethyl-4-nitrophenyl sulfide
##JCAMP-DX=4.24
##DATA TYPE=INFRARED SPECTRUM
##ORIGIN=EPA-IR VAPOR PHASE LIBRARY
##OWNER=SRD/NIST
Collection (C) 2018 copyright by the U.S. Secretary of Commerce
on behalf of the United States of America. All rights reserved.
##CAS REGISTRY NO=13287-76-8
##MOLFORM=C 8 H 9 N O 3 S
##$NIST SOURCE=MSDC-IR
##STATE=gas
##XUNITS=1/CM
##YUNITS=ABSORBANCE
##XFACTOR=1.
##YFACTOR=0.001
##DELTAX=1.92898
##FIRSTX=549.8
##LASTX=4000.7
##FIRSTY=0.7298
##MAXX=4000.7
##MINX=549.759
##MAXY=0.09104
##MINY=0.00004945
##NPOINTS=1790
##XYDATA=(X++(Y..Y))
549.759 0.7298 0.7698 0.7151 0.6135 0.8538 1.28 1.23 0.7151 0.5246 0.8797
569.049 0.9717 0.5709 0.5073 0.7068 0.6784 0.5036 0.5041 0.7134 0.6097 0.6986
588.339 0.9668 0.8861 0.7185 0.8944 0.904 0.7041 0.7224 0.8306 0.9187 0.9599
607.628 0.8696 0.6579 0.7122 0.6889 0.5509 0.4631 0.3737 0.4402 0.7368 0.908
626.918 0.7348 0.6299 0.7229 0.8556 0.8913 0.6799 0.5386 0.6635 0.7338 0.858
646.208 0.8002 0.5125 0.5974 0.851 0.8567 0.958 1.18 1.52 1.83 1.86
665.498 1.97 2.11 2.28 2.7 2.92 3.17 3.48 3.5 3.44 3.67
684.787 3.8 3.71 3.4 2.77 2.4 2.32 2.29 2.28 2.06 1.82
704.077 1.77 1.69 1.71 1.86 1.9 2 2.28 2.55 2.99 3.41
723.367 3.79 4.29 4.85 5.54 6.48 7.52 8.37 9.18 9.9 10.25
742.657 10.04 9.4 8.51 7.72 6.94 5.97 5.14 4.61 4.13 3.57
761.947 3.17 2.85 2.6 2.56 2.37 2.07 1.98 1.91 1.68 1.44
781.236 1.43 1.55 1.53 1.36 1.14 1.11 1.36 1.47 1.53 1.67
800.526 1.8 1.93 2.2 2.64 2.84 3.05 3.53 3.97 4.35 4.56
819.816 4.77 5.41 6.24 6.96 7.71 8.53 9.58 11 12.53 13.97
839.106 15.57 17.8 20.97 25.72 31.8 37.09 39.5 39.08 37.1 33.55
858.395 26.77 18.21 11.69 8.1 6.19 4.85 3.92 3.33 2.88 2.5
877.685 2.13 1.88 1.74 1.51 1.51 1.52 1.41 1.53 1.6 1.41
896.975 1.28 1.55 1.69 1.6 1.69 1.8 1.99 2.12 2.12 2.28
916.265 2.44 2.63 2.84 3 3.16 3.11 3.06 3 3.03 3.08
935.555 3.04 3.01 2.91 2.9 2.84 2.79 2.73 2.68 2.75 2.73
954.844 2.61 2.68 2.52 2.47 2.65 2.74 2.82 2.88 2.91 2.94
974.134 3.02 3.2 3.28 3.4 3.64 3.9 4.38 4.57 4.7 5.21
993.424 5.57 5.83 6.29 6.84 7.7 8.9 10.18 11.52 13.17 14.43
1012.714 14.85 15.25 15.47 15.32 14.86 14.71 15.12 15.79 17 18.72
1032.003 20.28 21.39 22.83 24.04 24.5 24.71 24.58 23.98 23.37 22.95
1051.293 22.17 21.37 21.2 21.34 21.74 21.77 21.16 20.42 19.76 19
1070.583 17.88 16.41 15.15 14.63 13.97 13.82 15.01 16.23 17.31 18.51
1089.873 19.38 19.64 18.84 17.09 15.14 13.02 11.12 10.22 9.78 9
1109.163 8.08 7.38 7.06 6.57 5.8 5.37 4.79 4.25 4.1 3.91
1128.452 3.66 3.43 3.03 2.99 2.99 2.6 2.23 2.14 2.11 2.34
1147.742 2.59 2.48 2.29 2.52 2.82 2.67 2.92 3.43 3.77 3.95
1167.032 4.46 5.07 5.77 6.65 7.39 7.72 7.71 7.64 7.6 7.36
1186.322 6.58 5.61 4.78 4.4 4.36 4.2 4.03 4.22 4.13 3.9
1205.611 3.68 3.45 3.63 3.87 3.59 3.57 3.97 4.17 4.24 4.04
1224.901 3.97 4.29 4.25 4.18 4.47 4.36 4.28 4.38 4.21 4.06
1244.191 4.11 4.18 4.35 4.66 4.9 4.83 4.99 5.29 5.53 6.05
1263.481 6.31 6.22 6.53 6.95 7.12 7.55 7.9 7.9 7.9 7.93
1282.771 7.92 7.82 7.66 7.44 7.37 7.45 7.38 7.2 7.06 7.11
1302.060 7.24 7.38 7.64 8.02 8.43 9.03 9.79 10.74 11.98 13.46
1321.350 15.46 18.03 21.28 25.32 30.41 36.66 44.26 53.22 63.07 73.06
1340.640 81.98 88.35 91.04 89.77 84.84 76.79 66.72 56.51 47.92 41.36
1359.930 36.47 32.78 29.78 27.44 25.67 24.24 23.16 22.35 21.66 21.03
1379.219 20.39 19.71 18.8 17.57 16.19 14.92 13.8 12.68 11.61 10.71
1398.509 10.02 9.44 8.93 8.57 8.34 8.21 8.14 8.08 8.06 8.04
1417.799 8.01 7.89 7.76 7.66 7.48 7.22 6.89 6.6 6.32 5.94
1437.089 5.6 5.36 5.12 4.97 4.89 4.79 4.68 4.72 4.77 4.91
1456.378 5.15 5.45 5.84 6.39 7.16 8.17 9.48 11.07 13.06 15.33
1475.668 17.53 19.12 19.63 19.19 17.96 16.05 13.67 11.26 9.43 8.38
1494.958 8 8.06 8.31 8.78 9.57 10.63 11.96 13.63 15.74 18.27
1514.248 21.22 24.61 28.56 32.91 37.69 42.63 47.51 52.04 55.8 58.55
1533.538 60.16 60.45 59.4 57.06 53.64 49.41 44.52 39.35 34.52 30.11
1552.827 26.13 22.79 20.17 18.03 16.42 15.44 14.91 14.94 15.66 16.85
1572.117 18.56 20.64 22.78 25.02 27.16 28.88 29.91 30.39 30.29 29.65
1591.407 28.75 27.59 26.38 25.19 23.71 21.99 20.15 18.01 15.83 13.61
1610.697 11.47 9.68 8.18 6.95 5.91 5.1 4.53 4.18 3.88 3.61
1629.986 3.47 3.35 3.3 3.29 3.22 3.11 3.08 3.07 3 2.88
1649.276 2.76 2.69 2.57 2.48 2.43 2.33 2.22 2.06 1.85 1.75
1668.566 1.73 1.65 1.54 1.45 1.35 1.26 1.21 1.07 0.9873 0.9555
1687.856 0.8896 0.8426 0.8055 0.7717 0.7445 0.7439 0.7393 0.6618 0.6047 0.5965
1707.146 0.5628 0.5613 0.4856 0.4479 0.4617 0.4394 0.4914 0.4868 0.4167 0.4097
1726.435 0.4346 0.3959 0.4123 0.3878 0.314 0.3392 0.2972 0.2792 0.3104 0.401
1745.725 0.4614 0.443 0.3974 0.4018 0.4553 0.3973 0.3851 0.4559 0.483 0.5404
1765.015 0.6236 0.6847 0.7535 0.7625 0.786 0.8934 1.02 1.12 1.12 1.1
1784.305 1.1 1.06 1.02 0.961 0.853 0.7578 0.6896 0.646 0.6211 0.592
1803.594 0.5793 0.5891 0.5548 0.5803 0.6206 0.6162 0.6383 0.5971 0.5722 0.5555
1822.884 0.5247 0.5031 0.4605 0.482 0.5143 0.4969 0.4513 0.3869 0.4085 0.4065
1842.174 0.4067 0.4442 0.4505 0.3981 0.3549 0.3583 0.3644 0.3817 0.3867 0.3809
1861.464 0.4256 0.4116 0.3265 0.3657 0.3971 0.4269 0.4815 0.4875 0.435 0.4321
1880.754 0.5097 0.5422 0.5464 0.5639 0.6437 0.7006 0.6657 0.7126 0.853 0.9199
1900.043 0.9684 1.06 1.1 1.15 1.17 1.18 1.27 1.35 1.35 1.25
1919.333 1.11 1.08 1.08 0.9942 0.9438 0.8665 0.7283 0.6396 0.5638 0.508
1938.623 0.5099 0.5111 0.4788 0.4669 0.4608 0.4273 0.3214 0.3182 0.3697 0.3531
1957.913 0.3615 0.395 0.4182 0.3637 0.3295 0.3544 0.3322 0.3607 0.3552 0.3323
1977.202 0.3536 0.3212 0.2794 0.2863 0.275 0.3059 0.3127 0.2309 0.2622 0.289
1996.492 0.287 0.2795 0.2681 0.2788 0.2788 0.2978 0.3296 0.3224 0.2819 0.2577
2015.782 0.2469 0.2799 0.3013 0.3091 0.3055 0.3055 0.3377 0.3354 0.3236 0.3444
2035.072 0.3662 0.3907 0.3887 0.3815 0.3897 0.3336 0.291 0.3137 0.364 0.3412
2054.362 0.3664 0.4366 0.4394 0.3976 0.4146 0.4766 0.45 0.4367 0.3888 0.3261
2073.651 0.3479 0.3895 0.3723 0.3465 0.4043 0.4508 0.4189 0.3847 0.3671 0.3527
2092.941 0.2957 0.317 0.3622 0.3096 0.275 0.2879 0.3057 0.2921 0.2813 0.3156
2112.231 0.3697 0.3833 0.3494 0.309 0.3327 0.4319 0.3964 0.3168 0.3643 0.3582
2131.521 0.2748 0.1971 0.2069 0.2056 0.1434 0.1416 0.1725 0.186 0.1968 0.1656
2150.810 0.1143 0.09299 0.1616 0.1738 0.1399 0.137 0.1497 0.1664 0.1768 0.2367
2170.100 0.2106 0.1942 0.2532 0.224 0.1654 0.1729 0.2095 0.2748 0.3669 0.4192
2189.390 0.3554 0.2963 0.2753 0.3215 0.3726 0.3824 0.3909 0.338 0.3223 0.3509
2208.680 0.3981 0.4101 0.388 0.3642 0.3877 0.4823 0.5074 0.4643 0.4213 0.4237
2227.970 0.4172 0.3945 0.3867 0.3414 0.3546 0.3991 0.3677 0.3551 0.2729 0.2244
2247.259 0.2615 0.267 0.2771 0.2541 0.2413 0.2694 0.2614 0.2325 0.2335 0.2579
2266.549 0.337 0.3252 0.2993 0.3597 0.4079 0.4035 0.4212 0.388 0.3089 0.3695
2285.839 0.4374 0.3736 0.3893 0.4247 0.3649 0.3257 0.369 0.4184 0.3852 0.3145
2305.129 0.2905 0.349 0.3719 0.306 0.2049 0.2829 0.3363 0.2787 0.2824 0.3234
2324.418 0.3304 0.2552 0.2589 0.264 0.2425 0.2322 0.1948 0.2825 0.3316 0.2097
2343.708 0.2298 0.3168 0.2939 0.2891 0.2983 0.2624 0.2776 0.3156 0.2991 0.2941
2362.998 0.3367 0.332 0.2913 0.3192 0.4041 0.455 0.4061 0.4014 0.4655 0.5265
2382.288 0.4931 0.4635 0.5194 0.5663 0.5857 0.5338 0.4507 0.3173 0.312 0.4015
2401.578 0.3839 0.4492 0.4454 0.4191 0.4654 0.4536 0.4745 0.4408 0.4062 0.5077
2420.867 0.5147 0.5261 0.5901 0.567 0.5945 0.5996 0.5812 0.5866 0.6323 0.7132
2440.157 0.7588 0.7676 0.7986 0.7642 0.7428 0.7796 0.8036 0.7897 0.7656 0.6997
2459.447 0.6499 0.6051 0.5704 0.588 0.627 0.6419 0.5866 0.537 0.5161 0.5123
2478.737 0.4857 0.4952 0.5062 0.4883 0.4408 0.375 0.3605 0.447 0.3959 0.4054
2498.026 0.5029 0.4227 0.3903 0.4076 0.3222 0.2802 0.3061 0.2515 0.3174 0.4369
2517.316 0.4466 0.4038 0.4219 0.462 0.4401 0.4951 0.4234 0.3986 0.5403 0.6031
2536.606 0.609 0.6097 0.6387 0.5719 0.5844 0.6206 0.5782 0.5503 0.4669 0.4256
2555.896 0.501 0.5316 0.4314 0.4166 0.4957 0.5052 0.4278 0.383 0.3937 0.4371
2575.186 0.5099 0.4948 0.4326 0.4836 0.6102 0.6692 0.651 0.5987 0.5724 0.6186
2594.475 0.626 0.6182 0.5573 0.4837 0.5021 0.5428 0.4752 0.3655 0.309 0.2304
2613.765 0.2863 0.3294 0.2858 0.2829 0.292 0.3318 0.3796 0.4061 0.4 0.4158
2633.055 0.4689 0.4096 0.3439 0.3944 0.4025 0.355 0.4048 0.5246 0.5331 0.5372
2652.345 0.6461 0.6227 0.4964 0.5234 0.5348 0.5837 0.688 0.6868 0.6911 0.6683
2671.634 0.6779 0.7889 0.8103 0.7835 0.8506 0.8364 0.7916 0.841 0.9051 0.9337
2690.924 0.8975 0.8453 0.9187 0.9904 0.9167 0.8293 0.8192 0.7971 0.7371 0.7751
2710.214 0.7299 0.7044 0.7387 0.716 0.6952 0.7157 0.761 0.841 0.7555 0.6188
2729.504 0.6195 0.6296 0.6568 0.6942 0.6787 0.6338 0.5897 0.5932 0.725 0.6536
2748.794 0.6458 0.7823 0.7343 0.7311 0.8019 0.7977 0.7601 0.7487 0.7721 0.8562
2768.083 0.8046 0.7379 0.7696 0.7487 0.7891 0.7677 0.7335 0.7669 0.8171 0.8241
2787.373 0.8094 0.7963 0.8085 0.8929 0.9211 0.9116 0.9419 1.02 1.1 1.13
2806.663 1.13 1.24 1.27 1.2 1.31 1.41 1.42 1.42 1.36 1.48
2825.953 1.51 1.52 1.63 1.74 1.91 1.99 2.12 2.23 2.31 2.46
2845.242 2.63 2.73 2.85 2.95 2.98 3.21 3.45 3.55 3.79 4.16
2864.532 4.57 4.97 5.35 5.81 6.3 6.88 7.39 7.75 8.06 8.34
2883.822 8.48 8.28 7.97 7.6 7.13 6.75 6.42 6.16 5.93 5.76
2903.112 5.72 5.62 5.56 5.67 5.74 5.91 6.18 6.51 6.95 7.45
2922.401 8.04 8.59 9.23 9.93 10.61 11.17 11.59 11.84 11.93 11.75
2941.691 11.3 10.71 10.08 9.66 9.11 8.46 8.14 7.97 7.73 7.36
2960.981 7.05 6.91 6.89 6.73 6.47 6.29 6.11 5.86 5.45 4.99
2980.271 4.56 4.11 3.67 3.2 2.76 2.47 2.18 1.94 1.78 1.62
2999.561 1.55 1.35 1.23 1.31 1.33 1.26 1.18 1.06 0.9328 0.8879
3018.850 0.745 0.7681 0.8468 0.7695 0.7978 0.769 0.7232 0.7706 0.8273 0.7535
3038.140 0.6567 0.6687 0.8321 0.9551 0.971 1.12 1.21 1.17 1.19 1.19
3057.430 1.28 1.43 1.57 1.69 1.72 1.83 1.81 1.78 1.92 1.97
3076.720 2.04 2.09 1.98 1.87 1.69 1.48 1.42 1.3 0.9877 0.8288
3096.009 0.8099 0.7659 0.7118 0.6174 0.5716 0.5042 0.4542 0.551 0.4874 0.3716
3115.299 0.3816 0.3566 0.3176 0.3056 0.3184 0.2897 0.2577 0.3362 0.2804 0.1725
3134.589 0.2813 0.3964 0.3866 0.3673 0.4268 0.4225 0.2764 0.1917 0.2264 0.2822
3153.879 0.3654 0.4025 0.3942 0.3052 0.333 0.3761 0.4118 0.525 0.5848 0.5401
3173.169 0.3415 0.3001 0.2865 0.2574 0.3285 0.4239 0.3964 0.3135 0.3616 0.3365
3192.458 0.33 0.3609 0.4007 0.4765 0.4444 0.3378 0.3118 0.3573 0.4431 0.4079
3211.748 0.2916 0.2712 0.1724 0.04945 0.08255 0.06266 0.1183 0.2038 0.1562 0.2044
3231.038 0.3022 0.3018 0.2191 0.3036 0.3231 0.2292 0.172 0.1531 0.2821 0.3036
3250.328 0.1927 0.05754 0.1346 0.138 0.1576 0.2649 0.2442 0.4066 0.3674 0.2215
3269.617 0.2347 0.1561 0.09521 0.09313 0.2913 0.4283 0.1501 0.07564 0.2574 0.4158
3288.907 0.3621 0.1722 0.2895 0.3037 0.1995 0.287 0.1892 0.08955 0.2363 0.3897
3308.197 0.2783 0.2536 0.1358 0.05253 0.205 0.1915 0.1702 0.1958 0.1906 0.2864
3327.487 0.328 0.2182 0.1904 0.1527 0.1241 0.08766 0.1271 0.1453 0.1706 0.2021
3346.777 0.1653 0.2105 0.2647 0.2213 0.2008 0.2587 0.1611 0.07348 0.06833 0.1492
3366.066 0.3884 0.3577 0.2376 0.2419 0.1613 0.1903 0.3157 0.2315 0.1328 0.2573
3385.356 0.3804 0.348 0.1457 0.1216 0.2237 0.309 0.3023 0.3688 0.5042 0.5394
3404.646 0.4908 0.3423 0.4213 0.5059 0.3636 0.2388 0.2775 0.3757 0.4472 0.4384
3423.936 0.3434 0.2701 0.2791 0.2937 0.3411 0.3377 0.3505 0.4056 0.4398 0.4549
3443.225 0.3462 0.3316 0.5237 0.5329 0.5195 0.4772 0.3855 0.332 0.3112 0.4053
3462.515 0.3932 0.3135 0.3763 0.5654 0.512 0.4292 0.406 0.2454 0.2222 0.3259
3481.805 0.2589 0.2213 0.3228 0.35 0.4109 0.5886 0.5908 0.4838 0.4212 0.5012
3501.095 0.6256 0.6347 0.5068 0.337 0.3868 0.3869 0.368 0.3645 0.4028 0.5061
3520.385 0.4964 0.4432 0.4603 0.4628 0.4574 0.4364 0.3892 0.2995 0.3056 0.4276
3539.674 0.4474 0.4666 0.5423 0.6787 0.6233 0.538 0.6303 0.5951 0.562 0.648
3558.964 0.7205 0.6034 0.5035 0.5447 0.4694 0.6443 0.7911 0.6775 0.8427 0.9062
3578.254 0.8747 0.9961 1.01 1.05 1.1 1.25 1.46 1.44 1.42 1.49
3597.544 1.58 1.72 1.76 1.75 1.88 1.91 1.88 1.83 1.76 1.9
3616.833 1.98 1.89 1.84 1.79 1.81 1.9 1.9 1.88 1.91 2
3636.123 2.12 2.09 2.11 2.28 2.35 2.62 2.94 3.13 3.48 3.87
3655.413 4.22 4.83 5.33 5.61 5.88 6.01 5.93 5.66 5.22 4.7
3674.703 4.27 3.94 3.57 3.05 2.61 2.32 2.13 1.93 1.66 1.45
3693.993 1.44 1.31 1.18 1.2 1.08 0.9914 0.9828 0.8534 0.9187 1.04
3713.282 0.9777 1.04 0.8374 0.6133 0.797 0.9476 0.9316 0.9002 0.8411 0.7397
3732.572 0.8237 0.9019 0.8422 0.6167 0.4066 0.6034 0.5983 0.4772 0.5958 0.5116
3751.862 0.4387 0.5607 0.4973 0.4045 0.4667 0.4343 0.4971 0.586 0.5694 0.4428
3771.152 0.4664 0.5969 0.5276 0.4529 0.4954 0.4663 0.4275 0.5284 0.481 0.4984
3790.441 0.4751 0.3989 0.4608 0.4497 0.4328 0.3731 0.4185 0.5096 0.4251 0.419
3809.731 0.393 0.2554 0.3758 0.4929 0.2989 0.2527 0.3413 0.3926 0.5127 0.5409
3829.021 0.54 0.4151 0.2706 0.3563 0.4245 0.3581 0.4262 0.4436 0.2213 0.1811
3848.311 0.2021 0.2665 0.2274 0.2159 0.3778 0.416 0.3956 0.4344 0.4594 0.3602
3867.601 0.3686 0.4238 0.2448 0.2261 0.4088 0.3975 0.3304 0.4 0.3136 0.3185
3886.890 0.3854 0.2403 0.2226 0.3133 0.4755 0.574 0.5946 0.5604 0.322 0.2451
3906.180 0.3535 0.4495 0.5291 0.4075 0.3121 0.3976 0.5144 0.4983 0.4325 0.4592
3925.470 0.4892 0.343 0.3975 0.5525 0.3995 0.3064 0.3084 0.2467 0.2799 0.3894
3944.760 0.4524 0.3027 0.2533 0.4296 0.3972 0.3433 0.275 0.1928 0.2471 0.3132
3964.049 0.327 0.4036 0.42 0.3382 0.2724 0.2168 0.1528 0.1131 0.269 0.3574
3983.339 0.418 0.4091 0.1478 0.07014 0.3177 0.2666 0.2497 0.4096 0.3255 0.3765
##END=
