##TITLE=Dimethyl 5-nitroisophthalate
##JCAMP-DX=4.24
##DATA TYPE=INFRARED SPECTRUM
##ORIGIN=EPA-IR VAPOR PHASE LIBRARY
##OWNER=SRD/NIST
Collection (C) 2018 copyright by the U.S. Secretary of Commerce
on behalf of the United States of America. All rights reserved.
##CAS REGISTRY NO=13290-96-5
##MOLFORM=C 10 H 9 N O 6
##$NIST SOURCE=MSDC-IR
##STATE=gas
##XUNITS=1/CM
##YUNITS=ABSORBANCE
##XFACTOR=1.
##YFACTOR=0.001
##DELTAX=1.92934
##FIRSTX=549.9
##LASTX=3999.5
##FIRSTY=2.301
##MAXX=3999.53
##MINX=549.863
##MAXY=0.31118
##MINY=0
##NPOINTS=1789
##XYDATA=(X++(Y..Y))
549.863 2.301 2.209 2.333 2.473 2.405 2.223 2.066 2.094 2.108 2.092
569.156 2.246 2.217 2.146 2.175 2.168 2.139 2.058 2.015 1.954 1.995
588.450 1.991 1.935 1.921 1.866 1.883 1.989 1.927 1.785 1.782 1.811
607.743 1.835 1.829 1.877 1.886 1.902 1.894 1.851 1.762 1.72 1.75
627.037 1.801 1.84 1.748 1.766 1.86 1.795 1.73 1.837 1.933 1.894
646.330 1.987 2.166 2.247 2.344 2.441 2.572 2.75164 2.93 3.0422 3.1516
665.624 3.1455 3.0186 2.9733 2.9399 2.8572 2.82747 2.78472 2.7163 2.74876 2.79024
684.917 2.8783 3.0387 3.2077 3.3905 3.6778 3.98 4.32 4.69 5.13 5.74
704.210 6.51 7.78 9.92 13.42 18.73 25.33 32.15 39.44 47.72 56.1
723.504 62.65 66.55 69.27 70.22 65.38 54.33 41.74 31.14 22.9 16.6
742.797 12.02 9.09 7.3 6.23 5.78 5.61 5.64 5.88 6.37 7.05
762.091 7.74 8.5 9.3 10.15 11.35 11.97 10.59 8.65 7.31 6.03
781.384 4.79 3.9 3.3355 3.0559 3.0149 3.158 3.512 4.15 5.1 6.31
800.678 7.44 8.26 8.69 8.56 7.87 6.81 5.61 4.54 3.82 3.3762
819.971 3.1033 2.985 2.9268 2.8482 2.8101 2.81209 2.8321 2.8328 2.80442 2.85
839.264 2.9431 3.0563 3.1341 3.2231 3.3593 3.4525 3.5479 3.6602 3.78 3.96
858.558 4.3 4.68 5.06 5.45 5.69 5.8 5.81 5.64 5.44 5.28
877.851 5.15 5.15 5.24 5.4 5.65 5.96 6.36 6.82 7.36 7.99
897.145 8.61 9.14 9.6 10.03 10.18 10.09 9.87 9.57 9.32 9.03
916.438 8.78 8.79 9.06 9.47 9.83 9.91 9.66 9.12 8.34 7.42
935.732 6.55 5.81 5.14 4.59 4.22 3.96 3.77 3.6244 3.5985 3.6974
955.025 3.85 4.13 4.51 4.93 5.46 6.07 6.71 7.36 8.08 8.82
974.318 9.52 10.33 11.25 12.32 13.6 15.23 17.32 20.03 23.6 28.1
993.612 33.56 39.64 45.55 50.41 53.24 53.25 50.22 44.62 37.4 29.77
1012.905 22.86 17.41 13.56 10.98 9.23 7.93 6.95 6.22 5.67 5.29
1032.199 4.98 4.76 4.56 4.41 4.32 4.28 4.28 4.23 4.19 4.23
1051.492 4.33 4.44 4.56 4.71 4.89 5.06 5.26 5.51 5.82 6.29
1070.786 6.87 7.63 8.73 10.19 11.88 13.66 15.3 16.65 17.71 18.38
1090.079 18.65 18.73 18.98 19.46 20.18 21.04 21.86 22.5 22.78 22.72
1109.372 22.29 21.47 20.46 19.37 18.3 17.43 16.82 16.57 16.69 17.2
1128.666 18.14 19.63 21.81 24.77 28.61 33.34 38.78 44.61 50.41 55.4
1147.959 58.75 60.1 59.25 56.28 51.74 46.37 40.84 35.79 31.59 28.26
1167.253 25.79 24.02 22.81 22.12 21.84 21.86 22.14 22.63 23.35 24.3
1186.546 25.35 26.48 27.72 29 30.2 31.24 32.13 32.98 33.95 35.23
1205.840 37.04 39.55 42.89 47.31 52.93 59.98 68.85 79.82 93.28 109.74
1225.133 129.62 153.39 181.07 211.95 244.03 273.57 296.02 308.54 311.18 306.34
1244.426 296.55 283.49 268.67 252.2 231.94 205.49 173.56 140.67 111.81 89.41
1263.720 73.21 61.71 53.44 47.26 42.45 38.72 35.96 34.06 33.01 32.9
1283.013 33.87 36.03 39.67 45.07 52.5 62.11 73.75 86.86 100.38 113.28
1302.307 124.5 132.91 137.45 137.53 133.06 124.47 112.6 98.52 83.49 68.95
1321.600 56.32 46.45 39.43 34.87 32.12 30.6 29.89 29.75 30.05 30.83
1340.894 32.08 33.76 36 38.64 41.52 44.28 46.41 47.51 47.23 45.43
1360.187 42.23 37.9 32.98 28.17 23.82 20.23 17.44 15.26 13.68 12.57
1379.480 11.77 11.24 10.89 10.66 10.5 10.39 10.25 10.1 9.95 9.7
1398.774 9.49 9.36 9.23 9.17 9.26 9.41 9.63 9.98 10.41 10.96
1418.067 11.64 12.54 13.61 14.91 16.53 18.39 20.75 23.77 27.31 30.87
1437.361 34.18 36.39 37 35.92 33.66 31.14 29.13 28.12 28.19 28.93
1456.654 29.74 30.16 29.7 28.2 25.8 22.85 19.76 16.92 14.6 12.83
1475.948 11.6 10.67 9.98 9.46 9.06 8.75 8.62 8.62 8.73 9.01
1495.241 9.43 9.96 10.68 11.65 12.72 13.8 14.94 15.9 16.54 16.84
1514.534 16.74 16.28 15.66 15 14.37 13.95 13.83 14.1 14.74 15.89
1533.828 17.72 20.31 23.81 28.82 35.18 42.81 52.01 61.92 71.26 78.86
1553.121 82.66 82.1 77.18 68.14 57.14 46.86 37.49 30.2 25.1 21.64
1572.415 19.45 18.16 17.42 17.17 17.25 17.54 17.91 18.26 18.59 18.74
1591.708 18.72 18.45 17.84 16.96 15.86 14.77 13.83 13.08 12.61 12.5
1611.002 12.76 13.23 13.89 14.78 15.71 16.44 16.9 17 16.59 15.63
1630.295 14.28 12.69 11.01 9.42 8.11 7.06 6.37 5.94 5.68 5.54
1649.588 5.51 5.53 5.62 5.82 6.07 6.27 6.46 6.61 6.63 6.6
1668.882 6.52 6.48 6.42 6.29 6.19 6.09 5.9 5.76 5.68 5.64
1688.175 5.67 5.77 5.96 6.24 6.73 7.44 8.36 9.66 11.19 13.11
1707.469 15.12 17.06 18.81 20.14 20.96 21.16 20.84 20.46 20.2 20.19
1726.762 20.38 20.93 22.09 24.2 27.75 33.05 41.47 55.67 77.09 108.21
1746.056 147.08 187.71 221.19 243.55 251.78 240.5 208.55 168.99 131.71 99.5
1765.349 72.89 52.08 37.57 28.64 23.06 19.81 18.21 17.73 18.04 19.02
1784.642 20.33 21.62 22.44 22.41 21.26 19.18 16.69 14.16 11.86 9.93
1803.936 8.41 7.23 6.39 5.77 5.31 4.99 4.78 4.64 4.55 4.54
1823.229 4.54 4.6 4.7 4.73 4.78 4.82 4.89 4.97 5 5.03
1842.523 5.01 4.96 4.88 4.82 4.79 4.75 4.78 4.77 4.77 4.79
1861.816 4.74 4.71 4.69 4.64 4.56 4.44 4.32 4.22 4.1 3.95
1881.110 3.77 3.602 3.4728 3.3889 3.2754 3.1611 3.0964 2.9996 2.9542 2.9201
1900.403 2.82386 2.75945 2.7163 2.664 2.602 2.548 2.477 2.422 2.391 2.347
1919.696 2.325 2.315 2.28 2.258 2.244 2.251 2.263 2.269 2.308 2.325
1938.990 2.328 2.371 2.416 2.477 2.553 2.6676 2.7502 2.79714 2.8809 2.9647
1958.283 3.0284 3.0658 3.1256 3.1964 3.2504 3.2546 3.2404 3.2172 3.1985 3.1881
1977.577 3.1475 3.0587 2.9724 2.933 2.82712 2.6918 2.603 2.567 2.575 2.555
1996.870 2.537 2.559 2.598 2.585 2.585 2.626 2.624 2.6 2.59 2.58
2016.164 2.544 2.498 2.467 2.43 2.425 2.413 2.39 2.354 2.304 2.364
2035.457 2.409 2.41 2.474 2.522 2.538 2.518 2.513 2.55 2.536 2.52
2054.750 2.532 2.506 2.511 2.496 2.452 2.447 2.437 2.442 2.459 2.448
2074.044 2.414 2.422 2.439 2.423 2.406 2.426 2.449 2.456 2.473 2.486
2093.337 2.497 2.528 2.569 2.592 2.619 2.6303 2.601 2.584 2.591 2.592
2112.631 2.561 2.484 2.436 2.411 2.373 2.346 2.323 2.308 2.302 2.309
2131.924 2.288 2.265 2.274 2.302 2.303 2.296 2.324 2.316 2.32 2.348
2151.218 2.356 2.332 2.309 2.344 2.34 2.321 2.34 2.292 2.217 2.162
2170.511 2.146 2.121 2.077 2.036 1.992 1.978 1.965 1.941 1.929 1.917
2189.804 1.872 1.815 1.813 1.818 1.802 1.775 1.769 1.765 1.742 1.749
2209.098 1.76 1.762 1.753 1.734 1.742 1.73 1.71 1.73 1.71 1.68
2228.391 1.7 1.71 1.68 1.65 1.62 1.64 1.65 1.64 1.65 1.66
2247.685 1.66 1.65 1.63 1.61 1.59 1.57 1.57 1.58 1.57 1.58
2266.978 1.59 1.57 1.54 1.53 1.5 1.5 1.5 1.53 1.54 1.49
2286.272 1.48 1.48 1.5 1.53 1.54 1.55 1.6 1.61 1.61 1.65
2305.565 1.69 1.71 1.73 1.733 1.73 1.73 1.71 1.7 1.69 1.68
2324.858 1.68 1.69 1.72 1.756 1.757 1.736 1.72 1.749 1.772 1.72
2344.152 1.7 1.7 1.69 1.68 1.68 1.65 1.63 1.6 1.54 1.49
2363.445 1.48 1.45 1.42 1.47 1.49 1.5 1.51 1.52 1.55 1.56
2382.739 1.58 1.6 1.61 1.62 1.63 1.62 1.62 1.63 1.63 1.63
2402.032 1.64 1.63 1.66 1.65 1.62 1.63 1.63 1.65 1.65 1.62
2421.326 1.63 1.61 1.63 1.63 1.62 1.66 1.67 1.7 1.69 1.69
2440.619 1.69 1.66 1.68 1.69 1.68 1.64 1.61 1.62 1.61 1.64
2459.912 1.62 1.57 1.54 1.53 1.56 1.54 1.52 1.51 1.49 1.5
2479.206 1.5 1.48 1.49 1.51 1.51 1.53 1.5 1.47 1.48 1.45
2498.499 1.42 1.44 1.44 1.43 1.44 1.46 1.48 1.48 1.43 1.44
2517.793 1.44 1.43 1.45 1.45 1.48 1.48 1.45 1.48 1.49 1.49
2537.086 1.51 1.53 1.5 1.45 1.52 1.52 1.46 1.48 1.53 1.56
2556.380 1.51 1.48 1.5 1.46 1.41 1.42 1.44 1.4 1.38 1.36
2575.673 1.38 1.43 1.4 1.38 1.4 1.42 1.42 1.41 1.41 1.44
2594.966 1.47 1.48 1.48 1.48 1.49 1.46 1.45 1.47 1.46 1.45
2614.260 1.47 1.45 1.42 1.43 1.4 1.37 1.36 1.37 1.36 1.31
2633.553 1.31 1.32 1.34 1.34 1.29 1.32 1.36 1.36 1.38 1.48
2652.847 1.47 1.41 1.44 1.39 1.38 1.4 1.36 1.34 1.3 1.25
2672.140 1.3 1.35 1.33 1.3 1.26 1.25 1.29 1.27 1.25 1.26
2691.434 1.25 1.22 1.25 1.29 1.3 1.33 1.3 1.3 1.27 1.23
2710.727 1.17 1.12 1.13 1.13 1.14 1.15 1.19 1.19 1.13 1.13
2730.020 1.18 1.12 1.13 1.21 1.22 1.19 1.21 1.22 1.2 1.21
2749.314 1.2 1.2 1.24 1.29 1.26 1.22 1.25 1.3 1.37 1.34
2768.607 1.27 1.26 1.26 1.19 1.11 1.06 1.08 1.1 1.05 1.02
2787.901 1.06 1.06 1.03 1.04 1.1 1.13 1.09 1.04 1.07 1.13
2807.194 1.14 1.2 1.25 1.29 1.27 1.29 1.38 1.43 1.5 1.55
2826.488 1.59 1.7 1.821 1.951 2.162 2.354 2.6496 3.0548 3.4601 4.06
2845.781 4.72 5.55 6.24 6.66 6.89 6.66 6.17 5.52 4.81 4.24
2865.074 3.86 3.6288 3.4891 3.3734 3.3426 3.3948 3.4055 3.4874 3.6103 3.74
2884.368 3.97 4.12 4.35 4.65 4.87 5.1 5.35 5.54 5.71 5.86
2903.661 5.9 5.92 5.93 5.91 5.96 6.03 6.07 5.99 5.86 5.76
2922.955 5.67 5.6 5.42 5.18 5.16 5.27 5.3 5.34 5.55 5.85
2942.248 6.23 6.76 7.52 8.62 10.16 12.4 15.69 20.27 26.35 33.05
2961.542 38.54 41.34 41.02 37.82 32.15 24.98 18.08 12.95 9.68 7.83
2980.835 6.7 5.97 5.61 5.43 5.41 5.51 5.66 5.95 6.38 6.82
3000.128 7.29 7.67 8.1 8.44 8.56 8.45 8.01 7.52 7.02 6.48
3019.422 6.11 5.83 5.54 5.46 5.6 5.73 5.89 6.1 6.22 6.15
3038.715 6.02 5.82 5.32 4.76 4.43 4.12 3.78 3.5251 3.306 3.1023
3058.009 2.9657 2.8355 2.6852 2.618 2.6529 2.6842 2.74016 2.73838 2.8304 3.0021
3077.302 3.0674 3.2766 3.4865 3.79 4.28 4.99 5.89 6.93 8.05 9.12
3096.596 9.91 10.28 10.34 10.07 9.5 8.76 7.84 6.79 5.78 4.83
3115.889 3.8 2.8689 2.209 1.71 1.47 1.32 1.19 1.1 0.95 0.89
3135.182 0.83 0.85 0.85 0.77 0.74 0.68 0.58 0.53 0.55 0.55
3154.476 0.6 0.54 0.51 0.54 0.49 0.5 0.53 0.51 0.53 0.51
3173.769 0.55 0.55 0.48 0.53 0.53 0.47 0.51 0.49 0.43 0.48
3193.063 0.45 0.36 0.31 0.36 0.27 0.21 0.24 0.21 0.24 0.22
3212.356 0.22 0.16 0.12 0.2 0.27 0.3 0.2 0.13 0.13 0.13
3231.650 0.14 0.13 0.13 0.16 0.2 0.15 0.09 0.04 0.08 0.18
3250.943 0.17 0.19 0.15 0.09 0.08 0.17 0.15 0 0.02 0.14
3270.236 0.21 0.1 0.01 0.06 0.14 0.06 0.03 0.12 0.19 0.22
3289.530 0.22 0.29 0.28 0.21 0.22 0.23 0.31 0.4 0.47 0.4
3308.823 0.36 0.43 0.41 0.37 0.38 0.43 0.49 0.49 0.33 0.22
3328.117 0.31 0.49 0.43 0.37 0.43 0.35 0.34 0.31 0.28 0.48
3347.410 0.64 0.53 0.46 0.49 0.49 0.56 0.58 0.63 0.61 0.54
3366.704 0.51 0.53 0.57 0.53 0.55 0.58 0.58 0.57 0.6 0.55
3385.997 0.49 0.56 0.57 0.56 0.55 0.51 0.53 0.68 0.74 0.65
3405.290 0.63 0.69 0.65 0.73 0.73 0.64 0.72 0.77 0.79 0.78
3424.584 0.79 0.8 0.81 0.83 0.88 0.85 0.76 0.76 0.84 1.03
3443.877 1.03 1.01 1.04 1.04 1.02 1.01 1.07 1.1 1.16 1.18
3463.171 1.18 1.21 1.42 1.49 1.56 1.758 1.955 2.339 2.612 2.73381
3482.464 2.858 3.0352 3.1655 3.1303 2.9336 2.6961 2.442 2.094 1.813 1.65
3501.758 1.58 1.5 1.46 1.43 1.28 1.21 1.27 1.31 1.36 1.36
3521.051 1.19 1.17 1.2 1.18 1.19 1.23 1.25 1.24 1.18 1.11
3540.344 1.12 1.07 1.01 1 1.01 1.04 0.99 1 1.05 1.05
3559.638 1.07 1.09 1.05 1.04 1.05 1.11 1.12 1.06 1.15 1.19
3578.931 1.12 1.17 1.25 1.2 1.18 1.13 1.18 1.24 1.24 1.29
3598.225 1.2 1.1 1.18 1.19 1.11 1.09 1.05 1.08 1.17 1.19
3617.518 1.09 1.07 1.13 1.1 1.14 1.11 1.06 1.17 1.22 1.19
3636.812 1.17 1.26 1.27 1.18 1.2 1.18 1.05 1.08 1.19 1.16
3656.105 1.11 1.18 1.21 1.23 1.26 1.22 1.12 1.1 1.12 1.17
3675.398 1.26 1.27 1.18 1.1 1.17 1.19 1.15 1.24 1.28 1.3
3694.692 1.29 1.3 1.28 1.28 1.23 1.2 1.32 1.24 1.19 1.22
3713.985 1.25 1.31 1.23 1.14 1.15 1.2 1.23 1.2 1.18 1.2
3733.279 1.2 1.18 1.22 1.23 1.19 1.19 1.18 1.18 1.19 1.22
3752.572 1.19 1.14 1.13 1.18 1.29 1.35 1.38 1.41 1.39 1.27
3771.866 1.24 1.3 1.33 1.29 1.25 1.24 1.28 1.35 1.34 1.28
3791.159 1.35 1.34 1.22 1.29 1.3 1.29 1.37 1.33 1.33 1.43
3810.452 1.48 1.49 1.46 1.46 1.5 1.54 1.47 1.36 1.36 1.43
3829.746 1.47 1.46 1.4 1.42 1.47 1.37 1.33 1.32 1.3 1.34
3849.039 1.36 1.44 1.45 1.38 1.34 1.3 1.28 1.32 1.39 1.42
3868.333 1.37 1.33 1.31 1.25 1.34 1.4 1.34 1.33 1.35 1.38
3887.626 1.39 1.34 1.34 1.38 1.41 1.35 1.29 1.34 1.35 1.38
3906.920 1.38 1.36 1.42 1.42 1.36 1.35 1.36 1.36 1.37 1.36
3926.213 1.39 1.41 1.33 1.36 1.54 1.59 1.51 1.51 1.44 1.34
3945.506 1.44 1.48 1.53 1.59 1.51 1.54 1.55 1.55 1.54 1.51
3964.800 1.52 1.55 1.59 1.57 1.53 1.47 1.43 1.41 1.46 1.45
3984.093 1.46 1.49 1.42 1.46 1.52 1.53 1.56 1.53 1.46
##END=
