##TITLE=Diisooctyl adipate
##JCAMP-DX=4.24
##DATA TYPE=INFRARED SPECTRUM
##ORIGIN=EPA-IR VAPOR PHASE LIBRARY
##OWNER=SRD/NIST
Collection (C) 2018 copyright by the U.S. Secretary of Commerce
on behalf of the United States of America. All rights reserved.
##CAS REGISTRY NO=1330-86-5
##MOLFORM=C 22 H 42 O 4
##$NIST SOURCE=MSDC-IR
##STATE=gas
##XUNITS=1/CM
##YUNITS=ABSORBANCE
##XFACTOR=1.
##YFACTOR=0.001
##DELTAX=3.85796
##FIRSTX=501.5
##LASTX=4000.7
##FIRSTY=1.4713
##MAXX=4000.7
##MINX=501.534
##MAXY=0.13919
##MINY=0
##NPOINTS=908
##XYDATA=(X++(Y..Y))
501.534 1.4713 1.3983 1.2877 1.2303 1.244 1.2373 1.2183 1.2711 1.2856 1.2543
540.114 1.2874 1.3593 1.3271 1.3149 1.3516 1.3382 1.449 1.432 1.2296 1.3073
578.693 1.4178 1.4299 1.5179 1.6823 1.8 1.81 1.7599 1.77 1.7502 1.7414
617.273 1.84 1.82 1.84 1.82 1.6948 1.6433 1.5717 1.5324 1.567 1.5627
655.852 1.5244 1.511 1.4826 1.4288 1.4413 1.4737 1.4823 1.5012 1.5503 1.627
694.432 1.6805 1.8 1.96 2.16 2.37 2.58 2.84 3.12 3.39 3.56
733.011 3.65 3.66 3.67 3.74 3.86 4.06 4.34 4.73 5.12 5.47
771.591 5.74 5.82 5.73 5.5 5.06 4.57 4.14 3.89 3.68 3.52
810.170 3.45 3.4 3.35 3.36 3.39 3.37 3.42 3.44 3.39 3.42
848.750 3.51 3.61 3.67 3.75 3.92 4.1 4.24 4.29 4.33 4.45
887.330 4.67 4.92 5.19 5.42 5.63 5.86 6.1 6.31 6.52 6.76
925.909 7.04 7.39 7.72 8.02 8.29 8.54 8.9 9.39 9.99 10.67
964.489 11.34 11.91 12.45 13.06 13.81 14.48 15.02 15.63 16.38 17.25
1003.068 18.13 18.94 19.55 19.9 20.01 20.02 20.01 19.78 19.2 18.81
1041.648 18.89 19.29 19.96 20.65 21.18 21.36 21.11 20.64 20.13 19.47
1080.227 18.48 17.38 16.26 15.3 14.98 15.42 16.46 18.29 21.01 24.56
1118.807 29.26 35.24 42.51 50.92 59.59 67.43 73.46 77.44 79.76 80.82
1157.387 81.02 80.65 79.73 78.06 75.37 71.81 67.84 63.96 60.58 57.79
1195.966 55.76 54.58 54.06 54.11 54.75 55.81 56.98 58.18 59.24 59.58
1234.546 59.14 57.88 55.78 53.13 50.19 47.11 43.96 40.95 38.19 35.72
1273.125 33.74 32.1 30.77 29.53 28.08 26.4 24.79 23.51 22.57 21.81
1311.705 20.96 19.94 18.94 18.21 18.12 18.86 20.17 21.62 22.87 23.63
1350.284 23.79 23.4 22.5 21.19 19.73 18.5 18.16 19.26 21.37 22.91
1388.864 22.36 19.53 15.71 12.56 10.58 9.54 9.17 9.3 9.91 10.91
1427.443 12.02 12.93 13.41 13.85 14.84 16.65 19.21 22.03 24.68 26.17
1466.023 25.74 23.4 19.53 15.35 11.82 9.16 7.31 6.1 5.27 4.7
1504.603 4.22 3.81 3.58 3.37 3.14 2.98 2.86 2.75 2.64 2.51
1543.182 2.42 2.37 2.32 2.24 2.14 2.15 2.18 2.14 2.11 2.09
1581.762 2.1 2.1 2.09 2.09 2.09 2.07 2.04 2.03 2.05 2.03
1620.341 2.04 2.06 2.1 2.12 2.15 2.25 2.33 2.41 2.46 2.55
1658.921 2.73 2.87 3.04 3.24 3.47 3.81 4.17 4.65 5.29 6.04
1697.500 7.04 8.42 10.07 11.87 13.82 16.3 19.74 24.35 30.58 39.18
1736.080 52.02 71.49 99.36 127.96 139.19 122.55 91.16 63.3 44.97 33.38
1774.659 25.53 19.91 15.74 12.67 10.4 8.66 7.32 6.25 5.44 4.77
1813.239 4.22 3.77 3.39 3.07 2.8 2.58 2.39 2.24 2.11 2.03
1851.819 1.95 1.89 1.82 1.77 1.7155 1.691 1.6731 1.6305 1.5793 1.538
1890.398 1.4899 1.4609 1.46 1.4495 1.4366 1.4219 1.4075 1.3947 1.3917 1.4062
1928.978 1.4072 1.4012 1.3867 1.3742 1.4063 1.4292 1.4119 1.4062 1.407 1.3886
1967.557 1.3878 1.4041 1.3976 1.3894 1.3865 1.3829 1.3792 1.3701 1.3658 1.363
2006.137 1.3842 1.4059 1.3922 1.3906 1.4089 1.4372 1.4557 1.4482 1.4323 1.4292
2044.716 1.4265 1.4075 1.4038 1.3941 1.3849 1.3769 1.355 1.3433 1.3292 1.3112
2083.296 1.2922 1.2686 1.2455 1.2376 1.2158 1.1862 1.1706 1.137 1.1258 1.12
2121.875 1.0944 1.0837 1.0779 1.0723 1.066 1.0491 1.0257 1.0148 1.0189 1.0013
2160.455 0.9621 0.9547 0.9698 0.9637 0.9384 0.9154 0.9047 0.8949 0.8856 0.874
2199.035 0.8845 0.8874 0.8668 0.85983 0.85263 0.8655 0.8739 0.85571 0.8646 0.8639
2237.614 0.8657 0.8696 0.85118 0.84383 0.84922 0.8673 0.8815 0.8783 0.866 0.8752
2276.194 0.8879 0.884 0.8866 0.8927 0.9077 0.9194 0.9309 0.9384 0.9112 0.8822
2314.773 0.8635 0.85694 0.8601 0.8466 0.83979 0.84774 0.85087 0.8784 0.9027 0.8987
2353.353 0.8673 0.83793 0.82219 0.79582 0.79839 0.83896 0.9026 0.9361 0.935 0.953
2391.932 0.9631 0.9424 0.9083 0.8899 0.8838 0.8667 0.83437 0.81885 0.8177 0.78901
2430.512 0.761747 0.75881 0.7465 0.7405 0.7402 0.7109 0.7014 0.7181 0.7229 0.7059
2469.092 0.659 0.66 0.6942 0.7074 0.7272 0.7099 0.6845 0.7026 0.7155 0.7012
2507.671 0.7048 0.7302 0.738 0.73 0.7358 0.75824 0.762837 0.7381 0.75368 0.7832
2546.251 0.8011 0.83394 0.82548 0.83288 0.85647 0.9199 0.9846 0.9999 1.0343 1.0663
2584.830 1.0857 1.1283 1.1723 1.1891 1.2059 1.2231 1.2241 1.2254 1.2387 1.2237
2623.410 1.2452 1.2799 1.2776 1.2607 1.277 1.3379 1.3805 1.4172 1.472 1.5287
2661.989 1.5903 1.653 1.6852 1.7019 1.7304 1.77 1.79 1.8 1.82 1.83
2700.569 1.85 1.87 1.89 1.92 1.99 2.06 2.11 2.21 2.32 2.43
2739.148 2.57 2.7 2.79 2.84 2.82 2.82 2.84 2.86 2.93 2.99
2777.728 3.09 3.27 3.44 3.63 3.86 4.08 4.34 4.65 5 5.43
2816.308 5.87 6.4 7.05 7.82 8.77 9.87 11.19 12.94 15.31 18.73
2854.887 23.53 29.92 37.49 44.89 50.09 51.96 52.25 52.68 52.37 50.35
2893.467 47.8 46.49 47.03 49.31 53.36 59.27 67.06 76.65 87.59 98.9
2932.046 109.24 116.6 118.66 114.57 106.34 98.38 95.04 98.55 107.28 115.17
2970.626 113.46 98.25 76.48 57.13 42.91 32.86 25.72 20.56 16.78 14.02
3009.205 11.96 10.4 9.17 8.2 7.47 6.81 6.19 5.67 5.25 4.9
3047.785 4.55 4.31 4.04 3.77 3.56 3.4 3.28 3.15 3.05 2.93
3086.364 2.81 2.71 2.61 2.52 2.4 2.29 2.17 2.05 1.94 1.85
3124.944 1.78 1.7144 1.6511 1.5667 1.4884 1.4229 1.4067 1.3673 1.3128 1.301
3163.524 1.2427 1.1781 1.1443 1.1184 1.1275 1.0976 0.9851 0.9193 0.906 0.8804
3202.103 0.82445 0.75261 0.7265 0.7233 0.6826 0.637 0.599 0.527 0.508 0.502
3240.683 0.478 0.468 0.457 0.425 0.368 0.316 0.31 0.325 0.32 0.314
3279.262 0.297 0.295 0.264 0.217 0.228 0.236 0.232 0.241 0.229 0.255
3317.842 0.287 0.278 0.27 0.228 0.225 0.262 0.286 0.278 0.219 0.181
3356.421 0.149 0.206 0.253 0.211 0.191 0.176 0.175 0.211 0.205 0.218
3395.001 0.25 0.174 0.172 0.236 0.197 0.194 0.235 0.245 0.269 0.3
3433.580 0.324 0.343 0.339 0.378 0.478 0.487 0.489 0.61 0.759631 0.9077
3472.160 1.0922 1.2381 1.3359 1.3483 1.3184 1.2213 1.0334 0.85604 0.7011 0.59
3510.740 0.539 0.522 0.424 0.317 0.329 0.333 0.278 0.239 0.195 0.165
3549.319 0.212 0.196 0.12 0.11 0.066 0.069 0.148 0.175 0.17 0.108
3587.899 0 0.018 0.088 0.108 0.082 0.028 0.023 0.03 0.042 0.096
3626.478 0.094 0.093 0.135 0.155 0.168 0.126 0.112 0.165 0.208 0.225
3665.058 0.167 0.128 0.16 0.211 0.249 0.222 0.186 0.23 0.242 0.171
3703.637 0.176 0.181 0.137 0.137 0.134 0.087 0.077 0.118 0.12 0.142
3742.217 0.122 0.057 0.065 0.161 0.254 0.224 0.142 0.137 0.16 0.175
3780.797 0.222 0.229 0.222 0.198 0.148 0.096 0.135 0.262 0.283 0.196
3819.376 0.145 0.18 0.22 0.233 0.209 0.201 0.214 0.202 0.176 0.152
3857.956 0.167 0.167 0.18 0.189 0.192 0.195 0.129 0.106 0.183 0.255
3896.535 0.25 0.15 0.12 0.205 0.283 0.312 0.277 0.278 0.342 0.305
3935.115 0.262 0.327 0.314 0.253 0.318 0.36 0.326 0.317 0.311 0.309
3973.694 0.353 0.424 0.423 0.403 0.383 0.388 0.404 0.463
##END=
