##TITLE=N-[2-Amino-4-(trifluoromethyl)phenyl]pyrrolidine
##JCAMP-DX=4.24
##DATA TYPE=INFRARED SPECTRUM
##ORIGIN=EPA-IR VAPOR PHASE LIBRARY
##OWNER=SRD/NIST
Collection (C) 2018 copyright by the U.S. Secretary of Commerce
on behalf of the United States of America. All rights reserved.
##CAS REGISTRY NO=133184-80-2
##MOLFORM=C 11 H 13 F 3 N 2
##$NIST SOURCE=MSDC-IR
##STATE=gas
##XUNITS=1/CM
##YUNITS=ABSORBANCE
##XFACTOR=1.
##YFACTOR=0.001
##DELTAX=1.92898
##FIRSTX=549.8
##LASTX=4000.7
##FIRSTY=10.31
##MAXX=4000.7
##MINX=549.759
##MAXY=0.26391
##MINY=0
##NPOINTS=1790
##XYDATA=(X++(Y..Y))
549.759 10.31 10.12 9.32 9.85 11.33 11.93 12.45 12.82 12.51 12.34
569.049 11.54 11.53 12.37 12.28 11.53 11.28 11.26 10.63 11.24 11.74
588.339 11.78 11.48 11.23 11.63 11.63 11.94 12.41 12.04 11.74 12.07
607.628 11.74 11.3 11.22 11.06 11.09 10.47 10.66 11.31 11.3 10.92
626.918 10.72 10.55 10.6 10.42 9.82 10.14 10.37 10.33 10.56 11.07
646.208 11.75 12.62 13.6 14.48 15.65 17.24 18.6 19.74 20.11 19.55
665.498 18.77 18.58 17.41 15.25 14.35 13.68 13.01 12.53 11.74 10.83
684.787 10.25 10.28 10.21 9.96 10.08 10.27 10.44 10.25 9.47 9.1
704.077 9.06 9.05 9.01 8.62 8.41 8.68 8.74 8.21 8.15 8.67
723.367 9.09 9.12 8.82 8.66 9.29 9.9 10.63 11.69 12.9 13.99
742.657 14.23 14.3 13.79 12.55 10.91 8.75 7.44 7.34 6.75 6.1
761.947 6.15 6.43 6.69 6.64 6.55 6.71 7.01 7.09 6.91 6.55
781.236 6.87 7.76 7.98 7.94 8.19 8.63 9.44 10.11 10.96 12.58
800.526 14.1 15.22 16.77 18.61 19.93 20.86 20.72 19.83 18.73 17.29
819.816 16.43 15.77 14.05 11.79 10.29 9.78 9.07 8.71 8.6 8.31
839.106 8.27 8.39 8.84 8.92 8.97 9.55 10.25 10.98 11.96 13.82
858.395 16.27 18.05 19.47 21.34 22.54 22.77 22.92 22.69 21.68 20.4
877.685 19.42 17.93 16.44 16.05 16.12 16.36 17.26 19.7 22.71 25.8
896.975 29.33 32.67 35.15 35.84 34.97 32.82 29.27 24.74 20.6 17.12
916.265 14.12 12.51 11.45 10.47 9.75 9.38 9.17 9.05 9.01 8.77
935.555 8.7 9.04 9.55 9.24 9.26 10.13 10.6 10.88 11.15 11.48
954.844 11.36 11.14 11.29 11.05 10.94 10.88 10 9.03 8.24 7.29
974.134 6.75 6.47 6.03 5.72 5.53 5.26 4.85 4.8 4.86 4.64
993.424 4.85 5.17 4.92 4.61 4.89 5.08 4.93 4.66 4.79 4.99
1012.714 4.5 4.51 4.25 4.65 5.29 4.73 4.94 4.68 4.46 5.19
1032.003 6.04 6.39 6.76 7.1 6.89 8.43 9.69 9.49 9.22 10.26
1051.293 11.88 13.15 14.84 16.73 18.71 19.73 20.92 21.16 21.01 20.72
1070.583 20.68 20.71 20.49 21.19 22.21 24.3 26.95 30.63 34.9 37.91
1089.873 39.67 40.73 41.29 42.36 42.88 40.19 37 36.16 36.27 35.92
1109.163 36.67 37.89 39.84 44.22 50.15 58.34 66.94 76.74 88.89 104
1128.452 120.69 136.54 154.14 172.12 187.74 198.63 200.59 193.73 180.89 164.12
1147.742 146.09 129.28 115.56 106.16 102.24 104.08 109.5 117.36 127.42 136.38
1167.032 141.68 142.81 138.07 129.11 117.79 104.22 91.25 79.69 69.02 61.09
1186.322 55.75 51.69 47.86 44.44 42.15 41.59 41.1 39.59 39.56 39.32
1205.611 36.78 35.09 34.71 34.91 35.9 35.51 36.2 38.52 39.93 42.88
1224.901 47.03 50.64 54.44 58.7 65.05 70.38 73.32 75.69 75.6 73.05
1244.191 67.73 61.17 53.51 46.41 40.86 35.22 30.65 26.77 23.37 21.73
1263.481 21.17 20.65 20.73 21.14 21.8 22.79 23.97 25.88 27.82 29.93
1282.771 32.8 35.3 37.55 39.84 41.85 43.77 45.58 46.9 47.87 48.16
1302.060 47.93 47.74 47.31 46.85 47.35 49.2 52.9 59.2 68.68 82.38
1321.350 101.57 127.31 159 194.07 227.37 252.43 263.91 259.11 238.36 205.82
1340.640 169.36 136.94 112.44 95.89 85.53 79.61 75.57 71.41 66.31 59.68
1359.930 51.84 43.36 35.26 28.55 23.33 19.45 16.56 14.53 13.15 12.11
1379.219 11.14 10.4 9.93 9.49 9 8.69 8.55 8.48 8.56 8.71
1398.509 8.94 9.14 9.32 9.61 9.85 10.21 10.71 11.24 12.15 13.5
1417.799 15.04 17.15 20 23.65 28.2 33.37 39.7 46.76 53.35 58.58
1437.089 61.92 62.3 59.53 54.27 46.86 38.75 31.43 25.89 21.9 19.18
1456.378 17.37 16.14 15.63 15.28 14.77 14.13 13.68 12.74 11.61 10.97
1475.668 10.52 10.18 9.75 9.73 9.88 10.15 10.67 10.8 11.1 11.68
1494.958 12.11 12.84 14.25 15.92 18.28 21.18 24.27 27.08 29.35 30.74
1514.248 30.82 29.8 27.58 24.88 22.15 19.93 18.21 16.55 15.23 14.37
1533.538 13.27 12.22 11.36 10.35 9.71 9.3 8.82 8.52 8.51 8.5
1552.827 8.37 8.78 9.4 9.51 9.82 10.26 10.66 10.92 11.36 12.17
1572.117 12.57 13.31 14.35 15.3 16.3 17.4 18.89 20.47 22.32 24.6
1591.407 27 29.34 31.58 33.63 35.39 37.14 38.52 39.66 40.7 41.38
1610.697 42.24 43.08 43.5 43.54 42.79 41.2 38.8 35.71 32.38 29.12
1629.986 25.92 22.71 19.79 17.32 15.26 13.55 12.16 11.01 9.93 8.91
1649.276 8.27 7.9 7.41 6.94 6.49 6.11 5.84 5.86 5.85 5.53
1668.566 5.2 5.08 4.92 4.72 4.49 4.35 4.21 4.08 4.01 3.69
1687.856 3.62 3.59 3.51 3.5 3.37 3.23 3.33 3.24 3.05 3.04
1707.146 3.08 3.23 3.26 3.26 3.24 3.36 3.56 3.73 3.86 4.16
1726.435 4.62 4.88 4.94 4.87 4.88 4.77 4.58 4.36 4.01 3.73
1745.725 3.38 3.24 3.14 2.97 2.86 2.72 2.75 2.82 2.64 2.59
1765.015 2.77 2.71 2.54 2.54 2.58 2.48 2.3 2.36 2.47 2.24
1784.305 2.19 2.18 2.13 2.12 1.98 1.97 1.98 2.05 2.1 2.25
1803.594 2.33 2.16 2.06 1.99 1.96 2.08 2.09 1.97 2.04 2.04
1822.884 2.06 2.08 2.11 2.14 2.14 2.13 2.2 2.29 2.24 2.26
1842.174 2.37 2.58 2.87 3.03 2.97 2.9 2.97 3.06 2.98 2.81
1861.464 2.78 2.79 2.83 2.71 2.43 2.34 2.36 2.37 2.22 2.11
1880.754 2.13 2.09 1.98 1.92 1.91 1.91 1.74 1.64 1.8 1.81
1900.043 1.77 1.82 1.9 1.82 1.72 1.65 1.65 1.72 1.69 1.76
1919.333 1.68 1.565 1.64 1.69 1.6198 1.5365 1.65 1.81 1.76 1.76
1938.623 1.82 1.81 1.75 1.5724 1.4929 1.67 1.82 1.76 1.68 1.581
1957.913 1.5473 1.5723 1.4731 1.5261 1.64 1.6076 1.5235 1.5369 1.4321 1.2863
1977.202 1.4109 1.5782 1.72 1.66 1.4892 1.5612 1.68 1.5128 1.36 1.2959
1996.492 1.4037 1.5699 1.4879 1.548 1.4454 1.4522 1.73 1.6216 1.5765 1.66
2015.782 1.5637 1.6022 1.6099 1.4983 1.4689 1.4847 1.6144 1.5469 1.4284 1.5913
2035.072 1.5773 1.5164 1.4529 1.5363 1.556 1.3697 1.5435 1.6043 1.5345 1.4712
2054.362 1.4046 1.6182 1.65 1.63 1.71 1.68 1.75 1.87 1.9 1.91
2073.651 1.9 2.01 2.12 2.16 2.07 1.77 1.68 1.69 1.76 1.63
2092.941 1.4619 1.4694 1.555 1.64 1.6166 1.5697 1.4226 1.4754 1.5708 1.5109
2112.231 1.4314 1.3651 1.3191 1.2653 1.3926 1.5626 1.588 1.596 1.68 1.5773
2131.521 1.3096 1.4291 1.6132 1.5554 1.5299 1.5684 1.6168 1.5189 1.5 1.66
2150.810 1.65 1.5055 1.5571 1.64 1.72 1.592 1.4294 1.5529 1.64 1.6084
2170.100 1.74 1.76 1.6054 1.68 1.5775 1.4894 1.5506 1.581 1.6099 1.5349
2189.390 1.4977 1.3874 1.2981 1.4693 1.65 1.75 1.72 1.6044 1.5629 1.67
2208.680 1.65 1.5187 1.4929 1.4873 1.4409 1.4684 1.4772 1.4645 1.4696 1.3528
2227.970 1.4159 1.71 1.83 1.68 1.64 1.73 1.9 2.08 1.95 1.68
2247.259 1.69 1.82 1.79 1.83 2.05 2.09 1.92 1.83 2.02 1.85
2266.549 1.5705 1.5979 1.64 1.5645 1.5176 1.68 1.82 1.85 1.72 1.6099
2285.839 1.5643 1.5101 1.5278 1.6011 1.6095 1.5775 1.63 1.65 1.5569 1.5761
2305.129 1.72 1.5952 1.4677 1.65 1.5343 1.5202 1.5823 1.6086 1.67 1.64
2324.418 1.5177 1.5264 1.83 1.84 1.5215 1.4837 1.69 1.9 2.06 1.91
2343.708 1.82 1.86 1.73 1.72 1.79 1.5691 1.4879 1.5252 1.3891 1.3696
2362.998 1.4591 1.3382 1.3585 1.4349 1.5468 1.528 1.3495 1.4055 1.4264 1.45
2382.288 1.3619 1.1486 1.1174 1.1164 1.1707 1.2603 1.0417 0.9736 1.1969 1.1198
2401.578 1.0333 1.1939 1.1926 1.1894 1.3153 1.2837 1.2724 1.3012 1.2201 1.2653
2420.867 1.3396 1.3993 1.3626 1.291 1.0705 1.2182 1.4476 1.4061 1.4126 1.3718
2440.157 1.4713 1.2275 1.3279 1.4131 1.1481 1.1076 1.2175 1.3448 1.3065 1.2406
2459.447 1.1674 1.3596 1.4726 1.2728 1.5805 1.79 1.5954 1.5978 1.4331 1.2565
2478.737 1.2252 1.3132 1.2402 1.3023 1.5844 1.448 1.2016 1.3334 1.4563 1.4223
2498.026 1.64 1.77 1.64 1.68 1.5897 1.5186 1.588 1.614 1.5089 1.5822
2517.316 1.86 1.85 1.74 1.73 1.82 1.78 1.7 1.73 1.5543 1.4058
2536.606 1.5341 1.73 1.5626 1.3374 1.4196 1.5053 1.6055 1.84 1.94 1.85
2555.896 1.73 1.5958 1.87 1.81 1.5104 1.5602 1.606 1.75 1.75 1.4105
2575.186 1.3929 1.71 1.82 1.7 1.5503 1.6069 1.81 1.96 1.79 1.68
2594.475 1.76 1.6057 1.5199 1.5966 2.02 2.15 1.95 2.11 2.21 2.28
2613.765 2.21 2.27 2.55 2.47 2.26 2.2 2.24 2.17 2.4 2.59
2633.055 2.49 2.68 2.82 2.78 2.57 2.24 2.23 2.25 2.24 2.34
2652.345 2.63 2.62 2.51 2.72 2.48 2.44 2.68 2.81 2.9 2.79
2671.634 2.65 2.38 2.41 2.31 2.12 2.4 2.34 2.07 2.09 2.23
2690.924 2.32 2.17 2.11 2.22 2.27 2.43 2.24 2.04 1.97 1.79
2710.214 1.94 2.13 2.1 2.17 2.36 2.19 1.89 1.98 2.12 2.15
2729.504 1.95 1.9 2.42 2.58 2.39 2.24 2.31 2.61 2.81 2.72
2748.794 2.51 2.76 3.13 3.28 3.39 3.57 3.67 3.67 3.76 3.74
2768.083 3.58 3.82 3.95 3.99 4.23 4.4 4.74 4.91 5.07 5.39
2787.373 5.86 6 6.2 6.82 7.12 7.41 7.86 8.7 9.63 10.37
2806.663 11.4 12.28 13.36 14.71 16.21 18.12 20.02 21.66 23.23 25.08
2825.953 26.38 26.97 27.29 27.27 26.78 25.93 24.8 23.33 21.9 20.56
2845.242 19.21 18.17 17.34 16.36 15.22 14.43 14.03 13.67 13.36 13.2
2864.532 13.36 13.91 14.5 14.69 15.26 16.28 17.47 19.1 20.52 21.58
2883.822 22.64 23.08 22.86 22.16 20.61 19.24 18.42 17.4 16.71 15.98
2903.112 15.39 15.53 15.79 16.28 16.43 16.32 16.71 17.81 18.66 18.84
2922.401 19.27 20.06 20.56 20.65 21.09 21.67 22.43 23.27 24 25.11
2941.691 26.08 26.48 27.15 28.3 28.91 29.79 31.21 32.42 34.18 36.42
2960.981 38.52 40.82 43.03 45.31 47.31 48.53 49.17 48.43 46.55 44.16
2980.271 41.21 37.86 33.73 29.5 25.89 22.32 19.36 16.88 14.68 13.36
2999.561 12.07 10.72 10.08 9.44 8.54 7.86 7.54 7.43 7.15 6.85
3018.850 6.81 6.65 6.2 5.77 5.6 5.68 5.54 5.32 5.4 5.81
3038.140 5.96 5.82 6.04 6.47 6.63 6.69 6.59 6.15 5.5 5.25
3057.430 5.02 4.82 4.93 5.06 5 4.65 4.48 4.19 4.25 4.35
3076.720 3.89 3.68 3.62 3.37 3.49 3.67 3.68 4.12 4.31 4
3096.009 3.52 2.79 2.45 2.44 2.58 2.54 2.46 2.31 1.92 1.84
3115.299 1.94 1.78 1.5431 1.6017 1.81 1.98 1.99 1.75 1.67 2.03
3134.589 1.94 1.3385 0.9346 1.0604 1.3512 1.0314 0.7591 0.9555 1.4091 1.2114
3153.879 1.1247 1.4946 1.4865 1.6027 1.4014 1.1446 1.3973 1.3882 1.1041 0.9777
3173.169 0.9284 0.72372 0.7391 1.1194 1.1557 1.1648 1.2771 1.2128 1.118 1.1561
3192.458 0.9464 0.9417 1.2758 1.3308 1.2288 1.1767 1.251 1.355 1.0743 0.8814
3211.748 1.0881 1.2042 1.1157 1.1795 1.3246 1.1461 1.0448 0.9687 0.845 0.9389
3231.038 1.3917 1.5886 1.67 1.3901 0.8371 0.7806 0.67019 0.9299 1.344 1.1515
3250.328 0.8865 1.0644 0.9233 0.8282 1.1844 1.4428 1.1854 0.476 1.0042 1.2587
3269.617 0.7086 0.8582 0.9467 0.9474 0.9773 0.6094 0.71471 1.0389 0.867 0.9904
3288.907 0.9862 0.494 0.462 0.69121 0.7834 0.8359 0.8246 0.70469 0.5494 0.5378
3308.197 0.5351 0.497 0.72727 0.8934 0.72196 1.1031 1.3284 1.5374 1.5938 1.1971
3327.487 1.165 1.0199 0.7472 0.7959 1.4042 1.6102 1.5532 1.66 1.2526 0.9416
3346.777 0.8977 1.496 1.85 1.64 1.91 2.22 2.64 3.28 3.73 4.03
3366.066 4.81 5.87 6.57 7.02 7.72 8.37 8.32 7.82 7.22 7.09
3385.356 6.89 5.99 5.38 5.07 4.79 4.38 3.8 3.5 3.15 2.79
3404.646 2.9 2.84 2.25 2.46 2.93 2.76 2.44 1.68 1.3412 1.69
3423.936 2 1.95 1.71 1.76 1.579 1.5257 1.85 2.03 2.04 2.3
3443.225 2.37 1.93 1.82 2.09 2.56 2.91 2.85 2.9 3.25 3.75
3462.515 4.7 5.68 6.29 6.71 7.24 7.94 8.78 9.31 9.53 10.15
3481.805 10.16 9.01 8.84 8.56 7.63 7.14 6.84 6.33 5.74 5.22
3501.095 4.66 4.66 4.49 3.89 3.74 3.56 3.04 3.07 2.94 2.65
3520.385 2.5 2.44 2.27 2.04 2.28 2.63 2.74 2.38 1.85 2.07
3539.674 2.03 1.4117 1.2419 1.2256 1.3664 1.2953 1.3154 1.0469 1.0394 1.77
3558.964 1.93 1.73 1.2419 0.9727 1.3025 1.4765 0.881 0.517 0.632148 1.1444
3578.254 1.2578 0.7722 0.8441 0.8235 1.0393 1.119 0.66025 0.7464 1.1391 1.3151
3597.544 1.0479 1.1132 1.074 0.6014 0.5706 0.8681 0.7859 0.68868 0.6856 0.371
3616.833 0.16 0.252 0.34 0.219 0.18 0.5464 0.7651 0.72515 1.0454 1.0003
3636.123 0.67864 0.433 0.66925 1.2894 1.2892 1.2799 1.3328 1.1119 1.1791 0.9895
3655.413 0.762 0.9767 0.76 0.093 0 0.469 0.8208 0.8543 0.947 1.2806
3674.703 1.3516 1.0297 0.8532 0.9735 0.7459 0.6053 0.9028 0.8885 1.0596 1.0858
3693.993 0.7385 0.7983 0.7463 0.64667 0.806 1.1111 1.4699 1.3402 1.1717 1.4549
3713.282 1.2022 0.8237 0.8229 1.0586 1.3928 1.1463 0.8921 1.0983 0.8556 0.70241
3732.572 0.8933 0.67128 0.9579 0.71216 0.333 0.7738 0.9925 0.9494 0.9781 1.3138
3751.862 0.9387 0.70388 1.1376 1.0305 0.7564 0.9671 1.2378 1.1154 1.1361 0.9123
3771.152 0.9626 0.9498 0.8942 1.1805 0.9759 1.095 1.1984 1.0549 0.872 0.7707
3790.441 0.634996 0.486 0.367 0.416 0.394 0.7545 0.9895 0.7384 1.324 1.6095
3809.731 1.0857 0.9193 1.2808 1.1808 0.8353 0.64763 0.9311 1.2034 0.68451 0.799
3829.021 0.69091 0.5965 0.9359 1.0101 1.0926 1.004 0.915 1.0033 1.2467 1.2587
3848.311 1.0564 1.1143 1.2193 0.821 0.7405 0.7459 0.8318 0.832 0.6504 0.8058
3867.601 1.3416 1.4475 0.8991 1.0873 1.5836 1.3744 1.0522 1.0265 1.3215 0.64571
3886.890 0.003 0.5403 0.9118 1.0878 1.258 1.1232 1.2692 1.5982 1.5154 0.9705
3906.180 0.6168 0.9795 0.65653 0.67709 0.9003 0.514 0.536 0.8868 0.8622 0.243
3925.470 0.245 0.944 1.231 1.0804 0.8392 0.731 0.62546 0.504 0.65972 0.7305
3944.760 0.5396 0.461 0.67695 1.08 1.1397 1.3102 1.5704 0.8085 0.357 0.9183
3964.049 1.2833 1.4799 1.2751 0.6059 0.69618 1.0078 1.172 1.456 1.5921 1.72
3983.339 1.5308 1.3471 0.9334 0.65027 0.66965 0.63171 0.5619 0.71533 0.9102 0.9428
##END=
