##TITLE=p-Iodoacetophenone
##JCAMP-DX=4.24
##DATA TYPE=INFRARED SPECTRUM
##ORIGIN=NIST Mass Spectrometry Data Center
##OWNER=NIST Standard Reference Data Program
Collection (C) 2018 copyright by the U.S. Secretary of Commerce
on behalf of the United States of America. All rights reserved.
##CAS REGISTRY NO=13329-40-3
##MOLFORM=C 8 H 7 I O
##$NIST SOURCE=MSDC-IR
##SPECTROMETER/DATA SYSTEM=HP-GC/MS/IRD
##STATE=gas
##XUNITS=1/CM
##YUNITS=ABSORBANCE
##XFACTOR=1.0
##YFACTOR=0.000007200
##DELTAX=4.0
##FIRSTX=550.0
##LASTX=3846.0
##FIRSTY=0.000547
##MAXX=3846
##MINX=550
##MAXY=0.072
##MINY=0
##NPOINTS=825
##XYDATA=(X++(Y..Y))
550.0 76 91 78 105 160 257 387 533 717 959
590.0 1278 1624 1699 1393 902 541 345 217 153 122
630.0 114 102 83 73 62 33 11 11 14 8
670.0 1 0 7 9 9 18 36 67 98 124
710.0 144 160 203 338 715 1463 2154 2177 1474 615
750.0 214 129 100 93 99 115 126 134 143 181
790.0 276 456 722 1052 1388 1734 1983 1904 1709 1472
830.0 1173 898 649 459 327 237 174 133 110 93
870.0 80 75 73 72 71 73 76 73 69 65
910.0 62 64 78 107 162 257 424 726 1231 1886
950.0 2385 2405 1958 1351 905 671 553 483 466 514
990.0 670 1024 1897 3291 4221 3917 2422 995 457 327
1030.0 288 264 274 303 375 528 736 924 1063 1266
1070.0 1613 1803 1595 1079 607 389 306 262 242 237
1110.0 240 233 221 191 146 120 109 105 111 118
1150.0 129 153 182 226 279 358 507 812 1098 1129
1190.0 918 681 653 747 843 919 1010 1194 1483 1771
1230.0 1973 2173 2543 3211 4215 5560 7024 7933 7668 6253
1270.0 4451 2947 1854 1202 881 700 624 660 696 631
1310.0 462 320 275 277 302 341 404 494 625 835
1350.0 1200 1798 2412 2663 2393 1838 1477 1468 1770 2277
1390.0 2628 2557 2043 1399 989 763 629 571 561 571
1430.0 573 552 514 472 435 408 392 387 406 450
1470.0 517 629 758 794 690 484 303 222 192 180
1510.0 176 184 204 243 302 374 438 473 504 572
1550.0 708 912 1163 1421 1717 2268 3302 4814 5861 5494
1590.0 3796 1877 835 527 409 345 308 297 302 308
1630.0 306 301 305 325 365 424 493 564 636 690
1670.0 748 843 1028 1369 1958 2831 4184 6314 8748 10000
1710.0 9344 7024 4390 2687 1690 1086 758 592 525 501
1750.0 492 471 422 356 289 236 195 171 162 165
1790.0 175 181 175 152 125 103 85 71 61 52
1830.0 50 51 56 64 73 80 82 81 76 70
1870.0 69 71 79 86 95 102 103 109 113 113
1910.0 115 111 101 92 85 77 70 64 61 61
1950.0 60 57 53 47 40 34 34 38 41 46
1990.0 48 49 51 50 48 45 39 35 26 21
2030.0 19 15 16 13 10 10 7 6 9 10
2070.0 10 9 7 6 8 12 13 13 15 14
2110.0 9 7 9 8 6 7 10 8 5 2
2150.0 0 2 0 1 3 2 1 3 8 10
2190.0 11 10 9 13 14 15 15 13 13 10
2230.0 5 4 3 4 6 4 5 8 10 13
2270.0 15 17 20 25 34 43 50 55 55 58
2310.0 57 51 49 43 32 25 19 15 17 17
2350.0 16 13 12 16 16 17 25 24 17 12
2390.0 11 11 12 10 10 13 14 14 13 4
2430.0 6 12 11 9 11 12 12 7 7 7
2470.0 4 8 10 12 16 20 26 36 42 46
2510.0 51 53 60 67 68 72 73 65 57 46
2550.0 40 38 35 35 37 38 41 46 49 51
2590.0 49 41 34 26 20 17 12 12 16 19
2630.0 19 21 23 21 22 25 26 30 26 10
2670.0 2 6 5 7 10 8 10 9 3 0
2710.0 2 3 2 3 2 7 10 7 7 8
2750.0 11 17 17 16 13 14 11 4 10 15
2790.0 15 14 12 14 18 20 23 28 33 37
2830.0 44 51 59 64 59 54 50 40 41 38
2870.0 34 35 39 37 35 40 39 45 51 53
2910.0 59 69 87 105 124 141 153 158 158 152
2950.0 146 148 155 169 183 195 208 209 203 195
2990.0 181 183 204 239 304 388 450 456 403 328
3030.0 273 239 209 194 195 212 256 298 308 295
3070.0 289 333 400 451 469 447 379 296 222 166
3110.0 137 113 95 85 76 66 61 57 54 51
3150.0 48 48 46 41 40 40 35 36 28 18
3190.0 17 11 7 14 14 9 5 8 14 13
3230.0 13 12 9 10 15 18 20 20 19 15
3270.0 11 9 2 2 12 12 7 14 15 13
3310.0 13 20 23 25 26 14 15 24 27 24
3350.0 21 27 31 33 48 58 69 98 133 155
3390.0 171 183 183 161 129 99 79 62 44 32
3430.0 31 26 26 28 26 25 24 21 14 10
3470.0 12 14 15 7 4 12 13 12 8 6
3510.0 4 3 7 0 0 8 9 6 4 5
3550.0 13 16 9 11 17 14 9 12 10 4
3590.0 6 9 6 1 9 13 14 11 7 12
3630.0 13 14 8 12 20 16 16 20 27 22
3670.0 14 16 19 14 9 14 16 18 23 26
3710.0 34 41 37 30 23 15 8 8 12 11
3750.0 6 12 16 9 7 17 14 8 12 18
3790.0 16 12 12 15 22 24 23 27 31 21
3830.0 19 23 13 8 9
##END=
