##TITLE=1-Undecenoic acid
##JCAMP-DX=4.24
##DATA TYPE=INFRARED SPECTRUM
##ORIGIN=NIST Mass Spectrometry Data Center
##OWNER=NIST Standard Reference Data Program
Collection (C) 2018 copyright by the U.S. Secretary of Commerce
on behalf of the United States of America. All rights reserved.
##CAS REGISTRY NO=1333-28-4
##MOLFORM=C 11 H 20 O 2
##$NIST SOURCE=MSDC-IR
##SPECTROMETER/DATA SYSTEM=HP-GC/MS/IRD
##STATE=gas
##XUNITS=1/CM
##YUNITS=ABSORBANCE
##XFACTOR=1.0
##YFACTOR=0.000001400
##DELTAX=4.0
##FIRSTX=550.0
##LASTX=3846.0
##FIRSTY=0.001681
##MAXX=3846
##MINX=550
##MAXY=0.014
##MINY=0
##NPOINTS=825
##XYDATA=(X++(Y..Y))
550.0 1201 1217 1249 1280 1249 1235 1247 1250 1256 1330
590.0 1377 1412 1468 1503 1508 1479 1475 1465 1444 1415
630.0 1345 1258 1133 974 819 722 653 595 548 467
670.0 400 393 382 379 375 378 386 388 382 379
710.0 398 411 418 427 413 387 366 332 309 281
750.0 237 210 185 172 176 166 142 108 77 55
790.0 50 36 32 23 0 25 22 20 25 36
830.0 66 61 56 61 82 106 120 142 172 200
870.0 219 236 268 295 326 381 455 579 777 1036
910.0 1283 1391 1271 1016 775 629 514 433 386 353
950.0 330 322 313 314 326 349 400 459 546 646
990.0 723 758 739 679 623 605 596 585 579 603
1030.0 636 686 749 814 887 976 1094 1236 1394 1564
1070.0 1752 1937 2139 2359 2574 2797 3020 3222 3430 3646
1110.0 3859 4021 4129 4184 4169 4062 3848 3580 3282 2991
1150.0 2739 2510 2304 2163 2035 1919 1824 1715 1586 1490
1190.0 1406 1307 1219 1142 1091 1029 955 888 841 800
1230.0 757 726 704 696 676 675 683 684 699 704
1270.0 697 690 683 677 669 663 657 649 643 634
1310.0 619 609 606 616 628 663 711 784 876 956
1350.0 1023 1075 1117 1153 1182 1210 1215 1206 1173 1107
1390.0 996 868 753 654 584 553 551 561 583 617
1430.0 652 699 775 838 900 958 1015 1044 986 861
1470.0 698 531 378 267 191 147 125 101 83 75
1510.0 59 41 33 39 41 30 23 27 29 24
1550.0 23 29 32 14 13 15 8 9 6 11
1590.0 17 28 35 40 56 82 121 158 193 252
1630.0 337 450 548 574 493 363 250 180 149 123
1670.0 101 104 117 134 149 157 184 222 264 312
1710.0 364 444 559 693 855 1073 1351 1669 2059 2522
1750.0 3051 3653 4350 5199 6200 7269 8116 8328 7789 6747
1790.0 5605 4585 3756 3033 2394 1860 1430 1107 873 710
1830.0 578 469 381 311 252 202 160 132 116 106
1870.0 96 83 71 59 59 58 47 48 51 44
1910.0 42 37 31 26 19 19 28 28 20 22
1950.0 25 26 23 18 22 21 24 33 34 22
1990.0 20 20 14 12 12 19 21 13 16 17
2030.0 21 25 19 17 14 7 6 11 11 16
2070.0 21 20 17 11 7 6 9 3 0 6
2110.0 8 10 17 16 19 24 21 14 6 15
2150.0 27 28 21 18 20 18 23 39 46 45
2190.0 35 27 33 38 37 34 27 36 33 25
2230.0 23 18 27 28 23 17 19 20 12 18
2270.0 21 18 21 27 27 24 21 24 22 14
2310.0 16 27 24 25 28 32 25 13 16 15
2350.0 15 16 18 20 26 29 23 18 14 10
2390.0 11 3 4 21 27 21 21 18 17 13
2430.0 13 21 19 24 13 5 9 8 11 8
2470.0 7 8 1 1 8 12 19 29 29 20
2510.0 23 38 39 29 32 34 27 27 22 12
2550.0 14 25 29 26 27 25 22 25 30 27
2590.0 23 26 24 21 27 37 39 38 43 47
2630.0 48 52 59 65 72 84 85 81 83 85
2670.0 89 88 93 99 93 89 89 85 88 101
2710.0 102 92 93 97 91 93 105 101 90 93
2750.0 102 106 114 118 119 126 133 142 151 167
2790.0 182 200 223 251 279 311 344 390 456 531
2830.0 623 732 872 1078 1380 1821 2396 3014 3490 3629
2870.0 3443 3062 2639 2306 2090 2014 2085 2280 2613 3099
2910.0 3720 4508 5490 6727 8119 9346 10000 9795 8837 7490
2950.0 6102 4891 3895 3119 2550 2161 1890 1692 1534 1391
2990.0 1249 1121 1039 990 930 832 717 616 536 472
3030.0 421 389 370 367 370 377 388 400 425 476
3070.0 551 638 756 884 920 826 640 451 323 255
3110.0 202 157 136 130 128 127 107 96 94 80
3150.0 79 77 79 72 52 47 40 43 47 49
3190.0 58 54 33 19 26 40 39 43 43 20
3230.0 12 26 31 31 32 15 16 35 21 9
3270.0 15 25 34 27 26 29 30 41 56 34
3310.0 16 26 30 20 20 9 6 26 31 22
3350.0 27 31 34 40 35 41 31 22 39 41
3390.0 23 1 12 45 49 39 33 32 51 56
3430.0 57 50 40 39 45 57 50 54 50 53
3470.0 60 46 52 78 89 78 73 102 109 81
3510.0 102 125 136 144 147 180 206 245 298 360
3550.0 423 546 769 1130 1753 2657 3329 3175 2295 1400
3590.0 865 586 427 319 257 222 197 161 140 139
3630.0 131 119 113 111 108 97 93 81 75 86
3670.0 92 92 92 82 75 84 82 77 78 79
3710.0 73 46 40 52 66 81 75 78 90 96
3750.0 93 80 72 69 86 91 73 66 65 72
3790.0 75 68 61 61 61 80 86 67 73 79
3830.0 67 84 82 64 67
##END=
