##TITLE=2,4-Dimethylphenoxyacetic acid
##JCAMP-DX=4.24
##DATA TYPE=INFRARED SPECTRUM
##ORIGIN=EPA-IR VAPOR PHASE LIBRARY
##OWNER=SRD/NIST
Collection (C) 2018 copyright by the U.S. Secretary of Commerce
on behalf of the United States of America. All rights reserved.
##CAS REGISTRY NO=13334-49-1
##MOLFORM=C 10 H 12 O 3
##$NIST SOURCE=MSDC-IR
##STATE=gas
##XUNITS=1/CM
##YUNITS=ABSORBANCE
##XFACTOR=1.
##YFACTOR=0.001
##DELTAX=1.92934
##FIRSTX=549.9
##LASTX=3999.5
##FIRSTY=32.22
##MAXX=3999.53
##MINX=549.863
##MAXY=0.23122
##MINY=0
##NPOINTS=1789
##XYDATA=(X++(Y..Y))
549.863 32.22 33.28 34.31 35.4 36.26 37.25 38.46 39.56 40.79 42.1
569.156 43.42 44.91 46.28 47.72 49.3 50.63 51.69 52.31 52.33 52.18
588.450 51.99 51.63 51.14 50.87 50.86 51.08 51.75 52.52 53.61 55.01
607.743 56.44 57.72 58.75 59.58 60.01 60.05 59.72 58.98 58.01 56.88
627.037 55.52 53.99 52.18 50.05 47.83 45.53 43.09 40.65 38.44 36.58
646.330 35 33.62 32.53 31.66 30.83 30.04 29.38 28.7 28.05 27.38
665.624 26.71 26.18 25.31 24.31 23.46 22.56 21.77 21.01 20.25 19.62
684.917 18.98 18.31 17.78 17.23 16.65 16.13 15.66 15.3 15.04 14.85
704.210 14.7 14.59 14.55 14.59 14.57 14.39 14.03 13.43 12.78 12.12
723.504 11.41 10.78 10.37 10.12 9.98 10.05 10.11 10.32 10.84 11.44
742.797 12.16 13.18 14.45 15.78 16.96 17.88 18.46 18.7 18.66 18.32
762.091 17.85 17.42 17.12 16.96 16.95 17.28 17.95 18.96 20.34 22.16
781.384 24.5 27.4 30.84 34.78 39 43.2 47.16 50.63 53.09 54.1
800.678 53.58 51.69 48.94 45.7 42.14 38.34 34.62 31.35 28.25 25.34
819.971 22.9 20.87 19.22 17.93 17.01 16.33 15.85 15.51 15.29 15.27
839.264 15.43 15.68 15.98 16.31 16.72 17.14 17.52 18 18.51 19.06
858.558 19.72 20.52 21.48 22.5 23.49 24.41 25.3 25.7 24.98 23.5
877.851 22.03 20.61 19.11 17.63 16.16 14.88 13.78 12.88 12.16 11.57
897.145 11.15 10.7 10.33 10.04 9.73 9.41 9.16 8.99 8.83 8.67
916.438 8.54 8.49 8.48 8.49 8.53 8.51 8.44 8.38 8.36 8.36
935.732 8.33 8.31 8.3 8.23 8.18 8.26 8.33 8.4 8.52 8.62
955.025 8.78 8.96 9.15 9.34 9.59 9.94 10.31 10.71 11.09 11.52
974.318 12.01 12.47 12.93 13.42 13.97 14.45 14.9 15.44 16.02 16.64
993.612 17.32 18.12 18.95 19.8 20.71 21.6 22.45 23.26 23.99 24.64
1012.905 25.32 26.12 27 28.04 29.37 31.01 32.98 35.22 37.76 40.69
1032.199 44 47.6 51.53 55.77 60.16 64.61 68.94 73.1 77.16 80.99
1051.492 84.62 88.2 91.64 94.96 98.19 101.2 103.84 105.93 107.25 107.47
1070.786 106.41 104.03 100.28 95.36 89.6 83.45 77.33 71.73 67.11 63.76
1090.079 61.94 61.86 63.58 67.17 72.71 80.36 90.26 102.37 116.56 132.44
1109.372 149.31 166.19 181.95 195.57 206.41 214.04 218.04 218.21 214.86 208.53
1128.666 200.02 190.13 179.3 167.94 156.66 146.23 137.24 129.89 124.04 119.35
1147.959 115.46 112.07 108.81 105.46 101.92 98.18 94.36 90.63 87.12 83.87
1167.253 80.85 78 75.43 73.28 71.51 70.17 69.35 69.04 69.26 70.07
1186.546 71.56 73.85 77.13 81.62 87.47 94.78 103.56 113.77 125.25 137.72
1205.840 150.87 164.1 176.66 187.73 196.38 201.76 203.16 200.03 192.34 180.65
1225.133 165.94 149.61 133.27 118.52 106.56 97.97 92.99 91.4 92.49 95.62
1244.426 99.92 104.48 108.55 111.35 112.62 112.27 110.3 106.98 102.62 97.7
1263.720 92.72 87.98 83.59 79.53 75.8 72.44 69.58 67.39 65.92 65.18
1283.013 65.02 65.31 65.78 66.07 66.04 65.52 64.42 62.79 60.79 58.75
1302.307 56.85 55.09 53.63 52.59 52.09 52.07 52.64 53.77 55.26 57.13
1321.600 59.34 61.8 64.51 67.43 70.37 73.16 75.58 77.37 78.48 78.94
1340.894 78.95 78.62 77.73 76.34 74.77 73.26 71.77 70.23 68.55 66.67
1360.187 64.59 62.33 59.87 57.39 54.99 52.64 50.57 48.85 47.38 46.18
1379.480 45.09 43.97 42.89 41.95 40.98 39.77 38.42 37.11 35.89 34.78
1398.774 33.81 32.93 32.09 31.29 30.57 29.99 29.49 29.02 28.64 28.38
1418.067 28.26 28.13 28.08 28.17 28.39 28.79 29.25 29.84 30.67 31.71
1437.361 32.97 34.43 36.15 37.77 38.94 39.57 39.58 39.01 37.96 36.47
1456.654 34.55 32.59 31.11 30.23 29.92 30.02 30.6 31.78 33.56 35.91
1475.948 38.98 42.98 48.03 54.58 62.92 73.3 86.14 101.54 119.35 138.25
1495.241 157.09 174.34 187.09 193.81 193.67 186.63 172.75 154.38 133.75 112.42
1514.534 93.02 76.28 62.74 52.49 44.27 38.11 33.39 29.65 26.68 24.37
1533.828 22.47 20.81 19.55 18.58 17.59 16.71 15.98 15.33 14.85 14.4
1553.121 13.99 13.56 13.25 12.96 12.48 12.07 11.8 11.6 11.5 11.47
1572.415 11.42 11.5 11.7 11.83 12.02 12.27 12.5 12.78 13.01 13.18
1591.708 13.44 13.68 13.9 14.13 14.42 14.8 15.28 15.77 16.24 16.67
1611.002 16.91 16.85 16.48 15.77 14.79 13.66 12.45 11.23 10.14 9.28
1630.295 8.58 8.02 7.63 7.3 6.99 6.79 6.66 6.6 6.56 6.46
1649.588 6.4 6.47 6.49 6.35 6.28 6.33 6.43 6.51 6.54 6.63
1668.882 6.79 6.91 6.96 7.1 7.21 7.28 7.44 7.64 7.81 7.88
1688.175 7.98 8.09 8.21 8.44 8.73 8.99 9.35 9.61 9.85 10.25
1707.469 10.66 11.08 11.62 12.24 12.9 13.68 14.47 15.35 16.45 17.69
1726.762 19.13 20.77 22.52 24.48 26.69 28.79 30.98 33.36 35.79 38.3
1746.056 41 44.01 47.32 50.94 54.78 59.01 63.78 69.03 75.15 82.48
1765.349 91.35 102.35 115.59 130.3 145.87 159.83 170.79 178.15 181.76 181.78
1784.642 178.24 172.04 165.68 161.76 161.86 166.36 174.77 186.1 198.92 211.68
1803.936 222.37 229.27 231.22 227.62 218.57 204.73 187.2 166.97 145.54 124.65
1823.229 105.86 89.99 77.23 67.22 59.21 52.84 47.67 43.35 39.64 36.49
1842.523 33.78 31.22 28.81 26.62 24.59 22.71 20.95 19.34 17.91 16.6
1861.816 15.39 14.36 13.42 12.57 11.77 11.01 10.35 9.79 9.27 8.79
1881.110 8.37 8 7.67 7.38 7.11 6.86 6.67 6.5 6.36 6.21
1900.403 6.09 5.9732 5.8389 5.733 5.6299 5.5412 5.4602 5.3649 5.3013 5.2205
1919.696 5.07502 5.0432 5.0139 4.9 4.839 4.758 4.705 4.702 4.656 4.59
1938.990 4.584 4.61 4.615 4.591 4.58 4.595 4.584 4.599 4.621 4.633
1958.283 4.699 4.702 4.684 4.727 4.733 4.735 4.757 4.744 4.684 4.645
1977.577 4.647 4.66 4.607 4.567 4.573 4.577 4.596 4.57 4.544 4.516
1996.870 4.499 4.481 4.469 4.465 4.422 4.423 4.447 4.461 4.435 4.406
2016.164 4.399 4.403 4.405 4.388 4.393 4.401 4.385 4.362 4.382 4.425
2035.457 4.413 4.419 4.473 4.454 4.419 4.403 4.336 4.246 4.184 4.187
2054.750 4.139 4.01 3.92 3.88 3.85 3.78 3.71 3.71 3.68 3.66
2074.044 3.65 3.64 3.66 3.68 3.67 3.64 3.59 3.6 3.64 3.66
2093.337 3.66 3.67 3.67 3.66 3.65 3.64 3.63 3.6 3.53 3.52
2112.631 3.54 3.57 3.56 3.55 3.56 3.58 3.62 3.61 3.61 3.62
2131.924 3.63 3.65 3.64 3.63 3.64 3.64 3.64 3.65 3.63 3.61
2151.218 3.59 3.55 3.58 3.57 3.53 3.53 3.53 3.55 3.56 3.56
2170.511 3.58 3.59 3.59 3.61 3.65 3.66 3.69 3.71 3.73 3.74
2189.804 3.72 3.75 3.77 3.78 3.78 3.78 3.77 3.76 3.79 3.78
2209.098 3.78 3.79 3.77 3.76 3.74 3.71 3.7 3.67 3.62 3.57
2228.391 3.54 3.51 3.48 3.43 3.37 3.36 3.39 3.38 3.36 3.4
2247.685 3.45 3.46 3.5 3.52 3.53 3.53 3.52 3.53 3.54 3.55
2266.978 3.59 3.61 3.6 3.59 3.62 3.63 3.64 3.68 3.68 3.7
2286.272 3.75 3.75 3.77 3.81 3.83 3.79 3.8 3.81 3.8 3.79
2305.565 3.8 3.8 3.76 3.72 3.71 3.72 3.69 3.62 3.58 3.54
2324.858 3.5 3.49 3.48 3.46 3.43 3.38 3.34 3.31 3.3 3.31
2344.152 3.3 3.21 3.18 3.22 3.27 3.37 3.46 3.5 3.5 3.51
2363.445 3.5 3.48 3.51 3.5 3.47 3.41 3.34 3.3 3.26 3.22
2382.739 3.18 3.15 3.1 3.08 3.06 3.06 3.08 3.11 3.15 3.17
2402.032 3.21 3.23 3.24 3.29 3.31 3.35 3.38 3.38 3.37 3.37
2421.326 3.36 3.34 3.35 3.32 3.27 3.26 3.28 3.25 3.2 3.18
2440.619 3.14 3.1 3.1 3.09 3.11 3.11 3.09 3.1 3.16 3.21
2459.912 3.21 3.21 3.21 3.21 3.18 3.15 3.19 3.18 3.18 3.21
2479.206 3.17 3.13 3.17 3.18 3.13 3.13 3.18 3.19 3.16 3.17
2498.499 3.22 3.23 3.23 3.25 3.26 3.24 3.24 3.24 3.24 3.21
2517.793 3.13 3.06 2.97 2.97 2.96 2.9 2.92 2.95 2.91 2.82
2537.086 2.75 2.71 2.69 2.68 2.65 2.63 2.58 2.49 2.44 2.42
2556.380 2.42 2.38 2.33 2.29 2.27 2.26 2.25 2.26 2.24 2.21
2575.673 2.17 2.11 2.1 2.1 2.04 1.97 1.91 1.88 1.9 1.87
2594.966 1.8 1.79 1.83 1.81 1.76 1.76 1.72 1.7 1.71 1.69
2614.260 1.7 1.71 1.67 1.68 1.67 1.64 1.68 1.69 1.65 1.63
2633.553 1.58 1.52 1.47 1.48 1.55 1.54 1.5 1.51 1.53 1.51
2652.847 1.5 1.51 1.56 1.54 1.55 1.59 1.56 1.5 1.5 1.56
2672.140 1.6 1.62 1.67 1.68 1.63 1.58 1.6 1.68 1.74 1.78
2691.434 1.78 1.79 1.8 1.82 1.84 1.88 1.91 1.89 1.91 1.86
2710.727 1.8 1.8 1.88 1.91 1.92 1.95 2.02 2.17 2.29 2.35
2730.020 2.45 2.7 3.02 3.34 3.66 3.89 4.05 4.21 4.209 4.122
2749.314 3.91 3.63 3.37 3.04 2.79 2.56 2.4 2.34 2.34 2.29
2768.607 2.23 2.21 2.23 2.29 2.32 2.31 2.27 2.32 2.44 2.49
2787.901 2.53 2.58 2.62 2.69 2.83 2.95 2.98 2.96 3.01 3.11
2807.194 3.2 3.37 3.56 3.71 3.84 3.94 4.07 4.273 4.507 4.773
2826.488 5.0233 5.3592 5.7617 6.0603 6.49 7.04 7.6 8.2 8.87 9.61
2845.781 10.4 11.35 12.42 13.64 15.03 16.6 18.34 20.22 22.33 24.59
2865.074 26.87 29.08 31.01 32.63 33.99 34.87 35.14 34.93 34.34 33.49
2884.368 32.4 31.47 30.75 30.13 29.8 29.77 29.97 30.26 30.79 31.66
2903.661 32.65 33.98 35.67 37.68 40.08 42.87 46.12 49.98 54.45 59.31
2922.955 64.68 70.42 75.82 80.53 84.04 86.04 86.36 84.94 82.11 77.96
2942.248 73.01 67.64 62.24 57.22 52.85 49.11 45.96 43.35 41.16 39.4
2961.542 37.95 36.62 35.28 34.05 32.96 31.92 31.01 30.35 29.92 29.62
2980.835 29.4 29.08 28.87 28.69 28.48 28.28 28.18 28.26 28.52 28.98
3000.128 29.58 30.51 31.67 33.11 34.9 36.93 39.16 41.57 43.69 45.19
3019.422 46.1 46.16 45.33 43.83 41.73 39.25 36.94 35.02 33.48 32.45
3038.715 31.77 31.16 30.5 29.67 28.68 27.38 25.83 24.29 22.72 21.12
3058.009 19.78 18.79 17.89 17 16.26 15.62 15.06 14.39 13.61 12.87
3077.302 12.08 11.3 10.58 9.84 9.28 8.81 8.16 7.63 7.27 6.93
3096.596 6.59 6.24 6.0034 5.8049 5.5948 5.4695 5.3077 5.13985 4.9989 4.768
3115.889 4.566 4.486 4.371 4.05 3.73 3.52 3.23 2.91 2.61 2.29
3135.182 2.03 1.84 1.64 1.47 1.35 1.25 1 0.83 0.74 0.71
3154.476 0.81 0.67 0.56 0.64 0.53 0.45 0.51 0.51 0.45 0.29
3173.769 0.26 0.35 0.3 0.24 0.17 0.13 0.17 0.08 0.06 0.16
3193.063 0.19 0.25 0.31 0.13 0 0.03 0.07 0.12 0.13 0.1
3212.356 0.06 0.11 0.12 0.17 0.21 0.23 0.29 0.13 0.08 0.18
3231.650 0.18 0.28 0.25 0.28 0.43 0.38 0.29 0.38 0.47 0.33
3250.943 0.32 0.45 0.48 0.42 0.38 0.43 0.43 0.44 0.54 0.51
3270.236 0.5 0.53 0.5 0.59 0.71 0.76 0.62 0.65 0.86 0.88
3289.530 0.87 0.93 0.98 0.93 0.89 0.83 0.85 0.98 0.98 0.91
3308.823 0.96 1 0.99 1.07 1.09 0.99 1 0.98 0.95 1
3328.117 0.94 0.98 1.07 1.03 1.05 1.05 1.03 0.88 0.89 1.11
3347.410 1.1 1.19 1.26 1.22 1.26 1.23 1.17 1.17 1.23 1.22
3366.704 1.07 1.07 1.23 1.31 1.4 1.34 1.18 1.16 1.25 1.38
3385.997 1.41 1.41 1.45 1.46 1.39 1.41 1.59 1.65 1.59 1.7
3405.290 1.79 1.84 1.95 1.95 1.96 2.02 2.08 2.18 2.27 2.36
3424.584 2.61 2.75 2.84 3.01 3.03 2.91 2.95 3.01 3.08 3.25
3443.877 3.3 3.34 3.44 3.58 3.59 3.55 3.66 3.7 3.85 4.05
3463.171 4.152 4.224 4.421 4.774 5.14047 5.3969 5.7441 6.21 6.79 7.55
3482.464 8.32 9.26 10.31 11.51 12.98 14.52 16.22 18.11 20.33 22.78
3501.758 25.21 27.88 30.78 33.61 36.44 39.2 41.36 42.64 43.07 42.53
3521.051 41.03 38.92 36.24 33.32 30.52 27.97 25.86 24.04 22.51 21.34
3540.344 20.29 19.36 18.91 18.67 18.67 19 19.64 20.8 22.6 25.29
3559.638 29.26 34.95 42.73 52.75 64.46 76.46 86.82 94.7 98.95 98.38
3578.931 93.29 84.27 72.72 60.72 49.14 38.59 30.04 23.82 19.29 16.16
3598.225 14.1 12.52 11.32 10.29 9.41 8.67 7.95 7.4 6.93 6.48
3617.518 6.11 5.7609 5.3956 5.0395 4.757 4.572 4.407 4.167 3.94 3.71
3636.812 3.5 3.39 3.35 3.33 3.28 3.24 3.16 3.08 3.02 2.94
3656.105 2.86 2.9 2.89 2.82 2.81 2.81 2.86 2.82 2.65 2.57
3675.398 2.62 2.64 2.56 2.46 2.49 2.53 2.52 2.52 2.54 2.51
3694.692 2.49 2.46 2.39 2.38 2.49 2.49 2.53 2.54 2.53 2.58
3713.985 2.47 2.39 2.41 2.43 2.4 2.45 2.5 2.51 2.6 2.61
3733.279 2.61 2.64 2.61 2.66 2.82 2.86 2.75 2.73 2.75 2.73
3752.572 2.66 2.62 2.58 2.46 2.43 2.56 2.64 2.7 2.68 2.61
3771.866 2.55 2.5 2.55 2.65 2.68 2.59 2.5 2.55 2.64 2.62
3791.159 2.55 2.48 2.46 2.55 2.55 2.59 2.66 2.53 2.48 2.51
3810.452 2.48 2.48 2.5 2.51 2.48 2.47 2.48 2.45 2.43 2.45
3829.746 2.44 2.56 2.69 2.67 2.57 2.48 2.43 2.39 2.44 2.51
3849.039 2.48 2.51 2.57 2.55 2.48 2.48 2.48 2.47 2.51 2.46
3868.333 2.41 2.42 2.53 2.52 2.48 2.52 2.5 2.52 2.44 2.39
3887.626 2.42 2.42 2.44 2.44 2.46 2.51 2.59 2.67 2.63 2.56
3906.920 2.62 2.58 2.48 2.53 2.53 2.57 2.67 2.69 2.71 2.69
3926.213 2.62 2.59 2.62 2.7 2.74 2.71 2.71 2.73 2.76 2.81
3945.506 2.89 2.93 2.93 2.86 2.89 2.96 2.93 2.95 2.95 2.92
3964.800 2.93 2.98 2.99 2.96 2.95 2.94 2.93 2.94 2.95 2.92
3984.093 2.87 2.84 2.81 2.82 2.83 2.76 2.74 2.78 2.89
##END=
