##TITLE=1-Phenyl-1-propanol
##JCAMP-DX=4.24
##DATA TYPE=INFRARED SPECTRUM
##ORIGIN=NIST Mass Spectrometry Data Center
##OWNER=NIST Standard Reference Data Program
Collection (C) 2018 copyright by the U.S. Secretary of Commerce
on behalf of the United States of America. All rights reserved.
##CAS REGISTRY NO=1335-12-2
##MOLFORM=C 9 H 12 O
##$NIST SOURCE=MSDC-IR
##SPECTROMETER/DATA SYSTEM=HP-GC/MS/IRD
##STATE=gas
##XUNITS=1/CM
##YUNITS=ABSORBANCE
##XFACTOR=1.0
##YFACTOR=0.000001200
##DELTAX=4.0
##FIRSTX=550.0
##LASTX=3846.0
##FIRSTY=0.001531
##MAXX=3846
##MINX=550
##MAXY=0.012
##MINY=0
##NPOINTS=825
##XYDATA=(X++(Y..Y))
550.0 1276 663 276 218 121 21 7 36 68 144
590.0 184 172 270 411 422 435 468 541 698 775
630.0 760 670 519 458 494 602 754 873 960 1086
670.0 1310 1704 2366 3388 4774 6378 7985 8902 8567 7350
710.0 5897 4478 3351 2690 2498 2688 3069 3578 4092 4532
750.0 4853 4966 4742 4247 3602 2831 2066 1447 976 710
790.0 567 460 378 321 310 362 403 424 464 518
830.0 598 644 643 581 507 444 401 449 511 590
870.0 697 787 909 1078 1233 1388 1550 1609 1582 1538
910.0 1436 1310 1167 1022 929 899 957 1065 1229 1480
950.0 1835 2308 2942 3691 4441 5012 5325 5393 5239 4964
990.0 4758 4772 4983 5262 5486 5529 5433 5280 5056 4839
1030.0 4715 4648 4508 4276 4036 3774 3563 3402 3295 3265
1070.0 3266 3325 3411 3485 3524 3538 3491 3363 3152 2921
1110.0 2667 2353 2026 1716 1435 1208 1041 961 927 939
1150.0 1004 1149 1327 1493 1700 1918 2084 2194 2232 2236
1190.0 2231 2204 2211 2246 2274 2324 2412 2538 2655 2705
1230.0 2701 2623 2480 2365 2288 2253 2315 2403 2513 2561
1270.0 2611 2687 2710 2738 2806 2873 2907 2900 2888 2847
1310.0 2805 2767 2697 2625 2526 2406 2300 2214 2200 2281
1350.0 2464 2688 2920 3134 3277 3368 3406 3385 3245 3015
1390.0 2718 2379 2034 1713 1454 1252 1127 1060 1063 1132
1430.0 1292 1580 1987 2473 2921 3264 3432 3369 3123 2768
1470.0 2417 2149 2028 2090 2224 2264 2174 1913 1468 984
1510.0 653 500 406 328 313 324 298 285 282 258
1550.0 217 183 161 181 201 204 230 284 376 485
1590.0 592 701 776 765 678 540 384 227 133 105
1630.0 98 85 74 82 110 105 84 104 100 89
1670.0 92 75 64 65 51 19 15 21 19 26
1710.0 24 33 54 63 66 77 93 110 135 155
1750.0 159 149 140 116 98 101 98 126 167 250
1790.0 349 410 446 421 365 293 203 134 80 53
1830.0 47 50 59 66 67 89 134 174 210 238
1870.0 266 304 329 337 329 295 246 189 136 101
1910.0 84 97 118 150 224 306 379 437 477 489
1950.0 483 449 383 305 223 150 83 50 42 38
1990.0 33 31 27 13 24 28 27 19 17 25
2030.0 19 11 12 19 13 8 4 0 4 8
2070.0 10 28 24 25 31 21 13 15 17 6
2110.0 4 18 22 27 30 13 19 37 32 13
2150.0 17 21 12 12 18 16 12 16 19 7
2190.0 8 23 24 22 17 18 22 21 29 34
2230.0 35 26 22 42 41 26 25 30 24 11
2270.0 4 22 46 49 43 46 45 40 47 53
2310.0 86 113 93 84 88 79 95 103 90 84
2350.0 78 62 60 50 43 65 61 55 63 65
2390.0 55 54 61 78 96 112 103 88 88 78
2430.0 75 80 81 78 65 52 59 62 66 59
2470.0 33 26 32 38 36 34 37 30 30 41
2510.0 35 42 49 35 28 47 63 87 93 79
2550.0 88 102 91 84 84 104 127 135 149 157
2590.0 170 175 175 164 150 143 146 150 143 139
2630.0 129 127 133 138 134 128 141 154 159 176
2670.0 188 174 181 197 188 221 227 204 192 197
2710.0 231 225 210 198 216 253 265 278 307 328
2750.0 335 350 334 330 363 375 378 395 434 444
2790.0 460 495 516 558 599 626 686 764 833 911
2830.0 998 1116 1300 1517 1771 2136 2606 3147 3758 4427
2870.0 5141 5884 6589 7035 7065 6755 6194 5485 4847 4461
2910.0 4342 4466 4857 5503 6361 7368 8351 8993 9166 8919
2950.0 8355 7789 7544 7817 8674 9653 10000 9598 8581 7101
2990.0 5426 3995 3084 2570 2356 2377 2617 3059 3703 4421
3030.0 4992 5328 5327 5008 4549 4148 4009 4297 4956 5634
3070.0 6073 6133 5788 5105 4327 3689 3188 2760 2349 1931
3110.0 1568 1241 990 790 589 455 393 330 313 309
3150.0 273 261 268 261 238 233 214 181 148 128
3190.0 131 126 112 121 100 66 64 69 44 43
3230.0 53 36 35 8 19 49 39 35 28 41
3270.0 48 16 11 11 6 35 52 16 3 28
3310.0 45 46 49 44 19 20 13 28 32 35
3350.0 45 50 65 51 66 75 57 71 86 86
3390.0 66 81 86 77 95 91 83 91 106 80
3430.0 88 93 95 92 67 84 93 92 96 108
3470.0 122 109 69 49 74 89 53 56 70 81
3510.0 88 81 57 46 70 38 16 39 49 57
3550.0 73 64 47 62 76 101 98 66 67 74
3590.0 117 171 180 189 213 215 260 385 552 733
3630.0 1023 1450 1936 2398 2686 2819 2685 2277 1813 1344
3670.0 930 627 433 359 315 256 233 215 196 200
3710.0 188 124 102 116 131 135 106 87 82 81
3750.0 64 71 87 75 74 78 90 78 50 49
3790.0 36 44 82 81 77 90 104 93 71 58
3830.0 70 106 112 115 120
##END=
