##TITLE=Isocyclocitral
##JCAMP-DX=4.24
##DATA TYPE=INFRARED SPECTRUM
##ORIGIN=EPA-IR VAPOR PHASE LIBRARY
##OWNER=SRD/NIST
Collection (C) 2018 copyright by the U.S. Secretary of Commerce
on behalf of the United States of America. All rights reserved.
##CAS REGISTRY NO=1335-66-6
##MOLFORM=C 10 H 16 O
##$NIST SOURCE=MSDC-IR
##STATE=gas
##XUNITS=1/CM
##YUNITS=ABSORBANCE
##XFACTOR=1.
##YFACTOR=0.001
##DELTAX=3.85796
##FIRSTX=501.5
##LASTX=4000.7
##FIRSTY=0.7419
##MAXX=4000.7
##MINX=501.534
##MAXY=0.07213
##MINY=0.00007158
##NPOINTS=908
##XYDATA=(X++(Y..Y))
501.534 0.7419 0.8896 1.05 1 0.9155 1.05 0.9811 0.9818 1.09 1.08
540.114 0.9442 0.8832 0.8695 0.8686 0.832 0.6828 0.5488 0.411 0.3628 0.3752
578.693 0.4404 0.3768 0.3202 0.4016 0.309 0.2004 0.1717 0.2177 0.2461 0.261
617.273 0.284 0.286 0.3382 0.4138 0.3791 0.3516 0.464 0.5067 0.5222 0.5949
655.852 0.7337 0.8356 0.8712 0.8834 0.8361 0.7895 0.7453 0.7572 0.8334 0.9754
694.432 1.17 1.45 1.87 2.3 2.55 2.55 2.52 2.45 2.31 2.25
733.011 2.24 2.23 2.22 2.07 1.82 1.59 1.32 1.06 0.9354 0.8754
771.591 0.7841 0.8046 0.8598 0.9555 1.09 1.22 1.42 1.69 2.04 2.44
810.170 2.91 3.41 3.82 3.72 3.33 2.94 2.56 2.26 2.03 1.93
848.750 1.95 2.08 2.29 2.43 2.43 2.38 2.39 2.33 2.19 2.11
887.330 2.19 2.53 2.96 3.27 3.42 3.32 3.15 2.92 2.69 2.55
925.909 2.47 2.44 2.45 2.47 2.4 2.24 2.09 1.98 1.96 1.97
964.489 2.01 2.11 2.28 2.53 2.69 2.78 2.82 2.81 2.77 2.68
1003.068 2.65 2.75 2.82 2.85 2.95 3.09 3.16 3.34 3.5 3.57
1041.648 3.62 3.55 3.42 3.26 3.19 3.13 3.06 2.97 2.82 2.72
1080.227 2.69 2.65 2.73 2.73 2.72 2.71 2.69 2.74 2.66 2.63
1118.807 2.73 2.84 2.94 3.01 2.92 2.8 2.64 2.54 2.72 2.96
1157.387 3.23 3.42 3.37 3.18 2.91 2.59 2.36 2.27 2.36 2.57
1195.966 2.77 2.86 2.92 2.85 2.53 2.28 2.17 2.08 2.18 2.4
1234.546 2.77 3.15 3.52 3.73 3.73 3.6 3.3 3.07 2.95 2.83
1273.125 2.69 2.56 2.57 2.66 2.81 3.02 3.26 3.56 3.99 4.42
1311.705 4.76 5 5.1 5.1 4.98 4.7 4.41 4.19 4.11 4.2
1350.284 4.48 4.94 5.47 6.07 6.92 8.22 9.97 11.88 13.23 13.23
1388.864 11.84 9.55 7.1 5.24 4.09 3.49 3.21 3.2 3.52 4.2
1427.443 5.21 6.32 7.52 8.76 9.77 10.68 11.41 11.88 11.99 11.54
1466.023 10.56 9.05 7.22 5.51 4.09 3 2.27 1.79 1.5 1.31
1504.603 1.19 1.08 0.9874 0.9277 0.8696 0.8341 0.7988 0.7738 0.7722 0.7625
1543.182 0.7545 0.7315 0.7393 0.7799 0.8044 0.8128 0.8187 0.8277 0.8508 0.8969
1581.762 0.9484 0.9837 0.9709 0.9687 0.991 1.01 1.06 1.11 1.16 1.24
1620.341 1.33 1.44 1.57 1.69 1.85 2.03 2.18 2.36 2.61 2.92
1658.921 3.24 3.66 4.13 4.54 4.84 5.13 5.47 5.85 6.32 6.92
1697.500 7.66 8.65 10.13 12.76 17.38 25.36 37.1 50.7 63.79 72.08
1736.080 72.13 64.59 50.9 36.18 24.98 17.49 12.61 9.51 7.57 6.31
1774.659 5.36 4.61 4.04 3.56 3.15 2.82 2.54 2.28 2.04 1.86
1813.239 1.68 1.49 1.34 1.2 1.09 1.04 0.9794 0.8934 0.8196 0.7765
1851.819 0.7362 0.7012 0.6492 0.603 0.5562 0.505 0.4793 0.4629 0.4594 0.4479
1890.398 0.4357 0.4247 0.4028 0.4151 0.4418 0.4157 0.3975 0.3833 0.3571 0.3707
1928.978 0.378 0.3812 0.3816 0.3733 0.3845 0.3921 0.3975 0.4031 0.4036 0.3924
1967.557 0.3593 0.3381 0.3311 0.3108 0.3024 0.3133 0.2942 0.2695 0.2544 0.2585
2006.137 0.2721 0.2486 0.2224 0.2432 0.2558 0.2488 0.2507 0.2494 0.2688 0.2679
2044.716 0.2477 0.2389 0.2299 0.2252 0.2179 0.218 0.2182 0.2364 0.2325 0.2236
2083.296 0.2473 0.245 0.233 0.2051 0.198 0.1991 0.2142 0.2345 0.2387 0.2282
2121.875 0.1953 0.1897 0.1824 0.1758 0.173 0.1824 0.1829 0.1683 0.1772 0.1924
2160.455 0.2174 0.224 0.2285 0.2434 0.2283 0.1972 0.1872 0.1874 0.1665 0.1555
2199.035 0.1443 0.1491 0.1602 0.1672 0.167 0.1507 0.1474 0.1755 0.2078 0.2099
2237.614 0.1988 0.1736 0.149 0.1752 0.1914 0.1631 0.152 0.1535 0.1605 0.1605
2276.194 0.1838 0.1994 0.2072 0.2306 0.252 0.2497 0.2674 0.2853 0.2542 0.2468
2314.773 0.2604 0.2707 0.2621 0.2526 0.2775 0.2971 0.2864 0.2873 0.3088 0.2761
2353.353 0.2753 0.3153 0.3073 0.3117 0.3136 0.2846 0.268 0.2968 0.3319 0.3499
2391.932 0.3363 0.309 0.2959 0.2994 0.3087 0.3108 0.3125 0.3299 0.3257 0.3
2430.512 0.2964 0.2984 0.3138 0.3311 0.3482 0.3684 0.3747 0.4072 0.4211 0.3998
2469.092 0.4114 0.4343 0.4311 0.4289 0.433 0.4334 0.4188 0.4083 0.3985 0.3735
2507.671 0.384 0.4024 0.4159 0.4075 0.419 0.4549 0.4832 0.5112 0.5203 0.5614
2546.251 0.5805 0.6028 0.6606 0.667 0.6481 0.6885 0.7551 0.8059 0.8804 0.9172
2584.830 0.9674 1.04 1.11 1.22 1.33 1.4 1.45 1.55 1.62 1.68
2623.410 1.76 1.85 1.97 2.11 2.26 2.44 2.71 2.97 3.21 3.53
2661.989 3.96 4.55 5.37 6.44 7.82 9.5 11.28 12.94 14.25 14.95
2700.569 15.05 14.75 14.31 13.87 13.42 12.81 12.04 11.29 10.67 10.15
2739.148 9.72 9.32 8.88 8.46 8.08 7.7 7.42 7.25 7.09 6.96
2777.728 6.92 6.94 7.03 7.42 8.12 9.12 10.41 11.78 13.03 13.89
2816.308 14.35 14.71 15.32 16.23 17.2 17.91 18.29 18.34 18.25 18.53
2854.887 19.76 22.15 25.35 29 33.45 38.15 42 44.96 46.71 47.67
2893.467 48.4 48.88 48.96 48.8 48.15 46.49 44.83 43.65 42.72 42.13
2932.046 41.61 40.95 40.04 38.21 36.46 36.65 39.75 46.12 54.06 60.13
2970.626 62.04 58.55 50.14 39.62 29.88 22.49 17.5 14.26 12.18 10.82
3009.205 9.85 9.03 8.32 7.72 7.14 6.59 6.03 5.55 5.17 4.81
3047.785 4.46 4.12 3.74 3.39 3.08 2.87 2.77 2.69 2.57 2.45
3086.364 2.35 2.26 2.15 2.03 1.96 1.88 1.81 1.73 1.68 1.65
3124.944 1.59 1.51 1.39 1.35 1.31 1.22 1.15 1.09 1.02 1
3163.524 0.974 0.9297 0.9524 0.9371 0.889 0.8471 0.8126 0.7779 0.682 0.6412
3202.103 0.6405 0.5204 0.4074 0.5008 0.559 0.4816 0.4649 0.4698 0.4408 0.3894
3240.683 0.4066 0.3974 0.3651 0.4014 0.3647 0.2897 0.2905 0.2879 0.2686 0.2647
3279.262 0.2612 0.2725 0.2909 0.2938 0.2414 0.2347 0.2664 0.2751 0.2502 0.2491
3317.842 0.2202 0.2039 0.2474 0.2934 0.346 0.3525 0.3626 0.3338 0.3303 0.3227
3356.421 0.267 0.2787 0.2784 0.2791 0.3062 0.3057 0.2692 0.2727 0.2879 0.2686
3395.001 0.3244 0.402 0.4538 0.5013 0.4855 0.491 0.5923 0.6638 0.7939 0.9766
3433.580 1.13 1.26 1.42 1.55 1.51 1.42 1.26 1.07 0.9264 0.7953
3472.160 0.7429 0.7065 0.603 0.5198 0.4661 0.437 0.3906 0.3347 0.3105 0.2893
3510.740 0.2768 0.2165 0.207 0.1906 0.1986 0.2256 0.1732 0.1705 0.1617 0.1676
3549.319 0.1733 0.1383 0.1223 0.1285 0.1043 0.1189 0.1585 0.1117 0.1339 0.1842
3587.899 0.1921 0.2064 0.1824 0.1349 0.09299 0.1118 0.1521 0.0959 0.1295 0.1342
3626.478 0.07158 0.1025 0.1219 0.1394 0.1735 0.2346 0.2334 0.1538 0.09737 0.1132
3665.058 0.09083 0.1229 0.2354 0.1695 0.08185 0.136 0.1644 0.1621 0.1932 0.2439
3703.637 0.2189 0.2087 0.2209 0.2213 0.2565 0.1962 0.1806 0.2143 0.1944 0.172
3742.217 0.1802 0.2012 0.1842 0.1846 0.2196 0.2135 0.1804 0.1958 0.2537 0.2581
3780.797 0.2084 0.2042 0.2389 0.2529 0.2528 0.3122 0.3328 0.2849 0.3147 0.296
3819.376 0.2344 0.1826 0.1735 0.2671 0.2984 0.243 0.2051 0.2308 0.2489 0.2367
3857.956 0.2202 0.2326 0.316 0.3719 0.3546 0.3055 0.2404 0.2975 0.3781 0.3649
3896.535 0.3393 0.2606 0.3143 0.3811 0.2943 0.2536 0.3474 0.3811 0.3166 0.3322
3935.115 0.3979 0.3629 0.3019 0.309 0.314 0.3185 0.3316 0.3351 0.3891 0.3589
3973.694 0.3113 0.3007 0.2559 0.2821 0.3027 0.3525 0.4175 0.3721
##END=
