##TITLE=Ethyl furoate
##JCAMP-DX=4.24
##DATA TYPE=INFRARED SPECTRUM
##ORIGIN=EPA-IR VAPOR PHASE LIBRARY
##OWNER=SRD/NIST
Collection (C) 2018 copyright by the U.S. Secretary of Commerce
on behalf of the United States of America. All rights reserved.
##CAS REGISTRY NO=1335-40-6
##MOLFORM=C 7 H 8 O 3
##$NIST SOURCE=MSDC-IR
##STATE=gas
##XUNITS=1/CM
##YUNITS=ABSORBANCE
##XFACTOR=1.
##YFACTOR=0.001
##DELTAX=3.85796
##FIRSTX=501.5
##LASTX=4000.7
##FIRSTY=1.597
##MAXX=4000.7
##MINX=501.534
##MAXY=0.407277
##MINY=0
##NPOINTS=908
##XYDATA=(X++(Y..Y))
501.534 1.597 0.7235 0.216195 0.074 0 0.051 0.021 0.013 0.087 0.1082
540.114 0.1488 0.1727 0.1922 0.28634 0.385 0.5076 0.702 0.9886 1.477 2.537
578.693 3.987 5.657 7.137 9.397 12.267 11.947 10.907 11.117 10.837 10.557
617.273 10.517 10.037 8.877 7.627 6.337 5.047 3.877 3.007 2.507 2.207
655.852 2.067 1.947 1.817 1.797 1.877 2.067 2.347 2.577 2.757 2.897
694.432 2.897 2.827 2.837 2.987 3.327 4.037 5.377 7.707 11.827 18.447
733.011 28.257 41.007 54.757 70.157 91.377 100.897 97.257 97.587 89.437 73.197
771.591 58.477 45.127 33.357 24.087 17.857 14.157 12.207 11.457 11.577 12.197
810.170 13.077 14.027 14.527 14.567 14.347 13.937 12.817 11.037 9.657 8.677
848.750 8.067 8.057 8.557 9.367 10.177 11.107 12.527 15.667 20.657 22.787
887.330 22.357 22.647 18.737 11.487 7.667 7.097 7.977 10.287 14.397 20.107
925.909 24.937 27.227 27.947 26.567 22.307 17.297 13.317 10.527 8.697 7.577
964.489 7.087 7.087 7.507 8.417 9.947 12.487 16.587 23.297 34.627 52.057
1003.068 67.757 72.077 71.607 67.897 54.857 41.067 33.387 28.317 23.387 18.607
1041.648 14.737 12.257 11.287 11.607 13.227 16.727 23.417 33.617 43.157 48.277
1080.227 51.357 52.247 49.227 49.437 60.797 86.937 131.787 195.187 263.217 312.247
1118.807 328.287 306.857 245.297 166.537 104.197 67.217 47.267 37.757 37.777 49.627
1157.387 76.197 114.607 155.567 194.017 223.657 228.237 206.777 174.407 134.517 91.927
1195.966 60.107 41.937 32.697 29.077 29.287 33.557 43.317 56.737 65.647 67.177
1234.546 64.777 55.297 40.857 32.097 30.927 34.447 42.447 56.547 79.557 115.177
1273.125 166.937 233.757 307.727 372.757 407.277 398.127 348.597 272.177 187.187 118.777
1311.705 77.907 54.587 39.107 28.747 22.177 18.137 15.757 14.497 13.967 14.107
1350.284 15.037 16.997 20.457 25.007 29.047 32.317 36.217 40.827 45.877 51.147
1388.864 55.097 56.177 52.507 44.107 34.917 27.297 21.337 17.737 16.127 15.437
1427.443 15.187 15.187 15.407 15.857 16.697 18.067 20.357 23.747 28.837 35.567
1466.023 44.717 57.607 72.877 83.347 86.167 82.797 71.767 55.337 38.917 27.557
1504.603 21.317 16.487 12.767 10.347 9.047 8.257 7.747 7.357 7.137 7.247
1543.182 7.777 8.857 10.847 14.347 20.377 29.007 39.087 50.447 60.657 66.347
1581.762 65.647 59.237 47.757 33.787 21.587 14.017 10.627 9.457 9.307 9.667
1620.341 10.127 10.557 11.027 11.277 11.167 10.907 10.627 10.397 10.377 10.457
1658.921 10.407 10.287 10.167 10.087 10.107 10.477 11.397 12.877 14.687 16.957
1697.500 19.887 23.637 28.637 36.147 47.247 64.147 88.197 119.607 157.257 192.807
1736.080 219.647 240.937 258.357 261.647 253.317 235.547 211.167 190.167 160.327 115.727
1774.659 76.237 49.707 32.027 21.027 14.887 11.657 9.987 9.057 8.417 7.927
1813.239 7.487 7.147 6.857 6.597 6.347 6.037 5.647 5.247 4.877 4.537
1851.819 4.257 4.077 3.967 3.907 3.897 3.907 3.937 3.967 3.957 3.897
1890.398 3.757 3.537 3.227 2.947 2.717 2.537 2.387 2.307 2.297 2.337
1928.978 2.397 2.457 2.507 2.507 2.437 2.307 2.157 2.037 1.967 2.017
1967.557 2.137 2.297 2.497 2.677 2.747 2.697 2.547 2.347 2.147 1.987
2006.137 1.877 1.797 1.727 1.687 1.667 1.657 1.677 1.717 1.777 1.827
2044.716 1.847 1.827 1.807 1.787 1.747 1.717 1.727 1.777 1.897 2.107
2083.296 2.297 2.417 2.487 2.477 2.407 2.287 2.187 2.097 1.967 1.817
2121.875 1.667 1.547 1.467 1.387 1.347 1.347 1.377 1.427 1.437 1.417
2160.455 1.367 1.247 1.1383 1.0572 0.9509 0.9157 0.9242 0.9489 1.0208 1.0904
2199.035 1.1639 1.257 1.327 1.417 1.517 1.597 1.647 1.667 1.647 1.627
2237.614 1.557 1.467 1.397 1.297 1.1879 1.0797 0.9961 0.9398 0.9105 0.9265
2276.194 0.9513 0.9956 1.0696 1.138 1.1838 1.1984 1.159 1.086 1.0153 0.948
2314.773 0.8793 0.8452 0.8678 0.9001 0.9445 0.9946 1.0037 1.0003 0.9987 0.9747
2353.353 0.9346 0.9159 0.8836 0.8502 0.856 0.9044 0.9999 1.1231 1.287 1.497
2391.932 1.707 1.867 1.977 2.007 1.937 1.797 1.607 1.407 1.257 1.1179
2430.512 1.0033 0.9557 0.9408 0.9848 1.1061 1.247 1.397 1.527 1.557 1.547
2469.092 1.497 1.347 1.1787 1.0609 1.0101 1.0185 1.0295 1.0017 0.9633 0.9304
2507.671 0.8655 0.8073 0.7621 0.6842 0.5866 0.5309 0.5275 0.5455 0.5962 0.6963
2546.251 0.7901 0.9033 1.0308 1.0963 1.0813 1.0202 0.9244 0.823 0.7477 0.7394
2584.830 0.7554 0.729 0.7251 0.7299 0.7229 0.6922 0.6409 0.5979 0.5825 0.5861
2623.410 0.5836 0.5841 0.6327 0.7338 0.8733 1.0316 1.1735 1.277 1.297 1.237
2661.989 1.1183 0.9415 0.7893 0.658 0.5502 0.5075 0.4837 0.4546 0.4786 0.5421
2700.569 0.5395 0.5443 0.5947 0.6443 0.6634 0.6692 0.6935 0.7594 0.8634 0.9879
2739.148 1.1049 1.267 1.457 1.657 1.887 2.077 2.237 2.327 2.317 2.287
2777.728 2.207 2.057 1.957 1.907 1.847 1.817 1.847 1.927 1.997 2.097
2816.308 2.227 2.347 2.447 2.587 2.787 3.037 3.327 3.717 4.167 4.637
2854.887 5.157 5.727 6.307 6.887 7.597 8.517 9.607 10.587 11.217 11.647
2893.467 11.887 12.037 12.447 13.197 14.037 14.617 14.967 15.267 15.807 17.057
2932.046 19.537 23.317 27.207 29.767 30.827 30.577 29.177 27.937 28.307 30.387
2970.626 34.037 39.747 47.027 52.977 55.467 55.187 51.907 44.937 37.057 30.737
3009.205 25.827 21.667 17.757 14.357 11.637 9.527 7.947 6.757 5.817 5.047
3047.785 4.407 3.907 3.507 3.137 2.807 2.547 2.357 2.217 2.177 2.167
3086.364 2.087 2.027 1.937 1.877 1.877 1.877 1.917 2.067 2.437 3.017
3124.944 3.467 3.607 3.517 3.247 2.747 2.257 2.077 2.067 1.997 1.847
3163.524 1.607 1.367 1.1591 1.0143 0.9392 0.885 0.8791 0.8677 0.8355 0.8725
3202.103 0.8801 0.9009 0.967 0.9493 0.9955 1.0833 1.0926 1.0689 1.0438 0.9465
3240.683 0.7769 0.6303 0.4585 0.30283 0.22388 0.1927 0.1789 0.1299 0.1129 0.1254
3279.262 0.1122 0.1206 0.1649 0.174 0.1467 0.20558 0.26478 0.29921 0.3611 0.4062
3317.842 0.5104 0.583 0.543 0.5092 0.5048 0.4377 0.3591 0.28782 0.20259 0.1825
3356.421 0.20173 0.1692 0.1236 0.128 0.1163 0.1236 0.1564 0.20325 0.27146 0.30546
3395.001 0.30301 0.30244 0.3138 0.3315 0.3317 0.3701 0.4278 0.5162 0.6295 0.7639
3433.580 0.9056 1.0443 1.287 1.557 1.747 1.897 2.067 2.097 1.987 1.887
3472.160 1.797 1.707 1.657 1.707 1.727 1.757 1.767 1.697 1.577 1.427
3510.740 1.247 1.0266 0.8237 0.6871 0.614 0.5446 0.4772 0.4648 0.3885 0.27708
3549.319 0.22857 0.1948 0.1481 0.099 0.105 0.1707 0.1732 0.1474 0.1285 0.134
3587.899 0.1519 0.1393 0.093 0.042 0.07 0.072 0.026 0.069 0.075 0.05
3626.478 0.071 0.1158 0.1349 0.069 0.038 0.02 0.042 0.082 0.077 0.091
3665.058 0.098 0.061 0.029 0.045 0.077 0.104 0.1209 0.083 0.076 0.104
3703.637 0.083 0.086 0.1116 0.077 0.103 0.1671 0.1531 0.1517 0.1638 0.1469
3742.217 0.1322 0.132 0.19946 0.2496 0.213633 0.1899 0.1617 0.1718 0.1906 0.1936
3780.797 0.1966 0.20498 0.1827 0.1682 0.23323 0.21922 0.1875 0.23133 0.209869 0.1946
3819.376 0.23734 0.23592 0.25635 0.26144 0.25079 0.25736 0.24085 0.1861 0.1814 0.24667
3857.956 0.25278 0.186 0.1716 0.216715 0.19903 0.1893 0.1846 0.1607 0.1233 0.157
3896.535 0.1881 0.1662 0.1919 0.1763 0.1196 0.1496 0.1824 0.163 0.1786 0.1881
3935.115 0.2184 0.211938 0.2381 0.24818 0.25413 0.2934 0.30271 0.3428 0.3664 0.3383
3973.694 0.3421 0.4434 0.4836 0.5161 0.5632 0.6218 0.7259 0.9029
##END=
