##TITLE=1-Pentadecene
##JCAMP-DX=4.24
##DATA TYPE=INFRARED SPECTRUM
##ORIGIN=NIST Mass Spectrometry Data Center
##OWNER=NIST Standard Reference Data Program
Collection (C) 2018 copyright by the U.S. Secretary of Commerce
on behalf of the United States of America. All rights reserved.
##CAS REGISTRY NO=13360-61-7
##MOLFORM=C 15 H 30
##$NIST SOURCE=MSDC-IR
##SPECTROMETER/DATA SYSTEM=HP-GC/MS/IRD
##STATE=gas
##XUNITS=1/CM
##YUNITS=ABSORBANCE
##XFACTOR=1.0
##YFACTOR=0.000007300
##DELTAX=4.0
##FIRSTX=550.0
##LASTX=3846.0
##FIRSTY=0.000066
##MAXX=3846
##MINX=550
##MAXY=0.073
##MINY=0
##NPOINTS=825
##XYDATA=(X++(Y..Y))
550.0 9 17 9 12 22 15 14 13 11 20
590.0 26 24 33 38 38 43 53 63 75 83
630.0 89 88 77 70 64 54 52 53 45 38
670.0 41 40 38 35 32 37 55 67 81 102
710.0 121 133 145 148 143 134 118 106 102 95
750.0 87 83 76 72 67 61 61 56 49 50
790.0 48 48 49 49 51 47 44 45 48 56
830.0 56 50 56 65 67 73 81 86 90 97
870.0 106 114 124 143 168 198 245 304 391 513
910.0 623 650 567 447 350 283 233 203 179 161
950.0 152 147 143 141 144 150 165 186 216 255
990.0 285 287 261 224 195 168 144 125 110 102
1030.0 91 82 79 79 72 63 62 68 70 68
1070.0 68 67 63 58 58 57 49 45 47 45
1110.0 42 38 34 35 34 33 36 31 27 29
1150.0 29 32 33 35 32 30 34 32 30 31
1190.0 33 38 40 40 43 41 40 44 46 48
1230.0 55 55 52 54 61 67 68 68 72 83
1270.0 91 91 92 99 109 123 138 147 152 156
1310.0 154 147 141 139 143 155 171 194 223 244
1350.0 260 262 249 229 213 198 180 172 171 161
1390.0 142 126 117 118 123 130 141 154 166 181
1430.0 211 261 330 413 497 569 633 685 690 636
1470.0 538 419 310 227 172 136 109 92 79 71
1510.0 63 56 51 46 40 39 40 41 37 32
1550.0 30 30 32 30 29 28 28 29 29 32
1590.0 32 33 36 43 49 56 70 87 106 133
1630.0 172 221 265 273 228 164 111 73 56 46
1670.0 35 28 24 24 20 15 16 16 14 10
1710.0 9 10 10 7 6 6 8 9 8 7
1750.0 8 5 2 4 4 6 8 7 7 6
1790.0 10 13 14 18 21 25 33 43 57 66
1830.0 64 56 45 34 26 23 18 14 11 8
1870.0 7 6 5 4 3 4 4 3 4 4
1910.0 5 3 3 2 0 0 0 1 3 2
1950.0 3 4 5 7 8 10 13 11 10 7
1990.0 7 5 3 5 7 8 9 11 11 11
2030.0 12 13 14 13 14 13 11 11 9 9
2070.0 9 9 10 9 8 6 4 6 7 8
2110.0 6 3 3 3 2 6 8 8 7 7
2150.0 9 8 7 7 6 6 7 8 9 8
2190.0 8 9 8 11 12 11 11 10 9 7
2230.0 6 9 8 10 13 10 9 12 11 10
2270.0 9 10 11 12 12 11 9 11 15 12
2310.0 11 12 12 17 18 18 16 14 16 16
2350.0 15 15 15 14 17 17 16 15 16 14
2390.0 12 13 16 17 16 15 16 16 14 15
2430.0 17 16 15 14 14 13 14 15 18 21
2470.0 18 19 19 18 16 19 21 20 21 22
2510.0 22 23 27 28 30 31 33 35 36 35
2550.0 36 35 34 35 33 35 40 42 45 46
2590.0 46 45 46 49 53 55 57 61 61 63
2630.0 64 64 71 74 74 79 81 83 88 94
2670.0 99 102 104 105 105 105 103 99 97 96
2710.0 97 95 95 96 98 100 100 104 110 115
2750.0 118 120 124 128 134 142 150 160 173 185
2790.0 199 217 237 258 283 313 350 396 450 510
2830.0 586 691 839 1054 1377 1865 2525 3203 3612 3575
2870.0 3208 2761 2408 2193 2077 2037 2104 2305 2645 3114
2910.0 3714 4481 5523 6936 8561 9798 10000 9086 7531 5889
2950.0 4531 3601 3068 2812 2649 2407 2037 1647 1348 1130
2990.0 968 851 761 700 644 576 503 437 383 345
3030.0 317 296 279 267 260 253 257 267 282 302
3070.0 331 363 411 471 493 438 338 256 200 160
3110.0 138 126 110 99 95 91 86 73 67 68
3150.0 67 64 63 58 56 56 53 49 47 46
3190.0 46 43 40 40 39 35 34 31 29 27
3230.0 29 31 27 25 24 21 20 21 17 15
3270.0 17 20 18 19 21 18 21 18 15 14
3310.0 17 21 17 17 21 20 20 18 14 18
3350.0 22 23 19 21 22 18 17 21 20 15
3390.0 11 15 18 16 18 20 17 20 21 19
3430.0 16 11 14 17 17 20 17 14 16 13
3470.0 11 13 15 15 13 12 14 11 9 14
3510.0 11 6 9 12 10 12 16 16 11 7
3550.0 8 9 10 12 14 14 13 13 17 15
3590.0 16 21 23 21 21 23 21 23 26 23
3630.0 24 25 26 33 31 28 30 29 27 26
3670.0 25 23 29 34 30 30 31 30 29 30
3710.0 31 26 25 22 18 26 31 32 33 31
3750.0 32 32 32 30 30 31 29 28 33 32
3790.0 28 27 26 31 36 32 32 34 34 36
3830.0 33 31 30 32 34
##END=
