##TITLE=Phenyl diphenylphosphinite
##JCAMP-DX=4.24
##DATA TYPE=INFRARED SPECTRUM
##ORIGIN=EPA-IR VAPOR PHASE LIBRARY
##OWNER=SRD/NIST
Collection (C) 2018 copyright by the U.S. Secretary of Commerce
on behalf of the United States of America. All rights reserved.
##CAS REGISTRY NO=13360-92-4
##MOLFORM=C 18 H 15 O P
##$NIST SOURCE=MSDC-IR
##STATE=gas
##XUNITS=1/CM
##YUNITS=ABSORBANCE
##XFACTOR=1.
##YFACTOR=0.001
##DELTAX=1.92898
##FIRSTX=549.8
##LASTX=4000.7
##FIRSTY=5.582
##MAXX=4000.7
##MINX=549.759
##MAXY=0.238862
##MINY=0
##NPOINTS=1790
##XYDATA=(X++(Y..Y))
549.759 5.582 5.182 4.322 4.402 5.132 5.882 7.022 8.102 8.292 8.382
569.049 9.212 10.102 10.302 9.572 7.552 5.772 4.702 4.362 4.462 4.112
588.339 3.342 3.292 3.432 3.232 2.612 2.722 2.962 3.232 3.642 3.782
607.628 4.432 4.472 4.602 4.342 3.682 4.092 4.992 5.162 4.252 3.772
626.918 3.562 3.362 3.732 3.862 3.872 3.842 3.732 3.572 3.372 3.632
646.208 4.242 4.362 4.682 5.652 6.732 7.712 8.362 9.682 11.392 12.762
665.498 14.242 16.462 18.862 21.322 24.212 27.282 30.642 34.302 39.112 45.212
684.787 52.362 60.642 69.542 77.872 84.302 87.472 86.512 82.662 76.552 69.162
704.077 62.532 57.382 54.502 54.232 55.462 56.812 58.372 59.752 59.272 57.492
723.367 55.102 52.132 49.992 49.612 50.252 51.782 53.372 54.472 55.382 55.472
742.657 55.172 54.872 54.242 53.312 52.142 50.652 48.662 46.782 44.482 41.542
761.947 38.752 35.602 33.092 31.182 28.462 25.822 23.902 21.732 19.132 17.012
781.236 15.712 13.642 11.452 9.802 8.912 8.362 7.762 7.612 7.232 7.482
800.526 8.152 8.752 9.432 10.092 10.852 11.652 11.592 11.442 11.312 10.112
819.816 8.872 8.302 7.502 6.862 6.922 6.822 6.772 7.172 7.752 8.632
839.106 9.822 10.952 12.292 14.552 17.512 21.202 26.492 33.752 43.902 58.292
858.395 78.382 104.302 134.382 163.762 186.352 198.772 197.182 181.842 156.512 126.812
877.685 98.922 75.742 58.352 46.042 37.832 32.162 27.582 24.382 21.612 19.332
896.975 17.652 16.192 15.242 14.362 13.562 12.522 11.762 10.812 9.502 8.372
916.265 7.642 7.242 6.902 6.312 5.652 5.422 4.942 4.652 4.572 4.102
935.555 3.922 3.772 3.452 4.012 3.982 3.542 3.622 3.822 4.012 3.802
954.844 3.672 3.912 4.182 4.052 3.862 4.032 3.742 3.732 4.332 4.622
974.134 4.892 4.832 4.832 4.842 4.992 5.292 5.612 6.292 7.342 8.632
993.424 9.772 11.102 12.222 12.312 11.562 10.012 7.772 6.092 5.502 5.942
1012.714 6.402 6.802 9.452 14.292 18.402 21.372 22.612 21.452 19.052 15.402
1032.003 10.902 7.252 4.762 3.862 4.072 4.002 4.682 4.842 4.802 4.692
1051.293 4.672 6.612 7.672 7.782 9.322 10.092 10.712 12.152 12.392 12.782
1070.583 14.022 13.912 13.842 15.212 16.322 18.222 21.262 24.762 27.732 30.412
1089.873 32.612 33.982 36.552 37.092 35.482 34.482 32.252 29.512 27.102 24.352
1109.163 21.532 18.442 15.252 12.992 11.782 10.632 10.572 9.412 8.812 9.002
1128.452 8.732 8.502 7.672 7.012 6.242 7.872 8.422 7.482 8.762 9.172
1147.742 10.062 11.282 11.872 14.352 18.272 23.312 29.352 35.052 38.072 38.562
1167.032 37.462 33.312 26.392 20.872 19.222 21.462 25.042 27.742 29.712 30.822
1186.322 32.232 32.842 33.762 36.342 38.772 43.612 52.062 61.972 75.562 96.572
1205.611 123.512 153.602 184.962 212.292 231.712 238.862 234.942 223.532 208.422 193.322
1224.901 179.182 164.372 146.662 127.282 102.452 76.782 56.622 42.632 34.462 28.842
1244.191 24.682 21.772 19.642 17.912 16.302 15.702 15.782 15.902 15.472 14.692
1263.481 15.092 15.302 15.532 15.742 15.422 15.562 15.762 15.832 15.112 14.482
1282.771 14.352 13.882 13.262 12.472 11.902 11.722 11.472 11.112 10.872 10.522
1302.060 10.122 9.682 9.082 8.412 7.752 7.422 7.142 7.142 7.532 7.552
1321.350 7.472 7.682 7.922 7.922 7.822 7.572 7.062 6.542 5.992 5.462
1340.640 5.062 4.562 4.162 4.012 3.832 3.702 3.672 3.622 3.792 3.782
1359.930 3.782 4.002 3.932 3.942 4.142 4.102 4.012 3.992 4.102 4.092
1379.219 4.012 4.112 4.122 4.182 4.232 4.252 4.232 4.282 4.342 4.302
1398.509 4.282 4.252 4.232 4.302 4.452 4.802 5.102 5.392 5.892 6.532
1417.799 7.302 8.242 9.052 10.352 12.472 14.672 17.162 19.632 21.652 23.032
1437.089 22.982 21.282 19.082 16.892 15.082 13.662 12.562 12.082 11.952 12.362
1456.378 13.332 14.442 16.222 18.712 21.602 24.862 28.332 32.122 36.032 40.062
1475.668 44.382 49.872 57.132 68.042 84.012 105.462 130.662 153.522 165.872 163.432
1494.958 147.062 118.992 86.352 57.782 38.962 28.412 21.682 17.342 14.492 12.192
1514.248 10.832 9.722 8.712 8.062 7.642 7.232 6.892 6.442 6.272 6.342
1533.538 6.192 5.912 6.062 6.022 5.732 6.172 6.722 6.972 7.292 7.792
1552.827 8.312 9.172 10.282 11.642 13.272 15.332 17.822 20.982 24.742 28.732
1572.117 32.892 37.062 41.122 45.532 50.902 56.932 63.322 70.832 78.942 85.792
1591.407 90.642 92.342 89.272 81.602 69.852 55.972 42.412 30.962 22.622 16.672
1610.697 12.702 10.542 9.442 8.262 7.002 6.412 5.932 5.522 5.392 5.122
1629.986 5.012 4.752 4.532 4.422 4.352 4.392 4.532 4.662 4.772 4.942
1649.276 4.902 4.722 4.672 4.892 4.862 4.792 4.672 4.412 4.252 3.952
1668.566 3.562 3.352 3.262 3.092 3.042 2.962 2.852 2.792 2.642 2.722
1687.856 2.692 2.612 2.722 2.812 2.882 2.992 3.022 2.952 2.742 2.642
1707.146 2.742 2.782 2.932 2.922 2.972 3.082 3.172 3.072 2.962 2.962
1726.435 2.902 3.002 2.892 2.682 2.622 2.772 2.832 2.712 2.712 2.692
1745.725 2.882 3.102 3.252 3.592 3.822 3.752 3.762 4.082 4.352 4.492
1765.015 4.542 4.492 4.372 4.302 4.342 4.282 4.112 3.832 3.662 3.632
1784.305 3.542 3.592 3.522 3.542 3.762 3.942 4.502 5.142 5.492 5.612
1803.594 5.752 5.932 5.622 5.022 4.512 4.132 3.872 3.632 3.502 3.552
1822.884 3.392 3.292 3.342 3.242 3.232 3.162 3.022 3.182 3.222 3.032
1842.174 2.902 2.972 2.982 2.942 3.102 3.142 3.282 3.552 3.652 3.782
1861.464 3.832 3.862 3.962 3.852 3.852 4.082 4.262 4.392 4.582 4.742
1880.754 4.922 5.022 5.072 5.272 5.422 5.402 5.302 5.152 4.932 4.602
1900.043 4.222 3.852 3.732 3.662 3.622 3.792 3.762 3.692 3.832 4.002
1919.333 4.162 4.402 4.552 4.712 4.902 5.092 5.352 5.502 5.852 6.322
1938.623 6.632 6.742 6.892 7.012 6.842 6.602 6.322 5.982 5.732 5.762
1957.913 5.682 5.292 5.202 5.142 4.532 3.872 3.512 3.162 2.912 2.742
1977.202 2.532 2.272 2.082 2.122 2.082 1.932 2.062 2.112 1.8618 1.6822
1996.492 1.6928 1.6221 1.5383 1.451 1.3767 1.4653 1.333 1.2661 1.3797 1.3873
2015.782 1.4674 1.4969 1.5307 1.7791 1.727 1.6224 1.6871 1.7947 1.8174 1.7735
2035.072 1.892 1.8112 1.766 1.7224 1.6388 1.7853 1.8437 1.5463 1.354 1.5833
2054.362 1.5846 1.5701 1.7992 1.7936 1.8433 2.012 1.922 1.759 1.7391 1.6724
2073.651 1.7799 1.912 1.8797 1.902 1.962 2.072 2.052 1.8166 1.7228 1.8664
2092.941 1.7907 1.7099 1.6693 1.5567 1.5527 1.4795 1.1917 0.92885 1.0273 1.149
2112.231 1.0805 1.1981 1.3644 1.3525 1.1794 0.94823 0.9984 1.1035 1.0452 0.95969
2131.521 1.0141 1.0433 0.94626 0.96717 1.0041 0.999 1.1447 1.1724 0.95626 1.0238
2150.810 1.2271 1.1584 1.1848 1.3547 1.354 1.3578 1.4219 1.2646 1.2289 1.2911
2170.100 1.1982 1.0615 1.1193 1.189 1.1035 1.0509 1.06 1.1957 1.3412 1.405
2189.390 1.58 1.5486 1.295 1.3589 1.3457 1.2302 1.2724 1.3002 1.2742 1.114
2208.680 1.1261 1.2306 1.397 1.5083 1.3301 1.3964 1.3351 1.1029 1.177 1.1855
2227.970 1.1366 1.1018 0.96463 1.0249 1.0182 0.98521 1.0145 1.0082 1.0172 1.0228
2247.259 1.062 1.0195 0.94933 0.743 0.746 0.95073 1.0433 1.1539 1.2721 1.263
2266.549 1.0952 1.0577 1.0841 1.0318 0.96184 1.0408 1.1164 1.1818 1.0965 1.0193
2285.839 1.076 0.96231 0.8799 0.753 0.8626 1.1262 1.0804 1.0828 1.2679 1.3535
2305.129 1.626 1.8255 1.7857 2.092 2.182 1.8867 1.8888 2.132 2.222 2.062
2324.418 1.902 1.6987 1.695 1.8702 1.8372 1.8464 1.8835 1.902 1.922 1.902
2343.708 1.8557 1.83 1.668 1.4279 1.3355 1.4854 1.6577 1.6629 1.7108 1.5369
2362.998 1.684 1.942 1.7785 1.6352 1.7596 1.952 1.883 1.8831 1.8757 1.8166
2382.288 1.7382 1.7501 1.7045 1.7191 1.8078 1.7598 1.7953 1.7449 1.8561 1.922
2401.578 1.982 2.062 2.092 2.102 2.062 2.252 2.392 2.542 2.742 2.892
2420.867 3.022 3.022 3.152 2.932 2.962 3.212 3.192 3.342 3.282 3.062
2440.157 2.772 2.682 2.392 2.102 2.192 2.132 2.042 1.992 2.062 2.012
2459.447 1.8101 1.7003 1.7858 1.8849 2.072 1.7824 1.2117 1.2248 1.4605 1.3245
2478.737 1.2465 1.3531 1.2861 1.3591 1.0337 0.9049 1.2486 1.2265 0.97163 0.8787
2498.026 1.0805 1.3901 1.3622 0.97534 0.9179 1.1528 1.1967 1.1642 1.2515 0.98084
2517.316 0.9417 1.2146 1.1809 0.9935 0.92771 1.0497 1.1014 1.1955 1.1471 1.148
2536.606 1.273 1.2135 1.2142 1.3384 1.3833 1.324 1.2662 1.3828 1.618 1.7653
2555.896 1.8428 1.7768 1.6875 1.7556 1.8813 1.912 1.992 1.942 1.5684 1.3513
2575.186 1.1439 1.1502 1.2833 1.3515 1.5642 1.3731 1.1011 1.2052 1.3554 1.4479
2594.475 1.1175 0.698 0.791 0.91909 1.0168 1.254 1.3511 1.2421 1.2331 1.3147
2613.765 1.4107 1.4434 1.5672 1.5165 1.2623 1.4865 1.4136 1.148 1.2388 1.1415
2633.055 0.92781 1.0587 1.0807 0.9807 1.055 1.1473 0.9969 0.701 0.7949 0.891994
2652.345 1.112 1.2711 1.1032 1.1284 1.2368 1.1784 1.1233 1.0188 1.1747 1.3274
2671.634 1.3299 1.3197 1.4974 1.6067 1.2049 1.1769 1.3726 1.3279 1.3079 1.2945
2690.924 1.2518 1.2197 1.0648 0.93907 0.88978 0.9976 1.0458 1.1503 0.8521 0.344
2710.214 0.579 1.0392 1.0541 0.88353 0.728 0.743 0.9488 0.95592 0.676 0.601
2729.504 0.687 0.88396 1.0313 0.92241 0.894439 0.8559 0.77 0.581 0.582 0.8572
2748.794 0.98883 0.91256 0.95308 0.95516 0.8869 0.92556 0.9692 1.0834 1.2056 0.92337
2768.083 0.667 0.615 0.8631 0.8368 0.547 0.8433 1.1252 1.152 1.0907 1.0044
2787.373 0.891457 0.8046 0.766 0.73 0.717 1.0854 1.3029 1.2929 1.4468 1.1946
2806.663 0.94579 0.8318 0.789 0.769 0.95545 1.3008 1.2044 0.99173 0.94441 0.99124
2825.953 1.1689 1.0485 0.8171 0.8593 0.95839 1.1638 1.0236 0.99121 1.2508 1.272
2845.242 1.1201 0.92336 0.8625 1.0324 1.0897 1.1447 1.1919 1.4502 1.6601 1.561
2864.532 1.5116 1.2957 1.4215 1.6082 1.1307 1.0953 1.3997 1.3001 1.1335 1.1179
2883.822 1.3836 1.2116 1.0328 1.2559 1.4706 1.2662 1.149 1.455 1.3241 1.2305
2903.112 1.2532 1.1846 1.1333 1.2718 1.0627 0.93929 1.3212 1.2875 1.1885 1.2629
2922.401 1.1121 1.3027 1.8444 1.1796 0.9066 1.2575 1.3032 1.3008 1.3247 1.471
2941.691 1.162 1.2881 1.3782 1.2625 1.4604 1.3674 1.4012 1.4953 1.158 1.0847
2960.981 1.5103 1.7118 1.842 1.932 1.6653 1.6493 1.8249 1.7584 1.8427 2.072
2980.271 2.442 3.052 3.092 2.922 3.002 3.452 4.502 5.352 5.942 6.752
2999.561 7.952 8.992 10.152 11.472 12.752 14.062 15.122 15.872 16.732 17.492
3018.850 17.662 17.802 17.472 17.072 17.122 17.472 18.362 19.202 20.872 22.602
3038.140 23.592 24.852 25.852 26.712 27.582 28.902 30.582 33.252 38.212 44.802
3057.430 53.032 61.862 69.452 74.452 75.912 74.352 71.602 67.992 64.252 62.502
3076.720 61.372 58.752 54.772 49.812 44.012 38.662 34.662 31.112 27.622 24.442
3096.009 21.622 18.982 17.072 15.012 12.362 10.182 8.702 7.462 6.292 5.652
3115.299 5.152 4.672 4.022 3.582 3.512 3.292 3.312 3.132 2.832 3.112
3134.589 3.492 3.472 3.432 3.802 4.022 4.052 4.082 3.302 2.492 2.472
3153.879 2.462 2.132 1.8737 1.8646 1.8633 1.5048 1.3105 1.7723 1.6701 1.6276
3173.169 1.8679 1.3024 0.7972 1.2539 1.3583 1.3536 1.2731 0.741 0.88538 0.900568
3192.458 0.8651 1.0597 1.0102 0.91659 1.1346 1.0598 0.774 0.614 0.521 0.683
3211.748 0.665 0.749 0.549 0.388 0.666 0.455 0.248 0.431 0.601 0.65
3231.038 0.62 0.433 0.653 0.8577 0.97944 1.0428 0.98525 0.788 0.656 0.747
3250.328 0.553 0.8475 0.8017 0.784 1.1926 1.2366 0.8258 0.58 0.89372 1.2308
3269.617 1.007 0.781 0.758 0.798 0.98919 0.645 0.747 1.1669 1.0001 0.999
3288.907 0.88614 0.628 0.58 0.223 0.091 0.19 0.297 0.596 0.619 0.482
3308.197 0.176 0.074 0.249 0.524 0.468 0.305 0.241 0.54 0.8845 0.777
3327.487 0.415 0.177 0.747 1.3091 1.18 0.8477 0.507 0.52 0.653 0.475
3346.777 0.535 0.895078 0.8371 0.576 0.718 0.591 0.225 0 0.425 1.1362
3366.066 0.8138 0.459 0.851 1.0521 0.96318 0.8243 0.737 0.8259 1.0148 1.0683
3385.356 0.8568 0.55 0.8109 0.88896 0.575 0.723 0.8129 0.557 0.394 0.471
3404.646 0.539 0.523 0.721 0.718 0.341 0.465 0.58 0.649 0.584 0.528
3423.936 0.808 0.8437 0.754 0.8349 0.96172 0.745 0.706 0.524 0.8365 1.0585
3443.225 0.442 0.483 0.612 0.719 0.8331 0.65 0.636 0.88531 0.753 0.355
3462.515 0.701 0.562 0.641 1.1522 0.703 0.626 0.74 0.823 1.0951 0.707
3481.805 0.555 1.0578 0.95897 0.511 0.448 0.758 0.681 0.516 0.705 0.565
3501.095 0.457 0.90997 1.3305 1.2852 1.2654 1.0662 1.1173 1.0528 0.8642 1.0568
3520.385 0.92678 0.514 0.52 0.698 0.664 0.92812 0.67 0.243 0.512 0.8756
3539.674 0.95457 0.513 0.227 0.508 0.8761 1.1422 1.1366 0.92425 0.91633 0.9141
3558.964 0.97903 1.2539 1.1347 0.402 0.566 1.2414 0.891703 1.0024 0.94649 0.8227
3578.254 0.721 0.444 0.638 0.8265 0.98677 0.97744 0.681 0.685 0.95972 0.92686
3597.544 0.8727 0.90324 1.0167 1.2686 1.6218 1.4465 1.2065 1.0211 0.708 0.8459
3616.833 1.0482 0.8748 0.92604 0.891529 0.91136 0.697 0.568 0.88552 0.579 0.575
3636.123 0.90391 1.1817 1.068 0.91092 1.1368 1.0932 0.9391 0.9957 1.3604 1.2592
3655.413 1.0427 1.0493 1.1985 1.4668 1.4756 1.2126 0.752 0.487 0.676 1.0204
3674.703 0.96 0.94953 1.0312 1.1244 1.1602 1.1784 1.2424 0.98756 0.605 0.679
3693.993 0.96545 1.0293 0.8557 0.94662 1.1328 0.8612 1.1036 1.2185 0.962 0.676
3713.282 0.395 0.466 0.459 0.413 0.586 1.3445 1.4317 0.616 0.48 0.633
3732.572 0.683 0.735 0.8394 1.0147 1.2118 1.41 1.3214 1.3903 1.5631 1.719
3751.862 1.728 1.4749 1.1967 1.1143 1.4835 1.5459 1.2122 1.044 1.0863 1.1116
3771.152 1.2235 0.9933 0.633 0.94645 1.1959 1.0405 1.0384 1.2843 1.1341 0.548
3790.441 0.58 0.882 1.1714 1.1602 0.95499 1.1666 0.616 0.428 0.744 0.441
3809.731 0.289 0.47 0.602 0.467 0.97956 1.1035 0.8102 0.98105 0.765 0.392
3829.021 0.284 0.706 0.8414 0.785 0.93177 0.97154 0.91946 0.656 0.8075 0.7928
3848.311 1.0057 1.6388 1.3246 0.669 0.6 1.1761 1.4577 1.0133 0.324 0.643
3867.601 0.8267 0.372 0.3 0.419 0.90593 0.95652 1.1776 1.2376 0.631 0.635
3886.890 0.746 0.712 0.755 0.682 0.8394 0.8459 0.712 1.0587 1.3903 0.98848
3906.180 0.534 0.447 0.364 0.435 0.504 0.565 0.8761 1.1733 1.3039 0.8353
3925.470 0.459 0.92146 1.017 0.682 0.8234 0.898828 0.8197 0.900532 1.1472 1.2467
3944.760 0.90489 0.657 0.528 0.608 0.900316 0.8049 0.8434 1.0853 1.0967 1.2455
3964.049 1.1193 0.93327 1.183 1.4999 1.4462 0.8756 0.421 0.382 0.642 1.0784
3983.339 1.6098 1.4894 1.1918 1.2761 1.5847 1.4893 1.1894 1.2741 1.0605 0.88862
##END=
