##TITLE=Cinnamaldehyde oxime
##JCAMP-DX=4.24
##DATA TYPE=INFRARED SPECTRUM
##ORIGIN=EPA-IR VAPOR PHASE LIBRARY
##OWNER=SRD/NIST
Collection (C) 2018 copyright by the U.S. Secretary of Commerce
on behalf of the United States of America. All rights reserved.
##CAS REGISTRY NO=13372-81-1
##MOLFORM=C 9 H 9 N O
##$NIST SOURCE=MSDC-IR
##STATE=gas
##XUNITS=1/CM
##YUNITS=ABSORBANCE
##XFACTOR=1.
##YFACTOR=0.001
##DELTAX=1.92934
##FIRSTX=549.9
##LASTX=3999.5
##FIRSTY=9.91
##MAXX=3999.53
##MINX=549.863
##MAXY=0.13604
##MINY=0
##NPOINTS=1789
##XYDATA=(X++(Y..Y))
549.863 9.91 10.79 12.26 14.59 18.3 23.91 30.15 34.14 34.21 32.81
569.156 32.81 31.26 24.78 16.83 11.4 8.63 7.36 6.77 6.46 6.28
588.450 6.33 6.34 6.24 6.2 6.18 6.26 6.23 6.04 5.9 5.76
607.743 5.74 5.69 5.65 5.62 5.55 5.47 5.41 5.45 5.58 5.77
627.037 5.96 6.3 6.79 7.38 8.02 8.53 9 9.49 9.84 9.94
646.330 9.85 9.81 9.89 10.11 10.34 10.56 10.93 11.43 12.13 13.03
665.624 14.21 15.93 17.54 19.1 21.07 23.24 25.6 27.97 30.26 32.37
684.917 34.53 37.16 39.6 40.35 39.72 38.86 38.05 36.99 35.42 33.55
704.210 31.48 29.21 27.07 25.2 23.62 22.43 21.7 21.46 21.72 22.38
723.504 23.44 24.9 26.69 28.77 31.01 33.38 35.79 38.1 40.27 42.32
742.797 44.27 45.95 46.46 45.39 43.56 41.46 39.22 36.88 34.53 32.04
762.091 29.2 26.41 23.96 21.8 19.89 18.11 16.46 14.96 13.58 12.26
781.384 11.05 10.05 9.25 8.61 8.08 7.67 7.38 7.16 6.96 6.79
800.678 6.65 6.55 6.42 6.29 6.17 6.14 6.16 6.23 6.34 6.44
819.971 6.68 7.02 7.39 7.84 8.41 9.06 9.67 10.19 10.54 10.72
839.264 10.86 10.89 10.72 10.65 10.68 10.73 10.92 11.2 11.52 11.97
858.558 12.59 13.32 14.25 15.43 16.87 18.61 20.63 23.01 25.77 28.86
877.851 32.27 35.93 39.65 42.88 44.96 45.43 44.23 42.01 39.49 36.25
897.145 31.85 27.22 23.33 20.52 18.72 17.72 17.32 17.37 17.76 18.48
916.438 19.76 21.53 23.86 26.77 30.22 34.36 39.27 45.11 52.2 60.81
935.732 71.04 82.9 96.22 110.15 122.82 131.97 136.04 134.66 128.62 118.71
955.025 105.14 89.32 74.34 63.33 57.06 53.95 52.55 51.66 49.75 46
974.318 42.03 39.19 36.79 34.17 30.96 27.43 24.22 21.52 19.24 17.25
993.612 15.5 14.01 12.76 11.74 10.91 10.26 9.77 9.33 8.96 8.76
1012.905 8.76 8.85 9.01 9.33 9.78 10.33 10.81 10.99 10.85 10.56
1032.199 10.29 9.86 9.09 8.29 7.7 7.34 7.13 7.04 6.94 6.87
1051.492 6.9 6.96 7.01 7.09 7.18 7.31 7.36 7.26 7.11 6.85
1070.786 6.58 6.37 6.11 5.77 5.47 5.2 4.95 4.84 4.7 4.66
1090.079 4.7 4.7 4.75 4.79 4.77 4.78 4.85 4.89 4.94 5.02
1109.372 5.25 5.65 6.15 6.71 7.42 8.29 9.25 10.24 11.2 12.15
1128.666 12.95 13.6 14.22 14.86 15.47 16.03 16.7 17.34 17.62 17.34
1147.959 16.64 15.84 14.86 13.58 11.93 10.43 9.68 9.48 9.13 8.32
1167.253 7.36 6.6 6.2 6.01 5.85 5.51 5.14 4.78 4.68 4.62
1186.546 4.45 4.33 4.29 4.21 4.08 4.23 4.48 4.57 4.41 4.5
1205.840 4.84 5.01 5.3 5.61 5.67 6.11 6.85 7.42 8.05 8.71
1225.133 9.6 10.6 11.46 12.57 14.1 15.68 17.51 19.73 22.27 25.21
1244.426 28.44 32.49 37.42 42.31 45.5 46.01 44.91 43.3 40.61 35.68
1263.720 29.24 23.48 19.45 17.07 15.93 15.58 15.88 16.77 17.9 19.23
1283.013 20.8 22.37 23.77 24.88 25.43 25.34 24.97 24.43 23.75 22.81
1302.307 21.63 20.39 19.11 17.91 16.8 15.87 15.09 14.36 13.75 13.26
1321.600 12.83 12.49 12.27 12.02 11.63 11.15 10.68 10.22 9.8 9.31
1340.894 8.69 8.23 8.08 8 7.97 7.96 7.9 7.82 7.75 7.67
1360.187 7.68 7.68 7.29 6.79 6.55 6.4 6.36 6.42 6.43 6.6
1379.480 6.88 7.27 7.84 8.65 9.76 10.81 12.08 13.81 15.52 16.68
1398.774 17.29 17.16 16.37 15.18 13.48 11.44 9.3 7.3 5.86 5.08
1418.067 4.74 4.35 3.91 3.84 3.87 4.01 4.27 4.55 4.92 5.58
1437.361 6.09 6.29 6.72 7.19 7.55 7.88 8.02 8.15 8.4 8.68
1456.654 8.77 8.08 7.24 6.74 6.45 6.08 5.69 5.54 5.65 5.75
1475.948 5.97 6.28 6.66 7.29 8.12 9.22 10.59 12.06 13.07 13.61
1495.241 13.91 13.63 12.73 11.35 9.53 7.81 6.48 5.35 4.53 3.99
1514.534 3.67 3.51 3.33 3.39 3.22 2.94 2.91 2.747 2.6148 2.696
1533.828 2.6877 2.5422 2.6109 2.7598 2.7485 2.77 2.7228 2.5635 2.7332 2.82
1553.121 2.93 3.17 3.37 3.8 3.84 3.82 4.09 4.46 4.87 5.22
1572.415 5.48 5.74 5.95 5.95 5.96 6.01 6.04 6.08 6.17 6.39
1591.708 6.54 6.66 6.75 6.77 6.76 6.71 6.69 6.68 6.67 6.65
1611.002 6.72 6.95 7.4 7.98 8.62 9.7 11.12 12.67 14.21 15.53
1630.295 16.4 16.66 16.45 15.66 14.06 11.93 9.66 7.8 6.52 5.57
1649.588 4.86 4.64 4.57 4.11 3.73 3.55 3.44 3.32 3.09 3
1668.882 3.03 2.91 2.78 2.86 2.82 2.757 2.81 2.91 2.97 2.7488
1688.175 2.6601 2.6164 2.4857 2.6212 2.84 2.84 2.98 3 2.95 3.05
1707.469 3.04 3.13 3.31 3.53 3.72 3.85 3.75 3.6 3.6 3.59
1726.762 3.57 3.68 3.83 4.01 4.11 3.89 3.85 3.9 3.9 3.96
1746.056 3.98 4 4.1 4.09 3.89 3.97 4.02 3.96 4.06 4.04
1765.349 4.08 4.45 4.58 4.62 4.76 4.75 4.77 4.91 5.06 5.19
1784.642 5.36 5.38 5.39 5.59 5.67 5.54 5.43 5.34 5.3 5.23
1803.936 4.95 4.8 4.76 4.64 4.57 4.45 4.31 4.22 4 3.77
1823.229 3.63 3.51 3.24 3.03 2.91 2.7632 2.6836 2.6683 2.6813 2.7593
1842.523 2.95 3.04 3.07 3.18 3.3 3.43 3.59 3.78 3.99 4.22
1861.816 4.42 4.59 4.79 5.01 5.2 5.3 5.39 5.55 5.74 5.85
1881.110 5.87 5.88 5.8 5.66 5.43 5.05 4.65 4.26 3.81 3.37
1900.403 3.01 2.7168 2.495 2.4136 2.4114 2.3296 2.2694 2.3374 2.4601 2.6232
1919.696 2.7166 2.78 2.92 3.02 3.15 3.35 3.49 3.61 3.73 3.85
1938.990 3.91 3.97 4.02 3.98 3.97 3.98 3.96 3.91 3.86 3.75
1958.283 3.56 3.29 2.98 2.6948 2.4391 2.1889 1.9268 1.7161 1.621 1.56
1977.577 1.492 1.454 1.41 1.36 1.333 1.325 1.349 1.382 1.37 1.279
1996.870 1.226 1.243 1.249 1.248 1.221 1.19 1.172 1.145 1.153 1.176
2016.164 1.23 1.261 1.211 1.208 1.225 1.224 1.243 1.267 1.254 1.24
2035.457 1.259 1.264 1.273 1.288 1.278 1.24 1.241 1.273 1.257 1.232
2054.750 1.206 1.178 1.196 1.201 1.223 1.274 1.239 1.225 1.216 1.187
2074.044 1.203 1.179 1.16 1.177 1.182 1.207 1.207 1.197 1.205 1.177
2093.337 1.149 1.163 1.162 1.134 1.145 1.158 1.141 1.135 1.134 1.148
2112.631 1.137 1.116 1.128 1.115 1.111 1.118 1.12 1.107 1.107 1.124
2131.924 1.114 1.151 1.174 1.128 1.096 1.129 1.154 1.158 1.144 1.127
2151.218 1.155 1.16 1.182 1.206 1.215 1.221 1.215 1.245 1.266 1.28
2170.511 1.31 1.328 1.302 1.278 1.315 1.377 1.404 1.399 1.35 1.327
2189.804 1.364 1.39 1.397 1.396 1.432 1.458 1.448 1.431 1.474 1.482
2209.098 1.468 1.523 1.564 1.591 1.665 1.78137 1.85092 1.883 1.9111 1.9104
2228.391 1.86689 1.83742 1.80052 1.6928 1.602 1.53 1.464 1.443 1.418 1.37
2247.685 1.371 1.391 1.359 1.366 1.373 1.371 1.365 1.341 1.347 1.326
2266.978 1.295 1.335 1.363 1.342 1.345 1.381 1.406 1.391 1.407 1.431
2286.272 1.458 1.478 1.505 1.513 1.486 1.508 1.541 1.563 1.574 1.637
2305.565 1.7531 1.81809 1.9001 2.0217 2.0975 2.144 2.172 2.1943 2.2062 2.1791
2324.858 2.1226 2.0624 2.0617 2.0451 1.9994 1.9772 1.9675 2.0015 1.9862 1.9317
2344.152 1.8986 1.81616 1.7516 1.78872 1.8978 1.9751 2.0345 2.117 2.1238 2.0968
2363.445 2.1015 2.1162 2.0695 1.991 1.9622 1.9135 1.82175 1.7291 1.632 1.515
2382.739 1.438 1.376 1.302 1.261 1.2 1.173 1.192 1.218 1.179 1.136
2402.032 1.138 1.11 1.124 1.157 1.151 1.131 1.146 1.154 1.125 1.128
2421.326 1.155 1.175 1.159 1.154 1.185 1.181 1.185 1.208 1.215 1.182
2440.619 1.177 1.217 1.227 1.211 1.189 1.228 1.275 1.28 1.248 1.199
2459.912 1.211 1.228 1.232 1.274 1.289 1.278 1.289 1.308 1.323 1.35
2479.206 1.386 1.393 1.422 1.479 1.538 1.552 1.548 1.56 1.56 1.566
2498.499 1.576 1.589 1.617 1.655 1.666 1.62 1.596 1.593 1.549 1.542
2517.793 1.536 1.484 1.506 1.524 1.501 1.515 1.504 1.499 1.517 1.519
2537.086 1.522 1.528 1.528 1.538 1.511 1.469 1.496 1.532 1.525 1.469
2556.380 1.466 1.498 1.457 1.429 1.471 1.551 1.582 1.542 1.552 1.597
2575.673 1.625 1.658 1.7018 1.685 1.645 1.633 1.607 1.6 1.63 1.643
2594.966 1.602 1.568 1.551 1.523 1.519 1.553 1.548 1.481 1.472 1.517
2614.260 1.489 1.525 1.566 1.602 1.653 1.6743 1.7452 1.7292 1.7145 1.76673
2633.553 1.83024 1.8982 1.9162 1.956 1.9746 1.9316 1.82622 1.7352 1.7298 1.632
2652.847 1.526 1.505 1.399 1.297 1.304 1.296 1.275 1.232 1.184 1.2
2672.140 1.162 1.138 1.114 1.083 1.09 1.109 1.097 1.085 1.122 1.122
2691.434 1.126 1.147 1.134 1.113 1.129 1.133 1.11 1.064 0.976 0.94
2710.727 0.982 0.984 0.968 0.949 0.882 0.808 0.782 0.798 0.847 0.872
2730.020 0.88 0.897 0.892 0.892 0.954 0.948 0.869 0.789 0.76 0.791
2749.314 0.852 0.905 0.89 0.877 0.822 0.834 0.878 0.865 0.91 1.011
2768.607 1.072 1.074 1.039 1.045 1.094 1.103 1.136 1.202 1.256 1.203
2787.901 1.171 1.177 1.143 1.147 1.229 1.264 1.153 1.109 1.119 1.185
2807.194 1.19 1.162 1.169 1.128 1.096 1.087 1.112 1.053 1.046 1.121
2826.488 1.096 1.072 1.075 1.091 1.071 1.062 1.121 1.18 1.239 1.314
2845.781 1.357 1.343 1.396 1.437 1.474 1.501 1.527 1.55 1.552 1.568
2865.074 1.637 1.663 1.62 1.7548 1.85966 1.83997 1.80877 1.7419 1.6852 1.7154
2884.368 1.7495 1.7292 1.7496 1.80324 1.83383 1.8908 1.886 1.82722 1.8951 1.9062
2903.661 1.83832 1.883 1.9119 1.9085 1.9376 1.9356 1.9516 2.065 2.1359 2.1199
2922.955 2.06 2.1361 2.374 2.4753 2.6246 2.7658 2.81 2.95 3.12 3.26
2942.248 3.51 3.93 4.29 4.63 5.01 5.41 5.79 6.15 6.45 6.55
2961.542 6.56 6.51 6.26 5.96 5.63 5.22 4.89 4.63 4.5 4.53
2980.835 4.54 4.63 4.85 5.21 5.64 6.04 6.59 7.39 8.25 9.11
3000.128 10.08 11.01 11.95 12.89 13.7 14.35 15.05 15.79 16.49 17.17
3019.422 17.99 19.16 20.42 21.75 23.28 24.72 25.79 26.56 27.19 27.59
3038.715 27.47 26.93 26.09 25.02 23.93 22.84 21.97 21.35 20.91 20.77
3058.009 21.4 23.04 25.6 28.85 32.12 34.43 35.65 36 35.42 33.98
3077.302 31.6 28.46 25.43 23.15 21.61 20.58 19.69 18.81 17.74 16.51
3096.596 15.18 13.79 12.41 11.07 9.93 8.94 7.97 6.99 6.02 5.18
3115.889 4.53 3.82 3.22 2.6749 2.2982 2.0967 1.81127 1.56 1.409 1.344
3135.182 1.282 1.158 1.185 1.198 1.145 1.258 1.183 0.971 0.916 0.914
3154.476 0.873 0.877 0.862 0.7 0.59 0.65 0.57 0.48 0.45 0.42
3173.769 0.35 0.35 0.33 0.22 0.27 0.25 0.21 0.22 0.19 0.19
3193.063 0.24 0.32 0.38 0.45 0.38 0.25 0.2 0.26 0.29 0.21
3212.356 0.21 0.21 0.22 0.22 0.22 0.24 0.22 0.34 0.46 0.42
3231.650 0.36 0.29 0.31 0.38 0.49 0.64 0.65 0.63 0.67 0.67
3250.943 0.75 0.771 0.75 0.8 0.787 0.789 0.76 0.77 0.796 0.75
3270.236 0.75 0.7 0.64 0.59 0.49 0.43 0.38 0.33 0.27 0.27
3289.530 0.24 0.24 0.28 0.32 0.45 0.37 0.18 0.25 0.27 0.2
3308.823 0.19 0.24 0.29 0.18 0.11 0.12 0.22 0.25 0.25 0.17
3328.117 0.02 0 0.02 0.15 0.16 0.05 0.05 0.09 0.08 0.06
3347.410 0.2 0.25 0.16 0.03 0.06 0.11 0.02 0 0.04 0.16
3366.704 0.21 0.11 0.05 0.06 0.13 0.19 0.27 0.25 0.15 0.16
3385.997 0.1 0.1 0.16 0.15 0.12 0.12 0.18 0.25 0.31 0.28
3405.290 0.14 0.01 0.1 0.12 0.04 0.06 0.12 0.2 0.25 0.38
3424.584 0.44 0.3 0.19 0.15 0.19 0.31 0.32 0.26 0.23 0.28
3443.877 0.24 0.18 0.23 0.28 0.33 0.38 0.41 0.41 0.41 0.36
3463.171 0.4 0.53 0.66 0.62 0.5 0.52 0.48 0.4 0.34 0.43
3482.464 0.52 0.44 0.47 0.51 0.55 0.49 0.38 0.46 0.49 0.49
3501.758 0.54 0.62 0.68 0.67 0.58 0.48 0.45 0.46 0.52 0.5
3521.051 0.55 0.65 0.61 0.56 0.4 0.32 0.38 0.53 0.61 0.57
3540.344 0.63 0.76 0.851 0.933 0.832 0.69 0.73 0.76 0.771 0.862
3559.638 1.069 1.085 1.212 1.65 1.7126 1.518 1.445 1.442 1.509 1.6896
3578.931 1.82658 1.9131 2.0291 2.2814 2.6406 2.85 2.96 3.15 3.49 3.82
3598.225 4.22 4.59 4.97 5.51 6.13 7.04 7.9 8.78 9.99 11.46
3617.518 13.49 16.22 19.54 23.67 29.18 35.95 43.85 52.76 62.64 74.81
3636.812 89.75 105.75 117.36 120.15 116.65 111.56 102.9 86.47 65.83 47.73
3656.105 34.03 23.61 16.34 11.81 9.02 7.46 6.52 5.68 5.01 4.52
3675.398 4.2 3.92 3.68 3.55 3.49 3.42 3.32 3.18 3 2.92
3694.692 2.6534 2.332 2.21 2.0803 1.8774 1.6813 1.559 1.495 1.515 1.544
3713.985 1.57 1.469 1.412 1.463 1.431 1.432 1.411 1.294 1.186 1.193
3733.279 1.307 1.455 1.437 1.294 1.17 1.247 1.329 1.141 1.124 1.219
3752.572 1.12 0.953 0.96 0.971 0.987 1.014 0.922 0.858 0.792 0.803
3771.866 0.836 0.838 0.876 0.9 0.82 0.76 0.771 0.928 0.976 0.831
3791.159 0.855 0.873 0.791 0.873 1.011 1.051 1.029 0.939 0.884 0.879
3810.452 0.821 0.802 0.847 0.784 0.75 0.877 0.974 0.933 0.77 0.7
3829.746 0.776 0.75 0.74 0.866 0.983 0.989 0.941 0.945 0.966 0.905
3849.039 0.907 1.098 1.317 1.185 0.95 0.879 0.819 0.841 0.958 1.024
3868.333 1.017 0.98 0.875 0.819 0.831 0.898 0.991 1.018 1.082 1.165
3887.626 1.131 1.164 1.218 1.114 1.076 1.171 1.306 1.371 1.39 1.338
3906.920 1.122 1.028 1.057 1.07 1.118 1.238 1.15 1 1.039 1.065
3926.213 0.938 0.89 1.008 0.977 0.925 1.013 0.975 0.893 0.968 1.062
3945.506 1.082 1.085 1.081 1.032 0.973 0.948 0.965 0.969 1.066 1.037
3964.800 0.952 0.956 1.016 1.148 1.149 1.095 1.05 0.979 1.008 1.066
3984.093 1.074 1.08 1.046 1.069 1.144 1.199 1.184 1.167 1.184
##END=
