##TITLE=3,5-Dimethoxyphenylacetonitrile
##JCAMP-DX=4.24
##DATA TYPE=INFRARED SPECTRUM
##ORIGIN=EPA-IR VAPOR PHASE LIBRARY
##OWNER=SRD/NIST
Collection (C) 2018 copyright by the U.S. Secretary of Commerce
on behalf of the United States of America. All rights reserved.
##CAS REGISTRY NO=13388-75-5
##MOLFORM=C 10 H 11 N O 2
##$NIST SOURCE=MSDC-IR
##STATE=gas
##XUNITS=1/CM
##YUNITS=ABSORBANCE
##XFACTOR=1.
##YFACTOR=0.001
##DELTAX=1.92898
##FIRSTX=549.8
##LASTX=4000.7
##FIRSTY=2.686
##MAXX=4000.7
##MINX=549.759
##MAXY=0.198896
##MINY=0
##NPOINTS=1790
##XYDATA=(X++(Y..Y))
549.759 2.686 2.306 2.096 2.306 2.436 2.366 2.256 2.206 2.216 2.016
569.049 2.256 2.656 2.596 2.516 2.606 2.736 2.946 3.016 3.056 3.106
588.339 3.136 3.216 3.176 3.036 2.906 3.006 2.996 2.666 2.446 2.486
607.628 2.516 2.456 2.266 2.086 2.226 2.326 2.266 2.126 1.896 1.596
626.918 1.576 1.746 1.816 1.706 1.606 1.676 1.846 1.986 1.926 2.096
646.208 2.486 2.916 3.266 3.646 4.076 4.336 4.536 4.906 5.306 5.626
665.498 6.136 6.616 7.286 7.906 8.496 9.206 9.756 10.356 11.186 11.786
684.787 11.946 12.066 12.226 12.136 11.906 11.636 11.186 10.636 9.916 9.216
704.077 8.516 7.596 6.946 6.196 5.206 4.466 3.896 3.396 3.146 2.736
723.367 2.276 2.226 1.916 1.546 1.476 1.406 1.416 1.466 1.2333 1.053
742.657 1.0665 1.1299 1.0601 0.9347 0.9606 1.0586 1.0381 0.8486 0.8089 0.8014
761.947 0.8355 0.7204 0.6167 0.832 1.0494 1.0534 0.9247 1.0001 1.0546 1.1108
781.236 1.2261 1.2769 1.506 1.746 1.906 2.246 2.616 2.866 3.376 4.106
800.526 4.816 5.606 6.586 7.666 8.466 9.266 10.126 10.686 10.946 11.106
819.816 11.326 11.596 12.256 13.146 14.096 15.256 16.796 18.496 20.316 21.456
839.106 21.536 21.376 20.756 19.856 18.986 18.136 17.226 16.356 15.496 14.766
858.395 13.966 12.776 11.416 10.256 9.186 8.186 7.276 6.396 5.716 5.326
877.685 5.346 5.286 5.176 5.146 5.316 5.676 6.116 6.766 7.316 7.576
896.975 8.046 8.436 8.276 7.996 7.746 7.636 7.396 6.886 6.576 6.306
916.265 5.996 6.036 6.316 6.656 6.826 7.046 7.626 8.136 8.346 8.666
935.555 8.986 9.186 9.346 9.296 9.076 8.736 8.256 7.786 7.306 6.736
954.844 6.286 5.696 5.156 5.036 5.016 4.946 4.796 4.626 4.626 4.676
974.134 4.866 4.986 4.996 4.906 4.796 5.016 5.266 5.426 5.656 5.966
993.424 6.306 6.496 6.426 6.246 6.186 6.236 6.156 5.936 5.846 5.756
1012.714 5.616 5.826 6.106 6.246 6.256 6.276 6.666 7.146 7.686 8.466
1032.003 9.526 10.866 12.346 14.346 16.806 19.646 23.026 26.696 31.426 36.746
1051.293 42.136 47.976 53.526 58.536 62.466 65.166 66.646 66.946 65.466 62.376
1070.583 57.756 51.876 46.196 40.376 34.216 28.636 23.496 19.536 17.016 14.966
1089.873 13.326 11.896 11.196 10.656 10.186 9.966 9.626 9.416 9.666 9.906
1109.163 10.216 10.626 10.796 10.996 11.196 12.036 13.456 15.116 16.886 19.186
1128.452 22.126 26.066 31.196 37.386 45.016 53.506 62.456 72.606 83.756 94.686
1147.742 105.726 116.666 126.776 135.846 142.446 145.636 145.736 141.906 134.026 123.096
1167.032 109.596 94.966 80.756 67.996 57.456 49.706 44.946 42.906 42.766 44.056
1186.322 47.126 51.636 57.576 64.406 71.736 78.996 85.916 92.646 98.066 100.476
1205.611 99.736 95.916 89.346 81.916 73.376 63.566 53.186 43.106 34.646 28.366
1224.901 23.936 20.656 18.156 16.556 15.586 14.916 14.306 14.086 14.156 14.206
1244.191 14.406 14.546 14.476 14.416 14.166 13.586 13.186 12.816 12.196 11.666
1263.481 11.286 10.806 10.516 10.856 11.146 11.406 12.106 13.206 14.816 16.986
1282.771 19.496 22.126 24.796 27.086 28.726 29.566 29.696 29.346 28.476 27.176
1302.060 25.966 25.236 25.166 25.876 27.286 29.236 31.756 34.746 38.236 42.146
1321.350 45.996 49.556 52.546 54.686 55.836 55.896 54.976 53.166 50.636 47.756
1340.640 44.816 41.966 39.286 36.686 34.036 31.356 28.756 26.116 23.516 21.066
1359.930 18.786 16.736 14.976 13.536 12.286 11.306 10.586 10.056 9.666 9.366
1379.219 9.086 8.876 8.786 8.746 8.676 8.696 8.806 8.976 9.256 9.636
1398.509 10.026 10.516 11.166 12.046 13.066 14.226 15.736 17.746 20.316 23.626
1417.799 27.816 32.846 38.356 44.186 50.586 57.136 62.836 66.876 68.846 68.856
1437.089 67.516 65.076 61.266 56.336 51.256 47.336 45.356 45.406 47.636 51.916
1456.378 58.116 65.676 73.626 81.286 87.356 91.366 93.136 92.536 89.316 83.736
1475.668 76.476 68.076 59.276 50.656 42.896 36.196 30.436 25.636 21.716 18.576
1494.958 16.296 14.646 13.416 12.446 11.676 11.186 10.886 10.616 10.426 10.316
1514.248 10.316 10.346 10.366 10.486 10.626 10.736 10.916 11.086 11.306 11.456
1533.538 11.566 11.866 12.206 12.506 12.796 13.106 13.466 13.846 14.216 14.606
1552.827 15.076 15.636 16.266 16.996 17.916 18.996 20.216 21.826 23.966 26.606
1572.117 29.886 33.946 39.056 45.226 52.656 61.826 72.366 84.646 98.686 114.026
1591.407 130.346 147.126 163.166 177.396 188.896 196.386 198.896 195.406 185.866 171.556
1610.697 154.406 136.276 118.706 102.206 87.126 73.716 62.046 52.296 44.336 37.956
1629.986 32.806 28.676 25.416 22.726 20.436 18.516 16.856 15.496 14.216 13.016
1649.276 12.036 11.246 10.486 9.796 9.216 8.666 8.226 7.876 7.546 7.326
1668.566 7.136 6.936 6.786 6.726 6.576 6.416 6.266 6.146 6.086 5.966
1687.856 5.866 5.776 5.636 5.486 5.266 5.066 4.936 4.776 4.576 4.416
1707.146 4.276 4.116 3.976 3.846 3.746 3.646 3.536 3.416 3.316 3.226
1726.435 3.146 3.076 2.976 2.926 2.886 2.736 2.696 2.706 2.666 2.566
1745.725 2.496 2.516 2.506 2.466 2.356 2.316 2.296 2.296 2.336 2.236
1765.015 2.196 2.256 2.196 2.156 2.156 2.116 2.046 2.006 1.936 1.866
1784.305 1.796 1.766 1.826 1.836 1.816 1.786 1.746 1.696 1.686 1.666
1803.594 1.656 1.676 1.686 1.676 1.656 1.716 1.736 1.716 1.696 1.706
1822.884 1.726 1.706 1.686 1.676 1.676 1.646 1.606 1.606 1.536 1.486
1842.174 1.516 1.546 1.526 1.496 1.476 1.426 1.406 1.426 1.436 1.396
1861.464 1.376 1.456 1.436 1.406 1.446 1.416 1.386 1.386 1.366 1.366
1880.754 1.296 1.2745 1.296 1.259 1.296 1.356 1.306 1.2461 1.2702 1.2614
1900.043 1.2259 1.2234 1.2229 1.223 1.2091 1.2009 1.1756 1.1677 1.1431 1.0833
1919.333 1.0879 1.1222 1.1399 1.1131 1.114 1.1335 1.1626 1.248 1.2203 1.1191
1938.623 1.1606 1.2075 1.2616 1.316 1.2763 1.2846 1.346 1.286 1.2393 1.336
1957.913 1.366 1.356 1.376 1.386 1.406 1.476 1.536 1.556 1.586 1.576
1977.202 1.656 1.736 1.746 1.786 1.766 1.816 1.866 1.846 1.796 1.846
1996.492 1.836 1.796 1.816 1.786 1.776 1.766 1.746 1.716 1.686 1.696
2015.782 1.656 1.616 1.636 1.666 1.616 1.656 1.696 1.636 1.616 1.686
2035.072 1.716 1.686 1.626 1.596 1.616 1.616 1.646 1.696 1.746 1.786
2054.362 1.806 1.826 1.826 1.866 1.896 1.866 1.886 1.926 1.946 1.926
2073.651 1.906 1.936 1.996 2.076 2.166 2.186 2.226 2.226 2.276 2.376
2092.941 2.406 2.396 2.456 2.566 2.606 2.626 2.646 2.666 2.636 2.586
2112.231 2.636 2.686 2.636 2.616 2.656 2.626 2.566 2.486 2.466 2.366
2131.521 2.216 2.146 2.076 2.006 1.956 1.936 1.866 1.736 1.616 1.556
2150.810 1.506 1.526 1.476 1.376 1.386 1.396 1.386 1.386 1.366 1.356
2170.100 1.396 1.336 1.306 1.366 1.336 1.386 1.426 1.406 1.436 1.456
2189.390 1.496 1.526 1.546 1.536 1.526 1.566 1.606 1.616 1.596 1.576
2208.680 1.556 1.596 1.666 1.656 1.626 1.666 1.686 1.686 1.696 1.696
2227.970 1.716 1.696 1.676 1.706 1.796 1.866 1.946 2.026 2.126 2.336
2247.259 2.516 2.616 2.716 2.766 2.826 2.906 2.906 2.826 2.696 2.586
2266.549 2.426 2.196 2.046 1.966 1.856 1.666 1.496 1.376 1.2735 1.2762
2285.839 1.296 1.1673 1.0728 1.1029 1.0428 1.0127 1.0313 0.9862 0.905 0.9185
2305.129 0.9009 0.9104 0.9842 0.9868 1.0154 0.9841 0.9426 0.9551 0.9589 0.9407
2324.418 0.9534 0.9628 0.8903 0.8835 0.9369 0.9741 1.0011 1.0228 1.099 1.123
2343.708 1.1399 1.1965 1.2104 1.1848 1.1775 1.2369 1.2593 1.2041 1.2057 1.2334
2362.998 1.2118 1.2076 1.1664 1.1523 1.1929 1.2445 1.2307 1.1634 1.1232 1.1403
2382.288 1.1253 1.1211 1.1847 1.2281 1.1255 1.0908 1.197 1.2225 1.2587 1.2552
2401.578 1.2246 1.2401 1.2572 1.2406 1.2339 1.2671 1.2763 1.2409 1.2097 1.2311
2420.867 1.2585 1.306 1.326 1.2851 1.306 1.316 1.306 1.316 1.326 1.296
2440.157 1.2731 1.356 1.346 1.2571 1.2783 1.316 1.2815 1.396 1.436 1.326
2459.447 1.346 1.296 1.2656 1.336 1.356 1.366 1.336 1.366 1.426 1.476
2478.737 1.446 1.456 1.516 1.476 1.496 1.596 1.616 1.576 1.536 1.506
2498.026 1.526 1.556 1.476 1.386 1.386 1.386 1.366 1.356 1.306 1.286
2517.316 1.356 1.346 1.2613 1.2694 1.296 1.2646 1.296 1.336 1.376 1.346
2536.606 1.2707 1.356 1.426 1.426 1.446 1.406 1.426 1.416 1.366 1.376
2555.896 1.366 1.336 1.2701 1.2433 1.2581 1.2043 1.1344 1.1544 1.2465 1.269
2575.186 1.2805 1.316 1.316 1.306 1.286 1.2791 1.286 1.296 1.316 1.306
2594.475 1.2759 1.286 1.2579 1.326 1.416 1.396 1.396 1.416 1.436 1.526
2613.765 1.606 1.526 1.556 1.636 1.566 1.556 1.506 1.436 1.486 1.526
2633.055 1.516 1.506 1.566 1.546 1.546 1.496 1.476 1.496 1.436 1.466
2652.345 1.426 1.366 1.336 1.316 1.2641 1.1608 1.1638 1.1463 1.1654 1.2389
2671.634 1.2017 1.1787 1.1375 1.0676 1.03 1.0132 1.0386 1.079 1.0325 0.9767
2690.924 0.9145 0.9494 1.0297 0.9803 0.8968 0.919 1.0173 1.0133 1.0116 0.9925
2710.214 1.0029 1.0948 1.1039 1.0556 1.0327 1.0967 1.2306 1.2475 1.2208 1.2596
2729.504 1.2524 1.2325 1.2386 1.2463 1.326 1.376 1.326 1.376 1.426 1.426
2748.794 1.556 1.616 1.596 1.666 1.766 1.846 1.886 1.926 1.936 2.056
2768.083 2.156 2.056 1.986 2.066 2.186 2.266 2.416 2.556 2.556 2.636
2787.373 2.726 2.716 2.746 2.876 3.036 3.086 3.116 3.176 3.336 3.486
2806.663 3.626 3.776 3.836 3.966 4.256 4.616 4.946 5.276 5.686 6.276
2825.953 6.966 7.766 8.766 10.036 11.586 13.456 15.726 18.266 20.766 22.996
2845.242 24.666 25.516 25.546 24.926 23.736 21.876 19.486 16.996 15.016 13.356
2864.532 12.036 11.246 10.506 9.976 9.876 9.786 9.786 10.016 10.256 10.486
2883.822 10.876 11.346 11.796 12.246 12.726 13.136 13.546 14.076 14.436 14.966
2903.112 15.626 16.096 16.606 17.256 18.006 18.756 19.416 20.036 20.586 20.866
2922.401 21.006 21.446 22.006 22.566 23.346 24.676 26.486 28.426 30.786 33.476
2941.691 36.176 38.606 40.586 41.936 42.576 42.566 42.066 40.996 39.306 37.606
2960.981 35.976 34.206 32.036 29.616 27.156 24.876 22.656 20.576 18.866 17.266
2980.271 15.976 15.016 14.316 13.886 13.796 14.086 14.686 15.756 17.316 19.106
2999.561 21.306 24.176 27.206 29.806 31.836 32.616 32.116 30.966 29.036 26.116
3018.850 22.376 18.506 15.206 12.626 10.596 8.996 8.016 7.326 6.656 6.226
3038.140 5.796 5.456 5.296 5.036 4.886 4.926 4.886 4.716 4.636 4.636
3057.430 4.636 4.736 4.766 4.906 5.056 5.186 5.226 5.106 5.076 5.106
3076.720 5.116 5.176 5.186 4.996 4.956 4.896 4.736 4.526 4.296 4.146
3096.009 3.856 3.656 3.476 3.266 3.096 2.836 2.626 2.536 2.456 2.276
3115.299 2.066 2.066 2.066 1.896 1.786 1.726 1.836 1.926 1.836 1.666
3134.589 1.516 1.576 1.486 1.506 1.526 1.476 1.506 1.476 1.506 1.436
3153.879 1.336 1.326 1.416 1.416 1.396 1.356 1.326 1.2711 1.316 1.316
3173.169 1.217 1.1522 1.0245 1.0625 1.1464 1.1824 1.0751 1.0573 1.2015 1.0914
3192.458 1.0282 0.9582 0.9248 1.0632 1.1668 1.2365 1.2049 1.2225 1.286 1.2421
3211.748 1.2157 1.1839 0.9903 0.8933 1.0666 1.1221 1.0271 0.9751 0.9249 0.7893
3231.038 0.721 0.8321 0.8752 0.8028 0.6713 0.4731 0.4374 0.487 0.5641 0.5394
3250.328 0.5278 0.715 0.7269 0.6587 0.5614 0.4167 0.4714 0.5856 0.6286 0.5777
3269.617 0.38053 0.34482 0.5149 0.4819 0.35577 0.285712 0.35164 0.419 0.4324 0.3891
3288.907 0.3895 0.5429 0.488 0.37083 0.30811 0.27706 0.32451 0.37068 0.32924 0.2541
3308.197 0.2108 0.2012 0.295841 0.472 0.495 0.4999 0.4673 0.4041 0.37641 0.287497
3327.487 0.2388 0.332 0.4359 0.4238 0.29885 0.2716 0.31958 0.2238 0.145 0.34115
3346.777 0.4088 0.168 0.162 0.33336 0.443 0.3393 0.31164 0.32673 0.27704 0.32257
3366.066 0.134 0.27889 0.6082 0.4001 0.285222 0.36996 0.29987 0.2319 0.35186 0.4673
3385.356 0.34938 0.28199 0.5625 0.7049 0.5963 0.483 0.38332 0.2677 0.33907 0.4463
3404.646 0.38311 0.298 0.2112 0.2624 0.33218 0.4384 0.4558 0.3998 0.4181 0.33148
3423.936 0.32568 0.4716 0.4341 0.391 0.4489 0.33472 0.194 0.137 0.28215 0.4251
3443.225 0.4561 0.377 0.2664 0.3397 0.35645 0.246 0.2428 0.2347 0.2628 0.258
3462.515 0.1987 0.293353 0.34532 0.30915 0.2769 0.33695 0.28439 0.2028 0.221 0.35779
3481.805 0.4262 0.33296 0.35814 0.33438 0.2315 0.2428 0.35843 0.4121 0.1863 0
3501.095 0.155 0.31094 0.27769 0.2741 0.4034 0.4611 0.2709 0.161 0.2411 0.31642
3520.385 0.289908 0.32484 0.3936 0.31124 0.4047 0.4362 0.435 0.5708 0.4382 0.34549
3539.674 0.4282 0.4906 0.4752 0.2698 0.27966 0.38587 0.4115 0.4776 0.38179 0.4254
3558.964 0.5362 0.4397 0.4092 0.4179 0.35917 0.37748 0.4705 0.4614 0.34606 0.34484
3578.254 0.4607 0.4394 0.4281 0.5366 0.5137 0.37052 0.3902 0.6083 0.6103 0.4238
3597.544 0.4457 0.5435 0.568 0.5596 0.4366 0.29768 0.27712 0.38469 0.3978 0.35318
3616.833 0.4285 0.4292 0.4841 0.3896 0.27672 0.37011 0.3993 0.36805 0.32663 0.38461
3636.123 0.4417 0.4649 0.4624 0.3305 0.32818 0.4316 0.4032 0.4675 0.37623 0.2989
3655.413 0.38129 0.31679 0.2425 0.28221 0.22 0.2517 0.4954 0.4484 0.37006 0.34157
3674.703 0.31582 0.34334 0.3982 0.4011 0.28301 0.37454 0.3949 0.28061 0.184 0.2077
3693.993 0.32989 0.31416 0.2705 0.142 0.127 0.2155 0.3343 0.4608 0.35537 0.2416
3713.282 0.1997 0.2539 0.4995 0.4901 0.4163 0.4979 0.465 0.4713 0.5395 0.481
3732.572 0.4364 0.3894 0.37242 0.5017 0.34471 0.3459 0.6392 0.5425 0.32569 0.085
3751.862 0.017 0.32939 0.4123 0.34183 0.23 0.2648 0.4789 0.4496 0.35465 0.37906
3771.152 0.35035 0.3547 0.4235 0.4502 0.38534 0.30945 0.4022 0.4451 0.4094 0.4037
3790.441 0.4251 0.34245 0.3984 0.5404 0.5639 0.5283 0.4902 0.56 0.4372 0.2728
3809.731 0.289754 0.35004 0.4194 0.3963 0.38149 0.442 0.4538 0.4369 0.4252 0.5676
3829.021 0.606 0.5062 0.4814 0.4828 0.4665 0.4589 0.38548 0.2182 0.30543 0.4852
3848.311 0.4529 0.36023 0.32611 0.294038 0.3293 0.37394 0.4176 0.36219 0.4092 0.5303
3867.601 0.5658 0.5646 0.4492 0.4541 0.406 0.28223 0.3183 0.5004 0.6094 0.566
3886.890 0.5198 0.4158 0.3907 0.5277 0.6565 0.7946 0.7512 0.5478 0.5335 0.6255
3906.180 0.6669 0.5042 0.4619 0.622 0.6692 0.6644 0.7435 0.6962 0.5531 0.5852
3925.470 0.516 0.4965 0.5155 0.5138 0.5946 0.5339 0.5061 0.4097 0.4554 0.5894
3944.760 0.4998 0.5014 0.5991 0.6139 0.5052 0.396 0.4079 0.4654 0.47 0.4738
3964.049 0.4831 0.554 0.612 0.6456 0.538 0.33487 0.3884 0.4851 0.4202 0.474
3983.339 0.6494 0.6216 0.5228 0.5948 0.6874 0.5848 0.6405 0.8623 0.7591 0.7175
##END=
