##TITLE=5-Chloro-2-iodobenzoic acid
##JCAMP-DX=4.24
##DATA TYPE=INFRARED SPECTRUM
##ORIGIN=EPA-IR VAPOR PHASE LIBRARY
##OWNER=SRD/NIST
Collection (C) 2018 copyright by the U.S. Secretary of Commerce
on behalf of the United States of America. All rights reserved.
##CAS REGISTRY NO=13421-00-6
##MOLFORM=C 7 H 4 Cl I O 2
##$NIST SOURCE=MSDC-IR
##STATE=gas
##XUNITS=1/CM
##YUNITS=ABSORBANCE
##XFACTOR=1.
##YFACTOR=0.001
##DELTAX=1.92898
##FIRSTX=549.8
##LASTX=4000.7
##FIRSTY=48.539
##MAXX=4000.7
##MINX=549.759
##MAXY=0.419859
##MINY=0
##NPOINTS=1790
##XYDATA=(X++(Y..Y))
549.759 48.539 52.039 56.039 60.699 65.969 71.669 77.499 82.779 87.209 89.889
569.049 90.849 90.419 88.809 86.509 83.849 81.839 81.489 81.969 81.379 79.969
588.339 78.499 76.489 73.709 70.289 66.269 60.899 54.819 48.919 43.109 37.879
607.628 33.699 30.449 27.719 25.639 24.719 24.479 25.019 27.399 31.739 38.199
626.918 47.019 57.479 67.629 76.279 83.469 87.399 84.259 75.699 67.769 59.029
646.208 46.939 35.019 25.559 19.089 14.789 11.849 10.079 8.909 8.299 7.869
665.498 7.579 7.749 7.969 8.379 9.439 11.149 13.889 18.279 24.709 33.399
684.787 44.289 55.629 62.939 63.949 63.789 64.349 58.459 46.219 34.409 25.499
704.077 19.099 14.649 11.729 9.949 8.689 7.739 7.189 6.629 6.189 6.219
723.367 6.219 6.059 6.059 6.289 6.409 6.389 6.499 6.659 6.929 7.259
742.657 7.799 8.599 9.469 10.459 11.309 12.369 13.669 14.919 16.179 17.179
761.947 18.419 20.049 21.869 24.109 26.609 29.219 31.899 34.349 35.799 34.999
781.236 32.729 30.629 28.639 26.419 24.399 23.039 22.289 21.959 21.899 22.409
800.526 23.749 26.239 30.139 35.069 41.099 48.069 55.289 63.089 69.469 69.069
819.816 61.599 52.369 44.699 38.389 32.739 28.469 25.739 24.619 24.709 24.739
839.106 24.089 22.699 20.389 17.339 14.319 11.839 9.879 8.369 7.649 7.279
858.395 6.879 6.539 6.219 6.029 5.939 5.849 5.939 6.319 6.779 7.559
877.685 8.759 10.329 12.499 15.239 17.939 20.699 23.529 25.579 26.299 25.549
896.975 23.549 20.569 17.169 14.139 11.779 9.749 8.089 6.809 6.039 5.429
916.265 4.889 4.449 4.189 4.029 3.689 3.559 3.529 3.499 3.539 3.649
935.555 3.689 3.659 3.469 3.589 3.779 3.689 3.889 3.939 3.929 4.269
954.844 4.449 4.669 4.889 4.809 4.999 5.109 4.979 5.189 5.419 5.299
974.134 5.239 5.309 5.389 5.709 6.139 6.649 7.279 7.859 8.589 9.729
993.424 11.399 13.879 16.799 20.789 26.979 36.159 50.159 70.719 97.859 127.279
1012.714 151.879 166.439 170.929 165.549 146.359 114.159 81.069 57.009 41.729 32.649
1032.003 27.469 24.209 22.189 21.159 20.979 21.199 21.579 22.789 24.089 25.559
1051.293 27.479 29.759 32.559 35.939 40.249 44.809 49.549 55.399 62.729 71.619
1070.583 81.609 92.319 103.489 114.329 123.589 130.809 135.989 138.869 139.679 138.679
1089.873 137.499 138.529 142.619 150.269 162.369 178.519 196.649 213.729 226.039 229.879
1109.163 223.289 206.779 183.709 158.399 134.849 117.079 107.699 104.129 102.629 102.649
1128.452 103.799 105.299 106.299 105.989 103.849 100.359 96.769 92.169 85.289 77.919
1147.742 71.719 67.839 66.659 67.379 69.259 72.229 77.049 83.809 92.159 102.769
1167.032 116.489 132.749 151.079 170.579 189.279 205.259 216.599 222.419 221.399 212.249
1186.322 196.239 175.779 152.849 129.609 108.989 91.969 78.399 68.009 60.329 54.619
1205.611 50.209 46.929 43.669 40.389 37.629 34.989 32.579 30.489 28.619 27.109
1224.901 25.689 24.699 24.519 24.329 24.089 24.489 25.229 26.479 28.649 31.279
1244.191 34.179 37.449 40.949 44.159 46.719 48.409 49.079 48.299 46.759 45.409
1263.481 44.119 43.189 42.789 42.959 43.359 43.389 43.509 44.099 44.499 44.939
1282.771 45.639 46.329 47.519 49.279 51.269 53.409 55.689 58.299 61.119 63.909
1302.060 66.729 69.689 72.739 76.009 79.819 84.029 88.469 93.029 97.249 100.719
1321.350 102.749 102.809 100.849 96.739 91.029 84.259 76.509 68.469 61.239 55.089
1340.640 49.579 44.629 40.429 37.099 34.579 32.639 31.099 29.889 28.989 28.419
1359.930 28.229 28.489 29.379 31.109 33.599 36.879 40.889 45.419 50.069 54.259
1379.219 57.989 61.499 64.929 68.029 70.759 73.229 74.889 74.849 72.419 67.599
1398.509 60.869 52.839 44.459 36.569 30.129 25.569 22.619 20.579 18.969 17.649
1417.799 16.629 15.769 15.069 14.719 14.689 14.959 15.649 16.799 18.499 20.739
1437.089 23.799 27.759 32.769 39.019 46.589 55.519 65.639 75.909 84.849 90.689
1456.378 92.159 89.279 82.459 72.549 61.219 50.159 40.989 33.989 28.959 25.219
1475.668 22.239 19.819 17.769 16.059 14.619 13.349 12.339 11.489 10.839 10.369
1494.958 10.029 9.889 9.829 9.759 9.629 9.389 8.899 8.359 7.909 7.349
1514.248 6.879 6.449 6.029 5.869 5.879 5.999 6.189 6.439 6.779 7.249
1533.538 7.919 8.689 9.659 10.889 12.399 14.079 15.849 17.689 19.109 19.949
1552.827 20.109 19.469 18.189 16.529 14.909 13.509 12.449 11.879 11.869 12.269
1572.117 12.639 12.879 12.929 12.749 12.269 11.419 10.389 9.359 8.479 7.729
1591.407 7.199 6.889 6.509 6.179 6.039 5.919 5.799 5.609 5.479 5.449
1610.697 5.499 5.489 5.519 5.749 5.999 6.389 6.879 7.329 7.699 8.119
1629.986 8.469 8.479 8.309 8.059 7.649 7.129 6.589 6.039 5.569 5.159
1649.276 4.869 4.639 4.449 4.379 4.419 4.579 4.669 4.689 4.689 4.779
1668.566 4.909 4.989 5.089 5.139 5.159 5.199 5.299 5.479 5.639 5.889
1687.856 6.199 6.469 6.819 7.299 7.839 8.409 9.019 9.769 10.669 11.699
1707.146 12.909 14.219 15.729 17.489 19.529 21.869 24.679 27.999 31.969 36.589
1726.435 41.739 47.449 53.859 60.759 68.059 75.539 83.009 90.789 98.799 107.359
1745.725 116.839 127.769 140.549 155.619 173.169 194.019 219.459 249.139 283.889 324.609
1765.015 368.099 404.279 419.859 411.309 384.149 343.739 289.489 227.789 176.919 146.539
1784.305 131.919 125.399 122.219 119.719 116.409 110.839 102.449 91.679 79.729 67.839
1803.594 56.929 47.289 39.199 32.729 27.689 23.789 20.649 17.969 15.709 13.769
1822.884 12.139 10.759 9.539 8.519 7.719 7.029 6.489 6.059 5.719 5.399
1842.174 5.129 4.879 4.669 4.509 4.279 4.079 3.889 3.719 3.609 3.499
1861.464 3.449 3.439 3.389 3.389 3.429 3.489 3.529 3.569 3.639 3.749
1880.754 3.919 4.009 4.199 4.489 4.739 5.029 5.359 5.719 6.109 6.429
1900.043 6.639 6.729 6.619 6.379 6.069 5.619 5.059 4.599 4.219 3.799
1919.333 3.469 3.219 3.019 2.909 2.829 2.759 2.719 2.669 2.619 2.589
1938.623 2.559 2.419 2.369 2.389 2.279 2.209 2.149 2.049 1.999 1.959
1957.913 1.939 1.939 1.859 1.749 1.729 1.749 1.709 1.679 1.619 1.519
1977.202 1.499 1.479 1.4329 1.459 1.4265 1.3789 1.3746 1.4158 1.509 1.559
1996.492 1.559 1.569 1.649 1.749 1.799 1.799 1.849 1.979 2.079 2.049
2015.782 1.999 2.039 2.069 2.079 2.039 1.929 1.859 1.809 1.669 1.549
2035.072 1.499 1.4202 1.2952 1.1792 1.0961 1.0666 0.9944 0.9392 0.9748 0.9566
2054.362 0.9454 0.9959 1.0211 1.0002 1.0085 1.0059 0.9925 1.0163 0.9828 0.8865
2073.651 0.8884 0.9276 0.9606 0.9297 0.8886 0.973 1.0216 1.0551 1.1174 1.08
2092.941 1.0787 1.1723 1.1886 1.1488 1.1496 1.1821 1.211 1.1944 1.1928 1.2313
2112.231 1.2641 1.2569 1.2861 1.3784 1.3828 1.352 1.4017 1.4329 1.4039 1.3927
2131.521 1.3977 1.499 1.619 1.699 1.749 1.849 1.959 1.969 1.959 2.009
2150.810 2.049 2.049 2.039 1.969 1.929 1.889 1.799 1.789 1.779 1.689
2170.100 1.629 1.609 1.569 1.469 1.3926 1.3598 1.4253 1.469 1.4307 1.439
2189.390 1.499 1.519 1.499 1.449 1.479 1.569 1.529 1.539 1.599 1.549
2208.680 1.559 1.629 1.679 1.629 1.539 1.579 1.639 1.579 1.519 1.509
2227.970 1.4258 1.3438 1.353 1.356 1.3199 1.301 1.2628 1.296 1.3729 1.3065
2247.259 1.2217 1.2372 1.2681 1.3645 1.3739 1.317 1.3158 1.3706 1.3988 1.3697
2266.549 1.3591 1.3145 1.3029 1.3245 1.3933 1.449 1.459 1.4378 1.449 1.489
2285.839 1.459 1.435 1.459 1.509 1.579 1.619 1.639 1.629 1.599 1.619
2305.129 1.669 1.719 1.749 1.769 1.689 1.659 1.689 1.659 1.679 1.669
2324.418 1.629 1.599 1.669 1.719 1.659 1.659 1.689 1.689 1.819 1.929
2343.708 2.009 1.969 1.829 1.869 1.939 1.939 1.979 1.999 2.009 2.039
2362.998 2.059 2.029 1.969 1.909 1.799 1.719 1.729 1.679 1.619 1.649
2382.288 1.589 1.519 1.539 1.519 1.519 1.559 1.589 1.589 1.579 1.639
2401.578 1.729 1.729 1.749 1.699 1.719 1.739 1.699 1.689 1.679 1.709
2420.867 1.699 1.739 1.739 1.699 1.769 1.759 1.619 1.619 1.649 1.599
2440.157 1.599 1.509 1.489 1.549 1.519 1.519 1.519 1.519 1.539 1.489
2459.447 1.449 1.489 1.4172 1.352 1.3654 1.3374 1.363 1.3752 1.3347 1.2365
2478.737 1.2387 1.2818 1.3102 1.2911 1.2661 1.3082 1.2835 1.2839 1.3226 1.413
2498.026 1.479 1.4195 1.3677 1.4043 1.449 1.4019 1.449 1.499 1.469 1.539
2517.316 1.509 1.3655 1.2746 1.2983 1.2903 1.1785 1.1777 1.2035 1.1918 1.2052
2536.606 1.146 1.1657 1.185 1.1379 1.1389 1.2053 1.1872 1.1021 1.1134 1.1541
2555.896 1.1425 1.2177 1.3094 1.2641 1.2891 1.3845 1.3116 1.3056 1.3776 1.2998
2575.186 1.3305 1.3294 1.2533 1.3468 1.3648 1.3976 1.479 1.3677 1.3975 1.529
2594.475 1.499 1.4224 1.3083 1.2145 1.2061 1.1929 1.1911 1.15 0.9932 0.9435
2613.765 0.986 0.9905 0.9226 0.8671 0.7989 0.7562 0.7721 0.8512 0.9312 0.9304
2633.055 0.8753 0.8888 0.918 0.8812 0.938 0.9194 0.8699 0.7842 0.7359 0.8307
2652.345 0.8235 0.7532 0.7978 0.8297 0.7382 0.6893 0.7393 0.7908 0.8288 0.8309
2671.634 0.8903 0.9622 0.8979 0.7706 0.6999 0.7988 0.8824 0.8094 0.8412 0.8821
2690.924 0.8494 0.9052 0.9461 0.9554 0.9713 1.0268 1.0452 0.9541 0.9394 1.0396
2710.214 1.0061 0.9375 0.9789 0.9762 0.898 1.0068 1.0797 0.9077 0.8706 0.8455
2729.504 0.8422 0.8814 0.9137 0.9375 0.8615 0.8086 0.8155 0.8016 0.8019 0.8134
2748.794 0.733 0.7545 0.7593 0.7415 0.7659 0.698 0.6402 0.6473 0.7447 0.8534
2768.083 0.8132 0.7905 0.8719 0.9325 1.0434 1.119 1.1543 1.251 1.2709 1.3108
2787.373 1.4194 1.3672 1.4252 1.709 1.779 1.639 1.579 1.589 1.709 1.819
2806.663 1.679 1.579 1.629 1.559 1.489 1.519 1.599 1.569 1.459 1.4359
2825.953 1.3606 1.2704 1.2169 1.2157 1.189 1.223 1.2401 1.2581 1.2838 1.2368
2845.242 1.2422 1.3078 1.449 1.509 1.499 1.3937 1.29 1.3226 1.4176 1.3991
2864.532 1.3248 1.2538 1.2491 1.3796 1.4228 1.3446 1.2296 1.1435 1.0421 1.0099
2883.822 1.0292 0.9422 0.9264 1.0637 1.1079 1.0746 1.017 0.9603 0.9947 0.9349
2903.112 0.8069 0.7641 0.8268 0.8865 0.9346 0.975 1.0018 0.9632 0.8574 0.8547
2922.401 0.9075 0.9089 0.9203 1.0024 1.0605 1.1337 1.1915 1.199 1.2233 1.2509
2941.691 1.2905 1.3804 1.4163 1.3913 1.3786 1.3967 1.529 1.559 1.3598 1.3354
2960.981 1.3536 1.2939 1.2704 1.2623 1.2728 1.383 1.3805 1.3234 1.3662 1.2942
2980.271 1.2164 1.1336 1.1934 1.1522 1.1966 1.2944 1.2304 1.3298 1.4309 1.519
2999.561 1.609 1.549 1.4371 1.479 1.599 1.619 1.539 1.449 1.509 1.439
3018.850 1.2609 1.2636 1.2616 1.2101 1.0647 1.0188 1.0097 0.9834 1.0027 0.9401
3038.140 0.9046 0.9216 0.8945 0.9154 1.0068 0.9681 0.9663 1.1011 1.2313 1.3188
3057.430 1.3057 1.569 1.989 2.249 2.679 3.279 3.679 3.969 4.299 4.469
3076.720 4.329 4.199 3.949 3.549 3.269 2.939 2.649 2.439 2.369 2.289
3096.009 2.149 2.169 2.159 1.999 1.929 1.999 1.969 1.819 1.789 1.769
3115.299 1.709 1.579 1.4298 1.3293 1.3525 1.449 1.3631 1.3001 1.2807 1.1775
3134.589 1.1621 1.1468 1.0474 0.9876 0.9876 1.0426 0.9848 0.9137 0.9302 0.8729
3153.879 0.8502 0.7986 0.7222 0.6775 0.6691 0.7519 0.677 0.5688 0.6416 0.7111
3173.169 0.6369 0.6348 0.6764 0.53251 0.439804 0.47557 0.48469 0.4033 0.49681 0.51371
3192.458 0.47191 0.5626 0.43531 0.305 0.447469 0.5629 0.47371 0.4503 0.413 0.278
3211.748 0.277 0.48957 0.5518 0.452 0.4059 0.3897 0.4167 0.3705 0.331 0.3759
3231.038 0.43552 0.48176 0.49498 0.51319 0.5401 0.5095 0.4768 0.49459 0.4166 0.4097
3250.328 0.440713 0.47999 0.48772 0.4089 0.43315 0.45583 0.371 0.29 0.335 0.3972
3269.617 0.26 0.295 0.4266 0.3965 0.409 0.3435 0.43217 0.51244 0.43638 0.4058
3288.907 0.275 0.315 0.4259 0.3624 0.3547 0.332 0.326 0.45563 0.43213 0.331
3308.197 0.3425 0.3669 0.4102 0.5593 0.5959 0.4722 0.46025 0.51329 0.49116 0.4539
3327.487 0.5528 0.52658 0.46531 0.5835 0.448644 0.257 0.419 0.52078 0.47055 0.4081
3346.777 0.3985 0.45289 0.44926 0.45788 0.4156 0.5474 0.47875 0.3651 0.50489 0.3581
3366.066 0.324 0.286 0.154 0.235 0.4322 0.289 0.262 0.3886 0.267 0.249
3385.356 0.3878 0.3513 0.224 0.3578 0.43308 0.4246 0.439922 0.384 0.46912 0.6448
3404.646 0.52879 0.46018 0.6167 0.6056 0.5699 0.6771 0.7289 0.6114 0.6801 0.7255
3423.936 0.5941 0.7177 0.8435 0.9017 1.0353 1.2369 1.3881 1.449 1.459 1.449
3443.225 1.459 1.4274 1.449 1.391 1.2262 1.3437 1.479 1.439 1.439 1.459
3462.515 1.559 1.589 1.649 1.929 1.999 1.969 2.039 2.179 2.429 2.599
3481.805 2.709 2.689 2.719 2.819 2.969 3.009 3.099 3.189 3.269 3.579
3501.095 3.839 4.059 4.209 4.369 4.459 4.429 4.569 4.839 5.059 5.399
3520.385 5.909 6.379 6.899 7.479 8.049 8.629 9.079 9.319 9.469 9.529
3539.674 9.849 10.479 11.109 12.149 14.039 17.089 21.569 28.469 38.719 52.959
3558.964 71.829 94.819 118.709 138.009 150.799 160.059 165.959 164.939 156.159 142.489
3578.254 127.389 112.579 98.189 83.969 68.869 52.989 38.709 27.559 19.749 14.639
3597.544 11.209 9.039 7.829 7.029 6.439 6.059 5.659 5.349 5.039 4.749
3616.833 4.439 4.129 3.719 3.369 3.179 2.839 2.409 1.959 1.709 1.649
3636.123 1.569 1.3836 1.2296 1.0961 0.9743 1.033 1.042 0.9017 0.8557 0.8032
3655.413 0.7045 0.7041 0.6208 0.5515 0.50635 0.6054 0.7213 0.6738 0.6772 0.6977
3674.703 0.6347 0.6921 0.7301 0.717 0.6776 0.6389 0.758 0.828 0.8766 1.0271
3693.993 1.0435 1.0249 1.0675 0.9911 0.8422 0.8421 0.8649 0.887 0.9561 0.8671
3713.282 0.7909 0.8259 0.8372 0.7183 0.6236 0.6407 0.6325 0.52627 0.5817 0.6282
3732.572 0.5567 0.4649 0.3849 0.48319 0.53135 0.4003 0.3406 0.45843 0.3869 0.184
3751.862 0.252 0.318 0.257 0.323 0.45708 0.44572 0.315 0.346 0.3899 0.3419
3771.152 0.49891 0.581 0.53318 0.5671 0.50692 0.6099 0.7009 0.5621 0.49747 0.5226
3790.441 0.445238 0.439456 0.46237 0.344 0.336 0.233 0.098 0.201 0.156 0.105
3809.731 0.239 0.201 0.181 0.168 0.211 0.3781 0.444083 0.448564 0.327 0.04
3829.021 0.05 0.323 0.336 0.243 0.192 0.196 0.225 0.192 0.231 0.232
3848.311 0.226 0.218 0.142 0.149 0.138 0.136 0.194 0.299 0.3901 0.332
3867.601 0.28 0.292 0.317 0.32 0.307 0.302 0.266 0.221 0.187 0.265
3886.890 0.51653 0.6018 0.326 0.282 0.3459 0.3559 0.5719 0.6975 0.648 0.5627
3906.180 0.50059 0.6633 0.5974 0.327 0.3441 0.51134 0.5947 0.3958 0.26 0.272
3925.470 0.289 0.323 0.4265 0.52398 0.5459 0.5095 0.3615 0.285 0.43663 0.6187
3944.760 0.6667 0.4781 0.321 0.4175 0.3618 0.43138 0.43158 0.3622 0.45703 0.4257
3964.049 0.397 0.14 0 0.17 0.252 0.234 0.143 0.288 0.4184 0.337
3983.339 0.336 0.3478 0.291 0.201 0.251 0.3455 0.3566 0.3645 0.29 0.152
##END=
