##TITLE=2,4-Dimethyl-3-hexanol
##JCAMP-DX=4.24
##DATA TYPE=INFRARED SPECTRUM
##ORIGIN=NIST Mass Spectrometry Data Center
##OWNER=NIST Standard Reference Data Program
Collection (C) 2018 copyright by the U.S. Secretary of Commerce
on behalf of the United States of America. All rights reserved.
##CAS REGISTRY NO=13432-25-2
##MOLFORM=C 8 H 18 O
##$NIST SOURCE=MSDC-IR
##SPECTROMETER/DATA SYSTEM=HP-GC/MS/IRD
##STATE=gas
##XUNITS=1/CM
##YUNITS=ABSORBANCE
##XFACTOR=1.0
##YFACTOR=0.000002600
##DELTAX=4.0
##FIRSTX=550.0
##LASTX=3846.0
##FIRSTY=0.000000
##MAXX=3846
##MINX=550
##MAXY=0.026
##MINY=0
##NPOINTS=825
##XYDATA=(X++(Y..Y))
550.0 0 40 83 89 103 97 58 45 67 70
590.0 93 106 106 125 129 142 146 139 145 159
630.0 156 138 126 129 135 127 107 121 139 124
670.0 117 115 115 99 90 91 86 98 92 83
710.0 92 90 86 89 83 84 99 105 100 108
750.0 119 132 156 182 205 214 210 206 200 187
790.0 177 169 175 167 181 182 176 191 221 236
830.0 205 208 218 210 183 170 167 158 152 153
870.0 152 156 175 182 194 216 219 220 218 221
910.0 239 262 282 315 370 444 538 633 728 835
950.0 949 1054 1173 1306 1443 1598 1785 1978 2141 2246
990.0 2276 2198 2032 1817 1579 1346 1162 1014 894 809
1030.0 739 658 591 548 509 490 480 489 513 544
1070.0 595 655 716 783 843 895 929 938 924 873
1110.0 817 776 737 704 691 707 733 779 834 867
1150.0 878 877 853 804 751 688 628 584 549 500
1190.0 484 496 514 543 590 643 692 728 753 770
1230.0 778 790 782 755 730 708 692 672 654 640
1270.0 628 618 613 601 582 567 564 555 542 525
1310.0 505 474 454 458 459 463 449 432 476 536
1350.0 588 662 743 841 1018 1198 1350 1494 1614 1635
1390.0 1558 1384 1154 933 729 592 489 399 386 405
1430.0 426 434 500 637 766 940 1101 1288 1481 1570
1470.0 1533 1392 1234 1029 780 577 457 364 295 196
1510.0 136 153 141 130 138 139 132 113 88 99
1550.0 111 96 74 108 134 132 131 122 130 129
1590.0 125 121 120 122 120 118 113 109 108 113
1630.0 113 91 88 85 73 56 48 77 87 82
1670.0 67 60 58 37 38 56 42 16 25 49
1710.0 53 26 17 46 52 22 5 29 32 15
1750.0 0 13 30 35 25 18 33 37 26 27
1790.0 25 32 35 25 45 54 48 45 42 39
1830.0 44 47 46 27 22 42 50 49 47 42
1870.0 42 57 59 59 57 51 55 64 69 62
1910.0 54 50 46 52 63 64 63 61 52 56
1950.0 62 63 65 68 66 68 74 71 70 64
1990.0 56 56 62 66 66 64 58 60 65 61
2030.0 61 59 53 53 58 62 62 59 52 55
2070.0 63 63 63 63 63 66 62 58 63 65
2110.0 67 67 63 64 62 59 58 62 66 65
2150.0 69 73 66 62 65 65 66 64 65 63
2190.0 60 66 67 66 71 71 66 65 66 63
2230.0 63 69 66 59 60 67 67 66 68 63
2270.0 64 67 66 66 67 67 62 58 56 51
2310.0 49 47 51 51 50 50 55 62 67 66
2350.0 64 65 58 60 62 60 62 71 80 83
2390.0 87 92 94 93 91 94 99 100 97 95
2430.0 94 97 99 99 99 101 97 95 95 93
2470.0 90 89 93 96 91 89 92 89 84 88
2510.0 92 92 96 103 106 105 107 107 110 114
2550.0 118 125 123 123 130 137 138 144 151 159
2590.0 166 165 161 164 174 181 182 182 181 185
2630.0 183 180 184 186 189 192 189 188 189 190
2670.0 200 207 210 211 215 222 220 220 228 233
2710.0 240 254 264 276 291 303 312 319 329 332
2750.0 327 328 328 332 334 338 348 351 361 375
2790.0 387 396 415 439 467 500 531 577 638 705
2830.0 790 898 1027 1171 1330 1512 1711 1947 2240 2616
2870.0 3068 3546 3970 4259 4373 4349 4228 4101 4066 4144
2910.0 4314 4535 4773 5012 5251 5480 5678 5810 5880 5947
2950.0 6187 6760 7691 8804 9710 10000 9509 8311 6698 5090
2990.0 3732 2720 2026 1549 1220 998 842 737 664 602
3030.0 557 522 492 467 446 428 408 393 380 367
3070.0 351 343 346 332 314 313 313 298 289 292
3110.0 283 270 264 262 266 262 260 260 252 244
3150.0 238 243 235 223 224 215 203 199 206 206
3190.0 185 177 176 163 151 145 143 144 137 127
3230.0 125 123 120 125 126 114 108 111 103 96
3270.0 106 102 100 103 103 101 101 102 98 93
3310.0 89 87 94 106 112 105 102 106 103 98
3350.0 98 99 98 101 103 110 106 93 92 101
3390.0 105 100 100 100 92 95 97 99 108 108
3430.0 109 110 106 106 106 112 117 104 104 120
3470.0 117 111 106 92 96 100 101 90 76 82
3510.0 96 109 105 83 69 86 84 84 79 58
3550.0 68 83 84 72 44 61 98 105 98 59
3590.0 67 93 95 109 87 80 111 120 152 164
3630.0 181 255 305 357 383 421 494 540 573 550
3670.0 493 437 365 317 254 197 185 162 134 127
3710.0 104 101 113 89 81 92 58 74 85 79
3750.0 93 107 136 138 122 121 133 125 119 128
3790.0 138 141 135 132 135 139 141 142 136 136
3830.0 140 129 121 129 141
##END=
