##TITLE=N-(3-Methylbutyl)acetamide
##JCAMP-DX=4.24
##DATA TYPE=INFRARED SPECTRUM
##ORIGIN=EPA-IR VAPOR PHASE LIBRARY
##OWNER=SRD/NIST
Collection (C) 2018 copyright by the U.S. Secretary of Commerce
on behalf of the United States of America. All rights reserved.
##CAS REGISTRY NO=13434-12-3
##MOLFORM=C 7 H 15 N O
##$NIST SOURCE=MSDC-IR
##STATE=gas
##XUNITS=1/CM
##YUNITS=ABSORBANCE
##XFACTOR=1.
##YFACTOR=0.001
##DELTAX=1.92898
##FIRSTX=549.8
##LASTX=4000.7
##FIRSTY=1.468
##MAXX=4000.7
##MINX=549.759
##MAXY=0.040898
##MINY=0
##NPOINTS=1790
##XYDATA=(X++(Y..Y))
549.759 1.468 1.0596 0.8729 1.0895 1.208 1.188 1.148 1.1174 0.7783 0.596
569.049 0.8207 0.9238 0.9623 1.238 1.238 0.9607 0.8784 0.9241 0.7604 0.6396
588.339 0.8764 0.8079 0.729 0.7596 0.6901 0.8131 1.05 1.1307 1.0699 0.8761
607.628 0.895 1.188 1.328 1.208 1.298 1.578 1.448 1.508 1.648 1.658
626.918 1.488 1.268 1.158 1.158 1.148 1.0034 0.8914 1.1072 1.318 1.238
646.208 1.1186 0.9124 0.873 0.871 0.6915 0.5895 0.7323 0.8399 0.7303 0.6257
665.498 0.6787 0.5659 0.4601 0.5605 0.3529 0.2779 0.5258 0.5798 0.5734 0.4015
684.787 0.482 0.6428 0.6001 0.6197 0.5151 0.5205 0.5414 0.4756 0.4853 0.5243
704.077 0.6668 0.6264 0.5277 0.639 0.7396 0.768 0.7542 0.6389 0.5281 0.5819
723.367 0.6976 0.703 0.6618 0.6044 0.5275 0.4889 0.5613 0.7177 0.9471 0.9719
742.657 0.7736 0.8211 0.8728 0.8851 1.0183 1.0222 1.148 1.228 1.0963 1.0534
761.947 1.188 1.1283 0.9934 1.0213 0.9877 1.0274 1.138 1.178 1.0937 1.228
781.236 1.208 0.8917 0.8938 1.0913 1.238 1.358 1.378 1.398 1.548 1.518
800.526 1.378 1.408 1.518 1.578 1.588 1.588 1.618 1.788 1.748 1.578
819.816 1.678 1.768 1.708 1.728 1.618 1.678 1.728 1.678 1.698 1.598
839.106 1.328 1.288 1.438 1.408 1.418 1.368 1.398 1.288 1.1082 1.178
858.395 1.168 1.158 1.208 1.228 1.298 1.168 1.1313 1.168 1.188 1.238
877.685 1.178 1.168 1.248 1.218 1.248 1.258 1.198 1.208 1.168 1.218
896.975 1.388 1.298 1.1178 1.168 1.218 1.158 1.298 1.338 1.258 1.318
916.265 1.378 1.328 1.228 1.0931 1.138 1.378 1.328 1.0829 1.0733 1.218
935.555 1.408 1.498 1.338 1.388 1.378 1.198 1.338 1.458 1.428 1.388
954.844 1.418 1.528 1.648 1.698 1.748 1.738 1.628 1.568 1.528 1.478
974.134 1.398 1.418 1.268 1.0762 1.158 1.0297 0.9306 1.148 1.268 1.288
993.424 1.228 1.1091 1.158 1.418 1.368 1.298 1.488 1.388 1.248 1.408
1012.714 1.358 1.218 1.558 1.718 1.518 1.248 1.158 1.308 1.358 1.248
1032.003 1.0908 1.208 1.438 1.448 1.418 1.238 1.408 1.448 1.228 1.1326
1051.293 1.1027 1.268 1.103 1.034 1.1262 0.957 0.9553 1.288 1.228 1.278
1070.583 1.598 1.668 1.678 1.498 1.428 1.778 2.238 2.578 2.578 2.368
1089.873 2.148 2.048 2.008 2.098 2.518 2.428 2.128 1.578 1.448 1.818
1109.163 2.158 2.338 1.938 1.668 1.598 1.538 1.298 1.408 1.498 1.608
1128.452 1.668 1.458 1.578 1.708 1.538 1.438 1.598 1.698 1.838 1.908
1147.742 1.788 1.708 1.918 1.988 1.828 1.858 1.918 2.008 2.248 2.238
1167.032 1.988 1.968 2.208 2.368 2.428 2.358 2.208 2.058 1.998 2.008
1186.322 1.888 1.718 1.698 1.878 1.938 1.808 2.028 2.548 2.958 3.268
1205.611 3.598 3.718 3.998 4.688 5.068 5.278 5.848 6.468 7.228 7.478
1224.901 7.738 8.898 9.628 10.098 10.978 11.688 12.628 13.628 14.408 15.358
1244.191 15.858 16.018 16.098 15.798 15.228 14.528 13.768 12.838 11.658 10.668
1263.481 9.938 9.048 8.288 7.868 7.428 6.948 6.548 6.178 5.968 5.718
1282.771 5.518 5.368 5.058 4.778 4.678 4.618 4.428 4.348 4.408 4.408
1302.060 4.458 4.488 4.448 4.478 4.438 4.398 4.388 4.288 4.208 4.148
1321.350 4.038 3.898 3.698 3.538 3.458 3.388 3.418 3.498 3.588 3.628
1340.640 3.688 3.838 3.968 4.218 4.648 5.088 5.568 6.208 6.978 7.738
1359.930 8.438 9.138 9.708 10.068 10.288 10.328 10.068 9.598 9.138 8.648
1379.219 8.218 7.858 7.468 7.158 6.838 6.518 6.238 5.908 5.608 5.318
1398.509 4.988 4.678 4.448 4.308 4.178 4.088 4.108 4.108 4.118 4.188
1417.799 4.268 4.468 4.748 5.018 5.318 5.688 6.058 6.448 6.908 7.268
1437.089 7.708 8.148 8.488 8.858 9.198 9.488 9.828 10.138 10.538 11.028
1456.378 11.448 11.998 12.658 13.268 13.898 14.678 15.528 16.358 17.228 18.198
1475.668 19.208 20.278 21.368 22.568 23.768 24.838 25.898 26.888 27.638 28.208
1494.958 28.338 28.148 27.718 26.938 25.898 24.548 22.858 21.168 19.548 17.828
1514.248 16.198 14.708 13.338 12.078 10.858 9.818 8.888 8.158 7.538 6.928
1533.538 6.308 5.748 5.268 4.768 4.408 4.088 3.808 3.668 3.508 3.298
1552.827 3.078 2.788 2.548 2.348 2.228 2.278 2.228 2.128 2.018 1.908
1572.117 1.858 1.698 1.648 1.648 1.548 1.558 1.618 1.638 1.528 1.468
1591.407 1.528 1.398 1.378 1.338 1.228 1.238 1.208 1.148 1.138 1.178
1610.697 1.148 1.116 1.198 1.188 1.1247 1.198 1.158 1.148 1.218 1.298
1629.986 1.338 1.368 1.398 1.428 1.478 1.528 1.688 1.788 1.798 1.858
1649.276 1.928 1.928 2.068 2.358 2.518 2.628 2.758 2.968 3.248 3.528
1668.566 3.748 4.008 4.308 4.628 5.098 5.578 6.158 6.778 7.548 8.598
1687.856 9.698 10.998 12.578 14.278 16.388 18.898 21.558 24.828 28.158 31.628
1707.146 34.898 37.598 39.458 40.558 40.898 40.548 39.498 37.778 35.218 31.938
1726.435 28.288 24.688 21.328 18.338 15.628 13.348 11.378 9.658 8.298 7.138
1745.725 6.228 5.488 4.858 4.348 3.918 3.488 3.178 2.898 2.598 2.388
1765.015 2.178 1.998 1.858 1.738 1.628 1.558 1.488 1.398 1.328 1.268
1784.305 1.198 1.1051 1.059 1.0117 0.9254 0.8868 0.8502 0.7792 0.791 0.8113
1803.594 0.7261 0.661 0.6788 0.6835 0.6716 0.6399 0.6105 0.5623 0.5445 0.5261
1822.884 0.5669 0.5973 0.5634 0.5776 0.5324 0.5091 0.5524 0.5486 0.5019 0.5188
1842.174 0.5357 0.5227 0.5404 0.527 0.5197 0.5171 0.5022 0.4822 0.4211 0.4785
1861.464 0.5457 0.482 0.4459 0.4775 0.5067 0.4824 0.4463 0.4639 0.4662 0.4337
1880.754 0.4466 0.458 0.4485 0.4153 0.4407 0.4508 0.4352 0.4173 0.4178 0.5074
1900.043 0.5069 0.4586 0.4381 0.4401 0.5018 0.4873 0.4572 0.4522 0.4208 0.4243
1919.333 0.4852 0.4732 0.4159 0.3915 0.3463 0.3698 0.4129 0.403 0.4315 0.4488
1938.623 0.4348 0.4192 0.4044 0.4037 0.3968 0.4026 0.3692 0.4148 0.4514 0.3991
1957.913 0.3609 0.3492 0.4072 0.405 0.3792 0.4564 0.4612 0.4089 0.4215 0.4449
1977.202 0.4807 0.4866 0.4255 0.4207 0.4586 0.456 0.4054 0.3879 0.4508 0.4936
1996.492 0.4557 0.4593 0.4886 0.4854 0.4945 0.4521 0.3698 0.35 0.3682 0.3802
2015.782 0.3982 0.3927 0.4217 0.418 0.3647 0.3627 0.4075 0.3992 0.3858 0.4122
2035.072 0.3854 0.351 0.3757 0.4351 0.4483 0.4247 0.4198 0.4223 0.4547 0.4914
2054.362 0.4296 0.396 0.4 0.3319 0.3702 0.4258 0.3687 0.3979 0.3937 0.3775
2073.651 0.3991 0.372 0.4012 0.3822 0.3263 0.343 0.3911 0.3629 0.3788 0.4533
2092.941 0.393 0.4048 0.4501 0.4293 0.3806 0.3478 0.3744 0.3573 0.3322 0.3501
2112.231 0.3865 0.3902 0.4014 0.3947 0.3607 0.3551 0.3368 0.3373 0.3756 0.3951
2131.521 0.3668 0.3606 0.4008 0.3723 0.3714 0.4149 0.4193 0.3916 0.3734 0.3752
2150.810 0.3781 0.3969 0.3682 0.3825 0.3928 0.3183 0.2998 0.321 0.3327 0.3334
2170.100 0.3835 0.4178 0.366 0.3143 0.3425 0.3791 0.3434 0.3639 0.4012 0.4108
2189.390 0.348 0.2747 0.2954 0.3513 0.395 0.4388 0.4575 0.3941 0.3399 0.3249
2208.680 0.3018 0.3177 0.3533 0.367 0.3938 0.3992 0.306 0.2835 0.3536 0.3766
2227.970 0.4042 0.3695 0.3033 0.3298 0.3641 0.3182 0.2991 0.2674 0.2817 0.3616
2247.259 0.4435 0.446 0.4262 0.4019 0.3676 0.3557 0.3213 0.3795 0.4379 0.4002
2266.549 0.4057 0.4246 0.4122 0.4551 0.4327 0.4282 0.3783 0.3308 0.3533 0.3446
2285.839 0.3558 0.3288 0.335 0.4092 0.4421 0.3926 0.4154 0.4379 0.3865 0.3833
2305.129 0.4339 0.4649 0.4702 0.4616 0.4402 0.4252 0.3926 0.4247 0.4623 0.4531
2324.418 0.4357 0.3451 0.2963 0.3572 0.3793 0.3559 0.3134 0.3094 0.3499 0.3446
2343.708 0.3566 0.3504 0.3382 0.3444 0.3129 0.3062 0.3485 0.3739 0.3645 0.359
2362.998 0.4087 0.4071 0.3756 0.3608 0.3598 0.4242 0.4179 0.3499 0.3773 0.436
2382.288 0.3839 0.3753 0.4585 0.4603 0.3946 0.3992 0.4644 0.4329 0.4218 0.398
2401.578 0.4117 0.4679 0.3982 0.3907 0.3613 0.3551 0.4008 0.3754 0.3727 0.3873
2420.867 0.386 0.3732 0.3038 0.3444 0.3796 0.352 0.4116 0.4148 0.412 0.4488
2440.157 0.3703 0.3104 0.3097 0.2972 0.3163 0.3289 0.3507 0.3545 0.2973 0.2484
2459.447 0.327 0.3318 0.3227 0.3551 0.3774 0.3851 0.3396 0.3017 0.3062 0.3987
2478.737 0.3955 0.3361 0.3375 0.2989 0.3197 0.383 0.3634 0.3419 0.3453 0.3434
2498.026 0.3217 0.3594 0.4091 0.3499 0.3633 0.419 0.3516 0.3139 0.3085 0.3369
2517.316 0.3993 0.3958 0.3821 0.394 0.3341 0.3439 0.3678 0.343 0.3836 0.3707
2536.606 0.3326 0.3393 0.3053 0.3338 0.4271 0.389 0.3531 0.3808 0.45 0.4815
2555.896 0.4578 0.3904 0.3635 0.3769 0.3432 0.3367 0.3666 0.4241 0.4691 0.4345
2575.186 0.4337 0.4019 0.3618 0.4557 0.4675 0.4565 0.4819 0.4648 0.4598 0.4739
2594.475 0.4837 0.4852 0.4572 0.4773 0.4956 0.4354 0.4041 0.4579 0.468 0.4628
2613.765 0.5562 0.5791 0.5587 0.5029 0.4389 0.4962 0.5359 0.4576 0.3865 0.3911
2633.055 0.4874 0.5402 0.5012 0.4825 0.5131 0.5549 0.5051 0.5591 0.587 0.4412
2652.345 0.4634 0.5232 0.4216 0.432 0.5083 0.5667 0.6204 0.5395 0.5094 0.5051
2671.634 0.5105 0.5382 0.5196 0.5617 0.6057 0.5909 0.5217 0.4573 0.5387 0.5718
2690.924 0.4625 0.5189 0.635 0.6741 0.7226 0.6684 0.6565 0.6654 0.6384 0.7334
2710.214 0.8029 0.7499 0.7707 0.8443 0.7585 0.7104 0.7788 0.9067 0.9186 0.8321
2729.504 0.8933 0.8845 0.8142 0.865 0.8557 0.8177 0.9168 0.9146 0.8415 0.8523
2748.794 0.8699 0.8166 0.7867 0.7924 0.7376 0.7104 0.6673 0.6549 0.7655 0.8261
2768.083 0.7881 0.7236 0.7043 0.7386 0.7894 0.8352 0.903 0.929 0.8609 0.7483
2787.373 0.7502 0.8322 0.8833 0.9509 1.0398 1.0445 0.9598 0.9891 0.9673 0.9704
2806.663 1.0946 1.0773 1.0233 1.178 1.298 1.318 1.448 1.538 1.458 1.508
2825.953 1.678 1.728 1.748 1.858 2.008 2.158 2.278 2.478 2.758 2.988
2845.242 3.178 3.498 3.768 3.918 4.198 4.538 4.848 5.148 5.478 5.748
2864.532 6.058 6.588 7.218 7.748 8.148 8.618 9.098 9.538 9.848 10.108
2883.822 10.368 10.508 10.598 10.588 10.578 10.658 10.728 10.818 11.058 11.408
2903.112 11.728 12.058 12.598 13.148 13.608 14.068 14.498 14.828 15.078 15.388
2922.401 15.648 15.878 16.138 16.298 16.458 16.798 17.128 17.268 17.298 17.318
2941.691 17.508 17.728 17.918 18.188 18.538 19.158 20.038 21.038 22.238 23.608
2960.981 24.858 25.658 25.748 25.338 24.508 23.398 21.898 19.768 17.328 14.908
2980.271 12.608 10.558 8.868 7.588 6.598 5.688 4.978 4.518 4.208 3.908
2999.561 3.458 3.148 3.048 2.778 2.578 2.538 2.408 2.238 2.138 2.128
3018.850 2.028 1.888 1.878 1.898 1.888 1.808 1.758 1.718 1.678 1.648
3038.140 1.578 1.458 1.378 1.428 1.458 1.448 1.488 1.428 1.508 1.528
3057.430 1.448 1.408 1.298 1.228 1.268 1.328 1.268 1.158 1.1141 1.1104
3076.720 1.0836 1.1181 1.138 1.047 1.0123 1.0779 1.0328 0.9234 0.9477 0.9337
3096.009 0.7967 0.7834 0.9017 0.9287 0.8694 0.8497 0.8449 0.8261 0.8175 0.8451
3115.299 0.7626 0.5826 0.6165 0.6776 0.6478 0.6587 0.6681 0.7264 0.6208 0.5745
3134.589 0.6609 0.6128 0.5356 0.4248 0.4608 0.5678 0.5702 0.7097 0.7505 0.6529
3153.879 0.6526 0.7592 0.6564 0.4423 0.4843 0.5958 0.6188 0.5569 0.5486 0.6022
3173.169 0.587 0.5055 0.5278 0.5961 0.684 0.6952 0.6765 0.64 0.5906 0.5586
3192.458 0.5566 0.6396 0.5986 0.5032 0.3645 0.3616 0.4496 0.4762 0.5121 0.4686
3211.748 0.396 0.4014 0.5052 0.5166 0.4263 0.4066 0.4799 0.4593 0.3841 0.4013
3231.038 0.4832 0.3953 0.4022 0.4695 0.4018 0.3733 0.459 0.4684 0.2783 0.4241
3250.328 0.5552 0.4033 0.3551 0.3681 0.3433 0.3048 0.2726 0.3913 0.3711 0.3464
3269.617 0.385 0.375 0.3202 0.19747 0.2854 0.323 0.3305 0.4199 0.4607 0.484
3288.907 0.5207 0.3657 0.2747 0.3225 0.2534 0.2886 0.3381 0.2683 0.3244 0.3721
3308.197 0.376 0.4257 0.3159 0.23581 0.3118 0.4184 0.3467 0.2679 0.4027 0.4324
3327.487 0.3979 0.2574 0.2435 0.3816 0.4099 0.4028 0.4683 0.4593 0.3394 0.316
3346.777 0.3574 0.3817 0.4177 0.4028 0.3308 0.4194 0.4842 0.3903 0.3519 0.433
3366.066 0.3745 0.3626 0.3805 0.4073 0.4732 0.4245 0.5076 0.5971 0.5757 0.6628
3385.356 0.5804 0.5524 0.7273 0.7443 0.6816 0.6512 0.6838 0.741 0.8707 0.9469
3404.646 1.0339 1.0137 0.975 1.0931 1.0661 1.005 1.0563 1.1176 1.0659 1.0055
3423.936 0.9697 0.9153 0.9854 1.0164 0.8997 0.9486 0.988 0.9868 1.0427 1.1171
3443.225 1.198 1.208 1.318 1.428 1.458 1.588 1.678 1.778 1.868 1.908
3462.515 1.978 1.998 2.098 2.208 2.298 2.458 2.438 2.228 2.138 2.088
3481.805 2.058 1.978 1.848 1.758 1.698 1.648 1.558 1.318 1.178 1.0366
3501.095 0.9302 0.8856 0.6848 0.6569 0.634 0.6688 0.6527 0.5818 0.5825 0.5725
3520.385 0.5503 0.4764 0.3301 0.279 0.3207 0.3528 0.3427 0.3097 0.3663 0.3382
3539.674 0.3197 0.376 0.4379 0.2691 0.2408 0.4032 0.373 0.2607 0.2745 0.4026
3558.964 0.4139 0.3345 0.2886 0.22721 0.19132 0.2674 0.2953 0.17676 0.20178 0.22168
3578.254 0.1274 0.15267 0.107 0.17423 0.264 0.22566 0.2441 0.3563 0.4326 0.3424
3597.544 0.265 0.21666 0.3243 0.4047 0.21899 0.140017 0.12879 0.0456 0.0655 0.23084
3616.833 0.2803 0.18673 0.1626 0.2472 0.20941 0.17006 0.21541 0.18932 0.22928 0.22164
3636.123 0.23494 0.2962 0.22758 0.1141 0.1009 0.20418 0.2488 0.2541 0.2853 0.23684
3655.413 0.19666 0.28 0.20796 0.0425 0.1957 0.3232 0.2704 0.2925 0.2603 0.2455
3674.703 0.2827 0.22807 0.20201 0.2393 0.1136 0.0905 0.144802 0.142816 0.2388 0.2648
3693.993 0.2686 0.25 0.17632 0.2391 0.2691 0.18136 0.16683 0.15432 0.02 0
3713.282 0.1304 0.19394 0.22042 0.17351 0.20937 0.16057 0.14074 0.18636 0.20846 0.2672
3732.572 0.2604 0.21441 0.2531 0.4051 0.3729 0.15481 0.032 0.17223 0.21447 0.2383
3751.862 0.301 0.2754 0.2834 0.16441 0.15622 0.3685 0.3009 0.15996 0.2582 0.2512
3771.152 0.2486 0.2851 0.3228 0.2726 0.2607 0.3046 0.3184 0.3227 0.2796 0.2446
3790.441 0.23468 0.2602 0.3054 0.403 0.2491 0.20591 0.2468 0.18655 0.18543 0.1502
3809.731 0.1108 0.15636 0.2743 0.315 0.3003 0.2488 0.2702 0.3385 0.3751 0.298
3829.021 0.16946 0.0711 0.19785 0.2382 0.0507 0.144268 0.22087 0.22793 0.212 0.20291
3848.311 0.3244 0.23563 0.1121 0.17592 0.22145 0.3517 0.3304 0.2482 0.2799 0.3347
3867.601 0.3894 0.3257 0.4024 0.4197 0.3743 0.3712 0.2632 0.3287 0.426 0.2641
3886.890 0.15498 0.15107 0.13181 0.18384 0.18501 0.2436 0.3162 0.1786 0.16741 0.1239
3906.180 0.13678 0.17677 0.12918 0.296 0.3412 0.2458 0.3265 0.3583 0.2864 0.23136
3925.470 0.21778 0.2603 0.18153 0.3341 0.4077 0.3129 0.3041 0.3307 0.2881 0.16815
3944.760 0.2932 0.4709 0.4567 0.3641 0.22758 0.21653 0.3227 0.3808 0.3287 0.3666
3964.049 0.3288 0.1035 0.1202 0.22828 0.2588 0.2435 0.22526 0.2818 0.3009 0.23473
3983.339 0.315 0.3771 0.2969 0.4258 0.4501 0.19088 0.0575 0.0958 0.20495 0.18263
##END=
