##TITLE=Cupferron
##JCAMP-DX=4.24
##DATA TYPE=INFRARED SPECTRUM
##ORIGIN=NIST Mass Spectrometry Data Center
##OWNER=NIST Standard Reference Data Program
Collection (C) 2018 copyright by the U.S. Secretary of Commerce
on behalf of the United States of America. All rights reserved.
##CAS REGISTRY NO=135-20-6
##MOLFORM=C 6 H 9 N 3 O 2
##$NIST SOURCE=MSDC-IR
##SPECTROMETER/DATA SYSTEM=HP-GC/MS/IRD
##STATE=gas
##XUNITS=1/CM
##YUNITS=ABSORBANCE
##XFACTOR=1.0
##YFACTOR=0.000001500
##DELTAX=4.0
##FIRSTX=550.0
##LASTX=3846.0
##FIRSTY=0.000168
##MAXX=3846
##MINX=550
##MAXY=0.015
##MINY=0
##NPOINTS=825
##XYDATA=(X++(Y..Y))
550.0 112 101 157 145 85 80 41 4 49 117
590.0 124 74 61 65 88 116 118 124 147 131
630.0 158 258 296 347 449 659 936 1146 1344 1560
670.0 1776 2012 2517 2556 2145 1969 1794 1641 1535 1383
710.0 1219 1182 1311 1529 1841 2298 2682 2971 3565 4788
750.0 4927 3775 3300 3230 2974 2587 2192 1897 1718 1704
790.0 1870 2022 2237 2541 2796 2915 2783 2432 1993 1540
830.0 1193 1035 1024 1017 982 960 917 792 610 456
870.0 399 415 403 379 382 387 394 426 485 520
910.0 545 594 630 643 685 694 602 551 536 483
950.0 413 338 269 234 280 312 297 325 374 400
990.0 433 464 524 645 762 885 930 849 768 778
1030.0 716 581 487 481 569 600 669 771 838 907
1070.0 1038 1304 1692 2253 3117 4324 5789 7180 8093 8415
1110.0 8280 7685 6359 4432 2747 1786 1263 886 708 662
1150.0 631 637 665 729 819 794 659 537 495 347
1190.0 135 54 40 31 11 0 22 36 47 57
1230.0 82 112 130 151 176 210 238 242 255 295
1270.0 327 351 388 404 410 477 613 818 1020 1108
1310.0 1121 1102 1077 954 670 432 313 270 269 268
1350.0 253 222 201 187 176 194 211 220 220 216
1390.0 216 206 212 203 206 264 301 343 447 623
1430.0 904 1359 2062 2822 3298 3611 3819 3961 3600 2584
1470.0 1863 1576 1380 1143 994 1069 1452 2331 4078 6769
1510.0 9079 9902 10000 9706 9313 7270 3911 1813 986 664
1550.0 520 444 403 371 359 366 375 380 366 373
1590.0 409 450 467 449 431 435 427 386 336 312
1630.0 292 260 230 194 184 198 190 174 188 215
1670.0 226 238 254 242 226 215 217 216 184 189
1710.0 190 155 146 159 150 137 155 170 179 187
1750.0 180 188 204 211 227 234 234 218 221 250
1790.0 263 291 316 311 293 271 253 228 189 165
1830.0 160 160 158 151 137 129 144 157 145 145
1870.0 170 188 216 237 250 295 309 316 351 367
1910.0 351 337 312 283 258 253 248 238 247 266
1950.0 276 285 295 304 306 283 258 234 211 169
1990.0 148 133 114 120 123 126 116 117 117 110
2030.0 109 107 102 100 86 81 93 96 92 82
2070.0 81 88 95 92 85 82 79 78 85 108
2110.0 97 72 71 90 95 82 86 74 77 85
2150.0 96 95 68 71 83 73 89 108 96 89
2190.0 91 90 107 125 118 111 111 99 96 99
2230.0 98 99 93 84 87 96 95 84 58 53
2270.0 66 65 62 67 88 100 97 95 101 110
2310.0 123 126 126 129 142 152 145 143 138 109
2350.0 85 76 101 115 113 102 73 76 75 56
2390.0 62 80 74 77 85 104 107 84 68 59
2430.0 48 52 58 60 74 68 76 82 58 48
2470.0 56 63 63 69 59 32 28 43 47 47
2510.0 50 51 59 49 38 41 38 47 39 14
2550.0 9 25 47 36 26 21 47 49 58 88
2590.0 81 69 75 72 66 64 49 73 84 57
2630.0 52 47 54 80 54 34 41 47 53 46
2670.0 57 75 80 77 67 60 73 85 110 103
2710.0 58 32 33 53 45 50 64 44 53 61
2750.0 69 61 54 60 69 61 14 6 31 57
2790.0 44 26 41 29 41 80 64 26 23 30
2830.0 36 51 64 47 31 52 62 55 53 45
2870.0 55 76 74 68 93 133 101 85 106 91
2910.0 111 114 76 71 79 64 86 117 126 152
2950.0 172 219 236 217 193 154 128 107 100 122
2990.0 123 109 131 162 188 226 239 242 326 403
3030.0 448 500 556 632 736 852 997 1240 1556 1837
3070.0 2035 2130 2140 2059 1833 1483 1085 798 613 458
3110.0 376 304 272 205 143 151 118 62 65 112
3150.0 104 72 58 51 60 94 79 70 96 86
3190.0 78 78 79 74 74 92 76 59 47 45
3230.0 55 66 100 78 31 42 96 108 95 89
3270.0 44 48 70 79 82 33 10 11 23 45
3310.0 63 43 39 47 90 99 65 72 89 125
3350.0 121 97 58 19 41 95 90 71 80 68
3390.0 71 78 95 117 97 87 124 125 84 100
3430.0 100 65 79 81 65 84 80 84 125 152
3470.0 117 84 110 100 73 87 84 74 71 33
3510.0 4 33 78 70 47 82 85 65 83 100
3550.0 74 38 77 100 77 88 108 84 102 94
3590.0 86 96 90 73 35 35 80 148 173 153
3630.0 155 167 137 117 83 142 209 162 98 39
3670.0 88 172 161 116 134 149 146 157 156 183
3710.0 207 180 160 167 201 209 173 179 177 187
3750.0 255 209 154 150 145 160 162 155 178 184
3790.0 178 175 141 121 157 152 106 99 76 96
3830.0 150 175 175 176 195
##END=
