##TITLE=2-Methyl-6-nitrobenzoic acid
##JCAMP-DX=4.24
##DATA TYPE=INFRARED SPECTRUM
##ORIGIN=EPA-IR VAPOR PHASE LIBRARY
##OWNER=SRD/NIST
Collection (C) 2018 copyright by the U.S. Secretary of Commerce
on behalf of the United States of America. All rights reserved.
##CAS REGISTRY NO=13506-76-8
##MOLFORM=C 8 H 7 N O 4
##$NIST SOURCE=MSDC-IR
##STATE=gas
##XUNITS=1/CM
##YUNITS=ABSORBANCE
##XFACTOR=1.
##YFACTOR=0.001
##DELTAX=1.92898
##FIRSTX=549.8
##LASTX=4000.7
##FIRSTY=8.156
##MAXX=4000.7
##MINX=549.759
##MAXY=0.080826
##MINY=0
##NPOINTS=1790
##XYDATA=(X++(Y..Y))
549.759 8.156 8.686 8.986 9.046 8.406 7.386 7.476 7.316 6.896 7.166
569.049 7.326 6.916 6.756 6.386 5.906 5.686 5.706 5.726 5.646 5.296
588.339 4.866 4.956 5.236 5.556 4.866 4.166 3.706 3.166 3.706 3.826
607.628 3.056 2.736 2.386 2.366 2.416 2.026 1.636 1.446 2.166 2.506
626.918 1.836 1.816 2.416 2.126 1.856 2.456 3.236 3.766 4.266 5.636
646.208 7.396 9.226 11.096 12.306 13.686 14.886 14.476 13.426 12.736 11.056
665.498 8.556 6.376 5.046 3.826 2.566 2.436 2.336 2.166 2.066 1.4302
684.787 1.4705 2.186 2.546 2.556 2.436 2.406 2.066 2.216 2.506 2.266
704.077 2.536 2.836 2.946 3.366 3.746 4.396 5.126 5.426 6.076 6.886
723.367 7.616 8.356 9.196 9.706 10.106 11.566 13.036 14.296 15.526 16.566
742.657 17.536 18.546 19.356 19.396 18.966 18.296 17.626 17.066 16.426 15.316
761.947 13.976 12.996 12.286 10.946 9.876 9.426 8.536 7.596 6.886 6.476
781.236 5.536 4.716 4.406 4.296 4.356 4.826 5.386 5.506 5.986 6.996
800.526 8.836 10.676 11.276 10.586 10.086 10.236 9.546 8.566 7.746 6.546
819.816 4.716 3.646 3.156 2.616 2.476 2.446 2.266 1.916 1.876 1.846
839.106 1.796 1.666 1.2537 0.8061 0.6833 1.0353 1.5008 1.4519 1.328 1.3604
858.395 1.3889 1.0353 0.7362 0.9036 1.3311 1.736 1.626 1.3259 1.4003 1.3459
877.685 1.3817 1.756 1.3669 1.0591 1.1504 0.9655 1.1938 1.3603 1.536 2.176
896.975 2.336 2.426 2.396 2.676 2.876 2.686 2.886 3.256 3.806 4.296
916.265 4.666 4.606 4.316 3.856 3.306 3.126 2.966 3.006 2.626 2.066
935.555 2.086 1.936 1.736 1.696 1.896 2.226 1.836 1.4265 1.1643 1.192
954.844 1.3385 1.3431 1.626 1.546 1.566 1.3572 1.3206 1.3219 1.2245 1.686
974.134 1.906 1.936 1.686 1.4894 1.3376 1.4379 1.876 1.856 1.626 1.576
993.424 1.866 2.016 2.126 2.046 2.066 1.936 1.786 2.006 2.176 2.546
1012.714 2.626 1.866 1.836 2.576 2.846 2.786 2.676 3.196 3.676 3.646
1032.003 3.756 4.486 4.526 4.316 4.796 5.536 6.596 7.606 9.366 11.516
1051.293 13.156 15.506 16.906 18.796 21.536 22.016 22.006 22.296 21.796 20.026
1070.583 17.866 16.646 16.036 14.746 13.146 12.436 11.346 11.486 13.146 14.346
1089.873 14.696 16.046 18.196 19.256 21.066 22.406 22.896 22.986 20.046 17.286
1109.163 16.426 14.566 13.146 11.716 9.666 7.186 6.416 5.896 5.276 5.736
1128.452 5.416 5.116 5.186 5.926 6.476 6.896 7.696 8.436 9.146 10.406
1147.742 11.236 11.226 11.896 12.226 13.096 14.306 16.036 17.446 17.066 16.806
1167.032 17.646 18.846 20.156 21.946 23.156 23.546 24.116 24.456 23.936 22.886
1186.322 21.936 21.876 20.836 18.556 16.596 14.136 12.526 12.496 11.606 10.406
1205.611 9.146 6.586 5.076 5.616 5.556 4.436 3.876 4.586 5.276 4.666
1224.901 4.476 4.986 4.886 4.876 4.946 5.286 5.006 4.916 5.436 5.426
1244.191 5.616 5.676 5.356 5.376 6.036 6.836 6.926 7.046 7.336 7.626
1263.481 7.946 8.696 9.046 9.196 9.586 9.316 9.346 9.536 10.136 10.786
1282.771 11.066 11.206 11.056 10.786 10.826 11.046 10.626 9.946 9.926 9.736
1302.060 9.226 8.916 8.606 8.396 8.376 8.376 8.546 8.856 9.396 9.826
1321.350 10.096 10.846 11.676 12.506 13.666 14.976 16.296 17.516 18.756 20.256
1340.640 21.716 23.226 24.986 26.966 29.416 31.886 33.966 35.786 37.106 37.596
1359.930 37.366 36.196 34.016 31.046 27.316 23.116 19.086 15.696 13.006 11.006
1379.219 9.546 8.516 7.786 7.276 6.856 6.356 5.936 5.716 5.496 4.956
1398.509 4.526 4.146 3.776 3.606 3.326 2.996 2.956 3.106 3.176 3.346
1417.799 3.566 3.686 3.876 4.126 4.336 4.486 4.786 5.086 5.346 5.666
1437.089 5.816 5.996 6.146 6.486 6.736 6.646 6.646 6.696 6.926 7.296
1456.378 7.426 7.396 7.506 7.466 7.146 6.926 6.726 6.186 5.496 5.116
1475.668 4.786 4.506 4.276 3.966 3.886 3.966 3.856 3.786 3.816 4.026
1494.958 4.336 4.636 4.896 4.996 5.516 6.126 6.526 7.046 7.806 8.666
1514.248 9.506 10.476 11.466 12.586 14.036 15.416 16.786 18.236 19.596 21.216
1533.538 22.996 25.036 27.876 31.596 36.256 41.476 46.686 51.206 54.516 56.746
1552.827 57.386 56.566 54.106 50.076 45.356 39.716 33.796 28.876 25.126 22.256
1572.117 20.426 19.166 17.946 16.766 15.436 13.856 12.296 10.886 9.786 8.946
1591.407 7.976 7.246 6.576 6.046 5.736 5.406 5.086 4.966 5.096 5.006
1610.697 4.646 4.396 4.326 4.136 3.786 3.586 3.506 3.136 2.856 2.856
1629.986 2.856 2.646 2.476 2.406 2.186 2.126 2.126 2.046 2.016 1.986
1649.276 1.896 1.936 1.956 2.046 2.186 2.176 2.096 2.106 2.146 1.866
1668.566 1.746 1.916 1.886 1.886 1.996 1.876 1.726 1.836 1.946 1.866
1687.856 1.956 2.046 2.056 2.216 2.156 2.086 2.156 2.236 2.506 2.546
1707.146 2.516 2.716 2.846 2.776 2.776 2.906 2.946 3.176 3.406 3.636
1726.435 4.066 4.306 4.626 5.146 5.626 6.246 7.106 8.016 8.996 10.166
1745.725 11.576 13.176 14.776 16.316 18.126 20.446 23.396 27.286 32.196 38.046
1765.015 44.796 52.146 59.556 66.946 74.476 80.106 80.826 75.696 67.036 58.256
1784.305 50.186 42.146 34.296 27.336 21.716 17.576 14.706 12.716 11.226 9.976
1803.594 8.876 7.816 6.936 5.986 5.156 4.676 4.236 3.776 3.366 3.156
1822.884 2.966 2.796 2.726 2.636 2.526 2.346 2.146 2.126 2.006 1.866
1842.174 1.786 1.826 1.856 1.806 1.856 1.816 1.716 1.576 1.5239 1.4561
1861.464 1.4893 1.596 1.716 1.766 1.676 1.646 1.606 1.616 1.826 1.916
1880.754 1.896 1.846 1.696 1.4926 1.4169 1.5055 1.4221 1.3512 1.244 1.0856
1900.043 1.0856 0.9981 0.9212 0.7874 0.7543 0.9203 0.8886 0.8865 1.0072 0.9542
1919.333 0.816 0.7815 0.7411 0.8394 1.0147 0.9624 0.9923 1.1218 1.2163 1.3091
1938.623 1.3325 1.2867 1.343 1.4486 1.3636 1.3165 1.3429 1.3005 1.1425 1.1052
1957.913 0.9813 0.7115 0.60431 0.6497 0.58956 0.5026 0.654 0.706 0.59412 0.6812
1977.202 0.8681 0.8298 0.8403 0.7492 0.63356 0.7458 0.7484 0.7199 0.6799 0.4975
1996.492 0.328 0.336 0.422 0.6482 0.8823 0.7868 0.59252 0.5008 0.369 0.326
2015.782 0.4868 0.6419 0.53729 0.404 0.4636 0.62396 0.56777 0.307 0.37 0.4792
2035.072 0.345 0.411 0.60607 0.6835 0.62047 0.61387 0.58771 0.55256 0.60937 0.4753
2054.362 0.405 0.488 0.61278 0.6487 0.59238 0.4848 0.4737 0.434 0.413 0.4562
2073.651 0.5024 0.4608 0.369 0.4662 0.60838 0.672 0.7092 0.6786 0.6383 0.6585
2092.941 0.5189 0.438 0.427 0.4801 0.59467 0.7782 0.8464 0.62917 0.60526 0.6975
2112.231 0.7853 0.7245 0.6796 0.7417 0.63338 0.5019 0.4504 0.4817 0.6416 0.7837
2131.521 0.6702 0.60403 0.7479 0.7366 0.6542 0.6499 0.57132 0.6882 0.7687 0.59803
2150.810 0.5023 0.62829 0.8073 0.8081 0.649 0.649 0.8044 0.6543 0.58425 0.7256
2170.100 0.56794 0.5249 0.6759 0.6872 0.7483 0.806 0.7976 0.7756 0.7224 0.7478
2189.390 0.7522 0.7153 0.7387 0.7888 0.7746 0.6892 0.8041 0.7137 0.6405 0.8099
2208.680 0.795 0.6948 0.6665 0.7069 0.56578 0.424 0.5044 0.62647 0.59764 0.58148
2227.970 0.57108 0.58688 0.5867 0.58487 0.55678 0.543747 0.6706 0.60511 0.61815 0.6758
2247.259 0.62384 0.55968 0.52934 0.6751 0.7084 0.52984 0.5079 0.4728 0.4905 0.6735
2266.549 0.59254 0.4924 0.4891 0.395 0.415 0.5119 0.63126 0.8114 0.9359 0.8633
2285.839 0.6949 0.6372 0.8353 1.0994 1.1176 0.9464 0.9764 1.1207 1.1018 1.0765
2305.129 1.0975 1.2198 1.4413 1.566 1.4519 1.4097 1.546 1.696 1.696 1.636
2324.418 1.676 1.716 1.606 1.596 1.766 1.836 1.726 1.636 1.4598 1.4476
2343.708 1.546 1.4901 1.3157 1.4229 1.666 1.806 1.906 1.886 1.956 1.856
2362.998 1.926 2.116 2.176 2.076 1.816 1.806 1.696 1.2607 1.1476 1.1963
2382.288 1.1016 0.9966 0.8974 0.8934 0.7801 0.6993 0.62293 0.497 0.55418 0.5549
2401.578 0.4711 0.53432 0.6816 0.7418 0.6847 0.62677 0.59258 0.667 0.8259 0.9392
2420.867 0.8385 0.7573 0.83 0.7609 0.8182 0.7838 0.58979 0.6412 0.58716 0.536298
2440.157 0.4415 0.4553 0.6364 0.61663 0.6612 0.7151 0.6904 0.55112 0.4957 0.60295
2459.447 0.788 0.9252 0.9814 0.8825 0.8193 0.8231 0.8352 0.8764 0.7856 0.8133
2478.737 0.8525 0.6421 0.5001 0.431 0.55041 0.7367 0.52728 0.4927 0.707 0.60317
2498.026 0.4983 0.62219 0.56903 0.41 0.53101 0.782 0.8011 0.7093 0.61404 0.4431
2517.316 0.365 0.4627 0.55806 0.56846 0.61822 0.544897 0.5233 0.5568 0.4789 0.63273
2536.606 0.7543 0.57873 0.391 0.61084 0.6925 0.6387 0.5642 0.56116 0.6566 0.60634
2555.896 0.7361 0.6497 0.53373 0.60183 0.6717 0.696 0.7453 0.7028 0.6392 0.545516
2575.186 0.398 0.428 0.4926 0.57367 0.6765 0.6824 0.7061 0.6738 0.5076 0.4427
2594.475 0.540078 0.6094 0.5064 0.6727 0.7172 0.698 0.7779 0.7239 0.60683 0.57458
2613.765 0.6769 0.7061 0.721 0.62586 0.543288 0.4845 0.4654 0.4608 0.4723 0.4591
2633.055 0.263 0.358 0.7221 0.7346 0.7594 0.7181 0.540061 0.4915 0.56242 0.7335
2652.345 0.6426 0.277 0.194 0.5013 0.698 0.7277 0.56068 0.537594 0.7839 0.8288
2671.634 0.7379 0.6586 0.4808 0.408 0.6749 0.836 0.52958 0.5142 0.61779 0.52836
2690.924 0.62917 0.7025 0.7977 0.8601 0.835 0.838 0.7255 0.52752 0.398 0.4397
2710.214 0.5022 0.56958 0.55261 0.6702 0.9307 0.7586 0.56727 0.9336 1.1583 0.9209
2729.504 0.8172 0.7 0.7183 0.6706 0.58789 0.55857 0.5097 0.53766 0.61537 0.6751
2748.794 0.6384 0.8278 0.9655 0.6822 0.498 0.7071 0.9777 0.9217 0.8287 0.9289
2768.083 0.7983 0.7378 0.691 0.6476 0.6734 0.61365 0.456 0.382 0.4662 0.647
2787.373 0.8262 0.7533 0.62541 0.61777 0.6361 0.68 0.7342 0.6863 0.7441 0.7958
2806.663 0.8546 0.7999 0.662 0.7163 0.8665 0.8624 0.60064 0.57385 0.7037 0.7261
2825.953 0.7919 0.8292 0.8021 0.7896 0.8497 0.9622 1.0266 1.0448 0.9823 0.8669
2845.242 0.9188 1.0462 1.1878 1.3516 1.3369 1.3892 1.4043 1.1469 1.1555 1.2274
2864.532 1.3631 1.706 1.786 1.816 1.996 2.156 2.296 2.556 2.536 2.386
2883.822 2.226 2.106 2.286 2.376 2.186 2.096 2.216 2.206 2.466 2.646
2903.112 2.486 2.306 2.296 2.326 2.216 2.066 1.856 1.896 2.056 2.316
2922.401 2.466 2.326 2.576 2.606 2.386 2.736 2.996 3.096 3.366 3.696
2941.691 3.786 3.616 3.556 3.586 3.416 3.006 2.966 3.066 2.796 2.556
2960.981 2.266 2.076 2.036 2.046 2.286 2.366 2.126 1.946 2.006 2.146
2980.271 2.456 2.526 2.346 2.586 2.566 2.156 2.296 2.546 2.616 2.676
2999.561 2.616 2.256 2.176 2.346 2.206 2.016 1.926 1.966 1.876 1.806
3018.850 1.826 1.566 1.576 1.836 1.866 1.926 1.936 1.926 2.226 2.366
3038.140 2.366 2.216 2.176 2.466 2.436 2.536 2.456 2.086 1.926 2.056
3057.430 2.126 2.066 2.526 2.626 2.676 3.036 3.126 3.006 3.276 3.696
3076.720 3.726 3.576 3.276 2.996 2.916 2.706 2.426 2.386 2.176 1.926
3096.009 1.656 1.646 1.576 1.3006 1.4904 1.3097 0.7797 0.7321 0.928 0.8856
3115.299 0.6708 0.9143 1.0704 0.8415 0.8208 0.9853 0.9676 0.9218 0.8242 0.7195
3134.589 0.8338 0.7807 0.8382 1.0088 1.0029 0.9447 0.7255 0.8125 0.9563 0.9172
3153.879 0.8164 0.6367 0.8931 0.7879 0.6499 0.6872 0.55224 0.5198 0.227 0.261
3173.169 0.34 0.59286 0.684 0.55496 0.7371 0.7326 0.4972 0.367 0.4559 0.59972
3192.458 0.57813 0.4625 0.4377 0.206 0.384 0.7609 0.8173 0.7705 0.8638 0.9568
3211.748 0.7595 0.6399 0.8217 0.7327 0.5079 0.455 0.61694 0.7825 0.7106 0.63081
3231.038 0.58416 0.6695 0.8452 0.6742 0.62127 0.7693 0.8082 0.9791 0.7875 0.382
3250.328 0.311 0.4875 0.395 0.259 0.57863 0.9294 1.0052 0.9397 0.7799 0.7282
3269.617 0.7892 0.7193 0.7394 0.8564 0.52963 0.403 0.60792 0.386 0.207 0.343
3288.907 0.316 0.042 0 0.093 0.27 0.7001 0.6595 0.4404 0.54429 0.5722
3308.197 0.54864 0.9175 1.0425 0.60563 0.403 0.259 0.27 0.4539 0.7627 0.7582
3327.487 0.7708 0.8328 0.6717 0.7403 0.434 0.222 0.509 0.823 0.8726 0.9703
3346.777 0.8837 0.55136 0.432 0.543762 0.59182 0.324 0.331 0.352 0.348 0.6643
3366.066 0.7052 0.5041 0.394 0.5167 0.6315 0.521 0.439 0.61146 0.8426 0.6595
3385.356 0.4572 0.62712 0.6543 0.4949 0.7067 0.9384 0.8998 0.60129 0.55802 0.6997
3404.646 0.63416 0.60366 0.4788 0.5194 0.56107 0.64 0.8392 0.716 0.5131 0.208
3423.936 0.024 0.323 0.443 0.326 0.298 0.407 0.4839 0.56305 0.63546 0.8484
3443.225 0.7805 0.5227 0.777 0.8322 0.8173 0.8856 1.0005 1.052 0.9515 0.6813
3462.515 0.55072 0.7424 0.6262 0.271 0.241 0.319 0.368 0.5601 0.9519 1.3368
3481.805 1.2151 1.0611 0.8832 0.7416 0.59991 0.5222 0.8825 0.61841 0.19 0.5011
3501.095 0.729 0.55255 0.6911 0.8843 0.8995 0.9183 0.9009 0.8107 0.8759 1.1417
3520.385 0.9804 1.2807 1.3912 1.3601 1.5081 1.2721 1.3961 1.5087 1.876 2.456
3539.674 2.436 2.336 2.776 3.436 3.766 4.636 6.496 8.726 11.946 16.326
3558.964 20.766 24.666 27.486 28.696 29.036 29.326 28.546 25.696 21.926 17.526
3578.254 12.746 9.106 7.056 5.746 4.756 3.986 3.376 2.766 2.216 2.126
3597.544 2.046 1.676 1.596 1.1183 0.785 1.0584 0.9104 0.7973 0.8213 1.049
3616.833 1.2181 1.3044 1.3174 1.2142 1.3386 1.0637 0.8393 0.7995 0.4408 0.7308
3636.123 1.0338 0.7505 0.9216 0.9803 0.6552 0.5211 0.6836 0.7722 0.8567 1.1176
3655.413 1.1924 0.9506 0.61648 0.6751 0.7385 0.7776 0.7222 0.52606 0.4673 0.59236
3674.703 0.6837 0.951 1.0816 0.6386 0.321 0.43 0.6469 0.63306 0.5792 0.8952
3693.993 0.8532 0.7446 1.1939 0.903 0.434 0.61257 0.9927 0.8674 0.6417 0.5794
3713.282 0.54753 0.58368 0.42 0.4874 0.5098 0.5055 0.4999 0.61806 0.7266 0.6922
3732.572 0.7793 0.8179 0.9187 0.6791 0.8426 0.751 0.218 0.5071 0.4546 0.5036
3751.862 0.9188 0.6628 0.5216 0.6419 0.5717 0.419 0.4823 0.55157 0.304 0.353
3771.152 0.417 0.5171 0.8414 0.7837 0.4836 0.62434 0.63045 0.313 0.342 0.327
3790.441 0.52982 0.853 0.7342 0.5186 0.4692 0.54815 0.6429 0.7376 0.8701 0.7678
3809.731 0.7399 0.6773 0.53303 0.6458 0.7047 0.8449 0.6807 0.5206 0.56303 0.7491
3829.021 0.5588 0.266 0.7051 0.7934 0.7707 1.021 0.9411 0.62133 0.543341 0.7863
3848.311 1.0473 0.9643 0.6358 0.52874 0.54735 0.58293 0.6068 0.6691 0.535554 0.4862
3867.601 0.57164 0.335 0.4546 0.7696 0.6619 0.59222 0.5129 0.121 0.291 0.57566
3886.890 0.208 0.239 0.7434 0.7439 0.6944 0.57379 0.4614 0.63087 0.55878 0.4737
3906.180 0.5249 0.56238 0.6846 0.7814 0.7669 0.7541 0.63052 0.398 0.4755 0.6529
3925.470 0.383 0.167 0.24 0.56997 0.5225 0.159 0.355 0.7503 0.7481 0.379
3944.760 0.321 0.4388 0.367 0.316 0.5244 0.6603 0.5099 0.6828 0.8259 0.5096
3964.049 0.219 0.202 0.328 0.537368 0.57275 0.5144 0.7029 0.7823 0.6907 0.6509
3983.339 0.7312 0.8605 1.0491 1.0052 0.542092 0.371 0.25 0.293 0.6664 0.8968
##END=
