##TITLE=5-Amino-2,2-dimethylpentanol
##JCAMP-DX=4.24
##DATA TYPE=INFRARED SPECTRUM
##ORIGIN=EPA-IR VAPOR PHASE LIBRARY
##OWNER=SRD/NIST
Collection (C) 2018 copyright by the U.S. Secretary of Commerce
on behalf of the United States of America. All rights reserved.
##CAS REGISTRY NO=13532-77-9
##MOLFORM=C 7 H 17 N O
##$NIST SOURCE=MSDC-IR
##STATE=gas
##XUNITS=1/CM
##YUNITS=ABSORBANCE
##XFACTOR=1.
##YFACTOR=0.001
##DELTAX=1.92898
##FIRSTX=549.8
##LASTX=4000.7
##FIRSTY=1.5125
##MAXX=4000.7
##MINX=549.759
##MAXY=0.0321725
##MINY=0
##NPOINTS=1790
##XYDATA=(X++(Y..Y))
549.759 1.5125 1.2525 1.3725 1.5025 1.3825 1.3725 1.4325 1.5025 1.5825 1.7025
569.049 1.6925 1.4725 1.2325 1.2525 1.4425 1.6625 1.6925 1.3125 1.0425 1.0525
588.339 1.0925 1.2025 1.2425 1.1625 0.9466 0.9773 1.2225 1.2725 1.3525 1.3925
607.628 1.3325 1.3925 1.5025 1.4125 1.1725 1.2825 1.5425 1.4425 1.4725 1.4125
626.918 1.2525 1.5025 1.5025 1.4725 1.5625 1.5025 1.5525 1.6025 1.5525 1.6525
646.208 1.7725 1.7425 1.6525 1.5825 1.6925 1.8325 1.8625 1.8925 1.9425 1.8125
665.498 1.6725 1.7025 1.7725 1.8525 1.9325 1.8825 1.8525 1.9825 2.1425 2.2525
684.787 2.3125 2.3625 2.4425 2.3325 2.0925 2.3325 2.5625 2.5025 2.6325 2.7725
704.077 2.8425 3.0525 3.2225 3.2125 3.3325 3.5025 3.5925 3.7725 4.0125 4.3525
723.367 4.5025 4.6225 4.8525 4.9925 5.3125 5.5725 5.7125 5.9925 6.3125 6.6425
742.657 6.9625 7.2225 7.3325 7.3925 7.5325 7.6525 8.0325 8.2625 8.1825 8.4425
761.947 8.7825 8.9825 9.0725 9.2125 9.3725 9.3225 9.2225 9.3025 9.3225 9.1825
781.236 8.9525 8.6725 8.2825 7.8225 7.2225 6.6925 6.2925 5.8925 5.4625 5.0925
800.526 4.8225 4.4525 4.0425 3.6625 3.7125 3.6725 3.3525 3.1325 3.0025 3.0125
819.816 2.9925 2.7725 2.6425 2.7325 2.8025 2.7225 2.6225 2.6225 2.7325 2.8425
839.106 2.6725 2.5925 2.5925 2.5725 2.4525 2.2525 2.2425 2.2425 2.2925 2.3925
858.395 2.3625 2.3125 2.3225 2.3025 2.1925 2.2925 2.3825 2.3625 2.3525 2.2925
877.685 2.3725 2.4325 2.4225 2.3825 2.4125 2.5725 2.6625 2.7325 2.7425 2.7425
896.975 2.7525 2.7125 2.6625 2.4425 2.4125 2.5025 2.4525 2.3025 2.1425 1.9525
916.265 1.8325 1.7725 1.7425 1.8625 1.8625 1.8725 1.9025 1.9325 2.0025 1.9125
935.555 1.8025 1.8725 1.8725 1.7725 1.8525 1.9425 1.9625 1.9325 1.9825 2.1525
954.844 2.2725 2.1925 2.2125 2.2025 2.1925 2.3525 2.5025 2.5925 2.6325 2.7825
974.134 2.8025 2.7425 2.8425 2.9325 2.9825 3.0325 3.2125 3.1925 3.3425 3.6825
993.424 3.7525 3.9225 4.0625 4.3125 4.6625 4.8825 5.1525 5.6225 6.0825 6.7725
1012.714 7.5625 8.1725 8.8825 9.6625 10.5725 11.4525 12.2525 13.2625 14.2725 15.0725
1032.003 15.8825 16.6425 17.4525 18.1825 18.5425 18.7325 18.5625 18.3825 18.2025 17.5225
1051.293 16.5825 15.7225 14.8225 13.5425 12.3525 11.4025 10.5325 9.6225 8.5525 8.1125
1070.583 7.8725 7.0525 6.5125 6.2025 5.5425 5.1725 4.8125 4.2525 4.1125 3.9125
1089.873 3.4325 3.3425 3.0225 2.4925 2.4725 2.6825 2.4025 1.8025 1.8925 2.1125
1109.163 2.2625 2.4725 2.0525 2.0425 2.3425 2.1025 2.0625 2.1925 2.0025 2.0225
1128.452 2.1925 2.1225 2.0025 1.9625 2.2725 2.5325 2.3525 2.5225 2.8025 2.4425
1147.742 2.1425 2.3225 2.5425 2.5025 2.4525 2.6025 2.6625 2.6425 2.6125 2.4925
1167.032 2.5425 2.5125 2.3525 2.6425 2.8825 2.8425 2.6425 2.6225 2.7225 2.5725
1186.322 2.4625 2.4425 2.4225 2.3525 2.5125 2.6225 2.3725 2.2525 2.0225 1.7925
1205.611 2.0325 2.4525 2.6425 2.1825 2.0525 2.0325 1.7525 1.8225 2.1625 2.3025
1224.901 2.2925 2.2625 1.9825 1.7825 1.8925 1.9725 2.1425 2.1925 2.1325 2.2525
1244.191 2.3125 2.3325 2.3825 2.5125 2.5925 2.5025 2.4125 2.5125 2.7025 2.6925
1263.481 2.6325 2.6725 2.6225 2.5925 2.4325 2.3525 2.3925 2.4525 2.6025 2.5625
1282.771 2.4425 2.4425 2.4625 2.4125 2.4125 2.4225 2.3925 2.4125 2.4025 2.3725
1302.060 2.3225 2.3225 2.3025 2.2725 2.2925 2.2425 2.1825 2.1825 2.2225 2.2125
1321.350 2.1825 2.1625 2.1525 2.1725 2.2025 2.2425 2.2925 2.3425 2.3825 2.4425
1340.640 2.5625 2.6925 2.8225 3.0125 3.2125 3.4425 3.7325 4.0425 4.3425 4.6625
1359.930 5.0125 5.3825 5.7725 6.1325 6.4225 6.6125 6.6025 6.5525 6.4825 6.3625
1379.219 6.2925 6.1625 5.9825 5.7825 5.6425 5.4625 5.2425 5.0325 4.8425 4.6425
1398.509 4.3625 4.0425 3.7525 3.4025 3.0325 2.7825 2.5625 2.3425 2.1225 1.9925
1417.799 1.9525 1.8425 1.6925 1.6525 1.6825 1.6925 1.6825 1.6925 1.7425 1.8625
1437.089 2.0125 2.1125 2.2725 2.4525 2.6225 2.8025 2.9925 3.3025 3.5825 3.8525
1456.378 4.1825 4.4025 4.6425 4.9325 5.2125 5.5325 5.7625 5.9525 6.0925 6.1125
1475.668 6.0125 5.8325 5.5525 5.2125 4.8125 4.3425 3.8525 3.4025 2.9425 2.5125
1494.958 2.2125 1.9725 1.7825 1.5825 1.4025 1.3425 1.2625 1.1525 1.0625 0.9582
1514.248 0.9117 0.8998 0.909 0.9631 0.9288 0.7994 0.7724 0.799 0.7832 0.7828
1533.538 0.7599 0.7094 0.753 0.802 0.8007 0.8213 0.79 0.7224 0.7124 0.693
1552.827 0.6969 0.7631 0.8209 0.8339 0.7957 0.8322 0.872 0.8451 0.8367 0.8738
1572.117 0.8974 0.9316 0.9704 0.9635 0.9898 0.9926 1.0525 1.0625 1.0425 1.1525
1591.407 1.2325 1.3025 1.4025 1.4625 1.4925 1.6125 1.7725 1.9125 2.1125 2.2925
1610.697 2.4025 2.5225 2.6825 2.8325 2.9325 3.0425 3.0325 2.9725 2.9225 2.8525
1629.986 2.6725 2.4725 2.3425 2.1725 1.9925 1.8225 1.6525 1.4925 1.3725 1.2725
1649.276 1.1725 1.1325 1.0425 0.9142 0.8119 0.7597 0.7477 0.7438 0.7376 0.6497
1668.566 0.6089 0.5894 0.5465 0.5457 0.5245 0.4697 0.428 0.4323 0.4568 0.4534
1687.856 0.4269 0.3617 0.3459 0.3527 0.3605 0.3931 0.4343 0.4093 0.3458 0.3216
1707.146 0.2962 0.307 0.34 0.337 0.3606 0.3798 0.3299 0.3058 0.3017 0.2593
1726.435 0.2277 0.2313 0.297 0.3324 0.3535 0.3339 0.2777 0.278 0.297 0.2758
1745.725 0.2483 0.2875 0.3126 0.3394 0.3228 0.3268 0.3382 0.3254 0.3477 0.3075
1765.015 0.2978 0.3471 0.3502 0.2888 0.2775 0.2744 0.2119 0.2195 0.264 0.2679
1784.305 0.2488 0.2379 0.2092 0.2211 0.2324 0.2488 0.3009 0.2727 0.2437 0.2631
1803.594 0.2643 0.2952 0.3112 0.254 0.2389 0.2754 0.2755 0.2503 0.2579 0.2642
1822.884 0.2455 0.2277 0.2181 0.2131 0.219 0.1933 0.1572 0.1495 0.2016 0.2175
1842.174 0.1894 0.2199 0.2115 0.1894 0.1927 0.199 0.1856 0.1669 0.1501 0.1461
1861.464 0.203 0.2305 0.1518 0.1158 0.1315 0.1367 0.1376 0.1183 0.104 0.1167
1880.754 0.1182 0.09667 0.09811 0.1207 0.1239 0.07818 0.07087 0.09049 0.1024 0.1461
1900.043 0.1771 0.1461 0.1167 0.10109 0.08355 0.107 0.08618 0.05798 0.05227 0.05668
1919.333 0.07674 0.08272 0.1074 0.1104 0.1347 0.1932 0.1639 0.1241 0.1534 0.1457
1938.623 0.1344 0.1171 0.1297 0.1465 0.111 0.08207 0.06862 0.05676 0.053 0.05767
1957.913 0.1025 0.1413 0.1318 0.09983 0.05536 0.09056 0.131 0.1121 0.09679 0.1371
1977.202 0.1605 0.08996 0.04262 0.06996 0.1105 0.1145 0.09328 0.08821 0.1318 0.1546
1996.492 0.08956 0.07657 0.10204 0.10055 0.09436 0.12 0.1225 0.08104 0.09948 0.07655
2015.782 0.07053 0.1192 0.1462 0.1792 0.1613 0.1191 0.1186 0.1336 0.15 0.1529
2035.072 0.1515 0.1769 0.1875 0.1869 0.1847 0.201 0.2184 0.2303 0.2143 0.2285
2054.362 0.2517 0.2484 0.2605 0.2481 0.2301 0.2229 0.2095 0.1922 0.1968 0.1877
2073.651 0.18 0.1967 0.2025 0.1749 0.1601 0.1724 0.161 0.1478 0.1958 0.2252
2092.941 0.1834 0.1305 0.181 0.2138 0.1283 0.1306 0.1763 0.1608 0.1183 0.1264
2112.231 0.1221 0.07626 0.06557 0.07517 0.1142 0.1355 0.109 0.1222 0.1463 0.1271
2131.521 0.1118 0.09249 0.06948 0.03857 0.04582 0.08009 0.0564 0.0483 0.05776 0.06885
2150.810 0.07596 0.06795 0.04973 0.05104 0.06917 0.02975 0.05643 0.1139 0.1073 0.0737
2170.100 0.07581 0.1025 0.06918 0.0302 0.04329 0.04916 0.05631 0.07836 0.06584 0.04522
2189.390 0.0413 0.07713 0.08518 0.0848 0.09634 0.07063 0.10249 0.1089 0.08809 0.1047
2208.680 0.10084 0.06829 0.04331 0.03619 0.03454 0.02641 0.02596 0.04889 0.07999 0.119
2227.970 0.1262 0.08707 0.08771 0.1044 0.1189 0.1064 0.06103 0.07505 0.1137 0.1225
2247.259 0.1701 0.1904 0.1268 0.1312 0.1532 0.1352 0.1063 0.12 0.1353 0.1517
2266.549 0.1984 0.1616 0.1369 0.149 0.1412 0.1438 0.1177 0.1089 0.1248 0.117
2285.839 0.1192 0.1218 0.08949 0.1424 0.18 0.1654 0.1525 0.1165 0.1069 0.1314
2305.129 0.1591 0.1281 0.0789 0.05034 0.06694 0.1355 0.1559 0.1156 0.1301 0.1311
2324.418 0.07277 0.08224 0.1071 0.124 0.1459 0.08536 0.05511 0.09312 0.1228 0.1181
2343.708 0.05358 0.04503 0.08307 0.1406 0.1727 0.1634 0.1525 0.136 0.1219 0.08005
2362.998 0.08991 0.10195 0.1192 0.1049 0.1282 0.1682 0.1636 0.1633 0.1644 0.2233
2382.288 0.179 0.1338 0.1486 0.1445 0.1924 0.2213 0.1537 0.09508 0.125 0.1531
2401.578 0.1452 0.1685 0.1833 0.153 0.1542 0.1533 0.1369 0.1243 0.1122 0.1512
2420.867 0.1992 0.1931 0.1489 0.1572 0.1901 0.1697 0.131 0.1374 0.1654 0.1741
2440.157 0.1872 0.1937 0.1723 0.1514 0.1613 0.157 0.1175 0.09416 0.09777 0.1064
2459.447 0.1435 0.1267 0.07824 0.1147 0.146 0.147 0.1488 0.1493 0.1438 0.1187
2478.737 0.132 0.1036 0.1206 0.1926 0.1409 0.1124 0.1548 0.21 0.185 0.1474
2498.026 0.1311 0.1676 0.2368 0.1854 0.1648 0.2193 0.2395 0.1759 0.1374 0.1477
2517.316 0.1425 0.1382 0.1948 0.2345 0.1791 0.1409 0.1039 0.1262 0.1997 0.2229
2536.606 0.2276 0.2219 0.19 0.1512 0.1224 0.1295 0.1251 0.1381 0.1353 0.1294
2555.896 0.1578 0.1991 0.237 0.1823 0.1341 0.1556 0.2306 0.2757 0.2479 0.2302
2575.186 0.2365 0.2748 0.3614 0.3243 0.2346 0.2433 0.3019 0.3606 0.3547 0.3715
2594.475 0.4064 0.3636 0.321 0.2966 0.3361 0.3565 0.3166 0.3247 0.3506 0.3136
2613.765 0.3149 0.3854 0.4128 0.3765 0.3407 0.406 0.4791 0.4219 0.4144 0.4662
2633.055 0.4915 0.5307 0.5147 0.5187 0.5087 0.54 0.5533 0.5616 0.6153 0.5675
2652.345 0.5856 0.6166 0.6372 0.6873 0.6638 0.6659 0.7316 0.7314 0.6624 0.6712
2671.634 0.7614 0.8274 0.8546 0.8563 0.788 0.8157 0.89 0.9138 0.9233 0.892
2690.924 0.9123 0.9219 0.878 0.898 0.9625 1.0125 1.0725 1.1225 1.1425 1.1325
2710.214 1.1425 1.2025 1.2325 1.2125 1.3325 1.4125 1.4925 1.5825 1.6025 1.6425
2729.504 1.6125 1.5725 1.5225 1.5925 1.6625 1.6325 1.5925 1.6225 1.6825 1.6425
2748.794 1.6425 1.6325 1.7125 1.7925 1.7225 1.7025 1.6625 1.6925 1.7925 1.7825
2768.083 1.7325 1.7225 1.7225 1.7425 1.7825 1.8325 1.8325 1.8525 1.9025 1.9725
2787.373 1.9825 1.9925 2.0525 2.0625 2.1325 2.2225 2.2725 2.2925 2.4125 2.5825
2806.663 2.6725 2.8425 2.9525 3.0225 3.1325 3.3525 3.5425 3.6525 3.8925 4.0825
2825.953 4.2725 4.5925 5.0025 5.4425 5.9025 6.3725 6.8825 7.3825 8.0225 8.7225
2845.242 9.4425 10.2525 11.0425 11.9125 12.8325 13.7325 14.5125 15.3325 16.2425 17.0825
2864.532 17.8725 18.6125 19.3125 19.9025 20.3325 20.6025 20.7425 20.6725 20.4525 20.2125
2883.822 19.8625 19.4525 19.1425 18.8925 18.7825 18.7625 18.7625 18.9125 19.2625 19.7625
2903.112 20.2825 20.7825 21.4425 21.9925 22.5425 23.1725 23.7025 24.2825 24.9525 25.6125
2922.401 26.2225 27.0025 27.7625 28.5025 29.3025 30.1325 30.9025 31.4525 31.8425 32.0225
2941.691 32.1125 32.1725 32.0925 31.9225 31.9325 32.0025 31.8925 31.8725 31.8625 31.6225
2960.981 31.2325 30.7125 29.9925 28.9125 27.4425 25.5725 23.3625 20.9325 18.6325 16.5225
2980.271 14.4925 12.4425 10.5325 8.9025 7.4725 6.2725 5.2825 4.4925 3.8825 3.3525
2999.561 2.9025 2.5525 2.3125 2.0925 1.9225 1.7825 1.6525 1.6025 1.5325 1.3625
3018.850 1.2425 1.2225 1.2225 1.1725 1.1125 1.0525 1.0225 0.9585 0.9195 0.8597
3038.140 0.7893 0.7916 0.7392 0.6885 0.7163 0.6693 0.6549 0.6927 0.7223 0.7066
3057.430 0.6091 0.6463 0.7184 0.672 0.6259 0.5988 0.5362 0.5311 0.539 0.5053
3076.720 0.4801 0.4945 0.4739 0.468 0.6424 0.6767 0.5174 0.4685 0.5252 0.5467
3096.009 0.4729 0.4948 0.5406 0.5784 0.6096 0.5649 0.51 0.4934 0.5225 0.4601
3115.299 0.4681 0.5586 0.4998 0.4273 0.3689 0.3244 0.3754 0.3338 0.2928 0.3699
3134.589 0.3918 0.4585 0.4895 0.3975 0.4283 0.4347 0.403 0.441 0.4082 0.355
3153.879 0.359 0.3792 0.3217 0.3388 0.3859 0.3338 0.3357 0.3564 0.3434 0.3496
3173.169 0.2841 0.3455 0.4558 0.4404 0.4286 0.4377 0.414 0.4239 0.4539 0.4969
3192.458 0.5761 0.4891 0.36 0.3813 0.4152 0.3742 0.2877 0.2801 0.3511 0.3278
3211.748 0.3367 0.3497 0.3062 0.353 0.3213 0.2621 0.297 0.2921 0.2593 0.2081
3231.038 0.2417 0.2206 0.2096 0.2777 0.2488 0.1774 0.1107 0.1535 0.2812 0.301
3250.328 0.2183 0.2886 0.3339 0.2912 0.2565 0.2087 0.1618 0.1701 0.1519 0.1042
3269.617 0.1357 0.1792 0.2284 0.1522 0.1205 0.1972 0.3256 0.3153 0.155 0.1543
3288.907 0.2515 0.2449 0.2336 0.2325 0.2721 0.3257 0.2837 0.3669 0.3672 0.2583
3308.197 0.2484 0.3102 0.3444 0.3332 0.3153 0.169 0.1969 0.3466 0.2213 0.1951
3327.487 0.2761 0.3844 0.4248 0.3377 0.3531 0.3211 0.3362 0.4304 0.4686 0.3848
3346.777 0.354 0.3638 0.4154 0.4166 0.4031 0.4347 0.4211 0.4592 0.4103 0.3425
3366.066 0.4168 0.4437 0.3996 0.3358 0.3369 0.4158 0.4025 0.5253 0.4952 0.3698
3385.356 0.4161 0.2924 0.2929 0.4654 0.3922 0.3723 0.5196 0.5075 0.5098 0.6239
3404.646 0.5914 0.5302 0.5572 0.5323 0.5351 0.5572 0.537 0.5778 0.5192 0.4897
3423.936 0.5852 0.5899 0.5778 0.5595 0.5234 0.4435 0.3661 0.3726 0.3676 0.4023
3443.225 0.4763 0.4988 0.5475 0.4564 0.3651 0.42 0.5159 0.5747 0.5293 0.5081
3462.515 0.4971 0.4876 0.475 0.4844 0.3945 0.4491 0.6052 0.4382 0.3571 0.4106
3481.805 0.415 0.3616 0.2948 0.3606 0.3974 0.3728 0.3647 0.3503 0.3387 0.4983
3501.095 0.5874 0.4211 0.3251 0.3568 0.3775 0.351 0.3612 0.3156 0.3342 0.4464
3520.385 0.4125 0.381 0.3888 0.3899 0.3957 0.3156 0.2308 0.278 0.3142 0.3367
3539.674 0.3062 0.265 0.2712 0.1688 0.2181 0.3212 0.3101 0.3107 0.3029 0.2309
3558.964 0.2436 0.3629 0.3419 0.2809 0.3173 0.2943 0.2322 0.2903 0.3599 0.353
3578.254 0.309 0.3307 0.3844 0.3826 0.3052 0.2275 0.2058 0.2862 0.368 0.2906
3597.544 0.2934 0.3408 0.3369 0.3791 0.3053 0.256 0.2668 0.3233 0.3553 0.362
3616.833 0.5188 0.474 0.4466 0.5647 0.524 0.4928 0.6004 0.5932 0.4946 0.576
3636.123 0.6223 0.6286 0.7398 0.877 0.9677 1.0825 1.2025 1.2925 1.4525 1.6825
3655.413 1.9625 2.2125 2.5925 2.9025 3.1725 3.5425 3.7225 3.7825 3.8525 3.8525
3674.703 3.7725 3.4825 3.1325 2.9425 2.6125 2.1125 1.8425 1.7225 1.3725 1.1125
3693.993 1.0925 0.9581 0.7169 0.5884 0.6933 0.6206 0.47 0.4229 0.3569 0.3954
3713.282 0.2218 0.1276 0.2735 0.3704 0.4646 0.4369 0.457 0.4413 0.4457 0.4903
3732.572 0.4015 0.36 0.3262 0.3401 0.3226 0.2636 0.2667 0.2225 0.226 0.3238
3751.862 0.2913 0.1744 0.1471 0.1485 0.1299 0.1898 0.2695 0.2261 0.2291 0.3382
3771.152 0.3543 0.2424 0.2269 0.3391 0.3206 0.1901 0.1663 0.1725 0.2092 0.2963
3790.441 0.2558 0.274 0.3123 0.2889 0.2553 0.2711 0.2559 0.2042 0.2285 0.2685
3809.731 0.155 0.1216 0.2096 0.2117 0.1891 0.1581 0.2265 0.3106 0.3447 0.2177
3829.021 0.1518 0.3419 0.3728 0.4011 0.3454 0.1725 0.261 0.3245 0.3225 0.3115
3848.311 0.278 0.199 0.2094 0.2237 0.1803 0.231 0.2443 0.1353 0.1809 0.3599
3867.601 0.3439 0.2917 0.3152 0.2757 0.1983 0.1904 0.3108 0.407 0.399 0.3482
3886.890 0.2478 0.2224 0.2593 0.2629 0.2448 0.2442 0.3368 0.3314 0.2565 0.3229
3906.180 0.329 0.2706 0.2062 0.1819 0.2364 0.3278 0.3117 0.1992 0.1772 0.1838
3925.470 0.07844 0.09007 0.2467 0.2825 0.2978 0.3938 0.3535 0.2737 0.1898 0.09501
3944.760 0.1959 0.22 0.144 0.1052 0.1403 0.1216 0.06105 0.1984 0.3451 0.2177
3964.049 0.06445 0.1138 0.1414 0.1298 0.08528 0 0.00013 0.01434 0.1799 0.3552
3983.339 0.283 0.1292 0.07614 0.1208 0.07643 0.1476 0.2662 0.2152 0.1238 0.02191
##END=
