##TITLE=Methyl N-chloroacetylcarbamate
##JCAMP-DX=4.24
##DATA TYPE=INFRARED SPECTRUM
##ORIGIN=EPA-IR VAPOR PHASE LIBRARY
##OWNER=SRD/NIST
Collection (C) 2018 copyright by the U.S. Secretary of Commerce
on behalf of the United States of America. All rights reserved.
##CAS REGISTRY NO=13558-70-8
##MOLFORM=C 4 H 6 Cl N O 3
##$NIST SOURCE=MSDC-IR
##STATE=gas
##XUNITS=1/CM
##YUNITS=ABSORBANCE
##XFACTOR=1.
##YFACTOR=0.001
##DELTAX=1.92898
##FIRSTX=549.8
##LASTX=4000.7
##FIRSTY=5.301
##MAXX=4000.7
##MINX=549.759
##MAXY=0.113041
##MINY=0
##NPOINTS=1790
##XYDATA=(X++(Y..Y))
549.759 5.301 5.141 5.061 5.081 4.321 3.931 3.701 3.441 3.691 3.761
569.049 3.071 3.661 4.231 3.831 4.181 4.511 4.131 4.641 5.281 5.691
588.339 5.531 5.051 5.111 5.831 6.911 7.311 7.231 6.981 7.131 7.751
607.628 7.901 7.641 7.721 8.101 8.441 8.501 8.701 8.961 9.091 9.211
626.918 9.001 8.741 8.831 9.021 9.091 8.991 8.871 9.011 9.241 9.091
646.208 8.841 9.211 9.671 9.611 10.061 10.491 10.341 10.751 11.131 11.321
665.498 11.651 12.181 11.741 11.271 11.291 10.671 10.501 10.351 9.621 9.321
684.787 8.981 8.391 8.241 8.101 7.801 7.361 7.161 7.241 6.901 6.521
704.077 6.331 6.111 6.121 5.601 5.001 5.491 5.191 4.751 4.971 4.871
723.367 4.971 4.921 5.121 5.131 4.801 5.061 5.211 5.361 5.281 5.061
742.657 5.191 5.241 5.591 5.841 5.911 6.221 6.421 6.331 6.551 7.151
761.947 7.661 8.121 8.501 8.831 9.571 9.971 10.211 10.611 10.561 10.391
781.236 10.401 10.401 10.391 10.201 9.811 9.781 10.001 9.731 9.331 9.441
800.526 9.441 8.781 8.281 8.271 7.901 7.001 6.431 6.111 5.621 5.411
819.816 4.831 4.601 4.961 4.931 4.371 4.431 4.631 4.721 4.731 4.641
839.106 4.861 4.841 5.231 5.471 5.391 5.631 6.111 6.261 6.131 6.011
858.395 5.581 4.971 4.311 3.651 3.071 3.131 3.211 2.581 2.231 2.481
877.685 2.351 1.821 1.881 2.221 2.201 1.881 1.6805 1.891 2.001 2.041
896.975 2.241 2.421 2.311 2.101 2.421 2.671 2.781 2.931 2.851 3.051
916.265 3.291 3.381 3.191 2.721 2.791 3.051 3.041 2.931 2.921 3.101
935.555 3.271 3.131 2.771 2.931 2.991 2.951 2.981 2.721 2.981 3.901
954.844 4.341 4.271 4.201 4.031 4.621 5.351 5.441 5.181 5.111 5.681
974.134 5.931 5.861 6.101 6.531 6.231 5.951 6.241 6.411 6.621 6.701
993.424 6.761 7.091 7.331 6.811 6.791 7.471 7.221 6.921 6.791 6.531
1012.714 6.891 6.831 6.631 7.411 7.261 6.231 6.851 7.831 8.061 9.351
1032.003 13.261 13.681 10.601 9.851 10.671 12.421 13.891 16.191 19.241 21.411
1051.293 23.111 25.041 27.751 29.681 31.321 32.871 33.491 33.841 34.091 33.201
1070.583 31.681 29.801 27.761 25.891 23.771 22.731 21.211 19.601 17.851 16.531
1089.873 15.951 15.911 15.771 14.161 13.261 13.231 14.211 14.571 13.841 13.621
1109.163 12.691 11.951 11.381 11.841 12.221 11.561 10.231 9.341 9.631 9.621
1128.452 8.821 9.091 10.701 10.821 10.631 11.001 11.671 12.521 12.791 13.201
1147.742 14.661 16.541 17.231 17.601 19.541 20.871 21.601 23.181 25.161 27.011
1167.032 28.621 31.321 33.871 36.111 38.501 42.271 47.441 52.151 57.001 62.161
1186.322 68.541 73.961 76.801 78.711 80.771 81.411 79.541 76.291 72.051 66.831
1205.611 60.301 52.751 46.501 41.391 35.701 30.641 26.731 22.691 19.501 17.301
1224.901 16.021 15.171 14.191 13.381 13.001 12.911 12.741 12.871 12.911 12.981
1244.191 12.861 13.171 13.481 13.511 14.021 14.651 15.061 14.781 14.311 14.151
1263.481 14.221 14.431 14.701 14.561 14.431 15.031 15.831 17.101 18.181 19.631
1282.771 21.261 22.671 24.131 25.501 26.931 28.001 28.681 28.891 28.811 28.311
1302.060 27.361 26.041 24.741 23.561 22.311 20.971 19.731 19.021 18.651 18.391
1321.350 18.181 18.021 17.921 17.671 17.251 17.041 16.651 15.931 15.261 14.701
1340.640 13.981 13.081 12.281 11.381 10.651 10.191 9.891 9.601 9.161 9.011
1359.930 8.961 8.821 8.791 8.891 9.071 9.161 9.241 9.611 10.051 10.241
1379.219 10.531 11.161 11.771 12.101 12.701 13.401 13.931 14.631 15.481 16.401
1398.509 17.421 18.521 19.551 20.741 22.041 23.261 24.351 25.511 26.581 27.681
1417.799 28.951 30.161 30.981 31.101 30.801 30.111 29.071 28.101 27.161 26.151
1437.089 25.111 24.241 23.461 22.851 22.781 23.201 24.051 24.881 26.011 27.391
1456.378 29.061 31.201 33.471 36.211 38.831 41.571 44.131 45.931 46.991 47.261
1475.668 46.981 45.991 44.281 42.161 39.781 37.371 35.011 33.081 31.231 29.721
1494.958 28.591 27.161 25.351 23.651 22.031 20.291 18.551 16.651 14.921 13.611
1514.248 12.411 11.201 10.171 9.341 8.461 7.701 7.201 6.751 6.391 6.141
1533.538 5.971 5.631 5.271 5.121 5.051 4.891 4.451 4.291 4.331 4.261
1552.827 4.151 3.761 3.521 3.471 3.541 3.641 3.501 3.401 3.391 3.401
1572.117 3.441 3.511 3.621 3.431 3.141 3.091 3.131 3.311 3.411 3.511
1591.407 3.531 3.631 3.591 3.311 3.331 3.391 3.571 3.721 3.651 3.481
1610.697 3.341 3.411 3.471 3.171 3.011 3.161 3.191 3.061 3.051 3.111
1629.986 3.121 2.931 2.741 2.711 2.691 2.561 2.421 2.371 2.201 2.131
1649.276 2.101 2.271 2.301 2.141 2.241 2.291 2.291 2.261 2.231 2.221
1668.566 2.321 2.471 2.601 2.671 2.841 3.241 3.551 3.581 3.721 3.991
1687.856 4.161 4.381 4.511 4.771 5.151 5.221 5.611 6.181 6.501 6.911
1707.146 7.471 8.251 9.031 10.111 11.431 12.661 14.561 16.751 19.301 22.341
1726.435 25.601 29.451 34.081 39.131 45.021 50.951 56.181 61.421 66.121 70.651
1745.725 74.871 78.441 81.201 82.731 82.861 81.871 79.901 78.051 76.831 76.031
1765.015 75.131 73.881 72.531 71.021 69.181 67.221 65.241 62.991 59.951 56.331
1784.305 52.081 46.921 41.261 35.881 31.061 26.671 22.921 20.031 17.911 16.261
1803.594 14.841 13.841 13.301 12.921 12.981 13.381 13.811 14.041 14.301 14.521
1822.884 14.401 14.031 13.491 13.071 12.591 11.721 10.731 9.371 7.971 6.921
1842.174 6.061 5.401 4.861 4.411 4.001 3.781 3.771 3.551 3.261 3.191
1861.464 3.141 2.841 2.631 2.701 2.651 2.621 2.531 2.301 2.121 1.981
1880.754 1.861 1.7396 1.7099 1.751 1.771 1.6911 1.6449 1.523 1.4166 1.5464
1900.043 1.673 1.7374 1.6829 1.5827 1.5385 1.4653 1.4863 1.4109 1.3076 1.3512
1919.333 1.3247 1.2486 1.3993 1.5608 1.452 1.3587 1.3976 1.4023 1.3557 1.2971
1938.623 1.1721 1.2148 1.2982 1.2532 1.272 1.2279 1.2303 1.2774 1.1857 1.2772
1957.913 1.3362 1.3243 1.2943 1.1674 1.022 0.9591 1.0607 1.0893 1.0102 1.0356
1977.202 1.1848 1.2375 1.1557 1.1122 1.1565 1.0806 1.0186 1.1144 1.228 1.3271
1996.492 1.2581 1.2429 1.3502 1.1652 0.9616 1.0099 0.9819 1.0968 1.2821 1.2151
2015.782 1.1664 1.3139 1.4399 1.3328 1.2431 1.3338 1.3222 1.0957 1.0504 1.2417
2035.072 1.2751 1.3232 1.3686 1.1562 1.247 1.4234 1.3372 1.3037 1.5103 1.6273
2054.362 1.4928 1.3704 1.4752 1.4612 1.3138 1.4911 1.4918 1.4415 1.5467 1.5701
2073.651 1.6304 1.6848 1.6794 1.751 1.791 1.761 1.831 1.761 1.5066 1.5651
2092.941 1.6535 1.6954 1.911 1.991 1.891 1.881 1.961 1.791 1.861 1.901
2112.231 1.821 1.981 2.011 2.091 2.311 2.301 2.291 2.371 2.421 2.571
2131.521 2.691 2.641 2.531 2.651 3.001 3.231 3.281 3.311 3.421 3.651
2150.810 3.821 4.021 4.221 4.411 4.661 5.001 5.451 5.941 6.351 6.631
2170.100 6.941 7.231 7.701 8.141 8.641 9.331 9.641 10.081 10.591 10.941
2189.390 11.411 11.821 12.221 12.631 13.181 13.671 14.111 14.841 15.471 16.141
2208.680 17.011 17.931 19.051 20.241 21.331 22.481 23.751 25.281 26.691 28.141
2227.970 30.191 32.441 34.841 37.581 40.801 44.631 49.051 54.091 60.081 66.761
2247.259 73.921 81.381 88.861 95.861 101.941 106.661 110.141 112.461 113.041 111.671
2266.549 108.201 102.871 96.021 87.861 78.951 70.001 61.141 52.721 45.211 38.791
2285.839 33.351 28.781 24.841 21.591 19.281 17.231 15.321 14.021 12.961 11.951
2305.129 11.281 10.741 10.301 9.981 9.521 9.031 8.811 8.671 8.601 8.371
2324.418 8.181 8.071 7.651 7.471 7.281 6.931 6.671 6.551 6.501 6.481
2343.708 6.351 5.961 5.671 5.591 5.801 6.141 6.391 6.501 6.781 6.951
2362.998 6.801 6.521 6.201 5.961 5.771 5.511 5.031 4.541 4.251 3.801
2382.288 3.421 3.191 2.821 2.581 2.561 2.291 2.121 2.281 2.381 2.421
2401.578 2.181 2.031 2.041 1.891 1.861 1.722 1.4415 1.3533 1.4019 1.5235
2420.867 1.5443 1.5647 1.5614 1.4036 1.3577 1.2914 1.2807 1.3595 1.3053 1.4698
2440.157 1.5226 1.2736 1.0934 0.9777 0.9838 1.1488 1.0872 1.0686 1.2423 1.2506
2459.447 1.1863 1.2119 1.2032 1.0336 1.1714 1.3825 1.1534 0.83684 0.9007 1.0049
2478.737 0.9621 1.0826 1.1429 1.0635 0.9603 0.84091 0.8231 0.9484 0.82957 0.79395
2498.026 0.9831 1.0244 1.1443 1.1264 0.9154 0.8644 0.9828 1.1664 1.0683 0.9593
2517.316 1.0476 1.0358 0.9568 0.9906 1.0772 0.9479 1.1373 1.2759 1.1757 1.0713
2536.606 1.0388 1.2571 1.1997 0.8383 0.82826 0.9884 1.0969 1.0243 0.756531 0.923
2555.896 0.8723 0.8964 0.9168 0.77001 0.8876 0.9565 0.9316 0.9955 0.99 0.9593
2575.186 0.9469 0.8988 1.0282 1.0303 0.8632 0.83598 1.1067 1.013 0.8863 0.8669
2594.475 0.76666 0.9103 0.905 0.83098 0.7991 0.79226 0.9982 1.0338 0.9125 0.8819
2613.765 0.7334 0.603 0.759624 0.9475 0.8682 0.7364 0.7287 0.76768 0.9223 1.076
2633.055 0.8164 0.539 0.84391 1.0361 1.0953 1.0351 0.76148 0.79488 0.9878 1.019
2652.345 0.9424 0.97 0.858 0.79978 0.76158 0.83392 0.9277 0.82421 0.9318 0.959
2671.634 1.0937 1.1659 1.1263 1.1784 1.124 1.122 1.2378 1.1102 0.8624 0.8999
2690.924 0.74838 0.84358 1.1445 1.0183 0.80641 0.9044 0.84369 0.79601 0.82958 0.8796
2710.214 1.0503 0.9073 0.84541 0.608 0.611 0.9354 0.9301 0.81602 0.82835 0.8736
2729.504 0.6814 0.534 0.592 0.76804 0.9627 1.0487 0.9814 0.9977 1.0834 1.1045
2748.794 1.0492 1.0206 1.1848 1.167 1.2044 1.444 1.2854 0.9497 0.8831 1.0169
2768.083 1.2531 1.3013 1.1113 1.2629 1.3765 1.1908 1.4044 1.5561 1.3917 1.5589
2787.373 1.5546 1.4696 1.4449 1.3417 1.6874 1.971 1.851 1.6996 1.811 2.041
2806.663 2.211 2.231 2.501 2.591 2.431 2.561 2.031 1.931 2.521 2.881
2825.953 2.561 2.261 2.481 2.441 2.511 2.741 3.171 3.481 3.651 3.781
2845.242 3.661 3.531 3.361 3.021 2.941 3.001 2.811 2.891 3.551 4.071
2864.532 4.031 3.901 3.951 4.041 3.801 3.631 3.631 3.651 3.951 4.131
2883.822 4.261 4.461 4.331 3.931 3.921 4.061 4.161 4.361 4.511 4.361
2903.112 4.401 4.621 4.891 4.961 4.821 5.051 5.261 5.251 5.211 5.301
2922.401 5.421 5.661 5.541 5.291 4.961 4.941 5.341 5.601 5.891 6.161
2941.691 6.471 6.551 6.671 6.951 7.291 7.721 8.301 8.861 9.441 10.081
2960.981 11.001 11.431 11.611 11.861 11.711 11.741 11.271 10.851 10.151 9.481
2980.271 9.141 8.451 7.981 7.691 7.171 6.611 6.641 6.601 6.261 5.781
2999.561 5.531 5.621 5.701 5.651 5.441 5.371 5.561 5.551 4.881 4.251
3018.850 4.311 4.511 4.261 3.921 3.871 3.981 4.321 4.341 3.931 3.841
3038.140 3.901 3.921 3.651 3.191 3.311 3.471 3.161 2.751 2.601 2.801
3057.430 2.761 2.701 2.791 2.681 2.631 2.671 2.441 2.261 2.271 2.131
3076.720 2.261 2.301 2.161 1.971 1.7302 1.971 2.071 1.851 1.761 1.6808
3096.009 1.7042 1.6646 1.6696 1.7243 1.4902 1.4749 1.4392 1.4887 1.5211 1.0034
3115.299 1.01 1.5074 1.4115 1.2779 1.2103 0.9128 0.77467 1.1078 1.4636 1.1837
3134.589 1.0301 1.0945 1.2078 1.1176 0.9209 0.584 0.7185 0.8818 0.568 0.6961
3153.879 0.83504 0.82108 0.79546 0.589 0.7184 0.9125 0.9553 1.2998 1.0449 0.533
3173.169 0.475 0.8637 1.0756 1.0537 1.1168 0.9589 0.702 0.44 0.364 0.489
3192.458 0.7019 1.0767 0.82804 0.624 0.573 0.413 0.601 0.77236 0.81621 0.83992
3211.748 0.8954 0.77394 0.80585 0.8865 0.8842 0.9565 1.1615 1.1402 0.8585 0.6877
3231.038 0.83972 1.0498 1.0424 0.621 0.6512 1.0797 0.8757 0.9233 0.9791 0.602
3250.328 0.74617 0.79112 0.484 0.416 0.539 0.9624 1.1024 0.80527 0.78962 0.997
3269.617 0.959 0.9816 0.6569 0.468 0.613 0.77307 0.9711 0.77508 0.576 0.82246
3288.907 0.9018 0.82753 0.8818 0.85076 0.74256 0.6869 0.6852 0.6 0.498 0.535
3308.197 0.6513 0.647 0.9131 1.1012 0.9185 0.82096 0.9878 1.2106 1.1218 0.549
3327.487 0.386 0.595 0.436 0.567 0.586 0.376 0.615 1.088 0.9548 0.76861
3346.777 1.108 0.84887 0.601 0.8772 0.9803 0.8661 0.9128 1.0934 0.8703 0.646
3366.066 1.0294 1.2673 1.138 0.9055 0.7142 1.0172 1.2105 0.9022 1.0777 1.278
3385.356 0.9184 0.84513 1.1884 1.3939 1.6235 1.7324 1.7159 1.6966 1.891 1.991
3404.646 2.181 2.451 2.661 2.861 3.361 4.301 4.911 5.501 6.311 7.721
3423.936 8.731 9.431 10.761 11.591 11.471 11.791 11.791 11.381 11.131 10.541
3443.225 9.991 8.851 7.281 6.281 5.621 4.191 3.501 3.551 3.051 2.541
3462.515 2.191 2.481 2.681 2.291 1.901 1.911 2.321 2.281 2.121 2.301
3481.805 2.201 1.971 1.901 2.091 2.151 2.121 1.921 1.0954 1.2798 1.881
3501.095 1.841 1.781 1.7252 1.831 1.638 1.5359 1.791 2.011 1.951 2.241
3520.385 2.411 2.141 2.141 1.911 1.4598 1.5862 2.071 1.971 1.7457 1.6903
3539.674 1.901 2.251 1.951 1.6233 1.6582 1.6635 1.821 1.761 1.5274 1.3505
3558.964 1.32 1.3001 1.1287 0.9991 1.3364 1.781 1.3554 0.82956 0.8889 1.1267
3578.254 1.5365 1.871 1.7426 1.345 1.5047 1.7301 1.3969 1.1543 1.1719 1.1146
3597.544 1.0812 1.7307 2.111 1.891 1.738 1.4395 1.2081 1.37 1.4691 1.592
3616.833 1.1733 1.0946 1.871 1.991 1.781 2.181 2.381 1.931 1.831 2.031
3636.123 2.081 2.201 2.401 2.271 2.041 1.921 2.221 2.001 1.6296 1.921
3655.413 2.121 2.191 2.271 2.251 2.361 2.341 2.201 2.161 2.201 1.911
3674.703 1.6506 2.001 2.651 2.711 2.201 2.121 1.821 1.7326 1.801 1.6614
3693.993 1.6517 1.821 1.911 2.121 2.651 2.601 2.261 1.871 1.6484 2.041
3713.282 2.021 1.6627 1.6722 1.931 2.001 1.911 1.881 1.901 2.011 1.7155
3732.572 1.2958 1.0534 0.8554 0.8704 1.4143 1.2369 1.062 1.4731 1.3347 1.0723
3751.862 0.9038 0.78664 0.6946 1.0059 1.2106 1.0253 0.83378 1.0954 1.0534 0.77185
3771.152 0.9543 1.061 0.84444 0.77981 1.0109 0.9258 0.9702 1.0777 0.9892 0.9685
3790.441 0.6523 0.81088 0.9972 0.651 0.637 0.9128 1.0588 0.9571 1.0221 1.2664
3809.731 1.1397 0.9436 1.0772 0.7266 0.645 0.7308 0.53 0.77023 0.9919 0.84622
3829.021 0.76545 0.74341 0.9588 1.3083 0.9632 0.78849 1.0694 0.77066 0.409 0.206
3848.311 0.093 0.604 1.0311 0.9262 0.409 0.075 0.465 0.77473 0.7334 0.623
3867.601 0.562 0.475 0.698 0.6892 0.555 0.9251 0.84676 0.6595 0.643 0.49
3886.890 0.8249 1.0699 0.9114 0.752986 0.8617 0.9134 0.301 0 0.445 0.317
3906.180 0.349 0.9416 0.9758 0.582 0.565 0.9184 1.3259 1.5149 1.375 1.0915
3925.470 1.0809 1.0904 0.7164 0.7246 0.6722 0.77444 1.0012 1.0929 0.9104 0.123
3944.760 0.17 0.9099 0.8954 0.78692 1.2078 1.0105 0.612 0.9459 0.574 0.384
3964.049 0.8997 0.6 0.638 0.942 0.9648 1.0178 1.0835 0.8914 1.0465 1.2513
3983.339 0.8589 0.993 0.917 0.9791 1.2904 1.1933 0.9113 0.561 0.78663 1.0213
##END=
