##TITLE=6-Phenyl-5-hexyn-3-ol
##JCAMP-DX=4.24
##DATA TYPE=INFRARED SPECTRUM
##ORIGIN=EPA-IR VAPOR PHASE LIBRARY
##OWNER=SRD/NIST
Collection (C) 2018 copyright by the U.S. Secretary of Commerce
on behalf of the United States of America. All rights reserved.
##CAS REGISTRY NO=135663-98-8
##MOLFORM=C 12 H 14 O
##$NIST SOURCE=MSDC-IR
##STATE=gas
##XUNITS=1/CM
##YUNITS=ABSORBANCE
##XFACTOR=1.
##YFACTOR=0.001
##DELTAX=1.92898
##FIRSTX=549.8
##LASTX=4000.7
##FIRSTY=8.7494
##MAXX=4000.7
##MINX=549.759
##MAXY=0.0908794
##MINY=0
##NPOINTS=1790
##XYDATA=(X++(Y..Y))
549.759 8.7494 8.6294 8.5394 8.5394 8.2794 8.3094 8.0094 7.6194 7.1994 7.0994
569.049 6.2594 5.4394 6.0994 6.1394 5.4794 5.5494 5.2094 4.6494 4.4894 4.2294
588.339 4.1594 4.2494 4.7794 4.8094 4.5994 4.6594 4.3994 4.2794 4.7094 5.4194
607.628 5.3494 4.9494 4.8494 4.7194 4.5494 4.9294 5.4094 5.3794 5.7294 5.6094
626.918 5.3794 4.9594 4.7894 5.1694 5.2894 5.3494 5.4494 5.7994 5.9094 6.1394
646.208 5.7894 5.7294 6.6794 7.3594 7.7194 8.2094 9.0594 9.8594 10.4994 11.5294
665.498 13.2794 15.2294 17.2994 19.8994 22.5494 25.0094 27.5894 29.8294 32.1694 34.3694
684.787 36.4494 38.9894 40.8994 40.1694 37.8194 35.9894 34.4194 32.7294 30.7194 28.2294
704.077 25.3694 22.8294 20.3894 18.5994 17.4394 16.1194 15.2294 14.9594 14.6094 14.5894
723.367 15.0194 15.4594 16.2694 18.1494 20.7794 23.6194 26.7394 30.6694 35.5594 39.9094
742.657 43.7994 47.4894 50.7394 54.2894 58.2694 61.3894 61.4994 57.5594 53.0294 49.8994
761.947 46.6794 42.4994 38.0694 33.5494 29.1794 25.0994 21.0494 17.4194 14.7094 12.3394
781.236 10.4394 9.5594 8.2194 6.8694 6.6294 6.4294 5.7094 5.0294 4.7994 5.0894
800.526 5.1894 5.0494 4.4094 4.0894 4.1194 4.0894 4.4394 4.9794 4.7994 4.3294
819.816 4.3294 4.4894 5.0894 4.9494 5.1294 6.2494 6.6994 6.6094 6.8194 7.3994
839.106 7.7594 7.9594 7.8194 7.7194 7.6994 7.6094 7.5994 7.5894 7.4294 6.5594
858.395 6.3394 6.7794 6.7794 7.0094 7.5994 7.6494 7.4594 7.4594 7.5494 8.2494
877.685 8.8294 8.3394 7.4494 7.2094 7.5194 7.3494 7.5794 8.0694 7.9794 8.1794
896.975 8.2894 8.4394 9.1194 9.9994 10.1494 10.1794 10.5294 10.4294 10.0194 9.5794
916.265 9.4094 9.0994 9.2194 9.4794 9.2294 8.9694 9.1694 9.4594 9.4494 9.8094
935.555 9.6694 9.3494 9.8494 10.4294 10.9794 11.6894 12.2394 13.0994 14.2594 15.5594
954.844 16.6094 17.5894 19.0894 20.6994 22.6494 25.0294 27.4794 29.5994 31.4294 33.2194
974.134 34.7294 35.8494 36.2594 36.2994 35.9994 35.6494 36.0094 36.3394 36.1294 35.4694
993.424 34.5594 33.9294 33.4294 32.8994 33.3394 33.9894 34.5594 35.3394 35.5294 35.5094
1012.714 35.8594 36.0694 35.1694 33.7394 33.6594 34.5694 34.7994 34.4794 34.0794 32.7694
1032.003 30.7494 29.7194 28.9594 28.1394 28.3094 28.9494 29.8494 31.1194 32.2094 32.7394
1051.293 33.0694 33.3894 33.7694 32.9594 32.1594 32.0094 31.4394 29.9894 27.8994 26.6694
1070.583 25.3594 23.2694 22.7394 23.0994 21.9194 21.3794 20.7094 20.9094 23.9394 26.1194
1089.873 27.1394 29.4894 31.3594 33.7894 36.7694 37.3394 38.1494 38.8494 38.3994 38.1094
1109.163 37.8394 36.1794 34.1294 31.8794 30.1894 27.9094 24.4394 22.0194 20.4894 18.6894
1128.452 17.4394 16.2294 15.0794 14.6894 13.2194 12.0094 10.5194 9.5494 9.2494 8.2694
1147.742 7.6794 8.4094 8.7594 7.9294 7.3794 7.0494 6.7094 7.4694 8.3194 8.1194
1167.032 7.8094 7.7994 8.3294 9.1494 9.0294 9.5394 10.8094 10.9394 11.1394 11.3394
1186.322 11.5194 12.5994 12.6094 11.8994 12.8494 13.5294 15.2994 16.7794 15.4994 14.2594
1205.611 15.4694 16.5494 16.4494 17.3394 17.5394 17.1794 16.4894 16.5294 17.7394 18.2194
1224.901 19.1994 19.6994 18.9994 19.7094 21.2894 22.6994 22.5094 21.2794 21.1794 21.4694
1244.191 21.0694 20.8594 20.1794 20.0294 20.4394 19.3694 19.0794 19.4394 18.8394 18.8794
1263.481 19.6394 19.5794 19.3894 19.6594 19.7994 19.8694 19.9694 20.0294 19.9394 20.4694
1282.771 21.0794 21.5294 21.7194 21.6094 21.6394 21.7694 21.9294 21.6094 21.1194 20.4894
1302.060 19.7694 19.0494 18.3194 17.8894 17.6794 17.3594 17.2294 17.2994 17.3394 17.3094
1321.350 17.0894 16.8294 16.7094 16.7894 16.6994 16.7994 16.8294 16.5894 16.5794 16.5694
1340.640 16.6394 16.8994 17.2594 17.6194 18.2694 19.0494 19.8094 20.6594 21.3494 22.1094
1359.930 22.7894 23.3494 23.7694 23.9594 24.0294 24.1194 24.3094 24.2994 24.5794 25.1694
1379.219 25.6394 26.0394 26.3994 26.7294 26.8394 26.6894 26.2794 25.6194 24.6794 23.5794
1398.509 22.1594 20.6294 19.3494 18.2394 17.2994 16.3094 15.4694 15.0194 15.1894 15.7694
1417.799 16.4394 17.5894 19.0894 20.6094 21.8394 22.9294 23.6794 23.7394 23.6494 23.3894
1437.089 22.7694 22.0794 21.2494 20.3194 19.5994 19.1794 18.7594 18.3194 17.9194 17.6794
1456.378 17.5994 17.7294 18.0894 18.4494 18.6894 18.8094 18.7894 18.7594 18.8794 19.2494
1475.668 20.2294 22.2294 25.5994 30.6894 37.3594 44.2694 49.6994 52.2594 51.5794 48.0094
1494.958 42.0794 34.1994 26.4094 20.6894 17.2594 14.9994 13.1394 11.8694 10.5294 8.9894
1514.248 7.5994 6.5094 5.7194 5.1894 4.7694 4.7094 4.7994 4.2194 3.8094 3.9194
1533.538 3.7394 3.6594 3.5194 3.2094 3.1694 3.0794 2.9794 3.0994 3.1494 3.1394
1552.827 3.4294 3.4594 3.4194 3.5394 3.8994 4.2094 4.3794 4.6894 5.0194 5.4594
1572.117 5.7594 5.9594 6.6794 7.4894 8.1394 9.0994 10.4094 12.3094 14.3994 16.9894
1591.407 19.6594 21.8594 23.3994 23.8194 23.7394 23.0294 20.6094 17.2794 14.3594 11.3394
1610.697 8.4094 6.2094 4.4894 3.4794 3.2594 2.7094 2.0994 1.9994 1.9594 2.0394
1629.986 2.0794 1.9294 1.8494 1.7394 1.8094 1.7394 1.6194 1.6294 1.7294 1.7894
1649.276 2.0194 2.4594 2.7394 3.0994 3.3694 3.7194 4.0494 4.1694 3.8894 3.5994
1668.566 3.0894 2.6994 2.5994 1.9994 1.4594 1.1994 1.1994 1.3194 1.3194 1.1394
1687.856 0.953 1.1694 1.2994 1.1994 1.1494 1.0994 1.0994 1.024 1.009 1.0994
1707.146 1.2094 1.4694 1.5794 1.4494 1.4294 1.3894 1.4694 1.6094 1.8394 2.0594
1726.435 2.1494 2.1594 2.2694 2.2594 2.1894 2.2894 2.2994 2.3594 2.3394 2.2494
1745.725 2.0594 2.0294 1.9794 1.8094 1.7294 1.6394 1.5894 1.4194 1.4394 1.4594
1765.015 1.3594 1.1894 1.1494 1.4394 1.6894 1.8494 2.0194 2.1494 2.2394 2.5594
1784.305 2.8894 3.0494 3.4094 4.0294 4.3494 4.2894 4.1794 3.9594 3.5294 2.9794
1803.594 2.3394 1.9394 1.8194 1.7794 1.8394 2.0894 2.1494 1.9994 2.0794 1.9794
1822.884 1.7594 1.6094 1.3394 1.0394 0.9414 0.9946 0.9597 0.8441 0.9217 1.0494
1842.174 1.0794 0.9743 1.0494 1.1794 1.2094 1.4394 1.6194 1.7394 1.8594 2.0194
1861.464 2.1994 2.4294 2.5494 2.6994 2.9394 3.1494 3.3394 3.3994 3.5394 3.7994
1880.754 3.9594 4.0994 4.1794 4.2294 4.0194 3.4394 2.8894 2.4494 2.0294 1.5794
1900.043 1.2794 1.1194 1.1594 1.1294 0.9182 1.0234 1.1794 1.1794 1.3294 1.5494
1919.333 1.7194 1.8294 1.9194 2.0594 2.2794 2.6194 2.7794 2.7894 2.7594 2.8694
1938.623 3.1194 3.2594 3.4894 3.7894 3.9794 4.2094 4.3294 4.3894 4.4394 4.1594
1957.913 3.8494 3.5894 3.0794 2.3994 1.8094 1.2594 0.8755 0.7355 0.6375 0.6808
1977.202 0.7438 0.5763 0.5176 0.4647 0.4664 0.5704 0.5952 0.5522 0.5501 0.7079
1996.492 0.6367 0.536 0.478 0.3849 0.364 0.5104 0.5851 0.4497 0.4719 0.3815
2015.782 0.2682 0.3133 0.3086 0.4359 0.5628 0.3576 0.3729 0.4121 0.1816 0.1631
2035.072 0.3174 0.4133 0.4589 0.5542 0.5851 0.4999 0.2677 0.3063 0.5737 0.4956
2054.362 0.3562 0.4108 0.3871 0.3818 0.3912 0.4333 0.3467 0.2606 0.4886 0.509
2073.651 0.3997 0.5195 0.5295 0.6182 0.7159 0.4765 0.3878 0.36 0.4262 0.5221
2092.941 0.4812 0.5021 0.4955 0.3985 0.411 0.4951 0.4777 0.4609 0.5212 0.5469
2112.231 0.4266 0.4832 0.527 0.384 0.3177 0.2615 0.3349 0.339 0.1822 0.1584
2131.521 0.2658 0.4501 0.3971 0.3146 0.2953 0.3107 0.5281 0.5679 0.5092 0.5408
2150.810 0.4771 0.3421 0.4446 0.5895 0.5175 0.4676 0.482 0.5246 0.5103 0.6051
2170.100 0.8099 0.8439 0.8076 0.7906 0.8016 0.8921 0.807 0.7412 1.0052 1.0694
2189.390 1.0005 1.0694 1.1894 1.2494 1.4594 1.6094 1.6694 1.6594 1.7694 2.1994
2208.680 2.2994 2.2994 2.4494 2.5194 2.5494 2.6394 2.7194 2.8994 2.9894 2.9094
2227.970 2.9394 2.9894 2.9494 2.8394 2.8594 2.7294 2.5494 2.5094 2.4194 2.3094
2247.259 2.1294 2.0294 1.9994 1.7994 1.6094 1.6194 1.7394 1.7394 1.5894 1.3594
2266.549 1.2894 1.4794 1.3994 1.2494 1.2094 1.1194 1.1994 1.3394 1.2994 1.2394
2285.839 1.0794 0.9039 0.8712 0.8313 0.8829 0.8698 0.7742 0.7532 0.9765 1.2094
2305.129 1.2494 1.2394 1.2194 1.5794 1.9194 1.9394 1.8994 1.6894 1.6094 1.5194
2324.418 1.1794 0.969 0.9676 1.2794 1.2894 1.2394 1.1894 0.9975 1.0894 0.9626
2343.708 1.0013 1.1294 1.0394 1.0794 1.2194 1.1094 0.9737 1.0111 0.836 0.6688
2362.998 0.7946 1.1694 1.0794 0.7284 0.8251 1.0394 0.9341 0.8485 0.8245 0.6726
2382.288 0.6033 0.583 0.6691 0.7243 0.8783 0.7967 0.7252 0.8465 0.9967 1.0594
2401.578 0.9602 0.9586 0.817 0.847 0.9 0.8014 0.8187 0.8884 1.0202 1.2594
2420.867 1.1294 1.1294 1.2994 1.1494 1.0794 1.0694 1.0994 0.9312 0.8032 1.0041
2440.157 1.0195 1.0894 1.2094 1.0994 0.9178 0.7204 0.6181 0.6306 0.7823 0.9472
2459.447 0.9375 0.9215 0.8062 0.3248 0.3548 0.5869 0.5443 0.7955 0.9956 1.0248
2478.737 1.1694 1.1494 0.9535 0.9106 0.9952 0.8392 0.7946 1.0494 1.0322 0.8117
2498.026 0.6702 0.8957 1.3294 1.1894 0.884 0.9396 0.9284 1.0594 1.2294 1.0018
2517.316 0.8817 1.0342 0.9999 0.9063 0.9819 1.0218 1.1894 1.1794 1.1094 1.1094
2536.606 0.8992 0.967 0.9855 0.9187 0.7894 0.9801 1.1294 1.0328 1.1694 1.2994
2555.896 1.4594 1.2694 1.4094 1.5294 1.2794 1.2394 1.2194 1.2294 1.2994 1.4094
2575.186 1.5694 1.6794 1.7794 1.5594 1.3594 1.4094 1.2794 1.3994 1.4594 1.6094
2594.475 1.6494 1.6694 1.8794 1.8194 1.7394 1.8494 1.7894 1.6094 1.5894 1.6994
2613.765 1.7294 1.6594 1.7494 1.6194 1.7294 2.1094 2.0194 1.8894 1.9194 1.8194
2633.055 1.6194 1.5794 1.5194 1.4394 1.8094 1.7894 1.6694 1.7694 1.6894 1.5594
2652.345 1.7194 1.9994 2.0594 2.0094 1.9794 2.0194 1.8294 1.7394 2.0194 2.2994
2671.634 2.4694 2.4294 2.3694 2.3194 2.0594 2.5194 2.6694 2.3794 2.5494 2.6694
2690.924 2.5794 2.3494 2.2994 2.1994 2.0594 2.1994 2.1294 2.1594 2.3494 2.3194
2710.214 2.2194 2.2294 2.0894 2.1394 2.4294 2.2194 2.0394 2.0294 1.9294 1.9594
2729.504 2.2994 2.4894 2.3394 2.3694 2.4694 2.5194 2.5794 2.6294 2.8694 3.1294
2748.794 3.1494 2.8694 2.7694 3.1994 3.6494 3.2294 2.7294 2.8594 3.0894 3.4094
2768.083 3.3694 3.2194 3.3294 3.3194 3.5594 3.8294 3.8294 3.8394 3.6894 3.5994
2787.373 3.6194 3.6094 3.8994 4.3294 4.4394 4.0194 3.7194 3.9294 3.9894 4.0494
2806.663 4.5494 4.9394 5.1094 5.2894 5.9194 6.2894 6.3694 6.6894 7.2694 8.3094
2825.953 9.3394 9.8994 10.2994 10.7294 11.5894 12.5294 12.9894 13.6394 14.3294 14.9494
2845.242 15.5994 16.2494 16.4294 16.6094 17.4594 18.3794 19.4994 20.5994 21.8394 23.5894
2864.532 25.0794 26.4494 28.4294 30.7694 32.7794 34.9194 37.1494 39.2994 42.1594 45.1194
2883.822 47.0894 48.7094 49.6194 49.5694 49.3594 48.5594 47.6294 46.8094 45.9394 46.1194
2903.112 47.4394 49.2094 51.4194 54.6894 58.6294 62.2794 65.7694 68.5194 70.7194 72.5594
2922.401 73.9894 76.3094 78.6494 81.1494 84.2294 86.5994 88.5994 90.1094 90.8794 90.7994
2941.691 89.3094 86.5794 82.9994 78.5694 73.4894 67.8194 62.6494 58.4394 55.5894 55.2994
2960.981 56.7494 59.2394 63.5894 68.8494 73.3594 77.2994 79.7694 79.0594 75.2694 69.7994
2980.271 63.4694 56.4394 49.4794 43.1294 37.4094 32.4294 28.1594 24.7194 22.0094 19.8494
2999.561 17.8794 16.3494 15.5494 15.1094 14.5994 13.9894 13.9294 14.1694 14.4994 14.7594
3018.850 14.8394 15.3894 15.7894 16.6194 18.1194 19.1894 20.0494 21.4394 23.2194 24.7594
3038.140 25.1594 24.4694 23.3994 21.9794 20.6294 19.8094 19.9394 20.8794 22.6694 25.6794
3057.430 28.8194 32.3894 36.7194 40.4994 43.8594 46.6994 47.1794 45.0094 42.6694 40.1894
3076.720 36.8594 33.2294 30.5394 29.5294 29.2794 28.7594 28.2594 27.8894 26.9094 25.7794
3096.009 24.8594 23.4094 21.5994 19.8294 17.9094 15.8694 14.2394 12.9394 11.0694 9.4094
3115.299 8.1294 6.9294 6.0694 5.1494 4.2894 3.8394 3.7994 3.8294 3.5094 2.7094
3134.589 2.2894 2.7994 3.1094 3.0494 3.0594 2.5794 2.2794 2.5794 2.5294 2.7294
3153.879 2.7194 2.1494 1.8394 1.9794 2.2894 2.0494 2.0694 2.1294 1.9894 1.8694
3173.169 1.7194 1.7094 1.5194 1.5094 1.1494 1.1794 1.8494 1.8794 2.0294 1.7594
3192.458 1.2294 1.3594 1.5294 1.5894 1.5594 1.7094 1.5994 1.4394 1.4594 1.2994
3211.748 1.1894 1.1094 0.724 0.4959 0.6993 0.7165 0.4439 0.9295 1.0494 0.55
3231.038 0.7594 1.004 1.1094 1.2094 1.1994 0.6795 0.5839 0.9632 0.8482 0.6314
3250.328 0.4781 0.3398 0.4876 1.0794 1.1094 0.8557 0.8919 0.6873 0.4875 0.4587
3269.617 0.6966 0.9596 0.9658 0.6566 0.3209 0.2698 0.3264 0.5633 0.8307 0.9308
3288.907 0.7966 0.5491 0.6368 1.0386 1.2294 0.9747 0.5196 0.513 0.6954 0.6419
3308.197 0.6685 0.5322 0.5729 0.7654 0.6588 0.4868 0.8527 1.2294 1.033 0.6906
3327.487 0.7406 0.8739 0.6764 0.4315 0.8038 1.0494 0.5961 0.4289 0.5079 0.2905
3346.777 0.6453 0.7856 0.5979 0.7893 0.6112 0.09397 0.2441 0.3651 0.0121 0.11494
3366.066 0.2982 0.5922 0.808 0.5793 0.5639 0.5798 0.4669 0.8754 0.6002 0.2887
3385.356 0.3519 0.3937 0.3728 0.5751 0.7076 0.3391 0.6454 0.9228 0.4869 0.4178
3404.646 0.9367 1.0298 0.7873 0.9589 0.8204 0.3325 0.4095 0.8353 0.9277 0.7609
3423.936 0.6707 0.11223 0 0.8978 0.8596 0.4804 1.0189 1.0394 0.8145 0.6745
3443.225 0.6123 0.7703 0.5855 0.4539 0.8469 1.1094 0.6703 0.3581 0.5813 0.6862
3462.515 0.8127 0.9923 0.8214 0.3404 0.7211 1.3894 1.1094 1.0894 0.9188 1.0141
3481.805 1.5194 1.3694 1.3294 1.3794 1.4094 1.4594 0.7026 0.5493 0.8588 1.0894
3501.095 1.4494 1.4494 1.0894 0.8904 0.9835 0.7797 1.0694 1.4694 1.2494 1.0994
3520.385 1.2394 1.3194 0.9413 1.0253 1.5894 1.5694 0.9906 0.7149 0.5781 0.8331
3539.674 1.4694 1.1894 1.034 1.3094 1.6994 2.0994 1.8594 1.3994 1.6894 2.0294
3558.964 1.9694 1.7494 2.3594 2.9094 2.8794 3.2094 3.2694 3.7294 3.9294 4.4394
3578.254 5.4494 5.5594 5.7494 5.7794 5.7994 6.3294 7.5394 9.3494 10.2994 11.0794
3597.544 11.7894 12.3294 13.4094 14.9294 16.7494 19.1994 21.6494 23.1194 23.6094 23.3294
3616.833 21.3994 18.6594 16.4894 14.2194 11.9294 10.4194 9.7494 9.1894 8.8194 8.3494
3636.123 8.2094 8.0894 8.1994 8.6294 8.7894 9.0094 9.6794 10.5794 11.2894 11.7894
3655.413 12.1594 12.0394 11.6894 11.1694 10.0494 8.1994 6.7594 6.2694 5.3594 4.6594
3674.703 3.9094 3.0194 2.5894 2.2694 2.2494 2.4594 2.1994 1.9594 1.7394 1.8094
3693.993 1.9894 1.4594 1.4994 1.7594 1.9994 2.1094 1.8194 1.5994 1.3694 1.1294
3713.282 1.0208 1.2494 1.1594 1.0894 1.4794 1.4394 0.6907 0.4319 0.6323 1.0994
3732.572 1.1694 0.6269 0.461 0.6802 0.9161 0.5914 0.338 0.6511 0.7376 0.3972
3751.862 0.5923 0.6305 0.4477 0.764 1.1794 1.1894 0.6184 0.459 0.88 0.8042
3771.152 0.5631 0.7906 0.7924 0.9617 1.4894 1.3094 0.6947 0.8784 0.9082 0.5601
3790.441 0.8331 0.7693 0.7316 0.7147 0.3704 0.5193 0.8076 1.1894 1.3594 0.9691
3809.731 0.3122 0.11725 0.4544 0.5902 0.1592 0.0173 0.5543 0.5566 0.4847 0.7151
3829.021 0.8626 0.7077 0.386 0.5878 0.5878 0.4529 0.8611 0.93 0.807 0.8871
3848.311 0.686 0.611 0.9387 0.9854 0.9047 0.7915 0.747 0.7187 0.515 0.7289
3867.601 0.8841 0.8844 1.1994 0.714 0.8147 1.3594 1.0994 1.2094 0.8803 0.3094
3886.890 0.3806 0.8321 0.9018 0.6895 0.7643 0.7352 0.7725 0.9683 0.9397 0.9171
3906.180 0.8731 1.1794 1.0394 0.8718 1.1494 1.2394 1.0694 0.6874 0.6136 0.7798
3925.470 0.8499 0.969 1.2994 1.0894 0.8892 0.977 1.0894 1.3894 1.1494 0.4291
3944.760 0.2126 0.5499 0.883 1.0794 0.9142 0.9547 0.7592 0.2837 0.4349 0.8261
3964.049 0.9691 0.7494 0.2668 0.2056 0.6108 0.928 0.9113 0.7124 0.7525 0.8053
3983.339 0.72 0.4672 0.3962 0.2495 0.3402 0.2728 0.4184 0.6609 0.6332 0.8795
##END=
