##TITLE=2,5-Dimethylphenylacetic acid
##JCAMP-DX=4.24
##DATA TYPE=INFRARED SPECTRUM
##ORIGIN=EPA-IR VAPOR PHASE LIBRARY
##OWNER=SRD/NIST
Collection (C) 2018 copyright by the U.S. Secretary of Commerce
on behalf of the United States of America. All rights reserved.
##CAS REGISTRY NO=13612-34-5
##MOLFORM=C 10 H 12 O 2
##$NIST SOURCE=MSDC-IR
##STATE=gas
##XUNITS=1/CM
##YUNITS=ABSORBANCE
##XFACTOR=1.
##YFACTOR=0.001
##DELTAX=1.92934
##FIRSTX=549.9
##LASTX=3999.5
##FIRSTY=14.39
##MAXX=3999.53
##MINX=549.863
##MAXY=0.17339
##MINY=0
##NPOINTS=1789
##XYDATA=(X++(Y..Y))
549.863 14.39 13.15 12.17 11.45 10.92 10.86 11.04 11.3 11.85 12.45
569.156 13.32 14.41 15.53 16.95 18.74 20.95 23.8 27.67 32.99 40.02
588.450 48.58 57.27 64.75 70.74 75.19 77.8 78.21 76.31 71.87 65.57
607.743 59.02 53.37 48.91 45.46 42.8 40.59 38.55 36.59 34.81 33.14
627.037 31.5 29.93 28.4 26.81 25.21 23.73 22.39 21.08 19.82 18.68
646.330 17.56 16.44 15.38 14.49 13.62 12.81 12.19 11.6 11.06 10.6
665.624 10.28 10.17 10.05 9.89 9.82 9.88 10.05 10.28 10.59 10.98
684.917 11.34 11.69 12.07 12.51 12.89 13.15 13.38 13.56 13.71 13.76
704.210 13.71 13.55 13.23 12.77 12.07 11.24 10.45 9.74 9.03 8.45
723.504 8.02 7.7 7.47 7.18 6.9 6.59 6.23 5.9 5.55 5.23
742.797 4.95 4.74 4.56 4.41 4.33 4.27 4.29 4.32 4.4 4.62
762.091 4.86 5.07 5.37 5.73 6.09 6.44 6.88 7.33 7.76 8.24
781.384 8.78 9.41 10.19 11.27 12.67 14.48 16.72 19.19 21.67 24.04
800.678 26.61 29.72 33.33 35.24 32.21 27.03 23.47 20.63 17.76 14.83
819.971 12.04 9.66 7.87 6.7 5.95 5.53 5.28 5.15 5.15 5.2
839.264 5.25 5.33 5.43 5.47 5.56 5.61 5.69 5.81 5.92 6.03
858.558 6.01 6.02 5.98 5.87 5.89 5.91 5.94 6.02 6.05 6.16
877.851 6.33 6.44 6.56 6.71 6.8 6.82 6.81 6.72 6.57 6.39
897.145 6.18 5.98 5.81 5.65 5.53 5.47 5.46 5.45 5.46 5.54
916.438 5.64 5.77 5.86 5.94 6.04 6.12 6.21 6.26 6.27 6.28
935.732 6.29 6.29 6.24 6.15 6.02 5.93 5.79 5.62 5.49 5.35
955.025 5.16 5.02 4.9 4.77 4.69 4.6 4.53 4.51 4.47 4.49
974.318 4.53 4.55 4.61 4.68 4.81 4.99 5.16 5.32 5.51 5.72
993.612 5.91 6.03 6.13 6.19 6.18 6.15 6.08 5.99 5.93 5.86
1012.905 5.83 5.83 5.87 5.92 6 6.15 6.33 6.53 6.77 7.1
1032.199 7.5 7.81 8.05 8.35 8.69 9.1 9.52 9.98 10.46 11
1051.492 11.59 12.18 12.93 13.86 14.94 16.23 17.72 19.4 21.38 23.62
1070.786 26.2 29.13 32.35 35.84 39.54 43.52 47.7 52.02 56.54 61.31
1090.079 66.47 72.12 78.47 85.68 93.86 102.84 112.18 121.41 129.76 136.44
1109.372 140.85 142.83 142.65 140.26 135.63 129.19 121.52 113.71 106.87 101.24
1128.666 96.45 92.09 87.72 83.08 78.1 73 67.91 63.01 58.49 54.55
1147.959 51.22 48.38 45.93 43.62 41.46 39.39 37.48 35.72 33.86 31.9
1167.253 29.9 28.05 26.53 25.35 24.53 24.03 23.75 23.62 23.69 23.94
1186.546 24.28 24.68 25.08 25.51 26.03 26.48 26.88 27.27 27.54 27.78
1205.840 27.8 27.73 27.6 27.35 27.06 26.6 26.14 25.56 24.91 24.19
1225.133 23.37 22.51 21.61 20.69 19.85 19.08 18.35 17.69 17.07 16.53
1244.426 16.02 15.55 15.2 14.9 14.52 14.16 13.93 13.73 13.55 13.43
1263.720 13.36 13.34 13.3 13.39 13.57 13.83 14.25 14.7 15.26 15.92
1283.013 16.56 17.29 18.08 18.83 19.48 19.99 20.39 20.67 20.81 20.79
1302.307 20.58 20.22 19.73 19.11 18.45 17.83 17.3 16.86 16.51 16.3
1321.600 16.26 16.41 16.72 17.24 17.91 18.68 19.69 20.9 22.29 23.83
1340.894 25.46 27.1 28.7 30.14 31.39 32.37 32.98 33.16 32.9 32.14
1360.187 30.95 29.4 27.57 25.6 23.55 21.51 19.67 18.15 16.97 16.1
1379.480 15.46 14.99 14.64 14.35 14.01 13.61 13.16 12.6 12.02 11.54
1398.774 11.15 10.85 10.66 10.63 10.73 10.98 11.34 11.8 12.36 12.98
1418.067 13.66 14.37 15.04 15.72 16.33 16.8 17.22 17.56 17.73 17.81
1437.361 17.74 17.49 17.14 16.69 16.22 15.78 15.34 14.93 14.57 14.22
1456.654 13.87 13.53 13.25 13.04 12.87 12.66 12.47 12.3 12.11 11.92
1475.948 11.8 11.83 11.98 12.27 12.78 13.53 14.59 16.06 17.99 20.34
1495.241 23.14 26.2 28.99 31.19 32.54 32.95 32.43 31.14 29.12 26.17
1514.534 22.56 18.8 15.48 12.93 10.96 9.58 8.55 7.78 7.19 6.75
1533.828 6.43 6.18 6 5.88 5.72 5.59 5.51 5.43 5.34 5.25
1553.121 5.2 5.16 5.13 5.12 5.06 4.98 4.97 4.98 4.97 4.96
1572.415 4.91 4.9 4.93 4.92 4.91 4.87 4.83 4.79 4.8 4.8
1591.708 4.86 5.02 5.26 5.59 6.02 6.52 7.06 7.64 8.17 8.62
1611.002 8.99 9.14 9.09 8.82 8.33 7.71 6.99 6.17 5.37 4.62
1630.295 3.98 3.52 3.23 2.96 2.75 2.68 2.64 2.61 2.64 2.68
1649.588 2.69 2.73 2.77 2.8 2.87 2.92 3.01 3.1 3.16 3.23
1668.882 3.32 3.43 3.55 3.69 3.79 3.89 4.1 4.36 4.61 4.82
1688.175 5.03 5.24 5.5 5.83 6.16 6.52 6.92 7.33 7.79 8.32
1707.469 8.88 9.48 10.16 10.95 11.84 12.84 13.92 15.07 16.36 17.81
1726.762 19.44 21.23 23.27 25.57 28.25 31.1 34.28 37.96 42.05 46.63
1746.056 51.62 57.13 63.18 69.78 76.81 84.35 92.66 101.6 111.47 122.05
1765.349 132.74 143.13 152.68 160.65 166.93 171.27 173.39 172.99 169.79 164.1
1784.642 156.33 147.13 137.31 127.3 117.27 107.34 97.62 88.05 78.81 69.95
1803.936 61.77 54.23 47.43 41.45 36.23 31.69 27.77 24.46 21.63 19.23
1823.229 17.17 15.36 13.82 12.48 11.33 10.36 9.5 8.73 8.04 7.39
1842.523 6.79 6.25 5.84 5.43 5.03 4.74 4.48 4.24 4.07 3.91
1861.816 3.76 3.63 3.55 3.54 3.53 3.52 3.57 3.64 3.73 3.81
1881.110 3.93 4.04 4.06 4.07 4.01 3.87 3.68 3.47 3.25 2.99
1900.403 2.7 2.4565 2.2681 2.1093 1.9887 1.9071 1.8362 1.7941 1.7518 1.6854
1919.696 1.63043 1.61397 1.59765 1.57881 1.61048 1.6158 1.58019 1.58693 1.59295 1.57324
1938.990 1.58856 1.59294 1.57356 1.58772 1.60367 1.63985 1.66507 1.6743 1.66254 1.64594
1958.283 1.6773 1.65188 1.61394 1.61784 1.63138 1.6555 1.63244 1.63439 1.66546 1.63278
1977.577 1.61003 1.59725 1.57116 1.56033 1.57326 1.58613 1.56756 1.5485 1.5394 1.5128
1996.870 1.4905 1.455 1.399 1.391 1.388 1.344 1.312 1.305 1.276 1.271
2016.164 1.287 1.259 1.235 1.194 1.149 1.123 1.104 1.057 1.033 1.026
2035.457 1.007 1.012 0.99 0.958 0.936 0.92 0.901 0.903 0.923 0.872
2054.750 0.819 0.801 0.788 0.784 0.766 0.768 0.788 0.783 0.775 0.791
2074.044 0.789 0.766 0.746 0.741 0.742 0.737 0.759 0.796 0.797 0.782
2093.337 0.795 0.809 0.81 0.803 0.807 0.822 0.808 0.796 0.825 0.853
2112.631 0.878 0.868 0.829 0.816 0.806 0.805 0.806 0.783 0.783 0.807
2131.924 0.776 0.736 0.732 0.725 0.729 0.751 0.738 0.714 0.74 0.774
2151.218 0.787 0.787 0.782 0.768 0.773 0.796 0.801 0.794 0.811 0.838
2170.511 0.818 0.813 0.84 0.844 0.865 0.882 0.9 0.916 0.924 0.94
2189.804 0.948 0.963 0.976 1.004 1.054 1.084 1.108 1.152 1.183 1.189
2209.098 1.198 1.228 1.198 1.195 1.235 1.214 1.189 1.172 1.156 1.115
2228.391 1.072 1.051 1.034 1 0.948 0.932 0.928 0.934 0.922 0.893
2247.685 0.871 0.862 0.866 0.84 0.84 0.847 0.817 0.821 0.829 0.809
2266.978 0.819 0.848 0.866 0.864 0.859 0.848 0.838 0.826 0.817 0.829
2286.272 0.822 0.805 0.812 0.836 0.847 0.845 0.84 0.863 0.92 0.933
2305.565 0.908 0.929 0.965 0.96 0.958 0.973 0.988 0.997 0.979 0.977
2324.858 1.01 0.999 0.941 0.926 0.921 0.895 0.888 0.916 0.91 0.894
2344.152 0.924 0.88 0.86 0.904 0.901 0.915 0.945 0.961 0.966 0.96
2363.445 0.939 0.94 0.956 0.978 0.959 0.925 0.924 0.891 0.881 0.878
2382.739 0.858 0.855 0.83 0.814 0.829 0.838 0.815 0.8 0.831 0.85
2402.032 0.823 0.81 0.863 0.868 0.824 0.834 0.854 0.852 0.844 0.832
2421.326 0.834 0.837 0.801 0.791 0.77 0.722 0.757 0.803 0.82 0.831
2440.619 0.811 0.806 0.82 0.81 0.801 0.812 0.834 0.822 0.81 0.808
2459.912 0.818 0.82 0.804 0.793 0.769 0.757 0.752 0.74 0.715 0.674
2479.206 0.685 0.715 0.687 0.68 0.654 0.622 0.608 0.598 0.605 0.583
2498.499 0.55 0.55 0.54 0.52 0.54 0.54 0.52 0.48 0.46 0.49
2517.793 0.52 0.51 0.44 0.4 0.43 0.45 0.45 0.43 0.46 0.48
2537.086 0.47 0.44 0.43 0.45 0.42 0.38 0.36 0.39 0.38 0.32
2556.380 0.34 0.37 0.38 0.36 0.38 0.38 0.32 0.3 0.3 0.3
2575.673 0.3 0.31 0.3 0.28 0.28 0.3 0.29 0.3 0.3 0.29
2594.966 0.28 0.27 0.3 0.33 0.3 0.29 0.32 0.3 0.31 0.35
2614.260 0.36 0.36 0.3 0.29 0.28 0.23 0.26 0.29 0.24 0.26
2633.553 0.27 0.27 0.27 0.22 0.23 0.24 0.21 0.2 0.23 0.24
2652.847 0.24 0.24 0.24 0.25 0.29 0.31 0.28 0.29 0.33 0.33
2672.140 0.32 0.31 0.3 0.34 0.33 0.35 0.37 0.33 0.3 0.34
2691.434 0.35 0.34 0.35 0.36 0.39 0.37 0.37 0.43 0.45 0.45
2710.727 0.45 0.49 0.51 0.53 0.56 0.643 0.694 0.721 0.829 0.912
2730.020 1.034 1.187 1.362 1.58502 1.7232 1.8226 1.913 1.9426 1.9248 1.8515
2749.314 1.744 1.58471 1.412 1.261 1.112 0.952 0.827 0.73 0.648 0.597
2768.607 0.53 0.49 0.55 0.628 0.54 0.5 0.63 0.667 0.66 0.704
2787.901 0.687 0.679 0.762 0.84 0.95 1.019 0.967 1.032 1.12 1.185
2807.194 1.296 1.395 1.4703 1.56472 1.762 1.9324 1.982 2.1249 2.3328 2.4911
2826.488 2.65 2.81 3.04 3.27 3.52 3.79 4.05 4.42 4.77 5.09
2845.781 5.56 6.06 6.58 7.3 8.09 8.88 9.87 10.99 12.17 13.52
2865.074 14.91 16.27 17.73 19 20.07 20.94 21.5 21.8 21.92 21.83
2884.368 21.48 21.15 20.75 20.33 20.03 19.72 19.5 19.41 19.42 19.61
2903.661 19.94 20.4 21.03 21.83 22.91 24.33 26.03 28.07 30.53 33.21
2922.955 36.17 39.24 42.09 44.59 46.41 47.45 47.84 47.51 46.35 44.43
2942.248 42.13 39.58 36.89 34.31 31.92 29.91 28.18 26.66 25.58 24.59
2961.542 23.66 22.98 22.39 21.87 21.42 21.18 21.11 21.15 21.28 21.41
2980.835 21.64 21.83 21.94 22.1 22.28 22.58 23 23.47 24.21 25.22
3000.128 26.21 27.29 28.54 29.73 30.67 31.47 32.09 32.54 32.72 32.49
3019.422 32 31.3 30.46 29.4 28.28 27.16 26.05 24.91 23.85 23.09
3038.715 22.74 22.72 22.94 23.49 24.02 24.42 24.6 24.36 23.8 22.96
3058.009 21.65 19.95 18.2 16.38 14.58 13.14 11.93 10.84 9.92 9.2
3077.302 8.48 7.76 7.19 6.68 6.07 5.57 5.25 4.77 4.39 4.18
3096.596 3.97 3.7 3.45 3.26 3.11 3.02 2.98 2.87 2.73 2.78
3115.889 2.79 2.71 2.63 2.5558 2.5208 2.393 2.2889 2.1693 1.9915 1.8239
3135.182 1.7388 1.5821 1.321 1.193 1.067 0.914 0.801 0.649 0.598 0.58
3154.476 0.55 0.5 0.4 0.28 0.2 0.3 0.33 0.19 0.13 0.16
3173.769 0.16 0.26 0.29 0.24 0.16 0.18 0.21 0.23 0.26 0.11
3193.063 0.03 0.06 0.11 0.18 0.17 0.07 0.14 0.2 0.1 0.13
3212.356 0.1 0.03 0.05 0 0 0.09 0.11 0.08 0.07 0.14
3231.650 0.23 0.24 0.17 0.12 0.16 0.23 0.25 0.26 0.24 0.23
3250.943 0.29 0.29 0.29 0.29 0.3 0.26 0.18 0.26 0.28 0.39
3270.236 0.42 0.4 0.51 0.41 0.25 0.29 0.24 0.17 0.25 0.29
3289.530 0.32 0.28 0.3 0.38 0.35 0.42 0.5 0.42 0.33 0.51
3308.823 0.53 0.43 0.51 0.57 0.48 0.45 0.595 0.51 0.43 0.43
3328.117 0.43 0.41 0.42 0.5 0.49 0.53 0.55 0.56 0.588 0.47
3347.410 0.37 0.42 0.644 0.76 0.582 0.41 0.48 0.612 0.574 0.51
3366.704 0.59 0.66 0.821 0.8 0.578 0.595 0.704 0.706 0.645 0.651
3385.997 0.659 0.666 0.692 0.653 0.611 0.667 0.779 0.737 0.72 0.8
3405.290 0.734 0.691 0.777 0.855 0.83 0.75 0.801 0.808 0.715 0.679
3424.584 0.728 0.909 0.964 0.915 0.901 0.878 0.93 0.87 0.807 0.871
3443.877 0.894 0.915 0.973 0.977 0.932 0.926 0.98 1.019 0.977 1.111
3463.171 1.253 1.243 1.269 1.212 1.263 1.389 1.359 1.311 1.384 1.5414
3482.464 1.64202 1.66154 1.64727 1.7544 1.8064 1.8268 1.9242 1.9875 2.0577 2.1533
3501.758 2.1868 2.177 2.2945 2.398 2.5437 2.68 2.78 2.92 2.94 3.07
3521.051 3.3 3.39 3.44 3.61 3.9 4.14 4.39 4.77 5.2 5.72
3540.344 6.38 7.12 7.95 8.76 9.61 10.51 11.6 13.15 15.42 18.68
3559.638 23.41 30.29 39.34 50.08 60.84 69.51 75.46 78.9 79.15 75.49
3578.931 68.64 59.09 47.58 36.11 26.48 19.24 14.27 10.88 8.55 7.09
3598.225 6.02 5.25 4.73 4.27 3.89 3.56 3.28 3.1 2.95 2.73
3617.518 2.58 2.5021 2.3561 2.2506 2.1412 2.0097 2.0479 1.9861 1.8131 1.7549
3636.812 1.61118 1.518 1.4755 1.4776 1.5196 1.465 1.376 1.353 1.378 1.392
3656.105 1.352 1.396 1.382 1.304 1.332 1.252 1.185 1.218 1.212 1.239
3675.398 1.176 1.11 1.134 1.044 0.994 1.012 0.975 0.96 0.96 0.976
3694.692 1.038 1.051 0.992 1.05 1.137 1.053 1.01 1.042 1.051 1.046
3713.985 1.04 1.011 1.024 1.108 1.097 1.007 0.995 1.005 0.97 1.005
3733.279 1.128 1.212 1.165 1.028 0.976 0.959 1.019 1.115 1.146 1.172
3752.572 1.065 0.994 1.028 1.017 0.96 0.976 1.033 0.972 0.953 1.062
3771.866 1.066 0.985 0.942 0.923 0.979 1.072 1.047 0.981 0.988 0.994
3791.159 0.918 0.884 0.946 0.975 1.027 1.003 0.95 0.928 0.873 0.895
3810.452 0.947 0.953 0.9 0.99 1.044 0.901 0.829 0.881 1.003 0.979
3829.746 0.967 1.054 1.068 1.073 1.004 0.927 0.96 0.982 0.979 1.023
3849.039 1.127 1.132 1.068 1.033 0.958 0.944 1.024 1.051 1.107 1.162
3868.333 1.071 1.02 0.971 0.993 1.007 1.002 1.113 1.161 1.136 1.042
3887.626 1.001 1.066 1.141 1.182 1.088 1.028 1.024 1.044 1.079 1.098
3906.920 1.1 1.061 1.123 1.121 1.01 1.002 1.07 1.071 1.073 1.068
3926.213 1.071 1.094 1.121 1.117 1.066 1.045 1.04 1.065 1.077 1.094
3945.506 1.074 1.091 1.144 1.118 1.045 1.006 1.035 1.035 1.042 1.087
3964.800 1.092 1.066 1.044 1.032 1.02 1.085 1.085 1.065 1.096 1.083
3984.093 1.046 1.075 1.106 1.07 1.071 1.065 1.023 1.005 0.997
##END=
