##TITLE=9-Fluorenone hydrazone
##JCAMP-DX=4.24
##DATA TYPE=INFRARED SPECTRUM
##ORIGIN=EPA-IR VAPOR PHASE LIBRARY
##OWNER=SRD/NIST
Collection (C) 2018 copyright by the U.S. Secretary of Commerce
on behalf of the United States of America. All rights reserved.
##CAS REGISTRY NO=13629-22-6
##MOLFORM=C 13 H 10 N 2
##$NIST SOURCE=MSDC-IR
##STATE=gas
##XUNITS=1/CM
##YUNITS=ABSORBANCE
##XFACTOR=1.
##YFACTOR=0.001
##DELTAX=1.92898
##FIRSTX=549.8
##LASTX=4000.7
##FIRSTY=3.787
##MAXX=4000.7
##MINX=549.759
##MAXY=0.029957
##MINY=0
##NPOINTS=1790
##XYDATA=(X++(Y..Y))
549.759 3.787 3.557 3.337 2.857 2.697 2.707 2.957 2.817 2.757 2.907
569.049 3.207 3.347 3.457 3.857 4.037 4.367 4.517 4.277 4.567 5.037
588.339 5.247 5.367 5.617 5.887 5.917 6.207 6.587 6.637 6.607 6.777
607.628 7.147 7.577 7.697 7.967 8.497 8.837 9.047 9.137 9.397 9.727
626.918 9.877 9.987 10.167 10.377 10.627 11.057 11.357 11.387 10.867 10.237
646.208 9.957 9.607 9.117 8.747 8.527 8.297 8.257 8.247 8.107 7.747
665.498 7.417 7.177 6.757 6.347 6.037 6.007 6.017 5.797 5.617 5.657
684.787 5.577 5.377 5.297 5.227 5.027 4.887 4.997 4.967 4.817 4.667
704.077 4.697 4.987 5.337 5.747 6.387 7.337 8.947 11.237 13.677 15.957
723.367 18.367 21.977 27.397 29.957 26.067 21.447 19.067 17.427 15.537 12.947
742.657 10.447 8.537 7.207 6.307 5.837 5.457 5.297 4.937 4.617 4.757
761.947 5.037 5.377 5.767 6.267 6.947 7.647 8.327 9.217 9.697 9.407
781.236 8.557 7.547 6.597 5.857 5.177 4.277 3.767 3.507 3.257 3.017
800.526 2.807 2.877 2.787 2.517 2.377 2.417 2.467 2.367 2.377 2.467
819.816 2.397 2.337 2.277 2.267 2.297 2.067 1.907 2.037 2.097 2.107
839.106 2.197 2.167 2.047 1.937 2.067 2.317 2.337 2.197 1.977 2.167
858.395 2.367 2.247 2.357 2.317 2.247 2.417 2.457 2.417 2.177 2.147
877.685 2.217 1.907 1.877 1.957 1.887 1.937 1.877 1.927 2.067 1.917
896.975 1.997 2.037 1.917 1.777 1.747 1.817 1.847 1.807 1.737 1.757
916.265 1.877 1.947 1.857 1.887 2.107 2.527 2.997 3.457 3.737 3.837
935.555 4.127 4.257 4.247 4.267 3.797 3.337 3.087 2.777 2.597 2.477
954.844 2.267 2.217 2.177 2.077 2.047 2.057 2.047 1.737 1.667 1.807
974.134 1.687 1.857 1.987 1.827 1.977 1.937 1.907 2.077 2.087 2.467
993.424 2.517 2.287 2.657 2.737 2.547 2.937 3.047 2.727 2.607 2.817
1012.714 2.907 2.627 2.807 2.937 3.017 3.227 3.257 3.347 3.637 4.197
1032.003 4.187 4.057 3.967 3.937 3.877 3.817 3.937 3.707 3.697 4.107
1051.293 4.297 4.167 4.317 4.217 4.007 3.937 3.617 3.707 3.717 2.867
1070.583 2.027 1.657 1.627 2.007 2.017 1.757 1.837 1.727 1.677 1.737
1089.873 1.417 1.627 2.027 2.187 2.957 3.057 2.867 3.057 3.397 3.777
1109.163 3.317 2.607 1.927 2.037 2.377 1.947 1.627 1.427 1.417 1.387
1128.452 1.197 1.1656 1.227 1.287 1.277 1.116 1.0412 1.497 2.137 2.447
1147.742 2.587 2.987 3.277 3.357 3.677 4.237 4.497 4.557 4.967 5.377
1167.032 5.617 5.787 6.017 6.357 6.427 5.747 5.407 5.287 5.017 4.857
1186.322 4.507 4.127 3.367 2.987 3.187 3.367 2.987 2.567 2.477 2.037
1205.611 1.697 1.637 1.847 1.797 1.447 1.457 1.487 1.547 1.1599 0.742
1224.901 0.9313 0.987 0.8268 0.7902 0.58 0.3854 0.4382 0.7358 1.0138 0.6988
1244.191 0.4118 0.5518 0.7319 0.7619 0.7279 0.6568 0.5603 0.6975 0.7607 0.9069
1263.481 1.042 0.8984 0.9763 1.1379 1.397 1.617 1.827 2.047 2.127 2.177
1282.771 2.257 2.307 2.037 1.897 1.837 1.607 1.447 1.367 1.407 1.277
1302.060 1.1142 1.1234 1.1128 1.0706 1.046 1.0332 1.1484 1.257 1.357 1.627
1321.350 1.987 2.257 2.417 2.647 2.827 2.947 2.987 2.847 2.627 2.457
1340.640 2.187 1.937 1.807 1.717 1.567 1.367 1.267 1.1662 1.0191 0.8299
1359.930 0.726 0.6949 0.6945 0.6408 0.599 0.6201 0.5997 0.565 0.5329 0.5781
1379.219 0.6134 0.6231 0.643 0.597 0.5405 0.5934 0.626 0.6502 0.7255 0.7509
1398.509 0.7655 0.8389 0.8453 0.8658 0.9777 1.0586 1.1538 1.217 1.297 1.417
1417.799 1.507 1.687 1.897 2.037 2.267 2.527 2.827 3.287 3.847 4.497
1437.089 5.517 6.687 7.837 9.017 10.117 10.777 10.957 10.607 9.727 8.707
1456.378 7.287 5.537 3.957 2.727 2.027 1.607 1.377 1.297 1.307 1.367
1475.668 1.337 1.267 1.197 1.257 1.247 1.098 0.9699 0.8791 0.8679 0.8199
1494.958 0.7955 0.8208 0.8309 0.789 0.7417 0.7226 0.7606 0.8443 0.7855 0.7236
1514.248 0.7439 0.7994 0.7795 0.7276 0.7746 0.7687 0.7397 0.7807 0.7728 0.6833
1533.538 0.6035 0.5754 0.7422 0.8954 0.8804 0.8529 0.8732 0.9807 0.9981 1.0047
1552.827 1.1223 1.1434 1.237 1.407 1.487 1.657 1.817 1.967 2.267 2.547
1572.117 2.837 3.267 3.717 4.197 4.707 5.117 5.537 6.007 6.237 6.367
1591.407 6.487 6.577 6.537 6.467 6.367 6.147 6.037 5.987 5.977 5.997
1610.697 6.007 5.847 5.537 5.287 4.997 4.527 4.087 3.647 3.137 2.807
1629.986 2.637 2.467 2.327 2.237 2.077 1.997 1.897 1.787 1.757 1.697
1649.276 1.637 1.587 1.507 1.407 1.357 1.397 1.367 1.257 1.217 1.247
1668.566 1.237 1.1804 1.1608 1.0912 1.1106 1.1258 1.0085 0.9584 0.971 0.9788
1687.856 0.9222 0.9339 1.0036 1.0011 0.9458 0.8703 0.8122 0.7883 0.8273 0.8816
1707.146 0.9379 0.948 0.9059 0.9431 0.9928 0.9485 0.9455 0.981 0.9476 0.9614
1726.435 0.9742 0.9698 0.9278 0.8703 0.8761 0.9193 0.906 0.8343 0.8248 0.8252
1745.725 0.8195 0.7848 0.6967 0.679 0.7649 0.7321 0.6929 0.7498 0.7535 0.7697
1765.015 0.8081 0.735 0.7093 0.834 0.8885 0.8903 0.8469 0.8351 0.9153 0.9104
1784.305 0.8778 0.8768 0.8592 0.848 0.9275 0.995 0.9986 1.056 1.0351 0.9862
1803.594 0.9726 0.8758 0.8236 0.8104 0.8304 0.7853 0.6751 0.7154 0.751 0.77
1822.884 0.6761 0.6411 0.822 0.8233 0.8389 0.9034 0.8869 0.8755 0.8393 0.7765
1842.174 0.7921 0.8305 0.7264 0.6513 0.6681 0.6942 0.6862 0.6623 0.694 0.7608
1861.464 0.7921 0.7665 0.7331 0.7507 0.7332 0.7358 0.7717 0.8186 0.8701 0.8385
1880.754 0.8244 0.813 0.8015 0.8672 0.8782 0.8813 0.9487 0.9774 0.9509 0.9601
1900.043 1.072 1.1936 1.1713 1.0939 1.0661 0.965 0.9291 0.8661 0.7917 0.7845
1919.333 0.7593 0.6635 0.6423 0.7199 0.7994 0.9467 1.1001 1.287 1.407 1.457
1938.623 1.507 1.517 1.437 1.327 1.197 1.0174 0.8306 0.7633 0.6756 0.5939
1957.913 0.5858 0.5447 0.4978 0.456 0.4353 0.3861 0.3888 0.4233 0.4124 0.3715
1977.202 0.3811 0.4612 0.463 0.4319 0.408 0.4216 0.4122 0.4027 0.41 0.3474
1996.492 0.374 0.3558 0.3427 0.3685 0.3487 0.3325 0.3478 0.3469 0.348 0.3478
2015.782 0.3323 0.353 0.3201 0.3527 0.4213 0.4284 0.4019 0.3635 0.356 0.398
2035.072 0.4234 0.3401 0.27016 0.3114 0.3454 0.3933 0.4497 0.4685 0.441 0.405
2054.362 0.3719 0.3417 0.3773 0.3808 0.3474 0.3027 0.3465 0.3831 0.3973 0.3915
2073.651 0.3146 0.301 0.3327 0.316 0.3087 0.341 0.332 0.351 0.3407 0.3035
2092.941 0.357 0.4374 0.4688 0.4298 0.4367 0.448 0.3795 0.3675 0.4075 0.4794
2112.231 0.4789 0.4481 0.4913 0.4935 0.4544 0.4704 0.4709 0.4533 0.4094 0.384
2131.521 0.4014 0.3984 0.4417 0.4301 0.3858 0.4306 0.4339 0.4319 0.4709 0.4887
2150.810 0.4756 0.4794 0.4144 0.3847 0.4732 0.4879 0.4243 0.3996 0.4314 0.4685
2170.100 0.4836 0.4289 0.3773 0.4408 0.4904 0.4521 0.4638 0.4506 0.4088 0.4215
2189.390 0.3725 0.3512 0.4242 0.4881 0.5482 0.5753 0.5091 0.4637 0.4796 0.512
2208.680 0.57 0.5474 0.514 0.5326 0.4936 0.494 0.495 0.4331 0.4408 0.4964
2227.970 0.6051 0.6135 0.5558 0.5198 0.5181 0.566 0.5191 0.4338 0.4233 0.5124
2247.259 0.5701 0.5072 0.4735 0.5251 0.5509 0.5703 0.5774 0.5476 0.5286 0.4815
2266.549 0.4246 0.358 0.3733 0.4318 0.4312 0.4417 0.4074 0.4234 0.4287 0.3827
2285.839 0.3747 0.3817 0.405 0.3534 0.3711 0.4287 0.3807 0.3586 0.401 0.3926
2305.129 0.4676 0.5497 0.5301 0.5746 0.5559 0.5697 0.5737 0.5718 0.5446 0.4414
2324.418 0.4178 0.4197 0.4344 0.4204 0.4439 0.4369 0.4987 0.4642 0.3611 0.4044
2343.708 0.4154 0.4124 0.3844 0.3795 0.3731 0.3374 0.3818 0.3969 0.3632 0.3518
2362.998 0.319 0.4141 0.4239 0.3894 0.4504 0.4348 0.4341 0.4582 0.4223 0.4011
2382.288 0.396 0.3447 0.3695 0.3255 0.22201 0.1691 0.24006 0.3227 0.2974 0.3416
2401.578 0.3637 0.3123 0.28311 0.28539 0.3558 0.3862 0.3238 0.3448 0.3078 0.25811
2420.867 0.27118 0.3546 0.4056 0.3109 0.27956 0.3368 0.3774 0.3895 0.399 0.3238
2440.157 0.3174 0.3379 0.3223 0.3554 0.3601 0.3239 0.3171 0.3184 0.359 0.3664
2459.447 0.3087 0.3502 0.26826 0.2978 0.3979 0.3324 0.26408 0.21948 0.3132 0.4296
2478.737 0.4206 0.3929 0.3281 0.23057 0.24539 0.3575 0.3642 0.2979 0.3244 0.3268
2498.026 0.316 0.3236 0.3331 0.3521 0.3154 0.3622 0.3995 0.333 0.3305 0.28347
2517.316 0.23102 0.3179 0.3374 0.3107 0.3429 0.4007 0.3318 0.1541 0.1048 0.18731
2536.606 0.322 0.3422 0.3026 0.26095 0.21865 0.2219 0.23628 0.3203 0.417 0.4222
2555.896 0.3526 0.22944 0.21683 0.3005 0.27233 0.23644 0.27454 0.25418 0.24778 0.3551
2575.186 0.4284 0.403 0.3832 0.3695 0.2898 0.3153 0.3949 0.27849 0.27741 0.3608
2594.475 0.3063 0.27644 0.3108 0.3992 0.3913 0.26764 0.21202 0.24583 0.28543 0.3661
2613.765 0.3135 0.3175 0.4019 0.335 0.3121 0.3371 0.413 0.4038 0.396 0.4401
2633.055 0.4197 0.4003 0.3658 0.4185 0.4687 0.5057 0.5208 0.4427 0.4776 0.4222
2652.345 0.3346 0.3387 0.3117 0.3161 0.3305 0.3485 0.3406 0.3296 0.4063 0.4181
2671.634 0.4555 0.4166 0.343 0.3795 0.3314 0.3553 0.3453 0.3414 0.3671 0.26287
2690.924 0.25167 0.301 0.26467 0.25851 0.27997 0.21123 0.1835 0.25723 0.3119 0.3975
2710.214 0.3991 0.3508 0.27608 0.25104 0.3474 0.3378 0.3142 0.3482 0.3226 0.25746
2729.504 0.19364 0.1842 0.196436 0.26288 0.3622 0.3573 0.3632 0.3741 0.28747 0.3027
2748.794 0.3873 0.28572 0.26016 0.24985 0.3048 0.4193 0.3008 0.23792 0.3289 0.3803
2768.083 0.406 0.3672 0.3109 0.3107 0.24506 0.1689 0.1633 0.3109 0.3503 0.248
2787.373 0.3327 0.365 0.3498 0.3868 0.325 0.365 0.4156 0.4257 0.3907 0.205758
2806.663 0.25803 0.465 0.396 0.3868 0.3959 0.3132 0.3098 0.3282 0.3994 0.3195
2825.953 0.174 0.23163 0.28223 0.27193 0.21514 0.1391 0.071 0.1617 0.346 0.3157
2845.242 0.25664 0.3274 0.28954 0.22906 0.2924 0.26608 0.26992 0.21877 0.1599 0.20172
2864.532 0.1528 0.27276 0.4687 0.5369 0.4979 0.4113 0.4154 0.3628 0.3773 0.4771
2883.822 0.4615 0.3671 0.3766 0.4705 0.3673 0.3679 0.5795 0.6209 0.6372 0.5593
2903.112 0.4793 0.5469 0.5862 0.521 0.4448 0.5247 0.6123 0.4482 0.3709 0.5217
2922.401 0.501 0.5869 0.7139 0.5984 0.4098 0.4098 0.4927 0.4904 0.454 0.4177
2941.691 0.4862 0.5449 0.5409 0.5201 0.4322 0.4162 0.4884 0.4492 0.368 0.4282
2960.981 0.4399 0.3513 0.3228 0.28797 0.2541 0.3024 0.3736 0.49 0.5774 0.4714
2980.271 0.364 0.3804 0.3751 0.3433 0.21195 0.3134 0.6552 0.6253 0.5308 0.5446
2999.561 0.6051 0.7819 0.8146 0.9432 1.0699 1.0727 1.1962 1.307 1.467 1.717
3018.850 1.927 2.047 2.267 2.587 2.837 3.027 3.107 3.327 3.547 3.527
3038.140 3.587 3.707 3.777 3.907 4.087 4.247 4.687 5.187 5.487 5.997
3057.430 6.787 7.767 8.767 9.667 10.247 10.707 11.157 11.117 10.907 10.497
3076.720 9.787 8.947 8.257 7.607 6.907 6.407 5.967 5.317 4.737 4.277
3096.009 3.687 3.167 2.517 1.987 1.637 1.227 0.9274 0.9013 0.8293 0.5759
3115.299 0.5936 0.6744 0.5853 0.4645 0.415 0.4537 0.4833 0.4978 0.5714 0.544
3134.589 0.5372 0.6198 0.5128 0.4339 0.5428 0.5177 0.3664 0.4668 0.5547 0.6175
3153.879 0.6359 0.5495 0.7285 0.7797 0.5352 0.5446 0.602 0.4736 0.4479 0.5395
3173.169 0.5923 0.5875 0.5146 0.4314 0.4543 0.4557 0.4109 0.4948 0.5016 0.4276
3192.458 0.4538 0.393 0.4152 0.4749 0.4668 0.4724 0.4579 0.421 0.5163 0.4939
3211.748 0.5129 0.6023 0.5978 0.5124 0.3221 0.423 0.4738 0.4679 0.5055 0.4595
3231.038 0.4145 0.4622 0.5881 0.5784 0.5601 0.5524 0.5091 0.3729 0.24978 0.27608
3250.328 0.3743 0.4208 0.5076 0.4378 0.3139 0.3794 0.4304 0.4013 0.407 0.3407
3269.617 0.21711 0.3977 0.4823 0.4515 0.3524 0.1804 0.1438 0.1707 0.25937 0.3869
3288.907 0.4788 0.3608 0.3589 0.27207 0.152 0.3159 0.3704 0.3961 0.395 0.29604
3308.197 0.29369 0.3917 0.4468 0.3113 0.26041 0.29159 0.436 0.5641 0.4139 0.29242
3327.487 0.2729 0.3835 0.3885 0.27954 0.3051 0.4103 0.3861 0.26459 0.1343 0.1175
3346.777 0.1553 0.22123 0.20749 0.29188 0.3126 0.28072 0.3632 0.4028 0.4059 0.3306
3366.066 0.27137 0.21368 0.4082 0.4641 0.3679 0.4401 0.39 0.3043 0.3168 0.3625
3385.356 0.3227 0.29657 0.202846 0.056 0.076 0.095 0.20729 0.4104 0.5054 0.4421
3404.646 0.4471 0.4208 0.29106 0.3545 0.4819 0.4775 0.4515 0.4744 0.548 0.68
3423.936 0.749 0.6911 0.6471 0.7338 0.8084 1.0155 1.377 1.837 2.287 2.697
3443.225 3.227 3.587 3.897 4.237 4.317 4.357 4.117 3.707 3.297 2.777
3462.515 2.277 1.907 1.797 1.507 1.1246 1.0633 1.0297 0.8885 0.669 0.5145
3481.805 0.4863 0.4417 0.4655 0.5958 0.7039 0.4924 0.4493 0.4725 0.3806 0.4671
3501.095 0.5022 0.5548 0.5185 0.3829 0.5242 0.6193 0.432 0.4473 0.4886 0.28412
3520.385 0.4019 0.441 0.1236 0.21616 0.3808 0.3754 0.3694 0.4095 0.4085 0.25725
3539.674 0.3081 0.372 0.3361 0.4612 0.3419 0.1194 0.21004 0.28014 0.28664 0.3215
3558.964 0.362 0.3547 0.23573 0.19042 0.1569 0.3003 0.4712 0.4208 0.4185 0.3561
3578.254 0.4187 0.4093 0.3775 0.4227 0.22712 0 0.18719 0.3301 0.25818 0.2999
3597.544 0.376 0.28465 0.2327 0.2913 0.3433 0.3657 0.2998 0.23542 0.3404 0.4479
3616.833 0.3302 0.5011 0.5864 0.6276 0.6402 0.4102 0.22193 0.1436 0.3196 0.4141
3636.123 0.3568 0.4425 0.3488 0.206172 0.35 0.4064 0.4198 0.4032 0.3005 0.3716
3655.413 0.514 0.4661 0.2649 0.4059 0.5577 0.3288 0.2551 0.2878 0.27695 0.379
3674.703 0.5742 0.7084 0.5513 0.416 0.4183 0.3564 0.25032 0.28055 0.3069 0.28565
3693.993 0.3255 0.3236 0.25368 0.3378 0.4 0.27082 0.3485 0.4754 0.578 0.4328
3713.282 0.1789 0.28233 0.3255 0.23085 0.26481 0.3582 0.4272 0.4666 0.5105 0.4054
3732.572 0.24959 0.3065 0.19325 0.21603 0.4101 0.3854 0.4101 0.4078 0.307 0.24891
3751.862 0.1762 0.19319 0.19589 0.25466 0.413 0.4708 0.5482 0.5308 0.5279 0.5396
3771.152 0.4895 0.5102 0.3458 0.23661 0.3933 0.3552 0.3428 0.4517 0.4776 0.6441
3790.441 0.6358 0.4994 0.573 0.7686 0.8352 0.6732 0.6983 0.6911 0.6066 0.5675
3809.731 0.4786 0.457 0.4571 0.4609 0.4802 0.4178 0.3698 0.4208 0.4605 0.5383
3829.021 0.5635 0.3249 0.22818 0.3075 0.25863 0.24121 0.3566 0.4805 0.5154 0.4517
3848.311 0.4912 0.4979 0.3593 0.3846 0.3088 0.25836 0.19492 0.204002 0.4903 0.6509
3867.601 0.4315 0.1733 0.22166 0.27969 0.3546 0.4429 0.4316 0.3798 0.1663 0.21175
3886.890 0.4925 0.576 0.6242 0.4954 0.4382 0.5482 0.4742 0.26516 0.1694 0.4543
3906.180 0.4892 0.26471 0.3257 0.4028 0.27307 0.1845 0.397 0.4964 0.3708 0.3513
3925.470 0.5768 0.653 0.4734 0.4195 0.5797 0.6725 0.6171 0.4681 0.2947 0.25169
3944.760 0.3042 0.4248 0.5061 0.4065 0.3153 0.4021 0.3944 0.21652 0.1765 0.3098
3964.049 0.4827 0.473 0.4227 0.4408 0.4393 0.4296 0.5871 0.6102 0.425 0.4233
3983.339 0.4737 0.4474 0.482 0.4387 0.42 0.5645 0.5119 0.46 0.4587 0.4042
##END=
