##TITLE=1,4-Diethyl-2-methylbenzene
##JCAMP-DX=4.24
##DATA TYPE=INFRARED SPECTRUM
##ORIGIN=NIST Mass Spectrometry Data Center
##OWNER=NIST Standard Reference Data Program
Collection (C) 2018 copyright by the U.S. Secretary of Commerce
on behalf of the United States of America. All rights reserved.
##CAS REGISTRY NO=13632-94-5
##MOLFORM=C 11 H 16
##$NIST SOURCE=MSDC-IR
##SPECTROMETER/DATA SYSTEM=HP-GC/MS/IRD
##STATE=gas
##XUNITS=1/CM
##YUNITS=ABSORBANCE
##XFACTOR=1.0
##YFACTOR=0.000002000
##DELTAX=4.0
##FIRSTX=550.0
##LASTX=3846.0
##FIRSTY=0.000244
##MAXX=3846
##MINX=550
##MAXY=0.02
##MINY=0
##NPOINTS=825
##XYDATA=(X++(Y..Y))
550.0 122 140 114 94 100 134 165 190 213 248
590.0 283 316 307 271 239 213 194 138 100 91
630.0 54 31 12 3 32 52 35 27 25 39
670.0 45 49 54 27 38 40 36 40 51 91
710.0 90 97 107 95 96 96 93 75 77 104
750.0 106 106 103 102 115 124 138 159 189 220
790.0 248 297 385 508 666 893 1135 1331 1476 1484
830.0 1294 1004 741 528 364 281 229 212 282 393
870.0 520 641 658 557 450 368 314 287 268 238
910.0 195 143 104 82 76 75 70 70 86 123
950.0 179 234 281 302 309 296 272 253 239 232
990.0 226 223 216 195 181 184 192 197 196 232
1030.0 285 323 371 387 400 452 528 595 602 545
1070.0 435 315 219 169 137 123 127 123 121 132
1110.0 143 152 180 206 206 190 168 146 132 136
1150.0 149 165 164 151 157 148 107 81 85 96
1190.0 89 91 113 141 160 159 147 130 120 115
1230.0 115 103 103 123 142 150 156 162 160 154
1270.0 142 136 144 161 180 196 228 265 298 347
1310.0 430 537 654 734 738 668 553 436 344 284
1350.0 262 261 270 309 362 424 510 576 602 600
1390.0 566 512 485 497 526 584 641 683 717 746
1430.0 779 835 923 1044 1184 1325 1429 1489 1518 1473
1470.0 1370 1242 1123 1065 1112 1285 1566 1833 1930 1794
1510.0 1463 1038 709 534 433 378 347 322 297 285
1550.0 277 266 259 265 265 255 263 260 241 233
1590.0 242 264 302 370 432 468 478 445 374 289
1630.0 222 189 166 141 127 121 113 99 91 84
1670.0 68 58 57 51 45 40 42 42 38 38
1710.0 35 31 34 38 43 54 73 92 110 130
1750.0 148 163 154 125 100 82 64 46 35 28
1790.0 28 29 23 19 22 25 26 30 26 25
1830.0 24 17 24 28 29 26 21 27 40 61
1870.0 95 121 143 158 156 138 112 77 51 43
1910.0 36 29 22 23 28 18 18 21 15 8
1950.0 3 2 5 9 7 5 4 4 3 7
1990.0 11 12 9 5 11 15 21 19 18 22
2030.0 21 20 16 9 8 12 8 3 3 9
2070.0 16 14 15 11 10 10 9 14 12 7
2110.0 6 11 9 6 10 9 9 9 4 0
2150.0 6 7 7 12 13 16 14 13 13 8
2190.0 2 10 19 21 12 7 7 10 5 2
2230.0 16 23 21 16 22 27 21 21 31 33
2270.0 31 28 28 29 33 40 35 26 29 30
2310.0 28 29 28 33 40 44 38 39 36 34
2350.0 41 42 42 37 29 32 32 27 26 30
2390.0 36 35 31 30 31 39 48 50 53 56
2430.0 57 59 61 57 49 41 35 44 50 42
2470.0 38 49 56 47 42 47 50 51 47 48
2510.0 58 61 60 59 51 47 50 56 54 51
2550.0 57 50 39 34 37 53 60 58 61 60
2590.0 60 63 68 73 74 69 68 77 81 86
2630.0 95 97 99 92 84 81 75 78 88 91
2670.0 86 79 82 86 91 101 103 110 121 121
2710.0 127 142 150 162 178 196 223 244 254 255
2750.0 243 228 221 221 232 248 270 282 288 293
2790.0 310 328 339 362 383 403 434 475 523 586
2830.0 652 724 805 920 1075 1256 1481 1803 2200 2623
2870.0 3073 3552 3991 4299 4382 4248 3997 3749 3619 3592
2910.0 3630 3724 3938 4335 4887 5553 6240 6749 6919 6760
2950.0 6415 6163 6391 7469 9041 10000 9928 8836 6854 5037
2990.0 3981 3466 3281 3284 3348 3337 3215 2958 2598 2248
3030.0 1981 1823 1747 1709 1662 1578 1465 1336 1193 1068
3070.0 973 886 795 710 649 582 530 511 498 462
3110.0 441 443 438 412 387 361 334 317 301 283
3150.0 266 257 246 229 212 193 192 181 157 153
3190.0 134 111 108 114 120 110 93 91 101 91
3230.0 76 65 63 67 64 63 70 67 60 58
3270.0 59 56 52 46 42 51 64 66 52 45
3310.0 40 39 41 40 46 43 35 43 48 55
3350.0 51 40 31 35 41 42 37 29 37 40
3390.0 37 35 30 26 25 30 37 29 27 26
3430.0 42 54 37 32 37 32 33 28 26 29
3470.0 34 37 34 29 24 25 22 29 36 41
3510.0 32 26 26 25 29 19 23 34 26 15
3550.0 16 19 24 29 30 39 33 16 4 8
3590.0 29 31 25 31 35 25 17 30 36 41
3630.0 34 23 22 12 11 24 41 41 33 32
3670.0 25 27 35 42 35 36 48 60 60 44
3710.0 26 16 31 42 40 61 72 57 62 67
3750.0 55 44 44 46 44 45 63 60 48 41
3790.0 33 34 43 51 50 26 13 26 24 20
3830.0 24 37 42 35 46
##END=
