##TITLE=2,3,6-Trifluorobenzonitrile
##JCAMP-DX=4.24
##DATA TYPE=INFRARED SPECTRUM
##ORIGIN=EPA-IR VAPOR PHASE LIBRARY
##OWNER=SRD/NIST
Collection (C) 2018 copyright by the U.S. Secretary of Commerce
on behalf of the United States of America. All rights reserved.
##CAS REGISTRY NO=136514-17-5
##MOLFORM=C 7 H 2 F 3 N
##$NIST SOURCE=MSDC-IR
##STATE=gas
##XUNITS=1/CM
##YUNITS=ABSORBANCE
##XFACTOR=1.
##YFACTOR=0.001
##DELTAX=1.929
##FIRSTX=549.8
##LASTX=4000.8
##FIRSTY=0.95506
##MAXX=4000.75
##MINX=549.766
##MAXY=0.017267
##MINY=0
##NPOINTS=1790
##XYDATA=(X++(Y..Y))
549.766 0.95506 0.8832 0.739 0.601 0.698 1.00707 1.0515 0.8655 0.69 0.924407
569.056 1.0382 0.96026 1.0773 1.1015 1.00279 0.613 0.602 0.809 0.8521 0.8812
588.346 0.8539 0.919109 1.1675 1.2135 1.0271 1.0803 1.1752 1.2471 1.2084 1.1482
607.636 1.212 1.2532 1.2749 1.3026 1.4172 1.4068 1.1469 1.0664 1.0962 1.0445
626.926 1.00735 1.01585 1.077 1.0561 0.90802 0.8634 1.0347 1.1862 1.247 1.3513
646.216 1.346 1.2048 1.2294 1.3772 1.4393 1.2526 1.0459 1.0998 1.01161 0.8738
665.506 0.8614 0.8624 0.97934 0.8694 0.754 0.8338 0.8714 0.8371 0.8418 0.917609
684.796 0.8667 0.784 0.79 0.753 0.678 0.679 0.775 0.8712 0.836 0.8314
704.086 0.8716 0.8667 0.8886 0.8386 0.866 0.92851 0.96074 0.95701 0.916294 0.8837
723.376 0.8663 0.91508 0.91471 1.00894 1.0411 1.1704 1.4311 1.588 1.7275 1.7828
742.666 1.8271 1.977 1.997 1.783 1.757 1.746 1.5757 1.3092 1.0306 0.922685
761.956 0.8995 0.926938 0.88 0.756 0.739 0.816 0.9017 0.92993 0.8931 0.8378
781.246 0.817 0.8701 0.95109 0.94244 0.96142 1.0224 1.00861 1.08 1.2623 1.5064
800.536 1.6572 1.8048 2.017 2.257 2.417 2.717 3.297 3.717 3.797 3.287
819.826 2.587 2.337 2.217 2.057 1.831 1.5345 1.3615 1.2852 1.1972 1.0535
839.116 1.00802 1.0197 0.98077 0.96323 0.93716 0.96082 0.90902 0.8373 0.8587 0.8512
858.406 0.816 0.796 0.8587 0.9501 0.93865 0.8649 0.8481 0.8638 0.91185 0.95076
877.696 0.916809 0.8697 0.858 0.8588 0.9154 0.94486 0.93112 0.918548 0.91395 1.01699
896.986 1.01184 0.94168 0.96071 0.920606 0.921255 0.97785 0.98777 1.0357 1.0997 1.0912
916.276 1.0673 1.1028 1.1755 1.3141 1.4922 1.5087 1.5388 1.7919 2.057 2.297
935.566 2.567 2.857 3.057 3.227 3.347 3.317 3.327 3.237 3.087 3.037
954.856 2.797 2.477 2.217 2.097 2.047 2.007 2.097 2.167 2.177 2.227
974.146 2.257 2.207 2.117 2.037 1.977 1.8635 1.687 1.5817 1.4884 1.3219
993.436 1.1909 1.1367 1.1066 1.0342 1.0267 1.0645 1.0451 1.1145 1.1764 1.2482
1012.726 1.395 1.5311 1.5911 1.6668 1.7922 1.8929 1.997 2.127 2.237 2.347
1032.016 2.537 2.637 2.607 2.487 2.427 2.417 2.427 2.317 2.087 1.8648
1051.306 1.6483 1.4415 1.2969 1.2187 1.1487 1.0535 0.9817 0.91321 0.8564 0.815
1070.596 0.768 0.764 0.747 0.768 0.796 0.75 0.789 0.781 0.791 0.799
1089.886 0.73 0.694 0.718 0.737 0.71 0.702 0.739 0.753 0.706 0.717
1109.176 0.708 0.669 0.716 0.703 0.707 0.723 0.724 0.762 0.717 0.718
1128.467 0.719 0.689 0.682 0.705 0.719 0.756 0.774 0.704 0.685 0.701
1147.757 0.73 0.789 0.8354 0.8264 0.783 0.8534 0.8739 0.8777 0.8559 0.813
1167.047 0.8394 0.793 0.783 0.802 0.808 0.806 0.8452 0.8284 0.791 0.806
1186.337 0.804 0.8421 0.815 0.785 0.8413 0.94653 0.9807 0.8803 0.8325 0.921753
1205.627 1.0403 1.0494 1.0487 1.2127 1.5134 1.8193 2.107 2.367 2.517 2.607
1224.917 2.617 2.667 2.697 2.607 2.557 2.547 2.397 2.147 1.8711 1.6745
1244.207 1.5962 1.6029 1.6798 1.8231 2.077 2.387 2.817 3.437 4.127 4.717
1263.497 5.267 5.727 5.957 6.037 5.907 5.477 4.947 4.297 3.547 2.817
1282.787 2.187 1.7568 1.4478 1.2817 1.1787 1.1435 1.1019 1.00387 1.0467 1.0551
1302.077 0.99913 0.99956 0.97264 1.0534 1.1808 1.1734 1.1779 1.2098 1.1894 1.179
1321.367 1.2113 1.2363 1.237 1.1814 1.1721 1.1438 1.063 1.0717 1.0776 1.0592
1340.657 1.0505 1.0353 1.0521 1.0692 1.0416 1.01607 1.0584 1.0591 1.0327 0.99358
1359.947 0.94411 0.94009 0.8828 0.8458 0.8254 0.8296 0.8584 0.863 0.8558 0.8299
1379.237 0.8273 0.82 0.805 0.8236 0.8343 0.8532 0.8485 0.846 0.864 0.8291
1398.527 0.8326 0.8285 0.8284 0.8584 0.8544 0.8472 0.8347 0.824 0.8662 0.8623
1417.817 0.8462 0.8957 0.8886 0.8789 0.91207 0.926071 0.94927 0.96839 0.96162 0.929
1437.107 0.925888 0.98318 0.97855 0.96703 1.037 1.1083 1.1918 1.2905 1.3624 1.4201
1456.397 1.4986 1.6023 1.7103 1.803 1.8286 1.8633 1.927 1.967 2.037 2.187
1475.687 2.287 2.467 2.787 3.197 3.857 4.687 5.827 7.367 9.217 11.247
1494.977 13.267 15.087 16.387 17.077 17.267 16.987 16.337 15.467 14.147 12.177
1514.267 9.897 7.597 5.577 4.127 3.017 2.297 1.8921 1.5905 1.3635 1.2584
1533.557 1.185 1.1559 1.1106 1.0248 1.0491 1.0727 1.0516 1.0684 1.0751 1.0312
1552.847 0.98448 0.9619 0.93644 0.8332 0.8468 0.91727 0.91489 0.925995 0.91515 0.8963
1572.137 0.924697 0.94603 0.92961 0.9741 0.97536 0.95708 1.0294 1.0512 1.0966 1.1701
1591.427 1.1922 1.2313 1.2688 1.274 1.322 1.4326 1.5046 1.5321 1.5433 1.5558
1610.717 1.5879 1.6423 1.6215 1.507 1.5521 1.6451 1.6204 1.5656 1.512 1.4987
1630.007 1.5065 1.4743 1.3933 1.3555 1.368 1.2961 1.2701 1.2339 1.1532 1.0412
1649.297 0.99774 0.94496 0.8635 0.95635 0.93122 0.8475 0.8514 0.8387 0.8227 0.811
1668.587 0.774 0.774 0.803 0.797 0.77 0.765 0.751 0.758 0.768 0.785
1687.877 0.807 0.8225 0.8271 0.767 0.702 0.69 0.713 0.735 0.745 0.769
1707.167 0.783 0.8211 0.812 0.812 0.8 0.747 0.798 0.8238 0.8247 0.8384
1726.457 0.815 0.8257 0.8572 0.8291 0.855 0.8712 0.8875 0.8564 0.807 0.8328
1745.747 0.8334 0.8437 0.8598 0.8664 0.8682 0.816 0.791 0.8364 0.8257 0.8299
1765.037 0.793 0.788 0.8401 0.764 0.72 0.805 0.8341 0.8305 0.8682 0.8695
1784.327 0.833 0.8457 0.8552 0.8211 0.804 0.791 0.784 0.779 0.807 0.8228
1803.617 0.775 0.767 0.784 0.801 0.798 0.752 0.788 0.8449 0.808 0.794
1822.907 0.79 0.768 0.789 0.774 0.759 0.8 0.8408 0.8369 0.832 0.8198
1842.197 0.797 0.81 0.8394 0.8872 0.917823 0.9037 0.8983 0.94509 0.94342 0.93832
1861.487 0.95494 0.95055 0.93856 0.8997 0.8839 0.8504 0.798 0.812 0.82 0.797
1880.777 0.775 0.782 0.808 0.783 0.77 0.772 0.801 0.8302 0.775 0.762
1900.067 0.761 0.727 0.707 0.7 0.763 0.798 0.802 0.8 0.778 0.781
1919.357 0.774 0.749 0.744 0.715 0.734 0.774 0.783 0.805 0.801 0.784
1938.647 0.761 0.727 0.723 0.743 0.727 0.74 0.791 0.766 0.73 0.758
1957.937 0.788 0.8 0.799 0.8228 0.8349 0.812 0.809 0.808 0.81 0.768
1977.227 0.76 0.81 0.816 0.8 0.753 0.734 0.746 0.751 0.786 0.808
1996.517 0.762 0.712 0.751 0.81 0.804 0.763 0.732 0.738 0.743 0.732
2015.807 0.731 0.724 0.732 0.77 0.751 0.718 0.693 0.67 0.71 0.748
2035.097 0.759 0.749 0.742 0.762 0.789 0.776 0.758 0.756 0.753 0.74
2054.387 0.771 0.783 0.748 0.789 0.793 0.757 0.78 0.793 0.779 0.787
2073.677 0.774 0.773 0.79 0.771 0.769 0.753 0.719 0.723 0.745 0.764
2092.967 0.756 0.755 0.775 0.795 0.794 0.752 0.716 0.738 0.781 0.785
2112.257 0.734 0.729 0.75 0.744 0.764 0.78 0.783 0.764 0.767 0.774
2131.547 0.732 0.708 0.765 0.816 0.79 0.753 0.775 0.804 0.8197 0.8278
2150.837 0.803 0.8201 0.8201 0.752 0.717 0.73 0.725 0.762 0.777 0.721
2170.127 0.718 0.767 0.759 0.739 0.742 0.743 0.77 0.795 0.774 0.719
2189.417 0.708 0.738 0.788 0.792 0.787 0.796 0.782 0.772 0.777 0.8
2208.707 0.796 0.755 0.723 0.745 0.776 0.792 0.805 0.788 0.763 0.743
2227.997 0.73 0.733 0.771 0.8184 0.8455 0.8378 0.8296 0.8551 0.8489 0.784
2247.287 0.749 0.796 0.8214 0.797 0.807 0.8471 0.8319 0.754 0.733 0.812
2266.577 0.816 0.77 0.737 0.711 0.779 0.8302 0.791 0.775 0.79 0.762
2285.868 0.774 0.785 0.771 0.81 0.816 0.811 0.781 0.769 0.786 0.809
2305.158 0.813 0.813 0.8328 0.76 0.729 0.778 0.784 0.745 0.741 0.772
2324.448 0.779 0.736 0.676 0.695 0.755 0.76 0.712 0.713 0.719 0.718
2343.738 0.718 0.727 0.785 0.81 0.792 0.75 0.718 0.72 0.717 0.692
2363.028 0.695 0.725 0.72 0.754 0.812 0.8257 0.8364 0.8451 0.8621 0.8326
2382.318 0.775 0.786 0.804 0.773 0.78 0.79 0.79 0.788 0.735 0.717
2401.608 0.744 0.732 0.709 0.729 0.765 0.782 0.797 0.815 0.811 0.787
2420.898 0.777 0.798 0.761 0.772 0.767 0.753 0.815 0.79 0.735 0.745
2440.188 0.75 0.695 0.724 0.759 0.757 0.772 0.8192 0.8591 0.8375 0.8384
2459.478 0.8322 0.808 0.733 0.666 0.734 0.789 0.785 0.794 0.786 0.761
2478.768 0.782 0.792 0.766 0.795 0.806 0.802 0.788 0.813 0.8471 0.797
2498.058 0.813 0.8633 0.8559 0.8326 0.812 0.777 0.751 0.741 0.759 0.786
2517.348 0.776 0.745 0.754 0.79 0.746 0.709 0.745 0.76 0.771 0.81
2536.638 0.8658 0.8824 0.8396 0.8275 0.8272 0.827 0.8268 0.792 0.79 0.767
2555.928 0.75 0.787 0.781 0.755 0.744 0.76 0.761 0.694 0.685 0.809
2575.218 0.8421 0.806 0.811 0.738 0.68 0.735 0.783 0.794 0.785 0.766
2594.508 0.792 0.78 0.738 0.741 0.725 0.691 0.671 0.739 0.776 0.72
2613.798 0.755 0.784 0.741 0.72 0.729 0.726 0.683 0.698 0.724 0.698
2633.088 0.668 0.705 0.749 0.762 0.775 0.719 0.7 0.717 0.738 0.731
2652.378 0.75 0.794 0.733 0.728 0.725 0.701 0.732 0.776 0.747 0.685
2671.668 0.733 0.745 0.766 0.786 0.731 0.739 0.762 0.764 0.753 0.745
2690.958 0.706 0.674 0.705 0.713 0.732 0.71 0.686 0.735 0.744 0.724
2710.248 0.737 0.738 0.702 0.688 0.728 0.714 0.722 0.76 0.74 0.735
2729.538 0.755 0.789 0.799 0.745 0.716 0.785 0.771 0.72 0.747 0.762
2748.828 0.792 0.793 0.771 0.778 0.779 0.763 0.753 0.772 0.736 0.735
2768.118 0.8185 0.805 0.784 0.854 0.812 0.8 0.8191 0.77 0.778 0.754
2787.408 0.7 0.704 0.746 0.779 0.792 0.757 0.688 0.661 0.679 0.695
2806.698 0.716 0.794 0.803 0.706 0.743 0.764 0.756 0.723 0.702 0.758
2825.988 0.732 0.77 0.793 0.705 0.657 0.715 0.735 0.721 0.752 0.692
2845.278 0.685 0.735 0.769 0.76 0.752 0.757 0.698 0.725 0.737 0.732
2864.568 0.764 0.778 0.78 0.712 0.657 0.699 0.748 0.751 0.761 0.76
2883.858 0.704 0.727 0.74 0.705 0.731 0.749 0.79 0.741 0.641 0.692
2903.148 0.751 0.715 0.676 0.708 0.753 0.721 0.722 0.748 0.713 0.747
2922.438 0.694 0.609 0.639 0.649 0.68 0.664 0.641 0.666 0.62 0.584
2941.728 0.633 0.723 0.736 0.709 0.677 0.643 0.696 0.664 0.57 0.579
2961.018 0.608 0.606 0.686 0.712 0.621 0.576 0.605 0.645 0.669 0.639
2980.308 0.588 0.673 0.742 0.646 0.632 0.674 0.667 0.659 0.684 0.671
2999.598 0.563 0.618 0.744 0.68 0.653 0.62 0.528 0.555 0.574 0.518
3018.888 0.572 0.687 0.67 0.632 0.701 0.728 0.635 0.636 0.667 0.661
3038.178 0.626 0.656 0.657 0.671 0.697 0.615 0.616 0.498 0.496 0.613
3057.468 0.606 0.558 0.524 0.566 0.562 0.522 0.514 0.577 0.653 0.675
3076.758 0.65 0.644 0.6 0.521 0.553 0.613 0.625 0.614 0.613 0.557
3096.048 0.504 0.551 0.653 0.7 0.588 0.508 0.511 0.563 0.599 0.586
3115.338 0.528 0.49 0.533 0.549 0.508 0.508 0.497 0.53 0.663 0.586
3134.628 0.464 0.462 0.483 0.463 0.451 0.525 0.566 0.564 0.513 0.547
3153.918 0.521 0.569 0.684 0.535 0.477 0.518 0.554 0.467 0.428 0.551
3173.208 0.583 0.489 0.413 0.431 0.368 0.377 0.437 0.395 0.411 0.515
3192.498 0.541 0.474 0.488 0.525 0.521 0.467 0.403 0.391 0.369 0.328
3211.788 0.307 0.377 0.377 0.44 0.491 0.446 0.462 0.413 0.4 0.485
3231.078 0.427 0.382 0.499 0.505 0.566 0.576 0.441 0.411 0.37 0.361
3250.368 0.399 0.464 0.487 0.51 0.552 0.476 0.375 0.364 0.415 0.444
3269.658 0.451 0.43 0.44 0.477 0.455 0.477 0.529 0.478 0.452 0.444
3288.948 0.437 0.425 0.486 0.476 0.374 0.348 0.412 0.417 0.376 0.396
3308.238 0.371 0.421 0.519 0.514 0.42 0.398 0.46 0.492 0.468 0.418
3327.528 0.421 0.451 0.378 0.371 0.528 0.521 0.456 0.449 0.386 0.363
3346.818 0.424 0.489 0.455 0.366 0.402 0.455 0.388 0.377 0.383 0.362
3366.108 0.422 0.361 0.323 0.451 0.458 0.341 0.31 0.286 0.272 0.377
3385.398 0.435 0.422 0.314 0.281 0.387 0.392 0.288 0.242 0.247 0.289
3404.688 0.379 0.429 0.352 0.361 0.401 0.375 0.306 0.294 0.381 0.377
3423.978 0.338 0.38 0.385 0.283 0.336 0.435 0.412 0.285 0.251 0.298
3443.269 0.261 0.269 0.365 0.427 0.385 0.339 0.348 0.393 0.31 0.277
3462.559 0.395 0.382 0.292 0.242 0.34 0.501 0.521 0.404 0.404 0.499
3481.849 0.417 0.383 0.356 0.267 0.245 0.316 0.331 0.367 0.456 0.433
3501.139 0.399 0.392 0.417 0.371 0.376 0.356 0.31 0.411 0.494 0.418
3520.429 0.333 0.242 0.255 0.249 0.188 0.287 0.324 0.35 0.385 0.316
3539.719 0.281 0.302 0.262 0.271 0.321 0.269 0.284 0.384 0.351 0.319
3559.009 0.37 0.383 0.316 0.235 0.116 0.171 0.362 0.365 0.279 0.202
3578.299 0.192 0.316 0.297 0.11 0.159 0.36 0.477 0.349 0.215 0.228
3597.589 0.207 0.233 0.274 0.317 0.348 0.37 0.336 0.278 0.236 0.281
3616.879 0.395 0.323 0.232 0.284 0.286 0.196 0.097 0.142 0.154 0.113
3636.169 0.241 0.275 0.258 0.302 0.262 0.263 0.262 0.181 0.155 0.244
3655.459 0.294 0.293 0.282 0.255 0.253 0.254 0.237 0.251 0.232 0.117
3674.749 0.165 0.272 0.303 0.222 0.215 0.323 0.255 0.208 0.29 0.364
3694.039 0.362 0.379 0.372 0.185 0.191 0.34 0.287 0.17 0.194 0.182
3713.329 0.118 0.197 0.234 0.22 0.257 0.279 0.194 0.164 0.127 0.082
3732.619 0.119 0.16 0.192 0.234 0.14 0.089 0.138 0.198 0.211 0.112
3751.909 0.124 0.188 0.147 0.087 0.195 0.235 0.172 0.285 0.401 0.325
3771.199 0.291 0.284 0.195 0.25 0.307 0.221 0.167 0.142 0.199 0.195
3790.489 0.143 0.174 0.24 0.268 0.241 0.209 0.185 0.191 0.175 0.16
3809.779 0.216 0.231 0.187 0.195 0.141 0.18 0.287 0.321 0.345 0.29
3829.069 0.2 0.185 0.211 0.254 0.253 0.195 0.262 0.293 0.213 0.19
3848.359 0.197 0.189 0.137 0.139 0.224 0.233 0.297 0.259 0.226 0.24
3867.649 0.286 0.274 0.25 0.308 0.287 0.266 0.226 0.237 0.181 0.096
3886.939 0.148 0.273 0.233 0.289 0.398 0.247 0.119 0.13 0.2 0.304
3906.229 0.367 0.323 0.232 0.222 0.226 0.227 0.235 0.191 0.105 0.059
3925.519 0.132 0.287 0.345 0.276 0.361 0.443 0.349 0.32 0.361 0.308
3944.809 0.293 0.255 0.118 0.173 0.332 0.231 0.084 0.149 0.266 0.317
3964.099 0.277 0.305 0.295 0.267 0.165 0 0.085 0.223 0.238 0.168
3983.389 0.188 0.298 0.289 0.299 0.34 0.286 0.139 0.098 0.24 0.345
##END=
