##TITLE=1-(p-Chlorophenylthio)-2-propanol
##JCAMP-DX=4.24
##DATA TYPE=INFRARED SPECTRUM
##ORIGIN=EPA-IR VAPOR PHASE LIBRARY
##OWNER=SRD/NIST
Collection (C) 2018 copyright by the U.S. Secretary of Commerce
on behalf of the United States of America. All rights reserved.
##CAS REGISTRY NO=13663-04-2
##MOLFORM=C 9 H 11 Cl O S
##$NIST SOURCE=MSDC-IR
##STATE=gas
##XUNITS=1/CM
##YUNITS=ABSORBANCE
##XFACTOR=1.
##YFACTOR=0.001
##DELTAX=1.92898
##FIRSTX=549.8
##LASTX=4000.7
##FIRSTY=4.5854
##MAXX=4000.7
##MINX=549.759
##MAXY=0.0620354
##MINY=0
##NPOINTS=1790
##XYDATA=(X++(Y..Y))
549.759 4.5854 3.9654 3.5854 3.0854 2.5454 2.1654 1.8054 1.6054 1.4754 1.5554
569.049 1.3554 1.3854 1.7154 1.6954 1.2154 0.715 0.7385 0.6999 0.7075 0.8655
588.339 0.9286 0.885 0.7627 0.8044 0.8381 0.8317 0.8481 0.7642 0.7235 0.9715
607.628 1.1654 1.1554 1.0254 0.9709 0.857 0.6349 0.5221 0.5962 0.6781 0.5795
626.918 0.6825 0.7818 0.6976 0.7216 0.9106 0.9457 0.7986 0.5852 0.4627 0.6761
646.208 0.7835 0.774 1.0249 1.1054 0.9454 0.9513 0.9117 0.8527 0.8054 0.9024
665.498 0.9886 0.8856 0.9876 0.9291 0.9885 1.1054 1.0654 1.2654 1.2754 1.1954
684.787 1.0954 1.0654 1.1254 1.1454 1.1754 1.0554 0.956 1.0554 1.0654 1.1154
704.077 1.2454 1.1954 1.0454 1.2054 1.4154 1.3554 1.4654 1.6154 1.9254 2.2454
723.367 2.4654 2.7354 3.0054 3.3354 3.6254 4.1554 4.7554 5.1754 5.7554 6.1454
742.657 6.4054 6.4254 6.1854 5.7854 5.1554 4.7554 4.2454 3.7154 3.5554 3.2054
761.947 2.8254 2.8554 2.8654 2.8554 2.9454 3.2254 3.4254 3.5654 3.7154 3.8154
781.236 3.9454 4.1254 4.3454 4.4454 4.6654 5.0454 5.5754 6.2654 7.2154 8.3554
800.526 9.6654 10.7854 11.9654 13.7554 15.3954 16.6454 17.8554 19.1654 20.0754 20.5154
819.816 20.4954 19.8854 18.7554 17.1554 15.3654 13.4754 11.6454 9.8454 8.2354 7.0254
839.106 5.9954 4.9654 4.2054 3.7154 3.4154 3.2754 2.9554 2.6254 2.4454 2.4154
858.395 2.5054 2.5054 2.4254 2.4054 2.5554 2.6954 2.8154 2.9554 2.9254 2.9054
877.685 2.8954 2.8354 2.7654 2.5054 2.2354 2.0554 1.9754 2.0254 1.8354 1.6154
896.975 1.6854 1.8054 1.7454 1.6754 1.6854 1.9154 2.1354 2.2754 2.6154 2.8954
916.265 3.1054 3.4354 3.9754 4.6454 5.2354 5.7254 6.3454 7.0654 7.6154 7.9054
935.555 7.8754 7.4754 6.9754 6.5554 6.0654 5.4154 4.9454 4.4054 3.9054 3.5554
954.844 3.1054 2.8354 2.5654 2.3154 2.2154 2.0254 1.8954 1.8654 1.9054 1.9754
974.134 1.8754 1.8554 1.9854 1.9754 1.9254 2.0454 2.2154 2.2754 2.3154 2.4654
993.424 2.6354 3.0254 3.6054 4.6454 6.1754 8.2854 12.1554 17.9254 24.2654 28.5354
1012.714 29.6954 29.8054 29.2754 25.5654 19.3854 14.9154 13.4254 13.4054 13.7354 14.2954
1032.003 14.9354 15.5654 15.8954 16.0954 15.9854 15.5454 15.4454 15.0954 14.4454 14.3654
1051.293 14.2954 14.2454 14.1154 13.9954 14.1854 14.2954 14.3854 14.7654 15.4754 15.7654
1070.583 15.9154 16.5254 17.0754 17.3854 18.0854 19.4454 21.5754 24.6954 29.0854 35.0554
1089.873 42.6154 50.4354 57.0954 60.9654 62.0354 59.6754 53.4554 45.3254 37.1154 30.5854
1109.163 25.7954 22.3754 19.9754 17.8854 16.1154 14.8054 13.8754 13.1954 12.5754 11.8754
1128.452 11.4054 10.7754 10.0654 9.3254 8.2754 7.6954 7.0854 6.3954 5.9654 5.4454
1147.742 4.9554 4.5954 4.3554 4.4754 4.5154 4.2954 4.1654 4.0854 4.2354 4.1954
1167.032 4.2354 4.5654 4.6454 4.6754 4.9354 5.2054 5.5954 5.6954 5.4854 5.7854
1186.322 5.9554 6.2054 6.4154 6.1654 5.9954 5.9454 5.8854 5.9454 6.0654 5.8154
1205.611 5.8054 6.0254 6.0054 6.3854 6.8254 7.0154 7.3954 7.7354 8.0754 8.2554
1224.901 8.3854 8.8454 9.2554 9.8554 10.8854 11.7054 12.1254 12.5054 12.5654 12.1354
1244.191 11.5954 11.3654 11.2454 11.0754 11.1254 11.1854 11.3354 11.4454 11.6154 11.8654
1263.481 11.8454 11.7554 11.4454 10.8054 10.0554 9.2854 8.5754 8.0054 7.4354 6.9954
1282.771 6.5854 6.0954 5.7854 5.6454 5.4854 5.1854 4.8154 4.6354 4.4554 4.2754
1302.060 4.2154 4.1554 4.0354 3.9754 4.0054 4.0354 4.0854 4.1354 4.1954 4.3254
1321.350 4.5054 4.6654 4.9354 5.2154 5.4054 5.6054 5.8054 6.0054 6.2554 6.3854
1340.640 6.4754 6.5554 6.6054 6.7254 6.8954 7.0554 7.1954 7.3454 7.4354 7.5254
1359.930 7.6954 7.9154 8.1454 8.4054 8.7454 9.2854 9.9354 10.7454 11.7454 12.6854
1379.219 13.5254 14.2454 14.6954 14.9254 14.8754 14.4954 13.9454 13.3354 12.5854 11.7454
1398.509 10.9454 10.2754 9.6654 9.1254 8.7254 8.4054 8.1954 8.0654 8.0554 8.0754
1417.799 8.1254 8.2854 8.4554 8.5854 8.7154 8.7954 8.8154 8.7854 8.6454 8.4054
1437.089 8.1454 7.9154 7.7554 7.6754 7.6554 7.7554 7.8954 8.0654 8.2954 8.5854
1456.378 9.0554 9.6954 10.7054 12.3154 14.6754 18.2354 23.3954 30.2854 38.5054 46.4754
1475.668 51.2254 51.6554 48.6954 43.1254 34.5554 24.0854 15.3054 9.8854 6.9354 5.2854
1494.958 4.2754 3.6154 3.1154 2.7854 2.5454 2.3254 2.1054 1.9854 1.8554 1.7954
1514.248 1.7654 1.6354 1.5554 1.4454 1.3854 1.3754 1.3154 1.2554 1.2154 1.1554
1533.538 1.1054 1.1154 1.1154 1.1354 1.2254 1.3054 1.3954 1.4654 1.5254 1.6154
1552.827 1.7354 1.8754 1.9854 2.1454 2.3154 2.4954 2.7754 3.0154 3.1754 3.4154
1572.117 3.6254 3.6654 3.6554 3.5554 3.2854 2.9154 2.5754 2.2754 2.0254 1.8554
1591.407 1.7854 1.7054 1.6854 1.7354 1.6554 1.5654 1.5354 1.5054 1.4954 1.5154
1610.697 1.5154 1.5454 1.6254 1.6554 1.7054 1.7854 1.8454 1.8554 1.8854 1.9654
1629.986 2.0554 2.0754 2.0854 2.0954 1.9954 1.9454 1.9454 1.8354 1.6854 1.5554
1649.276 1.3954 1.2854 1.2254 1.1254 1.0204 0.971 0.9163 0.872 0.766 0.64
1668.566 0.6356 0.6438 0.6584 0.6306 0.5777 0.5932 0.5413 0.4836 0.4807 0.4615
1687.856 0.4599 0.4725 0.4804 0.4739 0.4876 0.5054 0.4304 0.39 0.4074 0.4535
1707.146 0.4478 0.3785 0.4072 0.4291 0.3974 0.3942 0.4091 0.4431 0.4884 0.4753
1726.435 0.43 0.4251 0.4796 0.4931 0.4671 0.5115 0.5132 0.5534 0.6325 0.6239
1745.725 0.6762 0.7106 0.6377 0.638 0.7079 0.7244 0.7566 0.7557 0.8497 0.9746
1765.015 1.0249 1.0754 1.0654 0.9903 0.8692 0.7568 0.6725 0.5798 0.5082 0.4317
1784.305 0.3525 0.3484 0.373 0.3899 0.3314 0.2865 0.269 0.2633 0.2865 0.2956
1803.594 0.2982 0.3614 0.3742 0.3507 0.3322 0.3003 0.3101 0.3474 0.3747 0.3272
1822.884 0.3015 0.336 0.4046 0.4111 0.3851 0.4058 0.4405 0.5077 0.538 0.581
1842.174 0.6746 0.6783 0.6109 0.5864 0.5703 0.5828 0.6295 0.6598 0.6337 0.6509
1861.464 0.7512 0.7434 0.7157 0.7792 0.8901 0.9951 1.0354 1.0854 1.1654 1.2854
1880.754 1.3554 1.4054 1.4954 1.5354 1.5154 1.5054 1.5454 1.5254 1.4454 1.4054
1900.043 1.3454 1.1654 1.0133 0.9175 0.8307 0.7425 0.6729 0.6001 0.5143 0.4988
1919.333 0.4509 0.3816 0.326 0.3276 0.3635 0.3196 0.3109 0.3407 0.3675 0.3989
1938.623 0.357 0.3079 0.2997 0.3012 0.3101 0.3248 0.3497 0.3291 0.3233 0.36
1957.913 0.3305 0.3063 0.3008 0.3302 0.2932 0.2841 0.3518 0.34 0.3146 0.2997
1977.202 0.2861 0.3203 0.3095 0.2742 0.2814 0.2811 0.2845 0.2684 0.2965 0.2839
1996.492 0.2625 0.2408 0.2203 0.2274 0.1966 0.2125 0.245 0.257 0.2443 0.1729
2015.782 0.11706 0.1445 0.2096 0.211 0.1983 0.1915 0.1728 0.2064 0.1971 0.1573
2035.072 0.2018 0.236 0.2488 0.2572 0.1565 0.11445 0.1686 0.1642 0.1573 0.1829
2054.362 0.1755 0.2003 0.2139 0.2434 0.2463 0.1916 0.1651 0.1375 0.1629 0.1967
2073.651 0.2339 0.211 0.1622 0.1744 0.1968 0.1677 0.1651 0.1464 0.1707 0.2311
2092.941 0.2261 0.2701 0.2594 0.2467 0.2849 0.2592 0.1942 0.1487 0.2136 0.2573
2112.231 0.2597 0.2766 0.231 0.2426 0.2512 0.2377 0.2779 0.2956 0.2687 0.3064
2131.521 0.2633 0.1913 0.2612 0.3023 0.2578 0.1484 0.11325 0.1849 0.2326 0.2588
2150.810 0.3057 0.2537 0.2209 0.2972 0.2649 0.2701 0.2972 0.2486 0.2548 0.2613
2170.100 0.2532 0.2677 0.2891 0.261 0.234 0.3205 0.3142 0.2491 0.247 0.2378
2189.390 0.2673 0.2847 0.2877 0.2342 0.2381 0.2594 0.203 0.2126 0.238 0.2104
2208.680 0.225 0.2512 0.2537 0.2513 0.2718 0.3143 0.3118 0.2917 0.3112 0.3064
2227.970 0.242 0.2998 0.3249 0.3414 0.3088 0.2817 0.3192 0.2955 0.3212 0.3284
2247.259 0.3291 0.319 0.2875 0.2792 0.3039 0.3357 0.2755 0.3113 0.4295 0.4122
2266.549 0.3382 0.3376 0.4264 0.4377 0.4328 0.4347 0.4425 0.4513 0.5127 0.5588
2285.839 0.4802 0.4252 0.4411 0.4365 0.359 0.3501 0.3985 0.4019 0.4156 0.4078
2305.129 0.3447 0.2847 0.2692 0.2738 0.3278 0.3327 0.275 0.2753 0.3111 0.3077
2324.418 0.2546 0.2547 0.3307 0.3604 0.2888 0.2343 0.2425 0.203 0.2033 0.3159
2343.708 0.3408 0.3288 0.246 0.2096 0.2531 0.2655 0.2905 0.3017 0.2687 0.2353
2362.998 0.2882 0.2996 0.2526 0.2066 0.1756 0.1934 0.2668 0.32 0.3627 0.3333
2382.288 0.3351 0.4083 0.4696 0.5124 0.4724 0.4018 0.3215 0.3311 0.3282 0.331
2401.578 0.406 0.415 0.3659 0.3563 0.398 0.3616 0.3478 0.4063 0.4192 0.3826
2420.867 0.2744 0.2814 0.3193 0.3215 0.3505 0.3695 0.3542 0.3283 0.3386 0.3069
2440.157 0.2325 0.2355 0.2951 0.3466 0.338 0.2758 0.2952 0.3092 0.3269 0.3481
2459.447 0.3586 0.3315 0.2753 0.2444 0.2607 0.2756 0.2738 0.2909 0.3001 0.3444
2478.737 0.3089 0.1866 0.234 0.3423 0.3661 0.3466 0.2981 0.3158 0.3885 0.3783
2498.026 0.3264 0.3391 0.3713 0.3618 0.3548 0.3388 0.3333 0.3747 0.389 0.3343
2517.316 0.3325 0.3457 0.2688 0.2578 0.3021 0.4149 0.4437 0.4524 0.5213 0.4425
2536.606 0.3643 0.3951 0.4663 0.4426 0.4338 0.4678 0.4482 0.4298 0.4389 0.4114
2555.896 0.3623 0.381 0.367 0.3712 0.4505 0.4939 0.4069 0.3745 0.3879 0.3678
2575.186 0.3872 0.4091 0.4736 0.5178 0.5094 0.458 0.452 0.4615 0.4321 0.3895
2594.475 0.3938 0.4346 0.468 0.4472 0.4471 0.4781 0.4288 0.3401 0.295 0.3719
2613.765 0.3943 0.4165 0.4706 0.4831 0.4957 0.4912 0.5001 0.5211 0.5539 0.6
2633.055 0.5776 0.5288 0.546 0.6137 0.6837 0.7264 0.7437 0.6991 0.7003 0.7385
2652.345 0.7006 0.7485 0.7833 0.7872 0.8144 0.7858 0.8244 0.7774 0.731 0.7838
2671.634 0.7962 0.78 0.7505 0.7521 0.6851 0.6327 0.606 0.5957 0.6268 0.6522
2690.924 0.6231 0.5246 0.5024 0.492 0.4469 0.4987 0.5842 0.4998 0.436 0.4653
2710.214 0.4817 0.4671 0.3775 0.4016 0.4737 0.461 0.4485 0.3581 0.3475 0.4539
2729.504 0.4577 0.5307 0.5901 0.5457 0.5751 0.5905 0.5978 0.6222 0.6517 0.6144
2748.794 0.6074 0.5901 0.6116 0.6649 0.5661 0.5318 0.5687 0.6309 0.7733 0.7923
2768.083 0.7508 0.8055 0.7999 0.8032 0.8286 0.8238 0.8872 0.9697 1.0075 0.9611
2787.373 0.9087 0.9607 0.9725 0.9988 1.0354 1.0654 1.2154 1.3354 1.2654 1.2254
2806.663 1.2154 1.2554 1.2954 1.3554 1.4454 1.3954 1.4254 1.4854 1.5654 1.6054
2825.953 1.6254 1.5654 1.4454 1.5054 1.6654 1.6354 1.5654 1.5754 1.6154 1.7754
2845.242 1.8154 1.8454 1.9654 2.0454 2.2354 2.3654 2.4854 2.6754 2.8554 3.2254
2864.532 3.5354 3.9154 4.4354 4.9054 5.3954 5.8654 6.4554 6.9354 7.3354 7.7554
2883.822 8.0254 8.1054 8.2054 8.2254 8.1154 7.9354 7.8754 7.8554 7.7454 7.8154
2903.112 7.8854 7.9554 8.0654 8.2854 8.6954 9.1754 9.7454 10.4354 11.3154 12.1554
2922.401 12.6954 13.1954 13.6554 13.9054 13.8354 13.5054 13.0454 12.6454 12.1754 11.5154
2941.691 10.6854 9.8354 9.0454 8.4354 8.0354 7.7154 7.6354 7.8654 8.2654 8.8454
2960.981 9.7054 10.5254 11.4154 12.5554 13.8154 15.0654 16.2954 17.4254 18.4554 19.2354
2980.271 19.5154 19.4054 18.7354 17.4254 15.7754 14.0054 12.1954 10.3754 8.6654 7.2354
2999.561 6.0854 4.9954 4.2554 3.8754 3.3754 2.9354 2.7454 2.6554 2.4954 2.4154
3018.850 2.2754 2.1454 2.0954 2.1054 2.0354 1.9154 1.7754 1.7154 1.6054 1.4454
3038.140 1.4754 1.3354 1.2354 1.2754 1.3254 1.2954 1.2354 1.2654 1.3854 1.4654
3057.430 1.4954 1.6154 1.8354 2.0854 2.4254 2.5154 2.5154 2.7954 3.2454 3.5254
3076.720 3.7054 4.0754 4.2554 4.3254 4.4554 4.3654 4.0954 3.8054 3.4254 3.0154
3096.009 2.5354 2.1854 1.9754 1.7554 1.4854 1.2454 1.2254 1.0654 0.9775 1.0031
3115.299 0.8219 0.6058 0.5867 0.6364 0.5526 0.6173 0.7009 0.6832 0.676 0.6114
3134.589 0.4438 0.5406 0.6368 0.5258 0.4788 0.4661 0.4524 0.4207 0.4985 0.5082
3153.879 0.3842 0.3581 0.3415 0.4305 0.4848 0.3666 0.4199 0.407 0.2756 0.4084
3173.169 0.5038 0.3962 0.2957 0.3577 0.5225 0.5105 0.4716 0.5434 0.5974 0.466
3192.458 0.2958 0.29 0.2816 0.3892 0.4422 0.3263 0.2826 0.3162 0.323 0.2461
3211.748 0.3184 0.476 0.3601 0.2299 0.333 0.3218 0.2368 0.2959 0.3172 0.285
3231.038 0.2188 0.1328 0.139 0.2456 0.2463 0.1812 0.3011 0.3677 0.2915 0.2429
3250.328 0.2348 0.1521 0.06702 0.1408 0.2286 0.2793 0.2613 0.2523 0.2556 0.2832
3269.617 0.4282 0.3353 0.2117 0.2191 0.2536 0.2615 0.2151 0.2562 0.2088 0.1863
3288.907 0.3289 0.3316 0.148 0.1376 0.1909 0.2247 0.2171 0.228 0.2381 0.1993
3308.197 0.2477 0.2248 0.2611 0.3944 0.3613 0.1661 0.1593 0.1847 0.2284 0.3437
3327.487 0.2945 0.2483 0.3435 0.4114 0.3075 0.2685 0.2249 0.2072 0.2475 0.2937
3346.777 0.4023 0.4716 0.3697 0.2087 0.2966 0.3769 0.3388 0.4014 0.5128 0.409
3366.066 0.3466 0.4294 0.3444 0.2044 0.1772 0.2 0.2982 0.477 0.4156 0.3185
3385.356 0.3172 0.3965 0.3281 0.1413 0.238 0.2934 0.3757 0.4398 0.4419 0.4602
3404.646 0.359 0.4521 0.566 0.4752 0.3771 0.3132 0.2451 0.2697 0.3796 0.3701
3423.936 0.305 0.4633 0.5237 0.3995 0.561 0.6746 0.5717 0.4381 0.2685 0.2442
3443.225 0.3477 0.3644 0.4434 0.4937 0.5329 0.5219 0.3745 0.3934 0.5278 0.5109
3462.515 0.4023 0.3125 0.2519 0.3764 0.418 0.3291 0.4175 0.4107 0.333 0.3748
3481.805 0.3858 0.3514 0.3431 0.3363 0.3079 0.4103 0.5375 0.5457 0.4867 0.4347
3501.095 0.3666 0.3781 0.5467 0.5629 0.4317 0.4381 0.6205 0.7343 0.6477 0.6836
3520.385 0.7567 0.7461 0.7528 0.759 0.8014 0.808 0.8382 0.8022 0.8304 0.8986
3539.674 0.9193 1.0078 1.004 0.9301 0.9515 1.1254 1.1454 1.0654 1.0554 1.1854
3558.964 1.4454 1.5154 1.6254 1.6954 1.7954 2.1954 2.3954 2.6354 2.8054 2.8554
3578.254 2.9854 3.0554 3.1254 3.1954 3.2254 3.2954 3.3254 3.1054 3.0454 3.0854
3597.544 2.9554 2.8854 2.8254 2.7254 2.7054 2.6854 2.6954 2.6354 2.5854 2.6054
3616.833 2.5854 2.5654 2.4854 2.5154 2.5454 2.4954 2.5554 2.6754 2.8154 2.9754
3636.123 3.1754 3.5054 3.6754 3.7854 3.9954 4.2554 4.4354 4.4754 4.5454 4.4354
3655.413 4.0354 3.6454 3.2854 2.9354 2.5454 2.2054 1.9954 1.7754 1.5954 1.4354
3674.703 1.2654 1.1254 1.0854 1.0067 0.9954 0.9708 0.7893 0.753 0.613 0.5997
3693.993 0.6397 0.3493 0.3352 0.5201 0.6379 0.6895 0.5806 0.4592 0.476 0.5044
3713.282 0.4997 0.4817 0.5201 0.5916 0.5562 0.5508 0.6493 0.581 0.4657 0.3534
3732.572 0.4425 0.5181 0.2699 0.1979 0.2952 0.3252 0.2875 0.3723 0.3484 0.1602
3751.862 0.1606 0.3137 0.3718 0.2218 0.1587 0.2688 0.3123 0.2708 0.2758 0.3106
3771.152 0.3382 0.33 0.3278 0.3107 0.3525 0.2958 0.1661 0.2585 0.3643 0.3354
3790.441 0.2231 0.2854 0.4668 0.3526 0.2673 0.239 0.1526 0.2077 0.2454 0.2644
3809.731 0.2063 0.1356 0.1532 0.152 0.3126 0.3876 0.3586 0.3819 0.3971 0.3682
3829.021 0.4196 0.5403 0.4382 0.3303 0.3715 0.3911 0.3317 0.3922 0.3022 0.2948
3848.311 0.4571 0.4314 0.3818 0.3888 0.356 0.3365 0.2004 0.1753 0.3359 0.2938
3867.601 0.1516 0.1497 0.4093 0.3982 0.2668 0.3167 0.1981 0.1904 0.2515 0.2334
3886.890 0.3542 0.4337 0.3091 0.3033 0.4556 0.3671 0.247 0.3021 0.2732 0.1743
3906.180 0.2284 0.3729 0.3089 0.2553 0.2637 0.1396 0.197 0.3889 0.3776 0.31
3925.470 0.3617 0.3983 0.2962 0.2051 0.2068 0.1538 0.2145 0.4251 0.3744 0.2148
3944.760 0.2574 0.3206 0.1799 0.07459 0.2204 0.4477 0.4371 0.1893 0.1376 0.1879
3964.049 0.1701 0.1838 0.2035 0.12232 0.09071 0.165 0.2934 0.3219 0.243 0.1421
3983.339 0.1457 0.12212 0.032763 0.09452 0.1863 0.2494 0.08414 0 0.10604 0.2424
##END=
