##TITLE=Cyclohexyl diphenyl phosphine
##JCAMP-DX=4.24
##DATA TYPE=INFRARED SPECTRUM
##ORIGIN=EPA-IR VAPOR PHASE LIBRARY
##OWNER=SRD/NIST
Collection (C) 2018 copyright by the U.S. Secretary of Commerce
on behalf of the United States of America. All rights reserved.
##CAS REGISTRY NO=13689-20-8
##MOLFORM=C18 H21 P
##$NIST SOURCE=MSDC-IR
##STATE=gas
##XUNITS=1/CM
##YUNITS=ABSORBANCE
##XFACTOR=1.
##YFACTOR=0.001
##DELTAX=1.929
##FIRSTX=549.8
##LASTX=4000.8
##FIRSTY=23.919
##MAXX=4000.75
##MINX=549.766
##MAXY=0.064559
##MINY=0
##NPOINTS=1790
##XYDATA=(X++(Y..Y))
549.766 23.919 30.259 36.899 40.139 40.409 37.049 30.209 21.859 13.459 8.099
569.056 5.489 4.039 3.119 2.199 1.779 1.719 1.629 1.549 1.469 1.579
588.346 1.639 1.679 1.769 1.949 2.389 2.769 3.169 3.779 4.229 4.349
607.636 4.149 3.909 3.529 2.789 2.219 1.739 1.3718 1.1935 1.0564 0.9436
626.926 0.8529 0.7235 0.7195 0.7389 0.6146 0.6133 0.4642 0.6495 1.083 1.088
646.216 0.9794 0.8488 0.9929 1.2441 1.3202 1.3516 1.4025 1.989 2.329 2.309
665.506 2.699 3.119 3.489 3.929 4.349 4.689 5.059 5.609 6.359 7.469
684.796 9.229 11.819 15.559 20.469 25.479 29.469 31.729 31.549 29.309 25.739
704.086 22.119 19.849 19.339 20.509 23.119 25.969 27.499 27.079 24.729 21.109
723.376 17.159 13.919 12.099 11.389 11.539 12.009 12.359 12.559 12.119 11.319
742.666 10.299 8.929 7.699 6.579 5.589 4.959 4.439 3.859 3.369 3.049
761.956 2.769 2.549 2.199 1.959 1.969 1.829 1.599 1.429 1.3885 1.3245
781.246 1.2994 1.3864 1.3295 1.3345 1.3961 1.3674 1.539 1.599 1.579 1.679
800.536 1.849 2.009 2.249 2.689 2.899 3.069 3.289 3.209 3.269 3.429
819.826 3.249 2.669 2.019 1.649 1.3976 1.2118 1.0103 0.9556 0.9139 0.9238
839.116 1.0826 1.4178 2.069 2.749 3.409 3.979 4.189 4.109 3.809 3.309
858.406 2.729 2.219 1.919 1.789 1.879 2.099 2.359 2.619 2.829 2.979
877.696 3.129 3.389 3.579 3.709 3.829 3.749 3.439 3.049 2.649 2.159
896.986 1.739 1.3917 1.1232 1.1382 1.2447 1.3351 1.539 1.729 1.859 1.969
916.276 1.939 1.829 1.549 1.1304 0.8683 0.7586 0.7711 0.8081 0.7249 0.6638
935.566 0.7136 0.6899 0.6179 0.48564 0.50374 0.6559 0.6458 0.5655 0.5793 0.5997
954.856 0.6683 0.7432 0.6939 0.7416 0.7432 0.7098 0.7757 0.798 0.8141 0.9484
974.146 1.0108 0.9858 0.9834 0.9279 1.0481 1.1796 1.2015 1.3485 1.659 2.059
993.436 2.339 2.539 2.769 2.839 2.629 2.249 1.869 1.559 1.429 1.3572
1012.726 1.3211 1.349 1.3643 1.579 1.979 2.489 2.979 3.279 3.419 3.179
1032.016 2.849 2.589 2.229 2.019 1.959 1.879 1.679 1.479 1.353 1.264
1051.306 1.3036 1.397 1.529 1.789 1.989 2.209 2.439 2.619 2.809 3.059
1070.596 3.229 3.319 3.439 3.559 3.679 3.739 3.859 4.039 4.329 4.759
1089.886 5.429 6.439 7.779 9.389 11.139 13.199 15.499 18.029 20.969 24.069
1109.176 26.919 28.999 29.539 28.319 25.539 21.569 17.039 12.759 9.429 7.129
1128.467 5.479 4.379 3.659 3.109 2.689 2.389 2.089 1.889 1.769 1.599
1147.757 1.649 1.739 1.689 1.549 1.529 1.549 1.549 1.619 1.669 1.779
1167.047 1.949 2.169 2.629 3.129 3.619 4.279 4.919 5.559 6.219 6.829
1186.337 7.389 7.809 8.249 8.699 9.129 9.749 10.509 11.399 12.939 15.499
1205.627 19.169 23.699 28.469 32.909 35.989 35.739 32.029 27.109 21.819 16.469
1224.917 11.919 8.669 6.529 4.999 4.009 3.489 3.089 2.819 2.619 2.359
1244.207 2.219 2.119 2.159 2.149 2.099 2.139 2.139 2.029 1.979 2.039
1263.497 2.079 2.299 2.639 2.919 3.179 3.429 3.559 3.559 3.459 3.169
1282.787 2.909 2.689 2.459 2.369 2.319 2.229 2.199 2.209 2.239 2.239
1302.077 2.189 2.169 2.159 2.099 1.959 1.819 1.719 1.639 1.609 1.609
1321.367 1.659 1.729 1.859 2.059 2.109 2.139 2.109 1.929 1.749 1.569
1340.657 1.519 1.599 1.659 1.629 1.679 1.749 1.699 1.649 1.589 1.449
1359.947 1.3555 1.3013 1.2005 1.1561 1.186 1.1932 1.1719 1.1934 1.1943 1.1976
1379.237 1.1616 1.0792 1.024 1.0054 1.0311 1.0014 0.9878 1.0309 1.0429 1.0708
1398.527 1.1643 1.2675 1.3434 1.459 1.529 1.589 1.679 1.729 1.739 1.809
1417.817 1.969 2.159 2.339 2.609 3.099 3.739 4.799 6.229 7.679 8.939
1437.107 10.229 10.779 9.719 8.529 8.059 7.809 7.909 8.169 8.319 8.239
1456.397 7.299 5.779 4.669 3.719 2.989 2.539 2.299 2.109 2.049 2.039
1475.687 2.079 2.279 2.459 2.589 2.679 2.629 2.499 2.199 1.819 1.579
1494.977 1.3617 1.1637 0.9808 0.8429 0.7891 0.7568 0.7165 0.7191 0.7217 0.6743
1514.267 0.6458 0.6177 0.6034 0.6181 0.634 0.6564 0.6047 0.5932 0.6793 0.703
1533.557 0.7169 0.6957 0.6731 0.6907 0.7256 0.7668 0.7688 0.7394 0.7312 0.7091
1552.847 0.6681 0.6399 0.602 0.6013 0.6157 0.6507 0.6992 0.7009 0.6642 0.6608
1572.137 0.7533 0.8436 0.8531 0.942 1.0594 1.1132 1.1844 1.2214 1.2435 1.3039
1591.427 1.3048 1.2108 1.0808 0.9717 0.8899 0.9006 0.8554 0.7072 0.6947 0.7184
1610.717 0.7336 0.7799 0.7527 0.6824 0.6535 0.6148 0.6203 0.6649 0.6132 0.5867
1630.007 0.6372 0.6457 0.6135 0.5931 0.5908 0.6799 0.7718 0.743 0.6999 0.7296
1649.297 0.8095 0.8337 0.8546 0.9907 1.0262 0.9972 1.0076 0.9778 0.9838 0.934
1668.587 0.8848 0.8698 0.8498 0.7942 0.8062 0.7497 0.6892 0.7072 0.6277 0.5829
1687.877 0.6014 0.6634 0.6386 0.5736 0.5269 0.5408 0.5767 0.5503 0.5538 0.5438
1707.167 0.5708 0.6209 0.5679 0.51054 0.4952 0.50989 0.5403 0.5803 0.5707 0.5288
1726.457 0.5254 0.5389 0.5259 0.50228 0.44569 0.4918 0.6075 0.5743 0.5387 0.5452
1745.747 0.5564 0.6101 0.6707 0.6841 0.6977 0.7565 0.8053 0.8559 0.8599 0.8268
1765.037 0.8 0.8095 0.8684 0.897 0.9012 0.9911 0.9757 0.8826 0.8736 0.7764
1784.327 0.7243 0.7401 0.727 0.7352 0.7711 0.7931 0.8885 1.0177 1.0814 1.2124
1803.617 1.3571 1.529 1.709 1.779 1.819 1.829 1.749 1.639 1.499 1.3558
1822.907 1.2418 1.1706 1.2012 1.134 1.0832 1.0612 0.9546 0.8806 0.8007 0.7692
1842.197 0.7255 0.6822 0.7125 0.7165 0.7134 0.7058 0.7177 0.7601 0.798 0.7481
1861.487 0.6749 0.6634 0.644 0.6588 0.7696 0.8555 0.9017 1.0086 1.0704 1.0781
1880.777 1.1643 1.2444 1.2955 1.3728 1.3772 1.3748 1.429 1.4168 1.3834 1.419
1900.067 1.449 1.449 1.3787 1.2432 1.1542 1.0588 0.9787 0.9033 0.8042 0.7417
1919.357 0.7154 0.7156 0.7291 0.7 0.6905 0.7302 0.7348 0.708 0.7357 0.7777
1938.647 0.8481 0.9729 1.0664 1.1192 1.2077 1.2936 1.3981 1.529 1.589 1.609
1957.937 1.599 1.529 1.449 1.4181 1.4037 1.3914 1.3845 1.3711 1.2821 1.1465
1977.227 0.9872 0.8371 0.728 0.6125 0.5428 0.5338 0.5982 0.5767 0.50179 0.50958
1996.517 0.48762 0.496 0.50575 0.5284 0.5497 0.5443 0.58 0.5675 0.5366 0.5275
2015.807 0.5397 0.5359 0.5803 0.5833 0.5451 0.5622 0.50182 0.45895 0.48891 0.48109
2035.097 0.46815 0.48965 0.5266 0.5378 0.5213 0.50347 0.49543 0.5235 0.5508 0.50746
2054.387 0.47513 0.547 0.5964 0.6022 0.6134 0.5771 0.5459 0.5528 0.5676 0.5839
2073.677 0.5717 0.5295 0.49227 0.49691 0.5595 0.6036 0.6073 0.5886 0.5994 0.6096
2092.967 0.5825 0.5918 0.5996 0.5694 0.594 0.5811 0.539 0.5429 0.5566 0.6039
2112.257 0.607 0.5748 0.5943 0.609 0.5813 0.6059 0.6177 0.5936 0.5802 0.5716
2131.547 0.5782 0.606 0.6432 0.6108 0.5526 0.5448 0.5496 0.5979 0.6313 0.6536
2150.837 0.6617 0.641 0.665 0.6553 0.6398 0.6596 0.6255 0.6192 0.6528 0.6582
2170.127 0.6374 0.6059 0.6078 0.6305 0.6381 0.6729 0.6977 0.6985 0.7026 0.7122
2189.417 0.7038 0.6514 0.6688 0.7197 0.7305 0.7337 0.7687 0.8277 0.8387 0.8375
2208.707 0.8053 0.7825 0.8072 0.7528 0.6769 0.7238 0.7303 0.671 0.6663 0.6801
2227.997 0.687 0.6931 0.7157 0.6827 0.6668 0.6953 0.668 0.701 0.716 0.6138
2247.287 0.5766 0.6476 0.7247 0.6853 0.6669 0.6725 0.6339 0.6093 0.5929 0.6186
2266.577 0.6739 0.7365 0.7207 0.662 0.7003 0.7405 0.6801 0.6699 0.7277 0.7963
2285.868 0.7714 0.7268 0.7898 0.7773 0.7568 0.775 0.7924 0.7698 0.7605 0.7899
2305.158 0.8259 0.8531 0.8717 0.9223 0.9661 0.9886 0.9656 1.0125 1.0238 0.9222
2324.448 0.8519 0.8625 0.8267 0.7507 0.7479 0.8181 0.8588 0.8269 0.8754 0.9162
2343.738 0.8924 0.8219 0.8289 0.861 0.7784 0.7483 0.7559 0.6963 0.6703 0.8042
2363.028 0.8788 0.807 0.7579 0.8019 0.8207 0.7478 0.7063 0.6928 0.7384 0.7924
2382.318 0.7833 0.819 0.8153 0.7424 0.7628 0.7476 0.7749 0.7973 0.7257 0.7978
2401.608 0.7981 0.6931 0.736 0.7525 0.7102 0.6989 0.754 0.8389 0.8038 0.7565
2420.898 0.7759 0.7542 0.6926 0.7471 0.7859 0.7853 0.7859 0.7065 0.7222 0.7807
2440.188 0.706 0.6552 0.7322 0.7149 0.6683 0.7227 0.7191 0.6838 0.7107 0.73
2459.478 0.7154 0.7274 0.7052 0.7198 0.7387 0.7728 0.7971 0.7564 0.6949 0.7031
2478.768 0.7487 0.7378 0.7482 0.7461 0.7356 0.7423 0.7284 0.7281 0.7612 0.7145
2498.058 0.6866 0.7492 0.7431 0.7455 0.6807 0.6889 0.8059 0.7595 0.7365 0.7165
2517.348 0.6689 0.6675 0.7164 0.7697 0.7302 0.7098 0.8222 0.8616 0.8341 0.7522
2536.638 0.6903 0.7599 0.7556 0.6916 0.6713 0.6615 0.6769 0.7845 0.7944 0.7027
2555.928 0.6644 0.6996 0.7694 0.7794 0.8261 0.8266 0.7972 0.796 0.7606 0.8216
2575.218 0.9276 0.9053 0.9285 0.9755 0.9136 0.8832 0.8809 0.9252 0.9397 0.931
2594.508 0.9775 0.9392 0.8676 0.8878 0.8602 0.7892 0.8678 0.9536 0.9873 0.9939
2613.798 1.012 1.0038 0.9979 1.0239 1.0569 1.0696 1.0289 1.0671 1.0871 1.0441
2633.088 1.0345 1.0005 1.0196 1.1295 1.1308 1.0336 0.9576 0.9767 1.1254 1.2078
2652.378 1.1636 1.1932 1.1923 1.1703 1.2848 1.383 1.429 1.4122 1.3661 1.3507
2671.668 1.3864 1.479 1.469 1.3975 1.3581 1.302 1.2599 1.2269 1.2356 1.2238
2690.958 1.2501 1.1899 1.1395 1.2146 1.2067 1.1793 1.1404 1.0973 1.0567 1.0456
2710.248 1.0301 1.0105 0.9599 0.9094 0.9807 1.0123 1.0013 0.9696 0.8791 0.9179
2729.538 0.9504 0.9368 0.9099 0.8984 0.911 0.8278 0.862 0.9047 0.9093 0.9853
2748.828 0.9291 0.7782 0.8045 0.944 0.849 0.7542 0.8404 0.9229 0.9322 0.9167
2768.118 1.0357 1.0828 1.0302 1.0702 1.115 1.1362 1.1957 1.2878 1.2671 1.2212
2787.408 1.1851 1.2605 1.439 1.469 1.519 1.589 1.569 1.549 1.579 1.639
2806.698 1.659 1.699 1.669 1.499 1.509 1.639 1.689 1.679 1.689 1.799
2825.988 1.909 1.919 1.989 2.079 2.109 2.269 2.449 2.639 2.919 3.349
2845.278 4.149 5.149 6.449 8.309 10.759 13.509 16.369 18.789 20.429 21.209
2864.568 20.899 19.849 18.349 16.429 14.439 12.629 11.039 9.659 8.459 7.669
2883.858 7.039 6.479 6.109 5.979 5.879 5.849 6.089 6.429 6.719 7.039
2903.148 7.519 8.069 8.649 9.219 9.929 10.769 11.699 12.939 14.629 16.799
2922.438 19.429 22.749 26.709 31.129 36.589 43.089 50.389 57.819 63.119 64.559
2941.728 62.199 56.009 46.799 36.589 27.199 19.789 14.629 11.409 9.189 7.709
2961.018 6.639 5.649 4.819 4.309 3.949 3.449 3.209 3.089 2.909 2.779
2980.308 2.799 2.759 2.699 2.719 2.649 2.609 2.569 2.469 2.519 2.579
2999.598 2.689 2.729 2.689 2.949 3.189 3.309 3.479 3.749 3.839 3.769
3018.888 3.799 3.949 4.119 4.149 4.259 4.269 4.239 4.149 3.959 3.799
3038.178 3.839 3.969 4.019 4.239 4.449 4.889 5.599 6.649 7.989 9.619
3057.468 11.669 13.939 16.039 17.609 18.289 17.679 16.089 14.379 12.899 11.809
3076.758 11.419 11.379 11.049 10.399 9.469 8.459 7.439 6.409 5.539 4.919
3096.048 4.399 3.789 3.269 2.829 2.419 2.219 1.959 1.719 1.629 1.459
3115.338 1.3521 1.4021 1.3292 1.2647 1.3696 1.3652 1.1606 1.1452 1.2753 1.2692
3134.628 1.3166 1.3978 1.459 1.519 1.539 1.479 1.479 1.539 1.429 1.242
3153.918 1.221 1.0996 1.0264 1.1099 1.0677 0.8344 0.7345 0.7563 0.6602 0.5534
3173.208 0.5449 0.5686 0.44752 0.49051 0.6954 0.7263 0.7619 0.7954 0.7771 0.6975
3192.498 0.5543 0.5287 0.47138 0.48179 0.6524 0.6029 0.5753 0.6762 0.571 0.47096
3211.788 0.5405 0.5746 0.5442 0.5345 0.45408 0.40931 0.3481 0.45227 0.7048 0.6118
3231.078 0.5478 0.48232 0.41211 0.427439 0.3842 0.41628 0.3367 0.315 0.44774 0.5398
3250.368 0.45858 0.3613 0.49475 0.5201 0.45263 0.5739 0.621 0.4847 0.368 0.43725
3269.658 0.5277 0.46408 0.45204 0.5791 0.45507 0.3545 0.49716 0.45286 0.4023 0.3888
3288.948 0.3574 0.424957 0.3889 0.353 0.529 0.5459 0.43418 0.44359 0.47653 0.371
3308.238 0.296 0.3505 0.3274 0.266 0.358 0.3536 0.267 0.313 0.3892 0.427459
3327.528 0.426462 0.426658 0.3273 0.3704 0.46064 0.5488 0.49078 0.3352 0.3688 0.41132
3346.818 0.3551 0.3866 0.43474 0.256 0.247 0.3272 0.3241 0.3839 0.41129 0.396
3366.108 0.3401 0.393 0.5884 0.51499 0.3727 0.41077 0.3618 0.41578 0.43077 0.325
3385.398 0.359 0.46109 0.5391 0.427495 0.3528 0.421965 0.3669 0.272 0.212 0.281
3404.688 0.4028 0.3951 0.272 0.31 0.4064 0.3543 0.3367 0.296 0.291 0.222
3423.978 0.27 0.379 0.388 0.46094 0.3767 0.424354 0.46377 0.316 0.3322 0.43378
3443.269 0.49085 0.5306 0.5573 0.47283 0.3902 0.3729 0.46094 0.42163 0.293 0.297
3462.559 0.372 0.420664 0.4 0.43108 0.3714 0.47603 0.50511 0.313 0.3723 0.3831
3481.849 0.3294 0.424284 0.425221 0.41268 0.43814 0.262 0 0.039 0.248 0.3383
3501.139 0.3294 0.3715 0.48005 0.46735 0.3729 0.271 0.172 0.229 0.3334 0.298
3520.429 0.272 0.3304 0.307 0.316 0.3731 0.43662 0.3777 0.231 0.186 0.217
3539.719 0.227 0.259 0.252 0.118 0.204 0.287 0.186 0.222 0.41224 0.269
3559.009 0.063 0.133 0.25 0.314 0.422674 0.46979 0.46401 0.48314 0.3575 0.4117
3578.299 0.44859 0.238 0.191 0.3443 0.3487 0.241 0.185 0.206 0.293 0.242
3597.589 0.283 0.4022 0.298 0.127 0.186 0.428175 0.418657 0.3345 0.3458 0.298
3616.879 0.19 0.184 0.254 0.319 0.41415 0.275 0.151 0.214 0.247 0.287
3636.169 0.245 0.249 0.3741 0.4155 0.3994 0.48884 0.49461 0.3505 0.186 0.219
3655.459 0.3862 0.3282 0.3486 0.3531 0.283 0.227 0.198 0.264 0.249 0.3698
3674.749 0.48578 0.5642 0.5807 0.46895 0.422003 0.3381 0.3698 0.49111 0.5533 0.5441
3694.039 0.45358 0.44817 0.5108 0.49198 0.3248 0.265 0.297 0.3702 0.4034 0.265
3713.329 0.238 0.3957 0.46444 0.314 0.318 0.3444 0.199 0.28 0.3203 0.247
3732.619 0.3888 0.46631 0.3847 0.3814 0.4652 0.3528 0.282 0.3919 0.4042 0.3785
3751.909 0.4538 0.527 0.387 0.302 0.3451 0.41295 0.50721 0.45946 0.3386 0.3611
3771.199 0.3754 0.49182 0.51273 0.47436 0.6449 0.46987 0.319 0.3938 0.3966 0.566
3790.489 0.6375 0.421023 0.428477 0.47986 0.3952 0.3641 0.266 0.261 0.3587 0.3461
3809.779 0.3704 0.3915 0.302 0.234 0.269 0.41574 0.50307 0.3925 0.4005 0.44071
3829.069 0.318 0.261 0.3214 0.43531 0.46551 0.45021 0.311 0.3568 0.49804 0.3685
3848.359 0.226 0.265 0.288 0.3888 0.5368 0.48436 0.5315 0.43135 0.4041 0.6139
3867.649 0.6077 0.48768 0.5854 0.645 0.50458 0.3885 0.43835 0.5438 0.51899 0.420292
3886.939 0.425072 0.6101 0.8493 0.8233 0.5875 0.5241 0.5406 0.5742 0.5295 0.5609
3906.229 0.6866 0.6602 0.5539 0.48828 0.304 0.191 0.3215 0.5241 0.5379 0.358
3925.519 0.428781 0.5376 0.50614 0.5442 0.5422 0.47943 0.5419 0.7089 0.8875 0.7592
3944.809 0.49547 0.49746 0.48838 0.5467 0.5246 0.428953 0.44604 0.45062 0.3433 0.3686
3964.099 0.44507 0.47335 0.5216 0.4007 0.312 0.3205 0.45579 0.5594 0.7104 0.8228
3983.389 0.7286 0.6507 0.6781 0.7049 0.5512 0.5672 0.7226 0.5566 0.51528 0.6004
##END=
