##TITLE=N,N-Dichlorourethane
##JCAMP-DX=4.24
##DATA TYPE=INFRARED SPECTRUM
##ORIGIN=EPA-IR VAPOR PHASE LIBRARY
##OWNER=SRD/NIST
Collection (C) 2018 copyright by the U.S. Secretary of Commerce
on behalf of the United States of America. All rights reserved.
##CAS REGISTRY NO=13698-16-3
##MOLFORM=C 3 H 5 Cl 2 N O 2
##$NIST SOURCE=MSDC-IR
##STATE=gas
##XUNITS=1/CM
##YUNITS=ABSORBANCE
##XFACTOR=1.
##YFACTOR=0.001
##DELTAX=3.85796
##FIRSTX=501.5
##LASTX=4000.7
##FIRSTY=2.98
##MAXX=4000.7
##MINX=501.534
##MAXY=0.04001
##MINY=0.0002212
##NPOINTS=908
##XYDATA=(X++(Y..Y))
501.534 2.98 2.9 2.76 2.82 2.97 2.98 3 3.07 3.07 3.08
540.114 3.11 3.08 2.95 2.79 2.71 2.61 2.46 2.38 2.32 2.15
578.693 1.98 1.96 1.9 1.74 1.65 1.5 1.31 1.24 1.19 1.12
617.273 1.08 1.06 1.03 1.02 1.02 1.08 1.18 1.15 1.13 1.18
655.852 1.21 1.32 1.5 1.78 1.96 2.05 2.15 2.25 2.31 2.29
694.432 2.39 2.52 2.46 2.52 2.68 2.74 2.83 2.95 3.04 3.08
733.011 3.2 3.36 3.62 3.88 4.02 4.19 4.35 4.44 4.49 4.43
771.591 4.25 4.06 3.84 3.59 3.36 3.13 2.92 2.77 2.69 2.65
810.170 2.66 2.69 2.74 2.76 2.77 2.78 2.71 2.65 2.55 2.42
848.750 2.36 2.32 2.18 2.05 1.97 1.85 1.77 1.69 1.58 1.52
887.330 1.52 1.5 1.5 1.53 1.52 1.51 1.52 1.51 1.47 1.44
925.909 1.41 1.37 1.35 1.39 1.46 1.52 1.59 1.66 1.69 1.73
964.489 1.81 1.88 1.86 1.83 1.85 1.87 1.84 1.82 1.81 1.81
1003.068 1.79 1.84 1.95 2.01 2.17 2.48 2.88 3.48 4.39 5.54
1041.648 7.06 9.05 11.37 13.75 15.84 17.41 18.24 18.1 17.18 15.6
1080.227 13.79 12.31 11.23 10.65 10.33 9.99 9.53 8.83 7.9 6.98
1118.807 6.2 5.61 5.11 4.71 4.53 4.57 4.78 5.17 5.74 6.6
1157.387 7.8 9.37 11.55 14.62 18.78 23.94 29.7 35.13 38.9 40.01
1195.966 38.33 33.98 27.49 20.52 15.03 11.51 9.38 7.93 6.95 6.33
1234.546 5.85 5.54 5.36 5.26 5.3 5.45 5.71 6.18 6.87 7.81
1273.125 9.07 10.83 13.27 16.5 20.39 24.57 28.63 32.1 34.53 35.61
1311.705 35 32.64 28.96 24.98 21.37 18.42 16.39 14.39 12.06 10.45
1350.284 10.04 10.51 11.33 12.53 14.33 16.21 17.97 19.69 20.88 21.21
1388.864 20.57 18.95 16.56 14.54 13.41 12.61 11.5 9.94 8.33 7.09
1427.443 6.31 5.82 5.47 5.22 5.04 4.89 4.83 4.8 4.82 4.93
1466.023 5.05 5.08 5.01 4.82 4.47 4.02 3.54 3.11 2.78 2.5
1504.603 2.3 2.14 2.02 1.95 1.87 1.81 1.79 1.78 1.79 1.79
1543.182 1.78 1.81 1.85 1.93 2.12 2.38 2.66 2.93 3.21 3.46
1581.762 3.58 3.63 3.61 3.47 3.22 2.91 2.59 2.29 2.05 1.85
1620.341 1.68 1.55 1.44 1.34 1.26 1.21 1.16 1.12 1.1 1.07
1658.921 1.04 1.03 1.02 1.04 1.08 1.13 1.22 1.34 1.46 1.68
1697.500 1.95 2.24 2.59 3.05 3.66 4.55 5.83 7.63 10.19 13.59
1736.080 17.92 22.4 26.24 28.7 30.5 32.05 32.16 30.28 28.05 26.81
1774.659 26.96 27.74 27.9 26.76 25.23 23.95 21.68 18.2 14.62 11.4
1813.239 8.66 6.49 4.85 3.71 2.93 2.4 2.07 1.83 1.64 1.51
1851.819 1.41 1.32 1.24 1.19 1.13 1.08 1.04 1.01 0.9915 0.9758
1890.398 0.9375 0.8999 0.884 0.8505 0.7988 0.757 0.7214 0.6817 0.6401 0.6082
1928.978 0.5936 0.5796 0.5533 0.5309 0.5308 0.5303 0.5191 0.5074 0.4909 0.4777
1967.557 0.4596 0.4455 0.4309 0.4182 0.4175 0.402 0.3956 0.4075 0.4078 0.392
2006.137 0.387 0.3871 0.3979 0.3988 0.3885 0.3971 0.3959 0.3921 0.3932 0.3994
2044.716 0.4036 0.3975 0.4045 0.3995 0.3878 0.3901 0.3765 0.3741 0.3818 0.3896
2083.296 0.3932 0.393 0.403 0.4158 0.4136 0.4207 0.431 0.4239 0.4241 0.4247
2121.875 0.4256 0.4036 0.3943 0.4262 0.4648 0.4848 0.4979 0.5206 0.533 0.5613
2160.455 0.5967 0.6251 0.6539 0.68 0.7036 0.7317 0.7826 0.867 0.9823 1.07
2199.035 1.15 1.24 1.33 1.45 1.65 1.89 2.14 2.45 2.76 3.1
2237.614 3.46 3.79 4.01 4.13 4.1 3.96 3.73 3.45 3.34 3.68
2276.194 4.21 4.62 4.79 4.58 4.05 3.3 2.51 1.82 1.34 1.04
2314.773 0.8723 0.8129 0.7817 0.7316 0.7132 0.7039 0.707 0.6934 0.6537 0.6471
2353.353 0.7157 0.8124 0.8649 0.8766 0.8315 0.7496 0.6591 0.5484 0.4454 0.3884
2391.932 0.358 0.331 0.309 0.2979 0.2838 0.2825 0.2848 0.277 0.2796 0.2884
2430.512 0.2999 0.2803 0.2686 0.2763 0.2703 0.2694 0.2603 0.2491 0.2421 0.2301
2469.092 0.2422 0.2487 0.2285 0.2264 0.236 0.236 0.2319 0.2344 0.2418 0.2542
2507.671 0.2545 0.2392 0.2286 0.2212 0.2339 0.251 0.2626 0.2666 0.2592 0.2621
2546.251 0.269 0.2794 0.2941 0.3072 0.3216 0.3071 0.2874 0.2964 0.3127 0.3269
2584.830 0.3286 0.3167 0.3118 0.3052 0.2703 0.2637 0.2929 0.2836 0.2652 0.263
2623.410 0.2668 0.2753 0.2783 0.2836 0.2706 0.2537 0.2666 0.2883 0.2913 0.3022
2661.989 0.315 0.3081 0.3075 0.316 0.3268 0.3131 0.2908 0.2809 0.2716 0.2814
2700.569 0.3357 0.333 0.2772 0.2528 0.2776 0.2989 0.336 0.3753 0.3481 0.3216
2739.148 0.3365 0.3681 0.406 0.4568 0.4213 0.377 0.3957 0.3918 0.3918 0.487
2777.728 0.5082 0.4574 0.4701 0.4574 0.4831 0.5937 0.5703 0.5014 0.5226 0.5325
2816.308 0.576 0.6706 0.6723 0.6244 0.6695 0.7126 0.7563 0.8117 0.8261 0.8651
2854.887 0.9099 0.9732 1.14 1.29 1.38 1.52 1.68 1.81 1.91 2.01
2893.467 2.14 2.25 2.34 2.45 2.55 2.65 2.75 2.86 3.05 3.24
2932.046 3.5 3.92 4.3 4.57 4.67 4.73 4.74 4.76 4.9 5.11
2970.626 5.56 6.29 7.17 7.83 8.09 8.15 8.11 7.75 6.82 5.74
3009.205 4.92 4.3 3.68 3.07 2.59 2.21 1.86 1.55 1.33 1.18
3047.785 1.04 0.9519 0.8958 0.8635 0.8172 0.7645 0.748 0.6984 0.6284 0.6277
3086.364 0.6552 0.6203 0.5938 0.5793 0.5386 0.5247 0.5168 0.5112 0.5098 0.5075
3124.944 0.5017 0.4987 0.5056 0.4985 0.4788 0.48 0.4895 0.4634 0.4641 0.4538
3163.524 0.422 0.4364 0.4415 0.4419 0.4501 0.4523 0.425 0.401 0.4078 0.4357
3202.103 0.4552 0.4436 0.4229 0.385 0.3836 0.3996 0.3944 0.3808 0.3728 0.3828
3240.683 0.3792 0.3588 0.3613 0.376 0.3682 0.3601 0.3488 0.3455 0.3602 0.3547
3279.262 0.3335 0.352 0.3548 0.3092 0.3158 0.3233 0.3166 0.3348 0.344 0.367
3317.842 0.4105 0.4456 0.4371 0.4106 0.4124 0.4214 0.4287 0.4249 0.4402 0.4794
3356.421 0.512 0.5531 0.5605 0.5914 0.6562 0.6723 0.682 0.7326 0.8326 0.9258
3395.001 0.9966 1.16 1.44 1.73 2.09 2.58 3.19 3.93 4.78 5.69
3433.580 6.41 6.86 7 6.84 6.39 5.69 4.82 3.96 3.25 2.71
3472.160 2.36 2.15 1.99 1.8 1.66 1.58 1.57 1.53 1.46 1.48
3510.740 1.49 1.47 1.5 1.49 1.47 1.54 1.66 1.75 1.82 1.82
3549.319 1.8 1.81 1.82 1.83 1.79 1.71 1.68 1.63 1.53 1.42
3587.899 1.33 1.27 1.15 1.02 0.925 0.8316 0.7565 0.663 0.5817 0.5535
3626.478 0.5456 0.5228 0.5222 0.556 0.5373 0.53 0.562 0.5816 0.5855 0.555
3665.058 0.497 0.5081 0.547 0.4999 0.4858 0.5281 0.5344 0.4737 0.4372 0.4524
3703.637 0.4642 0.4398 0.4284 0.4192 0.3634 0.3477 0.3698 0.391 0.3884 0.3758
3742.217 0.3569 0.3656 0.3821 0.3732 0.385 0.365 0.3616 0.3453 0.3161 0.3208
3780.797 0.3319 0.3452 0.3639 0.3929 0.3964 0.3958 0.3857 0.3707 0.3366 0.3195
3819.376 0.3326 0.3539 0.3544 0.3558 0.3595 0.3723 0.3779 0.3506 0.3558 0.3641
3857.956 0.3925 0.3715 0.345 0.3436 0.3619 0.3863 0.4042 0.4097 0.3437 0.3626
3896.535 0.3982 0.3867 0.392 0.3869 0.3918 0.4048 0.3657 0.3446 0.3982 0.3862
3935.115 0.3564 0.3617 0.3581 0.3649 0.3399 0.3575 0.4022 0.3989 0.3724 0.3619
3973.694 0.3605 0.346 0.3463 0.3568 0.414 0.4057 0.3835 0.424
##END=
