##TITLE=2,4-Dinonylphenol
##JCAMP-DX=4.24
##DATA TYPE=INFRARED SPECTRUM
##ORIGIN=EPA-IR VAPOR PHASE LIBRARY
##OWNER=SRD/NIST
Collection (C) 2018 copyright by the U.S. Secretary of Commerce
on behalf of the United States of America. All rights reserved.
##CAS REGISTRY NO=137-99-5
##MOLFORM=C 24 H 42 O
##$NIST SOURCE=MSDC-IR
##STATE=gas
##XUNITS=1/CM
##YUNITS=ABSORBANCE
##XFACTOR=1.
##YFACTOR=0.001
##DELTAX=3.85796
##FIRSTX=501.5
##LASTX=4000.7
##FIRSTY=0.3712
##MAXX=4000.7
##MINX=501.534
##MAXY=0.03164
##MINY=0.000005749
##NPOINTS=908
##XYDATA=(X++(Y..Y))
501.534 0.3712 0.4828 0.4777 0.4827 0.5453 0.4675 0.3821 0.357 0.2817 0.3219
540.114 0.3339 0.2189 0.2882 0.3692 0.355 0.3055 0.2319 0.2487 0.2955 0.28
578.693 0.1955 0.2587 0.3341 0.1895 0.1939 0.2506 0.1768 0.2282 0.2147 0.1111
617.273 0.1559 0.2124 0.1183 0.005749 0.1145 0.2868 0.4018 0.4413 0.4026 0.494
655.852 0.5544 0.4292 0.4031 0.4721 0.3828 0.3342 0.3523 0.309 0.2674 0.2522
694.432 0.2599 0.2684 0.2997 0.308 0.3434 0.4805 0.5558 0.5611 0.555 0.5919
733.011 0.6579 0.7073 0.7192 0.6924 0.7046 0.7352 0.7698 0.7499 0.6863 0.7114
771.591 0.8575 0.9731 1.02 1.02 1.02 1.16 1.41 1.8 2.25 2.34
810.170 2.03 1.76 1.67 1.55 1.24 0.9243 0.7163 0.6466 0.5389 0.4035
848.750 0.3701 0.4008 0.4422 0.3951 0.3138 0.3366 0.4094 0.4496 0.6374 0.7703
887.330 0.7756 0.8027 0.7941 0.7574 0.7515 0.7303 0.6309 0.5929 0.5934 0.5998
925.909 0.5535 0.5072 0.5687 0.5926 0.5261 0.4639 0.4443 0.4373 0.4172 0.4374
964.489 0.4411 0.4548 0.5082 0.4765 0.4241 0.42 0.4591 0.526 0.5615 0.6224
1003.068 0.6924 0.7399 0.7611 0.7155 0.7336 0.7201 0.673 0.6409 0.6718 0.7489
1041.648 0.7042 0.7207 0.7894 0.8026 0.8491 1.06 1.23 1.32 1.56 1.64
1080.227 1.65 1.78 1.81 1.8 1.75 1.62 1.69 1.76 1.81 1.95
1118.807 2.14 2.51 2.64 2.64 2.56 2.58 2.73 2.82 3.05 3.36
1157.387 3.77 4.23 4.52 4.69 4.84 4.89 4.81 4.66 4.52 4.33
1195.966 4 3.63 3.37 3.17 2.94 2.78 2.71 2.73 2.8 2.81
1234.546 3.04 3.47 3.88 4.3 4.49 4.26 3.83 3.37 3.15 2.97
1273.125 2.72 2.58 2.43 2.23 2.1 2.01 1.99 2.03 2.15 2.36
1311.705 2.6 2.86 3.07 3.1 2.9 2.57 2.26 2.07 1.93 1.85
1350.284 1.86 1.95 2.17 2.53 2.99 3.38 3.69 4.09 4.41 4.38
1388.864 3.92 3.28 2.79 2.51 2.34 2.2 2.1 1.99 1.8 1.54
1427.443 1.39 1.42 1.58 1.8 2.12 2.61 3.19 3.89 4.6 5.13
1466.023 5.41 5.4 5.12 4.67 4.3 4.29 4.78 5.67 6.71 7.15
1504.603 6.55 5.02 3.38 2.29 1.7 1.36 1.13 0.9641 0.8568 0.825
1543.182 0.7727 0.6729 0.615 0.6151 0.6542 0.5962 0.5605 0.5565 0.5591 0.6109
1581.762 0.6428 0.6719 0.6867 0.7092 0.7429 0.8129 0.8584 0.8132 0.7324 0.6415
1620.341 0.5209 0.4565 0.4213 0.3797 0.3819 0.3543 0.3478 0.3556 0.4108 0.4064
1658.921 0.3539 0.3736 0.3653 0.3601 0.3484 0.3416 0.3548 0.3427 0.3163 0.3447
1697.500 0.3867 0.3423 0.3016 0.2845 0.2753 0.2988 0.2934 0.2994 0.3029 0.3212
1736.080 0.3042 0.2671 0.2454 0.2771 0.3174 0.2762 0.2662 0.2731 0.2724 0.2629
1774.659 0.2355 0.2196 0.2239 0.2212 0.2336 0.2259 0.219 0.2154 0.2124 0.2081
1813.239 0.1862 0.1917 0.2179 0.2354 0.2258 0.238 0.2274 0.2299 0.2683 0.2578
1851.819 0.2542 0.2551 0.2398 0.2368 0.2319 0.2279 0.2186 0.2131 0.2259 0.222
1890.398 0.1962 0.1706 0.1618 0.1531 0.148 0.1556 0.1359 0.1296 0.1425 0.1226
1928.978 0.1165 0.1311 0.1287 0.1305 0.127 0.1293 0.1423 0.1425 0.1247 0.1231
1967.557 0.1378 0.1154 0.11 0.1295 0.1127 0.1013 0.1224 0.1154 0.08824 0.1085
2006.137 0.1188 0.11 0.126 0.1319 0.1591 0.1595 0.1154 0.1215 0.1308 0.1266
2044.716 0.1301 0.1114 0.1165 0.1119 0.09395 0.1164 0.1285 0.128 0.1266 0.1252
2083.296 0.1161 0.1017 0.0988 0.1208 0.1369 0.1216 0.11 0.1233 0.1082 0.0905
2121.875 0.0985 0.113 0.1247 0.117 0.1339 0.1338 0.1182 0.1015 0.1082 0.1188
2160.455 0.1183 0.1182 0.1197 0.1136 0.1058 0.1158 0.1043 0.08843 0.1018 0.1219
2199.035 0.1091 0.0946 0.08551 0.07911 0.09006 0.1009 0.09717 0.0911 0.1055 0.1346
2237.614 0.1512 0.1418 0.1226 0.1463 0.1624 0.1432 0.1364 0.1101 0.1123 0.1329
2276.194 0.1385 0.1808 0.1802 0.1692 0.1642 0.1479 0.1596 0.1738 0.1966 0.1931
2314.773 0.2096 0.2423 0.2176 0.221 0.2592 0.2693 0.2665 0.2507 0.2339 0.2475
2353.353 0.2878 0.3019 0.2789 0.244 0.2223 0.2266 0.2181 0.2266 0.2289 0.2047
2391.932 0.2158 0.2232 0.2194 0.2175 0.2204 0.216 0.2172 0.2305 0.2316 0.2155
2430.512 0.1876 0.1961 0.2221 0.2057 0.1966 0.2217 0.22 0.2203 0.2025 0.1709
2469.092 0.1874 0.2155 0.2241 0.2169 0.2143 0.2273 0.2495 0.246 0.2609 0.2728
2507.671 0.247 0.2295 0.2315 0.2303 0.2099 0.2224 0.2299 0.2188 0.2324 0.2394
2546.251 0.2365 0.2259 0.2408 0.2831 0.2833 0.2564 0.2576 0.2857 0.3182 0.3319
2584.830 0.3141 0.2931 0.2956 0.3137 0.3006 0.3225 0.3498 0.3652 0.3756 0.3353
2623.410 0.3241 0.3444 0.3439 0.355 0.3872 0.4148 0.3931 0.3557 0.3743 0.4138
2661.989 0.4373 0.4186 0.4153 0.4127 0.4166 0.4519 0.4568 0.4305 0.4357 0.4516
2700.569 0.4355 0.4411 0.4814 0.5128 0.5204 0.5253 0.5624 0.6132 0.6277 0.6794
2739.148 0.7029 0.6879 0.6732 0.63 0.6333 0.6295 0.6345 0.6702 0.6889 0.7136
2777.728 0.7514 0.7854 0.7897 0.8061 0.8886 0.9296 0.9421 1.03 1.15 1.23
2816.308 1.3 1.43 1.56 1.7 1.89 2.15 2.49 2.97 3.61 4.43
2854.887 5.45 6.52 7.56 8.62 9.74 10.93 12.09 12.74 12.57 11.84
2893.467 11.17 10.93 11.22 11.94 12.93 14.13 15.4 16.69 18.1 19.6
2932.046 21 21.93 21.99 21.1 19.97 19.82 21.67 25.56 29.78 31.64
2970.626 29.74 25.07 19.84 15.21 11.3 8.33 6.33 5 4.12 3.53
3009.205 3.1 2.83 2.71 2.61 2.42 2.2 2 1.87 1.82 1.72
3047.785 1.64 1.61 1.57 1.56 1.58 1.56 1.48 1.38 1.27 1.18
3086.364 1.14 1.1 1.01 0.9179 0.8766 0.8406 0.8141 0.8318 0.792 0.7263
3124.944 0.7162 0.6548 0.5907 0.5492 0.538 0.5487 0.5235 0.5764 0.6009 0.5757
3163.524 0.5522 0.5037 0.5086 0.5196 0.503 0.5529 0.5618 0.5079 0.4652 0.4472
3202.103 0.4886 0.4493 0.3377 0.3276 0.3548 0.3055 0.3185 0.3287 0.2744 0.275
3240.683 0.2827 0.2806 0.2829 0.27 0.2463 0.2481 0.2913 0.2863 0.2313 0.2352
3279.262 0.2599 0.2591 0.3101 0.3473 0.2811 0.2351 0.2758 0.2756 0.2798 0.3026
3317.842 0.2899 0.3074 0.3088 0.3447 0.3349 0.2698 0.3002 0.3315 0.2969 0.294
3356.421 0.339 0.2998 0.2325 0.2753 0.2858 0.2755 0.3147 0.2893 0.306 0.3797
3395.001 0.3593 0.3034 0.3096 0.342 0.3072 0.2542 0.3045 0.3565 0.368 0.3445
3433.580 0.2676 0.2526 0.2522 0.2161 0.2446 0.2558 0.2456 0.2884 0.2849 0.2587
3472.160 0.3274 0.3223 0.2801 0.3299 0.2516 0.1967 0.2651 0.2616 0.2843 0.3196
3510.740 0.2727 0.2377 0.2729 0.3017 0.2097 0.1166 0.188 0.235 0.2587 0.252
3549.319 0.1914 0.2238 0.233 0.2307 0.2782 0.2649 0.2014 0.2477 0.2111 0.2087
3587.899 0.2748 0.3087 0.352 0.34 0.3337 0.3666 0.3883 0.5012 0.6107 0.6916
3626.478 0.9486 1.38 2.19 3.38 4.36 4.67 4.21 3.1 2.04 1.38
3665.058 0.9566 0.8053 0.7462 0.6241 0.5515 0.5029 0.4961 0.4886 0.4006 0.3389
3703.637 0.3009 0.3358 0.3798 0.3186 0.3297 0.3369 0.2139 0.2585 0.4211 0.4279
3742.217 0.3949 0.4161 0.4539 0.3502 0.3301 0.2861 0.198 0.2329 0.2613 0.296
3780.797 0.2803 0.2838 0.2621 0.3061 0.3301 0.2997 0.2819 0.2976 0.3715 0.3189
3819.376 0.3097 0.3374 0.256 0.2691 0.3756 0.3952 0.3563 0.3129 0.3478 0.4687
3857.956 0.3966 0.3101 0.3523 0.402 0.4985 0.4536 0.373 0.4135 0.4274 0.3422
3896.535 0.3168 0.3393 0.3049 0.3189 0.2648 0.2758 0.4246 0.4497 0.4273 0.4774
3935.115 0.41 0.3281 0.3087 0.2998 0.2713 0.2353 0.2934 0.3204 0.3215 0.2387
3973.694 0.2245 0.2553 0.2506 0.3292 0.3068 0.276 0.3321 0.353
##END=
