##TITLE=Lidocaine
##JCAMP-DX=4.24
##DATA TYPE=INFRARED SPECTRUM
##ORIGIN=NIST Mass Spectrometry Data Center
##OWNER=NIST Standard Reference Data Program
Collection (C) 2018 copyright by the U.S. Secretary of Commerce
on behalf of the United States of America. All rights reserved.
##CAS REGISTRY NO=137-58-6
##MOLFORM=C 14 H 22 N 2 O
##$NIST SOURCE=MSDC-IR
##SPECTROMETER/DATA SYSTEM=HP-GC/MS/IRD
##STATE=gas
##XUNITS=1/CM
##YUNITS=ABSORBANCE
##XFACTOR=1.0
##YFACTOR=0.000001100
##DELTAX=4.0
##FIRSTX=550.0
##LASTX=3846.0
##FIRSTY=0.000241
##MAXX=3846
##MINX=550
##MAXY=0.011
##MINY=0
##NPOINTS=825
##XYDATA=(X++(Y..Y))
550.0 219 232 181 151 190 169 202 288 281 256
590.0 298 341 365 430 552 661 684 621 563 545
630.0 429 281 226 218 197 164 184 162 99 60
670.0 83 148 155 132 132 133 153 182 206 230
710.0 199 159 158 112 80 102 106 105 129 286
750.0 551 971 1584 2152 2263 1868 1349 959 719 571
790.0 458 335 224 228 252 246 239 172 131 135
830.0 114 79 24 15 25 0 9 24 9 24
870.0 32 32 50 80 97 117 146 180 226 231
910.0 197 189 222 240 211 189 207 232 237 251
950.0 259 247 264 332 404 429 439 455 465 486
990.0 476 416 367 348 326 290 279 299 309 314
1030.0 361 436 512 599 691 823 952 1100 1276 1414
1070.0 1454 1407 1359 1397 1441 1453 1442 1416 1320 1156
1110.0 1065 1020 943 881 836 804 776 756 800 862
1150.0 952 1029 1086 1101 1034 928 860 822 837 948
1190.0 1136 1397 1741 2043 2185 2146 1954 1679 1384 1129
1230.0 918 825 786 743 762 848 958 1034 1066 1064
1270.0 1065 1064 1069 1097 1123 1166 1212 1229 1200 1102
1310.0 992 916 876 861 861 872 900 925 935 945
1350.0 961 995 1013 1067 1191 1352 1568 1798 1931 1916
1390.0 1770 1553 1348 1191 1142 1179 1268 1458 1758 2116
1430.0 2440 2704 2997 3386 3918 4555 5218 5894 6516 7170
1470.0 7951 8898 9746 10000 9371 8041 6526 5187 4147 3334
1510.0 2736 2290 1927 1671 1494 1344 1198 1042 941 877
1550.0 810 727 624 595 588 555 527 524 538 538
1590.0 536 525 490 443 403 360 315 283 270 258
1630.0 250 251 288 320 335 347 385 457 501 551
1670.0 618 698 805 935 1136 1426 1799 2320 3138 4367
1710.0 5995 7717 8799 8513 6889 4843 3161 2086 1480 1093
1750.0 818 648 549 492 464 408 344 305 276 238
1790.0 201 195 186 164 143 127 122 115 118 117
1830.0 112 123 140 141 135 141 137 106 76 70
1870.0 62 56 64 65 69 61 50 64 83 95
1910.0 108 116 123 126 118 104 79 57 31 24
1950.0 24 18 17 15 17 26 27 26 19 13
1990.0 18 17 19 30 13 6 17 17 9 0
2030.0 16 30 22 19 14 12 12 12 27 45
2070.0 42 16 14 19 17 29 37 26 27 41
2110.0 38 35 39 29 28 30 28 21 18 29
2150.0 33 20 13 19 16 9 8 7 18 28
2190.0 24 25 31 35 28 21 8 4 0 4
2230.0 12 22 22 24 31 24 26 19 17 36
2270.0 46 41 41 50 57 45 30 32 26 16
2310.0 25 40 51 43 36 37 25 7 10 21
2350.0 17 25 39 23 11 27 37 40 44 42
2390.0 46 52 56 56 59 75 77 58 57 57
2430.0 65 70 48 46 60 63 61 69 69 52
2470.0 36 25 31 36 33 34 40 44 59 59
2510.0 56 70 78 73 65 57 59 64 74 80
2550.0 76 80 76 72 72 82 96 95 80 97
2590.0 106 86 107 126 123 122 126 109 98 125
2630.0 139 130 137 162 181 174 174 179 175 190
2670.0 214 218 215 214 216 233 246 263 273 270
2710.0 288 320 349 370 382 410 429 435 445 438
2750.0 434 453 468 496 540 560 578 600 656 724
2790.0 782 870 1026 1212 1415 1684 2000 2300 2523 2637
2830.0 2654 2602 2488 2307 2093 1916 1807 1734 1751 1836
2870.0 1907 2017 2148 2238 2287 2266 2203 2154 2152 2181
2910.0 2276 2417 2600 2857 3159 3433 3666 3829 3865 3705
2950.0 3432 3208 3138 3312 3826 4676 5572 5936 5410 4296
2990.0 3149 2284 1741 1408 1235 1146 1108 1135 1154 1169
3030.0 1205 1209 1230 1289 1336 1408 1456 1447 1419 1370
3070.0 1269 1138 1011 850 727 615 507 428 376 328
3110.0 297 296 280 251 228 218 208 201 184 175
3150.0 181 185 184 194 200 195 191 194 208 202
3190.0 183 191 218 198 186 188 184 180 172 161
3230.0 163 191 204 205 218 232 245 241 230 246
3270.0 294 332 349 358 387 458 532 571 579 577
3310.0 611 654 670 689 703 761 848 951 1082 1253
3350.0 1443 1666 1852 1899 1825 1640 1380 1161 988 844
3390.0 763 696 644 580 514 473 438 383 326 310
3430.0 298 283 260 244 225 179 147 115 80 77
3470.0 97 109 98 111 109 84 78 78 81 83
3510.0 67 76 81 51 51 60 31 17 28 36
3550.0 46 55 59 53 20 43 82 37 21 36
3590.0 47 55 49 43 24 3 14 22 37 52
3630.0 18 41 50 39 37 8 10 24 45 47
3670.0 27 1 10 44 26 4 24 30 30 44
3710.0 16 17 53 77 61 75 89 57 57 51
3750.0 17 4 46 62 25 35 64 44 49 68
3790.0 80 52 17 47 73 74 69 43 51 77
3830.0 62 56 61 43 45
##END=
