##TITLE=2,5-Dimethyl-p-benzoquinone
##JCAMP-DX=4.24
##DATA TYPE=INFRARED SPECTRUM
##ORIGIN=NIST Mass Spectrometry Data Center
##OWNER=NIST Standard Reference Data Program
Collection (C) 2018 copyright by the U.S. Secretary of Commerce
on behalf of the United States of America. All rights reserved.
##CAS REGISTRY NO=137-18-8
##MOLFORM=C 8 H 8 O 2
##$NIST SOURCE=MSDC-IR
##SPECTROMETER/DATA SYSTEM=HP-GC/MS/IRD
##STATE=gas
##XUNITS=1/CM
##YUNITS=ABSORBANCE
##XFACTOR=1.0
##YFACTOR=0.000015800
##DELTAX=4.0
##FIRSTX=550.0
##LASTX=3846.0
##FIRSTY=0.000221
##MAXX=3846
##MINX=550
##MAXY=0.158
##MINY=0
##NPOINTS=825
##XYDATA=(X++(Y..Y))
550.0 14 9 4 7 6 2 2 1 2 0
590.0 0 2 2 4 5 6 8 14 13 15
630.0 16 18 25 35 52 68 86 128 169 145
670.0 111 98 83 67 64 78 97 114 120 125
710.0 123 108 86 67 54 45 41 35 32 32
750.0 29 32 33 37 60 95 141 188 219 237
790.0 245 224 181 135 93 63 47 42 45 49
830.0 51 54 54 52 52 50 46 42 44 47
870.0 51 58 77 121 206 352 550 779 1002 1350
910.0 1613 1302 937 769 547 342 199 125 86 68
950.0 59 55 57 62 67 78 93 120 168 251
990.0 378 503 571 588 555 461 329 231 185 162
1030.0 153 151 151 140 124 114 110 105 100 100
1070.0 104 110 118 117 111 108 99 90 87 85
1110.0 89 97 112 143 209 341 580 895 1171 1351
1150.0 1425 1351 1104 810 600 472 390 330 272 219
1190.0 185 172 176 196 242 340 508 776 1169 1674
1230.0 2179 2509 2585 2432 2047 1458 895 565 442 417
1270.0 423 424 408 363 298 224 166 136 132 149
1310.0 188 256 366 529 740 955 1099 1151 1159 1085
1350.0 901 711 589 526 513 554 624 675 698 686
1390.0 614 473 351 300 275 268 283 319 364 409
1430.0 458 520 544 537 519 484 449 390 311 237
1470.0 186 153 133 122 116 112 108 105 103 103
1510.0 106 112 119 127 136 146 155 163 171 177
1550.0 179 180 180 179 179 181 189 205 235 287
1590.0 366 495 692 964 1277 1580 1802 1904 1877 1723
1630.0 1474 1254 1148 1146 1300 1714 2652 4234 6459 8588
1670.0 9751 10000 9441 7577 4776 2728 1617 1020 693 502
1710.0 393 338 316 302 288 270 248 230 217 203
1750.0 186 169 156 146 134 120 106 92 80 69
1790.0 60 52 46 44 42 41 42 43 43 42
1830.0 41 38 35 34 35 33 30 29 28 26
1870.0 25 26 25 22 21 21 20 18 17 17
1910.0 16 14 15 16 18 19 20 23 23 24
1950.0 25 25 23 23 24 26 28 29 30 31
1990.0 30 29 26 23 20 19 14 15 15 14
2030.0 13 14 15 15 14 15 14 14 15 17
2070.0 18 19 21 21 20 19 19 20 18 15
2110.0 13 14 15 15 17 21 25 30 32 34
2150.0 33 31 27 22 16 12 10 8 7 6
2190.0 5 4 5 5 6 7 8 7 7 8
2230.0 10 9 8 8 9 8 7 7 6 7
2270.0 6 6 7 7 8 9 10 13 17 19
2310.0 20 21 21 21 20 19 17 15 15 14
2350.0 14 14 13 10 10 11 10 11 13 12
2390.0 12 13 11 10 11 12 12 13 14 13
2430.0 12 13 15 16 18 20 19 18 19 18
2470.0 16 12 9 7 6 6 5 3 4 6
2510.0 9 9 9 15 19 19 21 22 21 19
2550.0 18 16 12 10 9 8 8 9 10 12
2590.0 13 12 11 12 11 8 8 9 8 7
2630.0 8 7 7 5 5 5 2 0 1 2
2670.0 3 3 4 5 5 6 8 10 9 7
2710.0 7 7 5 7 9 10 10 11 14 14
2750.0 15 17 16 15 16 14 17 19 20 21
2790.0 24 24 24 25 26 29 32 35 39 42
2830.0 46 52 59 71 90 110 125 135 143 145
2870.0 143 142 141 144 148 151 149 145 140 136
2910.0 139 158 199 276 403 538 605 615 593 509
2950.0 380 290 265 277 313 369 389 382 400 420
2990.0 417 400 382 347 294 239 195 169 156 161
3030.0 184 223 268 299 302 296 278 226 168 127
3070.0 101 88 81 78 75 69 62 56 52 46
3110.0 44 39 33 30 28 24 20 18 16 15
3150.0 16 15 13 11 10 10 9 11 13 12
3190.0 11 10 11 12 11 14 15 19 21 21
3230.0 24 27 28 29 29 32 36 37 43 50
3270.0 59 72 89 110 134 159 178 189 189 179
3310.0 159 140 128 126 129 136 140 136 123 107
3350.0 83 61 47 39 31 27 21 15 12 13
3390.0 10 7 8 6 5 8 5 4 5 1
3430.0 3 1 1 3 1 3 3 2 2 3
3470.0 2 1 1 0 0 0 0 1 2 1
3510.0 3 1 0 3 4 4 6 4 2 4
3550.0 3 2 2 2 4 4 0 0 2 1
3590.0 2 2 2 5 4 1 0 3 2 2
3630.0 3 0 2 3 4 5 7 5 4 4
3670.0 2 2 3 5 4 3 4 3 2 1
3710.0 2 5 6 3 4 3 6 7 7 7
3750.0 7 9 11 13 10 5 4 5 6 6
3790.0 6 5 5 6 4 0 1 3 5 8
3830.0 10 8 6 5 6
##END=
