##TITLE=Phenylsuccinonitrile
##JCAMP-DX=4.24
##DATA TYPE=INFRARED SPECTRUM
##ORIGIN=EPA-IR VAPOR PHASE LIBRARY
##OWNER=SRD/NIST
Collection (C) 2018 copyright by the U.S. Secretary of Commerce
on behalf of the United States of America. All rights reserved.
##CAS REGISTRY NO=13706-68-8
##MOLFORM=C 10 H 8 N 2
##$NIST SOURCE=MSDC-IR
##STATE=gas
##XUNITS=1/CM
##YUNITS=ABSORBANCE
##XFACTOR=1.
##YFACTOR=0.001
##DELTAX=3.85796
##FIRSTX=551.7
##LASTX=4000.7
##FIRSTY=1.651
##MAXX=4000.7
##MINX=551.688
##MAXY=0.019211
##MINY=0
##NPOINTS=895
##XYDATA=(X++(Y..Y))
551.688 1.651 2.331 3.131 3.691 3.711 3.421 2.851 2.211 1.651 1.311
590.268 1.251 1.2263 1.351 1.411 1.401 1.481 1.471 1.401 1.261 1.0702
628.847 1.0742 1.351 1.541 1.561 1.561 1.521 1.631 1.851 2.161 2.671
667.427 3.361 4.361 5.561 7.281 10.001 13.231 16.561 19.071 19.211 17.191
706.006 14.021 10.771 8.361 6.711 5.801 5.511 5.531 6.101 7.251 8.721
744.586 10.211 11.161 11.091 9.821 7.791 5.821 4.291 3.261 2.571 2.051
783.165 1.851 1.701 1.401 1.1049 0.9307 0.925 0.9268 0.9265 0.8844 0.8549
821.745 0.8145 0.7132 0.6979 0.7376 0.6948 0.6642 0.6885 0.6547 0.578 0.6207
860.324 0.6445 0.5507 0.5602 0.6145 0.5825 0.6691 0.7959 0.8151 0.933 1.0116
898.904 1.1999 1.401 1.551 1.681 1.641 1.651 1.711 1.711 1.671 1.671
937.484 1.751 1.741 1.561 1.381 1.2216 1.067 0.9637 0.9351 0.9861 1.0323
976.063 1.1156 1.2232 1.281 1.361 1.491 1.711 1.971 2.061 1.911 1.791
1014.643 1.741 1.711 1.941 2.261 2.351 2.221 1.981 1.521 1.1437 0.9774
1053.222 0.9298 0.8842 0.8675 1.0216 1.2357 1.321 1.411 1.461 1.2092 1.0639
1091.802 0.9145 0.799 0.8346 0.8465 0.7679 0.5841 0.4209 0.28762 0.3933 0.3747
1130.381 0.31079 0.32972 0.33497 0.26628 0.128 0.022 0.094 0.27071 0.3679 0.3742
1168.961 0.3638 0.5763 0.7406 0.8884 0.9274 0.855 0.7825 0.8106 0.8218 0.4925
1207.540 0.3551 0.5143 0.595 0.5419 0.4496 0.5413 0.5633 0.4885 0.5947 0.7163
1246.120 0.7792 0.7697 0.8525 0.9144 0.9 0.8948 0.8788 0.8479 0.9141 1.0765
1284.699 1.1316 1.2297 1.381 1.531 1.581 1.541 1.501 1.501 1.521 1.611
1323.279 1.721 1.791 1.841 1.801 1.671 1.501 1.311 1.117 0.9268 0.7936
1361.859 0.7176 0.7048 0.7091 0.7276 0.7526 0.7752 0.7547 0.7111 0.7034 0.7228
1400.438 0.7956 0.9199 1.1046 1.471 2.081 3.031 4.291 5.521 6.461 6.671
1439.018 6.191 5.711 5.461 5.411 5.391 5.051 4.261 3.321 2.551 2.151
1477.597 2.121 2.511 3.381 4.741 6.061 6.641 6.361 5.271 3.591 2.141
1516.177 1.351 1.0531 0.9114 0.8673 0.8191 0.7294 0.6813 0.6629 0.6242 0.5777
1554.756 0.5643 0.5839 0.6055 0.6638 0.75 0.8671 1.0483 1.311 1.651 1.961
1593.336 2.181 2.271 2.171 1.921 1.571 1.222 0.9387 0.7539 0.6069 0.5299
1631.915 0.4713 0.4308 0.4409 0.4264 0.4459 0.4987 0.5648 0.5871 0.5893 0.5623
1670.495 0.4653 0.4357 0.4422 0.3768 0.35015 0.3669 0.3833 0.3753 0.34286 0.3649
1709.075 0.3851 0.3975 0.4138 0.4579 0.493 0.5179 0.5834 0.6397 0.6785 0.6836
1747.654 0.6388 0.5579 0.4662 0.4157 0.4147 0.4141 0.4406 0.5413 0.6746 0.8133
1786.234 0.9987 1.1922 1.311 1.311 1.224 1.0402 0.7936 0.6362 0.5638 0.4954
1824.813 0.4382 0.4278 0.3864 0.3621 0.3913 0.4055 0.4478 0.5237 0.6086 0.7359
1863.393 0.8428 0.9007 0.9507 0.9509 0.9473 0.9657 0.9511 0.8984 0.8209 0.7164
1901.972 0.5995 0.5089 0.4655 0.4436 0.4549 0.4954 0.5523 0.611 0.7044 0.8571
1940.552 1.0038 1.0977 1.1549 1.1517 1.1068 1.0704 1.0426 0.9726 0.8156 0.6519
1979.131 0.4857 0.3928 0.34193 0.27687 0.26409 0.26403 0.256224 0.2171 0.1915 0.2169
2017.711 0.2348 0.24864 0.24617 0.2438 0.24625 0.2293 0.239 0.259849 0.257768 0.2332
2056.291 0.2217 0.2304 0.2053 0.2046 0.2259 0.2145 0.2011 0.2074 0.222 0.24298
2094.870 0.2381 0.2023 0.1902 0.1895 0.2004 0.2171 0.222 0.2072 0.2221 0.251235
2133.450 0.2164 0.1571 0.1745 0.1982 0.1939 0.1796 0.1646 0.1726 0.1796 0.1984
2172.029 0.2028 0.2289 0.1999 0.18 0.2251 0.2223 0.204 0.1807 0.2032 0.251383
2210.609 0.252014 0.2257 0.2074 0.234 0.2256 0.2298 0.26626 0.29886 0.3517 0.3821
2249.188 0.4004 0.4253 0.4422 0.4241 0.3923 0.375 0.3823 0.3601 0.33763 0.31784
2287.768 0.29986 0.31706 0.27506 0.228 0.1951 0.2056 0.30373 0.372 0.3691 0.3926
2326.347 0.4217 0.4007 0.3712 0.3796 0.4332 0.4343 0.4051 0.4278 0.4349 0.4292
2364.927 0.3985 0.3728 0.4042 0.3688 0.3532 0.3577 0.3529 0.33793 0.30361 0.30191
2403.507 0.30998 0.30015 0.30508 0.33138 0.31671 0.29039 0.28186 0.30244 0.30852 0.31451
2442.086 0.32158 0.32664 0.32936 0.32051 0.28694 0.255767 0.27777 0.31185 0.30289 0.2732
2480.666 0.24556 0.2152 0.236 0.254891 0.26549 0.260014 0.2736 0.32273 0.32963 0.29587
2519.245 0.30566 0.31551 0.31334 0.33789 0.29963 0.26989 0.28847 0.29642 0.31293 0.34567
2557.825 0.33549 0.33194 0.33879 0.3596 0.3656 0.3544 0.3721 0.3774 0.3798 0.3795
2596.404 0.3848 0.3622 0.34424 0.3831 0.4053 0.3617 0.31093 0.2805 0.32585 0.3768
2634.984 0.32585 0.28955 0.32171 0.32181 0.27402 0.24873 0.28704 0.30354 0.27398 0.28795
2673.563 0.26668 0.2357 0.2122 0.1809 0.2011 0.2021 0.1636 0.1719 0.1835 0.1579
2712.143 0.1803 0.1952 0.1708 0.148 0.097 0.129 0.2234 0.2365 0.258732 0.26137
2750.722 0.2393 0.28314 0.30681 0.32192 0.3061 0.28981 0.33957 0.31058 0.28967 0.31116
2789.302 0.26249 0.2321 0.2166 0.2359 0.2263 0.1748 0.2211 0.2098 0.1586 0.1892
2827.882 0.2059 0.2167 0.2729 0.31814 0.35069 0.4154 0.3802 0.34953 0.3538 0.34057
2866.461 0.33686 0.28148 0.30133 0.33246 0.26671 0.26726 0.3802 0.3863 0.30338 0.30148
2905.041 0.4084 0.467 0.5042 0.6071 0.806 1.0107 1.1552 1.311 1.461 1.581
2943.620 1.711 1.751 1.551 1.331 1.0379 0.8584 0.958 1.0392 1.0715 1.0109
2982.200 0.9222 0.8015 0.6326 0.5663 0.6505 0.7946 1.0287 1.321 1.601 1.981
3020.779 2.541 3.341 4.341 5.421 6.281 6.571 6.281 5.561 4.761 4.311
3059.359 4.361 5.021 6.231 7.551 8.351 8.421 7.871 6.771 5.571 4.751
3097.938 4.181 3.691 3.211 2.661 2.201 1.831 1.471 1.1245 0.8334 0.6597
3136.518 0.5123 0.386 0.30994 0.27951 0.29306 0.32895 0.3575 0.34802 0.32378 0.3551
3175.098 0.3865 0.4132 0.3958 0.3683 0.31826 0.2311 0.2346 0.27308 0.27947 0.255722
3213.677 0.2321 0.24974 0.28909 0.255352 0.182 0.1723 0.1733 0.1846 0.1982 0.132
3252.257 0.143 0.1737 0.184 0.2294 0.1667 0.2195 0.3176 0.27048 0.2315 0.2117
3290.836 0.2271 0.2081 0.1678 0.136 0.085 0.038 0.069 0.139 0.078 0.024
3329.416 0.052 0.128 0.159 0.1651 0.14 0.114 0.1538 0.139 0.084 0.104
3367.995 0.098 0.04 0.061 0.069 0.094 0.1797 0.2334 0.1817 0.141 0.109
3406.575 0.089 0.085 0.071 0.12 0.128 0.071 0.036 0.056 0.129 0.108
3445.154 0.129 0.2005 0.1652 0.129 0.1559 0.146 0.15 0.1555 0.109 0.074
3483.734 0.057 0.075 0.036 0.008 0.113 0.14 0.041 0.081 0.093 0.041
3522.314 0 0.016 0.109 0.105 0.082 0.104 0.146 0.1763 0.138 0.051
3560.893 0.011 0.061 0.1569 0.1527 0.122 0.1582 0.165 0.1548 0.1608 0.148
3599.473 0.1618 0.142 0.08 0.068 0.06 0.052 0.127 0.1707 0.129 0.151
3638.052 0.144 0.087 0.131 0.2303 0.2169 0.2041 0.2008 0.15 0.104 0.095
3676.632 0.18 0.1988 0.131 0.11 0.068 0.064 0.135 0.1868 0.2028 0.2183
3715.211 0.225 0.2371 0.2435 0.1925 0.15 0.114 0.111 0.136 0.134 0.1547
3753.791 0.115 0.118 0.1656 0.2287 0.28816 0.251432 0.1648 0.112 0.1686 0.2026
3792.370 0.123 0.133 0.148 0.1674 0.1661 0.09 0.122 0.1739 0.1533 0.1773
3830.950 0.2369 0.142 0.101 0.148 0.131 0.106 0.114 0.122 0.089 0.108
3869.530 0.2148 0.1824 0.111 0.1792 0.1882 0.096 0.106 0.147 0.104 0.1688
3908.109 0.2161 0.134 0.135 0.1547 0.1606 0.2072 0.2008 0.1867 0.1912 0.132
3946.689 0.126 0.144 0.111 0.125 0.161 0.2038 0.1672 0.127 0.1963 0.1583
3985.268 0.065 0.049 0.099 0.1588 0.1717
##END=
