##TITLE=1-Phenyl-1-trimethylsilylyloxyethylene
##JCAMP-DX=4.24
##DATA TYPE=INFRARED SPECTRUM
##ORIGIN=EPA-IR VAPOR PHASE LIBRARY
##OWNER=SRD/NIST
Collection (C) 2018 copyright by the U.S. Secretary of Commerce
on behalf of the United States of America. All rights reserved.
##CAS REGISTRY NO=13735-81-4
##MOLFORM=C 11 H 16 O Si
##$NIST SOURCE=MSDC-IR
##STATE=gas
##XUNITS=1/CM
##YUNITS=ABSORBANCE
##XFACTOR=1.
##YFACTOR=0.001
##DELTAX=1.92934
##FIRSTX=549.9
##LASTX=3999.5
##FIRSTY=3.64
##MAXX=3999.53
##MINX=549.863
##MAXY=0.14207
##MINY=0
##NPOINTS=1789
##XYDATA=(X++(Y..Y))
549.863 3.64 3.57 3.97 4.45 4.61 4.7 5.23 5.78 6.51 7.41
569.156 8.22 8.97 9.36 9.69 9.83 9.63 9.36 8.91 8.07 7.21
588.450 6.52 6.1 5.79 5.39 5.01 4.87 4.9 4.73 4.46 4.3
607.743 4.32 4.3 4.29 4.29 4.19 4.18 4.18 4.1 4.12 4.03
627.037 3.94 3.9 3.81 3.74 3.7 3.73 3.77 3.77 3.73 3.83
646.330 4.03 4.1 4.07 4.32 4.68 5.04 5.46 5.79 6.25 6.87
665.624 7.53 8.26 9.13 10.13 11.33 12.67 14.19 15.87 17.84 20.17
684.917 22.63 25.25 27.74 30.13 32.33 33.73 34.48 34.4 33.44 31.91
704.210 30.15 28.25 26.16 24.19 22.39 20.69 19.34 18.11 17.05 16.36
723.504 15.77 15.24 14.74 14.36 14.23 14.27 14.22 14.18 14.49 15.11
742.797 15.74 16.48 17.54 18.79 20.32 22.14 24 25.96 28.12 30.46
762.091 32.82 34.87 36.53 37.61 37.79 36.65 34.37 31.59 28.6 25.59
781.384 22.71 20.17 18.17 16.58 15.41 14.56 14.11 13.91 13.72 13.77
800.678 13.99 14.44 15.08 15.96 17.08 18.26 19.75 21.6 23.68 26
819.971 28.73 31.98 35.67 39.93 44.85 50.55 57.02 64.32 72.55 81.52
839.264 91.01 100.87 110.56 119.59 127.43 133.58 138.11 140.91 142.07 141.83
858.558 140.2 137.05 132.38 126.1 118.33 109.45 99.77 89.75 79.97 70.88
877.851 62.81 56 50.28 45.32 41.07 37.46 34.34 31.65 29.08 26.92
897.145 25.08 23.29 21.76 20.33 19.01 17.89 16.78 15.63 14.58 13.68
916.438 12.79 11.79 10.89 10.11 9.32 8.63 7.95 7.33 6.92 6.46
935.732 6.04 5.72 5.45 5.25 5.01 4.78 4.69 4.62 4.62 4.53
955.025 4.4 4.44 4.42 4.41 4.57 4.68 4.73 4.79 4.92 5.12
974.318 5.27 5.5 5.83 6.17 6.55 7.02 7.56 8.29 9.33 10.55
993.612 12.07 13.87 16.04 18.95 22.78 27.77 34.31 42.54 52.58 64.05
1012.905 75.6 85.78 93.82 99.42 101.96 100.53 94.64 85.5 74.93 64.28
1032.199 54.17 44.59 35.8 28.53 23.09 19.16 16.26 14 12.35 11.11
1051.492 10.29 9.88 9.65 9.68 10 10.67 11.54 12.5 13.47 14.25
1070.786 14.78 14.91 14.73 14.36 13.74 12.92 12.12 11.62 11.44 11.68
1090.079 12.31 13.41 15.25 17.47 20.16 23.41 27.07 31.24 35.8 40.28
1109.372 44.09 46.79 48.12 48.02 46.56 43.78 39.83 35.43 31.1 27
1128.666 23.2 19.96 17.42 15.03 13.01 11.49 10.25 9.24 8.34 7.63
1147.959 7.03 6.41 5.93 5.66 5.4 5.03 4.77 4.66 4.45 4.38
1167.253 4.45 4.35 4.42 4.9 5.35 5.99 6.58 6.63 6.64 6.52
1186.546 6.19 5.33 4.28 3.88 3.54 3.16 3.08 3.33 3.88 4.24
1205.840 4.1 3.87 4.05 4.68 5.15 5.28 5.78 6.03 6.54 7.38
1225.133 8.33 9.57 11.04 12.43 13.83 15.58 17.47 19.74 22.36 25.4
1244.426 28.91 32.58 36.7 41.3 45.5 49.43 52.72 55.38 57.6 58.67
1263.720 58.87 58.46 57.51 56.45 55.7 55.51 55.86 57.01 58.89 61.32
1283.013 64.35 67.99 72.22 76.87 81.93 87.05 91.81 95.68 98.31 99.76
1302.307 100.38 100.72 100.82 100.26 98.56 95.5 90.91 84.8 76.96 67.36
1321.600 56.82 46.66 38.14 31.49 26.44 22.58 19.61 17.3 15.38 13.72
1340.894 12.38 11.44 10.7 10.09 9.63 9.19 8.85 8.61 8.33 8.07
1360.187 7.87 7.72 7.61 7.5 7.38 7.29 7.26 7.26 7.31 7.34
1379.480 7.3 7.28 7.21 7.13 7.03 6.88 6.77 6.74 6.75 6.71
1398.774 6.68 6.67 6.72 6.81 6.82 6.83 6.82 6.72 6.69 6.68
1418.067 6.57 6.51 6.49 6.37 6.26 6.25 6.28 6.34 6.57 6.83
1437.361 7.12 7.45 7.78 7.98 8.04 8.07 7.92 7.65 7.31 6.9
1456.654 6.55 6.26 6.04 5.89 5.81 5.7 5.56 5.51 5.54 5.68
1475.948 6.03 6.48 6.93 7.58 8.32 9.04 9.72 10.22 10.48 10.41
1495.241 10.11 9.64 8.98 8.06 7.08 6.18 5.35 4.79 4.44 4.13
1514.534 3.89 3.75 3.7 3.57 3.46 3.54 3.6 3.63 3.69 3.7
1533.828 3.74 3.87 3.97 4 4.17 4.4 4.6 4.83 5.1 5.4
1553.121 5.7 6 6.37 6.84 7.47 8.12 8.74 9.39 9.99 10.53
1572.415 10.93 11.19 11.33 11.45 11.52 11.45 11.47 11.64 11.92 12.48
1591.708 13.37 14.42 15.57 16.82 18.28 19.88 21.55 23.33 25.09 26.83
1611.002 28.66 30.42 31.91 33.13 34 34.3 34.03 33.27 31.96 30.11
1630.295 27.81 25.26 22.7 20.21 17.99 15.99 14.22 12.7 11.35 10.3
1649.588 9.47 8.61 7.78 7.37 7.01 6.52 6.08 5.68 5.38 5.12
1668.882 4.8 4.59 4.5 4.33 4.22 4.19 4.15 4.04 3.91 3.97
1688.175 3.94 3.79 3.69 3.52 3.32 3.22 3.15 3.05 2.96 2.88
1707.469 2.89 2.83 2.68 2.73 2.66 2.55 2.5641 2.4747 2.3727 2.3012
1726.762 2.3031 2.3731 2.4028 2.3662 2.3481 2.4151 2.483 2.4829 2.4984 2.5296
1746.056 2.5292 2.5077 2.4211 2.3717 2.3091 2.1786 2.0681 1.966 1.9302 1.8744
1765.349 1.8047 1.7786 1.7382 1.63657 1.58375 1.63109 1.7558 1.8944 1.9064 1.9386
1784.642 2.0528 2.2228 2.364 2.492 2.71 2.81 2.85 2.84 2.68 2.62
1803.936 2.5271 2.3724 2.1801 1.9553 1.8281 1.7684 1.7243 1.7211 1.7336 1.7051
1823.229 1.64593 1.62091 1.57607 1.465 1.436 1.479 1.472 1.451 1.458 1.46
1842.523 1.443 1.401 1.419 1.5035 1.5259 1.5341 1.63082 1.7229 1.7521 1.7897
1861.816 1.8199 1.8428 1.9181 2.0105 2.0626 2.1784 2.301 2.322 2.3809 2.4745
1881.110 2.4993 2.5465 2.62 2.64 2.59 2.5314 2.4701 2.3629 2.2372 2.0822
1900.403 1.947 1.8088 1.7109 1.62927 1.5407 1.5304 1.5692 1.5131 1.5055 1.57417
1919.696 1.5991 1.61396 1.67186 1.7327 1.7549 1.8863 2.0828 2.2425 2.3507 2.4704
1938.990 2.6 2.65 2.69 2.76 2.74 2.72 2.72 2.72 2.67 2.5486
1958.283 2.4215 2.339 2.1905 2.0629 1.974 1.795 1.6885 1.64104 1.63392 1.57229
1977.577 1.4864 1.4978 1.5192 1.516 1.5476 1.4972 1.401 1.416 1.451 1.429
1996.870 1.442 1.475 1.5128 1.548 1.5352 1.57307 1.57293 1.534 1.529 1.5188
2016.164 1.4921 1.4958 1.5057 1.425 1.39 1.44 1.434 1.401 1.414 1.383
2035.457 1.322 1.265 1.261 1.247 1.194 1.259 1.25 1.165 1.083 1.088
2054.750 1.161 1.124 1.114 1.139 1.08 1.047 1.05 1.065 1.086 1.042
2074.044 1.03 1.037 1.033 1.067 1.111 1.103 1.067 1.075 1.068 1.036
2093.337 1.066 1.157 1.155 1.149 1.209 1.216 1.192 1.131 1.1 1.135
2112.631 1.139 1.161 1.196 1.186 1.183 1.161 1.132 1.156 1.132 1.105
2131.924 1.118 1.08 1.059 1.036 0.978 0.971 0.939 0.908 0.927 0.915
2151.218 0.933 0.991 0.972 0.905 0.892 0.946 0.992 0.998 0.952 0.898
2170.511 0.893 0.855 0.831 0.865 0.847 0.822 0.838 0.818 0.833 0.859
2189.804 0.842 0.798 0.797 0.844 0.814 0.782 0.829 0.881 0.848 0.833
2209.098 0.858 0.834 0.835 0.82 0.834 0.906 0.837 0.805 0.829 0.802
2228.391 0.846 0.853 0.794 0.783 0.768 0.75 0.809 0.816 0.77 0.817
2247.685 0.882 0.862 0.823 0.836 0.817 0.791 0.811 0.807 0.83 0.868
2266.978 0.819 0.79 0.84 0.873 0.873 0.867 0.856 0.871 0.908 0.926
2286.272 0.939 0.92 0.924 0.951 0.984 1.032 1.051 1.001 0.958 1.001
2305.565 1.111 1.158 1.13 1.138 1.206 1.245 1.211 1.121 1.026 1.055
2324.858 1.114 1.1 1.024 0.915 0.878 0.937 0.932 0.889 0.927 0.89
2344.152 0.868 0.884 0.856 0.84 0.788 0.738 0.762 0.743 0.715 0.691
2363.445 0.642 0.635 0.64 0.663 0.672 0.758 0.785 0.738 0.783 0.802
2382.739 0.781 0.777 0.834 0.887 0.855 0.854 0.866 0.818 0.771 0.806
2402.032 0.872 0.822 0.805 0.853 0.859 0.868 0.874 0.805 0.755 0.799
2421.326 0.827 0.777 0.679 0.661 0.687 0.765 0.795 0.743 0.713 0.715
2440.619 0.724 0.658 0.666 0.69 0.643 0.613 0.629 0.586 0.57 0.661
2459.912 0.675 0.655 0.628 0.587 0.599 0.61 0.628 0.617 0.56 0.601
2479.206 0.644 0.64 0.609 0.631 0.665 0.636 0.613 0.653 0.693 0.693
2498.499 0.649 0.648 0.72 0.723 0.695 0.733 0.719 0.633 0.649 0.68
2517.793 0.656 0.621 0.581 0.587 0.649 0.595 0.54 0.55 0.54 0.56
2537.086 0.53 0.57 0.632 0.57 0.582 0.58 0.53 0.588 0.618 0.53
2556.380 0.53 0.64 0.616 0.587 0.602 0.674 0.754 0.684 0.68 0.726
2575.673 0.676 0.696 0.696 0.66 0.676 0.726 0.729 0.716 0.768 0.773
2594.966 0.793 0.8 0.745 0.707 0.781 0.871 0.793 0.722 0.748 0.794
2614.260 0.775 0.668 0.635 0.663 0.675 0.681 0.697 0.686 0.658 0.663
2633.553 0.62 0.605 0.57 0.604 0.655 0.672 0.671 0.601 0.55 0.51
2652.847 0.594 0.633 0.58 0.53 0.52 0.585 0.626 0.607 0.57 0.587
2672.140 0.54 0.53 0.57 0.51 0.53 0.53 0.43 0.45 0.48 0.55
2691.434 0.639 0.53 0.49 0.47 0.47 0.48 0.46 0.5 0.54 0.5
2710.727 0.48 0.53 0.52 0.52 0.54 0.582 0.619 0.58 0.55 0.597
2730.020 0.57 0.54 0.581 0.637 0.662 0.627 0.624 0.597 0.54 0.64
2749.314 0.689 0.655 0.645 0.654 0.677 0.63 0.657 0.828 0.889 0.792
2768.607 0.827 0.843 0.853 0.889 0.865 0.968 1.013 0.852 0.878 1.034
2787.901 1.02 1.014 1.105 1.124 1.188 1.369 1.361 1.281 1.346 1.412
2807.194 1.434 1.396 1.397 1.4993 1.5659 1.5105 1.479 1.388 1.263 1.371
2826.488 1.5399 1.6054 1.61264 1.66977 1.7384 1.7622 1.7565 1.7471 1.833 2.0178
2845.781 2.0539 2.0077 2.1198 2.2113 2.089 1.9986 2.2681 2.3481 2.2118 2.3455
2865.074 2.5284 2.5372 2.59 2.67 2.76 2.98 2.96 3.03 3.23 3.39
2884.368 3.57 3.72 4.09 4.51 4.71 5.13 5.6 5.95 6.49 6.85
2903.661 7.16 7.35 7.34 7.39 7.25 6.94 6.59 6.18 5.86 5.48
2922.955 5.05 4.75 4.59 4.5 4.51 4.65 4.76 4.94 5.29 5.9
2942.248 6.69 7.57 8.65 10.06 11.81 13.79 16.17 18.86 21.66 24.32
2961.542 26.38 27.77 28.18 27.63 26.38 24.54 22.22 19.74 17.42 15.15
2980.835 13.16 11.5 9.99 8.55 7.5 6.68 5.91 5.24 4.71 4.4
3000.128 4.12 4.03 3.95 3.8 4.02 4.35 4.39 4.53 4.89 5.22
3019.422 5.65 6.11 6.49 6.97 7.57 8.04 8.65 9.44 9.96 10.24
3038.715 10.58 10.64 10.45 10.51 10.51 10.54 10.81 11.29 11.99 13.05
3058.009 14.22 15.47 16.93 18.2 18.93 19.12 19.1 18.68 17.83 16.94
3077.302 15.92 14.61 13.64 13.05 12.53 12.24 11.93 11.45 10.84 9.98
3096.596 9.3 8.71 8.02 7.68 7.42 7.08 6.86 6.66 6.47 6.37
3115.889 6.64 7.07 7.42 7.72 7.76 7.47 7.04 6.27 5.35 4.37
3135.182 3.41 2.71 2.2471 1.9924 1.7327 1.5683 1.405 1.36 1.42 1.26
3154.476 1.141 1.047 1.07 0.964 0.826 0.7 0.49 0.717 0.819 0.56
3173.769 0.39 0.39 0.57 0.696 0.54 0.35 0.37 0.45 0.36 0.31
3193.063 0.33 0.47 0.44 0.27 0.38 0.47 0.41 0.56 0.598 0.42
3212.356 0.42 0.45 0.55 0.54 0.36 0.36 0.53 0.29 0 0.07
3231.650 0.2 0.37 0.36 0.28 0.3 0.32 0.24 0.26 0.24 0.11
3250.943 0.2 0.32 0.34 0.21 0.3 0.42 0.41 0.33 0.24 0.14
3270.236 0.07 0.19 0.2 0.24 0.34 0.31 0.19 0.21 0.3 0.16
3289.530 0.05 0.18 0.26 0.29 0.16 0.04 0.16 0.28 0.24 0.33
3308.823 0.36 0.25 0.29 0.2 0.3 0.41 0.43 0.52 0.42 0.23
3328.117 0.16 0.17 0.26 0.34 0.22 0.34 0.672 0.621 0.46 0.5
3347.410 0.46 0.31 0.28 0.53 0.586 0.35 0.2 0.25 0.41 0.27
3366.704 0.13 0.33 0.43 0.43 0.592 0.588 0.54 0.49 0.38 0.36
3385.997 0.26 0.26 0.48 0.53 0.38 0.13 0.2 0.49 0.5 0.53
3405.290 0.582 0.51 0.49 0.52 0.53 0.636 0.57 0.49 0.52 0.56
3424.584 0.52 0.45 0.644 0.63 0.662 0.627 0.52 0.52 0.48 0.51
3443.877 0.598 0.53 0.48 0.54 0.54 0.52 0.54 0.56 0.53 0.54
3463.171 0.49 0.49 0.52 0.38 0.29 0.43 0.57 0.779 0.629 0.4
3482.464 0.39 0.44 0.612 0.648 0.672 0.66 0.644 0.747 0.796 0.759
3501.758 0.641 0.677 0.741 0.51 0.603 0.707 0.641 0.784 0.949 0.85
3521.051 0.789 0.826 0.633 0.56 0.708 0.852 0.804 0.932 0.996 0.866
3540.344 0.872 0.901 0.776 0.744 0.845 0.805 0.832 0.893 0.779 0.601
3559.638 0.724 0.889 0.784 0.683 0.776 0.876 0.789 0.792 0.851 0.921
3578.931 1.012 0.913 1.021 1.116 0.914 0.731 0.64 0.814 1.024 1.024
3598.225 1.087 0.99 0.888 0.979 1.044 1.041 0.974 0.976 0.934 0.943
3617.518 1.081 1.129 1.054 1.037 1.073 1.082 1.148 1.109 0.919 0.886
3636.812 1.08 1.251 1.362 1.376 1.327 1.273 1.082 0.928 1.092 1.255
3656.105 1.256 1.272 1.281 1.402 1.392 1.315 1.318 1.345 1.209 1.234
3675.398 1.268 1.158 1.205 1.202 1.183 1.095 1.087 1.015 1.002 1.08
3694.692 1.107 1.136 1.124 1.241 1.295 1.21 1.184 1.265 1.262 1.097
3713.985 1.05 1.048 1.113 1.138 1.162 1.2 1.086 1.046 1.11 1.226
3733.279 1.301 1.254 1.313 1.281 1.171 1.22 1.15 1.054 1.09 1.229
3752.572 1.238 1.173 1.256 1.337 1.359 1.418 1.365 1.24 1.262 1.323
3771.866 1.344 1.228 1.119 1.215 1.22 1.185 1.125 1.137 1.183 1.08
3791.159 1.097 1.047 1.153 1.278 1.248 1.177 1.092 1.034 0.973 0.98
3810.452 0.96 0.965 1.059 1.205 1.174 1.082 1.1 1.139 1.176 1.155
3829.746 1.214 1.167 1.04 0.949 0.921 1.081 1.112 0.951 0.912 0.957
3849.039 0.974 0.9 0.819 0.793 0.853 0.886 0.849 0.781 0.57 0.672
3868.333 0.755 0.658 0.776 0.86 0.824 0.913 0.931 0.735 0.77 0.935
3887.626 0.889 0.826 0.803 0.729 0.791 0.768 0.683 0.76 0.906 1.004
3906.920 0.915 0.798 0.724 0.638 0.63 0.729 0.796 0.77 0.702 0.81
3926.213 0.856 0.783 0.834 0.801 0.778 0.733 0.709 0.608 0.614 0.855
3945.506 0.79 0.647 0.716 0.761 0.767 0.71 0.751 0.709 0.706 0.9
3964.800 0.747 0.56 0.641 0.665 0.598 0.763 0.853 0.749 0.809 0.851
3984.093 0.952 0.874 0.631 0.655 0.734 0.852 0.842 0.698 0.749
##END=
