##TITLE=6-Chlorothiochroman-4-one
##JCAMP-DX=4.24
##DATA TYPE=INFRARED SPECTRUM
##ORIGIN=EPA-IR VAPOR PHASE LIBRARY
##OWNER=SRD/NIST
Collection (C) 2018 copyright by the U.S. Secretary of Commerce
on behalf of the United States of America. All rights reserved.
##CAS REGISTRY NO=13735-12-1
##MOLFORM=C 9 H 7 Cl O S
##$NIST SOURCE=MSDC-IR
##STATE=gas
##XUNITS=1/CM
##YUNITS=ABSORBANCE
##XFACTOR=1.
##YFACTOR=0.001
##DELTAX=1.92898
##FIRSTX=549.8
##LASTX=4000.7
##FIRSTY=17.09
##MAXX=4000.7
##MINX=549.759
##MAXY=0.15746
##MINY=0
##NPOINTS=1790
##XYDATA=(X++(Y..Y))
549.759 17.09 17.62 16.23 15.34 13.58 10.63 8.2 6.65 6.19 6.5
569.049 5.88 5.2 4.34 3.75 4.76 6.36 7.85 8.55 9.91 10.35
588.339 9.68 9.61 9.03 8.11 6.81 5.08 4.1 4.72 4.85 3.82
607.628 3.22 2.97 2.94 3.04 2.59 2.0478 2.98 3 2.72 3.45
626.918 3.4 2.49 2.48 2.94 2.86 2.92 2.73 2.41 2.34 2.61
646.208 2.82 2.89 3.02 3.55 4.04 3.84 3.3 3.42 3.66 3.37
665.498 2.89 2.79 2.94 3.11 3.23 3.3 3.32 3.15 3.2 3.53
684.787 3.51 2.81 2.32 2.63 2.98 3.04 2.78 2.55 2.43 2.45
704.077 2.88 2.92 2.83 2.7 2.47 2.1116 2.34 2.95 3.01 2.91
723.367 2.9 3.6 4.51 4.2 3.33 3.59 3.83 3.72 3.56 3.35
742.657 3.02 2.84 3.12 3.29 3.18 2.95 3.18 3.31 3.18 3.15
761.947 3.07 3.28 3.67 3.31 3.22 3.67 3.45 2.84 2.67 3.51
781.236 4.11 4.18 4.32 4.82 6.11 7.7 9.25 11.27 14.38 18.37
800.526 23.5 29.65 36.67 42.63 46.09 48.3 49.31 50.12 48.26 38.49
819.816 28.19 23.21 19.41 15.5 12 9.13 6.63 4.75 4.48 4.63
839.106 4.18 4.1 4.38 4.76 4.99 5.23 6 6.34 6.19 6.17
858.395 5.49 4.77 4.53 4 3.52 3.69 3.64 3.31 3.15 2.84
877.685 2.71 2.65 2.52 2.92 3.26 3.48 4.32 4.87 5.79 7.29
896.975 8.33 9.49 10.35 10.85 11.02 10.31 10.06 9.44 8.44 7.06
916.265 5.28 4.28 3.91 3.43 2.8 2.42 2.16 1.8978 1.9427 1.9355
935.555 2.31 2.51 2.24 2.0231 1.7801 2.33 3.01 2.97 3.65 4.55
954.844 4.45 4.95 5.15 5.08 4.92 4.86 4.93 4.62 4.32 3.87
974.134 3.43 2.32 2.27 2.61 2.54 2.84 3.2 3.72 3.84 4.13
993.424 4.53 5.07 5.52 5.72 5.27 4.77 5.01 4.73 3.82 3.45
1012.714 3.01 2.92 2.87 2.96 3.2 2.54 2.79 3.29 3.56 3.53
1032.003 4.34 5.59 6.72 8.74 10.16 11.4 13.99 16.07 15.56 14.71
1051.293 15.08 14.5 12.69 12.44 11.27 8.34 7.25 6.92 6.79 7.28
1070.583 8.13 7.92 8.74 10.13 10.76 13.15 16.28 19.76 22.72 27.96
1089.873 36.32 42.95 49.2 52.58 54.24 55.71 53.05 47.01 38.25 30.52
1109.163 24.02 20.23 18.62 17.28 16.17 14.85 14.26 14.25 13.64 13.84
1128.452 12.82 12.32 12.67 12.45 13.01 12.85 11.97 11.15 10.92 10.62
1147.742 10.82 11.81 11.99 11.64 11.79 12.93 14.37 17.7 22.77 28.32
1167.032 35.85 43.25 50.41 56.35 59.97 60.36 59.04 54.86 47.41 40.78
1186.322 33.38 25.39 21.16 18.36 14.76 13.64 12.86 12.52 12.47 11.13
1205.611 11.64 13.17 14.97 16.28 16.63 19.87 22.64 23.7 25.06 24.99
1224.901 26.62 27.62 26.13 25.35 23.79 21.44 19.77 19.23 21.44 25.81
1244.191 31.98 40.22 46.84 49.96 50.77 50.12 48.33 43.85 36.47 30.35
1263.481 27.1 26.44 28.79 32.3 37.35 44.39 52.73 62.89 73.59 82
1282.771 86.67 87.04 83.5 76.52 66.31 53.14 38.82 27.16 19.59 15.75
1302.060 14.05 13.43 13.88 15.03 16.7 18.3 19.45 20.07 20.11 19.42
1321.350 17.95 15.89 13.37 10.85 8.85 7.39 6.51 5.93 5.51 5.46
1340.640 5.24 5.2 5.36 5.35 5.45 5.64 5.87 6.05 6.23 6.32
1359.930 6.56 6.97 7.75 8.74 9.86 11.4 13.12 15.18 17.75 21.15
1379.219 25.67 31.09 37.18 43.3 48.32 51.36 52.7 52.28 49.71 44.8
1398.509 38.49 32.32 27.87 25.42 24.55 24.22 23.91 23.82 23.75 23.06
1417.799 21.84 20.26 18.79 17.51 16.61 16.47 17.07 18.43 20.65 23.56
1437.089 27.13 31 35.25 40.13 45.81 51.74 57.12 61.47 64.79 66.34
1456.378 65.92 64.05 60.31 55.25 49.57 43.54 37.48 31.48 25.95 21.1
1475.668 17.31 13.71 10.74 8.76 7.68 6.66 5.87 5.88 5.84 5.43
1494.958 5.1 4.76 4.58 4.3 3.89 3.52 3.26 3.37 3.39 3.21
1514.248 3.14 3.15 3.06 2.9 2.83 2.81 2.79 3.1 3.51 3.38
1533.538 3.2 3.22 3.4 3.86 3.94 3.75 3.82 3.93 3.9 3.83
1552.827 3.78 3.95 4.15 4.46 4.99 5.45 5.75 6.23 7.32 8.45
1572.117 9.92 11.47 12.46 13.23 14.03 14.48 14.78 14.36 13.32 12.54
1591.407 11.32 9.88 8.45 7.1 6.32 5.69 5.3 4.93 4.63 4.65
1610.697 4.69 5.06 5.41 5.67 6.22 6.38 6.55 6.99 7.36 7.95
1629.986 8.14 7.7 7.73 7.75 7.64 7.61 7.35 7.25 7.51 8.21
1649.276 8.78 8.91 9.33 9.6 9.86 10.23 10.2 10.15 10.16 10.42
1668.566 11.05 11.65 12.27 13.22 14.51 15.77 18.02 21.08 24.9 30.09
1687.856 36.99 46.38 58.56 73.37 92.57 113.35 131.04 145.36 152.08 155.86
1707.146 157.46 153.04 139.03 119.08 97.89 78.02 60.15 46.28 35.64 27.85
1726.435 22.16 18.2 15.51 13.62 12.19 10.82 9.68 8.79 8.18 7.82
1745.725 7.47 7.34 7.57 7.67 7.82 8.13 8.21 8.02 7.76 7.31
1765.015 6.88 6.51 6.01 5.58 5.17 4.83 4.51 4.22 4.21 4.1
1784.305 3.95 3.8 3.81 3.82 3.73 3.84 3.93 4.12 4.31 4.06
1803.594 4.1 4.25 4.03 4.05 3.87 3.55 3.41 3.35 3.34 3.19
1822.884 3.01 2.78 2.61 2.58 2.56 2.56 2.46 2.4 2.45 2.48
1842.174 2.48 2.4 2.63 2.83 2.9 2.86 2.68 2.57 2.44 2.47
1861.464 2.58 2.58 2.69 2.61 2.4 2.4 2.56 2.45 2.33 2.48
1880.754 2.46 2.4 2.85 3.18 3.23 3.58 3.76 3.86 3.91 3.7
1900.043 3.53 3.63 3.56 3.32 3.15 2.83 2.62 2.5 2.28 2.14
1919.333 2.0978 2.1143 2.1012 1.921 1.9232 1.9372 1.8451 1.6916 1.6422 1.8061
1938.623 1.7984 1.754 1.7396 1.6878 1.5562 1.6323 1.8996 1.8093 1.6554 1.6129
1957.913 1.5946 1.6942 1.5385 1.5543 1.7141 1.5087 1.5868 1.681 1.6333 1.685
1977.202 1.5832 1.6264 1.7582 1.6428 1.672 1.6323 1.3838 1.3503 1.4835 1.3661
1996.492 1.3024 1.4918 1.4589 1.3492 1.3055 1.5208 1.68 1.8275 1.8345 1.6157
2015.782 1.4601 1.4326 1.4057 1.2666 1.2891 1.2374 1.12207 1.2682 1.2989 1.14423
2035.072 1.15702 1.2932 1.4512 1.4438 1.431 1.3407 1.3147 1.4089 1.4747 1.5796
2054.362 1.365 1.19168 1.20422 1.2945 1.4631 1.3979 1.239 1.22435 1.3833 1.489
2073.651 1.4467 1.3245 1.305 1.4379 1.4012 1.4121 1.5152 1.5856 1.5769 1.5061
2092.941 1.3464 1.2606 1.4065 1.3449 1.2728 1.22668 1.2685 1.20811 1.18579 1.3242
2112.231 1.252 1.17062 1.19927 1.21796 1.3883 1.4715 1.2771 1.18739 1.3707 1.441
2131.521 1.15506 1.22363 1.2252 1.0425 1.19051 1.5332 1.6779 1.5505 1.3483 1.17895
2150.810 1.1037 1.20431 1.20489 1.015 1.0558 1.005 0.903 1.0492 1.0714 0.903
2170.100 1.0955 1.1129 1.2763 1.311 1.0617 1.2049 1.1111 1.0354 1.19706 1.382
2189.390 1.5157 1.6073 1.5288 1.2628 1.18071 1.12609 1.1128 1.18628 1.16155 1.13906
2208.680 1.15703 1.0628 1.15545 1.20443 1.017 1.12789 1.3841 1.4966 1.3991 1.337
2227.970 1.422 1.3326 1.12197 1.236 1.15487 1.1178 1.3603 1.4237 1.399 1.4181
2247.259 1.20412 1.0483 1.2493 1.0689 1.2374 1.3956 1.2065 1.5563 1.6738 1.4577
2266.549 1.4293 1.5505 1.3873 1.3496 1.5157 1.3926 1.3603 1.4405 1.3283 1.2707
2285.839 1.529 1.5843 1.2797 1.12935 1.2719 1.14723 1.026 1.18856 1.0743 0.732
2305.129 0.831 1.18444 1.17599 1.13396 1.12944 1.2858 1.17301 0.929 0.88 0.739
2324.418 0.98 1.0566 0.841 0.764 0.973 1.3232 1.266 1.16419 1.1074 1.0481
2343.708 1.22744 1.13196 1.2044 1.4659 1.4547 1.4488 1.3278 1.2875 1.2884 1.2953
2362.998 1.22318 1.0782 1.2989 1.5805 1.4522 1.3198 1.1034 1.004 1.3766 1.4129
2382.288 1.1043 1.022 1.087 1.013 1.15407 1.3321 1.0956 0.876 1.015 1.2216
2401.578 1.20561 1.21175 1.1179 0.95 1.19566 1.4895 1.4442 1.12065 0.909 1.12438
2420.867 1.3341 1.22849 0.89 0.774 0.863 1.16839 1.2768 0.939 0.971 1.18294
2440.157 1.1155 0.833 0.78 0.876 1.002 1.14084 1.1004 1.0771 1.19049 1.3179
2459.447 1.019 0.57 0.703 0.832 0.886 0.932 0.809 0.761 0.616 0.554
2478.737 0.824 0.952 0.803 0.969 1.007 0.833 0.848 1.001 0.945 0.902
2498.026 1.2637 1.15663 0.951 1.0582 0.716 0.671 0.925 0.77 1.012 1.3404
2517.316 1.2987 1.13917 0.942 0.916 0.945 0.973 1.18947 1.3943 1.2911 1.3432
2536.606 1.6004 1.3106 1.4122 1.7132 1.337 1.019 0.761 0.851 1.21954 1.4433
2555.896 1.4483 1.3664 1.2443 1.2671 1.2907 1.3331 1.2402 1.107 1.0348 0.651
2575.186 0.667 0.805 0.74 1.0615 1.15173 0.864 0.643 0.482 0.977 1.3669
2594.475 1.0386 0.65 0.801 1.15241 0.991 0.888 0.921 0.938 0.928 0.875
2613.765 0.961 1.16247 0.967 0.887 0.955 0.935 0.759 0.739 0.934 0.827
2633.055 0.82 0.754 0.711 0.604 0.663 0.773 0.746 0.976 0.967 0.708
2652.345 0.597 0.448 0.719 0.787 0.63 0.844 1.0751 1.17396 1.0761 1.12907
2671.634 1.21787 1.2789 1.12141 0.819 0.81 0.889 0.871 0.871 0.853 0.832
2690.924 0.813 0.625 0.645 0.912 1.0775 0.902 0.814 1.329 1.3318 1.005
2710.214 0.86 0.679 0.777 0.951 1.1164 0.951 0.946 1.12427 0.777 0.549
2729.504 0.436 0.545 0.83 0.689 0.438 0.518 0.569 0.534 0.75 1.0593
2748.794 1.027 0.984 1.0788 0.997 1.0951 0.723 0.575 0.982 0.894 0.694
2768.083 0.805 0.837 1.1221 1.2515 0.955 1.0678 1.5643 1.5852 1.1151 0.972
2787.373 0.822 0.715 1.16961 1.4126 1.022 1.0307 1.1792 1.3353 1.6552 1.5475
2806.663 1.5183 1.53 1.446 1.4873 1.5436 1.3414 1.3123 1.5589 1.5679 1.6585
2825.953 2.0087 1.8905 1.41 1.3678 1.6248 2.0998 2.33 2.83 3.44 3.7
2845.242 4.02 4.15 4.34 4.56 4.79 4.64 3.94 3.52 3.48 3.23
2864.532 2.55 2.33 2.3 1.8912 1.6298 1.4909 1.4663 1.2489 1.13612 1.391
2883.822 1.8516 2.23 2.0416 1.6507 2.0333 2.77 3.06 3.37 3.81 4.73
2903.112 5.32 5.91 6.71 7.22 7.69 8.14 8.76 9.43 10.66 11.93
2922.401 13.39 15.25 16.79 17.56 16.76 15.31 13.77 12.05 9.67 7.69
2941.691 7.36 7.06 6.68 6.89 7.54 8.59 10.35 12.39 13.82 14.92
2960.981 15.81 16.56 17.17 17.45 17.37 16.07 14.14 12.48 11.03 9.03
2980.271 6.43 4.25 2.72 2.4 2.16 1.6328 1.8104 1.882 2.0239 1.9296
2999.561 1.875 1.9063 1.8489 2.33 1.8875 1.4461 1.9376 1.6939 1.85 2.17
3018.850 1.8852 1.6504 1.5301 1.4353 0.976 1.2554 1.9342 1.8236 1.4561 1.5397
3038.140 1.4394 1.3166 1.572 1.638 1.7615 2.0743 2.14 2.31 3.16 4.11
3057.430 4.83 5.35 5.47 5.92 6.18 6.09 6.38 6.4 5.81 5.22
3076.720 4.73 4.39 4.13 3.85 3.66 3.73 3.88 3.06 2.34 2.029
3096.009 1.526 1.4953 1.6768 1.4968 0.995 0.585 0.501 0.726 1.2665 1.7888
3115.299 1.21242 0.793 1.023 0.826 0.84 1.16639 1.15107 0.876 1.3273 1.4623
3134.589 1.14335 1.3655 1.4715 1.5615 1.4933 1.21136 1.18935 1.002 1.0907 0.968
3153.879 0.87 0.907 1.1448 0.866 0.337 1.016 1.16999 0.851 1.2729 1.3351
3173.169 0.868 0.772 0.897 1.2435 1.1152 0.883 1.0815 1.13698 0.878 0.65
3192.458 0.951 1.0508 1.16504 0.826 0.479 1.16111 1.3812 0.597 0.247 0.717
3211.748 0.775 0.447 0.44 0.704 0.444 0.782 1.3262 1.2687 0.849 0.664
3231.038 0.704 0.491 0.622 0.739 1.0497 1.18771 0.981 0.965 0.966 0.879
3250.328 0.786 0.945 1.2028 1.004 1.027 0.888 0.679 0.901 0.841 1.1068
3269.617 1.22183 0.943 0.94 0.774 0.629 0.901 1.0473 0.68 0.897 1.18815
3288.907 0.609 0.549 0.784 0.994 0.749 0.692 0.73 0.605 0.711 0.721
3308.197 1.0736 1.2482 1.102 1.0354 1.354 1.653 1.4836 0.977 0.836 0.93
3327.487 0.495 0.377 0.912 1.021 1.0972 1.272 1.5092 1.5751 1.20266 1.19378
3346.777 1.6587 2.0337 1.357 0.9 1.4716 1.8963 1.7468 1.0437 1.0519 1.3304
3366.066 1.0709 1.2608 1.2358 1.3092 2.23 2.81 2.93 2.75 2.52 2.61
3385.356 3.45 4.05 3.5 2.95 3.28 3.86 3.58 2.61 2.3 2.48
3404.646 2.39 2.33 1.7545 1.8439 1.9437 1.661 1.8904 1.7675 1.5469 1.4297
3423.936 1.3327 1.2898 0.92 1.21304 1.6234 1.14484 1.2506 1.7874 1.2586 0.57
3443.225 0.969 1.6568 1.6764 1.5766 1.6794 1.3472 1.2784 1.3072 1.3186 1.20738
3462.515 0.965 0.941 0.948 0.859 0.902 0.692 0.461 0.561 0.827 1.3682
3481.805 1.5037 1.7418 1.6505 1.2948 1.4567 1.4923 1.18944 1.2809 0.916 0.498
3501.095 0.709 0.795 1.20125 1.558 1.5196 1.14731 1.0552 1.19202 0.792 0.376
3520.385 0.634 1.3961 1.7394 0.99 0.21 0.355 0.837 1.20869 1.2456 1.1165
3539.674 1.21751 1.481 1.22031 1.0567 1.0555 1.0746 1.4953 1.5003 1.19391 0.796
3558.964 0.632 0.75 0.92 1.018 1.102 1.2079 1.19734 1.0863 0.936 0.977
3578.254 1.0628 1.014 0.901 0.757 0.319 0.729 1.5884 1.8761 1.591 1.3608
3597.544 1.9147 1.9712 1.5785 1.2995 1.0737 0.742 1.016 1.4553 1.381 1.12922
3616.833 1.4316 2.007 1.5787 1.1124 1.3523 1.6905 1.4752 1.002 0.937 0.837
3636.123 0.734 1.1076 1.006 1.038 1.023 0.749 1.3847 1.2456 1.13383 1.7345
3655.413 1.3537 1.20894 1.20097 1.0808 0.99 1.0533 1.7547 1.9493 1.4432 0.763
3674.703 0.668 1.3302 1.803 1.915 1.7246 1.3013 1.4048 1.4852 1.15975 1.3897
3693.993 1.7163 1.7213 1.9125 1.7896 1.15703 0.778 0.86 1.17125 1.0445 1.20413
3713.282 1.1403 1.2402 2.0884 2.18 1.6096 1.0973 1.16761 1.3038 1.6771 1.3035
3732.572 0.861 1.3513 1.026 0.905 1.055 0.77 0.603 0.845 1.2981 1.6759
3751.862 1.488 1.1155 1.545 1.2984 0.356 0.717 0.925 1.028 1.6257 1.4269
3771.152 1.001 0.784 1.3863 1.7556 1.3736 1.1479 1.0628 1.22529 1.5219 1.4771
3790.441 1.2352 1.047 0.581 0.775 0.894 0.674 0.984 1.0805 1.3365 1.0363
3809.731 0.808 0.703 0.1 0.37 0.627 0.354 0.32 0.667 1.2373 1.4697
3829.021 1.5486 1.4639 0.882 0.896 1.3922 1.5425 1.023 0.996 1.115 0.307
3848.311 0.283 1.1055 1.4997 1.3899 1.3798 1.19264 1.027 1.0892 1.3607 1.6095
3867.601 1.5433 1.5429 1.5893 1.4225 1.5889 1.8704 1.6603 1.2542 1.14443 1.3975
3886.890 1.421 1.2423 1.4222 1.3965 0.779 0.41 0.764 0.939 0.62 0.333
3906.180 0 0.283 0.922 0.959 1.0999 1.19537 1.1555 0.935 0.953 1.14521
3925.470 0.687 0.832 1.16698 1.025 0.907 1.20806 1.5913 1.6911 1.6826 1.2993
3944.760 1.0593 1.0412 0.742 1.12612 1.4714 1.2556 0.478 0.15 0.348 0.533
3964.049 0.813 0.773 0.983 0.728 0.857 1.21775 1.0646 1.16042 1.20015 0.966
3983.339 0.687 0.723 0.829 0.284 0.06 0.505 0.758 1.1222 1.2783 1.0977
##END=
