##TITLE=1,2-Dibromotrichloroethane
##JCAMP-DX=4.24
##DATA TYPE=INFRARED SPECTRUM
##ORIGIN=EPA-IR VAPOR PHASE LIBRARY
##OWNER=SRD/NIST
Collection (C) 2018 copyright by the U.S. Secretary of Commerce
on behalf of the United States of America. All rights reserved.
##CAS REGISTRY NO=13749-38-7
##MOLFORM=C 2 H Br 2 Cl 3
##$NIST SOURCE=MSDC-IR
##STATE=gas
##XUNITS=1/CM
##YUNITS=ABSORBANCE
##XFACTOR=1.
##YFACTOR=0.001
##DELTAX=1.92934
##FIRSTX=549.9
##LASTX=3999.5
##FIRSTY=3.512
##MAXX=3999.53
##MINX=549.863
##MAXY=0.088792
##MINY=0
##NPOINTS=1789
##XYDATA=(X++(Y..Y))
549.863 3.512 4.222 5.452 7.212 9.322 11.722 14.242 16.442 18.012 18.732
569.156 18.442 16.932 14.332 11.602 9.212 7.042 5.302 4.052 3.312 2.912
588.450 2.652 2.652 2.712 2.692 2.652 2.542 2.562 2.762 2.902 2.982
607.743 3.152 3.462 4.032 4.812 5.692 6.912 8.642 10.712 13.072 15.942
627.037 19.052 22.012 24.672 26.552 27.572 27.632 26.442 24.242 21.492 18.612
646.330 16.622 16.452 17.902 20.582 24.162 28.052 31.832 35.082 37.402 38.532
665.624 37.962 35.432 31.352 26.312 20.852 15.952 12.002 9.102 7.272 6.252
684.917 5.782 5.572 5.612 5.882 6.352 7.132 8.222 9.822 11.952 14.732
704.210 18.182 22.392 27.212 32.422 37.802 42.892 47.272 50.652 52.782 53.482
723.504 52.662 50.552 47.522 44.092 40.892 38.602 37.792 38.922 42.152 47.212
742.797 54.032 62.062 70.192 77.522 83.392 87.242 88.792 87.762 84.392 79.172
762.091 72.902 66.902 62.062 58.622 56.472 55.202 54.232 53.262 51.862 49.692
781.384 46.902 43.232 38.882 35.002 32.242 30.742 30.502 31.412 33.142 34.982
800.678 35.952 35.562 33.472 30.062 26.182 22.502 19.792 18.472 18.482 19.192
819.971 20.022 20.832 21.392 21.382 20.602 18.852 16.292 13.642 11.452 9.502
839.264 7.722 6.442 5.602 5.102 4.832 4.642 4.392 4.122 3.762 3.292
858.558 2.892 2.582 2.392 2.322 2.252 2.192 2.142 2.172 2.192 2.172
877.851 2.162 2.122 2.082 2.032 1.972 1.982 1.972 1.892 1.892 1.882
897.145 1.822 1.842 1.892 1.992 2.082 2.142 2.252 2.372 2.512 2.722
916.438 2.872 2.952 2.972 2.992 3.012 3.002 2.922 2.812 2.762 2.662
935.732 2.602 2.572 2.582 2.632 2.572 2.482 2.402 2.272 2.152 2.072
955.025 1.982 1.962 1.972 1.982 2.002 2.012 2.042 2.072 2.112 2.182
974.318 2.222 2.322 2.482 2.632 2.802 3.002 3.292 3.662 4.072 4.532
993.612 5.042 5.552 6.042 6.542 7.022 7.402 7.622 7.682 7.582 7.302
1012.905 6.762 6.102 5.362 4.542 3.782 3.102 2.512 2.042 1.7207 1.534
1032.199 1.399 1.3231 1.342 1.2859 1.2345 1.268 1.2638 1.2675 1.3071 1.2939
1051.492 1.2614 1.3201 1.3313 1.3258 1.3332 1.2515 1.2452 1.2522 1.208 1.1636
1070.786 1.141 1.1217 1.0839 1.1123 1.1339 1.0667 1.008 1.0016 1.0059 1.0264
1090.079 1.0774 1.1073 1.0359 0.9986 1.016 1.0663 1.1626 1.1596 1.1967 1.2444
1109.372 1.2633 1.2933 1.3438 1.3929 1.4149 1.4423 1.4276 1.4576 1.4862 1.461
1128.666 1.4552 1.4652 1.532 1.6019 1.6188 1.6302 1.6769 1.772 1.912 2.092
1147.959 2.302 2.612 3.082 3.752 4.712 6.162 8.112 10.352 12.502 14.152
1167.253 15.262 15.972 15.662 14.312 12.392 9.992 7.492 5.592 4.362 3.552
1186.546 3.072 2.752 2.442 2.132 1.902 1.6609 1.4534 1.3047 1.1764 1.1435
1205.840 1.0812 1.0245 1.0588 1.0639 1.0757 1.109 1.189 1.2552 1.3052 1.4289
1225.133 1.5815 1.752 1.972 2.282 2.672 3.152 3.702 4.222 4.652 4.982
1244.426 5.202 5.192 4.862 4.322 3.782 3.222 2.632 2.142 1.772 1.4971
1263.720 1.3345 1.2352 1.1095 1.0694 1.0817 1.1031 1.0218 0.9785 1.0435 1.0512
1283.013 1.0277 1.0182 1.0214 1.0218 0.9946 0.9322 0.9242 0.9271 0.9237 0.9284
1302.307 0.9495 0.9614 0.896 0.8637 0.8852 0.9171 0.9198 0.8717 0.856 0.898
1321.600 0.8999 0.8741 0.8875 0.9163 0.9251 0.9335 0.8994 0.883 0.8784 0.8331
1340.894 0.80314 0.81977 0.8784 0.8747 0.8418 0.8368 0.8801 0.8942 0.9149 0.9627
1360.187 0.9167 0.9478 1.0238 0.9813 0.9671 0.9625 0.9592 0.9734 0.967 0.961
1379.480 0.9429 0.9172 0.861 0.8484 0.8941 0.8748 0.8803 0.9288 0.892 0.834
1398.774 0.83053 0.8669 0.891 0.8858 0.8835 0.8513 0.8418 0.8682 0.8467 0.81507
1418.067 0.77896 0.77884 0.79925 0.78283 0.7572 0.79295 0.80174 0.77319 0.7749 0.7615
1437.361 0.81966 0.8492 0.80273 0.74813 0.77336 0.80553 0.78848 0.79833 0.79003 0.79649
1456.654 0.76545 0.76052 0.80286 0.7704 0.737081 0.77518 0.77909 0.73194 0.7206 0.74938
1475.948 0.76662 0.77426 0.78061 0.76614 0.78534 0.78448 0.76337 0.733998 0.72284 0.76614
1495.241 0.77877 0.76892 0.75475 0.81149 0.81679 0.734389 0.77076 0.81668 0.7948 0.81636
1514.534 0.8516 0.8671 0.8867 0.8399 0.8332 0.8735 0.8488 0.82615 0.8134 0.77233
1533.828 0.79436 0.8658 0.81563 0.77754 0.8325 0.82004 0.8501 0.8834 0.8594 0.8842
1553.121 0.9188 0.9234 0.9182 0.8798 0.9136 0.9774 0.9578 0.9649 1.0125 1.0044
1572.415 0.9552 0.9423 0.8987 0.9381 0.9836 1.0048 1.0207 0.9649 0.9068 0.9025
1591.708 0.9178 0.9018 0.9264 0.9019 0.8834 0.8964 0.8607 0.82996 0.8085 0.79468
1611.002 0.7803 0.76715 0.75827 0.7551 0.7596 0.6947 0.6675 0.735519 0.672 0.6489
1630.295 0.7182 0.75922 0.74236 0.73354 0.77173 0.75325 0.664 0.6387 0.619 0.6337
1649.588 0.7129 0.6657 0.626 0.6907 0.739308 0.741529 0.731199 0.6974 0.6997 0.6626
1668.882 0.6388 0.6404 0.7022 0.6871 0.604 0.607 0.6556 0.6777 0.613 0.6364
1688.175 0.6519 0.628 0.632 0.605 0.562 0.574 0.54 0.531 0.622 0.6982
1707.469 0.72291 0.6681 0.655 0.662 0.628 0.622 0.6541 0.6938 0.693 0.7155
1726.762 0.7468 0.7189 0.6904 0.6443 0.6451 0.74325 0.6977 0.7113 0.76574 0.736315
1746.056 0.76239 0.741357 0.7137 0.75239 0.79318 0.78959 0.78326 0.78768 0.76565 0.78474
1765.349 0.81922 0.80817 0.76824 0.711 0.7143 0.76275 0.79721 0.82678 0.82668 0.79449
1784.642 0.80795 0.80832 0.80004 0.76786 0.72473 0.8131 0.83028 0.74869 0.71 0.7134
1803.936 0.72956 0.735821 0.72775 0.7123 0.739974 0.74302 0.6809 0.6457 0.6798 0.6961
1823.229 0.6859 0.6714 0.7045 0.740614 0.7076 0.7077 0.7203 0.6937 0.69 0.7158
1842.523 0.6868 0.604 0.573 0.613 0.6454 0.617 0.6329 0.709 0.6926 0.6676
1861.816 0.6885 0.6924 0.6947 0.7097 0.7045 0.7008 0.6703 0.6367 0.6339 0.6629
1881.110 0.7139 0.6715 0.684 0.683 0.6728 0.6806 0.6481 0.6433 0.6655 0.6938
1900.403 0.6789 0.6535 0.6511 0.6564 0.6379 0.6709 0.6772 0.6775 0.6748 0.622
1919.696 0.6323 0.6569 0.6447 0.626 0.6447 0.673 0.6522 0.648 0.6758 0.6586
1938.990 0.6603 0.6723 0.6536 0.667 0.6608 0.6791 0.6843 0.6352 0.6568 0.6687
1958.283 0.6399 0.6535 0.6724 0.6843 0.6753 0.6663 0.7105 0.72842 0.7058 0.6671
1977.577 0.6561 0.7035 0.72954 0.658 0.591 0.622 0.6606 0.7026 0.72482 0.6874
1996.870 0.7021 0.7104 0.7064 0.7002 0.6888 0.73361 0.74761 0.75324 0.7685 0.75023
2016.164 0.72816 0.736857 0.72807 0.6913 0.7037 0.7039 0.6872 0.6943 0.6913 0.6768
2035.457 0.6766 0.6984 0.6841 0.6852 0.6809 0.6603 0.6495 0.6623 0.6759 0.6399
2054.750 0.651 0.6932 0.6808 0.6809 0.698 0.6694 0.6398 0.644 0.6695 0.6591
2074.044 0.618 0.612 0.626 0.621 0.6534 0.6851 0.6346 0.619 0.628 0.603
2093.337 0.622 0.6594 0.6535 0.627 0.63 0.6324 0.621 0.6382 0.628 0.613
2112.631 0.613 0.618 0.6417 0.6459 0.662 0.6536 0.618 0.598 0.6357 0.6537
2131.924 0.6537 0.6686 0.6875 0.6966 0.6462 0.628 0.6402 0.6516 0.655 0.611
2151.218 0.582 0.601 0.6464 0.6776 0.6767 0.6559 0.6416 0.6597 0.6748 0.653
2170.511 0.6441 0.6733 0.682 0.6793 0.6682 0.6591 0.6379 0.629 0.6692 0.709
2189.804 0.6954 0.6582 0.7022 0.7171 0.6834 0.6579 0.6437 0.6942 0.7265 0.6939
2209.098 0.6464 0.6362 0.6754 0.6786 0.699 0.6912 0.631 0.6359 0.632 0.597
2228.391 0.597 0.6394 0.632 0.615 0.63 0.6501 0.659 0.6867 0.696 0.6725
2247.685 0.662 0.6637 0.7208 0.74602 0.7065 0.7 0.7218 0.678 0.6602 0.6409
2266.978 0.605 0.627 0.6502 0.6531 0.6517 0.6558 0.6324 0.6362 0.6989 0.7022
2286.272 0.6907 0.669 0.703 0.7191 0.6856 0.7215 0.7205 0.7137 0.7185 0.76383
2305.565 0.81347 0.81641 0.80567 0.8376 0.8802 0.9028 0.9108 0.8898 0.9201 1.0024
2324.858 1.0012 0.9698 0.9915 0.9352 0.8712 0.8418 0.75889 0.7214 0.6922 0.6764
2344.152 0.6932 0.6809 0.6745 0.628 0.629 0.6762 0.6536 0.634 0.606 0.59
2363.445 0.616 0.627 0.623 0.626 0.6578 0.6498 0.612 0.6455 0.6809 0.7074
2382.739 0.6969 0.6913 0.7091 0.6948 0.6504 0.6513 0.672 0.6331 0.636 0.7083
2402.032 0.737149 0.7143 0.73076 0.74851 0.77786 0.80583 0.78887 0.81576 0.8395 0.8403
2421.326 0.834 0.77355 0.741324 0.7211 0.72841 0.75021 0.740339 0.72494 0.6762 0.6746
2440.619 0.6846 0.684 0.7134 0.6963 0.72 0.73098 0.72744 0.731114 0.6835 0.6803
2459.912 0.79057 0.81439 0.76913 0.7893 0.80576 0.8434 0.8919 0.94 0.9448 0.9022
2479.206 0.8848 0.8877 0.866 0.82406 0.80747 0.77281 0.74762 0.78457 0.74426 0.6973
2498.499 0.6551 0.611 0.6641 0.6729 0.6456 0.6525 0.6485 0.6443 0.631 0.6444
2517.793 0.6613 0.6551 0.6456 0.604 0.537 0.554 0.627 0.6562 0.63 0.611
2537.086 0.6501 0.6397 0.592 0.587 0.59 0.609 0.63 0.6327 0.624 0.621
2556.380 0.628 0.587 0.589 0.6387 0.6702 0.6357 0.584 0.555 0.57 0.609
2575.673 0.6502 0.6975 0.6673 0.602 0.593 0.6373 0.61 0.565 0.593 0.619
2594.966 0.609 0.605 0.578 0.523 0.514 0.592 0.6 0.537 0.571 0.569
2614.260 0.534 0.529 0.499 0.539 0.576 0.566 0.609 0.6452 0.615 0.55
2633.553 0.522 0.533 0.545 0.564 0.567 0.585 0.601 0.6692 0.7117 0.6424
2652.847 0.608 0.601 0.572 0.508 0.499 0.589 0.61 0.567 0.605 0.615
2672.140 0.568 0.558 0.568 0.574 0.597 0.588 0.559 0.544 0.565 0.562
2691.434 0.534 0.548 0.517 0.594 0.586 0.455 0.463 0.53 0.541 0.547
2710.727 0.613 0.589 0.524 0.532 0.57 0.572 0.627 0.617 0.603 0.626
2730.020 0.559 0.557 0.562 0.536 0.528 0.495 0.478 0.474 0.436 0.413
2749.314 0.423 0.44 0.49 0.571 0.561 0.53 0.535 0.543 0.592 0.618
2768.607 0.619 0.543 0.476 0.523 0.545 0.536 0.473 0.408 0.482 0.477
2787.901 0.39 0.402 0.501 0.587 0.565 0.509 0.476 0.449 0.431 0.497
2807.194 0.482 0.404 0.488 0.528 0.521 0.585 0.526 0.468 0.421 0.407
2826.488 0.537 0.513 0.439 0.493 0.497 0.485 0.436 0.468 0.515 0.447
2845.781 0.488 0.487 0.422 0.469 0.482 0.525 0.566 0.457 0.351 0.379
2865.074 0.455 0.414 0.428 0.481 0.543 0.538 0.501 0.505 0.457 0.4
2884.368 0.379 0.405 0.361 0.296 0.268 0.327 0.406 0.416 0.489 0.568
2903.661 0.571 0.557 0.501 0.429 0.456 0.479 0.506 0.483 0.334 0.328
2922.955 0.423 0.557 0.571 0.425 0.378 0.453 0.434 0.331 0.363 0.422
2942.248 0.489 0.482 0.401 0.418 0.369 0.329 0.383 0.46 0.546 0.479
2961.542 0.418 0.373 0.343 0.391 0.412 0.389 0.401 0.458 0.459 0.517
2980.835 0.6 0.601 0.7157 0.9603 1.1296 1.3896 1.7094 2.082 2.492 2.922
3000.128 3.552 4.312 4.942 5.182 5.472 5.932 5.552 4.452 3.592 2.922
3019.422 2.222 1.5197 0.9662 0.75736 0.621 0.413 0.403 0.433 0.36 0.397
3038.715 0.403 0.295 0.339 0.397 0.3 0.145 0.256 0.314 0.192 0.179
3058.009 0.242 0.358 0.42 0.449 0.389 0.236 0.324 0.432 0.305 0.284
3077.302 0.315 0.38 0.458 0.479 0.343 0.372 0.51 0.432 0.431 0.493
3096.596 0.466 0.394 0.364 0.24 0.222 0.389 0.352 0.275 0.261 0.094
3115.889 0 0.195 0.316 0.359 0.384 0.293 0.34 0.485 0.442 0.28
3135.182 0.264 0.353 0.412 0.369 0.249 0.125 0.173 0.098 0.165 0.394
3154.476 0.373 0.288 0.369 0.414 0.275 0.267 0.351 0.24 0.111 0.256
3173.769 0.381 0.411 0.268 0.155 0.233 0.226 0.2 0.212 0.147 0.032
3193.063 0.027 0.098 0.166 0.104 0.11 0.103 0.158 0.239 0.069 0.017
3212.356 0.202 0.299 0.256 0.301 0.327 0.294 0.229 0.092 0.204 0.394
3231.650 0.29 0.2 0.187 0.195 0.284 0.273 0.256 0.353 0.296 0.202
3250.943 0.267 0.249 0.2 0.268 0.244 0.212 0.163 0.137 0.203 0.305
3270.236 0.272 0.167 0.283 0.357 0.407 0.424 0.17 0.084 0.13 0.116
3289.530 0.134 0.238 0.231 0.153 0.217 0.288 0.377 0.421 0.334 0.287
3308.823 0.387 0.388 0.325 0.379 0.429 0.445 0.389 0.292 0.284 0.179
3328.117 0.112 0.361 0.428 0.369 0.389 0.392 0.282 0.239 0.373 0.363
3347.410 0.297 0.255 0.187 0.183 0.263 0.327 0.273 0.286 0.355 0.178
3366.704 0.17 0.295 0.32 0.322 0.363 0.294 0.223 0.266 0.247 0.2
3385.997 0.151 0.291 0.425 0.364 0.303 0.286 0.278 0.303 0.29 0.32
3405.290 0.384 0.311 0.212 0.253 0.27 0.3 0.292 0.273 0.302 0.303
3424.584 0.351 0.302 0.248 0.337 0.395 0.497 0.505 0.403 0.411 0.458
3443.877 0.533 0.495 0.44 0.353 0.275 0.292 0.298 0.262 0.359 0.426
3463.171 0.343 0.343 0.443 0.542 0.358 0.248 0.291 0.301 0.303 0.282
3482.464 0.416 0.488 0.494 0.369 0.184 0.2 0.299 0.376 0.35 0.485
3501.758 0.599 0.629 0.611 0.491 0.421 0.464 0.439 0.44 0.454 0.353
3521.051 0.365 0.475 0.619 0.522 0.393 0.422 0.516 0.59 0.563 0.469
3540.344 0.426 0.457 0.468 0.45 0.42 0.453 0.536 0.464 0.44 0.406
3559.638 0.412 0.563 0.584 0.555 0.489 0.419 0.455 0.546 0.556 0.499
3578.931 0.439 0.431 0.559 0.518 0.453 0.418 0.422 0.538 0.544 0.601
3598.225 0.625 0.511 0.456 0.543 0.494 0.378 0.425 0.425 0.491 0.549
3617.518 0.476 0.514 0.541 0.58 0.6656 0.493 0.439 0.602 0.6536 0.624
3636.812 0.588 0.608 0.573 0.582 0.59 0.472 0.353 0.399 0.543 0.467
3656.105 0.432 0.543 0.55 0.521 0.502 0.586 0.561 0.442 0.537 0.549
3675.398 0.449 0.529 0.586 0.72396 0.6873 0.567 0.507 0.397 0.527 0.566
3694.692 0.54 0.598 0.6525 0.6846 0.586 0.541 0.596 0.605 0.566 0.609
3713.985 0.612 0.565 0.602 0.628 0.6 0.571 0.584 0.615 0.6393 0.6367
3733.279 0.569 0.44 0.514 0.621 0.589 0.536 0.518 0.538 0.488 0.53
3752.572 0.578 0.618 0.623 0.53 0.623 0.75212 0.77513 0.75024 0.6797 0.6615
3771.866 0.6545 0.6532 0.72273 0.6568 0.553 0.6428 0.6798 0.6498 0.6657 0.6672
3791.159 0.6602 0.6999 0.6433 0.526 0.556 0.629 0.6724 0.6754 0.614 0.657
3810.452 0.76669 0.80632 0.77161 0.76509 0.8651 0.81747 0.6812 0.608 0.584 0.619
3829.746 0.6399 0.602 0.6386 0.6382 0.553 0.591 0.7063 0.656 0.6493 0.731573
3849.039 0.6515 0.621 0.56 0.554 0.6447 0.6437 0.61 0.546 0.484 0.614
3868.333 0.75093 0.72729 0.674 0.626 0.6522 0.7117 0.6979 0.616 0.589 0.505
3887.626 0.485 0.565 0.545 0.556 0.636 0.62 0.624 0.6353 0.578 0.629
3906.920 0.6514 0.666 0.6468 0.6551 0.7068 0.6707 0.6641 0.666 0.732356 0.78218
3926.213 0.671 0.6654 0.6718 0.596 0.597 0.6736 0.75613 0.6799 0.605 0.61
3945.506 0.585 0.577 0.577 0.565 0.614 0.6698 0.6989 0.7155 0.72227 0.75757
3964.800 0.76898 0.7189 0.718 0.76719 0.78171 0.75509 0.611 0.62 0.6397 0.547
3984.093 0.53 0.575 0.6702 0.595 0.612 0.77349 0.7727 0.6723 0.584
##END=
