##TITLE=3-Methyl-4-phenylpyrazol
##JCAMP-DX=4.24
##DATA TYPE=INFRARED SPECTRUM
##ORIGIN=EPA-IR VAPOR PHASE LIBRARY
##OWNER=SRD/NIST
Collection (C) 2018 copyright by the U.S. Secretary of Commerce
on behalf of the United States of America. All rights reserved.
##CAS REGISTRY NO=13788-84-6
##MOLFORM=C 10 H 10 N 2
##$NIST SOURCE=MSDC-IR
##STATE=gas
##XUNITS=1/CM
##YUNITS=ABSORBANCE
##XFACTOR=1.
##YFACTOR=0.001
##DELTAX=1.92898
##FIRSTX=549.8
##LASTX=4000.7
##FIRSTY=0.6433
##MAXX=4000.7
##MINX=549.759
##MAXY=0.025546
##MINY=0
##NPOINTS=1790
##XYDATA=(X++(Y..Y))
549.759 0.6433 0.7916 0.7173 0.3337 0.3421 0.3683 0.3033 0.4884 0.5802 0.4911
569.049 0.8047 0.9319 0.8878 0.9675 0.9914 0.7349 0.6837 0.9668 0.8533 0.5729
588.339 0.5286 0.6406 0.7315 0.8753 0.8627 0.6699 0.4181 0.4744 0.7072 0.6404
607.628 0.5072 0.4752 0.514 0.4972 0.5163 0.5052 0.4535 0.5255 0.7728 0.9459
626.918 1.0207 1.156 1.196 1.446 1.836 2.126 2.616 3.026 3.516 4.276
646.208 5.066 6.156 7.376 8.536 9.306 9.816 10.356 10.516 10.466 10.146
665.498 9.246 8.116 7.416 7.066 6.736 6.536 6.656 7.036 7.606 8.426
684.787 9.486 10.696 11.866 12.976 14.016 15.036 15.566 15.386 14.866 13.936
704.077 12.836 11.746 10.416 9.016 7.886 6.756 5.716 5.006 4.336 3.916
723.367 3.496 3.116 3.146 3.146 3.166 3.396 3.646 4.026 4.366 4.836
742.657 5.646 6.576 7.556 8.606 9.786 10.956 12.176 13.216 14.046 14.496
761.947 14.266 13.256 11.826 10.446 9.146 7.986 6.846 5.686 4.656 4.066
781.236 3.656 3.216 2.916 2.786 2.726 2.676 2.736 2.936 2.986 2.866
800.526 2.936 2.816 2.446 2.186 1.986 1.766 1.526 1.276 1.216 1.0201
819.816 0.7957 0.7464 0.6803 0.6255 0.6121 0.5824 0.6224 0.7362 0.8347 0.8967
839.106 1.156 1.466 1.646 1.936 2.146 2.386 2.836 3.286 3.676 3.936
858.395 4.136 4.406 4.136 3.576 3.296 3.016 2.636 2.256 1.936 1.726
877.685 1.466 1.256 1.236 1.146 0.9241 0.8748 0.9731 1.0966 1.236 1.336
896.975 1.546 1.746 1.906 2.186 2.526 2.996 3.546 3.926 4.606 5.666
916.265 6.776 8.076 9.306 10.186 10.726 10.956 10.856 10.506 9.696 8.516
935.555 7.386 6.266 5.216 4.436 4.016 3.916 3.846 3.966 4.286 4.666
954.844 5.286 6.026 6.716 7.526 8.466 9.406 10.416 11.366 12.246 12.916
974.134 13.256 13.546 13.686 13.356 12.906 12.286 11.386 10.546 9.776 9.016
993.424 8.436 8.056 7.916 7.866 7.736 7.656 7.656 7.576 7.256 6.996
1012.714 6.796 6.446 5.896 5.156 4.586 4.206 3.986 4.106 4.116 3.896
1032.003 3.576 3.226 3.066 2.906 2.746 2.616 2.336 2.126 2.036 2.036
1051.293 2.256 2.516 2.746 3.086 3.336 3.636 3.886 3.936 3.966 4.036
1070.583 4.256 4.126 3.536 3.226 3.166 2.776 2.396 2.006 1.716 1.936
1089.873 2.116 2.206 2.526 2.926 3.246 3.716 3.886 4.066 4.056 3.356
1109.163 3.146 3.166 2.826 2.456 2.046 1.606 1.306 1.216 0.9206 0.4144
1128.452 0.4624 0.8316 0.8792 0.7992 0.7427 0.9035 1.216 1.336 1.576 1.886
1147.742 2.146 2.516 2.976 3.256 3.366 3.596 3.856 3.896 3.826 3.676
1167.032 3.516 3.476 3.246 2.986 2.696 2.386 2.106 1.876 1.606 1.316
1186.322 1.216 1.236 1.246 1.156 1.286 1.426 1.476 1.826 2.176 2.266
1205.611 2.196 2.086 2.246 2.176 2.076 1.976 1.616 1.606 1.486 1.416
1224.901 1.536 1.466 1.336 1.176 1.166 1.326 1.366 1.366 1.246 1.256
1244.191 1.506 1.506 1.336 1.216 1.316 1.426 1.376 1.256 1.366 1.436
1263.481 1.556 1.906 2.086 2.266 2.596 2.716 2.716 2.896 3.066 3.176
1282.771 3.076 2.996 2.906 2.786 2.656 2.336 2.116 2.046 1.936 1.796
1302.060 1.726 1.746 1.666 1.626 1.706 1.746 1.806 1.886 2.026 2.176
1321.350 2.266 2.356 2.456 2.596 2.746 2.926 3.146 3.406 3.646 3.926
1340.640 4.226 4.516 4.726 4.906 5.056 5.056 4.876 4.566 4.266 3.956
1359.930 3.606 3.216 2.786 2.486 2.366 2.366 2.416 2.476 2.556 2.636
1379.219 2.656 2.616 2.586 2.536 2.346 2.066 1.836 1.656 1.536 1.506
1398.509 1.496 1.516 1.566 1.606 1.666 1.746 1.866 1.966 2.096 2.226
1417.799 2.316 2.476 2.666 2.866 3.076 3.316 3.566 3.826 4.156 4.506
1437.089 4.836 5.096 5.276 5.386 5.396 5.416 5.386 5.286 5.156 4.966
1456.378 4.776 4.606 4.436 4.316 4.226 4.006 3.786 3.646 3.466 3.356
1475.668 3.296 3.256 3.286 3.476 3.846 4.366 5.046 5.746 6.406 6.966
1494.958 7.386 7.806 8.206 8.396 8.176 7.636 6.976 6.296 5.686 5.066
1514.248 4.356 3.566 2.946 2.516 2.246 2.166 2.106 2.056 2.046 2.056
1533.538 2.096 2.156 2.216 2.246 2.296 2.396 2.536 2.666 2.826 3.036
1552.827 3.216 3.396 3.606 3.736 3.776 3.826 3.916 3.896 3.796 3.686
1572.117 3.596 3.556 3.526 3.576 3.596 3.646 3.826 3.996 4.216 4.716
1591.407 5.276 5.826 6.486 7.236 8.016 8.816 9.526 10.006 10.136 10.016
1610.697 9.616 8.846 7.926 6.806 5.616 4.486 3.546 2.756 2.126 1.736
1629.986 1.496 1.366 1.246 1.186 1.146 1.0513 0.9969 0.9921 0.9705 0.9304
1649.276 0.9336 0.9723 1.0028 0.9854 0.9443 0.9347 0.9743 1.0453 1.0465 1.0305
1668.566 0.9667 0.9477 0.9892 0.9096 0.8243 0.7714 0.7576 0.7611 0.6968 0.6232
1687.856 0.6527 0.6731 0.6444 0.6792 0.7224 0.7704 0.8336 0.8856 0.9181 0.9626
1707.146 1.0149 1.0415 1.0974 1.146 1.0911 1.0259 1.0414 1.0493 1.0399 0.9993
1726.435 0.9226 0.8884 0.8473 0.8177 0.8128 0.8088 0.7627 0.7229 0.7107 0.6756
1745.725 0.6941 0.7076 0.6498 0.5702 0.5537 0.5045 0.4923 0.5258 0.468 0.4051
1765.015 0.4287 0.4662 0.4558 0.4678 0.4913 0.5134 0.5147 0.5176 0.546 0.5862
1784.305 0.6637 0.7529 0.8258 0.9071 0.9678 0.9839 1.0222 0.9926 0.946 0.9463
1803.594 0.88 0.815 0.7574 0.6904 0.6303 0.6477 0.6778 0.6089 0.5385 0.5127
1822.884 0.4833 0.4522 0.4026 0.3692 0.3608 0.3519 0.3587 0.3634 0.3599 0.3757
1842.174 0.3664 0.3817 0.4294 0.4486 0.4707 0.5175 0.5473 0.5797 0.6417 0.6491
1861.464 0.6541 0.7376 0.8205 0.8614 0.8861 0.9073 0.9173 0.9401 0.9852 1.0031
1880.754 0.9774 0.9499 0.8983 0.7934 0.6996 0.7112 0.7111 0.606 0.5657 0.536
1900.043 0.5 0.4905 0.4295 0.4216 0.4175 0.3898 0.4162 0.4527 0.4523 0.4801
1919.333 0.5951 0.604 0.5678 0.6644 0.7551 0.7965 0.8838 0.9738 1.0099 1.0632
1938.623 1.126 1.126 1.0934 1.0639 1.1147 1.186 1.156 1.0654 1.0388 1.0284
1957.913 0.9147 0.7585 0.6536 0.6087 0.5776 0.4839 0.3415 0.2676 0.2458 0.2999
1977.202 0.336 0.2929 0.3363 0.3241 0.2793 0.3067 0.295 0.2861 0.2946 0.3062
1996.492 0.2982 0.2539 0.2118 0.18213 0.18769 0.2439 0.303 0.321 0.3227 0.3038
2015.782 0.3058 0.2374 0.16489 0.2223 0.2672 0.2484 0.2472 0.3008 0.277 0.2342
2035.072 0.2256 0.20214 0.21037 0.269 0.2791 0.2281 0.2379 0.277 0.2534 0.2179
2054.362 0.2329 0.258 0.2534 0.2386 0.2181 0.19459 0.2171 0.2254 0.2246 0.2579
2073.651 0.293 0.316 0.3003 0.2913 0.2584 0.21523 0.2364 0.2746 0.3131 0.2698
2092.941 0.2413 0.335 0.3748 0.3606 0.3704 0.3132 0.2658 0.2459 0.2402 0.3
2112.231 0.2792 0.2772 0.3109 0.2777 0.3202 0.3002 0.2267 0.3241 0.398 0.3557
2131.521 0.3506 0.3129 0.3279 0.3151 0.2912 0.3478 0.355 0.3218 0.3317 0.3862
2150.810 0.3813 0.362 0.3227 0.2935 0.2758 0.2737 0.285 0.2606 0.2713 0.2899
2170.100 0.2568 0.2597 0.2567 0.20484 0.18736 0.20495 0.20956 0.2383 0.3022 0.3598
2189.390 0.3696 0.324 0.26 0.19135 0.21076 0.3227 0.3823 0.3231 0.2762 0.3046
2208.680 0.3077 0.2752 0.2861 0.3362 0.3158 0.2873 0.313 0.2808 0.2274 0.2621
2227.970 0.3101 0.3 0.226 0.2645 0.3123 0.283 0.2945 0.3187 0.2982 0.2931
2247.259 0.2887 0.2937 0.3468 0.3485 0.3676 0.3833 0.3507 0.2926 0.3026 0.356
2266.549 0.4086 0.3971 0.3258 0.3357 0.387 0.3901 0.3521 0.2851 0.271 0.266
2285.839 0.234 0.2756 0.3089 0.2803 0.2244 0.19775 0.20657 0.2195 0.2604 0.3457
2305.129 0.404 0.3881 0.3652 0.4454 0.4743 0.4577 0.4523 0.4298 0.45 0.4277
2324.418 0.3849 0.3584 0.3973 0.457 0.4382 0.4245 0.4833 0.4823 0.4802 0.5271
2343.708 0.5013 0.4472 0.4265 0.4515 0.4355 0.4246 0.4222 0.4253 0.4307 0.4383
2362.998 0.4475 0.4091 0.3967 0.4365 0.4541 0.3928 0.3612 0.3581 0.3372 0.34
2382.288 0.3517 0.3829 0.3789 0.3289 0.2944 0.2599 0.2573 0.2883 0.3554 0.3418
2401.578 0.3196 0.3424 0.3169 0.3565 0.3989 0.3601 0.3607 0.3872 0.3371 0.3209
2420.867 0.3284 0.3639 0.4545 0.4438 0.4378 0.4105 0.378 0.4451 0.4262 0.3559
2440.157 0.4257 0.478 0.3878 0.3276 0.3492 0.3546 0.3781 0.3978 0.4284 0.4694
2459.447 0.4408 0.3577 0.3933 0.4035 0.325 0.363 0.3475 0.3087 0.3156 0.3482
2478.737 0.3662 0.3564 0.3353 0.3756 0.4683 0.491 0.4033 0.3831 0.4887 0.5011
2498.026 0.448 0.3846 0.3182 0.3738 0.4009 0.4137 0.4626 0.4346 0.4687 0.5197
2517.316 0.5408 0.5303 0.4811 0.4328 0.4163 0.4174 0.4058 0.4283 0.4648 0.4229
2536.606 0.4332 0.4625 0.4334 0.4838 0.5378 0.5213 0.4462 0.3877 0.3926 0.4515
2555.896 0.5144 0.5049 0.462 0.4594 0.5173 0.5123 0.4767 0.5154 0.5688 0.5889
2575.186 0.6259 0.6859 0.7088 0.6859 0.6433 0.6868 0.7545 0.7286 0.7586 0.7969
2594.475 0.7926 0.8095 0.7916 0.743 0.6514 0.619 0.6234 0.627 0.7138 0.6791
2613.765 0.586 0.5514 0.5337 0.5533 0.4451 0.3745 0.4217 0.3864 0.3764 0.4508
2633.055 0.396 0.3205 0.4108 0.4016 0.3874 0.4095 0.3505 0.3676 0.4187 0.4398
2652.345 0.382 0.3733 0.426 0.486 0.4183 0.3529 0.3763 0.3365 0.3151 0.3517
2671.634 0.3709 0.3142 0.3348 0.4012 0.4198 0.4358 0.3951 0.3643 0.4045 0.4104
2690.924 0.3928 0.4378 0.4387 0.3755 0.4087 0.4329 0.4144 0.3948 0.4378 0.4654
2710.214 0.4478 0.4745 0.4968 0.5329 0.504 0.4457 0.3993 0.4405 0.491 0.4684
2729.504 0.4793 0.5291 0.5854 0.5513 0.5118 0.5158 0.5637 0.6499 0.6416 0.5448
2748.794 0.5263 0.5415 0.5323 0.5016 0.5176 0.5545 0.584 0.6207 0.6482 0.6078
2768.083 0.56 0.5184 0.4854 0.5654 0.6098 0.5071 0.3773 0.3982 0.4916 0.5317
2787.373 0.5486 0.6046 0.5902 0.5561 0.6149 0.6047 0.5753 0.5555 0.5067 0.5422
2806.663 0.5983 0.6682 0.7216 0.6422 0.5146 0.5709 0.6916 0.6429 0.5928 0.6482
2825.953 0.7314 0.7 0.697 0.7448 0.7799 0.8806 0.9406 1.0556 1.0781 1.0006
2845.242 1.0187 1.103 1.186 1.246 1.336 1.436 1.496 1.576 1.636 1.756
2864.532 1.866 1.906 2.036 2.216 2.286 2.206 2.236 2.406 2.446 2.436
2883.822 2.446 2.426 2.356 2.326 2.356 2.366 2.366 2.386 2.396 2.336
2903.112 2.366 2.436 2.486 2.536 2.616 2.776 2.896 3.036 3.296 3.466
2922.401 3.696 4.116 4.566 4.966 5.296 5.526 5.726 5.916 5.976 5.886
2941.691 5.756 5.666 5.356 4.976 4.766 4.556 4.246 3.926 3.706 3.556
2960.981 3.396 3.416 3.396 3.156 2.996 2.976 2.896 2.726 2.676 2.636
2980.271 2.736 2.846 2.826 2.866 2.866 2.966 3.156 3.276 3.366 3.366
2999.561 3.336 3.376 3.396 3.326 3.346 3.466 3.576 3.726 3.906 4.146
3018.850 4.526 4.926 5.216 5.556 5.876 6.266 6.686 6.936 6.996 7.046
3038.140 7.136 7.126 7.216 7.256 7.206 7.256 7.396 7.626 7.896 8.296
3057.430 8.906 9.496 10.266 11.026 11.506 11.976 12.196 12.106 11.966 11.656
3076.720 10.996 10.106 9.246 8.586 8.016 7.526 7.096 6.626 6.056 5.526
3096.009 5.056 4.646 4.256 3.836 3.586 3.426 3.136 2.876 2.826 2.696
3115.299 2.456 2.266 1.996 1.726 1.596 1.426 1.346 1.266 1.0698 0.9747
3134.589 0.9345 0.907 0.9573 0.884 0.7374 0.6814 0.5693 0.4794 0.599 0.6092
3153.879 0.465 0.4448 0.4704 0.5376 0.5758 0.5395 0.4526 0.3368 0.3247 0.4703
3173.169 0.4733 0.5264 0.5532 0.4114 0.3488 0.3088 0.4364 0.4993 0.4099 0.378
3192.458 0.263 0.3082 0.4715 0.3728 0.2741 0.3064 0.2499 0.2604 0.4216 0.3703
3211.748 0.3137 0.3047 0.2176 0.2392 0.19959 0.18191 0.20465 0.13747 0.14147 0.0983
3231.038 0.14251 0.2683 0.3555 0.2782 0.12647 0.17852 0.2267 0.2425 0.2334 0.3098
3250.328 0.3355 0.2405 0.17896 0.0591 0.20483 0.4494 0.3994 0.2611 0.2252 0.14985
3269.617 0.14246 0.19625 0.1514 0.15286 0.1593 0.1822 0.11359 0.2834 0.45 0.2747
3288.907 0.19915 0.1887 0.15106 0.2273 0.3174 0.2628 0.14033 0.0582 0.0812 0.0912
3308.197 0.17964 0.2247 0.236 0.2253 0.0808 0.0875 0.14604 0.0818 0.0893 0.3447
3327.487 0.4275 0.2283 0.2468 0.3178 0.15322 0.16117 0.20489 0.1788 0.2418 0.2405
3346.777 0.2642 0.2726 0.17016 0.1586 0.3377 0.4763 0.2984 0.16555 0.2584 0.3347
3366.066 0.255 0.20773 0.3251 0.3007 0.2186 0.3372 0.3138 0.2192 0.3009 0.2867
3385.356 0.2798 0.2502 0.2405 0.2967 0.3303 0.3316 0.3414 0.3295 0.2346 0.3078
3404.646 0.5052 0.5484 0.4863 0.3378 0.2668 0.3101 0.4414 0.556 0.4573 0.3442
3423.936 0.2944 0.3893 0.5113 0.4813 0.5153 0.6061 0.6887 0.6081 0.42 0.3596
3443.225 0.461 0.6537 0.7655 0.8214 0.8781 0.8846 0.8373 0.9416 1.114 1.246
3462.515 1.436 1.676 2.016 2.396 2.836 3.426 4.096 4.756 5.506 6.196
3481.805 6.676 7.296 7.976 8.636 9.646 11.086 13.006 15.536 18.436 20.886
3501.095 21.796 22.266 23.236 23.856 24.926 25.546 24.416 22.586 20.686 19.296
3520.385 18.246 16.856 15.076 12.206 8.516 5.666 3.926 2.876 2.176 1.706
3539.674 1.346 1.0296 0.9223 0.7204 0.5358 0.5415 0.4803 0.4338 0.4235 0.3902
3558.964 0.3435 0.2809 0.3433 0.3389 0.2362 0.257 0.21076 0.2401 0.3123 0.20071
3578.254 0.2513 0.3396 0.3386 0.4674 0.5242 0.3733 0.3394 0.3993 0.18191 0.21073
3597.544 0.2849 0.2931 0.2979 0.2682 0.3579 0.3051 0.0843 0.11092 0.2439 0.15586
3616.833 0.17652 0.2448 0.2826 0.2929 0.3821 0.3749 0.19249 0.2493 0.2387 0.17135
3636.123 0.2239 0.2253 0.3097 0.3394 0.2584 0.20634 0.18545 0.2663 0.2537 0.1052
3655.413 0.15494 0.13359 0.0976 0.20567 0.2208 0.15242 0.2165 0.2312 0.1001 0.0784
3674.703 0.125823 0.2603 0.3764 0.436 0.3934 0.2666 0.21575 0.3137 0.2989 0.17152
3693.993 0.2766 0.3251 0.17964 0.13725 0.20073 0.15573 0.2302 0.3 0.2551 0.2822
3713.282 0.20537 0.18362 0.2667 0.20741 0.2299 0.3904 0.3665 0.2802 0.3081 0.15262
3732.572 0.014 0.028 0 0.0762 0.13688 0.002 0.118506 0.304 0.2987 0.2613
3751.862 0.19888 0.0806 0.0845 0.2439 0.0912 0.0338 0.2236 0.2582 0.3351 0.4098
3771.152 0.2929 0.2416 0.1343 0.007 0.0726 0.19685 0.2574 0.16192 0.0626 0.2187
3790.441 0.3248 0.19494 0.15591 0.2945 0.2731 0.17788 0.3086 0.3896 0.4081 0.2929
3809.731 0.17822 0.2945 0.3135 0.2482 0.2833 0.3288 0.2527 0.2208 0.19852 0.15068
3829.021 0.21165 0.2607 0.20338 0.3334 0.3437 0.16912 0.18114 0.2713 0.2705 0.13382
3848.311 0.0865 0.119578 0.12624 0.18506 0.3944 0.4071 0.21201 0.14905 0.20018 0.20561
3867.601 0.0666 0.11175 0.2308 0.20521 0.1751 0.11075 0.0987 0.0489 0.11499 0.2175
3886.890 0.18794 0.125796 0.0468 0.18848 0.3904 0.2924 0.119144 0.18433 0.2248 0.16253
3906.180 0.15416 0.13867 0.0975 0.2318 0.2815 0.16488 0.16762 0.2485 0.322 0.3192
3925.470 0.289 0.14498 0.0226 0.2871 0.464 0.3823 0.2204 0.1026 0.14147 0.124612
3944.760 0.0691 0.0498 0.17569 0.3426 0.466 0.433 0.3218 0.247 0.4104 0.4999
3964.049 0.3831 0.3689 0.4106 0.5024 0.4441 0.3094 0.3775 0.4346 0.3661 0.2977
3983.339 0.2869 0.3297 0.3204 0.2524 0.2236 0.3569 0.4712 0.3693 0.19831 0.2899
##END=
