##TITLE=2-Phenoxybutyric acid
##JCAMP-DX=4.24
##DATA TYPE=INFRARED SPECTRUM
##ORIGIN=EPA-IR VAPOR PHASE LIBRARY
##OWNER=SRD/NIST
Collection (C) 2018 copyright by the U.S. Secretary of Commerce
on behalf of the United States of America. All rights reserved.
##CAS REGISTRY NO=13794-14-4
##MOLFORM=C 10 H 12 O 3
##$NIST SOURCE=MSDC-IR
##STATE=gas
##XUNITS=1/CM
##YUNITS=ABSORBANCE
##XFACTOR=1.
##YFACTOR=0.001
##DELTAX=1.92898
##FIRSTX=549.8
##LASTX=4000.7
##FIRSTY=28.28
##MAXX=4000.7
##MINX=549.759
##MAXY=0.18924
##MINY=0.0001101
##NPOINTS=1790
##XYDATA=(X++(Y..Y))
549.759 28.28 28.89 29.24 29.63 29.98 30.33 30.44 30.31 30.36 30.29
569.049 30 29.45 28.94 28.47 27.87 27.36 27.03 26.59 26.31 26.28
588.339 26.15 26.1 25.97 25.72 25.34 25.02 24.76 24.38 24.09 23.98
607.628 23.84 23.8 23.93 24.04 24.17 24.38 24.6 24.72 24.84 24.86
626.918 24.91 24.96 24.96 25.06 25.02 24.73 24.49 24.14 23.38 22.52
646.208 21.57 20.46 19.28 18.13 17.21 16.38 15.53 14.89 14.46 14.27
665.498 14.27 14.37 14.74 15.44 16.46 17.9 19.77 22.01 24.59 27
684.787 29.13 30.75 31.44 31.16 30.08 28.35 26.08 23.6 21.34 19.33
704.077 17.52 16.01 14.97 14.38 13.92 13.77 13.85 14.02 14.42 15.01
723.367 15.73 16.59 17.59 18.92 20.59 22.43 24.78 27.72 31.12 34.97
742.657 39.03 43.14 46.99 50.03 51.87 52.22 51.09 48.72 45.37 41.53
761.947 37.54 33.71 30.26 27 24.28 21.99 19.91 18.12 16.47 14.91
781.236 13.64 12.35 11 9.89 8.95 8.11 7.5 6.95 6.44 6.32
800.526 6.31 6.39 6.55 6.64 6.79 6.94 7.14 7.34 7.56 8.05
819.816 8.71 9.45 10.39 11.49 12.58 13.65 14.66 15.21 15.21 14.87
839.106 14.09 13.07 11.83 10.52 9.32 8.28 7.54 7.09 7.01 7.05
858.395 7.04 7.15 7.39 7.6 7.91 8.28 8.56 8.73 8.92 9.16
877.685 9.33 9.43 9.48 9.53 9.55 9.39 9.08 8.85 8.75 8.65
896.975 8.47 8.37 8.43 8.47 8.52 8.65 8.81 9.01 9.29 9.4
916.265 9.41 9.58 9.77 9.86 9.91 9.97 9.96 9.9 9.74 9.49
935.555 9.17 8.84 8.55 8.22 7.94 7.71 7.6 7.58 7.49 7.45
954.844 7.64 7.99 8.38 8.88 9.47 10.25 11.35 12.59 13.97 15.53
974.134 17.19 18.95 20.74 22.45 23.85 25.05 26.1 26.59 26.84 26.78
993.424 26.27 25.81 25.53 24.93 24.06 23.41 22.76 22.05 21.45 20.91
1012.714 20.37 20.35 20.97 21.96 23.38 24.72 25.51 26.2 26.91 27.44
1032.003 27.78 28 28.4 29.46 31.27 33.44 35.63 37.79 39.97 41.55
1051.293 42.54 42.94 42.85 42.57 42.16 42 42.07 42.54 43.52 44.93
1070.583 46.97 49.32 51.84 54.7 57.89 61.41 65.4 69.96 74.96 80.24
1089.873 85.42 90.45 94.7 97.9 99.61 99.54 97.99 94.5 89.09 82.49
1109.163 75.66 68.89 62.52 57.03 52.31 48.4 45.31 42.82 41.02 39.75
1128.452 38.66 37.88 37.51 37.61 37.96 38.62 39.76 41.12 42.81 44.97
1147.742 47.58 50.18 52.56 54.93 57.25 59.44 61.64 63.54 64.95 65.75
1167.032 65.99 65.37 63.63 61.22 57.9 53.73 49.08 44.66 40.99 37.88
1186.322 35.53 33.99 33.16 33.22 34.1 35.66 38.22 41.75 46.22 51.8
1205.611 58.74 66.91 75.89 85.42 95.1 104.86 114.81 124.79 135.15 145.72
1224.901 156.55 167.53 177.37 185.17 189.24 188.31 182.13 170.96 155.43 136.5
1244.191 115.81 95.81 78.67 65.37 55.77 49.14 44.63 41.57 39.48 38.09
1263.481 37.31 36.75 36.43 36.42 36.44 36.57 36.7 36.63 36.62 36.49
1282.771 36.14 35.75 35.38 35.01 34.7 34.52 34.37 34.18 33.98 33.75
1302.060 33.6 33.51 33.53 33.76 34.23 34.97 36 37.25 38.62 40.05
1321.350 41.56 43.1 44.52 45.82 46.9 47.74 48.36 48.7 48.72 48.47
1340.640 47.98 47.27 46.36 45.29 44.19 43.18 42.29 41.5 40.82 40.29
1359.930 39.87 39.51 39.12 38.61 37.96 37.14 36.13 34.95 33.67 32.33
1379.219 30.92 29.57 28.22 26.9 25.58 24.18 22.77 21.26 19.6 17.92
1398.509 16.26 14.65 13.27 12.09 11.11 10.31 9.69 9.17 8.74 8.41
1417.799 8.24 8.09 7.93 7.86 7.87 7.97 8.17 8.46 8.91 9.44
1437.089 10.08 10.78 11.51 12.23 12.89 13.51 14.19 14.88 15.6 16.35
1456.378 17.2 18.08 18.92 19.84 20.75 21.69 22.63 23.76 25.27 27.41
1475.668 30.46 35.08 41.78 51.43 64.29 79.77 96.14 110.23 119.5 122.97
1494.958 120.7 113.17 101.03 84.63 65.83 48.64 34.62 25.01 19.19 15.33
1514.248 12.79 11.04 9.7 8.78 8.07 7.42 6.94 6.59 6.25 6.02
1533.538 5.87 5.71 5.64 5.63 5.71 5.8 5.92 6.14 6.41 6.71
1552.827 7.05 7.5 8.05 8.75 9.6 10.55 11.73 13.18 14.94 17.17
1572.117 19.78 22.77 26.49 30.88 35.7 41.25 47.25 53.58 59.98 66.12
1591.407 71.28 74.76 75.86 74.11 69.75 63.47 55.97 47.79 39.64 32
1610.697 25.54 20.41 16.62 13.76 11.58 10 8.78 7.85 7.12 6.49
1629.986 5.97 5.56 5.21 4.89 4.59 4.33 4.08 3.88 3.73 3.61
1649.276 3.46 3.3 3.2 3.12 3.02 2.94 2.96 2.99 3.01 3.06
1668.566 3.07 3.1 3.15 3.2 3.28 3.35 3.49 3.63 3.76 3.89
1687.856 4.05 4.26 4.45 4.6 4.77 4.96 5.12 5.32 5.59 5.84
1707.146 6.12 6.48 6.87 7.31 7.8 8.41 9.1 9.8 10.59 11.44
1726.435 12.34 13.28 14.3 15.32 16.46 17.63 18.85 20.32 21.94 23.77
1745.725 25.85 28.31 31.2 34.78 39.07 44.14 50.49 57.74 66.11 75.37
1765.015 84.45 92.83 100.02 105.06 107.79 108.12 106.63 104.23 101.98 101.1
1784.305 102.19 105.24 109.96 115.61 121.43 126.32 128.94 128.69 125.35 119.37
1803.594 111.21 101.3 90.27 78.88 67.85 57.88 49.34 42.21 36.44 31.74
1822.884 27.95 24.88 22.34 20.24 18.48 16.99 15.71 14.55 13.52 12.62
1842.174 11.78 11 10.33 9.71 9.07 8.51 7.98 7.5 7.07 6.64
1861.464 6.23 5.83 5.48 5.14 4.79 4.46 4.18 3.9 3.67 3.45
1880.754 3.27 3.15 3.05 2.93 2.82 2.74 2.7 2.68 2.68 2.67
1900.043 2.71 2.75 2.79 2.9 3.04 3.15 3.24 3.39 3.55 3.69
1919.333 3.79 3.86 3.91 3.92 3.88 3.83 3.78 3.71 3.68 3.61
1938.623 3.56 3.5 3.38 3.29 3.14 2.92 2.71 2.5 2.35 2.19
1957.913 2.03 1.94 1.88 1.83 1.8 1.8 1.84 1.87 1.86 1.91
1977.202 1.92 1.91 1.92 1.95 2 2.03 2.05 2.04 2.09 2.14
1996.492 2.15 2.16 2.16 2.16 2.15 2.14 2.14 2.11 2.06 2
2015.782 1.96 1.92 1.9 1.92 1.92 1.9 1.88 1.88 1.87 1.89
2035.072 1.93 1.95 2 2.06 2.13 2.19 2.22 2.23 2.25 2.33
2054.362 2.39 2.39 2.37 2.34 2.31 2.29 2.29 2.25 2.16 2.09
2073.651 2.02 1.97 1.91 1.79 1.68 1.63 1.53 1.42 1.39 1.37
2092.941 1.29 1.25 1.24 1.21 1.16 1.12 1.13 1.09 1.08 1.11
2112.231 1.08 1.05 1.03 1.02 1.01 0.9952 0.9924 1.01 1.01 1.02
2131.521 0.9856 0.9589 0.9534 0.9511 0.9505 0.9258 0.9203 0.9049 0.9036 0.9365
2150.810 0.9292 0.8902 0.8725 0.8739 0.8916 0.8884 0.855 0.8747 0.8952 0.8941
2170.100 0.9243 0.9504 0.948 0.949 0.979 1.02 1.01 0.9642 0.9858 1.02
2189.390 1.05 1.07 1.06 1.03 1.05 1.09 1.1 1.07 1.04 1.03
2208.680 0.9899 0.9895 0.9943 0.9822 1.01 1.02 0.9747 0.9483 0.9597 0.9452
2227.970 0.9329 0.9282 0.9304 0.9425 0.9437 0.9364 0.9585 0.9581 0.9342 0.9421
2247.259 0.9218 0.8981 0.921 0.9406 0.9542 0.9534 0.9286 0.9083 0.8941 0.8863
2266.549 0.8725 0.885 0.8964 0.8873 0.9154 0.9228 0.8821 0.8572 0.8742 0.8909
2285.839 0.8688 0.863 0.9197 0.9687 0.9662 0.9476 0.9868 1.04 1.09 1.17
2305.129 1.25 1.3 1.35 1.38 1.41 1.45 1.45 1.47 1.5 1.49
2324.418 1.53 1.59 1.56 1.51 1.48 1.5 1.44 1.36 1.34 1.29
2343.708 1.24 1.18 1.19 1.23 1.23 1.22 1.22 1.21 1.22 1.19
2362.998 1.2 1.22 1.24 1.28 1.26 1.24 1.2 1.19 1.19 1.22
2382.288 1.23 1.27 1.31 1.31 1.34 1.36 1.41 1.48 1.49 1.51
2401.578 1.53 1.55 1.59 1.65 1.68 1.7 1.74 1.77 1.78 1.83
2420.867 1.94 1.96 1.95 2 2.02 2.05 2.12 2.11 2.15 2.13
2440.157 2.1 2.12 2.12 2.13 2.11 2.08 2.06 2.03 2.01 2
2459.447 1.99 1.98 1.94 1.88 1.84 1.79 1.75 1.7 1.61 1.54
2478.737 1.5 1.47 1.43 1.31 1.3 1.34 1.33 1.3 1.27 1.28
2498.026 1.28 1.33 1.36 1.35 1.35 1.34 1.33 1.4 1.41 1.33
2517.316 1.34 1.33 1.3 1.3 1.31 1.27 1.24 1.23 1.23 1.2
2536.606 1.19 1.21 1.14 1.1 1.1 1.07 1.01 0.9806 1.02 1.06
2555.896 0.984 0.9265 0.9568 0.9546 0.9418 0.9246 0.8973 0.8733 0.8838 0.915
2575.186 0.9589 0.9361 0.8604 0.8696 0.8634 0.7971 0.7518 0.7844 0.8215 0.7932
2594.475 0.8167 0.8153 0.7524 0.779 0.7733 0.7043 0.6684 0.696 0.6964 0.6301
2613.765 0.6836 0.7293 0.7101 0.6781 0.5806 0.5819 0.643 0.6121 0.602 0.5785
2633.055 0.5604 0.6021 0.5967 0.5806 0.5464 0.4719 0.4484 0.4993 0.5093 0.5011
2652.345 0.497 0.466 0.5035 0.5398 0.5242 0.5227 0.5141 0.4761 0.4676 0.4609
2671.634 0.4838 0.4973 0.4655 0.4366 0.4307 0.46 0.5001 0.5586 0.5696 0.5735
2690.924 0.5659 0.5525 0.5309 0.5138 0.5537 0.5658 0.5937 0.6633 0.7009 0.6205
2710.214 0.5594 0.608 0.6649 0.7174 0.7205 0.6935 0.7114 0.762 0.7498 0.7285
2729.504 0.7807 0.7744 0.7901 0.8378 0.8218 0.7982 0.7921 0.7959 0.8041 0.8672
2748.794 0.9163 0.924 0.9307 0.9263 0.8885 0.8983 0.96 0.9928 1.04 1.06
2768.083 0.9836 0.9763 1.01 1.02 1.09 1.08 1.03 1.05 1.04 0.984
2787.373 0.9672 0.9672 0.9526 1 1.07 1.08 1.09 1.08 1.1 1.12
2806.663 1.16 1.17 1.19 1.25 1.28 1.27 1.32 1.47 1.52 1.48
2825.953 1.52 1.55 1.63 1.78 1.86 1.94 2.02 2.13 2.21 2.31
2845.242 2.49 2.64 2.8 2.91 3.04 3.36 3.71 4.07 4.43 4.75
2864.532 5.16 5.54 5.91 6.36 6.86 7.42 7.94 8.56 9.38 10.36
2883.822 11.38 12.26 13.03 13.69 14.08 14.21 14.09 13.74 13.19 12.59
2903.112 12.11 11.71 11.45 11.42 11.58 11.77 12.08 12.47 12.95 13.48
2922.401 14.12 14.89 15.66 16.47 17.48 18.74 20.1 21.52 23.03 24.65
2941.691 26.07 27.16 28.05 28.56 28.63 28.52 28.22 27.67 26.91 26.13
2960.981 25.56 25.3 25.48 26.32 27.89 29.88 32.23 34.72 37.03 38.7
2980.271 39.54 39.72 38.98 37.42 35.22 32.4 29.05 25.54 22.15 18.85
2999.561 15.84 13.45 11.59 10.14 9.22 8.62 8.23 8.06 8.03 8.12
3018.850 8.32 8.55 8.89 9.33 9.88 10.58 11.38 12.37 13.47 14.55
3038.140 15.71 16.76 17.51 18.05 18.28 18.19 17.81 17.15 16.46 15.74
3057.430 15.23 15.09 15.25 15.72 16.36 17.18 18.21 19.37 20.44 21.35
3076.720 21.91 21.93 21.56 20.79 19.78 18.59 17.16 15.63 14.36 13.53
3096.009 12.91 12.39 11.87 11.3 10.66 9.87 9.03 8.06 7.09 6.23
3115.299 5.35 4.56 3.89 3.32 2.87 2.58 2.38 2.17 1.99 1.83
3134.589 1.6 1.49 1.46 1.35 1.3 1.31 1.3 1.3 1.32 1.26
3153.879 1.14 1.13 1.1 1.05 1.03 1 0.9391 0.9762 1.02 1.01
3173.169 1.02 1.01 0.9622 0.8465 0.7709 0.763 0.7992 0.8549 0.7592 0.6542
3192.458 0.6901 0.687 0.666 0.6762 0.663 0.6753 0.7153 0.6438 0.6213 0.6072
3211.748 0.5018 0.4689 0.4908 0.431 0.3038 0.362 0.4615 0.4514 0.3924 0.3307
3231.038 0.3268 0.4131 0.4139 0.3454 0.4794 0.4699 0.325 0.3642 0.4499 0.4606
3250.328 0.4442 0.4708 0.4546 0.4445 0.4577 0.4572 0.4203 0.3769 0.4418 0.4919
3269.617 0.4944 0.4406 0.3286 0.3063 0.3689 0.3951 0.3276 0.2858 0.2961 0.3184
3288.907 0.3435 0.315 0.2705 0.3503 0.3581 0.2696 0.3003 0.3623 0.3318 0.2647
3308.197 0.2668 0.1941 0.18 0.2658 0.2333 0.2048 0.2903 0.331 0.3225 0.2616
3327.487 0.1874 0.2228 0.2579 0.1924 0.2206 0.2667 0.2915 0.2403 0.1666 0.2422
3346.777 0.1922 0.1436 0.2411 0.3521 0.3303 0.2653 0.263 0.1601 0.1101 0.1572
3366.066 0.2313 0.3173 0.2909 0.2809 0.296 0.2573 0.2723 0.3709 0.47 0.4331
3385.356 0.3909 0.3837 0.3354 0.4153 0.503 0.4235 0.4328 0.4756 0.5181 0.5592
3404.646 0.5195 0.5049 0.5858 0.5864 0.4998 0.4878 0.4379 0.5154 0.57 0.5988
3423.936 0.6743 0.6949 0.7411 0.7511 0.8112 0.9355 0.9291 0.8959 0.9513 1.02
3443.225 1.03 1.1 1.23 1.3 1.36 1.49 1.71 1.76 1.83 2.02
3462.515 2.13 2.23 2.45 2.64 2.78 3.17 3.57 3.97 4.54 5.17
3481.805 5.76 6.4 7.16 8.11 9.03 9.96 11.06 12.05 13.06 14.03
3501.095 14.73 15.37 15.98 16.42 16.66 16.77 16.77 16.71 16.7 16.39
3520.385 15.89 15.57 15.23 14.73 14.2 13.62 13.09 12.62 12.08 11.6
3539.674 11.26 10.99 10.82 10.74 10.91 11.44 12.37 14.04 16.65 20.27
3558.964 25.09 31.28 38.58 45.92 52.31 56.96 59.01 58.6 56.39 52.3
3578.254 45.91 37.97 29.92 22.77 17.02 12.64 9.49 7.34 5.89 5.03
3597.544 4.36 3.77 3.38 3.1 2.91 2.73 2.36 2.13 2.19 2.05
3616.833 1.77 1.63 1.53 1.41 1.3 1.28 1.3 1.25 1.14 1.02
3636.123 0.9052 0.8543 0.8727 0.8318 0.8002 0.7965 0.8481 0.8136 0.7197 0.7598
3655.413 0.7688 0.7137 0.6989 0.7168 0.6819 0.7038 0.7563 0.7372 0.7782 0.7282
3674.703 0.6494 0.719 0.7017 0.5733 0.4891 0.4923 0.5842 0.6478 0.5552 0.4864
3693.993 0.555 0.5836 0.6175 0.6218 0.5945 0.5978 0.5753 0.5109 0.5039 0.599
3713.282 0.5711 0.4763 0.4489 0.4462 0.4209 0.4046 0.3311 0.3199 0.476 0.5205
3732.572 0.5404 0.6189 0.5986 0.6233 0.5497 0.4684 0.3901 0.2155 0.3715 0.4966
3751.862 0.404 0.4287 0.4515 0.3918 0.3618 0.393 0.3939 0.3453 0.3552 0.4043
3771.152 0.3902 0.3156 0.3731 0.4194 0.385 0.4155 0.316 0.3703 0.3886 0.3106
3790.441 0.3805 0.3579 0.3344 0.3581 0.452 0.4304 0.3119 0.2832 0.3489 0.4346
3809.731 0.4947 0.5449 0.5318 0.4578 0.3912 0.3252 0.2689 0.3195 0.3651 0.4214
3829.021 0.5066 0.4719 0.4461 0.4465 0.3927 0.5029 0.4862 0.3987 0.4024 0.3937
3848.311 0.4213 0.4017 0.3785 0.303 0.3269 0.6094 0.6676 0.5006 0.4178 0.4362
3867.601 0.5155 0.5646 0.4967 0.4155 0.4284 0.4318 0.4007 0.3377 0.3921 0.2904
3886.890 0.2754 0.4664 0.419 0.4258 0.507 0.418 0.4046 0.5275 0.4818 0.4628
3906.180 0.5474 0.5699 0.5525 0.4441 0.3922 0.4487 0.3681 0.3878 0.4268 0.3874
3925.470 0.3406 0.3216 0.4062 0.3871 0.4422 0.386 0.3223 0.4086 0.4473 0.4926
3944.760 0.3313 0.2918 0.3983 0.3451 0.4376 0.5085 0.394 0.333 0.4007 0.497
3964.049 0.4458 0.4251 0.4794 0.483 0.4856 0.4935 0.3965 0.3826 0.3999 0.3912
3983.339 0.4699 0.4721 0.4609 0.3868 0.4207 0.5321 0.5571 0.6228 0.7341 0.6286
##END=
