##TITLE=Mafenide
##JCAMP-DX=4.24
##DATA TYPE=INFRARED SPECTRUM
##ORIGIN=NIST Mass Spectrometry Data Center
##OWNER=NIST Standard Reference Data Program
Collection (C) 2018 copyright by the U.S. Secretary of Commerce
on behalf of the United States of America. All rights reserved.
##CAS REGISTRY NO=138-39-6
##MOLFORM=C 7 H 10 N 2 O 2 S
##$NIST SOURCE=MSDC-IR
##SPECTROMETER/DATA SYSTEM=HP-GC/MS/IRD
##STATE=gas
##XUNITS=1/CM
##YUNITS=ABSORBANCE
##XFACTOR=1.0
##YFACTOR=0.000001300
##DELTAX=4.0
##FIRSTX=550.0
##LASTX=3846.0
##FIRSTY=0.000850
##MAXX=3846
##MINX=550
##MAXY=0.013
##MINY=0
##NPOINTS=825
##XYDATA=(X++(Y..Y))
550.0 654 402 314 326 307 336 351 360 405 424
590.0 372 392 367 283 269 271 271 300 362 420
630.0 501 614 621 469 312 248 210 148 95 108
670.0 115 87 87 87 83 82 103 136 166 202
710.0 217 217 212 183 175 160 134 128 151 261
750.0 500 928 1525 2056 2069 1531 940 567 407 340
790.0 227 120 89 50 5 1 85 185 209 249
830.0 319 269 180 134 110 82 56 58 81 99
870.0 114 177 243 259 236 158 95 78 64 67
910.0 83 98 116 134 130 126 148 193 245 267
950.0 223 180 170 147 131 136 152 178 216 288
990.0 365 421 425 366 309 300 359 487 674 963
1030.0 1253 1319 1113 821 635 552 518 512 475 409
1070.0 389 453 561 697 834 938 1076 1223 1339 1481
1110.0 1595 1596 1433 1204 1056 1000 1010 1080 1119 1081
1150.0 1028 973 890 773 667 570 530 546 591 683
1190.0 807 901 974 1133 1387 1618 1696 1569 1325 1067
1230.0 833 672 597 594 621 726 896 1077 1288 1524
1270.0 1743 1868 1788 1530 1247 1076 1012 940 837 751
1310.0 676 640 673 741 733 672 613 569 545 535
1350.0 538 563 607 656 752 899 989 973 869 752
1390.0 694 686 698 751 834 940 1081 1287 1537 1797
1430.0 2079 2452 2987 3664 4396 5139 5773 6292 6787 7387
1470.0 8164 9079 9827 10000 9321 7934 6313 4876 3849 3136
1510.0 2613 2239 1912 1653 1453 1280 1134 994 875 781
1550.0 690 609 541 525 526 503 478 463 465 494
1590.0 516 501 475 433 376 331 307 288 276 259
1630.0 261 277 290 305 314 309 320 357 391 447
1670.0 507 571 653 758 967 1305 1798 2534 3600 4900
1710.0 6133 6744 6415 5302 3923 2695 1783 1220 883 653
1750.0 515 440 387 364 345 307 263 220 170 149
1790.0 144 114 102 103 105 100 85 81 81 80
1830.0 90 107 115 112 109 107 93 70 50 47
1870.0 46 42 47 44 42 55 60 67 78 90
1910.0 104 114 122 119 111 92 58 44 41 38
1950.0 34 34 34 23 12 12 21 22 16 23
1990.0 32 35 29 20 27 22 2 9 27 38
2030.0 35 30 30 29 27 29 36 43 40 35
2070.0 30 25 28 34 22 18 26 20 25 27
2110.0 19 16 21 26 29 28 23 20 19 25
2150.0 30 26 11 15 22 13 12 20 18 18
2190.0 27 20 8 8 16 23 26 18 10 18
2230.0 11 6 15 13 20 29 25 30 26 16
2270.0 26 32 20 24 27 24 22 19 22 28
2310.0 40 32 9 8 18 37 43 21 14 12
2350.0 8 7 8 11 11 4 8 17 24 27
2390.0 24 21 18 17 17 13 16 29 22 10
2430.0 5 0 8 21 16 22 24 9 6 11
2470.0 11 19 17 15 18 9 7 10 8 5
2510.0 9 19 24 30 39 25 16 20 14 26
2550.0 23 15 17 5 4 18 21 31 32 34
2590.0 32 30 39 35 33 40 42 47 54 63
2630.0 73 91 100 113 138 143 140 144 170 182
2670.0 167 162 159 164 175 195 225 252 291 341
2710.0 394 456 504 526 514 467 421 392 359 347
2750.0 364 390 415 464 544 640 771 949 1113 1323
2790.0 1656 2153 2618 2723 2405 1956 1647 1507 1504 1607
2830.0 1686 1616 1439 1312 1342 1533 1874 2337 2768 2971
2870.0 2914 2639 2282 2004 1845 1814 1831 1864 1927 2041
2910.0 2217 2453 2807 3354 4042 4783 5585 6757 8234 8985
2950.0 8201 6430 4814 3708 2943 2429 2119 1905 1738 1599
2990.0 1474 1358 1191 984 830 739 713 732 783 835
3030.0 869 903 944 1002 1074 1145 1205 1224 1193 1124
3070.0 1035 917 798 672 534 429 349 278 226 180
3110.0 148 119 118 125 97 96 107 91 56 42
3150.0 61 58 59 69 59 55 68 56 47 66
3190.0 55 65 79 87 87 73 59 75 93 80
3230.0 67 63 75 86 100 99 100 112 108 128
3270.0 144 134 158 178 196 227 228 221 213 224
3310.0 263 296 349 415 467 514 546 553 571 603
3350.0 609 603 593 608 664 748 908 1172 1411 1450
3390.0 1269 979 721 544 416 329 299 258 233 221
3430.0 194 201 213 203 197 172 143 121 90 64
3470.0 60 61 64 63 49 50 56 65 66 61
3510.0 58 40 33 31 31 47 56 52 42 48
3550.0 61 72 66 65 62 51 42 45 59 39
3590.0 10 0 19 50 53 49 64 68 55 45
3630.0 44 48 50 45 41 37 38 49 51 48
3670.0 37 28 50 70 60 48 47 42 51 67
3710.0 58 43 57 60 62 57 45 54 45 41
3750.0 58 76 70 40 37 78 93 96 91 49
3790.0 50 63 63 71 66 72 63 58 74 57
3830.0 60 86 92 95 83
##END=
