##TITLE=4-Isopropylbenzonitrile
##JCAMP-DX=4.24
##DATA TYPE=INFRARED SPECTRUM
##ORIGIN=EPA-IR VAPOR PHASE LIBRARY
##OWNER=SRD/NIST
Collection (C) 2018 copyright by the U.S. Secretary of Commerce
on behalf of the United States of America. All rights reserved.
##CAS REGISTRY NO=13816-33-6
##MOLFORM=C 10 H 11 N
##$NIST SOURCE=MSDC-IR
##STATE=gas
##XUNITS=1/CM
##YUNITS=ABSORBANCE
##XFACTOR=1.
##YFACTOR=0.001
##DELTAX=1.92898
##FIRSTX=549.8
##LASTX=4000.7
##FIRSTY=17.302
##MAXX=4000.7
##MINX=549.759
##MAXY=0.148412
##MINY=0
##NPOINTS=1790
##XYDATA=(X++(Y..Y))
549.759 17.302 20.432 23.922 27.622 29.802 31.822 34.002 35.032 33.572 30.142
569.049 27.402 25.402 23.282 20.132 16.342 14.242 12.482 10.202 8.682 6.522
588.339 4.822 3.862 3.822 4.622 3.612 2.132 2.072 1.642 1.482 1.962
607.628 1.992 1.832 1.692 1.1959 0.6662 0.851 1.912 2.602 1.952 1.412
626.918 1.582 2.072 1.942 1.672 2.102 2.562 2.252 2.042 2.192 2.472
646.208 2.492 2.432 2.472 2.442 2.612 2.842 3.002 3.112 3.482 3.312
665.498 3.092 3.032 2.582 2.182 1.962 2.212 2.232 1.862 1.682 1.0556
684.787 1.1213 2.062 1.912 1.462 1.512 1.222 0.9992 1.1347 1.482 1.662
704.077 1.492 1.352 1.582 1.592 1.382 1.382 1.572 1.602 1.412 1.542
723.367 2.022 2.172 2.072 2.432 2.292 2.032 2.552 3.222 3.372 2.912
742.657 2.342 2.112 2.312 2.562 2.272 2.052 1.922 1.602 1.1206 1.1666
761.947 1.662 1.662 1.662 1.752 1.772 1.792 2.142 2.372 2.382 2.772
781.236 2.932 2.612 2.232 2.832 3.082 2.902 3.542 4.012 4.662 5.072
800.526 5.682 6.462 7.142 7.942 8.892 10.092 11.642 13.742 16.482 19.692
819.816 23.652 28.582 33.032 37.312 41.772 46.222 50.722 55.202 56.832 53.282
839.106 48.392 44.392 40.622 35.912 30.862 25.722 20.852 16.622 13.162 10.572
858.395 8.622 7.402 6.522 5.742 4.782 4.312 4.242 3.862 3.532 3.612
877.685 3.802 3.532 2.882 2.832 2.912 2.932 3.122 3.042 2.512 2.122
896.975 2.172 2.382 2.312 2.012 1.932 1.672 1.302 1.372 1.622 1.682
916.265 1.952 2.232 2.122 2.292 2.102 2.292 2.522 2.292 2.532 2.272
935.555 2.162 2.082 1.442 1.342 1.972 2.032 1.822 1.522 1.252 1.982
954.844 1.842 1.622 1.822 1.512 1.712 1.452 1.382 1.752 1.702 1.572
974.134 1.612 1.932 1.802 1.842 1.822 1.502 1.482 1.522 1.272 1.2092
993.424 1.442 1.412 1.692 2.632 3.572 4.142 4.952 5.872 7.412 8.872
1012.714 9.872 11.162 11.792 11.592 11.022 10.942 10.302 8.192 6.222 5.382
1032.003 4.492 4.192 4.042 4.332 5.522 6.172 6.882 9.122 12.402 13.622
1051.293 14.892 17.262 18.152 18.522 18.192 17.432 16.612 15.242 13.132 9.872
1070.583 8.182 6.662 5.122 6.212 6.742 6.242 5.812 5.352 5.392 5.062
1089.873 5.852 6.662 6.762 6.382 5.812 5.792 5.612 7.182 6.922 6.772
1109.163 7.402 6.342 6.182 5.142 5.102 5.982 5.582 4.202 3.072 3.552
1128.452 3.712 3.652 3.712 3.092 2.792 2.502 3.472 3.862 3.662 3.422
1147.742 2.492 2.412 2.592 2.392 2.002 1.402 1.262 1.932 1.452 0.9756
1167.032 0.8783 0.8507 1.772 2.142 2.492 2.452 1.692 1.932 3.022 3.372
1186.322 3.002 3.172 2.102 1.1845 1.972 2.702 2.982 2.342 1.312 2.192
1205.611 3.272 3.262 2.612 1.822 2.162 2.902 2.992 1.242 1.402 1.712
1224.901 1.272 1.682 2.422 3.062 2.712 2.432 1.752 1.712 1.662 1.872
1244.191 2.192 2.552 2.892 2.592 2.242 2.672 3.552 4.322 4.652 4.452
1263.481 5.142 6.042 6.442 6.642 6.132 6.022 6.072 5.732 5.302 4.992
1282.771 5.302 5.602 5.652 6.202 7.402 8.242 8.832 9.152 9.362 9.502
1302.060 9.402 8.882 8.232 7.602 7.062 6.552 5.852 5.492 5.242 5.222
1321.350 5.172 5.102 5.232 5.352 5.492 5.602 5.852 6.222 6.512 6.872
1340.640 7.422 7.582 7.822 8.292 8.652 8.852 8.772 8.762 8.712 8.742
1359.930 8.942 8.982 8.992 9.192 9.622 10.132 10.462 10.692 10.822 10.962
1379.219 11.342 11.612 11.872 12.422 12.672 12.712 12.832 12.942 13.082 12.922
1398.509 12.862 12.902 12.822 12.672 12.742 12.672 12.582 12.582 12.122 11.672
1417.799 11.402 10.952 10.322 9.942 9.252 8.512 8.232 7.762 7.332 7.352
1437.089 7.282 7.502 7.962 8.302 8.942 9.692 10.512 11.442 12.562 13.562
1456.378 14.342 15.242 15.972 16.452 16.782 16.712 16.512 16.262 15.682 15.002
1475.668 14.512 13.702 12.872 12.392 12.352 12.702 13.532 15.452 17.912 20.572
1494.958 23.412 26.352 28.752 29.992 30.562 30.502 29.672 28.342 26.272 23.582
1514.248 20.692 17.912 15.672 13.842 11.882 10.052 8.092 6.112 4.642 3.592
1533.538 3.102 2.992 2.762 2.482 2.312 2.132 2.142 2.322 2.352 2.282
1552.827 2.382 2.532 2.372 2.352 2.622 2.462 2.102 2.032 2.122 2.282
1572.117 2.202 2.352 2.542 2.342 2.292 2.312 2.732 3.192 3.622 4.592
1591.407 5.732 6.972 8.642 10.542 12.792 15.602 18.192 19.972 20.962 21.352
1610.697 20.592 19.232 17.822 15.542 12.332 9.332 7.052 5.362 4.392 3.782
1629.986 3.392 3.182 3.222 3.162 3.052 3.292 3.472 3.462 3.382 3.412
1649.276 3.572 3.742 4.172 4.502 4.592 4.832 5.032 5.102 4.992 4.912
1668.566 4.872 4.592 4.402 4.162 3.672 3.312 3.052 2.822 2.532 2.292
1687.856 2.342 2.262 1.962 1.852 1.792 1.722 1.572 1.472 1.402 1.2088
1707.146 1.1192 1.1376 1.322 1.542 1.402 1.282 1.362 1.292 1.302 1.482
1726.435 1.572 1.572 1.292 1.2015 1.312 1.272 1.1712 1.1542 1.1741 1.1073
1745.725 1.1869 1.322 1.262 1.2005 1.302 1.372 1.432 1.452 1.472 1.722
1765.015 2.012 2.122 2.332 2.642 2.792 3.002 3.242 3.482 3.512 3.452
1784.305 3.642 3.752 3.762 3.682 3.582 3.312 3.042 2.832 2.682 2.502
1803.594 2.122 1.902 1.702 1.562 1.492 1.242 1.1263 1.1699 1.1989 1.302
1822.884 1.1918 1.0721 1.1818 1.282 1.262 1.1847 1.1355 1.0941 1.0822 1.0147
1842.174 1.0386 1.0774 1.0447 1.0629 1.0417 1.0735 1.1846 1.1265 0.9398 1.0195
1861.464 1.322 1.352 1.312 1.462 1.432 1.282 1.292 1.342 1.312 1.382
1880.754 1.542 1.702 1.712 1.922 2.322 2.562 2.872 3.192 3.502 3.802
1900.043 4.062 4.342 4.542 4.722 4.822 4.932 4.972 4.852 4.672 4.432
1919.333 4.222 3.852 3.592 3.302 2.712 2.322 2.172 1.972 1.702 1.622
1938.623 1.612 1.492 1.452 1.542 1.452 1.212 1.1289 1.132 1.0637 1.0397
1957.913 1.0448 1.0228 1.1776 1.382 1.272 0.9813 0.9302 0.9649 0.9443 1.0268
1977.202 0.8365 0.813 0.9908 1.0394 1.0206 0.8335 0.7901 0.7568 0.7089 0.7772
1996.492 0.8001 0.8219 0.8177 0.8544 0.9101 0.9051 0.8315 0.6789 0.6935 0.8628
2015.782 1.0089 0.9471 0.7991 0.8312 0.7422 0.6831 0.7388 0.7834 0.7565 0.6065
2035.072 0.7029 0.9655 1.0122 0.948 0.8241 0.8371 1.1185 1.0049 0.8178 0.8909
2054.362 0.8609 0.9842 0.8723 0.7169 0.8355 0.8404 0.909 0.7842 0.5634 0.5866
2073.651 0.5794 0.7383 0.9216 0.8526 0.7979 0.7298 0.69 0.8363 0.8892 0.8477
2092.941 0.7977 0.6901 0.7666 0.7808 0.6536 0.7363 0.7938 0.5866 0.7017 0.7209
2112.231 0.4429 0.4449 0.5766 0.7423 0.859 0.7272 0.6452 0.6856 0.7297 0.7154
2131.521 0.7303 0.727 0.6811 0.7332 0.8247 0.8375 0.7988 0.797 0.9272 0.9279
2150.810 0.7966 0.8576 0.8198 0.7727 0.752 0.7884 0.7853 0.817 0.906 0.9
2170.100 0.8544 0.739 0.9305 1.302 1.1805 0.9331 1.0937 1.0336 1.0148 1.212
2189.390 1.0239 0.9951 0.9339 0.7968 1.1828 1.532 1.632 1.592 1.712 2.002
2208.680 2.202 2.492 3.182 4.362 5.862 7.932 10.512 13.782 17.752 21.702
2227.970 24.732 26.582 27.482 27.202 25.932 23.512 19.792 15.252 10.542 6.802
2247.259 4.472 3.192 2.552 2.322 2.212 1.812 1.392 1.442 1.452 1.502
2266.549 1.732 1.502 1.382 1.492 1.402 1.452 1.522 1.562 1.742 1.732
2285.839 1.472 1.372 1.342 1.342 1.582 1.532 1.312 1.412 1.452 1.212
2305.129 1.232 1.502 1.572 1.562 1.592 1.292 1.232 1.532 1.672 1.602
2324.418 1.562 1.612 1.392 1.242 1.352 1.412 1.402 1.2104 1.0588 1.1139
2343.708 1.232 1.0873 1.0638 1.312 1.342 1.422 1.372 1.312 1.532 1.682
2362.998 1.572 1.442 1.532 1.612 1.452 1.372 1.472 1.452 1.492 1.582
2382.288 1.642 1.532 1.352 1.422 1.592 1.742 1.822 1.792 1.662 1.562
2401.578 1.442 1.512 1.572 1.592 1.592 1.502 1.362 1.342 1.352 1.262
2420.867 1.412 1.372 1.262 1.1558 1.1785 1.1726 1.1803 1.2021 1.101 1.0836
2440.157 0.9958 1.0115 1.0822 1.18 1.1785 1.0885 1.1191 1.292 1.332 1.1775
2459.447 0.9645 0.9935 1.0917 1.0486 1.0959 1.382 1.592 1.582 1.602 1.562
2478.737 1.492 1.442 1.262 1.372 1.532 1.462 1.542 1.422 1.1948 1.1583
2498.026 1.0626 1.0551 1.1265 1.212 1.342 1.342 1.522 1.722 1.672 1.712
2517.316 1.532 1.402 1.502 1.432 1.622 1.932 1.772 1.662 1.812 1.942
2536.606 1.872 1.492 1.492 1.522 1.502 1.622 1.572 1.512 1.472 1.632
2555.896 1.602 1.382 1.592 1.672 1.642 1.712 1.492 1.442 1.662 1.892
2575.186 2.022 1.852 1.922 1.922 1.662 1.912 2.132 1.962 1.682 1.512
2594.475 1.512 1.572 1.752 1.842 1.672 1.562 1.682 1.812 1.802 1.542
2613.765 1.542 1.832 1.812 1.722 1.552 1.432 1.652 1.502 1.252 1.482
2633.055 1.582 1.412 1.332 1.392 1.492 1.552 1.482 1.442 1.582 1.282
2652.345 1.0725 1.232 1.242 1.412 1.642 1.602 1.422 1.432 1.592 1.612
2671.634 1.292 1.532 1.702 1.1686 1.312 1.622 1.432 1.292 1.312 1.432
2690.924 1.612 1.702 1.772 1.862 1.762 1.702 1.632 1.592 1.912 2.012
2710.214 1.922 1.802 1.762 1.812 1.712 1.852 1.962 1.942 1.992 2.042
2729.504 2.352 2.472 2.372 2.172 2.082 2.522 2.532 2.422 2.522 2.222
2748.794 1.892 1.962 2.102 2.012 1.862 1.992 2.052 2.262 2.722 2.632
2768.083 2.412 2.532 2.522 2.502 2.532 2.402 2.322 2.322 2.632 2.882
2787.373 2.662 2.612 2.772 2.702 2.582 2.742 2.982 3.022 3.102 3.472
2806.663 3.402 3.122 3.152 3.042 3.242 3.582 3.622 3.582 3.542 3.452
2825.953 3.592 3.872 3.762 3.652 3.892 4.222 4.432 4.522 4.562 4.722
2845.242 5.142 5.572 5.952 6.422 7.042 7.522 8.202 9.132 10.022 11.202
2864.532 12.532 14.152 16.172 18.302 20.232 22.662 24.942 26.902 28.882 30.312
2883.822 31.312 31.552 31.822 32.062 31.992 31.972 31.542 31.362 31.292 31.042
2903.112 31.222 31.622 32.112 32.402 32.662 32.472 32.002 32.342 32.382 32.672
2922.401 33.402 33.482 34.212 35.392 36.332 37.472 39.292 41.062 42.112 43.222
2941.691 43.962 44.222 44.462 44.452 44.682 45.772 47.462 50.442 55.912 64.532
2960.981 76.542 91.282 107.952 123.432 135.612 144.342 148.412 147.022 139.822 126.742
2980.271 109.732 91.522 73.592 57.762 45.242 36.002 29.692 25.192 21.502 19.132
2999.561 17.072 15.292 14.662 13.932 12.572 11.442 10.932 10.282 9.612 9.362
3018.850 9.152 9.152 8.902 9.142 10.252 10.982 11.892 12.972 14.142 15.172
3038.140 15.642 16.092 16.342 15.872 15.262 14.502 13.142 11.842 11.422 11.002
3057.430 10.192 9.642 9.472 9.202 9.012 9.072 9.052 8.822 8.572 8.942
3076.720 9.652 10.092 10.422 10.822 11.162 11.362 11.542 11.482 11.122 10.792
3096.009 10.702 10.432 9.702 8.812 8.112 7.902 7.552 7.032 6.552 6.192
3115.299 6.082 5.662 5.072 4.882 5.012 4.632 4.092 3.802 3.632 3.612
3134.589 3.522 3.662 3.562 3.182 2.962 2.922 3.032 2.892 2.682 2.102
3153.879 1.712 2.112 2.312 2.262 2.132 2.302 2.542 2.642 2.582 2.102
3173.169 2.172 2.492 2.472 2.352 2.322 2.242 2.472 2.522 2.302 2.572
3192.458 2.582 2.392 2.652 2.592 2.342 2.082 1.882 2.452 2.652 2.502
3211.748 2.492 1.912 1.652 2.302 2.372 1.982 1.832 1.782 1.752 1.992
3231.038 1.962 1.612 1.422 1.622 1.722 1.472 1.412 1.472 1.732 1.852
3250.328 1.342 1.0957 1.1699 1.0481 1.1131 1.0535 1.0636 1.1933 0.7798 0.6426
3269.617 1.013 1.1906 1.422 1.432 1.422 1.0878 0.8397 0.8773 0.8688 0.6322
3288.907 0.5441 0.4126 0.5735 1.054 1.1776 1.442 1.1105 0.8206 0.9687 0.6767
3308.197 0.30597 0.4513 0.6274 0.6231 0.4668 0.7552 1.1087 0.9688 0.7221 0.8151
3327.487 1.0024 0.8482 0.8846 0.6823 0.566 0.9273 1.0396 0.6729 0.3919 0.5415
3346.777 0.7594 0.813 0.6315 0.5883 0.7412 0.9435 1.332 1.382 1.0615 1.0304
3366.066 0.9208 0.8723 1.0612 1.1891 0.6752 0.5203 1.0493 0.8408 0.5979 1.0519
3385.356 1.1766 1.1349 1.362 1.362 1.452 1.372 1.302 1.702 1.902 2.062
3404.646 1.942 1.712 1.312 1.194 1.832 1.852 1.582 1.642 1.662 1.1829
3423.936 1.0113 1.262 1.572 1.552 1.402 1.452 1.322 1.462 1.442 1.232
3443.225 1.1271 0.9566 0.8144 0.4245 0.6645 1.1074 0.8279 0.7241 0.8667 1.0503
3462.515 1.0753 1.1432 1.412 1.0327 0.6115 0.8024 0.8422 0.7835 0.9262 1.1176
3481.805 1.1034 0.9383 0.8769 0.9448 0.8776 0.6464 0.8461 0.9381 0.686 0.9627
3501.095 0.9352 0.9092 1.1212 0.7464 0.674 1.0136 1.0728 1.0238 0.9842 0.4818
3520.385 0.1133 0.1641 0.3619 0.5593 0.5614 0.3676 0.4935 1.232 1.712 1.272
3539.674 0.9101 0.9043 0.7005 0.6127 0.7244 0.6094 0.19 0.06 0.26898 0.7071
3558.964 0.8156 0.5166 0.4536 0.448 0.4882 0.7971 0.5297 0.1542 0.6411 0.8837
3578.254 0.9563 0.6165 0.3256 0.7612 0.8219 0.9341 1.0295 0.8797 0.6775 0.7057
3597.544 1.1411 0.8849 0.421 0.24573 0.086 0.1846 0.1156 0.341 0.8104 0.5936
3616.833 0.4178 0.635 0.904 1.0933 0.9105 1.0119 0.8289 0.5369 0.852 0.982
3636.123 0.9225 0.6839 0.7373 0.7555 0.5074 0.3703 0.4576 0.7348 0.693 0.4383
3655.413 0.28376 0.24442 0.5225 0.8322 0.8448 0.6874 0.24755 0.28693 0.8619 1.1308
3674.703 0.6243 0 0.26219 0.4828 0.6034 0.7915 0.7543 0.733 0.6773 0.9423
3693.993 0.8536 0.7301 0.9033 0.9955 0.9114 0.7627 0.7404 0.8291 0.6934 0.4425
3713.282 0.26836 0.1505 0.4132 0.8518 1.1382 1.1195 1.0172 0.7454 0.5951 0.5042
3732.572 0.7188 0.8535 0.569 0.7478 1.232 1.0343 0.7611 0.8387 0.6415 0.5921
3751.862 0.7043 0.8644 0.9112 0.8 0.5974 0.9378 1.0872 0.9935 1.292 1.312
3771.152 0.8503 0.6486 0.8011 0.4989 0.28383 0.4137 0.929 1.292 1.292 1.0139
3790.441 0.9387 1.252 1.2056 1.1465 1.1293 0.634 0.1472 0.3458 0.6484 0.7244
3809.731 0.6787 0.7091 0.8667 0.8198 1.0411 0.8136 1.1114 1.332 0.7403 0.6639
3829.021 1.0773 1.382 1.242 1.1369 1.332 1.862 1.692 1.282 1.1805 0.9849
3848.311 0.8791 1.262 1.1179 0.6836 0.4991 0.5756 0.7611 0.5207 0.8155 1.432
3867.601 1.432 0.8215 0.9241 1.0808 0.852 0.9114 0.7529 0.9827 1.0511 0.8484
3886.890 1.1765 0.8383 0.7692 1.332 1.252 1.2075 1.1051 0.8999 0.5242 0.08
3906.180 0.4192 1.292 1.302 0.8892 1.1329 0.978 0.7524 1.1508 1.0715 1.0574
3925.470 1.862 1.912 1.302 0.7487 0.7888 1.332 1.1265 1.0279 0.9037 0.6901
3944.760 0.8961 0.7789 0.621 0.7007 1.1243 1.422 1.1607 0.9795 1.0717 1.1516
3964.049 0.8683 0.5661 0.718 0.8382 0.8792 0.909 1.0821 1.292 1.1263 0.8025
3983.339 0.5685 1.0405 1.372 1.1743 1.1222 0.64 0.25584 0.2392 0.4741 0.7809
##END=
