##TITLE=4-Methyl-1,4-heptadiene
##JCAMP-DX=4.24
##DATA TYPE=INFRARED SPECTRUM
##ORIGIN=NIST Mass Spectrometry Data Center
##OWNER=NIST Standard Reference Data Program
Collection (C) 2018 copyright by the U.S. Secretary of Commerce
on behalf of the United States of America. All rights reserved.
##CAS REGISTRY NO=13857-55-1
##MOLFORM=C 8 H 14
##$NIST SOURCE=MSDC-IR
##SPECTROMETER/DATA SYSTEM=HP-GC/MS/IRD
##STATE=gas
##XUNITS=1/CM
##YUNITS=ABSORBANCE
##XFACTOR=1.0
##YFACTOR=0.000001700
##DELTAX=4.0
##FIRSTX=550.0
##LASTX=3846.0
##FIRSTY=0.000281
##MAXX=3846
##MINX=550
##MAXY=0.017
##MINY=0
##NPOINTS=825
##XYDATA=(X++(Y..Y))
550.0 165 173 199 138 14 33 95 73 24 27
590.0 40 45 36 30 115 155 89 89 169 242
630.0 290 354 370 421 489 475 456 384 271 252
670.0 238 214 176 135 132 142 151 142 157 156
710.0 173 233 273 306 326 323 320 311 332 367
750.0 356 381 434 422 407 394 363 328 333 343
790.0 314 307 338 378 412 463 483 527 595 638
830.0 736 807 812 848 881 869 852 849 813 761
870.0 738 760 801 873 999 1180 1436 1793 2309 2868
910.0 3238 3379 3318 2975 2470 1988 1592 1321 1132 985
950.0 879 804 773 767 800 898 1048 1256 1493 1725
990.0 1892 1920 1829 1648 1384 1132 928 813 782 775
1030.0 774 774 775 773 740 692 636 576 555 542
1070.0 490 454 426 397 377 363 374 396 423 426
1110.0 430 451 445 410 393 365 304 267 234 203
1150.0 210 195 170 174 211 249 292 373 469 544
1190.0 599 626 615 552 437 354 310 245 197 174
1230.0 161 159 162 175 212 239 263 288 306 321
1270.0 349 386 417 448 490 544 600 679 742 758
1310.0 733 669 577 461 390 374 369 374 392 426
1350.0 456 486 527 592 696 841 996 1140 1251 1311
1390.0 1325 1298 1228 1155 1103 1071 1084 1144 1232 1327
1430.0 1430 1538 1599 1595 1546 1495 1452 1407 1331 1229
1470.0 1121 1007 876 746 638 560 501 453 425 392
1510.0 359 338 329 320 309 302 295 311 306 273
1550.0 281 307 304 283 286 276 254 249 237 239
1590.0 246 257 261 285 326 386 474 601 797 1046
1630.0 1294 1463 1497 1424 1238 967 694 520 433 380
1670.0 346 309 269 233 201 179 172 163 154 135
1710.0 111 96 87 82 86 83 67 64 71 65
1750.0 58 53 52 57 59 56 48 43 52 65
1790.0 73 82 89 103 121 144 181 240 307 355
1830.0 375 371 343 293 221 159 116 89 79 71
1870.0 75 72 54 47 47 50 47 49 53 45
1910.0 45 49 50 48 41 43 39 27 18 26
1950.0 40 44 44 57 57 52 50 49 48 40
1990.0 38 38 34 28 25 22 13 19 20 21
2030.0 22 15 9 8 4 12 19 13 18 28
2070.0 18 13 19 16 14 16 25 30 28 29
2110.0 25 25 21 17 22 21 16 13 15 24
2150.0 22 7 6 11 8 14 18 16 29 33
2190.0 26 27 26 24 27 30 43 39 25 24
2230.0 29 31 30 25 14 20 25 12 11 14
2270.0 17 25 36 28 16 21 30 29 24 30
2310.0 25 24 29 22 37 41 35 40 38 33
2350.0 29 24 34 42 32 17 14 26 32 36
2390.0 43 46 50 46 41 44 33 29 33 32
2430.0 29 14 0 4 7 13 30 32 26 27
2470.0 20 7 20 31 31 34 40 51 52 47
2510.0 43 40 44 45 28 25 35 47 55 57
2550.0 65 67 50 44 63 68 59 47 53 70
2590.0 68 65 67 63 57 54 65 68 50 56
2630.0 61 62 67 65 80 77 55 56 69 73
2670.0 67 73 89 95 113 122 129 144 155 166
2710.0 176 191 206 235 260 276 290 293 291 298
2750.0 316 313 299 308 309 312 327 344 360 372
2790.0 409 453 509 568 644 734 847 982 1134 1326
2830.0 1522 1707 1897 2092 2321 2558 2828 3165 3516 3887
2870.0 4298 4793 5299 5651 5920 6170 6284 6278 6292 6347
2910.0 6441 6551 6638 6740 6861 7020 7186 7231 7167 7130
2950.0 7122 7223 7717 8631 9506 9976 10000 9554 8579 7427
2990.0 6510 5816 5232 4740 4324 3924 3541 3161 2775 2442
3030.0 2182 2001 1866 1764 1697 1659 1652 1658 1692 1757
3070.0 1851 2017 2221 2326 2263 2114 1883 1504 1135 890
3110.0 712 609 531 475 435 401 377 358 336 321
3150.0 309 301 278 252 235 221 204 189 191 183
3190.0 168 158 139 138 118 89 92 100 94 74
3230.0 59 55 69 84 109 111 88 78 75 66
3270.0 56 68 76 64 61 67 66 60 59 61
3310.0 76 85 80 54 31 35 62 60 45 62
3350.0 55 36 33 38 60 62 42 41 51 59
3390.0 63 44 30 36 52 53 35 34 46 51
3430.0 58 44 32 49 62 42 42 57 40 45
3470.0 62 28 23 61 58 32 27 26 29 37
3510.0 37 33 35 46 47 29 27 52 45 37
3550.0 45 54 46 31 39 54 58 46 25 30
3590.0 37 17 2 1 24 33 38 41 35 53
3630.0 56 60 55 31 29 33 41 47 47 66
3670.0 84 75 68 55 45 48 38 24 27 23
3710.0 33 50 53 50 41 53 71 66 59 83
3750.0 86 64 56 54 46 43 37 47 58 57
3790.0 59 68 68 64 60 50 68 78 49 47
3830.0 42 41 44 37 48
##END=
