##TITLE=Cyclomethycaine
##JCAMP-DX=4.24
##DATA TYPE=INFRARED SPECTRUM
##ORIGIN=NIST Mass Spectrometry Data Center
##OWNER=NIST Standard Reference Data Program
Collection (C) 2018 copyright by the U.S. Secretary of Commerce
on behalf of the United States of America. All rights reserved.
##CAS REGISTRY NO=139-62-8
##MOLFORM=C 22 H 33 N O 3
##$NIST SOURCE=MSDC-IR
##SPECTROMETER/DATA SYSTEM=HP-GC/MS/IRD
##STATE=gas
##XUNITS=1/CM
##YUNITS=ABSORBANCE
##XFACTOR=1.0
##YFACTOR=0.000001500
##DELTAX=4.0
##FIRSTX=550.0
##LASTX=3846.0
##FIRSTY=0.000393
##MAXX=3846
##MINX=550
##MAXY=0.015
##MINY=0
##NPOINTS=825
##XYDATA=(X++(Y..Y))
550.0 262 204 146 221 182 85 117 69 22 27
590.0 32 39 11 9 91 113 118 114 49 27
630.0 69 207 274 276 301 269 187 136 125 161
670.0 183 228 227 163 167 211 286 339 313 251
710.0 189 174 143 124 156 177 155 118 121 155
750.0 203 243 327 488 634 654 556 397 239 181
790.0 162 151 135 129 158 163 159 173 202 191
830.0 223 282 346 481 622 682 621 498 367 279
870.0 259 254 252 247 253 280 302 310 300 272
910.0 245 273 313 341 362 359 402 456 479 567
950.0 774 1044 1292 1480 1519 1294 925 646 512 459
990.0 449 486 561 680 926 1172 1186 1165 1188 1082
1030.0 1087 1247 1526 2054 2568 2507 1903 1385 1159 1115
1070.0 1187 1334 1597 1931 2407 3128 3959 4466 4510 4404
1110.0 4135 3616 3060 2602 2222 1896 1613 1426 1389 1475
1150.0 1648 1932 2543 3766 4683 3978 2529 1643 1249 1082
1190.0 1014 971 950 953 1028 1190 1449 1806 2303 3055
1230.0 4282 6284 8649 10000 9880 8928 7764 7207 7416 7766
1270.0 7395 6075 4575 3495 2878 2519 2215 1919 1726 1612
1310.0 1458 1288 1171 1115 1083 1029 958 895 826 784
1350.0 788 815 883 1010 1185 1346 1384 1293 1130 938
1390.0 761 628 521 469 472 534 637 653 550 477
1430.0 492 545 603 695 842 983 1069 1083 1050 1009
1470.0 918 784 639 552 542 636 870 1329 2004 2460
1510.0 2133 1315 740 474 355 306 273 256 256 255
1550.0 252 273 306 337 399 522 670 763 820 956
1590.0 1287 1852 2639 3316 3287 2520 1668 1107 785 572
1630.0 443 378 323 284 269 265 248 219 196 179
1670.0 178 175 184 216 246 265 285 322 364 452
1710.0 604 825 1165 1773 2913 4471 5337 4584 3041 1878
1750.0 1270 973 774 576 432 339 283 251 203 176
1790.0 159 146 141 125 105 103 102 91 81 62
1830.0 53 51 44 45 47 38 34 36 37 39
1870.0 48 57 51 58 71 63 63 69 72 100
1910.0 96 90 96 79 67 57 44 48 42 27
1950.0 29 35 24 18 40 53 42 29 30 34
1990.0 31 23 30 44 45 44 59 61 57 60
2030.0 44 40 61 62 56 52 44 52 59 50
2070.0 33 30 44 42 43 52 38 23 24 29
2110.0 30 21 19 14 14 15 17 21 24 28
2150.0 14 9 23 30 25 19 33 41 31 26
2190.0 34 31 19 16 14 18 15 10 20 17
2230.0 22 27 30 38 40 39 38 36 23 6
2270.0 14 26 23 38 39 33 39 42 38 44
2310.0 54 62 70 64 54 51 43 42 52 62
2350.0 79 83 87 94 70 53 65 73 75 73
2390.0 73 67 54 57 49 51 70 59 59 51
2430.0 46 49 43 53 63 55 42 41 56 76
2470.0 80 94 111 94 82 82 74 64 64 81
2510.0 91 83 88 85 77 86 102 114 116 127
2550.0 135 131 116 122 124 110 118 136 147 143
2590.0 138 123 127 149 144 137 135 137 135 131
2630.0 148 167 172 173 171 163 183 187 179 183
2670.0 183 182 193 216 216 216 238 259 261 269
2710.0 283 303 327 340 348 359 362 364 367 383
2750.0 409 445 488 546 627 692 764 837 894 962
2790.0 983 973 956 905 838 796 761 732 705 678
2830.0 654 654 680 729 842 1021 1266 1608 1998 2194
2870.0 2091 1811 1557 1403 1314 1277 1337 1459 1576 1709
2910.0 1925 2257 2682 3226 3934 4845 5980 7239 8329 8378
2950.0 6901 4978 3637 2852 2409 2114 1853 1613 1382 1172
2990.0 978 789 622 489 384 309 267 228 206 182
3030.0 176 178 165 164 180 219 253 231 214 229
3070.0 231 238 259 255 208 194 207 182 163 137
3110.0 120 117 111 96 86 79 65 52 56 68
3150.0 84 91 85 74 60 70 69 50 27 33
3190.0 61 63 58 51 44 37 31 58 75 39
3230.0 41 67 48 41 40 25 35 56 35 16
3270.0 27 32 41 29 24 28 40 49 44 53
3310.0 58 33 19 41 61 63 44 40 45 22
3350.0 18 28 35 52 48 26 8 8 13 6
3390.0 20 29 26 12 0 8 16 22 34 44
3430.0 38 40 56 46 46 70 58 60 79 56
3470.0 36 42 63 75 72 77 81 56 33 36
3510.0 28 27 36 24 28 24 27 29 23 53
3550.0 40 21 30 31 23 8 15 63 119 137
3590.0 98 35 12 32 46 20 15 38 29 23
3630.0 52 62 50 46 37 42 37 40 47 45
3670.0 51 51 46 42 41 50 52 55 63 47
3710.0 62 62 39 43 42 45 67 57 42 44
3750.0 29 41 38 59 67 41 49 49 66 60
3790.0 42 45 49 61 53 60 98 86 57 80
3830.0 71 29 56 68 40
##END=
