##TITLE=2-Ethylpyrazine
##JCAMP-DX=4.24
##DATA TYPE=INFRARED SPECTRUM
##ORIGIN=NIST Mass Spectrometry Data Center
##OWNER=NIST Standard Reference Data Program
Collection (C) 2018 copyright by the U.S. Secretary of Commerce
on behalf of the United States of America. All rights reserved.
##CAS REGISTRY NO=13925-00-3
##MOLFORM=C 6 H 8 N 2
##$NIST SOURCE=MSDC-IR
##SPECTROMETER/DATA SYSTEM=HP-GC/MS/IRD
##STATE=gas
##XUNITS=1/CM
##YUNITS=ABSORBANCE
##XFACTOR=1.0
##YFACTOR=0.000002300
##DELTAX=4.0
##FIRSTX=550.0
##LASTX=3846.0
##FIRSTY=0.000432
##MAXX=3846
##MINX=550
##MAXY=0.023
##MINY=0
##NPOINTS=825
##XYDATA=(X++(Y..Y))
550.0 188 125 115 108 57 88 120 142 181 166
590.0 200 192 109 72 18 2 17 40 65 104
630.0 188 207 203 216 184 145 120 151 143 117
670.0 117 94 56 41 59 54 36 41 74 96
710.0 123 154 182 228 263 322 414 487 536 598
750.0 659 711 771 815 802 771 743 721 705 693
790.0 672 651 685 740 808 941 1124 1397 1746 2144
830.0 2527 2880 3427 4120 3871 3059 2567 2112 1652 1217
870.0 855 583 422 338 293 275 245 226 224 225
910.0 222 231 252 265 259 246 254 263 298 338
950.0 377 461 588 716 835 930 996 1085 1193 1364
990.0 1693 2279 3245 4541 5540 5680 5556 5800 5876 5010
1030.0 3894 3347 3236 3299 3417 3561 3629 3566 3427 3175
1070.0 2768 2341 1916 1514 1230 1071 977 907 886 905
1110.0 952 1045 1207 1473 1882 2450 3161 3908 4540 4950
1150.0 5099 4997 4536 3761 2966 2415 2084 1837 1630 1439
1190.0 1245 1038 849 729 712 810 1033 1399 1806 2072
1230.0 2152 2140 2030 1714 1208 779 572 485 443 421
1270.0 427 457 490 566 680 847 1034 1183 1250 1252
1310.0 1207 1123 999 873 783 730 714 714 692 664
1350.0 689 752 841 973 1105 1303 1597 2015 2642 3622
1390.0 4980 6452 7440 7766 7714 7341 6402 4805 3292 2447
1430.0 2083 1940 1921 1976 2143 2372 2775 3353 4052 4728
1470.0 4977 4910 4594 4079 3226 2138 1415 1123 1064 1186
1510.0 1379 1657 2015 2280 2349 2279 2111 1840 1368 878
1550.0 638 635 805 955 1124 1286 1346 1285 1153 966
1590.0 684 447 314 247 220 205 209 205 185 173
1630.0 167 192 184 175 202 245 260 204 186 193
1670.0 217 234 232 274 273 227 242 263 219 170
1710.0 160 193 222 178 156 198 226 197 186 207
1750.0 232 233 240 261 299 335 325 303 311 307
1790.0 302 302 289 274 263 239 199 160 139 133
1830.0 130 127 119 148 174 167 168 177 194 205
1870.0 206 201 191 176 169 179 182 189 215 251
1910.0 292 346 407 428 409 373 326 271 197 125
1950.0 83 66 63 60 52 46 43 35 28 36
1990.0 45 44 39 33 35 43 43 38 43 55
2030.0 55 56 64 58 46 44 42 48 51 41
2070.0 44 53 47 40 42 34 31 38 44 38
2110.0 32 31 30 17 12 16 0 0 6 4
2150.0 12 19 12 7 14 18 11 6 15 24
2190.0 35 44 46 46 52 55 60 65 50 40
2230.0 47 53 45 42 33 26 21 24 24 7
2270.0 4 3 2 9 24 30 29 31 32 36
2310.0 52 64 78 99 130 154 157 165 162 135
2350.0 128 173 211 224 212 167 113 72 60 49
2390.0 32 22 14 19 30 34 32 33 36 33
2430.0 32 35 34 37 33 21 14 14 27 45
2470.0 33 27 28 22 18 25 42 51 52 42
2510.0 31 20 19 30 30 20 12 22 31 30
2550.0 27 27 22 14 19 27 28 34 30 28
2590.0 44 57 58 54 62 71 71 70 78 83
2630.0 77 69 72 74 80 88 100 99 90 90
2670.0 94 96 89 81 96 101 97 96 99 111
2710.0 114 119 131 148 151 146 165 186 193 212
2750.0 217 211 216 218 220 233 250 258 270 279
2790.0 276 274 292 306 318 347 370 399 443 487
2830.0 546 610 683 772 867 991 1136 1304 1482 1673
2870.0 1906 2178 2508 2850 3149 3381 3535 3645 3677 3647
2910.0 3594 3583 3626 3739 4002 4445 5082 5830 6417 6668
2950.0 6745 6824 6950 7187 7751 8600 9425 9967 10000 9520
2990.0 8626 7525 6423 5518 4833 4334 3983 3693 3403 3206
3030.0 3187 3335 3772 4552 5559 6524 7310 7886 8077 7801
3070.0 7106 6000 4733 3583 2586 1827 1341 1047 871 736
3110.0 638 562 490 431 387 347 323 311 282 262
3150.0 261 259 259 248 239 229 233 228 209 216
3190.0 225 200 163 165 168 154 126 113 106 93
3230.0 95 95 84 67 65 78 87 93 77 50
3270.0 48 49 35 27 23 29 19 16 36 51
3310.0 63 38 24 49 54 45 39 42 40 33
3350.0 47 50 42 42 38 25 27 41 42 37
3390.0 20 14 25 27 16 15 28 20 6 7
3430.0 38 44 32 35 24 22 29 28 29 38
3470.0 48 43 40 49 53 36 13 8 7 2
3510.0 2 1 22 34 20 19 17 21 31 41
3550.0 40 27 32 50 68 51 28 31 23 31
3590.0 30 17 21 23 27 34 35 47 37 52
3630.0 60 4 4 30 82 105 57 26 5 25
3670.0 68 69 52 47 67 64 20 22 42 39
3710.0 43 28 25 44 46 57 97 86 83 120
3750.0 127 88 51 31 29 49 33 26 13 15
3790.0 33 48 67 94 106 93 85 96 95 56
3830.0 44 78 85 74 60
##END=
