##TITLE=N,N'-Dibenzylethylenediamine
##JCAMP-DX=4.24
##DATA TYPE=INFRARED SPECTRUM
##ORIGIN=EPA-IR VAPOR PHASE LIBRARY
##OWNER=SRD/NIST
Collection (C) 2018 copyright by the U.S. Secretary of Commerce
on behalf of the United States of America. All rights reserved.
##CAS REGISTRY NO=140-28-3
##MOLFORM=C 16 H 20 N 2
##$NIST SOURCE=MSDC-IR
##STATE=gas
##XUNITS=1/CM
##YUNITS=ABSORBANCE
##XFACTOR=1.
##YFACTOR=0.001
##DELTAX=3.85796
##FIRSTX=501.5
##LASTX=4000.7
##FIRSTY=1.97
##MAXX=4000.7
##MINX=501.534
##MAXY=0.03287
##MINY=0.0002353
##NPOINTS=908
##XYDATA=(X++(Y..Y))
501.534 1.97 1.86 1.87 1.8 2.04 2.26 2.25 2.29 2.39 2.43
540.114 2.44 2.5 2.57 2.79 3.02 3.25 3.48 3.72 3.92 4.19
578.693 4.47 4.66 4.98 5.27 5.36 5.36 5.27 5.05 4.82 4.59
617.273 4.39 4.29 4.4 4.53 4.64 4.91 5.24 5.58 5.99 6.58
655.852 7.33 8.18 9.14 10.32 11.74 13.39 15.38 17.99 21.7 26.77
694.432 31.49 32.87 30.76 27.75 25.57 24.26 23.75 24.08 25.19 26.94
733.011 28.55 28.47 26.07 22.32 18.53 15.25 12.46 10.1 8.23 6.84
771.591 5.79 5.06 4.62 4.36 4.34 4.5 4.57 4.54 4.52 4.48
810.170 4.4 4.24 4.02 3.79 3.52 3.24 3.05 2.92 2.83 2.79
848.750 2.75 2.71 2.67 2.67 2.68 2.58 2.52 2.55 2.58 2.62
887.330 2.73 2.97 3.23 3.55 3.88 3.92 3.68 3.33 3.07 2.93
925.909 2.84 2.68 2.55 2.52 2.52 2.52 2.58 2.71 2.84 2.96
964.489 3.12 3.26 3.36 3.44 3.45 3.42 3.36 3.33 3.35 3.42
1003.068 3.58 3.78 3.98 4.44 5.4 7.04 8.46 7.99 6.05 4.53
1041.648 3.99 4.06 4.32 4.55 4.85 5.15 5.45 5.84 6.24 6.52
1080.227 6.77 7.22 7.88 8.75 9.99 11.61 13.51 15.67 17.76 19.23
1118.807 19.69 19.16 17.89 16.29 14.55 12.72 10.87 9.07 7.47 6.23
1157.387 5.34 4.76 4.38 4.18 4.2 4.35 4.42 4.72 5.28 5.78
1195.966 6.05 5.89 5.37 4.75 4.25 3.91 3.76 3.73 3.73 3.66
1234.546 3.65 3.67 3.68 3.72 3.77 3.8 3.77 3.73 3.73 3.75
1273.125 3.78 3.89 4.02 4.15 4.3 4.44 4.61 4.8 5.02 5.27
1311.705 5.56 5.92 6.44 7.18 8.04 8.78 9.24 9.5 9.68 9.84
1350.284 9.91 9.64 8.9 7.77 6.61 5.66 4.97 4.45 4.03 3.66
1388.864 3.33 3.06 2.91 2.89 2.95 3.12 3.44 3.88 4.52 5.42
1427.443 6.63 8.31 10.52 13.24 16.37 19.77 22.95 24.78 24.38 21.92
1466.023 18.36 14.78 11.74 9.54 8.3 8.12 8.99 10.02 9.69 7.6
1504.603 5.13 3.45 2.61 2.15 1.91 1.79 1.71 1.66 1.61 1.54
1543.182 1.49 1.43 1.38 1.35 1.35 1.44 1.52 1.61 1.74 1.92
1581.762 2.19 2.54 2.92 3.3 3.64 3.85 3.71 3.13 2.39 1.77
1620.341 1.41 1.23 1.11 1.04 1.03 1.04 1.06 1.11 1.11 1.02
1658.921 0.9356 0.8407 0.7775 0.7413 0.7155 0.6748 0.6344 0.6149 0.6333 0.6631
1697.500 0.6767 0.6865 0.7016 0.7267 0.7435 0.7671 0.7946 0.8397 0.8911 0.9041
1736.080 0.9311 0.9629 0.956 0.932 0.8948 0.8704 0.8572 0.8587 0.9125 0.996
1774.659 1.08 1.19 1.31 1.49 1.79 2.09 2.21 2.08 1.79 1.5
1813.239 1.31 1.2 1.1 1.02 0.9655 0.9409 0.9382 0.968 1.02 1.08
1851.819 1.18 1.26 1.35 1.44 1.49 1.5 1.48 1.43 1.29 1.11
1890.398 0.9543 0.8508 0.7954 0.7649 0.7579 0.7808 0.8519 0.9558 1.07 1.21
1928.978 1.38 1.56 1.76 1.89 1.91 1.87 1.81 1.6 1.25 0.9196
1967.557 0.6931 0.5923 0.5473 0.5052 0.4735 0.447 0.4238 0.4111 0.4131 0.4002
2006.137 0.3941 0.381 0.3664 0.3569 0.3397 0.3225 0.3118 0.32 0.3336 0.3305
2044.716 0.3377 0.3448 0.3315 0.3403 0.3618 0.3672 0.3639 0.3601 0.3609 0.3608
2083.296 0.3541 0.3559 0.3646 0.3661 0.3517 0.3595 0.3561 0.3329 0.3193 0.3296
2121.875 0.3328 0.3143 0.2942 0.2914 0.3305 0.3231 0.3039 0.31 0.308 0.3045
2160.455 0.3005 0.3076 0.3129 0.3313 0.3397 0.3419 0.3445 0.3443 0.3455 0.3446
2199.035 0.3393 0.3393 0.3649 0.3681 0.3419 0.3261 0.3354 0.3453 0.3424 0.3358
2237.614 0.3442 0.3635 0.3629 0.3493 0.3323 0.3186 0.3115 0.3275 0.3373 0.3406
2276.194 0.3475 0.3386 0.351 0.3669 0.3661 0.369 0.3805 0.4178 0.4812 0.5239
2314.773 0.5205 0.5128 0.5016 0.488 0.4953 0.475 0.4427 0.4358 0.435 0.418
2353.353 0.4182 0.4044 0.385 0.3819 0.3689 0.3698 0.3735 0.3682 0.3635 0.3614
2391.932 0.3508 0.3423 0.349 0.3624 0.3607 0.3538 0.3613 0.3768 0.3992 0.3931
2430.512 0.3769 0.3686 0.3704 0.3746 0.3797 0.398 0.3917 0.3931 0.4093 0.4051
2469.092 0.3786 0.3665 0.392 0.4276 0.4231 0.4121 0.4278 0.4355 0.4366 0.4249
2507.671 0.4272 0.4459 0.4609 0.4823 0.494 0.5081 0.5264 0.5312 0.5491 0.5637
2546.251 0.5729 0.597 0.627 0.6683 0.7014 0.721 0.7234 0.7383 0.8001 0.8357
2584.830 0.8426 0.8442 0.8744 0.8773 0.8809 0.9156 0.9173 0.9464 0.9917 1.03
2623.410 1.08 1.13 1.18 1.25 1.31 1.34 1.37 1.46 1.52 1.58
2661.989 1.67 1.76 1.85 1.97 2.1 2.2 2.32 2.46 2.57 2.65
2700.569 2.73 2.76 2.77 2.79 2.84 2.92 3.04 3.19 3.35 3.51
2739.148 3.68 3.84 3.95 4.08 4.24 4.46 4.76 5.13 5.66 6.36
2777.728 7.22 8.26 9.49 10.87 12.39 14.04 15.75 17.49 19.21 20.8
2816.308 22.22 23.39 24.23 24.66 24.56 23.88 22.71 21.24 19.65 18.22
2854.887 17.02 16.01 15.23 14.7 14.51 14.67 15.13 15.79 16.48 17.11
2893.467 17.57 17.8 17.91 18.05 18.32 18.71 19.26 19.84 20.23 20.13
2932.046 19.56 18.62 17.47 16.16 14.44 12.29 10.02 8.01 6.39 5.13
2970.626 4.25 3.63 3.23 2.98 2.81 2.82 3.04 3.46 4.1 4.9
3009.205 5.89 7.23 9.12 11.63 14.61 17.29 18.58 17.87 15.81 13.65
3047.785 12.11 11.51 12.06 13.87 16.86 20.09 21.36 19.5 16.13 13.45
3086.364 11.74 10.35 8.88 7.45 6.31 5.35 4.47 3.59 2.78 2.13
3124.944 1.64 1.3 1.08 0.9307 0.8159 0.7408 0.7355 0.6957 0.6776 0.7266
3163.524 0.7257 0.6922 0.6308 0.5535 0.4748 0.4255 0.3983 0.3919 0.4031 0.3742
3202.103 0.3575 0.3718 0.3697 0.3891 0.4089 0.3765 0.3728 0.4138 0.3918 0.3401
3240.683 0.3394 0.3508 0.3795 0.3553 0.315 0.3462 0.3565 0.3594 0.3741 0.4135
3279.262 0.4142 0.3896 0.418 0.4122 0.3976 0.4239 0.4415 0.4692 0.5094 0.5682
3317.842 0.6459 0.7413 0.853 0.9917 1.15 1.23 1.27 1.3 1.31 1.33
3356.421 1.29 1.2 1.12 1.02 0.9568 0.8781 0.8471 0.8595 0.7705 0.6957
3395.001 0.6583 0.6336 0.5754 0.5053 0.5041 0.4999 0.4812 0.4512 0.4417 0.4457
3433.580 0.4283 0.3902 0.3882 0.3473 0.3034 0.3425 0.3292 0.2902 0.2564 0.2795
3472.160 0.327 0.3243 0.3235 0.3276 0.3218 0.2839 0.2472 0.2532 0.2841 0.2909
3510.740 0.2772 0.2683 0.3232 0.3538 0.3492 0.3937 0.3612 0.311 0.322 0.3562
3549.319 0.3748 0.3394 0.3041 0.2925 0.2654 0.27 0.3137 0.3146 0.2917 0.2739
3587.899 0.2353 0.2593 0.3295 0.3123 0.2605 0.258 0.2903 0.3614 0.3682 0.354
3626.478 0.4096 0.429 0.4088 0.4477 0.4848 0.4673 0.4571 0.446 0.4707 0.5207
3665.058 0.4757 0.4404 0.4349 0.4017 0.3977 0.3789 0.3966 0.4331 0.4454 0.4432
3703.637 0.4191 0.3908 0.3907 0.4046 0.3766 0.3404 0.3484 0.3538 0.3577 0.359
3742.217 0.3462 0.3582 0.3419 0.3636 0.3866 0.2933 0.2643 0.34 0.3746 0.3456
3780.797 0.3518 0.3832 0.3614 0.3613 0.3893 0.4528 0.451 0.4024 0.3741 0.3768
3819.376 0.4088 0.4392 0.4519 0.3911 0.37 0.3528 0.3351 0.3851 0.3854 0.3869
3857.956 0.4227 0.4671 0.5322 0.4469 0.3973 0.4501 0.4107 0.435 0.5197 0.4542
3896.535 0.3721 0.3599 0.4081 0.4713 0.4818 0.4708 0.4717 0.5186 0.5145 0.5028
3935.115 0.4841 0.4691 0.4796 0.4805 0.5221 0.5601 0.5175 0.4477 0.4101 0.4685
3973.694 0.5003 0.4904 0.4922 0.4729 0.454 0.4905 0.5242 0.532
##END=
