##TITLE=2-Amino-5-diethylaminopentane
##JCAMP-DX=4.24
##DATA TYPE=INFRARED SPECTRUM
##ORIGIN=NIST Mass Spectrometry Data Center
##OWNER=NIST Standard Reference Data Program
Collection (C) 2018 copyright by the U.S. Secretary of Commerce
on behalf of the United States of America. All rights reserved.
##CAS REGISTRY NO=140-80-7
##MOLFORM=C 9 H 22 N 2
##$NIST SOURCE=MSDC-IR
##SPECTROMETER/DATA SYSTEM=HP-GC/MS/IRD
##STATE=gas
##XUNITS=1/CM
##YUNITS=ABSORBANCE
##XFACTOR=1.0
##YFACTOR=0.000002500
##DELTAX=4.0
##FIRSTX=550.0
##LASTX=3846.0
##FIRSTY=0.000325
##MAXX=3846
##MINX=550
##MAXY=0.025
##MINY=0
##NPOINTS=825
##XYDATA=(X++(Y..Y))
550.0 130 87 0 30 54 37 11 50 82 46
590.0 41 72 91 85 90 107 89 78 100 98
630.0 119 108 113 133 97 142 203 194 204 235
670.0 255 260 265 300 346 374 408 450 487 552
710.0 598 647 707 769 821 845 901 994 1083 1173
750.0 1281 1397 1520 1680 1833 1965 2099 2216 2290 2327
790.0 2299 2173 2009 1841 1659 1466 1272 1125 1017 907
830.0 830 775 689 619 577 537 508 474 427 383
870.0 351 335 303 271 261 259 260 253 232 232
910.0 256 248 238 254 248 236 224 207 207 217
950.0 238 241 251 289 328 359 396 440 482 510
990.0 531 559 561 554 553 556 570 598 631 670
1030.0 751 826 909 1036 1174 1348 1552 1784 2016 2225
1070.0 2363 2454 2486 2447 2400 2322 2183 2039 1891 1742
1110.0 1614 1495 1377 1275 1197 1143 1079 1023 966 925
1150.0 875 829 833 819 792 811 828 853 908 998
1190.0 1164 1403 1638 1779 1743 1554 1323 1121 962 859
1230.0 797 765 739 693 663 651 618 577 556 562
1270.0 576 617 696 788 895 1001 1088 1156 1180 1166
1310.0 1128 1102 1100 1104 1149 1240 1353 1477 1623 1769
1350.0 1901 2024 2123 2251 2460 2736 2995 3122 3020 2679
1390.0 2203 1720 1300 990 786 663 591 549 533 544
1430.0 586 670 781 911 1067 1240 1391 1484 1522 1482
1470.0 1396 1255 1063 852 669 534 440 381 341 315
1510.0 287 261 247 231 214 210 206 205 209 207
1550.0 205 209 215 215 219 232 241 258 285 316
1590.0 351 393 453 516 595 682 765 819 821 765
1630.0 675 581 486 399 334 285 241 201 173 149
1670.0 126 111 99 91 79 66 54 52 58 46
1710.0 26 24 25 21 27 29 37 33 21 25
1750.0 29 24 26 32 23 17 21 22 22 18
1790.0 26 34 30 27 31 37 33 27 31 35
1830.0 30 35 33 27 34 31 30 25 23 25
1870.0 20 22 21 19 23 21 14 14 15 10
1910.0 13 15 17 19 15 12 14 15 7 6
1950.0 10 9 14 18 19 11 8 7 3 7
1990.0 10 12 11 8 5 7 16 6 4 10
2030.0 12 15 9 5 4 11 12 15 17 11
2070.0 15 16 8 4 9 15 13 10 7 9
2110.0 15 20 26 22 15 13 12 13 13 7
2150.0 7 12 12 7 5 5 3 7 6 6
2190.0 11 11 4 6 6 11 15 9 9 8
2230.0 7 7 12 19 13 11 14 11 14 23
2270.0 24 34 40 23 14 19 14 15 21 26
2310.0 34 32 31 32 28 31 39 38 26 20
2350.0 28 39 41 29 39 43 32 30 34 33
2390.0 26 32 38 30 33 46 42 35 36 39
2430.0 38 36 41 38 40 43 21 20 37 42
2470.0 34 29 33 39 44 48 54 60 65 65
2510.0 69 72 67 71 84 83 85 102 113 110
2550.0 110 119 126 135 148 163 166 177 194 190
2590.0 189 205 213 217 230 239 245 253 272 287
2630.0 293 315 348 369 384 407 427 445 468 497
2670.0 514 543 570 581 596 627 664 699 747 791
2710.0 831 875 919 954 991 1041 1077 1085 1121 1184
2750.0 1263 1360 1467 1563 1664 1795 1931 2128 2400 2747
2790.0 3174 3650 4142 4556 4803 4858 4748 4530 4237 3903
2830.0 3600 3360 3185 3105 3120 3160 3197 3273 3378 3541
2870.0 3763 4007 4233 4383 4421 4431 4505 4678 4948 5280
2910.0 5626 5946 6285 6689 7187 7767 8323 8700 8753 8535
2950.0 8255 8174 8427 8927 9540 10000 9962 9247 7847 6117
2990.0 4484 3187 2305 1745 1384 1147 964 847 753 656
3030.0 581 530 486 435 402 380 364 351 339 332
3070.0 315 307 290 265 252 229 225 228 216 211
3110.0 204 181 184 198 199 190 165 155 156 160
3150.0 165 168 164 158 155 149 127 124 132 128
3190.0 121 128 117 94 105 105 90 86 78 57
3230.0 61 77 82 70 48 39 49 63 66 66
3270.0 60 59 65 67 63 53 42 51 72 73
3310.0 68 77 103 113 118 119 108 97 94 98
3350.0 106 83 49 49 57 54 43 36 41 47
3390.0 46 37 35 59 64 58 38 16 4 10
3430.0 4 6 31 50 60 43 29 24 20 20
3470.0 33 22 3 8 34 35 8 15 22 24
3510.0 23 13 15 23 37 36 35 22 29 30
3550.0 3 5 11 15 11 9 16 31 34 19
3590.0 18 21 19 20 21 12 16 42 37 30
3630.0 41 40 36 22 26 46 54 55 57 47
3670.0 35 25 24 35 31 30 39 54 46 37
3710.0 41 48 65 70 48 61 74 50 56 46
3750.0 46 47 49 59 47 31 30 37 52 66
3790.0 61 67 85 81 50 32 42 65 61 42
3830.0 37 47 53 54 65
##END=
