##TITLE=N,N'-Dinitrosopiperazine
##JCAMP-DX=4.24
##DATA TYPE=INFRARED SPECTRUM
##ORIGIN=EPA-IR VAPOR PHASE LIBRARY
##OWNER=SRD/NIST
Collection (C) 2018 copyright by the U.S. Secretary of Commerce
on behalf of the United States of America. All rights reserved.
##CAS REGISTRY NO=140-79-4
##MOLFORM=C 4 H 8 N 4 O 2
##$NIST SOURCE=MSDC-IR
##STATE=gas
##XUNITS=1/CM
##YUNITS=ABSORBANCE
##XFACTOR=1.
##YFACTOR=0.001
##DELTAX=1.92898
##FIRSTX=549.8
##LASTX=4000.7
##FIRSTY=0.24
##MAXX=4000.7
##MINX=549.759
##MAXY=0.036688
##MINY=0
##NPOINTS=1790
##XYDATA=(X++(Y..Y))
549.759 0.24 0.42175 0.5392 0.9189 1.1833 0.871 0.6334 0.709 0.7543 0.751
569.049 0.5647 0.5982 0.9191 0.8948 0.761 0.9938 1.0218 0.7041 0.236 0
588.339 0.083 0.307 0.6525 0.43474 0.2663 0.42092 0.2826 0.142 0.062 0.2985
607.628 0.6244 0.5806 0.5967 0.5579 0.7499 0.7485 0.6941 0.6799 0.45057 0.5658
626.918 0.8275 0.9114 0.8994 0.7924 0.6677 0.7255 0.7414 0.6902 0.6291 0.6373
646.208 0.8105 0.7613 0.44351 0.4609 0.6604 0.6097 0.6098 0.6453 0.6482 0.7374
665.498 0.8027 0.806 0.7669 0.9595 0.8297 0.4742 0.5864 0.6353 0.42611 0.4669
684.787 0.6296 0.5732 0.6889 0.8459 0.6704 0.4735 0.4499 0.5794 0.5741 0.38317
704.077 0.23 0.37994 0.3003 0.363934 0.595 0.5156 0.5154 0.5124 0.4622 0.4766
723.367 0.5199 0.5241 0.6582 0.6061 0.357219 0.2741 0.37174 0.45058 0.5128 0.5253
742.657 0.4857 0.6458 0.916 0.7589 0.5617 0.6733 0.6506 0.6408 0.7035 0.6934
761.947 0.7332 0.6146 0.6314 0.7762 0.7242 0.7812 0.7136 0.685 0.9364 1.1108
781.236 1.1921 1.2185 1.408 1.618 1.848 2.158 2.478 2.918 3.308 3.688
800.526 3.898 4.038 4.258 4.268 4.088 3.878 3.658 3.438 2.998 2.428
819.816 1.988 1.548 1.2523 1.2011 0.9385 0.6958 0.79 0.8364 0.8062 0.842
839.106 0.7172 0.6323 0.868 0.8528 0.8857 0.9439 1.0099 1.1232 0.8908 1.0053
858.395 1.2686 1.1857 0.9354 0.6935 0.7672 0.8732 0.8236 0.674 0.8286 1.043
877.685 0.8821 0.9271 0.9509 0.8159 1.1025 1.428 1.331 1.2266 1.1856 1.2376
896.975 1.3528 1.2976 1.2861 1.448 1.738 1.878 1.978 2.208 2.508 2.908
916.265 3.178 3.618 4.268 4.818 5.568 6.448 7.278 8.618 10.308 11.988
935.555 13.978 16.128 18.388 20.618 22.648 24.438 25.708 26.568 26.998 27.158
954.844 26.628 25.558 24.278 22.648 20.768 18.758 16.888 15.178 13.648 12.328
974.134 11.128 10.118 9.108 7.928 7.168 6.808 6.368 5.728 5.338 5.398
993.424 4.888 4.098 3.918 3.688 3.428 3.438 3.338 3.228 3.078 3.068
1012.714 3.288 3.378 3.228 3.148 3.558 3.768 3.428 3.268 3.578 3.618
1032.003 3.208 3.138 3.078 3.088 3.288 3.118 2.908 3.008 2.988 3.208
1051.293 3.538 3.728 3.678 3.058 2.958 3.158 3.368 3.398 3.238 3.518
1070.583 3.828 4.158 4.288 4.278 4.848 5.528 6.328 7.728 9.528 11.528
1089.873 13.678 16.368 19.398 21.758 23.798 25.818 26.558 26.478 26.578 24.948
1109.163 22.748 21.018 18.618 15.608 12.478 10.558 9.308 7.938 6.808 6.038
1128.452 5.488 5.118 5.188 5.288 5.208 5.368 4.968 4.698 5.168 5.218
1147.742 4.678 4.418 4.408 4.338 4.328 3.968 3.638 3.328 3.108 3.318
1167.032 3.048 2.918 3.298 2.928 2.558 2.418 2.138 2.078 1.938 2.038
1186.322 1.688 1.388 1.508 1.548 1.2904 0.7162 0.7343 0.7799 0.7147 0.9563
1205.611 1.588 1.458 1.072 1.468 1.478 0.9057 0.771 1.2643 1.468 1.378
1224.901 1.34 1.568 1.828 1.938 2.188 2.178 2.178 2.458 2.788 2.928
1244.191 2.938 3.158 3.298 3.358 3.608 3.888 4.198 4.288 4.348 5.128
1263.481 5.888 5.928 6.208 6.888 7.378 7.778 8.128 8.488 8.728 8.938
1282.771 9.218 9.388 9.608 9.698 9.608 9.508 9.308 9.088 8.958 8.768
1302.060 8.388 7.998 7.688 7.438 7.298 7.378 7.638 8.048 8.628 9.168
1321.350 9.638 10.088 10.468 10.778 11.008 11.228 11.448 11.508 11.588 11.768
1340.640 12.058 12.518 12.978 13.338 13.598 13.608 13.328 12.788 12.038 11.158
1359.930 10.158 8.968 7.588 6.318 5.238 4.378 3.728 3.198 2.828 2.568
1379.219 2.378 2.288 2.248 2.128 2.008 1.978 1.958 1.938 1.958 1.978
1398.509 2.038 2.088 2.048 2.038 2.088 2.088 2.008 2.008 2.118 2.148
1417.799 2.228 2.338 2.428 2.518 2.738 3.008 3.238 3.558 3.908 4.348
1437.089 4.948 5.498 6.028 6.558 6.908 7.278 7.548 7.548 7.488 7.428
1456.378 7.328 7.128 6.868 6.678 6.568 6.558 6.618 6.888 7.418 8.028
1475.668 8.838 9.938 11.338 13.128 15.468 18.508 22.498 27.038 31.348 34.638
1494.958 36.268 36.688 36.448 35.498 34.218 32.388 28.648 23.398 18.178 13.628
1514.248 10.258 7.998 6.418 5.298 4.448 3.868 3.448 3.028 2.758 2.668
1533.538 2.508 2.318 2.198 2.108 1.998 1.898 1.758 1.628 1.488 1.388
1552.827 1.368 1.2721 1.188 1.216 1.1907 1.1205 1.0135 0.9194 0.9442 1.0094
1572.117 1.0095 0.986 0.9387 0.8549 0.8527 0.8812 0.9056 0.8523 0.7874 0.8474
1591.407 0.8328 0.8213 0.8997 0.8156 0.7684 0.8425 0.831 0.8047 0.7897 0.7964
1610.697 0.8034 0.7494 0.7172 0.754 0.7823 0.7514 0.7178 0.7859 0.8661 0.883
1629.986 0.9079 0.9193 0.9195 0.9049 0.9153 0.9527 1 1.0627 1.1133 1.1054
1649.276 1.0758 1.0765 1.0833 1.0079 0.99 0.9818 0.9539 0.9668 0.9327 0.8575
1668.566 0.7984 0.7701 0.7706 0.7147 0.6658 0.627 0.535 0.5077 0.5767 0.6401
1687.856 0.6287 0.6149 0.5934 0.611 0.6923 0.6643 0.6265 0.6425 0.6341 0.6549
1707.146 0.6133 0.5179 0.44972 0.5097 0.5695 0.5261 0.4282 0.38452 0.42714 0.4862
1726.435 0.456 0.37127 0.364074 0.3311 0.3404 0.44209 0.572 0.5977 0.48 0.4849
1745.725 0.5184 0.4941 0.5721 0.5681 0.5338 0.5992 0.5959 0.5677 0.5976 0.5747
1765.015 0.5347 0.6039 0.6533 0.6654 0.67 0.6288 0.6295 0.6428 0.618 0.6141
1784.305 0.6788 0.6527 0.5652 0.575 0.5752 0.6183 0.6833 0.6615 0.676 0.7078
1803.594 0.691 0.7022 0.689 0.7175 0.7819 0.8066 0.7605 0.7764 0.8171 0.7798
1822.884 0.8373 0.8384 0.8209 0.8627 0.851 0.7926 0.8182 0.8033 0.7206 0.7846
1842.174 0.8068 0.8177 0.8807 0.8053 0.726 0.7227 0.6831 0.6624 0.6513 0.5965
1861.464 0.5965 0.6041 0.5895 0.6103 0.5479 0.4674 0.5547 0.6865 0.5697 0.43288
1880.754 0.4681 0.5479 0.672 0.7662 0.7646 0.7488 0.7644 0.8052 0.8743 0.8646
1900.043 0.862 0.9151 0.9447 0.9129 0.8983 0.9137 0.9625 0.9792 0.905 0.8873
1919.333 0.8899 0.8906 0.9051 0.8626 0.7924 0.7575 0.7553 0.7317 0.7113 0.7279
1938.623 0.7503 0.7227 0.686 0.6616 0.6367 0.5921 0.5772 0.5826 0.5732 0.6178
1957.913 0.6185 0.582 0.4921 0.4672 0.45716 0.43849 0.4957 0.4811 0.44894 0.4671
1977.202 0.43799 0.3915 0.43821 0.4588 0.43365 0.45775 0.4985 0.4918 0.4732 0.42945
1996.492 0.40798 0.4675 0.5015 0.5154 0.4831 0.43969 0.4962 0.4594 0.36925 0.4153
2015.782 0.4663 0.44573 0.42896 0.39592 0.42113 0.44051 0.43812 0.4814 0.42296 0.40145
2035.072 0.4916 0.5172 0.459 0.5052 0.5381 0.4582 0.44447 0.5437 0.597 0.513
2054.362 0.5054 0.5358 0.5022 0.5062 0.4907 0.45006 0.4678 0.45189 0.45706 0.5479
2073.651 0.5102 0.5169 0.5223 0.44044 0.45512 0.40753 0.37484 0.41948 0.42696 0.44032
2092.941 0.42269 0.37993 0.44192 0.4945 0.44786 0.36928 0.3556 0.37887 0.364496 0.40593
2112.231 0.43769 0.41129 0.39971 0.41348 0.4708 0.5218 0.512 0.5258 0.5057 0.4585
2131.521 0.43787 0.44951 0.4803 0.44402 0.43976 0.44245 0.42507 0.34907 0.3342 0.43303
2150.810 0.41652 0.40939 0.4668 0.41706 0.3385 0.3333 0.3252 0.3382 0.39232 0.4
2170.100 0.42973 0.44855 0.45221 0.5129 0.4891 0.45796 0.4757 0.44373 0.38702 0.39441
2189.390 0.43952 0.42489 0.44632 0.42352 0.41809 0.4148 0.37467 0.4588 0.4736 0.4675
2208.680 0.45599 0.41995 0.41108 0.42804 0.5132 0.44413 0.41042 0.4667 0.4846 0.5207
2227.970 0.4615 0.43089 0.43266 0.43713 0.43679 0.4593 0.5088 0.5522 0.6105 0.636
2247.259 0.5916 0.5645 0.5605 0.5224 0.5312 0.5949 0.6424 0.583 0.4878 0.456
2266.549 0.5042 0.5009 0.5267 0.5473 0.52 0.5207 0.4892 0.5272 0.5208 0.5001
2285.839 0.4808 0.4608 0.42565 0.44175 0.5506 0.532 0.5514 0.5547 0.4903 0.5328
2305.129 0.52 0.4812 0.4901 0.45297 0.42985 0.4607 0.5701 0.6662 0.5376 0.4614
2324.418 0.6109 0.6383 0.5414 0.4909 0.4586 0.4686 0.5874 0.6334 0.5731 0.5517
2343.708 0.5564 0.4767 0.40994 0.4762 0.5473 0.5606 0.4777 0.4989 0.5647 0.4882
2362.998 0.4779 0.5291 0.5621 0.6293 0.5989 0.5256 0.5465 0.6247 0.5402 0.4598
2382.288 0.5439 0.5322 0.47 0.42498 0.4699 0.5208 0.489 0.3879 0.37042 0.42534
2401.578 0.466 0.5037 0.5006 0.4996 0.4863 0.5272 0.5782 0.5402 0.5326 0.5281
2420.867 0.5016 0.5836 0.5869 0.5248 0.5381 0.5596 0.4498 0.41399 0.44013 0.42227
2440.157 0.4629 0.4764 0.5298 0.5561 0.4828 0.4697 0.5456 0.45553 0.4027 0.4698
2459.447 0.44435 0.4915 0.5241 0.4412 0.45378 0.5209 0.4788 0.4772 0.5816 0.6391
2478.737 0.6506 0.6385 0.5967 0.556 0.5582 0.5273 0.4833 0.5436 0.5449 0.5057
2498.026 0.5265 0.5349 0.5017 0.44911 0.4846 0.6688 0.6181 0.5426 0.7022 0.6221
2517.316 0.5129 0.5506 0.5408 0.5394 0.6119 0.6013 0.5469 0.5361 0.4746 0.41978
2536.606 0.4949 0.6198 0.6007 0.5258 0.5509 0.5824 0.5792 0.5071 0.4931 0.5243
2555.896 0.516 0.6392 0.6591 0.5139 0.42109 0.5211 0.5879 0.5678 0.5261 0.44622
2575.186 0.43761 0.4601 0.6031 0.6123 0.5165 0.6236 0.6152 0.4976 0.543 0.5982
2594.475 0.6474 0.6257 0.5258 0.5503 0.5479 0.488 0.5019 0.5877 0.6154 0.5165
2613.765 0.4767 0.4914 0.5009 0.4926 0.4994 0.5317 0.5157 0.53 0.5637 0.614
2633.055 0.6555 0.5793 0.5935 0.6573 0.5407 0.5149 0.5687 0.5429 0.557 0.5797
2652.345 0.5789 0.6015 0.6546 0.6475 0.6132 0.6391 0.6561 0.623 0.6963 0.6701
2671.634 0.6166 0.6126 0.5399 0.5337 0.5019 0.5153 0.565 0.5663 0.5451 0.549
2690.924 0.6042 0.6807 0.6306 0.5865 0.6342 0.5199 0.4645 0.5093 0.43557 0.5221
2710.214 0.6118 0.6017 0.5457 0.5351 0.5965 0.5465 0.5636 0.6267 0.6295 0.5742
2729.504 0.5268 0.591 0.6238 0.5624 0.5648 0.5933 0.5251 0.5294 0.6138 0.666
2748.794 0.6796 0.6393 0.6739 0.7637 0.7879 0.7653 0.7242 0.7049 0.8068 0.8236
2768.083 0.788 0.8663 0.7997 0.7003 0.7963 0.8517 0.9528 1.0063 0.8302 0.7961
2787.373 0.8314 0.8963 0.9199 0.917 0.9658 1.0367 1.0724 1.0411 1.1162 1.1481
2806.663 1.2557 1.2638 1.1822 1.2081 1.2457 1.3123 1.336 1.2952 1.3276 1.468
2825.953 1.578 1.618 1.668 1.828 1.948 1.918 1.958 2.218 2.378 2.358
2845.242 2.488 2.718 2.728 2.668 2.838 3.058 3.078 3.188 3.258 3.238
2864.532 3.408 3.568 3.618 3.698 3.708 3.568 3.508 3.488 3.418 3.448
2883.822 3.418 3.288 3.228 3.198 3.288 3.218 3.068 3.188 3.178 3.218
2903.112 3.498 3.608 3.698 3.858 4.048 4.308 4.478 4.718 5.038 5.248
2922.401 5.488 5.768 5.868 5.978 6.118 6.138 6.128 6.078 5.828 5.478
2941.691 5.318 5.238 4.878 4.638 4.448 4.128 3.938 3.658 3.568 3.498
2960.981 3.198 3.028 2.858 2.898 3.048 3.018 2.908 2.898 3.018 3.018
2980.271 3.148 3.288 3.288 3.318 3.438 3.618 3.578 3.378 3.278 3.188
2999.561 2.978 2.768 2.598 2.408 2.328 2.208 2.058 1.978 1.908 1.768
3018.850 1.738 1.718 1.568 1.588 1.498 1.3349 1.2199 1.1172 1.0729 1.0139
3038.140 0.9571 0.7464 0.6077 0.5838 0.6665 0.7667 0.6328 0.4862 0.5191 0.5839
3057.430 0.6326 0.6536 0.6161 0.45484 0.43657 0.5652 0.5778 0.5571 0.547 0.6456
3076.720 0.6366 0.6968 0.7474 0.6941 0.7005 0.566 0.45763 0.5501 0.6633 0.5908
3096.009 0.5515 0.5109 0.45542 0.41825 0.41787 0.5698 0.6621 0.5341 0.4554 0.363945
3115.299 0.34 0.577 0.6434 0.5498 0.43273 0.361509 0.4602 0.5338 0.4664 0.45466
3134.589 0.37333 0.218 0.24 0.4746 0.5053 0.41702 0.364906 0.37157 0.47 0.4628
3153.879 0.4809 0.43245 0.3443 0.42259 0.5114 0.4164 0.40677 0.44117 0.40568 0.40739
3173.169 0.4471 0.43012 0.43664 0.42711 0.43135 0.5963 0.6776 0.562 0.37264 0.2864
3192.458 0.36741 0.36893 0.457 0.6518 0.5028 0.382 0.4993 0.5462 0.4651 0.4637
3211.748 0.45603 0.359315 0.40012 0.5149 0.4667 0.40953 0.4718 0.5202 0.41025 0.3131
3231.038 0.40877 0.38985 0.3011 0.35419 0.45426 0.37225 0.36587 0.537 0.5412 0.494
3250.328 0.43998 0.42928 0.43647 0.39807 0.34995 0.2957 0.3403 0.474 0.5193 0.45133
3269.617 0.44072 0.42049 0.41306 0.365826 0.3274 0.4692 0.5481 0.41515 0.3094 0.4221
3288.907 0.5446 0.4877 0.41793 0.5219 0.548 0.5097 0.5572 0.5726 0.4942 0.5784
3308.197 0.6396 0.4637 0.3315 0.4121 0.5756 0.5597 0.35138 0.3254 0.364536 0.304
3327.487 0.42557 0.37389 0.38562 0.42621 0.43266 0.5119 0.4994 0.41531 0.2749 0.2783
3346.777 0.366017 0.4618 0.4712 0.5315 0.62 0.603 0.5485 0.43907 0.3013 0.3418
3366.066 0.45611 0.41564 0.2699 0.243 0.40216 0.4994 0.5041 0.37324 0.2904 0.38558
3385.356 0.35612 0.3049 0.40448 0.43481 0.286 0.203 0.242 0.256 0.36953 0.40078
3404.646 0.2765 0.22 0.2876 0.36411 0.40021 0.5908 0.601 0.5247 0.7852 0.7071
3423.936 0.37265 0.2704 0.39701 0.5548 0.38911 0.358038 0.35484 0.2733 0.235 0.209
3443.225 0.3335 0.37531 0.365206 0.44842 0.5322 0.41663 0.2997 0.252 0.346 0.43063
3462.515 0.3878 0.5335 0.5968 0.4896 0.365551 0.2649 0.246 0.3879 0.44755 0.4762
3481.805 0.6199 0.6276 0.43731 0.3792 0.43668 0.37822 0.2997 0.2619 0.2737 0.34828
3501.095 0.5462 0.45384 0.18 0.2706 0.39501 0.37857 0.40372 0.215 0.218 0.44713
3520.385 0.41737 0.3245 0.197 0.251 0.5251 0.5187 0.37162 0.3029 0.3071 0.3284
3539.674 0.4666 0.4635 0.3411 0.44918 0.37718 0.3253 0.3212 0.3062 0.306 0.3091
3558.964 0.4873 0.5574 0.45417 0.45436 0.43831 0.35134 0.40244 0.3334 0.179 0.213
3578.254 0.3417 0.44484 0.567 0.4904 0.3004 0.3385 0.313 0.191 0.2669 0.2836
3597.544 0.193 0.126 0.209 0.3369 0.3229 0.3369 0.38691 0.2756 0.2751 0.39715
3616.833 0.3316 0.3314 0.40279 0.217 0.241 0.5012 0.5585 0.5167 0.45642 0.42722
3636.123 0.2927 0.3269 0.37967 0.40476 0.43137 0.223 0.2583 0.2963 0.319 0.5304
3655.413 0.6006 0.571 0.6883 0.6256 0.3369 0.43564 0.44559 0.3318 0.39428 0.45695
3674.703 0.3235 0.228 0.36997 0.39643 0.2831 0.2799 0.3163 0.2852 0.3219 0.4016
3693.993 0.4745 0.4727 0.37845 0.367993 0.2841 0.057 0.184 0.34 0.34889 0.434
3713.282 0.37151 0.43302 0.45057 0.347 0.37369 0.44065 0.38251 0.3427 0.44367 0.42662
3732.572 0.4854 0.5566 0.41095 0.4661 0.6293 0.5734 0.4884 0.40674 0.3367 0.36326
3751.862 0.357324 0.252 0.259 0.36958 0.31 0.40666 0.4689 0.40075 0.4845 0.43785
3771.152 0.4859 0.55 0.5557 0.4694 0.39605 0.44636 0.45023 0.5288 0.5098 0.5514
3790.441 0.505 0.3387 0.256 0.231 0.358745 0.4707 0.502 0.43211 0.3391 0.35457
3809.731 0.37584 0.3064 0.35055 0.4761 0.4403 0.219 0.223 0.36149 0.42577 0.41455
3829.021 0.362621 0.2938 0.3089 0.38184 0.2685 0.182 0.2865 0.4532 0.45463 0.40351
3848.311 0.4999 0.4829 0.5175 0.5274 0.6032 0.5568 0.4877 0.5471 0.41987 0.36458
3867.601 0.3085 0.41187 0.34869 0.2908 0.478 0.5624 0.4607 0.3032 0.41787 0.5699
3886.890 0.5116 0.43528 0.4599 0.42307 0.3399 0.2962 0.202 0.2876 0.271 0.205
3906.180 0.43284 0.4913 0.40502 0.4749 0.6797 0.5891 0.362622 0.3237 0.3169 0.2722
3925.470 0.194 0.3072 0.40878 0.35276 0.3271 0.3226 0.34981 0.34999 0.3381 0.5117
3944.760 0.6255 0.5848 0.5804 0.5868 0.5953 0.40126 0.291 0.38654 0.43346 0.5408
3964.049 0.4727 0.2937 0.191 0.3047 0.4591 0.4731 0.5158 0.6661 0.7366 0.7086
3983.339 0.5884 0.38106 0.3407 0.5258 0.5483 0.2791 0.44401 0.6494 0.6213 0.5913
##END=
