##TITLE=1-Allyl-4-methoxybenzene
##JCAMP-DX=4.24
##DATA TYPE=INFRARED SPECTRUM
##ORIGIN=NIST Mass Spectrometry Data Center
##OWNER=NIST Standard Reference Data Program
Collection (C) 2018 copyright by the U.S. Secretary of Commerce
on behalf of the United States of America. All rights reserved.
##CAS REGISTRY NO=140-67-0
##MOLFORM=C 10 H 12 O
##$NIST SOURCE=MSDC-IR
##SPECTROMETER/DATA SYSTEM=HP-GC/MS/IRD
##STATE=gas
##XUNITS=1/CM
##YUNITS=ABSORBANCE
##XFACTOR=1.0
##YFACTOR=0.000004100
##DELTAX=4.0
##FIRSTX=550.0
##LASTX=3846.0
##FIRSTY=0.001542
##MAXX=3846
##MINX=550
##MAXY=0.041
##MINY=0
##NPOINTS=825
##XYDATA=(X++(Y..Y))
550.0 376 259 166 146 105 116 127 119 116 144
590.0 190 218 257 285 349 444 524 564 543 454
630.0 340 253 200 164 124 90 58 27 21 15
670.0 5 8 5 0 5 12 19 32 48 68
710.0 77 55 35 29 16 8 9 32 74 133
750.0 203 268 314 310 268 221 199 208 247 296
790.0 389 531 687 866 1046 1203 1332 1416 1451 1424
830.0 1373 1322 1237 1091 905 718 550 420 337 291
870.0 268 268 283 320 385 469 578 731 919 1157
910.0 1379 1477 1424 1230 960 726 569 454 364 316
950.0 289 275 278 301 337 393 469 574 717 871
990.0 977 1008 970 894 855 864 919 1037 1222 1492
1030.0 1826 2157 2397 2459 2309 1974 1558 1164 856 658
1070.0 539 459 408 393 394 411 449 473 477 475
1110.0 464 440 398 350 302 265 249 250 263 297
1150.0 356 452 629 1002 1637 2278 2594 2557 2112 1482
1190.0 1068 875 821 842 909 1028 1206 1478 1914 2585
1230.0 3602 5119 7075 8960 10000 9782 8362 6265 4455 3369
1270.0 2772 2444 2273 2200 2172 2142 2037 1816 1511 1185
1310.0 912 728 625 577 537 488 437 388 345 300
1350.0 269 247 223 208 199 189 176 169 167 168
1390.0 178 193 217 258 307 349 394 441 504 590
1430.0 711 875 1046 1146 1155 1120 1085 1119 1229 1311
1470.0 1301 1227 1117 1032 1096 1392 2053 3340 5351 7452
1510.0 8486 8002 6220 3782 2012 1204 829 620 490 410
1550.0 365 340 331 341 367 414 486 586 687 785
1590.0 892 1020 1210 1448 1659 1743 1659 1445 1204 1032
1630.0 980 1005 1013 949 799 595 410 301 234 181
1670.0 141 117 102 84 71 66 58 53 54 51
1710.0 49 49 47 49 53 56 57 62 72 83
1750.0 89 91 87 75 67 58 51 42 38 41
1790.0 44 48 54 57 63 79 96 114 139 169
1830.0 196 206 198 181 169 160 155 154 155 153
1870.0 149 149 147 141 127 117 108 93 79 64
1910.0 53 46 40 43 46 50 51 50 47 45
1950.0 45 49 50 49 52 56 57 63 70 81
1990.0 93 101 105 109 112 110 100 95 92 89
2030.0 91 94 100 105 115 125 133 137 138 141
2070.0 140 137 133 126 113 99 81 62 50 41
2110.0 36 29 20 19 16 12 12 9 7 6
2150.0 5 3 5 4 3 2 0 1 5 6
2190.0 7 9 7 8 13 14 13 12 15 15
2230.0 16 14 9 13 12 14 19 23 25 31
2270.0 43 44 38 39 37 37 37 29 28 32
2310.0 32 24 21 23 25 22 18 21 24 27
2350.0 23 15 17 15 14 13 11 14 14 12
2390.0 9 5 7 18 20 19 28 30 28 23
2430.0 18 13 14 18 17 19 20 23 26 27
2470.0 34 42 45 47 49 51 53 53 48 45
2510.0 38 37 40 41 48 51 53 58 60 55
2550.0 49 45 39 29 25 23 25 29 30 28
2590.0 28 30 30 26 22 23 21 20 24 25
2630.0 22 20 25 23 16 13 10 7 3 0
2670.0 0 4 9 10 16 23 23 24 23 24
2710.0 26 25 29 34 35 39 45 49 51 49
2750.0 54 58 58 61 62 65 69 74 90 100
2790.0 114 129 151 184 216 252 296 356 435 549
2830.0 720 958 1208 1365 1394 1286 1075 884 765 683
2870.0 629 612 624 664 738 856 1000 1190 1409 1641
2910.0 1838 1949 1957 1892 1817 1782 1809 1877 1923 1915
2950.0 1852 1736 1602 1472 1354 1268 1227 1243 1307 1390
2990.0 1512 1666 1870 2089 2195 2133 1905 1617 1416 1351
3030.0 1379 1403 1351 1220 1045 903 843 848 895 967
3070.0 1036 1095 1158 1213 1224 1177 1059 890 720 578
3110.0 478 405 336 276 235 204 172 137 110 106
3150.0 100 87 78 68 61 63 61 55 45 42
3190.0 36 41 45 43 43 36 34 26 28 39
3230.0 39 38 37 28 22 22 19 24 26 28
3270.0 29 20 19 24 18 12 11 7 6 2
3310.0 11 18 15 7 9 12 9 8 14 23
3350.0 17 18 15 10 7 7 11 14 16 7
3390.0 8 13 13 10 15 20 10 15 22 20
3430.0 13 13 9 12 18 14 18 24 24 16
3470.0 14 18 12 5 6 11 12 11 14 15
3510.0 11 7 10 15 21 26 24 21 17 17
3550.0 16 17 21 18 15 16 17 16 20 16
3590.0 12 11 11 13 15 16 14 5 0 7
3630.0 20 22 16 11 17 28 23 25 27 22
3670.0 22 24 31 39 34 27 23 25 26 20
3710.0 18 24 21 17 17 19 20 17 15 16
3750.0 14 18 25 27 35 27 24 29 29 27
3790.0 30 31 27 32 32 36 41 36 36 42
3830.0 34 25 34 34 26
##END=
