##TITLE=Ethyl-p-tolyl acetate
##JCAMP-DX=4.24
##DATA TYPE=INFRARED SPECTRUM
##ORIGIN=EPA-IR VAPOR PHASE LIBRARY
##OWNER=SRD/NIST
Collection (C) 2018 copyright by the U.S. Secretary of Commerce
on behalf of the United States of America. All rights reserved.
##CAS REGISTRY NO=14062-19-2
##MOLFORM=C 11 H 14 O 2
##$NIST SOURCE=MSDC-IR
##STATE=gas
##XUNITS=1/CM
##YUNITS=ABSORBANCE
##XFACTOR=1.
##YFACTOR=0.001
##DELTAX=3.85796
##FIRSTX=501.5
##LASTX=4000.7
##FIRSTY=9.9778
##MAXX=4000.7
##MINX=501.534
##MAXY=0.214808
##MINY=0
##NPOINTS=908
##XYDATA=(X++(Y..Y))
501.534 9.9778 9.7678 9.3278 8.5178 7.3678 6.2978 5.1978 4.0578 3.1578 2.5378
540.114 2.0778 1.6678 1.3978 1.3078 1.2778 1.3078 1.4478 1.5978 1.6878 1.8478
578.693 2.2078 2.5778 2.9278 3.3778 3.9578 4.6978 5.4478 6.0978 6.5378 6.5978
617.273 6.2078 5.6278 4.9378 4.1978 3.6078 3.1078 2.6478 2.3878 2.2478 2.2078
655.852 2.2278 2.2378 2.2478 2.3478 2.5778 2.8578 3.1578 3.5978 4.1378 4.6078
694.432 4.7778 4.7178 4.9278 5.7678 7.4278 9.6478 11.2378 11.3378 10.0278 8.2878
733.011 7.0078 6.4978 6.6178 7.2478 8.3978 10.0678 12.0678 14.3278 16.8678 19.4478
771.591 21.7678 23.4078 24.0978 24.0678 23.9178 23.9678 24.0678 23.9278 23.3978 22.4678
810.170 21.1878 19.4478 17.1378 14.4878 12.1278 10.4778 9.4178 8.8378 8.5278 8.2878
848.750 7.9578 7.5378 7.1378 6.7278 6.3578 6.0478 5.8478 5.7078 5.5778 5.4678
887.330 5.2878 5.1478 5.2078 5.4978 6.0478 6.8778 8.0478 9.4578 10.8378 11.9378
925.909 12.4578 12.3178 11.7278 10.9478 10.1178 9.2878 8.4378 7.5978 6.8278 6.2078
964.489 5.8178 5.5878 5.4978 5.5478 5.6778 5.9478 6.2678 6.8178 7.6478 8.9178
1003.068 10.9478 14.1278 19.4578 28.6178 39.9378 50.5778 60.6378 68.3878 73.0378 72.6378
1041.648 65.0978 53.1678 41.1678 31.9278 25.6278 21.5278 19.0478 17.7078 17.3978 17.9778
1080.227 19.3978 21.9178 25.5678 30.1678 34.8378 38.8378 42.2278 45.9778 51.4678 59.6378
1118.807 71.2278 86.9378 107.018 130.538 154.748 175.358 187.588 188.488 178.298 160.128
1157.387 138.918 118.648 101.488 88.1678 78.3778 71.5678 66.9478 63.1078 59.7278 57.1978
1195.966 55.8878 57.1178 60.5178 64.6978 69.4078 74.9378 81.9378 90.3778 99.4778 108.948
1234.546 118.828 128.408 136.058 139.518 136.758 127.758 114.448 99.4778 85.2678 73.3578
1273.125 64.0078 57.2078 52.9078 50.9578 50.8678 51.5578 52.1478 52.2878 51.8378 50.8678
1311.705 49.5178 48.0978 47.0178 46.3978 45.7878 44.4578 41.8178 37.7178 32.7778 27.9478
1350.284 23.9878 21.6478 21.6478 24.5078 28.3978 30.0278 28.7178 24.8178 20.5578 18.1478
1388.864 16.9378 16.2278 15.9278 15.9478 16.2578 16.9478 18.0078 19.3478 20.7578 22.0278
1427.443 22.9578 23.4278 23.3278 22.6578 21.5878 20.3478 19.3478 18.7778 18.7278 19.1878
1466.023 19.8078 19.8978 19.0778 17.6278 16.0978 14.9778 14.5378 14.9578 16.5278 19.9078
1504.603 26.2078 36.5478 46.4878 49.1078 42.8978 30.2078 18.0678 11.6278 8.8478 7.4078
1543.182 6.5378 5.9378 5.4778 5.1478 4.9178 4.7578 4.6778 4.6278 4.6278 4.6578
1581.762 4.6878 4.6978 4.6878 4.6778 4.7278 4.8078 4.9078 5.0178 5.0978 5.1278
1620.341 5.1078 5.0278 4.9278 4.8278 4.7678 4.6778 4.5978 4.5278 4.4778 4.4578
1658.921 4.4978 4.6478 4.8478 5.1578 5.6078 6.1978 6.9378 7.8778 9.0178 10.3978
1697.500 12.0678 13.9978 16.1678 18.7178 21.8878 26.1078 31.8878 40.1178 52.2678 70.0378
1736.080 95.2478 126.818 161.878 193.048 212.568 214.808 198.268 168.708 135.898 103.928
1774.659 76.1278 55.0478 39.9978 29.5378 22.2878 17.1378 13.5378 11.0478 9.2778 7.9878
1813.239 7.0078 6.2578 5.6678 5.1978 4.8278 4.5378 4.2978 4.1178 3.9878 3.9078
1851.819 3.8878 3.9078 3.9978 4.1578 4.3578 4.5978 4.8578 5.0978 5.2878 5.4178
1890.398 5.4478 5.3778 5.1478 4.7978 4.4178 3.9878 3.5578 3.1978 2.9178 2.6978
1928.978 2.5478 2.4578 2.4078 2.3878 2.3878 2.3978 2.4078 2.4378 2.4578 2.4678
1967.557 2.4778 2.4578 2.4178 2.3678 2.2978 2.2078 2.1078 1.9978 1.8978 1.8178
2006.137 1.7778 1.7478 1.7178 1.6978 1.6678 1.6378 1.6078 1.5678 1.5178 1.4878
2044.716 1.4778 1.4678 1.4878 1.5078 1.5478 1.5778 1.5878 1.6378 1.6478 1.6678
2083.296 1.6778 1.6778 1.6678 1.6278 1.5678 1.4778 1.3678 1.2578 1.1778 1.0878
2121.875 1.022 0.972 0.9173 0.902 0.8818 0.8504 0.8421 0.8341 0.8019 0.775
2160.455 0.7494 0.7085 0.6843 0.6699 0.6702 0.672 0.6578 0.6464 0.6478 0.6678
2199.035 0.6947 0.7201 0.7353 0.7288 0.7253 0.7397 0.7474 0.7515 0.7578 0.7699
2237.614 0.7947 0.7995 0.7914 0.7953 0.8045 0.8114 0.8205 0.822 0.7997 0.7898
2276.194 0.7987 0.8118 0.8478 0.8999 0.9654 1.0503 1.1278 1.1878 1.2178 1.2178
2314.773 1.2078 1.1678 1.1178 1.0677 1.0407 1.0238 1.0007 0.9913 0.982 0.9532
2353.353 0.9253 0.8893 0.8656 0.8398 0.8164 0.8128 0.8332 0.8466 0.8231 0.7972
2391.932 0.7916 0.7793 0.7701 0.7964 0.8097 0.7961 0.8253 0.8462 0.8108 0.7794
2430.512 0.7713 0.7544 0.7042 0.6765 0.6625 0.6443 0.6484 0.6553 0.655 0.6594
2469.092 0.6618 0.6483 0.6224 0.5957 0.5727 0.5527 0.5399 0.5188 0.512 0.503
2507.671 0.4826 0.4666 0.458 0.454 0.4592 0.4615 0.4559 0.455 0.4362 0.4233
2546.251 0.4148 0.4038 0.4055 0.4115 0.4339 0.4506 0.4739 0.5253 0.5721 0.6151
2584.830 0.6621 0.7125 0.7293 0.7253 0.7235 0.7031 0.6615 0.6385 0.6213 0.6091
2623.410 0.6198 0.6339 0.6267 0.5906 0.5505 0.4823 0.438 0.4247 0.3979 0.4222
2661.989 0.4572 0.4732 0.4994 0.5413 0.5774 0.5994 0.6259 0.6442 0.6621 0.7143
2700.569 0.7917 0.8318 0.8694 0.9615 1.0878 1.2378 1.4178 1.6378 1.8578 2.1378
2739.148 2.4178 2.5078 2.4178 2.1878 1.9078 1.7278 1.6478 1.6278 1.6678 1.7378
2777.728 1.7878 1.8178 1.8678 1.9578 2.0778 2.2278 2.4178 2.6078 2.8378 3.1178
2816.308 3.4578 3.8278 4.2178 4.5978 4.9978 5.4778 6.0878 6.7978 7.6478 8.7278
2854.887 9.9978 11.5678 13.5878 16.0178 18.7278 21.3678 23.4378 24.5678 24.7978 24.5578
2893.467 24.3378 24.5478 25.4178 26.9878 29.1778 31.9378 35.2978 39.4978 44.8778 51.1678
2932.046 56.9078 60.2978 60.2578 56.8178 51.4978 46.1578 42.0978 40.2478 40.6078 42.6678
2970.626 46.2378 51.6578 58.9778 65.9978 69.4378 67.9378 62.7078 56.9978 52.8178 49.8378
3009.205 47.5378 45.8978 45.3878 46.3378 47.7878 47.5578 44.5178 39.1578 33.5678 29.9878
3047.785 28.2978 27.3178 26.2078 24.5378 22.1878 19.4478 16.7578 14.4078 12.6478 11.4378
3086.364 10.6078 9.9378 9.2878 8.5878 7.8178 7.0078 6.1678 5.3978 4.7878 4.3478
3124.944 4.0378 3.8578 3.7078 3.4878 3.1278 2.6678 2.2178 1.8578 1.6578 1.4778
3163.524 1.3578 1.2778 1.1878 1.1278 1.038 0.9101 0.8549 0.8176 0.7489 0.6956
3202.103 0.6569 0.6449 0.6049 0.5336 0.4955 0.5107 0.4893 0.4466 0.4601 0.4506
3240.683 0.4017 0.3624 0.3165 0.2925 0.3161 0.2942 0.2933 0.3043 0.2908 0.2962
3279.262 0.2463 0.2115 0.2153 0.213 0.2132 0.2101 0.201 0.2125 0.2378 0.2144
3317.842 0.2042 0.2441 0.2425 0.2248 0.2336 0.2274 0.2143 0.2117 0.2031 0.2291
3356.421 0.2256 0.1907 0.2077 0.2594 0.3187 0.3538 0.3153 0.2896 0.3152 0.3159
3395.001 0.3357 0.3595 0.3508 0.3401 0.3063 0.3052 0.3599 0.3709 0.3821 0.4156
3433.580 0.4628 0.4992 0.5119 0.5601 0.6066 0.6534 0.7534 0.8278 0.9718 1.1978
3472.160 1.4378 1.7078 1.9478 2.1478 2.2378 2.2178 2.0978 1.9578 1.7378 1.5478
3510.740 1.3278 1.0878 0.8977 0.7501 0.6711 0.5695 0.4935 0.4349 0.393 0.3747
3549.319 0.3381 0.2546 0.1753 0.16596 0.16703 0.1695 0.15097 0.1285 0.13623 0.1261
3587.899 0.10215 0.0958 0.1006 0.068847 0.0134 0 0.0325 0.08373 0.11373 0.12191
3626.478 0.15883 0.1408 0.12075 0.16466 0.1688 0.14826 0.194 0.2412 0.2733 0.3534
3665.058 0.3545 0.3286 0.3364 0.3081 0.2654 0.2574 0.2576 0.2333 0.2083 0.242
3703.637 0.2415 0.1993 0.2142 0.2197 0.2173 0.2411 0.2523 0.2551 0.2742 0.2755
3742.217 0.2738 0.2643 0.2337 0.2691 0.2921 0.2916 0.3462 0.3518 0.3301 0.3483
3780.797 0.3474 0.3331 0.3467 0.3454 0.31 0.3032 0.3478 0.3589 0.3561 0.3297
3819.376 0.3244 0.3724 0.361 0.371 0.3888 0.3699 0.4153 0.4629 0.4764 0.4428
3857.956 0.4202 0.4507 0.4467 0.4267 0.448 0.4983 0.5141 0.4843 0.4452 0.4621
3896.535 0.4461 0.4267 0.4668 0.4678 0.4753 0.444 0.4019 0.4061 0.4511 0.4689
3935.115 0.4555 0.4521 0.4393 0.4238 0.4169 0.4135 0.4172 0.4324 0.4069 0.3874
3973.694 0.4375 0.4526 0.4738 0.4954 0.4226 0.3671 0.4134 0.4916
##END=
