##TITLE=3-Aminobenzhydrazide
##JCAMP-DX=4.24
##DATA TYPE=INFRARED SPECTRUM
##ORIGIN=EPA-IR VAPOR PHASE LIBRARY
##OWNER=SRD/NIST
Collection (C) 2018 copyright by the U.S. Secretary of Commerce
on behalf of the United States of America. All rights reserved.
##CAS REGISTRY NO=14062-34-1
##MOLFORM=C 7 H 9 N 3 O
##$NIST SOURCE=MSDC-IR
##STATE=gas
##XUNITS=1/CM
##YUNITS=ABSORBANCE
##XFACTOR=1.
##YFACTOR=0.001
##DELTAX=1.92898
##FIRSTX=549.8
##LASTX=4000.7
##FIRSTY=3.65
##MAXX=4000.7
##MINX=549.759
##MAXY=0.01777
##MINY=0.0007596
##NPOINTS=1790
##XYDATA=(X++(Y..Y))
549.759 3.65 3.49 3.29 3.31 3.54 3.49 3.29 3.28 3.24 3.3
569.049 3.44 3.5 3.38 3.16 3.25 3.45 3.48 3.28 3.24 3.28
588.339 3.14 3.25 3.33 3.22 3.17 3.19 3.19 3.14 3.2 3.22
607.628 3.17 3.23 3.29 3.31 3.29 3.34 3.37 3.3 3.44 3.57
626.918 3.53 3.61 3.82 3.98 4.11 4.23 4.32 4.44 4.66 4.9
646.208 5.18 5.46 5.61 5.74 5.87 5.93 5.92 5.83 5.79 5.88
665.498 5.95 5.91 6 6.15 6.28 6.52 6.77 6.91 7.15 7.31
684.787 7.24 7.1 6.85 6.61 6.38 6.14 5.92 5.65 5.42 5.2
704.077 5.01 4.9 4.67 4.51 4.49 4.42 4.4 4.44 4.41 4.34
723.367 4.46 4.67 4.79 4.88 5.04 5.35 5.6 5.86 6.09 6.29
742.657 6.43 6.37 6.34 6.39 6.31 6.05 5.79 5.51 5.23 5.01
761.947 4.85 4.68 4.51 4.48 4.4 4.28 4.22 4.27 4.39 4.4
781.236 4.4 4.47 4.53 4.58 4.6 4.62 4.61 4.54 4.46 4.39
800.526 4.29 4.14 4.02 3.95 3.81 3.79 3.86 3.82 3.82 3.85
819.816 3.9 4 4.06 4.06 4.06 4.05 3.99 3.95 3.99 3.97
839.106 3.91 3.9 3.86 3.81 3.83 3.96 4.03 4.05 4.17 4.32
858.395 4.42 4.51 4.58 4.68 4.8 4.84 4.89 5.05 5.12 5.12
877.685 5.2 5.37 5.53 5.58 5.6 5.66 5.72 5.79 5.84 5.83
896.975 5.79 5.85 5.91 5.86 5.84 5.82 5.79 5.72 5.5 5.35
916.265 5.24 5 4.7 4.5 4.3 4.11 3.92 3.75 3.7 3.59
935.555 3.53 3.57 3.53 3.56 3.72 3.89 4.02 4.21 4.54 4.84
954.844 5.09 5.29 5.44 5.57 5.56 5.52 5.5 5.36 5.2 4.89
974.134 4.47 4.13 3.86 3.64 3.41 3.2 3.05 3.04 2.99 2.91
993.424 2.92 2.9 2.84 2.76 2.61 2.55 2.5 2.35 2.27 2.28
1012.714 2.28 2.18 2.08 2.03 2.01 1.94 1.8 1.76 1.81 1.92
1032.003 2.04 1.97 1.94 2.04 2.04 1.97 1.96 1.97 2.02 2.05
1051.293 2 2.06 2.1 2.06 2.03 2.02 2.03 2.08 2.04 1.99
1070.583 1.95 1.97 2.09 2.15 2.13 2.1 2.19 2.29 2.28 2.33
1089.873 2.3 2.06 2.16 2.4 2.31 2.27 2.42 2.57 2.56 2.49
1109.163 2.38 2.38 2.39 2.34 2.35 2.29 2.16 2.06 2.06 2.11
1128.452 2.02 1.95 1.98 1.99 2.04 2.04 1.95 1.96 2.08 1.88
1147.742 1.73 1.93 1.95 1.96 2.05 2.03 1.99 2.1 2.2 2.03
1167.032 1.95 1.95 1.87 1.9 1.9 1.79 1.74 1.71 1.7 1.68
1186.322 1.7 1.78 1.79 1.73 1.79 1.89 1.87 1.76 1.7 1.77
1205.611 1.87 1.97 1.98 2.01 2.07 2.2 2.25 2.31 2.58 2.82
1224.901 3.04 3.4 3.65 3.95 4.35 4.65 5.01 5.42 5.78 5.98
1244.191 6.22 6.43 6.44 6.34 6.15 5.93 5.75 5.5 5.13 4.83
1263.481 4.57 4.36 4.17 4.1 4.27 4.45 4.72 5.15 5.64 6.32
1282.771 7.03 7.76 8.54 9.22 9.82 10.34 10.82 11.18 11.45 11.66
1302.060 11.8 11.94 12.06 12.09 12.01 11.75 11.34 10.74 9.92 8.91
1321.350 7.81 6.74 5.78 5 4.4 3.97 3.66 3.4 3.2 3.02
1340.640 2.88 2.79 2.71 2.65 2.61 2.57 2.53 2.5 2.45 2.4
1359.930 2.35 2.28 2.24 2.23 2.21 2.19 2.16 2.11 2.08 2.07
1379.219 2.08 2.09 2.12 2.17 2.2 2.24 2.3 2.35 2.44 2.54
1398.509 2.68 2.89 3.06 3.22 3.42 3.66 3.98 4.36 4.75 5.21
1417.799 5.74 6.37 7.02 7.71 8.44 9.17 9.9 10.54 11.06 11.46
1437.089 11.67 11.76 11.79 11.76 11.68 11.6 11.56 11.62 11.82 12.12
1456.378 12.39 12.69 12.99 13.24 13.34 13.37 13.35 13.14 12.8 12.41
1475.668 12.03 11.63 11.18 10.69 10.2 9.68 9.11 8.58 8.05 7.59
1494.958 7.21 6.88 6.57 6.27 6 5.72 5.42 5.1 4.83 4.57
1514.248 4.31 4.06 3.9 3.73 3.55 3.43 3.28 3.19 3.19 3.13
1533.538 3.05 3 2.98 2.99 2.94 2.87 2.83 2.82 2.81 2.81
1552.827 2.87 2.91 3.02 3.13 3.2 3.34 3.57 3.81 4.11 4.48
1572.117 4.87 5.34 5.96 6.6 7.22 7.81 8.28 8.67 8.95 9.23
1591.407 9.45 9.55 9.54 9.4 9.26 9.15 9.07 9.14 9.33 9.73
1610.697 10.32 11.08 12.02 13.08 14.06 14.87 15.5 15.93 16.16 16.13
1629.986 15.83 15.23 14.32 13.2 12 10.88 9.87 8.97 8.18 7.45
1649.276 6.8 6.32 5.91 5.56 5.36 5.23 5.13 5.11 5.16 5.24
1668.566 5.37 5.55 5.75 5.96 6.23 6.6 7.12 7.78 8.64 9.71
1687.856 10.95 12.43 14.03 15.56 16.72 17.32 17.51 17.65 17.77 17.5
1707.146 16.48 14.86 12.91 11.02 9.41 8.15 7.15 6.4 5.83 5.39
1726.435 5.1 4.89 4.66 4.43 4.22 3.99 3.73 3.46 3.26 3.08
1745.725 2.86 2.69 2.54 2.37 2.29 2.23 2.17 2.13 2.07 2
1765.015 1.93 1.88 1.86 1.86 1.86 1.83 1.82 1.82 1.79 1.75
1784.305 1.73 1.72 1.68 1.66 1.7 1.69 1.64 1.62 1.62 1.58
1803.594 1.57 1.57 1.54 1.56 1.58 1.58 1.57 1.56 1.61 1.63
1822.884 1.61 1.62 1.67 1.67 1.67 1.66 1.66 1.67 1.67 1.66
1842.174 1.63 1.59 1.58 1.59 1.6 1.57 1.55 1.55 1.53 1.52
1861.464 1.5 1.49 1.5 1.47 1.44 1.41 1.41 1.41 1.4 1.39
1880.754 1.4 1.41 1.42 1.41 1.4 1.41 1.42 1.45 1.48 1.46
1900.043 1.45 1.48 1.49 1.5 1.51 1.52 1.54 1.52 1.49 1.5
1919.333 1.5 1.48 1.46 1.45 1.42 1.42 1.43 1.4 1.39 1.36
1938.623 1.32 1.31 1.29 1.28 1.29 1.28 1.27 1.27 1.27 1.24
1957.913 1.23 1.24 1.26 1.27 1.26 1.27 1.28 1.26 1.25 1.24
1977.202 1.23 1.19 1.2 1.24 1.24 1.22 1.22 1.23 1.21 1.17
1996.492 1.17 1.18 1.2 1.19 1.19 1.19 1.16 1.18 1.19 1.16
2015.782 1.16 1.15 1.13 1.12 1.1 1.13 1.14 1.11 1.08 1.07
2035.072 1.06 1.06 1.06 1.08 1.1 1.08 1.06 1.08 1.06 1.06
2054.362 1.07 1.07 1.07 1.04 1.03 1.01 0.9888 0.9816 0.9858 1
2073.651 1.01 0.9942 0.9854 0.988 0.9729 0.9302 0.8883 0.877 0.8824 0.878
2092.941 0.8929 0.8976 0.8778 0.8731 0.8772 0.8658 0.8756 0.8925 0.8759 0.8688
2112.231 0.854 0.8338 0.8341 0.8484 0.8659 0.8814 0.8467 0.8134 0.8081 0.8063
2131.521 0.8154 0.8181 0.8178 0.8103 0.8201 0.8387 0.8336 0.8417 0.8545 0.8335
2150.810 0.829 0.8243 0.8027 0.8135 0.8495 0.8302 0.8042 0.8046 0.8006 0.8379
2170.100 0.8495 0.8204 0.7998 0.8189 0.8572 0.8624 0.8532 0.8466 0.8626 0.8729
2189.390 0.8608 0.8484 0.8399 0.836 0.8394 0.8554 0.8662 0.8585 0.846 0.8454
2208.680 0.8369 0.8325 0.8288 0.8175 0.8213 0.8274 0.8224 0.8377 0.8451 0.837
2227.970 0.8389 0.826 0.8076 0.7811 0.8049 0.8505 0.8256 0.7983 0.8083 0.8184
2247.259 0.8157 0.7973 0.7925 0.8054 0.817 0.8068 0.802 0.8199 0.7837 0.7631
2266.549 0.8121 0.799 0.795 0.8118 0.7942 0.7931 0.7865 0.798 0.813 0.7857
2285.839 0.7927 0.8289 0.828 0.809 0.8007 0.8009 0.7987 0.7916 0.7878 0.8004
2305.129 0.8103 0.8126 0.8148 0.8219 0.8041 0.7828 0.7813 0.794 0.8142 0.7857
2324.418 0.7596 0.7855 0.8263 0.8304 0.8201 0.8372 0.8464 0.8364 0.8467 0.8649
2343.708 0.8454 0.8041 0.771 0.795 0.8467 0.8584 0.8587 0.8572 0.8337 0.8417
2362.998 0.8557 0.8451 0.8586 0.8487 0.8379 0.8408 0.8318 0.8083 0.7854 0.8283
2382.288 0.8486 0.8156 0.8352 0.8577 0.8467 0.8521 0.8598 0.8675 0.8623 0.8463
2401.578 0.8477 0.8573 0.8477 0.8237 0.8139 0.8687 0.8998 0.829 0.7942 0.8284
2420.867 0.8241 0.817 0.8323 0.8127 0.8121 0.8701 0.894 0.8461 0.8498 0.8688
2440.157 0.8553 0.8343 0.8263 0.8549 0.8432 0.8175 0.8087 0.8461 0.8695 0.8499
2459.447 0.8304 0.7992 0.779 0.7842 0.7723 0.8152 0.8702 0.8492 0.7947 0.7999
2478.737 0.8288 0.8214 0.8402 0.8275 0.8173 0.8128 0.7978 0.7659 0.7618 0.8016
2498.026 0.825 0.82 0.811 0.8039 0.7874 0.7753 0.7757 0.7904 0.8178 0.8348
2517.316 0.8383 0.8016 0.8062 0.8538 0.8455 0.856 0.861 0.8464 0.8183 0.7709
2536.606 0.7814 0.8254 0.8247 0.8005 0.8083 0.8501 0.8537 0.8225 0.8171 0.8411
2555.896 0.8486 0.8545 0.8415 0.814 0.8243 0.8129 0.8141 0.8207 0.8136 0.8183
2575.186 0.8131 0.8063 0.8304 0.8496 0.8404 0.8545 0.9116 0.9341 0.9332 0.9305
2594.475 0.9444 0.946 0.9251 0.9067 0.8781 0.9107 0.9258 0.875 0.8447 0.8769
2613.765 0.8859 0.8686 0.8587 0.8639 0.8629 0.8849 0.9112 0.8617 0.8171 0.8213
2633.055 0.8151 0.8084 0.8111 0.7817 0.7753 0.7914 0.7657 0.7812 0.8074 0.7992
2652.345 0.8113 0.8217 0.8087 0.7947 0.7979 0.817 0.8147 0.7792 0.7842 0.7982
2671.634 0.7889 0.8066 0.81 0.7918 0.7961 0.7969 0.8144 0.8028 0.8333 0.8356
2690.924 0.8019 0.8251 0.8459 0.8278 0.814 0.8518 0.8533 0.8233 0.8099 0.8198
2710.214 0.8147 0.8493 0.8611 0.8162 0.8515 0.8672 0.8277 0.8133 0.8452 0.8674
2729.504 0.8593 0.8866 0.8897 0.8727 0.8465 0.8429 0.8253 0.8278 0.8412 0.8533
2748.794 0.8409 0.791 0.8317 0.834 0.8067 0.8069 0.8153 0.829 0.8151 0.8297
2768.083 0.8608 0.8037 0.7607 0.7837 0.8101 0.813 0.8106 0.8352 0.8199 0.7902
2787.373 0.8046 0.8033 0.8074 0.8316 0.8419 0.814 0.7915 0.8115 0.783 0.7943
2806.663 0.8367 0.8142 0.7915 0.7888 0.7861 0.8131 0.8636 0.877 0.8713 0.8368
2825.953 0.8336 0.874 0.8659 0.8712 0.8959 0.9067 0.8836 0.8565 0.8576 0.8772
2845.242 0.8778 0.8417 0.8359 0.8577 0.844 0.8564 0.8749 0.8761 0.8632 0.8038
2864.532 0.8588 0.9197 0.9517 0.9397 0.8938 0.9166 0.906 0.9045 0.9636 0.9777
2883.822 0.9736 0.9953 1.01 1.06 1.09 1.07 1.01 1.03 1.05 1.04
2903.112 1.09 1.06 1.01 1.05 1.05 1.02 1.05 1.07 1 0.9568
2922.401 0.9489 0.977 0.9907 0.9562 0.9617 0.9681 0.9401 0.9336 0.9739 0.9653
2941.691 0.928 0.9334 0.962 0.9806 0.9094 0.8697 0.8823 0.883 0.9252 0.9153
2960.981 0.9207 0.97 0.9389 0.9141 0.901 0.9033 0.909 0.9297 0.9461 0.8899
2980.271 0.9456 1.03 0.9981 1.04 1.05 0.9767 0.9954 1.06 1.12 1.08
2999.561 1.05 1.15 1.21 1.24 1.36 1.47 1.51 1.54 1.61 1.75
3018.850 1.87 1.93 2.04 2.16 2.24 2.3 2.34 2.35 2.41 2.48
3038.140 2.49 2.53 2.66 2.85 2.95 3.06 3.19 3.22 3.25 3.24
3057.430 3.27 3.28 3.2 3.07 2.95 2.8 2.62 2.49 2.42 2.34
3076.720 2.24 2.19 2.14 2.02 1.96 1.87 1.78 1.81 1.74 1.58
3096.009 1.56 1.55 1.45 1.4 1.39 1.33 1.29 1.28 1.23 1.25
3115.299 1.29 1.26 1.19 1.1 1.06 1.13 1.13 1.06 1.06 1.05
3134.589 0.9925 0.9431 0.9478 0.9943 0.97 0.8856 0.8475 0.9056 0.9386 0.8739
3153.879 0.8413 0.8706 0.9278 0.9747 0.9624 0.9245 0.9156 0.9691 1.01 0.9837
3173.169 1.01 1.07 1.08 1.02 0.9536 0.951 1.02 1.09 1.12 1.15
3192.458 1.14 1.13 1.14 1.14 1.16 1.19 1.25 1.26 1.17 1.16
3211.748 1.17 1.2 1.28 1.27 1.25 1.22 1.17 1.19 1.19 1.11
3231.038 1.12 1.16 1.16 1.14 1.08 1.12 1.2 1.15 1.06 1.03
3250.328 1.02 1.03 1.05 1.02 1.03 1.02 1.02 1.08 1.04 0.9391
3269.617 0.9205 1.01 1.03 0.986 0.9985 1.03 1.05 1.02 1.02 1.06
3288.907 1.08 1.08 1.09 1.07 1.06 1.04 1.06 1.1 1.11 1.18
3308.197 1.13 1.02 1.02 1.04 1.08 1.07 1.08 1.12 1.13 1.18
3327.487 1.17 1.17 1.2 1.16 1.21 1.25 1.21 1.29 1.33 1.24
3346.777 1.22 1.21 1.15 1.2 1.21 1.17 1.15 1.16 1.22 1.22
3366.066 1.18 1.27 1.3 1.25 1.27 1.36 1.4 1.4 1.47 1.59
3385.356 1.62 1.61 1.63 1.61 1.61 1.67 1.73 1.82 1.96 2.04
3404.646 2.09 2.28 2.49 2.6 2.63 2.6 2.56 2.57 2.63 2.52
3423.936 2.35 2.3 2.35 2.3 2.1 2.02 2.04 2.05 2.08 2.07
3443.225 2.08 2.11 2.14 2.19 2.24 2.34 2.45 2.54 2.69 2.93
3462.515 3.16 3.31 3.48 3.63 3.79 3.96 3.95 3.96 3.97 3.9
3481.805 3.75 3.51 3.32 3.22 3.09 2.97 2.92 2.85 2.79 2.66
3501.095 2.47 2.39 2.34 2.19 2.11 2.08 2 1.88 1.79 1.74
3520.385 1.64 1.52 1.45 1.39 1.31 1.25 1.2 1.22 1.25 1.21
3539.674 1.16 1.1 1.06 1.08 1.08 1.03 0.9719 1.01 1.07 1
3558.964 1.01 1.17 1.14 1.05 1.04 0.9835 0.938 0.951 1 1.11
3578.254 1.1 0.9381 0.908 0.9759 0.9496 0.9395 1.01 0.9819 0.9327 0.9332
3597.544 0.9439 0.8867 0.8964 1.04 1.1 1.11 1.06 1.04 1.04 1.06
3616.833 1.14 1.04 0.9698 0.9732 0.9322 1 1.03 0.9754 0.9578 0.9743
3636.123 1.02 0.991 0.8975 0.8978 0.9323 1.01 1.06 1.08 1.06 0.9956
3655.413 0.9962 0.9613 0.957 0.9967 0.9896 0.9628 0.9554 1.06 1.04 0.9265
3674.703 0.9684 1.03 1.1 1.13 1.08 1.14 1.15 1.07 1.02 1.03
3693.993 1.02 0.9773 0.879 0.8731 0.8882 0.9825 1.06 1.01 1.07 1.05
3713.282 0.9891 1.05 1.04 0.9891 1.04 1.05 0.9905 0.9599 0.972 0.9667
3732.572 0.9339 0.9819 1.03 1.06 1.05 1.02 1 0.9385 1.01 1.13
3751.862 1.14 1.13 1.11 0.9675 0.9329 1.02 0.9847 0.9827 0.9913 0.9819
3771.152 0.9977 0.9652 0.8976 0.912 0.978 0.9784 0.9621 1.05 1.06 1.04
3790.441 1.08 1.01 1.04 1.04 0.9974 1.01 0.9737 0.9453 0.9825 1.04
3809.731 1.03 1.02 1.04 1.05 1.01 0.9237 0.9722 1 0.9987 1.03
3829.021 0.9373 0.8827 0.9295 0.9963 1.05 1.02 0.9443 0.8724 0.9157 0.9635
3848.311 1.03 1.11 1.15 1.13 1.03 1.11 1.19 1.2 1.27 1.26
3867.601 1.1 1.06 1.13 1.08 1.04 1.03 0.9819 0.941 0.9436 0.9326
3886.890 0.898 1 1.08 1.05 1.06 1.03 1.02 1.03 0.9407 0.9552
3906.180 1.08 1.11 1.07 0.9926 0.9816 1.05 1.07 1.06 1.08 1.03
3925.470 1 0.9822 1.04 1.06 1.04 1.05 1.01 0.973 0.8485 0.7756
3944.760 0.8994 0.9681 1.01 1.09 1 0.9496 1.03 1.01 1.02 0.9972
3964.049 0.9321 0.9551 0.9407 0.887 0.9353 1 1 1.06 1.06 0.9821
3983.339 1.01 1.14 1.13 1.08 1.03 1.03 1.04 1.02 0.9592 0.9049
##END=
