##TITLE=4-Hydroxy-4'-nitrostilbene
##JCAMP-DX=4.24
##DATA TYPE=INFRARED SPECTRUM
##ORIGIN=EPA-IR VAPOR PHASE LIBRARY
##OWNER=SRD/NIST
Collection (C) 2018 copyright by the U.S. Secretary of Commerce
on behalf of the United States of America. All rights reserved.
##CAS REGISTRY NO=14064-83-6
##MOLFORM=C 14 H 11 N O 3
##$NIST SOURCE=MSDC-IR
##STATE=gas
##XUNITS=1/CM
##YUNITS=ABSORBANCE
##XFACTOR=1.
##YFACTOR=0.001
##DELTAX=1.92898
##FIRSTX=549.8
##LASTX=4000.7
##FIRSTY=0.9788
##MAXX=4000.7
##MINX=549.759
##MAXY=0.0504246
##MINY=0
##NPOINTS=1790
##XYDATA=(X++(Y..Y))
549.759 0.9788 0.8783 0.9669 0.9633 0.8845 0.9409 0.7673 0.541 0.4127 0.5413
569.049 0.6994 0.6828 0.7586 0.6888 0.5967 0.6664 0.636 0.5109 0.4866 0.6082
588.339 0.6791 0.7469 0.7703 0.7402 0.9553 0.9274 0.8629 0.8881 0.7937 0.6879
607.628 0.7213 0.8456 0.654 0.4229 0.4164 0.3117 0.2644 0.3332 0.2268 0.2124
626.918 0.3322 0.3225 0.2735 0.2675 0.3645 0.4728 0.494 0.3927 0.3045 0.5662
646.208 0.5176 0.3369 0.4858 0.6072 0.7263 0.7733 1.031 1.4946 1.7146 1.7946
665.498 1.9146 1.8546 1.7246 1.6846 1.6046 1.5546 1.4746 1.5546 1.7646 1.9346
684.787 1.8746 1.7946 1.6446 1.5346 1.5646 1.5146 1.4946 1.3146 1.3346 1.3046
704.077 1.2346 1.2746 1.1446 1.2046 1.2346 1.1846 1.1446 1.0536 1.0064 0.9536
723.367 0.9213 0.9522 0.937 0.8898 0.9953 1.2146 1.4946 1.6846 1.7846 1.8446
742.657 1.9446 2.0846 2.1346 2.0646 1.9446 1.7346 1.6046 1.5246 1.3046 1.1846
761.947 1.3246 1.2346 1.0294 1.0946 1.1846 1.3446 1.3246 1.3246 1.3646 1.2846
781.236 1.3246 1.4346 1.5446 1.6346 1.7246 1.8846 2.1346 2.3546 2.5546 2.7946
800.526 2.9846 3.0046 3.1746 3.4846 3.5846 3.6246 3.8446 4.2746 4.4746 4.6846
819.816 5.4746 6.4146 7.5946 9.7446 11.9046 13.1346 13.6446 13.2246 11.8946 10.5946
839.106 9.5346 8.6746 8.0246 7.3446 6.9746 6.8046 7.0746 7.6546 7.8646 7.5746
858.395 6.7546 5.5746 4.5346 4.0046 3.8646 3.7946 3.6546 3.6046 3.6046 3.6846
877.685 3.7446 3.4646 3.1246 2.7846 2.4146 2.2246 2.0146 1.9046 1.9346 1.9046
896.975 1.5946 1.3246 1.3046 1.3646 1.3046 1.2246 1.1146 1.0197 1.1346 1.0769
916.265 0.9663 0.9704 1.1346 1.2246 1.1446 1.2246 1.3046 1.3046 1.3846 1.4346
935.555 1.5846 1.8846 2.1446 2.3746 2.6546 3.0446 3.5246 3.8846 4.1246 4.4146
954.844 4.5746 4.4846 4.3046 4.3146 4.1646 3.7246 3.4046 3.0246 2.5146 2.1246
974.134 1.8246 1.4946 1.2646 1.2046 1.1146 1.0578 0.9959 0.9355 0.8779 0.8544
993.424 0.9443 0.9207 0.7972 0.6997 0.7821 0.8968 1.0377 1.2846 1.7446 2.0646
1012.714 1.9946 1.7546 1.4846 1.3046 0.8723 0.6175 0.7378 0.9069 0.7905 0.6228
1032.003 0.6764 0.6201 0.5914 0.6783 0.7107 0.5188 0.4603 0.5148 0.6121 0.7252
1051.293 0.6234 0.7458 0.9916 0.7429 0.5461 0.6165 0.601 0.7133 0.8435 0.9053
1070.583 1.0625 1.1046 0.9928 1.1546 1.4146 1.5246 1.4146 1.3746 1.7546 2.1046
1089.873 2.4146 2.8346 3.1146 3.5546 4.2346 4.3446 4.7046 5.5546 5.9246 6.1646
1109.163 6.2146 5.9546 5.4846 4.7746 4.1746 3.5246 3.1246 3.1146 2.9946 2.9546
1128.452 2.7246 2.4446 2.5546 2.5346 2.4346 2.5946 2.6546 2.7146 3.3146 3.7946
1147.742 4.2246 4.8846 5.4446 5.9746 6.6646 7.7246 9.5546 12.7946 17.9346 25.1646
1167.032 32.6446 37.2246 37.3646 33.4446 27.3246 22.3446 19.7846 17.8946 15.8646 13.5046
1186.322 11.3846 9.7646 8.2946 7.2646 6.4646 5.8146 5.1146 4.9146 4.8746 4.8546
1205.611 4.9546 4.7046 4.7746 5.2346 5.6146 5.4346 5.1146 4.9846 4.5846 4.2946
1224.901 4.0946 3.7546 3.6746 3.7246 3.7646 3.6546 3.6746 3.9746 4.3046 4.6046
1244.191 4.8846 5.6146 6.4946 7.6346 9.7046 12.5346 15.9846 19.7046 22.5846 23.8846
1263.481 23.1746 20.1346 15.7046 11.0746 7.5646 5.3046 4.0046 3.4146 3.0246 2.7246
1282.771 2.5846 2.6646 2.7146 2.7246 2.8046 2.8446 2.9546 3.1446 3.2646 3.4646
1302.060 3.7546 4.0746 4.3546 4.7146 5.0946 5.4746 5.9146 6.2946 6.6046 7.0146
1321.350 7.5646 8.2346 9.1246 10.2446 11.5346 12.9746 14.7546 17.2646 20.8646 25.6946
1340.640 31.9746 39.3546 46.2746 50.4246 50.1446 45.0846 36.6746 27.9046 21.0746 16.5246
1359.930 13.5746 11.5146 9.9046 8.5646 7.4346 6.5346 5.8146 5.2246 4.7346 4.3646
1379.219 4.0546 3.7546 3.5446 3.3946 3.1946 3.0346 2.8346 2.6446 2.5446 2.4446
1398.509 2.3346 2.2046 2.0946 2.0646 2.0546 2.0346 2.0046 1.9546 1.9146 1.9346
1417.799 2.0346 2.1746 2.3746 2.7046 3.1346 3.5446 3.9246 4.1746 4.1046 3.6846
1437.089 3.0846 2.5046 2.0346 1.7346 1.6346 1.6146 1.5746 1.5846 1.5746 1.6046
1456.378 1.6446 1.6746 1.6946 1.6546 1.7146 1.8146 1.8946 2.0446 2.2846 2.4946
1475.668 2.7046 2.8946 3.0746 3.3446 3.5946 3.8846 4.1846 4.5246 4.8846 5.1946
1494.958 5.6046 6.1846 7.1846 8.7946 11.2146 14.6446 19.1646 24.3346 29.0846 32.1546
1514.248 32.3646 29.9346 25.9946 22.2046 19.8146 19.2146 19.6546 20.6746 21.7546 22.6146
1533.538 23.0946 22.9346 22.1946 20.8246 18.8346 16.6746 14.6046 12.6446 10.9446 9.4946
1552.827 8.3746 7.4846 6.7846 6.2946 5.9146 5.6446 5.5246 5.5746 5.7346 6.0346
1572.117 6.4646 7.0746 7.9246 9.0046 10.4646 12.3346 14.4346 16.7046 19.1146 21.3946
1591.407 23.2146 24.3446 24.3746 23.1646 20.9446 18.2946 16.1046 14.8746 14.4046 14.1546
1610.697 13.6246 12.5346 10.9546 9.0846 7.3346 6.0646 5.2246 4.7546 4.5046 4.4646
1629.986 4.5446 4.5346 4.4046 4.1946 3.8946 3.5346 3.0546 2.6346 2.3246 1.9646
1649.276 1.7446 1.6546 1.5646 1.3946 1.3346 1.2646 1.1346 1.0841 1.0538 0.979
1668.566 0.9197 0.9189 0.9053 0.8521 0.8122 0.7505 0.6819 0.651 0.6506 0.6752
1687.856 0.7055 0.6935 0.6314 0.6448 0.6851 0.7042 0.6784 0.602 0.5931 0.6423
1707.146 0.6334 0.5969 0.5996 0.6075 0.614 0.6672 0.6477 0.5402 0.5172 0.5352
1726.435 0.5541 0.575 0.5755 0.5308 0.5315 0.5863 0.6417 0.6729 0.6839 0.7041
1745.725 0.7033 0.6993 0.6766 0.6312 0.637 0.675 0.6831 0.6536 0.7013 0.7884
1765.015 0.8312 0.8456 0.8585 0.8981 0.9238 0.8778 0.8195 0.8253 0.8671 0.9001
1784.305 0.8559 0.8203 0.8284 0.8333 0.749 0.6613 0.6103 0.5156 0.4771 0.4692
1803.594 0.479 0.5056 0.4788 0.4485 0.4673 0.5049 0.5183 0.5629 0.564 0.5406
1822.884 0.5125 0.4707 0.4894 0.5067 0.496 0.4457 0.4326 0.4696 0.4487 0.4159
1842.174 0.3899 0.4029 0.4208 0.3988 0.4141 0.4417 0.4897 0.4859 0.4395 0.4522
1861.464 0.4995 0.5783 0.5819 0.5211 0.5514 0.546 0.5571 0.5986 0.566 0.5636
1880.754 0.5062 0.487 0.5451 0.5494 0.5358 0.5087 0.4858 0.4874 0.5082 0.5479
1900.043 0.5643 0.5528 0.6002 0.6331 0.6332 0.65 0.6294 0.6353 0.6514 0.6175
1919.333 0.5804 0.6157 0.6254 0.576 0.5672 0.4929 0.4059 0.4216 0.4653 0.4294
1938.623 0.4206 0.3971 0.36 0.363 0.3214 0.3583 0.3713 0.3252 0.4069 0.3866
1957.913 0.3099 0.3301 0.3555 0.3539 0.3045 0.276 0.306 0.3665 0.3398 0.2731
1977.202 0.2496 0.2779 0.2845 0.2886 0.274 0.2753 0.2801 0.2638 0.2947 0.302
1996.492 0.2846 0.2575 0.2589 0.2736 0.2603 0.2757 0.3032 0.3221 0.2935 0.2849
2015.782 0.3437 0.3662 0.4031 0.4026 0.3987 0.4331 0.4369 0.409 0.3685 0.349
2035.072 0.3474 0.373 0.3922 0.3879 0.4039 0.4305 0.3821 0.3052 0.3011 0.2628
2054.362 0.2841 0.3144 0.3076 0.3078 0.2981 0.3126 0.2907 0.2769 0.3039 0.3219
2073.651 0.2913 0.2885 0.2451 0.2291 0.2896 0.2911 0.3202 0.362 0.404 0.4295
2092.941 0.3768 0.3279 0.3331 0.3468 0.3113 0.3056 0.3186 0.2873 0.3036 0.3407
2112.231 0.2961 0.2465 0.2366 0.2698 0.3198 0.2859 0.2769 0.3552 0.3265 0.2202
2131.521 0.13933 0.13174 0.16846 0.1879 0.1918 0.1771 0.17754 0.2055 0.2627 0.2506
2150.810 0.2253 0.2246 0.16728 0.11917 0.12575 0.1989 0.1903 0.14524 0.1941 0.211
2170.100 0.17563 0.15899 0.14308 0.14223 0.16329 0.16677 0.1575 0.15496 0.1983 0.17191
2189.390 0.17396 0.2497 0.2522 0.2062 0.17548 0.2187 0.2496 0.2619 0.2586 0.2559
2208.680 0.2356 0.2284 0.2522 0.2324 0.2494 0.27 0.2585 0.2697 0.2424 0.1969
2227.970 0.217 0.2083 0.192 0.2251 0.2128 0.2026 0.1949 0.15642 0.16726 0.17128
2247.259 0.18225 0.2108 0.1881 0.16754 0.1528 0.1604 0.15605 0.1966 0.2793 0.3012
2266.549 0.3289 0.3568 0.3022 0.2473 0.2795 0.286 0.2991 0.3106 0.3133 0.2881
2285.839 0.2772 0.3348 0.3294 0.3008 0.3187 0.3227 0.3305 0.2977 0.2605 0.2818
2305.129 0.3289 0.3485 0.3324 0.3374 0.3096 0.2622 0.3002 0.2759 0.2486 0.3292
2324.418 0.3212 0.3252 0.3153 0.2894 0.2992 0.3047 0.2918 0.3011 0.3289 0.3243
2343.708 0.374 0.3644 0.3539 0.3851 0.4222 0.4425 0.4642 0.4735 0.4442 0.5007
2362.998 0.4893 0.397 0.3506 0.3504 0.3419 0.3394 0.3374 0.3235 0.347 0.3574
2382.288 0.3057 0.2643 0.2943 0.3528 0.325 0.2956 0.3207 0.278 0.2812 0.349
2401.578 0.3181 0.2549 0.2756 0.3374 0.3197 0.3152 0.398 0.3851 0.3906 0.4779
2420.867 0.5617 0.623 0.6161 0.6023 0.657 0.7335 0.779 0.7545 0.7367 0.777
2440.157 0.691 0.6655 0.7078 0.6725 0.6559 0.6577 0.6827 0.6527 0.6312 0.6125
2459.447 0.5717 0.5994 0.594 0.5796 0.5406 0.4329 0.3731 0.4145 0.4801 0.4436
2478.737 0.4217 0.4505 0.4178 0.4051 0.4276 0.3825 0.3318 0.3277 0.3476 0.3423
2498.026 0.287 0.3124 0.37 0.3913 0.4185 0.398 0.3554 0.408 0.4778 0.4594
2517.316 0.4343 0.4575 0.4472 0.4482 0.4856 0.4533 0.3784 0.3346 0.3608 0.3868
2536.606 0.3367 0.3274 0.2956 0.2455 0.2991 0.3262 0.3246 0.3528 0.3046 0.2318
2555.896 0.2476 0.2798 0.3147 0.3535 0.3519 0.3498 0.3652 0.3575 0.4163 0.4287
2575.186 0.3626 0.3564 0.3583 0.3449 0.3807 0.3629 0.3497 0.3495 0.3818 0.4533
2594.475 0.392 0.3127 0.3466 0.3562 0.3221 0.3781 0.4309 0.4119 0.3867 0.3728
2613.765 0.3353 0.3339 0.3437 0.3399 0.2885 0.2672 0.2783 0.1938 0.2534 0.3268
2633.055 0.2736 0.256 0.2734 0.2825 0.2621 0.2598 0.2695 0.2643 0.2485 0.2932
2652.345 0.2763 0.2502 0.3419 0.3482 0.2406 0.1985 0.2393 0.2242 0.238 0.2706
2671.634 0.2141 0.1995 0.1932 0.2126 0.2966 0.3097 0.2273 0.17339 0.277 0.4121
2690.924 0.3594 0.3083 0.3367 0.3031 0.2651 0.2844 0.282 0.2523 0.2692 0.2743
2710.214 0.2979 0.2662 0.2113 0.3298 0.3389 0.16257 0.1357 0.15672 0.16717 0.2368
2729.504 0.2271 0.2008 0.2747 0.2607 0.2453 0.2687 0.2285 0.2861 0.2938 0.2422
2748.794 0.2987 0.3182 0.2394 0.18244 0.17074 0.2302 0.2821 0.3008 0.2513 0.2595
2768.083 0.368 0.3629 0.3317 0.3479 0.3141 0.2623 0.2675 0.266 0.2943 0.3059
2787.373 0.2388 0.1693 0.1983 0.18107 0.12627 0.2051 0.2783 0.2963 0.3265 0.3386
2806.663 0.3464 0.3223 0.267 0.297 0.3536 0.3707 0.3588 0.339 0.3452 0.3743
2825.953 0.3764 0.3532 0.3812 0.3482 0.3258 0.3911 0.3772 0.3909 0.4716 0.4789
2845.242 0.4305 0.4666 0.5086 0.4659 0.3774 0.376 0.4425 0.5428 0.6323 0.6409
2864.532 0.6489 0.6802 0.6496 0.6576 0.7011 0.6159 0.5944 0.6411 0.6193 0.5856
2883.822 0.5513 0.5565 0.6204 0.5871 0.5683 0.6388 0.6131 0.5331 0.5081 0.6016
2903.112 0.6634 0.5432 0.4471 0.4316 0.4446 0.5405 0.5511 0.553 0.5736 0.4947
2922.401 0.4913 0.5576 0.675 0.7023 0.6934 0.7995 0.8369 0.786 0.8141 0.7886
2941.691 0.8225 0.9192 0.8807 0.8023 0.6963 0.6207 0.6054 0.5889 0.5472 0.4635
2960.981 0.4649 0.5163 0.524 0.504 0.5014 0.4419 0.4042 0.4116 0.4563 0.5322
2980.271 0.5432 0.593 0.6148 0.5419 0.6441 0.8279 0.8863 0.9426 0.9413 1.0271
2999.561 1.1546 1.2546 1.4446 1.6046 1.7746 2.0146 2.1846 2.3946 2.5746 2.6546
3018.850 2.7346 2.9746 3.3246 3.6546 4.0846 4.5546 5.0246 5.3246 5.5246 5.6446
3038.140 5.4346 5.0146 4.4546 3.8946 3.4846 3.2246 3.0246 2.8746 2.8646 2.8646
3057.430 2.7846 2.8246 2.8346 2.7246 2.6346 2.5246 2.3746 2.2746 2.1746 2.0946
3076.720 2.0746 2.0046 1.8746 1.7046 1.5346 1.3346 1.1346 1.0131 0.9434 0.8625
3096.009 0.8277 0.8656 0.8285 0.7389 0.6775 0.6016 0.591 0.6571 0.5635 0.5357
3115.299 0.6114 0.4872 0.4747 0.5242 0.5436 0.6195 0.5123 0.41 0.3844 0.3502
3134.589 0.3376 0.3194 0.3434 0.3735 0.3555 0.2392 0.2609 0.3437 0.317 0.2665
3153.879 0.288 0.3293 0.33 0.3137 0.2244 0.18315 0.2992 0.3406 0.3243 0.2226
3173.169 0.11929 0.2116 0.3608 0.3509 0.234 0.3908 0.4373 0.3022 0.3913 0.4424
3192.458 0.3997 0.4126 0.4138 0.3855 0.2793 0.2726 0.3944 0.3882 0.274 0.2413
3211.748 0.2408 0.242 0.225 0.2559 0.2815 0.2607 0.3001 0.2576 0.17869 0.1977
3231.038 0.2342 0.2209 0.3039 0.2906 0.08282 0.0526 0.14005 0.1891 0.17772 0.12604
3250.328 0.13729 0.15346 0.1037 0.08359 0.15244 0.1818 0.15185 0.0273 0.0252 0.11212
3269.617 0.13676 0.17944 0.1221 0.0392 0.0633 0.10652 0.15646 0.1923 0.2387 0.2077
3288.907 0.16905 0.227 0.2068 0.2232 0.2213 0.2372 0.2793 0.2776 0.17895 0.14745
3308.197 0.17901 0.17871 0.16706 0.14801 0.2345 0.2091 0.2422 0.2873 0.2012 0.2689
3327.487 0.2924 0.2389 0.2076 0.16917 0.2382 0.2921 0.2893 0.3112 0.34 0.3133
3346.777 0.2679 0.245 0.2531 0.2807 0.3146 0.2785 0.2598 0.2769 0.2176 0.2352
3366.066 0.2244 0.12721 0.18324 0.18099 0.1996 0.2224 0.15649 0.2854 0.3116 0.1859
3385.356 0.14858 0.16358 0.11787 0.10173 0.2233 0.2666 0.3351 0.3975 0.2514 0.16417
3404.646 0.1893 0.15213 0.12949 0.2083 0.18012 0.14512 0.2092 0.23 0.17796 0.2077
3423.936 0.3385 0.3046 0.2259 0.2114 0.2425 0.3349 0.3358 0.2633 0.2097 0.255
3443.225 0.3033 0.16522 0.12149 0.2234 0.14205 0.0499 0.1967 0.2392 0.17462 0.1895
3462.515 0.12327 0.12104 0.2123 0.2505 0.2681 0.1971 0.09974 0.0379 0.0855548 0.14944
3481.805 0.2363 0.2608 0.1898 0.18301 0.188 0.2588 0.14208 0.14745 0.2329 0.1689
3501.095 0.185 0.13094 0.11126 0.15541 0.2587 0.4277 0.3879 0.3115 0.2877 0.2281
3520.385 0.1966 0.1884 0.242 0.2665 0.2106 0.11856 0.14697 0.238 0.13891 0.057
3539.674 0.0275 0.12112 0.3191 0.3188 0.2522 0.17514 0.091056 0.11092 0.2034 0.188
3558.964 0.2181 0.2775 0.15357 0.157 0.2765 0.2784 0.2544 0.2596 0.3291 0.3388
3578.254 0.3045 0.2338 0.2177 0.237 0.18177 0.2381 0.2706 0.16284 0.17656 0.2913
3597.544 0.2919 0.3028 0.3682 0.3966 0.3981 0.4094 0.5407 0.5339 0.5296 0.5966
3616.833 0.6048 0.6738 0.7135 0.8342 0.8462 1.0386 1.3246 1.5346 2.0246 2.6546
3636.123 3.4346 4.5746 6.3446 8.7146 11.2746 13.9146 16.4746 17.7246 16.6146 13.9546
3655.413 10.1846 6.2346 3.7946 2.5546 1.8746 1.5646 1.3346 1.0468 0.8957 0.7389
3674.703 0.5638 0.4784 0.4183 0.3418 0.431 0.591 0.5554 0.4507 0.3748 0.3595
3693.993 0.334 0.3312 0.2677 0.2254 0.1369 0.08847 0.125 0.13267 0.13466 0.15514
3713.282 0.188 0.2425 0.2522 0.14691 0.2051 0.2658 0.2189 0.08042 0.0293 0.1982
3732.572 0.17255 0.13785 0.1993 0.1903 0.14342 0.0557 0.0537 0.14615 0.2739 0.2925
3751.862 0.1943 0.16033 0.2397 0.18035 0.14128 0.2052 0.1934 0.13222 0.11522 0.1184
3771.152 0.1977 0.2321 0.16998 0.16078 0.14876 0.19 0.255 0.3244 0.2661 0.2355
3790.441 0.15186 0.13429 0.3061 0.3103 0.2234 0.2079 0.1913 0.2435 0.2813 0.1919
3809.731 0.10962 0.093324 0.1288 0.1861 0.194 0.0661 0.0717 0.1903 0.3354 0.3281
3829.021 0.13928 0.056 0.14191 0.23 0.17148 0.16883 0.11243 0.092544 0.0847235 0.0459
3848.311 0.14217 0.16867 0.2124 0.2899 0.3262 0.2713 0.15627 0.2213 0.2672 0.2499
3867.601 0.291 0.2779 0.2534 0.2287 0.2385 0.2196 0.2334 0.3192 0.3409 0.3659
3886.890 0.3942 0.3199 0.2194 0.14724 0.16251 0.2335 0.1863 0.2017 0.2107 0.1916
3906.180 0.2567 0.2942 0.2607 0.2894 0.3226 0.2524 0.2062 0.1948 0.2342 0.2864
3925.470 0.2271 0.13783 0.198 0.2514 0.13229 0 0.14161 0.2941 0.2268 0.2553
3944.760 0.3092 0.249 0.15573 0.2113 0.4168 0.507 0.4046 0.3795 0.4552 0.2511
3964.049 0.11162 0.16362 0.13545 0.2516 0.437 0.4115 0.2637 0.1953 0.2138 0.2552
3983.339 0.3344 0.247 0.14879 0.1677 0.084274 0.14642 0.182 0.084079 0.11138 0.1171
##END=
