##TITLE=2,4-Bis(trifluoromethyl)benzyl bromide
##JCAMP-DX=4.24
##DATA TYPE=INFRARED SPECTRUM
##ORIGIN=EPA-IR VAPOR PHASE LIBRARY
##OWNER=SRD/NIST
Collection (C) 2018 copyright by the U.S. Secretary of Commerce
on behalf of the United States of America. All rights reserved.
##CAS REGISTRY NO=140690-56-8
##MOLFORM=C 9 H 5 Br F 6
##$NIST SOURCE=MSDC-IR
##STATE=gas
##XUNITS=1/CM
##YUNITS=ABSORBANCE
##XFACTOR=1.
##YFACTOR=0.001
##DELTAX=1.92898
##FIRSTX=549.8
##LASTX=4000.7
##FIRSTY=3
##MAXX=4000.7
##MINX=549.759
##MAXY=0.86075
##MINY=0
##NPOINTS=1790
##XYDATA=(X++(Y..Y))
549.759 3 2.95 2.54 3.79 3.86 3.14 3.65 4.45 4.37 3.89
569.049 4.32 4.32 3.4 3.75 4.22 4.09 4.18 3.96 4.1 4.87
588.339 5.63 6.06 5.59 6.3 7.45 7.52 8.39 8.64 9 10.38
607.628 10.92 12.02 13.72 16.4 20.59 25.8 31.82 37.82 43.11 46.69
626.918 47.3 45.19 41.11 35.6 30.72 25.97 21.91 18.85 16.16 14.32
646.208 12.7 11.42 10.45 10.34 11.44 12.76 14.8 17.75 21.97 27.61
665.498 34.37 42.81 51.93 60.17 64.05 63.11 60.16 54.88 47.28 39.3
684.787 33.05 27.21 22.37 18.94 15.85 13.97 12.01 10.64 10.18 9.81
704.077 9.59 9.13 8.52 7.72 7.65 7.23 6.37 6.43 6.33 5.93
723.367 5.75 5.88 5.33 4.99 4.95 4.84 5.4 5.77 7.02 9.07
742.657 11.44 15.59 20.4 23.57 25.37 25.83 23.08 18.87 15.64 13.7
761.947 13.03 11.68 11.02 11.15 10.41 9.71 8.75 7.16 5.88 4.73
781.236 4.39 4.74 4.22 3.95 3.69 3.67 3.82 3.64 3.66 4.05
800.526 4.91 4.92 4.36 3.95 3.68 4.25 4.86 5.3 5.81 6.48
819.816 7.61 7.99 9.61 13.37 16.27 18.86 22.05 25.16 27.68 30.17
839.106 31.85 32.28 32.27 31.16 29.34 28.25 29.08 32 37.17 42.72
858.395 47.13 49.34 48.29 44.49 38.06 31.91 28.11 25.47 24.09 22.98
877.685 21.83 20.83 19.41 18.29 16.44 14.38 13.48 12.73 11.48 11.21
896.975 12.06 12.89 14.98 18.84 24.08 30.51 38.48 47.12 55.23 59.32
916.265 52.96 41.71 32.45 23.38 15.57 10.08 7.11 5.76 5.41 4.97
935.555 4.29 3.95 3.79 3.88 3.55 3.28 3.22 3.41 3.89 4.31
954.844 4.21 3.73 3.37 3.22 2.87 3.21 3.52 3.32 3.71 3.7
974.134 3.24 3.28 3.72 4.33 4.05 3.89 4.88 4.82 4.28 4.36
993.424 4.58 4.61 4.53 4.03 4.08 4.65 4.59 4.91 5.31 5.24
1012.714 5.4 5.85 6.32 6.27 6.1 7.2 7.72 7.98 9.03 9.97
1032.003 10.16 11.15 13.19 14.47 16.41 20.31 26.61 36.09 49.2 67.21
1051.293 90.34 114.34 131.64 138.65 136.92 125.83 103.74 78.95 60.19 47.68
1070.583 41.88 41.09 45.49 54.67 70.6 90.92 109.27 122.28 124.05 115.3
1089.873 97.2 74.44 56.43 45.18 37.89 35.22 35.48 34.09 33.67 36.01
1109.163 37.81 39.53 43.72 48.69 52.43 56.16 63.68 76.13 89.09 104.3
1128.452 127.74 159.15 197.08 245.14 305.65 378.79 462.46 548.94 638.76 725.37
1147.742 791.79 838.47 860.75 848.12 798.49 708.86 595.53 482.56 384.29 312.91
1167.032 271.46 258.02 269.74 302.57 350.87 408.31 465.6 511.63 539.21 538.95
1186.322 512.81 465.69 404.59 340.07 275.76 222.48 185.21 160.24 145.77 136.09
1205.611 125.68 112.66 100.14 90.38 81.29 74.82 72.33 73.7 75.25 74.91
1224.901 73.77 71.77 69.9 68.9 65.64 60.52 57.9 57.52 57.71 57.9
1244.191 60.83 64.75 69.47 77.73 87.14 98.51 113.38 131.67 154.27 184.31
1263.481 224.91 277.4 348.06 438.83 539.36 631.29 694.17 708.35 671.76 597.18
1282.771 497.92 407.93 352.18 329 322.34 319.48 316.62 311.43 303.45 291.17
1302.060 275.61 259.41 240.3 216.17 188.01 158.15 129.63 105.7 87.59 75.01
1321.350 68.41 67.34 71.48 81.54 98.4 123.6 158.5 203.15 254.92 307.87
1340.640 352.65 377.36 373.18 339.81 284.89 218.87 155.88 107.61 76.01 56.76
1359.930 44.79 37.12 31.85 27.93 25.04 22.9 21.21 19.84 18.71 17.67
1379.219 16.56 15.52 14.61 13.5 12.42 11.52 10.78 10.26 9.69 9.02
1398.509 8.6 8.43 8.44 8.35 8.16 7.98 8.02 8.08 7.95 8.15
1417.799 8.5 8.74 8.86 8.98 9.1 9.03 8.66 8.41 8.44 8.32
1437.089 8.03 7.8 7.61 7.5 7.42 7.28 7.32 7.31 7.38 7.71
1456.378 8.15 8.55 8.59 8.58 8.38 7.88 7.18 6.55 6.4 6.04
1475.668 5.49 5.37 5.44 5.58 5.7 5.58 5.7 6.02 6.08 6.26
1494.958 6.65 6.69 6.64 6.68 6.65 6.61 6.28 6.08 5.68 5.02
1514.248 4.3 3.84 3.84 3.66 3.63 3.47 3.39 3.56 3.45 3.5
1533.538 3.67 3.58 3.43 3.64 3.64 3.48 3.65 3.56 3.37 3.7
1552.827 4.09 4.1 4.22 4.59 4.89 5.48 5.97 6.51 7.56 8.52
1572.117 10.11 11.72 13.11 15 16.78 17.94 18.95 19.26 18.21 16.6
1591.407 14.71 12.92 11.48 10.69 10.16 9.58 9.22 9.34 9.85 10.89
1610.697 12.46 14.44 16.77 19.67 23.31 27.38 31.23 34.23 35.86 35.69
1629.986 33.65 29.76 24.7 19.93 16.1 13.09 10.92 9.22 7.97 7.19
1649.276 6.65 6.24 5.91 5.48 5.13 5 5.03 5.01 4.92 4.98
1668.566 4.86 4.92 5.09 5.07 5.17 5.19 5.15 5.12 4.77 4.68
1687.856 4.74 4.63 4.38 4.07 4.03 3.97 3.92 3.93 3.62 3.39
1707.146 3.42 3.33 3.36 3.26 3.09 3.18 3.2 3.13 3.12 3.02
1726.435 2.98 2.93 2.84 2.79 2.84 2.86 3.1 3.35 3.09 2.73
1745.725 2.83 3.05 2.91 2.92 3 2.93 2.94 3 2.97 2.88
1765.015 2.63 2.56 2.93 3.05 2.9 2.74 2.76 2.92 2.78 2.66
1784.305 2.92 3.2 3.3 3.57 3.88 3.92 4.18 4.51 4.53 4.5
1803.594 4.52 4.47 4.48 4.78 4.96 5.16 5.43 6.03 6.79 7.35
1822.884 7.64 7.4 6.87 6.03 5.22 4.33 3.64 3.13 2.51 2.16
1842.174 2.17 2.23 2.17 2.16 2.06 2.11 2.22 2.23 2.46 2.47
1861.464 2.28 2.23 2.24 2.18 2.19 2.38 2.46 2.4 2.54 2.69
1880.754 2.75 2.83 2.94 3.1 3.2 3.27 3.33 3.52 3.55 3.42
1900.043 3.37 3.23 3.05 3.07 3.1 3.02 2.99 2.96 2.83 2.92
1919.333 3.46 3.72 3.72 3.99 4.3 4.76 5.14 5.14 4.78 4.25
1938.623 3.91 3.63 3.26 2.8 2.26 2.01 2.1 2.15 2.15 1.94
1957.913 1.8059 2.04 2.19 2.17 2.08 1.98 1.98 1.8484 1.714 1.93
1977.202 1.93 1.7078 1.6374 1.6901 1.7396 1.99 2.06 1.96 2.15 2.17
1996.492 2.17 2.21 2.35 2.28 2.12 2.3 2.41 2.12 1.97 2.2
2015.782 2.44 2.48 2.4 2.31 2.59 2.76 2.45 2.26 2.32 2.38
2035.072 2.42 2.48 2.35 2.04 2.05 2.49 2.52 2.28 2.24 2.25
2054.362 2.37 2.37 2.33 2.16 2.01 2.09 1.95 1.7867 1.7388 1.5995
2073.651 1.6237 1.7783 1.8103 1.7966 1.86 1.97 1.87 1.8432 1.97 2
2092.941 1.92 1.7527 1.635 1.6261 1.8463 1.8354 1.6764 1.6234 1.6087 1.5421
2112.231 1.7305 1.6817 1.4984 1.55 1.542 1.5515 1.4539 1.5104 1.4257 1.2859
2131.521 1.2435 1.2172 1.2856 1.4224 1.5293 1.4 1.424 1.5616 1.4289 1.4642
2150.810 1.5311 1.4439 1.5072 1.5141 1.5504 1.5947 1.5535 1.349 1.3799 1.5586
2170.100 1.6283 1.8155 1.8473 1.88 1.92 1.8162 1.8519 1.99 2.14 1.98
2189.390 1.88 2.14 2.27 2.44 2.63 2.68 2.88 2.99 2.88 2.93
2208.680 2.9 2.71 2.65 2.72 2.66 2.47 2.31 2.37 2.54 2.72
2227.970 2.9 2.8 2.9 3.24 3.2 3.17 3.26 3.25 3.26 3.24
2247.259 3.15 3.28 3.31 3.17 3.08 3.05 3.28 3.27 3.16 3.42
2266.549 3.56 3.6 3.48 3.41 3.78 3.88 3.82 3.78 3.92 4.27
2285.839 4.39 4.44 4.59 4.5 4.32 4.25 4.17 4.13 4.13 4.03
2305.129 3.83 3.8 3.9 3.69 3.38 3.41 3.58 3.69 3.61 3.41
2324.418 3.54 3.42 3.21 3.27 3.24 3.2 3.09 3.16 3.16 3.04
2343.708 3.02 2.88 2.84 2.91 2.98 3 2.81 2.44 2.54 2.95
2362.998 2.94 2.57 2.42 2.48 2.56 2.69 2.57 2.6 2.59 2.46
2382.288 2.43 2.37 2.34 2.25 2.3 2.23 2.02 1.99 1.96 1.95
2401.578 2.06 1.97 1.93 1.849 1.729 1.89 1.87 1.93 2.09 2.14
2420.867 2.11 2.22 2.24 2.13 2.1 1.97 2.13 2.06 1.8067 1.97
2440.157 1.92 1.99 1.96 1.7313 1.89 2.02 1.91 1.8027 1.5964 1.4636
2459.447 1.5752 1.93 1.95 1.7197 1.6902 1.4701 1.585 1.7422 1.5692 1.4618
2478.737 1.7329 1.93 1.8117 1.784 1.793 1.98 2.05 1.92 1.7403 1.5875
2498.026 1.6239 1.6862 1.831 1.8435 1.699 1.5539 1.6317 1.4746 1.2208 1.3226
2517.316 1.4805 1.702 1.89 1.87 1.8471 1.89 1.8355 1.81 1.7446 1.7824
2536.606 1.7571 1.4549 1.2015 1.162 1.3053 1.692 1.8274 1.6722 1.89 2.06
2555.896 1.91 1.8329 1.97 1.91 1.6959 1.7241 1.539 1.4038 1.673 1.7671
2575.186 1.6413 1.7265 1.6298 1.3323 1.3848 1.4898 1.4641 1.4709 1.4283 1.263
2594.475 1.4509 1.6076 1.5593 1.3486 1.2775 1.4076 1.4407 1.7392 1.7809 1.8118
2613.765 2.01 1.92 1.8054 1.87 2.01 1.87 1.7359 1.7706 1.8386 1.7336
2633.055 1.3804 1.643 1.7299 1.5614 1.7928 1.7402 1.4399 1.2813 1.5562 1.7843
2652.345 1.5864 1.6188 1.8089 1.5969 1.508 1.4868 1.4581 1.5917 1.4425 1.173
2671.634 1.1493 1.3311 1.4271 1.2883 1.2085 1.5703 1.5185 1.2307 1.4653 1.25
2690.924 1.1328 1.2867 1.2776 1.1822 1.1523 1.3774 0.989 1.0787 1.3527 1.2277
2710.214 1.2144 1.4703 1.6813 1.6967 1.7329 1.3761 1.178 1.3584 1.4781 1.5554
2729.504 1.6129 1.4798 1.3392 1.3299 0.97 0.8454 1.1749 0.8998 0.609 0.445
2748.794 0.759 1.1036 0.9987 0.93889 1.2089 1.7068 1.7666 1.6835 1.4218 1.1249
2768.083 0.88492 0.465 0.522 0.87987 0.7 0.715 1.105 1.2939 1.0113 1.1334
2787.373 1.4051 1.0911 0.9153 0.8493 0.9982 1.0637 1.1222 1.3306 1.2245 1.4261
2806.663 1.4575 1.1358 1.3002 0.89687 0.661 0.603 0.576 0.865968 0.9606 1.1011
2825.953 1.0435 0.94495 0.86896 0.95364 1.3166 1.87 1.93 1.4643 1.1652 1.1593
2845.242 1.3243 1.4515 1.6644 1.5769 0.91378 0.594 0.87317 0.88043 1.1014 0.85632
2864.532 0.652 1.2509 1.2823 1.2051 1.1226 1.2296 1.5736 1.7301 1.6516 1.6767
2883.822 1.7491 1.6219 1.4929 1.5239 1.3479 1.3902 1.8057 2.08 1.7432 1.6542
2903.112 1.99 2.15 2 1.6514 1.7252 1.7268 1.4053 1.4553 1.4193 1.0445
2922.401 1.0179 1.2472 1.303 1.3097 1.708 1.6658 1.6781 1.8173 1.9 2.1
2941.691 1.768 1.6939 2.06 2.07 1.95 2.01 2.38 2.84 2.73 2.73
2960.981 2.94 2.91 3.01 2.69 2.24 2.57 3.39 3.67 3.51 3.31
2980.271 3.17 3.28 3.54 3.65 4.34 5.28 5.27 5.41 6.04 6.27
2999.561 6.11 6.11 5.6 4.67 3.94 3.02 2.3 2.83 2.62 1.6229
3018.850 1.6813 2.25 2.22 1.86 2.11 2.49 2.19 1.7379 2.14 2.51
3038.140 2.79 3.17 3.04 2.76 2.84 3.02 3.05 2.72 2.85 3.48
3057.430 3.24 2.74 2.92 2.8 3.09 3.78 3.42 3.46 3.99 4.28
3076.720 4.23 4.65 5.02 4.91 4.9 5.15 5.23 5.11 4.95 4.82
3096.009 4.65 4.11 3.38 2.92 2.55 2.16 2.12 2.17 2.32 2.06
3115.299 1.7744 1.6702 1.5601 1.4642 1.4249 1.5249 1.6986 1.3811 1.1827 1.3981
3134.589 1.639 2.12 1.4835 0.699 0.94604 1.3336 1.2252 0.9576 1.2453 1.2436
3153.879 1.1481 0.863239 0.628 0.8453 1.301 1.706 1.2736 1.1719 1.2113 0.703
3173.169 0.7917 1.2196 0.699 0.984 1.4329 1.2988 1.1504 1.2494 1.89 1.4466
3192.458 0.9748 1.2139 1.469 1.4257 1.294 1.3764 1.1129 1.1228 1.0876 0.8478
3211.748 0.7719 1.0202 1.5433 1.7924 2.05 2.14 1.7751 1.1825 0.7732 0.8272
3231.038 1.4167 1.6483 1.5568 1.5579 1.646 1.565 1.3624 1.075 0.8982 1.0306
3250.328 1.2299 0.90852 1.0299 1.4874 1.0094 0.633 0.71 1.2391 1.4667 0.729
3269.617 0.537 0.7789 0.92459 0.95418 1.004 1.3151 1.43 1.3571 0.89123 0.523
3288.907 0.598 1.167 1.257 0.714 0.742 0.861108 0.90739 0.85814 0.609 0.94451
3308.197 1.0463 0.633 0.636 1.0019 1.1797 0.833 0.301 0.497 0.8401 1.325
3327.487 1.2609 0.8138 0.705 0.717 1.0754 0.608 0.85647 1.2116 0.92807 0.93186
3346.777 0.8408 0.7771 0.744 0.694 0.8023 0.85881 0.7824 0.90053 0.649 0.598
3366.066 1.1077 1.3148 1.0499 1.2859 1.5492 1.0889 0.744 0.733 1.093 1.5922
3385.356 0.93838 0.494 0.69 0.9685 1.2295 0.695 0.8422 1.2278 1.0065 0.639
3404.646 0.603 0.992 1.0834 1.1089 1.3871 1.3857 1.2903 0.753 0.421 0.759
3423.936 1.1066 1.4529 1.2175 1.1144 1.4476 1.174 1.0921 1.1816 1.3011 1.5875
3443.225 1.392 0.992 1.1416 1.6028 1.3655 1.3991 1.3838 0.8212 0.8523 0.722
3462.515 1.1573 1.89 2.21 1.96 1.0065 1.2318 1.6522 1.2442 1.1177 1.1409
3481.805 0.9753 0.8188 0.657 0.635 1.4145 1.9 1.504 0.87546 0.478 1.0023
3501.095 1.4132 1.3256 1.2013 1.2898 1.6858 1.6039 1.2517 1.1606 1.1915 1.2545
3520.385 1.0328 0.707 1.1976 1.4472 1.1901 1.2712 1.4018 1.1715 0.725 1.4606
3539.674 1.6715 1.0084 1.3914 1.6935 1.267 0.7858 0.801 1.312 1.6269 0.9751
3558.964 0.28 0.656 1.228 0.704 0 0.668 1.2596 1.5173 1.5179 1.3777
3578.254 1.5102 1.3175 1.3445 1.557 1.7081 1.7909 1.6461 1.4193 1.5578 1.94
3597.544 1.99 1.8519 1.6273 1.1529 0.985 0.94519 1.1608 1.3012 1.1442 1.3282
3616.833 0.7807 0.486 0.9167 0.8015 0.896 1.1405 1.3469 1.4787 1.3663 1.3845
3636.123 1.6292 1.8252 1.6621 1.3605 0.9678 0.87688 0.92643 0.717 0.793 1.3064
3655.413 1.0116 0.95657 1.6664 1.4028 1.0688 0.729 0.8145 1.2226 1.0933 0.9765
3674.703 1.3441 1.4519 0.544 0.324 0.8372 1.3807 1.7856 1.0249 0.243 0.55
3693.993 1.0632 1.1912 1.466 1.6101 1.3919 1.3249 0.8032 0.7942 1.0103 0.756
3713.282 0.7671 1.0301 1.4938 2.04 1.91 0.981 1.1694 1.7769 1.3473 0.92871
3732.572 1.1711 1.5195 1.7177 1.309 1.3207 1.98 1.5695 1.4708 1.3501 0.93486
3751.862 0.9642 0.685 1.1897 1.98 1.8243 1.3429 0.9808 0.91778 1.563 1.7307
3771.152 1.3309 1.2547 1.4429 1.5143 1.0823 0.7927 0.61 0.097 0.621 1.3479
3790.441 1.2483 1.2505 1.2434 1.2678 1.2713 1.5179 1.7625 1.5984 1.2376 1.4044
3809.731 1.6504 1.1095 1.45 1.87 1.3152 1.1597 1.2887 1.2005 0.9936 1.7033
3829.021 1.7567 1.2957 1.0539 0.592 0.284 1.0516 1.6593 1.3644 1.2869 0.736
3848.311 0.594 0.9699 1.2973 1.6487 1.8044 1.248 0.93841 1.5385 1.2333 0.734
3867.601 0.604 0.345 0.619 0.9987 1.1859 1.2758 0.9961 0.733 0.9981 1.2397
3886.890 1.1683 1.3096 1.5159 1.7219 1.5671 1.6278 1.6938 1.4976 1.2794 1.1808
3906.180 2.11 1.7473 1.1921 1.4506 1.1739 1.2216 1.1466 1.0527 1.3418 1.2403
3925.470 1.445 1.3317 0.92781 1.4725 1.8223 1.7767 1.8093 1.6019 1.7251 1.6702
3944.760 1.4605 1.3994 0.9689 1.1042 1.0054 0.479 1.3659 1.5766 0.8052 0.604
3964.049 0.511 1.2321 1.3426 0.606 0.93268 1.1026 0.89956 1.1986 1.2277 0.736
3983.339 0.664 1.4211 1.2052 0.715 0.757 0.94554 1.1461 1.0423 0.685 0.733
##END=
