##TITLE=tert-Butyl methyl sulphoxide
##JCAMP-DX=4.24
##DATA TYPE=INFRARED SPECTRUM
##ORIGIN=EPA-IR VAPOR PHASE LIBRARY
##OWNER=SRD/NIST
Collection (C) 2018 copyright by the U.S. Secretary of Commerce
on behalf of the United States of America. All rights reserved.
##CAS REGISTRY NO=14094-11-2
##MOLFORM=C 5 H 12 O S
##$NIST SOURCE=MSDC-IR
##STATE=gas
##XUNITS=1/CM
##YUNITS=ABSORBANCE
##XFACTOR=1.
##YFACTOR=0.001
##DELTAX=1.92898
##FIRSTX=549.8
##LASTX=4000.7
##FIRSTY=1.6374
##MAXX=4000.7
##MINX=549.759
##MAXY=0.02578
##MINY=0
##NPOINTS=1790
##XYDATA=(X++(Y..Y))
549.759 1.6374 1.75 1.5332 1.1864 1.3387 1.3577 1.3519 0.8372 0.574 1.2615
569.049 3.03 3.27 1.9 1.5321 1.5772 1.72 1.4687 1.3925 1.4546 1.4
588.339 1.99 1.95 1.0187 1.1756 1.5644 0.8879 1.0787 1.2717 1.0288 1.2025
607.628 1.2521 1.5709 2.04 2.4 1.88 1.5963 1.8 1.6208 1.5848 1.1523
626.918 0.8967 1.0821 1.2609 1.0868 0.8769 1.2139 1.3994 1.5697 2 1.6776
646.208 1.2134 1.71 2.25 2.58 2.23 1.84 1.4256 1.1229 1.3973 1.76
665.498 1.81 2.43 3.16 2.98 3.1 3.01 2.94 3.04 2.85 2.7
684.787 2.78 3.04 2.89 2.39 2.25 2.14 1.9 2.22 2.35 2.29
704.077 2.51 2.55 2.53 2.7 3.65 4.03 3.93 4.21 4.59 4.67
723.367 4.92 5.97 6.31 6.54 7.4 8.09 8.8 8.95 9 9.96
742.657 10.28 10.11 10.38 10.32 10.05 9.85 10.12 10.48 10.5 11.15
761.947 11.37 10.34 10.06 10.22 10.11 10.39 10.5 10.67 10.05 9.41
781.236 9.3 8.5 7.73 6.78 5.97 5.76 4.4 3.36 3.19 2.91
800.526 2.67 2.48 2.7 2.67 2.32 1.97 1.4769 1.514 1.85 1.1708
819.816 0.8118 1.5005 2.3 2.01 1.603 1.5799 1.94 2.37 2.51 2.81
839.106 2.57 3.04 3.55 3.24 3.5 4.04 4.28 4.61 5.1 5.97
858.395 6.22 5.79 6.32 7 6.87 6.42 6.45 6.45 6.29 6.86
877.685 7.62 9.26 12.11 15.46 19.56 23.29 21.75 14.96 10.46 9.12
896.975 7.68 6.96 7.07 7.22 7.78 7.51 7.27 7.78 7.96 7.81
916.265 7.48 7.03 6.58 6.34 6.15 5.82 5.26 4.51 4.55 4.38
935.555 4 4.2 3.83 3.57 3.65 3.31 2.65 2.63 2.79 2.64
954.844 2.62 2.75 2.58 2.34 2.23 2.34 2.07 2.17 2.37 2.07
974.134 2.13 2.31 2.09 1.583 2.05 2.38 2.04 2.24 2.47 2.87
993.424 2.42 1.77 1.75 1.96 1.96 1.86 2.75 2.4 2.26 2.49
1012.714 1.3868 1.4764 1.99 1.93 2.35 2.84 3.18 3.09 2.79 2.22
1032.003 1.563 1.0679 0.9053 1.1192 1.528 1.7077 1.9 2.1 1.4126 1.4855
1051.293 2.55 3.44 3.91 3.89 3.71 3.33 3.87 4.54 4.27 5.49
1070.583 6.55 6.36 6.75 7.8 8.88 8.66 7.86 7.8 8.44 8.2
1089.873 7.75 7.46 6.08 4.51 3.44 3.43 2.82 0.77346 0 0.6596
1109.163 1.191 1.1695 0.6273 0.451 2.92 3.79 2.51 3.29 3.78 3.33
1128.452 4.33 3.51 3.02 5 6.58 7.19 7.1 7.44 6.97 6.54
1147.742 6.81 7.81 8.38 7.47 6.36 6.4 8.44 9.02 7.21 6.39
1167.032 6.87 8.26 9.72 9.57 8.23 7.56 7.16 8.39 9.34 9
1186.322 9.34 8.4 7.2 6.26 5.38 5.36 4.96 4.6 5.2 4.19
1205.611 1.3292 0.524 1.3984 1.607 1.4499 2.89 3.67 1.89 1.82 2.5
1224.901 2.13 2.43 2.42 1.2784 1.2193 1.3872 1.4311 1.6069 0.76677 0.77696
1244.191 1.6984 2.47 2.51 1.95 1.6552 1.98 2.33 2.08 1.91 2.21
1263.481 2.15 1.6864 1.96 2.35 2.46 2.45 2.36 2.53 2.45 1.8
1282.771 1.82 2.38 2.6 2.46 2.66 2.76 2.86 3.28 3 2.61
1302.060 2.65 2.54 2.35 2.51 2.48 2.29 2.27 2.56 2.71 2.52
1321.350 2.54 2.63 2.53 2.6 2.73 2.87 3.03 3.21 3.47 3.61
1340.640 3.64 3.51 3.37 3.57 3.94 4.23 4.48 4.87 5.02 5.05
1359.930 5.61 5.9 5.8 5.84 6.23 6.54 6.59 6.88 7.05 7.26
1379.219 7.55 7.23 6.59 6.56 6.95 7 6.76 7.01 7.38 7.32
1398.509 7.27 6.71 6.49 6.47 5.98 5.66 5.61 5.99 6.46 6.21
1417.799 6.22 6.44 6.26 6.32 6.27 6.48 6.74 6.64 6.62 7.45
1437.089 8.11 7.89 8.09 8.36 8.45 8.32 7.94 7.7 7.63 8.15
1456.378 8.93 8.55 7.8 7.47 7.39 7.23 6.96 7.05 7.4 7.29
1475.668 6.94 6.41 6.01 5.97 5.58 5.37 5.29 5.05 4.56 3.95
1494.958 3.95 3.86 3.37 3.19 3.24 3.52 4.15 4.14 3.57 3.07
1514.248 2.78 2.86 2.71 3.03 3.22 2.9 2.87 2.65 2.05 1.88
1533.538 2.36 2.46 2.37 2.63 2.97 3.05 2.62 2 2.2 2.33
1552.827 2.48 2.77 2.95 3.41 2.86 2.33 2.46 2.18 1.89 2.04
1572.117 2.03 1.97 2.35 2.44 2.17 2.12 2.32 2.42 2.12 2.09
1591.407 1.87 1.91 2.29 1.88 1.5295 1.73 1.93 2.1 2.43 2.57
1610.697 2.27 2.04 2.38 2.87 3.08 3.15 3.32 3.36 3.46 3.66
1629.986 3.91 4.28 4.42 4.82 4.88 4.64 4.56 4.91 5.24 5.3
1649.276 5.41 5.57 5.72 5.23 4.83 4.86 4.88 4.9 4.8 4.7
1668.566 4.84 4.61 4.21 4.41 4.2 3.85 3.72 3.51 3.4 2.89
1687.856 2.5 2.37 2.29 2.34 2.43 2.13 2.28 2.24 1.75 1.5503
1707.146 1.5274 1.6313 1.4993 1.74 1.95 1.91 1.71 1.4225 1.2917 1.0965
1726.435 1.1494 1.4623 1.3951 1.6762 1.8 1.2283 1.2635 1.2483 1.3093 1.5342
1745.725 1.3975 1.3738 1.5995 1.6237 1.3808 1.4421 1.5385 1.4495 1.72 1.94
1765.015 1.75 1.93 2.1 1.92 1.84 1.81 1.74 1.76 1.87 1.91
1784.305 1.99 1.6952 1.6177 1.94 1.95 1.77 1.8 1.6405 1.5565 1.79
1803.594 1.6541 1.4471 1.3422 1.2445 1.2041 1.2028 1.291 1.2335 0.9815 0.9904
1822.884 1.2514 1.3484 0.9547 0.9089 1.082 1.0868 0.9241 0.8415 1.0324 1.0529
1842.174 1.1695 1.3089 1.1617 0.9289 0.8577 0.8487 0.9836 1.1762 1.1019 0.829
1861.464 0.895 1.0354 0.9083 0.962 1.1262 1.0613 0.9327 0.8876 0.8455 0.8317
1880.754 0.8793 0.8711 0.7304 0.6709 0.8332 0.9753 1.0548 0.9609 0.6839 0.6907
1900.043 0.77445 0.8504 0.8347 0.7927 0.9152 0.9327 0.80889 0.77568 1.0045 1.1063
1919.333 1.0699 1.1237 1.0758 0.9064 0.8431 0.8791 0.8956 0.867 0.74109 0.8235
1938.623 1.0844 1.1847 1.0408 0.8592 0.8618 0.72296 0.603 0.6512 0.6603 0.77411
1957.913 0.9514 0.8818 0.72945 0.6749 0.8299 0.9048 0.9172 1.0272 1.1055 0.9673
1977.202 1.0681 1.1356 0.9956 0.8953 0.7623 1.0286 1.0549 0.95 0.8483 0.7501
1996.492 0.8908 0.8838 0.889 1.0539 1.0218 0.9464 0.9457 0.75853 0.612 0.6986
2015.782 0.836 0.9078 0.8389 0.8313 0.9655 1.0397 1.107 1.0601 1.0352 1.095
2035.072 1.1049 1.029 0.8744 0.9136 0.8818 0.8737 0.9728 0.9524 1.042 1.0832
2054.362 1.012 1.0018 0.77748 0.75801 0.9485 0.9014 0.877 0.8325 0.709837 0.79236
2073.651 1.0293 1.057 0.928 0.876 0.9375 0.9479 0.9162 1.0049 0.9467 0.79071
2092.941 0.8312 0.9759 0.8056 0.78743 0.9361 0.9344 1.0827 1.0165 0.79069 0.74541
2112.231 0.934 1.0321 0.9722 0.8329 0.9164 1.0853 1.0925 1.203 1.1659 1.0497
2131.521 1.0248 1.0634 0.9781 0.77646 0.9333 1.1058 0.9743 1.0676 1.1287 1.0049
2150.810 0.8994 0.9912 0.9188 0.639 0.6947 0.9938 1.0046 0.9914 1.009 0.9386
2170.100 1.1305 1.2074 1.2034 1.1103 0.9035 0.9679 1.0858 0.9025 0.8284 0.9869
2189.390 1.2073 1.244 1.13 1.2218 1.2326 1.099 1.0126 0.73986 0.8311 1.1166
2208.680 1.1881 1.1284 1.2337 1.2668 1.066 1.2171 1.3156 1.0624 0.9657 1.0439
2227.970 1.0391 1.0555 1.0183 1.0332 1.2299 1.2128 1.0905 1.2045 1.3857 1.4765
2247.259 1.5327 1.4108 1.0652 0.9217 1.0146 0.9669 0.9331 1.1393 1.3047 1.1764
2266.549 1.1548 1.2025 1.2797 1.399 1.3247 1.1439 1.2304 1.3762 1.3577 1.4318
2285.839 1.2248 1.1764 1.3766 1.3674 1.353 1.3976 1.4816 1.5259 1.4288 1.4047
2305.129 1.7043 1.6958 1.3861 1.2691 1.1381 1.3335 1.5899 1.7099 1.6961 1.5018
2324.418 1.5161 1.6081 1.4902 1.5359 1.72 1.3842 1.2258 1.4762 1.4872 1.3541
2343.708 1.2944 1.2394 1.1704 1.0447 1.1407 1.3402 1.0175 0.9232 1.0714 1.1458
2362.998 1.069 1.0033 1.1984 1.1398 1.1185 1.278 1.3734 1.1922 1.0064 1.0416
2382.288 0.8691 0.7956 0.9138 0.594 0.424 0.79264 0.8649 0.75977 0.8267 1.1008
2401.578 1.3947 1.2009 1.1772 1.1555 1.018 1.0411 1.238 1.2575 0.9925 0.9067
2420.867 0.73287 0.6182 0.76152 0.9486 0.9134 0.9444 1.0782 1.1338 1.0267 0.9573
2440.157 0.8525 1.0471 1.1202 0.8129 0.9722 1.1154 1.1335 1.1156 1.1343 1.0122
2459.447 0.9821 1.12 0.9348 0.8153 0.80997 0.8884 0.9291 0.8188 0.8213 0.9906
2478.737 1.1493 1.1884 1.103 0.8427 0.845 1.1515 1.2087 1.1293 1.0433 0.8918
2498.026 0.94 1.0515 1.0805 1.0527 1.0575 1.1699 1.2553 1.311 1.2124 1.0038
2517.316 0.972 1.023 0.8553 0.70241 0.77447 0.9747 1.2391 1.171 0.8576 0.73787
2536.606 0.9063 1.0507 1.0506 1.0419 0.8537 0.8286 1.0304 1.0952 1.0936 0.9159
2555.896 0.77052 0.9607 0.9603 0.73791 0.9226 1.1733 0.8915 0.713659 0.9305 0.9332
2575.186 0.9401 0.78856 0.552 0.8522 1.0574 1.2092 1.1989 0.9222 0.6771 0.716663
2594.475 0.75329 0.79854 1.03 0.8294 0.79828 0.8606 0.496 0.6929 1.1517 1.0738
2613.765 0.9784 0.8632 0.77915 0.8123 0.78969 0.8715 1.0442 1.2541 1.1793 0.80538
2633.055 0.6512 0.6487 0.711769 0.9385 1.1802 1.0389 0.9134 1.3045 1.319 1.2568
2652.345 1.2437 1.0633 1.1894 1.2812 1.0552 0.8632 1.1022 1.4848 1.4876 1.2184
2671.634 1.0622 0.9569 1.0893 1.026 0.719474 0.78703 1.043 1.2748 1.1097 0.9737
2690.924 1.2802 1.1183 1.0836 1.4885 1.6151 1.4698 1.2206 1.2534 1.4598 1.5669
2710.214 1.4483 1.6425 2.06 2.06 1.76 1.463 1.5141 1.5863 1.6607 2.13
2729.504 2.44 1.88 1.4598 1.4239 1.2096 1.76 2.14 1.5471 1.2943 1.313
2748.794 1.3114 1.4527 1.6035 1.4253 1.3602 1.5672 1.6252 1.4544 1.1512 1.5728
2768.083 1.67 1.5356 1.5547 1.5877 1.86 2.16 2.16 1.7054 1.6629 1.83
2787.373 1.6964 1.6847 1.95 1.88 2.12 2.33 2 2.03 2.24 2.06
2806.663 2.18 2.77 2.83 2.61 3 3.21 2.98 2.83 2.93 3.08
2825.953 2.98 3.07 3.43 3.89 3.99 3.96 4.14 4.49 4.93 5.33
2845.242 5.53 5.29 5.51 5.76 5.83 6.31 6.76 6.9 7.23 7.82
2864.532 8.31 8.48 8.56 8.78 8.87 9.52 10.26 10.46 10.39 10.62
2883.822 11.37 11.73 12.07 12.94 13.5 13.62 14.17 14.41 14.88 15.59
2903.112 15.74 16.47 17.01 16.69 16.79 17.24 17.24 17.06 17.11 18
2922.401 18.5 18.26 18.33 18.23 18.21 18.65 19.44 20.16 21.28 22.83
2941.691 24.51 25.78 25.03 22.37 20.35 20.08 20.01 19.99 20.29 20.59
2960.981 20.87 20.89 20.97 21 20.82 20.45 20.04 19.96 19.95 19.85
2980.271 19.39 18.37 17.42 17.27 16.8 16.3 16.01 15.32 14.88 14.39
2999.561 13.5 12.45 11.85 11.34 10.16 9.15 8.67 8.04 7.33 6.84
3018.850 6.42 5.86 5.63 5.54 5.04 4.44 4.47 4.51 4.36 4.26
3038.140 4.37 4.34 4.17 4.42 4.36 4.51 4.85 5.06 5.39 5.53
3057.430 5.8 6.42 6.86 7.03 7.44 7.24 6.98 7.35 7.39 7.42
3076.720 7.2 7.23 7.8 8.23 8.34 7.92 7.52 7.38 6.94 6.74
3096.009 6.87 6.66 6.63 6.61 6.48 6.19 5.41 4.81 4.6 4.47
3115.299 3.68 3.09 3.09 2.86 2.25 2.33 2.39 1.79 1.6191 1.84
3134.589 1.9 1.81 1.75 1.5586 1.701 1.96 2.05 1.78 1.2673 1.1839
3153.879 1.3997 1.1554 1.2017 1.74 1.5251 1.3082 1.3734 1.1559 1.01 1.153
3173.169 1.3707 0.8539 0.601 0.9976 0.9216 0.588 0.716374 1.1473 1.4394 0.8969
3192.458 0.6622 1.3833 1.74 1.5208 0.8154 0.8751 0.9193 0.211 0.376 1.0203
3211.748 0.75187 0.714753 1.3971 1.2574 1.0316 1.2206 1.0128 0.75254 0.87 0.74546
3231.038 0.527 0.6719 0.6339 0.605 1.0242 1.0318 0.8431 1.278 1.4265 1.0177
3250.328 0.6323 0.568 0.9498 0.8116 0.589 0.8989 1.0889 0.8613 0.572 0.413
3269.617 0.261 0.6539 0.9977 0.75208 1.0155 0.80357 0.171 0.446 1.1852 1.3886
3288.907 1.1828 1.3377 1.2269 0.6295 0.9805 1.5418 1.2365 1.277 1.4053 1.2269
3308.197 1.0666 1.0128 0.97 1.1922 1.6949 1.6246 1.2963 1.4307 1.0902 1.2251
3327.487 1.6715 1.5779 1.5585 1.3898 1.2143 1.1606 1.1967 1.0998 0.8774 0.76519
3346.777 0.80852 1.0659 1.0011 1.1045 1.1113 1.4962 1.79 1.5148 1.6127 0.78092
3366.066 0.6844 1.0886 0.6729 1.2743 1.5041 1.0608 1.0795 0.8844 0.8682 1.1505
3385.356 1.1121 1.3184 1.2019 0.70229 0.6937 0.6123 0.8465 0.9805 0.475 0.308
3404.646 0.73086 0.749 0.519 0.637 0.9499 0.9808 0.8707 0.502 0.294 0.6141
3423.936 0.408 0.352 0.6854 1.0417 1.0211 0.76213 1.1408 1.0596 0.534 0.447
3443.225 0.404 0.494 0.58 0.53 1.0698 1.5541 1.5308 1.4246 1.5755 1.2739
3462.515 0.9207 0.9555 1.0902 1.5176 0.80226 0.487 0.8764 0.9031 0.939 0.9852
3481.805 0.9948 0.8889 0.55 0.346 0.9976 1.1592 0.9759 0.9593 1.1496 1.2608
3501.095 1.1493 0.77501 0.402 0.17 0.059 0.8633 1.3697 1.2803 1.2698 0.9786
3520.385 0.8164 1.0912 1.2297 1.3117 1.3428 0.8902 0.813 1.2714 1.5042 1.3764
3539.674 1.2446 1.2005 1.1265 1.91 2.31 1.86 1.6809 1.4808 1.5858 1.91
3558.964 2.3 2.52 2.15 2.43 3.17 2.99 2.72 2.71 2.69 3.23
3578.254 4.16 4.26 3.7 4.41 5.53 5.88 6.24 6.47 6.01 5.43
3597.544 5.48 5.27 5.21 5.5 6.08 8.24 11.53 12.3 8.33 5.4
3616.833 5.3 5.66 5.57 5.25 5.74 6.19 6.55 6.33 5.97 5.26
3636.123 4.55 3.58 2.86 3.13 3.07 3.06 2.99 2.93 2.63 2
3655.413 1.6511 1.5628 1.3903 1.0421 0.9289 1.121 1.5993 1.4913 1.0371 0.8652
3674.703 0.9687 1.1626 1.1705 0.80308 0.79458 1.0319 0.9782 1.1906 0.77194 0.449
3693.993 0.49 0.8959 1.1991 0.8689 0.72845 0.7629 0.9696 1.0183 1.2836 1.5252
3713.282 1.3161 1.2562 0.8332 0.78401 1.0993 1.4038 1.5212 1.0522 1.4384 1.7043
3732.572 1.4504 1.6695 1.8 1.81 1.3524 1.1893 1.6178 1.1881 1.01 1.5587
3751.862 1.3781 0.6682 0.59 0.892 0.9194 1.15 1.4067 1.3004 1.4241 1.0394
3771.152 0.6366 0.76998 0.79524 0.505 0.434 0.715386 0.882 1.0153 0.8571 0.9934
3790.441 1.1183 1.1373 0.74286 0.388 0.368 0.9747 1.2854 0.9446 1.1544 0.8383
3809.731 1.0723 1.2594 0.9312 1.0603 1.4523 1.5217 1.1001 0.314 0.312 1.2045
3829.021 1.021 0.866 0.9409 1.047 1.2963 1.2589 1.6066 0.9531 0.6166 1.1753
3848.311 1.2308 1.673 1.78 1.5249 1.667 1.443 1.379 1.5808 1.77 2.17
3867.601 1.99 1.5131 1.2199 0.9002 0.6792 0.80575 1.208 1.4614 1.3581 1.0554
3886.890 0.77042 1.1601 1.4998 1.6434 1.6618 1.4866 1.6908 1.98 2.22 2.3
3906.180 2 1.2478 0.6855 0.8639 1.1754 1.5382 1.5214 1.141 1.2515 1.4234
3925.470 1.4936 1.219 0.9846 1.3312 1.3323 1.0842 1.1428 1.4407 1.447 1.329
3944.760 0.8833 1.021 1.6092 1.1569 1.0171 1.3842 1.4006 1.3662 1.1834 0.72574
3964.049 1.1219 1.3614 1.37 1.5196 0.8306 0.79655 0.9639 0.9807 1.3558 1.2125
3983.339 1.5273 1.78 1.695 1.5476 1.4754 1.362 1.1742 1.3933 1.4955 1.3633
##END=
