##TITLE=4,4-Dimethyl-2-neopentyl-1-pentene
##JCAMP-DX=4.24
##DATA TYPE=INFRARED SPECTRUM
##ORIGIN=NIST Mass Spectrometry Data Center
##OWNER=NIST Standard Reference Data Program
Collection (C) 2018 copyright by the U.S. Secretary of Commerce
on behalf of the United States of America. All rights reserved.
##CAS REGISTRY NO=141-70-8
##MOLFORM=C 12 H 24
##$NIST SOURCE=MSDC-IR
##SPECTROMETER/DATA SYSTEM=HP-GC/MS/IRD
##STATE=gas
##XUNITS=1/CM
##YUNITS=ABSORBANCE
##XFACTOR=1.0
##YFACTOR=0.000003600
##DELTAX=4.0
##FIRSTX=550.0
##LASTX=3846.0
##FIRSTY=0.000000
##MAXX=3846
##MINX=550
##MAXY=0.036
##MINY=0
##NPOINTS=825
##XYDATA=(X++(Y..Y))
550.0 0 10 6 3 14 18 18 18 12 8
590.0 4 9 21 15 16 31 45 63 75 82
630.0 102 99 85 80 58 31 36 41 31 25
670.0 33 56 62 44 26 15 24 30 29 17
710.0 20 33 22 27 34 29 38 47 50 61
750.0 80 96 116 136 137 111 75 55 47 34
790.0 30 30 27 31 35 32 26 29 24 22
830.0 27 32 46 56 53 55 75 98 111 128
870.0 162 218 324 512 767 1033 1261 1365 1290 1070
910.0 777 491 294 187 132 108 97 95 78 59
950.0 55 54 56 59 62 74 97 112 114 100
990.0 74 53 43 42 43 45 49 51 55 55
1030.0 47 50 54 53 54 41 32 39 40 38
1070.0 43 41 38 39 42 42 35 38 44 38
1110.0 37 41 45 55 59 64 72 77 80 84
1150.0 92 108 129 156 181 206 238 271 316 380
1190.0 439 478 493 461 397 365 393 477 596 725
1230.0 793 762 657 523 413 345 288 230 185 162
1270.0 151 151 145 138 138 133 127 126 122 125
1310.0 139 161 199 244 297 350 377 380 381 406
1350.0 500 687 970 1305 1550 1559 1311 967 717 642
1390.0 703 774 770 677 525 413 355 311 296 312
1430.0 347 392 444 493 548 604 675 796 946 1109
1470.0 1286 1444 1478 1357 1096 770 510 350 256 196
1510.0 159 132 113 98 85 76 74 71 64 64
1550.0 62 56 55 54 56 52 52 55 56 59
1590.0 65 76 94 113 131 156 199 266 336 409
1630.0 475 494 457 378 282 198 141 105 87 70
1670.0 54 55 56 47 38 36 36 39 38 32
1710.0 32 29 23 27 26 25 25 24 27 28
1750.0 26 25 23 24 31 35 33 37 43 47
1790.0 56 70 80 92 102 101 97 83 60 45
1830.0 38 30 28 27 27 26 26 28 26 26
1870.0 24 22 26 28 26 24 23 21 22 23
1910.0 19 18 14 20 25 20 20 22 18 17
1950.0 16 17 21 19 12 12 15 16 13 12
1990.0 13 13 12 12 15 14 10 15 21 20
2030.0 20 19 22 18 13 13 12 13 11 11
2070.0 12 8 10 13 12 11 12 11 12 14
2110.0 12 11 11 14 15 19 14 8 9 9
2150.0 8 5 9 9 6 5 6 8 6 6
2190.0 4 5 6 3 6 9 7 4 8 10
2230.0 6 9 7 7 12 11 6 5 6 6
2270.0 7 7 6 10 13 16 18 19 18 16
2310.0 16 14 11 8 7 5 3 3 4 8
2350.0 10 12 10 8 6 8 8 13 15 13
2390.0 15 15 13 13 14 16 15 11 14 16
2430.0 11 11 12 11 11 12 13 12 11 10
2470.0 12 12 9 11 15 17 19 22 21 19
2510.0 21 22 21 21 18 19 21 19 22 25
2550.0 26 25 30 34 31 29 27 24 27 29
2590.0 26 26 29 28 31 35 37 42 44 46
2630.0 49 47 54 57 55 52 49 47 53 58
2670.0 61 65 66 64 65 69 74 78 80 85
2710.0 95 112 125 135 138 135 130 120 123 133
2750.0 132 132 127 123 127 127 125 130 146 158
2790.0 169 177 185 209 235 258 279 304 341 381
2830.0 432 494 573 672 803 969 1167 1422 1742 2125
2870.0 2493 2756 2852 2818 2731 2671 2690 2811 3014 3284
2910.0 3569 3786 3886 3901 3922 4038 4304 4733 5342 6254
2950.0 7570 9025 9998 10000 8943 7278 5678 4381 3285 2378
2990.0 1723 1289 998 798 649 536 449 384 336 305
3030.0 286 274 257 251 251 252 262 277 306 380
3070.0 505 651 731 702 577 415 297 247 229 221
3110.0 210 185 157 135 123 116 112 108 101 99
3150.0 100 99 99 94 97 102 104 114 117 115
3190.0 119 119 116 112 110 109 107 106 106 102
3230.0 95 92 94 98 98 90 82 76 71 67
3270.0 59 56 61 55 50 51 52 50 49 46
3310.0 41 36 33 37 47 50 45 49 55 55
3350.0 58 59 57 63 62 56 53 42 39 50
3390.0 47 38 39 40 38 30 24 20 24 30
3430.0 31 30 26 21 22 21 20 23 26 23
3470.0 15 18 23 22 17 14 18 20 18 18
3510.0 16 15 18 13 13 19 23 26 23 14
3550.0 11 21 25 22 23 25 24 22 18 18
3590.0 17 18 22 16 14 19 21 19 15 5
3630.0 3 11 21 22 11 9 14 19 23 28
3670.0 26 18 22 30 27 17 20 20 21 22
3710.0 18 20 29 30 24 23 23 21 22 24
3750.0 28 27 26 22 24 27 24 26 31 34
3790.0 32 33 36 30 26 31 37 32 30 39
3830.0 40 36 31 30 32
##END=
