##TITLE=4-Methoxy-4-methyl-2-pentanol
##JCAMP-DX=4.24
##DATA TYPE=INFRARED SPECTRUM
##ORIGIN=EPA-IR VAPOR PHASE LIBRARY
##OWNER=SRD/NIST
Collection (C) 2018 copyright by the U.S. Secretary of Commerce
on behalf of the United States of America. All rights reserved.
##CAS REGISTRY NO=141-73-1
##MOLFORM=C 7 H 16 O 2
##$NIST SOURCE=MSDC-IR
##STATE=gas
##XUNITS=1/CM
##YUNITS=ABSORBANCE
##XFACTOR=1.
##YFACTOR=0.001
##DELTAX=1.92898
##FIRSTX=549.8
##LASTX=4000.7
##FIRSTY=2.6
##MAXX=4000.7
##MINX=549.759
##MAXY=0.07704
##MINY=0.0002501
##NPOINTS=1790
##XYDATA=(X++(Y..Y))
549.759 2.6 2.6 2.53 2.41 2.41 2.42 2.53 2.48 2.44 2.43
569.049 2.22 2.24 2.19 2.16 2.12 1.96 2.1 2.2 1.95 1.8
588.339 1.87 1.89 1.88 1.71 1.45 1.41 1.37 1.2 1.28 1.38
607.628 1.29 1.08 1.12 1.27 1.17 1.18 1.16 1.14 1.12 1.09
626.918 1.05 1.08 1.18 1.15 1.14 1.17 1.15 1.17 1.12 1.04
646.208 1.07 1.04 1.05 1 0.9031 0.9931 1.03 0.9354 1.02 0.9754
665.498 0.8611 0.9354 1.02 1.05 1.08 1.06 0.9471 0.9591 0.9636 0.8945
684.787 0.976 1.08 1.15 1.14 1.11 1.11 1.14 1.2 1.23 1.3
704.077 1.45 1.5 1.52 1.72 1.96 2.24 2.5 2.75 3.03 3.2
723.367 3.39 3.57 3.76 3.92 3.95 3.97 4 3.97 3.8 3.49
742.657 3.16 2.96 2.86 2.58 2.1 1.95 1.88 1.57 1.39 1.29
761.947 1.3 1.28 1.12 1.18 1.12 1.05 1.06 1.08 1.13 1.25
781.236 1.39 1.36 1.38 1.48 1.53 1.52 1.53 1.7 1.8 1.91
800.526 2.2 2.4 2.6 2.82 3.14 3.48 3.77 4.18 4.68 5.1
819.816 5.51 6.01 6.37 6.77 7.18 7.27 7.2 7.07 7 6.89
839.106 6.6 6.25 5.89 5.6 5.26 4.9 4.57 4.3 4.1 3.94
858.395 3.67 3.44 3.46 3.47 3.51 3.44 3.42 3.49 3.53 3.57
877.685 3.57 3.78 3.95 4.06 4.26 4.35 4.46 4.59 4.73 4.7
896.975 4.58 4.52 4.45 4.32 4.12 4.05 4.09 4.04 3.84 3.83
916.265 4.02 4.16 4.22 4.38 4.54 4.74 5.07 5.24 5.31 5.38
935.555 5.44 5.5 5.48 5.39 5.27 5.2 5.09 4.94 4.87 4.81
954.844 4.78 4.8 4.81 4.82 4.89 4.94 4.88 4.84 4.77 4.69
974.134 4.68 4.71 4.67 4.53 4.34 4.27 4.25 4.21 4.23 4.27
993.424 4.23 4.15 4.32 4.3 4.12 4.32 4.47 4.57 4.82 5.05
1012.714 5.28 5.5 5.9 6.69 7.42 8.11 9.1 10.19 11.23 12.33
1032.003 13.61 14.92 16.17 17.29 18.27 19.06 19.92 20.81 21.36 21.71
1051.293 22.08 22.39 22.95 23.86 24.82 25.99 27.59 29.62 31.81 34.2
1070.583 36.56 38.74 40.91 42.51 43.49 44.11 44.14 43.56 41.97 39.85
1089.873 37.52 34.77 31.73 28.51 25.61 23.11 20.95 19.18 17.73 16.65
1109.163 15.9 15.32 14.99 14.82 14.6 14.3 14.35 14.54 14.71 15.27
1128.452 15.75 16.02 16.65 17.69 18.86 20.18 21.61 23.23 25.07 27.01
1147.742 29.04 30.75 32.35 34.06 35.45 36.33 37.12 37.58 37.5 37
1167.032 36.14 35.1 34.04 32.88 31.61 30.58 29.63 28.67 27.83 27
1186.322 26.29 25.47 24.36 23.37 22.47 21.37 20.24 19.12 18.08 17.37
1205.611 16.8 16.29 15.88 15.6 15.45 15.46 15.51 15.64 16.07 16.58
1224.901 16.93 17.16 17.37 17.64 17.9 17.95 17.73 17.41 16.88 16.27
1244.191 15.73 15.05 14.4 13.86 13.21 12.58 12.06 11.74 11.52 11.14
1263.481 10.99 10.95 10.83 10.86 10.89 10.94 11 11.06 11.08 11.11
1282.771 11.15 11.04 10.9 10.78 10.58 10.27 9.95 9.7 9.41 9.04
1302.060 8.73 8.43 8.09 7.78 7.52 7.35 7.21 7.09 6.97 6.87
1321.350 6.76 6.66 6.58 6.46 6.38 6.33 6.3 6.33 6.4 6.54
1340.640 6.79 7.14 7.61 8.18 8.93 9.86 10.98 12.28 13.75 15.34
1359.930 17.02 18.73 20.54 22.56 24.72 26.35 27.07 27.46 27.8 27.89
1379.219 27.63 26.95 25.94 24.65 23.09 21.47 19.93 18.43 17 15.72
1398.509 14.63 13.73 13.02 12.41 11.91 11.54 11.18 10.84 10.45 10.01
1417.799 9.61 9.14 8.66 8.23 7.86 7.54 7.27 7.06 6.9 6.87
1437.089 6.95 7.05 7.19 7.42 7.69 8.03 8.43 8.83 9.25 9.62
1456.378 9.93 10.22 10.4 10.54 10.59 10.55 10.43 10.18 9.8 9.34
1475.668 8.77 8.14 7.5 6.83 6.19 5.58 4.98 4.46 4.01 3.57
1494.958 3.21 2.9 2.66 2.52 2.32 2.17 2.08 1.97 1.88 1.8
1514.248 1.73 1.66 1.59 1.56 1.48 1.43 1.4 1.33 1.29 1.32
1533.538 1.3 1.27 1.26 1.23 1.24 1.22 1.17 1.18 1.2 1.2
1552.827 1.22 1.19 1.18 1.17 1.15 1.15 1.11 1.09 1.08 1.03
1572.117 1.02 1.01 0.9878 1.02 1.02 0.9881 1.01 0.9796 0.9143 0.8902
1591.407 0.8182 0.7916 0.8353 0.8436 0.8333 0.782 0.7853 0.8246 0.8032 0.7835
1610.697 0.7622 0.7443 0.7053 0.7135 0.7653 0.7683 0.7512 0.7018 0.6817 0.6948
1629.986 0.7181 0.6933 0.6615 0.6477 0.6236 0.666 0.6884 0.6714 0.6486 0.6136
1649.276 0.6173 0.6246 0.6571 0.6828 0.6323 0.6323 0.6686 0.6528 0.6513 0.6513
1668.566 0.6168 0.6222 0.6546 0.6671 0.655 0.6512 0.6766 0.6445 0.5856 0.5832
1687.856 0.5896 0.6008 0.582 0.5084 0.5265 0.5401 0.544 0.5771 0.526 0.4864
1707.146 0.4936 0.518 0.5164 0.457 0.4349 0.4633 0.4557 0.4518 0.4241 0.4059
1726.435 0.4267 0.4332 0.4169 0.3759 0.3756 0.3895 0.3996 0.3946 0.3996 0.398
1745.725 0.3548 0.3585 0.4267 0.4632 0.4243 0.4023 0.4223 0.4527 0.4588 0.4652
1765.015 0.4952 0.4994 0.47 0.4762 0.489 0.4854 0.4818 0.5067 0.5256 0.502
1784.305 0.4789 0.481 0.5101 0.5239 0.5482 0.5896 0.6097 0.5751 0.5561 0.5948
1803.594 0.6164 0.6028 0.5909 0.6107 0.6435 0.6563 0.6142 0.5775 0.5901 0.5758
1822.884 0.5278 0.5125 0.5305 0.5141 0.5109 0.5289 0.4733 0.4313 0.4316 0.4352
1842.174 0.4327 0.4186 0.4569 0.4354 0.3888 0.3918 0.4051 0.4389 0.415 0.4045
1861.464 0.4176 0.41 0.4174 0.4288 0.4584 0.4458 0.4328 0.4527 0.4739 0.471
1880.754 0.4726 0.4733 0.4766 0.5121 0.5103 0.5051 0.5294 0.5378 0.5254 0.5334
1900.043 0.5494 0.5644 0.5692 0.5593 0.5591 0.5954 0.6117 0.6096 0.6283 0.605
1919.333 0.5623 0.5658 0.5847 0.5687 0.5579 0.5353 0.5338 0.5353 0.4962 0.4661
1938.623 0.4635 0.4429 0.4041 0.4051 0.4356 0.4416 0.4113 0.4054 0.3948 0.374
1957.913 0.4092 0.4314 0.406 0.3868 0.3684 0.3916 0.397 0.3807 0.4139 0.4043
1977.202 0.3998 0.4217 0.402 0.3632 0.3339 0.3621 0.3764 0.3673 0.366 0.3564
1996.492 0.3264 0.3033 0.3506 0.3842 0.3487 0.352 0.3806 0.3536 0.3479 0.3744
2015.782 0.363 0.3581 0.3634 0.3495 0.3725 0.3628 0.3052 0.2786 0.3123 0.304
2035.072 0.2659 0.2883 0.3094 0.2972 0.2782 0.2575 0.2703 0.2894 0.2978 0.2931
2054.362 0.2502 0.2527 0.2853 0.2973 0.2709 0.2641 0.2843 0.2814 0.2778 0.2919
2073.651 0.3209 0.2827 0.2698 0.3183 0.3374 0.3516 0.3466 0.3804 0.3973 0.3956
2092.941 0.4332 0.4404 0.4137 0.4373 0.4753 0.4651 0.4811 0.5235 0.5364 0.5552
2112.231 0.6109 0.63 0.6574 0.6803 0.6725 0.694 0.7085 0.7173 0.7201 0.7162
2131.521 0.7265 0.7585 0.798 0.7949 0.7624 0.7656 0.7967 0.8116 0.8006 0.7931
2150.810 0.7624 0.7273 0.7032 0.6944 0.6868 0.6704 0.7091 0.6826 0.6194 0.6394
2170.100 0.619 0.5733 0.5431 0.5058 0.46 0.4169 0.3917 0.3361 0.3335 0.3614
2189.390 0.3669 0.3868 0.4014 0.3961 0.3799 0.392 0.3907 0.344 0.3217 0.3408
2208.680 0.3064 0.3061 0.3296 0.3415 0.3826 0.3562 0.3595 0.3972 0.3942 0.365
2227.970 0.3573 0.3551 0.3269 0.3682 0.4014 0.3806 0.3432 0.3237 0.3144 0.2844
2247.259 0.268 0.3 0.3264 0.313 0.2992 0.3242 0.3818 0.362 0.3024 0.2501
2266.549 0.2592 0.3075 0.3077 0.318 0.3327 0.3514 0.3864 0.3719 0.3621 0.3783
2285.839 0.3801 0.3927 0.4037 0.3951 0.34 0.316 0.3705 0.3718 0.3472 0.3536
2305.129 0.3662 0.4041 0.3804 0.3186 0.3015 0.2932 0.315 0.3502 0.3557 0.378
2324.418 0.3411 0.2959 0.3528 0.3347 0.2891 0.3338 0.3963 0.3841 0.3414 0.3344
2343.708 0.3335 0.3297 0.2949 0.2974 0.3444 0.3464 0.3537 0.364 0.3466 0.3738
2362.998 0.3473 0.2923 0.3352 0.3404 0.3291 0.3397 0.3144 0.3351 0.3918 0.3577
2382.288 0.3278 0.3937 0.4257 0.4208 0.3692 0.3241 0.3319 0.3649 0.4097 0.4395
2401.578 0.4504 0.4243 0.4197 0.4058 0.3785 0.3846 0.3887 0.3928 0.3942 0.3932
2420.867 0.3621 0.362 0.4308 0.4404 0.3958 0.3696 0.4002 0.4233 0.3859 0.3538
2440.157 0.3502 0.3491 0.3334 0.3362 0.3718 0.3623 0.3165 0.3301 0.3973 0.3604
2459.447 0.2942 0.2906 0.2689 0.2892 0.3545 0.3191 0.2711 0.3136 0.3136 0.3075
2478.737 0.316 0.3399 0.3343 0.3181 0.3398 0.3498 0.3323 0.3337 0.3221 0.321
2498.026 0.3416 0.3476 0.3623 0.3486 0.3246 0.2755 0.2674 0.3192 0.3778 0.3842
2517.316 0.3581 0.3232 0.3213 0.3651 0.3533 0.3923 0.4226 0.4103 0.4526 0.4722
2536.606 0.4942 0.5283 0.5173 0.4913 0.4958 0.4638 0.4221 0.4432 0.5331 0.5644
2555.896 0.5338 0.4986 0.4403 0.4626 0.4991 0.524 0.5379 0.5476 0.5777 0.622
2575.186 0.639 0.5981 0.6104 0.6378 0.6614 0.7034 0.6865 0.6855 0.7172 0.7666
2594.475 0.7859 0.7978 0.8178 0.801 0.8096 0.8344 0.8579 0.8663 0.8566 0.8236
2613.765 0.8264 0.8819 0.9123 0.9403 0.9286 0.8682 0.8898 0.9382 0.9655 0.9875
2633.055 1.01 0.9771 0.9756 1.04 1.08 1.09 1.1 1.14 1.13 1.1
2652.345 1.1 1.14 1.11 1.08 1.12 1.11 1.06 1.07 1.04 1.01
2671.634 1 1.02 1.05 1.05 1.03 0.974 0.995 1.01 0.9994 1.05
2690.924 1.08 1.03 0.993 1 1.03 1.04 1.04 1.04 1.03 1.08
2710.214 1.13 1.11 1.15 1.16 1.19 1.28 1.34 1.37 1.39 1.37
2729.504 1.36 1.45 1.53 1.59 1.62 1.56 1.6 1.62 1.53 1.55
2748.794 1.59 1.63 1.67 1.69 1.72 1.79 1.83 1.81 1.83 1.91
2768.083 1.98 2.02 2.04 2.06 2.1 2.16 2.24 2.32 2.44 2.55
2787.373 2.67 2.8 2.91 3.02 3.22 3.4 3.57 3.84 4.17 4.47
2806.663 4.81 5.15 5.47 5.94 6.56 7.26 8.01 8.85 9.78 10.75
2825.953 11.72 12.72 13.57 14.24 14.69 14.86 14.85 14.71 14.37 13.82
2845.242 13.22 12.56 11.77 11.03 10.45 10.08 9.99 10.02 10.21 10.62
2864.532 11.18 11.94 12.75 13.59 14.59 15.6 16.58 17.53 18.55 19.54
2883.822 20.37 21.15 21.91 22.59 23.21 23.83 24.54 25.3 26.11 27.01
2903.112 27.94 28.9 29.88 31.01 32.13 33.12 34.08 35.09 36.21 37.39
2922.401 38.68 40.1 41.52 42.96 44.55 46.04 47.26 48.26 48.88 49.05
2941.691 48.7 47.97 46.92 45.58 44.06 42.65 41.57 40.72 40.42 40.97
2960.981 42.48 44.96 48.46 53 58.2 63.56 68.56 72.59 75.38 76.93
2980.271 77.04 75.78 72.96 68.2 62.27 55.83 49.04 42.26 35.98 30.29
2999.561 25.43 21.53 18.32 15.64 13.54 11.94 10.61 9.5 8.46 7.57
3018.850 6.93 6.29 5.81 5.45 5.11 4.86 4.59 4.35 4.03 3.84
3038.140 3.77 3.6 3.45 3.29 3.13 3.07 3.06 3.01 2.87 2.71
3057.430 2.63 2.61 2.62 2.63 2.64 2.54 2.37 2.36 2.33 2.27
3076.720 2.29 2.3 2.3 2.26 2.19 2.04 2 2.03 2.02 2.08
3096.009 2.05 1.93 1.85 1.88 1.92 1.83 1.73 1.61 1.55 1.61
3115.299 1.65 1.65 1.61 1.55 1.53 1.43 1.37 1.32 1.27 1.37
3134.589 1.38 1.25 1.31 1.34 1.23 1.15 1.11 1.18 1.25 1.23
3153.879 1.21 1.19 1.1 1.09 1.14 1.12 1.17 1.14 1.09 1.16
3173.169 1.13 1.04 1 0.9922 1.02 1.06 1.03 0.9957 1.02 0.9974
3192.458 0.9334 1 1.14 1.05 0.975 1.01 0.9821 0.9993 0.9544 1.01
3211.748 1.17 1.08 1.02 1.15 1.11 0.9468 0.8973 0.8704 0.8894 0.8465
3231.038 0.806 0.9113 0.8862 0.8702 0.8978 0.8153 0.7872 0.7334 0.6599 0.6658
3250.328 0.747 0.7553 0.6836 0.6361 0.6172 0.5465 0.51 0.5796 0.5925 0.6358
3269.617 0.6681 0.6964 0.6767 0.7022 0.6621 0.692 0.7793 0.7133 0.6752 0.6718
3288.907 0.6394 0.5834 0.6135 0.6585 0.6077 0.5402 0.5708 0.7278 0.7119 0.6012
3308.197 0.6477 0.7185 0.6466 0.5075 0.6264 0.6889 0.5369 0.5488 0.6342 0.5859
3327.487 0.5697 0.5878 0.5591 0.6137 0.6921 0.6469 0.609 0.6513 0.5995 0.5987
3346.777 0.6701 0.6248 0.6072 0.6456 0.6709 0.7356 0.7934 0.8003 0.832 0.7942
3366.066 0.7182 0.7467 0.7606 0.7207 0.762 0.7707 0.811 0.8964 0.8467 0.789
3385.356 0.7855 0.8721 0.9143 0.8793 0.8582 0.845 0.849 0.9138 1.02 0.968
3404.646 0.9048 0.9979 1.12 1.07 1.09 1.2 1.19 1.19 1.21 1.21
3423.936 1.17 1.21 1.29 1.3 1.33 1.28 1.25 1.29 1.39 1.49
3443.225 1.52 1.49 1.39 1.35 1.3 1.24 1.25 1.27 1.29 1.39
3462.515 1.39 1.37 1.31 1.27 1.31 1.26 1.24 1.24 1.21 1.28
3481.805 1.37 1.36 1.38 1.41 1.43 1.57 1.62 1.67 1.65 1.54
3501.095 1.61 1.71 1.92 2.07 2.13 2.34 2.49 2.61 2.79 2.96
3520.385 3.2 3.36 3.43 3.53 3.7 3.8 3.91 4.25 4.58 4.95
3539.674 5.46 6.02 6.58 7.5 8.71 10.01 11.26 12.59 13.9 14.92
3558.964 16 16.92 17.42 17.62 17.66 17.44 16.92 16.25 15.34 14.29
3578.254 13.26 12.18 11.25 10.31 9.36 8.54 7.74 7.09 6.5 5.92
3597.544 5.44 5.12 4.76 4.41 4.2 3.86 3.52 3.37 3.25 3.17
3616.833 3.12 2.94 2.87 2.8 2.63 2.51 2.52 2.47 2.37 2.41
3636.123 2.54 2.66 2.86 2.94 2.96 3.09 3.18 3.18 3.17 3.18
3655.413 3.15 3.12 2.96 2.79 2.53 2.27 2.02 1.79 1.72 1.54
3674.703 1.34 1.31 1.29 1.14 0.9936 0.9735 0.9584 0.9379 0.9277 0.8069
3693.993 0.7013 0.774 0.7068 0.5975 0.6682 0.6839 0.539 0.4854 0.5697 0.6158
3713.282 0.5357 0.5211 0.5486 0.4805 0.4043 0.4005 0.4649 0.4418 0.308 0.2998
3732.572 0.3815 0.3637 0.3963 0.4878 0.4488 0.4062 0.5044 0.5283 0.5142 0.5327
3751.862 0.5897 0.5527 0.4331 0.4649 0.4787 0.3861 0.2906 0.3273 0.4466 0.4412
3771.152 0.4772 0.3931 0.3218 0.4383 0.4635 0.5003 0.5234 0.4448 0.3925 0.3703
3790.441 0.2524 0.2874 0.4018 0.425 0.4391 0.4497 0.3716 0.3612 0.5167 0.4457
3809.731 0.3666 0.4561 0.515 0.5258 0.5173 0.4194 0.3427 0.3726 0.4516 0.3966
3829.021 0.3211 0.3892 0.4765 0.486 0.4513 0.4874 0.5786 0.525 0.4154 0.4133
3848.311 0.3939 0.3798 0.4089 0.5247 0.5317 0.5739 0.613 0.5322 0.5622 0.5677
3867.601 0.5595 0.5125 0.4952 0.4649 0.4319 0.532 0.5784 0.6167 0.5548 0.4694
3886.890 0.4837 0.4002 0.3684 0.473 0.5475 0.4756 0.4113 0.5094 0.5952 0.5927
3906.180 0.5815 0.5617 0.4631 0.4705 0.5333 0.4323 0.4602 0.5495 0.4665 0.4459
3925.470 0.4985 0.4596 0.4364 0.4318 0.4033 0.4968 0.6043 0.6063 0.5219 0.4153
3944.760 0.3883 0.3827 0.5049 0.5441 0.5449 0.5382 0.5068 0.5868 0.607 0.5729
3964.049 0.4652 0.511 0.6024 0.5034 0.43 0.5901 0.672 0.6178 0.6827 0.6651
3983.339 0.6082 0.5828 0.5738 0.6911 0.7283 0.7138 0.6533 0.4799 0.4846 0.5822
##END=
