##TITLE=Dicrotophos
##JCAMP-DX=4.24
##DATA TYPE=INFRARED SPECTRUM
##ORIGIN=NIST Mass Spectrometry Data Center
##OWNER=NIST Standard Reference Data Program
Collection (C) 2018 copyright by the U.S. Secretary of Commerce
on behalf of the United States of America. All rights reserved.
##CAS REGISTRY NO=141-66-2
##MOLFORM=C 8 H 16 N O 5 P
##$NIST SOURCE=MSDC-IR
##SPECTROMETER/DATA SYSTEM=HP-GC/MS/IRD
##STATE=gas
##XUNITS=1/CM
##YUNITS=ABSORBANCE
##XFACTOR=1.0
##YFACTOR=0.000014300
##DELTAX=4.0
##FIRSTX=550.0
##LASTX=3846.0
##FIRSTY=0.008823
##MAXX=3846
##MINX=550
##MAXY=0.143
##MINY=0
##NPOINTS=825
##XYDATA=(X++(Y..Y))
550.0 617 532 442 394 330 258 195 144 95 64
590.0 45 27 14 3 6 16 27 43 73 118
630.0 167 202 204 171 124 86 64 45 31 32
670.0 40 40 48 54 54 62 73 81 92 99
710.0 108 119 137 159 188 229 280 337 381 415
750.0 425 407 365 318 282 266 279 319 386 494
790.0 668 918 1235 1547 1756 1788 1644 1424 1246 1185
830.0 1259 1454 1746 2088 2405 2597 2583 2349 1973 1565
870.0 1205 946 787 698 663 681 747 872 1081 1432
910.0 2000 2794 3653 4191 4072 3346 2422 1670 1197 929
950.0 779 708 684 691 729 802 912 1073 1310 1667
990.0 2190 2879 3606 4098 4175 3941 3725 3813 4306 5194
1030.0 6371 7618 8674 9382 9782 9988 10000 9762 9282 8688
1070.0 8088 7401 6504 5455 4470 3739 3308 3118 3091 3170
1110.0 3301 3421 3456 3366 3161 2887 2601 2343 2117 1934
1150.0 1799 1710 1670 1679 1743 1862 2034 2238 2418 2515
1190.0 2489 2334 2085 1794 1508 1264 1076 940 852 791
1230.0 745 718 709 711 734 780 845 924 1008 1081
1270.0 1164 1301 1536 1885 2280 2611 2801 2886 2982 3139
1310.0 3261 3210 2943 2550 2161 1828 1553 1336 1177 1089
1350.0 1061 1095 1191 1358 1599 1902 2216 2453 2562 2553
1390.0 2495 2442 2366 2225 2033 1855 1716 1577 1415 1266
1430.0 1163 1111 1110 1163 1265 1380 1446 1428 1347 1238
1470.0 1139 1050 971 900 842 788 741 696 652 615
1510.0 580 550 529 512 497 487 481 476 469 463
1550.0 456 450 440 429 418 408 401 397 395 401
1590.0 412 434 466 511 575 661 775 924 1123 1394
1630.0 1774 2294 2923 3506 3860 3925 3873 3978 4393 5081
1670.0 5857 6381 6314 5581 4403 3249 2352 1722 1289 980
1710.0 753 588 467 377 311 264 229 201 182 166
1750.0 152 142 136 131 128 127 128 126 122 117
1790.0 113 108 102 97 92 86 78 71 67 64
1830.0 62 61 61 65 68 68 70 71 71 70
1870.0 68 67 66 66 69 71 73 79 81 85
1910.0 90 93 95 98 100 99 100 101 103 100
1950.0 96 90 80 69 59 51 45 41 40 38
1990.0 35 32 29 26 24 23 20 17 15 15
2030.0 14 14 15 14 13 12 11 8 7 7
2070.0 6 6 7 8 7 9 10 12 14 15
2110.0 17 20 22 22 23 24 22 19 21 20
2150.0 18 16 12 9 7 5 5 4 4 3
2190.0 6 7 6 4 5 6 7 7 6 7
2230.0 7 6 5 3 3 1 0 1 0 0
2270.0 1 2 1 0 1 3 3 4 6 8
2310.0 9 8 6 6 6 6 4 1 2 2
2350.0 2 4 6 6 7 7 6 4 4 5
2390.0 3 2 3 3 2 2 3 2 3 2
2430.0 3 3 2 3 4 7 6 4 3 3
2470.0 4 7 9 9 10 11 10 11 11 10
2510.0 9 8 9 11 12 13 12 10 11 12
2550.0 10 10 13 13 16 18 15 14 15 15
2590.0 14 15 16 16 17 18 18 17 16 17
2630.0 17 15 16 18 18 17 18 18 18 16
2670.0 17 18 18 20 21 20 20 22 24 24
2710.0 26 25 25 27 29 31 35 38 40 43
2750.0 46 53 59 64 71 82 90 97 108 122
2790.0 137 155 176 197 217 236 256 276 298 325
2830.0 352 381 412 456 521 608 729 880 1010 1052
2870.0 1006 918 851 820 818 832 862 903 959 1024
2910.0 1100 1192 1299 1415 1527 1618 1662 1650 1606 1570
2950.0 1583 1671 1830 1956 1916 1677 1345 1072 893 789
2990.0 736 706 692 685 675 663 654 644 632 615
3030.0 583 542 498 457 421 391 367 346 328 313
3070.0 299 286 274 257 240 225 210 193 178 168
3110.0 152 138 125 116 109 98 86 77 68 60
3150.0 56 52 46 41 39 35 29 29 28 27
3190.0 27 25 21 18 20 17 15 13 13 15
3230.0 13 13 15 15 17 18 16 19 23 26
3270.0 29 27 28 34 38 36 37 40 40 41
3310.0 42 47 49 42 39 37 37 32 31 34
3350.0 32 31 30 26 22 22 20 14 9 10
3390.0 10 9 9 6 7 9 8 6 7 7
3430.0 5 5 6 5 5 6 6 7 6 6
3470.0 10 10 6 4 3 5 5 3 3 6
3510.0 9 9 7 5 4 7 10 10 10 8
3550.0 6 11 11 9 10 12 12 9 9 9
3590.0 8 9 4 6 12 14 12 9 10 12
3630.0 11 10 14 15 18 25 30 41 55 65
3670.0 70 67 61 52 41 32 23 13 10 13
3710.0 11 10 10 6 3 8 11 9 8 9
3750.0 11 6 7 9 6 8 7 6 7 7
3790.0 10 12 13 12 12 14 15 12 15 15
3830.0 13 12 13 13 14
##END=
