##TITLE=Propyl pentanoate
##JCAMP-DX=4.24
##DATA TYPE=INFRARED SPECTRUM
##ORIGIN=NIST Mass Spectrometry Data Center
##OWNER=NIST Standard Reference Data Program
Collection (C) 2018 copyright by the U.S. Secretary of Commerce
on behalf of the United States of America. All rights reserved.
##CAS REGISTRY NO=141-06-0
##MOLFORM=C 8 H 16 O 2
##$NIST SOURCE=MSDC-IR
##SPECTROMETER/DATA SYSTEM=HP-GC/MS/IRD
##STATE=gas
##XUNITS=1/CM
##YUNITS=ABSORBANCE
##XFACTOR=1.0
##YFACTOR=0.000003800
##DELTAX=4.0
##FIRSTX=550.0
##LASTX=3846.0
##FIRSTY=0.000057
##MAXX=3846
##MINX=550
##MAXY=0.038
##MINY=0
##NPOINTS=825
##XYDATA=(X++(Y..Y))
550.0 15 7 0 15 36 32 34 39 45 60
590.0 79 95 100 102 96 101 108 108 115 102
630.0 106 122 120 121 115 100 101 104 90 81
670.0 85 79 72 81 79 86 112 119 107 107
710.0 115 121 135 150 157 168 190 223 249 276
750.0 323 358 371 371 350 303 248 206 176 156
790.0 156 156 147 154 156 155 159 165 174 193
830.0 205 207 216 229 236 240 249 254 259 260
870.0 272 286 303 335 360 385 417 443 470 494
910.0 498 514 537 550 571 615 671 737 825 925
950.0 1026 1126 1211 1277 1322 1339 1318 1283 1246 1211
990.0 1191 1177 1165 1162 1146 1088 985 867 774 747
1030.0 788 873 964 1056 1180 1345 1544 1728 1872 1958
1070.0 2008 2073 2205 2415 2657 2885 3066 3179 3216 3175
1110.0 3050 2840 2588 2364 2243 2243 2360 2615 3024 3608
1150.0 4406 5441 6656 7902 8938 9508 9461 8837 7842 6747
1190.0 5752 4947 4343 3910 3646 3533 3537 3641 3838 4096
1230.0 4404 4709 4933 5015 4932 4702 4390 4048 3711 3385
1270.0 3066 2766 2506 2294 2133 2014 1923 1864 1843 1857
1310.0 1872 1870 1847 1812 1804 1827 1857 1886 1891 1882
1350.0 1869 1823 1731 1611 1484 1384 1352 1365 1378 1386
1390.0 1347 1235 1102 970 847 770 748 771 823 888
1430.0 958 1029 1095 1169 1261 1376 1495 1587 1624 1581
1470.0 1468 1305 1117 932 766 626 512 428 363 318
1510.0 286 255 231 210 197 191 178 167 158 148
1550.0 141 139 140 133 128 130 127 127 126 121
1590.0 120 122 122 121 123 124 123 123 123 126
1630.0 128 131 142 148 147 153 167 178 188 205
1670.0 223 238 264 295 338 397 469 560 670 795
1710.0 955 1155 1415 1768 2279 3042 4150 5601 7235 8741
1750.0 9742 10000 9449 8117 6320 4561 3162 2210 1596 1206
1790.0 936 740 598 488 410 349 302 265 237 209
1830.0 186 169 156 146 137 130 123 115 109 109
1870.0 106 99 95 90 82 80 82 82 79 79
1910.0 79 77 74 76 77 78 77 76 76 75
1950.0 73 70 66 64 63 65 68 66 66 71
1990.0 74 75 73 75 76 73 77 79 76 71
2030.0 74 76 74 73 73 72 73 71 70 71
2070.0 67 63 60 63 64 59 55 54 55 50
2110.0 45 44 39 34 37 34 33 38 35 31
2150.0 29 27 25 26 29 26 23 26 28 30
2190.0 27 24 30 32 30 28 25 24 26 28
2230.0 22 18 20 22 23 23 22 25 29 27
2270.0 26 28 28 27 31 33 26 24 25 26
2310.0 27 27 28 28 23 20 29 37 34 31
2350.0 28 26 26 23 21 20 19 19 21 24
2390.0 23 23 23 23 28 29 23 22 27 28
2430.0 24 21 23 24 17 10 7 6 10 8
2470.0 5 8 8 7 10 10 6 6 9 8
2510.0 8 11 9 6 7 7 7 14 12 11
2550.0 17 17 10 9 6 10 16 19 20 23
2590.0 20 17 24 25 23 28 30 34 36 34
2630.0 33 33 33 31 36 42 45 45 46 50
2670.0 52 63 64 66 76 80 79 79 79 72
2710.0 74 81 82 90 100 112 122 130 143 157
2750.0 168 173 172 161 163 169 170 174 185 191
2790.0 200 212 227 245 260 282 309 334 369 404
2830.0 445 506 573 653 754 893 1069 1281 1553 1866
2870.0 2179 2482 2778 3016 3159 3195 3112 2979 2879 2861
2910.0 2946 3134 3422 3831 4344 4895 5449 5966 6352 6588
2950.0 6726 6853 7095 7499 7931 8141 7999 7415 6431 5291
2990.0 4140 3130 2370 1838 1456 1181 983 841 734 651
3030.0 578 520 471 427 388 352 326 305 283 264
3070.0 251 239 229 221 213 199 190 187 185 181
3110.0 168 154 142 129 124 124 114 108 111 107
3150.0 102 102 97 91 89 93 94 85 80 83
3190.0 79 79 75 60 57 54 54 47 43 35
3230.0 33 33 30 29 26 29 31 32 29 27
3270.0 32 31 25 26 23 15 11 17 25 14
3310.0 13 15 18 20 14 14 19 13 11 10
3350.0 7 6 5 5 13 27 19 14 23 24
3390.0 24 15 10 26 29 23 15 21 36 39
3430.0 34 33 38 44 45 47 50 52 58 72
3470.0 79 90 105 116 125 133 129 103 81 78
3510.0 67 53 44 37 41 35 20 11 17 21
3550.0 20 21 21 24 25 19 11 17 20 6
3590.0 0 5 11 16 16 12 15 18 17 15
3630.0 12 10 8 10 10 13 24 25 21 20
3670.0 18 20 22 14 12 22 21 19 22 23
3710.0 20 20 23 22 22 18 15 25 27 14
3750.0 14 24 27 13 7 11 10 27 32 15
3790.0 20 32 28 27 27 22 21 27 29 33
3830.0 33 39 49 29 23
##END=
