##TITLE=Rhodanine
##JCAMP-DX=4.24
##DATA TYPE=INFRARED SPECTRUM
##ORIGIN=NIST Mass Spectrometry Data Center
##OWNER=NIST Standard Reference Data Program
Collection (C) 2018 copyright by the U.S. Secretary of Commerce
on behalf of the United States of America. All rights reserved.
##CAS REGISTRY NO=141-84-4
##MOLFORM=C 3 H 3 N O S 2
##$NIST SOURCE=MSDC-IR
##SPECTROMETER/DATA SYSTEM=HP-GC/MS/IRD
##STATE=gas
##XUNITS=1/CM
##YUNITS=ABSORBANCE
##XFACTOR=1.0
##YFACTOR=0.000003800
##DELTAX=4.0
##FIRSTX=550.0
##LASTX=3846.0
##FIRSTY=0.001417
##MAXX=3846
##MINX=550
##MAXY=0.038
##MINY=0
##NPOINTS=825
##XYDATA=(X++(Y..Y))
550.0 373 251 141 103 106 75 22 0 18 49
590.0 77 129 179 242 310 406 503 613 745 841
630.0 944 1093 1206 1219 1201 1162 1078 1006 967 930
670.0 858 763 665 559 483 409 309 213 151 100
710.0 50 43 48 52 47 39 44 54 70 76
750.0 69 80 105 128 143 147 150 161 164 142
790.0 104 81 69 56 44 25 4 23 37 42
830.0 66 87 145 232 345 452 509 527 496 429
870.0 319 205 136 116 122 112 86 66 54 45
910.0 34 19 12 19 18 18 23 17 16 14
950.0 18 30 31 41 50 41 42 65 79 107
990.0 137 142 158 169 144 119 112 114 108 103
1030.0 116 150 204 264 350 482 632 783 910 1005
1070.0 1050 1068 1077 1072 1066 1053 1016 967 948 899
1110.0 748 603 544 523 572 724 975 1360 1955 2683
1150.0 3358 3872 4217 4343 4266 4003 3636 3368 3171 2994
1190.0 2891 2941 3251 3855 4519 4892 5001 4862 4361 3329
1230.0 2123 1345 954 754 663 632 607 592 574 557
1270.0 550 542 543 567 606 655 702 728 732 717
1310.0 668 584 481 380 301 246 209 190 182 185
1350.0 197 216 251 319 443 654 1014 1617 2577 4022
1390.0 5937 7851 9086 9648 9599 8639 6750 4408 2641 1576
1430.0 863 494 326 235 180 141 114 99 80 66
1470.0 61 55 53 50 50 52 54 55 55 65
1510.0 75 81 89 95 98 99 108 118 123 123
1550.0 116 109 111 118 121 121 119 113 104 88
1590.0 72 58 44 38 36 36 43 53 70 85
1630.0 96 111 123 132 143 151 162 171 174 181
1670.0 189 194 204 236 280 319 368 431 498 545
1710.0 575 606 646 695 755 835 943 1089 1310 1653
1750.0 2189 2983 4080 5497 7086 8547 9568 10000 9776 8792
1790.0 7169 5325 3694 2393 1464 897 579 395 287 223
1830.0 172 134 111 90 69 52 47 52 54 50
1870.0 45 51 57 57 61 64 60 55 48 45
1910.0 44 42 42 43 47 49 54 60 62 69
1950.0 74 79 88 90 90 90 87 86 90 92
1990.0 90 86 74 62 44 31 20 15 16 16
2030.0 17 17 21 21 18 21 14 4 8 20
2070.0 26 26 24 17 10 2 2 4 4 5
2110.0 6 8 6 7 9 6 6 15 17 14
2150.0 14 18 21 19 17 22 20 15 11 9
2190.0 14 18 15 9 9 12 11 16 22 18
2230.0 21 31 32 30 32 39 41 40 46 44
2270.0 38 41 51 54 52 47 47 58 67 71
2310.0 72 74 78 77 73 68 66 66 65 61
2350.0 57 59 64 70 71 69 63 51 40 37
2390.0 34 31 30 31 31 27 28 32 33 30
2430.0 31 31 23 25 33 33 34 37 37 33
2470.0 36 43 36 30 34 38 32 29 32 26
2510.0 22 23 22 25 26 22 19 21 21 25
2550.0 30 25 34 40 36 32 29 19 21 22
2590.0 10 7 14 16 20 21 23 27 26 27
2630.0 25 26 30 33 35 29 24 26 29 32
2670.0 32 28 23 24 25 22 13 15 25 28
2710.0 22 16 13 10 6 3 7 14 16 12
2750.0 7 10 6 0 15 24 17 17 24 27
2790.0 19 18 21 26 27 25 30 31 24 27
2830.0 25 18 18 17 22 17 15 13 13 25
2870.0 25 23 22 24 20 15 20 11 4 5
2910.0 11 13 12 22 27 26 40 53 75 113
2950.0 121 114 116 104 74 36 17 28 29 17
2990.0 20 22 17 20 19 14 6 0 2 7
3030.0 9 6 17 28 20 15 16 16 10 7
3070.0 10 12 17 19 22 25 26 18 14 22
3110.0 23 16 12 6 4 13 15 10 13 18
3150.0 8 0 10 22 26 31 36 35 35 31
3190.0 13 12 16 17 29 31 25 16 10 13
3230.0 17 17 3 11 23 18 14 12 12 15
3270.0 8 7 15 9 8 15 16 18 17 5
3310.0 0 11 23 19 16 21 20 26 24 11
3350.0 11 16 13 17 26 28 36 40 40 54
3390.0 73 110 169 231 337 511 721 945 1189 1408
3430.0 1447 1320 1279 1168 851 536 322 189 120 86
3470.0 72 68 75 83 83 85 90 92 81 86
3510.0 98 102 116 123 122 120 132 155 163 154
3550.0 148 133 94 63 69 71 54 48 52 55
3590.0 60 52 43 40 29 39 54 39 31 38
3630.0 34 32 39 48 41 22 26 23 27 36
3670.0 41 45 40 49 63 57 38 26 31 35
3710.0 41 53 50 47 43 35 38 47 52 44
3750.0 39 44 46 45 36 23 31 52 54 48
3790.0 52 53 44 40 42 36 31 47 51 45
3830.0 47 57 53 39 39
##END=
