##TITLE=2,4-Difluorophenyl isothiocyanate
##JCAMP-DX=4.24
##DATA TYPE=INFRARED SPECTRUM
##ORIGIN=EPA-IR VAPOR PHASE LIBRARY
##OWNER=SRD/NIST
Collection (C) 2018 copyright by the U.S. Secretary of Commerce
on behalf of the United States of America. All rights reserved.
##CAS REGISTRY NO=141106-52-7
##MOLFORM=C 7 H 3 F 2 N S
##$NIST SOURCE=MSDC-IR
##STATE=gas
##XUNITS=1/CM
##YUNITS=ABSORBANCE
##XFACTOR=1.
##YFACTOR=0.001
##DELTAX=1.92898
##FIRSTX=549.8
##LASTX=4000.7
##FIRSTY=19.087
##MAXX=4000.7
##MINX=549.759
##MAXY=0.951327
##MINY=0
##NPOINTS=1790
##XYDATA=(X++(Y..Y))
549.759 19.087 19.197 19.027 19.177 20.097 21.957 26.077 31.257 35.347 37.447
569.049 38.647 40.317 42.317 42.747 40.687 38.257 36.877 36.597 37.227 37.517
588.339 37.287 37.977 39.627 41.457 42.797 43.857 44.527 45.127 46.237 45.937
607.628 41.677 36.667 33.277 29.627 25.647 21.867 18.807 16.527 14.677 13.307
626.918 12.357 11.627 11.127 10.977 11.027 11.337 12.117 12.947 14.027 15.207
646.208 16.437 18.007 19.307 20.217 20.837 21.097 20.837 20.067 18.657 16.897
665.498 15.107 13.557 11.957 10.257 8.867 7.597 6.837 6.257 5.607 5.277
684.787 5.097 4.947 4.807 4.737 4.697 4.787 4.797 4.357 4.057 3.967
704.077 3.737 3.637 3.597 3.567 3.567 3.787 4.157 4.417 4.827 5.437
723.367 6.167 7.057 8.407 9.837 11.037 11.707 11.577 11.207 11.137 11.137
742.657 10.507 9.147 7.417 6.147 5.387 4.587 4.007 3.777 3.657 3.527
761.947 3.647 3.757 3.617 3.587 3.597 3.477 3.247 3.127 3.207 3.447
781.236 3.697 4.137 5.227 6.567 8.537 11.267 14.507 18.347 22.617 26.907
800.526 31.067 35.537 40.347 45.187 48.397 47.557 42.957 38.297 35.047 31.747
819.816 27.807 23.727 19.647 16.237 13.767 12.397 12.507 13.817 16.807 21.597
839.106 27.727 35.197 43.477 51.497 58.097 63.777 71.737 86.637 100.867 90.777
858.395 70.717 62.507 57.727 51.407 43.317 34.507 26.437 19.687 14.447 10.737
877.685 8.327 7.097 6.617 6.327 6.297 6.637 7.127 7.527 7.857 8.237
896.975 8.527 8.647 8.687 8.617 8.527 8.427 8.387 8.417 8.647 9.027
916.265 9.637 10.697 11.637 12.667 14.087 15.437 16.637 17.587 18.157 18.607
935.555 18.647 18.007 17.127 16.307 15.547 14.897 14.697 14.937 15.777 17.757
954.844 21.007 25.887 33.427 44.457 59.067 77.247 97.517 115.357 124.397 124.597
974.134 120.847 114.617 102.147 80.347 56.197 37.757 26.337 19.457 14.987 12.007
993.424 9.857 8.357 7.287 6.567 5.927 5.187 4.597 4.107 3.857 3.867
1012.714 3.637 3.197 2.917 2.667 2.257 1.837 1.977 1.927 1.6185 1.6578
1032.003 1.642 1.797 2.037 2.027 1.937 2.387 2.837 3.187 3.427 3.867
1051.293 4.477 5.027 5.677 6.207 6.217 5.867 5.627 5.347 4.847 4.447
1070.583 4.447 4.737 5.497 6.457 7.787 9.277 11.637 15.247 20.177 27.217
1089.873 37.927 53.087 70.347 83.757 89.107 88.957 88.927 89.367 83.007 67.537
1109.163 49.477 35.497 26.177 19.647 15.657 13.227 11.527 10.547 10.077 10.927
1128.452 12.757 15.767 21.367 30.797 46.727 70.747 100.757 129.227 147.167 153.327
1147.742 153.077 148.587 135.227 108.237 74.087 45.437 27.517 17.837 12.897 10.197
1167.032 8.107 6.737 5.927 5.267 5.037 5.157 5.307 5.277 5.597 5.637
1186.322 5.487 5.807 6.147 6.547 7.097 7.967 9.567 11.347 13.757 17.107
1205.611 20.887 25.357 30.597 35.997 40.297 43.807 45.797 46.057 45.507 43.927
1224.901 40.687 35.867 30.767 26.177 22.667 20.407 18.907 18.607 19.787 22.377
1244.191 26.517 32.907 42.357 54.817 69.187 83.447 95.607 105.027 111.767 114.977
1263.481 113.137 105.487 94.217 82.017 70.047 59.557 50.997 44.287 39.757 37.137
1282.771 35.977 35.947 36.687 38.117 40.237 42.927 46.077 50.007 54.767 59.957
1302.060 65.247 69.777 72.627 73.287 71.677 68.367 63.517 56.977 48.747 39.557
1321.350 31.027 24.177 19.027 15.157 12.237 10.057 8.387 7.107 6.237 5.577
1340.640 5.017 4.677 4.347 4.027 3.857 3.697 3.487 3.267 3.197 3.187
1359.930 3.197 3.187 3.107 3.157 3.327 3.537 3.837 4.237 4.717 5.397
1379.219 6.227 7.047 7.797 8.267 8.427 8.467 8.447 8.257 7.907 7.607
1398.509 7.517 7.647 7.997 8.607 9.347 10.157 11.107 12.167 13.347 14.947
1417.799 17.037 19.567 22.717 26.787 32.037 38.427 45.587 52.387 57.317 59.367
1437.089 58.847 57.297 55.377 51.707 45.357 38.427 34.257 33.927 36.297 39.367
1456.378 41.117 41.167 40.507 39.477 37.327 33.197 28.027 23.727 21.327 20.417
1475.668 20.537 21.487 23.297 26.287 31.047 38.337 49.257 65.137 87.087 115.707
1494.958 150.937 191.797 235.937 281.597 326.447 365.017 389.127 390.577 368.837 332.567
1514.248 289.757 239.807 181.067 123.327 79.077 53.377 40.167 33.627 30.497 29.287
1533.538 29.007 28.907 28.797 28.417 27.837 27.027 25.797 24.137 22.427 21.107
1552.827 20.117 19.327 18.787 18.547 18.627 18.827 19.307 20.047 21.057 22.307
1572.117 23.807 25.647 27.867 30.387 33.347 36.757 40.357 44.137 47.927 51.737
1591.407 55.387 58.837 61.907 64.397 66.257 67.597 68.327 67.957 66.437 63.977
1610.697 60.957 57.497 53.617 49.717 46.007 42.307 38.687 35.247 31.877 28.577
1629.986 25.597 22.767 20.057 17.807 15.877 14.277 13.007 12.127 11.487 10.947
1649.276 10.557 10.247 10.027 9.797 9.467 9.057 8.617 8.127 7.637 7.207
1668.566 6.817 6.347 5.817 5.387 5.077 4.857 4.637 4.427 4.297 4.287
1687.856 4.367 4.567 4.807 5.137 5.607 6.187 6.787 7.267 7.657 7.767
1707.146 7.727 7.627 7.487 7.147 6.527 5.947 5.517 5.187 4.917 4.897
1726.435 4.947 4.927 5.017 5.087 5.107 5.167 5.297 5.277 5.097 4.947
1745.725 4.847 4.737 4.507 4.337 4.227 4.157 4.167 4.187 4.157 4.177
1765.015 4.217 4.187 4.177 4.297 4.417 4.467 4.547 4.667 4.827 4.947
1784.305 5.097 5.237 5.397 5.567 5.687 5.837 5.897 5.967 6.097 6.127
1803.594 6.137 6.257 6.337 6.447 6.607 6.777 7.037 7.307 7.567 7.837
1822.884 8.197 8.547 8.887 9.297 9.697 10.107 10.427 10.707 10.927 11.177
1842.174 11.487 11.737 11.997 12.317 12.807 13.387 14.107 14.857 15.587 16.297
1861.464 16.877 17.297 17.587 17.857 18.067 18.217 18.227 18.137 18.067 17.987
1880.754 17.947 17.947 17.937 18.017 18.217 18.487 18.937 19.547 20.307 21.277
1900.043 22.457 23.747 25.097 26.517 28.067 29.737 31.387 33.077 34.927 36.937
1919.333 38.997 41.137 43.387 45.727 48.237 50.827 53.547 56.387 59.457 62.887
1938.623 66.487 70.217 74.157 78.297 82.647 87.187 92.007 97.107 102.377 108.017
1957.913 114.157 120.697 127.827 135.717 144.247 153.447 163.437 174.197 185.647 197.717
1977.202 210.367 223.547 237.177 251.147 265.527 280.267 295.227 310.297 325.797 341.577
1996.492 357.587 374.057 390.657 407.457 424.937 443.407 463.357 485.687 510.847 539.727
2015.782 573.287 612.027 655.637 703.117 753.387 803.777 850.557 891.897 924.897 944.957
2035.072 951.327 946.437 931.347 907.307 874.557 832.887 783.097 727.937 670.457 611.947
2054.362 554.737 500.837 451.857 409.247 373.317 343.937 320.727 303.027 290.437 282.437
2073.651 278.667 278.977 283.357 291.757 303.817 319.107 337.277 357.747 379.737 402.167
2092.941 423.787 443.237 458.817 469.407 473.837 470.947 460.507 443.407 420.727 393.867
2112.231 364.507 334.107 303.747 274.547 247.617 223.497 202.247 183.857 168.387 155.847
2131.521 145.697 137.597 131.227 126.117 122.197 119.217 116.917 115.157 113.827 112.807
2150.810 111.797 110.707 109.427 107.887 105.837 103.297 100.197 96.497 92.427 87.917
2170.100 83.107 78.267 73.357 68.677 64.517 60.787 57.507 54.647 52.267 50.227
2189.390 48.347 46.547 44.767 42.917 40.937 39.047 37.137 35.057 33.247 31.637
2208.680 30.097 28.677 27.307 26.147 25.187 24.367 23.747 23.227 22.837 22.647
2227.970 22.557 22.487 22.367 22.197 21.997 21.707 21.227 20.617 19.967 19.037
2247.259 17.957 16.827 15.557 14.237 12.967 11.727 10.677 9.797 9.037 8.487
2266.549 8.027 7.607 7.257 7.017 6.847 6.667 6.497 6.297 6.127 5.987
2285.839 5.817 5.637 5.437 5.227 5.007 4.897 4.767 4.637 4.637 4.527
2305.129 4.427 4.507 4.617 4.687 4.747 4.757 4.767 4.797 4.777 4.687
2324.418 4.597 4.547 4.507 4.487 4.517 4.617 4.677 4.807 4.967 5.137
2343.708 5.387 5.697 5.937 6.107 6.297 6.417 6.567 6.647 6.677 6.707
2362.998 6.607 6.447 6.357 6.237 6.047 5.917 5.847 5.687 5.537 5.547
2382.288 5.537 5.527 5.597 5.747 5.947 6.147 6.447 6.797 7.107 7.447
2401.578 7.737 7.897 8.027 8.047 7.987 7.877 7.697 7.467 7.267 7.057
2420.867 6.837 6.777 6.697 6.557 6.537 6.497 6.417 6.257 6.177 6.177
2440.157 6.077 5.957 5.867 5.847 5.837 5.787 5.727 5.677 5.617 5.667
2459.447 5.677 5.657 5.677 5.687 5.847 6.037 6.197 6.407 6.567 6.677
2478.737 6.727 6.767 6.797 6.777 6.817 6.807 6.777 6.787 6.807 6.817
2498.026 6.927 6.997 7.167 7.357 7.397 7.557 7.807 8.067 8.347 8.677
2517.316 9.077 9.507 9.897 10.307 10.787 11.227 11.557 11.837 12.027 12.087
2536.606 12.167 12.207 12.157 11.997 11.737 11.427 11.017 10.597 10.147 9.647
2555.896 9.157 8.767 8.407 7.967 7.637 7.337 7.057 6.807 6.487 6.257
2575.186 5.937 5.577 5.347 5.137 4.877 4.627 4.497 4.287 4.047 3.897
2594.475 3.817 3.827 3.847 3.817 3.767 3.737 3.727 3.697 3.657 3.607
2613.765 3.487 3.497 3.377 3.227 3.257 3.107 3.077 3.187 3.177 3.157
2633.055 3.257 3.357 3.447 3.567 3.687 3.897 4.137 4.357 4.527 4.677
2652.345 4.777 5.017 5.287 5.457 5.607 5.767 5.997 6.197 6.477 6.797
2671.634 7.167 7.557 8.017 8.637 9.227 9.827 10.677 11.597 12.387 13.287
2690.924 14.407 15.417 16.497 17.627 18.597 19.447 20.047 20.447 20.527 20.127
2710.214 19.337 18.287 16.977 15.457 13.877 12.397 10.967 9.677 8.537 7.547
2729.504 6.777 6.137 5.487 5.067 4.787 4.527 4.327 4.107 3.967 3.897
2748.794 3.837 3.757 3.747 3.677 3.607 3.557 3.497 3.497 3.347 3.337
2768.083 3.327 3.137 2.947 2.837 2.697 2.587 2.487 2.287 2.147 2.027
2787.373 1.927 1.867 1.757 1.6682 1.6828 1.7108 1.6684 1.6854 1.797 1.777
2806.663 1.6964 1.817 1.897 1.837 1.897 1.927 1.837 1.857 1.927 1.847
2825.953 1.847 1.957 1.897 1.797 1.777 1.777 1.797 1.987 2.137 2.027
2845.242 1.957 2.077 2.107 2.097 2.117 2.167 2.227 2.207 2.217 2.097
2864.532 1.977 2.017 2.017 1.887 1.837 1.917 1.957 1.877 1.867 1.797
2883.822 1.867 2.017 1.977 1.937 1.927 1.967 1.937 1.917 2.057 2.097
2903.112 2.107 2.277 2.387 2.277 2.277 2.427 2.447 2.517 2.617 2.767
2922.401 2.767 2.707 2.717 2.727 2.937 3.067 3.077 3.157 3.247 3.297
2941.691 3.487 3.767 3.857 3.887 4.037 4.147 4.337 4.607 4.857 5.077
2960.981 5.067 5.007 5.017 5.127 5.027 4.857 4.717 4.477 4.357 4.267
2980.271 4.057 3.817 3.557 3.237 3.117 3.157 3.047 2.837 2.647 2.507
2999.561 2.527 2.447 2.367 2.397 2.327 2.267 2.247 2.287 2.407 2.427
3018.850 2.537 2.637 2.637 2.647 2.757 2.977 3.007 3.067 3.077 2.957
3038.140 2.927 2.917 2.907 2.767 2.707 2.737 2.707 2.737 2.747 2.787
3057.430 2.987 3.207 3.277 3.267 3.287 3.317 3.257 3.157 3.077 3.117
3076.720 3.217 3.327 3.467 3.667 3.867 4.037 4.057 3.877 3.707 3.707
3096.009 3.587 3.307 3.037 2.667 2.277 2.137 2.027 1.847 1.6782 1.3933
3115.299 1.418 1.4066 1.1331 1.0452 0.8771 0.725 0.77917 0.83062 0.80549 0.6824
3134.589 0.658 0.7082 0.774 0.636 0.49 0.63 0.6458 0.523 0.617 0.593
3153.879 0.378 0.234 0.157 0.28 0.383 0.403 0.425 0.25 0.128 0.161
3173.169 0.17 0.267 0.276 0.339 0.583 0.503 0.363 0.34 0.276 0.308
3192.458 0.354 0.322 0.272 0.157 0.122 0.169 0.185 0.265 0.294 0.268
3211.748 0.295 0.255 0.21 0.166 0.25 0.421 0.401 0.338 0.332 0.287
3231.038 0.309 0.432 0.418 0.414 0.255 0.338 0.375 0 0.074 0.378
3250.328 0.44 0.278 0.174 0.239 0.349 0.365 0.282 0.211 0.204 0.144
3269.617 0.133 0.187 0.1 0.016 0.035 0.066 0.201 0.297 0.193 0.21
3288.907 0.299 0.222 0.126 0.139 0.243 0.296 0.236 0.23 0.347 0.314
3308.197 0.11 0.225 0.252 0.204 0.19 0.208 0.259 0.228 0.186 0.239
3327.487 0.288 0.289 0.284 0.209 0.419 0.56 0.473 0.384 0.304 0.205
3346.777 0.304 0.35 0.25 0.3 0.371 0.331 0.321 0.406 0.514 0.518
3366.066 0.456 0.427 0.393 0.568 0.583 0.391 0.345 0.339 0.29 0.368
3385.356 0.34 0.231 0.296 0.382 0.292 0.18 0.158 0.126 0.279 0.376
3404.646 0.22 0.267 0.352 0.327 0.493 0.372 0.101 0.176 0.216 0.305
3423.936 0.439 0.368 0.346 0.403 0.43 0.324 0.237 0.247 0.331 0.408
3443.225 0.264 0.247 0.264 0.114 0.266 0.441 0.421 0.194 0.175 0.485
3462.515 0.444 0.342 0.341 0.235 0.239 0.296 0.216 0.284 0.391 0.411
3481.805 0.415 0.337 0.295 0.28 0.312 0.316 0.473 0.532 0.418 0.461
3501.095 0.488 0.476 0.521 0.519 0.328 0.255 0.307 0.293 0.327 0.401
3520.385 0.309 0.291 0.462 0.402 0.309 0.416 0.535 0.463 0.473 0.596
3539.674 0.431 0.388 0.443 0.436 0.513 0.429 0.487 0.568 0.5 0.475
3558.964 0.475 0.4 0.334 0.406 0.508 0.597 0.592 0.481 0.446 0.634
3578.254 0.624 0.546 0.559 0.406 0.335 0.465 0.462 0.449 0.501 0.579
3597.544 0.6748 0.685 0.661 0.585 0.576 0.565 0.493 0.523 0.561 0.534
3616.833 0.527 0.446 0.419 0.486 0.6744 0.72955 0.634 0.551 0.381 0.343
3636.123 0.393 0.516 0.624 0.625 0.739027 0.73562 0.595 0.537 0.563 0.593
3655.413 0.6903 0.637 0.528 0.569 0.624 0.6619 0.594 0.58 0.537 0.499
3674.703 0.496 0.6429 0.6532 0.6506 0.6938 0.571 0.486 0.488 0.561 0.576
3693.993 0.583 0.571 0.561 0.59 0.553 0.615 0.6497 0.566 0.491 0.565
3713.282 0.8461 0.80331 0.68 0.6527 0.594 0.52 0.495 0.606 0.6929 0.80669
3732.572 0.76065 0.577 0.6562 0.77635 0.6375 0.536 0.73437 0.9996 0.9507 0.9235
3751.862 0.8452 0.619 0.77538 0.81069 0.76382 0.75747 0.6963 0.76651 0.8228 0.80438
3771.152 0.78298 0.746535 0.741782 0.79205 0.82565 0.79533 0.742907 0.8906 0.8694 0.83383
3790.441 0.8613 0.8888 0.957 0.9048 0.8643 0.9109 0.9325 0.9916 0.9801 0.908
3809.731 0.9903 1.0721 0.9297 0.736411 0.73029 0.8762 0.9785 0.9373 0.9051 1.0165
3829.021 1.0266 0.9387 0.893 0.8423 0.952 1.1343 1.0843 0.9788 0.9821 0.9565
3848.311 0.8796 0.8819 0.951 0.9476 1.1206 1.1932 1.1922 1.2749 1.3936 1.3328
3867.601 1.1456 1.2009 1.2203 1.2306 1.3858 1.4457 1.2906 1.1092 1.101 1.1029
3886.890 1.2812 1.3962 1.3759 1.5002 1.5157 1.473 1.4326 1.5618 1.6534 1.6293
3906.180 1.5592 1.6493 1.777 1.5676 1.423 1.5092 1.7057 1.7343 1.5945 1.6429
3925.470 1.827 1.847 1.757 1.877 1.897 1.927 2.037 2.067 1.967 1.927
3944.760 2.037 2.117 1.997 2.007 2.117 2.217 2.457 2.477 2.377 2.487
3964.049 2.497 2.527 2.607 2.597 2.607 2.567 2.467 2.647 2.777 2.757
3983.339 2.807 2.817 2.987 2.947 2.937 2.987 2.927 3.087 3.197 3.157
##END=
