##TITLE=Ethyl hydrogen suberate
##JCAMP-DX=4.24
##DATA TYPE=INFRARED SPECTRUM
##ORIGIN=EPA-IR VAPOR PHASE LIBRARY
##OWNER=SRD/NIST
Collection (C) 2018 copyright by the U.S. Secretary of Commerce
on behalf of the United States of America. All rights reserved.
##CAS REGISTRY NO=14113-01-0
##MOLFORM=C 10 H 18 O 4
##$NIST SOURCE=MSDC-IR
##STATE=gas
##XUNITS=1/CM
##YUNITS=ABSORBANCE
##XFACTOR=1.
##YFACTOR=0.001
##DELTAX=1.92934
##FIRSTX=549.9
##LASTX=3999.5
##FIRSTY=7.78
##MAXX=3999.53
##MINX=549.863
##MAXY=0.07512
##MINY=0
##NPOINTS=1789
##XYDATA=(X++(Y..Y))
549.863 7.78 8.11 8.29 8.52 8.8 8.94 8.99 8.74 8.71 8.8
569.156 8.78 8.79 8.77 8.78 8.88 9.01 9.1 9.31 9.46 9.63
588.450 9.8 9.93 10.13 10.29 10.38 10.49 10.62 10.62 10.59 10.56
607.743 10.48 10.49 10.48 10.31 10.17 10.07 9.94 9.76 9.62 9.53
627.037 9.35 9.15 8.92 8.66 8.43 8.15 7.75 7.39 7.06 6.64
646.330 6.39 6.15 5.81 5.56 5.31 5.1 4.95 4.85 4.73 4.58
665.624 4.49 4.41 4.33 4.2 4.11 4.02 4 4.04 4.03 4.04
684.917 4.07 4.02 3.92 3.92 3.95 3.94 3.94 3.92 3.9 3.92
704.210 3.96 4.06 4.1 4.13 4.21 4.23 4.28 4.34 4.37 4.44
723.504 4.47 4.48 4.52 4.53 4.5 4.47 4.43 4.36 4.23 4.08
742.797 3.94 3.82 3.69 3.53 3.41 3.27 3.16 3.17 3.15 3.09
762.091 3.04 3.02 3 2.95 2.89 2.9 2.92 2.89 2.89 2.92
781.384 2.91 2.86 2.81 2.78 2.78 2.76 2.7 2.66 2.64 2.64
800.678 2.5733 2.5451 2.61 2.5832 2.5374 2.5348 2.5209 2.4929 2.4907 2.551
819.971 2.5604 2.519 2.5182 2.542 2.6082 2.622 2.66 2.75 2.86 2.93
839.264 2.94 3.06 3.2 3.27 3.35 3.48 3.53 3.6 3.65 3.71
858.558 3.73 3.68 3.67 3.63 3.59 3.58 3.51 3.46 3.43 3.32
877.851 3.23 3.14 3.09 3.06 2.97 2.92 2.91 2.87 2.86 2.87
897.145 2.93 3.03 3.09 3.12 3.1 3.08 3.13 3.19 3.19 3.2
916.438 3.24 3.27 3.28 3.35 3.39 3.43 3.46 3.43 3.44 3.49
935.732 3.53 3.59 3.6 3.56 3.57 3.63 3.61 3.58 3.59 3.58
955.025 3.52 3.43 3.42 3.48 3.47 3.48 3.49 3.48 3.5 3.54
974.318 3.58 3.63 3.68 3.72 3.79 3.86 3.91 3.99 4.08 4.17
993.612 4.34 4.52 4.7 4.94 5.2 5.47 5.81 6.17 6.59 7.09
1012.905 7.66 8.28 8.99 9.76 10.6 11.6 12.63 13.6 14.57 15.43
1032.199 16.2 16.77 17.08 17.24 17.26 17.16 16.96 16.79 16.69 16.73
1051.492 16.79 16.88 17.08 17.35 17.74 18.2 18.71 19.26 19.81 20.36
1070.786 20.92 21.41 21.88 22.39 22.84 23.35 23.97 24.59 25.19 25.8
1090.079 26.54 27.33 28.17 29.14 30.13 31.28 32.48 33.75 35.13 36.55
1109.372 38.13 39.73 41.46 43.1 44.5 45.66 46.43 46.57 46.35 45.86
1128.666 44.99 44.14 43.31 42.72 42.45 42.3 42.56 42.89 43.46 44.46
1147.959 45.32 46.19 46.91 47.52 47.91 48.14 48.34 48.36 48.18 47.88
1167.253 47.51 47.08 46.7 46.24 45.77 45.27 44.72 44.36 43.66 42.68
1186.546 41.95 41.01 39.96 39.08 38.2 37.3 36.6 35.87 34.87 33.77
1205.840 32.98 32.5 31.78 31.02 30.63 30.31 29.93 29.4 28.92 28.64
1225.133 28.46 28.35 28.2 28.2 28.34 28.39 28.35 28.1 27.84 27.73
1244.426 27.47 27.1 26.68 26.03 25.24 24.4 23.43 22.54 21.72 20.74
1263.720 19.87 19.13 18.28 17.62 17.13 16.67 16.19 15.7 15.31 14.97
1283.013 14.71 14.51 14.4 14.28 14.2 14.17 14.09 14.06 14.05 14.03
1302.307 14.04 13.97 13.88 13.77 13.59 13.42 13.25 13.02 12.76 12.58
1321.600 12.43 12.32 12.25 12.16 12.17 12.26 12.43 12.69 12.97 13.29
1340.894 13.65 13.94 14.15 14.31 14.4 14.43 14.4 14.34 14.25 14.22
1360.187 14.34 14.65 15.26 16.07 16.96 17.74 18.3 18.51 18.23 17.63
1379.480 16.81 15.85 14.84 13.92 13.07 12.29 11.56 10.9 10.26 9.6
1398.774 9.02 8.56 8.17 7.78 7.45 7.24 7.13 7.08 7.07 7.11
1418.067 7.22 7.4 7.69 7.95 8.16 8.39 8.57 8.67 8.73 8.74
1437.361 8.73 8.73 8.69 8.7 8.75 8.84 9.01 9.22 9.44 9.61
1456.654 9.77 9.95 10.04 9.97 9.73 9.38 8.97 8.46 7.89 7.3
1475.948 6.7 6.13 5.63 5.17 4.78 4.42 4.1 3.85 3.63 3.41
1495.241 3.22 3.05 2.89 2.78 2.66 2.523 2.4537 2.4074 2.3341 2.2826
1514.534 2.2423 2.1885 2.139 2.0902 2.0527 2.0678 2.0708 2.0453 2.0159 1.9498
1533.828 1.9199 1.964 1.9661 1.8699 1.8769 1.8838 1.8365 1.8984 1.9126 1.8791
1553.121 1.8641 1.8689 1.813 1.7717 1.8383 1.8531 1.8282 1.7806 1.7505 1.7774
1572.415 1.7946 1.7681 1.7824 1.7924 1.7972 1.7967 1.7834 1.7951 1.832 1.7975
1591.708 1.7757 1.8088 1.7815 1.8004 1.8198 1.8234 1.8629 1.8568 1.8173 1.7932
1611.002 1.8018 1.7947 1.7726 1.8078 1.8571 1.8838 1.8685 1.8665 1.9038 1.9007
1630.295 1.9077 1.9339 1.902 1.9117 2.0071 2.04 2.0383 2.0303 2.0278 2.0573
1649.588 2.0693 2.0705 2.1358 2.2201 2.2421 2.2958 2.3473 2.3713 2.4098 2.467
1668.882 2.5306 2.5816 2.71 2.8 2.86 3 3.13 3.22 3.37 3.56
1688.175 3.72 3.91 4.1 4.34 4.63 4.92 5.23 5.62 6.09 6.58
1707.469 7.1 7.7 8.36 9.06 9.88 10.85 11.99 13.31 14.81 16.48
1726.762 18.43 20.73 23.41 26.49 30.17 34.25 38.65 43.7 49.03 54.54
1746.056 59.95 65.03 69.38 72.68 74.62 75.12 74.44 73.12 71.57 70.15
1765.349 69.08 68.34 68.01 67.88 67.63 67.05 65.73 63.49 60.28 56.35
1784.642 51.94 47.38 43.06 39.02 35.32 32.08 29.2 26.53 24.08 21.82
1803.936 19.68 17.66 15.8 14.09 12.54 11.15 9.94 8.87 7.92 7.14
1823.229 6.47 5.87 5.37 4.92 4.55 4.25 4 3.76 3.58 3.43
1842.523 3.25 3.07 2.96 2.85 2.77 2.73 2.64 2.5807 2.5261 2.4802
1861.816 2.4294 2.3555 2.3067 2.2833 2.2451 2.2252 2.2211 2.2121 2.1707 2.1231
1881.110 2.1159 2.1372 2.1388 2.0911 2.0657 2.0481 2.0689 2.047 1.9989 2.0131
1900.403 2.0108 2.0051 1.981 1.9475 1.9377 1.9349 1.9485 1.9155 1.8982 1.9083
1919.696 1.9088 1.8903 1.8651 1.8729 1.8692 1.8734 1.8697 1.8817 1.8954 1.8673
1938.990 1.8659 1.8628 1.854 1.8527 1.8357 1.83 1.8418 1.8495 1.8226 1.8117
1958.283 1.8149 1.8454 1.8615 1.8232 1.7883 1.7703 1.7875 1.7543 1.70909 1.70564
1977.577 1.72706 1.7497 1.71878 1.72709 1.7836 1.7846 1.7786 1.8061 1.7564 1.696
1996.870 1.737 1.7841 1.745 1.69911 1.72863 1.7507 1.7367 1.7369 1.7386 1.71882
2016.164 1.71859 1.71964 1.72696 1.7541 1.7753 1.7435 1.70212 1.68564 1.68634 1.70174
2035.457 1.70384 1.7306 1.7419 1.72645 1.7445 1.7552 1.7326 1.68696 1.66352 1.68235
2054.750 1.67723 1.65102 1.65734 1.67422 1.65021 1.64144 1.63463 1.619 1.62219 1.62242
2074.044 1.6183 1.6065 1.6166 1.6415 1.62442 1.5916 1.614 1.6421 1.62887 1.6156
2093.337 1.589 1.5727 1.5597 1.5416 1.5623 1.5752 1.5934 1.5917 1.5519 1.514
2112.631 1.497 1.507 1.51 1.526 1.527 1.498 1.519 1.5309 1.501 1.506
2131.924 1.511 1.492 1.489 1.517 1.523 1.485 1.461 1.465 1.484 1.489
2151.218 1.469 1.463 1.474 1.473 1.446 1.46 1.481 1.469 1.482 1.508
2170.511 1.491 1.473 1.486 1.506 1.5435 1.556 1.5538 1.52 1.489 1.523
2189.804 1.5521 1.5597 1.5445 1.519 1.502 1.512 1.485 1.478 1.53 1.513
2209.098 1.5 1.5421 1.5377 1.533 1.5333 1.524 1.519 1.519 1.507 1.488
2228.391 1.509 1.508 1.507 1.539 1.5576 1.5358 1.5367 1.519 1.519 1.5366
2247.685 1.506 1.5 1.521 1.519 1.489 1.482 1.495 1.494 1.487 1.471
2266.978 1.487 1.492 1.473 1.493 1.485 1.452 1.479 1.49 1.464 1.477
2286.272 1.466 1.448 1.423 1.435 1.484 1.493 1.485 1.488 1.481 1.475
2305.565 1.496 1.502 1.496 1.474 1.494 1.508 1.506 1.514 1.491 1.471
2324.858 1.476 1.48 1.497 1.504 1.48 1.469 1.475 1.464 1.427 1.398
2344.152 1.401 1.446 1.46 1.442 1.448 1.424 1.408 1.401 1.376 1.394
2363.445 1.44 1.472 1.459 1.436 1.434 1.458 1.464 1.434 1.422 1.433
2382.739 1.406 1.404 1.399 1.399 1.434 1.443 1.456 1.428 1.411 1.424
2402.032 1.433 1.484 1.497 1.458 1.417 1.421 1.435 1.411 1.406 1.417
2421.326 1.379 1.353 1.383 1.413 1.382 1.348 1.374 1.395 1.373 1.384
2440.619 1.394 1.374 1.371 1.356 1.35 1.325 1.344 1.355 1.336 1.324
2459.912 1.303 1.336 1.312 1.269 1.328 1.357 1.332 1.358 1.347 1.316
2479.206 1.335 1.347 1.328 1.308 1.321 1.305 1.287 1.305 1.289 1.274
2498.499 1.295 1.3 1.283 1.233 1.234 1.252 1.245 1.317 1.348 1.275
2517.793 1.247 1.265 1.288 1.282 1.259 1.262 1.263 1.26 1.245 1.26
2537.086 1.262 1.237 1.254 1.263 1.261 1.237 1.227 1.248 1.229 1.215
2556.380 1.223 1.248 1.266 1.204 1.189 1.212 1.184 1.197 1.187 1.164
2575.673 1.183 1.204 1.222 1.202 1.181 1.184 1.172 1.188 1.213 1.23
2594.966 1.241 1.224 1.202 1.241 1.268 1.248 1.238 1.217 1.22 1.233
2614.260 1.243 1.279 1.245 1.181 1.193 1.21 1.225 1.236 1.225 1.214
2633.553 1.222 1.251 1.303 1.295 1.254 1.299 1.321 1.296 1.304 1.357
2652.847 1.374 1.314 1.265 1.258 1.292 1.302 1.305 1.328 1.304 1.332
2672.140 1.387 1.376 1.379 1.4 1.424 1.366 1.333 1.408 1.426 1.403
2691.434 1.392 1.387 1.351 1.317 1.351 1.415 1.387 1.338 1.348 1.332
2710.727 1.322 1.33 1.346 1.356 1.391 1.361 1.307 1.321 1.344 1.333
2730.020 1.334 1.347 1.348 1.387 1.386 1.388 1.396 1.324 1.345 1.396
2749.314 1.37 1.398 1.394 1.41 1.429 1.415 1.368 1.348 1.442 1.479
2768.607 1.447 1.433 1.48 1.499 1.5331 1.5638 1.5481 1.5373 1.511 1.5882
2787.901 1.6401 1.65852 1.72543 1.7567 1.7346 1.72067 1.7296 1.7804 1.8175 1.8682
2807.194 1.9558 1.9628 2.0407 2.156 2.1868 2.3034 2.4583 2.5348 2.5535 2.6154
2826.488 2.73 2.78 2.93 3.14 3.24 3.37 3.58 3.82 4.01 4.25
2845.781 4.63 5.09 5.67 6.28 7.01 7.84 8.76 9.78 10.7 11.58
2865.074 12.43 13.09 13.53 13.69 13.7 13.59 13.24 12.79 12.32 11.84
2884.368 11.34 10.9 10.52 10.22 9.97 9.84 9.96 10.2 10.61 11.05
2903.661 11.58 12.33 13.25 14.27 15.26 16.39 17.58 18.87 20.2 21.42
2922.955 22.75 24.25 25.78 27.28 28.89 30.68 32.41 34 35.53 36.91
2942.248 37.96 38.46 38.41 37.78 36.71 35.3 33.58 31.65 29.7 27.88
2961.542 26.12 24.7 23.57 22.51 21.73 21.12 20.62 20.37 20.3 20.4
2980.835 20.55 20.6 20.33 19.67 18.71 17.51 16.09 14.63 13.36 12.3
3000.128 11.27 10.26 9.46 8.74 8.02 7.32 6.74 6.2 5.68 5.22
3019.422 4.8 4.38 3.96 3.63 3.34 3.13 2.95 2.77 2.5787 2.4108
3038.715 2.2959 2.2236 2.0549 1.9208 1.8971 1.8158 1.7351 1.613 1.482 1.435
3058.009 1.37 1.321 1.343 1.343 1.223 1.188 1.143 1.062 1.066 1.136
3077.302 1.164 0.976 0.792 0.85 0.919 0.875 0.881 0.861 0.869 0.85
3096.596 0.855 0.91 0.876 0.805 0.803 0.746 0.681 0.658 0.62 0.707
3115.889 0.687 0.711 0.723 0.686 0.747 0.647 0.691 0.79 0.687 0.62
3135.182 0.58 0.53 0.54 0.58 0.644 0.729 0.755 0.645 0.49 0.49
3154.476 0.54 0.49 0.39 0.45 0.5 0.48 0.49 0.53 0.46 0.36
3173.769 0.4 0.46 0.48 0.38 0.39 0.4 0.34 0.42 0.4 0.32
3193.063 0.33 0.33 0.34 0.39 0.45 0.35 0.24 0.2 0.24 0.43
3212.356 0.41 0.39 0.41 0.23 0.11 0.18 0.27 0.3 0.25 0.21
3231.650 0.1 0.13 0.27 0.25 0.23 0.21 0.22 0.25 0.15 0.18
3250.943 0.19 0.13 0.23 0.24 0.13 0.16 0.25 0.18 0.19 0.15
3270.236 0.06 0.09 0.19 0.23 0.15 0 0.14 0.3 0.25 0.2
3289.530 0.06 0.09 0.14 0.19 0.24 0.15 0.14 0.21 0.28 0.34
3308.823 0.32 0.2 0.22 0.16 0.13 0.2 0.14 0.11 0.08 0.1
3328.117 0.15 0.17 0.22 0.28 0.21 0.2 0.21 0.22 0.18 0.11
3347.410 0.09 0.11 0.11 0.1 0.12 0.14 0.21 0.26 0.21 0.18
3366.704 0.25 0.26 0.3 0.32 0.24 0.27 0.36 0.36 0.3 0.31
3385.997 0.35 0.29 0.4 0.36 0.2 0.24 0.3 0.38 0.42 0.35
3405.290 0.26 0.24 0.37 0.46 0.42 0.31 0.37 0.37 0.25 0.35
3424.584 0.34 0.28 0.36 0.44 0.44 0.39 0.37 0.34 0.3 0.34
3443.877 0.51 0.58 0.643 0.62 0.57 0.55 0.46 0.53 0.57 0.57
3463.171 0.58 0.63 0.707 0.764 0.847 0.848 0.836 0.868 0.972 1.026
3482.464 1.06 1.118 1.078 1.129 1.114 1.087 1.056 0.963 0.921 0.949
3501.758 1.096 1.102 1.047 0.988 1.007 1.088 1.061 1.076 1.115 1.158
3521.051 1.14 1.106 1.191 1.276 1.318 1.347 1.388 1.5316 1.5513 1.5909
3540.344 1.7847 1.852 1.9487 2.2316 2.4572 2.64 2.92 3.32 3.99 4.78
3559.638 5.61 6.85 8.42 10.39 13.15 16.43 19.7 22.02 22.68 21.89
3578.931 19.91 16.71 12.93 9.86 7.72 6.16 5 4.03 3.4 2.95
3598.225 2.5483 2.3082 1.9595 1.72115 1.62439 1.397 1.298 1.225 1.171 1.25
3617.518 1.262 1.168 1.051 1.035 1.077 0.973 0.869 0.967 1.03 1.035
3636.812 1.013 0.94 0.902 0.845 0.77 0.764 0.746 0.677 0.676 0.703
3656.105 0.725 0.827 0.853 0.769 0.693 0.728 0.718 0.687 0.814 0.859
3675.398 0.766 0.669 0.677 0.664 0.709 0.807 0.776 0.743 0.703 0.709
3694.692 0.776 0.77 0.769 0.774 0.787 0.927 0.848 0.707 0.732 0.698
3713.985 0.765 0.808 0.787 0.776 0.706 0.693 0.663 0.688 0.69 0.65
3733.279 0.697 0.686 0.656 0.61 0.58 0.671 0.705 0.645 0.638 0.661
3752.572 0.717 0.751 0.665 0.64 0.701 0.682 0.734 0.769 0.724 0.735
3771.866 0.744 0.8 0.805 0.77 0.791 0.775 0.745 0.704 0.681 0.708
3791.159 0.818 0.782 0.706 0.773 0.756 0.701 0.747 0.792 0.76 0.815
3810.452 0.883 0.797 0.738 0.749 0.788 0.85 0.79 0.755 0.719 0.728
3829.746 0.806 0.849 0.806 0.724 0.773 0.814 0.901 0.922 0.88 0.827
3849.039 0.779 0.819 0.772 0.778 0.771 0.778 0.851 0.87 0.802 0.705
3868.333 0.69 0.735 0.716 0.696 0.806 0.859 0.778 0.741 0.767 0.774
3887.626 0.822 0.915 0.913 0.794 0.741 0.825 0.854 0.803 0.82 0.878
3906.920 0.866 0.826 0.832 0.873 0.924 0.96 0.896 0.821 0.867 0.939
3926.213 0.953 0.937 0.931 0.901 0.905 0.946 0.983 0.968 0.954 0.997
3945.506 0.971 0.923 0.907 0.833 0.883 0.965 0.956 1.046 1.026 0.951
3964.800 0.959 0.907 0.92 1.044 1.065 0.937 0.94 1.006 0.984 1.006
3984.093 1.048 1.008 0.945 0.946 0.954 1.04 1.133 1.073 1.012
##END=
