##TITLE=4-Fluoro-2-(trifluoromethyl)benzoic acid
##JCAMP-DX=4.24
##DATA TYPE=INFRARED SPECTRUM
##ORIGIN=EPA-IR VAPOR PHASE LIBRARY
##OWNER=SRD/NIST
Collection (C) 2018 copyright by the U.S. Secretary of Commerce
on behalf of the United States of America. All rights reserved.
##CAS REGISTRY NO=141179-72-8
##MOLFORM=C 8 H 4 F 4 O 2
##$NIST SOURCE=MSDC-IR
##STATE=gas
##XUNITS=1/CM
##YUNITS=ABSORBANCE
##XFACTOR=1.
##YFACTOR=0.001
##DELTAX=1.92918
##FIRSTX=549.8
##LASTX=3999.2
##FIRSTY=14.939
##MAXX=3999.2
##MINX=549.817
##MAXY=0.237589
##MINY=0
##NPOINTS=1789
##XYDATA=(X++(Y..Y))
549.817 14.939 15.749 16.579 17.679 18.889 19.889 20.649 21.179 21.729 21.919
569.109 21.749 21.619 21.379 21.269 20.859 20.099 19.399 18.839 18.089 17.169
588.401 16.139 15.069 14.399 14.009 13.959 14.489 15.639 17.179 18.589 19.659
607.693 20.529 21.329 21.849 21.869 21.219 19.959 18.429 16.689 14.719 12.789
626.984 11.029 9.189 7.619 6.529 5.729 5.039 4.329 3.879 3.619 3.249
646.276 3.039 2.879 2.849 3.079 3.379 3.859 4.559 5.069 5.069 5.099
665.568 5.109 4.859 4.389 3.859 3.239 2.699 2.529 2.409 2.309 2.239
684.860 2.329 2.539 2.639 2.699 2.739 2.649 2.669 2.819 2.989 3.119
704.152 3.209 3.439 3.789 4.179 4.679 5.279 5.899 6.669 7.509 8.219
723.444 8.769 9.169 9.279 9.059 8.799 8.359 7.799 7.539 7.429 7.499
742.735 8.179 9.489 10.829 11.729 12.479 12.959 12.699 12.189 11.229 9.459
762.027 7.779 6.719 6.329 6.629 7.269 7.899 8.579 9.319 9.919 10.579
781.319 11.049 10.779 10.119 9.469 8.799 8.139 7.429 6.729 6.199 5.799
800.611 5.439 5.199 5.109 4.969 4.829 4.689 4.559 4.419 4.399 4.469
819.903 4.439 4.579 4.929 5.359 5.929 6.699 7.529 8.369 9.139 10.019
839.195 10.879 10.949 9.959 8.439 7.129 6.049 5.079 4.249 3.489 2.959
858.487 2.729 2.609 2.519 2.499 2.629 2.919 3.319 4.049 5.269 6.979
877.778 8.969 11.089 13.119 15.249 18.489 22.029 21.809 18.519 16.419 15.679
897.070 15.319 15.329 16.079 17.819 20.409 23.329 25.739 27.319 27.869 27.219
916.362 25.369 22.349 18.609 14.649 11.119 8.499 6.699 5.549 4.739 4.159
935.654 3.759 3.369 3.089 2.889 2.719 2.609 2.589 2.589 2.509 2.469
954.946 2.509 2.469 2.399 2.329 2.249 2.209 2.139 2.019 1.979 1.969
974.238 1.949 1.949 2.009 2.069 2.039 2.019 2.079 2.159 2.229 2.329
993.529 2.389 2.479 2.549 2.609 2.729 2.849 2.999 3.159 3.309 3.499
1012.821 3.759 4.049 4.419 4.929 5.559 6.519 7.939 10.009 13.009 17.049
1032.113 21.939 26.939 31.319 34.429 36.029 36.489 35.719 33.179 28.829 23.499
1051.405 18.459 14.539 11.999 10.639 10.069 10.069 10.379 10.959 11.829 12.929
1070.697 14.269 16.019 18.299 21.019 24.139 27.709 31.479 35.109 38.449 41.229
1089.989 43.129 43.879 43.309 41.579 38.899 35.469 31.729 27.979 24.449 21.369
1109.281 18.889 17.159 16.199 15.889 16.149 16.869 17.969 19.299 20.719 22.169
1128.572 23.609 24.989 26.239 27.429 28.769 30.619 32.979 35.869 39.469 43.799
1147.864 49.059 55.599 63.689 73.659 85.869 100.699 118.329 138.729 161.519 185.269
1167.156 207.609 225.619 236.399 237.589 228.149 209.949 186.949 163.279 141.579 122.439
1186.448 105.859 91.729 79.589 69.149 60.189 52.589 46.399 41.529 37.769 35.109
1205.740 33.629 33.139 33.319 33.839 34.309 34.339 33.679 32.449 30.849 28.849
1225.032 26.409 23.759 21.299 19.329 17.939 16.989 16.449 16.289 16.339 16.689
1244.323 17.429 18.489 20.069 22.299 25.069 28.189 31.519 34.779 37.529 39.729
1263.615 41.339 42.299 42.619 42.299 41.709 41.169 40.899 41.019 41.409 41.909
1282.907 42.419 42.899 43.169 43.189 43.079 43.119 43.769 45.669 49.429 55.259
1302.199 63.189 73.029 84.109 95.209 104.909 112.119 116.119 116.439 112.939 105.779
1321.491 95.659 83.879 72.259 62.259 54.499 48.779 44.589 41.489 39.059 37.029
1340.783 35.239 33.499 31.749 30.019 28.299 26.679 25.299 24.209 23.509 23.259
1360.075 23.359 23.769 24.469 25.229 25.899 26.339 26.409 26.059 25.179 23.859
1379.366 22.229 20.339 18.359 16.549 14.969 13.749 12.759 12.009 11.459 11.159
1398.658 11.109 11.269 11.629 12.259 13.189 14.339 15.849 17.739 19.969 22.399
1417.950 24.609 26.409 27.329 27.149 25.949 23.909 21.039 17.579 13.839 10.469
1437.242 7.789 6.129 5.179 4.609 4.269 4.039 3.819 3.659 3.539 3.409
1456.534 3.359 3.339 3.339 3.359 3.419 3.439 3.499 3.659 3.819 3.979
1475.826 4.209 4.539 4.949 5.499 6.179 7.059 8.209 9.579 11.219 12.919
1495.117 14.509 15.949 16.859 17.119 16.829 15.979 14.349 12.489 10.669 8.779
1514.409 7.169 5.959 5.079 4.439 3.949 3.639 3.459 3.319 3.159 3.029
1533.701 2.919 2.819 2.769 2.739 2.669 2.619 2.599 2.579 2.599 2.629
1552.993 2.669 2.769 2.949 3.159 3.279 3.429 3.609 3.809 4.119 4.479
1572.285 4.789 5.299 6.009 6.719 7.649 8.979 10.669 12.659 14.749 16.829
1591.577 18.699 20.169 21.119 21.609 21.669 21.449 21.129 20.949 21.189 21.789
1610.869 22.549 23.039 22.919 22.089 20.589 18.579 16.129 13.429 10.959 8.929
1630.160 7.349 6.219 5.429 4.819 4.329 3.999 3.689 3.449 3.289 3.069
1649.452 2.829 2.739 2.679 2.509 2.409 2.379 2.419 2.479 2.499 2.539
1668.744 2.609 2.689 2.759 2.799 2.839 2.839 2.839 2.859 2.889 2.819
1688.036 2.749 2.759 2.779 2.759 2.809 2.919 3.049 3.099 3.149 3.349
1707.328 3.539 3.719 3.989 4.349 4.779 5.339 5.889 6.409 7.009 7.669
1726.620 8.419 9.169 9.949 10.739 11.629 12.509 13.449 14.639 15.929 17.509
1745.911 19.529 22.099 25.389 29.729 35.029 41.219 48.359 55.529 62.559 69.099
1765.203 74.689 79.389 82.779 84.629 85.339 85.279 84.439 82.579 79.569 75.279
1784.495 69.409 62.529 55.169 47.309 39.809 33.569 28.799 24.949 21.759 18.989
1803.787 16.579 14.479 12.629 11.019 9.649 8.469 7.489 6.629 5.949 5.339
1823.079 4.789 4.379 4.029 3.729 3.479 3.179 2.959 2.819 2.719 2.599
1842.371 2.469 2.369 2.269 2.169 2.069 1.989 1.939 1.8791 1.8029 1.7146
1861.663 1.6567 1.6117 1.5172 1.4217 1.4042 1.3869 1.3229 1.3023 1.3101 1.3087
1880.954 1.3225 1.2964 1.2285 1.2403 1.3131 1.3413 1.3602 1.4432 1.5594 1.6464
1900.246 1.7157 1.8429 1.979 2.079 2.169 2.229 2.219 2.199 2.199 2.129
1919.538 2.009 1.9147 1.7589 1.569 1.4725 1.3816 1.269 1.1637 1.0955 1.106
1938.830 1.0784 1.0404 1.0292 1.0064 0.97029 0.96762 0.96738 0.95734 0.938418 0.92289
1958.122 0.8698 0.799 0.813 0.82 0.796 0.767 0.729 0.693 0.676 0.675
1977.414 0.68 0.676 0.647 0.631 0.638 0.641 0.62 0.584 0.565 0.556
1996.705 0.574 0.586 0.599 0.621 0.621 0.612 0.643 0.678 0.674 0.699
2015.997 0.697 0.655 0.651 0.668 0.65 0.647 0.633 0.618 0.632 0.624
2035.289 0.627 0.61 0.587 0.573 0.565 0.552 0.577 0.602 0.596 0.626
2054.581 0.659 0.671 0.651 0.684 0.727 0.694 0.71 0.698 0.685 0.703
2073.873 0.696 0.647 0.622 0.648 0.615 0.59 0.585 0.578 0.574 0.588
2093.165 0.59 0.563 0.585 0.593 0.577 0.575 0.574 0.631 0.661 0.693
2112.456 0.774 0.8605 0.930472 0.96058 1.02564 1.1174 1.1668 1.173 1.1833 1.2441
2131.748 1.2501 1.1723 1.0785 1.00612 0.95986 0.9139 0.822 0.721 0.727 0.743
2151.040 0.68 0.621 0.61 0.633 0.668 0.681 0.687 0.713 0.74 0.745
2170.332 0.714 0.732 0.776 0.805 0.8 0.784 0.766 0.759 0.754 0.759
2189.624 0.76 0.76 0.758 0.725 0.706 0.704 0.717 0.717 0.697 0.688
2208.916 0.71 0.691 0.671 0.661 0.632 0.632 0.659 0.646 0.619 0.643
2228.208 0.635 0.617 0.619 0.597 0.584 0.59 0.603 0.595 0.574 0.592
2247.499 0.633 0.66 0.684 0.66 0.626 0.658 0.688 0.637 0.605 0.626
2266.791 0.626 0.634 0.635 0.611 0.596 0.603 0.596 0.582 0.611 0.61
2286.083 0.564 0.562 0.544 0.552 0.568 0.523 0.529 0.581 0.628 0.642
2305.375 0.609 0.611 0.644 0.663 0.665 0.687 0.7 0.691 0.708 0.721
2324.667 0.713 0.724 0.734 0.756 0.785 0.754 0.787 0.825 0.8355 0.8589
2343.959 0.8704 0.9092 0.9096 0.9047 0.92172 0.91977 0.8734 0.8459 0.8544 0.8525
2363.250 0.8458 0.826 0.759 0.689 0.676 0.704 0.726 0.691 0.685 0.688
2382.542 0.662 0.661 0.701 0.739 0.764 0.752 0.698 0.734 0.752 0.717
2401.834 0.709 0.667 0.694 0.715 0.715 0.755 0.726 0.723 0.738 0.713
2421.126 0.722 0.739 0.717 0.683 0.712 0.734 0.736 0.672 0.599 0.65
2440.418 0.684 0.645 0.621 0.593 0.556 0.528 0.573 0.583 0.507 0.514
2459.710 0.576 0.593 0.534 0.509 0.534 0.541 0.528 0.516 0.567 0.603
2479.002 0.623 0.643 0.627 0.604 0.598 0.647 0.661 0.684 0.741 0.743
2498.293 0.716 0.709 0.748 0.793 0.772 0.734 0.731 0.69 0.69 0.689
2517.585 0.686 0.76 0.763 0.722 0.72 0.722 0.715 0.694 0.695 0.719
2536.877 0.724 0.664 0.651 0.652 0.576 0.542 0.535 0.526 0.526 0.488
2556.169 0.519 0.586 0.523 0.469 0.46 0.434 0.467 0.47 0.433 0.452
2575.461 0.482 0.43 0.349 0.359 0.377 0.371 0.41 0.43 0.453 0.46
2594.753 0.459 0.472 0.489 0.497 0.426 0.355 0.342 0.384 0.329 0.251
2614.044 0.201 0.175 0.218 0.223 0.202 0.148 0.113 0.131 0.132 0.148
2633.336 0.144 0.131 0.112 0.131 0.181 0.139 0.096 0.115 0.059 0.033
2652.628 0.087 0.137 0.164 0.142 0.158 0.203 0.197 0.182 0.188 0.168
2671.920 0.165 0.197 0.205 0.187 0.195 0.171 0.216 0.264 0.234 0.251
2691.212 0.2 0.182 0.27 0.26 0.205 0.213 0.194 0.201 0.227 0.182
2710.504 0.118 0.155 0.218 0.211 0.202 0.182 0.201 0.203 0.144 0.134
2729.796 0.178 0.158 0.168 0.192 0.204 0.194 0.167 0.153 0.114 0.132
2749.087 0.187 0.158 0.08 0.031 0 0.043 0.1 0.126 0.116 0.024
2768.379 0.041 0.095 0.053 0.063 0.065 0.08 0.144 0.15 0.127 0.144
2787.671 0.133 0.104 0.12 0.099 0.085 0.128 0.122 0.157 0.198 0.171
2806.963 0.183 0.192 0.166 0.162 0.169 0.172 0.171 0.172 0.22 0.225
2826.255 0.229 0.271 0.246 0.22 0.279 0.314 0.23 0.225 0.236 0.236
2845.547 0.231 0.16 0.166 0.189 0.189 0.262 0.37 0.306 0.266 0.272
2864.838 0.285 0.361 0.304 0.254 0.236 0.144 0.17 0.19 0.187 0.231
2884.130 0.224 0.268 0.225 0.206 0.245 0.27 0.241 0.2 0.18 0.189
2903.422 0.243 0.234 0.256 0.242 0.194 0.219 0.254 0.235 0.241 0.2
2922.714 0.203 0.207 0.188 0.192 0.189 0.204 0.231 0.244 0.247 0.196
2942.006 0.105 0.111 0.174 0.19 0.23 0.271 0.239 0.234 0.257 0.259
2961.298 0.164 0.13 0.134 0.13 0.149 0.084 0.09 0.175 0.243 0.211
2980.590 0.122 0.138 0.21 0.27 0.292 0.253 0.315 0.359 0.303 0.284
2999.881 0.271 0.306 0.313 0.317 0.28 0.208 0.21 0.251 0.287 0.322
3019.173 0.282 0.249 0.241 0.183 0.173 0.189 0.198 0.18 0.222 0.246
3038.465 0.258 0.208 0.149 0.135 0.101 0.098 0.08 0.091 0.15 0.235
3057.757 0.222 0.175 0.249 0.346 0.377 0.279 0.287 0.434 0.469 0.463
3077.049 0.521 0.638 0.763 0.92205 1.071 1.1522 1.2589 1.4642 1.5773 1.5478
3096.341 1.5142 1.3264 1.1586 1.1682 0.99625 0.795 0.688 0.525 0.442 0.411
3115.632 0.332 0.356 0.387 0.313 0.251 0.218 0.219 0.253 0.303 0.319
3134.924 0.273 0.197 0.191 0.22 0.169 0.105 0.156 0.175 0.156 0.135
3154.216 0.126 0.2 0.236 0.13 0.08 0.206 0.262 0.214 0.158 0.105
3173.508 0.093 0.125 0.211 0.203 0.22 0.242 0.161 0.096 0.079 0.203
3192.800 0.202 0.17 0.174 0.152 0.156 0.217 0.265 0.288 0.311 0.29
3212.092 0.296 0.137 0.091 0.194 0.187 0.123 0.035 0.02 0.115 0.155
3231.384 0.098 0.093 0.119 0.124 0.137 0.167 0.174 0.057 0.102 0.253
3250.675 0.189 0.099 0.122 0.145 0.128 0.14 0.179 0.169 0.054 0.03
3269.967 0.104 0.216 0.312 0.236 0.117 0.18 0.223 0.12 0.155 0.223
3289.259 0.229 0.218 0.173 0.157 0.183 0.243 0.166 0.12 0.232 0.199
3308.551 0.154 0.259 0.309 0.258 0.236 0.305 0.279 0.185 0.06 0.097
3327.843 0.214 0.186 0.161 0.189 0.211 0.286 0.385 0.285 0.241 0.315
3347.135 0.249 0.165 0.232 0.271 0.223 0.171 0.258 0.32 0.368 0.39
3366.426 0.318 0.348 0.345 0.321 0.329 0.264 0.316 0.325 0.273 0.338
3385.718 0.301 0.281 0.291 0.28 0.301 0.349 0.348 0.312 0.258 0.178
3405.010 0.241 0.315 0.324 0.354 0.421 0.41 0.377 0.366 0.327 0.309
3424.302 0.342 0.425 0.371 0.269 0.292 0.263 0.29 0.402 0.354 0.353
3443.594 0.383 0.392 0.382 0.373 0.446 0.429 0.404 0.472 0.519 0.476
3462.886 0.507 0.509 0.444 0.538 0.554 0.482 0.545 0.656 0.761 0.746
3482.178 0.66 0.656 0.745 0.796 0.78 0.671 0.654 0.812 0.92373 0.8644
3501.469 0.8499 0.9577 0.99576 0.99142 0.94027 1.01202 1.0493 1.0768 1.2056 1.2579
3520.761 1.2427 1.2016 1.1945 1.2974 1.4133 1.6223 1.7974 1.7408 1.7586 1.912
3540.053 2.069 2.209 2.409 2.709 2.999 3.439 4.109 5.179 6.719 8.989
3559.345 12.499 17.449 23.879 31.119 37.769 42.669 45.479 46.219 44.559 40.609
3578.637 34.749 27.459 20.059 13.889 9.429 6.509 4.749 3.719 3.079 2.659
3597.929 2.399 2.239 2.089 1.959 1.8815 1.8202 1.6657 1.6116 1.6553 1.6304
3617.220 1.6642 1.6659 1.5789 1.568 1.5858 1.4446 1.3236 1.2519 1.1418 1.01204
3636.512 1.0664 1.02844 0.8973 0.8934 0.79 0.793 0.811 0.771 0.76 0.828
3655.804 0.8909 0.806 0.779 0.814 0.809 0.786 0.763 0.803 0.8305 0.768
3675.096 0.731 0.647 0.569 0.542 0.594 0.66 0.649 0.7 0.768 0.706
3694.388 0.613 0.671 0.774 0.736 0.642 0.609 0.626 0.675 0.709 0.651
3713.680 0.602 0.579 0.565 0.653 0.671 0.632 0.652 0.713 0.719 0.674
3732.972 0.614 0.658 0.704 0.658 0.634 0.605 0.612 0.592 0.569 0.648
3752.263 0.709 0.57 0.418 0.459 0.51 0.478 0.439 0.523 0.614 0.617
3771.555 0.617 0.615 0.612 0.545 0.582 0.637 0.593 0.582 0.58 0.521
3790.847 0.487 0.565 0.628 0.623 0.582 0.565 0.597 0.553 0.466 0.512
3810.139 0.618 0.637 0.635 0.561 0.569 0.635 0.567 0.558 0.461 0.378
3829.431 0.483 0.53 0.439 0.427 0.531 0.495 0.511 0.472 0.41 0.451
3848.723 0.495 0.555 0.552 0.55 0.544 0.436 0.469 0.599 0.529 0.529
3868.014 0.55 0.481 0.536 0.612 0.6 0.648 0.633 0.471 0.396 0.431
3887.306 0.411 0.485 0.531 0.442 0.387 0.397 0.47 0.485 0.458 0.516
3906.598 0.591 0.566 0.551 0.545 0.504 0.431 0.448 0.511 0.475 0.465
3925.890 0.506 0.462 0.445 0.415 0.422 0.466 0.53 0.656 0.618 0.553
3945.182 0.496 0.492 0.526 0.557 0.559 0.543 0.538 0.501 0.463 0.367
3964.474 0.332 0.372 0.452 0.575 0.517 0.447 0.448 0.455 0.484 0.452
3983.766 0.528 0.56 0.501 0.48 0.403 0.471 0.565 0.516 0.504
##END=
