##TITLE=Picloram-methyl ester
##JCAMP-DX=4.24
##DATA TYPE=INFRARED SPECTRUM
##ORIGIN=NIST Mass Spectrometry Data Center
##OWNER=NIST Standard Reference Data Program
Collection (C) 2018 copyright by the U.S. Secretary of Commerce
on behalf of the United States of America. All rights reserved.
##CAS REGISTRY NO=14143-55-6
##MOLFORM=C 7 H 5 Cl 3 N 2 O 2
##$NIST SOURCE=MSDC-IR
##SPECTROMETER/DATA SYSTEM=HP-GC/MS/IRD
##STATE=gas
##XUNITS=1/CM
##YUNITS=ABSORBANCE
##XFACTOR=1.0
##YFACTOR=0.000003200
##DELTAX=4.0
##FIRSTX=550.0
##LASTX=3846.0
##FIRSTY=0.001152
##MAXX=3846
##MINX=550
##MAXY=0.032
##MINY=0
##NPOINTS=825
##XYDATA=(X++(Y..Y))
550.0 360 142 16 70 88 151 237 313 358 363
590.0 328 239 160 102 82 67 36 22 37 70
630.0 158 323 559 803 896 831 696 575 506 441
670.0 379 321 286 245 209 205 184 136 124 116
710.0 117 145 168 216 294 370 481 639 795 962
750.0 1100 1158 1158 1106 1017 919 844 772 692 623
790.0 548 466 367 292 261 233 221 224 231 228
830.0 229 275 311 317 330 357 361 352 348 344
870.0 336 335 374 445 548 631 637 558 439 381
910.0 376 399 420 439 467 515 607 749 960 1200
950.0 1407 1436 1214 893 581 377 291 248 236 256
990.0 309 402 574 875 1379 2145 3004 3516 3325 2515
1030.0 1575 900 560 387 309 294 314 360 454 568
1070.0 709 856 958 1095 1306 1603 1998 2367 2548 2437
1110.0 2131 1819 1569 1407 1278 1101 915 795 740 704
1150.0 691 740 865 1045 1335 1792 2455 3260 3999 4517
1190.0 4897 5353 5979 6702 7301 7575 7370 6629 5578 4530
1230.0 3694 3082 2576 2091 1651 1294 1066 968 953 1037
1270.0 1231 1546 1998 2641 3596 4985 6811 8752 10000 9756
1310.0 8028 5735 3864 2688 1964 1462 1099 839 662 553
1350.0 483 450 444 448 469 501 555 669 894 1269
1390.0 1753 2190 2355 2145 1721 1386 1306 1454 1734 2021
1430.0 2254 2524 2862 3038 2787 2128 1433 976 736 603
1470.0 526 458 405 367 332 306 289 279 277 285
1510.0 317 404 555 821 1242 1837 2471 2874 2783 2182
1550.0 1432 906 607 448 378 372 415 514 694 992
1590.0 1514 2436 4005 6261 8385 9182 8181 5937 3772 2361
1630.0 1538 1071 784 597 471 385 330 289 251 228
1670.0 208 197 188 171 160 161 172 188 221 283
1710.0 357 438 531 652 812 1055 1399 1795 2162 2497
1750.0 2957 3779 4939 5946 6056 5191 4080 3220 2572 1995
1790.0 1445 998 700 515 404 329 269 217 178 152
1830.0 131 113 95 82 72 62 63 67 64 62
1870.0 67 67 66 61 52 44 40 40 38 35
1910.0 29 24 15 4 4 3 1 0 1 8
1950.0 16 21 28 40 47 52 53 51 49 48
1990.0 44 39 37 41 43 41 43 40 35 37
2030.0 39 32 32 35 34 31 30 27 22 24
2070.0 32 36 35 36 43 44 43 46 51 56
2110.0 51 48 49 50 44 37 33 25 29 36
2150.0 36 34 30 31 31 32 29 29 40 51
2190.0 52 51 44 40 35 30 26 20 20 17
2230.0 16 10 12 21 16 13 18 20 23 24
2270.0 21 21 19 16 20 23 26 24 17 13
2310.0 13 18 29 31 31 40 44 39 35 31
2350.0 36 41 44 44 44 42 38 46 53 59
2390.0 59 48 50 51 48 50 48 47 45 43
2430.0 39 38 39 39 38 39 36 26 26 23
2470.0 19 26 28 27 37 33 31 31 34 36
2510.0 35 37 45 56 65 78 83 85 91 90
2550.0 80 77 81 76 65 61 55 45 41 41
2590.0 44 37 38 43 44 35 22 32 42 33
2630.0 30 31 35 47 61 59 59 67 71 70
2670.0 60 56 62 67 65 69 78 79 66 63
2710.0 64 58 61 51 43 49 48 40 34 26
2750.0 21 29 28 26 28 33 39 34 36 39
2790.0 43 41 42 48 55 57 61 82 92 94
2830.0 110 139 156 162 159 175 213 223 210 194
2870.0 170 134 117 128 137 144 167 185 187 206
2910.0 222 217 203 206 212 211 221 246 286 357
2950.0 523 847 1292 1558 1424 987 570 378 313 291
2990.0 269 257 277 293 297 299 294 285 283 274
3030.0 274 275 265 244 216 194 169 153 148 136
3070.0 129 125 127 131 119 113 110 117 106 87
3110.0 86 95 103 90 84 86 94 91 82 89
3150.0 93 88 75 56 46 48 44 51 47 38
3190.0 42 65 77 67 65 69 76 68 55 64
3230.0 60 57 66 55 43 41 35 34 43 43
3270.0 33 29 31 23 26 36 41 37 24 40
3310.0 47 39 29 23 28 37 44 38 34 46
3350.0 53 42 55 87 94 112 141 160 190 219
3390.0 273 363 473 603 752 883 996 1100 1183 1316
3430.0 1477 1498 1306 959 581 347 252 225 205 202
3470.0 224 243 265 307 360 414 471 554 660 799
3510.0 906 939 910 865 854 926 1075 1259 1398 1304
3550.0 965 585 342 207 141 129 103 77 68 66
3590.0 51 41 51 68 65 56 56 52 53 58
3630.0 51 36 43 43 40 35 33 37 30 30
3670.0 32 37 33 30 38 50 58 51 49 52
3710.0 42 41 53 45 33 36 50 51 57 66
3750.0 69 73 59 64 62 41 24 25 39 38
3790.0 44 49 44 19 1 14 28 33 40 45
3830.0 38 36 52 53 50
##END=
