##TITLE=2-Phenoxypyridine-3-carbonitrile
##JCAMP-DX=4.24
##DATA TYPE=INFRARED SPECTRUM
##ORIGIN=EPA-IR VAPOR PHASE LIBRARY
##OWNER=SRD/NIST
Collection (C) 2018 copyright by the U.S. Secretary of Commerce
on behalf of the United States of America. All rights reserved.
##CAS REGISTRY NO=14178-15-5
##MOLFORM=C 12 H 8 N 2 O
##$NIST SOURCE=MSDC-IR
##STATE=gas
##XUNITS=1/CM
##YUNITS=ABSORBANCE
##XFACTOR=1.
##YFACTOR=0.001
##DELTAX=1.92898
##FIRSTX=549.8
##LASTX=4000.7
##FIRSTY=1.109
##MAXX=4000.7
##MINX=549.759
##MAXY=0.291036
##MINY=0
##NPOINTS=1790
##XYDATA=(X++(Y..Y))
549.759 1.109 1.776 1.636 0.7473 0.6982 0.3075 0.153 0.42611 0.108 0
569.049 0.091 0.44012 0.3566 0.225 0.9115 1.2469 1.1768 1.3771 1.466 1.736
588.339 2.446 2.416 1.986 1.996 2.166 2.736 2.906 2.486 2.236 1.886
607.628 1.526 1.806 2.006 1.636 1.1454 1.074 1.3523 1.586 1.3111 1.0449
626.918 1.3612 1.436 1.676 1.966 1.926 1.986 1.976 1.926 2.086 2.136
646.208 1.896 1.606 1.716 2.466 3.146 3.476 3.376 3.406 3.786 4.226
665.498 4.656 4.616 4.796 5.566 6.406 7.256 8.506 9.856 11.726 13.296
684.787 13.596 13.576 13.726 13.246 12.076 10.656 9.236 8.026 7.186 6.756
704.077 6.636 6.526 6.636 7.176 7.596 7.836 8.536 9.396 10.146 10.596
723.367 10.546 10.566 10.896 11.036 10.606 10.416 10.636 11.006 11.176 11.136
742.657 11.666 12.196 12.326 12.376 12.756 13.506 14.026 14.866 16.096 17.316
761.947 18.216 18.726 18.776 18.466 18.246 17.986 17.646 17.486 17.606 17.846
781.236 18.926 20.446 21.536 22.506 23.706 25.056 25.506 23.826 20.856 18.246
800.526 15.876 13.516 11.416 9.346 7.986 7.496 6.896 6.516 6.176 5.736
819.816 5.006 4.836 4.936 4.296 3.816 3.426 3.076 2.966 2.716 2.576
839.106 2.416 2.536 2.596 2.466 2.496 2.486 2.406 2.126 2.276 2.316
858.395 2.266 2.186 1.936 2.006 2.056 2.146 2.726 3.286 3.806 4.586
877.685 5.446 6.386 7.546 9.256 12.016 15.306 18.026 20.036 21.736 23.156
896.975 24.336 24.416 23.436 22.066 20.036 18.016 16.156 13.716 10.766 8.236
916.265 6.346 4.946 4.156 3.736 3.006 2.606 2.576 2.016 1.846 2.096
935.555 2.016 2.016 2.096 1.926 1.956 2.286 2.266 2.146 1.986 1.686
954.844 1.896 1.966 1.536 1.826 2.006 1.776 1.946 2.306 2.626 2.716
974.134 2.396 2.026 2.256 2.326 2.296 2.626 2.346 2.206 2.086 2.066
993.424 2.306 1.946 2.066 2.866 3.106 3.306 3.656 3.676 3.216 3.126
1012.714 3.936 4.606 5.806 7.126 7.336 7.306 7.176 7.116 6.366 4.346
1032.003 3.036 1.966 1.636 1.966 1.636 1.2956 1.686 2.076 2.086 2.216
1051.293 2.346 2.706 3.016 2.976 3.006 3.296 4.026 3.836 3.456 4.426
1070.583 4.776 4.416 3.686 3.306 3.086 2.846 3.386 3.556 3.196 2.836
1089.873 3.726 4.516 4.596 6.476 8.036 7.476 6.346 6.136 5.906 4.836
1109.163 4.166 3.686 2.866 2.266 2.476 2.346 2.776 3.706 3.536 3.516
1128.452 3.896 3.616 3.276 3.066 2.996 2.596 2.846 4.326 4.956 5.456
1147.742 6.486 7.986 10.016 13.256 16.326 18.726 20.456 21.366 21.256 20.966
1167.032 20.696 18.776 17.466 17.146 18.056 20.526 23.006 26.456 31.156 36.966
1186.322 43.516 50.496 59.016 67.866 75.456 81.956 86.446 87.366 84.376 78.856
1205.611 70.546 59.206 47.716 37.536 29.866 24.336 21.086 19.366 17.506 17.176
1224.901 17.126 17.206 17.106 16.966 17.026 16.596 16.226 16.216 17.326 19.166
1244.191 20.836 23.736 28.206 33.896 42.626 53.196 64.896 76.316 85.026 90.796
1263.481 91.176 86.476 78.476 67.256 54.816 44.566 37.776 34.556 35.176 38.826
1282.771 44.686 52.636 61.986 71.796 81.176 89.216 95.016 97.736 97.116 93.316
1302.060 86.636 77.746 67.766 57.816 48.606 40.856 34.656 29.666 25.566 22.146
1321.350 19.346 17.056 15.346 14.006 13.006 12.286 11.766 11.246 10.606 10.076
1340.640 9.656 9.226 8.806 8.446 8.206 8.116 7.886 7.866 7.776 7.526
1359.930 7.426 7.216 7.136 7.066 6.896 6.986 7.066 7.026 7.116 7.176
1379.219 7.266 7.326 7.366 7.476 7.526 7.826 8.286 8.716 9.226 10.036
1398.509 11.176 12.486 14.426 17.296 21.056 26.106 33.176 43.406 57.876 77.956
1417.799 105.286 141.566 183.876 227.456 264.786 286.996 291.036 278.996 252.026 210.416
1437.089 157.406 107.036 70.246 47.996 35.616 28.146 23.226 19.936 17.586 15.936
1456.378 14.826 13.886 13.046 12.346 11.936 11.916 12.336 13.076 14.016 15.266
1475.668 16.846 19.156 22.496 26.876 32.556 39.126 45.286 49.636 51.536 51.076
1494.958 48.366 43.546 36.796 29.596 23.566 19.296 16.306 13.956 12.236 10.716
1514.248 9.256 8.146 7.426 6.976 6.506 6.266 6.356 6.566 6.856 7.116
1533.538 7.526 8.056 8.616 9.206 9.686 10.436 11.426 12.476 13.696 15.396
1552.827 17.826 20.666 24.176 28.946 34.916 42.026 50.316 59.286 67.966 75.076
1572.117 79.346 80.476 78.166 72.766 65.516 57.006 49.046 43.166 39.156 35.976
1591.407 33.236 30.806 28.316 25.516 22.536 19.656 16.816 14.166 11.926 9.996
1610.697 8.386 7.116 6.386 5.906 5.266 4.826 4.636 4.256 3.856 3.656
1629.986 3.456 3.266 3.136 3.076 3.096 2.946 2.746 2.666 2.606 2.476
1649.276 2.306 2.236 2.296 2.406 2.276 2.176 2.106 2.056 2.306 2.246
1668.566 1.946 1.966 2.086 2.066 2.006 1.966 1.786 1.806 1.956 2.026
1687.856 1.966 2.046 2.236 2.236 2.266 2.236 2.326 2.396 2.466 2.576
1707.146 2.466 2.456 2.596 2.726 2.876 2.976 2.896 2.686 2.746 2.906
1726.435 2.906 2.966 2.956 2.896 3.006 3.146 3.006 2.706 2.546 2.626
1745.725 2.626 2.466 2.276 2.136 2.056 2.016 1.986 2.076 2.236 2.316
1765.015 2.396 2.456 2.536 2.446 2.276 2.306 2.246 2.006 1.816 1.666
1784.305 1.656 1.696 1.716 1.656 1.566 1.576 1.526 1.476 1.576 1.556
1803.594 1.476 1.476 1.3888 1.3826 1.3302 1.1808 1.1369 1.1542 1.0963 1.0618
1822.884 1.133 1.2537 1.3597 1.3888 1.3951 1.426 1.3857 1.406 1.516 1.546
1842.174 1.566 1.596 1.616 1.616 1.686 1.726 1.706 1.746 1.856 1.896
1861.464 1.816 1.836 1.866 1.836 1.866 1.946 1.916 1.806 1.766 1.946
1880.754 1.976 1.936 2.086 2.196 2.236 2.246 2.336 2.426 2.366 2.326
1900.043 2.316 2.376 2.426 2.396 2.526 2.706 3.046 3.276 3.316 3.356
1919.333 3.336 3.376 3.396 3.326 3.276 3.196 3.056 3.106 3.146 3.066
1938.623 3.206 3.386 3.276 3.026 2.976 2.956 2.776 2.606 2.336 2.136
1957.913 2.016 1.916 1.836 1.666 1.566 1.616 1.656 1.696 1.746 1.716
1977.202 1.666 1.676 1.726 1.766 1.816 1.846 1.826 1.806 1.726 1.746
1996.492 1.756 1.656 1.716 1.746 1.756 1.806 1.746 1.776 1.876 1.936
2015.782 1.886 1.786 1.696 1.636 1.666 1.596 1.496 1.436 1.3428 1.3777
2035.072 1.3342 1.2349 1.2598 1.2065 1.185 1.1702 1.1199 1.1703 1.2795 1.456
2054.362 1.3796 1.2936 1.3722 1.389 1.416 1.456 1.526 1.506 1.516 1.486
2073.651 1.456 1.546 1.536 1.556 1.516 1.516 1.586 1.516 1.406 1.446
2092.941 1.456 1.446 1.446 1.406 1.496 1.546 1.496 1.636 1.796 1.706
2112.231 1.696 1.686 1.636 1.556 1.506 1.546 1.446 1.3307 1.2593 1.2463
2131.521 1.416 1.556 1.556 1.566 1.596 1.646 1.796 1.866 1.846 1.856
2150.810 1.726 1.626 1.686 1.586 1.526 1.616 1.556 1.446 1.406 1.388
2170.100 1.3675 1.2397 1.0793 1.1439 1.251 1.2514 1.3927 1.3948 1.3216 1.3364
2189.390 1.3763 1.476 1.406 1.406 1.546 1.526 1.466 1.576 1.616 1.506
2208.680 1.526 1.576 1.646 1.666 1.656 1.846 2.066 2.326 2.646 3.106
2227.970 3.556 3.946 4.366 4.776 4.856 4.686 4.506 4.206 3.646 3.126
2247.259 2.746 2.236 1.866 1.646 1.456 1.3597 1.3709 1.426 1.3847 1.2622
2266.549 1.1251 1.0047 0.9437 1.0797 1.2759 1.2239 1.1859 1.0912 0.9712 1.0134
2285.839 1.0616 1.0931 1.1479 1.2387 1.2826 1.1975 1.1455 1.2966 1.406 1.3953
2305.129 1.506 1.676 1.676 1.746 1.886 1.906 1.966 2.016 1.926 1.876
2324.418 1.856 1.746 1.656 1.656 1.776 1.596 1.506 1.656 1.666 1.626
2343.708 1.496 1.616 1.756 1.746 1.826 1.816 1.766 1.716 1.646 1.566
2362.998 1.476 1.3375 1.2361 1.2953 1.267 1.2967 1.2771 1.1827 1.299 1.476
2382.288 1.516 1.496 1.546 1.496 1.3572 1.393 1.416 1.3417 1.3149 1.1079
2401.578 1.0555 1.2447 1.2982 1.244 1.1277 1.0787 1.0755 1.0105 1.0591 1.1505
2420.867 1.1906 1.0905 1.0018 1.0339 1.0917 1.2519 1.3949 1.2652 1.2413 1.3192
2440.157 1.1414 1.0344 1.0478 1.0324 1.1031 1.1507 1.1344 1.1684 1.2304 1.3132
2459.447 1.2003 1.1108 1.1293 1.225 1.3657 1.3039 1.2555 1.3442 1.406 1.325
2478.737 1.3296 1.3227 1.2498 1.3053 1.196 1.2147 1.2493 1.2568 1.516 1.486
2498.026 1.396 1.3244 1.1875 1.3032 1.363 1.3465 1.486 1.476 1.516 1.536
2517.316 1.446 1.546 1.636 1.536 1.576 1.756 1.616 1.446 1.496 1.576
2536.606 1.686 1.746 1.736 1.566 1.466 1.506 1.576 1.596 1.426 1.3019
2555.896 1.3472 1.3009 1.288 1.3474 1.3463 1.416 1.496 1.426 1.3232 1.2504
2575.186 1.3098 1.3747 1.3897 1.466 1.506 1.556 1.506 1.446 1.406 1.3474
2594.475 1.2354 1.1968 1.3222 1.466 1.436 1.3742 1.278 1.2182 1.2761 1.2284
2613.765 1.1986 1.2712 1.396 1.3128 1.1513 1.0648 0.943 0.8995 0.9757 0.9286
2633.055 0.8696 0.8184 0.893 0.9639 0.7256 0.8152 0.8192 0.5726 0.7869 0.9827
2652.345 0.9252 0.8484 0.6505 0.584 0.6735 0.8171 0.892 0.8723 0.8905 1.0356
2671.634 0.907 0.8779 0.9442 0.8394 0.9288 0.9243 0.9322 1.1108 1.369 1.2988
2690.924 1.1296 1.1476 0.9066 0.7142 0.8857 1.0388 1.0374 0.9854 0.9514 1.0311
2710.214 1.1689 1.1833 1.2574 1.426 1.436 1.2556 1.3517 1.546 1.341 1.3056
2729.504 1.476 1.526 1.456 1.2281 1.0105 0.993 1.1216 1.0899 1.0803 1.1463
2748.794 0.9631 0.9011 1.0593 1.0134 0.8677 0.9342 0.8356 0.7528 0.8073 0.8508
2768.083 1.0323 0.9393 0.8596 1.0411 1.105 1.0448 1.108 1.0911 1.0463 1.0733
2787.373 0.9144 0.6878 0.6805 0.8218 0.8933 0.784 0.7099 0.9644 1.0471 0.9151
2806.663 0.9192 0.9449 0.9662 0.9398 0.9489 1.0925 1.1774 1.094 0.9426 0.7638
2825.953 0.7734 0.7738 0.6824 0.7653 0.8656 0.8462 0.7885 0.9052 1.0307 1.0633
2845.242 0.9517 0.8793 0.8489 0.7843 0.7372 0.7608 0.9806 1.0721 1.1206 1.1893
2864.532 0.9581 0.6593 0.7783 1.08 1.0211 0.8573 0.9514 0.8584 0.7185 0.6394
2883.822 0.5242 0.6598 0.6372 0.7107 0.9781 0.9826 1.1748 1.2974 0.988 0.7536
2903.112 0.9075 1.0092 0.9454 1.0179 0.8935 0.8978 0.9569 0.8143 0.8817 1.0035
2922.401 0.6834 0.39477 0.8224 1.1492 0.9364 0.7787 0.6496 0.6964 0.8226 0.9678
2941.691 0.7641 0.47737 0.4741 0.5033 0.6664 0.7515 0.8065 0.63 0.6201 0.8207
2960.981 0.9798 1.2664 1.1491 0.8929 1.1707 1.2716 1.0387 1.1009 1.2583 1.2318
2980.271 1.2982 1.3026 1.396 1.616 1.606 1.836 1.816 1.606 1.796 1.826
2999.561 1.776 1.966 2.076 2.116 2.146 2.096 2.166 2.166 2.326 2.506
3018.850 2.766 3.136 3.206 3.236 3.576 3.956 4.366 4.846 5.416 5.976
3038.140 6.586 7.696 8.716 9.626 10.626 11.446 12.166 12.956 13.276 13.396
3057.430 13.686 13.716 13.556 13.506 13.266 12.936 12.716 12.586 12.746 13.056
3076.720 13.576 14.176 14.266 13.896 13.696 13.226 12.216 11.246 10.266 9.166
3096.009 8.366 7.796 7.126 6.606 6.036 5.356 4.716 4.136 3.866 3.516
3115.299 3.186 2.886 2.706 2.376 1.956 1.876 1.706 1.546 1.606 1.666
3134.589 1.786 1.836 1.646 1.566 1.506 1.313 1.406 1.3539 1.1027 1.1461
3153.879 1.2694 1.3029 1.143 0.9671 0.9468 0.9146 0.9243 1.1764 1.2433 1.1063
3173.169 0.9219 0.667 0.7532 0.736 0.7507 0.8744 0.9719 0.9771 0.9369 0.882
3192.458 0.6788 0.8194 0.9031 0.9062 0.9733 1.005 0.8928 0.6887 0.5575 0.6865
3211.748 0.7281 0.5877 0.5539 0.45551 0.43678 0.3587 0.3062 0.49188 0.6203 0.42054
3231.038 0.45059 0.5624 0.46274 0.5905 0.5183 0.5589 0.7937 0.6786 0.268 0.3463
3250.328 0.498 0.264 0.46485 0.8079 0.6782 0.38702 0.48493 1.0562 1.161 0.6727
3269.617 0.46719 0.39333 0.672 0.7102 0.7491 0.9426 0.741 0.6385 0.6441 0.41053
3288.907 0.3566 0.6069 0.7762 0.8557 0.9077 0.954 0.6287 0.44251 0.5927 0.6862
3308.197 0.685 0.599 0.3655 0.172 0.39161 0.5123 0.5553 0.7771 0.7615 0.5942
3327.487 0.7145 0.7077 0.6843 0.9418 0.8723 0.7612 0.7416 0.5957 0.6443 0.7657
3346.777 0.5284 0.5155 0.6097 0.7489 0.8883 1.16 1.2744 0.801 0.6996 0.6088
3366.066 0.5506 0.5186 0.352 0.3803 0.44672 0.47064 0.281 0.251 0.6046 0.7103
3385.356 0.5948 0.5485 0.47294 0.6931 0.8238 0.5663 0.7467 0.7337 0.49334 0.6442
3404.646 0.5557 0.147 0.40209 0.9522 0.7364 0.8542 0.8693 0.762 0.9882 0.9281
3423.936 0.7475 0.6118 0.8069 0.949 0.9073 0.9483 0.9647 0.9602 0.9659 0.8384
3443.225 0.8259 0.7854 0.7933 0.9381 0.7667 0.6102 0.6686 0.7514 0.8733 1.2109
3462.515 1.2064 0.8095 0.7089 0.8118 0.8867 0.6382 0.561 0.8227 0.9985 0.8487
3481.805 0.5703 0.6487 0.6993 0.6447 0.807 1.0186 1.1244 1.1798 1.0506 0.7852
3501.095 0.6353 0.6979 0.6366 0.6294 0.8259 0.6894 0.5997 0.589 0.6889 0.6743
3520.385 0.5114 0.6561 0.45435 0.40671 0.6868 0.6635 0.46363 0.3672 0.45006 0.7077
3539.674 0.8696 0.6158 0.39162 0.3245 0.43395 0.5849 0.667 0.8234 0.7058 0.7079
3558.964 0.9229 0.7307 0.7697 0.7722 0.7155 0.8099 0.5043 0.5157 0.8408 1.0012
3578.254 0.9049 0.8005 0.6763 0.5303 0.44612 0.252 0.3571 0.8218 0.8799 0.6274
3597.544 0.5919 0.47707 0.5194 0.6232 0.5685 0.3678 0.44004 0.5958 0.6279 0.7439
3616.833 0.6379 0.687 0.8766 0.8542 0.8984 0.9047 0.9562 0.9642 0.6653 0.5091
3636.123 0.5907 0.7931 0.9993 0.8881 0.6005 0.48018 0.278 0.42845 0.7377 0.9458
3655.413 0.9281 0.6613 0.4921 0.39355 0.5956 0.8105 0.9666 0.9458 0.686 0.6444
3674.703 0.8896 0.9871 0.8099 0.7686 0.7208 0.8024 1.1611 1.2642 1.0029 0.9806
3693.993 0.8014 0.5723 0.8041 0.6999 0.4965 0.7828 1.0306 0.818 0.6968 0.797
3713.282 0.6729 0.8245 0.8329 0.6683 0.5489 0.3827 0.4995 0.6334 0.5419 0.4288
3732.572 0.663 0.6953 0.5744 0.5507 0.47645 0.3857 0.23 0.40907 0.9867 0.9502
3751.862 0.6009 0.6092 0.8453 1.0482 0.9216 0.6359 0.6449 0.8261 0.6708 0.8597
3771.152 0.9699 0.68 0.573 0.6897 0.8844 1.0606 1.2789 1.0014 0.7128 0.5167
3790.441 0.5288 0.5597 0.4457 0.6008 0.43493 0.5621 0.8361 0.8042 0.8453 0.7761
3809.731 0.6523 0.6346 0.7248 0.6535 0.419 0.3658 0.5938 0.6506 0.6139 0.8661
3829.021 0.8274 0.5676 0.5713 0.822 0.9311 0.9502 1.0086 0.8721 0.7959 0.7401
3848.311 0.7177 0.7942 0.7735 0.8084 0.5919 0.5085 0.6394 0.6842 0.7491 0.7035
3867.601 0.8661 0.9472 0.7509 0.6819 0.7971 0.921 0.7771 0.7082 0.643 0.7092
3886.890 0.921 0.925 0.8051 0.745 0.8207 0.8043 0.9017 1.1027 1.0707 0.7259
3906.180 0.531 0.6181 0.7882 0.7188 0.6666 0.9788 1.0185 0.8907 0.7189 0.5575
3925.470 0.41392 0.502 0.7606 0.704 0.9238 1.0555 0.9405 1.0118 0.8805 0.6709
3944.760 0.7967 0.711 0.7915 0.9473 0.64 0.5612 0.826 1.0177 0.8866 0.5974
3964.049 0.3178 0.234 0.5325 0.8832 0.8857 0.873 0.8904 0.5988 0.47161 0.547
3983.339 0.655 0.8566 1.0315 0.8578 0.6802 0.7394 0.8269 0.7828 0.7624 0.809
##END=
