##TITLE=Bis(4-methoxyphenyl)phenylphosphine
##JCAMP-DX=4.24
##DATA TYPE=INFRARED SPECTRUM
##ORIGIN=EPA-IR VAPOR PHASE LIBRARY
##OWNER=SRD/NIST
Collection (C) 2018 copyright by the U.S. Secretary of Commerce
on behalf of the United States of America. All rights reserved.
##CAS REGISTRY NO=14180-51-9
##MOLFORM=C 20 H 19 O 2 P
##$NIST SOURCE=MSDC-IR
##STATE=gas
##XUNITS=1/CM
##YUNITS=ABSORBANCE
##XFACTOR=1.
##YFACTOR=0.001
##DELTAX=1.92898
##FIRSTX=549.8
##LASTX=4000.7
##FIRSTY=12.515
##MAXX=4000.7
##MINX=549.759
##MAXY=0.237555
##MINY=0
##NPOINTS=1790
##XYDATA=(X++(Y..Y))
549.759 12.515 11.365 10.365 9.435 8.645 8.315 8.085 7.565 6.915 6.485
569.049 6.125 5.555 5.275 5.075 4.835 4.225 4.345 4.725 4.455 4.075
588.339 3.935 3.675 3.465 3.575 3.655 3.435 2.985 3.165 3.165 2.975
607.628 2.775 2.775 2.745 2.525 2.805 2.885 2.875 2.985 2.795 2.625
626.918 2.585 2.575 2.725 2.945 3.065 3.005 2.695 2.405 2.555 2.445
646.208 2.235 2.245 2.235 2.265 2.315 2.565 2.675 2.845 3.355 3.545
665.498 3.825 4.515 5.135 5.425 5.615 6.235 6.855 7.305 8.255 9.945
684.787 11.965 14.605 18.235 22.535 26.345 28.795 28.995 26.545 22.835 19.285
704.077 16.455 14.075 12.305 10.825 9.565 9.095 8.835 8.425 8.295 7.865
723.367 7.585 8.045 8.615 9.835 11.975 14.705 18.155 21.915 25.035 26.635
742.657 25.775 22.765 18.455 13.945 10.705 8.485 6.725 5.825 5.255 4.935
761.947 5.065 4.815 4.475 4.275 4.435 4.895 4.925 5.165 6.065 7.065
781.236 8.885 11.585 15.235 20.055 25.015 29.525 32.335 32.885 31.785 29.565
800.526 27.385 25.845 25.095 24.825 24.585 24.195 24.005 24.125 25.335 28.245
819.816 32.895 39.505 47.215 53.475 55.605 52.715 45.555 36.495 28.115 21.705
839.106 17.255 14.255 12.245 10.855 9.775 8.795 8.185 7.975 7.475 6.775
858.395 6.085 5.475 5.165 4.815 4.265 3.735 3.295 3.125 3.105 2.845
877.685 2.515 2.315 2.195 2.235 2.215 2.185 1.925 1.755 1.915 1.885
896.975 1.955 2.095 2.125 2.035 2.065 2.295 2.415 2.345 2.285 2.215
916.265 2.025 1.975 1.955 2.105 1.965 1.655 2.005 2.195 2.155 2.215
935.555 2.025 2.035 2.205 2.095 2.215 2.285 2.305 2.405 2.575 2.755
954.844 2.905 3.065 3.375 3.645 3.525 3.425 3.585 3.885 4.235 4.385
974.134 4.355 4.665 4.635 4.485 4.825 5.175 5.415 5.675 6.145 6.935
993.424 7.785 8.645 9.885 10.895 11.485 12.795 14.575 16.245 17.705 18.745
1012.714 19.055 19.115 20.325 22.685 26.135 30.815 36.185 41.835 46.885 51.575
1032.003 55.565 57.845 59.465 59.215 56.115 51.445 45.795 39.045 32.975 28.825
1051.293 25.815 23.895 21.915 20.445 19.385 18.295 17.895 17.365 16.945 16.755
1070.583 16.955 17.745 19.115 20.865 23.555 27.835 34.235 43.705 55.175 65.765
1089.873 73.735 77.125 74.005 65.955 55.245 44.875 35.735 29.035 25.285 21.385
1109.163 18.755 17.125 14.645 13.285 11.935 10.845 10.775 10.035 9.155 8.905
1128.452 8.705 8.505 8.305 7.885 7.915 7.645 7.365 7.475 8.025 9.175
1147.742 9.675 9.705 10.485 12.045 13.935 15.835 17.865 21.775 27.655 36.515
1167.032 50.685 72.065 102.085 136.025 162.665 171.825 159.135 130.145 95.455 65.755
1186.322 46.025 34.045 27.555 23.205 19.845 18.155 18.015 18.105 17.765 17.705
1205.611 18.515 19.335 21.225 23.015 24.535 27.565 30.825 34.785 40.035 45.805
1224.901 52.535 62.195 73.495 86.625 101.475 119.365 141.475 166.415 192.605 215.925
1244.191 231.925 237.555 230.095 212.035 188.075 163.445 142.895 127.575 117.305 110.935
1263.481 108.525 109.755 114.165 121.125 129.055 137.675 145.735 151.485 153.165 149.135
1282.771 139.205 124.255 106.575 88.765 72.755 59.765 49.835 42.685 37.785 34.255
1302.060 31.875 29.975 27.585 24.745 21.885 19.225 17.025 15.275 13.895 12.935
1321.350 12.175 11.445 10.885 10.375 9.835 9.385 8.895 8.385 8.015 7.665
1340.640 7.325 7.075 6.865 6.755 6.655 6.495 6.285 6.055 5.915 5.815
1359.930 5.705 5.675 5.555 5.455 5.475 5.445 5.445 5.375 5.305 5.355
1379.219 5.365 5.505 5.725 5.995 6.465 6.935 7.525 8.305 9.095 9.745
1398.509 10.235 10.445 10.255 9.715 9.005 8.475 8.065 7.775 7.765 7.975
1417.799 8.265 8.795 9.515 10.465 11.835 13.835 16.485 19.395 22.345 24.785
1437.089 26.545 28.305 30.735 33.525 35.655 36.145 34.865 32.435 30.155 29.255
1456.378 29.875 31.735 34.635 38.125 41.705 45.165 47.895 49.555 50.235 50.335
1475.668 50.665 51.695 54.075 58.575 65.465 75.515 89.885 109.495 134.645 162.255
1494.958 185.755 196.815 189.065 163.665 127.415 91.685 63.155 44.465 33.535 26.785
1514.248 22.615 19.745 17.645 16.325 15.195 14.235 13.505 12.865 12.355 11.965
1533.538 11.725 11.535 11.515 11.625 11.765 12.075 12.535 13.045 13.775 14.815
1552.827 16.335 18.415 21.155 24.815 29.035 33.295 37.555 41.155 43.295 44.125
1572.117 44.265 44.905 47.255 51.915 59.045 68.735 80.725 94.675 109.415 123.515
1591.407 134.155 138.395 134.125 121.025 101.545 79.765 60.005 44.785 34.395 27.505
1610.697 22.885 19.675 17.265 15.215 13.455 12.025 10.795 9.945 9.225 8.645
1629.986 8.245 7.855 7.605 7.355 7.115 6.875 6.715 6.755 6.735 6.665
1649.276 6.695 6.725 6.635 6.315 5.845 5.295 4.775 4.295 3.975 3.755
1668.566 3.505 3.395 3.205 3.015 2.895 2.765 2.695 2.605 2.455 2.355
1687.856 2.305 2.245 2.215 2.035 1.925 2.005 2.035 1.975 1.955 1.905
1707.146 1.915 2.025 2.075 2.055 2.095 2.175 2.125 2.165 2.155 2.095
1726.435 2.145 2.195 2.225 2.355 2.505 2.485 2.465 2.525 2.615 2.635
1745.725 2.615 2.695 2.985 3.165 3.225 3.415 3.575 3.735 3.745 3.715
1765.015 3.685 3.465 3.285 3.145 3.075 3.145 3.075 2.905 2.775 2.645
1784.305 2.705 2.715 2.645 2.735 2.885 3.035 3.235 3.455 3.715 3.925
1803.594 4.065 4.045 3.815 3.485 3.205 2.965 2.685 2.565 2.555 2.455
1822.884 2.355 2.275 2.195 2.115 2.055 1.995 2.025 2.105 2.055 2.005
1842.174 2.125 2.335 2.435 2.445 2.525 2.705 2.915 3.125 3.315 3.535
1861.464 3.735 3.975 4.255 4.395 4.595 4.925 5.185 5.405 5.675 5.855
1880.754 6.095 6.545 6.965 7.155 7.165 7.035 6.625 6.135 5.635 5.025
1900.043 4.475 4.105 3.905 3.655 3.485 3.285 3.095 2.965 2.775 2.635
1919.333 2.475 2.415 2.395 2.305 2.185 2.145 2.185 2.315 2.415 2.535
1938.623 2.685 2.815 3.025 3.165 3.115 3.105 3.025 2.985 3.015 3.015
1957.913 3.135 3.195 3.175 3.175 3.165 3.135 3.075 3.035 2.995 2.785
1977.202 2.535 2.405 2.275 2.205 2.175 2.035 1.935 1.905 1.825 1.745
1996.492 1.785 1.805 1.755 1.765 1.795 1.845 1.945 2.085 2.265 2.365
2015.782 2.465 2.635 2.815 3.045 3.245 3.465 3.655 3.975 4.335 4.535
2035.072 4.715 4.945 5.135 5.275 5.435 5.435 5.455 5.525 5.475 5.495
2054.362 5.545 5.675 5.765 5.855 5.955 5.955 5.965 5.875 5.705 5.525
2073.651 5.295 5.005 4.715 4.265 3.825 3.565 3.265 2.955 2.765 2.565
2092.941 2.375 2.295 2.175 2.115 2.145 2.105 1.995 1.865 1.805 1.715
2112.231 1.655 1.625 1.595 1.545 1.465 1.425 1.355 1.345 1.345 1.2625
2131.521 1.1789 1.1392 1.0478 0.9634 0.9685 0.9297 0.7916 0.71 0.6899 0.7541
2150.810 0.7492 0.7365 0.7182 0.6697 0.7261 0.7936 0.8205 0.7771 0.7754 0.9381
2170.100 1.0605 1.0124 0.9683 0.9087 0.8971 0.9755 1.0957 1.0738 0.993 1.0116
2189.390 1.0486 1.0408 1.0541 1.0996 1.0921 1.0745 1.0036 0.9411 0.9605 0.9552
2208.680 1.0043 1.0394 0.9514 1.0154 1.0153 0.9046 0.9154 0.943 0.9224 0.8131
2227.970 0.7651 0.7754 0.7896 0.8619 0.8763 0.8344 0.7883 0.8004 0.8924 0.9453
2247.259 0.9833 1.0212 1.0734 1.1188 1.1565 1.1377 1.1608 1.1596 1.1474 1.335
2266.549 1.475 1.455 1.595 1.675 1.685 1.935 2.085 2.095 2.105 2.195
2285.839 2.175 2.165 2.105 1.915 1.845 1.825 1.785 1.695 1.625 1.595
2305.129 1.605 1.585 1.525 1.485 1.465 1.475 1.475 1.425 1.385 1.315
2324.418 1.2074 1.0852 1.0178 1.0181 0.9822 0.9724 1.0299 1.0717 1.1465 1.355
2343.708 1.2904 1.1483 1.2876 1.345 1.315 1.345 1.355 1.425 1.425 1.495
2362.998 1.545 1.435 1.465 1.555 1.695 1.805 1.805 1.815 1.895 1.925
2382.288 1.975 2.085 2.165 2.235 2.185 2.145 2.095 2.075 2.045 2.005
2401.578 1.905 1.785 1.685 1.665 1.675 1.695 1.695 1.615 1.675 1.645
2420.867 1.595 1.625 1.555 1.505 1.545 1.485 1.415 1.2396 1.0789 1.2117
2440.157 1.2624 1.335 1.455 1.315 1.3079 1.385 1.345 1.395 1.525 1.555
2459.447 1.475 1.505 1.455 1.405 1.495 1.525 1.615 1.615 1.415 1.435
2478.737 1.595 1.655 1.635 1.665 1.765 1.825 1.805 1.975 2.245 2.335
2498.026 2.435 2.575 2.735 2.955 3.125 3.215 3.325 3.495 3.715 3.815
2517.316 3.835 3.945 4.105 4.175 4.185 4.125 3.935 3.745 3.565 3.365
2536.606 3.155 2.905 2.625 2.435 2.415 2.445 2.435 2.385 2.285 2.175
2555.896 2.055 1.885 1.755 1.695 1.565 1.475 1.485 1.495 1.595 1.565
2575.186 1.445 1.545 1.665 1.605 1.425 1.425 1.485 1.385 1.425 1.405
2594.475 1.2526 1.365 1.525 1.445 1.425 1.385 1.2566 1.2512 1.325 1.2812
2613.765 1.1923 1.1137 0.9202 0.9136 1.0305 1.056 1.0446 1.1416 1.1704 1.1122
2633.055 1.1355 1.1166 1.1598 1.0942 1.052 1.0996 1.1363 1.1017 0.9826 0.9383
2652.345 0.9433 0.9742 1.0003 1.1674 1.1437 1.1812 1.239 1.1847 1.2341 1.2606
2671.634 1.405 1.345 1.355 1.335 1.3028 1.405 1.445 1.415 1.405 1.425
2690.924 1.365 1.345 1.345 1.3138 1.1601 1.0368 0.9604 0.9909 1.1064 1.0316
2710.214 0.9793 1.044 1.0395 1.0042 1.0203 1.0233 1.0281 1.0446 1.1021 1.2234
2729.504 1.228 1.0806 1.0916 1.0792 1.1065 1.2874 1.345 1.335 1.345 1.415
2748.794 1.545 1.515 1.405 1.465 1.555 1.555 1.545 1.705 1.765 1.725
2768.083 1.755 1.805 1.795 1.855 2.035 2.085 2.195 2.205 2.225 2.265
2787.373 2.365 2.625 2.775 2.835 2.905 3.095 3.335 3.495 3.705 3.945
2806.663 4.135 4.405 4.755 5.155 5.545 5.895 6.305 6.625 6.945 7.575
2825.953 8.265 9.085 10.055 11.215 13.205 15.945 19.445 23.955 28.445 31.605
2845.242 32.675 31.215 27.795 23.745 20.035 16.925 14.645 13.085 11.855 10.945
2864.532 10.435 9.985 9.555 9.215 8.885 8.695 8.655 8.615 8.515 8.665
2883.822 8.855 9.015 9.295 9.695 10.075 10.695 11.605 12.435 13.415 14.485
2903.112 15.555 16.765 18.065 19.275 20.255 21.215 21.855 21.915 21.775 21.535
2922.401 21.405 21.235 21.165 21.465 22.105 22.895 24.175 25.985 28.075 30.535
2941.691 33.255 35.965 38.215 39.695 40.175 39.705 38.215 36.395 34.905 33.415
2960.981 31.685 29.625 27.265 24.815 22.565 20.535 18.905 17.765 16.845 16.115
2980.271 15.735 15.575 15.575 15.755 16.235 17.145 18.075 19.535 22.005 24.845
2999.561 28.295 32.845 38.025 42.875 46.285 47.015 44.865 40.565 35.195 30.715
3018.850 27.525 25.315 23.745 22.415 21.395 20.365 19.155 18.075 17.025 16.005
3038.140 15.325 14.605 14.235 14.295 14.665 15.795 17.475 19.995 23.685 28.265
3057.430 33.545 38.935 43.045 45.055 44.975 43.015 40.095 37.465 35.495 33.705
3076.720 32.085 30.645 29.075 27.375 25.885 24.175 22.075 19.815 17.505 15.015
3096.009 13.055 11.815 10.535 9.365 8.495 7.605 6.705 6.105 5.465 4.935
3115.299 4.705 4.655 4.635 4.415 4.265 4.115 4.005 4.035 4.115 4.145
3134.589 3.835 3.765 3.585 3.305 3.185 2.925 2.495 2.225 1.845 1.685
3153.879 1.795 1.695 1.595 1.2711 1.2776 1.375 1.2444 1.111 1.1429 1.2195
3173.169 1.0705 0.9679 1.0426 1.0905 1.0611 0.9879 0.8549 0.6862 0.5584 0.6702
3192.458 0.8035 0.7949 0.8733 0.963 0.8552 0.8105 0.9778 1.0175 0.8977 0.8336
3211.748 0.732 0.7495 0.7399 0.6962 0.8183 0.5289 0.41377 0.5922 0.4573 0.39372
3231.038 0.457 0.4703 0.39189 0.5523 0.6977 0.4932 0.41208 0.3419 0.318867 0.36494
3250.328 0.315915 0.2185 0.37365 0.6913 0.5406 0.35834 0.34544 0.34546 0.2933 0.2461
3269.617 0.34622 0.4726 0.5132 0.5403 0.6913 0.5916 0.4369 0.4371 0.38811 0.2571
3288.907 0.2351 0.304 0.324708 0.319617 0.34995 0.3876 0.35701 0.37748 0.5138 0.6996
3308.197 0.6615 0.38938 0.3561 0.5324 0.5127 0.4477 0.33243 0.2925 0.4814 0.5105
3327.487 0.4309 0.37923 0.488 0.6887 0.6085 0.4267 0.36497 0.3801 0.39952 0.40071
3346.777 0.4784 0.4765 0.34715 0.2442 0.32975 0.39255 0.30733 0.30914 0.32852 0.2189
3366.066 0.1 0.193 0.208 0.2663 0.2227 0.153 0.2658 0.25 0.166 0.181
3385.356 0.198 0.158 0.205 0.2256 0.2868 0.4358 0.40944 0.40282 0.38385 0.192
3404.646 0.2184 0.156 0.04 0.208 0.283 0.187 0.144 0.097 0.067 0.212
3423.936 0.2192 0.2462 0.31178 0.2224 0.162 0.129 0.137 0.2687 0.319546 0.2843
3443.225 0.3006 0.2958 0.36842 0.38745 0.39161 0.4328 0.37548 0.2639 0.32517 0.36419
3462.515 0.35086 0.4585 0.39681 0.201 0.2887 0.32601 0.2485 0.3065 0.30929 0.173
3481.805 0.073 0.032 0.132 0.35679 0.38027 0.40267 0.34562 0.188 0 0.026
3501.095 0.2184 0.2989 0.33447 0.35116 0.3103 0.2943 0.3862 0.3118 0.174 0.2538
3520.385 0.4389 0.38899 0.33384 0.41357 0.39578 0.39836 0.5664 0.5124 0.4408 0.5398
3539.674 0.35536 0.139 0.194 0.204 0.18 0.40891 0.4233 0.321075 0.5296 0.4847
3558.964 0.33591 0.4492 0.493 0.35455 0.31035 0.30728 0.2507 0.323009 0.4381 0.4159
3578.254 0.4925 0.6711 0.4354 0.194 0.2576 0.4235 0.4275 0.5408 0.7409 0.4966
3597.544 0.199 0.145 0.211 0.33787 0.34075 0.3363 0.33236 0.4777 0.589 0.34317
3616.833 0.35261 0.4354 0.321459 0.4094 0.4364 0.36824 0.3436 0.32548 0.30608 0.4598
3636.123 0.7134 0.6985 0.5397 0.4472 0.4797 0.4693 0.36262 0.41363 0.5791 0.5888
3655.413 0.5856 0.5122 0.38378 0.417 0.319074 0.2273 0.43 0.4408 0.582 0.7203
3674.703 0.553 0.5994 0.6042 0.591 0.6433 0.36419 0.324181 0.6068 0.607 0.6574
3693.993 0.6573 0.4591 0.5352 0.6334 0.6048 0.5397 0.6094 0.6305 0.4247 0.3029
3713.282 0.2353 0.36609 0.6212 0.7472 0.6806 0.558 0.4838 0.4641 0.5303 0.6737
3732.572 0.5568 0.5556 0.7037 0.5389 0.2784 0.33811 0.6577 0.7549 0.655 0.7133
3751.862 0.5397 0.35226 0.4586 0.5499 0.6971 0.6239 0.5451 0.5182 0.4879 0.4332
3771.152 0.4186 0.3041 0.2987 0.37245 0.39406 0.35876 0.116 0.106 0.155 0.2528
3790.441 0.131 0.188 0.37619 0.36587 0.2576 0.061 0.039 0.2892 0.38287 0.4636
3809.731 0.5146 0.40501 0.4697 0.4843 0.38658 0.149 0.171 0.2655 0.3881 0.5501
3829.021 0.39845 0.32622 0.5788 0.591 0.4624 0.4493 0.2874 0.40146 0.5724 0.5918
3848.311 0.5665 0.513 0.6331 0.6488 0.6833 0.6692 0.5162 0.46 0.4695 0.5538
3867.601 0.6895 0.6635 0.5909 0.6486 0.7878 0.8505 0.7948 0.8244 0.9299 0.9837
3886.890 0.8588 0.7897 0.7633 0.5991 0.4618 0.35755 0.38071 0.346 0.34623 0.5396
3906.180 0.4363 0.096 0.038 0.3033 0.5368 0.5886 0.4213 0.087 0.16 0.4987
3925.470 0.678 0.6452 0.5221 0.5552 0.4145 0.2744 0.2867 0.33158 0.5106 0.5596
3944.760 0.498 0.321944 0.35468 0.4948 0.4897 0.6573 0.6873 0.5472 0.5278 0.5346
3964.049 0.5784 0.6448 0.6615 0.6206 0.4246 0.37908 0.4588 0.5331 0.8302 0.8052
3983.339 0.6473 0.6961 0.6163 0.6008 0.6441 0.5868 0.4693 0.41456 0.4109 0.40254
##END=
