##TITLE=Dodecyl methacrylate
##JCAMP-DX=4.24
##DATA TYPE=INFRARED SPECTRUM
##ORIGIN=EPA-IR VAPOR PHASE LIBRARY
##OWNER=SRD/NIST
Collection (C) 2018 copyright by the U.S. Secretary of Commerce
on behalf of the United States of America. All rights reserved.
##CAS REGISTRY NO=142-90-5
##MOLFORM=C 16 H 30 O 2
##$NIST SOURCE=MSDC-IR
##STATE=gas
##XUNITS=1/CM
##YUNITS=ABSORBANCE
##XFACTOR=1.
##YFACTOR=0.001
##DELTAX=3.85796
##FIRSTX=501.5
##LASTX=4000.7
##FIRSTY=0.2311
##MAXX=4000.7
##MINX=501.534
##MAXY=0.144003
##MINY=0
##NPOINTS=908
##XYDATA=(X++(Y..Y))
501.534 0.2311 0.1933 0 0.118 0.3581 0.4405 0.4708 0.5121 0.5231 0.4711
540.114 0.4357 0.4185 0.4406 0.3924 0.33862 0.30485 0.30673 0.3362 0.31939 0.508
578.693 0.6456 0.7994 1.0536 1.1756 1.263 1.283 1.263 1.1469 0.8136 0.6167
617.273 0.5972 0.5927 0.6615 0.7332 0.8356 1.0394 1.263 1.573 1.733 1.803
655.852 1.933 1.923 1.763 1.493 1.323 1.1282 0.9571 0.9142 0.8637 0.9276
694.432 0.9703 1.0767 1.353 1.613 1.913 2.263 2.433 2.433 2.403 2.323
733.011 2.173 2.013 1.873 1.733 1.633 1.623 1.603 1.573 1.573 1.593
771.591 1.603 1.583 1.643 1.813 2.053 2.433 2.953 3.593 4.373 5.133
810.170 5.633 5.613 5.143 4.403 3.653 3.163 2.853 2.643 2.453 2.373
848.750 2.283 2.213 2.163 2.083 2.073 2.133 2.223 2.283 2.363 2.523
887.330 2.673 2.773 2.933 3.183 3.563 4.053 4.633 5.453 6.553 7.903
925.909 9.603 11.423 12.803 13.063 12.053 10.283 8.443 7.123 6.313 5.873
964.489 5.683 5.643 5.773 5.953 6.133 6.343 6.523 6.633 6.733 7.013
1003.068 7.653 8.743 9.983 10.573 10.063 9.043 8.113 7.373 6.813 6.513
1041.648 6.243 5.903 5.713 5.513 5.373 5.293 5.183 5.123 5.043 4.893
1080.227 4.863 4.963 5.043 5.083 5.253 5.613 6.113 6.723 7.553 8.633
1118.807 10.143 12.363 15.333 19.343 25.173 33.743 45.953 62.963 84.463 106.763
1157.387 122.573 125.843 116.263 99.223 80.683 64.183 51.143 41.153 33.273 27.133
1195.966 22.313 18.433 15.383 12.983 11.103 9.733 8.643 7.843 7.223 6.623
1234.546 6.293 6.113 5.963 6.013 6.153 6.423 6.963 7.683 8.643 9.973
1273.125 12.033 15.073 19.513 25.813 33.113 38.523 39.283 36.353 33.673 33.583
1311.705 35.093 35.713 33.473 28.453 22.563 17.523 13.813 11.303 9.803 8.983
1350.284 8.543 8.193 7.843 7.523 7.353 7.283 7.373 7.713 8.133 8.363
1388.864 8.423 8.543 9.013 9.923 10.773 10.943 10.243 9.153 8.263 7.853
1427.443 7.893 8.363 9.263 10.523 12.033 13.813 15.933 18.073 19.693 20.053
1466.023 18.963 16.853 14.093 11.243 8.753 6.793 5.433 4.503 3.833 3.363
1504.603 2.983 2.653 2.463 2.293 2.143 2.043 1.993 1.903 1.823 1.743
1543.182 1.673 1.663 1.643 1.623 1.633 1.683 1.753 1.803 1.873 1.943
1581.762 2.013 2.103 2.193 2.313 2.483 2.703 2.993 3.323 3.693 4.143
1620.341 4.683 5.253 5.893 6.543 7.063 7.153 6.563 5.493 4.433 3.663
1658.921 3.243 3.023 2.983 3.063 3.273 3.583 3.953 4.433 5.033 5.703
1697.500 6.513 7.683 9.473 12.203 16.253 22.243 30.603 41.273 53.773 65.143
1736.080 70.443 66.203 54.793 41.403 29.543 20.693 14.503 10.373 7.743 6.113
1774.659 5.153 4.603 4.243 3.943 3.633 3.273 2.903 2.513 2.173 1.903
1813.239 1.683 1.523 1.383 1.293 1.2412 1.1852 1.1716 1.1678 1.174 1.2197
1851.819 1.283 1.353 1.443 1.553 1.653 1.733 1.773 1.773 1.723 1.603
1890.398 1.453 1.333 1.2151 1.1233 1.0664 1.0352 0.9952 0.9561 0.9384 0.9303
1928.978 0.9245 0.8985 0.8978 0.9074 0.8933 0.8952 0.9151 0.936 0.9289 0.9313
1967.557 0.9599 0.9812 0.9746 0.9851 0.9943 0.9668 0.9525 0.9509 0.9489 0.9492
2006.137 0.9384 0.9337 0.9161 0.9087 0.9295 0.9164 0.8985 0.8978 0.8968 0.9026
2044.716 0.9113 0.9095 0.8758 0.8454 0.852 0.8467 0.8276 0.8352 0.8565 0.8749
2083.296 0.8901 0.8995 0.9084 0.8794 0.8443 0.8425 0.8524 0.8501 0.8132 0.7988
2121.875 0.7984 0.7742 0.7772 0.7836 0.7709 0.7615 0.7457 0.7382 0.7329 0.7168
2160.455 0.7054 0.7071 0.7169 0.7217 0.7232 0.7147 0.6926 0.6881 0.6804 0.6716
2199.035 0.6682 0.668 0.6836 0.6806 0.6748 0.6824 0.6941 0.7038 0.7235 0.7217
2237.614 0.6998 0.6856 0.6954 0.7081 0.6777 0.6743 0.6864 0.6777 0.6956 0.7014
2276.194 0.6911 0.6862 0.688 0.722 0.7496 0.7629 0.8031 0.8383 0.8456 0.8694
2314.773 0.8912 0.8969 0.873 0.8435 0.8511 0.833 0.8025 0.783 0.7624 0.7443
2353.353 0.7135 0.7028 0.7059 0.6934 0.6667 0.6462 0.6484 0.6872 0.7015 0.6825
2391.932 0.6827 0.671 0.6622 0.6868 0.6944 0.6792 0.6884 0.6867 0.6914 0.6965
2430.512 0.6877 0.6847 0.6969 0.7008 0.7093 0.738 0.7459 0.743 0.7392 0.7353
2469.092 0.7269 0.734 0.7293 0.6987 0.7082 0.7303 0.691 0.6589 0.6944 0.7258
2507.671 0.7323 0.7454 0.7747 0.8085 0.8326 0.8529 0.8548 0.8936 0.9218 0.8993
2546.251 0.9047 0.9248 0.9513 0.9574 0.9501 0.9539 0.9755 1.0024 1.0318 1.04
2584.830 1.0204 1.0351 1.0743 1.0983 1.1295 1.1568 1.1473 1.1779 1.2081 1.2133
2623.410 1.263 1.313 1.313 1.343 1.383 1.423 1.443 1.503 1.553 1.583
2661.989 1.653 1.733 1.773 1.833 1.873 1.903 1.953 1.943 1.903 1.893
2700.569 1.863 1.823 1.823 1.823 1.803 1.823 1.883 1.943 2.003 2.113
2739.148 2.233 2.303 2.353 2.383 2.423 2.453 2.493 2.583 2.643 2.703
2777.728 2.863 3.053 3.243 3.453 3.683 3.953 4.273 4.573 4.953 5.453
2816.308 6.023 6.653 7.353 8.223 9.333 10.763 12.813 15.813 20.383 27.373
2854.887 36.783 46.663 52.953 53.113 48.643 42.813 38.073 35.103 33.313 32.413
2893.467 32.953 35.313 39.393 45.153 52.493 61.623 73.483 89.453 109.903 130.793
2932.046 144.003 143.763 131.423 112.493 92.913 77.243 67.193 62.043 59.633 56.973
2970.626 51.773 44.143 36.573 30.863 26.563 22.553 18.793 15.783 13.493 11.633
3009.205 10.083 8.863 7.943 7.233 6.603 5.983 5.433 4.983 4.653 4.383
3047.785 4.153 3.923 3.683 3.383 3.093 2.893 2.743 2.673 2.613 2.553
3086.364 2.543 2.603 2.793 3.013 3.273 3.613 3.643 3.173 2.553 2.093
3124.944 1.843 1.633 1.543 1.493 1.453 1.413 1.343 1.333 1.293 1.2271
3163.524 1.1776 1.1482 1.1197 1.1056 1.1205 1.133 1.1201 1.059 0.9847 0.9643
3202.103 0.9271 0.8628 0.8309 0.8548 0.8794 0.8544 0.8204 0.7949 0.7371 0.6818
3240.683 0.6968 0.7184 0.6966 0.6886 0.741 0.7394 0.7063 0.6953 0.6881 0.6692
3279.262 0.6274 0.6355 0.6378 0.6191 0.6347 0.6695 0.6475 0.6121 0.6464 0.6505
3317.842 0.602 0.6439 0.6547 0.6085 0.6533 0.6824 0.6884 0.7321 0.7498 0.762
3356.421 0.7653 0.7601 0.7677 0.7909 0.7505 0.7092 0.7338 0.7018 0.7272 0.735
3395.001 0.725 0.7539 0.7373 0.6907 0.6667 0.7002 0.7961 0.8774 0.8699 0.9116
3433.580 0.9939 1.0546 1.1318 1.2075 1.2125 1.243 1.303 1.273 1.2021 1.1067
3472.160 1.0303 0.946 0.8734 0.8135 0.7825 0.7164 0.6541 0.6279 0.6223 0.6437
3510.740 0.5922 0.5329 0.5688 0.5833 0.5709 0.5801 0.5601 0.5654 0.624 0.6615
3549.319 0.5881 0.5036 0.5267 0.5732 0.5792 0.599 0.6114 0.6375 0.5872 0.5355
3587.899 0.5654 0.5257 0.5505 0.6203 0.6771 0.694 0.6943 0.7358 0.6825 0.6661
3626.478 0.6877 0.6942 0.7306 0.7724 0.7582 0.6776 0.6531 0.7005 0.6981 0.7481
3665.058 0.7417 0.6412 0.6294 0.6745 0.7213 0.6807 0.6701 0.715 0.7489 0.7514
3703.637 0.7518 0.7081 0.6699 0.7012 0.7376 0.6987 0.6413 0.694 0.6963 0.6389
3742.217 0.6487 0.6751 0.6908 0.6996 0.7322 0.786 0.7897 0.7342 0.7262 0.7532
3780.797 0.7234 0.6783 0.7159 0.7987 0.7795 0.7326 0.7719 0.7986 0.7715 0.7645
3819.376 0.7057 0.7139 0.7501 0.73 0.7298 0.7484 0.7748 0.7972 0.7591 0.7055
3857.956 0.7245 0.7588 0.7692 0.7724 0.8234 0.803 0.8242 0.864 0.8527 0.8595
3896.535 0.7592 0.7111 0.7695 0.8133 0.8336 0.7382 0.7162 0.8577 0.8982 0.8789
3935.115 0.8685 0.847 0.8581 0.8782 0.9257 0.9068 0.8608 0.8282 0.7902 0.8639
3973.694 0.9313 0.886 0.8933 0.9481 0.972 1.0027 1.0438 1.0377
##END=
