##TITLE=Allyl heptanoate
##JCAMP-DX=4.24
##DATA TYPE=INFRARED SPECTRUM
##ORIGIN=NIST Mass Spectrometry Data Center
##OWNER=NIST Standard Reference Data Program
Collection (C) 2018 copyright by the U.S. Secretary of Commerce
on behalf of the United States of America. All rights reserved.
##CAS REGISTRY NO=142-19-8
##MOLFORM=C 10 H 18 O 2
##$NIST SOURCE=MSDC-IR
##SPECTROMETER/DATA SYSTEM=HP-GC/MS/IRD
##STATE=gas
##XUNITS=1/CM
##YUNITS=ABSORBANCE
##XFACTOR=1.0
##YFACTOR=0.000003500
##DELTAX=4.0
##FIRSTX=550.0
##LASTX=3846.0
##FIRSTY=0.000508
##MAXX=3846
##MINX=550
##MAXY=0.035
##MINY=0
##NPOINTS=825
##XYDATA=(X++(Y..Y))
550.0 145 70 0 16 13 25 41 33 20 39
590.0 88 104 107 111 117 118 113 111 116 124
630.0 112 85 73 53 27 38 59 49 45 57
670.0 68 62 50 48 52 52 39 46 53 69
710.0 94 109 131 159 176 178 171 168 158 134
750.0 124 115 103 109 125 119 115 109 94 76
790.0 72 80 89 97 110 129 153 186 189 198
830.0 221 235 253 261 260 274 302 325 336 352
870.0 381 409 446 472 496 532 575 623 697 808
910.0 957 1157 1415 1701 1940 2038 1942 1705 1424 1214
950.0 1107 1072 1096 1180 1317 1497 1732 2027 2380 2741
990.0 2999 3088 3030 2907 2807 2707 2577 2415 2205 1959
1030.0 1713 1518 1377 1266 1188 1116 1075 1068 1089 1142
1070.0 1216 1320 1461 1646 1894 2204 2540 2872 3143 3280
1110.0 3277 3199 3084 2987 2973 3090 3385 3907 4686 5708
1150.0 6886 8029 8848 9128 8827 8072 7077 6093 5316 4794
1190.0 4500 4369 4329 4349 4399 4470 4539 4624 4727 4800
1230.0 4785 4664 4431 4120 3796 3507 3259 3040 2874 2766
1270.0 2699 2641 2559 2428 2269 2104 1966 1872 1795 1732
1310.0 1674 1622 1569 1516 1489 1501 1535 1573 1597 1581
1350.0 1553 1550 1598 1690 1782 1830 1796 1690 1525 1325
1390.0 1128 952 834 781 774 800 851 922 1005 1087
1430.0 1156 1206 1253 1322 1421 1537 1626 1652 1589 1440
1470.0 1240 1021 819 648 515 421 348 295 255 227
1510.0 206 190 173 159 151 143 134 123 112 112
1550.0 110 104 97 97 97 99 99 95 98 101
1590.0 103 107 106 103 109 115 124 144 164 184
1630.0 210 248 291 335 364 371 350 311 272 244
1670.0 241 250 260 275 307 358 421 499 598 720
1710.0 867 1038 1252 1545 1944 2510 3356 4567 6116 7796
1750.0 9232 10000 9810 8703 7019 5220 3709 2641 1931 1455
1790.0 1126 892 721 591 494 417 361 317 278 245
1830.0 226 217 203 197 198 201 208 210 202 189
1870.0 176 152 131 115 103 98 93 90 84 81
1910.0 80 76 75 74 71 72 76 74 68 67
1950.0 68 70 74 76 72 73 78 77 77 77
1990.0 74 73 73 73 71 69 66 63 66 67
2030.0 65 63 63 60 55 53 57 55 47 42
2070.0 45 50 45 40 39 39 36 31 32 36
2110.0 32 22 24 24 26 30 29 23 19 20
2150.0 18 22 21 12 16 18 16 17 15 13
2190.0 11 8 10 11 8 12 12 9 15 18
2230.0 12 12 16 21 21 21 23 23 18 13
2270.0 12 18 19 16 17 15 14 9 11 20
2310.0 19 22 26 22 19 16 22 22 16 22
2350.0 27 23 19 15 14 17 20 23 23 18
2390.0 13 14 18 20 16 12 13 16 15 10
2430.0 11 11 10 14 19 17 17 17 14 17
2470.0 16 11 8 13 12 10 13 13 12 11
2510.0 10 15 19 18 19 18 18 24 25 21
2550.0 23 23 27 34 32 33 36 34 37 38
2590.0 32 33 40 49 50 49 49 54 56 55
2630.0 54 50 53 68 69 63 64 73 80 83
2670.0 90 91 90 92 91 88 96 94 90 94
2710.0 99 101 104 111 115 125 132 140 145 150
2750.0 151 153 158 154 158 165 170 180 201 222
2790.0 244 267 290 313 341 373 409 445 486 549
2830.0 612 684 795 952 1153 1438 1820 2242 2662 3001
2870.0 3203 3278 3271 3204 3079 2922 2801 2792 2918 3190
2910.0 3609 4163 4846 5651 6505 7285 7891 8212 8199 7909
2950.0 7455 7005 6709 6566 6436 6056 5321 4363 3428 2734
2990.0 2249 1893 1613 1392 1216 1071 973 917 864 806
3030.0 738 650 562 488 439 416 394 379 383 398
3070.0 418 458 514 554 613 689 721 713 663 560
3110.0 449 350 274 230 192 161 142 141 138 115
3150.0 107 104 99 94 86 91 89 84 90 88
3190.0 78 73 66 63 60 55 61 48 25 24
3230.0 39 42 36 35 40 41 40 30 28 33
3270.0 38 37 30 34 35 28 28 30 26 32
3310.0 34 21 17 25 31 26 30 25 21 23
3350.0 24 18 21 30 25 19 23 31 31 23
3390.0 17 24 27 27 35 28 27 42 44 33
3430.0 36 46 41 40 40 31 25 38 59 73
3470.0 79 85 98 108 114 127 129 116 110 96
3510.0 89 91 66 45 49 50 57 58 47 45
3550.0 39 30 32 29 36 35 35 47 35 22
3590.0 29 28 28 33 22 19 27 33 42 31
3630.0 28 33 25 40 46 25 21 37 37 36
3670.0 44 34 18 9 10 18 21 27 33 44
3710.0 48 39 22 20 33 24 9 15 33 32
3750.0 22 31 35 30 32 35 36 41 52 47
3790.0 38 34 38 47 50 46 46 47 39 37
3830.0 42 40 40 32 29
##END=
