##TITLE=2-Bromo-4-fluorotoluene
##JCAMP-DX=4.24
##DATA TYPE=INFRARED SPECTRUM
##ORIGIN=EPA-IR VAPOR PHASE LIBRARY
##OWNER=SRD/NIST
Collection (C) 2018 copyright by the U.S. Secretary of Commerce
on behalf of the United States of America. All rights reserved.
##CAS REGISTRY NO=1422-53-3
##MOLFORM=C 7 H 6 Br F
##$NIST SOURCE=MSDC-IR
##STATE=gas
##XUNITS=1/CM
##YUNITS=ABSORBANCE
##XFACTOR=1.
##YFACTOR=0.001
##DELTAX=1.92934
##FIRSTX=549.9
##LASTX=3999.5
##FIRSTY=4.43
##MAXX=3999.53
##MINX=549.863
##MAXY=0.23597
##MINY=0
##NPOINTS=1789
##XYDATA=(X++(Y..Y))
549.863 4.43 5.2 5.95 6.56 7 7.76 9.17 10.69 10.14 8.26
569.156 7.26 6.58 5.89 5.33 4.74 4.04 3.35 2.93 2.5703 2.233
588.450 1.9652 1.77628 1.6991 1.632 1.6681 1.7215 1.634 1.569 1.535 1.45
607.743 1.445 1.519 1.608 1.677 1.7094 1.75154 1.77272 1.77355 1.76539 1.8511
627.037 1.8978 1.78006 1.73345 1.77321 1.79352 1.74192 1.73744 1.7301 1.74318 1.82965
646.330 1.81551 1.901 2.0444 2.296 2.5519 2.95 3.56 4.29 5.27 6.45
665.624 8.08 10.22 12.27 13.52 13.61 13.4 13.32 13.6 14.48 14.42
684.917 12.84 9.89 7.2 5.99 5.36 4.79 4.27 3.78 3.24 2.83
704.210 2.628 2.5638 2.6569 2.98 3.32 3.66 4.23 5.04 6.03 7.24
723.504 8.87 11.08 14.02 17.89 22.57 27.81 32.62 35.55 35.9 35
742.797 33.48 30.91 28.16 23.82 17.45 11.54 7.53 5.35 4.3 3.92
762.091 3.78 3.7 3.75 3.8 3.82 3.9 4 4.15 4.4 4.87
781.384 5.67 6.83 8.64 11.26 14.51 18.4 22.74 27.21 31.73 36.61
800.678 42.64 49.92 56.47 56.95 48.58 39.37 34.64 31.32 27.52 23.18
819.971 18.69 14.59 11.33 8.89 7.27 6.31 5.68 5.49 5.67 6.19
839.264 7.39 9.34 12.13 16.01 20.87 26.54 32.82 39.64 47.16 56.74
858.558 70.32 88.15 101.5 100.59 96.3 97.59 99.39 98.79 95.91 92.88
877.851 90.39 88.39 87.06 84.08 78.83 73.9 69.84 64.91 60 53.3
897.145 42.96 32.25 23.47 17.17 13.1 10.66 9.21 8.29 7.68 7.28
916.438 6.95 6.65 6.39 6.23 6.15 6.14 6.15 6.08 5.99 5.77
935.732 5.49 5.26 4.99 4.65 4.25 3.93 3.69 3.43 3.25 3.13
955.025 3.05 2.99 2.99 3.1 3.26 3.56 3.82 4.08 4.45 4.85
974.318 5.29 5.84 6.5 7.18 7.98 8.84 9.74 10.74 11.69 12.47
993.612 13.05 13.42 13.57 13.46 13.14 12.56 11.73 10.86 10.18 9.76
1012.905 9.74 10.27 11.61 14.01 17.72 22.86 28.86 34.69 39.24 41.98
1032.199 43.71 45.06 45.14 43.92 40.56 33.93 26.44 20.67 17.07 14.84
1051.492 13.21 11.61 9.68 7.71 6.22 5.3 4.67 4.21 3.82 3.41
1070.786 3.05 2.78 2.612 2.4221 2.2956 2.1969 2.0122 1.9613 1.9437 1.82269
1090.079 1.7035 1.6542 1.667 1.647 1.6906 1.74636 1.73044 1.83578 1.9027 1.9194
1109.372 2.0843 2.2551 2.4119 2.6369 2.89 3.22 3.56 3.94 4.36 4.69
1128.666 4.87 5.01 5.1 5.02 4.81 4.57 4.41 4.23 3.89 3.59
1147.959 3.44 3.41 3.43 3.62 4.03 4.76 5.92 7.44 9.7 12.59
1167.253 16.01 19.93 23.65 26.32 27.63 27.91 27.9 28.62 29.25 28.2
1186.546 25.24 21.53 18.64 16.66 15.42 14.52 13.51 12.74 12.46 12.77
1205.840 13.17 13.66 14.61 16.17 19.15 23.79 30.16 38.61 48.59 59.58
1225.133 70.68 80.35 87.38 91.46 93.12 93.51 92.56 88.37 79.51 67.01
1244.426 54.23 44.18 37.9 35.36 35.8 38.85 44.01 49.7 54.05 56.35
1263.720 58.41 61.87 66.23 68.74 65.88 58.18 49.72 43.56 39.84 36.61
1283.013 31.83 25.71 19.77 14.9 11.33 8.78 6.91 5.56 4.61 4.04
1302.307 3.69 3.37 3.18 3.06 2.97 2.95 2.9 2.87 2.86 2.88
1321.600 2.93 2.94 3.03 3.16 3.23 3.31 3.34 3.42 3.52 3.58
1340.894 3.7 3.84 3.99 4.21 4.53 4.87 5.25 5.77 6.47 7.23
1360.187 8.01 8.73 9.28 9.74 10.12 10.47 10.99 11.61 12.37 13.34
1379.480 14.53 15.72 16.7 17.55 18.19 18.37 18.3 17.74 16.46 14.98
1398.774 13.59 12.23 10.99 10.1 9.62 9.49 9.75 10.46 11.59 13.08
1418.067 14.77 16.53 17.99 19.04 19.9 20.56 21.04 21.28 21.19 20.82
1437.361 20.35 20.03 20.07 20.43 20.99 21.54 21.86 22.05 22.31 22.76
1456.654 23.5 24.45 25.88 28.08 31.37 36.11 42.81 52.26 65.26 82.42
1475.948 103.43 128.46 155.25 181.89 204.88 221.88 232.08 235.97 233.5 224.87
1495.241 208.7 184.22 155.19 125.5 98.97 77.75 60.55 46.98 36.4 27.98
1514.534 21.81 17.38 14.22 12.11 10.64 9.69 9.03 8.57 8.33 8.25
1533.828 8.39 8.64 9.07 9.63 10.14 10.64 11.22 11.79 12.34 12.87
1553.121 13.44 14.09 14.73 15.47 16.18 16.95 18.16 19.89 22.23 25.28
1572.415 29.11 34.02 40.63 48.92 58.8 70.62 83.85 98.17 112.83 126.99
1591.708 139.15 147.41 150.01 146.39 137.78 126.45 113.74 100.09 85.86 71.57
1611.002 58.11 46.36 37.33 30.46 25.35 21.67 18.78 16.54 14.83 13.5
1630.295 12.46 11.58 10.9 10.35 9.79 9.21 8.58 7.99 7.43 6.94
1649.588 6.51 6.16 5.79 5.39 4.99 4.64 4.35 4.07 3.81 3.59
1668.882 3.45 3.29 3.18 3.09 2.94 2.8 2.6618 2.6183 2.5843 2.537
1688.175 2.5397 2.5753 2.5944 2.6643 2.8 2.92 3.13 3.4 3.7 4.07
1707.469 4.44 4.87 5.38 5.82 6.2 6.48 6.56 6.6 6.68 6.73
1726.762 6.77 6.65 6.27 5.88 5.46 5.04 4.68 4.3 3.89 3.48
1746.056 3.1 2.77 2.527 2.3018 2.128 2.0177 1.9332 1.8577 1.81962 1.74297
1765.349 1.6671 1.626 1.564 1.547 1.532 1.473 1.396 1.362 1.413 1.438
1784.642 1.414 1.389 1.375 1.385 1.382 1.398 1.384 1.357 1.392 1.399
1803.936 1.388 1.355 1.314 1.285 1.31 1.323 1.29 1.316 1.329 1.326
1823.229 1.332 1.377 1.445 1.464 1.538 1.593 1.6454 1.74677 1.8543 1.9987
1842.523 2.1539 2.3188 2.5048 2.76 3.06 3.35 3.71 4.1 4.53 4.98
1861.816 5.37 5.62 5.7 5.62 5.39 5.13 4.83 4.38 3.85 3.31
1881.110 2.81 2.397 2.0576 1.8977 1.78523 1.6794 1.602 1.561 1.542 1.495
1900.403 1.526 1.551 1.562 1.553 1.514 1.499 1.503 1.543 1.558 1.522
1919.696 1.477 1.467 1.444 1.435 1.466 1.473 1.485 1.472 1.519 1.594
1938.990 1.597 1.628 1.614 1.601 1.6417 1.6679 1.73645 1.79159 1.848 1.9123
1958.283 1.9872 2.0611 2.1507 2.2453 2.3086 2.3349 2.321 2.3065 2.2529 2.1633
1977.577 2.0465 1.9107 1.8001 1.6725 1.534 1.442 1.379 1.339 1.294 1.288
1996.870 1.31 1.292 1.296 1.329 1.334 1.308 1.324 1.371 1.404 1.348
2016.164 1.305 1.338 1.311 1.291 1.31 1.283 1.256 1.212 1.168 1.241
2035.457 1.278 1.305 1.376 1.392 1.435 1.53 1.558 1.572 1.582 1.605
2054.750 1.6458 1.6697 1.7006 1.7262 1.727 1.6895 1.7046 1.701 1.635 1.608
2074.044 1.587 1.532 1.507 1.494 1.455 1.425 1.42 1.463 1.497 1.53
2093.337 1.605 1.6701 1.6773 1.6942 1.76132 1.79144 1.8148 1.8785 1.9005 1.924
2112.631 1.9906 1.9927 1.9301 1.9293 1.9837 1.9623 1.915 1.873 1.82702 1.77415
2131.924 1.7074 1.6469 1.589 1.546 1.503 1.482 1.472 1.465 1.468 1.487
2151.218 1.459 1.436 1.483 1.514 1.468 1.405 1.391 1.368 1.376 1.395
2170.511 1.313 1.2 1.132 1.086 1.052 1.02 1.002 0.999 0.952 0.936
2189.804 0.943 0.946 0.953 0.965 0.948 0.94 0.961 0.946 0.958 0.985
2209.098 1 1.002 0.981 0.969 0.976 0.967 0.98 1.011 0.963 0.953
2228.391 1.008 1.033 1.033 1.019 1.036 1.043 1.06 1.079 1.057 1.082
2247.685 1.109 1.118 1.174 1.168 1.168 1.186 1.199 1.25 1.301 1.309
2266.978 1.309 1.282 1.254 1.259 1.258 1.275 1.261 1.24 1.245 1.237
2286.272 1.234 1.238 1.251 1.267 1.293 1.375 1.417 1.412 1.478 1.524
2305.565 1.522 1.511 1.489 1.452 1.399 1.367 1.337 1.341 1.316 1.235
2324.858 1.218 1.255 1.288 1.259 1.217 1.222 1.269 1.291 1.283 1.315
2344.152 1.333 1.349 1.396 1.447 1.503 1.561 1.585 1.63 1.6601 1.6623
2363.445 1.6555 1.6658 1.7269 1.76575 1.74925 1.74253 1.7013 1.6673 1.6459 1.63
2382.739 1.636 1.576 1.524 1.56 1.592 1.595 1.586 1.587 1.629 1.656
2402.032 1.675 1.6855 1.7041 1.7137 1.7018 1.73 1.74246 1.7195 1.64 1.579
2421.326 1.567 1.534 1.529 1.517 1.509 1.521 1.553 1.607 1.6578 1.6834
2440.619 1.73179 1.77728 1.83298 1.8928 1.918 1.9699 2.0083 2.0848 2.1277 2.1129
2459.912 2.127 2.1698 2.2315 2.2701 2.2922 2.2892 2.2461 2.2219 2.2563 2.2014
2479.206 2.1683 2.2052 2.2387 2.289 2.3398 2.39 2.3623 2.3318 2.3609 2.3339
2498.499 2.2633 2.1919 2.0383 1.9254 1.8572 1.75956 1.6787 1.579 1.528 1.492
2517.793 1.487 1.471 1.413 1.388 1.339 1.334 1.364 1.391 1.406 1.418
2537.086 1.385 1.357 1.375 1.342 1.308 1.267 1.217 1.196 1.152 1.101
2556.380 1.08 1.109 1.093 1.071 1.057 1.03 1.048 1.061 1.078 1.047
2575.673 1.006 1.002 1.038 1.04 0.984 0.974 1.003 1.04 1.029 0.964
2594.966 0.986 1.081 1.147 1.148 1.14 1.215 1.233 1.217 1.277 1.318
2614.260 1.368 1.427 1.461 1.506 1.5 1.429 1.353 1.292 1.284 1.256
2633.553 1.193 1.18 1.119 1.072 1.096 1.131 1.113 1.074 1.082 1.122
2652.847 1.177 1.165 1.202 1.228 1.207 1.201 1.222 1.236 1.152 1.097
2672.140 1.078 1.054 1.036 0.99 0.986 1.022 1.016 1.011 0.98 0.914
2691.434 0.945 1 0.985 0.99 1.05 1.109 1.072 1.114 1.155 1.094
2710.727 1.145 1.246 1.35 1.44 1.394 1.346 1.401 1.396 1.418 1.46
2730.020 1.48 1.489 1.469 1.493 1.496 1.564 1.74345 1.8481 1.9228 2.0235
2749.314 2.0605 2.0615 2.0452 2.057 2.0277 1.9192 1.79334 1.6704 1.55 1.419
2768.607 1.319 1.2 1.183 1.178 1.122 1.124 1.109 1.09 1.057 1.063
2787.901 1.045 1.033 1.054 1.06 1.076 1.098 1.164 1.179 1.223 1.338
2807.194 1.374 1.483 1.498 1.432 1.576 1.707 1.81372 1.9201 1.9927 2.1661
2826.488 2.2672 2.3527 2.493 2.5876 2.78 2.96 3.09 3.25 3.41 3.61
2845.781 3.81 4 4.16 4.39 4.7 4.96 5.19 5.55 5.91 6.31
2865.074 6.87 7.21 7.59 8.11 8.43 8.54 8.55 8.5 8.36 8.16
2884.368 7.91 7.69 7.44 7.16 6.95 6.69 6.48 6.47 6.59 6.69
2903.661 6.83 7.11 7.38 7.6 7.96 8.39 8.85 9.48 10.23 11.12
2922.955 12.31 13.75 15.25 16.89 18.76 20.47 21.68 22.37 22.73 22.75
2942.248 22.46 21.9 20.86 19.45 17.86 16.51 15.48 14.7 14.25 14.12
2961.542 14.17 14.53 15.06 15.25 15.2 15.18 15.19 15.28 15.48 15.71
2980.835 15.76 15.64 15.52 15.21 14.74 14.21 13.68 13.1 12.31 11.32
3000.128 10.26 9.33 8.72 8.08 7.49 7.1 6.92 6.8 6.71 6.9
3019.422 7.18 7.71 8.41 9.08 9.82 10.6 11.45 12.28 12.81 13.01
3038.715 12.89 12.56 12.24 11.88 11.24 10.35 9.39 8.54 7.87 7.44
3058.009 7.33 7.47 7.84 8.44 9.09 9.73 10.43 10.9 11.15 11.32
3077.302 11.22 10.84 10.4 9.9 9.28 8.48 7.59 6.87 6.12 5.58
3096.596 5.18 4.7 4.34 3.89 3.42 3.02 2.76 2.5511 2.3265 2.177
3115.889 1.9174 1.6613 1.565 1.398 1.273 1.229 1.115 1.033 0.934 0.827
3135.182 0.868 0.887 0.782 0.68 0.761 0.745 0.7 0.772 0.69 0.56
3154.476 0.42 0.47 0.55 0.67 0.71 0.55 0.53 0.62 0.54 0.46
3173.769 0.5 0.5 0.52 0.43 0.37 0.39 0.46 0.57 0.56 0.44
3193.063 0.3 0.31 0.41 0.44 0.39 0.35 0.37 0.31 0.25 0.23
3212.356 0.12 0.08 0.22 0.32 0.28 0.21 0.16 0.1 0.11 0.21
3231.650 0.26 0.2 0.09 0.14 0.22 0.26 0.27 0.29 0.23 0.05
3250.943 0 0.1 0.16 0.11 0.2 0.35 0.22 0.11 0.15 0.15
3270.236 0.13 0.1 0.27 0.28 0.21 0.22 0.15 0.19 0.13 0.11
3289.530 0.16 0.22 0.33 0.37 0.28 0.21 0.31 0.29 0.15 0.1
3308.823 0.14 0.32 0.34 0.25 0.26 0.18 0.16 0.19 0.2 0.28
3328.117 0.34 0.29 0.21 0.2 0.27 0.34 0.36 0.41 0.33 0.17
3347.410 0.18 0.26 0.24 0.31 0.36 0.33 0.35 0.42 0.41 0.35
3366.704 0.39 0.32 0.31 0.32 0.24 0.26 0.29 0.32 0.42 0.47
3385.997 0.46 0.42 0.3 0.27 0.34 0.39 0.33 0.27 0.42 0.47
3405.290 0.48 0.59 0.62 0.46 0.34 0.34 0.35 0.46 0.37 0.23
3424.584 0.25 0.31 0.39 0.51 0.57 0.44 0.46 0.55 0.41 0.49
3443.877 0.59 0.59 0.6 0.48 0.5 0.61 0.6 0.54 0.58 0.56
3463.171 0.37 0.35 0.49 0.53 0.58 0.62 0.65 0.62 0.55 0.61
3482.464 0.61 0.58 0.47 0.38 0.45 0.54 0.57 0.69 0.793 0.69
3501.758 0.56 0.49 0.61 0.7 0.75 0.782 0.72 0.61 0.5 0.58
3521.051 0.68 0.69 0.63 0.65 0.64 0.65 0.749 0.776 0.793 0.755
3540.344 0.71 0.66 0.62 0.66 0.819 0.895 0.888 0.812 0.757 0.813
3559.638 0.74 0.68 0.66 0.61 0.54 0.56 0.68 0.744 0.75 0.67
3578.931 0.56 0.59 0.68 0.7 0.69 0.768 0.828 0.74 0.68 0.62
3598.225 0.62 0.68 0.69 0.66 0.63 0.63 0.66 0.66 0.69 0.7
3617.518 0.64 0.65 0.68 0.62 0.66 0.68 0.62 0.72 0.743 0.68
3636.812 0.69 0.66 0.63 0.74 0.907 0.977 0.878 0.743 0.77 0.763
3656.105 0.72 0.763 0.822 0.795 0.74 0.68 0.73 0.862 0.798 0.817
3675.398 0.782 0.68 0.769 0.844 0.845 0.854 0.924 0.969 0.908 0.835
3694.692 0.836 0.904 0.997 1.018 1.1 1.099 1.051 1.182 1.221 1.138
3713.985 1.115 1.096 1.122 1.097 1.048 1.012 1.005 0.929 0.848 0.919
3733.279 0.94 0.832 0.853 0.955 0.935 0.946 1.002 0.989 0.937 1.041
3752.572 1.082 0.986 1.021 1.051 1.042 1.101 1.154 1.118 1.118 1.261
3771.866 1.229 1.158 1.162 1.177 1.218 1.123 1.002 1.025 1.011 1.034
3791.159 1.063 1.007 1.026 1.104 1.098 1.044 1.03 1.035 1.069 1.075
3810.452 1.037 0.99 1 1.013 1 1.015 1.028 0.971 1.013 1.098
3829.746 1.071 1.058 1.028 1.053 1.101 1.098 1.018 0.988 1.079 1.022
3849.039 1.009 1.068 1.128 1.119 1.033 1.021 1.008 0.975 0.9 0.855
3868.333 0.949 0.969 0.908 0.894 0.876 0.837 0.854 0.961 1.006 1.022
3887.626 0.985 0.941 0.947 0.898 0.876 0.924 0.89 0.896 0.906 0.912
3906.920 0.877 0.779 0.838 0.937 0.961 0.988 1.082 1.004 0.945 1.009
3926.213 0.984 0.957 0.952 0.953 1.015 0.968 0.923 0.953 0.959 1.036
3945.506 1.049 1.036 1.104 1.181 1.193 1.211 1.242 1.2 1.162 1.176
3964.800 1.217 1.235 1.152 1.079 1.108 1.161 1.155 1.115 1.06 1.022
3984.093 1.038 1.089 1.134 1.101 0.994 0.846 0.908 1.08 1.067
##END=
