##TITLE=2,4,6-Trimethoxynitrobenzene
##JCAMP-DX=4.24
##DATA TYPE=INFRARED SPECTRUM
##ORIGIN=EPA-IR VAPOR PHASE LIBRARY
##OWNER=SRD/NIST
Collection (C) 2018 copyright by the U.S. Secretary of Commerce
on behalf of the United States of America. All rights reserved.
##CAS REGISTRY NO=14227-18-0
##MOLFORM=C 9 H 11 N O 5
##$NIST SOURCE=MSDC-IR
##STATE=gas
##XUNITS=1/CM
##YUNITS=ABSORBANCE
##XFACTOR=1.
##YFACTOR=0.001
##DELTAX=1.92898
##FIRSTX=549.8
##LASTX=4000.7
##FIRSTY=1.1501
##MAXX=4000.7
##MINX=549.759
##MAXY=0.065325
##MINY=0
##NPOINTS=1790
##XYDATA=(X++(Y..Y))
549.759 1.1501 1.5241 2.265 3.305 2.915 2.895 2.915 2.915 2.875 1.7635
569.049 1.7031 1.955 2.125 2.405 2.205 2.795 2.695 1.5955 1.4033 2.175
588.339 2.745 3.035 3.745 3.735 3.435 3.205 3.075 3.275 3.345 3.375
607.628 3.455 3.635 3.685 3.925 4.605 4.925 5.025 5.715 5.955 5.605
626.918 5.235 5.335 5.705 5.965 5.785 5.895 6.995 6.765 5.925 5.935
646.208 5.095 3.965 3.625 3.755 3.345 2.495 2.635 2.975 2.725 2.975
665.498 3.045 2.415 2.275 2.485 2.855 3.055 2.635 2.605 2.535 2.435
684.787 2.245 1.8922 1.915 1.7161 1.7712 2.245 2.505 2.525 2.015 1.5637
704.077 1.8573 2.115 2.075 1.935 1.925 1.7945 1.8882 1.5256 1.1135 1.701
723.367 2.065 1.8799 1.6303 1.4912 1.6147 1.4149 1.3647 1.6155 1.7067 1.985
742.657 2.345 2.525 2.095 2.225 2.305 2.255 2.435 2.355 2.205 2.175
761.947 2.375 2.375 2.305 2.165 1.8881 2.045 2.535 2.655 2.515 2.535
781.236 2.665 2.345 2.235 2.895 3.115 2.745 2.535 2.425 2.475 2.745
800.526 3.125 2.825 2.615 3.105 3.325 3.505 4.065 5.265 5.995 6.115
819.816 6.145 5.975 6.705 6.885 7.065 7.655 8.185 9.445 10.185 10.445
839.106 10.405 10.135 9.035 7.845 6.955 5.425 3.925 3.025 2.785 2.245
858.395 1.7661 1.985 2.175 2.315 2.295 2.095 2.095 1.7224 1.9113 2.165
877.685 1.8178 1.985 1.995 1.8105 1.3278 1.4172 2.175 2.215 1.945 2.145
896.975 2.255 2.245 2.755 2.875 2.515 2.475 2.305 2.405 2.515 2.625
916.265 3.025 3.095 2.935 2.855 3.185 3.675 3.775 3.355 3.355 4.185
935.555 4.495 4.635 5.175 5.475 5.605 5.285 4.545 3.835 3.815 4.625
954.844 4.545 3.515 2.975 2.705 2.945 3.175 3.025 3.195 3.035 2.685
974.134 2.755 3.055 3.495 3.255 2.605 2.665 2.835 3.005 3.385 3.615
993.424 3.115 2.545 2.455 2.915 3.285 2.805 2.715 3.345 3.335 3.445
1012.714 4.305 4.555 4.225 3.645 3.515 3.795 4.465 5.665 5.825 5.115
1032.003 5.895 6.965 7.365 6.895 6.625 8.015 9.035 9.335 9.535 9.065
1051.293 9.045 8.895 8.035 7.985 6.715 5.685 5.985 5.575 5.835 6.195
1070.583 5.785 5.485 5.945 6.785 6.165 5.695 5.485 6.745 8.765 9.265
1089.873 8.865 8.255 9.515 12.605 13.985 13.845 14.445 17.095 19.165 19.905
1109.163 22.475 24.425 24.885 26.775 30.385 31.325 32.815 34.505 34.095 35.045
1128.452 36.155 37.065 38.205 37.895 37.385 36.785 36.355 36.525 35.865 35.675
1147.742 36.515 37.225 38.325 39.105 39.455 40.035 40.395 39.475 36.675 33.835
1167.032 31.065 27.995 24.465 21.535 19.575 17.525 15.405 14.475 14.785 14.755
1186.322 15.255 16.415 17.995 19.145 19.165 21.575 23.895 25.785 28.725 30.415
1205.611 32.385 34.315 35.275 35.575 35.085 34.775 33.665 31.535 30.715 29.935
1224.901 29.205 27.155 22.745 20.105 18.835 15.965 13.445 12.185 11.245 9.725
1244.191 8.395 7.745 7.205 6.765 5.815 5.015 4.875 4.475 4.095 4.005
1263.481 4.655 4.065 2.985 3.585 3.675 3.825 3.555 3.145 3.845 3.465
1282.771 3.035 3.385 3.425 3.705 3.505 3.305 3.745 4.015 3.965 3.845
1302.060 3.905 4.085 4.325 4.475 4.455 4.535 4.835 5.465 5.975 6.495
1321.350 7.095 7.815 9.015 10.515 11.975 13.495 15.165 16.985 18.895 20.365
1340.640 21.135 21.285 20.985 19.915 18.355 16.595 14.755 13.345 12.425 11.955
1359.930 11.945 12.015 12.215 12.705 12.955 13.005 12.815 12.325 11.805 11.045
1379.219 10.125 9.165 8.545 8.055 7.685 7.455 7.415 7.515 7.595 7.875
1398.509 8.265 9.025 10.085 11.045 12.085 13.445 14.935 16.145 16.995 17.775
1417.799 18.265 18.455 18.235 17.705 17.145 16.495 15.735 15.245 14.985 14.685
1437.089 14.515 14.485 14.415 14.215 13.825 13.255 13.105 13.165 13.585 14.625
1456.378 16.035 17.765 19.325 20.765 21.835 22.215 22.105 21.445 20.335 19.365
1475.668 18.215 16.715 15.505 14.815 14.265 13.815 13.115 12.225 11.725 11.215
1494.958 10.665 10.475 10.285 9.895 9.715 9.445 9.215 9.345 9.285 9.175
1514.248 9.265 9.275 9.375 9.485 9.875 10.845 11.955 13.185 14.515 16.275
1533.538 18.925 21.935 25.135 28.905 33.005 36.625 39.725 42.525 44.155 43.955
1552.827 41.765 38.015 33.855 29.665 25.775 22.685 20.465 19.065 18.445 18.385
1572.117 18.655 19.795 21.425 23.925 27.255 30.495 33.995 38.225 42.915 47.965
1591.407 52.905 57.155 60.975 63.885 65.105 65.325 64.005 60.915 57.225 52.965
1610.697 48.425 43.835 38.985 34.365 30.545 27.275 24.045 20.835 18.235 16.105
1629.986 14.225 12.615 11.195 10.045 9.285 8.435 7.875 7.645 7.035 6.465
1649.276 5.975 5.475 5.245 5.255 5.315 5.245 4.965 4.765 4.625 4.215
1668.566 4.015 4.055 3.965 3.805 3.475 3.455 3.675 3.595 3.125 2.815
1687.856 2.735 2.685 2.815 2.795 2.575 2.555 2.665 2.655 2.475 2.345
1707.146 2.415 2.585 2.535 2.375 2.405 2.345 2.325 2.305 2.215 2.315
1726.435 2.355 2.545 2.495 2.185 1.915 2.045 2.305 2.245 2.155 2.085
1745.725 2.135 1.985 1.8123 1.8962 1.851 1.8976 1.985 1.965 2.035 2.085
1765.015 2.195 2.255 2.145 2.105 2.045 1.965 2.035 1.995 1.955 2.025
1784.305 2.075 1.965 1.8774 1.8892 1.8647 1.8341 1.7902 1.839 1.8188 1.6731
1803.594 1.7154 1.8735 1.945 1.8664 1.965 2.005 1.8241 1.8158 1.7645 1.625
1822.884 1.563 1.6058 1.5877 1.5038 1.4821 1.5207 1.6424 1.64 1.5635 1.61
1842.174 1.6912 1.6398 1.7138 1.945 1.866 1.6197 1.5533 1.599 1.6031 1.5934
1861.464 1.5453 1.5349 1.5752 1.5021 1.4446 1.5277 1.4533 1.4095 1.6228 1.7397
1880.754 1.6771 1.5083 1.5168 1.5433 1.5381 1.5466 1.6927 1.8264 1.5224 1.3453
1900.043 1.5389 1.5602 1.598 1.6678 1.5369 1.5024 1.5013 1.5952 1.6474 1.4388
1919.333 1.368 1.4694 1.4982 1.4151 1.3686 1.607 1.6527 1.4066 1.2276 1.5287
1938.623 1.7976 1.6815 1.6905 1.7276 1.7163 1.7268 1.8171 1.7498 1.5842 1.4882
1957.913 1.4832 1.6835 1.8286 1.7285 1.5973 1.6305 1.5717 1.5291 1.5517 1.5164
1977.202 1.4695 1.4307 1.437 1.3157 1.2615 1.3893 1.4712 1.4166 1.3959 1.5046
1996.492 1.4009 1.263 1.4058 1.4408 1.3931 1.415 1.3631 1.2854 1.1971 1.3064
2015.782 1.5568 1.5231 1.5161 1.4144 1.3877 1.4526 1.3116 1.1269 1.1546 1.4088
2035.072 1.4964 1.5117 1.5068 1.6166 1.7021 1.7246 1.6092 1.4447 1.5525 1.5944
2054.362 1.4502 1.5283 1.631 1.5975 1.6247 1.6289 1.5334 1.4958 1.5833 1.4933
2073.651 1.4697 1.6383 1.7391 1.8217 1.935 1.8744 1.7773 1.7639 1.7785 1.8633
2092.941 1.9117 1.8198 1.6647 1.7783 1.7387 1.6134 1.6178 1.514 1.6433 1.6509
2112.231 1.407 1.1767 1.1333 1.2676 1.4195 1.5052 1.4478 1.5022 1.5418 1.4829
2131.521 1.4446 1.5623 1.7409 1.5671 1.5267 1.663 1.7287 1.7443 1.6862 1.7352
2150.810 1.8357 1.7754 1.5832 1.5491 1.657 1.6173 1.7193 1.8179 1.7452 1.7922
2170.100 1.7515 1.4712 1.3399 1.2953 1.1275 1.285 1.5091 1.5343 1.5109 1.5609
2189.390 1.4114 1.248 1.4385 1.3829 1.2361 1.2348 1.2814 1.3663 1.2835 1.2892
2208.680 1.1907 1.1689 1.2136 1.1536 1.3076 1.3302 1.1562 1.3759 1.3026 1.2065
2227.970 1.5612 1.5202 1.368 1.1035 1.00948 0.94122 0.96248 1.165 1.2997 1.4334
2247.259 1.3991 1.3365 1.3482 1.4097 1.4682 1.3541 1.1874 1.4009 1.7132 1.7951
2266.549 1.7234 1.7239 1.5697 1.4002 1.4915 1.5994 1.5864 1.5444 1.635 1.7096
2285.839 1.6934 1.5847 1.4849 1.4846 1.4995 1.2282 1.2357 1.3773 1.2544 1.2378
2305.129 1.2803 1.201 1.1124 1.1949 1.2463 1.185 1.1406 1.1026 1.2896 1.4519
2324.418 1.1794 0.97999 1.0286 1.1749 1.00461 0.93258 0.98988 1.1184 1.1872 0.9833
2343.708 1.0465 1.2233 1.1916 1.1447 1.3145 1.3257 1.0597 0.99461 0.8337 0.787
2362.998 1.0364 1.2259 1.3161 1.3518 1.2994 1.2271 1.0568 1.0329 1.3251 1.468
2382.288 1.5228 1.4029 1.3381 1.4653 1.4816 1.6527 1.7785 1.6503 1.4473 1.1984
2401.578 1.154 1.2335 1.2761 1.1986 1.3411 1.6386 1.6589 1.7591 1.6555 1.313
2420.867 1.1881 1.345 1.3391 1.3631 1.5693 1.6003 1.5533 1.3496 1.2539 1.1037
2440.157 1.0833 1.4222 1.3995 1.1706 1.1994 1.0758 0.94227 1.0941 1.0236 1.0315
2459.447 1.1446 1.0417 1.0965 1.00396 1.2241 1.4484 1.1753 1.1093 1.106 1.128
2478.737 1.1712 1.0602 0.99703 0.99005 1.1431 1.3143 1.1885 1.1946 1.2157 1.3324
2498.026 1.299 1.1374 1.1675 1.1983 1.1754 1.1566 1.4195 1.5673 1.3688 1.3061
2517.316 1.3742 1.3402 1.2021 1.2023 1.5749 1.3922 1.1703 1.3084 1.2893 1.1594
2536.606 0.93319 0.99723 1.3526 1.6326 1.703 1.6572 1.3504 1.3281 1.4809 1.4884
2555.896 1.7094 1.7541 1.755 1.5999 1.2307 1.2036 1.4698 1.4446 1.3756 1.4184
2575.186 1.2438 1.2402 1.1885 1.2711 1.3514 1.01441 1.0613 1.1542 1.1883 1.1948
2594.475 1.1394 1.0874 0.97395 1.0789 1.3967 1.3381 1.1264 1.3974 1.3445 1.1838
2613.765 1.2817 1.2358 1.01065 1.2178 1.3642 1.2316 1.3852 1.4261 1.2479 1.3603
2633.055 1.152 0.742 0.8812 1.0931 0.9264 0.8435 0.98981 1.1292 1.3236 1.1887
2652.345 0.9453 0.8932 0.90505 0.97027 1.0252 1.2846 1.2764 1.1794 1.3107 1.3926
2671.634 1.3653 1.00396 1.0872 1.2493 1.2478 1.2539 1.2161 1.3605 1.2719 0.8734
2690.924 0.815 1.0186 1.1374 1.2472 1.4221 1.2774 1.2205 1.3848 1.5166 1.4894
2710.214 1.5251 1.8072 1.8031 1.8506 1.6443 1.4274 1.4348 1.3541 1.2109 0.8435
2729.504 1.1447 1.4263 1.4605 1.389 1.1279 1.3218 1.3236 1.3976 1.5554 1.4231
2748.794 1.2449 1.29 1.554 1.8547 1.4221 1.1855 1.5623 1.6123 1.5577 1.5988
2768.083 1.2732 1.2405 1.5927 1.6924 1.7728 1.8034 1.6569 1.6024 1.8474 1.7616
2787.373 1.5727 1.6261 1.985 1.8632 1.7168 1.7927 1.8528 1.8903 1.6011 1.7206
2806.663 1.975 1.8313 2.015 2.285 2.405 2.375 2.145 2.235 2.065 2.315
2825.953 2.805 2.845 3.095 3.375 3.715 4.125 4.455 4.965 5.445 5.865
2845.242 6.365 6.975 7.585 7.765 7.925 7.905 7.635 6.955 6.305 6.225
2864.532 5.925 5.605 5.265 5.135 5.195 5.145 5.195 5.315 5.315 5.195
2883.822 5.065 5.485 5.465 5.065 4.865 4.815 5.705 5.585 5.335 6.025
2903.112 5.755 5.325 5.425 5.755 6.115 6.005 5.825 5.705 5.925 6.345
2922.401 6.245 6.215 6.515 7.085 7.895 7.685 7.125 8.115 9.285 10.115
2941.691 11.185 12.535 13.625 13.805 13.925 14.265 14.435 13.925 12.765 11.425
2960.981 10.905 10.855 10.575 10.325 10.115 9.315 8.445 8.255 7.775 7.225
2980.271 6.805 6.415 6.095 5.775 5.565 5.495 5.605 5.765 5.525 5.155
2999.561 5.445 5.865 6.415 7.375 7.875 8.205 8.815 9.035 9.545 9.655
3018.850 9.055 8.265 7.115 6.165 5.235 4.495 3.985 3.455 3.125 3.025
3038.140 3.145 3.105 3.015 3.025 2.775 2.555 2.115 1.985 2.185 2.155
3057.430 2.215 2.095 2.005 1.7554 1.6807 1.8427 1.528 1.7109 2.065 2.145
3076.720 1.975 1.4917 1.4556 1.5632 1.8911 2.125 1.7682 1.7107 1.6315 1.965
3096.009 1.965 1.205 1.305 1.4611 1.4195 1.6091 1.4228 1.7699 2.085 1.6095
3115.299 1.2576 0.9309 0.899 1.2468 1.5004 1.3594 1.1998 1.2752 1.5555 1.3228
3134.589 1.2084 1.352 1.1068 1.3227 1.4342 1.0987 1.1636 1.2558 1.2288 1.263
3153.879 1.2817 1.3925 1.4475 1.2446 0.97083 1.0331 1.1877 1.7496 1.7527 1.3015
3173.169 1.0883 0.592 0.542 0.897 1.1914 1.3305 0.97218 0.99062 1.5839 1.6503
3192.458 1.5174 1.3421 1.1531 1.2023 1.3412 1.1896 0.61 0.783 1.22 1.2909
3211.748 1.4726 1.3419 1.1571 1.1485 1.4255 1.1381 0.658 1.0586 1.2832 1.1861
3231.038 1.1753 1.2203 0.95681 0.99414 1.3542 1.2913 1.192 0.98052 0.826 0.93714
3250.328 0.8521 0.624 0.467 0.503 0.9761 1.0319 0.657 1.3016 1.7096 1.613
3269.617 1.5382 1.1291 0.916984 0.93275 1.5593 1.7471 1.3722 1.3032 1.2476 1.0983
3288.907 1.3756 1.5637 1.2083 0.97874 1.2292 1.4319 1.2427 0.765 1.0276 1.4081
3308.197 0.91112 0.746 0.8418 0.788 0.8638 0.627 0.713 1.3133 0.95893 1.1689
3327.487 0.93927 0.312 0.503 0.764 0.8727 1.0408 1.3569 1.1959 1.1286 1.3043
3346.777 1.2419 0.872 1.1175 0.693 0.217 0.8602 1.3577 1.5067 1.7635 1.6533
3366.066 1.0824 0.8902 0.99408 1.2238 0.8709 0.738 1.3458 1.2606 0.814 1.3332
3385.356 1.514 1.0201 0.758 0.769 1.1699 1.2637 1.2645 1.2375 0.494 0.364
3404.646 1.0671 1.4575 1.3413 1.0664 0.803 0.805 1.2714 1.2096 1.2222 0.781
3423.936 0.462 0.8445 1.0713 1.0234 0.477 0.38 0.8619 1.1022 1.1316 1.2578
3443.225 1.2303 1.3672 1.5764 1.1268 0.806 0.93979 0.599 0.678 1.4255 1.5588
3462.515 1.2666 0.8603 0.393 0.374 0.685 0.515 0.428 1.1479 1.5557 1.328
3481.805 1.3961 1.7283 1.6262 1.2645 1.1899 1.5182 1.5595 0.9562 0.732 0.95786
3501.095 0.8984 0.471 0.576 1.3071 1.734 1.4506 1.071 1.4022 1.5933 1.095
3520.385 0.604 0.658 0.831 0.99579 1.01363 1.223 1.0405 1.0753 1.5125 1.1957
3539.674 1.3509 1.5104 1.5184 1.8339 1.7276 1.2633 0.608 0.8605 1.3582 1.1505
3558.964 1.3203 1.4529 1.3451 1.2484 1.254 1.0539 0.95436 1.3217 1.2441 1.3479
3578.254 1.2661 1.1309 1.4639 1.1914 1.2103 1.2129 1.2552 1.4903 1.2945 0.8628
3597.544 0.601 0.667 0.733 0.90649 1.388 1.7323 1.4143 1.5364 1.4901 1.1527
3616.833 1.4113 1.5603 1.1191 0.787 1.536 1.565 1.2517 1.1162 1.1555 1.1341
3636.123 0.8833 1.1772 1.3253 1.295 0.95961 0.8337 1.0269 1.3074 1.2235 0.91757
3655.413 0.8213 1.1452 1.551 1.5556 1.1251 0.809 0.712 1.2492 1.7043 0.96272
3674.703 0.552 0.9373 1.1069 0.95636 1.0191 1.3669 1.652 1.3884 1.2532 1.8452
3693.993 1.945 1.5763 1.428 1.2147 0.96921 0.99532 1.3129 1.5688 1.3243 0.97364
3713.282 1.2271 1.5799 1.4154 1.2276 1.3019 1.5541 1.4109 1.2049 0.96692 0.686
3732.572 1.1016 0.8902 0.74 1.0907 0.587 0.463 0.99701 1.3223 0.9911 0.555
3751.862 0.683 1.1297 1.2884 1.3407 1.3751 1.2875 1.2192 0.9847 0.692 0.734
3771.152 0.95559 0.803 0.418 0.512 0.8396 1.4004 1.6848 1.1311 1.1381 1.1999
3790.441 0.701 0.658 1.1833 1.633 1.3441 1.0813 1.2992 1.2672 1.0919 0.9034
3809.731 1.00725 0.8585 0.8403 0.8739 0.84 0.787 0.716 0.724 0.567 0.8935
3829.021 0.98901 1.2438 1.4045 1.2226 1.532 1.4116 1.2027 1.8313 2.065 1.6826
3848.311 1.6474 1.2764 0.917561 1.2655 1.0647 0.8386 0.446 0.406 0.8255 0.779
3867.601 1.0861 1.3133 0.623 0.565 0.8966 1.1364 1.995 1.7385 1.031 1.2905
3886.890 1.5801 1.1378 1.2002 1.3894 1.3002 1.0645 1.3956 2.015 1.6804 0.9797
3906.180 0.78 0.866 1.1996 1.4427 1.3292 1.1353 0.98187 1.1494 1.2949 0.869
3925.470 0.804 1.1224 1.3844 1.5151 1.5233 1.6706 1.5809 1.412 1.1557 0.782
3944.760 0.723 0.419 0 0.733 1.1022 0.97447 1.5272 1.5367 0.802 0.777
3964.049 1.024 0.99177 1.2884 1.3163 1.6008 2.235 1.985 1.2968 1.0798 1.00261
3983.339 0.795 1.151 1.8898 1.47 0.787 1.3325 1.6376 1.4793 0.98745 1.5055
##END=
