##TITLE=3-Ethylheptanoic acid
##JCAMP-DX=4.24
##DATA TYPE=INFRARED SPECTRUM
##ORIGIN=NIST Mass Spectrometry Data Center
##OWNER=NIST Standard Reference Data Program
Collection (C) 2018 copyright by the U.S. Secretary of Commerce
on behalf of the United States of America. All rights reserved.
##CAS REGISTRY NO=14272-47-0
##MOLFORM=C 9 H 18 O 2
##$NIST SOURCE=MSDC-IR
##SPECTROMETER/DATA SYSTEM=HP-GC/MS/IRD
##STATE=gas
##XUNITS=1/CM
##YUNITS=ABSORBANCE
##XFACTOR=1.0
##YFACTOR=0.000001300
##DELTAX=4.0
##FIRSTX=550.0
##LASTX=3846.0
##FIRSTY=0.001377
##MAXX=3846
##MINX=550
##MAXY=0.013
##MINY=0
##NPOINTS=825
##XYDATA=(X++(Y..Y))
550.0 1059 1162 1250 1293 1321 1361 1332 1218 1165 1157
590.0 1161 1234 1349 1556 1725 1763 1772 1793 1784 1783
630.0 1746 1617 1409 1253 1111 960 858 824 803 702
670.0 652 638 595 607 663 707 656 585 575 544
710.0 502 458 412 368 342 305 248 217 194 181
750.0 152 117 102 117 141 163 192 206 196 137
790.0 94 99 84 36 7 36 29 5 19 12
830.0 13 40 58 45 41 70 99 113 141 184
870.0 189 159 164 186 184 181 179 160 170 188
910.0 181 176 180 190 166 146 135 148 148 154
950.0 168 155 164 178 186 203 208 199 193 204
990.0 217 237 242 229 220 232 276 282 307 379
1030.0 435 499 575 687 787 898 1047 1230 1467 1736
1070.0 2078 2451 2870 3409 4023 4610 5060 5220 5092 4783
1110.0 4411 4091 3904 3848 3862 3922 3972 3982 3944 3818
1150.0 3599 3326 2974 2597 2226 1899 1613 1390 1237 1143
1190.0 1106 1111 1136 1137 1102 1090 1061 1024 975 924
1230.0 898 869 837 828 850 844 836 844 850 833
1270.0 814 812 800 797 782 776 768 765 761 752
1310.0 743 742 761 795 844 909 990 1078 1137 1177
1350.0 1195 1203 1232 1295 1389 1521 1668 1798 1831 1738
1390.0 1522 1249 976 775 650 591 578 597 629 665
1430.0 696 708 724 753 814 915 1042 1176 1243 1224
1470.0 1116 937 711 516 383 290 236 188 155 139
1510.0 131 122 101 88 76 68 67 65 67 62
1550.0 52 48 31 27 37 26 36 43 27 32
1590.0 46 52 50 56 47 30 33 24 19 34
1630.0 41 40 37 26 33 40 43 60 64 79
1670.0 89 99 129 143 162 198 238 290 347 414
1710.0 502 621 775 945 1155 1418 1717 2042 2424 2876
1750.0 3430 4165 5177 6521 8015 9342 10000 9610 8263 6513
1790.0 4933 3732 2927 2377 1931 1540 1204 925 715 563
1830.0 445 365 310 259 215 182 156 140 118 105
1870.0 95 76 67 58 57 57 54 55 45 35
1910.0 40 39 38 45 40 33 41 51 53 55
1950.0 54 46 41 45 47 51 48 37 25 20
1990.0 26 30 29 23 26 34 26 27 28 22
2030.0 23 28 20 20 25 30 28 12 8 6
2070.0 10 15 19 15 5 9 12 22 18 6
2110.0 5 6 10 17 27 19 20 29 29 21
2150.0 24 28 33 32 24 28 29 25 30 34
2190.0 31 30 24 30 44 37 20 28 36 23
2230.0 25 37 34 33 26 18 9 6 9 26
2270.0 24 15 27 29 26 18 12 16 20 23
2310.0 28 33 24 24 17 14 19 8 15 36
2350.0 41 40 37 31 35 30 25 30 26 26
2390.0 25 26 30 38 47 50 37 23 30 30
2430.0 28 31 20 21 26 18 20 18 16 22
2470.0 25 23 8 8 23 18 2 0 7 10
2510.0 21 21 13 27 36 33 31 32 26 16
2550.0 33 35 25 25 25 31 34 41 48 47
2590.0 44 48 53 51 55 55 48 60 73 74
2630.0 71 56 58 77 85 86 87 91 94 89
2670.0 98 114 113 112 121 118 111 110 111 116
2710.0 128 138 130 135 143 139 143 151 157 160
2750.0 170 185 167 167 176 167 174 190 208 225
2790.0 229 252 296 314 326 348 372 409 456 510
2830.0 559 622 735 864 1049 1315 1646 2077 2570 2992
2870.0 3297 3494 3619 3643 3539 3359 3154 3043 3096 3317
2910.0 3724 4301 5010 5832 6682 7428 7909 8010 7683 7045
2950.0 6368 5976 6098 6718 7404 7529 6839 5542 4081 2883
2990.0 2096 1604 1274 1060 921 808 710 632 567 524
3030.0 501 461 421 393 372 344 310 292 277 258
3070.0 253 245 222 217 231 232 229 218 202 195
3110.0 201 197 176 151 154 154 136 135 127 101
3150.0 81 96 109 104 93 81 92 88 83 90
3190.0 90 103 102 82 72 59 57 57 73 84
3230.0 72 68 61 59 48 24 20 30 46 32
3270.0 22 33 30 31 50 63 54 46 38 40
3310.0 52 31 12 19 35 47 37 59 67 52
3350.0 48 45 36 41 61 40 24 44 51 48
3390.0 57 47 30 30 45 55 47 24 5 24
3430.0 36 29 41 49 29 15 13 16 25 29
3470.0 31 44 55 47 31 44 84 85 81 102
3510.0 126 143 139 146 163 191 225 236 286 345
3550.0 430 611 996 1811 2919 3714 3830 3288 2228 1206
3590.0 634 392 275 224 203 179 143 108 92 81
3630.0 91 78 72 87 60 34 60 66 39 20
3670.0 24 38 48 60 41 44 67 65 45 25
3710.0 13 31 35 23 25 42 59 42 18 32
3750.0 63 64 66 71 36 25 41 35 38 28
3790.0 38 52 21 16 39 34 19 45 57 35
3830.0 15 37 47 21 51
##END=
