##TITLE=Kepone
##JCAMP-DX=4.24
##DATA TYPE=INFRARED SPECTRUM
##ORIGIN=NIST Mass Spectrometry Data Center
##OWNER=NIST Standard Reference Data Program
Collection (C) 2018 copyright by the U.S. Secretary of Commerce
on behalf of the United States of America. All rights reserved.
##CAS REGISTRY NO=143-50-0
##MOLFORM=C 10 Cl 10 O
##$NIST SOURCE=MSDC-IR
##SPECTROMETER/DATA SYSTEM=HP-GC/MS/IRD
##STATE=gas
##XUNITS=1/CM
##YUNITS=ABSORBANCE
##XFACTOR=1.0
##YFACTOR=0.000003500
##DELTAX=4.0
##FIRSTX=550.0
##LASTX=3846.0
##FIRSTY=0.000329
##MAXX=3846
##MINX=550
##MAXY=0.035
##MINY=0
##NPOINTS=825
##XYDATA=(X++(Y..Y))
550.0 94 144 148 141 181 221 187 139 156 166
590.0 164 160 180 195 186 296 480 687 995 1455
630.0 1804 1993 2574 3568 4245 4569 4709 4045 2594 1331
670.0 700 455 362 322 333 363 347 249 155 123
710.0 110 107 106 103 121 151 152 130 135 152
750.0 161 161 147 147 161 233 549 1257 1953 1792
790.0 1026 610 576 565 542 595 825 1096 1085 806
830.0 540 395 360 431 611 861 1270 1896 2357 2105
870.0 1344 744 473 356 295 261 242 230 232 259
910.0 282 284 273 234 184 162 203 260 357 498
950.0 593 633 607 493 349 279 294 364 477 608
990.0 782 1064 1404 1581 1547 1438 1416 1564 2049 2962
1030.0 4103 5412 6920 8138 7828 5866 3820 2536 1743 1297
1070.0 1103 1034 1074 1124 1093 990 885 861 929 1178
1110.0 1734 2614 3663 4517 4798 4204 2988 1825 1139 862
1150.0 861 1052 1372 1820 2303 2458 2066 1428 938 640
1190.0 447 344 308 287 248 237 227 194 188 199
1230.0 189 164 134 121 118 116 119 107 107 113
1270.0 98 92 84 72 60 51 57 61 61 64
1310.0 60 49 47 48 49 50 46 46 55 61
1350.0 51 44 50 49 49 54 62 68 70 67
1390.0 69 68 60 56 54 47 34 29 31 34
1430.0 29 15 17 21 12 10 11 12 25 37
1470.0 34 34 38 31 14 7 8 8 10 10
1510.0 11 15 16 15 23 26 22 16 20 22
1550.0 21 22 22 33 35 28 19 23 23 18
1590.0 20 27 34 37 41 35 35 44 45 46
1630.0 49 48 44 44 45 39 28 27 35 41
1670.0 35 25 27 32 27 31 35 31 38 57
1710.0 69 77 80 82 80 70 61 66 77 82
1750.0 86 103 132 173 234 315 371 410 456 560
1790.0 762 1128 1791 2936 4784 7243 9467 10000 8107 5031
1830.0 2671 1520 1040 819 700 610 524 429 329 248
1870.0 204 177 161 145 133 135 137 138 133 131
1910.0 125 109 100 86 71 67 70 69 69 75
1950.0 81 85 79 72 67 58 54 62 80 88
1990.0 95 105 97 92 86 75 76 74 72 74
2030.0 76 85 89 81 69 64 63 59 56 48
2070.0 49 58 48 38 44 45 36 36 36 33
2110.0 38 43 40 37 41 38 32 35 44 43
2150.0 45 42 42 50 47 39 37 33 33 31
2190.0 27 32 39 36 39 35 30 30 18 16
2230.0 29 40 42 38 31 23 22 31 32 22
2270.0 20 23 23 26 27 24 32 30 26 29
2310.0 27 27 22 23 28 29 32 34 31 24
2350.0 20 25 22 24 23 18 24 19 20 32
2390.0 38 34 31 35 31 24 26 29 29 25
2430.0 25 29 28 35 49 42 34 33 27 20
2470.0 28 34 33 30 29 25 18 9 13 21
2510.0 19 21 16 20 22 21 32 35 22 17
2550.0 26 23 12 9 12 19 25 31 30 24
2590.0 23 22 21 20 22 20 20 27 20 19
2630.0 26 22 23 18 20 24 27 26 25 32
2670.0 23 18 23 20 22 30 38 42 42 38
2710.0 29 25 21 20 23 13 9 13 10 12
2750.0 15 11 9 13 17 17 15 14 11 13
2790.0 17 20 17 4 6 17 27 25 19 10
2830.0 4 10 18 18 13 14 11 13 21 28
2870.0 29 23 26 29 24 20 19 26 31 20
2910.0 21 32 34 21 0 15 44 38 21 20
2950.0 22 23 20 27 34 37 47 48 40 23
2990.0 26 21 16 32 28 31 33 27 13 14
3030.0 24 32 44 37 26 27 24 17 21 21
3070.0 17 21 26 29 39 30 23 27 24 13
3110.0 14 9 10 22 21 23 24 20 15 16
3150.0 22 37 42 29 30 25 13 25 25 30
3190.0 37 22 26 34 43 52 41 37 44 38
3230.0 46 47 44 39 38 42 30 21 24 26
3270.0 24 42 55 47 32 32 41 48 50 27
3310.0 25 33 22 23 31 33 21 17 27 30
3350.0 29 44 41 23 40 50 25 33 45 25
3390.0 27 48 46 40 41 44 34 15 34 29
3430.0 8 34 36 18 22 27 18 22 33 28
3470.0 22 21 27 31 35 50 39 32 38 43
3510.0 62 59 52 52 59 55 67 73 51 40
3550.0 47 49 55 60 54 58 61 43 52 87
3590.0 103 115 147 178 189 209 221 198 154 127
3630.0 124 107 79 76 60 56 54 48 38 16
3670.0 21 31 38 37 36 42 47 44 46 67
3710.0 59 48 49 45 49 47 36 43 45 50
3750.0 50 48 34 20 26 37 34 35 37 46
3790.0 68 58 62 57 32 44 48 41 40 30
3830.0 6 6 29 39 43
##END=
