##TITLE=Triphenylmethylazide
##JCAMP-DX=4.24
##DATA TYPE=INFRARED SPECTRUM
##ORIGIN=EPA-IR VAPOR PHASE LIBRARY
##OWNER=SRD/NIST
Collection (C) 2018 copyright by the U.S. Secretary of Commerce
on behalf of the United States of America. All rights reserved.
##CAS REGISTRY NO=14309-25-2
##MOLFORM=C 19 H 15 N 3
##$NIST SOURCE=MSDC-IR
##STATE=gas
##XUNITS=1/CM
##YUNITS=ABSORBANCE
##XFACTOR=1.
##YFACTOR=0.001
##DELTAX=1.92898
##FIRSTX=549.8
##LASTX=4000.7
##FIRSTY=6.703
##MAXX=4000.7
##MINX=549.759
##MAXY=0.096333
##MINY=0
##NPOINTS=1790
##XYDATA=(X++(Y..Y))
549.759 6.703 6.113 5.183 3.723 2.693 2.533 2.163 1.773 1.343 1.283
569.049 1.783 2.073 2.603 3.313 4.223 5.993 8.393 10.943 12.843 13.693
588.339 13.593 11.963 9.223 6.753 5.033 3.643 2.973 2.693 2.233 2.113
607.628 2.303 2.343 2.363 2.703 2.673 2.303 2.253 2.263 2.033 2.033
626.918 2.253 2.313 2.593 3.083 3.383 3.453 3.693 4.383 5.333 6.623
646.208 8.873 11.983 15.243 17.983 19.483 19.213 17.523 15.153 13.263 12.473
665.498 12.533 13.363 14.643 16.313 18.313 20.553 23.253 26.703 31.183 37.423
684.787 45.923 56.713 69.413 82.973 93.373 96.333 93.563 86.833 76.733 65.613
704.077 55.773 48.653 44.193 40.803 37.203 33.023 28.003 22.283 17.213 13.723
723.367 11.323 9.893 9.003 8.233 7.673 7.193 6.753 6.383 6.203 6.243
742.657 6.623 7.243 8.083 9.303 10.663 12.153 13.913 15.923 18.173 20.643
761.947 23.553 26.983 30.593 33.473 35.283 35.793 34.353 31.323 27.063 22.333
781.236 18.233 14.913 12.353 10.493 9.203 7.993 6.933 6.403 6.153 5.993
800.526 5.723 5.203 4.873 4.753 4.633 4.783 4.863 5.083 5.733 6.533
819.816 7.433 8.383 9.163 9.483 9.123 8.113 6.833 5.493 4.403 3.653
839.106 3.183 2.993 2.643 2.313 2.173 1.943 1.863 1.863 1.703 1.783
858.395 1.913 2.033 2.123 2.023 2.143 2.463 2.593 2.593 2.643 2.773
877.685 2.853 3.033 3.353 3.753 4.623 5.523 6.463 7.193 7.413 7.313
896.975 6.943 6.433 6.313 6.953 8.183 9.483 10.363 10.573 9.843 8.553
916.265 6.983 5.543 4.583 4.173 4.113 4.013 4.073 4.233 4.553 4.953
935.555 5.243 5.723 6.453 7.413 8.713 10.893 14.443 19.293 24.703 29.893
954.844 33.583 34.583 32.763 28.563 22.623 16.633 12.183 9.053 6.893 5.633
974.134 4.793 4.053 3.603 3.403 3.163 2.823 2.743 2.723 2.733 2.953
993.424 3.403 4.103 4.663 5.033 5.403 5.343 4.813 4.153 3.583 3.423
1012.714 3.693 4.363 5.113 6.063 7.773 9.713 11.283 12.113 11.973 10.923
1032.003 9.203 6.793 4.953 3.773 2.713 2.173 1.833 1.873 2.263 2.373
1051.293 2.393 2.743 3.113 3.603 4.433 5.653 6.683 7.683 8.423 8.743
1070.583 8.893 8.533 7.343 6.043 5.263 4.563 3.753 3.083 2.823 2.483
1089.873 2.383 2.433 2.613 2.713 3.013 2.973 2.363 2.173 2.513 2.743
1109.163 2.373 2.403 2.373 2.293 2.283 2.463 2.683 3.023 3.733 4.413
1128.452 5.333 6.813 8.713 10.703 13.123 15.333 17.043 17.613 16.533 14.333
1147.742 11.563 8.593 5.993 4.763 4.133 3.693 3.593 3.423 3.483 3.743
1167.032 4.343 5.393 6.443 7.623 9.273 10.773 11.143 10.943 10.163 8.843
1186.322 7.513 6.353 5.673 5.453 5.723 6.333 7.053 8.103 9.353 10.663
1205.611 12.323 14.173 16.483 18.843 20.413 21.603 22.223 22.443 22.653 22.513
1224.901 21.963 21.643 21.323 20.343 18.873 17.103 15.493 13.883 12.623 11.533
1244.191 10.483 9.723 9.053 8.933 9.213 9.483 9.853 10.493 11.263 12.063
1263.481 13.153 14.723 16.473 18.533 21.263 24.153 27.243 30.253 32.693 34.663
1282.771 35.883 36.473 36.333 35.413 33.913 31.933 29.653 27.213 24.823 22.693
1302.060 21.133 20.273 20.143 20.863 22.103 23.233 23.873 23.633 22.413 20.373
1321.350 17.953 15.623 13.613 11.913 10.493 9.283 8.173 7.203 6.253 5.363
1340.640 4.653 4.123 3.673 3.383 3.193 3.053 2.983 2.943 2.913 2.923
1359.930 2.943 2.893 2.973 3.063 3.093 3.173 3.213 3.183 3.143 3.023
1379.219 2.863 2.763 2.673 2.423 2.143 2.073 2.063 1.933 1.873 1.893
1398.509 1.853 1.923 1.993 2.033 2.083 2.143 2.163 2.243 2.393 2.423
1417.799 2.483 2.663 2.973 3.263 3.583 3.963 4.363 4.953 5.873 7.093
1437.089 8.713 10.743 13.023 15.383 17.023 17.133 16.243 14.863 12.673 10.033
1456.378 7.753 6.493 6.073 6.013 6.183 6.543 7.223 8.383 10.023 12.433
1475.668 15.513 19.043 22.523 25.413 27.373 28.293 28.023 26.503 24.003 20.943
1494.958 17.393 13.643 10.343 7.783 6.043 4.823 4.003 3.673 3.523 3.483
1514.248 3.573 3.623 3.643 3.643 3.723 3.803 3.803 3.913 4.133 4.293
1533.538 4.443 4.753 4.983 5.113 5.393 5.643 5.923 6.263 6.473 6.823
1552.827 7.243 7.803 8.613 9.683 11.183 12.943 14.883 17.083 19.443 21.993
1572.117 24.673 27.543 30.863 34.383 37.643 40.623 43.253 45.893 48.803 52.063
1591.407 55.453 57.953 58.383 56.323 52.073 46.813 42.143 39.403 39.143 41.313
1610.697 45.203 50.283 55.963 61.793 67.103 70.783 71.833 69.713 64.803 57.563
1629.986 49.013 40.373 32.853 26.763 22.123 18.633 15.973 14.103 12.703 11.703
1649.276 10.993 10.383 9.713 9.203 8.743 8.303 7.923 7.613 7.373 7.063
1668.566 6.803 6.563 6.293 5.973 5.683 5.473 5.083 4.703 4.413 4.203
1687.856 3.993 3.683 3.503 3.393 3.183 3.113 3.043 2.973 2.983 2.873
1707.146 2.873 2.953 2.983 2.973 2.923 2.823 2.803 2.773 2.653 2.563
1726.435 2.463 2.373 2.333 2.313 2.253 2.313 2.383 2.393 2.503 2.603
1745.725 2.683 2.743 2.683 2.673 2.783 2.833 2.883 2.903 2.913 3.053
1765.015 3.203 3.243 3.403 3.633 3.713 3.803 3.843 3.693 3.523 3.313
1784.305 3.103 3.043 2.993 2.973 3.123 3.383 3.643 3.913 4.023 4.063
1803.594 4.133 4.053 3.813 3.503 3.163 2.893 2.653 2.393 2.213 2.063
1822.884 1.913 1.853 1.793 1.663 1.633 1.663 1.713 1.793 1.873 1.993
1842.174 2.093 2.173 2.213 2.283 2.333 2.293 2.293 2.313 2.343 2.463
1861.464 2.583 2.683 2.723 2.753 2.733 2.723 2.723 2.663 2.613 2.603
1880.754 2.643 2.753 2.913 3.043 3.083 3.103 3.073 2.963 2.833 2.753
1900.043 2.663 2.563 2.513 2.453 2.403 2.333 2.383 2.483 2.543 2.653
1919.333 2.863 3.033 3.093 3.193 3.213 3.113 3.063 3.193 3.493 3.843
1938.623 4.163 4.403 4.533 4.553 4.413 4.143 3.873 3.663 3.563 3.503
1957.913 3.433 3.363 3.243 3.043 2.773 2.463 2.123 1.833 1.583 1.393
1977.202 1.333 1.243 1.193 1.183 1.163 1.1365 1.0725 1.0342 1.057 1.0861
1996.492 1.0801 1.0396 0.9832 0.975 0.9319 0.8868 0.9066 0.9139 0.8398 0.8011
2015.782 0.8372 0.8873 0.9565 0.9945 0.9997 0.9856 1.0288 1.0594 1.0471 1.1043
2035.072 1.1291 1.1366 1.1445 1.163 1.183 1.1354 1.1152 1.128 1.0685 0.9968
2054.362 0.9264 0.9007 0.9025 0.7892 0.7167 0.6619 0.6053 0.6086 0.5679 0.5203
2073.651 0.5131 0.5083 0.4972 0.5017 0.492 0.4508 0.4705 0.5073 0.4503 0.3928
2092.941 0.4741 0.5393 0.4642 0.4204 0.4786 0.4985 0.4431 0.4363 0.5016 0.4957
2112.231 0.4471 0.4612 0.4393 0.4356 0.4577 0.4605 0.4599 0.4678 0.4463 0.3978
2131.521 0.4007 0.4107 0.4299 0.46 0.4841 0.4823 0.4664 0.5115 0.5299 0.4854
2150.810 0.4537 0.462 0.4985 0.5145 0.5235 0.5723 0.6417 0.6653 0.6361 0.6354
2170.100 0.6752 0.7183 0.7483 0.698 0.6297 0.6134 0.5827 0.5844 0.6144 0.5241
2189.390 0.4528 0.4705 0.4687 0.5047 0.5316 0.4961 0.459 0.459 0.4648 0.4257
2208.680 0.4274 0.5081 0.5155 0.4443 0.4512 0.4995 0.464 0.4449 0.4914 0.4723
2227.970 0.4855 0.5037 0.5134 0.5464 0.5031 0.4846 0.5365 0.603 0.5767 0.5375
2247.259 0.6012 0.5899 0.6253 0.6982 0.6153 0.588 0.5931 0.5728 0.5802 0.5865
2266.549 0.6088 0.6018 0.5892 0.6496 0.7063 0.6692 0.6664 0.6332 0.5935 0.5715
2285.839 0.5452 0.5884 0.5698 0.5116 0.5566 0.5531 0.5038 0.6007 0.6717 0.7077
2305.129 0.8468 1.0197 1.1075 1.233 1.353 1.373 1.343 1.233 1.0924 1.0172
2324.418 0.9468 0.8616 0.8444 0.9012 0.991 0.9937 0.9923 1.0535 0.9954 0.9902
2343.708 1.0066 0.9314 0.8762 0.8545 0.8408 0.8266 0.8196 0.7938 0.805 0.7908
2362.998 0.7428 0.6991 0.7108 0.6922 0.6478 0.6877 0.6649 0.6684 0.6472 0.601
2382.288 0.6047 0.672 0.7032 0.6982 0.7946 0.7912 0.7008 0.727 0.7878 0.8174
2401.578 0.9093 0.9631 0.914 0.8994 0.9642 1.0244 1.006 0.9609 0.996 1.0378
2420.867 1.1318 1.233 1.213 1.203 1.173 1.0792 1.0414 1.0733 1.0331 1.0127
2440.157 1.0038 0.9619 0.897 0.8299 0.8217 0.7517 0.7261 0.782 0.6752 0.5969
2459.447 0.6511 0.6075 0.6007 0.5709 0.5146 0.5248 0.4703 0.4715 0.4901 0.492
2478.737 0.4631 0.4276 0.4867 0.4542 0.4256 0.3916 0.4061 0.4591 0.4231 0.4458
2498.026 0.4963 0.5047 0.4175 0.3967 0.4732 0.4826 0.4912 0.5405 0.5436 0.5009
2517.316 0.4694 0.5252 0.5419 0.5733 0.5884 0.5504 0.5809 0.5971 0.6115 0.6182
2536.606 0.6277 0.6995 0.7419 0.7713 0.8105 0.8031 0.8188 0.8024 0.7874 0.7946
2555.896 0.7926 0.7478 0.7398 0.8128 0.783 0.6585 0.6762 0.7429 0.6825 0.6596
2575.186 0.6529 0.5965 0.6173 0.69 0.7162 0.6842 0.6046 0.6002 0.629 0.6748
2594.475 0.7842 0.7827 0.7798 0.7534 0.6917 0.6621 0.6065 0.6066 0.603 0.5945
2613.765 0.537 0.5514 0.5313 0.55 0.6711 0.6454 0.6502 0.6357 0.573 0.5333
2633.055 0.4536 0.4569 0.4307 0.3278 0.3603 0.3775 0.2667 0.2933 0.3674 0.3058
2652.345 0.2892 0.381 0.3863 0.23528 0.2477 0.23727 0.14343 0.20331 0.3167 0.3377
2671.634 0.22994 0.2549 0.2565 0.2318 0.2644 0.23471 0.23792 0.14617 0.0744 0.146
2690.924 0.18192 0.20268 0.2839 0.283 0.277 0.232 0.2054 0.24638 0.25216 0.31
2710.214 0.3005 0.2837 0.2979 0.3388 0.3634 0.3836 0.3738 0.4157 0.5356 0.5209
2729.504 0.5148 0.5228 0.537 0.5438 0.5616 0.5468 0.5593 0.602 0.5259 0.4958
2748.794 0.5275 0.5151 0.3934 0.4312 0.5131 0.5054 0.5792 0.5327 0.4623 0.5388
2768.083 0.5926 0.5365 0.4576 0.4073 0.381 0.3473 0.3792 0.4571 0.4504 0.359
2787.373 0.357 0.4136 0.4627 0.4297 0.4103 0.4015 0.4137 0.4167 0.3663 0.3633
2806.663 0.27 0.2709 0.3134 0.3168 0.3862 0.4167 0.3725 0.3855 0.4545 0.5348
2825.953 0.567 0.555 0.5757 0.5724 0.574 0.6893 0.7592 0.683 0.6804 0.6715
2845.242 0.678 0.8298 0.8876 0.9325 0.894 0.8116 0.8867 0.9637 0.9846 0.9734
2864.532 0.9375 0.902 0.9681 1.0079 1.0453 1.0713 1.0348 1.0754 1.1225 1.1186
2883.822 1.243 1.383 1.373 1.303 1.283 1.253 1.1453 1.0443 0.98 0.8761
2903.112 0.8799 0.8876 0.7654 0.7477 0.7926 0.7355 0.6752 0.7504 0.8633 0.8869
2922.401 0.8532 0.943 1.0479 1.0046 1.0275 0.9902 0.9354 0.9019 0.8359 0.7817
2941.691 0.7531 0.7125 0.6065 0.5875 0.6093 0.6148 0.6747 0.7645 0.7926 0.8574
2960.981 0.9177 0.9252 0.9133 0.9473 1.0173 1.0766 1.203 1.223 1.293 1.393
2980.271 1.303 1.293 1.423 1.583 1.663 1.823 1.933 2.083 2.483 2.753
2999.561 3.093 3.523 3.993 4.563 5.213 5.983 6.963 8.173 9.523 11.193
3018.850 13.003 14.883 16.843 18.813 20.693 22.373 23.823 24.723 24.773 24.093
3038.140 22.823 21.013 18.973 17.273 16.283 16.193 16.853 18.153 20.393 23.473
3057.430 27.383 32.443 38.633 45.923 53.663 60.063 63.463 63.283 59.863 54.113
3076.720 47.613 42.113 38.873 37.383 36.173 34.233 31.473 28.313 24.863 21.753
3096.009 19.003 16.573 14.473 12.733 11.263 9.893 8.653 7.473 6.543 5.743
3115.299 4.973 4.323 3.693 3.243 2.993 2.703 2.513 2.333 2.083 2.093
3134.589 2.163 2.143 2.203 2.223 2.163 2.123 2.113 2.073 1.983 1.953
3153.879 1.893 1.743 1.653 1.573 1.493 1.533 1.543 1.393 1.1148 0.9653
3173.169 1.0357 1.0614 0.9763 0.9931 1.0345 0.9972 0.9852 0.9467 0.9894 0.9814
3192.458 0.9339 1.0131 1.0464 0.9493 0.9323 0.8592 0.8038 0.996 1.0381 0.9467
3211.748 0.9056 0.8536 0.8552 0.9562 0.9887 0.964 0.9924 0.9612 0.9848 1.0583
3231.038 1.0065 0.9476 0.8862 0.8177 0.7457 0.6667 0.6911 0.6434 0.5829 0.5706
3250.328 0.6352 0.6829 0.4742 0.4005 0.4463 0.3761 0.3875 0.2842 0.3136 0.429
3269.617 0.4453 0.5219 0.4741 0.3521 0.3318 0.4122 0.363 0.2651 0.3851 0.4249
3288.907 0.3 0.3094 0.3936 0.3605 0.24694 0.2786 0.19206 0.155875 0.20969 0.2656
3308.197 0.22451 0.0708 0.17957 0.2532 0.2579 0.2685 0.275 0.24324 0.241 0.2592
3327.487 0.17107 0.14645 0.18342 0.139 0.1396 0.21361 0.1288 0.0824 0.17577 0.156097
3346.777 0.1245 0.14621 0.0991 0.0921 0.1299 0.18419 0.16976 0.21294 0.2575 0.17978
3366.066 0.21625 0.25281 0.2065 0.19555 0.3069 0.3266 0.24962 0.161123 0.154494 0.2668
3385.356 0.3312 0.3535 0.24249 0.0665 0.1374 0.21169 0.0827 0 0.158924 0.3218
3404.646 0.1288 0.0704 0.21577 0.24146 0.14714 0.1678 0.3177 0.24503 0.2346 0.2085
3423.936 0.17376 0.21517 0.16445 0.157136 0.3488 0.3633 0.17786 0.23595 0.3 0.22132
3443.225 0.23589 0.2712 0.1245 0.18999 0.3011 0.2275 0.21769 0.22534 0.3136 0.4548
3462.515 0.4214 0.2786 0.247 0.2245 0.21619 0.2569 0.265 0.3301 0.3347 0.20318
3481.805 0.18418 0.22261 0.22072 0.24085 0.21139 0.20342 0.24068 0.17006 0.17291 0.2829
3501.095 0.24979 0.20809 0.21325 0.17528 0.0595 0.047 0.19321 0.2377 0.2621 0.3094
3520.385 0.2805 0.24701 0.1512 0.1418 0.1375 0.14761 0.21752 0.1393 0.17495 0.259
3539.674 0.3311 0.4179 0.3349 0.2549 0.2716 0.21597 0.2735 0.20927 0.1302 0.2917
3558.964 0.24812 0.1254 0.154991 0.23416 0.21612 0.19782 0.22007 0.20027 0.17868 0.17143
3578.254 0.257 0.3051 0.3847 0.3812 0.2475 0.2806 0.324 0.2567 0.24383 0.3637
3597.544 0.3115 0.279 0.3314 0.3046 0.24807 0.223 0.20435 0.20945 0.29 0.2761
3616.833 0.2627 0.2899 0.266 0.18962 0.19149 0.22009 0.20875 0.277 0.4003 0.4445
3636.123 0.4406 0.5141 0.5971 0.6831 0.5883 0.4759 0.4679 0.5523 0.5566 0.5581
3655.413 0.6145 0.5692 0.5175 0.4106 0.3526 0.2971 0.23948 0.19085 0.2656 0.3245
3674.703 0.2563 0.3837 0.4378 0.3456 0.2825 0.3812 0.4828 0.4595 0.4974 0.533
3693.993 0.4749 0.5458 0.7302 0.6418 0.7246 0.7052 0.408 0.3715 0.3698 0.25084
3713.282 0.3571 0.5305 0.4868 0.4329 0.523 0.5966 0.4829 0.3007 0.2947 0.3023
3732.572 0.23855 0.17943 0.22995 0.3578 0.3104 0.21114 0.23874 0.4234 0.364 0.21651
3751.862 0.3418 0.2903 0.3058 0.4807 0.4547 0.4553 0.4128 0.276 0.3834 0.4558
3771.152 0.2689 0.2651 0.4018 0.3977 0.2958 0.2734 0.2872 0.262 0.3071 0.3195
3790.441 0.3882 0.4309 0.3256 0.22274 0.19275 0.2797 0.2922 0.2564 0.23512 0.18429
3809.731 0.2043 0.3425 0.37 0.21226 0.17179 0.2848 0.4668 0.4202 0.3624 0.4103
3829.021 0.24491 0.23246 0.3276 0.3879 0.3185 0.18797 0.2602 0.3268 0.22573 0.139
3848.311 0.19692 0.16683 0.0574 0.1676 0.3642 0.4728 0.4042 0.25292 0.2917 0.2911
3867.601 0.3748 0.2625 0.1422 0.2957 0.318 0.289 0.22287 0.2895 0.447 0.3914
3886.890 0.4365 0.5844 0.4693 0.3452 0.3237 0.2941 0.20364 0.21237 0.21836 0.16518
3906.180 0.17854 0.4092 0.6117 0.5619 0.4635 0.3366 0.2764 0.2802 0.3718 0.2988
3925.470 0.23559 0.3206 0.3677 0.2794 0.18611 0.2631 0.20374 0.2954 0.4744 0.4439
3944.760 0.3432 0.3264 0.403 0.4719 0.3523 0.3472 0.443 0.3811 0.3442 0.4207
3964.049 0.5639 0.5121 0.4028 0.307 0.22566 0.371 0.4026 0.408 0.5382 0.5167
3983.339 0.4653 0.3459 0.3166 0.5331 0.5051 0.4241 0.5895 0.6179 0.5432 0.6578
##END=
