##TITLE=Dicyclopropyl carbinol
##JCAMP-DX=4.24
##DATA TYPE=INFRARED SPECTRUM
##ORIGIN=EPA-IR VAPOR PHASE LIBRARY
##OWNER=SRD/NIST
Collection (C) 2018 copyright by the U.S. Secretary of Commerce
on behalf of the United States of America. All rights reserved.
##CAS REGISTRY NO=14300-33-5
##MOLFORM=C 7 H 12 O
##$NIST SOURCE=MSDC-IR
##STATE=gas
##XUNITS=1/CM
##YUNITS=ABSORBANCE
##XFACTOR=1.
##YFACTOR=0.001
##DELTAX=1.92898
##FIRSTX=549.8
##LASTX=4000.7
##FIRSTY=1.872
##MAXX=4000.7
##MINX=549.759
##MAXY=0.078752
##MINY=0
##NPOINTS=1790
##XYDATA=(X++(Y..Y))
549.759 1.872 2.012 1.842 1.822 2.082 1.602 1.0257 1.422 1.1762 0.6445
569.049 0.6396 0.974 1.402 1.1674 1.3445 2.312 2.622 2.242 2.352 2.652
588.339 2.482 2.462 2.562 3.212 3.502 2.762 2.762 3.332 3.652 3.212
607.628 2.942 2.782 2.182 2.032 2.112 2.212 2.042 1.852 1.762 1.642
626.918 1.802 1.912 1.752 1.682 1.632 2.032 2.032 1.2746 1.1484 1.0082
646.208 0.789 1.532 1.782 1.482 1.382 1.1048 0.9823 1.123 1.2397 1.372
665.498 1.2778 1.1894 1.3146 1.482 1.432 1.2305 1.3543 1.3209 1.1966 1.0902
684.787 1.0917 0.9805 0.7592 0.9797 1.0559 1.0752 1.0458 0.9717 1.452 1.752
704.077 1.712 1.772 1.642 1.512 1.462 1.672 1.582 1.3166 1.2811 1.362
723.367 1.582 1.612 1.762 2.242 2.342 2.172 2.432 2.602 2.842 2.882
742.657 2.862 2.942 2.952 3.012 3.132 3.552 3.452 3.032 3.062 3.032
761.947 3.112 3.522 3.622 3.572 3.862 4.232 4.272 4.262 4.372 4.012
781.236 3.572 3.542 3.552 3.752 4.322 4.742 4.342 3.942 4.392 4.872
800.526 5.422 6.232 7.022 8.222 9.482 10.282 11.182 12.182 13.002 12.892
819.816 12.652 13.332 13.552 13.422 13.622 13.732 13.642 13.572 12.782 12.222
839.106 12.252 11.462 11.072 11.252 11.222 10.782 10.482 10.392 9.792 9.372
858.395 9.432 9.102 8.172 7.722 7.562 7.342 6.862 6.502 6.302 5.752
877.685 5.952 6.332 6.552 6.472 6.752 7.392 8.012 9.072 10.152 10.922
896.975 11.242 12.142 13.392 14.382 15.332 16.252 17.242 18.262 18.942 19.442
916.265 20.322 20.892 20.732 20.872 20.692 20.162 19.742 19.022 18.382 17.452
935.555 16.962 16.512 15.772 14.882 13.692 13.162 13.222 13.222 13.282 13.902
954.844 14.732 15.442 16.412 17.782 19.472 21.302 22.842 24.052 25.702 28.242
974.134 31.242 34.122 35.982 37.472 40.352 43.492 46.082 48.422 51.012 53.662
993.424 55.822 58.312 60.202 61.082 61.472 62.562 64.312 65.742 68.002 70.922
1012.714 73.262 75.422 76.552 77.822 78.752 78.272 76.992 75.542 74.002 71.332
1032.003 68.172 64.572 60.462 56.622 54.012 51.272 47.882 45.532 43.052 39.642
1051.293 37.092 34.312 32.032 29.932 26.842 24.712 22.512 20.332 19.162 18.292
1070.583 17.212 15.552 14.082 12.752 12.932 13.162 11.802 11.482 11.502 11.352
1089.873 11.792 12.512 11.652 10.882 11.432 11.642 12.332 13.002 11.712 11.442
1109.163 12.662 13.122 13.922 14.492 13.832 13.542 14.432 15.142 15.812 16.082
1128.452 17.382 18.202 18.202 19.292 19.312 18.392 18.502 17.902 17.032 17.572
1147.742 16.722 16.442 16.822 15.702 14.352 13.342 12.942 12.802 12.852 12.702
1167.032 12.002 11.572 11.402 11.782 12.602 12.882 12.482 12.762 12.982 12.712
1186.322 13.962 14.862 14.212 14.432 15.052 15.432 16.052 15.102 14.762 15.112
1205.611 13.972 13.012 13.052 13.072 12.792 12.202 12.702 14.012 13.782 13.982
1224.901 14.702 14.902 16.212 16.762 16.012 15.892 16.942 18.042 19.012 19.922
1244.191 20.352 20.022 19.472 19.512 19.512 19.272 19.302 19.342 18.922 18.112
1263.481 17.732 18.222 18.372 17.312 16.772 17.232 16.982 17.242 17.452 17.132
1282.771 17.412 17.502 17.332 17.152 17.042 16.962 16.762 16.512 16.072 15.572
1302.060 15.242 15.032 14.782 14.182 13.482 13.022 12.682 12.322 12.082 11.832
1321.350 11.572 11.332 11.152 10.962 10.782 10.692 10.542 10.442 10.242 9.972
1340.640 9.892 9.662 9.362 9.202 8.952 8.782 8.632 8.522 8.412 8.392
1359.930 8.522 8.652 8.952 9.302 9.732 10.182 10.512 10.952 11.362 11.662
1379.219 12.062 12.502 12.932 13.352 13.702 14.102 14.602 15.082 15.452 15.952
1398.509 16.282 16.612 17.232 17.682 17.962 18.142 18.192 18.182 18.132 18.002
1417.799 17.702 17.422 17.282 17.102 16.682 16.132 15.472 14.732 13.992 13.152
1437.089 12.412 11.952 11.512 10.872 10.132 9.572 9.062 8.572 8.172 7.692
1456.378 7.312 7.162 7.002 6.702 6.402 6.242 6.042 5.782 5.452 5.072
1475.668 4.712 4.432 4.192 3.872 3.552 3.332 3.102 2.852 2.682 2.462
1494.958 2.382 2.332 2.142 1.932 1.962 2.152 2.132 2.022 1.882 1.752
1514.248 1.702 1.662 1.612 1.542 1.612 1.752 1.742 1.682 1.732 1.582
1533.538 1.382 1.412 1.542 1.542 1.3306 1.3222 1.2262 1.2317 1.392 1.1878
1552.827 1.2145 1.422 1.362 1.3101 1.3589 1.392 1.3141 1.1372 1.0697 1.0621
1572.117 1.0057 1.1022 1.1744 1.2798 1.432 1.2416 1.0546 1.033 0.9628 0.9617
1591.407 0.8939 0.6513 0.7888 1.0125 0.9305 0.8926 1.0635 1.0576 0.8717 0.8962
1610.697 1.0004 0.9451 0.8312 0.8764 0.9796 0.8647 0.8301 1.0828 1.084 0.8754
1629.986 0.8671 0.9021 0.8533 0.9842 0.9985 0.9146 0.9357 0.9692 1.0398 0.9248
1649.276 0.7752 0.8625 0.8296 0.7043 0.8306 0.7941 0.8457 0.8741 0.723 0.7896
1668.566 0.7697 0.7081 0.7248 0.5742 0.41469 0.4814 0.5156 0.4955 0.6267 0.5681
1687.856 0.5045 0.4623 0.39696 0.5139 0.4774 0.5769 0.7371 0.7672 0.8034 0.6988
1707.146 0.5904 0.6297 0.6551 0.6021 0.5971 0.5511 0.5615 0.5527 0.5454 0.6725
1726.435 0.6209 0.5275 0.5448 0.5108 0.6004 0.6886 0.5732 0.6858 0.9017 0.8285
1745.725 0.6737 0.6969 0.6775 0.6071 0.6475 0.7604 0.8584 0.8848 0.9229 0.9638
1765.015 0.9905 1.0394 1.0547 1.079 1.2219 1.392 1.372 1.3067 1.412 1.382
1784.305 1.3389 1.402 1.2925 1.2552 1.422 1.482 1.422 1.492 1.552 1.502
1803.594 1.572 1.612 1.622 1.752 1.852 1.822 1.692 1.692 1.812 1.832
1822.884 1.812 1.842 1.852 1.922 1.892 1.872 1.982 2.002 1.982 1.962
1842.174 1.962 1.852 1.922 1.952 1.862 1.882 1.832 1.822 1.992 2.022
1861.464 1.922 1.932 1.812 1.862 1.982 1.882 1.922 1.942 1.872 1.852
1880.754 1.872 1.822 1.782 1.762 1.812 1.862 1.862 2.032 2.042 1.952
1900.043 1.892 1.962 2.172 2.192 2.232 2.402 2.562 2.502 2.352 2.502
1919.333 2.732 2.702 2.652 2.632 2.622 2.702 2.612 2.612 2.562 2.432
1938.623 2.372 2.282 2.162 2.022 2.002 1.952 1.822 1.752 1.762 1.752
1957.913 1.752 1.732 1.682 1.652 1.632 1.582 1.372 1.372 1.432 1.372
1977.202 1.422 1.412 1.382 1.3089 1.2404 1.2505 1.2239 1.1259 1.1321 1.1863
1996.492 1.2547 1.3187 1.1733 1.2175 1.3505 1.2736 1.1867 1.1553 1.2718 1.28
2015.782 1.2348 1.2182 1.2121 1.3363 1.402 1.482 1.592 1.702 1.732 1.662
2035.072 1.802 2.002 2.032 2.172 2.352 2.472 2.632 2.752 2.842 2.872
2054.362 2.992 3.202 3.302 3.272 3.282 3.172 3.092 3.172 2.982 2.912
2073.651 2.892 2.652 2.552 2.652 2.772 2.682 2.522 2.542 2.412 2.282
2092.941 2.332 2.182 2.042 2.022 1.902 1.812 1.782 1.842 1.792 1.572
2112.231 1.532 1.582 1.612 1.422 1.2654 1.33 1.2837 1.1388 1.1683 1.2074
2131.521 1.1024 1.1572 1.2071 1.1603 1.1653 1.0766 1.1345 1.2311 1.1168 1.0027
2150.810 0.9358 0.9676 1.04 1.0516 0.9635 0.9516 0.8744 0.6805 0.7823 0.8767
2170.100 0.8408 0.8423 0.7914 0.686 0.7514 0.8852 0.8878 0.8315 0.7522 0.8395
2189.390 0.818 0.7774 0.8895 1.0504 1.0496 1.018 1.0924 1.0759 1.1454 1.0701
2208.680 0.9415 0.9574 1.1053 1.1883 1.138 1.0842 0.9945 1.1192 1.249 1.1722
2227.970 1.0687 0.9699 1.0398 1.1222 1.0516 1.0516 1.1224 1.0954 1.027 1.0093
2247.259 0.9426 0.9616 1.0517 0.8759 0.9166 1.2134 1.1641 1.008 1.0309 1.1317
2266.549 0.9382 0.8111 0.8856 0.9266 0.8322 0.6087 0.7094 0.6445 0.5753 0.8176
2285.839 0.8624 0.8404 0.8791 0.8815 0.767 0.6349 0.604 0.7595 0.7341 0.5296
2305.129 0.4915 0.5594 0.6924 0.6782 0.6929 0.7517 0.6421 0.7513 0.7968 0.6397
2324.418 0.6775 0.6803 0.667 0.7133 0.806 0.8816 0.9066 0.8446 0.6893 0.7172
2343.708 0.7445 0.6323 0.651 0.8038 0.8607 0.7744 0.8552 0.952 0.8035 0.7114
2362.998 0.6387 0.6644 0.7919 0.8056 0.8504 0.9127 0.9527 1.0144 0.82 0.7636
2382.288 0.9403 0.8488 0.7669 0.7932 0.7798 0.679 0.6411 0.8256 0.9235 1.0108
2401.578 0.9592 0.8297 0.9881 0.9476 0.8514 0.7386 0.6972 0.7738 0.8023 0.8833
2420.867 0.9514 1.0091 0.9995 0.9092 0.7927 0.7605 0.9205 0.8978 0.8165 0.9106
2440.157 0.9598 1.0032 0.9778 0.9608 1 1.0025 1.0871 1.1927 1.2515 1.2143
2459.447 1.1985 1.264 1.422 1.542 1.542 1.742 1.802 1.522 1.572 1.902
2478.737 1.972 1.832 1.562 1.3457 1.602 1.772 1.652 1.572 1.472 1.243
2498.026 1.2127 1.263 1.0028 1.0672 1.2133 1.144 1.067 1.1006 1.1273 1.1174
2517.316 1.1373 0.928 0.9408 0.9972 0.9522 0.8759 0.7875 0.8934 0.9693 1.105
2536.606 1.0864 0.957 0.9074 0.8877 0.9541 1.1237 1.0927 1.0635 1.221 1.0927
2555.896 0.9212 0.9097 0.8679 0.9018 1.0002 0.9264 0.8879 0.9713 0.988 1.0972
2575.186 1.1486 1.2355 1.191 1.0779 1.1379 1.113 1.2408 1.2734 1.0984 1.0733
2594.475 1.1797 1.2809 1.1198 1.0511 1.0587 1.0826 1.2673 1.2168 1.2633 1.1766
2613.765 1.1365 1.096 1.1474 1.2836 1.2856 1.392 1.422 1.3473 1.3233 1.492
2633.055 1.602 1.542 1.452 1.462 1.452 1.452 1.482 1.432 1.442 1.692
2652.345 1.772 1.572 1.392 1.542 1.602 1.492 1.592 1.532 1.662 1.702
2671.634 1.622 1.852 1.742 1.452 1.362 1.392 1.502 1.632 1.572 1.542
2690.924 1.432 1.542 1.562 1.3186 1.2442 1.3486 1.412 1.3332 1.432 1.492
2710.214 1.442 1.3404 1.3202 1.3082 1.3377 1.3308 1.3392 1.422 1.492 1.542
2729.504 1.562 1.562 1.572 1.472 1.482 1.502 1.452 1.402 1.3612 1.472
2748.794 1.422 1.452 1.652 1.822 2.002 2.012 1.822 1.902 2.072 1.982
2768.083 1.852 1.892 1.952 2.042 2.292 2.332 2.242 2.312 2.472 2.672
2787.373 2.902 3.192 3.242 3.142 3.282 3.552 3.662 3.812 3.952 4.102
2806.663 4.342 4.332 4.522 4.952 5.042 5.142 5.352 5.592 5.862 5.962
2825.953 5.952 6.102 6.562 6.842 7.132 7.812 8.262 8.622 9.392 10.322
2845.242 11.202 11.972 12.852 14.122 15.252 16.282 17.442 18.752 20.042 20.802
2864.532 21.662 22.442 22.942 23.442 23.792 23.712 23.362 23.122 22.682 22.152
2883.822 21.452 20.382 19.242 18.292 17.232 16.192 15.282 14.082 12.872 11.912
2903.112 11.042 10.152 9.392 8.622 7.902 7.462 6.892 6.242 5.902 5.622
2922.401 5.442 5.462 5.102 4.512 4.472 4.422 4.222 4.182 4.022 3.652
2941.691 3.652 3.912 3.832 3.682 3.502 3.562 3.742 3.852 3.872 3.872
2960.981 3.962 4.232 4.542 4.642 4.942 5.142 5.462 5.942 6.442 7.282
2980.271 8.182 9.062 10.432 12.332 14.422 16.832 19.752 23.312 27.342 31.822
2999.561 37.372 43.462 49.562 55.412 60.842 65.632 69.192 71.992 73.922 74.642
3018.850 74.062 71.992 68.492 63.962 58.792 53.112 46.692 40.422 34.922 29.872
3038.140 25.372 21.282 18.002 15.422 13.222 11.612 10.022 9.012 8.772 8.812
3057.430 9.482 10.262 11.112 12.512 14.402 16.582 19.262 22.602 26.282 30.192
3076.720 34.272 38.302 42.032 45.262 48.502 51.552 51.952 48.522 44.882 42.302
3096.009 39.232 35.632 31.752 27.702 23.312 18.992 15.142 11.712 9.152 7.462
3115.299 5.922 4.602 3.532 2.772 2.412 2.082 1.942 1.782 1.422 1.2787
3134.589 1.1253 1.1141 1.392 1.572 1.532 1.2654 1.1047 1.1791 0.9832 1.0445
3153.879 1.2668 1.0371 0.8646 0.8479 0.8994 0.9843 0.9547 0.9278 0.8678 0.7389
3173.169 0.8029 1.0297 1.0394 0.9523 0.7304 0.6776 0.766 0.8815 0.9503 0.759
3192.458 0.5141 0.6736 0.7192 0.5235 0.5565 0.3499 0.241 0.3439 0.5739 0.5108
3211.748 0.35756 0.42813 0.5032 0.7105 0.8018 0.4713 0.137 0.5442 0.8982 0.8512
3231.038 0.9114 0.8784 0.7171 0.38604 0.341 0.514 0.6812 0.8105 0.8381 0.8185
3250.328 0.8191 0.7592 0.6546 0.6491 0.6557 0.5203 0.5214 0.5723 0.4873 0.4645
3269.617 0.5451 0.576 0.6643 0.8518 0.5291 0.245 0.252 0.3056 0.3193 0.35833
3288.907 0.6161 0.3458 0 0.043 0.2801 0.6434 0.6053 0.45092 0.4965 0.4534
3308.197 0.3119 0.4826 0.5453 0.41504 0.6169 0.8119 0.5978 0.3355 0.5014 0.6702
3327.487 0.8247 0.9274 0.7303 0.4971 0.5001 0.5048 0.38666 0.44464 0.369466 0.35521
3346.777 0.7932 0.5666 0.172 0.6454 0.9651 0.9549 0.9384 0.8682 0.6224 0.6295
3366.066 0.39788 0.197 0.6048 0.6202 0.5906 0.7936 1.0177 0.9779 0.6564 0.7423
3385.356 0.8992 1.0202 1.0845 1.0102 0.7205 0.5875 0.8481 0.8478 0.7422 0.7214
3404.646 0.6039 0.42049 0.685 0.8225 0.4272 0.368728 0.3338 0.2806 0.43395 0.7949
3423.936 1.1215 0.9474 0.6725 0.6868 0.5511 0.6863 1.0532 0.8224 0.6561 0.7612
3443.225 0.8602 0.9073 0.8222 0.719 0.7074 0.785 0.8118 0.7307 0.8585 1.0468
3462.515 0.9726 0.9052 0.87 0.9881 0.8667 0.4628 0.477 0.7163 0.6801 0.7055
3481.805 0.45616 0.071 0.38252 0.5547 0.5757 0.5077 0.3354 0.4685 0.257 0.2705
3501.095 0.6923 0.859 0.7584 0.4709 0.46099 0.628 0.41158 0.4315 0.6878 0.5997
3520.385 0.8681 0.9107 0.5593 0.7142 0.8349 0.6852 0.3433 0.2804 0.8421 1.0338
3539.674 0.8757 0.7227 0.618 0.569 0.5431 0.4868 0.5505 0.5695 0.4966 0.44056
3558.964 0.2665 0.118 0.099 0.4855 0.8588 0.9076 0.7567 0.6526 0.6717 0.5128
3578.254 0.6461 0.8482 0.8748 0.7939 0.8315 1.0325 0.8567 0.7867 0.7883 0.9429
3597.544 1.119 1.152 1.1993 1.0119 1.2195 1.582 1.462 1.762 2.102 2.162
3616.833 2.632 2.992 3.532 4.272 4.642 5.292 6.352 7.272 8.232 9.372
3636.123 9.992 10.422 11.042 11.202 11.592 12.182 12.272 11.752 11.152 10.692
3655.413 9.952 9.322 8.742 8.032 7.322 6.592 6.062 5.312 4.402 4.082
3674.703 3.652 2.952 2.342 1.872 1.582 1.422 1.3604 1.632 1.992 1.902
3693.993 1.2693 1.2288 1.298 1.0474 1.0989 1.0292 1.1466 1.3499 1.1044 0.9101
3713.282 0.9288 0.7485 0.7111 0.6727 0.6445 0.7421 0.786 0.6871 0.7599 1.0209
3732.572 0.9757 0.6995 0.7645 0.7285 0.4949 0.4855 0.6172 0.6366 0.8324 0.8634
3751.862 0.41482 0.41732 0.7418 0.7225 0.6211 0.8241 0.8547 0.7593 0.8552 0.763
3771.152 0.8263 0.7564 0.6128 0.5209 0.6061 1.1563 1.079 0.7781 0.8117 0.7145
3790.441 0.7332 0.8822 0.7449 0.8323 0.7802 0.5468 0.45706 0.6901 1.2174 1.502
3809.731 1.392 1.2696 1.2021 1.0062 1.2277 1.412 1.412 1.472 1.2828 1.482
3829.021 1.572 1.2604 1.2439 1.1299 1.0198 1.002 0.9786 1.1109 1.1726 1.1815
3848.311 1.3326 1.372 1.1811 1.1892 1.0699 1.168 1.2932 1.3262 1.382 1.1017
3867.601 1.2316 1.2306 1.3428 1.532 1.512 1.552 1.2386 1.2868 1.572 1.392
3886.890 1.2609 1.422 1.2903 1.1472 1.2479 1.236 0.8053 0.6003 1.1618 1.642
3906.180 1.3256 1.0552 1.2685 1.1104 0.9871 0.9864 1.2973 1.792 1.612 1.482
3925.470 1.532 1.3584 1.3495 1.442 1.2069 0.7744 0.848 0.9993 0.8807 0.8245
3944.760 0.7758 0.9682 0.9001 0.8066 1.0134 0.8197 0.5278 0.582 0.42874 0.128
3964.049 0.41108 0.7447 0.8183 0.887 0.5847 0.40428 0.3735 0.3131 0.4814 0.38585
3983.339 0.37304 0.5074 0.7935 0.9974 0.7954 0.3366 0.39036 0.7812 0.7505 0.41109
##END=
