##TITLE=1,1,3-Trimethoxypropane
##JCAMP-DX=4.24
##DATA TYPE=INFRARED SPECTRUM
##ORIGIN=NIST Mass Spectrometry Data Center
##OWNER=NIST Standard Reference Data Program
Collection (C) 2018 copyright by the U.S. Secretary of Commerce
on behalf of the United States of America. All rights reserved.
##CAS REGISTRY NO=14315-97-0
##MOLFORM=C 6 H 14 O 3
##$NIST SOURCE=MSDC-IR
##SPECTROMETER/DATA SYSTEM=HP-GC/MS/IRD
##STATE=gas
##XUNITS=1/CM
##YUNITS=ABSORBANCE
##XFACTOR=1.0
##YFACTOR=0.000007200
##DELTAX=4.0
##FIRSTX=550.0
##LASTX=3846.0
##FIRSTY=0.000518
##MAXX=3846
##MINX=550
##MAXY=0.072
##MINY=0
##NPOINTS=825
##XYDATA=(X++(Y..Y))
550.0 72 114 84 88 112 113 114 116 113 101
590.0 81 76 63 44 30 18 8 8 21 19
630.0 20 30 29 16 6 11 10 0 8 8
670.0 7 6 4 15 16 9 5 0 0 0
710.0 4 13 15 11 15 28 35 28 21 27
750.0 38 52 73 96 135 178 208 229 243 236
790.0 211 185 169 153 132 116 115 113 106 107
830.0 110 124 134 145 169 200 234 275 317 358
870.0 399 434 461 492 525 559 613 690 781 894
910.0 1014 1121 1195 1214 1185 1114 1011 904 807 729
950.0 688 676 693 740 795 844 876 880 862 833
990.0 801 790 803 828 868 921 992 1071 1160 1286
1030.0 1449 1658 1931 2274 2663 3083 3515 3910 4286 4649
1070.0 4979 5305 5625 5961 6303 6616 6913 7209 7554 8015
1110.0 8613 9279 9821 10000 9671 8852 7678 6389 5232 4312
1150.0 3612 3108 2756 2517 2381 2339 2386 2496 2636 2766
1190.0 2834 2800 2669 2454 2171 1874 1599 1364 1163 1003
1230.0 887 803 729 655 595 554 517 491 482 477
1270.0 473 473 463 447 429 405 384 375 374 383
1310.0 397 406 414 417 408 396 394 407 449 527
1350.0 643 797 973 1147 1300 1422 1517 1576 1578 1512
1390.0 1388 1220 1029 846 698 592 532 510 513 534
1430.0 562 602 655 713 773 825 854 862 855 829
1470.0 789 730 659 580 494 409 338 281 239 209
1510.0 186 170 158 146 139 136 129 125 125 119
1550.0 115 114 113 107 105 99 94 90 82 79
1590.0 76 70 70 69 64 61 61 56 53 53
1630.0 50 50 49 50 54 55 51 44 41 40
1670.0 40 38 34 34 31 28 32 36 34 31
1710.0 26 25 25 24 23 21 22 21 20 19
1750.0 19 16 16 17 17 16 17 14 10 8
1790.0 7 7 5 6 7 9 11 9 9 10
1830.0 11 15 16 16 17 15 17 15 14 16
1870.0 17 20 20 19 24 29 30 27 30 34
1910.0 38 38 34 34 35 35 34 36 43 46
1950.0 46 51 57 60 63 67 71 76 80 85
1990.0 88 91 93 97 99 100 98 99 102 101
2030.0 101 103 106 108 112 116 114 111 111 106
2070.0 105 104 101 99 97 94 91 89 87 84
2110.0 81 79 76 76 73 69 67 67 66 63
2150.0 60 55 55 55 52 49 45 43 42 40
2190.0 34 30 27 26 25 23 24 23 20 18
2230.0 20 25 23 19 20 20 18 14 14 16
2270.0 16 13 13 12 11 9 9 9 8 11
2310.0 13 11 9 6 9 15 13 8 6 7
2350.0 8 12 12 8 9 12 15 17 17 14
2390.0 13 14 14 12 15 14 12 11 9 8
2430.0 5 3 1 0 7 5 4 8 10 4
2470.0 5 8 8 9 12 13 14 16 11 12
2510.0 15 16 19 21 22 19 22 27 25 28
2550.0 31 33 32 36 45 47 53 57 62 65
2590.0 69 75 78 83 87 88 89 88 90 94
2630.0 97 101 105 112 116 125 135 147 154 161
2670.0 168 170 173 179 179 177 179 177 176 181
2710.0 183 191 206 220 229 244 268 283 302 320
2750.0 328 337 345 354 370 391 417 451 495 554
2790.0 629 722 847 1017 1250 1528 1831 2147 2481 2802
2830.0 3076 3268 3332 3244 3040 2806 2626 2541 2552 2634
2870.0 2762 2906 3043 3177 3303 3405 3479 3521 3534 3518
2910.0 3494 3504 3578 3734 3935 4123 4254 4283 4216 4078
2950.0 3919 3778 3655 3560 3459 3333 3193 3080 3009 2949
2990.0 2853 2676 2419 2090 1737 1420 1170 989 851 744
3030.0 669 618 579 542 509 484 463 443 421 394
3070.0 369 353 324 302 291 270 244 227 206 187
3110.0 173 157 145 135 119 108 98 82 77 73
3150.0 69 71 70 60 51 45 39 40 43 43
3190.0 37 36 39 35 31 26 25 23 21 17
3230.0 14 19 24 20 17 21 24 24 17 13
3270.0 15 12 11 15 17 15 12 12 13 19
3310.0 16 13 12 11 14 16 17 8 2 10
3350.0 7 7 12 13 9 5 5 5 8 10
3390.0 12 16 6 3 6 11 12 11 15 7
3430.0 4 5 9 4 10 11 6 8 12 13
3470.0 6 7 9 13 8 4 11 15 10 4
3510.0 4 6 11 19 14 8 9 5 5 12
3550.0 10 1 5 11 11 7 5 3 6 8
3590.0 4 6 12 10 4 8 6 5 5 8
3630.0 11 12 15 15 9 13 12 10 13 5
3670.0 0 9 16 17 18 17 16 15 14 16
3710.0 16 20 25 17 14 19 19 13 20 29
3750.0 27 23 23 24 16 20 28 26 26 30
3790.0 30 22 22 26 25 29 28 27 38 39
3830.0 28 25 26 22 30
##END=
