##TITLE=2,4-Dichlorofluorobenzene
##JCAMP-DX=4.24
##DATA TYPE=INFRARED SPECTRUM
##ORIGIN=EPA-IR VAPOR PHASE LIBRARY
##OWNER=SRD/NIST
Collection (C) 2018 copyright by the U.S. Secretary of Commerce
on behalf of the United States of America. All rights reserved.
##CAS REGISTRY NO=1435-48-9
##MOLFORM=C 6 H 3 Cl 2 F
##$NIST SOURCE=MSDC-IR
##STATE=gas
##XUNITS=1/CM
##YUNITS=ABSORBANCE
##XFACTOR=1.
##YFACTOR=0.001
##DELTAX=1.92898
##FIRSTX=549.8
##LASTX=4000.7
##FIRSTY=6.718
##MAXX=4000.7
##MINX=549.759
##MAXY=0.336228
##MINY=0
##NPOINTS=1790
##XYDATA=(X++(Y..Y))
549.759 6.718 7.758 9.338 11.688 13.058 11.248 8.998 8.098 7.398 6.428
569.049 5.608 5.048 4.228 3.458 2.928 2.318 1.688 1.3184 1.184 1.1615
588.339 0.9647 0.7637 0.803 0.7718 0.5898 0.5503 0.45007 0.5213 0.9325 1.0499
607.628 1.0806 1.064 1.0506 0.9998 1.0268 1.0954 1.2338 1.538 1.838 2.238
626.918 2.728 3.548 5.008 7.848 12.848 20.468 29.728 37.678 41.098 40.278
646.208 40.458 40.408 39.978 39.318 32.138 21.088 12.268 7.138 4.808 3.818
665.498 3.298 2.878 2.308 2.118 2.348 2.268 2.148 2.218 2.448 2.758
684.787 3.018 3.248 3.418 3.758 4.268 4.628 5.168 6.468 8.968 13.188
704.077 19.638 29.038 41.658 56.278 70.488 82.358 91.518 98.658 104.198 106.958
723.367 104.788 95.788 80.178 63.698 51.018 40.488 31.138 23.508 17.548 13.308
742.657 10.698 8.938 7.608 6.708 5.758 4.628 3.698 2.968 2.478 2.278
761.947 1.958 1.718 1.918 2.038 2.208 2.618 3.268 4.178 4.748 4.878
781.236 5.308 5.828 6.278 7.238 8.518 10.128 12.588 16.178 20.858 26.378
800.526 32.458 38.238 43.918 50.218 58.948 70.588 80.268 72.568 54.168 46.348
819.816 43.368 38.798 33.408 27.558 22.048 17.118 13.488 11.138 10.218 10.548
839.106 12.418 15.938 20.618 26.278 31.878 35.868 38.148 39.948 42.418 44.838
858.395 45.688 44.448 41.208 38.558 39.168 41.928 42.708 35.198 25.698 22.318
877.685 20.478 18.068 15.438 12.608 9.898 7.798 6.348 5.238 4.648 4.048
896.975 3.458 3.068 2.778 2.658 2.378 1.918 1.798 1.768 1.608 1.638
916.265 1.638 1.548 1.618 1.698 1.878 2.018 2.008 2.088 2.188 2.238
935.555 2.298 2.218 1.808 1.538 1.398 1.3116 1.1707 1.0443 0.925 0.7904
954.844 0.7967 0.717 0.7124 0.803 0.8268 0.8992 1.0096 1.0324 1.201 1.398
974.134 1.598 1.568 1.3714 1.468 1.498 1.478 1.488 1.518 1.408 1.3574
993.424 1.548 1.488 1.558 1.678 1.588 1.538 1.498 1.398 1.282 1.3054
1012.714 1.3528 1.398 1.3274 1.3278 1.488 1.3177 1.428 1.858 1.838 1.668
1032.003 1.628 1.978 2.548 3.168 4.088 5.148 6.328 7.988 10.218 13.228
1051.293 16.778 20.418 23.788 25.648 26.068 26.458 27.408 28.568 28.898 26.598
1070.583 22.438 18.898 17.458 17.718 19.268 21.808 25.148 29.218 33.818 38.968
1089.873 44.658 51.558 59.128 65.158 67.948 67.328 64.608 62.308 60.788 57.698
1109.163 51.188 42.018 32.238 23.858 18.128 14.758 12.488 11.248 11.038 11.588
1128.452 12.438 13.188 14.148 15.168 16.648 18.008 17.548 16.578 16.438 16.588
1147.742 15.658 13.318 10.478 7.838 6.118 4.818 3.688 2.718 2.248 1.888
1167.032 1.618 1.528 1.0562 0.9519 1.2362 1.0974 0.9213 1.1182 1.3768 1.708
1186.322 1.828 1.958 2.228 2.438 2.588 2.488 2.678 3.128 3.278 3.708
1205.611 4.158 4.298 4.718 5.658 6.798 8.098 9.208 10.038 11.438 13.358
1224.901 15.548 17.408 18.718 19.578 20.018 20.678 21.488 23.158 26.178 29.898
1244.191 34.228 39.668 46.668 56.488 70.428 88.218 107.938 125.968 137.658 141.108
1263.481 139.588 136.588 129.588 118.188 100.328 73.958 48.048 30.138 19.778 13.698
1282.771 10.048 7.738 6.148 5.198 4.578 4.198 3.908 3.688 3.418 3.138
1302.060 2.798 2.398 2.158 1.998 1.918 1.888 1.788 1.698 1.678 1.768
1321.350 1.828 1.788 1.788 1.778 1.748 1.778 1.798 1.748 1.658 1.528
1340.640 1.468 1.508 1.528 1.688 1.958 2.308 2.778 3.438 4.248 5.198
1359.930 6.258 7.288 8.398 9.658 10.988 12.518 14.128 15.728 17.388 19.218
1379.219 21.208 22.808 23.298 22.518 21.048 19.928 19.798 19.708 18.288 15.798
1398.509 13.318 11.358 9.928 8.878 8.158 7.918 8.288 9.378 11.208 13.758
1417.799 16.748 19.508 21.538 22.648 22.888 22.708 22.248 21.118 19.368 17.078
1437.089 14.738 13.398 13.328 14.388 16.478 19.348 22.858 26.728 30.758 34.708
1456.378 38.778 43.468 49.138 56.708 67.248 82.188 102.928 130.858 166.398 208.338
1475.668 251.868 291.518 320.308 334.508 336.228 330.808 316.578 292.828 262.168 220.678
1494.958 175.038 138.118 113.908 98.568 86.678 75.958 65.458 54.668 44.038 34.238
1514.248 26.078 20.118 16.188 13.768 12.248 11.168 10.328 9.558 8.858 8.178
1533.538 7.468 6.728 5.878 4.888 3.968 3.358 3.098 3.018 2.978 3.078
1552.827 3.298 3.598 4.028 4.698 5.498 6.348 7.318 8.428 9.738 10.988
1572.117 12.178 13.468 14.738 15.968 17.158 18.138 18.778 18.948 18.778 18.448
1591.407 17.808 16.868 15.848 14.698 13.058 11.138 9.328 7.748 6.648 5.938
1610.697 5.548 5.338 5.198 5.118 5.028 4.848 4.578 4.298 4.088 3.878
1629.986 3.658 3.408 3.018 2.578 2.158 1.848 1.578 1.408 1.2677 1.1004
1649.276 1.0726 1.0917 1.0466 0.9471 0.8568 0.7846 0.8162 0.8421 0.8827 0.9543
1668.566 0.9366 0.9887 1.0251 1.0444 0.9984 0.9451 0.9888 1.0841 1.1541 1.1579
1687.856 1.234 1.2665 1.3424 1.538 1.658 1.838 2.178 2.498 2.718 2.828
1707.146 2.888 2.998 3.118 3.188 3.238 3.308 3.328 3.488 3.868 4.348
1726.435 4.838 5.288 5.718 6.148 6.398 6.398 6.368 6.298 6.098 5.688
1745.725 4.948 4.158 3.558 3.048 2.488 1.998 1.668 1.428 1.2326 1.1243
1765.015 1.1127 1.0519 0.9835 0.9664 0.9415 0.9693 0.9747 0.95 0.98 1.0725
1784.305 1.1094 1.0923 1.0642 1.1013 1.2461 1.353 1.418 1.3709 1.3767 1.388
1803.594 1.2861 1.2342 1.1488 1.1076 1.1132 1.0411 0.9482 0.9473 0.961 0.8949
1822.884 0.837 0.7803 0.7664 0.7886 0.8325 0.8404 0.8383 0.9362 1.0184 1.0893
1842.174 1.2196 1.438 1.638 1.898 2.298 2.688 3.118 3.578 4.058 4.528
1861.464 4.928 5.238 5.438 5.478 5.258 4.848 4.508 4.238 3.818 3.238
1880.754 2.618 2.078 1.688 1.418 1.2426 1.0736 0.9444 0.8991 0.8587 0.8523
1900.043 0.8755 0.8911 0.9174 0.9294 0.9248 0.8971 0.8746 0.8607 0.8259 0.7177
1919.333 0.5997 0.5542 0.5241 0.5314 0.4946 0.45445 0.5363 0.6216 0.6707 0.7058
1938.623 0.6957 0.6363 0.6909 0.7927 0.8461 0.8983 0.9555 0.9812 1.0005 1.0358
1957.913 1.0706 1.1352 1.1413 1.1128 1.1675 1.2589 1.3552 1.448 1.518 1.578
1977.202 1.638 1.708 1.718 1.708 1.668 1.608 1.508 1.438 1.3123 1.1721
1996.492 1.0791 0.9432 0.8816 0.8243 0.7454 0.7358 0.6277 0.4957 0.4406 0.43285
2015.782 0.5134 0.5384 0.5375 0.5052 0.42669 0.3992 0.42091 0.42516 0.41881 0.44021
2035.072 0.4784 0.496 0.464 0.43289 0.41166 0.45 0.4825 0.43126 0.3644 0.3243
2054.362 0.3002 0.3097 0.2823 0.257 0.3124 0.3462 0.3676 0.37442 0.378339 0.41065
2073.651 0.46161 0.45294 0.40111 0.40953 0.4857 0.5376 0.5515 0.5889 0.5765 0.6033
2092.941 0.6307 0.6236 0.6651 0.6713 0.7085 0.7701 0.817 0.9227 1.0211 1.0454
2112.231 1.1331 1.1287 1.0745 1.15 1.1872 1.1146 0.9909 0.9007 0.8181 0.7276
2131.521 0.6626 0.6499 0.6546 0.5793 0.5302 0.5364 0.5107 0.4992 0.46847 0.46641
2150.810 0.5127 0.4844 0.41751 0.44719 0.47462 0.498 0.483 0.42721 0.3995 0.40927
2170.100 0.4096 0.377757 0.35 0.3571 0.39137 0.42847 0.5054 0.5637 0.6006 0.6138
2189.390 0.6474 0.7207 0.7534 0.819 0.9121 0.9014 0.9188 0.9898 0.9568 0.8892
2208.680 0.8427 0.7998 0.7943 0.7883 0.7514 0.7734 0.8089 0.8311 0.8947 0.9312
2227.970 0.895 0.8555 0.8647 0.9129 0.9615 0.953 0.9784 0.9771 0.9288 0.8813
2247.259 0.7649 0.7141 0.6969 0.6755 0.635 0.5848 0.532 0.5236 0.5982 0.531
2266.549 0.4781 0.5936 0.6828 0.6842 0.6909 0.7852 0.836 0.8838 0.9499 0.9477
2285.839 0.9234 0.9187 0.918 0.8754 0.9081 0.9377 0.9543 0.9413 0.8952 0.9167
2305.129 0.9082 0.8716 0.8611 0.9187 1.0071 1.0731 1.1408 1.1742 1.1798 1.1982
2324.418 1.223 1.2303 1.2876 1.3237 1.3306 1.3405 1.2553 1.134 1.0904 1.1429
2343.708 1.1409 1.0486 0.9613 0.8891 0.834 0.8748 0.9077 0.8412 0.7528 0.7179
2362.998 0.6856 0.6501 0.6377 0.6203 0.5938 0.5215 0.5122 0.5245 0.5029 0.4975
2382.288 0.5373 0.5455 0.5367 0.5868 0.5499 0.45838 0.4893 0.5387 0.4981 0.4928
2401.578 0.4881 0.5302 0.5654 0.5642 0.5178 0.4816 0.5112 0.5066 0.5426 0.5779
2420.867 0.559 0.5837 0.6407 0.6295 0.6338 0.6936 0.7186 0.7969 0.8851 0.8496
2440.157 0.8721 0.8833 0.8514 0.7975 0.7954 0.8475 0.8274 0.8059 0.7833 0.7906
2459.447 0.8192 0.822 0.8555 0.8701 0.8022 0.8341 0.8586 0.8146 0.8726 0.9243
2478.737 0.8951 0.8857 0.9109 0.9741 1.0402 1.0393 0.999 1.0215 1.061 1.0241
2498.026 1.0995 1.2739 1.3349 1.388 1.518 1.628 1.698 1.768 1.778 1.828
2517.316 1.898 1.948 1.918 1.838 1.838 1.798 1.688 1.568 1.458 1.3429
2536.606 1.1594 1.018 0.9418 0.8271 0.8082 0.7567 0.7069 0.6696 0.5772 0.5643
2555.896 0.4912 0.37628 0.3154 0.3364 0.4352 0.46909 0.43338 0.39437 0.383732 0.385672
2575.186 0.45117 0.4849 0.4398 0.42101 0.40581 0.387799 0.46205 0.4997 0.42702 0.43123
2594.475 0.46534 0.44253 0.42492 0.43737 0.41322 0.4143 0.41199 0.41405 0.49 0.5319
2613.765 0.5756 0.5891 0.5749 0.5468 0.4952 0.47633 0.487 0.5559 0.5601 0.5485
2633.055 0.5348 0.46847 0.40503 0.47051 0.5903 0.5579 0.5165 0.42305 0.407 0.4866
2652.345 0.5401 0.572 0.5485 0.5134 0.4849 0.5226 0.5273 0.47667 0.41767 0.43808
2671.634 0.43579 0.381929 0.43538 0.44625 0.39499 0.42268 0.481 0.4898 0.44942 0.40954
2690.924 0.4049 0.4347 0.4259 0.41443 0.45886 0.5165 0.5469 0.5515 0.5301 0.5528
2710.214 0.4959 0.48 0.6468 0.7588 0.7841 0.7188 0.6769 0.6828 0.7183 0.7798
2729.504 0.7975 0.7616 0.7133 0.7962 0.7987 0.7703 0.8148 0.7803 0.8111 0.8311
2748.794 0.7122 0.5973 0.5447 0.6119 0.6043 0.4983 0.5323 0.5349 0.47141 0.40769
2768.083 0.382538 0.41046 0.37479 0.3532 0.3375 0.3132 0.3526 0.37276 0.40644 0.4438
2787.373 0.41583 0.40833 0.4795 0.5543 0.4859 0.43738 0.5167 0.5238 0.5152 0.5973
2806.663 0.7158 0.8263 0.9938 1.0371 1.0249 1.1225 1.2435 1.272 1.2669 1.3572
2825.953 1.418 1.478 1.508 1.518 1.528 1.538 1.608 1.578 1.538 1.658
2845.242 1.618 1.568 1.668 1.588 1.398 1.1751 1.0131 0.9951 0.9645 0.8129
2864.532 0.6629 0.5496 0.37371 0.3369 0.43583 0.377477 0.386137 0.4899 0.45046 0.264
2883.822 0.137 0.181 0.25 0.202 0.11 0.161 0.2951 0.269 0.241 0.268
2903.112 0.228 0.25 0.219 0.183 0.182 0.147 0.163 0.131 0.165 0.238
2922.401 0.17 0.157 0.209 0.257 0.2935 0.262 0.259 0.227 0.183 0.252
2941.691 0.26 0.37622 0.45203 0.3332 0.3298 0.3509 0.3206 0.23 0.296 0.2886
2960.981 0.259 0.25 0.2957 0.43167 0.3307 0.218 0.224 0.211 0.219 0.193
2980.271 0.22 0.3599 0.3177 0.173 0.123 0.116 0.145 0.247 0.26 0.173
2999.561 0.247 0.3454 0.3088 0.2979 0.3595 0.37434 0.267 0.278 0.3252 0.23
3018.850 0.182 0.199 0.17 0.293 0.44104 0.39704 0.37248 0.3362 0.3104 0.45996
3038.140 0.5331 0.5263 0.5458 0.6101 0.7103 0.788 0.797 0.762 0.6669 0.6285
3057.430 0.5515 0.6557 0.8659 0.9402 1.0456 1.1913 1.478 1.648 1.888 2.268
3076.720 2.458 2.468 2.318 2.268 2.278 2.148 1.988 1.788 1.618 1.478
3096.009 1.2245 1.0005 0.8943 0.7766 0.6994 0.6745 0.4402 0.264 0.3501 0.3106
3115.299 0.2923 0.39739 0.3442 0.205 0.27 0.3429 0.153 0.104 0.253 0.291
3134.589 0.155 0.174 0.246 0.253 0.2818 0.3079 0.259 0.215 0.227 0.221
3153.879 0.305 0.237 0.111 0.021 0.164 0.2848 0.239 0.37189 0.45203 0.3163
3173.169 0.2925 0.41757 0.37022 0.2911 0.209 0.2787 0.4027 0.2799 0.236 0.244
3192.458 0.221 0.141 0.164 0.248 0.22 0.271 0.3128 0.274 0.383963 0.39752
3211.748 0.16 0.156 0.214 0.178 0.2988 0.293 0.247 0.302 0.2966 0.3602
3231.038 0.385115 0.284 0.188 0.124 0.24 0.277 0.218 0.204 0.076 0.038
3250.328 0.136 0.146 0.21 0.307 0.216 0.215 0.137 0.082 0.17 0.116
3269.617 0 0.06 0.2864 0.3629 0.3294 0.241 0.167 0.169 0.159 0.156
3288.907 0.077 0.255 0.47125 0.42892 0.343 0.177 0.116 0.167 0.13 0.188
3308.197 0.258 0.37554 0.46011 0.36812 0.361 0.43919 0.3462 0.228 0.3082 0.3377
3327.487 0.2935 0.3574 0.3296 0.207 0.249 0.244 0.1 0.094 0.158 0.221
3346.777 0.3338 0.2822 0.173 0.134 0.165 0.273 0.25 0.146 0.044 0.04
3366.066 0.132 0.171 0.224 0.3436 0.4878 0.5303 0.40138 0.2996 0.3191 0.3507
3385.356 0.3197 0.183 0.244 0.216 0.123 0.192 0.183 0.155 0.022 0.055
3404.646 0.146 0.143 0.148 0.034 0.139 0.246 0.179 0.12 0.21 0.3345
3423.936 0.264 0.158 0.07 0.142 0.211 0.266 0.265 0.238 0.44805 0.44898
3443.225 0.3224 0.347 0.274 0.154 0.197 0.231 0.205 0.208 0.25 0.256
3462.515 0.166 0.093 0.107 0.3081 0.3284 0.3082 0.41971 0.39034 0.3577 0.3473
3481.805 0.265 0.43639 0.5411 0.3057 0.21 0.274 0.3117 0.3481 0.39289 0.37651
3501.095 0.3107 0.3586 0.3247 0.043 0.042 0.213 0.191 0.166 0.148 0.064
3520.385 0.049 0.083 0.164 0.13 0.116 0.2926 0.242 0.227 0.3373 0.2874
3539.674 0.224 0.274 0.3609 0.273 0.255 0.3059 0.3279 0.37178 0.256 0.16
3558.964 0.42238 0.5245 0.2919 0.266 0.168 0.137 0.276 0.208 0.16 0.19
3578.254 0.243 0.277 0.277 0.3476 0.3274 0.3024 0.3564 0.2791 0.214 0.233
3597.544 0.217 0.276 0.378908 0.3228 0.3589 0.40237 0.3518 0.291 0.157 0.207
3616.833 0.44243 0.43168 0.384153 0.332 0.237 0.271 0.244 0.257 0.208 0.277
3636.123 0.3158 0.203 0.188 0.253 0.266 0.183 0.3094 0.3576 0.316 0.40585
3655.413 0.43715 0.46539 0.36949 0.263 0.242 0.3484 0.43147 0.2915 0.22 0.261
3674.703 0.222 0.115 0.184 0.342 0.42478 0.37376 0.2895 0.293 0.2862 0.261
3693.993 0.233 0.168 0.181 0.3473 0.5525 0.5469 0.45108 0.45597 0.46878 0.38834
3713.282 0.3571 0.5052 0.5314 0.3327 0.3046 0.46409 0.46283 0.3289 0.3576 0.4932
3732.572 0.5381 0.58 0.5001 0.4207 0.6103 0.6756 0.6375 0.5776 0.39342 0.46889
3751.862 0.6833 0.7028 0.6092 0.5625 0.6323 0.6857 0.5969 0.5137 0.43652 0.3218
3771.152 0.2794 0.274 0.253 0.288 0.3258 0.3003 0.39301 0.41291 0.37666 0.3656
3790.441 0.331 0.3194 0.3552 0.3486 0.225 0.173 0.201 0.2966 0.387367 0.43312
3809.731 0.46048 0.37234 0.3109 0.3109 0.3384 0.2998 0.198 0.39097 0.5844 0.5053
3829.021 0.3588 0.40953 0.42331 0.3297 0.243 0.3272 0.3558 0.3239 0.45412 0.3448
3848.311 0.2828 0.42602 0.3546 0.2783 0.37469 0.277 0.193 0.3077 0.228 0.173
3867.601 0.195 0.184 0.168 0.182 0.222 0.226 0.3557 0.38544 0.239 0.176
3886.890 0.143 0.165 0.2796 0.37104 0.5887 0.6388 0.5581 0.47557 0.355 0.3014
3906.180 0.3317 0.41001 0.45856 0.5877 0.5774 0.47698 0.46511 0.46577 0.4746 0.44245
3925.470 0.5914 0.7363 0.7457 0.6639 0.6483 0.7766 0.8223 0.8433 0.9296 0.8793
3944.760 0.8343 0.9049 0.879 0.6883 0.5491 0.5628 0.6322 0.6478 0.6461 0.6172
3964.049 0.4985 0.5458 0.5208 0.242 0.223 0.3535 0.36871 0.3511 0.3149 0.3248
3983.339 0.3264 0.264 0.185 0.257 0.2831 0.274 0.3325 0.3523 0.2936 0.14
##END=
