##TITLE=3,5-Dichlorofluorobenzene
##JCAMP-DX=4.24
##DATA TYPE=INFRARED SPECTRUM
##ORIGIN=EPA-IR VAPOR PHASE LIBRARY
##OWNER=SRD/NIST
Collection (C) 2018 copyright by the U.S. Secretary of Commerce
on behalf of the United States of America. All rights reserved.
##CAS REGISTRY NO=1435-46-7
##MOLFORM=C 6 H 3 Cl 2 F
##$NIST SOURCE=MSDC-IR
##STATE=gas
##XUNITS=1/CM
##YUNITS=ABSORBANCE
##XFACTOR=1.
##YFACTOR=0.001
##DELTAX=1.92898
##FIRSTX=549.8
##LASTX=4000.7
##FIRSTY=1.1185
##MAXX=4000.7
##MINX=549.759
##MAXY=0.273226
##MINY=0
##NPOINTS=1790
##XYDATA=(X++(Y..Y))
549.759 1.1185 0.7977 0.766 1.1765 1.165 0.8568 0.745 0.656 0.762 1.0128
569.049 1.2136 1.1621 1.2099 0.97375 0.8813 1.1089 1.0258 0.93937 0.89496 1.0375
588.339 1.0006 0.634 0.535 0.803 1.1618 1.018 0.544 0.545 0.90935 1.0357
607.628 0.9145 0.793 0.721 0.8043 0.88842 0.9733 0.92696 0.714 0.624 0.659
626.918 0.781 0.95051 1.0701 1.3141 1.4151 1.4481 1.7789 2.196 2.936 4.166
646.208 5.966 8.536 10.986 12.886 13.926 14.976 18.416 28.086 34.676 24.416
665.498 14.476 13.646 13.566 12.376 9.766 7.166 5.276 3.746 2.626 1.986
684.787 1.4196 1.1541 1.1016 1.0275 1.0501 1.217 1.2258 1.0894 0.8783 0.789
704.077 0.8271 0.795 0.8431 0.802 0.7961 0.8699 0.903624 0.8608 0.77 0.72
723.367 0.8508 0.97647 0.92271 0.8488 0.9099 1.0731 1.0823 1.1437 0.92615 0.91169
742.657 1.2023 1.2106 1.0675 0.97562 1.1032 1.2578 1.1152 1.0836 1.2574 1.2709
761.947 1.402 1.5947 1.7308 1.8061 1.8886 2.216 2.666 3.256 4.146 5.406
781.236 7.156 9.346 12.196 15.816 20.086 24.976 30.346 35.716 40.786 45.186
800.526 48.506 50.386 50.406 49.496 48.016 45.206 42.126 39.796 37.236 34.636
819.816 33.316 33.146 33.446 33.876 33.996 34.026 34.066 34.566 35.666 37.076
839.106 39.016 41.436 45.016 50.736 58.136 62.756 61.136 58.876 55.676 47.326
858.395 40.566 37.446 33.476 27.286 21.076 16.486 12.946 10.096 7.896 6.156
877.685 4.906 4.066 3.426 3.426 3.406 3.086 3.156 3.276 3.296 3.506
896.975 4.006 4.466 4.876 5.566 6.656 7.856 9.296 11.286 13.986 17.506
916.265 22.486 29.666 38.806 49.856 61.936 73.176 81.706 85.576 84.656 82.806
935.555 83.796 83.196 73.756 57.686 41.106 27.476 18.076 12.366 9.116 7.066
954.844 5.756 5.106 4.906 4.756 4.266 3.376 2.766 2.316 1.8512 1.4953
974.134 1.3423 1.4553 1.4436 1.4035 1.5061 1.4727 1.4613 1.6033 1.4719 1.3935
993.424 1.5642 1.5786 1.7476 1.926 1.916 1.946 2.006 1.906 1.996 2.146
1012.714 2.086 2.116 1.936 2.106 2.176 1.8864 1.896 1.8716 1.7417 1.7775
1032.003 1.8627 1.7385 1.6182 1.4522 1.4856 1.5844 1.6368 1.8158 2.066 2.276
1051.293 2.476 3.066 3.986 4.756 5.336 6.036 7.226 8.156 8.786 9.776
1070.583 10.836 12.676 15.746 18.766 22.016 25.796 28.906 31.206 32.596 33.926
1089.873 34.496 32.926 31.016 29.166 25.516 20.676 16.036 11.616 8.536 6.646
1109.163 5.146 4.316 3.576 3.146 2.596 2.216 2.116 1.7028 1.4602 1.2369
1128.452 1.0501 1.1285 0.96377 0.90751 1.1628 1.1568 1.1148 1.1184 1.142 0.97517
1147.742 1.1354 1.3426 0.9315 0.8384 1.1403 1.1738 1.0852 0.783 0.852 1.3617
1167.032 1.1892 0.95781 1.2786 1.455 1.1983 1.1291 1.2621 1.2935 1.316 1.4654
1186.322 1.7928 1.8094 1.8083 2.096 1.8613 1.8788 2.596 2.926 2.886 3.126
1205.611 3.576 3.626 3.936 4.406 4.446 5.036 5.806 6.146 6.526 6.976
1224.901 7.276 7.946 8.786 9.906 11.176 12.336 13.866 15.436 16.826 17.946
1244.191 18.526 18.866 18.866 18.306 17.156 15.586 13.916 11.726 9.676 7.886
1263.481 6.446 5.336 4.256 3.526 3.166 3.056 3.026 3.006 3.036 3.186
1282.771 3.156 3.106 3.146 2.996 2.736 2.506 2.166 1.7662 1.4325 1.2101
1302.060 1.2121 1.1681 1.0879 1.0809 1.1291 1.2132 1.2322 1.3521 1.4424 1.5184
1321.350 1.6256 1.6321 1.7384 1.926 1.976 1.966 1.966 1.966 1.996 1.976
1340.640 1.976 1.936 1.7664 1.6751 1.6378 1.584 1.6227 1.6442 1.7403 1.916
1359.930 2.126 2.496 3.036 3.826 4.846 6.136 7.726 9.606 11.576 13.256
1379.219 14.626 15.646 16.336 16.816 17.226 17.556 17.676 17.506 17.386 17.826
1398.509 19.176 21.606 25.036 29.636 35.256 41.496 47.636 52.956 57.166 60.606
1417.799 63.866 67.296 69.976 71.406 72.056 72.016 71.496 71.356 71.516 70.586
1437.089 68.366 64.986 59.986 56.186 53.706 48.946 41.516 33.686 26.966 21.896
1456.378 18.446 16.366 15.216 14.066 12.606 11.016 9.576 8.436 7.576 6.946
1475.668 6.636 6.426 6.026 5.386 4.636 3.996 3.616 3.336 3.126 3.066
1494.958 3.106 3.256 3.356 3.576 4.036 4.446 4.786 5.206 5.696 6.226
1514.248 6.726 7.326 7.986 8.546 9.166 10.066 11.256 12.586 13.776 14.796
1533.538 15.716 16.366 16.696 16.696 16.466 15.896 14.996 13.816 12.556 11.256
1552.827 10.206 9.816 10.336 11.816 14.346 17.976 23.256 30.476 39.986 52.316
1572.117 67.946 87.126 110.936 139.346 170.956 205.116 237.256 261.746 273.226 269.406
1591.407 250.746 220.736 183.606 142.716 103.526 74.266 56.906 46.916 40.396 35.506
1610.697 32.146 29.836 27.586 25.356 23.116 20.786 18.576 16.566 14.776 13.216
1629.986 11.886 10.656 9.626 8.606 7.496 6.556 5.686 5.046 4.526 3.966
1649.276 3.536 3.216 2.926 2.706 2.556 2.406 2.296 2.196 2.116 2.046
1668.566 1.906 1.7905 1.8102 1.8774 1.896 1.986 2.196 2.426 2.736 3.116
1687.856 3.456 3.926 4.416 4.866 5.376 5.806 6.196 6.616 6.806 6.806
1707.146 6.626 6.356 5.976 5.486 4.976 4.426 3.876 3.396 2.906 2.426
1726.435 2.156 2.006 1.8559 1.7126 1.6857 1.6898 1.5556 1.4481 1.374 1.2992
1745.725 1.2348 1.1745 1.1784 1.1286 1.0512 1.0536 1.1001 1.0718 1.0144 1.0444
1765.015 1.0705 1.083 1.04 1.0194 1.0482 1.0009 0.93192 0.89207 0.88791 0.88838
1784.305 0.88697 0.8668 0.8893 0.901498 0.861 0.796 0.8208 0.93248 0.8892 0.8624
1803.594 0.91963 0.9857 1.0352 1.0124 0.9962 1.0028 1.018 1.0265 1.0251 0.99035
1822.884 0.95718 0.95223 0.897368 0.8237 0.8636 0.88708 0.8835 0.882 0.89146 0.8673
1842.174 0.8005 0.791 0.7985 0.8257 0.8142 0.8381 0.8534 0.785 0.776 0.8217
1861.464 0.8555 0.8385 0.8159 0.8086 0.75 0.715 0.775 0.8447 0.8595 0.8835
1880.754 0.92329 0.94012 0.93086 0.95268 0.97444 0.97061 0.96162 0.93476 0.94472 0.92798
1900.043 0.8788 0.8686 0.8425 0.8395 0.896904 0.905292 0.8802 0.8508 0.8093 0.792
1919.333 0.8037 0.8202 0.818 0.8242 0.8501 0.900216 0.903618 0.8214 0.75 0.733
1938.623 0.743 0.711 0.676 0.641 0.623 0.658 0.646 0.587 0.583 0.653
1957.913 0.695 0.685 0.716 0.735 0.74 0.788 0.795 0.8244 0.8785 0.94602
1977.202 0.94112 0.92781 0.97429 1.0349 0.99588 0.8728 0.8602 0.92799 0.98098 0.97831
1996.492 1.0398 1.0802 1.065 1.0693 1.0726 1.0683 1.0675 1.0476 1.1156 1.1603
2015.782 1.1759 1.1718 1.0459 0.99118 0.97083 0.93292 0.8583 0.794 0.773 0.793
2035.072 0.754 0.702 0.686 0.637 0.588 0.553 0.584 0.595 0.561 0.548
2054.362 0.547 0.589 0.611 0.61 0.635 0.634 0.559 0.53 0.536 0.596
2073.651 0.619 0.607 0.591 0.598 0.649 0.632 0.658 0.679 0.699 0.693
2092.941 0.685 0.71 0.722 0.733 0.763 0.774 0.753 0.737 0.78 0.794
2112.231 0.725 0.679 0.61 0.552 0.521 0.516 0.472 0.478 0.509 0.538
2131.521 0.612 0.577 0.573 0.629 0.725 0.769 0.759 0.8024 0.802 0.8125
2150.810 0.89013 0.9498 1.04 1.1266 1.1612 1.1981 1.2664 1.3966 1.4919 1.4648
2170.100 1.4424 1.4606 1.5106 1.5162 1.467 1.4192 1.3733 1.329 1.2604 1.1494
2189.390 0.99324 0.97278 0.9321 0.8602 0.737 0.651 0.652 0.561 0.586 0.627
2208.680 0.587 0.562 0.575 0.616 0.605 0.561 0.534 0.496 0.526 0.602
2227.970 0.667 0.652 0.683 0.724 0.639 0.585 0.613 0.597 0.565 0.581
2247.259 0.561 0.537 0.515 0.507 0.554 0.566 0.486 0.448 0.423 0.404
2266.549 0.438 0.448 0.437 0.437 0.435 0.439 0.413 0.406 0.429 0.459
2285.839 0.496 0.458 0.433 0.47 0.551 0.6 0.591 0.639 0.645 0.614
2305.129 0.62 0.612 0.617 0.612 0.598 0.592 0.628 0.652 0.686 0.702
2324.418 0.665 0.661 0.665 0.705 0.76 0.8194 0.832 0.8082 0.8821 0.9367
2343.708 0.89017 0.869 0.905895 0.97338 0.9978 1.0728 1.1708 1.1815 1.2387 1.3179
2362.998 1.4019 1.495 1.468 1.3824 1.443 1.4933 1.4065 1.3068 1.221 1.1509
2382.288 1.0501 0.97039 0.97333 0.88979 0.761 0.646 0.591 0.543 0.458 0.465
2401.578 0.433 0.429 0.457 0.514 0.511 0.474 0.546 0.505 0.435 0.495
2420.867 0.488 0.443 0.502 0.506 0.47 0.543 0.534 0.474 0.52 0.616
2440.157 0.68 0.642 0.608 0.649 0.659 0.69 0.657 0.591 0.562 0.559
2459.447 0.622 0.683 0.678 0.663 0.667 0.68 0.731 0.8318 0.8809 0.8443
2478.737 0.8623 0.8325 0.7974 0.8165 0.8465 0.8505 0.8515 0.8538 0.854 0.8205
2498.026 0.7983 0.866 0.902731 0.8534 0.789 0.8485 0.92792 0.94534 0.8767 0.789
2517.316 0.8022 0.8172 0.8371 0.8035 0.657 0.566 0.544 0.479 0.395 0.401
2536.606 0.498 0.543 0.497 0.42 0.389 0.357 0.386 0.439 0.38 0.305
2555.896 0.266 0.273 0.33 0.367 0.335 0.321 0.318 0.367 0.43 0.462
2575.186 0.511 0.484 0.461 0.484 0.446 0.36 0.399 0.526 0.577 0.461
2594.475 0.372 0.512 0.507 0.451 0.533 0.512 0.434 0.403 0.501 0.533
2613.765 0.541 0.674 0.677 0.67 0.757 0.8154 0.8782 0.8529 0.794 0.8663
2633.055 0.95508 1.0391 1.0868 1.0678 0.9998 1.0399 1.1496 1.0915 1.125 1.1682
2652.345 1.1048 1.1208 1.0898 1.0813 1.0679 0.99217 0.97546 0.94255 0.9261 0.96442
2671.634 0.98049 0.9472 0.88713 0.8309 0.853 0.8603 0.843 0.8666 0.8606 0.8209
2690.924 0.795 0.8317 0.783 0.786 0.8594 0.743 0.65 0.705 0.718 0.696
2710.214 0.712 0.686 0.679 0.679 0.652 0.661 0.693 0.667 0.539 0.43
2729.504 0.444 0.409 0.367 0.362 0.291 0.285 0.247 0.27 0.33 0.225
2748.794 0.199 0.322 0.364 0.311 0.354 0.429 0.416 0.363 0.27 0.288
2768.083 0.363 0.185 0.124 0.205 0.207 0.15 0.124 0.209 0.282 0.301
2787.373 0.345 0.374 0.291 0.268 0.364 0.349 0.32 0.415 0.459 0.393
2806.663 0.343 0.377 0.398 0.317 0.288 0.363 0.453 0.488 0.418 0.373
2825.953 0.362 0.529 0.594 0.482 0.456 0.521 0.567 0.592 0.665 0.629
2845.242 0.594 0.618 0.675 0.617 0.592 0.711 0.7968 0.97671 1.0921 0.97431
2864.532 0.92988 1.0096 0.88824 0.79 0.791 0.694 0.613 0.5 0.448 0.438
2883.822 0.312 0.221 0.29 0.182 0.178 0.352 0.315 0.339 0.361 0.278
2903.112 0.21 0.219 0.296 0.314 0.298 0.336 0.348 0.303 0.255 0.273
2922.401 0.255 0.239 0.324 0.36 0.329 0.223 0.172 0.141 0.175 0.214
2941.691 0.2 0.174 0.195 0.249 0.141 0.05 0.055 0.106 0.095 0.138
2960.981 0.19 0.111 0.115 0.196 0.203 0.23 0.279 0.242 0.204 0.235
2980.271 0.202 0.213 0.278 0.259 0.336 0.448 0.439 0.451 0.5 0.498
2999.561 0.454 0.547 0.653 0.556 0.515 0.558 0.501 0.4 0.411 0.428
3018.850 0.508 0.581 0.444 0.422 0.464 0.387 0.165 0.08 0.223 0.257
3038.140 0.34 0.341 0.286 0.303 0.234 0.145 0.062 0.057 0.13 0.143
3057.430 0.179 0.214 0.274 0.387 0.402 0.442 0.472 0.504 0.563 0.499
3076.720 0.53 0.717 0.873 0.95756 1.1511 1.5156 1.936 2.186 2.366 2.596
3096.009 2.756 2.866 2.756 2.626 2.406 1.986 1.5534 1.1869 0.895126 0.655
3115.299 0.555 0.544 0.559 0.599 0.507 0.441 0.392 0.352 0.441 0.52
3134.589 0.388 0.303 0.343 0.323 0.49 0.647 0.528 0.462 0.487 0.458
3153.879 0.446 0.587 0.764 0.789 0.703 0.706 0.7 0.652 0.681 0.723
3173.169 0.765 0.8422 0.8736 0.8699 0.8004 0.632 0.654 0.664 0.36 0.294
3192.458 0.473 0.476 0.491 0.384 0.24 0.206 0.352 0.387 0.275 0.447
3211.748 0.449 0.297 0.336 0.347 0.22 0.255 0.388 0.287 0.198 0.19
3231.038 0.236 0.316 0.363 0.339 0.252 0.275 0.242 0.149 0.215 0.261
3250.328 0.255 0.306 0.347 0.283 0.376 0.474 0.329 0.25 0.296 0.18
3269.617 0.099 0.231 0.308 0.213 0.159 0.269 0.222 0.239 0.278 0.288
3288.907 0.222 0.138 0.126 0.038 0.061 0.215 0.263 0.303 0.38 0.328
3308.197 0.323 0.351 0.261 0.268 0.295 0.258 0.278 0.302 0.367 0.397
3327.487 0.345 0.291 0.184 0.104 0.277 0.329 0.301 0.389 0.215 0.134
3346.777 0.24 0.165 0.217 0.217 0.178 0.226 0.211 0.17 0.262 0.25
3366.066 0.1 0.129 0.162 0.173 0.289 0.289 0.219 0.31 0.334 0.352
3385.356 0.282 0.047 0.105 0.325 0.408 0.407 0.301 0.266 0.227 0.22
3404.646 0.348 0.418 0.37 0.315 0.532 0.636 0.406 0.252 0.365 0.428
3423.936 0.155 0.109 0.32 0.333 0.283 0.229 0.215 0.28 0.246 0.121
3443.225 0.154 0.381 0.383 0.36 0.377 0.36 0.417 0.388 0.33 0.374
3462.515 0.476 0.424 0.423 0.463 0.275 0.16 0.304 0.418 0.344 0.224
3481.805 0.275 0.439 0.513 0.353 0.325 0.489 0.4 0.149 0.194 0.484
3501.095 0.501 0.49 0.433 0.282 0.41 0.489 0.251 0.164 0.294 0.44
3520.385 0.45 0.419 0.464 0.359 0.33 0.423 0.45 0.318 0.184 0.214
3539.674 0.417 0.507 0.385 0.283 0.222 0.292 0.359 0.247 0.21 0.206
3558.964 0.244 0.273 0.322 0.291 0.252 0.35 0.403 0.498 0.264 0.092
3578.254 0.272 0.311 0.159 0.1 0.228 0.459 0.398 0.118 0.09 0.24
3597.544 0.336 0.367 0.44 0.442 0.509 0.505 0.374 0.426 0.446 0.385
3616.833 0.388 0.521 0.657 0.525 0.398 0.402 0.404 0.329 0.345 0.38
3636.123 0.243 0.258 0.224 0.091 0.107 0.306 0.415 0.4 0.469 0.403
3655.413 0.279 0.252 0.297 0.272 0.288 0.15 0.05 0.27 0.306 0.373
3674.703 0.386 0.327 0.34 0.293 0.297 0.408 0.406 0.241 0.291 0.283
3693.993 0.274 0.331 0.321 0.401 0.407 0.431 0.32 0.319 0.319 0.218
3713.282 0.328 0.395 0.382 0.149 0.067 0.202 0.344 0.319 0.283 0.336
3732.572 0.184 0.185 0.198 0.018 0.057 0.169 0.174 0.337 0.425 0.366
3751.862 0.452 0.427 0.368 0.482 0.385 0.264 0.312 0.331 0.293 0.135
3771.152 0.252 0.416 0.308 0.275 0.28 0.378 0.419 0.398 0.404 0.267
3790.441 0.267 0.323 0.35 0.293 0.282 0.564 0.46 0.261 0.395 0.257
3809.731 0.131 0.293 0.52 0.463 0.343 0.25 0.16 0.346 0.243 0.058
3829.021 0.212 0.291 0.216 0.184 0.258 0.293 0.266 0.296 0.231 0.301
3848.311 0.416 0.437 0.449 0.461 0.357 0.287 0.289 0.28 0.274 0.143
3867.601 0.138 0.072 0 0.123 0.453 0.552 0.363 0.525 0.624 0.446
3886.890 0.312 0.236 0.113 0.291 0.492 0.449 0.404 0.478 0.626 0.574
3906.180 0.494 0.54 0.43 0.243 0.3 0.292 0.297 0.476 0.525 0.465
3925.470 0.346 0.32 0.378 0.32 0.398 0.464 0.429 0.446 0.434 0.48
3944.760 0.476 0.338 0.191 0.181 0.261 0.317 0.335 0.204 0.338 0.508
3964.049 0.217 0.035 0.137 0.131 0.067 0.17 0.256 0.262 0.07 0.086
3983.339 0.174 0.025 0.117 0.205 0.119 0.218 0.294 0.23 0.203 0.13
##END=
