##TITLE=3,4-Dichlorofluorobenzene
##JCAMP-DX=4.24
##DATA TYPE=INFRARED SPECTRUM
##ORIGIN=EPA-IR VAPOR PHASE LIBRARY
##OWNER=SRD/NIST
Collection (C) 2018 copyright by the U.S. Secretary of Commerce
on behalf of the United States of America. All rights reserved.
##CAS REGISTRY NO=1435-49-0
##MOLFORM=C 6 H 3 Cl 2 F
##$NIST SOURCE=MSDC-IR
##STATE=gas
##XUNITS=1/CM
##YUNITS=ABSORBANCE
##XFACTOR=1.
##YFACTOR=0.001
##DELTAX=1.92898
##FIRSTX=549.8
##LASTX=4000.7
##FIRSTY=1.0303
##MAXX=4000.7
##MINX=549.759
##MAXY=0.224935
##MINY=0
##NPOINTS=1790
##XYDATA=(X++(Y..Y))
549.759 1.0303 1.1073 1.2065 1.805 2.475 2.635 3.175 3.985 4.455 4.915
569.049 5.305 6.195 9.075 10.785 8.185 5.675 5.075 4.945 4.535 3.735
588.339 2.965 2.325 1.965 1.535 1.0542 0.8391 0.7899 0.9144 1.1578 1.231
607.628 1.1598 1.3301 1.645 1.915 2.175 2.685 3.465 4.515 6.115 8.725
626.918 12.555 17.815 25.135 34.545 44.585 53.325 58.805 61.715 62.675 62.275
646.208 60.885 56.545 49.465 37.955 24.155 13.445 7.505 5.075 4.055 3.625
665.498 3.585 3.745 4.165 4.565 5.105 5.875 6.645 7.745 9.135 10.455
684.787 10.995 9.835 8.185 8.175 8.785 8.295 6.815 5.225 3.955 3.045
704.077 2.265 1.725 1.4452 1.1315 1.043 0.9098 0.6242 0.6262 0.7287 0.7016
723.367 0.60928 0.4801 0.391 0.296 0.56206 0.8093 0.6751 0.661 0.764 0.854
742.657 0.8511 0.849 0.8818 1.0184 1.1213 1.0309 1.0985 1.0659 1.0534 1.1992
761.947 1.3666 1.5106 1.525 1.605 1.725 1.855 1.975 2.095 2.395 2.865
781.236 3.465 4.275 5.405 7.115 9.095 11.585 14.255 17.035 20.305 22.955
800.526 25.425 28.835 34.145 40.475 43.275 36.465 27.665 24.995 23.765 21.525
819.816 18.525 15.265 12.245 9.655 7.515 6.015 4.935 4.355 4.195 4.295
839.106 4.835 5.835 7.755 10.575 14.135 18.125 22.505 26.495 29.765 33.585
858.395 40.955 53.385 65.435 59.665 41.595 34.935 35.075 34.185 32.685 30.105
877.685 26.935 23.965 22.105 21.075 21.165 22.105 23.985 27.635 33.265 40.285
896.975 47.525 53.405 56.715 58.335 59.275 59.755 58.605 54.075 46.635 36.915
916.265 26.925 18.965 13.335 9.835 7.695 5.965 4.665 3.825 3.215 2.835
935.555 2.675 2.385 2.045 1.915 1.815 1.815 1.845 1.985 2.145 2.075
954.844 1.995 1.955 1.895 1.935 1.905 1.775 1.755 1.585 1.535 1.585
974.134 1.4839 1.4501 1.2881 1.2142 1.2827 1.292 1.1473 1.1045 1.3007 1.4785
993.424 1.615 1.955 2.325 2.815 3.435 3.935 4.465 4.985 5.755 6.545
1012.714 7.165 7.765 8.605 10.005 11.685 13.895 16.735 19.955 23.255 25.315
1032.003 24.935 23.015 22.265 24.235 25.775 23.545 18.575 13.595 10.025 7.455
1051.293 5.305 3.535 2.615 2.095 1.715 1.525 1.4833 1.515 1.555 1.695
1070.583 1.805 1.695 1.985 2.645 2.705 2.565 2.755 2.985 3.295 4.035
1089.873 4.485 4.705 5.435 7.025 9.685 13.515 19.445 28.475 39.845 52.415
1109.163 64.465 73.615 80.295 86.285 89.615 89.405 87.655 81.425 68.835 53.785
1128.452 40.375 30.565 24.065 19.135 15.145 12.235 10.165 8.445 6.905 5.855
1147.742 4.965 4.065 3.285 3.135 2.845 2.245 2.115 1.915 1.755 1.825
1167.032 1.945 1.665 1.3435 1.4488 1.4546 1.555 1.695 1.605 1.795 2.055
1186.322 2.145 2.255 2.155 2.095 2.405 2.945 3.785 5.405 7.455 10.455
1205.611 14.585 19.455 24.645 28.455 29.725 29.685 30.095 29.365 28.405 27.625
1224.901 23.295 16.935 12.145 9.855 9.595 11.195 14.525 19.155 25.065 32.055
1244.191 39.715 47.045 53.715 60.255 66.165 70.165 72.085 72.655 72.245 70.445
1263.481 67.485 63.565 58.565 53.875 49.955 46.055 41.835 37.385 32.605 27.105
1282.771 21.295 16.195 12.235 9.295 7.095 5.575 4.425 3.535 2.975 2.415
1302.060 2.015 1.905 1.855 1.775 1.785 1.855 1.935 2.005 2.105 2.225
1321.350 2.295 2.325 2.365 2.435 2.415 2.275 2.115 1.965 1.855 1.725
1340.640 1.565 1.4008 1.3437 1.4429 1.605 1.765 2.075 2.545 3.095 3.785
1359.930 4.755 6.025 7.475 8.995 10.555 12.005 13.085 13.845 14.375 14.945
1379.219 15.835 16.795 17.485 17.705 17.435 16.715 15.655 14.375 13.115 12.415
1398.509 12.185 11.355 9.525 7.585 6.155 5.175 4.555 4.285 4.285 4.545
1417.799 5.165 6.355 8.385 11.345 15.355 19.995 24.445 27.695 29.365 30.255
1437.089 31.135 31.215 30.445 29.955 28.645 26.875 27.145 30.965 39.055 51.665
1456.378 69.855 94.045 122.795 153.915 182.965 205.865 219.595 224.935 222.695 212.735
1475.668 196.745 174.695 145.435 111.565 79.255 53.955 37.165 27.125 21.325 17.855
1494.958 15.635 14.155 13.105 12.375 12.145 12.355 12.755 13.185 13.505 13.845
1514.248 13.885 13.535 13.165 12.385 11.245 10.145 9.195 8.305 7.575 7.075
1533.538 6.815 6.815 7.055 7.355 7.555 7.705 7.775 7.835 7.955 7.985
1552.827 8.035 8.225 8.625 9.435 10.695 12.405 14.635 17.395 20.665 24.575
1572.117 29.125 34.355 40.335 47.235 55.205 64.265 73.825 82.705 89.485 93.725
1591.407 95.545 94.715 91.055 84.545 75.565 65.275 54.365 43.765 34.675 26.935
1610.697 20.525 15.525 11.945 9.655 8.175 7.165 6.425 5.765 5.115 4.445
1629.986 3.895 3.475 3.045 2.685 2.465 2.325 2.185 2.155 2.165 2.195
1649.276 2.295 2.445 2.545 2.605 2.735 2.855 2.835 2.745 2.705 2.715
1668.566 2.675 2.505 2.325 2.215 2.065 1.825 1.655 1.585 1.5069 1.4694
1687.856 1.4053 1.3853 1.4477 1.5071 1.575 1.605 1.685 1.825 2.035 2.295
1707.146 2.555 2.805 3.085 3.485 3.845 4.065 4.125 4.115 4.075 3.995
1726.435 4.045 4.105 3.925 3.635 3.415 3.235 2.975 2.765 2.585 2.405
1745.725 2.285 2.125 1.905 1.705 1.525 1.3795 1.253 1.127 1.0525 1.0153
1765.015 0.992 0.9179 0.8195 0.7883 0.7677 0.7211 0.6483 0.6221 0.6703 0.6478
1784.305 0.6735 0.7595 0.8296 0.9454 1.0469 1.1305 1.2267 1.3035 1.3167 1.3211
1803.594 1.3325 1.3457 1.3002 1.2002 1.1454 1.0742 0.9851 0.8982 0.8566 0.8751
1822.884 0.8592 0.8274 0.8038 0.7784 0.7652 0.7978 0.8724 0.8706 0.8822 0.9519
1842.174 1.062 1.1992 1.3968 1.655 1.965 2.265 2.605 3.045 3.355 3.645
1861.464 4.015 4.295 4.445 4.505 4.425 4.185 3.895 3.645 3.445 3.175
1880.754 2.785 2.375 2.005 1.685 1.4731 1.2965 1.1595 1.0973 1.0777 1.1306
1900.043 1.1532 1.1276 1.1267 1.1047 1.1107 1.1403 1.1161 1.0834 1.0597 1.0023
1919.333 0.9549 0.9473 0.9224 0.8958 0.915 0.9035 0.8963 0.901 0.922 0.9671
1938.623 0.9549 0.9436 0.955 0.8976 0.827 0.8039 0.7355 0.7163 0.6921 0.6427
1957.913 0.6497 0.6265 0.58372 0.55694 0.56984 0.55628 0.5017 0.53035 0.50773 0.398
1977.202 0.415 0.4653 0.4776 0.4577 0.4459 0.4775 0.4357 0.384 0.376 0.385
1996.492 0.414 0.4532 0.516564 0.53697 0.523678 0.54398 0.55912 0.59836 0.6769 0.6854
2015.782 0.7019 0.7385 0.7282 0.7767 0.8543 0.8689 0.829 0.7513 0.7242 0.7312
2035.072 0.7266 0.6927 0.60874 0.586 0.58921 0.58541 0.55111 0.514114 0.56742 0.53913
2054.362 0.4571 0.4945 0.54404 0.56439 0.524155 0.4798 0.524218 0.53877 0.514819 0.55531
2073.651 0.54767 0.5648 0.6451 0.6434 0.60708 0.58704 0.5855 0.58528 0.59268 0.6511
2092.941 0.7027 0.6855 0.6749 0.6222 0.6284 0.7062 0.7283 0.7563 0.8284 0.9427
2112.231 1.0088 1.0604 1.1685 1.2047 1.1245 1.111 1.1347 1.0779 1.0545 1.0104
2131.521 0.9318 0.8674 0.8219 0.827 0.8711 0.8965 0.9134 1.0334 1.1655 1.2283
2150.810 1.3223 1.3693 1.3704 1.4032 1.3538 1.3311 1.3486 1.2935 1.1977 1.1936
2170.100 1.1679 1.0303 0.9534 0.8936 0.8096 0.7717 0.7972 0.7792 0.7402 0.6969
2189.390 0.59637 0.54348 0.54685 0.52838 0.51129 0.4461 0.392 0.4155 0.4471 0.425
2208.680 0.4801 0.4914 0.4443 0.4731 0.5034 0.55179 0.54627 0.5758 0.6156 0.6183
2227.970 0.6693 0.7249 0.7164 0.7334 0.7793 0.7426 0.7376 0.7771 0.8033 0.8124
2247.259 0.7877 0.7224 0.7111 0.7558 0.7619 0.7191 0.7198 0.7602 0.7396 0.7196
2266.549 0.7193 0.7272 0.7592 0.7593 0.7522 0.7984 0.7793 0.7864 0.8632 0.8705
2285.839 0.8047 0.7709 0.7477 0.7257 0.7128 0.7121 0.6853 0.6264 0.56616 0.518238
2305.129 0.57311 0.59382 0.58081 0.53437 0.4723 0.4974 0.59088 0.6985 0.6989 0.7091
2324.418 0.8131 0.9058 0.9275 0.8971 0.8806 0.8224 0.8279 0.8532 0.8011 0.8418
2343.708 0.8343 0.7234 0.7335 0.7719 0.7763 0.7562 0.7567 0.7997 0.829 0.8502
2362.998 0.8366 0.8712 0.9422 1.0237 1.1437 1.1453 1.1195 1.1527 1.1904 1.1762
2382.288 1.0679 0.9882 0.9802 1.0035 0.9363 0.8587 0.792 0.7134 0.638 0.57724
2401.578 0.57673 0.58418 0.59769 0.60032 0.58251 0.53297 0.523763 0.5799 0.6454 0.715
2420.867 0.7622 0.7808 0.7732 0.7284 0.7357 0.7724 0.8099 0.7796 0.708 0.6829
2440.157 0.6913 0.6869 0.622 0.6213 0.5913 0.6385 0.7777 0.8644 0.9792 1.0497
2459.447 1.147 1.2933 1.3538 1.3924 1.41 1.4751 1.5095 1.4893 1.525 1.49
2478.737 1.4595 1.4135 1.3446 1.3482 1.3588 1.3904 1.4124 1.4187 1.4279 1.4514
2498.026 1.4411 1.3843 1.3144 1.2214 1.2453 1.2525 1.1673 1.1875 1.1472 1.0145
2517.316 1.0256 1.0294 0.9248 0.8467 0.8443 0.8583 0.7602 0.721 0.7318 0.6961
2536.606 0.6731 0.53953 0.424 0.4641 0.486 0.4298 0.4 0.4731 0.4614 0.4305
2555.896 0.399 0.325 0.35 0.4712 0.4629 0.372 0.433 0.4228 0.4229 0.4429
2575.186 0.432 0.414 0.4299 0.521113 0.52945 0.58688 0.662 0.6805 0.57592 0.517936
2594.475 0.6385 0.6467 0.5895 0.522747 0.50501 0.53057 0.53089 0.53033 0.5034 0.541
2613.765 0.59941 0.5694 0.52868 0.50784 0.5306 0.53086 0.4938 0.524559 0.4641 0.4445
2633.055 0.517267 0.52662 0.5527 0.55244 0.54445 0.5058 0.4959 0.5058 0.5375 0.5647
2652.345 0.53644 0.4637 0.374 0.4504 0.4551 0.315 0.324 0.4266 0.51155 0.4842
2671.634 0.53966 0.60987 0.53574 0.61086 0.6273 0.6395 0.7587 0.7264 0.7451 0.7073
2690.924 0.57423 0.6568 0.7249 0.7394 0.7047 0.5928 0.58337 0.6412 0.6804 0.7105
2710.214 0.7341 0.6578 0.58694 0.6346 0.6497 0.6909 0.6914 0.6279 0.59419 0.6348
2729.504 0.6489 0.5834 0.54859 0.51008 0.53265 0.58477 0.53248 0.4931 0.4849 0.376
2748.794 0.333 0.322 0.257 0.208 0.238 0.303 0.391 0.4344 0.365 0.307
2768.083 0.274 0.349 0.45 0.352 0.323 0.4277 0.403 0.334 0.4291 0.54401
2787.373 0.5137 0.5357 0.54868 0.520654 0.56576 0.6294 0.7032 0.7299 0.705 0.6745
2806.663 0.6389 0.7292 0.799 0.8908 1.0575 1.0996 1.0904 1.0532 1.0522 1.064
2825.953 1.0433 1.0768 1.0796 1.0705 1.1009 1.0248 1.0253 1.0056 0.9421 0.9121
2845.242 0.8319 0.9203 0.8953 0.6903 0.6698 0.719 0.6251 0.54653 0.4447 0.369
2864.532 0.4272 0.383 0.337 0.387 0.386 0.339 0.293 0.242 0.289 0.299
2883.822 0.232 0.247 0.321 0.293 0.2 0.222 0.273 0.252 0.297 0.295
2903.112 0.261 0.246 0.31 0.295 0.19 0.169 0.131 0.158 0.123 0.105
2922.401 0.134 0.103 0.12 0.136 0.234 0.244 0.175 0.179 0.24 0.223
2941.691 0.183 0.231 0.257 0.326 0.161 0.077 0.205 0.228 0.276 0.28
2960.981 0.221 0.206 0.28 0.398 0.293 0.289 0.4256 0.379 0.254 0.188
2980.271 0.327 0.4595 0.388 0.366 0.352 0.28 0.3 0.215 0.216 0.257
2999.561 0.299 0.342 0.306 0.333 0.293 0.222 0.236 0.38 0.4635 0.4682
3018.850 0.4642 0.292 0.176 0.303 0.286 0.306 0.369 0.343 0.312 0.315
3038.140 0.378 0.403 0.4297 0.379 0.4486 0.51724 0.4546 0.4303 0.50788 0.6167
3057.430 0.59247 0.60326 0.682 0.59812 0.6727 0.8794 1.0257 1.2788 1.625 2.005
3076.720 2.335 2.605 2.785 2.925 3.045 3.045 2.955 2.905 2.695 2.345
3096.009 2.035 1.675 1.2804 1.0461 0.9248 0.8216 0.7391 0.57558 0.4722 0.4577
3115.299 0.4 0.313 0.4578 0.54376 0.339 0.287 0.362 0.37 0.356 0.351
3134.589 0.257 0.301 0.333 0.258 0.298 0.328 0.35 0.373 0.349 0.354
3153.879 0.382 0.4553 0.54579 0.6709 0.54622 0.316 0.323 0.4701 0.53252 0.5047
3173.169 0.4673 0.369 0.243 0.21 0.362 0.375 0.364 0.388 0.321 0.287
3192.458 0.247 0.274 0.291 0.288 0.347 0.308 0.329 0.311 0.202 0.215
3211.748 0.247 0.284 0.372 0.399 0.313 0.255 0.28 0.219 0.138 0.108
3231.038 0.112 0.208 0.4467 0.54588 0.415 0.335 0.266 0.204 0.283 0.294
3250.328 0.163 0.317 0.334 0.185 0.146 0.15 0.143 0.108 0.264 0.383
3269.617 0.389 0.333 0.282 0.4262 0.4396 0.391 0.53201 0.392 0.179 0.3
3288.907 0.34 0.217 0.227 0.214 0.112 0.067 0.126 0.205 0.249 0.224
3308.197 0.247 0.23 0.137 0.178 0.252 0.244 0.213 0.336 0.387 0.283
3327.487 0.269 0.296 0.352 0.372 0.299 0.304 0.348 0.272 0.159 0.148
3346.777 0.08 0.177 0.394 0.412 0.50926 0.4343 0.28 0.235 0.222 0.285
3366.066 0.258 0.218 0.356 0.31 0.195 0.281 0.268 0.314 0.362 0.24
3385.356 0.248 0.4171 0.373 0.309 0.365 0.332 0.371 0.337 0.237 0.274
3404.646 0.278 0.368 0.368 0.217 0.151 0.272 0.50815 0.59906 0.379 0.197
3423.936 0.242 0.263 0.248 0.259 0.24 0.171 0.084 0.139 0.312 0.301
3443.225 0.213 0.284 0.272 0.21 0.248 0.329 0.344 0.269 0.225 0.18
3462.515 0.125 0.09 0.231 0.401 0.309 0.179 0.207 0.343 0.312 0.309
3481.805 0.308 0.162 0.191 0.243 0.256 0.39 0.4887 0.4974 0.4506 0.4254
3501.095 0.29 0.093 0.091 0.081 0.073 0.139 0.385 0.396 0.285 0.344
3520.385 0.238 0.294 0.4171 0.331 0.244 0.243 0.275 0.125 0.147 0.251
3539.674 0.272 0.378 0.364 0.239 0.145 0.217 0.243 0.137 0.262 0.4712
3558.964 0.333 0.181 0.211 0.227 0.213 0.204 0.367 0.4245 0.35 0.429
3578.254 0.36 0.176 0.141 0.114 0.118 0.24 0.344 0.386 0.327 0.248
3597.544 0.307 0.346 0.261 0.138 0.131 0.268 0.288 0.174 0.213 0.402
3616.833 0.367 0.32 0.391 0.387 0.388 0.4997 0.53177 0.285 0.105 0.161
3636.123 0.171 0.197 0.227 0.134 0.197 0.237 0.193 0.239 0.313 0.308
3655.413 0.188 0.095 0.081 0.176 0.369 0.357 0.31 0.301 0.258 0.239
3674.703 0.153 0.112 0.166 0.308 0.306 0.269 0.362 0.379 0.402 0.317
3693.993 0.158 0.151 0.17 0.254 0.276 0.202 0.26 0.322 0.304 0.302
3713.282 0.328 0.335 0.4843 0.56489 0.54387 0.4605 0.4622 0.59123 0.55453 0.60633
3732.572 0.59698 0.4918 0.57556 0.6294 0.4732 0.394 0.4601 0.4452 0.355 0.389
3751.862 0.4169 0.401 0.408 0.34 0.299 0.367 0.366 0.434 0.58239 0.52651
3771.152 0.376 0.384 0.4461 0.52761 0.57691 0.519499 0.519348 0.52593 0.4659 0.415
3790.441 0.45 0.384 0.34 0.4791 0.50956 0.383 0.281 0.276 0.272 0.149
3809.731 0.134 0.155 0.226 0.348 0.202 0.018 0.056 0.108 0.242 0.249
3829.021 0.075 0.095 0.132 0.016 0 0.16 0.337 0.4406 0.348 0.233
3848.311 0.214 0.357 0.4448 0.332 0.184 0.187 0.244 0.258 0.271 0.304
3867.601 0.295 0.306 0.344 0.248 0.346 0.4594 0.39 0.171 0.154 0.271
3886.890 0.304 0.351 0.348 0.31 0.224 0.254 0.335 0.328 0.309 0.26
3906.180 0.289 0.348 0.291 0.303 0.294 0.3 0.408 0.4242 0.312 0.343
3925.470 0.4809 0.516562 0.394 0.232 0.19 0.235 0.237 0.171 0.315 0.377
3944.760 0.223 0.262 0.386 0.39 0.353 0.276 0.245 0.314 0.34 0.404
3964.049 0.399 0.309 0.334 0.384 0.369 0.4192 0.54146 0.4498 0.4793 0.368
3983.339 0.305 0.391 0.292 0.285 0.277 0.265 0.341 0.464 0.4655 0.317
##END=
