##TITLE=1,2-Epoxyhexane
##JCAMP-DX=4.24
##DATA TYPE=INFRARED SPECTRUM
##ORIGIN=NIST Mass Spectrometry Data Center
##OWNER=NIST Standard Reference Data Program
Collection (C) 2018 copyright by the U.S. Secretary of Commerce
on behalf of the United States of America. All rights reserved.
##CAS REGISTRY NO=1436-34-6
##MOLFORM=C 6 H 12 O
##$NIST SOURCE=MSDC-IR
##SPECTROMETER/DATA SYSTEM=HP-GC/MS/IRD
##STATE=gas
##XUNITS=1/CM
##YUNITS=ABSORBANCE
##XFACTOR=1.0
##YFACTOR=0.000004100
##DELTAX=4.0
##FIRSTX=550.0
##LASTX=3846.0
##FIRSTY=0.000295
##MAXX=3846
##MINX=550
##MAXY=0.041
##MINY=0
##NPOINTS=825
##XYDATA=(X++(Y..Y))
550.0 72 109 90 109 97 76 92 121 113 93
590.0 84 82 79 70 58 37 26 31 26 17
630.0 22 36 30 18 8 0 12 36 45 40
670.0 47 52 47 42 43 55 67 82 91 99
710.0 110 140 177 218 259 302 360 411 466 518
750.0 556 604 644 686 715 711 724 773 809 818
790.0 835 866 887 936 1018 1125 1268 1432 1633 1863
830.0 2073 2222 2259 2187 2027 1786 1525 1312 1153 1026
870.0 936 859 787 758 762 762 774 813 866 920
910.0 982 1033 1066 1094 1094 1071 1049 1019 995 975
950.0 949 910 855 799 731 653 575 506 448 397
990.0 350 304 277 261 241 237 231 234 251 258
1030.0 248 242 233 205 190 182 178 176 173 168
1070.0 155 160 163 151 142 149 168 194 220 257
1110.0 302 336 369 402 424 422 407 389 356 324
1150.0 297 270 249 228 201 190 182 177 172 177
1190.0 196 208 232 265 285 298 312 318 319 319
1230.0 332 355 385 421 468 511 540 552 553 538
1270.0 494 434 382 341 316 301 293 290 292 299
1310.0 299 300 304 309 320 326 329 334 335 332
1350.0 331 331 336 349 374 415 481 558 632 713
1390.0 819 927 1021 1101 1148 1142 1095 1005 878 766
1430.0 719 738 796 888 988 1082 1161 1215 1242 1236
1470.0 1194 1146 1093 1005 895 780 665 541 432 346
1510.0 286 246 218 193 171 157 148 145 139 129
1550.0 123 118 110 108 107 106 107 101 101 100
1590.0 95 93 88 90 92 90 84 75 70 71
1630.0 74 72 70 69 65 60 60 69 71 67
1670.0 66 65 67 65 60 58 56 53 56 58
1710.0 57 55 55 56 58 66 74 74 73 73
1750.0 68 63 58 51 44 41 41 39 38 36
1790.0 34 36 31 33 34 30 29 30 29 29
1830.0 26 26 34 36 26 23 27 23 23 28
1870.0 30 31 31 29 27 25 29 34 34 32
1910.0 32 30 31 29 27 27 28 33 33 32
1950.0 32 31 32 33 35 38 38 37 37 37
1990.0 32 28 31 31 28 31 33 35 37 34
2030.0 37 40 42 38 35 38 37 36 34 33
2070.0 33 29 27 29 31 31 30 32 29 24
2110.0 23 31 31 23 22 27 32 30 31 34
2150.0 35 33 34 37 37 38 37 38 45 50
2190.0 47 44 43 44 46 50 53 53 53 53
2230.0 59 68 74 80 85 87 85 82 79 74
2270.0 71 63 55 58 60 55 46 46 42 35
2310.0 34 31 30 31 27 22 22 16 12 16
2350.0 20 21 20 20 19 21 22 19 16 17
2390.0 22 22 17 20 23 19 19 18 14 14
2430.0 18 18 14 13 8 8 7 4 4 1
2470.0 6 7 3 7 10 8 4 5 7 4
2510.0 5 10 17 15 16 19 20 19 20 23
2550.0 24 22 22 24 29 34 36 41 38 42
2590.0 49 48 55 62 63 61 58 62 65 65
2630.0 60 63 62 60 67 75 85 88 88 90
2670.0 98 101 102 102 102 107 114 121 122 120
2710.0 119 123 127 131 139 142 149 163 173 183
2750.0 186 185 187 185 192 205 219 226 242 263
2790.0 279 298 326 357 392 431 467 515 584 663
2830.0 755 882 1054 1270 1521 1809 2139 2497 2866 3223
2870.0 3552 3863 4088 4147 4110 4085 4048 4030 4156 4487
2910.0 5027 5729 6539 7402 8247 9021 9656 10000 9980 9759
2950.0 9486 9212 9058 9124 9170 8952 8602 8101 7276 6285
2990.0 5426 4738 4144 3619 3151 2748 2417 2165 2021 2015
3030.0 2144 2406 2702 2863 2868 2730 2439 1980 1486 1113
3070.0 851 657 527 423 354 319 288 271 254 232
3110.0 214 197 181 169 160 151 140 139 126 112
3150.0 108 99 91 95 90 83 85 82 82 80
3190.0 74 72 66 59 57 51 43 43 37 35
3230.0 32 24 14 14 18 21 22 17 8 5
3270.0 10 9 6 14 19 13 13 18 24 19
3310.0 17 18 24 26 21 13 12 19 16 21
3350.0 26 21 8 7 11 6 11 20 16 11
3390.0 12 12 11 11 15 9 8 16 16 16
3430.0 17 17 14 8 9 15 20 16 21 22
3470.0 9 4 17 24 18 13 12 7 6 11
3510.0 14 21 25 22 20 22 19 15 1 1
3550.0 6 9 19 14 10 15 17 18 14 12
3590.0 14 13 10 11 17 18 19 19 19 16
3630.0 13 17 28 26 22 21 30 34 22 23
3670.0 30 34 42 43 39 36 32 37 45 50
3710.0 55 60 60 53 51 51 48 55 56 51
3750.0 60 65 60 46 52 56 47 59 73 64
3790.0 59 65 65 75 78 66 64 68 70 70
3830.0 64 58 57 72 87
##END=
