##TITLE=3,3,5,5-Tetramethylcyclohexanone
##JCAMP-DX=4.24
##DATA TYPE=INFRARED SPECTRUM
##ORIGIN=NIST Mass Spectrometry Data Center
##OWNER=NIST Standard Reference Data Program
Collection (C) 2018 copyright by the U.S. Secretary of Commerce
on behalf of the United States of America. All rights reserved.
##CAS REGISTRY NO=14376-79-5
##MOLFORM=C 10 H 18 O
##$NIST SOURCE=MSDC-IR
##SPECTROMETER/DATA SYSTEM=HP-GC/MS/IRD
##STATE=gas
##XUNITS=1/CM
##YUNITS=ABSORBANCE
##XFACTOR=1.0
##YFACTOR=0.000003500
##DELTAX=4.0
##FIRSTX=550.0
##LASTX=3846.0
##FIRSTY=0.000952
##MAXX=3846
##MINX=550
##MAXY=0.035
##MINY=0
##NPOINTS=825
##XYDATA=(X++(Y..Y))
550.0 272 217 155 123 114 95 66 35 26 35
590.0 46 52 52 31 26 28 21 18 20 18
630.0 28 16 0 20 29 25 27 16 2 17
670.0 25 13 9 17 16 12 10 13 20 8
710.0 4 8 10 6 13 18 30 44 37 34
750.0 49 45 30 33 33 19 15 21 30 38
790.0 31 26 32 49 51 39 32 46 66 79
830.0 92 96 94 97 86 72 56 47 48 43
870.0 45 58 69 76 78 85 99 107 104 103
910.0 104 102 98 98 97 105 114 107 102 101
950.0 98 106 124 140 150 145 135 115 93 76
990.0 59 53 54 59 56 47 40 34 39 50
1030.0 59 59 66 87 105 122 139 142 132 111
1070.0 96 99 104 129 162 191 221 238 248 244
1110.0 214 186 161 150 157 166 171 183 193 197
1150.0 209 223 227 240 264 294 344 411 464 507
1190.0 531 548 570 595 661 810 1046 1292 1498 1581
1230.0 1541 1402 1216 1051 921 846 823 884 1072 1353
1270.0 1639 1839 1902 1815 1627 1380 1139 932 746 585
1310.0 453 374 343 338 362 435 563 703 808 861
1350.0 825 761 730 786 892 1120 1283 1154 1075 1010
1390.0 921 878 780 686 626 617 680 767 835 867
1430.0 840 772 731 748 814 938 1083 1241 1316 1281
1470.0 1197 1066 902 742 593 459 352 269 207 163
1510.0 130 109 93 85 81 73 67 63 60 58
1550.0 57 60 59 57 62 64 63 60 62 65
1590.0 62 64 68 67 72 80 86 94 102 114
1630.0 130 141 152 159 166 179 199 224 260 305
1670.0 354 405 470 537 617 710 845 1067 1426 1998
1710.0 2869 4013 5300 6418 7046 7001 6228 5010 3699 2607
1750.0 1883 1440 1152 941 767 622 499 401 320 266
1790.0 225 191 169 157 149 139 129 120 104 90
1830.0 78 70 66 58 52 53 54 52 47 45
1870.0 43 40 37 37 40 42 42 38 37 35
1910.0 33 33 32 31 31 35 36 33 35 29
1950.0 22 22 22 22 20 18 16 12 14 12
1990.0 15 17 15 18 19 16 15 19 18 18
2030.0 19 20 20 21 24 25 25 28 26 23
2070.0 21 25 29 28 29 28 25 23 27 34
2110.0 38 37 34 31 28 28 33 31 25 22
2150.0 20 24 23 23 24 21 20 17 14 22
2190.0 27 25 22 16 16 16 12 13 15 16
2230.0 12 9 9 10 8 11 16 15 11 8
2270.0 15 20 12 9 14 17 15 12 14 19
2310.0 18 16 18 14 13 18 15 8 11 12
2350.0 9 11 13 7 7 10 12 8 6 9
2390.0 10 12 8 9 10 9 8 6 3 5
2430.0 11 8 3 0 7 13 10 5 7 14
2470.0 11 7 9 10 16 19 19 15 12 19
2510.0 22 18 17 18 21 17 17 21 22 23
2550.0 26 22 21 24 24 17 12 15 18 16
2590.0 12 12 16 20 18 14 16 20 17 18
2630.0 26 28 28 28 30 38 44 52 59 67
2670.0 69 70 78 75 67 67 69 66 67 76
2710.0 85 99 110 115 115 121 123 118 113 111
2750.0 105 93 88 100 112 120 132 135 146 155
2790.0 155 165 186 210 236 279 332 375 426 498
2830.0 578 663 743 817 893 961 1044 1180 1406 1719
2870.0 2067 2412 2703 2915 3061 3219 3444 3743 4064 4371
2910.0 4503 4341 4107 3894 3726 3705 3806 3981 4306 4974
2950.0 6148 7644 9130 10000 9386 7802 5889 4003 2722 2054
2990.0 1720 1499 1321 1144 953 766 589 436 328 264
3030.0 229 203 181 164 147 137 131 122 111 110
3070.0 109 102 105 111 106 95 95 94 85 80
3110.0 77 71 71 78 92 86 81 84 80 76
3150.0 77 82 86 85 86 86 82 83 84 82
3190.0 87 98 102 109 111 105 95 80 71 67
3230.0 64 54 43 40 45 50 48 37 30 28
3270.0 17 17 30 26 28 36 29 24 31 35
3310.0 25 22 33 34 30 28 19 20 28 28
3350.0 27 28 27 27 31 31 26 31 35 37
3390.0 42 39 52 66 67 70 78 86 85 99
3430.0 117 125 127 120 111 103 86 71 54 47
3470.0 47 39 39 40 38 38 33 34 25 10
3510.0 16 26 22 4 4 11 19 28 18 12
3550.0 7 11 13 15 17 12 15 18 14 15
3590.0 16 9 18 20 12 7 0 0 0 5
3630.0 13 13 15 6 1 0 2 6 4 6
3670.0 6 3 2 3 7 11 13 14 13 15
3710.0 15 8 8 14 10 3 8 16 16 20
3750.0 14 9 6 8 13 14 17 21 24 29
3790.0 29 30 28 20 18 23 15 11 13 17
3830.0 20 14 17 15 8
##END=
