##TITLE=1-Phenyl-1-heptyne
##JCAMP-DX=4.24
##DATA TYPE=INFRARED SPECTRUM
##ORIGIN=NIST Mass Spectrometry Data Center
##OWNER=NIST Standard Reference Data Program
Collection (C) 2018 copyright by the U.S. Secretary of Commerce
on behalf of the United States of America. All rights reserved.
##CAS REGISTRY NO=14374-45-9
##MOLFORM=C 13 H 16
##$NIST SOURCE=MSDC-IR
##SPECTROMETER/DATA SYSTEM=HP-GC/MS/IRD
##STATE=gas
##XUNITS=1/CM
##YUNITS=ABSORBANCE
##XFACTOR=1.0
##YFACTOR=0.000002500
##DELTAX=4.0
##FIRSTX=550.0
##LASTX=3846.0
##FIRSTY=0.000468
##MAXX=3846
##MINX=550
##MAXY=0.025
##MINY=0
##NPOINTS=825
##XYDATA=(X++(Y..Y))
550.0 187 281 226 201 194 180 153 113 84 79
590.0 116 161 152 147 156 153 135 116 128 138
630.0 141 158 157 160 200 242 269 359 503 710
670.0 935 1175 1498 1835 2164 2308 2160 1917 1615 1298
710.0 1053 885 783 816 911 1116 1462 1855 2282 2673
750.0 3032 3133 2789 2367 1931 1439 1017 693 469 333
790.0 249 206 162 135 155 140 116 114 102 88
830.0 102 122 134 135 135 141 142 147 161 172
870.0 175 175 172 179 201 234 269 296 311 327
910.0 328 301 260 228 197 165 145 117 100 113
950.0 121 119 128 147 164 177 195 209 201 178
990.0 167 161 170 193 213 247 306 388 474 505
1030.0 438 313 229 214 211 234 283 325 352 341
1070.0 303 280 255 205 178 180 171 166 181 184
1110.0 159 121 86 51 28 32 32 28 20 18
1150.0 14 0 1 13 14 17 22 23 28 39
1190.0 50 55 52 51 48 52 66 77 85 94
1230.0 106 116 120 128 149 170 202 221 216 225
1270.0 259 296 348 418 484 525 517 511 518 529
1310.0 561 626 754 971 1201 1304 1246 1093 953 880
1350.0 833 780 720 660 610 551 496 477 472 447
1390.0 398 332 275 245 248 274 312 374 473 625
1430.0 839 1070 1225 1237 1165 1116 1103 1111 1116 1108
1470.0 1104 1137 1333 1820 2448 2712 2365 1671 1121 831
1510.0 593 416 307 243 206 184 162 152 146 143
1550.0 149 163 182 199 228 268 319 400 527 721
1590.0 986 1228 1331 1226 922 563 294 175 126 96
1630.0 92 92 85 90 104 117 137 167 178 158
1670.0 127 86 56 44 48 49 44 40 44 48
1710.0 47 55 66 79 94 108 115 112 104 95
1750.0 86 70 60 59 58 63 82 101 118 145
1790.0 179 193 174 130 101 99 103 91 75 63
1830.0 52 45 43 40 43 59 71 85 99 118
1870.0 139 156 173 189 184 144 98 62 40 42
1910.0 39 48 70 88 104 118 135 154 174 190
1950.0 204 206 179 121 63 30 14 10 11 8
1990.0 7 11 15 14 9 6 8 8 11 16
2030.0 14 11 15 18 16 11 5 2 5 13
2070.0 18 11 11 17 10 6 6 2 4 10
2110.0 10 8 3 5 12 12 10 10 8 9
2150.0 13 17 16 16 27 37 36 32 28 34
2190.0 56 77 94 126 170 213 238 252 255 252
2230.0 246 247 246 222 184 140 106 85 74 63
2270.0 55 50 43 39 38 41 35 28 30 44
2310.0 63 66 59 50 45 48 52 50 47 46
2350.0 50 52 43 34 26 24 29 35 28 17
2390.0 17 22 27 23 12 7 14 25 24 20
2430.0 20 11 8 4 8 16 11 13 8 5
2470.0 3 0 4 10 10 11 15 13 14 23
2510.0 30 28 18 7 10 17 26 37 40 30
2550.0 34 41 35 32 38 43 44 41 36 45
2590.0 56 59 62 57 50 60 71 79 73 63
2630.0 74 89 92 89 94 102 118 123 124 127
2670.0 123 124 135 130 125 129 123 122 106 97
2710.0 105 113 118 123 127 128 132 144 151 157
2750.0 169 174 174 171 169 193 205 200 210 230
2790.0 254 274 299 322 351 391 428 471 530 606
2830.0 696 816 990 1223 1496 1792 2112 2489 2920 3312
2870.0 3538 3553 3442 3307 3152 2973 2844 2862 3072 3462
2910.0 3940 4473 5112 5946 7012 8222 9330 10000 9911 9018
2950.0 7732 6648 6110 6035 6066 5777 5014 3965 2970 2257
2990.0 1762 1427 1213 1094 1030 990 974 977 997 1073
3030.0 1213 1355 1422 1375 1268 1236 1390 1704 2082 2379
3070.0 2419 2189 1850 1619 1551 1486 1378 1240 1072 875
3110.0 672 496 357 276 233 207 198 196 177 171
3150.0 173 144 136 142 134 119 100 88 100 107
3190.0 104 112 112 104 90 80 77 78 73 64
3230.0 68 61 67 80 67 44 46 43 36 39
3270.0 33 35 37 52 65 47 44 51 52 52
3310.0 52 47 36 38 36 20 20 25 22 17
3350.0 14 26 33 34 19 17 35 37 31 21
3390.0 18 34 32 15 11 7 12 31 39 33
3430.0 25 27 30 18 15 7 6 6 4 17
3470.0 17 26 37 32 27 26 22 32 55 60
3510.0 50 32 30 36 29 22 32 33 18 18
3550.0 17 2 2 19 26 18 11 22 27 18
3590.0 23 41 38 25 17 25 45 27 7 29
3630.0 42 35 33 41 51 58 43 28 48 67
3670.0 67 71 62 50 39 32 41 51 56 58
3710.0 66 74 64 58 51 42 51 64 68 68
3750.0 62 81 76 59 62 68 81 79 70 58
3790.0 44 46 51 48 47 47 54 70 74 63
3830.0 66 81 55 36 65
##END=
