##TITLE=trans-1,2-Dichlorocyclopentane
##JCAMP-DX=4.24
##DATA TYPE=INFRARED SPECTRUM
##ORIGIN=NIST Mass Spectrometry Data Center
##OWNER=NIST Standard Reference Data Program
Collection (C) 2018 copyright by the U.S. Secretary of Commerce
on behalf of the United States of America. All rights reserved.
##CAS REGISTRY NO=14376-81-9
##MOLFORM=C 5 H 8 Cl 2
##$NIST SOURCE=MSDC-IR
##SPECTROMETER/DATA SYSTEM=HP-GC/MS/IRD
##STATE=gas
##XUNITS=1/CM
##YUNITS=ABSORBANCE
##XFACTOR=1.0
##YFACTOR=0.000001100
##DELTAX=4.0
##FIRSTX=550.0
##LASTX=3846.0
##FIRSTY=0.000314
##MAXX=3846
##MINX=550
##MAXY=0.011
##MINY=0
##NPOINTS=825
##XYDATA=(X++(Y..Y))
550.0 285 86 23 83 66 15 76 259 345 339
590.0 389 508 646 772 905 1101 1315 1580 1719 1819
630.0 1967 2004 2029 2087 2154 2308 2647 3076 3560 4044
670.0 4353 4488 4514 4388 4124 3839 3585 3334 3117 2930
710.0 2726 2571 2421 2287 2194 2054 1917 1825 1688 1541
750.0 1460 1372 1319 1323 1315 1363 1452 1556 1632 1764
790.0 1936 2025 2105 2171 2132 2078 1959 1810 1634 1429
830.0 1256 1107 983 949 917 875 865 896 932 1014
870.0 1178 1400 1663 1979 2309 2546 2662 2664 2531 2238
910.0 1867 1527 1217 965 772 683 628 587 574 569
950.0 568 555 572 566 515 448 381 317 279 256
990.0 237 244 243 301 438 585 756 954 1084 1151
1030.0 1227 1311 1491 1680 1711 1628 1526 1367 1040 741
1070.0 534 347 277 249 214 224 249 253 212 176
1110.0 192 215 240 256 256 287 319 355 380 376
1150.0 394 372 366 401 402 443 501 548 677 874
1190.0 1171 1626 2236 2846 3318 3623 3683 3458 2992 2478
1230.0 2031 1689 1441 1354 1326 1334 1410 1474 1519 1566
1270.0 1606 1681 1794 1881 1909 1852 1773 1659 1522 1482
1310.0 1600 1785 1930 1965 1896 1747 1481 1166 849 571
1350.0 392 282 242 219 208 199 200 208 185 168
1390.0 180 222 242 275 333 394 486 620 831 1098
1430.0 1397 1709 2048 2357 2432 2307 2194 2135 2091 2007
1470.0 1905 1763 1573 1295 999 740 567 452 316 244
1510.0 234 210 190 158 125 124 132 128 115 89
1550.0 64 57 60 52 42 28 12 25 16 5
1590.0 22 14 20 32 21 9 17 22 0 7
1630.0 34 46 21 9 21 27 22 22 38 46
1670.0 50 55 58 42 31 46 58 41 33 34
1710.0 28 22 28 46 53 60 64 58 38 28
1750.0 55 65 41 26 38 44 40 55 78 69
1790.0 60 57 60 62 54 46 36 35 32 26
1830.0 23 9 22 51 63 58 62 55 27 37
1870.0 49 38 43 56 53 54 42 39 44 46
1910.0 64 78 73 86 88 82 81 72 69 71
1950.0 58 52 70 74 57 46 47 48 51 41
1990.0 39 49 34 26 28 22 32 37 42 37
2030.0 31 42 41 28 20 28 51 63 57 50
2070.0 53 56 65 70 70 76 73 83 99 92
2110.0 80 71 76 79 69 66 80 92 87 79
2150.0 89 107 114 83 73 93 108 110 102 112
2190.0 119 112 112 115 110 97 101 103 98 85
2230.0 85 97 85 71 75 72 88 99 82 88
2270.0 90 70 63 73 78 89 99 105 96 92
2310.0 106 110 122 124 113 139 163 170 174 171
2350.0 166 160 141 134 138 134 113 88 84 94
2390.0 85 66 53 51 57 68 63 54 64 75
2430.0 72 63 75 58 55 68 73 82 92 84
2470.0 68 73 75 70 79 83 75 60 47 39
2510.0 46 60 61 58 53 58 41 39 52 59
2550.0 72 57 46 63 84 74 61 49 35 27
2590.0 25 31 44 46 42 48 57 46 54 72
2630.0 63 72 73 54 45 37 37 34 30 21
2670.0 35 56 51 42 22 15 51 69 46 43
2710.0 57 51 47 31 28 51 53 79 94 75
2750.0 76 66 93 124 129 127 112 120 140 137
2790.0 127 136 138 139 183 187 149 173 223 233
2830.0 251 318 371 423 512 632 788 944 1131 1344
2870.0 1569 1752 1892 2059 2187 2260 2315 2315 2265 2240
2910.0 2264 2335 2505 2729 2999 3342 3723 4141 4608 5133
2950.0 5648 6251 6960 7606 8234 8907 9334 9685 10000 9952
2990.0 9482 8516 7438 6182 4842 3735 2913 2317 1768 1329
3030.0 1012 794 652 580 516 439 388 358 311 279
3070.0 266 248 260 277 243 228 215 198 188 160
3110.0 142 119 102 135 145 94 92 111 99 121
3150.0 140 87 63 91 91 68 52 57 61 75
3190.0 86 107 106 78 69 61 72 76 90 95
3230.0 58 41 40 42 54 92 100 84 99 91
3270.0 83 99 90 84 97 95 85 94 91 84
3310.0 93 125 104 62 58 83 88 64 45 53
3350.0 58 64 88 79 65 75 88 72 49 53
3390.0 88 75 72 90 71 44 53 90 83 55
3430.0 48 27 42 73 50 52 56 68 92 63
3470.0 21 16 48 74 94 98 90 64 22 57
3510.0 104 95 73 80 89 112 91 89 115 108
3550.0 101 74 66 89 85 84 101 97 93 89
3590.0 57 53 79 94 107 99 111 107 98 100
3630.0 99 126 152 137 126 136 100 97 113 125
3670.0 124 118 132 120 148 157 103 107 128 109
3710.0 96 101 152 184 126 110 150 144 130 161
3750.0 176 145 125 133 138 143 154 128 117 156
3790.0 178 141 101 95 114 129 116 121 160 173
3830.0 157 159 191 195 167
##END=
