##TITLE=2,3,4-Trifluorobenzonitrile
##JCAMP-DX=4.24
##DATA TYPE=INFRARED SPECTRUM
##ORIGIN=EPA-IR VAPOR PHASE LIBRARY
##OWNER=SRD/NIST
Collection (C) 2018 copyright by the U.S. Secretary of Commerce
on behalf of the United States of America. All rights reserved.
##CAS REGISTRY NO=143879-80-5
##MOLFORM=C 7 H 2 F 3 N
##$NIST SOURCE=MSDC-IR
##STATE=gas
##XUNITS=1/CM
##YUNITS=ABSORBANCE
##XFACTOR=1.
##YFACTOR=0.001
##DELTAX=1.92898
##FIRSTX=549.8
##LASTX=4000.7
##FIRSTY=1.78
##MAXX=4000.7
##MINX=549.759
##MAXY=0.1967
##MINY=0
##NPOINTS=1790
##XYDATA=(X++(Y..Y))
549.759 1.78 1.94 1.58 1.93 2.11 1.74 1.72 1.3929 1.71 1.63
569.049 1.8 2.7 2.76 2.52 2.32 1.87 1.56 1.86 2.17 2.13
588.339 2.69 3.56 3 2.67 3.89 4.98 5.6 6.97 8.05 8.04
607.628 8.81 9.81 13.1 17.61 14.87 10.59 10.1 9.87 9.42 8.04
626.918 6.86 6.24 5.12 3.94 3.06 2.09 1.87 2.2 2.4 2.48
646.208 2.59 2.65 3.06 3.43 3.91 4.68 5.84 7.42 9.14 11.66
665.498 13.85 14.99 14.4 13.18 13.76 15.64 16.61 14.97 12.08 9.36
684.787 7.18 5.65 4.26 3.18 2.79 2.41 1.91 1.92 1.98 2.34
704.077 3.28 4.01 4.76 5.29 5.52 6.04 6.34 7.3 8.67 9.67
723.367 10.55 10.67 10.21 9.46 9.02 8.59 8.37 8.35 7.12 4.94
742.657 3.58 2.82 2.25 2.11 1.56 0.6444 0.58619 1.23 1.69 1.75
761.947 1.53 1.3132 1.4698 1.3564 1.001 1.4105 1.75 1.4143 1.73 2.16
781.236 2.11 2.57 3.21 3.65 4 5.55 7.53 9.35 12.45 15.53
800.526 18.26 21.47 24.48 27.52 32.24 38.86 47.55 44.92 33.44 29.3
819.816 27.45 24.39 20.14 16.65 14 10.78 7.9 5.37 4.22 3.71
839.106 2.75 2.57 2.34 1.8 2.13 2.09 1.89 1.94 1.98 1.84
858.395 1.9 2.18 2.21 2.09 1.9 2.08 2.02 1.88 2.32 2.58
877.685 2.39 2.5 2.66 2.28 2.06 2.12 2.39 2.27 1.76 1.58
896.975 2.03 2.6 2.62 2.22 1.84 2.37 3.42 3.73 4.05 4.81
916.265 5.07 5.16 5.13 5.3 5.86 5.83 5.48 5.39 5.09 5.19
935.555 5.83 6.84 8.44 11.11 15.48 21.16 28.19 35.94 43.27 47.58
954.844 49.35 51.47 51.48 48.92 46.64 42.37 34.25 25.11 18.42 14.18
974.134 11.74 10.44 9.6 9.11 7.95 6.63 5.9 5.51 4.57 3.89
993.424 3.65 3.14 3.04 3.51 3.39 3.16 3.42 3.57 3.84 3.66
1012.714 3.56 4.94 5.41 4.6 4.7 5.67 7.26 8.6 10.45 13.48
1032.003 17.99 23.33 30.45 40.37 53.26 67.21 78.13 84.47 84.94 82.63
1051.293 83.37 87.57 88.67 79.89 63.88 48.06 35.87 28.14 23.32 19.38
1070.583 15.64 13.81 12.54 10.67 9.14 8.38 7.22 5.87 4.28 2.25
1089.873 2.55 3.72 3.73 2.2 1.88 3.55 4.33 3.98 3.84 4.42
1109.163 3.9 3.78 3.83 3.5 3.67 3.17 2.74 2.71 3.02 3.16
1128.452 2.32 2.4 1.56 0.7932 1.4919 1.86 3.01 4.05 5.36 7.1
1147.742 8.89 10.95 13.99 17.03 18 17.03 15.58 15.8 18.18 18.44
1167.032 15.9 13.14 10.17 7.7 5.28 4.37 4.18 3.98 4.21 3.22
1186.322 2.7 2.79 2.95 3.3 4.03 4.25 4.11 3.55 2.22 2.6
1205.611 3.3 3.32 3.82 3.55 4.09 4.18 3.75 4.5 5.02 5.46
1224.901 6.74 8.39 11.02 12.49 13.7 15.78 16.2 17.19 18.39 18.65
1244.191 18.66 18.2 18.17 18.28 17.31 16.67 16.98 18.04 20.35 23.19
1263.481 25.99 28.98 32.3 35.27 37.66 39.29 38.66 36.81 33.82 29.85
1282.771 26.15 22.96 21.49 21.34 21.98 23.63 26.81 31.86 39.08 47.79
1302.060 56.08 63.03 67.51 69.31 69.49 67.84 64.68 59.83 52.85 43.21
1321.350 31.69 21.47 14.56 10.5 8.17 6.69 5.54 4.71 4.18 4.27
1340.640 4.54 4.8 5.04 5.17 5.21 5.2 5.14 4.94 4.71 4.19
1359.930 3.57 3.03 2.5 2.2 1.98 1.83 1.91 1.93 1.88 1.86
1379.219 1.88 1.96 1.97 2.01 2.22 2.47 2.77 3.12 3.44 3.67
1398.509 3.81 3.88 3.84 3.91 4.07 4.06 4.02 4.01 3.98 4.06
1417.799 4.21 4.26 4.44 4.7 4.9 5.11 5.62 6.1 6.41 6.88
1437.089 7.48 8.24 9.09 9.85 10.71 11.7 12.91 14.23 15.76 17.15
1456.378 18.37 19.68 20.67 22.03 24.18 26.9 30.11 34.11 39.4 46.29
1475.668 54.84 65.3 76.82 88.82 100.41 110.58 118.06 122 123.45 124.74
1494.958 128.22 135.1 141.66 146.4 152.55 162.62 176.12 188.18 195.04 196.7
1514.248 193.5 187.41 178.44 163.35 138.75 109.11 77.87 52.27 35.96 27.15
1533.538 22.58 20.19 19.18 19.12 19.57 19.95 20.32 20.4 20.23 19.49
1552.827 18.64 18.08 17.44 16.89 16.5 16.22 15.95 15.72 15.93 16.16
1572.117 15.97 15.92 15.75 15.48 15.26 14.92 14.72 15.01 15.73 16.75
1591.407 18.2 20.31 22.88 25.86 28.74 31.48 33.71 35.34 36.83 38.3
1610.697 39.63 40.74 41.32 41.05 40.79 41.08 41.97 43.25 43.87 43.1
1629.986 40.93 37.73 34.34 30.71 27.09 23.65 19.3 14.54 10.68 8.04
1649.276 6.23 4.96 4.19 3.68 3.27 3.09 2.77 2.46 2.39 2.41
1668.566 2.35 2.32 2.3 2.29 2.27 2.12 2.18 2.35 2.28 1.89
1687.856 1.84 2.06 1.83 1.63 1.65 1.62 1.71 1.71 1.5073 1.57
1707.146 1.55 1.5024 1.64 1.73 1.92 1.84 1.67 1.72 1.83 1.93
1726.435 1.91 1.94 2.17 2.34 2.26 2.24 2.2 2.31 2.58 2.61
1745.725 2.67 2.62 2.51 2.6 2.51 2.25 2.16 2.16 2.02 1.95
1765.015 1.98 1.97 1.88 1.75 1.75 1.87 1.86 1.66 1.4798 1.55
1784.305 1.62 1.55 1.5184 1.4666 1.3666 1.245 1.101 1.1078 1.2058 1.139
1803.594 1.1749 1.3293 1.4093 1.4445 1.3167 1.207 1.149 1.1838 1.2306 1.1902
1822.884 1.1947 1.2634 1.2835 1.1723 1.1332 1.2466 1.2629 1.0489 0.9991 1.0949
1842.174 1.104 1.098 1.1064 1.1733 1.2322 1.3643 1.4576 1.56 1.88 2.14
1861.464 2.35 2.51 2.63 2.85 2.97 3.07 3.13 2.99 2.84 2.75
1880.754 2.7 2.68 2.39 1.89 1.67 1.5184 1.3956 1.3436 1.2916 1.3639
1900.043 1.53 1.403 1.1831 1.2511 1.2503 1.3009 1.4722 1.4842 1.4538 1.54
1919.333 1.61 1.4476 1.2602 1.2969 1.3691 1.3657 1.3066 1.3531 1.57 1.59
1938.623 1.4345 1.4182 1.4243 1.407 1.3765 1.1587 1.0795 1.0841 0.921 0.9795
1957.913 1.1117 1.0794 1.0261 1.0221 1.0275 1.0078 1.1643 1.3081 1.3028 1.3137
1977.202 1.2908 1.3499 1.3643 1.1523 1.1897 1.125 1.0186 1.3655 1.57 1.3124
1996.492 1.0977 1.2195 1.2848 1.1538 1.1645 1.1897 1.2532 1.2304 1.1812 1.3205
2015.782 1.1854 1.1439 1.1781 1.1643 1.2334 1.1441 1.145 1.236 1.2755 1.3193
2035.072 1.3675 1.272 1.2467 1.3372 1.0708 0.9643 1.1281 1.1711 1.1359 0.9923
2054.362 0.9732 1.0664 0.8649 0.7217 0.6661 0.7204 0.8494 0.78 0.8741 0.9656
2073.651 0.9009 0.7705 0.7501 0.8673 1.0727 1.1417 1.0805 0.9912 1.0653 1.1121
2092.941 0.9862 1.2198 1.53 1.3854 1.1575 1.2037 1.3055 1.4512 1.3965 1.3093
2112.231 1.425 1.5273 1.4745 1.3962 1.2807 1.1185 1.1599 1.2046 1.2639 1.2566
2131.521 1.0065 0.8944 1.0776 1.1276 1.2197 1.3531 1.0758 0.9765 0.9235 0.749
2150.810 0.8413 1.0042 1.1855 1.2748 1.3369 1.3413 1.3291 1.3423 1.4309 1.4905
2170.100 1.357 1.3181 1.4586 1.54 1.4366 1.498 1.4756 1.3314 1.3995 1.4769
2189.390 1.4828 1.58 1.5131 1.3511 1.4927 1.5121 1.325 1.2796 1.2553 1.3249
2208.680 1.4276 1.58 1.78 1.91 1.97 2.05 2.24 2.38 2.54 2.64
2227.970 2.66 2.72 3.07 3.39 3.7 4.04 4.17 4.45 4.65 4.65
2247.259 4.58 4.31 3.89 3.37 2.97 2.62 2.17 1.59 1.185 1.2198
2266.549 1.2344 1.0266 0.8044 0.9167 1.1161 1.0783 0.9193 0.9541 0.89 0.8848
2285.839 0.972 0.8897 0.8578 0.8156 0.7445 0.9675 1.1868 1.2001 1.308 1.1859
2305.129 1.1678 1.4156 1.55 1.4815 1.4108 1.4683 1.56 1.58 1.7 1.78
2324.418 1.66 1.7 1.8 1.58 1.4993 1.59 1.58 1.4523 1.4652 1.72
2343.708 1.8 1.6 1.53 1.6 1.77 1.83 1.75 1.88 1.65 1.3593
2362.998 1.2832 1.2329 1.187 1.2188 1.209 1.0594 0.8748 0.7572 0.8851 1.0557
2382.288 1.115 0.8978 0.60739 0.7643 1.0233 0.8893 0.7426 0.7562 0.8277 0.9469
2401.578 1.0424 0.9763 0.8248 0.7997 0.9276 0.8435 0.7613 0.9707 1.0124 0.8712
2420.867 0.7826 0.7704 0.7772 0.978 1.177 1.0832 1.06 1.0285 1.0237 0.9408
2440.157 0.9547 1.2393 1.1967 1.2486 1.3998 1.4145 1.3865 1.3641 1.54 1.63
2459.447 1.61 1.74 1.76 1.78 1.98 1.88 1.76 1.87 2.04 2.04
2478.737 1.65 1.4455 1.73 1.82 1.68 1.65 1.68 1.74 1.68 1.54
2498.026 1.55 1.5088 1.63 2 1.95 1.92 1.91 1.84 1.89 1.9
2517.316 2 2.23 2.32 2.39 2.55 2.29 2.1 2.46 2.53 2.49
2536.606 2.71 2.79 2.88 2.79 2.86 2.9 2.97 3.24 3.28 3.15
2555.896 2.95 3.06 3.3 3.18 2.95 2.79 2.63 2.57 2.48 2.19
2575.186 2.17 2.29 2.42 2.42 2.18 1.98 1.89 1.87 1.84 1.97
2594.475 2 1.96 1.83 1.74 1.54 1.3569 1.3903 1.3573 1.3028 1.1797
2613.765 1.1968 1.3676 1.2046 1.1061 1.3892 1.2156 0.8164 0.734 0.8237 0.9694
2633.055 0.9576 0.7732 0.9514 1.188 1.2625 1.288 1.0915 1.0451 0.8984 0.9322
2652.345 1.1605 0.9611 1.0024 1.171 1.203 1.1117 0.9167 1.1192 1.2838 1.1173
2671.634 1.026 1.0795 1.0467 1.0891 1.1797 1.0649 1.1171 1.1637 1.045 1.0912
2690.924 1.1298 1.1491 1.0072 0.8017 0.6359 0.9492 1.1599 0.768 0.8154 0.8581
2710.214 0.6324 0.6415 0.7751 0.8639 0.883 1.0084 1.2157 1.1459 1.1664 1.2461
2729.504 0.8869 0.697 0.9088 1.0359 0.8806 0.8998 1.1234 1.1884 1.1665 1.1736
2748.794 1.3898 1.4533 1.4739 1.64 1.69 1.79 1.68 1.57 1.3622 1.1109
2768.083 1.4463 1.4609 1.0298 0.9872 1.0347 1.1077 1.1266 1.0646 1.3926 1.2903
2787.373 1.157 1.2533 1.1595 1.2128 1.1992 0.8914 0.849 0.994 0.887 1.0068
2806.663 0.9892 0.9962 1.1245 1.1086 0.9535 1.0447 1.0216 1.0464 1.1793 0.8625
2825.953 0.8732 0.9399 0.62253 0.734 1.1889 1.1138 1.1149 1.2019 1.3168 1.4952
2845.242 1.3184 1.1939 1.2286 1.54 1.66 1.55 1.4696 1.2369 1.0443 1.2787
2864.532 1.3874 1.1785 1.2677 1.4063 1.2143 1.0676 1.1023 1.0391 1.0724 1.0491
2883.822 1.1896 1.2879 0.8778 0.6537 0.9642 1.3748 1.145 0.55046 0.7286 1.1429
2903.112 0.9275 0.5064 0.5085 0.7417 0.871 1.0169 1.0475 1.0934 1.3219 1.4212
2922.401 1.3483 1.3356 1.4574 1.3189 1.0113 0.9388 0.9703 0.9734 0.9567 0.7765
2941.691 0.8797 0.948 0.7375 0.878 0.8352 0.57711 0.57819 0.8346 0.7965 0.58317
2960.981 0.422 0.853 1.3442 1.0452 0.862 0.8816 0.9442 0.944 1.0205 1.0553
2980.271 1.1326 1.2666 1.1366 1.0555 0.8108 0.9326 1.29 1.1728 1.0635 0.5104
2999.561 0.255 0.9053 1.3135 1.1758 0.8006 1.0451 1.2235 1.0059 1.23 1.1117
3018.850 0.889 1.0427 1.0332 0.927 0.55953 0.6945 1.0028 0.7451 0.807 0.8178
3038.140 0.6344 0.58953 0.364 0.4705 1.0243 0.9797 0.7882 0.9977 1.0842 0.9569
3057.430 0.7183 0.396 0.5607 0.7223 0.6429 0.7431 0.874 1.1242 0.8082 0.429
3076.720 0.6806 0.9987 1.2978 1.3585 1.4258 1.376 1.2924 1.3244 1.2724 1.1446
3096.009 0.9479 0.8151 0.8378 1.0866 1.1028 0.6981 0.8055 1.363 1.4933 1.2142
3115.299 1.4108 1.61 1.3039 1.2731 1.1517 1.1862 1.16 1.0195 1.0183 0.8369
3134.589 1.0112 1.1168 0.7482 0.7059 0.951 1.0937 0.8724 0.7208 0.7681 0.6988
3153.879 0.7323 0.7783 0.8947 1.1031 0.6896 0.4476 0.7844 0.9651 1.1117 1.1876
3173.169 1.1133 0.8154 0.9298 1.1173 0.8528 0.7782 0.55008 0.6653 0.7409 0.4798
3192.458 0.8493 1.125 1.196 1.3545 1.1899 0.9299 0.7943 0.7998 0.8137 0.9864
3211.748 1.4976 1.6 1.1579 0.62394 0.59776 0.8671 0.8042 0.7693 1.0134 0.9107
3231.038 0.8965 1.1257 0.8541 0.9588 1.4175 0.9759 0.4739 0.57238 0.317 0.6829
3250.328 1.0155 0.65 1.0038 1.2445 0.992 0.9472 0.8229 0.8586 0.7371 0.338
3269.617 0.483 0.6812 0.7259 0.8052 0.62428 0.37 0.164 0.4916 1.3678 0.8756
3288.907 0.55719 0.892 0.6743 0.4835 0.8018 1.4147 1.0512 0.116 0.202 0.7038
3308.197 0.9108 0.6593 0.4941 0.9333 0.8057 0.7895 0.9125 0.8377 0.54865 0.60157
3327.487 1.1018 0.9624 0.57347 0.407 0.401 0.229 0.59806 1.3571 0.9954 0.54762
3346.777 0.38 0.361 0.9129 1.1388 1.0846 0.9798 1.0761 1.017 0.334 0.139
3366.066 0.369 0.54162 0.8785 0.7299 0.4577 0.394 0.317 0.6403 0.7635 0.7357
3385.356 0.6988 0.58081 0.6746 0.538815 0.4508 0.6684 0.8259 0.9754 0.8591 0.7411
3404.646 0.7369 0.6853 0.7933 0.784 0.955 1.2408 0.9647 0.6816 0.6645 1.1646
3423.936 1.3387 1.014 0.8653 0.8492 0.865 0.7088 0.8567 1.1162 1.4993 1.56
3443.225 0.8637 0.7876 1.0681 1.1142 0.9933 0.418 0.4448 0.8136 1.0222 1.0721
3462.515 0.9337 0.311 0 0.6649 1.3346 1.64 1.4114 1.073 1.322 1.2205
3481.805 0.56898 0.519 0.55619 0.6383 0.58869 0.62567 0.8494 0.6849 0.7661 0.8049
3501.095 0.60285 0.7115 0.9168 1.1496 1.1483 0.9214 0.54198 0.4505 0.62009 0.4491
3520.385 0.354 0.8235 1.1524 1.0371 1.0544 0.8444 0.9794 1.0144 1.2057 1.3388
3539.674 1.61 1.66 0.7916 0.9648 1.0529 0.57947 0.6243 0.8513 1.0713 1.051
3558.964 0.9721 1.1165 0.9459 0.9682 0.6927 0.4875 0.741 0.8518 0.7833 0.7291
3578.254 0.9411 0.7785 0.402 0.4538 0.62178 0.8807 1.5279 1.2446 1.0088 1.2302
3597.544 1.1268 0.9117 0.5146 0.530353 0.537133 0.363 0.4864 1.0353 1.4583 1.3967
3616.833 1.1242 0.808 0.7692 0.791 0.8959 0.7663 0.6796 0.6702 0.5117 0.7425
3636.123 0.54152 0.393 0.783 0.6541 0.668 0.9136 1.0475 1.2349 1.3597 1.0339
3655.413 0.7108 0.8126 0.61955 0.6845 0.6611 0.8996 0.8306 0.5157 0.6445 0.59215
3674.703 0.52802 0.7868 1.0824 0.8772 0.8324 1.1871 1.0328 0.60718 0.7934 0.9207
3693.993 0.7228 0.4306 0.7593 1.1497 0.8556 0.8198 1.2177 0.7503 0.353 0.6965
3713.282 0.8882 1.2856 1.146 0.9146 0.8343 0.414 0.535998 0.8516 0.7839 0.8071
3732.572 0.7278 0.8191 1.1198 1.0042 0.7177 0.9531 0.835 0.4328 0.7395 0.58182
3751.862 0.357 0.6585 0.6806 0.6584 0.4557 0.263 0.343 0.7471 1.1247 0.9417
3771.152 0.7801 0.7817 0.7792 0.6812 0.8042 0.6899 0.8057 1.1408 1.5022 1.2474
3790.441 0.8068 1.0377 0.9573 0.7976 0.418 0.4632 0.69 0.57045 0.7282 1.214
3809.731 1.1787 0.8115 1.114 1.3223 1.3945 1.4234 0.7217 0.54821 0.9375 1.2885
3829.021 1.0382 0.57702 1.2664 1.1652 1.0221 1.57 1.1162 0.8229 1.0096 1.052
3848.311 1.1852 1.337 1.2262 0.8051 0.7437 1.3603 1.4351 1.0779 1.0812 0.7832
3867.601 0.8503 1.2481 1.4616 1.367 0.9317 0.7837 1.0202 1.1588 1.0838 0.8422
3886.890 0.402 0.66 1.0854 1.1614 1.77 1.68 0.7497 0.345 0.38 0.54393
3906.180 0.7284 0.9821 0.9824 1.0671 1.2759 1.1361 0.7364 0.6886 0.62245 0.6616
3925.470 0.8531 0.9109 0.7863 0.7448 0.9527 0.8132 1.199 1.3143 0.6874 0.346
3944.760 0.57769 0.8863 0.511 0.62828 1.0026 0.7351 0.767 0.7518 0.5505 0.281
3964.049 0.042 0.201 0.6579 0.7514 0.5989 0.828 0.61791 0.60069 0.8491 0.477
3983.339 0.75 1.2528 1.0273 0.7249 0.7194 1.1375 1.0123 0.6452 1.2387 1.4966
##END=
