##TITLE=2,4,5-Trifluorobenzyl alcohol
##JCAMP-DX=4.24
##DATA TYPE=INFRARED SPECTRUM
##ORIGIN=EPA-IR VAPOR PHASE LIBRARY
##OWNER=SRD/NIST
Collection (C) 2018 copyright by the U.S. Secretary of Commerce
on behalf of the United States of America. All rights reserved.
##CAS REGISTRY NO=144284-25-3
##MOLFORM=C 7 H 5 F 3 O
##$NIST SOURCE=MSDC-IR
##STATE=gas
##XUNITS=1/CM
##YUNITS=ABSORBANCE
##XFACTOR=1.
##YFACTOR=0.001
##DELTAX=1.92898
##FIRSTX=549.8
##LASTX=4000.7
##FIRSTY=3.436
##MAXX=4000.7
##MINX=549.759
##MAXY=0.138386
##MINY=0
##NPOINTS=1790
##XYDATA=(X++(Y..Y))
549.759 3.436 3.186 2.136 1.966 2.606 1.796 1.886 2.086 1.0314 1.486
569.049 1.2848 0.7704 1.716 1.846 1.956 1.576 1.366 1.2454 1.336 0.751
588.339 0.40917 1.756 2.106 2.046 1.906 1.456 1.606 1.986 2.136 1.856
607.628 2.426 2.566 1.846 1.646 1.606 1.556 2.266 2.166 1.2749 1.476
626.918 1.956 2.206 2.386 2.066 1.776 1.846 1.656 1.806 1.456 1.716
646.208 2.066 1.866 1.836 1.656 1.756 2.266 2.706 2.916 3.396 3.776
665.498 3.786 3.796 4.216 4.526 5.106 6.046 6.266 6.486 6.766 7.036
684.787 7.316 7.076 6.976 7.496 7.776 7.396 7.276 6.406 6.036 5.556
704.077 5.116 5.166 5.006 5.526 5.896 6.136 6.046 5.866 5.996 5.916
723.367 5.456 5.256 5.026 4.766 4.636 4.266 4.156 4.336 4.616 5.546
742.657 6.266 7.326 8.196 8.166 8.626 9.066 8.686 8.896 9.036 7.916
761.947 6.746 5.556 4.426 3.806 3.666 3.686 3.166 2.706 3.036 2.876
781.236 2.196 2.206 2.436 2.216 1.816 1.726 2.076 2.286 2.376 2.676
800.526 3.576 3.976 3.396 3.546 3.646 3.196 3.806 5.186 5.766 5.826
819.816 6.856 8.576 10.266 11.996 14.206 16.986 19.456 21.876 24.086 25.676
839.106 26.816 27.626 28.686 29.856 29.356 27.846 25.996 24.316 23.086 22.236
858.395 22.266 22.306 22.586 23.356 24.276 25.246 26.436 27.186 27.906 29.206
877.685 31.216 32.026 29.576 25.646 22.096 19.676 17.486 15.096 12.936 10.576
896.975 8.546 6.936 5.936 5.426 4.976 4.576 4.096 3.916 3.806 3.506
916.265 3.436 3.946 3.856 3.486 3.596 3.906 4.296 4.206 3.716 3.866
935.555 4.466 4.596 4.876 5.386 5.136 5.046 5.126 5.816 6.666 6.306
954.844 6.286 6.286 6.446 7.096 7.586 7.426 6.916 7.096 7.436 7.146
974.134 6.916 6.726 6.676 6.786 6.496 6.056 6.066 6.306 6.936 7.896
993.424 8.516 8.656 9.136 10.306 10.466 11.016 12.686 13.886 15.146 15.996
1012.714 16.816 17.796 18.766 19.406 20.096 21.126 22.346 22.826 22.716 22.156
1032.003 21.606 21.276 20.586 20.516 19.846 18.476 16.346 15.686 15.486 15.336
1051.293 14.286 12.046 11.276 10.776 10.526 10.186 8.896 8.036 7.906 8.166
1070.583 8.346 8.236 7.556 6.796 7.856 8.186 8.256 10.376 13.456 15.136
1089.873 17.706 21.576 24.066 26.896 30.996 35.156 38.116 38.626 38.706 39.046
1109.163 37.146 34.106 30.626 27.956 25.116 20.916 19.196 18.756 17.726 17.666
1128.452 17.006 17.336 18.526 19.796 21.976 24.556 28.556 32.106 34.356 36.126
1147.742 36.556 36.586 36.326 34.586 32.526 29.656 25.606 22.476 19.436 16.126
1167.032 13.756 13.526 13.616 13.066 13.466 13.866 13.636 13.336 14.016 14.626
1186.322 14.996 15.556 16.346 18.066 19.806 20.446 21.876 24.276 25.736 27.636
1205.611 30.556 33.506 36.066 36.236 36.486 38.566 39.096 38.546 38.886 36.416
1224.901 32.116 30.156 26.116 22.506 21.726 21.286 19.446 17.216 15.776 14.236
1244.191 13.266 13.046 12.366 12.366 12.436 11.956 11.876 11.466 10.946 10.836
1263.481 10.596 10.296 10.096 9.976 10.286 10.086 9.576 9.216 9.326 9.256
1282.771 8.656 8.886 8.976 8.856 8.836 8.536 8.226 7.866 7.876 8.436
1302.060 8.756 8.936 9.466 10.136 11.096 12.236 13.726 15.786 18.376 21.326
1321.350 24.426 27.726 31.246 34.646 37.006 38.466 39.056 38.296 36.586 33.896
1340.640 30.426 26.466 22.396 18.946 16.036 13.706 12.336 11.496 10.756 10.246
1359.930 10.226 10.496 10.626 10.636 11.116 11.566 11.746 12.146 12.456 12.716
1379.219 12.886 12.846 12.976 13.046 12.746 12.586 12.356 12.106 12.006 11.776
1398.509 11.616 11.756 11.846 12.126 12.826 14.056 15.646 17.436 19.516 22.156
1417.799 25.266 28.486 31.696 34.296 35.756 36.386 36.556 36.026 34.586 32.426
1437.089 28.936 24.786 20.856 17.126 14.166 12.076 10.736 9.786 9.096 8.946
1456.378 9.106 9.246 9.566 10.146 10.696 11.176 11.336 11.436 11.876 12.266
1475.668 12.356 12.436 12.586 13.216 14.296 15.786 18.046 21.006 24.876 29.186
1494.958 34.386 40.656 47.476 55.006 63.236 72.286 82.566 93.576 104.636 116.006
1514.248 126.246 134.306 138.386 137.446 132.186 124.656 114.166 100.996 85.856 69.056
1533.538 51.946 37.486 27.196 19.526 14.746 12.146 10.426 9.166 8.376 7.596
1552.827 6.716 6.386 6.416 6.306 5.856 5.636 5.796 5.596 5.446 5.506
1572.117 5.206 4.696 4.616 5.036 5.386 5.316 5.276 4.816 4.526 5.066
1591.407 5.476 5.436 5.566 5.856 6.056 6.506 7.126 7.876 8.426 9.386
1610.697 10.876 12.546 14.056 15.796 17.756 19.286 20.646 21.766 22.766 23.226
1629.986 22.636 21.746 20.436 18.816 17.036 14.926 13.156 11.566 10.206 8.696
1649.276 7.446 6.626 5.796 5.246 4.496 4.126 3.896 3.436 3.166 3.026
1668.566 3.046 3.026 3.166 3.246 2.916 2.806 2.836 2.946 3.036 2.896
1687.856 2.986 2.946 2.526 2.386 2.326 2.346 2.526 2.416 2.196 2.276
1707.146 2.506 2.596 2.666 2.956 3.066 3.006 3.046 3.036 3.036 2.926
1726.435 2.696 2.636 2.686 2.586 2.436 2.256 1.976 1.886 1.836 1.946
1745.725 2.036 1.906 1.986 1.936 1.886 1.976 1.956 1.856 1.816 1.886
1765.015 1.976 1.886 1.636 1.506 1.396 1.416 1.556 1.3185 1.1422 1.436
1784.305 1.856 1.926 1.766 1.676 1.726 1.776 1.696 1.566 1.436 1.3545
1803.594 1.486 1.636 1.736 1.696 1.506 1.426 1.506 1.556 1.3424 1.436
1822.884 1.486 1.466 1.546 1.556 1.556 1.466 1.466 1.3394 1.1843 1.2616
1842.174 1.506 1.576 1.506 1.496 1.2906 1.2569 1.2933 1.191 1.1162 1.0436
1861.464 1.2042 1.396 1.416 1.2773 1.2727 1.3224 1.2618 1.2206 1.2612 1.356
1880.754 1.376 1.107 0.9544 1.3149 1.476 1.386 1.2624 1.2906 1.2479 1.1371
1900.043 1.396 1.536 1.436 1.2347 1.2571 1.2023 1.1721 1.2779 1.1347 0.9198
1919.333 1.0617 1.2605 1.2717 1.1936 1.1242 1.2096 1.1385 1.0674 1.2025 1.3408
1938.623 1.313 1.3444 1.3229 1.3111 1.446 1.456 1.436 1.416 1.3084 1.1854
1957.913 1.2356 1.2998 1.2478 1.3521 1.506 1.526 1.396 1.526 1.3512 1.0583
1977.202 1.446 1.656 1.576 1.2984 1.2447 1.3511 1.2919 1.294 1.1516 1.1774
1996.492 1.3116 1.356 1.2884 1.2946 1.3297 1.1942 1.197 1.237 1.396 1.576
2015.782 1.456 1.2457 1.1195 1.1704 1.396 1.406 1.3543 1.3352 1.446 1.466
2035.072 1.416 1.3018 1.2734 1.406 1.2491 1.2865 1.232 1.0892 1.1024 1.0885
2054.362 1.1737 1.2134 1.214 1.2449 1.3124 1.171 1.212 1.283 1.0849 1.0363
2073.651 1.1558 1.1759 1.1409 1.3212 1.327 1.406 1.476 1.3022 1.2146 1.376
2092.941 1.456 1.2656 1.0273 0.9898 1.0393 1.0193 0.9586 0.8668 0.8552 1.0469
2112.231 1.2876 1.1108 0.9324 1.0608 1.1018 0.9596 0.8975 0.8551 1.0069 1.2196
2131.521 1.2415 1.1875 0.9798 0.8995 1.0683 1.1406 1.1131 1.0588 1.0072 1.1659
2150.810 1.2084 1.0659 1.0129 1.193 1.1795 1.062 1.1117 1.2309 1.416 1.546
2170.100 1.366 1.1409 1.0059 0.8938 1.0962 1.3526 1.2581 1.1606 1.3426 1.3271
2189.390 1.1488 1.2188 1.0643 1.0629 1.3064 1.1895 1.2109 1.2032 1.1178 1.282
2208.680 1.1918 1.165 1.1759 0.9735 0.9254 0.8564 0.9971 1.1446 1.0637 0.9973
2227.970 1.0414 1.1958 1.2746 1.1471 1.0646 1.0372 1.1755 1.356 1.2913 1.1624
2247.259 1.1467 1.211 1.3493 1.3334 1.29 1.3555 1.1152 1.1568 1.386 1.386
2266.549 1.696 1.786 1.666 1.546 1.3315 1.2203 1.1878 1.2176 1.3094 1.386
2285.839 1.2893 1.1609 1.2562 1.2414 1.3261 1.3085 1.0343 1.202 1.576 1.496
2305.129 1.376 1.352 1.325 1.2673 1.496 1.706 1.486 1.446 1.436 1.536
2324.418 1.486 1.446 1.506 1.466 1.406 1.546 1.436 1.164 1.2372 1.1189
2343.708 0.8543 0.9631 1.1574 1.2006 1.556 1.856 1.546 1.1904 1.23 1.1675
2362.998 1.294 1.406 1.416 1.516 1.396 1.486 1.2904 1.1899 1.3411 1.314
2382.288 1.3038 1.396 1.1243 0.8506 1.1005 1.1282 0.9264 1.0751 1.2642 1.2729
2401.578 1.3006 1.2832 1.1361 0.9504 1.0461 1.1611 1.2885 1.3523 0.9679 0.9893
2420.867 1.426 1.426 1.1663 0.9953 1.0619 1.2622 1.1546 1.2613 1.496 1.2327
2440.157 1.154 1.036 1.1184 1.3179 1.1655 1.131 1.1729 1.1436 1.1569 1.0072
2459.447 0.9825 1.0449 1.2785 1.0944 0.9833 1.406 1.506 1.3346 1.3301 1.686
2478.737 1.686 1.3464 1.3347 1.676 1.686 1.546 1.526 1.466 1.386 1.2646
2498.026 1.1345 1.0732 1.1875 1.2041 1.0105 1.172 1.466 1.174 0.9984 1.313
2517.316 1.496 1.666 1.556 1.0914 1.3443 1.676 1.496 1.456 1.636 1.636
2536.606 1.436 1.2103 1.268 1.436 1.366 1.516 1.426 1.1916 1.2423 1.2514
2555.896 1.2126 1.2386 1.376 1.2581 0.7995 0.7534 1.1921 1.476 1.2718 1.486
2575.186 1.656 1.416 1.616 1.586 1.1614 1.1271 1.149 0.9881 1.0426 1.1942
2594.475 1.261 1.056 0.9842 0.9926 1.0563 1.1648 1.0868 0.9448 1.1399 1.151
2613.765 1.1186 1.311 1.0789 0.9053 1.2231 1.496 1.566 1.976 2.016 1.766
2633.055 1.486 1.506 1.576 1.1379 1.2197 1.436 1.34 1.2105 1.1554 0.8945
2652.345 1.0815 1.486 1.142 0.9272 0.9894 0.9244 1.2871 1.536 1.426 1.406
2671.634 1.3477 1.406 1.376 1.2225 0.9103 1.2144 1.2361 0.9097 0.9785 1.0203
2690.924 1.0817 0.8497 0.7838 1.2751 1.1687 1.0242 1.396 1.2639 1.2058 1.2323
2710.214 1.3391 1.506 1.2312 1.1701 1.0736 0.9145 1.0711 1.2203 1.576 1.696
2729.504 1.626 1.1245 0.7642 0.9702 1.0633 1.126 0.9933 1.1652 1.486 1.716
2748.794 1.956 1.856 1.686 1.646 1.696 1.1191 0.7584 1.1454 1.1758 1.0993
2768.083 1.1065 1.0898 1.516 1.876 1.746 1.586 1.536 1.526 1.696 1.716
2787.373 1.406 1.616 1.946 1.646 1.406 1.406 1.556 1.786 1.816 1.976
2806.663 1.846 1.766 1.726 1.426 1.3559 1.546 1.836 1.756 1.536 1.666
2825.953 1.966 2.116 1.846 1.796 2.006 2.116 2.226 2.206 2.396 2.326
2845.242 2.186 2.426 2.806 3.006 3.486 3.656 2.896 2.956 3.486 3.816
2864.532 3.946 3.856 4.066 4.236 4.596 5.216 5.426 5.386 5.216 5.816
2883.822 6.556 6.806 7.306 8.016 8.226 8.136 8.786 8.986 8.556 8.486
2903.112 8.326 7.696 6.866 7.056 7.316 6.786 6.676 6.716 6.936 6.856
2922.401 6.146 5.546 5.476 5.616 5.886 5.986 5.646 6.156 6.926 6.736
2941.691 6.826 6.836 6.426 6.706 7.096 7.136 6.996 6.926 6.856 6.466
2960.981 6.246 6.346 6.316 6.366 6.226 5.836 5.416 5.326 5.446 4.836
2980.271 4.196 4.256 4.426 4.046 3.756 3.556 3.056 2.846 2.766 2.606
2999.561 2.966 2.686 2.336 2.466 2.306 1.766 1.2787 1.546 1.466 1.456
3018.850 1.606 1.546 1.606 1.646 1.576 1.526 1.626 1.396 1.012 1.1109
3038.140 1.386 1.416 1.1106 1.2656 1.546 1.396 1.3475 1.476 1.686 1.576
3057.430 1.456 1.396 1.556 1.3386 1.0138 1.1601 1.1762 1.746 1.896 1.416
3076.720 1.3496 1.2648 1.376 2.006 2.116 1.746 1.2789 0.8843 1.2136 1.816
3096.009 1.3552 0.37608 0.4848 0.7918 1.1218 1.666 1.0484 0.7584 1.3434 1.3369
3115.299 1.2603 1.2452 1.2743 1.416 1.0865 1.3291 1.976 1.536 0.9434 0.45124
3134.589 0.4917 0.45562 0.8578 1.456 1.496 1.406 1.257 1.2749 0.8443 0.4732
3153.879 0.36857 0.9156 0.9419 0.8269 1.486 1.1058 1.0219 1.446 1.0291 0.8375
3173.169 0.9299 1.0347 1.059 1.1621 0.8252 0.5401 1.041 1.2682 1.0938 0.855
3192.458 0.9418 1.0006 0.6385 0.6934 0.6394 0.3416 0.5903 0.6965 0.8312 0.9934
3211.748 0.6444 0.9769 1.356 0.5654 0.39001 0.6986 0.6087 0.8126 0.5732 0.192
3231.038 0.7946 0.8452 0.6243 0.6295 0.6609 1.0026 0.8049 0.9764 0.9785 0.9611
3250.328 1.2633 0.9474 0.5412 0.45076 0.5193 1.1324 1.188 1.2752 1.3077 0.9364
3269.617 1.2785 1.376 1.396 1.148 0.9258 1.0636 1.1852 1.3276 1.466 1.436
3288.907 1.2367 0.8027 0.5445 0.6998 0.8287 1.2363 1.1126 0.6604 0.9649 1.1195
3308.197 1.0676 1.356 1.416 0.6773 0.5468 0.6667 1.1942 1.193 0.3802 0.45484
3327.487 0.038 0 0.5416 0.8597 1.0434 0.9142 1.0976 0.9507 0.45446 0.38668
3346.777 0.9224 1.366 1.746 1.836 0.7823 0.361 0.8419 0.9218 1.1448 1.596
3366.066 1.1376 0.7796 1.0439 1.0919 0.8117 0.4888 1.0181 1.676 1.536 0.8994
3385.356 0.6614 1.3215 1.576 0.7289 0.39221 1.2194 0.682 0.056 0.6696 0.6684
3404.646 0.512 1.012 1.626 0.9643 0.41755 0.5958 0.8532 1.0218 1.3116 1.3233
3423.936 1.0904 1.1584 1.2143 1.366 0.7092 0.7432 1.506 1.0753 0.7628 1.416
3443.225 1.506 1.0397 0.8607 0.7511 1.1163 1.486 1.2463 1.0386 0.7336 1.1961
3462.515 1.1956 0.4488 0.8387 1.506 1.506 1.436 1.1484 0.9514 1.456 1.287
3481.805 1.656 1.656 1.1852 1.251 1.2505 1.2261 1.2439 1.1933 0.5669 0.5704
3501.095 0.8635 0.8615 1.1391 1.376 1.3096 1.1609 0.9567 0.898 1.1831 1.666
3520.385 1.736 1.1992 0.9969 1.0877 1.476 1.526 1.3236 1.446 1.3307 1.3516
3539.674 1.2781 1.366 1.546 1.466 1.1879 1.2564 1.217 1.1077 1.2309 1.386
3558.964 1.0039 0.252 0.7795 1.506 1.646 1.356 1.0333 1.386 1.376 1.1048
3578.254 1.2978 1.2982 0.737 0.78 1.446 1.1284 0.9009 1.0977 1.376 1.746
3597.544 1.586 1.576 1.626 1.396 1.656 2.246 2.336 1.796 1.906 2.186
3616.833 2.286 2.666 2.556 2.256 2.486 3.586 3.876 3.366 3.456 3.776
3636.123 3.736 3.456 4.276 5.206 5.336 5.326 5.656 6.456 7.276 8.556
3655.413 9.256 9.046 9.366 10.046 9.946 9.186 8.556 7.916 8.116 8.056
3674.703 7.256 6.696 6.486 6.666 6.406 5.496 4.916 4.556 4.706 4.986
3693.993 4.356 3.636 3.316 3.196 3.016 2.936 2.666 2.316 2.336 2.246
3713.282 2.286 2.516 2.716 2.376 1.556 1.436 1.606 1.386 1.0667 1.0419
3732.572 1.1396 1.396 1.2853 1.2606 1.676 1.776 1.416 0.6458 0.5369 0.5136
3751.862 0.859 1.986 2.006 1.1901 1.167 1.1528 1.3251 1.3369 0.755 1.1039
3771.152 1.516 1.386 1.0104 0.7542 0.997 0.9309 0.4897 0.7336 0.986 0.8564
3790.441 0.9408 0.69 0.7286 0.7793 0.6227 1.3338 1.3249 1.686 1.616 1.1959
3809.731 1.2093 1.436 1.676 0.8977 0.9958 1.22 1.1532 1.576 1.456 1.596
3829.021 2.016 1.586 1.466 1.255 0.6258 0.217 0.5312 1.1649 1.3272 1.2142
3848.311 0.9958 0.9102 1.3168 1.526 1.526 1.2897 1.2189 1.746 1.916 1.406
3867.601 0.9204 0.7672 0.43046 0.927 1.776 1.786 1.506 1.2506 0.8095 0.44134
3886.890 1.0703 1.2592 1.0145 0.9168 0.739 1.0154 0.9979 0.7877 0.9292 0.9084
3906.180 0.7558 0.6275 0.8852 1.376 1.606 1.406 1.2458 1.3113 1.223 0.679
3925.470 0.087 0.8861 1.486 1.3382 1.436 1.896 2.116 1.566 1.1247 1.446
3944.760 1.0497 0.5559 1.2077 0.9737 0.7714 0.9274 0.7018 0.8895 1.446 1.3098
3964.049 1.2332 1.2084 0.221 0.2655 1.292 1.446 0.538 0.4947 1.0919 1.0475
3983.339 0.8751 1.0089 1.0161 0.7931 0.9973 1.1758 0.8532 1.1659 1.1223 0.4627
##END=
