##TITLE=2-Amino-3,5-dimethylbenzoic acid
##JCAMP-DX=4.24
##DATA TYPE=INFRARED SPECTRUM
##ORIGIN=EPA-IR VAPOR PHASE LIBRARY
##OWNER=SRD/NIST
Collection (C) 2018 copyright by the U.S. Secretary of Commerce
on behalf of the United States of America. All rights reserved.
##CAS REGISTRY NO=14438-32-5
##MOLFORM=C 9 H 11 N O 2
##$NIST SOURCE=MSDC-IR
##STATE=gas
##XUNITS=1/CM
##YUNITS=ABSORBANCE
##XFACTOR=1.
##YFACTOR=0.001
##DELTAX=1.92898
##FIRSTX=549.8
##LASTX=4000.7
##FIRSTY=18.429
##MAXX=4000.7
##MINX=549.759
##MAXY=0.096749
##MINY=0
##NPOINTS=1790
##XYDATA=(X++(Y..Y))
549.759 18.429 18.449 19.079 19.319 19.129 19.119 19.199 19.619 20.819 21.929
569.049 22.139 22.119 21.809 20.739 19.399 17.879 16.599 15.639 14.319 13.269
588.339 12.219 10.819 9.909 9.159 8.399 8.009 7.639 7.369 7.259 6.839
607.628 6.499 6.529 6.439 6.319 6.249 6.219 6.339 6.189 5.809 5.939
626.918 6.239 6.359 6.119 6.129 6.099 5.959 5.969 5.739 5.779 5.859
646.208 6.019 6.049 6.409 7.089 7.659 8.599 9.849 11.129 12.479 14.549
665.498 17.599 21.009 24.049 25.659 26.049 26.169 26.009 25.049 23.499 21.089
684.787 17.589 14.099 11.239 9.029 7.559 6.509 5.939 5.889 5.659 5.359
704.077 5.559 5.549 5.299 5.709 5.749 5.259 5.279 5.449 5.439 5.219
723.367 5.129 5.199 5.089 5.009 4.769 4.709 4.699 4.619 4.599 4.509
742.657 4.549 4.499 4.239 4.119 4.409 4.729 4.619 4.439 4.689 4.879
761.947 4.699 4.629 4.839 4.969 4.939 5.229 5.649 6.309 6.859 7.269
781.236 8.089 8.949 9.899 10.629 11.389 12.949 14.169 14.069 12.999 11.529
800.526 10.259 9.489 8.749 7.829 7.019 6.129 5.309 4.799 4.709 4.779
819.816 4.489 4.129 4.049 4.199 3.989 3.839 3.719 3.629 3.909 3.639
839.106 3.329 3.539 3.789 4.019 4.099 3.889 3.899 4.209 4.339 4.379
858.395 4.959 5.369 5.649 6.009 6.469 7.129 7.449 7.869 7.749 6.889
877.685 5.979 5.719 5.619 5.099 4.609 4.319 3.609 3.289 3.409 3.199
896.975 3.079 2.919 2.939 2.939 2.839 2.769 2.929 3.029 2.869 2.709
916.265 2.719 2.959 2.919 2.639 2.769 2.699 2.459 2.649 2.879 2.779
935.555 2.649 2.669 2.769 2.719 2.749 2.869 2.869 3.119 3.469 3.579
954.844 3.679 3.649 3.539 3.599 3.269 3.169 3.429 3.749 3.749 3.659
974.134 3.759 3.669 3.559 3.309 3.399 3.999 4.359 4.679 4.979 4.949
993.424 4.989 5.239 5.869 6.039 5.899 6.329 6.729 7.029 7.399 7.169
1012.714 7.069 7.549 7.439 7.119 6.909 6.849 7.049 7.079 7.309 7.399
1032.003 6.979 6.709 6.819 7.179 7.219 7.489 8.099 9.299 9.999 10.479
1051.293 11.969 13.379 14.759 16.119 17.469 19.039 21.239 23.879 26.179 28.699
1070.583 31.099 33.749 37.549 40.239 41.039 41.899 43.029 43.229 42.879 42.019
1089.873 40.559 38.379 35.969 33.109 29.709 26.549 23.599 21.899 21.009 19.979
1109.163 18.349 16.669 15.969 15.019 14.089 14.119 13.869 12.949 11.639 10.889
1128.452 11.139 11.709 12.579 12.769 12.909 14.419 15.899 17.329 19.369 20.909
1147.742 22.489 25.679 29.559 33.419 38.699 45.559 53.289 61.539 69.679 74.659
1167.032 76.019 76.049 75.009 71.899 65.349 55.759 44.699 33.239 23.919 17.689
1186.322 13.349 9.779 8.439 8.649 7.609 7.119 6.419 5.199 6.039 6.059
1205.611 4.719 4.839 5.339 5.289 5.069 5.569 6.149 6.499 7.629 7.919
1224.901 7.969 8.349 8.419 9.549 10.409 11.199 12.249 12.509 12.999 14.179
1244.191 15.119 15.789 15.879 15.819 16.069 15.839 15.389 14.829 14.159 13.069
1263.481 12.159 11.769 11.429 11.289 11.089 10.899 11.149 11.929 12.669 13.269
1282.771 13.709 13.999 14.389 14.959 14.979 14.359 13.869 13.289 12.689 12.049
1302.060 11.319 10.959 10.799 10.669 10.719 11.089 11.409 11.629 11.909 12.099
1321.350 12.079 11.959 11.819 11.609 11.329 11.009 10.859 10.699 10.809 11.129
1340.640 11.399 11.829 12.379 12.959 13.389 13.659 13.929 14.059 13.969 13.809
1359.930 13.609 13.319 12.989 12.699 12.459 12.259 12.139 12.369 12.809 13.379
1379.219 14.119 14.649 14.999 15.209 15.009 14.299 13.389 12.469 11.269 9.719
1398.509 8.009 6.689 5.779 5.199 4.999 4.839 4.789 4.839 4.869 5.029
1417.799 5.289 5.529 5.729 5.969 6.209 6.529 6.909 7.139 7.449 8.069
1437.089 8.869 9.579 10.379 11.389 12.339 13.209 14.039 14.639 15.099 15.399
1456.378 15.629 15.789 15.709 15.759 16.049 16.389 17.079 17.999 18.759 19.669
1475.668 20.429 20.799 20.799 20.519 19.869 18.689 17.349 15.709 13.839 11.959
1494.958 10.269 8.869 7.639 6.659 5.969 5.439 4.949 4.669 4.599 4.429
1514.248 4.199 4.079 4.049 4.029 3.879 3.839 3.869 3.839 3.899 3.879
1533.538 3.929 4.039 4.029 4.169 4.359 4.469 4.689 4.889 5.269 6.029
1552.827 6.809 7.419 8.279 9.749 11.479 13.479 15.739 18.079 20.579 22.979
1572.117 24.849 26.109 27.059 27.519 27.519 27.179 26.729 26.379 26.069 26.119
1591.407 26.569 27.229 27.739 27.899 27.829 27.639 27.089 26.179 25.079 23.779
1610.697 22.489 21.569 21.189 21.239 21.399 21.689 21.929 22.039 21.839 21.459
1629.986 20.769 19.719 18.379 16.649 15.049 13.459 11.879 10.559 9.319 8.259
1649.276 7.619 7.179 6.809 6.489 6.379 6.469 6.599 6.669 6.619 6.619
1668.566 6.619 6.639 6.619 6.609 6.649 6.749 6.759 6.729 6.889 7.049
1687.856 7.319 7.789 8.269 8.849 9.839 11.269 13.209 15.719 19.039 23.769
1707.146 30.239 38.789 49.389 61.219 72.859 82.579 89.569 94.199 96.749 96.559
1726.435 92.679 84.609 73.369 61.319 50.389 41.599 35.019 30.269 27.099 25.069
1745.725 23.469 22.159 21.119 20.069 18.539 16.859 15.159 13.419 12.029 10.809
1765.015 9.809 9.169 8.609 8.189 7.989 7.859 7.669 7.469 7.379 7.199
1784.305 6.809 6.379 5.979 5.509 5.009 4.449 4.019 3.759 3.469 3.239
1803.594 2.979 2.849 2.729 2.559 2.459 2.249 2.169 2.039 1.889 1.929
1822.884 1.959 1.899 1.849 1.749 1.709 1.789 1.659 1.509 1.529 1.559
1842.174 1.609 1.479 1.359 1.359 1.369 1.439 1.309 1.239 1.2032 1.1138
1861.464 1.1355 1.1152 1.0632 1.0407 0.9529 0.9491 1.1187 1.0668 0.9311 0.9299
1880.754 0.8868 0.9539 1.0344 0.9678 1.0094 1.0491 1.0392 0.9232 0.8428 0.9494
1900.043 1.0371 1.0173 0.9192 0.9588 1.1114 1.1882 1.239 1.1868 0.995 1.0104
1919.333 1.1466 1.0478 1.0023 1.0362 1.092 1.0818 1.0104 0.9891 1.0092 0.9839
1938.623 0.8822 0.9541 0.9773 0.9434 0.8769 0.8245 0.855 0.8826 0.8576 0.8299
1957.913 0.8314 0.8824 0.8875 0.8078 0.712 0.6827 0.7196 0.7642 0.7613 0.7308
1977.202 0.7939 0.8647 0.8989 0.772 0.6572 0.7453 0.8649 0.8104 0.6983 0.6785
1996.492 0.7312 0.7864 0.6744 0.6006 0.6643 0.7415 0.7416 0.592 0.5988 0.7299
2015.782 0.7698 0.7599 0.8233 0.8572 0.7797 0.809 0.839 0.9238 0.934 0.9719
2035.072 1.1174 1.035 0.967 1.0143 1.0961 1.0874 0.9516 0.9768 0.988 0.9001
2054.362 0.8273 0.9566 0.9426 0.7295 0.7495 0.7754 0.8263 0.8518 0.7362 0.6468
2073.651 0.6024 0.597 0.7736 0.8049 0.6853 0.6257 0.6576 0.749 0.7385 0.7398
2092.941 0.7273 0.7554 0.8406 0.8555 0.7625 0.7568 0.8387 0.7815 0.7556 0.7476
2112.231 0.7462 0.8404 0.8886 0.7667 0.6282 0.7264 0.8298 0.7896 0.7419 0.6942
2131.521 0.6706 0.7991 0.8869 0.8891 0.9258 0.8818 0.9104 0.9337 0.9566 0.9649
2150.810 0.8006 0.7376 0.7318 0.5823 0.6708 0.7876 0.8286 0.8928 0.8365 0.8417
2170.100 0.7218 0.6709 0.7641 0.7189 0.6117 0.6717 0.74 0.7701 0.7291 0.6227
2189.390 0.5572 0.4451 0.4807 0.7135 0.7408 0.4868 0.4793 0.5599 0.6354 0.7236
2208.680 0.6696 0.6096 0.6444 0.6197 0.5662 0.6371 0.7769 0.8806 0.9134 0.8913
2227.970 0.7531 0.6563 0.6856 0.6955 0.6991 0.7334 0.7045 0.7205 0.8261 0.8629
2247.259 0.7314 0.7323 0.6613 0.5714 0.6981 0.7435 0.6718 0.6194 0.677 0.7644
2266.549 0.7157 0.6009 0.5743 0.5302 0.4958 0.4015 0.5876 0.7717 0.6121 0.6722
2285.839 0.7564 0.656 0.7502 0.8716 0.7133 0.622 0.7502 0.7178 0.5522 0.6372
2305.129 0.6912 0.7229 0.755 0.6119 0.6372 0.7246 0.7582 0.7449 0.8085 0.8812
2324.418 0.862 0.7654 0.7499 0.8734 0.9115 1.0144 1.1109 1.089 1.03 0.8763
2343.708 0.9209 0.8912 0.8315 0.9393 0.987 0.9094 0.6807 0.7587 0.8409 0.8657
2362.998 0.9849 0.9293 0.8289 0.8003 0.734 0.788 0.8557 0.8341 0.8779 0.8792
2382.288 0.7838 0.7764 0.8277 0.7882 0.7084 0.6974 0.7827 0.7717 0.7252 0.7029
2401.578 0.6758 0.7802 0.9347 0.9321 0.8643 0.8463 0.8916 0.8875 0.8458 0.834
2420.867 0.8375 0.8118 0.7877 0.8494 0.8865 0.8481 0.7695 0.6442 0.4847 0.5697
2440.157 0.7024 0.7199 0.5952 0.4849 0.5292 0.5487 0.6983 0.7115 0.5913 0.4796
2459.447 0.4906 0.6454 0.5082 0.3667 0.423 0.5596 0.6643 0.701 0.7677 0.6422
2478.737 0.4561 0.4655 0.7073 0.7115 0.651 0.6488 0.592 0.6169 0.5259 0.58
2498.026 0.6462 0.6191 0.5094 0.4047 0.3947 0.5123 0.6198 0.6899 0.7189 0.7546
2517.316 0.7261 0.5668 0.6066 0.5393 0.5236 0.5606 0.4641 0.5844 0.5133 0.4638
2536.606 0.5778 0.5403 0.6062 0.5739 0.5303 0.5867 0.6016 0.6664 0.7564 0.8532
2555.896 0.7955 0.6411 0.6719 0.6815 0.6142 0.658 0.6241 0.5578 0.6272 0.6716
2575.186 0.6388 0.5043 0.419 0.5797 0.5209 0.4075 0.5662 0.6747 0.7519 0.6618
2594.475 0.6044 0.731 0.8079 0.6711 0.6732 0.6829 0.5968 0.6569 0.7956 0.8585
2613.765 0.7417 0.7172 0.7124 0.7084 0.7428 0.7222 0.5553 0.563 0.5332 0.4992
2633.055 0.6148 0.5959 0.763 0.8102 0.8514 0.8457 0.6204 0.6347 0.7049 0.7283
2652.345 0.7262 0.6551 0.7193 0.6345 0.5316 0.6581 0.6953 0.5998 0.4996 0.4267
2671.634 0.552 0.6977 0.6807 0.5786 0.5423 0.6038 0.5908 0.5361 0.4811 0.6288
2690.924 0.8826 0.959 0.8154 0.805 0.8364 0.7983 0.7777 0.9039 1.001 0.9155
2710.214 0.9345 0.8963 0.8156 0.8367 0.8433 0.8437 0.7946 0.7396 0.8206 0.9695
2729.504 1.112 1.121 1.1767 1.359 1.429 1.439 1.509 1.669 1.759 1.599
2748.794 1.389 1.439 1.529 1.369 1.1606 1.1116 1.0865 1.0403 1.0202 0.9946
2768.083 0.92 0.7995 0.7662 0.6644 0.7524 0.8788 0.8493 0.827 0.8511 0.9619
2787.373 0.8296 0.8259 0.908 0.8058 0.8602 1.045 1.1113 1.0255 0.9555 1.0178
2806.663 1.0088 1.0766 1.2019 1.0988 1.1337 1.329 1.329 1.429 1.529 1.399
2825.953 1.679 1.859 1.769 1.929 1.879 1.719 1.869 2.129 2.279 2.539
2845.242 2.849 3.069 3.209 3.469 3.809 4.109 4.469 5.089 5.779 6.349
2864.532 6.899 7.379 8.159 8.809 9.109 9.579 9.669 9.419 9.249 9.019
2883.822 8.649 8.349 8.189 7.959 7.709 7.429 7.439 7.349 7.339 7.719
2903.112 7.859 7.989 8.359 8.789 9.299 10.019 10.609 11.239 12.069 12.709
2922.401 13.439 14.219 14.669 15.069 15.089 14.989 14.849 14.369 13.689 12.739
2941.691 11.869 10.929 9.799 8.699 7.739 7.059 6.509 6.069 5.819 5.559
2960.981 5.329 5.279 5.209 5.309 5.449 5.469 5.759 6.209 6.369 6.279
2980.271 6.329 6.679 6.699 6.219 6.099 5.899 5.679 5.749 5.619 5.639
2999.561 5.829 6.199 6.759 7.409 8.049 8.269 8.479 8.719 8.649 8.369
3018.850 8.129 7.959 7.369 6.449 5.629 5.009 4.519 4.109 3.999 3.819
3038.140 3.519 3.639 3.559 3.229 3.169 3.159 3.059 3.009 3.029 3.109
3057.430 3.049 2.829 2.809 2.849 2.819 2.879 2.669 2.379 2.359 2.419
3076.720 2.399 2.279 2.119 1.979 1.819 1.649 1.619 1.569 1.589 1.659
3096.009 1.569 1.309 1.2207 1.239 1.229 1.085 0.9338 0.9482 0.8835 1.0265
3115.299 1.2012 1.2148 0.9653 0.7063 0.7708 0.8179 0.8205 0.959 0.9215 0.6565
3134.589 0.6228 0.5511 0.4645 0.6907 0.6772 0.6624 0.78 0.7707 0.7591 0.6645
3153.879 0.8217 1.0477 0.9433 0.8179 0.8363 0.8765 0.7419 0.7792 0.7075 0.7225
3173.169 0.8089 0.7399 0.8951 0.9466 0.8298 0.8988 0.8713 0.8912 1.0553 0.8839
3192.458 0.7882 0.8323 0.9866 1.259 1.1294 0.8146 0.9197 1.269 1.0861 0.8454
3211.748 0.9196 0.7585 0.6517 0.6538 0.8313 0.8673 0.7654 0.814 0.8359 0.869
3231.038 0.8357 0.7301 0.725 0.6888 0.6318 0.6141 0.8063 0.9455 0.8585 0.705
3250.328 0.6723 0.5955 0.5935 0.7337 0.7228 0.8365 0.705 0.5867 0.7003 0.7735
3269.617 0.743 0.8325 0.8208 0.6548 0.6579 0.6229 0.7847 0.9691 1.0894 1.229
3288.907 1.1519 0.8315 0.6711 0.8252 0.9948 1.399 1.539 1.2058 1.339 1.549
3308.197 1.409 1.539 1.629 1.719 1.859 1.869 1.789 1.789 1.839 1.859
3327.487 1.799 1.459 1.489 1.819 2.009 1.989 2.099 2.329 2.359 2.299
3346.777 2.229 2.359 2.899 3.009 3.099 3.499 3.789 4.229 4.599 5.289
3366.066 6.249 7.319 8.519 10.099 11.689 13.119 14.659 15.879 16.639 17.059
3385.356 16.939 16.149 14.959 13.749 12.169 10.579 9.229 7.359 5.749 4.999
3404.646 4.279 3.659 3.329 2.889 2.729 2.669 2.519 2.559 2.659 2.859
3423.936 2.889 2.879 2.989 3.349 3.359 3.049 3.039 2.799 2.519 2.339
3443.225 2.089 2.099 1.959 1.799 1.559 1.629 1.739 1.469 1.499 1.359
3462.515 1.409 1.689 1.769 1.699 1.699 1.819 2.019 2.059 2.189 2.339
3481.805 2.409 2.799 3.109 3.369 3.729 4.359 4.829 5.069 5.639 6.359
3501.095 6.929 7.669 8.479 8.899 9.519 10.089 10.289 10.669 10.899 10.849
3520.385 10.679 10.189 9.719 9.079 8.179 7.259 6.589 5.959 5.239 4.559
3539.674 3.829 3.439 3.089 2.869 2.909 2.679 2.389 2.479 2.749 2.929
3558.964 3.289 4.019 4.869 5.999 7.629 9.849 12.609 16.039 20.599 25.599
3578.254 29.999 32.939 33.859 33.549 32.319 30.179 27.149 22.789 17.539 12.269
3597.544 7.679 4.849 3.209 2.099 1.789 1.569 1.279 1.249 1.1594 1.0775
3616.833 1.0656 0.8203 0.9025 1.1678 0.9601 0.7499 0.8766 0.7576 0.6116 0.6757
3636.123 0.7305 0.6008 0.6225 0.835 0.7523 0.7114 0.8623 0.571 0.1776 0.2121
3655.413 0.6675 1.0162 0.8012 0.5484 0.6482 0.7598 0.6511 0.4122 0.4134 0.5634
3674.703 0.6635 0.7828 0.8913 0.7491 0.5008 0.5688 0.7431 0.7557 0.6401 0.6785
3693.993 0.7712 0.7471 0.5967 0.3926 0.22798 0.29671 0.3816 0.3473 0.31051 0.30126
3713.282 0.30732 0.3324 0.1548 0.2094 0.4918 0.357 0.27401 0.4322 0.3687 0.4295
3732.572 0.6484 0.5772 0.4391 0.4456 0.3363 0.3505 0.7144 0.8239 0.5941 0.29208
3751.862 0.30507 0.4822 0.4666 0.3777 0.4822 0.4805 0.5594 0.5642 0.6292 0.9085
3771.152 0.8105 0.668 0.6877 0.7891 0.5689 0.29835 0.39 0.4998 0.5137 0.1895
3790.441 0.1386 0.5279 0.4773 0.4658 0.1438 0 0.26369 0.27074 0.4969 0.3366
3809.731 0.3974 0.5666 0.4644 0.5903 0.5197 0.4117 0.493 0.5692 0.5307 0.6423
3829.021 0.3803 0.1817 0.5902 0.4711 0.3719 0.5882 0.4355 0.4509 0.5646 0.5117
3848.311 0.3759 0.4246 0.5408 0.28303 0.031 0.115 0.2488 0.4022 0.433 0.4934
3867.601 0.6221 0.5848 0.6387 0.6635 0.5292 0.5859 1.1125 0.8129 0.32103 0.5436
3886.890 0.4836 0.3883 0.31982 0.5226 0.7868 0.805 0.7602 0.7168 0.6098 0.5447
3906.180 0.7237 0.5176 0.4344 0.635 0.5339 0.5836 0.7229 0.6576 0.6346 0.5149
3925.470 0.32213 0.4318 0.4725 0.3438 0.2038 0.30344 0.7018 0.9099 1.0582 0.9793
3944.760 0.5787 0.5787 0.6051 0.32066 0.4838 0.528 0.5076 0.5274 0.3646 0.6425
3964.049 0.7499 0.4715 0.4685 0.7169 0.9251 0.9104 0.8284 0.8074 0.4952 0.3416
3983.339 0.581 0.5319 0.6499 0.8724 0.6903 0.646 0.7352 0.6016 0.4976 0.5578
##END=
