##TITLE=5,6-Dimethoxyindole
##JCAMP-DX=4.24
##DATA TYPE=INFRARED SPECTRUM
##ORIGIN=EPA-IR VAPOR PHASE LIBRARY
##OWNER=SRD/NIST
Collection (C) 2018 copyright by the U.S. Secretary of Commerce
on behalf of the United States of America. All rights reserved.
##CAS REGISTRY NO=14430-23-0
##MOLFORM=C10 H11 N O2
##$NIST SOURCE=MSDC-IR
##STATE=gas
##XUNITS=1/CM
##YUNITS=ABSORBANCE
##XFACTOR=1.
##YFACTOR=0.001
##DELTAX=1.92898
##FIRSTX=549.8
##LASTX=4000.7
##FIRSTY=0.5523
##MAXX=4000.7
##MINX=549.759
##MAXY=0.0653
##MINY=0
##NPOINTS=1790
##XYDATA=(X++(Y..Y))
549.759 0.5523 0.8425 0.942 0.3933 0.621 0.8232 0.4417 0.335 0.3248 0.5442
569.049 0.9875 1.29 1.0623 0.753 0.6672 0.6479 0.5173 0.6766 0.9451 1.1152
588.339 1.27 1.25 1.35 1.61 1.67 1.56 1.69 1.63 1.52 1.5
607.628 1.58 1.56 1.58 1.8 1.95 2.12 2.29 2.22 2.09 2.31
626.918 2.45 2.42 2.43 2.42 2.37 2.27 2.25 2.27 2.14 1.94
646.208 1.87 1.9 1.81 1.73 1.8 1.76 1.58 1.55 1.73 1.72
665.498 1.77 1.97 2.28 2.48 2.59 3.09 3.61 4.18 5.16 6.45
684.787 7.94 9.47 11.11 12.68 14.06 15.5 16.63 16.81 15.92 14.65
704.077 13.56 12.54 11.52 10.52 9.72 9.08 8.63 8.36 8.22 8.21
723.367 8.2 8.5 9.06 9.73 10.76 12.17 13.54 14.75 16.11 17.62
742.657 18.9 18.73 17.31 15.71 14.18 12.79 11.16 9.47 7.73 6.3
761.947 5.24 4.37 3.94 3.5 3.14 3.25 3.34 3.39 3.4 3.45
781.236 3.75 4.25 4.46 4.64 5.25 5.58 5.82 6.27 6.77 7.21
800.526 7.62 8.16 8.67 9.09 9.37 9.53 9.73 10.02 10.48 10.93
819.816 11.67 12.64 13.8 15.39 17.01 18.59 20.09 21.51 22.73 23.61
839.106 24.05 24.12 23.81 23.12 22.16 21 19.52 17.91 16.52 15.2
858.395 13.93 12.8 12.08 11.45 10.62 10.05 9.5 8.7 7.94 7.15
877.685 6.16 5.37 4.84 4.26 3.92 3.66 3.43 3.45 3.62 4.1
896.975 4.93 5.74 6.23 6.72 7.09 6.99 6.64 6.2 5.54 4.75
916.265 4.04 3.6 3.21 2.75 2.49 2.37 2.34 2.46 2.48 2.22
935.555 2 2.05 2.18 2.32 2.36 2.25 2.14 2.19 2.29 2.56
954.844 2.76 2.73 2.92 3.01 3.06 3.41 3.6 3.76 4.22 4.64
974.134 5.08 5.73 6.47 7.4 8.41 9.35 10.45 11.66 12.82 13.81
993.424 14.64 15.22 15.41 15.43 15.4 15.15 14.85 14.64 14.47 14.6
1012.714 15.13 15.55 15.95 16.73 17.32 17.76 17.99 18.22 18.28 17.91
1032.003 17.39 16.51 15.44 14.39 13.17 11.98 10.99 9.76 8.64 7.7
1051.293 7.26 7.6 8.14 8.74 8.78 8.66 8.59 8.32 8.01 7.35
1070.583 6.81 6.43 5.89 5.59 5.62 6.01 6.03 5.85 6.13 6.49
1089.873 6.72 6.62 6.5 6.45 6.49 6.96 7.26 7.27 7.95 9.04
1109.163 9.91 11.11 12.7 14.49 17.06 19.62 22.75 26.62 30.69 34.31
1128.452 37.32 40.09 41.95 43.01 42.7 41.32 39.48 36.97 34.05 30.81
1147.742 27.89 26.17 25.59 25.83 27.01 28.92 30.78 32.62 34.03 34.51
1167.032 34.44 33.61 31.58 28.95 26.37 23.82 22.15 21.1 20.46 20.3
1186.322 20.55 21.41 22.59 24.34 25.88 26.65 27.49 28.17 28.35 28.45
1205.611 28.88 29.85 31.22 33.29 35.67 37.87 39.65 40.53 40.61 40.28
1224.901 39.02 37 34.57 31.77 28.99 26.6 24.42 22.34 20.48 18.69
1244.191 16.9 15.07 13.41 12.09 10.9 9.72 8.79 8.31 8.05 7.74
1263.481 7.51 7.32 7.22 7.61 8.19 8.77 9.67 10.87 12.75 15.31
1282.771 18.72 23.3 28.85 35.31 41.96 48.18 53.13 56.51 58.42 59.06
1302.060 58.6 56.9 54.12 50.85 48.04 46.26 45.26 44.47 43.36 41.64
1321.350 39.36 36.71 33.9 31.04 27.97 24.72 21.28 17.83 14.75 12.2
1340.640 10.12 8.53 7.34 6.35 5.56 4.96 4.41 3.95 3.62 3.36
1359.930 3.18 3.06 2.94 2.85 2.88 2.89 2.91 3.04 3.21 3.43
1379.219 3.79 4.18 4.61 5.07 5.54 5.86 6.1 6.25 6.2 6.07
1398.509 5.92 5.66 5.33 4.91 4.5 4.28 4.17 4.11 4.16 4.36
1417.799 4.65 5.06 5.64 6.4 7.4 8.66 10.17 11.85 13.65 15.49
1437.089 17.22 18.54 19.31 19.64 19.7 19.66 19.5 19.4 19.76 20.94
1456.378 23.32 27.08 32.14 38.4 45.29 52.19 58.13 62.46 64.77 65.3
1475.668 63.89 60.36 54.86 48.16 41.45 35.63 30.82 26.81 23.33 20.19
1494.958 17.39 15.06 13.46 12.66 12.7 13.47 14.97 16.85 18.53 19.79
1514.248 20.46 20.65 20.32 19.41 17.86 15.82 13.68 11.84 10.58 9.64
1533.538 8.92 8.33 7.77 7.26 6.75 6.21 5.73 5.31 4.95 4.72
1552.827 4.54 4.32 4.21 4.17 4.17 4.25 4.45 4.73 4.92 5.09
1572.117 5.28 5.43 5.46 5.43 5.27 5.01 4.72 4.42 4.2 3.94
1591.407 3.58 3.3 3.11 3 2.94 2.96 2.97 2.95 3.02 3.21
1610.697 3.45 3.58 3.68 3.82 4.05 4.36 4.64 4.85 5.01 5.15
1629.986 5.22 5.2 5.08 4.89 4.68 4.39 4.1 3.78 3.41 3.19
1649.276 3.04 2.85 2.8 2.79 2.77 2.81 2.83 2.94 3.02 3.08
1668.566 3.18 3.27 3.41 3.42 3.39 3.4 3.29 3.16 2.92 2.69
1687.856 2.51 2.29 2.11 1.95 1.82 1.68 1.57 1.48 1.41 1.33
1707.146 1.27 1.2 1.1405 1.1032 1.0813 1.0962 1.1429 1.1354 1.0268 1.0306
1726.435 1.0918 1.0922 1.1181 1.1546 1.1736 1.1868 1.1682 1.1654 1.173 1.191
1745.725 1.1552 1.0928 1.0694 1.056 1.0216 0.9629 0.9467 0.9179 0.8514 0.7684
1765.015 0.7389 0.7296 0.7335 0.7097 0.6172 0.5846 0.5826 0.5373 0.574 0.6365
1784.305 0.5972 0.5814 0.5865 0.5681 0.5542 0.5797 0.5951 0.5602 0.5298 0.5567
1803.594 0.5627 0.6156 0.7016 0.7014 0.6971 0.6741 0.6464 0.6311 0.6706 0.7002
1822.884 0.6145 0.6135 0.6965 0.7238 0.6874 0.6889 0.7501 0.7483 0.7357 0.7727
1842.174 0.8017 0.8036 0.784 0.7607 0.7881 0.7976 0.7631 0.7296 0.7401 0.7991
1861.464 0.8355 0.8175 0.7518 0.7181 0.7985 0.8513 0.8258 0.8053 0.8063 0.8381
1880.754 0.8612 0.843 0.8201 0.8391 0.8445 0.8552 0.8641 0.8111 0.7873 0.8009
1900.043 0.8189 0.8462 0.8673 0.8668 0.8138 0.7885 0.819 0.8134 0.7724 0.724
1919.333 0.7094 0.7319 0.7551 0.7504 0.7649 0.7608 0.7633 0.7904 0.83 0.8272
1938.623 0.7943 0.8104 0.7931 0.7889 0.7907 0.7823 0.7925 0.8503 0.8703 0.8626
1957.913 0.8894 0.9036 0.8906 0.8779 0.9901 1.0329 0.9227 0.9615 1.0497 1.0451
1977.202 1.0949 1.1161 1.1116 1.1635 1.1509 1.1495 1.1471 1.1492 1.1548 1.124
1996.492 1.1289 1.1347 1.1297 1.1028 1.0696 1.0659 1.0675 1.0376 1.0389 1.0699
2015.782 1.1477 1.1431 1.0929 1.1548 1.1671 1.2 1.23 1.25 1.33 1.36
2035.072 1.33 1.35 1.35 1.29 1.29 1.3 1.3 1.27 1.26 1.22
2054.362 1.23 1.26 1.2 1.1601 1.122 1.0814 1.0485 0.9779 0.9199 0.9412
2073.651 0.9725 0.9662 0.9827 0.9563 0.8305 0.8031 0.8691 0.812 0.772 0.7693
2092.941 0.7367 0.7528 0.7286 0.6891 0.6903 0.7304 0.7143 0.7093 0.7358 0.7618
2112.231 0.8632 0.8742 0.8974 0.9363 0.9326 0.9703 0.9567 0.9698 1.0275 1.0228
2131.521 1.0115 1.0028 0.9938 0.991 0.9622 0.9137 0.908 0.9563 0.8907 0.8248
2150.810 0.845 0.8959 0.953 0.9119 0.8457 0.8749 0.8904 0.8545 0.8799 0.8737
2170.100 0.8612 0.8618 0.8523 0.8296 0.8443 0.8146 0.817 0.8594 0.8132 0.8064
2189.390 0.8502 0.8813 0.8155 0.8029 0.8177 0.8393 0.8664 0.8292 0.8276 0.8479
2208.680 0.8703 0.9086 0.9534 0.8735 0.7834 0.7763 0.783 0.7693 0.743 0.7329
2227.970 0.7229 0.7336 0.7505 0.7381 0.7226 0.6797 0.6435 0.6471 0.5918 0.605
2247.259 0.6465 0.6373 0.628 0.5698 0.493 0.4962 0.5809 0.6233 0.6045 0.6101
2266.549 0.5991 0.5929 0.6037 0.5478 0.4653 0.4818 0.5383 0.5582 0.5135 0.4358
2285.839 0.4568 0.4807 0.4264 0.4338 0.5136 0.5169 0.4972 0.4916 0.4489 0.4794
2305.129 0.5106 0.4971 0.5254 0.5726 0.5588 0.5542 0.5943 0.5108 0.427 0.4629
2324.418 0.482 0.4731 0.5211 0.5586 0.6041 0.6284 0.6162 0.6382 0.6716 0.709
2343.708 0.7404 0.7141 0.6873 0.7633 0.7946 0.7614 0.8646 0.907 0.8375 0.7699
2362.998 0.755 0.7966 0.7617 0.7792 0.7722 0.7264 0.7542 0.7724 0.732 0.7302
2382.288 0.7508 0.7387 0.6922 0.6477 0.6845 0.6547 0.6152 0.6288 0.5851 0.5797
2401.578 0.6017 0.5726 0.5083 0.5201 0.5344 0.5028 0.5241 0.5149 0.4309 0.458
2420.867 0.5059 0.4826 0.5394 0.5597 0.4617 0.4655 0.5652 0.5762 0.6457 0.6596
2440.157 0.6869 0.7555 0.6833 0.6563 0.708 0.7054 0.714 0.7652 0.7207 0.6714
2459.447 0.6938 0.7008 0.7467 0.7625 0.7359 0.7346 0.7467 0.7824 0.7778 0.8513
2478.737 0.8893 0.9195 0.852 0.7122 0.7287 0.8128 0.7457 0.6513 0.6519 0.6192
2498.026 0.679 0.7132 0.6371 0.6104 0.6008 0.5093 0.5778 0.6505 0.6492 0.6632
2517.316 0.7008 0.7181 0.7466 0.7323 0.6062 0.6057 0.709 0.7609 0.7504 0.809
2536.606 0.8526 0.748 0.652 0.6733 0.7235 0.6533 0.601 0.6995 0.7248 0.721
2555.896 0.6793 0.6624 0.6945 0.7446 0.8132 0.7763 0.7277 0.7205 0.7439 0.7301
2575.186 0.7674 0.8181 0.8271 0.9299 0.973 0.9722 0.9943 0.9818 0.9915 0.983
2594.475 1.0172 1.0505 1.0464 1.0971 1.1356 1.1237 1.1419 1.21 1.23 1.1633
2613.765 1.161 1.1966 1.1395 1.1281 1.1401 1.155 1.1835 1.1582 1.1564 1.0789
2633.055 0.9994 1.0546 1.088 1.0834 1.0648 1.0722 1.0276 1.0534 1.0586 1.0623
2652.345 1.0253 0.9136 0.9259 0.8578 0.9027 0.9296 0.8245 0.8217 0.8535 0.7738
2671.634 0.73 0.7674 0.7449 0.8094 0.7917 0.7897 0.8157 0.7789 0.8647 0.8241
2690.924 0.6687 0.6307 0.7276 0.7017 0.6716 0.6751 0.6283 0.726 0.774 0.6694
2710.214 0.6274 0.6092 0.5701 0.6639 0.7288 0.6955 0.6414 0.5575 0.5745 0.6313
2729.504 0.5308 0.5321 0.6157 0.6762 0.757 0.7426 0.6862 0.7028 0.7433 0.7346
2748.794 0.7258 0.7357 0.7993 0.7372 0.6986 0.7558 0.7918 0.8444 0.9292 0.9992
2768.083 0.9267 1.0422 1.29 1.27 1.22 1.22 1.22 1.31 1.43 1.51
2787.373 1.58 1.62 1.68 1.8 1.92 2.02 2.04 2.16 2.37 2.65
2806.663 2.96 3.21 3.44 3.76 4.27 4.79 5.35 6.04 6.88 7.83
2825.953 8.79 10.09 11.68 12.92 13.88 14.79 15.22 15.39 15.26 14.59
2845.242 13.77 12.69 11.34 10.12 9.08 8.1 7.38 6.86 6.44 6.25
2864.532 6.14 6.09 6.17 6.32 6.66 7.01 7.35 7.71 8.08 8.55
2883.822 9.02 9.41 9.72 10.02 10.31 10.44 10.6 10.76 10.92 11.13
2903.112 11.45 11.72 11.83 12.15 12.57 12.88 13.02 13.19 13.4 13.58
2922.401 13.94 14.53 15.28 16.26 17.5 19.03 20.5 21.82 23 23.88
2941.691 24.37 24.48 24.37 23.83 22.95 21.87 20.75 19.59 18.41 17.37
2960.981 16.46 15.67 14.69 13.95 13.44 12.81 12.29 11.86 11.57 11.46
2980.271 11.53 11.66 11.96 12.57 13.36 14.19 14.99 15.94 16.82 17.43
2999.561 17.65 17.39 16.87 15.89 14.53 12.98 11.31 9.87 8.54 7.35
3018.850 6.59 6.07 5.62 5.24 5.15 5.16 5.11 5.18 5.31 5.44
3038.140 5.48 5.59 5.76 5.81 5.79 5.74 5.59 5.33 5.23 5.07
3057.430 4.62 4.34 4.24 4.17 4.06 3.81 3.66 3.54 3.36 3.21
3076.720 3.1 3.02 2.89 2.78 2.79 2.76 2.59 2.44 2.5 2.53
3096.009 2.45 2.44 2.46 2.48 2.57 2.71 2.75 2.73 2.83 2.84
3115.299 2.73 2.67 2.62 2.64 2.56 2.55 2.67 2.79 2.79 2.83
3134.589 2.92 2.9 2.74 2.49 2.36 2 1.56 1.3 1.0566 0.9879
3153.879 0.9597 0.9077 0.9027 0.7749 0.7361 0.8466 0.8031 0.5887 0.5 0.5798
3173.169 0.6577 0.615 0.5791 0.5889 0.6072 0.5639 0.5186 0.515 0.5689 0.5224
3192.458 0.4428 0.4739 0.4529 0.4836 0.4975 0.3972 0.2965 0.3252 0.3328 0.21199
3211.748 0.23916 0.3706 0.3854 0.3194 0.3254 0.3735 0.25778 0.3285 0.3817 0.28826
3231.038 0.4113 0.3916 0.203922 0.1601 0.2612 0.3625 0.3681 0.3773 0.28106 0.1823
3250.328 0.2671 0.3611 0.2844 0.23536 0.22611 0.19165 0.2448 0.3398 0.3713 0.23621
3269.617 0.1612 0.19889 0.26888 0.23179 0.1635 0.1738 0.1675 0.1893 0.1623 0.1359
3288.907 0.127 0.1515 0.1209 0.1102 0.22815 0.21982 0.1152 0.09 0.1011 0.064
3308.197 0.053 0 0.1279 0.25224 0.1972 0.23267 0.26416 0.34 0.3218 0.1459
3327.487 0.1837 0.28158 0.21949 0.28757 0.3009 0.25876 0.3344 0.353 0.26457 0.1814
3346.777 0.046 0.074 0.20893 0.24415 0.209445 0.046 0.014 0.1748 0.22556 0.21048
3366.066 0.24953 0.21159 0.1628 0.204752 0.1249 0.068 0.1894 0.23805 0.28616 0.3122
3385.356 0.21141 0.054 0.1115 0.27683 0.3029 0.1575 0.1575 0.23947 0.21966 0.29772
3404.646 0.328 0.19663 0.28083 0.3502 0.3334 0.3296 0.24201 0.3923 0.4396 0.3341
3423.936 0.3662 0.3855 0.4526 0.5168 0.3308 0.3447 0.5323 0.3659 0.3877 0.616
3443.225 0.6041 0.6344 0.6689 0.7146 0.7618 0.7438 0.7537 0.8199 0.917 1.0573
3462.515 1.0758 1.1849 1.34 1.45 1.62 1.8 1.9 1.98 2.25 2.49
3481.805 2.83 3.2 3.59 4 4.39 5.01 5.76 6.48 7.38 8.56
3501.095 9.57 10.51 11.72 12.89 13.86 14.79 15.66 15.89 15.71 15.3
3520.385 14.49 13.43 12.25 10.89 9.34 7.82 6.4 5.27 4.39 3.69
3539.674 3.07 2.6 2.25 2.03 1.84 1.49 1.23 1.25 1.1322 0.9626
3558.964 0.9473 0.828 0.7492 0.7211 0.6212 0.6975 0.71 0.6302 0.5514 0.5012
3578.254 0.3417 0.19302 0.3348 0.3435 0.29883 0.3097 0.26489 0.314 0.3956 0.3564
3597.544 0.1624 0.1103 0.26206 0.3048 0.21186 0.3379 0.3424 0.1116 0.1116 0.26928
3616.833 0.3544 0.29487 0.29963 0.23087 0.056 0.1783 0.2979 0.26836 0.29665 0.3507
3636.123 0.3875 0.3513 0.3794 0.3243 0.25221 0.216 0.3047 0.3014 0.1445 0.1572
3655.413 0.23223 0.3187 0.25681 0.19443 0.23047 0.2873 0.3854 0.3892 0.21197 0.1467
3674.703 0.1864 0.23189 0.28425 0.3311 0.3445 0.23383 0.056 0.1392 0.22501 0.053
3693.993 0.089 0.1385 0.052 0.055 0.066 0.1315 0.1873 0.3164 0.28295 0.1799
3713.282 0.2292 0.1843 0.1774 0.1109 0.077 0.038 0.1329 0.27246 0.3285 0.324
3732.572 0.24134 0.29005 0.1822 0.035 0.02 0.023 0.081 0.206871 0.26552 0.3188
3751.862 0.3518 0.208046 0.1892 0.27798 0.22989 0.081 0.1097 0.4131 0.4313 0.3142
3771.152 0.27685 0.141 0.1646 0.29547 0.24972 0.1292 0.1874 0.21864 0.3064 0.3937
3790.441 0.4332 0.4083 0.3476 0.26274 0.25341 0.3011 0.205532 0.29922 0.3287 0.1547
3809.731 0.1272 0.22494 0.3392 0.25615 0.21403 0.27054 0.3274 0.3306 0.3425 0.4776
3829.021 0.4238 0.4341 0.3162 0.1567 0.21775 0.4008 0.5363 0.482 0.5902 0.6885
3848.311 0.5971 0.3603 0.4579 0.5786 0.4562 0.4603 0.5503 0.5547 0.4306 0.4201
3867.601 0.4187 0.4974 0.506 0.4626 0.4152 0.4406 0.4882 0.5028 0.558 0.5628
3886.890 0.5374 0.504 0.3897 0.3189 0.3828 0.4111 0.4722 0.5161 0.3907 0.3474
3906.180 0.3331 0.26355 0.26072 0.4163 0.5403 0.3413 0.1451 0.205207 0.28989 0.3604
3925.470 0.3677 0.27585 0.3945 0.4315 0.3456 0.3582 0.3121 0.3364 0.4666 0.5399
3944.760 0.5476 0.4444 0.29584 0.3092 0.28741 0.3283 0.4213 0.4332 0.3957 0.3597
3964.049 0.4678 0.4662 0.4739 0.4937 0.5079 0.5428 0.5166 0.4718 0.4553 0.3767
3983.339 0.3508 0.27779 0.316 0.3499 0.3726 0.5547 0.5829 0.6659 0.6241 0.5359
##END=
