##TITLE=N,N-Dimethyldecanamide
##JCAMP-DX=4.24
##DATA TYPE=INFRARED SPECTRUM
##ORIGIN=EPA-IR VAPOR PHASE LIBRARY
##OWNER=SRD/NIST
Collection (C) 2018 copyright by the U.S. Secretary of Commerce
on behalf of the United States of America. All rights reserved.
##CAS REGISTRY NO=14433-76-2
##MOLFORM=C 12 H 25 N O
##$NIST SOURCE=MSDC-IR
##STATE=gas
##XUNITS=1/CM
##YUNITS=ABSORBANCE
##XFACTOR=1.
##YFACTOR=0.001
##DELTAX=3.85796
##FIRSTX=501.5
##LASTX=4000.7
##FIRSTY=0.1856
##MAXX=4000.7
##MINX=501.534
##MAXY=0.149848
##MINY=0
##NPOINTS=908
##XYDATA=(X++(Y..Y))
501.534 0.1856 0.1406 0.07039 0.07386 0.07783 0.07412 0.1772 0.196 0.2859 0.3752
540.114 0.2854 0.3511 0.4785 0.4882 0.4947 0.5723 0.7614 0.9459 1.1282 1.2782
578.693 1.3282 1.3382 1.3082 1.3882 1.5882 1.7382 1.8382 1.9082 1.8282 1.6082
617.273 1.3082 0.9782 0.7123 0.5253 0.3141 0.1906 0.2297 0.1871 0.1329 0.1713
655.852 0.1932 0.1837 0.1925 0.2463 0.3008 0.3416 0.3717 0.4194 0.5463 0.743
694.432 0.9038 1.0782 1.3282 1.5582 1.8182 2.0782 2.2382 2.2982 2.2682 2.1082
733.011 1.9582 1.8382 1.7282 1.6882 1.5882 1.4982 1.4682 1.4582 1.4582 1.4582
771.591 1.4382 1.3682 1.3282 1.2382 1.0782 0.9637 0.9135 0.8778 0.8349 0.7721
810.170 0.7458 0.7513 0.71 0.7029 0.7577 0.7955 0.834 0.857 0.839 0.8398
848.750 0.829 0.8001 0.8305 0.8784 0.8641 0.91 0.968 0.939 0.9808 1.0482
887.330 1.0482 1.0282 1.0482 1.0382 1.0199 0.9873 0.9351 0.9475 0.9912 0.9911
925.909 0.9835 1.0482 1.1482 1.1982 1.3082 1.4782 1.6782 1.9382 2.1682 2.4282
964.489 2.6682 2.8482 2.9282 2.8882 2.8682 2.8782 2.8582 2.7982 2.7882 2.8782
1003.068 3.0482 3.2582 3.5482 3.9882 4.4382 5.0282 5.8582 6.7982 7.7082 8.6382
1041.648 9.5782 10.2482 10.5382 10.5682 10.3882 10.0482 9.7682 9.6382 9.6982 9.9682
1080.227 10.4982 11.2482 12.2682 13.4982 14.5882 15.4182 15.9382 15.9782 15.6782 15.4082
1118.807 15.4282 16.0782 17.3682 19.1682 21.2782 22.9782 23.6882 23.2382 21.7682 19.7782
1157.387 17.7682 15.9082 14.4182 13.2682 12.3882 11.5982 10.8082 10.1082 9.3682 8.6582
1195.966 8.0482 7.4782 6.9482 6.5382 6.3082 6.1182 5.9982 6.0282 6.1282 6.3182
1234.546 6.6182 7.2082 8.0582 9.2382 10.8282 12.5682 14.3582 15.8782 16.4482 15.8682
1273.125 14.4082 12.5882 10.9282 9.7382 9.0882 8.7382 8.6782 8.8982 9.3082 9.8882
1311.705 10.5882 11.3482 12.1382 12.7982 13.1882 13.4182 13.7682 14.3982 15.2882 16.2982
1350.284 17.3982 18.6282 20.0982 22.0582 24.7182 28.1982 32.7982 38.5482 44.8882 50.5582
1388.864 53.9082 53.8782 50.4782 44.9882 39.1782 34.0682 29.8082 26.1182 22.8682 20.3482
1427.443 18.7282 18.1082 18.6482 20.4182 23.2782 26.9482 30.7582 33.7282 35.0282 34.2482
1466.023 31.7682 28.4582 24.9282 21.7182 19.1382 17.1682 15.6582 14.4582 13.4982 12.6582
1504.603 11.9582 11.3082 10.7682 10.3282 9.9582 9.6082 9.2982 9.0182 8.7182 8.3882
1543.182 8.0582 7.6782 7.2782 6.9082 6.5382 6.1682 5.8482 5.5282 5.2282 4.9382
1581.762 4.6982 4.4882 4.3182 4.1982 4.1282 4.0982 4.1282 4.2582 4.4582 4.7582
1620.341 5.2182 5.8482 6.7182 7.8982 9.4182 11.3282 13.7682 17.1782 21.9582 28.8682
1658.921 38.1282 50.9582 67.6882 87.8482 108.318 122.608 123.958 110.988 89.5782 66.7882
1697.500 47.5682 33.5682 24.0282 17.5582 13.1782 10.1582 8.0082 6.4882 5.3782 4.5582
1736.080 3.9282 3.4182 3.0082 2.6882 2.4082 2.1782 2.0082 1.8482 1.7082 1.6382
1774.659 1.5382 1.4582 1.4082 1.3282 1.2482 1.1782 1.1082 1.0382 0.9788 0.9426
1813.239 0.8979 0.8357 0.7732 0.7419 0.7183 0.6794 0.6564 0.6268 0.6054 0.5893
1851.819 0.5569 0.5314 0.5217 0.5112 0.4914 0.4821 0.4898 0.4985 0.4732 0.454
1890.398 0.4529 0.4501 0.4383 0.4318 0.4382 0.4314 0.4067 0.3842 0.3864 0.3828
1928.978 0.3637 0.3584 0.3562 0.3251 0.3081 0.309 0.2999 0.3009 0.3007 0.2955
1967.557 0.2996 0.2975 0.3 0.313 0.3094 0.2974 0.2943 0.3101 0.3339 0.3374
2006.137 0.3347 0.3481 0.3679 0.3871 0.3889 0.3753 0.3758 0.391 0.423 0.4252
2044.716 0.4054 0.4067 0.4245 0.4339 0.4355 0.4389 0.4423 0.4544 0.4553 0.461
2083.296 0.4791 0.4658 0.4539 0.4534 0.4405 0.4196 0.3958 0.4068 0.4194 0.4151
2121.875 0.4183 0.431 0.4365 0.4239 0.4233 0.4425 0.4367 0.4292 0.4458 0.4529
2160.455 0.437 0.4354 0.4389 0.448 0.4501 0.4363 0.4563 0.4695 0.4646 0.4849
2199.035 0.4876 0.4617 0.4493 0.4395 0.439 0.4232 0.4105 0.4076 0.3818 0.3681
2237.614 0.3784 0.379 0.3391 0.3115 0.3146 0.3098 0.2948 0.2886 0.2847 0.2706
2276.194 0.2553 0.2599 0.2956 0.312 0.3187 0.3174 0.3026 0.3054 0.3121 0.3024
2314.773 0.2994 0.2983 0.2817 0.2798 0.2876 0.2845 0.2917 0.2928 0.2912 0.3154
2353.353 0.3261 0.3241 0.3275 0.3148 0.3088 0.3205 0.3175 0.3076 0.316 0.3413
2391.932 0.3443 0.3328 0.3327 0.3536 0.3553 0.3435 0.3493 0.3458 0.3456 0.3462
2430.512 0.3568 0.3519 0.3461 0.3516 0.3548 0.3594 0.3751 0.3957 0.3991 0.4157
2469.092 0.4205 0.3999 0.4031 0.4072 0.4274 0.4586 0.467 0.469 0.4957 0.5109
2507.671 0.5063 0.5485 0.5789 0.5911 0.6041 0.6204 0.6476 0.6569 0.6492 0.6607
2546.251 0.6724 0.6556 0.6574 0.6919 0.7339 0.7566 0.7664 0.7716 0.78 0.8157
2584.830 0.8237 0.8272 0.8618 0.8881 0.9261 0.9662 0.9929 1.0252 1.0582 1.0582
2623.410 1.0882 1.1082 1.1582 1.2582 1.2982 1.3282 1.3582 1.4082 1.4482 1.5082
2661.989 1.5782 1.6382 1.6982 1.7282 1.7782 1.8182 1.8582 1.8482 1.8482 1.8282
2700.569 1.8082 1.8182 1.8382 1.8682 1.8982 1.9582 2.0482 2.1082 2.1982 2.3182
2739.148 2.4182 2.5482 2.6682 2.7782 2.8882 3.0582 3.2082 3.4282 3.7182 4.0182
2777.728 4.3782 4.8182 5.3282 5.8882 6.4882 7.1282 7.8182 8.5782 9.3582 10.1682
2816.308 11.0182 11.9482 12.9882 14.1582 15.5482 17.3082 19.7082 23.2882 28.6182 36.0282
2854.887 45.0082 53.5582 59.1182 60.4782 58.5882 55.4782 52.8182 51.1982 50.1782 49.6782
2893.467 50.5082 53.3682 58.3282 65.0582 73.3182 83.3782 95.8682 111.328 128.418 142.978
2932.046 149.848 146.648 135.338 119.918 104.108 90.7882 81.4482 75.8582 72.5182 68.6582
2970.626 61.7882 51.9382 41.5682 33.1882 27.1882 22.8282 19.5982 17.1882 15.3882 13.9682
3009.205 12.9282 12.1582 11.5582 11.1382 10.7282 10.2982 9.8382 9.2782 8.6582 7.9882
3047.785 7.3182 6.6682 6.0782 5.5382 5.0382 4.6182 4.2482 3.9382 3.6782 3.4182
3086.364 3.1582 2.9282 2.7282 2.5182 2.3282 2.1682 1.9982 1.8582 1.7782 1.6882
3124.944 1.5982 1.4882 1.4182 1.3782 1.2982 1.1982 1.1282 1.0982 1.0682 1.0218
3163.524 0.9537 0.9153 0.9037 0.8622 0.821 0.7745 0.7362 0.6919 0.6043 0.5721
3202.103 0.5863 0.5502 0.5118 0.4828 0.4536 0.4154 0.3594 0.3312 0.324 0.3139
3240.683 0.3328 0.2844 0.2071 0.2287 0.2398 0.2564 0.2682 0.2606 0.2381 0.2512
3279.262 0.2972 0.2499 0.2379 0.2627 0.2594 0.2627 0.3246 0.4115 0.475 0.5409
3317.842 0.6429 0.7557 0.8254 0.9592 1.1382 1.2282 1.2682 1.2882 1.2482 1.1782
3356.421 1.0982 0.9305 0.7551 0.6241 0.5351 0.4533 0.3926 0.3851 0.3247 0.2518
3395.001 0.2051 0.2046 0.2438 0.2492 0.1904 0.1441 0.1432 0.1363 0.1366 0.1746
3433.580 0.1971 0.1683 0.1895 0.1969 0.1415 0.10719 0.09613 0.07969 0.09063 0.10007
3472.160 0.10697 0.12099 0.07765 0.06215 0.08585 0.07 0.05253 0.05222 0.05763 0.06719
3510.740 0.04776 0 0.0041 0.04021 0.05093 0.02958 0.02489 0.034639 0.0173 0.0283005
3549.319 0.05109 0.0808 0.0794 0.031679 0.04076 0.10352 0.0988 0.08394 0.11347 0.1511
3587.899 0.143 0.11604 0.11254 0.1292 0.1498 0.1312 0.1373 0.165 0.1944 0.1815
3626.478 0.1515 0.1523 0.1772 0.1666 0.165 0.1703 0.146 0.1641 0.1868 0.1637
3665.058 0.12693 0.1246 0.1785 0.2087 0.2018 0.1914 0.1477 0.1567 0.1448 0.10688
3703.637 0.1472 0.1828 0.1613 0.1366 0.1591 0.1866 0.1629 0.1487 0.1622 0.1862
3742.217 0.1832 0.1905 0.2106 0.172 0.1629 0.1671 0.1706 0.1957 0.2156 0.2151
3780.797 0.1797 0.1873 0.2433 0.2315 0.2215 0.2213 0.2363 0.2516 0.2448 0.2606
3819.376 0.2418 0.2336 0.2514 0.2469 0.2305 0.229 0.2342 0.2082 0.2318 0.2459
3857.956 0.2803 0.3457 0.3486 0.3149 0.2861 0.3157 0.2731 0.2604 0.269 0.2178
3896.535 0.2421 0.267 0.2746 0.2963 0.2653 0.2732 0.3174 0.3227 0.3708 0.3673
3935.115 0.2718 0.2633 0.3089 0.2942 0.2977 0.375 0.4354 0.4218 0.4224 0.4609
3973.694 0.4523 0.4594 0.4821 0.4569 0.4392 0.4442 0.5021 0.5033
##END=
