##TITLE=3,5-Dimethoxy-4-hydroxybenzhydrazide
##JCAMP-DX=4.24
##DATA TYPE=INFRARED SPECTRUM
##ORIGIN=EPA-IR VAPOR PHASE LIBRARY
##OWNER=SRD/NIST
Collection (C) 2018 copyright by the U.S. Secretary of Commerce
on behalf of the United States of America. All rights reserved.
##CAS REGISTRY NO=1443-76-1
##MOLFORM=C 9 H 12 N 2 O 4
##$NIST SOURCE=MSDC-IR
##STATE=gas
##XUNITS=1/CM
##YUNITS=ABSORBANCE
##XFACTOR=1.
##YFACTOR=0.001
##DELTAX=1.92898
##FIRSTX=549.8
##LASTX=4000.7
##FIRSTY=0.8723
##MAXX=4000.7
##MINX=549.759
##MAXY=0.022024
##MINY=0
##NPOINTS=1790
##XYDATA=(X++(Y..Y))
549.759 0.8723 1.1652 1.0649 0.9043 1.0209 0.6609 0.29999 0.2369 0.38017 0.7372
569.049 0.8968 0.8294 0.4795 0.35957 0.5322 0.7946 0.8261 0.7836 1.0343 1.1667
588.339 1.0737 0.951 0.8363 1.0245 0.8444 0.5346 0.6598 0.5973 0.5706 0.6611
607.628 0.6719 0.6652 0.6036 0.6129 0.8686 0.7988 0.6042 0.7108 0.7976 0.803
626.918 0.6668 0.6664 0.7841 0.7305 0.7056 0.5523 0.719 0.7588 0.749 0.912
646.208 0.848 0.8613 0.8011 0.9288 0.9598 0.7929 0.8965 0.9635 0.8754 0.8246
665.498 0.6909 0.6402 0.7969 0.8218 0.7634 0.7857 0.9268 0.9783 0.8983 0.7565
684.787 0.61 0.6993 0.9011 0.8583 0.7171 0.7087 0.6582 0.655 0.5529 0.5477
704.077 0.5814 0.7036 0.7489 0.7011 0.8063 0.7308 0.8327 0.8062 0.8935 1.2111
723.367 1.334 1.514 1.684 1.834 2.194 2.544 2.754 2.924 3.144 3.414
742.657 3.434 3.244 3.174 2.994 2.664 2.384 2.204 2.074 1.964 2.344
761.947 2.784 2.754 2.704 2.744 2.604 2.294 1.954 1.794 1.604 1.1067
781.236 0.9075 1.0472 1.1144 0.9627 0.8704 1.078 1.2115 1.444 1.504 1.354
800.526 1.354 1.454 1.474 1.394 1.394 1.1509 1.0678 0.89 0.6849 0.875
819.816 0.9044 0.7823 0.7569 0.7575 0.5965 0.7671 1.0976 1.1422 0.918 0.8178
839.106 0.8734 0.9542 0.9313 0.7087 0.7554 0.9267 1.0112 1.0157 1.1843 1.344
858.395 1.0405 0.9423 1.2459 1.2757 1.2405 1.344 1.494 1.464 1.314 1.514
877.685 1.544 1.584 1.664 1.684 1.954 2.034 1.954 1.724 1.634 1.834
896.975 1.814 1.734 1.764 1.744 1.664 1.444 1.304 1.404 1.564 1.604
916.265 1.514 1.504 1.484 1.384 1.193 1.1415 1.1477 1.0517 1.0149 1.0087
935.555 0.9364 0.9658 0.9585 1.0917 1.1846 1.118 1.1727 0.9663 0.7537 0.7827
954.844 0.7347 0.7366 0.9416 1.1487 1.0967 0.9648 1.046 1.1268 1.0643 1.1368
974.134 1.1013 1.0734 1.1663 1.2324 1.334 1.354 1.394 1.424 1.524 1.894
993.424 2.214 2.564 3.094 3.354 3.304 3.044 3.194 3.214 2.724 2.494
1012.714 2.304 2.174 2.204 1.994 1.934 2.144 2.124 2.424 3.044 3.454
1032.003 3.744 4.204 4.354 4.134 4.054 4.234 4.054 3.744 3.254 2.874
1051.293 2.964 2.694 2.124 2.014 2.074 1.874 2.274 2.704 2.694 2.734
1070.583 3.004 3.204 3.634 4.214 4.624 5.154 5.274 5.664 6.434 7.264
1089.873 7.934 8.414 8.634 9.104 10.314 11.274 11.714 11.634 11.564 11.484
1109.163 11.094 11.234 11.324 10.784 10.254 9.474 8.644 7.864 7.474 6.874
1128.452 6.094 5.484 4.384 3.924 3.834 3.274 2.634 2.424 2.594 2.774
1147.742 2.374 2.314 2.524 2.704 2.714 2.074 1.934 2.104 2.534 2.884
1167.032 3.134 3.544 3.724 3.924 4.334 5.294 6.174 6.764 7.414 7.804
1186.322 7.954 8.354 9.104 9.514 9.544 10.374 11.624 12.934 14.614 16.264
1205.611 17.744 19.154 20.274 20.964 21.454 21.574 22.024 21.854 20.694 19.864
1224.901 19.184 18.124 16.954 15.584 13.754 11.554 10.054 9.274 8.304 7.384
1244.191 6.894 6.594 6.244 6.324 6.394 6.384 6.234 6.014 6.074 6.114
1263.481 5.964 5.684 5.694 5.674 5.304 5.084 4.874 4.584 4.434 4.224
1282.771 4.054 4.034 4.004 3.994 3.864 3.784 4.074 4.354 4.614 5.044
1302.060 5.614 6.394 7.304 8.374 9.724 11.374 13.194 15.114 17.054 18.774
1321.350 20.184 21.224 21.544 21.144 20.274 18.974 17.314 15.534 13.814 12.164
1340.640 10.604 9.214 8.034 6.974 5.964 5.254 4.724 4.264 4.014 3.894
1359.930 3.874 3.884 3.924 4.104 4.224 4.354 4.444 4.384 4.224 3.914
1379.219 3.674 3.444 3.074 2.704 2.434 2.234 2.044 1.994 1.994 1.984
1398.509 2.024 2.064 2.164 2.344 2.574 2.944 3.354 3.704 4.254 4.864
1417.799 5.324 5.774 6.194 6.464 6.664 6.794 6.854 7.044 7.224 7.214
1437.089 7.194 6.964 6.414 5.804 5.064 4.294 3.874 3.924 4.124 4.324
1456.378 4.644 4.964 5.214 5.354 5.344 5.204 4.884 4.504 4.144 3.854
1475.668 3.644 3.414 3.284 3.104 2.864 2.914 3.054 3.224 3.564 3.964
1494.958 4.384 4.784 5.274 5.704 5.974 6.154 6.074 5.884 5.584 5.044
1514.248 4.474 3.894 3.274 2.774 2.354 2.104 1.894 1.674 1.554 1.444
1533.538 1.404 1.374 1.2255 1.1406 1.2465 1.2467 1.224 1.2929 1.2614 1.2012
1552.827 1.1762 1.2081 1.2196 1.2393 1.246 1.1806 1.2158 1.424 1.514 1.474
1572.117 1.544 1.534 1.534 1.724 1.874 2.074 2.264 2.264 2.464 2.764
1591.407 2.944 3.324 3.814 4.204 4.494 4.794 5.124 5.334 5.394 5.404
1610.697 5.394 5.254 4.954 4.584 4.254 3.894 3.434 3.054 2.764 2.464
1629.986 2.204 2.024 1.824 1.704 1.644 1.594 1.464 1.314 1.2576 1.2252
1649.276 1.2155 1.1585 1.1356 1.1101 1.0781 1.004 0.9297 0.8566 0.7642 0.7955
1668.566 0.8574 0.792 0.7623 0.7677 0.839 0.9247 0.9238 0.9746 1.0727 1.18
1687.856 1.202 1.2112 1.334 1.454 1.484 1.554 1.534 1.474 1.484 1.494
1707.146 1.494 1.544 1.644 1.704 1.784 1.964 2.304 2.684 3.304 4.334
1726.435 5.684 7.364 9.454 11.694 13.654 15.114 15.944 15.954 15.064 13.264
1745.725 10.784 8.244 6.104 4.484 3.354 2.594 2.004 1.634 1.474 1.424
1765.015 1.424 1.384 1.314 1.2559 1.2675 1.304 1.354 1.434 1.454 1.474
1784.305 1.444 1.344 1.2366 1.1051 1.0008 0.9606 0.893 0.8082 0.8 0.7629
1803.594 0.6968 0.6558 0.6861 0.6848 0.6436 0.5937 0.545 0.5597 0.5773 0.4894
1822.884 0.4662 0.5498 0.5771 0.6103 0.6082 0.5851 0.5447 0.5116 0.5114 0.5497
1842.174 0.5978 0.626 0.5837 0.5191 0.5621 0.5932 0.6376 0.6127 0.5413 0.5331
1861.464 0.5079 0.5573 0.5943 0.5596 0.5014 0.4368 0.4628 0.4685 0.4868 0.514
1880.754 0.474 0.4896 0.4777 0.4114 0.4628 0.5459 0.5673 0.5887 0.5451 0.4914
1900.043 0.4903 0.5261 0.4916 0.4481 0.4415 0.471 0.5134 0.4807 0.4627 0.4512
1919.333 0.4345 0.4891 0.4713 0.4459 0.4781 0.4513 0.4141 0.4264 0.442 0.4451
1938.623 0.5298 0.5983 0.5813 0.5244 0.5654 0.5819 0.5241 0.5275 0.5298 0.4992
1957.913 0.509 0.5434 0.5611 0.4958 0.4927 0.5206 0.4881 0.5093 0.5025 0.482
1977.202 0.5259 0.4914 0.4398 0.5314 0.5839 0.5301 0.5194 0.5846 0.5717 0.5143
1996.492 0.4741 0.4513 0.4826 0.4549 0.4805 0.5576 0.5433 0.5386 0.5176 0.5335
2015.782 0.5567 0.5062 0.508 0.5413 0.5079 0.4759 0.5102 0.4851 0.446 0.5025
2035.072 0.5216 0.495 0.5576 0.6019 0.5278 0.5189 0.4845 0.5084 0.5842 0.5478
2054.362 0.5381 0.5681 0.5833 0.5332 0.5066 0.5774 0.6711 0.6505 0.5757 0.5504
2073.651 0.4995 0.5013 0.5717 0.5916 0.5915 0.5915 0.5835 0.6061 0.6158 0.6355
2092.941 0.6178 0.5528 0.5979 0.6024 0.5844 0.5859 0.629 0.71 0.6582 0.6365
2112.231 0.685 0.669 0.6471 0.6554 0.6532 0.6021 0.5954 0.6109 0.6227 0.6337
2131.521 0.6827 0.7354 0.659 0.5702 0.4821 0.462 0.5597 0.5994 0.5924 0.5095
2150.810 0.4615 0.4686 0.4333 0.37409 0.37882 0.4151 0.4382 0.4661 0.4897 0.4767
2170.100 0.40198 0.4248 0.4336 0.4523 0.4985 0.4739 0.4465 0.3725 0.34104 0.37676
2189.390 0.39377 0.36707 0.33243 0.38592 0.40084 0.37899 0.4095 0.4248 0.39366 0.36216
2208.680 0.36321 0.37517 0.38561 0.39184 0.39783 0.4658 0.4482 0.37445 0.38604 0.35109
2227.970 0.35841 0.30111 0.35405 0.5457 0.5527 0.5014 0.4698 0.4946 0.5001 0.4341
2247.259 0.35972 0.38376 0.4179 0.36349 0.40074 0.4646 0.4237 0.38121 0.37826 0.4438
2266.549 0.439 0.33076 0.2919 0.38212 0.4204 0.32975 0.34091 0.3263 0.33205 0.37189
2285.839 0.39779 0.4043 0.35863 0.34067 0.34723 0.3733 0.38014 0.40157 0.3775 0.37123
2305.129 0.41 0.4151 0.4418 0.4673 0.4371 0.4189 0.4149 0.4066 0.38063 0.3581
2324.418 0.37211 0.35516 0.32811 0.33066 0.33812 0.37546 0.4655 0.4655 0.436 0.4962
2343.708 0.4477 0.37625 0.4099 0.37757 0.37215 0.4087 0.34518 0.3412 0.4274 0.4278
2362.998 0.38939 0.4246 0.4483 0.4156 0.40325 0.4623 0.4328 0.36945 0.36335 0.39785
2382.288 0.4319 0.4238 0.39818 0.31516 0.313476 0.37516 0.4013 0.37719 0.3569 0.39284
2401.578 0.411 0.4225 0.35333 0.2705 0.34298 0.4083 0.33946 0.32255 0.37147 0.5066
2420.867 0.5404 0.38909 0.37456 0.4108 0.39046 0.33243 0.31529 0.34483 0.4153 0.4192
2440.157 0.4396 0.471 0.4803 0.5127 0.4598 0.5012 0.4881 0.4198 0.4393 0.4905
2459.447 0.4695 0.4119 0.4144 0.4485 0.4712 0.4719 0.4561 0.4371 0.36327 0.36515
2478.737 0.38545 0.35279 0.34347 0.3274 0.36429 0.4824 0.5447 0.4485 0.4364 0.4931
2498.026 0.5145 0.4884 0.478 0.4702 0.4951 0.4667 0.32026 0.2659 0.4288 0.5115
2517.316 0.39792 0.4074 0.4513 0.4181 0.39653 0.3259 0.2962 0.4273 0.5075 0.4643
2536.606 0.5031 0.5055 0.4248 0.4686 0.4928 0.4508 0.4485 0.4225 0.4081 0.38895
2555.896 0.310881 0.30214 0.4282 0.5335 0.5551 0.4721 0.4694 0.4727 0.33073 0.30078
2575.186 0.2693 0.37122 0.5121 0.34461 0.32073 0.39387 0.39748 0.33306 0.33311 0.407
2594.475 0.4135 0.38722 0.30289 0.3151 0.29638 0.2455 0.2516 0.310792 0.2868 0.29548
2613.765 0.4412 0.5349 0.4455 0.4581 0.5366 0.4633 0.4301 0.4236 0.4534 0.4564
2633.055 0.4532 0.4384 0.4134 0.39601 0.36306 0.40135 0.4775 0.4971 0.4906 0.4592
2652.345 0.441 0.4652 0.38837 0.39303 0.4388 0.4189 0.362 0.32823 0.38371 0.36506
2671.634 0.38108 0.39639 0.305236 0.2315 0.2508 0.36712 0.39064 0.3453 0.4106 0.38906
2690.924 0.34506 0.435 0.4185 0.32884 0.38068 0.4079 0.268 0.2576 0.4068 0.4396
2710.214 0.4935 0.5318 0.4931 0.4723 0.40025 0.34306 0.33593 0.35295 0.2776 0.34859
2729.504 0.5417 0.5231 0.36637 0.3345 0.4432 0.4777 0.4226 0.4427 0.4513 0.38806
2748.794 0.4437 0.409 0.4212 0.38903 0.224 0.307179 0.35897 0.32481 0.37413 0.35586
2768.083 0.3643 0.4991 0.5893 0.5577 0.37941 0.2782 0.32838 0.34402 0.2801 0.2798
2787.373 0.4364 0.453 0.40268 0.38044 0.34346 0.4321 0.5906 0.5334 0.37854 0.4961
2806.663 0.6581 0.7208 0.6616 0.6823 0.7715 0.761 0.7861 0.7579 0.8975 0.9519
2825.953 0.9044 0.9314 0.8488 0.9429 1.0076 1.1197 1.444 1.634 1.734 1.914
2845.242 1.984 2.024 2.184 2.184 2.094 2.014 1.934 1.814 1.654 1.574
2864.532 1.474 1.314 1.2054 1.1564 1.2265 1.2427 1.1539 1.1836 1.1812 1.2614
2883.822 1.314 1.2201 1.2368 1.474 1.524 1.454 1.354 1.2903 1.364 1.374
2903.112 1.344 1.444 1.604 1.634 1.604 1.634 1.804 1.814 1.734 1.854
2922.401 1.884 1.824 1.864 2.044 2.214 2.204 2.274 2.434 2.474 2.714
2941.691 3.094 3.494 3.944 4.294 4.514 4.634 4.874 5.174 5.274 5.204
2960.981 5.104 4.884 4.494 4.094 3.694 3.214 2.854 2.504 2.344 2.284
2980.271 2.124 2.114 2.074 2.104 2.074 1.964 1.954 2.054 2.084 2.204
2999.561 2.414 2.494 2.634 2.734 2.804 2.884 2.894 2.764 2.594 2.304
3018.850 2.034 1.864 1.604 1.474 1.304 1.1948 1.2298 1.2372 1.1913 1.0852
3038.140 0.9096 0.7335 0.8006 0.7249 0.7503 0.8828 0.7685 0.6286 0.7263 0.7434
3057.430 0.7094 0.6845 0.6099 0.6768 0.7136 0.7254 0.6662 0.6543 0.759 0.7035
3076.720 0.6883 0.8259 0.7568 0.6785 0.6413 0.7011 0.7216 0.673 0.7057 0.7175
3096.009 0.7959 0.7283 0.499 0.4107 0.463 0.4924 0.5085 0.6661 0.7121 0.643
3115.299 0.589 0.5254 0.616 0.5866 0.37761 0.35921 0.5439 0.5912 0.4574 0.283
3134.589 0.309137 0.4836 0.5113 0.4727 0.38598 0.38207 0.4137 0.4287 0.545 0.4353
3153.879 0.35117 0.38282 0.32001 0.39687 0.4215 0.31964 0.4073 0.39347 0.2235 0.2481
3173.169 0.30155 0.32005 0.3375 0.39503 0.4464 0.33667 0.2892 0.4159 0.4499 0.4044
3192.458 0.37586 0.2466 0.2849 0.32948 0.4275 0.5762 0.4188 0.2673 0.2135 0.4094
3211.748 0.5089 0.4453 0.4664 0.3491 0.37709 0.36526 0.273 0.2334 0.2842 0.2936
3231.038 0.31419 0.5286 0.5522 0.37248 0.2272 0.2383 0.37855 0.34132 0.36239 0.4368
3250.328 0.34363 0.4708 0.474 0.38909 0.4384 0.37662 0.312513 0.2814 0.310055 0.4685
3269.617 0.39843 0.2191 0.2668 0.4524 0.40325 0.2736 0.2812 0.201 0.2093 0.173
3288.907 0.33553 0.427 0.33965 0.4308 0.4946 0.40361 0.2374 0.186 0.2457 0.283
3308.197 0.142 0.064 0.133 0.2896 0.2811 0.174 0.209 0.202 0.237 0.32396
3327.487 0.2295 0.33869 0.5174 0.36976 0.32438 0.34572 0.4111 0.34156 0.35202 0.4499
3346.777 0.2937 0.2893 0.29965 0.217 0.2513 0.2442 0.2588 0.4082 0.4371 0.309931
3366.066 0.171 0.149 0.234 0.5333 0.6557 0.5306 0.6361 0.5244 0.34827 0.4243
3385.356 0.4429 0.4305 0.4297 0.4018 0.2815 0.36505 0.38957 0.33162 0.4565 0.4386
3404.646 0.38914 0.29835 0.2601 0.4065 0.54 0.4433 0.31894 0.32175 0.4819 0.5729
3423.936 0.38921 0.38279 0.3399 0.2614 0.308814 0.33956 0.37636 0.40241 0.37807 0.2195
3443.225 0.136 0.2777 0.5198 0.5501 0.477 0.592 0.7066 0.6341 0.5464 0.5332
3462.515 0.5317 0.34585 0.2054 0.3617 0.4442 0.38859 0.252 0.146 0.173 0.2723
3481.805 0.4459 0.4838 0.4473 0.472 0.4185 0.4902 0.4998 0.4212 0.5512 0.581
3501.095 0.5682 0.6275 0.5761 0.4259 0.29813 0.29567 0.2882 0.37947 0.4725 0.35046
3520.385 0.35917 0.4311 0.4386 0.39156 0.5704 0.5985 0.5973 0.786 0.7476 0.7688
3539.674 0.7001 0.7518 1.0841 1.2839 1.2248 1.394 1.594 1.814 2.364 2.794
3558.964 3.334 4.034 4.714 5.264 5.584 5.664 5.784 5.844 5.484 5.084
3578.254 4.704 4.044 3.284 2.714 2.204 1.874 1.664 1.324 0.9561 0.8309
3597.544 0.9193 0.7702 0.6573 0.796 0.7619 0.6628 0.5353 0.4504 0.435 0.35498
3616.833 0.2545 0.33203 0.4213 0.35448 0.2439 0.2503 0.2693 0.39873 0.5898 0.4308
3636.123 0.31694 0.4183 0.5487 0.5699 0.4959 0.4504 0.38727 0.29847 0.30349 0.32609
3655.413 0.2842 0.35718 0.4808 0.488 0.31761 0.36007 0.4204 0.2081 0.052 0.2936
3674.703 0.5461 0.5763 0.6235 0.4804 0.33455 0.2796 0.3862 0.5077 0.4709 0.4354
3693.993 0.4067 0.4897 0.4828 0.39178 0.2558 0.2443 0.303826 0.304476 0.2619 0.142
3713.282 0.313445 0.4607 0.39842 0.304552 0.2713 0.2511 0.4594 0.5529 0.38179 0.4063
3732.572 0.4799 0.541 0.4228 0.33933 0.463 0.43 0.173 0.2394 0.36454 0.3671
3751.862 0.383 0.29808 0.243 0.2111 0.005 0 0.30291 0.31499 0.2348 0.2797
3771.152 0.2446 0.2312 0.309039 0.505 0.5545 0.35335 0.388 0.4102 0.4646 0.6334
3790.441 0.6027 0.4252 0.35457 0.4262 0.4365 0.34954 0.39809 0.4996 0.4206 0.2584
3809.731 0.29808 0.37953 0.2691 0.2152 0.2361 0.31527 0.4299 0.4582 0.38747 0.4804
3829.021 0.4949 0.2634 0.174 0.143 0.201 0.34786 0.38328 0.38407 0.35219 0.32604
3848.311 0.35621 0.4347 0.310628 0.167 0.36997 0.38359 0.2416 0.38312 0.5698 0.459
3867.601 0.33875 0.4515 0.6171 0.574 0.4899 0.309764 0.2169 0.32533 0.2763 0.2505
3886.890 0.2624 0.35611 0.5237 0.5612 0.5674 0.5542 0.5153 0.501 0.38254 0.37427
3906.180 0.32401 0.35643 0.5059 0.4459 0.4264 0.40379 0.4331 0.566 0.4697 0.39757
3925.470 0.38312 0.3853 0.49 0.4188 0.4124 0.435 0.2853 0.2044 0.2523 0.3929
3944.760 0.36827 0.2766 0.34152 0.4196 0.5041 0.4416 0.4623 0.5247 0.4848 0.4519
3964.049 0.5151 0.5888 0.4228 0.33828 0.198 0.124 0.2893 0.40146 0.4848 0.4721
3983.339 0.4636 0.5241 0.38521 0.2576 0.35101 0.3846 0.5022 0.4739 0.34864 0.39529
##END=
