##TITLE=2-Phenylcyclohexanol
##JCAMP-DX=4.24
##DATA TYPE=INFRARED SPECTRUM
##ORIGIN=NIST Mass Spectrometry Data Center
##OWNER=NIST Standard Reference Data Program
Collection (C) 2018 copyright by the U.S. Secretary of Commerce
on behalf of the United States of America. All rights reserved.
##CAS REGISTRY NO=1444-64-0
##MOLFORM=C 12 H 16 O
##$NIST SOURCE=MSDC-IR
##SPECTROMETER/DATA SYSTEM=HP-GC/MS/IRD
##STATE=gas
##XUNITS=1/CM
##YUNITS=ABSORBANCE
##XFACTOR=1.0
##YFACTOR=0.000003700
##DELTAX=4.0
##FIRSTX=550.0
##LASTX=3846.0
##FIRSTY=0.001321
##MAXX=3846
##MINX=550
##MAXY=0.037
##MINY=0
##NPOINTS=825
##XYDATA=(X++(Y..Y))
550.0 357 139 11 23 16 4 22 31 24 26
590.0 11 6 0 5 8 16 11 6 27 31
630.0 50 92 117 124 157 240 322 377 432 448
670.0 418 398 440 585 843 1210 1599 1828 1801 1515
710.0 1112 772 551 447 427 491 601 696 741 728
750.0 662 591 556 551 540 501 407 278 172 105
790.0 72 68 61 50 60 74 104 136 149 157
830.0 143 113 103 99 90 91 116 162 189 179
870.0 147 125 117 122 146 174 188 194 191 175
910.0 155 141 126 112 102 93 99 113 159 247
950.0 372 579 876 1224 1539 1708 1658 1436 1168 960
990.0 828 747 674 575 479 409 378 384 430 492
1030.0 525 531 547 581 641 697 713 684 655 633
1070.0 596 539 479 416 360 328 333 371 420 482
1110.0 553 612 635 622 583 518 457 397 343 311
1150.0 287 286 291 322 352 391 449 497 527 530
1190.0 493 442 407 387 403 443 508 608 718 807
1230.0 839 795 715 629 577 574 594 598 565 521
1270.0 464 402 356 329 313 305 313 321 328 340
1310.0 361 385 396 412 423 425 435 445 449 441
1350.0 416 391 372 367 382 402 434 457 458 435
1390.0 385 320 260 218 193 179 171 180 207 256
1430.0 341 477 667 883 1047 1105 1040 884 719 591
1470.0 488 403 355 363 459 639 789 805 689 465
1510.0 261 163 116 91 72 60 62 64 60 56
1550.0 50 43 40 47 54 74 98 126 172 233
1590.0 314 421 502 493 401 261 144 81 54 38
1630.0 29 26 28 24 11 8 16 22 23 21
1670.0 15 11 13 12 11 13 8 5 6 8
1710.0 9 12 14 16 24 29 28 29 36 38
1750.0 37 37 37 31 32 33 34 44 54 71
1790.0 93 109 112 104 85 62 50 42 33 25
1830.0 21 19 22 29 36 39 43 52 56 58
1870.0 62 65 64 60 59 61 54 44 41 36
1910.0 30 28 37 51 64 82 102 117 122 117
1950.0 111 97 78 58 40 26 18 19 16 10
1990.0 4 2 4 5 6 5 9 10 8 9
2030.0 7 6 8 7 5 1 1 7 7 3
2070.0 5 7 3 5 5 6 10 11 11 8
2110.0 11 8 3 8 9 4 1 6 3 4
2150.0 8 8 10 8 10 13 14 17 17 14
2190.0 15 16 14 15 20 18 14 13 15 14
2230.0 15 17 15 13 11 9 13 17 16 16
2270.0 15 10 12 12 8 10 15 12 13 19
2310.0 26 25 21 23 23 20 23 26 32 33
2350.0 29 26 31 35 26 24 26 26 24 18
2390.0 12 9 11 12 11 14 14 16 20 18
2430.0 11 19 21 12 8 3 0 6 12 11
2470.0 11 12 14 11 12 16 21 21 19 21
2510.0 23 24 16 14 18 15 11 12 20 22
2550.0 22 26 26 27 31 38 43 42 41 40
2590.0 38 46 56 57 55 55 54 55 58 61
2630.0 65 72 80 88 99 113 124 128 138 145
2670.0 138 127 121 120 117 106 97 94 87 78
2710.0 78 83 80 71 70 71 70 72 73 74
2750.0 76 82 90 98 100 104 114 124 131 134
2790.0 137 139 145 154 162 176 190 207 228 260
2830.0 308 376 480 649 908 1279 1735 2185 2559 2852
2870.0 3065 3175 3174 3042 2829 2643 2515 2437 2424 2480
2910.0 2605 2840 3203 3772 4683 6042 7784 9365 10000 9267
2950.0 7336 4992 3059 1797 1064 669 463 353 287 252
2990.0 233 233 246 269 325 399 506 661 849 1035
3030.0 1148 1144 1042 912 823 808 862 985 1192 1389
3070.0 1458 1371 1163 937 800 719 645 558 471 387
3110.0 311 243 175 125 92 71 57 41 44 49
3150.0 42 45 46 39 31 26 23 16 10 11
3190.0 19 15 11 11 6 12 11 10 16 14
3230.0 10 21 24 18 23 16 11 17 13 2
3270.0 2 11 10 10 13 10 14 19 20 24
3310.0 21 17 23 26 22 18 21 27 22 20
3350.0 19 16 22 17 8 8 6 1 9 10
3390.0 8 6 10 18 19 23 29 34 36 30
3430.0 23 16 11 9 5 15 10 2 14 19
3470.0 10 4 12 22 20 9 0 9 14 10
3510.0 16 10 0 1 11 11 16 20 26 42
3550.0 49 40 28 28 28 34 41 46 55 62
3590.0 74 87 96 123 171 239 360 513 645 687
3630.0 634 541 452 393 350 303 268 231 180 140
3670.0 123 98 72 61 53 50 54 59 71 62
3710.0 45 39 37 42 36 28 19 14 22 33
3750.0 38 26 12 24 33 31 28 21 12 8
3790.0 9 13 15 19 24 28 30 28 30 39
3830.0 36 20 23 38 40
##END=
