##TITLE=3-Bromo-2-fluorobenzotrifluoride
##JCAMP-DX=4.24
##DATA TYPE=INFRARED SPECTRUM
##ORIGIN=EPA-IR VAPOR PHASE LIBRARY
##OWNER=SRD/NIST
Collection (C) 2018 copyright by the U.S. Secretary of Commerce
on behalf of the United States of America. All rights reserved.
##CAS REGISTRY NO=144584-67-8
##MOLFORM=C 7 H 3 Br F 4
##$NIST SOURCE=MSDC-IR
##STATE=gas
##XUNITS=1/CM
##YUNITS=ABSORBANCE
##XFACTOR=1.
##YFACTOR=0.001
##DELTAX=1.929
##FIRSTX=549.8
##LASTX=4000.8
##FIRSTY=2.672
##MAXX=4000.75
##MINX=549.766
##MAXY=0.209552
##MINY=0
##NPOINTS=1790
##XYDATA=(X++(Y..Y))
549.766 2.672 3.242 3.892 4.502 5.172 5.782 5.782 5.572 5.602 5.442
569.056 4.862 4.312 3.692 2.972 2.302 2.012 1.842 1.6814 1.6232 1.57
588.346 1.6288 1.5924 1.6986 1.882 2.052 2.292 2.382 2.482 2.552 2.422
607.636 2.362 2.222 2.032 1.892 1.7266 1.534 1.4523 1.2299 0.9445 1.0259
626.926 0.9813 0.947 1.0336 0.9123 0.7796 0.86816 1.0563 1.0662 0.9875 0.9111
646.216 1.024 1.1509 1.1176 1.1277 1.1256 1.1389 1.3031 1.4609 1.665 1.832
665.506 1.992 2.282 2.422 2.552 2.822 3.262 3.872 5.032 7.522 12.542
684.796 20.692 30.432 37.032 39.262 40.342 40.072 36.492 26.682 15.162 8.412
704.086 5.572 4.582 4.112 3.672 3.532 3.672 3.822 4.242 5.162 6.552
723.376 8.282 10.212 12.162 14.262 16.502 18.962 20.152 17.672 14.462 12.742
742.666 10.892 8.672 6.572 4.792 3.482 2.592 1.972 1.6484 1.5592 1.5707
761.956 1.6896 1.932 2.322 2.942 3.782 5.012 6.742 8.832 11.202 13.792
781.246 16.442 19.452 23.162 25.872 25.542 24.272 23.672 22.552 20.412 17.702
800.536 14.522 11.132 8.082 5.752 4.382 3.922 3.482 3.052 3.212 3.632
819.826 4.322 5.132 6.432 8.082 9.702 11.112 11.622 11.312 11.172 10.972
839.116 9.772 7.972 6.222 4.832 3.752 2.942 2.452 2.142 1.812 1.5341
858.406 1.5158 1.4611 1.3008 1.2175 1.1942 1.1221 1.0697 1.0934 1.092 1.0652
877.696 1.051 1.0307 1.0057 0.9292 0.9286 0.98 1.0387 1.0555 1.0719 1.1636
896.986 1.1765 1.1797 1.1653 1.2331 1.3035 1.3195 1.3814 1.4431 1.4833 1.4532
916.276 1.3583 1.2991 1.2467 1.1279 1.0401 1.022 0.9704 0.9412 1.0136 1.0302
935.566 1.0322 1.0787 1.1565 1.3515 1.5152 1.5275 1.5787 1.566 1.5073 1.4387
954.856 1.3635 1.3611 1.3828 1.4625 1.5419 1.6706 1.852 1.952 1.992 1.982
974.146 1.882 1.802 1.6625 1.4129 1.2959 1.2719 1.2107 1.163 1.1456 1.145
993.436 1.1841 1.3318 1.4101 1.403 1.4802 1.5459 1.5369 1.5764 1.6428 1.6115
1012.726 1.5865 1.6722 1.6598 1.6388 1.7057 1.802 1.932 1.942 2.042 2.252
1032.016 2.352 2.512 2.782 3.122 3.592 4.182 4.792 5.632 6.742 8.122
1051.306 9.722 11.372 13.052 14.672 15.992 16.942 17.822 18.682 19.452 20.172
1070.596 21.162 22.872 25.142 27.512 29.342 30.242 30.252 29.342 27.062 23.212
1089.886 18.782 14.832 11.752 9.512 7.802 6.612 5.952 5.702 5.772 6.032
1109.176 6.412 6.892 7.652 8.452 9.262 10.322 11.482 12.802 14.372 16.272
1128.467 18.482 21.122 24.292 28.082 32.822 38.552 45.292 53.232 62.462 72.462
1147.757 82.552 92.212 101.102 108.952 115.162 120.002 124.892 131.202 139.732 150.372
1167.047 161.032 167.972 167.182 156.942 139.272 117.902 96.172 76.242 59.672 47.472
1186.337 39.082 33.112 28.872 25.782 23.472 21.932 20.882 20.762 22.112 25.242
1205.627 30.572 38.432 48.122 56.762 61.282 61.202 57.852 51.912 43.232 32.202
1224.917 21.932 15.172 11.792 10.442 10.142 10.472 11.192 12.412 14.302 16.862
1244.207 20.122 24.022 28.052 31.282 32.952 33.202 33.132 32.952 31.072 27.082
1263.497 22.662 19.042 16.492 14.832 13.802 13.292 12.922 12.582 12.282 11.912
1282.787 11.532 11.242 11.202 11.542 12.502 14.222 16.712 20.132 24.762 31.022
1302.077 39.502 51.082 66.952 88.122 114.532 144.422 173.902 197.172 209.492 209.552
1321.367 197.892 174.742 141.052 102.572 69.052 46.382 33.352 26.102 21.722 18.762
1340.657 16.522 14.712 13.052 11.522 10.172 8.892 7.742 6.792 6.052 5.432
1359.947 4.892 4.422 4.042 3.712 3.412 3.142 2.962 2.862 2.822 2.802
1379.237 2.782 2.752 2.742 2.812 2.982 3.162 3.292 3.412 3.532 3.622
1398.527 3.652 3.572 3.512 3.362 3.232 3.212 3.132 3.072 3.082 3.112
1417.817 3.202 3.362 3.542 3.762 4.062 4.432 4.962 5.632 6.512 7.522
1437.107 8.902 10.572 12.682 15.492 19.132 23.702 29.502 36.372 44.352 52.612
1456.397 60.782 67.992 72.942 76.292 77.982 76.882 71.722 63.752 54.642 45.402
1475.687 37.062 29.502 23.212 17.992 13.862 10.842 8.692 7.132 6.072 5.362
1494.977 4.892 4.532 4.242 4.052 3.902 3.722 3.502 3.312 3.192 3.002
1514.267 2.822 2.652 2.442 2.302 2.192 2.072 1.982 1.842 1.7409 1.6311
1533.557 1.5252 1.5243 1.5584 1.5555 1.5121 1.5721 1.6926 1.7633 1.872 1.982
1552.847 2.082 2.272 2.472 2.702 3.082 3.452 3.842 4.252 4.622 5.012
1572.137 5.312 5.532 5.672 5.652 5.552 5.462 5.422 5.402 5.472 5.742
1591.427 6.182 6.872 7.822 8.972 10.342 11.752 12.932 13.772 14.112 13.832
1610.717 13.072 11.962 10.512 8.862 7.422 6.362 5.622 5.112 4.662 4.352
1630.007 4.132 3.882 3.602 3.402 3.272 3.112 2.992 2.942 2.842 2.662
1649.297 2.492 2.382 2.292 2.192 2.142 2.132 2.102 2.102 2.052 1.972
1668.587 1.872 1.778 1.6576 1.5022 1.448 1.4461 1.4606 1.4881 1.5861 1.7763
1687.877 1.922 2.192 2.482 2.662 2.802 2.802 2.702 2.502 2.242 1.962
1707.167 1.651 1.3732 1.2273 1.1116 0.9936 0.9271 0.8963 0.9095 0.9323 0.9225
1726.457 0.9393 0.97 0.99 0.9892 0.9675 0.9858 1.0358 1.0497 1.0686 1.0553
1745.747 1.0115 1.0117 0.9961 1.0179 1.0497 1.0653 1.0836 1.0667 1.0182 0.9842
1765.037 1.0063 1.0041 1.0361 1.064 1.0219 1.0179 1.0408 1.0236 0.9558 0.931
1784.327 0.8928 0.87723 0.88811 0.88548 0.87265 0.88291 0.8948 0.901 0.9639 0.9997
1803.617 1.0533 1.1517 1.2436 1.3246 1.4138 1.5014 1.5398 1.5898 1.6833 1.7016
1822.907 1.634 1.5424 1.4701 1.4049 1.3011 1.1722 1.0398 0.9437 0.9327 0.9505
1842.197 0.9344 0.8965 0.89151 0.9201 0.9331 0.9492 0.9693 0.9989 1.0462 1.0935
1861.487 1.1844 1.308 1.4447 1.6431 1.912 2.162 2.362 2.512 2.552 2.532
1880.777 2.402 2.122 1.812 1.5907 1.3538 1.1526 1.0331 0.87832 0.8731 0.9237
1900.067 0.9065 0.9027 0.9007 0.87717 0.88622 0.9602 0.9938 0.9924 1.0094 1.0552
1919.357 1.1313 1.2023 1.2673 1.3634 1.4576 1.5812 1.651 1.6832 1.6939 1.6685
1938.647 1.6415 1.5881 1.5138 1.407 1.2727 1.1572 1.1018 1.0705 1.0422 1.0197
1957.937 1.0109 1.0066 1.0074 1.0061 0.9813 0.9564 0.9503 0.9341 0.9055 0.87617
1977.227 0.87718 0.88967 0.83801 0.80484 0.80834 0.80768 0.83665 0.83816 0.80896 0.81515
1996.517 0.84699 0.88748 0.88729 0.87362 0.88796 0.9261 0.9247 0.8958 0.9156 0.9362
2015.807 0.9122 0.88679 0.87358 0.86188 0.80853 0.7785 0.78365 0.7645 0.7705 0.7226
2035.097 0.7039 0.7351 0.7352 0.7246 0.7346 0.7772 0.7468 0.7336 0.78424 0.78957
2054.387 0.798636 0.79008 0.7433 0.7205 0.6925 0.692 0.7028 0.7101 0.7384 0.7541
2073.677 0.794876 0.85467 0.882 0.905 0.9327 0.9299 0.9338 0.88901 0.86817 0.9021
2092.967 0.88392 0.88973 0.9072 0.9028 0.9217 0.9686 1.0499 1.0723 1.0493 1.085
2112.257 1.1234 1.1139 1.1104 1.0747 0.998 0.9642 0.9384 0.86245 0.797655 0.80677
2131.547 0.83368 0.80699 0.7858 0.794515 0.82351 0.80913 0.79042 0.81138 0.82479 0.83692
2150.837 0.81872 0.81974 0.81093 0.8056 0.7808 0.798671 0.7792 0.7208 0.7288 0.7062
2170.127 0.7053 0.7179 0.6975 0.688 0.7072 0.688 0.681 0.6934 0.679 0.667
2189.417 0.666 0.672 0.677 0.683 0.677 0.692 0.7185 0.7067 0.7014 0.7361
2208.707 0.7675 0.78709 0.7794 0.7575 0.7701 0.8065 0.83403 0.85303 0.9 0.9401
2227.997 0.9422 0.9333 0.9254 0.9239 0.9398 0.9543 0.9764 0.9861 1.0032 1.0547
2247.287 1.0645 1.0674 1.1292 1.1335 1.1089 1.0827 1.0499 1.067 1.0487 1.0149
2266.577 0.9757 0.9872 0.9986 0.9691 0.9815 0.9716 1.0027 1.0806 1.0855 1.1216
2285.868 1.1585 1.1624 1.1986 1.2377 1.296 1.3352 1.3839 1.395 1.375 1.3589
2305.158 1.3354 1.3176 1.3159 1.2779 1.2054 1.1609 1.1165 1.1136 1.1108 1.0721
2324.448 1.0571 1.0418 1.016 1.0191 0.9784 0.9733 0.9544 0.899 0.917 0.9412
2343.738 0.9348 0.9175 0.9348 0.9341 0.9365 0.9178 0.9349 0.9338 0.86446 0.87387
2363.028 0.86711 0.8643 0.85978 0.82651 0.8081 0.8033 0.80434 0.82969 0.8596 0.88715
2382.318 0.9175 0.9073 0.86503 0.84632 0.84108 0.85887 0.8899 0.9099 0.8965 0.8878
2401.608 0.9061 0.88607 0.87806 0.86497 0.8061 0.74 0.7501 0.7413 0.7088 0.731
2420.898 0.7441 0.7771 0.83867 0.7778 0.7168 0.689 0.678 0.7372 0.7301 0.7091
2440.188 0.677 0.676 0.7029 0.7145 0.688 0.688 0.6996 0.69 0.7124 0.664
2459.478 0.624 0.654 0.741 0.791274 0.80986 0.7792 0.7245 0.7801 0.80547 0.7657
2478.768 0.758 0.7746 0.7727 0.7514 0.7697 0.81665 0.88587 0.88802 0.8241 0.9246
2498.058 1.0128 1.0236 1.0118 0.9853 1.0248 1.0379 0.9718 0.8744 0.83279 0.7649
2517.348 0.731 0.7142 0.7048 0.7249 0.7673 0.7534 0.7253 0.7519 0.732 0.7671
2536.638 0.82585 0.83543 0.88571 0.8931 0.81349 0.797782 0.800468 0.79782 0.7666 0.79073
2555.928 0.7745 0.7265 0.7035 0.688 0.715 0.665 0.631 0.626 0.619 0.623
2575.218 0.586 0.541 0.541 0.521 0.548 0.558 0.538 0.587 0.585 0.554
2594.508 0.513 0.491 0.532 0.526 0.515 0.493 0.444 0.44 0.434 0.462
2613.798 0.497 0.457 0.443 0.476 0.47 0.411 0.416 0.506 0.519 0.508
2633.088 0.503 0.522 0.486 0.477 0.498 0.481 0.471 0.399 0.363 0.332
2652.378 0.317 0.382 0.37 0.365 0.344 0.35 0.387 0.371 0.432 0.444
2671.668 0.385 0.326 0.355 0.438 0.457 0.472 0.433 0.345 0.366 0.445
2690.958 0.474 0.456 0.456 0.457 0.407 0.388 0.501 0.464 0.393 0.505
2710.248 0.533 0.459 0.375 0.388 0.476 0.488 0.567 0.597 0.52 0.542
2729.538 0.541 0.485 0.508 0.527 0.536 0.505 0.468 0.52 0.504 0.455
2748.828 0.481 0.488 0.48 0.432 0.432 0.499 0.407 0.332 0.34 0.373
2768.118 0.411 0.462 0.474 0.451 0.42 0.383 0.366 0.367 0.414 0.448
2787.408 0.403 0.343 0.347 0.319 0.3 0.379 0.43 0.405 0.328 0.265
2806.698 0.292 0.299 0.338 0.392 0.41 0.429 0.375 0.299 0.33 0.353
2825.988 0.261 0.268 0.276 0.309 0.39 0.341 0.245 0.188 0.195 0.235
2845.278 0.249 0.234 0.236 0.242 0.274 0.296 0.285 0.309 0.306 0.289
2864.568 0.354 0.341 0.281 0.331 0.346 0.305 0.345 0.364 0.32 0.227
2883.858 0.259 0.353 0.392 0.42 0.38 0.344 0.361 0.304 0.248 0.277
2903.148 0.297 0.306 0.356 0.37 0.301 0.345 0.372 0.374 0.473 0.477
2922.438 0.421 0.426 0.49 0.483 0.379 0.306 0.313 0.3 0.253 0.292
2941.728 0.271 0.203 0.176 0.201 0.185 0.186 0.228 0.172 0.181 0.211
2961.018 0.149 0.123 0.091 0.115 0.176 0.177 0.133 0.152 0.208 0.216
2980.308 0.193 0.152 0.22 0.212 0.181 0.214 0.165 0.156 0.204 0.196
2999.598 0.144 0.199 0.258 0.24 0.174 0.221 0.294 0.243 0.279 0.316
3018.888 0.287 0.361 0.506 0.551 0.517 0.438 0.512 0.613 0.592 0.647
3038.178 0.665 0.648 0.669 0.634 0.617 0.661 0.603 0.554 0.577 0.585
3057.468 0.571 0.531 0.567 0.633 0.634 0.659 0.7173 0.69 0.657 0.766
3076.758 0.9626 1.1368 1.2863 1.484 1.6901 1.812 1.942 2.082 2.202 2.212
3096.048 2.002 1.882 1.852 1.73 1.4449 1.2098 1.0367 0.797065 0.67 0.644
3115.338 0.493 0.326 0.371 0.392 0.32 0.247 0.248 0.281 0.351 0.356
3134.628 0.365 0.315 0.176 0.219 0.317 0.299 0.164 0.162 0.131 0.112
3153.918 0.186 0.163 0.138 0.093 0.091 0.164 0.132 0.243 0.349 0.264
3173.208 0.228 0.273 0.318 0.288 0.257 0.284 0.274 0.32 0.359 0.319
3192.498 0.328 0.269 0.256 0.267 0.195 0.127 0.197 0.272 0.175 0.129
3211.788 0.248 0.25 0.226 0.273 0.349 0.371 0.343 0.294 0.21 0.229
3231.078 0.277 0.226 0.147 0.173 0.26 0.231 0.163 0.104 0.059 0.136
3250.368 0.179 0.231 0.211 0.125 0.081 0.059 0.156 0.223 0.202 0.184
3269.658 0.063 0.169 0.313 0.142 0.105 0.163 0.234 0.26 0.164 0.158
3288.948 0.165 0.168 0.103 0 0.111 0.264 0.185 0.211 0.23 0.191
3308.238 0.274 0.301 0.295 0.234 0.207 0.172 0.123 0.196 0.259 0.298
3327.528 0.357 0.255 0.201 0.293 0.215 0.086 0.136 0.198 0.265 0.345
3346.818 0.257 0.214 0.272 0.304 0.329 0.249 0.194 0.279 0.266 0.252
3366.108 0.293 0.299 0.23 0.236 0.272 0.213 0.258 0.342 0.35 0.233
3385.398 0.187 0.299 0.289 0.192 0.217 0.246 0.293 0.307 0.218 0.183
3404.688 0.269 0.345 0.413 0.318 0.305 0.428 0.347 0.331 0.334 0.334
3423.978 0.367 0.335 0.342 0.363 0.353 0.295 0.263 0.238 0.243 0.327
3443.269 0.339 0.293 0.261 0.262 0.261 0.236 0.253 0.351 0.381 0.318
3462.559 0.269 0.194 0.206 0.357 0.411 0.359 0.308 0.274 0.353 0.405
3481.849 0.359 0.389 0.285 0.247 0.377 0.302 0.302 0.366 0.326 0.447
3501.139 0.441 0.23 0.193 0.275 0.256 0.308 0.289 0.247 0.279 0.281
3520.429 0.288 0.29 0.267 0.175 0.23 0.324 0.373 0.43 0.352 0.37
3539.719 0.357 0.254 0.29 0.3 0.278 0.289 0.299 0.476 0.567 0.431
3559.009 0.349 0.293 0.385 0.431 0.376 0.298 0.296 0.282 0.324 0.42
3578.299 0.292 0.222 0.288 0.317 0.279 0.291 0.326 0.231 0.297 0.432
3597.589 0.308 0.285 0.363 0.342 0.294 0.363 0.391 0.238 0.184 0.283
3616.879 0.295 0.292 0.387 0.4 0.434 0.397 0.326 0.332 0.263 0.257
3636.169 0.323 0.319 0.311 0.259 0.277 0.351 0.343 0.428 0.456 0.443
3655.459 0.511 0.488 0.443 0.408 0.316 0.326 0.348 0.31 0.35 0.349
3674.749 0.307 0.327 0.363 0.364 0.363 0.303 0.154 0.219 0.379 0.38
3694.039 0.355 0.405 0.436 0.387 0.349 0.238 0.23 0.302 0.34 0.339
3713.329 0.324 0.341 0.464 0.507 0.291 0.287 0.364 0.332 0.413 0.407
3732.619 0.415 0.408 0.345 0.389 0.358 0.285 0.232 0.295 0.325 0.369
3751.909 0.363 0.197 0.176 0.27 0.362 0.344 0.348 0.377 0.276 0.269
3771.199 0.368 0.377 0.388 0.433 0.365 0.272 0.362 0.375 0.361 0.357
3790.489 0.325 0.419 0.423 0.342 0.265 0.275 0.306 0.376 0.394 0.318
3809.779 0.397 0.339 0.284 0.408 0.407 0.399 0.389 0.324 0.294 0.323
3829.069 0.402 0.436 0.366 0.318 0.372 0.481 0.401 0.382 0.447 0.359
3848.359 0.318 0.282 0.294 0.253 0.281 0.416 0.385 0.277 0.194 0.209
3867.649 0.237 0.354 0.464 0.425 0.417 0.388 0.34 0.424 0.447 0.421
3886.939 0.336 0.298 0.29 0.184 0.184 0.256 0.301 0.291 0.311 0.308
3906.229 0.355 0.453 0.488 0.459 0.379 0.455 0.521 0.515 0.577 0.593
3925.519 0.522 0.418 0.427 0.47 0.497 0.411 0.336 0.386 0.434 0.451
3944.809 0.41 0.279 0.224 0.171 0.11 0.148 0.163 0.216 0.267 0.231
3964.099 0.216 0.33 0.42 0.316 0.282 0.396 0.401 0.271 0.217 0.299
3983.389 0.364 0.343 0.232 0.215 0.238 0.299 0.322 0.229 0.221 0.333
##END=
