##TITLE=3'-Iodoacetophenone
##JCAMP-DX=4.24
##DATA TYPE=INFRARED SPECTRUM
##ORIGIN=EPA-IR VAPOR PHASE LIBRARY
##OWNER=SRD/NIST
Collection (C) 2018 copyright by the U.S. Secretary of Commerce
on behalf of the United States of America. All rights reserved.
##CAS REGISTRY NO=14452-30-3
##MOLFORM=C 8 H 7 I O
##$NIST SOURCE=MSDC-IR
##STATE=gas
##XUNITS=1/CM
##YUNITS=ABSORBANCE
##XFACTOR=1.
##YFACTOR=0.001
##DELTAX=1.92898
##FIRSTX=549.8
##LASTX=4000.7
##FIRSTY=1.0086
##MAXX=4000.7
##MINX=549.759
##MAXY=0.114746
##MINY=0
##NPOINTS=1790
##XYDATA=(X++(Y..Y))
549.759 1.0086 1.3043 1.0909 0.6579 1.0125 1.2266 1.2429 1.3845 1.3998 1.816
569.049 2.496 2.666 3.136 4.466 6.296 8.486 10.846 13.136 15.266 17.066
588.339 18.416 18.506 16.856 14.896 13.246 11.416 9.426 7.246 5.336 4.386
607.628 3.696 2.816 2.216 1.996 1.636 1.3132 1.3342 1.3056 1.1249 1.2139
626.918 1.4062 1.4556 1.786 2.086 2.306 2.586 3.156 4.006 5.366 7.546
646.208 10.726 13.246 14.086 13.896 13.476 13.006 10.786 7.426 4.896 3.836
665.498 3.706 4.126 4.886 5.806 7.026 8.356 9.836 11.056 12.346 13.486
684.787 13.466 12.626 11.586 10.306 8.886 7.736 6.706 5.546 4.356 3.486
704.077 3.006 2.536 2.106 1.636 1.496 1.606 1.4572 1.4847 1.3888 1.2301
723.367 1.223 1.2191 1.2959 1.3615 1.1659 1.1676 1.4002 1.3752 1.506 1.876
742.657 2.206 2.626 3.386 4.116 5.046 6.176 7.546 8.966 9.776 10.376
761.947 10.946 11.296 11.186 11.226 11.826 12.616 13.646 15.316 17.026 17.376
781.236 16.786 16.576 16.606 16.296 15.126 12.936 10.486 8.596 7.176 5.666
800.526 4.396 3.496 2.596 1.986 1.606 1.2275 0.9415 0.857 0.9361 0.9546
819.816 0.8921 0.996 1.066 0.9649 0.8305 0.7496 0.7765 0.8744 1.1571 1.0914
839.106 0.7902 0.9214 0.9716 0.8985 1.0537 1.088 0.8948 0.8571 0.9455 0.8735
858.395 0.8293 1.0404 1.0808 1.2741 1.556 1.586 1.616 1.746 2.146 2.376
877.685 2.676 2.936 2.876 2.736 2.506 2.336 2.266 2.266 2.216 2.276
896.975 2.336 2.426 2.476 2.506 2.596 2.506 2.546 2.556 2.466 2.416
916.265 2.186 2.026 1.856 1.846 1.976 1.856 1.746 1.896 2.296 2.596
935.555 2.956 3.326 3.806 4.556 5.186 5.776 6.376 6.926 7.506 7.936
954.844 8.256 8.026 7.436 6.826 6.096 5.386 4.586 3.756 3.216 2.876
974.134 2.586 2.526 2.396 2.336 2.526 2.826 3.426 4.306 5.526 6.686
993.424 7.206 7.426 7.586 7.306 6.296 5.146 4.256 3.566 3.026 2.546
1012.714 2.486 2.416 2.376 2.446 2.306 2.406 2.276 2.076 2.496 2.776
1032.003 2.596 2.366 2.226 2.396 2.866 3.446 4.026 4.836 5.746 6.496
1051.293 7.436 8.816 9.616 9.696 9.976 10.026 9.516 8.396 7.336 6.096
1070.583 4.756 4.436 4.476 4.486 4.436 4.296 4.096 3.846 3.996 3.986
1089.873 3.466 2.986 2.966 2.936 2.296 2.076 2.466 2.406 2.516 2.556
1109.163 2.286 2.716 2.766 2.316 2.176 2.176 2.396 2.626 2.396 2.066
1128.452 2.076 2.236 2.296 2.006 2.016 1.976 1.856 1.956 1.956 1.896
1147.742 1.966 2.026 1.556 1.3839 1.876 2.106 2.196 2.536 3.136 3.696
1167.032 4.436 4.926 4.876 4.806 4.776 4.526 4.226 3.956 3.376 3.636
1186.322 3.826 3.566 3.876 3.916 3.986 4.426 4.556 4.946 5.216 5.256
1205.611 5.726 6.456 7.576 8.686 9.976 11.456 12.996 14.756 16.926 19.496
1224.901 22.796 27.086 31.706 37.046 44.376 53.406 63.916 76.486 89.776 101.956
1244.191 110.976 114.746 112.806 105.416 93.346 77.676 60.276 45.316 35.486 29.996
1263.481 27.476 26.646 26.666 26.506 25.926 24.926 22.786 19.946 16.646 13.586
1282.771 10.836 8.326 6.586 5.776 5.306 4.856 4.556 4.186 3.946 3.676
1302.060 3.336 3.026 2.826 2.676 2.606 2.596 2.556 2.666 2.746 2.726
1321.350 2.756 2.876 2.936 2.996 3.076 3.236 3.506 3.836 4.236 4.756
1340.640 5.386 6.116 7.046 8.276 9.756 11.556 13.856 16.466 18.986 21.006
1359.930 22.246 22.676 22.256 20.966 18.976 16.596 14.196 11.946 9.996 8.516
1379.219 7.456 6.696 6.286 6.216 6.356 6.736 7.316 8.166 9.256 10.516
1398.509 11.986 13.496 15.106 16.776 18.416 19.976 20.986 21.026 20.206 18.736
1417.799 16.776 14.366 11.616 9.246 7.696 6.836 6.336 6.026 5.776 5.536
1437.089 5.296 5.046 4.886 4.696 4.446 4.256 4.136 4.066 4.016 4.116
1456.378 4.296 4.616 5.076 5.636 6.126 6.296 6.286 6.176 5.796 5.166
1475.668 4.516 3.906 3.346 2.936 2.626 2.286 2.056 1.966 1.946 1.866
1494.958 1.746 1.736 1.786 1.856 1.906 1.976 2.036 2.106 2.226 2.346
1514.248 2.426 2.476 2.586 2.676 2.686 2.766 2.886 3.036 3.206 3.376
1533.538 3.646 4.026 4.436 5.066 5.836 6.656 7.796 9.166 10.706 12.636
1552.827 14.806 17.206 19.526 21.336 22.486 22.846 22.266 20.746 18.496 15.806
1572.117 13.026 10.546 8.526 7.116 6.186 5.466 4.966 4.576 4.266 3.786
1591.407 3.406 3.296 3.026 2.686 2.506 2.376 2.206 2.026 2.026 2.006
1610.697 1.886 1.896 1.886 1.906 1.856 1.736 1.776 1.796 1.766 1.816
1629.986 1.926 2.006 1.966 1.916 1.916 1.896 1.896 1.996 2.146 2.226
1649.276 2.376 2.646 2.846 3.116 3.486 3.896 4.526 5.266 5.856 6.396
1668.566 7.006 7.556 7.916 8.056 8.176 8.476 8.936 9.666 10.706 12.076
1687.856 13.986 16.646 20.356 25.416 32.396 41.596 52.686 65.206 76.556 84.856
1707.146 88.846 88.946 85.026 76.216 63.046 48.696 36.246 26.976 20.346 15.666
1726.435 12.486 10.346 9.006 8.176 7.736 7.616 7.556 7.626 7.786 7.916
1745.725 7.976 7.776 7.426 7.016 6.406 5.696 4.966 4.276 3.726 3.236
1765.015 2.726 2.346 2.186 1.976 1.746 1.666 1.526 1.4325 1.3803 1.2552
1784.305 1.26 1.3046 1.2806 1.3202 1.3633 1.3231 1.3154 1.312 1.329 1.3337
1803.594 1.3667 1.4336 1.4893 1.4532 1.4227 1.4198 1.4402 1.546 1.656 1.666
1822.884 1.576 1.576 1.616 1.616 1.596 1.546 1.4775 1.3705 1.3821 1.3904
1842.174 1.3203 1.247 1.1571 1.0927 1.0041 1.0066 0.9597 1.0315 1.1133 1.0348
1861.464 1.0695 1.1394 1.2167 1.2812 1.3088 1.3313 1.3201 1.2905 1.2875 1.2777
1880.754 1.2898 1.2621 1.2299 1.1867 1.2029 1.2345 1.1974 1.2587 1.3477 1.2945
1900.043 1.1466 1.0592 1.0319 0.9691 0.8988 0.8208 0.7462 0.7122 0.7009 0.6788
1919.333 0.674 0.7555 0.8402 0.9293 0.9871 1.0029 1 1.0115 1.1052 1.1764
1938.623 1.1627 1.1275 1.1067 1.1337 1.1393 1.0598 1.0004 0.9527 0.963 0.9913
1957.913 0.9478 0.8864 0.8123 0.8241 0.7671 0.6442 0.6128 0.6216 0.6204 0.59008
1977.202 0.57285 0.57562 0.6227 0.6549 0.6592 0.6338 0.6629 0.7087 0.7037 0.7313
1996.492 0.6793 0.6817 0.7245 0.7219 0.7295 0.7239 0.7314 0.7358 0.6463 0.6396
2015.782 0.7495 0.7404 0.6698 0.6281 0.56857 0.51483 0.58947 0.6327 0.55346 0.48892
2035.072 0.48789 0.6068 0.6819 0.6454 0.59018 0.4638 0.4664 0.53437 0.5367 0.51031
2054.362 0.4299 0.379 0.4317 0.4759 0.4038 0.392 0.4497 0.4123 0.4223 0.455
2073.651 0.373 0.359 0.4173 0.4019 0.358 0.311 0.325 0.369 0.386 0.4433
2092.941 0.428 0.371 0.328 0.305 0.346 0.33 0.312 0.39 0.4444 0.4539
2112.231 0.4627 0.4826 0.4756 0.438 0.4555 0.4403 0.4233 0.4654 0.4105 0.4035
2131.521 0.4393 0.4595 0.4861 0.4782 0.50534 0.4659 0.377 0.348 0.4013 0.4406
2150.810 0.4019 0.387 0.442 0.50717 0.4516 0.4401 0.4844 0.4016 0.375 0.4561
2170.100 0.4769 0.4471 0.4113 0.356 0.335 0.377 0.4373 0.498904 0.4523 0.371
2189.390 0.4288 0.4305 0.386 0.388 0.39 0.4614 0.501901 0.4522 0.378 0.394
2208.680 0.4047 0.368 0.35 0.313 0.32 0.355 0.39 0.391 0.476 0.57743
2227.970 0.50618 0.4201 0.384 0.394 0.409 0.4105 0.4731 0.4402 0.4045 0.4524
2247.259 0.444 0.4177 0.4076 0.393 0.4296 0.4412 0.4174 0.4342 0.4292 0.4398
2266.549 0.4413 0.394 0.393 0.4297 0.4557 0.4279 0.371 0.391 0.4218 0.4335
2285.839 0.4352 0.4385 0.4452 0.53386 0.58602 0.53719 0.53681 0.51277 0.50983 0.54577
2305.129 0.55656 0.51209 0.4824 0.4754 0.54991 0.6733 0.7124 0.638 0.55363 0.55623
2324.418 0.56 0.58976 0.6321 0.56816 0.54595 0.56234 0.58109 0.58824 0.6024 0.6541
2343.708 0.6657 0.6635 0.6494 0.659 0.6257 0.6047 0.6189 0.6003 0.52842 0.54831
2362.998 0.6285 0.5501 0.499475 0.58944 0.56541 0.56091 0.58324 0.51347 0.52423 0.54239
2382.288 0.53557 0.52282 0.48912 0.4365 0.4195 0.4771 0.4676 0.4272 0.4001 0.425
2401.578 0.4376 0.4428 0.4234 0.301 0.384 0.51582 0.51157 0.462 0.4224 0.4103
2420.867 0.42 0.39 0.435 0.4756 0.4386 0.4713 0.4647 0.4151 0.37 0.4294
2440.157 0.4614 0.4631 0.4655 0.378 0.4265 0.4614 0.38 0.358 0.374 0.377
2459.447 0.3983 0.4536 0.385 0.4009 0.49277 0.49266 0.4673 0.4185 0.477 0.56033
2478.737 0.57321 0.54081 0.55428 0.57844 0.54084 0.501758 0.465 0.49398 0.59058 0.57763
2498.026 0.4475 0.48615 0.51521 0.53524 0.55675 0.52107 0.55445 0.52589 0.5173 0.6355
2517.316 0.7731 0.6902 0.53525 0.56536 0.5365 0.48714 0.55771 0.51183 0.4725 0.53177
2536.606 0.57085 0.58927 0.52726 0.505514 0.498537 0.4073 0.378 0.4222 0.4414 0.4455
2555.896 0.38 0.299 0.3975 0.502487 0.4744 0.4151 0.4161 0.48923 0.5566 0.53828
2575.186 0.48821 0.52868 0.6165 0.54673 0.4609 0.51779 0.55624 0.54733 0.51489 0.4185
2594.475 0.3988 0.4499 0.4572 0.5446 0.57229 0.4541 0.4265 0.48692 0.51675 0.53415
2613.765 0.53404 0.4699 0.4522 0.4723 0.4169 0.4083 0.3987 0.4042 0.4484 0.499003
2633.055 0.55201 0.55972 0.5006 0.4628 0.4509 0.4585 0.51805 0.59472 0.6777 0.6375
2652.345 0.51097 0.51057 0.54843 0.4746 0.455 0.4568 0.51412 0.5999 0.50634 0.381
2671.634 0.343 0.326 0.377 0.361 0.404 0.4624 0.4412 0.4635 0.4468 0.4398
2690.924 0.37 0.338 0.344 0.353 0.4091 0.48784 0.501179 0.4741 0.4494 0.387
2710.214 0.322 0.357 0.354 0.276 0.308 0.4028 0.4846 0.417 0.342 0.4376
2729.504 0.4316 0.35 0.262 0.179 0.241 0.373 0.427 0.275 0.217 0.369
2748.794 0.4285 0.394 0.368 0.373 0.326 0.254 0.343 0.4075 0.3984 0.36
2768.083 0.4192 0.57083 0.54753 0.4106 0.358 0.385 0.332 0.313 0.4508 0.51174
2787.373 0.55757 0.53865 0.311 0.322 0.4337 0.4369 0.4606 0.51503 0.56356 0.57583
2806.663 0.7277 0.7005 0.6079 0.6126 0.52127 0.6015 0.7308 0.6436 0.6926 0.8549
2825.953 0.7534 0.6125 0.6837 0.8029 0.7315 0.6758 0.7211 0.7351 0.8025 0.8639
2845.242 0.8055 0.7641 0.7665 0.7878 0.7682 0.7876 0.8151 0.8073 0.7263 0.6043
2864.532 0.7419 0.8108 0.7787 0.7038 0.6159 0.6437 0.5931 0.55345 0.4851 0.4165
2883.822 0.6003 0.7369 0.7843 0.8099 0.7384 0.7417 0.7302 0.57684 0.53018 0.6378
2903.112 0.7138 0.7839 0.7393 0.7674 0.7861 0.7596 0.8631 0.8965 0.9895 1.1116
2922.401 1.1972 1.4141 1.516 1.606 1.766 1.776 1.796 1.866 1.896 1.866
2941.691 1.756 1.636 1.556 1.536 1.429 1.516 1.606 1.4726 1.4208 1.3327
2960.981 1.4163 1.576 1.776 1.956 2.056 2.066 2.156 2.226 2.096 2.146
2980.271 2.346 2.346 2.136 1.906 1.866 1.876 1.936 2.096 2.106 2.146
2999.561 2.316 2.506 2.716 3.036 3.466 3.726 3.916 4.246 4.356 4.236
3018.850 4.076 3.846 3.636 3.266 2.796 2.526 2.276 2.156 2.016 1.866
3038.140 1.816 1.776 1.826 1.796 1.856 2.076 2.276 2.516 2.896 3.356
3057.430 3.746 4.396 5.056 5.546 6.296 6.786 7.026 7.276 7.236 7.166
3076.720 7.156 6.986 6.626 6.136 5.496 4.926 4.546 4.126 3.686 3.286
3096.009 2.936 2.646 2.316 1.996 1.826 1.506 1.3832 1.437 1.3207 1.2257
3115.299 1.1555 1.2697 1.2533 1.0935 1.1412 1.1703 1.0699 1.009 1.0047 0.9785
3134.589 0.8721 0.8512 0.9515 0.9556 0.9067 0.8089 0.7115 0.7649 0.7655 0.7612
3153.879 0.6403 0.57253 0.6055 0.498153 0.4298 0.4289 0.4825 0.4284 0.28 0.275
3173.169 0.372 0.50718 0.7337 0.6232 0.4767 0.4191 0.352 0.4264 0.4326 0.54631
3192.458 0.6135 0.5302 0.54929 0.52668 0.4081 0.4676 0.497121 0.4075 0.33 0.364
3211.748 0.4073 0.4008 0.4036 0.313 0.4574 0.57859 0.53934 0.57353 0.6373 0.58505
3231.038 0.377 0.274 0.343 0.383 0.4112 0.4398 0.344 0.253 0.206 0.297
3250.328 0.309 0.259 0.233 0.22 0.244 0.189 0.156 0.168 0.337 0.4413
3269.617 0.3988 0.293 0.173 0.189 0.255 0.29 0.216 0.193 0.263 0.336
3288.907 0.3977 0.4315 0.355 0.348 0.4328 0.287 0.227 0.257 0.361 0.5109
3308.197 0.351 0.188 0.268 0.326 0.173 0.143 0.089 0.138 0.262 0.184
3327.487 0.151 0.238 0.4487 0.425 0.379 0.4568 0.4175 0.4234 0.4094 0.323
3346.777 0.267 0.4454 0.4522 0.388 0.52534 0.52762 0.6317 0.59408 0.6206 0.6584
3366.066 0.6183 0.763 0.8344 0.7126 0.6588 0.7147 0.7187 0.8642 1.0091 1.0786
3385.356 1.2234 1.3396 1.4121 1.606 1.816 1.946 2.086 2.086 1.876 1.666
3404.646 1.4637 1.3791 1.3983 1.1734 0.9385 0.7331 0.52733 0.459 0.414 0.4674
3423.936 0.4307 0.355 0.5111 0.509 0.3998 0.51225 0.6975 0.8479 0.6771 0.52435
3443.225 0.392 0.249 0.291 0.332 0.4171 0.28 0.082 0.129 0.112 0.072
3462.515 0.224 0.374 0.4507 0.361 0.282 0.343 0.266 0.291 0.383 0.339
3481.805 0.500577 0.58901 0.4616 0.316 0.088 0.107 0.241 0.221 0.251 0.346
3501.095 0.283 0.266 0.292 0.222 0.148 0.073 0.108 0.228 0.357 0.237
3520.385 0.187 0.295 0.204 0.207 0.252 0.187 0.212 0.228 0.135 0.157
3539.674 0.254 0.28 0.25 0.355 0.262 0.231 0.313 0.183 0.157 0.275
3558.964 0.336 0.312 0.362 0.298 0.254 0.252 0.248 0.256 0.235 0.116
3578.254 0.107 0.209 0.324 0.371 0.376 0.51068 0.401 0.312 0.4858 0.57999
3597.544 0.4053 0.191 0.265 0.308 0.29 0.393 0.4668 0.4206 0.376 0.366
3616.833 0.377 0.396 0.265 0.299 0.387 0.374 0.334 0.262 0.207 0.194
3636.123 0.327 0.4076 0.29 0.174 0.203 0.238 0.33 0.19 0.102 0.132
3655.413 0.107 0.326 0.4275 0.236 0.13 0.122 0.183 0.4235 0.57529 0.4339
3674.703 0.238 0.102 0.277 0.4092 0.229 0.148 0.107 0.192 0.387 0.4249
3693.993 0.251 0.225 0.288 0.146 0.025 0.157 0.382 0.33 0.26 0.4697
3713.282 0.4334 0.33 0.4267 0.367 0.234 0.327 0.334 0.218 0.315 0.51477
3732.572 0.50845 0.383 0.51239 0.53086 0.368 0.374 0.4675 0.4845 0.4049 0.317
3751.862 0.371 0.4054 0.178 0.043 0.192 0.4057 0.312 0.142 0.155 0.229
3771.152 0.355 0.306 0.164 0.047 0.14 0.302 0.239 0.228 0.295 0.373
3790.441 0.385 0.281 0.311 0.392 0.331 0.142 0.172 0.374 0.49207 0.392
3809.731 0.375 0.6099 0.6246 0.501682 0.4628 0.4768 0.54961 0.7283 0.6062 0.402
3829.021 0.4557 0.53535 0.51102 0.385 0.309 0.294 0.336 0.349 0.358 0.415
3848.311 0.4786 0.4503 0.4615 0.51722 0.4076 0.159 0.132 0.195 0.104 0.283
3867.601 0.4395 0.304 0.234 0.194 0.082 0.212 0.303 0.185 0.119 0.077
3886.890 0.114 0.328 0.296 0.089 0.26 0.383 0.362 0.256 0.252 0.375
3906.180 0.288 0.252 0.285 0.383 0.5134 0.4014 0.311 0.299 0.382 0.4005
3925.470 0.323 0.351 0.306 0.248 0.088 0.151 0.258 0.356 0.4356 0.283
3944.760 0.308 0.368 0.271 0.22 0.343 0.469 0.4822 0.278 0.186 0.234
3964.049 0.252 0.395 0.52544 0.6234 0.6118 0.4626 0.276 0.251 0.205 0.205
3983.339 0.295 0.146 0.114 0.013 0 0.31 0.48716 0.4162 0.25 0.326
##END=
