##TITLE=4-Methoxytrityl chloride
##JCAMP-DX=4.24
##DATA TYPE=INFRARED SPECTRUM
##ORIGIN=EPA-IR VAPOR PHASE LIBRARY
##OWNER=SRD/NIST
Collection (C) 2018 copyright by the U.S. Secretary of Commerce
on behalf of the United States of America. All rights reserved.
##CAS REGISTRY NO=14470-28-1
##MOLFORM=C 20 H 17 Cl O
##$NIST SOURCE=MSDC-IR
##STATE=gas
##XUNITS=1/CM
##YUNITS=ABSORBANCE
##XFACTOR=1.
##YFACTOR=0.001
##DELTAX=1.92934
##FIRSTX=549.9
##LASTX=3999.5
##FIRSTY=1.2052
##MAXX=3999.53
##MINX=549.863
##MAXY=0.019678
##MINY=0
##NPOINTS=1789
##XYDATA=(X++(Y..Y))
549.863 1.2052 1.1514 1.2449 1.4221 1.598 1.858 2.078 2.348 2.788 3.208
569.156 3.468 3.438 3.158 2.908 2.538 2.108 1.798 1.628 1.588 1.4404
588.450 1.2097 1.1657 1.3557 1.4226 1.628 2.198 2.788 3.108 3.208 3.198
607.743 2.858 2.248 1.798 1.598 1.558 1.4728 1.3599 1.3385 1.339 1.2331
627.037 1.1018 1.2043 1.2794 1.2172 1.1772 1.122 1.0392 0.9391 0.907 0.9353
646.330 1.0391 1.0889 0.9948 1.0909 1.1504 1.0886 1.1013 1.1762 1.2838 1.3391
665.624 1.4258 1.568 1.698 1.738 1.798 1.888 1.918 1.998 2.108 2.258
684.917 2.518 2.928 3.668 4.808 6.238 7.668 8.778 9.288 9.008 8.208
704.210 7.178 6.188 5.498 4.958 4.558 4.178 3.798 3.488 3.128 2.858
723.504 2.758 2.778 2.888 2.988 3.098 3.278 3.448 3.448 3.418 3.448
742.797 3.398 3.338 3.248 2.948 2.518 2.128 1.818 1.648 1.548 1.4315
762.091 1.3505 1.3292 1.3764 1.4299 1.4834 1.618 1.898 2.218 2.538 2.808
781.384 2.958 3.068 2.998 2.758 2.528 2.298 2.168 2.168 2.238 2.338
800.678 2.398 2.388 2.348 2.338 2.298 2.228 2.118 2.038 1.958 1.948
819.971 1.988 2.028 2.148 2.298 2.498 2.668 2.768 2.848 2.758 2.538
839.264 2.308 2.018 1.718 1.548 1.4606 1.3866 1.3454 1.2983 1.3003 1.3461
858.558 1.3791 1.4652 1.568 1.578 1.508 1.4196 1.2989 1.1618 1.0473 0.9733
877.851 0.8808 0.8332 0.8068 0.7623 0.7792 0.7478 0.7046 0.7262 0.7334 0.7682
897.145 0.7726 0.7142 0.706 0.7214 0.7523 0.7993 0.7928 0.7431 0.7646 0.8308
916.438 0.8344 0.7951 0.7703 0.7135 0.666 0.656 0.6634 0.6491 0.6578 0.6528
935.732 0.6534 0.6953 0.7042 0.6504 0.6015 0.6456 0.6539 0.6491 0.6635 0.6814
955.025 0.6851 0.6934 0.7195 0.7258 0.7661 0.799 0.7719 0.7689 0.7919 0.7869
974.318 0.8264 0.873 0.8579 0.815 0.7995 0.8522 0.8765 0.8869 0.9124 0.9497
993.612 1.034 1.0754 1.1495 1.2952 1.3598 1.4541 1.588 1.638 1.698 1.808
1012.905 1.888 1.958 2.068 2.248 2.518 2.888 3.408 4.058 4.768 5.378
1032.199 5.758 5.978 6.078 5.988 5.808 5.568 5.288 4.888 4.428 3.938
1051.492 3.388 2.948 2.538 2.218 1.998 1.848 1.798 1.758 1.748 1.748
1070.786 1.768 1.768 1.738 1.718 1.578 1.3906 1.2748 1.171 1.1187 1.103
1090.079 1.0599 1.0541 1.0441 1.0671 1.1382 1.1653 1.259 1.3505 1.4488 1.548
1109.372 1.528 1.508 1.4811 1.3645 1.2409 1.1848 1.1387 1.041 0.97 0.9627
1128.666 0.9514 0.9498 0.9308 0.9704 0.991 0.9726 1.0357 1.0582 1.0708 1.1257
1147.959 1.2078 1.3051 1.3704 1.508 1.678 1.868 2.128 2.398 2.718 3.198
1167.253 3.968 5.038 6.278 7.548 8.478 8.728 8.328 7.348 6.058 4.948
1186.546 4.058 3.388 2.948 2.628 2.358 2.108 1.988 1.998 1.988 1.978
1205.840 1.998 2.058 2.188 2.338 2.478 2.638 2.928 3.258 3.588 3.958
1225.133 4.418 4.988 5.708 6.548 7.478 8.618 9.948 11.458 13.158 14.878
1244.426 16.498 17.808 18.518 18.508 17.818 16.558 14.878 13.098 11.358 9.788
1263.720 8.568 7.558 6.688 6.028 5.568 5.208 4.928 4.678 4.508 4.388
1283.013 4.298 4.238 4.248 4.308 4.348 4.418 4.438 4.358 4.238 3.938
1302.307 3.588 3.278 2.948 2.658 2.398 2.178 2.008 1.888 1.818 1.768
1321.600 1.718 1.658 1.628 1.608 1.608 1.558 1.528 1.528 1.4662 1.399
1340.894 1.3432 1.3225 1.3284 1.2743 1.1868 1.1496 1.1434 1.1098 1.0859 1.1034
1360.187 1.0707 1.0008 0.9721 1.0063 1.0402 1.0369 1.019 0.9747 0.9392 0.9776
1379.480 0.9704 0.9227 0.936 0.8896 0.8539 0.8869 0.9349 0.9733 0.9798 0.9865
1398.774 0.9623 0.964 1.0295 1.0409 1.0623 1.1305 1.1526 1.1749 1.1832 1.1986
1418.067 1.2448 1.2889 1.3428 1.3588 1.4494 1.568 1.608 1.678 1.848 2.098
1437.361 2.378 2.668 3.038 3.458 3.808 4.038 4.118 4.008 3.788 3.588
1456.654 3.328 3.138 3.098 3.158 3.348 3.488 3.598 3.648 3.548 3.448
1475.948 3.328 3.248 3.328 3.558 3.898 4.408 5.108 6.008 6.998 7.838
1495.241 8.498 9.138 9.888 10.938 12.618 14.898 17.478 19.328 19.678 18.338
1514.534 15.598 12.098 8.738 6.178 4.468 3.518 2.938 2.558 2.298 2.098
1533.828 1.938 1.818 1.728 1.638 1.578 1.548 1.518 1.538 1.538 1.4516
1553.121 1.4046 1.3946 1.3318 1.3284 1.4278 1.475 1.528 1.608 1.678 1.808
1572.415 2.008 2.198 2.348 2.548 2.698 2.818 3.018 3.198 3.338 3.558
1591.708 3.878 4.208 4.538 4.848 5.088 5.198 5.188 5.188 5.178 5.108
1611.002 4.938 4.678 4.328 3.818 3.328 2.938 2.518 2.118 1.798 1.588
1630.295 1.4464 1.3199 1.2171 1.2124 1.1774 1.1124 1.0713 1.0231 1.0433 1.0459
1649.588 1.0168 0.9499 0.9295 0.9517 0.9281 0.931 0.9181 0.8424 0.8169 0.8327
1668.882 0.7729 0.7499 0.7672 0.7537 0.75 0.7298 0.7337 0.7481 0.7305 0.7117
1688.175 0.7165 0.7252 0.7277 0.7083 0.6885 0.6806 0.6642 0.6856 0.6808 0.6696
1707.469 0.7113 0.7432 0.7147 0.6418 0.6243 0.6717 0.6801 0.6825 0.7279 0.7204
1726.762 0.7142 0.7323 0.7151 0.7114 0.6894 0.708 0.7617 0.7652 0.8196 0.8932
1746.056 0.8642 0.8542 0.8931 0.9028 0.9062 0.9606 0.9765 0.9335 0.8621 0.7969
1765.349 0.7642 0.7693 0.7919 0.7648 0.7652 0.8044 0.8216 0.8116 0.8049 0.8041
1784.642 0.7971 0.8123 0.8888 0.9218 0.9247 1.0246 1.1106 1.127 1.0973 1.0891
1803.936 1.0359 0.9295 0.8569 0.8197 0.8418 0.8197 0.7664 0.7294 0.73 0.7296
1823.229 0.7234 0.7185 0.7196 0.7145 0.6908 0.6925 0.6678 0.6885 0.6965 0.6629
1842.523 0.6427 0.6411 0.6705 0.6858 0.6859 0.7014 0.6753 0.6523 0.6691 0.6828
1861.816 0.763 0.7825 0.7507 0.7698 0.8307 0.8974 0.9232 0.9456 0.9699 1.0161
1881.110 1.0535 1.069 1.0435 1.0127 1.0271 1.0224 0.9708 0.8966 0.8076 0.7475
1900.403 0.7313 0.7479 0.7357 0.7176 0.7095 0.6594 0.6335 0.6539 0.6624 0.6229
1919.696 0.6321 0.6373 0.635 0.6734 0.7062 0.7425 0.775 0.8122 0.9008 0.9368
1938.990 0.9098 0.913 0.9178 0.9238 0.9623 0.9646 0.9342 0.9142 0.8872 0.8664
1958.283 0.8565 0.8445 0.7856 0.7194 0.6829 0.6568 0.6454 0.6133 0.57691 0.57833
1977.577 0.58894 0.58743 0.56218 0.52122 0.506327 0.52606 0.54424 0.56406 0.57381 0.54427
1996.870 0.51795 0.55219 0.54441 0.54457 0.5988 0.56735 0.52082 0.53908 0.56353 0.55384
2016.164 0.55891 0.57932 0.58753 0.6004 0.6073 0.6237 0.6604 0.6859 0.721 0.7427
2035.457 0.6983 0.6736 0.6536 0.6357 0.6293 0.6141 0.6183 0.6327 0.6895 0.6762
2054.750 0.6324 0.6464 0.6509 0.6547 0.6715 0.6783 0.6727 0.6674 0.633 0.6461
2074.044 0.6854 0.6989 0.6884 0.6447 0.637 0.6231 0.57238 0.55103 0.54993 0.52947
2093.337 0.500548 0.506605 0.48918 0.4305 0.4152 0.384 0.414 0.4647 0.4459 0.4589
2112.631 0.44 0.409 0.4053 0.395 0.385 0.4166 0.4256 0.4005 0.397 0.376
2131.924 0.376 0.382 0.364 0.348 0.342 0.357 0.38 0.389 0.337 0.334
2151.218 0.361 0.354 0.36 0.364 0.383 0.396 0.395 0.374 0.367 0.375
2170.511 0.372 0.355 0.348 0.337 0.336 0.364 0.386 0.38 0.366 0.352
2189.804 0.34 0.326 0.354 0.376 0.348 0.367 0.4081 0.395 0.386 0.385
2209.098 0.374 0.367 0.359 0.353 0.333 0.384 0.394 0.332 0.323 0.34
2228.391 0.327 0.341 0.36 0.347 0.33 0.306 0.308 0.308 0.314 0.351
2247.685 0.355 0.369 0.372 0.361 0.366 0.342 0.351 0.374 0.374 0.36
2266.978 0.352 0.373 0.387 0.358 0.37 0.4231 0.4362 0.4174 0.4081 0.3982
2286.272 0.4 0.394 0.4013 0.4326 0.4295 0.4085 0.4021 0.4034 0.3993 0.4228
2305.565 0.4265 0.375 0.355 0.4123 0.4077 0.393 0.3996 0.389 0.369 0.348
2324.858 0.312 0.288 0.302 0.3 0.301 0.318 0.362 0.35 0.357 0.372
2344.152 0.337 0.323 0.319 0.33 0.327 0.336 0.325 0.33 0.312 0.26
2363.445 0.322 0.363 0.331 0.309 0.334 0.361 0.356 0.33 0.356 0.388
2382.739 0.368 0.365 0.372 0.387 0.363 0.322 0.294 0.303 0.332 0.353
2402.032 0.393 0.38 0.305 0.316 0.391 0.387 0.351 0.307 0.307 0.34
2421.326 0.338 0.379 0.4001 0.379 0.379 0.356 0.343 0.331 0.333 0.351
2440.619 0.342 0.324 0.329 0.356 0.331 0.343 0.35 0.287 0.285 0.286
2459.912 0.302 0.324 0.342 0.344 0.338 0.361 0.396 0.3986 0.375 0.347
2479.206 0.308 0.338 0.351 0.321 0.342 0.357 0.328 0.364 0.38 0.345
2498.499 0.354 0.355 0.359 0.395 0.378 0.338 0.32 0.327 0.329 0.335
2517.793 0.347 0.32 0.355 0.365 0.364 0.363 0.332 0.338 0.34 0.344
2537.086 0.331 0.339 0.357 0.354 0.361 0.326 0.253 0.285 0.298 0.277
2556.380 0.344 0.334 0.262 0.24 0.206 0.239 0.282 0.254 0.31 0.31
2575.673 0.257 0.249 0.246 0.27 0.305 0.27 0.243 0.296 0.289 0.251
2594.966 0.221 0.225 0.221 0.189 0.231 0.194 0.173 0.231 0.235 0.24
2614.260 0.201 0.15 0.163 0.183 0.218 0.247 0.238 0.256 0.237 0.245
2633.553 0.258 0.167 0.099 0.122 0.164 0.211 0.218 0.193 0.173 0.178
2652.847 0.157 0.129 0.203 0.204 0.162 0.186 0.197 0.205 0.184 0.145
2672.140 0.165 0.179 0.15 0.194 0.169 0.055 0.078 0.11 0.13 0.153
2691.434 0.17 0.214 0.163 0.089 0.152 0.187 0.128 0.041 0.009 0.081
2710.727 0.146 0.112 0.107 0.104 0.12 0.149 0.166 0.179 0.179 0.181
2730.020 0.098 0.084 0.074 0.116 0.166 0.095 0.054 0.131 0.171 0.175
2749.314 0.183 0.139 0.116 0.166 0.192 0.202 0.236 0.158 0.067 0.082
2768.607 0.144 0.166 0.126 0.109 0.17 0.198 0.193 0.193 0.172 0.208
2787.901 0.226 0.157 0.156 0.189 0.234 0.272 0.303 0.332 0.312 0.309
2807.194 0.371 0.4027 0.4109 0.437 0.4424 0.4344 0.53298 0.7007 0.6612 0.6044
2826.488 0.6562 0.7432 0.8675 1.0028 1.1772 1.3757 1.648 1.968 2.248 2.348
2845.781 2.298 2.158 1.888 1.608 1.3422 1.1374 1.0474 1.0039 0.9337 0.8697
2865.074 0.8461 0.847 0.8859 0.8619 0.8592 0.9034 1.0337 1.1768 1.3264 1.548
2884.368 1.758 1.868 1.808 1.728 1.608 1.508 1.4637 1.3747 1.3254 1.3666
2903.661 1.427 1.4671 1.487 1.538 1.658 1.788 1.828 1.798 1.848 1.818
2922.955 1.708 1.598 1.628 1.758 1.768 1.838 1.968 2.148 2.358 2.548
2942.248 2.748 2.798 2.728 2.588 2.498 2.438 2.458 2.478 2.378 2.288
2961.542 2.178 2.018 1.908 1.778 1.628 1.548 1.3832 1.2867 1.3295 1.2978
2980.835 1.3334 1.3721 1.3771 1.4328 1.4979 1.608 1.758 1.958 2.238 2.508
3000.128 2.718 3.128 3.648 3.918 3.948 3.688 3.378 3.088 2.978 3.108
3019.422 3.368 3.728 4.138 4.718 5.308 5.818 5.978 5.928 5.628 5.018
3038.715 4.588 4.098 3.538 3.308 3.298 3.198 3.168 3.318 3.448 3.598
3058.009 4.008 4.628 5.378 6.228 7.148 7.738 7.818 7.448 6.778 5.928
3077.302 4.978 4.388 4.158 3.928 3.748 3.658 3.428 3.198 2.938 2.628
3096.596 2.478 2.298 2.058 1.878 1.768 1.578 1.3399 1.2247 1.2081 1.1059
3115.889 0.7785 0.6463 0.6338 0.54306 0.56085 0.6029 0.5136 0.38 0.352 0.276
3135.182 0.205 0.295 0.341 0.299 0.258 0.273 0.343 0.4045 0.39 0.29
3154.476 0.246 0.172 0.182 0.342 0.4126 0.375 0.276 0.203 0.178 0.185
3173.769 0.257 0.225 0.125 0.135 0.217 0.119 0.02 0.01 0.042 0.145
3193.063 0.21 0.259 0.264 0.233 0.215 0.199 0.187 0.214 0.24 0.152
3212.356 0.107 0.18 0.052 0.035 0.157 0.125 0.109 0.083 0 0.021
3231.650 0.092 0.037 0.01 0.096 0.09 0.165 0.224 0.241 0.186 0.025
3250.943 0.109 0.26 0.261 0.202 0.111 0.117 0.199 0.204 0.241 0.329
3270.236 0.263 0.039 0.098 0.199 0.128 0.058 0.135 0.302 0.268 0.246
3289.530 0.232 0.106 0.177 0.261 0.274 0.332 0.219 0.237 0.224 0.153
3308.823 0.219 0.178 0.152 0.307 0.398 0.264 0.183 0.226 0.284 0.4331
3328.117 0.51736 0.4298 0.3986 0.434 0.304 0.268 0.332 0.306 0.335 0.4295
3347.410 0.4687 0.348 0.22 0.206 0.26 0.31 0.316 0.348 0.349 0.239
3366.704 0.277 0.247 0.196 0.232 0.2 0.376 0.39 0.307 0.384 0.397
3385.997 0.497166 0.387 0.228 0.275 0.35 0.396 0.4715 0.51105 0.4267 0.374
3405.290 0.4531 0.4696 0.345 0.387 0.367 0.4771 0.56743 0.4657 0.37 0.265
3424.584 0.361 0.395 0.302 0.32 0.3992 0.364 0.318 0.34 0.4235 0.4636
3443.877 0.4257 0.367 0.4244 0.421 0.318 0.287 0.276 0.352 0.459 0.48994
3463.171 0.4413 0.367 0.355 0.374 0.4631 0.4399 0.313 0.4067 0.53053 0.4856
3482.464 0.377 0.354 0.28 0.293 0.4754 0.4404 0.353 0.337 0.273 0.246
3501.758 0.19 0.149 0.263 0.374 0.335 0.39 0.52375 0.53472 0.4544 0.306
3521.051 0.296 0.4524 0.56897 0.52468 0.436 0.4773 0.4835 0.4038 0.375 0.396
3540.344 0.363 0.50089 0.58625 0.51684 0.4349 0.433 0.56341 0.4374 0.353 0.371
3559.638 0.323 0.4008 0.4706 0.56925 0.6748 0.7534 0.6019 0.507454 0.49802 0.391
3578.931 0.38 0.4213 0.4305 0.305 0.255 0.3 0.4161 0.53435 0.54299 0.56197
3598.225 0.49015 0.4055 0.332 0.296 0.4262 0.53464 0.53631 0.4218 0.4761 0.58344
3617.518 0.4151 0.353 0.396 0.4238 0.4452 0.448 0.4834 0.4296 0.343 0.36
3636.812 0.327 0.274 0.367 0.4657 0.483 0.4741 0.318 0.226 0.354 0.437
3656.105 0.4879 0.504527 0.4667 0.366 0.359 0.4323 0.4122 0.334 0.355 0.337
3675.398 0.367 0.4742 0.4822 0.52345 0.4703 0.392 0.4251 0.4292 0.461 0.463
3694.692 0.4726 0.507353 0.4793 0.49137 0.4163 0.368 0.4432 0.501422 0.53302 0.53351
3713.985 0.57142 0.4799 0.4499 0.4714 0.372 0.349 0.34 0.384 0.4336 0.4639
3733.279 0.462 0.4011 0.334 0.369 0.4002 0.375 0.331 0.214 0.17 0.234
3752.572 0.277 0.4006 0.5306 0.52468 0.51454 0.4426 0.38 0.388 0.4344 0.4342
3771.866 0.391 0.4329 0.54196 0.505239 0.39 0.4569 0.388 0.325 0.4562 0.4242
3791.159 0.4178 0.4772 0.445 0.4085 0.35 0.337 0.387 0.319 0.259 0.293
3810.452 0.428 0.4622 0.358 0.372 0.289 0.311 0.4107 0.345 0.35 0.414
3829.746 0.4178 0.296 0.29 0.353 0.288 0.374 0.397 0.408 0.4821 0.365
3849.039 0.341 0.358 0.327 0.38 0.399 0.345 0.36 0.4129 0.355 0.355
3868.333 0.4117 0.499888 0.4789 0.427 0.345 0.302 0.361 0.355 0.4211 0.4077
3887.626 0.339 0.358 0.337 0.33 0.39 0.3997 0.358 0.327 0.4274 0.4614
3906.920 0.4272 0.4122 0.322 0.315 0.506653 0.6344 0.5838 0.502288 0.4394 0.4076
3926.213 0.331 0.35 0.372 0.331 0.296 0.28 0.329 0.356 0.4253 0.4324
3945.506 0.334 0.323 0.343 0.249 0.175 0.252 0.343 0.367 0.38 0.4096
3964.800 0.355 0.321 0.387 0.394 0.4226 0.4684 0.393 0.396 0.383 0.333
3984.093 0.367 0.319 0.346 0.319 0.207 0.236 0.231 0.273 0.333
##END=
