##TITLE=N-(5-Methylfurfuryl)dimethylamine
##JCAMP-DX=4.24
##DATA TYPE=INFRARED SPECTRUM
##ORIGIN=EPA-IR VAPOR PHASE LIBRARY
##OWNER=SRD/NIST
Collection (C) 2018 copyright by the U.S. Secretary of Commerce
on behalf of the United States of America. All rights reserved.
##CAS REGISTRY NO=14496-35-6
##MOLFORM=C 8 H 13 N O
##$NIST SOURCE=MSDC-IR
##STATE=gas
##XUNITS=1/CM
##YUNITS=ABSORBANCE
##XFACTOR=1.
##YFACTOR=0.001
##DELTAX=1.929
##FIRSTX=549.8
##LASTX=4000.8
##FIRSTY=0.243
##MAXX=4000.75
##MINX=549.766
##MAXY=0.056997
##MINY=0
##NPOINTS=1790
##XYDATA=(X++(Y..Y))
549.766 0.243 0.099 0 0.19 0.515 0.411 0.348 0.441 0.455 0.314
569.056 0.431 0.66018 0.333 0.197 0.33 0.353 0.433 0.53 0.6196 0.7514
588.346 0.804 0.8381 0.8712 0.8105 0.9909 1.2466 1.2716 1.2082 1.2416 1.2314
607.636 1.2055 1.2231 1.3357 1.2844 1.2076 1.2746 1.1132 1.0819 1.2 1.1661
626.926 1.0932 0.9588 0.973 1.0625 0.7841 0.66062 0.8158 0.72345 0.7922 0.905
646.216 0.8411 0.7596 0.66217 0.8705 1.0206 1.0154 1.0711 1.0597 1.0706 0.9736
665.506 0.9683 0.9577 0.6213 0.649491 0.914 0.7774 0.7654 0.8308 0.71948 0.71819
684.796 0.72776 0.70327 0.7576 0.849 0.73883 0.67572 0.8181 0.8459 0.8252 0.7957
704.086 0.788 0.8999 0.9704 0.8927 0.9448 1.111 1.2318 1.342 1.3694 1.5252
723.376 1.787 1.867 1.937 2.297 2.747 3.177 3.647 4.247 4.897 5.687
742.666 6.377 6.917 7.677 8.407 9.127 9.877 10.617 11.457 12.257 13.367
761.956 14.887 16.827 19.217 21.877 24.997 28.287 31.507 34.297 36.737 39.427
781.246 39.497 36.847 34.477 31.647 27.977 24.027 20.267 16.947 14.157 11.797
800.536 9.807 8.377 7.417 6.767 6.417 6.057 5.967 6.137 6.147 6.187
819.826 6.237 6.377 6.457 6.557 6.857 7.317 7.727 8.147 8.657 9.077
839.116 9.357 9.357 9.187 8.987 8.637 8.247 7.637 6.767 5.987 5.247
858.406 4.507 3.957 3.507 3.177 2.907 2.717 2.667 2.587 2.417 2.347
877.696 2.337 2.247 2.277 2.297 2.237 2.297 2.367 2.417 2.557 2.647
896.986 2.887 3.137 3.367 3.817 4.187 4.497 4.837 5.177 5.527 5.897
916.276 6.237 6.497 6.697 6.787 6.827 6.917 6.957 6.817 6.667 6.537
935.566 6.467 6.517 6.527 6.467 6.567 6.637 6.717 6.827 6.987 7.257
954.856 7.397 7.617 7.857 7.837 7.787 7.807 7.947 8.117 8.247 8.447
974.146 8.657 8.887 9.077 9.237 9.357 9.537 9.767 10.207 10.817 11.217
993.436 11.717 12.487 13.537 14.967 16.697 18.777 21.257 24.207 27.517 30.937
1012.726 33.987 36.267 38.067 39.697 41.577 43.987 45.747 46.067 45.427 44.347
1032.016 43.107 41.687 39.887 37.637 34.947 31.957 28.847 25.797 22.947 20.377
1051.306 18.157 16.207 14.367 12.717 11.357 10.207 9.107 8.197 7.477 6.807
1070.596 6.207 5.797 5.447 5.177 4.997 4.887 4.827 4.777 4.737 4.887
1089.886 5.047 5.117 5.267 5.367 5.357 5.277 5.247 5.267 5.287 5.257
1109.176 5.207 5.247 5.367 5.577 5.877 6.237 6.737 7.467 8.287 9.097
1128.467 9.997 10.897 11.807 12.587 13.187 13.757 13.987 13.897 13.757 13.397
1147.757 12.877 12.157 11.407 10.977 10.617 10.207 9.857 9.687 9.687 9.647
1167.047 9.597 9.637 9.587 9.487 9.417 9.197 8.927 8.827 8.567 8.147
1186.337 7.897 7.697 7.517 7.497 7.637 7.907 8.277 8.657 9.177 9.987
1205.627 11.017 12.337 13.917 15.487 17.167 18.757 20.067 21.107 21.677 21.917
1224.917 21.757 21.197 20.347 19.227 17.827 16.327 15.007 13.867 13.067 12.477
1244.207 11.987 11.787 11.847 12.117 12.437 12.677 13.117 13.557 13.927 14.397
1263.497 14.707 14.957 15.077 14.917 14.537 14.057 13.487 12.857 12.207 11.577
1282.787 10.907 10.167 9.487 8.887 8.307 7.807 7.407 6.997 6.647 6.467
1302.077 6.377 6.247 6.187 6.267 6.377 6.537 6.737 6.867 7.027 7.297
1321.367 7.587 7.857 8.137 8.387 8.607 8.737 8.867 9.107 9.297 9.477
1340.657 9.667 9.917 10.177 10.427 10.767 11.257 11.827 12.417 13.067 13.697
1359.947 14.187 14.617 14.967 15.167 15.127 14.837 14.477 14.017 13.377 12.687
1379.237 12.037 11.507 10.917 10.197 9.557 8.887 8.297 7.827 7.237 6.637
1398.527 6.147 5.687 5.327 5.147 5.047 4.997 5.017 5.157 5.347 5.567
1417.817 5.837 6.207 6.617 7.107 7.667 8.327 9.027 9.717 10.487 11.347
1437.107 12.357 13.417 14.527 15.707 16.947 18.237 19.437 20.357 20.977 21.277
1456.397 21.367 21.137 20.667 20.067 19.287 18.227 17.077 15.977 14.867 13.737
1475.687 12.637 11.487 10.387 9.437 8.527 7.687 6.947 6.347 5.767 5.277
1494.977 5.057 4.817 4.507 4.387 4.247 4.187 4.167 3.997 3.977 4.017
1514.267 4.027 4.147 4.317 4.547 4.707 4.857 5.217 5.567 6.027 6.597
1533.557 7.117 7.737 8.467 9.287 10.137 10.967 11.817 12.677 13.587 14.467
1552.847 15.207 15.927 16.437 16.687 16.647 16.437 16.127 15.597 14.877 13.997
1572.137 12.967 11.927 10.857 9.677 8.517 7.457 6.617 5.907 5.317 4.847
1591.427 4.467 4.217 3.997 3.847 3.817 3.867 3.987 4.087 4.227 4.377
1610.717 4.467 4.497 4.507 4.447 4.327 4.217 4.107 3.947 3.747 3.587
1630.007 3.467 3.397 3.447 3.507 3.587 3.687 3.747 3.857 4.037 4.167
1649.297 4.267 4.437 4.537 4.467 4.367 4.177 4.067 3.957 3.757 3.607
1668.587 3.457 3.267 3.017 2.787 2.567 2.397 2.177 2.047 1.997 1.837
1687.877 1.647 1.5276 1.5049 1.5509 1.51 1.3252 1.2957 1.2885 1.191 1.1934
1707.167 1.2223 1.1552 1.0623 1.0123 1.0039 1.07 1.0773 1.0007 0.9886 1.0225
1726.457 0.9658 0.9583 0.96 0.978 1.0154 0.9436 0.9253 0.9069 0.8522 0.8253
1745.747 0.8167 0.8291 0.8355 0.8177 0.7638 0.71186 0.7468 0.8056 0.8147 0.7459
1765.037 0.73543 0.8156 0.8209 0.8203 0.8841 0.8401 0.7301 0.72991 0.7477 0.7681
1784.327 0.7912 0.7565 0.7562 0.7928 0.7891 0.7582 0.73744 0.71939 0.71574 0.7673
1803.617 0.7543 0.72821 0.7751 0.7905 0.8077 0.7909 0.7787 0.8071 0.8034 0.8149
1822.907 0.838 0.8125 0.8308 0.9035 0.928 0.9075 0.8882 0.8985 0.9081 0.8887
1842.197 0.9122 0.989 1.0062 0.952 0.9211 0.9425 0.945 0.9759 0.9994 0.9924
1861.487 1.0172 1.0478 1.0234 0.9947 1.0472 1.0333 0.992 0.991 0.9725 0.9256
1880.777 0.9273 0.9081 0.8468 0.8659 0.8628 0.8141 0.8354 0.8629 0.8198 0.8166
1900.067 0.7957 0.71736 0.7267 0.72614 0.69953 0.70501 0.72958 0.7735 0.7664 0.7409
1919.357 0.71761 0.68602 0.69228 0.70582 0.69232 0.7533 0.7988 0.8012 0.7571 0.69329
1938.647 0.73273 0.7651 0.7912 0.7872 0.74184 0.74587 0.7913 0.8429 0.819 0.794
1957.937 0.845 0.8765 0.9168 0.9499 0.9589 0.9858 1.0074 1.0359 1.0344 1.0254
1977.227 1.0277 1.0543 1.0255 1.0116 1.0238 1.0303 1.0489 1.0356 1.0256 0.9938
1996.517 0.9737 0.9508 0.9792 1.0329 1.0273 1.0249 1.0583 1.047 1.0649 1.0912
2015.807 1.0287 0.9966 0.9522 0.9211 0.9673 0.994 0.9139 0.8755 0.9757 0.9927
2035.097 0.9645 0.9378 0.9603 1.0248 1.0169 1.0023 0.9962 0.9819 0.968 0.9554
2054.387 0.9168 0.9056 0.9325 0.8876 0.8598 0.8747 0.938 0.9597 0.9424 0.9794
2073.677 1.0033 0.9834 0.9563 0.9767 1.0081 1.0157 1.0314 1.0311 1.0139 1.0257
2092.967 0.9782 0.9399 0.9832 1.0248 0.954 0.9247 0.9816 0.9526 0.8927 0.8775
2112.257 0.8987 0.8982 0.8494 0.826 0.8487 0.8368 0.8399 0.8668 0.8425 0.8255
2131.547 0.7827 0.74366 0.7468 0.74326 0.74692 0.74697 0.7573 0.7643 0.7683 0.7802
2150.837 0.793 0.7996 0.7592 0.7861 0.8174 0.7898 0.7825 0.8093 0.8485 0.8341
2170.127 0.8353 0.8475 0.8705 0.9071 0.9111 0.9169 0.9316 0.9294 0.9349 0.9885
2189.417 1.0119 1.0155 1.0348 1.008 1.024 1.0823 1.1246 1.1491 1.1619 1.1925
2208.707 1.1821 1.2157 1.2628 1.2541 1.306 1.3494 1.3186 1.2403 1.2334 1.2286
2227.997 1.2098 1.1832 1.1223 1.0707 1.0288 1.0292 1.0364 1.0176 0.998 0.955
2247.287 0.9076 0.925 0.8964 0.8896 0.9462 0.9315 0.8915 0.9172 0.9407 0.9279
2266.577 0.8962 0.8986 0.9463 0.9625 0.9711 0.9108 0.8436 0.8541 0.8879 0.9031
2285.868 0.8731 0.864 0.8195 0.7812 0.7755 0.7725 0.7855 0.7837 0.7971 0.8254
2305.158 0.8343 0.8097 0.7931 0.7864 0.8153 0.748 0.70513 0.7868 0.8237 0.8641
2324.448 0.9185 0.9121 0.8588 0.8174 0.8168 0.8711 0.8922 0.8661 0.841 0.8921
2343.738 0.9516 0.9219 0.9195 0.9428 0.9493 0.9222 0.9436 1.0246 1.026 1.0117
2363.028 1.0608 1.1113 1.1037 1.1051 1.1104 1.0667 1.0368 1.0637 1.0703 1.0523
2382.318 1.025 1.0491 1.1024 1.0858 1.1179 1.167 1.189 1.1722 1.1172 1.1408
2401.608 1.1964 1.2184 1.1903 1.1669 1.1839 1.2415 1.2725 1.2586 1.2566 1.2093
2420.898 1.1738 1.1906 1.1907 1.2213 1.2996 1.3169 1.2961 1.2471 1.2157 1.2457
2440.188 1.2289 1.1852 1.1651 1.1355 1.1516 1.1516 1.1631 1.1806 1.1603 1.1464
2459.478 1.1304 1.1004 1.0881 1.0677 1.0558 1.1259 1.1066 1.0674 1.1095 1.144
2478.768 1.1566 1.1178 1.1449 1.2059 1.2166 1.3292 1.4113 1.3767 1.3792 1.3329
2498.058 1.2916 1.3998 1.4654 1.4468 1.4099 1.4184 1.4572 1.4412 1.386 1.3525
2517.348 1.2974 1.325 1.3237 1.2408 1.3018 1.3285 1.3409 1.3173 1.3105 1.4014
2536.638 1.3828 1.3482 1.4139 1.3749 1.2892 1.2644 1.2502 1.2645 1.2845 1.2907
2555.928 1.2991 1.3193 1.2997 1.2645 1.2535 1.2762 1.3022 1.346 1.3628 1.3219
2575.218 1.3327 1.386 1.4384 1.3874 1.3258 1.344 1.3997 1.3875 1.3448 1.3861
2594.508 1.3957 1.4882 1.5573 1.5329 1.5218 1.5292 1.5572 1.5884 1.5522 1.5142
2613.798 1.4846 1.4904 1.5534 1.6 1.5923 1.524 1.5195 1.5535 1.6176 1.687
2633.088 1.737 1.737 1.697 1.687 1.687 1.687 1.687 1.727 1.777 1.807
2652.378 1.827 1.787 1.837 1.957 1.977 2.027 2.077 2.107 2.147 2.207
2671.668 2.287 2.357 2.457 2.547 2.617 2.757 2.897 3.037 3.277 3.437
2690.958 3.607 3.877 4.047 4.267 4.557 4.857 5.227 5.477 5.747 5.987
2710.248 6.287 6.657 6.937 7.277 7.627 7.967 8.277 8.557 8.867 9.197
2729.538 9.567 9.907 10.227 10.627 11.037 11.497 12.057 12.727 13.497 14.427
2748.828 15.567 16.957 18.687 20.727 23.167 26.077 29.477 33.107 36.837 40.607
2768.118 44.027 47.077 49.657 51.607 53.027 53.677 53.607 53.017 51.887 50.427
2787.408 48.797 47.087 45.307 43.377 41.347 39.517 37.847 36.337 35.157 34.117
2806.698 33.417 33.117 33.067 33.257 33.737 34.377 34.997 35.587 35.967 36.067
2825.988 35.917 35.427 34.517 33.267 31.797 30.017 28.187 26.557 25.117 23.947
2845.278 23.047 22.357 22.017 21.897 21.947 22.147 22.427 22.897 23.407 23.997
2864.568 24.527 24.907 25.277 25.467 25.487 25.557 25.387 25.177 25.027 24.777
2883.858 24.487 24.227 24.137 24.187 24.227 24.297 24.477 24.627 24.807 25.007
2903.148 25.167 25.577 26.137 26.647 27.237 28.037 29.097 30.327 31.857 33.827
2922.438 36.037 38.267 40.697 43.367 46.077 48.457 50.707 52.777 54.467 55.867
2941.728 56.737 56.997 56.717 55.837 54.597 53.187 51.527 49.787 47.987 46.117
2961.018 44.287 42.707 41.367 40.287 39.587 39.087 38.697 38.407 37.927 37.107
2980.308 35.837 34.237 32.347 30.277 28.047 25.617 23.187 20.797 18.407 15.977
2999.598 13.767 11.947 10.407 9.097 8.117 7.427 6.857 6.307 5.817 5.397
3018.888 5.017 4.747 4.597 4.467 4.227 3.977 3.857 3.877 3.777 3.727
3038.178 3.727 3.677 3.707 3.747 3.797 3.827 3.757 3.717 3.757 3.827
3057.468 3.807 3.807 3.897 3.977 3.987 3.807 3.747 3.837 3.747 3.567
3076.758 3.537 3.557 3.537 3.577 3.687 3.807 3.897 4.047 4.237 4.567
3096.048 5.027 5.567 6.087 6.597 7.037 7.417 7.697 7.687 7.537 7.207
3115.338 6.717 6.237 5.577 4.757 4.187 3.787 3.417 3.087 2.717 2.567
3134.628 2.487 2.367 2.347 2.317 2.247 2.187 2.097 1.957 1.937 1.967
3153.918 1.927 1.897 1.947 1.847 1.687 1.767 1.837 1.777 1.707 1.717
3173.208 1.667 1.5207 1.5478 1.4973 1.3145 1.3071 1.3736 1.4411 1.5366 1.6068
3192.498 1.523 1.3426 1.5027 1.533 1.3978 1.3223 1.2198 1.2597 1.1823 1.1511
3211.788 1.1622 1.1563 1.1313 1.1436 1.1139 1.1313 1.1392 1.0095 1.0029 1.0806
3231.078 0.9838 0.9177 0.9077 0.8549 0.9688 1.0381 1.0281 0.9991 0.8982 0.828
3250.368 0.8801 0.936 0.8654 0.8355 0.9231 0.8335 0.649951 0.6034 0.68971 0.793
3269.658 0.8561 0.69588 0.66095 0.8498 0.8871 0.9439 0.8541 0.7632 0.8114 0.7925
3288.948 0.757 0.64312 0.6339 0.72168 0.67176 0.6343 0.70481 0.7537 0.7521 0.73643
3308.238 0.67974 0.5953 0.6199 0.649957 0.646314 0.71225 0.8428 0.8162 0.8068 0.8245
3327.528 0.8312 0.8645 0.7768 0.7766 0.7939 0.7585 0.73504 0.8741 0.9058 0.72849
3346.818 0.71357 0.6726 0.70226 0.7907 0.7583 0.73067 0.68059 0.7539 0.7713 0.5653
3366.108 0.5868 0.71547 0.72839 0.7872 0.68799 0.70243 0.7822 0.6316 0.67408 0.8097
3385.398 0.7685 0.7656 0.74157 0.7486 0.70087 0.6174 0.6324 0.618 0.6326 0.6594
3404.688 0.5984 0.6186 0.73778 0.69283 0.5509 0.5847 0.6194 0.518 0.483 0.544
3423.978 0.6238 0.6046 0.5791 0.58 0.6051 0.70696 0.73083 0.65716 0.72125 0.7476
3443.269 0.788 0.8719 0.795 0.8337 0.801 0.654255 0.72584 0.7833 0.71959 0.7872
3462.559 0.8451 0.72414 0.8126 0.8953 0.7512 0.6246 0.5571 0.6359 0.7099 0.8224
3481.849 0.8135 0.797 0.7592 0.5608 0.519 0.5889 0.6057 0.5899 0.5536 0.623
3501.139 0.73205 0.65782 0.5614 0.6345 0.74241 0.71599 0.7804 0.7959 0.7687 0.7696
3520.429 0.66559 0.72236 0.7541 0.653026 0.72771 0.6345 0.51 0.66854 0.6296 0.67377
3539.719 0.70803 0.70414 0.67937 0.5793 0.66056 0.655301 0.5708 0.6358 0.7549 0.74151
3559.009 0.6134 0.5 0.504 0.63929 0.7493 0.74391 0.74217 0.7608 0.7877 0.6357
3578.299 0.604 0.72498 0.861 0.838 0.73647 0.71915 0.67106 0.6113 0.6076 0.67196
3597.589 0.70189 0.74304 0.7971 0.68186 0.5724 0.67182 0.67831 0.66638 0.8164 0.8364
3616.879 0.8042 0.8417 0.8249 0.8152 0.7808 0.74495 0.7716 0.8928 0.9788 0.931
3636.169 0.7611 0.71335 0.74244 0.7544 0.74113 0.67008 0.7662 0.8857 0.7901 0.6234
3655.459 0.526 0.6052 0.70668 0.651911 0.71233 0.8234 0.9023 0.9955 0.9424 0.8129
3674.749 0.7901 0.7901 0.7358 0.65882 0.73721 0.8417 0.8248 0.9894 1.0105 0.8805
3694.039 0.8441 0.7726 0.749 0.7763 0.63935 0.5841 0.8479 0.9222 0.9488 1.0533
3713.329 0.9735 0.8667 0.8122 0.8554 0.875 0.8039 0.8487 0.8489 0.7642 0.8773
3732.619 0.9494 0.9904 1.0518 0.8571 0.7448 0.903 0.9884 0.8962 0.9137 0.9814
3751.909 0.8779 0.839 0.992 1.1087 1.0628 0.8689 0.70491 0.7651 0.9135 0.9381
3771.199 0.8064 0.7541 0.7631 0.932 1.0576 1.0197 0.9769 0.9445 0.9581 0.8762
3790.489 0.8737 0.9818 1.0505 1.0342 1.0703 1.0304 1.0072 0.9585 0.9545 1.1288
3809.779 1.1084 1.0344 1.0463 1.0513 1.0336 1.0929 1.1572 1.0248 0.9655 1.0181
3829.069 0.9652 0.9746 0.9856 0.9276 0.906 0.8914 0.9837 0.9725 0.8402 0.8672
3848.359 0.9324 1.0062 1.086 1.0863 1.0289 1.0799 1.1426 0.9924 0.9583 1.0577
3867.649 1.1768 1.2871 1.172 1.1179 1.1235 0.997 0.9919 1.0191 1.0678 1.1211
3886.939 1.0498 0.9124 0.8896 0.9584 1.0071 1.0991 1.0096 0.9197 0.9652 0.9974
3906.229 1.1514 1.1195 0.9674 0.9942 1.0673 1.1118 1.0058 1.0044 1.0566 0.9474
3925.519 0.9159 0.9183 0.8838 0.9475 1.0911 1.1527 1.1753 1.1807 1.1542 1.1571
3944.809 1.0421 0.9229 0.9166 1.0115 1.0785 1.0013 0.9646 1.008 0.9866 0.9196
3964.099 0.9329 1.0908 1.1904 1.1203 1.0454 1.0489 1.0693 1.0513 0.9728 0.9957
3983.389 1.0247 1.0235 1.0528 1.0346 1.017 1.0165 0.9746 0.9456 1.0376 1.0775
##END=
