##TITLE=Methyl 2,5-dichlorothiophene-3-carboxylate
##JCAMP-DX=4.24
##DATA TYPE=INFRARED SPECTRUM
##ORIGIN=EPA-IR VAPOR PHASE LIBRARY
##OWNER=SRD/NIST
Collection (C) 2018 copyright by the U.S. Secretary of Commerce
on behalf of the United States of America. All rights reserved.
##CAS REGISTRY NO=145129-54-0
##MOLFORM=C 6 H 4 Cl 2 O 2 S
##$NIST SOURCE=MSDC-IR
##STATE=gas
##XUNITS=1/CM
##YUNITS=ABSORBANCE
##XFACTOR=1.
##YFACTOR=0.001
##DELTAX=1.92898
##FIRSTX=549.8
##LASTX=4000.7
##FIRSTY=2.477
##MAXX=4000.7
##MINX=549.759
##MAXY=0.679027
##MINY=0
##NPOINTS=1790
##XYDATA=(X++(Y..Y))
549.759 2.477 3.057 3.057 3.277 4.657 5.327 5.007 5.487 6.387 6.027
569.049 5.867 6.847 7.497 8.007 8.517 9.077 10.217 11.337 12.227 12.657
588.339 12.397 11.897 11.757 11.397 10.167 9.227 8.427 7.867 7.537 7.437
607.628 7.877 8.907 9.767 10.517 11.767 13.257 14.987 16.207 16.857 17.557
626.918 18.257 18.137 17.627 16.597 14.877 13.257 11.507 9.617 8.117 7.097
646.208 6.197 5.447 4.827 4.207 4.027 3.947 3.727 3.617 3.707 3.547
665.498 3.537 4.207 4.757 5.257 6.027 7.147 8.517 10.017 11.267 11.637
684.787 11.377 10.917 10.177 8.987 7.527 5.897 4.317 3.407 2.987 2.697
704.077 2.747 2.897 2.797 2.587 2.227 2.257 2.387 2.357 2.477 2.777
723.367 3.157 3.527 4.037 4.937 5.957 7.037 8.377 9.497 10.577 11.607
742.657 12.807 14.987 18.377 23.447 30.527 38.347 45.757 51.847 56.887 61.177
761.947 64.037 63.697 60.987 59.777 63.077 65.397 56.717 45.067 38.747 33.967
781.236 28.787 23.637 19.227 15.857 13.667 11.987 10.587 9.297 8.527 8.117
800.526 7.367 6.697 6.227 5.787 5.507 5.067 4.937 5.227 5.577 6.487
819.816 7.337 8.537 10.597 12.727 15.267 18.057 20.637 22.637 24.307 25.887
839.106 27.327 27.577 26.317 24.837 23.177 21.597 19.547 17.407 15.757 14.537
858.395 14.147 14.487 15.097 15.467 15.777 15.817 15.577 15.187 15.047 14.787
877.685 14.597 15.487 16.807 18.697 20.937 22.527 23.057 23.037 22.247 20.277
896.975 17.737 14.977 12.287 9.607 7.667 6.437 5.357 4.937 4.807 4.447
916.265 4.007 3.777 3.787 3.677 3.847 4.037 4.027 4.187 4.627 5.347
935.555 5.847 6.027 6.477 7.467 8.077 8.357 9.357 10.437 10.947 11.587
954.844 12.657 14.227 16.027 18.067 20.597 24.247 29.247 35.507 42.507 50.627
974.134 59.997 69.097 77.267 83.707 88.387 91.337 92.897 93.757 94.797 97.187
993.424 101.587 106.837 112.037 116.027 117.127 114.097 106.407 94.797 80.317 65.937
1012.714 53.247 42.357 33.787 28.057 25.247 24.477 25.477 27.387 30.547 36.027
1032.003 42.927 52.427 63.757 76.027 89.217 101.017 111.807 121.617 128.177 130.907
1051.293 129.547 123.837 114.537 102.547 89.627 77.157 64.667 51.787 40.947 33.667
1070.583 28.257 23.707 20.017 17.597 16.117 13.847 12.537 12.497 11.947 12.097
1089.873 12.327 11.587 11.227 12.217 13.487 14.227 14.757 15.827 17.257 18.827
1109.163 20.007 20.957 23.097 24.957 26.127 28.317 30.387 31.957 34.437 39.217
1128.452 45.387 50.877 58.257 69.077 81.807 95.457 110.057 124.047 134.837 140.677
1147.742 142.087 138.707 131.397 120.967 105.917 88.567 73.417 60.907 51.947 46.757
1167.032 42.437 39.027 37.437 37.067 36.767 37.287 39.037 41.147 44.307 48.307
1186.322 52.537 57.447 64.587 73.277 81.937 91.127 101.467 113.617 126.647 141.707
1205.611 161.077 184.317 211.857 244.057 282.547 328.527 380.977 437.117 493.717 548.597
1224.901 598.247 638.987 668.547 679.027 669.227 642.087 595.387 534.757 463.077 387.307
1244.191 313.547 246.867 193.557 153.907 125.567 105.887 91.697 80.687 72.027 64.617
1263.481 57.707 51.337 45.667 40.777 36.237 32.237 28.967 25.977 23.327 21.517
1282.771 19.807 17.987 17.097 16.297 15.067 14.197 13.497 12.907 12.667 12.417
1302.060 12.297 12.407 12.437 12.767 13.407 14.157 15.037 15.957 17.067 18.367
1321.350 19.877 21.717 23.707 25.947 28.897 32.307 36.257 40.757 45.567 50.697
1340.640 55.737 60.387 64.657 68.537 72.607 77.497 83.757 92.177 102.847 115.507
1359.930 129.037 141.537 150.717 154.487 151.697 142.557 127.727 108.557 87.877 68.707
1379.219 53.037 41.627 33.917 28.947 25.737 23.547 22.047 20.977 20.147 19.447
1398.509 19.097 18.917 18.887 19.297 19.937 21.027 22.687 24.877 27.737 31.077
1417.799 35.027 39.767 45.327 51.697 58.837 66.947 76.757 89.587 107.727 133.377
1437.089 167.587 207.157 247.067 281.137 303.257 310.597 301.637 276.077 233.677 179.947
1456.378 126.377 85.127 59.967 45.517 37.327 32.297 28.957 26.637 24.757 23.027
1475.668 21.517 20.187 19.047 17.917 16.947 16.287 15.577 14.767 14.087 13.527
1494.958 13.087 12.707 12.477 12.407 12.367 12.507 12.707 13.027 13.867 15.177
1514.248 16.737 18.937 21.967 25.627 30.307 36.037 42.567 49.177 55.277 60.267
1533.538 63.467 64.717 64.307 61.827 56.997 50.567 43.597 37.257 31.827 27.497
1552.827 24.437 22.177 20.627 19.507 18.457 17.707 17.077 16.127 15.127 14.127
1572.117 13.127 12.307 11.447 10.577 9.907 9.287 8.767 8.427 8.177 7.927
1591.407 7.627 7.557 7.377 7.247 7.557 7.657 7.767 7.977 8.087 8.187
1610.697 8.437 8.557 8.307 8.107 7.967 7.737 7.427 7.237 7.087 6.887
1629.986 6.757 6.737 6.847 6.887 6.907 7.027 7.227 7.457 7.657 7.827
1649.276 7.897 7.987 8.037 8.157 8.297 8.537 9.027 9.447 9.987 10.687
1668.566 11.467 12.437 13.377 14.077 14.917 15.927 16.547 17.217 18.027 18.747
1687.856 19.717 20.757 21.827 23.377 25.497 28.017 31.107 34.777 38.947 43.847
1707.146 49.167 54.837 60.787 66.727 72.857 79.767 87.857 97.547 109.867 125.647
1726.435 145.737 170.397 199.197 230.097 261.007 288.457 310.927 331.347 351.457 369.217
1745.725 380.047 380.667 369.517 348.967 323.617 294.307 258.437 215.377 170.177 131.977
1765.015 105.057 87.937 77.497 71.017 66.797 63.687 60.877 57.847 54.597 51.457
1784.305 48.187 44.537 40.557 35.937 30.887 26.147 21.977 18.487 15.567 13.167
1803.594 11.327 9.827 8.707 7.867 7.187 6.577 6.107 5.857 5.637 5.357
1822.884 5.067 4.877 4.847 4.737 4.567 4.567 4.507 4.477 4.557 4.557
1842.174 4.647 4.707 4.737 4.847 4.917 4.977 5.007 5.067 5.207 5.167
1861.464 5.147 5.107 4.927 4.807 4.597 4.287 4.017 3.717 3.457 3.317
1880.754 3.117 2.827 2.657 2.517 2.417 2.357 2.257 2.267 2.287 2.227
1900.043 2.227 2.267 2.387 2.377 2.347 2.397 2.327 2.387 2.467 2.407
1919.333 2.447 2.567 2.497 2.407 2.447 2.527 2.507 2.537 2.647 2.637
1938.623 2.667 2.757 2.837 2.927 2.957 3.007 3.177 3.327 3.447 3.487
1957.913 3.537 3.547 3.527 3.587 3.647 3.567 3.427 3.457 3.507 3.587
1977.202 3.627 3.657 3.847 4.047 4.117 4.297 4.417 4.357 4.417 4.467
1996.492 4.417 4.337 4.157 4.027 3.917 3.667 3.517 3.467 3.427 3.407
2015.782 3.377 3.397 3.377 3.377 3.457 3.467 3.367 3.317 3.247 3.107
2035.072 3.157 3.167 3.127 3.157 3.087 2.957 2.827 2.867 2.937 2.917
2054.362 2.977 3.057 3.037 3.017 3.037 2.947 2.907 2.977 2.947 2.957
2073.651 3.097 3.227 3.467 3.557 3.517 3.667 3.727 3.927 4.047 4.057
2092.941 4.077 3.987 3.787 3.707 3.817 3.847 3.657 3.607 3.677 3.567
2112.231 3.587 3.767 3.727 3.607 3.667 3.547 3.447 3.387 3.157 3.017
2131.521 2.907 2.707 2.597 2.437 2.207 2.017 1.917 1.847 1.687 1.617
2150.810 1.597 1.477 1.407 1.3268 1.2322 1.2171 1.1662 1.1083 1.1237 1.1213
2170.100 1.0407 1.0103 1.0523 1.0086 0.9571 1.0375 1.059 1.0816 1.1106 1.0959
2189.390 1.1227 1.1178 1.15 1.2237 1.1822 1.2453 1.2565 1.145 1.1093 1.188
2208.680 1.3204 1.2716 1.1793 1.1412 1.0746 1.0442 1.2046 1.2666 1.1921 0.9994
2227.970 0.8082 0.9306 0.9839 0.8881 0.9155 0.9939 0.9572 1.0016 0.9752 1.0222
2247.259 1.0394 0.9834 1.0656 1.0789 1.1977 1.2065 1.1232 1.236 1.3582 1.2658
2266.549 1.1459 1.074 1.111 1.0957 1.0305 1.0193 1.0587 1.1331 1.1713 1.0936
2285.839 0.9145 0.9019 0.9505 0.954 1 1.0329 0.9143 0.897 0.985 1.013
2305.129 1.0069 1.1356 1.1992 1.0908 1.0502 1.0175 1.1017 1.0805 1.0391 1.2765
2324.418 1.2205 0.9858 1.0995 1.2231 1.2243 1.272 1.2571 1.1599 1.1313 1.2315
2343.708 1.2046 1.2195 1.2995 1.2038 1.2159 1.2247 1.1393 1.1302 1.1873 1.1494
2362.998 1.2374 1.437 1.407 1.407 1.3389 1.1953 1.31 1.417 1.3144 1.1392
2382.288 1.1553 1.2879 1.3691 1.397 1.3256 1.3664 1.3667 1.407 1.417 1.2875
2401.578 1.2798 1.3665 1.437 1.467 1.597 1.637 1.517 1.457 1.497 1.597
2420.867 1.697 1.667 1.517 1.447 1.467 1.477 1.487 1.547 1.527 1.384
2440.157 1.437 1.527 1.3746 1.3033 1.457 1.577 1.527 1.447 1.2202 1.035
2459.447 1.1977 1.2627 1.1376 1.0646 1.1834 1.3296 1.3189 1.2004 1.0605 0.9348
2478.737 0.8331 0.8707 0.767 0.7693 0.8667 0.8095 0.7369 0.7839 0.9105 0.7951
2498.026 0.7329 0.9305 1.0062 0.9189 0.7499 0.6479 0.7399 0.6434 0.6406 0.7444
2517.316 0.8278 0.8764 0.7818 0.8324 0.9276 0.8991 0.8561 0.742 0.7042 0.6685
2536.606 0.7664 1.0679 1.1964 1.1345 1.0871 0.9679 0.7376 0.8016 0.9391 0.9927
2555.896 0.9437 1.0166 1.1299 1.0104 1.0153 1.0603 1.0047 1.0165 1.1522 1.312
2575.186 1.3608 1.2781 1.3362 1.457 1.537 1.477 1.3104 1.3066 1.427 1.607
2594.475 1.477 1.3212 1.2407 1.2733 1.3619 1.3706 1.457 1.467 1.2445 1.0942
2613.765 1.1103 1.1367 1.1378 1.1287 1.2453 1.2394 1.1339 1.224 1.3018 1.1757
2633.055 1.0476 0.9925 1.1295 1.1163 1.0234 1.0077 0.9112 0.9855 1.0977 1.1614
2652.345 1.1845 1.1334 1.1005 1.2017 1.314 1.3722 1.3425 1.1621 1.1083 1.1977
2671.634 1.2267 1.1915 1.1517 1.1303 1.1423 1.1561 0.9755 0.8107 0.8281 0.7745
2690.924 0.7203 0.8228 0.8216 0.6673 0.563 0.6373 0.6755 0.5935 0.5623 0.5461
2710.214 0.7513 0.8055 0.6858 0.6201 0.666 0.6738 0.6601 0.6661 0.6024 0.8181
2729.504 0.9339 0.8089 0.8755 0.8659 0.6372 0.6549 0.7331 0.8189 0.9166 0.9048
2748.794 0.9635 0.9942 0.9105 0.9859 1.021 1.0113 1.2913 1.3608 1.2093 1.0935
2768.083 1.1145 1.3305 1.487 1.417 1.1913 1.1515 1.2275 1.3056 1.3016 1.3286
2787.373 1.507 1.507 1.517 1.577 1.487 1.427 1.577 1.737 1.767 1.817
2806.663 1.787 1.707 1.897 2.237 2.267 2.287 2.427 2.457 2.547 2.667
2825.953 2.987 3.217 3.317 3.787 4.317 4.817 5.637 6.807 8.037 9.327
2845.242 10.747 11.847 12.587 12.967 12.897 12.147 10.967 10.017 8.897 7.587
2864.532 6.617 6.207 6.087 5.937 6.007 6.257 6.377 6.587 6.977 7.527
2883.822 7.907 8.307 8.517 8.487 8.977 9.307 9.307 9.237 9.497 10.107
2903.112 10.327 10.447 10.827 11.067 11.277 11.827 12.067 11.847 11.787 11.817
2922.401 11.707 11.557 11.487 11.347 11.077 11.027 11.227 11.607 12.157 12.977
2941.691 14.177 15.937 18.387 21.947 26.917 33.597 42.607 53.427 64.517 72.907
2960.981 77.057 77.787 75.257 69.607 60.537 48.777 37.657 29.207 23.317 19.477
2980.271 16.867 15.097 14.167 13.567 13.167 13.387 13.817 14.337 15.177 15.927
2999.561 16.677 17.287 17.767 18.127 17.837 17.227 16.387 15.517 14.727 13.987
3018.850 13.537 13.307 13.227 13.257 13.407 13.537 13.687 13.597 13.387 13.117
3038.140 12.307 11.607 10.947 9.817 8.657 7.807 7.297 6.857 6.697 6.437
3057.430 6.187 6.237 5.947 5.717 5.657 5.437 5.367 5.387 5.367 5.167
3076.720 4.887 4.787 4.737 4.737 4.667 4.697 4.917 4.967 4.947 5.097
3096.009 5.417 5.707 6.137 6.547 6.977 7.737 8.637 9.237 9.447 9.597
3115.299 9.627 9.337 8.507 7.267 6.077 5.037 4.287 3.647 2.877 2.497
3134.589 2.407 2.267 2.157 2.027 1.737 1.567 1.687 1.787 1.917 1.887
3153.879 1.597 1.2633 1.2844 1.507 1.437 1.2532 1.0753 1.123 1.2846 1.3072
3173.169 1.3104 1.2394 1.1292 1.1615 1.264 1.3361 1.2541 1.2596 1.3349 1.2889
3192.458 1.1332 0.9715 1.1362 1.1293 1.0594 1.2776 1.497 1.1685 0.7714 0.7471
3211.748 0.5436 0.5344 0.6666 0.5898 0.5296 0.7658 0.8191 0.6215 0.7852 0.8686
3231.038 0.6611 0.6202 0.6052 0.6791 0.9069 0.8841 0.49064 0.3127 0.398109 0.397419
3250.328 0.3481 0.3711 0.48507 0.5862 0.6429 0.5899 0.5659 0.3489 0.47356 0.7026
3269.617 0.5549 0.5263 0.4992 0.5909 0.8652 0.9496 0.8699 0.7299 0.47835 0.5127
3288.907 0.5627 0.5873 0.7028 0.6058 0.294 0.3902 0.6304 0.49357 0.5593 0.5856
3308.197 0.5683 0.6964 0.6286 0.5037 0.6559 0.6561 0.48262 0.3576 0.25 0.3802
3327.487 0.42408 0.3704 0.3124 0.3576 0.41191 0.5208 0.48542 0.3362 0.5063 0.38765
3346.777 0.131 0.157 0.221 0.252 0.139 0.144 0.5227 0.46868 0.291 0.4747
3366.066 0.47642 0.404666 0.49486 0.5929 0.41435 0.272 0.46003 0.44093 0.3291 0.5748
3385.356 0.317 0.242 0.6643 0.5776 0.49182 0.46584 0.4539 0.6698 0.72 0.6544
3404.646 0.62 0.4989 0.5597 0.8181 0.9658 1.0066 0.9368 0.9063 1.0732 1.1129
3423.936 1.3075 1.3039 1.089 1.2568 1.407 1.627 1.887 1.797 1.677 1.937
3443.225 2.037 2.097 2.367 2.497 2.647 2.617 2.577 2.647 2.687 2.767
3462.515 2.837 2.897 2.767 2.757 2.797 2.847 2.937 2.947 3.197 3.087
3481.805 2.837 3.087 3.167 3.017 2.897 2.787 2.267 1.907 1.927 1.807
3501.095 1.917 1.837 1.707 1.537 1.2668 1.1743 1.1102 1.0083 1.1787 1.527
3520.385 1.266 0.958 0.9318 0.8801 0.6701 0.5855 0.6796 0.6276 0.5998 0.5054
3539.674 0.44017 0.5537 0.5722 0.42905 0.398401 0.6123 0.6927 0.5835 0.266 0.143
3558.964 0.255 0.406478 0.41931 0.3776 0.3527 0.3628 0.6433 0.46887 0.3105 0.49499
3578.254 0.5258 0.47546 0.3699 0.066 0 0.102 0.239 0.271 0.3116 0.551
3597.544 0.6309 0.6448 0.6718 0.5679 0.247 0.184 0.4084 0.3171 0.002 0.02
3616.833 0.243 0.44757 0.44817 0.41631 0.5051 0.5412 0.40884 0.2996 0.209 0.163
3636.123 0.5208 0.7391 0.557 0.3936 0.44164 0.5589 0.6011 0.5486 0.514 0.5312
3655.413 0.3668 0.3677 0.44187 0.3708 0.396125 0.48555 0.43324 0.6764 0.7422 0.45367
3674.703 0.3592 0.185 0.178 0.3453 0.3473 0.3783 0.6906 0.8379 0.6495 0.5229
3693.993 0.46194 0.47108 0.40973 0.13 0.119 0.156 0.3028 0.47383 0.45903 0.5401
3713.282 0.43171 0.265 0.3338 0.39152 0.307 0.163 0.302 0.3485 0.268 0.45776
3732.572 0.4436 0.279 0.40741 0.41064 0.263 0.46404 0.6083 0.6344 0.6121 0.5022
3751.862 0.40195 0.191 0.198 0.3365 0.3377 0.6138 0.7091 0.46501 0.46309 0.3857
3771.152 0.3262 0.48846 0.46978 0.3595 0.3187 0.43649 0.661 0.6319 0.5961 0.5938
3790.441 0.5785 0.8147 0.8529 0.7352 0.6764 0.8376 0.806 0.49322 0.43157 0.6852
3809.731 0.8891 0.5639 0.3321 0.39162 0.5393 0.45021 0.3472 0.5266 0.6322 0.48421
3829.021 0.4177 0.5813 0.5894 0.47182 0.5435 0.514 0.233 0.234 0.3249 0.5602
3848.311 0.8678 0.7184 0.5578 0.8159 0.9308 0.6852 0.46134 0.45616 0.704 0.7652
3867.601 0.7883 0.8176 0.6503 0.42651 0.32 0.3065 0.259 0.3253 0.3477 0.6697
3886.890 0.7836 0.44335 0.3352 0.3481 0.48729 0.45526 0.3129 0.198 0.3259 0.6689
3906.180 0.5496 0.3637 0.226 0.311 0.5031 0.48306 0.6284 0.6913 0.5667 0.3174
3925.470 0.357 0.6459 0.6405 0.5622 0.48181 0.6437 1.0136 0.865 0.7361 0.7028
3944.760 0.6698 0.876 1.0803 1.1857 1.0683 0.9631 0.6767 0.44905 0.6512 0.7616
3964.049 0.839 0.8826 1.0523 1.1787 0.8816 0.7181 0.5896 0.6284 0.5943 0.561
3983.339 0.8555 1.012 0.8316 0.833 0.9877 0.897 0.8205 0.7402 0.3844 0.3623
##END=
