##TITLE=2-Pyridinecarboxamide
##JCAMP-DX=4.24
##DATA TYPE=INFRARED SPECTRUM
##ORIGIN=EPA-IR VAPOR PHASE LIBRARY
##OWNER=SRD/NIST
Collection (C) 2018 copyright by the U.S. Secretary of Commerce
on behalf of the United States of America. All rights reserved.
##CAS REGISTRY NO=1452-77-3
##MOLFORM=C6 H6 N2 O
##$NIST SOURCE=MSDC-IR
##STATE=gas
##XUNITS=1/CM
##YUNITS=ABSORBANCE
##XFACTOR=1.
##YFACTOR=0.001
##DELTAX=1.92898
##FIRSTX=549.8
##LASTX=4000.7
##FIRSTY=1.6233
##MAXX=4000.7
##MINX=549.759
##MAXY=0.123893
##MINY=0
##NPOINTS=1790
##XYDATA=(X++(Y..Y))
549.759 1.6233 2.1633 2.4633 2.1333 1.7233 1.8033 2.3233 2.2633 2.0233 1.9333
569.049 1.8933 2.0633 2.3633 2.3033 2.0033 1.9533 2.1233 2.2133 2.2833 2.8133
588.339 3.6533 4.3433 5.2333 7.1333 9.3933 11.4633 12.9733 13.0833 12.4933 13.0533
607.628 13.8133 13.5133 14.1633 15.2233 14.1033 11.3333 8.4733 6.2133 4.7133 3.9533
626.918 3.8733 3.6633 3.4033 3.4233 3.3233 3.3133 3.4333 3.2833 3.0633 2.9333
646.208 2.7233 2.5633 2.5433 2.5033 2.4633 2.3633 2.3033 2.5533 2.7833 2.7333
665.498 2.6433 2.8033 3.0033 3.1833 3.4933 3.9933 4.5333 5.0833 5.8433 6.6033
684.787 7.2333 8.0733 8.7533 9.3533 10.4433 12.1133 13.6433 14.4133 14.1433 13.0733
704.077 12.4233 12.3333 12.4133 12.1133 11.0833 10.1933 9.7133 9.2133 8.7933 8.7433
723.367 8.8333 9.0033 9.5733 10.4333 11.1233 11.8233 12.5233 13.2533 13.7933 14.5733
742.657 17.0633 22.9933 26.7333 21.7633 16.6833 15.4733 14.7433 14.0033 13.1733 12.5133
761.947 11.7133 10.5133 9.5533 8.6933 7.5433 6.8233 6.5733 6.1933 5.8033 5.8433
781.236 5.7833 5.5133 5.6633 5.9533 6.0933 6.3133 6.3333 6.2533 6.3833 6.6833
800.526 7.0233 7.3233 7.5633 7.7833 7.8533 7.9333 8.3333 8.6933 8.8233 8.7333
819.816 8.3333 7.8933 7.4633 7.2433 7.3033 7.0933 6.7633 6.7033 6.7133 6.5133
839.106 6.3433 6.1933 6.2333 6.4233 6.2933 6.0633 6.0133 6.0733 6.0333 6.0633
858.395 6.3433 6.4733 6.1433 6.1633 6.5833 6.6033 6.4733 6.5233 6.6633 6.5933
877.685 6.5233 6.7233 6.9933 7.0733 7.0133 6.9533 6.8833 6.8733 6.8133 6.7833
896.975 6.8733 6.8833 6.7033 6.6333 6.5033 6.4033 6.3133 6.3533 6.5233 6.6533
916.265 6.7733 6.9233 7.0433 6.9733 6.9233 7.0233 7.1933 7.1833 7.1933 7.0433
935.555 6.9433 6.8933 6.7433 6.6533 6.5833 6.4733 6.2733 6.1233 6.1333 6.0133
954.844 5.8733 5.7733 5.7033 5.6233 5.5533 5.5533 5.5433 5.4133 5.2833 5.3133
974.134 5.3333 5.3033 5.2033 5.1633 5.2933 5.5233 5.6933 6.0333 6.4433 6.6933
993.424 6.7633 6.6333 6.4333 6.3733 6.4033 6.5333 6.6633 6.4133 5.9433 5.6233
1012.714 5.2333 4.6933 4.6733 4.7833 4.8833 5.0133 5.0333 5.2533 5.6433 6.2833
1032.003 6.8233 7.1133 6.9333 6.5033 6.0633 5.8433 6.1033 6.2233 6.0333 5.5233
1051.293 4.9533 4.6133 3.9033 2.9133 2.5533 2.2433 1.9933 2.3433 2.7533 2.9833
1070.583 3.2033 3.6733 4.1133 4.1233 4.1433 4.2233 4.3333 4.5733 4.3233 4.2733
1089.873 4.5333 4.5833 4.0733 3.8433 3.9433 3.7233 3.2433 2.7233 2.8933 2.6733
1109.163 2.4533 2.1433 2.0333 2.3833 2.0033 1.5833 1.6333 2.0433 2.3033 2.3733
1128.452 2.7933 3.2133 3.6133 3.7933 3.7933 4.2233 4.2933 4.5033 5.3533 6.3133
1147.742 6.8833 7.1633 7.3533 7.2333 7.1333 7.0633 7.1033 7.2533 7.0133 6.8333
1167.032 6.6533 5.8933 4.9033 4.1633 3.6133 3.3233 3.0933 2.8333 2.4733 2.0633
1186.322 2.0633 2.1333 2.1133 2.1733 2.4033 2.4833 2.4033 2.3533 2.0633 2.0133
1205.611 2.6733 3.1533 3.3433 3.3033 3.0533 3.1333 2.8333 2.3633 2.4933 2.6333
1224.901 2.9033 3.0733 3.7033 4.7933 5.1333 5.4733 5.6533 5.7633 5.9233 5.9433
1244.191 5.9333 5.8233 5.7733 5.7333 5.5433 4.9433 4.1533 3.4033 2.8333 2.5833
1263.481 2.5533 2.3933 2.3733 2.5833 2.7033 2.7833 3.0033 3.2533 3.6833 4.1733
1282.771 4.4033 4.5533 4.6833 4.6733 4.6233 4.4733 4.5533 4.6833 4.5333 4.1333
1302.060 3.6533 3.2233 2.8233 2.6233 2.5533 2.5133 2.5533 2.5933 2.6433 2.7933
1321.350 3.0633 3.5033 3.9733 4.4933 5.1533 6.0133 7.1533 8.7033 10.8033 13.5433
1340.640 17.2033 21.9733 27.9233 34.6233 41.7733 48.8233 54.7533 59.1233 61.7333 62.9833
1359.930 63.5933 63.7433 62.9733 60.8633 57.1933 50.9233 41.9033 32.2233 23.9833 17.9333
1379.219 13.8133 11.1033 9.3233 8.0133 6.9333 6.1233 5.4933 4.9333 4.5333 4.1933
1398.509 3.8733 3.5933 3.3333 3.1333 2.9633 2.8233 2.7633 2.7733 2.8033 2.8433
1417.799 2.9533 3.1333 3.3733 3.7333 4.1533 4.5533 5.0433 5.5533 5.8433 5.9833
1437.089 5.8733 5.5533 5.4633 5.8133 6.4033 6.7033 6.6233 6.3733 6.0533 5.8933
1456.378 5.9833 6.1233 6.2733 6.3633 6.3433 6.2133 5.9333 5.6633 5.5333 5.4233
1475.668 5.3133 5.1733 4.7833 4.1533 3.4833 3.0333 2.7333 2.4733 2.3133 2.2033
1494.958 2.1333 2.1633 2.1933 2.2433 2.2833 2.3733 2.4933 2.6133 2.7833 2.9933
1514.248 3.2633 3.5033 3.7333 4.0033 4.3733 4.7233 5.1233 5.6633 6.2933 7.1133
1533.538 8.1933 9.6533 11.4933 13.9433 17.0233 20.7933 25.5833 31.1133 36.8533 42.7233
1552.827 48.4533 54.3133 59.9033 65.0733 69.8133 73.2833 75.0233 75.0833 73.8933 71.7033
1572.117 68.5233 64.3133 58.7233 52.4233 45.9033 39.1233 32.9633 27.6533 23.1833 19.4333
1591.407 16.5833 14.3533 12.4933 11.0033 9.7933 8.7733 7.8133 6.9433 6.2433 5.6133
1610.697 5.0633 4.7433 4.4633 4.2633 4.0233 3.8033 3.7433 3.6933 3.6333 3.5233
1629.986 3.5733 3.6933 3.6833 3.7933 3.8933 3.8633 3.9533 4.1133 4.2333 4.3333
1649.276 4.4333 4.6233 4.9233 5.0633 5.1733 5.1033 4.9333 4.8833 4.8933 4.8933
1668.566 4.9133 4.9533 5.0433 5.2533 5.5133 5.8033 6.1133 6.4233 6.6333 6.9033
1687.856 7.4433 8.2433 9.2733 10.5433 12.1833 14.1133 16.5933 19.9433 23.9733 29.2133
1707.146 35.7033 43.7133 53.6133 65.4533 79.1833 93.8033 107.583 117.583 121.443 118.813
1726.435 113.043 109.933 113.473 120.793 123.893 116.913 101.623 82.8733 65.3033 50.7833
1745.725 39.5633 30.8733 24.1033 18.5433 14.1133 10.8533 8.4033 6.6233 5.4133 4.5033
1765.015 3.9133 3.6033 3.3433 3.2133 3.2033 3.2333 3.2633 3.2533 3.4133 3.5433
1784.305 3.5533 3.6433 3.7433 3.8133 3.8833 3.9733 4.0233 4.0033 3.9433 3.8433
1803.594 3.6533 3.3733 3.0533 2.7533 2.5133 2.2433 2.0333 1.8733 1.6333 1.4533
1822.884 1.3033 1.1833 1.1233 1.0135 0.9791 1.0473 1.0733 1.1133 1.1633 1.1633
1842.174 1.2033 1.3033 1.3233 1.3333 1.4133 1.4533 1.5733 1.5733 1.5833 1.5733
1861.464 1.5033 1.5233 1.4833 1.4533 1.4033 1.3133 1.2933 1.2533 1.1533 1.1033
1880.754 1.0633 1.0428 1.0833 1.1233 1.1333 1.1633 1.1733 1.1033 1.0933 1.0933
1900.043 1.0272 1.0002 1.016 1.0085 0.9859 0.9944 1.0489 1.0933 1.1533 1.2633
1919.333 1.3133 1.3933 1.3833 1.3733 1.4133 1.3633 1.3033 1.3433 1.3333 1.3333
1938.623 1.3133 1.2633 1.3133 1.3333 1.3133 1.3733 1.4133 1.3433 1.2733 1.2733
1957.913 1.3433 1.3633 1.2933 1.2533 1.2533 1.2233 1.1733 1.1133 1.0833 1.0295
1977.202 0.9886 1.0733 1.0733 0.9821 0.9968 0.9819 0.9516 0.8993 0.8321 0.8119
1996.492 0.8019 0.7856 0.7632 0.7089 0.6325 0.5717 0.5473 0.5376 0.5095 0.5022
2015.782 0.468 0.4484 0.4834 0.4284 0.4349 0.4521 0.3804 0.3458 0.3715 0.3854
2035.072 0.3388 0.3793 0.4295 0.4312 0.4668 0.4886 0.4351 0.4166 0.3989 0.441
2054.362 0.4734 0.3968 0.3822 0.3577 0.3316 0.3909 0.4287 0.446 0.4022 0.3477
2073.651 0.3833 0.4196 0.4736 0.4883 0.4497 0.4125 0.3772 0.4125 0.3911 0.384
2092.941 0.5076 0.5119 0.4689 0.4373 0.4685 0.5288 0.5456 0.5064 0.3827 0.3889
2112.231 0.4964 0.5345 0.5409 0.4753 0.4143 0.4131 0.3741 0.3723 0.3814 0.3782
2131.521 0.3577 0.3565 0.3627 0.3342 0.3365 0.347 0.3877 0.3636 0.2955 0.3363
2150.810 0.3579 0.2901 0.2901 0.3401 0.3484 0.3874 0.4345 0.4176 0.3704 0.4007
2170.100 0.4501 0.4142 0.3815 0.4154 0.4053 0.3624 0.341 0.3161 0.3296 0.3665
2189.390 0.4062 0.3501 0.2535 0.2593 0.3119 0.3073 0.2763 0.3307 0.3594 0.3321
2208.680 0.3127 0.3272 0.344 0.4069 0.4017 0.3025 0.3107 0.3309 0.3709 0.4167
2227.970 0.4222 0.3796 0.306 0.3429 0.3753 0.3234 0.4111 0.4981 0.4816 0.533
2247.259 0.4711 0.3926 0.4865 0.5001 0.4307 0.4255 0.4057 0.3397 0.3388 0.3778
2266.549 0.3484 0.3304 0.2666 0.2844 0.356 0.331 0.3089 0.3101 0.4381 0.5283
2285.839 0.5191 0.5175 0.4322 0.3748 0.3839 0.4086 0.4919 0.4746 0.4106 0.3494
2305.129 0.2797 0.3281 0.4243 0.441 0.3735 0.3172 0.294 0.344 0.3854 0.3674
2324.418 0.3663 0.392 0.4441 0.4647 0.4176 0.332 0.3398 0.355 0.3037 0.2334
2343.708 0.1988 0.2208 0.242 0.2573 0.2502 0.14863 0.1574 0.3109 0.3464 0.2506
2362.998 0.2157 0.2797 0.228 0.1535 0.234 0.2623 0.2606 0.2663 0.1901 0.2044
2382.288 0.2266 0.2114 0.2212 0.2409 0.2588 0.2525 0.1667 0.1926 0.2654 0.2718
2401.578 0.2989 0.315 0.2626 0.2533 0.2996 0.2046 0.174 0.1855 0.12239 0.12426
2420.867 0.2346 0.2839 0.3258 0.4004 0.42 0.3763 0.3225 0.3356 0.3527 0.3942
2440.157 0.4123 0.4673 0.4859 0.4846 0.4892 0.4889 0.4945 0.4873 0.4772 0.403
2459.447 0.4256 0.4393 0.4094 0.4467 0.3991 0.3927 0.4419 0.5188 0.548 0.4203
2478.737 0.3605 0.3446 0.3317 0.3023 0.3285 0.3271 0.3191 0.3291 0.2927 0.3301
2498.026 0.285 0.2074 0.2359 0.1991 0.2584 0.3441 0.2867 0.295 0.3542 0.3616
2517.316 0.2671 0.2263 0.2843 0.3414 0.307 0.2787 0.3257 0.3705 0.2582 0.1714
2536.606 0.2302 0.2492 0.2465 0.2236 0.1973 0.2206 0.2927 0.2781 0.2379 0.2666
2555.896 0.2866 0.264 0.254 0.2607 0.2569 0.2656 0.2741 0.2181 0.1811 0.236
2575.186 0.3381 0.3852 0.3839 0.3949 0.3478 0.319 0.3471 0.3954 0.3248 0.366
2594.475 0.447 0.4371 0.4162 0.3197 0.3698 0.4032 0.3699 0.3412 0.3094 0.3721
2613.765 0.389 0.3912 0.4385 0.3939 0.3322 0.286 0.3438 0.4384 0.3267 0.2602
2633.055 0.3652 0.3734 0.3005 0.3133 0.357 0.2789 0.2072 0.3213 0.4977 0.4483
2652.345 0.3972 0.4476 0.398 0.3998 0.4072 0.3391 0.2893 0.2366 0.2117 0.3035
2671.634 0.3737 0.3536 0.3383 0.4317 0.4606 0.4355 0.4719 0.3528 0.2174 0.2285
2690.924 0.269 0.3128 0.289 0.3405 0.3519 0.3484 0.413 0.381 0.4326 0.424
2710.214 0.35 0.3449 0.37 0.391 0.444 0.5329 0.4447 0.3469 0.5059 0.4344
2729.504 0.3366 0.4175 0.3677 0.349 0.3449 0.3216 0.351 0.3847 0.3998 0.3686
2748.794 0.3101 0.3263 0.2825 0.2606 0.3745 0.3716 0.2896 0.2844 0.2458 0.2648
2768.083 0.2914 0.3069 0.3754 0.2369 0.2141 0.2859 0.2767 0.3021 0.2912 0.3506
2787.373 0.3932 0.3474 0.2453 0.2463 0.3279 0.315 0.352 0.4915 0.5434 0.6
2806.663 0.685 0.6881 0.6712 0.5914 0.5768 0.6052 0.6783 0.7484 0.7243 0.7041
2825.953 0.6295 0.5915 0.5193 0.4342 0.4004 0.3972 0.3566 0.3935 0.5057 0.4573
2845.242 0.3766 0.2518 0.206 0.2671 0.2732 0.3371 0.2896 0.2236 0.3537 0.3796
2864.532 0.2382 0.2153 0.3215 0.335 0.3032 0.304 0.211 0.1471 0.2446 0.2981
2883.822 0.3156 0.4465 0.3711 0.2994 0.4131 0.419 0.392 0.4017 0.4913 0.5323
2903.112 0.5303 0.5683 0.6324 0.781 0.7788 0.671 0.7605 0.9575 0.9965 0.99
2922.401 1.0933 1.0833 0.9642 0.8633 0.7441 0.6207 0.6732 0.8239 0.8318 0.76
2941.691 0.6828 0.6041 0.5846 0.5623 0.5549 0.5882 0.6009 0.6 0.6029 0.5884
2960.981 0.6308 0.6434 0.6212 0.6043 0.6545 0.683 0.6066 0.5652 0.5025 0.4668
2980.271 0.529 0.6499 0.6998 0.639 0.6642 0.8107 0.9626 1.0175 1.0733 1.1833
2999.561 1.3033 1.5233 1.6333 1.8333 1.9333 1.9833 2.2733 2.4433 2.5633 2.6633
3018.850 2.7833 2.8333 2.7533 2.8433 2.8733 2.8533 2.8933 2.8633 2.7733 2.8533
3038.140 2.8033 2.7433 3.1633 3.5933 4.0733 4.6733 5.3233 5.9333 6.6933 7.4633
3057.430 7.9833 8.5733 9.1933 9.7633 10.3133 10.9833 11.6633 11.9433 11.6633 11.0533
3076.720 10.1933 9.3333 8.5133 7.7233 6.9633 6.1533 5.3333 4.3733 3.4933 2.8033
3096.009 2.2933 1.9733 1.7533 1.5333 1.3933 1.5333 1.5533 1.1933 0.9693 0.9793
3115.299 1.0278 0.996 0.9495 1.0395 1.1733 1.1233 0.9957 0.9481 0.875 0.958
3134.589 1.0137 1.016 1.1633 1.1733 1.0436 0.9447 0.947 0.9515 0.9108 0.8485
3153.879 0.7747 0.67 0.6249 0.6093 0.627 0.6162 0.516 0.4462 0.4127 0.4392
3173.169 0.4604 0.3773 0.355 0.5933 0.6758 0.5728 0.544 0.5529 0.5396 0.4437
3192.458 0.4182 0.4553 0.3581 0.2869 0.3667 0.4693 0.5276 0.4686 0.2854 0.3552
3211.748 0.545 0.4043 0.1957 0.12565 0.08924 0.2176 0.3349 0.2229 0.2255 0.1634
3231.038 0.14793 0.2571 0.2871 0.2756 0.13368 0.13144 0.2332 0.2514 0.2134 0.2861
3250.328 0.4156 0.3859 0.3197 0.3453 0.3922 0.4178 0.4086 0.4762 0.5479 0.5974
3269.617 0.5891 0.5211 0.5532 0.6871 0.6157 0.3924 0.3345 0.4246 0.5336 0.5005
3288.907 0.5186 0.4276 0.399 0.484 0.4683 0.4533 0.4891 0.5174 0.3547 0.3614
3308.197 0.4759 0.3803 0.3483 0.3642 0.2776 0.3731 0.5479 0.5178 0.5434 0.5438
3327.487 0.3933 0.3106 0.2201 0.2383 0.418 0.4632 0.5394 0.6492 0.6082 0.5205
3346.777 0.5263 0.4551 0.4879 0.6307 0.4989 0.4543 0.5162 0.578 0.5211 0.5538
3366.066 0.6887 0.791 0.9736 1.1033 1.1933 1.1133 1.1633 1.4533 1.6433 1.8833
3385.356 2.1633 2.5333 3.0933 3.7433 4.4133 4.9633 5.5933 6.2533 7.0933 8.2033
3404.646 9.1633 9.9433 10.9333 11.8633 12.7533 13.6333 13.9833 13.8433 13.3433 12.6633
3423.936 12.0833 11.7933 11.7133 11.3933 10.5433 9.4833 8.1733 6.7233 5.4433 4.4933
3443.225 3.8833 3.2433 2.6233 2.3233 2.1433 1.6733 1.4433 1.3333 1.0833 1.029
3462.515 1.1233 1.2033 1.0633 1.0273 1.0633 1.0471 1.1733 1.2933 1.4533 1.5533
3481.805 1.5833 1.6433 1.5833 1.7033 1.9533 2.0233 2.0733 2.3633 2.9033 3.2933
3501.095 3.6533 4.0833 4.5833 5.2433 5.9833 6.6133 7.3133 8.4033 9.3733 10.2033
3520.385 11.1133 11.9433 12.8533 13.8533 14.8933 16.0633 17.1733 18.2833 19.6533 21.3533
3539.674 22.7633 23.7333 24.5233 24.9133 24.3533 23.2233 22.1433 20.7833 19.2933 17.6333
3558.964 15.6533 13.3733 10.8433 8.2933 6.0133 4.2733 3.0333 2.2333 1.8033 1.4433
3578.254 1.1333 1.0733 1.0733 0.9933 0.9171 0.9291 0.8193 0.6515 0.592 0.5053
3597.544 0.4801 0.5025 0.5229 0.4389 0.4199 0.5737 0.566 0.5078 0.4861 0.5058
3616.833 0.5023 0.3726 0.09712 0.1206 0.3855 0.5531 0.6013 0.5051 0.3687 0.4192
3636.123 0.5564 0.45 0.335 0.4909 0.5843 0.2962 0.259 0.5312 0.575 0.5863
3655.413 0.6098 0.5557 0.6053 0.6965 0.641 0.4844 0.5893 0.7245 0.592 0.4156
3674.703 0.3322 0.08176 0.0359 0.1401 0.3654 0.5158 0.2844 0.4098 0.4862 0.3001
3693.993 0.2849 0.2642 0.2566 0.335 0.4362 0.4272 0.2121 0.2442 0.3196 0.243
3713.282 0.2593 0.3563 0.4319 0.4195 0.4058 0.251 0.3188 0.4641 0.4536 0.4406
3732.572 0.3002 0.1897 0.2058 0.3186 0.3076 0.2907 0.4741 0.4728 0.3704 0.6505
3751.862 0.7111 0.4068 0.3019 0.383 0.5429 0.6858 0.6364 0.445 0.1605 0.1388
3771.152 0.3546 0.3385 0.3727 0.3678 0.3841 0.4773 0.4783 0.4361 0.3979 0.452
3790.441 0.3587 0.2923 0.3781 0.3432 0.3264 0.3202 0.2477 0.3063 0.2506 0.1686
3809.731 0.2531 0.3714 0.3576 0.3426 0.4183 0.4855 0.3436 0.1797 0.2722 0.2618
3829.021 0.3282 0.3687 0.3769 0.289 0.3589 0.5287 0.3546 0.3277 0.3941 0.2742
3848.311 0.2638 0.3571 0.4731 0.5349 0.3817 0.2685 0.3162 0.3879 0.3424 0.2498
3867.601 0.1571 0.2563 0.2981 0.1375 0.1954 0.262 0.2327 0.304 0.3053 0.3171
3886.890 0.3208 0.2645 0.4711 0.623 0.4745 0.2696 0.2122 0.2435 0.1905 0.13153
3906.180 0.12218 0.2096 0.1886 0.10872 0.2176 0.3661 0.3123 0.10268 0.0136 0.1958
3925.470 0.428 0.426 0.4604 0.4153 0.2526 0.3388 0.3814 0.3769 0.3972 0.3135
3944.760 0.09609 0 0.14237 0.2641 0.2996 0.2193 0.1906 0.19 0.3098 0.4198
3964.049 0.3483 0.3412 0.3466 0.2487 0.1801 0.2552 0.3368 0.3205 0.3693 0.3178
3983.339 0.1657 0.1665 0.2023 0.2733 0.3333 0.2733 0.2556 0.3791 0.2837 0.06801
##END=
