##TITLE=1-Ethylcyclohexene
##JCAMP-DX=4.24
##DATA TYPE=INFRARED SPECTRUM
##ORIGIN=NIST Mass Spectrometry Data Center
##OWNER=NIST Standard Reference Data Program
Collection (C) 2018 copyright by the U.S. Secretary of Commerce
on behalf of the United States of America. All rights reserved.
##CAS REGISTRY NO=1453-24-3
##MOLFORM=C 8 H 14
##$NIST SOURCE=MSDC-IR
##SPECTROMETER/DATA SYSTEM=HP-GC/MS/IRD
##STATE=gas
##XUNITS=1/CM
##YUNITS=ABSORBANCE
##XFACTOR=1.0
##YFACTOR=0.000005700
##DELTAX=4.0
##FIRSTX=550.0
##LASTX=3846.0
##FIRSTY=0.000433
##MAXX=3846
##MINX=550
##MAXY=0.057
##MINY=0
##NPOINTS=825
##XYDATA=(X++(Y..Y))
550.0 76 73 60 37 11 0 25 43 41 42
590.0 35 33 33 32 43 44 40 42 48 47
630.0 33 23 23 29 28 21 23 20 19 19
670.0 11 14 26 28 22 19 16 16 18 18
710.0 25 25 30 31 35 47 58 73 85 92
750.0 97 91 83 84 86 92 102 118 148 178
790.0 204 232 271 297 290 275 261 253 251 251
830.0 264 290 315 324 307 280 254 221 184 134
870.0 96 81 79 90 110 141 180 231 290 340
910.0 373 415 451 427 372 321 270 217 169 127
950.0 97 82 71 68 69 73 80 84 90 94
990.0 91 85 76 67 60 58 61 65 78 93
1030.0 110 127 139 152 155 150 144 131 118 109
1070.0 106 100 94 99 110 117 115 109 109 106
1110.0 97 101 115 134 165 194 218 245 252 232
1150.0 206 183 158 132 113 100 88 73 60 51
1190.0 42 38 38 36 36 40 45 52 65 75
1230.0 83 92 105 117 130 141 146 153 162 174
1270.0 183 181 176 168 165 172 187 213 251 284
1310.0 315 338 346 328 303 284 262 237 219 197
1350.0 178 166 159 162 173 190 211 230 231 217
1390.0 200 182 170 162 161 168 186 217 268 343
1430.0 441 561 672 764 848 933 978 932 848 760
1470.0 662 544 410 296 216 162 129 106 89 81
1510.0 74 68 64 60 54 48 46 45 43 41
1550.0 39 37 38 35 33 37 39 36 35 36
1590.0 38 37 37 39 38 38 40 41 43 42
1630.0 43 49 51 55 62 70 78 83 87 87
1670.0 82 76 68 62 54 44 38 36 36 37
1710.0 37 35 34 35 36 34 32 29 27 27
1750.0 26 26 27 25 21 20 21 20 18 13
1790.0 11 14 13 13 14 15 16 14 11 13
1830.0 15 16 16 14 13 13 13 12 12 11
1870.0 11 12 12 13 11 9 10 10 10 13
1910.0 12 10 11 14 14 15 17 17 19 18
1950.0 15 11 11 12 12 12 10 8 7 7
1990.0 4 2 3 1 0 1 3 2 1 2
2030.0 4 4 3 2 1 4 5 3 3 5
2070.0 6 6 6 7 7 6 6 6 4 3
2110.0 2 1 0 0 1 0 0 1 4 7
2150.0 5 6 7 8 9 8 8 9 12 12
2190.0 12 12 9 8 9 13 16 15 13 13
2230.0 14 13 12 11 11 10 11 12 10 10
2270.0 13 12 10 10 10 9 10 9 10 9
2310.0 10 9 7 6 4 6 7 7 8 10
2350.0 15 17 18 17 15 14 11 11 12 10
2390.0 10 7 7 10 11 11 13 10 9 11
2430.0 12 8 3 1 5 6 5 6 8 10
2470.0 10 13 16 18 18 15 17 19 19 20
2510.0 19 21 18 16 19 18 16 15 19 20
2550.0 18 18 17 19 21 22 26 28 31 35
2590.0 36 38 41 43 47 52 53 57 62 66
2630.0 71 78 86 101 115 124 136 147 151 153
2670.0 147 139 133 124 113 103 96 92 90 88
2710.0 88 90 91 93 94 97 102 110 117 125
2750.0 132 136 146 161 172 184 201 213 230 253
2790.0 275 295 321 353 390 438 510 622 790 1040
2830.0 1391 1836 2327 2769 3116 3409 3679 3844 3840 3778
2870.0 3731 3712 3724 3774 3926 4112 4283 4488 4757 5122
2910.0 5608 6167 6716 7300 8105 9208 10000 9856 9231 8533
2950.0 7620 6516 5375 4600 4253 4047 3821 3517 2985 2346
2990.0 1863 1548 1333 1180 1065 967 879 801 742 699
3030.0 667 638 605 567 525 471 419 365 314 265
3070.0 228 201 179 160 146 136 129 122 118 115
3110.0 110 109 103 96 92 87 84 82 78 77
3150.0 75 74 74 72 76 79 78 75 72 72
3190.0 70 62 54 48 47 49 42 36 41 41
3230.0 36 34 35 34 29 24 23 23 21 25
3270.0 26 23 19 17 14 11 12 15 18 19
3310.0 21 20 17 17 13 10 12 13 9 8
3350.0 13 16 15 15 16 18 17 14 12 11
3390.0 10 12 13 9 11 15 16 13 11 14
3430.0 15 12 9 12 13 11 10 8 8 8
3470.0 7 9 10 6 7 10 8 5 5 8
3510.0 11 10 9 5 2 4 9 9 7 4
3550.0 7 11 10 11 13 14 13 14 13 13
3590.0 12 13 11 6 10 14 14 14 16 18
3630.0 12 8 10 12 16 19 16 13 13 16
3670.0 19 19 21 19 24 25 23 27 27 27
3710.0 29 26 21 20 21 26 24 20 23 24
3750.0 28 28 25 20 20 24 28 28 27 28
3790.0 26 27 30 32 31 27 29 23 21 27
3830.0 30 30 30 30 29
##END=
