##TITLE=1-Methylcycloheptene
##JCAMP-DX=4.24
##DATA TYPE=INFRARED SPECTRUM
##ORIGIN=NIST Mass Spectrometry Data Center
##OWNER=NIST Standard Reference Data Program
Collection (C) 2018 copyright by the U.S. Secretary of Commerce
on behalf of the United States of America. All rights reserved.
##CAS REGISTRY NO=1453-25-4
##MOLFORM=C 8 H 14
##$NIST SOURCE=MSDC-IR
##SPECTROMETER/DATA SYSTEM=HP-GC/MS/IRD
##STATE=gas
##XUNITS=1/CM
##YUNITS=ABSORBANCE
##XFACTOR=1.0
##YFACTOR=0.000002400
##DELTAX=4.0
##FIRSTX=550.0
##LASTX=3846.0
##FIRSTY=0.000050
##MAXX=3846
##MINX=550
##MAXY=0.024
##MINY=0
##NPOINTS=825
##XYDATA=(X++(Y..Y))
550.0 21 27 30 20 12 12 43 80 62 35
590.0 60 46 50 84 65 54 29 30 55 37
630.0 32 63 31 4 24 50 63 40 22 31
670.0 74 89 49 83 113 66 32 26 33 11
710.0 6 36 53 59 42 33 34 22 27 41
750.0 41 53 66 68 78 90 97 114 127 145
790.0 173 173 187 190 159 137 156 189 208 247
830.0 297 346 409 459 432 382 346 293 237 195
870.0 164 137 142 145 134 139 134 109 76 67
910.0 62 51 68 77 72 75 78 82 88 91
950.0 103 126 140 144 146 143 124 109 104 95
990.0 86 82 81 89 105 106 100 118 125 111
1030.0 98 79 70 71 74 80 82 80 91 99
1070.0 118 137 149 164 167 159 148 142 133 116
1110.0 92 64 49 44 44 56 66 55 64 87
1150.0 67 47 55 63 55 39 40 54 48 55
1190.0 67 67 67 70 87 101 126 144 142 148
1230.0 149 124 82 76 89 76 76 100 124 152
1270.0 174 163 144 145 139 117 95 78 69 67
1310.0 64 61 67 76 85 97 105 117 130 134
1350.0 147 159 164 168 169 177 177 185 196 191
1390.0 180 160 133 121 135 151 177 220 285 385
1430.0 511 657 793 892 980 1044 1011 906 776 636
1470.0 506 395 295 204 147 125 107 82 71 64
1510.0 62 63 56 51 40 34 33 37 46 42
1550.0 37 43 52 48 37 37 57 66 50 45
1590.0 56 63 62 60 67 70 72 76 84 89
1630.0 91 102 104 93 91 96 89 78 78 76
1670.0 77 75 63 59 43 32 36 34 27 27
1710.0 26 23 24 15 6 12 23 26 14 13
1750.0 28 20 8 15 18 23 28 22 25 27
1790.0 22 23 25 31 33 27 26 24 19 19
1830.0 18 22 25 18 16 19 21 24 19 15
1870.0 22 27 23 18 16 15 16 21 19 5
1910.0 6 12 16 15 16 14 14 23 20 16
1950.0 18 13 12 16 14 11 15 21 25 21
1990.0 14 12 7 8 12 10 13 16 10 11
2030.0 17 20 26 26 19 9 6 11 17 18
2070.0 13 9 10 13 19 16 8 10 18 18
2110.0 11 8 9 9 8 11 13 11 16 17
2150.0 16 17 20 25 22 13 15 15 13 17
2190.0 21 24 30 20 15 18 16 13 12 14
2230.0 17 15 12 14 21 22 15 14 15 13
2270.0 13 10 11 16 15 11 9 10 10 6
2310.0 7 9 7 11 9 4 8 16 13 17
2350.0 20 19 18 22 22 11 11 8 11 15
2390.0 11 10 11 12 14 19 19 18 20 18
2430.0 13 14 19 21 13 8 10 18 19 17
2470.0 14 16 22 18 12 12 9 8 10 19
2510.0 20 16 19 18 16 13 16 24 15 12
2550.0 9 0 13 24 29 29 20 22 20 22
2590.0 30 35 31 31 37 37 35 35 36 35
2630.0 34 42 53 57 63 72 83 97 104 104
2670.0 121 131 127 125 124 132 144 146 129 117
2710.0 128 128 118 121 121 123 127 120 123 117
2750.0 104 103 106 110 123 137 145 154 165 177
2790.0 196 217 238 264 289 323 368 425 518 651
2830.0 836 1083 1382 1765 2235 2600 2809 2956 2987 2920
2870.0 2792 2612 2451 2340 2310 2341 2425 2627 3034 3722
2910.0 4694 5884 7178 8809 10000 9774 9238 8567 7255 5688
2950.0 4285 3214 2510 2115 1909 1726 1558 1456 1330 1139
2990.0 964 825 736 678 633 597 565 512 470 449
3030.0 428 406 382 366 349 322 291 262 233 214
3070.0 208 193 174 161 144 126 124 130 111 95
3110.0 91 92 98 94 95 86 77 72 78 83
3150.0 73 74 70 58 64 74 70 60 49 55
3190.0 59 52 50 49 49 50 47 47 42 39
3230.0 50 48 47 54 49 55 61 39 43 54
3270.0 39 30 31 33 48 57 55 49 46 46
3310.0 45 42 44 53 50 39 38 44 50 46
3350.0 38 33 28 34 45 41 35 34 24 17
3390.0 17 34 41 41 40 41 44 40 37 43
3430.0 44 49 50 50 48 35 31 39 40 40
3470.0 42 36 32 31 27 32 32 34 49 48
3510.0 40 48 57 53 34 30 39 34 20 13
3550.0 16 32 38 28 27 33 31 21 19 25
3590.0 31 20 4 19 39 41 34 23 33 48
3630.0 45 28 16 27 35 37 39 30 34 24
3670.0 17 32 37 27 12 13 35 42 34 39
3710.0 40 30 25 33 39 34 32 36 42 47
3750.0 44 40 35 27 33 40 29 30 39 49
3790.0 44 28 33 36 44 54 39 29 39 50
3830.0 52 53 62 52 41
##END=
