##TITLE=1-Nonadecanol
##JCAMP-DX=4.24
##DATA TYPE=INFRARED SPECTRUM
##ORIGIN=NIST Mass Spectrometry Data Center
##OWNER=NIST Standard Reference Data Program
Collection (C) 2018 copyright by the U.S. Secretary of Commerce
on behalf of the United States of America. All rights reserved.
##CAS REGISTRY NO=1454-84-8
##MOLFORM=C 19 H 40 O
##$NIST SOURCE=MSDC-IR
##SPECTROMETER/DATA SYSTEM=HP-GC/MS/IRD
##STATE=gas
##XUNITS=1/CM
##YUNITS=ABSORBANCE
##XFACTOR=1.0
##YFACTOR=0.000007000
##DELTAX=4.0
##FIRSTX=550.0
##LASTX=3846.0
##FIRSTY=0.000182
##MAXX=3846
##MINX=550
##MAXY=0.07
##MINY=0
##NPOINTS=825
##XYDATA=(X++(Y..Y))
550.0 26 28 25 21 5 3 12 23 28 26
590.0 26 18 15 20 17 21 28 25 21 23
630.0 27 29 28 25 17 20 39 34 26 41
670.0 49 39 43 50 59 67 67 72 94 125
710.0 137 151 162 149 145 140 124 114 116 108
750.0 94 89 85 81 80 76 71 71 70 67
790.0 66 66 64 65 67 58 53 59 34 39
830.0 67 64 64 70 72 74 78 80 82 89
870.0 92 93 97 96 96 100 98 96 103 104
910.0 105 106 102 105 112 114 116 124 129 131
950.0 136 144 153 159 166 173 183 191 208 228
990.0 244 264 285 301 329 363 396 438 486 537
1030.0 581 615 644 663 667 662 638 594 541 490
1070.0 440 395 348 306 271 239 212 187 164 147
1110.0 134 123 118 114 106 102 95 95 96 97
1150.0 99 94 91 94 95 100 103 104 105 108
1190.0 116 122 125 126 126 128 131 136 142 146
1230.0 147 147 146 149 153 155 160 164 165 169
1270.0 175 176 179 187 194 199 204 213 217 221
1310.0 220 218 214 206 207 214 234 271 294 313
1350.0 337 345 342 337 320 309 302 295 294 295
1390.0 275 250 227 197 176 163 163 177 173 175
1430.0 199 247 302 355 434 512 610 681 676 623
1470.0 540 439 328 245 200 168 139 121 107 125
1510.0 115 88 90 88 72 61 59 73 79 61
1550.0 48 59 80 57 34 35 36 31 20 18
1590.0 16 15 16 18 17 15 24 29 24 20
1630.0 19 32 29 24 36 50 53 28 20 24
1670.0 31 32 27 43 45 26 35 57 47 29
1710.0 23 35 41 22 16 32 43 30 22 28
1750.0 36 29 23 21 24 30 23 17 20 16
1790.0 18 18 17 19 12 8 7 5 8 13
1830.0 16 11 7 13 15 7 3 4 6 12
1870.0 12 6 4 3 5 6 5 6 5 4
1910.0 3 5 6 5 1 3 3 3 7 7
1950.0 3 3 4 4 4 5 6 5 5 3
1990.0 6 7 6 6 7 6 11 15 14 14
2030.0 12 12 14 13 10 13 13 9 8 10
2070.0 10 8 7 6 7 5 5 7 5 6
2110.0 3 2 5 4 3 2 3 2 1 0
2150.0 2 5 7 6 4 4 6 6 7 7
2190.0 6 5 5 4 3 3 2 3 5 5
2230.0 5 7 5 6 5 5 6 7 6 7
2270.0 6 7 7 7 8 9 10 10 13 14
2310.0 14 17 19 20 20 19 20 22 20 18
2350.0 19 21 22 23 24 21 19 18 15 11
2390.0 10 9 10 9 10 11 10 11 12 11
2430.0 11 12 12 10 10 11 10 10 11 10
2470.0 8 9 11 12 11 12 17 16 16 17
2510.0 17 17 22 25 26 26 25 24 25 24
2550.0 26 29 33 30 30 31 32 33 34 38
2590.0 41 43 43 46 49 49 51 57 58 60
2630.0 63 65 66 68 74 78 82 86 87 94
2670.0 97 97 100 104 108 110 109 104 102 101
2710.0 102 103 105 107 107 109 114 120 124 129
2750.0 135 137 140 146 153 160 169 179 191 206
2790.0 224 242 262 283 304 334 373 416 464 521
2830.0 594 689 828 1032 1346 1840 2550 3325 3780 3687
2870.0 3260 2808 2475 2269 2148 2107 2170 2370 2707 3164
2910.0 3735 4455 5453 6860 8540 9838 10000 8991 7393 5757
2950.0 4404 3448 2852 2497 2238 1945 1587 1239 973 784
2990.0 645 543 465 403 356 315 280 252 230 210
3030.0 193 175 159 151 141 132 124 115 105 97
3070.0 92 88 80 78 74 67 65 67 66 64
3110.0 61 60 52 51 51 49 47 44 44 45
3150.0 40 41 43 41 39 37 34 35 34 31
3190.0 31 27 27 28 24 22 22 20 20 21
3230.0 21 23 22 20 14 12 17 18 16 14
3270.0 14 12 9 8 9 8 8 7 10 9
3310.0 7 5 9 14 14 10 8 7 6 9
3350.0 9 11 10 5 8 11 12 11 9 10
3390.0 13 11 11 9 7 9 12 10 9 8
3430.0 6 5 6 10 15 16 13 11 8 6
3470.0 5 6 5 4 5 6 5 6 10 9
3510.0 5 4 4 8 12 7 4 1 4 15
3550.0 12 6 8 14 26 18 4 3 8 23
3590.0 28 20 19 20 30 38 38 46 41 50
3630.0 63 47 47 63 97 127 137 154 165 181
3670.0 197 182 140 104 86 75 53 41 34 31
3710.0 38 37 28 33 35 34 44 37 42 53
3750.0 44 28 16 15 18 17 8 13 13 8
3790.0 8 14 20 22 19 17 21 28 25 18
3830.0 16 28 36 26 20
##END=
