##TITLE=3-Methylbenzo[b]thiophene
##JCAMP-DX=4.24
##DATA TYPE=INFRARED SPECTRUM
##ORIGIN=EPA-IR VAPOR PHASE LIBRARY
##OWNER=SRD/NIST
Collection (C) 2018 copyright by the U.S. Secretary of Commerce
on behalf of the United States of America. All rights reserved.
##CAS REGISTRY NO=1455-18-1
##MOLFORM=C 9 H 8 S
##$NIST SOURCE=MSDC-IR
##STATE=gas
##XUNITS=1/CM
##YUNITS=ABSORBANCE
##XFACTOR=1.
##YFACTOR=0.001
##DELTAX=1.92898
##FIRSTX=549.8
##LASTX=4000.7
##FIRSTY=3.87
##MAXX=4000.7
##MINX=549.759
##MAXY=0.04936
##MINY=0
##NPOINTS=1790
##XYDATA=(X++(Y..Y))
549.759 3.87 3.6487 3.4733 3.0599 2.7866 2.66 2.516 3.1309 3.622 2.82865
569.049 2.227 1.52 1.975 3.1254 3.3839 3.401 3.0103 3.3386 2.465 2.081
588.339 2.405 1.811 2.7863 2.9734 2.695 3.2125 3.0724 2.9835 2.9704 2.505
607.628 1.95 2.306 2.7408 3.2329 3.5294 2.8896 2.575 2.88143 3.1902 3.3114
626.918 3.2181 2.9227 2.492 2.361 2.7649 2.9784 2.9928 2.9553 2.89497 3.0471
646.208 3.0279 3.3655 3.5704 3.3385 2.9999 2.9183 2.83662 2.392 2.574 2.7129
665.498 2.79003 2.81364 2.564 3.4306 3.95 3.4535 3.1351 2.959 3.2534 3.2719
684.787 3.1232 3.1808 3.5551 3.81 4.48 5.8 5.91 6.24 6.96 8.08
704.077 9.61 10.84 13.05 15.49 17.58 19.61 21 21.16 21.58 24.16
723.367 33.62 49.36 45.17 28.21 23.65 24.55 26.1 26.84 25.77 23.66
742.657 22.16 22.8 28.51 37.87 36.66 28.3 25.72 26.5 27.51 27.66
761.947 28.64 31.81 38.56 38.18 26.47 19.18 17.56 16.53 15.5 13.82
781.236 11.63 9.65 7.67 5.59 4.61 4.12 3.6632 3.2653 3.2047 3.0568
800.526 2.8832 2.86546 2.9201 3.474 3.376 3.3166 3.6259 3.6953 4.03 4.47
819.816 5.41 7.75 9.51 9.94 11.09 12.93 14.68 15.49 15.42 15.56
839.106 15.37 15.14 15.01 14.19 12.79 10.67 8.28 7.01 5.81 4.82
858.395 4.33 3.3649 3.3994 3.88 3.4537 2.561 3.1208 3.6949 3.2601 3.4359
877.685 3.2169 2.569 2.621 2.79384 2.939 3.0617 3.4439 3.4745 2.9764 2.9515
896.975 3.1547 3.2527 2.9603 3.1664 3.2429 3.1956 3.2623 2.87718 3.2161 3.56
916.265 3.7906 3.8 3.5785 3.6257 3.7459 3.7815 3.6752 3.5312 3.8 4.23
935.555 3.98 3.783 3.7483 3.6912 3.3591 3.1628 3.4306 3.91 3.92 3.5515
954.844 3.1457 2.678 3.081 3.5877 3.83 4.36 4.06 3.87 4.83 5.37
974.134 4.92 4.48 4.23 4.15 4.4 4.79 5.17 5.56 5.55 5.02
993.424 4.44 4.54 4.58 4.27 4.34 3.82 4.56 5.41 6.32 7.74
1012.714 7.76 7.76 7.89 7.76 7.07 6.43 6.36 6.45 5.96 5.07
1032.003 4.63 3.89 2.9463 2.87258 3.432 3.3617 3.82 4.62 4.87 4.42
1051.293 3.82 4.75 5.5 4.78 5.65 6.4 5.56 5.63 5.97 6.24
1070.583 6.98 7.24 7.22 8.67 9.83 10.34 10.11 11.45 12.53 11.78
1089.873 11.75 11.57 12.33 11.03 7.81 5.49 4.89 5.15 4.88 3.5869
1109.163 2.85229 3.0903 3.7062 4.05 2.532 2.691 4.4 4.22 3.4323 4.13
1128.452 4.74 4.68 4.65 4.51 4.68 5.28 4.11 3.7126 4.5 4.78
1147.742 5.53 6.51 6.64 5.65 5.79 5.7 4.88 4.82 5 4.87
1167.032 4.36 4.29 4.58 3.84 3.1646 3.3007 2.744 2.176 2.504 2.359
1186.322 2.134 2.533 1.46 0.21 1.44 1.991 0.35 0 1.25 1.44
1205.611 1.42 0.74 0.32 1.4 2.057 3.2543 3.2094 2.587 3.4153 2.995
1224.901 2.7894 2.87782 2.7135 2.9375 2.482 3.4 3.83 3.3879 4.15 4.74
1244.191 4.66 5.24 5.76 5.78 6.01 6.56 7.15 7.15 7.34 7.45
1263.481 7.69 7.56 6.92 6.92 7.01 6.33 5.69 5.49 5.53 5.46
1282.771 4.8 4.64 4.63 4.5 4.48 4.33 4.34 4.73 5.02 4.79
1302.060 4.97 5.24 5.28 5.35 5.34 5.49 5.58 5.49 5.44 5.43
1321.350 5.45 5.17 4.88 5.01 5.23 5.45 5.69 6.08 6.44 6.77
1340.640 7.47 8.1 8.44 8.64 8.68 8.39 8.2 8.36 8.16 7.62
1359.930 6.75 5.81 5.31 4.91 4.47 4.22 4.31 4.47 4.44 4.62
1379.219 4.9 5.09 5.13 5.02 4.95 4.97 4.9 4.8 4.57 4.43
1398.509 4.38 4.37 4.6 4.91 5.45 6.07 6.8 7.69 8.73 10.04
1417.799 11.12 11.92 12.65 13.35 13.87 14.08 14.19 14.25 14.03 13.41
1437.089 12.81 12.13 11.48 11.26 11.37 11.68 11.48 11.22 11.41 11.72
1456.378 11.84 11.65 11.5 11.38 11.03 10.49 10.24 9.82 8.83 7.91
1475.668 7.14 6.29 6 6.01 5.67 5.42 5.49 5.72 5.81 5.45
1494.958 5.2 5.35 5.38 5.37 5.51 5.56 5.88 6.2 6.35 6.5
1514.248 6.84 7.16 7.31 7.64 7.93 7.79 7.6 7.44 7.35 7.36
1533.538 6.94 6.38 6.05 5.88 5.45 4.91 4.39 3.85 3.6201 3.5975
1552.827 3.6981 3.87 4.12 4.34 4.39 4.33 4.26 4.25 4.38 4.22
1572.117 4.2 4.63 4.81 4.69 4.74 4.86 4.75 4.72 4.7 4.61
1591.407 4.63 4.83 5.04 4.87 4.31 4.24 4.5 4.38 4.01 3.84
1610.697 3.736 3.7951 3.88 3.4005 3.1838 3.1858 3.3054 3.4139 3.2359 3.1454
1629.986 3.1284 3.2251 3.3864 3.2778 3.2017 3.1689 3.4793 3.8 3.6423 3.4943
1649.276 3.4366 3.6846 3.88 3.7828 3.6116 3.4791 3.4265 3.3977 3.4307 3.7051
1668.566 4.07 3.95 3.89 4.08 4.03 4.16 4.23 4.09 4.14 4.01
1687.856 3.92 3.7296 3.5372 3.6639 3.6976 3.4141 3.2354 3.2968 3.178 2.9826
1707.146 2.9139 2.89253 2.88337 2.917 2.84448 2.88156 3.0392 3.0247 2.939 2.9538
1726.435 3.0193 3.18 3.1929 2.9448 2.9893 3.0188 2.9734 3.0643 2.9074 2.7033
1745.725 2.80035 2.9933 2.9882 2.9585 3.1489 3.2216 3.2291 3.4019 3.6014 3.7266
1765.015 3.7811 4.08 4.38 4.33 4.24 4.17 4.1 3.98 4.02 3.98
1784.305 3.84 3.7047 3.3769 3.3568 3.488 3.4714 3.5829 3.6416 3.5791 3.6689
1803.594 3.7946 3.81 3.6972 3.6524 3.7342 3.6858 3.4626 3.2289 3.0923 3.0599
1822.884 3.1044 2.9508 2.7176 2.7398 2.83552 2.7897 2.7263 2.7085 2.637 2.57
1842.174 2.594 2.673 2.81477 2.9546 2.9548 3.0307 3.2215 3.3797 3.2837 3.1101
1861.464 3.2335 3.3458 3.3392 3.4349 3.4895 3.3131 3.0332 2.9688 3.1364 3.2368
1880.754 3.3959 3.5509 3.6267 3.7711 3.9 4.01 4.23 4.25 4.19 4.12
1900.043 3.81 3.738 3.6715 3.3497 3.1933 3.3151 3.28 3.3564 3.4838 3.5987
1919.333 3.7525 3.7479 3.96 4.09 4.02 4.06 4.12 3.96 3.92 3.9
1938.623 3.6867 3.4573 3.1275 2.84851 2.648 2.539 2.605 2.7621 2.85219 2.693
1957.913 2.5 2.588 2.7135 2.7517 2.7634 2.525 2.444 2.562 2.526 2.542
1977.202 2.7034 2.69 2.497 2.508 2.635 2.642 2.665 2.7522 2.81878 2.85481
1996.492 2.9341 2.9193 2.7156 2.695 2.87021 2.9838 2.89331 2.7349 2.683 2.767
2015.782 2.7073 2.617 2.689 2.679 2.673 2.604 2.464 2.447 2.404 2.206
2035.072 2.212 2.494 2.617 2.607 2.459 2.346 2.336 2.464 2.79907 2.629
2054.362 2.273 2.599 2.692 2.39 2.457 2.579 2.511 2.52 2.49 2.438
2073.651 2.584 2.551 2.525 2.658 2.79482 2.7798 2.611 2.464 2.443 2.555
2092.941 2.554 2.573 2.685 2.7029 2.649 2.672 2.687 2.524 2.561 2.573
2112.231 2.562 2.699 2.675 2.593 2.521 2.458 2.278 2.459 2.7096 2.448
2131.521 2.382 2.397 2.431 2.381 2.432 2.481 2.373 2.319 2.408 2.465
2150.810 2.443 2.535 2.563 2.654 2.606 2.533 2.51 2.459 2.375 2.198
2170.100 2.221 2.49 2.592 2.526 2.629 2.80452 2.7303 2.595 2.7382 2.89538
2189.390 2.666 2.442 2.593 2.83378 2.7089 2.566 2.662 2.514 2.451 2.564
2208.680 2.415 2.312 2.516 2.634 2.7161 2.548 2.488 2.7318 2.7373 2.677
2227.970 2.7158 2.668 2.643 2.79266 2.82635 2.7795 2.688 2.64 2.549 2.599
2247.259 2.732 2.7847 2.672 2.553 2.508 2.581 2.602 2.639 2.82841 2.674
2266.549 2.446 2.505 2.582 2.672 2.87279 2.7452 2.508 2.617 2.7265 2.634
2285.839 2.488 2.486 2.417 2.4 2.564 2.647 2.659 2.588 2.509 2.406
2305.129 2.374 2.418 2.425 2.435 2.558 2.7114 2.691 2.53 2.542 2.80635
2324.418 2.964 3.001 2.85276 2.61 2.9108 3.1064 2.83942 2.9061 3.2158 3.0394
2343.708 3.0472 2.9959 2.532 2.65 2.9448 3.0041 2.9815 2.7768 2.7228 2.89822
2362.998 3.0681 2.88751 2.651 2.673 2.81909 2.82893 2.56 2.518 2.559 2.641
2382.288 2.453 2.265 2.398 2.64 3.0822 3.0078 2.682 2.598 2.55 2.67
2401.578 2.7579 2.647 2.59 2.643 2.628 2.683 2.7399 2.678 2.568 2.537
2420.867 2.7413 2.9313 2.81954 2.79541 2.7367 2.7005 2.744 2.525 2.697 2.8809
2440.157 2.7142 2.437 2.42 2.554 2.458 2.508 2.7495 2.89487 2.7085 2.485
2459.447 2.594 2.7733 2.7198 2.729 2.7147 2.696 2.601 2.54 2.7703 2.57
2478.737 2.33 2.346 2.337 2.294 2.289 2.409 2.63 2.9217 2.716 2.522
2498.026 2.581 2.562 2.503 2.464 2.7694 3.0597 2.86666 2.476 2.285 2.396
2517.316 2.622 2.599 2.581 2.536 2.424 2.459 2.438 2.403 2.473 2.626
2536.606 2.607 2.422 2.458 2.636 2.7389 2.664 2.7315 2.7156 2.581 2.778
2555.896 2.84872 2.612 2.61 2.85503 3.0168 2.9595 2.82163 2.559 2.356 2.352
2575.186 2.178 2.199 2.472 2.332 2.339 2.7552 2.579 2.64 3.0203 2.9049
2594.475 2.81035 2.7602 2.372 2.477 2.84136 3.0224 3.0503 2.9255 3.0274 2.9758
2613.765 2.9542 3.1458 2.9427 2.669 2.7302 2.648 2.499 2.568 2.9466 3.1105
2633.055 2.9386 2.65 2.37 2.463 2.557 2.658 2.79197 2.7338 2.63 2.7217
2652.345 2.488 2.271 2.371 2.442 2.375 2.395 2.572 2.86609 2.7253 2.418
2671.634 2.615 2.324 2.266 2.7713 2.89675 2.7724 2.409 2.395 2.36 2.386
2690.924 2.613 2.163 2.279 2.733 2.7145 2.666 2.621 2.616 2.504 2.461
2710.214 2.653 2.569 2.685 2.7472 2.64 2.87686 2.7894 2.452 2.623 2.769
2729.504 2.80488 2.9973 2.631 2.483 3.0441 3.3408 3.2956 3.2262 2.9147 2.7618
2748.794 2.9896 3.0154 2.7629 2.84957 3.3638 3.1679 2.511 2.564 2.83356 2.89463
2768.083 2.7308 2.5 2.61 2.7205 2.7985 2.79759 2.608 2.587 2.652 2.453
2787.373 2.643 3.0829 3.0156 2.9352 2.80533 2.7258 2.66 2.482 2.693 2.9104
2806.663 2.687 2.469 2.663 3.1142 3.0372 2.7558 3.0444 3.1486 2.616 2.7455
2825.953 3.1941 3.242 3.3384 3.343 3.1534 3.4766 3.7263 3.6231 3.7419 3.97
2845.242 4.1 4.02 4.24 4.47 5.08 5.6 5.97 6.4 6.61 6.96
2864.532 7.37 8.08 8.75 8.85 8.79 8.64 8.58 8.62 8.67 8.76
2883.822 8.68 8.37 7.99 7.66 7.24 6.86 6.75 7.05 6.91 6.47
2903.112 6.97 7.57 7.6 7.81 8.64 9.47 10.05 11.1 12.28 13.24
2922.401 14.6 15.46 15.91 16.18 16.39 16.9 16.99 16.93 16.49 15.86
2941.691 14.84 13.63 12.84 12.51 12.98 12.93 12.03 11.08 10.41 10.08
2960.981 9.85 9.8 9.62 9.1 8.79 9.08 10.13 11.38 11.57 11.14
2980.271 11.09 11.09 11.19 11.25 10.59 9.67 8.75 8.29 7.99 6.82
2999.561 6.13 6.86 7.03 6.56 6.54 6.24 5.69 5.61 5.89 6.31
3018.850 6.75 7.1 7.59 7.67 7.45 7.45 7.38 7.75 8.39 8.58
3038.140 8.42 8.4 8.78 8.79 8.74 9.04 10.01 11.27 12.42 14.12
3057.430 15.58 17.88 20.41 21.84 23.71 25.12 25.35 25.65 25.47 24.97
3076.720 24.57 23.76 22.17 20.05 17.84 15.41 13.21 11.78 10.16 8.72
3096.009 7.71 7.03 6.99 6.74 6.26 5.59 5.14 5.31 5.14 4.55
3115.299 4.45 4.27 4.14 3.95 3.46 3.3145 3.1389 3.1667 3.6389 3.4116
3134.589 2.9957 2.9589 2.9639 3.0915 2.672 2.201 2.309 2.658 2.79621 2.667
3153.879 2.236 2.012 2.463 2.625 2.65 2.081 1.77 2.257 2.4 2.226
3173.169 2.386 2.585 2.8541 3.2478 2.83204 2.421 2.426 2.624 2.651 2.588
3192.458 2.437 2.472 2.602 3.0373 3.4882 3.2523 2.85008 2.374 2.345 2.414
3211.748 2.448 2.405 2.629 2.635 2.303 2.637 2.81279 2.83962 2.88726 2.9507
3231.038 2.9653 2.689 2.057 2.176 2.478 2.544 2.407 2.419 2.598 2.438
3250.328 2.261 2.269 2.482 2.361 2.291 2.317 2.7269 2.494 2.092 2.382
3269.617 2.342 2.395 2.353 2.199 2.79687 2.88067 2.542 2.418 2.208 2.336
3288.907 2.281 2.419 2.558 2.487 2.7143 2.696 2.384 2.115 2.051 2.384
3308.197 2.9001 3.1535 3.3406 2.88399 2.658 2.9331 2.9184 2.9799 2.9602 3.3002
3327.487 3.048 2.505 2.7017 2.457 2.527 2.7772 2.9286 2.9299 2.644 2.9357
3346.777 2.9759 2.575 2.416 2.43 2.619 2.471 2.269 2.80567 2.978 2.89487
3366.066 2.9241 2.7747 2.675 2.552 2.7827 3.0958 2.9388 2.9665 2.7847 2.155
3385.356 2.403 2.595 2.471 2.328 1.845 2.077 2.484 2.7463 2.408 2.366
3404.646 2.163 1.7 1.936 2.048 2.7234 2.7783 2.392 2.456 2.314 2.304
3423.936 2.636 2.7025 2.561 2.7234 2.6 2.6 2.637 2.563 2.394 2.611
3443.225 2.338 2.043 2.635 2.426 2.56 2.7751 2.176 1.55 1.73 2.335
3462.515 2.259 2.243 2.338 2.101 2.51 3.3343 3.0177 2.562 2.696 2.527
3481.805 2.001 2.263 2.607 2.136 1.77 1.991 2.225 2.299 2.11 2.047
3501.095 2.329 2.4 2.18 1.814 1.873 2.479 3.0222 3.098 2.9574 2.534
3520.385 2.326 2.524 2.81121 2.367 2.403 2.84159 2.334 2.2 2.141 2.057
3539.674 2.79157 3.4311 3.1085 2.86248 3.153 2.558 2.113 2.80835 3.213 2.9489
3558.964 2.53 2.465 2.432 2.323 2.7567 3.0323 2.458 2.158 2.441 2.481
3578.254 2.7439 2.682 2.133 2.525 2.9006 2.7458 2.573 2.458 2.389 2.7032
3597.544 2.668 2.7084 2.64 2.14 2.547 2.7596 2.541 3.0042 3.1405 2.85114
3616.833 2.9743 2.82917 2.598 2.7655 2.619 1.823 2.076 2.378 2.01 1.921
3636.123 2.316 2.57 2.432 2.7287 2.9617 3.0257 3.2306 2.84667 2.305 2.421
3655.413 2.9265 2.9788 2.86349 3.0451 2.89332 2.348 2.273 2.635 2.595 2.635
3674.703 2.7527 2.561 2.7455 3.008 2.9346 3.123 3.0839 2.616 2.7093 3.608
3693.993 3.4747 2.644 2.7079 2.345 1.37 1.55 2.226 2.342 2.562 3.0915
3713.282 2.84251 2.136 1.862 2.362 3.2645 3.2096 2.88599 2.7357 2.174 2.28
3732.572 2.667 2.81841 3.0974 3.0888 2.9228 2.587 2.565 2.641 2.561 2.7594
3751.862 2.209 2.028 2.476 2.694 3.0015 3.0188 2.651 2.471 2.85425 2.684
3771.152 2.455 2.386 2.435 2.695 2.932 3.0456 2.326 2.023 2.18 2.104
3790.441 1.882 1.71 1.962 2.579 3.1433 2.79268 2.491 2.407 2.268 2.487
3809.731 2.7119 2.83142 2.226 2.127 2.7061 2.7133 3.0891 3.4434 3.066 2.485
3829.021 2.23 2.695 2.79351 2.584 3.0109 3.2598 2.83626 2.677 2.9432 2.577
3848.311 2.411 2.7367 3.4841 3.4186 2.88492 2.7183 2.59 2.494 1.997 2.373
3867.601 2.9585 3.2635 2.9582 2.623 2.7519 2.556 2.375 2.256 2.435 2.469
3886.890 3.0258 3.5363 3.2099 2.508 2.208 2.7846 3.2046 3.0628 2.7031 2.8312
3906.180 3.0916 3.0305 2.635 2.85245 3.2205 2.554 2.326 2.207 2.171 2.69
3925.470 2.308 2.415 2.83673 2.995 3.1647 3.0093 2.9868 2.9662 2.9791 2.9054
3944.760 2.9948 2.9777 2.9966 2.79084 2.7024 2.85218 2.7634 2.429 2.26 2.339
3964.049 2.393 2.7239 2.664 2.468 2.545 2.282 2.347 2.097 1.4 1.71
3983.339 2.059 1.923 2.062 2.26 2.231 2.384 2.528 2.589 2.612 2.385
##END=
