##TITLE=3,9-Bis(1,1-Dimethyl-2-hydroxyethyl)2,4,8,10-tetraoxaspiro[5,5]undecane
##JCAMP-DX=4.24
##DATA TYPE=INFRARED SPECTRUM
##ORIGIN=EPA-IR VAPOR PHASE LIBRARY
##OWNER=SRD/NIST
Collection (C) 2018 copyright by the U.S. Secretary of Commerce
on behalf of the United States of America. All rights reserved.
##CAS REGISTRY NO=1455-42-1
##MOLFORM=C 15 H 28 O 6
##$NIST SOURCE=MSDC-IR
##STATE=gas
##XUNITS=1/CM
##YUNITS=ABSORBANCE
##XFACTOR=1.
##YFACTOR=0.001
##DELTAX=1.92934
##FIRSTX=549.9
##LASTX=3999.5
##FIRSTY=0.6109
##MAXX=3999.53
##MINX=549.863
##MAXY=0.019294
##MINY=0
##NPOINTS=1789
##XYDATA=(X++(Y..Y))
549.863 0.6109 0.5895 0.5585 0.4962 0.4503 0.4618 0.5567 0.719 0.6949 0.4844
569.156 0.37067 0.4692 0.5584 0.4891 0.3361 0.2922 0.4715 0.4692 0.38622 0.5864
588.450 0.592 0.42378 0.43582 0.5312 0.5603 0.4831 0.4487 0.4354 0.41201 0.44196
607.743 0.4099 0.38469 0.41972 0.42436 0.43499 0.40658 0.477 0.4812 0.41461 0.40333
627.037 0.3027 0.2649 0.346507 0.40467 0.37959 0.41456 0.35414 0.34027 0.39533 0.37349
646.330 0.40697 0.4196 0.41963 0.41045 0.43961 0.4628 0.4524 0.39301 0.42038 0.41448
665.624 0.3239 0.43209 0.5137 0.4557 0.4452 0.4757 0.4467 0.40043 0.39926 0.43504
684.917 0.43263 0.41029 0.43865 0.4875 0.5125 0.5177 0.5432 0.6056 0.6584 0.7178
704.210 0.8279 1.1083 1.594 2.084 2.464 2.584 2.384 1.984 1.574 1.2203
723.504 1.0069 0.9181 0.8067 0.7284 0.688 0.6604 0.5908 0.5208 0.5293 0.4879
742.797 0.4698 0.4605 0.4787 0.5251 0.5311 0.4679 0.42816 0.4832 0.4828 0.4821
762.091 0.5117 0.5009 0.4751 0.4444 0.42894 0.452 0.5076 0.4627 0.4641 0.6217
781.384 0.6421 0.5711 0.5429 0.5758 0.6444 0.6876 0.649 0.5539 0.5187 0.5328
800.678 0.531 0.5527 0.597 0.5573 0.5447 0.5603 0.5594 0.5666 0.6221 0.6167
819.971 0.5625 0.5916 0.6069 0.6035 0.5802 0.5066 0.5245 0.539 0.5305 0.5813
839.264 0.5698 0.5966 0.5954 0.5463 0.5167 0.5417 0.5926 0.5917 0.5716 0.5221
858.558 0.5204 0.5866 0.6209 0.6365 0.6594 0.6612 0.6565 0.6351 0.6239 0.6823
877.851 0.7297 0.737 0.7956 0.796 0.7884 0.8791 0.9566 0.9868 1.0403 1.098
897.145 1.1381 1.1881 1.2328 1.2912 1.3375 1.344 1.374 1.434 1.444 1.464
916.438 1.484 1.494 1.494 1.464 1.454 1.494 1.584 1.734 1.934 2.124
935.732 2.294 2.454 2.614 2.794 2.944 3.094 3.274 3.434 3.524 3.514
955.025 3.434 3.274 3.084 2.884 2.674 2.454 2.314 2.194 2.044 1.964
974.318 1.994 2.014 2.044 2.124 2.124 2.154 2.274 2.364 2.414 2.454
993.612 2.544 2.714 2.884 3.034 3.194 3.374 3.504 3.594 3.654 3.724
1012.905 3.874 4.034 4.184 4.414 4.714 5.064 5.504 6.014 6.494 6.904
1032.199 7.274 7.674 8.064 8.314 8.524 8.854 9.214 9.484 9.654 9.764
1051.492 9.764 9.604 9.314 8.924 8.514 8.094 7.644 7.244 6.924 6.664
1070.786 6.534 6.614 6.934 7.594 8.694 10.324 12.364 14.654 16.904 18.624
1090.079 19.294 18.624 16.854 14.554 12.234 10.184 8.574 7.284 6.314 5.564
1109.372 4.994 4.574 4.244 4.164 4.104 4.114 4.394 4.634 4.794 5.014
1128.666 5.154 5.224 5.154 5.054 4.874 4.584 4.424 4.394 4.394 4.544
1147.959 4.894 5.354 5.834 6.314 7.134 8.204 9.144 9.884 10.324 10.494
1167.253 10.294 9.554 8.534 7.434 6.474 5.644 4.924 4.624 4.584 4.624
1186.546 4.764 5.014 5.244 5.424 5.574 5.674 5.734 5.404 4.824 4.384
1205.840 3.994 3.564 3.244 3.144 2.764 2.404 2.414 2.444 2.344 2.114
1225.133 2.084 2.014 1.854 1.764 1.784 1.864 1.844 1.834 1.874 1.964
1244.426 1.894 1.884 2.004 2.004 1.974 1.834 1.654 1.534 1.444 1.394
1263.720 1.3169 1.1901 1.169 1.2025 1.1964 1.0887 1.0853 1.1481 1.1568 1.1648
1283.013 1.1216 1.1293 1.1399 1.1836 1.1355 1.0619 1.0526 1.0996 1.1444 1.1114
1302.307 1.057 1.0119 1.0027 1.0295 1.0383 1.0212 1.041 1.1062 1.1586 1.2211
1321.600 1.3108 1.434 1.524 1.594 1.664 1.674 1.644 1.574 1.534 1.504
1340.894 1.374 1.3029 1.3069 1.3091 1.271 1.2925 1.384 1.454 1.574 1.804
1360.187 2.044 2.304 2.624 2.924 3.194 3.424 3.614 3.814 3.904 3.914
1379.480 3.854 3.644 3.324 3.004 2.804 2.694 2.634 2.604 2.604 2.634
1398.774 2.664 2.674 2.674 2.644 2.584 2.494 2.434 2.424 2.344 2.224
1418.067 2.134 2.014 1.864 1.684 1.504 1.384 1.2909 1.2538 1.1928 1.1586
1437.361 1.1973 1.1593 1.1421 1.213 1.3 1.384 1.464 1.634 1.894 2.104
1456.654 2.304 2.434 2.484 2.544 2.664 2.764 2.814 2.924 3.054 3.134
1475.948 3.234 3.224 3.104 2.834 2.474 2.144 1.794 1.474 1.2152 1.039
1495.241 0.9443 0.8571 0.7947 0.7494 0.6901 0.6354 0.644 0.7024 0.6822 0.6056
1514.534 0.5919 0.5936 0.5609 0.5464 0.5365 0.554 0.565 0.5117 0.4774 0.5112
1533.828 0.5429 0.5054 0.477 0.44214 0.4287 0.4868 0.4893 0.4418 0.4483 0.4549
1553.121 0.4476 0.473 0.4551 0.4688 0.4707 0.42475 0.42529 0.4588 0.4763 0.4443
1572.415 0.43373 0.42387 0.43701 0.4488 0.40912 0.36862 0.38776 0.42602 0.41494 0.39908
1591.708 0.36206 0.352064 0.3786 0.38159 0.37262 0.38225 0.40988 0.43714 0.42078 0.35783
1611.002 0.36482 0.38714 0.39572 0.41239 0.36167 0.36386 0.39851 0.39958 0.38764 0.353786
1630.295 0.344637 0.36402 0.41583 0.43034 0.36768 0.345995 0.349936 0.348223 0.40189 0.4074
1649.588 0.35883 0.38396 0.42445 0.39896 0.34732 0.3334 0.35404 0.37898 0.38648 0.36987
1668.882 0.37994 0.37272 0.38496 0.43731 0.40345 0.36936 0.38774 0.39037 0.42833 0.39811
1688.175 0.349136 0.36407 0.346221 0.37974 0.42491 0.41304 0.39249 0.35824 0.36341 0.36271
1707.469 0.3775 0.41142 0.41283 0.39937 0.38996 0.4476 0.43202 0.36489 0.38772 0.43523
1726.762 0.41456 0.40393 0.42569 0.4482 0.4483 0.381 0.350837 0.348448 0.39035 0.4182
1746.056 0.40316 0.39083 0.39714 0.3908 0.38372 0.41132 0.38738 0.343353 0.36035 0.38121
1765.349 0.35917 0.38895 0.37791 0.347047 0.3312 0.33591 0.352438 0.36327 0.40825 0.40112
1784.642 0.39631 0.40336 0.40038 0.39136 0.36801 0.3326 0.37281 0.39688 0.36541 0.349476
1803.936 0.34289 0.36065 0.36239 0.36881 0.38924 0.3768 0.34168 0.34045 0.346994 0.352421
1823.229 0.3854 0.41748 0.3867 0.3595 0.34039 0.3334 0.3281 0.3067 0.3089 0.3221
1842.523 0.3318 0.35621 0.36282 0.37441 0.3289 0.2904 0.344467 0.348539 0.3321 0.315
1861.816 0.2756 0.2768 0.34048 0.35926 0.33702 0.3174 0.3279 0.34394 0.345433 0.347157
1881.110 0.351975 0.36086 0.343562 0.3307 0.3286 0.3204 0.3044 0.2927 0.3158 0.36295
1900.403 0.345565 0.3278 0.3156 0.2648 0.2863 0.3179 0.3204 0.2961 0.2747 0.3054
1919.696 0.3109 0.3316 0.3256 0.3016 0.3039 0.2759 0.2912 0.3267 0.332 0.3286
1938.990 0.344954 0.3693 0.36919 0.3505 0.33906 0.3139 0.3151 0.34937 0.33582 0.304
1958.283 0.312 0.3036 0.3264 0.36543 0.32 0.3101 0.3147 0.3013 0.3075 0.33561
1977.577 0.34229 0.3222 0.36446 0.35757 0.351049 0.40002 0.405 0.36073 0.3323 0.38257
1996.870 0.38369 0.36166 0.37671 0.37804 0.38119 0.351089 0.331 0.33932 0.3227 0.3318
2016.164 0.36117 0.351848 0.3281 0.3325 0.346681 0.36287 0.353052 0.33996 0.36659 0.36681
2035.457 0.36897 0.3771 0.37165 0.36638 0.346737 0.33851 0.34135 0.353925 0.39407 0.38525
2054.750 0.36071 0.40214 0.38834 0.38185 0.38339 0.36854 0.38997 0.38326 0.38564 0.37299
2074.044 0.3395 0.3159 0.3317 0.36821 0.33821 0.3156 0.344949 0.345192 0.3132 0.3101
2093.337 0.324 0.3338 0.3043 0.2799 0.2779 0.2795 0.2791 0.2719 0.2754 0.2936
2112.631 0.3124 0.3011 0.3158 0.3115 0.301 0.2724 0.267 0.278 0.2541 0.231
2131.924 0.2448 0.297 0.3056 0.2771 0.2466 0.2518 0.253 0.238 0.2494 0.2724
2151.218 0.2771 0.2483 0.229 0.242 0.226 0.22 0.199 0.205 0.217 0.211
2170.511 0.2454 0.2479 0.2598 0.238 0.202 0.211 0.2493 0.2666 0.2522 0.2834
2189.804 0.2882 0.244 0.2454 0.218 0.192 0.241 0.2533 0.239 0.2536 0.2589
2209.098 0.232 0.24 0.233 0.207 0.205 0.191 0.172 0.212 0.242 0.231
2228.391 0.2444 0.227 0.2 0.214 0.211 0.201 0.209 0.213 0.217 0.218
2247.685 0.205 0.191 0.206 0.229 0.236 0.239 0.234 0.239 0.232 0.2571
2266.978 0.2785 0.2548 0.2608 0.2762 0.2654 0.231 0.229 0.244 0.237 0.243
2286.272 0.222 0.197 0.231 0.24 0.235 0.2501 0.238 0.2594 0.2704 0.2645
2305.565 0.226 0.189 0.217 0.232 0.243 0.232 0.217 0.223 0.265 0.2904
2324.858 0.2514 0.219 0.223 0.224 0.24 0.239 0.195 0.209 0.194 0.18
2344.152 0.191 0.19 0.206 0.205 0.231 0.2612 0.2582 0.2691 0.2622 0.218
2363.445 0.239 0.2526 0.225 0.228 0.239 0.266 0.2538 0.242 0.2533 0.197
2382.739 0.177 0.209 0.196 0.228 0.229 0.182 0.199 0.191 0.182 0.223
2402.032 0.224 0.188 0.172 0.172 0.187 0.181 0.196 0.195 0.159 0.173
2421.326 0.187 0.157 0.151 0.189 0.191 0.179 0.193 0.206 0.209 0.218
2440.619 0.211 0.192 0.198 0.192 0.181 0.161 0.126 0.151 0.197 0.176
2459.912 0.149 0.173 0.176 0.169 0.168 0.167 0.161 0.186 0.186 0.162
2479.206 0.177 0.164 0.131 0.123 0.165 0.165 0.136 0.122 0.115 0.136
2498.499 0.125 0.125 0.138 0.156 0.134 0.107 0.148 0.152 0.122 0.086
2517.793 0.126 0.17 0.16 0.153 0.166 0.171 0.144 0.189 0.224 0.168
2537.086 0.148 0.195 0.171 0.143 0.189 0.193 0.179 0.169 0.146 0.163
2556.380 0.181 0.193 0.184 0.185 0.188 0.149 0.182 0.232 0.213 0.21
2575.673 0.221 0.24 0.214 0.22 0.232 0.211 0.185 0.141 0.212 0.225
2594.966 0.17 0.195 0.221 0.198 0.187 0.181 0.153 0.204 0.215 0.178
2614.260 0.205 0.221 0.209 0.223 0.2993 0.2631 0.2 0.222 0.214 0.204
2633.553 0.2655 0.3336 0.3159 0.3056 0.33843 0.346054 0.353538 0.4177 0.4752 0.4878
2652.847 0.5027 0.5221 0.4896 0.5338 0.5488 0.4629 0.4861 0.502 0.4798 0.4634
2672.140 0.4521 0.4592 0.4503 0.42141 0.37219 0.40312 0.37593 0.3963 0.43443 0.40427
2691.434 0.4127 0.36944 0.40691 0.39631 0.38345 0.5145 0.6036 0.6097 0.6043 0.627
2710.727 0.6563 0.6855 0.6887 0.7016 0.7238 0.6453 0.6003 0.6201 0.6309 0.61
2730.020 0.5696 0.5777 0.5787 0.5515 0.5736 0.6176 0.6078 0.6037 0.6131 0.6276
2749.314 0.6125 0.6164 0.6935 0.7376 0.6826 0.6178 0.6704 0.6904 0.6896 0.7364
2768.607 0.729 0.6884 0.6771 0.7059 0.7455 0.7425 0.7621 0.7748 0.7961 0.8263
2787.901 0.8379 0.8705 0.8875 0.8702 0.9352 0.9799 0.9197 1.011 1.1072 1.1804
2807.194 1.2326 1.2511 1.3415 1.404 1.484 1.594 1.654 1.784 1.984 2.134
2826.488 2.344 2.684 2.974 3.274 3.764 4.244 4.774 5.424 6.094 6.704
2845.781 7.254 7.764 7.914 7.764 7.434 6.894 6.284 5.604 4.944 4.324
2865.074 3.794 3.444 3.274 3.174 3.184 3.294 3.414 3.624 3.764 3.794
2884.368 3.774 3.774 3.664 3.514 3.404 3.184 3.004 2.894 2.774 2.754
2903.661 2.884 3.034 3.104 3.204 3.304 3.424 3.494 3.584 3.654 3.654
2922.955 3.774 3.864 3.964 4.214 4.444 4.604 4.674 4.704 4.804 4.934
2942.248 4.964 5.034 5.164 5.474 5.914 6.394 6.914 7.234 7.264 7.034
2961.542 6.634 6.344 6.064 5.834 5.604 5.384 5.224 4.914 4.684 4.484
2980.835 4.304 4.394 4.574 4.684 4.734 4.614 4.404 4.014 3.274 2.544
3000.128 1.964 1.494 1.1567 0.8591 0.6789 0.6218 0.4776 0.3288 0.40876 0.3789
3019.422 0.3247 0.2791 0.232 0.3096 0.34056 0.2883 0.197 0.166 0.151 0.089
3038.715 0.098 0.155 0.164 0.163 0.141 0.154 0.157 0.17 0.181 0.203
3058.009 0.239 0.196 0.219 0.2468 0.22 0.206 0.194 0.182 0.177 0.206
3077.302 0.146 0.063 0.086 0.154 0.221 0.192 0.204 0.2681 0.2636 0.107
3096.596 0.099 0.2473 0.233 0.214 0.118 0.097 0.181 0.169 0.122 0.08
3115.889 0.066 0.149 0.116 0.108 0.218 0.2507 0.165 0.105 0.128 0.16
3135.182 0.2 0.185 0.145 0.085 0.136 0.2643 0.149 0 0.006 0.123
3154.476 0.221 0.154 0.17 0.187 0.174 0.2486 0.2929 0.181 0.086 0.161
3173.769 0.196 0.2 0.2674 0.2709 0.192 0.241 0.197 0.156 0.192 0.074
3193.063 0.073 0.161 0.124 0.13 0.17 0.167 0.199 0.2492 0.2481 0.187
3212.356 0.151 0.094 0.161 0.2654 0.236 0.199 0.126 0.153 0.194 0.096
3231.650 0.187 0.2709 0.142 0.184 0.3146 0.3212 0.3105 0.2467 0.176 0.3059
3250.943 0.40185 0.33538 0.2772 0.198 0.177 0.234 0.2519 0.141 0.116 0.116
3270.236 0.099 0.146 0.064 0.038 0.129 0.2544 0.157 0.163 0.2975 0.121
3289.530 0.11 0.2823 0.2646 0.264 0.2469 0.189 0.22 0.173 0.138 0.101
3308.823 0.199 0.3206 0.3194 0.2967 0.214 0.144 0.2465 0.243 0.226 0.2778
3328.117 0.312 0.36827 0.36299 0.349878 0.3046 0.2613 0.082 0.032 0.185 0.314
3347.410 0.2986 0.2582 0.36368 0.455 0.2769 0.2501 0.37274 0.177 0.138 0.235
3366.704 0.237 0.228 0.2486 0.3301 0.3159 0.2652 0.2795 0.4006 0.43582 0.43021
3385.997 0.409 0.34094 0.3248 0.38579 0.41217 0.33777 0.40533 0.40474 0.37984 0.38885
3405.290 0.289 0.33422 0.41614 0.3059 0.38091 0.44207 0.37902 0.33849 0.3239 0.40749
3424.584 0.4614 0.36373 0.2783 0.2731 0.19 0.2843 0.42521 0.3337 0.2568 0.3018
3443.877 0.36561 0.38116 0.39575 0.35671 0.3109 0.36 0.38607 0.4951 0.5833 0.5252
3463.171 0.4969 0.38969 0.38175 0.4769 0.4494 0.40593 0.34029 0.38444 0.42524 0.41899
3482.464 0.39758 0.2915 0.412 0.4517 0.3265 0.35782 0.40625 0.5108 0.5136 0.4743
3501.758 0.4448 0.2908 0.199 0.173 0.2667 0.43579 0.43036 0.33487 0.36179 0.343483
3521.051 0.347411 0.38185 0.3832 0.39519 0.4034 0.43572 0.4504 0.38553 0.2689 0.37562
3540.344 0.4794 0.5034 0.4897 0.44069 0.39818 0.35488 0.41027 0.36738 0.38252 0.3991
3559.638 0.39818 0.40778 0.36786 0.4947 0.5238 0.5102 0.5046 0.43232 0.5132 0.5755
3578.931 0.5312 0.5047 0.5789 0.6513 0.687 0.7232 0.8859 1.2352 1.534 1.804
3598.225 2.114 2.414 2.644 2.814 2.934 2.994 2.874 2.594 2.484 2.264
3617.518 1.954 1.774 1.604 1.484 1.3276 1.2486 1.2623 1.1329 0.9821 0.9478
3636.812 0.8991 0.7812 0.8058 0.7357 0.5796 0.5727 0.5874 0.5666 0.5941 0.6901
3656.105 0.6586 0.6354 0.6053 0.7071 0.8877 0.9624 1.0724 1.1596 1.1819 1.1066
3675.398 1.0534 0.9842 0.915 0.8433 0.7279 0.7556 0.7477 0.565 0.4797 0.3959
3694.692 0.3568 0.38389 0.38297 0.39747 0.35847 0.2634 0.206 0.33603 0.4523 0.4505
3713.985 0.40189 0.2948 0.189 0.23 0.38812 0.40622 0.39588 0.4085 0.4064 0.44379
3733.279 0.39643 0.37104 0.38519 0.42116 0.4943 0.4614 0.346414 0.282 0.3164 0.348262
3752.572 0.2697 0.2833 0.3146 0.3187 0.3288 0.301 0.33685 0.33688 0.2828 0.3693
3771.866 0.37709 0.239 0.222 0.2684 0.2622 0.169 0.155 0.227 0.179 0.199
3791.159 0.3297 0.3279 0.2693 0.242 0.3234 0.2787 0.2592 0.234 0.126 0.239
3810.452 0.2588 0.2553 0.3021 0.215 0.23 0.2748 0.194 0.18 0.209 0.221
3829.746 0.184 0.203 0.232 0.235 0.3142 0.2548 0.2511 0.2675 0.26 0.36046
3849.039 0.36449 0.36104 0.40429 0.41414 0.3142 0.191 0.237 0.3333 0.346511 0.2703
3868.333 0.229 0.3322 0.42539 0.33659 0.212 0.2442 0.3276 0.3045 0.2976 0.2824
3887.626 0.181 0.224 0.324 0.305 0.2858 0.239 0.214 0.3133 0.3032 0.206
3906.920 0.185 0.236 0.211 0.159 0.2 0.105 0.083 0.172 0.129 0.102
3926.213 0.164 0.2446 0.2768 0.3048 0.2684 0.189 0.128 0.168 0.226 0.245
3945.506 0.2536 0.2499 0.193 0.127 0.194 0.2759 0.2699 0.188 0.186 0.215
3964.800 0.109 0.067 0.149 0.173 0.195 0.206 0.183 0.146 0.174 0.2698
3984.093 0.2 0.119 0.162 0.172 0.145 0.158 0.137 0.1 0.208
##END=
