##TITLE=2,3-Difluorophenylacetonitrile
##JCAMP-DX=4.24
##DATA TYPE=INFRARED SPECTRUM
##ORIGIN=EPA-IR VAPOR PHASE LIBRARY
##OWNER=SRD/NIST
Collection (C) 2018 copyright by the U.S. Secretary of Commerce
on behalf of the United States of America. All rights reserved.
##CAS REGISTRY NO=145689-34-5
##MOLFORM=C 8 H 5 F 2 N
##$NIST SOURCE=MSDC-IR
##STATE=gas
##XUNITS=1/CM
##YUNITS=ABSORBANCE
##XFACTOR=1.
##YFACTOR=0.001
##DELTAX=1.92898
##FIRSTX=549.8
##LASTX=4000.7
##FIRSTY=2.49
##MAXX=4000.7
##MINX=549.759
##MAXY=0.11837
##MINY=0
##NPOINTS=1790
##XYDATA=(X++(Y..Y))
549.759 2.49 3.4 4.64 4.69 3.76 3.72 4.26 4.53 3.74 3.43
569.049 3.52 4.05 4.74 4.25 3.14 3.15 3.42 2.69 2.68 3.45
588.339 3.46 3.01 3.65 4.31 4.42 4.83 4.46 4.27 4.41 4.07
607.628 3.52 3.09 2.61 2.44 2.67 2.97 3.49 2.85 2.5 1.9641
626.918 1.9466 2.48 2.1965 1.9577 1.6039 1.203 1.3246 1.261 0.942 1.308
646.208 2.3992 2.3385 1.7824 1.9153 2.5 2.74 2.1869 2.0974 1.8596 2.1183
665.498 2.6 2.8 2.63 2.3816 3.04 3.89 3.69 3.61 4.16 4.42
684.787 5.02 6.01 6.51 6.84 7.67 7.95 8.06 8.49 8.91 9.48
704.077 9.89 10.39 10.89 12.29 13.62 14.26 14.84 14.85 15.63 16.53
723.367 17.18 17.12 17.08 16.81 15.79 15.32 14.67 14.2 13.76 13.03
742.657 12.54 12.02 11.65 11.45 11.52 12 12.7 13.98 14.86 15.99
761.947 17.81 19.34 20.54 22.25 24.84 26.91 27.73 27.7 27.14 26.16
781.236 24.97 22.69 19.83 17.58 15.9 14.39 12.65 10.46 8.98 8.1
800.526 6.68 6.5 7.03 7.37 7.31 7.59 8.64 9.33 10.59 12.64
819.816 14 14.42 14.58 14.3 14.43 14.32 13.08 12.22 10.75 8.6
839.106 7.58 6.86 5.84 5.55 5.11 3.95 3.51 3.53 3.34 3.17
858.395 2.93 2.58 2.43 2.79 2.93 2.83 2.3606 2.2117 2.83 3.02
877.685 3.14 3.3 3.85 4.41 4.07 3.68 3.68 4.45 5.57 6.73
896.975 7.43 8.7 10.36 10.93 12.32 13.53 13.77 14.21 14.57 14.4
916.265 13.26 11.65 9.78 7.87 6.57 5.92 5.31 4.72 4.22 3.36
935.555 3.12 3.42 3.44 3.19 3.17 3.67 3.01 2.4022 2.3774 2.1001
954.844 2.47 2.82 2.76 2.93 3.09 2.92 2.91 2.97 3.45 4.22
974.134 4.07 4.02 4.54 4.94 5.74 7.08 8.07 9.17 10.56 13.14
993.424 15.72 16.34 17.54 18.87 19.47 19.62 18.73 17.64 16.28 14.24
1012.714 12.2 10.32 8.77 7.21 6.19 6.53 6.15 5.44 5.55 5
1032.003 4.61 4.05 3.16 3.66 3.63 2.65 3.52 4.44 3.82 3.48
1051.293 4.11 4.64 5.43 6.62 7.7 7.87 8.2 8.46 7.61 7.98
1070.583 8.61 7.82 6.24 5.8 5.74 4.83 3.7 3.28 2.99 1.7678
1089.873 2.149 2.1121 0.85 1.3153 2.71 3.44 2.58 1.5931 1.219 1.8437
1109.163 2.72 2.97 2.74 3.09 3.08 1.9536 2.0409 2.94 1.6482 0.423
1128.452 0.669 0.855 1.024 1.9486 3.66 3.21 3.05 3.77 3.61 3.13
1147.742 1.50604 0.01 0 0.593 1.9041 3.17 3.07 2.58 2.9 3.37
1167.032 3.51 4.08 4.61 4.7 4.92 4.91 5.75 7.27 7.55 8.1
1186.322 9.69 10.8 11.43 12.22 13.54 14.54 14.67 15.66 17.22 18.67
1205.611 21.13 22.48 22.28 23.84 23.96 23.89 25.06 24.97 24.16 22.67
1224.901 19.97 17.29 16.58 16.53 15.36 13.96 13.11 12.45 11.7 10.51
1244.191 9.94 10.64 11.19 10.97 11.4 12.33 12.85 13.44 14.6 14.98
1263.481 14.94 16.12 18.16 20.2 22.83 25.9 29.26 33.84 39.23 44.75
1282.771 48.7 51.56 53.98 55.44 55.68 55.1 52.87 48.82 44.21 39.56
1302.060 35.16 30.87 27.01 23.78 21.16 19.15 17.57 16.38 15.76 15.25
1321.350 14.65 13.9 13.06 12.27 11.5 10.59 9.75 8.77 7.56 6.6
1340.640 5.82 5.19 4.63 4.17 3.9 3.59 3.36 3.2 3.01 2.99
1359.930 2.87 2.76 2.91 2.88 2.73 2.59 2.4066 2.3271 2.3308 2.48
1379.219 2.54 2.59 2.57 2.52 2.6 2.54 2.72 3.04 3.22 3.19
1398.509 3.15 3.5 3.67 3.9 4.14 4.34 4.73 5.1 5.78 6.7
1417.799 7.37 8.22 9.13 9.47 9.53 9.56 9.62 9.68 9.37 8.88
1437.089 8.27 7.71 7.08 6.53 6.49 6.5 6.9 7.67 8.52 9.15
1456.378 10.15 11.68 13.53 15.8 18.67 22.2 26.27 30.78 35.78 41.72
1475.668 47.55 53.63 60.12 67.72 76.51 85.95 96.07 105.86 113.64 117.87
1494.958 118.37 117.31 115.75 113.09 107.68 98.56 85.45 71.69 59.58 49.05
1514.248 40.47 33.3 27.49 22.79 18.62 15.21 12.72 10.57 8.83 7.88
1533.538 7.15 6.66 6.37 6.11 5.92 5.91 5.95 5.7 6 6.2
1552.827 6.04 6.35 6.53 6.28 6.05 5.86 6.02 5.92 5.53 5.65
1572.117 5.77 5.85 6.14 6.48 6.82 7.55 8.15 8.42 9.14 10.05
1591.407 11.1 12.04 12.52 12.95 13.16 13.49 13.51 13.34 13.1 12.66
1610.697 12.39 12.53 13.53 14.92 16.3 17.61 18.56 18.85 18.63 18.23
1629.986 17.65 16.34 14.54 12.5 10.2 8.23 6.22 4.8 4.24 3.75
1649.276 3.38 3.31 3.25 2.81 2.59 2.65 2.56 2.3309 2.46 2.63
1668.566 2.71 2.81 2.61 2.5 2.59 2.61 2.5 2.2752 2.2813 2.3348
1687.856 2.3861 2.4049 2.2023 2.0757 2.1934 2.1828 2.2379 2.3887 2.2002 2.1526
1707.146 2.2902 2.1826 2.0374 1.8622 1.9216 2.2125 2.2972 2.1097 1.9458 2.2307
1726.435 2.3956 2.2455 2.1068 1.9131 1.8154 1.9591 2.0737 2.3691 2.53 2.42
1745.725 2.1627 2.007 2.247 2.41 2.3075 2.2247 2.53 2.85 2.79 2.63
1765.015 2.56 2.57 2.44 2.44 2.2694 1.9375 1.9728 2.1609 2.1478 1.9889
1784.305 1.9078 1.8484 1.7886 1.6702 1.8789 1.9203 1.7961 2.001 2.0398 1.8738
1803.594 1.7595 1.8801 1.9683 1.923 1.8676 2.0678 2.0821 1.9296 1.9424 1.848
1822.884 1.8721 1.9256 2.0707 2.2465 2.4077 2.58 2.56 2.71 2.87 2.76
1842.174 2.89 3.15 3.04 2.82 2.69 2.58 2.54 2.3722 2.2037 2.1815
1861.464 2.0381 1.8635 1.919 1.9586 1.8852 1.877 1.8933 1.8356 1.7676 1.8606
1880.754 2.0652 2.2142 2.0502 1.8754 2.0545 2.1212 2.0184 2.1381 2.1443 2.0278
1900.043 2.032 2.172 2.2342 2.2214 2.3417 2.4042 2.44 2.5 2.56 2.46
1919.333 2.3561 2.361 2.46 2.65 2.57 2.346 2.2274 2.0846 1.982 1.8617
1938.623 1.9327 2.0273 1.7369 1.5514 1.5932 1.6387 1.5737 1.6014 1.7994 1.6707
1957.913 1.44786 1.626 1.8009 1.9011 1.7105 1.46056 1.43257 1.262 1.205 1.253
1977.202 1.40124 1.6294 1.6288 1.6146 1.6905 1.7552 1.7281 1.5767 1.7417 1.7544
1996.492 1.6724 1.935 1.8846 1.7066 1.8727 1.8422 1.7462 1.7733 1.5552 1.6121
2015.782 1.7627 1.5941 1.45164 1.44897 1.5775 1.7418 1.7976 1.64 1.6722 1.7006
2035.072 1.7183 1.8662 1.9964 1.8417 1.50188 1.45682 1.46521 1.5327 1.7473 1.6681
2054.362 1.3741 1.289 1.3609 1.285 1.42674 1.8639 1.7487 1.40249 1.355 1.3737
2073.651 1.396 1.42599 1.294 1.3353 1.41806 1.40258 1.49375 1.5103 1.5555 1.5384
2092.941 1.6859 1.6797 1.3838 1.3362 1.5986 1.8285 1.48406 1.4369 1.46817 1.46611
2112.231 1.6528 1.5815 1.5479 1.5447 1.49876 1.45112 1.43788 1.6106 1.7129 1.6024
2131.521 1.6486 1.6347 1.43324 1.5414 1.7044 1.5701 1.3551 1.3746 1.5601 1.45107
2150.810 1.5427 1.6838 1.69 1.8196 1.7076 1.46261 1.7203 1.886 1.7341 1.7692
2170.100 1.5664 1.5715 1.7949 1.5229 1.5311 1.9192 1.8026 1.5553 1.6977 1.6962
2189.390 1.3585 1.3351 1.4825 1.5551 1.6008 1.6393 1.5942 1.48425 1.6138 1.713
2208.680 1.6854 1.5811 1.6361 1.6208 1.5503 1.571 1.603 1.7148 1.5604 1.5397
2227.970 1.7142 1.6281 1.5762 1.5107 1.5169 1.6935 1.6315 1.6101 1.7504 1.7471
2247.259 1.6905 1.8594 1.8642 1.8884 2.077 1.9457 2.0484 2.1937 1.9788 1.7079
2266.549 1.6061 1.9794 2.281 2.0767 1.692 1.4258 1.5645 1.621 1.7043 1.6592
2285.839 1.5927 1.7568 1.6116 1.40092 1.3331 1.41252 1.40922 1.26 1.3347 1.7083
2305.129 1.8128 1.7095 1.6644 1.6815 1.7462 1.8658 2.1088 2.1515 1.8945 1.8138
2324.418 1.8042 1.7174 1.7982 1.8921 1.9007 1.9368 2.1292 2.2091 1.9242 1.8434
2343.708 1.811 1.7033 1.8768 1.7313 1.6932 1.8035 1.7644 1.5518 1.47457 1.6662
2362.998 1.7032 1.7178 1.5959 1.5063 1.46427 1.27 1.284 1.42442 1.5104 1.4349
2382.288 1.307 1.45988 1.5415 1.5672 1.3274 1.285 1.48181 1.43018 1.292 1.45093
2401.578 1.6197 1.5465 1.6174 1.803 1.8439 1.8131 1.7981 1.7936 1.8106 1.6338
2420.867 1.5933 1.7865 1.7371 1.49706 1.775 1.9998 1.812 1.8141 1.6718 1.49321
2440.157 1.6261 1.6563 1.7053 1.7625 1.791 1.695 1.685 1.7883 1.7201 1.6571
2459.447 1.6828 1.811 1.9548 1.833 1.6564 1.5476 1.8372 2.121 1.879 1.9815
2478.737 2.1843 2.0373 1.8444 1.8108 1.6814 1.6963 1.7282 1.8396 2.0773 2.0592
2498.026 2.107 2.0902 1.8977 1.7524 1.7445 1.8362 2.0815 2.1793 1.8233 1.6638
2517.316 1.6251 1.6195 1.6453 1.42007 1.4101 1.662 1.6444 1.49785 1.602 1.8301
2536.606 1.8998 1.6804 1.41717 1.6869 1.8795 1.7662 1.6958 1.5968 1.50886 1.301
2555.896 1.27 1.3479 1.5571 1.9615 1.9976 1.6495 1.4841 1.6451 1.8644 1.8193
2575.186 1.6755 1.7968 1.7886 1.6055 1.5507 1.47843 1.444 1.329 1.5279 1.8409
2594.475 2.094 2.0333 1.7156 1.9285 1.8277 1.3556 1.46735 1.8443 1.7937 1.5856
2613.765 1.6335 1.8475 1.8806 1.9862 2.0834 1.7496 1.43608 1.5172 1.6417 1.42938
2633.055 1.6281 1.6806 1.205 1.277 1.299 1.244 1.3996 1.138 1.3985 1.6919
2652.345 1.5335 1.43846 1.273 1.234 1.013 0.965 1.039 0.957 0.815 0.855
2671.634 0.904 0.921 1.066 1.138 1.116 1.25 1.3388 1.193 0.879 0.831
2690.924 0.702 0.766 1.3473 1.219 0.854 1.207 1.6009 1.6655 1.6304 1.4122
2710.214 1.40217 1.41379 1.226 1.233 1.142 1.194 1.5787 1.6825 1.6764 1.4828
2729.504 1.2 1.50428 1.6463 1.094 1.147 1.5733 1.3692 1.3804 1.5732 1.185
2748.794 1.134 1.186 1.062 1.3182 1.3407 1.292 1.265 1.3282 1.3979 1.49385
2768.083 1.45931 1.3859 1.8802 2.1271 1.7098 1.157 0.984 1.302 1.298 0.993
2787.373 1.173 1.3625 1.47315 1.49582 1.162 1.122 1.23 1.108 0.96 0.882
2806.663 1.061 1.159 1.013 0.847 1.226 1.41558 1.185 0.978 1.142 1.41955
2825.953 1.196 1.122 1.239 1.7341 1.8835 1.8755 1.7212 1.3294 1.3766 1.3897
2845.242 1.5455 1.45464 1.188 1.6066 1.7095 1.42085 1.23 0.939 1.115 1.5231
2864.532 1.9519 1.6415 1.3439 1.227 0.995 1.036 0.838 0.944 0.89 0.944
2883.822 1.259 1.218 1.3504 1.48241 1.467 1.44955 1.3951 1.3304 1.258 1.47258
2903.112 1.3535 1.011 1.269 1.5463 1.6176 1.6105 1.6999 1.43844 1.078 1.3761
2922.401 1.639 1.28 1.31 1.8121 2.2374 2.51 2.41 2.2827 2.43 2.66
2941.691 2.72 2.7 2.58 2.66 2.43 2.46 2.68 2.69 2.63 2.3463
2960.981 1.8223 1.546 1.8119 1.764 1.7588 1.7143 1.3632 1.4395 1.86 1.902
2980.271 1.5334 1.48232 1.299 1.255 1.9192 1.7882 1.022 1.041 1.197 1.5743
2999.561 1.6136 1.3254 1.41682 1.7472 1.8511 1.158 0.917 1.41886 1.45548 1.45057
3018.850 1.6237 1.41467 1.3342 1.5679 1.9253 1.9179 1.9198 1.8479 1.7139 2.0653
3038.140 2.2119 2.45 2.67 2.9 2.98 3.06 3.72 4.15 3.81 3.14
3057.430 3.27 3.94 3.79 3.88 4.11 3.67 4.16 4.39 4.28 3.98
3076.720 3.74 4.06 4.5 4.46 3.5 3.15 3.17 3.19 3.04 2.46
3096.009 2.3156 2.47 2.44 1.8563 1.7252 2.0504 2.0468 1.885 2.1968 2.2532
3115.299 1.9033 2.2949 2.3078 2.0808 1.7462 1.5976 1.5335 1.3745 1.123 1.093
3134.589 1.8496 1.7305 0.719 0.559 0.999 0.952 0.778 0.686 0.517 1.062
3153.879 0.771 0.15 0.839 1.082 0.988 1.3562 1.3972 0.951 1.143 1.50578
3173.169 1.5467 1.3815 1.3821 1.6431 1.184 0.662 0.948 1.123 1.306 1.292
3192.458 0.936 0.965 1.06 1.153 1.214 1.3235 1.254 1.5652 1.358 0.855
3211.748 1.227 1.242 1.061 1.233 1.223 0.938 1.5783 1.7005 1.175 1.3772
3231.038 1.42924 1.057 0.646 0.741 0.896 1.217 1.5146 0.802 0.668 1.189
3250.328 1.041 1.285 1.063 0.86 1.6805 1.6634 1.077 0.879 0.915 1.22
3269.617 1.124 0.976 1.195 1.8236 1.5902 0.831 0.972 1.005 1.176 1.42839
3288.907 1.3294 1.3336 1.129 1.019 0.954 0.825 1.3727 1.6307 1.182 0.495
3308.197 0.38 0.626 0.898 1.093 1.072 1.155 1.186 1.249 0.957 1.116
3327.487 1.45234 1.217 1.5197 1.7279 1.5706 1.155 1.056 1.164 1.066 1.3161
3346.777 1.117 1.154 1.5517 1.295 0.832 0.795 1.28 1.47216 0.997 0.964
3366.066 1.48734 1.5499 0.887 0.751 0.854 0.9 1.274 1.3308 0.813 0.726
3385.356 1.263 1.49744 1.268 1.105 1.3996 1.7356 1.3796 1.6677 1.6395 0.954
3404.646 1.194 1.7021 1.6961 1.238 1.307 1.3602 1.383 1.3682 1.175 0.671
3423.936 0.497 0.466 0.489 1.3177 1.8922 1.6112 1.3785 0.908 0.62 0.699
3443.225 0.472 0.76 0.908 1.05 1.3519 0.875 0.985 1.48152 1.292 1.065
3462.515 1.16 1.297 1.14 1.21 1.3473 1.06 1.5351 1.5752 0.756 0.525
3481.805 0.584 0.33 0.24 0.467 0.847 1.5575 1.268 0.854 1.242 1.45926
3501.095 1.018 0.562 1.002 1.133 0.945 1.193 1.142 1.564 1.9123 1.612
3520.385 1.4027 1.019 1.204 1.47507 1.44431 1.6161 1.6095 1.6708 1.172 1.087
3539.674 1.219 0.831 0.805 0.454 0.44 0.921 1.385 1.6536 1.43779 1.44802
3558.964 1.48051 1.6184 1.6962 1.5114 1.5255 1.7485 1.42917 0.986 1.045 1.02
3578.254 1.049 1.43684 1.8618 1.8288 1.3273 1.8265 1.9548 1.254 1.128 0.98
3597.544 0.944 1.268 1.264 0.958 0.594 0.688 1.242 1.034 1.181 1.48498
3616.833 1.3641 1.233 1.151 0.796 1.057 1.48113 0.691 0.608 1.179 1.43568
3636.123 1.7225 1.6106 1.3143 1.3841 1.41754 1.109 1.081 1.40006 1.122 1.285
3655.413 1.7024 0.996 0.982 1.276 1.43444 1.6481 1.293 1.016 1.04 0.943
3674.703 1.175 1.7076 1.46289 0.995 1.42505 1.6195 1.261 1.6691 1.592 1.245
3693.993 1.42609 1.497 1.4496 1.43122 1.41326 1.22 1.7217 1.98 1.50378 1.278
3713.282 1.062 1.205 1.3351 0.929 1.323 1.47046 0.609 0.33 1.027 1.206
3732.572 0.796 1.142 1.089 0.769 1.109 1.372 1.222 1.3137 1.42831 1.223
3751.862 1.199 1.209 0.843 0.778 1.187 1.7594 1.7818 1.8187 1.5811 1.3164
3771.152 1.3424 0.78 0.25 0.495 0.824 1.14 1.292 0.683 0.971 1.3802
3790.441 0.905 0.893 1.40368 0.986 0.806 1.095 0.809 0.83 0.991 1.178
3809.731 1.3108 0.664 0.929 1.8067 1.3571 1.165 1.7689 1.519 1.269 1.8291
3829.021 1.5956 1.3233 1.3725 1.48363 1.208 0.961 1.43155 1.45681 1.157 1.075
3848.311 0.979 0.521 0.446 0.665 0.905 1.235 1.074 1.4955 1.9948 1.8571
3867.601 1.6833 1.7063 1.3879 1.053 1.236 0.972 0.32 0.563 1.3785 1
3886.890 0.509 1.48856 1.7524 1.255 1.14 0.868 0.864 1.146 1.052 1.105
3906.180 1.8202 1.842 1.5183 1.033 0.687 1.06 1.215 1.28 1.5368 1.41859
3925.470 1.135 1.169 1.22 1.221 1.43623 1.3241 0.852 0.941 1.46124 1.49692
3944.760 1.3426 1.3131 1.31 1.3507 1.42106 1.007 0.741 1.576 2.0215 1.43253
3964.049 0.771 1.129 2.0852 2.0642 1.303 1.105 1.06 1.139 1.50665 1.3366
3983.339 1.6136 1.45448 1.033 0.904 0.655 0.757 1.119 1.088 0.888 0.769
##END=
