##TITLE=Desyl benzoate
##JCAMP-DX=4.24
##DATA TYPE=INFRARED SPECTRUM
##ORIGIN=EPA-IR VAPOR PHASE LIBRARY
##OWNER=SRD/NIST
Collection (C) 2018 copyright by the U.S. Secretary of Commerce
on behalf of the United States of America. All rights reserved.
##CAS REGISTRY NO=1459-20-7
##MOLFORM=C 21 H 16 O 3
##$NIST SOURCE=MSDC-IR
##STATE=gas
##XUNITS=1/CM
##YUNITS=ABSORBANCE
##XFACTOR=1.
##YFACTOR=0.001
##DELTAX=1.92898
##FIRSTX=549.8
##LASTX=4000.7
##FIRSTY=5.827
##MAXX=4000.7
##MINX=549.759
##MAXY=0.123197
##MINY=0
##NPOINTS=1790
##XYDATA=(X++(Y..Y))
549.759 5.827 4.867 4.697 3.967 3.147 2.897 2.757 1.677 1.4007 1.5551
569.049 2.397 2.997 2.957 2.607 2.317 2.807 2.647 2.817 3.457 4.997
588.339 6.747 8.477 10.557 11.767 11.707 11.837 11.887 11.177 11.397 12.227
607.628 12.537 12.527 13.117 12.807 11.637 10.587 8.487 6.267 5.197 4.547
626.918 3.937 3.577 3.617 3.797 3.367 3.327 3.527 3.367 3.577 3.757
646.208 3.677 3.837 4.457 4.897 5.047 5.687 6.307 7.177 8.587 9.317
665.498 9.797 10.987 12.257 13.247 14.987 17.087 18.697 20.587 23.067 26.587
684.787 30.367 34.677 40.107 45.657 50.727 53.747 54.907 54.537 53.557 53.477
704.077 54.887 56.717 56.697 53.987 49.027 42.607 36.097 30.657 26.257 23.167
723.367 21.327 19.897 18.657 17.757 16.297 14.597 13.847 13.667 13.787 13.817
742.657 14.027 14.377 14.867 15.737 16.587 16.737 15.737 14.697 13.837 12.727
761.947 12.077 11.147 9.867 8.677 7.837 7.527 7.027 6.707 6.177 5.787
781.236 5.107 4.927 5.217 4.827 4.247 4.007 4.147 4.447 4.747 4.507
800.526 4.257 4.217 4.417 4.557 4.517 4.667 4.677 4.847 4.947 4.697
819.816 4.677 5.037 6.027 6.507 6.277 6.287 6.227 6.037 5.617 5.247
839.106 5.667 6.307 6.667 6.967 7.437 7.907 8.237 8.457 8.617 8.907
858.395 8.367 7.877 7.427 6.907 6.587 6.007 5.937 5.867 5.927 6.257
877.685 6.477 6.157 6.097 6.307 6.267 6.967 7.327 7.387 7.757 7.567
896.975 7.487 7.827 8.217 8.337 8.067 8.247 8.067 7.847 7.527 7.607
916.265 7.987 8.017 8.367 8.517 8.867 8.707 8.517 8.647 8.687 9.047
935.555 8.877 8.637 8.897 9.107 9.837 10.757 11.837 13.207 14.477 15.887
954.844 17.737 19.367 19.717 19.037 17.997 16.647 14.957 13.467 12.287 10.957
974.134 9.887 8.827 7.967 7.907 7.727 7.357 7.117 7.087 7.627 8.117
993.424 8.177 8.637 9.037 9.857 11.197 11.977 11.597 10.287 9.317 9.787
1012.714 11.277 12.307 14.787 19.477 24.367 28.957 32.177 32.697 30.347 26.017
1032.003 21.327 16.537 13.247 11.247 10.437 11.107 11.437 11.847 12.467 13.497
1051.293 14.557 15.297 16.717 19.067 21.957 24.717 26.517 28.027 28.947 27.817
1070.583 26.707 25.977 24.907 24.997 26.487 30.187 35.437 42.207 51.557 61.627
1089.873 70.027 76.637 80.337 79.947 77.337 76.607 78.537 81.177 84.017 84.487
1109.163 80.217 72.967 60.947 47.267 36.647 28.397 23.047 19.297 16.717 13.577
1128.452 10.857 10.647 11.067 10.357 9.527 8.797 8.207 7.767 6.837 6.957
1147.742 7.397 7.237 7.117 7.287 7.197 8.097 9.397 9.117 7.897 7.617
1167.032 9.207 12.517 16.457 22.137 30.477 37.857 42.537 42.117 36.947 30.357
1186.322 24.237 19.327 16.047 14.937 14.317 13.507 13.657 16.347 19.137 19.047
1205.611 20.317 23.697 26.417 30.077 32.387 33.947 36.267 37.217 38.497 39.987
1224.901 41.387 43.727 46.577 50.577 55.497 60.897 65.917 70.227 73.087 76.067
1244.191 81.097 86.737 93.347 101.247 109.577 116.367 120.837 123.197 122.517 119.347
1263.481 114.927 109.587 103.907 98.107 91.887 84.897 77.157 68.907 60.677 53.227
1282.771 46.827 41.227 36.867 33.957 31.497 29.577 28.067 26.857 26.197 25.337
1302.060 24.577 24.337 24.137 24.527 25.477 26.217 26.737 26.467 25.217 23.407
1321.350 21.417 20.167 19.427 18.777 18.467 18.057 17.547 17.327 17.187 16.677
1340.640 16.107 15.777 15.667 15.567 15.447 15.417 15.027 14.217 13.347 12.367
1359.930 11.247 10.227 9.247 8.647 8.187 7.607 7.207 6.757 6.427 6.437
1379.219 6.357 6.067 5.767 5.407 5.117 4.747 4.427 4.177 4.067 3.927
1398.509 3.647 3.577 3.457 3.417 3.357 3.197 3.317 3.467 3.407 3.387
1417.799 3.287 3.397 3.677 3.637 3.647 3.977 4.257 4.417 4.697 5.247
1437.089 6.047 7.007 8.557 10.777 13.497 16.227 18.297 18.997 18.027 15.897
1456.378 12.767 9.817 7.867 6.357 5.367 4.777 4.517 4.307 4.207 4.477
1475.668 4.467 4.137 4.257 4.467 4.727 5.317 5.987 6.667 7.517 8.437
1494.958 9.257 9.657 9.387 8.527 7.417 6.117 4.907 4.207 3.887 3.747
1514.248 3.447 3.307 3.397 3.217 3.177 3.307 3.427 3.327 3.107 3.347
1533.538 3.437 3.317 3.337 3.167 3.187 3.397 3.397 3.587 3.627 3.677
1552.827 3.817 3.797 3.587 3.487 3.857 3.967 4.027 4.397 4.927 5.207
1572.117 5.587 6.227 6.917 7.717 8.247 8.597 9.027 9.277 9.497 9.517
1591.407 9.467 9.977 10.857 11.627 12.157 12.447 12.057 10.867 9.167 7.537
1610.697 6.497 5.547 4.967 4.747 4.257 4.047 3.837 3.567 3.507 3.217
1629.986 3.377 3.567 3.457 3.367 3.357 3.467 3.577 3.597 3.617 3.677
1649.276 3.687 3.787 3.727 3.557 3.857 4.177 4.487 4.877 5.037 5.117
1668.566 5.407 5.817 6.207 6.677 7.167 7.857 8.867 9.777 10.897 12.097
1687.856 13.547 15.417 17.167 19.137 21.507 24.007 26.677 29.907 33.227 37.567
1707.146 42.727 48.647 55.087 60.797 64.147 64.217 61.147 56.057 50.347 45.817
1726.435 43.517 43.827 47.207 53.857 64.147 75.907 85.807 91.567 91.127 84.727
1745.725 74.447 63.097 52.517 43.057 35.097 29.167 24.437 20.847 18.127 15.947
1765.015 14.227 12.637 11.297 10.257 9.447 8.867 8.147 7.647 7.287 6.907
1784.305 6.647 6.347 6.247 6.217 6.127 6.207 6.477 6.457 6.327 6.387
1803.594 6.187 6.017 6.047 5.817 5.477 5.157 4.837 4.337 3.887 3.637
1822.884 3.277 3.147 2.957 2.627 2.537 2.447 2.357 2.447 2.367 2.137
1842.174 2.017 1.997 1.967 1.977 2.017 2.087 2.057 2.097 2.167 2.127
1861.464 2.247 2.177 2.047 2.107 2.207 2.377 2.537 2.517 2.427 2.357
1880.754 2.427 2.657 2.707 2.757 2.747 2.697 2.887 3.067 3.027 2.877
1900.043 3.007 3.137 3.177 3.197 3.107 3.107 3.187 2.997 2.807 2.837
1919.333 2.757 2.727 2.687 2.487 2.437 2.447 2.277 2.247 2.347 2.457
1938.623 2.587 2.727 2.917 3.227 3.347 3.437 3.697 3.747 3.857 3.907
1957.913 3.887 4.037 3.947 3.737 3.557 3.297 3.117 3.027 2.857 2.517
1977.202 2.197 2.007 1.947 1.877 1.6429 1.554 1.707 1.787 1.797 1.757
1996.492 1.727 1.657 1.6402 1.687 1.677 1.827 1.797 1.697 1.5514 1.4186
2015.782 1.4554 1.5264 1.6258 1.6139 1.61 1.6478 1.737 1.727 1.5457 1.4707
2035.072 1.5378 1.4697 1.627 1.807 1.677 1.657 1.737 1.6356 1.5129 1.6319
2054.362 1.6156 1.5197 1.649 1.797 1.827 1.727 1.657 1.747 1.737 1.6541
2073.651 1.6375 1.6344 1.641 1.707 1.747 1.6221 1.5452 1.5164 1.5369 1.5713
2092.941 1.4525 1.467 1.6158 1.6359 1.5618 1.6121 1.5639 1.5158 1.585 1.4871
2112.231 1.5373 1.6504 1.687 1.602 1.5324 1.6019 1.4868 1.4379 1.6064 1.697
2131.521 1.747 1.767 1.757 1.757 1.687 1.652 1.667 1.5564 1.531 1.5541
2150.810 1.468 1.5647 1.747 1.667 1.4506 1.3964 1.3256 1.456 1.737 1.677
2170.100 1.5526 1.5057 1.5177 1.6275 1.63 1.5753 1.5383 1.5165 1.4731 1.4522
2189.390 1.4708 1.5259 1.4979 1.4026 1.403 1.3447 1.3685 1.531 1.518 1.3643
2208.680 1.3096 1.3766 1.2969 1.2651 1.2455 1.3662 1.3693 1.3608 1.515 1.3715
2227.970 1.3093 1.3114 1.2033 1.2095 1.3102 1.3685 1.4616 1.333 1.325 1.4949
2247.259 1.4969 1.5629 1.4026 1.1437 1.2318 1.3672 1.2312 1.2149 1.6009 1.6061
2266.549 1.4478 1.5311 1.4729 1.4256 1.4046 1.5238 1.657 1.631 1.4031 1.3772
2285.839 1.687 1.717 1.667 1.677 1.5374 1.2654 1.2049 1.3181 1.3645 1.3879
2305.129 1.3954 1.4393 1.5398 1.677 1.927 1.957 1.947 2.177 2.207 2.087
2324.418 1.967 2.007 1.987 2.007 1.857 1.877 1.997 1.797 1.757 1.767
2343.708 1.837 1.827 1.917 1.867 1.867 1.827 1.737 1.817 1.847 1.737
2362.998 1.5282 1.5454 1.727 1.797 1.6309 1.4756 1.3774 1.4358 1.5052 1.4395
2382.288 1.3697 1.3719 1.4343 1.4274 1.5092 1.4935 1.404 1.5194 1.5047 1.2936
2401.578 1.2817 1.5371 1.5452 1.5054 1.3762 1.2276 1.4903 1.6294 1.5477 1.45
2420.867 1.4043 1.6022 1.5255 1.4291 1.4621 1.4001 1.4604 1.2522 1.2697 1.5345
2440.157 1.4483 1.2596 1.2343 1.2327 1.2564 1.3396 1.4105 1.3473 1.1992 1.298
2459.447 1.4887 1.546 1.4663 1.2821 1.2419 1.4337 1.4678 1.4138 1.2827 1.4642
2478.737 1.4783 1.2021 1.2928 1.2191 1.0427 1.0294 1.2848 1.4774 1.3993 1.4096
2498.026 1.6016 1.677 1.667 1.5759 1.4561 1.5033 1.5247 1.4789 1.5587 1.6028
2517.316 1.4135 1.1542 1.0715 1.2513 1.4496 1.4803 1.5859 1.568 1.4275 1.4222
2536.606 1.4958 1.5976 1.3575 1.4701 1.667 1.4526 1.4737 1.4601 1.3405 1.2725
2555.896 1.2713 1.2274 1.3791 1.4587 1.5299 1.5991 1.5529 1.5488 1.4783 1.5323
2575.186 1.6295 1.6267 1.5998 1.687 1.677 1.452 1.4005 1.687 1.797 1.687
2594.475 1.5691 1.5969 1.697 1.5637 1.4498 1.3582 1.2464 1.2306 1.3507 1.677
2613.765 1.5448 1.3753 1.5257 1.717 1.797 1.6164 1.5954 1.5953 1.5516 1.5231
2633.055 1.687 1.677 1.4754 1.6107 1.5298 1.3159 1.2211 1.5264 1.817 1.6352
2652.345 1.3072 1.2503 1.3202 1.3575 1.4652 1.5112 1.4028 1.2619 1.4493 1.2971
2671.634 1.1584 1.4611 1.5071 1.3447 1.2235 1.3546 1.4762 1.4301 1.3938 1.5229
2690.924 1.5451 1.4869 1.4369 1.2884 1.3106 1.5211 1.5643 1.296 1.2451 1.3398
2710.214 1.4532 1.6417 1.667 1.3834 1.2782 1.212 1.0421 1.2392 1.3655 1.2821
2729.504 1.4047 1.4098 1.2 1.0954 1.3102 1.5476 1.3513 1.3201 1.4087 1.4156
2748.794 1.6273 1.707 1.5102 1.3745 1.3556 1.46 1.5295 1.6072 1.717 1.5967
2768.083 1.4107 1.2896 1.4518 1.777 1.757 1.797 1.757 1.707 1.697 1.4752
2787.373 1.3255 1.3183 1.38 1.5949 1.877 1.6107 1.3501 1.441 1.402 1.4418
2806.663 1.707 1.777 1.747 1.737 1.667 1.6254 1.6123 1.857 1.727 1.152
2825.953 1.0035 1.4313 1.937 1.907 1.957 1.877 1.917 2.317 1.997 1.707
2845.242 1.887 2.097 1.937 1.5302 1.6374 1.777 1.997 2.207 2.027 1.817
2864.532 1.757 1.767 1.6559 1.927 2.417 2.417 2.167 1.707 1.5638 1.6114
2883.822 1.4487 1.827 1.957 1.687 1.857 2.087 2.117 2.187 2.227 2.267
2903.112 2.137 1.977 1.967 2.117 2.367 2.467 2.577 2.667 2.757 2.677
2922.401 2.727 2.897 2.837 2.857 3.107 3.287 3.287 3.287 3.447 3.587
2941.691 3.577 3.817 3.767 3.467 3.457 3.757 3.837 3.927 3.907 3.687
2960.981 3.727 3.557 3.747 3.677 3.317 3.327 3.227 3.477 3.367 2.937
2980.271 2.907 3.217 3.577 3.317 3.037 2.957 2.827 2.627 2.477 2.887
2999.561 3.017 3.067 3.137 3.397 3.927 3.867 4.087 4.467 4.317 4.577
3018.850 5.147 5.767 6.477 7.197 8.187 9.327 10.507 11.657 12.927 14.017
3038.140 14.877 15.327 15.107 14.717 14.157 13.387 12.817 12.637 12.547 12.907
3057.430 13.967 15.747 18.117 20.887 24.017 27.067 30.327 33.097 34.087 33.717
3076.720 31.487 27.337 22.957 19.137 16.507 15.467 15.207 15.007 14.647 14.137
3096.009 13.517 12.317 10.967 9.887 9.027 8.187 7.377 7.137 6.777 6.007
3115.299 5.097 4.437 4.147 3.507 2.647 2.317 2.377 2.247 1.827 1.687
3134.589 1.777 1.897 1.877 1.847 1.877 1.747 1.807 2.027 2.157 1.937
3153.879 1.591 1.6109 1.717 1.837 1.987 1.947 1.947 2.077 1.5961 1.6357
3173.169 2.117 1.967 1.977 1.5548 1.4004 1.4244 1.4185 1.2501 1.0656 1.1034
3192.458 0.9591 0.8335 0.9453 1.2329 1.5479 1.667 1.5662 1.4148 0.9698 0.9764
3211.748 1.4778 1.5505 1.0912 0.6262 0.65288 1.1739 1.5123 1.6247 1.534 1.1281
3231.038 0.8552 1.0046 1.1161 1.2486 1.0532 0.72364 0.71859 0.392 0.291 0.6465
3250.328 0.9371 1.1972 0.9976 0.9723 0.9938 1.052 1.3101 1.178 1.0864 1.1863
3269.617 1.1265 0.8211 0.8545 0.7818 0.67562 1.0598 1.2013 1.1569 1.0802 1.2425
3288.907 0.951 0.9221 1.4013 1.3155 1.1656 0.9346 0.8033 0.8164 0.9588 1.0096
3308.197 0.9143 1.0303 0.9678 0.8353 1.3818 1.877 1.3511 1.0701 1.5781 1.807
3327.487 1.5974 1.2634 0.9967 0.554 0.792 1.3904 1.4306 1.6413 1.598 0.9215
3346.777 1.0917 1.5607 1.2283 0.8613 0.8822 0.861 1.1213 1.5716 1.2939 0.8568
3366.066 0.8139 0.8172 0.9096 1.3629 1.5934 1.4676 1.4228 1.4519 1.2901 1.0577
3385.356 1.2171 1.4103 1.1306 0.9551 1.1451 1.3102 1.6063 1.857 1.4107 0.9822
3404.646 1.3321 1.6018 2.147 2.247 1.767 1.987 1.757 1.6454 1.867 1.6188
3423.936 1.3044 1.3209 1.3538 1.3375 1.2862 1.5995 1.847 1.717 1.6377 1.3172
3443.225 1.1357 0.8888 0.9509 1.3854 1.5574 1.4392 1.3604 1.5221 1.4372 1.0805
3462.515 1.3462 1.4008 1.178 1.44 1.2343 1.2568 1.5657 1.6399 1.3561 1.0049
3481.805 0.8541 0.8744 1.6014 2.037 1.867 1.5967 1.4792 1.6166 1.677 1.4136
3501.095 0.997 0.9211 1.2524 1.3328 0.963 0.429 0.258 0.6056 0.71419 0.7898
3520.385 0.9636 1.3356 1.5818 1.2039 1.0472 1.0904 0.42 0.406 0.8928 0.6316
3539.674 0.8972 1.1081 0.8942 0.9402 0.9109 0.74559 0.7801 0.65733 0.64959 1.1023
3558.964 0.5737 0.435 1.0178 1.0616 0.9564 0.6386 0.5663 0.9792 1.3649 0.7845
3578.254 0.9571 1.3735 0.96 0.7839 0.66913 0.8511 1.1731 1.4668 1.3711 0.8166
3597.544 0.72568 0.861 1.1828 1.5708 1.3755 0.9203 1.0717 1.2048 0.7712 0.7713
3616.833 1.0035 0.9199 0.8205 0.6069 0.401 0.8555 0.397 0 0.7693 0.8527
3636.123 0.6143 0.8918 1.1236 1.0712 0.75056 0.8514 1.3006 1.1331 1.1504 1.0312
3655.413 0.628 0.9553 1.3384 1.0886 0.8616 0.5626 0.7895 1.0664 0.9359 1.3528
3674.703 1.687 1.6489 1.1204 0.67671 0.757 1.2504 1.3757 1.5047 1.4677 0.9585
3693.993 0.7582 0.8015 0.8557 1.0874 0.839 0.74865 1.1202 1.3436 1.787 1.5434
3713.282 1.3802 1.2625 0.9465 0.9771 1.0728 0.9509 1.1311 1.2778 1.1746 1.2084
3732.572 0.997 0.8895 0.507 0.538 0.9114 0.9553 0.9172 0.66984 0.9892 1.4149
3751.862 0.9587 0.7614 1.1117 1.4238 1.1782 0.9064 0.8698 0.73649 1.2039 1.687
3771.152 1.5008 1.3497 1.4357 1.2898 1.0925 0.661854 0.6057 0.7627 0.9342 1.0387
3790.441 0.8999 0.8623 0.75663 1.2857 1.3434 0.7594 0.72186 0.69634 0.9246 0.7749
3809.731 0.7588 1.0762 1.1028 0.9429 0.8711 1.2009 1.4404 1.3298 0.9057 1.0252
3829.021 0.8911 0.68112 0.9383 0.72602 0.72604 0.9197 0.7594 0.838 0.8234 0.7981
3848.311 1.2122 1.3277 1.1001 1.143 1.0524 1.0089 1.278 1.3623 1.3654 1.2882
3867.601 1.6061 1.5896 1.2365 1.3931 1.1615 1.027 0.8216 0.8426 1.2855 1.1403
3886.890 0.968 1.0199 0.9346 0.72239 0.8392 0.836 0.68273 0.8269 0.8646 0.8422
3906.180 1.0271 0.8301 0.538 0.506 0.70601 0.7865 0.8725 1.0833 1.1536 0.6409
3925.470 0.552 0.9372 1.1028 1.3342 0.8141 0.5674 0.528 0.258 0.48 1.1023
3944.760 1.1854 1.2927 1.4799 1.0082 0.69939 0.6958 0.9075 1.3253 1.1255 0.8127
3964.049 0.6416 0.864 1.4952 1.351 1.1433 1.1417 0.9553 1.1293 1.42 1.3508
3983.339 1.5057 1.3153 1.2632 1.5942 1.5037 1.3935 1.3703 1.362 1.1311 1.1226
##END=
