##TITLE=3,4-Dimethoxybenzyl isothiocyanate
##JCAMP-DX=4.24
##DATA TYPE=INFRARED SPECTRUM
##ORIGIN=EPA-IR VAPOR PHASE LIBRARY
##OWNER=SRD/NIST
Collection (C) 2018 copyright by the U.S. Secretary of Commerce
on behalf of the United States of America. All rights reserved.
##CAS REGISTRY NO=14596-50-0
##MOLFORM=C 10 H 11 N O 2 S
##$NIST SOURCE=MSDC-IR
##STATE=gas
##XUNITS=1/CM
##YUNITS=ABSORBANCE
##XFACTOR=1.
##YFACTOR=0.001
##DELTAX=1.92934
##FIRSTX=549.9
##LASTX=3999.5
##FIRSTY=20.7
##MAXX=3999.53
##MINX=549.863
##MAXY=0.3025
##MINY=0
##NPOINTS=1789
##XYDATA=(X++(Y..Y))
549.863 20.7 20.41 20.07 19.61 18.94 18.17 17.36 16.55 15.63 14.7
569.156 14.15 13.69 13.08 12.6 12.15 11.71 11.39 11.11 10.93 10.83
588.450 10.65 10.39 10.19 10.15 10.09 10.07 10.09 9.86 9.68 9.62
607.743 9.45 9.35 9.34 9.2 8.99 8.83 8.74 8.63 8.43 8.28
627.037 8.07 7.78 7.64 7.46 7.25 7.03 6.71 6.53 6.36 6.18
646.330 6.16 6.1 6 6.03 5.99 5.99 6.12 6.14 6.11 6.23
665.624 6.37 6.49 6.79 7.12 7.42 7.88 8.5 9.21 10.1 11.13
684.917 12.26 13.54 14.89 16.37 17.93 19.57 21.17 22.66 24.03 25.27
704.210 26.39 27.27 28.02 28.6 28.99 29.2 29.22 29.03 28.42 27.49
723.504 26.48 25.19 23.66 22.13 20.73 19.53 18.47 17.6 16.9 16.4
742.797 16.16 15.96 15.91 15.94 15.95 16.04 16.15 16.18 16.18 16.16
762.091 15.94 15.5 14.85 14.09 13.26 12.35 11.52 10.73 10.16 9.73
781.384 9.4 9.35 9.48 9.69 10.09 10.73 11.38 12.1 12.94 13.76
800.678 14.59 15.41 16.08 16.49 16.69 16.79 16.82 16.72 16.4 15.86
819.971 15.17 14.28 13.32 12.44 11.58 10.73 9.92 9.34 9.03 8.81
839.264 8.77 8.86 9.04 9.24 9.39 9.45 9.33 9.2 9.12 8.98
858.558 8.76 8.57 8.47 8.33 8.2 8.21 8.17 8.11 8.04 7.89
877.851 7.73 7.51 7.24 7.02 6.76 6.52 6.47 6.43 6.33 6.32
897.145 6.47 6.6 6.8 7.05 7.26 7.53 7.8 8.07 8.29 8.43
916.438 8.53 8.61 8.68 8.71 8.67 8.66 8.61 8.55 8.52 8.42
935.732 8.25 8.1 8.01 7.94 7.85 7.81 7.8 7.74 7.73 7.84
955.025 7.92 7.95 8.01 8.16 8.35 8.46 8.56 8.71 8.87 9.09
974.318 9.28 9.46 9.76 10.16 10.66 11.2 11.76 12.46 13.33 14.28
993.612 15.41 16.73 18.28 20.12 22.34 24.98 28.04 31.51 35.6 40.32
1012.905 45.49 51.05 56.81 62.48 67.77 72.51 76.54 79.65 81.65 82.39
1032.199 81.82 79.83 76.18 70.99 64.64 57.71 50.56 43.64 37.36 31.85
1051.492 27.15 23.21 20.07 17.67 15.87 14.48 13.32 12.36 11.68 11.18
1070.786 10.78 10.42 10.13 9.97 9.86 9.76 9.75 9.82 9.88 9.98
1090.079 10.12 10.38 10.8 11.27 11.85 12.57 13.38 14.3 15.54 17.18
1109.372 19.19 21.67 24.7 28.28 32.49 37.23 42.09 46.82 51.22 55.07
1128.666 58.2 60.35 61.51 61.89 61.76 61.11 60.19 59.38 58.89 58.58
1147.959 58.25 58.01 57.86 57.39 56.32 54.76 52.48 49.43 45.81 41.73
1167.253 37.68 34.03 30.81 28.22 26.29 24.88 24.07 23.48 22.92 22.48
1186.546 22.02 21.83 21.52 21.26 21.31 21.27 21.76 22.67 23.74 25.3
1205.840 27.48 30.28 33.5 37.11 41.15 45.99 51.2 56.46 61.9 67.41
1225.133 73.27 79.02 84.06 88.06 91.09 93.75 95.63 96.7 97.65 98.1
1244.426 98.25 98.7 99.46 101.01 103.72 107.9 114.03 122.11 132.02 143.49
1263.720 155.58 167.09 176.84 183.79 187.66 188.63 186.79 182.9 177.45 170.67
1283.013 162.9 154.23 144.74 134.44 123.91 113.81 104.53 96.18 88.83 82.4
1302.307 76.82 71.95 67.59 63.77 60.47 57.78 55.63 54.11 53.35 53.34
1321.600 54.11 55.89 58.78 62.73 67.57 72.81 77.61 80.97 81.99 80.45
1340.894 76.39 70.31 63.04 55.48 48.38 42.16 36.97 32.78 29.38 26.55
1360.187 24.19 22.2 20.47 18.98 17.73 16.69 15.83 15.1 14.48 14.1
1379.480 13.88 13.76 13.87 14.14 14.61 15.34 16.27 17.52 19.17 21.2
1398.774 23.64 26.6 30.12 34.24 38.67 43.16 47.44 51.04 53.57 54.88
1418.067 54.76 53.32 50.93 47.77 44.28 41.13 38.66 37.26 36.98 37.78
1437.361 39.61 41.96 44.67 47.68 51.14 55.03 58.94 62.2 64.46 65.73
1456.654 65.62 63.49 59.79 55.95 53.16 51.13 49.3 47.34 45.16 42.64
1475.948 39.94 37.26 35.27 34.15 34.07 35.05 37.08 40.28 44.9 51.04
1495.241 59.23 70 83.17 98.98 116.8 135.33 154.05 169.01 177.21 178.05
1514.534 171.11 156.94 137.76 116.64 94.77 76.73 61.65 49.9 41 34.24
1533.828 29.07 25.13 22.18 19.75 17.87 16.48 15.39 14.47 13.8 13.28
1553.121 12.87 12.64 12.51 12.52 12.66 12.91 13.27 13.86 14.64 15.55
1572.415 16.69 17.89 19.23 20.65 21.85 22.95 23.74 24.15 24.4 24.55
1591.708 24.57 24.42 24.29 24.3 24.36 24.35 24.18 23.87 23.33 22.49
1611.002 21.38 20.03 18.5 16.78 15.01 13.42 12.05 10.83 9.8 8.9
1630.295 8.2 7.66 7.24 6.87 6.56 6.36 6.13 5.94 5.77 5.63
1649.588 5.48 5.28 5.15 5.15 5.02 4.8691 4.793 4.7053 4.6538 4.6319
1668.882 4.646 4.6319 4.5859 4.5823 4.5546 4.6039 4.6241 4.5455 4.4939 4.5257
1688.175 4.5761 4.6077 4.6723 4.6757 4.6047 4.5512 4.5367 4.5053 4.4996 4.5166
1707.469 4.5016 4.4475 4.4941 4.5577 4.5257 4.5597 4.5466 4.4804 4.4638 4.454
1726.762 4.4595 4.4278 4.3738 4.3834 4.4011 4.3541 4.3138 4.3048 4.3614 4.365
1746.056 4.3645 4.4171 4.3933 4.3548 4.3426 4.3144 4.2871 4.2311 4.1735 4.1564
1765.349 4.1863 4.1924 4.151 4.1428 4.1215 4.0577 4.0649 4.1104 4.0898 4.0843
1784.642 4.1048 4.1104 4.1022 4.0771 4.02518 4.06929 4.1465 4.1401 4.1433 4.1561
1803.936 4.1374 4.1145 4.0815 4.085 4.0858 4.0974 4.147 4.1702 4.1941 4.2121
1823.229 4.2214 4.275 4.3599 4.3625 4.3799 4.4806 4.5702 4.6433 4.7116 4.8407
1842.523 4.9687 5.06 5.16 5.25 5.31 5.38 5.46 5.58 5.75 5.87
1861.816 5.94 6.04 6.12 6.28 6.39 6.42 6.52 6.63 6.74 6.86
1881.110 6.96 7.12 7.24 7.34 7.46 7.59 7.76 7.92 8.07 8.23
1900.403 8.48 8.74 8.99 9.29 9.59 9.86 10.15 10.48 10.87 11.29
1919.696 11.76 12.21 12.67 13.21 13.77 14.33 14.94 15.6 16.28 16.96
1938.990 17.73 18.55 19.39 20.28 21.2 22.22 23.35 24.51 25.76 27.11
1958.283 28.58 30.16 31.84 33.62 35.57 37.68 39.89 42.29 44.89 47.67
1977.577 50.63 53.85 57.4 61.18 65.17 69.44 74.03 78.9 84.13 89.7
1996.870 95.58 101.77 108.28 115.19 122.45 129.97 137.8 145.93 154.34 162.95
2016.164 171.8 180.84 189.92 199.05 208.15 217.18 226.03 234.58 242.82 250.72
2035.457 258.16 265.13 271.64 277.66 283.13 288.13 292.49 296.18 299.15 301.19
2054.750 302.27 302.5 301.74 299.94 297.27 293.73 289.19 283.75 277.39 269.91
2074.044 261.43 251.92 241.34 229.91 217.78 205.21 192.55 180.05 167.83 156.02
2093.337 144.9 134.45 124.7 115.73 107.39 99.73 92.71 86.33 80.59 75.44
2112.631 70.85 66.68 62.91 59.57 56.69 54.1 51.71 49.67 47.94 46.42
2131.924 45.09 44.03 43.21 42.56 42.08 41.8 41.7 41.74 41.99 42.43
2151.218 43.02 43.7 44.5 45.5 46.58 47.68 48.84 50.09 51.37 52.51
2170.511 53.6 54.65 55.5 56.13 56.43 56.41 56.04 55.27 54.19 52.84
2189.804 51.24 49.47 47.61 45.65 43.58 41.49 39.44 37.38 35.29 33.31
2209.098 31.47 29.64 27.87 26.24 24.68 23.22 21.87 20.7 19.63 18.58
2228.391 17.66 16.86 16.11 15.42 14.82 14.27 13.72 13.25 12.88 12.51
2247.685 12.11 11.75 11.44 11.13 10.84 10.51 10.19 9.93 9.69 9.46
2266.978 9.2 8.93 8.69 8.5 8.29 8.05 7.86 7.66 7.49 7.31
2286.272 7.11 6.87 6.65 6.51 6.32 6.14 6.03 5.84 5.63 5.49
2305.565 5.38 5.25 5.13 5.04 4.9017 4.7786 4.6795 4.5502 4.4125 4.2935
2324.858 4.1833 4.0735 3.98121 3.846 3.727 3.663 3.56 3.529 3.517 3.456
2344.152 3.387 3.361 3.346 3.265 3.197 3.14 3.155 3.097 3.083 3.153
2363.445 3.144 3.107 3.098 3.074 3.039 3.056 3.036 3 2.979 2.93
2382.739 2.86 2.79 2.74 2.71 2.68 2.68 2.63 2.63 2.65 2.59
2402.032 2.57 2.55 2.56 2.56 2.55 2.55 2.53 2.51 2.54 2.55
2421.326 2.52 2.48 2.44 2.5 2.52 2.51 2.52 2.53 2.54 2.57
2440.619 2.58 2.55 2.54 2.54 2.56 2.56 2.55 2.54 2.58 2.6
2459.912 2.62 2.67 2.66 2.66 2.68 2.69 2.71 2.73 2.77 2.82
2479.206 2.85 2.87 2.9 2.96 3.006 2.982 3.02 3.107 3.123 3.183
2498.499 3.243 3.235 3.253 3.301 3.313 3.296 3.305 3.343 3.368 3.409
2517.793 3.463 3.495 3.546 3.574 3.646 3.676 3.718 3.771 3.786 3.834
2537.086 3.8824 3.9151 3.9113 3.9005 3.9528 3.99322 4.00263 4.06292 4.0985 4.157
2556.380 4.1811 4.1853 4.1811 4.21 4.2414 4.2303 4.2703 4.2739 4.253 4.2588
2575.673 4.1735 4.0984 4.1582 4.1319 4.0024 3.8859 3.806 3.787 3.784 3.743
2594.966 3.714 3.682 3.648 3.575 3.491 3.441 3.392 3.362 3.258 3.177
2614.260 3.19 3.145 3.085 3.073 3.002 2.96 2.94 2.88 2.84 2.8
2633.553 2.83 2.89 2.88 2.9 2.88 2.85 2.88 2.95 2.95 2.86
2652.847 2.82 2.82 2.88 2.88 2.85 2.84 2.87 2.86 2.78 2.79
2672.140 2.79 2.76 2.79 2.85 2.86 2.86 2.83 2.88 2.91 2.89
2691.434 2.89 2.84 2.87 2.9 2.86 2.91 2.97 2.93 2.92 2.94
2710.727 2.87 2.82 2.89 2.94 3.029 3.146 3.121 3.239 3.387 3.369
2730.020 3.425 3.515 3.649 3.749 3.721 3.759 3.776 3.768 3.834 3.8794
2749.314 4.06218 4.1946 4.1899 4.2165 4.2858 4.4193 4.4661 4.542 4.6752 4.7498
2768.607 4.8339 4.8649 4.97 5.07 5.17 5.36 5.41 5.46 5.61 5.76
2787.901 5.99 6.14 6.19 6.27 6.22 6.25 6.37 6.53 6.78 7
2807.194 7.27 7.57 7.91 8.36 8.92 9.55 10.28 11.1 12.06 13.27
2826.488 14.63 16.16 18.1 20.36 22.83 25.46 28.01 30.19 31.78 32.53
2845.781 32.29 31.28 29.67 27.68 25.58 23.7 22.17 20.93 20.27 19.95
2865.074 19.78 19.77 19.85 20.12 20.44 20.75 21 21.27 21.48 21.58
2884.368 21.72 21.79 21.88 21.88 21.88 21.81 21.71 21.8 21.93 22.34
2903.661 23 23.76 24.54 25.59 26.81 28.02 29.33 30.55 31.89 33.36
2922.955 34.96 36.83 38.97 41.44 44.23 47.47 50.96 54.5 57.87 60.58
2942.248 62.48 63.7 64.18 63.87 62.76 60.97 59.08 56.93 54.49 52.08
2961.542 49.34 46.34 43.42 40.54 37.91 35.54 33.21 31.08 29.3 27.77
2980.835 26.55 25.72 25.24 25.05 25.19 25.53 26.34 27.66 29.19 31.01
3000.128 33.07 35.31 37.45 39.03 39.53 38.76 36.97 34.29 30.99 27.45
3019.422 23.95 20.92 18.6 16.95 15.8 15.04 14.48 14.12 13.99 14.01
3038.715 14 13.8 13.68 13.62 13.53 13.36 13.15 12.92 12.65 12.57
3058.009 12.48 12.05 11.65 11.21 10.74 10.37 9.98 9.44 8.68 8.12
3077.302 7.65 7.01 6.62 6.34 5.84 5.38 4.9523 4.535 4.365 4.1823
3096.596 3.98572 3.699 3.436 3.357 3.113 2.96 2.91 2.76 2.69 2.58
3115.889 2.49 2.43 2.3 2.04 1.9 1.99 2.03 1.85 1.57 1.49
3135.182 1.45 1.3 1.05 0.97 0.95 0.77 0.64 0.65 0.57 0.47
3154.476 0.52 0.57 0.5 0.46 0.56 0.59 0.41 0.38 0.48 0.39
3173.769 0.41 0.53 0.48 0.37 0.4 0.54 0.43 0.31 0.41 0.33
3193.063 0.21 0.3 0.35 0.34 0.3 0.37 0.39 0.32 0.33 0.23
3212.356 0.21 0.25 0.21 0.24 0.15 0.17 0.24 0.12 0.02 0
3231.650 0.07 0.2 0.16 0.11 0.09 0.11 0.22 0.35 0.51 0.36
3250.943 0.38 0.46 0.28 0.23 0.3 0.29 0.31 0.43 0.43 0.36
3270.236 0.26 0.2 0.14 0.19 0.3 0.29 0.27 0.29 0.4 0.46
3289.530 0.36 0.25 0.37 0.59 0.59 0.48 0.41 0.42 0.54 0.64
3308.823 0.59 0.59 0.56 0.39 0.44 0.54 0.59 0.66 0.64 0.64
3328.117 0.56 0.51 0.58 0.61 0.61 0.58 0.59 0.66 0.75 0.68
3347.410 0.63 0.57 0.54 0.51 0.55 0.67 0.52 0.46 0.56 0.54
3366.704 0.58 0.55 0.56 0.67 0.63 0.61 0.68 0.59 0.65 0.88
3385.997 0.81 0.77 0.9 0.92 0.84 0.78 0.77 0.76 0.97 1.13
3405.290 1 0.92 0.96 0.93 0.84 0.9 1.06 1.13 1.16 1.07
3424.584 0.9 0.93 1.09 1.15 1.05 0.95 0.94 1.02 1.1 1.14
3443.877 1.24 1.21 1.11 1.23 1.21 1.1 1.22 1.37 1.44 1.37
3463.171 1.37 1.3 1.2 1.21 1.26 1.28 1.2 1.23 1.31 1.4
3482.464 1.38 1.31 1.36 1.4 1.4 1.31 1.31 1.36 1.4 1.5
3501.758 1.45 1.48 1.53 1.6 1.57 1.48 1.61 1.58 1.58 1.7
3521.051 1.63 1.63 1.65 1.52 1.51 1.51 1.47 1.45 1.33 1.41
3540.344 1.53 1.57 1.71 1.67 1.57 1.54 1.62 1.65 1.55 1.59
3559.638 1.61 1.54 1.65 1.75 1.71 1.65 1.65 1.73 1.77 1.71
3578.931 1.63 1.67 1.78 1.77 1.75 1.76 1.72 1.76 1.83 1.82
3598.225 1.75 1.76 1.78 1.77 1.76 1.77 1.87 2.09 2.04 1.78
3617.518 1.75 1.8 1.88 1.89 1.93 2.05 2.01 2.04 2.01 1.89
3636.812 1.89 1.95 1.94 1.9 1.92 1.92 1.95 1.96 1.85 1.81
3656.105 1.91 1.94 1.93 2.04 2.04 1.97 1.94 1.87 1.86 1.96
3675.398 2.07 2.02 1.98 1.95 1.97 2.01 1.9 1.99 2.04 1.99
3694.692 1.96 1.87 1.98 2.08 1.94 1.94 2.09 2.06 1.97 1.95
3713.985 1.95 1.88 1.86 2.01 1.96 1.93 2.01 2.11 2.18 2.25
3733.279 2.21 2.12 2.21 2.16 2.08 2.06 2.04 2.18 2.2 2.18
3752.572 2.25 2.3 2.25 2.27 2.3 2.11 2 2.09 2.23 2.24
3771.866 2.16 2.02 2.05 2.24 2.19 2.07 2.17 2.2 2.16 2.21
3791.159 2.21 2.16 2.07 2.09 2.28 2.37 2.22 2.07 2.13 2.25
3810.452 2.13 2.13 2.22 2.12 2.17 2.23 2.22 2.34 2.37 2.3
3829.746 2.31 2.2 2.15 2.26 2.35 2.44 2.35 2.36 2.46 2.33
3849.039 2.3 2.37 2.34 2.37 2.45 2.52 2.51 2.54 2.5 2.48
3868.333 2.59 2.59 2.47 2.41 2.42 2.37 2.41 2.62 2.69 2.57
3887.626 2.61 2.6 2.49 2.51 2.51 2.38 2.41 2.48 2.44 2.46
3906.920 2.49 2.41 2.3 2.35 2.4 2.42 2.54 2.55 2.44 2.54
3926.213 2.6 2.55 2.59 2.67 2.66 2.65 2.77 2.82 2.77 2.68
3945.506 2.61 2.62 2.7 2.8 2.89 2.95 2.97 2.99 2.972 2.991
3964.800 3.034 3.14 3.199 3.127 3.137 3.14 3.089 3.175 3.256 3.208
3984.093 3.043 3.06 3.222 3.282 3.319 3.249 3.087 3.093 3.148
##END=
