##TITLE=Tetradecylbenzene
##JCAMP-DX=4.24
##DATA TYPE=INFRARED SPECTRUM
##ORIGIN=NIST Mass Spectrometry Data Center
##OWNER=NIST Standard Reference Data Program
Collection (C) 2018 copyright by the U.S. Secretary of Commerce
on behalf of the United States of America. All rights reserved.
##CAS REGISTRY NO=1459-10-5
##MOLFORM=C 20 H 34
##$NIST SOURCE=MSDC-IR
##SPECTROMETER/DATA SYSTEM=HP-GC/MS/IRD
##STATE=gas
##XUNITS=1/CM
##YUNITS=ABSORBANCE
##XFACTOR=1.0
##YFACTOR=0.000006500
##DELTAX=4.0
##FIRSTX=550.0
##LASTX=3846.0
##FIRSTY=0.000169
##MAXX=3846
##MINX=550
##MAXY=0.065
##MINY=0
##NPOINTS=825
##XYDATA=(X++(Y..Y))
550.0 26 27 29 42 64 63 51 47 38 34
590.0 32 27 18 11 7 3 0 0 6 10
630.0 14 14 16 19 20 32 46 51 67 95
670.0 132 182 237 307 410 597 821 894 792 670
710.0 606 574 555 562 581 615 667 687 647 553
750.0 439 340 265 211 177 148 123 101 88 83
790.0 77 72 65 57 49 48 53 47 48 47
830.0 42 44 43 40 39 39 39 38 36 37
870.0 40 45 44 43 51 55 57 61 68 71
910.0 65 56 50 48 40 40 40 38 40 37
950.0 33 34 32 31 34 35 34 37 35 32
990.0 30 33 36 38 42 50 61 76 103 140
1030.0 159 134 92 70 62 64 69 79 85 87
1070.0 90 91 88 82 75 65 60 56 53 56
1110.0 57 54 49 41 35 32 32 35 35 32
1150.0 30 31 33 31 32 37 43 49 48 47
1190.0 51 55 54 54 57 54 55 58 58 59
1230.0 62 65 66 65 64 68 75 76 78 82
1270.0 87 95 102 110 117 128 142 151 159 165
1310.0 166 160 157 158 162 176 194 213 248 281
1350.0 299 303 284 256 242 222 195 181 170 148
1390.0 126 107 98 99 99 104 106 107 125 154
1430.0 187 233 314 428 547 656 726 768 775 707
1470.0 588 454 361 317 312 362 434 428 317 179
1510.0 106 82 59 49 52 53 47 32 24 32
1550.0 35 28 20 37 54 57 63 79 101 120
1590.0 144 174 206 223 208 159 102 63 46 39
1630.0 34 27 28 29 22 11 6 16 19 17
1670.0 13 11 9 3 3 12 9 0 3 13
1710.0 15 5 1 14 21 14 7 15 19 14
1750.0 5 7 13 12 13 11 16 25 31 41
1790.0 50 51 45 30 29 27 23 19 16 13
1830.0 12 17 20 17 17 25 31 34 35 33
1870.0 32 34 32 29 24 18 16 14 15 11
1910.0 13 18 17 23 34 42 47 50 47 46
1950.0 45 37 25 16 9 7 7 6 6 7
1990.0 6 4 6 8 8 7 11 11 12 11
2030.0 12 12 11 9 9 9 8 8 7 4
2070.0 3 2 3 4 5 4 2 1 2 3
2110.0 4 2 3 2 1 2 1 2 3 3
2150.0 2 0 3 4 3 3 3 3 2 3
2190.0 6 4 2 0 2 3 4 3 3 3
2230.0 4 3 4 3 4 5 7 6 4 2
2270.0 3 4 3 5 5 5 6 7 6 7
2310.0 6 8 9 4 1 0 1 1 3 4
2350.0 2 0 0 2 1 0 3 5 5 6
2390.0 8 7 7 8 7 9 10 10 12 10
2430.0 10 12 11 7 6 9 11 13 11 11
2470.0 10 10 11 11 13 14 13 14 16 16
2510.0 18 20 22 23 25 27 27 25 28 30
2550.0 26 23 26 27 29 30 33 36 41 43
2590.0 43 44 45 48 51 53 55 58 59 60
2630.0 63 68 71 71 71 74 79 82 85 90
2670.0 92 94 95 93 95 94 91 87 83 80
2710.0 81 83 85 87 89 92 92 94 99 104
2750.0 108 111 115 122 128 134 143 153 166 182
2790.0 201 214 230 249 272 300 334 372 419 475
2830.0 543 630 758 955 1267 1762 2480 3265 3733 3642
2870.0 3178 2659 2276 2054 1936 1899 1968 2164 2498 2958
2910.0 3529 4256 5261 6673 8367 9719 10000 9103 7514 5802
2950.0 4374 3395 2832 2545 2355 2098 1720 1336 1045 846
2990.0 707 614 559 528 510 510 528 577 667 781
3030.0 872 868 757 616 517 470 466 510 597 699
3070.0 747 684 568 486 439 390 335 287 253 223
3110.0 194 165 135 108 90 82 76 68 65 64
3150.0 62 61 56 54 52 50 47 48 44 36
3190.0 35 35 38 37 35 33 29 29 32 31
3230.0 31 30 26 23 24 24 21 22 23 23
3270.0 25 23 21 21 23 25 22 17 14 14
3310.0 14 17 18 20 19 16 17 20 20 15
3350.0 14 17 20 21 21 20 21 19 19 20
3390.0 22 21 17 14 17 17 15 17 18 20
3430.0 18 15 18 19 13 13 14 16 18 18
3470.0 15 14 14 14 14 12 12 11 8 11
3510.0 11 13 12 6 4 7 10 13 12 8
3550.0 11 12 13 11 0 3 16 20 17 10
3590.0 10 13 14 17 17 14 15 16 23 20
3630.0 12 21 28 31 24 19 24 27 29 25
3670.0 14 10 16 25 22 19 27 28 23 23
3710.0 21 21 26 20 13 16 13 14 11 9
3750.0 17 20 26 28 29 29 30 29 30 32
3790.0 34 34 30 27 32 36 32 27 29 33
3830.0 32 30 28 32 38
##END=
