##TITLE=Triflupromazine
##JCAMP-DX=4.24
##DATA TYPE=INFRARED SPECTRUM
##ORIGIN=NIST Mass Spectrometry Data Center
##OWNER=NIST Standard Reference Data Program
Collection (C) 2018 copyright by the U.S. Secretary of Commerce
on behalf of the United States of America. All rights reserved.
##CAS REGISTRY NO=146-54-3
##MOLFORM=C 18 H 19 F 3 N 2 S
##$NIST SOURCE=MSDC-IR
##SPECTROMETER/DATA SYSTEM=HP-GC/MS/IRD
##STATE=gas
##XUNITS=1/CM
##YUNITS=ABSORBANCE
##XFACTOR=1.0
##YFACTOR=0.000002300
##DELTAX=4.0
##FIRSTX=550.0
##LASTX=3846.0
##FIRSTY=0.000301
##MAXX=3846
##MINX=550
##MAXY=0.023
##MINY=0
##NPOINTS=825
##XYDATA=(X++(Y..Y))
550.0 131 35 10 26 0 23 47 45 74 55
590.0 42 62 77 93 99 90 109 137 152 131
630.0 88 102 110 100 117 149 195 232 188 100
670.0 69 101 151 141 102 120 150 188 213 235
710.0 291 437 741 1008 1046 1064 1281 1753 2226 2101
750.0 1399 784 483 343 281 246 232 226 216 224
790.0 216 207 255 333 470 818 1221 1153 735 437
830.0 351 352 337 328 319 323 349 408 513 661
870.0 826 865 717 517 377 304 276 268 279 307
910.0 401 558 768 1033 1213 1211 1084 903 676 476
950.0 365 320 311 320 338 369 400 379 322 276
990.0 265 271 286 322 364 386 399 432 498 628
1030.0 847 1088 1231 1233 1172 1151 1158 1175 1228 1354
1070.0 1565 1896 2342 2635 2456 2035 1781 1799 1993 2112
1110.0 2013 1836 1813 2143 3025 4542 6645 8930 10000 8375
1150.0 5345 3374 2807 3146 4294 5774 6279 5057 3181 1919
1190.0 1348 1102 999 982 1051 1214 1447 1715 2016 2418
1230.0 3015 3816 4561 4795 4301 3413 2613 2106 1843 1712
1270.0 1634 1637 1686 1702 1689 1688 1762 1976 2388 3088
1310.0 4103 5355 6667 7768 8372 8384 7790 6533 4809 3227
1350.0 2204 1645 1308 1130 1110 1168 1202 1182 1141 1105
1390.0 1085 1094 1174 1373 1748 2414 3482 4793 5536 4916
1430.0 3503 2462 2151 2318 2521 2569 2812 3589 4462 4691
1470.0 4041 2964 2080 1586 1376 1274 1148 964 751 548
1510.0 412 342 284 247 225 225 223 211 218 241
1550.0 279 346 462 658 811 812 717 649 637 651
1590.0 673 726 810 833 731 542 365 257 221 209
1630.0 198 172 140 118 104 89 82 104 126 137
1670.0 127 109 107 98 92 102 90 67 63 70
1710.0 70 59 58 72 81 77 76 99 120 128
1750.0 128 125 118 104 96 90 74 60 54 55
1790.0 54 52 61 66 65 61 54 43 36 32
1830.0 37 42 46 57 69 76 73 69 70 83
1870.0 111 140 156 157 128 90 72 60 45 37
1910.0 40 53 70 81 74 53 31 18 14 10
1950.0 8 6 9 13 8 11 12 8 10 10
1990.0 13 11 11 11 5 11 10 12 19 11
2030.0 2 10 16 16 11 1 8 17 13 18
2070.0 23 14 10 13 15 13 17 23 22 23
2110.0 21 9 13 14 5 7 10 12 18 20
2150.0 17 13 11 9 7 11 12 7 4 8
2190.0 12 10 7 2 4 9 13 10 5 8
2230.0 13 9 0 15 24 17 20 24 29 25
2270.0 19 21 18 17 16 17 20 22 23 21
2310.0 23 20 20 28 29 22 20 21 18 14
2350.0 20 19 19 19 18 20 22 26 25 23
2390.0 28 29 19 20 23 22 27 33 39 38
2430.0 29 25 36 42 41 41 44 45 38 43
2470.0 44 42 46 50 48 55 61 57 64 71
2510.0 68 66 79 87 77 77 89 93 92 88
2550.0 90 108 116 113 116 119 117 116 112 106
2590.0 108 109 105 94 86 86 87 87 84 85
2630.0 96 99 106 108 107 124 125 117 127 134
2670.0 138 144 152 163 171 168 167 189 217 243
2710.0 277 309 349 385 410 439 466 495 526 562
2750.0 611 685 795 973 1229 1590 1943 2091 2000 1810
2790.0 1669 1602 1566 1493 1398 1334 1343 1433 1548 1579
2830.0 1441 1208 1020 922 891 895 941 1018 1091 1138
2870.0 1121 1044 965 909 879 863 862 874 879 890
2910.0 915 940 968 1029 1126 1238 1342 1445 1571 1723
2950.0 1839 1825 1678 1520 1437 1495 1640 1693 1530 1203
2990.0 875 664 544 447 383 358 339 323 311 287
3030.0 261 260 269 265 273 287 310 377 486 633
3070.0 817 919 842 658 498 381 291 236 189 157
3110.0 151 132 111 107 105 97 85 80 76 79
3150.0 82 69 58 56 60 61 55 58 59 58
3190.0 63 54 56 62 59 48 29 22 33 42
3230.0 25 29 37 24 25 36 40 31 29 36
3270.0 35 33 39 33 23 25 18 16 25 25
3310.0 26 23 19 20 24 32 29 22 24 22
3350.0 32 28 16 26 36 31 29 26 22 23
3390.0 28 37 42 25 10 24 19 27 41 50
3430.0 44 40 42 25 24 30 29 19 2 6
3470.0 12 16 34 32 25 35 36 32 38 50
3510.0 33 19 32 24 20 32 44 48 44 31
3550.0 24 35 35 39 39 40 44 37 28 19
3590.0 18 19 24 31 25 15 10 17 27 17
3630.0 14 24 27 32 30 31 30 23 22 17
3670.0 4 0 8 29 42 41 42 40 33 19
3710.0 20 36 32 28 41 41 32 41 34 19
3750.0 5 15 31 34 28 37 50 40 38 44
3790.0 49 55 55 40 32 49 55 43 44 49
3830.0 54 46 18 11 35
##END=
