##TITLE=2-Fluoro-3-(trifluoromethyl)benzonitrile
##JCAMP-DX=4.24
##DATA TYPE=INFRARED SPECTRUM
##ORIGIN=EPA-IR VAPOR PHASE LIBRARY
##OWNER=SRD/NIST
Collection (C) 2018 copyright by the U.S. Secretary of Commerce
on behalf of the United States of America. All rights reserved.
##CAS REGISTRY NO=146070-35-1
##MOLFORM=C 8 H 3 F 4 N
##$NIST SOURCE=MSDC-IR
##STATE=gas
##XUNITS=1/CM
##YUNITS=ABSORBANCE
##XFACTOR=1.
##YFACTOR=0.001
##DELTAX=1.92898
##FIRSTX=549.8
##LASTX=4000.7
##FIRSTY=2.0496
##MAXX=4000.7
##MINX=549.759
##MAXY=0.21129
##MINY=0
##NPOINTS=1790
##XYDATA=(X++(Y..Y))
549.759 2.0496 2.12 1.8984 1.81 1.3688 1.3984 1.5626 0.188 0.339 1.6662
569.049 1.4202 1.0734 1.2639 1.1613 1.5218 2.33 2.55 2.32 2.0272 2.42
588.339 2.83 2.28 2.48 3.21 3.19 3.38 3.71 5.05 6.88 7.75
607.628 8.34 8.35 8.54 8.48 8.52 8.31 6.55 4.93 3.52 3.5
626.918 3.42 2.74 2.23 1.6542 1.264 1.4687 2.21 2.44 1.7063 1.4623
646.208 2.13 2.25 2.0294 1.5145 1.5612 2.19 2.67 2.94 2.82 2.1019
665.498 1.9371 2.69 2.81 2.0959 1.651 1.8827 1.6913 1.3579 1.3146 1.5401
684.787 1.9383 1.9854 1.8423 2.11 2.11 1.4482 1.444 2.11 2.19 2.12
704.077 2.43 2.75 3.18 4.28 6.13 8.32 11.03 14.43 16.79 18.06
723.367 19.65 19.72 19.77 20.6 19.2 16.81 15.94 16.27 17.53 20.29
742.657 23.93 23.98 19.27 16.13 14.64 12.77 10.69 8.61 6.98 4.44
761.947 3.14 3.05 2.67 2.34 2.68 2.84 2.13 1.981 2.23 2.9
781.236 3.77 4.69 5.78 7.34 9.18 10.81 12.67 14.3 16.42 19.96
800.526 22.73 21.06 17.12 15.19 13.5 11.29 9.37 8.01 7.98 7.99
819.816 7.93 7.4 6.3 7.39 9.54 10.43 11.39 11.47 11 11.72
839.106 12.15 11.69 11.03 10.3 9.74 9.88 10.29 10.14 9.85 9.87
858.395 10.11 10.39 10.08 9.32 9.4 9.87 9.77 9.99 10.05 10.42
877.685 9.96 8.8 8.21 7.01 5.62 4.53 3.84 3.34 2.89 2.88
896.975 2.88 2.42 1.8521 1.7514 1.4432 1.3047 1.6704 1.8366 1.9404 1.9131
916.265 2.09 1.7489 1.4053 1.8384 2.33 2.22 2.44 2.23 1.958 2.57
935.555 2.47 2.0641 2.38 2.59 2.47 2.39 2.38 2.83 3.27 2.54
954.844 2.0601 2.29 1.8029 2.22 2.55 2.42 2.46 2.15 2.23 2.41
974.134 2.6 2.5 2.65 2.7 1.9463 2.0237 2.52 2.98 2.64 1.4135
993.424 0.941 1.9953 2.78 2.13 2.0294 2.44 2.66 2.53 2.55 2.6
1012.714 2.14 1.8487 2.11 2.47 1.9006 1.8397 2.2 2.47 2.87 2.61
1032.003 2.8 3.29 4.02 4.29 3.68 3.5 3.82 4.2 4.96 4.85
1051.293 4.08 5.33 7.39 7.89 8.72 9.91 10.18 10.59 12.31 14.19
1070.583 13.93 14.43 15.3 15.49 16.92 16.86 15.93 17.25 16.86 14.59
1089.873 12.6 10.43 11.24 10.65 8.36 8.38 10.96 13.56 14.95 19.52
1109.163 26.72 34.87 43.65 52.79 59.5 63.66 66.43 69.65 69.05 61.99
1128.452 51.95 42.41 38.4 37.63 36.55 37.61 40.52 42.37 45.23 49.49
1147.742 54.54 60.21 66.08 73.24 81.39 89.66 99.35 111.83 125.57 141.17
1167.032 160.18 179.22 194.86 206.27 211.29 201.28 181.1 160.72 137.57 111.33
1186.322 88.52 72.72 59.35 48.25 40.86 33.79 27.94 25.06 21.67 18.54
1205.611 15.54 12.44 11.05 11.02 10.25 9.68 10.3 8.99 7.94 8.01
1224.901 6.79 7.54 8.98 9.09 9.3 8.75 10.16 11.85 12.87 15.03
1244.191 18.14 21.49 25.15 28.83 32.27 35.78 37.25 37.01 37.2 36.34
1263.481 33.87 30.45 27.09 23.06 19.67 17.77 16.08 15.35 14.68 13.81
1282.771 13.67 13.71 12.99 12.95 13.16 12.75 12.59 12.61 13.51 15.35
1302.060 17.81 21.24 25.93 32.27 41.1 52.61 66.9 84.7 106.05 130.19
1321.350 153.86 173.06 184.83 188.49 185.29 175.49 158.77 135.13 106.11 78.1
1340.640 56.79 42.7 33.77 27.71 22.98 19.25 16.39 13.93 12 10.32
1359.930 8.81 7.69 6.73 6.22 5.9 5.38 4.95 4.57 4.16 3.83
1379.219 3.57 3.49 3.58 3.59 3.41 3.17 2.97 2.85 2.89 2.62
1398.509 2.41 2.71 2.85 2.63 2.53 2.45 2.42 2.48 2.43 2.39
1417.799 2.26 2.38 2.56 2.71 2.81 2.93 3.22 3.43 3.75 4.35
1437.089 4.81 5.28 6.18 6.57 7.18 8.44 9.95 11.82 14.1 16.81
1456.378 20.62 25.79 31.64 38.49 46.2 54.44 62.36 69.64 74.92 77.69
1475.668 77.22 73.84 68.54 61.43 52.8 43.49 34.39 26.72 20.9 16.45
1494.958 12.89 10.12 8.28 7.14 6.23 5.45 4.93 4.64 4.42 4.31
1514.248 4.19 4.12 4.11 3.82 3.72 3.83 3.57 3.37 3.22 2.81
1533.538 2.8 2.86 2.72 2.47 2.35 2.56 2.56 2.54 2.36 2.33
1552.827 2.5 2.6 3.1 3.28 3.24 3.38 3.46 3.88 4.74 5.46
1572.117 5.98 6.68 7.48 8.34 9.41 10.81 12.18 13.35 14.07 14.86
1591.407 15.67 15.97 16.24 16.49 16.13 15.75 15.74 15.6 15.82 16.28
1610.697 17.1 17.86 17.68 17.35 16.98 16.03 14.57 12.73 11.17 9.81
1629.986 8.33 7.22 6.17 5.36 4.68 4.08 4.24 4.32 3.79 3.56
1649.276 3.56 3.38 3.25 3.3 3.06 3.18 3.49 3.61 3.76 3.67
1668.566 3.55 3.43 3.5 3.43 3.11 2.95 2.81 2.5 2.14 2.0932
1687.856 2.21 2.23 2.29 2.14 1.9641 2.0199 2.0815 1.9968 2.0837 1.9491
1707.146 1.6947 1.6927 1.8876 2.12 2.18 2.46 2.82 3.04 3.17 3.28
1726.435 3.26 3.1 3.12 2.97 2.57 2.29 1.8761 1.6942 1.8063 1.7556
1745.725 1.6912 1.6261 1.4825 1.4675 1.6073 1.5548 1.4892 1.3734 1.2956 1.3949
1765.015 1.3791 1.5366 1.7639 1.5328 1.5114 1.4713 1.3143 1.6167 1.7214 1.6115
1784.305 1.5675 1.5372 1.4661 1.4412 1.4157 1.4033 1.4448 1.5462 1.7291 1.7556
1803.594 1.6902 1.6576 1.6682 1.6507 1.5746 1.6008 1.4409 1.3002 1.4011 1.4568
1822.884 1.5083 1.4627 1.391 1.4908 1.7388 1.7684 1.6801 1.7229 1.86 2.0898
1842.174 2.0545 1.785 1.9085 2.16 2.29 2.32 2.2 2.18 2.13 1.9863
1861.464 1.9161 1.7823 1.5918 1.7112 1.777 1.7343 1.7187 1.6833 1.7054 1.6986
1880.754 1.7865 1.8892 1.9541 2.0991 2.23 2.48 2.81 3.16 3.29 3.31
1900.043 3.38 3.28 3.23 3.13 2.8 2.55 2.22 1.958 1.7858 1.7581
1919.333 1.6421 1.5032 1.6632 1.4981 1.4673 1.5707 1.4923 1.4779 1.5681 1.8467
1938.623 2.18 2.43 2.48 2.6 2.61 2.62 2.73 2.51 2.3 2.38
1957.913 2.47 2.42 2.12 1.8545 1.9136 1.8556 1.6956 1.3125 1.268 1.6298
1977.202 1.662 1.6541 1.5604 1.3748 1.3954 1.3525 1.3719 1.4067 1.4748 1.546
1996.492 1.5211 1.5159 1.6052 1.628 1.5493 1.6756 1.5624 1.5167 1.5467 1.5154
2015.782 1.6741 1.6102 1.5602 1.7062 1.716 1.7025 1.7768 1.8108 1.6691 1.4881
2035.072 1.697 1.9725 1.9814 1.8394 1.948 2.0672 1.7447 1.5443 1.5451 1.6626
2054.362 1.8625 1.9666 1.9751 1.7416 1.4938 1.4933 1.5419 1.7021 1.8962 1.9318
2073.651 1.8653 1.7584 1.731 1.7856 1.9178 2.0212 1.9948 1.983 2.0164 1.9557
2092.941 1.9051 1.8627 1.75 1.6253 1.6447 1.5695 1.5472 1.556 1.5351 1.6377
2112.231 1.3478 1.19181 1.4198 1.5141 1.5221 1.4706 1.4439 1.4836 1.5933 1.5389
2131.521 1.3766 1.3477 1.3423 1.3834 1.4674 1.4646 1.4962 1.5979 1.6004 1.4374
2150.810 1.4993 1.743 1.7585 1.7394 1.7806 1.9211 1.7826 1.7813 1.883 1.7476
2170.100 1.5505 1.4668 1.7871 2.0215 1.9114 1.6964 1.7841 1.8855 1.6659 1.6366
2189.390 1.7763 1.8161 1.9053 2.0879 2.17 2.0158 1.8083 1.7147 1.7326 1.6827
2208.680 1.6939 1.7765 1.7421 1.7115 1.803 1.877 1.9034 1.7961 1.6937 1.8468
2227.970 2.047 2.22 2.19 2.22 2.35 2.48 2.82 3.03 2.98 2.89
2247.259 2.76 2.92 2.84 2.69 2.62 2.42 2.17 2.001 1.9542 1.8808
2266.549 2.0335 2.0581 1.9949 2.0489 1.9294 1.6557 1.8205 2.0628 1.9032 1.8341
2285.839 1.8565 1.9795 2.22 2.099 1.9592 2.2 2.21 2.15 2.22 2.37
2305.129 2.43 2.29 2.3 2.25 2.45 2.53 2.35 2.21 2.0336 2.0053
2324.418 2.12 2.15 2.1018 2.14 2.12 2.0929 2.19 2.17 2.2 2.2
2343.708 2.1026 2.16 2.23 2.22 2.24 2.33 2.31 2.35 2.59 2.53
2362.998 2.31 2.25 2.12 1.8838 1.7024 1.6686 1.9434 2.1056 1.8876 1.8432
2382.288 1.9115 1.7873 1.6766 1.588 1.4724 1.6398 1.7581 1.6229 1.6311 1.8476
2401.578 1.8727 1.6532 1.6382 1.9813 2.0145 1.883 2.0119 1.9898 1.9527 2.0653
2420.867 1.8607 1.6494 1.8866 1.9482 1.8755 1.6773 1.832 2.0777 1.9128 1.6923
2440.157 1.6856 1.9283 1.9408 2.0432 2.077 2.14 2.0638 1.7151 1.6133 1.8469
2459.447 1.9621 1.8442 1.916 1.9225 1.8964 2.0409 1.8983 1.5598 1.4576 1.5853
2478.737 1.7875 1.719 1.3361 1.3098 1.6555 1.966 2.0967 2.12 2.17 2.21
2498.026 2.1054 2.0969 2.17 2.32 2.37 2.21 2.0999 2.16 2.18 2.1074
2517.316 2.0844 1.891 1.9293 2.2 1.9616 1.8535 1.8852 1.759 1.6754 1.6116
2536.606 1.5254 1.5956 1.8573 1.9185 1.9876 1.8622 1.7264 1.7888 1.9477 2.0626
2555.896 1.9322 1.7715 1.7598 1.7918 1.7279 2.0424 2.19 2.0249 2.0184 1.8324
2575.186 1.95 1.996 1.862 2.0154 2.0651 1.923 1.9378 2.12 1.841 1.4663
2594.475 1.6752 1.8162 1.9013 1.9911 1.9377 1.8363 2.0332 2.0587 1.9362 1.9158
2613.765 1.722 1.8039 1.8571 1.5207 1.4701 1.567 1.6901 1.7562 1.6236 1.5246
2633.055 1.5432 1.7868 1.7901 1.5983 1.4098 1.685 1.9982 1.7973 1.6387 1.7474
2652.345 1.7283 1.6372 1.6311 1.7092 1.7175 1.5157 1.5598 1.5367 1.4049 1.5961
2671.634 1.6274 1.7154 1.8621 1.694 1.5349 1.3899 1.4155 1.4808 1.6407 1.5559
2690.924 1.5502 1.6914 1.5919 1.5766 1.5723 1.7287 1.615 1.5825 1.8309 1.9009
2710.214 1.7195 1.6104 1.688 1.5935 1.437 1.4338 1.285 1.4062 1.9874 1.8112
2729.504 1.4951 1.799 1.91 1.7083 1.6126 1.8267 1.5991 1.4181 1.4307 1.4449
2748.794 1.6853 1.7191 1.9624 2.0303 2.28 2.34 1.9585 1.9912 1.9577 1.7356
2768.083 1.8782 2.0919 1.8122 1.6708 1.6251 1.5129 1.4773 1.5408 1.4839 1.3587
2787.373 1.3294 1.5335 1.9739 2.0386 1.9652 2.0916 1.8884 1.6547 1.8577 2.0744
2806.663 1.9174 1.6974 1.3897 1.377 1.5393 1.4661 1.4252 1.4948 1.7043 1.8761
2825.953 1.9331 1.9518 2.0952 1.7563 1.4429 1.0478 1.15274 1.5138 1.6455 1.8492
2845.242 1.5444 1.5522 1.7567 1.7245 1.8274 1.878 2.31 2.37 1.7789 1.6542
2864.532 1.6851 1.8444 2.0623 1.9096 1.661 1.8479 1.8414 1.7423 1.6968 1.5539
2883.822 1.4805 1.16103 1.252 1.4613 1.5776 1.8445 1.8144 1.8713 1.8212 1.6842
2903.112 1.8205 1.8816 1.8582 1.7189 1.5363 1.3334 1.4093 1.7221 1.7597 1.7413
2922.401 1.6833 1.5764 1.4556 1.4699 1.7847 2.0061 1.9395 1.4721 1.0978 1.4102
2941.691 1.5595 1.2408 1.3611 1.6582 1.7198 1.5346 1.4859 1.6443 1.6482 2.13
2960.981 1.9815 1.4278 1.298 1.4004 1.9021 1.8778 1.5453 1.3698 1.0939 1.10795
2980.271 1.5165 1.4443 1.16552 1.2954 1.4535 1.4104 1.2659 1.3139 1.602 1.8193
2999.561 1.63 1.5072 1.7755 1.566 1.2626 1.8004 2.0338 1.5717 1.4027 1.277
3018.850 1.11115 1.23 1.5418 1.6804 1.9412 1.9023 1.7682 1.6832 1.2694 1.12589
3038.140 1.3178 1.635 1.6943 1.607 1.4024 1.483 1.6349 1.7889 1.9639 1.9357
3057.430 2.28 2.4 2.35 2.17 1.7217 2.14 2.8 3.27 2.99 2.15
3076.720 1.8111 1.7292 1.8485 2.0349 2.16 2.19 2.56 2.62 2.49 2.75
3096.009 2.35 2.24 2.53 2.22 2.0896 2.43 2.42 2.2 2.0865 2.16
3115.299 2.0506 2.13 2.3 1.9744 1.5091 1.2558 1.4884 1.7555 1.8635 1.6809
3134.589 1.6346 1.9669 1.5984 1.4014 1.6057 1.4656 1.664 1.6331 1.7519 2.0601
3153.879 2.0102 1.9331 1.3947 1.16374 1.4909 1.6967 1.6495 1.8058 1.7314 0.974
3173.169 1.0938 1.3946 1.2326 1.1326 1.5715 1.2965 0.878 1.3559 1.4978 1.2868
3192.458 1.0926 1.2872 1.5451 1.665 1.7555 1.681 1.4816 1.5883 1.8894 1.7008
3211.748 1.20193 1.4482 1.5838 1.5543 1.4787 1.0847 1.2115 1.2815 1.14476 1.5676
3231.038 1.6438 1.4384 1.0757 1.0872 1.4587 1.19453 1.0659 1.391 1.15092 0.923
3250.328 1.4129 1.841 1.9869 1.7771 1.3489 1.6592 2.35 2.35 2.0632 1.4836
3269.617 1.4014 1.8303 1.7171 1.3713 1.6326 1.8248 1.4952 1.12387 1.0767 1.4955
3288.907 1.2696 1.277 1.7173 1.5773 1.6182 1.5201 1.4175 1.4465 1.476 1.3713
3308.197 1.0348 1.18135 1.2956 1.3575 1.2849 1.2652 1.0589 0.886 1.13709 1.6176
3327.487 1.8208 1.11064 1.0197 1.5446 1.62 1.6135 1.7172 1.6006 1.3473 0.913
3346.777 1.19027 1.7266 1.4582 1.3266 1.4082 1.7525 2.35 2.21 1.657 1.523
3366.066 1.5262 1.0336 1.0349 1.3137 1.2447 1.3536 1.479 1.7539 1.8006 1.611
3385.356 1.6151 1.6503 1.6039 1.485 1.3806 1.6519 1.9262 1.6512 1.3465 1.0515
3404.646 0.751 0.959 1.0269 1.061 1.3857 1.6746 1.6969 1.6434 1.7571 1.5732
3423.936 1.2638 1.0927 1.6409 1.5895 1.2509 1.8162 2.1 1.7353 1.0122 0.982
3443.225 1.3658 1.7677 1.7805 1.6934 1.5882 1.4548 1.4823 1.13305 1.0189 1.3498
3462.515 1.4937 1.3406 1.42 1.4618 1.4522 1.6252 1.6961 1.6966 1.5167 1.3779
3481.805 1.6809 1.6474 1.4855 1.0172 0.976 1.639 1.7437 1.6976 1.4757 1.2268
3501.095 1.4245 1.3434 1.2286 1.4042 1.0351 0.707 0.832 1.3034 1.14043 1.11875
3520.385 2.0287 2.0363 1.4695 1.5604 2.11 2.11 1.5309 1.4155 1.8044 1.6401
3539.674 1.5536 2.0295 1.7947 1.1514 1.0688 0.916 1.0317 1.3641 1.5017 1.5694
3558.964 1.4178 1.3928 1.2164 0.995 0.845 1.11644 0.998 0.561 0.472 0.923
3578.254 1.5282 1.5258 1.3821 1.3616 1.7303 1.7185 1.20029 1.0867 1.059 0.99
3597.544 1.16719 1.5092 1.4162 1.18597 1.3522 0.989 1.3629 1.8449 1.4846 1.37
3616.833 1.3032 1.3353 1.3628 1.5128 1.5066 1.19316 0.944 1.12006 1.5857 1.7245
3636.123 1.6052 1.3239 1.003 1.17372 1.4063 1.2932 1.2613 1.0218 0.83 1.15326
3655.413 1.5801 1.7185 1.5449 1.222 0.706 0.976 1.2313 0.918 0.862 0.752
3674.703 0.797 1.2885 1.3219 1.0985 1.0315 0.507 0.417 1.11499 1.0172 1.1065
3693.993 1.4186 1.5489 1.8697 1.8752 1.709 1.5607 1.4124 0.812 0.779 1.6481
3713.282 2.0885 1.8903 1.6852 1.4977 1.4024 1.2017 0.852 0.863 1.20455 1.10869
3732.572 0.836 0.826 0.903 1.20614 1.3615 1.19688 1.2376 1.6904 1.9219 1.4948
3751.862 1.5438 2.0487 1.5663 1.11134 1.4704 1.259 1.0382 0.939 0.756 0.855
3771.152 0.441 0 0.379 1.0901 0.713 0.475 0.614 0.853 1.4902 1.5644
3790.441 1.4729 1.7339 1.7056 1.2354 1.3299 1.5124 1.4735 1.4417 1.11424 1.3352
3809.731 1.6719 1.5698 1.2681 0.963 1.19519 1.3832 1.4006 1.18982 1.0827 1.2768
3829.021 1.5479 1.0403 0.945 1.4685 1.3994 1.5248 1.6657 1.6994 1.19941 0.77
3848.311 1.0387 1.2723 0.887 0.82 1.5152 1.444 1.5107 1.784 1.7278 1.7192
3867.601 1.6999 1.6909 1.8409 1.8399 1.2397 1.5558 2.26 2.22 1.806 1.4815
3886.890 1.7794 2.17 2.0344 1.5582 1.734 2.0484 2.0433 1.9698 1.793 1.4503
3906.180 1.0761 1.0515 1.265 1.6758 2.0028 1.7986 1.6945 2.11 1.8393 1.427
3925.470 1.4235 1.6634 1.8806 1.5155 1.5868 1.7287 1.6069 1.7516 1.5169 1.4022
3944.760 1.8981 1.7383 1.7485 1.8704 1.4371 1.5686 1.5726 1.3749 1.7748 1.17762
3964.049 0.642 1.3011 2.0036 1.9259 1.4241 1.6428 1.7427 1.4004 1.4027 1.5449
3983.339 1.0813 1.11144 1.2166 1.15699 1.2143 1.3441 1.5316 1.088 0.747 0.762
##END=
