##TITLE=trans-1,2-Cyclohexanediol
##JCAMP-DX=4.24
##DATA TYPE=INFRARED SPECTRUM
##ORIGIN=NIST Mass Spectrometry Data Center
##OWNER=NIST Standard Reference Data Program
Collection (C) 2018 copyright by the U.S. Secretary of Commerce
on behalf of the United States of America. All rights reserved.
##CAS REGISTRY NO=1460-57-7
##MOLFORM=C 6 H 12 O 2
##$NIST SOURCE=MSDC-IR
##SPECTROMETER/DATA SYSTEM=HP-GC/MS/IRD
##STATE=gas
##XUNITS=1/CM
##YUNITS=ABSORBANCE
##XFACTOR=1.0
##YFACTOR=0.000001600
##DELTAX=4.0
##FIRSTX=550.0
##LASTX=3846.0
##FIRSTY=0.000312
##MAXX=3846
##MINX=550
##MAXY=0.016
##MINY=0
##NPOINTS=825
##XYDATA=(X++(Y..Y))
550.0 195 139 186 230 209 193 182 188 193 156
590.0 138 105 103 104 66 51 84 110 92 78
630.0 35 0 38 45 35 82 77 40 54 62
670.0 44 63 75 60 83 99 80 61 50 34
710.0 53 80 53 43 66 70 64 61 63 58
750.0 37 44 75 91 75 67 84 80 83 84
790.0 69 71 72 74 95 97 97 121 153 217
830.0 321 464 628 768 864 909 887 808 699 562
870.0 422 332 282 254 253 266 272 299 319 330
910.0 372 422 469 535 572 547 539 538 507 458
950.0 422 408 404 398 416 451 480 510 550 602
990.0 666 751 848 964 1109 1270 1489 1821 2268 2796
1030.0 3296 3762 4209 4639 5044 5342 5515 5653 5728 5654
1070.0 5411 4977 4382 3687 2987 2378 1913 1600 1378 1232
1110.0 1154 1089 1054 1004 929 882 845 800 794 808
1150.0 801 815 812 797 778 751 715 694 677 679
1190.0 688 695 720 762 809 859 921 977 1044 1104
1230.0 1152 1169 1173 1186 1175 1180 1206 1218 1224 1230
1270.0 1205 1160 1110 1060 1000 946 926 927 933 940
1310.0 945 959 980 988 999 1009 1002 967 950 940
1350.0 916 885 843 818 832 857 862 870 878 861
1390.0 816 758 701 634 575 513 457 423 412 424
1430.0 462 535 644 774 888 1017 1111 1085 981 865
1470.0 727 585 463 336 233 174 135 109 102 67
1510.0 47 48 39 34 42 50 50 34 17 29
1550.0 32 24 20 33 42 29 25 42 48 44
1590.0 49 38 30 37 42 36 28 28 30 34
1630.0 27 16 25 27 21 20 13 23 26 13
1670.0 8 5 4 0 1 11 14 9 0 3
1710.0 15 9 1 15 20 10 10 15 13 16
1750.0 11 9 9 10 15 11 7 2 5 12
1790.0 20 18 7 15 23 15 21 16 0 4
1830.0 16 22 23 11 11 19 21 14 10 9
1870.0 12 21 21 23 25 21 16 12 13 15
1910.0 17 23 21 12 17 23 19 23 18 18
1950.0 27 28 23 17 18 28 34 29 34 26
1990.0 14 23 27 21 21 21 8 15 10 10
2030.0 20 17 13 9 14 12 8 14 17 19
2070.0 20 15 13 24 33 34 31 24 28 41
2110.0 45 52 56 48 44 36 35 28 33 42
2150.0 44 47 50 46 38 36 33 29 31 33
2190.0 29 19 16 25 30 20 19 21 10 13
2230.0 24 27 29 27 25 25 24 24 30 21
2270.0 6 2 1 13 19 10 10 16 18 20
2310.0 23 20 22 31 30 36 42 50 55 51
2350.0 44 44 53 51 43 44 54 55 43 35
2390.0 37 33 28 29 30 41 44 28 26 24
2430.0 14 15 19 20 18 21 25 24 22 23
2470.0 27 24 27 36 38 37 43 38 25 33
2510.0 46 40 39 43 36 30 36 42 43 50
2550.0 59 56 57 67 67 60 67 79 70 65
2590.0 69 82 91 80 81 96 99 100 103 107
2630.0 110 115 121 130 129 130 140 140 147 158
2670.0 166 159 150 152 151 145 145 157 147 124
2710.0 129 140 138 148 153 149 150 170 178 169
2750.0 162 168 176 176 185 196 200 214 233 253
2790.0 268 281 285 300 326 345 358 386 440 497
2830.0 567 664 793 956 1191 1526 1992 2543 3060 3515
2870.0 3905 4032 3904 3630 3253 2819 2456 2221 2118 2146
2910.0 2333 2732 3343 4135 5109 6391 7988 9304 10000 9782
2950.0 8647 7389 6027 4387 2812 1655 961 584 390 293
2990.0 223 177 162 150 122 108 85 70 76 81
3030.0 77 62 58 57 43 42 56 55 55 57
3070.0 52 50 59 63 47 45 42 26 39 47
3110.0 39 47 46 26 18 31 44 25 3 13
3150.0 33 35 26 18 29 37 44 41 26 16
3190.0 12 23 37 44 46 36 29 14 21 37
3230.0 40 57 46 36 46 44 33 46 70 62
3270.0 44 47 44 37 42 34 29 17 20 34
3310.0 28 28 14 0 10 25 34 43 44 15
3350.0 21 54 51 45 54 55 46 48 49 47
3390.0 46 36 26 21 24 35 40 27 37 32
3430.0 28 29 18 22 12 15 32 30 20 27
3470.0 40 48 43 49 44 41 72 79 68 56
3510.0 46 58 63 67 59 57 69 73 69 65
3550.0 56 69 83 82 73 84 126 142 137 143
3590.0 186 246 295 392 520 663 845 1052 1239 1363
3630.0 1396 1403 1363 1240 1066 920 851 796 750 669
3670.0 573 474 363 277 214 176 147 131 134 113
3710.0 88 83 66 45 52 59 52 44 36 41
3750.0 55 68 53 32 33 47 53 59 61 38
3790.0 49 65 59 56 53 51 61 39 5 31
3830.0 50 38 54 80 76
##END=
