##TITLE=1-Ethylcyclopentanol
##JCAMP-DX=4.24
##DATA TYPE=INFRARED SPECTRUM
##ORIGIN=NIST Mass Spectrometry Data Center
##OWNER=NIST Standard Reference Data Program
Collection (C) 2018 copyright by the U.S. Secretary of Commerce
on behalf of the United States of America. All rights reserved.
##CAS REGISTRY NO=1462-96-0
##MOLFORM=C 7 H 14 O
##$NIST SOURCE=MSDC-IR
##SPECTROMETER/DATA SYSTEM=HP-GC/MS/IRD
##STATE=gas
##XUNITS=1/CM
##YUNITS=ABSORBANCE
##XFACTOR=1.0
##YFACTOR=0.000002700
##DELTAX=4.0
##FIRSTX=550.0
##LASTX=3846.0
##FIRSTY=0.000289
##MAXX=3846
##MINX=550
##MAXY=0.027
##MINY=0
##NPOINTS=825
##XYDATA=(X++(Y..Y))
550.0 107 113 99 76 70 82 91 66 70 76
590.0 92 131 138 104 79 62 67 78 60 45
630.0 21 41 64 53 62 43 19 36 47 34
670.0 22 27 10 9 38 36 25 0 22 63
710.0 42 11 13 27 38 43 51 59 55 43
750.0 24 40 67 60 62 90 102 100 105 123
790.0 141 138 129 148 175 180 170 181 202 224
830.0 218 214 220 231 235 247 284 338 390 434
870.0 476 513 552 583 607 606 579 546 511 489
910.0 471 454 464 479 517 590 662 753 861 981
950.0 1118 1258 1417 1585 1761 1925 2017 2011 1924 1773
990.0 1578 1355 1130 934 777 671 605 591 591 599
1030.0 612 581 555 543 513 495 474 458 458 474
1070.0 492 504 526 557 606 660 697 733 771 808
1110.0 834 842 853 833 794 773 757 752 756 753
1150.0 766 799 841 885 936 999 1076 1154 1213 1272
1190.0 1309 1328 1324 1283 1230 1164 1091 1016 951 913
1230.0 886 867 879 899 918 936 952 956 955 950
1270.0 938 919 896 870 828 794 763 729 701 685
1310.0 686 702 720 730 757 777 789 786 765 742
1350.0 719 704 686 693 699 692 701 702 685 663
1390.0 620 563 492 423 374 348 345 369 408 461
1430.0 527 615 705 792 881 938 991 1015 1002 964
1470.0 911 836 733 619 518 427 338 261 207 192
1510.0 175 145 130 113 101 96 92 89 84 78
1550.0 72 72 83 75 70 64 60 65 60 58
1590.0 44 43 49 49 48 44 42 38 37 39
1630.0 34 31 31 33 39 50 49 32 25 29
1670.0 35 37 34 45 42 22 18 31 34 18
1710.0 15 24 22 10 10 22 34 24 20 28
1750.0 28 22 19 15 14 21 17 10 14 17
1790.0 17 15 18 23 18 14 17 16 18 20
1830.0 21 24 18 22 32 28 22 19 18 19
1870.0 20 23 21 12 16 22 21 20 14 9
1910.0 8 9 13 13 14 17 16 17 19 17
1950.0 14 15 17 15 15 15 13 12 10 14
1990.0 13 12 13 2 0 5 3 6 11 12
2030.0 15 16 17 20 23 17 14 20 24 21
2070.0 10 5 14 18 17 21 13 5 9 12
2110.0 15 18 12 5 9 13 16 16 14 19
2150.0 27 24 19 24 29 28 28 30 27 20
2190.0 21 27 32 31 27 31 30 28 31 28
2230.0 30 31 31 33 37 37 24 23 25 30
2270.0 32 25 21 22 21 19 17 21 22 23
2310.0 27 25 34 37 31 28 25 24 30 34
2350.0 29 24 21 27 26 19 20 24 25 21
2390.0 21 23 19 10 8 17 17 12 4 0
2430.0 2 4 8 10 11 7 0 4 3 4
2470.0 7 3 4 12 16 19 23 23 17 14
2510.0 14 11 11 9 5 6 12 17 14 12
2550.0 12 14 19 16 24 30 27 26 28 33
2590.0 37 31 23 27 31 35 33 34 35 30
2630.0 31 33 39 42 48 48 45 47 48 50
2670.0 46 46 45 51 59 56 53 59 65 61
2710.0 64 74 79 82 92 96 99 111 119 129
2750.0 129 128 136 140 145 143 147 160 172 178
2790.0 200 219 214 230 257 287 324 365 412 471
2830.0 557 662 813 1015 1244 1496 1750 1998 2240 2489
2870.0 2738 2979 3215 3409 3515 3581 3601 3564 3558 3628
2910.0 3821 4143 4571 5089 5637 6159 6615 6988 7325 7696
2950.0 8152 8706 9307 9806 10000 9732 8997 7902 6583 5176
2990.0 3871 2853 2126 1614 1271 1033 856 721 625 548
3030.0 492 438 395 363 334 318 306 284 271 251
3070.0 237 232 212 197 182 174 173 153 130 125
3110.0 110 94 94 84 73 78 73 74 76 77
3150.0 76 73 73 70 67 65 74 72 63 51
3190.0 44 46 31 38 42 19 19 32 37 35
3230.0 32 33 34 29 20 16 21 31 43 42
3270.0 24 17 21 22 25 27 34 33 25 22
3310.0 27 31 24 28 37 32 11 0 11 14
3350.0 17 29 29 39 54 47 33 26 25 28
3390.0 32 32 42 48 47 53 43 28 26 44
3430.0 42 27 31 33 26 24 28 40 49 49
3470.0 45 57 47 37 39 26 24 47 64 62
3510.0 50 41 47 51 50 35 30 39 44 49
3550.0 36 32 45 44 49 53 47 35 27 48
3590.0 59 61 59 54 65 101 148 191 255 343
3630.0 431 483 515 537 524 455 361 293 227 182
3670.0 155 105 74 79 78 68 54 41 39 50
3710.0 63 59 40 46 65 54 50 53 55 55
3750.0 56 68 62 43 32 36 37 45 59 65
3790.0 56 44 34 39 49 37 30 48 59 41
3830.0 35 43 52 59 52
##END=
