##TITLE=1-Isopropylcyclopentene
##JCAMP-DX=4.24
##DATA TYPE=INFRARED SPECTRUM
##ORIGIN=NIST Mass Spectrometry Data Center
##OWNER=NIST Standard Reference Data Program
Collection (C) 2018 copyright by the U.S. Secretary of Commerce
on behalf of the United States of America. All rights reserved.
##CAS REGISTRY NO=1462-07-3
##MOLFORM=C 8 H 14
##$NIST SOURCE=MSDC-IR
##SPECTROMETER/DATA SYSTEM=HP-GC/MS/IRD
##STATE=gas
##XUNITS=1/CM
##YUNITS=ABSORBANCE
##XFACTOR=1.0
##YFACTOR=0.000004000
##DELTAX=4.0
##FIRSTX=550.0
##LASTX=3846.0
##FIRSTY=0.000972
##MAXX=3846
##MINX=550
##MAXY=0.04
##MINY=0
##NPOINTS=825
##XYDATA=(X++(Y..Y))
550.0 243 199 155 145 136 126 124 118 76 81
590.0 117 107 82 81 66 53 67 69 57 64
630.0 60 38 27 22 20 34 50 29 15 34
670.0 35 33 30 21 20 20 12 0 5 14
710.0 14 17 36 31 21 16 11 20 25 37
750.0 41 45 49 59 77 91 121 164 207 270
790.0 348 431 512 578 620 631 623 581 500 422
830.0 346 285 241 197 160 118 94 95 98 95
870.0 96 96 105 127 147 162 169 169 168 169
910.0 154 148 157 160 181 220 261 300 330 327
950.0 315 300 269 219 170 138 107 86 83 82
990.0 88 105 133 181 228 268 310 345 374 391
1030.0 392 384 352 307 279 245 220 219 220 218
1070.0 224 220 210 208 203 200 203 201 206 209
1110.0 209 205 188 171 155 152 151 136 126 128
1150.0 138 146 147 159 187 213 223 222 218 208
1190.0 188 172 168 164 172 192 196 185 182 184
1230.0 187 203 227 242 248 255 253 249 233 223
1270.0 231 259 308 350 388 425 461 485 492 480
1310.0 453 410 356 307 274 260 267 286 312 335
1350.0 367 406 442 486 535 575 621 647 637 600
1390.0 531 455 367 287 234 205 195 202 219 244
1430.0 279 330 394 463 542 624 710 793 848 863
1470.0 836 762 662 553 432 326 247 190 155 141
1510.0 122 102 92 87 76 63 55 52 53 51
1550.0 45 43 46 36 31 33 34 41 45 47
1590.0 56 64 69 74 82 99 110 116 127 142
1630.0 151 158 161 158 150 139 121 97 80 67
1670.0 58 56 56 58 58 52 51 53 49 45
1710.0 39 34 37 34 28 28 27 19 14 16
1750.0 20 20 22 26 24 21 20 17 23 26
1790.0 24 26 26 25 25 20 24 28 32 39
1830.0 41 42 45 48 46 39 37 38 33 27
1870.0 22 20 18 16 16 19 17 17 15 11
1910.0 13 16 20 17 13 13 14 9 12 15
1950.0 9 7 2 3 9 7 8 12 7 2
1990.0 8 4 1 4 6 6 6 10 13 11
2030.0 8 5 6 7 5 4 5 5 8 9
2070.0 8 1 2 6 5 5 2 2 5 7
2110.0 8 5 4 3 5 9 9 7 6 4
2150.0 6 8 7 10 15 15 13 13 14 14
2190.0 16 15 11 14 14 9 10 16 20 23
2230.0 23 21 19 24 24 20 22 20 19 20
2270.0 17 12 8 12 14 15 16 16 16 13
2310.0 13 20 22 25 23 19 22 18 17 18
2350.0 16 17 16 17 16 16 14 8 7 8
2390.0 3 4 8 8 7 9 8 5 5 6
2430.0 5 0 3 7 2 6 11 14 14 9
2470.0 13 15 12 12 14 13 12 13 14 13
2510.0 10 7 9 14 9 10 15 17 16 20
2550.0 25 24 31 41 41 44 52 58 59 63
2590.0 62 55 49 47 41 32 28 30 31 29
2630.0 27 25 27 28 30 37 35 30 35 39
2670.0 34 36 41 46 49 47 53 60 64 70
2710.0 79 90 100 108 114 121 131 137 142 145
2750.0 151 160 167 180 187 185 187 194 203 215
2790.0 236 264 296 342 394 453 520 605 708 845
2830.0 1036 1307 1691 2204 2795 3343 3783 4134 4412 4584
2870.0 4599 4500 4413 4372 4333 4320 4360 4439 4547 4662
2910.0 4757 4840 4955 5129 5351 5624 5956 6323 6729 7221
2950.0 7865 8720 9556 10000 9895 9216 8156 6671 5006 3566
2990.0 2491 1787 1340 1047 855 724 637 586 559 570
3030.0 600 650 727 803 876 943 973 943 866 782
3070.0 684 552 423 338 274 229 197 176 167 151
3110.0 137 127 122 115 111 110 101 96 87 75
3150.0 82 87 84 84 84 87 90 88 80 71
3190.0 66 65 67 65 63 63 65 63 49 46
3230.0 52 47 30 28 35 27 21 20 22 21
3270.0 22 29 30 20 15 23 15 7 10 3
3310.0 0 10 11 3 11 10 11 9 6 8
3350.0 17 15 7 8 8 6 1 1 12 17
3390.0 17 22 16 13 20 18 9 5 9 15
3430.0 14 13 17 12 12 13 4 3 8 8
3470.0 7 12 21 24 25 16 10 19 17 13
3510.0 16 22 24 28 32 30 26 21 10 16
3550.0 19 27 26 22 37 35 16 9 16 23
3590.0 22 20 18 17 23 25 25 27 18 13
3630.0 19 24 26 30 34 30 24 24 21 23
3670.0 29 39 34 31 29 25 29 26 25 31
3710.0 30 25 18 26 41 41 39 37 40 40
3750.0 33 34 24 23 33 44 45 34 34 40
3790.0 37 37 45 45 39 40 46 54 47 39
3830.0 42 36 31 37 42
##END=
