##TITLE=Cyclopropylphenyl sulfide
##JCAMP-DX=4.24
##DATA TYPE=INFRARED SPECTRUM
##ORIGIN=NIST Mass Spectrometry Data Center
##OWNER=NIST Standard Reference Data Program
Collection (C) 2018 copyright by the U.S. Secretary of Commerce
on behalf of the United States of America. All rights reserved.
##CAS REGISTRY NO=14633-54-6
##MOLFORM=C 9 H 10 S
##$NIST SOURCE=MSDC-IR
##SPECTROMETER/DATA SYSTEM=HP-GC/MS/IRD
##STATE=gas
##XUNITS=1/CM
##YUNITS=ABSORBANCE
##XFACTOR=1.0
##YFACTOR=0.000001000
##DELTAX=4.0
##FIRSTX=550.0
##LASTX=3846.0
##FIRSTY=0.000380
##MAXX=3846
##MINX=550
##MAXY=0.01
##MINY=0
##NPOINTS=825
##XYDATA=(X++(Y..Y))
550.0 380 370 254 103 3 80 144 105 72 143
590.0 137 172 233 138 99 78 79 99 107 137
630.0 166 206 266 369 508 657 885 1184 1580 2099
670.0 2780 3607 4512 5543 6682 7291 7339 7155 6810 6293
710.0 5460 4906 5083 5927 7112 8483 9798 10000 9243 8028
750.0 6484 5040 3721 2602 1766 1163 803 660 631 640
790.0 681 707 848 1099 1378 1718 2103 2403 2415 2233
830.0 1859 1390 1019 798 712 765 888 1063 1361 1743
870.0 2208 2723 3033 3028 2789 2303 1763 1337 1029 888
910.0 795 695 645 595 555 498 434 391 359 333
950.0 346 354 336 321 325 337 340 381 408 444
990.0 512 604 773 991 1334 1868 2872 4366 5524 5898
1030.0 5785 4896 3559 2823 2630 2631 2679 2719 2603 2321
1070.0 2093 2014 2183 2676 3377 4024 4278 3963 3090 2030
1110.0 1270 876 681 580 521 474 454 443 438 435
1150.0 399 436 526 589 654 711 746 835 989 1159
1190.0 1273 1238 1114 893 578 397 394 426 447 465
1230.0 474 473 474 506 571 711 931 1231 1729 2462
1270.0 3515 4761 5700 5941 5538 4530 3198 2145 1557 1222
1310.0 971 825 707 603 538 448 380 353 341 330
1350.0 334 357 368 358 347 337 307 296 282 285
1390.0 327 351 376 429 546 738 994 1343 1751 2175
1430.0 2546 2747 2753 2696 2667 2566 2470 2506 2756 3449
1470.0 4754 6405 7398 7282 6332 4513 2490 1288 816 625
1510.0 529 468 422 403 395 384 399 438 478 539
1550.0 652 824 1082 1439 1966 2759 3815 4929 5593 5467
1590.0 4701 3542 2390 1605 1167 875 681 570 505 467
1630.0 432 398 366 325 302 292 270 239 214 208
1670.0 192 176 191 215 220 221 251 289 327 359
1710.0 376 375 365 374 373 358 345 329 337 340
1750.0 341 354 356 378 425 490 581 668 736 766
1790.0 754 709 631 541 457 400 371 330 299 294
1830.0 294 302 324 374 417 449 483 507 537 539
1870.0 520 508 491 476 446 421 419 447 489 514
1910.0 548 608 642 669 687 686 704 715 709 673
1950.0 601 514 411 310 224 167 137 115 96 78
1990.0 58 54 60 57 35 21 28 37 34 30
2030.0 39 69 89 90 107 130 171 209 222 250
2070.0 283 311 323 306 272 239 230 211 200 191
2110.0 169 135 107 95 81 60 57 63 62 51
2150.0 31 24 27 26 26 21 15 17 27 22
2190.0 9 18 40 53 66 80 88 99 102 106
2230.0 90 97 89 71 79 91 86 78 77 70
2270.0 55 29 26 25 14 16 5 0 24 86
2310.0 117 125 137 127 114 110 113 123 112 96
2350.0 71 71 89 73 43 46 36 4 0 1
2390.0 4 10 26 39 37 30 8 1 13 15
2430.0 20 19 24 43 39 31 45 77 70 97
2470.0 143 141 135 127 101 75 77 85 66 46
2510.0 43 43 53 62 61 51 42 41 23 33
2550.0 50 34 37 52 63 67 81 94 89 84
2590.0 96 100 86 78 79 79 84 77 73 74
2630.0 60 55 62 79 73 66 62 60 60 58
2670.0 62 83 83 54 47 41 19 6 0 6
2710.0 26 30 21 18 13 14 11 32 43 43
2750.0 32 10 33 53 45 29 35 32 30 29
2790.0 30 46 60 47 63 92 76 60 59 51
2830.0 80 100 109 148 164 161 170 181 210 231
2870.0 232 226 218 194 167 174 177 190 207 203
2910.0 187 192 212 204 194 206 225 249 272 274
2950.0 287 317 333 358 431 530 639 788 988 1253
2990.0 1607 2089 2682 3428 4359 5472 6696 7827 8416 8110
3030.0 7096 5763 4402 3465 3188 3447 4217 5591 7260 8542
3070.0 9246 9454 9021 8487 8272 7818 6800 5468 3956 2623
3110.0 1753 1176 786 567 455 419 428 414 403 387
3150.0 332 288 260 230 235 224 190 180 168 127
3190.0 102 101 88 95 121 143 130 109 94 74
3230.0 79 75 74 98 77 23 18 73 92 69
3270.0 59 60 62 62 53 75 110 119 121 105
3310.0 74 80 96 84 103 86 46 63 65 55
3350.0 74 92 104 130 124 70 52 107 134 86
3390.0 82 100 86 79 84 101 132 110 101 121
3430.0 119 146 137 112 129 117 95 90 78 75
3470.0 96 115 110 87 72 69 61 88 114 114
3510.0 96 103 117 89 84 107 114 55 60 92
3550.0 91 91 65 64 51 41 62 84 97 109
3590.0 125 101 63 75 91 107 114 89 82 97
3630.0 110 122 119 98 96 107 118 120 127 136
3670.0 163 161 206 232 213 225 199 179 191 184
3710.0 169 144 127 114 78 106 136 105 116 135
3750.0 143 143 139 144 175 165 160 154 108 88
3790.0 103 136 139 118 117 131 118 127 144 132
3830.0 129 130 154 164 170
##END=
