##TITLE=2,8-Dimethylquinoline
##JCAMP-DX=4.24
##DATA TYPE=INFRARED SPECTRUM
##ORIGIN=EPA-IR VAPOR PHASE LIBRARY
##OWNER=SRD/NIST
Collection (C) 2018 copyright by the U.S. Secretary of Commerce
on behalf of the United States of America. All rights reserved.
##CAS REGISTRY NO=1463-17-8
##MOLFORM=C 11 H 11 N
##$NIST SOURCE=MSDC-IR
##STATE=gas
##XUNITS=1/CM
##YUNITS=ABSORBANCE
##XFACTOR=1.
##YFACTOR=0.001
##DELTAX=1.92898
##FIRSTX=549.8
##LASTX=4000.7
##FIRSTY=5.759
##MAXX=4000.7
##MINX=549.759
##MAXY=0.058179
##MINY=0
##NPOINTS=1790
##XYDATA=(X++(Y..Y))
549.759 5.759 4.589 3.519 2.509 1.839 1.929 1.4411 0.9834 1.4736 1.4719
569.049 0.9305 0.8743 1.1052 1.1242 1.2403 1.749 2.479 2.399 1.759 1.3762
588.339 0.532 0.67956 1.6337 1.4898 1.1726 1.5302 1.2345 1.1796 1.4482 1.2954
607.628 1.5399 1.4114 1.319 1.4648 1.19 1.4702 1.3534 0.9782 1.5555 1.5701
626.918 1.257 1.3438 1.2871 1.0626 0.8011 1.1015 1.6781 1.999 2.009 1.909
646.208 1.899 1.759 2.139 1.909 1.2176 1.6012 2.079 1.5512 1.3793 1.3289
665.498 1.0491 0.9853 0.7929 0.8817 1.0894 1.2812 1.699 2.299 2.809 2.959
684.787 2.859 2.779 3.029 3.369 3.499 3.589 3.589 3.189 2.859 2.769
704.077 2.599 2.859 3.119 3.309 3.919 4.569 4.639 4.149 3.349 3.879
723.367 4.739 4.649 4.509 4.339 4.329 4.659 5.829 7.969 10.399 12.909
742.657 15.679 18.449 20.989 23.709 28.019 36.059 41.629 34.029 23.859 21.069
761.947 19.819 17.819 15.819 13.379 11.429 10.779 10.939 12.329 14.019 15.519
781.236 17.679 20.269 23.649 28.889 34.329 34.279 27.749 22.079 19.519 17.689
800.526 15.899 14.229 12.589 11.439 11.329 12.479 14.699 17.619 20.949 24.349
819.816 27.179 30.119 35.859 45.399 51.009 43.849 34.339 29.869 26.759 24.159
839.106 21.209 17.869 14.509 11.189 8.809 7.619 7.069 6.579 6.239 6.039
858.395 5.939 5.409 4.649 4.589 4.199 3.579 3.209 2.829 2.579 2.669
877.685 2.769 2.739 2.759 2.799 2.539 2.319 2.349 2.359 2.429 2.589
896.975 2.759 2.599 2.429 2.549 2.199 1.839 2.089 2.269 1.899 1.5751
916.265 1.6301 1.659 1.6019 1.582 1.769 1.909 1.849 1.959 2.029 1.969
935.555 1.859 1.889 2.299 2.549 2.659 2.979 3.049 2.799 2.929 2.959
954.844 2.999 3.309 3.459 3.459 3.449 3.659 4.219 4.709 4.449 3.939
974.134 3.849 3.729 3.729 3.829 3.569 3.499 3.909 3.989 3.889 4.309
993.424 4.909 4.939 4.919 5.209 5.299 5.619 5.239 4.679 4.379 3.919
1012.714 3.659 3.089 2.759 3.039 3.159 2.729 2.829 3.099 3.079 3.389
1032.003 3.659 3.819 4.239 4.959 5.529 5.529 5.399 5.429 5.679 5.869
1051.293 5.959 6.529 7.119 7.219 7.109 6.699 6.409 6.939 6.499 6.299
1070.583 7.199 6.759 6.059 5.769 5.509 5.889 5.569 4.949 4.619 3.679
1089.873 3.629 3.839 3.599 3.929 3.399 3.209 3.409 3.169 2.789 2.759
1109.163 2.499 2.679 3.519 4.009 4.549 4.909 5.439 6.719 8.719 10.339
1128.452 12.099 12.849 13.029 12.859 11.769 11.649 11.079 8.879 6.949 6.089
1147.742 4.739 3.879 4.159 4.239 4.409 4.649 4.639 4.639 4.749 4.419
1167.032 4.439 4.799 4.179 3.599 3.319 3.359 3.409 2.539 2.279 2.609
1186.322 2.589 3.059 3.489 3.379 3.599 4.409 6.069 6.809 6.829 7.169
1205.611 7.459 7.899 8.469 10.119 10.679 9.959 10.679 11.479 11.759 11.469
1224.901 10.769 11.349 12.349 12.189 11.189 10.719 9.629 8.419 7.709 6.839
1244.191 6.249 5.649 5.099 4.749 4.379 3.889 3.909 3.999 3.729 3.589
1263.481 3.559 3.709 3.479 3.209 3.349 3.189 2.889 3.029 3.429 3.869
1282.771 4.059 4.219 4.949 5.629 6.219 7.039 7.869 8.779 9.999 11.709
1302.060 13.719 15.779 17.769 19.319 20.499 21.679 22.319 22.219 21.359 19.509
1321.350 17.009 14.459 12.459 10.999 9.589 8.249 7.209 6.459 6.109 6.129
1340.640 6.139 6.089 6.119 6.499 7.139 7.729 8.439 9.089 9.739 10.489
1359.930 11.249 12.029 13.009 14.079 15.039 15.909 16.559 17.219 17.789 17.869
1379.219 17.559 17.049 16.519 15.619 14.119 12.439 10.879 9.619 8.719 8.129
1398.509 7.739 7.589 7.569 7.759 8.389 9.289 10.409 11.719 13.449 15.409
1417.799 17.519 19.829 21.939 23.839 25.389 26.449 27.119 27.479 27.399 26.799
1437.089 25.709 24.349 23.029 21.909 21.079 20.409 19.649 18.919 18.129 17.339
1456.378 16.729 15.989 15.139 14.389 13.659 12.879 12.109 11.419 10.889 10.519
1475.668 10.669 11.179 12.039 13.689 15.979 18.909 22.449 26.209 30.069 33.819
1494.958 37.639 41.119 43.529 44.599 44.289 42.749 40.239 37.359 34.139 30.449
1514.248 26.479 22.709 19.559 17.039 15.079 13.679 12.599 11.749 11.119 10.739
1533.538 10.569 10.359 10.279 10.319 10.369 10.469 10.459 10.669 11.099 11.609
1552.827 12.399 13.499 14.869 16.249 17.769 19.339 20.709 21.969 22.759 23.249
1572.117 23.429 23.199 22.809 22.149 21.359 20.599 20.129 20.079 20.499 21.459
1591.407 22.999 25.019 27.489 30.569 33.779 36.989 40.079 43.119 46.009 48.139
1610.697 49.499 49.379 47.459 44.049 39.839 35.349 30.629 25.869 21.409 17.289
1629.986 13.449 10.529 8.589 7.399 6.749 6.489 6.349 6.179 6.059 5.959
1649.276 5.749 5.459 5.059 4.599 4.169 3.849 3.589 3.419 3.209 3.019
1668.566 2.959 2.769 2.669 2.669 2.519 2.519 2.489 2.359 2.269 2.329
1687.856 2.439 2.429 2.419 2.349 2.489 2.719 2.829 3.139 3.329 3.389
1707.146 3.699 3.849 4.039 4.359 4.439 4.419 4.249 4.009 3.829 3.549
1726.435 3.199 2.919 2.589 2.289 2.239 2.279 2.199 2.179 2.169 2.249
1745.725 2.389 2.379 2.309 2.349 2.369 2.209 2.039 2.029 1.949 1.899
1765.015 1.929 2.049 2.369 2.719 3.019 3.359 3.659 3.869 4.129 4.239
1784.305 4.299 4.179 3.899 3.709 3.399 3.069 2.649 2.359 2.169 1.939
1803.594 1.819 1.6594 1.5778 1.5301 1.5482 1.5069 1.4498 1.5041 1.4781 1.4936
1822.884 1.5093 1.5654 1.6426 1.5436 1.6112 1.819 2.039 2.249 2.469 2.749
1842.174 2.999 3.229 3.389 3.399 3.429 3.449 3.309 3.089 2.879 2.579
1861.464 2.269 2.129 1.969 1.6801 1.4716 1.4283 1.4083 1.4215 1.3833 1.2671
1880.754 1.3469 1.4597 1.4624 1.525 1.5739 1.5764 1.6769 1.799 1.879 2.119
1900.043 2.409 2.649 2.949 3.339 3.899 4.379 4.679 5.179 5.539 5.599
1919.333 5.759 5.829 5.839 5.679 5.229 4.769 4.299 3.859 3.349 2.889
1938.623 2.509 2.209 1.989 1.799 1.6171 1.5044 1.438 1.3458 1.1985 1.1593
1957.913 1.2527 1.1758 1.1332 1.1581 1.0905 1.1029 1.1175 1.1033 1.0544 1.0152
1977.202 1.0266 1.0448 1.1953 1.1866 1.1185 1.2228 1.2045 1.322 1.3713 1.1835
1996.492 1.2302 1.2719 1.4038 1.5433 1.4891 1.3983 1.2741 1.2282 1.182 1.2135
2015.782 1.2232 1.1729 1.2019 1.1128 1.0683 1.0536 0.9335 0.9948 1.0713 1.098
2035.072 1.1197 1.1562 1.1501 1.2251 1.2808 1.2613 1.3821 1.3708 1.3147 1.341
2054.362 1.3681 1.3017 1.2479 1.3379 1.3794 1.3366 1.3453 1.3123 1.3057 1.3076
2073.651 1.2504 1.2636 1.3155 1.3542 1.2682 1.1755 1.1308 1.0837 1.1691 1.3378
2092.941 1.3626 1.4 1.3554 1.1977 1.2458 1.2784 1.2011 1.2732 1.3031 1.1762
2112.231 1.0402 1.0422 1.1464 1.091 1.0769 1.1032 1.1488 1.2307 1.1166 0.998
2131.521 0.9834 1.0304 1.0995 1.09 1.069 1.0225 0.9425 0.9732 0.9979 0.9565
2150.810 0.9647 1.0073 1.0789 0.9928 0.9532 1.0444 1.001 1.0897 1.2147 1.1198
2170.100 1.1105 1.1007 0.9187 0.99 1.0849 1.0399 0.9949 0.9675 0.983 0.9918
2189.390 1.0227 1.0455 0.9445 0.8914 1.018 0.9872 0.9129 0.9471 0.9333 0.8715
2208.680 0.7937 0.8462 0.9971 0.8705 0.8658 0.9366 0.9783 1.0303 1.0071 1.0715
2227.970 1.0786 1.0934 1.1245 1.1135 1.0678 1.0298 1.1019 1.046 1.0064 1.0645
2247.259 1.0303 1.0802 1.157 1.1159 1.0808 1.3201 1.3726 1.349 1.4508 1.4571
2266.549 1.4684 1.405 1.4203 1.3926 1.3355 1.325 1.3216 1.2782 1.287 1.3812
2285.839 1.3845 1.4463 1.5009 1.4639 1.2935 1.2173 1.2828 1.2958 1.2308 1.2271
2305.129 1.2827 1.2646 1.2257 1.1409 1.0783 1.1277 1.258 1.2821 1.3678 1.347
2324.418 1.3336 1.5024 1.3795 1.2093 1.2758 1.2296 1.3591 1.4192 1.3694 1.3376
2343.708 1.2868 1.283 1.134 1.087 1.0865 1.088 1.0327 1.0501 1.0882 1.0778
2362.998 1.0485 1.1073 1.2561 1.2151 1.1932 1.3019 1.3126 1.1852 1.0199 1.0676
2382.288 1.1345 1.1685 1.2305 1.2086 1.1398 1.1019 1.1465 1.2467 1.3226 1.1889
2401.578 1.3347 1.4111 1.2394 1.4126 1.4479 1.3428 1.225 1.2065 1.3863 1.4323
2420.867 1.4435 1.5375 1.5632 1.6445 1.6195 1.6198 1.719 1.6113 1.5887 1.6129
2440.157 1.5886 1.5598 1.5806 1.5935 1.5102 1.4765 1.41 1.4292 1.3708 1.3294
2459.447 1.3899 1.3222 1.3651 1.4545 1.2903 1.064 1.1655 1.2289 1.1302 1.1608
2478.737 1.3039 1.358 1.2603 1.0764 1.0425 1.232 1.2129 1.1221 1.201 1.2604
2498.026 1.2634 1.2584 1.3882 1.4058 1.2935 1.3114 1.3404 1.4016 1.3615 1.3087
2517.316 1.2183 1.0456 1.1165 1.1849 1.1761 1.1264 0.9885 1.016 1.1649 1.173
2536.606 1.0905 0.9973 1.0741 1.0948 1.0202 1.1848 1.186 1.1472 1.1526 1.0836
2555.896 1.0842 1.0264 0.9241 1.0455 1.1388 0.9985 1.1143 1.2676 1.2146 1.2041
2575.186 1.2192 1.1736 1.3063 1.3222 1.1564 1.1962 1.2087 1.2574 1.326 1.3838
2594.475 1.3094 1.2679 1.4102 1.2443 1.2488 1.3656 1.2966 1.2418 1.2669 1.2917
2613.765 1.218 1.1065 1.1768 1.309 1.3363 1.2834 1.1375 1.1367 1.1382 1.1084
2633.055 1.1489 1.1889 1.0669 1.1539 1.1908 0.9132 0.864 1.0028 1.1373 1.0272
2652.345 0.9803 1.0801 1.0188 1.0227 0.9255 0.9004 1.0059 1.0275 0.9517 1
2671.634 1.1587 1.1156 1.0522 1.0762 1.1764 1.2669 1.2439 1.1149 0.9975 0.94
2690.924 0.8726 0.9425 1.0795 1.032 0.98 1.0433 1.1035 1.1196 1.1748 1.0723
2710.214 0.9461 1.0562 1.0579 1.0864 1.1567 1.211 1.4678 1.5435 1.5975 1.749
2729.504 1.789 1.969 2.219 2.269 2.109 1.999 2.099 2.069 1.939 1.889
2748.794 1.709 1.6435 1.6345 1.5454 1.2898 1.1087 1.228 1.2518 1.3619 1.4453
2768.083 1.495 1.5222 1.467 1.4013 1.5086 1.6202 1.5346 1.5141 1.5876 1.6563
2787.373 1.759 1.739 1.689 1.829 1.869 1.869 1.749 1.899 2.299 2.449
2806.663 2.339 2.139 2.089 2.249 2.529 2.719 2.829 2.999 3.119 3.169
2825.953 3.319 3.609 3.809 3.839 4.059 4.459 4.839 5.229 5.449 5.699
2845.242 6.329 7.029 7.759 8.449 9.069 9.839 10.509 10.849 11.179 11.329
2864.532 11.289 11.319 11.159 10.809 10.639 10.699 10.499 10.159 10.309 10.499
2883.822 10.209 10.119 10.319 10.529 10.689 10.849 11.189 11.519 11.709 12.109
2903.112 12.869 13.649 14.469 15.429 16.689 18.509 20.439 22.739 25.809 29.349
2922.401 33.179 36.869 40.129 42.589 44.169 44.879 44.389 43.209 41.379 38.549
2941.691 35.239 31.779 28.289 25.459 23.159 21.189 20.009 19.529 19.089 18.769
2960.981 18.699 18.539 18.469 18.339 18.049 17.839 17.689 17.469 17.289 17.009
2980.271 16.709 16.169 15.469 14.929 14.229 13.729 13.399 13.109 12.929 12.809
2999.561 12.979 13.359 14.069 14.639 15.219 16.089 16.999 17.779 18.539 19.229
3018.850 19.719 20.449 21.429 22.259 22.969 23.909 25.409 27.029 29.069 32.019
3038.140 35.469 39.409 43.529 47.659 51.369 54.429 56.859 58.179 58.099 56.739
3057.430 54.539 51.729 48.029 43.979 39.979 36.029 32.209 28.519 25.009 21.859
3076.720 19.639 17.769 15.959 14.779 13.609 12.249 10.999 10.079 9.349 8.639
3096.009 8.029 7.619 7.529 7.309 7.059 6.829 6.419 6.039 5.709 5.259
3115.299 4.909 4.699 4.229 3.739 3.599 3.389 3.109 2.869 2.609 2.399
3134.589 2.219 2.269 2.119 1.689 1.739 1.949 1.899 1.919 1.999 1.819
3153.879 1.5575 1.4928 1.6272 1.6287 1.6047 1.759 1.6812 1.6516 1.789 1.919
3173.169 1.829 1.739 1.899 1.849 1.6777 1.5929 1.709 1.779 1.506 1.4938
3192.458 1.5037 1.415 1.495 1.3923 1.3006 1.1622 1.0798 1.1523 1.0557 1.0527
3211.748 1.2979 1.3381 1.0732 0.9374 1.0618 1.1216 1.1792 1.398 1.3736 1.0724
3231.038 0.9629 0.991 0.9769 0.8387 0.9118 0.8997 0.76984 1.0066 1.1511 1.2315
3250.328 1.168 1.1159 1.0099 0.8316 0.73453 0.8204 0.9925 0.8675 0.573 0.7054
3269.617 0.8306 0.6764 0.75659 0.74653 0.8787 1.0004 0.9144 1.0296 1.0181 0.9322
3288.907 0.9459 0.9264 0.6253 0.505 0.692804 0.643 0.623 0.8461 0.8432 0.7465
3308.197 0.954 0.73204 0.457 0.541 0.74872 0.68563 0.532 0.511 0.481 0.457
3327.487 0.6093 0.8031 0.8712 0.888 0.75547 0.695399 0.9157 0.9099 0.5962 0.6349
3346.777 0.6694 0.74518 0.953 0.70768 0.426 0.462 0.509 0.563 0.587 0.6229
3366.066 0.8344 1.0285 0.9556 1.0409 0.9998 0.70318 0.515 0.093 0 0.291
3385.356 0.443 0.8207 0.9089 0.68202 0.6451 0.77543 0.7987 0.563 0.6237 0.72744
3404.646 0.9321 0.94 0.8964 0.9552 0.73876 0.9202 1.1083 0.9659 0.8473 0.9079
3423.936 0.8666 0.6728 0.6482 0.8147 0.75629 0.72493 0.9443 0.8822 0.8852 0.8286
3443.225 0.6773 0.6717 0.919 1.0056 0.6477 0.7928 0.9768 0.8744 0.9304 0.78877
3462.515 0.71233 0.75302 0.72889 0.545 0.6677 0.7995 0.6659 0.6129 0.6158 0.6748
3481.805 0.6434 0.6573 0.7898 0.8311 0.7898 0.8283 0.6733 0.8985 0.9841 0.70206
3501.095 0.54 0.6278 0.8632 0.8226 0.76316 0.586 0.6493 0.8037 0.6399 0.6364
3520.385 0.529 0.457 0.68731 0.77472 0.67981 0.691599 0.71308 0.6369 0.6622 0.72942
3539.674 0.6514 0.76166 0.8503 0.569 0.802 1.0337 0.75854 0.75678 0.8903 0.68777
3558.964 0.8102 1.0002 0.76299 0.5922 0.74242 0.8049 0.76837 0.6759 0.618 0.8577
3578.254 0.8819 0.834 0.8039 0.69988 0.491 0.525 0.8847 0.9615 0.8664 0.644
3597.544 0.567 0.77268 0.77556 0.568 0.512 0.71045 0.8671 0.8018 0.521 0.68734
3616.833 0.9481 0.9718 0.9139 0.691621 0.75754 0.8265 0.7416 0.6188 0.5917 0.73911
3636.123 0.9557 1.0375 0.8712 0.6778 0.697607 0.8856 0.9171 0.9691 0.8371 0.68725
3655.413 0.6219 0.588 0.74064 0.852 0.8698 0.8021 0.7925 0.73514 0.6676 0.442
3674.703 0.468 0.6747 0.6726 0.9146 0.981 0.8228 0.72411 0.6091 0.526 0.557
3693.993 0.6315 0.557 0.693475 0.9807 1.0523 0.8814 0.9024 0.9863 0.9506 1.0547
3713.282 0.8811 0.6509 0.6599 0.8116 0.74878 0.71904 0.9557 1.0966 0.9897 0.9547
3732.572 1.1464 0.8394 0.526 0.7003 0.9633 1.0232 1.0185 1.067 0.77442 0.695644
3751.862 1.0889 0.8916 0.302 0.436 1.0213 0.9754 0.70708 0.817 0.8021 0.8239
3771.152 0.8068 0.8264 0.8877 0.74664 0.76022 1.025 1.1726 1.0884 1.0452 1.0726
3790.441 1.0036 0.8912 0.74636 0.70576 0.8806 0.8537 0.76323 0.8212 0.8061 0.76441
3809.731 0.537 0.401 0.49 0.6559 0.9522 1.0867 0.9638 0.74868 0.6558 0.8487
3829.021 0.8815 0.6497 0.581 0.71323 1.011 1.1022 0.9603 0.8407 0.694288 0.6366
3848.311 0.8872 0.8619 0.691975 0.78157 0.76402 0.816 0.9202 0.9334 0.8335 0.78293
3867.601 0.8023 0.8613 0.8655 0.8818 1.0793 1.2481 1.2568 1.0322 0.9419 0.9844
3886.890 0.9021 1.0547 0.8222 0.6633 1.0982 1.2102 1.2565 1.309 1.3813 1.3423
3906.180 1.1283 1.2025 0.988 0.9131 1.1278 1.0983 1.2385 1.3688 1.2817 1.3844
3925.470 1.546 1.5182 1.3938 1.2168 1.0944 1.0682 1.1778 1.2209 1.3238 1.1778
3944.760 1.0977 1.2979 1.4618 1.5593 1.3933 1.1875 1.07 1.0545 1.2732 1.4714
3964.049 1.3112 0.925 0.803 1.0114 1.3353 1.367 1.1574 1.0133 1.1087 1.0959
3983.339 0.958 1.1025 0.8417 0.9444 1.3091 1.1726 1.1262 1.0445 0.78255 0.70486
##END=
