##TITLE=2,3,5-Trimethylpyrazine
##JCAMP-DX=4.24
##DATA TYPE=INFRARED SPECTRUM
##ORIGIN=NIST Mass Spectrometry Data Center
##OWNER=NIST Standard Reference Data Program
Collection (C) 2018 copyright by the U.S. Secretary of Commerce
on behalf of the United States of America. All rights reserved.
##CAS REGISTRY NO=14667-55-1
##MOLFORM=C 7 H 10 N 2
##$NIST SOURCE=MSDC-IR
##SPECTROMETER/DATA SYSTEM=HP-GC/MS/IRD
##STATE=gas
##XUNITS=1/CM
##YUNITS=ABSORBANCE
##XFACTOR=1.0
##YFACTOR=0.000001200
##DELTAX=4.0
##FIRSTX=550.0
##LASTX=3846.0
##FIRSTY=0.000254
##MAXX=3846
##MINX=550
##MAXY=0.012
##MINY=0
##NPOINTS=825
##XYDATA=(X++(Y..Y))
550.0 212 276 344 429 374 318 307 247 160 137
590.0 172 150 44 0 10 42 54 75 67 32
630.0 58 140 225 231 188 168 183 183 157 127
670.0 119 138 123 127 191 220 248 322 352 328
710.0 300 290 265 261 402 653 891 1064 1201 1219
750.0 1104 860 561 392 305 255 245 221 199 217
790.0 186 174 190 170 143 113 116 153 158 150
830.0 199 222 205 179 159 167 203 232 228 251
870.0 327 438 550 657 787 945 1000 883 779 724
910.0 694 722 847 1099 1465 1880 2200 2333 2389 2306
950.0 2030 1688 1465 1351 1280 1254 1278 1370 1531 1707
990.0 1849 1957 2057 2104 2046 1956 1889 1791 1696 1586
1030.0 1483 1364 1201 1068 966 894 911 882 882 882
1070.0 855 822 780 760 704 636 598 543 522 542
1110.0 557 565 590 615 695 887 1159 1602 2222 3010
1150.0 3931 4736 5301 5714 5802 5417 4788 3994 2970 1994
1190.0 1334 980 796 694 666 639 576 597 670 711
1230.0 794 893 1001 1136 1275 1351 1508 1803 2118 2432
1270.0 2682 2759 2712 2446 2022 1530 1072 854 815 820
1310.0 841 855 861 882 953 1108 1357 1792 2506 3531
1350.0 4651 5468 5944 6191 6283 6095 5825 6111 6916 7561
1390.0 7676 7401 6890 5957 4839 4162 3994 4167 4641 5329
1430.0 6128 6922 7756 8562 9270 9817 10000 9733 9102 8089
1470.0 6844 5471 4229 3313 2736 2394 2200 2093 2007 1981
1510.0 2023 2092 2171 2275 2414 2535 2606 2591 2529 2429
1550.0 2251 2025 1803 1658 1502 1314 1126 964 845 721
1590.0 621 555 499 438 394 367 331 311 314 323
1630.0 319 293 296 297 288 257 239 252 232 219
1670.0 195 163 158 146 125 145 140 116 116 119
1710.0 115 110 94 124 157 139 104 119 135 117
1750.0 125 155 182 205 237 267 314 341 304 291
1790.0 261 211 185 160 135 116 116 112 94 78
1830.0 80 94 96 84 74 80 86 83 83 76
1870.0 74 85 75 80 88 90 91 95 112 116
1910.0 110 101 90 91 92 107 128 118 124 136
1950.0 115 105 102 91 87 79 78 77 74 85
1990.0 77 74 71 61 60 60 39 21 32 36
2030.0 23 28 49 49 49 69 71 84 109 111
2070.0 118 122 121 123 124 117 103 96 85 81
2110.0 103 108 100 106 118 110 98 87 82 83
2150.0 62 46 45 48 53 49 48 37 25 33
2190.0 35 15 9 8 5 8 9 22 29 23
2230.0 15 11 12 17 14 9 17 26 23 3
2270.0 8 34 39 35 27 32 37 47 61 69
2310.0 65 72 92 97 77 52 33 31 47 55
2350.0 52 48 40 34 42 80 107 105 100 98
2390.0 93 104 115 119 125 119 114 104 82 81
2430.0 84 83 88 93 89 94 87 70 72 68
2470.0 77 70 59 71 75 75 79 73 59 61
2510.0 71 86 80 78 90 89 81 94 88 58
2550.0 69 71 52 29 34 51 54 56 39 36
2590.0 31 27 32 40 44 67 79 80 76 80
2630.0 99 102 78 37 39 63 59 56 65 51
2670.0 73 92 68 56 53 66 57 37 48 63
2710.0 69 95 123 152 206 245 270 285 269 257
2750.0 224 192 192 183 175 176 171 155 175 225
2790.0 241 239 264 299 320 351 399 439 500 568
2830.0 629 691 790 921 1049 1226 1400 1595 1826 2021
2870.0 2150 2191 2175 2133 2092 2077 2109 2192 2311 2499
2910.0 2813 3342 4149 5185 6272 7155 7655 7732 7383 6659
2950.0 5743 4929 4330 3839 3464 3238 3088 2981 2918 2922
2990.0 3016 3152 3258 3288 3285 3267 3250 3206 3175 3241
3030.0 3347 3517 3705 3776 3709 3515 3206 2815 2394 2046
3070.0 1789 1548 1341 1185 1022 907 813 709 611 535
3110.0 513 481 451 436 387 331 308 314 300 281
3150.0 234 204 208 178 128 114 123 96 64 72
3190.0 102 125 99 63 104 104 59 70 89 104
3230.0 69 63 87 83 112 159 122 57 85 96
3270.0 72 61 79 102 74 49 51 75 98 77
3310.0 42 35 55 41 53 44 17 21 17 40
3350.0 77 78 66 41 33 46 17 14 53 59
3390.0 45 76 91 54 95 109 94 64 51 91
3430.0 93 91 66 76 92 66 49 86 102 48
3470.0 64 123 85 46 48 62 81 88 89 74
3510.0 76 105 84 68 68 71 73 48 67 66
3550.0 71 44 32 77 49 9 1 8 40 28
3590.0 20 80 124 121 102 108 109 57 31 34
3630.0 32 70 76 45 24 44 68 48 63 52
3670.0 8 34 71 60 73 73 53 59 34 23
3710.0 47 54 60 55 52 57 29 28 13 5
3750.0 51 58 34 50 91 90 88 81 53 52
3790.0 39 42 64 58 75 64 54 74 78 70
3830.0 101 81 55 89 91
##END=
