##TITLE=5-Amino-3-methylisooxazole
##JCAMP-DX=4.24
##DATA TYPE=INFRARED SPECTRUM
##ORIGIN=EPA-IR VAPOR PHASE LIBRARY
##OWNER=SRD/NIST
Collection (C) 2018 copyright by the U.S. Secretary of Commerce
on behalf of the United States of America. All rights reserved.
##CAS REGISTRY NO=14678-02-5
##MOLFORM=C 4h 6 N 2 O
##$NIST SOURCE=MSDC-IR
##STATE=gas
##XUNITS=1/CM
##YUNITS=ABSORBANCE
##XFACTOR=1.
##YFACTOR=0.001
##DELTAX=3.85796
##FIRSTX=551.7
##LASTX=4000.7
##FIRSTY=8.06
##MAXX=4000.7
##MINX=551.688
##MAXY=0.04932
##MINY=0.00271
##NPOINTS=895
##XYDATA=(X++(Y..Y))
551.688 8.06 8.16 8.35 8.7 9.01 9.54 10.28 10.83 11.13 11.29
590.268 11.24 11.17 11.04 10.5 9.78 9.31 9.01 8.85 8.97 9.15
628.847 9.27 9.32 9.24 9.04 9.04 9.27 9.4 9.42 9.35 9.45
667.427 9.71 9.92 9.99 10.09 10.33 10.52 10.49 10.46 10.73 10.88
706.006 10.74 10.78 11.16 11.44 11.57 12.14 13.03 13.2 12.91 12.89
744.586 12.71 12.25 11.88 11.46 10.91 10.45 9.84 9.13 8.71 8.36
783.165 7.95 7.76 7.61 7.38 7.27 7.19 7.07 6.98 6.87 6.8
821.745 6.86 6.89 6.84 6.78 6.84 7.01 7.15 7.33 7.6 7.88
860.324 8.16 8.46 8.78 9.01 9.12 9.1 9.04 8.94 8.63 8.18
898.904 7.75 7.37 7.09 6.91 6.68 6.52 6.44 6.37 6.31 6.24
937.484 6.2 6.22 6.28 6.35 6.39 6.41 6.45 6.51 6.55 6.51
976.063 6.46 6.57 6.7 6.85 7.19 7.64 7.95 8.1 8.3 8.6
1014.643 8.64 8.32 7.86 7.32 6.84 6.47 6.17 6.02 5.91 5.86
1053.222 5.83 5.79 5.79 5.83 5.88 5.89 5.93 5.91 5.87 5.9
1091.802 5.93 5.88 5.85 5.79 5.69 5.68 5.58 5.47 5.45 5.41
1130.381 5.37 5.38 5.33 5.44 5.57 5.69 5.85 5.82 5.82 5.82
1168.961 5.66 5.41 5.18 4.96 4.71 4.56 4.54 4.5 4.5 4.55
1207.540 4.56 4.51 4.44 4.47 4.55 4.62 4.68 4.8 4.87 4.9
1246.120 4.9 4.86 4.91 4.94 4.93 4.99 4.98 4.97 5.04 5.16
1284.699 5.26 5.29 5.31 5.38 5.52 5.62 5.62 5.66 5.77 5.91
1323.279 5.97 5.96 5.99 6.11 6.22 6.25 6.25 6.27 6.31 6.34
1361.859 6.35 6.41 6.52 6.55 6.48 6.49 6.66 6.82 6.94 7.14
1400.438 7.49 8.01 8.75 9.87 11.39 13.17 14.9 16.58 18.25 19.82
1439.018 21.22 22.08 22.15 21.3 19.85 17.92 15.78 13.6 11.84 10.69
1477.597 10.22 10.46 11.12 12.03 12.99 13.93 14.71 15.15 15.03 14.37
1516.177 13.49 12.54 11.46 10.16 8.9 8.1 7.73 7.52 7.41 7.42
1554.756 7.53 7.67 7.8 8.07 8.5 9.04 9.68 10.35 11.03 11.8
1593.336 12.68 13.6 14.74 16.4 18.95 22.71 27.97 34.38 41.01 46.51
1631.915 49.17 49.32 47.82 44.42 39.13 31.61 22.26 15.47 11.55 9.52
1670.495 8.39 7.69 7.22 6.9 6.6 6.36 6.25 6.17 6.09 6.08
1709.075 6.08 6.12 6.19 6.22 6.26 6.32 6.38 6.43 6.44 6.37
1747.654 6.28 6.17 6.05 5.92 5.79 5.71 5.62 5.54 5.49 5.46
1786.234 5.42 5.36 5.29 5.22 5.17 5.11 5.07 5.06 5.05 5.05
1824.813 5.05 5.06 5.07 5.06 5.07 5.09 5.07 5.09 5.08 5.06
1863.393 5.03 5.01 4.99 4.96 4.91 4.88 4.87 4.87 4.87 4.84
1901.972 4.81 4.79 4.74 4.7 4.68 4.65 4.62 4.58 4.53 4.5
1940.552 4.47 4.44 4.43 4.43 4.43 4.44 4.43 4.39 4.37 4.38
1979.131 4.38 4.38 4.37 4.35 4.33 4.33 4.33 4.3 4.28 4.25
2017.711 4.23 4.21 4.17 4.12 4.07 4.02 3.96 3.9 3.83 3.75
2056.291 3.66 3.59 3.55 3.49 3.44 3.4 3.34 3.27 3.23 3.17
2094.870 3.12 3.09 3.07 3.03 3 2.97 2.96 2.95 2.97 2.96
2133.450 2.93 2.93 2.93 2.92 2.91 2.91 2.88 2.89 2.89 2.89
2172.029 2.9 2.91 2.92 2.92 2.95 3 2.99 2.98 3.02 3.04
2210.609 3.06 3.06 3.07 3.1 3.09 3.07 3.03 2.99 2.96 2.92
2249.188 2.88 2.86 2.84 2.82 2.82 2.82 2.8 2.82 2.84 2.84
2287.768 2.84 2.83 2.81 2.82 2.86 2.88 2.88 2.91 2.91 2.91
2326.347 2.93 2.93 2.92 2.9 2.88 2.87 2.88 2.87 2.86 2.88
2364.927 2.89 2.87 2.87 2.88 2.89 2.9 2.89 2.91 2.92 2.91
2403.507 2.9 2.9 2.91 2.92 2.93 2.92 2.91 2.9 2.88 2.88
2442.086 2.9 2.89 2.9 2.92 2.92 2.9 2.85 2.85 2.9 2.92
2480.666 2.87 2.85 2.84 2.81 2.8 2.79 2.78 2.79 2.78 2.78
2519.245 2.79 2.82 2.82 2.8 2.77 2.77 2.76 2.73 2.74 2.75
2557.825 2.74 2.73 2.73 2.73 2.74 2.73 2.75 2.77 2.78 2.81
2596.404 2.81 2.82 2.81 2.78 2.79 2.8 2.81 2.82 2.85 2.86
2634.984 2.84 2.84 2.88 2.88 2.87 2.88 2.86 2.85 2.88 2.87
2673.563 2.85 2.86 2.88 2.87 2.87 2.89 2.93 2.91 2.88 2.9
2712.143 2.92 2.94 2.92 2.88 2.88 2.89 2.9 2.9 2.89 2.9
2750.722 2.88 2.87 2.9 2.89 2.91 2.96 2.97 3 3.03 3.07
2789.302 3.1 3.13 3.13 3.14 3.12 3.1 3.09 3.1 3.11 3.15
2827.882 3.21 3.26 3.26 3.26 3.29 3.31 3.34 3.38 3.42 3.44
2866.461 3.48 3.55 3.61 3.64 3.7 3.75 3.78 3.85 3.93 3.98
2905.041 4.08 4.16 4.25 4.36 4.54 4.82 5.1 5.36 5.55 5.63
2943.620 5.63 5.62 5.53 5.3 5 4.71 4.52 4.49 4.7 4.71
2982.200 4.51 4.51 4.57 4.59 4.5 4.38 4.34 4.32 4.28 4.22
3020.779 4.17 4.15 4.17 4.24 4.29 4.31 4.27 4.21 4.25 4.31
3059.359 4.35 4.36 4.34 4.32 4.26 4.26 4.25 4.19 4.14 4.07
3097.938 4 3.91 3.84 3.78 3.66 3.61 3.61 3.58 3.58 3.59
3136.518 3.58 3.52 3.46 3.42 3.36 3.3 3.25 3.22 3.19 3.17
3175.098 3.19 3.17 3.15 3.14 3.08 3.06 3.06 3.04 3.04 3.03
3213.677 3.01 2.98 2.98 2.98 2.98 2.95 2.93 2.96 2.97 2.98
3252.257 3 2.98 2.99 3.02 3.09 3.1 3.05 3.11 3.16 3.15
3290.836 3.17 3.21 3.19 3.18 3.18 3.12 3.05 3.06 3.12 3.14
3329.416 3.07 3.04 3.1 3.12 3.08 3.06 3.09 3.14 3.17 3.21
3367.995 3.33 3.41 3.47 3.6 3.79 3.96 4.22 4.61 5.13 5.79
3406.575 6.52 7.09 7.5 7.79 7.85 7.76 7.44 6.84 6.1 5.41
3445.154 4.91 4.47 4.17 4.02 3.96 4.03 4.15 4.31 4.51 4.72
3483.734 4.96 5.2 5.42 5.63 5.89 6.03 6.05 6.1 6.13 6.07
3522.314 5.92 5.6 5.22 4.97 4.77 4.48 4.19 3.95 3.69 3.46
3560.893 3.35 3.28 3.16 3.06 3.06 3.04 2.98 2.95 2.95 2.98
3599.473 2.95 2.97 3.02 2.98 2.97 2.95 2.96 3.03 3.04 3.03
3638.052 3.03 3.06 3.1 3.07 3.05 3.05 3.06 3.13 3.16 3.17
3676.632 3.16 3.12 3.16 3.18 3.18 3.15 3.07 3.02 3.01 2.95
3715.211 2.92 2.86 2.86 2.88 2.91 2.88 2.83 2.83 2.81 2.82
3753.791 2.82 2.82 2.81 2.81 2.79 2.73 2.75 2.83 2.81 2.77
3792.370 2.76 2.78 2.8 2.8 2.76 2.71 2.77 2.8 2.78 2.81
3830.950 2.8 2.8 2.79 2.79 2.8 2.82 2.88 2.89 2.89 2.86
3869.530 2.88 2.9 2.9 2.84 2.82 2.86 2.86 2.87 2.85 2.81
3908.109 2.79 2.82 2.83 2.8 2.79 2.8 2.85 2.86 2.81 2.83
3946.689 2.85 2.82 2.86 2.91 2.91 2.89 2.88 2.82 2.78 2.8
3985.268 2.82 2.86 2.85 2.79 2.81
##END=
