##TITLE=9-Anthracenemethanol
##JCAMP-DX=4.24
##DATA TYPE=INFRARED SPECTRUM
##ORIGIN=NIST Mass Spectrometry Data Center
##OWNER=NIST Standard Reference Data Program
Collection (C) 2018 copyright by the U.S. Secretary of Commerce
on behalf of the United States of America. All rights reserved.
##CAS REGISTRY NO=1468-95-7
##MOLFORM=C 15 H 12 O
##$NIST SOURCE=MSDC-IR
##SPECTROMETER/DATA SYSTEM=HP-GC/MS/IRD
##STATE=gas
##XUNITS=1/CM
##YUNITS=ABSORBANCE
##XFACTOR=1.0
##YFACTOR=0.000001200
##DELTAX=4.0
##FIRSTX=550.0
##LASTX=3846.0
##FIRSTY=0.000568
##MAXX=3846
##MINX=550
##MAXY=0.012
##MINY=0
##NPOINTS=825
##XYDATA=(X++(Y..Y))
550.0 473 365 253 257 248 188 111 28 0 101
590.0 269 562 894 1075 932 595 326 200 230 335
630.0 496 668 733 684 616 556 475 439 366 246
670.0 151 127 156 222 393 646 948 1079 1020 984
710.0 1273 2164 4046 6486 9355 10000 7243 4555 2445 1069
750.0 566 370 291 245 232 287 413 573 767 996
790.0 980 712 473 279 161 116 134 170 333 635
830.0 993 1404 1499 1261 1084 1016 1032 1126 1248 1403
870.0 1695 2160 2786 3351 3005 2095 1348 781 468 332
910.0 299 262 237 249 318 379 427 521 659 794
950.0 932 1086 1274 1570 1982 2559 3417 4633 6065 7349
990.0 7855 7200 5674 3946 2594 1768 1364 1159 1137 1270
1030.0 1517 1869 2298 2747 3082 3132 2781 2144 1506 1047
1070.0 783 645 566 492 430 394 368 343 323 314
1110.0 317 303 281 290 339 362 380 406 437 515
1150.0 706 1015 1167 1163 998 731 624 627 659 679
1190.0 683 696 699 693 698 719 782 822 843 872
1230.0 886 865 859 914 966 1024 1100 1124 1113 1069
1270.0 1018 949 892 885 868 836 811 773 731 686
1310.0 638 602 571 547 562 637 788 959 1035 1030
1350.0 952 858 864 972 1135 1339 1559 1782 1952 2010
1390.0 1958 1821 1626 1394 1167 974 807 661 534 445
1430.0 426 507 670 807 867 834 728 594 463 456
1470.0 563 672 679 603 499 429 441 500 554 597
1510.0 635 704 821 891 836 649 432 287 204 179
1550.0 186 215 263 272 258 242 231 221 202 204
1590.0 194 156 124 115 140 208 302 403 470 480
1630.0 418 298 190 126 101 108 122 126 164 253
1670.0 374 485 544 569 611 738 928 1041 982 761
1710.0 527 405 340 285 250 233 232 232 243 283
1750.0 327 350 354 330 288 268 272 313 372 394
1790.0 402 416 460 524 522 447 339 219 155 154
1830.0 165 160 135 116 101 88 83 79 67 59
1870.0 59 60 85 119 166 242 316 353 350 349
1910.0 376 390 391 395 447 552 612 558 410 243
1950.0 136 104 94 82 76 77 67 53 54 61
1990.0 55 36 33 41 45 48 37 39 56 63
2030.0 63 61 61 57 49 32 36 54 45 30
2070.0 31 32 29 25 14 16 20 20 16 8
2110.0 5 5 11 16 14 11 11 16 10 9
2150.0 31 32 27 20 23 23 15 25 40 43
2190.0 33 33 36 40 40 37 30 35 38 24
2230.0 19 23 28 27 29 36 48 57 54 59
2270.0 65 67 76 77 80 70 56 62 67 74
2310.0 72 75 89 92 91 81 72 67 59 62
2350.0 69 75 75 78 80 80 76 72 70 62
2390.0 61 62 59 48 35 37 44 46 42 41
2430.0 38 42 51 45 40 40 42 45 56 59
2470.0 56 58 48 40 36 33 45 58 67 64
2510.0 49 45 44 51 56 44 35 41 41 44
2550.0 47 45 32 14 12 24 35 31 19 28
2590.0 27 21 31 21 15 25 17 15 14 17
2630.0 15 5 21 34 29 27 32 35 40 31
2670.0 32 51 56 55 60 60 59 64 70 64
2710.0 47 46 64 69 62 63 73 68 60 71
2750.0 79 97 117 118 118 137 133 112 121 122
2790.0 127 125 108 119 133 143 159 162 169 192
2830.0 214 214 220 244 250 274 322 358 392 446
2870.0 525 617 728 836 943 1069 1192 1274 1344 1382
2910.0 1415 1431 1434 1458 1472 1428 1366 1313 1259 1237
2950.0 1250 1259 1241 1250 1272 1318 1371 1393 1379 1330
2990.0 1256 1208 1227 1271 1321 1361 1396 1451 1574 1828
3030.0 2139 2440 2697 2978 3456 4231 5138 5861 6139 5818
3070.0 5126 4469 4149 4172 4159 3802 3087 2258 1519 989
3110.0 676 485 364 287 225 206 191 167 154 152
3150.0 148 152 159 133 113 116 110 104 108 112
3190.0 116 125 105 87 78 62 64 70 67 46
3230.0 39 56 75 78 64 49 34 37 45 43
3270.0 32 20 17 40 50 29 25 37 49 49
3310.0 48 42 29 27 32 10 8 28 31 19
3350.0 18 17 15 17 32 39 53 44 18 30
3390.0 46 40 42 44 29 54 72 57 56 56
3430.0 83 81 58 54 68 79 77 100 90 56
3470.0 55 60 63 64 72 82 83 82 82 72
3510.0 85 115 115 102 101 95 91 81 84 103
3550.0 94 94 105 107 101 93 101 112 103 114
3590.0 120 107 108 126 129 133 149 178 210 265
3630.0 345 548 907 1359 1826 1730 1253 851 512 348
3670.0 270 232 206 177 164 166 149 136 136 138
3710.0 158 139 104 124 127 125 137 123 133 140
3750.0 124 119 123 106 119 140 130 100 85 104
3790.0 111 104 118 132 128 125 124 101 81 85
3830.0 85 84 89 87 96
##END=
