##TITLE=trans-3-Heptene
##JCAMP-DX=4.24
##DATA TYPE=INFRARED SPECTRUM
##ORIGIN=NIST Mass Spectrometry Data Center
##OWNER=NIST Standard Reference Data Program
Collection (C) 2018 copyright by the U.S. Secretary of Commerce
on behalf of the United States of America. All rights reserved.
##CAS REGISTRY NO=14686-14-7
##MOLFORM=C 7 H 14
##$NIST SOURCE=MSDC-IR
##SPECTROMETER/DATA SYSTEM=HP-GC/MS/IRD
##STATE=gas
##XUNITS=1/CM
##YUNITS=ABSORBANCE
##XFACTOR=1.0
##YFACTOR=0.000003700
##DELTAX=4.0
##FIRSTX=550.0
##LASTX=3846.0
##FIRSTY=0.000411
##MAXX=3846
##MINX=550
##MAXY=0.037
##MINY=0
##NPOINTS=825
##XYDATA=(X++(Y..Y))
550.0 111 103 99 101 102 101 132 115 75 62
590.0 36 47 49 53 60 44 25 20 16 12
630.0 23 18 26 54 71 57 29 14 18 10
670.0 1 13 23 19 1 15 48 45 15 13
710.0 29 33 56 65 67 60 62 77 82 84
750.0 96 119 142 158 170 185 187 189 184 179
790.0 184 178 144 132 131 114 116 109 89 79
830.0 82 85 86 89 84 91 101 110 115 127
870.0 139 146 170 187 198 215 222 243 268 292
910.0 308 309 311 330 360 424 533 669 847 1053
950.0 1294 1539 1740 1867 1910 1860 1716 1486 1229 995
990.0 797 637 512 425 363 313 291 275 260 259
1030.0 272 281 289 307 327 346 352 347 343 344
1070.0 349 351 341 339 334 330 317 275 240 207
1110.0 175 151 134 119 111 113 94 77 91 101
1150.0 98 85 81 86 67 61 78 84 82 79
1190.0 78 81 82 81 85 95 97 92 95 98
1230.0 94 92 92 104 120 128 148 179 209 235
1270.0 259 283 302 319 338 357 381 393 391 381
1310.0 367 363 369 389 423 461 486 491 479 451
1350.0 406 361 325 312 329 372 427 470 497 512
1390.0 503 458 403 362 345 346 353 378 426 492
1430.0 577 672 777 880 972 1069 1139 1176 1174 1112
1470.0 1013 898 767 632 516 416 341 285 235 192
1510.0 162 138 118 104 85 81 74 58 54 58
1550.0 61 52 42 49 52 49 46 42 48 53
1590.0 54 59 60 51 42 44 47 43 45 43
1630.0 35 30 39 42 39 40 41 48 54 55
1670.0 55 53 48 45 46 52 51 51 57 61
1710.0 56 51 49 52 51 45 45 50 54 57
1750.0 56 56 60 64 65 67 68 66 61 54
1790.0 48 43 38 36 34 36 39 41 39 34
1830.0 33 39 42 38 33 27 19 13 17 18
1870.0 12 13 12 10 5 1 4 5 8 3
1910.0 0 2 2 3 4 3 2 1 5 9
1950.0 8 6 2 4 4 1 2 4 4 2
1990.0 1 1 3 9 15 8 6 14 18 16
2030.0 19 22 21 21 18 16 14 13 13 11
2070.0 10 8 6 6 7 4 0 2 5 6
2110.0 5 9 5 2 6 4 0 3 11 11
2150.0 6 6 6 8 9 10 14 8 5 7
2190.0 8 11 12 11 9 12 12 10 10 10
2230.0 10 11 9 12 14 8 6 6 5 3
2270.0 1 3 12 9 4 3 6 10 12 7
2310.0 4 8 7 8 13 16 11 9 13 21
2350.0 22 13 12 18 13 12 18 23 19 18
2390.0 25 30 27 24 25 23 26 26 16 11
2430.0 19 23 18 15 12 13 10 3 0 6
2470.0 7 4 4 2 5 8 9 11 14 19
2510.0 19 25 28 26 25 26 27 31 29 20
2550.0 22 31 33 36 35 29 33 32 28 32
2590.0 37 32 32 45 50 41 34 33 33 36
2630.0 39 43 47 47 49 52 59 62 58 63
2670.0 67 71 78 75 77 76 80 86 86 88
2710.0 94 105 114 120 131 147 164 177 182 188
2750.0 193 187 188 196 202 219 237 247 262 281
2790.0 295 308 335 369 413 459 510 586 682 804
2830.0 960 1150 1379 1651 1949 2256 2560 2850 3146 3451
2870.0 3770 4138 4479 4645 4720 4785 4791 4787 4869 5079
2910.0 5377 5725 6136 6585 7066 7562 8012 8285 8311 8238
2950.0 8163 8146 8422 9159 9897 10000 9625 8926 7601 5983
2990.0 4714 3863 3251 2786 2432 2163 1950 1785 1645 1510
3030.0 1384 1266 1148 1016 895 794 704 619 552 503
3070.0 457 420 401 377 352 329 315 303 280 254
3110.0 240 229 216 211 206 197 180 171 173 170
3150.0 162 154 149 141 139 140 139 127 111 104
3190.0 100 92 88 84 75 74 72 61 55 58
3230.0 50 35 28 25 31 31 23 17 22 27
3270.0 28 21 20 28 28 30 25 13 12 18
3310.0 17 9 20 21 8 15 14 12 17 19
3350.0 14 13 18 19 24 19 16 22 27 40
3390.0 37 21 11 21 31 30 34 27 21 20
3430.0 22 27 32 33 28 23 19 17 21 20
3470.0 23 34 35 40 39 30 29 30 24 19
3510.0 9 0 10 15 15 33 29 8 7 22
3550.0 24 18 27 24 23 29 19 9 10 14
3590.0 23 33 30 32 37 32 27 24 23 27
3630.0 24 23 31 38 42 41 37 43 42 41
3670.0 41 38 40 48 52 55 58 58 56 54
3710.0 55 53 42 44 49 44 43 42 44 60
3750.0 62 53 45 43 49 48 48 43 53 57
3790.0 43 41 52 63 46 27 45 57 49 55
3830.0 65 60 45 43 54
##END=
