##TITLE=Tetrahydrophthalimide
##JCAMP-DX=4.24
##DATA TYPE=INFRARED SPECTRUM
##ORIGIN=NIST Mass Spectrometry Data Center
##OWNER=NIST Standard Reference Data Program
Collection (C) 2018 copyright by the U.S. Secretary of Commerce
on behalf of the United States of America. All rights reserved.
##CAS REGISTRY NO=1469-48-3
##MOLFORM=C 8 H 9 N O 2
##SOURCE REFERENCE=No.290227 (NIST/EPA/NIH MS Database)
##$NIST SOURCE=MSDC-IR
##SPECTROMETER/DATA SYSTEM=HP-GC/MS/IRD
##STATE=gas
##XUNITS=1/CM
##YUNITS=ABSORBANCE
##XFACTOR=1.0
##YFACTOR=0.000014000
##DELTAX=4.0
##FIRSTX=550.0
##LASTX=3846.0
##FIRSTY=0.004466
##MAXX=3846
##MINX=550
##MAXY=0.14
##MINY=0
##NPOINTS=825
##XYDATA=(X++(Y..Y))
550.0 319 269 207 144 95 74 69 74 90 116
590.0 152 195 249 316 396 485 571 655 723 780
630.0 837 861 834 797 769 762 799 888 993 1088
670.0 1150 1133 1034 880 713 562 438 344 273 231
710.0 212 209 209 212 215 203 182 161 141 126
750.0 113 109 110 112 115 116 115 105 89 74
790.0 59 42 30 24 18 13 11 7 8 6
830.0 3 2 1 5 5 10 12 9 9 10
870.0 12 15 19 25 37 52 71 86 101 113
910.0 129 150 185 234 295 341 365 373 359 323
950.0 280 245 219 201 188 181 174 160 144 132
990.0 120 107 104 118 146 178 217 254 276 281
1030.0 270 250 231 231 250 270 282 277 254 213
1070.0 171 139 119 110 113 117 121 134 154 175
1110.0 207 251 316 410 530 681 862 1073 1293 1463
1150.0 1540 1528 1412 1217 980 758 620 563 555 559
1190.0 559 551 532 497 445 403 366 331 305 285
1230.0 276 275 277 282 290 298 311 328 348 375
1270.0 408 452 509 581 673 791 942 1123 1313 1489
1310.0 1639 1743 1779 1745 1665 1541 1386 1236 1108 1000
1350.0 897 782 663 537 417 320 248 202 173 153
1390.0 141 134 130 132 135 135 133 129 130 141
1430.0 165 200 242 276 291 289 257 201 145 101
1470.0 68 49 41 37 33 29 28 25 23 22
1510.0 20 20 21 22 25 27 28 28 28 29
1550.0 30 28 26 26 26 26 28 31 33 36
1590.0 40 43 46 49 54 59 65 70 78 86
1630.0 98 107 115 123 129 133 139 146 152 157
1670.0 161 165 171 180 195 218 249 293 351 427
1710.0 524 651 823 1060 1394 1902 2709 3948 5641 7503
1750.0 9044 9931 10000 9191 7653 5924 4577 3727 3203 2866
1790.0 2644 2469 2290 2050 1723 1363 1004 710 526 415
1830.0 346 298 260 229 206 187 170 157 145 135
1870.0 124 114 104 94 85 80 75 69 63 60
1910.0 58 59 60 63 67 70 73 70 62 52
1950.0 44 36 28 23 20 18 16 15 15 14
1990.0 13 13 12 11 11 10 10 10 9 8
2030.0 8 7 7 9 7 7 8 7 6 6
2070.0 5 4 6 7 7 6 7 7 6 7
2110.0 8 10 11 12 11 10 8 8 7 5
2150.0 5 4 3 4 3 2 2 2 1 0
2190.0 0 2 4 5 6 6 5 6 7 6
2230.0 8 8 10 11 11 10 11 12 12 11
2270.0 10 11 10 9 9 8 7 8 7 6
2310.0 6 5 4 2 4 6 8 11 14 15
2350.0 16 18 19 20 20 21 23 22 22 21
2390.0 18 16 16 15 14 15 17 18 17 16
2430.0 14 16 17 15 16 15 16 17 15 14
2470.0 15 15 13 13 13 10 8 8 6 5
2510.0 6 6 4 3 2 2 3 2 1 2
2550.0 0 1 0 1 3 2 2 3 4 4
2590.0 5 6 7 8 7 8 11 12 12 14
2630.0 17 18 18 17 16 15 15 16 14 10
2670.0 8 6 6 7 7 5 3 2 1 1
2710.0 2 1 1 1 0 0 2 3 2 3
2750.0 2 3 5 7 5 4 7 9 8 6
2790.0 9 12 12 16 21 23 27 33 39 44
2830.0 53 64 78 104 145 204 267 320 345 332
2870.0 301 264 233 221 228 246 272 299 318 328
2910.0 333 314 291 287 301 335 370 399 435 415
2950.0 370 357 349 340 335 328 311 277 233 191
2990.0 156 125 97 76 62 52 48 48 51 61
3030.0 86 136 217 315 397 453 474 422 319 222
3070.0 147 97 66 47 39 36 31 26 27 26
3110.0 23 22 23 22 21 22 21 18 15 11
3150.0 9 10 8 7 7 7 3 3 3 1
3190.0 1 3 0 0 2 0 1 2 1 3
3230.0 5 4 3 0 0 0 1 1 0 2
3270.0 7 6 3 3 3 3 4 2 4 5
3310.0 5 6 5 7 5 2 4 2 0 0
3350.0 1 3 2 3 6 8 7 4 2 5
3390.0 7 8 14 19 24 34 45 66 101 161
3430.0 259 411 614 832 1002 1070 1006 815 581 360
3470.0 190 102 67 53 50 51 51 54 59 62
3510.0 65 71 74 79 90 98 105 110 110 100
3550.0 85 72 57 46 38 32 31 30 26 24
3590.0 25 24 20 19 19 15 12 12 14 11
3630.0 10 10 9 9 8 8 6 8 10 9
3670.0 7 5 5 7 8 7 10 10 8 7
3710.0 7 8 8 8 7 10 11 9 7 9
3750.0 10 10 14 14 9 7 9 8 7 10
3790.0 11 13 12 8 6 6 7 7 8 9
3830.0 8 10 9 8 11
##END=
