##TITLE=3-Aminothiophene-2-carboxamide
##JCAMP-DX=4.24
##DATA TYPE=INFRARED SPECTRUM
##ORIGIN=EPA-IR VAPOR PHASE LIBRARY
##OWNER=SRD/NIST
Collection (C) 2018 copyright by the U.S. Secretary of Commerce
on behalf of the United States of America. All rights reserved.
##CAS REGISTRY NO=147123-47-5
##MOLFORM=C 5 H 6 N 2 O S
##$NIST SOURCE=MSDC-IR
##STATE=gas
##XUNITS=1/CM
##YUNITS=ABSORBANCE
##XFACTOR=1.
##YFACTOR=0.001
##DELTAX=1.92898
##FIRSTX=549.8
##LASTX=4000.7
##FIRSTY=6.6
##MAXX=4000.7
##MINX=549.759
##MAXY=0.03021
##MINY=0
##NPOINTS=1790
##XYDATA=(X++(Y..Y))
549.759 6.6 5.72 6.68 6.74 5.85 6.32 5.94 6.22 6.21 5.64
569.049 6.21 5.69 5.31 5.64 5.07 4.25 4.68 4.54 3.45 4.03
588.339 3.62 3.69 5.51 6.26 6.17 5.14 5.21 5.91 5.21 4.76
607.628 4.7 4.48 4.4 4.88 6.02 5.74 4.8 5.3 5.44 5.47
626.918 5.95 5.48 5.54 7.1 7.69 7.4 7.66 7.24 7.36 8.01
646.208 7.76 7.11 6.99 7.96 7.86 7 7.13 6.86 6.21 5.48
665.498 5.52 5.92 5.27 4.88 4.42 4.15 4.18 4.14 3.91 4.13
684.787 4.67 4.68 3.98 3.56 3.88 4.07 4.24 4.57 5.06 5.51
704.077 5.37 4.71 4.84 5.78 6.09 5.77 5.45 5.23 4.66 4.73
723.367 5.67 5.92 5.07 3.89 4.27 5.02 5.01 4.79 4.52 4.41
742.657 4.99 5.69 5.65 5.47 5.35 5.44 5.67 6.14 6.59 7.01
761.947 7.44 7.61 8.05 8.59 8.6 8.1 7.52 7.05 6.99 7.1
781.236 6.79 6.24 6.13 6.02 5.4 5 4.6 4.32 4.43 4.74
800.526 4.57 3.82 3.45 3.95 3.92 3.92 3.94 3.51 3.28 3.13
819.816 4.11 3.93 3.56 4.32 4.6 5.23 5.59 4.91 4.82 5.35
839.106 5.35 4.85 5.22 5.45 4.99 4.97 4.79 4.39 4.14 3.92
858.395 3.81 3.96 3.61 3.85 4.28 4.22 3.89 2.97 3.16 3.64
877.685 3.58 3.72 3.25 2.5 2.47 3.05 3.24 3.22 3.72 3.79
896.975 2.93 2.65 3 3.22 3.23 2.86 2.81 3.18 2.9 2.58
916.265 2.74 2.75 2.62 2.5 1.9545 1.9763 2.63 2.67 2.77 2.73
935.555 2.35 2.42 2.41 2.61 2.66 2.64 2.77 2.52 2.73 2.55
954.844 2.59 3.14 3.23 3.08 2.95 2.54 2.34 2.93 3.25 2.84
974.134 2.84 3.33 3.4 3.22 3.79 3.8 3.21 3.16 3.05 2.64
993.424 2.23 2.3 2.69 2.53 2.0183 2.33 2.36 2.15 2.43 2.76
1012.714 2.78 2.0247 2.19 1.8836 1.0796 1.5717 1.8435 2.5 3.62 3.41
1032.003 1.8092 1.4505 1.17435 0.759 1.0751 0.988 1.4638 1.8864 1.5929 1.2369
1051.293 1.4428 2.74 3.71 3.56 4.43 5.13 4.14 3.97 3.83 2.96
1070.583 3.82 4.43 4.41 4.29 3.82 3.32 2.6 2.88 3.61 4.49
1089.873 5.09 5.6 6.12 5.47 3.5 4.17 4.28 1.5801 0.03 0.704
1109.163 3.32 4.61 3.3 2.19 3.75 3.99 1.9514 2.3 4.91 5.49
1128.452 6.03 5.58 2.84 1.8205 2.62 3.76 3.85 4.01 5.16 4.37
1147.742 2.44 3.88 4.73 2.97 3.16 3.51 3.47 3.03 2.6 2.89
1167.032 2.72 2.59 2.93 3.31 2.68 2.89 3.55 3.48 3.61 3.93
1186.322 3.89 3.39 2.83 2.81 2.59 2.63 3.69 4.27 3.12 2.52
1205.611 2.15 2.24 2.39 1.7187 1.3942 1.5567 2.59 3.67 3 3.03
1224.901 5.56 5.21 3.83 4.54 4.85 4.08 3.49 3.52 3.98 3.79
1244.191 2.58 2.78 4.15 4.52 4.47 4.52 5 5.85 5.38 5
1263.481 5.3 5.73 6.84 6.95 6.88 7.17 7.05 6.52 5.64 5.7
1282.771 5.88 5.32 5.02 4.71 4.38 4.24 4.22 4.16 3.92 3.81
1302.060 3.67 3.56 3.49 3.29 3.3 3.49 3.81 3.97 4.07 4.44
1321.350 4.66 4.76 5.3 6.25 7.14 8.17 9.49 11.02 13.1 15.41
1340.640 17.85 20.17 22.02 23.52 24.73 25.22 24.96 24.54 23.95 22.86
1359.930 21.27 19 15.88 12.97 10.2 7.71 6.2 5.23 4.43 3.91
1379.219 3.69 3.4 3.16 3.22 3.11 3.08 3.13 2.92 2.92 3.39
1398.509 3.58 3.47 4.02 4.37 4.54 5.02 5.18 5.17 5.2 5.21
1417.799 5.36 5.54 5.62 5.58 5.47 5.51 5.52 5.53 5.79 6.09
1437.089 6.34 6.75 7.23 7.79 8.25 8.67 8.95 8.95 8.9 8.54
1456.378 7.96 7.54 6.96 6.33 5.52 4.49 3.72 3.14 2.96 2.78
1475.668 2.4 2.34 2.65 2.77 2.78 2.57 2.37 2.41 2.56 2.79
1494.958 2.81 2.76 2.78 2.84 2.89 3.02 3 3.09 3.46 3.72
1514.248 4.2 4.83 5.64 6.89 8.29 9.27 10.19 10.84 11.23 11.79
1533.538 12.15 12.35 12.38 12.11 11.87 11.24 10.21 9.37 8.37 7.38
1552.827 6.85 6.52 6.05 5.69 5.79 6.1 6.42 6.66 7.46 8.68
1572.117 9.85 11.25 13.27 15.22 16.82 18.64 20.3 21.95 23.62 24.87
1591.407 26.08 27.68 28.4 28.47 28.45 27.95 27.05 26.02 25.28 24.27
1610.697 23.37 22.33 20.51 18.54 16.95 15.46 13.94 12.69 11.36 10.14
1629.986 9.36 8.81 8.29 7.75 7.17 6.6 6.4 6.37 6.17 5.85
1649.276 5.83 6.04 6.57 7.19 7.76 8.6 9.97 11.87 14.16 17.3
1668.566 20.51 23.69 26.57 28.46 29.21 29.63 30.17 30.21 29.86 28.98
1687.856 27.07 24.1 20.37 16.69 13.6 10.91 9.06 7.71 6.54 5.83
1707.146 5.3 4.86 4.45 4.02 3.92 3.7 3.51 3.42 3.41 3.29
1726.435 3.2 3.21 3.21 3.23 3.41 3.52 3.41 3.27 3.19 3.25
1745.725 3.16 3.01 3.03 3.17 2.9 2.66 2.74 2.65 2.4 2.21
1765.015 2.16 2.3 2.45 2.18 2.16 2.26 2.12 2.21 2.0014 1.7864
1784.305 1.9131 1.9921 1.8556 1.7412 1.6609 1.7047 1.706 1.607 1.6709 1.6954
1803.594 1.669 1.5359 1.7133 1.7755 1.8021 1.8234 1.6381 1.4775 1.19802 1.18989
1822.884 1.537 1.6403 1.4591 1.454 1.3843 1.3215 1.4081 1.4875 1.4915 1.4185
1842.174 1.5687 1.6325 1.4516 1.3674 1.3632 1.4905 1.5626 1.5321 1.5816 1.5861
1861.464 1.5157 1.5459 1.3641 1.2032 1.5068 1.6902 1.6801 1.6158 1.5621 1.5624
1880.754 1.4962 1.32 1.4077 1.4231 1.1751 1.3312 1.3077 1.15882 1.3963 1.4775
1900.043 1.3828 1.3644 1.315 1.306 1.2514 1.10391 1.1047 1.10285 1.043 1.1194
1919.333 1.2832 1.4655 1.4344 1.2729 1.2127 1.1294 1.25 1.4391 1.3873 1.3571
1938.623 1.3854 1.3365 1.2095 1.2762 1.4352 1.3723 1.3979 1.2754 1.17237 1.16364
1957.913 1.13757 1.1768 1.13111 1.2573 1.376 1.3992 1.3515 1.5051 1.5231 1.09162
1977.202 1.0275 1.16913 1.2925 1.348 1.201 1.2567 1.2452 1.3195 1.4685 1.4931
1996.492 1.3118 1.0556 1.2848 1.3526 1.2991 1.3192 1.18902 1.0761 1.10825 1.16794
2015.782 0.96 0.862 0.804 0.769 1.13355 1.19976 0.99 1.253 1.5215 1.4669
2035.072 1.3882 1.4311 1.3336 1.2645 1.4055 1.2489 1.2492 1.376 1.2669 1.2953
2054.362 1.393 1.3657 1.4292 1.5114 1.4543 1.485 1.5486 1.5082 1.3054 1.2242
2073.651 1.4409 1.4408 1.2447 1.2784 1.3312 1.2067 1.0482 1.072 1.2173 1.3056
2092.941 1.2868 1.4127 1.12541 1.14449 1.5025 1.4688 1.3196 1.2982 1.3298 1.2323
2112.231 1.0297 0.913 1.2386 1.2528 0.98 1.0047 1.0323 0.975 1.0185 0.926
2131.521 1.15953 1.2843 1.0508 0.941 0.898 0.842 0.695 0.878 1.0796 0.89
2150.810 1.0315 1.2186 1.14007 1.17929 1.2522 1.11555 0.868 0.935 1.17818 1.0781
2170.100 0.882 1.0265 1.19376 1.3492 1.2107 1.0319 0.99 1.10675 1.2178 0.992
2189.390 1.0284 1.13269 1.2772 1.351 1.207 1.2846 1.3081 1.2364 1.2051 1.2509
2208.680 1.15574 1.0606 1.0453 0.886 0.763 0.742 0.917 1.14626 1.3949 1.4606
2227.970 1.0946 1.0073 1.2935 1.2656 1.2863 1.3079 1.2621 1.2394 1.0367 1.0181
2247.259 1.0432 1.12543 1.2285 1.2308 1.19455 1.2807 1.2802 0.997 1.0063 1.319
2266.549 1.3932 1.13743 0.848 0.846 0.96 1.142 1.3324 1.10176 1.09025 1.15516
2285.839 0.997 0.919 1.0517 1.0412 0.961 0.92 0.892 0.829 0.68 0.671
2305.129 0.583 0.661 0.907 0.79 0.739 0.939 0.948 0.814 0.681 0.553
2324.418 0.229 0.336 0.64 0.788 0.831 0.858 0.887 1.0744 1.2519 0.903
2343.708 0.799 0.88 0.841 0.868 1.0678 1.2445 1.0805 0.895 1.0324 1.14739
2362.998 1.0285 1.0658 0.943 0.855 0.919 1.0526 1.0795 0.796 0.849 0.954
2382.288 0.897 0.923 0.889 0.738 0.898 1.11975 1.0563 0.972 0.973 1.0163
2401.578 1.11799 1.2814 1.079 1.2205 1.4062 1.12861 1.10487 1.079 0.93 0.72
2420.867 0.846 1.269 1.13296 0.87 0.946 0.989 0.973 0.881 0.896 1.0748
2440.157 1.12279 1.19589 1.09264 0.922 0.823 0.662 0.798 0.967 0.954 0.755
2459.447 0.776 0.984 0.978 0.779 0.824 0.853 0.912 1.0588 0.661 0.471
2478.737 0.596 0.757 0.943 0.999 1.0337 0.759 0.647 0.772 0.75 0.974
2498.026 1.10575 0.929 0.887 0.706 0.646 1.09004 1.0869 0.77 1.0187 1.15749
2517.316 1.0365 1.11286 0.931 0.981 1.0486 1.0697 0.973 0.678 0.675 0.819
2536.606 1.008 0.791 0.525 0.707 0.819 0.923 0.971 1.0199 1.15293 0.647
2555.896 0.34 0.758 1.14345 1.4717 1.2648 1.3029 1.17594 0.683 0.914 0.853
2575.186 0.965 1.2612 1.3332 1.5656 1.7899 1.4098 0.838 0.826 0.979 1.0099
2594.475 0.908 0.952 0.905 0.971 1.19905 1.13184 0.905 0.946 1.3583 1.2787
2613.765 1.0204 0.979 0.63 0.439 0.772 1.046 0.869 0.79 0.578 0.678
2633.055 1.4266 1.4144 1.089 1.069 0.925 0.854 0.937 1.0292 1.041 0.943
2652.345 1.10349 1.09851 0.642 0.385 0.685 1.16022 0.996 0.944 1.2099 1.12739
2671.634 1.3624 1.5405 1.18203 0.812 0.901 0.964 0.796 0.976 0.9 0.637
2690.924 0.897 1.3787 1.5061 1.4041 1.0817 1.0856 1.12655 0.822 1.0306 1.1384
2710.214 0.937 0.943 0.696 0.5 0.63 0.792 0.815 0.751 0.774 0.991
2729.504 1.0822 0.952 0.9 0.901 1.039 1.2707 1.3101 1.14688 1.0621 0.509
2748.794 0.275 1.0556 1.329 1.0376 1.2166 1.2106 0.802 0.84 1.18928 0.965
2768.083 0.969 1.225 0.815 0.75 0.996 0.925 0.425 0.303 0.833 0.912
2787.373 1.284 1.7103 1.4876 0.954 0.517 0.641 0.997 0.847 0.309 0.35
2806.663 0.53 0.559 0.84 0.776 0.396 0.753 0.95 0.957 1.0762 1.10421
2825.953 0.716 0.56 0.922 0.809 1.0806 1.2201 0.955 0.717 0.875 1.427
2845.242 1.2001 0.829 1.3358 1.3278 0.808 0.83 0.907 0.633 0.388 0.665
2864.532 0.573 0.627 0.978 0.871 0.93 1.12516 1.0366 1.0899 1.11991 0.693
2883.822 0.614 0.593 0.8 0.624 0.392 0.695 0.71 0.733 0.84 0.73
2903.112 0.649 0.924 0.916 0.777 1.2842 1.09297 0.726 0.943 0.701 0.429
2922.401 0.507 0.645 0.598 0.929 1.13927 0.86 0.727 0.467 0.295 0.328
2941.691 0.554 0.863 0.66 0.927 0.798 0.191 0.264 0.475 0.787 0.882
2960.981 1.0567 1.2759 0.684 0.149 0.708 0.78 1.0279 1.5314 1.2141 0.924
2980.271 0.79 0.991 0.901 1.0153 1.0463 0.906 1.2082 1.0199 1.0759 1.0124
2999.561 0.399 0.306 0.407 0.898 1.16374 0.96 0.805 0.6 0.581 0.76
3018.850 0.878 0.986 0.779 0.673 0.727 0.7 1.0716 0.92 0.913 1.10157
3038.140 0.935 0.759 0.632 0.781 0.646 0.339 0.767 1.3218 1.454 1.5446
3057.430 1.516 0.739 0.447 1.2445 0.94 0.605 1.2793 1.9166 2.12 1.6937
3076.720 1.0604 0.897 1.0631 1.3051 1.15551 1.0178 1.2036 1.3364 1.3235 1.09734
3096.009 1.11 1.15567 0.915 0.769 0.612 0.559 1.2296 1.2205 0.78 1.15088
3115.299 1.6239 1.17593 0.569 0.574 0.476 0.926 1.3189 1.0277 0.924 0.663
3134.589 0.63 0.461 0.107 0.07 0.72 1.2378 0.824 1.3183 1.6317 0.966
3153.879 0.863 1.0028 1.2159 1.2944 1.2631 1.0184 1.17372 1.288 1.033 1.5466
3173.169 1.14065 0.953 1.2358 0.922 0.832 0.964 1.09006 0.697 0.494 1.10303
3192.458 1.2043 1.19372 1.051 0.814 1.2498 1.5608 1.18622 0.797 1.11783 1.14594
3211.748 1.4504 1.6307 1.0187 0.856 0.872 1.18651 1.294 1.2056 1.4776 0.851
3231.038 0.668 1.2502 1.2378 1.14818 1.15646 0.756 0.591 1.2106 1.3972 1.4339
3250.328 1.5865 1.4337 1.5479 1.7894 1.2257 0.335 0.693 1.2481 1.4286 1.19743
3269.617 0.655 1.0356 0.923 0.944 1.6175 1.3035 1.3725 1.4554 0.812 0.901
3288.907 1.3087 1.4169 0.998 0.526 0.548 0.563 0.49 0.769 1.3623 1.1984
3308.197 1.16479 1.3019 1.17104 1.0396 1.0785 1.4353 1.6163 1.4964 1.5209 1.4132
3327.487 1.0789 1.12587 1.5848 1.9569 2.24 2.66 2.58 2.62 2.62 3.22
3346.777 4.31 4.83 4.89 5.17 6 5.75 5.36 5.73 6.04 6.2
3366.066 5.51 5 4.79 4.14 3.44 3.5 3.61 2.9 2.61 3.07
3385.356 3.29 2.49 2.0312 1.9958 2.13 2.68 2.68 2.39 2.14 2.41
3404.646 2.52 1.9892 2.39 2.66 2.78 3.39 3.39 3.31 3.39 3.39
3423.936 3.84 4.15 3.68 3.03 3.09 3.22 2.92 3 2.45 2.67
3443.225 2.9 2.41 2.38 2.25 2.18 1.5931 1.007 0.653 1.0564 1.4688
3462.515 0.994 1.3605 1.9662 1.9443 1.8338 2.44 3.12 2.55 2.33 2.52
3481.805 2.53 3.08 3.95 3.93 3.96 4.2 4.54 5.51 5.78 5.43
3501.095 5.19 5.21 5.26 5.14 4.78 4.4 4.03 3.83 3.93 4.14
3520.385 4.27 4.05 3.75 3.83 4.02 3.81 3.73 3.77 3.46 3.39
3539.674 3.66 4.23 3.82 3.02 3.06 3.31 3.63 3.42 3.03 2.84
3558.964 1.9977 1.4803 2.25 2.43 1.3217 0.85 1.2052 1.694 1.7312 1.5191
3578.254 1.3807 1.3138 1.008 0.15 0.254 0.877 1.5283 1.5985 1.358 1.3148
3597.544 1.2499 1.2587 0.753 1.2655 1.5442 1.3981 1.276 0.569 0.65 1.4357
3616.833 1.6086 1.2269 0.932 0.755 1.4034 1.7535 1.0407 0.851 1.0802 1.0562
3636.123 1.4256 1.3785 1.3816 1.3517 1.18949 1.246 0.859 0.343 0.184 0.21
3655.413 0.474 0.689 0.712 0.764 1.2328 1.6463 1.2408 0.939 1.0657 0.865
3674.703 0.464 0.317 0.776 1.0128 0.957 0.758 0.886 1.3597 1.4962 1.5029
3693.993 0.972 0.65 0.682 1.16776 1.18063 0.968 1.17224 0.793 0.817 1.4405
3713.282 1.3994 1.2015 1.2583 0.753 0.797 1.3071 1.12297 0.952 1.0001 1.12603
3732.572 0.67 0.283 0.725 1.368 1.18362 1.18278 1.3385 1.10801 1.2852 1.3418
3751.862 1.3522 1.4852 0.993 0.94 1.8791 1.6913 1.0801 1.5336 1.94 1.5628
3771.152 1.804 2.15 1.6467 1.17372 1.15991 0.447 0.143 0.416 0.808 1.14397
3790.441 0.924 1.2691 1.6062 1.3563 1.3661 1.3142 1.2945 1.14882 0.852 0.805
3809.731 1.0138 1.2075 0.998 1.5478 1.2389 0.72 0.941 1.2977 1.2834 1.058
3829.021 1.4727 0.98 0.154 0.672 0.937 0.784 0.932 1.0367 0.805 0.777
3848.311 0.817 1.15004 1.2736 0.743 1.3106 1.0032 0.41 0.771 1.2899 1.0588
3867.601 1.0182 1.13498 0.716 0.846 1.4509 1.3087 0.755 0.846 0.759 0.695
3886.890 1.5653 2.0354 1.7355 1.7402 1.4341 0.94 0.583 0.735 1.2352 1.5667
3906.180 1.9374 2.0189 1.5913 1.5115 1.9121 1.8401 1.6107 1.6169 1.16282 0.501
3925.470 0.386 0.629 0.679 1.1394 1.0198 0.527 0.758 1.0305 1.4961 1.4634
3944.760 1.11856 1.4466 1.5209 0.871 0.525 0.491 0.336 0.508 0.811 1.0873
3964.049 0.821 0.744 1.18167 1.359 1.027 0.583 1.18738 1.2417 0.454 0.254
3983.339 0.76 1.3412 1.09369 0.106 0 0.733 1.0059 1.09681 1.13828 0.964
##END=
