##TITLE=1,4-Bis(acetoxymethyl)benzene
##JCAMP-DX=4.24
##DATA TYPE=INFRARED SPECTRUM
##ORIGIN=EPA-IR VAPOR PHASE LIBRARY
##OWNER=SRD/NIST
Collection (C) 2018 copyright by the U.S. Secretary of Commerce
on behalf of the United States of America. All rights reserved.
##CAS REGISTRY NO=14720-70-8
##MOLFORM=C 12 H 14 O 4
##$NIST SOURCE=MSDC-IR
##STATE=gas
##XUNITS=1/CM
##YUNITS=ABSORBANCE
##XFACTOR=1.
##YFACTOR=0.001
##DELTAX=1.92898
##FIRSTX=549.8
##LASTX=4000.7
##FIRSTY=6.525
##MAXX=4000.7
##MINX=549.759
##MAXY=0.439715
##MINY=0
##NPOINTS=1790
##XYDATA=(X++(Y..Y))
549.759 6.525 6.665 6.385 5.685 5.355 5.855 5.615 5.345 5.095 4.945
569.049 4.825 4.335 5.315 5.905 5.545 5.375 5.485 5.565 5.535 5.635
588.339 5.335 5.805 6.555 6.565 6.495 7.145 7.625 7.405 7.565 8.325
607.628 8.525 8.345 8.725 8.645 8.585 8.845 8.685 8.575 9.145 9.465
626.918 9.055 8.975 9.055 9.055 8.635 8.415 8.135 8.055 7.975 6.895
646.208 6.015 5.855 5.295 4.555 4.115 3.855 3.885 3.845 3.395 3.085
665.498 3.175 2.805 2.635 2.575 2.595 2.595 2.655 2.605 2.375 2.595
684.787 2.755 2.825 2.945 2.475 2.155 2.425 2.835 3.175 2.785 2.615
704.077 3.125 3.145 2.875 2.885 2.885 2.745 2.665 2.855 3.195 3.805
723.367 3.775 3.245 3.215 3.165 3.105 3.305 3.595 3.985 4.225 4.395
742.657 4.875 5.305 5.795 6.225 6.135 6.255 6.805 7.845 8.695 9.185
761.947 9.465 9.415 9.655 10.085 9.945 9.985 10.345 10.095 9.965 10.765
781.236 11.645 11.685 12.085 12.725 13.195 13.355 13.655 14.085 14.915 16.155
800.526 16.285 16.875 17.655 17.675 18.095 18.085 17.825 18.485 18.975 17.725
819.816 16.925 18.115 17.875 17.265 17.075 16.635 16.885 16.945 17.285 17.595
839.106 17.805 18.255 18.325 18.645 18.535 17.615 17.325 16.965 15.865 15.025
858.395 14.355 13.125 12.045 11.535 10.865 10.455 10.045 9.255 8.935 8.895
877.685 8.825 8.195 7.905 8.545 9.335 9.435 8.945 9.505 10.095 10.015
896.975 10.535 11.325 12.155 12.255 12.115 12.305 12.655 13.025 12.725 12.515
916.265 12.335 11.655 11.235 11.205 10.735 10.035 9.415 9.115 9.225 8.935
935.555 8.895 9.345 10.025 10.895 11.465 12.315 13.155 13.975 14.705 15.225
954.844 16.405 18.085 19.675 21.075 22.715 24.185 25.195 25.955 26.455 25.995
974.134 25.055 24.385 23.365 22.215 21.595 21.485 21.585 23.005 25.165 27.145
993.424 29.335 31.735 34.625 38.325 42.985 47.765 53.045 59.265 65.685 72.345
1012.714 79.145 84.755 88.315 89.055 87.355 85.175 82.995 81.155 82.345 84.375
1032.003 84.175 83.745 82.565 79.375 74.305 68.665 63.765 59.075 53.955 49.815
1051.293 46.065 42.645 40.005 37.485 35.945 34.545 33.035 32.185 31.305 30.655
1070.583 29.915 28.965 29.325 29.045 27.835 27.225 27.615 26.945 24.945 25.235
1089.873 24.535 22.755 22.985 22.335 21.145 20.355 18.375 16.315 17.175 17.825
1109.163 15.955 14.965 14.305 13.285 12.305 11.355 10.505 10.185 10.145 10.435
1128.452 10.535 10.595 10.175 9.705 10.035 9.905 10.425 10.785 10.115 9.725
1147.742 9.625 9.785 9.445 9.395 10.225 10.845 11.415 12.195 12.865 13.985
1167.032 15.815 16.565 17.665 19.515 21.075 22.655 24.365 26.465 29.235 33.245
1186.322 37.995 43.515 48.625 54.675 63.695 73.115 82.865 96.625 115.315 136.375
1205.611 161.095 192.875 231.455 274.555 318.665 362.125 402.385 428.745 439.715 436.195
1224.901 415.675 384.185 348.405 313.635 282.025 255.345 231.025 207.975 186.675 165.725
1244.191 147.145 131.185 117.555 107.545 99.085 92.075 86.445 81.135 76.445 72.355
1263.481 67.565 62.435 57.655 52.825 48.235 43.565 39.255 35.535 32.025 29.025
1282.771 26.675 24.735 22.965 21.005 19.585 18.745 17.665 16.825 16.095 15.365
1302.060 14.875 14.305 13.525 13.055 12.745 12.185 11.795 11.455 11.215 11.095
1321.350 10.805 10.635 10.665 10.695 10.795 10.825 10.825 10.945 11.185 11.685
1340.640 12.235 12.985 14.235 15.825 17.935 20.825 24.305 29.155 35.935 44.025
1359.930 51.995 57.905 60.865 61.315 59.515 56.525 54.755 54.585 55.445 56.545
1379.219 56.725 55.655 53.155 49.325 44.625 39.535 34.655 30.495 26.685 23.465
1398.509 20.935 18.505 16.665 15.515 14.605 13.795 13.275 13.075 12.875 12.655
1417.799 12.405 12.325 12.485 12.465 12.645 12.855 12.815 12.955 13.315 13.605
1437.089 13.795 13.885 14.265 14.875 15.425 15.825 16.275 16.785 17.065 17.085
1456.378 17.125 16.975 16.685 16.425 15.945 15.505 14.915 13.965 13.115 12.105
1475.668 11.295 10.645 10.045 9.505 8.975 8.655 8.415 8.105 7.865 7.755
1494.958 7.705 7.925 7.995 7.965 8.235 8.515 8.865 9.415 9.845 10.605
1514.248 11.545 11.895 11.765 11.435 10.635 9.375 8.265 7.485 6.745 6.175
1533.538 5.855 5.825 5.625 5.515 5.485 5.155 4.975 4.775 4.765 4.885
1552.827 4.655 4.475 4.535 4.575 4.555 4.705 4.405 4.035 4.415 4.565
1572.117 4.325 4.165 4.245 4.215 4.225 4.385 4.525 4.505 4.305 4.435
1591.407 4.675 4.685 4.695 4.775 4.835 4.775 4.755 4.665 4.645 4.745
1610.697 4.775 4.895 4.725 4.515 4.715 4.875 4.705 4.495 4.615 4.625
1629.986 4.565 4.835 5.115 5.175 5.125 5.095 5.095 5.275 5.415 5.455
1649.276 5.455 5.545 5.745 5.775 5.815 5.945 5.995 5.935 6.005 6.135
1668.566 6.295 6.285 6.385 6.525 6.635 6.935 7.155 7.385 7.505 7.675
1687.856 8.005 8.345 8.865 9.385 9.835 10.575 11.235 11.765 12.435 13.015
1707.146 13.665 14.555 15.505 16.605 17.925 19.465 20.885 22.395 24.065 25.975
1726.435 28.235 30.935 34.375 38.165 42.815 47.805 53.445 60.605 68.585 78.145
1745.725 88.895 100.575 113.885 129.235 146.065 164.935 186.365 207.635 225.315 235.785
1765.015 236.415 226.915 208.175 185.385 161.885 141.345 123.685 108.345 94.925 82.985
1784.305 72.345 62.865 54.885 47.985 41.985 36.905 32.595 28.695 25.685 23.155
1803.594 20.805 18.815 17.375 16.205 15.145 14.065 13.215 12.635 11.855 11.215
1822.884 10.655 10.195 9.835 9.385 8.905 8.385 7.925 7.405 7.035 6.815
1842.174 6.425 6.125 5.915 5.655 5.385 4.995 4.985 4.945 4.825 4.695
1861.464 4.525 4.465 4.355 4.335 4.195 4.085 3.985 3.895 3.985 4.015
1880.754 3.935 4.215 4.405 4.275 4.165 4.075 4.225 4.435 4.425 4.325
1900.043 4.385 4.435 4.445 4.265 4.105 4.175 4.065 3.915 3.815 3.815
1919.333 3.765 3.585 3.585 3.485 3.365 3.325 3.445 3.475 3.215 3.185
1938.623 3.445 3.365 3.075 3.185 3.265 3.185 2.985 2.895 3.075 3.185
1957.913 3.185 3.005 2.875 3.055 3.075 2.945 2.895 2.825 2.695 2.705
1977.202 2.885 3.065 3.085 2.855 2.725 2.525 2.535 2.745 2.705 2.715
1996.492 2.655 2.625 2.805 2.805 2.735 2.805 2.795 2.795 2.835 2.875
2015.782 2.925 2.945 2.825 2.795 2.845 2.855 2.815 2.885 2.935 3.045
2035.072 2.915 2.765 2.945 3.005 3.045 3.045 2.995 2.995 3.095 3.105
2054.362 3.055 3.055 2.945 2.775 2.775 2.785 2.855 2.875 2.825 2.655
2073.651 2.415 2.485 2.535 2.455 2.385 2.325 2.435 2.385 2.265 2.255
2092.941 2.155 2.325 2.405 2.295 2.315 2.295 2.055 2.105 2.205 2.305
2112.231 2.425 2.055 1.935 2.075 2.155 2.185 2.165 2.195 2.335 2.265
2131.521 2.165 2.185 2.255 2.385 2.335 2.485 2.425 2.375 2.485 2.285
2150.810 2.125 2.095 2.045 1.8593 1.8119 1.909 1.8591 1.7914 1.6974 1.564
2170.100 1.4367 1.5379 1.8409 1.9089 1.8664 1.6601 1.6948 1.8485 1.5878 1.4268
2189.390 1.5747 1.6282 1.3498 1.3293 1.5478 1.5681 1.6151 1.6964 1.6102 1.7238
2208.680 1.975 1.985 1.7917 1.5709 1.6309 1.6777 1.6843 1.7807 1.8439 1.8024
2227.970 1.6343 1.5126 1.4091 1.366 1.4759 1.6576 1.5715 1.3566 1.3891 1.4184
2247.259 1.3193 1.3877 1.4181 1.2991 1.118 1.0751 1.3118 1.6025 1.7525 1.5987
2266.549 1.4142 1.3803 1.3742 1.3211 1.3314 1.3735 1.3815 1.1951 1.1702 1.3944
2285.839 1.3516 1.1527 1.2337 1.3814 1.161 1.00385 1.1597 1.2909 1.3613 1.3257
2305.129 1.3005 1.3788 1.2713 1.2833 1.3963 1.4366 1.4398 1.3591 1.3247 1.3119
2324.418 1.2266 1.1858 1.3977 1.5012 1.3192 1.2852 1.2696 1.3604 1.4452 1.3344
2343.708 1.2175 1.2477 1.3646 1.3118 1.2019 1.1002 1.0566 1.2326 1.2958 1.2474
2362.998 1.2015 0.9146 0.9825 1.2317 1.3071 1.3621 1.1911 1.0931 1.0467 1.02349
2382.288 1.208 1.2018 1.2543 1.3392 1.3096 1.3744 1.1509 1.0474 1.1419 1.1025
2401.578 1.2835 1.5243 1.5773 1.4668 1.3575 1.2254 1.1327 1.214 1.2743 1.4058
2420.867 1.5321 1.5897 1.795 1.611 1.3106 1.4023 1.5435 1.5773 1.579 1.5116
2440.157 1.3056 1.5293 1.8935 1.83 1.795 1.77 1.6695 1.6077 1.7105 1.8372
2459.447 1.7055 1.4966 1.4675 1.7247 1.7928 1.605 1.5342 1.6778 1.5339 1.4276
2478.737 1.617 1.5613 1.5493 1.5106 1.1852 1.0431 0.9876 0.929998 1.1118 1.0889
2498.026 0.96516 1.0833 0.98444 0.9829 1.0456 0.8887 0.77 0.67 0.92147 1.1488
2517.316 0.862 0.664 0.8705 0.8784 0.9086 0.748 0.591 0.8924 1.01325 0.98958
2536.606 0.799 0.679 0.656 0.652 0.61 0.618 0.869 0.91736 1.01671 1.1758
2555.896 0.97804 0.95616 1.298 1.2772 1.0531 0.9102 0.9004 0.99187 1.1314 1.154
2575.186 1.1298 1.1594 1.01384 0.9058 0.792 0.92159 1.1867 1.1065 1.1119 1.2325
2594.475 0.99823 0.819 0.8493 0.644 0.628 0.99555 1.00854 1.0375 0.94468 0.924093
2613.765 1.0065 0.9825 1.0683 0.929622 0.9025 0.8608 0.562 0.386 0.513 0.781
2633.055 0.97599 0.9018 0.8303 0.924277 1.195 1.0848 0.8629 0.8776 1.1158 1.1955
2652.345 0.8813 0.9591 0.96189 0.97672 1.02077 1.1659 1.407 1.0788 0.983 1.2515
2671.634 1.1159 0.702 0.775 0.8801 0.666 0.808 0.798 0.8408 1.1183 1.0486
2690.924 1.1968 1.4619 1.2672 1.0591 0.814 0.648 0.96023 1.206 1.249 1.1463
2710.214 1.3848 1.4986 1.0813 1.0691 1.198 1.3197 1.3503 1.335 1.594 1.5187
2729.504 1.316 1.3591 1.2815 1.1468 1.4435 1.7321 1.441 1.2299 1.4273 1.3222
2748.794 1.2866 1.3176 1.0501 0.8305 0.755 0.8619 0.8757 0.95626 1.0699 1.103
2768.083 1.0298 0.95772 0.99337 0.927319 0.8745 1.0884 1.251 1.27 1.2533 1.2265
2787.373 1.2598 1.3298 1.3627 1.3372 1.2214 1.3805 1.5497 1.347 1.3013 1.505
2806.663 1.6758 1.6784 1.6891 1.627 1.5537 1.8029 1.7962 1.4321 1.5598 2.085
2825.953 1.995 1.7358 1.985 1.995 2.015 2.415 2.335 1.8687 1.6122 1.8095
2845.242 2.115 2.045 2.095 2.395 2.785 2.615 2.215 2.485 2.655 2.515
2864.532 2.585 3.125 3.625 3.675 3.755 4.105 4.075 4.165 4.635 4.875
2883.822 5.375 5.835 5.715 6.075 6.625 6.465 6.485 6.765 6.905 6.935
2903.112 6.625 6.125 6.055 5.815 5.535 5.655 6.265 6.575 6.235 6.405
2922.401 6.725 6.655 6.635 7.225 7.665 8.205 9.165 10.115 10.935 11.925
2941.691 13.275 14.855 16.425 17.655 18.875 19.935 20.605 20.975 21.025 21.355
2960.981 21.655 21.405 21.215 20.555 19.435 18.765 17.765 16.385 15.585 14.795
2980.271 13.715 12.985 12.805 12.045 11.285 10.965 10.595 10.465 10.005 9.605
2999.561 9.165 8.925 9.075 9.055 8.875 8.735 8.805 9.015 9.275 9.515
3018.850 10.235 10.645 10.665 11.405 12.195 12.585 12.875 13.615 14.335 14.225
3038.140 13.575 12.965 12.245 11.495 10.695 9.935 9.695 9.485 9.425 9.375
3057.430 9.705 9.475 8.875 9.095 9.075 8.705 8.375 8.175 7.725 7.225
3076.720 6.795 6.385 6.435 6.625 6.025 5.375 5.365 5.415 5.235 5.145
3096.009 4.995 4.885 5.065 4.675 4.035 3.765 3.545 3.415 3.295 3.235
3115.299 3.215 2.785 2.475 2.735 3.065 2.595 2.175 2.255 2.055 1.975
3134.589 2.285 2.425 2.285 2.095 2.245 2.215 1.8468 1.7017 1.5677 1.6523
3153.879 1.3296 1.1281 1.2419 1.0656 1.3474 1.2257 1.1617 1.6922 1.5814 1.1589
3173.169 0.97251 0.762 0.8756 1.1528 1.3955 1.4063 0.9001 0.92194 0.9484 0.703
3192.458 0.737 1.233 1.4208 0.8 0.8548 1.0301 0.658 0.644 1.01121 0.757
3211.748 0.176 0.489 1.02257 0.98772 0.738 0.572 0.779 1.1286 0.461 0.163
3231.038 0.589 0.761 0.99873 1.1289 1.057 0.618 0.739 1.2471 1.5918 1.542
3250.328 1.2668 1.00619 0.781 1.078 0.8648 0.325 0.575 1.0823 0.96185 0.732
3269.617 1.2781 1.8087 1.4459 1.1552 1.1293 0.778 0.722 1.1962 1.2836 0.8638
3288.907 0.611 0.82 1.0788 0.96008 0.424 0.463 0.807 0.72 0.92217 1.0309
3308.197 0.8592 0.795 0.8489 0.719 0.378 0.397 0.688 0.8815 0.96935 0.97659
3327.487 0.8418 0.8425 1.1399 1.2447 1.2935 1.1304 0.64 0.755 0.703 0.395
3346.777 0.874 1.3818 1.1621 0.8683 0.8587 1.0481 1.186 1.0845 1.00965 0.8875
3366.066 1.02274 0.9005 0.73 1.0715 1.3164 0.96653 0.356 0.662 1.0912 0.783
3385.356 0.565 0.494 0.407 0.562 1.0476 1.1895 1.0414 1.1104 0.762 0.529
3404.646 0.744 0.99648 0.93549 1.0399 1.0576 0.359 0.525 0.723 0.676 0.601
3423.936 0.712 0.97333 1.0575 0.932421 0.67 0.845 1.0306 1.2045 1.0511 0.79
3443.225 1.1848 1.6812 1.559 1.5163 1.4188 1.1518 0.99133 0.91974 1.1829 1.0336
3462.515 1.1511 1.4903 1.1797 1.2187 1.4413 1.3648 1.7157 1.5862 1.3061 2.165
3481.805 2.125 1.8453 2.265 2.365 2.085 2.455 2.955 2.515 2.285 2.415
3501.095 2.535 2.725 2.875 2.815 3.245 3.385 3.045 3.385 3.545 3.035
3520.385 3.045 3.275 2.695 2.245 2.345 2.205 2.295 2.315 2.175 1.985
3539.674 1.7805 1.4744 1.1909 1.5476 1.7756 1.6385 1.5446 1.7981 1.59 1.6079
3558.964 1.975 1.6746 1.5692 1.3773 0.99264 0.97757 1.3747 1.8395 1.5981 1.4167
3578.254 1.7956 1.7104 1.827 1.6964 1.3031 1.5652 1.4231 1.1767 1.2506 1.2892
3597.544 1.1027 1.3639 1.2483 0.824 1.1059 1.0619 1.2014 1.4292 1.3596 0.98567
3616.833 0.52 0.94661 1.226 1.1442 1.0281 0.9084 1.0672 1.361 1.2846 1.5237
3636.123 1.4726 0.76 0.8373 1.0576 1.0801 0.907 0.727 0.8507 0.671 0.539
3655.413 0.554 0.734 0.705 0.508 0.8775 0.822 0.54 0.701 1.2685 1.5467
3674.703 1.2494 0.925706 0.97483 1.0366 0.8301 1.0784 1.1956 1.1222 1.259 1.397
3693.993 1.01768 0.722 1.0537 1.2048 1.1674 1.1099 0.604 0.665 1.3983 1.566
3713.282 1.3699 1.0628 1.0658 1.2097 0.9137 0.51 0.519 1.0327 1.1577 0.549
3732.572 0.593 1.0537 0.94497 0.713 0.713 0.8905 1.4038 1.2702 0.782 0.474
3751.862 0.497 0.95354 1.1835 1.1389 0.8607 0.8509 0.8439 0.746 0.8763 0.98033
3771.152 0.8817 0.97082 1.4871 1.6228 1.3686 0.671 0.397 0.575 0.731 1.1701
3790.441 1.2203 1.0687 0.65 0.587 0.713 0.756 1.1187 1.1687 0.561 0.268
3809.731 0.535 0.625 0.91769 1.1895 0.9529 1.3061 1.9201 1.7529 1.5072 1.1613
3829.021 0.8707 0.687 0.8326 1.1488 1.1477 1.2242 1.2165 1.2641 1.1103 0.94507
3848.311 1.0874 1.0875 0.629 0.8415 1.1941 1.028 1.0253 0.94446 1.1027 0.93256
3867.601 0.781 1.0288 1.0711 0.652 0.351 0.661 0.641 0.48 0.581 0.187
3886.890 0.493 1.1541 1.3505 1.1204 0.805 0.636 0.9491 1.4861 1.2763 0.671
3906.180 0.179 0.525 0.735 1.3185 1.6151 1.4769 1.2445 0.628 0.685 0.571
3925.470 0.819 1.2317 1.2999 1.1099 0.422 0.589 1.094 1.0305 0.583 0
3944.760 0.696 1.2256 1.1068 1.1678 0.8888 1.0301 1.4684 1.975 1.7583 0.764
3964.049 0.437 0.809 0.702 0.8433 1.1101 1.141 1.4812 1.6343 1.3602 0.92346
3983.339 0.667 0.596 0.8313 0.95869 1.2843 1.482 1.2404 1.1322 1.1117 1.1272
##END=
