##TITLE=Heptadecylbenzene
##JCAMP-DX=4.24
##DATA TYPE=INFRARED SPECTRUM
##ORIGIN=NIST Mass Spectrometry Data Center
##OWNER=NIST Standard Reference Data Program
Collection (C) 2018 copyright by the U.S. Secretary of Commerce
on behalf of the United States of America. All rights reserved.
##CAS REGISTRY NO=14752-75-1
##MOLFORM=C 23 H 40
##$NIST SOURCE=MSDC-IR
##SPECTROMETER/DATA SYSTEM=HP-GC/MS/IRD
##STATE=gas
##XUNITS=1/CM
##YUNITS=ABSORBANCE
##XFACTOR=1.0
##YFACTOR=0.000003700
##DELTAX=4.0
##FIRSTX=550.0
##LASTX=3846.0
##FIRSTY=0.001832
##MAXX=3846
##MINX=550
##MAXY=0.037
##MINY=0
##NPOINTS=825
##XYDATA=(X++(Y..Y))
550.0 495 249 75 92 104 117 117 108 69 46
590.0 36 36 41 34 20 23 33 33 47 61
630.0 52 44 37 28 40 48 52 68 83 91
670.0 105 138 190 262 357 505 681 750 671 568
710.0 519 492 482 489 500 524 547 554 533 472
750.0 381 300 245 204 171 153 141 120 109 97
790.0 92 101 79 70 84 86 82 73 64 62
830.0 49 50 57 63 61 55 53 50 58 69
870.0 72 67 62 72 86 89 85 83 91 99
910.0 91 83 76 75 74 66 68 70 67 62
950.0 57 58 69 72 76 86 95 102 106 107
990.0 115 128 134 138 141 150 165 174 190 223
1030.0 236 208 166 134 120 112 105 99 105 104
1070.0 97 88 77 70 73 69 57 55 56 60
1110.0 53 47 48 40 37 41 40 37 37 40
1150.0 32 32 40 37 38 42 48 49 51 52
1190.0 51 52 50 46 47 46 49 44 39 32
1230.0 19 18 25 28 25 31 34 39 44 51
1270.0 57 55 61 73 88 103 114 127 141 154
1310.0 162 167 164 156 156 168 193 231 256 279
1350.0 299 300 289 277 247 221 204 191 175 162
1390.0 141 127 125 118 112 110 119 128 138 156
1430.0 187 240 315 412 517 620 696 747 742 670
1470.0 556 426 337 287 280 324 368 358 267 165
1510.0 125 101 76 64 72 75 66 42 46 64
1550.0 66 54 31 45 62 61 55 68 98 109
1590.0 128 152 176 189 178 136 83 58 52 44
1630.0 38 24 29 29 21 5 1 25 31 25
1670.0 19 23 32 26 22 33 22 6 14 32
1710.0 34 27 25 33 37 32 30 34 37 37
1750.0 34 36 32 30 36 29 27 41 49 56
1790.0 58 66 68 60 50 44 42 40 38 36
1830.0 36 41 38 34 38 44 45 48 51 50
1870.0 49 46 45 46 41 37 35 35 34 32
1910.0 33 36 39 44 51 59 59 59 61 60
1950.0 59 52 42 35 31 30 28 23 23 28
1990.0 30 28 27 29 29 32 31 32 36 34
2030.0 29 35 41 36 34 33 32 30 30 28
2070.0 28 31 30 30 32 29 29 29 28 25
2110.0 21 22 22 22 28 31 32 31 25 25
2150.0 25 23 25 31 29 27 29 25 20 22
2190.0 24 28 33 32 31 33 29 29 27 24
2230.0 25 27 30 28 27 28 28 27 25 25
2270.0 27 29 32 32 29 29 27 28 31 29
2310.0 30 32 31 23 17 15 14 15 18 17
2350.0 14 13 7 1 0 0 2 11 18 17
2390.0 12 17 25 27 28 25 26 25 23 25
2430.0 27 29 28 22 19 21 24 28 25 24
2470.0 20 20 22 22 20 23 28 28 27 32
2510.0 37 36 34 36 36 35 34 39 39 38
2550.0 41 45 41 39 39 43 48 52 51 53
2590.0 54 53 52 54 57 60 63 62 61 63
2630.0 68 74 74 77 86 90 94 91 93 100
2670.0 99 97 99 100 106 106 98 93 92 88
2710.0 88 92 90 84 92 105 112 110 107 111
2750.0 117 119 123 129 138 138 144 163 174 182
2790.0 201 219 235 254 276 301 337 376 421 472
2830.0 544 635 750 938 1242 1734 2464 3270 3722 3568
2870.0 3044 2505 2120 1907 1802 1782 1868 2089 2437 2890
2910.0 3453 4173 5177 6613 8375 9781 10000 8949 7234 5478
2950.0 4063 3106 2534 2230 2034 1790 1464 1143 901 733
2990.0 620 547 497 466 450 440 450 491 556 642
3030.0 707 701 608 499 425 385 378 407 472 558
3070.0 602 553 462 400 358 322 284 251 223 201
3110.0 180 159 132 111 100 91 84 71 67 73
3150.0 74 76 71 68 69 62 58 60 62 66
3190.0 68 67 60 55 59 58 53 54 53 53
3230.0 51 44 46 41 37 39 42 48 49 41
3270.0 37 44 47 45 50 52 50 41 40 42
3310.0 42 40 41 41 43 40 39 39 38 42
3350.0 47 46 42 41 47 42 33 41 39 35
3390.0 37 38 34 35 36 39 40 37 36 36
3430.0 35 38 44 43 36 42 44 38 33 36
3470.0 42 41 38 37 34 35 39 41 38 32
3510.0 32 29 24 37 37 29 28 25 28 37
3550.0 41 38 32 29 36 39 31 33 29 35
3590.0 42 38 37 37 36 44 52 51 42 32
3630.0 42 45 41 42 33 37 46 46 45 35
3670.0 33 24 24 39 34 25 35 45 40 37
3710.0 39 44 51 56 57 51 53 51 38 10
3750.0 0 20 33 33 32 38 54 52 43 37
3790.0 43 53 51 45 46 45 40 38 41 44
3830.0 34 27 37 45 40
##END=
