##TITLE=Indole-2-carboxylic acid
##JCAMP-DX=4.24
##DATA TYPE=INFRARED SPECTRUM
##ORIGIN=EPA-IR VAPOR PHASE LIBRARY
##OWNER=SRD/NIST
Collection (C) 2018 copyright by the U.S. Secretary of Commerce
on behalf of the United States of America. All rights reserved.
##CAS REGISTRY NO=1477-50-5
##MOLFORM=C 9 H 7 N O 2
##$NIST SOURCE=MSDC-IR
##STATE=gas
##XUNITS=1/CM
##YUNITS=ABSORBANCE
##XFACTOR=1.
##YFACTOR=0.001
##DELTAX=3.85796
##FIRSTX=501.5
##LASTX=4000.7
##FIRSTY=8.107
##MAXX=4000.7
##MINX=501.534
##MAXY=0.092157
##MINY=0
##NPOINTS=908
##XYDATA=(X++(Y..Y))
501.534 8.107 9.397 10.887 12.517 14.647 16.897 18.747 20.387 21.637 21.187
540.114 18.627 15.147 11.737 8.997 7.037 6.007 6.667 8.577 9.547 9.737
578.693 8.577 5.567 3.167 2.157 1.877 1.957 2.197 2.347 2.347 2.227
617.273 1.837 1.377 1.1274 0.9768 0.8933 0.9298 0.8956 0.8151 0.7991 0.7968
655.852 0.8081 0.9494 1.437 2.507 4.207 6.377 8.287 9.427 9.347 7.787
694.432 5.857 4.257 2.997 2.307 2.257 2.747 3.857 5.707 8.197 11.517
733.011 15.457 17.677 19.507 20.557 17.837 14.957 13.247 11.857 10.767 10.207
771.591 9.787 8.297 6.777 5.517 4.387 3.617 3.157 2.967 2.957 3.097
810.170 3.367 3.657 4.047 4.257 4.017 3.617 3.337 3.127 3.087 2.997
848.750 2.607 2.317 2.147 1.957 1.937 2.017 2.197 2.447 2.667 2.867
887.330 2.907 2.727 2.507 2.237 2.057 2.087 2.197 2.367 2.617 2.807
925.909 2.977 3.207 3.287 3.317 3.397 3.317 3.127 2.977 2.837 2.757
964.489 2.827 2.867 2.907 3.007 3.067 3.037 2.907 2.787 2.657 2.507
1003.068 2.487 2.547 2.527 2.627 2.737 2.687 2.637 2.627 2.537 2.427
1041.648 2.427 2.527 2.827 3.327 4.057 5.017 6.297 7.587 8.747 9.817
1080.227 10.457 10.917 11.837 13.217 14.137 14.747 15.457 16.167 18.107 21.987
1118.807 28.277 38.047 50.007 62.887 72.957 72.877 64.197 52.327 40.767 34.697
1157.387 33.637 31.917 27.147 20.287 13.967 9.907 7.837 7.547 8.847 10.597
1195.966 11.387 11.507 10.627 8.897 7.757 7.357 7.347 7.587 7.757 7.767
1234.546 7.707 7.377 6.767 6.267 6.027 6.057 6.267 6.577 6.917 6.967
1273.125 6.587 6.117 5.957 6.487 8.197 11.157 14.637 17.397 18.407 17.557
1311.705 15.807 14.307 13.617 13.577 13.777 13.677 12.677 11.767 11.507 11.067
1350.284 10.667 10.427 9.937 9.207 9.167 10.527 12.707 14.687 15.957 15.917
1388.864 14.187 11.687 9.107 7.057 6.177 6.287 7.017 7.827 8.127 7.697
1427.443 6.587 5.147 4.047 3.567 3.347 3.117 2.867 2.507 2.077 1.827
1466.023 1.697 1.627 1.587 1.527 1.497 1.537 1.607 1.777 1.967 2.157
1504.603 2.417 2.837 3.537 4.677 6.197 8.097 10.577 13.787 17.127 20.217
1543.182 21.887 20.647 17.217 12.717 8.307 5.777 5.117 5.247 5.377 5.197
1581.762 4.667 3.747 2.927 2.497 2.297 2.287 2.457 2.817 3.257 3.617
1620.341 3.647 3.337 2.767 2.167 1.837 1.787 1.867 1.967 2.147 2.457
1658.921 2.697 2.837 2.867 2.737 2.537 2.437 2.497 2.657 2.877 3.247
1697.500 3.737 4.187 4.667 5.257 6.057 7.507 10.047 14.257 21.197 33.057
1736.080 52.577 74.817 88.447 92.157 87.967 71.377 56.507 51.777 48.597 43.587
1774.659 35.417 23.187 13.017 7.837 5.187 3.727 2.957 2.577 2.377 2.277
1813.239 2.237 2.247 2.307 2.337 2.207 2.057 1.937 1.807 1.667 1.547
1851.819 1.477 1.367 1.247 1.1622 1.1294 1.2172 1.447 1.777 2.107 2.227
1890.398 2.157 1.927 1.597 1.367 1.267 1.257 1.317 1.397 1.397 1.277
1928.978 1.1062 0.8541 0.6446 0.5349 0.4712 0.4415 0.4196 0.3898 0.3579 0.3371
1967.557 0.303 0.29561 0.27821 0.25745 0.27227 0.31231 0.3433 0.3402 0.33222 0.3319
2006.137 0.32441 0.318 0.3443 0.3556 0.33325 0.3371 0.3691 0.3717 0.3616 0.3758
2044.716 0.3648 0.3515 0.3558 0.3531 0.3635 0.3874 0.4183 0.4495 0.481 0.5192
2083.296 0.5513 0.5608 0.5766 0.5766 0.5391 0.519 0.5135 0.5082 0.5026 0.4874
2121.875 0.4499 0.4081 0.3911 0.3823 0.3676 0.3398 0.31009 0.30529 0.31202 0.3258
2160.455 0.30753 0.28349 0.3046 0.31695 0.30876 0.30323 0.29834 0.27596 0.27692 0.30633
2199.035 0.29584 0.31039 0.32365 0.344 0.3956 0.4475 0.4715 0.4923 0.5199 0.5138
2237.614 0.5205 0.5199 0.5179 0.4976 0.4602 0.4682 0.4931 0.5088 0.5034 0.4728
2276.194 0.4617 0.4739 0.4638 0.4728 0.5129 0.551 0.5739 0.5856 0.628 0.6596
2314.773 0.6671 0.6671 0.6903 0.7145 0.7386 0.7378 0.7041 0.6891 0.6619 0.6438
2353.353 0.6934 0.7901 0.8483 0.8306 0.7804 0.7066 0.6232 0.5519 0.4742 0.4273
2391.932 0.3963 0.3581 0.29961 0.26564 0.3062 0.3274 0.347 0.3744 0.3737 0.347
2430.512 0.3443 0.3645 0.3597 0.3686 0.387 0.3917 0.383 0.3528 0.33243 0.32782
2469.092 0.32692 0.33287 0.33441 0.33534 0.344 0.3923 0.449 0.4606 0.472 0.4887
2507.671 0.5416 0.5928 0.5862 0.5684 0.5042 0.4423 0.429 0.4331 0.4604 0.4908
2546.251 0.4908 0.4731 0.4595 0.4744 0.4989 0.5132 0.5289 0.5502 0.5512 0.5401
2584.830 0.5464 0.5259 0.4765 0.4314 0.4141 0.4032 0.4171 0.4377 0.4016 0.3483
2623.410 0.30842 0.29903 0.29618 0.29573 0.30998 0.31647 0.30297 0.30339 0.29736 0.27162
2661.989 0.30577 0.33178 0.33265 0.3838 0.3925 0.38 0.3821 0.3605 0.3511 0.3644
2700.569 0.3822 0.3693 0.3651 0.3785 0.3524 0.31919 0.32431 0.33257 0.30339 0.28058
2739.148 0.27282 0.27455 0.29607 0.28183 0.29368 0.30561 0.29364 0.30141 0.28375 0.2728
2777.728 0.29099 0.31099 0.29152 0.22703 0.1988 0.1988 0.2095 0.25755 0.29347 0.31958
2816.308 0.3391 0.369 0.3964 0.3821 0.3841 0.4144 0.3867 0.3798 0.4193 0.4215
2854.887 0.4548 0.5169 0.5488 0.5204 0.5106 0.5169 0.4961 0.482 0.5275 0.5313
2893.467 0.453 0.4353 0.4248 0.3936 0.4045 0.4106 0.4037 0.4461 0.4913 0.5571
2932.046 0.6258 0.6856 0.7111 0.7825 0.8203 0.7819 0.794 0.778 0.7521 0.779
2970.626 0.7761 0.7484 0.7497 0.7503 0.7505 0.6985 0.6531 0.6679 0.7063 0.7639
3009.205 0.8628 0.9986 1.1615 1.367 1.637 1.937 2.217 2.447 2.647 2.817
3047.785 3.027 3.407 4.077 5.217 6.737 7.897 8.227 7.777 6.587 5.187
3086.364 4.197 3.447 2.707 2.007 1.437 1.0437 0.7747 0.6341 0.5731 0.4903
3124.944 0.4918 0.5212 0.5075 0.4655 0.4061 0.3419 0.28786 0.29713 0.3503 0.3546
3163.524 0.31697 0.27926 0.27844 0.3446 0.3428 0.28015 0.27278 0.31966 0.3247 0.27402
3202.103 0.23265 0.236162 0.24882 0.2157 0.1628 0.1573 0.1537 0.106 0.13 0.1903
3240.683 0.2048 0.1892 0.2183 0.2193 0.1953 0.194 0.2161 0.30106 0.28588 0.26939
3279.262 0.3415 0.3889 0.4264 0.4413 0.4002 0.32399 0.30496 0.32118 0.28963 0.31171
3317.842 0.32492 0.2817 0.24804 0.1802 0.1632 0.239594 0.26183 0.245408 0.2198 0.1936
3356.421 0.2028 0.1956 0.159 0.1585 0.1852 0.1663 0.1451 0.123 0.123 0.119
3395.001 0.083 0.131 0.1718 0.1659 0.2219 0.26581 0.29359 0.32897 0.4224 0.5617
3433.580 0.6458 0.7554 0.9343 1.2047 1.597 2.047 2.587 3.267 4.237 5.457
3472.160 6.927 8.737 10.937 13.487 15.737 16.417 15.937 14.967 12.697 9.827
3510.740 7.627 6.057 4.317 2.737 1.827 1.267 0.927 0.7765 0.7482 0.6937
3549.319 0.7174 0.8799 1.0457 1.307 2.027 3.667 7.477 15.167 25.557 32.277
3587.899 32.427 27.367 17.077 7.317 2.967 1.587 1.0438 0.7668 0.6252 0.5315
3626.478 0.4905 0.4931 0.4661 0.3967 0.32144 0.31524 0.3376 0.28794 0.2048 0.239118
3665.058 0.30222 0.25065 0.23563 0.29218 0.243522 0.18 0.2174 0.209 0.1867 0.2029
3703.637 0.172 0.091 0.063 0.107 0.1606 0.1408 0.1965 0.30075 0.28337 0.1924
3742.217 0.1592 0.2113 0.1926 0.097 0.04 0.024 0 0.003 0.047 0.026
3780.797 0.049 0.1406 0.134 0.085 0.067 0.095 0.109 0.1456 0.1537 0.106
3819.376 0.074 0.076 0.109 0.046 0.034 0.122 0.1533 0.105 0.113 0.127
3857.956 0.075 0.093 0.127 0.132 0.097 0.083 0.08 0.036 0.065 0.111
3896.535 0.085 0.1469 0.1787 0.13 0.1458 0.1932 0.2143 0.236501 0.26214 0.27278
3935.115 0.27745 0.241782 0.26353 0.239418 0.2026 0.2021 0.1706 0.236283 0.25502 0.126
3973.694 0.022 0.084 0.08 0.04 0.071 0.059 0.044 0.07
##END=
