##TITLE=Thiabendazol
##JCAMP-DX=4.24
##DATA TYPE=INFRARED SPECTRUM
##ORIGIN=NIST Mass Spectrometry Data Center
##OWNER=NIST Standard Reference Data Program
Collection (C) 2018 copyright by the U.S. Secretary of Commerce
on behalf of the United States of America. All rights reserved.
##CAS REGISTRY NO=148-79-8
##MOLFORM=C 10 H 7 N 3 S
##$NIST SOURCE=MSDC-IR
##SPECTROMETER/DATA SYSTEM=HP-GC/MS/IRD
##STATE=gas
##XUNITS=1/CM
##YUNITS=ABSORBANCE
##XFACTOR=1.0
##YFACTOR=0.000001100
##DELTAX=4.0
##FIRSTX=550.0
##LASTX=3846.0
##FIRSTY=0.000444
##MAXX=3846
##MINX=550
##MAXY=0.011
##MINY=0
##NPOINTS=825
##XYDATA=(X++(Y..Y))
550.0 404 682 505 454 475 533 584 513 410 320
590.0 211 168 174 148 164 254 343 379 343 242
630.0 184 166 155 107 58 116 184 164 134 153
670.0 160 143 146 182 224 208 207 241 287 372
710.0 504 811 1429 2537 4344 6317 8421 10000 8843 6905
750.0 5202 3451 2364 1810 1413 1058 799 580 454 422
790.0 467 617 952 1604 2640 3767 4957 5775 5292 4198
830.0 3047 1946 1210 848 708 711 865 1198 1957 3183
870.0 4579 5629 5682 4907 4406 4752 5035 4422 2930 1671
910.0 1154 933 847 847 796 692 647 677 781 863
950.0 882 905 982 1045 1011 898 765 639 564 522
990.0 540 638 802 956 1018 987 945 933 964 996
1030.0 1096 1208 1258 1186 980 763 613 584 612 640
1070.0 751 862 881 861 735 543 387 311 306 322
1110.0 286 227 213 236 219 224 286 512 864 1043
1150.0 1002 790 729 875 918 790 562 366 251 203
1190.0 172 169 209 288 454 741 1087 1311 1297 1084
1230.0 799 584 495 512 656 1055 1722 2753 4423 6373
1270.0 7244 6163 3836 2112 2056 2951 4056 4961 5470 5498
1310.0 5003 4048 3019 2432 2282 2377 2695 3129 3454 3629
1350.0 3894 4115 3888 3030 2052 1631 1870 2782 4310 6105
1390.0 7766 8675 8650 7961 7086 6402 5754 4943 4109 3361
1430.0 2618 2121 2107 2571 3221 3495 3170 2407 1845 1620
1470.0 1577 1686 1951 2448 3256 4136 4565 4211 3246 2175
1510.0 1377 972 740 569 446 381 353 332 317 341
1550.0 406 489 632 844 1087 1354 1516 1464 1253 949
1590.0 679 480 365 337 383 509 704 913 1008 964
1630.0 838 694 570 468 391 360 411 474 462 365
1670.0 256 192 173 168 159 154 106 51 42 66
1710.0 97 103 109 134 121 78 51 59 96 131
1750.0 163 212 245 258 237 177 125 95 80 88
1790.0 120 193 245 227 149 67 34 33 40 48
1830.0 79 127 180 215 216 186 140 113 127 152
1870.0 184 239 277 281 256 189 144 124 112 134
1910.0 205 328 422 419 311 167 71 32 22 23
1950.0 14 13 23 23 5 0 14 23 23 16
1990.0 3 0 1 12 15 11 14 12 11 24
2030.0 30 28 30 47 62 59 42 25 32 29
2070.0 23 22 16 7 13 23 24 31 40 45
2110.0 46 38 35 59 61 55 60 59 64 77
2150.0 81 69 65 71 77 69 67 74 73 75
2190.0 82 84 92 98 100 108 112 107 96 97
2230.0 122 135 124 106 108 110 109 104 90 88
2270.0 94 98 86 65 78 89 90 103 106 105
2310.0 95 97 98 88 78 69 75 77 77 60
2350.0 60 81 89 79 85 111 129 133 126 124
2390.0 124 122 121 115 96 88 94 88 85 98
2430.0 97 94 105 116 126 123 114 119 150 169
2470.0 155 144 137 127 144 156 145 143 165 199
2510.0 220 218 205 179 172 177 169 173 177 161
2550.0 159 179 179 168 169 176 171 159 162 166
2590.0 172 190 205 196 177 153 148 155 135 121
2630.0 126 142 148 150 155 142 135 150 152 153
2670.0 170 178 195 194 186 207 209 207 209 191
2710.0 175 185 190 168 165 169 172 184 181 184
2750.0 196 194 197 198 194 209 232 267 291 310
2790.0 309 304 302 283 270 241 225 207 177 168
2830.0 173 215 245 248 262 243 211 193 188 221
2870.0 243 241 233 232 251 272 287 285 258 244
2910.0 248 237 210 212 234 241 233 229 247 268
2950.0 302 336 330 341 353 365 357 330 310 262
2990.0 244 249 275 309 324 326 340 380 434 538
3030.0 693 909 1115 1293 1469 1721 2080 2433 2770 3237
3070.0 3805 4026 3572 2650 1930 1638 1417 1166 934 702
3110.0 552 545 591 645 714 795 784 710 605 478
3150.0 370 294 238 200 198 211 200 159 174 183
3190.0 183 195 170 169 182 169 166 152 149 159
3230.0 132 159 171 159 155 132 123 111 107 120
3270.0 121 119 108 118 157 163 148 123 122 144
3310.0 126 153 153 130 166 161 138 138 142 145
3350.0 157 167 176 183 190 211 217 214 234 243
3390.0 237 214 211 206 201 216 229 228 237 262
3430.0 287 310 338 428 523 702 916 1157 1628 2336
3470.0 3290 4554 6072 7644 8463 8016 6535 4441 2661 1562
3510.0 939 628 460 350 264 221 236 212 186 177
3550.0 151 167 180 161 150 170 195 210 243 217
3590.0 177 163 167 178 142 110 116 139 149 150
3630.0 98 65 111 117 126 158 166 166 143 121
3670.0 133 160 166 145 136 141 151 174 168 162
3710.0 162 150 167 158 133 168 191 152 110 149
3750.0 162 138 179 209 187 185 200 194 172 135
3790.0 162 196 186 183 167 187 217 199 190 193
3830.0 195 185 165 166 162
##END=
