##TITLE=4-Chromanol
##JCAMP-DX=4.24
##DATA TYPE=INFRARED SPECTRUM
##ORIGIN=EPA-IR VAPOR PHASE LIBRARY
##OWNER=SRD/NIST
Collection (C) 2018 copyright by the U.S. Secretary of Commerce
on behalf of the United States of America. All rights reserved.
##CAS REGISTRY NO=1481-93-2
##MOLFORM=C 9 H 10 O 2
##$NIST SOURCE=MSDC-IR
##STATE=gas
##XUNITS=1/CM
##YUNITS=ABSORBANCE
##XFACTOR=1.
##YFACTOR=0.001
##DELTAX=1.92898
##FIRSTX=549.8
##LASTX=4000.7
##FIRSTY=4.036
##MAXX=4000.7
##MINX=549.759
##MAXY=0.095716
##MINY=0
##NPOINTS=1790
##XYDATA=(X++(Y..Y))
549.759 4.036 3.676 2.646 2.876 3.486 3.086 2.706 2.596 2.326 2.596
569.049 2.216 2.286 2.616 2.396 2.566 2.926 3.506 3.986 4.356 4.506
588.339 4.976 5.926 6.536 7.276 7.706 8.116 8.526 8.176 7.366 6.666
607.628 6.246 5.886 5.486 4.416 3.776 3.956 3.566 3.516 3.896 3.466
626.918 3.176 3.126 2.986 3.156 3.296 3.256 2.756 2.146 1.956 2.026
646.208 2.276 2.236 2.016 2.036 2.086 2.116 2.506 2.666 2.816 2.926
665.498 2.916 2.876 2.696 2.786 2.936 2.766 2.586 2.586 2.626 2.516
684.787 2.266 2.086 1.766 1.666 1.816 2.316 2.706 3.126 3.706 4.266
704.077 4.836 5.806 6.916 7.276 7.756 8.826 9.716 9.796 9.756 9.446
723.367 9.156 9.486 10.406 11.756 13.586 16.536 20.516 25.206 30.466 35.876
742.657 41.226 46.796 54.486 66.176 80.116 84.986 75.286 65.746 60.496 54.906
761.947 49.896 44.686 39.006 32.676 26.226 20.996 16.836 13.386 10.696 8.406
781.236 6.716 5.876 5.206 4.336 3.916 3.966 4.106 4.166 4.316 4.426
800.526 4.576 4.956 5.486 6.466 7.306 8.126 8.556 8.366 8.876 9.936
819.816 10.826 11.596 12.216 12.356 11.876 11.226 10.486 9.976 10.136 10.006
839.106 9.306 8.326 7.636 7.136 6.586 6.446 6.176 6.266 6.826 6.766
858.395 6.326 6.726 7.516 7.916 8.316 9.026 10.426 11.966 13.166 14.826
877.685 16.776 18.176 18.916 19.466 20.116 20.496 20.456 20.116 19.426 18.086
896.975 16.126 14.576 13.566 12.176 10.916 9.776 8.676 7.706 6.836 6.366
916.265 5.826 5.676 5.546 5.616 5.756 5.846 6.016 6.266 7.146 7.676
935.555 7.836 7.776 7.346 7.156 7.156 7.176 7.446 7.596 8.006 9.126
954.844 10.366 11.676 13.546 15.776 17.746 19.826 22.026 23.696 25.466 27.536
974.134 28.916 28.976 27.066 23.966 21.596 19.556 17.406 15.336 13.346 11.836
993.424 10.706 10.066 10.396 11.076 12.176 13.766 16.026 18.926 21.426 23.886
1012.714 26.726 29.726 32.186 33.526 33.986 34.666 34.856 34.216 33.086 32.086
1032.003 32.166 32.256 33.246 34.846 35.756 37.186 39.576 42.756 47.496 52.796
1051.293 58.746 66.446 73.756 79.706 84.936 88.886 90.816 90.896 88.066 83.696
1070.583 79.386 72.236 63.476 53.966 43.646 36.546 32.016 28.486 26.026 24.086
1089.873 22.986 22.186 21.296 20.196 19.266 19.426 20.486 21.206 21.686 23.086
1109.163 26.226 29.306 31.776 33.776 34.326 34.366 34.196 32.506 29.646 26.916
1128.452 24.066 21.146 17.606 14.236 12.156 11.816 12.436 12.606 12.306 12.066
1147.742 12.386 12.766 13.396 14.006 13.666 13.196 13.076 12.326 11.786 12.556
1167.032 13.776 14.456 15.946 18.256 19.686 21.326 23.516 25.486 27.306 29.026
1186.322 31.526 33.686 34.996 36.226 36.586 36.656 37.276 38.166 38.696 39.606
1205.611 42.846 46.676 50.936 56.036 61.746 67.766 74.996 83.306 89.296 93.246
1224.901 94.896 95.716 94.986 91.606 88.366 83.596 77.416 71.126 65.566 61.736
1244.191 58.936 57.446 56.686 57.276 59.356 62.366 66.496 70.396 73.656 75.926
1263.481 75.636 74.346 73.186 70.966 68.386 64.826 59.736 53.846 47.176 41.276
1282.771 37.176 34.616 33.146 32.616 32.596 32.806 33.656 34.576 35.516 36.576
1302.060 37.406 37.536 37.066 36.436 35.466 34.246 32.976 31.786 30.406 28.626
1321.350 26.616 24.896 23.736 23.046 22.706 22.496 22.516 22.856 23.296 23.906
1340.640 24.676 25.586 26.686 27.666 28.616 29.316 29.686 29.956 29.866 29.336
1359.930 28.606 27.676 26.426 25.126 23.966 23.026 22.186 21.446 20.916 20.626
1379.219 20.336 19.936 19.586 19.336 18.766 18.026 17.206 16.306 15.456 14.296
1398.509 13.206 12.246 11.306 10.556 9.886 9.466 9.276 9.196 9.236 9.436
1417.799 9.876 10.406 10.936 11.566 12.276 13.236 14.156 14.866 15.576 16.616
1437.089 18.066 19.776 22.526 26.266 30.916 36.426 41.936 46.626 50.306 52.756
1456.378 54.636 55.846 55.776 54.746 52.866 49.426 45.046 41.736 40.916 42.856
1475.668 47.436 54.476 62.586 70.456 76.986 81.486 83.606 83.756 82.146 78.796
1494.958 73.776 66.826 57.786 47.466 37.546 29.136 22.616 18.006 14.806 12.396
1514.248 10.756 9.676 8.536 7.766 7.116 6.376 5.976 5.476 4.996 4.736
1533.538 4.446 4.106 4.116 4.256 4.136 4.016 4.116 4.206 4.456 4.826
1552.827 5.326 5.966 6.676 7.876 8.766 9.796 11.606 13.626 15.896 18.396
1572.117 21.166 24.206 27.326 30.026 32.196 33.636 34.436 35.026 35.416 35.556
1591.407 35.126 34.176 32.966 32.036 31.826 32.556 33.656 34.396 34.986 34.986
1610.697 34.266 32.846 30.586 27.806 24.706 21.566 18.296 14.936 11.916 9.606
1629.986 7.896 6.566 5.476 4.656 4.066 3.636 3.386 2.956 2.686 2.546
1649.276 2.326 2.406 2.496 2.166 1.966 1.996 1.896 1.846 1.886 1.826
1668.566 1.816 1.906 2.016 2.156 2.196 2.316 2.526 2.656 2.706 2.626
1687.856 2.656 2.626 2.446 2.466 2.546 2.426 2.386 2.376 2.266 2.126
1707.146 2.036 2.016 2.016 2.076 2.156 2.246 2.116 1.836 1.726 1.666
1726.435 1.536 1.516 1.506 1.696 1.736 1.436 1.376 1.396 1.276 1.0916
1745.725 1.226 1.336 1.336 1.406 1.346 1.376 1.386 1.446 1.646 1.726
1765.015 1.746 1.986 2.156 2.226 2.316 2.446 2.706 2.936 3.006 3.016
1784.305 3.176 3.226 3.146 3.116 3.116 2.966 2.786 2.596 2.406 2.326
1803.594 2.046 1.836 1.846 1.816 1.756 1.776 1.896 1.906 1.846 1.826
1822.884 1.806 1.796 1.746 1.636 1.536 1.476 1.366 1.296 1.336 1.346
1842.174 1.406 1.366 1.226 1.266 1.336 1.506 1.596 1.596 1.676 1.776
1861.464 1.816 1.776 1.826 1.886 1.956 1.926 1.826 1.796 1.706 1.726
1880.754 1.856 1.936 2.006 2.176 2.416 2.606 2.796 3.036 3.246 3.516
1900.043 3.576 3.406 3.426 3.466 3.356 3.086 2.796 2.656 2.606 2.696
1919.333 2.696 2.636 2.786 3.026 3.216 3.226 3.356 3.466 3.356 3.276
1938.623 3.136 3.036 2.906 2.666 2.396 2.226 2.076 1.796 1.666 1.676
1957.913 1.686 1.566 1.446 1.396 1.376 1.396 1.316 1.236 1.206 1.206
1977.202 1.226 1.206 1.146 1.136 1.256 1.266 1.146 1.126 1.146 1.126
1996.492 1.246 1.346 1.166 1.0976 1.0649 0.9905 1.126 1.216 1.196 1.246
2015.782 1.276 1.246 1.256 1.286 1.346 1.366 1.486 1.706 1.826 1.786
2035.072 1.716 1.636 1.636 1.666 1.706 1.746 1.746 1.716 1.576 1.566
2054.362 1.616 1.666 1.646 1.526 1.446 1.376 1.416 1.476 1.396 1.266
2073.651 1.206 1.396 1.356 1.206 1.226 1.206 1.226 1.296 1.326 1.196
2092.941 1.136 1.166 1.156 1.176 1.101 1.0373 1.126 1.116 1.0025 0.9727
2112.231 0.8799 0.824 0.8571 0.8394 0.759 0.8103 0.9094 0.8039 0.6987 0.6248
2131.521 0.5707 0.5995 0.7016 0.781 0.7537 0.6512 0.6911 0.6756 0.5176 0.4478
2150.810 0.5274 0.5527 0.4829 0.5592 0.5568 0.4951 0.5795 0.6312 0.6142 0.5819
2170.100 0.5389 0.5109 0.5397 0.6961 0.7278 0.7074 0.6858 0.6509 0.7115 0.6674
2189.390 0.6486 0.7005 0.7584 0.8867 0.8452 0.7465 0.8256 0.8305 0.8809 0.9304
2208.680 0.8081 0.8274 0.9096 0.8989 0.9694 0.9984 0.8891 0.8373 0.8854 0.8827
2227.970 0.9096 0.9567 1.0107 0.986 0.8928 0.9159 0.9057 0.9082 0.8951 0.8621
2247.259 0.8912 0.9227 0.9295 0.9876 0.9432 0.7626 0.7623 0.8251 0.9436 1.0578
2266.549 1.0384 1.0234 0.9788 0.9212 0.9685 1.126 1.136 0.9675 0.9113 0.8561
2285.839 0.8368 0.9914 1.0622 1.0839 1.156 1.146 1.106 1.196 1.196 1.266
2305.129 1.416 1.456 1.376 1.286 1.246 1.256 1.226 1.126 1.216 1.186
2324.418 1.176 1.246 1.186 1.0699 1.0354 1.136 1.186 1.196 1.196 1.226
2343.708 1.306 1.316 1.206 1.106 1.0722 1.116 1.206 1.266 1.326 1.256
2362.998 1.176 1.196 1.0833 1.0141 1.0837 1.116 1.061 1.0746 1.126 1.116
2382.288 1.0751 1.0247 0.8968 0.8993 1.004 0.9151 0.8231 0.8488 0.9188 0.8563
2401.578 0.7046 0.759 0.9283 0.9617 1.001 1.0566 1.0728 1.156 1.286 1.326
2420.867 1.316 1.326 1.296 1.386 1.366 1.336 1.436 1.426 1.606 1.816
2440.157 1.836 1.846 1.916 1.906 1.746 1.576 1.626 1.816 1.756 1.666
2459.447 1.646 1.616 1.546 1.466 1.466 1.336 1.246 1.376 1.406 1.246
2478.737 1.216 1.246 1.146 1.156 1.186 1.0588 0.991 1.0162 0.9845 0.9493
2498.026 0.881 0.9015 0.9749 0.9168 0.8519 0.9317 1.0528 1.126 1.0427 1.0585
2517.316 1.166 1.126 1.0884 1.1036 1.0522 1.0206 1.0129 0.9232 1.0742 1.176
2536.606 1.136 1.136 0.9985 1.0425 1.0829 1.116 1.216 1.166 1.236 1.166
2555.896 1.106 1.256 1.316 1.336 1.396 1.396 1.466 1.496 1.356 1.316
2575.186 1.336 1.316 1.486 1.496 1.296 1.256 1.396 1.356 1.236 1.356
2594.475 1.386 1.326 1.356 1.366 1.406 1.466 1.496 1.666 1.586 1.446
2613.765 1.416 1.346 1.346 1.346 1.376 1.366 1.306 1.396 1.356 1.256
2633.055 1.226 1.276 1.246 1.176 1.276 1.236 1.116 1.1053 1.126 1.0895
2652.345 1.0984 1.136 1.116 1.0888 1.0264 1.0494 1.1047 1.126 1.166 1.206
2671.634 1.176 1.1021 1.236 1.546 1.606 1.406 1.416 1.356 1.276 1.396
2690.924 1.476 1.496 1.446 1.436 1.486 1.506 1.456 1.516 1.626 1.536
2710.214 1.496 1.456 1.506 1.646 1.846 1.956 1.986 2.136 2.266 2.356
2729.504 2.446 2.516 2.556 2.646 2.856 3.026 3.106 3.136 3.036 2.926
2748.794 2.976 2.916 2.706 2.686 2.526 2.606 2.596 2.246 2.116 2.156
2768.083 2.146 1.936 1.856 1.926 1.806 1.696 1.796 1.796 1.876 2.056
2787.373 2.016 1.906 1.996 2.086 2.016 2.076 2.196 2.286 2.306 2.356
2806.663 2.626 2.856 2.896 2.976 3.286 3.296 3.416 3.906 4.186 4.376
2825.953 4.486 4.706 5.136 5.446 5.806 6.176 6.626 7.096 7.516 7.796
2845.242 8.086 8.546 8.926 9.366 9.916 10.576 11.486 12.386 13.366 14.616
2864.532 15.856 17.136 18.716 20.676 22.736 24.796 26.706 28.576 30.426 31.826
2883.822 32.916 34.056 34.866 35.316 35.546 35.146 34.556 33.876 32.826 31.936
2903.112 31.156 30.226 29.176 28.026 26.756 25.846 25.416 25.096 25.056 25.556
2922.401 26.256 26.936 27.876 28.906 30.176 31.816 32.766 32.566 31.656 30.796
2941.691 30.466 30.316 30.516 31.036 31.726 33.156 35.066 37.046 39.146 41.186
2960.981 42.516 42.356 41.546 40.926 40.136 38.776 37.766 37.506 37.696 38.036
2980.271 38.476 38.966 38.846 37.966 36.466 35.006 33.366 30.966 27.756 23.476
2999.561 18.966 15.146 12.016 9.676 8.426 8.006 7.906 7.916 8.176 8.716
3018.850 9.516 10.206 10.766 11.516 12.226 12.786 13.296 13.546 13.916 14.436
3038.140 14.746 14.806 14.646 14.746 14.946 14.966 14.756 14.736 15.076 15.106
3057.430 15.136 15.596 15.876 16.246 17.116 18.156 19.246 20.256 20.996 21.436
3076.720 21.736 21.646 21.116 20.386 19.116 17.516 15.986 14.486 12.816 11.176
3096.009 9.506 7.796 6.306 5.276 4.586 3.936 3.426 3.056 2.906 2.736
3115.299 2.436 2.126 1.856 1.686 1.556 1.456 1.416 1.186 0.8682 0.9119
3134.589 1.116 1.126 0.9909 0.9754 1.0016 0.8462 0.82 0.8537 0.8721 0.9958
3153.879 1.0281 0.8856 0.9532 1.0269 1.0817 1.246 1.0361 0.9474 1.0718 1.106
3173.169 0.841 0.6164 0.7446 0.6096 0.6508 0.6762 0.5183 0.3305 0.2676 0.5515
3192.458 0.8142 0.9981 0.8678 0.6419 0.6201 0.5738 0.6059 0.6186 0.452 0.3479
3211.748 0.4983 0.6278 0.3176 0.12793 0.3278 0.4786 0.575 0.6215 0.5797 0.5767
3231.038 0.4554 0.2609 0.428 0.6328 0.5093 0.3806 0.388 0.4205 0.2145 0.2244
3250.328 0.3683 0.17658 0.3716 0.5038 0.4577 0.3248 0 0.19934 0.3894 0.3674
3269.617 0.4413 0.3443 0.0586 0.0548 0.278 0.3927 0.5881 0.5313 0.2955 0.4187
3288.907 0.6151 0.4436 0.3068 0.2655 0.20124 0.3656 0.4453 0.3992 0.5034 0.3115
3308.197 0.13818 0.2294 0.2684 0.5552 0.6373 0.554 0.6706 0.7352 0.5956 0.375
3327.487 0.354 0.327 0.2363 0.398 0.4407 0.3055 0.5777 0.6501 0.3512 0.3575
3346.777 0.5607 0.6939 0.7013 0.6837 0.7777 0.8882 0.6603 0.5093 0.5051 0.4469
3366.066 0.6408 0.5703 0.439 0.7089 0.6585 0.4972 0.3494 0.389 0.6349 0.6432
3385.356 0.4522 0.5319 0.7366 0.7205 0.6323 0.5739 0.5358 0.6017 0.561 0.4443
3404.646 0.5513 0.3092 0.1574 0.1855 0.3144 0.4463 0.4835 0.7549 0.7123 0.5137
3423.936 0.5274 0.4772 0.4915 0.4797 0.4594 0.6022 0.69 0.6585 0.5785 0.5569
3443.225 0.6202 0.6308 0.6832 0.7088 0.7532 0.5922 0.578 0.6766 0.6509 0.7266
3462.515 0.7219 0.7471 0.7318 0.7089 0.7288 0.6541 0.5644 0.6015 0.5976 0.6926
3481.805 0.9201 0.8698 0.8726 0.9973 0.9601 1.0156 1.136 1.226 1.176 1.0724
3501.095 0.9841 0.9557 0.9285 0.8782 0.8116 0.6565 0.6985 0.9092 0.7601 0.4363
3520.385 0.6108 0.6627 0.5268 0.7484 0.6715 0.4876 0.5651 0.5477 0.4459 0.2727
3539.674 0.5314 0.7955 0.6436 0.5363 0.5109 0.6635 0.8046 0.5068 0.2731 0.4592
3558.964 0.5308 0.6392 0.7024 0.7688 0.7568 0.7172 0.8152 0.6765 0.6043 0.7339
3578.254 0.7713 0.5815 0.3881 0.5034 0.8439 0.8586 0.7225 0.8047 0.8941 0.8901
3597.544 0.9729 1.126 1.126 1.0083 0.9018 1.0666 1.516 1.976 2.236 2.406
3616.833 2.776 3.436 4.236 4.786 5.486 6.456 7.366 8.436 9.456 10.266
3636.123 11.066 12.086 13.146 14.116 15.166 15.506 14.696 13.326 11.726 10.296
3655.413 9.186 8.176 7.046 5.926 4.686 3.626 2.936 2.346 1.826 1.496
3674.703 1.456 1.496 1.296 1.0285 1.0782 1.0896 1.0196 0.9527 0.8871 0.7615
3693.993 0.6354 0.7901 0.9605 0.9781 0.9096 0.5795 0.4644 0.5656 0.6179 0.9495
3713.282 1.106 1.0651 1.0817 0.9971 0.6489 0.5749 0.7802 0.6733 0.644 0.697
3732.572 0.7047 0.6546 0.419 0.4099 0.7328 0.8074 0.7621 0.6871 0.687 0.6599
3751.862 0.7046 0.8787 0.655 0.6807 0.7464 0.72 0.9531 0.9752 0.7571 0.6569
3771.152 0.7402 0.8669 0.993 1.0889 1.0894 0.9527 0.8921 0.8547 0.9666 1.136
3790.441 1.126 1.156 0.8179 0.6817 0.9557 1.116 1.176 1.0359 0.7647 0.7978
3809.731 0.9305 0.833 0.9924 1.276 1.136 0.9955 0.9287 1.146 1.0246 0.6198
3829.021 0.7913 0.9481 0.8983 0.8565 1.023 1.156 1.156 1.0717 1.0554 0.8944
3848.311 0.8181 1.236 1.646 1.276 0.9841 1.0192 0.9142 0.9598 1.093 1.126
3867.601 1.0582 1.236 1.256 1.256 1.166 1.116 1.146 1.0362 0.9735 0.9533
3886.890 1.0124 1.0191 0.9221 0.7622 0.7479 0.8226 0.9451 1.0225 1.296 1.276
3906.180 0.9785 0.9369 0.7691 0.5974 0.6204 0.7111 0.7237 0.4122 0.5573 0.8364
3925.470 0.8004 0.8726 0.7541 0.7747 0.7839 0.5525 0.4099 0.6746 0.6884 0.589
3944.760 0.6434 0.7158 0.6329 0.4838 0.8551 0.9469 0.7958 0.7672 0.6827 0.6145
3964.049 0.6602 0.5053 0.2447 0.2671 0.6168 0.8448 0.4867 0.0895 0.1223 0.379
3983.339 0.604 0.5497 0.6271 0.8245 0.8871 0.7692 0.3023 0.12689 0.20381 0.3846
##END=
