##TITLE=3,4-Dimethyl-1-pentyn-3-ol
##JCAMP-DX=4.24
##DATA TYPE=INFRARED SPECTRUM
##ORIGIN=NIST Mass Spectrometry Data Center
##OWNER=NIST Standard Reference Data Program
Collection (C) 2018 copyright by the U.S. Secretary of Commerce
on behalf of the United States of America. All rights reserved.
##CAS REGISTRY NO=1482-15-1
##MOLFORM=C 7 H 12 O
##$NIST SOURCE=MSDC-IR
##SPECTROMETER/DATA SYSTEM=HP-GC/MS/IRD
##STATE=gas
##XUNITS=1/CM
##YUNITS=ABSORBANCE
##XFACTOR=1.0
##YFACTOR=0.000001400
##DELTAX=4.0
##FIRSTX=550.0
##LASTX=3846.0
##FIRSTY=0.001562
##MAXX=3846
##MINX=550
##MAXY=0.014
##MINY=0
##NPOINTS=825
##XYDATA=(X++(Y..Y))
550.0 1116 836 726 820 946 1065 1021 999 1052 1021
590.0 975 973 1006 1014 1058 1354 1953 2684 3373 4613
630.0 6509 7104 7752 8515 7457 6295 6177 5109 3628 2753
670.0 1985 1367 856 538 407 324 253 175 117 134
710.0 114 74 69 111 84 32 61 88 88 80
750.0 62 62 45 52 69 63 64 22 46 70
790.0 81 94 88 80 31 44 100 89 92 149
830.0 236 332 455 591 661 746 778 704 658 591
870.0 485 424 353 319 394 558 766 1024 1363 1810
910.0 2345 2865 3179 3303 3298 3103 2678 2123 1663 1276
950.0 936 708 550 451 390 362 396 427 468 575
990.0 723 904 1111 1367 1635 1875 2088 2311 2555 2794
1030.0 2915 2874 2814 2800 2748 2706 2724 2792 2908 3041
1070.0 3155 3209 3179 3169 3209 3190 3145 3129 3025 2860
1110.0 2742 2646 2596 2619 2712 2896 3082 3252 3367 3380
1150.0 3358 3265 3098 2900 2706 2551 2428 2289 2156 2020
1190.0 1890 1800 1676 1584 1520 1441 1399 1385 1372 1411
1230.0 1517 1661 1925 2294 2689 3064 3307 3355 3266 3158
1270.0 3010 2818 2669 2600 2528 2455 2482 2570 2594 2578
1310.0 2576 2590 2600 2575 2555 2582 2615 2631 2596 2537
1350.0 2452 2413 2483 2638 2800 3003 3351 3479 3219 2944
1390.0 2624 2119 1634 1281 996 772 633 589 597 618
1430.0 671 768 890 1033 1199 1371 1518 1624 1656 1652
1470.0 1596 1468 1290 1084 883 706 549 412 316 257
1510.0 239 202 186 192 178 158 135 133 121 107
1550.0 119 106 101 92 74 78 80 54 41 62
1590.0 72 51 38 52 56 42 44 54 46 35
1630.0 47 68 66 63 67 62 67 61 57 61
1670.0 54 53 48 36 40 44 49 68 50 38
1710.0 44 42 47 31 30 37 41 38 19 20
1750.0 32 21 2 6 7 7 27 18 1 9
1790.0 24 27 13 7 23 43 42 34 33 35
1830.0 32 41 56 55 48 38 44 46 32 35
1870.0 20 5 19 32 28 15 9 12 25 23
1910.0 6 4 16 25 34 31 24 25 25 27
1950.0 38 43 37 37 36 45 42 37 41 20
1990.0 10 13 20 23 31 31 18 33 41 37
2030.0 45 40 26 30 29 24 34 37 32 34
2070.0 38 33 36 50 65 65 60 58 68 74
2110.0 79 69 52 42 38 38 41 27 21 40
2150.0 41 30 35 46 44 24 23 30 16 29
2190.0 40 28 31 29 26 44 56 52 48 48
2230.0 36 38 41 45 48 45 47 49 45 48
2270.0 68 57 51 71 67 46 51 55 46 46
2310.0 66 77 67 60 66 50 26 41 63 48
2350.0 30 43 70 85 82 69 66 70 69 69
2390.0 76 63 52 70 73 55 50 46 46 58
2430.0 54 49 50 38 42 66 49 48 70 55
2470.0 40 41 39 42 41 42 51 62 59 53
2510.0 56 46 38 32 35 46 33 38 31 15
2550.0 33 40 56 62 40 47 55 41 46 57
2590.0 73 75 68 84 81 70 80 78 74 65
2630.0 60 57 62 72 69 77 81 80 78 82
2670.0 110 118 80 58 69 69 62 57 52 73
2710.0 86 92 92 103 112 101 105 122 142 156
2750.0 146 139 162 170 157 138 133 136 138 138
2790.0 129 125 118 134 178 193 198 242 267 274
2830.0 306 343 358 370 395 465 564 680 867 1142
2870.0 1506 1912 2334 2748 3131 3410 3587 3717 3793 3843
2910.0 3753 3632 3594 3612 3717 3922 4223 4559 4844 5038
2950.0 5237 5579 6128 6846 7870 9113 9748 9897 10000 9505
2990.0 8382 7066 5821 4675 3525 2543 1855 1314 906 685
3030.0 534 429 393 351 316 343 342 306 280 264
3070.0 266 249 228 221 196 190 193 207 208 202
3110.0 173 125 139 179 163 116 131 144 127 132
3150.0 148 157 132 111 154 183 151 126 135 122
3190.0 110 122 129 129 114 93 87 73 66 95
3230.0 107 110 127 151 164 167 177 176 171 212
3270.0 300 405 523 669 863 1134 1437 1702 2135 2714
3310.0 3332 3991 4213 4696 4737 3824 3384 2671 1596 868
3350.0 482 371 303 233 185 138 103 103 121 78
3390.0 41 61 58 40 54 59 44 54 58 17
3430.0 18 77 90 64 74 88 86 71 52 49
3470.0 69 72 73 102 117 106 71 73 74 20
3510.0 14 36 77 93 43 26 34 39 28 36
3550.0 42 19 38 43 37 37 41 60 56 61
3590.0 84 76 62 65 103 145 202 332 484 759
3630.0 1095 1417 1638 1855 2011 1711 1338 1053 755 477
3670.0 258 180 128 78 87 82 37 16 29 43
3710.0 20 1 9 18 2 14 36 19 1 1
3750.0 1 1 1 1 3 18 11 6 1 0
3790.0 6 25 10 8 31 35 34 18 2 1
3830.0 1 1 1 1 1
##END=
