##TITLE=2,5-Dimethoxythiophenol
##JCAMP-DX=4.24
##DATA TYPE=INFRARED SPECTRUM
##ORIGIN=EPA-IR VAPOR PHASE LIBRARY
##OWNER=SRD/NIST
Collection (C) 2018 copyright by the U.S. Secretary of Commerce
on behalf of the United States of America. All rights reserved.
##CAS REGISTRY NO=1483-27-8
##MOLFORM=C 8 H 10 O 2 S
##$NIST SOURCE=MSDC-IR
##STATE=gas
##XUNITS=1/CM
##YUNITS=ABSORBANCE
##XFACTOR=1.
##YFACTOR=0.001
##DELTAX=1.92898
##FIRSTX=549.8
##LASTX=4000.7
##FIRSTY=2.063
##MAXX=4000.7
##MINX=549.759
##MAXY=0.125383
##MINY=0
##NPOINTS=1790
##XYDATA=(X++(Y..Y))
549.759 2.063 2.353 1.8988 1.7102 1.4711 1.7312 2.243 1.5957 1.4325 2.303
569.049 2.783 3.353 3.503 3.093 2.903 2.793 2.953 2.813 2.683 2.933
588.339 2.553 3.023 3.013 2.283 2.793 2.853 2.283 2.863 3.823 3.543
607.628 2.903 2.523 2.943 2.733 2.423 2.693 3.153 3.033 2.473 2.213
626.918 1.6907 2.203 2.613 2.143 1.8695 1.8601 1.8373 1.4677 1.6453 2.043
646.208 1.8436 2.053 1.8879 1.6347 1.8242 1.5475 1.03777 0.63 1.0985 1.983
665.498 2.243 2.243 2.303 2.353 2.593 2.643 2.723 2.943 2.983 3.223
684.787 3.443 3.413 3.323 3.023 3.273 3.673 3.563 3.673 3.933 3.823
704.077 4.003 4.523 4.943 5.803 7.193 8.613 9.683 10.633 12.183 13.543
723.367 14.023 14.483 15.163 15.693 15.173 14.223 13.953 12.883 11.513 10.613
742.657 9.593 9.013 7.723 6.273 5.873 5.563 4.603 3.953 3.963 3.873
761.947 3.483 2.833 2.533 2.603 3.083 3.593 3.663 3.653 3.573 4.303
781.236 5.093 5.243 5.983 6.643 7.033 7.633 8.733 9.713 10.053 10.583
800.526 10.793 10.643 10.743 11.033 10.723 9.943 9.133 8.343 7.563 7.223
819.816 6.103 4.733 4.153 4.473 5.543 5.473 5.713 6.233 6.343 6.363
839.106 6.263 6.973 7.733 7.933 7.893 7.833 7.763 7.853 8.283 8.733
858.395 9.063 9.073 9.063 9.543 9.943 10.433 10.693 10.243 10.293 10.493
877.685 10.153 10.073 10.013 9.723 9.003 7.653 6.803 6.143 5.423 4.633
896.975 3.973 3.803 3.493 2.983 3.013 3.223 3.273 3.533 3.393 3.493
916.265 3.313 3.063 3.173 3.233 3.303 3.063 3.163 3.063 3.023 3.163
935.555 2.813 2.873 3.203 2.863 2.693 2.943 2.553 2.403 2.253 2.203
954.844 2.523 2.163 2.343 2.823 2.463 2.083 2.513 2.813 2.853 3.203
974.134 3.513 3.903 4.473 5.073 5.553 5.743 5.743 5.773 6.053 5.843
993.424 6.093 7.633 9.033 9.533 9.633 10.413 12.093 13.613 13.943 15.303
1012.714 17.493 18.423 20.463 21.763 22.023 24.053 25.983 27.803 29.653 31.333
1032.003 33.723 36.943 39.933 41.933 43.693 45.903 47.343 48.393 48.493 46.533
1051.293 44.793 42.643 39.883 38.463 35.883 32.913 31.233 29.523 27.873 27.083
1070.583 26.793 25.423 24.173 21.753 19.323 18.203 16.023 14.743 13.093 10.213
1089.873 8.383 6.963 7.083 6.663 5.383 5.753 5.533 4.653 3.943 4.203
1109.163 6.113 7.223 5.233 4.513 5.863 5.683 6.363 7.603 7.393 7.113
1128.452 7.373 8.153 8.943 8.893 8.493 8.663 8.813 9.113 9.083 8.383
1147.742 7.793 7.293 7.523 7.673 7.193 7.083 8.223 9.733 11.193 11.863
1167.032 12.173 13.383 15.283 16.413 17.713 19.113 19.573 20.183 20.203 20.003
1186.322 19.373 19.423 20.303 20.733 20.763 21.943 24.593 28.363 33.043 37.993
1205.611 46.033 55.923 67.203 79.433 89.703 97.273 104.453 109.873 110.213 107.433
1224.901 101.543 92.033 82.413 72.073 60.383 51.823 45.963 40.513 35.473 32.923
1244.191 31.323 30.113 29.743 29.363 29.653 30.153 31.993 34.233 35.823 38.183
1263.481 40.393 42.223 43.213 43.413 42.793 41.693 40.733 38.173 35.323 33.033
1282.771 30.313 27.743 25.633 23.583 21.803 20.533 19.243 17.533 16.073 15.013
1302.060 13.763 12.413 11.213 10.203 9.413 8.903 8.353 7.583 6.823 6.463
1321.350 6.103 5.663 5.343 4.963 4.763 4.503 4.223 4.073 3.853 3.773
1340.640 3.633 3.583 3.543 3.373 3.423 3.483 3.353 3.203 3.243 3.223
1359.930 3.263 3.393 3.303 3.263 3.263 3.283 3.543 3.703 3.853 4.153
1379.219 4.433 4.863 5.323 5.953 6.833 7.553 8.163 8.833 9.413 9.973
1398.509 10.563 10.683 10.583 10.633 10.423 10.233 10.123 10.003 10.183 10.543
1417.799 10.993 11.553 12.393 13.653 15.183 16.723 18.653 21.143 23.583 25.763
1437.089 27.823 29.343 30.083 30.163 29.683 28.883 27.833 26.553 25.483 25.123
1456.378 25.403 26.353 28.023 30.263 32.533 34.713 37.093 39.643 42.873 47.173
1475.668 52.423 59.203 67.653 78.013 89.833 101.873 112.853 121.163 125.383 125.293
1494.958 120.933 112.303 100.033 85.743 70.313 55.633 42.663 32.553 25.643 20.503
1514.248 16.883 14.303 12.163 10.693 9.503 8.563 7.983 7.333 6.873 6.633
1533.538 6.333 6.133 6.203 6.013 5.793 5.763 5.773 5.963 6.163 6.523
1552.827 6.773 6.893 7.073 7.613 8.263 8.353 8.333 8.823 9.513 10.013
1572.117 10.763 11.783 12.673 13.293 13.943 14.903 16.003 16.593 16.993 17.733
1591.407 18.223 18.353 18.593 18.433 17.933 17.413 16.333 15.113 14.033 12.743
1610.697 11.413 10.153 9.223 8.213 7.273 6.763 6.113 5.613 5.083 4.613
1629.986 4.443 4.273 3.993 3.743 3.753 3.853 3.743 3.393 3.283 3.353
1649.276 3.103 3.203 3.483 3.343 3.243 3.023 2.893 3.063 3.093 2.953
1668.566 2.793 2.833 2.843 2.573 2.563 2.653 2.643 2.653 2.673 2.583
1687.856 2.463 2.413 2.603 2.473 2.213 2.063 1.8095 1.953 2.133 2.333
1707.146 2.393 2.273 2.133 2.063 2.113 2.233 2.463 2.593 2.623 2.393
1726.435 2.193 2.333 2.533 2.393 2.203 2.193 2.203 2.243 2.173 2.233
1745.725 2.163 1.983 2.063 2.223 2.173 1.963 1.983 2.103 2.223 2.293
1765.015 2.193 2.063 2.153 2.063 1.973 1.9373 1.8453 1.953 2.043 2.013
1784.305 1.9322 1.9345 1.914 1.817 1.7447 1.8346 1.934 1.879 1.953 2.093
1803.594 1.963 1.8672 1.8522 1.8721 1.8873 1.973 2.153 2.123 2.123 2.143
1822.884 2.013 1.943 1.943 1.822 1.7928 1.8812 1.9023 1.8052 1.7295 1.814
1842.174 1.8368 1.7962 1.702 1.6743 1.7739 1.862 1.8503 1.7806 1.8107 1.7935
1861.464 1.699 1.6108 1.5488 1.6888 1.704 1.4668 1.4908 1.6256 1.5675 1.5304
1880.754 1.5788 1.6104 1.5385 1.4892 1.4606 1.5159 1.6327 1.6289 1.6828 1.7633
1900.043 1.6787 1.7158 1.7356 1.6729 1.7642 1.8522 1.871 1.7972 1.8224 1.8376
1919.333 1.7679 1.7528 1.7411 1.6678 1.6377 1.7003 1.6934 1.7073 1.738 1.8616
1938.623 1.8906 1.8468 1.9056 1.9423 1.953 1.9151 1.9058 2.063 2.213 2.213
1957.913 2.123 2.053 2.123 2.113 2.183 2.333 2.233 2.163 2.363 2.423
1977.202 2.403 2.453 2.473 2.483 2.473 2.473 2.363 2.353 2.403 2.533
1996.492 2.613 2.393 2.273 2.433 2.403 2.373 2.493 2.483 2.403 2.423
2015.782 2.283 2.283 2.423 2.433 2.343 2.203 2.483 2.503 2.123 2.053
2035.072 2.133 2.193 2.363 2.423 2.353 2.423 2.423 2.353 2.353 2.213
2054.362 2.253 2.473 2.453 2.343 2.353 2.463 2.643 2.633 2.503 2.433
2073.651 2.433 2.433 2.483 2.553 2.473 2.583 2.663 2.503 2.633 2.663
2092.941 2.623 2.663 2.603 2.583 2.483 2.363 2.273 2.223 2.313 2.313
2112.231 2.063 1.7158 1.5252 1.6004 1.6694 1.7128 1.6866 1.5405 1.5796 1.7561
2131.521 1.6611 1.5215 1.5259 1.4488 1.5127 1.6562 1.5092 1.4645 1.4661 1.5232
2150.810 1.724 1.6189 1.3915 1.3563 1.547 1.5795 1.4532 1.4966 1.4219 1.3469
2170.100 1.3067 1.3238 1.4325 1.3765 1.3149 1.3252 1.3271 1.1188 1.1129 1.2059
2189.390 1.1458 1.1964 1.237 1.3611 1.479 1.4345 1.4012 1.3781 1.3277 1.4808
2208.680 1.6267 1.539 1.5795 1.4256 1.2806 1.4124 1.214 1.3508 1.5109 1.3015
2227.970 1.3445 1.4501 1.3367 1.3284 1.4976 1.4362 1.3726 1.3252 1.3882 1.4003
2247.259 1.2187 1.1981 1.3246 1.4213 1.3506 1.392 1.403 1.3835 1.3508 1.2256
2266.549 1.2567 1.2162 1.1563 1.1021 1.2271 1.325 1.2609 1.2798 1.2274 1.2606
2285.839 1.3077 1.1934 1.307 1.4844 1.374 1.3169 1.3763 1.2757 1.2556 1.3404
2305.129 1.1856 1.2778 1.3359 1.0949 1.01063 1.2371 1.4713 1.381 1.1815 1.212
2324.418 1.0798 1.03746 1.2998 1.2423 1.218 1.3991 1.4851 1.3071 1.2437 1.2444
2343.708 1.00015 1.2106 1.4686 1.3314 1.4796 1.6448 1.5105 1.3202 1.2721 1.3725
2362.998 1.4034 1.3431 1.2407 1.3234 1.4777 1.2726 1.2369 1.2801 1.338 1.3469
2382.288 1.1631 1.1102 1.0588 1.0634 1.2177 1.2508 1.2886 1.2595 0.97607 1.1643
2401.578 1.5491 1.4757 1.399 1.1818 0.9955 1.1707 1.1599 0.94377 0.8737 0.93487
2420.867 1.02044 1.02437 1.1032 1.2423 1.1253 1.2317 1.4664 1.5725 1.4604 1.2753
2440.157 1.2062 1.1716 1.334 1.5096 1.4703 1.289 1.2435 1.4409 1.5689 1.6776
2459.447 1.7042 1.6356 1.7572 1.7405 1.6735 1.571 1.6237 1.7849 1.7909 1.9051
2478.737 1.6935 1.595 1.8309 1.5533 1.3498 1.4741 1.5576 1.788 1.8655 1.808
2498.026 1.918 1.8615 1.687 1.6263 1.6323 1.7348 1.973 1.8722 1.5658 1.6955
2517.316 1.7692 1.5892 1.6272 1.8583 1.8292 1.6826 1.5921 1.5076 1.6605 1.5848
2536.606 1.5151 1.5735 1.3809 1.2103 1.3297 1.4359 1.2953 1.2574 1.0916 1.2322
2555.896 1.4919 1.4488 1.4697 1.6443 1.4069 1.2432 1.4652 1.4841 1.5403 1.5885
2575.186 1.6395 1.6017 1.6703 1.953 2.193 2.263 2.273 2.433 2.753 3.053
2594.475 3.243 3.253 3.043 3.073 3.133 3.083 3.133 2.893 2.513 2.283
2613.765 2.043 1.8333 1.6095 1.5775 1.6389 1.6442 1.6604 1.641 1.4664 1.309
2633.055 1.3839 1.3865 1.5407 1.8754 1.7936 1.4552 1.4914 1.4605 1.503 1.3265
2652.345 1.0935 1.2529 1.2543 1.318 1.3202 1.0902 1.0835 1.247 1.4424 1.5683
2671.634 1.4273 1.2487 1.00033 1.1856 1.4193 1.0545 0.892 0.9274 1.249 1.4276
2690.924 1.1451 1.2017 1.2313 1.2409 1.3213 1.2018 1.2784 1.1589 0.947057 1.2626
2710.214 1.522 1.4112 1.2047 1.5544 1.6286 1.33 1.4102 1.2293 1.1575 1.2119
2729.504 1.4145 1.6491 1.5828 1.6588 1.5836 1.541 1.549 1.3065 1.3535 1.4445
2748.794 1.3479 1.305 1.4357 1.6766 1.7156 1.7573 1.963 1.8438 1.9117 2.063
2768.083 1.973 1.8223 1.8432 1.953 1.993 2.123 2.153 2.203 2.253 2.503
2787.373 2.463 2.493 2.733 2.673 2.723 2.923 3.203 3.633 3.953 3.753
2806.663 3.853 4.323 4.583 4.553 4.913 5.603 5.973 6.363 7.183 7.853
2825.953 8.503 9.543 10.923 12.403 13.983 15.823 17.003 17.703 18.553 18.843
2845.242 18.263 17.613 16.623 15.673 14.563 13.053 12.153 11.303 9.983 8.973
2864.532 8.393 7.793 7.663 7.793 7.853 7.443 7.153 7.453 7.693 7.933
2883.822 8.173 8.193 8.243 8.713 9.173 9.683 9.983 10.263 11.143 12.093
2903.112 12.963 13.753 14.253 14.673 15.153 15.713 16.153 16.633 16.823 16.833
2922.401 17.143 16.893 16.583 16.873 17.463 18.683 20.173 21.703 23.483 25.493
2941.691 27.253 28.703 29.773 30.103 30.423 29.973 28.853 27.883 26.243 24.153
2960.981 22.233 20.413 19.003 17.783 16.453 15.323 14.403 13.563 12.923 12.183
2980.271 11.953 11.853 11.533 11.993 12.813 13.543 14.613 16.293 17.943 19.343
2999.561 20.763 22.213 23.173 23.553 23.183 21.743 20.093 18.593 16.373 14.013
3018.850 11.843 10.183 8.873 7.683 7.233 6.943 6.453 6.093 5.933 5.823
3038.140 5.693 5.623 5.473 5.233 5.393 5.663 5.783 5.583 5.183 5.153
3057.430 5.513 5.663 5.583 5.693 5.693 5.273 5.053 5.103 5.123 5.343
3076.720 5.593 5.653 5.953 6.043 5.193 4.873 5.223 5.243 4.973 4.553
3096.009 4.303 3.843 3.483 3.653 3.743 3.493 3.173 2.983 2.913 2.703
3115.299 2.393 2.283 2.323 1.953 1.905 2.113 1.8147 1.707 1.7932 2.063
3134.589 2.023 1.8728 2.043 1.9357 1.6558 1.7889 1.943 1.7904 1.4427 1.1228
3153.879 1.4912 1.9016 2.173 1.8314 1.1991 1.4393 1.609 1.5818 1.6592 1.5196
3173.169 1.5962 1.8037 1.5352 1.4961 1.7903 1.7148 1.1272 0.771 1.1136 1.6455
3192.458 1.6979 1.4936 0.96985 0.8898 1.4453 1.2778 1.3774 1.3872 1.3732 1.264
3211.748 0.763 0.609 0.98315 1.4722 0.929 0.554 0.8553 0.8818 0.9084 1.3506
3231.038 1.4801 1.1285 1.2143 1.4216 1.04228 1.0844 1.6383 1.6576 1.41 1.3941
3250.328 1.271 1.439 1.3366 0.634 0.763 1.01009 1.00866 1.01937 1.00387 0.93674
3269.617 0.8783 1.162 1.1895 1.01928 0.745 0.513 0.598 0.554 0.495 0.738
3288.907 1.0635 1.244 1.3855 0.98639 0.606 0.98165 1.0667 0.701 0.61 0.651
3308.197 0.97479 1.3783 1.1136 1.01689 1.2211 0.99887 0.642 0.795 0.631 0.586
3327.487 0.9626 0.394 0.361 0.8976 0.93866 0.93437 0.834 0.766 0.99268 1.2582
3346.777 1.3002 1.2309 1.3004 1.428 1.01559 0.818 0.819 0.905 0.93521 0.641
3366.066 0.302 0.41 0.732 0.377 0.261 0.843 1.0804 0.831 0.951467 0.646
3385.356 0.552 0.81 0.802 0.96236 0.97504 0.623 0.604 0.841 0.663 0.46
3404.646 0.405 0.615 1.03335 0.96673 0.484 0.588 0.8505 0.825 1.2734 1.6001
3423.936 1.1113 0.8962 1.00827 1.2441 1.2649 1.3701 1.3453 0.9233 0.757 0.616
3443.225 0.783 1.0965 0.95435 0.776 0.535 0.577 0.665 0.503 0.9086 1.0431
3462.515 0.96116 1.0636 0.9296 0.93799 1.0788 1.01172 1.2425 1.4377 1.0492 0.952064
3481.805 0.767 0.591 1.0551 1.4436 1.4982 1.5271 1.6675 1.8328 1.7016 1.4077
3501.095 1.3593 1.4678 1.6371 1.5637 1.2378 1.3483 1.4467 1.1089 1.0969 1.1012
3520.385 1.3739 1.5295 1.3693 1.1952 1.0651 1.2175 1.1788 1.1061 1.268 1.2275
3539.674 1.0541 1.1599 1.094 0.596 0.739 0.96905 1.1013 1.0528 0.454 0
3558.964 0.459 1.1269 0.9211 0.449 0.39 0.718 1.0887 1.1478 1.1754 1.3416
3578.254 1.1319 0.8963 0.722 0.602 0.698 0.775 1.0789 1.1597 0.8463 0.946171
3597.544 0.98963 0.946667 0.765 0.595 0.584 1.03972 1.3217 1.1952 1.3453 1.2319
3616.833 1.2735 1.2865 1.1817 1.3075 1.3378 1.315 1.4454 1.0709 0.8897 0.656
3636.123 0.151 0.322 0.556 0.662 0.692 0.58 0.434 0.9141 1.1351 0.9261
3655.413 1.0985 0.762 0.725 1.1601 0.998 0.679 0.306 0.287 0.718 0.8574
3674.703 0.95934 0.679 0.8897 1.3742 1.3891 1.8801 1.983 1.2955 0.504 0.243
3693.993 0.714 0.507 0.403 0.65 0.447 0.683 0.454 0.349 0.703 0.815
3713.282 0.827 0.527 0.792 0.699 0.375 0.766 0.9282 0.9138 0.77 0.587
3732.572 0.758 1.0898 1.699 1.8428 0.98691 0.753 1.1524 1.1076 0.96021 1.1446
3751.862 1.2313 1.0694 0.777 0.8898 0.74 0.515 0.418 0.518 0.9594 1.03462
3771.152 1.1872 1.2368 1.3545 1.5082 0.95614 0.363 0.506 0.527 0.443 0.59
3790.441 0.484 0.511 0.659 0.688 1.04019 0.795 0.48 0.9165 1.3555 1.2722
3809.731 0.947694 1.01174 1.03736 0.8921 1.1287 1.312 0.8673 1.00267 1.3537 1.0464
3829.021 0.68 0.656 0.776 0.719 0.746 0.9318 1.0675 1.2073 1.1716 1.1497
3848.311 1.3489 0.8804 0.427 0.732 0.645 0.361 0.635 0.763 1.1172 1.2698
3867.601 1.1362 1.3962 1.3224 1.4721 1.6698 1.1127 0.631 0.784 0.663 0.596
3886.890 1.02251 1.2647 1.4001 1.0796 0.762 1.1288 1.1436 1.2978 1.4157 1.0663
3906.180 0.96519 1.02969 0.9089 0.792 0.9112 0.663 0.305 0.8446 1.2931 0.8508
3925.470 0.741 0.834 0.8901 0.96069 0.8607 0.79 0.541 0.542 1.01362 1.1166
3944.760 1.1845 1.1424 1.3387 1.5747 1.6216 1.8013 1.5223 1.5956 1.7164 1.1765
3964.049 1.0183 0.9306 0.454 0.461 0.545 0.276 0.449 0.807 0.708 0.9316
3983.339 1.3992 1.174 0.782 0.714 1.00168 1.2506 0.768 0.685 0.711 1.0086
##END=
