##TITLE=2-Heptynoic acid
##JCAMP-DX=4.24
##DATA TYPE=INFRARED SPECTRUM
##ORIGIN=EPA-IR VAPOR PHASE LIBRARY
##OWNER=SRD/NIST
Collection (C) 2018 copyright by the U.S. Secretary of Commerce
on behalf of the United States of America. All rights reserved.
##CAS REGISTRY NO=1483-67-6
##MOLFORM=C 7 H 10 O 2
##$NIST SOURCE=MSDC-IR
##STATE=gas
##XUNITS=1/CM
##YUNITS=ABSORBANCE
##XFACTOR=1.
##YFACTOR=0.001
##DELTAX=1.92898
##FIRSTX=549.8
##LASTX=4000.7
##FIRSTY=3.124
##MAXX=4000.7
##MINX=549.759
##MAXY=0.168354
##MINY=0
##NPOINTS=1790
##XYDATA=(X++(Y..Y))
549.759 3.124 2.974 2.904 2.824 2.804 2.814 2.784 2.914 3.174 3.054
569.049 2.654 2.594 2.724 2.364 2.544 2.634 2.394 2.444 2.494 2.554
588.339 3.034 3.784 4.094 4.424 5.464 5.694 5.664 6.304 7.414 8.684
607.628 10.544 12.944 15.494 18.294 24.584 32.824 34.544 37.584 44.454 51.604
626.918 60.734 72.804 88.484 98.344 91.894 81.064 75.954 69.544 60.874 52.814
646.208 48.794 44.904 37.634 31.234 26.834 22.474 19.394 15.954 15.034 12.694
665.498 27.364 101.704 96.724 30.884 16.524 13.404 13.744 14.094 14.374 14.784
684.787 14.974 14.604 16.404 15.894 13.444 12.354 11.334 10.164 9.304 8.614
704.077 8.124 7.384 6.424 5.814 5.364 4.994 4.724 7.234 12.124 8.544
723.367 3.394 3.074 2.814 2.954 2.914 2.954 3.254 3.564 3.934 4.774
742.657 4.264 3.354 3.414 3.414 3.364 3.414 3.304 3.134 3.124 2.794
761.947 2.574 2.574 2.544 2.484 2.454 2.054 1.894 1.934 1.704 1.704
781.236 1.594 1.1926 1.244 1.214 1.086 1.464 1.374 1.0735 1.314 1.304
800.526 0.9934 0.7262 0.7462 0.8418 0.7513 0.707 0.7749 0.7185 0.6934 0.7824
819.816 0.7844 0.8013 0.9524 0.9718 0.754 0.6169 0.6106 0.6202 0.6122 0.6812
839.106 0.7188 0.7463 0.6413 0.4036 0.5462 0.5982 0.4741 0.511 0.5087 0.29001
858.395 0.25302 0.4727 0.3807 0.3607 0.4089 0.4114 0.4117 0.5949 0.6692 0.7624
877.685 0.8575 0.7491 0.4755 0.217894 0.6503 0.7383 0.6611 0.8316 0.7097 0.6017
896.975 0.5477 0.6448 0.704 0.6902 0.8778 1.0528 1.0038 0.9422 1.069 1.0971
916.265 0.845 0.8042 1.1339 1.324 1.0838 1.0674 1.224 1.1096 1.224 1.324
935.555 1.1196 1.0618 0.9792 0.8742 0.8979 0.9831 1.1316 1.0507 0.8043 0.6907
954.844 0.6516 0.4402 0.3656 0.439 0.4169 0.4814 0.5216 0.5461 0.6544 0.5497
974.134 0.21056 0.29604 0.4614 0.5828 0.6185 0.6975 0.9321 0.8485 0.578 0.4786
993.424 0.6069 0.522 0.5142 0.6525 0.8507 0.8738 0.916 1.0254 1.0604 0.7138
1012.714 0.7723 1.384 1.334 0.8198 0.6892 0.8677 1.0306 1.0199 0.9796 1.544
1032.003 1.524 1.1753 1.304 1.534 1.694 1.714 1.784 1.804 1.984 1.854
1051.293 1.784 1.794 1.914 1.764 1.444 1.524 1.424 1.304 1.484 1.954
1070.583 2.234 2.364 1.954 1.304 1.07 1.534 2.094 2.114 2.134 1.804
1089.873 1.474 1.454 1.1012 1.1056 1.704 1.964 1.954 1.984 1.714 1.464
1109.163 1.844 2.504 2.304 1.774 1.294 1.1751 1.804 2.204 1.914 1.764
1128.452 2.134 2.044 1.784 1.634 2.254 3.124 3.204 2.874 2.944 3.474
1147.742 3.634 4.294 4.994 5.224 6.394 7.434 7.624 8.364 9.014 9.084
1167.032 8.724 8.284 8.044 7.484 6.834 5.664 4.374 3.424 3.004 2.974
1186.322 2.594 2.434 2.554 2.714 2.484 1.994 1.814 2.164 2.334 1.934
1205.611 2.174 2.644 2.594 2.604 3.214 3.584 4.054 4.484 4.144 4.014
1224.901 5.124 5.844 6.944 9.164 10.894 12.534 14.384 16.434 17.654 17.954
1244.191 17.864 17.754 17.914 18.294 18.744 18.714 18.164 17.384 16.384 14.794
1263.481 12.334 9.944 8.164 6.894 6.134 5.394 5.134 5.044 4.964 4.924
1282.771 4.814 4.964 5.064 5.114 5.274 5.344 5.434 5.584 5.614 5.664
1302.060 5.694 5.784 5.864 5.874 5.774 5.674 5.644 5.514 5.354 5.234
1321.350 5.224 5.124 4.934 4.944 4.914 4.804 4.834 4.794 4.684 4.614
1340.640 4.474 4.254 4.054 3.914 3.884 3.904 3.944 4.134 4.364 4.534
1359.930 4.634 4.734 4.824 4.824 4.794 4.724 4.514 4.294 4.164 4.044
1379.219 3.904 3.834 3.804 3.644 3.564 3.624 3.684 3.624 3.524 3.344
1398.509 3.074 2.854 2.654 2.604 2.604 2.554 2.534 2.594 2.794 2.944
1417.799 3.174 3.484 3.694 3.974 4.414 4.884 5.344 5.754 6.164 6.534
1437.089 6.874 7.324 7.644 7.824 8.094 8.374 8.644 8.804 8.884 8.844
1456.378 8.614 8.524 8.464 8.384 8.264 8.004 7.604 7.174 6.854 6.514
1475.668 6.174 5.944 5.574 5.074 4.624 4.224 3.894 3.554 3.214 2.994
1494.958 2.754 2.424 2.254 2.064 1.864 1.704 1.534 1.484 1.404 1.234
1514.248 1.0186 0.9272 0.9301 0.8718 0.8902 0.9568 0.9315 0.8676 0.9023 0.9127
1533.538 0.8896 0.8006 0.6062 0.5648 0.7138 0.8006 0.7678 0.7603 0.7077 0.6962
1552.827 0.5939 0.4748 0.5386 0.6041 0.6615 0.5914 0.5062 0.5387 0.5575 0.6133
1572.117 0.6404 0.5778 0.5828 0.6663 0.6703 0.5969 0.5196 0.6041 0.6544 0.6296
1591.407 0.6088 0.5368 0.5885 0.5539 0.5447 0.5525 0.49 0.5099 0.5802 0.5196
1610.697 0.4285 0.4346 0.4704 0.4902 0.4306 0.30686 0.27777 0.3614 0.3749 0.5566
1629.986 0.565 0.4429 0.4188 0.3499 0.385 0.4553 0.5677 0.6517 0.6263 0.5553
1649.276 0.5256 0.4907 0.4753 0.4882 0.5687 0.6186 0.5672 0.6175 0.5864 0.3826
1668.566 0.3875 0.4411 0.4857 0.5129 0.5214 0.5054 0.4856 0.5478 0.4981 0.5054
1687.856 0.6045 0.6028 0.5885 0.6088 0.6359 0.7071 0.7263 0.7951 0.9081 1.0501
1707.146 1.074 1.1034 1.254 1.314 1.364 1.454 1.654 1.834 2.044 2.344
1726.435 2.594 2.894 3.144 3.414 3.864 4.374 4.854 5.474 6.314 7.224
1745.725 8.284 9.234 9.884 10.104 9.984 9.914 9.824 9.504 8.644 7.334
1765.015 6.184 5.394 4.814 4.304 3.914 3.624 3.364 3.144 2.934 2.754
1784.305 2.514 2.324 2.184 1.924 1.744 1.584 1.334 1.1771 1.0953 0.9036
1803.594 0.7141 0.7082 0.6446 0.6208 0.6321 0.6155 0.6632 0.5909 0.513 0.5556
1822.884 0.4655 0.3604 0.3351 0.30232 0.3205 0.3347 0.3562 0.3654 0.343 0.3242
1842.174 0.26671 0.23879 0.20597 0.223038 0.3799 0.4236 0.3591 0.335 0.3719 0.3539
1861.464 0.3363 0.3459 0.3194 0.3715 0.367 0.30495 0.26329 0.28125 0.3413 0.3689
1880.754 0.4029 0.3949 0.3146 0.26971 0.3232 0.4094 0.3606 0.25626 0.23455 0.2538
1900.043 0.3206 0.3186 0.28532 0.26207 0.25063 0.217393 0.1629 0.1822 0.25315 0.29669
1919.333 0.2267 0.1778 0.22544 0.29235 0.364 0.3439 0.23806 0.1746 0.1544 0.19
1938.623 0.173 0.1479 0.1345 0.099 0.1853 0.23468 0.213572 0.216831 0.2011 0.20648
1957.913 0.21217 0.23365 0.214265 0.1699 0.1364 0.1925 0.24975 0.26475 0.21625 0.1379
1977.202 0.1729 0.23644 0.3252 0.28932 0.24259 0.1981 0.1577 0.221301 0.2715 0.29363
1996.492 0.23353 0.1929 0.27838 0.29656 0.3351 0.3212 0.2305 0.25572 0.23541 0.26497
2015.782 0.3217 0.30224 0.2937 0.26714 0.24813 0.323 0.3609 0.3186 0.3196 0.3844
2035.072 0.4767 0.43 0.4416 0.4458 0.3872 0.361 0.30502 0.3607 0.4439 0.4454
2054.362 0.3914 0.3988 0.4644 0.5391 0.5569 0.4988 0.4758 0.5534 0.5555 0.5416
2073.651 0.5938 0.6628 0.7183 0.7505 0.7479 0.7999 0.9902 1.0989 1.1872 1.394
2092.941 1.664 1.864 2.034 2.214 2.464 2.794 3.144 3.384 3.524 3.764
2112.231 3.924 3.964 3.974 4.064 4.074 3.954 3.804 3.584 3.374 3.104
2131.521 2.774 2.384 2.044 1.774 1.474 1.254 0.9949 0.8082 0.7285 0.6847
2150.810 0.7744 0.7295 0.6301 0.6595 0.6541 0.6674 0.578 0.5304 0.6416 0.6402
2170.100 0.6954 0.6614 0.6515 0.7117 0.6627 0.7411 0.8267 0.7426 0.7224 0.804
2189.390 0.8527 0.88 0.9083 0.9558 0.9586 0.9715 1.0206 1.1249 1.224 1.344
2208.680 1.454 1.554 1.794 1.944 2.044 2.214 2.444 2.704 2.914 3.174
2227.970 3.464 3.814 4.064 4.234 4.514 4.874 5.134 5.324 5.604 5.824
2247.259 5.914 6.044 6.164 6.314 6.524 6.754 7.094 7.554 8.024 8.734
2266.549 9.624 10.694 12.014 13.524 15.274 17.374 19.844 22.584 25.704 29.404
2285.839 33.494 38.124 43.274 49.124 55.384 61.244 67.534 73.634 78.674 85.004
2305.129 93.814 102.284 109.234 114.824 116.164 115.254 119.164 126.914 131.544 133.284
2324.418 129.134 123.414 126.184 129.364 125.584 120.184 118.994 121.304 124.434 127.644
2343.708 131.144 126.354 114.104 115.194 130.154 146.954 159.474 165.684 168.354 167.774
2362.998 165.934 161.494 154.544 146.684 136.984 126.414 114.984 102.014 88.194 73.384
2382.288 58.184 43.364 30.154 19.584 11.854 6.904 4.114 2.794 2.244 2.034
2401.578 1.854 1.514 1.364 1.334 1.314 1.224 1.1175 1.0725 1.0208 1.0156
2420.867 0.9347 0.8687 0.8421 0.8447 0.8493 0.8014 0.6909 0.6837 0.7342 0.7534
2440.157 0.8178 0.7806 0.6796 0.6146 0.616 0.5453 0.5043 0.6042 0.6038 0.5739
2459.447 0.5326 0.5387 0.5376 0.4987 0.5082 0.5565 0.6228 0.6188 0.5377 0.4
2478.737 0.4374 0.5231 0.5735 0.6394 0.6736 0.6347 0.445 0.4506 0.5589 0.6314
2498.026 0.651 0.6231 0.5766 0.5355 0.3899 0.4128 0.5007 0.4257 0.4138 0.4456
2517.316 0.3717 0.3501 0.4565 0.5087 0.4031 0.29445 0.28637 0.3321 0.4586 0.5376
2536.606 0.5561 0.4832 0.4102 0.3735 0.3606 0.477 0.5547 0.5369 0.5614 0.5592
2555.896 0.5064 0.5278 0.449 0.4219 0.5205 0.463 0.4867 0.5743 0.5063 0.4631
2575.186 0.555 0.6389 0.652 0.6328 0.5437 0.462 0.501 0.5978 0.5673 0.5622
2594.475 0.5921 0.5652 0.5803 0.5498 0.4951 0.4986 0.5917 0.6393 0.5129 0.4012
2613.765 0.4586 0.5806 0.5326 0.5405 0.7365 0.7417 0.6189 0.6737 0.6894 0.7125
2633.055 0.7795 0.7661 0.7589 0.7659 0.7238 0.7997 0.9536 0.9887 1.0096 0.9511
2652.345 0.9347 0.9184 0.8461 0.8869 1.0199 1.0662 1.0115 1.0191 1.0805 1.2054
2671.634 1.284 1.1917 1.1921 1.244 1.224 1.1205 1.1037 1.1386 1.224 1.244
2690.924 1.254 1.284 1.234 1.404 1.354 1.334 1.324 1.0127 0.9835 1.0851
2710.214 1.0719 0.9619 0.796 0.7508 0.8134 0.9282 0.9578 1.0707 1.0786 1.0076
2729.504 1.0501 1.1237 1.2006 1.2112 1.1747 1.2088 1.344 1.384 1.464 1.474
2748.794 1.454 1.614 1.674 1.524 1.454 1.504 1.544 1.484 1.364 1.354
2768.083 1.414 1.404 1.354 1.414 1.434 1.434 1.494 1.524 1.554 1.604
2787.373 1.794 1.804 1.624 1.674 1.874 1.994 2.094 2.244 2.204 2.224
2806.663 2.374 2.424 2.534 2.684 2.944 3.114 3.224 3.424 3.624 3.804
2825.953 4.034 4.284 4.524 4.894 5.334 5.794 6.264 6.894 7.564 8.224
2845.242 8.804 9.484 10.424 11.404 12.324 13.294 14.454 15.634 16.724 17.834
2864.532 18.914 20.094 21.304 22.674 24.174 25.464 26.464 27.044 27.074 26.794
2883.822 26.674 26.544 26.054 25.714 25.624 25.544 25.254 24.734 24.404 24.424
2903.112 24.604 25.034 25.794 26.824 28.264 30.134 32.134 34.324 36.654 39.304
2922.401 42.124 44.994 48.004 51.164 54.244 56.884 59.324 61.674 64.004 65.934
2941.691 67.334 68.414 69.054 69.094 68.454 67.604 66.994 66.384 65.734 64.804
2960.981 63.734 62.754 61.774 60.264 57.694 54.894 52.364 49.874 47.224 44.414
2980.271 41.254 37.504 33.424 29.394 25.594 22.164 19.284 16.934 14.804 12.904
2999.561 11.424 10.094 9.014 8.124 7.364 6.624 5.974 5.624 5.264 4.904
3018.850 4.624 4.224 3.924 3.964 3.914 3.624 3.364 3.174 3.134 3.244
3038.140 3.234 3.034 2.894 2.884 2.864 2.724 2.684 2.774 2.634 2.554
3057.430 2.384 2.084 2.174 2.214 2.094 2.104 2.044 1.984 2.064 2.044
3076.720 1.894 1.794 1.704 1.624 1.664 1.704 1.624 1.524 1.484 1.554
3096.009 1.594 1.624 1.564 1.504 1.504 1.424 1.494 1.544 1.374 1.334
3115.299 1.354 1.314 1.1604 1.0777 1.0375 0.9124 1.0671 1.224 1.14 1.0037
3134.589 0.914 1.0285 1.1298 1.0461 0.9222 0.9413 1.0734 1.0535 0.921 0.9119
3153.879 1.0422 0.9864 0.7484 0.7787 0.8689 0.8362 0.7653 0.8373 0.9937 0.9872
3173.169 0.9315 0.8551 0.7406 0.6519 0.6783 0.7753 0.7681 0.742 0.875 0.7865
3192.458 0.4626 0.4683 0.655 0.6885 0.6646 0.5503 0.4211 0.544 0.7544 0.6787
3211.748 0.7261 0.8388 0.7897 0.6654 0.6782 0.6844 0.6187 0.6737 0.7052 0.7686
3231.038 0.7255 0.7031 0.7618 0.6802 0.6674 0.8346 0.9056 0.9008 1.0087 1.0223
3250.328 0.9894 1.1812 1.364 1.464 1.344 1.274 1.464 1.594 1.644 1.784
3269.617 1.954 2.224 2.694 2.974 3.254 3.544 3.824 4.334 4.614 4.864
3288.907 5.334 6.134 7.444 8.874 10.174 11.174 11.744 11.964 12.274 13.174
3308.197 14.444 15.624 18.014 21.734 25.144 27.714 28.824 28.114 26.434 24.934
3327.487 24.504 23.614 22.844 24.664 26.714 26.264 23.294 18.974 14.694 11.204
3346.777 8.744 7.064 6.034 5.304 4.614 4.294 3.974 3.544 3.154 2.784
3366.066 2.604 2.374 1.924 1.664 1.584 1.374 1.1666 1.0852 0.8681 0.5402
3385.356 0.4182 0.482 0.6539 0.9223 0.9262 0.6976 0.5924 0.4852 0.4656 0.3911
3404.646 0.25227 0.1784 0.24696 0.4038 0.4675 0.4505 0.4109 0.30512 0.3706 0.5052
3423.936 0.4859 0.3482 0.215672 0.3583 0.3655 0.3473 0.5022 0.4186 0.29327 0.3482
3443.225 0.3789 0.3225 0.3531 0.3699 0.3162 0.4815 0.4482 0.22781 0.3743 0.4842
3462.515 0.5127 0.4147 0.29869 0.3836 0.3472 0.29429 0.59 0.7226 0.4567 0.28524
3481.805 0.3693 0.4488 0.3508 0.3908 0.376 0.3371 0.3754 0.219925 0.1332 0.27724
3501.095 0.3172 0.220053 0.3945 0.6032 0.3427 0.1864 0.3494 0.53 0.4834 0.5066
3520.385 0.7394 0.6443 0.4214 0.5041 0.7007 0.6899 0.6387 0.6606 0.6066 0.649
3539.674 0.7764 0.8427 1.0061 1.169 1.1535 1.064 1.264 1.404 1.404 1.554
3558.964 1.984 2.364 2.674 3.274 4.094 4.884 5.194 5.244 5.194 5.014
3578.254 4.844 4.544 4.094 3.714 3.404 3.174 3.104 3.264 3.174 3.084
3597.544 3.034 2.854 2.774 2.504 2.234 1.834 1.524 1.264 1.086 1.1823
3616.833 1.414 1.874 2.334 2.614 2.784 2.934 2.914 2.784 2.794 2.844
3636.123 2.614 2.384 2.154 1.874 1.784 1.564 1.1136 0.9805 1.0164 0.8453
3655.413 0.6706 0.7779 0.9831 1.1166 1.0999 1.1163 1.234 1.234 1.424 1.544
3674.703 1.704 2.034 2.224 2.404 2.564 2.774 2.974 3.124 3.404 3.714
3693.993 3.914 4.024 4.094 4.224 4.244 4.094 3.934 3.764 3.334 2.574
3713.282 2.154 2.154 2.414 2.784 3.144 3.554 4.004 4.664 4.964 5.114
3732.572 5.534 5.744 5.494 5.244 4.924 4.364 3.884 3.314 2.854 2.414
3751.862 1.774 1.254 0.901 0.6137 0.5447 0.5197 0.4259 0.3881 0.4852 0.3989
3771.152 0.28313 0.3809 0.26542 0.27227 0.29924 0.067 0.22884 0.4091 0.3648 0.3648
3790.441 0.1848 0.1873 0.1413 0.087 0.3619 0.473 0.4772 0.3829 0.3265 0.3303
3809.731 0.26555 0.4274 0.6213 0.4673 0.30197 0.4825 0.5696 0.3746 0.3062 0.25573
3829.021 0.4221 0.5569 0.30919 0.2007 0.188 0.28334 0.3875 0.3367 0.28593 0.25449
3848.311 0.1865 0.101 0.1168 0.2291 0.3396 0.3388 0.29233 0.3176 0.3216 0.22755
3867.601 0.1807 0.1528 0.22445 0.30642 0.3355 0.3637 0.3861 0.5311 0.4181 0.1882
3886.890 0.1363 0.4206 0.4852 0.3422 0.388 0.3706 0.24815 0.1686 0.25447 0.4992
3906.180 0.6936 0.5641 0.5501 0.6961 0.6736 0.6848 0.636 0.3357 0.31272 0.3847
3925.470 0.5776 0.8877 0.8192 0.8696 0.9328 0.8225 1.0193 1.0901 0.9134 0.9328
3944.760 0.8604 0.6897 0.7461 0.5758 0.3876 0.4111 0.3751 0.3636 0.3511 0.28727
3964.049 0.1867 0.25865 0.5059 0.6877 0.706 0.6253 0.4909 0.3282 0.2265 0.1328
3983.339 0.015 0 0.3935 0.7172 0.6308 0.5016 0.6335 0.6319 0.4391 0.6098
##END=
