##TITLE=2,5-Dimethoxybenzenesulfonyl chloride
##JCAMP-DX=4.24
##DATA TYPE=INFRARED SPECTRUM
##ORIGIN=EPA-IR VAPOR PHASE LIBRARY
##OWNER=SRD/NIST
Collection (C) 2018 copyright by the U.S. Secretary of Commerce
on behalf of the United States of America. All rights reserved.
##CAS REGISTRY NO=1483-28-9
##MOLFORM=C 8 H 9 Cl O 4 S
##$NIST SOURCE=MSDC-IR
##STATE=gas
##XUNITS=1/CM
##YUNITS=ABSORBANCE
##XFACTOR=1.
##YFACTOR=0.001
##DELTAX=1.92898
##FIRSTX=549.8
##LASTX=4000.7
##FIRSTY=65.56
##MAXX=4000.7
##MINX=549.759
##MAXY=0.16162
##MINY=0.00005835
##NPOINTS=1790
##XYDATA=(X++(Y..Y))
549.759 65.56 67.5 68.7 69.37 68.8 67.63 66.93 65.43 63.36 61.47
569.049 59.38 56.95 54.38 52.08 49.84 47.96 46.32 44.74 43.41 42.25
588.339 41.53 41.04 40.73 40.51 40.52 40.96 41.69 43 44.16 44.7
607.628 44.51 43.28 40.74 37.32 33.45 28.9 24.55 20.81 17.45 14.59
626.918 12.15 10.18 8.74 7.53 6.48 5.59 5.03 4.5 4.05 3.79
646.208 3.45 3.17 2.93 2.85 2.97 3.01 3.02 3.23 3.43 3.72
665.498 4.07 4.65 5.75 7.28 9.59 12.75 16.82 21.44 25.72 29.17
684.787 31.43 32.26 31.54 29.09 25.2 20.94 16.95 13.6 10.87 8.79
704.077 7.45 6.58 6.21 6.08 6.07 6.1 6.15 6.07 5.91 5.88
723.367 5.76 5.86 5.89 6 6.37 6.63 6.91 7.23 7.5 7.51
742.657 7.55 7.59 7.42 7.02 6.34 5.65 5.26 4.68 3.87 3.25
761.947 2.92 2.7 2.43 2.14 1.87 1.74 1.75 1.61 1.51 1.6
781.236 1.63 1.74 1.86 2.03 2.23 2.37 2.58 2.94 3.47 4.02
800.526 4.73 5.65 6.55 7.83 9.21 10.38 11.7 13.02 13.77 14.16
819.816 14.14 13.64 12.86 11.64 10.42 9.22 8 6.73 5.56 4.77
839.106 4.09 3.88 3.79 3.47 3.35 3.46 3.72 3.94 4.28 4.74
858.395 5.33 5.86 6.44 6.96 7.49 7.98 8.28 8.74 8.87 8.99
877.685 9.26 9.32 9.18 8.8 8.52 8.04 7.23 6.51 5.89 5.19
896.975 4.47 3.8 3.39 3.07 2.78 2.43 2.12 2.09 2.08 1.94
916.265 1.93 1.97 1.81 1.72 1.64 1.57 1.64 1.74 1.75 1.69
935.555 1.6 1.67 1.73 1.75 1.81 1.75 1.8 1.9 1.97 2.03
954.844 2.21 2.34 2.41 2.5 2.62 2.93 3.13 3.4 3.72 3.93
974.134 4.28 4.58 4.78 5.04 5.55 6.13 6.44 6.88 7.51 8.07
993.424 8.59 9.27 10.25 11.46 13.03 14.82 16.48 18.35 20.24 21.76
1012.714 23.44 25.01 26.14 27.23 28.46 29.5 30.47 32.5 35.08 37.75
1032.003 41.47 45 47.8 50.03 51.29 51.69 50.89 49.03 46.48 43.42
1051.293 39.74 36.01 32.34 28.57 25.25 22.14 18.64 15.8 13.79 11.84
1070.583 10.14 8.86 7.86 6.99 6.42 5.75 5.14 5.15 5.31 5.01
1089.873 4.78 4.6 4.21 4.08 4.2 4.27 4.43 4.36 4.21 4.58
1109.163 4.6 4.43 4.78 4.83 5.02 5.8 6.83 7.89 8.86 9.78
1128.452 10.79 12.04 13.04 13.81 14.47 14.87 14.87 15 15.14 15.13
1147.742 15.67 16.1 16.7 17.75 19.01 20.81 23.13 25.76 28.87 32.73
1167.032 37.45 42.88 49.43 57.52 66.14 74.55 82.71 89.87 95.01 97.45
1186.322 96.61 92.22 84.53 74.97 64.38 53.94 45.48 38.61 33.43 30.46
1205.611 29.27 29.64 31.44 34.6 39.46 45.94 53.68 62.06 70.26 77.53
1224.901 82.22 83.84 82.52 78.09 71.25 62.91 53.96 45.98 39.48 34.86
1244.191 32.03 30.53 30.57 31.75 34.09 37.16 41.18 46.53 53.14 61.12
1263.481 70.08 79.87 89.34 97.16 102.33 104.05 102.01 96.16 87.21 76.66
1282.771 65.93 56.19 48.1 41.73 37.19 34.09 31.76 29.78 28.07 26.41
1302.060 24.53 22.5 20.4 18.24 16.24 14.42 12.79 11.45 10.33 9.49
1321.350 8.88 8.33 7.85 7.51 7.21 6.93 6.7 6.48 6.31 6.16
1340.640 6.04 6.02 6.05 6.07 6.14 6.25 6.39 6.61 6.9 7.27
1359.930 7.74 8.15 8.8 9.83 11.17 12.83 14.73 17.06 19.93 23.53
1379.219 27.91 33 38.72 44.64 50.19 55.13 59.13 62.26 64.99 67.68
1398.509 70.55 73.28 75.1 75.36 73.65 69.7 63.56 55.66 46.93 38.73
1417.799 32.1 27.45 24.78 23.56 23.49 24.25 25.76 27.97 30.81 33.98
1437.089 37.09 39.5 40.67 40.49 39.06 36.66 33.56 30.26 27.48 25.72
1456.378 25.12 25.68 27.04 28.82 30.92 33.03 35.04 37.19 39.59 42.37
1475.668 45.99 50.78 57.04 65.33 76 88.95 103.72 119.44 134.89 148.3
1494.958 157.65 161.62 159.32 150.75 136.78 119.15 99.6 80.33 63.19 48.93
1514.248 37.93 29.81 23.94 19.7 16.52 14.23 12.43 10.99 9.99 9.13
1533.538 8.37 7.83 7.28 6.82 6.59 6.45 6.41 6.41 6.41 6.47
1552.827 6.61 6.77 6.94 7.15 7.32 7.47 7.56 7.63 7.67 7.63
1572.117 7.59 7.55 7.4 7.22 6.99 6.68 6.38 6.04 5.72 5.42
1591.407 5.13 5 5.02 5.13 5.3 5.51 5.74 5.85 5.9 5.91
1610.697 5.79 5.46 5.08 4.77 4.37 3.95 3.67 3.41 3.16 3.01
1629.986 2.86 2.65 2.54 2.49 2.45 2.42 2.31 2.26 2.22 2.18
1649.276 2.1 1.98 2.01 1.99 1.87 1.81 1.76 1.66 1.63 1.63
1668.566 1.62 1.6 1.56 1.51 1.48 1.45 1.44 1.44 1.47 1.47
1687.856 1.44 1.38 1.4 1.41 1.39 1.37 1.37 1.41 1.45 1.48
1707.146 1.52 1.56 1.6 1.58 1.59 1.64 1.73 1.77 1.76 1.79
1726.435 1.78 1.77 1.73 1.72 1.63 1.56 1.64 1.67 1.59 1.55
1745.725 1.55 1.53 1.5 1.46 1.48 1.48 1.45 1.46 1.47 1.49
1765.015 1.53 1.51 1.47 1.48 1.45 1.41 1.38 1.32 1.31 1.32
1784.305 1.28 1.21 1.14 1.14 1.19 1.19 1.11 1.05 1.07 1.1
1803.594 1.05 1.05 1.06 1.01 0.9638 1.06 1.1 1.01 0.9353 0.8871
1822.884 0.8599 0.8308 0.8385 0.8322 0.7872 0.8102 0.8156 0.7814 0.7764 0.8012
1842.174 0.8371 0.8288 0.8844 0.877 0.8089 0.8468 0.9208 1.02 1.07 1.11
1861.464 1.15 1.12 1.15 1.22 1.28 1.35 1.48 1.54 1.53 1.59
1880.754 1.61 1.55 1.52 1.49 1.46 1.4 1.33 1.26 1.28 1.33
1900.043 1.29 1.26 1.28 1.32 1.38 1.41 1.38 1.39 1.44 1.45
1919.333 1.41 1.39 1.35 1.27 1.18 1.17 1.22 1.21 1.16 1.06
1938.623 1.02 1.08 1.06 1.03 1.07 1.06 1.04 1.04 1.04 1.05
1957.913 1.03 1.01 1.07 1.1 1.12 1.16 1.22 1.25 1.24 1.23
1977.202 1.29 1.37 1.38 1.4 1.46 1.53 1.54 1.58 1.69 1.8
1996.492 1.85 1.88 1.96 2.07 2.14 2.21 2.32 2.34 2.31 2.4
2015.782 2.46 2.46 2.49 2.46 2.36 2.38 2.39 2.33 2.26 2.17
2035.072 2.13 2.14 2.03 2.03 2.04 1.99 2.04 2.03 1.96 1.92
2054.362 1.92 1.91 1.9 1.91 1.86 1.82 1.8 1.78 1.76 1.72
2073.651 1.7 1.65 1.62 1.6 1.55 1.5 1.49 1.45 1.41 1.37
2092.941 1.33 1.32 1.28 1.24 1.27 1.3 1.28 1.27 1.21 1.18
2112.231 1.19 1.18 1.14 1.07 0.9855 0.9244 0.8673 0.8727 0.8493 0.7894
2131.521 0.8183 0.8109 0.7365 0.6553 0.6722 0.7356 0.7431 0.7124 0.7278 0.7262
2150.810 0.7352 0.7398 0.7211 0.7283 0.7663 0.7598 0.7544 0.7071 0.6914 0.7067
2170.100 0.6229 0.6721 0.7457 0.686 0.6598 0.7447 0.7402 0.6931 0.7063 0.6823
2189.390 0.6209 0.5786 0.6112 0.6119 0.5631 0.5531 0.5519 0.5391 0.4474 0.4295
2208.680 0.5013 0.4878 0.4895 0.481 0.4718 0.5132 0.5587 0.6166 0.5975 0.5805
2227.970 0.6018 0.6088 0.639 0.5865 0.5654 0.6193 0.6833 0.7147 0.6646 0.6277
2247.259 0.6167 0.6445 0.5879 0.5279 0.5529 0.544 0.5529 0.5813 0.6011 0.5672
2266.549 0.5271 0.5378 0.5634 0.5582 0.5782 0.5874 0.5571 0.5395 0.4849 0.472
2285.839 0.4596 0.4449 0.5073 0.5667 0.5974 0.5871 0.6018 0.5967 0.5761 0.5776
2305.129 0.6274 0.682 0.6388 0.603 0.628 0.7265 0.7656 0.7649 0.7819 0.7607
2324.418 0.7246 0.6912 0.6809 0.6946 0.7091 0.7307 0.7483 0.7553 0.7962 0.8493
2343.708 0.83 0.8212 0.8689 0.8808 0.9162 0.9809 1 1.01 1.02 0.962
2362.998 0.9092 0.9345 0.9436 0.8865 0.8543 0.9205 1 0.9583 0.8676 0.9259
2382.288 0.8999 0.7569 0.6807 0.6458 0.6177 0.591 0.5483 0.5075 0.535 0.5394
2401.578 0.4875 0.4676 0.4844 0.4139 0.3074 0.3289 0.3904 0.4468 0.4599 0.437
2420.867 0.3812 0.3953 0.5034 0.5479 0.5144 0.5139 0.5892 0.6183 0.6256 0.5836
2440.157 0.6381 0.6748 0.5987 0.6206 0.6146 0.582 0.6658 0.7725 0.7833 0.7405
2459.447 0.7153 0.7184 0.7494 0.7959 0.8192 0.805 0.7758 0.7881 0.8316 0.8317
2478.737 0.8865 0.9738 0.9639 0.9568 1.01 0.9698 0.9918 1.11 1.07 1.06
2498.026 1.12 1.09 1.06 1.09 1.12 1.12 1.24 1.32 1.3 1.26
2517.316 1.23 1.25 1.32 1.37 1.39 1.32 1.28 1.31 1.44 1.56
2536.606 1.54 1.43 1.35 1.43 1.51 1.47 1.44 1.48 1.47 1.5
2555.896 1.57 1.62 1.62 1.57 1.52 1.45 1.39 1.39 1.37 1.35
2575.186 1.28 1.16 1.08 1.06 1.03 0.924 0.896 1 0.9953 0.8712
2594.475 0.8828 0.8618 0.8341 0.8309 0.7795 0.7931 0.8475 0.884 0.8867 0.8413
2613.765 0.8353 0.9064 0.8883 0.8744 0.8296 0.8146 0.7869 0.6979 0.7894 0.83
2633.055 0.8019 0.7765 0.7301 0.7895 0.766 0.7089 0.7303 0.6917 0.6498 0.652
2652.345 0.6328 0.605 0.6546 0.6661 0.6259 0.5993 0.5592 0.5543 0.5313 0.5437
2671.634 0.5809 0.5494 0.5593 0.5527 0.4732 0.4198 0.5362 0.5929 0.5042 0.4899
2690.924 0.4686 0.4217 0.4235 0.4255 0.4029 0.4384 0.4958 0.5019 0.5053 0.5184
2710.214 0.5754 0.6018 0.6091 0.6416 0.6161 0.5666 0.5418 0.548 0.5097 0.5018
2729.504 0.5677 0.6299 0.6188 0.6223 0.7528 0.8695 0.8411 0.8007 0.7683 0.7841
2748.794 0.8663 0.9629 0.9614 0.9062 1.01 1.08 1.02 0.9396 0.9408 1.12
2768.083 1.23 1.17 1.14 1.2 1.25 1.31 1.31 1.32 1.44 1.43
2787.373 1.43 1.41 1.44 1.58 1.73 1.88 1.91 1.92 2.16 2.36
2806.663 2.41 2.44 2.53 2.71 2.89 3.08 3.3 3.6 3.93 4.22
2825.953 4.52 4.97 5.54 6.25 7.15 8.3 9.69 11.31 13.01 14.39
2845.242 15.39 15.88 15.7 15.19 14.27 13.03 11.78 10.53 9.41 8.57
2864.532 7.89 7.22 6.74 6.44 6.18 5.94 5.74 5.65 5.57 5.57
2883.822 5.68 5.84 6.01 6.18 6.4 6.74 7.16 7.6 7.99 8.46
2903.112 9.02 9.53 9.97 10.41 10.85 11.14 11.44 11.7 11.89 12.12
2922.401 12.26 12.33 12.52 12.95 13.54 14.36 15.39 16.59 17.81 19.19
2941.691 20.72 22.18 23.37 24.13 24.62 24.6 24.13 23.48 22.65 21.74
2960.981 20.68 19.56 18.71 17.88 16.96 15.83 14.64 13.52 12.5 11.51
2980.271 10.52 9.83 9.22 8.69 8.26 7.95 7.78 7.86 8.1 8.5
2999.561 9.03 9.79 10.85 12.07 13.55 15.11 16.45 17.27 17.65 17.44
3018.850 16.61 15.15 13.23 11.31 9.66 8.32 7.22 6.39 5.92 5.39
3038.140 4.98 4.84 4.72 4.65 4.49 4.36 4.27 4.2 4.3 4.31
3057.430 4.27 4.3 4.29 4.45 4.47 4.31 4.3 4.3 4.48 4.75
3076.720 5.04 5.33 5.61 5.87 5.96 6.03 5.88 5.58 5.23 4.84
3096.009 4.27 3.75 3.38 3.11 2.84 2.54 2.42 2.27 2.14 2.1
3115.299 2 1.87 1.8 1.66 1.52 1.48 1.5 1.43 1.31 1.24
3134.589 1.21 1 1.05 1.21 1.02 0.9843 0.9578 0.819 0.807 0.7899
3153.879 0.6686 0.6986 0.7865 0.8294 0.7173 0.6259 0.7327 0.7907 0.8146 0.7748
3173.169 0.6679 0.5494 0.4507 0.4685 0.6277 0.6813 0.5608 0.4883 0.4553 0.6006
3192.458 0.6452 0.5444 0.5623 0.4239 0.3744 0.4894 0.5611 0.6786 0.5342 0.446
3211.748 0.5919 0.6063 0.5886 0.492 0.4414 0.409 0.4217 0.4465 0.5033 0.4674
3231.038 0.3408 0.3001 0.2923 0.3715 0.4379 0.4506 0.3499 0.2357 0.3372 0.3141
3250.328 0.2328 0.3334 0.3631 0.2767 0.24 0.255 0.192 0.2937 0.2785 0.2629
3269.617 0.458 0.3818 0.2444 0.2168 0.1536 0.1806 0.2753 0.364 0.362 0.2653
3288.907 0.2624 0.1786 0.1041 0.09463 0.1397 0.2173 0.2102 0.3373 0.3191 0.2539
3308.197 0.3209 0.2644 0.1837 0.2374 0.3114 0.313 0.3354 0.3081 0.3162 0.3575
3327.487 0.3067 0.3068 0.3641 0.3414 0.3412 0.3517 0.2588 0.3598 0.3483 0.1959
3346.777 0.2767 0.3589 0.3056 0.1705 0.1918 0.2185 0.2723 0.3453 0.2912 0.2461
3366.066 0.2305 0.2207 0.3001 0.3542 0.3313 0.3439 0.2075 0.1873 0.3561 0.3215
3385.356 0.3661 0.4567 0.2666 0.2689 0.4362 0.519 0.4284 0.2502 0.327 0.4183
3404.646 0.4147 0.4012 0.3868 0.3387 0.2403 0.2216 0.1913 0.2168 0.3701 0.3851
3423.936 0.2973 0.2731 0.311 0.3789 0.3541 0.2859 0.3119 0.2379 0.05835 0.1329
3443.225 0.3281 0.4128 0.4538 0.4328 0.2817 0.2209 0.3879 0.2844 0.1706 0.3103
3462.515 0.2401 0.2484 0.2568 0.2616 0.3405 0.4206 0.5906 0.5279 0.2409 0.1472
3481.805 0.1892 0.3308 0.3389 0.3246 0.3164 0.2502 0.3174 0.1325 0.178 0.3445
3501.095 0.328 0.2641 0.1421 0.2892 0.4135 0.3478 0.2977 0.2801 0.4444 0.415
3520.385 0.3304 0.3283 0.2389 0.4181 0.5115 0.3352 0.2304 0.1695 0.1517 0.1197
3539.674 0.1361 0.2621 0.3197 0.2746 0.2315 0.372 0.4244 0.4043 0.4875 0.5249
3558.964 0.5033 0.4008 0.4125 0.4498 0.3957 0.2762 0.2722 0.3418 0.1543 0.1092
3578.254 0.2538 0.1928 0.1619 0.3244 0.3721 0.3143 0.2959 0.3303 0.4039 0.4056
3597.544 0.3504 0.2893 0.2973 0.2969 0.2401 0.1783 0.1411 0.1493 0.2652 0.2145
3616.833 0.1708 0.2437 0.2962 0.3708 0.3562 0.301 0.1103 0.0973 0.1653 0.1538
3636.123 0.1602 0.1916 0.2981 0.3206 0.1646 0.1425 0.3516 0.4774 0.4274 0.3242
3655.413 0.2086 0.3219 0.4722 0.3654 0.3366 0.2725 0.1892 0.2311 0.2652 0.2868
3674.703 0.2773 0.281 0.3185 0.3559 0.4107 0.3778 0.2819 0.2519 0.2397 0.283
3693.993 0.2829 0.2025 0.2038 0.2341 0.2623 0.3367 0.3551 0.2209 0.2166 0.3131
3713.282 0.3833 0.4101 0.2542 0.08806 0.1404 0.2678 0.2639 0.2994 0.4183 0.3473
3732.572 0.3307 0.3951 0.3522 0.3398 0.3661 0.4422 0.3963 0.3278 0.3942 0.2574
3751.862 0.1495 0.2655 0.4579 0.4605 0.4198 0.4952 0.5328 0.5387 0.4038 0.3198
3771.152 0.3548 0.5305 0.5352 0.4261 0.3391 0.2875 0.2442 0.3239 0.3724 0.2401
3790.441 0.1804 0.2538 0.2973 0.3873 0.543 0.5016 0.3719 0.3036 0.2418 0.233
3809.731 0.2974 0.2174 0.2032 0.2782 0.367 0.419 0.4124 0.4688 0.4187 0.3994
3829.021 0.3448 0.2309 0.3346 0.3126 0.2942 0.3347 0.3009 0.4478 0.4981 0.3493
3848.311 0.334 0.3854 0.3686 0.2646 0.4168 0.6545 0.6318 0.578 0.5026 0.4744
3867.601 0.3253 0.19 0.4401 0.5507 0.5702 0.5812 0.4463 0.5583 0.5993 0.4617
3886.890 0.4206 0.354 0.3785 0.4282 0.325 0.2513 0.3694 0.406 0.3431 0.4322
3906.180 0.4716 0.6038 0.5591 0.3992 0.4315 0.5437 0.4275 0.3671 0.4497 0.5197
3925.470 0.6895 0.5105 0.3775 0.4914 0.6093 0.5353 0.4383 0.5195 0.6083 0.6962
3944.760 0.5454 0.3918 0.4792 0.5072 0.497 0.473 0.5227 0.7011 0.7202 0.6505
3964.049 0.5147 0.4888 0.5201 0.5096 0.533 0.6741 0.7821 0.6149 0.5062 0.4937
3983.339 0.5345 0.6813 0.7443 0.6022 0.5619 0.6312 0.7239 0.8053 0.7139 0.7621
##END=
