##TITLE=Desyl bromide
##JCAMP-DX=4.24
##DATA TYPE=INFRARED SPECTRUM
##ORIGIN=EPA-IR VAPOR PHASE LIBRARY
##OWNER=SRD/NIST
Collection (C) 2018 copyright by the U.S. Secretary of Commerce
on behalf of the United States of America. All rights reserved.
##CAS REGISTRY NO=1484-50-0
##MOLFORM=C 14 H 11 Br O
##$NIST SOURCE=MSDC-IR
##STATE=gas
##XUNITS=1/CM
##YUNITS=ABSORBANCE
##XFACTOR=1.
##YFACTOR=0.001
##DELTAX=3.85796
##FIRSTX=501.5
##LASTX=4000.7
##FIRSTY=0.976
##MAXX=4000.7
##MINX=501.534
##MAXY=0.027525
##MINY=0
##NPOINTS=908
##XYDATA=(X++(Y..Y))
501.534 0.976 0.9916 0.9561 1.0513 1.2307 1.325 1.435 1.605 1.905 2.425
540.114 2.915 3.305 3.575 3.785 4.205 4.995 6.145 7.075 7.095 6.135
578.693 4.835 4.095 4.005 4.425 5.325 6.535 7.935 8.945 9.005 8.605
617.273 8.705 9.895 11.695 12.585 11.445 8.795 6.315 5.045 4.635 4.715
655.852 5.045 5.665 6.715 8.155 9.815 11.785 14.695 19.125 24.155 27.525
694.432 27.325 24.235 20.645 17.575 14.805 12.135 9.785 8.165 7.335 7.085
733.011 7.235 7.765 8.435 8.665 8.205 7.425 6.475 5.485 4.605 3.945
771.591 3.575 3.495 3.565 3.735 3.945 4.085 3.995 3.665 3.375 3.235
810.170 3.515 4.305 5.285 5.805 5.405 4.515 3.945 3.915 3.945 3.665
848.750 3.175 2.625 2.175 1.805 1.545 1.385 1.2254 1.1483 1.1028 1.0852
887.330 1.1022 1.1073 1.139 1.1349 1.1554 1.2211 1.32 1.465 1.585 1.705
925.909 1.745 1.675 1.585 1.585 1.685 1.785 1.935 2.155 2.475 2.975
964.489 3.615 4.485 5.865 7.835 10.195 12.075 12.185 10.455 8.285 6.935
1003.068 6.315 5.595 4.795 4.455 4.335 4.155 4.035 3.915 3.645 3.105
1041.648 2.455 2.125 1.905 1.705 1.775 2.085 2.385 2.545 2.535 2.335
1080.227 2.095 1.915 1.725 1.745 1.925 2.045 1.975 1.755 1.635 1.575
1118.807 1.565 1.705 1.945 2.295 2.735 3.165 3.475 3.795 4.275 4.955
1157.387 5.825 6.805 7.905 9.335 10.985 12.835 14.485 14.995 14.035 12.765
1195.966 12.695 14.265 16.725 18.475 17.965 15.065 11.605 9.425 8.605 8.405
1234.546 8.285 8.055 7.675 7.235 7.135 7.575 8.535 9.905 11.215 11.985
1273.125 12.025 11.385 10.375 9.405 8.755 8.345 7.825 6.955 5.925 5.175
1311.705 4.875 4.775 4.635 4.485 4.425 4.445 4.575 4.845 5.145 5.235
1350.284 4.885 4.135 3.255 2.585 2.195 2.005 1.935 1.875 1.765 1.585
1388.864 1.395 1.2599 1.163 1.097 1.0463 1.0413 1.0917 1.1721 1.3045 1.485
1427.443 1.715 2.075 2.735 4.015 5.965 7.805 8.325 7.205 5.245 3.585
1466.023 2.555 2.025 1.825 1.805 2.035 2.645 3.805 5.035 5.325 4.385
1504.603 2.845 1.735 1.365 1.268 1.2588 1.2708 1.2802 1.2734 1.2457 1.1866
1543.182 1.1869 1.2198 1.2325 1.2767 1.355 1.525 1.845 2.315 2.955 3.645
1581.762 4.125 4.335 4.515 4.855 5.075 4.705 3.815 2.875 2.265 1.935
1620.341 1.705 1.545 1.475 1.465 1.495 1.555 1.625 1.725 1.855 2.015
1658.921 2.215 2.515 2.955 3.605 4.545 6.005 8.155 10.905 13.475 15.275
1697.500 16.905 19.575 23.255 26.195 25.985 22.055 16.545 11.665 8.125 5.855
1736.080 4.425 3.535 2.925 2.485 2.145 1.915 1.725 1.585 1.485 1.445
1774.659 1.405 1.375 1.415 1.545 1.735 1.905 2.005 1.965 1.785 1.545
1813.239 1.3132 1.1064 0.9682 0.8725 0.7745 0.7002 0.65 0.6254 0.6162 0.6273
1851.819 0.6523 0.6776 0.7085 0.7759 0.8788 0.9905 1.0964 1.1348 1.1547 1.2403
1890.398 1.325 1.335 1.2783 1.1926 1.1028 1.002 0.9179 0.8403 0.7985 0.8014
1928.978 0.8528 0.9655 1.1172 1.2635 1.385 1.485 1.535 1.565 1.535 1.445
1967.557 1.288 1.088 0.8705 0.6965 0.5915 0.5287 0.4857 0.455 0.42126 0.3878
2006.137 0.38735 0.38315 0.38148 0.37965 0.37073 0.37584 0.36963 0.37212 0.38435 0.37304
2044.716 0.34586 0.3205 0.3136 0.31743 0.3135 0.3082 0.3075 0.3019 0.2864 0.296
2083.296 0.2908 0.287 0.2964 0.2839 0.2771 0.2833 0.2884 0.2887 0.2859 0.2717
2121.875 0.2628 0.2717 0.2758 0.2584 0.2552 0.2712 0.268 0.2603 0.2732 0.2713
2160.455 0.2671 0.2746 0.2781 0.2941 0.2887 0.3029 0.31562 0.3081 0.3112 0.2984
2199.035 0.2814 0.2671 0.2776 0.2907 0.2834 0.2639 0.2533 0.2843 0.3132 0.3094
2237.614 0.3044 0.3009 0.3105 0.325127 0.33774 0.35246 0.34285 0.33732 0.34335 0.33889
2276.194 0.36255 0.39218 0.37826 0.37077 0.38339 0.39726 0.39227 0.37853 0.40061 0.4639
2314.773 0.5178 0.5776 0.61 0.566 0.4961 0.473 0.5144 0.5511 0.5452 0.5273
2353.353 0.4889 0.4439 0.4308 0.4353 0.4467 0.4384 0.40968 0.40726 0.42405 0.42342
2391.932 0.41703 0.41096 0.40043 0.38727 0.38625 0.40005 0.39007 0.37588 0.38706 0.36727
2430.512 0.37594 0.38393 0.34304 0.325957 0.324534 0.34876 0.35562 0.33099 0.34526 0.330167
2469.092 0.328357 0.334212 0.328483 0.3576 0.36064 0.36737 0.34885 0.34428 0.35125 0.3448
2507.671 0.36232 0.34921 0.31708 0.3007 0.34304 0.3535 0.326234 0.3124 0.3207 0.32391
2546.251 0.32283 0.329676 0.3099 0.31666 0.3099 0.2863 0.2865 0.3058 0.3094 0.329697
2584.830 0.37369 0.4024 0.41613 0.40009 0.38271 0.39445 0.38208 0.35807 0.33971 0.33876
2623.410 0.36005 0.330872 0.328361 0.35134 0.2981 0.2738 0.31802 0.3135 0.2571 0.2488
2661.989 0.2638 0.2465 0.2487 0.2812 0.2985 0.2763 0.2815 0.294 0.2994 0.324832
2700.569 0.31894 0.328647 0.3082 0.2483 0.259 0.2885 0.2952 0.3065 0.3033 0.2977
2739.148 0.3018 0.3017 0.31575 0.3412 0.35711 0.34058 0.31994 0.329222 0.33971 0.35492
2777.728 0.36768 0.37086 0.39116 0.38441 0.38421 0.41124 0.40687 0.39374 0.39891 0.37095
2816.308 0.329211 0.34169 0.3528 0.34498 0.35203 0.37731 0.38189 0.38014 0.38281 0.39251
2854.887 0.41402 0.42125 0.42423 0.4539 0.4881 0.4915 0.4923 0.5054 0.5311 0.54
2893.467 0.5697 0.5756 0.547 0.5372 0.5373 0.5331 0.5249 0.5586 0.6131 0.6131
2932.046 0.5935 0.6386 0.6922 0.6854 0.6863 0.7399 0.7531 0.7575 0.823 0.9047
2970.626 0.9984 1.1069 1.1674 1.2259 1.2789 1.2773 1.2781 1.3113 1.445 1.685
3009.205 1.985 2.325 2.755 3.505 4.675 6.055 7.205 7.585 7.155 6.405
3047.785 5.825 5.855 6.645 8.155 10.325 12.975 15.095 15.195 13.105 10.355
3086.364 8.685 8.135 7.475 6.385 5.235 4.285 3.465 2.735 2.075 1.485
3124.944 1.0599 0.8727 0.791 0.69 0.6681 0.6959 0.6688 0.6686 0.6947 0.6624
3163.524 0.6343 0.5688 0.4894 0.4366 0.35558 0.3024 0.2863 0.2953 0.2743 0.243
3202.103 0.2288 0.196 0.2523 0.2908 0.2583 0.2378 0.2296 0.199 0.171 0.169
3240.683 0.174 0.201 0.171 0.146 0.135 0.134 0.193 0.205 0.152 0.145
3279.262 0.179 0.175 0.204 0.218 0.185 0.185 0.174 0.177 0.195 0.191
3317.842 0.187 0.155 0.119 0.123 0.154 0.189 0.199 0.223 0.2265 0.222
3356.421 0.2539 0.2757 0.3056 0.31786 0.326751 0.34358 0.36796 0.36526 0.38648 0.4613
3395.001 0.4682 0.4795 0.5354 0.4766 0.39854 0.38852 0.38175 0.37125 0.3132 0.22
3433.580 0.172 0.199 0.218 0.196 0.197 0.175 0.093 0.116 0.153 0.138
3472.160 0.119 0.119 0.083 0.029 0.056 0.064 0.08 0.094 0.071 0.064
3510.740 0.096 0.131 0.12 0.094 0.088 0.072 0.056 0.065 0.095 0.092
3549.319 0.069 0.101 0.093 0.117 0.128 0.113 0.126 0.095 0.077 0.059
3587.899 0.072 0.073 0.035 0.035 0.078 0.098 0.083 0.094 0.079 0.087
3626.478 0.107 0.072 0.125 0.152 0.143 0.175 0.186 0.201 0.189 0.162
3665.058 0.124 0.077 0.077 0.106 0.1 0.085 0.102 0.09 0.111 0.169
3703.637 0.18 0.173 0.15 0.123 0.116 0.112 0.084 0.11 0.081 0.046
3742.217 0.069 0.077 0.09 0.08 0.109 0.129 0.133 0.133 0.1 0.125
3780.797 0.159 0.142 0.12 0.086 0.033 0.034 0.066 0.086 0.11 0.118
3819.376 0.156 0.11 0.08 0.104 0.045 0.01 0.055 0.043 0.034 0.087
3857.956 0.078 0.077 0.071 0.041 0.027 0.007 0.013 0.067 0.066 0.053
3896.535 0.078 0.079 0.069 0.082 0.1 0.099 0.097 0.078 0.074 0.04
3935.115 0.015 0.047 0.068 0.087 0.029 0 0.019 0.045 0.099 0.045
3973.694 0.009 0.082 0.1 0.06 0.065 0.084 0.063 0.054
##END=
