##TITLE=Methyl 3-trifluoromethoxybenzoate
##JCAMP-DX=4.24
##DATA TYPE=INFRARED SPECTRUM
##ORIGIN=EPA-IR VAPOR PHASE LIBRARY
##OWNER=SRD/NIST
Collection (C) 2018 copyright by the U.S. Secretary of Commerce
on behalf of the United States of America. All rights reserved.
##CAS REGISTRY NO=148438-00-0
##MOLFORM=C 9 H 7 F 3 O 3
##$NIST SOURCE=MSDC-IR
##STATE=gas
##XUNITS=1/CM
##YUNITS=ABSORBANCE
##XFACTOR=1.
##YFACTOR=0.001
##DELTAX=1.92898
##FIRSTX=549.8
##LASTX=4000.7
##FIRSTY=1.75
##MAXX=4000.7
##MINX=549.759
##MAXY=0.47951
##MINY=0
##NPOINTS=1790
##XYDATA=(X++(Y..Y))
549.759 1.75 1.2336 1.66 2.16 2.41 3.04 2.41 1.64 1.378 1.1524
569.049 1.3124 1.3941 1.65 1.83 1.292 1.6 1.61 1.3399 1.4227 0.8848
588.339 0.9554 1.2822 1.361 1.4863 1.3838 1.483 1.89 1.1621 1.0715 1.77
607.628 1.9 1.83 2.1 2.1 2.41 3.57 4.29 4.7 5.27 6.51
626.918 8.2 9.58 10 10.14 10.75 10.37 8.81 7.62 6.55 5.02
646.208 4.67 4.81 4.48 4.58 4.36 4.46 4.93 5.05 5.25 5.76
665.498 6.9 7.96 8.67 9.44 10.06 10.59 10.6 10.68 10.77 10.25
684.787 9.77 9.69 9.35 8.71 9.11 9.53 9.65 10.6 11.46 12.19
704.077 12.98 13.59 13.24 12.07 11.06 10.57 9.81 8.05 6.98 6.64
723.367 5.97 5.6 5.2 4.82 4.6 4.8 5.03 5.03 5.38 6.29
742.657 7.82 9.09 10.92 13.98 16.78 19.38 22.15 25.38 27.06 26.8
761.947 25.3 22.7 19.79 16.74 13.76 11.13 9.29 7.52 6.41 6.06
781.236 6.39 7.36 8.43 9.87 11.43 12.36 12.43 12.41 12.23 11.29
800.526 10.4 9.23 8.07 7.4 7.07 6.56 5.73 5.13 4.5 3.59
819.816 3.68 5.26 5.62 3.37 2.54 2.86 2.78 3.54 4.05 4.46
839.106 4.86 6.14 7.46 7.86 8.4 8.99 9.46 9.42 9.12 8.81
858.395 8.23 8.02 6.88 5.21 4.45 4.12 3.89 3.42 3.4 3.35
877.685 2.83 3.2 3.79 4.32 4.29 3.89 4.22 4.4 4.4 5.21
896.975 5.84 5.63 5.71 6.24 6.33 6.12 6.1 5.76 5.44 5.55
916.265 5.26 4.8 4.55 4.16 3.79 3.67 3.69 3.51 3.49 4.05
935.555 4.3 4.42 4.98 5.22 5.26 5.16 5.15 5.12 4.98 4.57
954.844 3.69 3.87 4.5 4.2 3.86 3.99 4.14 4.18 4.75 5.1
974.134 5.53 6.78 8.16 9.98 12.03 14.17 16.06 17.79 19.21 20.69
993.424 22.01 22.58 22.68 22.43 22.03 19.99 16.42 13.21 10.54 8.39
1012.714 6.83 5.78 5.06 4.83 4.74 3.73 3 2.87 2.72 3.14
1032.003 3.67 3.59 3.62 3.61 4.11 4.47 4.16 3.86 3.6 3.99
1051.293 4.48 5.78 7.32 6.97 7.94 10.31 11.28 13.26 15.95 18.54
1070.583 21.01 23.36 24.87 25.82 27.88 29.2 27.89 26.45 26.65 28.39
1089.873 31.54 33.75 35.9 38.53 41.2 42.6 42.44 40.96 38.18 34.93
1109.163 30.69 27.89 25.03 21.76 19.17 17.31 15.96 15.89 16 15.07
1128.452 14.82 13.83 12.9 13.41 14.48 15.74 15.4 15.94 18 18.71
1147.742 20.72 23.49 25.33 28.05 32.16 36.95 41.59 47.58 53.87 60.59
1167.032 67.99 75.02 84.34 95.96 109.45 124.35 140.22 158.09 176.43 192.45
1186.322 206.04 216.29 221.73 222.74 220.28 216.98 214.3 211.39 212.27 215.68
1205.611 220.66 228.89 237.87 249.21 263.17 279.31 295.14 310.29 321.43 324.83
1224.901 318.25 300.41 274.03 245.35 216.71 191.18 173.97 164.05 162.48 166.03
1244.191 173.78 187.98 208.34 233.76 264.47 301.33 341.4 381.7 418.89 449.85
1263.481 471.44 479.51 471.78 452.1 421.91 384.13 345.24 308.04 275.26 248.25
1282.771 226.35 209.7 196.8 186.11 176.53 167.33 158.42 149.58 140.19 129.12
1302.060 116.87 103.99 90.62 77.35 65.45 55.75 47.83 41.21 35.87 31.77
1321.350 28.62 25.92 23.42 21.46 20.02 18.84 17.65 16.33 15.16 14.3
1340.640 13.45 12.52 11.77 11.15 10.44 9.76 9.36 9.09 8.57 8.13
1359.930 7.89 7.48 7.14 7.07 6.92 6.58 6.37 6.39 6.34 6.23
1379.219 6.16 6 5.84 5.86 5.94 5.86 5.92 6.02 6.06 6.17
1398.509 6.25 6.22 6.33 6.59 6.8 7.17 7.44 7.62 8.11 8.75
1417.799 9.17 9.72 10.7 11.88 13.58 15.88 18.61 22.01 26.19 31.09
1437.089 36.48 41.6 46.15 49.44 50.4 48.6 44.83 39.9 34.46 28.83
1456.378 23.38 19.35 16.69 14.91 13.7 12.96 12.31 11.74 11.71 12.33
1475.668 13.29 14.2 15.53 17.09 18.47 19.42 19.85 19.57 18.56 16.99
1494.958 14.64 12.18 10.36 8.9 7.78 7.12 6.68 6.4 6.23 5.94
1514.248 5.71 5.45 5.12 5 4.96 4.75 4.7 4.75 4.84 5.06
1533.538 4.96 4.8 4.84 5.02 5.34 5.61 5.64 5.8 5.92 6.1
1552.827 6.42 6.49 6.5 6.59 6.95 7.35 7.66 7.96 8.78 9.47
1572.117 10.02 11.23 12.51 13.89 15.56 17.23 19.09 20.59 21.58 21.91
1591.407 21.53 20.8 19.38 17.66 16.02 14.61 13.6 12.58 11.69 11.37
1610.697 10.96 10.07 9.37 8.6 7.51 7.12 6.69 6.06 5.84 5.53
1629.986 5.49 5.21 4.89 4.96 4.93 4.76 4.74 4.71 4.43 4.25
1649.276 4.14 4.11 3.99 3.92 3.82 3.8 3.83 3.83 3.59 3.51
1668.566 3.69 3.72 3.53 3.36 3.53 3.53 3.62 3.45 3.27 3.71
1687.856 4.03 4.19 4.58 5.01 5.72 6.62 7.33 8.49 9.66 10.48
1707.146 11.28 11.87 12.15 12.14 11.83 11.7 11.87 12.24 13.05 14.34
1726.435 15.9 18.24 21.78 26.6 33.69 43.53 56.94 76.23 100.1 125.61
1745.725 146.06 157.1 160.27 156.42 140.94 112.67 80.14 55.12 38.69 27.93
1765.015 20.85 16.32 13.75 12.25 11.34 10.78 10.55 10.77 11.32 11.89
1784.305 12.45 12.88 12.88 12.59 11.98 11.13 10.08 8.97 7.91 7.07
1803.594 6.31 5.6 5.13 4.74 4.43 4.03 3.82 3.7 3.35 3.25
1822.884 3.32 3.21 3.13 3.12 3.05 2.83 2.69 2.71 2.69 2.56
1842.174 2.5 2.36 2.2 2.16 2.18 2.27 2.16 1.96 1.85 1.81
1861.464 1.88 1.95 1.95 1.97 2.02 2.12 2.31 2.53 2.62 2.54
1880.754 2.69 2.85 2.75 2.91 3.08 3.04 2.92 2.98 3 2.84
1900.043 2.73 2.52 2.37 2.22 1.95 1.87 1.9 1.98 1.95 1.76
1919.333 1.63 1.82 2.03 2.12 2.11 2.15 2.15 1.97 2.09 2.18
1938.623 2.16 2.18 2.22 2.19 2.28 2.35 2.35 2.35 2.32 2.18
1957.913 2.08 2.02 1.91 1.82 1.55 1.62 1.88 1.87 1.88 1.91
1977.202 1.86 1.94 1.96 2.12 2.19 2.01 1.92 1.89 1.94 1.95
1996.492 2.1 2.11 1.9 2.01 1.98 1.84 1.9 1.87 1.92 2.02
2015.782 1.97 1.99 2.03 2.05 1.94 2.01 2.23 2.18 2.22 2.39
2035.072 2.39 2.4 2.41 2.37 2.42 2.6 2.64 2.63 2.84 2.88
2054.362 2.82 2.85 2.88 2.97 3.05 3.08 2.85 2.59 2.52 2.57
2073.651 2.81 2.86 2.82 2.73 2.58 2.51 2.56 2.53 2.41 2.28
2092.941 2.21 2.32 2.34 2.2 2.09 2.27 2.48 2.35 2.34 2.36
2112.231 2.38 2.34 2.37 2.41 2.43 2.43 2.38 2.49 2.5 2.35
2131.521 2.23 2.18 2.13 2.22 2.18 2.13 2.21 2.28 2.14 1.84
2150.810 1.86 1.97 1.83 1.69 1.57 1.4588 1.4847 1.4722 1.3715 1.4185
2170.100 1.4282 1.285 1.3955 1.4915 1.2705 1.1815 1.1753 1.1961 1.1811 1.0329
2189.390 1.0217 1.1204 1.1846 1.165 1.137 1.1812 1.209 1.091 1.0601 1.2185
2208.680 1.2547 1.208 1.1798 0.9851 0.9715 1.0831 1.1474 1.2076 1.0745 0.9637
2227.970 0.857 0.8835 1.0419 1.015 1.0525 1.1786 1.0075 0.8442 1.0793 1.3213
2247.259 1.3229 1.2435 1.0506 0.7688 0.6802 0.8964 0.9548 0.752 0.7835 0.8758
2266.549 0.9061 0.9799 1.0094 0.969 0.9327 0.9877 0.9885 0.8699 0.6765 0.6713
2285.839 0.7224 0.7323 0.9119 0.7987 0.61948 0.7004 0.8691 0.8835 0.9663 1.0223
2305.129 1.0586 1.1591 1.0745 1.0558 0.9493 0.8104 0.9203 0.9656 0.8514 0.9613
2324.418 0.8737 1.0082 1.178 0.9726 0.8451 0.9941 1.303 1.3415 1.3619 1.2726
2343.708 1.0328 1.1024 1.226 1.2043 1.2168 1.1235 0.982 0.9923 1.0758 1.0145
2362.998 1.1588 1.3092 1.2352 1.2136 1.1821 1.358 1.69 1.86 1.84 1.67
2382.288 1.59 1.75 2.01 2.04 1.9 1.89 1.94 1.98 1.76 1.7
2401.578 1.84 1.77 1.88 1.91 1.63 1.6 1.76 1.81 1.73 1.8
2420.867 2.1 2.11 2.08 2.15 2.27 2.43 2.44 2.43 2.58 2.62
2440.157 2.66 2.93 2.93 2.77 2.87 2.73 2.37 2.24 2.14 2.11
2459.447 2.22 2.39 2.34 2.2 2.31 2.37 2.27 2.22 2.27 2.43
2478.737 2.5 2.35 2.23 2.15 2.24 2.31 2.34 2.51 2.36 2.18
2498.026 2.13 2.17 2.2 2.03 2.02 2.05 2.08 1.8 1.4791 1.63
2517.316 1.64 1.5107 1.4128 1.3695 1.61 1.86 1.65 1.58 1.68 1.64
2536.606 1.55 1.4192 1.59 1.63 1.3247 1.4754 1.4235 1.2502 1.293 1.2469
2555.896 1.366 1.416 1.1878 0.9617 1.0404 1.1011 1.0707 1.0992 1.1611 1.057
2575.186 1.1659 1.2183 0.8908 0.8659 0.8864 0.8495 1.0068 1.1832 1.277 1.1945
2594.475 1.0836 1.2712 1.3419 1.3523 1.3414 1.0906 0.9472 0.6619 0.8233 0.9969
2613.765 0.8298 0.9148 1.0137 1.0311 1.0911 1.0538 0.9347 0.8125 0.7482 0.7583
2633.055 0.6432 0.7288 1.0686 1.285 1.1566 1.0812 0.9686 0.7781 0.8588 0.787
2652.345 0.6875 0.8857 0.9803 0.9882 1.0526 0.8682 0.7389 0.7078 0.55852 0.6832
2671.634 0.7134 0.8067 1.0726 0.9651 1.2482 1.2831 1.0249 1.0128 0.8259 0.8447
2690.924 1.174 1.0936 0.6816 0.6462 0.8365 1.0731 1.0394 0.9271 0.9193 0.7414
2710.214 0.58923 0.8147 0.9956 0.6716 0.60577 0.7755 0.7992 0.62975 0.4821 0.60699
2729.504 0.609 0.7058 0.8506 0.8069 0.6792 0.4489 0.467 0.8788 1.0758 1.1495
2748.794 1.1955 0.952 0.8701 0.9136 0.8604 0.6775 0.8067 0.9775 0.9191 1.107
2768.083 1.1531 1.2656 0.9091 0.5616 0.9099 1.0702 1.044 0.8431 0.8431 0.9147
2787.373 0.8268 1.0711 1.1618 0.8937 0.9575 0.9932 0.8394 1.0152 1.0271 0.8807
2806.663 0.8078 0.58621 0.9101 1.196 1.1147 0.8914 0.60104 0.916 1.2691 1.3524
2825.953 1.2524 1.3716 1.3728 1.6 1.98 1.82 1.74 2.07 2.75 3.16
2845.242 3.37 3.97 4.43 4.58 4.38 4.01 3.79 3.39 2.92 2.58
2864.532 2.33 2.15 2.1 2.04 2.02 1.95 1.83 1.88 1.93 2.07
2883.822 2.23 2.54 3.05 3.16 2.84 2.73 2.85 2.93 3.36 3.81
2903.112 3.73 3.47 3.74 3.93 3.74 3.9 4.05 4.29 4.23 3.89
2922.401 4.21 4.18 3.63 3.46 3.5 3.75 4.2 4.17 3.72 4.14
2941.691 4.97 5.46 6.27 7.13 8.57 10.6 12.67 15.59 19.18 22.28
2960.981 24.12 24.62 23.44 21.28 18.23 14.36 10.67 8.16 7 6.08
2980.271 5.22 4.68 4.72 4.67 4.75 5 4.93 4.99 5.27 5.41
2999.561 5.73 6.04 6.06 6.27 6.43 6.36 5.96 5.54 5.24 4.89
3018.850 4.61 4.63 4.89 5.14 5.44 5.43 5.39 5.53 5.3 5.2
3038.140 5.23 4.74 4.59 4.74 4.44 4.34 4.47 4.13 3.63 3.46
3057.430 3.6 3.63 3.36 3.64 4.01 3.95 4.23 4.45 4.42 4.79
3076.720 5.56 6.06 6.09 6.2 6.64 6.99 7.09 6.74 6.25 5.64
3096.009 4.96 4.51 3.99 3.41 2.85 2.67 2.65 2.53 2.41 2.19
3115.299 2.2 1.78 1.029 1.1353 1.374 1.4672 1.4056 1.2797 1.2497 1.1383
3134.589 1.2639 1.2915 1.57 1.64 1.59 1.3616 1.0286 1.2611 1.2598 1.5164
3153.879 1.0515 0.264 0.55617 0.9183 0.9249 1.1324 1.1666 0.7298 0.56978 0.8235
3173.169 1.0691 1.1932 1.2449 1.0339 0.8743 1.0932 1.3729 1.2327 1.2492 1.2761
3192.458 1.1474 0.9937 0.6747 0.62473 0.7666 0.8719 0.8861 0.7546 0.9792 0.8392
3211.748 0.6907 1.2645 1.2566 0.9667 0.8881 0.63531 0.58399 0.539254 0.339 0.7585
3231.038 1.0597 1.0324 1.1919 1.2018 1.1281 1.1774 0.8493 0.7512 0.9582 0.7371
3250.328 0.6391 0.9972 0.842 0.7269 0.57137 0.4411 0.57941 0.279 0.4715 0.8814
3269.617 0.7382 0.235 0.278 0.7915 1.003 0.7547 0.6757 0.736 0.7473 0.9145
3288.907 1.1412 1.0438 0.8551 0.63981 0.6816 1.0831 0.7218 0.8257 0.8343 0.31
3308.197 0.55102 0.7675 0.7005 0.7098 0.8329 0.8358 0.7505 0.7953 0.7656 0.5829
3327.487 0.7384 0.6694 0.6336 0.7898 0.071 0.01 0.392 0.211 0.112 0.318
3346.777 1.0664 1.2157 0.5191 0.04 0.355 0.6844 0.62865 0.59582 0.7134 0.9723
3366.066 0.9293 0.8307 0.7605 0.7689 0.8825 0.9892 0.928 0.8398 0.7675 0.6834
3385.356 0.6472 0.4483 0.432 0.7368 0.6617 0.074 0.041 0.392 0.306 0.198
3404.646 0.4689 0.5035 0.748 1.0602 0.8048 0.8961 0.5257 0.362 0.58063 0.6538
3423.936 1.222 1.2878 1.026 0.9744 0.8782 0.7441 0.7732 0.9498 0.9645 0.771
3443.225 1.0115 1.0148 0.8735 0.8578 0.62607 0.62995 0.9461 0.791 0.541116 0.9458
3462.515 1.1143 1.0997 1.4907 1.74 1.61 1.62 1.82 1.74 1.63 2.03
3481.805 2.21 1.89 1.56 1.57 1.61 1.59 1.4583 0.9995 0.9511 1.1154
3501.095 0.9864 1.3238 1.6 1.2604 0.8247 0.665 0.748 0.9465 0.8301 0.9343
3520.385 1.1409 0.58776 0.23 0.7098 1.1414 0.9837 0.7453 0.7642 0.9392 0.9445
3539.674 0.915 1.1609 1.4438 1.2008 0.61588 0.358 0.62066 0.59581 0.58005 0.437
3558.964 0.382 0.429 0.377 0.7238 1.0047 0.8906 0.6699 0.60965 0.773 0.9677
3578.254 1.3387 1.453 1.197 0.9017 0.6997 0.8276 0.8805 0.771 0.4885 0.6981
3597.544 0.433 0.366 0.8749 0.8551 0.9245 0.8442 0.8853 0.8789 0.6719 0.503
3616.833 0.318 0.5093 0.8067 0.7003 0.5692 0.369 0.4807 0.7337 0.61804 0.7967
3636.123 0.8978 0.6583 0.59414 0.6872 0.59287 0.5973 0.7799 0.9191 1.3427 1.5128
3655.413 1.11 0.7603 0.58536 0.8494 0.7414 0.4692 0.6912 0.9653 0.8501 0.63946
3674.703 0.8523 0.9414 0.8777 1.2256 0.8847 0.373 0.763 0.9627 0.458 0.006
3693.993 0.325 0.60547 0.62474 0.7004 0.63124 0.4431 0.55885 1.0154 0.8446 0.733
3713.282 0.9895 0.7196 0.9199 0.9483 0.9007 0.993 0.8334 0.7543 0.9448 0.9125
3732.572 0.544576 0.4788 0.4741 0.238 0.4993 0.8277 0.8379 0.9522 0.58306 0.541917
3751.862 0.6754 0.318 0.191 0.6925 0.60308 0.24 0.60113 1.0711 0.7427 0.4483
3771.152 0.7114 0.731 0.8768 0.9807 0.4661 0 0.4783 1.054 1.0234 0.9329
3790.441 0.9599 1.2347 1.2846 0.63987 0.56936 0.7942 0.409 0.4772 0.894 0.9925
3809.731 0.8167 0.6908 0.9904 0.7397 0.04 0.484 0.7091 0.702 1.0621 1.0957
3829.021 1.0809 0.9797 0.61388 0.6803 1.0623 1.0317 0.8144 0.542053 0.165 0.061
3848.311 0.7058 0.8555 0.7873 1.1175 1.0388 1.1422 0.9442 0.485 0.4702 0.161
3867.601 0.4561 1.3208 1.3491 1.1411 0.9646 0.6405 0.7326 0.4701 0.032 0.357
3886.890 1.0219 1.2033 0.9348 0.7451 0.57521 0.8975 1.3692 0.9616 0.6496 0.959
3906.180 1.3458 1.4636 0.8835 0.257 0.308 0.8889 0.6943 0.62423 0.4 0.3
3925.470 1.0097 0.8753 0.4653 0.6557 1.3438 1.3834 1.16 1.1878 0.60112 0.9038
3944.760 0.8924 0.287 0.895 0.4703 0.12 0.8955 0.8279 0.57002 0.8532 1.0404
3964.049 1.1633 1.1979 1.0703 0.941 1.1926 1.1371 1.0693 1.0984 0.6588 0.408
3983.339 0.33 0.273 0.33 0.4559 0.9201 1.3154 0.55233 0.373 0.9053 1.0397
##END=
