##TITLE=3,4-Methylenedioxy-.beta.-nitrostyrene
##JCAMP-DX=4.24
##DATA TYPE=INFRARED SPECTRUM
##ORIGIN=EPA-IR VAPOR PHASE LIBRARY
##OWNER=SRD/NIST
Collection (C) 2018 copyright by the U.S. Secretary of Commerce
on behalf of the United States of America. All rights reserved.
##CAS REGISTRY NO=1485-00-3
##MOLFORM=C 9 H 7 N O 4
##$NIST SOURCE=MSDC-IR
##STATE=gas
##XUNITS=1/CM
##YUNITS=ABSORBANCE
##XFACTOR=1.
##YFACTOR=0.001
##DELTAX=1.92898
##FIRSTX=549.8
##LASTX=4000.7
##FIRSTY=6.477
##MAXX=4000.7
##MINX=549.759
##MAXY=0.093227
##MINY=0
##NPOINTS=1790
##XYDATA=(X++(Y..Y))
549.759 6.477 5.517 4.607 3.977 3.377 2.477 1.707 1.3551 1.1578 1.1025
569.049 1.1275 1.1081 1.1024 0.9907 0.8505 0.9629 1.3196 1.507 1.587 2.017
588.339 2.307 2.497 2.677 2.707 3.087 3.097 2.957 2.927 2.717 2.637
607.628 2.587 2.357 2.037 1.767 1.777 2.087 1.987 1.887 1.877 1.927
626.918 2.297 2.607 2.557 2.477 2.297 1.987 1.607 1.4016 1.37 1.2192
646.208 1.2648 1.2055 1.0004 0.9217 0.8042 0.7312 0.8449 0.9388 0.754 0.711
665.498 0.7873 0.7507 0.714 0.7723 0.8941 0.7989 0.7819 0.898 0.9993 1.0141
684.787 0.8999 0.8192 0.7709 0.9377 1.2002 1.1209 1.0347 1.2283 1.3622 1.452
704.077 1.517 1.897 2.557 3.207 3.627 3.927 4.107 4.077 4.147 3.807
723.367 3.437 3.357 3.517 3.947 4.357 4.457 4.807 5.187 4.987 4.627
742.657 4.057 3.357 2.777 2.167 1.787 1.747 1.697 1.597 1.527 1.4
761.947 1.3464 1.3504 1.3867 1.577 1.557 1.527 1.587 1.537 1.607 1.727
781.236 1.917 2.187 2.547 3.187 3.757 4.407 5.607 7.067 8.357 9.497
800.526 10.747 12.007 13.217 14.237 14.237 13.247 12.517 12.017 11.427 10.657
819.816 9.967 9.587 9.287 9.217 8.887 8.577 8.417 8.067 7.647 7.207
839.106 6.837 6.477 6.307 6.057 5.477 5.287 5.247 4.927 4.747 4.687
858.395 4.667 4.547 4.297 4.167 3.867 3.517 3.207 2.777 2.477 2.297
877.685 2.327 2.347 2.167 2.077 2.017 2.037 2.137 2.157 2.197 2.477
896.975 2.787 2.807 2.707 3.157 3.457 3.627 4.087 4.687 5.387 6.027
916.265 6.807 7.747 8.887 9.957 11.007 12.057 13.137 14.317 15.177 15.847
935.555 16.637 17.397 18.077 18.647 18.917 19.057 19.117 19.257 19.467 19.657
954.844 20.017 20.467 20.707 20.907 20.917 20.167 18.767 17.147 15.367 13.067
974.134 10.807 8.937 7.367 6.217 5.127 4.337 3.957 3.607 3.457 3.427
993.424 3.437 3.507 3.277 3.207 3.577 3.767 3.877 4.167 4.417 4.817
1012.714 5.197 5.527 6.147 7.027 7.747 8.617 9.547 10.557 12.107 13.597
1032.003 15.127 17.047 19.127 20.997 22.867 24.747 26.007 26.917 27.637 27.707
1051.293 27.457 26.767 25.197 23.067 20.907 18.457 16.097 13.747 11.537 10.167
1070.583 8.887 7.637 7.197 6.487 5.847 5.787 5.527 5.537 5.567 6.027
1089.873 6.827 7.577 7.897 8.617 9.437 9.537 10.247 10.727 10.637 10.787
1109.163 10.077 9.507 9.217 8.677 8.627 7.967 7.077 6.597 6.177 5.927
1128.452 5.587 5.167 4.717 4.357 4.037 3.777 3.387 3.157 3.137 2.707
1147.742 2.137 1.867 1.867 1.967 2.087 1.997 1.877 1.947 2.017 1.877
1167.032 1.597 1.4858 1.607 1.867 2.167 2.177 2.177 2.647 3.167 3.117
1186.322 3.487 4.097 4.467 4.787 5.087 5.267 5.187 5.497 5.847 6.097
1205.611 6.477 7.487 8.967 10.657 12.627 14.577 17.037 19.897 22.927 25.827
1224.901 28.617 30.847 32.477 34.617 36.257 37.357 38.247 39.607 42.217 45.797
1244.191 51.307 58.587 66.717 74.757 81.367 85.317 85.107 80.527 72.797 63.537
1263.481 53.317 43.107 34.987 29.327 25.047 21.817 19.827 18.777 18.277 17.867
1282.771 17.187 16.447 15.657 14.367 12.927 11.957 11.367 10.837 10.347 9.737
1302.060 9.127 8.837 8.677 8.507 8.507 8.607 8.837 9.397 10.137 11.097
1321.350 12.407 14.167 16.567 19.847 24.217 29.947 37.457 46.897 57.977 69.877
1340.640 81.027 89.317 93.227 92.017 85.477 74.517 61.307 48.377 37.427 29.187
1359.930 23.337 18.947 15.447 12.657 10.407 8.707 7.487 6.617 5.997 5.537
1379.219 5.177 4.877 4.737 4.567 4.457 4.497 4.517 4.557 4.707 4.847
1398.509 4.967 5.037 5.037 5.017 4.957 4.877 4.887 4.977 5.107 5.347
1417.799 5.757 6.327 7.077 8.047 9.337 10.817 12.697 15.047 17.797 20.767
1437.089 23.967 27.287 30.677 34.037 36.727 38.057 37.857 36.367 33.617 29.617
1456.378 24.567 19.797 16.617 14.757 13.687 13.167 13.167 13.607 14.597 16.207
1475.668 18.607 22.117 26.977 33.547 42.157 52.557 63.197 71.387 74.997 73.767
1494.958 68.607 60.087 49.557 40.097 34.537 32.367 31.457 30.817 30.377 29.437
1514.248 27.517 25.357 24.107 23.877 24.347 25.587 27.507 29.957 33.007 36.587
1533.538 40.227 43.447 45.527 46.347 46.277 45.427 43.597 40.687 36.787 32.277
1552.827 28.007 24.287 21.347 18.837 17.057 15.887 14.887 14.117 13.487 12.997
1572.117 12.427 11.737 10.957 10.167 9.427 8.747 8.227 7.777 7.497 7.387
1591.407 7.407 7.727 8.347 9.067 9.787 10.527 11.237 11.877 12.387 12.857
1610.697 13.347 13.557 13.517 13.267 12.807 12.257 11.587 10.917 10.447 10.357
1629.986 10.867 11.997 13.357 14.837 16.227 17.017 17.007 16.247 14.747 12.717
1649.276 10.487 8.367 6.597 5.407 4.537 3.887 3.467 3.207 3.057 2.877
1668.566 2.717 2.687 2.617 2.557 2.537 2.447 2.307 2.227 2.127 2.067
1687.856 2.047 2.017 2.057 1.997 1.947 1.977 1.937 1.937 1.967 1.907
1707.146 1.797 1.717 1.757 1.817 1.787 1.717 1.747 1.757 1.697 1.637
1726.435 1.597 1.497 1.3661 1.247 1.159 1.2207 1.1702 1.1483 1.1955 1.1263
1745.725 1.115 1.1433 1.1491 1.1609 1.2264 1.3002 1.3374 1.3432 1.3659 1.4145
1765.015 1.4203 1.3689 1.3245 1.341 1.2988 1.2403 1.2738 1.2936 1.2988 1.3017
1784.305 1.2482 1.2214 1.2228 1.2014 1.2321 1.2397 1.2306 1.1979 1.149 1.1757
1803.594 1.1525 1.1378 1.1138 1.0702 1.1188 1.1465 1.0931 1.0798 1.1773 1.1961
1822.884 1.2032 1.3398 1.4612 1.537 1.627 1.757 1.857 1.897 1.987 2.007
1842.174 1.937 1.967 2.017 1.987 1.977 1.887 1.817 1.827 1.777 1.727
1861.464 1.747 1.767 1.767 1.787 1.807 1.797 1.827 1.917 1.867 1.817
1880.754 1.837 1.737 1.617 1.507 1.4668 1.4701 1.4829 1.497 1.45 1.4248
1900.043 1.4149 1.4079 1.4192 1.4314 1.507 1.537 1.4477 1.4092 1.4163 1.4376
1919.333 1.4726 1.487 1.527 1.507 1.4657 1.4636 1.422 1.3635 1.3681 1.351
1938.623 1.3048 1.2308 1.1462 1.1007 1.1206 1.0841 1.0381 1.0516 1.0361 1.0313
1957.913 1.0278 1.0134 0.986 0.9984 0.9795 0.9569 0.9328 0.906 0.954 0.9327
1977.202 0.8743 0.8989 1.0042 1.0162 0.9063 0.8979 0.9012 0.947 0.9879 0.942
1996.492 0.8987 0.9007 0.9381 0.9496 0.9463 0.9653 1.0114 0.9955 0.9454 0.9444
2015.782 1.0221 1.0373 1.0097 1.052 1.1093 1.1865 1.2373 1.2162 1.2448 1.2666
2035.072 1.3032 1.3735 1.3344 1.291 1.3175 1.3397 1.3904 1.4196 1.3771 1.3594
2054.362 1.415 1.4355 1.4154 1.4424 1.41 1.3202 1.3423 1.3524 1.3157 1.296
2073.651 1.2351 1.2337 1.2603 1.1742 1.0885 1.073 1.0762 1.031 0.9824 1.0255
2092.941 1.0016 0.9382 0.9633 0.9196 0.8103 0.7769 0.7208 0.7325 0.8132 0.8457
2112.231 0.7913 0.7556 0.8069 0.8132 0.7901 0.7828 0.7891 0.8314 0.7917 0.7353
2131.521 0.7896 0.7425 0.6779 0.7533 0.8189 0.8065 0.7824 0.8079 0.828 0.7865
2150.810 0.7722 0.8219 0.8526 0.8048 0.7353 0.7972 0.859 0.8317 0.8257 0.8442
2170.100 0.848 0.8893 0.8341 0.7954 0.8591 0.8331 0.8388 0.8523 0.8812 0.9005
2189.390 0.8463 0.8275 0.8353 0.8473 0.8892 0.9108 0.9207 0.9459 0.9679 0.8685
2208.680 0.8521 0.9126 0.9082 0.9809 0.9408 0.8998 0.9393 0.9103 0.9336 0.99
2227.970 1.0127 1.0527 1.0178 0.9972 1.0407 1.0604 1.0458 0.9904 0.9599 1.0144
2247.259 0.9676 0.8959 0.906 0.8802 0.9017 0.9503 0.9415 0.8996 0.9009 0.9585
2266.549 1.0122 1.0386 1.0237 1.0617 1.063 1.004 0.9612 0.9571 1.0765 1.1567
2285.839 1.1149 1.1149 1.182 1.1839 1.2368 1.2231 1.1659 1.2428 1.2896 1.2594
2305.129 1.1413 1.1144 1.2222 1.2276 1.246 1.2097 1.0478 1.0634 1.0692 0.9458
2324.418 0.9204 0.9199 0.9123 0.899 0.8864 0.8268 0.8119 0.7892 0.7244 0.7541
2343.708 0.765 0.7467 0.763 0.7457 0.7052 0.8056 0.8068 0.7132 0.7683 0.8236
2362.998 0.7729 0.7077 0.6569 0.7047 0.7363 0.7172 0.7959 0.7924 0.826 0.8711
2382.288 0.7866 0.6899 0.6523 0.6782 0.7772 0.8002 0.739 0.7515 0.7627 0.7587
2401.578 0.7269 0.7367 0.6986 0.6258 0.642 0.7288 0.8345 0.852 0.7877 0.7667
2420.867 0.8538 0.9583 0.9952 0.9437 0.8655 0.7752 0.8092 0.9652 0.927 0.8132
2440.157 0.8431 0.8844 0.9486 1.0148 1.0146 0.9449 0.7748 0.7728 0.8764 0.8809
2459.447 0.8991 0.846 0.8433 0.886 0.8772 0.9045 0.9268 0.8458 0.8335 0.9468
2478.737 0.983 0.925 0.8999 0.7946 0.681 0.7442 0.8171 0.8369 0.8192 0.8207
2498.026 0.8364 0.8752 0.941 0.979 1.0071 1.0039 0.9782 0.9643 0.9715 0.9686
2517.316 0.982 1.0405 1.0644 1.0037 1.0315 1.0828 1.0947 1.1397 1.1335 1.1353
2536.606 1.1821 1.2446 1.22 1.2565 1.3026 1.2487 1.2149 1.2529 1.2911 1.2453
2555.896 1.2491 1.3233 1.3018 1.2817 1.2893 1.2844 1.3781 1.4635 1.4677 1.4367
2575.186 1.3628 1.3553 1.4271 1.4238 1.3841 1.364 1.4325 1.497 1.577 1.657
2594.475 1.547 1.547 1.567 1.587 1.697 1.657 1.577 1.577 1.577 1.537
2613.765 1.487 1.4652 1.4113 1.3505 1.3213 1.2274 1.1155 1.0779 1.133 1.0199
2633.055 0.8856 0.8527 0.8651 0.8877 0.9079 0.935 0.8527 0.8481 0.8952 0.9246
2652.345 0.9347 0.9349 0.9453 0.9332 0.9887 0.9939 1.0268 1.0151 0.9382 1.0156
2671.634 1.0241 0.9504 1.0275 1.1912 1.2491 1.2058 1.1556 1.2189 1.3849 1.3923
2690.924 1.3292 1.4046 1.4313 1.3104 1.2675 1.3711 1.4048 1.3632 1.3001 1.3493
2710.214 1.3287 1.2871 1.3856 1.3426 1.2094 1.1697 1.1725 1.1498 1.1669 1.1453
2729.504 1.0927 0.9987 0.9568 1.0821 1.1083 1.1361 1.1591 1.178 1.2618 1.1953
2748.794 1.0913 1.0765 1.142 1.2704 1.4231 1.487 1.517 1.677 1.757 1.767
2768.083 2.077 2.447 2.697 3.047 3.407 3.497 3.447 3.477 3.387 3.007
2787.373 2.557 2.257 2.077 1.947 1.867 1.787 1.687 1.627 1.587 1.657
2806.663 1.727 1.697 1.677 1.717 1.827 1.867 1.797 1.717 1.787 1.937
2825.953 1.967 2.077 2.157 2.287 2.527 2.567 2.617 2.807 2.907 2.997
2845.242 3.147 3.297 3.387 3.507 3.747 4.027 4.217 4.527 4.867 4.947
2864.532 5.217 5.687 6.027 6.457 6.937 7.437 7.967 8.527 9.067 9.367
2883.822 9.557 9.737 9.707 9.487 9.237 8.937 8.637 8.317 8.137 8.067
2903.112 7.797 7.597 7.557 7.667 7.857 8.027 8.427 8.857 9.147 9.487
2922.401 9.607 9.487 9.397 9.117 8.657 8.177 7.817 7.467 7.057 6.827
2941.691 6.647 6.377 6.277 6.307 6.347 6.437 6.487 6.467 6.437 6.337
2960.981 6.077 5.937 5.727 5.427 5.107 4.737 4.337 4.107 3.927 3.667
2980.271 3.427 3.257 3.247 3.247 3.137 2.977 2.977 3.077 3.127 3.157
2999.561 3.127 3.047 3.127 3.207 3.337 3.467 3.467 3.597 3.857 4.147
3018.850 4.347 4.477 4.417 4.217 3.927 3.587 3.397 3.227 2.947 2.717
3038.140 2.547 2.537 2.447 2.217 2.127 2.227 2.277 2.117 2.027 2.057
3057.430 2.107 2.047 2.017 2.057 2.067 2.137 2.337 2.357 2.287 2.567
3076.720 2.857 2.897 2.817 2.637 2.467 2.287 2.027 1.917 1.927 1.907
3096.009 1.827 1.737 1.707 1.797 1.967 2.267 2.727 3.127 3.317 3.407
3115.299 3.497 3.277 2.947 2.637 2.117 1.687 1.39 1.0699 0.8972 0.9036
3134.589 0.9127 0.783 0.6658 0.598 0.6255 0.7095 0.5964 0.54593 0.6322 0.7015
3153.879 0.6496 0.54294 0.51462 0.6137 0.6977 0.7018 0.6812 0.57416 0.518 0.4759
3173.169 0.50783 0.7229 0.8313 0.6793 0.5466 0.50879 0.53561 0.6618 0.6128 0.56544
3192.458 0.6061 0.5535 0.4263 0.490831 0.7375 0.7458 0.708 0.8417 0.7668 0.55612
3211.748 0.6006 0.6489 0.6387 0.6908 0.6672 0.7207 0.8133 0.7081 0.7825 0.9623
3231.038 0.905 0.8244 0.8134 0.8217 0.8741 0.8226 0.6561 0.5955 0.5908 0.622
3250.328 0.5943 0.51971 0.50121 0.4238 0.492002 0.56838 0.56797 0.53137 0.55343 0.56209
3269.617 0.47712 0.54951 0.54952 0.52065 0.6071 0.6474 0.52538 0.50804 0.52262 0.492996
3288.907 0.489466 0.4139 0.50553 0.6778 0.6024 0.53394 0.6298 0.6652 0.52717 0.47882
3308.197 0.4647 0.333 0.308 0.3948 0.55143 0.6146 0.55357 0.57139 0.6891 0.6211
3327.487 0.54969 0.54372 0.4694 0.487097 0.49887 0.52977 0.6783 0.6998 0.638 0.744
3346.777 0.7233 0.51548 0.52082 0.55571 0.5939 0.6664 0.6231 0.6615 0.617 0.6824
3366.066 0.7745 0.8172 0.8633 0.7986 0.5909 0.4647 0.6435 0.6221 0.6278 0.663
3385.356 0.56687 0.56683 0.55495 0.4659 0.324 0.448 0.54959 0.6407 0.6257 0.4476
3404.646 0.54341 0.6122 0.4402 0.355 0.4744 0.6129 0.6906 0.56752 0.58185 0.6527
3423.936 0.628 0.5872 0.4719 0.51228 0.58083 0.4154 0.4081 0.52633 0.381 0.3899
3443.225 0.487439 0.51032 0.4689 0.49809 0.591 0.53105 0.4758 0.53829 0.5976 0.50424
3462.515 0.51728 0.5921 0.615 0.56516 0.4751 0.52252 0.5985 0.6039 0.621 0.6035
3481.805 0.7283 0.7789 0.6662 0.6269 0.52814 0.47804 0.52526 0.6773 0.7242 0.631
3501.095 0.6416 0.4454 0.304 0.3921 0.491651 0.57831 0.5889 0.6218 0.50955 0.336
3520.385 0.323 0.4004 0.4115 0.48487 0.53747 0.4497 0.4636 0.6302 0.708 0.555
3539.674 0.486846 0.51747 0.351 0.305 0.4393 0.4449 0.37 0.423 0.6073 0.5952
3558.964 0.4689 0.4166 0.345 0.52651 0.7261 0.6477 0.4304 0.492407 0.6771 0.57363
3578.254 0.4642 0.3871 0.4234 0.6253 0.6913 0.593 0.5944 0.6293 0.50874 0.51577
3597.544 0.6131 0.6721 0.5977 0.50718 0.51103 0.4307 0.4267 0.6211 0.6747 0.4257
3616.833 0.4228 0.6507 0.7161 0.4719 0.304 0.363 0.305 0.353 0.56749 0.7289
3636.123 0.6012 0.3949 0.47796 0.5873 0.57597 0.316 0.309 0.49827 0.48167 0.54733
3655.413 0.51544 0.351 0.4685 0.6665 0.57362 0.372 0.4556 0.5928 0.4499 0.4194
3674.703 0.4256 0.4451 0.5937 0.6372 0.48086 0.491223 0.4486 0.324 0.6714 0.7079
3693.993 0.4505 0.4425 0.51082 0.57047 0.51138 0.609 0.6399 0.50073 0.4333 0.4399
3713.282 0.7569 0.8122 0.57138 0.38 0.336 0.4336 0.52506 0.493253 0.4643 0.49702
3732.572 0.5675 0.57065 0.435 0.714 0.6239 0.169 0.121 0.303 0.376 0.51678
3751.862 0.649 0.50355 0.4021 0.4543 0.57319 0.6807 0.7064 0.6567 0.53495 0.4147
3771.152 0.490721 0.53069 0.496541 0.4715 0.4113 0.486536 0.4636 0.55 0.6533 0.47903
3790.441 0.4668 0.53628 0.50427 0.57002 0.55707 0.359 0.4005 0.4001 0.4267 0.56768
3809.731 0.7987 0.991 0.7547 0.56016 0.7266 0.6753 0.6206 0.7567 0.6747 0.6537
3829.021 0.8077 0.847 0.5989 0.303 0 0.153 0.4508 0.52203 0.55154 0.487673
3848.311 0.495364 0.5287 0.4575 0.4074 0.58028 0.6989 0.6394 0.6131 0.6458 0.6059
3867.601 0.54745 0.5932 0.6818 0.5405 0.54234 0.6816 0.6346 0.57899 0.57528 0.6968
3886.890 0.6997 0.7217 0.8277 0.6553 0.6197 0.6537 0.51882 0.4752 0.432 0.51489
3906.180 0.51153 0.4406 0.48069 0.490284 0.634 0.6579 0.5884 0.6618 0.755 0.8244
3925.470 0.6392 0.421 0.50936 0.55358 0.56969 0.8134 0.8108 0.733 0.6132 0.4479
3944.760 0.5922 0.7087 0.6176 0.6197 0.6842 0.55072 0.52529 0.6843 0.7838 0.7463
3964.049 0.8082 0.8672 0.7742 0.6341 0.52251 0.56672 0.56762 0.6053 0.7556 0.7992
3983.339 0.8124 0.7452 0.8163 0.8985 0.7137 0.7237 0.7519 0.59 0.55075 0.50292
##END=
