##TITLE=2-Hexadecanol
##JCAMP-DX=4.24
##DATA TYPE=INFRARED SPECTRUM
##ORIGIN=NIST Mass Spectrometry Data Center
##OWNER=NIST Standard Reference Data Program
Collection (C) 2018 copyright by the U.S. Secretary of Commerce
on behalf of the United States of America. All rights reserved.
##CAS REGISTRY NO=14852-31-4
##MOLFORM=C 16 H 34 O
##$NIST SOURCE=MSDC-IR
##SPECTROMETER/DATA SYSTEM=HP-GC/MS/IRD
##STATE=gas
##XUNITS=1/CM
##YUNITS=ABSORBANCE
##XFACTOR=1.0
##YFACTOR=0.000006700
##DELTAX=4.0
##FIRSTX=550.0
##LASTX=3846.0
##FIRSTY=0.000147
##MAXX=3846
##MINX=550
##MAXY=0.067
##MINY=0
##NPOINTS=825
##XYDATA=(X++(Y..Y))
550.0 22 8 11 14 15 10 2 0 11 22
590.0 18 30 31 22 26 28 20 16 15 12
630.0 7 12 9 0 2 6 14 14 11 23
670.0 26 15 10 21 23 29 52 70 83 98
710.0 124 142 145 148 136 126 118 108 101 86
750.0 79 69 64 66 64 62 63 57 60 66
790.0 60 53 56 59 65 72 69 73 57 59
830.0 82 93 101 105 105 101 93 91 94 96
870.0 102 102 97 104 114 115 121 134 146 155
910.0 171 189 201 213 230 246 256 254 248 238
950.0 226 207 194 190 190 189 188 191 195 198
990.0 204 218 234 248 258 274 282 285 291 295
1030.0 292 294 307 321 332 338 344 344 342 346
1070.0 353 358 359 369 387 405 419 428 430 428
1110.0 425 408 390 380 375 370 355 333 305 278
1150.0 253 236 218 202 194 184 174 166 163 163
1190.0 166 172 175 180 188 199 212 225 238 255
1230.0 279 296 314 332 332 323 307 286 264 251
1270.0 242 235 228 224 230 236 238 242 242 247
1310.0 250 250 248 242 250 267 297 338 374 412
1350.0 452 477 491 509 516 531 560 577 571 533
1390.0 470 409 354 308 275 243 226 223 217 223
1430.0 247 293 350 412 502 590 684 750 754 703
1470.0 604 478 349 255 205 165 133 112 99 106
1510.0 97 76 74 71 58 51 48 50 52 42
1550.0 34 38 48 36 25 22 21 18 8 8
1590.0 10 8 7 12 13 12 15 17 13 12
1630.0 13 20 19 18 22 30 32 17 15 18
1670.0 23 26 23 27 28 20 24 34 35 27
1710.0 24 33 39 30 31 41 49 40 30 29
1750.0 33 26 17 17 19 18 16 14 13 14
1790.0 14 17 15 15 14 12 12 11 9 9
1830.0 10 8 6 14 17 11 9 8 7 8
1870.0 7 3 4 4 8 11 8 4 2 2
1910.0 3 5 8 6 4 5 6 7 8 4
1950.0 3 4 7 8 7 7 6 5 5 3
1990.0 5 6 7 11 10 10 11 12 11 13
2030.0 16 13 11 13 15 12 8 8 8 7
2070.0 9 8 5 7 8 7 8 8 6 8
2110.0 9 10 10 10 9 8 6 6 8 8
2150.0 8 8 12 12 9 13 14 11 9 8
2190.0 10 12 11 8 12 14 12 13 14 10
2230.0 14 14 13 12 10 12 13 12 9 11
2270.0 10 7 9 11 12 12 11 10 7 3
2310.0 3 0 0 0 0 0 0 2 2 4
2350.0 5 0 0 0 0 0 1 6 10 19
2390.0 23 22 22 21 20 21 21 21 21 19
2430.0 20 21 19 16 19 23 21 22 25 24
2470.0 24 24 23 26 28 26 24 24 25 28
2510.0 30 32 32 33 36 37 40 41 40 42
2550.0 43 43 40 39 43 49 49 49 51 55
2590.0 58 62 64 67 71 70 71 76 78 79
2630.0 82 90 94 96 99 101 105 106 111 115
2670.0 118 120 119 122 123 119 115 115 114 115
2710.0 117 116 116 117 120 124 129 134 138 142
2750.0 143 145 151 159 165 171 177 187 203 218
2790.0 233 251 272 295 325 356 392 432 478 539
2830.0 612 708 850 1058 1371 1853 2527 3250 3696 3664
2870.0 3310 2895 2579 2390 2275 2225 2278 2466 2798 3263
2910.0 3848 4577 5561 6930 8545 9793 10000 9103 7585 6000
2950.0 4690 3789 3291 3087 2996 2831 2517 2124 1731 1372
2990.0 1065 835 677 563 474 405 357 315 280 257
3030.0 235 211 194 179 164 156 146 132 121 113
3070.0 108 106 107 104 98 96 93 83 84 85
3110.0 82 79 76 75 72 69 68 66 68 68
3150.0 64 64 65 62 58 57 54 53 54 56
3190.0 57 54 47 46 47 42 40 41 41 38
3230.0 34 36 31 26 26 22 19 23 26 23
3270.0 20 17 16 26 24 18 22 19 11 18
3310.0 24 25 23 20 21 18 15 17 18 18
3350.0 17 18 19 22 26 21 12 7 10 15
3390.0 20 20 16 15 23 26 21 17 15 19
3430.0 22 23 21 17 15 14 10 9 9 11
3470.0 11 12 15 15 10 7 9 7 4 6
3510.0 6 4 0 2 7 3 8 7 9 12
3550.0 8 5 4 4 13 13 6 9 8 13
3590.0 20 16 14 17 31 40 37 43 53 74
3630.0 92 88 100 118 153 187 196 179 145 122
3670.0 104 79 54 39 35 35 25 14 17 19
3710.0 22 20 15 17 20 21 26 21 24 35
3750.0 29 17 14 14 17 13 5 5 5 7
3790.0 6 6 11 16 14 14 16 19 18 15
3830.0 16 19 23 16 7
##END=
