##TITLE=trans-Cyclododecene
##JCAMP-DX=4.24
##DATA TYPE=INFRARED SPECTRUM
##ORIGIN=NIST Mass Spectrometry Data Center
##OWNER=NIST Standard Reference Data Program
Collection (C) 2018 copyright by the U.S. Secretary of Commerce
on behalf of the United States of America. All rights reserved.
##CAS REGISTRY NO=1486-75-5
##MOLFORM=C 12 H 22
##$NIST SOURCE=MSDC-IR
##SPECTROMETER/DATA SYSTEM=HP-GC/MS/IRD
##STATE=gas
##XUNITS=1/CM
##YUNITS=ABSORBANCE
##XFACTOR=1.0
##YFACTOR=0.000006600
##DELTAX=4.0
##FIRSTX=550.0
##LASTX=3846.0
##FIRSTY=0.000475
##MAXX=3846
##MINX=550
##MAXY=0.066
##MINY=0
##NPOINTS=825
##XYDATA=(X++(Y..Y))
550.0 72 51 36 18 17 14 1 8 14 9
590.0 6 12 15 14 13 7 7 12 14 10
630.0 11 15 18 21 12 14 24 22 17 21
670.0 26 25 36 65 88 110 146 174 189 196
710.0 192 193 197 195 188 175 155 130 113 104
750.0 100 99 94 87 85 90 89 82 77 69
790.0 65 68 71 72 76 70 66 67 59 54
830.0 51 55 60 60 65 66 62 63 59 52
870.0 51 49 45 49 53 54 57 62 63 59
910.0 66 72 69 67 68 74 78 86 99 126
950.0 172 250 399 640 941 1186 1275 1190 944 643
990.0 417 291 229 197 178 166 156 147 137 133
1030.0 121 111 111 103 98 99 94 85 84 77
1070.0 70 71 70 69 66 66 69 66 62 58
1110.0 52 53 54 52 49 41 33 37 40 36
1150.0 35 39 42 38 34 33 31 32 41 49
1190.0 50 50 53 56 58 54 53 54 48 48
1230.0 54 60 63 60 57 54 61 70 77 84
1270.0 89 94 100 107 116 126 130 133 134 126
1310.0 120 118 119 118 123 139 169 217 243 250
1350.0 247 223 191 159 116 87 76 64 57 60
1390.0 59 64 70 68 76 86 99 121 139 172
1430.0 244 369 536 710 868 955 980 936 837 698
1470.0 531 383 253 161 116 95 74 62 56 71
1510.0 78 60 54 50 40 33 31 31 37 35
1550.0 30 31 32 18 11 13 8 8 12 11
1590.0 11 10 11 14 14 13 12 12 15 14
1630.0 10 13 16 17 22 27 29 23 21 25
1670.0 26 24 24 29 29 22 24 31 30 22
1710.0 18 29 32 24 24 35 41 34 33 39
1750.0 47 40 35 33 36 37 28 31 37 33
1790.0 32 28 26 26 18 18 16 16 17 19
1830.0 18 16 14 20 22 14 11 13 14 18
1870.0 17 12 11 11 11 13 11 8 5 5
1910.0 5 6 8 7 6 3 5 6 8 6
1950.0 3 2 2 1 3 5 6 6 1 1
1990.0 6 8 6 6 7 6 7 12 11 9
2030.0 6 3 4 6 5 5 6 7 8 9
2070.0 9 6 5 4 4 4 2 1 2 5
2110.0 6 5 4 5 7 8 7 5 7 7
2150.0 6 7 8 8 7 7 9 9 6 6
2190.0 5 3 6 9 9 8 8 7 5 3
2230.0 5 3 4 5 5 4 4 6 7 7
2270.0 7 6 2 2 5 7 6 6 6 8
2310.0 11 10 9 11 9 7 7 8 7 8
2350.0 7 5 6 10 9 8 7 6 7 7
2390.0 6 5 3 4 5 4 4 2 0 3
2430.0 3 2 3 4 4 2 3 5 7 5
2470.0 7 5 5 7 9 10 12 12 13 13
2510.0 14 13 10 9 11 14 15 16 18 19
2550.0 19 20 17 18 22 20 19 21 22 27
2590.0 28 27 28 31 37 40 40 42 45 47
2630.0 52 60 66 69 73 77 82 86 94 105
2670.0 110 114 118 118 115 109 101 93 84 79
2710.0 76 71 68 67 68 72 73 72 74 77
2750.0 80 85 90 98 100 101 108 117 132 145
2790.0 158 174 189 206 227 242 264 288 317 355
2830.0 411 506 675 971 1443 2089 2787 3360 3677 3691
2870.0 3419 2966 2501 2134 1919 1908 2139 2621 3279 4076
2910.0 4888 5613 6580 7886 9176 10000 9998 9092 7625 6071
2950.0 4685 3567 2729 2139 1751 1505 1339 1201 1070 939
2990.0 808 696 601 532 495 480 479 479 462 424
3030.0 365 299 241 193 158 139 126 114 102 91
3070.0 81 73 72 74 67 60 58 58 56 53
3110.0 56 58 56 54 53 52 50 49 48 50
3150.0 54 53 51 46 42 40 40 45 44 38
3190.0 37 36 35 37 35 38 39 38 36 38
3230.0 37 32 32 29 27 28 25 26 25 22
3270.0 22 25 28 26 24 20 17 20 20 18
3310.0 20 22 16 13 18 20 20 19 19 21
3350.0 16 12 11 12 12 13 18 22 19 20
3390.0 19 15 14 18 18 17 21 17 13 13
3430.0 11 9 12 14 11 9 5 8 9 7
3470.0 9 12 14 13 8 2 2 9 15 14
3510.0 8 0 5 18 18 8 11 14 14 16
3550.0 11 7 7 17 33 18 0 1 7 26
3590.0 27 18 16 13 18 27 27 26 20 26
3630.0 32 19 13 12 23 30 24 15 5 10
3670.0 19 21 14 9 14 18 11 11 13 13
3710.0 15 18 17 26 28 19 31 26 21 23
3750.0 14 13 12 15 15 11 1 0 2 3
3790.0 2 5 5 1 0 4 8 13 15 9
3830.0 4 11 14 7 1
##END=
