##TITLE=4-Benzyloxybenzoic acid
##JCAMP-DX=4.24
##DATA TYPE=INFRARED SPECTRUM
##ORIGIN=EPA-IR VAPOR PHASE LIBRARY
##OWNER=SRD/NIST
Collection (C) 2018 copyright by the U.S. Secretary of Commerce
on behalf of the United States of America. All rights reserved.
##CAS REGISTRY NO=1486-51-7
##MOLFORM=C 14 H 12 O 3
##$NIST SOURCE=MSDC-IR
##STATE=gas
##XUNITS=1/CM
##YUNITS=ABSORBANCE
##XFACTOR=1.
##YFACTOR=0.001
##DELTAX=3.85796
##FIRSTX=551.7
##LASTX=4000.7
##FIRSTY=3.35
##MAXX=4000.7
##MINX=551.688
##MAXY=0.04112
##MINY=0.0004931
##NPOINTS=895
##XYDATA=(X++(Y..Y))
551.688 3.35 3.64 4 4.44 4.72 4.68 4.35 4.03 4.02 4.35
590.268 4.55 4.34 3.78 3.28 3.06 2.98 3.03 3.34 3.96 5
628.847 5.93 5.63 4.36 3.19 2.55 2.18 1.88 1.74 1.71 1.79
667.427 1.94 2.22 2.63 3.11 3.76 4.59 5.58 6.42 6.73 6.8
706.006 6.94 6.91 6.36 5.51 4.96 4.74 4.67 4.61 4.38 4.06
744.586 3.8 3.63 3.65 3.93 4.47 5.11 5.63 5.63 4.95 4.07
783.165 3.29 2.76 2.5 2.35 2.29 2.33 2.46 2.45 2.19 2.01
821.745 1.94 1.97 2.12 2.43 2.87 3.39 3.95 4.23 4.07 3.59
860.324 2.97 2.36 1.96 1.76 1.6 1.5 1.49 1.54 1.6 1.63
898.904 1.72 1.82 1.82 1.79 1.73 1.64 1.56 1.48 1.44 1.49
937.484 1.53 1.52 1.54 1.6 1.67 1.82 2 2.17 2.44 2.77
976.063 3.09 3.41 3.83 4.28 4.73 5.3 5.99 6.82 7.8 8.72
1014.643 9.49 9.86 9.62 8.65 7.28 6.05 5.18 4.68 4.48 4.51
1053.222 4.83 5.59 6.82 8.82 11.82 15.51 18.91 19.77 16.94 12.41
1091.802 8.59 6.14 4.92 4.26 3.77 3.6 3.48 3.41 3.4 3.44
1130.381 3.62 3.93 4.4 5.17 6.52 8.96 13.83 22.14 30.58 32.09
1168.961 25.22 16.84 12.41 11.4 11.62 11.46 10.31 8.55 7.39 7.32
1207.540 7.92 9.2 10.99 12.75 14.17 15.21 15.75 16.11 16.85 18.16
1246.120 19.48 19.8 18.8 16.87 14.43 11.84 9.55 7.85 6.8 6.29
1284.699 6.24 6.61 7.22 7.79 8.06 7.97 7.75 7.73 8.02 8.43
1323.279 8.84 9.12 8.88 7.91 6.62 5.69 5.49 6.03 7.34 9.23
1361.859 10.66 10.41 8.63 6.75 5.61 4.78 3.87 3.05 2.55 2.31
1400.438 2.22 2.28 2.5 2.86 3.2 3.24 2.9 2.41 2.1 2.03
1439.018 2.12 2.26 2.47 2.73 2.92 3.07 3.2 3.28 3.15 2.77
1477.597 2.42 2.35 2.54 3.02 3.96 5.57 8.09 11.15 13.1 12
1516.177 8.64 5.51 3.8 2.96 2.48 2.26 2.15 2.1 2.1 2.15
1554.756 2.25 2.45 2.75 3.15 3.68 4.37 5.26 6.1 6.87 7.86
1593.336 9.72 12.72 16.2 18.4 17.38 13.55 9.35 6.43 4.67 3.53
1631.915 2.77 2.25 1.96 1.81 1.72 1.64 1.6 1.56 1.52 1.47
1670.495 1.44 1.46 1.49 1.53 1.64 1.76 1.89 2.04 2.28 2.64
1709.075 3.11 3.62 4 4.18 4.33 4.71 5.58 7.22 9.98 14.7
1747.654 22.46 33.17 41.12 39.45 28.86 17.86 11.2 7.65 5.65 4.39
1786.234 3.53 2.96 2.6 2.37 2.2 2.08 1.98 1.89 1.81 1.72
1824.813 1.6 1.46 1.33 1.22 1.14 1.08 1.06 1.07 1.07 1.06
1863.393 1.05 1.06 1.08 1.1 1.13 1.15 1.16 1.18 1.22 1.21
1901.972 1.21 1.23 1.23 1.22 1.22 1.18 1.14 1.13 1.14 1.15
1940.552 1.12 1.09 1.1 1.13 1.15 1.15 1.12 1.07 1.04 1.04
1979.131 1.01 0.9711 0.9471 0.9265 0.9062 0.8944 0.8796 0.8655 0.8758 0.9051
2017.711 0.9176 0.9249 0.8985 0.8596 0.8357 0.8212 0.8107 0.782 0.7632 0.769
2056.291 0.7667 0.751 0.7502 0.7352 0.7263 0.7203 0.7053 0.6891 0.6903 0.7063
2094.870 0.6767 0.6558 0.6556 0.6468 0.6369 0.6006 0.5844 0.6028 0.6051 0.6073
2133.450 0.6105 0.6223 0.6402 0.6491 0.6606 0.6637 0.6381 0.6074 0.6059 0.595
2172.029 0.5706 0.5651 0.5542 0.538 0.5211 0.5157 0.5378 0.5433 0.5284 0.5285
2210.609 0.5428 0.5582 0.5573 0.5623 0.56 0.5633 0.5738 0.5645 0.562 0.5681
2249.188 0.5747 0.5525 0.5272 0.5425 0.5484 0.5484 0.5565 0.5553 0.5608 0.5646
2287.768 0.5602 0.5381 0.5309 0.5659 0.5979 0.6064 0.606 0.6158 0.6183 0.6123
2326.347 0.6247 0.621 0.6158 0.5972 0.5719 0.5976 0.6114 0.5984 0.5991 0.6186
2364.927 0.6402 0.6469 0.6372 0.6104 0.6001 0.6169 0.6155 0.6148 0.635 0.6478
2403.507 0.674 0.708 0.7066 0.7016 0.7167 0.7036 0.6913 0.6876 0.689 0.7093
2442.086 0.7028 0.6757 0.6609 0.6672 0.676 0.696 0.694 0.6546 0.6547 0.6735
2480.666 0.6576 0.6366 0.6548 0.6655 0.643 0.6386 0.6341 0.6364 0.6232 0.6288
2519.245 0.6593 0.673 0.6866 0.6816 0.6825 0.6903 0.6796 0.6942 0.7449 0.7358
2557.825 0.7219 0.7267 0.71 0.6997 0.6952 0.6888 0.6943 0.6992 0.685 0.6945
2596.404 0.6878 0.6609 0.6419 0.6445 0.6269 0.6057 0.6032 0.58 0.5921 0.5785
2634.984 0.5383 0.5593 0.5738 0.5576 0.5444 0.5238 0.5101 0.5148 0.5344 0.5508
2673.563 0.5595 0.5676 0.5876 0.581 0.5508 0.5557 0.5787 0.602 0.6091 0.5984
2712.143 0.6022 0.5925 0.575 0.5715 0.5802 0.613 0.6354 0.6394 0.6289 0.6254
2750.722 0.6043 0.5992 0.6033 0.6082 0.6497 0.663 0.6466 0.6349 0.6246 0.6003
2789.302 0.6303 0.6692 0.6675 0.6602 0.6526 0.6536 0.6807 0.6914 0.7264 0.7576
2827.882 0.7849 0.8331 0.8768 0.8863 0.896 0.9279 0.9176 0.9991 1.09 1.15
2866.461 1.25 1.37 1.48 1.62 1.75 1.83 1.87 1.85 1.8 1.74
2905.041 1.66 1.61 1.56 1.55 1.6 1.67 1.72 1.75 1.8 1.8
2943.620 1.79 1.83 1.88 1.9 1.85 1.66 1.44 1.3 1.21 1.11
2982.200 1.02 0.9626 0.9355 0.9266 0.9548 1 1.08 1.19 1.3 1.46
3020.779 1.7 2.02 2.36 2.68 2.93 3.01 2.86 2.68 2.56 2.54
3059.359 2.65 2.86 3.24 3.64 3.77 3.53 3.1 2.78 2.5 2.24
3097.938 2.04 1.88 1.76 1.62 1.45 1.31 1.17 1.03 0.914 0.8292
3136.518 0.7782 0.7011 0.6597 0.6582 0.6849 0.7071 0.6529 0.6266 0.606 0.6196
3175.098 0.6205 0.5466 0.5302 0.5534 0.6126 0.6317 0.5784 0.559 0.5803 0.6097
3213.677 0.5733 0.5452 0.5761 0.5745 0.521 0.5236 0.5575 0.5642 0.5873 0.5348
3252.257 0.5307 0.5618 0.5267 0.5505 0.5398 0.5216 0.5554 0.5366 0.5448 0.5682
3290.836 0.5489 0.58 0.5681 0.5131 0.5019 0.5111 0.5362 0.5348 0.5094 0.5012
3329.416 0.5162 0.5478 0.5752 0.5688 0.5929 0.6754 0.6654 0.6504 0.6556 0.6409
3367.995 0.6778 0.6837 0.6672 0.6207 0.6582 0.702 0.679 0.6709 0.6587 0.6025
3406.575 0.5458 0.5505 0.62 0.6452 0.6217 0.6119 0.5932 0.5689 0.556 0.5679
3445.154 0.5337 0.5563 0.6332 0.7133 0.7224 0.7085 0.7026 0.6435 0.6562 0.699
3483.734 0.8055 0.8657 0.8282 0.862 0.8564 0.7683 0.7315 0.7239 0.6986 0.7332
3522.314 0.7588 0.7241 0.6409 0.6204 0.6635 0.694 0.7628 0.8362 0.8906 0.9711
3560.893 1.13 1.42 2.02 3.17 5.57 9.96 13.82 13.09 8.18 3.78
3599.473 2.01 1.36 1.07 0.9673 0.8545 0.7903 0.7527 0.7383 0.7447 0.6979
3638.052 0.7051 0.7382 0.6949 0.6625 0.5963 0.5652 0.6097 0.672 0.6963 0.6474
3676.632 0.6076 0.6526 0.6966 0.6728 0.6362 0.614 0.6167 0.5933 0.6035 0.655
3715.211 0.6229 0.6185 0.6277 0.5871 0.536 0.4978 0.5643 0.6119 0.5872 0.618
3753.791 0.5788 0.5588 0.5701 0.5439 0.5777 0.6057 0.5826 0.6217 0.6378 0.628
3792.370 0.6339 0.5239 0.4931 0.5255 0.5275 0.557 0.5686 0.6081 0.6026 0.5419
3830.950 0.5626 0.6155 0.5834 0.5622 0.5961 0.6297 0.6491 0.6058 0.5059 0.5265
3869.530 0.6004 0.5817 0.5797 0.5748 0.5862 0.5777 0.5714 0.6075 0.5809 0.5635
3908.109 0.5939 0.6231 0.6304 0.5817 0.5197 0.5376 0.5923 0.6306 0.6601 0.6532
3946.689 0.6514 0.6615 0.6198 0.5626 0.5711 0.5715 0.5692 0.5989 0.6308 0.574
3985.268 0.5265 0.6319 0.7177 0.6257 0.5475
##END=
