##TITLE=Trimethyl orthformate
##JCAMP-DX=4.24
##DATA TYPE=INFRARED SPECTRUM
##ORIGIN=EPA-IR VAPOR PHASE LIBRARY
##OWNER=SRD/NIST
Collection (C) 2018 copyright by the U.S. Secretary of Commerce
on behalf of the United States of America. All rights reserved.
##CAS REGISTRY NO=149-73-5
##MOLFORM=C 4 H 10 O 3
##$NIST SOURCE=MSDC-IR
##STATE=gas
##XUNITS=1/CM
##YUNITS=ABSORBANCE
##XFACTOR=1.
##YFACTOR=0.001
##DELTAX=1.92898
##FIRSTX=549.8
##LASTX=4000.7
##FIRSTY=3.584
##MAXX=4000.7
##MINX=549.759
##MAXY=0.444144
##MINY=0
##NPOINTS=1790
##XYDATA=(X++(Y..Y))
549.759 3.584 3.414 3.144 3.044 2.934 2.814 2.494 2.324 2.274 1.974
569.049 2.004 1.864 1.424 1.1499 1.3055 1.524 1.524 1.3378 1.4068 1.634
588.339 1.3747 1.2923 1.3158 1.2119 1.424 1.564 1.3893 1.3084 1.3599 1.3577
607.628 1.3634 1.3421 1.3384 1.2687 1.2795 1.4046 1.2763 1.1113 1.0825 1.1104
626.918 1.075 1.0509 1.1071 1.148 1.2059 1.2752 1.1991 1.1585 1.2962 1.3921
646.208 1.3832 1.1774 1.0544 1.0952 1.1566 1.3738 1.4058 1.2897 1.397 1.624
665.498 1.724 1.804 1.754 1.764 1.984 2.084 2.164 2.184 2.184 2.164
684.787 2.224 2.244 2.014 1.764 1.654 1.644 1.594 1.484 1.524 1.484
704.077 1.3983 1.3537 1.1865 0.9768 0.9293 0.9049 0.7981 0.8666 0.8726 0.8137
723.367 0.7483 0.7294 0.816 0.6893 0.5307 0.6437 0.6329 0.6786 0.7312 0.6098
742.657 0.5949 0.6341 0.8003 0.9246 0.9603 0.9544 1.0041 0.9077 0.7679 0.8301
761.947 0.8602 0.9501 1.0178 0.9521 0.9604 1.0565 1.03 1.0575 1.263 1.3009
781.236 1.3266 1.3922 1.3314 1.3296 1.3794 1.3229 1.1056 1.1898 1.3986 1.464
800.526 1.504 1.484 1.444 1.3178 1.434 1.664 1.724 1.584 1.414 1.514
819.816 1.634 1.764 1.864 1.764 1.714 1.814 1.944 2.074 2.054 1.994
839.106 2.024 2.014 2.094 2.174 2.084 2.084 2.274 2.254 2.184 2.334
858.395 2.474 2.594 2.734 2.904 3.024 3.064 3.274 3.494 3.654 4.084
877.685 4.424 4.594 4.894 5.294 5.794 6.384 7.004 7.814 8.604 9.514
896.975 10.494 11.474 12.604 13.984 15.414 16.554 17.874 19.304 20.684 22.164
916.265 23.384 24.374 25.334 25.974 26.464 27.014 27.394 27.544 27.624 27.354
935.555 26.674 26.014 25.844 26.004 26.384 27.104 27.944 29.024 30.544 32.524
954.844 35.014 38.054 41.694 45.914 50.554 55.674 61.244 67.004 72.974 78.854
974.134 84.714 90.404 95.704 100.374 104.014 106.814 108.234 108.184 107.104 105.074
993.424 102.144 98.544 94.314 89.654 85.014 80.354 76.314 73.324 71.154 70.194
1012.714 70.284 70.754 71.514 72.544 73.694 74.664 75.354 75.864 76.564 77.734
1032.003 79.064 80.494 82.154 84.074 86.334 89.384 92.934 97.194 102.464 108.974
1051.293 117.474 127.924 140.084 154.604 171.664 190.844 212.004 234.794 258.434 282.194
1070.583 306.054 329.034 349.484 368.414 385.864 400.684 413.084 423.204 432.414 439.354
1089.873 443.124 444.144 442.244 439.044 433.774 428.384 424.974 422.904 421.534 421.024
1109.163 421.044 421.394 422.254 422.794 422.564 420.964 418.184 414.854 410.654 404.604
1128.452 397.064 387.584 376.774 365.614 353.614 341.094 329.024 316.154 301.654 287.124
1147.742 272.394 257.014 240.264 222.554 205.404 189.024 174.044 161.384 150.824 142.104
1167.032 135.254 129.724 125.174 122.004 119.954 118.794 118.794 119.144 119.874 121.284
1186.322 122.884 124.654 126.494 128.554 130.234 131.284 131.514 131.334 130.824 129.694
1205.611 127.854 125.094 121.954 118.454 114.354 110.124 105.704 100.904 96.344 91.904
1224.901 87.454 83.524 79.704 75.454 71.264 67.324 63.774 60.434 56.874 53.454
1244.191 50.414 47.554 44.794 42.254 39.934 37.454 35.214 33.254 31.204 29.294
1263.481 27.594 26.244 24.964 23.654 22.364 21.134 20.084 19.144 18.254 17.524
1282.771 16.904 16.214 15.554 14.954 14.554 14.204 13.814 13.494 13.174 12.934
1302.060 12.744 12.604 12.534 12.564 12.504 12.504 12.614 12.724 12.884 13.104
1321.350 13.464 13.924 14.524 15.294 16.284 17.544 19.084 20.874 23.034 25.724
1340.640 28.814 32.294 36.274 40.674 45.684 51.554 58.434 66.034 73.764 81.454
1359.930 88.824 94.334 95.944 92.544 84.924 75.324 66.044 57.934 50.584 44.104
1379.219 38.594 33.934 29.904 26.404 23.294 20.494 18.114 16.134 14.464 13.104
1398.509 12.044 11.094 10.424 9.934 9.494 9.174 9.004 8.954 8.964 9.124
1417.799 9.424 9.814 10.404 11.264 12.384 13.784 15.624 17.804 20.434 23.454
1437.089 26.844 30.314 33.754 36.864 39.444 41.474 43.014 44.244 45.184 45.904
1456.378 46.024 45.074 43.034 40.104 36.824 33.774 31.184 29.034 27.344 25.874
1475.668 24.594 23.274 21.944 20.684 19.514 18.464 17.394 16.334 15.324 14.334
1494.958 13.394 12.484 11.694 11.014 10.444 9.904 9.374 8.994 8.694 8.354
1514.248 8.184 7.944 7.654 7.504 7.374 7.294 7.224 7.104 6.974 6.844
1533.538 6.764 6.764 6.714 6.624 6.584 6.594 6.524 6.464 6.494 6.464
1552.827 6.364 6.254 6.174 6.024 5.964 6.034 6.004 5.934 5.874 5.804
1572.117 5.724 5.654 5.514 5.374 5.374 5.394 5.304 5.184 5.104 5.064
1591.407 4.994 4.964 4.824 4.634 4.574 4.494 4.494 4.394 4.254 4.244
1610.697 4.244 4.194 4.114 4.034 3.964 3.904 3.914 3.894 3.864 3.844
1629.986 3.814 3.824 3.774 3.724 3.774 3.764 3.804 3.754 3.674 3.664
1649.276 3.604 3.524 3.494 3.584 3.644 3.674 3.684 3.634 3.534 3.464
1668.566 3.444 3.374 3.304 3.274 3.274 3.294 3.254 3.114 2.974 2.984
1687.856 2.964 2.854 2.814 2.754 2.704 2.664 2.544 2.544 2.614 2.594
1707.146 2.534 2.544 2.544 2.504 2.474 2.434 2.464 2.504 2.504 2.534
1726.435 2.544 2.574 2.604 2.594 2.684 2.734 2.734 2.794 2.834 2.914
1745.725 2.994 2.994 3.034 3.194 3.294 3.294 3.314 3.354 3.404 3.484
1765.015 3.544 3.634 3.674 3.544 3.494 3.574 3.554 3.474 3.414 3.314
1784.305 3.274 3.244 3.194 3.204 3.204 3.174 3.124 3.054 3.074 3.144
1803.594 3.154 3.144 3.104 3.084 3.094 3.064 2.974 2.894 2.824 2.734
1822.884 2.674 2.624 2.534 2.464 2.414 2.314 2.264 2.234 2.154 2.054
1842.174 2.004 1.944 1.874 1.844 1.864 1.834 1.814 1.834 1.814 1.804
1861.464 1.804 1.794 1.784 1.784 1.764 1.744 1.754 1.764 1.684 1.684
1880.754 1.714 1.704 1.664 1.644 1.644 1.614 1.604 1.624 1.574 1.574
1900.043 1.604 1.584 1.574 1.554 1.554 1.544 1.564 1.544 1.474 1.484
1919.333 1.484 1.524 1.584 1.614 1.634 1.664 1.634 1.614 1.644 1.644
1938.623 1.644 1.634 1.624 1.674 1.684 1.694 1.724 1.704 1.704 1.734
1957.913 1.684 1.614 1.664 1.684 1.764 1.864 1.804 1.804 1.864 1.894
1977.202 1.974 1.994 1.984 2.034 2.114 2.164 2.194 2.234 2.274 2.334
1996.492 2.354 2.374 2.414 2.504 2.534 2.574 2.654 2.684 2.774 2.814
2015.782 2.844 2.894 2.954 3.114 3.244 3.304 3.434 3.544 3.674 3.824
2035.072 4.004 4.124 4.234 4.384 4.574 4.734 4.834 4.924 5.074 5.214
2054.362 5.304 5.354 5.424 5.524 5.604 5.644 5.694 5.724 5.714 5.684
2073.651 5.664 5.584 5.574 5.604 5.554 5.604 5.664 5.704 5.814 5.884
2092.941 5.954 6.094 6.224 6.324 6.394 6.514 6.574 6.654 6.784 6.824
2112.231 6.884 6.944 6.954 6.884 6.764 6.654 6.584 6.474 6.344 6.184
2131.521 6.024 5.824 5.614 5.474 5.314 5.154 4.974 4.794 4.624 4.494
2150.810 4.334 4.184 4.034 3.844 3.664 3.564 3.494 3.374 3.264 3.164
2170.100 3.014 2.874 2.844 2.844 2.784 2.744 2.714 2.724 2.684 2.664
2189.390 2.664 2.634 2.644 2.654 2.634 2.604 2.604 2.674 2.764 2.724
2208.680 2.674 2.684 2.704 2.704 2.714 2.694 2.684 2.634 2.574 2.584
2227.970 2.504 2.464 2.384 2.204 2.184 2.184 2.124 2.084 2.024 1.994
2247.259 1.924 1.854 1.854 1.774 1.684 1.684 1.694 1.694 1.724 1.714
2266.549 1.704 1.674 1.634 1.654 1.674 1.674 1.694 1.674 1.654 1.694
2285.839 1.754 1.764 1.764 1.764 1.744 1.784 1.794 1.774 1.864 1.944
2305.129 1.954 1.954 1.954 1.934 1.884 1.884 1.974 2.004 1.964 1.924
2324.418 1.874 1.864 1.874 1.834 1.814 1.874 1.824 1.744 1.724 1.734
2343.708 1.694 1.614 1.604 1.594 1.544 1.534 1.564 1.494 1.434 1.3643
2362.998 1.3328 1.424 1.4123 1.3488 1.357 1.414 1.3655 1.2711 1.2786 1.309
2382.288 1.321 1.3079 1.267 1.1825 1.1922 1.1972 1.1555 1.1541 1.1415 1.2072
2401.578 1.2634 1.2608 1.2237 1.1606 1.2291 1.3162 1.3485 1.3263 1.3087 1.3626
2420.867 1.3177 1.282 1.3326 1.3132 1.3143 1.3201 1.3045 1.2784 1.2917 1.3078
2440.157 1.2863 1.2192 1.1394 1.249 1.3214 1.2765 1.2588 1.2419 1.1965 1.0879
2459.447 1.0702 1.1007 1.0862 1.0765 1.0706 1.0564 1.0459 1.0189 0.9843 0.9307
2478.737 0.927 0.9823 0.9263 0.9377 0.9717 0.9587 0.9474 0.8973 0.885 0.8464
2498.026 0.7919 0.8959 0.9722 0.9607 0.9428 0.9463 0.9744 0.9495 1.0393 1.0853
2517.316 1.0314 1.1135 1.0887 1.0193 1.1012 1.0962 1.0597 1.133 1.1804 1.2016
2536.606 1.2322 1.2904 1.2981 1.2856 1.3933 1.484 1.424 1.444 1.604 1.654
2555.896 1.604 1.644 1.734 1.764 1.734 1.744 1.874 1.974 1.994 1.924
2575.186 1.964 2.044 2.114 2.284 2.324 2.234 2.264 2.484 2.644 2.594
2594.475 2.594 2.704 2.754 2.804 2.904 2.934 3.044 3.114 3.084 3.114
2613.765 3.194 3.314 3.414 3.514 3.644 3.664 3.704 3.964 4.224 4.384
2633.055 4.494 4.664 4.894 5.114 5.424 5.744 5.924 6.104 6.384 6.594
2652.345 6.834 7.094 7.364 7.694 7.914 8.114 8.324 8.564 8.794 8.844
2671.634 8.764 8.654 8.534 8.284 7.974 7.694 7.344 6.994 6.664 6.294
2690.924 5.944 5.684 5.474 5.174 4.824 4.584 4.534 4.464 4.354 4.084
2710.214 3.964 4.034 4.054 4.114 4.034 3.964 4.014 4.084 4.104 4.154
2729.504 4.264 4.294 4.384 4.454 4.404 4.524 4.684 4.734 4.764 4.804
2748.794 4.964 5.094 5.124 5.184 5.394 5.564 5.714 5.844 6.094 6.564
2768.083 6.844 7.064 7.454 7.974 8.374 8.994 9.694 10.344 10.934 11.334
2787.373 11.844 12.414 13.094 13.924 14.834 15.674 16.654 17.724 18.774 19.864
2806.663 21.084 22.604 24.384 26.324 28.524 31.134 34.144 37.694 41.864 46.634
2825.953 52.074 58.064 64.274 70.504 76.394 81.604 86.044 89.944 93.104 95.374
2845.242 96.744 96.844 95.694 93.534 90.724 87.824 84.774 81.394 77.834 74.414
2864.532 71.534 69.334 68.104 67.784 68.424 70.214 72.954 76.684 80.604 83.514
2883.822 85.264 85.924 85.884 85.554 85.074 84.634 84.244 83.904 83.534 83.264
2903.112 83.124 83.054 83.194 83.404 84.014 85.264 86.774 88.734 91.234 94.084
2922.401 97.294 100.874 104.614 108.454 112.204 115.934 119.694 123.244 126.554 129.944
2941.691 132.784 134.514 135.404 135.604 135.524 135.384 135.004 133.664 131.344 127.854
2960.981 123.594 119.384 115.254 111.494 108.004 104.264 99.914 95.374 91.064 87.334
2980.271 84.494 82.374 80.874 79.944 79.684 79.834 80.104 80.554 81.044 80.974
2999.561 80.604 80.234 79.474 78.014 76.004 73.444 70.244 66.964 63.564 59.874
3018.850 55.814 51.604 47.434 43.194 39.444 36.264 33.494 31.194 29.194 27.564
3038.140 26.114 25.094 24.244 23.294 22.534 21.974 21.464 20.964 20.624 20.254
3057.430 19.674 19.194 19.014 18.704 18.334 18.134 17.794 17.364 16.874 16.454
3076.720 16.204 15.874 15.434 14.944 14.554 14.234 13.804 13.364 12.754 12.174
3096.009 11.834 11.364 10.874 10.554 10.094 9.604 9.064 8.614 8.354 7.904
3115.299 7.404 7.004 6.724 6.334 5.884 5.614 5.354 5.064 4.884 4.724
3134.589 4.564 4.284 4.094 3.974 3.724 3.534 3.434 3.304 3.134 3.144
3153.879 3.004 2.704 2.614 2.444 2.414 2.384 2.204 2.024 1.954 1.974
3173.169 1.834 1.604 1.584 1.674 1.704 1.674 1.484 1.434 1.504 1.474
3192.458 1.454 1.3399 1.1915 1.1338 1.2175 1.3205 1.3088 1.238 1.0654 0.9033
3211.748 0.8072 0.8344 0.9143 0.888 0.9425 0.8615 0.7303 0.8187 0.7654 0.695
3231.038 0.8004 0.8697 0.8396 0.6855 0.6877 0.763 0.6622 0.7512 0.8309 0.8562
3250.328 0.8838 0.8052 0.8056 0.8779 0.8465 0.7008 0.708 0.7384 0.815 0.8646
3269.617 0.7698 0.7395 0.6767 0.6806 0.6341 0.5292 0.5944 0.6778 0.5881 0.45009
3288.907 0.5477 0.6707 0.5736 0.42978 0.48784 0.6376 0.50683 0.3478 0.50698 0.5607
3308.197 0.5507 0.573 0.43918 0.3931 0.4011 0.48083 0.42434 0.3923 0.51243 0.5352
3327.487 0.5147 0.3902 0.4012 0.5151 0.47638 0.48897 0.46917 0.43895 0.553 0.5845
3346.777 0.6206 0.613 0.5252 0.49171 0.5157 0.43543 0.289 0.3256 0.3936 0.3827
3366.066 0.294 0.301 0.3992 0.3195 0.417475 0.5497 0.47052 0.315 0.3567 0.422751
3385.356 0.264 0.236 0.3266 0.3913 0.5235 0.47746 0.3824 0.48505 0.46622 0.4075
3404.646 0.421012 0.43817 0.418729 0.40843 0.40726 0.3627 0.3433 0.49869 0.544 0.3332
3423.936 0.4316 0.45762 0.3164 0.3992 0.45868 0.3892 0.236 0.213 0.175 0.171
3443.225 0.36 0.312 0.227 0.223 0.184 0.274 0.265 0.3431 0.3867 0.3251
3462.515 0.3994 0.35 0.273 0.3398 0.4552 0.41068 0.3235 0.45592 0.45776 0.3925
3481.805 0.419502 0.3539 0.238 0.195 0.266 0.265 0.267 0.374 0.341 0.3536
3501.095 0.3561 0.3262 0.42686 0.48531 0.3837 0.244 0.3159 0.5219 0.50094 0.3617
3520.385 0.3588 0.3966 0.3388 0.153 0.244 0.48415 0.5286 0.47481 0.51199 0.5254
3539.674 0.44134 0.43214 0.5469 0.5986 0.4036 0.293 0.413078 0.6151 0.50352 0.3606
3558.964 0.44033 0.277 0.224 0.43402 0.44197 0.4108 0.45063 0.3215 0.263 0.4035
3578.254 0.51008 0.521 0.44206 0.41051 0.3662 0.237 0.132 0.114 0.133 0
3597.544 0.044 0.28 0.367 0.3377 0.3513 0.3432 0.234 0.201 0.199 0.13
3616.833 0.151 0.3885 0.3259 0.156 0.311 0.393 0.3365 0.284 0.293 0.44303
3636.123 0.397 0.3909 0.3287 0.143 0.285 0.3681 0.3376 0.239 0.253 0.3475
3655.413 0.3945 0.49468 0.3798 0.241 0.226 0.294 0.287 0.254 0.46838 0.47527
3674.703 0.3232 0.3605 0.3658 0.3743 0.5374 0.5586 0.420108 0.29 0.279 0.343
3693.993 0.4659 0.44399 0.3345 0.148 0.17 0.50613 0.46074 0.3446 0.3815 0.43376
3713.282 0.47628 0.42889 0.25 0.227 0.46564 0.48896 0.46678 0.542 0.567 0.43662
3732.572 0.247 0.269 0.288 0.288 0.3571 0.304 0.3712 0.50503 0.48119 0.5482
3751.862 0.5882 0.5692 0.6181 0.5481 0.46748 0.415971 0.254 0.3 0.44493 0.5733
3771.152 0.47609 0.4227 0.414099 0.422568 0.49471 0.48137 0.6771 0.5298 0.3462 0.421413
3790.441 0.47626 0.5827 0.5201 0.43602 0.3955 0.3819 0.42853 0.50838 0.5309 0.6351
3809.731 0.676 0.5463 0.5411 0.602 0.7376 0.6492 0.44415 0.6523 0.736 0.6228
3829.021 0.7373 0.8191 0.838 0.8117 0.8132 0.7453 0.769 0.991 0.775 0.6039
3848.311 0.77 0.7034 0.6889 0.7234 0.6829 0.6872 0.6802 0.8724 0.859 0.8206
3867.601 0.8682 0.808 0.9136 0.8442 0.8457 1.0468 0.9819 0.9002 0.9426 0.8996
3886.890 0.9634 1.0989 1.0732 1.0116 1.0345 1.0387 1.0865 1.2013 1.2394 1.0541
3906.180 1.1205 1.2467 1.2487 1.3556 1.3718 1.4061 1.3628 1.3278 1.454 1.594
3925.470 1.514 1.524 1.564 1.484 1.454 1.564 1.684 1.564 1.554 1.594
3944.760 1.604 1.634 1.754 1.744 1.544 1.544 1.624 1.764 1.844 1.684
3964.049 1.474 1.664 1.824 1.714 1.544 1.414 1.614 1.744 1.894 2.024
3983.339 2.014 2.074 2.064 1.994 1.834 1.884 2.014 1.844 1.714 1.704
##END=
