##TITLE=Butacaine
##JCAMP-DX=4.24
##DATA TYPE=INFRARED SPECTRUM
##ORIGIN=NIST Mass Spectrometry Data Center
##OWNER=NIST Standard Reference Data Program
Collection (C) 2018 copyright by the U.S. Secretary of Commerce
on behalf of the United States of America. All rights reserved.
##CAS REGISTRY NO=149-16-6
##MOLFORM=C 18 H 30 N 2 O 2
##$NIST SOURCE=MSDC-IR
##SPECTROMETER/DATA SYSTEM=HP-GC/MS/IRD
##STATE=gas
##XUNITS=1/CM
##YUNITS=ABSORBANCE
##XFACTOR=1.0
##YFACTOR=0.000002900
##DELTAX=4.0
##FIRSTX=550.0
##LASTX=3846.0
##FIRSTY=0.000945
##MAXX=3846
##MINX=550
##MAXY=0.029
##MINY=0
##NPOINTS=825
##XYDATA=(X++(Y..Y))
550.0 326 114 0 34 27 23 41 49 72 87
590.0 81 85 79 115 195 282 387 396 262 107
630.0 31 34 53 64 70 83 131 200 281 368
670.0 414 430 445 446 423 414 402 370 349 312
710.0 253 218 208 190 165 153 151 137 162 210
750.0 263 340 417 502 572 593 541 437 334 256
790.0 175 122 134 126 107 119 106 102 140 202
830.0 271 359 420 404 332 242 162 112 89 73
870.0 72 75 56 36 36 42 50 64 74 77
910.0 71 70 89 110 110 106 108 114 117 119
950.0 117 122 120 118 133 132 115 101 95 81
990.0 72 73 82 109 181 309 356 282 223 219
1030.0 228 244 281 335 399 479 565 652 747 881
1070.0 1051 1269 1526 1769 2023 2354 2820 3393 3912 4104
1110.0 3789 3092 2294 1643 1216 927 738 623 564 559
1150.0 587 690 897 1232 2084 3646 4277 2950 1490 906
1190.0 653 497 422 388 385 419 485 563 601 640
1230.0 754 909 1102 1364 1764 2448 3564 5401 7962 10000
1270.0 9681 7194 4602 2983 2096 1604 1335 1192 1088 990
1310.0 938 903 796 673 601 532 475 440 423 425
1350.0 443 471 506 524 540 566 606 640 641 574
1390.0 467 354 263 211 175 162 168 187 227 298
1430.0 385 432 423 405 413 457 526 594 655 665
1470.0 610 505 385 289 225 198 211 242 322 475
1510.0 661 757 644 416 256 184 144 117 101 102
1550.0 113 122 145 169 196 242 302 373 436 510
1590.0 645 882 1222 1576 1826 1934 2062 2405 2826 2901
1630.0 2500 1894 1307 878 625 479 383 318 269 225
1670.0 202 199 206 216 241 271 298 344 426 548
1710.0 740 1029 1498 2213 3166 4066 4262 3507 2373 1483
1750.0 942 623 423 304 222 170 138 110 99 90
1790.0 80 67 55 46 37 32 30 24 16 17
1830.0 17 16 14 11 10 9 9 10 13 13
1870.0 18 23 27 36 42 50 58 66 68 64
1910.0 62 56 43 29 30 28 24 25 24 21
1950.0 23 24 23 24 23 19 19 24 27 23
1990.0 19 17 21 28 32 31 29 33 40 43
2030.0 41 41 38 35 35 33 36 35 34 35
2070.0 36 38 39 35 39 44 39 36 38 35
2110.0 36 38 41 41 40 42 35 35 37 35
2150.0 32 26 26 30 30 28 28 34 33 31
2190.0 37 31 27 29 35 35 26 23 19 28
2230.0 32 24 22 28 32 35 39 36 33 29
2270.0 26 26 31 37 41 40 35 30 32 33
2310.0 34 38 37 35 34 32 32 37 38 40
2350.0 43 47 52 59 57 47 46 47 44 44
2390.0 44 40 39 40 33 31 34 34 34 38
2430.0 36 32 32 34 30 33 33 26 28 30
2470.0 27 34 32 27 25 30 31 33 33 34
2510.0 33 32 40 45 45 48 50 50 50 46
2550.0 46 54 53 47 49 57 65 70 72 72
2590.0 73 77 77 76 82 87 90 97 104 102
2630.0 98 95 100 106 103 102 108 111 111 115
2670.0 125 134 136 144 152 156 157 164 179 192
2710.0 200 212 219 228 249 267 282 292 301 315
2750.0 327 336 355 382 405 428 467 509 556 624
2790.0 711 819 941 1054 1123 1136 1099 1022 945 879
2830.0 814 763 744 735 742 787 864 968 1110 1269
2870.0 1389 1432 1453 1474 1447 1389 1366 1392 1455 1534
2910.0 1620 1725 1864 2053 2291 2588 2896 3132 3205 3121
2950.0 3017 3016 3178 3415 3479 3142 2484 1832 1357 1064
2990.0 863 713 618 542 495 472 444 416 402 390
3030.0 386 406 447 465 425 351 283 247 233 237
3070.0 241 228 206 184 159 151 148 128 125 127
3110.0 119 109 95 86 78 72 73 72 70 73
3150.0 70 73 75 73 71 69 58 51 58 60
3190.0 56 59 67 67 62 68 69 71 65 50
3230.0 43 46 47 48 57 46 35 37 35 33
3270.0 38 37 41 37 24 21 35 44 33 37
3310.0 38 32 36 36 28 25 34 30 28 33
3350.0 41 40 36 49 50 42 41 51 67 71
3390.0 74 100 129 153 195 255 313 337 324 309
3430.0 307 292 244 187 130 95 89 81 72 68
3470.0 70 75 78 87 103 119 133 151 157 149
3510.0 141 137 127 122 125 110 92 83 73 59
3550.0 55 47 38 31 31 39 54 63 63 53
3590.0 46 42 29 29 36 33 30 25 29 36
3630.0 45 48 44 53 49 45 51 50 48 44
3670.0 40 41 41 32 36 43 45 48 46 46
3710.0 54 58 56 39 23 28 27 41 42 33
3750.0 37 35 50 57 49 55 56 54 47 33
3790.0 31 40 43 43 44 53 55 45 47 49
3830.0 54 60 60 77 83
##END=
