##TITLE=5-Cyano-1-pentyne
##JCAMP-DX=4.24
##DATA TYPE=INFRARED SPECTRUM
##ORIGIN=EPA-IR VAPOR PHASE LIBRARY
##OWNER=SRD/NIST
Collection (C) 2018 copyright by the U.S. Secretary of Commerce
on behalf of the United States of America. All rights reserved.
##CAS REGISTRY NO=14918-21-9
##MOLFORM=C 6 H 7 N
##$NIST SOURCE=MSDC-IR
##STATE=gas
##XUNITS=1/CM
##YUNITS=ABSORBANCE
##XFACTOR=1.
##YFACTOR=0.001
##DELTAX=1.92934
##FIRSTX=549.9
##LASTX=3999.5
##FIRSTY=7.027
##MAXX=3999.53
##MINX=549.863
##MAXY=0.252157
##MINY=0
##NPOINTS=1789
##XYDATA=(X++(Y..Y))
549.863 7.027 7.677 8.177 8.617 8.927 9.207 9.307 9.297 9.287 9.037
569.156 8.617 8.097 7.477 6.837 6.197 5.667 5.267 4.957 4.697 4.677
588.450 4.707 4.687 4.817 5.097 5.517 6.087 6.797 7.707 8.867 10.407
607.743 12.237 14.527 17.487 21.357 26.297 32.367 39.457 47.647 56.697 66.597
627.037 78.007 92.137 108.437 126.887 154.737 194.707 222.127 235.127 252.157 249.637
646.330 227.277 203.687 177.817 151.517 129.207 110.537 92.987 76.267 61.827 49.827
665.624 40.117 32.287 26.087 21.387 17.477 14.407 12.047 10.157 8.697 7.487
684.917 6.527 5.847 5.247 4.787 4.467 4.167 3.877 3.667 3.497 3.427
704.210 3.397 3.357 3.307 3.277 3.247 3.277 3.297 3.257 3.187 3.147
723.504 3.137 3.077 2.977 2.947 2.867 2.757 2.757 2.697 2.637 2.587
742.797 2.597 2.657 2.697 2.777 2.907 3.077 3.167 3.197 3.247 3.237
762.091 3.157 3.087 3.077 3.117 3.087 2.957 2.807 2.637 2.507 2.357
781.384 2.237 2.167 2.127 2.147 2.157 2.127 2.127 2.127 2.147 2.217
800.678 2.297 2.357 2.377 2.407 2.427 2.407 2.447 2.487 2.497 2.477
819.971 2.477 2.507 2.547 2.517 2.487 2.537 2.527 2.497 2.437 2.387
839.264 2.347 2.337 2.307 2.277 2.247 2.247 2.267 2.277 2.307 2.297
858.558 2.327 2.327 2.297 2.347 2.427 2.547 2.667 2.767 2.797 2.767
877.851 2.737 2.707 2.677 2.717 2.717 2.647 2.577 2.557 2.577 2.527
897.145 2.417 2.317 2.277 2.257 2.227 2.217 2.217 2.207 2.157 2.117
916.438 2.087 2.077 2.057 2.037 1.9759 1.9295 1.9306 1.9261 1.9155 1.903
935.732 1.9052 1.9352 1.9278 1.8933 1.9177 1.9139 1.8871 1.8906 1.9004 1.8697
955.025 1.7987 1.7666 1.7115 1.6159 1.5676 1.538 1.517 1.5173 1.5196 1.509
974.318 1.4993 1.4645 1.4294 1.4242 1.4273 1.458 1.4638 1.4917 1.5689 1.6778
993.612 1.7683 1.9054 2.087 2.227 2.377 2.567 2.767 2.947 3.137 3.317
1012.905 3.447 3.527 3.597 3.647 3.697 3.757 3.777 3.797 3.757 3.667
1032.199 3.567 3.487 3.417 3.347 3.327 3.347 3.357 3.367 3.347 3.307
1051.492 3.257 3.197 3.097 2.977 2.857 2.727 2.577 2.477 2.337 2.207
1070.786 2.087 1.9313 1.7987 1.6336 1.5002 1.407 1.3255 1.2431 1.1754 1.1653
1090.079 1.1221 1.1177 1.07842 0.998029 1.01309 1.02634 1.01223 1.02922 1.03529 1.02949
1109.372 1.03866 1.03081 1.05275 1.05755 1.04921 1.04509 1.05759 1.0544 1.05427 1.07705
1128.666 1.04882 1.06054 1.056 1.01758 1.04211 1.0959 1.1316 1.1362 1.1678 1.1824
1147.959 1.1788 1.2168 1.2657 1.2995 1.3622 1.449 1.5335 1.5726 1.623 1.7169
1167.253 1.8306 1.9522 2.077 2.187 2.277 2.427 2.597 2.707 2.697 2.697
1186.546 2.727 2.797 2.937 3.017 3.047 3.147 3.257 3.317 3.397 3.517
1205.840 3.657 3.807 3.987 4.207 4.477 4.747 4.977 5.247 5.607 5.967
1225.133 6.337 6.727 7.187 7.767 8.467 9.337 10.447 11.887 13.707 16.007
1244.426 18.897 22.417 26.587 31.177 35.787 40.307 44.407 47.407 49.327 50.447
1263.720 50.957 51.097 50.597 49.427 47.877 45.857 43.257 39.787 35.427 30.847
1283.013 26.897 23.327 20.067 17.817 16.437 15.587 15.027 14.587 14.297 14.157
1302.307 14.127 14.197 14.257 14.197 14.067 13.947 13.907 14.117 14.607 14.717
1321.600 14.567 14.827 15.127 15.157 14.947 14.637 14.447 14.437 14.587 14.777
1340.894 14.917 14.827 14.467 13.947 13.347 12.807 12.277 11.587 10.867 10.417
1360.187 10.017 9.347 8.367 7.317 6.367 5.557 4.917 4.377 3.977 3.677
1379.480 3.417 3.237 3.177 3.117 3.097 3.117 3.127 3.227 3.347 3.527
1398.774 3.757 4.037 4.387 4.787 5.297 5.937 6.707 7.687 8.847 10.147
1418.067 11.687 13.517 15.537 17.867 20.447 23.177 25.927 28.407 30.447 32.037
1437.361 33.407 34.357 35.537 36.267 35.347 34.107 32.797 30.927 28.747 26.657
1456.654 24.587 22.647 20.867 18.777 16.697 15.017 13.517 12.027 10.637 9.337
1475.948 8.197 7.207 6.397 5.727 5.117 4.587 4.157 3.777 3.477 3.177
1495.241 2.937 2.747 2.577 2.427 2.317 2.207 2.107 2.027 1.9924 1.9059
1514.534 1.8301 1.8081 1.7722 1.7419 1.7304 1.7269 1.6993 1.6677 1.6788 1.6681
1533.828 1.6235 1.562 1.52 1.4914 1.4353 1.4087 1.3854 1.3081 1.2349 1.1657
1553.121 1.1153 1.07495 1.01599 0.9836 0.9766 0.9494 0.862 0.792 0.795 0.804
1572.415 0.8 0.78 0.757 0.759 0.769 0.787 0.793 0.779 0.736 0.705
1591.708 0.741 0.756 0.72 0.693 0.691 0.66 0.707 0.733 0.661 0.652
1611.002 0.642 0.604 0.595 0.61 0.603 0.614 0.634 0.626 0.614 0.595
1630.295 0.628 0.656 0.627 0.617 0.601 0.574 0.594 0.587 0.605 0.635
1649.588 0.585 0.558 0.594 0.613 0.586 0.577 0.566 0.548 0.552 0.568
1668.882 0.568 0.57 0.557 0.523 0.482 0.499 0.519 0.499 0.485 0.497
1688.175 0.537 0.517 0.488 0.475 0.463 0.461 0.454 0.421 0.41 0.424
1707.469 0.424 0.425 0.425 0.439 0.466 0.459 0.445 0.457 0.458 0.46
1726.762 0.477 0.495 0.506 0.544 0.589 0.614 0.648 0.682 0.731 0.799
1746.056 0.868 0.9687 1.06994 1.1412 1.2342 1.3319 1.4056 1.4753 1.5049 1.5159
1765.349 1.511 1.4909 1.4848 1.4573 1.3913 1.2973 1.1955 1.1021 1.03402 0.969
1784.642 0.9004 0.868 0.839 0.794 0.757 0.712 0.702 0.678 0.639 0.617
1803.936 0.624 0.607 0.55 0.506 0.501 0.495 0.48 0.463 0.436 0.449
1823.229 0.445 0.398 0.402 0.418 0.406 0.421 0.405 0.4 0.438 0.401
1842.523 0.371 0.419 0.418 0.409 0.417 0.392 0.395 0.405 0.423 0.443
1861.816 0.45 0.481 0.48 0.474 0.492 0.483 0.498 0.518 0.543 0.584
1881.110 0.579 0.567 0.574 0.6 0.639 0.667 0.666 0.665 0.694 0.695
1900.403 0.676 0.681 0.699 0.697 0.709 0.711 0.68 0.681 0.654 0.604
1919.696 0.595 0.6 0.585 0.561 0.536 0.528 0.55 0.564 0.547 0.517
1938.990 0.497 0.503 0.497 0.491 0.488 0.458 0.44 0.461 0.485 0.466
1958.283 0.414 0.417 0.413 0.396 0.413 0.409 0.403 0.408 0.406 0.384
1977.577 0.389 0.373 0.383 0.416 0.423 0.419 0.396 0.394 0.401 0.407
1996.870 0.437 0.481 0.49 0.478 0.483 0.512 0.516 0.539 0.579 0.591
2016.164 0.592 0.613 0.643 0.686 0.698 0.695 0.745 0.768 0.75 0.742
2035.457 0.766 0.79 0.809 0.826 0.838 0.829 0.826 0.826 0.811 0.808
2054.750 0.823 0.834 0.849 0.847 0.851 0.862 0.839 0.847 0.857 0.878
2074.044 0.9236 0.9244 0.9762 1.07204 1.133 1.2092 1.298 1.4169 1.5745 1.7394
2093.337 1.8896 2.087 2.337 2.597 2.907 3.237 3.557 3.907 4.267 4.627
2112.631 4.987 5.297 5.527 5.677 5.767 5.817 5.767 5.587 5.327 5.027
2131.924 4.647 4.237 3.787 3.317 2.847 2.387 1.9612 1.6134 1.3511 1.1557
2151.218 1.02689 0.9453 0.9099 0.862 0.796 0.745 0.702 0.684 0.699 0.717
2170.511 0.698 0.696 0.741 0.707 0.722 0.771 0.75 0.776 0.815 0.829
2189.804 0.841 0.881 0.894 0.8983 0.9192 0.9001 0.9111 0.9324 0.9202 0.9227
2209.098 0.9323 0.924 0.9489 0.997181 0.998859 1.03362 1.0974 1.1703 1.2771 1.3947
2228.391 1.563 1.7646 2.017 2.307 2.637 3.037 3.437 3.837 4.237 4.577
2247.685 4.857 5.017 5.117 5.167 5.127 5.017 4.867 4.617 4.247 3.777
2266.978 3.227 2.687 2.237 1.8979 1.6739 1.4937 1.3914 1.3449 1.2791 1.2287
2286.272 1.1891 1.1773 1.1997 1.197 1.1816 1.185 1.1758 1.1579 1.1568 1.1511
2305.565 1.1363 1.1033 1.07514 1.05577 1.02513 1.03157 1.0564 1.05207 1.02701 0.996954
2324.858 0.9848 0.9697 0.9625 0.9616 0.9472 0.9276 0.9187 0.9217 0.9213 0.9265
2344.152 0.9061 0.889 0.86 0.846 0.853 0.835 0.808 0.799 0.788 0.745
2363.445 0.705 0.707 0.739 0.742 0.734 0.753 0.727 0.696 0.704 0.739
2382.739 0.722 0.691 0.705 0.71 0.744 0.771 0.743 0.705 0.724 0.761
2402.032 0.766 0.747 0.717 0.719 0.739 0.751 0.735 0.687 0.676 0.719
2421.326 0.71 0.688 0.732 0.756 0.767 0.766 0.782 0.796 0.817 0.87
2440.619 0.9341 0.9632 0.9306 0.9577 1.03936 1.08234 1.07798 1.07371 1.06433 1.07161
2459.912 1.09413 1.06381 1.01078 0.98811 0.9358 0.9096 0.9192 0.897 0.882 0.841
2479.206 0.808 0.828 0.826 0.772 0.764 0.803 0.816 0.79 0.762 0.777
2498.499 0.798 0.81 0.785 0.773 0.77 0.741 0.717 0.695 0.648 0.621
2517.793 0.616 0.601 0.575 0.543 0.533 0.495 0.501 0.502 0.512 0.501
2537.086 0.465 0.455 0.441 0.473 0.505 0.537 0.551 0.563 0.557 0.535
2556.380 0.567 0.628 0.651 0.673 0.687 0.711 0.766 0.77 0.787 0.806
2575.673 0.799 0.808 0.818 0.845 0.868 0.855 0.886 0.9234 0.931 0.9634
2594.966 0.9777 1.00013 1.01958 1.04085 1.08479 1.1081 1.1232 1.1614 1.2139 1.2168
2614.260 1.2525 1.2814 1.2638 1.272 1.3067 1.3372 1.3296 1.3593 1.3832 1.3936
2633.553 1.4241 1.4337 1.4349 1.4703 1.4847 1.5189 1.5625 1.5783 1.6182 1.6334
2652.847 1.6497 1.6965 1.7359 1.7693 1.7893 1.7724 1.6981 1.6873 1.6941 1.6807
2672.140 1.7488 1.8303 1.9528 2.067 2.157 2.277 2.357 2.397 2.377 2.237
2691.434 2.037 1.8079 1.6071 1.4717 1.3339 1.2359 1.1841 1.1145 1.09158 1.05656
2710.727 1.01446 1.01885 1.00853 1.00473 1.03284 1.05966 1.08234 1.1133 1.1163 1.1518
2730.020 1.2105 1.1897 1.2375 1.305 1.3137 1.3045 1.3131 1.3535 1.3766 1.41
2749.314 1.4441 1.4544 1.461 1.4355 1.4435 1.4765 1.4335 1.3845 1.3656 1.3168
2768.607 1.2815 1.2653 1.2169 1.2386 1.2448 1.2293 1.2313 1.2835 1.3553 1.3491
2787.901 1.3723 1.391 1.3975 1.4399 1.5029 1.564 1.5938 1.5961 1.6445 1.818
2807.194 1.9194 1.9164 1.9747 2.047 2.147 2.327 2.467 2.647 2.747 2.867
2826.488 3.157 3.477 3.817 4.177 4.577 5.047 5.527 6.077 6.677 7.317
2845.781 7.937 8.597 9.277 9.917 10.477 10.947 11.347 11.737 12.127 12.507
2865.074 12.887 13.187 13.367 13.577 13.757 13.867 13.947 13.967 13.867 13.727
2884.368 13.697 13.757 13.737 13.627 13.577 13.577 13.577 13.757 14.097 14.457
2903.661 15.007 15.707 16.557 17.617 18.797 20.097 21.477 22.977 24.607 26.527
2922.955 28.567 30.627 32.847 35.277 37.757 40.007 42.157 44.327 46.617 49.127
2942.248 51.807 54.177 55.897 57.387 58.827 60.537 62.527 64.307 65.677 66.567
2961.542 66.777 66.427 65.547 63.827 62.167 61.097 58.797 54.877 51.077 47.577
2980.835 43.577 38.957 34.127 29.587 25.517 22.007 18.997 16.257 13.857 11.797
3000.128 10.017 8.477 7.147 6.137 5.277 4.507 3.967 3.447 3.027 2.727
3019.422 2.467 2.297 2.117 1.9671 1.8227 1.6543 1.5244 1.4552 1.3541 1.2858
3038.715 1.2479 1.1945 1.1567 1.1342 1.1396 1.1712 1.1589 1.07955 1.03793 1.02401
3058.009 1.03543 1.0003 0.9619 0.9739 0.9132 0.9119 0.895 0.821 0.835 0.818
3077.302 0.824 0.814 0.773 0.784 0.794 0.767 0.768 0.773 0.714 0.718
3096.596 0.706 0.696 0.705 0.711 0.777 0.749 0.647 0.651 0.735 0.754
3115.889 0.729 0.711 0.669 0.591 0.625 0.712 0.721 0.717 0.708 0.723
3135.182 0.698 0.76 0.779 0.735 0.751 0.773 0.706 0.676 0.76 0.718
3154.476 0.73 0.844 0.9066 0.9283 0.9332 0.899 0.865 0.9278 0.815 0.753
3173.769 0.876 0.867 0.824 0.81 0.801 0.77 0.697 0.701 0.756 0.821
3193.063 0.894 0.817 0.844 0.915 0.896 0.888 0.9026 0.897 0.762 0.808
3212.356 0.9339 0.9593 0.885 0.826 0.9015 0.884 0.9216 1.00556 1.07474 1.1599
3231.650 1.1938 1.2701 1.3817 1.4876 1.6417 1.6975 1.7768 1.9376 2.117 2.397
3250.943 2.697 2.867 3.247 3.677 3.917 4.347 4.757 5.097 5.537 6.137
3270.236 6.897 7.987 9.227 10.517 11.887 13.077 13.977 14.917 16.147 17.797
3289.530 20.097 23.377 27.567 32.207 36.757 40.607 43.277 44.917 46.667 49.507
3308.823 53.547 60.067 70.287 82.127 92.827 100.347 103.347 101.257 96.477 93.317
3328.117 90.787 88.147 90.197 94.237 91.267 79.067 62.207 46.007 33.437 24.927
3347.410 19.457 15.797 13.047 10.877 9.147 7.727 6.697 5.987 5.427 4.927
3366.704 4.517 4.247 4.017 3.857 3.757 3.647 3.387 3.067 2.817 2.637
3385.997 2.317 1.9574 1.8243 1.7197 1.5299 1.2913 1.09211 0.9043 0.735 0.779
3405.290 0.853 0.75 0.606 0.594 0.619 0.547 0.559 0.548 0.471 0.425
3424.584 0.393 0.346 0.322 0.361 0.349 0.373 0.402 0.38 0.334 0.337
3443.877 0.323 0.356 0.363 0.332 0.438 0.421 0.394 0.458 0.442 0.362
3463.171 0.36 0.36 0.339 0.336 0.322 0.315 0.328 0.301 0.204 0.2
3482.464 0.293 0.305 0.304 0.276 0.211 0.193 0.173 0.211 0.278 0.297
3501.758 0.272 0.194 0.14 0.209 0.257 0.246 0.158 0.153 0.252 0.249
3521.051 0.29 0.416 0.383 0.22 0.231 0.272 0.316 0.278 0.176 0.206
3540.344 0.232 0.196 0.225 0.22 0.115 0.155 0.228 0.182 0.154 0.151
3559.638 0.208 0.309 0.257 0.187 0.181 0.204 0.292 0.284 0.249 0.167
3578.931 0.135 0.215 0.119 0 0.097 0.193 0.194 0.306 0.36 0.321
3598.225 0.285 0.281 0.341 0.271 0.197 0.193 0.179 0.166 0.192 0.196
3617.518 0.117 0.12 0.158 0.172 0.2 0.182 0.134 0.219 0.304 0.281
3636.812 0.245 0.236 0.268 0.276 0.234 0.245 0.308 0.311 0.214 0.213
3656.105 0.258 0.206 0.28 0.311 0.244 0.258 0.3 0.327 0.324 0.255
3675.398 0.248 0.351 0.328 0.263 0.296 0.358 0.289 0.254 0.27 0.324
3694.692 0.367 0.362 0.342 0.268 0.342 0.417 0.463 0.392 0.308 0.438
3713.985 0.446 0.328 0.335 0.361 0.323 0.314 0.24 0.202 0.216 0.268
3733.279 0.326 0.303 0.326 0.377 0.405 0.381 0.282 0.263 0.334 0.312
3752.572 0.351 0.437 0.362 0.359 0.379 0.3 0.356 0.419 0.411 0.383
3771.866 0.369 0.419 0.396 0.366 0.43 0.436 0.428 0.371 0.378 0.434
3791.159 0.408 0.38 0.353 0.344 0.388 0.447 0.37 0.374 0.482 0.514
3810.452 0.503 0.404 0.294 0.28 0.351 0.402 0.406 0.455 0.453 0.397
3829.746 0.383 0.393 0.434 0.438 0.375 0.391 0.406 0.452 0.466 0.391
3849.039 0.42 0.42 0.4 0.333 0.355 0.394 0.417 0.438 0.379 0.383
3868.333 0.443 0.475 0.384 0.366 0.47 0.568 0.655 0.697 0.559 0.572
3887.626 0.623 0.562 0.58 0.593 0.576 0.593 0.639 0.678 0.709 0.812
3906.920 0.848 0.842 0.8988 0.9469 1.02186 1.08015 1.1512 1.1778 1.2413 1.3254
3926.213 1.3487 1.446 1.5759 1.7098 1.8456 1.9197 2.027 2.157 2.307 2.557
3945.506 2.797 2.887 2.867 2.847 2.627 2.237 1.9243 1.7802 1.625 1.4093
3964.800 1.2661 1.2268 1.2175 1.221 1.2266 1.116 1.00949 0.9732 0.91 0.9553
3984.093 1.00308 0.9367 0.9499 1.04685 1.0966 0.9666 0.854 0.773 0.735
##END=
