##TITLE=4-Nitrophenyl palmitate
##JCAMP-DX=4.24
##DATA TYPE=INFRARED SPECTRUM
##ORIGIN=EPA-IR VAPOR PHASE LIBRARY
##OWNER=SRD/NIST
Collection (C) 2018 copyright by the U.S. Secretary of Commerce
on behalf of the United States of America. All rights reserved.
##CAS REGISTRY NO=1492-30-4
##MOLFORM=C 22 H 35 N O 4
##$NIST SOURCE=MSDC-IR
##STATE=gas
##XUNITS=1/CM
##YUNITS=ABSORBANCE
##XFACTOR=1.
##YFACTOR=0.001
##DELTAX=1.92934
##FIRSTX=549.9
##LASTX=3999.5
##FIRSTY=0.4587
##MAXX=3999.53
##MINX=549.863
##MAXY=0.01979
##MINY=0.000000249
##NPOINTS=1789
##XYDATA=(X++(Y..Y))
549.863 0.4587 0.4207 0.4653 0.5518 0.6331 0.5991 0.5381 0.5198 0.5876 0.58
569.156 0.6297 0.7677 0.7193 0.6638 0.6669 0.5409 0.4965 0.5031 0.4596 0.5086
588.450 0.5882 0.6504 0.6183 0.5759 0.5757 0.5376 0.5056 0.5236 0.513 0.4427
607.743 0.4421 0.4824 0.4984 0.4774 0.4772 0.4706 0.4676 0.5156 0.4637 0.4371
627.037 0.4647 0.4334 0.4005 0.391 0.3986 0.4315 0.454 0.4732 0.4946 0.4789
646.330 0.4906 0.5126 0.5864 0.6273 0.5908 0.6391 0.6522 0.6866 0.7287 0.6955
665.624 0.7027 0.74 0.7361 0.7146 0.7489 0.7541 0.7719 0.783 0.7777 0.8223
684.917 0.8427 0.8612 0.8458 0.8153 0.8683 0.9391 0.9446 0.8864 0.8701 0.8584
704.210 0.8122 0.8103 0.7909 0.8166 0.8731 0.8845 0.9122 0.9393 0.8949 0.8491
723.504 0.9323 0.9444 0.8951 0.8873 0.9272 0.9894 0.927 0.9239 0.9878 1.02
742.797 1.09 1.11 1.06 1.04 1.06 0.9873 0.9089 0.8788 0.8164 0.7838
762.091 0.7625 0.7127 0.6238 0.5969 0.596 0.5569 0.5973 0.6085 0.5811 0.5597
781.384 0.5253 0.536 0.561 0.6097 0.6055 0.5668 0.5395 0.5695 0.6046 0.6445
800.678 0.6589 0.6062 0.6151 0.5827 0.5375 0.5799 0.509 0.4277 0.4888 0.6003
819.971 0.7003 0.7685 0.8656 0.9346 0.8903 0.8251 0.7636 0.72 0.799 0.9172
839.264 0.9903 1.07 1.18 1.27 1.4 1.61 1.88 2.18 2.53 2.93
858.558 3.33 3.59 3.53 3.23 2.86 2.46 2.11 1.9 1.75 1.65
877.851 1.59 1.5 1.44 1.46 1.49 1.52 1.5 1.5 1.6 1.63
897.145 1.65 1.68 1.7 1.74 1.79 1.79 1.79 1.81 1.78 1.71
916.438 1.63 1.56 1.51 1.4 1.3 1.2 1.12 1.08 1.04 0.9657
935.732 0.9196 0.9027 0.856 0.7872 0.7508 0.7641 0.7531 0.7162 0.6694 0.6409
955.025 0.681 0.6974 0.67 0.6478 0.6575 0.7107 0.737 0.6807 0.6548 0.6772
974.318 0.6653 0.6771 0.7078 0.7002 0.6985 0.723 0.7274 0.6971 0.6856 0.7304
993.612 0.7677 0.7672 0.752 0.7733 0.8321 0.8711 0.9224 1.04 1.22 1.4
1012.905 1.53 1.55 1.39 1.18 1.06 0.9911 0.9966 1.01 0.9966 0.9873
1032.199 1.05 1.14 1.15 1.17 1.17 1.2 1.22 1.27 1.33 1.35
1051.492 1.44 1.52 1.58 1.67 1.79 1.88 2 2.17 2.32 2.42
1070.786 2.57 2.79 3.01 3.2 3.43 3.69 3.93 4.22 4.56 4.88
1090.079 5.22 5.63 6.09 6.58 7.02 7.44 7.88 8.25 8.51 8.65
1109.372 8.7 8.67 8.49 8.2 7.91 7.62 7.39 7.14 6.91 6.78
1128.666 6.63 6.42 6.18 5.96 5.73 5.44 5.21 5.09 5 4.89
1147.959 4.89 5.02 5.2 5.52 6.03 6.61 7.12 7.27 6.88 6.09
1167.253 5.29 4.75 4.42 4.29 4.28 4.32 4.4 4.52 4.69 4.89
1186.546 5.12 5.43 5.8 6.25 6.84 7.56 8.39 9.29 10.23 11.08
1205.840 11.55 11.46 10.79 9.66 8.32 7.12 6.14 5.43 4.93 4.53
1225.133 4.28 4.01 3.63 3.25 2.93 2.64 2.4 2.2 2.05 1.99
1244.426 1.87 1.8 1.77 1.67 1.64 1.6 1.58 1.55 1.48 1.48
1263.720 1.49 1.49 1.51 1.5 1.48 1.49 1.49 1.52 1.57 1.57
1283.013 1.59 1.66 1.72 1.73 1.72 1.7 1.69 1.71 1.73 1.76
1302.307 1.78 1.79 1.84 1.84 1.84 1.89 1.89 1.91 1.92 1.94
1321.600 1.98 2.01 2.1 2.26 2.45 2.73 3.1 3.57 4.15 4.84
1340.894 5.68 6.65 7.63 8.53 9.18 9.38 9.11 8.36 7.4 6.39
1360.187 5.39 4.57 3.91 3.37 2.91 2.55 2.31 2.1 1.89 1.74
1379.480 1.59 1.46 1.35 1.25 1.17 1.09 1.07 1.01 0.9371 0.8937
1398.774 0.8585 0.831 0.7977 0.8278 0.8499 0.8301 0.8401 0.8403 0.8568 0.8494
1418.067 0.8595 0.9115 0.9459 0.9879 1.06 1.07 1.08 1.16 1.19 1.16
1437.361 1.17 1.22 1.28 1.41 1.49 1.57 1.67 1.77 1.87 1.92
1456.654 1.99 2.08 2.12 2.12 2.12 2.07 1.97 1.86 1.8 1.82
1475.948 1.89 1.98 2.19 2.56 3.07 3.74 4.55 5.34 5.77 5.63
1495.241 4.9 3.85 3 2.4 2 1.74 1.62 1.6 1.57 1.6
1514.534 1.69 1.84 2.06 2.31 2.64 3.02 3.41 3.88 4.4 4.86
1533.828 5.32 5.79 6.1 6.24 6.3 6.2 5.94 5.5 4.96 4.38
1553.121 3.82 3.29 2.87 2.45 2.15 1.98 1.75 1.54 1.43 1.38
1572.415 1.38 1.41 1.47 1.56 1.71 1.9 2.16 2.48 2.79 3.14
1591.708 3.43 3.62 3.62 3.34 2.93 2.54 2.26 2.1 1.97 1.92
1611.002 1.9 1.85 1.76 1.63 1.57 1.45 1.29 1.18 1.12 0.9824
1630.295 0.837 0.7404 0.634 0.5264 0.4764 0.4557 0.4527 0.4269 0.3941 0.4146
1649.588 0.3873 0.3191 0.3075 0.3573 0.36 0.3428 0.3477 0.3481 0.3698 0.3834
1668.882 0.3692 0.352 0.3424 0.3453 0.3446 0.3347 0.3205 0.3147 0.3152 0.3293
1688.175 0.3508 0.3407 0.3442 0.3398 0.2951 0.2867 0.2883 0.2841 0.2984 0.3422
1707.469 0.3486 0.3446 0.3318 0.3033 0.3052 0.3106 0.3461 0.416 0.4576 0.4538
1726.762 0.4713 0.479 0.4975 0.5372 0.5752 0.6447 0.654 0.6554 0.7322 0.8199
1746.056 0.9006 0.9361 1.03 1.17 1.29 1.43 1.55 1.71 1.9 2.14
1765.349 2.42 2.67 2.98 3.38 3.82 4.25 4.66 5.04 5.29 5.38
1784.642 5.28 5.01 4.64 4.15 3.63 3.19 2.81 2.48 2.2 1.93
1803.936 1.66 1.44 1.23 1.11 1.02 0.8733 0.782 0.753 0.6686 0.6018
1823.229 0.5479 0.476 0.4693 0.4416 0.4058 0.3726 0.3409 0.3472 0.339 0.3542
1842.523 0.3277 0.2663 0.2632 0.2621 0.2447 0.2452 0.2427 0.2242 0.2225 0.209
1861.816 0.1791 0.1838 0.2144 0.2342 0.2347 0.1878 0.1761 0.207 0.1659 0.1316
1881.110 0.1615 0.1713 0.2006 0.2319 0.2295 0.2358 0.222 0.206 0.2429 0.2664
1900.403 0.2366 0.2304 0.2627 0.2897 0.2839 0.2529 0.25 0.238 0.2298 0.2523
1919.696 0.2396 0.1959 0.2178 0.2183 0.209 0.2002 0.172 0.1699 0.1644 0.1508
1938.990 0.1355 0.1431 0.1335 0.1378 0.1517 0.1451 0.1515 0.1714 0.1554 0.1465
1958.283 0.1579 0.165 0.1592 0.1539 0.1874 0.1977 0.1518 0.131 0.1547 0.1517
1977.577 0.1369 0.1372 0.1412 0.1518 0.171 0.162 0.156 0.1676 0.1904 0.21
1996.870 0.1872 0.1626 0.186 0.2107 0.208 0.2034 0.1891 0.1859 0.174 0.1592
2016.164 0.1745 0.1856 0.1969 0.1893 0.1525 0.1267 0.1325 0.1422 0.1268 0.1102
2035.457 0.1144 0.1398 0.1425 0.141 0.1339 0.1551 0.1679 0.138 0.1303 0.1459
2054.750 0.1397 0.1088 0.1134 0.11 0.08395 0.09531 0.1147 0.1055 0.08815 0.1173
2074.044 0.177 0.1541 0.1049 0.09935 0.1174 0.15 0.1518 0.128 0.1213 0.1249
2093.337 0.1104 0.0988 0.1191 0.1048 0.1038 0.1527 0.1634 0.1321 0.1143 0.1271
2112.631 0.1492 0.1306 0.1022 0.124 0.1425 0.1544 0.1324 0.1282 0.1337 0.109
2131.924 0.09162 0.07726 0.07334 0.09194 0.09811 0.1127 0.1382 0.09704 0.08489 0.1018
2151.218 0.1022 0.103 0.08388 0.05827 0.07156 0.1026 0.1046 0.0815 0.05729 0.06548
2170.511 0.08505 0.08218 0.05185 0.05535 0.0786 0.07015 0.07348 0.08081 0.09277 0.1166
2189.804 0.1146 0.07434 0.05416 0.06206 0.07811 0.09231 0.08047 0.07944 0.07986 0.07415
2209.098 0.07644 0.07502 0.08598 0.09608 0.08459 0.09001 0.08799 0.08331 0.09062 0.08695
2228.391 0.08559 0.06455 0.05781 0.05918 0.06405 0.08744 0.07888 0.06061 0.05853 0.06426
2247.685 0.02935 0.03993 0.07278 0.05036 0.039 0.05372 0.07551 0.08903 0.0944 0.06739
2266.978 0.06519 0.07907 0.09011 0.09365 0.07838 0.08521 0.09479 0.08104 0.07308 0.06831
2286.272 0.0544 0.04936 0.06352 0.06433 0.05319 0.06374 0.07429 0.08213 0.08759 0.07893
2305.565 0.07217 0.06752 0.07143 0.06945 0.05503 0.04254 0.0381 0.0404 0.04111 0.04561
2324.858 0.02219 0.01967 0.03399 0.02271 0.0199 0.03768 0.03158 0.0188 0.0338 0.03325
2344.152 0.04124 0.08625 0.1336 0.1025 0.04471 0.02549 0.02329 0.001505 0.008581 0.03921
2363.445 0.0162 0.0002495 0.03409 0.03482 0.0398 0.08394 0.07731 0.09013 0.07948 0.04287
2382.739 0.03499 0.03789 0.08499 0.1119 0.09336 0.09091 0.1057 0.09691 0.09042 0.1243
2402.032 0.1038 0.05462 0.07502 0.1166 0.1451 0.1451 0.1497 0.1394 0.1129 0.1345
2421.326 0.1319 0.09327 0.06455 0.08047 0.1192 0.1036 0.08595 0.07527 0.07179 0.05886
2440.619 0.02847 0.02796 0.07604 0.1016 0.07422 0.1054 0.123 0.09725 0.08901 0.1054
2459.912 0.1179 0.11 0.104 0.06946 0.06321 0.08853 0.1035 0.1095 0.06651 0.05147
2479.206 0.05075 0.02437 0.04911 0.08736 0.1009 0.0717 0.07563 0.07356 0.03599 0.07156
2498.499 0.08753 0.08032 0.05727 0.03406 0.04695 0.05881 0.05737 0.08624 0.1009 0.05571
2517.793 0.02638 0.01077 0.03723 0.07385 0.1003 0.07945 0.05894 0.09981 0.1076 0.0849
2537.086 0.06048 0.0272 0.05279 0.07933 0.05934 0.0794 0.05419 0.03908 0.06097 0.05703
2556.380 0.02215 0.004165 0.04057 0.06121 0.04431 0.06407 0.06173 0.03059 0.0848 0.1246
2575.673 0.09376 0.08504 0.08367 0.06719 0.08639 0.0996 0.09253 0.1192 0.1672 0.153
2594.966 0.1361 0.1316 0.1123 0.09592 0.1088 0.1216 0.1141 0.108 0.1273 0.1685
2614.260 0.1289 0.0888 0.1241 0.1134 0.0774 0.1033 0.1462 0.1322 0.08214 0.06208
2633.553 0.1177 0.1508 0.1408 0.1486 0.1256 0.1445 0.1589 0.1129 0.1126 0.1619
2652.847 0.1417 0.1352 0.1691 0.1844 0.1862 0.1559 0.1215 0.1599 0.2204 0.1964
2672.140 0.1676 0.1448 0.1852 0.2415 0.2488 0.2228 0.1816 0.1777 0.186 0.1852
2691.434 0.1884 0.2059 0.2211 0.2156 0.1893 0.1501 0.1495 0.1785 0.1879 0.1434
2710.727 0.1275 0.1765 0.1708 0.1669 0.1495 0.1436 0.1274 0.1405 0.1736 0.1769
2730.020 0.2298 0.2175 0.1908 0.2152 0.2037 0.1585 0.1666 0.1817 0.1891 0.1961
2749.314 0.1944 0.1851 0.2204 0.2037 0.1402 0.1884 0.2088 0.2161 0.2404 0.2538
2768.607 0.2153 0.1865 0.2257 0.2128 0.2235 0.3109 0.3383 0.2547 0.2282 0.274
2787.901 0.3074 0.37 0.4114 0.3656 0.3315 0.4149 0.4549 0.4445 0.495 0.4878
2807.194 0.4188 0.4638 0.497 0.5027 0.5898 0.6388 0.7163 0.7655 0.7811 0.8247
2826.488 0.8117 0.8225 0.8662 0.9909 1.16 1.23 1.34 1.49 1.67 1.93
2845.781 2.19 2.48 2.9 3.46 4.15 5 5.79 6.48 7.04 7.26
2865.074 7.15 6.78 6.36 5.88 5.4 5.01 4.6 4.3 4.11 3.95
2884.368 3.83 3.62 3.46 3.49 3.55 3.69 3.74 3.81 4.07 4.36
2903.661 4.72 5.19 5.66 6.2 6.84 7.53 8.33 9.31 10.46 11.79
2922.955 13.35 15.03 16.73 18.24 19.26 19.79 19.59 18.76 17.51 15.98
2942.248 14.48 13.04 11.57 10.18 9.1 8.15 7.25 6.63 6.16 5.7
2961.542 5.35 5.19 5.13 4.96 4.57 4.24 3.99 3.53 3.08 2.73
2980.835 2.4 2.17 1.91 1.69 1.53 1.43 1.37 1.29 1.14 1
3000.128 0.9499 0.8566 0.8197 0.8319 0.6826 0.6245 0.6583 0.629 0.6594 0.5956
3019.422 0.5406 0.5178 0.4252 0.4069 0.3908 0.3774 0.4329 0.4277 0.3928 0.3721
3038.715 0.3319 0.3246 0.2809 0.256 0.3019 0.3261 0.3499 0.4083 0.3107 0.2489
3058.009 0.3284 0.3094 0.2986 0.3313 0.3859 0.2822 0.153 0.2199 0.2836 0.3164
3077.302 0.3395 0.2899 0.2939 0.27 0.2965 0.3837 0.3832 0.4225 0.4546 0.3831
3096.596 0.3037 0.228 0.2426 0.2724 0.2376 0.2942 0.2746 0.2151 0.2324 0.1822
3115.889 0.1564 0.146 0.1707 0.335 0.3311 0.2781 0.3252 0.2835 0.2891 0.1802
3135.182 0.08524 0.1822 0.2781 0.2054 0.1518 0.3305 0.363 0.3057 0.2219 0.09842
3154.476 0.149 0.2118 0.227 0.1876 0.1255 0.1738 0.2035 0.1617 0.134 0.1575
3173.769 0.1113 0.08625 0.2168 0.2509 0.2365 0.2953 0.3164 0.3034 0.2378 0.2811
3193.063 0.2898 0.1744 0.1622 0.1896 0.2102 0.2312 0.1295 0.07905 0.1385 0.2537
3212.356 0.3467 0.2697 0.2255 0.22 0.1473 0.05902 0.04405 0.1371 0.2012 0.1581
3231.650 0.1671 0.2955 0.3499 0.3122 0.2347 0.1943 0.1524 0.1125 0.136 0.2463
3250.943 0.2973 0.2629 0.3104 0.2691 0.3399 0.3081 0.1566 0.189 0.1964 0.09513
3270.236 0.07511 0.2076 0.2177 0.1782 0.1523 0.1368 0.2467 0.2387 0.1885 0.1324
3289.530 0.2157 0.3396 0.2845 0.2888 0.334 0.34 0.2716 0.2995 0.4092 0.4159
3308.823 0.3407 0.2743 0.2264 0.3079 0.3835 0.3181 0.2255 0.2499 0.3868 0.3948
3328.117 0.3009 0.3228 0.4104 0.3224 0.3007 0.4288 0.41 0.3708 0.3555 0.3294
3347.410 0.3362 0.3123 0.2807 0.309 0.3184 0.3923 0.3968 0.3901 0.348 0.238
3366.704 0.2857 0.3072 0.3254 0.4149 0.5011 0.4352 0.3342 0.2541 0.2437 0.2905
3385.997 0.3809 0.4605 0.3222 0.2703 0.3984 0.3197 0.2563 0.3811 0.447 0.3657
3405.290 0.1827 0.2342 0.3507 0.3863 0.4703 0.5123 0.4293 0.3085 0.267 0.2516
3424.584 0.2924 0.2387 0.1259 0.1741 0.2374 0.2248 0.2746 0.3761 0.4528 0.3825
3443.877 0.2704 0.2242 0.1869 0.3078 0.3774 0.3369 0.3296 0.3619 0.3747 0.3605
3463.171 0.3728 0.3753 0.3186 0.2558 0.2994 0.3412 0.3303 0.2588 0.2565 0.3535
3482.464 0.3724 0.2843 0.2713 0.3495 0.324 0.2767 0.3356 0.385 0.3922 0.3629
3501.758 0.3208 0.3179 0.3339 0.2949 0.2862 0.4479 0.4694 0.3238 0.3233 0.3644
3521.051 0.3761 0.4198 0.3504 0.2467 0.2672 0.3064 0.2766 0.3919 0.4805 0.377
3540.344 0.4003 0.44 0.4284 0.4229 0.4096 0.4233 0.3796 0.3531 0.3667 0.3907
3559.638 0.4147 0.3382 0.2698 0.33 0.3832 0.3357 0.3144 0.274 0.192 0.2629
3578.931 0.3633 0.3063 0.2627 0.2444 0.2398 0.2869 0.267 0.2562 0.2636 0.3096
3598.225 0.3905 0.3663 0.3202 0.2965 0.2834 0.2939 0.22 0.1494 0.1229 0.1167
3617.518 0.1823 0.2059 0.2009 0.216 0.2566 0.3312 0.3201 0.2044 0.1853 0.2676
3636.812 0.3213 0.2721 0.2118 0.2647 0.2735 0.2786 0.3159 0.3262 0.3344 0.3351
3656.105 0.296 0.2761 0.2828 0.2628 0.2308 0.2804 0.3454 0.2425 0.1722 0.2424
3675.398 0.2321 0.2132 0.2098 0.2256 0.2595 0.2335 0.265 0.2037 0.2233 0.3493
3694.692 0.3539 0.2804 0.2514 0.307 0.3656 0.3365 0.2902 0.3068 0.2284 0.1729
3713.985 0.1661 0.1921 0.1745 0.1687 0.258 0.2898 0.3333 0.3362 0.2823 0.2853
3733.279 0.2951 0.2644 0.3099 0.3173 0.2007 0.1814 0.2381 0.2195 0.1623 0.208
3752.572 0.2859 0.236 0.2613 0.3128 0.2594 0.2232 0.2644 0.3723 0.2755 0.2024
3771.866 0.255 0.267 0.2425 0.2027 0.2501 0.2449 0.2271 0.2992 0.3083 0.2694
3791.159 0.2904 0.3325 0.3226 0.2365 0.2714 0.2871 0.2087 0.1927 0.2112 0.2272
3810.452 0.2 0.1848 0.2874 0.3169 0.187 0.1475 0.2 0.2255 0.2235 0.2278
3829.746 0.2065 0.148 0.1488 0.1714 0.1242 0.1474 0.2269 0.2191 0.2434 0.3178
3849.039 0.2936 0.2154 0.1227 0.07998 0.1361 0.2201 0.2612 0.2233 0.2597 0.3883
3868.333 0.3425 0.1786 0.1659 0.2071 0.2166 0.2371 0.2388 0.2928 0.28 0.202
3887.626 0.2047 0.2407 0.2632 0.2161 0.2027 0.1857 0.1715 0.1884 0.1516 0.1299
3906.920 0.08394 0.04042 0.06226 0.1294 0.2166 0.2027 0.1518 0.236 0.2812 0.2523
3926.213 0.2521 0.2447 0.3279 0.3171 0.2152 0.2101 0.1837 0.1709 0.2032 0.2479
3945.506 0.2528 0.2161 0.2258 0.2154 0.1477 0.1087 0.1614 0.1558 0.1088 0.1588
3964.800 0.2332 0.2467 0.26 0.3347 0.324 0.2617 0.2868 0.2962 0.2964 0.295
3984.093 0.2675 0.2044 0.1704 0.1732 0.1648 0.2195 0.2451 0.2717 0.3009
##END=
