##TITLE=3-Fluoro-5-(trifluoromethyl)benzonitrile
##JCAMP-DX=4.24
##DATA TYPE=INFRARED SPECTRUM
##ORIGIN=EPA-IR VAPOR PHASE LIBRARY
##OWNER=SRD/NIST
Collection (C) 2018 copyright by the U.S. Secretary of Commerce
on behalf of the United States of America. All rights reserved.
##CAS REGISTRY NO=149793-69-1
##MOLFORM=C 8 H 3 F 4 N
##$NIST SOURCE=MSDC-IR
##STATE=gas
##XUNITS=1/CM
##YUNITS=ABSORBANCE
##XFACTOR=1.
##YFACTOR=0.001
##DELTAX=1.92898
##FIRSTX=549.8
##LASTX=4000.7
##FIRSTY=3
##MAXX=4000.7
##MINX=549.759
##MAXY=0.42134
##MINY=0
##NPOINTS=1790
##XYDATA=(X++(Y..Y))
549.759 3 2.78 2.0255 1.0381 1.9046 2.0087 1.3011 1.2952 1.2471 1.08505
569.049 1.4524 1.4821 1.0125 1.468 1.5454 0.91 1.18282 1.345 0.676 0.04
588.339 0.196 0.535 0.757 1.17668 1.3111 1.5086 1.3158 1.1018 1.305 1.2586
607.628 1.8026 2.0608 2.12 2.49 2.32 2.44 2.66 2.91 2.76 2.61
626.918 3.91 4.79 4.78 5.34 5.95 6.51 7.42 8.72 8.7 6.95
646.208 5.85 5.5 4.8 4 3.17 2.79 2.85 2.8 2.41 2.28
665.498 2.45 2.6 2.73 3.09 4.1 5.47 7.04 9.59 12.76 16.33
684.787 19.11 21.5 24.78 32.36 38.86 32.99 25.11 23.65 25.53 31.46
704.077 41.08 51.62 54.49 56.76 61.05 56.17 53.94 47.55 31.82 18.7
723.367 10.86 7.29 5.55 4.59 3.94 3.74 3.91 3.57 3.48 3.86
742.657 3.22 2.81 3.07 2.88 2.6 2.47 2.42 2.22 1.7215 1.5489
761.947 1.5555 1.4996 1.0932 1.2649 1.8115 1.7433 1.6274 1.5598 1.7526 2.26
781.236 2.0581 1.8154 1.9543 2.62 3.4 3.52 3.53 3.82 3.74 3.62
800.526 3.63 3.17 2.98 2.59 2.22 2.21 1.8728 1.921 2.0297 1.888
819.816 1.6858 1.7031 1.535 1.5153 2.3 2.37 2.72 3.6 3.53 3.34
839.106 3.54 3.68 3.98 4.62 4.76 4.54 4.73 4.94 5.17 5.98
858.395 6.98 8.51 11.68 16.51 22.67 31.21 42.2 54.12 65.66 76.21
877.685 83.9 89.29 96.87 109.09 112.1 91.22 71.05 62.72 54.52 45.24
896.975 35.97 27.47 20.35 14.83 11.07 8.81 7.32 6.38 5.74 5.31
916.265 5.42 5.68 5.45 5.37 5.48 5.31 5 4.47 4.3 4.55
935.555 4.76 5.19 5.71 6.46 7.66 9.75 12.93 17.16 22.85 31.11
954.844 41.92 54.64 67.56 77.33 82 82.41 82.15 81.65 77.23 66.68
974.134 52.14 38.22 27.52 20.97 17.28 15.54 15.05 15.31 16.63 17.33
993.424 17.02 16.44 15.82 15.78 14.8 12.54 10.55 8.48 7.12 5.82
1012.714 4.54 3.57 3.15 3.73 3.6 3.35 3.52 3.82 4.01 3.82
1032.003 3.78 4.57 4.58 4.95 5.34 4.83 4.58 4.94 5.78 4.96
1051.293 4.3 4.86 5.75 5.5 4.51 5 5.19 5.13 5.28 5.94
1070.583 6.95 7.32 9.03 9.69 10.18 13.35 17.05 22.31 29.06 36.77
1089.873 45.39 50.43 52.54 55.09 55.61 52.4 46.48 36.88 26.9 20.46
1109.163 16.05 13.92 12.99 12.99 13.45 13.77 15.95 18.16 19.95 23.2
1128.452 27.99 33.25 39.15 46.52 54.15 63.64 75.42 91.5 112.2 136.75
1147.742 165.43 198.51 236.49 277.6 322.05 365.61 394.49 396.38 365.11 317.53
1167.032 278.7 249.28 220.21 196.49 188 198.45 225.38 257.48 283.46 295.72
1186.322 291.04 270.84 240.43 208.21 178.26 147.88 115.81 89.02 71.07 59.9
1205.611 53.16 49.16 47.74 45.99 45.01 46.8 48.49 51.93 58.83 70.58
1224.901 90.29 114.92 140.98 165.29 182.43 193.29 198.19 195.33 184.02 162.46
1244.191 137.13 113.57 93.79 77.51 60.83 45.43 34.45 27.11 21.83 18.43
1263.481 15.7 13.34 11.97 11.24 10.74 10.34 10.8 11.42 11.71 12.06
1282.771 12.55 13.26 13.97 14.83 15.36 15.54 15.77 16.26 16.82 17.14
1302.060 17.55 17.86 17.96 18 18.3 18.39 18.34 18.63 19.16 20.72
1321.350 23.32 27.07 32.5 39.78 49.18 60.75 75.13 93.1 116.24 146.42
1340.640 185.02 232.11 284.83 337.31 381.6 410.57 421.34 413.89 387.3 340.78
1359.930 277.61 205.48 138.08 88.54 57.99 40.64 30.65 24.29 20.02 16.96
1379.219 14.7 13.14 12.02 11.28 10.63 10.23 9.94 9.52 9.15 8.92
1398.509 8.89 8.7 8.73 9.34 10.13 11.3 13.05 15.58 18.73 22.46
1417.799 26.87 31.49 36.1 40.71 45.24 50.09 54.89 58.6 61.52 63.89
1437.089 66.56 69.53 71.84 73.39 74.17 74.43 74.51 74.9 76 77.48
1456.378 77.38 74.13 68.25 61.45 55.34 49.35 43.05 36.41 30.06 24.38
1475.668 19.74 16.79 15.37 14.48 14.02 13.99 13.93 13.92 13.73 13.03
1494.958 12.33 11.54 10.53 9.35 7.95 7 6.38 5.65 5.21 5.02
1514.248 5.11 5.41 5.51 5.48 5.74 5.79 5.7 5.92 5.94 5.75
1533.538 5.66 5.62 5.58 5.35 5.15 5.14 5.26 5.16 4.97 4.96
1552.827 5 5.16 5.54 5.94 6.09 6.2 6.48 7.11 8.3 9.71
1572.117 11.25 13.26 15.79 18.86 22.1 25.53 29.05 32.69 36.42 40.38
1591.407 44.5 48.56 52.51 55.95 58.95 60.65 60.54 59.23 57.09 54.18
1610.697 49.9 44.25 38.26 33.05 28.78 25.2 22.39 19.84 17.69 16.02
1629.986 14.09 12.25 10.65 9.06 7.64 6.65 5.79 5.1 4.9 4.68
1649.276 4.76 4.85 4.92 5.2 5.23 5.34 5.37 5.31 5.13 5.01
1668.566 4.78 4.32 3.98 3.63 3.16 2.87 2.71 2.45 2.35 2.28
1687.856 2.16 2.13 2.12 2.13 2.22 2.3 2.39 2.21 2.0518 2.0186
1707.146 2.0715 2.0643 1.928 1.8852 1.787 1.8703 1.8705 1.8275 1.7528 1.5863
1726.435 1.641 1.5966 1.5857 1.8303 1.8034 1.8504 1.9234 1.9576 2.062 2.13
1745.725 2.18 2.33 2.49 2.68 3.13 3.67 4.32 5.03 5.87 6.85
1765.015 8 9 9.74 10.57 11.02 11.09 10.95 10.46 9.89 9.4
1784.305 8.75 8.09 7.48 6.84 6.35 5.94 5.5 4.98 4.51 3.98
1803.594 3.61 3.34 2.92 2.61 2.39 2.17 1.8465 1.6778 1.6432 1.5882
1822.884 1.5956 1.5875 1.5204 1.6369 1.6564 1.4929 1.5838 1.5734 1.5221 1.6448
1842.174 1.5778 1.663 1.7419 1.8306 1.8567 1.8495 2.0068 1.9854 1.9302 1.8653
1861.464 1.8954 1.8941 1.8852 1.8601 1.8068 1.7357 1.6158 1.5543 1.697 1.7443
1880.754 1.7338 1.7026 1.5664 1.6314 1.6459 1.537 1.4649 1.4515 1.5231 1.4995
1900.043 1.4231 1.3927 1.2519 1.2996 1.3166 1.18136 1.1916 1.2461 1.2238 1.1913
1919.333 1.2127 1.1921 1.16438 1.2123 1.2755 1.2605 1.3271 1.2277 1.08286 1.13427
1938.623 1.0733 1.1014 1.14543 1.0783 1.1994 1.2839 1.2549 1.2562 1.333 1.3965
1957.913 1.3847 1.3895 1.3095 1.3194 1.3534 1.2555 1.199 1.3126 1.3352 1.1915
1977.202 1.2275 1.2764 1.08167 1.0684 1.1908 1.2222 1.2177 1.1228 0.943 0.887
1996.492 0.966 1.12008 1.2861 1.2469 1.3288 1.3062 1.18418 1.224 1.3603 1.517
2015.782 1.5537 1.6993 1.5679 1.2605 1.3446 1.5219 1.5503 1.6616 1.761 1.7732
2035.072 1.7039 1.6442 1.6934 1.8761 1.8935 1.8135 1.8185 1.777 1.7707 1.9075
2054.362 1.9662 1.9178 2.0201 2.0226 2.0411 2.0803 2.0594 2.0733 1.8491 1.5881
2073.651 1.4932 1.5041 1.5171 1.5246 1.5713 1.5511 1.6355 1.5233 1.6315 1.8921
2092.941 1.7 1.7476 2.09 2.3 2.28 2.17 2.15 2.17 2.23 2.15
2112.231 2.0539 1.9942 1.8386 1.7367 1.7445 1.7759 1.7864 1.6702 1.5578 1.4932
2131.521 1.416 1.459 1.468 1.3569 1.13368 1.0665 1.0158 0.983 1.186 1.1851
2150.810 1.09297 1.1932 1.3619 1.3663 1.2622 1.3498 1.3708 1.3378 1.4529 1.2527
2170.100 1.16674 1.2163 1.0314 1.0295 1.2646 1.471 1.559 1.7299 1.7455 1.7583
2189.390 1.8032 1.7118 1.9236 2.22 2.33 2.28 2.23 2.38 2.44 2.27
2208.680 1.9463 1.7973 1.8146 1.784 1.9227 1.9401 1.6571 1.624 1.8436 1.9616
2227.970 2.087 2.27 2.44 2.63 2.82 3.15 3.44 3.51 3.5 3.45
2247.259 3.13 2.85 2.61 2.31 2.11 1.8319 1.6915 1.6264 1.6753 1.702
2266.549 1.8922 2.0353 1.8138 1.7885 1.947 2.19 2.2 2.0707 2.13 1.9648
2285.839 1.8411 2.0114 2.0242 1.9049 2.0882 2.27 2.23 2.14 2.15 2.32
2305.129 2.47 2.53 2.38 2.54 2.71 2.47 2.32 2.39 2.42 2.4
2324.418 2.28 2.2 2.3 2.35 2.18 2.14 2.39 2.4 2.21 2.23
2343.708 2.22 2.0097 2.024 2.0531 2.0092 1.8953 1.7859 1.8685 1.829 1.8189
2362.998 1.8828 1.9171 2.12 2.27 2.25 2.0622 2.0163 2.18 1.9731 1.9811
2382.288 2.14 2.0179 1.9146 1.9213 1.9602 1.8015 1.7483 1.7597 1.7554 1.9946
2401.578 1.9555 1.8299 1.8288 1.8412 1.8066 1.8871 1.9178 1.7131 1.7906 1.8606
2420.867 1.9272 1.8333 1.7524 1.6866 1.5165 1.5291 1.563 1.4855 1.3055 1.3628
2440.157 1.3604 1.2041 1.3925 1.5865 1.6044 1.5641 1.3804 1.3701 1.5939 1.5819
2459.447 1.2662 1.3716 1.5013 1.4545 1.5332 1.6456 1.8083 1.7887 1.7379 1.6811
2478.737 1.9286 2.17 2.13 1.9648 1.8829 2.0604 1.9469 1.7532 1.6313 1.5574
2498.026 1.7061 1.7101 1.5259 1.3919 1.3792 1.3508 1.2149 1.0221 0.891 1.2095
2517.316 1.4197 1.17391 1.204 1.2891 1.1955 1.16347 1.1927 1.2195 1.17734 1.2752
2536.606 1.5851 1.7033 1.6212 1.637 1.738 1.7799 1.6631 1.6884 1.9229 1.7917
2555.896 1.8297 1.8303 1.7785 2.0346 1.8982 1.718 1.8485 1.859 1.7444 1.889
2575.186 2.17 2.14 1.9734 2.15 2.09 1.9915 1.9716 1.7645 1.5747 1.5191
2594.475 1.7443 1.6369 1.341 1.2753 1.3146 1.16634 1.13333 1.1932 1.1227 0.983
2613.765 0.967 1.4735 1.5858 1.18969 1.0626 1.256 1.3697 1.4071 1.2966 1.13651
2633.055 1.2255 1.2504 1.16541 1.2992 1.4914 1.3409 1.3586 1.2563 1.2765 1.5066
2652.345 1.3195 1.2368 1.2126 1.2139 1.2574 1.3824 1.2887 1.2377 1.18681 0.965
2671.634 0.998 1.0425 1.2114 1.4305 1.4949 1.316 1.3371 1.4182 1.4896 1.5871
2690.924 1.55 1.385 1.1916 1.511 1.8483 1.7965 1.7777 1.6917 1.463 1.4215
2710.214 1.5866 1.3696 1.0465 1.0447 0.952 0.781 0.793 0.862 0.985 0.91
2729.504 0.979 0.873 0.75 0.993 1.001 0.9911 0.9944 1.09826 1.2132 1.13641
2748.794 0.946 0.894 1.2046 1.3363 0.928 0.705 0.721 0.685 0.866 0.923
2768.083 0.947 1.0204 0.874 0.774 0.679 0.916 1.15349 1.13156 0.97 0.633
2787.373 0.398 0.474 0.808 0.816 0.67 0.808 0.979 1.0545 1.2264 1.08766
2806.663 0.906 1.396 1.3309 1.0001 1.0036 0.811 0.88 0.954 0.926 1.18574
2825.953 1.0099 1.09587 1.2338 0.772 0.835 1.08098 0.873 0.646 0.919 1.2365
2845.242 1.5452 1.4053 1.2789 1.3922 0.927 0.817 1.0002 0.764 0.699 0.86
2864.532 1.0538 0.97 0.732 0.86 0.825 0.777 0.809 0.659 0.764 1.0414
2883.822 1.0174 0.542 0.702 1.069 1.18715 1.2618 1.08875 0.808 0.81 1.0102
2903.112 1.10272 1.2043 1.0646 1.2198 1.3697 1.3106 1.3446 1.2757 0.95 0.815
2922.401 1.2256 1.16902 0.713 1.0726 1.3228 1.12751 0.9977 0.454 0.461 0.899
2941.691 1.10729 1.2055 1.2395 1.3929 1.2084 1.09109 0.943 1.0048 1.2999 1.13056
2960.981 1.1969 1.5153 1.4524 1.18434 1.11648 1.11888 1.3678 1.3693 1.2516 1.0513
2980.271 0.757 0.965 1.001 1.08249 1.15058 1.0261 0.963 1.0532 1.10803 0.769
2999.561 0.746 0.9917 1.12181 1.12095 1.12068 1.2796 1.2477 0.966 0.697 0.372
3018.850 0.507 0.682 0.446 0.778 0.865 0.912 1.037 0.869 1.08609 0.921
3038.140 0.91 1.2557 1.2923 1.4438 1.4108 1.3012 1.5453 1.8082 2.0034 1.9048
3057.430 1.7063 1.6979 1.54 1.7787 2.0802 1.7153 1.6242 1.9989 2.1 2.15
3076.720 2.39 2.55 2.51 2.87 3.73 4.49 5.22 5.96 6.16 6.63
3096.009 6.5 5.97 5.7 4.87 4.42 3.78 3.06 2.59 2.0354 1.7017
3115.299 1.6816 1.4418 1.0671 1.2024 1 0.609 0.44 0.609 0.936 1.0124
3134.589 0.888 0.799 1.08725 1.12158 1.09139 0.887 0.54 0.714 0.872 0.563
3153.879 0.223 0.202 0.278 0.507 0.715 0.767 0.945 1.16158 1.12689 1.0048
3173.169 0.781 0.556 0.708 0.869 1.2011 1.0126 0.922 1.17493 0.888 0.705
3192.458 0.832 0.937 1.1006 1.3067 1.1906 1.0581 1.0513 0.959 0.746 0.852
3211.748 0.963 1.0098 1.2259 1.3883 1.3271 0.972 0.804 1.0517 1.0489 0.664
3231.038 0.551 0.66 0.604 0.687 0.978 1.0768 1.11963 0.954 0.694 0.715
3250.328 0.833 0.836 0.845 0.683 0.779 0.895 0.983 0.965 0.756 0.9959
3269.617 1.3148 1.14164 0.503 0.579 0.856 0.729 0.946 0.916 0.603 0.652
3288.907 0.488 0.441 0.349 0.201 0.465 1.0428 1.15519 0.806 0.553 0.514
3308.197 0.564 0.561 0.399 0.413 0.813 1.10397 0.794 0.439 0.652 0.719
3327.487 0.83 0.769 0.671 1.10565 0.756 0.322 0.74 0.668 0.145 0.102
3346.777 0.7 0.9982 1.10527 0.928 0.6 0.785 0.972 0.773 0.615 0.441
3366.066 0.338 0.769 0.966 0.53 0.334 0.413 0.618 0.927 0.802 0.674
3385.356 0.767 0.762 0.95 1.6497 1.7279 1.0677 0.816 0.726 0.851 0.878
3404.646 0.649 0.652 0.867 1.0129 1.1034 0.9932 0.96 1.17184 1.17095 0.959
3423.936 0.715 1.0235 1.10267 0.615 0.608 0.73 0.409 0.288 0.475 0.594
3443.225 0.797 0.811 0.361 0.03 0.185 0.651 1.0521 1.12456 1.1515 1.267
3462.515 1.16446 1.13046 1.007 0.868 0.976 1.2674 1.6046 1.4421 0.953 0.89
3481.805 1.0143 0.761 0.935 0.833 0.671 0.642 0.723 0.953 0.84 0.337
3501.095 0.208 0.63 0.854 0.883 0.903 0.92 1.3033 1.4418 1.0208 1.09536
3520.385 1.311 1.0383 0.749 0.903 0.677 0.375 0.511 0.719 0.699 0.501
3539.674 0.609 0.815 0.831 0.725 0.641 0.818 1.13073 1.12661 0.803 0.717
3558.964 1.0692 1.0227 0.451 0.692 1.2689 0.987 0.687 0.77 0.791 0.989
3578.254 1.17329 0.974 0.87 0.751 0.638 0.707 0.902 1.16133 1.13535 1.032
3597.544 0.964 0.785 0.745 0.648 0.965 0.927 0.328 0.772 1.0003 0.566
3616.833 0.317 0.861 1.3432 1.10409 1.09401 1.09042 1.0393 0.976 0.864 0.695
3636.123 0.696 0.873 1.17405 1.3864 0.824 0.773 1.2223 0.9911 0.808 0.868
3655.413 0.974 1.3453 1.3558 0.794 0.309 0.263 0.595 0.937 1.0614 1.1708
3674.703 1.016 0.673 0.787 0.719 0.425 0.218 0.345 0.151 0.01 0.598
3693.993 1.0077 0.854 0.768 1.0231 0.771 0.366 0.634 0.975 0.872 0.625
3713.282 0.513 0.456 0.649 0.778 0.622 0.41 0.319 0.749 0.977 0.809
3732.572 0.95 1.08692 0.889 0.763 0.549 0.727 1.2153 1.3061 1.333 1.336
3751.862 1.16356 0.975 0.802 1.035 0.9926 0.556 0.758 1.0212 1.14243 0.805
3771.152 0.768 1.0123 0.661 0.407 0.249 0.735 1.0151 0.776 0.782 0.579
3790.441 0.427 0.788 0.984 0.785 0.503 0.709 0.733 0.73 1.14638 0.637
3809.731 0.468 0.662 0.488 0.755 1.13948 1.0872 0.681 0.532 1.09884 1.10997
3829.021 0.674 0.701 0.954 1.10071 1.2489 1.4113 0.952 1.0171 1.3445 0.923
3848.311 0.823 0.984 1.0695 0.925 0.763 1.14103 1.11559 0.629 0.669 0.872
3867.601 0.813 0.717 0.724 0.747 0.466 0.18 0.654 1.2118 1.12789 0.488
3886.890 0.204 0.539 0.557 0.408 0.06 0 0.352 0.476 0.557 0.727
3906.180 0.656 0.557 0.823 0.984 0.85 0.774 0.939 0.683 0.566 0.964
3925.470 0.663 0.668 0.85 0.502 0.44 0.554 0.751 0.789 0.549 0.674
3944.760 0.689 0.506 0.553 0.512 0.452 0.651 0.752 0.728 0.596 0.437
3964.049 0.524 0.738 1.3746 1.6802 0.986 0.709 1.09979 1.16674 1.327 1.13924
3983.339 1.10841 1.11743 0.441 0.744 0.667 0.155 0.473 0.858 0.846 0.446
##END=
