##TITLE=4,4'-Diphenoxybenzophenone
##JCAMP-DX=4.24
##DATA TYPE=INFRARED SPECTRUM
##ORIGIN=EPA-IR VAPOR PHASE LIBRARY
##OWNER=SRD/NIST
Collection (C) 2018 copyright by the U.S. Secretary of Commerce
on behalf of the United States of America. All rights reserved.
##CAS REGISTRY NO=14984-21-5
##MOLFORM=C 25 H 18 O 3
##$NIST SOURCE=MSDC-IR
##STATE=gas
##XUNITS=1/CM
##YUNITS=ABSORBANCE
##XFACTOR=1.
##YFACTOR=0.001
##DELTAX=1.92898
##FIRSTX=549.8
##LASTX=4000.7
##FIRSTY=0.557
##MAXX=4000.7
##MINX=549.759
##MAXY=0.0336
##MINY=0
##NPOINTS=1790
##XYDATA=(X++(Y..Y))
549.759 0.557 0.523 0.634 0.8854 1.0085 0.619 0.51 0.518 0.6761 0.8642
569.049 0.77874 0.54 0.562 0.78746 0.6911 0.75808 0.9995 1.1494 1.2429 1.3706
588.339 1.4141 1.2961 1.0455 1.0452 1.1124 0.9546 0.7889 0.8893 1.0087 0.8994
607.628 0.9066 1.0838 1.1556 1.2544 1.1727 0.8882 1.0943 1.253 1.1094 1.0413
626.918 0.88 0.8834 0.9719 0.9533 0.9681 1.0397 1.0452 0.8736 0.9034 0.979
646.208 0.8962 0.9219 0.9859 0.82634 0.7075 0.9603 1.2504 1.2564 1.0659 0.83231
665.498 0.9082 0.9939 0.8955 1.0763 1.2714 1.4614 1.5518 1.6067 1.96 2.24
684.787 2.33 2.45 2.64 2.97 3.05 2.8 2.39 2.03 1.7133 1.513
704.077 1.5477 1.2626 1.0085 0.9867 1.0966 1.0769 1.0362 1.1188 1.1895 1.2448
723.367 1.2152 1.1729 1.1822 1.3739 1.3793 1.3162 1.4941 1.6758 1.85 2.07
742.657 2.61 3.07 3.27 3.51 3.5 3.15 2.79 2.78 2.76 2.52
761.947 2.42 2.32 2.11 2.18 2.02 1.6459 1.4349 1.4524 1.552 1.4619
781.236 1.3816 1.2763 1.3056 1.4723 1.5431 1.4005 1.2561 1.268 1.3775 1.4111
800.526 1.2977 1.1712 0.937 0.9448 1.0618 0.9749 1.0279 1.1649 1.2625 1.3376
819.816 1.5324 1.5346 1.2891 1.1324 1.0825 1.1655 1.3108 1.3715 1.3961 1.4374
839.106 1.5846 1.8 1.98 2.06 2.08 2.13 2.26 2.51 2.48 2.49
858.395 2.62 2.9 3.4 3.7 3.85 3.98 3.9 3.25 2.63 2.35
877.685 2 1.6302 1.3945 1.3542 1.3386 1.2712 1.2157 1.1495 1.2637 1.4275
896.975 1.3096 1.2642 1.362 1.4508 1.563 1.4599 1.3698 1.436 1.6226 1.95
916.265 2.17 2.4 3 3.83 4.64 5.47 5.64 4.93 4 3.16
935.555 2.42 2 1.81 1.5712 1.4682 1.6552 1.7394 1.6759 1.5897 1.4235
954.844 1.36 1.2806 1.0996 1.0416 1.0878 1.1603 1.2144 1.135 0.9905 0.9763
974.134 0.945 0.78708 0.75529 0.6909 0.605 0.6911 0.7277 0.7057 0.76059 0.8778
993.424 0.8834 0.77757 0.78387 0.75992 0.7157 0.8459 0.982 1.0073 1.24 1.3359
1012.714 1.2134 1.3704 1.4735 1.3639 1.1976 1.1524 1.1612 0.9786 0.6851 0.437
1032.003 0.408 0.505 0.632 0.384 0.143 0.256 0.364 0.321 0.309 0.461
1051.293 0.532 0.598 0.628 0.7144 0.9273 0.9305 0.8847 0.598 0.326 0.6488
1070.583 1.1249 1.0145 0.9052 0.9063 0.6651 0.545 0.321 0.417 0.7031 0.444
1089.873 0.105 0.246 0.158 0 0.155 0.362 0.486 0.8841 1.0616 1.0994
1109.163 1.3918 1.236 0.80495 0.552 0.552 0.7251 0.6429 0.8374 0.9093 1.0758
1128.452 1.3025 1.0627 1.0151 1.0907 1.2986 1.4093 1.3444 1.5724 2.03 2.14
1147.742 2.01 2.42 3.18 3.77 5.1 6.96 8.58 9.93 10.2 8.65
1167.032 6.59 4.87 3.59 2.79 2.35 2.37 2.35 2.19 2.21 2.2
1186.322 2.27 2.15 2.02 2.39 2.74 3.03 3.29 3.02 2.93 3.05
1205.611 2.95 3.14 3.6 3.96 4.27 5.03 5.76 6.63 8.18 9.83
1224.901 11.7 13.8 16.22 19.35 22.54 25.81 29.25 32.08 33.6 33.32
1244.191 31.06 27.59 23.49 19.44 16.27 13.75 11.68 10.19 9.38 8.92
1263.481 8.68 8.69 8.84 8.84 8.39 7.85 7.3 6.72 6.3 5.97
1282.771 5.65 5.47 5.28 5.1 4.93 4.65 4.41 4.28 4.25 4.29
1302.060 4.45 4.58 4.47 4.24 3.89 3.53 3.27 3.06 2.91 2.73
1321.350 2.58 2.42 2.29 2.16 1.96 1.86 1.79 1.6993 1.6345 1.5889
1340.640 1.5572 1.519 1.4878 1.4452 1.4121 1.4415 1.4169 1.3379 1.3643 1.3862
1359.930 1.315 1.3137 1.3345 1.297 1.2462 1.1644 1.1406 1.1832 1.188 1.1626
1379.219 1.1749 1.2005 1.1796 1.1992 1.2346 1.1987 1.1847 1.1948 1.2764 1.3675
1398.509 1.4001 1.4873 1.5232 1.6124 1.8 1.94 2.07 2.11 2.05 1.92
1417.799 1.79 1.6861 1.574 1.5267 1.4875 1.425 1.3889 1.3575 1.3556 1.3827
1437.089 1.4216 1.4419 1.4239 1.4585 1.561 1.6441 1.6872 1.8 1.95 2.02
1456.378 2.1 2.22 2.32 2.39 2.46 2.54 2.6 2.68 2.87 3.17
1475.668 3.64 4.32 5.29 6.69 8.6 11.07 13.76 15.73 15.87 14.01
1494.958 11.2 8.77 7.41 6.77 6.38 5.93 5.25 4.48 3.76 3.1
1514.248 2.61 2.32 2.19 2.1 1.97 1.82 1.74 1.7096 1.701 1.7198
1533.538 1.6919 1.6373 1.5942 1.6133 1.6395 1.637 1.6268 1.6763 1.76 1.84
1552.827 1.88 1.96 2.07 2.21 2.48 2.67 2.91 3.25 3.63 4.16
1572.117 4.92 5.79 6.76 8.01 9.42 10.77 11.97 12.78 12.96 12.63
1591.407 11.83 10.67 9.4 8.16 7.09 6.31 5.77 5.36 4.97 4.45
1610.697 3.84 3.28 2.77 2.37 2.1 1.96 1.83 1.6828 1.6229 1.6349
1629.986 1.5928 1.5065 1.4994 1.494 1.4414 1.392 1.444 1.511 1.5523 1.6002
1649.276 1.6304 1.6835 1.81 1.94 2.01 2.13 2.28 2.51 2.89 3.39
1668.566 4.01 4.7 5.4 5.8 5.73 5.39 4.82 4.14 3.47 2.91
1687.856 2.54 2.25 2.06 1.9 1.75 1.5294 1.3678 1.3867 1.3735 1.3222
1707.146 1.2423 1.1797 1.1563 1.1462 1.1051 1.0565 1.0479 1.0956 1.0958 1.0322
1726.435 1.0324 1.069 1.0694 1.0339 1.0046 1.002 0.9766 0.9284 0.9428 0.9461
1745.725 0.9442 0.9515 0.9556 0.9396 0.8934 0.8872 0.9207 0.9346 0.9334 0.9342
1765.015 0.9419 0.9463 1.0179 1.0524 1.0459 1.0914 1.0545 1.0285 1.0223 0.9801
1784.305 1.015 1.0139 0.9575 0.9483 0.9975 0.9592 0.8278 0.81283 0.82149 0.81745
1803.594 0.8591 0.8547 0.8482 0.8746 0.8786 0.8461 0.80976 0.81352 0.8414 0.82684
1822.884 0.82477 0.82481 0.8443 0.8698 0.80219 0.79748 0.8778 0.9304 0.9144 0.9215
1842.174 0.887 0.8788 0.9211 0.9239 0.9702 0.9634 0.8914 0.872 0.898 0.9279
1861.464 0.9278 0.9242 0.9496 0.9542 0.9433 0.9074 0.8792 0.9021 0.9367 0.933
1880.754 0.9112 0.9163 0.9436 0.9459 0.964 0.9645 0.9659 0.9483 0.9325 0.9782
1900.043 0.9747 1.0251 1.0884 1.0855 1.015 0.9615 0.9953 1.0368 1.0687 1.064
1919.333 1.0366 1.0288 0.9927 0.9533 0.993 1.0419 1.088 1.0572 1.0025 1.0349
1938.623 1.0467 1.0387 1.0036 0.9605 0.9665 0.9626 0.9665 0.9956 0.9711 0.9634
1957.913 0.9541 0.9033 0.8684 0.8438 0.8647 0.885 0.8761 0.865 0.82639 0.8651
1977.202 0.9218 0.9133 0.9014 0.8899 0.9071 0.9307 0.9695 0.9812 1.0091 1.0201
1996.492 0.9733 0.9348 0.8929 0.9169 0.9611 0.9659 0.936 0.9099 0.9432 0.9562
2015.782 0.974 1.047 1.0727 1.0925 1.1118 1.108 1.1057 1.1261 1.1102 1.0635
2035.072 1.0853 1.0811 1.0222 0.9796 1.0081 1.0416 1.0075 1.0014 1.0148 0.9888
2054.362 0.9325 0.914 0.9741 1.0269 1.0377 1.017 0.9933 0.9408 0.9306 0.9425
2073.651 0.9256 0.9287 0.8783 0.8273 0.8419 0.81772 0.79908 0.8587 0.8502 0.81309
2092.941 0.82825 0.852 0.8787 0.8717 0.8894 0.8782 0.83812 0.8797 0.8409 0.78297
2112.231 0.8705 0.867 0.80345 0.83504 0.8419 0.8539 0.8918 0.8553 0.79968 0.82775
2131.521 0.81608 0.80119 0.79964 0.76897 0.79524 0.78787 0.77364 0.79891 0.83296 0.83847
2150.810 0.82028 0.859 0.8786 0.81393 0.76155 0.80949 0.8904 0.8837 0.8425 0.8795
2170.100 0.9671 0.9453 0.82937 0.81711 0.8722 0.8678 0.8822 0.9324 0.9168 0.8677
2189.390 0.8543 0.8577 0.8788 0.9205 0.9432 0.8597 0.81249 0.8457 0.8751 0.868
2208.680 0.81705 0.80959 0.8708 0.9552 0.953 0.9078 0.8841 0.81706 0.81613 0.82607
2227.970 0.81443 0.8525 0.8718 0.8919 0.8654 0.83954 0.866 0.8862 0.8655 0.82829
2247.259 0.8745 0.9087 0.8866 0.9366 0.9418 0.8414 0.78385 0.82798 0.8808 0.919
2266.549 0.8958 0.8688 0.8873 0.9188 0.936 0.927 0.8715 0.82102 0.83197 0.8763
2285.839 0.8942 0.8609 0.9088 0.961 0.9119 0.8717 0.8993 0.9522 0.9181 0.8575
2305.129 0.8859 0.8599 0.8505 0.936 0.9114 0.9018 0.9444 0.9133 0.8914 0.9105
2324.418 0.9285 0.9927 0.9969 0.9464 0.9666 0.9534 0.9289 0.9128 0.9353 0.9668
2343.708 0.9651 0.9563 0.9661 0.9724 0.9201 0.9082 0.9652 0.9735 1.0012 1.0543
2362.998 1.0279 0.995 0.9992 0.9847 1.0082 0.9853 0.98 0.9781 0.9609 1.0216
2382.288 1.0102 1.0409 1.0493 1.0235 1.0762 1.0554 1.0678 1.0692 1.0463 1.0842
2401.578 1.0577 1.0696 1.0906 1.0551 1.0655 1.04 1.0361 1.0368 1.0303 1.0608
2420.867 1.0715 1.0686 1.0624 1.0931 1.0742 1.066 1.0893 1.0895 1.143 1.1556
2440.157 1.1441 1.1407 1.1206 1.0836 1.0335 1.037 1.081 1.0628 1.0275 1.0169
2459.447 0.938 0.9079 0.935 0.9312 0.9486 0.9451 0.968 0.9936 0.9553 0.9528
2478.737 0.9918 1.0612 1.0209 0.9597 0.9854 0.9768 0.9851 0.9929 0.9694 0.9223
2498.026 0.9471 0.9801 0.9144 0.9168 1.003 1.0217 0.9626 0.9007 0.9029 0.8861
2517.316 0.83917 0.8719 0.9339 0.9649 0.9079 0.9113 0.917 0.9252 0.9173 0.902
2536.606 0.9934 0.9843 0.9071 0.8856 0.8997 0.896 0.9029 0.9863 1.052 1.0271
2555.896 0.9891 0.9952 1.0167 1.0105 0.9964 0.9993 1.0113 1.041 1.0037 0.9445
2575.186 0.9283 0.8848 0.9281 0.9454 0.9691 1.0364 0.9494 0.929 0.949 0.882
2594.475 0.8495 0.8688 0.9399 0.9441 0.9228 0.9296 0.906 0.8561 0.8435 0.883
2613.765 0.8818 0.8582 0.8746 0.83684 0.78642 0.83698 0.8955 0.905 0.8827 0.8501
2633.055 0.8821 0.9585 0.9744 0.9771 1.0024 0.9874 0.9538 0.9333 0.8979 0.8907
2652.345 0.9279 0.9716 0.9713 0.9157 0.9167 0.9129 0.8894 0.9006 0.9286 0.9497
2671.634 0.881 0.80339 0.80846 0.8725 0.9444 0.9223 0.8999 0.9355 0.9132 0.9115
2690.924 0.8924 0.8782 0.9224 0.9701 0.9974 0.9676 0.9675 0.9935 0.9645 0.9307
2710.214 0.9011 0.8674 0.8704 0.894 0.9251 0.9433 0.943 0.9588 0.9378 0.8449
2729.504 0.8618 0.8512 0.83466 0.9424 0.9589 0.9462 0.9329 0.8994 0.8963 0.945
2748.794 0.9976 0.9955 1.0206 1.0642 1.089 1.0484 1.029 0.9857 0.9516 0.9915
2768.083 0.9807 0.9671 0.9728 0.975 0.9515 0.939 0.9134 0.8925 0.8625 0.8668
2787.373 0.9354 0.8984 0.8705 0.9492 0.9339 0.9306 0.9968 1.0316 1.0127 0.9434
2806.663 0.9009 0.9405 0.9436 0.9485 0.9801 0.9362 0.8765 0.8418 0.8425 0.8742
2825.953 0.8947 0.9253 0.8728 0.8813 0.9695 0.9398 0.9456 0.946 0.9151 0.927
2845.242 0.9439 1.0237 1.048 0.9453 0.9503 1.0268 1.0036 0.9412 0.9156 0.8617
2864.532 0.79255 0.8558 0.9537 0.9473 0.8923 0.953 1.0273 1.0005 0.9467 0.9432
2883.822 0.9157 0.9276 1.0332 1.0163 0.9991 0.9677 0.959 0.9619 0.9625 0.9818
2903.112 0.9328 0.8911 0.891 0.9043 0.8704 0.7852 0.78233 0.82927 0.8771 0.9101
2922.401 0.8823 0.8989 0.9322 0.8741 0.82457 0.8643 0.9564 0.9397 0.9101 0.9004
2941.691 0.8773 0.8338 0.827 0.8831 0.9307 0.9661 0.9237 0.8921 0.9873 0.992
2960.981 0.8953 0.9642 0.8853 0.81446 0.8501 0.8676 0.9693 1.0385 1.0035 0.9158
2980.271 0.8804 0.8918 0.9643 0.978 0.8701 0.9132 0.9605 0.9685 0.9927 1.0582
2999.561 1.0424 0.9899 1.055 1.0427 1.0956 1.1128 1.0694 1.1072 1.1461 1.1547
3018.850 1.1728 1.2215 1.2871 1.3167 1.3284 1.3357 1.3792 1.4995 1.704 1.87
3038.140 1.86 1.84 1.95 2.09 2.09 1.99 1.95 1.93 1.88 1.8
3057.430 1.6985 1.6904 1.6548 1.6837 1.77 1.83 1.98 2.1 2.22 2.28
3076.720 2.31 2.39 2.37 2.32 2.23 2.03 1.93 1.89 1.76 1.75
3096.009 1.77 1.6587 1.5833 1.6051 1.5102 1.4362 1.32 1.229 1.2159 1.1779
3115.299 1.0966 1.051 1.0933 1.0622 0.9915 0.9119 0.9285 0.9163 0.8562 0.8768
3134.589 0.9265 0.8785 0.78065 0.79136 0.8213 0.79691 0.82358 0.8757 0.8837 0.974
3153.879 0.9473 0.8776 0.9063 0.946 0.9337 0.80143 0.76858 0.8558 0.81199 0.7606
3173.169 0.71 0.6793 0.81832 0.76485 0.77342 0.8988 0.9207 0.8744 0.80495 0.8221
3192.458 0.75364 0.82189 0.9986 0.9859 0.8957 0.82866 0.73972 0.81089 0.8644 0.8648
3211.748 0.80581 0.79627 0.8448 0.851 0.9387 0.893 0.83586 0.9124 0.9807 0.931
3231.038 0.8753 0.893 0.9317 0.8829 0.82914 0.8524 0.82671 0.79671 0.78418 0.75417
3250.328 0.77609 0.7246 0.77827 0.9153 0.936 0.8729 0.8134 0.9212 0.926 0.82906
3269.617 0.9119 1.0532 0.9761 0.8581 0.9243 0.8548 0.78801 0.82141 0.81749 0.8425
3288.907 0.79319 0.75139 0.9009 1.0305 0.9622 0.936 0.9365 0.869 0.79082 0.81504
3308.197 0.77681 0.6558 0.645 0.75097 0.83061 0.79978 0.83648 0.7777 0.73381 0.79536
3327.487 0.80726 0.806 0.80351 0.9627 1.0208 0.82863 0.83699 0.8833 0.8587 0.8781
3346.777 0.905 0.9104 0.9418 0.9572 0.858 0.82193 0.967 1.0075 0.8862 0.9235
3366.066 0.9962 0.9606 0.79576 0.77777 0.8791 0.8852 0.8583 0.7164 0.6837 0.80427
3385.356 0.76696 0.76923 0.8158 0.7991 0.81337 0.77378 0.76581 0.749308 0.740623 0.79139
3404.646 0.8726 0.9245 0.8497 0.77995 0.7841 0.77645 0.8528 0.83778 0.78676 0.7641
3423.936 0.78322 0.76221 0.740574 0.81959 0.82586 0.8741 0.9355 0.9107 0.8651 0.9248
3443.225 0.978 0.8498 0.77384 0.81262 0.81434 0.9345 0.9766 0.8525 0.7206 0.6975
3462.515 0.743791 0.77928 0.8413 0.80147 0.9256 0.9238 0.78679 0.8424 0.79538 0.76567
3481.805 0.78389 0.81714 0.78528 0.6559 0.76455 0.8865 0.9151 0.9378 0.948 0.9627
3501.095 0.8582 0.8489 0.8805 0.7673 0.79731 0.8578 0.7582 0.724 0.7191 0.73751
3520.385 0.6834 0.713 0.81426 0.79891 0.8533 0.9259 0.8717 0.8757 0.9343 0.82495
3539.674 0.741067 0.7014 0.745175 0.78905 0.76375 0.77404 0.7753 0.81675 0.746659 0.7281
3558.964 0.78979 0.74408 0.73128 0.77895 0.7802 0.722 0.75438 0.79061 0.80142 0.82229
3578.254 0.740128 0.6431 0.7124 0.83684 0.79931 0.77355 0.8473 0.8928 0.8806 0.76839
3597.544 0.6486 0.6469 0.6432 0.608 0.6636 0.7298 0.78002 0.75101 0.75111 0.79792
3616.833 0.83299 0.8762 0.79734 0.76292 0.6514 0.6479 0.6713 0.6784 0.76924 0.80694
3636.123 0.8781 0.73221 0.77233 0.9537 0.83505 0.6998 0.7009 0.76752 0.78455 0.746751
3655.413 0.73497 0.8168 0.8761 0.83987 0.75958 0.6629 0.6506 0.746541 0.77538 0.75475
3674.703 0.7126 0.654 0.6537 0.557 0.6938 0.8753 0.82515 0.8544 0.81944 0.6939
3693.993 0.73872 0.75039 0.6678 0.78071 0.8206 0.742013 0.745681 0.74984 0.6803 0.6937
3713.282 0.743192 0.76693 0.82866 0.7225 0.7003 0.79076 0.81924 0.749191 0.6887 0.7182
3732.572 0.7137 0.721 0.6633 0.6719 0.77026 0.7654 0.80639 0.888 0.83704 0.79689
3751.862 0.79015 0.79051 0.75832 0.6891 0.75155 0.7745 0.6905 0.77054 0.8589 0.78098
3771.152 0.6833 0.73849 0.83422 0.8453 0.79001 0.80741 0.78553 0.6733 0.6908 0.79846
3790.441 0.83487 0.77385 0.6819 0.632 0.638 0.593 0.6817 0.7187 0.601 0.572
3809.731 0.6998 0.78766 0.7171 0.7171 0.6769 0.6404 0.6714 0.6647 0.7203 0.79465
3829.021 0.81018 0.82 0.79395 0.78331 0.82025 0.79767 0.8731 0.83895 0.6973 0.6619
3848.311 0.83987 0.9887 0.79463 0.6744 0.749214 0.8501 0.8771 0.749538 0.79777 0.915
3867.601 0.8717 0.8712 0.8705 0.8654 0.8945 0.8447 0.78133 0.81678 0.81245 0.83845
3886.890 0.9409 0.9479 0.9579 0.9717 0.8887 0.8751 0.8874 0.80646 0.7239 0.632
3906.180 0.606 0.7164 0.80806 0.78288 0.666 0.626 0.6881 0.745892 0.79388 0.8596
3925.470 0.83254 0.7197 0.75774 0.78131 0.687 0.73452 0.8573 0.81147 0.7052 0.6955
3944.760 0.7282 0.6926 0.6907 0.75378 0.78658 0.8424 0.7163 0.626 0.6441 0.6788
3964.049 0.77609 0.74996 0.827 0.9879 0.9005 0.78889 0.6642 0.606 0.6925 0.8436
3983.339 0.9002 0.6986 0.6617 0.8207 0.8693 0.78856 0.75093 0.774 0.77592 0.747675
##END=
