##TITLE=4-Bromo-2-fluorocinnamic acid
##JCAMP-DX=4.24
##DATA TYPE=INFRARED SPECTRUM
##ORIGIN=EPA-IR VAPOR PHASE LIBRARY
##OWNER=SRD/NIST
Collection (C) 2018 copyright by the U.S. Secretary of Commerce
on behalf of the United States of America. All rights reserved.
##CAS REGISTRY NO=149947-19-3
##MOLFORM=C 9 H 6 Br F O 2
##$NIST SOURCE=MSDC-IR
##STATE=gas
##XUNITS=1/CM
##YUNITS=ABSORBANCE
##XFACTOR=1.
##YFACTOR=0.001
##DELTAX=1.929
##FIRSTX=549.8
##LASTX=4000.8
##FIRSTY=30.28
##MAXX=4000.75
##MINX=549.766
##MAXY=0.25994
##MINY=0
##NPOINTS=1790
##XYDATA=(X++(Y..Y))
549.766 30.28 31.1 31.41 31.53 31.58 31.64 31.72 31.51 31.21 31.37
569.056 32.33 33.54 35 37.07 39.58 41.81 43.06 43.23 41.81 38.92
588.346 35.35 31.72 28.22 24.91 22.14 20.21 19.23 19.27 20.22 22.25
607.636 25.49 29.65 34.73 39.98 43.54 43.75 40.51 34.76 27.39 20.03
626.926 14.74 11.76 9.99 8.99 8.39 7.85 7.67 7.76 7.74 7.97
646.216 8.4 9.04 10.07 11.4 12.82 14.15 15.57 16.68 17.19 17.02
665.506 16.44 15.62 14.79 14.4 14.44 14.48 14.25 13.62 12.53 11.39
684.796 10.65 10.19 9.92 9.76 9.45 9.06 8.57 8.07 7.62 7.23
704.086 6.84 6.51 6.27 6.08 5.97 5.89 5.79 5.68 5.54 5.43
723.376 5.48 5.55 5.68 6.01 6.35 6.62 6.78 6.88 6.9 6.82
742.666 6.67 6.3 5.91 5.71 5.45 5.15 4.98 4.94 4.86 4.85
761.956 4.8 4.64 4.51 4.48 4.42 4.25 4.14 4.09 4.07 4.16
781.246 4.33 4.56 4.99 5.65 6.59 7.85 9.44 11.59 14.53 18.15
800.536 22.07 26.16 30.37 34.37 38.17 41.18 41.34 39.06 36.09 32.57
819.826 28.51 24.21 20.1 16.57 13.88 11.96 10.61 9.7 9.15 8.88
839.116 8.8 8.78 9.11 9.92 11.2 12.88 14.95 17.46 20.27 23.1
858.406 25.8 28.59 30.96 31.5 31.26 31.76 32.38 33.17 35.15 39.14
877.696 46.05 56.09 67.49 76.78 81.67 82.14 77.99 69.76 60.69 53.19
896.986 47.09 40.75 33.89 28.7 25.94 24.22 22.48 20.7 18.81 16.54
916.276 14.27 12.65 11.53 10.79 10.34 10.12 10.11 10.33 10.77 11.46
935.566 12.47 13.69 15.18 16.76 18.01 18.42 17.78 16.26 14.11 11.94
954.856 10.55 10.01 10.14 10.87 12.08 13.85 16.07 18.6 21.41 24.29
974.146 26.97 29.25 30.95 31.78 31.54 30.25 28.14 25.59 22.83 19.99
993.436 17.22 14.8 12.82 11.19 9.94 9 8.38 7.97 7.58 7.24
1012.726 6.93 6.68 6.43 6.24 6.19 6.2 6.24 6.32 6.35 6.4
1032.016 6.43 6.42 6.48 6.53 6.53 6.58 6.73 7.02 7.4 7.88
1051.306 8.58 9.58 11.09 13.24 16.1 19.92 24.78 30.35 35.78 39.56
1070.596 40.55 38.87 35.13 30.1 25.62 23.1 22.28 22.64 23.75 25.34
1089.886 27.5 30.26 33.81 38.42 44.48 52.34 62.23 74.61 89.81 107.69
1109.176 129 155.1 184.93 214.27 236.4 245.89 242.54 226.95 200.88 172.31
1128.467 147.69 127.64 110.53 95.5 83.26 74.74 70.56 70.15 72.43 76.9
1147.757 83.03 90.52 98.55 105.57 109.9 109.56 103.43 92.73 79.5 65.25
1167.047 52.17 42.25 35.49 30.85 27.62 25.53 24.19 23.29 22.87 22.77
1186.337 22.85 23.07 23.3 23.63 24.02 24.37 24.7 25.08 25.66 26.59
1205.627 27.98 29.82 32.18 35.03 38.07 40.91 43.2 44.7 45.26 44.92
1224.917 43.71 41.75 39.49 37.58 36.17 35.23 34.92 34.99 35.4 36.13
1244.207 36.91 37.73 38.46 38.89 38.96 38.66 37.99 37.02 35.92 34.79
1263.497 33.74 32.92 32.27 31.81 31.6 31.63 31.74 31.82 31.78 31.62
1282.787 31.39 31.15 30.93 30.74 30.52 30.25 30.01 29.95 30.14 30.56
1302.077 31 31.39 31.64 31.63 31.39 31.07 30.86 30.86 30.96 31.12
1321.367 31.19 30.97 30.42 29.65 28.78 28.01 27.6 27.68 28.51 30.21
1340.657 32.86 36.51 41.35 47.43 54.48 61.95 69.2 75.54 80.06 81.64
1359.947 79.78 74.82 67.36 58.47 49.34 41.37 35.41 31.16 28.09 25.98
1379.237 24.66 23.93 23.7 23.93 24.43 25.09 25.86 26.78 27.85 29.21
1398.527 31.04 33.44 36.14 38.94 41.46 43.14 43.55 42.55 40.26 36.7
1417.817 32.2 27.35 23.34 20.19 17.77 16.15 15.15 14.79 14.94 15.42
1437.107 15.94 16.34 16.38 15.89 14.92 13.69 12.39 11.27 10.49 10.12
1456.397 10.05 10.28 10.85 11.85 13.51 15.89 19.14 23.61 29.81 38.26
1475.687 48.5 60.88 73.72 85.02 91.88 92.72 86.81 75 60.08 45.94
1494.977 34.07 25.13 19.36 15.51 12.92 11.2 9.87 8.85 8.2 7.79
1514.267 7.64 7.68 7.83 8.04 8.32 8.52 8.64 8.73 8.68 8.65
1533.557 8.71 8.89 9.38 10.13 11.07 12.26 13.66 15.28 17.08 18.99
1552.847 20.86 22.82 24.53 26.06 27.31 27.97 28.2 28.09 27.61 26.82
1572.137 25.92 25.12 24.5 24.26 24.78 26.24 28.77 32.69 38.03 44.8
1591.427 52.64 60.85 68.32 73.49 74.97 72.04 65.2 55.85 45.78 36.86
1610.717 30.38 26.4 24.41 23.64 23.5 23.79 24.47 25.65 27.52 30.64
1630.007 35.39 42.02 50.48 61.17 72.19 81.6 87.54 87.97 82.04 70.34
1649.297 55.8 41.74 28.93 20.41 15.63 12.59 10.79 9.59 8.79 8.29
1668.587 8.07 7.98 7.99 8.08 8.37 8.72 9.07 9.44 9.81 10.02
1687.877 10.18 10.37 10.54 10.8 11.2 11.58 12.1 12.85 13.69 14.89
1707.167 16.31 17.91 19.7 21.5 23.27 25.09 26.87 28.53 30.44 32.78
1726.457 35.55 38.81 42.82 47.75 54.2 61.83 70.96 83.33 98.85 119.01
1745.747 143.82 172.98 203.43 231.16 250.65 259.94 259.11 248.09 230.21 210.79
1765.037 190.4 168 144.95 123.47 103.58 88.13 76.6 67.65 60.58 54.97
1784.327 50.57 46.96 43.97 41.2 38.45 35.66 32.92 30.14 27.44 24.79
1803.617 22.34 20.12 18.15 16.4 14.81 13.44 12.27 11.25 10.43 9.72
1822.907 9.09 8.53 8.07 7.65 7.29 7 6.69 6.39 6.13 5.86
1842.197 5.57 5.29 5.01 4.73 4.51 4.24 4 3.81 3.59 3.44
1861.487 3.34 3.23 3.17 3.16 3.2 3.26 3.38 3.5 3.67 3.83
1880.777 3.99 4.13 4.27 4.35 4.31 4.24 4.09 3.87 3.65 3.41
1900.067 3.15 2.9 2.74 2.6 2.48 2.39 2.35 2.3 2.3 2.32
1919.357 2.34 2.38 2.39 2.42 2.42 2.41 2.4 2.35 2.31 2.24
1938.647 2.1563 2.0577 1.9302 1.8435 1.7961 1.742 1.7265 1.7437 1.7788 1.7566
1957.937 1.7127 1.7048 1.6847 1.6432 1.6196 1.6161 1.5838 1.5494 1.5329 1.4635
1977.227 1.4043 1.3868 1.3593 1.3508 1.3216 1.28621 1.30517 1.30428 1.28524 1.30394
1996.517 1.3227 1.3324 1.3722 1.417 1.4625 1.513 1.5614 1.5701 1.554 1.6017
2015.807 1.6057 1.5996 1.6123 1.573 1.5679 1.5836 1.5982 1.6269 1.6746 1.7363
2035.097 1.765 1.8215 1.8871 1.9216 1.9973 2.074 2.1087 2.1544 2.23 2.31
2054.387 2.36 2.38 2.41 2.42 2.4 2.35 2.24 2.082 1.9222 1.7938
2073.677 1.7087 1.6135 1.5145 1.443 1.3882 1.3706 1.3175 1.28933 1.3192 1.3239
2092.967 1.28541 1.28139 1.3371 1.3328 1.3234 1.3409 1.3636 1.3656 1.3951 1.4074
2112.257 1.364 1.3337 1.3195 1.3108 1.27872 1.27754 1.28891 1.2426 1.21208 1.20309
2131.547 1.1947 1.191 1.1549 1.1342 1.1571 1.1484 1.108 1.069 1.033 1.04
2150.837 1.041 1.017 1.034 1.041 1.018 1.015 1.038 1.047 1.038 1.03
2170.127 1.081 1.121 1.109 1.1322 1.1586 1.1673 1.1495 1.1282 1.082 1.092
2189.417 1.1849 1.2303 1.20384 1.20106 1.26421 1.27511 1.26354 1.26349 1.25024 1.30903
2208.707 1.4018 1.3991 1.3662 1.3957 1.4576 1.5306 1.5437 1.5569 1.6079 1.6283
2227.997 1.6829 1.7307 1.7174 1.7012 1.6724 1.6453 1.6093 1.5679 1.5283 1.5076
2247.287 1.5031 1.4836 1.457 1.4257 1.3903 1.3503 1.3582 1.368 1.3582 1.28485
2266.577 1.21602 1.25484 1.25145 1.22682 1.27283 1.25242 1.23148 1.22957 1.24438 1.29365
2285.868 1.3102 1.3551 1.3912 1.3887 1.3905 1.436 1.4556 1.4466 1.5241 1.5327
2305.158 1.4987 1.5285 1.5274 1.4622 1.4037 1.3823 1.3518 1.3226 1.27688 1.20078
2324.448 1.1535 1.1483 1.1871 1.1849 1.1788 1.1934 1.1957 1.24311 1.22528 1.24116
2343.738 1.3257 1.30735 1.25338 1.27736 1.27803 1.29175 1.30025 1.25955 1.25366 1.21441
2363.028 1.1985 1.1931 1.22853 1.25749 1.23616 1.24658 1.23946 1.23963 1.2732 1.28754
2382.318 1.26813 1.26681 1.24667 1.2407 1.27175 1.27347 1.2542 1.24733 1.26213 1.29523
2401.608 1.27604 1.26321 1.28885 1.28112 1.29545 1.27689 1.25881 1.27872 1.28786 1.27559
2420.898 1.24299 1.26323 1.27668 1.27626 1.3408 1.3954 1.3897 1.385 1.3809 1.3804
2440.188 1.38 1.3607 1.3627 1.3796 1.3896 1.3975 1.3629 1.3355 1.4203 1.4606
2459.478 1.4611 1.5184 1.5551 1.6049 1.6091 1.6006 1.618 1.6123 1.6212 1.6196
2478.768 1.6065 1.6158 1.6456 1.6215 1.5447 1.4692 1.4949 1.5124 1.4653 1.4429
2498.058 1.4207 1.4043 1.4072 1.4141 1.4152 1.4173 1.411 1.3375 1.28362 1.3573
2517.348 1.3919 1.3407 1.29224 1.28879 1.25948 1.24171 1.26309 1.28715 1.27773 1.27789
2536.638 1.2847 1.28237 1.26041 1.1932 1.1461 1.1103 1.1411 1.21999 1.23213 1.1912
2555.928 1.1853 1.22711 1.26294 1.2765 1.2961 1.2919 1.22919 1.1992 1.24298 1.28537
2575.218 1.3239 1.3484 1.3855 1.4173 1.3885 1.34 1.3412 1.24257 1.102 1.106
2594.508 1.07 1.001 0.957 0.901 0.893 0.904 0.862 0.858 0.868 0.84
2613.798 0.837 0.839 0.825 0.799 0.795 0.825 0.853 0.841 0.883 0.924
2633.088 0.973 1.011 0.928 0.908 0.936 0.924 0.902 0.909 0.924 0.952
2652.378 0.974 1.003 1.031 0.993 0.967 0.955 0.998 0.999 0.952 0.95
2671.668 1.011 1.062 1.069 1.1332 1.13 1.1145 1.1382 1.1535 1.1903 1.22883
2690.958 1.25953 1.3144 1.3528 1.3528 1.3382 1.3251 1.3175 1.3384 1.3146 1.23236
2710.248 1.21653 1.20729 1.1467 1.1142 1.066 1.045 1.016 0.956 0.893 0.809
2729.538 0.792 0.811 0.818 0.792 0.796 0.732 0.684 0.742 0.809 0.824
2748.828 0.804 0.818 0.86 0.95 0.983 0.973 0.986 0.998 0.99 0.969
2768.118 0.925 0.856 0.827 0.85 0.841 0.804 0.812 0.831 0.85 0.866
2787.408 0.829 0.739 0.776 0.8 0.732 0.732 0.645 0.612 0.707 0.732
2806.698 0.66 0.576 0.606 0.588 0.574 0.614 0.601 0.589 0.615 0.625
2825.988 0.602 0.601 0.617 0.615 0.581 0.586 0.601 0.679 0.797 0.783
2845.278 0.744 0.74 0.731 0.752 0.823 0.873 0.883 0.861 0.935 1.02
2864.568 0.951 0.924 0.931 0.898 0.96 1.04 0.944 0.894 0.941 0.927
2883.858 0.926 0.923 0.921 0.926 0.973 1.029 0.99 0.941 0.873 0.872
2903.148 0.922 0.935 1.015 1.006 0.986 0.971 0.908 0.952 1.026 1.015
2922.438 0.941 0.946 0.987 0.986 0.976 0.969 0.978 1.085 1.1394 1.096
2941.728 1.108 1.1816 1.1501 1.1164 1.1483 1.1 1.1645 1.23465 1.22586 1.21713
2961.018 1.1327 1.081 1.1841 1.191 1.1727 1.22409 1.25082 1.27572 1.24856 1.1964
2980.308 1.24414 1.3261 1.30796 1.2869 1.3569 1.3863 1.3847 1.4222 1.4247 1.4117
2999.598 1.4475 1.4621 1.4263 1.3853 1.27748 1.25231 1.24272 1.23882 1.3633 1.3962
3018.888 1.4232 1.4891 1.5328 1.6272 1.7131 1.8175 1.9071 1.9927 2.1269 2.23
3038.178 2.31 2.38 2.31 2.29 2.48 2.54 2.4 2.3 2.29 2.33
3057.468 2.35 2.42 2.47 2.61 2.95 3.27 3.6 3.94 4.25 4.44
3076.758 4.41 4.27 3.94 3.54 3.25 2.9 2.53 2.3 2.0837 1.817
3096.048 1.4839 1.1934 1.087 1.002 0.832 0.749 0.759 0.716 0.664 0.69
3115.338 0.672 0.647 0.663 0.721 0.691 0.541 0.549 0.532 0.481 0.427
3134.628 0.371 0.359 0.326 0.338 0.342 0.275 0.257 0.32 0.329 0.314
3153.918 0.278 0.298 0.32 0.303 0.322 0.286 0.26 0.2 0.15 0.18
3173.208 0.21 0.25 0.223 0.329 0.411 0.328 0.2 0.17 0.224 0.22
3192.498 0.213 0.19 0.2 0.25 0.261 0.19 0.15 0.11 0.06 0.249
3211.788 0.38 0.231 0.13 0.15 0.13 0.12 0.16 0.17 0.2 0.19
3231.078 0.246 0.28 0.214 0.18 0.15 0.09 0.1 0.11 0.14 0.2
3250.368 0.212 0.245 0.2 0.06 0 0.07 0.19 0.259 0.16 0.12
3269.658 0.08 0.08 0.19 0.14 0.04 0.09 0.12 0.09 0.17 0.18
3288.948 0.12 0.03 0.05 0.14 0.18 0.18 0.11 0.09 0.15 0.16
3308.238 0.1 0.1 0.2 0.253 0.14 0.12 0.211 0.18 0.13 0.12
3327.528 0.19 0.235 0.17 0.13 0.18 0.217 0.244 0.215 0.16 0.2
3346.818 0.246 0.19 0.2 0.244 0.2 0.221 0.255 0.274 0.246 0.247
3366.108 0.384 0.361 0.294 0.35 0.41 0.413 0.385 0.495 0.567 0.562
3385.398 0.633 0.668 0.567 0.508 0.564 0.622 0.621 0.615 0.575 0.579
3404.688 0.639 0.533 0.545 0.538 0.412 0.464 0.443 0.402 0.422 0.399
3423.978 0.389 0.46 0.45 0.389 0.529 0.621 0.536 0.524 0.656 0.634
3443.269 0.541 0.57 0.599 0.561 0.556 0.598 0.693 0.809 0.804 0.777
3462.559 0.868 0.951 1.019 1.1342 1.1925 1.1425 1.1878 1.4109 1.5215 1.5581
3481.849 1.589 1.6944 1.8408 1.9099 1.9931 2.0807 2.1387 2.26 2.37 2.3
3501.139 2.1816 2.11 2.0803 2.0429 2.0221 1.9291 1.7811 1.7322 1.7209 1.718
3520.429 1.6299 1.5115 1.5103 1.5201 1.5877 1.7258 1.7337 1.6631 1.6735 1.7465
3539.719 1.8542 1.9197 1.893 1.9562 2.0102 2.1746 2.44 2.66 2.91 3.32
3559.009 3.98 4.81 6.15 8.11 11.24 16.17 23.93 36.48 55.52 80.21
3578.299 104.88 122.04 128.19 122.81 104.9 79.71 56.67 38.61 24.38 14.65
3597.589 9.34 6.56 5.05 4.18 3.44 2.98 2.67 2.33 2.1354 1.9922
3616.879 1.8382 1.7621 1.7015 1.7052 1.7587 1.7916 1.7947 1.828 1.9152 1.8589
3636.169 1.6864 1.5922 1.4683 1.4207 1.4603 1.3696 1.3127 1.30105 1.2067 1.067
3655.459 1.1157 1.25467 1.20509 1.088 1.067 1.006 0.918 0.993 0.94 0.847
3674.749 0.736 0.596 0.774 0.836 0.759 0.819 0.801 0.795 0.904 0.888
3694.039 0.85 0.847 0.827 0.808 0.836 0.787 0.718 0.779 0.777 0.862
3713.329 0.926 0.871 0.793 0.658 0.706 0.776 0.61 0.595 0.686 0.657
3732.619 0.642 0.57 0.535 0.612 0.67 0.708 0.661 0.56 0.536 0.498
3751.909 0.458 0.53 0.568 0.598 0.623 0.646 0.615 0.51 0.513 0.593
3771.199 0.597 0.555 0.596 0.613 0.631 0.541 0.507 0.585 0.557 0.53
3790.489 0.548 0.514 0.46 0.469 0.487 0.445 0.517 0.644 0.592 0.584
3809.779 0.527 0.422 0.475 0.519 0.496 0.401 0.441 0.587 0.587 0.559
3829.069 0.596 0.596 0.622 0.581 0.483 0.513 0.569 0.567 0.527 0.447
3848.359 0.445 0.612 0.592 0.492 0.521 0.523 0.561 0.593 0.622 0.648
3867.649 0.655 0.695 0.568 0.543 0.543 0.51 0.561 0.565 0.689 0.725
3886.939 0.645 0.479 0.461 0.597 0.508 0.477 0.608 0.657 0.589 0.547
3906.229 0.605 0.577 0.481 0.504 0.614 0.616 0.644 0.674 0.631 0.636
3925.519 0.665 0.746 0.739 0.71 0.645 0.672 0.717 0.722 0.754 0.678
3944.809 0.604 0.67 0.784 0.777 0.815 0.87 0.895 0.823 0.865 0.855
3964.099 0.783 0.846 0.934 1.05 0.973 0.832 0.907 0.994 0.884 0.863
3983.389 0.904 0.829 0.747 0.699 0.682 0.703 0.637 0.734 0.842 0.83
##END=
