##TITLE=Diphenylphosphinic chloride
##JCAMP-DX=4.24
##DATA TYPE=INFRARED SPECTRUM
##ORIGIN=EPA-IR VAPOR PHASE LIBRARY
##OWNER=SRD/NIST
Collection (C) 2018 copyright by the U.S. Secretary of Commerce
on behalf of the United States of America. All rights reserved.
##CAS REGISTRY NO=1499-21-4
##MOLFORM=C 12 H 10 Cl O P
##$NIST SOURCE=MSDC-IR
##STATE=gas
##XUNITS=1/CM
##YUNITS=ABSORBANCE
##XFACTOR=1.
##YFACTOR=0.001
##DELTAX=1.92898
##FIRSTX=549.8
##LASTX=4000.7
##FIRSTY=23.49
##MAXX=4000.7
##MINX=549.759
##MAXY=0.0422
##MINY=0
##NPOINTS=1790
##XYDATA=(X++(Y..Y))
549.759 23.49 29.07 35.1 39.87 42.2 40.23 35.76 30.24 24.18 18.24
569.049 13.02 9.03 5.84 3.91 3.56 3.03 2.1157 2.5096 2.79 2.5118
588.339 2.2274 1.6703 1.034 1.047 1.271 1.24 1.389 1.59607 1.68142 1.8667
607.628 2.0056 2.248 2.1116 1.181 1.368 2.5099 2.0673 1.297 1.9858 2.1977
626.918 1.935 1.60661 1.5501 1.708 2.0623 2.4591 2.1893 2.2593 2.0082 1.9494
646.208 1.9556 1.8308 2.2498 2.3635 2.3643 2.5709 2.2869 2.2362 3.21 3.46
665.498 3.21 3.87 4.54 4.54 4.52 5.13 5.48 5.87 7.53 9.47
684.787 10.72 12.04 13.49 15 16.49 17.04 16.74 16.2 14.97 13.62
704.077 12.47 10.77 9.47 8.9 9.33 10.6 12.08 13.78 15.32 16.63
723.367 16.98 16.21 15.41 13.82 11.69 9.71 8.49 8.19 7.83 7.31
742.657 7.47 7.57 7.21 6.75 6.16 5.67 5.29 4.68 3.72 3.31
761.947 2.89 2.5712 2.69 2.3221 2.1829 2.8 3.05 2.3798 2.0983 2.3419
781.236 2.3383 2.87 2.77 1.9162 1.5058 1.67453 1.9436 1.8441 1.8656 1.9218
800.526 1.7336 1.354 1.211 1.5469 1.8394 2.1391 2.2158 2.0462 2.1349 2.1673
819.816 2.1986 2.0827 1.7759 1.448 1.7042 2.145 1.9995 1.67084 1.283 2.1675
839.106 2.76 2.2465 2.2298 2.2951 2.2816 2.1651 2.2242 2.425 1.8997 1.69218
858.395 1.7358 1.7242 1.7194 1.17 1.364 1.7034 1.6488 2.3103 2.424 1.8204
877.685 1.936 1.8586 1.69288 1.9988 2.1467 1.8443 1.7929 2.2276 2.553 2.2263
896.975 2.2292 2.86 3.01 2.514 2.4876 2.4633 2.2175 2.4203 2.4064 2.63
916.265 3.08 3.03 2.84 2.82 2.84 2.63 2.62 2.7 2.486 2.5305
935.555 2.78 2.85 2.92 3.15 2.79 3.11 3.77 3.81 3.74 3.36
954.844 3.39 3.67 3.45 3.55 3.83 3.86 3.72 3.78 3.91 3.27
974.134 3.7 4.25 3.31 2.78 2.66 2.9 3.5 3.07 2.75 2.9
993.424 3.08 3.16 3.38 3.21 2.74 2.85 3.09 3.35 3.3 2.94
1012.714 2.86 2.87 2.67 3.72 3.78 2.86 3.14 3.24 2.86 2.4206
1032.003 2.66 3.17 2.5563 1.7865 1.299 0.861 0.6 0.866 1.7335 2.1673
1051.293 2.94 2.93 2.71 3.1 2.85 3.03 3.29 3.33 3.6 3.42
1070.583 3.85 3.93 2.87 3.48 4.07 3.65 3.68 3.28 3.04 4.31
1089.873 4.62 4.9 5.29 5.48 6.27 6.66 7.47 8.41 10.57 12.68
1109.163 11.56 12.32 15.32 14.46 14.9 15.85 14.97 15.86 15.4 14.43
1128.452 13.79 9.97 7.34 6.96 5.72 4.85 4.9 4.08 3.31 2.4753
1147.742 1.9817 2.3301 2.2862 2.1667 1.447 0.51 0.44 1.69086 2.89 2.74
1167.032 2.4417 2.4445 1.5179 0.659 1.093 2.1176 2.81 2.67 2.75 3.08
1186.322 3.54 2.62 1.452 2.58 3.3 2.595 1.8282 1.9914 1.9779 2.93
1205.611 2.1404 1.66432 3.57 4.3 4.8 4.93 4.28 3.22 3.68 3.26
1224.901 2.85 2.5083 1.536 3.38 3.56 2.79 3.83 4.81 6.39 6.71
1244.191 6.9 7.92 9 10.4 10.76 11.04 12.97 15.33 16.62 18.17
1263.481 19.51 19.75 19.61 18.94 16.61 13.94 11.34 8.86 7.57 6.29
1282.771 4.92 4.05 3.83 3.61 3.19 3.1 2.9 2.81 2.99 2.75
1302.060 2.4241 2.4534 2.5818 2.4261 2.3439 2.1924 1.9863 2.1721 2.085 1.9172
1321.350 2.0247 2.0452 2.0221 2.0462 2.0941 2.0807 2.0554 2.1342 2.0997 1.9574
1340.640 1.8392 1.64012 1.5212 1.5543 1.65793 1.8772 1.8835 1.8872 1.894 1.7322
1359.930 1.67086 1.61783 1.67008 1.5825 1.731 2.0036 2.0131 1.9248 1.8429 1.9891
1379.219 1.811 1.5507 1.64354 1.7304 1.7628 1.819 1.66631 1.497 1.5821 1.69609
1398.509 1.7289 1.8236 1.8428 1.68748 1.7381 1.7945 2.0054 2.2235 2.1823 2.3115
1417.799 2.4344 2.71 3.04 3.18 3.59 3.98 4.29 4.93 5.41 5.64
1437.089 5.97 6.31 6.38 5.99 5.5 4.95 4.34 3.77 3.18 2.89
1456.378 2.64 2.1761 2.0081 2.0146 1.9499 1.9534 2.2388 2.3971 2.3312 2.3154
1475.668 2.1244 1.9722 2.1212 2.1506 2.181 2.2337 2.1713 2.0021 1.9167 2.1646
1494.958 2.2539 1.8562 1.482 1.489 1.67294 1.7789 1.8198 1.8868 1.61639 1.5612
1514.248 1.7379 1.68343 1.5284 1.417 1.7791 2.0573 1.7049 1.454 1.311 1.459
1533.538 1.7262 1.62442 1.5181 1.60122 1.69945 1.62556 1.62318 1.61662 1.5295 1.406
1552.827 1.5281 1.5293 1.381 1.381 1.63188 1.7865 1.7817 1.5668 1.5347 1.9327
1572.117 2.0378 2.0263 1.9885 2.2023 2.3626 2.2479 2.0666 2.2005 2.4495 2.453
1591.407 2.3835 2.2276 2.057 2.0794 2.0702 1.7843 1.69531 1.7326 1.8668 1.89
1610.697 1.7432 1.69631 1.7134 1.64026 1.5538 1.62702 1.68791 1.477 1.427 1.48
1629.986 1.333 1.44 1.60239 1.65444 1.62159 1.5321 1.62549 1.437 1.086 1.143
1649.276 1.258 1.397 1.407 1.407 1.524 1.444 1.5036 1.44 1.368 1.455
1668.566 1.49 1.5244 1.417 1.44 1.447 1.356 1.272 1.212 1.251 1.103
1687.856 1.169 1.473 1.355 1.078 1.03 1.124 0.985 1.081 1.23 1.159
1707.146 1.309 1.401 1.3 1.166 1.345 1.5213 1.413 1.283 1.439 1.5706
1726.435 1.5109 1.473 1.294 1.117 1.06 1.238 1.286 1.296 1.299 1.342
1745.725 1.402 1.417 1.387 1.359 1.481 1.494 1.5631 1.5236 1.462 1.66852
1765.015 1.62219 1.439 1.421 1.477 1.533 1.442 1.62862 1.59066 1.441 1.5213
1784.305 1.246 1.266 1.537 1.5478 1.5478 1.62322 1.574 1.61236 1.63578 1.7268
1803.594 1.8636 2.0348 2.1847 2.0709 2.1053 2.1878 2.0607 1.9715 1.8832 1.64253
1822.884 1.5728 1.66879 1.7185 1.65488 1.6127 1.5474 1.386 1.5149 1.66715 1.5366
1842.174 1.432 1.44 1.428 1.39 1.492 1.5318 1.5514 1.5379 1.282 1.07
1861.464 1.198 1.404 1.435 1.402 1.321 1.241 1.413 1.64191 1.61439 1.59151
1880.754 1.59237 1.62971 1.575 1.66937 1.9232 1.8374 1.61514 1.64753 1.8572 1.8298
1900.043 1.7213 1.8443 1.9759 1.7849 1.5383 1.64573 1.7222 1.62823 1.5044 1.5058
1919.333 1.5314 1.353 1.445 1.65843 1.7909 1.64098 1.407 1.267 1.22 1.302
1938.623 1.385 1.67089 1.7496 1.471 1.458 1.5824 1.5737 1.7251 1.9759 1.9008
1957.913 1.757 1.9069 2.0189 1.9669 1.9476 1.7958 1.69088 1.746 1.7401 1.7363
1977.202 1.7966 1.66198 1.5278 1.6257 1.60141 1.7765 1.7402 1.5388 1.483 1.404
1996.492 1.377 1.272 1.406 1.453 1.371 1.273 1.101 1.203 1.316 1.454
2015.782 1.451 1.47 1.393 1.046 1.099 1.299 1.225 1.146 1.358 1.60002
2035.072 1.488 1.402 1.482 1.457 1.469 1.394 1.329 1.479 1.409 1.294
2054.362 1.303 1.318 1.457 1.385 1.223 1.123 1.202 1.34 1.256 1.307
2073.651 1.287 1.257 1.473 1.452 1.148 1.023 1.209 1.237 1.262 1.248
2092.941 1.215 1.297 1.255 1.12 1.192 1.35 1.345 1.369 1.311 1.305
2112.231 1.183 1.017 1.03 1.288 1.361 1.259 1.453 1.418 1.362 1.447
2131.521 1.276 1.224 1.396 1.404 1.188 1.158 1.325 1.335 1.28 1.328
2150.810 1.41 1.419 1.264 1.341 1.446 1.5646 1.66564 1.334 1.042 1.016
2170.100 1.239 1.456 1.309 1.007 1.065 1.264 1.253 1.215 1.252 1.292
2189.390 1.335 1.339 1.439 1.432 1.227 1.187 1.341 1.306 1.307 1.333
2208.680 1.218 1.331 1.472 1.457 1.307 1.205 1.193 1.336 1.5138 1.468
2227.970 1.5195 1.5009 1.471 1.5001 1.367 1.292 1.327 1.39 1.422 1.386
2247.259 1.257 1.133 1.078 1.198 1.199 1.245 1.328 1.326 1.394 1.406
2266.549 1.392 1.366 1.428 1.462 1.336 1.22 1.407 1.458 1.116 1.117
2285.839 1.252 1.136 1.204 1.371 1.5245 1.63709 1.406 1.133 1.068 1.088
2305.129 1.149 0.991 1.033 1.285 1.358 1.283 0.953 1.175 1.64281 1.5537
2324.418 1.473 1.353 1.391 1.265 1.067 1.207 1.122 1.09 1.216 1.145
2343.708 1.182 1.194 1.159 1.223 1.365 1.198 1.089 1.244 1.154 1.1
2362.998 1.191 1.3 1.197 1.035 1.037 1.145 1.161 1.311 1.321 1.21
2382.288 1.165 1.109 1.28 1.229 0.944 0.849 0.889 1.005 0.957 0.903
2401.578 1.111 1.32 1.286 1.213 0.977 0.847 1.147 1.475 1.424 1.178
2420.867 1.281 1.301 1.005 1.149 1.416 1.5416 1.453 1.067 0.975 1.143
2440.157 1.238 1.326 1.391 1.33 1.215 1.152 1.057 1.001 1.032 1.112
2459.447 1.218 1.129 1.094 1.127 1.038 0.997 1.096 1.129 1.119 1.291
2478.737 1.303 1.169 0.986 0.892 1.205 1.5069 1.5634 1.327 1.153 1.223
2498.026 1.333 1.377 1.449 1.201 0.97 0.948 0.892 1.116 0.931 0.886
2517.316 1.196 1.268 0.998 0.829 1.028 1.055 1.117 1.112 1.244 1.246
2536.606 1.098 1.35 1.43 1.218 1.303 1.374 1.217 1.351 1.37 1.01
2555.896 0.888 1.15 1.316 1.126 1.081 1.322 1.376 0.936 0.815 1.201
2575.186 1.424 1.367 1.362 1.286 1.058 0.98 1.155 1.348 1.26 1.103
2594.475 1.143 1.218 1.301 1.185 0.879 0.959 1.048 1.01 1.289 1.5261
2613.765 1.476 1.5907 1.5354 1.237 1.091 1.052 1.063 0.901 0.659 0.947
2633.055 1.393 1.462 1.127 0.799 0.94 1.096 1.088 0.99 0.856 0.999
2652.345 1.257 1.071 0.823 0.788 1.315 1.553 1.36 1.372 1.048 0.938
2671.634 1.031 1.049 1.058 1.208 1.262 1.146 1.195 1.60324 1.5825 1.347
2690.924 1.128 0.893 1.038 1.002 1.001 1.036 1.064 1.341 1.537 1.378
2710.214 1.136 1.066 1.083 1.075 0.913 0.745 0.957 1.097 1.074 1.313
2729.504 1.362 1.1 1.105 1.098 0.94 0.956 0.923 0.805 0.773 0.969
2748.794 1.179 1.045 0.913 0.931 0.732 0.56 0.888 1.262 1.039 0.937
2768.083 0.92 0.604 0.6 0.73 0.68 0.726 0.929 1.389 1.312 0.934
2787.373 1.201 1.249 1.099 1.341 1.339 1.116 1.193 1.303 1.088 0.743
2806.663 0.911 0.862 0.88 1.134 1.146 1.318 1.18 1.003 1.111 1.155
2825.953 0.915 0.888 1.127 1.245 0.799 0.646 0.927 1.21 1.5316 0.877
2845.242 0.605 1.023 1.057 1.118 0.849 0.861 1.071 0.844 0.84 0.858
2864.532 1.085 1.35 1.23 1.027 0.944 1.092 1.14 1.149 1.265 1.255
2883.822 1.158 1.134 1.244 1.168 1.085 1.064 1.059 0.922 1.02 1.418
2903.112 1.25 1.07 0.962 0.707 0.746 1.056 1.163 1.324 1.304 1.214
2922.401 1.268 1.136 1.279 1.366 1.172 1.025 0.92 0.796 0.655 0.812
2941.691 1.323 1.425 1.309 1.361 1.493 1.378 0.879 0.784 0.964 0.893
2960.981 0.965 0.809 0.9 1.199 0.974 0.55 0.52 1.263 1.242 0.827
2980.271 0.72 0.968 1.241 1.139 1.371 1.419 1.473 1.5056 1.524 1.353
2999.561 1.47 1.753 1.333 1.06 0.885 1.364 1.7005 1.491 2.0908 2.4609
3018.850 2.287 2.2819 2.0222 1.61629 1.9031 1.9565 1.8781 2.1622 2.2217 2.1189
3038.140 1.9762 1.8877 2.0394 2.0291 2.2568 2.63 2.5105 2.91 3.6 4.08
3057.430 4.58 5.04 5.91 7 7.87 8.68 8.96 8.66 8.42 8.19
3076.720 7.24 6.25 5.67 5.16 4.83 4.74 4.67 4.4 3.92 3.7
3096.009 3.38 2.7 2.62 2.69 2.2649 1.9911 1.7323 1.5149 1.7312 1.513
3115.299 1.458 1.5022 1.154 1.331 1.68208 1.7226 1.431 1.5281 1.408 1.031
3134.589 0.879 1.063 1.495 1.495 1.382 1.7014 2.0942 1.60243 1.455 2.0152
3153.879 1.9774 1.60913 1.134 0.824 1.083 1.298 1.162 1.1 1.214 1.181
3173.169 0.868 0.831 1.234 1.359 1.7024 2.04 1.325 0.96 1.072 0.768
3192.458 0.815 0.659 0.748 0.85 0.644 0.778 1.03 1.237 1.043 0.986
3211.748 1.137 1.182 0.952 0.38 0.711 1.04 1.109 1.305 0.77 0.729
3231.038 1.04 0.929 0.759 0.8 0.977 0.997 0.757 0.893 0.793 0.742
3250.328 0.922 0.85 1.233 1.294 1.065 0.985 1.126 1.297 1.5087 1.8087
3269.617 1.5321 0.972 0.881 1.253 1.07 0.821 1.272 1.273 1.095 1.5215
3288.907 1.5129 0.917 0.992 1.295 1.284 1.122 0.989 0.951 0.799 1.004
3308.197 0.911 0.849 0.809 0.76 0.792 0.39 0.754 1.5393 1.359 0.921
3327.487 1.084 0.95 0.777 1.101 1.063 0.605 0.673 0.938 1.107 1.495
3346.777 1.5869 1.6418 1.8405 1.9007 1.475 1.248 1.343 1.363 1.276 1.384
3366.066 1.7227 1.5709 0.949 0.705 0.994 1.502 1.7097 1.5045 1.28 1.14
3385.356 1.038 0.859 1.1 1.274 1.383 1.289 1.424 1.224 0.849 0.892
3404.646 0.788 0.15 0 0.891 1.5649 1.385 1.161 1.054 0.742 1.285
3423.936 1.451 1.131 0.898 0.4 0.715 0.85 0.894 1.308 1.5702 1.308
3443.225 0.773 1.238 1.277 1.006 1.21 1.178 1.5155 1.7169 1.128 1.159
3462.515 1.354 1.062 1.372 1.8978 1.549 1.172 1.48 1.453 1.108 1.431
3481.805 1.494 1.5 1.7861 1.63472 1.49 1.004 0.895 1.327 1.182 1.408
3501.095 1.5687 1.123 1.183 1.251 1.307 1.409 1.118 1.287 1.65738 1.5341
3520.385 1.159 1.096 1.048 1.099 1.108 1.063 1.223 1.5082 1.8112 1.60361
3539.674 1.5846 1.5625 1.047 0.57 0.654 0.652 0.31 0.722 1.262 1.095
3558.964 1.225 1.8557 1.5612 1.12 1.189 1.338 1.174 0.953 1.016 0.958
3578.254 1.241 1.393 1.66992 1.9317 1.112 0.53 0.914 1.245 1.146 1.408
3597.544 1.452 1.238 1.2 0.913 1.312 1.378 1.5205 1.8701 1.60812 1.377
3616.833 1.5635 1.567 1.171 1.336 1.5329 1.43 1.294 1.294 1.181 0.967
3636.123 1.098 1.099 1.175 1.5044 1.5742 1.342 1.417 1.67991 1.329 1.384
3655.413 1.5365 1.259 1.455 1.5397 1.05 0.799 0.968 1.475 1.8718 1.5008
3674.703 1.323 1.5437 1.266 0.913 1.062 1.385 1.9499 1.8054 1.048 1.463
3693.993 1.8471 1.64663 1.7404 1.7338 1.66406 1.61434 1.5436 1.64937 1.5323 1.336
3713.282 1.9077 1.9858 1.5409 1.388 1.242 1.172 1.059 1.164 1.463 1.256
3732.572 0.917 1.093 1.401 1.337 0.899 1.085 1.59 1.378 1.014 0.746
3751.862 0.42 1.151 1.5439 1.69037 1.8497 1.7464 1.5552 1.174 1.41 1.227
3771.152 1.091 1.471 1.8552 1.5682 1.308 1.268 1.38 1.549 1.307 1.345
3790.441 1.8484 2.2214 2.0031 1.7818 1.59451 1.351 1.101 1.209 1.68883 1.5054
3809.731 1.331 1.723 1.427 0.95 0.912 1.114 1.041 0.856 1.234 1.5634
3829.021 1.247 0.643 0.55 0.714 1.006 1.469 1.8505 1.387 0.733 0.744
3848.311 0.721 0.934 0.7 0.46 1.301 1.434 0.786 0.931 1.7275 1.382
3867.601 0.843 0.827 1.264 1.59918 1.352 1.238 0.761 0.797 0.865 1.084
3886.890 1.319 1.168 1.496 1.434 1.464 1.785 1.246 0.803 1.124 0.999
3906.180 0.925 0.948 0.903 0.853 1.01 1.31 1.188 1.34 1.317 1.068
3925.470 1.317 1.274 0.8 1.386 1.68663 1.415 1.5899 1.464 1.357 1.326
3944.760 1.5544 1.257 1.12 1.251 0.873 1.402 1.9608 1.383 1.282 1.098
3964.049 0.966 1.222 1.221 0.938 0.963 1.283 0.851 0.792 1.67264 1.8538
3983.339 1.196 1.046 0.773 0.673 1.18 1.162 1.255 1.29 0.965 0.921
##END=
