##TITLE=N,N,N',N-Tetraethylethylenediamine
##JCAMP-DX=4.24
##DATA TYPE=INFRARED SPECTRUM
##ORIGIN=EPA-IR VAPOR PHASE LIBRARY
##OWNER=SRD/NIST
Collection (C) 2018 copyright by the U.S. Secretary of Commerce
on behalf of the United States of America. All rights reserved.
##CAS REGISTRY NO=150-77-6
##MOLFORM=C 10 H 24 N 2
##$NIST SOURCE=MSDC-IR
##STATE=gas
##XUNITS=1/CM
##YUNITS=ABSORBANCE
##XFACTOR=1.
##YFACTOR=0.001
##DELTAX=1.92898
##FIRSTX=549.8
##LASTX=4000.7
##FIRSTY=2.785
##MAXX=4000.7
##MINX=549.759
##MAXY=0.194855
##MINY=0
##NPOINTS=1790
##XYDATA=(X++(Y..Y))
549.759 2.785 2.745 2.765 2.665 2.545 2.425 2.245 2.105 1.995 1.865
569.049 1.865 1.815 1.525 1.365 1.2101 1.1719 1.295 1.355 1.325 0.937
588.339 0.7073 0.9713 0.92 0.8359 0.6331 0.4359 0.36547 0.2564 0.429 0.648
607.628 0.571 0.31658 0.33346 0.35031 0.32888 0.2317 0.2491 0.293411 0.1979 0.30345
626.918 0.2839 0.3655 0.28225 0.068 0.158 0.088 0 0.109 0.31255 0.2584
646.208 0.2009 0.2322 0.087 0.164 0.30114 0.27826 0.2404 0.30339 0.2715 0.129
665.498 0.2306 0.2459 0.2153 0.30573 0.31314 0.36074 0.36142 0.4601 0.6106 0.6975
684.787 0.6738 0.5004 0.36745 0.34976 0.4527 0.4285 0.6435 0.776 0.8053 0.9627
704.077 1.1786 1.455 1.555 1.625 1.775 2.035 2.495 2.915 3.065 3.265
723.367 3.575 3.935 4.235 4.575 5.025 5.455 5.705 6.105 6.695 6.995
742.657 7.115 7.365 7.665 7.675 7.495 7.395 7.225 6.995 6.695 6.325
761.947 6.015 5.775 5.655 5.635 5.675 5.675 5.605 5.705 5.795 5.955
781.236 6.335 6.755 7.055 7.215 7.555 7.825 8.075 8.415 8.665 8.815
800.526 9.045 9.175 8.955 8.735 8.345 7.695 7.045 6.235 5.395 4.835
819.816 4.195 3.615 3.325 2.945 2.625 2.455 2.325 2.255 2.025 1.865
839.106 1.835 1.765 1.715 1.545 1.435 1.475 1.525 1.425 1.415 1.425
858.395 1.315 1.305 1.315 1.2609 1.1734 1.2017 1.2404 1.405 1.645 1.765
877.685 1.735 1.805 1.955 1.975 1.925 2.115 2.485 2.665 2.805 2.905
896.975 3.015 3.075 3.205 3.295 3.225 3.285 3.355 3.365 3.335 3.365
916.265 3.395 3.355 3.255 3.175 3.135 3.075 3.015 2.965 2.845 2.735
935.555 2.655 2.655 2.655 2.635 2.775 2.925 3.035 3.065 3.165 3.255
954.844 3.445 3.915 4.165 4.375 4.705 5.025 5.305 5.675 6.035 6.435
974.134 7.005 7.355 7.695 8.255 8.695 8.985 9.215 9.425 9.665 9.955
993.424 10.225 9.965 9.635 9.565 9.495 9.605 9.835 9.825 9.675 9.835
1012.714 10.065 10.395 10.635 10.795 11.295 11.885 12.515 13.175 14.325 15.415
1032.003 16.475 17.945 19.405 20.995 22.695 24.775 27.025 29.295 32.255 35.115
1051.293 37.935 41.205 44.315 47.085 49.615 51.575 52.695 53.475 53.575 52.915
1070.583 51.825 50.765 49.755 48.135 46.745 45.915 44.995 44.005 42.795 41.465
1089.873 40.395 39.555 38.855 38.035 37.105 36.225 35.345 34.415 33.285 32.055
1109.163 30.955 29.935 28.795 27.715 26.755 25.685 24.665 23.485 22.505 21.815
1128.452 20.805 20.045 19.645 19.235 19.165 19.335 19.535 19.945 20.375 20.405
1147.742 20.475 20.825 21.145 21.215 20.895 20.135 19.525 19.075 18.365 17.505
1167.032 16.665 16.205 15.775 15.345 15.355 15.515 15.815 16.275 17.035 18.345
1186.322 19.715 21.545 23.895 26.635 29.665 32.795 36.195 38.945 40.735 41.705
1205.611 41.755 40.455 37.855 34.325 30.645 27.135 23.685 20.845 18.425 16.275
1224.901 14.605 13.045 11.965 11.285 10.755 10.485 10.165 10.135 10.405 10.675
1244.191 10.825 10.995 11.385 11.875 12.385 12.855 13.365 13.745 14.065 14.735
1263.481 15.245 15.435 15.795 16.345 16.725 17.125 17.735 18.515 19.345 20.385
1282.771 21.555 22.745 23.945 25.185 26.395 27.265 27.755 28.075 28.245 28.165
1302.060 27.825 27.315 26.625 25.885 25.185 24.475 23.865 23.335 22.935 22.685
1321.350 22.605 22.675 22.865 23.275 23.805 24.445 25.225 26.105 27.065 28.065
1340.640 28.995 29.845 30.605 31.195 31.645 31.895 31.985 32.075 32.125 32.305
1359.930 32.725 33.595 35.005 36.935 39.345 42.005 44.725 47.335 49.725 51.555
1379.219 52.565 52.605 51.675 49.915 47.285 43.925 40.055 35.785 31.445 27.415
1398.509 23.805 20.585 17.965 15.825 14.095 12.725 11.675 10.825 10.145 9.595
1417.799 9.215 8.965 8.775 8.765 8.825 8.955 9.305 9.725 10.215 10.815
1437.089 11.575 12.515 13.545 14.645 15.835 17.015 18.195 19.345 20.405 21.365
1456.378 22.175 22.825 23.325 23.775 24.035 24.045 23.825 23.385 22.675 21.595
1475.668 20.245 18.575 16.755 14.865 13.105 11.545 10.155 8.965 7.945 7.145
1494.958 6.565 6.015 5.585 5.275 5.045 4.885 4.665 4.425 4.245 4.125
1514.248 3.995 3.855 3.775 3.735 3.605 3.425 3.355 3.305 3.195 3.105
1533.538 3.085 2.975 2.895 2.855 2.795 2.755 2.645 2.575 2.535 2.445
1552.827 2.355 2.305 2.315 2.325 2.215 2.135 2.085 2.065 2.105 2.085
1572.117 2.025 2.005 1.935 1.805 1.875 1.935 1.955 1.935 1.855 1.845
1591.407 1.775 1.745 1.755 1.735 1.755 1.785 1.795 1.815 1.765 1.735
1610.697 1.715 1.685 1.725 1.705 1.675 1.685 1.655 1.675 1.685 1.715
1629.986 1.695 1.645 1.735 1.745 1.665 1.635 1.585 1.595 1.675 1.575
1649.276 1.485 1.595 1.545 1.515 1.545 1.475 1.455 1.445 1.315 1.305
1668.566 1.355 1.295 1.2574 1.2785 1.2596 1.1837 1.1529 1.2177 1.2327 1.107
1687.856 1.0691 1.0859 1.0215 1.0133 1.0245 1.0392 1.059 0.9788 0.9654 0.9227
1707.146 0.8833 0.9138 0.8955 0.9521 1.005 0.9799 0.9695 0.9179 0.8245 0.7815
1726.435 0.8309 0.8675 0.8492 0.8853 0.9358 0.8834 0.8865 0.9279 0.8846 0.8499
1745.725 0.8577 0.8601 0.8757 0.9283 0.9743 0.9442 0.9197 0.9456 0.958 0.9603
1765.015 1.0036 1.0275 1.0518 1.0959 1.1162 1.1028 1.0837 1.1067 1.1384 1.0978
1784.305 1.0737 1.1261 1.1702 1.2087 1.2719 1.2517 1.1696 1.1415 1.153 1.2521
1803.594 1.375 1.405 1.335 1.335 1.365 1.385 1.385 1.355 1.375 1.385
1822.884 1.365 1.375 1.385 1.375 1.335 1.295 1.2776 1.2614 1.2347 1.2362
1842.174 1.2239 1.2025 1.1687 1.149 1.1567 1.161 1.143 1.0454 1.0155 1.0504
1861.464 1.0532 1.0087 1.0067 1.0599 1.0452 1.0047 1.0152 1.0041 0.9951 1.0167
1880.754 0.9893 0.9728 0.9855 1.0417 1.0692 1.0653 1.0651 1.0411 1.0173 0.9741
1900.043 0.9473 0.9388 0.9545 0.9856 0.981 0.9266 0.9518 1.0054 0.9735 0.9883
1919.333 1.0188 1.0187 0.9823 0.9403 0.9712 0.9885 1.0299 1.0966 1.0895 1.0846
1938.623 1.1159 1.1283 1.1164 1.1425 1.1951 1.1804 1.1373 1.0845 1.0472 1.0476
1957.913 1.0102 1.0295 1.0542 1.031 1.0015 0.9935 0.9648 0.9048 0.8564 0.8466
1977.202 0.8832 0.89 0.9027 0.9007 0.8663 0.8286 0.7998 0.7923 0.7907 0.8101
1996.492 0.8374 0.8147 0.8325 0.8125 0.7478 0.7307 0.7746 0.8082 0.7671 0.7532
2015.782 0.7384 0.7562 0.7703 0.8132 0.8742 0.7959 0.7586 0.7986 0.8288 0.8451
2035.072 0.8034 0.7596 0.7845 0.8326 0.8138 0.8121 0.844 0.8729 0.8903 0.8993
2054.362 0.964 0.894 0.8926 0.9367 0.9301 0.975 1.0073 1.0632 1.0806 1.1243
2073.651 1.0855 1.0409 1.0529 1.0617 1.0902 1.0941 1.1118 1.1273 1.1073 1.1073
2092.941 1.092 1.0842 1.1261 1.174 1.1564 1.0909 1.071 1.0847 1.086 1.0676
2112.231 1.0124 0.9676 0.9592 0.9546 1.0066 1.0589 1.0362 1.0645 1.1157 1.0211
2131.521 0.9637 0.9419 0.9334 0.9565 0.8661 0.8409 0.846 0.8779 0.9192 0.8937
2150.810 0.854 0.828 0.8581 0.853 0.839 0.8635 0.8842 0.862 0.9226 0.9792
2170.100 0.9316 0.9522 0.971 0.8998 0.8719 0.964 1.004 1.0123 1.0595 1.1322
2189.390 1.1086 0.947 0.9465 0.9735 0.8936 0.8468 0.8733 0.8916 0.8627 0.8513
2208.680 0.8192 0.8165 0.8392 0.8472 0.8655 0.8967 0.8594 0.8436 0.9103 0.902
2227.970 0.8469 0.8586 0.9185 0.8901 0.9448 0.9571 0.9268 0.9895 1.0293 1.0646
2247.259 1.0527 1.0587 1.0706 1.0347 1.0309 1.093 1.123 1.0267 0.9715 1.045
2266.549 1.1243 1.1553 1.1419 1.1139 1.1042 1.0918 1.1078 1.1306 1.1169 1.1299
2285.839 1.1519 1.1344 1.1171 1.1281 1.0129 0.9661 1.0342 1.0596 1.091 1.0606
2305.129 1.0493 1.022 0.9247 0.9 0.9432 0.9693 0.9744 1.0185 0.9907 0.9035
2324.418 0.9006 0.9494 0.9991 1.0036 0.9845 1.051 1.1053 1.0934 1.1394 1.1515
2343.708 1.1613 1.1779 1.1447 1.1335 1.1296 1.1271 1.1945 1.2274 1.2549 1.285
2362.998 1.2472 1.2265 1.2332 1.2629 1.315 1.325 1.325 1.295 1.2072 1.2496
2382.288 1.2398 1.2358 1.2394 1.2118 1.315 1.375 1.355 1.345 1.305 1.257
2401.578 1.305 1.395 1.435 1.435 1.395 1.355 1.455 1.555 1.545 1.525
2420.867 1.525 1.545 1.555 1.505 1.455 1.465 1.475 1.445 1.385 1.355
2440.157 1.345 1.315 1.283 1.335 1.335 1.2695 1.2395 1.1729 1.154 1.1328
2459.447 1.1594 1.285 1.2735 1.1634 1.1545 1.2511 1.355 1.365 1.2754 1.2693
2478.737 1.285 1.325 1.305 1.2479 1.2672 1.345 1.385 1.365 1.415 1.415
2498.026 1.425 1.505 1.565 1.605 1.605 1.615 1.665 1.655 1.665 1.705
2517.316 1.825 1.885 1.805 1.795 1.885 1.945 1.975 1.985 2.005 2.145
2536.606 2.215 2.165 2.235 2.415 2.495 2.455 2.515 2.585 2.725 2.855
2555.896 2.815 2.885 3.015 3.065 3.195 3.335 3.395 3.435 3.615 3.675
2575.186 3.665 3.745 3.795 3.785 3.845 3.875 3.885 3.915 3.875 3.955
2594.475 3.955 4.025 4.125 4.125 4.115 4.105 4.105 4.195 4.295 4.375
2613.765 4.495 4.565 4.705 4.825 4.925 5.085 5.265 5.475 5.595 5.725
2633.055 5.955 6.115 6.295 6.515 6.675 6.905 7.085 7.235 7.535 7.745
2652.345 7.915 8.125 8.335 8.545 8.735 8.875 9.075 9.275 9.405 9.635
2671.634 9.905 10.115 10.295 10.555 10.895 11.205 11.465 11.665 11.865 12.105
2690.924 12.425 12.805 13.095 13.465 13.915 14.265 14.725 15.305 15.725 16.065
2710.214 16.555 17.125 17.575 17.835 18.125 18.565 18.985 19.335 19.665 19.995
2729.504 20.335 20.585 20.875 21.195 21.365 21.665 22.185 22.735 23.395 24.155
2748.794 24.975 25.855 26.785 27.755 28.795 29.855 30.795 31.905 33.115 34.375
2768.083 35.715 37.105 38.755 40.665 42.795 45.295 48.105 51.275 54.985 59.055
2787.373 63.415 68.195 73.435 78.875 84.195 89.455 94.345 98.605 102.015 104.505
2806.663 106.345 107.285 107.265 106.585 105.285 103.385 100.925 98.015 94.725 91.035
2825.953 87.065 83.145 79.155 75.125 71.195 67.435 63.975 60.695 57.675 54.905
2845.242 52.325 49.965 47.985 46.415 45.115 44.085 43.365 42.965 43.245 43.895
2864.532 44.825 46.385 48.385 50.785 53.645 56.955 59.825 62.165 64.115 65.265
2883.822 65.835 65.635 64.935 64.035 62.995 62.095 61.615 61.505 61.615 62.165
2903.112 63.145 64.215 65.315 66.755 68.255 69.985 72.195 74.655 77.505 80.885
2922.401 84.805 89.345 94.595 100.315 106.435 112.565 118.215 122.665 125.495 126.665
2941.691 126.085 123.985 120.755 116.905 113.005 109.905 108.145 108.385 110.755 115.275
2960.981 122.455 132.275 144.095 157.235 170.355 181.795 190.375 194.855 194.105 187.515
2980.271 175.375 159.155 140.855 122.125 104.035 87.535 73.495 61.755 52.265 44.865
2999.561 39.025 34.295 30.395 27.345 24.815 22.735 20.995 19.345 18.085 17.065
3018.850 16.045 15.035 14.205 13.545 12.795 12.205 11.805 11.315 10.815 10.305
3038.140 9.965 9.735 9.375 9.115 9.055 8.895 8.555 8.325 8.135 7.835
3057.430 7.585 7.525 7.295 7.095 7.075 7.045 6.855 6.525 6.275 6.115
3076.720 6.005 5.975 5.985 5.915 5.835 5.675 5.535 5.475 5.425 5.305
3096.009 5.135 5.005 4.865 4.805 4.885 4.765 4.535 4.425 4.345 4.285
3115.299 4.125 4.055 4.005 3.865 3.805 3.775 3.695 3.595 3.465 3.455
3134.589 3.475 3.355 3.275 3.195 3.125 3.205 3.185 3.035 3.005 3.025
3153.879 2.955 2.865 2.865 2.925 2.895 2.815 2.795 2.695 2.605 2.425
3173.169 2.325 2.445 2.385 2.255 2.285 2.275 2.155 2.015 1.925 1.865
3192.458 1.805 1.865 1.825 1.655 1.635 1.675 1.635 1.585 1.645 1.525
3211.748 1.455 1.515 1.375 1.315 1.2233 1.059 1.0348 0.9699 0.9868 1.0955
3231.038 1.1293 1.0686 1.0192 1.0414 1.0975 1.0559 0.9928 1.0417 1.1029 1.0531
3250.328 1.0382 1.0551 0.9588 0.9268 0.9656 1.0286 1.0096 0.9798 0.989 1.0616
3269.617 0.9955 0.898 1.0148 0.8592 0.5841 0.6425 0.7465 0.8019 0.9013 0.9327
3288.907 0.7036 0.5751 0.6926 0.7841 0.7551 0.6902 0.7044 0.7177 0.8752 0.8499
3308.197 0.7339 0.6992 0.6262 0.7004 0.7525 0.7091 0.6509 0.5848 0.594 0.4459
3327.487 0.35948 0.5261 0.5551 0.37344 0.33626 0.5525 0.4974 0.2705 0.3991 0.5918
3346.777 0.6759 0.6524 0.5191 0.4525 0.4585 0.497 0.5703 0.6024 0.4802 0.4862
3366.066 0.5815 0.5734 0.6028 0.6692 0.7345 0.5674 0.437 0.4594 0.4279 0.4192
3385.356 0.4228 0.5356 0.4469 0.3904 0.4542 0.4435 0.4626 0.4308 0.36271 0.4585
3404.646 0.5848 0.5827 0.563 0.4336 0.4814 0.4222 0.2585 0.33976 0.32193 0.30436
3423.936 0.336 0.3863 0.4725 0.4291 0.422 0.3988 0.27978 0.2149 0.27575 0.4394
3443.225 0.6569 0.5723 0.5149 0.5228 0.5116 0.5174 0.4388 0.4257 0.3726 0.47
3462.515 0.4713 0.4438 0.27898 0.2183 0.36944 0.35331 0.37049 0.33517 0.34562 0.35045
3481.805 0.2358 0.32731 0.30084 0.285293 0.35686 0.4294 0.4884 0.2713 0.287345 0.36365
3501.095 0.3962 0.5372 0.4073 0.29734 0.4521 0.5115 0.3992 0.3722 0.2453 0.31543
3520.385 0.4582 0.2452 0.137 0.205 0.33109 0.4381 0.4064 0.4037 0.34147 0.3047
3539.674 0.5069 0.5738 0.3917 0.212 0.2373 0.226 0.2525 0.3197 0.31173 0.4521
3558.964 0.55 0.5053 0.35543 0.28262 0.36642 0.3899 0.3965 0.3438 0.2679 0.3619
3578.254 0.36469 0.28097 0.37318 0.4912 0.4825 0.4803 0.4419 0.4024 0.5221 0.4466
3597.544 0.5192 0.6592 0.4858 0.35023 0.29543 0.4015 0.5239 0.5527 0.6368 0.5976
3616.833 0.32818 0.2394 0.34907 0.3325 0.31092 0.3934 0.6489 0.578 0.30946 0.29738
3636.123 0.2338 0.36642 0.5251 0.4598 0.4255 0.5026 0.5848 0.4976 0.5077 0.5285
3655.413 0.5735 0.5988 0.5729 0.6659 0.5107 0.3701 0.3945 0.257 0.124 0.071
3674.703 0.2133 0.534 0.6256 0.6176 0.5591 0.5963 0.7834 0.7613 0.7021 0.5741
3693.993 0.4278 0.4121 0.4927 0.5996 0.4551 0.36248 0.36629 0.4677 0.7198 0.7537
3713.282 0.6077 0.551 0.4448 0.434 0.5651 0.6881 0.65 0.5977 0.7683 0.6951
3732.572 0.5378 0.497 0.5069 0.6972 0.8075 0.6526 0.5532 0.5262 0.6086 0.675
3751.862 0.5742 0.5464 0.6461 0.7691 0.6445 0.5656 0.6426 0.6565 0.4439 0.2463
3771.152 0.37638 0.36454 0.37333 0.5908 0.5975 0.4734 0.5606 0.6271 0.6717 0.7346
3790.441 0.628 0.61 0.658 0.6664 0.4874 0.4581 0.5748 0.509 0.5302 0.6712
3809.731 0.7556 0.6761 0.6477 0.5908 0.35089 0.4503 0.6918 0.6607 0.611 0.596
3829.021 0.6578 0.6113 0.405 0.4603 0.5895 0.4835 0.4443 0.5727 0.5757 0.37926
3848.311 0.38296 0.6031 0.6786 0.6507 0.6893 0.7757 0.6968 0.4902 0.7217 0.93
3867.601 0.7163 0.5383 0.6288 0.7797 0.837 0.8405 0.6467 0.6216 0.7154 0.6074
3886.890 0.6513 0.7387 0.7953 0.9714 0.8883 0.8977 0.9457 0.8643 0.9868 0.9216
3906.180 0.6099 0.7228 1.1156 0.9908 0.7268 0.7019 0.6638 0.6825 0.5761 0.549
3925.470 0.7884 0.9813 0.6999 0.6483 1.1269 1.1605 0.9269 0.8928 0.8624 0.9496
3944.760 1.0629 1.0109 0.8606 0.9477 0.9968 0.853 0.8934 0.8561 0.9889 0.9992
3964.049 0.9228 1.1041 0.989 0.8572 1.1347 1.2614 1.0826 0.9604 0.9484 0.8529
3983.339 0.8828 1.0388 1.159 1.2066 1.0325 0.8825 0.8705 1.032 1.2795 1.295
##END=
