##TITLE=1,2-Dianilinoethane
##JCAMP-DX=4.24
##DATA TYPE=INFRARED SPECTRUM
##ORIGIN=EPA-IR VAPOR PHASE LIBRARY
##OWNER=SRD/NIST
Collection (C) 2018 copyright by the U.S. Secretary of Commerce
on behalf of the United States of America. All rights reserved.
##CAS REGISTRY NO=150-61-8
##MOLFORM=C 14 H 16 N 2
##$NIST SOURCE=MSDC-IR
##STATE=gas
##XUNITS=1/CM
##YUNITS=ABSORBANCE
##XFACTOR=1.
##YFACTOR=0.001
##DELTAX=1.92934
##FIRSTX=549.9
##LASTX=3999.5
##FIRSTY=2.882
##MAXX=3999.53
##MINX=549.863
##MAXY=0.037052
##MINY=0
##NPOINTS=1789
##XYDATA=(X++(Y..Y))
549.863 2.882 2.802 2.772 2.682 2.582 2.622 2.582 2.452 2.432 2.502
569.156 2.512 2.552 2.552 2.542 2.502 2.382 2.392 2.382 2.222 2.122
588.450 2.182 2.292 2.172 2.092 2.112 2.052 2.122 2.122 2.042 2.112
607.743 2.212 2.202 2.082 2.102 2.142 2.122 2.162 2.162 2.102 2.152
627.037 2.252 2.232 2.282 2.402 2.452 2.452 2.502 2.662 2.782 2.792
646.330 2.892 3.022 3.032 3.042 3.092 3.202 3.362 3.632 3.782 3.842
665.624 4.052 4.292 4.452 4.692 4.992 5.362 5.892 6.642 7.462 8.372
684.917 9.422 10.362 10.922 10.912 10.492 9.832 9.022 8.192 7.462 6.752
704.210 6.222 5.782 5.382 5.132 4.952 4.852 4.832 4.852 4.852 4.912
723.504 5.012 5.282 5.642 6.082 6.762 7.622 8.692 9.992 11.442 12.902
742.797 14.252 15.262 15.602 15.232 14.312 13.022 11.602 10.222 8.962 7.882
762.091 7.012 6.272 5.622 5.172 4.692 4.232 3.932 3.632 3.402 3.192
781.384 2.992 2.832 2.632 2.482 2.402 2.252 2.122 2.092 2.012 1.902
800.678 1.882 1.872 1.842 1.842 1.852 1.872 1.862 1.812 1.7761 1.6877
819.971 1.7073 1.7402 1.6473 1.6118 1.5792 1.5178 1.4951 1.436 1.393 1.3582
839.264 1.3573 1.3727 1.3697 1.3851 1.4119 1.4159 1.371 1.4347 1.5078 1.5689
858.558 1.6704 1.792 1.932 2.102 2.262 2.302 2.312 2.262 2.172 2.042
877.851 1.892 1.822 1.7334 1.6068 1.5628 1.538 1.5249 1.5228 1.5404 1.5786
897.145 1.5502 1.5038 1.5196 1.5788 1.6558 1.6473 1.5953 1.5735 1.5475 1.5753
916.438 1.5847 1.5523 1.4831 1.4342 1.4119 1.4177 1.39 1.31 1.2751 1.2222
935.732 1.1895 1.1764 1.1432 1.1538 1.1445 1.1255 1.1046 1.0808 1.0874 1.0713
955.025 1.0622 1.062 1.0664 1.0803 1.102 1.0775 1.0552 1.0966 1.1064 1.1019
974.318 1.1128 1.155 1.1988 1.2316 1.3138 1.3948 1.494 1.6319 1.812 1.992
993.612 2.092 2.082 2.022 1.912 1.6887 1.4732 1.346 1.2799 1.2578 1.3099
1012.905 1.376 1.4181 1.4959 1.5999 1.7334 1.892 2.062 2.122 2.122 2.082
1032.199 1.982 1.852 1.7457 1.6787 1.6465 1.6494 1.6649 1.7365 1.822 1.882
1051.492 2.042 2.252 2.442 2.662 2.892 3.172 3.422 3.552 3.612 3.602
1070.786 3.542 3.372 3.132 2.882 2.732 2.722 2.672 2.652 2.742 2.812
1090.079 2.902 3.032 3.112 3.102 3.102 3.052 2.992 2.972 2.922 2.962
1109.372 2.992 3.022 3.172 3.322 3.432 3.512 3.502 3.562 3.512 3.292
1128.666 3.132 3.002 2.842 2.672 2.432 2.272 2.182 2.072 2.072 2.112
1147.959 2.102 2.072 2.122 2.262 2.322 2.282 2.232 2.112 2.122 2.242
1167.253 2.302 2.422 2.672 3.052 3.392 3.572 3.712 3.762 3.622 3.492
1186.546 3.282 3.092 2.972 2.852 2.712 2.602 2.572 2.492 2.562 2.852
1205.840 2.772 2.652 2.912 3.092 3.382 3.502 3.762 4.222 4.542 4.792
1225.133 5.002 5.232 5.512 5.922 6.502 7.302 8.382 9.712 11.022 12.472
1244.426 14.032 15.502 16.642 17.092 17.002 16.422 15.482 14.482 13.472 12.622
1263.720 11.992 11.492 11.122 10.822 10.482 10.042 9.552 9.062 8.652 8.362
1283.013 8.202 8.152 8.142 8.202 8.352 8.602 8.882 9.202 9.602 10.032
1302.307 10.382 10.672 10.952 11.142 11.222 11.212 11.112 10.822 10.272 9.592
1321.600 8.842 8.102 7.312 6.582 5.962 5.342 4.812 4.392 4.072 3.782
1340.894 3.472 3.232 3.102 3.022 2.932 2.922 2.972 3.022 3.082 3.092
1360.187 3.102 3.062 2.942 2.772 2.672 2.602 2.532 2.422 2.312 2.242
1379.480 2.152 2.092 2.072 2.062 2.062 2.012 1.952 1.972 1.992 1.982
1398.774 2.012 2.032 2.072 2.182 2.242 2.322 2.522 2.742 2.992 3.372
1418.067 3.822 4.292 4.782 5.362 5.952 6.342 6.462 6.372 6.012 5.482
1437.361 4.832 4.162 3.642 3.342 3.222 3.202 3.292 3.432 3.692 4.042
1456.654 4.432 4.812 5.202 5.682 6.262 6.882 7.452 7.932 8.342 8.682
1475.948 9.002 9.372 9.962 10.822 11.832 13.152 14.862 17.122 20.082 23.612
1495.241 27.692 31.912 35.232 37.052 36.982 35.032 31.422 27.012 22.632 18.602
1514.534 15.382 12.832 10.732 9.112 7.722 6.662 5.842 5.192 4.692 4.352
1533.828 4.092 3.822 3.612 3.492 3.402 3.342 3.322 3.302 3.332 3.362
1553.121 3.392 3.462 3.552 3.622 3.612 3.622 3.662 3.772 3.992 4.252
1572.415 4.582 5.042 5.742 6.542 7.502 8.802 10.392 12.332 14.672 17.532
1591.708 20.682 24.022 27.262 29.942 31.602 31.912 30.812 28.482 25.332 21.882
1611.002 18.592 15.722 13.452 11.462 9.822 8.492 7.302 6.252 5.362 4.682
1630.295 4.192 3.762 3.382 3.112 2.842 2.592 2.422 2.332 2.232 2.162
1649.588 2.042 1.962 1.952 1.862 1.7882 1.79 1.7514 1.7256 1.7306 1.7041
1668.882 1.6754 1.6449 1.6648 1.679 1.5987 1.541 1.5085 1.4864 1.4994 1.4161
1688.175 1.3633 1.3559 1.3234 1.3309 1.2928 1.264 1.2838 1.2469 1.1936 1.2029
1707.469 1.1945 1.1565 1.1752 1.1924 1.2306 1.2209 1.12 1.0696 1.1008 1.1101
1726.762 1.093 1.1041 1.1217 1.1921 1.1952 1.1507 1.1618 1.1583 1.1923 1.2018
1746.056 1.2063 1.2896 1.4005 1.4669 1.426 1.427 1.4743 1.4335 1.3383 1.2611
1765.349 1.246 1.2518 1.1913 1.1346 1.0833 1.0267 0.9953 0.9704 0.9749 0.9793
1784.642 0.972 0.9233 0.89146 0.9064 0.9226 0.9241 0.9208 0.9109 0.9198 0.9634
1803.936 0.9568 0.9669 1.0031 1.0397 1.0521 1.0728 1.1332 1.159 1.1341 1.1159
1823.229 1.1293 1.0951 1.0644 1.0835 1.1033 1.0975 1.0806 1.0312 1.008 1.0066
1842.523 0.9781 0.9394 0.87556 0.86098 0.85895 0.856 0.83351 0.80236 0.80295 0.795231
1861.816 0.797143 0.795014 0.7727 0.794603 0.85646 0.84385 0.80815 0.81441 0.81535 0.793218
1881.110 0.7769 0.794481 0.81463 0.83629 0.88627 0.9243 0.945 1.0103 1.0547 1.0724
1900.403 1.1148 1.1819 1.2417 1.3256 1.3957 1.3808 1.3831 1.4072 1.3929 1.3528
1919.696 1.3087 1.2874 1.3101 1.2862 1.2522 1.2321 1.1699 1.0942 1.0386 1.0007
1938.990 0.9564 0.915 0.87777 0.8509 0.81546 0.7696 0.7642 0.769 0.7773 0.732
1958.283 0.687 0.7166 0.7157 0.691 0.6924 0.7023 0.653 0.644 0.668 0.65
1977.577 0.65 0.637 0.671 0.7245 0.7276 0.7394 0.7279 0.7284 0.7406 0.683
1996.870 0.678 0.7055 0.673 0.651 0.68 0.7007 0.652 0.632 0.685 0.7286
2016.164 0.7375 0.7495 0.7531 0.7266 0.7525 0.7697 0.7344 0.6957 0.6967 0.7239
2035.457 0.7269 0.7365 0.7283 0.6996 0.7016 0.7341 0.7409 0.7293 0.7267 0.7101
2054.750 0.705 0.7265 0.718 0.7309 0.7467 0.7394 0.7616 0.7302 0.6988 0.7291
2074.044 0.7363 0.7208 0.688 0.688 0.6998 0.662 0.675 0.7031 0.7222 0.7531
2093.337 0.7422 0.7155 0.6986 0.7115 0.7127 0.7258 0.7241 0.7126 0.7265 0.6922
2112.631 0.685 0.7264 0.7313 0.7182 0.7064 0.7005 0.7079 0.7187 0.688 0.655
2131.924 0.677 0.692 0.684 0.6926 0.6968 0.689 0.6937 0.7077 0.689 0.687
2151.218 0.7058 0.669 0.662 0.658 0.672 0.7069 0.71 0.7145 0.7091 0.7205
2170.511 0.7228 0.7071 0.6959 0.7123 0.7056 0.7169 0.7335 0.7345 0.7644 0.7506
2189.804 0.7147 0.696 0.684 0.676 0.7013 0.7182 0.7018 0.6988 0.688 0.652
2209.098 0.652 0.643 0.63 0.639 0.66 0.675 0.647 0.647 0.668 0.676
2228.391 0.68 0.658 0.667 0.679 0.643 0.647 0.656 0.632 0.641 0.639
2247.685 0.602 0.62 0.658 0.642 0.639 0.659 0.673 0.671 0.647 0.65
2266.978 0.659 0.656 0.66 0.681 0.6923 0.7093 0.7444 0.7413 0.7299 0.7117
2286.272 0.68 0.683 0.7268 0.7132 0.681 0.68 0.69 0.701 0.7189 0.7662
2305.565 0.7701 0.755 0.7649 0.81701 0.82314 0.7867 0.78439 0.7779 0.7721 0.7455
2324.858 0.7331 0.727 0.7281 0.7654 0.78499 0.7788 0.7485 0.7164 0.7181 0.731
2344.152 0.7476 0.7729 0.7735 0.7515 0.7329 0.7272 0.7376 0.7508 0.7688 0.7584
2363.445 0.7407 0.7509 0.7598 0.7444 0.7521 0.7812 0.7673 0.737 0.7261 0.7311
2382.739 0.7051 0.691 0.7248 0.7217 0.7349 0.7735 0.7536 0.7362 0.7508 0.7451
2402.032 0.732 0.7057 0.691 0.7206 0.714 0.69 0.7056 0.7041 0.6934 0.686
2421.326 0.686 0.7074 0.69 0.683 0.6967 0.7023 0.6924 0.667 0.662 0.659
2440.619 0.652 0.654 0.682 0.7087 0.6999 0.674 0.6951 0.7002 0.691 0.6999
2459.912 0.69 0.684 0.7006 0.691 0.638 0.654 0.7 0.7336 0.7503 0.7367
2479.206 0.7157 0.6937 0.7118 0.6923 0.683 0.689 0.669 0.676 0.659 0.677
2498.499 0.6948 0.7029 0.7337 0.7688 0.79111 0.7608 0.7369 0.7474 0.7696 0.7374
2517.793 0.7193 0.772 0.7566 0.781 0.83385 0.83034 0.791503 0.7683 0.79003 0.80322
2537.086 0.82612 0.86191 0.86227 0.83657 0.86823 0.8886 0.9007 0.9092 0.9072 0.9329
2556.380 0.9397 0.9522 0.9415 0.9381 0.9777 0.9846 0.9613 0.8959 0.8959 0.9581
2575.673 0.9121 0.85683 0.8715 0.86703 0.84296 0.83361 0.86057 0.84142 0.800921 0.7752
2594.966 0.7409 0.76 0.7649 0.7407 0.7459 0.7389 0.7328 0.7502 0.7294 0.7202
2614.260 0.7135 0.7148 0.7187 0.7241 0.7653 0.756 0.7234 0.7176 0.7211 0.675
2633.553 0.648 0.667 0.666 0.68 0.7191 0.7581 0.7509 0.7169 0.7405 0.7477
2652.847 0.7308 0.7337 0.7061 0.7126 0.7341 0.7501 0.79075 0.79296 0.7643 0.78294
2672.140 0.799672 0.7692 0.80269 0.85482 0.83363 0.86652 0.9137 0.8984 0.86566 0.8781
2691.434 0.9089 0.9157 0.9102 0.916 0.9288 0.915 0.88766 0.9012 0.8979 0.85566
2710.727 0.87777 0.82551 0.797003 0.83795 0.81473 0.80239 0.78931 0.80652 0.85729 0.86682
2730.020 0.82381 0.7418 0.7348 0.80312 0.83539 0.82362 0.81168 0.80901 0.78352 0.83039
2749.314 0.8608 0.80962 0.81906 0.82488 0.80562 0.87472 0.88517 0.83879 0.86586 0.9095
2768.607 0.85926 0.80296 0.84728 0.88327 0.9471 0.9734 0.9053 0.9531 1.0198 1.0351
2787.901 1.093 1.1279 1.0879 1.0569 1.0749 1.1739 1.2754 1.2581 1.2592 1.3273
2807.194 1.4348 1.5081 1.5592 1.6057 1.6274 1.7222 1.862 1.982 2.082 2.142
2826.488 2.202 2.252 2.352 2.512 2.642 2.762 2.842 2.882 2.942 3.072
2845.781 3.192 3.312 3.472 3.562 3.632 3.732 3.782 3.832 3.972 4.102
2865.074 4.152 4.222 4.312 4.372 4.342 4.302 4.312 4.292 4.202 4.162
2884.368 4.092 4.002 3.912 3.792 3.742 3.742 3.702 3.592 3.522 3.522
2903.661 3.522 3.522 3.552 3.622 3.742 3.722 3.802 3.902 3.902 4.012
2922.955 4.062 4.172 4.202 4.222 4.182 4.062 4.122 4.122 4.062 4.042
2942.248 4.032 4.032 4.042 4.042 4.032 3.962 3.772 3.652 3.662 3.612
2961.542 3.482 3.462 3.372 3.152 2.902 2.682 2.562 2.382 2.142 1.972
2980.835 1.862 1.6954 1.5316 1.4392 1.5336 1.5224 1.4237 1.5656 1.6659 1.7372
3000.128 1.842 2.032 2.312 2.472 2.762 3.182 3.482 3.902 4.342 4.752
3019.422 5.012 5.342 5.802 6.012 5.982 5.922 5.852 5.612 5.412 5.312
3038.715 5.282 5.242 5.212 5.462 5.862 6.262 6.822 7.452 7.992 8.402
3058.009 8.762 8.892 8.732 8.492 8.042 7.512 7.022 6.562 6.132 5.882
3077.302 5.752 5.642 5.572 5.432 5.312 5.302 5.192 4.952 4.632 4.322
3096.596 4.022 3.702 3.542 3.232 2.912 2.692 2.442 2.252 2.052 1.792
3115.889 1.514 1.2843 1.2122 1.0861 0.9438 0.81949 0.651 0.63 0.6 0.559
3135.182 0.531 0.479 0.396 0.335 0.434 0.448 0.383 0.294 0.177 0.116
3154.476 0.128 0.161 0.224 0.236 0.193 0.287 0.256 0.097 0.126 0.287
3173.769 0.366 0.316 0.246 0.236 0.207 0.167 0.122 0.129 0.092 0.043
3193.063 0.134 0.139 0.097 0.154 0.15 0.15 0.21 0.226 0.139 0.086
3212.356 0.1 0.156 0.231 0.151 0.154 0.251 0.251 0.184 0.185 0.297
3231.650 0.291 0.156 0.091 0.043 0.059 0.119 0.109 0.117 0.122 0.117
3250.943 0.136 0.112 0.034 0.136 0.272 0.254 0.194 0.094 0.115 0.201
3270.236 0.209 0.172 0.243 0.261 0.203 0.175 0.142 0.042 0.044 0.168
3289.530 0.118 0.129 0.167 0.141 0.113 0.05 0.071 0.181 0.153 0.136
3308.823 0.267 0.223 0.179 0.102 0 0.13 0.191 0.18 0.261 0.201
3328.117 0.074 0.078 0.038 0.14 0.23 0.119 0.136 0.276 0.322 0.299
3347.410 0.341 0.29 0.132 0.187 0.299 0.347 0.426 0.301 0.19 0.32
3366.704 0.389 0.305 0.311 0.457 0.47 0.434 0.523 0.67 0.7189 0.7547
3385.997 0.85081 0.9305 0.9951 1.098 1.1875 1.2274 1.2514 1.2988 1.3554 1.4253
3405.290 1.5313 1.5766 1.6816 1.7648 1.7566 1.7753 1.7618 1.715 1.802 1.882
3424.584 1.7568 1.6799 1.6277 1.5349 1.5355 1.5001 1.4565 1.3555 1.3293 1.3599
3443.877 1.3052 1.3009 1.2239 1.117 1.1097 1.0498 0.9037 0.86863 0.9536 0.9694
3463.171 0.87217 0.7505 0.674 0.609 0.551 0.59 0.667 0.679 0.612 0.518
3482.464 0.453 0.383 0.325 0.431 0.495 0.427 0.428 0.406 0.338 0.314
3501.758 0.38 0.415 0.403 0.429 0.441 0.413 0.376 0.401 0.314 0.217
3521.051 0.399 0.441 0.391 0.404 0.377 0.295 0.175 0.141 0.2 0.308
3540.344 0.325 0.279 0.342 0.383 0.324 0.304 0.291 0.253 0.229 0.263
3559.638 0.231 0.211 0.231 0.242 0.266 0.269 0.222 0.234 0.285 0.243
3578.931 0.196 0.099 0.178 0.332 0.336 0.41 0.405 0.327 0.346 0.382
3598.225 0.366 0.339 0.345 0.333 0.317 0.295 0.237 0.256 0.274 0.286
3617.518 0.331 0.298 0.321 0.433 0.423 0.418 0.406 0.407 0.488 0.461
3636.812 0.45 0.512 0.586 0.569 0.503 0.495 0.536 0.548 0.477 0.424
3656.105 0.486 0.467 0.384 0.412 0.427 0.355 0.287 0.374 0.46 0.441
3675.398 0.438 0.346 0.285 0.336 0.367 0.383 0.317 0.325 0.37 0.282
3694.692 0.241 0.332 0.373 0.383 0.406 0.353 0.384 0.394 0.354 0.439
3713.985 0.419 0.366 0.302 0.28 0.356 0.361 0.42 0.387 0.301 0.317
3733.279 0.361 0.42 0.409 0.387 0.443 0.365 0.296 0.339 0.33 0.331
3752.572 0.288 0.291 0.272 0.294 0.305 0.298 0.354 0.366 0.401 0.299
3771.866 0.198 0.253 0.276 0.21 0.212 0.365 0.474 0.408 0.367 0.395
3791.159 0.396 0.337 0.337 0.39 0.338 0.372 0.42 0.407 0.377 0.365
3810.452 0.387 0.393 0.373 0.315 0.321 0.359 0.376 0.33 0.35 0.352
3829.746 0.31 0.333 0.352 0.355 0.342 0.434 0.521 0.491 0.459 0.403
3849.039 0.404 0.437 0.444 0.451 0.435 0.419 0.349 0.349 0.407 0.384
3868.333 0.361 0.446 0.507 0.475 0.435 0.401 0.41 0.42 0.399 0.41
3887.626 0.432 0.41 0.385 0.388 0.441 0.435 0.431 0.493 0.513 0.472
3906.920 0.4 0.379 0.438 0.456 0.421 0.518 0.582 0.508 0.42 0.425
3926.213 0.445 0.417 0.48 0.501 0.404 0.345 0.358 0.444 0.559 0.52
3945.506 0.462 0.486 0.5 0.437 0.38 0.411 0.395 0.415 0.458 0.483
3964.800 0.46 0.453 0.557 0.604 0.539 0.515 0.451 0.43 0.541 0.444
3984.093 0.399 0.487 0.432 0.423 0.446 0.458 0.476 0.441 0.468
##END=
