##TITLE=p-Aminobenzoic acid
##JCAMP-DX=4.24
##DATA TYPE=INFRARED SPECTRUM
##ORIGIN=NIST Mass Spectrometry Data Center
##OWNER=NIST Standard Reference Data Program
Collection (C) 2018 copyright by the U.S. Secretary of Commerce
on behalf of the United States of America. All rights reserved.
##CAS REGISTRY NO=150-13-0
##MOLFORM=C 7 H 7 N O 2
##$NIST SOURCE=MSDC-IR
##SPECTROMETER/DATA SYSTEM=HP-GC/MS/IRD
##STATE=gas
##XUNITS=1/CM
##YUNITS=ABSORBANCE
##XFACTOR=1.0
##YFACTOR=0.000001700
##DELTAX=4.0
##FIRSTX=550.0
##LASTX=3846.0
##FIRSTY=0.001107
##MAXX=3846
##MINX=550
##MAXY=0.017
##MINY=0
##NPOINTS=825
##XYDATA=(X++(Y..Y))
550.0 651 1212 1151 1357 1543 1556 1493 1613 1889 2234
590.0 2424 2297 2000 1514 881 454 297 255 242 271
630.0 297 333 345 369 443 501 593 721 854 951
670.0 1020 1048 1076 1111 1160 1236 1316 1250 1076 956
710.0 856 789 828 955 1041 1116 1140 998 896 894
750.0 964 1091 1228 1357 1481 1541 1453 1278 1093 928
790.0 779 672 584 497 462 461 461 479 546 620
830.0 661 735 839 814 680 556 438 326 234 164
870.0 125 104 88 74 67 59 61 64 50 39
910.0 32 25 21 32 45 54 64 79 99 95
950.0 101 118 114 113 123 124 107 92 86 75
990.0 75 95 132 192 251 277 293 320 339 343
1030.0 378 459 584 751 967 1207 1488 1845 2291 2841
1070.0 3488 4065 4344 4288 3882 3148 2290 1572 1087 807
1110.0 660 588 588 618 633 654 704 784 971 1311
1150.0 2013 3355 5081 6179 6365 6057 4929 3321 2400 2126
1190.0 1931 1787 1601 1202 800 575 482 455 453 494
1230.0 579 657 753 880 1037 1225 1377 1488 1568 1636
1270.0 1792 2093 2438 2720 2830 2672 2271 1783 1380 1187
1310.0 1216 1352 1518 1656 1681 1584 1441 1284 1192 1280
1350.0 1585 2009 2320 2364 2173 1739 1126 655 403 272
1390.0 208 173 151 121 107 115 131 173 231 305
1430.0 378 407 396 348 254 161 106 78 67 63
1470.0 61 57 63 81 115 162 241 366 536 754
1510.0 1009 1200 1226 1130 949 666 404 282 236 217
1550.0 213 227 248 274 320 369 441 544 682 934
1590.0 1367 2003 2705 3278 3690 4061 4463 4824 5051 5161
1630.0 4858 4008 3027 2171 1426 915 653 521 456 430
1670.0 414 416 430 447 476 483 494 537 572 621
1710.0 660 712 818 984 1310 1896 2858 4422 6655 8760
1750.0 9731 10000 9580 7528 4934 3113 1994 1340 943 697
1790.0 541 437 360 299 264 260 263 250 224 190
1830.0 162 134 104 87 74 68 66 56 48 43
1870.0 43 50 57 63 76 94 110 126 133 140
1910.0 152 149 143 129 108 94 81 78 77 85
1950.0 94 79 67 64 54 53 49 44 48 52
1990.0 53 55 54 49 49 55 58 56 52 39
2030.0 37 42 38 34 33 38 36 30 34 32
2070.0 29 27 26 28 42 55 59 58 59 62
2110.0 56 52 47 49 44 43 50 47 45 46
2150.0 44 42 45 47 45 37 30 37 39 37
2190.0 35 24 21 25 26 27 27 31 34 29
2230.0 30 34 34 31 28 24 21 22 26 29
2270.0 28 25 20 28 35 33 36 40 49 52
2310.0 50 55 54 52 52 63 73 67 65 64
2350.0 66 77 82 76 65 60 63 68 61 56
2390.0 52 39 29 41 50 47 43 40 48 48
2430.0 39 51 65 63 59 59 57 62 61 50
2470.0 42 45 44 41 48 45 46 41 38 36
2510.0 30 25 21 27 34 37 36 40 47 48
2550.0 45 48 43 46 59 66 59 52 59 62
2590.0 61 59 66 79 90 94 85 85 87 81
2630.0 79 76 85 82 66 63 60 54 63 64
2670.0 53 54 57 42 44 49 48 57 46 36
2710.0 43 45 51 52 47 41 34 30 23 21
2750.0 37 42 31 31 49 50 43 45 39 28
2790.0 22 25 32 21 26 41 32 35 47 46
2830.0 43 41 37 41 47 38 31 33 36 30
2870.0 42 57 51 45 49 54 58 58 58 64
2910.0 66 60 65 68 49 42 47 41 54 54
2950.0 47 56 65 72 58 50 56 66 50 44
2990.0 68 80 100 140 190 227 227 253 294 319
3030.0 356 398 440 480 477 432 385 332 280 246
3070.0 238 244 225 196 177 158 139 126 137 138
3110.0 133 123 101 75 62 74 72 63 55 35
3150.0 27 44 62 58 40 45 42 22 38 55
3190.0 51 52 58 83 91 78 82 84 82 63
3230.0 67 79 76 67 44 36 43 36 22 21
3270.0 33 29 15 22 19 17 15 12 20 33
3310.0 41 30 33 34 47 50 33 24 26 29
3350.0 40 51 50 45 40 43 58 64 79 102
3390.0 119 170 226 279 350 452 533 565 599 587
3430.0 547 521 444 348 293 234 160 109 95 106
3470.0 131 160 162 192 228 239 268 293 289 280
3510.0 282 286 279 264 250 222 194 184 170 158
3550.0 135 126 152 202 305 569 1121 1935 2627 2816
3590.0 2648 2145 1263 527 227 120 70 50 40 32
3630.0 25 30 24 29 29 14 4 14 28 17
3670.0 17 24 12 9 32 42 41 18 1 3
3710.0 13 11 4 28 8 2 3 3 6 3
3750.0 3 3 5 3 4 24 34 22 0 10
3790.0 26 23 14 4 12 27 27 9 2 6
3830.0 8 18 36 46 41
##END=
