##TITLE=3,4-Dimethoxybenzylideneacetone
##JCAMP-DX=4.24
##DATA TYPE=INFRARED SPECTRUM
##ORIGIN=EPA-IR VAPOR PHASE LIBRARY
##OWNER=SRD/NIST
Collection (C) 2018 copyright by the U.S. Secretary of Commerce
on behalf of the United States of America. All rights reserved.
##CAS REGISTRY NO=15001-27-1
##MOLFORM=C 12 H 14 O 3
##$NIST SOURCE=MSDC-IR
##STATE=gas
##XUNITS=1/CM
##YUNITS=ABSORBANCE
##XFACTOR=1.
##YFACTOR=0.001
##DELTAX=1.929
##FIRSTX=549.8
##LASTX=4000.8
##FIRSTY=10.14
##MAXX=4000.75
##MINX=549.766
##MAXY=0.08637
##MINY=0
##NPOINTS=1790
##XYDATA=(X++(Y..Y))
549.766 10.14 9.61 8.87 8.17 7.3 6.55 5.79 5.14 4.38 3.85
569.056 3.52 3.27 3.21 2.96 2.87 2.95 3.02 2.97 2.75 2.78
588.346 2.79 2.73 2.8 2.76 2.82 3.08 3.24 3.05 2.92 2.88
607.636 2.92 2.93 2.61 2.39 2.39 2.27 2.21 2.19 2.08 2.0629
626.926 1.9901 2.0159 2.08 1.9779 1.892 1.8617 1.918 1.7889 1.5519 1.4401
646.216 1.3952 1.2585 1.13822 1.1905 1.15347 1.07854 1.06026 1.0111 0.922 0.901
665.506 0.818 0.922 0.809 0.63 0.846 0.863 0.66 0.601 0.841 0.877
684.796 0.839 0.861 0.811 0.827 0.822 0.699 0.733 0.833 0.788 0.787
704.086 0.891 0.826 0.783 0.912 0.9813 1.07676 1.12626 1.2114 1.2756 1.4294
723.376 1.6358 1.6784 1.8602 2.32 2.64 2.97 3.3 3.54 3.88 4.09
742.666 4.14 4.26 4.41 4.33 4.08 3.87 3.87 3.95 3.93 3.96
761.956 4.02 4.09 4.18 4.14 3.99 3.79 3.63 3.38 3.17 3.24
781.246 3.29 3.54 4.02 4.55 5.22 5.99 6.81 7.66 8.49 9.03
800.536 9.43 9.64 9.57 9.37 9.22 8.73 8.06 7.88 7.18 6.15
819.826 5.45 4.88 4.38 3.86 3.49 3.26 3.02 2.81 2.75 2.76
839.116 2.69 2.62 2.65 2.63 2.65 2.8 2.96 3.05 3.03 3.12
858.406 3.35 3.52 3.53 3.52 3.55 3.6 3.65 3.71 3.72 3.7
877.696 3.78 3.95 4.07 4.08 4.11 4.27 4.27 4.22 4.25 4.19
896.986 4.13 4.06 4.02 3.9 3.75 3.73 3.86 3.94 3.94 4.06
916.276 4.31 4.51 4.79 5.22 5.53 5.76 6.04 6.31 6.64 6.96
935.566 7.2 7.42 7.57 7.57 7.44 7.37 7.28 7.29 7.42 7.62
954.856 8.07 8.89 10.01 11.35 12.84 14.5 16.2 17.76 18.99 19.4
974.146 19.08 18.41 17.38 16.03 14.62 13.4 12.41 11.63 11.27 11.28
993.436 11.51 11.94 12.48 13.12 13.91 14.76 15.66 16.69 17.98 19.39
1012.726 20.91 22.69 24.6 26.48 28.18 29.75 31.21 32.48 33.43 33.88
1032.016 33.77 33.07 31.68 29.59 26.99 24.06 21.01 18.14 15.61 13.46
1051.306 11.65 10.12 8.9 7.97 7.22 6.6 6.2 5.9 5.53 5.23
1070.596 5.05 4.9 4.79 4.69 4.63 4.64 4.68 4.65 4.66 4.75
1089.886 4.83 4.86 5.03 5.36 5.66 6.07 6.63 7.25 8.03 9.04
1109.176 10.26 11.8 13.61 15.68 17.94 20.25 22.4 24.42 26.24 27.63
1128.467 28.64 29.12 29.26 29.18 28.92 28.52 28 27.5 27.35 27.54
1147.757 28.05 29.08 30.45 31.98 33.43 34.56 35.15 35.38 35.55 35.44
1167.047 35.15 34.74 33.59 31.84 29.49 26.55 23.44 20.48 18.01 16.2
1186.337 14.85 13.98 13.48 13.12 12.89 12.77 12.97 13.35 13.99 14.82
1205.627 15.89 17.43 19.11 21.07 23.26 25.66 28.54 31.69 35.02 38.78
1224.917 43.11 47.94 53.11 58.7 64.69 70.61 76.02 80.66 84.18 86.11
1244.207 86.37 85.06 82.4 79.21 76.09 73.55 72.31 72.53 74.07 76.65
1263.497 79.63 82.23 83.74 83.56 81.42 77.36 71.97 66.09 60.5 55.87
1282.787 52.34 49.79 47.94 46.38 44.75 42.91 40.85 38.52 35.98 33.34
1302.077 30.75 28.28 25.9 23.74 21.86 20.26 18.82 17.59 16.54 15.62
1321.367 14.79 14.06 13.46 12.92 12.4 11.89 11.43 11.05 10.7 10.48
1340.657 10.43 10.54 10.81 11.29 12.1 13.1 14.27 15.55 16.83 17.95
1359.947 18.65 18.88 18.66 17.97 16.97 15.75 14.37 12.98 11.73 10.69
1379.237 9.9 9.29 8.79 8.51 8.36 8.36 8.57 8.98 9.58 10.28
1398.527 11.27 12.49 13.77 15.29 16.86 18.32 19.67 20.65 21.05 20.85
1417.817 20.12 18.84 17.3 15.7 14.25 13.27 12.74 12.59 12.85 13.55
1437.107 14.51 15.45 16.36 17.02 17.25 17.24 16.98 16.53 16.23 16.2
1456.397 16.4 16.71 17.08 17.63 18.31 18.9 19.19 19.11 18.8 18.22
1475.687 17.47 16.92 16.74 17 17.85 19.3 21.47 24.34 28.12 32.78
1494.977 38.42 45.27 52.7 60.28 67.32 73.02 76.88 78.03 76.23 71.67
1514.267 65.13 57.34 49.02 41.38 34.21 28.43 23.76 20.08 17.28 15.18
1533.557 13.59 12.36 11.46 10.78 10.16 9.67 9.39 9.22 9.29 9.46
1552.847 9.73 10.13 10.68 11.49 12.26 13.13 14.22 15.34 16.58 17.65
1572.137 18.5 19.19 19.44 19.34 19.16 19.01 18.94 19.16 19.82 21
1591.427 22.61 24.39 26.47 28.74 30.94 33.13 35.38 37.94 40.9 44.28
1610.717 47.6 50.09 51.08 49.99 46.61 41.53 35.4 29.29 24.41 20.7
1630.007 17.77 15.36 13.36 11.69 10.19 9.03 8.3 7.82 7.46 7.27
1649.297 7.18 7.25 7.42 7.52 7.71 7.95 8.22 8.63 9.14 9.73
1668.587 10.65 11.83 13.39 15.57 18.61 22.42 27.34 33.04 39.14 44.56
1687.877 47.92 49.27 48.23 45.15 40.58 36.13 33.02 31.11 30.39 29.94
1707.167 29.17 27.96 26.3 23.94 20.93 17.74 14.81 12.52 10.74 9.4
1726.457 8.42 7.68 7.04 6.57 6.18 5.71 5.32 4.95 4.56 4.2
1745.747 3.89 3.7 3.52 3.34 3.26 3.2 3.15 3.13 3.04 2.96
1765.037 3.01 3.05 2.98 2.91 2.88 2.85 2.8 2.77 2.76 2.7
1784.327 2.67 2.59 2.48 2.45 2.41 2.35 2.32 2.28 2.24 2.21
1803.617 2.17 2.16 2.14 2.09 2.0437 2.0104 1.9893 1.9364 1.9025 1.9103
1822.907 1.8993 1.8809 1.8787 1.8816 1.8733 1.8648 1.8415 1.8235 1.8213 1.8344
1842.197 1.8556 1.8569 1.8082 1.7786 1.7906 1.7992 1.7788 1.7954 1.815 1.7809
1861.487 1.7912 1.7956 1.8036 1.7511 1.7423 1.82 1.7976 1.7566 1.7697 1.7585
1880.777 1.7508 1.717 1.7011 1.6985 1.6443 1.6237 1.6025 1.5751 1.5354 1.527
1900.067 1.541 1.5791 1.5588 1.5069 1.5075 1.4736 1.4519 1.441 1.3932 1.3401
1919.357 1.3416 1.3918 1.4358 1.3855 1.3176 1.3362 1.3816 1.4199 1.4164 1.3793
1938.647 1.3677 1.4226 1.4534 1.4256 1.4534 1.4402 1.4532 1.4909 1.4948 1.4764
1957.937 1.4683 1.513 1.5596 1.5794 1.5528 1.5365 1.5396 1.5244 1.4972 1.5473
1977.227 1.6029 1.621 1.6852 1.7206 1.6863 1.6912 1.7399 1.7936 1.8255 1.8276
1996.517 1.879 1.9598 2.0142 2.0201 2.0424 2.08 2.1 2.15 2.21 2.27
2015.807 2.34 2.39 2.42 2.48 2.55 2.55 2.56 2.6 2.6 2.59
2035.097 2.59 2.59 2.57 2.53 2.5 2.5 2.47 2.42 2.37 2.31
2054.387 2.25 2.21 2.19 2.13 2.08 2.0085 1.968 1.9253 1.879 1.8019
2073.677 1.7054 1.6488 1.5929 1.5619 1.5132 1.4492 1.3864 1.3825 1.3608 1.2754
2092.967 1.2431 1.2163 1.1721 1.1797 1.16808 1.14038 1.09836 1.08096 1.12183 1.1403
2112.257 1.11146 1.06757 1.0408 0.9995 1.002 1.0209 1.0046 1.0127 1.0127 1.0143
2131.547 1.034 1.034 1.0118 1.0196 1.0536 1.0203 1.0214 1.0748 1.06499 1.08221
2150.837 1.11987 1.11051 1.12601 1.161 1.15359 1.11586 1.14935 1.182 1.1704 1.1707
2170.127 1.11802 1.15369 1.1907 1.15115 1.16797 1.1701 1.12225 1.13783 1.16007 1.07432
2189.417 1.09681 1.1974 1.16122 1.1123 1.12545 1.11517 1.09309 1.07665 1.08387 1.0676
2208.707 1.0361 1.09554 1.12974 1.11206 1.10323 1.10429 1.11537 1.13082 1.16472 1.14291
2227.997 1.11617 1.10972 1.12226 1.16203 1.15413 1.13077 1.09964 1.10101 1.13514 1.12957
2247.287 1.09666 1.08687 1.12454 1.15595 1.1941 1.1869 1.13895 1.15528 1.1908 1.2038
2266.577 1.1909 1.1825 1.14745 1.1712 1.2154 1.2037 1.2152 1.2403 1.2359 1.2003
2285.868 1.14394 1.07575 1.0516 1.0115 0.9738 1.0245 1.0405 1.0217 1.023 0.963
2305.158 0.965 0.9737 0.966 0.985 0.947 0.911 0.885 0.892 0.923 0.935
2324.448 0.867 0.806 0.875 0.923 0.907 0.896 0.931 0.949 0.931 0.945
2343.738 0.876 0.857 0.911 0.829 0.825 0.935 0.935 0.96 1.0154 0.994
2363.028 0.946 0.944 0.9764 0.9705 0.954 0.943 0.955 0.928 0.857 0.833
2382.318 0.834 0.83 0.836 0.818 0.788 0.818 0.827 0.787 0.754 0.728
2401.608 0.789 0.848 0.841 0.825 0.79 0.755 0.794 0.824 0.789 0.854
2420.898 0.862 0.821 0.839 0.87 0.866 0.805 0.852 0.933 0.922 0.871
2440.188 0.881 0.916 0.906 0.949 0.963 0.914 0.914 0.883 0.875 0.894
2459.478 0.903 0.891 0.88 0.913 0.925 0.9908 0.9911 1.0096 1.07022 1.0245
2478.768 0.9977 1.0411 1.12969 1.14632 1.07436 1.07256 1.14952 1.13403 1.11496 1.11615
2498.058 1.10896 1.12764 1.13184 1.182 1.2291 1.2358 1.2354 1.2117 1.2323 1.2439
2517.348 1.2127 1.2725 1.3464 1.3285 1.3206 1.394 1.4174 1.4199 1.4241 1.4389
2536.638 1.4501 1.4043 1.4021 1.436 1.4104 1.353 1.3864 1.4364 1.4181 1.4229
2555.928 1.4966 1.4818 1.4659 1.473 1.4467 1.4582 1.4281 1.4029 1.3776 1.3659
2575.218 1.4473 1.5237 1.5184 1.4603 1.3435 1.2358 1.2867 1.337 1.3265 1.3492
2594.508 1.3372 1.3362 1.3747 1.3767 1.3464 1.3544 1.338 1.375 1.3615 1.2388
2613.798 1.14912 1.1728 1.2221 1.2113 1.1906 1.13581 1.09033 1.0372 1.0137 1.046
2633.088 1.0201 0.9771 0.958 0.953 0.9737 0.947 0.936 0.903 0.774 0.795
2652.378 0.842 0.749 0.759 0.772 0.742 0.755 0.708 0.678 0.691 0.655
2671.668 0.69 0.76 0.733 0.687 0.69 0.726 0.746 0.768 0.85 0.789
2690.958 0.655 0.713 0.802 0.794 0.746 0.654 0.675 0.814 0.806 0.723
2710.248 0.722 0.721 0.714 0.775 0.76 0.716 0.739 0.739 0.743 0.724
2729.538 0.724 0.731 0.759 0.819 0.794 0.779 0.784 0.79 0.906 0.9734
2748.828 0.894 0.847 0.849 0.872 0.924 0.937 1.032 1.07331 1.06653 1.06531
2768.118 1.0107 1.0455 1.10206 1.12823 1.16721 1.2092 1.1921 1.2118 1.3395 1.3652
2787.408 1.2644 1.3181 1.413 1.4665 1.5805 1.6728 1.6923 1.7433 1.9049 2.0486
2806.698 2.16 2.33 2.49 2.68 2.92 3.19 3.49 3.82 4.17 4.62
2825.988 5.17 5.69 6.44 7.3 8.24 9.28 10.3 11.33 12.19 12.62
2845.278 12.57 12.28 11.67 10.75 9.88 9.06 8.29 7.73 7.28 6.98
2864.568 6.76 6.5 6.28 6.18 6.05 5.91 5.92 5.91 5.9 5.96
2883.858 5.96 5.99 6.17 6.28 6.37 6.67 6.91 7.15 7.51 7.75
2903.148 8.07 8.54 8.99 9.42 9.78 10.21 10.74 11.1 11.31 11.62
2922.438 11.98 12.27 12.6 13.12 13.83 14.72 15.82 16.94 18.24 19.49
2941.728 20.4 20.96 21.12 21.03 20.68 20.05 19.26 18.6 18.03 17.33
2961.018 16.63 16 15.34 14.69 13.93 13.17 12.54 11.94 11.35 10.78
2980.308 10.45 10.32 10.16 10.04 10.15 10.38 10.74 11.28 11.95 12.83
2999.598 13.82 14.85 16 16.96 17.62 17.87 17.38 16.32 15 13.45
3018.888 11.89 10.52 9.5 8.78 8.13 7.89 7.87 7.82 7.89 8.13
3038.178 8.42 8.52 8.6 8.82 8.87 8.63 8.42 8.05 7.63 7.42
3057.468 7.14 6.85 6.56 6.13 5.92 5.81 5.55 5.26 4.91 4.67
3076.758 4.43 4.23 4.08 3.82 3.53 3.37 3.27 3.14 2.96 2.77
3096.048 2.56 2.37 2.32 2.3 2.26 2.11 1.9303 1.9467 1.8322 1.6265
3115.338 1.5683 1.5875 1.5272 1.3554 1.329 1.3188 1.2694 1.16431 1.0557 1.0258
3134.628 1.0035 0.869 0.76 0.747 0.774 0.766 0.789 0.844 0.739 0.551
3153.918 0.534 0.604 0.528 0.544 0.583 0.566 0.584 0.589 0.49 0.512
3173.208 0.634 0.614 0.582 0.554 0.573 0.521 0.505 0.512 0.508 0.504
3192.498 0.557 0.663 0.511 0.381 0.453 0.41 0.257 0.309 0.444 0.458
3211.788 0.377 0.386 0.336 0.29 0.375 0.352 0.312 0.258 0.302 0.246
3231.078 0.159 0.216 0.179 0.169 0.24 0.198 0.147 0.236 0.238 0.177
3250.368 0.132 0.108 0.148 0.194 0.199 0.159 0.118 0.223 0.265 0.155
3269.658 0.222 0.205 0.119 0.181 0.231 0.199 0.087 0.124 0.256 0.275
3288.948 0.24 0.183 0.127 0.182 0.25 0.31 0.342 0.28 0.25 0.256
3308.238 0.212 0.271 0.358 0.274 0.298 0.387 0.347 0.381 0.451 0.425
3327.528 0.411 0.416 0.478 0.327 0.134 0.111 0.209 0.293 0.281 0.382
3346.818 0.398 0.43 0.544 0.597 0.55 0.493 0.614 0.707 0.607 0.587
3366.108 0.574 0.649 0.692 0.6 0.532 0.483 0.48 0.535 0.704 0.619
3385.398 0.563 0.697 0.688 0.667 0.666 0.652 0.691 0.689 0.703 0.732
3404.688 0.678 0.694 0.611 0.487 0.519 0.459 0.359 0.385 0.314 0.287
3423.978 0.33 0.339 0.367 0.311 0.211 0.18 0.146 0.083 0.074 0.05
3443.269 0.1 0.156 0.226 0.227 0.109 0.088 0.084 0.203 0.337 0.274
3462.559 0.237 0.301 0.294 0.217 0.197 0.152 0.243 0.362 0.235 0.173
3481.849 0.263 0.253 0.124 0.06 0.124 0.097 0 0.167 0.352 0.301
3501.139 0.254 0.244 0.235 0.305 0.31 0.29 0.281 0.282 0.293 0.264
3520.429 0.274 0.27 0.203 0.203 0.231 0.246 0.275 0.287 0.321 0.282
3539.719 0.214 0.13 0.07 0.179 0.299 0.276 0.179 0.152 0.173 0.182
3559.009 0.264 0.293 0.208 0.112 0.151 0.279 0.274 0.134 0.125 0.208
3578.299 0.177 0.137 0.245 0.349 0.203 0.178 0.256 0.19 0.158 0.189
3597.589 0.187 0.115 0.229 0.352 0.315 0.308 0.254 0.238 0.272 0.264
3616.879 0.236 0.279 0.283 0.251 0.288 0.318 0.213 0.214 0.358 0.452
3636.169 0.381 0.354 0.407 0.337 0.353 0.373 0.383 0.431 0.42 0.349
3655.459 0.37 0.368 0.223 0.097 0.114 0.109 0.173 0.377 0.441 0.339
3674.749 0.273 0.339 0.291 0.11 0.03 0.097 0.228 0.288 0.243 0.201
3694.039 0.273 0.286 0.228 0.214 0.219 0.314 0.432 0.392 0.282 0.249
3713.329 0.236 0.21 0.199 0.101 0.145 0.297 0.215 0.224 0.368 0.38
3732.619 0.382 0.424 0.318 0.24 0.263 0.309 0.396 0.287 0.174 0.207
3751.909 0.284 0.239 0.17 0.3 0.389 0.362 0.308 0.356 0.342 0.341
3771.199 0.401 0.326 0.303 0.332 0.403 0.403 0.269 0.274 0.245 0.219
3790.489 0.221 0.352 0.415 0.218 0.411 0.553 0.488 0.451 0.443 0.45
3809.779 0.349 0.326 0.375 0.331 0.235 0.198 0.192 0.282 0.315 0.279
3829.069 0.299 0.278 0.353 0.411 0.353 0.291 0.378 0.379 0.267 0.264
3848.359 0.24 0.286 0.361 0.466 0.465 0.472 0.522 0.546 0.535 0.505
3867.649 0.403 0.252 0.253 0.425 0.383 0.174 0.255 0.369 0.379 0.428
3886.939 0.313 0.25 0.293 0.325 0.51 0.537 0.264 0.255 0.355 0.285
3906.229 0.268 0.325 0.418 0.371 0.355 0.459 0.432 0.445 0.486 0.412
3925.519 0.414 0.446 0.333 0.206 0.24 0.359 0.468 0.499 0.37 0.347
3944.809 0.453 0.388 0.322 0.366 0.32 0.202 0.26 0.378 0.348 0.276
3964.099 0.411 0.481 0.47 0.577 0.593 0.446 0.444 0.517 0.427 0.46
3983.389 0.624 0.549 0.513 0.52 0.421 0.432 0.476 0.475 0.409 0.412
##END=
