##TITLE=Dibenzylmalonate
##JCAMP-DX=4.24
##DATA TYPE=INFRARED SPECTRUM
##ORIGIN=EPA-IR VAPOR PHASE LIBRARY
##OWNER=SRD/NIST
Collection (C) 2018 copyright by the U.S. Secretary of Commerce
on behalf of the United States of America. All rights reserved.
##CAS REGISTRY NO=15014-25-2
##MOLFORM=C 17 H 16 O 4
##$NIST SOURCE=MSDC-IR
##STATE=gas
##XUNITS=1/CM
##YUNITS=ABSORBANCE
##XFACTOR=1.
##YFACTOR=0.001
##DELTAX=1.92934
##FIRSTX=549.9
##LASTX=3999.5
##FIRSTY=3.42
##MAXX=3999.53
##MINX=549.863
##MAXY=0.10854
##MINY=0
##NPOINTS=1789
##XYDATA=(X++(Y..Y))
549.863 3.42 3.3443 3.41 3.53 3.61 3.86 4 4.19 4.43 4.69
569.156 4.79 5.04 5.37 5.54 5.82 5.96 6.15 6.3 6.38 6.5
588.450 6.5 6.55 6.73 6.84 6.77 6.91 6.95 6.87 6.88 6.78
607.743 6.76 6.76 6.61 6.36 6.15 5.99 5.82 5.65 5.43 5.17
627.037 4.97 4.77 4.64 4.47 4.25 4.11 3.99 3.89 3.79 3.61
646.330 3.57 3.66 3.62 3.67 3.85 3.98 4.21 4.49 4.79 5.24
665.624 6.07 7.61 8.27 8.45 9.51 10.75 12.23 13.77 15.24 16.93
684.917 18.57 20.18 21.91 23.53 24.84 25.53 25.32 24.44 23.26 21.86
704.210 20.57 19.54 18.63 17.93 17.52 17.24 17.19 17.46 17.82 18.07
723.504 18.48 19.07 19.7 20.4 21.27 22.26 23.36 24.55 25.64 26.44
742.797 26.89 26.63 25.65 24.02 21.92 19.62 17.22 15.01 13.04 11.4
762.091 10.08 8.93 7.89 7.06 6.48 6.03 5.63 5.31 5.04 4.82
781.384 4.6 4.41 4.25 4.13 4.08 4.11 4.08 3.98 3.9 3.81
800.678 3.8 3.84 3.83 3.87 3.95 4.13 4.37 4.6 4.88 5.1
819.971 5.24 5.31 5.36 5.42 5.48 5.55 5.49 5.42 5.38 5.3
839.264 5.26 5.21 5.12 5.1 5.01 4.83 4.73 4.65 4.58 4.55
858.558 4.52 4.48 4.46 4.54 4.55 4.54 4.7 4.77 4.76 4.91
877.851 5.12 5.26 5.45 5.63 5.82 6.06 6.29 6.49 6.69 6.84
897.145 7 7.23 7.41 7.51 7.6 7.78 7.91 7.98 8 7.95
916.438 7.84 7.65 7.49 7.27 7.01 6.85 6.78 6.75 6.72 6.74
935.732 6.87 7.1 7.34 7.55 7.79 8.06 8.35 8.7 9.06 9.4
955.025 9.77 10.17 10.63 11.22 11.9 12.66 13.59 14.61 15.75 17.13
974.318 18.68 20.31 21.99 23.76 25.65 27.58 29.53 31.54 33.66 35.81
993.612 37.93 40.04 42.12 44.02 45.55 46.49 46.89 46.67 45.74 44.24
1012.905 42.3 39.93 37.2 34.36 31.47 28.56 25.76 23.2 20.89 18.88
1032.199 17.09 15.51 14.18 13.04 12.07 11.22 10.55 9.94 9.44 9.1
1051.492 8.78 8.55 8.4 8.26 8.24 8.24 8.22 8.3 8.45 8.64
1070.786 8.82 8.99 9.21 9.51 9.83 10.14 10.54 10.97 11.41 11.95
1090.079 12.54 13.19 13.91 14.71 15.65 16.71 17.87 19.18 20.54 22.16
1109.372 23.98 25.95 28.24 30.78 33.66 36.9 40.38 44.15 48.18 52.38
1128.666 56.63 60.84 64.82 68.34 71.2 73.15 74.08 74.04 73.08 71.4
1147.959 69.21 66.71 64.22 61.92 59.86 58.11 56.69 55.58 54.76 54.1
1167.253 53.5 52.97 52.39 51.66 50.8 49.83 48.8 47.79 46.92 46.35
1186.546 46.12 46.13 46.34 46.69 47.19 47.87 48.76 49.88 51.14 52.47
1205.840 53.81 54.98 55.64 55.69 55.29 54.64 53.8 52.96 52.38 51.99
1225.133 51.76 51.7 51.84 52.11 52.44 52.88 53.33 53.77 54.16 54.5
1244.426 54.81 55.01 55.13 55.28 55.45 55.57 55.59 55.58 55.54 55.26
1263.720 54.69 53.93 52.98 51.78 50.42 49.04 47.63 46.14 44.72 43.43
1283.013 42.31 41.32 40.49 39.8 39.25 38.86 38.58 38.37 38.21 38.12
1302.307 38.08 38.15 38.26 38.39 38.6 38.95 39.49 40.09 40.73 41.35
1321.600 41.69 41.59 40.81 39.32 37.15 34.35 31.27 28.18 25.29 22.77
1340.894 20.68 18.97 17.48 16.2 15.1 14.22 13.57 13.11 12.82 12.63
1360.187 12.61 12.73 13.03 13.48 14.13 14.97 15.92 16.82 17.32 17.32
1379.480 16.8 15.73 14.44 13.11 11.92 11.07 10.47 10 9.73 9.58
1398.774 9.39 9.28 9.22 9.17 9.2 9.32 9.51 9.75 9.91 9.89
1418.067 9.69 9.36 9.01 8.51 8 7.6 7.33 7.18 7.13 7.16
1437.361 7.39 7.8 8.2 8.7 9.35 10.03 10.74 11.4 11.96 12.31
1456.654 12.37 12.44 12.32 11.85 11.25 10.56 9.75 8.91 8.09 7.36
1475.948 6.75 6.29 6 5.83 5.82 5.92 6.26 6.77 7.49 8.39
1495.241 9.23 9.76 9.8 9.37 8.53 7.36 6.08 5.15 4.6 4.16
1514.534 3.79 3.56 3.48 3.3626 3.2661 3.3008 3.3348 3.3389 3.2974 3.2365
1533.828 3.1644 3.1106 3.1147 3.0617 3.0141 3.0035 3.027 3.0449 3.0254 3.0352
1553.121 3.0222 3.0483 3.0459 3.0074 3.1385 3.2578 3.2601 3.2773 3.2997 3.3089
1572.415 3.3994 3.4 3.44 3.62 3.72 3.75 3.75 3.8 3.85 3.89
1591.708 3.88 3.88 3.96 3.98 4.01 4.03 4.06 4.06 4.03 4
1611.002 3.91 3.81 3.69 3.5 3.3389 3.2645 3.238 3.1675 3.1463 3.1868
1630.295 3.2031 3.1899 3.1998 3.2442 3.2822 3.2841 3.281 3.3199 3.281 3.2549
1649.588 3.2995 3.2293 3.2272 3.3528 3.44 3.56 3.62 3.6 3.68 3.71
1668.882 3.69 3.76 3.88 3.98 4.14 4.24 4.34 4.46 4.53 4.82
1688.175 5.11 5.31 5.56 5.82 6.12 6.48 6.88 7.41 8 8.6
1707.469 9.25 10.04 10.94 11.9 12.95 14.04 15.24 16.46 17.74 19.14
1726.762 20.71 22.51 24.63 27.14 30.37 34.17 38.44 43.69 49.82 56.94
1746.056 64.9 73.52 82.31 90.93 98.28 103.62 106.94 108.39 108.54 108.16
1765.349 107.37 105.83 103.18 98.89 92.62 84.84 75.74 66.22 57.17 49.23
1784.642 42.57 37.1 32.73 29.06 25.99 23.58 21.54 19.67 18.02 16.52
1803.936 15.17 13.96 12.85 11.81 10.95 10.23 9.56 8.98 8.46 7.93
1823.229 7.47 7.08 6.72 6.39 6.07 5.83 5.64 5.43 5.28 5.1
1842.523 4.94 4.82 4.73 4.67 4.62 4.59 4.53 4.44 4.4 4.36
1861.816 4.33 4.31 4.27 4.24 4.21 4.21 4.2 4.18 4.15 4.09
1881.110 4.1 4.04 3.93 3.85 3.75 3.65 3.56 3.45 3.3664 3.3073
1900.403 3.2392 3.2126 3.1656 3.0834 3.0529 3.0917 3.1357 3.0591 3.0134 3.0658
1919.696 3.1835 3.2598 3.3047 3.3589 3.41 3.45 3.51 3.61 3.66 3.67
1938.990 3.74 3.81 3.85 3.92 3.99 4.05 4.14 4.16 4.16 4.13
1958.283 4.01 3.9 3.72 3.51 3.3456 3.1399 3.0563 2.9942 2.8935 2.8392
1977.577 2.7966 2.7721 2.7521 2.7551 2.782 2.7639 2.7082 2.7 2.7245 2.7224
1996.870 2.7064 2.6669 2.6662 2.6844 2.6533 2.648 2.6585 2.6593 2.6411 2.6198
2016.164 2.6257 2.6349 2.6327 2.6024 2.6105 2.6259 2.5958 2.6063 2.6162 2.6094
2035.457 2.6164 2.628 2.5964 2.5301 2.5178 2.5194 2.48881 2.5051 2.5188 2.5206
2054.750 2.5202 2.4671 2.44424 2.44071 2.45494 2.44429 2.39226 2.3889 2.40946 2.43576
2074.044 2.44918 2.4632 2.44835 2.45119 2.5238 2.5669 2.5676 2.5952 2.6506 2.6729
2093.337 2.7078 2.73 2.7514 2.801 2.8259 2.9014 2.9875 3.085 3.1427 3.1768
2112.631 3.2855 3.42 3.6 3.79 3.98 4.2 4.46 4.74 5.11 5.61
2131.924 6.14 6.77 7.53 8.37 9.3 10.3 11.38 12.47 13.46 14.32
2151.218 14.94 15.14 14.91 14.27 13.18 11.72 10.11 8.46 6.93 5.8
2170.511 5.05 4.53 4.11 3.77 3.48 3.2488 3.062 2.8756 2.7448 2.6539
2189.804 2.6105 2.5646 2.5258 2.46929 2.44157 2.46484 2.4625 2.42732 2.39153 2.39949
2209.098 2.42015 2.43647 2.40642 2.43402 2.47056 2.47578 2.47748 2.4848 2.5059 2.5153
2228.391 2.5477 2.5654 2.587 2.6 2.6444 2.6634 2.6303 2.626 2.6167 2.6136
2247.685 2.6432 2.6585 2.6475 2.6425 2.647 2.6455 2.6289 2.5911 2.5931 2.6058
2266.978 2.6102 2.5852 2.5006 2.49145 2.5225 2.5223 2.48753 2.5095 2.5539 2.5636
2286.272 2.6104 2.6271 2.6477 2.6856 2.7251 2.806 2.8944 2.9868 3.0603 3.171
2305.565 3.3005 3.41 3.52 3.61 3.69 3.8 3.87 3.93 4.02 4.03
2324.858 3.97 3.89 3.9 3.9 3.8 3.73 3.73 3.72 3.7 3.64
2344.152 3.58 3.48 3.3068 3.3544 3.64 3.88 4.08 4.27 4.37 4.4
2363.445 4.44 4.45 4.38 4.27 4.09 3.81 3.59 3.3792 3.1006 2.8295
2382.739 2.6162 2.43786 2.265 2.116 1.998 1.986 1.98 1.936 1.938 1.939
2402.032 1.943 1.937 1.906 1.916 1.928 1.945 1.933 1.899 1.897 1.928
2421.326 1.951 1.917 1.938 1.947 1.899 1.912 1.93 1.921 1.914 1.885
2440.619 1.859 1.849 1.87 1.906 1.889 1.879 1.888 1.882 1.902 1.908
2459.912 1.879 1.853 1.857 1.899 1.911 1.86 1.816 1.83 1.837 1.821
2479.206 1.771 1.772 1.785 1.768 1.774 1.776 1.759 1.711 1.723 1.731
2498.499 1.771 1.792 1.755 1.73 1.697 1.7 1.702 1.675 1.675 1.712
2517.793 1.718 1.717 1.699 1.731 1.777 1.685 1.656 1.704 1.682 1.645
2537.086 1.646 1.673 1.655 1.624 1.631 1.664 1.692 1.671 1.629 1.609
2556.380 1.637 1.666 1.614 1.596 1.665 1.678 1.625 1.604 1.637 1.645
2575.673 1.647 1.673 1.65 1.611 1.626 1.647 1.624 1.629 1.635 1.629
2594.966 1.663 1.646 1.591 1.612 1.67 1.686 1.645 1.63 1.601 1.615
2614.260 1.661 1.641 1.653 1.643 1.567 1.538 1.579 1.589 1.567 1.574
2633.553 1.584 1.561 1.546 1.538 1.552 1.563 1.55 1.542 1.564 1.584
2652.847 1.529 1.51 1.562 1.59 1.556 1.544 1.539 1.547 1.519 1.48
2672.140 1.519 1.546 1.555 1.564 1.598 1.513 1.491 1.552 1.493 1.437
2691.434 1.513 1.494 1.488 1.545 1.509 1.525 1.523 1.519 1.541 1.539
2710.727 1.532 1.56 1.531 1.507 1.506 1.543 1.527 1.504 1.469 1.43
2730.020 1.48 1.488 1.509 1.503 1.471 1.533 1.543 1.515 1.503 1.466
2749.314 1.467 1.442 1.439 1.43 1.39 1.403 1.39 1.34 1.32 1.33
2768.607 1.36 1.413 1.418 1.468 1.545 1.486 1.487 1.508 1.456 1.481
2787.901 1.505 1.456 1.452 1.488 1.501 1.504 1.491 1.465 1.528 1.569
2807.194 1.559 1.6 1.567 1.592 1.684 1.75 1.8 1.805 1.823 1.845
2826.488 1.851 1.863 1.92 1.885 1.853 1.842 1.821 1.765 1.712 1.795
2845.781 1.845 1.812 1.743 1.761 1.794 1.814 1.927 1.993 2.064 2.182
2865.074 2.257 2.3786 2.5285 2.5749 2.638 2.859 3.0984 3.1927 3.3558 3.71
2884.368 3.96 4.13 4.31 4.48 4.78 4.95 4.9 4.96 5.01 4.84
2903.661 4.67 4.6 4.4 4.16 4.04 4.06 4.11 3.9 3.72 3.76
2922.955 3.87 3.94 3.99 4.14 4.37 4.56 4.72 4.94 5.23 5.66
2942.248 6.23 6.69 7.13 7.81 8.6 9.4 10.22 10.99 11.74 12.27
2961.542 12.44 12.29 11.92 11.34 10.63 9.81 8.97 8.33 7.78 7.3
2980.835 6.83 6.34 6.01 5.66 5.38 5.12 4.87 4.78 4.59 4.51
3000.128 4.39 4.23 4.35 4.37 4.36 4.53 4.82 5.14 5.57 6.23
3019.422 6.9 7.61 8.54 9.48 10.5 11.83 13.16 14.18 15.17 16.03
3038.715 16.54 16.69 16.37 15.71 14.69 13.66 12.82 12.1 11.58 11.35
3058.009 11.48 11.97 12.86 14.1 15.55 17.04 18.35 19.15 19.29 18.6
3077.302 17.33 15.72 13.92 12.49 11.39 10.43 9.76 9.25 8.71 8.18
3096.596 7.82 7.46 6.97 6.48 6.15 5.83 5.41 4.95 4.54 4.19
3115.889 3.76 3.3585 3.0053 2.6227 2.258 1.944 1.726 1.516 1.28 1.08
3135.182 0.89 0.84 0.8 0.7 0.61 0.56 0.62 0.67 0.59 0.63
3154.476 0.67 0.54 0.46 0.48 0.6 0.68 0.53 0.46 0.54 0.51
3173.769 0.49 0.52 0.34 0.28 0.38 0.28 0.23 0.31 0.33 0.27
3193.063 0.36 0.45 0.42 0.4 0.32 0.29 0.3 0.32 0.31 0.25
3212.356 0.27 0.35 0.36 0.22 0.21 0.3 0.27 0.21 0.17 0.13
3231.650 0.07 0.11 0.11 0.15 0.16 0.18 0.12 0.07 0.17 0.23
3250.943 0.25 0.17 0.06 0.13 0.18 0.04 0 0.09 0.11 0.1
3270.236 0.1 0.22 0.26 0.18 0.22 0.27 0.3 0.27 0.33 0.3
3289.530 0.2 0.3 0.31 0.2 0.22 0.28 0.31 0.22 0.2 0.32
3308.823 0.23 0.09 0.13 0.12 0.09 0.2 0.24 0.12 0.07 0.25
3328.117 0.45 0.42 0.24 0.15 0.2 0.24 0.21 0.28 0.35 0.34
3347.410 0.4 0.31 0.19 0.24 0.3 0.38 0.4 0.33 0.23 0.26
3366.704 0.43 0.33 0.31 0.51 0.55 0.39 0.29 0.4 0.43 0.34
3385.997 0.3 0.44 0.45 0.4 0.47 0.49 0.45 0.34 0.37 0.52
3405.290 0.54 0.55 0.51 0.42 0.39 0.38 0.49 0.51 0.56 0.65
3424.584 0.64 0.64 0.72 0.64 0.59 0.57 0.47 0.47 0.46 0.49
3443.877 0.65 0.63 0.62 0.73 0.7 0.62 0.67 0.7 0.63 0.68
3463.171 0.73 0.84 0.99 0.93 0.9 1.03 0.96 1.04 1.14 1.19
3482.464 1.31 1.28 1.23 1.27 1.38 1.413 1.432 1.471 1.544 1.603
3501.758 1.674 1.601 1.569 1.783 1.833 1.743 1.666 1.486 1.458 1.38
3521.051 1.27 1.24 1.15 1.29 1.28 1.3 1.35 1.26 1.2 1.16
3540.344 1.22 1.13 0.93 0.87 0.84 0.9 1.05 0.97 0.88 0.93
3559.638 0.87 0.84 0.86 0.85 0.85 0.8 0.87 0.92 0.86 0.91
3578.931 0.84 0.88 0.95 0.89 0.94 1.01 0.95 0.9 0.89 0.91
3598.225 1 1.08 1.05 0.92 0.93 0.99 0.98 1 0.98 0.92
3617.518 1.03 1.12 1.06 1.12 1.11 0.95 0.98 1.16 1.21 1.26
3636.812 1.39 1.403 1.34 1.29 1.34 1.39 1.35 1.38 1.452 1.403
3656.105 1.402 1.522 1.515 1.39 1.34 1.408 1.438 1.39 1.36 1.38
3675.398 1.28 1.16 1.31 1.33 1.23 1.21 1.17 1.23 1.27 1.17
3694.692 1.17 1.28 1.34 1.17 1.16 1.24 1.17 1.21 1.25 1.17
3713.985 1.26 1.39 1.32 1.2 1.21 1.23 1.18 1.06 1.06 1.14
3733.279 1.06 1.07 1.05 1.09 1.07 0.95 1.03 1.06 0.95 0.96
3752.572 1.04 1.06 1.05 1.02 1.04 1.11 1.17 1.2 1.22 1.21
3771.866 1.15 1.12 1.12 1.14 1.17 1.16 1.11 1.11 1.13 1.1
3791.159 1.1 1.13 1.14 1.2 1.13 1.1 1.18 1.14 1.17 1.31
3810.452 1.32 1.19 1.11 1.11 1.13 1.12 1.16 1.17 1.21 1.21
3829.746 1.14 1.22 1.31 1.27 1.21 1.32 1.419 1.37 1.23 1.24
3849.039 1.27 1.17 1.12 1.17 1.28 1.32 1.28 1.29 1.29 1.24
3868.333 1.23 1.22 1.19 1.21 1.36 1.31 1.21 1.29 1.422 1.402
3887.626 1.38 1.37 1.29 1.36 1.35 1.29 1.32 1.33 1.31 1.31
3906.920 1.39 1.415 1.37 1.31 1.36 1.29 1.19 1.27 1.34 1.36
3926.213 1.36 1.419 1.34 1.28 1.35 1.37 1.38 1.433 1.433 1.407
3945.506 1.33 1.33 1.36 1.39 1.412 1.476 1.483 1.417 1.438 1.494
3964.800 1.518 1.426 1.428 1.461 1.36 1.37 1.39 1.33 1.36 1.35
3984.093 1.38 1.465 1.431 1.37 1.33 1.37 1.421 1.37 1.38
##END=
