##TITLE=Diethyl 2-acetylglutarate
##JCAMP-DX=4.24
##DATA TYPE=INFRARED SPECTRUM
##ORIGIN=EPA-IR VAPOR PHASE LIBRARY
##OWNER=SRD/NIST
Collection (C) 2018 copyright by the U.S. Secretary of Commerce
on behalf of the United States of America. All rights reserved.
##CAS REGISTRY NO=1501-06-0
##MOLFORM=C 11 H 18 O 5
##$NIST SOURCE=MSDC-IR
##STATE=gas
##XUNITS=1/CM
##YUNITS=ABSORBANCE
##XFACTOR=1.
##YFACTOR=0.001
##DELTAX=1.92898
##FIRSTX=549.8
##LASTX=4000.7
##FIRSTY=2.74
##MAXX=4000.7
##MINX=549.759
##MAXY=0.18504
##MINY=0.00008029
##NPOINTS=1790
##XYDATA=(X++(Y..Y))
549.759 2.74 2.99 2.86 2.81 2.55 2.28 2.47 2.42 2.27 2.34
569.049 2.37 2.54 2.58 2.52 2.73 2.84 2.72 2.7 2.99 3.33
588.339 3.44 3.65 3.88 3.7 3.59 3.68 3.8 3.88 4 4.01
607.628 3.86 3.8 3.69 3.57 3.31 2.93 2.95 2.92 2.64 2.53
626.918 2.55 2.62 2.54 2.71 2.65 2.35 2.37 2.28 2.19 2.09
646.208 1.99 1.82 1.94 2.08 1.81 1.5 1.38 1.28 1.42 1.59
665.498 1.58 1.72 1.59 1.56 1.77 1.72 1.65 1.63 1.54 1.48
684.787 1.62 1.58 1.44 1.5 1.57 1.64 1.46 1.27 1.38 1.65
704.077 1.72 1.54 1.55 1.57 1.45 1.52 1.55 1.51 1.81 1.93
723.367 1.87 1.95 2.03 2.28 2.2 2.04 2.09 2.04 2.28 2.42
742.657 2.25 2.26 2.32 2.27 2.41 2.53 2.58 2.8 3.03 3.32
761.947 3.54 3.71 3.68 3.67 3.88 4.19 4.33 4.27 4.3 4.46
781.236 4.75 4.77 4.79 4.9 4.87 4.79 4.79 4.99 4.92 4.71
800.526 4.88 4.77 4.59 4.59 4.39 4.17 4.25 4.31 4.31 4.48
819.816 4.42 4.32 4.29 4.23 4.5 4.85 4.99 5.06 5.16 5.43
839.106 5.76 6.08 6.57 6.87 7.15 7.56 8.17 8.7 8.86 8.88
858.395 9 8.85 8.29 7.9 7.55 6.96 6.43 5.95 5.62 5.59
877.685 5.52 5.3 5 4.96 4.88 4.86 4.89 4.85 5.18 5.24
896.975 5.12 5.35 5.41 5.4 5.63 5.79 5.77 5.9 6.28 6.66
916.265 6.86 6.82 6.85 7.1 7.48 7.63 7.51 7.47 7.44 7.57
935.555 7.86 8.06 8.14 8.38 8.63 8.65 8.7 8.75 8.58 8.48
954.844 8.47 8.38 8.22 7.94 7.72 7.62 7.46 7.38 7.56 7.58
974.134 7.38 7.24 7.48 7.73 8.07 8.43 8.47 8.62 8.74 9.01
993.424 9.86 10.88 11.64 12.32 13.1 14.18 15.49 16.93 18.74 20.86
1012.714 23.38 25.92 28.26 30.84 33.7 36.77 39.63 41.87 43.83 45.58
1032.003 47.15 48.54 49.8 50.77 51.43 52.08 52.09 51.73 51.48 50.96
1051.293 49.57 47.94 46.09 43.78 41.6 39.13 37.08 35.65 33.75 32.01
1070.583 30.93 30.01 28.99 28.08 28.11 28.4 28.46 29.3 30.33 31.52
1089.873 32.7 34.12 36.51 38.27 38.71 39.04 38.87 38.26 37.42 36.56
1109.163 36.07 35.03 34.64 35.02 35.4 36.68 38.86 41.47 45.31 49.37
1128.452 53.91 59.73 66.39 73.58 80.74 88.41 96.08 103.9 111.1 116.8
1147.742 121.54 125.3 128.1 130.4 131.89 132.54 132.92 133.15 133.52 133.58
1167.032 133.51 133.65 133.4 132.6 131.68 131 130.38 129.28 127.78 126.43
1186.322 124.22 121.05 118.33 115.9 113.27 110.36 107.47 104.92 102.78 100.68
1205.611 98.41 96.62 95.31 94.82 94.54 94.13 93.89 93.47 93.01 92.95
1224.901 93.07 93.07 93.25 93.5 93.4 93.36 93.31 92.82 92.45 91.64
1244.191 90.24 89.07 87.86 86.26 84.22 81.91 79.58 77.12 74.6 71.93
1263.481 69.4 67 64.59 62.12 59.61 57.33 55.25 53.38 51.3 49.43
1282.771 47.94 46.39 45.03 44.03 43.25 42.7 42.37 42.23 42.28 42.4
1302.060 42.69 42.99 43.18 43.28 43.34 43.26 42.94 42.6 42.17 41.48
1321.350 40.65 39.68 38.58 37.49 36.42 35.38 34.3 33.38 32.73 32.34
1340.640 32.15 32.25 32.72 33.51 34.58 35.98 37.67 39.52 41.47 43.28
1359.930 44.91 46.31 47.48 48.53 49.21 49.34 48.88 47.64 45.51 42.57
1379.219 39.03 35.37 31.82 28.62 26 23.96 22.39 21.16 20.16 19.32
1398.509 18.61 17.93 17.3 16.76 16.31 15.93 15.65 15.56 15.56 15.63
1417.799 15.83 16.17 16.55 16.95 17.44 17.93 18.38 18.89 19.4 19.82
1437.089 20.19 20.62 21.06 21.48 21.81 21.91 21.88 21.68 21.17 20.47
1456.378 19.71 19.02 18.47 18.02 17.79 17.66 17.49 17.16 16.6 15.96
1475.668 15.21 14.24 13.22 12.14 11.11 10.24 9.4 8.6 7.95 7.41
1494.958 6.96 6.64 6.27 5.87 5.63 5.38 5.15 5.04 4.91 4.76
1514.248 4.57 4.41 4.3 4.23 4.23 4.24 4.13 4.02 4 3.99
1533.538 4 3.99 3.91 3.79 3.78 3.74 3.65 3.62 3.69 3.73
1552.827 3.64 3.58 3.52 3.46 3.44 3.46 3.38 3.28 3.26 3.31
1572.117 3.4 3.36 3.3 3.3 3.32 3.34 3.25 3.27 3.32 3.25
1591.407 3.18 3.25 3.31 3.27 3.3 3.31 3.32 3.29 3.29 3.36
1610.697 3.42 3.47 3.45 3.49 3.49 3.47 3.54 3.57 3.56 3.59
1629.986 3.67 3.74 3.84 3.9 3.98 4.1 4.25 4.41 4.53 4.73
1649.276 4.88 5 5.27 5.6 5.96 6.31 6.81 7.38 7.92 8.48
1668.566 9.2 10.17 11.23 12.44 13.9 15.41 17.03 18.58 20.03 21.36
1687.856 22.44 23.35 24.16 24.75 25.25 25.92 26.76 28 29.62 31.85
1707.146 34.77 38.43 42.88 48.25 54.67 62.19 71.07 80.57 90.81 101.36
1726.435 111.67 121.11 129.18 135.44 140.28 144.32 148.03 152.41 157.63 164.02
1745.725 170.92 177.38 182.32 185.04 184.57 180.42 172.57 161.86 148.6 133.8
1765.015 118.66 103.73 89.3 76.35 64.64 54.75 46.56 39.89 34.36 29.76
1784.305 26.11 23.07 20.51 18.27 16.43 14.94 13.68 12.53 11.44 10.44
1803.594 9.64 8.97 8.36 7.82 7.28 6.75 6.35 5.99 5.65 5.35
1822.884 5.05 4.82 4.59 4.36 4.14 4 3.84 3.64 3.54 3.44
1842.174 3.31 3.19 3.08 3.01 2.93 2.86 2.82 2.67 2.63 2.7
1861.464 2.71 2.69 2.65 2.6 2.66 2.68 2.61 2.62 2.61 2.58
1880.754 2.59 2.64 2.62 2.58 2.57 2.52 2.5 2.49 2.43 2.45
1900.043 2.44 2.4 2.36 2.26 2.13 2.12 2.16 2.16 2.16 2.1
1919.333 2.01 1.98 2 1.96 1.9 1.92 1.92 1.87 1.83 1.85
1938.623 1.86 1.79 1.78 1.84 1.9 1.86 1.81 1.78 1.8 1.8
1957.913 1.75 1.73 1.76 1.74 1.69 1.7 1.74 1.7 1.72 1.77
1977.202 1.78 1.78 1.77 1.76 1.76 1.77 1.82 1.83 1.78 1.75
1996.492 1.81 1.87 1.85 1.87 1.9 1.96 1.95 1.85 1.85 1.94
2015.782 1.93 1.89 1.93 1.93 1.87 1.8 1.82 1.93 1.97 1.91
2035.072 1.92 1.99 1.98 1.93 1.95 1.96 1.91 1.95 2.07 2.09
2054.362 2.09 2.1 2.11 2.15 2.18 2.25 2.28 2.33 2.42 2.49
2073.651 2.59 2.67 2.72 2.91 3.18 3.41 3.65 4 4.46 4.95
2092.941 5.65 6.5 7.49 8.68 10.06 11.6 13.36 15.31 17.34 19.34
2112.231 21.07 22.57 23.68 24.23 24.07 23.15 21.68 19.66 17.26 14.74
2131.521 12.17 9.88 8 6.49 5.28 4.37 3.77 3.31 2.91 2.56
2150.810 2.31 2.14 1.99 1.87 1.83 1.77 1.61 1.49 1.38 1.29
2170.100 1.29 1.3 1.27 1.18 1.09 1.1 1.12 1.15 1.11 1.03
2189.390 1.02 0.9624 0.9752 0.9938 0.9547 1.02 1.1 1.01 0.8855 0.8919
2208.680 0.9986 1.01 0.9868 1.02 0.9668 0.9265 0.9633 0.9317 0.8207 0.8548
2227.970 0.9462 1.04 1.04 0.9671 0.9818 1.01 0.9803 0.9437 0.9787 1
2247.259 0.9574 0.9547 1.02 1.05 1.02 0.9638 0.9627 1.03 1.02 0.9714
2266.549 1.04 1.05 0.9925 1.04 1.03 1.01 1.11 1.09 1.03 1.07
2285.839 1.13 1.18 1.21 1.24 1.3 1.32 1.37 1.46 1.48 1.49
2305.129 1.54 1.56 1.69 1.73 1.67 1.72 1.74 1.79 1.83 1.78
2324.418 1.79 1.84 1.84 1.83 1.82 1.81 1.74 1.68 1.76 1.71
2343.708 1.67 1.66 1.56 1.54 1.62 1.69 1.78 1.94 1.95 1.91
2362.998 1.94 1.97 2 1.94 1.78 1.71 1.64 1.52 1.39 1.35
2382.288 1.32 1.23 1.14 1.02 1 1 0.9479 0.8929 0.9086 0.9158
2401.578 0.9154 0.9268 0.8996 0.9098 0.9291 0.948 0.9495 0.9219 0.9173 0.9243
2420.867 0.9426 0.9757 1.03 1 0.9662 0.9917 0.9251 0.9153 0.9013 0.889
2440.157 0.939 0.9029 0.9033 0.9608 0.9358 0.8833 0.8001 0.7561 0.7482 0.7887
2459.447 0.8645 0.859 0.8086 0.7532 0.7998 0.8399 0.8789 0.8255 0.7086 0.6809
2478.737 0.7502 0.8138 0.8263 0.8021 0.7737 0.7704 0.7009 0.6706 0.6399 0.5975
2498.026 0.6155 0.6169 0.6179 0.675 0.7304 0.6797 0.6669 0.7449 0.7165 0.6491
2517.316 0.6769 0.6789 0.5915 0.6014 0.6716 0.6609 0.6542 0.6282 0.5853 0.6219
2536.606 0.6928 0.7065 0.7074 0.7583 0.7398 0.6869 0.6783 0.6646 0.5579 0.4963
2555.896 0.5506 0.591 0.5665 0.5688 0.5563 0.4892 0.4509 0.5325 0.5743 0.5857
2575.186 0.6357 0.5504 0.4997 0.6157 0.7148 0.6334 0.6483 0.6845 0.6802 0.6494
2594.475 0.5234 0.5396 0.6644 0.6565 0.6545 0.6699 0.6341 0.7075 0.7526 0.7284
2613.765 0.653 0.5808 0.6147 0.678 0.7716 0.6908 0.5782 0.6307 0.61 0.6109
2633.055 0.6909 0.6679 0.6658 0.6789 0.6541 0.6918 0.6277 0.6294 0.6859 0.6973
2652.345 0.6548 0.5925 0.5679 0.5533 0.5461 0.5817 0.6407 0.6226 0.7242 0.7954
2671.634 0.7474 0.7126 0.7536 0.822 0.7647 0.7976 0.8701 0.8298 0.75 0.7069
2690.924 0.6626 0.6409 0.6944 0.6556 0.6686 0.6972 0.7376 0.8173 0.7814 0.7811
2710.214 0.7741 0.7578 0.759 0.838 0.9231 0.8449 0.8227 0.9225 0.9961 0.9617
2729.504 0.9312 1.02 1.03 0.9718 0.9763 1.05 1.15 1.15 1.15 1.21
2748.794 1.28 1.25 1.15 1.25 1.25 1.13 1.16 1.24 1.35 1.4
2768.083 1.35 1.35 1.5 1.63 1.55 1.56 1.68 1.65 1.62 1.66
2787.373 1.67 1.71 1.71 1.7 1.71 1.75 1.85 1.93 1.94 1.92
2806.663 2.03 2.11 2.07 2.15 2.22 2.27 2.42 2.45 2.44 2.49
2825.953 2.54 2.7 2.83 3.01 3.05 3.12 3.3 3.29 3.48 3.58
2845.242 3.58 3.83 4.05 4.15 4.3 4.52 4.67 4.87 5.33 5.59
2864.532 5.88 6.25 6.52 7.06 7.58 7.99 8.46 9.1 9.75 10.34
2883.822 10.79 11.04 11.36 11.46 11.37 11.54 11.78 12.06 12.49 13.06
2903.112 13.62 14.16 14.78 15.38 16.12 16.84 17.34 17.7 18.07 18.45
2922.401 18.98 19.59 20.4 21.4 22.52 23.86 25.41 27.12 29.08 31
2941.691 32.42 33.39 33.76 33.49 32.92 31.96 30.81 29.94 29.52 29.45
2960.981 29.68 30.3 31.18 32.24 33.57 35.1 36.91 39.12 41.86 45.19
2980.271 48.63 51.73 53.84 54.46 53.45 50.99 47.39 43.41 39.54 36
2999.561 33.21 30.68 28.38 26.4 24.43 22.53 20.76 19.09 17.42 16.06
3018.850 14.73 13.27 12.15 11.18 10.18 9.28 8.59 7.87 7.09 6.51
3038.140 6.03 5.64 5.35 4.99 4.69 4.43 4.23 3.99 3.77 3.71
3057.430 3.63 3.4 3.25 3.24 3.19 3.04 2.88 2.84 2.85 2.92
3076.720 2.83 2.63 2.65 2.63 2.53 2.43 2.26 2.31 2.38 2.31
3096.009 2.29 2.23 2.08 2.03 2.09 2.07 2.02 1.97 1.89 1.88
3115.299 1.92 1.92 1.98 1.99 1.79 1.61 1.56 1.62 1.6 1.52
3134.589 1.59 1.66 1.57 1.44 1.31 1.24 1.24 1.26 1.31 1.24
3153.879 1.12 1.03 1.15 1.23 1.11 1.13 1.25 1.13 1.01 1.09
3173.169 1.12 1.07 1.02 1.08 1.09 0.9636 0.7725 0.7258 0.9332 1.05
3192.458 0.8526 0.7225 0.8138 0.9561 0.949 0.7822 0.7875 0.8786 0.8639 0.7399
3211.748 0.6747 0.6346 0.7045 0.8563 0.7493 0.5736 0.4942 0.5709 0.6324 0.6311
3231.038 0.7228 0.7313 0.5988 0.5936 0.5856 0.4501 0.4375 0.4264 0.3991 0.3968
3250.328 0.3227 0.4049 0.5079 0.3417 0.3227 0.3313 0.2494 0.3377 0.3963 0.3804
3269.617 0.2823 0.2939 0.3448 0.3001 0.3152 0.466 0.4761 0.3502 0.3751 0.3441
3288.907 0.243 0.2057 0.2665 0.4569 0.4957 0.4875 0.4517 0.3311 0.3445 0.2752
3308.197 0.1608 0.3946 0.5383 0.3838 0.3012 0.3189 0.4249 0.5053 0.5575 0.4497
3327.487 0.4439 0.5158 0.4552 0.3657 0.3629 0.4053 0.423 0.5437 0.5656 0.4656
3346.777 0.4946 0.5513 0.5839 0.4791 0.3646 0.4065 0.3483 0.3432 0.4359 0.5886
3366.066 0.4981 0.3739 0.5036 0.571 0.6644 0.5934 0.4574 0.53 0.6545 0.7114
3385.356 0.6766 0.6932 0.6172 0.5312 0.5557 0.5625 0.626 0.6717 0.6077 0.5998
3404.646 0.6404 0.6432 0.8181 0.8444 0.6455 0.6907 0.8146 0.9009 1.07 1.03
3423.936 1.09 1.19 1.03 1.1 1.4 1.35 1.23 1.44 1.66 1.53
3443.225 1.46 1.63 1.77 1.83 1.81 1.99 2.01 2.01 2.15 2.21
3462.515 2.22 2.23 2.33 2.32 2.17 2.11 2.14 2.05 2.03 2.04
3481.805 2.04 2.09 1.99 1.93 1.94 1.83 1.68 1.51 1.55 1.62
3501.095 1.49 1.41 1.35 1.31 1.15 1.02 1.06 0.9993 0.8241 0.8663
3520.385 0.8954 0.7222 0.6532 0.4928 0.4257 0.5663 0.5859 0.5283 0.4788 0.5448
3539.674 0.5596 0.4083 0.3737 0.388 0.4198 0.3599 0.3815 0.344 0.3128 0.4245
3558.964 0.3673 0.3344 0.2871 0.3313 0.3218 0.401 0.5183 0.3547 0.3247 0.352
3578.254 0.4507 0.4728 0.4303 0.4468 0.302 0.1827 0.1735 0.2051 0.2166 0.2457
3597.544 0.3304 0.3893 0.314 0.2796 0.3381 0.3789 0.4374 0.5093 0.3957 0.3813
3616.833 0.4736 0.4085 0.3328 0.2001 0.2165 0.3819 0.3945 0.3907 0.4929 0.3953
3636.123 0.3135 0.294 0.2387 0.3082 0.3013 0.3863 0.5144 0.4385 0.3607 0.4551
3655.413 0.4866 0.3391 0.3765 0.4674 0.416 0.5799 0.6549 0.5861 0.5917 0.4297
3674.703 0.4259 0.4055 0.3734 0.5419 0.4991 0.418 0.3163 0.3013 0.4125 0.4765
3693.993 0.5579 0.5407 0.4785 0.4326 0.392 0.3758 0.4089 0.2897 0.1432 0.08029
3713.282 0.09181 0.2716 0.396 0.2322 0.2126 0.3572 0.318 0.3462 0.3437 0.2856
3732.572 0.3022 0.3042 0.2797 0.3099 0.2344 0.2421 0.44 0.5104 0.5891 0.4658
3751.862 0.2924 0.3341 0.34 0.2566 0.2566 0.297 0.4032 0.4484 0.3224 0.3274
3771.152 0.3502 0.3132 0.3455 0.4936 0.4214 0.2685 0.2874 0.2807 0.4124 0.4506
3790.441 0.3308 0.3891 0.4195 0.415 0.3952 0.3866 0.422 0.3754 0.2558 0.1812
3809.731 0.3296 0.4747 0.3786 0.2073 0.2491 0.3471 0.2188 0.2013 0.4017 0.3677
3829.021 0.279 0.3464 0.2486 0.2503 0.4149 0.203 0.1148 0.3043 0.2877 0.4048
3848.311 0.4093 0.2062 0.1696 0.1661 0.2145 0.2996 0.2833 0.3089 0.4336 0.5525
3867.601 0.4153 0.3187 0.5047 0.5111 0.4787 0.4016 0.4284 0.4887 0.4449 0.3674
3886.890 0.2171 0.2659 0.3655 0.3663 0.4427 0.474 0.3211 0.3674 0.4431 0.3854
3906.180 0.307 0.3224 0.4314 0.4758 0.4431 0.3686 0.3825 0.374 0.3703 0.4809
3925.470 0.3786 0.3194 0.4474 0.3818 0.5573 0.5796 0.3459 0.3859 0.4053 0.4377
3944.760 0.3969 0.3131 0.3173 0.3224 0.3607 0.4469 0.4095 0.3647 0.4616 0.3582
3964.049 0.3244 0.3678 0.4325 0.5811 0.4607 0.4615 0.6462 0.6425 0.5672 0.4578
3983.339 0.3174 0.3772 0.5528 0.5187 0.4596 0.4903 0.4958 0.482 0.5351 0.5235
##END=
