##TITLE=Diallyl carbonate
##JCAMP-DX=4.24
##DATA TYPE=INFRARED SPECTRUM
##ORIGIN=NIST Mass Spectrometry Data Center
##OWNER=NIST Standard Reference Data Program
Collection (C) 2018 copyright by the U.S. Secretary of Commerce
on behalf of the United States of America. All rights reserved.
##CAS REGISTRY NO=15022-08-9
##MOLFORM=C 7 H 10 O 3
##$NIST SOURCE=MSDC-IR
##SPECTROMETER/DATA SYSTEM=HP-GC/MS/IRD
##STATE=gas
##XUNITS=1/CM
##YUNITS=ABSORBANCE
##XFACTOR=1.0
##YFACTOR=0.000012800
##DELTAX=4.0
##FIRSTX=550.0
##LASTX=3846.0
##FIRSTY=0.000614
##MAXX=3846
##MINX=550
##MAXY=0.128
##MINY=0
##NPOINTS=825
##XYDATA=(X++(Y..Y))
550.0 48 51 36 22 12 7 5 3 0 3
590.0 6 7 4 9 16 19 25 25 24 29
630.0 27 25 31 34 38 41 39 40 40 44
670.0 46 39 35 36 32 30 27 17 15 20
710.0 15 15 14 12 13 17 19 18 17 17
750.0 18 20 28 37 52 72 96 125 153 180
790.0 206 218 214 194 169 141 115 90 78 71
830.0 63 58 53 57 66 72 80 91 104 118
870.0 136 157 183 217 259 307 361 423 491 554
910.0 617 691 775 878 986 1062 1080 1037 954 882
950.0 866 933 1104 1384 1731 2054 2227 2181 1937 1578
990.0 1226 974 815 707 630 570 518 468 419 371
1030.0 334 301 270 250 243 246 251 265 281 298
1070.0 314 324 326 315 295 272 247 223 205 191
1110.0 183 176 172 168 166 167 169 170 175 184
1150.0 198 212 228 239 250 260 274 299 339 399
1190.0 478 581 721 890 1083 1288 1497 1729 2014 2416
1230.0 3024 3946 5264 6929 8628 9802 10000 9150 7544 5837
1270.0 4618 3887 3346 2852 2433 2133 1905 1695 1436 1084
1310.0 766 568 453 380 334 305 290 289 301 329
1350.0 372 432 516 637 803 977 1096 1133 1070 907
1390.0 722 572 454 371 327 309 306 306 307 306
1430.0 307 314 330 361 402 446 473 467 428 362
1470.0 289 226 180 148 124 108 96 86 80 77
1510.0 73 68 65 65 67 66 66 66 65 64
1550.0 66 70 74 75 77 79 81 85 84 83
1590.0 81 79 78 76 74 74 75 77 81 90
1630.0 101 116 134 151 161 162 154 137 121 109
1670.0 101 97 95 99 106 113 125 139 155 171
1710.0 193 220 253 294 351 437 568 761 1034 1399
1750.0 1845 2321 2724 2954 2987 2816 2475 2085 1736 1442
1790.0 1205 1001 777 558 391 285 220 182 158 141
1830.0 130 120 113 107 104 103 103 104 104 100
1870.0 94 84 72 63 56 48 44 40 36 33
1910.0 31 30 27 28 27 26 27 27 26 25
1950.0 25 26 26 27 28 28 27 26 25 26
1990.0 26 24 25 25 25 24 23 22 23 23
2030.0 21 19 20 19 20 19 19 20 21 21
2070.0 20 20 19 19 18 17 16 18 19 20
2110.0 19 19 20 20 21 24 26 28 29 30
2150.0 29 28 27 27 29 29 30 30 29 28
2190.0 27 26 27 27 26 24 23 23 20 18
2230.0 18 19 20 19 17 16 15 15 16 16
2270.0 15 16 17 18 18 20 23 25 29 33
2310.0 36 39 43 44 46 48 47 45 44 41
2350.0 42 48 53 56 56 53 44 35 26 20
2390.0 17 15 15 14 13 14 13 12 12 12
2430.0 11 12 10 8 9 11 12 11 11 12
2470.0 13 12 11 11 10 10 9 7 8 7
2510.0 6 5 5 5 6 6 5 5 6 5
2550.0 3 4 3 1 0 2 4 3 0 0
2590.0 2 2 2 3 5 4 4 5 6 6
2630.0 8 10 7 5 7 8 6 5 7 8
2670.0 7 6 7 8 8 9 8 8 8 7
2710.0 8 10 11 12 12 14 16 16 15 13
2750.0 11 11 12 12 13 11 12 12 12 14
2790.0 15 16 17 19 21 24 25 25 26 28
2830.0 28 30 33 34 35 35 37 43 47 53
2870.0 62 76 88 103 117 127 139 145 144 137
2910.0 134 131 132 138 152 172 205 248 292 344
2950.0 397 444 462 449 410 358 311 283 268 263
2990.0 266 268 265 253 237 225 216 217 220 215
3030.0 202 181 152 124 107 99 94 92 96 106
3070.0 120 136 156 178 205 238 263 269 255 217
3110.0 173 134 99 75 59 47 38 31 28 27
3150.0 26 24 21 18 17 17 18 18 15 15
3190.0 12 11 13 12 11 10 11 11 10 6
3230.0 8 6 6 9 8 4 4 6 6 5
3270.0 4 5 6 4 4 2 0 3 4 3
3310.0 5 6 7 10 9 6 6 5 6 7
3350.0 10 11 7 3 2 2 6 9 7 7
3390.0 4 1 1 4 7 9 8 7 8 6
3430.0 5 3 6 9 7 6 5 6 7 10
3470.0 12 12 11 11 13 15 18 18 18 21
3510.0 22 21 20 17 17 18 11 11 12 10
3550.0 12 11 10 7 7 7 8 9 3 0
3590.0 4 7 4 1 0 0 1 3 5 5
3630.0 3 6 7 6 5 6 4 1 3 7
3670.0 6 5 8 5 3 6 4 3 3 4
3710.0 8 9 7 3 3 7 7 6 8 6
3750.0 9 8 5 7 6 4 2 6 6 4
3790.0 0 0 4 5 2 4 7 7 4 4
3830.0 6 6 7 7 8
##END=
