##TITLE=Cyclododecylamine
##JCAMP-DX=4.24
##DATA TYPE=INFRARED SPECTRUM
##ORIGIN=NIST Mass Spectrometry Data Center
##OWNER=NIST Standard Reference Data Program
Collection (C) 2018 copyright by the U.S. Secretary of Commerce
on behalf of the United States of America. All rights reserved.
##CAS REGISTRY NO=1502-03-0
##MOLFORM=C 12 H 25 N
##$NIST SOURCE=MSDC-IR
##SPECTROMETER/DATA SYSTEM=HP-GC/MS/IRD
##STATE=gas
##XUNITS=1/CM
##YUNITS=ABSORBANCE
##XFACTOR=1.0
##YFACTOR=0.000054900
##DELTAX=4.0
##FIRSTX=550.0
##LASTX=3846.0
##FIRSTY=0.003733
##MAXX=3846
##MINX=550
##MAXY=0.549
##MINY=0
##NPOINTS=825
##XYDATA=(X++(Y..Y))
550.0 68 53 0 16 20 28 33 34 30 22
590.0 15 10 5 2 3 5 6 7 10 13
630.0 18 22 26 30 35 41 48 55 62 70
670.0 81 92 109 131 158 190 221 247 275 312
710.0 360 407 443 462 463 454 448 452 464 482
750.0 510 546 589 641 701 764 832 893 941 962
790.0 946 891 811 721 629 547 473 408 355 308
830.0 270 241 215 193 174 156 141 129 117 106
870.0 97 87 79 70 64 60 57 55 56 55
910.0 52 49 46 42 41 42 45 49 54 58
950.0 61 60 57 54 51 48 47 46 47 46
990.0 48 53 61 73 87 101 111 117 120 120
1030.0 120 126 133 138 138 133 120 103 85 74
1070.0 68 67 72 79 85 92 100 106 109 111
1110.0 112 108 99 86 72 60 50 43 39 37
1150.0 38 40 44 48 50 51 50 50 52 56
1190.0 61 65 68 72 76 80 81 83 84 83
1230.0 85 86 88 90 92 92 90 87 88 89
1270.0 90 92 95 100 107 116 127 140 151 161
1310.0 165 163 159 159 166 183 214 257 305 339
1350.0 350 337 310 283 263 246 224 196 165 133
1390.0 105 86 77 73 75 79 83 91 103 126
1430.0 171 255 402 597 775 879 897 866 845 859
1470.0 854 729 544 382 254 174 129 104 88 78
1510.0 68 62 57 53 50 48 47 46 45 46
1550.0 47 49 53 57 61 67 74 84 94 109
1590.0 128 155 188 232 284 342 391 415 406 361
1630.0 297 231 172 128 95 74 57 44 35 28
1670.0 23 19 15 13 10 8 6 6 5 4
1710.0 3 4 3 2 3 3 2 3 4 4
1750.0 3 3 4 4 3 4 4 3 3 4
1790.0 5 4 5 5 4 4 5 5 4 4
1830.0 4 4 3 3 3 3 2 3 3 2
1870.0 1 2 2 1 2 2 1 2 0 2
1910.0 0 1 0 0 1 0 0 1 1 1
1950.0 1 2 1 1 2 3 3 2 3 4
1990.0 5 6 5 5 6 5 6 5 6 5
2030.0 6 6 5 6 5 6 6 5 6 5
2070.0 6 5 6 5 5 5 4 3 4 3
2110.0 4 5 4 6 5 4 5 6 6 5
2150.0 6 5 6 7 6 4 5 4 5 4
2190.0 3 3 4 3 4 4 5 5 6 7
2230.0 7 8 8 9 9 10 9 10 9 10
2270.0 9 10 9 8 7 8 7 8 7 7
2310.0 7 6 7 6 7 8 8 6 6 5
2350.0 6 7 6 7 8 7 7 8 7 7
2390.0 8 7 8 7 8 9 9 8 7 8
2430.0 7 8 9 9 9 10 9 10 11 11
2470.0 12 12 13 14 15 17 18 19 20 22
2510.0 24 26 27 29 31 33 34 35 36 36
2550.0 37 38 38 39 40 41 43 44 45 47
2590.0 48 50 52 55 58 61 64 67 70 74
2630.0 79 82 88 93 100 106 113 121 129 138
2670.0 145 150 154 153 151 147 142 135 130 125
2710.0 121 119 118 119 120 122 124 125 126 128
2750.0 130 132 133 135 137 141 148 156 168 181
2790.0 196 213 231 252 277 306 340 380 425 479
2830.0 550 651 808 1068 1499 2126 2807 3338 3638 3702
2870.0 3617 3442 3156 2824 2546 2423 2541 2979 3704 4614
2910.0 5565 6224 6820 7679 8675 9591 10000 9699 8799 7516
2950.0 6147 4907 3833 2942 2268 1788 1454 1208 1000 812
2990.0 648 517 419 348 296 257 227 201 177 156
3030.0 137 123 110 98 89 81 75 69 65 61
3070.0 58 55 54 52 50 49 48 46 45 44
3110.0 42 43 42 41 41 40 40 39 40 39
3150.0 38 38 37 36 35 35 33 32 32 33
3190.0 33 34 35 35 34 32 31 31 30 28
3230.0 27 25 24 22 20 19 19 18 18 17
3270.0 16 15 15 16 15 14 15 16 16 20
3310.0 23 28 37 45 52 56 56 51 44 35
3350.0 27 21 18 16 15 14 13 14 13 13
3390.0 14 15 14 14 13 12 11 11 10 9
3430.0 10 9 8 7 6 6 5 6 5 4
3470.0 5 4 5 4 5 4 5 4 3 4
3510.0 3 4 3 2 3 2 3 2 3 2
3550.0 3 4 3 4 5 6 5 6 7 6
3590.0 6 7 8 10 11 10 10 11 12 13
3630.0 14 15 14 12 14 14 13 12 12 13
3670.0 13 14 13 12 13 14 14 13 14 13
3710.0 12 13 13 12 12 13 13 12 11 12
3750.0 12 10 12 13 12 13 12 11 12 12
3790.0 11 12 14 15 15 14 15 16 15 14
3830.0 15 16 17 16 15
##END=
