##TITLE=4-Cyanobenzophenone
##JCAMP-DX=4.24
##DATA TYPE=INFRARED SPECTRUM
##ORIGIN=EPA-IR VAPOR PHASE LIBRARY
##OWNER=SRD/NIST
Collection (C) 2018 copyright by the U.S. Secretary of Commerce
on behalf of the United States of America. All rights reserved.
##CAS REGISTRY NO=1503-49-7
##MOLFORM=C 14 H 9 N O
##$NIST SOURCE=MSDC-IR
##STATE=gas
##XUNITS=1/CM
##YUNITS=ABSORBANCE
##XFACTOR=1.
##YFACTOR=0.001
##DELTAX=1.92898
##FIRSTX=549.8
##LASTX=4000.7
##FIRSTY=4.437
##MAXX=4000.7
##MINX=549.759
##MAXY=0.141407
##MINY=0
##NPOINTS=1790
##XYDATA=(X++(Y..Y))
549.759 4.437 4.377 5.007 3.997 2.867 2.797 2.637 2.677 2.377 2.827
569.049 3.817 3.667 3.747 4.247 4.787 5.607 6.627 8.117 9.707 10.897
588.339 11.137 10.797 9.857 8.347 7.137 6.237 5.537 5.187 4.687 4.277
607.628 3.877 3.607 3.987 4.157 4.287 4.387 4.517 4.067 3.247 3.247
626.918 2.987 3.017 3.657 4.037 4.297 4.617 5.247 5.587 5.607 5.417
646.208 5.557 6.027 5.857 5.767 6.277 6.537 6.707 7.617 9.317 11.157
665.498 13.167 16.067 19.437 22.967 26.527 28.977 30.497 31.877 32.497 32.857
684.787 34.307 36.607 39.517 42.887 46.637 50.187 52.007 51.347 48.477 43.917
704.077 38.547 33.177 28.007 23.577 19.837 16.927 14.887 13.587 12.557 11.627
723.367 11.387 11.447 11.617 12.387 13.767 15.427 16.907 18.237 19.157 18.637
742.657 17.187 15.747 14.247 12.427 10.677 9.127 8.257 7.657 7.057 7.277
761.947 7.317 7.197 7.447 7.897 8.187 8.287 8.737 9.117 9.217 9.817
781.236 10.237 10.137 10.107 10.217 10.437 9.997 9.127 8.647 8.107 7.187
800.526 6.717 6.657 6.497 5.857 5.557 5.717 5.807 5.207 5.267 5.617
819.816 5.627 6.377 6.657 6.907 7.317 7.917 8.917 10.367 11.967 13.837
839.106 16.407 19.087 21.467 23.567 25.657 26.797 27.197 26.647 24.187 21.077
858.395 17.987 14.997 12.417 10.217 8.397 7.127 6.207 5.817 5.447 4.957
877.685 4.847 4.907 4.967 4.987 5.067 5.047 5.137 5.397 5.897 5.997
896.975 6.367 7.187 8.037 9.217 10.787 12.937 15.497 19.567 24.427 29.417
916.265 35.267 41.147 45.227 48.147 50.447 51.397 51.807 52.317 52.977 52.357
935.555 49.737 45.217 38.697 31.417 24.167 18.117 14.357 11.857 10.127 8.637
954.844 7.607 6.987 6.197 5.977 6.157 6.077 6.127 6.187 5.997 6.137
974.134 5.677 4.847 4.377 3.697 2.897 2.607 2.777 2.887 2.997 3.257
993.424 3.757 4.997 5.917 5.687 5.647 5.997 5.797 4.807 3.787 3.637
1012.714 4.207 4.917 6.397 7.747 8.167 8.227 8.037 7.447 6.347 5.457
1032.003 4.797 3.507 2.717 2.207 1.627 1.767 1.557 1.247 1.937 2.267
1051.293 1.877 1.987 2.207 2.687 3.277 3.767 3.797 3.177 3.527 3.777
1070.583 3.307 3.797 4.357 4.197 4.097 4.127 3.787 4.187 4.317 3.587
1089.873 3.827 3.847 3.527 4.247 4.177 3.507 3.017 3.137 4.347 4.587
1109.163 4.267 4.357 4.987 5.477 4.587 4.467 4.757 4.247 3.807 3.537
1128.452 4.027 4.607 5.397 6.227 5.997 6.577 7.177 6.467 6.187 6.107
1147.742 6.057 6.077 6.027 5.887 5.427 5.077 5.687 6.817 8.237 9.727
1167.032 11.017 13.377 16.177 18.797 21.877 23.457 23.177 22.557 19.687 15.487
1186.322 12.327 9.027 6.737 6.017 5.837 5.747 5.677 6.047 5.697 6.327
1205.611 7.987 8.087 7.577 7.367 7.657 8.117 9.197 10.297 11.047 13.227
1224.901 15.587 17.217 19.577 21.597 23.077 25.387 26.747 26.797 27.597 28.177
1244.191 27.957 29.207 31.917 35.007 39.807 47.347 57.697 70.727 85.507 102.247
1263.481 118.937 132.017 139.727 141.407 137.397 128.087 116.347 104.347 94.287 86.797
1282.771 79.817 72.807 65.117 57.307 50.117 44.077 39.537 36.297 33.957 32.437
1302.060 31.877 32.387 33.487 34.017 34.587 34.977 33.607 30.607 27.247 23.777
1321.350 20.197 16.787 13.927 11.727 10.037 8.657 7.627 7.057 6.527 6.077
1340.640 5.807 5.597 5.487 5.487 5.297 5.037 4.907 4.917 5.037 5.057
1359.930 4.967 4.997 5.097 5.067 5.007 4.997 4.997 4.927 4.987 5.037
1379.219 4.987 5.077 5.217 5.427 5.707 5.987 6.457 7.197 8.047 9.117
1398.509 10.147 11.137 11.967 11.977 11.417 10.697 9.487 7.927 6.657 5.647
1417.799 4.877 4.397 4.237 4.057 3.897 3.967 4.007 4.207 4.677 5.287
1437.089 6.247 7.687 9.237 11.027 12.897 14.047 14.097 13.377 12.067 10.037
1456.378 7.657 5.917 4.887 4.217 3.647 3.207 2.977 2.737 2.607 2.447
1475.668 2.457 2.527 2.567 2.687 2.797 2.877 2.957 3.067 3.177 3.187
1494.958 3.197 3.007 2.837 2.737 2.697 2.677 2.627 2.717 2.647 2.737
1514.248 3.087 3.407 3.817 3.977 4.147 4.577 4.797 4.777 4.747 4.667
1533.538 4.677 4.707 4.607 4.497 4.507 4.627 4.847 5.087 5.047 4.917
1552.827 4.987 5.067 5.037 5.147 5.257 5.347 5.497 5.777 6.187 6.587
1572.117 7.007 7.287 7.457 7.987 8.507 8.777 8.997 9.287 9.747 10.207
1591.407 10.937 11.897 12.927 13.987 15.037 15.677 15.577 14.997 13.777 12.087
1610.697 10.597 8.927 7.017 5.847 5.497 5.227 5.107 5.267 5.337 5.497
1629.986 5.737 5.907 6.017 6.127 6.387 6.517 6.597 6.887 7.217 7.157
1649.276 7.357 7.747 8.227 9.227 10.407 11.867 13.807 16.467 19.997 24.497
1668.566 30.487 38.087 47.367 58.227 70.247 82.017 92.307 99.567 103.087 103.257
1687.856 100.137 93.667 84.087 72.827 60.997 50.117 40.877 32.867 26.837 21.907
1707.146 18.047 15.017 12.917 11.277 9.917 8.867 8.227 7.887 7.497 7.247
1726.435 7.007 6.727 6.437 6.207 5.957 5.457 4.987 4.627 4.127 3.657
1745.725 3.347 3.127 2.997 2.847 2.797 2.667 2.607 2.707 2.647 2.647
1765.015 2.677 2.617 2.657 2.647 2.667 2.657 2.577 2.637 2.617 2.497
1784.305 2.397 2.427 2.537 2.647 2.747 2.897 3.217 3.607 3.897 4.257
1803.594 4.737 4.957 5.007 4.997 4.887 4.547 3.927 3.317 2.957 2.647
1822.884 2.377 2.307 2.207 2.047 1.867 1.737 1.637 1.537 1.587 1.637
1842.174 1.537 1.607 1.527 1.217 1.217 1.327 1.417 1.567 1.507 1.297
1861.464 1.187 1.267 1.377 1.397 1.437 1.487 1.477 1.347 1.327 1.487
1880.754 1.587 1.577 1.637 1.837 1.937 1.917 1.897 2.067 2.257 2.287
1900.043 2.377 2.587 2.797 2.797 2.747 2.677 2.707 2.747 2.847 2.997
1919.333 3.067 3.187 3.257 3.267 3.207 3.137 3.127 2.957 2.847 2.727
1938.623 2.637 2.647 2.587 2.457 2.407 2.487 2.537 2.617 2.697 2.677
1957.913 2.597 2.607 2.587 2.477 2.377 2.307 2.307 2.227 2.127 1.917
1977.202 1.697 1.417 1.247 1.187 1.0383 1.0608 1.0187 0.8875 0.7967 0.6846
1996.492 0.5824 0.6692 0.7627 0.7738 0.7692 0.6977 0.7929 0.7213 0.6026 0.591
2015.782 0.5161 0.6518 0.7198 0.6911 0.7636 0.7627 0.7943 0.8159 0.7398 0.7664
2035.072 0.7147 0.7019 0.8621 0.8784 0.7746 0.8256 0.9008 0.94 0.8665 0.8182
2054.362 0.7686 0.7458 0.9458 0.9258 0.8952 0.9183 0.9519 0.9084 0.8033 0.7599
2073.651 0.7335 0.8554 0.81 0.7259 0.7562 0.6978 0.6761 0.6549 0.7112 0.7915
2092.941 0.7533 0.7003 0.672 0.7025 0.6783 0.6111 0.5896 0.5712 0.6209 0.6364
2112.231 0.5287 0.4257 0.429 0.4559 0.3792 0.381 0.5154 0.6135 0.6634 0.5804
2131.521 0.5205 0.5134 0.5808 0.7061 0.6045 0.499 0.6331 0.7009 0.6486 0.6374
2150.810 0.6495 0.6304 0.5706 0.5963 0.633 0.6446 0.6417 0.6976 0.6945 0.7135
2170.100 0.7159 0.652 0.6254 0.6214 0.6294 0.6374 0.6622 0.6824 0.7067 0.6592
2189.390 0.71 0.728 0.6781 0.6164 0.6127 0.7491 0.8261 0.8343 0.8264 0.8233
2208.680 0.8259 0.8801 1.0801 1.237 1.377 1.597 1.967 2.507 3.217 4.177
2227.970 5.227 6.307 7.037 7.157 6.937 6.317 5.147 3.797 2.617 1.777
2247.259 1.267 1.0058 0.907 0.8519 0.8881 0.9243 0.9393 0.9704 0.873 0.777
2266.549 0.8653 0.8837 0.7554 0.7048 0.8144 0.9559 1.0158 1.0002 0.9557 0.93
2285.839 1.0574 1.167 1.137 1.127 1.127 1.0045 0.9755 1.0761 1.0022 0.7932
2305.129 0.8566 0.9633 0.8246 0.7642 0.9188 0.9592 1.0447 1.177 1.107 1.117
2324.418 1.137 1.127 1.0367 0.9177 0.7869 0.7816 0.7482 0.6505 0.7755 0.9005
2343.708 0.9658 0.9251 0.7215 0.5986 0.7502 0.8746 0.7892 0.7461 0.7472 0.6798
2362.998 0.6596 0.9177 0.9225 0.7591 0.8031 0.9606 0.9336 0.7166 0.6906 0.7439
2382.288 0.6706 0.6933 0.8 0.7905 0.8262 0.8375 0.8053 0.909 1.0539 1.0954
2401.578 1.237 1.307 1.257 1.287 1.187 1.08 1.0716 1.1026 1.147 1.147
2420.867 1.0344 0.9658 0.9606 0.901 0.8144 0.7343 0.6472 0.5763 0.5552 0.6063
2440.157 0.7217 0.7569 0.6563 0.5945 0.6223 0.6776 0.688 0.7654 0.7322 0.618
2459.447 0.7176 0.8266 0.6999 0.5053 0.5362 0.5725 0.5523 0.6329 0.5454 0.5437
2478.737 0.6996 0.515 0.5342 0.6409 0.5415 0.4877 0.3571 0.3823 0.4971 0.4362
2498.026 0.3093 0.17445 0.3434 0.5738 0.4283 0.4556 0.6149 0.6182 0.5506 0.4734
2517.316 0.5441 0.5913 0.5936 0.545 0.5628 0.5244 0.4558 0.5044 0.5047 0.6505
2536.606 0.656 0.5698 0.63 0.5605 0.4852 0.532 0.468 0.3198 0.4466 0.6474
2555.896 0.7147 0.689 0.6266 0.5734 0.4771 0.6715 0.7788 0.6056 0.6581 0.7746
2575.186 0.702 0.7836 0.8417 0.7299 0.8062 0.8991 0.8743 0.8306 0.9279 0.9194
2594.475 0.7857 0.6994 0.5264 0.538 0.772 0.7733 0.6681 0.5881 0.5423 0.6291
2613.765 0.6748 0.715 0.727 0.6518 0.6321 0.7081 0.5853 0.5092 0.6977 0.6779
2633.055 0.5678 0.5018 0.4605 0.5659 0.6009 0.5025 0.6359 0.713 0.5031 0.4144
2652.345 0.2631 0.17067 0.3244 0.5048 0.4453 0.3785 0.3699 0.342 0.4462 0.5657
2671.634 0.4211 0.2718 0.3481 0.3715 0.4196 0.4721 0.5719 0.4902 0.3571 0.3812
2690.924 0.3547 0.3361 0.4098 0.517 0.3931 0.2962 0.3108 0.2352 0.2406 0.3084
2710.214 0.4108 0.5841 0.5541 0.4188 0.389 0.5552 0.6784 0.6371 0.5742 0.59
2729.504 0.5794 0.6691 0.8248 0.8225 0.9161 0.8982 1.0219 1.0631 0.9657 0.8752
2748.794 0.9193 0.9537 0.9244 0.9956 1.0083 0.9978 1.0189 0.9731 0.9602 1.0273
2768.083 0.8616 0.6684 0.611 0.6745 0.9118 0.9249 0.8995 0.8566 0.7451 0.7367
2787.373 0.6791 0.7262 0.7192 0.7193 0.7347 0.5998 0.5636 0.6542 0.5995 0.628
2806.663 0.667 0.6617 0.6547 0.5511 0.44 0.3732 0.4893 0.6566 0.572 0.4054
2825.953 0.48 0.6702 0.6727 0.6393 0.5338 0.6397 0.8176 0.7725 0.6154 0.6545
2845.242 0.7687 0.8001 0.9123 0.9411 1.0185 0.9749 0.7043 0.6742 1.0329 1.0376
2864.532 0.9247 1.197 1.447 1.347 1.237 1.207 1.187 1.0059 0.9223 1.0017
2883.822 1.1053 1.177 1.107 0.9386 0.7701 0.8103 0.9137 0.9093 0.8115 0.7907
2903.112 0.7269 0.7242 0.775 0.8023 0.7781 0.7653 0.671 0.5439 0.6393 0.6026
2922.401 0.4687 0.529 0.7131 0.6836 0.6576 0.784 0.5862 0.394 0.405 0.5339
2941.691 0.6005 0.5142 0.4966 0.5849 0.7182 0.7983 0.7148 0.5502 0.5416 0.6143
2960.981 0.6444 0.571 0.5778 0.5312 0.5767 0.743 0.6777 0.6464 0.7557 0.9212
2980.271 1.0455 1.0973 1.0288 0.8718 0.8155 0.9215 0.9825 0.9021 0.8119 0.9856
2999.561 1.167 1.357 1.557 1.537 1.437 1.557 1.897 2.147 2.337 2.707
3018.850 3.187 3.517 3.897 4.337 4.917 5.587 6.287 6.967 7.637 8.347
3038.140 8.637 8.397 8.387 8.407 7.927 7.457 7.167 6.977 7.197 7.587
3057.430 8.027 8.967 10.247 11.697 13.317 15.257 17.167 18.517 18.947 18.807
3076.720 18.187 17.137 15.877 14.937 14.647 14.507 14.427 13.937 13.097 12.017
3096.009 11.067 10.127 8.967 7.967 7.117 6.367 5.777 5.217 4.357 3.687
3115.299 3.087 2.507 2.297 2.087 1.997 1.927 1.527 1.327 1.207 1.177
3134.589 1.277 1.0982 1.137 1.217 1.0846 1.0044 1.0129 1.0249 0.9578 0.9069
3153.879 0.8983 0.9397 1.107 1.207 1.0902 0.9131 0.9123 0.9622 0.9721 0.8617
3173.169 0.8025 0.7514 0.677 0.7622 0.5062 0.7348 0.906 0.5339 0.381 0.3424
3192.458 0.469 0.5574 0.4847 0.2798 0.356 0.3518 0.463 0.7103 0.4884 0.3663
3211.748 0.5547 0.3666 0.3365 0.4544 0.4755 0.5446 0.1801 0.19845 0.3395 0.3905
3231.038 0.6044 0.633 0.5003 0.4663 0.5849 0.5269 0.5168 0.6309 0.7461 0.6943
3250.328 0.4147 0.18733 0.19496 0.2348 0.3883 0.6676 0.6279 0.63 0.5745 0.3967
3269.617 0.4191 0.568 0.4457 0.5151 0.5527 0.262 0.4887 0.4365 0.4166 0.6543
3288.907 0.5216 0.6234 0.7262 0.612 0.5484 0.6349 0.625 0.6262 0.644 0.5912
3308.197 0.6886 0.551 0.6195 0.6309 0.4077 0.5385 0.7407 0.9348 0.8958 0.9238
3327.487 1.197 1.257 1.0617 1.247 1.677 1.787 1.887 1.837 1.897 2.077
3346.777 1.927 1.867 1.937 1.997 1.957 1.687 1.607 1.637 1.297 1.0352
3366.066 1.257 1.577 1.177 0.956 1.0934 0.7881 0.7348 0.8648 1.009 1.0565
3385.356 0.8866 0.8882 0.6442 0.5639 0.7494 0.7188 0.8132 0.7268 0.5666 0.9235
3404.646 1.327 1.0298 1.0948 1.0776 0.7748 0.9884 1.147 0.9759 0.6606 0.6732
3423.936 0.7676 0.8665 0.9854 0.6192 0.4234 0.705 0.6605 0.5247 0.6876 0.7008
3443.225 0.6593 0.3956 0.14684 0.373 0.5944 0.6722 0.5652 0.4565 0.5859 0.711
3462.515 0.4575 0.18418 0.2527 0.44 0.645 0.7651 0.7306 0.7539 0.5632 0.19224
3481.805 0.4327 0.6972 0.5385 0.5522 0.4968 0.2836 0.2816 0.4795 0.6353 0.6831
3501.095 0.6996 0.4752 0.3312 0.4496 0.5378 0.6672 0.6607 0.6738 0.4505 0.333
3520.385 0.3956 0.5025 0.6807 0.6553 0.3862 0.2653 0.386 0.5303 0.4347 0.20467
3539.674 0.3129 0.4083 0.4551 0.459 0.5632 0.4343 0.3147 0.5956 0.8639 0.8898
3558.964 0.5034 0.2604 0.6204 0.8193 0.3814 0.372 0.621 0.6678 0.5516 0.5229
3578.254 0.3883 0.13288 0.3044 0.4621 0.5424 0.4493 0.5241 0.486 0.2646 0.3895
3597.544 0.5446 0.5676 0.5609 0.5423 0.585 0.6424 0.506 0.5045 0.3232 0.04
3616.833 0.0164 0.2373 0.6508 0.8558 0.9978 0.9706 0.5631 0.2983 0.4273 0.4075
3636.123 0.5735 0.7653 0.7524 0.8335 0.7977 0.5856 0.4988 0.7401 0.854 0.8399
3655.413 0.488 0.15925 0.2958 0.2994 0.3349 0.3585 0.4282 0.6012 0.4855 0.10056
3674.703 0.2807 0.6494 0.3724 0.4264 0.5613 0.767 1.217 1.177 0.8239 0.8293
3693.993 1.0079 0.9393 1.0115 0.9767 0.7893 0.745 0.884 0.8561 0.7324 0.7631
3713.282 0.7451 0.7754 0.7335 0.7618 0.7761 0.907 0.9983 0.7222 0.6902 0.8473
3732.572 0.7933 0.7108 0.7028 0.6162 0.4279 0.4165 0.4559 0.14478 0.007 0.3112
3751.862 0.794 0.7835 0.5799 0.6716 0.7977 0.5978 0.5149 0.7357 0.9132 0.7606
3771.152 0.4932 0.5689 0.5633 0.5393 0.4525 0.4107 0.5921 0.7388 0.6494 0.6276
3790.441 0.6529 0.577 0.3189 0.19458 0.3242 0.3516 0.2853 0.4813 0.4103 0.5706
3809.731 0.7732 0.4427 0.3039 0.19524 0.4421 0.5303 0.2519 0.3687 0.55 0.4906
3829.021 0.513 0.4658 0.273 0.3103 0.4611 0.614 0.709 0.5227 0.5184 0.6776
3848.311 0.6303 0.6104 0.7365 0.713 0.5503 0.5213 0.7463 0.8889 0.7278 0.5707
3867.601 0.5075 0.3496 0.5919 0.6375 0.5554 0.6056 0.3267 0.16943 0.2271 0.3942
3886.890 0.17716 0.12491 0.4591 0.6444 0.7388 0.6985 0.5428 0.5866 0.3348 0.2661
3906.180 0.5334 0.4912 0.3267 0.2654 0.3788 0.3343 0.3207 0.3153 0.2282 0.3667
3925.470 0.4281 0.5676 0.8921 0.6296 0.3943 0.5489 0.5928 0.4499 0.473 0.4551
3944.760 0.3691 0.5193 0.4853 0.249 0 0.114908 0.272 0.4136 0.7888 0.6851
3964.049 0.449 0.2803 0.10306 0.15208 0.3047 0.5739 0.8277 0.7575 0.5954 0.6696
3983.339 0.805 0.6533 0.631 0.8202 0.6267 0.4847 0.546 0.5852 0.62 0.8235
##END=
