##TITLE=4-Nitrocinnamyl alcohol
##JCAMP-DX=4.24
##DATA TYPE=INFRARED SPECTRUM
##ORIGIN=EPA-IR VAPOR PHASE LIBRARY
##OWNER=SRD/NIST
Collection (C) 2018 copyright by the U.S. Secretary of Commerce
on behalf of the United States of America. All rights reserved.
##CAS REGISTRY NO=1504-63-8
##MOLFORM=C 9 H 9 N O 3
##$NIST SOURCE=MSDC-IR
##STATE=gas
##XUNITS=1/CM
##YUNITS=ABSORBANCE
##XFACTOR=1.
##YFACTOR=0.001
##DELTAX=1.92898
##FIRSTX=549.8
##LASTX=4000.7
##FIRSTY=2.749
##MAXX=4000.7
##MINX=549.759
##MAXY=0.162589
##MINY=0
##NPOINTS=1790
##XYDATA=(X++(Y..Y))
549.759 2.749 2.089 1.749 2.109 2.449 2.379 2.389 1.949 1.899 2.399
569.049 1.909 1.619 1.899 2.429 2.859 2.439 2.499 2.369 1.979 1.799
588.339 1.889 2.179 1.779 1.1893 1.719 2.019 1.669 1.999 2.579 2.449
607.628 2.189 2.099 1.509 1.559 1.929 2.179 2.079 1.979 1.969 1.769
626.918 1.4967 1.3888 1.509 1.759 2.159 2.089 2.139 2.239 2.029 1.729
646.208 1.749 2.239 2.079 1.959 2.169 2.259 2.579 2.879 3.029 3.379
665.498 3.779 3.909 3.979 4.289 4.929 5.469 5.749 6.269 6.849 6.899
684.787 7.189 7.799 7.809 7.659 7.629 7.119 6.689 6.479 6.119 5.719
704.077 5.479 5.049 4.879 4.629 4.609 4.849 4.769 5.179 5.469 6.079
723.367 7.109 7.999 8.689 9.329 10.349 11.449 12.459 13.209 13.189 12.879
742.657 12.739 12.289 11.329 10.089 8.959 8.129 7.359 6.259 5.419 5.079
761.947 4.429 3.689 3.359 3.159 3.149 3.409 3.269 3.109 3.249 3.389
781.236 3.469 3.369 3.279 3.609 3.919 3.989 4.609 5.229 5.559 6.359
800.526 7.269 7.669 7.919 8.719 9.539 10.859 12.619 13.989 15.379 16.299
819.816 16.919 17.109 16.829 16.889 16.369 15.529 15.479 15.439 15.459 15.359
839.106 14.869 14.899 15.129 15.769 17.339 19.389 22.069 25.809 29.689 32.779
858.395 34.809 35.369 34.659 32.339 28.359 23.779 19.669 16.369 13.689 11.479
877.685 9.659 8.499 8.009 7.189 6.649 6.299 5.669 5.379 5.119 5.039
896.975 5.409 5.379 5.169 5.399 5.279 5.629 6.219 6.189 5.889 5.789
916.265 6.169 6.699 6.979 7.039 7.369 7.399 7.239 7.369 7.749 8.439
935.555 9.269 9.909 10.749 11.859 12.779 14.049 15.659 16.879 17.879 19.119
954.844 20.049 21.079 22.109 22.509 23.139 23.629 23.449 22.979 22.309 21.439
974.134 20.649 19.339 17.969 17.179 16.259 15.819 15.789 15.239 14.989 15.209
993.424 15.279 15.219 15.929 17.039 17.939 19.249 20.499 22.279 24.499 26.059
1012.714 27.569 29.079 30.419 31.509 31.699 30.839 29.449 27.839 26.449 25.009
1032.003 22.239 20.019 18.789 17.209 16.019 15.049 14.169 13.829 13.339 12.809
1051.293 12.949 12.819 12.739 13.409 13.209 13.119 13.519 13.269 14.269 15.759
1070.583 16.359 17.179 17.909 18.719 20.039 20.889 22.539 24.179 22.949 21.939
1089.873 23.189 23.679 22.379 21.069 20.509 19.509 18.399 18.509 18.429 18.329
1109.163 18.609 18.169 16.799 14.749 13.419 12.209 10.679 9.059 7.629 6.969
1128.452 6.159 7.159 7.669 6.419 6.109 5.829 5.459 6.039 5.789 4.869
1147.742 5.189 4.639 4.469 5.139 5.049 4.719 4.789 5.229 5.159 5.109
1167.032 6.139 7.219 7.469 7.679 8.919 9.799 10.199 10.729 11.249 11.529
1186.322 10.239 8.929 8.269 7.869 7.599 6.869 6.629 6.779 7.429 7.689
1205.611 7.589 8.209 8.079 8.349 7.849 7.429 7.929 7.849 7.429 6.639
1224.901 6.569 7.479 7.679 7.459 7.989 8.289 7.859 6.979 7.099 7.459
1244.191 7.139 6.849 6.779 6.859 7.089 7.259 7.369 7.719 7.619 7.269
1263.481 7.779 8.499 8.709 8.809 8.889 8.959 9.099 9.449 10.089 10.939
1282.771 11.889 12.439 13.109 13.829 14.579 15.119 15.269 15.609 15.729 15.609
1302.060 15.569 15.679 15.709 15.909 16.249 16.549 17.129 17.889 18.629 19.589
1321.350 20.909 22.479 24.649 27.639 31.849 37.609 45.049 54.989 67.989 84.419
1340.640 103.949 124.549 143.499 156.979 162.589 160.239 150.049 132.809 112.009 92.419
1359.930 76.779 65.399 56.829 50.099 44.759 40.409 37.029 34.439 32.429 30.629
1379.219 28.969 27.489 25.919 24.419 22.869 21.269 19.739 18.279 17.049 15.789
1398.509 14.559 13.639 12.829 12.179 11.769 11.259 10.779 10.499 10.259 9.919
1417.799 9.639 9.149 8.559 8.149 7.779 7.549 7.149 6.889 6.709 6.409
1437.089 6.299 6.239 6.269 6.179 6.129 6.229 6.279 6.329 6.459 6.709
1456.378 6.909 7.049 7.179 7.389 7.589 7.769 8.039 8.369 8.699 9.129
1475.668 9.669 10.209 10.869 11.749 12.859 14.289 15.829 17.439 19.029 20.009
1494.958 20.529 20.469 19.839 18.979 17.809 17.209 17.649 18.859 20.969 24.189
1514.248 28.239 32.889 38.839 45.849 53.679 62.159 70.919 79.609 87.529 93.879
1533.538 97.719 98.969 98.129 95.469 91.009 84.299 75.359 65.689 56.499 47.949
1552.827 40.459 34.029 28.759 24.699 21.439 18.949 17.319 16.339 15.679 15.179
1572.117 15.239 15.719 16.309 17.279 18.619 20.439 23.009 25.909 29.279 33.019
1591.407 37.029 40.909 43.699 45.359 45.219 42.839 38.699 33.729 29.239 25.259
1610.697 21.569 18.289 15.439 13.059 11.059 9.199 7.809 6.869 6.029 5.409
1629.986 5.059 4.749 4.499 4.429 4.429 4.319 4.379 4.579 4.579 4.579
1649.276 4.569 4.649 4.739 4.579 4.319 4.149 4.049 3.789 3.629 3.529
1668.566 3.299 3.019 2.929 2.929 2.839 2.679 2.679 2.669 2.549 2.499
1687.856 2.539 2.579 2.519 2.419 2.419 2.329 2.219 2.339 2.449 2.479
1707.146 2.609 2.669 2.649 2.459 2.419 2.449 2.079 1.889 1.789 1.599
1726.435 1.659 1.699 1.629 1.669 1.719 1.769 1.869 1.819 1.729 1.739
1745.725 1.809 1.959 2.029 1.979 2.029 2.139 2.129 2.189 2.329 2.499
1765.015 2.629 2.619 2.649 2.739 2.829 2.869 2.939 2.979 2.979 3.119
1784.305 3.269 3.199 3.049 2.959 2.699 2.449 2.249 1.919 1.829 1.779
1803.594 1.609 1.519 1.539 1.709 1.719 1.609 1.499 1.3943 1.4375 1.4268
1822.884 1.3693 1.3956 1.3872 1.3573 1.3528 1.2487 1.1427 1.1502 1.1442 1.1009
1842.174 1.0409 1.0989 1.178 1.2147 1.1528 0.989 1.0145 1.0998 1.1595 1.1569
1861.464 1.1136 1.1464 1.1257 1.1388 1.2129 1.2107 1.1698 1.1232 0.9989 1.031
1880.754 1.1738 1.2771 1.4364 1.3532 1.2472 1.3782 1.4466 1.579 1.719 1.779
1900.043 1.819 1.879 2.099 2.189 2.089 2.229 2.449 2.579 2.679 2.779
1919.333 2.779 2.659 2.509 2.289 2.169 2.059 1.959 1.869 1.659 1.509
1938.623 1.509 1.464 1.318 1.2365 1.1096 1.1098 1.1861 1.1561 1.0784 1.1732
1957.913 1.2567 1.1399 1.0851 1.0873 1.1667 1.168 1.1096 1.1409 1.159 1.1225
1977.202 1.1759 1.2104 1.145 1.2133 1.2681 1.1777 1.05 0.9959 1.0059 1.1023
1996.492 1.1412 1.1867 1.2287 1.1508 1.1307 1.1566 1.1408 1.1156 1.1882 1.1778
2015.782 1.1694 1.3119 1.2493 1.1743 1.2032 1.2177 1.2944 1.2549 1.1241 1.0213
2035.072 1.1093 1.1885 1.1412 1.1491 1.2207 1.089 0.9953 1.1058 1.1526 1.053
2054.362 1.0723 1.1551 1.0531 1.0402 1.0132 0.963 0.9458 0.9853 1.0466 0.8981
2073.651 0.9236 0.9448 0.9261 0.9324 0.8934 0.8698 0.847 0.9518 1.007 1.0225
2092.941 0.9741 0.9005 0.898 0.9395 0.888 1.0051 1.044 0.9109 0.9652 0.9155
2112.231 1.002 1.0434 0.9534 1.0565 1.087 1.0899 1.0999 1.1107 0.9657 0.9066
2131.521 1.0356 0.9658 0.8142 0.7431 0.8417 1.0542 1.0844 1.0872 1.1294 1.0901
2150.810 0.9342 0.9178 0.9048 0.7922 0.8 0.7542 0.7432 0.8383 0.9781 0.9779
2170.100 0.9801 0.9511 0.9067 0.8689 0.8295 0.8822 0.9155 0.9213 0.8333 0.8103
2189.390 0.8689 0.8613 0.8442 0.7783 0.7288 0.8487 0.8895 0.982 1.1158 1.0937
2208.680 1.1733 1.249 1.1313 1.0151 1.066 1.0658 1.0301 1.124 1.0828 1.0015
2227.970 0.9574 0.9891 1.0143 0.9262 0.9325 0.9572 0.9534 0.9019 0.7742 0.8311
2247.259 0.9427 0.9541 0.9165 0.8692 0.9554 0.905 0.9091 1.0081 1.037 1.0496
2266.549 1.002 1.108 1.1197 1.035 1.0321 1.0436 1.0716 1.0918 1.142 1.2568
2285.839 1.3 1.2582 1.3852 1.3081 1.1207 1.1944 1.3353 1.194 1.0323 1.0195
2305.129 1.0606 1.1568 1.1649 1.1456 1.0285 1.0551 1.1536 0.9355 0.876 1.0675
2324.418 1.1627 1.1957 0.9578 0.8936 1.0135 0.9802 1.0224 0.9972 1.055 0.9831
2343.708 0.9187 1.1067 1.2272 1.1494 1.0474 1.1041 1.1304 1.0974 1.1339 1.3356
2362.998 1.2945 1.1574 1.2281 1.2068 1.2432 1.2302 1.2492 1.3346 1.3245 1.1706
2382.288 1.076 1.2031 1.2224 1.3186 1.3303 1.1015 1.1779 1.2614 1.2181 1.2794
2401.578 1.2226 1.1762 1.0139 0.8853 1.0604 1.127 1.0725 1.0901 1.1661 1.079
2420.867 0.9272 1.0081 1.1267 1.1744 1.1956 1.215 1.1593 1.2433 1.3525 1.3488
2440.157 1.4432 1.4856 1.509 1.4795 1.559 1.729 1.789 1.779 1.829 1.899
2459.447 1.949 1.919 1.839 1.869 1.649 1.569 1.549 1.3743 1.363 1.3288
2478.737 1.2944 1.2197 1.1425 1.0495 1.1605 1.2882 1.0984 1.1671 1.205 1.1013
2498.026 1.273 1.3851 1.3966 1.3009 1.1386 1.0428 1.0502 1.2056 1.3439 1.1831
2517.316 1.1405 1.2099 1.0082 0.926 1.0402 1.1977 1.1562 1.0943 1.0169 0.8502
2536.606 0.8266 1.0704 1.2109 1.1192 1.1254 1.0592 0.9074 0.8893 0.9443 0.93
2555.896 0.9988 1.0198 1.0953 1.1129 1.1081 1.0633 0.8707 0.8855 1.0014 1.1114
2575.186 1.0383 0.9638 1.0574 1.0611 1.1227 1.3244 1.435 1.3929 1.3797 1.3349
2594.475 1.3272 1.2845 1.0933 1.1657 1.3237 1.2428 1.1313 1.1205 1.2705 1.4672
2613.765 1.3799 1.1719 1.0382 1.0181 1.2472 1.3621 1.1733 0.9782 0.9633 1.0567
2633.055 1.1435 1.1018 1.1035 1.0461 0.9886 1.1867 1.1528 1.0185 1.0893 1.1609
2652.345 1.1944 1.2721 1.1812 1.1092 1.099 1.0191 1.0575 1.1744 1.222 1.1958
2671.634 1.3025 1.3222 1.3458 1.539 1.3761 1.1453 1.4011 1.589 1.529 1.579
2690.924 1.639 1.589 1.629 1.749 1.859 1.909 2.049 2.079 1.819 1.879
2710.214 1.899 1.749 1.899 1.939 1.869 1.919 1.909 1.959 1.819 1.759
2729.504 1.779 1.559 1.589 1.579 1.4764 1.599 1.549 1.589 1.649 1.539
2748.794 1.549 1.4537 1.4743 1.499 1.539 1.709 1.719 1.529 1.3978 1.549
2768.083 1.909 2.039 1.999 1.999 1.879 1.889 2.049 2.149 2.049 2.099
2787.373 2.389 2.579 2.449 2.249 2.209 2.279 2.329 2.369 2.479 2.499
2806.663 2.509 2.539 2.649 2.759 2.699 2.899 3.099 3.039 3.239 3.259
2825.953 3.219 3.489 3.599 3.949 4.269 4.439 4.649 4.759 4.929 5.259
2845.242 5.889 6.589 7.019 7.239 7.729 8.379 8.939 9.789 10.849 11.689
2864.532 12.419 13.329 14.249 15.129 15.789 15.829 15.779 15.619 15.219 14.609
2883.822 13.859 13.189 12.759 12.449 11.969 11.599 11.199 10.819 10.479 10.189
2903.112 10.069 10.039 10.039 9.859 9.829 9.859 9.839 9.889 9.839 9.909
2922.401 10.129 10.129 9.899 9.969 10.239 10.259 10.139 10.029 9.909 9.779
2941.691 9.639 9.559 9.219 8.819 8.669 8.469 8.039 7.729 7.529 7.189
2960.981 6.729 6.329 5.899 5.509 5.489 5.269 4.729 4.449 4.559 4.449
2980.271 4.139 3.799 3.669 3.609 3.549 3.799 3.829 3.699 3.859 3.919
2999.561 3.779 3.879 4.009 4.299 4.549 4.839 5.039 5.109 5.369 5.429
3018.850 5.439 5.889 5.959 5.989 6.409 6.529 6.779 7.059 7.039 7.009
3038.140 6.979 6.879 6.999 6.969 6.899 6.789 6.709 6.789 6.959 6.979
3057.430 6.779 6.789 6.779 6.579 6.429 6.339 6.139 5.839 5.489 5.269
3076.720 5.459 5.569 5.309 4.989 4.609 4.279 3.799 3.029 2.499 2.239
3096.009 1.939 1.639 1.569 1.629 1.529 1.529 1.509 1.2685 1.0543 1.0031
3115.299 0.9365 0.9905 0.9574 0.6786 0.7128 0.8705 0.79 0.9542 1.1008 0.8847
3134.589 0.8971 0.8682 0.6016 0.6876 0.7988 0.8296 0.966 0.9036 0.9067 0.7918
3153.879 0.6141 0.57347 0.52836 0.6297 0.57091 0.55969 0.7391 0.8532 0.9277 0.9545
3173.169 0.7182 0.761 0.8693 0.8064 0.8372 0.9009 1.0739 0.9962 0.825 0.8318
3192.458 1.0727 1.1833 1.0678 1.0019 0.961 0.8906 0.8528 0.9035 0.8181 0.7156
3211.748 0.6732 0.59622 0.6852 0.4614 0.4855 0.6938 0.6753 0.7708 0.6043 0.6263
3231.038 0.7252 0.55261 0.499082 0.4566 0.6191 0.8092 0.6166 0.6463 0.782 0.7226
3250.328 0.66 0.6284 0.4595 0.349 0.4979 0.55726 0.4093 0.231 0.4758 0.6504
3269.617 0.52254 0.345 0.266 0.4803 0.7414 0.9122 0.7871 0.49152 0.051 0.057
3288.907 0.58726 0.53901 0.4521 0.55387 0.234 0 0.262 0.4491 0.305 0.55201
3308.197 0.8322 0.6171 0.384 0.49358 0.7251 0.59083 0.4296 0.4065 0.4832 0.714
3327.487 0.6477 0.55986 0.7323 0.76 0.58011 0.4779 0.4861 0.6537 0.6901 0.5681
3346.777 0.52096 0.52479 0.50969 0.4852 0.58039 0.6552 0.7698 0.7622 0.6305 0.793
3366.066 0.8506 0.6844 0.6614 0.8782 0.7561 0.4283 0.59461 0.6099 0.53409 0.6466
3385.356 0.819 1.0197 0.9263 0.6603 0.365 0.49229 0.7552 0.57498 0.6221 0.6367
3404.646 0.54266 0.59839 0.36 0.364 0.6718 0.7172 0.7298 0.7853 0.7778 0.6742
3423.936 0.7281 0.8414 0.6706 0.53203 0.54501 0.4775 0.6932 0.8435 0.6931 0.6233
3443.225 0.7023 0.7686 0.7655 0.8256 0.6002 0.508462 0.4764 0.4208 0.57828 0.503632
3462.515 0.53943 0.55785 0.4557 0.6256 0.7803 0.7697 0.8636 0.8632 0.9631 1.3203
3481.805 1.1631 0.7552 0.6151 0.6238 0.7068 0.6807 0.6599 0.6358 0.383 0.378
3501.095 0.59717 0.6361 0.7785 0.9522 0.9272 0.8728 0.929 0.8448 0.6382 0.4795
3520.385 0.53429 0.8471 0.7506 0.6474 0.6919 0.56388 0.4388 0.49012 0.6324 0.91
3539.674 0.9691 0.6782 0.74 0.873 0.7939 0.7105 0.768 0.9306 0.7507 0.8042
3558.964 1.0973 0.9558 0.9583 0.8305 0.59538 0.7943 0.9689 0.7081 0.4888 0.6021
3578.254 0.7103 0.793 0.9976 1.0797 0.772 0.474 0.6832 0.8884 0.9952 1.0882
3597.544 0.7927 0.8951 1.178 1.4543 1.649 1.589 1.669 1.569 1.4568 1.589
3616.833 1.699 1.639 1.909 2.159 2.229 2.219 2.349 2.739 2.779 2.939
3636.123 3.239 3.599 4.389 4.789 4.769 4.879 5.249 5.729 6.419 7.129
3655.413 7.789 8.839 9.369 9.519 10.049 10.229 9.999 9.479 8.939 8.159
3674.703 7.069 6.189 5.599 5.239 4.759 4.199 3.679 3.239 2.689 2.619
3693.993 2.899 2.529 2.099 1.999 2.019 2.099 1.789 1.4069 1.4556 1.0954
3713.282 0.7855 1.165 1.2396 1.0273 1.1517 1.3986 1.1208 0.8067 0.8378 0.8521
3732.572 0.8764 0.9213 1.0897 1.2005 1.1824 1.0621 1.0456 1.1573 1.0759 1.1277
3751.862 1.1594 0.9985 1.0157 0.9008 0.9477 1.1952 1.3622 1.4093 1.278 1.0465
3771.152 0.9627 0.9476 0.57805 0.4803 0.4377 0.442 0.55526 0.7075 0.856 0.591
3790.441 0.6868 0.8205 0.7491 0.7739 0.7046 0.7575 0.7998 0.9377 1.0674 0.9319
3809.731 0.8296 1.0458 1.0177 0.8074 0.8497 0.9104 0.8513 0.8484 0.9251 1.1424
3829.021 1.2745 1.0786 0.7568 0.4276 0.4414 0.6097 0.7768 1.0505 1.0336 0.8252
3848.311 0.8382 0.9697 0.8834 0.8136 1.0275 1.1329 1.1212 1.2903 1.1603 0.9027
3867.601 1.287 1.3052 0.8794 0.9572 1.0133 1.2266 1.2881 0.9385 0.9407 0.9525
3886.890 0.7213 0.8859 1.1302 0.7979 0.6226 0.7757 0.6848 0.4344 0.57931 1.1394
3906.180 1.0498 0.7175 0.8572 0.9137 0.9764 0.7851 0.4769 0.34 0.56675 0.8837
3925.470 1.1521 0.9553 0.7446 1.0387 0.796 0.4324 0.7372 0.971 0.6952 0.4015
3944.760 0.337 0.4807 0.52543 0.6616 0.688 0.503414 0.4346 0.59563 0.6672 0.612
3964.049 0.6 0.49769 0.4827 0.4368 0.398 0.56879 0.6389 0.52084 0.317 0.5515
3983.339 0.8613 0.6843 0.8382 0.9885 0.7905 0.8295 0.8791 0.8155 0.7397 0.7244
##END=
