##TITLE=3-(4-Methylphenyl)propionic acid
##JCAMP-DX=4.24
##DATA TYPE=INFRARED SPECTRUM
##ORIGIN=EPA-IR VAPOR PHASE LIBRARY
##OWNER=SRD/NIST
Collection (C) 2018 copyright by the U.S. Secretary of Commerce
on behalf of the United States of America. All rights reserved.
##CAS REGISTRY NO=1505-50-6
##MOLFORM=C 10 H 12 O 2
##$NIST SOURCE=MSDC-IR
##STATE=gas
##XUNITS=1/CM
##YUNITS=ABSORBANCE
##XFACTOR=1.
##YFACTOR=0.001
##DELTAX=1.92898
##FIRSTX=549.8
##LASTX=4000.7
##FIRSTY=26.405
##MAXX=4000.7
##MINX=549.759
##MAXY=0.133285
##MINY=0
##NPOINTS=1790
##XYDATA=(X++(Y..Y))
549.759 26.405 27.055 27.845 28.325 28.625 28.905 28.755 28.135 27.535 27.015
569.049 26.335 25.765 25.195 24.735 24.315 23.915 23.665 23.455 23.285 23.105
588.339 22.905 22.445 22.235 22.355 22.275 22.455 22.875 23.175 23.825 24.415
607.628 24.755 24.995 24.985 24.855 24.635 24.345 24.045 23.515 22.945 22.355
626.918 21.715 21.025 19.825 18.705 17.985 17.035 15.925 15.175 14.305 13.415
646.208 12.845 12.245 11.475 10.865 10.645 10.165 9.585 9.295 9.175 9.135
665.498 8.865 8.615 8.515 8.415 8.215 8.055 8.015 7.795 7.705 7.705
684.787 7.515 7.215 7.015 6.935 6.935 6.755 6.285 6.115 6.065 5.775
704.077 5.655 5.625 5.655 5.595 5.445 5.475 5.545 5.645 5.705 5.625
723.367 5.625 5.605 5.265 4.795 4.435 4.175 3.935 3.765 3.565 3.515
742.657 3.465 3.335 3.205 3.245 3.495 3.605 3.655 3.625 3.585 3.585
761.947 3.735 3.735 3.805 3.995 4.095 4.315 4.555 4.765 5.035 5.445
781.236 5.975 6.535 7.245 8.025 8.925 10.035 11.205 12.565 13.845 15.185
800.526 16.855 18.365 19.735 21.025 22.065 22.345 22.195 21.685 20.525 19.005
819.816 17.285 15.535 13.615 11.805 10.215 8.645 7.255 6.365 5.535 4.755
839.106 4.245 3.865 3.465 3.205 3.035 2.885 2.865 2.475 2.325 2.455
858.395 2.425 2.425 2.335 2.405 2.355 2.205 2.265 2.275 2.445 2.625
877.685 2.475 2.505 2.685 2.805 2.845 2.735 2.835 3.015 3.165 2.995
896.975 2.775 2.935 2.965 2.945 3.035 2.965 2.925 2.945 3.065 3.195
916.265 3.225 3.255 3.305 3.485 3.615 3.675 3.815 4.045 4.215 4.465
935.555 4.645 4.775 4.995 5.205 5.465 5.505 5.615 5.685 5.625 5.555
954.844 5.555 5.565 5.465 5.475 5.465 5.405 5.185 5.125 5.125 5.185
974.134 5.175 5.005 5.035 5.165 5.015 4.965 5.295 5.325 5.485 5.765
993.424 5.905 5.985 6.235 6.595 6.695 6.975 7.515 7.795 8.075 8.835
1012.714 9.735 10.595 11.805 12.725 12.855 12.845 12.915 12.965 12.625 11.905
1032.003 11.505 10.945 10.395 10.455 10.285 9.995 9.755 9.515 9.595 9.615
1051.293 9.645 9.825 9.835 9.685 9.875 10.455 10.665 11.015 11.945 12.985
1070.583 13.975 14.785 15.665 17.385 19.455 21.305 23.245 25.095 27.465 30.455
1089.873 33.955 37.675 41.085 44.845 49.545 55.115 61.315 67.145 72.925 79.405
1109.163 85.895 91.495 96.425 100.855 102.955 103.085 101.895 98.255 93.115 87.195
1128.452 80.585 73.865 67.085 60.785 55.175 50.275 46.295 43.035 40.365 37.765
1147.742 35.085 32.855 31.135 29.575 27.815 26.365 25.265 24.225 23.555 23.065
1167.032 22.535 22.465 22.665 22.615 22.855 23.775 24.315 24.475 24.805 24.835
1186.322 24.675 24.435 24.195 23.875 23.505 22.795 21.955 21.255 20.805 20.125
1205.611 19.425 19.325 18.785 18.075 17.515 16.635 16.075 15.835 15.295 14.615
1224.901 13.955 13.735 13.785 13.545 13.255 13.095 13.125 12.785 12.405 12.355
1244.191 12.015 11.665 11.535 11.445 11.415 11.435 11.505 11.635 11.645 11.635
1263.481 11.665 11.755 11.875 11.915 11.935 11.845 11.705 11.565 11.505 11.445
1282.771 11.305 11.295 11.315 11.125 10.835 10.635 10.395 10.315 10.265 10.135
1302.060 9.975 9.825 9.825 9.855 9.795 9.775 9.815 9.865 9.935 9.985
1321.350 9.995 10.035 10.095 10.115 10.185 10.325 10.475 10.625 10.835 11.105
1340.640 11.395 11.745 12.095 12.465 12.965 13.505 14.055 14.675 15.335 16.055
1359.930 16.855 17.665 18.505 19.375 20.195 21.045 21.785 22.395 22.895 23.165
1379.219 23.305 23.165 22.655 21.815 20.775 19.515 17.995 16.525 15.235 14.125
1398.509 13.185 12.365 11.785 11.345 11.005 10.825 10.775 10.845 10.945 11.165
1417.799 11.425 11.685 12.035 12.355 12.565 12.635 12.665 12.555 12.255 11.895
1437.089 11.515 11.225 10.935 10.625 10.435 10.415 10.425 10.335 10.235 10.015
1456.378 9.615 9.165 8.685 8.105 7.505 6.995 6.615 6.235 5.875 5.555
1475.668 5.285 5.105 5.005 4.955 4.945 4.985 5.105 5.345 5.675 6.075
1494.958 6.595 7.305 8.285 9.585 11.195 13.185 15.735 18.755 21.685 24.045
1514.248 25.245 25.225 24.215 22.355 19.515 16.085 12.515 9.505 7.325 5.875
1533.538 5.035 4.405 3.905 3.545 3.305 3.165 3.025 2.875 2.685 2.505
1552.827 2.405 2.325 2.335 2.325 2.225 2.155 2.155 2.205 2.195 2.115
1572.117 2.195 2.335 2.175 2.115 2.165 2.135 2.185 2.205 2.115 2.075
1591.407 2.075 2.015 1.965 2.005 2.005 2.035 2.155 2.145 2.165 2.205
1610.697 2.185 2.195 2.225 2.305 2.385 2.385 2.455 2.595 2.575 2.525
1629.986 2.545 2.525 2.515 2.565 2.605 2.545 2.415 2.385 2.405 2.355
1649.276 2.335 2.275 2.155 2.085 2.105 2.065 1.905 1.855 1.915 1.945
1668.566 1.915 1.905 1.965 2.045 2.095 2.075 2.165 2.285 2.335 2.375
1687.856 2.505 2.675 2.795 2.985 3.295 3.565 3.805 4.115 4.465 4.815
1707.146 5.165 5.635 6.215 6.815 7.505 8.265 9.125 9.985 10.955 12.045
1726.435 13.205 14.625 16.315 18.055 19.915 22.035 24.245 26.675 29.315 32.025
1745.725 34.835 37.905 41.285 45.115 49.355 54.145 59.845 66.295 73.695 82.005
1765.015 91.015 100.505 110.035 118.625 125.845 130.905 133.285 132.975 129.795 123.905
1784.305 116.035 107.155 97.955 88.765 79.845 71.345 63.675 56.815 50.795 45.495
1803.594 40.775 36.585 32.925 29.525 26.385 23.495 20.875 18.515 16.345 14.385
1822.884 12.755 11.265 9.985 8.965 8.035 7.245 6.605 6.025 5.575 5.135
1842.174 4.735 4.405 4.105 3.855 3.585 3.435 3.315 3.145 3.045 2.985
1861.464 2.925 2.905 2.895 2.875 2.885 2.975 3.105 3.145 3.185 3.285
1880.754 3.345 3.385 3.475 3.565 3.535 3.495 3.425 3.315 3.255 3.105
1900.043 2.945 2.835 2.715 2.575 2.355 2.155 2.065 1.955 1.895 1.875
1919.333 1.805 1.665 1.565 1.575 1.515 1.475 1.445 1.395 1.375 1.335
1938.623 1.315 1.2415 1.2013 1.2472 1.2278 1.1691 1.2061 1.2457 1.2236 1.1774
1957.913 1.1189 1.108 1.1286 1.0796 1.0221 0.9908 0.9836 1.0075 0.9908 1.0324
1977.202 1.0528 1.0323 0.9667 0.9178 0.9868 0.9936 0.9865 0.983 0.9654 0.9733
1996.492 0.9634 1.0054 1.0124 1.0189 0.9931 0.9737 1.0183 0.9957 0.9493 0.9087
2015.782 0.8677 0.8541 0.8855 0.8823 0.8729 0.8352 0.8287 0.8146 0.7751 0.7854
2035.072 0.8032 0.7964 0.7482 0.695 0.6688 0.6921 0.6923 0.6283 0.6329 0.6752
2054.362 0.6569 0.7175 0.7214 0.6505 0.7012 0.7375 0.6752 0.6785 0.6875 0.6579
2073.651 0.696 0.7352 0.6494 0.6136 0.677 0.6375 0.5579 0.5766 0.6187 0.6329
2092.941 0.6729 0.7049 0.6457 0.5894 0.6289 0.7017 0.7357 0.7116 0.7624 0.7822
2112.231 0.7541 0.741 0.7206 0.6974 0.6581 0.6869 0.7063 0.7351 0.7793 0.7201
2131.521 0.7409 0.7626 0.7358 0.762 0.725 0.731 0.8092 0.8085 0.7707 0.7328
2150.810 0.6778 0.6866 0.7528 0.7518 0.7519 0.7521 0.6893 0.7324 0.7742 0.7629
2170.100 0.7388 0.703 0.7185 0.731 0.7309 0.7157 0.7065 0.7362 0.7608 0.7367
2189.390 0.7374 0.7314 0.7161 0.7402 0.7445 0.7786 0.8347 0.8233 0.7941 0.8589
2208.680 0.9101 0.9033 0.9917 1.0013 0.9666 0.978 0.9528 1.0004 1.0028 0.9557
2227.970 0.9596 0.9483 0.9138 0.8874 0.9056 0.9741 0.9757 0.9482 0.869 0.7863
2247.259 0.8539 0.8003 0.79 0.8747 0.8112 0.7644 0.7867 0.8072 0.843 0.8089
2266.549 0.7289 0.7232 0.7346 0.6773 0.6367 0.6528 0.6898 0.7854 0.7795 0.7624
2285.839 0.7916 0.7672 0.8049 0.8573 0.8179 0.7667 0.7372 0.7811 0.7991 0.7594
2305.129 0.8149 0.8568 0.8169 0.7967 0.8446 0.8395 0.8195 0.8175 0.8156 0.8462
2324.418 0.8273 0.8115 0.7646 0.7508 0.8043 0.749 0.7055 0.7363 0.781 0.7798
2343.708 0.7254 0.7346 0.6957 0.5646 0.5634 0.6288 0.6984 0.7584 0.7237 0.6654
2362.998 0.6568 0.6896 0.7093 0.7043 0.6857 0.75 0.7859 0.7622 0.6761 0.657
2382.288 0.7227 0.7762 0.8303 0.8443 0.8066 0.7618 0.7662 0.747 0.6842 0.6929
2401.578 0.7739 0.7541 0.7365 0.6981 0.7008 0.7403 0.7407 0.7239 0.6942 0.7799
2420.867 0.7978 0.7469 0.6887 0.6259 0.7009 0.7565 0.7025 0.6819 0.7718 0.7784
2440.157 0.7283 0.7128 0.6978 0.7171 0.7324 0.7468 0.6722 0.6177 0.6818 0.7145
2459.447 0.6698 0.654 0.7107 0.7206 0.6847 0.6243 0.6634 0.7161 0.6753 0.6595
2478.737 0.6676 0.6723 0.6395 0.6269 0.6061 0.6259 0.6454 0.6028 0.5453 0.5484
2498.026 0.6231 0.5179 0.4589 0.578 0.5712 0.5995 0.6104 0.5732 0.5896 0.5935
2517.316 0.6065 0.5643 0.4775 0.4449 0.483 0.4811 0.4266 0.4788 0.5442 0.5112
2536.606 0.4917 0.4495 0.4715 0.4966 0.5127 0.5296 0.5481 0.5529 0.5606 0.4652
2555.896 0.406 0.5173 0.5901 0.5481 0.4643 0.4844 0.5025 0.5095 0.5913 0.6459
2575.186 0.6048 0.6287 0.7264 0.7445 0.6976 0.7025 0.6778 0.6787 0.7582 0.7385
2594.475 0.6587 0.6853 0.6671 0.5861 0.6069 0.5531 0.5012 0.5842 0.5588 0.4924
2613.765 0.5817 0.578 0.4682 0.4722 0.5506 0.5972 0.5797 0.5784 0.592 0.5967
2633.055 0.613 0.5609 0.556 0.5179 0.4714 0.5538 0.592 0.5642 0.5728 0.5925
2652.345 0.6061 0.6716 0.6878 0.6376 0.6556 0.6711 0.5739 0.5839 0.6184 0.6599
2671.634 0.6545 0.5274 0.5952 0.7122 0.7037 0.7067 0.6916 0.6239 0.5391 0.5876
2690.924 0.6297 0.5885 0.6711 0.661 0.6506 0.6971 0.6052 0.5519 0.6095 0.6437
2710.214 0.6686 0.6468 0.6364 0.6449 0.6021 0.625 0.7066 0.8131 0.8716 0.9445
2729.504 0.9167 0.896 0.9952 1.123 1.2143 1.27 1.345 1.335 1.286 1.1913
2748.794 1.1613 1.1653 1.0694 0.9849 0.9359 0.8506 0.7891 0.7397 0.7156 0.7746
2768.083 0.8054 0.7747 0.8005 0.7777 0.7749 0.8685 0.9083 0.9256 0.943 0.8976
2787.373 0.9028 1.0371 1.0728 1.0195 0.9907 1.0395 1.0148 1.0545 1.0982 1.0729
2806.663 1.1675 1.153 1.1938 1.2908 1.365 1.495 1.555 1.695 1.875 1.855
2825.953 1.935 2.165 2.215 2.275 2.445 2.665 2.915 3.035 3.215 3.445
2845.242 3.705 4.075 4.435 4.795 5.235 5.705 6.135 6.685 7.385 8.135
2864.532 8.935 9.795 10.705 11.555 12.235 12.775 13.125 13.345 13.495 13.295
2883.822 12.915 12.575 12.055 11.595 11.385 11.155 10.895 10.735 10.585 10.545
2903.112 10.755 11.145 11.485 11.985 12.705 13.575 14.755 16.225 17.795 19.475
2922.401 21.505 23.625 25.905 28.225 30.075 31.415 32.295 32.505 31.835 30.515
2941.691 28.815 26.975 24.895 22.775 20.865 19.335 18.165 17.135 16.345 15.835
2960.981 15.375 14.915 14.645 14.295 13.965 13.785 13.525 13.335 13.375 13.395
2980.271 13.465 13.595 13.865 14.245 14.455 14.565 14.775 15.105 15.395 15.715
2999.561 16.035 16.435 16.855 17.275 17.835 18.345 19.085 20.045 21.315 22.835
3018.850 24.345 25.895 27.275 27.855 27.665 27.075 25.825 23.955 21.685 19.615
3038.140 17.965 16.795 16.135 15.905 15.855 15.645 15.495 15.255 14.845 14.505
3057.430 14.095 13.535 12.875 12.145 11.255 10.585 9.975 9.175 8.475 7.945
3076.720 7.445 6.945 6.535 6.315 6.045 5.745 5.535 5.315 5.195 4.965
3096.009 4.755 4.645 4.395 4.085 3.845 3.625 3.365 3.115 2.835 2.605
3115.299 2.545 2.345 2.185 2.165 2.055 1.995 1.975 1.915 1.815 1.785
3134.589 1.825 1.845 1.675 1.505 1.525 1.475 1.2406 1.1082 0.9923 0.8847
3153.879 0.8205 0.6795 0.6523 0.6742 0.7108 0.6924 0.603 0.518 0.4262 0.4585
3173.169 0.5179 0.5709 0.5935 0.5064 0.4192 0.38487 0.4839 0.5155 0.43 0.32489
3192.458 0.2616 0.2673 0.2005 0.300488 0.4721 0.4893 0.4528 0.4606 0.37099 0.18
3211.748 0.2499 0.4003 0.4725 0.4421 0.37062 0.4006 0.5006 0.5368 0.36765 0.236
3231.038 0.261 0.2472 0.38849 0.37804 0.2832 0.29298 0.2324 0.32375 0.38886 0.432
3250.328 0.4539 0.37769 0.29005 0.33421 0.4542 0.454 0.3857 0.296238 0.300883 0.31936
3269.617 0.2735 0.2842 0.300646 0.2645 0.1963 0.299282 0.34682 0.2779 0.28949 0.32394
3288.907 0.3963 0.4284 0.357 0.31586 0.35961 0.38733 0.37837 0.261 0.1998 0.2548
3308.197 0.176 0.19 0.2114 0.044 0.005 0.058 0.031 0 0.076 0.2148
3327.487 0.2343 0.294866 0.2703 0.2423 0.38918 0.38912 0.29387 0.33237 0.33916 0.31446
3346.777 0.38216 0.399 0.31941 0.2184 0.2717 0.33044 0.38537 0.303874 0.2229 0.2783
3366.066 0.1965 0.2601 0.32072 0.30834 0.3641 0.4018 0.31411 0.2075 0.2752 0.2841
3385.356 0.2739 0.2376 0.2108 0.295661 0.2479 0.2433 0.35447 0.2717 0.2786 0.33339
3404.646 0.36702 0.4321 0.38719 0.37848 0.414 0.4043 0.34183 0.3233 0.31296 0.2627
3423.936 0.35765 0.4883 0.4138 0.38875 0.5204 0.4305 0.35274 0.36766 0.4857 0.5389
3443.225 0.5118 0.6156 0.5908 0.4645 0.4424 0.4615 0.35317 0.39068 0.4388 0.4647
3462.515 0.4309 0.4679 0.541 0.5045 0.5674 0.5845 0.68 0.8268 0.7522 0.6221
3481.805 0.6208 0.6182 0.667 0.6836 0.6882 0.7407 0.6598 0.6535 0.6447 0.7316
3501.095 0.9562 1.0739 1.1132 1.2125 1.325 1.445 1.605 1.605 1.605 1.755
3520.385 1.925 2.135 2.135 2.225 2.425 2.485 2.595 2.755 2.985 3.125
3539.674 3.195 3.395 3.635 3.935 4.425 4.745 5.215 6.085 7.145 8.585
3558.964 10.645 13.205 17.135 23.115 31.555 41.885 50.735 55.655 56.825 56.095
3578.254 53.745 47.745 37.735 27.125 18.995 13.775 10.555 8.255 6.615 5.625
3597.544 4.825 4.165 3.715 3.335 3.035 2.735 2.445 2.135 1.865 1.785
3616.833 1.765 1.685 1.545 1.485 1.425 1.495 1.515 1.305 1.1003 1.1465
3636.123 1.1921 1.0352 0.8942 0.821 0.9043 1.0059 0.8982 0.7241 0.7693 0.7301
3655.413 0.6039 0.6769 0.7062 0.6894 0.6268 0.536 0.4822 0.6616 0.6788 0.555
3674.703 0.5246 0.4594 0.453 0.5165 0.5491 0.4795 0.4788 0.36583 0.37747 0.4794
3693.993 0.4885 0.5144 0.5438 0.5489 0.4957 0.301984 0.282 0.4249 0.4314 0.5234
3713.282 0.4553 0.28794 0.38611 0.37028 0.2591 0.29093 0.2461 0.2417 0.34577 0.4142
3732.572 0.38672 0.2531 0.062 0.009 0.2301 0.4529 0.566 0.5292 0.4378 0.3951
3751.862 0.538 0.5085 0.4112 0.469 0.403 0.4511 0.5581 0.5829 0.5073 0.4269
3771.152 0.38718 0.35999 0.33559 0.2395 0.137 0.047 0.2359 0.35298 0.2153 0.2531
3790.441 0.4009 0.5202 0.4904 0.4339 0.4623 0.4466 0.37816 0.3513 0.33714 0.2519
3809.731 0.2537 0.35392 0.3447 0.2686 0.2406 0.296275 0.35913 0.4057 0.4441 0.2605
3829.021 0.104 0.2423 0.33988 0.298333 0.2437 0.4011 0.5292 0.4342 0.4216 0.4703
3848.311 0.4053 0.300256 0.39129 0.5464 0.5236 0.4623 0.4255 0.4068 0.4475 0.5368
3867.601 0.524 0.5837 0.6157 0.5126 0.5141 0.5057 0.453 0.5771 0.5227 0.37933
3886.890 0.33582 0.30633 0.4085 0.4492 0.4579 0.4265 0.4462 0.5116 0.6105 0.6244
3906.180 0.5362 0.6341 0.4633 0.224 0.34406 0.4067 0.4951 0.5445 0.4301 0.5544
3925.470 0.6633 0.497 0.28521 0.4434 0.7143 0.5117 0.435 0.479 0.4158 0.4429
3944.760 0.4084 0.4853 0.4984 0.3591 0.4051 0.38224 0.4081 0.5249 0.5468 0.5221
3964.049 0.5311 0.5493 0.4631 0.3976 0.35705 0.35627 0.3956 0.3964 0.37924 0.32569
3983.339 0.31595 0.434 0.4304 0.4844 0.6504 0.5502 0.4047 0.4568 0.6079 0.5306
##END=
