##TITLE=3-Fluoro-5-(trifluoromethyl)benzylamine
##JCAMP-DX=4.24
##DATA TYPE=INFRARED SPECTRUM
##ORIGIN=EPA-IR VAPOR PHASE LIBRARY
##OWNER=SRD/NIST
Collection (C) 2018 copyright by the U.S. Secretary of Commerce
on behalf of the United States of America. All rights reserved.
##CAS REGISTRY NO=150517-77-4
##MOLFORM=C 8 H 7 F 4 N
##$NIST SOURCE=MSDC-IR
##STATE=gas
##XUNITS=1/CM
##YUNITS=ABSORBANCE
##XFACTOR=1.
##YFACTOR=0.001
##DELTAX=1.92898
##FIRSTX=549.8
##LASTX=4000.7
##FIRSTY=2.54
##MAXX=4000.7
##MINX=549.759
##MAXY=0.08526
##MINY=0
##NPOINTS=1790
##XYDATA=(X++(Y..Y))
549.759 2.54 2.2357 1.103 0.639 1.144 0.572 0.9 1.328 1.6488 2.0011
569.049 1.5675 2.101 1.111 0.665 2.0748 2.84 2.93 2.5 2.98 2.98
588.339 2.2439 2.73 2.83 2.69 2.2609 1.9028 2.0891 2.0568 1.7723 2.1405
607.628 2.48 2.0555 1.9548 2.2253 2.0439 1.766 2.2675 2.99 3.32 2.89
626.918 2.91 3.48 2.9 2.45 3.18 3.44 3.3 3.37 3.22 3.21
646.208 3.46 3.06 2.3728 2.79 3.43 3.38 2.79 2.52 2.97 2.83
665.498 2.76 3.39 3.3 3.25 3.59 3.58 3.76 3.78 4.17 5.33
684.787 5.97 6.24 7.23 7.85 8.18 9.19 10.62 12.46 12.56 12.29
704.077 12.84 13.58 14.42 14.62 15.14 15.05 14.75 14.45 12.9 11.15
723.367 9.02 7.12 6.46 6.01 5.66 5.83 5.79 5.08 4.97 5.44
742.657 5.92 6.49 6.64 6.48 6.42 6.33 6.47 7.08 7.56 7.94
761.947 8.16 8.17 7.79 7.97 8.53 8.8 8.93 8.29 7.96 7.95
781.236 7.38 7.09 7.59 7.17 6.43 6.71 6.81 6.72 6.6 5.66
800.526 5.64 5.91 4.96 4.46 4.51 4.5 4.48 4.61 4.69 4.44
819.816 4.09 4.08 4.31 4.25 3.9 3.68 3.81 3.73 3.56 3.74
839.106 4.23 4.47 4.22 4.24 4.52 4.79 5.45 6.2 6.57 7.53
858.395 8.72 9.36 10.94 13.3 15.49 17.31 18.7 20.2 22.17 23.14
877.685 20.9 17.82 16.1 14.72 12.09 9.98 9.11 7.94 6.72 5.84
896.975 5.64 5.55 4.86 4.63 4.67 4.18 4.3 4.74 4.78 4.44
916.265 4.57 4.73 4.33 4.25 4.47 4.31 4.15 4.83 5.42 5.77
935.555 6.12 6.53 7.23 7.47 8.16 8.85 9.09 10.06 10.89 10.79
954.844 11.03 11.01 10.78 10.86 9.86 9.21 9.29 9.38 8.91 8.09
974.134 7.48 6.78 6.31 5.69 5.05 4.68 4.2 3.88 3.67 3.64
993.424 3.79 3.46 2.88 3.4 3.74 3.16 2.49 2.2723 2.77 2.47
1012.714 2.0352 3.34 3.93 2.73 2.6 2.78 2.57 3.22 3.56 3.17
1032.003 2.65 2.75 2.86 2.92 3.14 3.65 3.62 2.6 2.2288 2.53
1051.293 2.44 1.5482 2.61 2.9 2.52 3.23 3.23 3.37 3.61 3.51
1070.583 3.56 3.67 4.1 4.38 5.59 6.97 6.58 6.38 7.61 8.79
1089.873 10.94 13.13 11.68 10.65 9.8 8.06 6.95 6.9 6.54 4.59
1109.163 4.06 5.35 4.08 2.67 4.01 4.93 5.98 7.34 8.95 11.2
1128.452 13.26 17.98 22.81 27.63 33.53 40.28 50.43 60.17 68.64 76.85
1147.742 83.54 85.26 79.96 70.04 60.34 52.9 45.23 38.38 35.06 35.12
1167.032 38.56 45.52 54.12 60.96 65.93 68.58 66.21 60.55 54.87 47.72
1186.322 38.82 31.26 25.2 19.68 16.28 14.38 13.24 11.7 9.11 9.09
1205.611 8.92 7.17 6.76 8.94 10.28 10.02 13 17.63 21.49 26
1224.901 31.9 37.15 38.74 38.31 37.31 35.02 31.41 26.3 21.69 17.18
1244.191 14.37 12.99 10.83 9.09 8.21 7.89 6.86 6.09 5.62 4.73
1263.481 4.5 4.33 3.75 3.4 3.56 3.21 3.15 3.12 3.24 3.73
1282.771 3.13 3.18 3.28 2.94 3.48 3.67 3.54 3.81 4.13 4.34
1302.060 4.45 4.68 5.17 5.51 5.87 6.23 6.76 7.33 8.26 9.54
1321.350 11.08 13.48 16.54 20.53 25.49 31.57 39.18 47.9 57.15 66.07
1340.640 73.88 79.77 83.02 83.17 79.94 74.2 66.06 56.2 46.32 37.48
1359.930 30.26 24.57 20.43 17.49 15.38 13.83 12.91 12.14 11.38 11
1379.219 10.73 10.24 9.71 9.44 8.97 8.45 8.01 7.49 7.16 6.6
1398.509 6.03 5.84 5.55 5.27 5.03 4.72 4.6 4.54 4.63 4.93
1417.799 4.89 5.14 5.42 5.34 5.56 5.95 6.69 7.28 7.79 8.7
1437.089 9.88 11.12 12.41 14.08 15.58 16.88 18.19 19.35 20.33 20.58
1456.378 20.29 19.77 18.84 17.6 16.2 14.66 13.25 11.95 10.67 9.3
1475.668 8.01 7.02 6.16 5.17 4.55 4.37 3.97 3.59 3.31 3.05
1494.958 2.83 2.68 2.89 2.87 2.77 2.91 2.71 2.53 2.46 2.2705
1514.248 2.0978 1.9502 2.0973 2.3666 2.7 2.58 2.2969 2.2345 1.9398 1.9684
1533.538 2.3132 2.4016 2.57 2.5 2.3006 2.2248 2.3096 2.2534 1.8628 2.063
1552.827 2.3712 2.3261 2.3483 2.55 2.68 3.05 3.54 3.54 3.45 3.65
1572.117 3.88 4.08 4.37 4.6 4.91 5.02 5.28 5.91 6.81 7.68
1591.407 8.51 9.44 10.09 11.1 12.31 13.01 13.72 14.25 14.07 14.07
1610.697 14.03 13.62 13.13 12.66 11.81 10.93 10.4 9.55 8.52 7.65
1629.986 6.97 6.48 5.94 5.19 4.77 4.32 3.53 3.02 3.07 3.03
1649.276 2.74 2.66 2.74 2.68 2.4264 2.228 2.1348 2.0412 1.9578 2.0875
1668.566 2.1748 2.0226 1.8619 1.7646 1.9231 2.098 1.9362 1.7559 1.7483 1.4677
1687.856 1.27 1.3422 1.378 1.3775 1.49882 1.52342 1.45714 1.451 1.242 1.267
1707.146 1.49871 1.3 1.158 1.185 1.198 1.08 1.107 1.3906 1.42685 1.42092
1726.435 1.4031 1.3819 1.5551 1.651 1.52766 1.708 2.038 2.0737 2.1687 2.3378
1745.725 2.48 2.72 2.6 2.2547 2.0245 1.7624 1.7247 1.8229 1.7199 1.47825
1765.015 1.3495 1.322 1.191 1.308 1.48731 1.42391 1.352 1.44956 1.47013 1.3351
1784.305 1.293 1.27 1.4098 1.45943 1.3401 1.278 1.234 1.174 1.254 1.279
1803.594 1.088 1.084 1.172 1.126 1.102 1.035 0.978 0.97 1.012 1.107
1822.884 1.079 1.184 1.288 1.308 1.286 1.078 1.08 1.193 1.3306 1.133
1842.174 0.949 1.181 1.075 1.1 1.18 1.14 1.167 1.198 1.153 1.052
1861.464 1.15 1.219 1.115 1.108 1.04 0.995 0.909 0.885 0.96 0.928
1880.754 0.981 1.011 0.966 0.953 1.127 1.067 0.951 0.968 0.944 0.97
1900.043 1.01 1.041 1.103 1.1 1.128 1.046 0.995 0.959 0.742 0.929
1919.333 0.937 0.866 0.933 0.793 0.89 0.863 0.893 0.917 0.811 0.929
1938.623 1.063 1.013 0.83 0.978 1.023 0.877 0.934 0.876 0.938 0.916
1957.913 0.892 0.915 0.883 0.958 1.1 1.066 0.904 1.084 1.125 1.056
1977.202 0.947 1.047 1.147 0.982 1.012 1.188 1.221 1.177 1.273 1.183
1996.492 0.997 1.105 1.045 0.955 1.061 1.256 1.249 1.11 1.226 1.222
2015.782 1.252 1.3577 1.178 1.19 1.3645 1.45336 1.5323 1.45191 1.299 1.234
2035.072 1.206 1.089 1.176 1.3891 1.3811 1.18 1.175 1.4145 1.389 1.124
2054.362 0.959 1.066 1.253 1.236 1.121 1.177 1.179 1.021 0.937 1.095
2073.651 1.315 1.304 1.303 1.28 1.153 1.226 1.294 1.3 1.4136 1.264
2092.941 1.079 1.188 1.182 1.236 1.48204 1.43893 1.325 1.261 1.224 1.133
2112.231 1.101 1.086 1.06 1.095 1.131 1.078 1.021 1.014 1.087 1.141
2131.521 0.859 0.961 1.16 1.099 1.144 1.057 1.19 1.44118 1.45143 1.4791
2150.810 1.3629 1.141 1.046 1.102 1.096 1.33 1.50558 1.206 1.075 1.071
2170.100 1.154 1.123 0.987 1.184 1.216 1.143 1.209 0.975 0.939 1.277
2189.390 1.43012 1.3751 1.259 1.099 1.061 1.147 1.249 1.188 1.054 1.16
2208.680 1.302 1.166 1.234 1.329 1.194 1.209 1.3561 1.5481 1.6292 1.4952
2227.970 1.44897 1.6161 1.5473 1.4197 1.4131 1.3467 1.3718 1.5359 1.4911 1.303
2247.259 1.314 1.3571 1.244 1.174 1.46514 1.6621 1.46867 1.207 1.172 1.155
2266.549 1.092 1.215 1.306 1.275 1.3648 1.50183 1.46285 1.44166 1.5357 1.6538
2285.839 1.6771 1.6266 1.5586 1.45702 1.42931 1.44195 1.32 1.191 1.278 1.45756
2305.129 1.363 1.22 1.4077 1.588 1.49318 1.3879 1.308 1.4132 1.5842 1.7509
2324.418 1.8755 1.6628 1.6051 1.6575 1.5971 1.49011 1.6338 1.9265 1.6936 1.49175
2343.708 1.5726 1.596 1.3689 1.316 1.4996 1.45549 1.4108 1.5353 1.6657 1.6112
2362.998 1.5427 1.6674 1.48778 1.145 1.102 1.132 1.099 1.15 1.213 1.157
2382.288 1.155 1.277 1.326 1.197 1.3465 1.46343 1.243 1.201 1.239 1.23
2401.578 1.263 1.101 0.736 0.845 1.164 1.3853 1.6366 1.7401 1.6596 1.318
2420.867 1.241 1.074 0.949 1.056 1.315 1.7382 1.6015 1.52642 1.6059 1.42418
2440.157 1.324 1.46315 1.43899 1.4766 1.50521 1.242 1.216 1.184 1.228 1.3661
2459.447 1.5414 1.6307 1.5372 1.3508 1.18 1.116 0.917 0.935 1.028 1.151
2478.737 1.44585 1.43425 1.173 1.18 1.3361 1.3698 1.4905 1.6751 1.6544 1.3467
2498.026 1.121 1.259 1.4178 1.4077 1.219 1.277 1.273 1.279 1.4008 1.3918
2517.316 1.5668 1.3 0.959 1.157 1.146 1.106 1.272 1.192 1.122 1.118
2536.606 1.084 1.21 1.424 1.6028 1.283 1.051 1.32 1.3994 1.257 1.223
2555.896 1.23 1.244 1.224 1.099 1.3767 1.42939 1.254 1.5375 1.3738 1.241
2575.186 1.3544 1.179 1.275 1.168 1.062 1.183 1.275 1.273 1.314 1.294
2594.475 1.278 1.46565 1.3633 1.265 1.4 1.3926 1.3328 1.278 1.209 1.241
2613.765 1.3662 1.28 1.3491 1.275 1.013 1.4038 1.633 1.50476 1.4006 1.5451
2633.055 1.5873 1.329 1.291 1.3398 1.182 1.152 1.4199 1.3435 1.185 1.205
2652.345 1.24 1.4025 1.3314 0.952 1.048 1.237 1.11 1.3 1.3854 1.382
2671.634 1.5165 1.50806 1.7366 1.8339 1.3938 1.239 1.3793 1.5562 1.7871 1.8131
2690.924 1.8011 1.6477 1.5848 1.6664 1.46803 1.3624 1.47984 1.4162 1.192 1.168
2710.214 1.226 1.267 1.248 1.065 1.233 1.6831 1.6195 1.408 1.3381 1.3781
2729.504 1.7686 1.7046 1.6372 1.985 1.6898 1.48725 1.6337 1.45101 1.379 1.3496
2748.794 1.398 1.5098 1.6064 1.533 1.4106 1.7214 1.7775 1.5323 1.6786 1.7535
2768.083 1.6805 1.3669 1.3333 1.7839 1.8414 1.757 1.6222 1.3959 1.3725 1.7853
2787.373 1.9272 1.7818 1.6574 1.8293 1.9669 1.95 1.8744 1.46632 1.259 1.299
2806.663 1.51976 1.9827 2.0435 2.0781 2.4155 2.48 1.9961 1.625 2.1256 2.66
2825.953 2.65 2.201 2.3403 2.46 2.46 2.81 2.8 3.18 3.18 2.92
2845.242 3.29 3.33 3.69 3.98 3.74 3.75 3.78 3.42 3.34 3.91
2864.532 4.2 4.34 4.45 4.42 4.34 3.91 3.93 4.52 4.47 4.07
2883.822 4.04 4.16 3.97 3.8 4 3.9 4.02 4.15 3.93 4.28
2903.112 4.62 4.61 4.41 4.46 4.62 4.68 4.55 4.19 4.31 4.3
2922.401 4.03 4.04 3.79 3.9 4.05 3.86 4.02 4.04 3.95 3.88
2941.691 3.73 3.95 3.75 3.28 3.45 3.23 2.96 3 2.97 2.95
2960.981 2.85 2.62 2.68 2.54 2.0526 2.0745 2.0036 1.795 1.8353 1.9483
2980.271 1.885 1.9261 2.1968 2.0644 1.8028 1.5856 1.617 1.6887 1.215 1.4195
2999.561 1.7468 1.6727 1.8077 1.8168 1.7266 1.819 1.7619 1.50537 1.6149 1.8034
3018.850 1.6632 1.353 1.3438 1.5807 1.5735 1.7565 1.9807 1.42244 0.949 1.258
3038.140 1.6238 1.7852 1.6182 1.014 1.113 1.5824 1.6293 1.624 1.6552 1.9957
3057.430 2.3938 1.9232 1.5736 2.076 2.262 1.8927 2.0182 2.0571 1.5591 1.6548
3076.720 2.3076 2.3026 1.8414 1.9092 1.7132 1.6624 2.1966 2.1355 1.5957 1.4546
3096.009 1.26 1.296 1.50723 1.164 1.152 1.5572 1.207 0.95 1.7127 2.1413
3115.299 1.6561 1.151 1.06 1.227 1.5623 1.6685 1.302 0.695 0.41 0.431
3134.589 0.998 1.3366 1.242 1.147 1.069 1.068 0.745 0.664 0.932 1.117
3153.879 1.5741 1.6717 1.43901 1.5523 1.5286 1.3831 0.879 0.912 1.097 0.842
3173.169 1.016 1.44749 1.31 0.81 0.887 1.4018 1.5383 1.204 1.115 1.329
3192.458 1.207 0.979 1.215 1.43424 1.109 0.782 1.147 1.3566 1.02 0.865
3211.748 0.921 1.302 1.3949 0.952 1.072 1.215 1.326 1.50977 1.3525 1.018
3231.038 0.745 0.25 0.35 0.708 1.011 1.168 1.106 1.142 1.032 1.288
3250.328 1.6071 1.6912 1.4161 1.011 0.925 0.985 1.24 1.277 1.6962 1.6099
3269.617 0.987 1.029 1.079 1.186 0.862 1.125 1.7259 1.009 0.547 0.841
3288.907 0.972 1.196 1.057 0.535 0.29 0.836 1.108 1 1.3967 1.5435
3308.197 1.3 1.284 1.056 0.871 0.926 0.675 0.936 1.091 0.961 1.5689
3327.487 1.8765 1.3467 1.021 0.849 0.991 1.4196 1.281 1.207 1.159 0.753
3346.777 0.735 0.554 0.454 1.154 1.4005 1.6091 1.9699 1.7612 1.5621 1.695
3366.066 1.6506 1.3492 1.297 1.47103 1.6224 1.47009 1.057 1.23 1.201 1.167
3385.356 1.52222 1.3727 1.034 1.091 1.162 1.3411 1.107 0.903 0.994 0.96
3404.646 1.231 1.219 0.893 1.021 1.43439 1.207 0.91 1.43415 1.9578 1.271
3423.936 0.697 0.878 1.42996 1.7266 1.5796 1.6097 1.6288 1.265 1.045 1.3502
3443.225 1.6775 1.47307 1.219 1.162 1.293 1.5479 1.4226 1.42151 1.6842 1.102
3462.515 0.08 0.01 0.689 1.148 1.285 1.265 0.744 0.754 1.104 1.065
3481.805 0.975 0.843 0.771 0.844 0.954 1.113 0.964 0.735 0.781 1.016
3501.095 1.137 1.1 1.065 1.3322 1.165 1.008 0.917 0.902 1.3898 0.806
3520.385 0.02 0.553 1.062 0.718 1.046 1.213 0.778 0.815 1.034 0.954
3539.674 1.024 1.108 0.754 0.468 0.785 1.019 1.059 1.262 1.6718 1.4164
3558.964 0.956 0.53 0.645 1.48226 1.3731 1.221 1.4189 1.8422 1.47585 1.3867
3578.254 1.7609 1.5432 1.238 0.954 0.89 1.105 0.792 0.431 0.39 0
3597.544 0.28 1.084 1.3893 1.3614 1.173 0.822 0.35 0.557 1.052 1.133
3616.833 1.46907 1.7574 1.372 1.116 0.966 0.689 0.708 0.25 0.32 0.755
3636.123 1.079 1.44652 1.3904 1.316 1.236 0.61 0.653 1.064 0.956 1.32
3655.413 1.313 0.944 1.177 1.287 0.888 0.822 0.708 0.627 0.754 0.755
3674.703 0.904 0.628 0.629 0.84 0.493 0.613 0.949 1.21 0.957 0.852
3693.993 0.868 0.817 1.6003 1.7482 1.259 1.372 1.404 1.114 0.968 0.707
3713.282 1.001 0.856 0.948 0.957 0.459 0.664 0.598 0.823 1.032 1.01
3732.572 0.892 0.669 0.598 0.436 0.726 0.835 0.966 1.168 1.51452 2.0567
3751.862 1.52101 1.419 1.44081 1.181 1.3808 1.238 1.3375 1.3474 1.283 1.3691
3771.152 1.5399 2.0537 1.8296 1.44263 1.3378 1.6479 1.308 0.796 0.941 1.001
3790.441 1.3458 1.219 0.993 1.50439 1.8082 1.5718 1.157 1.139 1.5648 1.7842
3809.731 1.173 0.692 0.623 0.834 1.139 1.055 1.235 1.46265 1.4052 1.091
3829.021 0.879 1.048 1.46691 1.5363 1.3709 1.236 1.325 1.186 0.823 0.969
3848.311 0.891 0.506 0.764 0.74 0.914 1.6055 1.7984 1.225 0.772 1.5562
3867.601 1.8578 1.298 1.055 1.034 1.244 1.52624 1.3936 1.28 0.944 1.206
3886.890 1.6233 0.898 0.794 0.952 0.923 1.174 1.141 1.02 1.095 1.302
3906.180 1.51868 1.4298 1.317 1.3714 1.122 1.395 1.49454 0.874 0.846 1.285
3925.470 1.45747 1.148 0.723 1.055 1.279 1.036 0.819 1.08 0.984 0.453
3944.760 1.16 1.3558 0.949 0.991 1.319 1.284 1.061 1.15 1.014 0.806
3964.049 0.69 1.021 1.277 1.276 1.21 1.39 1.52459 1.293 1.21 0.992
3983.339 1.3632 1.7473 1.3713 0.653 1.095 1.6637 0.987 1.50297 1.4115 0.42
##END=
