##TITLE=2-(2-Allyloxyethoxy)ethanol
##JCAMP-DX=4.24
##DATA TYPE=INFRARED SPECTRUM
##ORIGIN=EPA-IR VAPOR PHASE LIBRARY
##OWNER=SRD/NIST
Collection (C) 2018 copyright by the U.S. Secretary of Commerce
on behalf of the United States of America. All rights reserved.
##CAS REGISTRY NO=15075-50-0
##MOLFORM=C 7 H 14 O 3
##$NIST SOURCE=MSDC-IR
##STATE=gas
##XUNITS=1/CM
##YUNITS=ABSORBANCE
##XFACTOR=1.
##YFACTOR=0.001
##DELTAX=1.92898
##FIRSTX=549.8
##LASTX=4000.7
##FIRSTY=3.884
##MAXX=4000.7
##MINX=549.759
##MAXY=0.081224
##MINY=0
##NPOINTS=1790
##XYDATA=(X++(Y..Y))
549.759 3.884 3.904 3.654 3.264 2.424 2.184 2.144 3.534 4.374 3.494
569.049 2.704 2.634 2.874 2.674 2.434 2.544 1.974 2.184 2.634 2.234
588.339 2.614 3.214 3.474 3.164 2.204 1.814 1.804 2.034 2.284 2.134
607.628 1.5393 1.1321 1.864 1.804 1.2428 2.174 2.504 2.434 2.964 3.064
626.918 2.804 2.504 2.424 2.294 2.464 2.264 1.974 1.5058 1.4992 1.4455
646.208 0.77264 1.2672 1.854 1.4606 1.6028 1.844 1.744 1.764 1.784 2.284
665.498 2.404 2.184 2.034 2.084 1.4374 0.868 1.7066 1.974 1.276 1.0841
684.787 1.4131 1.754 1.824 1.6092 1.0837 0.6894 0.76234 1.345 1.6168 1.1986
704.077 1.0633 1.1166 1.5219 1.5252 0.9801 0.74803 0.7079 1.354 1.5976 1.2583
723.367 1.2122 1.1736 1.1682 1.734 1.914 1.4244 1.3902 1.934 2.304 2.104
742.657 1.784 1.1764 0.9563 1.1609 1.2173 1.5022 1.515 1.4577 1.5613 1.2473
761.947 1.1193 1.641 2.204 2.264 2.214 1.974 1.5665 1.854 2.064 1.894
781.236 1.914 1.3132 1.4448 2.674 2.944 2.624 2.214 2.184 2.264 2.234
800.526 2.374 2.704 3.014 2.894 3.004 3.234 3.724 4.154 3.964 3.954
819.816 4.284 4.804 4.534 3.554 3.874 4.394 4.284 4.024 4.114 4.844
839.106 5.224 5.074 5.524 5.924 5.774 6.124 6.274 5.714 5.964 6.824
858.395 6.864 7.534 8.194 7.504 7.514 8.164 7.944 8.034 8.784 8.704
877.685 8.524 8.924 9.204 9.114 9.334 9.884 9.814 10.554 11.234 10.944
896.975 10.544 10.394 11.124 11.804 11.854 12.134 12.894 13.564 14.304 15.364
916.265 16.614 17.964 18.714 19.354 20.424 20.674 20.074 19.584 18.844 17.764
935.555 16.864 15.664 14.494 13.454 12.504 11.734 11.184 10.744 10.444 10.474
954.844 10.334 10.014 9.944 10.314 10.574 10.314 10.204 10.464 11.324 12.814
974.134 12.914 12.244 13.034 14.374 15.194 16.144 16.894 17.414 18.424 19.124
993.424 19.674 20.354 20.984 21.284 20.834 20.384 20.174 20.154 20.004 19.544
1012.714 20.264 20.934 21.084 22.274 24.004 24.424 23.804 24.474 25.004 25.224
1032.003 26.704 27.304 27.384 29.034 30.444 31.154 32.174 33.624 36.274 37.814
1051.293 38.454 39.994 40.864 42.454 43.154 44.084 44.474 44.264 45.104 43.824
1070.583 42.434 42.854 41.834 40.774 41.394 41.594 41.374 42.384 43.544 44.204
1089.873 46.364 49.214 51.174 54.044 56.804 58.494 61.214 63.994 67.744 71.024
1109.163 72.074 74.214 76.284 76.094 78.264 81.224 80.384 79.624 80.424 79.004
1128.452 75.774 74.944 74.094 70.894 69.004 66.584 62.874 60.654 57.324 52.184
1147.742 48.184 45.314 42.154 39.034 36.134 32.704 29.714 26.824 24.334 22.604
1167.032 20.824 19.284 17.784 15.754 13.704 13.314 13.314 11.914 11.674 11.924
1186.322 10.114 8.724 9.204 8.924 9.344 10.084 9.884 9.884 8.524 8.764
1205.611 10.144 10.024 9.594 9.694 9.354 8.614 10.094 11.314 10.374 8.984
1224.901 8.424 8.394 8.564 8.994 9.344 9.994 10.374 10.214 10.324 10.694
1244.191 10.544 11.154 12.084 11.974 11.654 11.224 11.474 12.074 12.734 12.644
1263.481 12.184 12.224 12.034 11.634 11.574 11.614 11.704 11.424 11.014 11.084
1282.771 10.744 10.844 11.294 11.134 10.674 10.504 10.484 10.144 9.904 9.634
1302.060 9.054 8.494 8.224 8.344 8.204 8.004 8.124 8.244 8.444 8.674
1321.350 8.894 9.104 9.534 10.054 10.424 10.764 11.464 12.444 13.364 14.324
1340.640 15.364 16.464 17.384 18.114 18.654 18.834 18.644 18.044 17.204 16.464
1359.930 15.794 14.754 13.914 13.394 12.794 12.474 12.134 11.564 11.064 10.754
1379.219 10.344 10.034 9.754 9.444 9.414 9.374 9.174 9.044 8.954 9.034
1398.509 9.104 9.094 9.244 9.234 8.994 8.914 8.974 9.124 9.264 9.254
1417.799 9.364 9.534 9.634 9.554 9.324 9.194 8.774 8.414 8.174 7.754
1437.089 7.564 7.424 7.284 7.404 7.524 7.754 8.124 8.304 8.494 8.804
1456.378 9.294 9.654 9.794 9.694 9.334 9.064 8.804 8.544 8.014 7.354
1475.668 6.984 6.554 5.984 5.534 5.134 4.684 4.324 4.044 3.884 3.504
1494.958 3.164 2.914 2.654 2.444 2.354 2.294 2.024 2.014 2.134 1.874
1514.248 1.7231 1.844 1.824 1.794 1.6039 1.6088 1.6437 1.6722 1.663 1.4982
1533.538 1.5779 1.6131 1.814 2.084 1.834 1.774 1.7192 1.4424 1.5101 1.5897
1552.827 1.4858 1.4989 1.438 1.3334 1.3898 1.2549 1.1234 1.1379 1.4296 1.5002
1572.117 1.2812 1.3267 1.2906 1.2605 1.2142 1.0228 1.1419 1.2348 1.1041 1.1938
1591.407 1.3906 1.399 0.8429 0.81182 1.2769 1.3694 1.4582 1.3507 1.2184 1.4093
1610.697 1.5021 1.3577 1.4999 1.6635 1.874 1.5919 1.4064 1.744 1.764 1.834
1629.986 1.6575 1.6877 1.894 2.124 2.104 1.894 2.254 2.574 2.334 2.294
1649.276 2.534 2.464 2.424 2.244 1.994 1.784 1.844 1.7081 1.4069 1.3471
1668.566 1.255 1.1375 1.1034 1.1315 1.0507 1.2477 1.2623 1.0432 1.1049 1.1268
1687.856 1.0901 1.2658 1.3337 1.3804 1.3599 0.9683 1.1226 1.3231 1.0846 0.9135
1707.146 0.8651 0.8749 0.743241 0.7193 0.79979 0.7236 0.627 0.72759 0.8734 1.1008
1726.435 1.1381 0.9669 0.83029 0.9701 1.0297 1.033 1.006 0.8898 1.0151 1.1491
1745.725 1.2189 1.1645 0.8827 0.6732 0.6878 0.78326 0.8952 0.954 1.0071 1.2094
1765.015 1.2459 0.9326 0.8649 0.9661 1.0129 0.9501 0.8806 0.9726 0.9608 1.0607
1784.305 1.2387 1.0337 0.9453 1.0208 1.0522 1.2039 1.1143 1.0856 0.9584 0.741041
1803.594 0.8449 0.81627 0.79228 1.0072 1.2124 1.0762 1.0102 1.1552 1.0841 1.0272
1822.884 1.1748 1.2287 1.2277 1.3352 1.3858 1.3247 1.5548 1.764 1.824 1.934
1842.174 1.794 1.784 1.934 1.924 1.974 2.094 2.134 1.974 1.934 2.024
1861.464 1.824 1.671 1.754 1.804 1.6778 1.5924 1.6041 1.4824 1.4043 1.5773
1880.754 1.6988 1.5022 1.2532 1.0926 1.1914 1.4232 1.5693 1.5333 1.3705 1.3813
1900.043 1.4577 1.4421 1.2345 1.2312 1.2367 1.1205 1.2341 1.4976 1.5498 1.6181
1919.333 1.6778 1.5462 1.4758 1.6399 1.844 1.764 1.7137 1.904 1.924 1.784
1938.623 1.774 1.7267 1.794 1.864 1.844 1.894 1.864 1.744 1.712 1.794
1957.913 1.904 1.934 1.894 1.924 1.864 1.734 1.6305 1.6286 1.804 1.814
1977.202 1.814 1.844 1.844 1.774 1.65 1.5127 1.665 1.854 1.804 1.904
1996.492 1.924 1.904 1.794 1.6321 1.5194 1.4655 1.3158 1.1806 1.5236 1.6825
2015.782 1.6329 1.5768 1.4436 1.519 1.59 1.5672 1.5153 1.359 1.3858 1.4413
2035.072 1.4455 1.344 1.1904 1.2354 1.3313 1.2635 1.2343 1.2786 1.2752 1.3936
2054.362 1.425 1.415 1.386 1.2593 1.184 1.1937 1.315 1.6024 1.6099 1.4289
2073.651 1.3362 1.3756 1.354 1.4026 1.5705 1.5888 1.6412 1.5413 1.5706 1.774
2092.941 1.784 1.6653 1.6291 1.6091 1.5796 1.6013 1.4951 1.2339 1.213 1.5406
2112.231 1.7114 1.844 1.864 1.6975 1.6671 1.705 1.6901 1.4472 1.2203 1.3236
2131.521 1.4998 1.5434 1.5312 1.422 1.4548 1.4438 1.3182 1.3135 1.2663 1.2016
2150.810 1.3526 1.3194 1.3292 1.5839 1.5088 1.3017 1.1279 0.9761 0.9723 1.0846
2170.100 1.1183 1.2207 1.2695 1.211 1.3207 1.1915 1.1877 1.1888 1.1453 1.2852
2189.390 1.2239 1.1878 1.2649 1.1095 0.9348 1.111 1.0865 1.0432 1.3845 1.5007
2208.680 1.3147 1.1571 1.1555 1.1225 1.0772 1.1216 1.0194 0.9634 0.9338 0.9252
2227.970 1.1261 1.0699 1.033 1.1807 1.0775 1.2312 1.3571 1.119 0.9131 0.78214
2247.259 0.77237 0.969 1.2063 1.2708 1.1176 1.1706 1.1746 1.0967 1.1257 1.2236
2266.549 1.1746 1.0011 0.9742 1.0495 1.1512 0.9861 0.9913 0.9225 0.81665 0.9338
2285.839 0.9104 0.9207 0.9721 1.0185 1.0864 1.1205 0.9508 0.80966 1.0948 1.2383
2305.129 0.8821 0.77829 1.0203 1.1233 1.0864 1.012 0.8351 1.0648 1.3516 1.1963
2324.418 1.1183 1.1389 0.9706 0.75216 0.81742 0.77922 0.9458 1.0168 1.0642 1.2149
2343.708 1.1069 0.9794 0.79153 0.78234 0.82409 0.81662 0.8586 0.9386 1.034 1.1173
2362.998 0.9243 0.9274 0.9582 0.8454 0.9792 0.82186 0.6746 0.9267 0.751 0.6408
2382.288 0.8942 0.6618 0.75489 0.9737 0.75074 0.74735 0.80831 0.83271 0.9057 0.9751
2401.578 1.0075 1.2454 1.3212 1.0901 0.9742 1.0215 0.8949 0.8769 1.2346 1.3511
2420.867 1.3135 1.3505 1.405 1.3101 1.1277 1.0094 1.0401 1.1818 1.3293 1.0482
2440.157 0.8913 1.1838 0.9886 0.71 0.8994 1.1358 0.9054 0.73087 1.062 1.0418
2459.447 0.616 0.8547 1.2213 0.9511 0.877 0.9039 0.79332 1.0397 1.2631 1.0536
2478.737 1.0776 1.2133 1.1284 1.0586 0.75022 0.8076 1.159 1.0189 0.7041 0.80059
2498.026 1.0095 1.0278 0.77205 0.72646 0.82354 0.76487 0.8737 0.9576 1.1502 1.1458
2517.316 1.1746 1.0793 1.0121 1.0706 1.0785 1.2248 1.2877 1.0984 1.0823 1.1702
2536.606 1.1949 1.2927 1.3551 1.4425 1.3523 1.2211 1.1777 1.3132 1.1335 1.0669
2555.896 1.2547 1.1828 1.1915 0.9856 0.76244 0.8789 1.1198 1.067 0.82572 0.8531
2575.186 0.8826 0.9479 0.9666 1.0963 1.3506 1.4076 1.3288 1.0425 0.8549 0.9034
2594.475 0.9816 1.2718 1.4499 1.1539 0.996 1.2458 1.2365 1.0193 0.8975 0.80073
2613.765 1.2083 1.4096 1.2824 1.5978 1.593 1.2852 1.1611 1.0234 1.2201 1.2087
2633.055 1.1112 1.3349 1.3519 1.4153 1.4832 1.5559 1.764 1.744 1.3912 1.2332
2652.345 1.6352 1.784 1.5082 1.705 1.904 2.084 2.014 1.7108 1.964 2.084
2671.634 2.004 1.994 2.284 2.494 2.604 2.664 2.474 2.414 2.314 2.254
2690.924 2.824 3.024 2.654 2.904 3.144 3.094 2.884 3.004 3.314 3.584
2710.214 3.804 3.654 3.414 3.834 3.944 3.724 3.684 3.834 4.144 4.054
2729.504 4.074 4.024 3.634 3.414 3.544 3.744 3.784 3.694 3.924 4.144
2748.794 3.864 3.634 4.214 4.564 4.264 4.374 4.384 4.424 4.564 4.744
2768.083 5.174 4.934 4.924 5.494 5.424 5.294 5.544 5.584 5.804 5.784
2787.373 5.514 5.994 6.304 6.554 6.814 6.894 7.424 7.554 7.734 8.044
2806.663 8.244 8.554 8.684 9.394 9.754 9.714 9.934 10.334 10.914 11.344
2825.953 12.054 12.884 13.684 14.624 15.804 17.064 18.484 19.784 21.524 23.584
2845.242 25.074 26.914 29.364 31.464 33.294 35.154 37.474 39.864 41.314 42.614
2864.532 43.584 43.994 44.344 44.844 45.214 45.694 45.654 44.834 44.614 44.384
2883.822 43.774 43.414 42.784 42.184 41.824 41.124 40.714 40.364 39.894 39.694
2903.112 39.194 38.694 38.254 37.864 37.924 37.834 37.894 38.134 38.284 38.194
2922.401 38.284 38.724 38.914 39.274 39.344 38.994 38.844 38.924 38.684 38.114
2941.691 37.534 37.184 36.784 36.064 35.504 35.004 33.974 32.644 31.484 30.084
2960.981 28.504 27.044 25.334 23.574 22.214 20.464 18.014 16.284 15.304 13.864
2980.271 12.584 12.164 11.524 10.504 10.214 9.844 8.884 8.474 8.454 7.994
2999.561 7.624 7.254 7.284 7.254 6.744 6.324 6.044 6.034 6.094 6.334
3018.850 6.194 5.984 5.894 5.294 5.014 4.844 4.564 4.434 4.324 4.344
3038.140 3.964 3.734 3.404 3.394 3.814 3.774 3.454 3.034 3.214 3.284
3057.430 3.544 4.294 4.164 3.734 3.994 4.034 3.824 3.824 3.864 3.834
3076.720 4.414 5.484 5.994 5.934 5.774 5.744 6.034 6.414 6.044 6.084
3096.009 6.034 5.364 5.134 4.894 4.544 4.064 3.834 3.484 2.954 2.414
3115.299 1.784 1.804 1.6156 1.2693 1.3183 1.1158 1.2401 1.4101 1.2487 1.3834
3134.589 1.7077 1.7095 1.5686 1.1604 0.9141 0.858 0.8704 1.1883 1.3301 1.574
3153.879 1.6887 1.7191 1.5541 1.1141 0.962 0.83296 0.73092 1.2259 1.2658 1.0649
3173.169 1.0993 1.2359 1.1768 0.83268 0.7207 0.618 0.587 0.6795 0.498 0.472
3192.458 0.8608 1.1906 0.7313 0.578 0.821 0.535 0.575 0.78162 0.81735 0.629
3211.748 0.83228 0.9052 0.77007 0.76568 0.8671 0.79304 0.9346 1.0363 0.9713 1.1582
3231.038 1.2871 1.1721 0.384 0.117 0.045 0.9231 1.6939 1.382 0.81619 0.588
3250.328 0.733026 0.8767 1.0666 1.033 1.154 1.2227 1.2178 0.78743 0.8437 0.9084
3269.617 0.6771 0.6654 0.472 0.586 0.81587 0.8444 0.6754 0.458 0.519 0.443
3288.907 0.456 0.58 0.81572 0.9509 0.587 0.6 0.8839 1.0923 1.6601 1.5951
3308.197 0.9314 0.7189 0.79969 0.74616 0.6916 0.575 0.74789 0.8652 0.264 0.7292
3327.487 1.5421 0.82408 1.0014 1.5421 0.8958 0.59 0.438 0.368 0.9622 1.3856
3346.777 1.2058 0.9445 0.81386 0.9279 0.738186 0.9066 0.9385 0.81574 1.0085 0.9055
3366.066 0.394 0.275 0.77311 0.8658 0.9425 0.80051 0.6925 0.61 0.8375 1.4583
3385.356 1.0927 1.1293 1.1309 0.8688 1.2019 1.0508 0.333 0.047 0.8259 0.6739
3404.646 0.241 0.6541 0.83141 1.3606 2.054 1.7321 1.764 1.4266 0.464 0.333
3423.936 0.373 0.83047 1.0723 1.1314 1.505 1.3479 1.2891 1.7001 1.2266 0.486
3443.225 0.8465 1.4717 1.2737 0.8985 1.0057 1.3934 1.2988 1.038 1.1099 0.6882
3462.515 0.9123 0.9076 0.634 1.4545 1.4098 1.1668 1.5134 1.5846 1.439 1.1257
3481.805 1.0472 0.79829 0.6533 1.1236 1.2929 1.774 2.094 1.934 1.5642 1.0601
3501.095 1.0002 0.9603 1.4258 1.5292 1.3576 1.7193 1.924 1.854 1.661 1.6319
3520.385 2.034 2.064 1.984 1.964 1.834 1.914 2.384 2.524 2.084 2.344
3539.674 2.464 2.364 2.304 2.324 2.494 2.684 2.904 2.574 2.274 1.924
3558.964 2.084 2.414 2.464 2.334 2.004 1.924 2.314 2.764 2.574 2.754
3578.254 3.024 3.014 3.054 2.484 2.194 2.534 2.554 2.694 3.064 2.964
3597.544 2.844 3.184 2.864 2.744 3.014 3.494 3.644 3.744 4.724 5.164
3616.833 5.004 4.574 4.914 5.484 5.644 6.174 6.754 6.874 6.124 5.904
3636.123 6.154 5.634 5.094 4.804 4.714 4.744 4.244 3.834 3.754 3.594
3655.413 3.674 4.084 3.694 3.424 3.994 4.004 3.924 3.834 3.954 3.824
3674.703 3.324 3.344 3.164 3.404 3.544 3.364 3.204 2.954 2.704 2.134
3693.993 1.744 1.3026 1.1501 1.3314 1.5148 1.5166 1.7121 1.2839 1.2739 2.144
3713.282 1.974 1.4408 1.5193 1.5959 1.3051 1.0727 0.76611 0.8696 1.155 1.2191
3732.572 1.0377 0.9356 1.5686 1.63 0.8529 1.0321 1.6935 1.663 1.874 2.134
3751.862 1.814 1.2894 1.3221 1.7166 1.774 1.5151 1.1414 1.3405 1.619 1.4359
3771.152 1.3233 0.9588 0.51 0.856 1.5212 1.4418 1.3217 1.4418 1.2387 1.4154
3790.441 1.4845 0.8962 0.79815 1.0329 0.77583 0.7188 1.2388 1.1585 0.8985 1.2981
3809.731 1.2879 1.075 1.0053 1.3185 2.034 2.004 1.5849 1.317 0.76125 0.472
3829.021 1.0959 1.824 1.2447 0.294 0.487 0.79048 0.213 0 0.81924 1.1706
3848.311 0.8576 0.6487 0.546 0.6969 0.9363 0.592 0.164 0.405 0.73385 0.931
3867.601 1.4005 1.924 1.66 1.6599 1.3376 1.2677 1.4731 1.1365 0.79821 0.74087
3886.890 0.938 0.9119 1.1246 1.1482 1.0431 1.2326 1.374 1.4228 1.5607 1.1754
3906.180 1.0216 1.0201 1.0907 1.1849 1 1.2912 1.3908 1.113 0.9367 1.2216
3925.470 1.4834 1.4351 1.2454 1.2343 1.4617 1.864 1.894 1.1413 0.9862 1.0155
3944.760 0.9835 1.3454 1.6349 1.109 0.8848 1.2474 0.915 0.439 0.374 0.659
3964.049 1.2904 1.744 1.6586 1.974 2.304 1.774 1.4962 1.3224 1.4071 2.034
3983.339 1.924 1.4181 0.8369 0.7058 1.2255 1.6533 1.3602 1.1884 1.34 0.9488
##END=
