##TITLE=2-Chlorophenyl phosphorodichloridate
##JCAMP-DX=4.24
##DATA TYPE=INFRARED SPECTRUM
##ORIGIN=EPA-IR VAPOR PHASE LIBRARY
##OWNER=SRD/NIST
Collection (C) 2018 copyright by the U.S. Secretary of Commerce
on behalf of the United States of America. All rights reserved.
##CAS REGISTRY NO=15074-54-1
##MOLFORM=C 6 H 4 Cl 3 O 2 P
##$NIST SOURCE=MSDC-IR
##STATE=gas
##XUNITS=1/CM
##YUNITS=ABSORBANCE
##XFACTOR=1.
##YFACTOR=0.001
##DELTAX=1.92934
##FIRSTX=549.9
##LASTX=3999.5
##FIRSTY=296.83
##MAXX=3999.53
##MINX=549.863
##MAXY=0.77333
##MINY=0
##NPOINTS=1789
##XYDATA=(X++(Y..Y))
549.863 296.83 287.75 267.2 239.72 212.45 192.14 181 177.3 178.65 183.25
569.156 189.82 196.95 203.89 210.2 215.67 220.21 224.16 228.25 233.07 239.4
588.450 247.74 258.28 271 285.52 301.29 318.65 338.55 360.66 383.97 407.05
607.743 428.7 448.19 464.44 475.64 479.78 475.01 460.06 433.82 395.8 347.67
627.037 294.02 240.16 190 146.74 112.7 87.76 70.06 57.59 48.73 42.22
646.330 37.43 34 31.74 30.44 30.06 30.67 32.37 35.43 39.91 46.03
665.624 53.61 62.27 70.75 77.39 81.67 83.14 81.81 77.47 70.09 61.04
684.917 52.06 44.24 38.18 33.84 31.12 29.59 28.79 28.74 29.49 30.99
704.210 32.94 34.64 35.54 35.72 35.23 34.02 32.21 29.93 27.97 26.95
723.504 26.86 27.77 29.73 32.97 37.95 45.16 55.45 69.68 88.52 111.84
742.797 138.74 168.22 199.69 231.2 255.26 262.4 256.11 247.73 239.58 229.59
762.091 217.48 203.36 187.05 168.58 148.64 127.91 107.24 88.14 71.9 58.9
781.384 48.79 41.05 35.14 30.63 27.17 24.45 22.34 20.62 19.2 18.08
800.678 17.22 16.51 15.87 15.35 14.89 14.49 14.2 14 13.88 13.87
819.971 13.92 13.97 14.02 14.17 14.36 14.44 14.5 14.53 14.6 14.75
839.264 14.98 15.43 16.02 16.85 17.86 18.98 20.16 21.24 22.05 22.58
858.558 22.99 23.41 23.89 24.42 25.02 25.71 26.43 27.11 27.73 28.32
877.851 28.94 29.6 30.19 30.75 31.26 31.55 31.65 31.54 31.34 31.22
897.145 31.31 31.78 32.82 34.48 36.85 39.93 43.62 48.03 53.39 59.84
916.438 67.68 77.63 90.44 107.33 129.75 159.26 197.4 244.99 302.05 367.46
935.732 439.52 516.51 595.44 669.01 728.13 764.94 773.33 752.36 703.77 632.52
955.025 548.14 460.72 378.24 306.05 246.16 198.52 162.07 134.7 114.06 98.33
974.318 86.11 76.43 68.62 62.28 57.09 52.8 49.31 46.47 44.13 42.1
993.612 40.38 38.89 37.49 36.21 35.06 34.06 33.22 32.66 32.46 32.67
1012.905 33.33 34.57 36.67 39.76 44.05 49.74 56.91 65.09 73.2 79.83
1032.199 83.74 84.66 82.81 78.66 73 67.17 63.1 62.87 68.17 80.4
1051.492 100.85 130.09 166.42 204.48 236.34 255.77 260.97 252.06 229.73 195.42
1070.786 153.31 112.95 82.37 62.4 49.9 41.86 36.37 32.32 29.13 26.5
1090.079 24.3 22.43 20.8 19.39 18.18 17.13 16.34 15.75 15.36 15.21
1109.372 15.21 15.25 15.51 15.93 16.58 17.67 19.24 21.46 24.32 27.49
1128.666 30.47 32.64 33.73 33.88 33.25 31.65 29 25.99 23.45 21.9
1147.959 21.58 22.77 25.32 28.27 30.26 31.56 32.46 32.39 31.86 30.6
1167.253 29.11 28.53 29.14 30.74 33.24 36.63 40.95 46.41 53.1 61.19
1186.546 70.8 81.95 94.96 110.53 129.68 154.1 186.12 228.53 283.89 353.42
1205.840 435.49 524.09 609.1 678.78 723 734.76 709.62 649.66 564.84 470.7
1225.133 382.01 306.63 245.58 197.33 160.6 133.72 114.55 100.67 90.32 82.38
1244.426 75.81 70.35 66.07 63.21 62.45 64.8 70.87 79.67 88.53 95.06
1263.720 98.38 98.06 93.97 86.17 75.1 63.58 54.58 48.85 45.66 44.16
1283.013 43.84 44.41 45.94 48.5 52.15 56.96 63.02 70.5 79.55 90.41
1302.307 103.62 119.82 139.68 163.95 193.01 226.62 263.46 300.59 334.37 360.87
1321.600 377.06 381.56 374.21 356.14 330.53 301.99 273.52 245.96 218.92 191.27
1340.894 162.7 134.12 106.52 82.4 63.76 50.49 41.43 35.24 30.95 27.87
1360.187 25.53 23.61 22.06 20.85 19.88 19.1 18.53 18.2 18 17.93
1379.480 17.91 17.88 17.84 17.72 17.56 17.34 17.1 16.84 16.63 16.56
1398.774 16.66 16.92 17.4 18.14 19.04 20.04 21.09 21.99 22.65 22.94
1418.067 22.92 22.66 22.35 22.2 22.42 23.43 25.66 29.42 35.34 43.85
1437.361 55.65 69.57 84.17 96.8 104.78 107.66 105.7 99.67 90.68 80.65
1456.654 72.64 70.72 76.7 90.59 113.02 144.66 185.25 234.29 289.08 343.32
1475.948 384.96 408.06 408.73 388.31 349.37 296.65 236.56 179.49 134.16 104.05
1495.241 85 72.4 63.87 57.43 52.16 47.55 43.09 38.94 35.33 32.14
1514.534 29.5 27.31 25.62 24.28 23.01 21.94 20.93 19.94 18.97 18.02
1533.828 17.13 16.3 15.69 15.14 14.74 14.52 14.45 14.51 14.76 15.2
1553.121 15.8 16.68 17.83 19.43 21.55 24.18 27.73 32.25 37.92 44.75
1572.415 52.22 59.61 66.29 71.02 72.82 71.66 67.59 60.94 52.63 43.91
1591.708 36.23 30.3 25.8 22.18 19.23 16.96 15.33 14.17 13.3 12.56
1611.002 11.93 11.42 11.07 10.79 10.56 10.38 10.27 10.17 10.02 9.82
1630.295 9.61 9.44 9.23 8.98 8.77 8.57 8.39 8.25 8.11 7.9659
1649.588 7.8803 7.8748 7.8737 7.8809 7.9232 7.9837 8.08 8.21 8.39 8.65
1668.882 8.97 9.34 9.82 10.36 10.9 11.41 11.89 12.23 12.51 12.75
1688.175 12.87 12.93 13.01 13.14 13.34 13.61 13.97 14.35 14.69 14.99
1707.469 15.19 15.29 15.24 15.01 14.6 14.1 13.49 12.81 12.1 11.45
1726.762 10.82 10.2 9.66 9.18 8.78 8.46 8.17 7.9586 7.7445 7.5436
1746.056 7.3634 7.2195 7.14395 7.10191 7.09734 7.11997 7.2179 7.3307 7.4247 7.5521
1765.349 7.7281 7.9341 8.21 8.55 9.02 9.62 10.3 11.08 11.87 12.53
1784.642 13.01 13.29 13.27 12.97 12.41 11.73 10.98 10.25 9.59 9.12
1803.936 8.8 8.58 8.52 8.6 8.8 9.05 9.36 9.66 9.96 10.27
1823.229 10.44 10.46 10.38 10.17 9.84 9.41 8.9 8.35 7.8749 7.4568
1842.523 7.06114 6.778 6.568 6.43 6.361 6.319 6.323 6.404 6.584 6.803
1861.816 7.08733 7.4615 7.8737 8.29 8.75 9.26 9.75 10.18 10.53 10.81
1881.110 11.05 11.25 11.4 11.56 11.7 11.78 11.86 12 12.2 12.47
1900.403 12.78 13.12 13.44 13.62 13.61 13.31 12.81 12.17 11.41 10.61
1919.696 9.9 9.31 8.88 8.63 8.55 8.67 8.92 9.3 9.75 10.25
1938.990 10.73 11.09 11.26 11.23 10.94 10.49 9.93 9.29 8.68 8.21
1958.283 7.9281 7.8379 7.9144 8.1 8.38 8.7 9.05 9.44 9.79 10.09
1977.577 10.31 10.42 10.4 10.27 9.96 9.53 9 8.45 7.898 7.3827
1996.870 6.936 6.55 6.258 6.04 5.87 5.76 5.64 5.59 5.58 5.58
2016.164 5.57 5.57 5.6 5.64 5.68 5.7 5.72 5.7 5.66 5.57
2035.457 5.44 5.33 5.22 5.07 4.96 4.87 4.8 4.72 4.64 4.57
2054.750 4.55 4.53 4.51 4.48 4.47 4.45 4.41 4.37 4.35 4.35
2074.044 4.32 4.28 4.29 4.27 4.23 4.21 4.2 4.16 4.15 4.16
2093.337 4.15 4.13 4.1 4.09 4.08 4.03 4.01 4 3.96 3.95
2112.631 3.96 3.96 3.95 3.93 3.96 3.96 3.95 4.01 4.08 4.11
2131.924 4.12 4.17 4.28 4.4 4.53 4.66 4.75 4.86 4.99 5.05
2151.218 5.08 5.1 5.06 4.99 4.9 4.77 4.6 4.46 4.37 4.31
2170.511 4.25 4.22 4.2 4.19 4.18 4.2 4.22 4.22 4.22 4.25
2189.804 4.3 4.33 4.34 4.37 4.39 4.43 4.45 4.46 4.5 4.54
2209.098 4.53 4.53 4.58 4.56 4.54 4.51 4.48 4.5 4.5 4.51
2228.391 4.53 4.56 4.62 4.7 4.76 4.86 4.93 5.01 5.1 5.12
2247.685 5.13 5.1 5.1 5.09 5.09 5.09 5.07 5.07 5.09 5.11
2266.978 5.12 5.11 5.1 5.07 5.04 5.01 4.95 4.9 4.89 4.88
2286.272 4.91 4.95 4.98 5 4.98 4.92 4.84 4.73 4.63 4.57
2305.565 4.53 4.55 4.63 4.76 4.91 5.08 5.23 5.31 5.36 5.37
2324.858 5.3 5.16 5 4.85 4.73 4.63 4.55 4.49 4.44 4.41
2344.152 4.39 4.37 4.36 4.27 4.19 4.16 4.13 4.09 4.07 4.04
2363.445 4.04 4.04 4.06 4.09 4.12 4.12 4.12 4.11 4.1 4.16
2382.739 4.2 4.21 4.21 4.22 4.25 4.28 4.31 4.38 4.48 4.55
2402.032 4.62 4.71 4.8 4.91 5.05 5.17 5.27 5.41 5.57 5.71
2421.326 5.82 5.85 5.83 5.81 5.79 5.74 5.63 5.5 5.36 5.19
2440.619 5.01 4.85 4.7 4.53 4.41 4.3 4.2 4.16 4.13 4.1
2459.912 4.06 4.06 4.1 4.13 4.18 4.2 4.19 4.2 4.2 4.18
2479.206 4.15 4.15 4.15 4.09 4.04 3.98 3.96 3.92 3.87 3.85
2498.499 3.82 3.81 3.83 3.83 3.86 3.9 3.91 3.92 3.96 4.01
2517.793 4.05 4.08 4.15 4.21 4.29 4.38 4.45 4.53 4.6 4.64
2537.086 4.69 4.73 4.78 4.85 4.88 4.91 4.96 4.95 4.9 4.84
2556.380 4.76 4.61 4.46 4.28 4.11 3.94 3.75 3.63 3.55 3.47
2575.673 3.39 3.33 3.31 3.27 3.23 3.21 3.15 3.13 3.11 3.1
2594.966 3.12 3.13 3.17 3.18 3.17 3.24 3.32 3.33 3.33 3.37
2614.260 3.42 3.47 3.56 3.66 3.76 3.83 3.86 3.84 3.84 3.85
2633.553 3.83 3.8 3.75 3.63 3.55 3.52 3.45 3.38 3.37 3.37
2652.847 3.29 3.23 3.16 3.08 3.04 3.01 2.93 2.88 2.83 2.7
2672.140 2.58 2.58 2.57 2.51 2.38 2.35 2.35 2.32 2.32 2.33
2691.434 2.34 2.35 2.34 2.34 2.37 2.45 2.45 2.38 2.32 2.27
2710.727 2.26 2.26 2.25 2.27 2.27 2.26 2.27 2.32 2.47 2.56
2730.020 2.52 2.51 2.53 2.48 2.48 2.5 2.46 2.4 2.35 2.28
2749.314 2.3 2.36 2.22 2.01 1.95 1.87 1.81 1.83 1.81 1.83
2768.607 1.82 1.77 1.85 1.96 1.93 1.77 1.68 1.73 1.76 1.77
2787.901 1.7 1.65 1.69 1.71 1.78 1.87 1.88 1.74 1.59 1.5
2807.194 1.44 1.47 1.49 1.42 1.39 1.44 1.47 1.52 1.46 1.38
2826.488 1.41 1.38 1.33 1.33 1.27 1.27 1.35 1.44 1.49 1.48
2845.781 1.37 1.25 1.24 1.28 1.23 1.13 1.13 1.07 1.01 1.05
2865.074 1.11 1.07 0.96 0.86 0.88 0.94 0.91 0.89 0.91 0.9
2884.368 0.87 0.91 0.88 0.87 0.9 0.84 0.82 0.78 0.72 0.7
2903.661 0.69 0.66 0.63 0.61 0.56 0.47 0.49 0.55 0.5 0.49
2922.955 0.53 0.53 0.49 0.33 0.28 0.28 0.3 0.31 0.27 0.27
2942.248 0.38 0.5 0.42 0.27 0.23 0.27 0.25 0.23 0.26 0.33
2961.542 0.42 0.42 0.28 0.2 0.17 0.17 0.23 0.26 0.44 0.65
2980.835 0.75 0.67 0.59 0.66 0.79 0.86 0.98 1.16 1.36 1.58
3000.128 1.66 1.72 1.89 2.12 2.34 2.51 2.74 3.01 3.12 3.17
3019.422 3.23 3.22 3.23 3.2 3.14 3.05 2.91 2.86 2.85 2.9
3038.715 3.07 3.24 3.46 3.85 4.25 4.61 5.11 5.69 6.36 7.10679
3058.009 7.946 8.87 9.91 11.37 13.15 15.51 18.57 22.2 26.53 31.12
3077.302 35.56 39.43 41.83 42.18 40.38 36.64 31.55 25.7 19.75 14.32
3096.596 10.05 7.1567 5.17 3.94 3.24 2.64 2.12 1.72 1.4 1.14
3115.889 1.04 1.08 0.93 0.73 0.74 0.76 0.79 0.83 0.78 0.69
3135.182 0.69 0.73 0.71 0.7 0.7 0.66 0.68 0.76 0.87 0.9
3154.476 0.92 0.99 0.98 1.03 1.08 1.03 1.07 1.05 0.95 0.89
3173.769 0.83 0.74 0.62 0.53 0.48 0.43 0.26 0.2 0.21 0.23
3193.063 0.27 0.21 0.18 0.13 0.12 0.12 0.09 0.08 0 0.04
3212.356 0.08 0.02 0.08 0.15 0.15 0.12 0.13 0.18 0.16 0.11
3231.650 0.16 0.17 0.16 0.19 0.14 0.12 0.16 0.19 0.22 0.28
3250.943 0.27 0.27 0.35 0.41 0.34 0.25 0.39 0.45 0.35 0.27
3270.236 0.29 0.4 0.49 0.44 0.43 0.52 0.51 0.49 0.57 0.57
3289.530 0.46 0.55 0.57 0.53 0.63 0.7 0.68 0.64 0.66 0.67
3308.823 0.73 0.76 0.68 0.6 0.69 0.79 0.75 0.82 0.76 0.68
3328.117 0.73 0.85 0.93 0.91 1.01 1 0.93 0.92 0.87 0.84
3347.410 0.89 0.96 0.94 0.94 1.05 1.19 1.26 1.13 1.02 1.05
3366.704 1.08 1.13 1.24 1.27 1.29 1.23 1.1 1.11 1.16 1.22
3385.997 1.29 1.34 1.21 1.11 1.21 1.31 1.41 1.44 1.34 1.36
3405.290 1.43 1.5 1.45 1.42 1.46 1.4 1.45 1.53 1.61 1.62
3424.584 1.55 1.61 1.75 1.74 1.68 1.73 1.69 1.66 1.73 1.74
3443.877 1.79 1.9 1.91 1.91 1.81 1.84 1.92 1.9 1.94 1.93
3463.171 1.93 2 2.06 2.02 2.01 1.99 2.06 2.13 2.09 2.09
3482.464 2.1 2.09 2.1 2.2 2.21 2.18 2.31 2.31 2.21 2.2
3501.758 2.21 2.33 2.41 2.38 2.36 2.38 2.39 2.41 2.45 2.49
3521.051 2.55 2.57 2.52 2.46 2.52 2.63 2.65 2.6 2.61 2.67
3540.344 2.65 2.6 2.64 2.72 2.73 2.71 2.79 2.8 2.69 2.72
3559.638 2.79 2.8 2.78 2.78 2.8 2.9 2.94 2.88 2.83 2.84
3578.931 2.91 2.92 2.98 3.02 3.01 2.98 2.94 3.02 3.08 3.04
3598.225 3.08 3.12 3.1 3.13 3.21 3.15 3.06 3.11 3.15 3.15
3617.518 3.23 3.24 3.24 3.31 3.37 3.36 3.28 3.27 3.28 3.29
3636.812 3.33 3.39 3.42 3.34 3.27 3.34 3.38 3.36 3.44 3.43
3656.105 3.36 3.34 3.36 3.43 3.45 3.4 3.42 3.45 3.42 3.38
3675.398 3.28 3.35 3.49 3.54 3.53 3.44 3.38 3.34 3.42 3.47
3694.692 3.46 3.52 3.51 3.51 3.61 3.61 3.59 3.55 3.48 3.51
3713.985 3.54 3.54 3.51 3.51 3.52 3.52 3.57 3.58 3.58 3.56
3733.279 3.53 3.55 3.57 3.59 3.59 3.57 3.57 3.66 3.74 3.79
3752.572 3.79 3.83 3.93 3.96 4 4.07 4.08 4.02 4.08 4.1
3771.866 4 3.98 4.01 4.01 3.94 3.92 3.85 3.79 3.76 3.78
3791.159 3.8 3.69 3.69 3.74 3.69 3.68 3.72 3.71 3.67 3.73
3810.452 3.82 3.81 3.81 3.82 3.88 3.91 3.94 4.05 4.06 4.1
3829.746 4.22 4.24 4.25 4.34 4.43 4.41 4.38 4.36 4.32 4.34
3849.039 4.31 4.18 4.06 3.96 3.92 3.92 3.88 3.84 3.75 3.7
3868.333 3.71 3.63 3.64 3.64 3.59 3.64 3.66 3.68 3.66 3.58
3887.626 3.6 3.67 3.63 3.59 3.64 3.65 3.63 3.6 3.59 3.67
3906.920 3.75 3.74 3.7 3.68 3.68 3.67 3.67 3.68 3.7 3.67
3926.213 3.72 3.73 3.68 3.64 3.6 3.65 3.7 3.77 3.74 3.7
3945.506 3.63 3.58 3.67 3.66 3.63 3.64 3.66 3.7 3.68 3.68
3964.800 3.72 3.71 3.7 3.65 3.61 3.6 3.61 3.63 3.66 3.69
3984.093 3.7 3.66 3.67 3.73 3.73 3.68 3.7 3.78 3.75
##END=
