##TITLE=4-t-Butylbenzenesulfonyl chloride
##JCAMP-DX=4.24
##DATA TYPE=INFRARED SPECTRUM
##ORIGIN=EPA-IR VAPOR PHASE LIBRARY
##OWNER=SRD/NIST
Collection (C) 2018 copyright by the U.S. Secretary of Commerce
on behalf of the United States of America. All rights reserved.
##CAS REGISTRY NO=15084-51-2
##MOLFORM=C 10 H 13 Cl O 2 S
##$NIST SOURCE=MSDC-IR
##STATE=gas
##XUNITS=1/CM
##YUNITS=ABSORBANCE
##XFACTOR=1.
##YFACTOR=0.001
##DELTAX=1.92898
##FIRSTX=549.8
##LASTX=4000.7
##FIRSTY=36.08
##MAXX=4000.7
##MINX=549.759
##MAXY=0.27012
##MINY=0
##NPOINTS=1790
##XYDATA=(X++(Y..Y))
549.759 36.08 30.56 27.35 25.7 25.96 28.25 32.13 38.46 47.92 59.79
569.049 74.45 92.48 113.68 136.62 159.29 179.19 193.72 200.1 197.81 186.97
588.339 169.31 148.95 128.75 111.24 98.55 91.63 91.31 98.27 112.5 134.67
607.628 165.19 201.52 237.29 262.45 270.12 260.18 234.37 195.24 150.72 111.38
626.918 82.24 61.91 47.75 37.48 29.88 24.21 20.14 17.41 15.18 13.43
646.208 12.29 11.28 10.52 10.02 9.4 9 8.75 8.39 7.93 7.5
665.498 7.12 6.55 5.77 5.07 4.67 4.2 3.69 3.55 3.36 2.9
684.787 2.74 2.71 2.59 2.44 2.12 1.89 1.96 2.25 2.32 2.19
704.077 2.2 2.29 2.38 2.55 2.63 2.66 2.72 2.93 3.17 3.56
723.367 4.03 4.47 5.09 5.93 7.2 9.11 11.67 15.62 22.05 31.04
742.657 41.35 49.91 53.75 53.09 48.72 40.03 28.6 18.54 12.08 8.61
761.947 6.54 5.27 4.68 4.1 3.51 3.44 3.59 3.42 3.48 3.71
781.236 3.68 3.62 3.5 3.51 3.56 3.54 3.63 3.71 3.56 3.32
800.526 3.22 3.31 3.38 3.42 3.65 3.76 4.02 4.92 6.22 7.82
819.816 10.17 13.54 17.64 22.18 27 31.85 36.19 38.85 39.11 36.89
839.106 32.79 27.74 21.92 16.27 11.75 8.57 6.72 5.45 4.61 4.02
858.395 3.58 3.28 3.17 3.15 2.94 2.54 2.42 2.47 2.26 2.07
877.685 1.81 1.55 1.52 1.3365 1.2083 1.184 1.2103 1.3153 1.1857 1.1596
896.975 1.3155 1.3606 1.38 1.53 1.47 1.3581 1.52 1.72 1.89 2.04
916.265 2.18 2.25 2.3 2.24 2.19 2.35 2.34 2.35 2.41 2.24
935.555 2.12 2.28 2.36 2.13 1.88 1.71 1.61 1.78 2.01 2.04
954.844 1.93 1.79 1.77 1.74 1.53 1.316 1.2329 1.1965 1.2864 1.37
974.134 1.2474 1.2084 1.2017 1.39 1.44 1.2285 1.2875 1.48 1.51 1.49
993.424 1.67 1.94 2.22 2.51 2.86 3.4 4.28 5.97 8.8 11.69
1012.714 13.6 14.64 14.86 13.83 11.28 8.24 6.03 4.72 3.98 3.52
1032.003 3.34 3.25 3.15 2.7 2.55 2.73 2.72 2.95 3.07 3.47
1051.293 4.01 4.28 4.83 5.31 6.35 7.89 9.59 12.03 14.53 17.87
1070.583 22.3 26.84 31.56 37.24 42.71 46.87 49.32 48.92 45.74 40.13
1089.873 32.88 25.3 18.92 15.37 14.33 14.62 16.15 18.86 21.63 24.15
1109.163 25.91 26.97 26.87 24.32 21.31 19.06 17.2 15.36 13.42 12.07
1128.452 11.07 10.05 9.51 9.43 9.75 10.29 10.95 11.89 13.28 15.22
1147.742 17.55 19.83 21.72 23.51 24.9 25.98 27.61 29.53 32.03 35.85
1167.032 41.11 48.43 58.63 72.99 92.5 118.6 152.85 191.31 224.42 242.54
1186.322 244.51 233.45 207.76 171.91 140.91 121.28 107.32 95.62 85.03 73.01
1205.611 59 45.79 36.03 29.24 24.44 21.57 19.66 18.23 17.74 17.73
1224.901 17.78 17.94 18.03 18.16 18.31 17.6 16.48 15.69 14.83 13.67
1244.191 12.76 12.53 13.04 13.8 14.92 16.85 19.25 22.06 24.52 26.52
1263.481 27.44 26.77 24.98 22.06 18.59 15.18 12.35 10.15 8.55 7.63
1282.771 7.16 6.74 6.37 6.1 5.86 5.62 5.4 5.15 5 4.96
1302.060 5.04 5.29 5.57 5.73 5.86 5.95 5.86 5.8 5.62 5.31
1321.350 5 4.75 4.57 4.45 4.37 4.31 4.41 4.59 4.73 5
1340.640 5.43 5.89 6.51 7.29 8.18 9.32 10.79 12.56 14.59 16.91
1359.930 19.61 22.5 25.55 28.83 32.34 35.99 39.66 43.57 48.23 53.75
1379.219 60.73 69.92 81.94 97.28 116.17 138.19 161.95 185.34 205.7 219.71
1398.509 224.41 218.91 203.49 179.92 151.34 121.54 93.9 70.49 52.05 38.3
1417.799 28.61 21.85 17.27 14.18 12.08 10.69 9.72 8.93 8.28 7.92
1437.089 7.64 7.45 7.54 7.68 7.89 8.32 8.94 9.63 10.4 11.2
1456.378 12.04 12.9 13.73 14.59 15.5 16.42 17.48 18.75 20.26 21.92
1475.668 23.62 25.18 26.34 27.08 27.14 26.36 25.07 23.5 21.81 20.21
1494.958 18.76 17.34 15.92 14.33 12.48 10.48 8.49 6.84 5.56 4.68
1514.248 4.09 3.67 3.41 3.26 3.25 3.22 3.18 3.2 3.27 3.32
1533.538 3.39 3.43 3.35 3.3 3.25 3.14 3.06 3.03 2.99 3.04
1552.827 3.15 3.25 3.4 3.66 3.99 4.28 4.63 5.1 5.75 6.42
1572.117 7.22 8.31 9.83 11.94 14.58 18.06 22.36 27.25 32.09 35.61
1591.407 36.96 35.87 32.31 26.87 20.58 14.71 10.42 7.88 6.48 5.79
1610.697 5.35 5.02 4.64 4.29 4.12 3.87 3.54 3.27 3.04 2.77
1629.986 2.56 2.38 2.31 2.26 2.35 2.47 2.53 2.77 3.04 3.24
1649.276 3.5 3.82 4.06 4.17 4.25 4.19 4 3.75 3.46 3.18
1668.566 2.84 2.44 2.11 1.88 1.66 1.57 1.54 1.49 1.39 1.348
1687.856 1.39 1.3332 1.2841 1.3132 1.37 1.3499 1.3325 1.2941 1.2486 1.247
1707.146 1.1689 1.0877 0.9932 0.9591 1.0305 1.0503 1.1137 1.1503 1.1151 1.0819
1726.435 1.0694 1.0447 1.0436 1.0413 1.0061 1.0449 1.0865 1.0671 1.0872 1.1116
1745.725 1.1738 1.2313 1.2318 1.2668 1.3503 1.46 1.46 1.56 1.69 1.75
1765.015 1.81 1.86 2.04 2.19 2.5 2.95 3.39 3.83 4.17 4.46
1784.305 4.68 4.69 4.56 4.35 3.96 3.5 3.04 2.59 2.16 1.8
1803.594 1.63 1.52 1.41 1.43 1.42 1.38 1.41 1.47 1.54 1.59
1822.884 1.67 1.73 1.77 1.77 1.76 1.74 1.69 1.63 1.48 1.327
1842.174 1.2101 1.1851 1.1774 1.0846 1.043 1.0458 1.0142 1.01 0.995 0.9642
1861.464 0.9358 0.9056 0.8877 0.8959 0.9341 0.9608 1.0058 1.0611 1.0784 1.0465
1880.754 1.0359 1.0549 1.0688 1.1009 1.1409 1.1803 1.2284 1.2892 1.4 1.61
1900.043 1.79 2.03 2.37 2.63 2.9 3.15 3.43 3.69 3.82 3.87
1919.333 3.86 3.71 3.43 3.13 2.82 2.49 2.17 1.9 1.69 1.54
1938.623 1.39 1.2391 1.1273 1.0603 0.9576 0.8357 0.7825 0.7316 0.7133 0.7004
1957.913 0.6716 0.7022 0.7279 0.6689 0.6425 0.6633 0.6811 0.6725 0.6622 0.6817
1977.202 0.6643 0.6596 0.6595 0.5996 0.543 0.5221 0.5545 0.5792 0.5267 0.5194
1996.492 0.503 0.45945 0.44686 0.43112 0.45363 0.5049 0.46644 0.501 0.6059 0.6182
2015.782 0.5912 0.5469 0.5696 0.5605 0.5734 0.5688 0.5398 0.5873 0.564 0.6093
2035.072 0.6106 0.5214 0.5161 0.497 0.4954 0.4851 0.44512 0.39294 0.41147 0.42219
2054.362 0.369625 0.36397 0.38845 0.39039 0.43297 0.4805 0.44117 0.42425 0.5035 0.5466
2073.651 0.4916 0.4738 0.5028 0.5455 0.5756 0.6139 0.6647 0.6648 0.7029 0.8091
2092.941 0.8643 0.8966 0.9404 0.9453 0.9249 0.8602 0.7908 0.7292 0.7089 0.7053
2112.231 0.6935 0.6892 0.6136 0.6044 0.6823 0.7023 0.6829 0.6513 0.6316 0.6106
2131.521 0.5976 0.6062 0.6455 0.598 0.5419 0.5604 0.6009 0.6535 0.6196 0.6096
2150.810 0.6939 0.736 0.7215 0.7479 0.7341 0.6958 0.6893 0.7015 0.7175 0.765
2170.100 0.7656 0.665 0.572 0.5488 0.6086 0.5858 0.5327 0.5453 0.5985 0.7244
2189.390 0.7363 0.6762 0.699 0.7312 0.7665 0.7904 0.8041 0.8616 0.9263 0.9231
2208.680 0.8578 0.7976 0.8083 0.8692 0.8264 0.7227 0.6455 0.6512 0.71 0.7223
2227.970 0.7125 0.7132 0.7208 0.7151 0.7211 0.7385 0.7933 0.7639 0.6982 0.7038
2247.259 0.7361 0.8155 0.8552 0.8569 0.8613 0.9121 1.0126 1.1276 1.154 1.1314
2266.549 1.187 1.24 1.2551 1.251 1.169 1.1531 1.2227 1.157 1.1112 1.1433
2285.839 1.1682 1.1991 1.234 1.2356 1.1584 1.1322 1.1889 1.2228 1.1281 1.1359
2305.129 1.2314 1.2449 1.2354 1.1769 1.221 1.2107 1.1295 1.0775 1.1171 1.1605
2324.418 1.1319 1.1621 1.1712 1.1631 1.1381 1.1314 1.1877 1.2125 1.1497 1.1054
2343.708 1.0775 0.9884 0.9017 0.8372 0.8697 0.9172 0.8815 0.872 0.9162 0.8646
2362.998 0.8067 0.8424 0.925 0.9399 0.92 0.9801 0.9831 0.9372 0.9599 1.0602
2382.288 1.0331 0.9533 1.0118 1.0128 0.9451 0.9307 0.94 0.977 0.9225 0.8285
2401.578 0.7551 0.7706 0.7925 0.7716 0.8282 0.8217 0.8143 0.8466 0.911 0.9152
2420.867 0.8542 0.9173 0.9865 1.0309 1.0429 0.9421 0.8071 0.683 0.677 0.6766
2440.157 0.6389 0.6173 0.6081 0.5944 0.6097 0.6217 0.5951 0.6114 0.628 0.7022
2459.447 0.7184 0.6863 0.7416 0.7544 0.7802 0.876 0.9518 0.9726 0.9853 1.052
2478.737 1.0182 0.9417 0.9806 1.0389 1.1212 1.1826 1.1238 1.0637 1.0224 0.8711
2498.026 0.8111 0.8602 0.8991 0.9919 1.0236 0.9701 0.9855 1.0284 1.0105 1.0118
2517.316 0.9987 0.9013 0.9076 0.8937 0.819 0.8044 0.8011 0.7871 0.8021 0.8895
2536.606 0.9293 0.9717 1.0506 1.0771 1.0978 1.1031 1.1747 1.3056 1.44 1.6
2555.896 1.66 1.79 1.97 2.13 2.28 2.48 2.7 2.81 2.92 2.94
2575.186 2.94 2.93 2.85 2.66 2.42 2.28 2.1 1.99 1.92 1.74
2594.475 1.67 1.59 1.48 1.47 1.48 1.47 1.42 1.298 1.1555 1.1224
2613.765 1.0505 0.949 0.9376 0.9428 0.8981 0.84 0.8393 0.8428 0.8887 0.8834
2633.055 0.8749 0.9053 0.8342 0.7854 0.8905 1.0018 0.9626 0.9504 0.9895 1.055
2652.345 1.0762 1.0158 1.0335 1.1422 1.155 1.1214 1.208 1.3501 1.45 1.37
2671.634 1.38 1.44 1.3498 1.3275 1.231 1.1711 1.1685 1.1821 1.1639 1.1407
2690.924 1.1572 1.1747 1.1901 1.1848 1.3031 1.308 1.2368 1.225 1.2402 1.2364
2710.214 1.1754 1.1166 1.2068 1.3645 1.3244 1.3088 1.2527 1.2281 1.38 1.48
2729.504 1.48 1.44 1.4 1.43 1.47 1.4 1.338 1.38 1.47 1.45
2748.794 1.43 1.53 1.6 1.5 1.5 1.54 1.56 1.6 1.56 1.63
2768.083 1.72 1.68 1.68 1.68 1.68 1.74 1.88 1.96 1.92 2.02
2787.373 2.13 2.13 2.05 2.08 2.05 2.05 2.12 2.09 1.99 1.88
2806.663 1.99 2.02 2.03 2.16 2.26 2.35 2.38 2.46 2.58 2.64
2825.953 2.69 2.79 2.91 2.95 3.03 3.11 3.22 3.46 3.68 3.84
2845.242 4.15 4.4 4.7 5.19 5.62 6.21 7 7.96 9.07 10.44
2864.532 12.05 13.75 15.64 17.75 19.9 21.94 23.82 25.31 26.23 26.77
2883.822 26.98 26.82 26.46 26.04 25.52 25.03 24.63 24.51 24.61 24.88
2903.112 25.49 26.39 27.61 29.02 30.55 32.08 33.24 34 34.36 34.3
2922.401 33.88 33.28 32.72 32.31 32.15 32.18 32.3 32.56 33.18 34.05
2941.691 35.11 36.53 38.43 40.81 43.85 47.72 52.38 58.23 65.38 74
2960.981 84.49 97.48 113.4 131.7 150.36 165.35 172.46 170.18 159.18 140.27
2980.271 116.63 93.32 73.99 59.24 47.96 39.2 32.12 26.28 21.57 17.81
2999.561 14.69 12.2 10.36 8.85 7.56 6.61 5.91 5.42 4.97 4.62
3018.850 4.4 4.11 3.9 3.86 3.67 3.57 3.58 3.53 3.51 3.45
3038.140 3.33 3.32 3.37 3.31 3.31 3.44 3.67 3.84 4.1 4.42
3057.430 4.84 5.28 5.77 6.47 6.97 7.24 7.56 7.98 8.35 8.68
3076.720 9.01 9.17 9.07 8.73 8.24 7.6 6.83 6.23 5.98 5.79
3096.009 5.52 5.43 5.38 5.23 4.92 4.59 4.23 3.74 3.37 2.99
3115.299 2.7 2.48 2.34 2.3 2.09 2.04 2.07 2.05 2.05 2.02
3134.589 2.02 2.01 1.98 1.91 1.81 1.8 1.95 1.98 1.85 1.75
3153.879 1.76 1.81 1.86 1.87 1.8 1.84 1.97 1.91 1.83 1.87
3173.169 1.82 1.84 1.85 1.88 1.9 1.9 1.92 1.9 1.93 1.86
3192.458 2.02 2.19 1.92 1.77 1.86 1.85 1.82 1.79 1.71 1.58
3211.748 1.67 1.82 1.75 1.68 1.69 1.67 1.55 1.46 1.42 1.4
3231.038 1.49 1.54 1.3131 1.2915 1.43 1.1701 1.073 1.1828 1.1655 1.2295
3250.328 1.2917 1.1771 1.1379 1.1216 0.9696 0.8943 0.828 0.7929 0.9789 0.969
3269.617 0.9736 1.0725 1.0805 1.0082 0.8908 0.993 1.0096 0.975 1.0831 1.1903
3288.907 1.0771 0.9987 0.9862 0.9637 1.0608 1.1108 1.0829 1.0771 0.9552 0.8685
3308.197 0.9527 0.9354 0.9584 0.9758 0.9206 0.7987 0.7205 0.7797 0.6037 0.3542
3327.487 0.43863 0.6074 0.6262 0.6577 0.7426 0.6795 0.5706 0.5818 0.5624 0.5584
3346.777 0.499 0.5112 0.558 0.5634 0.5873 0.648 0.5347 0.351 0.41838 0.4824
3366.066 0.4712 0.5191 0.6415 0.6782 0.5664 0.5987 0.685 0.6836 0.5857 0.5127
3385.356 0.6491 0.6293 0.5406 0.4802 0.44695 0.43074 0.45235 0.46868 0.498 0.6029
3404.646 0.5707 0.5568 0.5573 0.5092 0.44749 0.3597 0.378277 0.39762 0.375508 0.40535
3423.936 0.46959 0.5072 0.5269 0.5594 0.5861 0.5701 0.43527 0.5112 0.6108 0.4992
3443.225 0.3584 0.36525 0.45815 0.5123 0.5726 0.4997 0.516 0.6223 0.6515 0.5109
3462.515 0.3433 0.4801 0.41146 0.247 0.3377 0.38349 0.45276 0.42199 0.2936 0.3127
3481.805 0.5488 0.6437 0.4862 0.4525 0.39766 0.312 0.336 0.42347 0.45254 0.4364
3501.095 0.45408 0.46131 0.377638 0.32 0.45414 0.5444 0.5286 0.40193 0.2872 0.3154
3520.385 0.41446 0.4981 0.4796 0.4959 0.5627 0.44316 0.2891 0.373551 0.377613 0.3324
3539.674 0.235 0.082 0.161 0.3325 0.42807 0.376329 0.2852 0.2965 0.4454 0.42395
3558.964 0.3265 0.3081 0.3433 0.306 0.3019 0.3231 0.3084 0.2805 0.255 0.347
3578.254 0.3497 0.36187 0.41902 0.3565 0.3456 0.372935 0.37357 0.45678 0.44506 0.371347
3597.544 0.3379 0.376094 0.39786 0.36475 0.208 0.136 0.264 0.213 0.148 0.3065
3616.833 0.4823 0.557 0.41903 0.275 0.28 0.28 0.101 0 0.165 0.3234
3636.123 0.40037 0.3556 0.3554 0.2827 0.262 0.242 0.157 0.219 0.2756 0.43933
3655.413 0.495 0.39593 0.189 0.052 0.17 0.2725 0.2916 0.233 0.187 0.2816
3674.703 0.43003 0.43555 0.36176 0.2922 0.2864 0.374339 0.40742 0.42071 0.4983 0.41237
3693.993 0.261 0.128 0.124 0.2994 0.358 0.3201 0.235 0.3297 0.38198 0.3171
3713.282 0.3005 0.225 0.3294 0.46748 0.5493 0.5039 0.4753 0.5996 0.6777 0.664
3732.572 0.654 0.6586 0.5426 0.46056 0.36776 0.3465 0.3607 0.3017 0.3367 0.3245
3751.862 0.3597 0.36009 0.2953 0.3007 0.253 0.2899 0.3132 0.181 0.26 0.43402
3771.152 0.45752 0.41846 0.3538 0.2785 0.2768 0.2929 0.3221 0.41311 0.45113 0.44543
3790.441 0.41076 0.43849 0.5772 0.53 0.4902 0.45267 0.3332 0.38625 0.46476 0.4951
3809.731 0.4875 0.4741 0.40255 0.39775 0.3061 0.3569 0.5807 0.6292 0.6141 0.4833
3829.021 0.5232 0.5096 0.40023 0.6335 0.6042 0.481 0.5611 0.5237 0.5459 0.5749
3848.311 0.6026 0.5133 0.5112 0.6619 0.6705 0.6757 0.5674 0.44464 0.5122 0.6537
3867.601 0.618 0.5548 0.5322 0.4815 0.5743 0.6663 0.44693 0.39783 0.6334 0.5941
3886.890 0.7441 0.9025 0.767 0.7184 0.6576 0.6212 0.6478 0.6128 0.7211 0.8116
3906.180 0.6703 0.608 0.4922 0.5278 0.6118 0.6554 0.6617 0.5174 0.45103 0.51
3925.470 0.4747 0.36716 0.3454 0.40647 0.6577 0.8116 0.6469 0.40581 0.38528 0.4816
3944.760 0.5306 0.40447 0.42014 0.569 0.5195 0.46018 0.4817 0.6438 0.613 0.4545
3964.049 0.5241 0.44424 0.3215 0.3221 0.39229 0.40448 0.3972 0.6103 0.6051 0.43506
3983.339 0.516 0.5483 0.5995 0.6777 0.6963 0.6674 0.6026 0.658 0.6589 0.5749
##END=
