##TITLE=1,3-Dimethoxybenzene
##JCAMP-DX=4.24
##DATA TYPE=INFRARED SPECTRUM
##ORIGIN=NIST Mass Spectrometry Data Center
##OWNER=NIST Standard Reference Data Program
Collection (C) 2018 copyright by the U.S. Secretary of Commerce
on behalf of the United States of America. All rights reserved.
##CAS REGISTRY NO=151-10-0
##MOLFORM=C 8 H 10 O 2
##$NIST SOURCE=MSDC-IR
##SPECTROMETER/DATA SYSTEM=HP-GC/MS/IRD
##STATE=gas
##XUNITS=1/CM
##YUNITS=ABSORBANCE
##XFACTOR=1.0
##YFACTOR=0.000005000
##DELTAX=4.0
##FIRSTX=550.0
##LASTX=3846.0
##FIRSTY=0.000705
##MAXX=3846
##MINX=550
##MAXY=0.05
##MINY=0
##NPOINTS=825
##XYDATA=(X++(Y..Y))
550.0 141 167 114 151 173 169 178 170 126 92
590.0 77 48 25 14 2 0 0 5 10 11
630.0 18 22 19 15 17 36 68 114 198 344
670.0 539 735 945 1247 1366 1140 886 682 493 341
710.0 268 253 241 248 278 304 334 408 525 699
750.0 902 1110 1277 1304 1228 1069 831 615 434 291
790.0 195 131 107 116 150 197 271 377 482 605
830.0 757 918 1026 1034 991 942 894 835 749 633
870.0 522 442 393 378 406 462 555 689 814 893
910.0 923 905 835 722 579 457 346 251 198 173
950.0 163 164 183 205 227 247 268 299 355 423
990.0 467 483 513 545 578 644 769 968 1249 1637
1030.0 2134 2692 3215 3632 3837 3766 3400 2849 2286 1836
1070.0 1558 1403 1311 1245 1164 1019 851 740 680 662
1110.0 693 772 918 1169 1582 2291 3480 5201 7229 9024
1150.0 10000 9981 9056 7371 5542 4271 3534 3052 2887 3128
1190.0 3652 4319 5099 5815 6081 5798 5137 4170 2984 1984
1230.0 1448 1246 1220 1336 1602 2025 2575 3134 3586 3987
1270.0 4357 4601 4758 4895 4957 4822 4411 3823 3185 2574
1310.0 2084 1745 1531 1397 1290 1171 1032 881 723 573
1350.0 443 351 286 248 231 219 213 219 230 251
1390.0 285 325 372 424 487 570 684 840 1067 1394
1430.0 1827 2293 2613 2760 2845 2867 2913 3153 3491 3757
1470.0 3946 4266 4896 5748 6443 6602 6155 5149 3764 2442
1510.0 1550 1119 927 846 809 797 812 838 868 905
1550.0 958 1053 1217 1458 1820 2368 3125 4152 5430 6931
1590.0 8446 9589 9977 9491 8414 7165 5953 4811 3745 2748
1630.0 1901 1303 936 720 581 490 432 392 363 346
1670.0 336 326 315 305 284 256 243 233 223 212
1710.0 200 194 187 177 168 157 146 132 122 113
1750.0 101 90 83 77 73 70 67 68 69 69
1790.0 77 87 90 88 86 80 73 66 57 51
1830.0 47 44 45 52 55 61 75 89 108 130
1870.0 144 152 155 150 146 140 137 144 151 149
1910.0 147 142 135 135 130 122 114 106 97 84
1950.0 75 68 57 51 51 54 54 50 51 55
1990.0 56 57 59 62 66 66 61 66 70 73
2030.0 78 84 94 101 105 106 112 119 119 119
2070.0 120 122 122 119 113 109 107 99 86 73
2110.0 69 66 60 53 52 51 45 46 46 46
2150.0 55 66 77 92 108 117 123 126 120 115
2190.0 114 115 114 104 96 91 84 72 57 48
2230.0 43 32 21 17 12 8 7 3 0 1
2270.0 2 1 1 0 1 9 20 29 32 34
2310.0 45 54 51 51 56 58 58 56 52 51
2350.0 55 55 60 63 61 55 47 45 43 43
2390.0 43 41 41 41 47 48 50 54 55 59
2430.0 61 60 60 61 53 51 46 48 53 53
2470.0 62 68 66 64 64 66 63 56 49 49
2510.0 49 38 30 29 30 33 31 28 31 38
2550.0 44 52 55 57 64 66 63 62 67 74
2590.0 73 70 71 75 72 64 65 62 59 54
2630.0 48 42 40 42 42 42 46 48 43 43
2670.0 42 37 39 40 43 43 39 37 41 41
2710.0 40 45 51 63 68 58 57 65 72 79
2750.0 87 95 97 101 116 132 141 152 169 178
2790.0 192 214 230 253 287 330 386 465 582 759
2830.0 1011 1339 1655 1839 1891 1793 1517 1202 970 836
2870.0 782 793 838 886 949 1025 1107 1193 1288 1393
2910.0 1512 1632 1737 1815 1893 2018 2220 2502 2791 2998
2950.0 3090 3059 2893 2572 2178 1852 1609 1433 1334 1342
2990.0 1471 1731 2085 2363 2413 2294 2021 1592 1184 952
3030.0 832 764 727 686 650 618 585 568 568 601
3070.0 652 698 745 786 802 782 731 650 547 449
3110.0 366 296 250 222 184 144 119 107 97 89
3150.0 88 84 81 80 75 70 73 78 74 64
3190.0 64 60 55 47 45 42 40 43 47 34
3230.0 30 32 27 21 17 18 20 19 16 13
3270.0 14 20 21 21 25 13 6 12 12 16
3310.0 16 18 14 5 17 20 6 15 22 22
3350.0 24 14 7 11 14 14 11 4 8 14
3390.0 8 8 8 8 17 19 24 25 11 5
3430.0 4 0 2 5 11 14 11 18 21 27
3470.0 30 22 9 7 23 24 18 22 16 8
3510.0 26 33 16 11 16 16 12 23 30 19
3550.0 12 13 19 21 25 33 29 25 24 14
3590.0 9 6 10 15 29 34 29 26 27 37
3630.0 34 19 14 16 17 26 31 23 23 26
3670.0 34 54 47 33 35 34 29 28 19 14
3710.0 27 35 36 38 26 32 38 37 50 54
3750.0 53 49 47 39 25 23 34 37 28 29
3790.0 33 27 37 56 45 33 34 39 38 40
3830.0 57 65 52 47 46
##END=
