##TITLE=Isobutyraldehyde oxime
##JCAMP-DX=4.24
##DATA TYPE=INFRARED SPECTRUM
##ORIGIN=NIST Mass Spectrometry Data Center
##OWNER=NIST Standard Reference Data Program
Collection (C) 2018 copyright by the U.S. Secretary of Commerce
on behalf of the United States of America. All rights reserved.
##CAS REGISTRY NO=151-00-8
##MOLFORM=C 4 H 9 N O
##$NIST SOURCE=MSDC-IR
##SPECTROMETER/DATA SYSTEM=HP-GC/MS/IRD
##STATE=gas
##XUNITS=1/CM
##YUNITS=ABSORBANCE
##XFACTOR=1.0
##YFACTOR=0.000010100
##DELTAX=4.0
##FIRSTX=550.0
##LASTX=3846.0
##FIRSTY=0.005282
##MAXX=3846
##MINX=550
##MAXY=0.101
##MINY=0
##NPOINTS=825
##XYDATA=(X++(Y..Y))
550.0 523 413 349 384 415 437 452 477 500 517
590.0 545 570 575 582 589 582 556 503 451 423
630.0 422 439 467 503 539 563 582 602 620 642
670.0 652 655 665 674 686 693 691 698 704 709
710.0 735 774 776 752 726 700 659 584 500 437
750.0 394 372 353 331 315 301 279 256 241 227
790.0 228 244 268 319 400 509 664 860 1069 1286
830.0 1506 1733 1952 2048 2031 1986 1901 1819 1757 1701
870.0 1718 1856 2081 2331 2608 2958 3403 4001 4751 5524
910.0 6221 6787 7152 7376 7466 7088 6315 5529 4935 4566
950.0 4226 3905 3677 3472 3172 2713 2202 1786 1423 1027
990.0 684 466 331 249 194 154 124 98 75 55
1030.0 39 32 24 23 28 26 28 34 43 57
1070.0 75 99 128 170 218 257 286 306 326 348
1110.0 353 342 320 293 266 242 227 215 206 203
1150.0 197 195 199 201 206 217 229 239 243 250
1190.0 254 248 237 230 241 264 302 357 448 595
1230.0 825 1182 1697 2267 2722 2985 3083 3091 3001 2705
1270.0 2237 1819 1592 1547 1616 1734 1857 1945 2015 2055
1310.0 2002 1857 1653 1439 1244 1080 975 930 923 967
1350.0 1079 1268 1544 1881 2256 2632 2941 3129 3217 3224
1390.0 3087 2691 2156 1689 1365 1120 865 651 516 456
1430.0 460 519 602 697 816 927 1044 1156 1268 1367
1470.0 1382 1307 1130 977 861 708 547 406 297 238
1510.0 185 129 104 86 61 44 35 38 38 25
1550.0 14 18 28 14 0 2 4 7 6 10
1590.0 16 25 29 35 42 53 65 78 90 106
1630.0 123 146 162 172 184 194 188 158 132 109
1670.0 89 69 55 55 51 38 44 57 55 46
1710.0 43 52 59 46 39 44 45 30 21 22
1750.0 27 25 27 33 41 47 45 44 49 53
1790.0 58 65 72 86 95 108 123 138 149 159
1830.0 162 157 150 145 133 111 93 79 68 62
1870.0 56 45 35 28 23 19 16 14 10 8
1910.0 7 9 12 10 8 6 6 8 11 11
1950.0 10 11 12 13 16 16 16 15 15 18
1990.0 19 18 17 20 22 22 26 26 27 28
2030.0 27 26 25 26 24 22 23 22 24 24
2070.0 23 22 23 24 25 25 24 25 23 22
2110.0 23 22 23 22 20 21 22 20 22 23
2150.0 26 26 27 30 29 31 33 34 36 38
2190.0 40 43 41 44 46 44 46 46 45 45
2230.0 43 40 39 38 38 39 38 36 36 38
2270.0 37 37 38 41 44 46 48 48 49 51
2310.0 52 54 55 55 56 56 52 48 46 42
2350.0 43 50 55 59 60 56 51 44 35 28
2390.0 26 25 25 26 24 23 24 23 23 24
2430.0 25 24 26 27 28 29 31 33 35 38
2470.0 43 48 53 60 66 70 73 79 81 81
2510.0 76 73 69 61 55 53 51 49 54 59
2550.0 61 63 66 71 75 80 85 90 93 97
2590.0 102 105 106 111 116 121 127 134 140 144
2630.0 146 145 141 137 132 122 112 106 101 94
2670.0 88 81 78 76 78 79 80 83 85 88
2710.0 94 106 118 129 142 152 160 169 176 180
2750.0 183 185 186 190 193 196 200 201 205 210
2790.0 219 226 234 248 263 277 290 306 324 346
2830.0 374 407 449 508 588 694 839 1040 1314 1671
2870.0 2091 2485 2785 3009 3156 3231 3262 3232 3169 3117
2910.0 3100 3117 3191 3345 3572 3859 4167 4459 4781 5202
2950.0 5692 6251 6982 7943 9096 9994 10000 9460 8821 7966
2990.0 6623 5052 3723 2726 2032 1554 1231 1012 858 748
3030.0 669 601 541 490 441 397 359 328 301 280
3070.0 267 256 249 246 241 235 230 229 225 219
3110.0 212 207 200 195 190 184 183 185 187 190
3150.0 194 199 207 212 213 212 208 201 192 181
3190.0 172 161 148 135 127 118 114 111 109 102
3230.0 99 100 99 97 97 101 104 108 114 123
3270.0 129 131 135 132 129 128 123 116 109 97
3310.0 92 83 71 70 67 62 58 54 48 39
3350.0 35 35 33 36 37 32 30 31 33 35
3390.0 36 37 38 36 34 35 37 39 42 37
3430.0 40 41 37 39 37 33 35 35 32 26
3470.0 27 29 31 32 30 27 23 26 35 37
3510.0 37 35 34 43 48 49 55 58 66 83
3550.0 85 95 109 123 150 160 162 176 201 239
3590.0 276 318 389 494 655 873 1176 1607 2225 3080
3630.0 4255 5533 6626 6894 6763 6563 5882 5229 3954 2363
3670.0 1317 777 525 387 319 276 236 213 197 181
3710.0 174 161 139 133 126 109 108 94 83 83
3750.0 69 55 41 41 42 40 36 36 39 41
3790.0 40 41 44 51 56 57 57 63 66 63
3830.0 64 69 72 72 69
##END=
