##TITLE=Ethyl 3-cyclohexenecarboxylate
##JCAMP-DX=4.24
##DATA TYPE=INFRARED SPECTRUM
##ORIGIN=EPA-IR VAPOR PHASE LIBRARY
##OWNER=SRD/NIST
Collection (C) 2018 copyright by the U.S. Secretary of Commerce
on behalf of the United States of America. All rights reserved.
##CAS REGISTRY NO=15111-56-5
##MOLFORM=C 9 H 14 O 2
##$NIST SOURCE=MSDC-IR
##STATE=gas
##XUNITS=1/CM
##YUNITS=ABSORBANCE
##XFACTOR=1.
##YFACTOR=0.001
##DELTAX=1.92898
##FIRSTX=549.8
##LASTX=4000.7
##FIRSTY=0.6301
##MAXX=4000.7
##MINX=549.759
##MAXY=0.252277
##MINY=0
##NPOINTS=1790
##XYDATA=(X++(Y..Y))
549.759 0.6301 0.6516 0.5584 0.6118 0.8805 0.8176 0.7511 0.7751 0.8833 1.1465
569.049 1.0865 0.8744 0.9722 0.8888 0.7709 0.7318 0.8721 1.2365 1.3365 1.3865
588.339 1.2765 1.3165 1.6765 1.7365 1.7365 1.9365 2.1865 2.2165 2.2165 2.4465
607.628 2.7065 2.8665 3.1565 3.6965 4.2165 4.6265 5.0365 5.5865 6.3165 7.3065
626.918 8.6365 9.8965 11.1465 12.5665 14.2565 16.0965 18.0865 20.3265 22.5565 24.5565
646.208 26.4565 28.2765 29.6965 30.7765 31.6165 32.2765 32.3965 32.2365 31.7165 30.7365
665.498 29.5465 28.0665 26.6065 25.1265 23.4165 21.6765 19.9865 18.3165 16.7865 15.4665
684.787 14.2665 13.1465 12.1365 11.0765 10.1665 9.5165 8.7865 8.1865 7.8065 7.4165
704.077 6.9765 6.6065 6.2565 6.0765 6.0065 5.9365 5.7965 5.7165 5.7565 5.5565
723.367 5.4865 5.5165 5.3765 5.1965 4.9665 4.7565 4.5465 4.2765 4.1965 4.3265
742.657 4.3465 4.2565 4.4065 4.4965 4.3465 4.5265 4.9165 5.0365 5.1165 5.3465
761.947 5.3165 5.2265 5.2165 5.1765 5.3265 5.3165 5.2365 5.1465 4.9365 4.7865
781.236 4.7465 4.7065 4.5265 4.4965 4.5865 4.5965 4.5965 4.5565 4.5165 4.5865
800.526 4.6465 4.5565 4.4565 4.5065 4.5765 4.3765 4.2065 4.3165 4.4265 4.3965
819.816 4.3565 4.3765 4.2365 4.1065 4.0765 3.9765 3.9365 4.0465 4.3365 4.5865
839.106 4.7665 4.9765 5.2665 5.7265 6.3265 6.8565 7.4465 7.9665 8.3865 8.8565
858.395 9.3165 9.7865 10.1765 10.5665 11.0865 11.6665 12.0565 12.2165 12.0465 11.7065
877.685 11.3565 10.7565 10.0165 9.0865 8.0465 7.0865 6.4065 6.0565 5.8665 5.8365
896.975 5.8765 6.0865 6.5265 7.0265 7.5565 8.0965 8.8665 9.5465 10.1865 10.8365
916.265 11.2265 11.5565 11.5965 11.5065 11.3765 10.9965 10.5865 10.1665 9.7865 9.6565
935.555 9.6165 9.6365 9.8165 10.1265 10.3865 10.5265 10.6565 10.8165 10.9765 11.0265
954.844 10.9465 10.6665 10.2965 10.0765 9.8965 9.7765 9.5965 9.3165 9.2165 9.2465
974.134 9.3565 9.4965 9.5865 9.6965 9.8065 10.0165 10.3365 10.5765 10.6165 10.8165
993.424 11.0865 11.3665 11.7465 12.2165 12.8465 13.6665 14.8965 16.2265 17.7465 19.7465
1012.714 22.3565 25.3365 28.6865 32.6565 37.3865 42.6565 48.3565 54.3965 60.1065 65.2165
1032.003 69.3865 72.4165 74.2165 74.5165 73.3365 70.8365 67.2065 63.2965 59.5565 56.5165
1051.293 54.4665 53.3665 52.7465 52.2565 51.7665 51.1365 50.0865 48.6865 46.9065 44.3765
1070.583 41.5865 38.6165 35.8265 34.1565 33.3965 33.0465 33.4165 34.1765 35.2965 36.8865
1089.873 38.6965 40.5565 41.9165 42.7065 43.2165 43.2465 42.5565 41.6765 40.5665 38.7465
1109.163 36.9365 35.0665 33.8965 33.2765 32.2865 32.0965 32.9865 34.2365 36.0565 38.8265
1128.452 42.2565 46.1665 51.0465 56.6865 63.0465 69.9065 77.6365 86.6865 97.0765 109.287
1147.742 122.957 138.066 155.107 173.777 192.517 210.587 226.897 239.897 248.476 252.277
1167.032 251.027 244.177 232.467 217.256 200.467 183.667 168.156 154.887 143.857 134.367
1186.322 126.516 119.847 114.337 110.016 106.467 103.626 101.677 100.597 99.7365 99.5365
1205.611 100.537 102.947 106.787 111.927 117.917 123.487 127.477 129.476 129.506 127.987
1224.901 125.217 120.757 114.437 107.046 99.5465 93.5165 89.2465 86.2065 83.8865 81.5965
1244.191 79.1365 76.7065 74.5565 72.5065 70.6365 68.8065 66.7565 64.6765 62.5365 60.4565
1263.481 58.2565 55.7065 52.8965 49.9965 47.5565 45.6865 44.3465 43.8765 44.1765 44.8265
1282.771 46.0365 47.7765 49.9965 52.6965 55.5565 58.5465 61.4565 64.2165 66.5165 68.0365
1302.060 68.6765 68.1465 66.4565 63.7465 60.2865 56.2765 51.8265 47.2565 42.9265 38.9965
1321.350 35.5465 32.7165 30.4965 28.6865 27.1665 25.8665 24.6665 23.4565 22.2265 21.1365
1340.640 20.1565 19.3065 18.6165 18.0265 17.5265 17.2365 17.3065 17.6765 18.4065 19.5865
1359.930 21.2865 23.6065 26.3965 29.4365 32.5265 35.3465 37.6565 39.1965 39.8265 39.5265
1379.219 38.2565 36.0165 33.0265 29.6365 26.2865 23.4765 21.3865 19.8665 18.7765 17.9565
1398.509 17.2465 16.5965 15.9765 15.3965 14.8965 14.3965 13.9265 13.5965 13.3765 13.2765
1417.799 13.3565 13.5965 14.0665 14.7865 15.7065 16.8765 18.3065 19.9965 22.0165 24.2365
1437.089 26.4265 28.2565 29.6065 30.6665 31.5165 32.1265 32.4565 32.3165 31.8565 31.2965
1456.378 30.6465 29.9265 29.1965 28.4065 27.5365 26.4165 25.0665 23.6065 22.0865 20.6165
1475.668 19.1465 17.5965 16.0265 14.4965 13.1065 11.8465 10.7765 9.8265 9.0065 8.3165
1494.958 7.7365 7.2165 6.7265 6.3065 5.9465 5.6465 5.3665 5.1665 4.9565 4.7165
1514.248 4.5665 4.4565 4.2765 4.0965 3.9965 3.9065 3.7565 3.6665 3.5765 3.4965
1533.538 3.4565 3.3665 3.3065 3.2765 3.2365 3.1565 3.0665 3.0465 3.0465 3.0565
1552.827 3.0565 3.0065 2.9865 2.9365 2.9265 2.9265 2.9165 2.9265 2.9765 2.9765
1572.117 2.9165 2.9165 2.9665 3.0465 3.0565 3.1365 3.1865 3.1865 3.2965 3.4765
1591.407 3.5765 3.6165 3.7165 3.8265 3.9365 4.1065 4.2365 4.2865 4.3665 4.4665
1610.697 4.5365 4.6065 4.7065 4.7365 4.7365 4.7765 4.7865 4.8265 4.8765 4.9265
1629.986 5.0665 5.1965 5.3765 5.7365 6.1865 6.6765 7.3165 8.0665 8.8665 9.6065
1649.276 10.0565 10.2965 10.3465 10.1465 9.8265 9.3465 8.6865 7.9265 7.2265 6.7865
1668.566 6.5065 6.3565 6.3365 6.4465 6.6265 6.8265 7.0465 7.3065 7.6665 8.1465
1687.856 8.6165 9.1765 9.8665 10.6565 11.4965 12.3965 13.4065 14.5365 15.8465 17.3565
1707.146 19.1265 21.1865 23.5365 26.3665 29.6865 33.7265 38.6865 44.5365 51.4965 59.7965
1726.435 69.6165 81.0265 94.1865 109.027 125.597 143.307 161.357 179.057 195.137 208.997
1745.725 220.066 227.786 230.816 227.827 218.837 205.267 188.137 168.557 147.536 126.406
1765.015 106.437 88.3865 72.6865 59.5965 48.8065 40.1265 33.2365 27.7365 23.3965 20.0165
1784.305 17.3065 15.1065 13.3665 11.9565 10.7765 9.7065 8.8165 8.0665 7.3965 6.8165
1803.594 6.3665 5.9365 5.4965 5.1565 4.8665 4.5965 4.3665 4.1765 4.0365 3.8865
1822.884 3.7565 3.6365 3.5665 3.4665 3.3465 3.2465 3.1165 3.0465 3.0165 2.9565
1842.174 2.8865 2.8365 2.7765 2.7265 2.6865 2.6365 2.6265 2.6165 2.6065 2.6265
1861.464 2.6565 2.7165 2.7565 2.8265 2.9165 2.9965 3.0565 3.1065 3.1265 3.1465
1880.754 3.1965 3.2265 3.2265 3.2465 3.2065 3.1365 3.0565 2.9565 2.9765 3.0165
1900.043 2.9865 2.9665 2.9565 2.9065 2.9065 2.8765 2.8765 2.8565 2.7465 2.7165
1919.333 2.6865 2.5965 2.4565 2.3365 2.2565 2.1765 2.1065 2.0865 2.0165 1.9365
1938.623 1.9265 1.8765 1.8365 1.8365 1.8365 1.8265 1.7765 1.7865 1.7665 1.7165
1957.913 1.7065 1.6965 1.6765 1.6665 1.7065 1.7065 1.6965 1.7465 1.7565 1.7165
1977.202 1.6865 1.7165 1.7065 1.7065 1.7265 1.7765 1.8165 1.8265 1.8665 1.9065
1996.492 1.9565 2.0265 2.0265 2.0465 2.0865 2.1265 2.1465 2.1865 2.2465 2.3065
2015.782 2.3165 2.2865 2.2665 2.3065 2.3265 2.2465 2.2265 2.2365 2.2065 2.1565
2035.072 2.0765 1.9965 1.9565 1.9265 1.9065 1.8365 1.7565 1.7665 1.7565 1.7265
2054.362 1.7665 1.7365 1.6765 1.6865 1.7365 1.7165 1.6865 1.7265 1.7265 1.7365
2073.651 1.7065 1.6665 1.6865 1.7065 1.7365 1.7365 1.7165 1.7265 1.7765 1.8265
2092.941 1.8165 1.7865 1.7665 1.7665 1.8065 1.7965 1.7465 1.7165 1.6965 1.6465
2112.231 1.5665 1.5165 1.4865 1.3965 1.3065 1.2965 1.2965 1.2765 1.2965 1.2965
2131.521 1.2365 1.1965 1.1665 1.1765 1.2165 1.1965 1.1665 1.1965 1.2265 1.2365
2150.810 1.2265 1.2165 1.2165 1.2165 1.1565 1.1465 1.1665 1.1065 1.0565 1.0865
2170.100 1.1165 1.1365 1.0965 1.0461 1.0446 1.0391 1.0262 0.9858 0.9898 1.0095
2189.390 1.0177 1.0181 1.0218 1.0269 1.0489 1.0865 1.0965 1.0965 1.1065 1.1265
2208.680 1.1865 1.2165 1.1965 1.2265 1.2465 1.2365 1.2265 1.1965 1.2165 1.2465
2227.970 1.2565 1.2265 1.2165 1.2365 1.1965 1.1665 1.1465 1.1365 1.1865 1.1665
2247.259 1.1365 1.1465 1.1465 1.1565 1.1865 1.1465 1.1165 1.0965 1.1365 1.1565
2266.549 1.1465 1.2065 1.1865 1.1265 1.1865 1.1965 1.1265 1.1565 1.1565 1.1165
2285.839 1.0965 1.1265 1.1965 1.2165 1.2365 1.2865 1.3465 1.3465 1.3365 1.3465
2305.129 1.3065 1.3265 1.3765 1.3465 1.3665 1.3765 1.3765 1.3565 1.3465 1.3565
2324.418 1.3365 1.3365 1.3165 1.2965 1.3265 1.3365 1.2965 1.2565 1.1765 1.1565
2343.708 1.2065 1.2565 1.2065 1.1865 1.1965 1.1665 1.1365 1.1565 1.1865 1.1565
2362.998 1.1465 1.1765 1.1765 1.2065 1.2365 1.2465 1.3165 1.3565 1.3665 1.3865
2382.288 1.3965 1.4665 1.4665 1.3965 1.4165 1.4165 1.3365 1.2665 1.2365 1.2865
2401.578 1.2765 1.1865 1.1565 1.1865 1.1765 1.1165 1.0367 1.0279 1.0347 1.031
2420.867 1.0411 1.0765 1.0564 1.017 1.019 1.0473 1.0165 0.9533 0.9282 0.9115
2440.157 0.9207 0.9305 0.8986 0.811 0.8093 0.8181 0.769 0.7831 0.8249 0.8576
2459.447 0.916 0.9152 0.8872 0.9509 0.9357 0.8545 0.8147 0.8338 0.8748 0.851
2478.737 0.8615 0.8809 0.8862 0.9335 0.8835 0.8282 0.876 0.8875 0.8599 0.88
2498.026 0.8912 0.8972 0.8893 0.8159 0.7946 0.7881 0.8122 0.8197 0.7641 0.7332
2517.316 0.7744 0.8577 0.8563 0.7795 0.7918 0.8547 0.8315 0.8423 0.8484 0.8076
2536.606 0.7648 0.7106 0.7222 0.7582 0.7113 0.6836 0.7296 0.7522 0.7438 0.7518
2555.896 0.7408 0.7211 0.7234 0.703 0.705 0.7274 0.7067 0.7453 0.7982 0.8132
2575.186 0.831 0.877 0.89 0.8092 0.7936 0.8108 0.8101 0.8589 0.889 0.826
2594.475 0.8378 0.848 0.8461 0.8561 0.8269 0.8653 0.9292 0.9323 0.9319 0.9544
2613.765 0.916 0.928 0.9704 1.0173 1.0565 1.0865 1.0965 1.0965 1.1165 1.0965
2633.055 1.0965 1.0965 1.1365 1.2165 1.2765 1.3365 1.3865 1.3665 1.4165 1.5065
2652.345 1.4965 1.5565 1.6165 1.6065 1.7165 1.8565 1.8665 1.8665 1.8765 1.8965
2671.634 1.8965 1.8365 1.7765 1.7065 1.5865 1.4665 1.4565 1.4265 1.3565 1.3165
2690.924 1.3265 1.2965 1.2565 1.2365 1.2965 1.3365 1.2765 1.2965 1.3465 1.3865
2710.214 1.4165 1.4565 1.5065 1.4965 1.4665 1.5065 1.5765 1.6465 1.7865 1.7965
2729.504 1.7365 1.7565 1.7365 1.7365 1.7565 1.7365 1.8265 1.8965 1.9165 2.0165
2748.794 2.0865 2.1665 2.2365 2.2665 2.3865 2.4765 2.6065 2.7565 2.8365 2.9865
2768.083 3.1765 3.2965 3.3565 3.3565 3.3865 3.3965 3.3465 3.2665 3.2065 3.1965
2787.373 3.1665 3.1565 3.2165 3.2965 3.4065 3.5065 3.5365 3.6565 3.8565 3.9665
2806.663 4.1965 4.4465 4.6065 4.8665 5.2465 5.6665 5.9965 6.4565 7.0065 7.6365
2825.953 8.4265 9.4165 10.5865 11.9565 13.6365 15.6265 18.1065 20.9265 24.0465 27.4165
2845.242 30.6165 33.4265 35.7065 37.3365 38.3965 38.7965 38.5965 37.7965 36.5365 35.1065
2864.532 33.8465 32.8365 32.0465 31.6365 31.5565 31.7765 32.3365 33.2865 34.3965 35.5365
2883.822 36.9065 38.5165 40.2665 42.1965 44.2165 46.3365 48.3965 50.2965 52.2765 54.3565
2903.112 56.4865 58.7365 61.0565 63.5765 66.3965 69.5365 73.3565 77.9465 82.9165 87.4665
2922.401 91.2065 94.6765 97.9065 100.467 102.296 103.317 103.217 102.447 101.507 100.207
2941.691 98.4765 96.2865 94.0265 91.7865 89.4365 86.8165 84.0165 81.2165 78.6865 76.4565
2960.981 74.3165 72.4065 70.7265 69.3765 68.3065 67.7465 68.1365 69.2665 70.7665 72.3465
2980.271 73.5265 73.9765 73.4865 71.9265 69.4665 65.9965 61.6665 56.6965 51.4065 46.5765
2999.561 42.4765 38.9765 35.9165 33.3165 31.1565 29.3865 28.0765 27.2265 26.9765 27.4965
3018.850 28.9465 31.6765 36.0765 42.6965 51.9565 62.7265 71.6665 75.7565 75.8365 74.5765
3038.140 71.6965 67.6865 60.7765 48.7765 35.8665 26.0165 19.7265 15.8765 13.5165 11.9565
3057.430 10.7365 9.9465 9.4865 9.0665 8.7465 8.5265 8.2565 7.8365 7.4165 6.9665
3076.720 6.5765 6.1865 5.6665 5.2065 4.8765 4.5765 4.2765 4.0865 3.9165 3.6365
3096.009 3.4865 3.4165 3.3065 3.1165 2.8465 2.7665 2.7265 2.6765 2.6165 2.5265
3115.299 2.4265 2.4365 2.3965 2.2665 2.2165 2.1565 2.1265 2.0965 2.0765 1.9965
3134.589 1.8665 1.7865 1.7465 1.7565 1.7265 1.6865 1.6665 1.5865 1.4865 1.4565
3153.879 1.4065 1.2765 1.3065 1.3765 1.3565 1.3765 1.3565 1.2565 1.2065 1.2165
3173.169 1.2065 1.1965 1.2665 1.2265 1.1065 1.0023 0.9184 0.9518 0.9907 0.9376
3192.458 0.9172 0.9553 0.9069 0.9356 0.9324 0.8093 0.7836 0.821 0.7609 0.6382
3211.748 0.616 0.7194 0.8386 0.8408 0.6682 0.5077 0.5624 0.6306 0.6119 0.5874
3231.038 0.5597 0.5672 0.6133 0.5671 0.5507 0.5273 0.4959 0.6192 0.5227 0.4271
3250.328 0.4999 0.4519 0.4908 0.495 0.4894 0.5475 0.4891 0.4622 0.4656 0.5235
3269.617 0.6199 0.6737 0.7432 0.7773 0.7185 0.6656 0.7026 0.699 0.7202 0.8623
3288.907 0.967 1.0134 1.0425 0.9968 0.9816 0.9465 0.9632 0.9009 0.7203 0.7209
3308.197 0.7866 0.6987 0.6012 0.6319 0.6798 0.6307 0.5807 0.6088 0.5881 0.6144
3327.487 0.5231 0.4708 0.5395 0.5559 0.5091 0.4649 0.4546 0.3971 0.3053 0.3641
3346.777 0.4676 0.4419 0.382 0.2973 0.3324 0.2926 0.2303 0.2613 0.2361 0.2599
3366.066 0.403 0.378 0.279 0.2718 0.2982 0.3559 0.347 0.2975 0.3747 0.4077
3385.356 0.3473 0.3578 0.2965 0.2074 0.2558 0.328 0.315 0.3969 0.3978 0.3626
3404.646 0.3857 0.4598 0.4839 0.391 0.333 0.3633 0.2987 0.2284 0.3321 0.3832
3423.936 0.4333 0.4899 0.5003 0.527 0.5182 0.4632 0.5061 0.5889 0.6082 0.6201
3443.225 0.6813 0.6979 0.7395 0.8849 0.9424 0.9801 1.0565 1.2065 1.3565 1.5365
3462.515 1.7165 1.7965 1.8765 2.0065 2.1265 2.1965 2.2565 2.2165 2.3865 2.5265
3481.805 2.3865 2.2965 2.0965 1.9765 2.0065 1.8765 1.6665 1.3465 1.1665 1.2365
3501.095 1.0965 0.882 0.8156 0.8314 0.7093 0.5837 0.5112 0.5481 0.556 0.4183
3520.385 0.3834 0.4506 0.597 0.5128 0.4253 0.3661 0.3176 0.3964 0.4281 0.38
3539.674 0.3059 0.3301 0.3393 0.3208 0.3347 0.2838 0.1763 0.07986 0.0259 0.06896
3558.964 0.1722 0.2455 0.1856 0.13579 0.12834 0 0.1037 0.2683 0.2789 0.2952
3578.254 0.2195 0.173 0.177 0.1762 0.1856 0.1739 0.1738 0.1938 0.223 0.1895
3597.544 0.1138 0.14542 0.1886 0.1778 0.09202 0.14598 0.2852 0.3841 0.4364 0.3541
3616.833 0.3017 0.2545 0.1953 0.14086 0.13379 0.2017 0.1928 0.09972 0.0391 0.10035
3636.123 0.1608 0.14129 0.12553 0.14863 0.10441 0.10801 0.235 0.2316 0.1588 0.2427
3655.413 0.3248 0.1755 0.07711 0.07722 0.06651 0.1902 0.2848 0.2505 0.2305 0.2532
3674.703 0.1777 0.10933 0.223 0.2762 0.1887 0.1739 0.2065 0.1775 0.3011 0.3405
3693.993 0.2371 0.15014 0.2032 0.3376 0.4136 0.4431 0.3255 0.2839 0.3218 0.2464
3713.282 0.2325 0.2537 0.3008 0.4101 0.3543 0.2815 0.331 0.3625 0.3928 0.3697
3732.572 0.2914 0.3503 0.4 0.3287 0.2412 0.1865 0.1955 0.2477 0.2874 0.2831
3751.862 0.296 0.3887 0.373 0.369 0.4131 0.359 0.302 0.3689 0.4195 0.2998
3771.152 0.2302 0.3477 0.3674 0.385 0.4517 0.4429 0.4094 0.3783 0.3913 0.2506
3790.441 0.3046 0.4807 0.5136 0.4429 0.3861 0.3842 0.3703 0.5297 0.5661 0.4322
3809.731 0.457 0.4993 0.4456 0.407 0.4018 0.3202 0.2642 0.3286 0.3788 0.3789
3829.021 0.3917 0.4417 0.3723 0.3589 0.3935 0.4428 0.4378 0.3532 0.3933 0.4761
3848.311 0.4179 0.355 0.3985 0.4009 0.4473 0.4113 0.3756 0.3486 0.4761 0.5595
3867.601 0.3891 0.3206 0.4342 0.5843 0.6162 0.5728 0.4849 0.5032 0.5637 0.5484
3886.890 0.6123 0.4893 0.3892 0.3945 0.292 0.4146 0.5854 0.6295 0.5003 0.5025
3906.180 0.5224 0.4879 0.5707 0.6379 0.5341 0.4458 0.5202 0.5784 0.5763 0.4607
3925.470 0.5781 0.667 0.5479 0.5449 0.5878 0.6736 0.6867 0.5567 0.49 0.4994
3944.760 0.5368 0.5697 0.5314 0.5597 0.5755 0.6057 0.5751 0.4743 0.6317 0.6784
3964.049 0.5853 0.7425 0.8246 0.6167 0.5455 0.7115 0.6888 0.6616 0.7709 0.6522
3983.339 0.6562 0.8646 0.835 0.691 0.7213 0.8382 0.8047 0.7453 0.7858 0.7501
##END=
