##TITLE=2,5-Dinitrofluorene
##JCAMP-DX=4.24
##DATA TYPE=INFRARED SPECTRUM
##ORIGIN=EPA-IR VAPOR PHASE LIBRARY
##OWNER=SRD/NIST
Collection (C) 2018 copyright by the U.S. Secretary of Commerce
on behalf of the United States of America. All rights reserved.
##CAS REGISTRY NO=15110-74-4
##MOLFORM=C 13 H 8 N 2 O 4
##$NIST SOURCE=MSDC-IR
##STATE=gas
##XUNITS=1/CM
##YUNITS=ABSORBANCE
##XFACTOR=1.
##YFACTOR=0.001
##DELTAX=1.92898
##FIRSTX=549.8
##LASTX=4000.7
##FIRSTY=0.7012
##MAXX=4000.7
##MINX=549.759
##MAXY=0.016427
##MINY=0
##NPOINTS=1790
##XYDATA=(X++(Y..Y))
549.759 0.7012 0.6184 0.164 0.3922 0.037 0.053 0.3325 0.4608 0.7754 0.692
569.049 0.6832 0.7891 0.8664 0.5949 0.255 0.168 0.3768 0.4978 0.4021 0.3595
588.339 0.4032 0.6403 0.845 0.663 0.3718 0.301 0.313 0.3553 0.5701 0.5307
607.628 0.4026 0.435573 0.4009 0.089 0 0.31 0.583 0.6792 0.534 0.44989
626.918 0.193 0.303 0.46318 0.46027 0.7565 0.8251 0.6613 0.5702 0.5988 0.47927
646.208 0.281 0.4064 0.5715 0.3893 0.249 0.51359 0.7716 0.7135 0.46243 0.233
665.498 0.50908 0.7177 0.3825 0.112 0.3334 0.6302 0.7004 0.8578 0.9121 0.8383
684.787 0.7204 0.7771 1.0008 0.8845 0.546 0.44144 0.5748 0.5293 0.6021 0.7909
704.077 0.6711 0.7906 0.9465 0.8837 0.9638 1.209 1.3062 1.2656 1.527 1.777
723.367 2.127 2.647 3.137 3.987 4.677 4.987 5.147 4.757 4.307 3.837
742.657 3.197 2.467 1.997 1.997 1.737 1.617 1.677 1.727 1.957 1.747
761.947 1.437 1.3319 1.2831 1.1392 0.8957 0.6602 0.6819 0.7916 0.7574 0.8525
781.236 0.8897 1.0779 1.2921 1.717 1.927 1.717 1.797 2.077 2.527 3.027
800.526 3.627 4.347 4.847 4.547 4.217 3.957 3.197 2.697 2.607 2.727
819.816 2.707 2.707 2.607 2.667 2.587 2.117 1.817 1.777 1.867 1.707
839.106 1.487 1.4183 1.2681 1.1712 0.93 0.6545 0.7914 0.9838 0.9492 0.599
858.395 0.264 0.203 0.44449 0.5716 0.5777 0.48657 0.3795 0.52268 0.8787 1.1149
877.685 0.97 1.0198 1.1376 0.9666 0.8043 0.7766 0.7597 0.8293 0.8629 0.8237
896.975 0.9258 0.8628 1.0727 1.2895 1.1576 0.9015 0.8572 1.0577 1.0193 0.8777
916.265 0.7633 0.9307 1.0896 0.9432 0.6758 0.5722 0.7145 0.7419 0.7829 0.8611
935.555 0.7159 0.6364 0.7225 0.9095 0.9493 0.7691 1.0635 1.3149 1.1055 0.9299
954.844 0.7615 0.7772 0.9101 0.6841 0.5762 0.8271 0.8353 0.5076 0.221 0.29
974.134 0.434514 0.3424 0.275 0.5736 0.6794 0.579 0.48551 0.44204 0.5953 0.7836
993.424 0.8329 0.7127 0.3789 0.5449 1.0568 0.9528 0.8724 1.0975 1.1627 1.1479
1012.714 0.8458 0.6964 0.7625 0.6467 0.7623 0.773 0.4839 0.132 0.122 0.309
1032.003 0.7676 0.6977 0.3906 0.5848 0.6332 0.6604 0.51894 0.50974 0.48397 0.3955
1051.293 0.5863 0.45565 0.50991 0.7831 0.6121 0.8289 1.0981 0.8582 0.7164 0.8345
1070.583 1.0897 0.788 0.6637 1.1345 1.3527 1.3614 1.3723 1.382 1.577 1.597
1089.873 1.3409 1.1214 1.0145 1.1955 1.1624 0.9956 1.41 1.557 0.6735 0.47178
1109.163 0.978 0.9786 1.1678 1.2887 1.2982 0.7841 0.3511 0.9577 1.1691 0.8361
1128.452 0.761 1.1265 1.0022 0.4984 0.3967 0.7194 0.7001 0.5853 0.8447 0.7646
1147.742 0.45773 0.5322 0.434612 0.51462 0.8389 0.8225 0.8188 0.5582 0.8251 1.0229
1167.032 0.98 1.0561 1.0449 1.1403 1.1922 1.1853 0.9855 1.065 1.4233 1.507
1186.322 1.0567 0.6984 0.9985 1.3321 1.3009 1.3515 1.447 1.607 1.3919 1.2615
1205.611 1.527 1.3094 1.3224 1.2158 0.6652 0.5857 0.7637 1.2512 1.2142 0.7868
1224.901 0.285 0.6808 1.3562 1.106 0.9134 0.7924 1.1429 1.062 0.7387 0.818
1244.191 0.8791 0.9241 1.2286 1.388 1.015 1.0464 1.1178 1.0816 1.3757 1.2002
1263.481 0.9307 1.3433 1.437 1.2349 1.309 1.3221 1.3732 1.467 1.4085 1.567
1282.771 1.767 1.797 1.727 1.737 2.147 2.387 2.657 2.987 3.357 3.887
1302.060 4.187 4.297 4.297 4.257 4.067 3.767 3.447 3.127 2.977 2.817
1321.350 2.757 2.967 3.277 3.667 4.327 5.047 5.867 7.047 8.407 9.787
1340.640 11.237 12.527 13.507 14.237 14.597 14.487 14.027 13.377 12.647 11.777
1359.930 10.917 10.157 9.307 8.447 7.637 6.707 5.647 4.747 4.077 3.547
1379.219 3.017 2.647 2.467 2.237 2.067 1.967 1.827 1.837 1.987 1.997
1398.509 1.917 1.957 2.017 2.097 2.167 2.147 2.087 2.067 2.077 1.947
1417.799 1.767 1.617 1.557 1.527 1.457 1.4268 1.507 1.647 1.677 1.707
1437.089 1.777 1.947 2.067 2.097 2.087 1.897 1.787 1.847 1.897 1.907
1456.378 1.887 1.957 2.047 2.017 1.987 1.937 1.747 1.647 1.617 1.587
1475.668 1.587 1.537 1.547 1.497 1.427 1.457 1.507 1.607 1.717 1.857
1494.958 2.037 2.177 2.437 2.757 2.867 2.887 3.107 3.407 3.587 3.717
1514.248 4.087 4.547 4.967 5.477 6.157 6.847 7.657 8.617 9.607 10.737
1533.538 11.897 13.007 14.077 15.037 15.877 16.397 16.427 16.317 15.877 14.827
1552.827 13.477 12.077 10.687 9.297 7.977 7.007 6.307 5.807 5.337 4.867
1572.117 4.637 4.497 4.327 4.157 4.107 3.997 3.857 3.717 3.647 3.537
1591.407 3.307 3.137 2.907 2.727 2.527 2.307 2.287 2.287 2.087 1.997
1610.697 2.017 1.877 1.687 1.497 1.457 1.457 1.3365 1.196 1.0645 1.0148
1629.986 0.9462 0.9042 0.8456 0.831 0.9182 0.8284 0.7883 0.812 0.7822 0.8274
1649.276 0.8466 0.8261 0.7291 0.6818 0.6799 0.7014 0.7597 0.6477 0.6518 0.7175
1668.566 0.6398 0.6759 0.6963 0.6801 0.7558 0.7125 0.6314 0.6379 0.6363 0.6567
1687.856 0.7196 0.6727 0.6311 0.6047 0.5935 0.706 0.7423 0.646 0.5524 0.5438
1707.146 0.5502 0.5676 0.5376 0.5284 0.5808 0.5662 0.5613 0.51875 0.48253 0.5893
1726.435 0.5993 0.5716 0.6179 0.562 0.51991 0.5369 0.5909 0.654 0.6149 0.578
1745.725 0.5551 0.50578 0.5465 0.5636 0.47876 0.46278 0.50054 0.45343 0.4169 0.47565
1765.015 0.51267 0.6334 0.6685 0.6221 0.6358 0.6087 0.5764 0.5499 0.51697 0.51706
1784.305 0.6074 0.6235 0.5677 0.5776 0.5528 0.5643 0.7082 0.6634 0.5395 0.554
1803.594 0.5801 0.6166 0.5888 0.5698 0.6206 0.5449 0.44851 0.46286 0.48307 0.49138
1822.884 0.50607 0.48626 0.45913 0.5317 0.5941 0.5834 0.5658 0.6159 0.6314 0.5618
1842.174 0.5542 0.5947 0.6059 0.5617 0.5506 0.5288 0.531 0.5559 0.48706 0.49138
1861.464 0.49004 0.46191 0.47028 0.5411 0.645 0.5934 0.6063 0.6426 0.6199 0.6368
1880.754 0.5547 0.46897 0.52487 0.5529 0.48326 0.44066 0.45836 0.5479 0.5615 0.5466
1900.043 0.6008 0.6015 0.6029 0.5452 0.547 0.6017 0.598 0.6703 0.5906 0.50039
1919.333 0.5407 0.541 0.588 0.6099 0.5697 0.52113 0.596 0.7035 0.6534 0.6349
1938.623 0.6217 0.5812 0.5412 0.5359 0.50308 0.432185 0.47969 0.50277 0.43277 0.44912
1957.913 0.45747 0.434656 0.49956 0.51621 0.4557 0.4012 0.4119 0.4165 0.43839 0.50342
1977.202 0.48454 0.4909 0.5579 0.5742 0.5692 0.51935 0.5049 0.5826 0.5754 0.5594
1996.492 0.5283 0.48249 0.5361 0.51599 0.43985 0.4569 0.50951 0.5472 0.5345 0.46091
2015.782 0.5057 0.52532 0.436565 0.3879 0.4212 0.45098 0.47881 0.52218 0.47656 0.48647
2035.072 0.50155 0.46924 0.46237 0.426899 0.44336 0.52276 0.5351 0.3921 0.274 0.368
2054.362 0.49678 0.51234 0.42641 0.44678 0.47334 0.49755 0.5907 0.5628 0.583 0.5288
2073.651 0.49194 0.52538 0.44204 0.4086 0.47497 0.5585 0.51931 0.3975 0.4114 0.433591
2092.941 0.3951 0.42417 0.43806 0.44411 0.46789 0.49127 0.50861 0.5305 0.5494 0.51543
2112.231 0.45951 0.46019 0.4799 0.49345 0.51242 0.51604 0.48719 0.44705 0.49208 0.5857
2131.521 0.6024 0.46455 0.42513 0.48908 0.50953 0.50888 0.47633 0.5678 0.51065 0.47034
2150.810 0.56 0.5336 0.5559 0.5745 0.52224 0.50431 0.44505 0.430874 0.5753 0.5492
2170.100 0.46235 0.430833 0.3929 0.42575 0.45825 0.48501 0.4752 0.4539 0.44223 0.41734
2189.390 0.431902 0.44686 0.51769 0.5986 0.6086 0.5961 0.5796 0.5423 0.49898 0.51471
2208.680 0.4103 0.337 0.41722 0.48062 0.5741 0.51343 0.41941 0.48044 0.52333 0.5467
2227.970 0.5323 0.50957 0.43439 0.41 0.3953 0.4014 0.48776 0.4154 0.3666 0.42076
2247.259 0.49447 0.50466 0.5243 0.5933 0.5835 0.5283 0.6088 0.6138 0.46858 0.45516
2266.549 0.48471 0.48679 0.50324 0.45941 0.3678 0.3731 0.41875 0.44069 0.51116 0.50146
2285.839 0.50939 0.6302 0.5858 0.47987 0.5692 0.6193 0.49285 0.46794 0.46651 0.50082
2305.129 0.48909 0.47274 0.46185 0.44652 0.45868 0.3854 0.3977 0.49638 0.5556 0.5335
2324.418 0.5487 0.5945 0.5217 0.49229 0.6085 0.5966 0.50538 0.46942 0.44189 0.5652
2343.708 0.6442 0.5467 0.47402 0.3764 0.352 0.4064 0.49576 0.5388 0.51454 0.5816
2362.998 0.50736 0.3879 0.428726 0.45856 0.3769 0.318 0.4011 0.4693 0.4043 0.41815
2382.288 0.5807 0.6032 0.4243 0.327 0.3825 0.42172 0.45613 0.47509 0.5198 0.50906
2401.578 0.44792 0.47634 0.50327 0.52178 0.5316 0.5379 0.4749 0.5426 0.6291 0.49995
2420.867 0.45027 0.48424 0.48364 0.51751 0.5567 0.5003 0.4647 0.42257 0.3668 0.42156
2440.157 0.44889 0.49905 0.611 0.5081 0.44387 0.5354 0.5319 0.5769 0.6024 0.50368
2459.447 0.49374 0.49077 0.47215 0.50412 0.545 0.50321 0.46639 0.47649 0.48874 0.52308
2478.737 0.48416 0.3795 0.3293 0.3897 0.542 0.548 0.47983 0.47571 0.44735 0.51625
2498.026 0.5378 0.6105 0.6483 0.5969 0.5705 0.49677 0.44161 0.4805 0.47498 0.4637
2517.316 0.5558 0.5461 0.432847 0.46913 0.5702 0.4769 0.48549 0.51841 0.5285 0.6074
2536.606 0.5905 0.6039 0.6963 0.5971 0.5401 0.5797 0.55 0.52311 0.46318 0.49722
2555.896 0.5129 0.44342 0.45257 0.5649 0.6035 0.5682 0.5538 0.5644 0.6167 0.5836
2575.186 0.50439 0.58 0.6035 0.5597 0.51948 0.48347 0.52545 0.49002 0.434812 0.47926
2594.475 0.5476 0.5725 0.50466 0.3959 0.48851 0.671 0.6446 0.6875 0.6754 0.5399
2613.765 0.5455 0.5849 0.5435 0.49565 0.49087 0.5938 0.5668 0.46715 0.51129 0.5857
2633.055 0.5809 0.5435 0.49015 0.48222 0.5527 0.6147 0.6756 0.567 0.47584 0.51313
2652.345 0.6234 0.612 0.431134 0.48593 0.5519 0.45995 0.45237 0.5704 0.6759 0.5734
2671.634 0.429672 0.48659 0.5744 0.51776 0.50095 0.5718 0.6345 0.6692 0.6312 0.5382
2690.924 0.51512 0.6053 0.6842 0.6354 0.5606 0.46727 0.49487 0.5486 0.49244 0.50429
2710.214 0.5489 0.5984 0.6198 0.47547 0.371 0.44085 0.5492 0.51982 0.427158 0.42052
2729.504 0.49025 0.52491 0.46347 0.41781 0.51147 0.6153 0.5886 0.5676 0.5387 0.3627
2748.794 0.284 0.3654 0.51284 0.6344 0.5852 0.52039 0.46697 0.46712 0.5418 0.4755
2768.083 0.44345 0.5412 0.45387 0.3655 0.45735 0.6433 0.6386 0.5459 0.52005 0.50571
2787.373 0.5584 0.49813 0.5344 0.636 0.7169 0.839 0.7144 0.6093 0.5776 0.5746
2806.663 0.6957 0.6859 0.6112 0.5377 0.5997 0.6343 0.5355 0.5762 0.561 0.6127
2825.953 0.5969 0.46931 0.5949 0.7219 0.6657 0.6235 0.6686 0.7321 0.7243 0.6218
2845.242 0.45602 0.52331 0.7149 0.7776 0.7925 0.79 0.7995 0.7103 0.6887 0.7002
2864.532 0.7253 0.7777 0.6756 0.6731 0.7964 0.8227 0.7535 0.6831 0.8149 0.8256
2883.822 0.6718 0.6723 0.7073 0.7622 0.7723 0.7617 0.7695 0.7537 0.6789 0.8573
2903.112 1.0124 0.9458 1.0435 1.0034 0.9867 1.0539 0.9512 0.905 0.9504 0.9641
2922.401 0.985 0.9759 0.9384 0.8055 0.8181 0.8749 0.8427 0.9014 0.8393 0.6775
2941.691 0.6679 0.6298 0.6453 0.6401 0.5454 0.557 0.45016 0.4158 0.51384 0.6173
2960.981 0.6168 0.6638 0.7109 0.6065 0.5322 0.49345 0.388 0.41838 0.49213 0.5462
2980.271 0.5657 0.49326 0.3998 0.291 0.433541 0.6528 0.5373 0.52169 0.6382 0.5383
2999.561 0.6354 0.6962 0.51448 0.5328 0.596 0.562 0.5796 0.5768 0.52515 0.6281
3018.850 0.7074 0.669 0.5986 0.5527 0.601 0.619 0.6566 0.6418 0.6396 0.7354
3038.140 0.695 0.6659 0.6732 0.6598 0.7315 0.7396 0.6928 0.6433 0.6168 0.6291
3057.430 0.6884 0.7609 0.7086 0.5899 0.6921 0.9034 0.8801 0.9812 1.3415 1.316
3076.720 1.1214 1.0681 1.1046 1.2719 1.1098 0.7632 0.6666 0.7791 0.7932 0.7168
3096.009 0.7749 0.7239 0.6297 0.5818 0.5687 0.6805 0.7308 0.5966 0.48197 0.50272
3115.299 0.42248 0.296 0.3619 0.6146 0.6681 0.4168 0.48338 0.6488 0.5723 0.5404
3134.589 0.557 0.51124 0.46617 0.5376 0.5437 0.315 0.307 0.47494 0.5569 0.5875
3153.879 0.5497 0.5441 0.676 0.7619 0.7253 0.7144 0.6165 0.6061 0.6138 0.5493
3173.169 0.52664 0.6271 0.5677 0.48888 0.5467 0.5427 0.45142 0.3606 0.3919 0.5339
3192.458 0.6912 0.6264 0.5972 0.7385 0.7621 0.5341 0.42274 0.4864 0.46059 0.5579
3211.748 0.6181 0.52465 0.5753 0.6493 0.45463 0.3315 0.51751 0.4491 0.257 0.262
3231.038 0.3477 0.46978 0.46568 0.4038 0.4001 0.3948 0.3785 0.3748 0.4135 0.5367
3250.328 0.5868 0.49253 0.4057 0.48236 0.631 0.47075 0.43823 0.45686 0.268 0.3948
3269.617 0.5834 0.52594 0.6153 0.5726 0.51975 0.47116 0.3891 0.430109 0.3686 0.428231
3288.907 0.4303 0.3341 0.315 0.3663 0.5393 0.6453 0.429793 0.283 0.338 0.3622
3308.197 0.3923 0.47541 0.4718 0.431375 0.4418 0.52497 0.5698 0.5949 0.6183 0.5894
3327.487 0.5463 0.3958 0.356 0.4094 0.252 0.199 0.4054 0.43041 0.248 0.436871
3346.777 0.5735 0.3733 0.4603 0.5784 0.5811 0.5354 0.48618 0.49221 0.5443 0.67
3366.066 0.6317 0.5584 0.46389 0.47145 0.52418 0.5514 0.5718 0.6104 0.6963 0.6069
3385.356 0.5327 0.569 0.45743 0.3516 0.46954 0.6087 0.4125 0.3297 0.6226 0.6385
3404.646 0.587 0.7155 0.703 0.51238 0.45315 0.46364 0.5796 0.6773 0.5888 0.50035
3423.936 0.46833 0.47237 0.5274 0.5348 0.3945 0.3539 0.4736 0.6099 0.672 0.6207
3443.225 0.46775 0.3447 0.31 0.4104 0.46283 0.6031 0.8294 0.8239 0.7057 0.5466
3462.515 0.5303 0.5552 0.49693 0.46467 0.4164 0.3893 0.42524 0.47239 0.5465 0.5778
3481.805 0.52561 0.5281 0.6376 0.6871 0.6644 0.5774 0.4413 0.5715 0.6612 0.46762
3501.095 0.49095 0.6044 0.434059 0.314 0.415 0.283 0.196 0.3958 0.5748 0.6981
3520.385 0.5012 0.281 0.4153 0.47157 0.429392 0.41715 0.44406 0.6031 0.6589 0.5306
3539.674 0.6197 0.8186 0.8144 0.7856 0.7672 0.5828 0.52676 0.6294 0.6924 0.6741
3558.964 0.46879 0.3498 0.4118 0.4107 0.47304 0.50447 0.47658 0.4226 0.3631 0.3487
3578.254 0.45963 0.50367 0.313 0.249 0.3 0.3649 0.48801 0.46391 0.46994 0.5834
3597.544 0.6038 0.6973 0.6328 0.46262 0.49208 0.50348 0.32 0.3712 0.6456 0.7492
3616.833 0.8171 0.8101 0.6562 0.47332 0.47974 0.5518 0.51083 0.6159 0.6452 0.6243
3636.123 0.7185 0.6249 0.47109 0.426209 0.6088 0.7777 0.7867 0.64 0.5501 0.6457
3655.413 0.42679 0.403 0.46558 0.45411 0.6218 0.5747 0.387 0.433933 0.5549 0.42569
3674.703 0.323 0.314 0.223 0.3795 0.44983 0.4615 0.6076 0.5333 0.49971 0.6515
3693.993 0.5724 0.44538 0.591 0.5355 0.51323 0.5298 0.408 0.5346 0.6591 0.5992
3713.282 0.6675 0.686 0.49585 0.50028 0.4823 0.321 0.5412 0.5656 0.3485 0.49219
3732.572 0.43721 0.3552 0.49261 0.47978 0.46676 0.5816 0.5854 0.46741 0.46811 0.5296
3751.862 0.6094 0.5299 0.4479 0.46323 0.44386 0.48765 0.6758 0.7221 0.48869 0.48584
3771.152 0.6845 0.6741 0.6538 0.6982 0.6755 0.7088 0.8018 0.6891 0.5736 0.3975
3790.441 0.47593 0.7315 0.5351 0.47439 0.5808 0.7281 0.7648 0.721 0.7077 0.5724
3809.731 0.4498 0.5363 0.584 0.5543 0.5464 0.44413 0.287 0.44757 0.6077 0.49456
3829.021 0.43939 0.50438 0.6527 0.51781 0.42418 0.52091 0.6186 0.6561 0.45739 0.3895
3848.311 0.544 0.50402 0.4004 0.5963 0.5374 0.3635 0.5362 0.7034 0.7204 0.7857
3867.601 0.6451 0.41731 0.44679 0.4049 0.264 0.3707 0.5889 0.6045 0.54 0.5335
3886.890 0.601 0.626 0.47176 0.322 0.3404 0.42018 0.5499 0.49505 0.6344 0.6381
3906.180 0.5745 0.5857 0.385 0.42559 0.7196 0.6608 0.49134 0.6539 0.663 0.5682
3925.470 0.595 0.47236 0.4002 0.5816 0.5932 0.5494 0.4328 0.4497 0.47026 0.24
3944.760 0.44238 0.6338 0.5899 0.51364 0.5826 0.5859 0.5519 0.50921 0.3772 0.49427
3964.049 0.48567 0.5472 0.426688 0.301 0.48928 0.6775 0.6334 0.49337 0.46964 0.3627
3983.339 0.369 0.5638 0.6221 0.5735 0.5954 0.5526 0.52638 0.5616 0.6249 0.5801
##END=
