##TITLE=Ethyl 4,4,4-trifluoro-3-(trifluoromethyl)crotonate
##JCAMP-DX=4.24
##DATA TYPE=INFRARED SPECTRUM
##ORIGIN=EPA-IR VAPOR PHASE LIBRARY
##OWNER=SRD/NIST
Collection (C) 2018 copyright by the U.S. Secretary of Commerce
on behalf of the United States of America. All rights reserved.
##CAS REGISTRY NO=1513-60-6
##MOLFORM=C 7 H 6 F 6 O 2
##$NIST SOURCE=MSDC-IR
##STATE=gas
##XUNITS=1/CM
##YUNITS=ABSORBANCE
##XFACTOR=1.
##YFACTOR=0.001
##DELTAX=1.92898
##FIRSTX=549.8
##LASTX=4000.7
##FIRSTY=2.84
##MAXX=4000.7
##MINX=549.759
##MAXY=0.24145
##MINY=0
##NPOINTS=1790
##XYDATA=(X++(Y..Y))
549.759 2.84 3.01 2.49 2.16 3.26 3.39 3.57 3.73 3.16 2.82
569.049 2.72 3.28 3.77 3.4 2.55 2.43 2.78 3.12 3.5 2.98
588.339 2.83 2.69 3.04 3.58 3.33 3.55 3.8 4.1 3.71 3.03
607.628 3.08 2.63 2.46 2.71 2.69 3.08 3.24 3.28 3.4 3.24
626.918 3.01 3.03 3.09 3.21 3.22 3.1 3.35 3.37 2.65 2.93
646.208 3.35 3.24 3.11 2.72 3.1 3.39 3.19 2.91 3.03 3.24
665.498 3.81 4.56 4.95 6.41 8.26 11.88 17.15 21.98 26.18 29.59
684.787 31.62 31.59 30 25.93 20.52 15.57 11.84 9.52 8.38 7.19
704.077 5.62 4.6 3.85 3.6 3.52 3.09 2.77 2.64 2.73 2.65
723.367 2.14 2.36 3.07 3.11 2.38 1.6028 1.9172 2.71 2.82 2.31
742.657 1.4222 1.5034 1.7182 1.9094 2.14 1.6271 1.8458 2.16 2.0001 2.06
761.947 2.86 3.15 2.6 2.56 2.54 2.46 2.71 2.64 2.85 3.21
781.236 2.66 1.8564 1.7158 2.23 2.56 2.6 2.74 2.78 2.45 2.68
800.526 2.92 2.52 2.44 2.16 2.25 2.61 2.68 2.74 2.26 1.1826
819.816 0 0.522 2.54 2.96 2.83 2.71 2.8 3.12 3.71 4.23
839.106 4.2 5.03 5.86 6.48 6.53 6.48 6.64 6.3 5.74 5.5
858.395 4.73 4.2 4.38 4 3.75 3.5 3.46 3.9 3.32 2.99
877.685 3.36 3.97 4.19 3.69 3.28 3.53 4.28 4.37 5.07 6.13
896.975 6.81 7.73 8.03 8.23 8.46 8.17 7.89 7.96 8.27 8.5
916.265 8.27 8.37 9.28 10.6 12.21 14.17 15.33 15.6 16.52 16.8
935.555 16.4 15.53 14.61 14.22 13.6 12.5 11.13 9.95 9.02 8.59
954.844 8.26 7.98 8.12 8.02 7.55 7.81 8.69 9.21 10.25 12.08
974.134 13.92 15.66 18.42 21.82 25.4 29.82 33.86 37.05 40.11 42.06
993.424 42 40.22 37.51 34.46 31.21 28.2 25.43 23.35 22.12 21.21
1012.714 21.44 22.23 23.51 25.46 27.57 29.63 31.7 33.45 34.01 33.99
1032.003 33.71 32.23 28.15 23.8 20.66 18.44 15.74 13.29 12.03 11.38
1051.293 10.86 9.79 8.54 8.01 7.77 8.08 7.85 7.07 6.85 5.86
1070.583 4.77 5.26 6.28 5.94 5.91 6.82 7.97 8.56 10.17 11.28
1089.873 10.6 11.14 11.96 11.7 11.14 10.69 9.97 10.04 11.51 10.72
1109.163 9.98 10.7 9.27 7.64 8.02 9.73 10.75 11.29 10.4 8.59
1128.452 8.84 9.71 11.07 12.73 13.6 14.95 16.26 17.61 19.32 21.25
1147.742 24.53 28.18 32.19 36.35 41.79 46.52 49.35 53.21 56.73 60.95
1167.032 66.17 71.69 78.3 87.84 101.57 116.21 134.33 155.18 176.02 197.63
1186.322 216.83 230.88 239.68 241.45 232.95 218.57 201.35 182.77 161.84 145.06
1205.611 131.91 120.69 115.9 113.53 114.97 119.39 128.04 139.49 149.88 158.49
1224.901 163.73 166.91 165.98 162.35 154.98 145.8 137.32 127.56 121.41 117.76
1244.191 114.64 115.13 117.57 119.94 123.61 127.86 131.58 134.52 136.67 138.17
1263.481 138.66 140.97 145.16 150.2 156.88 166.26 178.05 191.54 205.65 217.46
1282.771 224.61 224.78 216.78 201.88 181.31 155.76 128.42 103.23 82.08 65.82
1302.060 53.9 45.28 39.16 34.64 31.02 27.99 25.6 23.6 21.7 19.96
1321.350 18.82 17.86 16.71 15.65 14.89 14.28 13.65 13.08 12.49 12.12
1340.640 11.78 11.6 11.72 12.06 12.55 13.32 14.41 15.65 17.04 19.08
1359.930 21.91 24.98 28.43 32.1 35.66 38.94 41.9 44.67 47.04 48.45
1379.219 49.15 49.47 48.99 47.81 45.5 42.21 38.54 34.16 29.51 25.52
1398.509 22.26 19.47 17.03 14.83 13.07 11.71 10.66 9.45 8.55 7.99
1417.799 7.39 6.95 6.63 6.39 6.04 5.89 5.98 5.71 5.53 5.66
1437.089 5.69 5.77 5.94 5.87 5.9 6.13 6.23 6.22 6.29 6.46
1456.378 6.33 6.39 6.61 6.48 6.61 6.71 6.92 7.5 7.71 7.49
1475.668 7.25 7 6.64 6.34 5.85 5.35 4.88 4.69 4.67 4.27
1494.958 3.97 3.91 3.81 3.59 3.66 3.86 3.67 3.57 3.47 3.37
1514.248 3.41 3.49 3.44 3.36 3.27 3.01 3 3.02 3.13 3.07
1533.538 3.12 3.11 2.78 3.02 2.99 2.85 2.86 2.86 2.96 2.63
1552.827 2.45 2.4 2.39 2.84 3.08 2.73 2.46 2.51 2.68 2.77
1572.117 2.45 2.6 2.71 2.44 2.33 2.05 1.95 2.1 2.44 2.49
1591.407 2.41 2.61 2.56 2.44 2.46 2.61 2.86 2.58 2.46 2.6
1610.697 2.59 2.74 2.81 2.75 2.86 2.92 2.92 3.05 3.11 3.01
1629.986 3.09 2.97 2.75 3.06 3.28 3.5 3.81 3.9 4.14 4.35
1649.276 4.42 4.84 5.42 6.06 6.7 7.31 8.16 9.1 9.88 10.56
1668.566 10.98 11.15 11.41 11.74 11.65 11.08 10.49 10.12 9.63 9.27
1687.856 8.94 8.35 7.9 7.48 7.3 7.15 6.9 6.81 6.76 6.9
1707.146 7.02 6.97 7.06 7.47 7.83 8.39 8.73 8.83 9.39 9.87
1726.435 10.21 10.84 11.64 12.67 14.04 15.5 17.29 19.83 23.03 26.84
1745.725 31.49 37.5 44.91 53.7 63.12 72.11 80.13 86.05 88.17 85.44
1765.015 78.97 70.33 60.72 51.34 42.2 34.29 28.08 23.5 19.91 16.83
1784.305 14.46 12.75 11.34 10.24 9.16 8.15 7.71 7.24 6.69 6.22
1803.594 5.78 5.44 5.15 5.01 4.82 4.33 4.18 4.15 3.93 3.93
1822.884 3.86 3.73 3.66 3.49 3.35 3.24 3.04 3.07 3.34 3.25
1842.174 3.01 2.96 2.88 2.93 2.8 2.7 2.72 2.73 2.67 2.54
1861.464 2.52 2.59 2.52 2.26 2.22 2.22 2.14 2.08 2.12 2.0007
1880.754 1.9843 2.06 2.06 2.19 2.28 2.05 1.8755 1.9762 2.06 2.19
1900.043 2.19 2.09 2.11 2.15 1.9487 1.7829 1.8984 1.8519 1.7382 1.811
1919.333 1.7967 1.8186 1.8942 1.8976 1.8754 1.7389 1.6006 1.6886 1.7904 1.8139
1938.623 1.7868 1.803 1.9422 2.04 1.9872 1.9593 1.9088 1.8192 1.9731 2.03
1957.913 2.11 2.1 2.07 2.1 1.963 2.06 2.1 1.8479 1.6753 1.6822
1977.202 1.8294 1.9749 1.8186 1.5032 1.5533 1.9201 2.04 1.9079 1.7858 1.9344
1996.492 2.14 2.02 1.8474 1.9678 2.03 1.9353 1.8718 1.8813 2.09 2.04
2015.782 1.9625 2.15 2.18 2.11 2.14 1.9199 1.8557 2.07 1.8176 1.6744
2035.072 1.8681 1.9596 1.966 2.1 2.17 2.0171 1.7069 1.7122 1.898 1.9254
2054.362 1.9056 2.04 2.22 2.0131 1.8313 1.7037 1.6053 1.7643 1.8883 1.8161
2073.651 1.817 1.8236 1.8053 1.9399 1.7963 1.7709 1.8744 2.1 2.1 1.9656
2092.941 2.15 2.06 1.9015 1.9141 1.918 1.7918 1.9042 1.9718 1.8794 2.04
2112.231 2.0017 1.801 1.7731 1.7474 1.7389 1.6707 1.6963 1.9402 1.9708 1.831
2131.521 1.7251 1.6488 1.7871 1.9507 1.9323 1.7753 1.7909 1.9422 2.03 2.24
2150.810 2.11 1.7931 1.6867 1.6918 1.7745 1.7336 1.6061 1.5407 1.6973 2.04
2170.100 2.13 1.8289 1.6919 1.656 1.8006 1.9181 1.7847 1.6229 1.64 1.8735
2189.390 1.7872 1.8962 2.03 1.6677 1.5765 1.6688 1.6955 1.6965 1.6994 1.806
2208.680 1.7752 1.5364 1.5434 1.7115 1.9203 1.6892 1.4598 1.5393 1.567 1.6534
2227.970 1.8462 2.06 1.883 1.669 1.6503 1.9765 2.2 1.9236 1.595 1.6343
2247.259 1.6257 1.6165 1.7065 1.8108 1.6237 1.6839 1.8162 1.5906 1.5764 1.5511
2266.549 1.6129 1.8132 1.9897 1.7912 1.6771 1.8857 1.8158 1.8826 2.04 2.07
2285.839 2.0085 1.7452 1.8758 2.12 2.0143 1.8622 1.919 2.03 2.08 2.29
2305.129 2.36 2.25 2.31 2.46 2.35 2.05 1.9745 2.0019 2.19 1.9842
2324.418 1.7797 2.08 2.0074 1.9553 2.03 2.1 2.13 1.9982 1.9987 2.11
2343.708 2.0109 1.9759 2.2 2.3 2.26 2.13 2.13 2.08 1.8502 1.8233
2362.998 1.9698 2.2 2.38 2.33 2.53 2.36 2.03 2.28 2.39 2.18
2382.288 2.03 2.0153 2.18 2.06 1.8779 1.9209 1.9738 1.9461 1.925 1.8865
2401.578 2.04 2.26 2.16 2.23 2.13 1.8944 1.7908 1.888 1.8003 1.6194
2420.867 1.8609 1.9225 2.04 1.927 1.6809 1.8434 2.03 1.893 1.6494 1.9552
2440.157 2.12 2.04 1.9795 1.8527 1.9128 1.7412 1.6042 1.6771 1.6763 1.7807
2459.447 1.7407 1.6149 1.6449 1.6459 1.4422 1.3048 1.4674 1.59 1.4598 1.5849
2478.737 1.746 1.5449 1.4789 1.6592 1.696 1.5989 1.6786 1.7918 1.736 1.772
2498.026 1.6021 1.549 1.7642 1.7392 1.577 1.3527 1.2558 1.4741 1.5186 1.4399
2517.316 1.487 1.3415 1.3799 1.3655 1.3408 1.678 1.5513 1.5138 1.7498 1.784
2536.606 1.6893 1.4258 1.5719 1.7332 1.5848 1.7813 1.9987 1.6359 1.3495 1.4625
2555.896 1.4041 1.4732 1.5648 1.4076 1.5864 1.6199 1.2666 1.1537 1.2837 1.5676
2575.186 1.457 1.1544 1.3732 1.4574 1.4687 1.5226 1.2547 1.1654 1.4328 1.6568
2594.475 1.8163 1.7326 1.5175 1.6125 1.703 1.6373 1.4683 1.415 1.4309 1.5302
2613.765 1.5375 1.3068 1.6263 1.5669 1.2415 1.467 1.367 1.4339 1.5648 1.3128
2633.055 1.3088 1.2484 1.2717 1.1635 0.9837 1.2293 1.2202 1.2066 1.3452 1.1986
2652.345 1.2342 1.3621 1.4763 1.2654 1.2961 1.5321 1.4688 1.7505 1.4606 1.11682
2671.634 1.4662 1.7326 1.4783 1.3269 1.5633 1.1695 1.07013 1.3334 0.991 0.741
2690.924 1.05647 1.08803 1.0063 1.291 1.4374 1.5145 1.3389 0.9579 1.1211 1.4313
2710.214 1.4694 1.4754 1.1249 1.143 1.1567 1.01396 1.2706 1.2553 1.3913 1.6691
2729.504 1.3913 0.9783 1.10395 1.2795 1.2382 1.4007 1.1722 1.01164 0.9947 1.01521
2748.794 1.2069 0.9941 0.643 0.801 1.348 1.4487 1.3752 1.3834 1.208 1.1253
2768.083 1.2906 1.1474 0.9404 0.9631 1.1625 1.2154 1.08017 1.3222 1.4469 1.51
2787.373 1.6365 1.3979 1.3995 1.5769 1.5105 1.4952 1.3976 1.3626 1.2571 1.1886
2806.663 1.2926 1.4734 1.8059 1.8394 1.6509 1.4968 1.4966 1.6266 1.6283 1.4901
2825.953 1.6238 1.6422 1.7153 1.8574 1.5486 1.5927 1.8522 1.8995 1.8288 1.8009
2845.242 1.7582 1.8939 1.8502 1.889 1.9496 1.9347 1.7584 1.6081 1.8859 1.8026
2864.532 1.9073 2.12 1.7261 1.8675 2.28 2.52 2.75 2.95 3.18 2.93
2883.822 2.87 2.99 3.01 3.39 3.8 3.59 3.37 3.47 3.59 3.56
2903.112 3.45 3.52 4.1 4.51 4.54 4.39 4.21 4.05 4.26 4.44
2922.401 4.31 4.2 4.19 4.25 4.13 4.39 4.87 4.99 5.44 6.08
2941.691 6.29 6.92 7.47 7.6 7.59 7.35 6.84 6.46 6.12 5.66
2960.981 5.5 5.6 5.57 5.58 6.3 7.3 8.14 8.5 8.67 9.55
2980.271 10.47 11.39 12.77 14.15 15.2 15.07 14.43 13.96 13.26 12.4
2999.561 11.36 10.61 9.96 9.13 8.34 7.96 7.88 7.36 6.62 6.18
3018.850 6 5.33 4.7 4.83 4.78 4.31 3.9 3.67 3.68 3.5
3038.140 3.14 3.26 2.99 2.99 3.43 2.73 2.16 2.32 2.15 1.8177
3057.430 1.9418 2.53 2.75 2.8 2.68 2.03 1.7698 1.9517 2.12 1.9537
3076.720 2.4 2.53 1.811 1.6959 1.9089 1.8066 1.4476 1.5065 1.3934 1.3314
3096.009 1.8807 1.8649 1.4294 1.4108 1.4818 1.6051 1.5824 1.219 1.08411 1.3856
3115.299 1.5918 1.6496 1.8891 1.5079 1.1273 1.6448 1.4413 1.2595 1.2891 0.9386
3134.589 1.0558 1.3602 1.341 1.3057 1.8413 1.9241 1.4315 1.207 1.1897 1.3524
3153.879 1.6408 1.7748 1.3998 1.3273 1.8999 1.407 0.9427 1.4732 1.6055 1.4111
3173.169 1.6107 1.4297 0.9883 1.08336 1.5895 1.7928 1.5781 1.3107 1.4695 1.7168
3192.458 1.613 1.3638 1.171 1.7995 1.4859 0.85 1.3731 1.5923 1.5431 1.7601
3211.748 1.5463 1.5828 1.8814 1.3052 1.4065 1.5009 1.2788 1.5492 1.2773 1.2737
3231.038 0.9361 1.11151 1.3896 0.765 1.11891 1.429 1.1676 1.1296 0.9768 1.04725
3250.328 1.3002 1.6287 1.5861 1.2417 1.2787 1.421 1.1416 1.08491 1.4016 1.6813
3269.617 1.846 1.7581 1.6044 1.08895 0.9846 1.007 0.9599 0.9457 0.711 1.1342
3288.907 1.6202 1.6473 1.6421 1.7123 1.5939 1.04984 0.609 1.01417 1.4908 1.7513
3308.197 1.5536 1.1628 1.5601 1.7272 1.6411 1.2769 0.9662 0.844 0.57 0.66
3327.487 1.4586 2.016 1.6471 1.5763 1.7641 1.7732 1.8114 1.9051 1.8296 1.2045
3346.777 0.899 1.04839 1.3785 1.6418 1.4278 1.2176 1.301 1.4908 1.10814 0.995
3366.066 1.4221 1.04019 1.02918 1.3118 1.4846 1.5293 0.894 0.9753 1.2373 1.1985
3385.356 0.84 1.05376 1.3382 1.02373 1.1448 1.5406 1.3212 0.887 1.2496 1.4337
3404.646 1.2259 1.4223 1.5279 1.4728 1.22 0.954 1.1206 1.203 1.2961 0.715
3423.936 0.43 0.9 1.1492 1.09681 1.10319 1.3741 1.7145 1.4083 1.1604 1.742
3443.225 1.7545 1.7547 1.4849 1.05324 1.4247 1.3198 1.1364 1.1474 1.5591 1.9488
3462.515 2.08 1.7305 1.1879 1.2957 1.3187 1.3239 1.2862 1.3201 1.4502 1.7066
3481.805 1.7875 1.4055 1.6152 2.08 2.02 1.7488 1.7366 1.6388 1.9103 2.54
3501.095 2.12 2.02 2.27 2.22 2.69 2.76 2.7 2.7 1.931 1.7316
3520.385 2.21 2.33 1.7292 1.11067 1.3894 1.3788 1.3251 1.3504 1.1959 1.3933
3539.674 1.5928 1.2449 1.2876 1.4822 0.9784 0.857 1.3657 1.5754 1.3167 1.3893
3558.964 1.4857 1.4082 1.6101 1.3582 0.86 1.1265 1.5528 1.3621 0.89 1.286
3578.254 1.4595 1.6218 1.7978 1.06788 0.792 0.715 0.832 1.2538 1.3188 1.1335
3597.544 1.06273 1.01864 1.3666 1.6704 1.2175 1.3615 1.8665 1.899 1.4176 1.10502
3616.833 1.3827 1.4817 1.4356 1.7682 1.9096 1.3603 1.184 1.5013 1.7495 1.5596
3636.123 1.09024 0.903 1.0721 1.2676 1.2188 0.9836 1.1515 1.3933 0.9711 0.819
3655.413 0.9792 0.684 0.883 1.6056 1.2309 1.0521 1.11784 0.637 0.575 0.751
3674.703 1.1398 1.7607 1.7414 1.1397 1.03462 1.2445 1.3406 1.1965 0.884 1.0938
3693.993 1.03006 0.784 0.919 1.09622 1.10273 1.03762 0.9712 1.1271 0.9624 0.473
3713.282 0.683 1.0009 1.09395 1.1577 1.2085 1.2437 1.157 1.06325 0.908 1.269
3732.572 1.7546 1.3707 1.08527 1.07706 1.2017 1.3477 1.1783 1.1852 1.3045 1.1632
3751.862 1.482 1.4448 1.1982 1.253 1.3092 1.3414 1.2053 1.10392 1.1395 0.916
3771.152 0.922 1.03882 1.3657 1.698 1.2142 1.4161 1.358 1.2871 1.2077 1.08047
3790.441 1.537 1.6334 1.5675 1.3198 1.5369 1.5761 1.08989 1.2414 1.6704 1.5204
3809.731 1.6949 1.6532 0.9842 0.9853 1.3532 1.264 1.3022 1.4622 1.475 1.4638
3829.021 1.05862 1.3131 1.4796 1.08469 0.9573 1.1887 1.331 1.3784 1.48 1.565
3848.311 1.5703 1.5982 0.916 0.389 0.9795 0.841 0.648 1.2344 1.6469 1.4989
3867.601 1.5529 1.8755 1.7069 1.8118 2.17 1.8216 1.6521 1.8248 1.3414 1.1873
3886.890 1.2224 1.3473 1.73 1.3841 1.1528 1.3318 1.3697 1.2504 1.2172 1.1377
3906.180 1.2317 1.4202 1.3183 1.11869 1.1224 1.5649 1.7189 1.3007 0.865 0.805
3925.470 0.9601 1.6334 1.7441 1.5061 1.992 1.547 1.1796 0.9946 1.2693 1.7209
3944.760 1.4119 1.1879 1.2291 1.2935 1.07947 0.864 1.2754 1.6289 1.5499 1.5258
3964.049 1.04481 0.63 0.806 1.01127 1.2399 1.02529 1.133 1.5066 1.4091 1.07051
3983.339 0.9991 1.7938 1.8847 1.1509 1.3791 1.8477 1.2599 1.2688 1.381 1.1837
##END=
