##TITLE=2-Amino-4-hydroxy-6-(trifluoromethyl)pyrimidine
##JCAMP-DX=4.24
##DATA TYPE=INFRARED SPECTRUM
##ORIGIN=EPA-IR VAPOR PHASE LIBRARY
##OWNER=SRD/NIST
Collection (C) 2018 copyright by the U.S. Secretary of Commerce
on behalf of the United States of America. All rights reserved.
##CAS REGISTRY NO=1513-69-5
##MOLFORM=C 5 H 4 F 3 N 3 O
##$NIST SOURCE=MSDC-IR
##STATE=gas
##XUNITS=1/CM
##YUNITS=ABSORBANCE
##XFACTOR=1.
##YFACTOR=0.001
##DELTAX=1.92898
##FIRSTX=549.8
##LASTX=4000.7
##FIRSTY=1.866
##MAXX=4000.7
##MINX=549.759
##MAXY=0.032646
##MINY=0
##NPOINTS=1790
##XYDATA=(X++(Y..Y))
549.759 1.866 0.9701 1.0702 1.946 1.756 1.966 2.076 2.186 2.806 2.456
569.049 2.116 1.896 2.186 1.906 1.4692 1.956 1.916 1.736 1.5424 1.5382
588.339 1.766 1.886 2.416 2.866 2.286 1.5535 1.706 2.066 2.016 2.206
607.628 2.116 2.016 1.976 2.436 2.826 2.276 2.326 2.616 2.666 2.306
626.918 2.426 2.406 1.906 1.2971 1.2354 1.646 1.5816 1.337 1.2312 0.9827
646.208 0.7846 1.0873 1.5095 1.4715 1.2293 1.0755 1.0167 1.1707 1.1381 1.0717
665.498 0.9706 0.8197 1.1566 1.4273 1.3733 1.4824 1.736 1.636 1.4441 1.128
684.787 0.9853 1.1523 1.3376 1.3333 1.2903 1.4939 1.3975 1.4681 1.5499 1.766
704.077 1.976 1.946 2.226 2.476 2.696 2.896 3.096 3.856 4.476 4.706
723.367 5.076 5.516 5.756 5.286 4.836 4.536 4.186 3.316 2.786 2.766
742.657 2.536 2.586 2.686 2.616 2.486 2.526 2.556 2.406 2.306 2.436
761.947 2.386 2.296 2.156 2.176 2.116 1.876 1.746 1.866 1.916 1.746
781.236 1.846 1.946 1.976 1.746 1.437 1.5329 1.716 1.616 1.646 1.946
800.526 1.826 1.986 2.486 2.216 1.806 1.886 1.876 1.966 2.076 1.806
819.816 2.216 2.766 2.646 3.006 3.386 3.396 3.836 4.446 4.696 4.506
839.106 4.346 4.346 3.976 3.976 4.076 3.506 3.116 2.876 2.346 2.326
858.395 2.606 2.176 1.856 2.036 2.066 2.126 1.976 1.686 1.926 2.216
877.685 2.166 2.416 3.006 2.936 2.756 3.136 3.536 3.966 4.496 4.976
896.975 5.486 5.616 5.626 6.346 5.826 4.906 4.766 4.126 3.516 2.846
916.265 2.376 1.976 1.916 2.016 1.906 1.686 1.666 1.916 1.956 1.696
935.555 1.2466 1.1811 1.4682 1.686 1.666 1.4586 1.5216 1.5605 1.4013 1.5646
954.844 1.636 1.468 1.716 2.286 2.296 2.346 2.786 2.686 2.006 1.736
974.134 2.546 2.886 2.616 2.526 2.626 2.406 2.266 2.706 2.116 2.046
993.424 2.266 1.846 1.916 1.986 1.886 1.686 1.3987 1.2828 1.2212 1.2351
1012.714 1.3338 1.2269 1.3278 1.966 2.656 2.706 2.666 2.386 2.386 2.496
1032.003 1.766 1.4164 1.3896 1.5138 1.3389 0.9015 1.3044 1.656 1.1523 0.9991
1051.293 1.2379 1.2316 0.9376 1.896 2.476 1.4201 0.8226 0.605665 0.5273 0.8138
1070.583 1.3483 1.3133 0.8748 0.5392 0.596295 1.2713 1.1445 0.5814 0.41 0.472
1089.873 1.596 2.026 2.176 2.466 1.545 1.736 2.756 1.886 0.7349 1.2716
1109.163 1.796 2.416 2.446 2.226 2.526 2.646 3.726 5.176 5.306 5.606
1128.452 6.936 7.596 8.176 9.486 10.766 11.156 11.896 12.296 12.776 13.566
1147.742 13.946 14.136 14.256 15.566 16.476 17.306 18.856 20.276 21.736 22.016
1167.032 22.396 22.816 23.406 24.286 24.126 23.916 23.776 24.176 24.396 23.706
1186.322 22.466 21.936 21.176 19.096 17.316 17.256 18.396 17.056 14.956 13.956
1205.611 13.676 13.256 11.286 10.646 9.886 8.506 7.436 6.676 5.706 5.696
1224.901 5.756 4.736 4.126 4.026 4.166 4.196 4.116 5.076 5.656 5.386
1244.191 5.726 6.186 6.896 7.876 8.916 9.966 11.126 11.726 12.206 12.716
1263.481 12.896 12.466 11.446 10.716 10.176 9.336 8.586 8.306 8.116 7.696
1282.771 7.136 7.266 7.906 8.436 8.676 9.116 9.686 9.786 9.886 9.816
1302.060 9.446 9.136 8.486 7.666 6.946 5.996 5.106 4.496 4.096 3.736
1321.350 3.186 2.956 2.756 2.516 2.486 2.326 2.096 2.116 2.076 1.876
1340.640 1.886 1.936 1.856 1.786 1.746 1.666 1.656 1.686 1.736 1.816
1359.930 1.5781 1.407 1.5435 1.5902 1.646 1.5288 1.3429 1.4299 1.4377 1.4385
1379.219 1.5047 1.5109 1.616 1.716 1.896 2.026 2.136 2.376 2.456 2.646
1398.509 2.976 3.256 3.466 3.756 4.146 4.556 5.106 5.736 6.656 7.876
1417.799 9.166 10.676 12.456 14.286 15.826 17.106 18.096 18.786 19.136 19.226
1437.089 19.156 18.506 17.546 16.686 16.136 15.936 15.766 15.596 15.466 15.246
1456.378 14.736 13.826 12.686 11.356 9.996 8.766 7.846 7.256 6.696 5.926
1475.668 5.106 4.186 3.506 3.006 2.736 2.536 2.286 2.226 2.036 1.846
1494.958 1.726 1.4218 1.3338 1.3703 1.4005 1.4775 1.5437 1.616 1.5739 1.676
1514.248 1.716 1.5194 1.5745 1.746 1.656 1.616 1.806 2.156 2.406 2.616
1533.538 2.766 2.856 3.016 3.176 3.196 3.276 3.496 3.566 3.696 3.776
1552.827 3.766 3.856 4.146 4.286 4.826 5.716 6.176 6.956 7.876 8.706
1572.117 9.746 10.846 11.926 12.846 13.846 14.756 15.456 16.276 17.166 17.996
1591.407 18.746 19.406 19.856 20.166 20.456 20.806 21.096 21.336 21.556 22.066
1610.697 22.886 23.936 25.326 27.346 29.636 31.366 32.346 32.646 32.446 31.646
1629.986 30.026 27.736 24.816 21.446 18.136 14.956 12.176 10.076 8.316 6.886
1649.276 5.826 5.076 4.416 3.726 3.336 3.106 2.856 2.616 2.386 2.186
1668.566 2.126 2.096 1.996 1.996 1.966 2.036 2.046 1.886 1.876 1.806
1687.856 1.786 1.936 1.926 1.736 1.5784 1.666 1.826 2.026 2.116 2.136
1707.146 2.386 2.526 2.616 2.826 3.046 3.266 3.686 3.926 4.156 4.376
1726.435 4.656 5.116 5.426 5.646 5.746 5.766 5.786 5.756 5.616 5.436
1745.725 5.186 4.946 4.596 4.176 3.786 3.376 3.166 3.046 2.846 2.626
1765.015 2.476 2.316 2.286 2.266 2.096 1.996 2.016 2.046 1.936 1.716
1784.305 1.626 1.596 1.606 1.5531 1.32 1.2505 1.264 1.2541 1.2007 1.1154
1803.594 1.0943 1.103 0.9877 0.8908 1.0008 1.0931 1.0793 1.0203 1.0358 0.9926
1822.884 0.9126 0.8868 0.919 0.9909 0.9408 0.9564 1.031 0.921 0.831 0.9036
1842.174 0.8992 0.8808 0.8781 0.9671 1.0365 0.825 0.8036 0.8959 0.9383 1.0176
1861.464 0.9981 0.8718 0.7719 0.7689 0.8333 0.9606 1.0063 0.9135 0.8229 0.8602
1880.754 0.9841 0.9529 0.8457 0.7852 0.7766 0.907 0.9247 0.8624 0.7528 0.7223
1900.043 0.7882 0.7967 0.8921 0.8688 0.7794 0.8229 0.84 0.7718 0.62274 0.61213
1919.333 0.7136 0.69058 0.66638 0.7005 0.7478 0.7719 0.7874 0.8986 0.9231 0.8329
1938.623 0.8431 0.9679 1.0411 0.9326 0.7857 0.725 0.7991 0.8831 0.7971 0.7662
1957.913 0.7579 0.7316 0.7853 0.8123 0.8381 0.8398 0.8928 0.8343 0.7368 0.59429
1977.202 0.59383 0.8241 0.7752 0.67471 0.67253 0.66209 0.7066 0.69517 0.6983 0.9051
1996.492 0.9851 0.786 0.599735 0.5349 0.604797 0.7149 0.7624 0.7769 0.6568 0.59111
2015.782 0.6784 0.67605 0.8201 0.9445 0.9662 0.8542 0.69051 0.63167 0.5741 0.61156
2035.072 0.7435 0.8705 0.7553 0.68245 0.7311 0.7394 0.7755 0.802 0.809 0.7755
2054.362 0.67204 0.65021 0.65018 0.68169 0.67088 0.6993 0.9151 0.9337 0.9208 0.8494
2073.651 0.7742 0.65859 0.600645 0.7922 0.8529 0.7244 0.6647 0.8627 0.8775 0.7951
2092.941 0.7716 0.8331 0.9568 0.8921 0.6406 0.5474 0.65625 0.65725 0.7282 0.7484
2112.231 0.7672 0.8128 0.8015 0.8067 0.7236 0.62105 0.599631 0.66408 0.7877 0.8154
2131.521 0.7727 0.7971 0.8245 0.9128 0.8883 0.7525 0.7562 0.8385 0.8307 0.836
2150.810 0.9268 0.9928 0.9169 0.7774 0.8099 0.64573 0.68018 0.8116 0.7361 0.7758
2170.100 0.77 0.794 0.736 0.65431 0.69104 0.7573 0.8559 0.8918 0.7137 0.66238
2189.390 0.7825 0.7799 0.7401 0.8506 0.8491 0.67671 0.7879 1.0195 1.0301 1.0386
2208.680 0.951 0.7637 0.7641 0.8581 0.9535 0.8308 0.7214 0.7925 0.8856 0.9204
2227.970 0.9208 0.8502 0.9237 1.049 0.8842 0.866 0.8001 0.66426 0.8396 0.8801
2247.259 0.7875 0.8518 0.8212 0.7735 0.7521 0.65338 0.58698 0.8434 1.047 0.9284
2266.549 0.7672 0.5753 0.5757 0.7702 0.8905 0.7821 0.7529 0.8299 0.8898 0.811
2285.839 0.7234 0.7937 0.7776 0.7665 0.8283 0.8187 0.7556 0.5293 0.61095 0.7512
2305.129 0.7139 0.8625 0.8744 0.9588 0.8604 0.7407 0.73 0.7449 0.6972 0.61483
2324.418 0.8305 0.9006 0.7654 0.8203 0.8708 0.8492 0.8148 0.8034 0.8447 0.7167
2343.708 0.7193 0.7263 0.757 0.79 0.7524 0.8559 0.9455 0.9789 0.9226 0.8604
2362.998 0.7486 0.7577 0.7628 0.7157 0.7781 0.63941 0.7525 0.7844 0.67272 0.7203
2382.288 0.67438 0.6353 0.7061 0.7313 0.69402 0.88 0.8769 0.8013 0.8925 0.9601
2401.578 0.9905 0.9076 0.832 0.7832 0.7106 0.7483 0.68161 0.7332 0.7334 0.63279
2420.867 0.7814 0.7936 0.7386 0.67127 0.7562 0.7499 0.7083 0.8504 0.7795 0.7387
2440.157 0.61195 0.68013 0.9445 0.8315 0.7545 0.7144 0.7129 0.7584 0.7525 0.7668
2459.447 0.7531 0.7372 0.65683 0.59109 0.66801 0.65796 0.774 0.7731 0.604257 0.65053
2478.737 0.7849 0.8094 0.7504 0.7887 0.5701 0.5394 0.68169 0.7426 0.7572 0.67213
2498.026 0.7572 0.775 0.7095 0.786 0.65638 0.493 0.63193 0.6895 0.6232 0.60983
2517.316 0.5848 0.432 0.287 0.345 0.506 0.64904 0.63902 0.60917 0.63914 0.5654
2536.606 0.5694 0.59307 0.7089 0.8133 0.6372 0.5819 0.8605 0.8482 0.7914 0.9092
2555.896 0.7405 0.7757 0.854 0.67687 0.67584 0.8095 0.7312 0.7415 0.8686 0.7934
2575.186 0.7303 0.8203 0.8756 0.7612 0.7598 0.8122 0.8969 0.9659 0.9051 0.8713
2594.475 0.9055 1.1215 0.876 0.5427 0.7511 0.5827 0.67259 0.8962 0.6965 0.68354
2613.765 0.7159 0.7131 0.65954 0.7372 0.7393 0.8597 1.0131 0.8742 0.834 0.8422
2633.055 0.6896 0.5416 0.7725 0.9183 0.7659 0.868 1.0294 0.8586 0.601222 0.65068
2652.345 0.66731 0.63666 0.703 0.7154 0.7733 0.7341 0.5506 0.5161 0.66597 0.7943
2671.634 0.702 0.7538 0.7247 0.5583 0.766 0.68554 0.51 0.61879 0.69169 0.7364
2690.924 0.8574 0.8676 0.60603 0.5927 0.7717 0.7147 0.5158 0.452 0.5832 0.67071
2710.214 0.8757 0.8383 0.5195 0.7343 0.8148 0.5749 0.284 0.342 0.485 0.463
2729.504 0.7011 0.9817 0.8138 0.5704 0.64799 0.5669 0.62312 0.7108 0.69571 0.69268
2748.794 0.64554 0.579 0.62187 0.68923 0.7167 0.68815 0.65821 0.63446 0.5572 0.68673
2768.083 0.7708 0.8399 0.7577 0.6588 1.1683 1.1278 0.64608 0.6737 0.7374 0.481
2787.373 0.5026 0.7027 0.375 0.425 0.5195 0.456 0.7171 0.8418 0.8253 0.60807
2806.663 0.491 0.5146 0.5653 0.61989 0.63036 0.62109 0.7389 0.595494 0.57 0.749
2825.953 0.5218 0.425 0.439 0.5343 0.5732 0.68895 0.8839 0.7289 0.7359 0.5665
2845.242 0.5424 0.8245 0.68402 0.5032 0.5102 0.60868 0.7237 0.65453 0.65046 0.7693
2864.532 0.58826 0.386 0.6341 0.7251 0.457 0.7135 0.7057 0.364 0.351 0.5176
2883.822 0.66067 0.46 0.5393 0.7558 0.7268 0.8967 0.9531 0.7328 0.7665 0.9305
2903.112 0.8579 0.723 0.65971 0.7188 0.7675 0.66707 0.5649 0.66698 0.62288 0.5438
2922.401 0.605751 0.5558 0.486 0.7544 0.8723 0.682 0.425 0.5372 0.7966 0.64883
2941.691 0.7523 0.8041 0.7275 0.7428 0.8506 1.0842 0.785 0.392 0.426 0.64846
2960.981 1.007 1.1204 0.9379 0.7249 0.60489 0.43 0.401 0.477 0.409 0.355
2980.271 0.349 0.472 0.7301 0.68929 0.5733 0.8143 0.8574 0.49 0.5163 0.6613
2999.561 0.469 0.454 0.602964 0.63454 0.68709 0.68379 0.61564 0.461 0.391 0.445
3018.850 0.481 0.485 0.35 0.5242 0.60718 0.469 0.5507 0.7341 0.60542 0.428
3038.140 0.5049 0.69493 0.8668 0.6313 0.5858 0.5483 0.66632 0.8836 0.9873 1.1158
3057.430 1.0758 0.8414 0.69555 0.7351 0.8733 1.2461 1.1396 0.777 0.8411 0.9696
3076.720 0.7754 0.7451 0.7513 0.7768 0.8062 0.8528 0.7467 0.8624 1.1109 0.8661
3096.009 0.8383 0.7369 0.61463 0.63778 0.7735 0.62552 0.373 0.58916 0.7451 0.603178
3115.299 0.58969 0.65282 0.9644 0.9548 0.5325 0.64632 0.8174 0.7255 0.767 0.68273
3134.589 0.733 0.7428 0.5329 0.7223 0.9341 0.9675 0.8775 0.8365 0.722 0.5689
3153.879 0.4974 0.5371 0.7003 0.62612 0.5009 0.7181 0.8945 0.7895 0.7823 0.9012
3173.169 0.934 0.9982 0.62465 0.668 1.2605 1.2483 1.1122 1.0052 1.0821 1.035
3192.458 0.5703 0.5344 0.64796 0.43 0.166 0.5136 1.2019 1.1789 0.8448 0.7902
3211.748 1.0014 0.9197 0.9032 0.9075 0.8892 0.8838 0.8391 0.9064 0.8641 0.9588
3231.038 0.8244 0.59179 0.8747 0.9683 0.445 0.408 0.459 0.329 0.33 0.446
3250.328 0.66934 0.7035 0.63055 0.67591 0.6542 0.9937 0.9773 0.62005 0.61418 0.62681
3269.617 0.5824 0.353 0.431 0.602902 0.492 0.603439 0.7912 0.59728 0.491 0.5442
3288.907 0.62377 0.66963 0.826 0.8153 0.7369 0.8329 0.7525 0.63298 0.605715 0.61855
3308.197 0.63331 0.5316 0.5691 0.68574 0.8502 0.8436 0.7494 0.69074 0.7204 0.7318
3327.487 0.67909 0.69377 0.62782 0.8181 0.7868 0.412 0.5622 0.7889 0.601436 0.7791
3346.777 0.9487 0.9456 1.1008 0.8333 0.67175 0.813 0.739 0.6481 0.834 0.925
3366.066 0.61603 0.702 1.0185 1.1363 0.8392 0.7118 0.9021 0.7317 0.7135 0.8007
3385.356 0.8617 0.68073 0.67137 0.8422 0.7669 0.7264 0.67891 1.1011 1.3095 1.3607
3404.646 1.4643 1.243 1.2795 1.816 2.206 1.996 1.736 2.006 2.256 2.276
3423.936 2.496 2.946 3.036 3.046 3.056 3.166 3.356 3.376 3.456 3.386
3443.225 3.506 3.596 3.876 4.206 3.976 3.926 3.866 3.456 3.316 2.936
3462.515 2.656 2.866 2.516 2.086 1.986 1.976 1.846 1.5595 1.3113 1.0981
3481.805 1.065 1.0304 0.993 0.8417 0.6986 0.9638 1.1661 1.0185 0.8654 1.1329
3501.095 1.2037 1.0288 1.2336 1.5657 1.5612 1.4246 1.2196 0.9029 0.7676 1.0382
3520.385 1.2145 1.2863 1.4644 1.4176 1.4556 1.5297 1.5729 1.5855 1.606 1.916
3539.674 1.826 1.5886 1.5374 1.656 2.046 2.156 2.386 2.156 2.006 2.246
3558.964 2.366 2.216 2.116 2.256 2.446 2.826 3.006 3.416 4.286 5.346
3578.254 6.756 7.956 8.376 8.556 8.496 8.276 7.466 6.546 5.646 3.956
3597.544 2.466 1.606 1.0222 0.7403 0.9723 1.1239 1.1139 1.0937 0.8122 0.458
3616.833 0.397 0.5314 0.66361 0.5753 0.8191 1.4857 1.3354 0.8999 1.0987 1.1009
3636.123 0.7556 0.877 0.7948 0.443 0.7901 0.8675 0.311 0.316 0.7562 0.9847
3655.413 1.0264 0.9484 0.7197 0.68187 0.7874 0.7295 0.8192 0.8453 0.64833 0.604118
3674.703 0.7252 0.8196 0.78 0.7826 0.62512 0.409 0.473 0.7502 0.8203 0.599928
3693.993 0.8212 1.0416 0.8833 0.8255 0.9544 1.0638 0.8365 0.8844 0.887 0.5782
3713.282 0.63625 0.424 0.4969 0.68385 0.541 0.43 0.273 0.383 0.5497 0.6624
3732.572 0.8598 0.8125 0.7689 0.9432 0.5515 0.369 0.58642 0.64099 1.0629 0.9967
3751.862 0.8776 0.7491 0.286 0.186 0.5469 0.68368 0.5655 0.7057 0.442 0.189
3771.152 0.378 0.5126 0.437 0.26 0.232 0.376 0.60997 0.62871 0.502 0.68917
3790.441 0.7737 0.7818 0.7692 1.0212 1.2653 1.2519 1.0886 0.5779 0.38 0.8726
3809.731 0.859 0.385 0.473 0.5047 0.377 0.5022 0.7356 0.9019 1.1941 1.1865
3829.021 1.0252 0.8609 0.5439 0.7345 0.8296 0.7095 0.8279 1.077 1.1432 0.9324
3848.311 0.598244 0.481 0.7635 0.5443 0.376 0.63835 0.9337 1.069 0.7445 0.7065
3867.601 0.7852 0.67699 0.301 0.273 0.357 0.5305 0.5259 0.022 0.7993 1.2794
3886.890 0.7519 0.5084 0.5577 0.8149 0.9686 0.8895 0.769 0.7082 0.5789 0.595317
3906.180 0.5354 0.64796 0.5734 0.435 0.5136 0.492 0.363 0.17 0.15 0.39
3925.470 0.334 0.246 0.466 0.5268 0.8574 0.8281 0.7745 0.5732 0 0.302
3944.760 0.7046 0.586 0.5377 0.5361 0.5563 0.64739 0.69574 0.5424 0.515 0.61021
3964.049 0.5589 0.5531 0.564 0.5674 0.5604 0.63701 0.60572 0.60602 0.9219 0.8085
3983.339 0.5824 0.5531 0.414 0.44 0.7759 0.7933 0.5266 0.62973 0.8681 0.8215
##END=
