##TITLE=2-Fluoro-3-methylbenzyl bromide
##JCAMP-DX=4.24
##DATA TYPE=INFRARED SPECTRUM
##ORIGIN=EPA-IR VAPOR PHASE LIBRARY
##OWNER=SRD/NIST
Collection (C) 2018 copyright by the U.S. Secretary of Commerce
on behalf of the United States of America. All rights reserved.
##CAS REGISTRY NO=151412-12-3
##MOLFORM=C 8 H 8 Br F
##$NIST SOURCE=MSDC-IR
##STATE=gas
##XUNITS=1/CM
##YUNITS=ABSORBANCE
##XFACTOR=1.
##YFACTOR=0.001
##DELTAX=1.92898
##FIRSTX=549.8
##LASTX=4000.7
##FIRSTY=12.332
##MAXX=4000.7
##MINX=549.759
##MAXY=0.072882
##MINY=0
##NPOINTS=1790
##XYDATA=(X++(Y..Y))
549.759 12.332 12.552 12.152 10.792 9.072 9.112 7.802 5.172 4.422 4.062
569.049 2.862 2.792 3.452 3.422 3.482 3.122 2.842 3.232 3.092 2.682
588.339 2.382 2.472 3.152 3.432 3.332 3.002 3.132 4.242 4.762 4.922
607.628 5.872 6.852 8.682 10.802 12.592 14.892 17.372 18.982 19.962 20.362
626.918 20.712 20.382 18.742 17.842 16.592 14.682 12.742 11.352 10.262 9.352
646.208 8.762 8.092 7.742 7.772 7.702 7.432 8.192 9.252 9.802 10.662
665.498 11.562 11.992 12.052 11.722 10.882 10.632 10.172 8.932 7.832 6.332
684.787 5.142 4.312 3.822 3.772 3.722 3.622 3.062 3.102 3.682 3.422
704.077 3.432 3.872 4.142 4.522 4.792 5.502 6.292 7.532 9.872 12.472
723.367 15.472 18.972 22.772 26.692 30.692 34.482 37.612 38.602 36.822 33.182
742.657 29.142 25.632 22.212 19.302 16.642 14.052 12.672 12.542 12.962 13.992
761.947 15.852 18.062 19.942 22.142 24.912 27.232 28.502 28.232 27.452 25.422
781.236 22.272 19.162 16.182 13.382 11.032 8.852 6.952 6.202 5.842 5.462
800.526 5.312 5.892 6.542 7.302 8.032 9.082 10.872 12.102 12.922 13.862
819.816 14.732 14.652 14.562 15.682 15.092 13.622 13.102 12.352 11.362 10.112
839.106 9.072 7.942 6.772 6.392 5.642 4.952 4.902 4.892 4.972 4.812
858.395 4.922 5.462 5.772 6.072 6.482 6.262 5.662 5.512 5.852 5.392
877.685 4.222 3.792 3.622 3.112 2.672 2.262 2.102 2.402 2.232 1.762
896.975 1.722 1.852 1.892 1.772 1.5378 1.3698 1.742 2.302 2.622 2.532
916.265 2.222 2.492 2.792 3.032 3.392 3.792 4.062 3.972 4.272 4.852
935.555 5.552 5.972 6.292 6.162 5.902 6.372 5.842 4.942 4.622 3.792
954.844 3.122 3.392 3.332 2.902 3.002 2.712 2.332 2.552 2.552 2.322
974.134 1.972 1.852 1.822 1.872 1.792 1.4241 1.932 2.462 2.582 2.302
993.424 2.172 2.192 2.292 2.662 2.722 2.312 1.822 2.172 2.212 2.342
1012.714 2.402 1.882 1.822 1.922 1.932 2.112 2.552 2.142 1.3705 1.702
1032.003 2.562 2.962 2.912 2.552 3.162 3.702 3.762 4.562 5.082 4.822
1051.293 5.072 6.062 6.602 7.012 7.982 8.702 9.162 9.462 9.632 10.172
1070.583 10.582 10.932 11.502 13.292 13.322 12.632 13.872 13.362 12.242 12.542
1089.873 12.952 11.802 11.442 10.972 9.412 8.382 6.562 5.162 5.682 5.622
1109.163 4.492 4.242 4.162 3.802 2.902 2.192 2.342 2.952 4.152 4.722
1128.452 4.242 4.572 4.632 4.232 4.302 4.022 3.582 3.592 4.342 5.102
1147.742 5.562 4.782 4.402 6.342 7.462 7.482 7.252 7.522 8.102 7.782
1167.032 7.912 9.232 10.332 11.242 12.552 13.602 14.952 17.762 20.912 24.622
1186.322 28.442 31.962 35.652 39.232 43.062 45.002 45.332 45.162 44.122 41.762
1205.611 38.732 37.842 37.782 37.472 39.162 41.492 46.132 54.352 62.552 68.422
1224.901 71.882 72.882 72.182 68.842 62.632 54.292 43.982 35.412 29.212 24.532
1244.191 21.192 18.432 16.962 16.262 16.072 16.742 17.092 18.102 20.322 21.832
1263.481 23.142 24.222 24.882 24.882 23.662 22.302 20.552 17.812 15.032 12.312
1282.771 9.922 8.362 7.292 6.562 6.002 5.702 5.582 5.532 5.492 5.292
1302.060 5.252 5.102 4.662 4.442 4.292 4.022 3.942 3.882 3.702 3.502
1321.350 3.272 3.162 3.142 3.042 2.942 2.932 2.852 2.772 2.842 2.832
1340.640 2.692 2.802 2.882 2.872 2.862 2.822 2.712 2.562 2.632 2.662
1359.930 2.592 2.672 2.862 2.972 3.042 2.922 2.882 3.092 3.122 3.352
1379.219 3.822 4.052 4.182 4.252 4.302 4.312 4.372 4.322 4.132 4.032
1398.509 3.912 3.882 3.932 3.982 4.102 4.352 4.622 4.942 5.282 5.632
1417.799 5.992 6.552 7.332 8.142 9.392 10.622 11.962 13.712 15.592 17.722
1437.089 20.132 22.642 25.192 27.692 30.252 32.762 35.222 37.862 40.862 43.782
1456.378 46.912 50.482 53.762 56.952 59.832 62.042 63.572 64.032 63.212 61.402
1475.668 58.802 55.552 51.832 47.972 43.982 39.732 35.372 31.292 27.552 24.162
1494.958 21.272 18.852 17.082 15.542 13.952 12.652 11.682 10.732 9.932 9.212
1514.248 8.572 7.922 7.362 7.162 6.952 6.602 6.392 6.262 6.042 5.852
1533.538 5.702 5.582 5.412 5.372 5.552 5.662 5.742 5.752 5.682 5.532
1552.827 5.272 5.112 5.072 4.902 4.642 4.622 4.762 4.762 4.692 4.522
1572.117 4.582 4.782 4.952 5.342 5.912 6.512 6.732 6.992 7.552 7.802
1591.407 7.852 7.852 7.232 6.832 6.472 6.072 5.872 5.352 4.732 4.472
1610.697 4.432 4.382 4.422 4.412 4.532 4.652 4.762 4.822 4.592 4.292
1629.986 3.892 3.602 3.512 3.372 3.052 2.792 2.732 2.412 2.172 2.242
1649.276 2.362 2.232 2.272 2.592 2.792 2.932 3.192 3.552 3.672 3.762
1668.566 4.072 4.232 4.132 3.922 3.772 3.572 3.262 3.022 2.552 2.252
1687.856 2.252 2.152 1.962 1.782 1.722 1.642 1.4174 1.5877 1.942 1.772
1707.146 1.642 1.652 1.4583 1.4248 1.3174 1.2513 1.5575 1.6275 1.5915 1.5768
1726.435 1.4702 1.5921 1.652 1.5936 1.6006 1.6149 1.5085 1.5262 1.642 1.5797
1745.725 1.472 1.5746 1.6131 1.4819 1.4568 1.3636 1.4636 1.5418 1.5877 1.5249
1765.015 1.4401 1.642 1.722 1.762 1.822 1.912 2.182 2.322 2.362 2.382
1784.305 2.372 2.492 2.572 2.462 2.402 2.362 2.162 2.092 2.202 2.192
1803.594 2.002 1.912 1.832 1.792 1.722 1.6075 1.639 1.6232 1.682 1.742
1822.884 1.5948 1.6092 1.742 1.822 1.882 1.852 1.862 1.942 2.022 2.202
1842.174 2.392 2.522 2.832 3.182 3.442 3.602 3.622 3.522 3.412 3.422
1861.464 3.302 3.082 2.832 2.562 2.422 2.292 2.162 2.042 1.912 1.892
1880.754 1.812 1.732 1.772 1.772 1.692 1.732 1.772 1.772 1.792 1.882
1900.043 1.952 2.012 2.182 2.372 2.462 2.512 2.672 2.912 3.052 3.212
1919.333 3.302 3.292 3.392 3.342 3.132 2.942 2.792 2.552 2.302 2.182
1938.623 2.082 1.912 1.802 1.772 1.712 1.5711 1.4325 1.5126 1.5707 1.5388
1957.913 1.6305 1.5632 1.3541 1.3202 1.2538 1.1226 1.2321 1.3422 1.3283 1.2516
1977.202 1.191 1.3432 1.3779 1.3325 1.3374 1.3917 1.4544 1.4822 1.5277 1.4828
1996.492 1.5255 1.5669 1.652 1.662 1.5205 1.5909 1.5772 1.451 1.514 1.5714
2015.782 1.4717 1.4471 1.3396 1.2024 1.4565 1.712 1.682 1.578 1.5036 1.5243
2035.072 1.4044 1.2986 1.4134 1.3452 1.3191 1.3675 1.391 1.4134 1.3519 1.4189
2054.362 1.448 1.2293 1.1828 1.2808 1.2994 1.3098 1.3432 1.4985 1.4703 1.3825
2073.651 1.4638 1.5469 1.5664 1.4818 1.4242 1.3739 1.3534 1.2738 1.1675 1.3152
2092.941 1.5562 1.5026 1.3965 1.4904 1.5101 1.5202 1.5418 1.4891 1.4006 1.3168
2112.231 1.3216 1.3468 1.39 1.4012 1.3236 1.4665 1.575 1.4937 1.4349 1.5147
2131.521 1.5508 1.5099 1.5483 1.4852 1.3977 1.3795 1.3989 1.4479 1.4323 1.5063
2150.810 1.5699 1.4169 1.5782 1.692 1.3874 1.2267 1.358 1.5071 1.5644 1.4637
2170.100 1.4644 1.4452 1.2753 1.3853 1.3794 1.247 1.2802 1.3604 1.3826 1.3275
2189.390 1.2152 1.2533 1.2409 1.0873 1.2134 1.3517 1.2164 1.0301 1.1873 1.4303
2208.680 1.379 1.2823 1.1432 1.2292 1.3965 1.3517 1.2355 1.0235 1.1185 1.1836
2227.970 0.9983 1.1382 1.245 1.218 1.2438 1.2649 1.2788 1.338 1.4828 1.6168
2247.259 1.6298 1.5069 1.5437 1.5413 1.5495 1.6396 1.5483 1.5442 1.5939 1.5733
2266.549 1.712 1.702 1.4486 1.3338 1.3925 1.4721 1.6205 1.6419 1.609 1.672
2285.839 1.5485 1.5517 1.5086 1.4296 1.5256 1.682 1.832 1.662 1.5369 1.5549
2305.129 1.6134 1.862 1.882 1.812 1.912 1.752 1.5775 1.4809 1.5411 1.722
2324.418 1.712 1.752 1.702 1.6175 1.5954 1.4386 1.435 1.3222 1.2508 1.3834
2343.708 1.5561 1.712 1.662 1.5619 1.3856 1.433 1.4232 1.3845 1.3977 1.2937
2362.998 1.3282 1.2402 1.3344 1.3567 1.3143 1.4812 1.5761 1.642 1.5823 1.4876
2382.288 1.5727 1.712 1.682 1.5406 1.672 1.742 1.662 1.842 1.812 1.712
2401.578 1.802 1.782 1.772 1.892 1.972 2.122 2.132 1.862 1.842 2.102
2420.867 2.142 2.032 1.922 1.802 1.832 1.922 1.822 1.742 1.702 1.652
2440.157 1.5771 1.6029 1.792 2.012 2.022 1.902 1.822 1.772 1.662 1.852
2459.447 2.042 1.822 1.642 1.6273 1.642 1.652 1.712 1.672 1.682 1.5709
2478.737 1.522 1.5395 1.4852 1.4749 1.5852 1.872 1.662 1.3042 1.3702 1.277
2498.026 1.3113 1.5982 1.5571 1.343 1.3818 1.4735 1.441 1.4076 1.4694 1.3943
2517.316 1.2325 1.3481 1.5358 1.4374 1.219 1.3109 1.5211 1.672 1.662 1.6025
2536.606 1.4953 1.4177 1.5058 1.2916 1.2958 1.4435 1.3368 1.3926 1.5457 1.5317
2555.896 1.3432 1.337 1.3484 1.4601 1.477 1.2856 1.3272 1.4346 1.5714 1.4565
2575.186 1.4903 1.5662 1.5259 1.672 1.682 1.662 1.6015 1.682 1.782 1.712
2594.475 1.4924 1.4063 1.5003 1.6011 1.5036 1.3682 1.5605 1.5078 1.2977 1.31
2613.765 1.4079 1.2624 1.0883 1.1663 1.119 1.1637 1.3365 1.3826 1.4881 1.6093
2633.055 1.5388 1.5236 1.5852 1.6322 1.5088 1.6205 1.6277 1.3278 1.4714 1.762
2652.345 1.652 1.5362 1.762 1.802 1.712 1.772 1.6165 1.5086 1.6034 1.652
2671.634 1.762 1.722 1.5917 1.4604 1.4687 1.447 1.4612 1.4489 1.358 1.3882
2690.924 1.4714 1.2315 1.0106 1.0839 1.2416 1.4096 1.3903 1.4526 1.5248 1.2812
2710.214 1.1955 1.3583 1.3635 1.4266 1.722 1.782 1.5816 1.682 1.852 1.772
2729.504 1.842 1.912 1.722 1.742 1.742 1.712 1.982 2.092 2.072 2.142
2748.794 2.152 2.042 1.882 1.732 1.762 1.611 1.652 1.712 1.5587 1.642
2768.083 1.3914 1.3722 1.4978 1.2885 1.3179 1.682 1.5825 1.4773 1.5889 1.5358
2787.373 1.2614 1.203 1.484 1.3775 1.2649 1.5734 1.742 1.6071 1.4865 1.499
2806.663 1.642 1.5679 1.472 1.5626 1.682 1.652 1.5691 1.872 1.962 1.752
2825.953 1.942 1.832 1.872 2.422 2.522 2.412 2.672 2.702 2.412 2.732
2845.242 3.052 3.232 3.492 3.582 3.752 4.062 4.672 5.342 5.612 5.732
2864.532 6.042 6.582 7.282 7.782 8.172 8.422 8.462 8.472 8.372 8.062
2883.822 7.702 7.582 7.572 7.432 6.802 6.682 6.862 6.752 6.802 6.682
2903.112 7.022 7.212 7.362 7.862 7.942 7.912 8.162 8.632 8.992 9.562
2922.401 10.422 11.142 12.232 13.542 14.872 16.602 18.392 19.742 20.812 20.962
2941.691 20.612 20.112 18.852 17.242 15.322 14.042 13.282 12.332 11.392 10.662
2960.981 10.292 10.312 10.372 10.542 11.312 11.822 12.012 12.432 12.862 13.382
2980.271 14.302 14.932 15.332 16.112 16.432 16.242 15.882 14.752 13.352 12.432
2999.561 11.282 9.992 8.992 8.032 7.232 6.992 6.622 6.572 6.792 7.012
3018.850 7.352 7.632 8.532 9.582 10.502 11.442 12.542 13.522 14.412 15.292
3038.140 15.622 15.992 16.292 16.092 16.192 16.532 16.632 16.722 17.042 17.182
3057.430 17.652 18.642 18.982 19.072 19.272 19.272 19.172 18.472 17.472 16.532
3076.720 15.212 13.962 12.422 10.792 9.592 8.882 8.042 7.252 6.942 6.682
3096.009 6.312 5.712 5.132 4.612 4.662 4.542 3.882 3.492 3.412 3.532
3115.299 3.482 3.092 2.382 2.192 2.212 1.742 1.64 1.972 2.142 1.812
3134.589 1.892 2.062 1.932 2.012 1.802 1.892 1.822 1.662 1.662 1.3272
3153.879 1.1041 0.8893 1.0744 1.3666 1.3013 1.5423 1.5894 1.5706 1.539 1.732
3173.169 1.802 1.4627 1.3488 0.7973 0.65256 0.7796 0.9513 1.4524 1.4552 1.1874
3192.458 1.2923 1.241 1.1107 1.2782 1.2729 1.3782 1.2701 1.2131 1.3438 1.2778
3211.748 1.136 1.357 1.5067 1.1592 1.4303 1.652 1.4733 1.3411 0.988 1.0443
3231.038 1.1421 0.8798 1.0889 1.2429 1.0243 1.1469 1.206 1.2109 1.3006 1.0489
3250.328 1.0313 1.1552 1.0629 1.0711 0.9039 0.7619 0.7696 0.8211 1.4523 1.5452
3269.617 1.1505 1.1659 1.1918 0.8977 0.8829 1.048 1.0781 1.4777 1.892 1.5112
3288.907 1.1511 1.2066 1.1893 1.3154 1.5449 1.4773 1.3466 1.2396 1.2767 1.6252
3308.197 1.672 1.4106 1.1313 1.1177 1.177 1.332 1.0372 0.8225 1.1728 1.2686
3327.487 1.2224 1.378 1.2852 0.7881 0.64386 0.9991 1.3059 1.0584 0.9204 1.06
3346.777 1.0733 1.1483 1.2709 1.3956 1.2751 1.2388 0.995 0.8107 1.0103 1.2181
3366.066 1.642 1.3522 0.8936 1.0306 1.3242 1.4293 1.1359 0.8424 0.69414 0.8221
3385.356 0.5969 0.506 0.7586 0.8378 0.9662 0.9601 1.2119 1.1934 1.0195 1.5005
3404.646 1.1847 1.0118 1.3998 1.1736 0.496 0.377 0.7454 0.8342 1.011 0.8723
3423.936 0.643669 0.465 0.5858 1.0323 1.3761 1.3875 0.9429 0.73792 0.8111 0.8179
3443.225 1.34 1.4785 1.1258 1.099 0.8721 0.9804 1.4369 1.553 1.2094 0.755
3462.515 0.9622 1.2357 1.0527 1.1238 1.3715 1.2312 0.898 0.9294 1.0331 0.9628
3481.805 0.8192 0.7924 1.004 1.2635 1.015 0.7562 0.9946 0.8556 0.499 0.451
3501.095 0.6083 0.8171 0.7967 0.9986 1.337 1.2313 1.1736 1.2287 1.154 1.1713
3520.385 1.5761 1.4784 1.1552 1.3209 1.275 1.196 1.0001 0.9193 1.1698 1.0958
3539.674 1.0869 1.0852 1.0228 1.2841 1.4117 1.2658 1.0776 1.0157 0.8819 1.2124
3558.964 1.712 1.2435 0.8892 1.0477 1.0458 0.9274 0.8084 0.9088 0.8886 0.8765
3578.254 1.2547 1.2603 1.1421 1.1814 1.0739 1.0434 0.9609 1.0034 1.2441 0.912
3597.544 0.9748 1.1939 0.7644 1.1296 1.5523 1.2609 1.211 1.4749 1.3385 1.4857
3616.833 1.882 1.4225 1.0082 1.2085 1.2238 0.9238 0.68188 0.9737 1.249 1.2562
3636.123 1.145 1.0644 1.2212 1.0218 0.7624 0.534 0.6025 1.0621 1.0784 0.8958
3655.413 0.8982 0.8688 0.9604 1.1129 1.3293 1.2967 0.8412 0.9669 1.4782 1.3965
3674.703 0.9612 0.8147 0.8273 0.8805 1.1328 1.0855 1.0447 1.1318 1.0385 1.156
3693.993 1.0883 0.7489 0.7856 1.2298 1.2464 0.9765 1.0957 1.1077 1.3399 1.2802
3713.282 1.0838 1.1839 0.8728 0.73934 0.9607 1.0594 1.3474 1.3805 1.1822 1.174
3732.572 1.1039 1.2295 1.1641 0.7891 0.7478 0.497 0 0.7744 1.3893 1.2027
3751.862 1.1525 1.598 1.702 1.5135 1.682 1.5975 1.3422 0.8838 0.9964 1.3717
3771.152 1.2136 1.0853 1.1253 1.295 1.1702 0.6251 0.7777 1.1713 1.2451 1.2875
3790.441 1.0766 0.9769 1.0379 1.1393 1.2409 1.2417 1.1165 1.3532 1.672 1.4471
3809.731 1.1583 1.2024 1.215 1.1689 0.8444 0.649114 0.7967 1.0167 1.5204 1.662
3829.021 1.4891 1.5573 1.1813 1.223 1.4991 1.712 1.842 1.2817 1.3618 1.682
3848.311 1.5225 1.3168 1.4592 1.782 1.922 1.5152 1.4339 1.4797 1.2679 1.3633
3867.601 1.2653 1.2719 1.4855 1.476 1.5838 1.852 1.6206 1.4216 1.3037 1.1317
3886.890 1.3757 1.4106 1.4013 1.902 1.782 1.3147 1.1891 1.212 1.4282 1.3555
3906.180 1.3337 1.4334 1.4317 1.4831 1.852 1.6025 1.1101 1.4173 1.455 1.077
3925.470 0.8963 1.1049 1.2614 1.3679 1.2997 1.1634 1.1685 0.9517 1.1036 1.2441
3944.760 0.9994 1.0122 1.0526 0.8678 1.1629 1.5222 1.2391 1.0502 1.4258 1.672
3964.049 1.362 1.4688 1.4333 1.2646 1.3627 1.2774 1.3491 1.295 1.3071 1.4194
3983.339 1.4929 1.4023 1.2669 1.3371 1.2404 1.2436 1.4922 1.882 1.5394 1.1247
##END=
