##TITLE=2,4,6-Trifluorobenzyl bromide
##JCAMP-DX=4.24
##DATA TYPE=INFRARED SPECTRUM
##ORIGIN=EPA-IR VAPOR PHASE LIBRARY
##OWNER=SRD/NIST
Collection (C) 2018 copyright by the U.S. Secretary of Commerce
on behalf of the United States of America. All rights reserved.
##CAS REGISTRY NO=151411-98-2
##MOLFORM=C 7 H 4 Br F 3
##$NIST SOURCE=MSDC-IR
##STATE=gas
##XUNITS=1/CM
##YUNITS=ABSORBANCE
##XFACTOR=1.
##YFACTOR=0.001
##DELTAX=1.92934
##FIRSTX=549.9
##LASTX=3999.5
##FIRSTY=4.61
##MAXX=3999.53
##MINX=549.863
##MAXY=0.14966
##MINY=0
##NPOINTS=1789
##XYDATA=(X++(Y..Y))
549.863 4.61 4.69 5.01 5.25 5.38 5.6 5.56 5.5 5.53 5.43
569.156 5.29 5.11 5.05 5.22 5.72 6.22 6.92 8.16 9.57 11.12
588.450 12.56 13.66 14.28 14.13 13.37 12.16 10.45 8.77 7.7 7.33
607.743 7.65 8.78 10.76 13.57 17.12 20.84 24.01 27.11 28.82 26.19
627.037 22.61 19.72 15.87 12.37 9.98 8.32 7.14 6.4 5.87 5.39
646.330 4.93 4.46 4.02 3.68 3.27 2.8886 2.5973 2.4687 2.2306 1.935
665.624 1.956 2.025 1.961 2.044 2.2511 2.3728 2.4365 2.4426 2.4366 2.31091
684.917 2.075 1.855 1.639 1.515 1.511 1.446 1.386 1.367 1.363 1.376
704.210 1.312 1.26 1.306 1.278 1.24 1.21 1.2 1.23 1.2 1.24
723.504 1.326 1.323 1.284 1.355 1.486 1.6 1.606 1.567 1.644 1.622
742.797 1.564 1.53 1.495 1.457 1.405 1.359 1.378 1.41 1.43 1.446
762.091 1.435 1.436 1.467 1.508 1.563 1.703 1.9 2.127 2.35579 2.5169
781.384 2.7044 2.9645 3.0211 3.0195 3.1241 3.2178 3.2603 3.2459 3.2025 3.0938
800.678 2.9029 2.7271 2.5361 2.33363 2.165 1.977 1.885 1.919 2.012 2.1876
819.971 2.4649 3.0382 4.09 5.85 8.82 13.27 19.19 26.35 34.33 42.52
839.264 50.62 60.91 72.49 67.45 52.53 44.88 37.53 29.17 21.55 15.03
858.558 10.09 6.84 4.92 3.76 3.1304 2.7849 2.5454 2.3984 2.3782 2.31765
877.851 2.2296 2.122 2.082 2.005 1.931 1.936 1.923 1.88 1.833 1.831
897.145 1.862 1.858 1.838 1.81 1.723 1.616 1.595 1.591 1.537 1.514
916.438 1.534 1.57 1.598 1.655 1.713 1.771 1.811 1.793 1.803 1.849
935.732 1.867 1.878 1.901 1.919 1.992 2.074 2.099 2.106 2.151 2.2122
955.025 2.2192 2.2501 2.3746 2.4852 2.5837 2.7386 2.8508 3.0139 3.3 3.66
974.318 4.04 4.56 5.24 6 7.05 8.41 10.34 13.32 18 25.18
993.612 34.11 41.97 46.14 47.98 48.12 46.15 43.19 38.33 33.69 32.81
1012.905 36.42 43.73 53.6 64.31 72.65 75.78 74.85 74.97 75.15 68.2
1032.199 54.82 40.93 29.28 20.42 14.1 9.88 7.36 5.9 5.04 4.6
1051.492 4.37 4.22 4.1 4.02 3.94 3.81 3.63 3.46 3.36 3.27
1070.786 3.1943 3.1796 3.2216 3.28 3.38 3.47 3.56 3.7 3.87 4.07
1090.079 4.28 4.49 4.76 5.18 5.74 6.54 7.81 9.74 12.61 16.65
1109.372 22.34 30.8 44.04 64.36 91.73 120.61 140.72 148.64 149.66 141.38
1128.666 126.79 102.91 67.85 39.28 24.62 19.41 18.88 20.93 25.12 31.22
1147.959 38.95 47.48 55.18 60.17 62.08 62.58 62.64 60.6 54.51 45.72
1167.253 36.93 29.24 22.99 18.26 14.7 12.06 10.26 9.01 8.28 8
1186.546 8.03 8.39 9.12 10.11 11.16 12.16 12.99 13.42 13.44 13.3
1205.840 13.17 13.15 13.31 13.73 14.66 16.34 19 22.98 28.25 34.33
1225.133 40.22 44.43 46.04 45.18 42.2 37.39 30.81 22.66 15.08 10.06
1244.426 7.35 5.95 5.16 4.75 4.5 4.31 4.17 4.06 3.97 3.88
1263.720 3.73 3.47 3.2128 2.9631 2.7414 2.6376 2.5238 2.4275 2.4207 2.3964
1283.013 2.4184 2.4859 2.4632 2.4325 2.4346 2.3983 2.34008 2.2544 2.2124 2.1755
1302.307 2.136 2.1868 2.3327 2.4688 2.5705 2.7037 2.8766 3.1141 3.39 3.64
1321.600 3.84 4.01 4.11 4.14 4.06 3.97 3.95 4.04 4.26 4.71
1340.894 5.51 6.61 7.88 9.17 10.32 11.14 11.52 11.5 10.97 10.03
1360.187 8.84 7.61 6.49 5.51 4.66 3.97 3.38 2.8999 2.5561 2.34236
1379.480 2.2205 2.191 2.2031 2.1839 2.2548 2.4258 2.5524 2.67 2.9023 3.1175
1398.774 3.37 3.75 4.14 4.59 5.15 5.87 6.91 8.3 10.1 12.26
1418.067 14.5 16.79 19.09 21.29 23.48 25.76 28.46 31.74 35.76 40.55
1437.361 46.23 52.2 57.88 62.5 65.2 65.71 64.23 61.16 56.56 50.71
1456.654 43.35 35.59 29.09 23.82 19.72 16.55 14.19 12.35 10.98 10.15
1475.948 10.01 10.65 12.07 14.28 17.54 22.17 28.6 36.93 46.85 56.93
1495.241 65.44 70.84 72.12 69.56 63.62 54.65 42.91 31.11 21.83 15.71
1514.534 12.3 10.32 8.96 7.85 6.85 6.16 5.73 5.43 5.29 5.32
1533.828 5.37 5.33 5.18 4.97 4.84 4.77 4.64 4.56 4.65 4.78
1553.121 4.94 5.19 5.55 5.95 6.44 7.08 7.91 8.96 10.2 11.73
1572.415 13.65 16.02 19.07 22.78 27.17 32.43 38.45 45.3 52.84 60.7
1591.708 68.45 75.8 82.37 88.08 92.79 96.33 98.52 99.69 100.37 100.82
1611.002 100.8 100.01 98.41 96.13 93.35 90.03 86.37 83.19 81.13 80.91
1630.295 83.34 88.76 96.61 105.83 113.32 116.69 114.69 107.73 96.62 82.47
1649.588 67.17 52.59 40.06 32.6 29.07 27.18 25.87 24.52 23.04 21.29
1668.882 19.18 17.03 15.11 13.41 11.96 10.84 9.91 9.04 8.26 7.7
1688.175 7.51 7.68 8 8.3 8.51 8.48 8.14 7.59 6.88 5.84
1707.469 4.72 3.85 3.2494 2.9325 2.8047 2.7564 2.7483 2.7411 2.7724 2.8405
1726.762 2.8836 2.8299 2.807 2.7813 2.7081 2.6198 2.5169 2.4036 2.29753 2.1822
1746.056 2.119 2.091 2.097 2.126 2.164 2.2356 2.2123 2.152 2.2052 2.2554
1765.349 2.2229 2.2528 2.29782 2.2891 2.29355 2.29736 2.2525 2.184 2.111 1.962
1784.642 1.828 1.7 1.604 1.544 1.471 1.443 1.447 1.469 1.457 1.434
1803.936 1.452 1.479 1.476 1.502 1.564 1.527 1.502 1.559 1.575 1.508
1823.229 1.44 1.435 1.392 1.329 1.32 1.289 1.23 1.22 1.22 1.24
1842.523 1.21 1.18 1.19 1.17 1.18 1.22 1.23 1.25 1.298 1.33
1861.816 1.315 1.29 1.26 1.22 1.22 1.21 1.21 1.23 1.25 1.23
1881.110 1.2 1.16 1.17 1.18 1.18 1.2 1.17 1.18 1.22 1.24
1900.403 1.23 1.23 1.281 1.283 1.29 1.292 1.27 1.31 1.33 1.338
1919.696 1.336 1.333 1.309 1.306 1.334 1.323 1.28 1.27 1.309 1.301
1938.990 1.281 1.25 1.26 1.274 1.26 1.27 1.25 1.24 1.294 1.297
1958.283 1.299 1.335 1.336 1.333 1.337 1.351 1.338 1.292 1.338 1.419
1977.577 1.419 1.399 1.378 1.322 1.327 1.337 1.327 1.387 1.424 1.482
1996.870 1.483 1.485 1.531 1.532 1.551 1.561 1.568 1.59 1.579 1.573
2016.164 1.613 1.602 1.573 1.547 1.513 1.494 1.468 1.441 1.399 1.339
2035.457 1.337 1.367 1.402 1.409 1.356 1.333 1.338 1.343 1.325 1.295
2054.750 1.22 1.17 1.19 1.26 1.295 1.284 1.301 1.351 1.403 1.401
2074.044 1.381 1.372 1.354 1.336 1.367 1.383 1.406 1.4 1.363 1.397
2093.337 1.445 1.464 1.439 1.404 1.414 1.473 1.523 1.532 1.58 1.611
2112.631 1.636 1.72 1.828 1.915 1.946 1.994 2.007 2.007 1.985 1.894
2131.924 1.842 1.815 1.826 1.917 1.94 1.941 2.013 2.074 2.121 2.12
2151.218 2.099 2.096 2.08 2.034 2.022 2.006 1.976 1.983 2.017 2.064
2170.511 2.082 2.075 2.125 2.1922 2.1783 2.161 2.159 2.139 2.105 2.058
2189.804 1.998 1.949 1.923 1.904 1.883 1.844 1.827 1.842 1.891 1.947
2209.098 1.984 2.031 2.034 2.007 2.014 1.993 1.91 1.837 1.768 1.732
2228.391 1.713 1.649 1.661 1.715 1.751 1.792 1.834 1.858 1.85 1.82
2247.685 1.798 1.807 1.775 1.7 1.614 1.555 1.514 1.482 1.481 1.482
2266.978 1.53 1.54 1.526 1.577 1.63 1.666 1.666 1.692 1.691 1.717
2286.272 1.741 1.708 1.718 1.684 1.625 1.623 1.6 1.584 1.559 1.507
2305.565 1.48 1.452 1.45 1.434 1.46 1.471 1.426 1.418 1.431 1.475
2324.858 1.495 1.484 1.52 1.558 1.587 1.597 1.618 1.711 1.803 1.893
2344.152 1.98 2.058 2.146 2.1901 2.2004 2.2563 2.293 2.2599 2.28435 2.29599
2363.445 2.27975 2.27418 2.28581 2.33593 2.3753 2.35933 2.29826 2.29066 2.1959 2.077
2382.739 2.034 1.939 1.837 1.773 1.692 1.667 1.679 1.626 1.594 1.603
2402.032 1.605 1.595 1.579 1.604 1.624 1.618 1.648 1.688 1.735 1.778
2421.326 1.762 1.767 1.831 1.835 1.768 1.752 1.766 1.741 1.738 1.735
2440.619 1.722 1.764 1.837 1.904 1.953 2.063 2.165 2.2377 2.4099 2.5661
2459.912 2.7242 2.9235 3.1466 3.33 3.36 3.41 3.43 3.32 3.2046 2.9801
2479.206 2.6969 2.5181 2.3794 2.27929 2.1733 2.107 2.078 2.031 2.062 2.116
2498.499 2.109 2.086 2.061 2.043 2.012 1.983 1.961 1.919 1.844 1.791
2517.793 1.787 1.7 1.638 1.582 1.498 1.473 1.439 1.416 1.396 1.351
2537.086 1.359 1.352 1.327 1.318 1.329 1.367 1.329 1.343 1.44 1.493
2556.380 1.503 1.506 1.534 1.557 1.603 1.722 1.767 1.753 1.745 1.745
2575.673 1.769 1.764 1.725 1.72 1.719 1.668 1.643 1.583 1.574 1.633
2594.966 1.624 1.62 1.658 1.742 1.781 1.811 1.929 1.992 2.004 2.051
2614.260 2.072 2.079 2.103 2.087 2.067 1.976 1.849 1.764 1.686 1.647
2633.553 1.625 1.585 1.58 1.59 1.593 1.577 1.576 1.58 1.532 1.521
2652.847 1.572 1.609 1.61 1.633 1.658 1.704 1.778 1.77 1.782 1.8
2672.140 1.748 1.668 1.631 1.63 1.531 1.421 1.396 1.448 1.415 1.318
2691.434 1.318 1.331 1.307 1.327 1.331 1.304 1.315 1.373 1.407 1.393
2710.727 1.354 1.383 1.442 1.431 1.48 1.518 1.492 1.537 1.593 1.612
2730.020 1.65 1.653 1.66 1.719 1.696 1.648 1.606 1.648 1.767 1.772
2749.314 1.753 1.77 1.766 1.697 1.625 1.645 1.639 1.558 1.577 1.624
2768.607 1.536 1.466 1.501 1.561 1.573 1.577 1.574 1.567 1.549 1.552
2787.901 1.555 1.563 1.592 1.562 1.559 1.57 1.55 1.493 1.461 1.475
2807.194 1.454 1.376 1.275 1.284 1.341 1.287 1.21 1.21 1.25 1.19
2826.488 1.16 1.24 1.18 1.04 1.03 1.08 1.07 1.08 1.16 1.19
2845.781 1.16 1.16 1.21 1.2 1.22 1.282 1.27 1.21 1.18 1.2
2865.074 1.25 1.285 1.22 1.24 1.321 1.27 1.19 1.18 1.19 1.1
2884.368 1.1 1.1 1.02 1 0.97 0.89 0.92 1 0.97 0.95
2903.661 0.93 0.91 0.87 0.81 0.81 0.86 0.86 0.94 0.97 0.9
2922.955 0.85 0.87 0.94 0.91 0.87 0.81 0.8 0.93 0.98 0.89
2942.248 0.85 0.92 0.98 0.98 0.98 0.87 0.81 0.86 0.84 0.79
2961.542 0.83 0.86 0.85 0.81 0.79 0.89 0.94 1.08 1.306 1.452
2980.835 1.529 1.76 2.115 2.36972 2.6644 3.0112 3.35 3.62 3.76 3.92
3000.128 3.78 3.51 3.34 3.0303 2.7607 2.4715 2.28501 2.121 1.744 1.621
3019.422 1.55 1.293 1.15 1.09 1 0.93 0.86 0.77 0.75 0.79
3038.715 0.79 0.72 0.73 0.75 0.84 0.89 0.81 0.8 0.81 0.77
3058.009 0.71 0.77 0.87 0.77 0.77 0.79 0.76 0.83 0.82 0.9
3077.302 0.99 0.93 1.03 1.11 1.02 1.01 1.22 1.409 1.435 1.435
3096.596 1.457 1.518 1.749 1.924 2.03 1.99 1.94 1.945 1.859 1.809
3115.889 1.737 1.654 1.35 1.07 1.08 1.03 0.91 0.77 0.67 0.71
3135.182 0.64 0.58 0.55 0.4 0.34 0.44 0.54 0.58 0.52 0.53
3154.476 0.5 0.29 0.25 0.29 0.32 0.39 0.44 0.46 0.49 0.42
3173.769 0.43 0.4 0.25 0.18 0.3 0.36 0.25 0.35 0.45 0.42
3193.063 0.34 0.34 0.45 0.37 0.26 0.26 0.26 0.46 0.43 0.28
3212.356 0.37 0.41 0.44 0.53 0.49 0.34 0.15 0.21 0.39 0.47
3231.650 0.57 0.5 0.4 0.38 0.22 0.3 0.52 0.52 0.43 0.41
3250.943 0.39 0.39 0.46 0.41 0.38 0.39 0.37 0.37 0.42 0.59
3270.236 0.54 0.38 0.48 0.48 0.4 0.53 0.48 0.36 0.41 0.41
3289.530 0.36 0.26 0.3 0.27 0.17 0.06 0.06 0.13 0.15 0.1
3308.823 0 0 0.02 0.06 0.12 0.21 0.14 0.17 0.24 0.2
3328.117 0.15 0.13 0.2 0.32 0.36 0.24 0.2 0.13 0.01 0.07
3347.410 0.13 0.29 0.41 0.37 0.31 0.24 0.28 0.25 0.1 0.1
3366.704 0.23 0.25 0.27 0.37 0.33 0.17 0.14 0.22 0.22 0.18
3385.997 0.26 0.46 0.44 0.29 0.25 0.22 0.13 0.13 0.3 0.37
3405.290 0.33 0.3 0.4 0.48 0.43 0.35 0.34 0.26 0.2 0.36
3424.584 0.47 0.46 0.37 0.36 0.26 0.28 0.39 0.42 0.43 0.33
3443.877 0.36 0.4 0.41 0.35 0.32 0.34 0.33 0.35 0.35 0.34
3463.171 0.5 0.56 0.31 0.2 0.34 0.4 0.49 0.5 0.48 0.54
3482.464 0.6 0.65 0.73 0.63 0.48 0.5 0.47 0.43 0.4 0.41
3501.758 0.45 0.46 0.5 0.52 0.48 0.36 0.3 0.47 0.55 0.58
3521.051 0.66 0.54 0.63 0.73 0.63 0.69 0.63 0.56 0.54 0.5
3540.344 0.55 0.65 0.61 0.56 0.6 0.57 0.52 0.58 0.67 0.68
3559.638 0.77 0.75 0.61 0.56 0.58 0.62 0.65 0.77 0.85 0.8
3578.931 0.76 0.76 0.86 0.91 0.77 0.75 0.81 0.86 0.76 0.73
3598.225 0.83 0.8 0.8 0.82 0.86 0.86 0.95 0.93 0.85 0.9
3617.518 0.93 0.89 0.84 0.86 0.84 0.82 0.79 0.88 0.91 0.79
3636.812 0.8 0.84 0.83 0.76 0.73 0.69 0.73 0.87 0.86 0.83
3656.105 0.89 0.92 0.93 0.99 0.96 0.96 0.93 0.93 0.93 0.88
3675.398 1.03 0.93 0.85 0.95 1.07 1.13 1.06 0.98 0.9 0.92
3694.692 0.92 0.92 0.86 0.87 1.02 1.02 0.99 0.96 0.89 0.93
3713.985 1.05 1.13 0.99 0.87 0.86 0.94 1.02 0.92 0.92 1.01
3733.279 1.03 1.01 0.95 0.87 0.91 0.96 0.91 0.96 0.98 0.89
3752.572 0.88 0.93 1 1.04 1.06 1.1 1.08 1.11 1.09 1.02
3771.866 1.03 1.04 1.03 1.08 1.08 1.1 1.16 1.06 1.02 1.05
3791.159 1.09 1.12 1.09 1.12 1.1 1.08 1.14 1.02 0.97 1.06
3810.452 1.1 1.04 0.94 0.93 0.94 1.05 1.15 1.11 1.15 1.23
3829.746 1.2 1.14 1.03 1.02 1.13 1.19 1.23 1.17 1.12 1.2
3849.039 1.19 1.11 1 1 1.13 1.26 1.21 1.14 1.17 1.22
3868.333 1.271 1.28 1.294 1.19 1.19 1.25 1.23 1.25 1.275 1.335
3887.626 1.305 1.23 1.25 1.312 1.363 1.292 1.2 1.22 1.24 1.24
3906.920 1.22 1.19 1.19 1.25 1.24 1.2 1.23 1.275 1.308 1.3
3926.213 1.282 1.25 1.2 1.2 1.22 1.16 1.24 1.3 1.22 1.15
3945.506 1.08 1.08 1.16 1.23 1.15 1.1 1.17 1.22 1.2 1.18
3964.800 1.19 1.14 1.05 1.08 1.18 1.16 1.1 1.1 1.12 1.1
3984.093 1.16 1.26 1.22 1.21 1.17 1.09 1.12 1.2 1.24
##END=
