##TITLE=Phenanthrene-d10
##JCAMP-DX=4.24
##DATA TYPE=INFRARED SPECTRUM
##ORIGIN=NIST Mass Spectrometry Data Center
##OWNER=NIST Standard Reference Data Program
Collection (C) 2018 copyright by the U.S. Secretary of Commerce
on behalf of the United States of America. All rights reserved.
##CAS REGISTRY NO=1517-22-2
##MOLFORM=C 14 D 10
##$NIST SOURCE=MSDC-IR
##SPECTROMETER/DATA SYSTEM=HP-GC/MS/IRD
##STATE=gas
##XUNITS=1/CM
##YUNITS=ABSORBANCE
##XFACTOR=1.0
##YFACTOR=0.000000800
##DELTAX=4.0
##FIRSTX=550.0
##LASTX=3846.0
##FIRSTY=0.002968
##MAXX=3846
##MINX=550
##MAXY=0.008
##MINY=0
##NPOINTS=825
##XYDATA=(X++(Y..Y))
550.0 3710 8669 8061 6268 4497 2803 1678 1112 941 1581
590.0 3169 5737 7950 9524 10000 7610 5310 3633 2044 1330
630.0 1285 1714 2288 3295 3993 3210 2306 1582 964 841
670.0 978 1022 921 789 650 578 511 540 505 353
710.0 296 286 289 276 329 415 517 713 834 760
750.0 694 640 625 850 1166 1514 1862 1635 1184 867
790.0 568 380 371 477 573 798 955 1012 1277 2051
830.0 2688 2713 2389 1691 1059 718 471 324 252 235
870.0 302 401 540 766 1130 1514 1666 1696 1482 985
910.0 595 394 296 225 214 261 319 374 400 339
950.0 278 237 216 287 488 692 747 688 507 382
990.0 439 481 463 425 393 387 419 434 385 290
1030.0 201 167 98 94 172 181 90 74 117 98
1070.0 94 163 188 166 135 88 69 127 134 80
1110.0 59 8 11 35 11 10 16 16 34 72
1150.0 85 114 200 276 289 304 334 270 193 268
1190.0 467 690 829 858 801 628 427 323 303 251
1230.0 193 166 152 144 133 161 164 183 228 242
1270.0 230 182 155 165 207 218 209 214 214 271
1310.0 354 450 544 599 625 678 873 1162 1504 1766
1350.0 1778 1566 1179 834 708 694 747 877 1054 1214
1390.0 1264 1172 906 640 500 451 513 690 869 1015
1430.0 1057 950 778 578 416 319 321 337 352 401
1470.0 438 458 443 372 311 292 280 273 255 268
1510.0 298 358 433 507 603 720 787 822 802 761
1550.0 716 642 542 407 331 319 317 311 365 489
1590.0 661 844 891 795 636 444 316 261 234 226
1630.0 274 335 290 222 223 243 222 179 181 204
1670.0 216 204 164 143 160 156 177 169 108 82
1710.0 69 66 77 60 64 84 81 90 77 62
1750.0 71 60 73 84 67 53 50 66 74 75
1790.0 95 108 120 136 121 112 113 87 58 56
1830.0 76 69 45 65 75 56 53 51 44 60
1870.0 70 60 45 45 60 62 57 45 26 24
1910.0 48 59 37 9 42 59 45 42 60 57
1950.0 41 53 64 83 92 71 59 67 73 76
1990.0 79 59 42 48 46 42 66 98 77 56
2030.0 74 75 63 70 66 59 58 67 85 90
2070.0 95 89 58 44 34 49 80 79 78 45
2110.0 42 75 66 67 81 66 43 32 52 88
2150.0 87 73 64 76 110 130 147 162 166 194
2190.0 206 214 237 234 231 271 299 326 408 475
2230.0 533 649 862 1165 1611 2237 3116 4316 5694 6842
2270.0 7572 7992 8299 8769 9334 9431 8563 6900 5078 3743
2310.0 2970 2503 2194 1817 1379 1019 738 509 397 341
2350.0 291 277 299 341 341 343 372 375 379 428
2390.0 453 430 412 370 318 263 233 248 220 182
2430.0 165 134 134 125 99 101 87 61 64 79
2470.0 98 116 89 82 84 84 77 67 66 57
2510.0 80 101 108 101 66 48 47 35 28 19
2550.0 32 66 59 53 64 67 59 67 65 43
2590.0 32 43 69 53 26 40 26 24 57 60
2630.0 30 40 22 7 54 72 60 26 30 44
2670.0 33 48 44 42 48 4 9 35 27 47
2710.0 46 51 43 52 53 43 84 96 64 61
2750.0 78 80 79 60 35 32 49 47 53 66
2790.0 104 101 77 79 57 61 76 70 63 55
2830.0 54 70 93 98 61 78 95 72 71 83
2870.0 92 109 127 99 100 112 85 40 24 83
2910.0 135 136 122 137 159 163 150 149 147 137
2950.0 156 169 126 104 125 123 96 108 86 62
2990.0 88 114 126 87 107 134 120 145 215 252
3030.0 228 210 212 218 225 225 257 296 301 325
3070.0 340 375 356 272 209 105 106 141 99 79
3110.0 104 130 148 160 159 133 101 91 103 114
3150.0 130 113 88 101 117 143 117 99 130 124
3190.0 101 86 65 61 95 101 112 83 63 138
3230.0 138 103 121 136 125 137 131 109 106 105
3270.0 162 209 152 72 69 108 115 116 146 84
3310.0 64 107 53 30 72 90 53 53 26 55
3350.0 64 50 65 87 107 104 105 133 142 102
3390.0 101 131 123 82 67 86 93 64 67 107
3430.0 104 84 0 9 61 27 83 124 97 105
3470.0 117 126 120 100 52 54 76 83 78 65
3510.0 74 49 95 141 115 92 62 19 80 172
3550.0 155 114 128 112 114 115 91 108 131 136
3590.0 143 129 101 109 142 151 112 121 149 137
3630.0 113 105 79 83 139 134 132 126 81 86
3670.0 100 71 93 161 124 82 128 119 71 66
3710.0 67 87 79 95 146 116 128 167 181 160
3750.0 131 94 137 204 146 107 91 100 121 142
3790.0 120 104 146 208 203 181 207 145 155 237
3830.0 223 208 252 241 197
##END=
