##TITLE=Hydroxyamphetamine
##JCAMP-DX=4.24
##DATA TYPE=INFRARED SPECTRUM
##ORIGIN=NIST Mass Spectrometry Data Center
##OWNER=NIST Standard Reference Data Program
Collection (C) 2018 copyright by the U.S. Secretary of Commerce
on behalf of the United States of America. All rights reserved.
##CAS REGISTRY NO=1518-86-1
##MOLFORM=C 9 H 13 N O
##$NIST SOURCE=MSDC-IR
##SPECTROMETER/DATA SYSTEM=HP-GC/MS/IRD
##STATE=gas
##XUNITS=1/CM
##YUNITS=ABSORBANCE
##XFACTOR=1.0
##YFACTOR=0.000000500
##DELTAX=4.0
##FIRSTX=550.0
##LASTX=3846.0
##FIRSTY=0.000699
##MAXX=3846
##MINX=550
##MAXY=0.005
##MINY=0
##NPOINTS=825
##XYDATA=(X++(Y..Y))
550.0 1397 900 622 820 705 434 453 472 176 6
590.0 118 208 232 284 343 238 230 362 306 267
630.0 302 306 361 378 256 222 286 309 267 312
670.0 419 501 482 493 546 557 567 625 705 754
710.0 736 763 729 722 856 992 1049 1083 1176 1284
750.0 1516 1861 2102 2336 2672 2819 2762 2830 2962 3182
790.0 3374 3593 3686 3643 3477 3221 2942 2604 2272 2057
830.0 1890 1873 1968 2044 1971 1814 1561 1249 1017 814
870.0 694 661 554 425 387 394 350 284 265 260
910.0 205 175 183 219 282 253 240 214 215 279
950.0 266 225 253 253 231 261 317 331 299 302
990.0 338 444 547 513 574 683 682 691 687 682
1030.0 645 568 507 531 609 624 618 665 744 757
1070.0 716 758 860 984 1116 1269 1483 1666 1826 1912
1110.0 1881 1780 1698 1610 1515 1518 1605 1761 1900 2040
1150.0 2333 2901 3946 5837 8030 9462 10000 9403 7922 6438
1190.0 5127 3985 3149 2549 2111 1846 1715 1596 1526 1518
1230.0 1561 1721 2099 2835 4030 5268 5872 5587 4467 2938
1270.0 1841 1298 1043 886 771 730 702 700 735 725
1310.0 776 1012 1318 1572 1771 1877 1852 1722 1548 1385
1350.0 1229 1129 1104 1119 1088 1124 1235 1217 1124 1043
1390.0 916 766 648 549 516 553 633 793 1040 1273
1430.0 1433 1561 1541 1373 1252 1162 1078 987 921 878
1470.0 846 871 922 975 1125 1402 1874 2844 4323 6135
1510.0 7517 7753 6902 5149 3268 2045 1401 1076 898 777
1550.0 733 695 698 748 729 742 852 1034 1217 1440
1590.0 1702 1916 2093 2220 2361 2588 2680 2562 2297 1901
1630.0 1501 1126 855 722 611 481 389 333 299 295
1670.0 273 241 212 174 156 142 121 143 155 107
1710.0 85 102 98 62 60 99 117 67 60 104
1750.0 126 106 90 81 80 74 51 37 40 20
1790.0 6 17 16 19 20 26 9 8 67 64
1830.0 33 46 70 95 119 140 142 164 161 163
1870.0 196 190 165 171 183 138 94 78 45 54
1910.0 64 24 49 84 64 87 92 46 71 93
1950.0 72 57 55 67 83 79 51 54 60 35
1990.0 45 72 80 46 20 44 75 95 94 67
2030.0 70 77 45 25 41 58 31 13 40 91
2070.0 94 60 44 35 46 69 40 27 47 82
2110.0 84 49 23 28 29 7 16 22 52 70
2150.0 44 14 11 9 26 48 60 82 38 0
2190.0 55 74 35 23 53 64 46 45 51 64
2230.0 69 62 40 26 47 78 94 90 68 74
2270.0 112 109 61 50 48 40 65 53 11 30
2310.0 59 86 92 72 48 56 99 105 89 82
2350.0 82 81 108 96 57 82 95 58 45 41
2390.0 46 57 46 61 42 24 51 134 173 151
2430.0 140 106 84 60 36 37 11 11 67 94
2470.0 93 89 40 3 34 62 48 65 103 128
2510.0 98 62 57 41 53 58 52 58 46 41
2550.0 37 40 57 60 53 56 71 70 50 44
2590.0 78 104 102 98 104 78 84 122 138 126
2630.0 79 100 156 133 138 137 113 104 90 112
2670.0 97 131 160 107 127 158 139 162 197 145
2710.0 116 123 93 86 117 131 132 159 169 132
2750.0 122 174 181 130 137 167 171 167 166 154
2790.0 167 218 234 271 283 282 324 398 426 485
2830.0 600 689 765 942 1141 1295 1379 1385 1390 1346
2870.0 1315 1316 1344 1385 1435 1450 1517 1671 1909 2248
2910.0 2580 2859 3050 3166 3222 3157 2934 2611 2310 2092
2950.0 1999 2247 2595 2865 3091 3106 2856 2488 2037 1621
2990.0 1275 1050 947 968 1102 1282 1452 1519 1518 1566
3030.0 1615 1590 1495 1322 1091 917 872 795 707 717
3070.0 686 633 599 571 505 359 296 304 273 273
3110.0 268 198 193 196 180 175 187 194 146 130
3150.0 116 57 58 67 61 78 80 86 86 101
3190.0 119 99 166 206 144 121 121 120 110 127
3230.0 150 134 96 62 135 124 70 60 59 58
3270.0 57 30 54 109 78 85 73 54 97 60
3310.0 43 71 91 154 182 179 118 88 107 155
3350.0 172 153 175 152 153 168 168 136 109 168
3390.0 195 190 121 133 161 82 105 161 149 163
3430.0 155 106 98 101 84 40 79 107 93 132
3470.0 185 160 54 56 94 118 120 95 108 99
3510.0 32 3 59 104 138 66 33 50 115 175
3550.0 141 116 81 108 176 148 109 150 136 142
3590.0 217 187 124 144 197 258 285 288 277 394
3630.0 670 1004 1495 2379 3613 4415 4282 3596 2421 1273
3670.0 700 497 336 192 136 134 133 155 125 57
3710.0 121 193 116 122 203 207 201 184 225 141
3750.0 1 74 95 39 58 85 90 104 102 115
3790.0 140 120 64 101 148 120 103 103 83 64
3830.0 78 77 133 211 186
##END=
