##TITLE=Ethyl indole-3-acrylate
##JCAMP-DX=4.24
##DATA TYPE=INFRARED SPECTRUM
##ORIGIN=EPA-IR VAPOR PHASE LIBRARY
##OWNER=SRD/NIST
Collection (C) 2018 copyright by the U.S. Secretary of Commerce
on behalf of the United States of America. All rights reserved.
##CAS REGISTRY NO=15181-86-9
##MOLFORM=C 13 H 13 N O 2
##$NIST SOURCE=MSDC-IR
##STATE=gas
##XUNITS=1/CM
##YUNITS=ABSORBANCE
##XFACTOR=1.
##YFACTOR=0.001
##DELTAX=1.92898
##FIRSTX=549.8
##LASTX=4000.7
##FIRSTY=3.5049
##MAXX=4000.7
##MINX=549.759
##MAXY=0.283145
##MINY=0
##NPOINTS=1790
##XYDATA=(X++(Y..Y))
549.759 3.5049 3.9349 4.6049 5.2149 5.4549 5.3349 4.9949 5.1949 5.6749 6.0249
569.049 7.0249 7.6149 7.4649 6.6149 5.7949 5.8949 5.5749 5.6349 7.5049 9.7249
588.339 12.2249 15.0049 16.6049 16.9149 16.1049 14.1349 11.4449 8.5749 6.1549 4.8249
607.628 4.3549 4.1649 3.4549 2.8249 2.8349 2.9949 3.2049 2.7949 2.2149 2.4649
626.918 2.4249 2.2949 2.2549 2.0649 2.2049 2.1249 2.0249 2.0949 2.2749 2.2849
646.208 2.2349 2.2949 1.9149 1.9049 2.2249 2.4149 2.6549 2.3249 2.1349 2.6949
665.498 3.0349 3.0049 3.2249 3.5449 4.1149 5.0949 6.4049 7.7849 8.8749 9.9549
684.787 10.9249 11.5649 12.0949 12.7849 13.4849 14.5849 15.6949 16.5949 17.2149 17.1549
704.077 16.2249 14.9149 13.7849 12.9349 12.9249 13.2349 14.0249 15.5549 18.0049 21.9449
723.367 27.9649 36.3449 47.2049 59.7849 72.3849 83.6449 96.9349 106.875 98.9149 85.4349
742.657 76.4949 66.1049 55.4249 45.7149 38.0549 32.4549 28.1149 24.9849 22.3549 20.2949
761.947 18.5649 17.6249 17.6349 17.4549 16.9249 16.7949 16.6449 16.7449 16.9249 16.8149
781.236 17.2849 17.5949 17.7549 18.6049 19.2249 20.2549 21.8849 22.7149 23.6749 24.9149
800.526 26.2849 27.0049 26.4849 25.3549 23.6449 21.7549 20.5349 19.5449 18.6049 17.8649
819.816 17.2649 17.4749 18.3149 19.6549 21.5449 23.3749 25.0749 27.2449 29.7749 31.9549
839.106 33.2249 34.0449 34.7349 35.4749 36.0449 36.0249 35.6049 34.9349 33.7049 31.8349
858.395 29.4249 26.5449 23.8849 21.9049 20.3949 19.1149 18.3049 17.6149 16.8949 16.5849
877.685 16.0449 14.9349 14.1849 13.6949 12.9349 12.4149 12.4649 12.8449 13.6649 14.5649
896.975 15.2749 16.0549 16.7349 17.7849 18.4249 18.0349 18.1049 18.4249 18.0549 17.6549
916.265 17.5149 17.0449 16.2749 15.9449 15.8849 15.6549 15.2349 14.7949 14.8049 14.8749
935.555 14.6749 14.4149 14.3149 14.4849 14.8249 15.3949 15.8849 16.1049 16.4649 17.2349
954.844 17.9049 18.7149 20.0149 21.4949 23.4849 25.7949 28.2949 30.9149 32.9049 34.0849
974.134 34.2349 33.7849 32.2849 29.1949 26.2749 23.4549 20.2349 17.8349 16.6349 15.6549
993.424 14.3549 13.6949 13.3949 12.8749 13.3649 14.6349 15.7749 17.5649 19.9449 21.9649
1012.714 23.7549 25.2849 25.9849 26.2449 26.9149 27.8649 29.4249 32.3049 35.7449 40.4949
1032.003 45.2649 49.7149 55.6049 60.4049 63.1749 65.3349 65.9549 65.2649 64.0049 60.9449
1051.293 56.9149 53.9149 52.0249 50.8749 49.2549 47.3549 45.1049 42.2449 39.8049 37.7849
1070.583 37.5449 39.3049 42.2749 47.9349 54.5449 60.0649 65.7549 70.4449 74.0649 78.8449
1089.873 85.4849 91.3549 93.9749 91.7849 86.8249 76.6749 61.1349 48.0949 39.4149 33.7049
1109.163 30.0449 26.8349 24.6149 24.1549 23.7649 23.4249 24.3149 26.4549 29.1649 31.1049
1128.452 33.2849 37.4249 41.7349 45.1949 49.7049 55.9049 65.0949 77.2149 92.0949 109.225
1147.742 126.975 146.725 166.135 184.555 203.985 223.915 242.315 256.925 267.325 269.685
1167.032 261.895 245.695 223.785 196.565 165.365 136.105 112.255 94.1149 79.7249 68.7049
1186.322 61.4449 56.7749 54.8249 54.7149 55.8149 58.9249 63.4149 69.7749 77.7049 84.9449
1205.611 89.4049 90.3049 87.4449 81.1549 72.7149 65.8149 61.7549 60.6349 62.7849 67.3549
1224.901 75.6749 86.7449 99.2849 113.245 129.445 147.165 162.755 173.505 177.915 177.545
1244.191 174.575 169.735 164.125 160.015 158.515 158.895 161.125 166.125 173.965 182.635
1263.481 189.535 192.885 193.045 188.735 178.695 163.475 145.435 125.555 102.695 80.5549
1282.771 62.9949 51.0149 43.9249 39.8849 38.2849 38.4949 40.1749 43.6149 48.2449 53.8549
1302.060 60.0649 66.5449 73.6049 80.6549 87.3649 93.2949 96.9549 97.4749 95.2649 90.6949
1321.350 84.5849 78.3449 73.3349 69.6449 66.4249 62.9749 59.4749 56.9449 55.9949 56.4949
1340.640 57.4449 57.4149 55.6149 52.1349 47.2749 42.1049 37.9349 34.8049 32.7849 32.1849
1359.930 33.3049 36.8549 42.9049 49.7949 54.2449 54.9149 52.8149 47.4049 39.3249 32.3049
1379.219 27.9349 25.5349 24.3949 24.0049 24.1549 24.7749 25.7849 26.8449 27.8549 28.9049
1398.509 30.2049 32.2749 35.3149 39.3849 44.7749 51.3049 57.9049 63.1949 65.3749 63.4249
1417.799 57.6049 48.7749 38.6649 29.2049 22.1349 17.9049 15.5949 14.5049 14.3249 14.4749
1437.089 15.1049 16.2949 17.8749 20.2249 23.1249 26.4349 30.2749 34.2749 37.7849 39.8849
1456.378 40.1549 39.6049 38.3249 35.4449 31.8549 28.6649 26.1749 24.1849 22.3949 20.7349
1475.668 19.2949 17.9949 16.8349 15.8449 15.2449 14.9449 14.3649 13.7349 13.1349 12.2349
1494.958 11.2649 10.2449 9.4949 9.0449 8.5949 8.3749 8.6249 9.0149 9.3849 9.9249
1514.248 10.6749 11.7249 12.9549 14.2449 16.1249 18.5249 21.1849 24.1149 26.9949 29.5249
1533.538 31.5249 32.6049 32.8849 32.2549 30.6049 28.1549 25.1949 21.9349 18.6449 15.7849
1552.827 13.6749 12.1849 11.4049 11.3749 11.8249 12.5349 13.6849 15.2049 16.7949 18.5249
1572.117 20.1849 21.3549 22.0349 22.4149 22.1249 21.2449 20.2449 19.1949 18.2249 17.7749
1591.407 17.8749 18.1949 18.7349 19.4749 20.4249 21.5749 22.7549 24.3549 26.4749 28.8349
1610.697 31.4049 34.5449 38.3649 42.9449 48.5549 55.6549 64.8149 76.9149 92.0749 110.685
1629.986 132.045 154.555 174.885 189.485 195.065 189.295 172.305 147.575 119.605 93.6349
1649.276 73.4649 59.1549 48.8449 41.9049 37.0049 32.9149 29.5249 26.6449 24.2649 22.5549
1668.566 21.1949 20.0749 19.4149 18.9249 18.6449 18.5749 18.4149 18.4549 18.7149 18.9149
1687.856 19.2449 19.7449 20.3449 21.0649 22.0749 23.4449 25.4349 27.9249 30.9249 34.6549
1707.146 38.6149 43.1949 48.8949 55.6849 64.3549 76.1949 92.1449 113.205 140.845 174.535
1726.435 211.495 245.935 271.695 283.145 275.715 251.895 218.115 177.845 138.545 106.175
1745.725 82.1149 64.6749 52.2549 43.6049 37.7849 33.7849 30.8849 28.3149 25.8849 23.6249
1765.015 21.4549 19.4849 17.7049 16.1049 14.6649 13.3849 12.4249 11.5549 10.9649 10.5949
1784.305 10.0749 9.5549 9.1749 8.8249 8.5149 8.2149 7.7449 7.2849 6.7949 6.3349
1803.594 5.8949 5.4049 5.0449 4.7549 4.6049 4.4749 4.3649 4.2549 4.1449 4.0949
1822.884 4.0149 3.9949 4.0349 4.0049 4.0049 4.0849 4.0449 3.9749 4.0749 4.0749
1842.174 4.0749 4.0949 4.0649 4.1749 4.1749 4.0449 3.9449 3.8649 3.7949 3.7349
1861.464 3.7349 3.7849 3.9749 4.0149 4.0749 4.3049 4.4949 4.8249 5.1149 5.3849
1880.754 5.6549 5.5449 5.3049 5.0649 4.7149 4.2949 4.0249 3.8349 3.8249 3.9249
1900.043 3.9149 4.0149 4.3149 4.5049 4.6749 4.8549 5.0249 5.2749 5.4849 5.7049
1919.333 5.7249 5.6949 5.4949 5.0349 4.6649 4.3149 3.9449 3.7249 3.5749 3.3949
1938.623 3.2149 3.1049 2.9649 2.9349 2.8149 2.5749 2.5149 2.4849 2.3449 2.2449
1957.913 2.1849 2.1749 2.1849 2.1149 2.0949 2.0849 2.0949 2.0949 2.0949 2.0949
1977.202 2.1549 2.2249 2.1349 2.1649 2.2049 2.1249 2.1349 2.0249 1.9149 1.8949
1996.492 1.9449 2.0549 2.0349 1.9949 1.9249 1.8449 1.8349 1.8849 1.7949 1.7849
2015.782 1.8349 1.9249 2.0649 2.1249 2.0949 2.0349 2.0449 2.0049 2.0149 2.0649
2035.072 2.1549 2.2449 2.1549 2.0749 2.1149 2.1449 2.0949 2.0949 1.9449 1.8849
2054.362 2.0449 1.9649 1.8749 1.8649 1.9049 1.9249 1.8749 1.8749 1.7849 1.7749
2073.651 1.9349 1.9449 1.9249 1.9949 2.0949 2.1449 2.0749 2.1249 2.1949 2.2849
2092.941 2.2649 2.2149 2.3049 2.2549 2.1449 2.1949 2.1349 2.0749 2.1549 2.1849
2112.231 2.2849 2.2849 2.2549 2.2749 2.1549 2.2049 2.2949 2.1549 1.9549 1.8649
2131.521 1.7549 1.6749 1.7349 1.7249 1.7149 1.6849 1.5249 1.4449 1.3649 1.3449
2150.810 1.4049 1.3949 1.3949 1.3649 1.3249 1.3049 1.3749 1.5149 1.5949 1.6449
2170.100 1.6749 1.5749 1.5449 1.5249 1.5349 1.6649 1.6549 1.6349 1.6949 1.6949
2189.390 1.7549 1.7849 1.6949 1.6549 1.6449 1.5549 1.4549 1.5149 1.6349 1.6449
2208.680 1.7149 1.6549 1.5149 1.4349 1.4749 1.7249 1.8649 1.7549 1.7049 1.8949
2227.970 1.9849 1.9549 1.8949 1.8449 1.8449 1.7849 1.7349 1.7249 1.7349 1.6749
2247.259 1.6649 1.6749 1.5049 1.4149 1.3549 1.3849 1.4249 1.3549 1.4149 1.4849
2266.549 1.5249 1.5649 1.5749 1.5449 1.5449 1.5049 1.3649 1.4549 1.3949 1.2849
2285.839 1.3649 1.3549 1.4349 1.4349 1.4949 1.6149 1.5749 1.4649 1.3649 1.3549
2305.129 1.3749 1.4449 1.5049 1.6249 1.6649 1.5649 1.5149 1.5449 1.5949 1.6649
2324.418 1.7049 1.6649 1.6749 1.6149 1.6049 1.7349 1.7649 1.7749 1.7349 1.6549
2343.708 1.6649 1.7049 1.7049 1.6249 1.5149 1.5249 1.5849 1.4849 1.4249 1.4449
2362.998 1.4649 1.6349 1.7549 1.5849 1.3449 1.4749 1.6149 1.6049 1.5749 1.6049
2382.288 1.6749 1.7149 1.6949 1.6449 1.6149 1.6149 1.6749 1.7849 1.8549 1.6849
2401.578 1.6649 1.6649 1.6349 1.7249 1.8349 1.7549 1.5349 1.4649 1.5749 1.7349
2420.867 1.7849 1.6949 1.6849 1.7549 1.7549 1.7049 1.6349 1.6649 1.6849 1.7449
2440.157 1.6849 1.6049 1.5549 1.5349 1.7549 1.8249 1.8249 1.8749 2.0649 2.2149
2459.447 2.2149 2.2549 2.4149 2.4849 2.3549 2.4549 2.5549 2.4649 2.4149 2.4949
2478.737 2.4849 2.3849 2.4049 2.4849 2.5749 2.7049 2.7549 2.9149 3.1449 3.3249
2498.026 3.3849 3.4649 3.5849 3.5449 3.5349 3.4949 3.2849 2.9549 2.6549 2.3249
2517.316 2.0149 2.0149 1.7449 1.3149 1.2649 1.3249 1.4449 1.5249 1.4649 1.4449
2536.606 1.4849 1.5149 1.5249 1.5849 1.7149 1.7749 1.6749 1.4949 1.4549 1.4349
2555.896 1.2949 1.2449 1.4549 1.6249 1.7149 1.6749 1.7049 1.7849 1.6349 1.6349
2575.186 1.7749 1.8549 1.7949 1.6849 1.8249 1.9449 1.8349 1.7349 1.8249 1.9749
2594.475 1.9849 1.9149 1.9849 1.8749 1.8149 1.9149 2.0149 2.1149 2.0849 2.1249
2613.765 2.1249 2.0849 2.0949 2.0949 2.0049 1.8949 1.8149 1.8949 1.7749 1.7449
2633.055 1.8149 1.6649 1.5749 1.5949 1.5349 1.5649 1.5849 1.5149 1.6149 1.6649
2652.345 1.7149 1.6749 1.5449 1.6849 1.8649 1.8749 1.7949 1.7649 1.7849 1.8249
2671.634 2.0449 2.1949 2.0249 1.9249 2.0749 2.1049 2.2049 2.1149 1.9049 1.9949
2690.924 2.1149 1.9749 1.8549 1.7949 1.7949 1.9649 1.7949 1.5449 1.5149 1.6449
2710.214 1.5849 1.6249 1.6349 1.5149 1.7049 1.7949 1.7749 1.8849 1.9149 1.8349
2729.504 1.8349 1.7549 1.6649 1.6949 1.6949 1.6649 1.5849 1.6749 1.6649 1.5949
2748.794 1.5849 1.5249 1.4049 1.3549 1.5149 1.6249 1.6549 1.7249 1.7649 1.6949
2768.083 1.6049 1.6649 1.7849 1.8049 1.9049 2.1349 2.1249 1.9849 1.9449 2.0149
2787.373 2.2049 2.2249 2.0349 1.8949 2.1049 2.1749 2.0349 2.0449 2.1249 2.2549
2806.663 2.4149 2.5749 2.5449 2.4549 2.5549 2.5849 2.6049 2.8249 2.9549 3.0349
2825.953 3.1849 3.2449 3.2649 3.2449 3.0749 3.1049 3.2449 3.1749 3.2249 3.5649
2845.242 3.6649 3.5349 3.5349 3.6649 3.8549 3.9049 4.0349 4.1149 4.2349 4.6549
2864.532 4.8849 4.9949 5.3749 5.9249 6.4049 6.8749 7.4649 8.0949 8.8249 9.6049
2883.822 10.1449 10.3849 10.6749 10.6549 10.2249 10.1649 10.3049 10.6249 11.2049 11.8149
2903.112 12.3349 12.6449 13.0249 13.4749 13.7449 14.0949 14.1849 14.0149 13.9749 13.8449
2922.401 13.6449 13.9649 14.6049 15.1649 16.0449 17.3349 18.8849 20.4749 22.6549 24.9949
2941.691 26.3549 27.1449 27.0649 26.0549 24.6949 23.2049 22.0649 21.3649 21.3849 22.1349
2960.981 22.9049 23.9349 25.3449 26.4849 27.7549 29.1749 30.4749 32.4349 35.5549 39.1949
2980.271 42.8349 45.7949 47.0449 46.2249 43.5749 40.0849 36.2049 32.4749 29.4549 26.7349
2999.561 24.5149 22.8049 21.2249 19.6949 18.1149 16.7349 15.6149 14.8449 14.0049 13.1949
3018.850 12.7449 12.4449 12.2849 12.1649 12.0949 12.4549 13.0949 13.8049 14.6549 15.6649
3038.140 16.6349 17.4549 18.2549 18.6749 18.6049 18.1349 17.9949 18.4249 18.9649 20.0849
3057.430 21.8449 23.8349 26.0749 28.4849 30.6249 32.2049 32.5749 31.4849 29.5749 27.0149
3076.720 24.0749 21.5549 19.6549 18.4149 17.5149 16.5249 15.5849 14.3349 13.1249 12.0049
3096.009 10.7049 9.5849 8.5349 7.3849 6.5349 5.5849 4.9149 4.3949 3.7049 3.4249
3115.299 2.9749 2.6149 2.5549 2.4949 2.3349 2.2549 2.3549 2.3449 2.1749 2.0349
3134.589 2.0749 2.2449 2.3649 2.2649 2.1749 2.2949 2.2249 2.3249 2.4249 2.2049
3153.879 2.3249 2.2449 2.0349 2.1449 2.4049 2.5049 2.1949 1.9149 1.8549 1.7649
3173.169 1.7349 1.7649 1.8549 1.9049 1.8649 1.9149 1.6749 1.6349 1.7149 1.6249
3192.458 1.5549 1.2749 1.1049 1.2749 1.3949 1.3949 1.1949 0.8403 0.7155 1.0187
3211.748 1.1549 1.0649 1.3249 1.4249 1.0503 0.6985 0.5765 0.7626 1.0949 1.1049
3231.038 1.0441 0.9989 1.1049 0.8403 0.523 0.5903 0.697 0.9647 0.8996 0.8274
3250.328 0.9879 0.8795 0.9759 1.033 0.6482 0.5951 0.7937 0.8853 0.8523 0.7862
3269.617 0.8966 0.838 0.7326 0.8611 0.8712 0.8024 0.7334 0.7576 0.6063 0.4392
3288.907 0.6591 0.6671 0.5147 0.5933 0.7121 0.7897 0.8325 0.868 0.985 0.9057
3308.197 0.6643 0.7275 0.7096 0.6397 0.645 0.3965 0.3945 0.4344 0.5991 0.6772
3327.487 0.6136 0.7049 0.6357 0.6504 0.7757 0.8696 0.8836 1.0528 1.1049 0.925
3346.777 0.8867 0.9986 1.2749 1.0849 0.9979 1.2249 1.3449 1.6149 1.6149 1.5449
3366.066 1.4949 1.3849 1.3549 1.1149 0.8337 1.1249 1.2649 0.9638 0.8546 0.8865
3385.356 0.8469 0.8645 0.9549 0.6999 0.5149 0.7892 1.1049 1.0949 1.0032 0.9675
3404.646 1.0083 1.1249 1.1449 1.1249 1.2249 1.5049 1.6049 1.3249 1.3149 1.3849
3423.936 1.3449 1.6049 1.9849 2.1249 2.1849 2.5249 2.7549 2.9149 3.0949 3.0949
3443.225 3.2549 3.8849 4.1149 3.9949 4.2149 4.3749 4.1849 4.2249 4.5949 4.6949
3462.515 4.9149 5.3949 5.9449 6.6849 7.3149 7.6449 8.2649 9.3749 10.7449 11.7949
3481.805 12.9749 14.8049 16.9149 19.0049 21.4049 24.6349 28.5649 33.1449 38.2749 44.1149
3501.095 50.5249 56.9049 62.9349 67.6749 70.4749 70.3849 67.0949 60.8049 52.7649 43.8049
3520.385 34.8149 27.1649 20.6549 15.9349 12.4749 9.8549 7.9049 6.6449 5.5149 4.7049
3539.674 4.5449 4.1949 3.8149 3.2649 3.1549 3.1249 2.7349 2.5549 2.3949 2.2049
3558.964 2.1149 1.9149 1.7149 1.3549 1.1349 1.4349 1.6749 1.3449 0.9203 0.8242
3578.254 0.8624 0.8959 0.6905 0.7929 1.041 0.63 0.5351 0.7877 0.7217 0.6278
3597.544 0.4631 0.3485 0.4002 0.5344 0.5954 0.5408 0.6154 0.5918 0.3903 0.279
3616.833 0.4058 0.7403 0.8235 0.5944 0.4754 0.5591 0.5709 0.4521 0.2611 0.2766
3636.123 0.5846 0.3851 0.11939 0.2195 0.3547 0.2354 0.0443 0.13539 0.16137 0.0447
3655.413 0.0964 0.4041 0.428 0.4805 0.4803 0.215 0.14985 0.1714 0.2243 0.3898
3674.703 0.1848 0.10785 0.4145 0.4399 0.3068 0.405 0.4669 0.2767 0.2485 0.1672
3693.993 0.12698 0.2971 0.3026 0.14111 0.0221 0.282 0.481 0.3541 0.4264 0.2477
3713.282 0.2022 0.3961 0.254 0.1842 0.16319 0 0.0533 0.3865 0.55 0.5713
3732.572 0.471 0.6095 0.8124 0.4803 0.4967 0.2429 0.08768 0.4215 0.2773 0.08408
3751.862 0.1843 0.3145 0.413 0.5176 0.3771 0.3231 0.383 0.3092 0.4343 0.5506
3771.152 0.5258 0.5715 0.5467 0.2801 0.1823 0.3419 0.3358 0.4434 0.5771 0.5481
3790.441 0.6319 0.736 0.7434 0.6774 0.6274 0.6056 0.4466 0.2394 0.3476 0.5803
3809.731 0.7121 0.8175 0.8063 0.7702 0.7037 0.7379 0.6993 0.5707 0.7064 0.6252
3829.021 0.4554 0.5627 0.4264 0.3023 0.4233 0.5761 0.7445 0.7585 0.7811 0.8342
3848.311 0.5871 0.4187 0.5415 0.4482 0.3671 0.4941 0.5194 0.5711 0.5247 0.3459
3867.601 0.4857 0.7069 0.7756 0.7817 0.481 0.4795 0.6935 0.6886 0.6344 0.5543
3886.890 0.6789 1.0173 1.0485 1.0569 0.7922 0.6116 0.8499 1.0116 1.0488 0.9147
3906.180 0.9146 0.877 0.9041 0.8849 0.7884 0.6621 0.803 0.7822 0.6508 0.7052
3925.470 0.3643 0.2424 0.4398 0.6884 0.6391 0.5119 0.6646 0.8362 0.5975 0.2705
3944.760 0.4423 0.4636 0.5542 0.6179 0.6047 0.6799 0.6208 0.6967 0.9324 1.0101
3964.049 0.7697 0.6328 0.6178 0.4654 0.3491 0.5096 0.6174 0.5189 0.5793 0.62
3983.339 0.7991 0.7135 0.5604 0.7252 0.6142 0.4538 0.4075 0.4897 0.3911 0.469
##END=
