##TITLE=2-Chloro-4-fluorobenzylamine
##JCAMP-DX=4.24
##DATA TYPE=INFRARED SPECTRUM
##ORIGIN=EPA-IR VAPOR PHASE LIBRARY
##OWNER=SRD/NIST
Collection (C) 2018 copyright by the U.S. Secretary of Commerce
on behalf of the United States of America. All rights reserved.
##CAS REGISTRY NO=15205-11-5
##MOLFORM=C 7 H 7 Cl F N
##$NIST SOURCE=MSDC-IR
##STATE=gas
##XUNITS=1/CM
##YUNITS=ABSORBANCE
##XFACTOR=1.
##YFACTOR=0.001
##DELTAX=1.929
##FIRSTX=549.8
##LASTX=4000.8
##FIRSTY=1.2889
##MAXX=4000.75
##MINX=549.766
##MAXY=0.015081
##MINY=0
##NPOINTS=1790
##XYDATA=(X++(Y..Y))
549.766 1.2889 1.371 1.381 1.3039 1.401 1.591 1.391 1.1125 1.0165 0.9784
569.056 1.1003 1.1642 1.3203 1.491 1.511 1.631 1.771 1.641 1.711 1.791
588.346 1.791 1.951 1.881 1.701 1.601 1.581 1.561 1.601 1.461 1.361
607.636 1.2986 1.1907 1.1395 1.1609 1.2698 1.2722 1.2814 1.2471 1.2062 1.2388
626.926 1.2475 1.2704 1.313 1.381 1.481 1.461 1.351 1.361 1.391 1.431
646.216 1.391 1.381 1.581 1.681 1.741 1.701 1.751 1.871 1.831 1.911
665.506 1.931 1.891 2.001 2.161 2.201 2.251 2.511 2.641 2.801 2.981
684.796 3.031 3.221 3.371 3.441 3.521 3.641 3.681 3.731 3.791 3.771
704.086 3.711 3.631 3.591 3.571 3.561 3.581 3.651 3.791 3.921 4.051
723.376 4.171 4.221 4.381 4.551 4.661 4.731 4.831 4.911 4.731 4.591
742.666 4.501 4.331 4.001 3.651 3.461 3.361 3.191 2.961 2.841 2.731
761.956 2.741 2.771 2.741 2.721 2.771 2.921 2.951 2.991 3.111 3.201
781.246 3.341 3.591 3.751 3.851 4.051 4.201 4.441 4.681 4.791 4.951
800.536 5.151 5.221 5.371 5.521 5.581 5.501 5.291 5.311 5.091 4.821
819.826 4.701 4.591 4.311 4.011 3.841 3.711 3.641 3.531 3.501 3.421
839.116 3.351 3.391 3.411 3.641 3.941 4.291 4.761 5.101 5.411 6.011
858.406 7.041 8.091 7.621 6.161 5.411 5.141 4.911 4.651 4.241 3.761
877.696 3.581 3.541 3.511 3.651 3.951 4.251 4.641 5.181 5.801 6.621
896.986 7.571 8.531 9.321 9.911 10.411 10.641 10.511 10.161 9.611 8.721
916.276 7.621 6.521 5.411 4.451 3.681 3.001 2.511 2.161 1.981 1.851
935.566 1.671 1.581 1.491 1.441 1.421 1.351 1.3304 1.3093 1.2807 1.2483
954.856 1.276 1.2903 1.2316 1.2064 1.1816 1.1882 1.1676 1.1732 1.1837 1.134
974.146 1.0659 1.081 1.104 1.0691 1.0548 1.0644 1.1189 1.1133 1.092 1.0873
993.436 1.0628 1.0386 1.1102 1.2536 1.2348 1.1884 1.2456 1.3134 1.351 1.351
1012.726 1.481 1.591 1.681 1.941 2.181 2.331 2.541 2.771 2.981 3.261
1032.016 3.511 3.791 3.981 4.081 4.271 4.361 4.371 4.251 4.101 3.991
1051.306 3.741 3.441 3.121 2.851 2.601 2.331 2.071 1.891 1.801 1.701
1070.596 1.561 1.451 1.481 1.401 1.1668 1.0806 1.0493 1.038 1.059 1.0756
1089.886 1.068 1.0838 1.1189 1.1071 1.1276 1.2001 1.2728 1.2486 1.2286 1.2038
1109.176 1.2251 1.371 1.401 1.351 1.3157 1.3085 1.2889 1.2428 1.2073 1.2105
1128.467 1.1609 1.1142 1.15 1.1336 1.1051 1.0902 1.1135 1.1158 1.1285 1.2161
1147.757 1.2071 1.2021 1.2705 1.1468 1.0935 1.1688 1.1139 1.1375 1.2769 1.3248
1167.047 1.381 1.451 1.511 1.601 1.741 1.771 1.801 1.851 1.821 1.911
1186.337 1.831 1.741 1.751 1.691 1.651 1.691 1.751 1.761 1.721 1.831
1205.627 2.151 2.531 2.891 3.371 4.011 4.721 5.571 6.441 7.341 8.221
1224.917 8.961 9.521 9.881 9.881 9.551 9.121 8.461 7.491 6.491 5.511
1244.207 4.721 4.221 3.971 4.021 4.241 4.601 4.991 5.411 5.781 5.971
1263.497 5.951 5.821 5.631 5.311 4.811 4.181 3.511 2.921 2.501 2.231
1282.787 2.051 1.901 1.771 1.731 1.731 1.681 1.561 1.431 1.3289 1.282
1302.077 1.2788 1.1716 1.1476 1.1858 1.1684 1.1108 1.0926 1.0882 1.042 1.0082
1321.367 0.9823 0.9655 0.9773 1.0678 1.1273 1.1241 1.1085 1.1124 1.0932 1.1069
1340.657 1.1375 1.209 1.2972 1.2815 1.3061 1.401 1.461 1.491 1.521 1.571
1359.947 1.621 1.651 1.721 1.841 1.951 2.011 2.101 2.181 2.261 2.361
1379.237 2.451 2.521 2.551 2.591 2.671 2.781 2.811 2.821 2.871 2.851
1398.527 2.771 2.661 2.531 2.401 2.271 2.101 1.911 1.751 1.601 1.491
1417.817 1.411 1.351 1.381 1.401 1.381 1.441 1.491 1.561 1.671 1.801
1437.107 1.961 2.051 2.181 2.331 2.461 2.581 2.671 2.751 2.851 2.861
1456.397 2.841 2.911 2.941 2.991 3.061 3.201 3.361 3.631 4.131 4.831
1475.687 5.811 7.111 8.671 10.481 12.311 13.791 14.671 15.081 15.061 14.511
1494.977 13.511 12.151 10.391 8.181 6.071 4.341 3.121 2.521 2.161 1.901
1514.267 1.791 1.741 1.691 1.631 1.611 1.611 1.581 1.581 1.571 1.551
1533.557 1.531 1.531 1.451 1.371 1.371 1.391 1.471 1.501 1.501 1.571
1552.847 1.661 1.751 1.811 1.971 2.271 2.591 2.901 3.241 3.581 3.971
1572.137 4.451 4.881 5.301 5.751 6.211 6.651 7.141 7.641 8.081 8.591
1591.427 9.131 9.691 10.311 10.921 11.391 11.611 11.571 11.251 10.721 9.961
1610.717 9.031 8.071 7.141 6.161 5.311 4.661 4.101 3.651 3.311 3.071
1630.007 2.831 2.571 2.371 2.131 1.981 1.931 1.841 1.721 1.561 1.401
1649.297 1.331 1.2311 1.1001 1.0964 1.0448 0.9997 0.9695 0.9231 0.8777 0.8319
1668.587 0.8234 0.8451 0.8398 0.7869 0.7765 0.8118 0.8486 0.8308 0.7509 0.7626
1687.877 0.7934 0.7528 0.7695 0.7848 0.7165 0.6948 0.6665 0.6688 0.7411 0.7684
1707.167 0.8006 0.8458 0.8675 0.8748 0.8705 0.8388 0.832 0.8668 0.8662 0.8838
1726.457 0.8458 0.7773 0.7904 0.7592 0.69 0.6894 0.6812 0.6845 0.699 0.6545
1745.747 0.6527 0.6659 0.6471 0.6573 0.6807 0.6448 0.6028 0.579 0.608 0.6256
1765.037 0.5735 0.5806 0.6119 0.5878 0.5799 0.6089 0.605 0.545 0.497 0.5095
1784.327 0.5313 0.5496 0.5716 0.5076 0.509 0.5496 0.5127 0.4901 0.5162 0.5865
1803.617 0.5803 0.5718 0.5486 0.529 0.5211 0.4805 0.4413 0.4869 0.5283 0.4945
1822.907 0.4972 0.5184 0.4979 0.4713 0.4916 0.4809 0.4635 0.4997 0.498 0.436
1842.197 0.4336 0.4523 0.4793 0.4877 0.475 0.481 0.487 0.51 0.5296 0.5303
1861.487 0.5718 0.6108 0.6301 0.6425 0.6438 0.6731 0.708 0.7267 0.7155 0.7044
1880.777 0.673 0.635 0.6286 0.6494 0.6261 0.5701 0.5303 0.508 0.5579 0.5214
1900.067 0.474 0.5168 0.5078 0.5175 0.5495 0.5201 0.5056 0.5225 0.5374 0.5159
1919.357 0.4574 0.4316 0.4558 0.4976 0.5139 0.516 0.496 0.4676 0.4822 0.5036
1938.647 0.5023 0.5033 0.4777 0.4865 0.5012 0.4875 0.4928 0.4919 0.4478 0.4465
1957.937 0.4758 0.471 0.4376 0.4491 0.4439 0.40752 0.41072 0.39841 0.38888 0.39043
1977.227 0.42602 0.4331 0.41576 0.443 0.4694 0.4605 0.42069 0.42794 0.452 0.4488
1996.517 0.38322 0.334698 0.39285 0.41178 0.40378 0.38799 0.36826 0.3514 0.3239 0.35724
2015.807 0.38496 0.35189 0.34617 0.34935 0.36145 0.39334 0.35446 0.32519 0.35576 0.338839
2035.097 0.34708 0.40947 0.4496 0.42265 0.40852 0.40516 0.36815 0.36103 0.38472 0.4331
2054.387 0.4558 0.4541 0.42241 0.4342 0.4632 0.4368 0.40179 0.3885 0.41033 0.4321
2073.677 0.4746 0.4581 0.40932 0.42434 0.4673 0.4817 0.4555 0.4474 0.4689 0.4387
2092.967 0.38836 0.42538 0.4465 0.4331 0.42497 0.41093 0.39415 0.38975 0.39535 0.38385
2112.257 0.38551 0.3905 0.41648 0.432 0.40371 0.36729 0.36253 0.38805 0.4533 0.4699
2131.547 0.42438 0.4439 0.4629 0.4343 0.40512 0.38298 0.384 0.42115 0.4485 0.4492
2150.837 0.437 0.42644 0.41315 0.40856 0.39917 0.34444 0.34257 0.40307 0.4393 0.4368
2170.127 0.4063 0.41301 0.39915 0.340054 0.36539 0.39719 0.40671 0.40183 0.35961 0.32295
2189.417 0.2969 0.3019 0.338217 0.36061 0.34877 0.34347 0.34154 0.330181 0.336474 0.40272
2208.707 0.38911 0.37651 0.37345 0.34312 0.35084 0.35977 0.3268 0.302 0.3105 0.3128
2227.997 0.3111 0.305 0.3075 0.331688 0.35723 0.3193 0.339368 0.32666 0.3021 0.35996
2247.287 0.38393 0.35583 0.338958 0.34023 0.36262 0.38547 0.32897 0.3161 0.38012 0.39182
2266.577 0.37007 0.34479 0.35389 0.41081 0.40731 0.39163 0.3786 0.38223 0.429 0.4338
2285.868 0.4552 0.4442 0.39518 0.39216 0.40016 0.39836 0.39525 0.39604 0.42537 0.38806
2305.158 0.307 0.274 0.2586 0.2864 0.3128 0.32827 0.3101 0.337883 0.38452 0.338713
2324.448 0.3087 0.330251 0.32482 0.259 0.224 0.2582 0.2708 0.227 0.204 0.2368
2343.738 0.2535 0.2764 0.2809 0.2506 0.2567 0.2864 0.2894 0.23 0.2509 0.3069
2363.028 0.3109 0.3108 0.3065 0.3018 0.31 0.35539 0.34713 0.3041 0.3007 0.330555
2382.318 0.35827 0.3282 0.3098 0.335449 0.3174 0.3032 0.37618 0.38553 0.36658 0.37117
2401.608 0.36188 0.34262 0.2662 0.2629 0.32462 0.3037 0.2595 0.332836 0.40385 0.34414
2420.898 0.2827 0.2724 0.3175 0.3161 0.2736 0.2814 0.2885 0.2609 0.2845 0.333604
2440.188 0.340342 0.331295 0.305 0.3053 0.3184 0.3161 0.3084 0.2872 0.2875 0.3261
2459.478 0.36037 0.336325 0.3208 0.337745 0.3152 0.333704 0.32791 0.336004 0.32101 0.3044
2478.768 0.38875 0.38029 0.34879 0.38116 0.4285 0.43 0.41449 0.40813 0.38256 0.3195
2498.058 0.3172 0.38644 0.36353 0.2994 0.2973 0.337996 0.332835 0.2992 0.2869 0.32733
2517.348 0.38159 0.39133 0.34969 0.32711 0.2975 0.2614 0.3153 0.36202 0.2843 0.292
2536.638 0.34704 0.3169 0.2825 0.3112 0.336989 0.34972 0.35918 0.2724 0.2573 0.2834
2555.928 0.2913 0.2499 0.215 0.272 0.2994 0.217 0.17 0.222 0.2613 0.2443
2575.218 0.2389 0.2838 0.203 0.187 0.2327 0.2353 0.2858 0.3133 0.3019 0.2749
2594.508 0.2561 0.3092 0.330032 0.2868 0.306 0.32454 0.2875 0.219 0.22 0.2395
2613.798 0.216 0.214 0.2337 0.2723 0.3014 0.2768 0.2571 0.2767 0.2719 0.21
2633.088 0.208 0.2543 0.2384 0.2443 0.2941 0.2756 0.2749 0.2933 0.308 0.2392
2652.378 0.183 0.2444 0.296 0.35267 0.35606 0.34295 0.2979 0.2498 0.2376 0.2342
2671.668 0.238 0.2453 0.2629 0.2702 0.221 0.246 0.3164 0.3135 0.334377 0.2856
2690.958 0.2415 0.251 0.268 0.3041 0.32458 0.2895 0.2639 0.2693 0.2543 0.2597
2710.248 0.21 0.222 0.301 0.2339 0.131 0.18 0.2586 0.3046 0.32327 0.3154
2729.538 0.35037 0.3168 0.2469 0.2414 0.2575 0.2795 0.2731 0.2642 0.2761 0.2324
2748.828 0.2436 0.3277 0.3056 0.2338 0.2457 0.331424 0.3098 0.2649 0.2442 0.2473
2768.118 0.32444 0.3078 0.32263 0.2923 0.2492 0.3171 0.3169 0.2553 0.3066 0.34595
2787.408 0.2519 0.2411 0.3151 0.3243 0.2553 0.2426 0.2899 0.3204 0.32802 0.336643
2806.698 0.37238 0.39322 0.39515 0.41904 0.41295 0.34158 0.286 0.3123 0.338694 0.38136
2825.988 0.40338 0.41424 0.4403 0.4877 0.5303 0.5183 0.5768 0.649 0.6462 0.5889
2845.278 0.687 0.7948 0.7667 0.8051 0.836 0.8494 0.9362 1.001 1.0249 1.1207
2864.568 1.2375 1.3112 1.361 1.391 1.471 1.521 1.511 1.531 1.581 1.521
2883.858 1.471 1.441 1.371 1.351 1.341 1.2937 1.2761 1.2981 1.2461 1.1932
2903.148 1.2013 1.1537 1.184 1.201 1.2161 1.341 1.351 1.331 1.381 1.511
2922.438 1.591 1.561 1.501 1.541 1.571 1.591 1.621 1.641 1.731 1.751
2941.728 1.731 1.731 1.731 1.731 1.621 1.601 1.641 1.551 1.471 1.391
2961.018 1.275 1.2228 1.1761 1.0526 0.9868 0.9556 0.788 0.6349 0.6217 0.6092
2980.308 0.5544 0.5121 0.5046 0.444 0.39286 0.38641 0.35079 0.3103 0.206 0.189
2999.598 0.2561 0.228 0.229 0.3013 0.3187 0.2702 0.293 0.333865 0.330093 0.39006
3018.888 0.42961 0.41214 0.40876 0.35709 0.39609 0.5632 0.6091 0.6203 0.5901 0.6004
3038.178 0.6026 0.5409 0.493 0.4815 0.6062 0.6426 0.6074 0.6018 0.4535 0.42995
3057.468 0.5415 0.5303 0.54 0.5054 0.4671 0.4406 0.4911 0.5566 0.5406 0.5496
3076.758 0.5744 0.6269 0.6602 0.6991 0.6639 0.5969 0.5431 0.5564 0.5902 0.5067
3096.048 0.4686 0.42674 0.35013 0.3599 0.37418 0.2922 0.225 0.186 0.198 0.2541
3115.338 0.12 0.099 0.2765 0.34134 0.2618 0.141 0.142 0.176 0.222 0.2638
3134.628 0.2483 0.208 0.127 0.159 0.2705 0.2805 0.2462 0.2384 0.2334 0.172
3153.918 0.2371 0.3112 0.3144 0.34502 0.2709 0.202 0.126 0.074 0.068 0.125
3173.208 0.187 0.187 0.2642 0.2526 0.2325 0.25 0.18 0.2384 0.32419 0.3031
3192.498 0.2972 0.2854 0.2978 0.3187 0.224 0.166 0.278 0.330836 0.19 0.11
3211.788 0.191 0.192 0.2321 0.3072 0.2958 0.2712 0.2445 0.226 0.178 0.216
3231.078 0.163 0.105 0.154 0.2508 0.3007 0.199 0.204 0.239 0.191 0.153
3250.368 0.172 0.2829 0.3047 0.2736 0.2924 0.199 0.138 0.17 0.15 0.166
3269.658 0.2533 0.186 0.154 0.193 0.177 0.207 0.2369 0.2612 0.2461 0.215
3288.948 0.172 0.203 0.2423 0.3111 0.38734 0.2389 0.179 0.23 0.218 0.2926
3308.238 0.3032 0.225 0.206 0.2561 0.34452 0.333312 0.2545 0.2414 0.2427 0.2889
3327.528 0.274 0.163 0.193 0.174 0.23 0.283 0.231 0.2789 0.39473 0.41628
3346.818 0.36766 0.4343 0.40107 0.41198 0.42722 0.2887 0.305 0.37013 0.34145 0.40777
3366.108 0.4941 0.4533 0.34681 0.2614 0.2712 0.2563 0.2551 0.2499 0.212 0.2978
3385.398 0.39369 0.2347 0.22 0.35536 0.2866 0.3141 0.3098 0.2666 0.3452 0.3528
3404.688 0.34128 0.32639 0.2978 0.40919 0.42646 0.41543 0.4873 0.4703 0.42663 0.4028
3423.978 0.35315 0.37062 0.40321 0.37668 0.40145 0.43035 0.332899 0.2369 0.2677 0.208
3443.269 0.213 0.2898 0.34897 0.36758 0.3 0.36465 0.38918 0.3046 0.2433 0.37235
3462.559 0.5041 0.3131 0.2346 0.34947 0.41116 0.40207 0.3167 0.3159 0.2353 0.202
3481.849 0.2798 0.2779 0.32328 0.40596 0.336387 0.219 0.2572 0.2889 0.3133 0.2391
3501.139 0.2918 0.37852 0.363 0.333589 0.2762 0.19 0.155 0.176 0.157 0.119
3520.429 0.017 0.08 0.179 0.136 0.175 0.3208 0.37242 0.3161 0.3025 0.36196
3539.719 0.38808 0.335536 0.2747 0.3165 0.34919 0.34252 0.32765 0.3181 0.3079 0.2766
3559.009 0.227 0.2436 0.34111 0.37697 0.36299 0.3168 0.266 0.32144 0.3039 0.209
3578.299 0.2391 0.2685 0.2684 0.2375 0.2566 0.2797 0.227 0.2455 0.2917 0.2834
3597.589 0.2547 0.165 0.182 0.17 0.115 0.156 0.16 0.3061 0.3861 0.40672
3616.879 0.35865 0.3152 0.2935 0.2432 0.35146 0.318 0.229 0.213 0.208 0.2903
3636.169 0.2903 0.2679 0.32535 0.223 0.136 0.3072 0.41507 0.2789 0.2443 0.185
3655.459 0.062 0.072 0.186 0.40025 0.4336 0.2985 0.115 0.085 0.145 0.109
3674.749 0.014 0.074 0.2584 0.196 0.143 0.201 0.201 0.186 0.249 0.2966
3694.039 0.2539 0.2803 0.33021 0.3012 0.2761 0.203 0.152 0.2 0.205 0.106
3713.329 0.164 0.32 0.34791 0.283 0.229 0.2812 0.3056 0.34976 0.243 0.13
3732.619 0.158 0.2567 0.37877 0.39295 0.2604 0.143 0.144 0.113 0.087 0.11
3751.909 0.197 0.36902 0.38625 0.3013 0.274 0.2336 0.15 0.121 0.158 0.226
3771.199 0.2572 0.2401 0.3172 0.2674 0.204 0.2989 0.251 0.254 0.3198 0.231
3790.489 0.229 0.2493 0.2562 0.2844 0.2461 0.182 0.21 0.2771 0.2429 0.2424
3809.779 0.223 0.167 0.189 0.118 0.125 0.2459 0.2494 0.3011 0.2743 0.189
3829.069 0.186 0.193 0.2563 0.185 0.164 0.231 0.182 0.2 0.3183 0.34624
3848.359 0.2681 0.174 0.149 0.198 0.2449 0.2427 0.169 0.212 0.284 0.2703
3867.649 0.207 0.158 0.176 0.142 0.145 0.156 0.016 0.015 0.2558 0.252
3886.939 0.107 0.058 0.108 0.168 0.008 0.057 0.2445 0.3035 0.340803 0.19
3906.229 0.095 0.164 0.116 0.18 0.2478 0.034 0.045 0.182 0.2351 0.2338
3925.519 0.04 0 0.099 0.164 0.198 0.2699 0.3567 0.2991 0.38516 0.38721
3944.809 0.3087 0.35639 0.2861 0.2517 0.339045 0.186 0.068 0.2629 0.36719 0.39287
3964.099 0.36901 0.2523 0.2922 0.34228 0.337135 0.38846 0.35062 0.195 0.159 0.212
3983.389 0.117 0.193 0.184 0.12 0.132 0.073 0.08 0.137 0.2533 0.172
##END=
