##TITLE=1,1,2-Triphenylethane
##JCAMP-DX=4.24
##DATA TYPE=INFRARED SPECTRUM
##ORIGIN=NIST Mass Spectrometry Data Center
##OWNER=NIST Standard Reference Data Program
Collection (C) 2018 copyright by the U.S. Secretary of Commerce
on behalf of the United States of America. All rights reserved.
##CAS REGISTRY NO=1520-42-9
##MOLFORM=C 20 H 18
##$NIST SOURCE=MSDC-IR
##SPECTROMETER/DATA SYSTEM=HP-GC/MS/IRD
##STATE=gas
##XUNITS=1/CM
##YUNITS=ABSORBANCE
##XFACTOR=1.0
##YFACTOR=0.000001900
##DELTAX=4.0
##FIRSTX=550.0
##LASTX=3846.0
##FIRSTY=0.001902
##MAXX=3846
##MINX=550
##MAXY=0.019
##MINY=0
##NPOINTS=825
##XYDATA=(X++(Y..Y))
550.0 1001 1804 2221 2326 1656 1018 707 587 594 713
590.0 755 656 453 282 264 280 287 299 295 333
630.0 428 553 661 612 514 500 553 670 855 1106
670.0 1388 1689 2030 2579 3742 5950 8727 10000 8739 6292
710.0 4293 3218 2803 2844 3054 3154 3159 3281 3597 3718
750.0 3257 2450 1762 1336 1085 951 935 992 1037 973
790.0 767 563 454 355 290 273 221 170 128 110
830.0 111 89 73 35 13 54 73 71 75 67
870.0 68 79 94 112 131 138 144 191 261 302
910.0 307 279 220 185 155 134 154 203 261 289
950.0 308 290 235 184 137 126 129 115 109 119
990.0 113 126 175 210 264 288 329 431 646 1071
1030.0 1354 1219 750 328 197 192 257 392 554 686
1070.0 759 713 562 424 314 242 208 214 221 193
1110.0 150 101 75 89 121 129 116 126 141 165
1150.0 200 191 200 227 245 265 287 332 370 371
1190.0 357 328 289 267 259 238 224 220 196 217
1230.0 259 270 265 225 181 166 165 172 175 171
1270.0 181 189 195 204 214 231 253 280 302 314
1310.0 318 315 327 353 365 363 340 296 286 290
1350.0 276 265 247 228 240 249 256 248 222 202
1390.0 179 152 146 162 172 186 190 202 262 333
1430.0 419 552 792 1180 1625 1893 1729 1263 879 679
1470.0 622 636 763 1113 1813 2979 4036 3952 2708 1342
1510.0 621 404 303 262 272 273 260 227 196 187
1550.0 189 202 221 280 333 389 501 709 974 1281
1590.0 1607 1946 2239 2248 1845 1233 722 435 300 230
1630.0 197 177 164 151 152 160 155 151 153 138
1670.0 123 117 99 92 91 103 106 98 111 107
1710.0 100 96 100 140 169 175 192 208 195 185
1750.0 165 147 148 150 151 175 222 274 336 439
1790.0 544 575 500 373 299 255 218 194 177 145
1830.0 123 135 151 149 157 200 257 289 313 324
1870.0 333 354 341 302 259 214 171 144 132 127
1910.0 143 165 196 239 314 416 501 523 494 479
1950.0 489 452 336 204 119 87 66 59 62 47
1990.0 37 42 45 38 24 31 36 36 39 29
2030.0 22 24 27 30 33 20 8 12 20 19
2070.0 21 18 17 19 21 23 17 22 33 27
2110.0 21 28 28 20 10 14 19 27 28 22
2150.0 24 25 27 22 19 32 40 34 33 26
2190.0 24 30 30 24 20 22 21 33 47 39
2230.0 29 27 20 18 21 32 45 43 44 48
2270.0 40 36 32 27 28 32 43 59 51 52
2310.0 68 68 67 65 56 51 67 70 48 50
2350.0 65 58 44 34 33 24 22 38 38 35
2390.0 45 52 42 41 66 67 53 54 52 41
2430.0 55 71 56 43 47 48 43 43 41 33
2470.0 28 38 45 39 35 36 46 41 27 32
2510.0 44 59 63 53 50 45 37 38 45 53
2550.0 53 50 39 28 36 47 55 72 77 74
2590.0 77 78 70 72 78 86 88 80 66 64
2630.0 65 56 52 43 44 56 58 52 45 41
2670.0 38 35 29 38 56 54 44 31 22 22
2710.0 23 22 27 26 30 36 32 25 11 23
2750.0 47 62 59 63 78 69 65 92 105 94
2790.0 84 85 91 74 60 80 112 116 110 101
2830.0 104 133 158 177 213 270 341 453 561 625
2870.0 614 534 494 483 505 583 700 815 864 867
2910.0 876 918 1012 1160 1351 1490 1591 1674 1695 1590
2950.0 1317 971 695 515 414 349 315 319 357 402
2990.0 456 544 681 886 1087 1317 1666 2282 3288 4552
3030.0 5604 5828 5112 4081 3358 3059 3138 3696 4859 6323
3070.0 7041 6323 4873 3898 3540 3218 2720 2215 1828 1537
3110.0 1307 1007 701 477 332 282 249 196 180 197
3150.0 184 171 186 188 188 169 121 81 96 111
3190.0 86 74 85 85 76 56 25 26 35 31
3230.0 8 9 27 31 46 53 49 45 37 45
3270.0 65 62 34 43 55 45 55 54 35 38
3310.0 26 47 59 46 40 41 48 50 62 44
3350.0 33 54 35 16 25 32 50 50 42 48
3390.0 47 21 7 41 56 31 21 28 27 41
3430.0 52 42 45 41 29 20 19 32 31 31
3470.0 29 17 0 12 51 63 53 47 31 26
3510.0 23 12 53 69 49 45 36 51 50 45
3550.0 53 50 51 35 8 29 48 52 57 24
3590.0 24 75 80 71 57 17 15 24 40 59
3630.0 69 72 70 101 104 92 101 96 86 96
3670.0 95 70 62 70 74 73 66 94 106 87
3710.0 73 76 111 103 52 16 35 80 80 56
3750.0 69 84 92 124 110 85 60 31 47 70
3790.0 70 63 76 96 111 107 101 105 97 74
3830.0 73 78 72 84 75
##END=
