##TITLE=2-Methanesulphonylethanol
##JCAMP-DX=4.24
##DATA TYPE=INFRARED SPECTRUM
##ORIGIN=EPA-IR VAPOR PHASE LIBRARY
##OWNER=SRD/NIST
Collection (C) 2018 copyright by the U.S. Secretary of Commerce
on behalf of the United States of America. All rights reserved.
##CAS REGISTRY NO=15205-66-0
##MOLFORM=C 3 H 8 O 3 S
##$NIST SOURCE=MSDC-IR
##STATE=gas
##XUNITS=1/CM
##YUNITS=ABSORBANCE
##XFACTOR=1.
##YFACTOR=0.001
##DELTAX=1.92898
##FIRSTX=549.8
##LASTX=4000.7
##FIRSTY=8.58
##MAXX=4000.7
##MINX=549.759
##MAXY=0.23922
##MINY=0.0001244
##NPOINTS=1790
##XYDATA=(X++(Y..Y))
549.759 8.58 7.58 6.59 6.07 5.48 5.04 4.73 4.3 4.38 4.41
569.049 4.49 4.12 3.73 3.64 3.51 3.59 3.58 3.22 3.09 3.14
588.339 3.1 3.25 3.05 2.88 3 3.2 3.12 2.96 3.09 3.06
607.628 2.94 3.07 3.22 3.49 3.7 3.86 3.92 3.88 4.02 4.24
626.918 4.78 5.21 5.47 5.62 6.25 7.01 7.4 8.07 8.9 9.71
646.208 10.52 11.25 11.82 12.56 12.99 12.93 12.91 12.76 12.57 12.25
665.498 11.57 10.86 10.02 9.02 8.11 7.34 6.72 6.08 5.42 5.13
684.787 5.16 5.02 4.86 4.88 5.02 5.19 5.23 5.43 5.86 6.21
704.077 6.65 7.28 7.95 8.89 10.14 11.51 13.05 14.79 16.79 18.96
723.367 21.2 23.72 25.96 28.11 30.43 32.46 34.42 35.92 36.89 37.75
742.657 38.08 37.78 37.25 36.1 34.31 32.49 30.46 27.94 25.48 23.17
761.947 21.02 18.78 16.8 15.19 13.34 11.68 10.47 9.45 8.73 8.42
781.236 8.11 8 7.95 7.95 8.2 8.57 8.43 8.15 8.28 8.37
800.526 8.48 8.49 8.49 8.55 8.32 8.07 7.98 7.85 8.05 8.36
819.816 8.54 8.8 9.31 10.21 10.89 11.42 12.16 12.65 12.97 13.31
839.106 13.59 13.73 13.64 13.27 12.88 12.53 12 11.08 10.22 9.29
858.395 7.99 7.07 6.81 6.35 5.91 5.67 5.37 5.31 5.29 5.47
877.685 5.55 5.5 5.61 5.56 5.51 5.78 6.12 6.19 6.15 6.35
896.975 6.8 7.22 7.61 8.18 8.66 8.96 9.41 9.84 10.27 10.72
916.265 11.29 11.84 12.33 12.68 13.09 13.79 14.52 15.43 16.41 17.94
935.555 19.98 22.36 25.17 28.39 31.93 35.43 38.87 41.89 44.12 45.62
954.844 46.86 48.11 48.54 47.72 45.94 43.36 40.58 37.42 33.63 29.69
974.134 26.02 22.59 19.52 17.31 15.83 14.48 13.49 13.12 13.04 12.96
993.424 12.97 13.21 13.45 14.11 15.04 15.63 16.48 17.58 18.76 20.07
1012.714 21.53 22.84 24.39 26.16 28.04 30.51 32.81 35.49 38.89 41.69
1032.003 44.66 48.04 50.85 53.24 56.09 59.05 61.58 64.33 66.33 67.25
1051.293 67.44 67.29 66.47 65.82 64.77 62.85 61.01 58.62 55.81 52.4
1070.583 48.48 44.76 41.06 37.03 33.31 30.08 26.66 23.65 21.03 18.9
1089.873 17.35 16.05 15.07 14.45 14.62 14.48 14.42 15.39 16.4 17.72
1109.163 20.07 23.24 26.65 30.93 36.59 42.48 49.27 57.07 65.54 74.69
1128.452 83.92 92.77 101.55 109.67 117.62 124.84 130.13 133.71 135.77 137.11
1147.742 136.32 133.21 128.45 122.83 117.34 111.08 103.27 95.64 88.38 81
1167.032 74.13 67.92 62.12 56.83 52.83 49.25 45.72 42.91 40.7 38.28
1186.322 36.17 34.55 32.86 31.51 29.62 27.73 26.48 24.87 23.07 21.26
1205.611 20.36 19.66 18.56 17.72 16.68 15.85 15.27 15.43 15.8 15.84
1224.901 15.21 15.35 15.62 15.56 15.8 16.06 16.15 15.93 16.06 16.16
1244.191 16.48 16.58 16.42 16.17 16.17 16.46 16.51 16.41 16.54 17
1263.481 17.04 17.02 17.47 17.96 18.35 18.68 19.28 20.04 20.75 21.67
1282.771 22.43 23.21 24.32 25.45 26.8 28.45 30.21 32.28 34.77 37.93
1302.060 41.79 46.29 51.46 57.63 65.02 73.43 83.08 94.23 106.95 121.04
1321.350 135.95 150.97 166.15 181.16 195.14 207.59 218.2 227.1 234.03 238.24
1340.640 239.22 236.74 229.85 218.45 204.51 189.59 173.65 156.61 139 121.66
1359.930 105.45 90.8 77.81 66.56 57.07 49.52 43.61 38.92 35.36 32.67
1379.219 30.77 29.62 28.96 28.65 28.64 28.81 29.1 29.55 30.13 30.66
1398.509 31.1 31.35 31.33 31.16 30.8 30.21 29.43 28.46 27.37 26.19
1417.799 24.92 23.43 21.83 20.19 18.46 16.66 14.9 13.47 12.27 11.14
1437.089 10.03 9.09 8.35 7.56 6.88 6.38 5.91 5.57 5.33 5.22
1456.378 5.21 5.29 5.37 5.48 5.58 5.6 5.58 5.62 5.74 5.63
1475.668 5.44 5.37 5.25 5.09 4.86 4.59 4.27 3.89 3.57 3.3
1494.958 3.03 2.77 2.54 2.39 2.31 2.28 2.23 2.1 1.94 1.82
1514.248 1.76 1.71 1.64 1.63 1.68 1.72 1.71 1.63 1.57 1.52
1533.538 1.35 1.3 1.43 1.36 1.22 1.27 1.28 1.21 1.27 1.28
1552.827 1.22 1.24 1.34 1.34 1.28 1.25 1.28 1.26 1.19 1.26
1572.117 1.27 1.28 1.31 1.24 1.24 1.2 1.1 1.07 1.09 1.11
1591.407 1.15 1.11 1.06 1.1 1.13 1.06 0.9866 1.09 1.04 0.915
1610.697 0.9694 0.9392 0.8905 0.8885 0.8517 0.8352 0.765 0.7432 0.7 0.7132
1629.986 0.6899 0.5902 0.6175 0.6143 0.5444 0.5546 0.5515 0.4475 0.4276 0.4496
1649.276 0.4278 0.47 0.5077 0.5054 0.5048 0.5035 0.5163 0.4922 0.5146 0.5158
1668.566 0.4689 0.4009 0.3685 0.4287 0.4277 0.3933 0.3984 0.3969 0.463 0.4755
1687.856 0.4476 0.376 0.3064 0.3442 0.3976 0.4512 0.424 0.3734 0.3312 0.287
1707.146 0.2675 0.3034 0.3389 0.3214 0.3058 0.266 0.2573 0.2643 0.2034 0.1846
1726.435 0.1633 0.2033 0.2508 0.2435 0.2166 0.2113 0.2242 0.1897 0.1747 0.1356
1745.725 0.1244 0.1278 0.1879 0.2307 0.1784 0.1463 0.1629 0.1885 0.2068 0.2598
1765.015 0.2442 0.2154 0.2642 0.2826 0.2386 0.2506 0.2743 0.1995 0.2192 0.2506
1784.305 0.2296 0.234 0.262 0.2906 0.2651 0.2633 0.2869 0.2857 0.2767 0.2448
1803.594 0.2632 0.3026 0.2733 0.2913 0.2792 0.2205 0.2222 0.2217 0.19 0.2333
1822.884 0.311 0.2332 0.1502 0.1596 0.2458 0.3469 0.3564 0.3328 0.3541 0.3638
1842.174 0.3095 0.2864 0.2456 0.258 0.3253 0.4096 0.4579 0.4342 0.4487 0.4685
1861.464 0.4712 0.4411 0.4453 0.552 0.6171 0.5802 0.5416 0.5854 0.6312 0.6513
1880.754 0.7202 0.7035 0.7135 0.7634 0.7812 0.8769 0.9468 0.8831 0.7928 0.855
1900.043 0.9146 0.8974 0.9156 0.8768 0.7734 0.7518 0.7356 0.7114 0.7206 0.6942
1919.333 0.6942 0.6938 0.6768 0.6587 0.6726 0.6992 0.6535 0.593 0.6052 0.6814
1938.623 0.6947 0.727 0.7172 0.6319 0.6613 0.7509 0.7425 0.7385 0.76 0.7427
1957.913 0.7156 0.7406 0.7432 0.7164 0.68 0.6748 0.7453 0.7506 0.7858 0.7622
1977.202 0.7452 0.7526 0.7145 0.7418 0.772 0.7364 0.6539 0.6061 0.6457 0.6677
1996.492 0.6825 0.7406 0.7379 0.6936 0.7081 0.7056 0.6879 0.709 0.7392 0.7113
2015.782 0.6705 0.6207 0.5386 0.5975 0.6877 0.7686 0.7709 0.683 0.6966 0.78
2035.072 0.8224 0.846 0.8739 0.9113 0.9844 1.04 1.02 1.07 1.15 1.19
2054.362 1.26 1.29 1.27 1.31 1.39 1.39 1.36 1.33 1.26 1.19
2073.651 1.25 1.29 1.2 1.19 1.21 1.2 1.15 1.12 1.06 0.9921
2092.941 1.04 1.12 1.11 1.09 1.1 1.06 1 0.9693 0.9934 0.9249
2112.231 0.8853 0.9301 0.8745 0.8439 0.8465 0.8651 0.8013 0.6836 0.6847 0.7034
2131.521 0.7533 0.7675 0.6499 0.6097 0.6602 0.6414 0.5793 0.5364 0.5594 0.5436
2150.810 0.5585 0.6122 0.6249 0.5795 0.5331 0.474 0.4712 0.5509 0.5469 0.5195
2170.100 0.4945 0.4492 0.4471 0.5366 0.5636 0.5186 0.5616 0.556 0.5368 0.5625
2189.390 0.5455 0.5289 0.5395 0.5458 0.5519 0.6117 0.6499 0.6475 0.6191 0.5698
2208.680 0.5743 0.6142 0.6131 0.6247 0.6719 0.7145 0.6842 0.6831 0.7731 0.7289
2227.970 0.7238 0.8484 0.8737 0.8316 0.8408 0.8017 0.758 0.8076 0.8095 0.8081
2247.259 0.8729 0.9272 1.04 1.04 1.01 1.09 1.13 1.18 1.32 1.4
2266.549 1.4 1.4 1.37 1.36 1.47 1.56 1.52 1.42 1.36 1.35
2285.839 1.33 1.37 1.32 1.25 1.3 1.33 1.18 1.07 1.08 1.07
2305.129 1.01 0.99 0.9851 0.9133 0.9691 0.95 0.8302 0.8155 0.8689 0.8846
2324.418 0.8491 0.8519 0.7815 0.7514 0.7789 0.8209 0.8709 0.8498 0.8688 0.862
2343.708 0.8362 0.839 0.8377 0.8437 0.8732 0.9269 0.934 0.9144 0.8786 0.8383
2362.998 0.7934 0.8168 0.9053 0.9241 0.8945 0.7745 0.7391 0.7912 0.8505 0.8278
2382.288 0.7274 0.7732 0.7227 0.6935 0.7634 0.7267 0.6833 0.6833 0.6959 0.7487
2401.578 0.7481 0.6697 0.7192 0.7925 0.807 0.8012 0.7392 0.7808 0.8559 0.8631
2420.867 0.8699 0.9345 0.957 0.9698 0.941 0.8624 0.957 1.02 0.9959 1.03
2440.157 1.04 1.03 1.13 1.26 1.3 1.29 1.32 1.46 1.5 1.51
2459.447 1.57 1.57 1.62 1.66 1.61 1.61 1.73 1.82 1.83 1.84
2478.737 1.79 1.63 1.55 1.56 1.5 1.41 1.36 1.35 1.26 1.08
2498.026 1.04 1.03 0.9772 0.9727 0.8659 0.812 0.8473 0.8217 0.722 0.6439
2517.316 0.6186 0.6175 0.6111 0.6367 0.6459 0.5846 0.5113 0.5476 0.5545 0.534
2536.606 0.4852 0.431 0.5204 0.5649 0.5324 0.4898 0.4767 0.4812 0.5027 0.5157
2555.896 0.4803 0.4339 0.4003 0.4406 0.504 0.44 0.4216 0.4022 0.3776 0.4701
2575.186 0.4938 0.5345 0.5508 0.4951 0.5021 0.4191 0.4423 0.5214 0.4975 0.4967
2594.475 0.5129 0.5068 0.4614 0.4277 0.4557 0.4491 0.4249 0.5435 0.5309 0.4097
2613.765 0.4321 0.4853 0.5003 0.5252 0.572 0.5809 0.5487 0.5176 0.5778 0.619
2633.055 0.5664 0.5567 0.6134 0.5452 0.5269 0.5146 0.4358 0.5007 0.5961 0.5533
2652.345 0.4858 0.5581 0.5316 0.52 0.536 0.5753 0.652 0.6096 0.5538 0.6132
2671.634 0.6751 0.6475 0.6827 0.75 0.8604 0.8815 0.8395 0.8743 0.9358 1.01
2690.924 1.01 0.9364 0.9201 1.04 1.1 1.01 1.01 1.07 1.01 0.9612
2710.214 0.9945 1.02 0.9571 0.9719 0.9657 1.03 1.14 1.09 1.17 1.17
2729.504 1.02 1.09 1.23 1.2 1.25 1.2 1.05 1.19 1.36 1.38
2748.794 1.36 1.32 1.36 1.43 1.53 1.52 1.34 1.34 1.46 1.47
2768.083 1.52 1.57 1.54 1.66 1.73 1.71 1.74 1.64 1.66 1.79
2787.373 1.74 1.76 1.85 1.81 1.81 1.86 1.87 1.99 2.02 1.98
2806.663 2.03 2.07 2.18 2.26 2.2 2.24 2.39 2.34 2.25 2.4
2825.953 2.47 2.38 2.37 2.5 2.69 2.85 2.86 2.94 3.16 3.32
2845.242 3.5 3.77 4.13 4.42 4.85 5.26 5.54 6.02 6.57 7.07
2864.532 7.68 8.24 8.71 9.28 9.85 10.49 11.26 12 12.71 13.57
2883.822 14.39 15.02 15.58 16.1 16.53 16.9 17.16 17.11 16.89 16.63
2903.112 16.29 15.88 15.41 15.02 14.6 14.21 14.01 13.78 13.67 13.89
2922.401 14.18 14.35 14.57 14.97 15.42 15.88 16.39 17.05 17.71 18.11
2941.691 18.53 18.96 19.19 19.42 19.58 19.62 19.41 19.17 18.9 18.56
2960.981 18.26 17.72 17.14 16.56 15.91 15.28 14.59 13.86 13.18 12.51
2980.271 11.81 10.99 10.34 9.58 8.69 8.12 7.46 6.73 6.14 5.62
2999.561 5.17 4.72 4.29 3.89 3.47 3.24 3.15 2.91 2.72 2.66
3018.850 2.69 2.73 2.56 2.35 2.31 2.34 2.32 2.21 2.05 1.99
3038.140 1.91 1.76 1.59 1.43 1.29 1.11 0.9714 0.9363 0.9063 0.906
3057.430 0.9515 0.8663 0.7754 0.6573 0.5398 0.5627 0.5785 0.4873 0.563 0.5815
3076.720 0.5236 0.5947 0.5937 0.6008 0.5146 0.4363 0.5233 0.4639 0.3762 0.4552
3096.009 0.4303 0.4135 0.4503 0.5452 0.6678 0.6069 0.5928 0.6002 0.539 0.6126
3115.299 0.5863 0.4903 0.4861 0.4683 0.3918 0.4033 0.4718 0.4658 0.4633 0.3986
3134.589 0.4917 0.551 0.494 0.4201 0.2891 0.3014 0.3832 0.4308 0.522 0.5091
3153.879 0.3633 0.2629 0.3255 0.3948 0.3924 0.4218 0.3384 0.3259 0.3909 0.4686
3173.169 0.4781 0.4649 0.6528 0.6427 0.5363 0.5178 0.4715 0.3154 0.3023 0.4308
3192.458 0.4347 0.4264 0.4507 0.5136 0.4506 0.3991 0.4274 0.4491 0.5197 0.5139
3211.748 0.4462 0.3655 0.3438 0.3112 0.3937 0.4459 0.3626 0.343 0.3344 0.3305
3231.038 0.3398 0.3071 0.3352 0.3643 0.404 0.5828 0.5457 0.531 0.4821 0.4781
3250.328 0.4888 0.414 0.5196 0.4291 0.3676 0.3737 0.3744 0.3669 0.4007 0.5093
3269.617 0.5502 0.4919 0.3685 0.4764 0.5651 0.5204 0.5001 0.4486 0.4627 0.406
3288.907 0.3159 0.4138 0.4594 0.5271 0.6807 0.6054 0.4708 0.4589 0.4137 0.3785
3308.197 0.3793 0.4603 0.5034 0.4012 0.3315 0.3382 0.4992 0.5438 0.3827 0.4899
3327.487 0.5272 0.4701 0.6094 0.6418 0.6589 0.6649 0.673 0.6767 0.5325 0.4876
3346.777 0.6247 0.5286 0.4605 0.5442 0.5186 0.3781 0.4778 0.5827 0.4943 0.6348
3366.066 0.6857 0.4628 0.4837 0.6518 0.6267 0.6501 0.7034 0.6469 0.6479 0.8356
3385.356 0.8903 0.8177 0.8024 0.9489 0.9926 0.8985 1.05 1.09 1.09 1.1
3404.646 1.1 1.2 1.25 1.27 1.23 1.38 1.28 1.23 1.48 1.54
3423.936 1.53 1.64 1.59 1.42 1.53 1.58 1.69 1.82 1.73 1.65
3443.225 1.58 1.67 1.77 1.81 1.8 1.75 1.78 1.6 1.51 1.64
3462.515 1.71 1.72 1.67 1.53 1.51 1.52 1.45 1.51 1.52 1.4
3481.805 1.44 1.58 1.5 1.32 1.38 1.6 1.64 1.48 1.56 1.62
3501.095 1.51 1.53 1.59 1.68 1.69 1.83 1.89 1.73 1.8 1.87
3520.385 1.76 1.85 1.93 1.87 2.01 2.18 2.23 2.35 2.55 2.69
3539.674 2.9 3.3 3.78 4.26 4.81 5.5 6.47 7.65 8.73 9.77
3558.964 10.8 11.77 12.67 13.53 14.22 14.91 15.41 15.95 16.88 17.34
3578.254 17.64 18.2 18.59 18.91 19.14 19.22 19.26 19.3 19.2 18.95
3597.544 18.51 17.87 17.28 16.75 16.12 15.32 14.47 13.59 12.72 11.78
3616.833 10.84 10.06 9.29 8.73 8.3 7.79 7.35 6.79 6.31 6.01
3636.123 5.97 5.88 5.73 5.87 6.07 6.42 6.84 7.5 8.25 8.82
3655.413 9.68 10.71 11.38 11.95 12.59 12.86 12.92 12.97 12.83 12.57
3674.703 12.16 11.56 10.77 9.91 8.95 8.03 7.28 6.4 5.53 4.85
3693.993 4.41 4.2 3.95 3.61 3.32 3.06 2.98 2.94 2.74 2.6
3713.282 2.54 2.37 2.36 2.45 2.52 2.53 2.51 2.58 2.58 2.52
3732.572 2.38 2.32 2.19 2 2.01 2.04 1.97 1.8 1.78 1.76
3751.862 1.63 1.45 1.31 1.24 1.21 1.16 0.9551 0.8776 0.9212 0.9808
3771.152 0.8443 0.6377 0.6198 0.6777 0.774 0.8964 0.7661 0.7162 0.829 0.7229
3790.441 0.6243 0.5921 0.528 0.5762 0.7178 0.6406 0.7038 0.7728 0.7784 0.7287
3809.731 0.5697 0.4656 0.4138 0.4818 0.4304 0.374 0.429 0.4295 0.5796 0.7409
3829.021 0.6073 0.5162 0.5241 0.2705 0.3632 0.5284 0.3053 0.2672 0.3087 0.3209
3848.311 0.2725 0.3309 0.4252 0.4323 0.5206 0.5462 0.4995 0.3954 0.4258 0.5684
3867.601 0.5693 0.6003 0.6 0.5765 0.6444 0.7181 0.672 0.7613 0.7912 0.6103
3886.890 0.663 0.7025 0.7506 0.6978 0.5304 0.6873 0.838 0.7437 0.603 0.7565
3906.180 0.8202 0.6937 0.7983 0.7611 0.6438 0.7167 0.7368 0.4377 0.4979 0.6308
3925.470 0.37 0.424 0.624 0.5918 0.5597 0.4871 0.5349 0.7402 0.7008 0.7679
3944.760 0.783 0.6874 0.8051 0.7649 0.7497 0.8581 0.8129 0.7935 0.7861 0.7832
3964.049 0.786 0.8255 0.8894 0.8077 0.763 0.7699 0.7083 0.7482 0.7807 0.7266
3983.339 0.6322 0.6015 0.6347 0.7726 0.7471 0.6645 0.6335 0.5845 0.7113 0.7496
##END=
