##TITLE=(+-)-3-Bromocyclohexene
##JCAMP-DX=4.24
##DATA TYPE=INFRARED SPECTRUM
##ORIGIN=EPA-IR VAPOR PHASE LIBRARY
##OWNER=SRD/NIST
Collection (C) 2018 copyright by the U.S. Secretary of Commerce
on behalf of the United States of America. All rights reserved.
##CAS REGISTRY NO=1521-51-3
##MOLFORM=C 6 H 9 Br
##$NIST SOURCE=MSDC-IR
##STATE=gas
##XUNITS=1/CM
##YUNITS=ABSORBANCE
##XFACTOR=1.
##YFACTOR=0.001
##DELTAX=3.85796
##FIRSTX=501.5
##LASTX=4000.7
##FIRSTY=2.6812
##MAXX=4000.7
##MINX=501.534
##MAXY=0.0727612
##MINY=0
##NPOINTS=908
##XYDATA=(X++(Y..Y))
501.534 2.6812 3.3812 4.4812 5.1912 5.5012 5.4212 4.9312 3.6512 2.2812 1.4712
540.114 0.9779 0.8512 0.8639 0.8584 1.0612 1.4212 2.1712 3.4312 4.8112 6.0712
578.693 6.8612 7.0612 6.8612 6.2312 5.2112 4.3812 4.0012 3.8512 3.7312 3.6912
617.273 3.6012 3.4812 3.5212 3.9012 4.6612 5.5612 6.0612 6.4512 7.4812 10.3412
655.852 13.2412 12.0312 10.0012 9.7912 9.4712 8.2812 7.0012 6.3112 5.7112 5.2512
694.432 5.1712 5.7112 7.1612 10.0512 14.7412 21.6512 30.5112 40.1312 47.3412 50.1512
733.011 48.1212 41.6212 33.0112 24.1012 16.5912 11.3312 7.9412 5.8112 4.5012 3.6312
771.591 3.0412 2.5912 2.2312 2.0012 1.8212 1.8212 1.9112 2.0412 2.2612 2.6712
810.170 3.6412 5.2712 7.1212 8.4412 8.7512 8.6712 8.3412 6.9812 5.5812 5.8212
848.750 7.7012 10.8512 13.7112 15.6712 16.2912 15.4812 13.6012 9.7912 6.4912 4.8012
887.330 3.9012 3.6112 3.6212 3.9012 4.7012 6.1312 7.5612 8.4112 8.7112 8.4912
925.909 7.8412 6.6712 5.2812 4.2612 3.7212 3.5412 3.5312 3.7712 4.3212 4.8812
964.489 5.3512 5.8912 6.5512 7.1512 7.7912 8.8612 10.2312 11.0212 10.7012 9.7512
1003.068 8.6912 7.1312 4.9312 3.3712 2.9212 3.3612 4.2512 4.6612 4.6112 4.6312
1041.648 4.7412 4.2212 3.1012 2.2712 1.8412 1.7012 1.7512 1.8912 2.4312 3.4412
1080.227 4.2712 4.7712 4.9412 4.5512 3.8312 3.0412 2.4312 2.0812 1.9412 2.0512
1118.807 2.3612 2.9412 3.7512 4.4912 5.0012 5.2112 5.2412 5.4212 5.9112 7.3512
1157.387 10.1912 13.5012 15.8312 17.6712 20.9612 25.6412 29.2512 31.3112 32.5712 31.9512
1195.966 28.7812 21.5912 13.9412 9.3112 6.4812 5.2512 5.1412 5.2512 5.1712 5.2012
1234.546 5.2012 4.9312 5.0212 5.7212 6.2612 6.2012 5.6912 5.0812 4.0812 2.6512
1273.125 1.5812 1.1212 0.989 1.0383 1.1312 1.2512 1.5712 2.0312 2.4712 2.9412
1311.705 3.4812 3.7812 3.7312 3.6612 3.7112 3.6312 3.4112 3.2612 3.1112 2.9412
1350.284 2.7512 2.4812 2.2312 2.0312 1.8212 1.6312 1.5912 1.7012 1.9712 2.3312
1388.864 2.5812 2.8012 2.9512 2.9812 3.0512 3.2412 3.6612 4.4512 5.6812 7.4112
1427.443 9.5412 11.6612 12.9512 13.6112 13.8312 13.3812 12.5312 11.4112 9.8912 8.2712
1466.023 6.8712 5.6112 4.2812 3.0012 2.0012 1.3112 0.8538 0.5459 0.3465 0.2048
1504.603 0.1584 0.14213 0.07599 0.0338 0.0485 0.0291 0 0.04371 0.1062 0.1917
1543.182 0.2409 0.2436 0.2515 0.2966 0.3264 0.2667 0.2511 0.3047 0.403 0.5193
1581.762 0.6061 0.7194 0.8333 0.8925 0.9581 1.0167 1.0812 1.1612 1.2612 1.4012
1620.341 1.5912 1.9212 2.4112 3.0012 3.4912 3.7512 3.8512 3.7012 3.2512 2.5912
1658.921 2.0912 1.8512 1.7912 1.9012 2.1612 2.5312 2.9612 3.3312 3.5112 3.5412
1697.500 3.4112 3.0712 2.6412 2.2512 1.9912 1.8412 1.6712 1.5312 1.4612 1.4412
1736.080 1.3712 1.2812 1.2412 1.2512 1.2512 1.2512 1.2312 1.2212 1.2112 1.2012
1774.659 1.1412 1.0712 1.0174 0.9639 0.9294 0.8769 0.8339 0.8385 0.8244 0.8282
1813.239 0.8495 0.8854 0.968 1.025 1.028 0.9978 0.9584 0.9287 0.8836 0.8582
1851.819 0.8464 0.809 0.8133 0.8282 0.8209 0.7975 0.7699 0.7818 0.788 0.8066
1890.398 0.8267 0.8282 0.85 0.8782 0.8885 0.9005 0.9166 0.9336 0.939 0.9158
1928.978 0.8783 0.8537 0.8437 0.8242 0.8064 0.7662 0.7413 0.7285 0.7111 0.7033
1967.557 0.6889 0.6794 0.6649 0.6428 0.6406 0.6301 0.6352 0.6775 0.6923 0.664
2006.137 0.658 0.6692 0.6517 0.6455 0.6386 0.631 0.6413 0.6415 0.6508 0.6795
2044.716 0.7013 0.7043 0.7082 0.7265 0.7314 0.7219 0.6956 0.6662 0.6559 0.6542
2083.296 0.6465 0.6574 0.6651 0.6731 0.6895 0.682 0.6828 0.6774 0.6623 0.6605
2121.875 0.6621 0.65 0.644 0.674 0.6912 0.6821 0.7014 0.7306 0.7581 0.7687
2160.455 0.7612 0.7723 0.781 0.7947 0.8306 0.8437 0.8171 0.8044 0.8371 0.871
2199.035 0.8897 0.9209 0.9474 0.971 0.9706 0.9622 0.9563 0.9561 0.9569 0.943
2237.614 0.9387 0.934 0.931 0.9485 0.9798 1.0113 1.0412 1.0612 1.0444 1.0203
2276.194 1.0056 1.0015 1.0124 1.0184 0.9957 0.9952 0.9953 1.0003 1.0812 1.1212
2314.773 1.1012 1.1012 1.0712 1.0712 1.0912 0.9946 0.9296 0.9232 0.9269 1.012
2353.353 1.021 0.9529 0.9739 0.9953 1.1112 1.2312 1.1112 1.0712 1.0451 1.0712
2391.932 1.2312 1.1112 0.9681 0.9277 0.9316 1.1612 1.1112 0.9098 0.9103 0.9281
2430.512 1.2212 1.2212 0.9368 0.9477 0.9772 1.2912 1.3312 1.0263 1.0291 1.1112
2469.092 1.4612 1.4012 1.0912 1.0372 1.1112 1.4512 1.2812 1.0448 1.0512 1.2312
2507.671 1.3912 1.1212 0.9948 0.9962 1.2012 1.1812 0.9434 0.9133 0.9917 1.0612
2546.251 0.9598 0.908 0.9316 0.9742 0.9818 0.9723 1.0146 1.1512 1.1512 1.0443
2584.830 1.0512 1.2712 1.3212 1.1312 1.1612 1.4612 1.4912 1.2412 1.3512 1.7512
2623.410 1.6912 1.4112 1.6812 2.0312 1.8612 1.7812 2.2012 2.3312 2.0712 2.1812
2661.989 2.4212 2.1612 1.9912 2.1812 2.0612 1.7912 1.8612 1.8012 1.6012 1.6712
2700.569 1.6612 1.5312 1.5812 1.5512 1.5012 1.5612 1.5012 1.4512 1.5012 1.4812
2739.148 1.5212 1.5712 1.6312 1.7212 1.7812 1.8712 1.9912 2.0912 2.1712 2.2912
2777.728 2.4112 2.5212 2.6712 2.8312 3.0412 3.2712 3.5412 3.9212 4.4712 5.2612
2816.308 6.2212 7.2912 8.5712 10.4612 13.7312 18.6812 22.8012 25.0212 26.5912 27.0512
2854.887 26.0812 24.2812 23.0512 22.8512 23.4612 24.8912 27.2412 30.0412 30.5912 29.2112
2893.467 28.2712 27.2712 26.0312 25.2912 25.7612 27.9612 32.3512 37.5712 42.4212 46.9112
2932.046 50.9912 55.3812 60.2712 66.7212 71.3612 72.4012 72.7612 70.4612 61.6112 50.2212
2970.626 41.1912 33.1012 25.6112 19.4712 15.1312 12.1312 9.9412 8.3512 7.1612 6.4812
3009.205 6.4112 7.0812 8.6412 11.2412 14.9212 19.5612 24.5412 28.7112 30.5312 30.7412
3047.785 31.0512 29.2912 25.1612 20.8912 16.9412 13.3712 10.4912 8.4212 6.7712 5.3112
3086.364 4.1812 3.3312 2.7012 2.3112 2.0812 1.9512 1.8612 1.7912 1.7812 1.7712
3124.944 1.7412 1.7512 1.7912 1.8212 1.8212 1.8312 1.8212 1.7512 1.6912 1.6212
3163.524 1.6112 1.5912 1.5212 1.4812 1.4412 1.4212 1.4612 1.4612 1.4412 1.4312
3202.103 1.4312 1.4212 1.4312 1.4612 1.4512 1.4412 1.4512 1.4412 1.4112 1.3712
3240.683 1.3512 1.3512 1.3212 1.2812 1.3012 1.3712 1.3712 1.3812 1.4012 1.3712
3279.262 1.3512 1.3312 1.3112 1.2712 1.2312 1.2112 1.1812 1.1412 1.0812 1.0712
3317.842 1.0512 0.9938 1.0154 1.0277 0.9792 0.9899 1.0148 0.9875 1.0048 1.0309
3356.421 1.019 0.9998 0.9704 0.9328 0.9265 0.9442 0.9453 0.9729 0.9745 0.9439
3395.001 0.912 0.8762 0.8749 0.9059 0.902 0.8614 0.8496 0.8026 0.766 0.7557
3433.580 0.7228 0.7111 0.6708 0.651 0.6912 0.6764 0.646 0.6933 0.7221 0.7034
3472.160 0.7054 0.6955 0.6721 0.6719 0.6641 0.6488 0.6508 0.6623 0.6777 0.687
3510.740 0.7053 0.6725 0.6319 0.6484 0.6545 0.6488 0.6477 0.6539 0.6539 0.6627
3549.319 0.7035 0.6743 0.6286 0.6299 0.6734 0.6823 0.6028 0.5931 0.6117 0.6129
3587.899 0.6008 0.5664 0.5659 0.5365 0.5525 0.5961 0.5562 0.5523 0.5692 0.5972
3626.478 0.6726 0.686 0.6639 0.6033 0.5495 0.5896 0.6206 0.6273 0.6137 0.5828
3665.058 0.6075 0.6814 0.6782 0.6599 0.6977 0.7388 0.7075 0.6895 0.6944 0.6897
3703.637 0.7165 0.7253 0.6938 0.6032 0.6263 0.7075 0.6367 0.5858 0.6594 0.6222
3742.217 0.6091 0.6538 0.6634 0.7043 0.6818 0.6606 0.6965 0.7515 0.746 0.7301
3780.797 0.7751 0.7677 0.7298 0.7152 0.7369 0.7647 0.7561 0.7324 0.6972 0.6391
3819.376 0.6388 0.6547 0.6214 0.6246 0.6733 0.7006 0.6672 0.6601 0.7106 0.7473
3857.956 0.702 0.6851 0.716 0.7775 0.7702 0.75 0.7141 0.7207 0.7549 0.7232
3896.535 0.7669 0.8271 0.8589 0.8589 0.8506 0.8889 0.9878 1.023 0.9809 1.0022
3935.115 1.0341 1.0403 1.0712 1.0488 1.0208 1.0341 1.0368 1.0032 1.0079 1.0712
3973.694 1.0712 1.0712 1.0712 1.05 1.006 0.9558 0.9285 0.9279
##END=
