##TITLE=2-Fluoro-6-(trifluoromethyl)benzyl alcohol
##JCAMP-DX=4.24
##DATA TYPE=INFRARED SPECTRUM
##ORIGIN=EPA-IR VAPOR PHASE LIBRARY
##OWNER=SRD/NIST
Collection (C) 2018 copyright by the U.S. Secretary of Commerce
on behalf of the United States of America. All rights reserved.
##CAS REGISTRY NO=152211-15-9
##MOLFORM=C 8 H 6 F 4 O
##$NIST SOURCE=MSDC-IR
##STATE=gas
##XUNITS=1/CM
##YUNITS=ABSORBANCE
##XFACTOR=1.
##YFACTOR=0.001
##DELTAX=1.92898
##FIRSTX=549.8
##LASTX=4000.7
##FIRSTY=6.758
##MAXX=4000.7
##MINX=549.759
##MAXY=0.424528
##MINY=0
##NPOINTS=1790
##XYDATA=(X++(Y..Y))
549.759 6.758 6.488 5.978 5.698 4.998 4.458 4.028 3.978 4.518 4.038
569.049 3.588 3.528 2.928 2.488 2.238 2.418 2.778 2.848 3.318 3.548
588.339 3.458 3.928 4.268 3.418 2.898 3.458 3.418 3.318 3.358 3.538
607.628 3.798 3.638 3.538 4.088 4.648 4.318 5.408 5.658 5.368 5.868
626.918 5.598 5.168 4.988 5.268 4.838 4.368 4.628 4.808 5.178 5.068
646.208 4.678 4.778 5.258 5.298 4.898 4.868 4.898 4.358 3.988 3.788
665.498 3.098 2.758 2.118 2.168 3.108 3.538 3.268 2.988 2.688 2.408
684.787 2.828 2.968 2.868 3.228 3.438 3.438 3.508 3.878 4.568 5.008
704.077 5.498 6.918 9.038 11.508 15.508 21.138 27.708 33.538 37.368 41.558
723.367 44.568 41.648 38.568 37.358 34.178 30.588 28.658 29.018 31.098 34.348
742.657 38.108 41.248 42.188 40.398 36.958 32.218 27.528 23.638 19.698 16.008
761.947 13.088 10.778 8.978 7.698 7.518 8.068 8.008 8.228 9.098 10.198
781.236 12.368 15.848 20.148 25.218 30.038 34.538 40.018 46.688 54.658 57.578
800.526 49.408 40.448 36.278 32.338 27.908 23.538 19.758 17.408 16.178 15.588
819.816 15.818 16.078 16.278 16.498 15.018 13.438 13.108 12.938 11.948 10.518
839.106 9.738 8.978 8.378 8.248 8.488 8.798 8.998 9.728 11.478 13.788
858.395 16.668 20.118 23.958 29.348 35.358 40.278 44.598 47.928 49.978 50.208
877.685 48.678 45.598 41.178 35.798 30.548 26.098 22.228 19.388 16.998 15.288
896.975 13.688 12.088 11.458 10.728 10.028 9.668 9.068 9.148 9.078 8.518
916.265 8.498 8.198 8.078 8.238 8.328 8.448 8.378 8.558 8.668 8.878
935.555 9.758 10.528 10.638 11.158 12.238 13.128 13.738 14.848 16.058 17.668
954.844 19.258 21.188 24.308 27.558 30.948 35.388 40.778 46.438 52.078 57.018
974.134 60.928 63.908 66.578 67.198 66.178 64.458 61.048 56.628 52.388 48.138
993.424 44.098 41.078 39.448 39.428 39.358 39.768 41.148 44.168 48.288 52.908
1012.714 59.278 65.688 71.788 78.268 84.298 89.518 93.138 93.588 90.618 85.778
1032.003 78.838 70.228 62.668 55.178 47.118 39.748 34.088 30.208 26.708 24.068
1051.293 23.078 21.498 19.918 20.948 23.368 24.188 24.818 26.188 26.618 28.428
1070.583 30.118 29.468 29.428 29.118 27.438 25.818 24.948 23.618 21.958 21.278
1089.873 21.748 23.658 25.238 27.128 30.128 33.448 38.698 46.098 55.598 66.388
1109.163 76.028 87.038 100.778 114.548 127.978 141.168 155.368 169.938 184.258 197.938
1128.452 210.248 221.908 237.878 256.138 273.508 295.038 316.538 332.228 342.018 342.588
1147.742 333.628 318.798 298.848 279.848 263.448 251.068 244.338 242.868 247.508 255.378
1167.032 263.298 267.548 265.768 258.388 244.518 224.918 200.858 175.668 152.098 129.388
1186.322 108.598 91.148 77.978 67.458 59.718 54.358 50.228 46.378 42.838 41.308
1205.611 40.188 38.528 37.988 36.908 34.808 33.718 32.218 30.838 30.808 30.008
1224.901 28.918 28.498 27.768 29.658 33.508 36.388 40.318 46.618 55.218 65.918
1244.191 76.418 86.758 95.878 101.058 102.348 101.678 97.868 91.108 80.958 67.498
1263.481 54.288 43.938 36.858 32.368 29.778 28.478 28.998 30.278 32.158 35.558
1282.771 39.398 43.798 49.128 54.818 61.848 70.298 80.658 93.398 108.758 128.238
1302.060 152.858 183.438 220.178 261.448 304.988 347.548 384.328 410.888 424.528 422.858
1321.350 404.418 370.288 323.238 268.658 213.008 162.098 120.488 89.868 68.998 55.678
1340.640 47.458 41.838 37.668 34.658 32.328 30.028 27.728 25.788 24.118 22.728
1359.930 21.878 21.448 21.248 21.278 21.538 22.248 23.048 23.878 25.028 26.288
1379.219 27.458 28.668 29.668 30.228 30.338 29.898 29.278 28.318 27.008 25.378
1398.509 23.388 21.458 19.898 18.468 17.048 15.878 15.108 14.488 14.018 13.658
1417.799 13.288 13.148 13.238 13.578 14.108 14.608 15.458 16.568 17.898 19.708
1437.089 21.968 24.958 28.738 33.288 39.088 46.198 54.778 64.148 74.058 83.368
1456.378 91.478 98.008 101.708 102.708 100.758 95.408 87.298 77.428 66.928 57.418
1475.668 49.748 43.798 39.378 35.728 32.328 29.098 26.018 22.998 20.438 18.288
1494.958 15.828 13.468 11.858 10.258 8.968 8.078 7.248 6.528 6.048 5.888
1514.248 5.878 5.618 5.218 4.888 4.848 4.948 4.748 4.618 4.608 4.788
1533.538 5.078 4.958 4.948 4.968 4.878 5.008 5.258 5.268 5.058 4.928
1552.827 5.088 5.168 4.978 5.148 5.378 5.578 6.208 6.898 7.628 8.928
1572.117 10.828 12.418 14.268 16.698 18.628 20.188 21.738 22.678 22.838 22.298
1591.407 21.268 19.778 17.258 14.898 13.078 11.398 10.408 10.148 10.018 10.028
1610.697 10.108 9.998 9.888 9.558 9.168 8.728 8.428 7.888 6.808 6.118
1629.986 5.918 5.628 5.078 4.798 4.878 4.818 4.758 4.778 4.688 4.618
1649.276 4.408 4.068 3.998 3.988 3.828 3.628 3.238 3.028 2.858 2.698
1668.566 2.538 2.318 2.228 2.388 2.528 2.448 2.358 2.318 2.368 2.488
1687.856 2.658 2.858 3.118 3.408 3.618 3.858 3.958 3.848 3.688 3.508
1707.146 3.278 2.928 2.758 2.578 2.468 2.438 2.188 2.218 2.148 1.7629
1726.435 1.6345 1.6117 1.6048 1.5753 1.6039 1.606 1.474 1.3854 1.3672 1.4975
1745.725 1.5181 1.5303 1.5916 1.5092 1.6362 1.8427 1.8111 1.998 2.118 1.968
1765.015 2.138 2.128 1.878 1.928 2.138 2.108 1.968 1.858 1.898 2.048
1784.305 2.018 2.098 2.328 2.458 2.588 2.748 2.858 2.988 3.128 3.238
1803.594 3.208 3.068 2.848 2.648 2.498 2.348 2.198 1.948 1.7515 1.6056
1822.884 1.6456 1.6434 1.4615 1.3236 1.2706 1.3665 1.373 1.4521 1.4854 1.4207
1842.174 1.5731 1.7008 1.753 1.742 1.7228 1.908 2.218 2.418 2.608 3.048
1861.464 3.588 4.008 4.288 4.578 4.708 4.688 4.448 4.018 3.528 3.138
1880.754 2.728 2.118 1.8132 1.7034 1.5013 1.4154 1.5864 1.5512 1.3801 1.2394
1900.043 1.276 1.2994 1.1497 1.1567 1.2513 1.2722 1.2246 1.4932 1.7702 1.819
1919.333 1.8565 1.968 2.178 2.428 2.898 3.208 3.428 3.798 3.988 4.248
1938.623 4.358 4.168 3.608 3.118 3.048 2.728 2.298 1.8241 1.3752 1.4277
1957.913 1.5367 1.3267 1.1678 1.1687 1.3733 1.428 1.438 1.3591 1.2861 1.3697
1977.202 1.4634 1.6702 1.6362 1.4441 1.4462 1.5905 1.7911 1.6948 1.5969 1.7794
1996.492 1.888 1.8155 1.752 1.7251 1.6856 1.8515 1.8288 1.6363 1.7411 1.968
2015.782 2.028 2.068 2.048 1.918 2.088 2.458 2.498 2.278 2.348 2.658
2035.072 2.698 2.518 2.478 2.698 2.698 2.568 2.568 2.428 2.338 2.008
2054.362 1.888 2.108 2.148 1.998 1.7296 1.6489 1.8015 1.7948 1.6763 1.6071
2073.651 1.7367 1.928 1.7253 1.6653 1.878 1.868 1.7106 1.7319 1.6939 1.5345
2092.941 1.5524 1.4808 1.4477 1.578 1.681 1.7433 1.7327 1.5924 1.4028 1.4549
2112.231 1.5922 1.6206 1.492 1.5008 1.616 1.6748 1.7332 1.7543 1.6167 1.4615
2131.521 1.4676 1.6048 1.5332 1.4337 1.4828 1.2394 1.2457 1.3667 1.4149 1.447
2150.810 1.2248 1.1615 1.2459 1.4492 1.6054 1.3608 1.2195 1.3571 1.2989 1.2247
2170.100 1.2229 1.2674 1.3746 1.4097 1.4389 1.4594 1.4643 1.5038 1.4579 1.3324
2189.390 1.342 1.5845 1.5734 1.1957 1.1293 1.3954 1.5785 1.5169 1.4273 1.4473
2208.680 1.4777 1.4626 1.4465 1.385 1.3466 1.3817 1.4351 1.3386 1.3392 1.4707
2227.970 1.5003 1.5717 1.7898 1.988 1.958 1.7585 1.5947 1.6392 1.7573 1.998
2247.259 1.998 1.888 2.048 2.308 2.498 2.328 2.078 2.138 2.208 2.128
2266.549 2.208 2.438 2.318 2.068 2.128 2.228 2.188 2.138 2.358 2.348
2285.839 2.158 2.168 2.138 2.098 1.948 1.918 1.988 1.998 1.8369 1.7149
2305.129 1.6375 1.6251 1.7943 1.928 1.928 1.7475 1.6861 1.8362 1.968 1.898
2324.418 1.6999 1.74 2.078 2.298 2.288 2.248 2.228 2.048 2.128 2.298
2343.708 2.428 2.328 1.988 1.908 1.928 1.878 1.6621 1.4715 1.7093 2.008
2362.998 1.7547 1.5122 1.6987 1.7964 1.7661 1.7886 1.6614 1.5131 1.3987 1.4146
2382.288 1.462 1.3477 1.5695 1.6939 1.3991 1.3701 1.6932 1.7089 1.3571 1.2083
2401.578 1.2815 1.2594 1.1675 1.2729 1.2855 1.4071 1.6121 1.2803 1.0882 1.3759
2420.867 1.5999 1.5653 1.4032 1.2686 1.3348 1.3138 1.1949 1.3649 1.5256 1.5468
2440.157 1.6109 1.8409 1.8321 1.6633 1.8369 1.8299 1.7271 1.948 1.908 1.7558
2459.447 1.908 2.118 2.328 2.298 2.108 2.048 1.8416 2.078 2.258 1.8155
2478.737 1.7942 1.6601 1.5306 1.6648 1.6987 1.675 1.4743 1.482 1.5521 1.6933
2498.026 1.6501 1.4624 1.6164 1.8438 1.7896 1.6429 1.508 1.2484 1.1901 1.4386
2517.316 1.5671 1.4636 1.3302 1.2926 1.5493 1.858 1.7524 1.3223 1.2102 1.104
2536.606 1.2112 1.3915 1.3109 1.4865 1.5399 1.3761 1.3159 1.3056 1.4362 1.4197
2555.896 1.2086 1.4816 1.5162 1.2626 1.303 1.3489 1.4472 1.3367 1.1892 1.1914
2575.186 1.2436 1.3546 1.3776 1.3733 1.215 1.3189 1.3522 1.2669 1.3031 1.2771
2594.475 1.3247 1.4056 1.5255 1.6339 1.2746 1.1012 1.3445 1.3189 1.401 1.5783
2613.765 1.5502 1.5423 1.4053 1.3348 1.461 1.73 1.5365 1.3655 1.6565 1.529
2633.055 1.4831 1.7324 1.6381 1.4329 1.5388 1.6702 1.3815 1.2415 1.4013 1.0813
2652.345 1.0281 1.3422 1.2579 1.0366 1.1588 1.3159 1.1547 1.0053 1.141 1.1809
2671.634 1.0924 1.1702 1.1128 0.7584 0.93082 1.2939 1.0404 1.1138 1.1717 0.8801
2690.924 0.8363 0.734 0.636 0.8379 1.1808 1.31 1.3992 1.3824 1.2268 1.1123
2710.214 0.9932 1.1368 1.4002 1.0768 0.92961 1.1715 1.1133 1.1147 1.2243 0.9869
2729.504 0.90473 1.0471 0.88249 0.77 1.1053 1.2989 1.2007 0.902 0.577 0.9406
2748.794 1.286 1.4297 1.3885 1.5367 1.5873 1.2507 1.0186 1.1432 1.2077 1.4109
2768.083 1.5302 1.065 1.2628 1.1828 1.0776 1.3316 1.217 1.2894 1.5037 1.6117
2787.373 1.6472 1.6583 1.5508 1.1578 0.93175 1.0076 0.999 1.0054 1.5986 1.988
2806.663 1.5247 1.5092 1.4344 1.2908 1.4128 1.3598 1.4762 1.6505 1.8524 1.858
2825.953 1.6065 1.8144 2.068 1.998 1.938 1.8185 1.7901 2.048 2.158 2.208
2845.242 2.428 2.378 2.328 2.168 2.028 2.588 3.108 3.008 2.918 2.758
2864.532 2.638 2.868 2.738 2.658 3.028 3.678 3.808 3.658 3.978 4.188
2883.822 4.648 5.228 5.448 5.868 6.458 6.998 7.608 8.288 9.288 10.108
2903.112 10.778 11.408 11.828 12.388 12.618 11.998 11.948 12.648 12.908 12.228
2922.401 12.158 12.228 11.818 11.308 10.628 10.218 9.898 9.738 9.208 8.878
2941.691 8.768 7.978 7.458 7.568 7.398 7.348 7.008 6.618 6.418 6.478
2960.981 7.008 6.758 6.468 6.978 7.158 7.028 7.398 7.458 7.098 7.438
2980.271 7.838 8.388 9.148 9.528 9.808 10.068 9.858 9.558 9.598 9.498
2999.561 9.438 9.178 8.908 8.308 7.398 7.108 6.758 6.218 5.928 5.378
3018.850 5.148 5.318 5.128 4.958 4.988 5.048 5.338 5.218 5.048 5.118
3038.140 4.748 4.548 4.448 4.478 4.108 3.758 3.878 3.788 3.588 3.778
3057.430 3.768 3.468 3.498 3.368 3.418 3.498 3.358 3.398 4.188 4.428
3076.720 4.448 5.058 5.298 5.748 6.598 6.848 6.608 6.518 6.478 6.538
3096.009 6.428 6.018 5.628 5.018 4.628 3.968 2.858 2.518 2.638 2.278
3115.299 1.7642 1.7382 1.5517 1.4598 1.4022 1.2781 1.2223 0.9751 0.9702 0.848
3134.589 0.90367 0.7975 0.695 1.1031 1.2013 1.1207 1.0337 0.692 0.571 0.675
3153.879 0.674 0.669 0.731 0.94757 1.3902 1.5197 1.2674 1.3443 1.1515 0.543
3173.169 0.687 1.0632 0.93125 0.92923 0.87421 0.842 0.865517 0.859338 0.9769 1.0116
3192.458 1.1945 1.3761 1.1331 0.9895 1.3318 1.5836 1.1521 1.1737 0.90878 0.7665
3211.748 1.0303 0.633 0.384 0.56 0.860094 0.8739 0.683 0.379 0.466 0.58
3231.038 0.774 0.9945 1.0194 0.533 0.063 0 0.398 0.7839 0.445 0.325
3250.328 0.383 0.643 0.91007 0.517 0.021 0.255 0.381 0.709 1.1324 0.592
3269.617 0.7754 1.4016 1.1446 0.8777 1.0211 0.9785 0.731 0.496 0.581 1.3536
3288.907 1.5998 0.93077 0.48 0.417 0.424 0.264 0.433 0.857717 0.86917 0.91547
3308.197 0.8734 0.74 0.729 1.0597 1.1416 0.696 0.496 0.521 0.9117 1.1546
3327.487 1.4272 1.539 0.89579 0.8038 0.727 0.558 0.9909 0.8034 0.517 1.0305
3346.777 1.1807 1.1514 1.2972 1.2199 1.3728 1.3685 1.1977 1.2847 1.1903 1.0012
3366.066 1.1428 1.2301 1.1283 1.1978 1.4237 1.3781 1.2761 1.307 1.1564 0.615
3385.356 0.657 0.751 0.93927 1.4516 1.3291 1.3161 1.5403 1.5993 1.4765 1.2872
3404.646 1.2345 1.5266 1.6799 1.5995 1.371 1.0949 1.1669 1.2773 1.3478 1.7845
3423.936 1.753 1.5859 1.5735 1.7447 1.7206 1.1115 1.445 1.3831 1.0907 1.4842
3443.225 1.5933 1.888 1.5413 1.2906 1.6597 1.7301 1.8458 1.4598 1.4194 1.888
3462.515 1.5446 1.2025 1.516 1.7145 1.6641 1.988 1.7718 1.2232 1.638 1.3298
3481.805 0.860576 0.9689 1.1013 1.1564 0.753 1.0854 1.3288 1.2098 1.4117 1.725
3501.095 1.958 1.7154 1.4619 1.4608 1.0321 0.9791 1.4603 1.3858 1.5289 1.4575
3520.385 1.2023 0.92425 0.88562 1.4982 1.6768 1.6401 1.3827 0.9857 1.0906 1.0278
3539.674 0.90691 1.4667 1.5904 1.3894 1.6587 1.6833 1.4517 1.2429 1.3388 1.6692
3558.964 1.928 2.018 1.5296 1.2305 1.5779 1.3778 1.2277 1.4991 2.078 2.008
3578.254 1.0259 0.9983 1.4114 1.6371 2.008 2.018 1.938 2.008 2.248 2.388
3597.544 2.708 3.058 2.728 2.488 2.608 2.588 2.558 2.888 2.918 3.328
3616.833 3.488 3.108 3.438 3.488 3.328 3.908 4.458 4.288 3.788 4.058
3636.123 5.028 5.968 6.758 7.808 9.788 11.528 13.558 16.778 19.738 23.158
3655.413 26.778 29.288 30.638 31.348 30.898 28.998 26.378 22.798 19.498 16.608
3674.703 13.498 10.788 8.968 7.568 6.228 5.438 5.228 4.938 4.558 3.908
3693.993 3.428 3.588 3.468 3.648 4.508 4.328 3.808 3.728 3.198 3.508
3713.282 3.678 3.118 3.318 3.378 3.388 3.358 3.278 3.538 2.918 2.448
3732.572 3.038 3.298 3.038 3.058 3.328 3.108 2.688 2.538 2.098 1.7245
3751.862 2.008 1.4647 1.0404 1.3579 1.5436 1.8211 1.5026 1.4671 2.178 2.258
3771.152 1.908 1.5787 1.495 1.561 1.5487 1.707 1.938 2.158 2.238 1.918
3790.441 1.6927 1.948 1.6141 1.5811 1.918 1.7965 1.8178 1.948 1.888 1.958
3809.731 2.098 1.674 1.5251 1.4338 1.1703 1.6482 2.048 1.7507 0.88863 1.2364
3829.021 1.968 1.8187 1.868 1.7835 2.138 2.448 1.988 1.8233 2.038 2.138
3848.311 2.348 2.338 2.698 2.938 2.548 2.178 1.6466 1.2464 1.1433 1.2983
3867.601 1.6092 1.7483 1.6608 1.858 1.8505 1.7613 1.8242 1.7571 1.918 1.6536
3886.890 1.2244 1.1347 1.2179 1.363 1.3504 1.4951 1.52 1.5944 1.2803 1.3731
3906.180 1.5022 1.2981 1.6604 2.228 1.968 1.6567 2.368 2.278 1.7115 1.3936
3925.470 1.3046 1.4137 1.7536 1.6102 1.423 1.4335 1.1362 1.5644 1.5676 1.0883
3944.760 1.0923 1.3796 1.4964 1.2537 1.0056 1.3202 1.6154 1.6278 1.7326 1.5286
3964.049 1.096 1.2117 1.6661 1.3188 0.636 0.587 0.90887 1.1493 1.0224 0.658
3983.339 0.9587 0.9636 0.87812 1.4451 1.4758 1.0844 0.867441 1.1861 1.5195 0.85294
##END=
