##TITLE=2,6-Dichlorobenzyl alcohol
##JCAMP-DX=4.24
##DATA TYPE=INFRARED SPECTRUM
##ORIGIN=EPA-IR VAPOR PHASE LIBRARY
##OWNER=SRD/NIST
Collection (C) 2018 copyright by the U.S. Secretary of Commerce
on behalf of the United States of America. All rights reserved.
##CAS REGISTRY NO=15258-73-8
##MOLFORM=C 7 H 6 Cl 2 O
##$NIST SOURCE=MSDC-IR
##STATE=gas
##XUNITS=1/CM
##YUNITS=ABSORBANCE
##XFACTOR=1.
##YFACTOR=0.001
##DELTAX=1.92898
##FIRSTX=549.8
##LASTX=4000.7
##FIRSTY=1.634
##MAXX=4000.7
##MINX=549.759
##MAXY=0.062974
##MINY=0
##NPOINTS=1790
##XYDATA=(X++(Y..Y))
549.759 1.634 1.444 1.1187 1.2594 1.1902 0.9861 1.344 1.474 1.2606 1.314
569.049 1.444 1.454 1.277 1.081 1.0222 0.6218 0.6217 1.1306 1.1937 0.8959
588.339 0.9774 1.384 1.444 1.324 1.2004 1.2746 1.774 1.944 1.814 2.194
607.628 2.534 2.444 2.824 3.564 3.894 4.194 4.424 4.084 3.894 3.634
626.918 2.974 2.354 2.234 2.184 1.744 1.494 1.404 1.2598 1.2768 1.354
646.208 1.494 1.404 1.1405 1.0368 1.1065 1.2142 1.0991 1.2026 1.2727 1.354
665.498 1.334 1.0704 1.0454 1.1893 1.354 1.494 1.564 1.444 1.464 1.724
684.787 2.004 1.994 1.904 2.054 2.174 2.374 2.534 2.504 2.444 2.544
704.077 2.614 2.694 2.964 3.384 4.014 4.864 5.704 6.584 7.534 8.434
723.367 9.444 10.494 11.724 12.934 13.004 12.204 11.674 11.064 10.554 10.424
742.657 10.454 10.584 11.214 12.514 14.394 16.984 20.254 24.744 30.144 35.924
761.947 42.254 48.814 54.084 57.044 58.344 59.314 62.014 62.974 53.184 39.224
781.236 31.844 27.884 23.894 19.854 15.964 12.794 10.404 8.474 6.994 6.134
800.526 5.614 5.314 5.224 5.174 5.264 5.494 5.744 5.814 5.904 5.994
819.816 6.104 6.374 5.974 5.504 5.354 5.144 4.724 4.024 3.484 3.164
839.106 2.974 2.764 2.334 2.124 2.214 2.284 2.414 2.424 2.084 2.064
858.395 2.254 2.254 2.234 2.154 2.094 1.924 2.014 1.954 1.934 1.934
877.685 1.824 2.084 2.184 2.134 2.054 1.954 1.944 2.044 2.134 2.334
896.975 2.454 2.334 2.254 2.234 2.334 2.414 2.474 2.404 2.454 2.674
916.265 2.794 2.934 3.244 3.754 4.004 4.044 4.594 5.254 5.784 6.404
935.555 7.254 8.354 9.654 11.044 12.664 14.674 16.624 18.334 19.814 20.664
954.844 20.994 20.864 20.154 19.334 18.364 17.114 15.454 13.534 11.884 10.744
974.134 9.684 8.754 8.144 7.674 7.514 7.514 7.894 8.324 8.914 9.634
993.424 10.374 11.524 12.814 14.394 16.194 18.134 20.134 22.354 25.124 28.164
1012.714 31.054 33.874 36.264 38.644 40.344 40.684 40.664 39.704 37.324 33.774
1032.003 29.794 25.684 22.054 18.544 15.184 12.124 9.644 7.994 6.574 5.814
1051.293 5.374 5.134 5.204 4.784 4.654 5.644 6.584 7.124 8.124 9.184
1070.583 9.884 11.024 12.264 14.054 15.764 17.674 19.724 21.394 23.654 25.384
1089.873 26.634 27.154 26.384 24.964 23.674 22.674 20.024 16.304 13.784 11.334
1109.163 8.874 7.484 6.584 6.264 5.694 5.494 5.864 5.554 5.234 5.584
1128.452 6.304 7.034 7.954 8.834 10.404 11.894 12.594 13.164 13.924 14.284
1147.742 14.354 14.334 14.154 14.564 14.344 14.214 14.414 14.284 14.454 14.494
1167.032 14.614 15.124 15.074 14.374 13.984 14.094 14.074 14.054 13.844 13.234
1186.322 12.674 12.914 13.364 13.264 13.464 13.554 13.384 12.904 12.774 12.604
1205.611 11.694 11.334 10.854 9.704 9.034 8.614 7.874 7.384 6.864 6.174
1224.901 5.674 5.294 4.964 4.634 4.424 3.924 3.764 4.114 4.314 4.304
1244.191 4.294 4.274 4.224 4.274 4.164 4.204 4.404 4.514 4.864 4.924
1263.481 4.934 5.174 5.264 5.414 5.434 5.354 5.234 5.184 5.154 5.044
1282.771 4.894 4.634 4.564 4.634 4.624 4.534 4.554 4.574 4.504 4.554
1302.060 4.594 4.524 4.514 4.484 4.454 4.434 4.414 4.364 4.364 4.374
1321.350 4.364 4.374 4.514 4.704 4.824 4.954 5.094 5.274 5.444 5.584
1340.640 5.674 5.784 5.814 5.794 5.764 5.754 5.774 5.764 5.784 5.884
1359.930 6.104 6.394 6.814 7.454 8.184 8.984 9.914 10.934 12.004 13.014
1379.219 13.954 14.744 15.194 15.334 15.264 14.874 14.234 13.504 12.634 11.714
1398.509 10.844 10.064 9.474 9.004 8.814 8.784 8.824 9.164 9.744 10.464
1417.799 11.634 13.384 15.724 18.924 23.104 27.984 33.274 38.414 42.544 45.174
1437.089 46.374 45.714 42.774 38.724 34.144 28.334 21.854 16.154 11.774 8.844
1456.378 7.084 5.994 5.474 5.294 5.334 5.534 5.764 5.984 6.124 6.144
1475.668 6.174 6.154 5.964 5.734 5.524 5.294 5.004 4.784 4.614 4.424
1494.958 4.244 4.074 3.854 3.584 3.254 2.944 2.724 2.394 2.174 2.034
1514.248 1.914 1.844 1.704 1.674 1.734 1.644 1.594 1.744 1.854 1.944
1533.538 2.154 2.484 2.854 3.394 4.094 4.924 6.034 7.434 9.234 11.704
1552.827 14.534 17.634 20.864 24.114 27.144 29.634 31.444 32.394 32.374 31.244
1572.117 29.074 25.964 22.654 19.964 17.784 15.864 14.034 12.234 10.544 8.834
1591.407 7.214 5.814 4.774 3.974 3.324 2.904 2.594 2.334 2.244 2.114
1610.697 1.974 1.974 1.994 1.884 1.734 1.744 1.664 1.454 1.344 1.2887
1629.986 1.255 1.2622 1.2688 1.184 1.079 1.0245 1.0076 1.0789 1.1673 1.1208
1649.276 1.039 1.2514 1.554 1.594 1.644 1.784 1.814 1.844 1.894 1.824
1668.566 1.794 1.654 1.404 1.2865 1.1819 0.9991 0.8617 0.8109 0.8017 0.7982
1687.856 0.7179 0.641 0.6604 0.6983 0.7046 0.679 0.6843 0.6178 0.5959 0.6622
1707.146 0.6107 0.5785 0.6028 0.579 0.5813 0.575 0.4462 0.4219 0.4903 0.509
1726.435 0.5836 0.6157 0.6089 0.613 0.5589 0.5564 0.5409 0.5381 0.5837 0.5871
1745.725 0.6093 0.6211 0.5835 0.4981 0.415 0.436 0.5403 0.6206 0.7038 0.7445
1765.015 0.7529 0.8561 0.9266 1.0175 1.2482 1.344 1.2811 1.2954 1.364 1.2829
1784.305 1.1314 1.0638 1.0213 0.9693 0.8553 0.7384 0.6647 0.5791 0.4885 0.4247
1803.594 0.40079 0.39788 0.38603 0.34941 0.3016 0.31151 0.39337 0.40889 0.38651 0.4156
1822.884 0.4394 0.4679 0.5342 0.5348 0.5262 0.5902 0.6826 0.7557 0.8554 1.0253
1842.174 1.1986 1.364 1.484 1.524 1.614 1.674 1.624 1.534 1.374 1.2358
1861.464 1.1304 1.0434 0.9133 0.7644 0.6459 0.4954 0.4141 0.38254 0.35874 0.36502
1880.754 0.3567 0.39412 0.4463 0.4507 0.4517 0.46 0.4614 0.4442 0.478 0.5602
1900.043 0.5489 0.5801 0.6547 0.7147 0.7919 0.9173 1.0591 1.1392 1.2704 1.444
1919.333 1.604 1.704 1.734 1.714 1.644 1.544 1.484 1.384 1.2707 1.1899
1938.623 0.9976 0.8466 0.6958 0.4599 0.4315 0.4595 0.4669 0.4295 0.36131 0.40994
1957.913 0.4437 0.4544 0.4525 0.5013 0.5006 0.4402 0.4948 0.5149 0.4357 0.4246
1977.202 0.489 0.4895 0.4292 0.39429 0.39242 0.4302 0.47 0.4676 0.4772 0.4411
1996.492 0.4358 0.4288 0.4798 0.5201 0.5484 0.6174 0.5931 0.6528 0.7931 0.8187
2015.782 0.7841 0.813 0.8117 0.7854 0.7934 0.7813 0.799 0.7822 0.8101 0.843
2035.072 0.7988 0.818 0.7999 0.7452 0.7244 0.6823 0.6785 0.6918 0.6244 0.5747
2054.362 0.5408 0.5294 0.5203 0.4362 0.40502 0.39868 0.4117 0.36154 0.32535 0.297
2073.651 0.209 0.2265 0.2599 0.2492 0.287 0.33944 0.36746 0.39833 0.4185 0.4237
2092.941 0.4214 0.37537 0.34724 0.3713 0.35189 0.32469 0.3018 0.31231 0.35982 0.3848
2112.231 0.31129 0.2644 0.322901 0.34818 0.31148 0.30894 0.3273 0.319396 0.2957 0.301
2131.521 0.2823 0.2914 0.34112 0.320386 0.31771 0.32997 0.2735 0.2306 0.2335 0.2439
2150.810 0.2145 0.204 0.192 0.207 0.2695 0.30592 0.3601 0.34969 0.2634 0.2638
2170.100 0.2873 0.2624 0.2991 0.302 0.323418 0.35356 0.32902 0.32471 0.33543 0.35121
2189.390 0.33433 0.302 0.32754 0.36919 0.39418 0.38253 0.33086 0.34328 0.40522 0.38998
2208.680 0.33854 0.34662 0.39389 0.38442 0.36659 0.32538 0.2692 0.2212 0.18 0.2462
2227.970 0.3384 0.36398 0.32459 0.313115 0.30959 0.321162 0.40369 0.35164 0.321019 0.36145
2247.259 0.32994 0.428 0.4384 0.34713 0.33493 0.2669 0.2392 0.2988 0.35873 0.38997
2266.549 0.38853 0.39885 0.39368 0.36413 0.316237 0.2836 0.2821 0.2455 0.2766 0.41295
2285.839 0.5188 0.53 0.5179 0.5843 0.6068 0.5292 0.4774 0.5293 0.6057 0.6006
2305.129 0.5594 0.5048 0.4299 0.38093 0.39795 0.5147 0.5221 0.4173 0.36763 0.37424
2324.418 0.37374 0.40873 0.5539 0.6151 0.5832 0.5365 0.4416 0.4956 0.5097 0.4284
2343.708 0.39927 0.34567 0.4158 0.4917 0.5133 0.5768 0.5806 0.4718 0.4911 0.553
2362.998 0.5549 0.5547 0.4568 0.4221 0.4388 0.37978 0.30696 0.32505 0.4181 0.3602
2382.288 0.31986 0.39389 0.34782 0.2579 0.2888 0.34593 0.35742 0.37239 0.38416 0.493
2401.578 0.493 0.4518 0.4658 0.4732 0.5063 0.4682 0.4279 0.4478 0.443 0.429
2420.867 0.4831 0.4909 0.38419 0.38666 0.5173 0.5071 0.4663 0.4381 0.39214 0.3854
2440.157 0.34869 0.32237 0.3641 0.40477 0.37286 0.34531 0.3864 0.4067 0.4465 0.4583
2459.447 0.414 0.39976 0.38938 0.40603 0.418 0.37499 0.34108 0.3533 0.38801 0.4203
2478.737 0.4466 0.491 0.5342 0.5076 0.5123 0.5344 0.5774 0.5586 0.4761 0.5113
2498.026 0.5485 0.495 0.5045 0.5388 0.4391 0.36909 0.37558 0.39276 0.4514 0.4482
2517.316 0.38268 0.38961 0.4398 0.39357 0.2785 0.239 0.2565 0.2749 0.2363 0.181
2536.606 0.203 0.2662 0.2983 0.35989 0.3455 0.2333 0.206 0.2529 0.2266 0.2528
2555.896 0.32796 0.34194 0.35105 0.32812 0.31081 0.34944 0.36944 0.36311 0.3658 0.3681
2575.186 0.4251 0.3958 0.40403 0.40217 0.39688 0.4688 0.41273 0.39485 0.36138 0.31274
2594.475 0.32435 0.34145 0.3028 0.2816 0.2995 0.2879 0.2995 0.36072 0.33133 0.27
2613.765 0.33399 0.2935 0.36472 0.426 0.32922 0.33509 0.35594 0.4389 0.4342 0.36483
2633.055 0.4501 0.4876 0.4472 0.4683 0.5288 0.6039 0.6101 0.5849 0.6355 0.7211
2652.345 0.67 0.6046 0.6206 0.635 0.7201 0.7492 0.7622 0.7468 0.7059 0.6729
2671.634 0.6172 0.5738 0.5219 0.496 0.5444 0.5108 0.4518 0.4192 0.40871 0.423
2690.924 0.35961 0.37008 0.41116 0.4605 0.4763 0.33852 0.2862 0.35376 0.34428 0.322032
2710.214 0.40856 0.38137 0.36671 0.39301 0.39634 0.4177 0.4264 0.4289 0.3817 0.35868
2729.504 0.35681 0.40112 0.5163 0.5512 0.4147 0.4689 0.5752 0.5114 0.39345 0.2963
2748.794 0.317986 0.30952 0.2474 0.2998 0.38395 0.40741 0.40923 0.38965 0.317334 0.36754
2768.083 0.4461 0.357 0.2791 0.34873 0.4361 0.5039 0.5116 0.37902 0.36941 0.40491
2787.373 0.39977 0.4547 0.4497 0.4491 0.39931 0.415 0.5283 0.4388 0.34756 0.4155
2806.663 0.4978 0.5173 0.5348 0.5176 0.6236 0.6349 0.5432 0.5897 0.5609 0.6118
2825.953 0.7578 0.6808 0.5942 0.733 0.8186 0.7664 0.8623 1.0307 1.1371 1.169
2845.242 1.0396 1.0141 1.0638 1.1209 1.2565 1.434 1.434 1.404 1.454 1.514
2864.532 1.664 1.774 1.964 2.174 2.204 2.464 2.724 2.974 3.314 3.624
2883.822 4.064 4.594 4.954 5.174 5.514 5.914 6.154 6.234 6.144 6.134
2903.112 6.194 6.054 5.874 5.724 5.554 5.324 5.004 4.644 4.254 3.984
2922.401 3.914 3.674 3.404 3.264 3.124 3.044 3.014 3.074 3.244 3.464
2941.691 3.664 3.894 4.174 4.464 4.714 4.864 4.874 4.844 4.994 5.044
2960.981 4.804 4.684 4.684 4.684 4.644 4.504 4.444 4.464 4.364 4.114
2980.271 3.964 3.894 3.854 3.924 3.864 3.744 3.684 3.804 3.914 3.854
2999.561 3.714 3.554 3.574 3.494 3.224 3.044 2.924 2.664 2.344 2.154
3018.850 1.964 1.694 1.574 1.484 1.354 1.1992 1.0778 1.0198 1.0484 0.9205
3038.140 0.7767 0.8256 0.8632 0.8858 0.901 1.1448 1.434 1.524 1.694 2.004
3057.430 2.274 2.534 2.924 3.204 3.344 3.384 3.444 3.604 3.804 3.844
3076.720 3.684 3.724 3.744 3.504 3.304 3.074 2.754 2.504 2.194 1.784
3096.009 1.424 1.1362 0.9179 0.7165 0.6669 0.7273 0.8254 0.8349 0.8005 0.8597
3115.299 0.9145 0.9001 0.8836 1.0053 1.1335 1.1214 1.0679 0.9109 0.8486 1.0174
3134.589 0.9093 0.751 0.7313 0.5713 0.5536 0.5656 0.4772 0.4318 0.31117 0.30895
3153.879 0.2941 0.2521 0.32882 0.2707 0.163 0.3005 0.2162 0.011 0.116 0.30541
3173.169 0.4991 0.4782 0.2891 0.2265 0.2171 0.2978 0.3023 0.1 0.106 0.163
3192.458 0.168 0.2908 0.35817 0.239 0.072 0.2523 0.2984 0.102 0.217 0.2637
3211.748 0.16 0.145 0.109 0.091 0.082 0 0.035 0.142 0.15 0.065
3231.038 0.159 0.2778 0.3564 0.4179 0.224 0.2254 0.2573 0.123 0.2437 0.38911
3250.328 0.2378 0.12 0.207 0.148 0.039 0.164 0.262 0.204 0.2531 0.194
3269.617 0.186 0.316024 0.33905 0.287 0.2401 0.3062 0.30789 0.36012 0.2608 0.2703
3288.907 0.3271 0.197 0.219 0.2873 0.2677 0.2639 0.2928 0.2994 0.4522 0.44
3308.197 0.32919 0.317996 0.4269 0.5624 0.4771 0.35742 0.36167 0.4173 0.40058 0.2602
3327.487 0.2341 0.3828 0.3838 0.36357 0.39367 0.37469 0.3276 0.2728 0.34355 0.40198
3346.777 0.4403 0.4993 0.4285 0.5603 0.5803 0.4825 0.4905 0.32988 0.4338 0.4426
3366.066 0.3353 0.35822 0.36001 0.2698 0.248 0.4594 0.6932 0.8318 0.7395 0.6088
3385.356 0.5309 0.5282 0.34954 0.192 0.31878 0.37945 0.39721 0.5397 0.6562 0.5601
3404.646 0.4437 0.496 0.4644 0.39136 0.5154 0.6043 0.4437 0.36134 0.5389 0.6312
3423.936 0.5446 0.6358 0.7008 0.4484 0.32545 0.40796 0.5373 0.598 0.5536 0.5352
3443.225 0.5854 0.5608 0.5136 0.6376 0.6172 0.4234 0.4662 0.6373 0.5952 0.4784
3462.515 0.5867 0.6779 0.5647 0.4446 0.481 0.5507 0.4751 0.4916 0.4946 0.4441
3481.805 0.4946 0.4558 0.4034 0.34898 0.39622 0.4434 0.4785 0.5625 0.4817 0.5017
3501.095 0.5854 0.4338 0.38534 0.5163 0.4607 0.2666 0.3289 0.4366 0.34425 0.2958
3520.385 0.31053 0.418 0.524 0.5619 0.5817 0.4291 0.37424 0.5932 0.7026 0.6947
3539.674 0.5543 0.5782 0.5413 0.3466 0.457 0.6163 0.7479 0.716 0.7232 0.7933
3558.964 0.5695 0.569 0.663 0.6235 0.704 0.7249 0.7869 0.9084 0.9887 1.0035
3578.254 1.1608 1.2743 1.334 1.574 1.474 1.334 1.524 1.584 1.464 1.374
3597.544 1.534 1.634 1.604 1.604 1.654 1.584 1.404 1.404 1.474 1.644
3616.833 1.894 2.094 2.374 2.804 3.394 4.234 5.174 6.274 7.424 8.514
3636.123 9.794 11.094 12.044 12.514 12.524 12.194 11.694 10.744 9.374 8.094
3655.413 7.034 6.004 4.924 4.174 3.644 3.144 2.774 2.414 2.094 2.014
3674.703 1.824 1.574 1.564 1.464 1.454 1.444 1.464 1.414 1.474 1.664
3693.993 1.724 1.794 1.744 1.824 1.984 2.124 1.944 1.724 1.774 1.644
3713.282 1.444 1.2342 1.1878 1.1963 1.0746 0.9849 0.7552 0.6397 0.7628 0.7289
3732.572 0.5629 0.6007 0.7181 0.7735 0.6421 0.32983 0.5236 0.7485 0.678 0.5916
3751.862 0.5069 0.5862 0.6061 0.5177 0.40412 0.4703 0.5989 0.6098 0.5861 0.6535
3771.152 0.6378 0.4744 0.40386 0.4389 0.4954 0.47 0.4199 0.2747 0.3255 0.5257
3790.441 0.6548 0.6322 0.4959 0.4915 0.5875 0.5484 0.5156 0.5562 0.5737 0.5908
3809.731 0.6475 0.7848 0.6292 0.546 0.4794 0.38865 0.4425 0.40252 0.5267 0.667
3829.021 0.8344 0.8216 0.7487 0.7332 0.7137 0.7659 0.7768 0.8539 0.7357 0.6426
3848.311 0.6754 0.825 0.7635 0.6541 0.6461 0.6709 0.7765 0.7596 0.6505 0.5981
3867.601 0.5517 0.7208 0.9746 0.8857 0.6457 0.6602 0.69 0.6651 0.7313 0.681
3886.890 0.6454 0.6435 0.7143 0.7497 0.725 0.7055 0.6343 0.568 0.5667 0.5868
3906.180 0.573 0.5053 0.4503 0.5525 0.6204 0.4827 0.473 0.5669 0.5313 0.4547
3925.470 0.4503 0.4314 0.4927 0.4988 0.39528 0.32998 0.4746 0.5823 0.4958 0.5267
3944.760 0.5559 0.5121 0.5095 0.5113 0.36712 0.4616 0.5122 0.30588 0.4171 0.4536
3964.049 0.38566 0.40892 0.33649 0.2775 0.315492 0.6545 0.6578 0.314496 0.4399 0.4761
3983.339 0.4246 0.5207 0.5893 0.5687 0.5112 0.5248 0.5057 0.4442 0.39413 0.317185
##END=
