##TITLE=3-Ethyl-4-heptanone
##JCAMP-DX=4.24
##DATA TYPE=INFRARED SPECTRUM
##ORIGIN=NIST Mass Spectrometry Data Center
##OWNER=NIST Standard Reference Data Program
Collection (C) 2018 copyright by the U.S. Secretary of Commerce
on behalf of the United States of America. All rights reserved.
##CAS REGISTRY NO=1528-25-2
##MOLFORM=C 9 H 18 O
##$NIST SOURCE=MSDC-IR
##SPECTROMETER/DATA SYSTEM=HP-GC/MS/IRD
##STATE=gas
##XUNITS=1/CM
##YUNITS=ABSORBANCE
##XFACTOR=1.0
##YFACTOR=0.000003100
##DELTAX=4.0
##FIRSTX=550.0
##LASTX=3846.0
##FIRSTY=0.000598
##MAXX=3846
##MINX=550
##MAXY=0.031
##MINY=0
##NPOINTS=825
##XYDATA=(X++(Y..Y))
550.0 193 101 34 61 53 68 99 104 106 110
590.0 94 91 84 71 74 67 57 58 74 68
630.0 43 37 49 51 40 45 59 43 19 21
670.0 10 9 37 42 22 12 21 31 48 70
710.0 87 88 85 97 101 114 135 144 135 125
750.0 137 161 183 210 239 268 307 327 329 351
790.0 373 397 428 443 437 399 373 346 299 256
830.0 230 218 200 196 199 202 215 224 241 258
870.0 267 267 258 242 220 204 195 184 183 189
910.0 183 172 160 149 139 124 109 94 87 84
950.0 81 77 74 75 78 97 120 142 176 229
990.0 310 406 516 632 746 852 947 1031 1105 1154
1030.0 1162 1131 1077 997 918 837 753 686 617 544
1070.0 490 461 445 452 480 517 578 660 733 805
1110.0 886 947 963 921 830 726 642 590 590 642
1150.0 738 844 944 1002 1009 973 905 813 694 576
1190.0 473 392 328 285 273 271 270 282 287 283
1230.0 296 332 379 422 480 559 642 727 794 822
1270.0 817 788 750 712 677 644 606 567 526 488
1310.0 454 437 449 483 530 590 656 738 847 964
1350.0 1073 1173 1244 1289 1309 1298 1297 1307 1311 1291
1390.0 1224 1095 939 815 739 704 679 654 638 634
1430.0 645 688 775 919 1102 1325 1529 1684 1745 1682
1470.0 1520 1278 1019 782 595 459 368 306 264 219
1510.0 189 177 152 136 127 117 116 110 99 99
1550.0 102 96 87 87 93 97 90 85 92 91
1590.0 89 88 84 90 101 98 95 101 109 115
1630.0 115 117 123 131 145 159 175 200 236 279
1670.0 334 400 477 576 716 913 1209 1672 2355 3219
1710.0 4166 5002 5494 5405 4653 3571 2518 1659 1087 747
1750.0 554 440 355 283 229 187 155 134 114 95
1790.0 81 75 74 67 65 60 50 46 42 34
1830.0 31 29 30 27 25 25 27 28 22 21
1870.0 22 26 29 24 21 23 18 14 18 14
1910.0 18 19 16 17 14 11 10 9 6 9
1950.0 11 9 8 4 8 12 11 11 9 7
1990.0 2 0 8 9 6 8 5 5 10 8
2030.0 10 16 17 16 9 11 16 15 14 13
2070.0 15 15 13 16 15 15 18 15 13 14
2110.0 8 6 10 11 10 9 13 14 12 14
2150.0 15 15 12 13 18 16 11 14 17 15
2190.0 12 6 11 20 20 19 11 10 15 10
2230.0 6 12 13 14 20 20 18 17 18 19
2270.0 20 21 21 22 24 24 18 17 18 17
2310.0 18 20 20 18 24 27 24 23 21 19
2350.0 22 26 27 25 23 27 30 33 35 34
2390.0 34 31 29 29 30 34 32 27 26 21
2430.0 16 14 18 21 15 19 23 22 23 26
2470.0 22 17 17 22 24 22 23 25 22 21
2510.0 25 20 17 24 22 19 20 19 25 28
2550.0 26 23 25 31 33 41 43 37 38 37
2590.0 37 38 35 36 41 42 42 39 35 41
2630.0 47 52 52 52 56 61 68 74 70 75
2670.0 76 77 84 83 82 79 85 92 88 85
2710.0 98 112 114 123 135 148 155 171 199 213
2750.0 218 219 215 209 207 215 225 239 254 267
2790.0 288 306 322 340 365 389 403 425 457 492
2830.0 538 596 668 749 850 978 1159 1429 1786 2218
2870.0 2757 3385 3998 4460 4683 4651 4419 4092 3832 3732
2910.0 3757 3931 4279 4784 5412 6096 6695 7062 7142 7024
2950.0 6867 6885 7318 8211 9286 10000 9862 8832 7188 5424
2990.0 3951 2886 2180 1711 1388 1152 988 851 736 658
3030.0 600 546 497 459 433 406 384 361 340 325
3070.0 313 300 282 265 262 259 241 236 233 228
3110.0 220 212 208 201 193 194 196 179 165 165
3150.0 164 155 148 143 136 134 122 113 113 110
3190.0 100 81 75 73 64 64 59 59 56 44
3230.0 49 55 46 47 51 45 40 29 23 24
3270.0 29 30 26 26 23 21 28 26 26 23
3310.0 20 28 30 23 23 27 27 29 26 25
3350.0 28 33 33 29 25 26 37 38 39 49
3390.0 57 59 64 73 82 98 102 106 110 109
3430.0 107 99 81 68 70 64 54 50 35 28
3470.0 34 29 17 12 13 16 19 18 25 23
3510.0 15 18 21 19 15 9 5 7 6 6
3550.0 9 10 9 13 9 17 26 22 22 20
3590.0 16 17 24 27 24 24 22 19 28 28
3630.0 17 27 32 37 33 32 32 17 19 23
3670.0 12 20 26 40 44 32 35 39 35 38
3710.0 35 32 28 29 37 38 31 38 40 17
3750.0 23 42 38 42 46 44 37 43 59 65
3790.0 64 53 48 45 51 60 48 34 37 38
3830.0 48 46 38 34 25
##END=
