##TITLE=Napropamide
##JCAMP-DX=4.24
##DATA TYPE=INFRARED SPECTRUM
##ORIGIN=NIST Mass Spectrometry Data Center
##OWNER=NIST Standard Reference Data Program
Collection (C) 2018 copyright by the U.S. Secretary of Commerce
on behalf of the United States of America. All rights reserved.
##CAS REGISTRY NO=15299-99-7
##MOLFORM=C 17 H 21 N O 2
##SOURCE REFERENCE=No.289949 (NIST/EPA/NIH MS Database)
##$NIST SOURCE=MSDC-IR
##SPECTROMETER/DATA SYSTEM=HP-GC/MS/IRD
##STATE=gas
##XUNITS=1/CM
##YUNITS=ABSORBANCE
##XFACTOR=1.0
##YFACTOR=0.000007700
##DELTAX=4.0
##FIRSTX=550.0
##LASTX=3846.0
##FIRSTY=0.002657
##MAXX=3846
##MINX=550
##MAXY=0.077
##MINY=0
##NPOINTS=825
##XYDATA=(X++(Y..Y))
550.0 345 286 316 480 593 559 403 266 175 138
590.0 123 127 131 135 147 171 200 218 239 268
630.0 301 325 331 325 310 273 225 159 87 39
670.0 12 5 9 19 23 35 54 88 141 214
710.0 303 365 437 552 730 892 904 789 717 772
750.0 963 1417 2407 4013 5399 5311 3980 2892 2837 3417
790.0 3638 3045 2146 1440 942 604 397 274 206 173
830.0 152 141 149 171 207 246 264 265 248 233
870.0 254 330 455 572 594 503 372 288 268 293
910.0 368 493 658 782 787 689 544 412 332 296
950.0 270 255 245 220 174 144 137 148 178 217
990.0 272 352 452 592 816 1143 1422 1496 1418 1378
1030.0 1441 1522 1565 1621 1726 1915 2182 2485 2777 2991
1070.0 3157 3385 3740 4285 5220 6775 8687 10000 9760 8141
1110.0 6271 4875 3912 3170 2547 2012 1585 1323 1254 1375
1150.0 1851 2618 2973 2543 1963 1943 2266 2409 2153 1683
1190.0 1348 1250 1343 1604 2016 2516 2965 3340 3868 4823
1230.0 6079 6927 6647 5500 4531 4447 5224 6310 6859 6280
1270.0 4966 3835 3204 2857 2600 2348 2112 1957 1923 1966
1310.0 1961 1836 1633 1447 1343 1325 1392 1549 1782 2017
1350.0 2156 2188 2210 2327 2568 2990 3679 4509 5147 5483
1390.0 5850 6546 6987 6303 4851 3887 3851 4231 4559 4644
1430.0 4466 4159 3957 3928 3903 3833 3973 4468 4819 4456
1470.0 3564 2771 2287 1952 1691 1552 1587 1814 2125 2257
1510.0 2027 1570 1155 876 692 573 505 470 453 467
1550.0 518 622 822 1186 1790 2587 3328 3694 3515 2968
1590.0 2443 2122 1819 1434 1111 977 1014 1151 1330 1508
1630.0 1662 1831 2120 2692 3756 5435 7392 8673 8624 7784
1670.0 7223 7380 7877 7936 7063 5567 4045 2822 1957 1417
1710.0 1101 910 775 671 589 529 482 436 394 357
1750.0 332 316 298 277 252 225 201 185 174 168
1790.0 170 181 191 191 184 173 178 201 225 239
1830.0 235 207 169 139 115 94 80 71 60 53
1870.0 50 49 54 66 81 109 147 191 227 238
1910.0 227 214 204 193 174 163 161 168 174 167
1950.0 149 121 93 73 57 46 39 33 29 30
1990.0 32 33 31 31 33 32 30 27 27 28
2030.0 24 22 20 16 15 15 16 17 18 20
2070.0 23 30 36 40 44 49 50 46 46 44
2110.0 41 38 34 30 23 19 19 13 11 13
2150.0 9 8 10 10 11 12 12 10 10 10
2190.0 6 5 6 5 8 10 13 14 16 16
2230.0 15 16 18 22 25 25 24 24 26 25
2270.0 24 30 31 31 33 34 36 41 45 47
2310.0 53 59 65 62 56 52 51 49 47 47
2350.0 43 40 43 41 39 39 33 30 32 32
2390.0 32 37 39 41 48 51 56 55 52 46
2430.0 44 40 39 39 39 43 46 48 46 46
2470.0 47 50 53 53 49 47 46 47 48 48
2510.0 48 47 47 52 52 49 44 40 36 33
2550.0 35 34 31 28 28 28 26 26 26 32
2590.0 32 29 32 36 39 43 39 37 39 41
2630.0 47 51 51 51 57 56 53 53 51 53
2670.0 55 60 68 70 73 80 84 85 87 85
2710.0 83 89 97 99 100 101 100 102 103 108
2750.0 106 98 99 102 103 107 115 122 128 138
2790.0 150 162 171 183 201 220 235 253 271 291
2830.0 315 340 365 390 418 457 515 590 694 834
2870.0 1024 1272 1550 1787 1914 1916 1864 1819 1797 1796
2910.0 1817 1851 1908 2021 2232 2587 3117 3744 4152 4065
2950.0 3574 3026 2696 2666 2935 3445 4032 4438 4527 4413
2990.0 4200 3814 3221 2599 2098 1747 1483 1278 1135 1061
3030.0 1057 1098 1180 1331 1607 2099 2768 3333 3482 3159
3070.0 2566 1981 1593 1408 1301 1187 1032 848 662 507
3110.0 395 314 264 230 202 188 178 163 151 148
3150.0 147 146 142 138 129 119 117 108 99 91
3190.0 83 74 66 65 66 65 60 64 57 41
3230.0 34 32 32 31 28 27 25 25 30 31
3270.0 26 32 38 36 40 49 56 56 63 65
3310.0 66 62 62 66 66 64 57 63 65 61
3350.0 61 56 50 43 38 33 27 27 22 21
3390.0 23 15 10 10 7 7 8 9 8 4
3430.0 2 2 7 5 5 7 7 5 5 6
3470.0 8 8 3 0 3 6 1 2 4 1
3510.0 5 1 0 4 6 10 1 0 6 7
3550.0 10 11 0 1 10 13 9 4 3 8
3590.0 13 13 11 5 4 5 7 9 9 14
3630.0 14 12 17 15 7 11 21 16 11 16
3670.0 12 5 11 17 9 7 10 8 10 11
3710.0 14 15 19 19 10 6 10 20 22 14
3750.0 14 15 10 7 10 14 15 20 23 22
3790.0 26 36 32 27 26 24 24 21 16 21
3830.0 31 40 40 35 41
##END=
