##TITLE=1,1-Diphenylpropane
##JCAMP-DX=4.24
##DATA TYPE=INFRARED SPECTRUM
##ORIGIN=EPA-IR VAPOR PHASE LIBRARY
##OWNER=SRD/NIST
Collection (C) 2018 copyright by the U.S. Secretary of Commerce
on behalf of the United States of America. All rights reserved.
##CAS REGISTRY NO=1530-03-6
##MOLFORM=C 15 H 16
##$NIST SOURCE=MSDC-IR
##STATE=gas
##XUNITS=1/CM
##YUNITS=ABSORBANCE
##XFACTOR=1.
##YFACTOR=0.001
##DELTAX=1.92898
##FIRSTX=549.8
##LASTX=4000.7
##FIRSTY=2.679
##MAXX=4000.7
##MINX=549.759
##MAXY=0.058989
##MINY=0
##NPOINTS=1790
##XYDATA=(X++(Y..Y))
549.759 2.679 2.319 2.079 2.089 2.119 2.369 2.449 1.849 1.979 2.429
569.049 2.709 3.059 3.269 4.119 4.899 5.689 6.939 6.809 6.979 7.499
588.339 7.469 6.959 5.929 4.599 4.209 3.539 2.009 2.149 2.189 2.169
607.628 2.669 2.999 2.979 2.929 3.199 3.719 4.149 4.729 4.639 4.589
626.918 4.889 4.969 4.969 4.809 4.859 4.649 4.449 3.789 3.129 3.009
646.208 2.959 3.489 3.719 3.749 4.079 4.049 4.639 5.279 5.589 6.179
665.498 6.369 7.049 7.249 6.969 8.029 9.649 10.749 11.529 13.339 16.229
684.787 20.189 25.439 32.199 40.109 47.969 54.709 58.499 58.989 58.129 54.939
704.077 48.799 41.499 34.769 29.079 24.369 21.519 19.359 17.599 16.879 16.579
723.367 16.529 16.819 17.369 17.929 18.199 18.969 19.519 19.619 20.429 21.589
742.657 21.749 21.709 21.869 20.889 20.029 19.549 18.969 18.339 17.999 18.019
761.947 18.049 17.399 16.049 14.779 13.629 12.179 10.279 8.629 6.839 5.339
781.236 4.649 4.329 3.949 3.069 2.849 3.219 3.119 3.099 2.759 2.779
800.526 3.129 2.669 2.189 2.249 2.619 2.509 2.009 1.649 1.919 2.349
819.816 1.769 1.649 1.4539 1.2748 2.059 1.919 1.699 1.2313 1.273 1.999
839.106 2.329 2.379 2.299 2.249 2.309 2.899 3.269 2.769 2.749 2.579
858.395 1.919 1.4562 1.669 2.269 2.019 1.879 1.5394 1.5786 2.029 1.879
877.685 1.5785 1.859 1.899 1.639 1.769 1.809 2.309 2.749 2.919 3.099
896.975 3.129 3.369 3.309 3.129 3.109 3.159 2.809 2.519 2.209 2.029
916.265 2.229 1.949 1.769 1.839 1.689 1.679 1.649 1.839 1.949 1.4677
935.555 1.2689 1.3359 1.2613 1.413 1.4821 1.0603 0.9692 0.87 0.590918 0.9636
954.844 1.0249 0.9611 1.2604 1.609 1.619 1.4493 1.5879 1.1504 0.8617 0.8737
974.134 0.8122 0.8236 1.2621 1.4392 1.051 1.1834 1.3652 1.2987 1.5197 1.4458
993.424 1.399 1.809 1.999 1.829 1.719 1.939 2.379 2.789 2.329 2.069
1012.714 2.499 2.369 2.419 3.729 5.349 6.549 7.989 8.899 9.369 9.629
1032.003 9.449 9.019 7.339 6.039 4.899 3.219 2.399 2.149 2.389 2.429
1051.293 2.939 2.949 2.999 3.899 4.349 4.049 3.529 4.049 3.789 2.869
1070.583 3.039 4.269 5.139 4.209 3.829 4.029 2.789 2.639 3.769 3.439
1089.873 3.209 3.319 3.369 3.619 3.509 2.699 2.339 2.909 2.509 3.519
1109.163 4.659 4.649 5.519 5.299 4.299 4.029 3.969 3.699 3.879 3.529
1128.452 2.239 1.3661 1.5749 1.4757 1.1301 1.699 1.5491 0.9439 0.5538 0.143
1147.742 1.1081 1.4778 1.0965 1.889 2.619 2.129 2.129 2.369 1.809 1.619
1167.032 1.799 2.089 1.849 1.969 2.279 2.129 2.069 2.159 2.449 2.459
1186.322 1.969 2.399 2.669 2.439 2.249 1.719 2.149 1.809 0.7781 1.619
1205.611 2.539 1.759 1.281 2.659 3.379 3.209 2.469 1.1008 1.669 2.849
1224.901 2.179 2.459 2.419 2.059 2.469 2.699 3.159 2.689 2.579 2.229
1244.191 2.409 2.869 2.649 2.889 2.789 2.729 2.929 2.669 2.509 2.619
1263.481 2.419 2.439 2.419 1.919 2.299 2.949 2.689 2.459 2.319 2.229
1282.771 2.639 2.809 2.819 2.809 2.609 2.659 2.659 2.779 2.859 3.139
1302.060 3.359 3.479 3.499 3.479 3.569 3.629 3.899 3.759 3.609 3.809
1321.350 3.869 3.869 3.999 3.899 3.629 3.439 3.209 3.209 3.399 3.339
1340.640 3.209 3.259 3.339 3.419 3.369 3.219 3.149 3.119 3.029 2.869
1359.930 2.779 2.839 2.769 2.709 2.829 3.009 3.229 3.529 3.839 4.029
1379.219 4.239 4.569 4.789 4.919 4.969 4.649 4.219 3.639 3.049 2.759
1398.509 2.549 2.419 2.329 2.119 2.129 2.219 2.299 2.399 2.469 2.649
1417.799 2.699 2.729 2.729 2.839 2.989 3.109 3.579 4.109 4.599 5.269
1437.089 6.079 7.109 8.229 9.259 10.559 11.859 12.859 13.569 13.869 13.659
1456.378 12.989 12.589 12.259 11.419 10.569 9.989 9.459 9.019 8.639 8.219
1475.668 8.259 8.859 9.779 11.299 13.299 16.089 19.229 21.829 23.709 24.509
1494.958 24.119 22.369 19.709 16.539 13.119 10.109 7.939 6.309 5.179 4.539
1514.248 4.029 3.779 3.529 3.159 3.049 2.819 2.719 2.839 2.789 2.669
1533.538 2.599 2.509 2.469 2.249 2.039 2.219 2.059 1.939 2.059 2.099
1552.827 2.189 2.139 2.209 2.359 2.179 2.329 2.659 2.859 3.229 3.449
1572.117 3.769 4.259 4.659 5.389 6.199 7.189 8.259 9.259 10.329 11.149
1591.407 12.219 13.449 14.209 14.519 14.359 13.959 13.279 11.919 10.329 8.889
1610.697 7.369 6.089 5.069 4.249 3.629 3.239 2.969 2.639 2.439 2.439
1629.986 2.269 1.949 1.849 1.799 1.859 1.829 1.699 1.729 1.659 1.5873
1649.276 1.779 1.889 1.779 1.699 1.759 1.759 1.709 1.649 1.5866 1.849
1668.566 1.969 1.879 1.879 1.759 1.679 1.669 1.5739 1.4036 1.3186 1.4188
1687.856 1.4478 1.3846 1.5111 1.4088 1.2501 1.4292 1.3468 1.2741 1.2415 1.3131
1707.146 1.5439 1.5715 1.4701 1.366 1.4372 1.562 1.699 1.769 1.779 1.839
1726.435 1.799 1.759 1.959 1.969 1.909 1.979 2.059 2.139 2.029 1.979
1745.725 1.909 1.769 1.749 1.729 1.719 1.619 1.619 1.669 1.689 1.699
1765.015 1.649 1.819 2.049 1.989 1.969 2.189 2.329 2.329 2.409 2.729
1784.305 2.969 3.319 3.799 4.189 4.449 4.419 4.309 4.219 3.919 3.479
1803.594 3.109 2.789 2.689 2.499 2.169 1.919 1.919 1.889 1.679 1.709
1822.884 1.779 1.729 1.629 1.4408 1.4121 1.4415 1.503 1.5579 1.4878 1.5443
1842.174 1.599 1.599 1.639 1.809 1.919 1.949 2.019 2.119 2.369 2.589
1861.464 2.659 2.609 2.649 2.729 2.819 2.899 2.879 2.859 2.899 2.849
1880.754 2.679 2.769 2.699 2.389 2.309 2.219 2.019 1.899 1.829 1.969
1900.043 1.879 1.5348 1.5597 1.5787 1.589 1.709 1.619 1.629 1.839 1.899
1919.333 1.989 2.099 2.309 2.569 2.629 2.739 3.179 3.519 3.679 3.749
1938.623 3.729 3.819 3.859 3.869 3.789 3.639 3.459 3.299 3.189 3.029
1957.913 2.759 2.289 1.809 1.5378 1.4243 1.3532 1.1865 1.1559 1.2403 1.189
1977.202 1.182 1.1329 1.0024 1.0359 0.9915 0.9919 0.9978 0.9523 0.982 0.9354
1996.492 0.7928 0.68603 0.62291 0.7141 0.8394 0.7507 0.7161 0.8453 0.866 0.7845
2015.782 0.8731 0.8485 0.63645 0.5163 0.62936 0.8393 0.8151 0.8468 0.8957 0.7826
2035.072 0.7587 0.7694 0.7198 0.7565 0.8533 0.7865 0.64679 0.66103 0.67936 0.749
2054.362 0.7985 0.64207 0.6318 0.793 0.7636 0.58477 0.527 0.486 0.65996 0.66665
2073.651 0.5662 0.7239 0.7102 0.67184 0.8151 0.9042 0.7844 0.7523 0.7991 0.8692
2092.941 0.8896 0.782 0.7463 0.7482 0.5589 0.484 0.5579 0.60762 0.7494 0.7119
2112.231 0.60384 0.5472 0.509 0.68244 0.8491 0.7549 0.63496 0.5279 0.5764 0.7985
2131.521 0.7989 0.705 0.7284 0.8167 0.8517 0.7222 0.5276 0.5358 0.65928 0.61902
2150.810 0.5292 0.62146 0.7952 0.65869 0.5272 0.6963 0.8306 0.7835 0.64915 0.68238
2170.100 0.7267 0.58722 0.531 0.7473 0.8158 0.8194 0.9622 0.8356 0.8285 0.8324
2189.390 0.8277 0.9347 0.8385 0.7866 0.8578 0.7768 0.62934 0.68174 0.8078 0.8727
2208.680 0.8366 0.947 1.027 0.9007 0.8221 0.8423 0.8061 0.62657 0.60611 0.8357
2227.970 0.8585 0.9165 0.965 0.8469 0.7126 0.7221 0.828 0.8319 0.8324 0.846
2247.259 0.9115 0.9756 1.0643 0.9934 0.8581 0.7188 0.64094 0.7389 0.7586 0.7826
2266.549 0.8159 0.8636 0.7951 0.63307 0.7803 0.8056 0.7123 0.7693 0.6905 0.69
2285.839 0.9027 0.9084 0.8772 0.9697 0.9813 0.9459 0.7966 0.7736 0.9866 0.9661
2305.129 0.8545 1.106 1.423 1.4802 1.3654 1.2964 1.0698 0.9513 0.9762 0.7972
2324.418 0.6929 0.7906 0.8453 0.8506 0.9482 1.0483 1.0865 1.0531 1.177 1.3255
2343.708 1.1577 0.9493 0.9508 1.0712 1.0523 1.0158 1.0064 0.8896 0.9509 0.8258
2362.998 0.7962 1.0594 0.9639 0.8346 0.9618 1.116 1.1497 1.1093 0.9538 0.8561
2382.288 0.8395 0.9254 1.0398 1.1815 1.1886 0.8793 0.8504 0.977 1.0692 1.0639
2401.578 1.0363 1.1736 1.2233 1.1445 1.0772 0.9774 1.0969 1.1965 1.1216 1.0109
2420.867 0.8162 0.8826 0.8697 0.8773 1.0485 1.0047 1.1179 1.0579 0.7893 0.835
2440.157 0.9907 1.1033 1.074 0.9711 0.9229 0.8422 0.9097 0.9545 0.8838 1.0126
2459.447 0.9931 0.8744 0.855 0.8047 0.924 0.9523 0.8173 0.7543 0.7022 0.7998
2478.737 0.7366 0.7243 0.8671 0.9002 0.9782 0.9914 1.1014 0.8178 0.7967 0.8854
2498.026 0.7136 0.7384 0.62335 0.7086 0.7645 0.8552 0.8181 0.7977 0.8845 0.8646
2517.316 0.8912 0.8749 0.8601 0.8082 0.67863 0.65915 0.933 1.3193 1.2712 1.1975
2536.606 0.9826 0.8075 0.8674 0.9321 0.8803 0.65426 0.8138 1.0036 1.0185 0.9461
2555.896 0.9413 0.8758 0.8104 0.7505 0.7969 1.1447 1.2933 1.108 0.919 0.8365
2575.186 0.9067 1.0717 1.0039 1.0182 1.2351 1.266 1.204 1.1183 1.2226 1.1502
2594.475 0.8315 0.8454 1.0862 1.1737 1.0369 1.1338 1.3558 1.3347 1.2417 1.1168
2613.765 1.1501 1.178 1.0873 0.9511 0.8034 0.7899 0.8837 0.9258 0.9398 1.128
2633.055 1.0394 0.8152 0.9041 1.0212 1.0537 0.9745 1.0583 1.217 0.9149 0.8352
2652.345 1.0812 0.9142 0.9526 1.0549 0.9313 0.8668 0.8653 0.9222 0.8735 0.7737
2671.634 0.7482 0.7722 0.8679 1.149 1.1829 0.8494 0.8214 0.9333 0.9638 1.0366
2690.924 1.0612 1.1412 1.1562 1.2167 1.2966 0.9893 0.7912 0.8834 0.7602 0.9004
2710.214 0.974 1.08 1.2064 1.1677 1.0067 0.9209 1.0876 1.0413 1.2353 1.3644
2729.504 1.1828 1.2057 1.38 1.3241 1.2543 1.3912 1.4983 1.609 1.859 1.889
2748.794 1.669 1.3287 1.2813 1.2695 1.3896 1.272 0.956 1.1232 1.2745 1.3895
2768.083 1.4409 1.4312 1.2572 1.1637 1.2594 1.4001 1.4393 1.5525 1.5756 1.4311
2787.373 1.659 1.989 1.979 1.869 1.959 1.919 1.669 1.599 1.819 2.079
2806.663 1.979 1.689 1.387 1.2845 1.3315 1.4989 1.719 1.869 2.079 2.149
2825.953 2.039 1.989 2.229 2.489 2.539 2.509 2.579 2.829 2.839 2.879
2845.242 3.029 2.899 3.069 3.689 3.899 4.329 4.569 4.789 5.199 5.719
2864.532 6.879 8.339 9.829 11.739 13.819 15.799 18.539 21.299 23.239 24.409
2883.822 24.949 25.069 24.409 22.629 20.239 18.009 15.909 14.119 12.869 11.639
2903.112 10.639 10.119 9.899 9.939 9.779 9.539 9.599 9.669 10.099 11.289
2922.401 12.789 14.459 16.619 19.069 22.129 25.649 29.169 31.909 33.459 34.189
2941.691 33.859 32.499 29.889 27.149 25.019 22.849 21.319 20.759 21.409 22.749
2960.981 24.729 27.479 30.249 32.919 34.919 36.029 36.359 35.659 33.579 30.789
2980.271 27.689 23.949 20.069 16.519 13.609 11.409 9.719 8.789 8.429 8.139
2999.561 8.159 8.319 8.839 9.199 9.729 10.629 11.439 12.479 14.049 15.869
3018.850 18.319 21.319 24.769 28.229 30.699 32.829 34.559 34.979 34.079 32.509
3038.140 30.499 28.429 26.089 23.989 22.519 21.759 21.229 21.079 21.519 22.899
3057.430 25.289 27.869 31.639 35.949 39.659 42.519 43.639 43.179 41.799 39.129
3076.720 35.209 31.569 28.819 26.499 24.699 23.249 22.279 21.139 19.639 18.119
3096.009 16.939 15.479 13.959 12.939 11.789 10.889 9.949 8.939 8.119 7.169
3115.299 6.429 5.789 5.339 4.639 3.659 3.669 3.339 3.249 3.489 2.879
3134.589 2.519 2.619 2.339 1.899 1.709 1.859 2.119 2.129 2.059 1.799
3153.879 1.849 1.919 1.629 1.4955 1.5507 1.599 1.4792 1.3959 1.2825 1.174
3173.169 1.1607 0.652 0.8135 1.2213 0.9254 1.0158 1.2885 1.291 1.1448 0.8613
3192.458 0.65596 0.9433 1.1788 0.7845 0.61464 0.7925 0.8276 0.7966 0.8541 1.0477
3211.748 0.8701 0.7455 0.7673 1.2231 1.4635 1.0669 0.9313 0.8829 0.7888 0.8678
3231.038 0.8369 0.441 0.5252 0.93 0.9242 0.8679 0.9383 1.0855 1.1845 0.9675
3250.328 0.8266 0.9341 0.9798 0.67599 0.36 0.64792 0.7789 0.6272 0.6794 0.276
3269.617 0.324 0.815 0.403 0.203 0.6857 1.1141 0.8502 0.292 0.45 1.0113
3288.907 0.8238 0.455 0.63393 0.64237 0.5558 0.58427 0.7241 0.358 0.395 0.6912
3308.197 0.7624 1.0234 1.0632 0.9745 0.8462 0.8258 0.8167 0.414 0.267 0.6993
3327.487 0.67744 0.463 0.7023 0.7129 0.156 0.281 0.966 1.0069 1.119 0.9197
3346.777 0.391 0.4935 0.61256 0.431 0.6755 0.9851 0.8149 0.7587 0.5411 0.595796
3366.066 0.378 0.354 0.439 0.307 0.61231 0.856 0.8672 0.66527 1.0432 1.3205
3385.356 0.8279 0.6269 0.9915 1.0434 0.717 0.477 0.5248 0.808 0.66837 0.7242
3404.646 1.042 0.7827 0.8855 1.1606 0.9267 0.61181 0.5733 0.806 1.0474 0.794
3423.936 0.591875 0.7414 0.45 0.201 0.8698 1.1813 0.9164 0.58421 0.338 0.590661
3443.225 0.403 0.57996 0.58378 0.437 0.68031 0.9514 1.114 0.709 0.6948 0.9137
3462.515 0.9528 1.2186 0.7728 0.417 0.8823 0.9377 0.9747 0.7524 0.7124 1.0396
3481.805 1.1209 1.0683 0.8383 0.712 0.62555 0.5107 0.37 0.5375 0.7759 0.5525
3501.095 0.388 0.428 0.404 0.182 0.446 0.7525 0.7921 0.6898 0.5119 0.168
3520.385 0.141 0.65866 0.7107 0.64961 0.63944 0.7023 0.476 0.7273 0.9332 0.68162
3539.674 0.794 0.64735 0.7526 0.8239 0.7064 0.6893 0.465 0.218 0.163 0.264
3558.964 0.086 0.32 0.65911 0.66428 0.8703 0.9624 0.775 0.61165 0.8778 0.8792
3578.254 0.7334 0.8512 0.63843 0.5786 0.67694 0.64865 0.8352 1.2418 1.1919 0.7651
3597.544 0.7709 0.7453 1.1287 0.976 0.336 0.403 0.5606 0.706 0.8039 0.8083
3616.833 0.5746 0.7343 1.0468 0.695 1.1042 1.659 1.1044 0.7684 1.049 0.9444
3636.123 0.506 0.428 0.5022 0.446 0.479 0.6198 0.7218 0.5472 0.594653 0.8915
3655.413 1.1042 1.1148 1.0162 1.1872 0.8505 0.44 0.5227 0.60767 0.7024 0.7971
3674.703 0.173 0.056 0.48 0.7361 0.8081 0.5196 0.592184 0.436 0.68019 1.3814
3693.993 1.3222 1.0107 0.9213 0.9828 1.0367 0.7331 0.6648 0.9913 0.9689 0.429
3713.282 0.501 0.8835 1.0248 1.0097 0.8873 0.9363 0.7378 0.694 0.7474 0.5027
3732.572 0.487 0.7411 0.66094 0.425 0.7879 0.9107 0.5621 0.7143 0.995 0.918
3751.862 0.9264 0.9252 0.7769 0.8412 0.7397 0.8585 0.9125 0.7162 0.62768 0.328
3771.152 0.535 0.8036 0.7086 0.8481 1.2652 1.1614 0.58311 0.451 0.591746 0.63665
3790.441 0.7551 1.183 0.9616 0.5786 0.8911 1.035 0.531 0.5235 0.8927 1.0004
3809.731 0.8091 0.9436 1.4477 1.1203 1.0917 1.2757 1.0807 1.3075 0.8931 0.15
3829.021 0.178 0.338 0.267 0.4944 0.5639 0.5163 0.439 0.412 0.7438 0.8027
3848.311 0.62881 0.5572 0.5575 0.5235 0.127 0 0.5025 0.9306 0.8164 0.8425
3867.601 0.919 0.63159 0.63374 0.7847 0.9265 0.9148 0.5397 0.5276 1.027 0.471
3886.890 0.069 0.61299 0.6354 1.0129 1.422 1.2442 1.2488 1.2407 0.9447 1.0822
3906.180 0.7229 0.443 1.0355 0.8828 1.0372 1.1545 0.8856 1.0872 0.9967 0.5434
3925.470 0.431 0.5047 0.61185 0.707 0.8011 0.8282 0.9961 1.2024 0.67146 0.455
3944.760 0.6322 0.66779 0.5285 0.4953 0.63845 0.64546 0.422 0.406 0.8646 0.9398
3964.049 1.1203 0.9359 0.67946 0.7213 0.7351 1.2417 1.38 1.0668 1.0144 0.9663
3983.339 0.7965 0.8313 0.9462 0.8604 0.9152 1.0134 1.1609 1.1285 0.9119 1.0151
##END=
