##TITLE=1,3-Diphenyl-1-butanone
##JCAMP-DX=4.24
##DATA TYPE=INFRARED SPECTRUM
##ORIGIN=EPA-IR VAPOR PHASE LIBRARY
##OWNER=SRD/NIST
Collection (C) 2018 copyright by the U.S. Secretary of Commerce
on behalf of the United States of America. All rights reserved.
##CAS REGISTRY NO=1533-20-6
##MOLFORM=C 16 H 16 O
##$NIST SOURCE=MSDC-IR
##STATE=gas
##XUNITS=1/CM
##YUNITS=ABSORBANCE
##XFACTOR=1.
##YFACTOR=0.001
##DELTAX=3.85796
##FIRSTX=551.7
##LASTX=4000.7
##FIRSTY=13.161
##MAXX=4000.7
##MINX=551.688
##MAXY=0.116641
##MINY=0
##NPOINTS=895
##XYDATA=(X++(Y..Y))
551.688 13.161 12.801 13.241 13.821 13.221 11.301 9.041 7.431 6.711 6.721
590.268 7.251 8.201 9.021 9.501 9.801 9.901 9.661 8.611 6.881 5.451
628.847 4.501 4.091 4.261 4.741 5.431 6.661 8.591 11.471 15.161 18.561
667.427 21.041 23.121 26.511 32.901 43.531 57.701 72.331 80.191 75.211 59.881
706.006 43.081 31.861 25.501 22.171 21.161 22.031 24.491 28.381 33.551 38.541
744.586 42.151 44.381 45.491 44.081 37.831 28.311 19.991 14.901 12.011 9.911
783.165 8.341 7.211 6.411 5.831 5.571 5.431 5.181 4.981 4.581 4.221
821.745 3.991 3.801 3.711 3.461 3.041 2.821 2.651 2.441 2.441 2.581
860.324 2.681 2.931 3.481 4.021 4.421 4.911 5.671 6.511 7.291 8.061
898.904 8.841 9.531 9.561 8.631 7.401 6.541 5.901 5.461 5.091 4.571
937.484 4.111 3.861 3.801 3.981 4.211 4.741 5.671 6.951 8.921 11.761
976.063 15.851 21.631 28.681 34.501 36.281 34.981 32.701 29.871 26.131 22.301
1014.643 20.341 19.311 17.961 15.901 13.071 10.441 8.561 7.431 6.861 6.831
1053.222 7.131 7.491 8.091 8.571 9.121 9.551 9.691 9.991 10.451 11.021
1091.802 11.471 11.841 11.901 11.121 9.751 8.301 6.921 5.801 4.971 4.571
1130.381 4.431 4.501 4.601 5.321 6.351 7.321 8.651 10.091 11.531 13.521
1168.961 16.841 22.811 30.721 35.571 35.031 31.741 31.301 35.561 40.381 42.241
1207.540 40.421 37.311 34.111 30.501 27.251 24.521 22.951 22.671 22.921 23.591
1246.120 25.081 27.621 31.701 37.691 44.691 49.911 51.021 49.241 47.441 46.361
1284.699 44.291 40.031 34.681 30.541 28.491 27.571 26.871 26.181 25.681 25.631
1323.279 25.901 26.091 26.181 26.451 26.721 26.581 26.271 26.521 27.351 27.591
1361.859 25.991 22.771 19.511 17.611 16.951 16.211 14.491 12.051 9.811 8.371
1400.438 7.841 7.891 8.211 8.651 9.011 9.321 9.791 10.551 11.861 14.281
1439.018 18.851 25.711 32.011 33.591 29.581 23.091 18.191 14.551 11.891 10.311
1477.597 9.861 10.861 13.451 17.061 19.381 18.501 14.841 10.631 7.511 5.851
1516.177 5.011 4.641 4.451 4.351 4.231 4.071 3.831 3.591 3.541 3.671
1554.756 3.891 4.261 4.941 6.031 7.641 9.721 11.941 13.681 15.051 16.751
1593.336 19.261 21.501 21.681 19.081 14.811 10.721 7.811 6.141 5.241 4.761
1631.915 4.611 4.751 5.151 5.741 6.591 7.651 8.951 10.361 11.981 13.931
1670.495 16.731 21.251 28.681 40.101 57.581 79.371 101.421 116.641 116.611 100.481
1709.075 75.081 50.831 33.011 21.971 15.721 11.981 9.721 8.161 7.051 6.161
1747.654 5.431 4.861 4.551 4.331 4.101 3.921 3.901 3.901 3.891 3.981
1786.234 4.311 4.841 5.251 5.431 5.321 5.011 4.511 3.791 3.101 2.591
1824.813 2.251 2.051 1.901 1.821 1.801 1.831 1.971 2.191 2.411 2.641
1863.393 2.871 3.001 3.071 3.181 3.321 3.301 3.111 2.991 2.971 2.891
1901.972 2.801 2.761 2.661 2.571 2.501 2.491 2.681 3.011 3.381 3.711
1940.552 3.921 4.131 4.461 4.641 4.461 3.931 3.331 2.891 2.471 2.001
1979.131 1.591 1.311 1.171 1.0809 0.9984 0.9005 0.8267 0.7954 0.7488 0.6922
2017.711 0.6609 0.6629 0.6397 0.6097 0.5876 0.577 0.5321 0.499 0.5111 0.5293
2056.291 0.5298 0.4981 0.4512 0.4402 0.4526 0.4196 0.4318 0.4537 0.47 0.4523
2094.870 0.4097 0.3816 0.3629 0.3871 0.4023 0.3931 0.3841 0.3506 0.2814 0.3193
2133.450 0.3558 0.3097 0.3129 0.3319 0.3129 0.2941 0.3355 0.3825 0.4047 0.4258
2172.029 0.4116 0.381 0.396 0.4097 0.4479 0.492 0.4326 0.3932 0.4107 0.3857
2210.609 0.4165 0.4679 0.4547 0.4292 0.4102 0.4342 0.491 0.5325 0.5618 0.6041
2249.188 0.6374 0.6312 0.5933 0.5842 0.6092 0.5961 0.5919 0.6425 0.6455 0.6729
2287.768 0.7295 0.7158 0.6784 0.6744 0.7519 0.8925 1.1135 1.301 1.341 1.241
2326.347 1.131 1.1043 1.123 1.181 1.171 1.1101 1.0062 0.9029 0.8235 0.7574
2364.927 0.7258 0.7282 0.7162 0.7121 0.7379 0.7524 0.7775 0.8126 0.7668 0.7214
2403.507 0.7304 0.7207 0.7095 0.6855 0.6622 0.6643 0.6868 0.6464 0.5725 0.5708
2442.086 0.6138 0.5839 0.5486 0.5436 0.5453 0.581 0.5822 0.574 0.5285 0.5184
2480.666 0.5586 0.5525 0.5856 0.6044 0.6048 0.5938 0.5341 0.4757 0.4711 0.4869
2519.245 0.4873 0.489 0.4849 0.4853 0.5065 0.5554 0.5714 0.6045 0.6569 0.6405
2557.825 0.6472 0.6448 0.6297 0.7087 0.8019 0.8402 0.8752 0.9063 0.9177 0.9368
2596.404 0.9606 0.9883 0.9569 0.8801 0.8218 0.8005 0.7935 0.8092 0.8208 0.8085
2634.984 0.7676 0.722 0.7451 0.7518 0.7492 0.7176 0.6929 0.6762 0.6434 0.6779
2673.563 0.7449 0.7827 0.8311 0.8255 0.7976 0.818 0.8111 0.8327 0.7975 0.7299
2712.143 0.7355 0.7818 0.8931 0.9593 0.9839 1.0557 1.1199 1.181 1.251 1.231
2750.722 1.231 1.211 1.181 1.221 1.231 1.271 1.321 1.351 1.381 1.371
2789.302 1.481 1.621 1.671 1.771 1.901 2.001 2.101 2.191 2.261 2.351
2827.882 2.511 2.751 3.021 3.271 3.471 3.721 4.131 4.641 5.241 6.091
2866.461 7.421 9.301 11.641 14.151 16.101 17.081 17.421 17.611 17.721 17.781
2905.041 17.801 17.801 18.081 18.561 19.321 20.541 22.201 24.061 25.331 25.241
2943.620 23.811 22.171 21.811 23.931 29.411 37.501 46.001 52.081 52.071 45.111
2982.200 34.541 24.471 17.271 13.081 11.181 10.751 11.101 11.901 13.361 16.151
3020.779 20.931 27.371 33.851 38.011 38.281 35.051 30.591 27.321 26.691 29.201
3059.359 34.781 43.201 52.131 56.321 52.871 44.801 38.121 34.731 31.651 27.181
3097.938 22.191 18.141 15.081 12.381 9.771 7.421 5.541 4.171 3.271 2.681
3136.518 2.331 2.171 2.111 2.091 2.061 2.041 2.061 2.021 1.781 1.491
3175.098 1.331 1.341 1.241 1.0809 1.0584 0.9539 0.9026 0.8963 0.842 0.8231
3213.677 0.753 0.6318 0.6179 0.6162 0.5308 0.4462 0.4005 0.38 0.3638 0.3209
3252.257 0.2911 0.3034 0.303 0.3331 0.3302 0.3051 0.3901 0.4245 0.3933 0.352
3290.836 0.2952 0.3201 0.3194 0.3413 0.311 0.22415 0.3019 0.3687 0.3446 0.3125
3329.416 0.3052 0.3752 0.4551 0.5352 0.5973 0.6638 0.8173 1.023 1.141 1.201
3367.995 1.391 1.631 1.771 1.731 1.601 1.481 1.421 1.271 1.027 0.8524
3406.575 0.6365 0.5153 0.4802 0.4106 0.4119 0.4091 0.3022 0.2299 0.2464 0.2963
3445.154 0.2475 0.21804 0.2355 0.2341 0.23022 0.22244 0.1962 0.16859 0.1043 0.0429
3483.734 0.18518 0.3031 0.2137 0.131648 0.17784 0.17158 0.0954 0.0722 0.16292 0.19283
3522.314 0.15534 0.22125 0.20304 0.15105 0.121 0.15262 0.2486 0.2541 0.2461 0.1599
3560.893 0.0796 0.062 0.014 0 0.073 0.1167 0.0615 0.0482 0.0394 0.0962
3599.473 0.18878 0.15346 0.0567 0.0352 0.13714 0.2049 0.305 0.2409 0.1193 0.2671
3638.052 0.3169 0.3467 0.3808 0.3299 0.4328 0.4426 0.3343 0.2991 0.3153 0.3333
3676.632 0.2717 0.241 0.2335 0.323 0.4483 0.4512 0.4214 0.4858 0.5096 0.3611
3715.211 0.3457 0.3941 0.2684 0.3293 0.4234 0.3595 0.3243 0.18949 0.139814 0.2762
3753.791 0.3416 0.3219 0.21565 0.19046 0.18148 0.19841 0.2526 0.2909 0.2951 0.17575
3792.370 0.20221 0.277 0.3374 0.3684 0.2973 0.2873 0.2747 0.20719 0.2664 0.3018
3830.950 0.288 0.22727 0.22413 0.2661 0.2333 0.16968 0.15371 0.20088 0.1174 0.131889
3869.530 0.2611 0.2317 0.20226 0.20854 0.20019 0.20189 0.18272 0.1033 0.12485 0.19478
3908.109 0.16546 0.255 0.2582 0.1644 0.138347 0.16612 0.2732 0.2789 0.23089 0.2378
3946.689 0.19718 0.20946 0.3092 0.3637 0.3331 0.382 0.3936 0.20286 0.1188 0.2624
3985.268 0.3777 0.4433 0.4592 0.429 0.4278
##END=
