##TITLE=3-(Trifluoromethyl)propiophenone
##JCAMP-DX=4.24
##DATA TYPE=INFRARED SPECTRUM
##ORIGIN=EPA-IR VAPOR PHASE LIBRARY
##OWNER=SRD/NIST
Collection (C) 2018 copyright by the U.S. Secretary of Commerce
on behalf of the United States of America. All rights reserved.
##CAS REGISTRY NO=1533-03-5
##MOLFORM=C 10 H 9 F 3 O
##$NIST SOURCE=MSDC-IR
##STATE=gas
##XUNITS=1/CM
##YUNITS=ABSORBANCE
##XFACTOR=1.
##YFACTOR=0.001
##DELTAX=1.92934
##FIRSTX=549.9
##LASTX=3999.5
##FIRSTY=5.27
##MAXX=3999.53
##MINX=549.863
##MAXY=0.28195
##MINY=0
##NPOINTS=1789
##XYDATA=(X++(Y..Y))
549.863 5.27 5.56 5.77 5.95 6.34 6.75 6.97 7.16 7.46 7.83
569.156 8.18 8.37 8.37 8.18 7.78 7.5 7.24 6.83 6.4 6.02
588.450 5.73 5.33 5.09 4.93 4.52 4.24 4.14 3.97 3.8 3.72
607.743 3.64 3.63 3.52 3.35 3.3 3.22 3.13 3.13 3.1 3.17
627.037 3.4 3.54 3.7 4.06 4.48 5.02 5.74 6.5 7.38 8.54
646.330 10.16 12.18 14.11 15.65 17.04 18.45 19.7 20.42 20.52 20.35
665.624 20.22 20.23 20.04 19.51 18.75 18.01 17.54 17.41 17.91 19.02
684.917 20.72 23.05 25.83 28.94 32.51 35.74 36.68 35.01 32.26 29.5
704.210 26.87 24.16 21.45 18.96 16.86 15.1 13.56 12.28 11.17 10.22
723.504 9.53 9.03 8.62 8.44 8.36 8.19 7.96 7.63 7.21 6.68
742.797 6.09 5.49 5.04 4.74 4.55 4.38 4.31 4.36 4.4 4.49
762.091 4.68 5.02 5.43 5.87 6.47 7.36 8.49 9.83 11.37 13.17
781.384 15.16 17.3 19.56 21.61 23.11 24.27 25.35 26.35 27.16 27.65
800.678 27.81 27.59 26.96 25.92 24.47 22.63 20.57 18.56 16.77 15.17
819.971 13.57 11.96 10.36 8.8 7.21 5.78 4.75 4.02 3.58 3.32
839.264 3.16 2.98 2.812 2.7254 2.6111 2.4763 2.401 2.3319 2.2932 2.2877
858.558 2.2015 2.1259 2.1262 2.1478 2.1774 2.2 2.2756 2.3257 2.3129 2.3667
877.851 2.4582 2.5831 2.7226 2.96 3.37 3.9 4.5 5.21 6.06 6.96
897.145 7.9 8.88 9.75 10.3 10.26 9.81 9.39 9.14 9.11 9.18
916.438 9.32 9.69 10.26 10.87 11.46 11.98 12.38 12.68 12.88 12.97
935.732 13.06 13.21 13.38 13.62 13.9 14.16 14.47 14.81 15.14 15.39
955.025 15.51 15.4 15.07 14.58 13.93 13.17 12.16 10.99 9.75 8.58
974.318 7.63 6.84 6.2 5.69 5.33 5.19 5.19 5.33 5.59 5.96
993.612 6.5 7.19 7.87 8.52 9.25 10.09 10.88 11.45 11.74 11.85
1012.905 11.75 11.44 10.98 10.29 9.48 8.72 8.03 7.4 6.9 6.49
1032.199 6.22 6.16 6.18 6.3 6.54 6.86 7.35 8 8.89 10.07
1051.492 11.58 13.56 16.19 19.64 24.12 29.64 36.33 44.2 52.65 60.58
1070.786 66.81 70.93 72.95 72.73 69.63 63.64 56.38 49.93 45.43 42.84
1090.079 41.63 41.28 41.31 41.2 40.77 40.02 38.88 37.51 36.26 35.26
1109.372 34.42 33.74 33.39 33.37 33.84 35.12 37.5 41.15 46.46 53.9
1128.666 63.68 76.13 91.68 110.55 132.46 157.15 184.05 211.84 238.67 261.85
1147.959 277.51 281.95 273.42 254.07 229.81 205.16 183.09 166.96 159.35 161.13
1167.253 170.33 182.74 195.22 206.63 215.57 218.95 214.71 204.92 193.55 182.62
1186.546 172.66 164.32 158.66 157.28 160.58 167.99 177.67 186.98 194.09 197.48
1205.840 196.16 190.07 178.83 163.53 146.11 128.25 111.58 96.71 83.58 72.49
1225.133 63.7 56.69 51.21 46.96 43.69 41.19 39.34 38.21 37.26 36.6
1244.426 36.43 36.38 36.85 37.65 38.41 39.65 41.29 43.16 45.04 46.52
1263.720 47.38 47.34 46.21 44.23 41.72 38.86 36 33.68 32.09 31.21
1283.013 30.98 31.18 31.89 33.25 35.27 37.96 41.43 45.52 50.17 55.24
1302.307 60.64 66.39 72.55 79.45 87.49 97.29 109.49 124.59 142.75 163.5
1321.600 185.25 205.38 220.81 229.14 229.36 221.02 204.42 181.36 155.19 129.95
1340.894 108.32 90.9 77.08 66.3 57.92 51.34 46.05 41.59 37.6 33.9
1360.187 30.53 27.46 24.65 22.1 19.84 17.96 16.42 15.21 14.41 13.9
1379.480 13.62 13.48 13.32 13.05 12.6 12.1 11.43 10.63 9.88 9.29
1398.774 8.89 8.62 8.54 8.6 8.82 9.18 9.62 10.19 10.96 11.85
1418.067 12.7 13.59 14.58 15.68 16.95 18.33 19.78 21.05 21.87 22.09
1437.361 21.67 20.79 19.4 17.56 15.6 13.91 12.76 12.15 11.87 11.8
1456.654 11.98 12.31 12.71 13.08 13.24 13.17 12.87 12.36 11.65 10.8
1475.948 9.93 9.13 8.52 8.13 7.8 7.49 7.21 6.86 6.47 6.09
1495.241 5.67 5.27 4.91 4.51 4.17 3.95 3.74 3.54 3.38 3.27
1514.534 3.19 3.1 3.04 3 2.94 2.86 2.8112 2.7807 2.7395 2.7233
1533.828 2.7288 2.7099 2.6883 2.6924 2.7123 2.7112 2.6811 2.6648 2.7115 2.7679
1553.121 2.765 2.7485 2.7828 2.8187 2.87 2.92 2.98 3.05 3.18 3.38
1572.415 3.6 3.87 4.22 4.65 5.18 5.84 6.55 7.27 7.97 8.54
1591.708 8.99 9.35 9.61 9.84 10.2 10.8 11.6 12.58 13.68 14.63
1611.002 15.23 15.38 15.02 14.14 12.8 11.27 9.79 8.47 7.36 6.54
1630.295 6 5.61 5.34 5.17 5.08 4.98 4.92 4.96 5.04 5.09
1649.588 5.17 5.33 5.53 5.75 5.99 6.35 6.86 7.41 8.06 8.88
1668.882 9.75 10.62 11.6 12.71 13.92 15.15 16.43 17.9 19.72 21.9
1688.175 24.79 28.7 34.05 41.36 51.28 63.61 77.8 92.97 106.6 117.7
1707.469 124.14 124.78 119.46 108.96 94.64 78.18 61.6 47.51 36.65 28.92
1726.762 23.56 19.91 17.47 15.84 14.73 13.93 13.29 12.7 12.08 11.35
1746.056 10.57 9.71 8.8 7.92 7.1 6.34 5.69 5.14 4.67 4.27
1765.349 3.91 3.66 3.49 3.35 3.26 3.16 3.03 2.96 2.95 2.94
1784.642 2.94 2.9 2.9 2.97 3.03 3.07 3.09 3.11 3.08 3.06
1803.936 3.06 3 2.94 2.816 2.7239 2.6836 2.6037 2.5527 2.5319 2.4907
1823.229 2.5053 2.5073 2.4501 2.4664 2.5166 2.4733 2.4377 2.4352 2.4099 2.3899
1842.523 2.3385 2.3252 2.3243 2.2928 2.2735 2.2468 2.2017 2.1616 2.1373 2.1068
1861.816 2.1066 2.1105 2.1299 2.0984 2.055 2.0851 2.0984 2.1112 2.1318 2.129
1881.110 2.086 2.1234 2.2384 2.312 2.3926 2.5132 2.6799 2.7923 2.8235 2.87
1900.403 2.89 2.8312 2.7301 2.6242 2.5443 2.4918 2.5155 2.5468 2.562 2.588
1919.696 2.5757 2.5134 2.447 2.3439 2.2186 2.1153 1.9895 1.88738 1.84427 1.85906
1938.990 1.86753 1.84046 1.90823 2.0079 2.0653 2.1261 2.1829 2.2142 2.2445 2.2583
1958.283 2.2491 2.2793 2.2869 2.272 2.2703 2.2317 2.1624 2.1221 2.0702 1.9936
1977.577 1.88742 1.7787 1.695 1.596 1.525 1.48 1.433 1.388 1.373 1.353
1996.870 1.316 1.313 1.287 1.254 1.246 1.221 1.152 1.127 1.139 1.141
2016.164 1.112 1.069 1.134 1.179 1.121 1.102 1.097 1.096 1.085 1.043
2035.457 1.03 1.035 1.064 1.054 1.031 1.058 1.081 1.094 1.101 1.088
2054.750 1.084 1.092 1.09 1.108 1.128 1.12 1.119 1.14 1.134 1.109
2074.044 1.136 1.137 1.097 1.09 1.069 1.021 1.022 1.029 1.045 1.065
2093.337 1.043 1.042 1.045 1.073 1.099 1.086 1.09 1.095 1.076 1.076
2112.631 1.089 1.107 1.147 1.146 1.133 1.156 1.223 1.271 1.301 1.377
2131.924 1.442 1.45 1.459 1.492 1.495 1.529 1.574 1.578 1.595 1.601
2151.218 1.577 1.52 1.485 1.484 1.452 1.371 1.314 1.276 1.239 1.206
2170.511 1.194 1.19 1.16 1.146 1.131 1.148 1.145 1.129 1.135 1.125
2189.804 1.139 1.15 1.156 1.155 1.137 1.156 1.216 1.23 1.247 1.293
2209.098 1.307 1.324 1.353 1.381 1.408 1.399 1.422 1.442 1.432 1.448
2228.391 1.452 1.445 1.483 1.537 1.525 1.513 1.547 1.613 1.666 1.695
2247.685 1.699 1.694 1.698 1.683 1.711 1.7533 1.7617 1.776 1.8223 1.83976
2266.978 1.85312 1.87174 1.90727 1.9583 1.9518 1.9918 2.0005 1.9688 1.9711 1.9735
2286.272 1.9537 1.92775 1.88814 1.87396 1.86774 1.7987 1.73 1.703 1.694 1.629
2305.565 1.593 1.604 1.614 1.622 1.616 1.606 1.608 1.635 1.623 1.625
2324.858 1.665 1.683 1.692 1.719 1.7587 1.7853 1.8215 1.8506 1.85848 1.8616
2344.152 1.90375 1.9579 1.9539 1.9233 1.92643 1.93116 1.85878 1.802 1.7624 1.732
2363.445 1.664 1.571 1.531 1.512 1.474 1.449 1.467 1.426 1.416 1.436
2382.739 1.42 1.418 1.387 1.389 1.412 1.384 1.402 1.442 1.431 1.419
2402.032 1.398 1.394 1.416 1.409 1.392 1.354 1.333 1.341 1.336 1.308
2421.326 1.264 1.299 1.278 1.227 1.233 1.239 1.227 1.221 1.228 1.202
2440.619 1.194 1.196 1.184 1.189 1.187 1.155 1.177 1.186 1.176 1.203
2459.912 1.202 1.193 1.227 1.247 1.25 1.23 1.196 1.202 1.197 1.213
2479.206 1.241 1.237 1.219 1.186 1.188 1.204 1.181 1.185 1.163 1.159
2498.499 1.126 1.105 1.144 1.104 1.125 1.188 1.152 1.11 1.109 1.112
2517.793 1.102 1.083 1.09 1.078 1.048 1.048 1.035 1.054 1.07 1.041
2537.086 1.036 0.996 0.97 0.993 0.998 0.981 0.956 0.961 0.989 0.96
2556.380 0.974 1.037 1.028 0.996 0.963 0.96 0.97 0.985 0.978 0.93
2575.673 0.932 0.952 0.959 1.012 1.034 0.99 0.977 1.022 1.07 1.044
2594.966 1.038 1.087 1.078 1.078 1.128 1.122 1.061 1.115 1.138 1.089
2614.260 1.063 1.057 1.09 1.08 0.974 0.96 0.997 0.922 0.909 0.933
2633.553 0.896 0.891 0.937 0.896 0.891 0.928 0.935 0.985 0.975 0.954
2652.847 0.993 1.014 1.039 1.044 1.019 1.006 0.989 0.925 0.917 0.945
2672.140 0.927 0.901 0.863 0.877 0.946 0.929 0.909 0.887 0.8 0.79
2691.434 0.78 0.77 0.79 0.81 0.79 0.81 0.847 0.83 0.923 0.979
2710.727 0.933 0.931 0.943 0.952 0.975 1.021 1.027 0.93 0.986 1.048
2730.020 0.979 0.98 0.977 1.005 1.013 1.04 1.082 1.084 1.15 1.179
2749.314 1.209 1.23 1.246 1.234 1.202 1.177 1.161 1.176 1.184 1.19
2768.607 1.156 1.181 1.177 1.179 1.252 1.287 1.271 1.275 1.275 1.269
2787.901 1.314 1.364 1.383 1.367 1.415 1.462 1.485 1.546 1.595 1.69
2807.194 1.734 1.7672 1.826 1.84174 1.89493 2.0333 2.1529 2.1543 2.1479 2.2088
2826.488 2.2419 2.225 2.3008 2.2989 2.2194 2.2127 2.2227 2.3109 2.3995 2.3722
2845.781 2.389 2.458 2.6205 2.7052 2.7881 2.96 3.03 3.1 3.28 3.51
2865.074 3.71 3.94 4.25 4.65 5.04 5.47 5.96 6.54 7.1 7.72
2884.368 8.45 9.13 9.67 10.11 10.44 10.62 10.61 10.63 10.72 10.76
2903.661 11.02 11.6 12.3 13.15 14.18 15.02 15.66 16.11 16.19 16.07
2922.955 15.69 15 14.31 13.75 13.39 13.19 13.18 13.51 14.16 15.13
2942.248 16.54 18.42 20.38 21.91 22.86 23.09 22.57 21.46 19.78 17.7
2961.542 15.75 14.42 13.65 13.36 13.56 14.23 15.29 16.67 18.58 20.88
2980.835 23.17 25.31 27.19 28.39 28.67 28.14 26.83 24.7 21.92 18.99
3000.128 16.36 14.1 12.09 10.53 9.32 8.3 7.53 6.96 6.55 6.19
3019.422 5.9 5.59 5.29 4.97 4.63 4.44 4.38 4.37 4.35 4.27
3038.715 4.28 4.35 4.42 4.58 4.68 4.78 4.84 4.87 4.9 4.86
3058.009 4.81 4.87 5.07 5.46 5.99 6.58 7.27 8.12 9 9.69
3077.302 10.27 10.65 10.72 10.5 10 9.32 8.26 7.05 5.98 5.07
3096.596 4.36 3.8 3.45 3.19 2.89 2.8275 2.85 2.6949 2.5911 2.3932
3115.889 2.2177 2.1789 2.0777 1.84323 1.702 1.547 1.306 1.172 0.979 0.902
3135.182 0.958 0.848 0.75 0.85 0.77 0.58 0.59 0.65 0.68 0.74
3154.476 0.69 0.52 0.52 0.59 0.51 0.51 0.59 0.65 0.57 0.46
3173.769 0.41 0.48 0.59 0.62 0.55 0.53 0.53 0.59 0.71 0.71
3193.063 0.72 0.7 0.63 0.67 0.6 0.43 0.42 0.49 0.52 0.44
3212.356 0.35 0.27 0.24 0.28 0.27 0.29 0.39 0.42 0.42 0.3
3231.650 0.12 0.18 0.26 0.34 0.34 0.14 0.09 0.25 0.23 0.08
3250.943 0.03 0 0.07 0.06 0.06 0.09 0.06 0.1 0.12 0.19
3270.236 0.34 0.33 0.22 0.23 0.21 0.25 0.22 0.2 0.32 0.25
3289.530 0.14 0.25 0.41 0.35 0.2 0.11 0.14 0.14 0.13 0.19
3308.823 0.18 0.21 0.26 0.28 0.37 0.3 0.16 0.24 0.3 0.26
3328.117 0.31 0.25 0.26 0.37 0.42 0.4 0.32 0.38 0.33 0.19
3347.410 0.28 0.5 0.47 0.37 0.45 0.49 0.49 0.56 0.55 0.53
3366.704 0.62 0.73 0.75 0.68 0.77 1.035 1.146 1.205 1.458 1.501
3385.997 1.559 1.8046 1.9605 2.0807 2.1738 2.1719 2.3171 2.2985 2.2169 2.2378
3405.290 2.0517 1.9383 1.7873 1.613 1.539 1.478 1.302 1.127 1.007 0.875
3424.584 0.82 0.82 0.76 0.64 0.61 0.66 0.65 0.66 0.71 0.61
3443.877 0.52 0.58 0.54 0.44 0.56 0.61 0.51 0.48 0.55 0.54
3463.171 0.39 0.4 0.47 0.48 0.56 0.57 0.66 0.63 0.57 0.61
3482.464 0.53 0.41 0.33 0.35 0.46 0.54 0.55 0.49 0.47 0.45
3501.758 0.52 0.5 0.43 0.6 0.64 0.5 0.45 0.51 0.53 0.52
3521.051 0.51 0.54 0.54 0.52 0.52 0.51 0.53 0.63 0.65 0.51
3540.344 0.54 0.58 0.5 0.54 0.61 0.63 0.61 0.64 0.66 0.76
3559.638 0.78 0.72 0.66 0.59 0.6 0.6 0.64 0.7 0.69 0.64
3578.931 0.59 0.62 0.63 0.64 0.72 0.72 0.7 0.6 0.6 0.67
3598.225 0.64 0.65 0.67 0.62 0.66 0.72 0.78 0.82 0.73 0.66
3617.518 0.68 0.75 0.82 0.82 0.81 0.76 0.72 0.79 0.8 0.8
3636.812 0.78 0.73 0.77 0.847 0.877 0.73 0.59 0.73 0.8 0.81
3656.105 0.83 0.78 0.889 0.901 0.79 0.72 0.74 0.77 0.79 0.82
3675.398 0.79 0.75 0.82 0.87 0.924 0.958 0.885 0.904 0.912 0.918
3694.692 0.952 0.906 0.961 0.99 0.957 0.913 0.903 0.973 0.84 0.81
3713.985 0.881 0.83 0.891 0.94 0.98 1.009 0.919 0.83 0.878 0.961
3733.279 0.972 0.888 0.952 1.053 0.881 0.878 1.011 1.006 1.068 1.094
3752.572 0.987 0.976 0.951 0.915 0.959 0.919 0.895 0.959 0.96 0.884
3771.866 0.907 1.003 0.98 0.942 0.881 0.867 0.918 0.909 0.942 0.979
3791.159 0.963 0.909 0.848 0.918 0.949 0.962 0.947 0.888 0.921 0.915
3810.452 0.909 0.932 1.014 0.936 0.874 0.96 0.96 0.942 0.897 0.893
3829.746 0.913 0.846 0.867 0.91 0.87 0.949 1.034 0.994 0.903 0.842
3849.039 0.884 0.992 1.064 0.968 0.927 0.988 1.042 0.963 0.77 0.8
3868.333 0.861 0.921 0.976 0.969 1.019 0.969 0.936 1.003 1.058 1.072
3887.626 1.029 0.996 1.07 1.08 1.052 1.128 1.095 0.973 1.018 1.094
3906.920 0.935 0.895 0.973 1.022 1.054 0.965 0.9 0.996 0.983 0.947
3926.213 0.987 0.945 0.916 0.996 1.039 0.976 1.018 1.121 1.135 1.084
3945.506 1.04 1.003 1.032 1.053 1.071 1.114 1.108 1.055 1.019 1.066
3964.800 1.111 1.083 0.998 0.975 1.043 1.094 1.138 1.149 1.162 1.159
3984.093 1.16 1.171 1.21 1.313 1.26 1.184 1.254 1.265 1.196
##END=
