##TITLE=1,2-Di(.allpha.-naphthyl)-ethane
##JCAMP-DX=4.24
##DATA TYPE=INFRARED SPECTRUM
##ORIGIN=NIST Mass Spectrometry Data Center
##OWNER=NIST Standard Reference Data Program
Collection (C) 2018 copyright by the U.S. Secretary of Commerce
on behalf of the United States of America. All rights reserved.
##CAS REGISTRY NO=15374-45-5
##MOLFORM=C 22 H 18
##$NIST SOURCE=MSDC-IR
##SPECTROMETER/DATA SYSTEM=HP-GC/MS/IRD
##STATE=gas
##XUNITS=1/CM
##YUNITS=ABSORBANCE
##XFACTOR=1.0
##YFACTOR=0.000001100
##DELTAX=4.0
##FIRSTX=550.0
##LASTX=3846.0
##FIRSTY=0.000081
##MAXX=3846
##MINX=550
##MAXY=0.011
##MINY=0
##NPOINTS=825
##XYDATA=(X++(Y..Y))
550.0 74 164 357 420 397 344 242 157 142 166
590.0 168 137 108 97 80 84 97 105 82 22
630.0 20 47 70 115 100 75 104 105 81 63
670.0 74 61 68 119 144 201 245 260 222 214
710.0 226 233 363 612 788 741 580 436 444 548
750.0 723 1116 2023 4041 7256 10000 9952 7856 6514 6485
790.0 6343 5182 3429 1991 1159 756 552 397 331 278
830.0 231 247 229 213 269 358 410 402 337 266
870.0 190 134 143 157 149 159 161 158 146 132
910.0 159 189 198 211 238 251 231 259 307 294
950.0 253 259 342 384 334 254 212 201 190 203
990.0 229 253 317 455 651 804 847 768 627 497
1030.0 387 299 208 165 166 137 125 124 137 195
1070.0 280 374 426 378 275 172 93 71 56 54
1110.0 73 82 65 76 103 104 112 159 194 182
1150.0 170 165 190 271 347 320 225 165 160 155
1190.0 164 176 182 188 209 239 242 223 191 166
1230.0 169 202 236 248 249 280 331 351 318 258
1270.0 221 195 169 162 151 126 107 96 83 86
1310.0 98 101 105 132 181 240 286 271 246 260
1350.0 267 272 260 237 245 258 290 374 526 791
1390.0 1218 1585 1507 1060 658 448 343 292 282 295
1430.0 279 293 372 438 463 527 643 712 687 577
1470.0 430 319 272 251 278 343 448 611 839 1038
1510.0 1085 968 714 475 308 201 152 122 112 121
1550.0 119 129 147 170 232 349 495 603 642 681
1590.0 780 873 797 541 305 205 205 234 262 245
1630.0 172 122 119 117 119 106 121 164 198 237
1670.0 268 277 280 302 327 302 229 168 152 157
1710.0 182 225 243 222 204 205 206 206 195 176
1750.0 176 187 185 158 130 116 132 164 200 245
1790.0 289 306 310 273 209 190 199 213 215 194
1830.0 165 133 131 160 181 223 263 248 202 143
1870.0 109 104 105 114 132 141 162 207 279 368
1910.0 440 463 456 430 387 364 354 324 257 185
1950.0 127 85 71 61 41 21 19 24 24 11
1990.0 15 24 23 25 16 20 32 36 21 5
2030.0 15 24 37 38 34 28 23 29 24 11
2070.0 14 33 40 29 21 19 17 11 0 12
2110.0 22 22 27 19 14 24 19 10 15 22
2150.0 32 28 28 31 25 17 19 25 28 30
2190.0 29 14 11 17 22 22 21 37 35 25
2230.0 25 36 36 42 32 29 43 31 33 44
2270.0 41 32 33 44 48 56 55 53 53 40
2310.0 40 46 50 55 57 62 67 52 35 23
2350.0 10 18 26 31 32 23 25 27 26 28
2390.0 35 40 35 43 61 51 42 45 48 45
2430.0 34 42 42 31 17 17 20 15 22 34
2470.0 34 27 28 31 25 31 33 38 36 28
2510.0 37 44 32 25 28 36 36 45 54 35
2550.0 17 31 31 29 31 32 36 32 38 44
2590.0 36 36 52 54 44 52 73 68 54 49
2630.0 44 53 53 51 46 36 50 51 35 44
2670.0 33 26 35 46 44 48 67 56 45 45
2710.0 52 64 53 57 68 65 63 57 51 51
2750.0 40 45 64 65 64 64 67 75 79 83
2790.0 88 76 74 102 93 78 80 95 113 133
2830.0 152 149 154 180 210 234 264 320 407 524
2870.0 658 824 960 998 931 792 682 625 617 621
2910.0 611 647 717 816 990 1260 1597 1912 2065 2045
2950.0 1981 1939 1844 1622 1341 1113 953 801 706 654
2990.0 638 699 805 980 1166 1273 1320 1342 1376 1509
3030.0 1756 2139 2651 3236 3815 4332 4804 5361 5901 5922
3070.0 5193 4204 3413 2867 2460 2088 1772 1468 1126 822
3110.0 562 390 299 230 188 179 162 138 125 127
3150.0 130 110 106 112 109 124 123 105 91 88
3190.0 102 93 65 74 67 70 77 65 68 76
3230.0 71 64 70 52 45 54 53 52 49 38
3270.0 20 18 41 47 50 47 48 47 43 45
3310.0 50 63 59 35 47 28 12 33 45 30
3350.0 37 56 43 23 29 28 30 48 41 15
3390.0 21 35 28 24 22 26 26 25 56 77
3430.0 60 34 17 24 36 43 45 52 49 31
3470.0 31 37 17 6 15 30 12 7 38 45
3510.0 28 17 9 7 17 11 28 22 22 45
3550.0 60 61 47 45 42 41 24 22 30 36
3590.0 47 34 32 30 25 15 2 4 12 50
3630.0 30 6 7 0 6 14 27 50 57 29
3670.0 34 27 8 40 61 57 71 69 55 65
3710.0 65 55 53 38 20 27 27 27 50 46
3750.0 20 32 70 68 70 55 51 62 62 50
3790.0 33 46 58 65 73 85 90 59 52 72
3830.0 76 90 109 109 102
##END=
