##TITLE=2,3-Dimethylphenylisothiocyanate
##JCAMP-DX=4.24
##DATA TYPE=INFRARED SPECTRUM
##ORIGIN=EPA-IR VAPOR PHASE LIBRARY
##OWNER=SRD/NIST
Collection (C) 2018 copyright by the U.S. Secretary of Commerce
on behalf of the United States of America. All rights reserved.
##CAS REGISTRY NO=1539-20-4
##MOLFORM=C 9 H 9 N S
##$NIST SOURCE=MSDC-IR
##STATE=gas
##XUNITS=1/CM
##YUNITS=ABSORBANCE
##XFACTOR=1.
##YFACTOR=0.001
##DELTAX=1.92898
##FIRSTX=549.8
##LASTX=4000.7
##FIRSTY=11.498
##MAXX=4000.7
##MINX=549.759
##MAXY=0.315858
##MINY=0
##NPOINTS=1790
##XYDATA=(X++(Y..Y))
549.759 11.498 11.178 10.848 10.388 10.018 9.538 8.958 8.538 8.248 7.948
569.049 7.618 7.428 7.468 7.758 8.108 8.368 8.468 8.658 8.778 8.708
588.339 8.398 8.148 7.768 7.048 6.608 6.178 5.588 5.218 5.128 5.008
607.628 4.628 4.178 3.978 3.638 3.258 3.028 2.548 2.208 1.978 1.718
626.918 1.438 1.0618 0.8714 0.7637 0.6291 0.4325 0.31491 0.4003 0.36739 0.2166
646.208 0.2236 0.2441 0.2613 0.27596 0.34035 0.5486 0.7976 0.9374 1.0288 1.318
665.498 1.558 1.418 1.2462 1.488 1.598 1.598 1.668 1.728 1.848 1.948
684.787 2.228 2.568 2.988 3.668 4.548 5.338 5.988 6.698 7.698 9.518
704.077 10.568 8.988 7.468 7.118 6.478 5.778 5.128 4.488 4.008 3.708
723.367 3.468 3.448 3.588 3.548 3.498 3.478 3.478 3.508 3.468 3.558
742.657 3.738 3.868 4.288 4.978 6.048 7.578 9.698 12.738 16.978 22.128
761.947 27.928 34.218 40.478 46.458 52.168 57.798 63.808 65.648 57.918 48.108
781.236 41.358 34.798 28.008 21.648 16.268 12.178 9.088 6.698 5.108 4.138
800.526 3.448 2.988 2.848 2.988 3.218 3.668 4.208 4.778 5.548 6.468
819.816 7.868 9.378 10.498 10.788 10.438 10.028 9.598 8.558 6.798 4.898
839.106 3.348 2.448 1.958 1.578 1.368 1.338 1.278 1.1979 0.9726 0.8934
858.395 0.8242 0.7641 0.8211 0.8702 0.937 1.0154 1.0617 0.9983 1.0128 0.9891
877.685 0.9902 1.2175 1.2731 1.328 1.518 1.558 1.588 1.538 1.438 1.458
896.975 1.638 1.688 1.668 1.658 1.678 1.868 2.228 2.528 2.728 3.118
916.265 3.618 4.168 4.988 5.958 7.008 8.388 9.908 11.598 13.788 16.218
935.555 18.768 21.348 23.738 25.818 27.288 27.998 27.988 27.178 25.588 23.318
954.844 20.698 18.078 15.798 13.768 12.038 10.578 9.298 8.358 7.448 6.698
974.134 6.218 5.898 5.628 5.298 5.138 5.008 4.878 4.788 4.698 4.558
993.424 4.308 4.048 3.798 3.648 3.448 3.188 2.868 2.708 2.788 2.758
1012.714 2.598 2.558 2.558 2.568 2.588 2.628 2.688 2.378 2.018 2.118
1032.003 2.158 1.928 1.918 1.888 1.818 1.858 1.898 1.808 1.708 1.788
1051.293 1.848 1.768 1.898 2.168 2.208 2.258 2.568 3.078 3.518 4.208
1070.583 5.198 5.708 5.958 6.188 6.188 6.118 5.958 5.698 5.238 4.678
1089.873 4.148 3.448 2.598 2.478 2.458 2.108 2.218 2.008 1.858 1.968
1109.163 1.868 1.748 1.428 1.378 1.338 1.0975 1.1361 1.1427 1.1591 0.9362
1128.452 0.7912 1.0092 1.0226 0.8361 0.8587 0.7573 0.5536 0.6272 0.7445 0.875
1147.742 1.0161 0.8011 0.7697 0.8844 0.8356 0.8123 0.8581 1.0059 0.9382 0.8341
1167.032 0.8424 0.885 0.8886 1.1207 1.2583 1.1485 1.288 1.508 1.958 2.448
1186.322 2.658 2.888 2.998 3.058 2.958 2.818 2.608 2.138 1.698 1.298
1205.611 1.0403 1.1512 1.1134 0.8653 0.7589 0.8408 0.871 0.7247 0.931 1.1821
1224.901 1.0999 0.933 1.2681 1.468 1.628 1.758 1.748 1.908 1.978 2.268
1244.191 2.758 3.098 3.378 3.858 4.288 4.628 5.108 5.278 5.218 5.368
1263.481 5.428 5.338 5.378 5.368 4.938 4.668 4.598 4.338 4.048 3.658
1282.771 3.238 2.898 2.528 2.268 2.078 1.878 1.798 1.708 1.598 1.578
1302.060 1.588 1.608 1.638 1.748 1.868 1.948 2.018 2.058 2.048 2.068
1321.350 2.108 2.038 1.948 1.868 1.778 1.708 1.668 1.668 1.658 1.618
1340.640 1.598 1.578 1.528 1.518 1.518 1.458 1.428 1.448 1.438 1.458
1359.930 1.488 1.508 1.518 1.568 1.668 1.768 1.878 1.988 2.138 2.378
1379.219 2.638 2.938 3.218 3.478 3.738 3.818 3.868 3.978 3.968 3.878
1398.509 3.698 3.438 3.218 3.048 2.918 2.838 2.828 2.908 3.068 3.248
1417.799 3.508 3.868 4.298 4.788 5.268 5.738 6.308 6.988 7.778 8.648
1437.089 9.668 10.908 12.398 14.028 15.838 17.858 20.028 22.368 24.748 27.008
1456.378 29.128 30.928 32.148 32.688 32.608 31.928 30.668 28.878 26.608 24.148
1475.668 21.768 19.508 17.458 15.518 13.588 11.868 10.438 9.288 8.508 7.968
1494.958 7.568 7.308 7.118 6.888 6.608 6.358 6.178 5.868 5.498 5.148
1514.248 4.848 4.638 4.498 4.408 4.318 4.308 4.418 4.558 4.718 4.928
1533.538 5.258 5.628 6.038 6.508 6.968 7.448 8.008 8.568 9.128 9.798
1552.827 10.508 11.238 12.008 12.918 13.998 15.148 16.488 18.048 19.738 21.618
1572.117 23.618 25.668 27.568 29.278 30.668 31.518 31.778 31.498 30.718 29.418
1591.407 27.738 25.838 23.938 22.158 20.448 18.678 16.918 15.248 13.558 11.938
1610.697 10.538 9.298 8.218 7.308 6.588 5.928 5.348 4.908 4.478 4.078
1629.986 3.788 3.508 3.258 3.048 2.848 2.728 2.648 2.518 2.428 2.458
1649.276 2.548 2.638 2.708 2.798 2.898 2.928 2.988 2.928 2.758 2.578
1668.566 2.368 2.198 1.998 1.798 1.698 1.638 1.598 1.568 1.508 1.448
1687.856 1.478 1.498 1.478 1.488 1.528 1.548 1.578 1.608 1.628 1.668
1707.146 1.708 1.748 1.838 1.898 1.988 2.058 2.058 2.098 2.168 2.198
1726.435 2.178 2.188 2.168 2.158 2.248 2.258 2.188 2.158 2.208 2.198
1745.725 2.198 2.238 2.238 2.258 2.358 2.458 2.548 2.638 2.778 3.008
1765.015 3.178 3.348 3.528 3.658 3.718 3.698 3.628 3.548 3.448 3.258
1784.305 3.098 2.988 2.888 2.808 2.768 2.768 2.728 2.688 2.628 2.578
1803.594 2.568 2.518 2.498 2.488 2.438 2.408 2.418 2.408 2.328 2.278
1822.884 2.308 2.338 2.368 2.378 2.378 2.448 2.588 2.688 2.828 3.018
1842.174 3.168 3.258 3.268 3.238 3.168 3.068 2.958 2.838 2.708 2.618
1861.464 2.608 2.588 2.698 2.868 3.008 3.208 3.438 3.728 3.988 4.288
1880.754 4.588 4.858 5.178 5.468 5.778 6.018 6.258 6.528 6.738 6.938
1900.043 7.158 7.408 7.688 8.028 8.408 8.778 9.198 9.668 10.078 10.378
1919.333 10.738 11.108 11.428 11.728 12.098 12.408 12.668 13.048 13.558 14.138
1938.623 14.748 15.528 16.408 17.338 18.418 19.578 20.748 22.108 23.588 25.098
1957.913 26.728 28.448 30.278 32.198 34.258 36.338 38.498 40.858 43.208 45.708
1977.202 48.398 51.258 54.228 57.368 60.688 64.218 67.958 71.818 75.898 80.288
1996.492 84.918 89.698 94.718 100.058 105.638 111.458 117.558 123.908 130.498 137.188
2015.782 143.928 150.688 157.458 164.268 171.158 177.998 184.768 191.628 198.598 205.698
2035.072 212.928 220.238 227.608 235.158 242.748 250.388 258.208 266.268 274.598 282.988
2054.362 291.338 299.198 306.098 311.438 314.788 315.858 314.558 311.408 306.728 301.078
2073.651 295.368 290.348 286.498 283.948 282.838 283.018 284.338 286.568 289.028 291.308
2092.941 292.878 293.228 292.088 288.938 283.688 276.478 267.488 257.168 245.848 233.748
2112.231 221.228 208.568 195.928 183.538 171.648 160.268 149.508 139.538 130.438 122.268
2131.521 114.938 108.488 102.868 97.978 93.698 89.908 86.638 83.778 81.338 79.178
2150.810 77.088 75.128 73.068 70.838 68.488 65.938 63.168 60.158 57.058 53.858
2170.100 50.578 47.288 44.118 41.128 38.238 35.578 33.178 31.088 29.318 27.738
2189.390 26.408 25.358 24.498 23.838 23.308 22.818 22.298 21.668 21.018 20.308
2208.680 19.428 18.438 17.408 16.318 15.198 14.108 13.068 12.088 11.168 10.318
2227.970 9.588 8.938 8.338 7.798 7.348 6.978 6.618 6.228 5.878 5.618
2247.259 5.368 5.078 4.808 4.568 4.258 4.048 3.898 3.718 3.618 3.518
2266.549 3.358 3.228 3.108 3.058 3.068 3.008 2.878 2.808 2.818 2.808
2285.839 2.788 2.788 2.738 2.678 2.698 2.698 2.648 2.638 2.658 2.578
2305.129 2.528 2.588 2.648 2.658 2.598 2.588 2.708 2.798 2.908 2.988
2324.418 3.048 3.138 3.198 3.278 3.388 3.448 3.478 3.528 3.508 3.368
2343.708 3.298 3.268 3.138 3.058 2.968 2.948 2.928 2.878 2.818 2.828
2362.998 2.828 2.728 2.678 2.568 2.448 2.378 2.268 2.198 2.148 2.038
2382.288 1.998 1.998 1.958 1.968 1.968 1.938 1.948 1.988 2.058 2.128
2401.578 2.168 2.188 2.238 2.268 2.298 2.408 2.538 2.658 2.768 2.858
2420.867 2.948 3.008 3.028 3.088 3.198 3.308 3.388 3.448 3.488 3.558
2440.157 3.658 3.688 3.698 3.678 3.648 3.668 3.678 3.628 3.528 3.498
2459.447 3.438 3.318 3.188 3.088 3.088 3.048 2.998 2.978 2.938 2.888
2478.737 2.848 2.858 2.968 3.028 3.008 3.118 3.258 3.348 3.368 3.378
2498.026 3.428 3.458 3.528 3.528 3.538 3.638 3.698 3.718 3.748 3.798
2517.316 3.828 3.858 3.838 3.778 3.708 3.668 3.668 3.598 3.558 3.558
2536.606 3.508 3.438 3.418 3.418 3.328 3.288 3.248 3.198 3.208 3.228
2555.896 3.258 3.288 3.228 3.158 3.208 3.208 3.128 3.128 3.168 3.198
2575.186 3.208 3.158 3.018 2.968 2.978 2.988 2.928 2.868 2.848 2.828
2594.475 2.778 2.708 2.728 2.698 2.568 2.518 2.468 2.348 2.258 2.218
2613.765 2.188 2.128 2.098 2.038 1.988 1.958 1.898 1.848 1.788 1.758
2633.055 1.748 1.728 1.728 1.738 1.708 1.628 1.598 1.638 1.628 1.578
2652.345 1.558 1.538 1.558 1.578 1.578 1.568 1.598 1.638 1.668 1.698
2671.634 1.708 1.758 1.768 1.748 1.728 1.758 1.838 1.968 2.038 2.028
2690.924 2.068 2.178 2.248 2.228 2.278 2.338 2.278 2.298 2.338 2.268
2710.214 2.168 2.138 2.158 1.978 1.868 1.838 1.788 1.748 1.698 1.698
2729.504 1.668 1.678 1.728 1.788 1.818 1.828 1.908 1.968 1.998 1.998
2748.794 1.978 1.998 1.968 1.868 1.788 1.708 1.678 1.698 1.668 1.628
2768.083 1.608 1.618 1.668 1.678 1.618 1.618 1.618 1.618 1.568 1.528
2787.373 1.558 1.578 1.608 1.618 1.588 1.668 1.768 1.818 1.928 2.008
2806.663 2.028 2.068 2.218 2.268 2.308 2.438 2.608 2.758 2.808 2.868
2825.953 3.008 3.068 3.198 3.368 3.478 3.568 3.698 3.928 4.118 4.168
2845.242 4.268 4.548 4.878 5.138 5.358 5.598 5.898 6.328 6.808 7.198
2864.532 7.598 8.098 8.568 8.978 9.398 9.678 9.858 9.978 9.918 9.798
2883.822 9.658 9.538 9.348 9.128 8.938 8.748 8.618 8.588 8.538 8.518
2903.112 8.738 8.978 9.208 9.568 9.958 10.418 11.118 11.928 12.728 13.678
2922.401 14.758 15.818 16.958 18.128 19.068 19.748 20.348 20.588 20.498 20.418
2941.691 20.038 19.358 18.688 18.048 17.408 16.748 16.138 15.598 15.048 14.458
2960.981 13.908 13.438 12.918 12.428 12.018 11.778 11.688 11.738 11.898 12.078
2980.271 12.218 12.288 12.248 12.008 11.668 11.268 10.738 10.108 9.418 8.698
2999.561 8.178 7.848 7.628 7.668 7.828 7.888 7.988 8.238 8.518 8.918
3018.850 9.348 9.738 10.108 10.388 10.598 10.768 10.828 10.738 10.628 10.348
3038.140 10.068 9.988 9.918 9.938 10.048 10.118 10.278 10.608 10.918 11.298
3057.430 11.918 12.628 13.338 14.128 14.978 15.608 16.068 16.378 16.248 15.658
3076.720 14.808 13.768 12.588 11.348 9.928 8.618 7.628 6.658 5.768 4.998
3096.009 4.318 3.708 3.298 3.088 2.818 2.558 2.428 2.298 2.088 1.958
3115.299 1.868 1.778 1.638 1.538 1.498 1.408 1.368 1.2634 1.1519 1.1614
3134.589 1.1434 1.0388 0.9955 1.013 0.9784 0.974 0.8789 0.8453 0.8232 0.8214
3153.879 0.8188 0.7069 0.6432 0.6487 0.7174 0.7552 0.7483 0.6351 0.6279 0.7374
3173.169 0.7131 0.7167 0.5866 0.5382 0.6111 0.5163 0.4478 0.4137 0.3867 0.34862
3192.458 0.3847 0.28921 0.1999 0.34396 0.281261 0.27257 0.37791 0.29531 0.285373 0.285818
3211.748 0.36049 0.3961 0.35831 0.33427 0.2434 0.2322 0.29202 0.30182 0.2947 0.2234
3231.038 0.17 0.228 0.177 0.1801 0.2535 0.1973 0.078 0.089 0.105 0.059
3250.328 0.073 0.139 0.164 0.1877 0.2418 0.2086 0.101 0.16 0.2382 0.065
3269.617 0.014 0.139 0.176 0.163 0.2265 0.2009 0.158 0.1986 0.2338 0.2636
3288.907 0.26884 0.1908 0.102 0.093 0.091 0.037 0.04 0.092 0.079 0.097
3308.197 0.111 0.1 0.096 0.072 0.126 0.15 0.075 0.097 0.1915 0.1884
3327.487 0.167 0.1867 0.1849 0.2199 0.2251 0.281165 0.1889 0.145 0.1927 0.082
3346.777 0.172 0.2624 0.2122 0.2009 0.2588 0.31317 0.27141 0.171 0.103 0.106
3366.066 0.094 0.131 0.1898 0.129 0.173 0.2657 0.075 0 0.177 0.2198
3385.356 0.1827 0.1934 0.214 0.146 0.007 0.066 0.158 0.169 0.1836 0.111
3404.646 0.123 0.17 0.2396 0.253 0.1913 0.2202 0.2509 0.278562 0.29511 0.2379
3423.936 0.2411 0.35485 0.277977 0.1962 0.2426 0.2563 0.32727 0.36661 0.2666 0.2033
3443.225 0.197 0.128 0.2427 0.37489 0.34672 0.228 0.11 0.2007 0.2586 0.156
3462.515 0.1835 0.1873 0.018 0.059 0.169 0.147 0.177 0.26884 0.2658 0.2423
3481.805 0.32934 0.36283 0.4015 0.3413 0.287345 0.32089 0.31874 0.30201 0.34979 0.3891
3501.095 0.32961 0.3138 0.27606 0.2331 0.29885 0.34127 0.2551 0.2509 0.33177 0.29533
3520.385 0.2535 0.266 0.2089 0.2588 0.33738 0.29528 0.2209 0.1979 0.27799 0.315
3539.674 0.29368 0.1941 0.102 0.148 0.2111 0.2335 0.237 0.31419 0.3985 0.26807
3558.964 0.1791 0.2582 0.32665 0.4167 0.4462 0.37261 0.33695 0.35471 0.34639 0.36043
3578.254 0.35971 0.29686 0.34404 0.3067 0.2403 0.32498 0.33902 0.29089 0.2241 0.212
3597.544 0.34879 0.27481 0.071 0.172 0.30308 0.2517 0.29674 0.35136 0.31562 0.32618
3616.833 0.2768 0.1954 0.2373 0.33551 0.4032 0.408 0.3904 0.4007 0.36321 0.32382
3636.123 0.32755 0.32995 0.2915 0.2558 0.29407 0.283391 0.2397 0.277416 0.31235 0.3442
3655.413 0.30046 0.2598 0.2122 0.178 0.2555 0.28986 0.287344 0.33847 0.4013 0.4261
3674.703 0.4296 0.31048 0.278007 0.2643 0.2729 0.31832 0.168 0.2307 0.30678 0.2087
3693.993 0.174 0.2042 0.2523 0.31436 0.3887 0.35691 0.30328 0.2556 0.28908 0.3791
3713.282 0.32992 0.2608 0.34725 0.4011 0.33273 0.32568 0.37017 0.34284 0.3161 0.29066
3732.572 0.30299 0.34418 0.29949 0.2334 0.28854 0.4909 0.34646 0.139 0.2546 0.30921
3751.862 0.30784 0.35183 0.32481 0.2164 0.1783 0.2606 0.3811 0.34653 0.2541 0.30051
3771.152 0.2474 0.2425 0.35238 0.4207 0.467 0.433 0.4999 0.5071 0.35446 0.4036
3790.441 0.4549 0.4148 0.4633 0.5102 0.446 0.35545 0.35349 0.4276 0.4815 0.5149
3809.731 0.513 0.4109 0.4637 0.4664 0.4208 0.4405 0.4624 0.508 0.4906 0.5916
3829.021 0.6582 0.5839 0.5035 0.5109 0.5083 0.5564 0.7458 0.7593 0.6146 0.5083
3848.311 0.4776 0.6118 0.6891 0.6464 0.5567 0.4623 0.5418 0.6067 0.5429 0.5927
3867.601 0.6751 0.576 0.4829 0.5523 0.6228 0.6714 0.6205 0.5734 0.7083 0.7525
3886.890 0.7456 0.7954 0.7697 0.698 0.7862 0.8877 0.9067 0.9382 0.9751 0.9443
3906.180 0.8597 0.8515 0.9091 0.8966 0.8001 0.8054 0.8615 0.8627 0.7973 0.7948
3925.470 0.8883 0.8363 0.8285 0.8284 0.8251 0.8921 0.8819 0.9828 1.0489 0.9448
3944.760 0.9407 0.9784 0.9087 0.8392 0.797 0.9196 0.988 0.8715 0.8976 1.0942
3964.049 1.2203 1.0906 1.0063 1.038 0.927 0.9952 1.1082 1.1327 1.2011 1.1744
3983.339 1.2196 1.2073 1.2156 1.288 1.1995 1.117 1.257 1.358 1.2093 1.1563
##END=
