##TITLE=5-Ethyl bicyclo[2.2.1]-2-heptene
##JCAMP-DX=4.24
##DATA TYPE=INFRARED SPECTRUM
##ORIGIN=NIST Mass Spectrometry Data Center
##OWNER=NIST Standard Reference Data Program
Collection (C) 2018 copyright by the U.S. Secretary of Commerce
on behalf of the United States of America. All rights reserved.
##CAS REGISTRY NO=15403-89-1
##MOLFORM=C 9 H 14
##$NIST SOURCE=MSDC-IR
##SPECTROMETER/DATA SYSTEM=HP-GC/MS/IRD
##STATE=gas
##XUNITS=1/CM
##YUNITS=ABSORBANCE
##XFACTOR=1.0
##YFACTOR=0.000003000
##DELTAX=4.0
##FIRSTX=550.0
##LASTX=3846.0
##FIRSTY=0.000282
##MAXX=3846
##MINX=550
##MAXY=0.03
##MINY=0
##NPOINTS=825
##XYDATA=(X++(Y..Y))
550.0 94 47 25 40 43 56 69 54 52 38
590.0 25 15 4 0 12 24 24 40 30 25
630.0 53 51 67 89 80 76 79 85 100 110
670.0 103 84 67 91 138 240 399 645 1059 1610
710.0 2059 2329 2416 2269 1956 1391 806 462 278 187
750.0 161 154 157 182 211 227 235 234 200 155
790.0 108 88 86 99 121 162 225 283 301 316
830.0 347 329 275 213 159 111 74 49 29 19
870.0 17 28 32 40 70 110 172 238 279 293
910.0 295 269 210 170 158 164 185 198 206 209
950.0 191 169 145 139 146 137 126 122 106 88
990.0 71 52 35 23 23 26 32 44 46 44
1030.0 54 52 25 19 24 24 29 26 18 14
1070.0 20 29 44 72 88 97 111 114 113 108
1110.0 106 100 96 98 96 97 98 103 108 114
1150.0 123 117 107 89 67 56 51 57 66 61
1190.0 60 57 51 57 68 69 68 83 109 134
1230.0 145 146 152 160 172 190 204 199 183 162
1270.0 139 118 102 93 100 101 101 119 135 144
1310.0 167 205 252 319 397 468 526 557 542 491
1350.0 428 343 274 240 236 243 260 281 291 280
1390.0 260 218 158 120 98 88 90 98 116 142
1430.0 182 238 304 389 486 581 655 666 646 590
1470.0 506 412 319 236 176 125 96 75 61 55
1510.0 43 35 39 32 23 24 32 42 41 37
1550.0 48 65 88 103 106 106 105 104 93 77
1590.0 60 59 64 78 101 123 147 165 168 163
1630.0 147 134 115 91 75 69 57 41 33 30
1670.0 26 22 20 19 17 15 16 19 17 11
1710.0 9 11 14 11 10 14 17 17 18 18
1750.0 15 8 9 9 1 6 14 9 8 14
1790.0 16 20 24 26 23 22 27 28 17 11
1830.0 16 15 11 11 7 4 5 8 7 4
1870.0 5 8 9 8 9 10 9 7 7 9
1910.0 8 4 6 13 12 8 10 9 5 5
1950.0 7 11 7 4 6 1 0 3 2 3
1990.0 2 5 6 3 4 5 3 6 11 16
2030.0 12 12 19 20 18 21 27 27 26 27
2070.0 22 21 28 28 23 22 23 22 16 13
2110.0 15 14 16 15 10 12 14 12 16 21
2150.0 21 20 19 20 21 21 24 27 29 26
2190.0 26 31 31 30 29 18 16 19 17 17
2230.0 23 25 19 14 17 20 20 18 17 13
2270.0 11 13 14 16 19 16 9 4 0 2
2310.0 8 2 2 9 9 6 12 15 8 9
2350.0 15 12 12 15 19 19 15 14 14 10
2390.0 16 16 12 13 12 7 8 8 8 12
2430.0 10 12 18 15 11 10 10 10 10 5
2470.0 2 8 14 14 15 12 7 5 0 2
2510.0 8 12 17 17 9 6 7 2 3 10
2550.0 11 13 14 11 5 11 17 19 18 16
2590.0 20 29 29 24 25 29 28 28 30 29
2630.0 31 32 26 21 28 31 26 25 24 28
2670.0 29 25 26 27 26 31 34 32 35 40
2710.0 39 38 41 40 45 55 62 70 66 62
2750.0 66 66 67 70 71 70 73 76 83 90
2790.0 95 97 104 110 122 137 151 168 188 215
2830.0 250 287 331 410 537 729 1003 1356 1778 2227
2870.0 2681 3084 3310 3354 3274 3118 2881 2603 2415 2344
2910.0 2385 2532 2778 3126 3581 4145 4742 5266 5720 6217
2950.0 6750 7300 8057 8873 9618 10000 9688 8783 7206 5501
2990.0 3976 2553 1522 921 597 433 346 288 256 246
3030.0 254 279 327 419 564 756 970 1153 1287 1324
3070.0 1243 1075 855 632 448 327 241 190 175 160
3110.0 147 150 154 157 162 161 166 170 170 162
3150.0 142 116 100 86 65 58 47 40 44 36
3190.0 28 34 35 35 36 38 34 26 24 17
3230.0 10 5 7 8 6 8 14 15 13 11
3270.0 2 3 11 12 17 18 17 22 18 11
3310.0 15 23 25 22 14 16 23 16 10 21
3350.0 26 27 22 9 6 18 17 11 19 19
3390.0 19 15 9 5 18 26 17 19 28 26
3430.0 29 32 35 46 42 32 29 27 29 32
3470.0 19 13 22 23 19 18 18 24 26 21
3510.0 22 30 37 33 20 16 22 27 25 30
3550.0 30 24 17 11 21 27 20 26 28 21
3590.0 27 35 31 16 19 28 28 33 33 33
3630.0 43 47 36 24 25 26 36 43 42 43
3670.0 40 37 30 28 38 47 52 54 53 51
3710.0 56 54 53 53 52 48 45 48 62 63
3750.0 65 59 47 45 50 60 59 53 49 58
3790.0 72 73 62 57 56 51 50 47 45 44
3830.0 47 47 48 61 54
##END=
