##TITLE=1,5-Heptadiene
##JCAMP-DX=4.24
##DATA TYPE=INFRARED SPECTRUM
##ORIGIN=NIST Mass Spectrometry Data Center
##OWNER=NIST Standard Reference Data Program
Collection (C) 2018 copyright by the U.S. Secretary of Commerce
on behalf of the United States of America. All rights reserved.
##CAS REGISTRY NO=1541-23-7
##MOLFORM=C 7 H 12
##$NIST SOURCE=MSDC-IR
##SPECTROMETER/DATA SYSTEM=HP-GC/MS/IRD
##STATE=gas
##XUNITS=1/CM
##YUNITS=ABSORBANCE
##XFACTOR=1.0
##YFACTOR=0.000001000
##DELTAX=4.0
##FIRSTX=550.0
##LASTX=3846.0
##FIRSTY=0.000566
##MAXX=3846
##MINX=550
##MAXY=0.01
##MINY=0
##NPOINTS=825
##XYDATA=(X++(Y..Y))
550.0 566 236 0 57 81 35 135 231 212 176
590.0 221 323 179 64 259 373 391 468 591 724
630.0 714 625 532 532 560 524 468 363 275 312
670.0 394 304 102 64 115 156 130 149 213 209
710.0 270 381 240 206 281 150 147 252 233 202
750.0 244 305 249 174 188 177 152 232 350 383
790.0 425 330 226 246 313 369 313 360 302 302
830.0 360 374 446 467 454 514 636 727 739 752
870.0 847 934 1030 1167 1367 1630 1942 2368 2945 3376
910.0 3746 4060 4047 3920 3642 3324 3183 3136 3142 3227
950.0 3447 3760 4023 4163 4274 4212 3979 3710 3431 3222
990.0 3016 2817 2642 2359 1993 1755 1580 1343 1172 1058
1030.0 952 914 886 843 828 841 815 807 796 770
1070.0 756 665 614 539 464 455 433 359 319 356
1110.0 393 377 360 337 335 400 381 308 216 189
1150.0 214 255 268 230 222 218 230 254 246 263
1190.0 261 243 288 322 346 307 313 355 297 264
1230.0 304 323 343 379 431 453 432 423 406 362
1270.0 355 418 482 501 540 580 582 613 644 663
1310.0 658 627 619 616 601 620 654 646 615 588
1350.0 542 537 539 539 537 584 649 659 663 711
1390.0 738 734 748 771 845 925 1016 1109 1189 1287
1430.0 1447 1599 1728 1837 1870 1786 1696 1586 1375 1178
1470.0 1052 931 801 723 644 585 507 460 451 417
1510.0 393 375 333 320 295 271 313 297 293 333
1550.0 305 273 261 293 270 227 233 239 252 246
1590.0 277 317 316 360 410 454 533 646 803 987
1630.0 1229 1490 1632 1647 1549 1306 974 732 554 421
1670.0 378 348 318 302 317 314 278 266 274 290
1710.0 329 304 256 258 280 282 272 274 292 287
1750.0 257 246 217 194 229 207 177 197 204 216
1790.0 215 234 265 265 285 330 359 424 475 490
1830.0 492 479 464 396 297 251 207 150 132 131
1870.0 115 126 139 128 143 171 142 104 115 125
1910.0 142 140 120 128 142 136 132 145 167 149
1950.0 145 164 153 144 167 196 180 175 167 169
1990.0 182 155 156 138 114 104 96 101 102 96
2030.0 104 127 113 88 96 105 98 90 83 117
2070.0 116 70 60 81 99 94 108 126 145 144
2110.0 130 120 91 76 88 89 79 81 85 82
2150.0 99 92 25 18 63 97 103 108 108 88
2190.0 84 81 81 67 54 94 94 32 34 67
2230.0 103 96 101 111 84 84 85 82 51 69
2270.0 91 78 108 109 69 76 104 93 89 112
2310.0 137 127 105 104 93 98 127 148 145 119
2350.0 99 87 115 131 109 118 106 95 106 109
2390.0 102 99 98 96 115 120 118 153 153 130
2430.0 106 100 117 136 164 153 135 147 127 89
2470.0 106 125 126 122 134 121 105 112 122 120
2510.0 124 163 201 185 174 189 157 162 190 197
2550.0 174 170 172 143 139 155 156 164 192 173
2590.0 158 163 187 207 208 216 212 203 226 250
2630.0 230 183 198 237 237 172 162 169 170 215
2670.0 231 243 254 250 261 252 236 225 246 266
2710.0 287 294 258 271 349 416 435 437 423 417
2750.0 434 417 401 390 376 380 370 355 377 413
2790.0 434 436 438 472 515 590 666 764 882 1020
2830.0 1228 1476 1779 2110 2443 2724 3080 3479 3781 3952
2870.0 3977 3908 3811 3738 3775 3944 4236 4662 5224 5910
2910.0 6682 7564 8513 9374 9904 10000 9819 9246 8336 7365
2950.0 6538 5937 5471 5161 4983 4857 4779 4704 4638 4596
2990.0 4532 4500 4480 4442 4332 4221 4077 3888 3629 3369
3030.0 3143 2929 2695 2480 2320 2211 2140 2048 2042 2143
3070.0 2298 2532 2769 2912 2868 2741 2556 2109 1622 1295
3110.0 1039 862 723 683 640 596 622 584 535 492
3150.0 454 461 456 408 370 365 361 341 307 266
3190.0 214 197 237 245 201 187 209 215 265 272
3230.0 216 209 199 175 190 237 225 210 230 191
3270.0 188 232 250 258 254 234 218 222 195 183
3310.0 179 183 187 203 211 165 215 234 175 216
3350.0 273 239 209 200 187 161 168 211 189 199
3390.0 209 190 224 229 205 191 221 249 197 158
3430.0 168 168 243 238 177 171 175 196 201 218
3470.0 220 198 193 206 211 192 109 123 199 148
3510.0 101 126 158 195 150 85 152 170 122 107
3550.0 90 89 144 169 106 109 138 131 121 121
3590.0 110 140 152 123 160 167 106 111 99 35
3630.0 26 103 145 125 132 85 86 81 127 150
3670.0 102 108 133 181 195 194 168 125 118 101
3710.0 109 150 161 146 143 94 87 175 137 43
3750.0 55 140 178 106 57 119 178 148 80 124
3790.0 160 161 188 132 91 89 132 168 157 138
3830.0 136 139 158 154 95
##END=
