##TITLE=N-(2-Hydroxyethyl)-4-cyclohexene-1,2-dicarboximide
##JCAMP-DX=4.24
##DATA TYPE=INFRARED SPECTRUM
##ORIGIN=EPA-IR VAPOR PHASE LIBRARY
##OWNER=SRD/NIST
Collection (C) 2018 copyright by the U.S. Secretary of Commerce
on behalf of the United States of America. All rights reserved.
##CAS REGISTRY NO=15458-48-7
##MOLFORM=C 10 H 13 N O 3
##$NIST SOURCE=MSDC-IR
##STATE=gas
##XUNITS=1/CM
##YUNITS=ABSORBANCE
##XFACTOR=1.
##YFACTOR=0.001
##DELTAX=3.85796
##FIRSTX=551.7
##LASTX=4000.7
##FIRSTY=4.12
##MAXX=4000.7
##MINX=551.688
##MAXY=0.28875
##MINY=0.0001883
##NPOINTS=895
##XYDATA=(X++(Y..Y))
551.688 4.12 4.62 5.2 5.88 6.77 7.79 8.49 8.57 8.24 7.63
590.268 6.91 6.2 5.67 5.46 5.42 5.44 5.37 5.26 5.26 5.29
628.847 5.69 6.4 7.28 8.03 8.38 8.48 8.31 8.13 7.94 7.76
667.427 7.65 7.79 8.58 10.18 12.68 15.66 17.99 18.44 16.62 13.14
706.006 9.38 6.64 4.91 3.73 3.12 2.84 2.67 2.56 2.5 2.75
744.586 3.08 3.35 3.77 4.21 4.6 4.93 4.94 4.71 4.35 3.99
783.165 3.73 3.53 3.45 3.38 3.21 3.2 3.28 3.25 3.25 3.33
821.745 3.48 3.51 3.55 3.71 3.81 3.98 4.16 4.24 4.33 4.37
860.324 4.43 4.56 4.66 4.87 5.2 5.45 5.68 6.02 6.48 7.08
898.904 7.59 7.86 7.85 7.55 7.19 6.84 6.6 6.45 6.27 6.15
937.484 6.13 6.39 6.7 7.03 7.49 8.01 8.32 8.34 8.24 8
976.063 7.76 7.75 7.94 8.31 8.81 9.42 10.29 11.31 12.45 14.08
1014.643 16.16 18.51 20.92 22.98 24.69 26.11 27.8 30.04 31.98 32.68
1053.222 31.79 29.63 27.05 25 23.87 23.26 22.64 22.19 22.01 21.69
1091.802 21 19.92 18.33 16.45 14.66 13.42 12.69 12.25 12.13 12.3
1130.381 12.59 13.5 15.03 16.84 18.95 20.98 22.94 24.58 25.37 25.2
1168.961 24.11 22.45 20.76 19.58 19.09 19.12 19.2 18.72 17.67 16.1
1207.540 14.64 13.82 13.49 13 12.34 11.92 11.5 11.13 10.77 10.67
1246.120 10.73 10.9 11.14 11.19 11.29 11.45 11.51 11.61 11.84 12.27
1284.699 13.07 14.18 15.73 17.86 20.53 23.66 26.89 29.8 32.06 33.52
1323.279 34.33 34.83 35.41 36.34 37.62 39.3 41.82 45.39 49.23 51.63
1361.859 51.35 48.68 45.8 45.95 51.37 61.94 75.03 85.96 89.86 84.7
1400.438 72.26 57.12 43.89 34.5 28.65 25.71 25.21 26.81 29.7 32.45
1439.018 33.64 32.44 29.25 24.74 19.89 15.28 11.71 9.37 8.08 7.25
1477.597 6.47 5.69 4.94 4.26 3.7 3.31 3.02 2.79 2.6 2.44
1516.177 2.33 2.23 2.15 2.12 2.11 2.05 2 1.97 1.93 1.88
1554.756 1.86 1.86 1.85 1.87 1.88 1.88 1.93 1.97 2.07 2.15
1593.336 2.21 2.29 2.38 2.44 2.49 2.61 2.81 3.02 3.36 3.87
1631.915 4.51 5.22 5.88 6.46 7.01 7.6 8.29 9.04 10.03 11.12
1670.495 12.38 13.89 15.84 18.49 22.36 27.36 34.32 44.76 61.54 88.23
1709.075 129.16 182.09 237.93 279.11 288.75 262.77 209.68 149.03 100.3 66.79
1747.654 46.7 34.65 27.53 23.24 20.71 19.27 18.8 19.3 20.99 23.35
1786.234 24.88 24.16 20.85 15.97 11.31 8.12 6.26 5.09 4.31 3.77
1824.813 3.34 3.04 2.85 2.65 2.47 2.35 2.26 2.17 2.07 1.98
1863.393 1.89 1.83 1.8 1.75 1.72 1.67 1.62 1.6 1.62 1.63
1901.972 1.63 1.67 1.67 1.66 1.64 1.61 1.58 1.51 1.44 1.38
1940.552 1.32 1.27 1.23 1.19 1.14 1.12 1.11 1.09 1.06 1.02
1979.131 0.955 0.8833 0.8482 0.8295 0.787 0.7809 0.7919 0.7688 0.7385 0.7386
2017.711 0.7532 0.7302 0.6924 0.6839 0.7081 0.7145 0.6846 0.6388 0.5892 0.5705
2056.291 0.5692 0.5954 0.6363 0.6519 0.6891 0.7032 0.7216 0.7349 0.6954 0.6991
2094.870 0.7063 0.6574 0.6672 0.6736 0.6304 0.6068 0.5939 0.6002 0.5829 0.6001
2133.450 0.6336 0.6129 0.632 0.6372 0.5915 0.5907 0.5985 0.5955 0.5942 0.5569
2172.029 0.5252 0.5353 0.5451 0.5411 0.5383 0.5668 0.5768 0.5694 0.5862 0.6117
2210.609 0.6118 0.5829 0.5773 0.561 0.5358 0.5195 0.5082 0.5223 0.5347 0.5229
2249.188 0.5149 0.5136 0.5242 0.5086 0.4817 0.4909 0.5233 0.5432 0.5098 0.4839
2287.768 0.4716 0.4638 0.4687 0.4475 0.4566 0.4742 0.4971 0.544 0.5798 0.5812
2326.347 0.6079 0.641 0.6597 0.7503 0.8356 0.8676 0.8631 0.8937 0.916 0.8575
2364.927 0.8243 0.795 0.7475 0.7488 0.7731 0.7569 0.7584 0.747 0.7011 0.6909
2403.507 0.705 0.7107 0.7106 0.7242 0.7514 0.7479 0.6743 0.6198 0.5834 0.5589
2442.086 0.5696 0.5792 0.5635 0.5409 0.5524 0.518 0.4978 0.5405 0.5496 0.5029
2480.666 0.4746 0.5068 0.5192 0.4982 0.493 0.5175 0.5043 0.4429 0.4526 0.5282
2519.245 0.5491 0.5639 0.5638 0.583 0.6194 0.6105 0.6748 0.7193 0.6904 0.676
2557.825 0.6536 0.6004 0.564 0.5563 0.5679 0.5366 0.5282 0.5512 0.5328 0.4953
2596.404 0.4897 0.505 0.4799 0.4774 0.4672 0.4644 0.4681 0.4706 0.5255 0.5447
2634.984 0.5323 0.5358 0.5471 0.5701 0.5824 0.5828 0.5809 0.5742 0.6201 0.6768
2673.563 0.6476 0.633 0.69 0.7383 0.7255 0.7626 0.8498 0.886 0.9014 0.93
2712.143 0.9395 0.9321 0.9287 0.9482 0.9949 1 1.01 1.04 1.07 1.12
2750.722 1.15 1.2 1.27 1.3 1.3 1.32 1.39 1.43 1.43 1.48
2789.302 1.58 1.65 1.76 1.88 1.98 2.16 2.38 2.63 2.9 3.17
2827.882 3.51 3.86 4.3 4.98 6.03 7.71 10.14 12.96 15.3 16.51
2866.461 16.33 15.35 14.54 14.52 15.34 16.67 18.05 19.08 19.75 20.07
2905.041 19.97 19.41 18.34 16.96 15.91 16.04 17.65 20.63 24.38 28.15
2943.620 30.54 30.44 28.73 26.19 23.54 21.31 19.26 17.16 14.98 12.93
2982.200 11.25 9.83 8.39 7.03 5.76 4.65 3.85 3.32 2.97 2.75
3020.779 2.71 2.85 3.2 4.03 5.73 8.53 12 14.89 16.03 14.54
3059.359 11.02 7.44 4.85 3.37 2.48 1.88 1.48 1.17 1.01 0.8925
3097.938 0.727 0.6329 0.6077 0.5335 0.4736 0.4811 0.49 0.4226 0.38 0.3494
3136.518 0.3017 0.32 0.3163 0.2499 0.2494 0.3104 0.244 0.1883 0.2684 0.2816
3175.098 0.2646 0.2895 0.2544 0.2779 0.2742 0.2167 0.2692 0.2742 0.2625 0.2873
3213.677 0.2698 0.2718 0.265 0.2724 0.3207 0.3807 0.3744 0.3431 0.3157 0.3181
3252.257 0.3198 0.324 0.3586 0.307 0.2866 0.3592 0.3819 0.411 0.4136 0.3495
3290.836 0.3909 0.4224 0.4375 0.4628 0.4395 0.3879 0.3795 0.4076 0.4096 0.4439
3329.416 0.4508 0.4671 0.5259 0.5609 0.55 0.4793 0.5193 0.5887 0.6141 0.6367
3367.995 0.6861 0.7292 0.7862 0.8672 0.8932 0.9882 1.07 1.08 1.08 1.1
3406.575 1.1 1.13 1.2 1.28 1.36 1.44 1.48 1.54 1.54 1.49
3445.154 1.53 1.64 1.67 1.68 1.76 1.81 1.96 2.21 2.44 2.72
3483.734 3.05 3.35 3.69 3.87 3.92 3.97 3.9 3.96 4.25 4.68
3522.314 5.25 6.06 6.9 7.59 8.22 8.7 8.87 8.81 8.51 7.92
3560.893 7.3 6.68 6.06 5.6 5.16 4.83 4.54 4.32 4.29 4.3
3599.473 4.32 4.34 4.37 4.34 4.31 4.24 3.99 3.74 3.44 3.14
3638.052 2.97 2.82 2.72 2.83 3.21 3.65 4.12 4.42 4.43 4.14
3676.632 3.64 3.13 2.6 2.11 1.72 1.5 1.38 1.16 1.01 0.9691
3715.211 0.9578 0.9081 0.8241 0.7676 0.6877 0.6574 0.673 0.6543 0.645 0.614
3753.791 0.6003 0.5998 0.5215 0.5164 0.5608 0.5008 0.3959 0.401 0.4536 0.4585
3792.370 0.4164 0.4105 0.3963 0.3588 0.3416 0.3805 0.4607 0.466 0.4843 0.4844
3830.950 0.4721 0.4945 0.467 0.4566 0.4189 0.4121 0.498 0.4415 0.4243 0.4899
3869.530 0.4767 0.4695 0.4712 0.4722 0.4909 0.4672 0.4397 0.4391 0.4025 0.3572
3908.109 0.3666 0.41 0.4392 0.4903 0.5113 0.4526 0.4071 0.3636 0.3589 0.4525
3946.689 0.3987 0.3873 0.4997 0.4863 0.4196 0.3621 0.3815 0.4066 0.4202 0.4399
3985.268 0.3547 0.3256 0.3956 0.3714 0.3662
##END=
