##TITLE=N-Tetrafluoroacetylimidazole
##JCAMP-DX=4.24
##DATA TYPE=INFRARED SPECTRUM
##ORIGIN=EPA-IR VAPOR PHASE LIBRARY
##OWNER=SRD/NIST
Collection (C) 2018 copyright by the U.S. Secretary of Commerce
on behalf of the United States of America. All rights reserved.
##CAS REGISTRY NO=1546-79-8
##MOLFORM=C 5 H 3 F 3 N 2 O
##$NIST SOURCE=MSDC-IR
##STATE=gas
##XUNITS=1/CM
##YUNITS=ABSORBANCE
##XFACTOR=1.
##YFACTOR=0.001
##DELTAX=1.92934
##FIRSTX=549.9
##LASTX=3999.5
##FIRSTY=4.0655
##MAXX=3999.53
##MINX=549.863
##MAXY=0.28851
##MINY=0
##NPOINTS=1789
##XYDATA=(X++(Y..Y))
549.863 4.0655 4.0044 4.0723 4.0464 4.083 4.1512 4.0493 4.0598 4.16 4.1444
569.156 4.34 4.64 4.82 4.97 5.21 5.48 5.76 6.16 6.62 6.9
588.450 7.15 7.51 7.86 8.02 7.93 7.78 7.77 8.05 8.61 9.45
607.743 10.46 11.53 12.56 13.51 14.49 15.43 16.22 16.95 17.67 18.08
627.037 18.14 18.28 18.62 19.38 20.74 22.52 22.39 19.41 17.04 15.73
646.330 14.35 13 11.51 9.99 8.59 7.43 6.55 5.84 5.38 5.05
665.624 4.85 4.73 4.58 4.49 4.43 4.34 4.31 4.31 4.32 4.37
684.917 4.4 4.43 4.5 4.59 4.68 4.85 5.11 5.4 5.72 6.08
704.210 6.59 7.26 7.93 8.62 9.46 10.41 11.69 13.46 15.81 17.31
723.504 17.94 19.84 23.53 29.06 36.56 44.76 51.52 54.94 57.91 62.18
742.797 61.64 60.22 59.15 52.18 41.89 32.8 26.78 23.16 20.71 18.78
762.091 17.41 16.24 14.75 13.33 12.14 11.06 10.05 9.13 8.28 7.4
781.384 6.64 6 5.48 5.07 4.76 4.64 4.69 4.82 5.15 5.68
800.678 6.34 7.21 8.22 9.17 10.19 11.26 12.5 14.2 16.15 16.56
819.971 14.99 13.99 13.69 13.32 13.05 12.72 12.39 12.17 11.93 11.22
839.264 9.82 8.53 7.76 7.15 6.59 6.04 5.61 5.26 4.95 4.76
858.558 4.73 4.79 4.96 5.27 5.63 6.13 6.75 7.59 8.7 9.95
877.851 11.12 12.1 13.03 14.42 16.27 18.4 21.32 24.95 29.19 34.83
897.145 42.81 53.57 66.57 80.05 91.35 97.89 98.39 95.9 93.82 87.16
916.438 77.52 68.14 53.76 36.78 22.99 14.28 9.68 7.48 6.36 5.63
935.732 5.14 4.78 4.48 4.28 4.1555 4.034 3.9433 3.8382 3.7257 3.6636
955.025 3.6383 3.5848 3.5562 3.5349 3.4981 3.5397 3.5788 3.5908 3.6935 3.7734
974.318 3.79 3.8629 3.9565 4.0388 4.1325 4.28 4.48 4.75 5.15 5.63
993.612 6.29 7.19 8.37 9.75 11.43 13.49 15.78 18.1 20.15 21.5
1012.905 22.02 21.91 21.62 21.25 20.53 19.08 16.77 14.09 11.49 9.37
1032.199 7.87 6.82 6.18 5.76 5.56 5.64 5.91 6.39 7.14 8.26
1051.492 9.99 12.42 15.73 19.92 24.45 28.55 31.62 33.85 36.02 37.07
1070.786 36.4 35.37 33.32 29.54 25.66 23.41 22.59 23.13 25.32 28.56
1090.079 31.41 32.98 35.21 39.28 42.7 46.76 51.79 53.63 51.83 48.59
1109.372 46.75 46.38 44.61 42.16 39.2 33.54 26.24 19.92 15.97 14.06
1128.666 13.49 13.74 14.39 15.45 16.9 18.64 20.9 23.69 27 31.01
1147.959 35.83 41.54 48.31 56.2 65.22 75.46 87.07 100.01 114.13 129.36
1167.253 145.51 162.13 178.64 193.9 206.2 215.37 222.8 229.3 234.77 237.14
1186.546 233.85 224.82 213.48 204.6 198.98 193.3 185.25 175.37 165.78 159.68
1205.840 159.17 163.39 169.66 176.31 183.75 193.43 206.71 223.57 242.26 260.34
1225.133 275.44 285.43 288.51 283.93 272.36 254.92 232.92 208.12 181.75 154.84
1244.426 129.5 108.82 94.79 87.34 85.03 86.04 88.69 91.57 94.23 96.68
1263.720 98.07 97.52 95.83 92.67 86.45 78.12 69.3 60.86 53.33 46.46
1283.013 39.87 33.35 27.04 21.77 18.05 15.66 14.18 13.22 12.53 11.97
1302.307 11.53 11.21 11.06 11.11 11.34 11.85 12.61 13.52 14.52 15.51
1321.600 16.37 16.95 17.12 16.94 16.58 16.24 15.76 14.75 13.21 11.41
1340.894 9.73 8.45 7.59 7.04 6.71 6.53 6.44 6.39 6.38 6.44
1360.187 6.62 6.85 7.17 7.65 8.32 9.25 10.5 12.18 14.45 17.39
1379.480 21.18 25.85 31.36 37.71 44.92 52.68 60.64 68.45 75.71 81.88
1398.774 86.62 89.56 90.44 89.09 85.41 79.55 71.97 63.4 54.43 45.56
1418.067 37.44 30.23 24.29 19.62 16.15 13.89 12.6 11.97 11.72 11.78
1437.361 12.15 12.72 13.52 14.48 15.36 16.05 16.68 17.5 18.73 20.26
1456.654 22.38 25.11 28.13 31.56 35.41 39.52 43.39 47.02 50.8 55.25
1475.948 59.93 64.04 66.74 67.02 65.16 63.07 61 58.45 55.62 51.27
1495.241 44.85 38.03 32.28 27.74 24.14 21.22 18.71 16.61 14.97 13.57
1514.534 12.38 11.42 10.73 10.32 10.13 10.19 10.48 11.01 11.76 12.6
1533.828 13.36 13.81 13.82 13.5 13.2 12.87 12.28 11.7 10.87 9.65
1553.121 8.62 7.88 7.41 7.16 7.06 6.9 6.64 6.4 6.01 5.54
1572.415 5.14 4.84 4.64 4.63 4.75 4.95 5.31 5.73 6.11 6.34
1591.708 6.49 6.65 6.73 6.73 6.7 6.57 6.33 6.06 5.96 6.02
1611.002 6.17 6.43 6.72 7.04 7.34 7.68 8.1 8.42 8.56 8.5
1630.295 8.24 7.99 7.62 7.13 6.72 6.19 5.62 5.08 4.69 4.49
1649.588 4.39 4.42 4.59 4.82 5.05 5.31 5.55 5.77 5.96 6.07
1668.882 6.17 6.21 6.23 6.24 6.21 6.19 6.11 6.06 6.05 6.06
1688.175 6.05 5.95 5.88 5.86 5.79 5.78 5.79 5.73 5.68 5.57
1707.469 5.49 5.51 5.55 5.66 5.84 6.03 6.21 6.47 6.83 7.19
1726.762 7.69 8.29 8.96 9.78 10.79 11.94 13.32 15.03 17.15 19.77
1746.056 23.08 27.3 32.72 39.73 48.53 59.71 73.98 91.01 110.65 131.74
1765.349 152.15 170.28 184.35 192.82 195.96 194.78 189.27 178.6 161.92 139.3
1784.642 112.6 86.32 64.55 48.24 36.5 28.2 22.45 18.47 15.9 14.21
1803.936 13.18 12.52 12.05 11.75 11.55 11.36 11.19 10.96 10.67 10.32
1823.229 9.89 9.32 8.65 8.01 7.39 6.73 6.02 5.35 4.84 4.44
1842.523 4.0875 3.793 3.5434 3.3434 3.18147 3.03 2.901 2.804 2.69 2.586
1861.816 2.54 2.483 2.436 2.41 2.367 2.4 2.465 2.469 2.457 2.472
1881.110 2.524 2.564 2.617 2.701 2.716 2.742 2.841 2.936 3.02 3.0934
1900.403 3.16336 3.2652 3.3776 3.4665 3.5483 3.6538 3.7679 3.8304 3.8215 3.8533
1919.696 3.9181 3.8924 3.8218 3.7471 3.6801 3.5805 3.426 3.2756 3.1309 2.949
1938.990 2.752 2.608 2.502 2.411 2.329 2.283 2.268 2.233 2.222 2.224
1958.283 2.234 2.246 2.246 2.235 2.229 2.209 2.169 2.18 2.15 2.08
1977.577 2.03 2 1.99 1.97 1.92 1.85 1.82 1.83 1.82 1.78
1996.870 1.78 1.82 1.83 1.81 1.81 1.83 1.82 1.81 1.82 1.83
2016.164 1.85 1.83 1.81 1.85 1.89 1.88 1.87 1.87 1.84 1.82
2035.457 1.8 1.74 1.71 1.69 1.64 1.58 1.57 1.57 1.56 1.57
2054.750 1.59 1.58 1.59 1.62 1.65 1.67 1.68 1.71 1.71 1.69
2074.044 1.73 1.77 1.79 1.81 1.82 1.82 1.81 1.78 1.78 1.81
2093.337 1.82 1.83 1.83 1.83 1.83 1.82 1.83 1.87 1.88 1.89
2112.631 1.9 1.91 1.91 1.9 1.89 1.91 1.92 1.92 1.96 1.98
2131.924 1.95 1.96 1.97 1.94 1.96 1.96 1.92 1.94 1.95 1.93
2151.218 1.92 1.89 1.86 1.81 1.77 1.76 1.74 1.7 1.67 1.67
2170.511 1.68 1.66 1.64 1.65 1.64 1.68 1.68 1.7 1.71 1.71
2189.804 1.72 1.68 1.65 1.65 1.64 1.63 1.62 1.6 1.61 1.62
2209.098 1.61 1.58 1.62 1.67 1.65 1.64 1.64 1.67 1.7 1.7
2228.391 1.71 1.72 1.75 1.79 1.82 1.83 1.86 1.86 1.83 1.81
2247.685 1.81 1.79 1.75 1.76 1.78 1.76 1.75 1.75 1.76 1.78
2266.978 1.81 1.82 1.81 1.81 1.84 1.87 1.87 1.9 1.95 1.96
2286.272 1.99 2.03 2.04 2.04 2.05 2.07 2.04 2 1.94 1.93
2305.565 1.95 1.94 1.93 1.9 1.87 1.89 1.92 1.91 1.92 1.9
2324.858 1.88 1.86 1.87 1.92 1.93 1.92 1.93 1.91 1.91 1.96
2344.152 1.97 2.01 2.06 2.08 2.08 2.07 2.11 2.16 2.14 2.14
2363.445 2.189 2.203 2.252 2.24 2.201 2.247 2.235 2.206 2.2 2.197
2382.739 2.174 2.15 2.15 2.14 2.15 2.178 2.175 2.174 2.239 2.271
2402.032 2.247 2.302 2.366 2.349 2.334 2.396 2.457 2.522 2.565 2.571
2421.326 2.594 2.579 2.561 2.512 2.468 2.424 2.358 2.314 2.243 2.189
2440.619 2.16 2.1 2.08 2.05 1.98 1.94 1.95 1.93 1.88 1.88
2459.912 1.86 1.86 1.89 1.85 1.82 1.85 1.79 1.76 1.74 1.7
2479.206 1.7 1.69 1.73 1.74 1.75 1.76 1.77 1.78 1.78 1.86
2498.499 1.88 1.87 1.96 2.03 2.04 2.06 2.07 2.06 2.08 2.11
2517.793 2.12 2.163 2.181 2.13 2.12 2.13 2.11 2.1 2.11 2.162
2537.086 2.185 2.193 2.14 2.12 2.168 2.181 2.161 2.11 2.13 2.16
2556.380 2.1 2 1.96 1.94 1.91 1.87 1.8 1.71 1.65 1.59
2575.673 1.6 1.63 1.57 1.58 1.64 1.62 1.57 1.64 1.68 1.66
2594.966 1.63 1.61 1.64 1.63 1.57 1.54 1.58 1.63 1.65 1.66
2614.260 1.66 1.69 1.7 1.71 1.76 1.76 1.76 1.77 1.78 1.78
2633.553 1.73 1.69 1.65 1.63 1.61 1.57 1.49 1.39 1.35 1.33
2652.847 1.3 1.3 1.34 1.29 1.24 1.23 1.23 1.28 1.24 1.18
2672.140 1.19 1.24 1.23 1.23 1.28 1.26 1.19 1.17 1.15 1.09
2691.434 1.08 1.02 1.05 1.07 1.01 0.97 0.99 1 0.91 0.85
2710.727 0.93 1.02 0.99 0.95 0.98 0.98 0.93 0.93 0.92 0.89
2730.020 0.87 0.86 0.83 0.82 0.82 0.84 0.81 0.81 0.85 0.85
2749.314 0.83 0.9 0.9 0.83 0.81 0.84 0.82 0.8 0.83 0.9
2768.607 0.91 0.87 0.87 0.91 0.96 1.04 1.08 1.03 1.09 1.17
2787.901 1.23 1.26 1.26 1.29 1.28 1.26 1.25 1.27 1.22 1.22
2807.194 1.22 1.15 1.09 1.03 0.97 0.94 0.92 0.84 0.74 0.7
2826.488 0.68 0.65 0.62 0.6 0.55 0.51 0.44 0.38 0.43 0.42
2845.781 0.46 0.47 0.46 0.51 0.58 0.56 0.45 0.46 0.46 0.45
2865.074 0.42 0.38 0.41 0.39 0.28 0.28 0.33 0.38 0.35 0.27
2884.368 0.27 0.33 0.3 0.28 0.32 0.31 0.28 0.33 0.39 0.31
2903.661 0.24 0.25 0.34 0.39 0.37 0.42 0.44 0.4 0.43 0.43
2922.955 0.38 0.45 0.52 0.56 0.54 0.5 0.58 0.66 0.7 0.71
2942.248 0.73 0.73 0.78 0.85 0.82 0.86 0.9 0.87 0.74 0.66
2961.542 0.64 0.54 0.44 0.4 0.37 0.38 0.41 0.38 0.29 0.24
2980.835 0.3 0.29 0.21 0.19 0.22 0.25 0.3 0.33 0.31 0.26
3000.128 0.25 0.28 0.31 0.25 0.14 0.12 0.16 0.26 0.21 0.15
3019.422 0.21 0.14 0.09 0.16 0.14 0.09 0.12 0.08 0.03 0.05
3038.715 0.1 0.09 0.09 0.18 0.2 0.15 0.15 0.24 0.26 0.3
3058.009 0.42 0.44 0.43 0.47 0.43 0.34 0.38 0.41 0.38 0.38
3077.302 0.33 0.17 0.12 0.17 0.08 0.06 0 0.05 0.21 0.18
3096.596 0.15 0.12 0.15 0.15 0.21 0.3 0.26 0.35 0.54 0.58
3115.889 0.63 0.85 1.13 1.31 1.58 1.88 2.16 2.599 3.036 3.3927
3135.182 3.6957 3.9085 4.1359 4.39 4.45 4.35 4.23 4.059 3.9712 3.9478
3154.476 3.7883 3.6279 3.6945 3.8308 3.9291 4.016 4.0378 3.9513 3.9583 4.0123
3173.769 3.9636 3.9478 3.796 3.4972 3.172 2.939 2.617 2.251 1.95 1.66
3193.063 1.51 1.36 1.15 0.96 0.79 0.6 0.45 0.37 0.29 0.26
3212.356 0.28 0.36 0.36 0.19 0.13 0.19 0.31 0.3 0.22 0.16
3231.650 0.21 0.28 0.24 0.28 0.3 0.19 0.16 0.31 0.35 0.2
3250.943 0.2 0.31 0.4 0.38 0.31 0.34 0.36 0.3 0.23 0.36
3270.236 0.42 0.38 0.39 0.39 0.41 0.4 0.37 0.43 0.62 0.61
3289.530 0.45 0.37 0.38 0.49 0.55 0.54 0.61 0.68 0.72 0.69
3308.823 0.58 0.55 0.61 0.57 0.44 0.44 0.64 0.74 0.67 0.64
3328.117 0.71 0.82 0.8 0.71 0.67 0.79 0.85 0.82 0.89 0.82
3347.410 0.69 0.64 0.68 0.78 0.86 0.9 0.89 0.96 0.96 0.93
3366.704 0.95 0.92 0.85 0.84 0.89 0.87 0.8 0.81 0.88 0.96
3385.997 0.91 0.87 0.84 0.77 0.8 0.89 0.94 0.93 0.92 0.84
3405.290 0.88 0.97 1.01 1.13 1.25 1.2 1.14 1.09 1.05 1
3424.584 0.9 0.96 1.04 1.13 1.26 1.23 1.24 1.29 1.34 1.31
3443.877 1.19 1.25 1.4 1.36 1.31 1.32 1.23 1.24 1.25 1.22
3463.171 1.41 1.54 1.48 1.53 1.5 1.37 1.41 1.49 1.46 1.44
3482.464 1.54 1.65 1.61 1.67 1.73 1.72 1.84 1.89 1.95 2.07
3501.758 2.11 2.382 2.569 2.59 2.68 2.783 2.98 3.16784 3.3741 3.4697
3521.051 3.57 3.6994 3.7182 3.7961 3.763 3.6328 3.6028 3.5764 3.4778 3.3447
3540.344 3.19871 2.997 2.784 2.648 2.515 2.337 2.233 2.09 1.97 1.95
3559.638 1.94 1.93 1.93 1.87 1.89 1.96 2 2 1.9 1.79
3578.931 1.82 1.87 1.89 1.9 1.94 1.95 1.89 1.85 1.88 1.83
3598.225 1.77 1.77 1.67 1.55 1.53 1.64 1.74 1.78 1.75 1.74
3617.518 1.72 1.67 1.73 1.74 1.72 1.66 1.64 1.68 1.69 1.75
3636.812 1.75 1.79 1.75 1.77 1.79 1.73 1.78 1.76 1.7 1.71
3656.105 1.78 1.91 1.88 1.79 1.81 1.84 1.81 1.81 1.73 1.73
3675.398 1.88 1.83 1.75 1.81 1.86 1.8 1.77 1.7 1.72 1.8
3694.692 1.77 1.8 1.85 1.87 1.85 1.79 1.76 1.8 1.84 1.84
3713.985 1.85 1.88 1.87 1.8 1.77 1.78 1.76 1.71 1.8 1.86
3733.279 1.86 1.86 1.83 1.8 1.82 1.83 1.77 1.83 1.85 1.84
3752.572 1.88 1.9 1.87 1.83 1.84 1.74 1.82 1.91 1.84 1.82
3771.866 1.78 1.79 1.88 1.78 1.73 1.81 1.81 1.82 1.83 1.81
3791.159 1.77 1.74 1.75 1.79 1.84 1.87 1.88 1.85 1.86 1.86
3810.452 1.78 1.75 1.83 1.92 1.87 1.8 1.79 1.81 1.91 1.94
3829.746 1.88 1.85 1.8 1.87 1.88 1.78 1.77 1.85 1.88 1.82
3849.039 1.77 1.78 1.8 1.78 1.74 1.73 1.8 1.84 1.87 1.86
3868.333 1.85 1.84 1.78 1.83 1.9 1.89 1.96 1.99 1.89 1.81
3887.626 1.85 1.95 1.96 1.92 1.93 1.87 1.87 2 1.94 1.86
3906.920 1.9 1.9 1.89 1.84 1.85 1.92 1.89 1.83 1.82 1.8
3926.213 1.79 1.84 1.83 1.75 1.75 1.83 1.87 1.86 1.84 1.84
3945.506 1.85 1.77 1.76 1.84 1.91 1.89 1.86 1.89 1.84 1.8
3964.800 1.84 1.7 1.64 1.81 1.95 1.91 1.81 1.78 1.88 2
3984.093 1.97 1.91 1.83 1.82 1.86 1.85 1.92 1.93 1.9
##END=
