##TITLE=N,N-Dimethyltrifluoroacetamide
##JCAMP-DX=4.24
##DATA TYPE=INFRARED SPECTRUM
##ORIGIN=NIST Mass Spectrometry Data Center
##OWNER=NIST Standard Reference Data Program
Collection (C) 2018 copyright by the U.S. Secretary of Commerce
on behalf of the United States of America. All rights reserved.
##CAS REGISTRY NO=1547-87-1
##MOLFORM=C 4 H 6 F 3 N O
##$NIST SOURCE=MSDC-IR
##SPECTROMETER/DATA SYSTEM=HP-GC/MS/IRD
##STATE=gas
##XUNITS=1/CM
##YUNITS=ABSORBANCE
##XFACTOR=1.0
##YFACTOR=0.000002100
##DELTAX=4.0
##FIRSTX=550.0
##LASTX=3846.0
##FIRSTY=0.000202
##MAXX=3846
##MINX=550
##MAXY=0.021
##MINY=0
##NPOINTS=825
##XYDATA=(X++(Y..Y))
550.0 96 166 96 57 40 44 104 146 149 138
590.0 115 153 157 112 80 65 32 44 69 27
630.0 41 82 54 26 57 154 328 548 758 914
670.0 937 880 795 565 324 163 88 89 99 88
710.0 60 28 9 29 53 101 158 202 277 410
750.0 562 648 681 660 548 386 252 201 134 67
790.0 54 37 29 68 88 57 44 32 22 18
830.0 10 12 38 44 32 53 62 52 53 55
870.0 47 29 20 5 7 28 6 6 52 54
910.0 89 169 217 241 270 261 237 191 132 112
950.0 74 58 85 84 67 73 70 57 53 64
990.0 85 72 42 62 90 81 88 125 168 216
1030.0 258 315 402 469 546 603 676 801 899 976
1070.0 1089 1331 1680 2092 2663 3333 4040 4733 5237 5478
1110.0 5410 5072 4612 4213 4159 4530 5195 6084 7180 8394
1150.0 9159 8780 7828 6900 5800 4805 4356 4480 5012 5773
1190.0 6535 7011 6996 6596 5947 5046 4037 3189 2620 2314
1230.0 2239 2346 2599 2963 3376 3777 4073 4195 4148 3981
1270.0 3766 3534 3285 3016 2714 2336 1878 1409 994 699
1310.0 533 455 418 406 407 383 353 336 315 297
1350.0 288 281 297 316 335 362 412 484 583 712
1390.0 865 1043 1227 1402 1549 1639 1676 1661 1558 1385
1430.0 1192 1007 821 670 583 542 550 585 605 633
1470.0 672 685 675 672 682 677 652 633 625 645
1510.0 639 624 651 660 624 572 529 512 474 401
1550.0 350 355 383 322 271 274 277 234 203 213
1590.0 205 196 173 171 174 162 170 184 188 189
1630.0 183 213 232 246 280 328 358 366 418 484
1670.0 586 708 841 1065 1397 1813 2484 3481 4769 6284
1710.0 7864 9144 9885 10000 9493 8310 6656 5019 3687 2685
1750.0 1974 1437 1049 773 592 493 408 341 298 264
1790.0 245 215 190 189 173 157 151 140 138 126
1830.0 108 102 111 123 108 85 88 92 85 98
1870.0 111 97 77 71 77 83 76 67 63 63
1910.0 63 62 60 55 45 34 34 42 52 43
1950.0 30 33 42 37 30 28 25 19 23 32
1990.0 35 27 13 20 24 29 39 31 27 34
2030.0 38 43 39 29 32 28 16 15 29 41
2070.0 46 43 34 28 35 35 25 13 2 4
2110.0 11 10 17 21 22 28 19 12 22 21
2150.0 19 8 16 28 20 25 37 26 20 34
2190.0 36 27 27 26 22 21 25 25 23 24
2230.0 19 21 31 23 7 0 8 6 14 18
2270.0 15 20 16 14 19 22 19 18 14 17
2310.0 29 50 68 70 73 82 84 74 65 55
2350.0 47 71 97 101 81 60 53 48 47 46
2390.0 35 34 37 35 34 28 36 36 34 28
2430.0 13 14 27 29 14 18 34 36 53 68
2470.0 68 54 51 53 49 53 55 47 32 33
2510.0 35 35 22 12 29 42 27 15 26 40
2550.0 48 33 26 46 47 35 20 20 36 24
2590.0 26 39 28 17 32 39 37 38 37 38
2630.0 19 12 26 19 2 19 29 10 7 15
2670.0 19 23 35 22 14 25 24 28 37 36
2710.0 25 24 34 31 18 26 29 28 34 33
2750.0 35 42 46 52 32 27 46 51 64 72
2790.0 91 105 137 169 181 188 177 187 194 214
2830.0 240 232 247 261 246 249 275 278 291 335
2870.0 371 417 462 520 569 582 598 614 612 647
2910.0 673 690 737 800 900 991 1090 1220 1335 1404
2950.0 1434 1425 1378 1268 1139 1017 891 754 630 527
2990.0 439 370 344 320 276 257 249 229 225 207
3030.0 203 232 250 258 247 204 214 227 212 206
3070.0 189 175 162 146 137 146 142 103 87 95
3110.0 97 82 78 81 66 73 81 54 32 48
3150.0 64 69 53 50 92 88 69 66 65 78
3190.0 71 50 46 70 68 43 39 49 51 31
3230.0 34 30 19 37 67 73 63 59 34 34
3270.0 48 10 16 53 26 11 28 64 55 48
3310.0 40 19 35 19 21 40 56 70 59 47
3350.0 47 65 52 31 45 53 64 75 75 77
3390.0 78 64 60 96 121 104 103 121 138 146
3430.0 132 121 123 123 110 116 103 85 100 69
3470.0 64 91 92 92 82 72 46 56 95 83
3510.0 58 52 33 32 50 51 63 52 49 80
3550.0 73 39 22 46 102 84 53 82 106 112
3590.0 96 77 96 95 85 104 109 108 101 86
3630.0 89 70 64 58 51 93 108 82 72 93
3670.0 76 79 83 60 51 45 56 70 83 94
3710.0 84 67 59 78 90 93 79 42 78 117
3750.0 137 155 127 92 82 84 82 68 50 70
3790.0 72 68 86 72 68 68 48 33 63 69
3830.0 83 127 117 85 60
##END=
