##TITLE=4-(Trifluoromethyl)phenyl isocyanate
##JCAMP-DX=4.24
##DATA TYPE=INFRARED SPECTRUM
##ORIGIN=EPA-IR VAPOR PHASE LIBRARY
##OWNER=SRD/NIST
Collection (C) 2018 copyright by the U.S. Secretary of Commerce
on behalf of the United States of America. All rights reserved.
##CAS REGISTRY NO=1548-13-6
##MOLFORM=C 8 H 4 F 3 N O
##$NIST SOURCE=MSDC-IR
##STATE=gas
##XUNITS=1/CM
##YUNITS=ABSORBANCE
##XFACTOR=1.
##YFACTOR=0.001
##DELTAX=1.92898
##FIRSTX=549.8
##LASTX=4000.7
##FIRSTY=13.554
##MAXX=4000.7
##MINX=549.759
##MAXY=0.520034
##MINY=0
##NPOINTS=1790
##XYDATA=(X++(Y..Y))
549.759 13.554 13.524 13.224 13.214 13.084 13.304 13.684 13.874 14.164 14.644
569.049 14.814 14.654 14.584 14.604 13.954 13.114 12.814 12.684 12.744 12.724
588.339 12.804 12.824 12.934 13.224 12.584 11.144 10.044 9.174 8.294 7.644
607.628 7.064 6.494 5.934 5.644 5.354 4.954 4.954 5.004 4.854 4.694
626.918 4.634 4.774 5.244 6.034 7.394 9.314 11.794 14.634 16.884 17.814
646.208 18.164 19.024 19.104 17.124 14.004 10.984 8.484 6.644 5.734 5.374
665.498 5.074 5.124 5.294 5.364 5.634 6.144 6.594 6.884 7.324 7.854
684.787 8.624 9.834 11.344 13.224 15.424 17.894 20.304 22.054 23.014 23.094
704.077 22.404 20.774 18.424 15.774 13.214 10.724 8.494 6.954 5.664 4.604
723.367 4.094 4.064 4.324 5.084 6.274 7.524 8.824 10.484 13.334 17.594
742.657 21.504 25.814 33.644 44.324 54.994 64.264 74.574 92.094 113.534 111.494
761.947 86.324 69.544 62.884 55.904 46.764 37.274 29.784 24.834 21.644 19.174
781.236 16.314 12.664 9.354 7.114 5.754 5.014 4.694 4.394 4.074 3.874
800.526 3.614 3.414 3.324 3.234 3.054 2.714 2.524 2.354 2.104 1.894
819.816 1.684 1.561 1.3503 1.111 1.0249 0.9126 0.7386 0.8 0.814 0.8502
839.106 1.0538 0.9811 0.837 0.8732 0.8593 0.8944 0.9677 0.9879 1.017 0.8825
858.395 0.8087 0.983 1.2632 1.4771 1.644 1.824 1.804 1.754 1.844 1.834
877.685 1.794 1.704 1.4837 1.4589 1.4008 1.3853 1.3935 1.5517 1.864 2.114
896.975 2.574 2.964 3.454 4.154 4.804 5.634 6.494 7.164 7.794 8.494
916.265 9.104 9.584 10.044 10.584 11.214 12.014 12.844 13.814 15.464 17.534
935.555 20.064 23.214 26.654 30.184 33.484 36.244 38.364 39.544 39.334 37.164
954.844 33.884 30.334 26.704 23.194 19.924 17.184 14.924 12.954 11.344 10.054
974.134 8.864 8.004 7.294 6.734 6.414 5.894 5.404 5.164 4.984 4.674
993.424 4.464 4.304 4.184 4.224 4.184 4.314 4.484 4.644 5.124 5.724
1012.714 6.604 7.894 9.724 12.334 15.264 18.864 23.674 29.444 35.574 41.154
1032.003 45.734 48.714 50.074 49.714 48.024 45.134 41.224 37.144 34.414 34.644
1051.293 37.854 44.384 53.224 62.314 69.924 74.764 76.404 76.034 72.944 64.444
1070.583 51.814 39.124 29.124 22.134 17.544 14.994 13.574 12.614 11.964 11.734
1089.873 11.834 11.624 11.574 12.304 13.124 13.784 14.964 16.904 20.234 24.774
1109.163 31.264 40.634 51.394 61.164 68.934 74.994 78.944 80.504 78.084 71.754
1128.452 65.104 61.214 61.684 66.534 74.864 86.884 102.234 120.634 142.594 167.184
1147.742 192.224 216.444 237.724 255.484 269.574 277.014 275.084 262.424 244.024 228.674
1167.032 221.344 221.474 226.814 235.294 242.704 244.084 237.274 222.514 201.244 176.034
1186.322 148.884 120.964 95.294 74.544 59.034 47.834 39.704 33.644 29.484 26.404
1205.611 23.874 21.834 19.704 18.024 16.684 15.334 14.114 13.364 12.474 11.814
1224.901 11.604 11.274 11.154 11.204 11.464 11.674 12.264 13.244 14.444 16.324
1244.191 18.984 22.474 26.804 32.014 37.664 43.334 48.194 51.424 53.384 54.324
1263.481 54.044 52.354 49.414 45.694 41.724 38.264 35.464 33.244 31.864 31.324
1282.771 31.524 32.214 33.314 34.754 36.584 39.104 42.724 47.664 54.264 63.324
1302.060 75.774 92.834 115.484 144.194 178.024 214.054 247.994 273.934 287.674 289.224
1321.350 280.164 260.444 228.024 184.674 138.554 98.044 67.404 46.944 34.414 26.964
1340.640 22.364 19.344 17.234 15.644 14.324 13.084 12.014 11.144 10.324 9.634
1359.930 8.994 8.234 7.554 7.024 6.634 6.324 6.004 5.684 5.444 5.184
1379.219 4.904 4.674 4.444 4.234 4.024 3.764 3.534 3.394 3.264 3.144
1398.509 3.094 3.034 3.014 3.104 3.194 3.324 3.484 3.684 3.954 4.294
1417.799 4.634 4.924 5.274 5.824 6.544 7.354 8.414 9.804 11.534 13.594
1437.089 16.034 18.924 22.314 26.244 30.914 36.194 41.874 47.244 51.224 53.224
1456.378 53.064 50.824 46.744 41.164 34.594 28.054 23.094 20.414 19.824 20.854
1475.668 23.304 26.824 31.224 36.604 42.534 48.564 54.264 59.134 62.704 64.634
1494.958 64.584 62.234 57.904 51.964 45.034 37.904 30.874 24.434 19.024 14.834
1514.248 11.924 9.874 8.404 7.244 6.324 5.624 5.074 4.694 4.434 4.184
1533.538 4.174 4.324 4.444 4.654 4.934 5.194 5.514 5.974 6.414 6.864
1552.827 7.564 8.514 9.644 11.064 12.884 15.204 18.024 21.344 25.304 29.794
1572.117 34.634 39.754 44.944 49.794 53.804 56.944 59.284 60.824 61.664 61.994
1591.407 62.274 63.024 64.244 65.634 66.764 66.914 65.654 62.824 58.604 53.334
1610.697 47.444 41.334 35.494 30.244 25.874 22.434 19.814 17.574 15.574 13.864
1629.986 12.334 10.914 9.554 8.284 7.194 6.284 5.544 4.994 4.504 4.074
1649.276 3.754 3.534 3.354 3.214 3.064 2.944 2.744 2.584 2.484 2.384
1668.566 2.354 2.364 2.364 2.274 2.194 2.244 2.274 2.254 2.284 2.354
1687.856 2.384 2.424 2.504 2.594 2.724 2.884 3.104 3.264 3.424 3.664
1707.146 3.814 3.904 3.964 3.894 3.814 3.694 3.594 3.664 3.704 3.824
1726.435 4.004 4.184 4.344 4.374 4.454 4.554 4.524 4.434 4.344 4.244
1745.725 4.124 4.014 3.904 3.854 3.784 3.724 3.724 3.744 3.704 3.654
1765.015 3.624 3.594 3.604 3.554 3.494 3.494 3.514 3.514 3.474 3.534
1784.305 3.634 3.734 3.794 3.854 3.924 4.024 4.214 4.404 4.614 4.904
1803.594 5.184 5.474 5.834 6.184 6.394 6.514 6.574 6.454 6.274 6.104
1822.884 5.884 5.604 5.384 5.284 5.254 5.284 5.374 5.574 5.824 6.034
1842.174 6.304 6.554 6.704 6.804 6.884 6.994 7.074 7.134 7.204 7.374
1861.464 7.554 7.754 7.944 8.174 8.414 8.634 8.964 9.234 9.494 9.814
1880.754 10.194 10.624 11.104 11.564 12.064 12.594 13.114 13.634 14.044 14.334
1900.043 14.574 14.774 14.924 15.124 15.314 15.584 15.984 16.594 17.364 18.314
1919.333 19.394 20.504 21.704 22.854 23.994 25.174 26.314 27.424 28.614 29.914
1938.623 31.424 33.164 35.104 37.304 39.814 42.574 45.504 48.544 51.684 54.834
1957.913 57.954 61.094 64.274 67.564 70.914 74.464 78.264 82.374 86.884 91.694
1977.202 96.794 102.334 108.314 114.594 121.294 128.524 136.194 144.354 153.024 162.134
1996.492 171.764 181.784 192.004 202.324 212.784 223.274 233.604 243.714 253.864 264.264
2015.782 274.854 285.964 297.824 310.614 324.674 340.124 357.074 375.914 396.134 417.514
2035.072 439.894 461.974 482.514 499.934 512.794 519.744 520.034 513.864 501.814 485.364
2054.362 466.514 447.414 430.094 415.694 404.954 398.424 396.244 398.314 404.224 413.544
2073.651 425.984 441.034 457.534 474.134 488.764 499.734 505.774 505.494 498.284 484.264
2092.941 464.474 439.904 411.854 381.964 351.504 321.614 293.194 266.764 242.864 221.744
2112.231 203.304 187.594 174.474 163.664 155.054 148.264 143.004 139.064 136.224 134.234
2131.521 132.754 131.494 130.304 129.184 127.984 126.594 124.954 122.854 120.334 117.084
2150.810 112.864 107.954 102.274 96.164 89.934 83.604 77.414 71.464 65.984 60.974
2170.100 56.454 52.524 48.994 45.894 43.254 40.884 38.884 37.314 36.034 34.964
2189.390 34.094 33.534 33.204 32.984 32.794 32.634 32.484 32.244 31.994 31.604
2208.680 30.914 30.054 29.054 27.834 26.494 25.164 23.814 22.444 21.114 19.904
2227.970 18.854 17.844 16.914 16.044 15.194 14.444 13.674 12.844 12.134 11.444
2247.259 10.664 9.934 9.334 8.774 8.274 7.814 7.434 7.074 6.744 6.514
2266.549 6.324 6.184 6.054 5.944 5.814 5.734 5.644 5.454 5.264 5.164
2285.839 5.144 5.024 4.854 4.824 4.754 4.654 4.594 4.514 4.524 4.574
2305.129 4.574 4.504 4.454 4.494 4.594 4.584 4.504 4.604 4.674 4.654
2324.418 4.674 4.764 4.844 4.864 4.844 4.714 4.614 4.544 4.474 4.434
2343.708 4.394 4.384 4.394 4.324 4.234 4.154 4.164 4.184 4.154 4.084
2362.998 3.994 3.934 3.924 3.934 3.904 3.834 3.834 3.934 3.944 3.944
2382.288 3.984 3.984 3.994 3.994 3.904 3.914 3.974 3.974 3.994 3.994
2401.578 3.964 3.874 3.774 3.754 3.644 3.524 3.544 3.464 3.394 3.324
2420.867 3.194 3.224 3.244 3.234 3.224 3.144 3.154 3.244 3.234 3.184
2440.157 3.224 3.274 3.284 3.294 3.234 3.234 3.214 3.214 3.254 3.254
2459.447 3.344 3.314 3.304 3.414 3.574 3.734 3.884 3.954 4.004 4.134
2478.737 4.224 4.344 4.524 4.634 4.754 4.974 5.144 5.294 5.494 5.594
2498.026 5.784 6.044 6.134 6.214 6.394 6.604 6.674 6.754 6.884 6.954
2517.316 7.004 7.004 6.984 6.874 6.834 6.834 6.744 6.624 6.434 6.364
2536.606 6.394 6.314 6.304 6.334 6.324 6.414 6.494 6.584 6.694 6.804
2555.896 6.954 7.094 7.204 7.304 7.434 7.574 7.724 7.854 8.004 8.124
2575.186 8.244 8.364 8.504 8.604 8.764 8.864 8.854 8.784 8.574 8.404
2594.475 8.184 7.844 7.404 6.954 6.564 6.074 5.624 5.324 4.954 4.534
2613.765 4.204 3.934 3.654 3.514 3.404 3.184 2.984 2.864 2.724 2.604
2633.055 2.564 2.534 2.504 2.414 2.274 2.204 2.154 2.064 1.934 1.874
2652.345 1.854 1.834 1.864 1.804 1.734 1.764 1.734 1.724 1.714 1.684
2671.634 1.694 1.654 1.634 1.714 1.734 1.734 1.764 1.694 1.774 1.864
2690.924 1.924 2.034 1.954 1.914 1.964 2.004 2.104 2.224 2.324 2.364
2710.214 2.434 2.584 2.644 2.554 2.634 2.864 2.954 3.034 3.194 3.384
2729.504 3.634 3.874 3.954 4.054 4.224 4.434 4.624 4.814 4.994 5.174
2748.794 5.464 5.634 5.754 5.864 5.814 5.774 5.774 5.704 5.484 5.204
2768.083 5.064 4.934 4.764 4.644 4.514 4.444 4.424 4.254 4.064 3.944
2787.373 3.824 3.794 3.724 3.534 3.384 3.304 3.164 2.934 2.844 2.704
2806.663 2.444 2.444 2.424 2.294 2.234 2.174 2.134 2.084 1.904 1.744
2825.953 1.774 1.774 1.634 1.5554 1.5498 1.5072 1.521 1.624 1.684 1.5316
2845.242 1.4532 1.4607 1.3872 1.3729 1.4464 1.5487 1.5453 1.4368 1.3451 1.3126
2864.532 1.2463 1.2003 1.2923 1.2787 1.17 1.1457 1.1225 1.0651 1.0799 1.1011
2883.822 1.0997 1.1576 1.2167 1.2062 1.1875 1.2271 1.2769 1.3551 1.4256 1.4128
2903.112 1.4578 1.604 1.604 1.5523 1.604 1.5421 1.4783 1.594 1.644 1.644
2922.401 1.604 1.5642 1.664 1.624 1.4933 1.462 1.431 1.4255 1.428 1.3588
2941.691 1.4026 1.5414 1.5611 1.584 1.5279 1.4346 1.4773 1.604 1.614 1.634
2960.981 1.764 1.814 1.824 1.914 1.924 1.874 1.944 2.074 2.034 2.114
2980.271 2.134 2.124 2.214 2.254 2.454 2.484 2.494 2.564 2.504 2.464
2999.561 2.554 2.674 2.754 2.854 2.934 3.084 3.114 3.064 3.084 3.184
3018.850 3.204 3.204 3.374 3.334 3.304 3.484 3.574 3.654 3.854 3.944
3038.140 4.034 4.264 4.434 4.564 4.714 4.814 4.814 4.784 4.834 4.794
3057.430 4.744 4.964 5.204 5.414 5.854 6.474 6.984 7.454 8.204 9.064
3076.720 9.994 10.804 11.474 12.204 12.644 12.654 12.274 11.404 10.304 9.054
3096.009 7.734 6.364 4.974 3.974 3.234 2.584 2.184 1.924 1.854 1.834
3115.299 1.684 1.4831 1.4599 1.5052 1.2598 1.1425 1.1026 0.9533 0.9142 1.0182
3134.589 0.9993 0.7419 0.66454 0.6461 0.5989 0.66711 0.59268 0.462 0.5537 0.7975
3153.879 0.8515 0.8615 0.65044 0.464 0.61484 0.66584 0.6962 0.7419 0.701 0.59604
3173.169 0.5876 0.56551 0.449 0.461 0.5172 0.5505 0.4827 0.452 0.474 0.441
3192.458 0.441 0.299 0.257 0.34 0.335 0.298 0.274 0.232 0.218 0.228
3211.748 0.208 0.176 0.202 0.209 0.254 0.18 0.185 0.287 0.14 0.035
3231.038 0.07 0.061 0.073 0.136 0.262 0.233 0.156 0.2 0.198 0.231
3250.328 0.197 0.158 0.159 0.217 0.2 0.107 0.059 0.138 0.124 0.036
3269.617 0.148 0.235 0.289 0.29 0.153 0.219 0.211 0.162 0.158 0.195
3288.907 0.219 0.149 0.198 0.218 0.127 0.211 0.312 0.202 0.124 0.14
3308.197 0.153 0.203 0.357 0.296 0.23 0.233 0.152 0.141 0.093 0.104
3327.487 0.211 0.299 0.321 0.192 0.248 0.336 0.21 0.123 0.185 0.2
3346.777 0.145 0.173 0.205 0.126 0.052 0.188 0.374 0.36 0.265 0.243
3366.066 0.235 0.085 0 0.162 0.216 0.104 0.076 0.065 0.197 0.341
3385.356 0.38 0.308 0.142 0.223 0.353 0.384 0.361 0.257 0.165 0.1
3404.646 0.04 0.181 0.326 0.296 0.276 0.278 0.231 0.204 0.314 0.472
3423.936 0.392 0.279 0.289 0.247 0.225 0.268 0.379 0.332 0.28 0.223
3443.225 0.126 0.276 0.318 0.203 0.255 0.346 0.396 0.4 0.34 0.378
3462.515 0.338 0.145 0.085 0.166 0.415 0.57917 0.44 0.291 0.262 0.202
3481.805 0.313 0.4797 0.4819 0.419 0.408 0.471 0.461 0.394 0.347 0.215
3501.095 0.203 0.381 0.395 0.385 0.442 0.355 0.336 0.416 0.356 0.297
3520.385 0.339 0.308 0.347 0.402 0.375 0.39 0.329 0.247 0.294 0.4751
3539.674 0.5522 0.407 0.324 0.346 0.25 0.163 0.195 0.29 0.387 0.339
3558.964 0.293 0.391 0.392 0.411 0.4 0.273 0.299 0.41 0.5046 0.5461
3578.254 0.58786 0.5052 0.388 0.314 0.231 0.337 0.317 0.347 0.405 0.433
3597.544 0.286 0.192 0.327 0.261 0.233 0.247 0.277 0.324 0.267 0.263
3616.833 0.355 0.291 0.257 0.267 0.271 0.308 0.288 0.31 0.381 0.357
3636.123 0.382 0.5178 0.426 0.369 0.361 0.349 0.349 0.235 0.275 0.314
3655.413 0.209 0.12 0.133 0.289 0.5034 0.458 0.417 0.5472 0.4966 0.376
3674.703 0.369 0.319 0.366 0.6195 0.66042 0.552 0.536 0.436 0.367 0.418
3693.993 0.474 0.335 0.281 0.5094 0.579576 0.5046 0.465 0.47 0.4 0.424
3713.282 0.5315 0.511 0.5302 0.473 0.4767 0.445 0.4873 0.7408 0.7418 0.5512
3732.572 0.365 0.5063 0.573235 0.469 0.5088 0.60308 0.64911 0.5234 0.433 0.4931
3751.862 0.66532 0.6756 0.546 0.63596 0.7249 0.7068 0.64354 0.5135 0.4892 0.60314
3771.152 0.65704 0.66492 0.64555 0.6759 0.6991 0.56416 0.5305 0.59958 0.6967 0.63298
3790.441 0.544 0.582492 0.64641 0.64578 0.6878 0.583714 0.5587 0.7037 0.61078 0.5544
3809.731 0.5141 0.59285 0.7753 0.7739 0.6833 0.63512 0.60848 0.61456 0.61747 0.575298
3829.021 0.5537 0.5585 0.587 0.63104 0.63956 0.64809 0.56986 0.62134 0.8581 0.8106
3848.311 0.753 0.8797 0.9164 0.94 0.8046 0.64169 0.64182 0.6872 0.8093 0.8927
3867.601 0.8328 0.8656 0.9831 0.9612 0.872 0.7635 0.6877 0.726 0.7249 0.58593
3886.890 0.59371 0.691 0.6964 0.63779 0.63237 0.7616 0.8686 0.8814 0.878 0.784
3906.180 0.707 0.8154 0.9227 0.9246 0.7544 0.7958 0.9429 1.0059 0.9896 1.0182
3925.470 1.1579 1.0856 1.0864 1.1517 1.0919 1.1282 1.0303 0.8344 0.9058 1.045
3944.760 1.0845 1.1739 1.2958 1.3157 1.3558 1.353 1.3242 1.3633 1.3176 1.4021
3964.049 1.4764 1.4082 1.4489 1.5388 1.654 1.744 1.794 1.734 1.604 1.5456
3983.339 1.684 1.844 1.644 1.556 1.684 1.844 2.004 2.074 1.844 1.704
##END=
