##TITLE=2-Propylthiophene
##JCAMP-DX=4.24
##DATA TYPE=INFRARED SPECTRUM
##ORIGIN=NIST Mass Spectrometry Data Center
##OWNER=NIST Standard Reference Data Program
Collection (C) 2018 copyright by the U.S. Secretary of Commerce
on behalf of the United States of America. All rights reserved.
##CAS REGISTRY NO=1551-27-5
##MOLFORM=C 7 H 10 S
##$NIST SOURCE=MSDC-IR
##SPECTROMETER/DATA SYSTEM=HP-GC/MS/IRD
##STATE=gas
##XUNITS=1/CM
##YUNITS=ABSORBANCE
##XFACTOR=1.0
##YFACTOR=0.000003400
##DELTAX=4.0
##FIRSTX=550.0
##LASTX=3846.0
##FIRSTY=0.000303
##MAXX=3846
##MINX=550
##MAXY=0.034
##MINY=0
##NPOINTS=825
##XYDATA=(X++(Y..Y))
550.0 89 69 90 99 107 162 154 163 167 136
590.0 137 173 143 84 60 26 17 25 35 74
630.0 113 146 183 260 325 386 556 789 1165 1797
670.0 2740 3966 5397 6820 8936 10000 8288 6650 5309 3803
710.0 2511 1551 991 668 486 399 360 326 308 285
750.0 264 262 253 233 229 252 301 355 426 526
790.0 662 802 932 1108 1337 1611 1897 1944 1759 1591
830.0 1439 1346 1349 1399 1432 1379 1320 1232 1009 731
870.0 503 351 266 234 219 206 196 180 155 132
910.0 114 89 76 70 76 73 64 65 69 63
950.0 57 59 53 50 51 41 39 46 52 59
990.0 82 115 140 193 260 325 399 454 495 509
1030.0 501 476 435 401 352 319 316 315 328 368
1070.0 415 450 460 437 404 368 314 256 227 211
1110.0 203 209 226 252 279 319 371 414 462 515
1150.0 545 542 522 495 439 365 296 239 195 159
1190.0 143 162 199 263 346 419 477 513 536 539
1230.0 546 581 643 762 915 1037 1109 1141 1107 1020
1270.0 917 827 758 688 611 528 449 387 347 332
1310.0 348 374 414 473 547 633 713 741 693 624
1350.0 552 465 432 530 694 860 987 1065 1069 982
1390.0 817 666 540 444 411 416 471 580 712 893
1430.0 1120 1336 1484 1567 1618 1585 1529 1466 1360 1232
1470.0 1120 994 832 700 617 574 546 518 497 511
1510.0 475 400 369 352 319 292 287 310 300 246
1550.0 220 246 288 279 288 326 341 332 309 282
1590.0 235 193 161 138 135 148 163 175 178 177
1630.0 173 192 175 142 135 144 135 89 72 72
1670.0 74 84 88 118 146 139 169 205 193 154
1710.0 129 134 125 80 58 83 105 86 70 81
1750.0 107 122 137 178 246 296 302 279 263 220
1790.0 157 104 68 49 26 21 22 12 5 14
1830.0 20 18 14 19 20 10 13 16 11 21
1870.0 32 29 28 28 36 42 38 29 20 26
1910.0 29 30 32 29 26 15 13 13 15 17
1950.0 13 13 13 15 19 15 7 0 1 6
1990.0 9 6 6 6 13 20 13 12 3 2
2030.0 12 15 18 25 32 33 30 33 36 29
2070.0 23 23 25 30 28 38 46 42 40 38
2110.0 35 33 32 30 32 34 33 35 34 37
2150.0 47 52 52 53 55 53 44 37 29 28
2190.0 29 21 15 27 30 21 21 20 18 25
2230.0 29 31 36 31 31 34 39 45 47 41
2270.0 37 42 53 66 64 62 68 61 55 53
2310.0 51 52 48 53 61 64 56 47 43 48
2350.0 45 46 54 53 47 46 52 52 49 51
2390.0 53 55 57 56 56 54 55 63 65 53
2430.0 47 54 54 48 47 46 42 42 37 37
2470.0 42 43 40 31 30 33 39 41 40 45
2510.0 51 53 55 54 56 65 61 51 50 50
2550.0 54 56 53 62 65 62 60 61 65 64
2590.0 70 77 78 75 84 90 94 94 91 91
2630.0 89 88 87 86 87 95 106 110 107 113
2670.0 114 113 116 111 104 99 100 96 103 115
2710.0 125 132 135 147 157 166 169 176 184 181
2750.0 183 190 191 187 186 191 199 209 220 236
2790.0 258 269 283 296 313 333 357 392 444 505
2830.0 572 661 789 955 1153 1379 1615 1856 2102 2374
2870.0 2683 3038 3375 3525 3496 3361 3131 2917 2872 3037
2910.0 3356 3794 4354 5037 5799 6548 7211 7570 7547 7256
2950.0 6780 6319 6099 6212 6603 6834 6608 6043 5200 4145
2990.0 3059 2244 1724 1371 1109 913 763 648 575 536
3030.0 521 531 561 588 602 622 654 707 799 960
3070.0 1166 1330 1428 1448 1362 1168 994 900 791 684
3110.0 621 567 501 439 378 310 238 190 158 147
3150.0 146 138 135 129 124 127 131 128 127 126
3190.0 124 124 117 107 115 123 109 93 84 80
3230.0 85 80 77 80 78 75 85 90 77 62
3270.0 60 62 55 47 42 49 49 40 45 47
3310.0 44 39 34 32 43 48 49 51 50 59
3350.0 50 31 23 13 16 27 28 22 14 16
3390.0 28 33 26 29 32 19 21 37 30 23
3430.0 23 19 17 11 19 23 21 21 17 29
3470.0 35 29 28 32 32 23 17 18 25 37
3510.0 41 30 30 39 35 35 32 27 36 37
3550.0 38 37 25 29 52 42 20 26 33 46
3590.0 45 35 32 34 53 56 49 53 43 55
3630.0 59 25 16 27 45 47 35 40 34 51
3670.0 74 76 62 46 53 59 49 48 51 42
3710.0 64 81 55 52 57 61 85 77 73 98
3750.0 101 89 75 61 64 62 47 57 72 68
3790.0 56 53 74 105 101 77 93 121 116 102
3830.0 100 117 107 78 73
##END=
