##TITLE=5-Phenylpenta-2,4-dienoic acid
##JCAMP-DX=4.24
##DATA TYPE=INFRARED SPECTRUM
##ORIGIN=EPA-IR VAPOR PHASE LIBRARY
##OWNER=SRD/NIST
Collection (C) 2018 copyright by the U.S. Secretary of Commerce
on behalf of the United States of America. All rights reserved.
##CAS REGISTRY NO=1552-94-9
##MOLFORM=C 11 H 10 O 2
##$NIST SOURCE=MSDC-IR
##STATE=gas
##XUNITS=1/CM
##YUNITS=ABSORBANCE
##XFACTOR=1.
##YFACTOR=0.001
##DELTAX=1.929
##FIRSTX=549.8
##LASTX=4000.8
##FIRSTY=2.481
##MAXX=4000.75
##MINX=549.766
##MAXY=0.022801
##MINY=0
##NPOINTS=1790
##XYDATA=(X++(Y..Y))
549.766 2.481 2.451 2.321 2.401 2.571 2.701 2.701 2.501 2.461 2.451
569.056 2.441 2.581 2.611 2.171 2.051 2.151 1.891 1.631 1.431 1.441
588.346 1.541 1.471 1.251 1.131 1.251 1.311 1.271 1.211 1.0889 1.191
607.636 1.341 1.321 1.511 1.701 1.861 2.101 2.051 1.991 1.891 1.751
626.926 1.661 1.541 1.541 1.601 1.631 1.551 1.481 1.521 1.601 1.561
646.216 1.381 1.331 1.411 1.501 1.631 1.721 1.711 1.831 1.871 1.731
665.506 1.601 1.631 1.661 1.511 1.451 1.441 1.531 1.641 1.721 1.911
684.796 2.051 2.121 2.291 2.401 2.501 2.621 2.711 2.821 3.011 3.191
704.086 3.261 3.201 3.141 3.181 3.121 2.931 2.821 2.681 2.481 2.271
723.376 1.991 1.861 1.711 1.571 1.581 1.471 1.451 1.541 1.471 1.431
742.666 1.411 1.381 1.511 1.631 1.571 1.401 1.311 1.261 1.141 0.9972
761.956 0.9327 0.9083 0.8946 0.8187 0.7567 0.7532 0.728 0.7554 0.7009 0.6545
781.246 0.6514 0.6604 0.6105 0.5159 0.5288 0.5564 0.5861 0.578 0.5074 0.5199
800.536 0.5782 0.6479 0.5775 0.4977 0.5584 0.6484 0.7578 0.7647 0.7722 0.8152
819.826 0.8387 0.8821 0.9052 0.9247 0.9098 0.9696 1.0211 0.9856 1.0106 1.0428
839.116 1.0591 1.0327 1.0066 0.9941 0.8963 0.8548 0.805 0.7297 0.7671 0.7851
858.406 0.789 0.7775 0.7555 0.811 0.8317 0.8605 0.9211 0.9389 1.0117 1.0371
877.696 1.0715 1.0658 1.0262 1.052 1.0226 1.0227 1.0556 1.0592 1.0675 0.9527
896.986 0.9009 0.9917 1.077 1.0567 1.0208 1.0351 0.9669 0.9864 1.0332 1.0405
916.276 1.0071 0.928 0.9237 0.8916 0.8738 0.9204 0.9214 0.9309 0.9602 1.0273
935.566 1.0443 1.0284 1.0733 1.131 1.131 1.0739 1.0879 1.141 1.191 1.201
954.856 1.191 1.191 1.141 1.181 1.251 1.331 1.421 1.451 1.591 1.731
974.146 1.861 2.061 2.251 2.461 2.701 2.941 3.201 3.451 3.591 3.661
993.436 3.661 3.661 3.611 3.411 3.191 2.931 2.611 2.341 2.101 1.851
1012.726 1.641 1.511 1.361 1.231 1.191 1.211 1.271 1.291 1.251 1.241
1032.016 1.211 1.191 1.181 1.131 1.141 1.141 1.0897 1.0993 1.191 1.231
1051.306 1.221 1.261 1.291 1.361 1.421 1.421 1.461 1.521 1.611 1.671
1070.596 1.741 1.881 2.071 2.291 2.541 2.811 3.261 3.901 4.731 5.761
1089.886 6.971 8.551 10.611 13.121 15.941 18.541 20.021 19.971 18.881 16.831
1109.176 13.591 10.231 7.991 6.861 6.241 5.881 5.701 5.551 5.401 5.281
1128.467 5.181 5.191 5.071 5.041 5.141 5.161 5.331 5.591 5.891 6.191
1147.757 6.601 7.021 7.321 7.541 7.721 7.841 7.761 7.361 6.821 6.211
1167.047 5.551 4.741 3.891 3.261 2.771 2.461 2.301 2.161 1.961 1.851
1186.337 1.791 1.701 1.701 1.691 1.691 1.701 1.781 2.071 2.411 2.661
1205.627 2.811 2.811 2.731 2.631 2.521 2.361 2.191 2.061 2.061 2.101
1224.917 2.011 2.001 2.151 2.201 2.241 2.331 2.421 2.451 2.521 2.611
1244.207 2.631 2.761 2.981 3.111 3.191 3.201 3.181 3.161 3.081 2.931
1263.497 2.761 2.641 2.501 2.431 2.471 2.481 2.441 2.411 2.431 2.471
1282.787 2.431 2.391 2.321 2.181 2.001 1.891 1.841 1.821 1.861 1.871
1302.077 1.851 1.851 1.791 1.691 1.611 1.521 1.441 1.471 1.531 1.571
1321.367 1.611 1.661 1.731 1.821 1.891 1.971 2.071 2.141 2.271 2.451
1340.657 2.651 2.971 3.341 3.751 4.221 4.661 5.071 5.501 5.861 6.091
1359.947 6.191 6.081 5.801 5.271 4.571 3.881 3.261 2.691 2.181 1.881
1379.237 1.701 1.541 1.351 1.221 1.151 1.1132 1.081 1.029 1.0445 1.0212
1398.527 0.9587 0.9397 0.9017 0.8858 0.9039 0.8674 0.8442 0.7988 0.7374 0.7451
1417.817 0.741 0.698 0.7227 0.7559 0.7586 0.7028 0.6536 0.6847 0.7076 0.712
1437.107 0.7165 0.7511 0.7494 0.7954 0.8314 0.7927 0.8059 0.7818 0.7131 0.6899
1456.397 0.6547 0.615 0.6048 0.5996 0.5812 0.5765 0.5711 0.5305 0.4838 0.4711
1475.687 0.5224 0.5144 0.5037 0.5445 0.569 0.5713 0.597 0.6267 0.6941 0.7963
1494.977 0.8452 0.851 0.8237 0.7861 0.7069 0.6287 0.5508 0.4951 0.469 0.466
1514.267 0.4475 0.417 0.4165 0.3984 0.3694 0.3773 0.3635 0.3608 0.383 0.3588
1533.557 0.3513 0.3786 0.395 0.4007 0.4333 0.4511 0.4446 0.4366 0.4526 0.4847
1552.847 0.4459 0.4147 0.4208 0.418 0.4673 0.4891 0.4806 0.5137 0.5854 0.5983
1572.137 0.5924 0.6661 0.7484 0.7597 0.7289 0.7628 0.7795 0.8068 0.8885 0.9288
1591.427 0.958 1.0288 1.151 1.321 1.491 1.691 1.931 2.221 2.541 2.861
1610.717 3.171 3.491 3.831 4.241 4.761 5.401 6.231 7.341 8.561 9.761
1630.007 10.591 10.711 10.131 8.901 7.241 5.381 3.721 2.651 2.001 1.571
1649.297 1.341 1.211 1.023 0.9004 0.8797 0.8443 0.7703 0.7757 0.8169 0.7635
1668.587 0.706 0.7194 0.7163 0.742 0.7579 0.7486 0.7718 0.7723 0.7589 0.8122
1687.877 0.8586 0.9058 0.9594 0.9926 1.0646 1.151 1.221 1.331 1.421 1.521
1707.167 1.611 1.671 1.771 1.911 2.021 2.181 2.421 2.711 2.981 3.281
1726.457 3.711 4.201 4.781 5.431 6.291 7.401 8.721 10.441 12.561 15.151
1745.747 17.831 20.211 21.931 22.801 22.541 21.031 18.681 16.251 13.861 11.591
1765.037 9.721 8.281 7.111 6.201 5.441 4.881 4.451 4.091 3.781 3.551
1784.327 3.361 3.211 3.031 2.811 2.621 2.431 2.241 2.071 1.851 1.651
1803.617 1.541 1.451 1.311 1.191 1.141 1.0876 1.0135 0.9528 0.9251 0.8742
1822.907 0.7771 0.7013 0.6561 0.6209 0.5868 0.5743 0.5509 0.5431 0.5475 0.5418
1842.197 0.5477 0.5239 0.5164 0.5079 0.5062 0.5345 0.5533 0.5456 0.5525 0.5514
1861.487 0.5357 0.5577 0.6118 0.6628 0.6515 0.6178 0.5906 0.5664 0.5586 0.5649
1880.777 0.5725 0.5855 0.5594 0.5248 0.4942 0.4613 0.4492 0.4242 0.4189 0.4044
1900.067 0.341 0.325 0.3648 0.3388 0.3268 0.3149 0.2894 0.3142 0.3308 0.3338
1919.357 0.3302 0.3168 0.3439 0.3643 0.3191 0.2908 0.3569 0.3819 0.3681 0.3961
1938.647 0.3745 0.3565 0.3509 0.366 0.3918 0.3924 0.407 0.3956 0.3618 0.3651
1957.937 0.3595 0.338 0.3333 0.3154 0.2874 0.2651 0.254 0.2325 0.21602 0.2299
1977.227 0.2503 0.2491 0.2579 0.246 0.22081 0.237 0.2417 0.2348 0.238 0.2525
1996.517 0.24 0.18554 0.17648 0.2146 0.2411 0.2316 0.2252 0.2424 0.2258 0.2401
2015.807 0.2692 0.2784 0.2928 0.3106 0.3162 0.2917 0.3196 0.3399 0.329 0.3291
2035.097 0.312 0.3376 0.3461 0.309 0.2807 0.2652 0.2673 0.2488 0.2445 0.2595
2054.387 0.2464 0.2306 0.2305 0.2481 0.2563 0.2607 0.247 0.216 0.19117 0.18811
2073.677 0.21209 0.17799 0.18183 0.20885 0.19617 0.2154 0.20712 0.17929 0.19456 0.2403
2092.967 0.2463 0.2216 0.21593 0.18751 0.13642 0.0955 0.0989 0.124005 0.14375 0.16287
2112.257 0.17079 0.16025 0.19438 0.21004 0.1949 0.2 0.19659 0.20562 0.18636 0.18609
2131.547 0.19957 0.17945 0.17291 0.20818 0.2486 0.21915 0.18305 0.19777 0.2155 0.20829
2150.837 0.19457 0.17841 0.18856 0.2158 0.21116 0.19219 0.17176 0.18886 0.21788 0.19503
2170.127 0.1619 0.16226 0.15437 0.17692 0.1845 0.14713 0.19047 0.21736 0.17301 0.1891
2189.417 0.19546 0.16005 0.16296 0.18379 0.2125 0.19895 0.16488 0.19063 0.19057 0.17705
2208.707 0.1839 0.18056 0.20051 0.18371 0.14411 0.16977 0.21019 0.2239 0.18422 0.14066
2227.997 0.14585 0.17079 0.18063 0.155 0.17352 0.21169 0.21138 0.19726 0.21759 0.2433
2247.287 0.2435 0.2423 0.2154 0.16402 0.15859 0.19174 0.1831 0.17343 0.1674 0.16217
2266.577 0.128776 0.16071 0.17581 0.17701 0.2253 0.19388 0.17472 0.20914 0.19937 0.16278
2285.868 0.18276 0.188 0.15212 0.14403 0.20417 0.2241 0.19365 0.20168 0.20164 0.2103
2305.158 0.2241 0.21224 0.226 0.2611 0.2366 0.1867 0.1978 0.19148 0.1488 0.14744
2324.448 0.16353 0.18264 0.18474 0.15891 0.16788 0.16132 0.13439 0.1053 0.1018 0.13387
2343.738 0.14364 0.15748 0.14716 0.14564 0.16231 0.1051 0.0822 0.0981 0.1166 0.1547
2363.028 0.14311 0.11765 0.13902 0.1378 0.128081 0.1417 0.13745 0.11703 0.12798 0.16046
2382.318 0.128032 0.1032 0.104 0.125041 0.14949 0.15279 0.15527 0.1392 0.1042 0.15006
2401.608 0.19842 0.16527 0.128592 0.14453 0.19302 0.15251 0.14828 0.1679 0.15748 0.1437
2420.898 0.16036 0.17452 0.15745 0.16261 0.16854 0.15731 0.11473 0.13478 0.14368 0.1019
2440.188 0.1003 0.129596 0.15749 0.14958 0.13756 0.1722 0.17231 0.17038 0.17923 0.14438
2459.478 0.13428 0.128346 0.1108 0.1093 0.1067 0.14758 0.15627 0.14229 0.13564 0.122633
2478.768 0.15959 0.14156 0.123223 0.13299 0.089 0.0798 0.0961 0.1032 0.0735 0.0797
2498.058 0.14813 0.13466 0.14026 0.15905 0.13124 0.128544 0.1029 0.0894 0.1017 0.0948
2517.348 0.122326 0.1445 0.13684 0.1061 0.039 0.0742 0.13924 0.125286 0.124942 0.13323
2536.638 0.129 0.16937 0.17676 0.15493 0.17581 0.17825 0.127308 0.0926 0.1 0.0487
2555.928 0.0516 0.12975 0.1519 0.17462 0.15999 0.130327 0.13171 0.11165 0.0919 0.11421
2575.218 0.14235 0.1391 0.13585 0.12 0.1079 0.0751 0.0719 0.0855 0.13211 0.13254
2594.508 0.0541 0.11373 0.16304 0.0784 0.05 0.0433 0.0291 0.0317 0.0303 0.014
2613.798 0 0.0933 0.1628 0.13877 0.1071 0.0884 0.0729 0.0939 0.124883 0.0954
2633.088 0.0587 0.0635 0.0988 0.11561 0.12949 0.1618 0.13892 0.0855 0.0985 0.130892
2652.378 0.1014 0.0735 0.0878 0.0594 0.0629 0.13191 0.0705 0.072 0.127042 0.13403
2671.668 0.11129 0.1 0.14892 0.11993 0.0958 0.1101 0.11957 0.17846 0.16602 0.13697
2690.958 0.14578 0.0921 0.0768 0.0493 0.0692 0.1019 0.039 0.0511 0.14929 0.1322
2710.248 0.0933 0.0907 0.0829 0.13321 0.123417 0.11895 0.15719 0.13605 0.13443 0.17806
2729.538 0.18785 0.15692 0.121576 0.0962 0.05 0.0911 0.14655 0.1045 0.15052 0.18964
2748.828 0.1637 0.14003 0.1006 0.0525 0.0865 0.13725 0.0977 0.075 0.0768 0.0883
2768.118 0.0843 0.074 0.0876 0.0816 0.0477 0.094 0.15869 0.13773 0.11945 0.1046
2787.408 0.14043 0.132 0.0607 0.0472 0.08 0.13192 0.11858 0.0783 0.0556 0.085
2806.698 0.14906 0.124614 0.0992 0.13148 0.14337 0.0848 0.0586 0.13118 0.16303 0.11992
2825.988 0.0652 0.0575 0.1098 0.122576 0.0602 0.0375 0.072 0.0981 0.17405 0.129784
2845.278 0.0404 0.0647 0.1001 0.11602 0.11983 0.14553 0.13502 0.1006 0.15016 0.19262
2864.568 0.1944 0.2395 0.17387 0.123821 0.18205 0.15249 0.14346 0.18961 0.2201 0.2534
2883.858 0.2456 0.14378 0.1029 0.17868 0.19409 0.13707 0.14857 0.15646 0.13863 0.19908
2903.148 0.27 0.208 0.0986 0.1056 0.16166 0.2708 0.20225 0.11689 0.2233 0.2633
2922.438 0.2857 0.20962 0.19273 0.265 0.20488 0.1794 0.20407 0.22007 0.21978 0.219
2941.728 0.2219 0.17286 0.14893 0.2379 0.291 0.19741 0.17699 0.2313 0.2522 0.2795
2961.018 0.2316 0.2555 0.2538 0.2411 0.2544 0.1489 0.13975 0.19836 0.22034 0.21922
2980.308 0.18954 0.2298 0.2781 0.2813 0.2691 0.2698 0.2674 0.3569 0.4706 0.448
2999.598 0.4588 0.5127 0.5244 0.5058 0.623 0.7479 0.7881 0.782 0.8601 0.9783
3018.888 1.0671 1.211 1.341 1.551 1.741 1.881 2.051 2.261 2.351 2.271
3038.178 2.161 2.011 1.831 1.651 1.441 1.351 1.291 1.161 1.191 1.241
3057.468 1.321 1.481 1.651 1.851 2.101 2.261 2.311 2.361 2.281 2.091
3076.758 1.871 1.641 1.471 1.391 1.331 1.241 1.191 1.221 1.181 1.0531
3096.048 1.0157 1.0074 0.9329 0.8805 0.8293 0.6854 0.537 0.4815 0.3968 0.3476
3115.338 0.3829 0.3984 0.3391 0.2339 0.1705 0.21471 0.2702 0.2256 0.15483 0.20678
3134.628 0.3119 0.3521 0.3181 0.2308 0.2332 0.2634 0.20661 0.2764 0.3825 0.3594
3153.918 0.3027 0.285 0.20646 0.1019 0.11226 0.14203 0.1083 0.130181 0.20133 0.15969
3173.208 0.13491 0.2243 0.2477 0.14914 0.11 0.17421 0.2257 0.20077 0.17623 0.17903
3192.498 0.20121 0.2609 0.2717 0.2247 0.20725 0.20918 0.128446 0.16703 0.2864 0.2835
3211.788 0.2372 0.2531 0.2759 0.2275 0.1628 0.16146 0.2226 0.20048 0.17761 0.2458
3231.078 0.2843 0.20045 0.14138 0.18525 0.2638 0.2413 0.19464 0.2045 0.1911 0.2513
3250.368 0.3371 0.3088 0.2288 0.16914 0.15168 0.19113 0.283 0.2794 0.0918 0.0767
3269.658 0.17563 0.17299 0.16995 0.15707 0.20964 0.2602 0.2441 0.20762 0.13975 0.18725
3288.948 0.3445 0.3347 0.2253 0.2599 0.2594 0.1763 0.2562 0.2852 0.18142 0.21176
3308.238 0.2708 0.2503 0.2258 0.18309 0.13503 0.15919 0.16235 0.2305 0.2929 0.21497
3327.528 0.21424 0.2253 0.2935 0.3666 0.2649 0.16257 0.15399 0.2131 0.2519 0.19407
3346.818 0.13328 0.16228 0.19273 0.2264 0.3173 0.3751 0.2771 0.1777 0.19788 0.2773
3366.108 0.344 0.3455 0.2998 0.19132 0.2325 0.3837 0.3378 0.21287 0.21238 0.3404
3385.398 0.3747 0.2724 0.253 0.2813 0.2821 0.2627 0.2345 0.2307 0.3314 0.3618
3404.688 0.2925 0.2218 0.21711 0.2856 0.3051 0.3102 0.2639 0.2527 0.3416 0.3176
3423.978 0.246 0.2536 0.3269 0.3432 0.2685 0.301 0.2978 0.3002 0.2716 0.2601
3443.269 0.323 0.318 0.3183 0.2661 0.2338 0.2806 0.328 0.3352 0.3154 0.2278
3462.559 0.2466 0.3243 0.3433 0.4083 0.4619 0.4308 0.4435 0.4888 0.4552 0.3522
3481.849 0.2385 0.2716 0.285 0.2942 0.3938 0.3933 0.4138 0.4483 0.3952 0.3623
3501.139 0.3802 0.4402 0.3755 0.2936 0.3242 0.3452 0.3203 0.3409 0.4408 0.4523
3520.429 0.4433 0.4365 0.4485 0.4626 0.4139 0.4153 0.4767 0.4587 0.3466 0.3133
3539.719 0.3603 0.4197 0.3969 0.4238 0.4774 0.453 0.4383 0.3957 0.3625 0.4722
3559.009 0.5773 0.6214 0.6434 0.6557 0.8492 1.161 1.591 2.401 3.641 5.251
3578.299 6.991 8.351 9.121 9.141 8.411 6.921 5.151 3.651 2.541 1.751
3597.589 1.161 0.863 0.7562 0.6169 0.4344 0.3718 0.3804 0.4443 0.4826 0.413
3616.879 0.4078 0.3463 0.2478 0.2665 0.3159 0.3345 0.3216 0.367 0.4469 0.4953
3636.169 0.4848 0.5093 0.5277 0.4325 0.3971 0.4325 0.4705 0.4636 0.4061 0.3652
3655.459 0.386 0.4698 0.4059 0.362 0.3705 0.2742 0.22052 0.18029 0.2264 0.3518
3674.749 0.2927 0.2935 0.4001 0.35 0.2477 0.237 0.3088 0.295 0.2827 0.3626
3694.039 0.4102 0.3327 0.274 0.2227 0.22073 0.2328 0.2812 0.2902 0.2333 0.2882
3713.329 0.3034 0.331 0.3331 0.2482 0.2422 0.2875 0.3034 0.2817 0.2874 0.3469
3732.619 0.3722 0.3456 0.3372 0.3705 0.3164 0.2949 0.2932 0.19477 0.14921 0.2552
3751.909 0.2894 0.2579 0.2825 0.2811 0.3243 0.334 0.2784 0.2599 0.2223 0.2353
3771.199 0.2907 0.2408 0.2271 0.2572 0.3265 0.428 0.4257 0.4078 0.4061 0.3363
3790.489 0.3311 0.3804 0.3365 0.3088 0.337 0.3212 0.3472 0.3742 0.2807 0.275
3809.779 0.2718 0.20598 0.2564 0.2931 0.2293 0.20852 0.2558 0.17759 0.15329 0.2417
3829.069 0.2284 0.19501 0.2489 0.2888 0.2224 0.2025 0.17972 0.2226 0.275 0.3278
3848.359 0.3542 0.2882 0.2244 0.1859 0.2388 0.353 0.3427 0.2222 0.21746 0.2539
3867.649 0.2814 0.2367 0.3023 0.3553 0.19666 0.1559 0.2358 0.3477 0.3486 0.2631
3886.939 0.2334 0.2374 0.2577 0.246 0.17275 0.17254 0.2807 0.255 0.19214 0.19725
3906.229 0.2469 0.2442 0.20521 0.19102 0.20974 0.254 0.2891 0.2473 0.18651 0.2589
3925.519 0.3256 0.2278 0.19754 0.3046 0.2901 0.248 0.2586 0.20155 0.2126 0.17904
3944.809 0.18558 0.21124 0.2563 0.324 0.2484 0.2335 0.2227 0.2414 0.2241 0.3007
3964.099 0.3873 0.3182 0.1987 0.2235 0.3394 0.2957 0.2649 0.2535 0.1528 0.106
3983.389 0.2377 0.3501 0.3257 0.3617 0.3389 0.2541 0.18658 0.14268 0.2219 0.16512
##END=
