##TITLE=3,4-Dimethylthiophene-2,5-dicarbonitrile
##JCAMP-DX=4.24
##DATA TYPE=INFRARED SPECTRUM
##ORIGIN=EPA-IR VAPOR PHASE LIBRARY
##OWNER=SRD/NIST
Collection (C) 2018 copyright by the U.S. Secretary of Commerce
on behalf of the United States of America. All rights reserved.
##CAS REGISTRY NO=155632-41-0
##MOLFORM=C 8 H 6 N 2 S
##$NIST SOURCE=MSDC-IR
##STATE=gas
##XUNITS=1/CM
##YUNITS=ABSORBANCE
##XFACTOR=1.
##YFACTOR=0.001
##DELTAX=1.92898
##FIRSTX=549.8
##LASTX=4000.7
##FIRSTY=2.635
##MAXX=4000.7
##MINX=549.759
##MAXY=0.02595
##MINY=0
##NPOINTS=1790
##XYDATA=(X++(Y..Y))
549.759 2.635 3.08 3.12 3.89 3.99 3.37 3.38 3.81 4.45 4.33
569.049 4.34 4.47 5.2 6.1 5.09 5.18 6.4 5.98 4.66 3.9
588.339 3.61 3.96 3.67 3.87 3.53 2.1149 1.95945 2.5602 3.25 2.8428
607.628 1.8469 1.8474 2.4559 1.90855 1.627 1.9941 2.4329 2.4435 2.7775 2.94
626.918 2.7076 3.12 2.6747 2.6932 3 1.89996 1.252 1.397 1.538 1.8007
646.208 1.9851 1.535 1.91214 2.4592 2.0366 2.0513 2.172 2.1395 2.2251 2.1684
665.498 1.88457 1.692 1.711 1.97644 1.95367 1.844 1.91203 1.8513 2.387 2.8117
684.787 2.8169 3.09 3.13 3.57 3.7 3.57 3.92 3.73 3.82 4.14
704.077 4.04 3.94 4.01 3.91 3.71 3.15 3.11 3.24 2.381 2.1536
723.367 2.5504 2.4282 2.6753 2.97 2.7098 2.4053 2.4091 1.89068 1.88411 2.3146
742.657 2.3839 2.5889 3.04 2.92 2.3321 2.5192 2.7814 3.05 2.5398 2.4075
761.947 2.1929 2.0585 2.8165 3.03 2.4084 1.9862 2.3031 2.0012 2.0284 1.8505
781.236 1.591 1.8257 1.90891 2.3874 2.3201 2.1343 2.1903 2.3166 2.91 3.34
800.526 2.8211 2.561 3.24 3.24 2.91 3.37 3.32 3.82 4.17 2.7344
819.816 2.1803 3.92 3.9 3.36 3.99 3.7 3.12 2.5473 3.12 3.69
839.106 3 2.7227 3.11 2.6923 2.2675 2.3964 2.1143 1.774 2.2574 2.6051
858.395 2.4363 2.6089 2.8153 3.13 3.1 2.89 3.36 3.57 3.57 3.53
877.685 4.51 5.22 4.86 5.36 5.44 5.03 4.79 4.58 4.5 3.91
896.975 3.25 2.6729 2.5268 2.2163 1.89282 2.35 2.648 2.7671 2.6862 1.97843
916.265 1.7847 2.2554 2.4375 2.7185 3.01 2.8371 2.3709 2.1563 1.9963 1.997
935.555 1.8462 1.744 1.8606 2.1229 2.4495 2.2374 2.5625 2.93 2.7565 2.5514
954.844 2.4833 2.94 3.38 3.34 2.4729 2.5171 3.16 2.8367 3 3.17
974.134 3.19 3.23 3.52 4.06 4.5 4.86 4.91 5 5.28 5.73
993.424 6.28 7.15 7.81 8.28 8.94 9.69 10.43 10.38 10.45 11.14
1012.714 11.7 11.76 10.65 10.88 11.51 10.37 9.16 7.53 7.3 8.09
1032.003 7.48 6.81 6.37 6.03 6.6 6.61 5.48 4.69 4.65 4.09
1051.293 3.2 3.77 3.54 2.661 2.3473 2.6163 3.01 3.61 3.67 3.92
1070.583 4.49 2.7242 2.723 2.6237 1.661 1.442 0.7 0.15 0.82 3.48
1089.873 4.52 3.25 3.24 4.05 1.589 0 1.97364 3.18 2.1295 1.6
1109.163 4.18 4.23 3.2 4.48 3.73 4.45 5.88 5.64 5.41 5.15
1128.452 5.79 7.2 6.55 6.01 6.85 5.92 5.31 5.76 6.22 6.13
1147.742 6.14 6.02 6.68 6.27 4.42 4.22 5.19 5.42 4.43 3.19
1167.032 3.12 2.8326 2.2231 3.22 3.43 3.3 3.31 2.6977 2.6801 2.5552
1186.322 2.6052 1.424 0.66 2.6742 2.232 1.132 2.0749 2.4151 1.266 0.48
1205.611 0.75 0.18 1.069 2.8654 3.83 4.28 3.47 3.48 5.12 5.74
1224.901 4.42 2.92 3.15 4.14 4.11 4.34 4.13 3.9 2.831 1.9811
1244.191 2.0582 2.0085 1.9938 1.8633 2.8317 3.19 2.6172 2.1543 1.398 1.8005
1263.481 2.6402 2.7307 2.4798 2.1927 2.454 2.5586 2.5775 2.92 2.89 2.4192
1282.771 2.2259 2.2423 2.4316 2.572 3.28 3.7 3.21 2.95 2.93 2.94
1302.060 2.89 2.6473 2.7624 2.8792 2.819 2.8605 2.89 2.877 2.9 3.06
1321.350 3.1 3.22 3.39 3.45 3.53 3.62 3.32 3.13 3.28 3.33
1340.640 3.4 3.78 3.87 3.78 3.79 3.67 4.02 4.06 3.85 4.02
1359.930 4.37 4.78 5 4.9 4.89 5.41 6.03 6.46 7.18 7.81
1379.219 8.37 9.06 9.52 9.9 10.13 10.44 11 11.32 11.38 11.33
1398.509 11.16 11.05 11.13 11.45 11.5 10.99 10.3 9.71 9.07 8.38
1417.799 7.82 7.61 7.66 7.77 8.07 8.6 9.02 9.44 10.05 10.31
1437.089 10.63 11.32 11.7 12.17 12.57 12.53 12.61 12.67 12.59 11.98
1456.378 10.97 10.21 9.74 9.13 8.16 7.55 7 6.39 5.92 5.4
1475.668 5.28 5.08 4.86 4.85 4.75 4.53 4.3 4.14 3.87 3.76
1494.958 3.89 3.96 3.88 3.71 3.79 3.87 3.53 3.57 3.64 3.73
1514.248 4.08 4.08 3.93 3.77 3.86 3.94 4.06 4.4 4.3 4.13
1533.538 4.17 4.22 4.51 4.29 3.94 4.24 4.25 4.22 4.33 4.41
1552.827 4.59 4.14 3.68 4.01 4.21 4.05 3.78 3.48 3.59 3.56
1572.117 3.48 3.52 3.41 3.47 3.42 3.01 2.8414 3.04 3.15 3.07
1591.407 3.04 3.03 2.752 2.8006 2.91 2.807 2.4467 2.3377 2.7313 2.89
1610.697 2.7659 2.7553 2.7982 2.6019 2.492 2.5665 2.3933 2.5513 2.8442 2.6767
1629.986 2.5765 2.5691 2.4594 2.2102 2.2479 2.3208 2.185 2.1864 2.0834 2.1311
1649.276 2.1425 2.0081 2.1721 2.2903 2.4442 2.4165 2.3255 2.3249 2.318 2.612
1668.566 2.6815 2.4814 2.4037 2.2931 1.92454 2.0389 2.285 1.9846 1.93399 2.2739
1687.856 2.4663 2.3246 2.3982 2.4135 2.1553 2.1402 2.1945 2.2241 2.2474 2.3853
1707.146 2.4888 2.5814 2.2035 1.91084 2.0865 2.1518 2.1042 2.1375 2.2787 2.179
1726.435 2.0567 2.2381 2.2646 2.2989 2.3247 2.0942 1.9535 1.9832 2.0656 2.1244
1745.725 2.1172 2.0061 1.8387 1.75 1.768 1.95776 2.1143 1.92858 1.89095 1.91212
1765.015 1.87823 2.0201 2.0217 1.95099 1.96637 2.1386 2.1669 2.0261 2.1179 2.1413
1784.305 2.0957 1.92961 2.0797 2.3443 2.1306 2.0295 2.1692 2.0286 1.8228 1.88826
1803.594 1.88458 1.764 1.90638 2.041 1.95133 1.89192 2.0492 1.9865 1.765 1.8058
1822.884 1.89119 2.0702 2.1087 1.91207 1.685 1.575 1.8214 2.0735 2.0236 1.827
1842.174 1.7948 1.9822 2.0186 1.92537 1.94113 1.9086 1.9987 2.0087 1.97953 2.1631
1861.464 1.97436 1.8545 1.93009 2.0753 2.0861 1.96141 1.94853 2.1548 2.2694 2.1371
1880.754 2.1198 1.96445 2.0799 2.2615 1.983 1.8342 1.9967 1.9465 1.8685 2.0985
1900.043 2.0427 2.0599 2.0551 1.681 1.755 1.8213 1.8196 1.87326 1.93767 2.0409
1919.333 2.0675 2.1363 2.1315 2.0973 2.027 2.0837 2.1504 2.1695 2.1393 2.0972
1938.623 1.92304 1.92677 2.0745 2.1348 2.1403 1.94016 1.9013 2.0347 2.1599 2.238
1957.913 2.1518 1.9679 1.96528 2.0003 2.1356 2.2101 2.1659 2.2355 2.2593 2.1376
1977.202 2.1174 2.1576 2.0217 1.92144 2.1237 2.1107 2.0633 2.1371 2.0103 1.89214
1996.492 2.0532 2.1581 2.2267 2.3247 2.1355 1.9881 2.0547 2.1431 1.95439 2.0407
2015.782 2.0594 1.96351 2.0247 2.1578 2.1996 2.2342 2.3225 2.1601 2.0657 1.97413
2035.072 1.96387 2.115 2.1577 2.075 1.92939 1.95851 2.1337 2.0967 2.1853 2.4514
2054.362 2.4182 2.1965 2.1217 1.95511 1.95647 1.92528 1.8557 2.0948 2.1243 2.1627
2073.651 2.3326 2.1408 1.95795 2.27 2.5242 2.3385 2.1332 1.97281 1.8591 1.97023
2092.941 2.1054 2.0415 1.90702 1.8623 1.8114 1.8334 1.8593 2.0803 2.0917 1.94988
2112.231 2.1968 2.0494 1.8329 1.8309 1.8244 1.9977 2.088 2.0927 2.1471 2.0387
2131.521 1.95464 1.879 1.96355 2.0359 1.91737 2.0892 2.2104 2.0885 2.1316 2.2119
2150.810 2.0328 2.0934 2.0202 1.87339 1.9809 2.1883 2.2944 2.2775 2.3796 2.4519
2170.100 2.353 2.2395 2.4875 2.8695 2.775 2.5022 2.4607 2.6073 2.6828 2.7711
2189.390 2.94 3 3.14 3.3 3.51 3.8 4.26 5.08 6.41 8
2208.680 9.7 11.87 14.54 17.49 20.39 22.94 24.77 25.58 25.95 25.67
2227.970 24.15 21.81 18.96 15.75 12.56 9.83 7.65 5.9 4.92 4.35
2247.259 3.59 3.25 3.04 2.6635 2.6339 2.4632 2.3216 2.4229 2.4413 2.4427
2266.549 2.3444 2.5783 2.7529 2.4982 2.4634 2.3654 2.2658 2.1183 2.0068 2.1535
2285.839 2.0725 2.0633 2.2921 2.1891 2.0102 2.0915 2.0414 2.0151 1.90566 2.0973
2305.129 2.3225 2.0998 1.8377 1.93057 2.1417 2.1087 2.2065 2.0244 1.864 2.0345
2324.418 1.8643 1.734 1.762 2.0434 2.3626 2.3286 2.3693 2.2384 2.0467 2.0736
2343.708 2.2012 2.3094 2.0937 2.0093 1.9921 1.88632 2.1746 2.3404 2.1442 2.0191
2362.998 1.96683 1.93434 2.1752 2.3368 2.2718 2.2684 2.4282 2.5243 2.3988 2.0646
2382.288 2.147 2.4958 2.3939 2.4292 2.5862 2.433 2.1171 2.295 2.2194 2.0243
2401.578 2.0906 1.97744 2.1435 2.0658 1.8624 1.95749 2.2974 2.5582 2.5465 2.3854
2420.867 2.2937 2.1683 2.0687 2.1729 1.94847 1.91146 2.1127 2.2354 2.273 2.4676
2440.157 2.6526 2.433 2.3908 2.3882 2.3033 2.0228 1.94938 2.2632 2.045 1.638
2459.447 1.87226 2.0688 2.1908 2.0987 1.9884 2.0715 2.1527 2.2914 2.1595 2.1677
2478.737 2.4957 2.6647 2.3216 2.333 2.6815 2.5834 2.3036 2.2371 2.1183 2.0658
2498.026 2.2301 2.5736 2.2985 1.92557 2.4697 2.3386 2.0657 2.1106 1.753 1.758
2517.316 1.89501 2.0496 2.1673 2.02 2.0113 1.95093 1.985 1.97003 1.94034 1.867
2536.606 1.8675 2.1982 2.1126 1.93541 1.92692 2.1547 2.2728 2.1651 2.18 2.0402
2555.896 1.729 1.93519 2.1062 2.1781 2.3474 2.1271 1.97536 2.138 2.2604 2.2152
2575.186 2.2909 2.0699 1.9963 2.0774 2.0729 2.1732 2.118 2.0647 1.97119 1.722
2594.475 1.92691 2.1678 2.1172 2.3224 2.5198 2.3612 2.262 2.2697 2.2893 2.2175
2613.765 2.2104 2.3168 2.1958 2.3377 2.5127 2.4274 2.3638 2.5968 2.7572 2.614
2633.055 2.4541 2.2584 2.4882 2.6122 2.3282 2.3257 2.5483 2.4768 2.1009 2.0433
2652.345 2.1866 2.1447 2.1896 2.4462 2.5309 2.3947 2.3515 2.1769 2.2395 2.4618
2671.634 2.4754 2.38 2.069 2.125 1.9869 2.0237 2.3307 2.3959 2.1966 1.74
2690.924 2.0413 2.488 2.2869 2.2314 2.6729 2.8098 2.6193 2.6944 2.96 2.8617
2710.214 2.5323 2.3537 2.2801 2.2243 2.1938 2.1077 2.0957 2.4041 2.5036 2.4006
2729.504 2.4528 2.4973 2.5588 2.459 2.5558 2.6962 2.7398 2.5426 2.3107 2.4945
2748.794 2.73 2.4945 2.2705 2.5714 2.6159 2.3579 2.0523 1.9967 2.2585 2.3947
2768.083 2.161 2.1916 2.1317 2.2284 2.5305 2.5708 2.672 2.3888 2.0951 2.0838
2787.373 1.91323 1.9898 2.2341 2.4311 2.8124 2.8075 2.7299 2.91 2.6244 2.4197
2806.663 2.524 2.4999 2.6626 2.8046 3.02 2.93 2.91 2.8197 2.4042 2.5022
2825.953 2.5858 2.6146 2.7344 3.1 3.48 3.42 2.88 2.99 3.55 3.45
2845.242 3.18 3.22 3.36 3.44 3.73 4.01 4.01 4.1 4.63 4.83
2864.532 4.73 5.13 5.9 6.12 5.87 6.23 6 5.54 6 5.99
2883.822 5.98 5.86 5.48 5.16 5.05 5.42 5.4 5.29 5.22 5.02
2903.112 5.13 5.27 5.25 5.3 5.89 6.46 6.69 7.28 7.56 7.92
2922.401 8.59 9.29 10.45 11.33 11.58 11.6 12.11 12.9 13.1 12.51
2941.691 12.31 11.75 11.05 11.02 10.57 9.67 8.99 8.75 8.58 8.6
2960.981 8.51 8.71 9.22 9.05 7.94 6.83 6.63 6.47 5.98 5.83
2980.271 5.46 5.5 6.25 6.36 5.98 5.78 5.94 5.99 6.1 6.19
2999.561 5.9 5.78 5.38 4.42 4.32 4.82 4.93 4.81 4.34 4.03
3018.850 3.96 3.65 3.63 3.74 3.51 3.8 3.89 3.81 3.94 3.61
3038.140 3.65 3.89 3.88 4.33 4.42 4.12 4.55 4.07 3.64 4.07
3057.430 4.41 4.39 4.29 4.87 4.86 4.37 3.86 3.46 3.81 3.73
3076.720 3.13 3.33 3.44 3.57 3.59 3.12 2.92 3.07 2.96 2.6586
3096.009 2.8244 2.8009 2.6476 2.0402 1.8142 2.2489 2.1716 2.0182 1.9904 1.9907
3115.299 2.0742 2.255 2.2637 2.59 2.6361 2.336 2.4836 2.1944 2.0293 2.1945
3134.589 2.1339 2.0254 2.2877 2.6514 2.5519 2.5935 2.1219 1.516 1.613 1.91747
3153.879 1.697 1.315 1.326 1.706 1.8641 1.722 1.729 1.877 1.93836 2.1995
3173.169 2.1301 2.0103 2.225 1.654 1.90375 2.3806 1.747 1.037 1.033 1.554
3192.458 1.268 1.13 1.753 2.3279 2.5586 2.2818 2.2258 2.2898 1.87442 1.382
3211.748 1.8386 1.704 1.8119 2.4769 2.2397 1.8063 1.399 1.248 1.266 1.633
3231.038 1.8566 1.357 1.679 2.2884 2.1415 2.0718 2.0194 2.3269 2.5188 2.4578
3250.328 2.1512 1.754 1.733 1.84 1.89049 1.779 1.606 1.93677 2.269 1.8425
3269.617 1.573 2.1425 2.1386 1.758 2.1278 2.2983 1.88225 1.469 1.506 2.1256
3288.907 2.4025 2.5117 2.6968 2.4161 2.4828 2.2919 1.8275 1.599 1.88675 1.601
3308.197 1.488 1.521 1.544 1.88521 1.645 1.92217 2.4879 2.2637 1.535 1.302
3327.487 1.674 1.999 2.2143 2.1399 2.0585 1.7933 1.711 2.2025 2.42 1.88958
3346.777 1.744 2.2822 2.4618 2.1913 2.148 1.92479 1.434 1.688 1.658 2.1296
3366.066 2.6139 2.6651 2.7005 1.859 1.653 1.698 1.678 2.0566 1.91487 1.652
3385.356 1.7975 2.0668 1.7818 1.585 2.0776 2.1715 1.44 1.38 2.0226 2.1816
3404.646 2.2555 2.4102 2.0059 1.573 1.596 1.96236 2.0971 2.4613 2.98 2.8168
3423.936 2.5156 2.1775 2.0755 1.93713 2.4082 2.8375 2.8425 2.673 2.1009 2.5944
3443.225 2.97 2.6881 3.09 3.3 2.3975 2.3871 2.92 2.749 2.2597 1.89159
3462.515 2.1469 2.634 2.4419 1.585 1.212 1.71 1.61 1.402 1.9839 2.4087
3481.805 2.4036 1.95253 1.562 1.846 1.92859 1.91159 2.2826 2.0804 1.78 1.758
3501.095 1.8537 1.607 1.256 1.241 1.91395 2.0379 1.89957 2.0132 1.555 1.536
3520.385 2.1268 2.5034 2.3951 1.8301 1.90676 2.1123 1.514 1.523 2.1956 2.402
3539.674 1.763 1.646 1.95132 1.92926 2.0316 2.1196 2.4788 2.6727 2.1109 1.775
3558.964 2.1326 2.1929 1.705 1.729 1.601 1.516 1.706 1.709 1.668 1.8494
3578.254 1.442 0.926 1.319 1.7963 2.2724 2.6727 2.3299 1.432 1.268 1.558
3597.544 2.1748 2.5338 2.202 1.701 2.2363 2.97 2.5217 2.3672 2.1165 1.439
3616.833 1.669 2.371 2.5014 2.15 1.7859 1.776 1.684 1.66 1.7982 1.87522
3636.123 1.551 1.328 1.369 1.47 1.536 1.691 1.92879 1.537 1.637 1.502
3655.413 1.527 1.757 2.0707 2.1296 2.1179 2.3873 2.3697 2.1911 2.3887 2.7051
3674.703 2.167 2.2748 2.3921 2.1582 1.96983 2.0596 2.7787 2.8356 1.93486 1.42
3693.993 1.842 1.715 1.585 1.91486 1.233 1.449 2.0052 1.8007 1.8537 1.505
3713.282 1.8687 2.2813 2.0346 1.87928 1.34 1.596 1.654 1.172 1.614 1.556
3732.572 1.638 1.9906 1.97133 1.703 1.663 2.0205 1.746 1.592 1.699 1.89329
3751.862 1.728 1.542 1.755 1.698 1.722 1.87585 2.0852 2.0098 1.57 1.234
3771.152 0.84 1.389 1.674 1.667 2.1093 1.768 1.91079 1.89309 1.327 1.9903
3790.441 2.6411 2.5472 2.1465 1.90238 2.414 3 2.6529 2.1217 2.1383 1.8688
3809.731 1.56 1.647 1.722 1.7891 2.1712 1.876 1.361 1.719 1.92631 1.87895
3829.021 2.0946 2.3125 2.1518 1.754 1.261 1.481 2.1308 2.5095 1.8988 0.928
3848.311 0.98 1.8359 2.1362 2.0398 1.87082 1.723 2.1784 2.001 1.69 2.0278
3867.601 2.4753 2.6001 2.2001 1.8234 1.642 2.0279 2.571 1.49 0.7 1.415
3886.890 2.4356 2.7916 2.1902 2.0496 2.1274 1.91801 1.752 1.438 1.194 1.263
3906.180 1.524 1.473 1.192 1.533 2.1193 2.2224 1.471 0.77 1.282 1.619
3925.470 1.237 1.215 1.331 2.0609 3.02 3.05 2.7286 2.0808 1.89885 1.97195
3944.760 1.8745 2.0996 2.453 2.158 1.7901 1.668 1.97772 2.265 1.9916 2.1181
3964.049 1.706 1.012 1.542 2.1392 2.1765 1.97848 1.8657 2.508 2.8467 2.1133
3983.339 2.1917 2.4222 2.0315 1.565 1.26 1.427 1.345 1.51 2.0413 2.2443
##END=
