##TITLE=Dichloropropylphosphine
##JCAMP-DX=4.24
##DATA TYPE=INFRARED SPECTRUM
##ORIGIN=EPA-IR VAPOR PHASE LIBRARY
##OWNER=SRD/NIST
Collection (C) 2018 copyright by the U.S. Secretary of Commerce
on behalf of the United States of America. All rights reserved.
##CAS REGISTRY NO=15573-31-6
##MOLFORM=C 3 H 7 Cl 2 P
##$NIST SOURCE=MSDC-IR
##STATE=gas
##XUNITS=1/CM
##YUNITS=ABSORBANCE
##XFACTOR=1.
##YFACTOR=0.001
##DELTAX=3.85796
##FIRSTX=501.5
##LASTX=4000.7
##FIRSTY=75.2771
##MAXX=4000.7
##MINX=501.534
##MAXY=0.0752771
##MINY=0
##NPOINTS=908
##XYDATA=(X++(Y..Y))
501.534 75.2771 62.5871 50.1971 39.0471 27.7871 17.0771 9.1971 5.0671 3.3171 2.5171
540.114 1.9471 1.5771 1.3871 1.2571 1.1771 1.1071 1.0246 1.0413 0.9995 0.9066
578.693 0.9872 1.0475 0.9843 0.9577 1.0871 1.2071 1.3071 1.4671 1.6471 1.8571
617.273 2.1871 2.5071 2.8671 3.3371 3.9371 4.6271 5.1271 5.3271 5.3371 5.1271
655.852 4.6671 4.1171 3.5771 3.1971 3.0771 3.1371 3.1671 3.2671 3.5671 3.8371
694.432 4.0971 4.4771 4.9171 5.2871 5.4571 5.4471 5.3071 4.9571 4.4671 4.0271
733.011 3.6971 3.4271 3.0771 2.7671 2.4571 2.1971 2.0871 1.9571 1.8071 1.6971
771.591 1.6771 1.6771 1.7171 1.7171 1.5971 1.5071 1.4471 1.3371 1.3471 1.3971
810.170 1.4171 1.3971 1.3671 1.3371 1.2471 1.1471 1.0717 0.9696 0.8336 0.7236
848.750 0.6392 0.5999 0.525 0.4573 0.4369 0.4241 0.5059 0.5506 0.5753 0.6609
887.330 0.7276 0.747 0.775 0.7882 0.7394 0.6738 0.5619 0.5634 0.5185 0.3936
925.909 0.3673 0.3555 0.4035 0.4871 0.4685 0.3952 0.4577 0.5686 0.5983 0.6327
964.489 0.7152 0.7587 0.7738 0.7928 0.8025 0.8183 0.8965 0.9265 0.9385 1.0215
1003.068 1.1171 1.3471 1.6071 1.7871 1.9971 2.1471 2.1071 2.0171 1.9571 1.8671
1041.648 1.8171 1.7871 1.8871 2.1571 2.5471 2.9271 3.2571 3.6271 3.7371 3.6371
1080.227 3.3271 2.7871 2.2771 1.7671 1.3171 0.9036 0.7379 0.7202 0.6457 0.5627
1118.807 0.4533 0.4619 0.4629 0.4394 0.418 0.3837 0.4078 0.3663 0.3628 0.4473
1157.387 0.4973 0.5229 0.455 0.3684 0.447 0.5454 0.6087 0.669 0.7102 0.742
1195.966 0.8229 0.9054 0.9527 1.017 1.1371 1.2171 1.2071 1.1571 1.0195 1.0017
1234.546 0.9703 0.8242 0.7605 0.7733 0.7719 0.7624 0.7277 0.8197 0.8569 0.8472
1273.125 0.9161 0.9311 0.9606 0.9924 1.022 0.9664 0.9388 0.9296 0.8894 0.8814
1311.705 0.9155 1.0006 1.1371 1.3371 1.6571 1.9571 2.1071 2.1771 2.1371 1.9871
1350.284 1.6971 1.3671 1.1671 1.1471 1.2571 1.4871 1.8271 2.2371 2.7071 3.2571
1388.864 3.7171 4.0371 4.2571 4.2471 4.0771 3.8171 3.4271 2.9971 2.6171 2.3271
1427.443 2.1471 2.1271 2.2071 2.3971 2.7471 3.1971 3.6871 4.1771 4.6371 4.9171
1466.023 4.9571 4.6971 4.1671 3.5271 2.8371 2.1971 1.7071 1.3271 1.0525 0.8847
1504.603 0.7735 0.6973 0.6629 0.6089 0.5541 0.5428 0.5106 0.4802 0.4781 0.4303
1543.182 0.3928 0.3985 0.4071 0.3875 0.3605 0.3348 0.3287 0.3548 0.3394 0.3249
1581.762 0.3416 0.3435 0.3301 0.3352 0.3391 0.3343 0.3301 0.327 0.3035 0.3135
1620.341 0.36 0.3617 0.3559 0.3638 0.3496 0.3366 0.3208 0.3263 0.3324 0.3155
1658.921 0.3222 0.343 0.3423 0.3364 0.3433 0.3399 0.3321 0.3193 0.3414 0.3562
1697.500 0.3308 0.3147 0.3039 0.3131 0.2995 0.2994 0.3126 0.291 0.2733 0.2524
1736.080 0.2587 0.264 0.2637 0.2568 0.2521 0.2696 0.2545 0.2206 0.2281 0.2456
1774.659 0.2601 0.2742 0.2569 0.2351 0.2282 0.225 0.2241 0.2156 0.2009 0.2054
1813.239 0.2064 0.2096 0.2092 0.1807 0.186 0.2017 0.2089 0.2219 0.2107 0.208
1851.819 0.2145 0.2207 0.2248 0.201 0.1874 0.1988 0.2213 0.2285 0.2197 0.2104
1890.398 0.1998 0.1908 0.1896 0.2238 0.257 0.2486 0.25 0.262 0.2687 0.2689
1928.978 0.2635 0.2633 0.2607 0.2525 0.24 0.2303 0.2026 0.2073 0.2208 0.1867
1967.557 0.16793 0.15773 0.16122 0.17688 0.1623 0.1867 0.2291 0.2218 0.2204 0.2315
2006.137 0.2194 0.217 0.2303 0.2327 0.2183 0.2147 0.2247 0.2222 0.2292 0.2242
2044.716 0.2184 0.2299 0.226 0.2375 0.2292 0.21 0.2374 0.227 0.1838 0.1938
2083.296 0.2081 0.2267 0.2341 0.2215 0.2236 0.2125 0.2118 0.2306 0.2261 0.2013
2121.875 0.1939 0.1918 0.1865 0.16764 0.17557 0.2135 0.1871 0.1514 0.16299 0.15835
2160.455 0.14675 0.16248 0.1879 0.1846 0.16551 0.17087 0.17266 0.15986 0.15501 0.17654
2199.035 0.1953 0.2014 0.1876 0.15843 0.1785 0.2191 0.2248 0.208 0.2076 0.2184
2237.614 0.212 0.211 0.2037 0.1802 0.15874 0.1765 0.1896 0.17064 0.16592 0.1745
2276.194 0.1903 0.1827 0.17483 0.17418 0.17666 0.1925 0.1957 0.1757 0.15687 0.15357
2314.773 0.14729 0.13768 0.12673 0.13566 0.16415 0.14313 0.11438 0.1157 0.15106 0.15087
2353.353 0.13821 0.1403 0.1338 0.16431 0.1863 0.1789 0.17613 0.1966 0.2187 0.2405
2391.932 0.2514 0.2472 0.2683 0.2671 0.2833 0.3125 0.2756 0.2469 0.2276 0.2102
2430.512 0.2133 0.2043 0.1838 0.16031 0.14118 0.17261 0.1817 0.1594 0.16774 0.16689
2469.092 0.14965 0.13764 0.14194 0.14836 0.16315 0.15695 0.14635 0.17042 0.16748 0.14383
2507.671 0.14828 0.15415 0.16949 0.15904 0.14884 0.1868 0.17554 0.14331 0.12946 0.09828
2546.251 0.10705 0.12834 0.12082 0.12859 0.1193 0.10404 0.09518 0.11163 0.14008 0.15318
2584.830 0.15095 0.1887 0.2224 0.2318 0.2468 0.2417 0.2654 0.2846 0.2668 0.2575
2623.410 0.2851 0.3179 0.2904 0.2685 0.2383 0.2113 0.2417 0.2728 0.2694 0.2618
2661.989 0.3246 0.3101 0.2479 0.2614 0.2824 0.2959 0.2857 0.2719 0.2632 0.2394
2700.569 0.2574 0.2571 0.2351 0.2712 0.2891 0.2734 0.3301 0.4121 0.4028 0.4284
2739.148 0.5293 0.5811 0.6321 0.7261 0.7724 0.7644 0.7224 0.7096 0.7579 0.8234
2777.728 0.8354 0.8062 0.8626 0.9363 0.9963 1.0771 1.0738 1.0606 1.1171 1.0971
2816.308 1.1071 1.2071 1.2671 1.3471 1.4671 1.6071 1.7871 2.0071 2.1871 2.4071
2854.887 2.7771 3.2771 3.9671 4.9771 6.3071 7.9871 9.7571 11.2171 12.1771 12.4471
2893.467 12.1171 11.4171 10.5271 9.7771 9.2871 8.9371 8.8271 8.9571 9.3571 10.2071
2932.046 11.5371 13.1471 14.6271 15.7671 16.5671 17.2271 18.0071 19.3471 21.8371 25.2171
2970.626 27.9871 28.6771 26.8371 23.0771 18.3371 13.2671 9.1771 6.6271 5.0671 4.1371
3009.205 3.5471 3.1171 2.7771 2.5271 2.3471 2.1671 1.9971 1.8771 1.7771 1.6971
3047.785 1.5771 1.4571 1.3771 1.2971 1.2071 1.1771 1.1271 1.0164 0.9336 0.9079
3086.364 0.8604 0.811 0.8323 0.8359 0.8262 0.7942 0.7404 0.7166 0.7195 0.7117
3124.944 0.6736 0.6009 0.5504 0.5657 0.5533 0.5089 0.4656 0.4927 0.5751 0.5645
3163.524 0.5023 0.5109 0.5112 0.4956 0.5288 0.5295 0.4728 0.4791 0.4833 0.4513
3202.103 0.4774 0.4635 0.4608 0.422 0.3871 0.3145 0.272 0.3096 0.3154 0.3283
3240.683 0.2908 0.2269 0.219 0.2563 0.2294 0.2073 0.212 0.199 0.2111 0.2472
3279.262 0.2532 0.2349 0.2289 0.2093 0.2215 0.2042 0.12565 0.1803 0.2414 0.17558
3317.842 0.1998 0.2054 0.11644 0.17689 0.1824 0.15933 0.2149 0.1801 0.1935 0.203
3356.421 0.2138 0.2442 0.1775 0.17089 0.2122 0.2153 0.1676 0.15417 0.14483 0.13442
3395.001 0.12023 0.12866 0.17266 0.11264 0.07452 0.10933 0.08916 0.108 0.17338 0.15513
3433.580 0.11916 0.15681 0.1999 0.13612 0.12352 0.16478 0.14596 0.10132 0.09015 0.07404
3472.160 0.06795 0.083977 0.1098 0.1893 0.2388 0.2216 0.2184 0.15246 0.12517 0.17286
3510.740 0.15322 0.09544 0.07089 0.11203 0.11279 0.10147 0.14544 0.11632 0.1362 0.15623
3549.319 0.12943 0.13912 0.12469 0.12809 0.15319 0.1947 0.2434 0.2601 0.2805 0.263
3587.899 0.16485 0.11343 0.079205 0.11309 0.16804 0.14197 0.1362 0.1879 0.1943 0.15636
3626.478 0.16083 0.12459 0.0593 0.07609 0.1079 0.14904 0.16773 0.09212 0.0496 0.0599
3665.058 0.07298 0.086633 0.12453 0.2079 0.2095 0.13214 0.08763 0.13963 0.1957 0.16221
3703.637 0.17117 0.16234 0.13416 0.17049 0.14894 0.16641 0.14033 0.12311 0.16495 0.12654
3742.217 0.08756 0.0777907 0.09408 0.14007 0.1974 0.2106 0.2356 0.2408 0.2347 0.2031
3780.797 0.15485 0.1942 0.2003 0.209 0.2159 0.15798 0.1221 0.10171 0.11056 0.09557
3819.376 0.083899 0.11715 0.13922 0.0737 0.078272 0.14693 0.10298 0.10288 0.08277 0
3857.956 0.0441 0.0596 0.079789 0.0617 0.0121 0.06857 0.080883 0.097 0.0675 0.10484
3896.535 0.15348 0.10809 0.086971 0.11589 0.13816 0.1133 0.11324 0.1779 0.17179 0.08998
3935.115 0.11394 0.16686 0.1806 0.2218 0.2071 0.2298 0.2795 0.2817 0.2695 0.1896
3973.694 0.1417 0.13133 0.14856 0.15834 0.12568 0.09863 0.11708 0.1852
##END=
