##TITLE=1-Bromo-2,3,5,6-tetrafluorobenzene
##JCAMP-DX=4.24
##DATA TYPE=INFRARED SPECTRUM
##ORIGIN=EPA-IR VAPOR PHASE LIBRARY
##OWNER=SRD/NIST
Collection (C) 2018 copyright by the U.S. Secretary of Commerce
on behalf of the United States of America. All rights reserved.
##CAS REGISTRY NO=1559-88-2
##MOLFORM=C 6 H Br F 4
##$NIST SOURCE=MSDC-IR
##STATE=gas
##XUNITS=1/CM
##YUNITS=ABSORBANCE
##XFACTOR=1.
##YFACTOR=0.001
##DELTAX=1.92898
##FIRSTX=549.8
##LASTX=4000.7
##FIRSTY=0.786
##MAXX=4000.7
##MINX=549.759
##MAXY=1.03436
##MINY=0
##NPOINTS=1790
##XYDATA=(X++(Y..Y))
549.759 0.786 0.67561 0.323 0.311 0.62295 0.62528 0.5213 0.63519 0.8171 1.2428
569.049 1.3388 1.1537 1.1892 1.1862 1.1139 0.8387 0.408 0.171 0 0.175
588.339 0.452 0.433 0.299 0.5623 1.083 1.1732 0.9322 0.7981 0.7628 0.8351
607.628 0.985 1.0395 1.3407 1.637 1.677 1.627 1.757 1.947 1.997 1.887
626.918 1.827 1.707 1.4995 1.5079 1.727 1.747 1.687 1.597 1.3288 1.3036
646.208 1.4641 1.3857 1.4252 1.3971 1.4365 1.687 1.967 2.447 3.087 3.967
665.498 5.137 6.147 6.547 6.777 7.437 7.827 7.787 7.247 6.547 6.237
684.787 6.627 7.567 9.197 11.237 13.557 16.567 20.737 26.487 34.347 45.397
704.077 64.457 92.157 117.447 123.697 128.797 133.187 120.797 115.647 99.027 63.507
723.367 34.317 18.297 11.797 8.897 7.717 7.277 6.967 6.337 5.857 5.247
742.657 4.667 4.247 3.937 3.477 3.047 2.597 2.457 2.337 2.257 2.177
761.947 1.997 1.897 1.867 1.967 1.907 1.687 1.697 1.727 1.887 2.367
781.236 2.447 2.497 2.937 3.437 4.107 4.467 4.957 5.567 5.547 5.627
800.526 5.817 5.777 5.757 5.427 5.307 5.497 5.497 5.527 5.747 6.027
819.816 6.787 7.807 9.477 11.867 15.947 22.447 31.137 41.527 52.507 62.857
839.106 75.367 94.137 123.117 140.887 121.307 111.557 128.037 148.987 172.477 193.657
858.395 208.907 217.097 222.137 219.427 202.817 174.377 129.067 75.987 39.327 23.317
877.685 17.747 15.327 14.497 15.117 16.747 18.947 22.337 27.927 36.077 47.367
896.975 62.207 80.467 101.227 122.127 140.467 153.677 162.107 169.547 177.867 185.477
916.265 191.937 199.337 209.227 219.117 225.867 227.987 225.297 217.817 203.727 182.947
935.555 157.047 129.087 102.797 80.457 63.387 50.817 42.087 36.117 31.677 28.157
954.844 25.747 24.697 24.157 24.377 25.337 26.607 27.307 27.197 26.767 25.837
974.134 24.517 22.227 19.227 16.437 13.917 11.377 8.937 7.097 5.847 4.737
993.424 4.157 4.037 4.057 4.407 5.037 5.717 5.897 6.137 6.227 5.767
1012.714 5.657 5.477 4.787 4.217 3.817 3.227 2.727 2.567 2.467 2.147
1032.003 1.817 1.4389 1.4549 1.627 1.5394 1.927 2.247 2.067 2.337 2.527
1051.293 2.907 3.567 3.867 3.797 3.667 3.327 3.127 3.397 2.887 2.187
1070.583 1.847 1.45 1.5814 2.267 1.877 1.0783 1.617 2.277 2.297 2.497
1089.873 2.957 2.697 2.427 3.637 4.557 4.717 4.827 4.077 4.687 5.687
1109.163 5.497 5.477 5.797 6.797 7.857 9.867 13.717 19.027 26.167 35.677
1128.452 45.567 53.727 59.317 61.577 61.667 61.797 59.217 50.127 37.747 27.347
1147.742 20.297 16.027 13.837 13.127 14.427 18.097 23.937 32.057 43.637 58.567
1167.032 76.117 94.627 110.207 121.047 126.727 130.157 133.157 130.527 119.587 104.067
1186.322 88.627 74.797 62.917 52.987 44.827 38.537 34.227 31.087 29.437 29.127
1205.611 28.527 28.197 27.927 28.737 29.757 29.787 30.517 31.967 33.647 37.307
1224.901 44.787 55.897 70.307 86.657 103.217 117.977 128.767 135.367 137.177 132.567
1244.191 123.037 110.347 94.187 77.117 62.817 52.207 44.297 38.327 34.377 31.387
1263.481 28.067 24.847 22.327 19.577 16.547 13.447 10.317 7.957 6.507 5.377
1282.771 4.307 3.727 3.587 3.337 3.077 3.197 3.157 3.097 3.377 3.597
1302.060 3.567 3.607 3.837 3.957 4.077 4.247 4.277 4.307 4.467 4.467
1321.350 4.377 4.477 4.587 4.697 4.917 5.117 5.267 5.417 5.637 5.967
1340.640 6.307 6.647 7.097 7.687 8.517 9.477 10.777 12.517 14.407 16.327
1359.930 18.037 19.217 19.637 19.417 18.967 18.557 17.707 16.347 15.187 14.447
1379.219 14.347 14.797 15.477 16.187 16.577 16.477 16.027 15.247 14.157 12.917
1398.509 11.587 10.177 8.897 8.077 7.877 8.057 8.637 9.667 11.267 13.657
1417.799 16.957 21.287 26.477 32.737 41.117 52.517 67.547 86.237 107.857 130.547
1437.089 152.777 170.127 178.987 178.687 168.457 151.027 129.537 104.897 78.647 54.447
1456.378 36.557 26.967 23.627 22.987 23.587 24.857 26.467 28.707 32.047 36.547
1475.668 43.007 52.987 68.057 90.517 122.877 168.267 230.307 311.027 411.267 525.657
1494.958 645.457 761.667 858.687 930.317 978.857 1012.48 1034.36 1027.54 962.297 849.637
1514.248 732.947 641.867 556.637 445.657 318.767 213.237 136.817 88.657 60.527 44.347
1533.538 35.147 29.757 26.927 25.147 23.457 22.047 20.917 19.687 18.347 16.927
1552.827 15.627 14.397 13.327 12.597 12.077 11.687 11.527 11.337 11.097 10.797
1572.117 10.287 9.897 9.577 9.247 9.127 9.227 9.547 10.087 10.927 12.157
1591.407 13.617 15.537 18.317 21.947 26.447 32.147 39.057 47.467 57.397 68.457
1610.697 80.357 92.867 104.617 114.327 119.997 120.087 113.777 102.117 88.067 73.487
1629.986 59.937 47.847 37.777 29.897 24.087 19.557 15.857 13.137 10.957 9.227
1649.276 8.007 7.267 6.787 6.457 6.417 6.787 7.187 7.717 8.547 9.377
1668.566 10.377 11.717 13.167 14.757 16.697 18.677 20.377 21.487 21.797 21.567
1687.856 20.707 19.147 17.287 15.097 12.457 10.027 8.057 6.317 4.967 3.847
1707.146 3.147 2.717 2.537 2.417 2.227 2.277 2.337 2.357 2.497 2.637
1726.435 2.727 2.787 2.877 2.937 3.077 3.157 3.227 3.317 3.497 3.687
1745.725 3.727 3.657 3.527 3.507 3.367 3.077 2.847 2.647 2.407 2.317
1765.015 2.347 2.267 2.057 1.917 1.907 1.907 1.867 1.907 1.857 1.717
1784.305 1.657 1.587 1.503 1.4701 1.4222 1.3344 1.3461 1.4452 1.5175 1.637
1803.594 1.757 1.737 1.687 1.717 1.757 1.697 1.657 1.637 1.637 1.647
1822.884 1.627 1.637 1.677 1.807 2.157 2.517 2.927 3.527 4.197 4.957
1842.174 5.627 6.037 6.057 5.937 5.827 5.547 4.977 4.157 3.357 2.627
1861.464 2.167 2.007 1.907 1.797 1.787 1.897 2.007 2.097 2.147 2.217
1880.754 2.197 2.237 2.217 2.267 2.337 2.277 2.317 2.407 2.417 2.307
1900.043 2.277 2.187 2.147 2.147 2.027 1.907 1.807 1.717 1.5139 1.4762
1919.333 1.5045 1.4191 1.4405 1.4655 1.4459 1.4325 1.4792 1.607 1.667 1.687
1938.623 1.787 1.817 1.717 1.687 1.637 1.4667 1.4279 1.3477 1.0933 0.9379
1957.913 0.9782 1.0419 1.0923 1.081 0.9219 0.9013 1.0573 1.1306 1.1468 1.2111
1977.202 1.334 1.587 1.757 1.927 2.177 2.377 2.627 2.987 3.277 3.517
1996.492 3.737 3.777 3.797 3.687 3.417 3.147 2.907 2.607 2.337 2.187
2015.782 2.017 1.887 1.707 1.5095 1.4358 1.4306 1.4819 1.4424 1.4687 1.647
2035.072 1.727 1.757 1.837 1.787 1.737 1.757 1.727 1.757 1.837 1.877
2054.362 1.797 1.767 1.827 1.787 1.807 1.827 1.757 1.667 1.607 1.5309
2073.651 1.3744 1.3386 1.2718 1.1394 1.0593 1.1226 1.1989 1.2988 1.4988 1.5689
2092.941 1.627 1.677 1.777 1.847 1.877 1.957 1.927 1.887 1.907 1.907
2112.231 1.817 1.687 1.637 1.657 1.657 1.667 1.747 1.687 1.5343 1.3825
2131.521 1.2858 1.2636 1.1798 1.0851 1.062 0.9865 0.9032 0.8993 0.8212 0.8408
2150.810 0.8984 0.8631 0.8287 0.7288 0.7387 0.6941 0.6805 0.8488 0.936 0.9177
2170.100 0.9104 0.8626 0.8235 0.8743 0.9572 0.9401 0.8939 0.8627 0.8999 0.922
2189.390 0.9178 0.8927 0.8544 0.9589 1.0541 1.0991 1.1947 1.3615 1.5077 1.657
2208.680 1.857 2.047 2.087 2.087 2.147 2.227 2.237 2.147 2.047 1.907
2227.970 1.827 1.797 1.687 1.657 1.607 1.4821 1.4836 1.5047 1.587 1.657
2247.259 1.617 1.677 1.807 1.797 1.757 1.837 1.847 1.777 1.827 1.867
2266.549 1.817 1.767 1.727 1.697 1.727 1.807 1.827 1.927 2.077 2.307
2285.839 2.597 2.867 3.147 3.367 3.597 3.857 4.007 4.117 4.257 4.417
2305.129 4.527 4.577 4.527 4.497 4.517 4.427 4.337 4.217 4.017 3.827
2324.418 3.747 3.727 3.547 3.317 3.277 3.277 3.227 3.307 3.537 3.817
2343.708 4.067 4.267 4.467 4.677 5.047 5.427 5.657 6.027 6.277 6.447
2362.998 6.707 6.907 6.817 6.597 6.467 6.207 5.867 5.387 4.707 4.077
2382.288 3.547 3.097 2.717 2.407 2.107 2.037 2.017 1.847 1.797 1.747
2401.578 1.667 1.5677 1.4298 1.3768 1.223 1.0368 1.0313 1.0703 1.066 1.0157
2420.867 1.0184 1.0122 1.0082 1.0773 0.9168 0.8076 0.9328 1.072 1.1133 1.0305
2440.157 1.0573 1.052 0.9574 0.9389 0.9406 1.0071 1.0453 0.9959 1.0727 1.2037
2459.447 1.2116 1.2287 1.3269 1.3007 1.299 1.3541 1.396 1.4196 1.472 1.539
2478.737 1.5579 1.5085 1.4938 1.4656 1.3949 1.3875 1.2875 1.1316 1.1271 1.1987
2498.026 1.2629 1.2713 1.2207 1.3293 1.5612 1.647 1.807 2.047 2.107 2.187
2517.316 2.327 2.507 2.607 2.557 2.607 2.637 2.537 2.477 2.497 2.337
2536.606 2.227 2.397 2.587 2.747 2.957 3.177 3.407 3.587 3.797 4.177
2555.896 4.547 4.877 5.227 5.487 5.797 6.157 6.377 6.537 6.547 6.427
2575.186 6.387 6.257 5.837 5.257 4.777 4.387 3.857 3.227 2.797 2.477
2594.475 2.187 2.017 1.987 1.967 2.007 2.037 2.117 2.307 2.397 2.557
2613.765 2.707 2.987 3.217 3.327 3.617 3.877 4.147 4.337 4.317 4.287
2633.055 4.277 4.227 4.057 3.837 3.657 3.437 3.247 3.147 2.967 2.787
2652.345 2.627 2.277 2.077 1.977 1.687 1.4516 1.2693 1.1564 1.0731 0.953
2671.634 0.9734 1.0366 0.8885 0.7511 0.8228 0.8722 0.8021 0.7785 0.7998 0.6914
2690.924 0.66153 0.6965 0.6992 0.68075 0.63576 0.58434 0.5004 0.5627 0.7148 0.695
2710.214 0.64755 0.7175 0.7805 0.6549 0.61309 0.8404 0.7575 0.62241 0.692 0.711
2729.504 0.7464 0.8187 0.9851 1.0906 1.0246 1.0419 1.1138 1.1953 1.3344 1.2976
2748.794 1.1963 1.2487 1.2492 1.2459 1.2063 1.0855 1.0821 1.1602 1.1432 1.1046
2768.083 1.1443 1.2592 1.1416 1.0682 1.2346 1.273 1.2422 1.1875 1.187 1.2157
2787.373 1.2345 1.2522 1.2706 1.3503 1.4067 1.4619 1.4289 1.3059 1.1793 1.183
2806.663 1.1548 1.0383 1.1137 1.1563 1.182 1.2827 1.3909 1.3075 1.2201 1.3722
2825.953 1.3554 1.2979 1.2527 1.3365 1.4703 1.394 1.2546 1.2535 1.3697 1.5106
2845.242 1.5084 1.4984 1.4883 1.4461 1.5802 1.617 1.667 1.717 1.757 1.737
2864.532 1.807 1.807 1.887 2.207 2.327 2.517 2.897 3.077 3.127 3.307
2883.822 3.597 3.957 4.197 4.377 4.617 4.697 4.657 4.647 4.487 4.077
2903.112 3.717 3.397 2.957 2.727 2.457 1.967 1.717 1.677 1.4272 1.2239
2922.401 1.2556 1.1934 1.0993 1.1308 1.2562 1.2273 1.108 1.1802 1.1752 1.1056
2941.691 1.159 1.1539 1.1907 1.2694 1.2139 0.9713 0.8002 0.8179 0.9123 0.9826
2960.981 0.9442 0.8154 0.7316 0.779 0.8451 0.7791 0.7446 0.6957 0.6549 0.8667
2980.271 0.9557 0.9119 0.9164 0.8748 0.7309 0.66791 0.67458 0.63184 0.64886 0.6933
2999.561 0.6923 0.6555 0.7468 0.7578 0.59788 0.67087 0.7947 0.66208 0.67037 0.8645
3018.850 0.8013 0.7085 0.65705 0.68184 0.63732 0.48 0.512 0.768 0.9658 0.749
3038.140 0.7658 0.9526 0.8927 0.8938 0.9253 0.8541 0.7702 0.8647 1.0374 1.1784
3057.430 1.2347 1.2661 1.3094 1.3219 1.637 1.937 2.167 2.497 2.857 3.247
3076.720 3.967 4.887 5.747 6.847 7.897 8.567 8.937 9.007 8.657 8.047
3096.009 7.187 6.157 4.997 4.037 3.677 3.587 3.527 3.557 3.737 3.637
3115.299 3.597 3.677 3.497 3.497 3.507 3.117 2.737 2.697 2.687 2.377
3134.589 1.997 1.787 1.5341 1.3572 1.1731 0.9878 1.098 1.0965 0.8742 0.8857
3153.879 0.9636 0.8722 0.7671 0.8271 0.8593 0.6973 0.5218 0.546 0.6881 0.63979
3173.169 0.7292 0.8881 0.7834 0.7397 0.8204 0.909 0.8684 0.68642 0.62734 0.546
3192.458 0.5084 0.5315 0.62899 0.8743 0.8513 0.8548 0.9289 0.8907 0.7941 0.7484
3211.748 0.8738 0.9262 0.806 0.8299 0.9493 0.9017 0.7699 0.8651 0.9261 0.8259
3231.038 0.839 0.741 0.8687 0.8669 0.65715 0.64197 0.4978 0.64402 0.8331 0.7141
3250.328 0.6927 0.7365 0.61283 0.416 0.5165 0.592312 0.5308 0.62562 0.66491 0.59881
3269.617 0.61674 0.7634 0.841 0.8966 0.7962 0.5478 0.58013 0.57947 0.461 0.5614
3288.907 0.7725 0.68572 0.5697 0.5532 0.4882 0.487 0.5779 0.8431 0.7351 0.5076
3308.197 0.6785 0.7003 0.5287 0.457 0.5142 0.592361 0.61225 0.5626 0.5308 0.451
3327.487 0.59742 0.7989 0.7735 0.81 0.7093 0.476 0.5256 0.61116 0.6926 0.67974
3346.777 0.6999 0.8376 0.62352 0.494 0.477 0.65112 0.6929 0.5099 0.4964 0.58785
3366.066 0.7655 0.8285 0.8015 0.7271 0.5765 0.5579 0.62619 0.6979 0.7004 0.61044
3385.356 0.58013 0.67076 0.8327 0.8937 0.8723 0.904 0.67448 0.46 0.5 0.534
3404.646 0.457 0.423 0.4896 0.5116 0.7081 0.7212 0.66828 0.64794 0.5605 0.7313
3423.936 0.7809 0.5237 0.483 0.59968 0.63617 0.5395 0.427 0.453 0.361 0.445
3443.225 0.43 0.333 0.396 0.456 0.61587 0.7389 0.8553 0.8326 0.7661 0.8753
3462.515 0.7096 0.60784 0.8163 0.7843 0.7003 0.7498 0.7746 0.67107 0.6892 0.7036
3481.805 0.439 0.455 0.61547 0.7164 0.7292 0.6405 0.64597 0.469 0.45 0.375
3501.095 0.268 0.435 0.5024 0.58372 0.7146 0.64853 0.65119 0.57707 0.427 0.5579
3520.385 0.61332 0.68266 0.68296 0.65205 0.65392 0.62981 0.62374 0.63209 0.63096 0.66199
3539.674 0.57706 0.377 0.491 0.5412 0.591998 0.5195 0.592093 0.7221 0.58279 0.461
3558.964 0.5274 0.7072 0.6653 0.68142 0.7819 0.8699 0.7397 0.8399 0.9049 0.5148
3578.254 0.62744 0.718 0.61345 0.7309 0.44 0.483 0.7691 0.814 0.7857 0.67599
3597.544 0.9301 0.9384 0.7339 0.9424 0.9474 0.744 0.7183 0.68359 0.588648 0.57909
3616.833 0.67782 0.7617 0.7358 0.7702 0.8751 0.8405 0.7242 0.68096 0.63372 0.7103
3636.123 0.9418 0.9139 0.64536 0.382 0.466 0.66374 0.5142 0.5138 0.5383 0.477
3655.413 0.61661 0.60369 0.5283 0.60484 0.732 0.733 0.64733 0.64554 0.5472 0.467
3674.703 0.5431 0.57845 0.586312 0.67033 0.8095 0.707 0.5562 0.5713 0.365 0.355
3693.993 0.5222 0.5503 0.68081 0.6928 0.7176 0.7748 0.7965 0.7418 0.61187 0.7125
3713.282 0.63997 0.442 0.564 0.7913 0.708 0.5529 0.7184 0.7969 0.7988 0.7298
3732.572 0.483 0.447 0.61672 0.66903 0.68465 0.8945 0.9711 0.921 0.9577 1.0039
3751.862 0.9425 0.9395 0.8132 0.58517 0.587384 0.68179 0.8379 0.9285 0.9056 0.7754
3771.152 0.6967 0.64018 0.8237 1.0454 0.8306 0.7367 0.8935 0.9149 0.8136 0.7786
3790.441 0.8682 0.9951 0.9965 0.9505 0.9473 1.0527 1.0998 0.984 0.7627 0.8471
3809.731 0.9232 0.7734 0.9487 0.8612 0.7009 0.62087 0.62804 0.7004 0.63039 0.6801
3829.021 0.7569 0.8478 0.68601 0.592069 0.7644 0.8082 0.7576 0.7894 0.796 0.6958
3848.311 0.771 0.7555 0.62813 0.8675 1.025 0.8728 0.7027 0.67987 0.7545 0.7099
3867.601 0.65935 0.7376 0.63419 0.479 0.66363 0.7722 0.67879 0.6917 0.7301 0.7591
3886.890 0.7755 0.7015 0.7205 0.825 0.7553 0.63018 0.7449 0.7849 0.63043 0.594905
3906.180 0.7363 0.8637 0.7733 0.6956 0.7929 0.9205 0.9327 1.015 1.0329 0.8316
3925.470 0.588332 0.493 0.7734 0.9519 0.7225 0.60328 0.7279 0.8877 1.0562 1.076
3944.760 1.0452 1.131 1.0229 0.9502 0.8932 0.8114 0.9175 1.002 0.8883 0.64104
3964.049 0.7574 0.952 0.8086 0.6949 0.5532 0.60576 0.8995 0.705 0.461 0.5028
3983.339 0.5619 0.66372 0.7867 0.7556 0.7101 0.8077 0.6979 0.4968 0.63145 0.8778
##END=
