##TITLE=Benzphetamine
##JCAMP-DX=4.24
##DATA TYPE=INFRARED SPECTRUM
##ORIGIN=NIST Mass Spectrometry Data Center
##OWNER=NIST Standard Reference Data Program
Collection (C) 2018 copyright by the U.S. Secretary of Commerce
on behalf of the United States of America. All rights reserved.
##CAS REGISTRY NO=156-08-1
##MOLFORM=C 17 H 21 N
##$NIST SOURCE=MSDC-IR
##SPECTROMETER/DATA SYSTEM=HP-GC/MS/IRD
##STATE=gas
##XUNITS=1/CM
##YUNITS=ABSORBANCE
##XFACTOR=1.0
##YFACTOR=0.000000700
##DELTAX=4.0
##FIRSTX=550.0
##LASTX=3846.0
##FIRSTY=0.000414
##MAXX=3846
##MINX=550
##MAXY=0.007
##MINY=0
##NPOINTS=825
##XYDATA=(X++(Y..Y))
550.0 592 524 487 274 28 84 225 378 341 245
590.0 162 395 457 365 413 329 394 531 501 438
630.0 420 303 226 257 302 439 595 611 725 985
670.0 1313 1689 2085 2773 4130 6528 9170 10000 8628 6490
710.0 5114 4706 5107 6237 7521 8438 8759 8287 6789 4715
750.0 3044 2128 1612 1330 1149 968 860 875 870 779
790.0 766 768 669 630 561 473 412 387 429 375
830.0 300 314 303 266 252 294 350 362 324 251
870.0 263 362 441 488 607 658 714 849 983 996
910.0 831 641 482 406 424 484 515 596 758 995
950.0 1321 1608 1758 1665 1419 1197 1092 1141 1229 1285
990.0 1342 1336 1251 1179 1165 1283 1631 2334 3440 4381
1030.0 4521 3979 3495 3224 2909 2752 2744 2695 2691 2804
1070.0 2886 2799 2632 2483 2445 2600 2701 2711 2718 2738
1110.0 2830 2912 2989 3119 3198 3116 2956 2905 2906 2806
1150.0 2722 2597 2358 2140 1981 1774 1638 1638 1648 1690
1190.0 1740 1733 1782 1857 1868 1739 1620 1648 1718 1724
1230.0 1647 1569 1538 1497 1441 1384 1356 1298 1218 1177
1270.0 1151 1162 1198 1287 1392 1449 1460 1400 1329 1344
1310.0 1450 1631 1801 1970 2053 2057 2075 2165 2426 2778
1350.0 3000 3053 3109 3298 3499 3602 3488 3183 2780 2240
1390.0 1687 1234 930 808 755 707 793 950 1116 1273
1430.0 1424 1612 1946 2496 3285 4103 4509 4226 3532 2821
1470.0 2331 2034 1875 1991 2590 3625 4409 4019 2727 1572
1510.0 936 665 493 438 440 420 414 407 401 314
1550.0 279 354 392 426 474 523 611 724 910 1174
1590.0 1437 1718 1978 2057 1833 1375 925 608 464 411
1630.0 355 298 241 227 306 322 236 182 177 199
1670.0 222 181 114 156 173 126 152 170 121 90
1710.0 102 121 132 138 146 177 209 241 253 212
1750.0 179 169 143 123 139 182 237 264 277 368
1790.0 513 610 617 529 444 371 284 227 184 157
1830.0 156 164 160 176 203 220 268 324 359 404
1870.0 418 391 361 333 302 234 199 181 152 156
1910.0 153 170 223 263 357 490 572 636 607 556
1950.0 539 484 381 266 174 120 100 88 87 96
1990.0 78 58 32 19 47 49 23 61 78 49
2030.0 58 75 51 0 17 43 12 12 23 20
2070.0 37 20 16 31 24 14 16 26 17 10
2110.0 21 48 45 25 41 43 53 48 28 33
2150.0 48 51 46 45 57 79 94 79 55 32
2190.0 36 29 17 34 32 58 73 46 46 52
2230.0 38 56 97 66 32 46 60 63 58 50
2270.0 38 16 16 25 46 46 31 58 79 87
2310.0 111 130 119 95 112 128 132 132 113 96
2350.0 90 91 105 104 59 29 30 46 67 66
2390.0 62 55 56 57 92 117 84 55 62 64
2430.0 55 70 79 51 73 70 34 42 50 62
2470.0 67 93 117 98 59 29 26 68 93 82
2510.0 99 98 99 93 57 80 118 127 105 100
2550.0 81 99 177 151 138 148 133 169 199 184
2590.0 206 238 241 255 244 244 258 236 233 262
2630.0 247 199 208 258 255 243 258 277 304 339
2670.0 367 379 349 371 416 429 510 566 570 610
2710.0 632 646 667 653 630 675 736 794 882 976
2750.0 1080 1230 1459 1732 2099 2601 3180 3819 4579 5388
2790.0 6138 6679 6849 6576 5927 5181 4584 4181 3899 3653
2830.0 3496 3488 3641 3941 4273 4464 4434 4201 3929 3752
2870.0 3711 3774 3945 4120 4217 4227 4194 4159 4223 4405
2910.0 4745 5215 5672 6242 6891 7548 8102 8372 8243 7663
2950.0 6885 6213 6044 6709 7952 8950 9078 8399 7241 5818
2990.0 4414 3417 2891 2670 2684 2846 3175 3936 5225 6743
3030.0 7834 7814 6729 5371 4389 4003 4211 4976 6333 7865
3070.0 8470 7607 6095 5078 4535 3970 3265 2586 2142 1839
3110.0 1540 1275 962 753 604 490 454 372 370 389
3150.0 317 302 336 336 310 286 258 225 164 182
3190.0 274 245 189 170 190 179 163 164 154 139
3230.0 91 79 84 27 49 115 122 96 82 93
3270.0 61 55 106 125 110 134 126 76 55 75
3310.0 76 73 91 52 25 57 70 83 81 29
3350.0 32 58 48 40 53 92 75 35 64 95
3390.0 113 136 86 85 121 127 121 127 135 125
3430.0 108 132 171 128 73 120 151 136 121 87
3470.0 94 132 125 124 103 96 105 70 60 94
3510.0 151 155 102 91 91 117 121 106 99 66
3550.0 62 129 148 121 121 132 130 68 24 89
3590.0 162 111 84 145 144 132 171 150 115 72
3630.0 79 192 200 145 153 182 211 184 145 172
3670.0 188 141 147 172 202 229 220 199 167 137
3710.0 200 228 167 175 213 233 224 193 193 248
3750.0 261 244 174 133 194 257 219 168 162 136
3790.0 124 143 144 152 175 184 198 191 155 183
3830.0 171 133 168 182 176
##END=
