##TITLE=4-Chloro-2,6-diaminopyrimidine
##JCAMP-DX=4.24
##DATA TYPE=INFRARED SPECTRUM
##ORIGIN=NIST Mass Spectrometry Data Center
##OWNER=NIST Standard Reference Data Program
Collection (C) 2018 copyright by the U.S. Secretary of Commerce
on behalf of the United States of America. All rights reserved.
##CAS REGISTRY NO=156-83-2
##MOLFORM=C 4 H 5 Cl N 4
##$NIST SOURCE=MSDC-IR
##SPECTROMETER/DATA SYSTEM=HP-GC/MS/IRD
##STATE=gas
##XUNITS=1/CM
##YUNITS=ABSORBANCE
##XFACTOR=1.0
##YFACTOR=0.000008100
##DELTAX=4.0
##FIRSTX=550.0
##LASTX=3846.0
##FIRSTY=0.001823
##MAXX=3846
##MINX=550
##MAXY=0.081
##MINY=0
##NPOINTS=825
##XYDATA=(X++(Y..Y))
550.0 225 343 245 242 214 179 168 167 171 173
590.0 172 174 177 194 226 265 289 301 294 273
630.0 244 210 183 173 169 167 181 216 268 332
670.0 395 434 465 493 501 487 460 440 431 429
710.0 441 456 483 529 572 603 618 619 605 579
750.0 562 572 608 638 656 673 675 670 688 739
790.0 794 885 971 939 877 840 805 764 727 695
830.0 646 600 546 491 450 417 392 381 390 421
870.0 475 576 758 1040 1361 1582 1668 1613 1378 968
910.0 586 392 305 261 237 220 204 192 182 170
950.0 160 160 171 191 222 249 259 257 247 217
990.0 180 160 160 167 177 174 168 158 129 106
1030.0 94 87 85 83 81 73 62 53 52 40
1070.0 23 20 19 20 19 13 15 19 19 28
1110.0 41 49 70 104 146 222 345 480 590 669
1150.0 696 656 555 431 332 251 187 128 79 57
1190.0 46 42 41 39 39 42 50 61 72 86
1230.0 103 116 131 153 172 192 215 237 248 242
1270.0 228 203 169 136 111 97 89 85 84 88
1310.0 94 101 111 124 141 167 209 285 421 654
1350.0 999 1384 1654 1736 1685 1478 1094 710 472 370
1390.0 352 393 489 637 858 1160 1496 1828 2141 2393
1430.0 2514 2446 2252 2007 1693 1387 1199 1114 1076 1045
1470.0 1001 897 700 485 364 330 337 362 393 433
1510.0 478 528 588 661 743 853 1016 1258 1662 2312
1550.0 3323 4662 6114 7279 7742 7351 6203 4872 4134 4113
1590.0 4608 5562 6938 8532 9743 10000 9485 8268 6278 4240
1630.0 2800 1914 1357 1012 790 638 525 442 381 333
1670.0 294 267 243 225 211 197 184 171 155 134
1710.0 116 99 81 67 57 54 53 50 52 54
1750.0 55 55 51 49 46 44 41 39 37 35
1790.0 35 31 30 28 28 28 26 23 24 23
1830.0 22 21 20 20 23 23 22 24 21 18
1870.0 19 19 17 13 12 17 17 15 14 16
1910.0 19 21 21 21 22 25 25 27 30 31
1950.0 29 27 28 29 31 33 36 37 37 34
1990.0 33 33 31 30 30 32 34 34 32 33
2030.0 32 30 28 29 28 25 23 24 25 25
2070.0 23 22 23 22 21 20 22 25 27 28
2110.0 30 32 33 34 36 36 33 34 36 35
2150.0 33 36 40 40 41 45 47 46 46 44
2190.0 41 39 38 40 41 42 46 46 44 46
2230.0 42 41 38 36 35 35 34 31 32 33
2270.0 31 30 27 27 26 24 26 26 25 24
2310.0 23 26 27 27 28 29 27 28 28 23
2350.0 20 18 14 12 9 8 9 9 10 13
2390.0 17 18 17 17 20 21 20 19 19 21
2430.0 23 23 22 24 27 26 22 24 23 19
2470.0 19 18 16 17 21 22 22 22 20 20
2510.0 23 22 21 20 22 24 26 28 27 24
2550.0 25 28 28 26 28 30 32 31 28 27
2590.0 24 29 34 35 31 30 31 31 30 29
2630.0 30 29 26 26 29 29 28 28 30 34
2670.0 32 30 33 37 38 37 38 44 42 41
2710.0 43 46 50 53 51 50 49 44 39 38
2750.0 36 34 31 26 22 21 18 18 23 19
2790.0 17 15 13 16 15 13 13 15 17 17
2830.0 15 16 17 13 15 16 11 10 12 14
2870.0 14 11 9 8 7 9 12 9 7 4
2910.0 0 4 8 8 12 10 8 11 12 9
2950.0 12 10 10 14 12 16 16 16 17 13
2990.0 17 13 13 17 19 24 21 17 20 24
3030.0 29 31 28 25 27 30 31 30 28 27
3070.0 31 35 34 39 42 43 46 37 38 38
3110.0 32 35 34 35 34 36 40 36 33 33
3150.0 32 34 39 45 48 47 45 45 48 43
3190.0 43 44 36 32 30 33 32 30 27 25
3230.0 26 27 25 25 22 22 22 20 22 23
3270.0 19 19 18 16 18 21 21 15 12 15
3310.0 19 21 20 20 19 18 17 19 26 26
3350.0 24 26 29 29 29 34 38 45 54 55
3390.0 70 93 122 166 222 298 388 479 562 636
3430.0 695 760 848 950 1026 1045 990 881 719 526
3470.0 364 255 191 153 130 124 124 129 146 169
3510.0 197 233 272 311 334 343 350 345 340 362
3550.0 404 458 518 561 562 525 469 391 298 220
3590.0 174 135 108 97 78 61 52 47 40 39
3630.0 37 33 31 33 37 32 30 32 31 33
3670.0 29 28 32 33 30 29 32 29 29 31
3710.0 28 29 30 33 36 37 31 26 22 31
3750.0 37 31 33 37 36 34 29 20 23 27
3790.0 28 34 37 33 27 27 29 29 30 29
3830.0 29 28 28 30 30
##END=
