##TITLE=2-Methylnonadecane
##JCAMP-DX=4.24
##DATA TYPE=INFRARED SPECTRUM
##ORIGIN=NIST Mass Spectrometry Data Center
##OWNER=NIST Standard Reference Data Program
Collection (C) 2018 copyright by the U.S. Secretary of Commerce
on behalf of the United States of America. All rights reserved.
##CAS REGISTRY NO=1560-86-7
##MOLFORM=C 20 H 42
##$NIST SOURCE=MSDC-IR
##SPECTROMETER/DATA SYSTEM=HP-GC/MS/IRD
##STATE=gas
##XUNITS=1/CM
##YUNITS=ABSORBANCE
##XFACTOR=1.0
##YFACTOR=0.000008800
##DELTAX=4.0
##FIRSTX=550.0
##LASTX=3846.0
##FIRSTY=0.001100
##MAXX=3846
##MINX=550
##MAXY=0.088
##MINY=0
##NPOINTS=825
##XYDATA=(X++(Y..Y))
550.0 125 58 7 16 15 7 2 2 0 0
590.0 0 1 3 3 2 3 4 2 4 8
630.0 7 9 9 3 1 2 4 9 12 16
670.0 15 13 12 16 29 40 47 57 81 100
710.0 112 129 140 140 131 119 107 97 93 87
750.0 79 74 68 60 58 55 53 56 56 46
790.0 42 46 40 39 42 40 38 33 33 37
830.0 39 37 36 39 39 34 33 32 34 38
870.0 40 41 40 36 36 38 39 40 40 38
910.0 34 36 42 43 39 42 41 41 39 37
950.0 37 37 37 34 33 32 33 32 31 32
990.0 31 31 33 34 36 33 31 31 33 34
1030.0 34 31 32 37 33 34 34 34 38 39
1070.0 34 37 36 32 32 31 33 34 33 34
1110.0 38 41 40 43 43 48 53 55 58 59
1150.0 63 72 82 93 101 103 95 80 73 70
1190.0 65 60 59 60 60 63 68 67 65 65
1230.0 68 68 67 71 73 73 80 85 88 92
1270.0 98 107 114 119 125 134 145 157 165 170
1310.0 174 174 173 173 179 191 211 235 261 289
1350.0 316 328 332 337 342 338 321 306 302 301
1390.0 275 221 173 147 135 128 126 125 135 153
1430.0 178 216 275 359 449 546 632 715 768 746
1470.0 658 530 405 306 232 184 146 121 101 78
1510.0 79 79 59 49 53 54 46 22 20 43
1550.0 48 31 6 19 33 33 27 28 42 43
1590.0 44 43 44 43 39 39 28 24 30 32
1630.0 33 23 25 29 21 3 4 28 31 27
1670.0 24 24 30 17 13 28 18 2 8 22
1710.0 27 20 13 25 29 19 10 13 19 20
1750.0 18 22 24 23 24 17 16 26 28 27
1790.0 23 21 24 24 25 26 27 28 26 21
1830.0 19 22 23 18 19 23 22 25 24 19
1870.0 20 22 22 21 20 19 19 20 19 19
1910.0 18 17 17 17 16 17 18 18 19 20
1950.0 18 16 16 15 17 18 19 19 18 17
1990.0 17 16 16 14 16 17 19 21 24 24
2030.0 21 21 22 21 22 22 20 20 18 16
2070.0 17 16 16 17 16 14 15 18 14 12
2110.0 13 15 14 14 15 16 15 14 12 11
2150.0 12 13 16 15 15 16 15 13 12 13
2190.0 12 13 13 12 13 12 10 10 11 10
2230.0 10 9 8 9 8 9 9 8 9 8
2270.0 7 7 8 10 10 9 9 10 8 7
2310.0 7 8 6 5 4 3 2 0 2 4
2350.0 3 1 0 0 0 1 3 4 5 6
2390.0 7 6 6 6 6 7 5 5 4 2
2430.0 1 2 3 4 2 3 4 4 4 2
2470.0 2 1 0 2 4 3 3 6 7 8
2510.0 9 10 11 11 14 16 17 18 21 21
2550.0 19 21 21 22 23 26 29 30 32 36
2590.0 36 40 42 42 47 51 53 53 53 58
2630.0 62 63 64 64 68 70 72 74 76 81
2670.0 84 88 91 92 94 92 90 89 86 85
2710.0 85 86 90 95 98 100 101 104 108 110
2750.0 111 115 120 123 128 135 144 155 167 184
2790.0 199 214 232 255 279 308 344 388 436 496
2830.0 570 665 800 1013 1348 1863 2579 3328 3727 3609
2870.0 3207 2823 2564 2392 2283 2253 2340 2563 2929 3418
2910.0 3994 4682 5643 7034 8700 9942 10000 8910 7315 5798
2950.0 4684 4067 3868 3838 3642 3130 2434 1787 1319 1008
2990.0 801 651 543 463 399 352 314 281 257 237
3030.0 217 196 184 174 164 156 148 139 131 123
3070.0 115 109 104 100 98 94 89 84 80 78
3110.0 76 72 69 69 68 66 65 62 60 58
3150.0 59 59 56 55 56 58 55 55 52 50
3190.0 49 48 45 44 44 36 32 29 27 29
3230.0 28 26 25 22 22 21 18 17 21 22
3270.0 20 18 18 15 14 15 15 19 22 19
3310.0 17 16 20 17 20 20 16 18 18 17
3350.0 18 20 22 21 19 16 16 17 15 13
3390.0 14 15 16 18 15 13 16 14 12 17
3430.0 15 14 10 9 10 10 9 9 8 7
3470.0 8 10 10 9 9 12 16 15 14 13
3510.0 13 11 8 12 14 9 10 13 14 17
3550.0 16 14 13 15 17 16 15 16 16 11
3590.0 11 16 17 18 18 18 16 13 18 17
3630.0 13 22 24 22 14 4 15 21 21 17
3670.0 6 0 7 19 9 4 18 20 16 19
3710.0 13 15 24 22 18 13 7 10 0 0
3750.0 0 2 14 20 22 22 26 23 21 25
3790.0 29 25 13 8 15 23 18 10 18 23
3830.0 24 15 10 20 26
##END=
