##TITLE=p-Phenylazobenzoic acid
##JCAMP-DX=4.24
##DATA TYPE=INFRARED SPECTRUM
##ORIGIN=EPA-IR VAPOR PHASE LIBRARY
##OWNER=SRD/NIST
Collection (C) 2018 copyright by the U.S. Secretary of Commerce
on behalf of the United States of America. All rights reserved.
##CAS REGISTRY NO=1562-93-2
##MOLFORM=C 13 H 10 N 2 O 2
##$NIST SOURCE=MSDC-IR
##STATE=gas
##XUNITS=1/CM
##YUNITS=ABSORBANCE
##XFACTOR=1.
##YFACTOR=0.001
##DELTAX=1.92898
##FIRSTX=549.8
##LASTX=4000.7
##FIRSTY=2.888
##MAXX=4000.7
##MINX=549.759
##MAXY=0.056498
##MINY=0
##NPOINTS=1790
##XYDATA=(X++(Y..Y))
549.759 2.888 2.928 2.888 2.648 2.468 2.758 2.988 2.648 2.718 3.078
569.049 3.308 3.458 3.478 3.408 3.198 3.118 2.758 2.278 2.078 1.978
588.339 1.948 1.938 1.958 1.658 1.458 1.458 1.2184 1.1979 1.2746 1.2679
607.628 1.1506 0.9524 1.0268 0.9886 0.872 0.8927 0.857 0.8558 0.9324 0.9846
626.918 1.0378 1.0654 0.9883 1.1705 1.448 1.378 1.298 1.368 1.318 1.508
646.208 1.968 2.518 3.608 5.518 7.758 9.188 9.618 9.248 7.608 5.558
665.498 4.218 3.618 3.358 3.228 3.178 3.298 3.618 4.108 4.418 4.858
684.787 5.508 6.028 6.558 7.048 7.508 7.738 7.808 8.008 8.028 7.658
704.077 7.228 6.668 5.988 5.458 4.848 4.218 3.648 3.138 2.778 2.468
723.367 2.238 2.108 2.088 2.178 2.328 2.478 2.648 2.958 3.318 3.718
742.657 4.218 4.568 4.728 4.758 4.408 3.888 3.498 3.408 3.528 3.648
761.947 3.998 4.488 5.008 5.638 6.338 6.958 7.468 7.948 7.898 7.368
781.236 6.828 6.228 5.498 4.718 3.998 3.478 2.918 2.398 2.008 1.858
800.526 1.738 1.368 1.1601 1.2222 1.1186 0.9413 0.9698 0.994 0.8824 0.7321
819.816 0.8423 0.8889 0.756 0.7271 0.8235 0.9439 0.9867 1.1243 1.246 1.2611
839.106 1.2748 1.338 1.398 1.498 1.758 1.988 2.188 2.418 2.488 2.668
858.395 2.798 2.968 3.068 2.788 2.708 2.508 1.918 1.558 1.458 1.2631
877.685 1.0889 1.0651 1.116 1.0645 0.9446 0.8684 0.8631 0.7545 0.6746 0.776
896.975 0.8349 0.888 0.9918 0.9885 0.9616 0.9474 0.9323 0.948 1.0073 1.0981
916.265 1.0548 0.9973 1.068 1.0357 0.9708 0.9101 0.9446 0.9898 0.8341 0.7477
935.555 0.7456 0.7532 0.7027 0.6866 0.6434 0.6006 0.5872 0.5566 0.5376 0.5037
954.844 0.5855 0.7313 0.7823 0.7227 0.5953 0.4891 0.42 0.5224 0.6674 0.7486
974.134 0.8155 0.7107 0.6808 0.7354 0.7049 0.7651 0.8241 0.8723 0.9406 1.0741
993.424 1.2411 1.358 1.508 1.728 1.988 2.298 2.708 3.248 4.058 4.908
1012.714 5.508 5.478 4.778 3.888 3.018 2.538 2.378 2.118 1.948 1.658
1032.003 1.518 1.478 1.618 1.878 1.598 1.568 1.898 2.088 2.128 2.178
1051.293 2.518 3.168 3.538 4.058 4.918 5.988 7.378 9.098 11.388 14.188
1070.583 17.508 20.978 24.318 26.728 26.828 24.848 21.468 16.958 12.758 9.898
1089.873 8.008 6.778 6.008 5.678 5.438 4.838 4.288 3.988 3.448 3.108
1109.163 3.058 2.788 2.708 2.518 2.368 2.568 2.468 2.358 2.828 2.948
1128.452 2.858 3.238 3.578 4.028 4.608 5.178 5.838 6.288 6.468 6.608
1147.742 6.758 6.488 6.208 6.168 6.038 6.008 5.958 6.008 6.458 7.208
1167.032 8.458 10.418 12.798 15.718 19.118 22.248 24.458 25.478 24.838 22.438
1186.322 18.928 15.248 11.858 8.828 6.688 5.388 4.498 4.048 3.648 3.088
1205.611 2.798 2.778 2.448 2.158 2.258 2.458 2.428 2.358 2.568 2.618
1224.901 2.578 2.418 2.458 2.588 2.538 2.598 2.638 2.628 2.698 2.618
1244.191 2.678 2.958 2.998 3.108 3.338 3.518 3.688 3.848 4.018 4.158
1263.481 4.378 4.488 4.538 4.418 4.378 4.568 4.488 4.458 4.428 4.268
1282.771 4.198 4.188 4.308 4.298 4.258 4.368 4.448 4.548 4.678 4.838
1302.060 4.958 4.948 4.828 4.708 4.628 4.498 4.388 4.358 4.368 4.488
1321.350 4.678 4.918 5.248 5.608 6.038 6.508 6.828 7.078 7.308 7.388
1340.640 7.348 7.198 6.898 6.498 6.118 5.788 5.668 5.848 6.208 6.688
1359.930 7.348 8.148 8.778 9.018 8.698 7.918 6.818 5.578 4.508 3.688
1379.219 3.118 2.718 2.418 2.258 2.158 2.088 2.088 2.128 2.188 2.278
1398.509 2.388 2.638 2.938 3.178 3.448 3.658 3.708 3.528 3.168 2.678
1417.799 2.218 1.858 1.578 1.358 1.207 1.0879 0.9995 0.9594 0.9518 0.9375
1437.089 0.9661 1.0639 1.1641 1.2326 1.2901 1.408 1.478 1.478 1.438 1.368
1456.378 1.2769 1.1736 1.1196 1.0513 0.9693 0.9864 1.0422 1.0305 1.0656 1.1831
1475.668 1.2364 1.358 1.638 1.998 2.368 2.748 3.048 3.008 2.728 2.308
1494.958 1.848 1.558 1.428 1.318 1.202 1.1453 1.0319 0.8704 0.896 0.8871
1514.248 0.8615 0.8175 0.7733 0.793 0.7698 0.7145 0.7053 0.7089 0.6983 0.6937
1533.538 0.6593 0.6683 0.7563 0.8296 0.8231 0.7966 0.7703 0.7768 0.8295 0.8577
1552.827 0.8045 0.7996 0.8649 0.8559 0.8705 0.8975 0.9233 1.0035 1.0645 1.0779
1572.117 1.0916 1.1953 1.328 1.438 1.548 1.638 1.738 1.888 2.038 2.238
1591.407 2.458 2.748 3.168 3.678 4.238 4.748 5.088 5.068 4.638 3.958
1610.697 3.218 2.488 1.908 1.528 1.2548 1.067 0.993 0.8868 0.7456 0.6701
1629.986 0.6488 0.6726 0.6229 0.5235 0.5408 0.5624 0.5221 0.5703 0.6048 0.5359
1649.276 0.5736 0.589 0.5813 0.6246 0.6418 0.6842 0.6289 0.6032 0.6751 0.6966
1668.566 0.7209 0.7581 0.7463 0.7725 0.8019 0.7662 0.8201 0.9271 0.9636 1.0021
1687.856 1.1053 1.1703 1.2353 1.358 1.418 1.438 1.518 1.608 1.698 1.728
1707.146 1.768 1.858 2.038 2.168 2.218 2.378 2.548 2.608 2.618 2.678
1726.435 2.808 3.058 3.458 3.908 4.478 5.278 6.178 7.308 8.678 10.488
1745.725 12.818 15.788 19.558 24.488 30.838 38.688 47.468 54.228 56.498 54.098
1765.015 47.508 37.368 26.838 19.428 14.438 10.978 8.608 6.898 5.728 4.888
1784.305 4.348 3.938 3.568 3.308 3.018 2.728 2.538 2.408 2.248 2.078
1803.594 1.998 1.948 1.858 1.768 1.748 1.728 1.778 1.798 1.758 1.688
1822.884 1.608 1.498 1.378 1.2879 1.1932 1.1015 0.9839 0.9045 0.8147 0.7209
1842.174 0.684 0.6378 0.5994 0.5573 0.5559 0.5513 0.5249 0.5346 0.5296 0.5343
1861.464 0.5154 0.455 0.4433 0.4452 0.4685 0.5138 0.5139 0.5164 0.5443 0.5438
1880.754 0.582 0.6661 0.6734 0.6123 0.6236 0.6665 0.6769 0.635 0.6033 0.6404
1900.043 0.6968 0.7064 0.6605 0.6959 0.7193 0.6766 0.685 0.6633 0.675 0.7299
1919.333 0.7715 0.8363 0.8487 0.904 0.9756 0.9873 1.0148 1.0568 1.0188 0.9605
1938.623 0.9381 0.931 0.8731 0.7896 0.7609 0.7476 0.7652 0.7378 0.7177 0.7216
1957.913 0.7213 0.7338 0.7113 0.6662 0.6112 0.5497 0.5261 0.5024 0.4548 0.4056
1977.202 0.39632 0.4265 0.4673 0.4037 0.32337 0.37494 0.39673 0.31875 0.2874 0.35931
1996.492 0.35247 0.33308 0.38408 0.37862 0.34241 0.34883 0.32115 0.305947 0.33584 0.31278
2015.782 0.31623 0.3581 0.34619 0.32126 0.2806 0.2833 0.30929 0.2758 0.2865 0.28861
2035.072 0.2846 0.2949 0.2736 0.2741 0.287 0.303922 0.32682 0.30895 0.31227 0.299899
2054.362 0.2431 0.2602 0.28973 0.29576 0.300689 0.31022 0.3126 0.31507 0.34526 0.34103
2073.651 0.2814 0.2533 0.30402 0.34789 0.32485 0.29589 0.275 0.299354 0.34028 0.34431
2092.941 0.33066 0.28973 0.31705 0.305164 0.2768 0.3391 0.33204 0.29435 0.33027 0.37424
2112.231 0.37803 0.32044 0.2873 0.29022 0.29003 0.304396 0.32253 0.34192 0.33964 0.3876
2131.521 0.39352 0.39285 0.38707 0.34648 0.37022 0.421 0.4542 0.4481 0.4185 0.4444
2150.810 0.4731 0.4693 0.439 0.37793 0.37853 0.4053 0.4968 0.499 0.38208 0.34106
2170.100 0.36733 0.4202 0.37644 0.29488 0.298956 0.35113 0.33655 0.303138 0.33561 0.30947
2189.390 0.2689 0.29142 0.33954 0.32146 0.28975 0.306891 0.2737 0.2712 0.31054 0.31952
2208.680 0.31958 0.30843 0.32107 0.32407 0.264 0.2765 0.31077 0.300945 0.31687 0.36632
2227.970 0.37025 0.32626 0.35947 0.34566 0.297142 0.32758 0.3664 0.35308 0.36365 0.38364
2247.259 0.37192 0.37983 0.36981 0.38745 0.4061 0.4126 0.4262 0.4176 0.34195 0.305755
2266.549 0.34286 0.30855 0.31211 0.34446 0.3845 0.35344 0.32408 0.36804 0.4011 0.4065
2285.839 0.37826 0.38557 0.37201 0.36418 0.32397 0.2855 0.31694 0.3606 0.36161 0.33391
2305.129 0.32503 0.36212 0.4202 0.4174 0.4188 0.4208 0.4518 0.4468 0.34758 0.29408
2324.418 0.31934 0.36545 0.4041 0.4259 0.4192 0.38873 0.3861 0.4986 0.4976 0.39108
2343.708 0.4039 0.4104 0.37566 0.3881 0.4656 0.4651 0.4191 0.4143 0.4621 0.4989
2362.998 0.4379 0.33058 0.306171 0.35153 0.3585 0.37417 0.4087 0.4227 0.38407 0.3918
2382.288 0.38499 0.328 0.32795 0.33072 0.30833 0.31856 0.32055 0.32139 0.38261 0.417
2401.578 0.38472 0.306022 0.2726 0.32838 0.35212 0.4393 0.4264 0.29438 0.30877 0.38214
2420.867 0.4211 0.4102 0.4103 0.39429 0.35417 0.36535 0.38148 0.33971 0.32744 0.35054
2440.157 0.39194 0.35065 0.300573 0.34051 0.39304 0.4028 0.34379 0.32799 0.33205 0.2599
2459.447 0.2503 0.30878 0.32306 0.3166 0.298755 0.29517 0.2875 0.32509 0.31488 0.34104
2478.737 0.4332 0.31675 0.185 0.248 0.31465 0.2859 0.32629 0.39335 0.307358 0.2382
2498.026 0.29124 0.35084 0.38713 0.359 0.35777 0.4563 0.4302 0.38246 0.36965 0.36277
2517.316 0.33397 0.2861 0.3295 0.32954 0.29609 0.29187 0.33092 0.38239 0.34647 0.33287
2536.606 0.39539 0.38883 0.34561 0.36374 0.39131 0.3537 0.31012 0.31774 0.34378 0.38488
2555.896 0.42 0.37186 0.34551 0.34004 0.29465 0.31718 0.34932 0.32858 0.34268 0.37642
2575.186 0.34249 0.29263 0.3373 0.4071 0.38554 0.36457 0.358 0.38578 0.35122 0.29569
2594.475 0.33266 0.3667 0.4209 0.4393 0.4284 0.4267 0.34111 0.32656 0.4076 0.37339
2613.765 0.38209 0.4464 0.4078 0.35411 0.298176 0.32277 0.36778 0.32095 0.33392 0.32822
2633.055 0.2606 0.32376 0.3653 0.30805 0.33122 0.305924 0.302137 0.37533 0.35458 0.37243
2652.345 0.33398 0.2392 0.31421 0.36829 0.34392 0.3608 0.4186 0.33684 0.34334 0.39542
2671.634 0.37236 0.39632 0.35301 0.299384 0.33311 0.38168 0.37249 0.38224 0.37877 0.34155
2690.924 0.34954 0.37553 0.37191 0.36454 0.35191 0.36729 0.4033 0.4391 0.4215 0.34898
2710.214 0.33086 0.300366 0.28876 0.33585 0.38074 0.38519 0.2899 0.2726 0.29252 0.302352
2729.504 0.37982 0.35373 0.35299 0.37052 0.31117 0.3987 0.4616 0.3885 0.38856 0.4813
2748.794 0.4677 0.4669 0.4304 0.35521 0.37502 0.4332 0.4253 0.34292 0.34803 0.4041
2768.083 0.4387 0.5033 0.5346 0.4882 0.4593 0.446 0.4419 0.39595 0.36098 0.38656
2787.373 0.4037 0.4087 0.4192 0.37287 0.33764 0.3164 0.29708 0.4149 0.4979 0.4257
2806.663 0.36515 0.39034 0.4092 0.35407 0.297249 0.31412 0.37321 0.31037 0.32094 0.32977
2825.953 0.34757 0.4249 0.36358 0.2799 0.299549 0.34994 0.37573 0.4403 0.44 0.4206
2845.242 0.4511 0.39664 0.36742 0.4284 0.37092 0.35778 0.4083 0.39113 0.4013 0.36703
2864.532 0.38693 0.3834 0.3137 0.36988 0.4197 0.4286 0.4661 0.5116 0.4787 0.4256
2883.822 0.4155 0.4235 0.37735 0.32422 0.35675 0.34358 0.2847 0.36278 0.4767 0.4964
2903.112 0.5016 0.4223 0.38799 0.4732 0.4701 0.4076 0.4008 0.4752 0.5008 0.4917
2922.401 0.4403 0.300014 0.31316 0.4314 0.36219 0.34556 0.37293 0.4035 0.4793 0.4298
2941.691 0.37563 0.4154 0.4654 0.41 0.4474 0.4347 0.34697 0.301852 0.31159 0.39666
2960.981 0.3994 0.4014 0.4227 0.37612 0.37314 0.4251 0.465 0.4039 0.35448 0.35795
2980.271 0.36353 0.4751 0.4971 0.431 0.4483 0.4363 0.38503 0.35899 0.4233 0.515
2999.561 0.5398 0.35643 0.32111 0.4811 0.4628 0.5146 0.5642 0.6505 0.731 0.7236
3018.850 0.7015 0.6603 0.753 0.7651 0.8008 1.0112 1.0258 0.9472 1.043 1.2062
3038.140 1.448 1.558 1.518 1.648 1.738 1.808 1.878 1.918 2.028 2.038
3057.430 2.088 2.208 2.368 2.588 2.808 3.088 3.358 3.668 3.998 4.118
3076.720 4.168 4.138 3.858 3.498 3.008 2.698 2.448 2.268 2.188 2.078
3096.009 1.798 1.558 1.618 1.518 1.338 1.1454 1.0013 0.8871 0.7311 0.7048
3115.299 0.7203 0.6956 0.6631 0.6068 0.5008 0.37677 0.4012 0.4644 0.5195 0.5521
3134.589 0.5067 0.468 0.4969 0.5855 0.5844 0.39251 0.2852 0.2463 0.2152 0.305833
3153.879 0.4237 0.4374 0.37218 0.36175 0.39096 0.35101 0.2791 0.39198 0.4192 0.302745
3173.169 0.2735 0.2474 0.298262 0.37243 0.2357 0.241 0.37413 0.38732 0.35985 0.300061
3192.458 0.2402 0.27 0.38389 0.4007 0.29789 0.2502 0.2439 0.32608 0.4159 0.2624
3211.748 0.182 0.152 0.081 0.2536 0.32187 0.2745 0.300399 0.2069 0.148 0.178
3231.038 0.32107 0.4549 0.4574 0.35013 0.298008 0.297088 0.2454 0.1 0.098 0.278
3250.328 0.303704 0.177 0.14 0.2431 0.2527 0.33666 0.428 0.306298 0.122 0.139
3269.617 0.2535 0.33943 0.4181 0.36181 0.300345 0.2766 0.198 0.192 0.183 0.32023
3288.907 0.5004 0.31395 0.2515 0.32633 0.272 0.31388 0.29594 0.2044 0.184 0.174
3308.197 0.12 0.2011 0.2613 0.2611 0.2064 0.2314 0.2571 0.2284 0.2426 0.112
3327.487 0.037 0.047 0.2023 0.303719 0.271 0.29403 0.38322 0.32086 0.36684 0.4354
3346.777 0.2538 0.17 0.2294 0.38163 0.4813 0.35172 0.2838 0.2306 0.2274 0.2819
3366.066 0.193 0.2169 0.135 0.102 0.2264 0.2428 0.2069 0.35013 0.5054 0.4044
3385.356 0.2727 0.2582 0.4163 0.33049 0.145 0.078 0.155 0.2499 0.2248 0.2823
3404.646 0.2863 0.2724 0.301068 0.2529 0.17 0.076 0.004 0.181 0.1999 0.064
3423.936 0.142 0.174 0.119 0.157 0.29011 0.37116 0.2077 0.192 0.36527 0.31015
3443.225 0.147 0.232 0.34681 0.2797 0.29079 0.35384 0.237 0.2277 0.299844 0.2166
3462.515 0.31236 0.297616 0.2208 0.2223 0.135 0.16 0.193 0.176 0.2176 0.32822
3481.805 0.4072 0.4916 0.5734 0.6355 0.6071 0.36546 0.167 0.33125 0.5139 0.5779
3501.095 0.6789 0.606 0.711 0.708 0.4541 0.423 0.39363 0.4212 0.6074 0.4965
3520.385 0.34859 0.4657 0.5508 0.5005 0.464 0.4074 0.4064 0.527 0.5843 0.5413
3539.674 0.5029 0.5316 0.522 0.5234 0.5299 0.4685 0.5209 0.6904 0.7306 0.6857
3558.964 0.8395 1.0436 1.0568 1.2408 1.768 2.368 3.108 4.388 6.258 8.948
3578.254 12.758 16.948 19.918 20.508 18.658 14.858 9.938 5.628 3.108 2.098
3597.544 1.668 1.0556 0.6856 0.7049 0.5318 0.36897 0.4943 0.5686 0.6184 0.6866
3616.833 0.5598 0.4569 0.4719 0.467 0.4806 0.469 0.4657 0.39158 0.2687 0.39755
3636.123 0.4378 0.35565 0.36047 0.279 0.33763 0.33468 0.284 0.3997 0.4777 0.4441
3655.413 0.2674 0.194 0.2445 0.168 0.191 0.4184 0.528 0.5569 0.39452 0.31818
3674.703 0.4279 0.33135 0.182 0.16 0.2314 0.36536 0.31826 0.2473 0.2156 0.083
3693.993 0.077 0.231 0.3582 0.33992 0.2612 0.36464 0.3196 0.138 0.2715 0.4217
3713.282 0.531 0.5099 0.5002 0.5475 0.5169 0.30584 0.179 0.4027 0.6011 0.4202
3732.572 0.37176 0.4061 0.2361 0.2047 0.2876 0.3127 0.32206 0.2796 0.11 0.155
3751.862 0.34069 0.37473 0.2482 0.219 0.2572 0.2493 0.185 0.062 0.035 0.117
3771.152 0.04 0.131 0.302624 0.31605 0.2496 0.186 0.188 0.2472 0.2391 0.097
3790.441 0.054 0.045 0.169 0.2676 0.2366 0.2532 0.2776 0.2492 0.193 0.29441
3809.731 0.29092 0.168 0.2058 0.163 0.116 0.098 0 0.038 0.193 0.105
3829.021 0.08 0.188 0.185 0.174 0.006 0.105 0.2773 0.2238 0.125 0.2589
3848.311 0.31797 0.2032 0.36113 0.4663 0.4067 0.304533 0.184 0.2202 0.36824 0.36412
3867.601 0.2842 0.2211 0.2377 0.194 0.2496 0.14 0.159 0.2153 0.159 0.299376
3886.890 0.164 0.153 0.2083 0.2312 0.2421 0.32682 0.36154 0.167 0.044 0.052
3906.180 0.09 0.2035 0.305948 0.39172 0.4155 0.303094 0.2401 0.153 0.076 0.164
3925.470 0.2354 0.2483 0.34383 0.35312 0.29234 0.297919 0.2604 0.07 0.083 0.15
3944.760 0.038 0.08 0.2866 0.2607 0.2207 0.2342 0.28834 0.36413 0.2816 0.143
3964.049 0.06 0.06 0.104 0.09 0.108 0.2018 0.075 0.123 0.33885 0.4136
3983.339 0.37089 0.2486 0.167 0.158 0.2019 0.2066 0.2459 0.34606 0.32934 0.2768
##END=
