##TITLE=Carbofuran
##JCAMP-DX=4.24
##DATA TYPE=INFRARED SPECTRUM
##ORIGIN=NIST Mass Spectrometry Data Center
##OWNER=NIST Standard Reference Data Program
Collection (C) 2018 copyright by the U.S. Secretary of Commerce
on behalf of the United States of America. All rights reserved.
##CAS REGISTRY NO=1563-66-2
##MOLFORM=C 12 H 15 N O 3
##$NIST SOURCE=MSDC-IR
##SPECTROMETER/DATA SYSTEM=HP-GC/MS/IRD
##STATE=gas
##XUNITS=1/CM
##YUNITS=ABSORBANCE
##XFACTOR=1.0
##YFACTOR=0.000005200
##DELTAX=4.0
##FIRSTX=550.0
##LASTX=3846.0
##FIRSTY=0.001238
##MAXX=3846
##MINX=550
##MAXY=0.052
##MINY=0
##NPOINTS=825
##XYDATA=(X++(Y..Y))
550.0 238 112 53 79 88 75 58 90 135 134
590.0 138 115 86 58 36 33 25 27 29 46
630.0 61 52 46 51 50 39 30 35 27 26
670.0 26 9 4 17 22 30 49 69 114 175
710.0 257 402 605 820 985 1026 926 826 798 815
750.0 830 829 838 857 892 958 1031 1044 933 708
790.0 474 320 246 213 203 200 209 218 221 241
830.0 280 334 402 472 533 584 639 737 947 1313
870.0 1856 2460 2806 2671 2123 1453 977 760 689 726
910.0 818 952 1085 1109 995 786 609 513 471 443
950.0 392 342 313 305 306 309 293 274 272 287
990.0 331 400 520 713 932 1044 970 770 583 496
1030.0 475 492 573 761 1105 1459 1646 1660 1573 1482
1070.0 1398 1295 1209 1186 1258 1434 1702 2080 2549 2972
1110.0 3236 3311 3313 3325 3361 3387 3323 3154 2962 2951
1150.0 3449 4325 4899 4782 4114 3455 3239 3501 4219 5232
1190.0 6072 6432 6497 6826 7702 8634 8861 8156 6861 5578
1230.0 4668 4120 3782 3512 3291 3165 3199 3353 3493 3443
1270.0 3145 2722 2404 2333 2408 2468 2390 2165 1899 1737
1310.0 1769 2015 2434 2865 3070 2883 2356 1742 1248 929
1350.0 746 655 631 700 857 1081 1245 1162 1021 905
1390.0 780 662 552 503 508 543 623 764 954 1131
1430.0 1247 1335 1487 1740 2057 2491 3163 4176 5330 6402
1470.0 7299 8025 8475 8384 7681 6656 5730 5033 4417 3779
1510.0 3178 2701 2334 2053 1834 1644 1475 1327 1194 1081
1550.0 984 899 822 762 712 679 672 690 730 822
1590.0 968 1095 1144 1097 997 930 930 926 850 696
1630.0 517 374 285 242 218 198 183 173 155 137
1670.0 129 128 132 137 147 158 166 191 216 242
1710.0 278 328 394 473 578 712 837 936 1032 1168
1750.0 1398 1766 2338 3243 4681 6694 8822 10000 9190 6969
1790.0 4701 3014 2005 1416 1068 875 787 741 691 619
1830.0 530 445 374 316 266 222 183 151 133 118
1870.0 107 101 100 110 121 124 112 92 74 56
1910.0 46 41 32 25 21 22 18 12 15 15
1950.0 12 13 15 17 20 19 12 13 21 23
1990.0 21 18 24 26 25 32 32 30 33 31
2030.0 27 25 21 18 18 11 7 9 12 16
2070.0 22 25 31 35 35 35 34 40 41 47
2110.0 52 54 60 65 61 58 54 40 31 26
2150.0 23 22 17 15 12 6 4 7 12 13
2190.0 16 24 33 38 44 53 60 72 87 98
2230.0 118 136 159 189 217 244 267 284 300 318
2270.0 332 349 366 373 356 320 285 264 272 286
2310.0 278 252 210 162 130 114 103 105 108 96
2350.0 69 46 31 20 12 8 8 10 12 14
2390.0 14 16 16 12 10 10 13 20 17 14
2430.0 16 12 18 23 24 24 26 28 27 29
2470.0 24 25 30 29 31 35 31 29 32 33
2510.0 30 26 22 19 17 10 8 6 4 8
2550.0 11 13 12 16 21 20 20 23 25 29
2590.0 40 44 45 44 43 41 34 34 36 35
2630.0 34 32 34 29 31 38 35 30 27 30
2670.0 41 34 27 29 29 34 35 38 34 30
2710.0 27 27 32 30 38 48 49 46 37 33
2750.0 33 36 29 25 32 37 44 48 47 49
2790.0 51 58 73 81 93 121 162 210 262 300
2830.0 307 292 273 269 295 363 465 582 672 688
2870.0 651 604 593 609 637 688 742 799 864 942
2910.0 1039 1142 1246 1381 1556 1757 1976 2131 2145 2039
2950.0 1878 1717 1571 1480 1499 1724 2248 2881 3151 2750
2990.0 1947 1172 704 491 394 347 316 315 332 366
3030.0 408 467 522 556 580 572 538 518 542 598
3070.0 643 653 621 534 431 340 265 207 162 136
3110.0 115 90 70 57 52 53 46 37 33 34
3150.0 24 21 29 29 31 33 32 33 40 41
3190.0 46 49 40 37 38 34 34 36 32 28
3230.0 25 22 13 9 19 18 16 16 13 10
3270.0 2 9 22 15 5 4 6 14 15 5
3310.0 6 11 13 8 6 6 10 8 5 10
3350.0 13 17 12 3 0 0 0 9 19 20
3390.0 16 17 11 17 29 38 47 40 41 46
3430.0 45 60 66 74 93 109 139 180 222 283
3470.0 357 455 589 716 817 866 825 712 567 411
3510.0 281 202 156 134 122 112 113 119 124 117
3550.0 91 80 73 63 58 49 35 27 32 35
3590.0 28 28 31 18 22 43 53 52 54 44
3630.0 27 24 31 25 19 14 9 7 16 16
3670.0 18 26 33 38 30 21 13 6 6 22
3710.0 25 18 20 16 19 29 26 31 28 22
3750.0 23 24 22 18 18 14 12 24 32 23
3790.0 19 29 27 12 17 32 24 7 4 7
3830.0 8 17 17 12 11
##END=
