##TITLE=l-2-Methyl-1-butanol
##JCAMP-DX=4.24
##DATA TYPE=INFRARED SPECTRUM
##ORIGIN=NIST Mass Spectrometry Data Center
##OWNER=NIST Standard Reference Data Program
Collection (C) 2018 copyright by the U.S. Secretary of Commerce
on behalf of the United States of America. All rights reserved.
##CAS REGISTRY NO=1565-80-6
##MOLFORM=C 5 H 12 O
##$NIST SOURCE=MSDC-IR
##SPECTROMETER/DATA SYSTEM=HP-GC/MS/IRD
##STATE=gas
##XUNITS=1/CM
##YUNITS=ABSORBANCE
##XFACTOR=1.0
##YFACTOR=0.000001800
##DELTAX=4.0
##FIRSTX=550.0
##LASTX=3846.0
##FIRSTY=0.000275
##MAXX=3846
##MINX=550
##MAXY=0.018
##MINY=0
##NPOINTS=825
##XYDATA=(X++(Y..Y))
550.0 153 100 7 93 109 92 90 62 54 125
590.0 144 109 120 111 95 75 71 96 69 45
630.0 36 1 19 42 38 29 16 31 65 66
670.0 61 49 17 0 22 19 4 18 24 33
710.0 52 56 72 75 70 79 80 91 110 134
750.0 194 245 250 261 273 267 267 257 239 242
790.0 253 236 208 187 157 144 129 125 100 84
830.0 114 115 111 111 96 91 108 133 160 173
870.0 170 198 235 257 284 327 354 377 406 432
910.0 433 428 437 434 438 456 492 526 577 639
950.0 717 810 910 1026 1111 1246 1390 1485 1599 1758
990.0 1933 2116 2366 2660 2916 3127 3370 3640 3956 4318
1030.0 4661 4939 5148 5252 5199 4934 4445 3776 2954 2140
1070.0 1497 1113 925 805 770 775 777 805 823 799
1110.0 791 779 740 710 687 666 627 619 636 643
1150.0 642 632 649 638 620 628 623 614 629 647
1190.0 678 729 758 800 853 867 882 898 876 856
1230.0 836 808 785 768 758 747 736 747 739 729
1270.0 724 734 746 731 726 722 716 721 705 690
1310.0 681 665 661 665 670 680 691 711 743 786
1350.0 836 880 948 1041 1152 1259 1369 1448 1496 1524
1390.0 1475 1373 1250 1086 906 746 624 543 506 499
1430.0 528 594 702 861 1033 1217 1382 1545 1640 1649
1470.0 1610 1496 1331 1152 968 779 612 465 350 265
1510.0 219 195 156 135 131 133 132 137 122 106
1550.0 104 94 87 91 94 93 83 81 87 88
1590.0 94 84 79 69 60 64 64 73 75 76
1630.0 83 71 53 53 59 50 53 64 65 63
1670.0 63 64 55 50 56 53 50 33 24 32
1710.0 32 29 30 38 34 26 13 10 8 0
1750.0 11 24 27 25 16 12 25 17 15 25
1790.0 16 13 6 12 19 12 28 36 26 14
1830.0 21 36 32 14 2 4 7 6 5 6
1870.0 4 18 31 25 15 17 23 14 4 14
1910.0 21 25 32 40 41 37 31 25 21 25
1950.0 23 13 19 31 31 22 18 17 11 14
1990.0 21 17 15 16 12 18 20 25 35 33
2030.0 30 29 35 41 43 47 54 47 39 47
2070.0 44 36 41 44 45 33 18 26 26 16
2110.0 16 8 0 9 14 6 3 15 18 14
2150.0 11 14 13 11 9 22 28 23 19 10
2190.0 15 18 16 8 9 13 25 29 14 3
2230.0 8 13 17 15 18 22 16 20 25 9
2270.0 10 22 26 36 25 9 8 5 15 33
2310.0 24 12 17 19 13 28 22 10 35 48
2350.0 37 32 34 34 38 35 32 36 34 30
2390.0 36 37 37 42 50 51 50 57 61 45
2430.0 36 54 63 58 53 59 58 52 55 54
2470.0 52 44 35 38 39 34 35 36 34 35
2510.0 32 35 44 42 43 52 63 57 50 73
2550.0 81 70 65 70 85 87 75 77 80 76
2590.0 79 81 82 95 103 94 93 103 111 118
2630.0 115 104 114 130 122 115 110 109 128 140
2670.0 153 166 164 176 182 187 195 203 212 220
2710.0 234 259 277 297 337 361 370 382 403 431
2750.0 445 451 452 454 465 485 497 503 522 541
2790.0 569 584 584 609 653 699 728 787 866 939
2830.0 1045 1165 1327 1556 1847 2205 2651 3186 3834 4558
2870.0 5248 5886 6384 6750 7024 7080 7000 6969 6965 7041
2910.0 7210 7428 7684 7940 8155 8267 8262 8218 8182 8189
2950.0 8327 8688 9225 9743 10000 9734 8987 8150 7110 5775
2990.0 4431 3233 2320 1687 1262 979 809 709 638 588
3030.0 545 514 494 461 444 430 412 401 380 368
3070.0 358 341 327 310 287 272 277 282 284 277
3110.0 259 238 206 185 194 188 170 170 170 155
3150.0 151 157 156 160 165 153 149 154 144 136
3190.0 120 93 103 107 107 113 88 81 79 69
3230.0 73 64 37 29 39 40 45 50 68 65
3270.0 41 32 27 34 35 46 60 40 27 23
3310.0 23 24 2 11 35 46 61 59 44 32
3350.0 35 47 43 32 26 31 49 38 19 11
3390.0 14 32 38 47 44 41 50 44 36 40
3430.0 45 68 76 51 58 76 99 96 58 49
3470.0 63 81 88 83 77 84 99 87 80 63
3510.0 56 79 80 75 64 77 88 64 55 36
3550.0 48 65 46 29 34 62 66 80 103 106
3590.0 89 99 109 110 118 118 123 124 140 158
3630.0 183 233 315 418 506 650 828 983 1128 1209
3670.0 1208 1166 1066 949 809 619 447 343 266 182
3710.0 140 129 96 87 91 71 55 64 67 81
3750.0 64 58 76 85 98 96 82 85 100 95
3790.0 97 101 89 86 82 96 115 112 104 103
3830.0 94 97 104 104 104
##END=
