##TITLE=3-Decanol
##JCAMP-DX=4.24
##DATA TYPE=INFRARED SPECTRUM
##ORIGIN=NIST Mass Spectrometry Data Center
##OWNER=NIST Standard Reference Data Program
Collection (C) 2018 copyright by the U.S. Secretary of Commerce
on behalf of the United States of America. All rights reserved.
##CAS REGISTRY NO=1565-81-7
##MOLFORM=C 10 H 22 O
##$NIST SOURCE=MSDC-IR
##SPECTROMETER/DATA SYSTEM=HP-GC/MS/IRD
##STATE=gas
##XUNITS=1/CM
##YUNITS=ABSORBANCE
##XFACTOR=1.0
##YFACTOR=0.000004900
##DELTAX=4.0
##FIRSTX=550.0
##LASTX=3846.0
##FIRSTY=0.000338
##MAXX=3846
##MINX=550
##MAXY=0.049
##MINY=0
##NPOINTS=825
##XYDATA=(X++(Y..Y))
550.0 69 39 7 31 41 28 35 41 44 37
590.0 30 39 45 33 24 22 19 6 2 22
630.0 31 31 21 11 19 22 14 14 12 4
670.0 1 12 21 23 23 35 32 35 52 63
710.0 77 100 117 117 119 111 103 95 89 84
750.0 73 69 72 78 90 97 99 100 95 83
790.0 77 78 74 67 75 86 93 93 109 125
830.0 113 108 109 110 111 113 116 132 145 145
870.0 150 166 173 180 189 193 202 216 226 228
910.0 237 246 259 279 296 320 354 397 451 523
950.0 604 697 793 880 942 970 960 919 874 828
990.0 787 746 701 661 627 597 590 586 582 572
1030.0 556 537 519 503 500 503 499 498 501 499
1070.0 504 514 522 536 555 575 595 610 624 627
1110.0 625 629 639 645 652 641 609 566 503 435
1150.0 379 341 322 311 303 307 323 329 334 346
1190.0 357 375 396 413 436 466 484 503 525 544
1230.0 549 538 528 517 505 491 478 462 452 443
1270.0 433 426 417 414 413 415 414 410 405 398
1310.0 388 375 365 358 358 371 395 423 457 495
1350.0 534 573 612 649 676 700 731 761 775 763
1390.0 716 640 559 482 420 375 340 324 320 329
1430.0 357 412 493 581 681 791 903 1000 1037 1004
1470.0 906 751 589 455 352 273 216 176 149 132
1510.0 118 104 94 85 77 69 61 52 49 49
1550.0 50 50 44 38 35 32 32 30 32 31
1590.0 31 30 28 25 24 22 20 18 18 18
1630.0 20 22 18 14 14 9 7 12 15 14
1670.0 12 13 14 11 10 12 9 7 11 11
1710.0 8 11 14 17 19 17 14 11 10 10
1750.0 8 9 9 8 7 5 6 6 4 5
1790.0 5 7 6 3 5 6 7 7 6 4
1830.0 1 2 8 9 6 5 6 3 1 4
1870.0 6 9 12 8 4 4 7 8 3 4
1910.0 8 8 10 7 2 2 4 7 6 7
1950.0 7 5 5 6 1 0 4 5 4 5
1990.0 6 2 1 2 2 4 8 8 10 11
2030.0 8 8 10 10 13 13 12 11 10 11
2070.0 10 8 7 7 4 4 5 6 5 5
2110.0 5 3 3 5 5 6 7 9 6 7
2150.0 8 5 5 7 9 8 6 6 6 5
2190.0 7 8 8 9 7 7 4 1 5 7
2230.0 4 3 0 3 5 3 6 7 4 6
2270.0 7 8 10 10 12 12 10 10 14 14
2310.0 14 17 17 16 16 14 11 13 13 9
2350.0 12 14 14 15 15 16 17 17 16 15
2390.0 15 17 19 21 18 16 20 19 15 15
2430.0 17 19 14 10 12 12 13 12 11 12
2470.0 14 11 7 13 17 14 14 16 15 15
2510.0 17 19 22 20 22 23 25 28 28 26
2550.0 28 32 37 36 34 37 40 41 46 49
2590.0 51 53 57 61 67 68 70 72 74 77
2630.0 79 83 85 89 95 100 103 105 108 114
2670.0 121 125 124 123 124 125 128 130 131 132
2710.0 128 125 128 138 147 150 156 163 171 178
2750.0 179 180 184 186 195 205 212 225 238 255
2790.0 271 290 312 342 373 409 455 510 573 649
2830.0 749 883 1066 1321 1667 2122 2672 3227 3675 3924
2870.0 3960 3869 3756 3646 3515 3370 3263 3291 3507 3898
2910.0 4466 5225 6202 7371 8571 9540 10000 9815 9046 7928
2950.0 6772 5875 5418 5367 5475 5371 4839 3970 3052 2302
2990.0 1753 1364 1095 904 760 653 569 500 449 405
3030.0 364 333 312 296 274 261 249 236 220 210
3070.0 201 192 185 176 167 157 152 147 137 127
3110.0 125 115 102 97 94 85 80 82 78 73
3150.0 71 64 59 58 59 61 58 52 52 46
3190.0 39 39 41 40 37 30 28 27 21 19
3230.0 20 13 8 6 5 5 4 6 9 7
3270.0 3 1 6 8 4 6 5 0 2 6
3310.0 7 10 9 7 6 8 9 7 1 0
3350.0 3 6 7 12 12 13 12 13 13 12
3390.0 11 11 18 16 14 13 17 23 21 22
3430.0 26 28 25 19 19 23 23 21 19 13
3470.0 12 13 16 18 15 12 18 18 14 14
3510.0 14 13 10 10 13 12 15 12 9 8
3550.0 7 11 15 17 16 18 15 13 19 26
3590.0 26 27 30 36 44 52 63 74 87 112
3630.0 140 170 204 244 297 343 376 376 327 264
3670.0 199 150 115 84 66 51 46 44 39 35
3710.0 28 27 24 18 17 13 16 21 21 22
3750.0 23 20 16 21 24 18 25 24 12 14
3790.0 24 22 23 26 28 28 20 17 27 38
3830.0 39 31 29 30 30
##END=
