##TITLE=3-Trifluoromethyl-3-hydroxybutyric acid
##JCAMP-DX=4.24
##DATA TYPE=INFRARED SPECTRUM
##ORIGIN=EPA-IR VAPOR PHASE LIBRARY
##OWNER=SRD/NIST
Collection (C) 2018 copyright by the U.S. Secretary of Commerce
on behalf of the United States of America. All rights reserved.
##CAS REGISTRY NO=156594-11-5
##MOLFORM=C 5 H 7 F 3 O 3
##$NIST SOURCE=MSDC-IR
##STATE=gas
##XUNITS=1/CM
##YUNITS=ABSORBANCE
##XFACTOR=1.
##YFACTOR=0.001
##DELTAX=1.92898
##FIRSTX=549.8
##LASTX=4000.7
##FIRSTY=13.82
##MAXX=4000.7
##MINX=549.759
##MAXY=0.18749
##MINY=0.00003989
##NPOINTS=1790
##XYDATA=(X++(Y..Y))
549.759 13.82 13.81 12.92 13.48 14.24 14.67 15.56 16.38 17.07 17.55
569.049 18.54 19.04 19.28 20 20.02 20.23 19.69 18.86 18.54 17.3
588.339 16.28 16.27 16.88 16.96 17.83 20.62 23.97 28.56 33.76 37.87
607.628 41.43 44.93 46.97 47.65 47.96 47.04 44.15 40.65 37.54 34.34
626.918 31.56 28.82 26.89 25.97 25.46 24.79 23.69 23.39 22.78 21.55
646.208 20.61 19.8 18.72 17.94 16.97 15.81 14.88 13.41 12.07 11.18
665.498 10.4 9.5 8.39 8.01 7.93 7.35 6.71 6.2 5.8 5.49
684.787 5.4 5.22 5.16 4.86 4.59 4.65 4.2 3.95 4.24 4.43
704.077 4.56 4.81 4.71 4.27 4.21 4.13 4.41 4.23 3.92 4.24
723.367 4.49 4.89 4.65 4.46 4.14 3.69 3.8 3.86 3.6 3.67
742.657 3.54 3.45 3.43 2.98 3.1 3.44 3.32 2.87 2.94 3.47
761.947 3.34 3.06 2.95 2.95 3.03 3.18 3.18 3.03 2.67 2.41
781.236 2.59 2.65 2.36 2.3 2.44 2.27 2.24 2.47 2.51 2.62
800.526 2.95 2.98 3 3.27 2.88 2.6 2.78 2.78 3.04 3.07
819.816 2.86 2.8 2.91 2.91 3.06 3.45 3.35 3.13 3.23 3.54
839.106 3.83 3.95 3.92 4.23 4.45 3.97 4.35 4.88 4.58 4.67
858.395 4.65 4.52 4.6 4.04 4.19 4.85 4.59 4.43 4.62 4.32
877.685 3.99 4.22 4.15 3.7 3.64 4.17 4.48 4.4 4.23 4.54
896.975 5.05 5.32 5.72 5.47 5.28 5.68 6.16 6.42 6.15 5.97
916.265 6.24 6.01 5.78 6.17 5.89 5.44 5.52 5.07 4.46 4.56
935.555 4.73 4.81 4.7 4.42 4.4 4.71 5.3 5.98 6.34 6.6
954.844 7.26 7.31 7.44 8.48 9.15 9.52 9.56 9.34 9.53 9.38
974.134 8.61 7.94 8.21 8.37 7.65 6.7 5.96 5.49 5.32 5.22
993.424 4.58 4.14 4.47 4.64 4.2 4.08 4.46 5.16 5.49 5
1012.714 5.15 5.52 5.16 5.27 5.28 5.51 6.12 6.05 5.8 5.64
1032.003 5.54 6 6.92 6.96 6.4 7.58 8.3 8.39 8.78 10.06
1051.293 11.06 11.15 12.17 13.27 14.75 16.56 18.77 20.44 22.59 25.89
1070.583 28.89 31.75 35.09 37.89 41.13 45.34 49.18 53.15 56.86 60.2
1089.873 63.19 65.6 67.33 68.48 69.78 71.25 72.61 73.33 72.41 70.98
1109.163 70.13 71 71.43 70.6 72.13 74.32 76.66 80.69 85.38 88.54
1128.452 92.97 98.27 102.15 106.51 111.64 114.82 117.15 120.52 121.55 121.38
1147.742 122.33 124.53 126.28 127.74 128.94 131.67 136.49 140.74 145.74 152.6
1167.032 160.54 168.26 174.79 180.77 184.52 186.01 187.22 187.49 186.23 183.28
1186.322 178.69 171.23 163.5 156.83 148.96 139.39 129.83 121.55 112.03 101.94
1205.611 94.46 88.91 82.3 75.58 69.5 64.23 59.37 55.71 53.65 50.58
1224.901 47.96 45.38 43.28 41.89 40.03 39.03 37.59 35.96 35.72 35.41
1244.191 34.86 35.29 34.65 33.08 32.54 32.59 31.96 31.17 30.97 30.84
1263.481 30.46 30.76 31.03 30.49 30.42 30.46 30.19 30.02 29.9 29.6
1282.771 29.42 29.27 29.05 28.85 27.98 26.71 26.23 25.66 24.67 23.98
1302.060 23.46 22.97 22.44 22.17 21.9 21.81 21.96 22.01 22.19 22.05
1321.350 21.85 21.96 22.14 22.03 21.81 21.82 21.83 21.89 22 22.15
1340.640 21.79 21.11 21.07 21.34 21.64 21.82 21.94 22.23 22.45 22.88
1359.930 23.71 24.81 25.58 25.95 26.83 27.84 28.88 30.15 30.92 31.84
1379.219 33.09 34.03 34.84 35.75 36.82 36.91 36.26 36.13 35.96 34.86
1398.509 33.65 31.71 29.41 27.84 26.13 24.38 22.89 21.38 20.09 19.27
1417.799 19.02 17.85 16.16 15.41 14.43 13.55 13.05 12.36 11.7 12.01
1437.089 11.72 10.33 9.74 9.55 9.5 9.62 9.61 9.7 10.08 10.91
1456.378 12.05 11.98 11.15 11.06 11.53 11.51 11.11 10.9 11.02 10.6
1475.668 9.76 8.58 7.44 6.8 6.04 5.52 5.28 5.09 4.21 3.39
1494.958 3.67 3.76 3.26 2.98 2.9 3.43 4.51 4.32 3.55 2.97
1514.248 2.82 3.18 2.99 3.35 3.29 2.54 2.55 2.33 2.04 2.27
1533.538 2.54 2.2 2.32 2.9 2.73 2.77 2.56 1.98 2.36 2.13
1552.827 1.96 2.26 2.5 3.44 2.89 1.81 1.64 1.61 1.74 1.77
1572.117 1.5 1.57 2.08 1.91 1.7 1.97 1.83 1.92 2.05 1.9
1591.407 2.08 2.26 2.29 2.32 2.2 2.22 2.19 2.02 1.92 1.89
1610.697 1.97 1.95 2.08 2.64 2.39 2.02 2.4 2.5 2.14 1.85
1629.986 1.85 1.87 2.19 2.57 2.21 2 1.92 2.08 2.75 2.82
1649.276 2.37 3 3.66 3 2.48 2.43 2.61 2.48 2.16 2.36
1668.566 2.77 2.82 2.9 3.34 3.22 3.05 3.38 3.82 4.37 3.89
1687.856 3.68 3.87 3.63 4.14 4.89 4.95 5.98 6.23 5.79 6.15
1707.146 6.25 6.67 7.13 8.03 8.99 9.82 10.21 10.16 10.82 11.62
1726.435 12.44 13.79 15.27 17.22 19.43 20.69 22.76 25.79 29.14 33.01
1745.725 37.38 42.38 47.67 52.63 56.82 61.66 66.12 69.57 73 75.41
1765.015 76.82 78.07 78.06 77.58 77.19 76.04 74.78 73.48 71.77 69.87
1784.305 67.99 65.51 62.79 60.15 56.84 52.67 48.5 44.32 40.47 36.56
1803.594 32.26 28.51 25.08 21.88 19.25 16.82 14.84 13.3 11.74 10.35
1822.884 9.56 8.97 7.95 7.24 6.69 5.96 5.45 5.06 4.75 4.51
1842.174 4.74 4.85 4.37 3.95 3.51 3.2 3.1 2.82 2.63 2.7
1861.464 2.64 2.58 2.49 2.47 2.49 2.07 1.78 1.81 1.88 1.9
1880.754 1.84 1.84 1.81 1.65 1.66 1.66 1.53 1.56 1.5 1.49
1900.043 1.41 1.25 1.37 1.53 1.5 1.45 1.38 1.33 1.37 1.36
1919.333 1.22 1.24 1.38 1.28 1.2 1.17 1.17 1.15 1.08 1.16
1938.623 1.14 1.28 1.38 1.36 1.38 1.27 1.32 1.36 1.31 1.19
1957.913 1.29 1.31 1.15 1.04 1.18 1.37 1.23 1.21 1.22 1.14
1977.202 0.9775 1.02 0.9976 0.8539 1.04 1.33 1.33 1.16 1.11 1.1
1996.492 0.9995 0.8426 0.7953 0.9811 1.18 1.13 1.12 1.04 0.8664 0.7598
2015.782 0.854 0.9631 0.9998 0.9116 0.7604 0.8653 0.9024 0.8278 0.8281 0.8
2035.072 0.9519 1.08 0.8839 0.8519 0.8692 0.8511 0.9012 0.8242 0.9068 0.9477
2054.362 0.7762 0.7963 0.9343 0.8158 0.7673 0.8398 0.8029 0.9887 0.9514 0.7923
2073.651 0.7351 0.7262 0.8076 0.8322 0.794 0.5771 0.6176 0.7833 0.7045 0.7065
2092.941 0.7798 0.714 0.7771 0.8403 0.7316 0.7696 0.7973 0.6905 0.7055 0.7397
2112.231 0.7295 0.8821 0.8361 0.6913 0.7287 0.8013 0.7645 0.582 0.4782 0.638
2131.521 0.8146 0.8515 0.8083 0.8028 0.8538 0.6622 0.4953 0.634 0.8189 0.7005
2150.810 0.6149 0.6954 0.8089 0.8478 0.815 0.7764 0.7598 0.9306 1.04 1.01
2170.100 0.9057 0.7837 0.7152 0.7841 0.7717 0.6651 0.7049 0.6295 0.4043 0.4944
2189.390 0.6916 0.6976 0.7615 0.9349 0.9799 0.8951 0.8476 0.8155 0.8523 0.8413
2208.680 0.7573 0.7405 0.7447 0.9171 0.9988 0.8678 0.7655 0.7348 0.8481 0.9206
2227.970 0.8973 1.04 1.15 1.04 0.8959 1.05 1.15 1.19 1.16 1.06
2247.259 1.08 1.08 1.16 1.14 1.13 1.03 0.9155 0.9953 0.919 0.9012
2266.549 1.09 1.17 1.18 1.26 1.21 1.16 1.35 1.26 1.03 1.24
2285.839 1.35 1.26 1.09 0.9396 0.7947 0.8661 1.09 1.04 0.9979 1.06
2305.129 1.05 1.03 0.9995 0.9298 0.9324 0.9036 1.04 1.19 1.11 1.15
2324.418 1.1 1.01 0.9545 0.9562 1.18 1.21 0.9654 0.9354 1.05 1.03
2343.708 1.08 1.14 1.11 1.09 1.3 1.27 1.03 1.08 1.32 1.37
2362.998 1.19 0.9809 0.8594 1.05 1.14 0.9464 0.9503 1.1 1.03 0.9315
2382.288 1.02 1.1 1.11 1.25 1.25 1.02 0.8505 0.9824 0.9667 0.8327
2401.578 0.8989 0.8806 0.9312 0.868 0.7988 0.8849 1.01 1.03 0.9572 0.8555
2420.867 0.8357 1.04 1.03 1.02 1.03 0.893 0.9516 1.03 1.11 1.16
2440.157 1.1 0.9994 0.7936 1.06 1.12 0.8659 1 1.06 1.06 0.9933
2459.447 0.8765 0.8466 0.9444 1.02 0.8365 0.7045 0.7847 0.7981 0.9138 1.1
2478.737 1.14 1.12 0.9054 0.6625 0.5663 0.6902 0.731 0.7256 0.8816 0.7413
2498.026 0.595 0.5786 0.7008 0.882 0.7859 0.6698 0.6157 0.6539 0.636 0.701
2517.316 0.711 0.7096 0.7604 0.6835 0.7749 0.8104 0.7481 0.6861 0.7013 0.6053
2536.606 0.3972 0.6483 0.9447 0.9837 0.7953 0.5739 0.8004 0.5599 0.3384 0.5984
2555.896 0.6863 0.749 0.7494 0.7577 0.7394 0.6397 0.4647 0.5181 0.6354 0.5048
2575.186 0.4609 0.4622 0.4458 0.7225 0.7347 0.3923 0.3902 0.386 0.1987 0.3419
2594.475 0.5803 0.6525 0.5973 0.5792 0.6361 0.3798 0.2947 0.4952 0.5957 0.4978
2613.765 0.3923 0.3514 0.3831 0.4505 0.4345 0.5378 0.6488 0.6861 0.5431 0.4537
2633.055 0.669 0.7679 0.7142 0.6464 0.6058 0.4913 0.4903 0.6987 0.485 0.4015
2652.345 0.4705 0.3276 0.3837 0.5768 0.5069 0.5114 0.5343 0.4346 0.3509 0.316
2671.634 0.4087 0.2661 0.2367 0.4618 0.7375 0.6192 0.7016 0.8654 0.6168 0.3831
2690.924 0.259 0.2799 0.2547 0.4709 0.4844 0.2646 0.642 0.7564 0.3557 0.4308
2710.214 0.6795 0.7067 0.5642 0.6601 0.6991 0.3735 0.3382 0.4465 0.4777 0.5111
2729.504 0.6066 0.804 0.7313 0.6095 0.6101 0.3708 0.3998 0.3667 0.08676 0.08192
2748.794 0.3266 0.5797 0.5201 0.33 0.3447 0.4764 0.4443 0.542 0.6186 0.4811
2768.083 0.5225 0.5668 0.5912 0.6104 0.4679 0.4134 0.5424 0.6187 0.9017 0.9424
2787.373 0.7065 0.674 0.455 0.2254 0.2923 0.4982 0.5141 0.5701 0.5154 0.418
2806.663 0.5634 0.6983 0.7003 0.449 0.6951 0.8199 0.5406 0.6543 0.9778 0.9909
2825.953 0.7983 0.925 0.6784 0.4597 0.4621 0.3669 0.5711 0.8392 0.7912 0.6699
2845.242 0.7074 0.662 0.5404 0.5266 0.6735 0.6739 0.7415 0.7943 0.6257 0.6254
2864.532 0.8223 0.5264 0.369 0.7872 0.8856 0.9211 1.08 1.15 1.11 1.21
2883.822 1.38 1.4 1.37 1.59 1.95 1.88 1.79 1.65 1.34 1.66
2903.112 2.2 2.24 2.14 1.93 1.73 1.83 1.9 1.7 1.49 1.74
2922.401 2.03 2.17 2.23 2.1 2.38 2.74 2.61 3.01 3.44 3.37
2941.691 3.52 3.79 4.28 4.62 4.5 4.48 4.84 5.21 5.2 4.73
2960.981 4.41 4.37 4.22 3.95 3.63 3.21 3.02 2.85 2.81 3.04
2980.271 3.01 3.05 3.3 3.68 4.09 4.53 5.34 5.87 6.27 7.05
2999.561 7.41 7.97 8.43 8.42 8.49 8.35 7.86 7.22 6.47 5.56
3018.850 4.92 4.46 4.01 3.34 2.54 2.01 1.88 1.39 0.893 1.12
3038.140 1.29 1.18 0.8211 0.8731 0.9032 0.8319 0.9903 1 1.31 1.07
3057.430 0.7271 0.9405 0.6947 0.6893 0.8733 0.9613 0.967 0.8169 0.4968 0.2026
3076.720 0.5036 0.8382 1.01 0.8799 0.7476 0.7141 0.6519 0.8422 0.8521 0.4218
3096.009 0.5123 0.6925 0.5265 0.7069 0.9405 0.8699 0.7069 0.6811 0.7305 0.8739
3115.299 0.8764 0.6084 1.01 1.11 0.575 0.5166 0.5917 0.8269 0.8087 0.7566
3134.589 0.5816 0.6438 1.07 0.8838 0.7401 0.6292 0.3464 0.6145 1.18 0.9478
3153.879 0.4249 0.5011 0.7484 0.6454 0.6873 1.14 1.16 1.1 0.9019 0.7381
3173.169 0.8048 0.8515 1.01 0.8126 0.8527 1.12 0.7597 0.3366 0.6045 1.06
3192.458 0.9885 1.03 1.2 0.9618 0.5758 0.7043 1.2 0.9821 0.5202 0.7988
3211.748 0.8629 0.8399 0.8269 0.7262 0.9235 0.8738 0.6697 0.8814 1.11 0.9314
3231.038 0.6586 0.7172 0.8317 0.6023 0.7331 0.6878 0.468 0.5012 0.6242 0.5601
3250.328 0.4853 0.7251 0.6458 0.6646 0.9556 0.6479 0.6206 1.07 1.2 0.9869
3269.617 0.799 0.9032 0.8669 0.9082 0.8281 0.4885 0.5543 1.16 1.21 0.6291
3288.907 0.5454 0.6485 0.5244 0.2319 0.3066 0.4882 0.664 0.8751 0.9548 1.19
3308.197 1.2 1.03 0.9921 1.18 1.02 0.8183 1.14 1.36 1.01 0.9597
3327.487 0.9971 1.05 1.38 1.29 1.07 0.8136 0.6718 0.6307 0.6941 0.9432
3346.777 1.1 0.7518 0.6152 0.9267 1.19 1.26 1.01 1.07 1.09 0.7277
3366.066 0.9712 1.4 1.35 1.09 0.8221 1.1 1.1 0.8584 0.781 0.8362
3385.356 1.27 1.56 1.67 2.01 1.87 1.44 1.63 1.51 1.02 1.05
3404.646 1 0.8049 1.03 1.41 1.69 1.56 1.19 1.07 1.26 1.45
3423.936 1.82 1.72 1.25 1.45 1.69 1.71 2.31 2.48 2.16 2.1
3443.225 2.07 2.11 2.44 2.57 2.08 2.34 3.21 3.3 3 2.81
3462.515 2.83 3.39 3.59 3.51 3.76 3.74 3.92 4.1 4.14 4.74
3481.805 5.21 5.43 5.96 6.29 6.42 7.01 7.57 8.24 8.89 9.67
3501.095 10.73 11.14 11.72 12.46 12.87 13.29 13.32 13.2 13.27 13.36
3520.385 13.32 13.8 14.47 14.09 13.3 12.72 12.23 11.91 11.84 11.73
3539.674 11.52 11.61 11.79 12.56 12.97 13.21 14.92 17.47 20.83 25.93
3558.964 32.82 40.09 47.05 52.62 55.54 56.32 55.41 52.77 49.48 44.93
3578.254 37.72 29.26 21.77 16.56 13.87 12 9.97 9.17 8.88 8.59
3597.544 8.42 8.34 8.26 7.63 7.28 7.88 8.19 7.85 7.68 7.45
3616.833 7.87 8.3 7.77 7.49 7.57 8.36 9.48 9.56 8.75 8.46
3636.123 8.48 8.1 7.64 6.99 6.68 6.75 6.16 5.35 4.68 4.13
3655.413 3.99 3.39 3.05 2.74 2.06 2.29 2.6 2.75 2.67 2.38
3674.703 2.29 2.15 1.55 1.3 1.48 1.39 1.35 1.26 1.77 2
3693.993 1.63 1.16 0.9378 1.17 1.39 1.45 1.31 1.44 1.41 1.29
3713.282 1.62 1.61 1.15 1.07 1.31 1.5 1.73 1.48 0.9752 1.05
3732.572 1.45 1.96 1.87 1.35 1.3 1.69 2.19 1.85 1.76 1.9
3751.862 1.88 1.62 1.27 0.8537 0.4345 0.7009 0.7645 0.8635 1.18 1.46
3771.152 1.13 0.5441 0.6863 1.14 1.03 0.3163 0.3891 0.5313 0.06739 0.03989
3790.441 0.451 0.998 0.622 0.3977 0.654 0.8223 0.9674 0.7122 0.5924 0.5359
3809.731 0.4682 0.4643 0.4156 0.6562 0.8107 1.11 1.46 0.9344 0.988 1.28
3829.021 0.9218 0.6437 0.5102 0.8372 1.01 0.5872 0.4548 1.13 1.22 0.8154
3848.311 0.9992 1.29 1.69 1.55 1.04 1.03 1.05 1.24 1.4 1.3
3867.601 1.39 1.72 1.63 1.01 0.7641 0.7166 1.07 1.27 1.06 1.36
3886.890 1.04 0.5641 0.8886 0.7669 0.6164 1.22 1.95 2.04 1.81 1.4
3906.180 0.7031 0.5509 0.5391 0.2125 0.1635 0.9394 1.45 1.07 0.704 0.7469
3925.470 0.8519 1.01 1.31 1.28 0.9819 0.5449 0.4934 0.5943 0.531 0.7301
3944.760 0.7851 0.8241 0.7932 0.6224 0.731 0.8452 0.503 0.2024 0.5353 0.499
3964.049 0.226 0.4983 0.755 0.9521 1.09 1.19 1.14 0.7616 0.7088 0.9041
3983.339 0.8359 0.9387 1.31 1.16 0.9311 0.9553 0.6349 0.2981 0.3158 0.5488
##END=
