##TITLE=N,N,3,3-Tetramethylbutylamine
##JCAMP-DX=4.24
##DATA TYPE=INFRARED SPECTRUM
##ORIGIN=EPA-IR VAPOR PHASE LIBRARY
##OWNER=SRD/NIST
Collection (C) 2018 copyright by the U.S. Secretary of Commerce
on behalf of the United States of America. All rights reserved.
##CAS REGISTRY NO=15673-04-8
##MOLFORM=C 8 H 19 N
##$NIST SOURCE=MSDC-IR
##STATE=gas
##XUNITS=1/CM
##YUNITS=ABSORBANCE
##XFACTOR=1.
##YFACTOR=0.001
##DELTAX=1.929
##FIRSTX=549.8
##LASTX=4000.8
##FIRSTY=0.76442
##MAXX=4000.75
##MINX=549.766
##MAXY=0.152638
##MINY=0
##NPOINTS=1790
##XYDATA=(X++(Y..Y))
549.766 0.76442 0.8703 0.80708 1.0271 1.2109 1.134 0.9599 1.0472 1.0993 0.9147
569.056 0.77195 0.9596 1.0979 0.9202 0.9058 0.9296 0.9777 0.9905 0.77698 0.592
588.346 0.539 0.475 0.271 0.255 0.355 0.434 0.358 0.408 0.397 0.18
607.636 0.253 0.439 0.47 0.449 0.371 0.325 0.178 0 0.225 0.272
626.926 0.21 0.494 0.558 0.383 0.395 0.361 0.323 0.383 0.347 0.302
646.216 0.342 0.439 0.423 0.288 0.374 0.408 0.329 0.33 0.166 0.172
665.506 0.306 0.258 0.413 0.513 0.455 0.421 0.462 0.437 0.269 0.327
684.796 0.416 0.448 0.435 0.418 0.43 0.357 0.302 0.41 0.56 0.562
704.086 0.378 0.249 0.402 0.479 0.512 0.578 0.452 0.475 0.6317 0.564
723.376 0.485 0.435 0.42 0.524 0.551 0.577 0.6715 0.73634 0.78087 0.879
742.666 1.0563 1.1857 1.2837 1.3286 1.2672 1.3562 1.4931 1.6015 1.818 1.888
761.956 1.998 2.188 2.298 2.278 2.328 2.478 2.638 2.708 2.598 2.558
781.246 2.338 2.198 2.198 2.118 2.048 1.888 1.818 1.878 1.828 1.6961
800.536 1.6491 1.738 1.848 1.868 1.928 1.958 1.7076 1.5479 1.768 2.058
819.826 2.308 2.548 2.738 2.818 2.938 3.198 3.418 3.578 3.798 4.038
839.116 4.138 4.248 4.448 4.578 4.528 4.308 4.078 4.018 3.868 3.618
858.406 3.418 3.128 2.908 2.678 2.418 2.218 2.158 2.218 2.208 2.148
877.696 2.198 2.188 2.228 2.328 2.318 2.398 2.558 2.638 2.708 2.828
896.986 2.828 2.918 3.168 3.228 3.238 3.358 3.478 3.468 3.368 3.328
916.276 3.328 3.248 3.088 2.908 2.678 2.418 2.278 2.198 2.008 1.938
935.566 1.848 1.758 1.838 1.778 1.6981 1.6807 1.6139 1.5251 1.5848 1.6401
954.856 1.6532 1.808 1.918 1.998 2.128 2.268 2.378 2.478 2.648 2.918
974.146 3.278 3.588 4.018 4.598 5.208 5.808 6.408 7.028 7.628 8.298
993.436 8.808 9.138 9.298 9.278 9.178 8.918 8.578 8.208 7.838 7.458
1012.726 7.158 7.098 7.238 7.628 8.268 9.198 10.418 11.788 13.248 14.748
1032.016 16.238 17.618 18.598 19.248 19.688 19.758 19.398 18.778 17.898 16.768
1051.306 15.708 14.818 14.058 13.388 12.838 12.368 11.918 11.478 11.048 10.628
1070.596 10.068 9.418 8.708 7.998 7.308 6.608 6.128 5.758 5.438 5.248
1089.886 5.168 5.098 5.008 4.918 4.838 4.758 4.678 4.558 4.388 4.298
1109.176 4.158 4.018 3.928 3.868 3.918 4.028 4.148 4.358 4.628 5.008
1128.467 5.468 5.888 6.288 6.688 7.078 7.348 7.508 7.618 7.658 7.498
1147.757 7.348 7.288 7.178 7.078 6.828 6.628 6.558 6.408 6.268 6.088
1167.047 5.868 5.778 5.638 5.578 5.588 5.518 5.578 5.608 5.728 5.978
1186.337 6.228 6.518 6.858 7.348 7.868 8.318 8.758 9.188 9.578 9.958
1205.627 10.328 10.738 11.098 11.348 11.588 11.688 11.728 11.668 11.488 11.498
1224.917 11.468 11.378 11.278 11.218 11.358 11.508 11.748 12.148 12.438 12.608
1244.207 12.788 12.958 12.948 12.898 12.978 12.878 12.578 12.208 11.908 11.598
1263.497 11.138 10.708 10.258 9.778 9.238 8.728 8.368 7.998 7.718 7.468
1282.787 7.168 7.008 6.878 6.738 6.558 6.408 6.308 6.168 6.078 5.928
1302.077 5.768 5.738 5.768 5.718 5.658 5.658 5.638 5.658 5.638 5.538
1321.367 5.398 5.228 5.098 4.958 4.828 4.738 4.688 4.678 4.658 4.708
1340.657 4.908 5.178 5.488 5.998 6.718 7.568 8.618 9.918 11.288 12.768
1359.947 14.318 15.758 17.098 18.178 18.988 19.418 19.398 18.968 18.148 17.108
1379.237 15.988 14.868 13.828 12.908 12.178 11.538 10.858 10.118 9.278 8.458
1398.527 7.768 7.228 6.748 6.148 5.538 4.958 4.538 4.368 4.288 4.198
1417.817 4.198 4.368 4.628 4.868 5.258 5.808 6.428 7.158 7.928 8.768
1437.107 9.778 10.788 11.828 12.908 14.048 15.198 16.408 17.758 19.208 20.588
1456.397 21.888 23.268 24.428 25.228 25.768 26.058 26.128 25.938 25.358 24.428
1475.687 23.238 21.808 20.268 18.648 16.988 15.328 13.628 11.898 10.288 8.898
1494.977 7.698 6.618 5.798 5.058 4.518 4.108 3.618 3.308 3.058 2.848
1514.267 2.768 2.578 2.348 2.208 2.118 2.088 1.988 1.928 1.838 1.758
1533.557 1.728 1.6776 1.5844 1.4847 1.4117 1.3841 1.3573 1.3403 1.3589 1.2952
1552.847 1.2571 1.2674 1.2024 1.1301 1.1009 1.1556 1.1948 1.1612 1.1731 1.1491
1572.137 1.0921 0.9842 0.9755 1.0829 1.0888 1.1071 1.0845 1.0529 1.0502 1.0462
1591.427 1.0558 1.019 1.0106 0.9995 0.9767 1.0108 0.9817 0.9398 0.9634 0.9926
1610.717 0.9518 0.9313 0.9477 0.9122 0.9187 0.9333 0.9412 0.9346 0.9163 0.926
1630.007 0.9386 0.9643 0.8843 0.8434 0.9589 0.9749 0.9695 1.0456 1.0403 1.055
1649.297 1.1013 0.9923 0.8868 0.9424 1.0162 1.0244 1.0098 0.9955 0.9682 0.9276
1668.587 0.8979 0.8731 0.8701 0.8874 0.9195 0.9297 0.9066 0.8617 0.8206 0.8714
1687.877 0.9043 0.8745 0.8675 0.8534 0.8136 0.8605 0.8352 0.78149 0.80215 0.8014
1707.167 0.8564 0.8513 0.8281 0.8311 0.8354 0.8249 0.8267 0.8416 0.8357 0.8153
1726.457 0.8157 0.78611 0.79076 0.8194 0.74887 0.73237 0.75319 0.78154 0.78766 0.77823
1745.747 0.76778 0.72892 0.70577 0.708986 0.76103 0.79167 0.8137 0.8455 0.78662 0.7542
1765.037 0.75986 0.74356 0.7394 0.75782 0.7456 0.714118 0.7441 0.74427 0.73009 0.75167
1784.327 0.78427 0.74715 0.685 0.6936 0.7029 0.715856 0.73139 0.76311 0.7734 0.75215
1803.617 0.72119 0.74679 0.77792 0.76833 0.74617 0.75634 0.77688 0.73986 0.74921 0.78042
1822.907 0.75945 0.75283 0.75338 0.74627 0.75004 0.75869 0.76924 0.75742 0.78618 0.79262
1842.197 0.76105 0.76896 0.8179 0.8472 0.8198 0.80594 0.80056 0.80619 0.79532 0.75078
1861.487 0.74343 0.75474 0.74949 0.72824 0.76897 0.809 0.80456 0.8267 0.8182 0.8544
1880.777 0.8903 0.8691 0.871 0.9088 0.9123 0.8561 0.8404 0.84 0.79382 0.75908
1900.067 0.76587 0.78265 0.78148 0.79096 0.80436 0.76899 0.75279 0.74239 0.75803 0.73347
1919.357 0.6967 0.69816 0.73494 0.77293 0.715138 0.69988 0.6761 0.652 0.6835 0.6779
1938.647 0.707227 0.6917 0.6222 0.6352 0.6946 0.708725 0.6775 0.6755 0.6818 0.6949
1957.937 0.7478 0.78066 0.75364 0.76139 0.78862 0.80004 0.858 0.8322 0.74679 0.73219
1977.227 0.7332 0.76856 0.8149 0.7858 0.76518 0.79765 0.79806 0.80737 0.77266 0.73971
1996.517 0.75321 0.77429 0.76282 0.741 0.75682 0.75954 0.8213 0.80561 0.76208 0.77128
2015.807 0.73341 0.70961 0.76653 0.8425 0.8201 0.77519 0.77858 0.8346 0.8262 0.78427
2035.097 0.8146 0.8471 0.8456 0.8144 0.75986 0.712063 0.74557 0.78481 0.8101 0.79623
2054.387 0.74083 0.710972 0.74685 0.80156 0.7632 0.78019 0.80793 0.78035 0.79609 0.837
2073.677 0.8233 0.80009 0.8516 0.9069 0.8805 0.823 0.8612 0.8905 0.853 0.8314
2092.967 0.822 0.80757 0.8132 0.77779 0.75872 0.78699 0.80204 0.8584 0.8571 0.8166
2112.257 0.75707 0.75643 0.75965 0.6884 0.6797 0.708778 0.72894 0.6807 0.6617 0.6385
2131.547 0.6375 0.6933 0.6514 0.6367 0.6109 0.578 0.602 0.589 0.584 0.6143
2150.837 0.6182 0.567 0.572 0.626 0.6154 0.623 0.647 0.591 0.568 0.601
2170.127 0.557 0.542 0.593 0.586 0.564 0.571 0.557 0.56 0.581 0.593
2189.417 0.6526 0.6793 0.6512 0.6103 0.6266 0.6394 0.6389 0.6528 0.6312 0.585
2208.707 0.57 0.6215 0.6378 0.591 0.56 0.577 0.554 0.508 0.514 0.584
2227.997 0.6289 0.597 0.6503 0.6789 0.6247 0.6198 0.6261 0.601 0.604 0.602
2247.287 0.561 0.617 0.6834 0.6719 0.6466 0.6228 0.633 0.6879 0.6697 0.6611
2266.577 0.6671 0.6694 0.6238 0.6149 0.6771 0.6667 0.6946 0.709118 0.72424 0.74983
2285.868 0.76119 0.78036 0.7734 0.73781 0.73855 0.74335 0.71984 0.72648 0.74482 0.7508
2305.158 0.72433 0.6975 0.6747 0.6392 0.6624 0.6836 0.6538 0.6331 0.6188 0.6599
2324.448 0.6494 0.6143 0.6103 0.585 0.579 0.558 0.551 0.537 0.55 0.605
2343.738 0.6151 0.598 0.6868 0.72019 0.657 0.6289 0.6353 0.6597 0.6222 0.587
2363.028 0.606 0.6557 0.6901 0.6767 0.715297 0.714279 0.6906 0.709378 0.6943 0.6973
2382.318 0.6954 0.69976 0.78495 0.8448 0.8579 0.8861 0.8473 0.8295 0.903 0.9059
2401.608 0.832 0.8217 0.8359 0.8615 0.8797 0.8163 0.8392 0.8214 0.80173 0.9104
2420.898 0.9669 0.9242 0.9011 0.8745 0.8461 0.8667 0.8626 0.8324 0.844 0.8536
2440.188 0.8192 0.8159 0.8217 0.8304 0.8438 0.8258 0.78178 0.78116 0.8387 0.8619
2459.478 0.80352 0.75721 0.75306 0.8168 0.8683 0.8891 0.9336 0.9274 0.9336 0.9821
2478.768 1.0156 0.9959 1.014 1.1198 1.1466 1.158 1.1786 1.2679 1.3227 1.3137
2498.058 1.3735 1.3779 1.3097 1.3345 1.338 1.2943 1.2994 1.3074 1.3876 1.4037
2517.348 1.3327 1.359 1.3599 1.3475 1.342 1.3015 1.3018 1.309 1.3042 1.2775
2536.638 1.2598 1.287 1.294 1.2599 1.3104 1.3273 1.3144 1.3078 1.2548 1.2849
2555.928 1.2743 1.3049 1.3792 1.329 1.281 1.3122 1.3817 1.3986 1.35 1.2809
2575.218 1.3297 1.4203 1.3931 1.4603 1.5761 1.522 1.5457 1.6542 1.5576 1.4822
2594.508 1.5579 1.623 1.6058 1.6302 1.6393 1.5952 1.6095 1.6715 1.788 1.798
2613.798 1.828 1.898 1.918 1.978 2.008 2.068 2.078 2.108 2.188 2.158
2633.088 2.208 2.378 2.458 2.488 2.548 2.628 2.658 2.728 2.788 2.848
2652.378 2.938 3.018 3.128 3.178 3.298 3.408 3.398 3.528 3.708 3.828
2671.668 3.868 3.918 4.088 4.148 4.208 4.388 4.568 4.688 4.768 4.948
2690.958 5.178 5.408 5.588 5.858 6.178 6.458 6.818 7.118 7.478 7.948
2710.248 8.408 8.878 9.348 9.858 10.378 10.918 11.438 11.948 12.468 12.998
2729.538 13.568 14.078 14.558 15.128 15.818 16.498 17.388 18.448 19.568 20.918
2748.828 22.598 24.588 26.828 29.618 32.938 36.508 40.408 44.408 48.128 51.388
2768.118 53.988 55.978 57.258 57.598 57.208 56.138 54.418 52.358 50.198 48.088
2787.408 46.148 44.528 43.178 42.108 41.148 40.358 39.668 39.078 38.658 38.418
2806.698 38.298 38.208 38.418 38.948 39.588 40.098 40.388 40.398 40.048 39.388
2825.988 38.338 36.918 35.308 33.408 31.398 29.668 28.218 27.048 26.308 25.918
2845.278 25.898 26.258 26.928 27.958 29.098 30.428 32.108 33.938 35.888 37.888
2864.568 39.728 41.398 42.878 44.008 44.838 45.358 45.488 45.358 45.188 44.928
2883.858 44.448 44.028 43.698 43.528 43.638 43.978 44.448 45.078 45.998 47.208
2903.148 48.688 50.248 51.868 53.438 55.058 56.788 58.388 60.048 61.748 63.388
2922.438 65.098 66.928 68.948 71.128 73.728 76.768 80.228 84.328 88.958 94.048
2941.728 99.658 105.798 112.408 119.498 126.878 134.228 140.968 146.598 150.568 152.558
2961.018 152.638 150.428 145.748 138.728 129.508 118.588 106.998 95.678 84.898 74.908
2980.308 65.638 57.158 49.588 42.898 37.028 31.768 27.068 22.798 19.088 16.038
2999.598 13.638 11.838 10.468 9.448 8.548 7.728 7.058 6.598 6.258 5.918
3018.888 5.638 5.278 4.978 4.838 4.738 4.548 4.328 4.208 4.098 3.958
3038.178 3.928 3.718 3.488 3.538 3.528 3.388 3.368 3.348 3.288 3.248
3057.468 3.208 3.218 3.118 2.948 2.948 3.008 2.978 2.838 2.798 2.858
3076.758 2.838 2.758 2.718 2.688 2.608 2.518 2.478 2.508 2.448 2.288
3096.048 2.258 2.298 2.368 2.378 2.318 2.088 2.078 2.298 2.198 2.038
3115.338 1.968 2.028 2.058 2.008 1.928 1.908 1.908 1.848 1.848 1.908
3134.628 1.878 1.858 1.878 1.918 1.878 1.868 1.878 1.878 1.848 1.928
3153.918 2.018 1.878 1.828 1.938 2.028 2.018 2.058 2.138 2.158 2.248
3173.208 2.278 2.188 2.188 2.188 2.128 2.018 2.088 2.168 2.058 1.968
3192.498 2.058 2.108 1.968 1.968 2.068 2.048 2.048 2.058 2.018 1.888
3211.788 1.788 1.758 1.728 1.768 1.798 1.798 1.6767 1.718 1.6884 1.5424
3231.078 1.5351 1.4357 1.382 1.3244 1.2492 1.2777 1.3487 1.2615 1.1399 1.2199
3250.368 1.1346 1.0967 1.1771 1.1172 1.0859 1.1286 1.0505 0.9609 1.0227 1.0923
3269.658 1.1054 1.0011 0.8731 0.9021 0.9001 0.8181 0.8566 0.80733 0.8473 0.889
3288.948 0.78816 0.8251 0.868 0.72257 0.6154 0.76283 0.78295 0.6808 0.75477 0.76012
3308.238 0.639 0.6409 0.73839 0.8086 0.80471 0.77018 0.8385 0.8975 0.78647 0.606
3327.528 0.647 0.76033 0.75034 0.75328 0.7798 0.7329 0.72733 0.7251 0.70099 0.8096
3346.818 0.8438 0.79251 0.8336 0.78794 0.72444 0.8604 0.8711 0.8124 0.76754 0.6752
3366.108 0.74663 0.8679 0.9502 0.9382 0.9021 0.8428 0.78056 0.76591 0.7334 0.73743
3385.398 0.75014 0.76387 0.6571 0.6506 0.7626 0.6934 0.6781 0.79223 0.7907 0.79386
3404.688 0.739 0.6349 0.553 0.6272 0.684 0.6136 0.587 0.516 0.6692 0.73829
3423.978 0.6717 0.6682 0.604 0.606 0.6 0.583 0.595 0.6373 0.6339 0.558
3443.269 0.572 0.6439 0.547 0.397 0.462 0.468 0.48 0.571 0.608 0.6131
3462.559 0.501 0.462 0.546 0.538 0.543 0.54 0.486 0.542 0.585 0.562
3481.849 0.6241 0.6297 0.599 0.579 0.431 0.38 0.547 0.532 0.431 0.355
3501.139 0.39 0.536 0.538 0.436 0.329 0.326 0.338 0.393 0.447 0.451
3520.429 0.37 0.328 0.363 0.4 0.396 0.407 0.327 0.213 0.314 0.379
3539.719 0.489 0.473 0.356 0.369 0.442 0.516 0.464 0.376 0.259 0.213
3559.009 0.377 0.459 0.514 0.484 0.308 0.32 0.365 0.39 0.363 0.356
3578.299 0.367 0.369 0.34 0.331 0.381 0.342 0.314 0.393 0.496 0.441
3597.589 0.365 0.357 0.369 0.436 0.449 0.329 0.292 0.446 0.568 0.514
3616.879 0.457 0.463 0.324 0.258 0.249 0.278 0.302 0.366 0.494 0.542
3636.169 0.538 0.508 0.549 0.513 0.454 0.423 0.441 0.487 0.479 0.5
3655.459 0.493 0.547 0.531 0.51 0.543 0.443 0.363 0.364 0.474 0.481
3674.749 0.332 0.282 0.403 0.472 0.4 0.341 0.302 0.376 0.435 0.378
3694.039 0.408 0.426 0.385 0.461 0.449 0.373 0.399 0.423 0.451 0.506
3713.329 0.525 0.457 0.374 0.456 0.579 0.533 0.418 0.486 0.524 0.367
3732.619 0.252 0.179 0.145 0.359 0.525 0.37 0.355 0.424 0.395 0.369
3751.909 0.372 0.431 0.466 0.477 0.57 0.6423 0.579 0.6113 0.542 0.349
3771.199 0.467 0.505 0.405 0.419 0.557 0.568 0.517 0.6298 0.548 0.448
3790.489 0.564 0.6582 0.6403 0.587 0.478 0.57 0.6679 0.6202 0.7271 0.78344
3809.779 0.6384 0.6594 0.76447 0.6699 0.6742 0.79717 0.73952 0.6548 0.6809 0.548
3829.069 0.557 0.69937 0.713224 0.569 0.411 0.425 0.483 0.547 0.6245 0.709499
3848.359 0.7095 0.585 0.534 0.556 0.467 0.498 0.535 0.484 0.501 0.612
3867.649 0.6762 0.581 0.591 0.6767 0.687 0.599 0.481 0.475 0.6566 0.77132
3886.939 0.6623 0.539 0.519 0.562 0.6494 0.6807 0.663 0.708775 0.72646 0.74047
3906.229 0.8238 0.77604 0.71908 0.76597 0.697 0.70079 0.6276 0.584 0.6414 0.574
3925.519 0.6886 0.76024 0.64 0.518 0.566 0.6967 0.76747 0.8223 0.74356 0.639
3944.809 0.528 0.558 0.71976 0.677 0.511 0.6 0.70284 0.6643 0.70083 0.6807
3964.099 0.72876 0.73809 0.7212 0.73169 0.585 0.525 0.6084 0.8434 0.9506 0.76926
3983.389 0.6083 0.6288 0.76954 0.80335 0.8277 0.9171 1.0094 0.8765 0.8754 0.9225
##END=
