##TITLE=Methyl 1-methylcyclopropyl ketone
##JCAMP-DX=4.24
##DATA TYPE=INFRARED SPECTRUM
##ORIGIN=EPA-IR VAPOR PHASE LIBRARY
##OWNER=SRD/NIST
Collection (C) 2018 copyright by the U.S. Secretary of Commerce
on behalf of the United States of America. All rights reserved.
##CAS REGISTRY NO=1567-75-5
##MOLFORM=C 6 H 10 O
##$NIST SOURCE=MSDC-IR
##STATE=gas
##XUNITS=1/CM
##YUNITS=ABSORBANCE
##XFACTOR=1.
##YFACTOR=0.001
##DELTAX=1.92934
##FIRSTX=549.9
##LASTX=3999.5
##FIRSTY=8.43
##MAXX=3999.53
##MINX=549.863
##MAXY=0.18316
##MINY=0
##NPOINTS=1789
##XYDATA=(X++(Y..Y))
549.863 8.43 8.54 8.66 8.44 7.93 6.92 5.79 4.66 3.78 3.23
569.156 2.64 2.1849 1.918 1.894 1.9276 1.8998 1.9256 1.9632 1.9092 1.7683
588.450 1.7502 1.8825 1.967 2.1161 2.2543 2.41 2.59 2.71 2.84 2.87
607.743 2.65 2.53 2.5 2.43 2.46 2.45 2.48 2.54 2.64 2.72
627.037 2.89 3.18 3.43 3.68 3.95 4.15 4.29 4.52 4.59 4.62
646.330 4.62 4.6 4.53 4.38 4.14 3.81 3.63 3.44 3.12 2.72
665.624 2.2823 1.8236 1.521 1.32762 1.196 1.042 0.87 0.847 0.79 0.743
684.917 0.737 0.693 0.592 0.462 0.413 0.403 0.434 0.449 0.452 0.419
704.210 0.387 0.446 0.435 0.373 0.33 0.392 0.499 0.498 0.51 0.514
723.504 0.491 0.505 0.565 0.586 0.617 0.686 0.765 0.824 0.899 0.934
742.797 1.017 1.155 1.149 1.164 1.2496 1.38933 1.5155 1.542 1.6785 1.8138
762.091 1.7974 1.919 2.1422 2.243 2.3255 2.41 2.47 2.57 2.67 2.83
781.384 2.99 3.13 3.3 3.48 3.63 3.77 4 4.24 4.51 4.81
800.678 5.08 5.38 5.72 6.18 6.77 7.46 8.29 9.3 10.56 11.99
819.971 13.58 15.35 17.23 19.23 21.1 22.52 23.46 24.14 24.66 25.21
839.264 25.84 25.76 24.82 23.85 23.11 22.17 20.53 18.28 15.77 13.29
858.558 11.01 9.05 7.55 6.39 5.5 4.82 4.3 3.96 3.76 3.56
877.851 3.36 3.2 3.1 3.07 3.03 3.05 3.05 3.06 3.04 3.02
897.145 3.1 3.14 3.15 3.18 3.34 3.44 3.54 3.75 4 4.27
916.438 4.7 5.2 5.75 6.54 7.59 8.85 10.34 11.97 13.63 15.33
935.732 16.98 18.48 19.95 21.42 22.81 24.07 25.01 25.53 26.05 26.57
955.025 26.71 26.41 25.71 24.79 23.67 22.43 21.1 19.63 17.99 16.34
974.318 14.9 13.66 12.58 11.68 10.75 9.76 8.86 8.13 7.52 7.03
993.612 6.77 6.67 6.65 6.86 7.33 7.9 8.54 9.3 10.23 11.27
1012.905 12.32 13.22 14.08 14.87 15.61 16.39 17.1 17.55 17.6 17.37
1032.199 17.13 16.89 16.47 15.87 15.16 14.34 13.44 12.51 11.58 10.69
1051.492 9.86 9.09 8.52 8.06 7.57 7.2 6.91 6.71 6.59 6.52
1070.786 6.5 6.53 6.6 6.67 6.71 6.74 6.83 7 7.27 7.65
1090.079 8.11 8.52 8.8 8.92 9.25 9.71 10.28 11.12 12.34 13.97
1109.372 15.89 18.38 21.65 25.63 30.32 35.96 42.42 49.61 57.13 64.36
1128.666 71.04 76.89 81.62 85.31 88.06 89.73 90.57 90.61 88.84 84.56
1147.959 79.57 75.34 70.64 64.03 55.7 46.35 37.28 29.4 22.99 18.26
1167.253 15.1 12.94 11.17 9.77 8.67 7.85 7.1 6.4 5.7 5.06
1186.546 4.75 4.53 4.34 4.33 4.11 3.64 3.37 3.2 2.9 2.87
1205.840 2.94 2.81 2.67 2.45 2.35 1.9326 1.7716 2.1929 2.0604 1.8232
1225.133 1.8855 2.0726 2.2151 2.2526 2.159 2.2912 2.62 2.81 2.98 3.16
1244.426 3.45 3.62 3.87 4.23 4.46 4.78 5.28 5.71 6.03 6.53
1263.720 7.15 7.69 8.19 8.87 9.63 10.27 10.89 11.67 12.41 13.33
1283.013 14.56 15.82 17.29 19.09 21.12 23.44 25.96 28.58 31.21 33.72
1302.307 36.17 38.42 40.28 41.82 43 43.78 44.07 43.83 43.09 41.93
1321.600 40.55 38.98 37.09 34.87 32.59 30.56 29.13 28.47 28.67 29.89
1340.894 32.14 35.37 39.43 43.86 48.31 52.52 56.35 60.08 63.97 67.73
1360.187 70.16 70.73 70.8 71.36 71.65 70.72 68.43 65.01 60.78 56.17
1379.480 51.48 47.15 43.4 40.26 37.48 34.71 32.14 30.41 29.43 28.66
1398.774 27.68 26.38 25.08 23.84 22.75 21.92 21.39 21.24 21.47 22.03
1418.067 22.92 23.93 24.42 24.4 24.29 24.28 24.4 24.78 25.37 25.95
1437.361 26.29 26.19 25.77 25.33 25.1 25.07 25.11 25.31 25.58 25.9
1456.654 26.28 26.67 26.88 26.54 25.69 24.77 24 23.35 22.49 21.32
1475.948 20.21 19.17 18.1 16.92 15.58 14.15 12.75 11.38 10.09 9.01
1495.241 8.12 7.33 6.69 6.17 5.72 5.38 5.11 4.83 4.62 4.51
1514.534 4.39 4.32 4.2 4.09 4.03 4 3.98 3.95 3.97 3.94
1533.828 3.92 3.92 3.85 3.82 3.83 3.82 3.8 3.78 3.81 3.81
1553.121 3.85 3.89 3.9 3.93 3.96 3.94 3.9 3.88 3.91 3.92
1572.415 3.99 4.12 4.14 4.18 4.15 4.09 4.21 4.27 4.29 4.37
1591.708 4.42 4.43 4.48 4.54 4.59 4.66 4.73 4.83 4.93 5.04
1611.002 5.12 5.23 5.38 5.49 5.65 5.76 5.86 6.05 6.21 6.28
1630.295 6.37 6.52 6.72 6.96 7.12 7.22 7.46 7.69 7.99 8.33
1649.588 8.66 9.11 9.72 10.24 10.92 11.78 12.62 13.52 14.51 15.65
1668.882 17.13 18.75 20.69 23.11 26.13 29.6 33.91 39.09 46.06 54.64
1688.175 64.75 77.14 91.12 105.88 121.75 136.42 148.85 159.94 167.78 174.19
1707.469 179.2 182.38 183.16 183.07 182.47 179.67 173.04 162.03 146.38 128.18
1726.762 109.32 91.26 74.79 60.73 48.38 38.77 31.79 26.45 22.67 20.05
1746.056 18.34 17.19 16.35 15.49 14.49 13.35 12.12 10.99 10.04 9.28
1765.349 8.63 7.99 7.34 6.7 6.03 5.4 4.9 4.45 4.11 3.79
1784.642 3.48 3.27 3.13 3.03 2.9 2.8 2.66 2.52 2.44 2.37
1803.936 2.328 2.2796 2.2326 2.2093 2.1791 2.1204 2.1086 2.1054 2.0566 1.9915
1823.229 1.9736 1.9582 2.0168 2.071 2.0056 1.9834 2.0084 1.9892 1.9724 2.0116
1842.523 2.012 1.9793 2.0143 1.992 1.967 2.0121 2.0407 2.0696 2.0536 1.9952
1861.816 1.9872 1.9863 1.9753 1.9952 1.9948 1.9028 1.8109 1.7819 1.7283 1.6997
1881.110 1.6627 1.6299 1.608 1.5871 1.5837 1.5527 1.5255 1.4927 1.493 1.483
1900.403 1.4511 1.4678 1.4751 1.463 1.4324 1.41268 1.438 1.4603 1.4441 1.4449
1919.696 1.4734 1.4764 1.4658 1.4945 1.5278 1.5241 1.5376 1.5987 1.6218 1.6118
1938.990 1.6424 1.7041 1.8005 1.8511 1.8465 1.8275 1.8469 1.9219 1.9631 1.9847
1958.283 2.0363 2.0337 2.0213 2.0459 2.0728 2.0545 2.0237 1.9566 1.9181 1.9397
1977.577 1.8703 1.808 1.7783 1.7121 1.6576 1.617 1.5725 1.5108 1.4767 1.4339
1996.870 1.40142 1.39207 1.35745 1.32435 1.3159 1.3155 1.32785 1.35053 1.33757 1.32414
2016.164 1.32324 1.3021 1.2649 1.2632 1.2829 1.2833 1.2683 1.2413 1.2371 1.2632
2035.457 1.3062 1.36762 1.4128 1.4394 1.5294 1.6128 1.645 1.7109 1.789 1.8056
2054.750 1.8373 1.906 2.0029 2.0919 2.1436 2.1763 2.1731 2.206 2.2304 2.2518
2074.044 2.2461 2.2372 2.2438 2.2401 2.2273 2.1817 2.167 2.1754 2.1329 2.112
2093.337 2.1171 2.0712 2.0635 2.0244 1.953 1.9196 1.8909 1.9025 1.8765 1.804
2112.631 1.7781 1.744 1.7118 1.7168 1.6585 1.5854 1.589 1.5521 1.482 1.42914
2131.924 1.35296 1.2805 1.2428 1.2313 1.176 1.127 1.131 1.118 1.071 1.037
2151.218 1.015 0.991 0.972 0.928 0.874 0.865 0.837 0.782 0.778 0.769
2170.511 0.744 0.711 0.731 0.768 0.753 0.789 0.812 0.815 0.859 0.872
2189.804 0.859 0.875 0.91 0.904 0.906 0.938 0.948 0.968 0.954 0.946
2209.098 0.964 0.939 0.944 0.987 1.028 1.014 0.989 1.012 1.013 0.993
2228.391 0.999 1.002 0.978 0.957 0.942 0.91 0.878 0.881 0.876 0.858
2247.685 0.888 0.892 0.827 0.791 0.84 0.88 0.852 0.844 0.847 0.88
2266.978 0.849 0.831 0.854 0.825 0.827 0.835 0.856 0.857 0.853 0.834
2286.272 0.831 0.864 0.844 0.827 0.853 0.902 0.899 0.867 0.905 0.88
2305.565 0.885 0.942 0.915 0.901 0.928 0.927 0.937 0.972 0.968 0.909
2324.858 0.912 0.962 0.977 0.9 0.871 0.875 0.901 0.951 0.901 0.866
2344.152 0.838 0.808 0.807 0.817 0.76 0.797 0.842 0.768 0.706 0.675
2363.445 0.668 0.687 0.716 0.693 0.643 0.61 0.631 0.606 0.548 0.543
2382.739 0.566 0.562 0.547 0.527 0.478 0.489 0.517 0.511 0.523 0.483
2402.032 0.43 0.464 0.472 0.455 0.454 0.476 0.486 0.452 0.44 0.483
2421.326 0.507 0.476 0.476 0.488 0.5 0.528 0.585 0.642 0.614 0.572
2440.619 0.584 0.576 0.607 0.646 0.661 0.694 0.741 0.774 0.759 0.762
2459.912 0.789 0.857 0.923 0.912 0.92 1.004 1.055 1.01 1.007 1.109
2479.206 1.105 1.025 1.004 1.01 1.004 1.016 1.022 1.017 1.01 0.924
2498.499 0.868 0.862 0.821 0.831 0.809 0.731 0.711 0.708 0.667 0.654
2517.793 0.606 0.562 0.59 0.567 0.568 0.582 0.568 0.576 0.594 0.621
2537.086 0.621 0.592 0.582 0.563 0.579 0.6 0.601 0.624 0.61 0.575
2556.380 0.574 0.555 0.492 0.543 0.615 0.605 0.589 0.533 0.468 0.455
2575.673 0.492 0.551 0.59 0.565 0.54 0.556 0.582 0.574 0.531 0.538
2594.966 0.604 0.662 0.668 0.619 0.586 0.543 0.585 0.675 0.635 0.595
2614.260 0.58 0.555 0.553 0.572 0.589 0.613 0.604 0.547 0.522 0.568
2633.553 0.592 0.525 0.534 0.591 0.556 0.569 0.586 0.556 0.542 0.542
2652.847 0.534 0.471 0.503 0.542 0.542 0.517 0.518 0.532 0.507 0.533
2672.140 0.538 0.508 0.517 0.483 0.484 0.526 0.505 0.485 0.435 0.473
2691.434 0.469 0.452 0.513 0.501 0.467 0.5 0.517 0.462 0.44 0.477
2710.727 0.457 0.401 0.492 0.547 0.575 0.645 0.668 0.689 0.679 0.759
2730.020 0.836 0.888 1.036 1.163 1.2692 1.36525 1.4114 1.4478 1.5253 1.6211
2749.314 1.7439 1.7648 1.7792 1.8657 1.9055 1.9054 1.9418 1.9962 1.9658 1.9516
2768.607 1.9129 1.7781 1.6786 1.6598 1.5392 1.4443 1.4734 1.4673 1.37279 1.32147
2787.901 1.39234 1.4556 1.36494 1.33495 1.40037 1.4404 1.4721 1.4749 1.5561 1.6474
2807.194 1.6754 1.8388 1.9531 2.0341 2.1892 2.248 2.34 2.41 2.55 2.66
2826.488 2.8 3.01 3.2 3.47 3.66 3.86 4.12 4.3 4.44 4.68
2845.781 4.87 5.07 5.33 5.52 5.78 6.12 6.53 7.09 7.61 8.11
2865.074 8.76 9.51 10.27 11.03 11.86 12.71 13.47 14.29 15.09 15.66
2884.368 16.22 16.74 17.1 17.43 17.64 17.86 18.21 18.44 18.49 18.64
2903.661 18.91 19.15 19.45 19.88 20.37 21.1 21.87 22.62 23.52 24.47
2922.955 25.52 26.6 27.75 28.88 30.05 31.17 32.16 33.07 33.93 34.65
2942.248 35.3 36.05 36.81 37.83 39.06 40.37 42.09 43.99 46.18 48.81
2961.542 51.74 54.96 57 56.61 55.27 54.87 54.66 53.5 52.85 53.34
2980.835 52.32 48.59 44.79 42.08 39.91 38.24 36.98 36.26 36.08 36.51
3000.128 37.23 37.85 38.54 39.2 40 41.05 42.46 43.91 44.64 44.16
3019.422 42.44 40.47 38.59 36.19 33.24 30.37 27.66 25.09 22.83 20.66
3038.715 18.51 16.57 14.85 13.23 11.85 10.85 9.88 9.01 8.53 8.17
3058.009 7.86 7.63 7.52 7.68 7.96 8.33 8.89 9.7 10.85 12.15
3077.302 13.5 14.83 16.04 17.14 18.01 18.66 18.95 18.94 18.88 18.53
3096.596 17.88 17.36 16.85 16.01 14.97 13.7 12.06 10.24 8.54 7.14
3115.889 6.06 5.18 4.42 3.84 3.53 3.27 3.09 2.8 2.6 2.42
3135.182 2.1853 2.1754 2.0991 1.9596 1.9474 1.8391 1.671 1.6824 1.6849 1.6995
3154.476 1.6823 1.6463 1.5226 1.38412 1.2867 1.235 1.2781 1.224 1.261 1.38563
3173.769 1.2631 1.175 1.123 1.05 1.048 0.997 0.796 0.664 0.873 0.891
3193.063 0.578 0.378 0.42 0.52 0.523 0.462 0.32 0.352 0.36 0.27
3212.356 0.32 0.32 0.341 0.21 0.1 0.17 0.3 0.333 0.16 0.1
3231.650 0.09 0.07 0.06 0.15 0.29 0.22 0.25 0.29 0.15 0.11
3250.943 0.15 0.08 0.05 0.2 0.11 0 0.16 0.22 0.12 0.1
3270.236 0.07 0.04 0.24 0.28 0.06 0.04 0.3 0.426 0.2 0.16
3289.530 0.18 0.23 0.459 0.633 0.505 0.28 0.26 0.26 0.419 0.499
3308.823 0.449 0.502 0.475 0.477 0.459 0.565 0.582 0.469 0.35 0.28
3328.117 0.509 0.488 0.426 0.555 0.564 0.539 0.483 0.43 0.42 0.398
3347.410 0.397 0.548 0.597 0.593 0.733 0.794 0.89 1.018 0.94 1.004
3366.704 1.204 1.076 1.031 1.177 1.547 1.8263 1.6765 1.8005 2.2342 2.47
3385.997 2.55 2.79 2.93 2.96 3 3.1 3.28 3.28 3.3 3.52
3405.290 3.64 3.56 3.35 3.17 3.03 2.89 2.83 2.52 2.2427 2.1516
3424.584 1.9694 1.664 1.5203 1.4669 1.2984 1.217 1.148 1.018 0.925 0.894
3443.877 0.92 0.933 0.793 0.689 0.781 0.846 0.865 0.679 0.589 0.722
3463.171 0.484 0.36 0.547 0.554 0.567 0.506 0.402 0.45 0.515 0.473
3482.464 0.431 0.43 0.33 0.31 0.27 0.21 0.32 0.351 0.33 0.31
3501.758 0.31 0.24 0.18 0.24 0.25 0.348 0.413 0.387 0.394 0.411
3521.051 0.431 0.388 0.438 0.483 0.468 0.42 0.438 0.467 0.474 0.547
3540.344 0.45 0.22 0.19 0.336 0.371 0.32 0.3 0.404 0.498 0.499
3559.638 0.446 0.442 0.434 0.29 0.3 0.343 0.23 0.31 0.536 0.464
3578.931 0.3 0.32 0.33 0.32 0.28 0.27 0.339 0.33 0.24 0.29
3598.225 0.3 0.26 0.377 0.457 0.376 0.402 0.493 0.459 0.483 0.557
3617.518 0.561 0.448 0.467 0.489 0.438 0.502 0.507 0.512 0.466 0.32
3636.812 0.25 0.25 0.31 0.384 0.424 0.521 0.496 0.368 0.391 0.602
3656.105 0.721 0.618 0.521 0.438 0.398 0.409 0.359 0.442 0.552 0.495
3675.398 0.569 0.586 0.447 0.362 0.403 0.434 0.4 0.424 0.429 0.429
3694.692 0.482 0.569 0.618 0.634 0.563 0.454 0.481 0.442 0.32 0.32
3713.985 0.499 0.642 0.572 0.46 0.353 0.455 0.609 0.638 0.551 0.383
3733.279 0.441 0.482 0.466 0.481 0.465 0.382 0.345 0.404 0.448 0.557
3752.572 0.614 0.643 0.575 0.444 0.464 0.501 0.494 0.462 0.512 0.577
3771.866 0.504 0.478 0.542 0.502 0.524 0.498 0.421 0.535 0.606 0.658
3791.159 0.68 0.752 0.717 0.586 0.656 0.698 0.738 0.818 0.823 0.887
3810.452 0.789 0.708 0.754 0.673 0.705 0.817 0.803 0.782 0.876 1.02
3829.746 0.96 0.922 1.021 0.954 0.973 1.006 0.983 0.947 0.906 0.887
3849.039 0.892 0.956 0.98 0.983 0.932 0.902 0.951 0.988 0.965 0.951
3868.333 0.988 1.031 0.905 0.834 0.908 0.833 0.803 0.868 0.87 0.883
3887.626 0.885 0.845 0.929 0.911 0.904 0.982 1.039 1.081 0.974 0.892
3906.920 0.857 0.849 0.875 0.848 0.853 0.924 0.957 1.025 1.118 1.093
3926.213 1.016 1.018 1.145 1.2323 1.187 1.074 0.992 0.945 0.997 1.128
3945.506 1.148 1.042 1.022 1.019 0.977 1.021 1.105 1.146 1.132 1.122
3964.800 1.094 1.042 1.037 1.097 1.055 0.989 1.025 1.072 0.937 0.939
3984.093 1.07 1.035 1.057 1.008 1.043 1.151 1.109 1.142 1.161
##END=
