##TITLE=3-(2-thienyl)acrylic acid
##JCAMP-DX=4.24
##DATA TYPE=INFRARED SPECTRUM
##ORIGIN=EPA-IR VAPOR PHASE LIBRARY
##OWNER=SRD/NIST
Collection (C) 2018 copyright by the U.S. Secretary of Commerce
on behalf of the United States of America. All rights reserved.
##CAS REGISTRY NO=15690-25-2
##MOLFORM=C 7 H 6 O 2 S
##$NIST SOURCE=MSDC-IR
##STATE=gas
##XUNITS=1/CM
##YUNITS=ABSORBANCE
##XFACTOR=1.
##YFACTOR=0.001
##DELTAX=1.92898
##FIRSTX=549.8
##LASTX=4000.7
##FIRSTY=12.257
##MAXX=4000.7
##MINX=549.759
##MAXY=0.107127
##MINY=0
##NPOINTS=1790
##XYDATA=(X++(Y..Y))
549.759 12.257 12.597 12.637 12.747 13.097 13.387 13.887 14.677 16.037 17.897
569.049 20.017 22.807 25.837 28.747 30.987 31.677 31.497 30.877 28.927 25.637
588.339 21.807 17.767 14.107 11.467 9.387 7.637 6.437 5.607 5.107 4.557
607.628 3.937 3.807 3.857 3.827 3.737 3.497 3.597 3.487 3.127 3.107
626.918 3.177 3.097 3.507 3.987 3.857 3.927 4.187 4.547 4.957 5.377
646.208 5.777 6.127 6.547 6.857 6.937 6.677 6.297 5.667 4.587 3.507
665.498 2.857 2.727 2.927 3.137 3.417 3.917 4.637 5.657 7.137 8.927
684.787 10.967 13.237 15.597 17.427 18.917 20.967 24.517 29.487 31.437 27.247
704.077 22.487 20.857 19.647 17.987 15.827 13.287 11.127 9.197 7.397 5.877
723.367 4.847 4.167 3.597 3.147 2.897 2.757 2.657 2.627 2.627 2.767
742.657 2.677 2.677 2.697 2.687 2.657 2.457 2.347 2.087 1.907 1.937
761.947 1.807 1.697 1.807 1.847 1.727 1.717 1.987 2.107 1.897 1.727
781.236 1.837 1.837 1.647 1.687 1.747 1.687 1.507 1.254 1.317 1.507
800.526 1.617 1.727 1.937 2.277 2.667 3.237 3.847 4.457 4.877 5.297
819.816 6.037 6.767 7.927 8.147 6.697 6.017 6.077 5.837 5.657 5.367
839.106 4.977 4.857 5.017 5.167 5.437 6.247 7.167 7.677 7.897 8.207
858.395 8.657 8.697 8.127 7.647 7.037 6.007 5.027 4.457 4.127 3.747
877.685 3.547 3.477 3.457 3.457 3.457 3.427 3.507 3.617 3.537 3.647
896.975 3.817 3.607 3.367 3.217 2.977 2.687 2.457 2.207 2.117 2.157
916.265 2.217 2.337 2.347 2.627 2.727 2.697 2.877 3.137 3.537 3.787
935.555 4.017 4.277 4.647 5.107 5.507 5.787 5.887 6.027 6.397 6.777
954.844 7.317 7.987 8.537 9.057 9.647 10.287 10.827 11.187 11.167 10.447
974.134 9.487 8.847 8.157 7.467 6.727 5.897 5.397 4.907 4.417 3.967
993.424 3.457 2.947 2.597 2.527 2.627 2.687 2.457 2.447 2.457 2.207
1012.714 2.307 2.417 2.117 2.007 2.157 2.307 2.407 2.467 2.757 3.247
1032.003 3.817 4.487 5.557 6.557 7.217 7.827 8.117 7.937 7.727 7.687
1051.293 7.097 5.987 5.107 4.647 4.327 4.207 4.327 3.987 3.707 4.297
1070.583 4.617 5.197 5.767 5.947 6.397 6.857 7.377 7.837 8.297 9.267
1089.873 10.447 11.657 14.107 17.397 21.057 25.777 32.237 40.567 50.367 61.207
1109.163 72.407 81.807 87.717 90.187 89.927 88.377 84.487 76.247 65.327 54.777
1128.452 46.687 41.287 37.687 35.097 33.447 32.907 32.547 32.597 34.097 36.007
1147.742 37.437 38.197 37.787 37.307 36.707 35.237 32.857 29.497 25.377 21.287
1167.032 18.337 15.987 13.407 11.117 9.587 8.407 7.657 7.427 7.407 7.767
1186.322 8.067 8.397 9.427 10.247 10.877 11.417 11.507 11.497 11.567 11.427
1205.611 11.267 10.777 9.787 9.077 8.647 8.287 7.727 7.467 7.287 7.077
1224.901 7.117 7.117 7.277 7.267 7.407 7.957 8.537 9.267 9.527 9.767
1244.191 10.257 10.307 10.317 10.597 10.687 10.607 10.737 10.907 11.237 11.717
1263.481 12.157 12.607 12.947 13.257 13.417 13.737 14.047 14.067 13.907 13.647
1282.771 13.457 13.157 12.847 12.537 12.107 11.717 11.307 10.967 10.717 10.477
1302.060 10.237 9.927 9.457 8.947 8.377 7.687 7.087 6.567 6.117 5.887
1321.350 5.847 5.967 6.317 6.727 7.347 8.307 9.457 10.737 12.077 13.267
1340.640 14.067 14.597 15.137 15.577 15.787 15.857 15.967 16.297 16.897 17.687
1359.930 18.347 18.907 19.577 20.147 20.157 19.537 18.537 17.347 16.067 14.727
1379.219 13.207 11.577 9.947 8.557 7.577 7.007 6.637 6.357 6.087 5.837
1398.509 5.607 5.327 5.107 4.857 4.647 4.627 4.637 4.687 4.827 4.957
1417.799 5.037 5.077 5.107 5.027 4.827 4.567 4.277 4.067 3.847 3.467
1437.089 3.077 2.817 2.557 2.267 2.037 1.887 1.727 1.617 1.587 1.477
1456.378 1.377 1.327 1.287 1.297 1.307 1.267 1.2198 1.2082 1.1583 1.025
1475.668 0.9917 1.0346 1.0292 1.0595 1.0554 0.9966 0.9671 0.8659 0.8343 0.9081
1494.958 0.9706 1.0804 1.1587 1.2244 1.317 1.447 1.657 1.957 2.287 2.587
1514.248 2.907 3.167 3.267 3.337 3.387 3.227 2.967 2.747 2.487 2.187
1533.538 1.887 1.607 1.397 1.277 1.277 1.277 1.2246 1.1701 1.1805 1.1666
1552.827 1.2309 1.317 1.327 1.387 1.397 1.367 1.327 1.357 1.407 1.487
1572.117 1.607 1.717 1.757 1.917 2.097 2.197 2.427 2.687 2.887 3.177
1591.407 3.517 3.807 4.167 4.627 5.217 5.807 6.517 7.367 8.417 9.807
1610.697 11.437 13.477 15.987 19.217 23.037 27.237 31.837 36.647 41.107 44.717
1629.986 47.257 48.237 47.337 44.697 40.567 35.347 29.387 23.447 18.037 13.717
1649.276 10.747 8.797 7.347 6.247 5.497 4.987 4.597 4.337 4.137 3.917
1668.566 3.627 3.337 3.127 2.977 2.857 2.757 2.737 2.807 2.857 2.847
1687.856 2.927 3.097 3.257 3.497 3.937 4.367 4.787 5.337 5.847 6.507
1707.146 7.317 7.997 8.737 9.467 10.107 10.707 11.327 12.197 13.297 14.537
1726.435 16.077 18.067 20.687 24.167 28.737 34.397 41.247 49.707 59.297 69.897
1745.725 80.697 90.897 99.557 105.487 107.127 104.307 98.497 91.847 84.117 73.857
1765.015 61.637 49.747 39.837 32.617 27.327 23.347 20.387 18.257 16.857 15.957
1784.305 15.357 14.967 14.747 14.447 14.007 13.357 12.607 11.797 10.727 9.477
1803.594 8.207 7.097 6.217 5.467 4.717 4.047 3.547 3.167 2.907 2.657
1822.884 2.467 2.337 2.207 2.117 1.997 1.897 1.887 1.877 1.867 1.887
1842.174 1.897 1.857 1.827 1.827 1.807 1.797 1.727 1.647 1.547 1.507
1861.464 1.517 1.457 1.447 1.457 1.477 1.477 1.467 1.567 1.627 1.597
1880.754 1.557 1.517 1.437 1.317 1.1979 1.1567 1.1249 1.0187 0.9596 0.9636
1900.043 0.9977 0.974 0.9189 0.9634 0.9422 0.8985 0.9234 0.9034 0.8643 0.9025
1919.333 0.9315 0.9058 0.9542 0.9737 0.9024 0.9143 0.9865 0.9932 0.9652 0.9243
1938.623 0.8908 0.8945 0.8708 0.8179 0.8236 0.904 0.9358 0.9087 0.9155 0.9098
1957.913 0.9003 0.9156 0.9143 0.9143 0.9576 0.9705 0.9303 0.9239 0.9191 0.8696
1977.202 0.8614 0.7897 0.677 0.6721 0.6896 0.7269 0.6508 0.5439 0.5115 0.4942
1996.492 0.5559 0.6222 0.5464 0.4851 0.538 0.5587 0.5169 0.5226 0.5952 0.589
2015.782 0.4974 0.4805 0.518 0.5514 0.6236 0.6587 0.6639 0.6576 0.7088 0.7599
2035.072 0.7783 0.8481 0.8828 0.902 0.9091 0.9711 1.0588 1.0458 1.079 1.1245
2054.362 1.0838 1.0561 0.9851 0.9056 0.8822 0.861 0.7734 0.6626 0.6745 0.6599
2073.651 0.5724 0.5347 0.556 0.5378 0.492 0.556 0.6156 0.6348 0.6056 0.5611
2092.941 0.5594 0.5248 0.4863 0.5044 0.5075 0.4892 0.4956 0.4374 0.4114 0.4578
2112.231 0.474 0.495 0.4768 0.425 0.4741 0.5129 0.5036 0.4965 0.48 0.4708
2131.521 0.4609 0.4592 0.4357 0.4407 0.4189 0.4167 0.4597 0.4671 0.4426 0.4665
2150.810 0.507 0.4888 0.5215 0.5825 0.6166 0.6227 0.5756 0.5652 0.5631 0.5589
2170.100 0.5987 0.569 0.4829 0.3989 0.4368 0.4957 0.4443 0.45 0.5071 0.4457
2189.390 0.4122 0.4902 0.4822 0.4889 0.5635 0.581 0.5547 0.5641 0.5648 0.6242
2208.680 0.6752 0.6394 0.6509 0.6127 0.5804 0.6188 0.6109 0.5639 0.6215 0.6489
2227.970 0.5987 0.6049 0.6168 0.6348 0.6521 0.6142 0.5541 0.533 0.5579 0.6162
2247.259 0.5873 0.535 0.5621 0.5025 0.4306 0.4567 0.5261 0.5483 0.4612 0.4406
2266.549 0.4583 0.4781 0.5745 0.5551 0.4856 0.4978 0.539 0.6026 0.5815 0.5434
2285.839 0.5556 0.6512 0.7151 0.7138 0.6521 0.5615 0.5925 0.6254 0.601 0.5598
2305.129 0.5453 0.5062 0.4876 0.5111 0.5207 0.5219 0.526 0.4994 0.441 0.4379
2324.418 0.5035 0.4857 0.4812 0.493 0.4809 0.4857 0.471 0.5357 0.5332 0.4578
2343.708 0.4698 0.4945 0.4576 0.4429 0.5082 0.5462 0.4446 0.3818 0.4728 0.5292
2362.998 0.4981 0.4644 0.4706 0.4857 0.4567 0.3994 0.3926 0.4881 0.4685 0.4592
2382.288 0.5065 0.3752 0.3766 0.4347 0.33757 0.28116 0.30515 0.35237 0.3669 0.34603
2401.578 0.3863 0.4018 0.4042 0.4115 0.34692 0.3602 0.387 0.4428 0.4624 0.3734
2420.867 0.4012 0.4224 0.4062 0.4531 0.4461 0.4623 0.4904 0.5009 0.4856 0.4378
2440.157 0.4415 0.5205 0.53 0.512 0.5518 0.574 0.5856 0.6126 0.5843 0.5893
2459.447 0.6439 0.6191 0.6392 0.642 0.6653 0.7085 0.6207 0.5287 0.5962 0.6757
2478.737 0.6412 0.5953 0.5534 0.5044 0.513 0.493 0.497 0.5237 0.4486 0.4641
2498.026 0.4607 0.4662 0.5371 0.5029 0.4307 0.4676 0.5108 0.4546 0.459 0.4417
2517.316 0.4288 0.4289 0.34955 0.33639 0.3711 0.29791 0.27622 0.32964 0.3809 0.4068
2536.606 0.31668 0.33203 0.4041 0.4325 0.4671 0.3809 0.32464 0.34781 0.3634 0.4213
2555.896 0.4611 0.448 0.4529 0.4625 0.4702 0.4292 0.4115 0.4752 0.5312 0.5358
2575.186 0.5246 0.4786 0.4502 0.4403 0.3761 0.35006 0.34859 0.34058 0.30587 0.27429
2594.475 0.29946 0.2723 0.261313 0.30044 0.2773 0.28968 0.32447 0.34235 0.395 0.4399
2613.765 0.4722 0.4678 0.31289 0.2444 0.35493 0.422 0.42 0.4104 0.4247 0.4392
2633.055 0.3679 0.32311 0.3728 0.4596 0.4326 0.4008 0.4324 0.4207 0.3805 0.3604
2652.345 0.3658 0.34632 0.3468 0.3463 0.3653 0.28212 0.254 0.3956 0.4387 0.4306
2671.634 0.3732 0.337 0.3408 0.3707 0.3673 0.29581 0.264859 0.2431 0.259724 0.30244
2690.924 0.29942 0.3727 0.4596 0.44 0.4595 0.4528 0.3648 0.3673 0.4315 0.3581
2710.214 0.34356 0.4309 0.4024 0.3478 0.3822 0.33819 0.27423 0.30728 0.27824 0.263409
2729.504 0.32981 0.34696 0.3885 0.3754 0.4014 0.4292 0.3732 0.398 0.4765 0.4211
2748.794 0.32526 0.33642 0.4046 0.4079 0.30049 0.261708 0.266843 0.3965 0.4959 0.3961
2768.083 0.34554 0.32604 0.3516 0.33878 0.3225 0.4366 0.4151 0.32339 0.3659 0.3937
2787.373 0.30848 0.265257 0.281 0.2556 0.29984 0.34106 0.29765 0.27888 0.33133 0.33622
2806.663 0.32322 0.29561 0.2328 0.32759 0.3596 0.33819 0.29009 0.2291 0.31034 0.4449
2825.953 0.4736 0.4527 0.385 0.427 0.4995 0.4513 0.4438 0.4574 0.4443 0.4339
2845.242 0.438 0.4482 0.4424 0.4302 0.4576 0.4048 0.3598 0.3982 0.3893 0.33714
2864.532 0.3721 0.4037 0.3619 0.28287 0.28393 0.3643 0.3765 0.3667 0.33718 0.31118
2883.822 0.29023 0.31066 0.3816 0.3763 0.35086 0.4322 0.4759 0.3782 0.33072 0.3625
2903.112 0.32923 0.27943 0.28993 0.3688 0.4171 0.4237 0.4123 0.469 0.5536 0.5081
2922.401 0.5098 0.4547 0.4634 0.4465 0.375 0.3397 0.3061 0.31253 0.3704 0.461
2941.691 0.4147 0.4458 0.5164 0.4717 0.494 0.5117 0.445 0.3765 0.3712 0.4201
2960.981 0.396 0.3824 0.4179 0.4111 0.457 0.5335 0.5963 0.5962 0.5982 0.5354
2980.271 0.4628 0.5566 0.5845 0.555 0.6072 0.6522 0.5969 0.6429 0.7215 0.7391
2999.561 0.6943 0.6435 0.6796 0.6444 0.6232 0.6291 0.5962 0.5503 0.5784 0.6672
3018.850 0.6324 0.7032 0.6717 0.5907 0.6206 0.6796 0.6893 0.6399 0.6876 0.6171
3038.140 0.6196 0.7391 0.7939 0.7328 0.7583 0.8574 0.8699 0.8669 0.9202 1.0149
3057.430 1.0561 1.0966 1.317 1.477 1.497 1.687 1.897 1.977 2.107 2.237
3076.720 2.547 2.847 2.827 2.847 2.947 2.897 2.927 2.977 2.747 2.407
3096.009 2.097 2.007 2.037 1.807 1.467 1.397 1.1807 0.9368 0.8975 0.785
3115.299 0.7517 0.8092 0.7903 0.6234 0.5488 0.6143 0.5938 0.4458 0.31603 0.28037
3134.589 0.3867 0.5148 0.4958 0.5094 0.5546 0.5229 0.3844 0.3643 0.30575 0.2218
3153.879 0.147 0.1691 0.3964 0.374 0.35347 0.4135 0.33443 0.153 0.1883 0.27425
3173.169 0.30221 0.3586 0.32587 0.32928 0.2081 0.1589 0.30555 0.30217 0.34023 0.34612
3192.458 0.2069 0.2086 0.2083 0.2369 0.3758 0.4623 0.27524 0.1641 0.2424 0.31569
3211.748 0.2733 0.066 0.1637 0.33909 0.264302 0.1933 0.2404 0.27826 0.265696 0.2461
3231.038 0.29498 0.3992 0.3594 0.27559 0.3607 0.3742 0.31633 0.28026 0.25574 0.28862
3250.328 0.1992 0.2103 0.26094 0.2399 0.32539 0.28521 0.2019 0.1606 0.1726 0.28575
3269.617 0.4034 0.4734 0.3991 0.3631 0.3854 0.24937 0.1832 0.3675 0.3832 0.28267
3288.907 0.2256 0.1915 0.1755 0.1 0.128 0.2239 0.2092 0.146 0.155 0.169
3308.197 0.149 0.066 0.11 0.30114 0.3619 0.4196 0.34369 0.1792 0.1968 0.32228
3327.487 0.31295 0.25144 0.35135 0.30952 0.12 0.165 0.26814 0.2782 0.149 0
3346.777 0.2118 0.3838 0.26063 0.1726 0.31025 0.378 0.35071 0.35151 0.4982 0.5733
3366.066 0.4391 0.5093 0.4932 0.35504 0.3722 0.3428 0.27395 0.4247 0.5609 0.5299
3385.356 0.5475 0.3982 0.2243 0.31292 0.4236 0.4947 0.4336 0.4191 0.4839 0.3783
3404.646 0.35561 0.365 0.35308 0.3658 0.2746 0.35269 0.5039 0.4535 0.3998 0.4352
3423.936 0.492 0.5438 0.5714 0.4435 0.3684 0.3972 0.31616 0.25421 0.4 0.451
3443.225 0.4161 0.5397 0.5356 0.4607 0.5938 0.6592 0.5837 0.5635 0.6266 0.7575
3462.515 0.6067 0.5961 0.6897 0.5807 0.7203 0.8668 0.8885 0.9213 0.889 0.9906
3481.805 1.0837 1.0601 1.1384 1.267 1.337 1.337 1.277 1.297 1.287 1.357
3501.095 1.297 1.0479 0.987 0.9502 0.9694 0.8632 0.6854 0.6848 0.7114 0.6352
3520.385 0.5687 0.5972 0.4767 0.4551 0.6168 0.6538 0.5993 0.5633 0.5712 0.549
3539.674 0.5765 0.587 0.5867 0.6824 0.7143 0.7996 1.0131 1.0645 1.0908 1.267
3558.964 1.347 1.567 1.987 2.667 3.967 5.977 8.937 13.357 19.317 26.037
3578.254 31.887 35.667 37.767 38.837 38.317 35.427 30.167 23.527 17.347 12.357
3597.544 8.247 5.297 3.477 2.437 1.867 1.597 1.537 1.327 1.1012 1.0797
3616.833 0.983 0.8916 0.8674 0.8379 0.7443 0.7384 0.7538 0.6478 0.617 0.6276
3636.123 0.6056 0.5048 0.455 0.5076 0.5583 0.4763 0.3714 0.4674 0.5865 0.6073
3655.413 0.6066 0.5967 0.5713 0.5395 0.6911 0.7319 0.5684 0.5044 0.4504 0.5093
3674.703 0.735 0.8028 0.6611 0.6733 0.7126 0.5944 0.554 0.6012 0.4827 0.4061
3693.993 0.4982 0.5222 0.3773 0.4104 0.5524 0.4911 0.4757 0.5182 0.4908 0.4961
3713.282 0.42 0.4669 0.5783 0.4309 0.30182 0.30143 0.4054 0.4207 0.4743 0.474
3732.572 0.439 0.4888 0.4595 0.4605 0.28077 0.26536 0.4235 0.3626 0.2436 0.138
3751.862 0.2512 0.3727 0.31325 0.391 0.4605 0.4895 0.5675 0.5223 0.3585 0.2348
3771.152 0.30026 0.4029 0.4157 0.4218 0.4338 0.4031 0.29451 0.30959 0.369 0.4182
3790.441 0.32751 0.2233 0.3936 0.4383 0.33645 0.258586 0.28112 0.3705 0.4813 0.31558
3809.731 0.11 0.2419 0.3541 0.35258 0.32901 0.3827 0.4071 0.3838 0.5071 0.57
3829.021 0.465 0.4326 0.4605 0.4647 0.6005 0.6949 0.5189 0.4295 0.5032 0.385
3848.311 0.35224 0.4418 0.4174 0.35235 0.4208 0.4785 0.35075 0.33614 0.4246 0.5158
3867.601 0.5452 0.4018 0.2304 0.27038 0.33295 0.25058 0.28346 0.3982 0.30631 0.24753
3886.890 0.29884 0.25529 0.2162 0.30593 0.3665 0.28568 0.24715 0.29575 0.32261 0.24929
3906.180 0.29948 0.4275 0.29472 0.26042 0.3906 0.33225 0.29665 0.31165 0.4578 0.4501
3925.470 0.278 0.4717 0.5603 0.28141 0.2305 0.4446 0.4985 0.5277 0.6156 0.6162
3944.760 0.5139 0.4371 0.5613 0.5534 0.3948 0.34385 0.32756 0.3952 0.29057 0.33859
3964.049 0.5234 0.5036 0.4681 0.4375 0.42 0.4007 0.4645 0.5182 0.3257 0.1581
3983.339 0.2262 0.30442 0.27849 0.25025 0.32192 0.30093 0.2443 0.262021 0.31388 0.4081
##END=
