##TITLE=6-Methyl-5-hepten-2-ol
##JCAMP-DX=4.24
##DATA TYPE=INFRARED SPECTRUM
##ORIGIN=NIST Mass Spectrometry Data Center
##OWNER=NIST Standard Reference Data Program
Collection (C) 2018 copyright by the U.S. Secretary of Commerce
on behalf of the United States of America. All rights reserved.
##CAS REGISTRY NO=1569-60-4
##MOLFORM=C 8 H 16 O
##$NIST SOURCE=MSDC-IR
##SPECTROMETER/DATA SYSTEM=HP-GC/MS/IRD
##STATE=gas
##XUNITS=1/CM
##YUNITS=ABSORBANCE
##XFACTOR=1.0
##YFACTOR=0.000001700
##DELTAX=4.0
##FIRSTX=550.0
##LASTX=3846.0
##FIRSTY=0.000622
##MAXX=3846
##MINX=550
##MAXY=0.017
##MINY=0
##NPOINTS=825
##XYDATA=(X++(Y..Y))
550.0 366 242 138 139 145 112 48 29 15 2
590.0 24 32 58 72 45 21 64 128 159 142
630.0 114 103 85 124 113 80 135 136 83 61
670.0 70 55 69 96 82 95 107 117 108 101
710.0 120 124 123 115 115 129 162 210 223 234
750.0 247 257 255 236 219 196 202 245 295 351
790.0 412 465 516 565 620 674 754 839 943 990
830.0 948 903 880 838 790 752 737 720 664 608
870.0 579 528 490 523 569 638 740 840 896 933
910.0 956 952 951 969 999 1075 1160 1259 1330 1343
950.0 1343 1304 1240 1164 1125 1104 1092 1104 1135 1157
990.0 1156 1146 1127 1090 1077 1071 1041 1037 1046 1092
1030.0 1158 1237 1348 1497 1659 1774 1917 2031 2129 2234
1070.0 2307 2340 2421 2531 2627 2716 2817 2937 3016 3057
1110.0 3060 3010 2876 2644 2380 2131 1857 1604 1415 1300
1150.0 1247 1179 1130 1129 1144 1158 1153 1143 1121 1059
1190.0 1005 1022 1060 1070 1089 1150 1238 1304 1343 1392
1230.0 1456 1489 1531 1564 1566 1530 1463 1390 1296 1219
1270.0 1139 1051 954 885 852 824 807 829 853 879
1310.0 897 907 925 930 944 981 1004 1072 1184 1316
1350.0 1456 1612 1784 1986 2252 2570 2879 3119 3200 3092
1390.0 2815 2447 2089 1771 1506 1301 1181 1146 1148 1206
1430.0 1320 1456 1600 1706 1771 1814 1795 1698 1565 1402
1470.0 1224 1030 875 748 635 563 503 451 409 376
1510.0 349 328 320 313 300 285 280 262 253 258
1550.0 258 251 222 214 224 218 186 178 191 183
1590.0 175 166 149 148 160 139 118 127 148 167
1630.0 158 136 155 177 182 190 197 212 213 210
1670.0 210 193 171 138 120 108 85 76 75 70
1710.0 70 76 76 58 43 45 41 53 61 56
1750.0 50 44 53 58 59 64 71 65 56 52
1790.0 47 49 55 55 51 57 60 48 51 55
1830.0 49 54 56 52 57 54 42 35 40 48
1870.0 42 39 48 56 50 44 41 48 52 59
1910.0 59 46 41 40 42 43 52 55 55 52
1950.0 40 36 39 40 33 41 50 48 46 37
1990.0 33 39 37 28 26 29 25 23 23 27
2030.0 36 45 49 55 49 43 46 46 40 37
2070.0 32 25 15 2 14 33 28 27 33 27
2110.0 30 30 27 28 28 28 16 21 28 27
2150.0 30 32 34 27 32 30 27 27 22 31
2190.0 30 23 30 37 24 18 18 17 14 15
2230.0 24 14 2 14 18 20 16 6 24 33
2270.0 28 35 39 33 17 17 41 42 36 39
2310.0 41 38 36 41 42 49 46 24 21 22
2350.0 25 32 34 31 29 34 34 41 41 36
2390.0 27 25 47 63 60 51 61 69 60 54
2430.0 53 61 61 67 69 55 51 60 65 49
2470.0 54 76 68 59 54 57 62 59 50 45
2510.0 56 71 83 83 74 58 50 59 75 85
2550.0 67 60 61 55 78 101 94 93 105 101
2590.0 90 87 94 94 98 103 108 110 125 143
2630.0 146 163 176 168 166 175 172 183 178 169
2670.0 185 184 181 190 182 184 199 187 197 217
2710.0 242 260 274 304 344 378 400 426 444 430
2750.0 389 362 376 386 382 384 402 406 407 448
2790.0 500 528 546 608 676 726 800 897 994 1114
2830.0 1272 1475 1737 2065 2437 2858 3345 3873 4396 4823
2870.0 5123 5314 5403 5478 5550 5618 5727 5898 6179 6633
2910.0 7257 8021 8858 9565 9968 10000 9624 8925 8108 7344
2950.0 6757 6459 6524 6870 7378 7887 8138 7979 7412 6499
2990.0 5395 4350 3508 2876 2420 2081 1815 1635 1514 1410
3030.0 1311 1230 1138 1064 993 899 827 786 732 662
3070.0 618 581 517 472 450 432 417 376 337 316
3110.0 292 284 305 288 253 238 201 175 157 156
3150.0 161 149 132 127 142 125 102 113 126 138
3190.0 128 103 88 64 60 77 82 76 73 56
3230.0 55 53 49 60 55 46 32 28 38 35
3270.0 25 20 24 47 29 17 13 10 25 36
3310.0 48 40 46 61 34 2 19 25 48 55
3350.0 43 42 32 39 65 56 41 55 51 34
3390.0 35 35 53 69 60 65 48 57 72 50
3430.0 71 79 45 49 62 54 49 46 58 64
3470.0 64 59 35 49 60 37 58 60 22 33
3510.0 65 60 55 37 28 33 33 27 26 54
3550.0 66 63 50 39 31 68 96 95 117 133
3590.0 145 185 241 281 331 355 357 382 391 400
3630.0 426 485 572 682 777 867 881 813 704 571
3670.0 435 315 224 177 124 87 81 72 52 20
3710.0 5 18 16 26 34 6 0 23 23 17
3750.0 21 47 57 41 32 44 57 42 44 41
3790.0 50 82 65 39 46 46 51 49 48 58
3830.0 50 46 63 77 74
##END=
