##TITLE=p-Carbomethoxybenzaldehyde
##JCAMP-DX=4.24
##DATA TYPE=INFRARED SPECTRUM
##ORIGIN=EPA-IR VAPOR PHASE LIBRARY
##OWNER=SRD/NIST
Collection (C) 2018 copyright by the U.S. Secretary of Commerce
on behalf of the United States of America. All rights reserved.
##CAS REGISTRY NO=1571-08-0
##MOLFORM=C 9 H 8 O 3
##$NIST SOURCE=MSDC-IR
##STATE=gas
##XUNITS=1/CM
##YUNITS=ABSORBANCE
##XFACTOR=1.
##YFACTOR=0.001
##DELTAX=1.92898
##FIRSTX=549.8
##LASTX=4000.7
##FIRSTY=1.2252
##MAXX=4000.7
##MINX=549.759
##MAXY=0.166684
##MINY=0
##NPOINTS=1790
##XYDATA=(X++(Y..Y))
549.759 1.2252 1.2245 0.5267 0.34049 0.8304 0.915 0.4744 0.7441 1.1699 0.7644
569.049 0.7317 1.1561 0.9521 0.651 0.7539 0.8629 0.9103 0.7192 0.7542 0.8547
588.339 1.0552 1.0918 0.6863 0.7685 0.9727 0.9191 0.8481 0.7388 0.5272 0.34322
607.628 0.309 0.3038 0.33754 0.37384 0.5312 0.8676 0.7806 0.7343 1.0434 1.2162
626.918 1.2811 1.171 1.096 1.1051 1.1743 1.1706 1.1137 1.1925 1.1012 0.9589
646.208 1.0246 1.2711 1.384 1.1592 1.1862 1.2707 1.2683 1.2742 1.2522 1.554
665.498 1.894 2.314 2.944 3.534 4.394 5.354 6.034 6.374 6.644 7.064
684.787 7.314 7.314 6.974 6.424 5.654 4.874 4.194 3.664 3.304 3.024
704.077 2.744 2.344 2.034 1.514 1.3067 1.316 1.1262 1.324 1.414 1.334
723.367 1.504 1.514 1.464 1.814 2.094 2.234 2.514 2.954 3.774 4.614
742.657 5.514 6.744 8.284 9.854 11.104 12.444 13.734 14.874 16.914 18.914
761.947 17.934 15.644 14.464 13.654 12.694 11.384 10.054 8.914 7.854 7.034
781.236 6.594 6.734 7.344 7.894 9.014 11.134 13.624 16.574 19.684 22.384
800.526 24.144 24.814 24.734 23.774 21.494 18.364 15.084 12.004 9.554 7.714
819.816 6.524 5.714 5.234 5.444 5.874 6.634 8.034 9.584 11.454 13.284
839.106 14.824 15.874 16.604 16.874 16.104 14.634 13.164 11.524 9.724 8.294
858.395 7.124 6.184 5.334 4.554 4.004 3.414 2.794 2.534 2.344 1.954
877.685 1.634 1.714 1.784 1.454 1.1576 1.2616 1.434 1.2694 1.1225 1.2632
896.975 1.2315 1.2158 1.424 1.434 1.0479 0.895 1.1324 1.2397 1.2832 1.364
916.265 1.2294 1.1305 1.1201 0.996 1.1263 1.2181 1.1239 1.1174 1.0418 1.0427
935.555 1.1073 1.2041 1.2053 1.0577 1.1207 1.2972 1.374 1.514 1.884 2.234
954.844 2.534 3.034 3.544 3.894 4.264 4.634 4.934 5.044 4.834 4.534
974.134 3.874 3.164 2.934 2.744 2.314 1.784 1.644 1.854 1.774 1.604
993.424 1.574 1.634 1.714 1.854 2.074 2.454 2.804 3.644 5.484 7.894
1012.714 10.254 11.194 10.864 10.524 10.494 9.524 7.414 5.324 3.714 2.414
1032.003 2.164 2.474 2.374 2.254 2.244 2.264 2.384 2.404 2.444 2.784
1051.293 2.734 3.064 3.414 3.354 3.724 3.894 3.934 4.514 5.284 5.794
1070.583 6.524 8.014 9.594 11.344 13.134 15.054 17.784 20.614 23.064 25.784
1089.873 29.284 33.024 36.914 41.604 46.934 51.614 54.434 56.714 58.204 59.184
1109.163 59.924 58.674 55.034 49.964 45.344 41.204 36.384 30.844 26.114 22.054
1128.452 18.224 15.364 13.774 12.394 11.174 10.344 9.514 8.814 8.004 7.364
1147.742 6.974 6.164 6.054 6.534 6.114 5.994 6.194 6.154 6.144 6.284
1167.032 6.844 7.454 7.884 8.434 9.464 10.534 11.784 14.074 17.194 20.864
1186.322 25.274 30.504 36.344 41.904 45.024 45.804 45.094 42.294 37.814 31.184
1205.611 23.224 16.134 11.724 9.324 8.174 7.604 7.214 6.944 6.744 7.324
1224.901 7.654 8.164 9.154 10.314 11.534 12.954 14.544 16.064 17.984 19.714
1244.191 21.534 23.924 26.354 29.574 33.754 38.564 44.624 52.684 63.124 76.444
1263.481 92.424 110.124 128.344 144.714 157.394 165.164 166.684 161.584 150.204 133.324
1282.771 113.364 93.744 76.824 63.814 54.424 47.504 42.024 37.254 32.714 28.354
1302.060 24.274 20.784 18.134 16.244 14.824 13.804 13.024 12.384 11.984 11.504
1321.350 10.954 10.434 9.764 8.954 8.124 7.294 6.524 5.854 5.364 5.064
1340.640 4.724 4.384 4.294 4.384 4.534 4.694 4.884 5.174 5.504 5.794
1359.930 6.094 6.414 6.724 7.014 7.344 7.734 8.294 9.014 9.654 10.174
1379.219 10.344 10.304 10.124 9.744 9.104 8.134 7.084 6.294 5.784 5.504
1398.509 5.364 5.324 5.384 5.494 5.694 5.974 6.284 6.554 6.864 7.084
1417.799 7.094 7.094 7.274 7.434 7.664 8.314 9.554 11.424 13.784 16.114
1437.089 17.644 18.294 18.334 17.784 16.234 13.424 10.374 8.174 6.784 5.904
1456.378 5.344 4.914 4.504 4.144 3.934 3.734 3.584 3.454 3.374 3.264
1475.668 3.054 2.884 2.814 2.744 2.684 2.764 2.864 3.024 3.474 4.024
1494.958 4.644 5.394 6.034 6.404 6.484 6.424 6.224 5.774 5.034 4.114
1514.248 3.334 2.854 2.534 2.444 2.364 2.184 2.144 2.074 1.994 2.064
1533.538 1.984 1.894 1.984 1.994 2.064 2.154 2.144 2.254 2.294 2.374
1552.827 2.594 2.854 3.044 3.234 3.554 3.934 4.324 4.774 5.374 5.934
1572.117 6.284 6.544 6.634 6.404 6.114 5.774 5.124 4.334 3.724 3.284
1591.407 3.044 3.064 3.084 3.144 3.294 3.314 3.364 3.504 3.604 3.604
1610.697 3.624 3.564 3.384 3.164 2.884 2.794 2.774 2.664 2.564 2.554
1629.986 2.584 2.634 2.804 2.984 3.134 3.244 3.374 3.444 3.484 3.454
1649.276 3.424 3.474 3.394 3.194 3.094 3.084 3.114 3.234 3.354 3.524
1668.566 3.764 4.134 4.544 4.974 5.534 6.054 6.664 7.254 7.744 8.234
1687.856 8.744 9.314 9.864 10.454 11.304 12.504 13.944 15.564 17.484 20.274
1707.146 23.844 28.784 36.094 46.784 62.114 81.444 101.524 115.084 120.334 121.914
1726.435 123.404 121.194 108.944 91.494 77.504 71.674 72.674 77.544 83.224 86.744
1745.725 86.664 85.344 85.234 84.444 78.734 67.804 55.144 44.374 35.624 28.544
1765.015 22.884 18.244 14.594 12.004 10.014 8.594 7.644 7.024 6.664 6.484
1784.305 6.364 6.234 6.144 6.074 5.944 5.804 5.644 5.344 4.984 4.684
1803.594 4.434 4.184 3.904 3.724 3.544 3.294 3.164 3.064 2.924 2.764
1822.884 2.574 2.414 2.334 2.174 2.064 1.994 1.944 1.904 1.754 1.684
1842.174 1.734 1.754 1.744 1.714 1.644 1.564 1.494 1.444 1.394 1.3112
1861.464 1.2523 1.2754 1.2348 1.1143 1.1036 1.13 1.1729 1.1992 1.1754 1.1027
1880.754 1.0146 1.0326 1.05 1.0035 1.0415 1.1172 1.0898 1.0915 1.1901 1.2814
1900.043 1.2257 1.231 1.374 1.414 1.474 1.624 1.764 1.824 1.804 1.854
1919.333 1.954 2.044 2.104 2.164 2.184 2.154 2.174 2.204 2.214 2.214
1938.623 2.134 1.984 1.864 1.754 1.704 1.644 1.494 1.434 1.354 1.2689
1957.913 1.2593 1.2476 1.2908 1.2583 1.165 1.1578 1.0945 1.0357 1.0788 1.1295
1977.202 1.1696 1.1214 0.9876 0.9169 0.9543 0.9037 0.9685 1.0806 0.9575 0.8918
1996.492 1.0365 1.1549 1.1053 1.1267 1.1792 1.1137 1.004 0.949 0.9177 0.9298
2015.782 0.9598 0.9243 0.9291 0.8561 0.7857 0.8252 0.9099 1.1114 1.1551 1.0986
2035.072 1.2131 1.2854 1.2643 1.2356 1.2395 1.1961 1.2329 1.2858 1.1911 1.2116
2054.362 1.3056 1.2394 1.1796 1.3047 1.424 1.444 1.434 1.474 1.484 1.404
2073.651 1.444 1.484 1.484 1.554 1.594 1.504 1.384 1.334 1.2393 1.0969
2092.941 0.9826 1.0571 1.1016 0.9479 0.8208 0.8489 0.8604 0.8607 0.8882 0.8898
2112.231 0.897 0.9595 0.8896 0.8247 0.8394 0.77 0.7283 0.7425 0.7239 0.69
2131.521 0.7263 0.7404 0.7206 0.7015 0.6335 0.6012 0.5244 0.4333 0.4812 0.4814
2150.810 0.5398 0.607 0.521 0.4914 0.5049 0.4959 0.5564 0.5669 0.5204 0.5327
2170.100 0.5464 0.5371 0.4918 0.5258 0.5753 0.5656 0.5725 0.5996 0.5789 0.489
2189.390 0.5377 0.5728 0.5809 0.6031 0.4496 0.325907 0.39804 0.4445 0.4714 0.4736
2208.680 0.39543 0.4535 0.5078 0.5395 0.5095 0.5004 0.5538 0.5563 0.6106 0.6048
2227.970 0.5523 0.4674 0.4731 0.5099 0.5465 0.6333 0.6528 0.6043 0.6243 0.6773
2247.259 0.6887 0.6775 0.5945 0.5998 0.5689 0.5094 0.5256 0.5545 0.7029 0.7984
2266.549 0.733 0.6526 0.583 0.5849 0.5883 0.6127 0.606 0.625 0.7178 0.7175
2285.839 0.6496 0.5668 0.589 0.5861 0.5403 0.5554 0.5848 0.6052 0.6117 0.6399
2305.129 0.5806 0.5697 0.56 0.4679 0.4457 0.4395 0.5567 0.6096 0.5775 0.6376
2324.418 0.583 0.5319 0.546 0.5248 0.5328 0.6589 0.7615 0.6597 0.5669 0.5489
2343.708 0.5619 0.7112 0.6955 0.5777 0.6444 0.687 0.7505 0.7273 0.7574 0.8632
2362.998 0.8679 0.8547 0.8297 0.7669 0.7196 0.7213 0.7418 0.7851 0.8213 0.8141
2382.288 0.7106 0.7165 0.7537 0.7758 0.7906 0.8723 0.8286 0.6954 0.7884 0.7439
2401.578 0.6544 0.6648 0.6511 0.6255 0.5464 0.5265 0.5774 0.5282 0.37713 0.36302
2420.867 0.40522 0.37199 0.4627 0.6115 0.5942 0.4855 0.4508 0.4311 0.5111 0.5013
2440.157 0.41663 0.4384 0.452 0.4805 0.4955 0.5302 0.5504 0.4922 0.4809 0.40903
2459.447 0.36134 0.4485 0.4803 0.5165 0.5633 0.6198 0.5899 0.482 0.4674 0.5521
2478.737 0.5823 0.4998 0.5493 0.5934 0.461 0.4316 0.5244 0.5416 0.5942 0.5884
2498.026 0.5029 0.5169 0.5859 0.5619 0.4476 0.4407 0.5556 0.621 0.5897 0.5415
2517.316 0.5367 0.5377 0.4647 0.41454 0.4954 0.6684 0.6035 0.5227 0.6489 0.6551
2536.606 0.6177 0.7236 0.7836 0.7927 0.8291 0.7161 0.6268 0.6755 0.6314 0.6465
2555.896 0.733 0.7871 0.7685 0.7516 0.75 0.6618 0.6015 0.6162 0.6812 0.7192
2575.186 0.8288 0.8247 0.7351 0.7856 0.8103 0.7424 0.7423 0.709 0.6757 0.745
2594.475 0.7359 0.7305 0.7256 0.8161 0.9279 0.849 0.7892 0.7418 0.7766 0.8634
2613.765 0.8098 0.7628 0.7529 0.6323 0.6519 0.7355 0.6619 0.7365 0.818 0.795
2633.055 0.7937 0.7069 0.6506 0.7606 0.8506 0.8231 0.8311 0.8979 0.9629 1.0306
2652.345 0.9784 0.9169 1.0594 1.1107 1.0818 1.1899 1.2894 1.404 1.544 1.674
2671.634 1.824 1.894 1.884 1.874 1.964 2.174 2.324 2.294 2.304 2.484
2690.924 2.714 2.834 3.004 3.314 3.554 3.754 4.174 4.804 5.384 5.974
2710.214 6.674 7.594 8.504 9.374 10.484 11.524 12.304 12.804 12.744 12.414
2729.504 12.004 11.334 10.334 9.154 8.114 7.224 6.414 5.714 5.264 4.984
2748.794 4.644 4.414 4.204 4.014 3.954 3.974 4.044 4.164 4.344 4.584
2768.083 4.834 5.054 5.284 5.524 5.664 5.824 6.014 6.234 6.374 6.484
2787.373 6.694 6.854 7.044 7.374 7.744 7.974 8.364 9.074 9.734 10.334
2806.663 11.154 11.974 12.694 13.254 13.594 13.824 13.684 13.354 13.024 12.304
2825.953 11.454 10.764 9.884 8.954 8.224 7.554 6.974 6.454 5.954 5.774
2845.242 5.734 5.454 5.314 5.274 5.104 4.894 4.514 3.834 3.294 3.024
2864.532 2.814 2.634 2.274 2.174 2.274 2.194 2.074 2.064 2.144 2.214
2883.822 2.274 2.334 2.424 2.404 2.484 2.624 2.594 2.674 2.834 2.944
2903.112 2.864 2.824 2.914 3.024 3.144 3.174 3.114 3.024 3.164 3.244
2922.401 3.154 3.134 2.984 2.954 3.054 3.024 2.994 3.044 3.174 3.344
2941.691 3.604 3.944 4.444 5.104 6.094 7.534 9.374 11.784 14.354 16.244
2960.981 16.884 16.674 16.174 15.274 13.354 10.424 7.734 6.094 4.914 4.024
2980.271 3.614 3.504 3.374 3.274 3.354 3.444 3.514 3.564 3.654 3.804
2999.561 3.974 4.134 4.194 4.304 4.454 4.484 4.484 4.384 4.194 4.114
3018.850 4.154 4.074 3.974 4.074 4.114 3.954 4.064 4.244 4.164 4.194
3038.140 4.214 3.984 3.804 3.594 3.434 3.444 3.244 2.864 2.604 2.554
3057.430 2.474 2.304 2.204 2.124 2.114 1.994 1.764 1.644 1.704 1.754
3076.720 1.734 1.804 1.754 1.744 2.184 2.234 1.974 1.854 1.974 2.264
3096.009 2.274 2.274 2.124 1.914 1.874 1.874 1.754 1.594 1.564 1.354
3115.299 1.2008 1.2485 1.2275 1.2648 1.2431 1.1269 1.0406 0.8421 0.6677 0.7472
3134.589 0.8062 0.7129 0.7729 0.7035 0.5173 0.6503 0.6418 0.5067 0.5539 0.4789
3153.879 0.3692 0.5331 0.6988 0.4678 0.4521 0.7443 0.7349 0.6709 0.5974 0.5973
3173.169 0.6726 0.5959 0.5116 0.5056 0.4648 0.3604 0.37667 0.2949 0.35066 0.5583
3192.458 0.5245 0.2603 0.174 0.4981 0.6159 0.471 0.5041 0.4775 0.2515 0.3006
3211.748 0.31847 0.2384 0.31968 0.2779 0.2314 0.2737 0.21 0.2681 0.36505 0.162
3231.038 0.2709 0.4819 0.3588 0.2647 0.2679 0.3105 0.36926 0.5398 0.6592 0.5103
3250.328 0.4733 0.506 0.36191 0.323924 0.34685 0.31552 0.41728 0.36381 0.2846 0.37547
3269.617 0.41799 0.40326 0.4556 0.5753 0.4304 0.2722 0.2854 0.39929 0.2532 0.148
3288.907 0.282 0.3042 0.39148 0.34888 0.2415 0.2608 0.36395 0.4504 0.4931 0.5691
3308.197 0.5864 0.4464 0.34152 0.182 0.141 0.34189 0.4835 0.5226 0.5369 0.5539
3327.487 0.41833 0.2942 0.36675 0.36732 0.38517 0.33665 0.2982 0.4683 0.2614 0.16
3346.777 0.39303 0.4817 0.5288 0.6288 0.6705 0.7617 0.6903 0.41167 0.41572 0.5402
3366.066 0.42357 0.4378 0.4351 0.333167 0.4454 0.5541 0.4881 0.4457 0.4853 0.427
3385.356 0.38287 0.5703 0.6941 0.5359 0.5954 0.65 0.5387 0.5585 0.8469 0.9234
3404.646 0.8228 0.8693 0.9893 1.2695 1.334 1.2382 1.3019 1.2671 1.424 1.714
3423.936 1.754 1.804 1.744 1.474 1.634 1.614 1.1309 1.13 1.1558 0.9895
3443.225 1.0037 0.9739 0.8783 0.8871 0.92 0.89 0.8787 0.8334 0.7804 0.8047
3462.515 0.9008 1.03 1.0659 1.152 1.2468 1.374 1.574 1.464 1.2864 1.2374
3481.805 1.1468 1.2062 1.1413 1.0016 0.9467 0.8791 0.8918 0.9313 0.8489 0.6075
3501.095 0.38758 0.4762 0.6236 0.5968 0.5609 0.4963 0.42241 0.2708 0.23 0.3116
3520.385 0.38831 0.39278 0.37284 0.37044 0.4243 0.4529 0.41843 0.4587 0.38648 0.35715
3539.674 0.4097 0.5013 0.4411 0.2461 0.224 0.34607 0.4686 0.4311 0.4427 0.4648
3558.964 0.40618 0.2973 0.176 0.109 0.185 0.36364 0.3519 0.4427 0.5122 0.3616
3578.254 0.219 0.256 0.3041 0.198 0.1 0.108 0.177 0.39905 0.5486 0.2716
3597.544 0.123 0.38973 0.5134 0.5124 0.4361 0.37695 0.38551 0.2435 0.2318 0.2896
3616.833 0.3072 0.38469 0.4681 0.31582 0.137 0.103 0.07 0.065 0.38109 0.4404
3636.123 0.2966 0.3078 0.36852 0.2741 0.116 0.34347 0.5705 0.2907 0.123 0.212
3655.413 0.111 0.064 0.131 0.216 0.39249 0.219 0.143 0.36472 0.36872 0.34035
3674.703 0.31829 0.2509 0.327005 0.6221 0.6787 0.4763 0.34248 0.40299 0.36172 0.36382
3693.993 0.279 0.3046 0.4338 0.2968 0.31732 0.2788 0.185 0.37336 0.331569 0.36479
3713.282 0.41988 0.13 0.177 0.328315 0.2786 0.36995 0.40815 0.31471 0.26 0.41691
3732.572 0.4682 0.311 0.4449 0.5214 0.4649 0.2649 0.2625 0.2754 0.064 0.2932
3751.862 0.38355 0.2778 0.3053 0.35082 0.4695 0.5333 0.4629 0.4029 0.2579 0.2361
3771.152 0.36355 0.31578 0.3189 0.19 0.126 0.267 0.191 0.2305 0.38473 0.36608
3790.441 0.2872 0.2628 0.35156 0.4749 0.5568 0.4969 0.4544 0.4322 0.31804 0.39962
3809.731 0.39095 0.128 0.135 0.2412 0.15 0.36319 0.5082 0.2818 0.22 0.37329
3829.021 0.4265 0.39953 0.4312 0.33739 0.172 0.3026 0.37998 0.2558 0.196 0.112
3848.311 0.039 0 0.2312 0.2849 0.057 0.125 0.18 0.124 0.144 0.2657
3867.601 0.35777 0.39414 0.2907 0.2745 0.3038 0.07 0.044 0.182 0.2439 0.2459
3886.890 0.152 0.128 0.2427 0.31911 0.326554 0.34228 0.37866 0.5122 0.4721 0.31623
3906.180 0.4464 0.31724 0.216 0.253 0.075 0.2812 0.4491 0.3101 0.2832 0.33515
3925.470 0.328052 0.36762 0.6657 0.869 0.6263 0.39155 0.4786 0.5073 0.39036 0.37505
3944.760 0.2885 0.262 0.39913 0.2389 0.205 0.38765 0.37779 0.45 0.33945 0.202
3964.049 0.2427 0.213 0.2324 0.2555 0.41559 0.4484 0.4069 0.4517 0.40715 0.34283
3983.339 0.33778 0.2 0.171 0.2388 0.281 0.4383 0.36258 0.2262 0.215 0.3585
##END=
