##TITLE=3-Methyl-4-heptanone
##JCAMP-DX=4.24
##DATA TYPE=INFRARED SPECTRUM
##ORIGIN=NIST Mass Spectrometry Data Center
##OWNER=NIST Standard Reference Data Program
Collection (C) 2018 copyright by the U.S. Secretary of Commerce
on behalf of the United States of America. All rights reserved.
##CAS REGISTRY NO=15726-15-5
##MOLFORM=C 8 H 16 O
##$NIST SOURCE=MSDC-IR
##SPECTROMETER/DATA SYSTEM=HP-GC/MS/IRD
##STATE=gas
##XUNITS=1/CM
##YUNITS=ABSORBANCE
##XFACTOR=1.0
##YFACTOR=0.000000700
##DELTAX=4.0
##FIRSTX=550.0
##LASTX=3846.0
##FIRSTY=0.000390
##MAXX=3846
##MINX=550
##MAXY=0.007
##MINY=0
##NPOINTS=825
##XYDATA=(X++(Y..Y))
550.0 557 395 241 221 300 236 108 183 231 133
590.0 131 143 175 206 194 168 184 178 115 125
630.0 85 0 79 155 156 76 48 163 134 74
670.0 121 155 155 159 127 93 133 108 124 169
710.0 121 142 164 146 194 215 236 244 220 252
750.0 254 241 238 294 338 297 314 376 414 413
790.0 372 434 455 459 425 385 337 229 56 56
830.0 246 302 300 263 210 208 194 149 145 160
870.0 188 241 291 333 404 457 437 426 405 391
910.0 357 263 203 180 156 161 167 170 187 224
950.0 278 317 357 384 377 435 518 613 762 896
990.0 1016 1110 1195 1277 1293 1282 1242 1238 1227 1207
1030.0 1176 1144 1061 1002 959 879 811 726 654 620
1070.0 603 617 647 650 669 747 794 849 921 963
1110.0 1069 1212 1232 1164 1081 1001 886 775 761 724
1150.0 701 773 875 953 1000 1044 1038 968 895 825
1190.0 735 629 560 507 472 455 454 467 470 475
1230.0 450 429 474 522 529 540 597 701 781 792
1270.0 811 847 830 823 833 828 804 771 729 683
1310.0 639 611 619 626 657 731 837 940 1095 1270
1350.0 1433 1572 1668 1709 1708 1693 1650 1615 1579 1470
1390.0 1332 1170 1017 929 859 816 771 753 769 778
1430.0 815 843 942 1116 1308 1547 1759 1937 2053 2004
1470.0 1802 1517 1248 987 737 565 469 394 325 236
1510.0 205 209 174 142 140 149 140 84 78 122
1550.0 137 127 75 100 149 150 128 122 174 190
1590.0 167 170 185 175 165 158 150 163 172 165
1630.0 180 179 212 239 225 200 209 282 331 371
1670.0 421 504 647 745 894 1162 1487 1925 2594 3475
1710.0 4437 5310 5992 6300 5998 5127 3981 2920 2031 1353
1750.0 917 671 537 431 354 296 254 228 188 166
1790.0 173 149 130 129 162 167 134 127 134 126
1830.0 99 98 97 88 89 93 100 102 86 69
1870.0 71 88 82 69 71 70 63 52 60 76
1910.0 60 64 68 60 73 76 65 54 50 52
1950.0 53 51 37 36 45 46 41 17 11 30
1990.0 43 61 61 52 47 32 30 47 41 26
2030.0 29 36 43 53 62 47 56 64 72 84
2070.0 78 60 48 42 33 11 12 49 59 25
2110.0 16 43 59 34 23 37 54 53 44 52
2150.0 39 33 34 23 24 31 33 33 32 34
2190.0 38 14 12 41 45 36 27 15 9 22
2230.0 35 41 31 23 32 53 56 34 36 47
2270.0 61 53 35 34 27 23 30 38 30 24
2310.0 32 31 14 15 26 19 21 34 21 7
2350.0 21 37 26 12 7 9 16 15 10 18
2390.0 43 54 47 30 41 61 67 85 80 47
2430.0 31 37 66 78 67 78 73 47 31 49
2470.0 58 32 32 40 19 16 21 25 44 32
2510.0 9 13 24 31 25 27 43 49 52 37
2550.0 14 21 38 56 54 32 19 21 25 44
2590.0 59 56 70 74 61 68 61 34 35 67
2630.0 78 43 34 58 61 44 42 53 56 50
2670.0 74 103 96 86 98 97 71 86 113 129
2710.0 111 66 79 103 95 102 122 162 183 188
2750.0 202 190 196 214 197 184 189 205 221 242
2790.0 273 275 290 322 362 387 412 445 454 476
2830.0 547 626 676 735 810 930 1141 1384 1707 2103
2870.0 2556 3092 3623 4044 4320 4390 4340 4192 3995 3915
2910.0 3952 4076 4322 4709 5200 5712 6166 6514 6662 6650
2950.0 6635 6753 7202 8039 9097 9908 10000 9353 8043 6401
2990.0 4831 3583 2670 2046 1621 1307 1048 869 748 653
3030.0 600 545 492 469 457 438 415 404 386 352
3070.0 286 261 260 284 289 250 258 240 236 249
3110.0 211 205 220 200 186 196 204 208 194 180
3150.0 194 167 133 130 152 148 116 122 162 173
3190.0 149 128 111 101 110 98 98 85 92 118
3230.0 115 79 44 85 104 83 78 86 88 96
3270.0 90 61 50 47 27 17 34 56 58 68
3310.0 71 67 116 107 81 72 41 46 55 63
3350.0 73 109 107 69 59 87 115 72 75 149
3390.0 179 140 118 149 167 136 131 145 164 205
3430.0 234 214 173 141 117 116 139 124 101 151
3470.0 192 164 129 77 30 55 102 99 83 96
3510.0 75 77 123 69 40 75 92 105 98 58
3550.0 57 89 94 58 15 75 101 79 84 90
3590.0 108 95 78 132 139 106 80 45 83 65
3630.0 31 72 78 136 127 78 86 104 146 143
3670.0 89 50 70 80 32 7 50 95 97 84
3710.0 91 124 137 116 116 54 7 44 56 19
3750.0 7 63 92 124 132 121 136 98 74 67
3790.0 112 125 85 87 114 153 101 16 26 131
3830.0 172 131 81 82 79
##END=
