##TITLE=9-Benzylfluorene
##JCAMP-DX=4.24
##DATA TYPE=INFRARED SPECTRUM
##ORIGIN=NIST Mass Spectrometry Data Center
##OWNER=NIST Standard Reference Data Program
Collection (C) 2018 copyright by the U.S. Secretary of Commerce
on behalf of the United States of America. All rights reserved.
##CAS REGISTRY NO=1572-46-9
##MOLFORM=C 20 H 16
##$NIST SOURCE=MSDC-IR
##SPECTROMETER/DATA SYSTEM=HP-GC/MS/IRD
##STATE=gas
##XUNITS=1/CM
##YUNITS=ABSORBANCE
##XFACTOR=1.0
##YFACTOR=0.000001400
##DELTAX=4.0
##FIRSTX=550.0
##LASTX=3846.0
##FIRSTY=0.000525
##MAXX=3846
##MINX=550
##MAXY=0.014
##MINY=0
##NPOINTS=825
##XYDATA=(X++(Y..Y))
550.0 375 503 822 1162 1086 753 444 383 498 569
590.0 577 491 340 185 104 110 311 616 716 555
630.0 286 116 83 97 164 205 248 364 534 652
670.0 693 743 803 914 1328 2316 3487 3916 3280 2313
710.0 1837 1958 2429 3332 5168 8024 10000 9192 7286 6219
750.0 6001 5220 3599 2274 1470 1003 728 563 467 405
790.0 292 176 123 84 66 33 36 37 32 52
830.0 29 24 33 33 39 63 77 97 129 144
870.0 135 111 88 69 69 68 69 106 151 183
910.0 173 113 53 55 110 201 292 291 214 193
950.0 230 218 166 113 79 79 102 119 124 139
990.0 148 181 274 396 482 494 480 523 652 808
1030.0 818 627 340 145 76 64 69 85 132 212
1070.0 288 304 248 174 126 128 185 226 222 185
1110.0 113 44 18 5 0 19 9 16 79 179
1150.0 272 318 333 344 362 327 260 226 226 225
1190.0 203 206 232 212 166 141 130 122 133 165
1230.0 175 161 138 108 78 70 80 101 114 150
1270.0 212 238 252 298 344 395 440 455 433 386
1310.0 363 386 421 423 387 344 308 268 228 191
1350.0 139 92 65 52 61 68 74 73 84 86
1390.0 92 100 97 129 170 214 270 313 383 495
1430.0 687 1048 1750 2755 3722 4101 3542 2353 1319 877
1470.0 863 1014 1101 1014 925 1138 1435 1355 898 427
1510.0 228 184 125 90 101 111 99 53 23 38
1550.0 59 59 57 121 193 255 369 526 648 693
1590.0 756 878 1015 1066 966 740 486 306 217 162
1630.0 131 113 114 110 89 74 84 131 168 186
1670.0 178 143 99 68 73 101 95 89 109 149
1710.0 155 120 104 119 122 97 81 91 107 108
1750.0 94 89 88 86 83 104 161 228 285 326
1790.0 354 360 323 269 234 224 236 239 218 208
1830.0 208 197 178 158 152 159 179 222 275 308
1870.0 301 256 215 203 204 235 315 411 439 370
1910.0 263 183 162 203 290 428 577 621 530 392
1950.0 286 220 161 104 70 61 61 61 56 52
1990.0 45 38 39 42 33 25 26 28 36 38
2030.0 39 35 31 39 43 32 20 25 26 26
2070.0 28 30 37 32 24 29 33 34 31 29
2110.0 37 37 34 32 32 34 27 24 35 40
2150.0 39 41 43 46 44 34 34 36 30 33
2190.0 39 44 50 57 56 50 47 44 42 43
2230.0 48 46 44 48 56 62 60 62 58 55
2270.0 53 50 56 49 40 44 58 73 87 101
2310.0 107 99 94 87 68 54 47 44 49 51
2350.0 32 15 14 17 22 26 29 39 49 44
2390.0 46 45 42 52 57 61 60 50 56 58
2430.0 54 64 73 68 60 61 75 78 64 52
2470.0 55 64 69 73 74 67 67 72 66 66
2510.0 61 56 53 52 61 63 56 56 64 66
2550.0 68 67 65 64 59 55 67 73 70 64
2590.0 60 69 88 93 89 98 94 88 97 88
2630.0 86 87 84 82 80 74 64 64 69 64
2670.0 59 52 42 41 43 45 51 48 42 49
2710.0 47 43 44 29 27 40 46 46 42 47
2750.0 59 62 66 79 81 77 89 103 113 107
2790.0 100 102 107 113 105 93 90 92 123 149
2830.0 158 182 209 256 358 496 621 671 644 577
2870.0 530 554 657 795 922 994 961 862 809 839
2910.0 1011 1283 1551 1777 1932 1960 1891 1752 1484 1115
2950.0 766 530 406 324 272 259 261 261 286 319
2990.0 346 428 564 765 1065 1449 1936 2538 3142 3676
3030.0 4095 4230 4032 3666 3357 3236 3426 4117 5412 6918
3070.0 7636 6906 5291 3915 3149 2620 2083 1549 1149 877
3110.0 678 523 390 320 266 219 206 203 194 205
3150.0 226 234 236 236 207 169 141 116 109 105
3190.0 98 88 83 79 78 67 77 82 78 84
3230.0 71 73 79 70 55 58 66 48 38 49
3270.0 52 53 62 60 58 54 52 61 65 66
3310.0 79 79 68 63 61 68 62 48 48 68
3350.0 60 51 65 59 51 47 48 49 53 61
3390.0 55 48 34 32 54 65 47 40 34 39
3430.0 46 46 55 60 56 51 60 68 70 64
3470.0 57 67 51 45 54 48 37 34 44 47
3510.0 46 67 76 43 39 65 61 58 49 27
3550.0 42 51 55 43 20 37 66 68 67 53
3590.0 40 44 52 69 66 49 46 37 59 55
3630.0 24 50 67 72 68 68 99 105 83 60
3670.0 49 50 58 73 71 83 93 84 90 89
3710.0 66 78 82 57 55 54 27 38 51 43
3750.0 44 53 67 72 68 73 92 92 102 115
3790.0 107 98 93 97 84 74 76 76 85 92
3830.0 100 83 63 75 87
##END=
