##TITLE=1-Chloro-5-phenylpentane
##JCAMP-DX=4.24
##DATA TYPE=INFRARED SPECTRUM
##ORIGIN=EPA-IR VAPOR PHASE LIBRARY
##OWNER=SRD/NIST
Collection (C) 2018 copyright by the U.S. Secretary of Commerce
on behalf of the United States of America. All rights reserved.
##CAS REGISTRY NO=15733-63-8
##MOLFORM=C 11 H 15 Cl
##$NIST SOURCE=MSDC-IR
##STATE=gas
##XUNITS=1/CM
##YUNITS=ABSORBANCE
##XFACTOR=1.
##YFACTOR=0.001
##DELTAX=1.92898
##FIRSTX=549.8
##LASTX=4000.7
##FIRSTY=2.129
##MAXX=4000.7
##MINX=549.759
##MAXY=0.197189
##MINY=0
##NPOINTS=1790
##XYDATA=(X++(Y..Y))
549.759 2.129 2.679 3.179 4.309 4.939 4.809 5.419 6.229 6.729 6.839
569.049 6.909 6.949 6.509 6.039 5.459 5.229 5.079 4.759 5.019 4.989
588.339 4.769 4.359 4.129 4.269 3.899 3.339 3.249 3.349 3.039 2.729
607.628 2.629 2.519 2.619 2.929 2.939 2.989 2.889 2.899 3.519 3.969
626.918 4.199 4.269 4.939 5.859 6.139 6.959 8.219 9.059 9.669 10.759
646.208 12.649 14.519 16.279 18.079 20.259 22.689 24.719 26.409 27.319 27.589
665.498 27.519 26.999 26.519 26.329 26.359 26.909 28.259 30.529 33.619 37.259
684.787 41.889 48.099 55.689 64.799 73.839 80.609 84.949 86.099 83.979 79.199
704.077 72.709 66.189 61.089 57.189 54.179 52.499 52.169 52.879 54.159 56.259
723.367 59.589 63.649 68.459 73.919 79.309 84.739 90.539 95.409 97.629 97.389
742.657 95.029 89.829 82.059 73.199 63.399 53.999 45.989 39.499 34.179 29.859
761.947 26.679 23.459 20.799 18.869 17.349 16.159 14.869 14.029 13.269 12.479
781.236 11.869 11.279 10.979 10.739 10.029 9.679 9.629 9.079 8.839 8.969
800.526 8.499 7.519 7.109 7.109 7.009 6.929 6.789 6.579 6.369 6.269
819.816 6.239 6.099 5.939 5.819 5.759 5.859 5.899 5.949 5.939 5.879
839.106 5.639 5.769 5.759 5.539 5.439 5.499 5.289 4.829 4.739 4.449
858.395 4.399 4.539 4.379 4.349 4.559 4.649 4.739 4.879 4.699 4.389
877.685 4.589 5.199 5.469 5.319 5.659 6.049 6.289 6.549 6.869 7.229
896.975 7.259 7.699 8.259 8.419 8.549 8.639 8.559 8.499 8.429 8.299
916.265 7.929 7.359 6.939 6.419 6.159 5.829 5.489 5.449 4.999 4.519
935.555 4.519 4.669 4.629 4.329 4.289 4.409 4.199 4.089 4.209 4.419
954.844 4.529 4.489 4.219 4.099 4.089 4.009 3.869 4.009 4.319 4.239
974.134 4.079 4.189 4.869 4.989 4.869 4.899 4.919 4.969 4.719 4.709
993.424 5.249 5.559 5.749 6.169 6.369 6.839 6.989 6.859 6.859 7.259
1012.714 7.759 7.959 8.469 9.429 10.539 12.369 14.839 16.689 18.069 18.799
1032.003 18.629 17.279 15.059 12.709 10.319 9.189 8.889 7.609 7.139 7.269
1051.293 7.129 7.099 6.409 6.219 5.839 5.769 6.659 6.769 7.119 8.119
1070.583 7.779 7.309 7.539 7.769 8.439 9.219 9.199 7.839 6.949 6.909
1089.873 5.889 5.329 5.809 5.589 4.799 4.559 4.419 3.449 3.279 2.649
1109.163 1.619 2.619 3.389 3.099 3.109 2.859 2.129 2.159 2.419 1.889
1128.452 2.159 2.179 1.849 2.089 2.099 1.929 1.969 2.439 2.899 3.059
1147.742 2.929 2.129 1.939 2.239 1.829 1.669 2.129 2.269 2.199 2.549
1167.032 2.819 2.669 2.359 2.759 3.379 3.029 2.999 3.259 2.939 2.739
1186.322 2.989 3.209 2.989 2.889 3.129 2.899 2.399 3.649 4.049 3.749
1205.611 4.159 3.549 3.029 2.859 2.609 2.779 2.929 2.759 2.839 3.629
1224.901 4.169 4.399 4.969 5.089 5.619 6.879 7.379 7.599 7.919 7.909
1244.191 9.019 10.049 10.509 10.979 11.919 12.669 12.479 12.889 13.399 13.829
1263.481 14.749 15.239 15.529 16.019 16.459 17.469 18.449 19.309 20.309 21.459
1282.771 23.109 24.739 25.879 26.909 28.009 28.449 28.689 28.849 28.639 28.249
1302.060 27.759 27.399 26.999 26.609 26.079 25.379 24.749 24.019 23.079 22.019
1321.350 21.039 20.029 18.949 17.839 16.779 15.959 15.409 15.129 15.049 15.119
1340.640 15.269 15.539 15.719 15.869 16.029 15.829 15.479 14.969 14.209 13.449
1359.930 12.599 11.669 10.909 10.259 9.729 9.299 8.929 8.439 7.749 7.119
1379.219 6.539 6.049 5.599 5.159 4.739 4.499 4.369 4.209 4.239 4.199
1398.509 4.099 4.139 4.219 4.319 4.449 4.699 4.969 5.199 5.589 6.029
1417.799 6.479 7.039 7.699 8.689 9.859 11.029 12.499 14.189 16.089 18.349
1437.089 21.049 24.169 27.689 31.699 35.929 39.799 42.849 45.029 46.319 46.329
1456.378 44.699 41.989 38.909 35.579 32.249 28.929 25.929 23.219 20.709 18.669
1475.668 17.199 16.209 15.959 16.349 17.319 19.179 22.339 26.709 31.699 36.299
1494.958 38.979 39.229 37.479 33.599 27.749 21.159 15.369 11.419 8.999 7.549
1514.248 6.449 5.579 4.979 4.599 4.329 4.109 4.069 4.049 3.969 3.909
1533.538 3.889 3.759 3.589 3.509 3.439 3.259 3.129 3.139 3.209 3.159
1552.827 3.109 3.259 3.309 3.319 3.429 3.559 3.719 3.829 4.119 4.609
1572.117 4.969 5.419 6.129 6.809 7.429 8.199 8.969 9.979 11.189 12.369
1591.407 13.679 15.059 16.699 18.279 19.739 20.839 21.259 20.629 18.979 16.809
1610.697 14.119 11.219 8.839 6.999 5.549 4.659 4.039 3.649 3.439 3.119
1629.986 2.939 2.889 2.799 2.719 2.599 2.379 2.379 2.459 2.309 2.319
1649.276 2.319 2.349 2.399 2.339 2.229 2.019 1.849 1.769 1.779 1.699
1668.566 1.479 1.449 1.569 1.589 1.459 1.319 1.329 1.399 1.469 1.469
1687.856 1.419 1.389 1.469 1.529 1.559 1.589 1.569 1.449 1.2712 1.389
1707.146 1.489 1.409 1.559 1.659 1.679 1.759 1.829 1.969 1.989 2.099
1726.435 2.139 2.119 2.319 2.359 2.369 2.439 2.319 2.249 2.279 2.139
1745.725 2.099 2.239 2.299 2.229 2.059 1.849 1.729 1.709 1.699 1.769
1765.015 1.779 1.749 1.899 2.019 2.369 2.679 2.809 3.029 3.259 3.539
1784.305 3.969 4.579 5.249 5.819 6.079 6.129 6.019 5.719 5.289 4.569
1803.594 3.879 3.439 3.079 2.839 2.659 2.529 2.449 2.349 2.199 2.039
1822.884 1.959 1.899 1.839 1.799 1.829 1.959 2.069 1.969 1.929 2.049
1842.174 2.119 2.219 2.349 2.499 2.659 2.819 3.019 3.209 3.329 3.469
1861.464 3.629 3.819 3.869 3.879 4.019 4.059 3.989 3.919 3.769 3.539
1880.754 3.349 3.149 2.959 2.749 2.489 2.239 2.129 2.049 1.969 1.829
1900.043 1.749 1.729 1.739 1.869 1.909 1.829 1.919 2.059 2.259 2.479
1919.333 2.669 2.939 3.229 3.579 3.869 4.199 4.579 4.959 5.199 5.309
1938.623 5.379 5.429 5.509 5.529 5.579 5.599 5.529 5.319 4.769 4.149
1957.913 3.699 3.189 2.569 2.159 1.819 1.459 1.419 1.369 1.1719 1.1668
1977.202 1.2192 1.2778 1.2469 1.1532 1.1648 1.1714 1.1396 1.0659 0.9596 1.0155
1996.492 1.0096 0.9433 1.0196 1.0883 1.1041 1.0838 1.076 0.9649 0.9423 0.995
2015.782 0.9861 0.9897 1.0197 1.0663 1.0943 1.1477 1.0859 1.0727 1.2147 1.2645
2035.072 1.2748 1.1631 1.0475 1.0219 1.0588 1.1459 1.0869 0.9884 0.9933 1.0536
2054.362 0.9239 0.8298 0.9173 1.0853 1.1351 0.9953 0.8339 0.8426 0.9121 0.8861
2073.651 0.8784 0.9156 0.9381 0.9427 1.0396 1.0695 1.0161 1.0153 1.0197 0.9757
2092.941 0.9947 1.0288 0.9863 0.9411 0.939 0.9078 0.9243 0.982 0.9733 0.9177
2112.231 0.8274 0.8126 0.8621 0.8933 0.9727 0.8435 0.7583 0.8085 0.8248 0.9693
2131.521 1.0516 0.9534 0.9705 0.9796 0.896 0.9282 0.9343 0.8722 0.8732 0.9209
2150.810 0.8906 0.9594 1.0108 1.0494 1.049 0.9624 0.9531 1.0783 1.1419 1.1432
2170.100 1.1339 1.063 1.0929 1 0.9534 1.0929 1.1179 1.0624 1.1775 1.1188
2189.390 1.0311 1.0414 0.9756 1.065 1.0832 0.9287 0.8094 0.899 0.9752 0.9771
2208.680 1.0988 1.1486 1.1496 1.1769 1.0997 1.0163 0.9321 0.8986 0.8996 0.8747
2227.970 0.9046 0.9269 1.0173 1.0547 0.9067 0.8962 0.9188 0.9791 1.1377 1.0992
2247.259 0.9646 0.9462 1.0172 1.0348 1.0283 1.0871 1.0325 0.9713 1.0545 1.0868
2266.549 1.0286 1.0882 1.0095 0.9023 0.9956 1.0676 1.0377 1.0842 1.1826 1.1448
2285.839 1.1891 1.1763 1.1396 1.1918 1.1864 1.2244 1.329 1.399 1.349 1.319
2305.129 1.369 1.439 1.579 1.589 1.629 1.719 1.759 1.739 1.649 1.509
2324.418 1.439 1.439 1.479 1.589 1.629 1.549 1.589 1.609 1.649 1.609
2343.708 1.529 1.569 1.519 1.499 1.439 1.369 1.479 1.479 1.389 1.459
2362.998 1.509 1.479 1.329 1.2681 1.2749 1.1641 1.2217 1.2351 1.1737 1.204
2382.288 1.1875 1.0807 1.0875 1.1627 1.1447 1.0887 1.1776 1.2226 1.1601 1.1506
2401.578 1.0962 1.0916 0.985 1.0084 1.0414 0.9299 0.9758 1.1328 1.091 0.9895
2420.867 1.034 1.0121 1.0203 1.0448 0.9521 0.9652 1.0446 0.9436 0.9307 0.8827
2440.157 0.9022 1.0153 0.9916 0.9531 0.9893 0.9774 0.9709 1.0251 1.0983 0.9686
2459.447 0.7972 0.844 0.9038 0.9215 0.8632 0.8713 0.9356 0.9826 1.0675 1.1997
2478.737 1.143 1.0446 0.9909 0.9352 1.0247 1.1261 1.1605 1.238 1.282 1.2082
2498.026 1.2579 1.439 1.389 1.1241 1.0717 1.1593 1.2073 1.2254 1.206 1.25
2517.316 1.2802 1.2691 1.2846 1.2951 1.239 1.2446 1.212 1.1908 1.1292 1.0549
2536.606 1.0523 1.0767 1.2165 1.2875 1.2799 1.2841 1.1812 1.0623 1.066 1.1088
2555.896 1.0408 0.9264 1.0281 1.2243 1.2164 1.0991 1.2018 1.1746 1.0592 1.0784
2575.186 1.1731 1.3167 1.419 1.439 1.409 1.419 1.329 1.339 1.549 1.679
2594.475 1.709 1.689 1.709 1.769 1.729 1.799 1.829 1.859 1.999 1.899
2613.765 1.749 1.649 1.609 1.709 1.799 1.869 1.949 1.989 1.959 2.019
2633.055 1.899 1.949 2.129 2.029 2.019 2.129 2.249 2.269 2.299 2.209
2652.345 2.149 2.109 2.149 2.349 2.329 2.329 2.329 2.399 2.539 2.519
2671.634 2.479 2.449 2.449 2.429 2.509 2.499 2.469 2.589 2.729 2.819
2690.924 2.739 2.629 2.619 2.629 2.629 2.669 2.609 2.499 2.479 2.499
2710.214 2.439 2.339 2.379 2.419 2.439 2.399 2.409 2.379 2.349 2.419
2729.504 2.399 2.499 2.489 2.399 2.399 2.429 2.709 2.759 2.659 2.589
2748.794 2.639 2.759 2.679 2.619 2.779 2.919 2.939 2.949 2.919 2.989
2768.083 2.929 3.029 3.319 3.429 3.639 3.779 3.919 4.139 4.299 4.339
2787.373 4.349 4.639 4.749 4.839 4.989 4.949 5.139 5.449 5.549 5.679
2806.663 5.969 6.159 6.229 6.499 6.959 7.369 7.769 8.199 8.629 9.259
2825.953 9.979 10.549 11.259 12.269 13.399 14.639 16.239 18.119 20.159 22.589
2845.242 25.849 29.479 33.349 37.909 42.859 47.999 53.539 59.149 64.339 68.879
2864.532 72.209 74.059 74.429 73.569 71.499 68.329 64.689 60.699 56.869 53.509
2883.822 50.569 47.919 45.919 44.779 44.569 44.989 45.869 47.709 50.079 52.659
2903.112 55.479 58.879 62.909 67.309 71.779 76.949 83.109 89.999 97.849 106.519
2922.401 115.709 125.349 135.559 146.189 156.509 166.659 176.339 185.039 191.929 196.119
2941.691 197.189 194.469 187.879 177.629 164.739 150.729 137.079 124.999 115.059 106.589
2960.981 99.079 92.269 85.489 78.589 71.519 64.409 57.779 51.909 46.729 42.379
2980.271 39.169 37.019 35.619 34.999 35.329 36.769 38.979 41.229 43.089 44.209
2999.561 44.359 43.539 41.819 39.579 37.259 35.429 34.809 35.169 36.309 38.589
3018.850 41.979 46.579 52.089 57.919 63.879 69.469 73.499 74.969 73.819 70.429
3038.140 64.999 58.079 50.829 44.469 39.699 36.479 34.569 33.549 33.669 34.959
3057.430 37.409 41.169 45.719 51.099 57.109 62.489 65.529 65.949 64.669 61.219
3076.720 55.799 50.019 44.949 41.459 38.989 36.919 34.849 32.489 30.509 28.409
3096.009 26.079 24.089 22.289 20.429 18.549 17.209 15.919 14.569 13.459 11.959
3115.299 10.269 8.929 7.739 6.599 5.799 5.209 4.579 3.859 3.319 3.029
3134.589 2.679 2.499 2.329 2.069 2.149 2.129 2.019 1.979 1.909 1.889
3153.879 1.789 1.819 1.929 1.899 1.939 1.959 1.839 1.739 1.669 1.599
3173.169 1.459 1.2404 1.1391 1.2335 1.0763 1.0385 1.08 0.9465 1.2093 1.2698
3192.458 0.9423 0.84 0.7962 0.7132 0.8469 0.9553 0.8367 0.7453 0.6895 0.6736
3211.748 0.6677 0.575 0.75 0.9135 0.7163 0.5966 0.6527 0.6822 0.8406 0.889
3231.038 0.6153 0.6015 0.5815 0.6857 0.8825 0.7982 0.7331 0.7232 0.6991 0.6925
3250.328 0.6283 0.5962 0.5298 0.5981 0.8354 0.7221 0.5893 0.5671 0.6143 0.6893
3269.617 0.7732 0.9084 0.6899 0.473 0.5043 0.40666 0.5309 0.5802 0.5772 0.7315
3288.907 0.6821 0.5085 0.36685 0.3011 0.41221 0.5328 0.5984 0.6174 0.39523 0.435
3308.197 0.5111 0.40538 0.5013 0.34922 0.2528 0.2255 0.2438 0.6605 0.6404 0.5231
3327.487 0.6791 0.6065 0.5077 0.6282 0.493 0.320286 0.2884 0.34705 0.328703 0.2612
3346.777 0.35734 0.5443 0.7284 0.5208 0.21 0.145 0.165 0.25 0.4482 0.5546
3366.066 0.4381 0.318586 0.4293 0.6501 0.5796 0.5523 0.5469 0.4412 0.5862 0.5641
3385.356 0.4569 0.31038 0.295 0.3073 0.2829 0.40105 0.2693 0.113 0.17 0.4301
3404.646 0.536 0.38504 0.34921 0.3088 0.431 0.35361 0.2333 0.207 0.134 0.147
3423.936 0.216 0.3032 0.4211 0.5739 0.5314 0.34398 0.33515 0.5683 0.5006 0.39249
3443.225 0.6518 0.8948 0.8237 0.6047 0.41119 0.2284 0.2451 0.3857 0.5102 0.4968
3462.515 0.2487 0.4299 0.5835 0.6037 0.4378 0.057 0.024 0.113 0.2562 0.182
3481.805 0.108 0.183 0.3384 0.3038 0.301 0.38919 0.5465 0.6521 0.41811 0.3005
3501.095 0.4307 0.5619 0.5179 0.4535 0.5288 0.5505 0.5151 0.5465 0.5756 0.5904
3520.385 0.2423 0 0.064 0.165 0.283 0.2275 0.178 0.18 0.2966 0.35131
3539.674 0.2244 0.2663 0.4514 0.4298 0.2195 0.2229 0.4288 0.5444 0.6205 0.4943
3558.964 0.2642 0.156 0.118 0.38647 0.527 0.5172 0.6047 0.4269 0.34983 0.5462
3578.254 0.615 0.6012 0.544 0.37646 0.2212 0.37386 0.5816 0.5183 0.38538 0.41548
3597.544 0.6466 0.5119 0.4339 0.5023 0.4777 0.6138 0.706 0.7298 0.704 0.7002
3616.833 0.7264 0.6439 0.8221 0.9046 0.6923 0.9607 1.2424 1.1353 1.212 1.1088
3636.123 0.882 0.959 0.8284 0.8581 0.9146 0.7951 0.8375 1.0099 1.1234 1.0901
3655.413 0.9277 0.9343 1.0622 0.9088 0.604 0.6261 0.8059 0.9236 1.0554 0.9232
3674.703 0.9025 0.9909 0.9654 0.9883 1.0163 0.9311 0.8978 0.9925 0.8819 0.687
3693.993 0.5193 0.6337 0.9318 0.888 0.6458 0.6055 0.6 0.5766 0.8391 0.9572
3713.282 0.6531 0.39126 0.4768 0.5251 0.7046 0.9752 0.9319 0.8296 0.7097 0.576
3732.572 0.7542 0.8034 0.8291 0.9001 0.8524 0.9349 0.8202 0.6338 0.5401 0.7137
3751.862 0.8045 0.5517 0.5374 0.6815 0.5857 0.5963 0.8121 0.8758 0.7726 0.6995
3771.152 0.644 0.5964 0.8418 0.8731 0.66 0.5475 0.40113 0.4808 0.627 0.6278
3790.441 0.6251 0.7517 1.066 1.0083 0.824 0.9651 1.0134 1.0643 0.9761 0.7418
3809.731 0.7942 0.9194 0.9589 0.9335 1.0132 0.8739 0.6373 0.701 0.8025 1.0128
3829.021 1.1274 1.0751 0.7229 0.6882 0.8505 0.6847 0.5208 0.4405 0.4776 0.5295
3848.311 0.6595 0.6037 0.4712 0.549 0.8642 0.9083 0.8667 0.8209 0.7208 0.7178
3867.601 0.5489 0.6395 0.9754 0.89 0.4712 0.4744 0.7587 0.8208 0.5624 0.5093
3886.890 0.8031 0.8995 0.9368 0.9195 0.7551 0.6606 0.7374 0.8534 0.9568 1.0442
3906.180 0.7089 0.4491 0.7111 0.8174 0.8081 0.8725 0.8186 0.9002 0.8657 0.7515
3925.470 0.7979 0.9796 1.0607 0.8666 0.8627 1.0335 0.9059 0.5513 0.773 0.8744
3944.760 0.9219 1.035 0.7213 0.6513 0.79 0.8672 0.8441 0.8713 0.9656 1.0824
3964.049 1.0207 0.8836 0.6127 0.8021 0.953 0.69 0.7163 0.9355 0.9891 1.015
3983.339 1.1936 1.0704 0.8594 0.8783 1.0741 1.1089 0.9027 1.0017 1.329 1.389
##END=
