##TITLE=cis-1,3-Pentadiene
##JCAMP-DX=4.24
##DATA TYPE=INFRARED SPECTRUM
##ORIGIN=NIST Mass Spectrometry Data Center
##OWNER=NIST Standard Reference Data Program
Collection (C) 2018 copyright by the U.S. Secretary of Commerce
on behalf of the United States of America. All rights reserved.
##CAS REGISTRY NO=1574-41-0
##MOLFORM=C 5 H 8
##$NIST SOURCE=MSDC-IR
##SPECTROMETER/DATA SYSTEM=HP-GC/MS/IRD
##STATE=gas
##XUNITS=1/CM
##YUNITS=ABSORBANCE
##XFACTOR=1.0
##YFACTOR=0.000001500
##DELTAX=4.0
##FIRSTX=550.0
##LASTX=3846.0
##FIRSTY=0.001199
##MAXX=3846
##MINX=550
##MAXY=0.015
##MINY=0
##NPOINTS=825
##XYDATA=(X++(Y..Y))
550.0 799 426 300 414 543 872 1252 1677 2028 2415
590.0 2905 3432 3889 4365 4807 5304 5783 5878 5290 4455
630.0 3921 3417 2941 2540 2033 1558 1276 1005 694 552
670.0 506 476 451 397 390 496 530 493 554 606
710.0 601 679 756 780 896 1077 1191 1289 1395 1414
750.0 1478 1543 1578 1743 1968 1977 1648 1353 1181 1073
790.0 1053 911 752 619 414 296 236 158 127 138
830.0 237 309 352 450 559 684 851 1128 1502 1954
870.0 2486 3075 3677 4279 4857 5427 5981 6813 8888 10000
910.0 8595 7412 6935 6544 6138 5684 5251 4857 4588 4296
950.0 3978 3807 3795 3827 3809 3712 3549 3461 3549 3808
990.0 4138 4170 3723 3306 3107 2938 2745 2478 2152 1859
1030.0 1654 1411 1155 1004 826 653 552 489 448 366
1070.0 300 304 302 280 281 268 252 255 249 257
1110.0 298 296 238 253 251 215 189 147 118 113
1150.0 101 92 98 104 100 74 56 54 68 41
1190.0 0 13 25 26 62 58 66 110 152 218
1230.0 296 378 485 542 549 548 535 560 558 487
1270.0 416 396 395 381 381 390 407 420 442 477
1310.0 484 464 455 442 430 466 553 649 761 882
1350.0 988 1101 1201 1315 1478 1606 1673 1702 1697 1679
1390.0 1678 1698 1731 1782 1876 2071 2414 2902 3400 3622
1430.0 3554 3485 3463 3504 3460 2971 2300 1779 1494 1312
1470.0 1186 1097 1016 952 895 869 837 842 862 855
1510.0 846 865 877 880 880 885 907 922 921 943
1550.0 966 1007 1082 1161 1237 1360 1542 1768 2025 2185
1590.0 2207 2177 2198 2230 2245 2108 1800 1547 1443 1459
1630.0 1517 1580 1628 1607 1570 1543 1454 1336 1157 945
1670.0 762 620 552 520 502 476 468 472 483 519
1710.0 554 566 575 576 571 585 601 612 632 674
1750.0 718 731 748 778 788 796 798 789 771 770
1790.0 842 1032 1287 1572 1745 1749 1738 1763 1812 1760
1830.0 1507 1157 853 666 561 484 427 384 342 312
1870.0 296 273 260 241 231 224 218 230 232 233
1910.0 240 245 258 283 288 294 301 309 313 297
1950.0 288 300 324 341 346 354 365 370 369 359
1990.0 346 343 329 301 287 260 243 238 211 193
2030.0 207 218 195 181 180 176 163 146 149 171
2070.0 182 170 165 171 166 161 160 136 127 147
2110.0 154 138 154 169 159 162 158 148 151 163
2150.0 147 139 135 123 124 131 134 131 144 145
2190.0 149 161 159 145 129 139 154 148 151 154
2230.0 155 154 133 136 157 150 147 174 184 172
2270.0 175 173 151 157 176 181 165 176 200 171
2310.0 171 185 164 188 196 212 242 225 209 200
2350.0 191 191 185 179 188 191 186 174 164 158
2390.0 170 178 163 163 158 149 150 147 145 150
2430.0 142 124 120 117 132 148 164 172 163 170
2470.0 187 185 158 149 173 178 171 176 173 172
2510.0 159 159 178 180 174 173 192 188 163 145
2550.0 124 131 146 136 122 113 120 125 131 141
2590.0 158 165 162 178 193 184 150 132 134 127
2630.0 112 90 101 131 128 122 118 121 103 90
2670.0 114 127 109 107 122 118 131 158 163 177
2710.0 194 188 208 238 237 251 265 275 306 330
2750.0 351 358 334 346 375 375 381 381 402 400
2790.0 388 408 428 477 517 533 564 606 667 758
2830.0 839 954 1096 1252 1469 1734 2064 2413 2754 2968
2870.0 3122 3294 3475 3614 3669 3681 3719 3829 4042 4374
2910.0 4851 5396 5915 6226 6282 6300 6374 6384 6246 5892
2950.0 5357 4843 4521 4382 4393 4462 4595 4821 5132 5466
2990.0 5836 6242 6688 7290 8057 8765 9286 9613 9722 9684
3030.0 9661 9728 9781 9627 9125 8403 7625 6910 6363 5983
3070.0 5688 5457 5315 5143 4813 4376 4109 4071 4111 3928
3110.0 3392 2773 2257 1838 1505 1260 1040 848 706 607
3150.0 523 452 413 407 377 313 313 326 303 298
3190.0 302 309 312 313 320 304 265 278 286 319
3230.0 336 275 258 286 296 271 248 235 214 203
3270.0 194 188 206 244 225 210 212 183 174 210
3310.0 225 216 192 209 203 162 177 199 172 165
3350.0 173 172 167 158 198 177 128 143 187 200
3390.0 182 176 167 194 234 214 215 212 199 205
3430.0 190 180 180 210 234 220 201 194 210 224
3470.0 217 187 157 175 195 206 209 184 183 195
3510.0 170 145 161 155 182 216 194 175 202 236
3550.0 217 226 233 197 193 192 183 179 174 201
3590.0 228 225 251 246 241 247 224 244 266 259
3630.0 271 275 254 222 221 247 239 255 259 208
3670.0 208 223 208 215 219 224 217 168 157 183
3710.0 193 171 161 202 200 212 221 188 189 182
3750.0 160 186 208 218 219 197 197 200 199 201
3790.0 223 228 211 200 201 210 246 249 206 215
3830.0 237 225 252 253 229
##END=
