##TITLE=2-Chlorobenzo[b]thiophene-3-acetonitrile
##JCAMP-DX=4.24
##DATA TYPE=INFRARED SPECTRUM
##ORIGIN=EPA-IR VAPOR PHASE LIBRARY
##OWNER=SRD/NIST
Collection (C) 2018 copyright by the U.S. Secretary of Commerce
on behalf of the United States of America. All rights reserved.
##CAS REGISTRY NO=157549-49-0
##MOLFORM=C 10 H 6 Cl N S
##$NIST SOURCE=MSDC-IR
##STATE=gas
##XUNITS=1/CM
##YUNITS=ABSORBANCE
##XFACTOR=1.
##YFACTOR=0.001
##DELTAX=1.92898
##FIRSTX=549.8
##LASTX=4000.7
##FIRSTY=4.18
##MAXX=4000.7
##MINX=549.759
##MAXY=0.02679
##MINY=0
##NPOINTS=1790
##XYDATA=(X++(Y..Y))
549.759 4.18 4.34 3.78 5.06 6.33 5.97 5.37 5.3 5.62 5.04
569.049 3.58 3.8 4.54 3.83 2.62 2.69 3.74 4.63 4.3 2.94
588.339 2.63 2.9 2.87 3.23 3.99 4.3 4.02 3.44 3.35 4.25
607.628 4.81 4.17 3.96 4.49 4.5 4.36 4.1 3.34 3.12 3.06
626.918 2.99 3.4 3.15 2.3251 2.92 3.47 3.5 3.81 3.77 3.99
646.208 4.22 4.01 2.99 2.47 2.8 3.16 2.81 2.75 2.78 2.68
665.498 2.79 2.62 3.3 3.48 3.15 3.82 4.69 4.23 3.67 3.98
684.787 4.48 4.82 4.38 4.12 4.63 5.11 5.09 4.83 4.6 4.72
704.077 5 5.23 5.52 5.63 6.28 7.18 8.91 11.39 13.25 15.42
723.367 17.83 20.87 25.59 26.79 22.69 18.43 15.69 14.19 12.79 11.87
742.657 11.54 12.55 14.19 15.42 17.73 20.59 21.52 19.13 15.85 13.97
761.947 12.4 10.14 7.63 5.82 4.71 3.12 2.2388 2.69 3.15 2.77
781.236 2.5 2.55 2.68 3.72 4 3.4 3.45 3.93 3.35 2.64
800.526 3.29 3.75 3.33 3.01 3.22 3.08 2.4068 2.2688 2.86 2.78
819.816 1.8912 2.0476 2.2457 1.49839 2.85 3.38 2.3043 2.1534 2.54 2.49
839.106 2.57 2.97 2.51 2.3203 2.63 2.48 2.4085 2.5 2.2301 2.57
858.395 2.51 2.55 2.44 2.307 2.53 1.9903 1.9059 2.55 2.92 2.86
877.685 2.88 2.65 2.2857 1.8186 1.7536 2.1787 1.9667 2.1491 2.8 2.7
896.975 2.3832 2.59 2.58 3.18 4.12 4.61 5.15 5.25 5.27 5.14
916.265 5.34 5.56 5.56 5.51 4.94 4.8 5.01 5.52 6.52 6.98
935.555 7.2 8.13 8.22 7.79 7.88 7.81 7.1 6.27 5.8 5.16
954.844 4.86 4.25 3.89 4.16 4.15 4.01 3.61 3.53 4.61 5.91
974.134 6.67 7.6 9.26 10.56 11.5 13.32 15.08 15.71 15.45 15.51
993.424 14.54 12.69 11.04 9.3 7.73 6.38 4.79 4.1 4.42 4.37
1012.714 4.15 3.44 3.58 3.44 2.79 3.22 3.58 4.05 4.37 3.61
1032.003 3.99 4.6 4.42 5.43 7.18 9.47 11.16 11.95 12.37 12.25
1051.293 11.89 10.25 8.46 7.27 5.56 3.4 1.792 2.65 3.17 3.47
1070.583 3.96 3.38 3.62 3.19 2.253 3 3.68 3.87 4.15 3.85
1089.873 4.89 7.27 8.92 9.82 10.49 8.92 6.43 6.1 6.09 4.71
1109.163 3.54 3.8 5.21 4.67 3.45 3.37 3.38 4.22 5.06 4.48
1128.452 4.08 5 4.89 4.64 4.78 5.33 5.23 6.33 7.18 4.56
1147.742 3.75 4.63 4.33 3.22 3.44 3.97 3.68 3.52 3.04 3.46
1167.032 4.28 3.25 2.53 2.99 2.98 3.55 4.31 4.27 3.72 1.9985
1186.322 1.7313 2.94 3.23 4.53 5.37 4.58 3.87 5.23 6.81 5.96
1205.611 7.13 8.54 7.85 7.15 7.22 7.8 6.72 5.1 4.66 3.69
1224.901 2.3102 3.23 4.87 4.87 4.39 3.52 3.88 4.16 2.83 3.42
1244.191 5.02 4.5 3.7 4.65 6 6.34 6.42 6.8 7.09 7.83
1263.481 7.19 6.16 6.93 6.21 5.47 5.57 4.99 4.5 3.5 3.37
1282.771 3.67 3.55 3.75 4.05 3.53 3.43 3.98 3.8 3.96 4.27
1302.060 4.31 4.74 5.26 5.31 5.17 5.25 4.79 4.25 4.03 3.53
1321.350 3.2 3.08 2.93 3.03 3.19 3.39 3.53 3.45 3.66 3.84
1340.640 4.05 4.75 5.43 5.79 5.89 6.01 5.97 5.6 5.01 4.32
1359.930 3.92 3.37 2.86 2.8 2.73 2.49 2.3477 2.47 2.66 2.51
1379.219 2.1206 2.213 2.52 2.6 2.65 2.65 2.58 2.71 3.04 3.08
1398.509 3.21 3.64 4.2 4.62 4.92 5.38 6.06 7.09 8.49 10.32
1417.799 12.31 14.49 16.79 19.88 22.48 23.76 24.82 24.61 23.1 21.65
1437.089 19.79 16.79 13.43 10.49 8.09 6.45 5.62 5.51 6.09 6.93
1456.378 7.89 8.36 8.63 8.86 8.59 8.17 7.61 6.63 5.26 3.94
1475.668 3.35 3.16 2.88 2.53 2.2986 2.2814 2.3686 2.2229 2.256 2.35
1494.958 2.1597 2.2702 2.2706 2.133 2.1623 2.4012 2.67 2.73 2.71 2.3771
1514.248 2.1636 2.58 3.06 3.19 3.46 3.89 4.17 4.51 4.86 5.12
1533.538 5.06 4.83 4.64 4.65 4.49 3.85 3.47 3.25 3.09 2.91
1552.827 2.89 3.06 3.17 3.46 3.84 3.9 3.81 4.09 4.35 4.35
1572.117 4.41 4.19 4.07 3.6 2.95 2.74 2.72 2.77 2.59 2.69
1591.407 2.48 2.416 2.78 2.76 2.54 2.57 2.49 2.2352 2.2892 2.1002
1610.697 1.9276 2.2617 2.3234 2.1226 2.0924 2.0996 1.9909 1.7611 1.869 2.0054
1629.986 2.0568 2.0546 1.9447 1.9765 1.9763 1.8213 1.8066 1.8636 1.8285 1.993
1649.276 2.0783 2.0605 2.1737 2.2748 2.45 2.61 2.6 2.5 2.3972 2.2754
1668.566 2.3166 2.51 2.56 2.52 2.398 2.3329 2.44 2.73 2.66 2.3487
1687.856 2.3896 2.3955 2.49 2.76 2.7 2.3756 2.2593 2.1387 1.9317 1.8418
1707.146 1.9651 1.9386 1.8914 2.0606 1.8656 1.7945 1.9652 1.9747 1.9498 1.9369
1726.435 2.0498 2.0417 1.9139 2.0751 2.1639 2.1681 2.2577 2.2092 2.2403 2.289
1745.725 2.0921 1.8179 1.7702 1.6548 1.6163 1.984 2.2577 2.1175 1.9824 2.1765
1765.015 2.3893 2.67 2.94 2.99 3.08 3.05 2.99 2.96 2.88 2.73
1784.305 2.43 2.2412 2.1773 2.1661 2.2029 2.1294 2.0988 1.9196 1.8465 2.0196
1803.594 2.2152 2.3587 2.52 2.66 2.7 2.75 2.75 2.57 2.3433 2.3026
1822.884 2.164 2.1585 1.9562 1.8261 1.924 1.8854 1.9704 1.898 1.9344 1.8947
1842.174 1.7346 1.6857 1.5327 1.5601 1.7873 1.7958 1.8448 1.954 2.2464 2.3417
1861.464 2.1067 1.9073 1.9486 2.2931 2.3859 2.335 2.3082 2.1142 1.8976 2.1316
1880.754 2.3177 2.1542 1.8982 1.8883 2.1777 2.3926 2.45 2.59 2.62 2.7
1900.043 2.76 2.69 2.67 2.78 2.64 2.2966 2.1499 1.8272 1.8853 1.9734
1919.333 1.9563 2.1006 2.3435 2.44 2.57 2.71 2.64 2.73 2.73 2.93
1938.623 3.04 2.87 2.83 2.64 2.2778 1.8801 1.7858 1.9019 1.8471 1.7776
1957.913 1.7588 1.5271 1.51033 1.6115 1.5916 1.6797 1.7084 1.636 1.588 1.5728
1977.202 1.3981 1.45955 1.6597 1.6339 1.51835 1.6338 1.647 1.7156 1.8247 1.761
1996.492 1.6635 1.50662 1.7364 1.6925 1.3321 1.3606 1.5256 1.5627 1.3393 1.239
2015.782 1.45413 1.47693 1.5864 1.6858 1.4746 1.5557 1.6023 1.5648 1.6332 1.7288
2035.072 2.0257 2.0131 1.7191 1.6255 1.6103 1.6609 1.6431 1.41713 1.4352 1.5558
2054.362 1.7686 1.9492 1.8817 1.7364 1.8215 1.7875 1.5521 1.686 1.7447 1.7798
2073.651 1.758 1.5946 1.6079 1.6808 1.7443 1.8478 1.8354 1.7077 1.7602 1.8691
2092.941 1.7145 1.5459 1.50212 1.49537 1.508 1.6372 1.5646 1.3394 1.3631 1.6767
2112.231 1.8209 1.8364 1.9765 1.5781 1.27 1.619 1.5986 1.6241 1.8646 1.6374
2131.521 1.6526 1.6424 1.3786 1.47769 1.6696 1.9007 1.7998 1.5374 1.5998 1.7489
2150.810 1.6633 1.5281 1.6614 1.6003 1.6918 1.7229 1.6771 1.8151 1.692 1.6762
2170.100 1.8984 1.7986 1.7188 1.7182 1.5341 1.4797 1.6163 1.7196 1.7667 1.6849
2189.390 1.41844 1.5407 1.6727 1.3806 1.41343 1.48008 1.3807 1.304 1.174 1.309
2208.680 1.41049 1.7333 1.8979 1.7389 1.8534 1.7932 1.7362 1.847 1.6704 1.51007
2227.970 1.754 2.0278 1.7942 1.6888 1.7483 1.7663 1.8884 1.8128 1.8069 1.9402
2247.259 2.0652 2.0219 1.9394 1.9299 2.1363 2.3171 2.0465 1.9418 2.0853 2.0435
2266.549 1.8351 1.7516 1.9759 2.0861 1.871 1.45646 1.6785 1.7774 1.5229 1.7016
2285.839 1.7241 1.7507 1.8245 1.9432 2.1249 2.0699 1.7355 1.8346 2.1002 1.8874
2305.129 1.9025 1.7935 1.7986 1.9195 1.5291 1.48859 1.594 1.668 1.6157 1.5882
2324.418 1.5734 1.5374 1.7196 1.5372 1.3972 1.6245 1.8437 1.859 1.56 1.6154
2343.708 2.0127 1.9134 1.6652 1.7343 1.9399 1.9093 1.9714 1.7824 1.6276 1.9187
2362.998 2.1375 2.0852 2.0445 1.7883 1.8061 2.1613 1.8885 1.5399 1.5885 1.6085
2382.288 1.49644 1.50004 1.5821 1.6528 1.3908 1.278 1.3753 1.6566 1.6298 1.8051
2401.578 2.0318 1.606 1.46461 1.241 1.301 1.7806 1.6762 1.3222 1.44776 1.6801
2420.867 1.8604 1.7568 1.43595 1.284 1.45084 1.49499 1.41852 1.3524 1.6486 1.8449
2440.157 1.6321 1.6523 1.43567 1.3994 1.50046 1.50091 1.5559 1.6913 1.8251 1.8871
2459.447 1.8357 1.7554 1.7426 1.6342 1.7051 1.9443 1.8357 1.5733 1.8523 1.8643
2478.737 1.42815 1.47405 1.5486 1.5927 1.6387 1.6774 1.8196 1.6409 1.46581 1.7888
2498.026 1.8554 1.7568 1.8984 1.7504 1.6188 1.3633 1.3321 1.6919 1.573 1.41258
2517.316 1.5633 1.5685 1.5628 1.5559 1.3794 1.5957 1.6239 1.3228 1.6469 1.8457
2536.606 1.5661 1.3549 1.6311 1.7423 1.46668 1.767 1.6859 1.44671 1.5717 1.3801
2555.896 1.6809 1.7756 1.295 1.5969 1.7371 1.667 1.9637 1.9096 1.749 1.6418
2575.186 1.51908 1.50307 1.7705 1.8079 1.607 1.7194 1.7619 1.7126 1.7438 1.6455
2594.475 1.51596 1.47988 1.655 1.925 1.8862 1.7635 1.6935 1.6845 1.6055 1.46987
2613.765 1.5322 1.7345 1.8396 1.5369 1.113 1.188 1.5313 1.9508 1.709 1.3622
2633.055 1.5239 1.7396 2.0701 1.9114 1.5996 1.6222 1.6397 1.531 1.41507 1.3517
2652.345 1.6064 1.7096 1.3804 1.45085 1.6816 0.924 0.771 1.4818 1.3511 1.321
2671.634 1.6073 1.4035 1.3552 1.44533 1.45141 1.3591 1.3675 1.49696 1.5466 1.5827
2690.924 1.287 1.47902 1.3805 1.266 1.5636 1.265 1.233 1.7668 1.9479 1.6279
2710.214 1.9364 1.9547 1.5439 1.44428 1.44219 1.7427 1.8072 1.527 1.42504 1.46617
2729.504 1.7235 2.0446 1.6426 1.165 1.264 1.68 1.273 0.982 1.50902 1.46378
2748.794 1.3734 1.5996 1.6586 1.6498 1.42917 1.5467 2.0692 1.6194 1.12 1.119
2768.083 1.306 1.5972 1.845 2.0413 1.6839 1.3804 1.3304 1.5483 1.3773 0.973
2787.373 0.932 1.311 1.287 1.198 1.3862 1.3669 1.45242 1.5561 1.7976 1.7207
2806.663 1.46427 1.5763 1.6932 1.308 1.22 1.4009 1.24 1.3261 1.246 0.839
2825.953 1.209 1.43114 1.305 1.271 1.45299 1.5587 1.3766 1.3918 1.215 1.172
2845.242 1.258 1.3258 1.51274 1.7065 1.6608 1.7902 1.51419 0.916 1.365 1.5455
2864.532 1.108 1.207 0.982 1.004 1.5211 1.135 1.161 1.50168 1.734 1.9447
2883.822 1.50024 1.45292 1.9098 1.9134 1.6778 1.6341 1.382 1.275 1.295 1.41926
2903.112 1.5578 1.43802 1.8861 2.047 1.9071 2.1048 2.1929 2.1052 2.1459 2.83
2922.401 3.2 3.22 2.99 2.76 2.7 2.71 2.74 2.285 2.0545 2.3134
2941.691 2.2967 2.1139 2.4064 2.1753 1.8737 1.9368 2.182 2.3887 2.0886 1.6827
2960.981 1.5513 2.241 2.2595 1.62 1.6362 1.5845 1.6906 1.8017 1.5434 2.0261
2980.271 2.3173 2.1884 1.8613 1.6697 1.9404 1.7723 1.6579 1.6296 1.5288 1.3704
2999.561 1.47798 1.4008 1.6243 2.2225 2.2213 2.0991 2.0767 2.2624 2.7 2.91
3018.850 2.95 2.66 2.56 2.57 2.59 2.95 2.93 3.24 3.66 3.74
3038.140 3.56 3.3 2.85 2.3098 2.78 3.12 3 3.14 3.3 4.08
3057.430 4.69 5.1 5.89 6.91 7.84 8.65 9.62 10.64 11.54 11.94
3076.720 12.12 11.82 10.87 9.99 8.98 7.6 6.68 5.5 4.5 4.3
3096.009 4.03 3.32 2.66 2.61 2.58 2.4029 2.3698 2.0808 1.8365 2.0658
3115.299 1.773 1.6472 1.43396 1.146 1.50339 1.5838 1.3799 1.5975 1.9033 1.9017
3134.589 1.7728 1.5403 1.5249 1.17 1.047 1.31 1.41431 1.295 1.01 1.039
3153.879 1.181 1.219 1.3303 1.6594 1.6736 1.5663 1.42366 1.7106 1.9228 1.7057
3173.169 1.776 1.166 1.171 1.9417 2.0545 1.8692 1.838 1.6916 1.5015 1.22
3192.458 1.261 1.5408 1.46403 1.4009 1.185 1.206 1.072 1.233 1.9283 2.02
3211.748 1.5765 1.144 1.5389 2.1504 1.9165 1.41727 1.50609 1.6055 1.8672 1.8843
3231.038 1.5801 1.5782 1.5213 1.538 1.46429 1.50227 1.5979 1.6651 1.6275 1.6735
3250.328 1.157 1.042 1.043 1.02 1.51037 1.43715 1.6835 1.9398 1.23 0.662
3269.617 0.921 0.959 1.306 1.5371 0.989 0.944 1.312 1.137 1.291 1.5369
3288.907 0.807 0.722 1.47704 1.5632 1.245 0.732 0.602 1.041 1.5312 1.9957
3308.197 1.6519 1.297 1.038 1.16 1.47394 1.5564 1.8438 1.3976 1.3935 1.9117
3327.487 1.801 1.6402 1.6518 1.9458 1.7585 1.6733 1.998 1.7475 1.3502 0.817
3346.777 1.113 1.29 1.292 1.9926 1.9205 1.43138 1.7357 1.8943 1.392 1.276
3366.066 1.3839 1.313 1.49478 2.0789 1.8927 1.43724 1.138 1.012 1.285 1.154
3385.356 1.4036 1.42016 1.46825 2.202 2.0878 1.3252 0.841 1.175 1.47226 1.3451
3404.646 1.5371 1.948 1.8927 1.9465 1.8581 1.8319 1.8972 1.9181 1.8465 1.8237
3423.936 1.9239 1.19 0.717 0.837 1.174 1.234 1.009 1.312 2.0498 1.49033
3443.225 0.676 0.983 0.669 0.3 0.41 0.478 0.468 0.644 0.858 1.092
3462.515 1.249 1.353 1.8504 2.0193 2.0424 1.6245 1.3681 1.8258 1.9125 1.41258
3481.805 1.5938 2.3495 1.7192 0.641 0.709 1.187 1.244 1.201 1.041 1.044
3501.095 1.3343 1.48338 1.257 0.985 1.04 1.064 0.98 1.096 0.881 0.805
3520.385 1.4321 1.5952 1.5703 1.309 1.108 1.3566 1.255 1.45348 1.7881 1.43466
3539.674 1.3201 0.923 0.955 1.5935 1.5613 1.206 1.3625 1.8291 1.604 1.711
3558.964 1.8922 1.229 0.604 0.884 1.047 0.976 1.525 1.7859 1.3667 1.211
3578.254 0.793 0.35 0.64 0.874 1.124 1.7026 2.0162 1.7543 1.5307 1.165
3597.544 1.3301 1.241 0.729 0.828 0.832 1.24 1.004 0.685 0.873 0.482
3616.833 0.681 1.48933 1.797 1.6687 1.7305 2.0413 1.9873 1.9759 1.9343 1.6375
3636.123 1.50926 1.152 1.6322 1.815 1.5473 1.7391 1.5696 1.776 1.653 1.264
3655.413 1.292 1.7788 1.5465 1.31 1.4051 1.6372 1.9494 1.5788 1.236 0.881
3674.703 1.11 1.352 1.5582 1.7756 1.6736 1.48954 1.7097 2.2472 2.3975 2.1041
3693.993 0.992 0.621 1.249 1.44021 1.51196 1.222 0.934 1.262 1.5804 0.992
3713.282 1.21 2.2416 2.1597 1.6972 1.157 0.81 1.144 1.079 0.31 0.28
3732.572 0.899 0.836 0.762 1.133 1.3346 1.48232 1.7387 1.7745 1.47526 1.7243
3751.862 2.1707 1.8085 1.272 1.311 1.6627 1.5424 1.206 1.3319 1.7015 1.42356
3771.152 1.112 0.717 0.882 1.5744 1.47202 1.7314 1.4009 0.935 1.50848 1.8343
3790.441 1.6954 1.03 0.713 1.42847 2.1165 2.0123 1.7453 1.3832 0.934 1.049
3809.731 1.6879 1.8819 1.3839 1.3241 1.073 1.299 1.6681 1.9201 1.8593 1.3531
3829.021 0.809 0 0.578 1.374 1.306 1.4589 2.1166 2.2935 1.9415 1.7022
3848.311 2.0488 2.0151 1.6957 1.5397 1.021 0.895 1.025 1.4198 1.7037 1.44544
3867.601 1.5787 1.956 1.6222 1.285 1.306 1.3441 1.26 0.738 0.41 1.19
3886.890 1.7268 1.51243 1.9091 2.0459 1.4213 1.19 1.827 1.9551 1.7676 1.7255
3906.180 1.44125 1.43446 1.077 0.855 0.942 1.123 1.7106 1.8029 1.41243 1.48719
3925.470 0.977 1.06 1.46578 1.191 0.833 0.883 0.822 0.722 0.955 0.11
3944.760 0.23 0.845 0.513 0.595 1.209 1.722 1.5747 1.49406 1.6659 1.6474
3964.049 2.2207 1.8042 0.616 0.481 0.817 0.912 1.079 0.976 1.001 1.49311
3983.339 1.5462 1.44908 0.844 0.848 1.078 1.3816 1.7351 1.696 1.5912 1.3782
##END=
