##TITLE=4-Penten-1-ol acetate
##JCAMP-DX=4.24
##DATA TYPE=INFRARED SPECTRUM
##ORIGIN=NIST Mass Spectrometry Data Center
##OWNER=NIST Standard Reference Data Program
Collection (C) 2018 copyright by the U.S. Secretary of Commerce
on behalf of the United States of America. All rights reserved.
##CAS REGISTRY NO=1576-85-8
##MOLFORM=C 7 H 12 O 2
##$NIST SOURCE=MSDC-IR
##SPECTROMETER/DATA SYSTEM=HP-GC/MS/IRD
##STATE=gas
##XUNITS=1/CM
##YUNITS=ABSORBANCE
##XFACTOR=1.0
##YFACTOR=0.000003800
##DELTAX=4.0
##FIRSTX=550.0
##LASTX=3846.0
##FIRSTY=0.000327
##MAXX=3846
##MINX=550
##MAXY=0.038
##MINY=0
##NPOINTS=825
##XYDATA=(X++(Y..Y))
550.0 86 52 34 58 46 11 4 19 32 52
590.0 87 116 137 176 200 217 249 284 285 292
630.0 318 313 276 246 207 167 132 112 105 76
670.0 56 55 51 47 33 17 14 6 1 9
710.0 13 10 6 2 6 17 14 8 15 32
750.0 50 58 54 52 51 46 45 47 49 51
790.0 41 43 54 62 76 91 113 136 143 148
830.0 160 185 193 194 207 213 224 249 272 290
870.0 299 309 320 330 341 360 401 472 569 683
910.0 816 924 973 948 859 745 640 558 509 492
950.0 497 496 482 468 470 486 504 532 571 626
990.0 675 710 747 794 880 1002 1160 1338 1516 1674
1030.0 1809 1921 1986 2013 1991 1918 1823 1718 1602 1483
1070.0 1366 1260 1153 1037 923 817 712 624 551 480
1110.0 427 383 336 297 275 254 243 235 226 224
1150.0 227 233 246 265 285 310 356 416 501 634
1190.0 817 1057 1401 1864 2503 3405 4636 6177 7824 9217
1230.0 10000 9944 9015 7505 5885 4520 3498 2749 2208 1802
1270.0 1492 1256 1070 926 822 742 679 618 555 493
1310.0 438 401 371 342 320 304 296 313 347 416
1350.0 534 729 1030 1355 1581 1679 1622 1413 1195 1054
1390.0 969 886 763 625 509 430 390 373 375 387
1430.0 402 435 476 509 535 549 540 522 495 460
1470.0 427 393 352 307 264 230 204 178 163 152
1510.0 142 135 129 124 120 116 112 109 111 113
1550.0 105 104 98 95 97 89 84 82 85 82
1590.0 84 92 95 99 106 115 127 152 188 228
1630.0 284 345 394 409 391 337 261 210 180 163
1670.0 156 155 157 157 173 197 217 251 301 357
1710.0 428 513 624 756 932 1162 1457 1865 2402 3092
1750.0 3956 4851 5481 5686 5510 4864 3865 2922 2168 1579
1790.0 1154 859 659 523 428 359 305 268 244 231
1830.0 223 214 197 176 152 133 119 102 92 84
1870.0 79 73 67 63 58 61 60 54 52 52
1910.0 53 50 43 40 36 34 32 29 28 29
1950.0 30 34 36 38 39 38 38 39 38 39
1990.0 41 39 38 39 36 33 33 36 34 26
2030.0 25 33 33 36 39 37 40 40 37 33
2070.0 37 39 34 33 37 42 44 41 39 38
2110.0 40 39 35 29 27 23 18 16 11 11
2150.0 8 5 7 7 5 1 3 6 7 6
2190.0 6 11 12 6 6 7 6 6 6 4
2230.0 0 0 3 5 7 7 8 8 7 1
2270.0 4 13 9 7 10 10 6 5 5 9
2310.0 9 9 6 4 7 4 3 5 5 7
2350.0 10 6 3 1 0 0 1 0 3 3
2390.0 1 2 2 4 7 5 2 1 2 6
2430.0 8 10 10 5 12 16 18 16 12 12
2470.0 14 11 3 1 2 6 11 10 4 4
2510.0 6 4 6 8 4 2 0 2 6 9
2550.0 13 8 5 5 2 3 5 3 2 3
2590.0 7 9 5 7 7 6 7 12 14 7
2630.0 6 5 1 5 8 9 8 6 10 10
2670.0 9 14 16 18 19 15 11 12 17 23
2710.0 21 21 24 27 25 25 24 20 23 23
2750.0 26 30 31 31 37 34 27 28 31 30
2790.0 29 39 45 45 46 55 59 64 82 98
2830.0 112 145 183 218 257 303 345 371 390 395
2870.0 389 388 394 410 435 472 520 570 621 685
2910.0 763 850 934 1018 1105 1179 1247 1325 1390 1444
2950.0 1480 1495 1492 1468 1420 1359 1294 1222 1132 1019
2990.0 906 812 724 647 580 524 469 411 363 325
3030.0 290 261 246 241 244 248 255 279 308 332
3070.0 364 406 477 551 570 542 484 373 264 193
3110.0 152 132 116 101 87 71 63 60 49 47
3150.0 46 36 31 28 30 39 34 25 28 31
3190.0 27 19 19 17 10 16 17 15 20 16
3230.0 10 13 9 6 8 12 15 10 12 11
3270.0 9 24 23 18 15 10 9 21 25 20
3310.0 14 11 14 11 15 11 11 13 10 14
3350.0 11 5 5 14 22 16 19 17 16 22
3390.0 12 17 25 18 18 19 17 14 18 17
3430.0 16 19 17 20 32 28 30 37 36 42
3470.0 48 45 48 56 60 73 85 86 84 95
3510.0 94 79 75 75 56 45 45 38 37 32
3550.0 26 34 33 29 34 27 22 25 28 21
3590.0 12 8 17 29 17 2 10 25 22 19
3630.0 24 21 18 19 24 17 8 14 19 20
3670.0 19 18 14 10 15 23 26 19 21 24
3710.0 21 20 21 28 22 6 10 18 10 1
3750.0 14 19 17 16 4 12 19 16 29 32
3790.0 24 16 17 28 25 15 19 17 16 16
3830.0 12 5 6 16 24
##END=
