##TITLE=.alpha.-Fluorophenylacetic acid
##JCAMP-DX=4.24
##DATA TYPE=INFRARED SPECTRUM
##ORIGIN=EPA-IR VAPOR PHASE LIBRARY
##OWNER=SRD/NIST
Collection (C) 2018 copyright by the U.S. Secretary of Commerce
on behalf of the United States of America. All rights reserved.
##CAS REGISTRY NO=1578-63-8
##MOLFORM=C 8 H 7 F O 2
##$NIST SOURCE=MSDC-IR
##STATE=gas
##XUNITS=1/CM
##YUNITS=ABSORBANCE
##XFACTOR=1.
##YFACTOR=0.001
##DELTAX=1.92898
##FIRSTX=549.8
##LASTX=4000.7
##FIRSTY=8.535
##MAXX=4000.7
##MINX=549.759
##MAXY=0.040455
##MINY=0
##NPOINTS=1790
##XYDATA=(X++(Y..Y))
549.759 8.535 8.865 8.975 9.475 9.355 9.415 9.295 8.355 8.075 8.125
569.049 8.045 7.735 7.845 7.775 7.235 6.605 6.855 7.485 7.235 7.525
588.339 8.205 8.515 9.385 11.495 14.005 16.545 19.365 21.555 23.005 24.365
607.628 25.055 24.845 24.275 23.305 21.635 19.105 16.025 13.485 11.785 10.345
626.918 9.185 8.765 8.625 8.505 9.095 9.365 9.305 9.425 9.665 9.965
646.208 10.125 9.965 9.565 9.145 8.715 8.245 7.965 7.745 6.965 6.685
665.498 6.885 7.235 7.305 6.985 6.635 6.725 7.585 8.335 8.975 9.955
684.787 11.225 12.305 12.965 13.575 14.515 14.825 14.955 14.885 14.175 13.475
704.077 12.855 12.435 12.015 11.675 11.445 11.395 11.545 11.525 11.355 10.775
723.367 10.225 10.155 9.775 9.205 8.955 8.475 7.915 7.685 7.525 7.195
742.657 6.915 7.195 7.415 7.675 7.805 8.015 8.205 7.855 7.445 6.805
761.947 6.075 5.795 5.805 5.215 4.605 4.615 4.175 3.505 3.555 3.255
781.236 2.695 2.735 2.495 2.315 2.095 1.765 1.745 1.565 1.287 1.3674
800.526 1.465 1.485 1.635 1.485 1.475 1.308 0.8088 0.8923 1.2339 1.0829
819.816 0.8202 1.2109 1.475 1.1227 1.193 1.495 1.2255 1.3611 1.465 1.555
839.106 1.915 1.935 1.955 2.135 2.495 2.305 1.905 1.915 2.455 2.465
858.395 2.185 2.425 2.405 2.595 2.775 2.685 2.495 2.315 2.485 3.095
877.685 3.455 3.615 4.005 4.145 4.455 4.775 4.845 5.015 4.745 4.475
896.975 4.775 4.725 4.385 4.305 4.205 3.975 4.205 4.355 3.715 3.355
916.265 3.375 3.435 3.415 3.255 3.155 3.075 3.175 2.855 2.495 2.455
935.555 2.105 1.955 2.095 2.425 2.495 2.225 2.105 1.975 1.855 1.695
954.844 1.645 1.865 1.985 1.965 2.025 1.895 1.715 1.925 1.945 2.005
974.134 2.205 2.535 2.615 2.395 2.395 2.055 2.555 3.095 2.865 3.095
993.424 3.495 3.885 4.085 4.275 4.495 4.595 4.885 5.205 4.935 4.645
1012.714 5.345 5.685 5.885 6.365 6.755 7.235 7.485 7.795 7.865 8.345
1032.003 8.945 9.165 10.085 10.895 11.015 11.755 12.805 13.785 14.355 15.345
1051.293 16.905 17.315 17.765 18.215 18.055 18.405 18.665 18.085 17.675 17.595
1070.583 17.085 16.905 16.745 16.705 16.215 15.745 15.285 15.065 15.595 15.815
1089.873 16.215 15.315 14.385 13.855 13.505 14.055 14.225 14.835 15.685 16.045
1109.163 16.405 16.825 17.775 19.375 20.645 19.615 19.355 20.005 19.965 20.295
1128.452 20.645 20.155 19.265 19.785 19.935 19.395 19.535 19.125 19.635 20.895
1147.742 21.085 21.555 21.985 21.995 21.495 21.095 21.415 20.905 19.055 17.135
1167.032 15.795 14.755 13.645 12.745 12.125 11.085 10.025 10.125 9.965 9.475
1186.322 9.825 10.185 10.205 9.985 10.045 9.675 9.465 9.655 8.355 7.075
1205.611 7.535 7.265 6.175 5.725 5.505 5.685 5.495 5.155 4.595 3.855
1224.901 4.055 3.965 3.615 3.745 4.045 4.405 4.275 3.965 4.305 4.295
1244.191 4.225 4.775 5.005 5.195 5.615 5.805 5.695 5.815 6.085 6.555
1263.481 6.685 6.535 6.955 7.225 7.135 7.385 7.375 7.095 7.405 7.545
1282.771 7.525 7.875 8.245 8.365 8.505 8.565 8.765 9.045 9.355 9.715
1302.060 10.065 10.775 11.295 11.655 12.155 12.795 13.375 13.765 14.215 14.715
1321.350 15.155 15.455 15.725 15.885 15.925 15.905 15.755 15.455 14.995 14.575
1340.640 14.095 13.475 12.965 12.415 11.795 11.295 10.815 10.495 10.245 10.035
1359.930 9.805 9.565 9.405 9.155 9.015 8.825 8.575 8.405 8.165 7.775
1379.219 7.365 7.015 6.505 6.025 5.665 5.105 4.555 4.165 3.835 3.545
1398.509 3.285 3.035 2.825 2.705 2.635 2.505 2.305 2.295 2.245 2.135
1417.799 2.155 2.155 2.125 2.055 2.065 2.075 2.105 2.175 2.175 2.195
1437.089 2.275 2.555 2.685 2.805 3.115 3.285 3.425 3.565 3.705 3.745
1456.378 3.835 3.845 3.575 3.335 3.155 2.835 2.455 2.265 2.245 2.075
1475.668 1.855 1.725 1.705 1.765 1.845 2.075 2.435 2.825 3.075 3.315
1494.958 3.555 3.595 3.575 3.515 3.385 3.105 2.605 2.235 1.965 1.655
1514.248 1.4619 1.3043 1.179 1.1917 1.2097 1.1276 1.143 1.2432 1.0686 0.9807
1533.538 1.0805 1.0252 1.0024 0.9831 0.9805 0.9946 0.9109 0.9572 0.981 0.8748
1552.827 0.8517 0.9212 1.1121 1.0439 0.9314 1.0495 0.9873 0.9099 0.9077 0.8853
1572.117 0.9456 1.0941 1.0304 0.9425 1.0271 1.1285 1.1287 1.2193 1.31 1.3004
1591.407 1.3485 1.3781 1.3701 1.4203 1.4384 1.3867 1.4009 1.475 1.4627 1.3565
1610.697 1.3021 1.2685 1.1985 1.1793 1.059 0.9815 1.1043 1.0125 1.0023 1.0642
1629.986 0.9955 0.9434 0.9358 1.0301 0.9827 1.0623 1.2182 1.1051 1.0924 0.9873
1649.276 0.8676 0.938 0.9722 1.0328 1.0879 1.106 1.0267 0.9679 0.9631 1.0112
1668.566 1.1422 1.103 1.0198 1.0615 1.028 0.9637 0.9722 1.1133 1.125 1.0513
1687.856 1.0545 1.0427 1.1242 1.1218 1.0887 1.0742 1.2777 1.453 1.2877 1.354
1707.146 1.535 1.635 1.725 1.925 2.165 2.185 2.285 2.405 2.435 2.665
1726.435 3.025 3.385 3.675 3.995 4.385 4.625 4.965 5.555 6.105 6.705
1745.725 7.405 8.035 8.785 9.695 10.615 11.535 12.505 13.595 14.785 16.105
1765.015 17.615 19.185 20.635 22.165 23.935 25.605 27.225 28.775 30.205 31.605
1784.305 32.945 34.165 35.355 36.405 37.365 38.415 39.375 40.175 40.455 40.275
1803.594 39.745 38.595 36.915 34.745 32.105 29.315 26.395 23.625 21.215 18.995
1822.884 17.035 15.315 13.825 12.445 11.115 10.095 9.065 8.105 7.365 6.665
1842.174 6.085 5.525 5.105 4.735 4.355 4.095 3.865 3.625 3.425 3.145
1861.464 2.855 2.695 2.475 2.345 2.265 2.145 2.085 1.945 1.925 1.985
1880.754 1.775 1.615 1.635 1.595 1.535 1.485 1.4312 1.4182 1.465 1.475
1900.043 1.4222 1.3721 1.3302 1.3263 1.3551 1.3124 1.2559 1.2491 1.1585 1.0327
1919.333 0.996 1.0666 1.0945 1.0473 1.0604 1.1058 1.068 1.0279 1.0971 1.1149
1938.623 1.1251 1.1126 1.19 1.3187 1.2823 1.2237 1.2511 1.2651 1.2117 1.2255
1957.913 1.3231 1.374 1.3037 1.2676 1.2595 1.283 1.2725 1.1549 1.1119 1.0066
1977.202 0.8214 0.8048 0.8118 0.6894 0.6155 0.6369 0.7287 0.7998 0.7075 0.6699
1996.492 0.7562 0.7218 0.6761 0.6725 0.7373 0.7772 0.6569 0.6592 0.7135 0.6396
2015.782 0.6152 0.6532 0.6298 0.5985 0.56406 0.49031 0.51423 0.56113 0.6596 0.7467
2035.072 0.7456 0.7395 0.7994 0.8266 0.7693 0.789 0.7233 0.7822 0.9086 0.804
2054.362 0.6986 0.6882 0.6316 0.6393 0.7555 0.8122 0.8494 0.7587 0.7057 0.7394
2073.651 0.7095 0.6564 0.6898 0.6439 0.6862 0.8005 0.6356 0.51562 0.6333 0.763
2092.941 0.7156 0.6446 0.6382 0.6215 0.5852 0.56389 0.50918 0.55651 0.6296 0.53265
2112.231 0.48721 0.53945 0.50061 0.48332 0.6339 0.671 0.53874 0.48595 0.50936 0.5682
2131.521 0.55564 0.6008 0.6183 0.48962 0.6136 0.6814 0.6117 0.6774 0.6719 0.621
2150.810 0.6608 0.6356 0.5934 0.6968 0.6147 0.49107 0.49247 0.5842 0.6171 0.656
2170.100 0.7579 0.8088 0.8869 0.7952 0.5756 0.50925 0.6542 0.7239 0.6608 0.5811
2189.390 0.6109 0.5965 0.53925 0.6246 0.7559 0.7675 0.7066 0.6424 0.5687 0.5705
2208.680 0.6703 0.7701 0.8121 0.669 0.6157 0.6711 0.6641 0.8002 0.7678 0.5833
2227.970 0.6681 0.7861 0.7453 0.6553 0.56056 0.618 0.6429 0.6213 0.6865 0.7065
2247.259 0.6595 0.52262 0.3776 0.5873 0.692 0.6543 0.6816 0.5948 0.469759 0.473033
2266.549 0.6295 0.7118 0.6875 0.6529 0.7589 0.7602 0.629 0.7203 0.8296 0.8415
2285.839 0.853 0.8621 0.9891 1.0022 1.0036 1.0568 1.0991 1.2266 1.2024 1.2336
2305.129 1.3484 1.4057 1.485 1.515 1.675 1.775 1.785 1.755 1.725 1.765
2324.418 1.865 2.075 1.965 1.755 1.855 1.975 1.895 1.755 1.725 1.665
2343.708 1.735 1.665 1.615 1.685 1.745 1.935 1.985 2.035 2.155 2.225
2362.998 2.235 2.165 2.105 1.975 1.905 1.995 1.915 1.755 1.615 1.3895
2382.288 1.1344 0.9454 0.843 0.7201 0.7393 0.832 0.7874 0.7487 0.6542 0.5548
2401.578 0.6202 0.7229 0.644 0.5654 0.5265 0.52431 0.6419 0.6686 0.5945 0.55986
2420.867 0.6144 0.55299 0.5773 0.6569 0.6375 0.6338 0.6146 0.6982 0.7068 0.6741
2440.157 0.6765 0.78 0.8728 0.7293 0.5919 0.5775 0.6113 0.6063 0.5767 0.47136
2459.447 0.4193 0.55446 0.56281 0.49658 0.53109 0.5864 0.6238 0.5737 0.6496 0.7403
2478.737 0.7237 0.623 0.55274 0.6702 0.8188 0.7591 0.7499 0.7601 0.7234 0.7005
2498.026 0.6511 0.5836 0.53514 0.4332 0.4338 0.50384 0.46051 0.55044 0.6035 0.6214
2517.316 0.6156 0.6056 0.52316 0.4352 0.4056 0.46857 0.467108 0.4455 0.55385 0.499
2536.606 0.341 0.3907 0.51467 0.47528 0.5029 0.55118 0.5449 0.52212 0.55991 0.52445
2555.896 0.52994 0.6844 0.6258 0.5119 0.55107 0.6081 0.601 0.6896 0.6347 0.5929
2575.186 0.7166 0.7233 0.5931 0.54344 0.54078 0.465898 0.465528 0.53532 0.55565 0.48826
2594.475 0.4062 0.470336 0.7386 0.7555 0.6495 0.55288 0.45647 0.52131 0.50166 0.4073
2613.765 0.345 0.338 0.47748 0.4785 0.355 0.33 0.3963 0.53748 0.6116 0.534
2633.055 0.53031 0.6683 0.6364 0.5928 0.6214 0.51398 0.4058 0.51876 0.5708 0.51117
2652.345 0.49048 0.55781 0.6224 0.53526 0.5796 0.6532 0.6828 0.6745 0.5669 0.50828
2671.634 0.54338 0.4419 0.5999 0.7681 0.54521 0.53672 0.470836 0.50254 0.7055 0.6993
2690.924 0.7181 0.6003 0.49679 0.49195 0.4426 0.55586 0.6 0.6464 0.51405 0.3653
2710.214 0.36 0.356 0.52492 0.51683 0.49586 0.52646 0.51319 0.52135 0.5782 0.5966
2729.504 0.4458 0.3911 0.6332 0.6748 0.466293 0.335 0.328 0.326 0.277 0.3896
2748.794 0.52759 0.5859 0.55381 0.471009 0.45673 0.4203 0.384 0.318 0.351 0.3735
2768.083 0.321 0.54445 0.5846 0.363 0.256 0.347 0.465636 0.3814 0.3937 0.6318
2787.373 0.664 0.48473 0.347 0.3995 0.47892 0.3973 0.46135 0.5143 0.4148 0.3777
2806.663 0.4128 0.6039 0.5801 0.439 0.6008 0.6864 0.6332 0.6178 0.6481 0.54619
2825.953 0.6042 0.625 0.302 0.4171 0.6403 0.52103 0.51697 0.5836 0.469938 0.48261
2845.242 0.56414 0.469909 0.4047 0.3971 0.3788 0.4388 0.5809 0.7137 0.7101 0.6372
2864.532 0.6963 0.7111 0.71 0.7069 0.6104 0.49605 0.52628 0.6121 0.52843 0.55364
2883.822 0.55881 0.5914 0.7569 0.8435 0.7817 0.7847 0.9297 0.9646 0.9462 0.9066
2903.112 0.7935 0.8832 0.928 0.9406 1.1311 0.966 0.8611 1.1058 1.0897 0.9538
2922.401 0.9784 1.2149 1.465 1.4402 1.4135 1.525 1.615 1.605 1.615 1.645
2941.691 2.035 2.275 2.375 2.515 2.365 2.525 2.725 2.755 2.495 2.225
2960.981 2.255 2.065 1.875 1.745 1.495 1.3801 1.4588 1.3819 1.2182 1.1727
2980.271 1.1903 1.2214 1.0739 0.8589 0.7575 0.8899 1.092 1.0814 1.0536 1.0545
2999.561 0.9801 1.0416 1.1909 1.1005 0.9859 1.0006 1.131 1.3432 1.4568 1.545
3018.850 1.735 1.845 1.975 2.495 2.845 2.885 3.115 3.585 4.065 4.375
3038.140 4.535 4.685 4.915 4.995 5.005 5.015 4.685 4.305 4.415 4.385
3057.430 4.175 4.235 4.135 4.355 4.945 5.435 5.795 6.185 6.715 6.885
3076.720 6.885 6.845 6.365 5.825 5.505 5.105 4.355 3.905 3.895 3.785
3096.009 3.565 3.355 3.085 2.745 2.725 2.575 2.265 2.265 2.265 2.075
3115.299 1.975 1.815 1.555 1.4609 1.3884 1.3121 1.1783 0.8963 0.52494 0.6712
3134.589 0.8689 0.685 0.648 0.6701 0.52749 0.307 0.4129 0.4441 0.354 0.47878
3153.879 0.7214 0.7012 0.4033 0.3756 0.397 0.3655 0.4388 0.467296 0.470405 0.54833
3173.169 0.6573 0.5531 0.314 0.4455 0.55396 0.354 0.165 0.197 0.3787 0.4543
3192.458 0.3871 0.3803 0.4415 0.3976 0.6044 0.7689 0.7823 0.7028 0.5999 0.55837
3211.748 0.5705 0.6995 0.6422 0.6134 0.50105 0.328 0.242 0.248 0.3907 0.277
3231.038 0.03 0.107 0.146 0.166 0.202 0.353 0.5731 0.4234 0.205 0.269
3250.328 0.467171 0.6729 0.6396 0.3698 0.351 0.256 0.106 0.264 0.3661 0.293
3269.617 0.48518 0.51431 0.191 0.32 0.5861 0.3792 0.3921 0.6236 0.471667 0.155
3288.907 0.132 0.3793 0.49665 0.48118 0.344 0.206 0.236 0.323 0.4116 0.54459
3308.197 0.352 0.102 0.272 0.326 0.276 0.231 0.228 0.278 0.158 0.188
3327.487 0.327 0.3867 0.48896 0.55984 0.365 0.327 0.599 0.54025 0.345 0.327
3346.777 0.36 0.4239 0.6267 0.7155 0.45949 0.244 0.273 0.265 0.470064 0.5955
3366.066 0.345 0.4005 0.5999 0.45561 0.228 0.308 0.214 0.077 0.193 0.52912
3385.356 0.6109 0.384 0.474494 0.3692 0.29 0.52155 0.56332 0.4397 0.6251 0.6034
3404.646 0.4264 0.49136 0.362 0.233 0.167 0.163 0.109 0.008 0.248 0.163
3423.936 0.127 0.3923 0.49039 0.3861 0.33 0.4458 0.5823 0.53188 0.464159 0.5797
3443.225 0.349 0.47974 0.5908 0.306 0.261 0.4287 0.49667 0.5446 0.4172 0.3741
3462.515 0.6275 0.45812 0.346 0.5605 0.4393 0.4451 0.6357 0.52829 0.3806 0.363
3481.805 0.41 0.329 0.274 0.35 0.6062 0.8339 0.6995 0.45659 0.4267 0.5933
3501.095 0.5711 0.48276 0.5863 0.6176 0.4533 0.4415 0.56025 0.6862 0.898 0.7577
3520.385 0.6493 0.9335 0.8879 0.8107 0.9555 1.0987 1.3587 1.44 1.3718 1.715
3539.674 1.955 1.835 1.995 2.265 2.485 3.015 3.775 4.405 5.305 6.795
3558.964 8.755 10.625 13.305 16.535 19.555 21.995 23.685 25.045 25.545 25.255
3578.254 24.395 22.895 20.175 17.005 13.935 11.195 9.015 7.145 5.685 4.495
3597.544 3.595 2.905 2.485 2.225 1.785 1.4029 1.4012 1.4064 1.2283 1.1877
3616.833 1.1771 1.14 1.196 1.0974 0.7434 0.67 0.7609 0.6744 0.8274 1.094
3636.123 1.0139 0.8448 0.9274 0.988 0.721 0.51556 0.6548 0.7359 0.708 0.6224
3655.413 0.49172 0.354 0.3829 0.4254 0.4167 0.52946 0.4103 0.274 0.331 0.329
3674.703 0.302 0.309 0.3864 0.344 0.334 0.54745 0.5803 0.6867 0.752 0.4345
3693.993 0.3874 0.4274 0.331 0.117 0.288 0.47922 0.3744 0.51304 0.5815 0.4054
3713.282 0.47866 0.8188 0.7082 0.6442 0.7495 0.5945 0.6513 0.7653 0.49456 0.3862
3732.572 0.53109 0.6196 0.474307 0.224 0.277 0.3913 0.321 0.3669 0.354 0.285
3751.862 0.23 0.4018 0.54737 0.4006 0.5806 0.7218 0.47717 0.4003 0.54629 0.51382
3771.152 0.6054 0.7489 0.52906 0.138 0.179 0.211 0.23 0.50242 0.6247 0.6187
3790.441 0.54701 0.52693 0.4493 0.239 0.189 0.371 0.298 0.105 0.187 0.317
3809.731 0.3813 0.208 0.123 0.317 0.286 0.28 0.4065 0.3832 0.185 0.243
3829.021 0.286 0.015 0.129 0.347 0.54729 0.4086 0.189 0.4398 0.6349 0.6453
3848.311 0.49973 0.316 0.238 0.4424 0.50625 0.307 0.329 0.3685 0.339 0.336
3867.601 0.172 0.133 0.165 0.098 0.303 0.5815 0.6651 0.6547 0.51952 0.356
3886.890 0.338 0.6055 0.6844 0.447 0.269 0.4012 0.5815 0.468453 0.4324 0.4013
3906.180 0.3917 0.3836 0.3823 0.345 0.25 0.198 0.129 0.18 0.192 0.135
3925.470 0.4492 0.5845 0.4311 0.4067 0.3916 0.52092 0.247 0 0.16 0.345
3944.760 0.5335 0.5985 0.6271 0.4524 0.186 0.229 0.339 0.341 0.50648 0.45724
3964.049 0.5922 0.8054 0.3955 0.286 0.303 0.3727 0.47325 0.5661 0.4134 0.358
3983.339 0.4518 0.177 0.154 0.311 0.45806 0.54176 0.6031 0.6118 0.601 0.48621
##END=
