##TITLE=5-(3-Aminophenyl)oxazole
##JCAMP-DX=4.24
##DATA TYPE=INFRARED SPECTRUM
##ORIGIN=EPA-IR VAPOR PHASE LIBRARY
##OWNER=SRD/NIST
Collection (C) 2018 copyright by the U.S. Secretary of Commerce
on behalf of the United States of America. All rights reserved.
##CAS REGISTRY NO=157837-31-5
##MOLFORM=C 9 H 8 N 2 O
##$NIST SOURCE=MSDC-IR
##STATE=gas
##XUNITS=1/CM
##YUNITS=ABSORBANCE
##XFACTOR=1.
##YFACTOR=0.001
##DELTAX=1.92898
##FIRSTX=549.8
##LASTX=4000.7
##FIRSTY=3.612
##MAXX=4000.7
##MINX=549.759
##MAXY=0.058882
##MINY=0
##NPOINTS=1790
##XYDATA=(X++(Y..Y))
549.759 3.612 3.652 3.372 3.262 3.122 3.992 5.002 5.412 5.612 5.542
569.049 5.012 5.072 5.042 5.022 5.592 5.682 5.142 5.192 5.602 5.172
588.339 4.972 4.942 4.532 4.732 5.332 5.512 5.212 5.192 4.952 4.852
607.628 4.952 5.502 6.142 6.372 6.332 6.202 8.042 9.152 9.492 10.532
626.918 11.862 12.852 14.052 16.232 17.992 19.662 20.272 19.132 18.192 17.652
646.208 17.452 17.612 17.792 18.222 18.192 18.702 20.012 21.232 22.582 24.132
665.498 25.792 27.602 29.232 30.462 31.442 32.022 32.702 33.002 32.822 33.122
684.787 33.882 33.982 31.392 27.232 24.712 22.432 19.812 17.492 14.982 13.122
704.077 11.702 10.312 9.522 9.262 8.912 7.722 7.142 7.592 7.412 6.752
723.367 6.482 6.672 6.472 6.352 6.332 6.002 5.732 5.652 5.332 5.682
742.657 5.882 5.452 5.752 6.162 6.442 6.852 7.542 8.892 9.972 11.012
761.947 12.952 15.032 16.852 18.492 20.122 21.752 23.412 25.232 26.272 25.622
781.236 24.132 22.402 20.812 19.392 17.672 15.772 14.022 12.552 11.892 11.772
800.526 11.352 11.532 12.402 13.362 14.212 14.862 15.752 16.412 18.182 20.742
819.816 20.472 16.942 15.392 15.682 15.462 15.002 13.202 12.062 11.452 11.032
839.106 11.262 11.762 12.192 13.052 15.372 17.922 20.472 22.942 24.642 25.612
858.395 26.232 26.482 25.212 23.172 20.352 17.092 14.542 12.352 9.962 8.482
877.685 7.622 6.732 6.372 5.812 5.332 4.992 4.672 4.452 4.422 4.632
896.975 4.542 4.082 3.752 3.722 3.872 4.342 4.182 4.012 4.392 4.262
916.265 4.322 4.122 4.122 4.662 4.842 4.552 4.422 4.782 5.162 5.482
935.555 5.952 6.772 8.102 9.572 10.682 12.132 13.332 13.812 14.282 14.972
954.844 15.112 14.412 13.472 12.142 11.042 10.502 9.172 7.872 7.022 5.962
974.134 5.722 5.532 4.792 4.432 4.922 5.242 5.262 4.912 5.282 5.622
993.424 4.872 4.592 4.632 4.702 4.112 3.422 3.652 3.822 3.062 2.422
1012.714 3.192 3.922 3.182 2.382 2.982 3.932 3.302 2.642 2.952 3.632
1032.003 3.962 3.912 4.112 4.172 5.312 6.362 5.572 5.902 6.372 5.582
1051.293 5.712 5.622 5.802 6.812 6.462 5.992 6.392 6.672 6.962 7.162
1070.583 7.472 8.502 8.722 8.262 8.992 10.922 12.692 12.852 12.652 14.542
1089.873 18.502 21.772 25.232 30.492 35.192 39.902 42.752 43.942 43.852 40.022
1109.163 37.362 32.222 24.742 18.362 12.142 7.982 5.202 3.692 3.242 3.282
1128.452 2.922 1.922 1.852 1.932 1.562 2.072 1.622 0.4441 1.082 1.512
1147.742 0.8794 0.271 0.264 0.47382 1.2634 2.302 1.822 2.802 3.362 2.612
1167.032 3.522 3.912 2.542 2.092 1.642 1.1618 1.432 0.201 0.5573 1.902
1186.322 2.222 2.332 2.392 2.232 1.4146 0.48121 1.4253 2.652 2.022 3.152
1205.611 4.292 4.202 4.332 4.922 6.352 7.182 8.102 8.652 9.972 9.362
1224.901 9.272 10.602 10.382 10.922 10.982 9.702 8.492 7.992 6.572 4.312
1244.191 4.022 5.002 4.202 3.062 2.962 2.692 3.102 3.882 3.042 2.762
1263.481 4.152 4.532 4.462 4.912 4.842 4.882 5.382 6.052 6.262 6.462
1282.771 6.972 7.722 9.122 10.272 11.442 13.132 14.462 15.352 16.262 16.722
1302.060 16.652 16.152 15.302 14.382 13.422 12.712 12.082 11.342 10.792 10.242
1321.350 9.842 9.992 9.972 9.352 8.642 8.152 7.472 6.562 5.692 4.802
1340.640 4.132 3.762 3.662 3.482 3.082 2.902 2.932 2.952 2.812 2.602
1359.930 2.532 2.392 2.182 1.962 1.912 1.862 1.742 1.552 1.472 1.452
1379.219 1.2378 1.2096 1.3447 1.492 1.3825 1.1926 1.3831 1.642 1.742 1.722
1398.509 1.782 1.962 1.952 1.942 2.192 2.242 2.162 2.382 2.772 3.042
1417.799 3.202 3.472 3.872 4.402 4.712 5.132 5.772 6.152 6.702 7.072
1437.089 7.382 8.072 8.802 9.202 9.552 10.082 10.652 11.022 11.332 11.742
1456.378 11.712 11.622 11.502 11.452 11.552 11.602 11.942 12.592 13.792 15.162
1475.668 16.402 17.822 19.492 21.442 23.622 25.442 26.502 26.682 26.452 26.712
1494.958 27.282 27.682 27.512 26.962 26.262 25.442 24.272 22.962 21.792 20.532
1514.248 19.272 17.582 15.302 13.422 11.992 10.402 9.112 8.422 7.732 7.442
1533.538 7.362 7.352 7.432 7.062 6.772 6.712 6.552 6.632 6.712 6.942
1552.827 7.132 6.932 7.212 7.542 7.912 8.712 9.542 10.782 12.452 14.482
1572.117 17.002 19.432 21.972 24.402 26.232 27.992 29.182 29.412 28.902 28.252
1591.407 27.572 27.072 26.892 26.642 26.472 26.802 27.702 29.082 31.142 34.022
1610.697 37.392 40.782 44.482 48.772 52.502 55.112 57.292 58.702 58.882 58.032
1629.986 56.002 52.732 48.972 44.562 39.872 35.602 31.452 27.462 23.922 21.212
1649.276 18.802 16.852 14.702 12.642 11.372 10.152 8.922 7.932 6.842 6.052
1668.566 5.452 4.842 4.482 4.222 4.072 3.832 3.692 3.562 3.262 3.232
1687.856 3.012 2.832 2.922 2.872 2.792 2.542 2.462 2.602 2.432 2.422
1707.146 2.372 2.282 2.402 2.422 2.582 2.642 2.562 2.632 2.552 2.492
1726.435 2.602 2.612 2.582 2.552 2.662 2.622 2.502 2.382 2.232 2.272
1745.725 2.192 1.912 1.762 1.722 1.662 1.502 1.4245 1.3928 1.346 1.2038
1765.015 1.184 1.144 1.0776 1.3381 1.3279 1.1491 1.1359 0.9759 0.858 0.9212
1784.305 0.9449 0.9851 0.9797 0.9514 0.9068 0.9414 0.9335 0.9076 1.0961 1.2649
1803.594 1.3472 1.3971 1.2829 1.2177 1.2314 1.3091 1.622 1.692 1.3695 1.2095
1822.884 1.552 1.682 1.632 1.722 1.522 1.482 1.522 1.442 1.4204 1.2529
1842.174 1.3496 1.462 1.2021 1.0657 1.2046 1.2701 1.1739 1.1325 1.2142 1.1935
1861.464 1.098 0.9944 1.1033 1.1536 0.9515 0.8985 0.9251 1.0387 1.1853 1.17
1880.754 1.0711 1.009 1.1882 1.3072 1.3508 1.622 1.532 1.3758 1.3529 1.432
1900.043 1.562 1.742 1.942 1.832 1.882 2.222 2.172 2.042 2.102 2.232
1919.333 2.212 2.032 1.862 1.752 1.612 1.512 1.3261 1.1 1.0963 1.1918
1938.623 1.2097 1.1185 1.1612 1.1074 1.0808 1.2124 1.2784 1.1869 1.1672 1.1789
1957.913 1.1034 1.2712 1.3203 1.2105 1.2013 1.1141 1.2233 1.0772 0.8463 0.8629
1977.202 0.9439 0.9517 0.8635 1.0271 1.0989 1.0736 1.0859 1.2208 1.3362 1.2258
1996.492 1.175 1.2594 1.3444 1.3554 1.0902 1.0658 1.2367 1.0458 0.8617 0.8129
2015.782 0.9688 1.0914 0.9805 0.9842 1.0659 1.038 1.1344 1.2327 1.1458 1.1252
2035.072 1.2159 1.238 1.1567 1.1572 1.2063 1.0417 1.0948 1.3484 1.2774 1.2592
2054.362 1.2919 1.1919 1.2132 1.2068 1.0775 1.0541 1.2781 1.2174 0.9109 0.8743
2073.651 1.0024 1.0945 1.0281 1.0063 1.1105 1.0378 1.0088 1.1549 1.089 0.9171
2092.941 0.7322 0.8181 0.8485 0.646 0.6067 0.7883 0.897 0.9277 0.9245 0.7392
2112.231 0.7111 0.8571 0.9446 0.9518 0.8548 0.7536 0.9317 1.0379 0.817 0.7602
2131.521 0.815 1.0153 1.2789 1.0952 0.7377 0.79 1.0383 1.2177 1.2221 1.2814
2150.810 1.3284 1.0682 1.0385 1.1893 1.362 1.3452 1.4073 1.572 1.4203 1.3664
2170.100 1.3569 1.2282 1.192 1.4192 1.512 1.3193 1.3232 1.4308 1.442 1.3894
2189.390 1.462 1.472 1.3121 1.4017 1.512 1.732 1.722 1.3602 1.2669 1.2748
2208.680 1.3193 1.1161 1.0229 1.0292 0.8275 0.8365 0.7645 0.8295 0.8338 0.7838
2227.970 1.1303 1.1778 0.9491 1.0553 0.9989 0.7802 0.8488 0.7418 0.7905 0.8189
2247.259 0.6345 0.761 0.9859 1.0313 1.0101 0.9634 1.0107 1.0179 0.9541 1.0334
2266.549 1.1126 1.1603 1.2052 1.0611 0.8661 1.0974 1.1289 1.071 1.1382 0.8818
2285.839 0.6784 0.7467 0.7979 0.8324 0.8512 0.906 1.0334 0.9082 0.9207 0.7916
2305.129 0.6585 0.9738 1.3105 1.552 1.482 1.2041 1.0979 1.2315 1.4237 1.257
2324.418 0.8939 0.7561 0.9346 1.0222 0.9402 1.0344 0.9831 0.9081 1.0713 1.1964
2343.708 1.0186 1.0148 1.2194 1.2907 1.276 1.0191 0.8974 0.9027 0.7971 1.0127
2362.998 1.0561 0.8307 0.8668 0.8325 0.9505 0.8698 0.7243 0.876 1.0185 1.0972
2382.288 1.0186 1.0316 1.1146 0.9412 0.8469 0.9268 0.9209 0.976 0.9206 1.1688
2401.578 1.472 1.0643 0.9255 0.9503 0.8183 0.9936 1.0056 0.729 0.6722 0.9502
2420.867 0.9824 0.9997 0.9752 0.7593 0.755 0.9253 1.1724 1.2657 1.0235 0.9673
2440.157 0.9097 0.8556 1.0931 1.035 0.9693 0.9215 0.734 0.7064 0.7309 0.8409
2459.447 0.9485 0.8658 0.8304 0.8573 0.873 1.079 1.1081 1.1311 0.9771 0.6529
2478.737 0.763 0.7404 0.7191 0.8214 0.9705 1.0723 0.9907 0.9783 0.7652 0.7145
2498.026 0.903 0.9132 0.8235 0.9225 0.8539 0.8384 1.1225 1.2888 1.1895 1.0152
2517.316 1.0408 1.1409 1.0827 0.868 0.9705 1.0579 0.7736 0.581 0.8613 0.8966
2536.606 0.646 0.621 0.8603 1.0712 1.0568 1.1685 1.1272 0.9133 0.9038 0.7036
2555.896 0.7527 1.0087 0.9354 0.9082 1.0229 1.0466 0.9874 1.1248 1.0813 0.7863
2575.186 0.9552 1.1462 1.0965 1.0585 1.0306 1.156 1.049 1.243 1.592 1.3563
2594.475 1.0035 0.9924 1.0637 1.0508 1.289 1.492 1.692 1.712 1.3573 1.1313
2613.765 1.3106 1.339 1.2979 1.452 1.592 1.4255 0.693 0.6307 0.9852 0.6217
2633.055 0.46975 0.7597 0.8677 1.0509 0.9598 1.0359 1.0306 0.7707 0.838 1.2195
2652.345 1.542 1.3074 1.0243 0.8978 0.9012 0.9329 0.9629 0.8181 0.9349 1.1702
2671.634 1.0937 1.0637 1.0024 1.0262 1.1921 1.0545 0.9698 1.0139 0.8338 0.9357
2690.924 1.0231 1.0687 1.103 1.0015 1.1675 1.502 1.582 1.2674 0.9965 1.0228
2710.214 1.0309 0.8828 1.011 1.1215 1.0823 1.2591 1.2707 0.899 0.7164 0.894
2729.504 1.1074 1.13 1.062 1.107 1.1063 1.0582 1.0308 1.275 1.492 1.4063
2748.794 1.2521 1.0443 0.9728 1.0583 0.9682 0.6418 0.5806 0.6273 0.7543 0.955
2768.083 1.132 1.0537 0.9968 1.1666 1.1502 1.0318 0.8707 0.8123 0.7608 0.6311
2787.373 0.819 1.0764 1.1406 0.9284 0.6052 0.7212 1.05 0.981 0.7034 0.8139
2806.663 0.9411 0.8264 0.8102 0.7942 0.6251 0.48665 0.432374 0.6134 0.6714 0.5545
2825.953 0.8636 0.8604 0.7169 0.7818 0.666 0.8505 1.1891 1.3585 1.1515 0.7408
2845.242 0.7653 1.0409 1.2287 0.9903 0.7367 0.7043 0.7555 0.6324 0.51194 0.7896
2864.532 0.8902 0.7682 0.6447 1.0504 1.482 1.452 1.1963 1.2463 1.2068 1.0243
2883.822 0.6961 0.34 0.6749 0.7177 0.7726 0.9967 0.9785 1.0036 1.1258 1.2507
2903.112 1.0289 1.1256 1.1026 0.5853 0.31 0.3592 0.5333 0.6938 0.77 0.9409
2922.401 1.1338 0.979 0.8743 0.9759 0.9232 0.7042 0.8781 1.0756 0.9852 1.1315
2941.691 1.1866 1.2808 1.2871 0.8389 0.9759 1.1883 0.9471 0.9405 1.1144 1.0994
2960.981 1.572 1.682 1.2163 1.2711 0.8884 1.0487 1.822 1.752 1.662 1.632
2980.271 1.702 1.802 1.2462 1.3359 1.522 1.2174 1.1124 1.3795 1.712 1.452
2999.561 1.602 1.902 1.782 1.832 2.272 2.662 2.792 3.222 3.452 3.752
3018.850 4.362 4.702 5.072 5.252 5.582 6.262 6.682 7.022 7.202 7.492
3038.140 7.782 8.242 9.012 9.312 9.482 9.762 10.482 10.592 10.232 9.862
3057.430 9.632 9.412 8.712 8.532 8.452 8.082 7.762 7.482 7.282 6.902
3076.720 6.592 6.592 6.302 6.462 6.522 5.732 5.072 4.782 4.602 4.002
3096.009 3.342 3.432 3.312 2.962 2.892 2.582 2.322 2.422 2.462 2.422
3115.299 2.312 2.142 1.762 1.812 2.272 2.422 2.722 2.692 2.512 2.512
3134.589 2.652 2.832 2.662 2.432 2.202 2.042 2.192 2.262 1.942 2.052
3153.879 2.222 1.712 1.852 2.272 1.852 1.772 1.712 1.492 1.502 1.482
3173.169 1.3325 1.0226 1.0889 1.3711 1.482 1.1317 1.0377 1.213 1.1709 1.2817
3192.458 1.1242 1.2924 1.2553 1.209 1.702 1.3296 0.9957 1.1874 0.7944 0.8894
3211.748 1.3935 1.307 1.432 1.3835 1.2827 1.4061 1.542 1.572 1.662 1.482
3231.038 1.3813 1.562 1.4257 2.062 2.062 1.592 1.682 1.702 1.752 1.672
3250.328 1.672 1.562 1.522 1.3695 0.9972 1.0116 0.9929 0.8225 0.9895 1.0014
3269.617 1.0362 0.9708 0.5687 0.25 0.6092 0.8944 0.3719 0.5478 0.8708 0.5601
3288.907 0.50539 0.8784 1.1854 1.1939 1.0128 0.9864 1.0925 0.8042 0.186 0.107
3308.197 0.7291 0.8443 0.8143 0.7261 0.8725 1.522 1.532 1.1234 0.3384 0.6228
3327.487 1.1031 0.7581 1.0118 1.3829 1.2037 0.9026 0.9843 1.0675 0.8289 0.364
3346.777 0.326 0.6981 1.063 1.2686 1.2939 1.0574 0.784 1.037 1.0003 0.6018
3366.066 0.7567 1.2282 1.562 1.772 1.652 1.692 2.072 1.892 1.502 1.862
3385.356 2.612 2.972 2.782 2.602 2.872 3.522 4.232 4.232 4.682 5.482
3404.646 5.822 5.802 5.672 5.642 5.512 6.122 6.432 5.902 5.602 5.572
3423.936 5.162 4.792 4.632 4.452 4.272 3.582 3.052 2.602 2.402 2.242
3443.225 2.012 1.652 0.9287 0.8305 1.212 1.442 1.3902 1.672 1.462 0.9406
3462.515 1.2432 1.682 1.822 1.692 1.982 2.082 2.172 2.752 3.402 4.162
3481.805 4.302 4.032 4.502 4.722 4.112 3.922 4.062 4.152 4.352 4.452
3501.095 4.252 4.262 4.142 3.852 3.872 3.912 4.152 3.852 3.272 3.042
3520.385 3.012 2.772 1.792 1.592 1.832 1.722 1.662 1.462 1.652 1.2962
3539.674 0.6481 0.318 0.5889 0.9661 0.6622 0.5706 0.7693 0.8344 0.9585 0.9884
3558.964 0.7499 0.5524 0.6053 0.8203 0.9393 0.9296 0.7083 0.4004 0.7501 1.0908
3578.254 0.9245 0.981 0.8172 0.46479 0.53079 0.8427 0.6541 0.5348 0.8405 0.6559
3597.544 0.4175 0.4194 0.3616 0.8331 1.1063 0.8708 0.5766 0.46531 0.4146 0.6547
3616.833 0.9915 0.86 0.831 0.9603 1.0637 0.9526 0.6088 0.7278 1.1244 0.9161
3636.123 0.8646 0.9194 0.9351 1.482 1.3978 0.737 0.3434 0.45566 0.7632 0.454
3655.413 0.4214 1.1118 1.11 0.8636 0.8829 1.0542 0.9151 0.52784 0.6054 0.8005
3674.703 0.7548 0.7536 0.9003 0.7864 0.3879 0.646 1.1798 0.6878 0.3962 0.615
3693.993 0.5891 0.5904 0.6236 0.6215 0.8916 0.8914 0.5501 0.37 0.6683 0.9206
3713.282 1.0592 0.993 0.5493 0.173 0 0.438521 0.6085 0.6561 0.7693 1.1075
3732.572 1.472 1.3378 0.9786 0.8221 0.8142 0.5353 0.9087 1.1474 1.1185 1.3748
3751.862 0.9919 0.48911 0.7283 0.9366 0.7276 0.7823 1.0219 1.3956 1.462 1.233
3771.152 0.9147 0.7644 0.9854 1.3022 1.1018 0.6301 0.8135 0.6461 0.9837 1.552
3790.441 1.1964 0.7309 0.5423 0.4658 0.7249 0.8057 0.5925 1.0534 1.099 0.8398
3809.731 1.0538 0.8193 0.9119 1.3084 1.3509 1.2926 1.1221 0.8779 0.47687 0.4015
3829.021 0.9933 1.482 0.9526 0.8191 1.0793 1.0826 1.0323 1.642 1.812 1.2787
3848.311 1.2745 1.3972 1.3903 1.3265 1.722 2.012 1.772 1.492 1.4102 1.3505
3867.601 1.3226 0.9711 0.8152 1.0943 1.582 1.702 1.1877 0.8107 1.0155 1.1173
3886.890 0.9421 1.2305 0.9095 0.185 0.5624 1.0071 0.7416 0.6878 0.9898 1.3776
3906.180 1.562 1.4097 1.702 1.602 0.8978 0.5995 1.1427 1.3442 0.8616 0.5587
3925.470 1.1786 1.802 1.632 1.1703 0.6618 0.9606 1.762 1.692 1.3845 1.742
3944.760 1.652 1.492 1.592 1.732 1.882 1.852 1.4132 1.0918 1.1822 1.1462
3964.049 1.0007 0.9212 0.7151 1.1379 1.2006 1.3349 1.862 1.732 1.482 1.3107
3983.339 1.3832 1.396 1.1389 0.918 0.7884 0.7922 0.9261 1.0781 1.452 1.492
##END=
