##TITLE=2,4,5-Trifluorobenzyl bromide
##JCAMP-DX=4.24
##DATA TYPE=INFRARED SPECTRUM
##ORIGIN=EPA-IR VAPOR PHASE LIBRARY
##OWNER=SRD/NIST
Collection (C) 2018 copyright by the U.S. Secretary of Commerce
on behalf of the United States of America. All rights reserved.
##CAS REGISTRY NO=157911-56-3
##MOLFORM=C 7 H 4 Br F 3
##$NIST SOURCE=MSDC-IR
##STATE=gas
##XUNITS=1/CM
##YUNITS=ABSORBANCE
##XFACTOR=1.
##YFACTOR=0.001
##DELTAX=1.929
##FIRSTX=549.8
##LASTX=4000.8
##FIRSTY=3.45
##MAXX=4000.75
##MINX=549.766
##MAXY=0.29534
##MINY=0
##NPOINTS=1790
##XYDATA=(X++(Y..Y))
549.766 3.45 3.43 3.6 3.85 4.37 4.8 4.91 5.39 5.92 6.26
569.056 6.55 7 7.87 8.77 9.41 10.3 11.45 12.44 13.5 14.32
588.346 14.6 14.9 14.97 14.83 14.83 14.86 14.98 15.35 15.59 15.17
607.636 14.26 13 11.26 9.6 8.27 6.97 5.93 5.25 4.67 4.03
626.926 3.63 3.37 2.96 2.93 3.09 3.09 3.11 3.06 3.13 3.15
646.216 3.14 3.21 3.08 3.05 3.2 3.21 3.15 3.37 3.74 4.15
665.506 4.69 5.28 5.86 6.39 6.9 7.43 8.02 8.62 9.17 10.07
684.796 11.29 12.98 15.43 18.3 21.32 23.93 25.38 26.06 26.41 25.89
704.086 24.14 21.43 18.78 16.54 14.62 13.07 11.81 10.87 9.99 8.97
723.376 7.93 6.96 6.22 5.74 5.42 5.26 5.41 6.15 7.59 9.92
742.666 12.83 15.01 15.78 15.67 15.1 13.77 10.96 7.52 5.08 3.69
761.956 2.77 2.31 2.19 2.13 1.95 1.79 1.68 1.7 1.76 1.63
781.246 1.5692 1.611 1.586 1.6124 1.74 1.71 1.5695 1.5238 1.65 1.8
800.536 1.9 1.97 1.99 2.21 2.45 2.69 3.24 3.78 4.37 5.48
819.826 7.04 8.97 11.51 14.83 18.32 21.74 25.17 28.46 31.38 33.72
839.116 35.25 35.99 36.26 36.28 35.95 34.63 32.18 29.75 27.89 26.31
858.406 25.27 24.93 25.43 27 29.5 32.85 36.92 41.35 45.93 50.52
877.696 54.46 57 58.08 57.93 56.49 53.71 49.99 45.48 40.3 34.68
896.986 29.07 23.81 19.17 15.35 12.25 9.91 8.11 6.69 5.64 4.88
916.276 4.15 3.57 3.22 2.94 2.67 2.4 2.29 2.17 2.02 2.03
935.566 2 1.94 2.03 2.03 1.98 1.96 1.89 1.85 1.77 1.6247
954.856 1.4219 1.2756 1.213 1.1067 0.982 0.9069 0.8821 0.916 0.881 0.8089
974.146 0.889 0.9211 0.9577 0.9854 0.9114 0.8987 0.8587 0.828 0.8169 0.8371
993.436 0.8479 0.8115 0.8066 0.7916 0.7855 0.7821 0.7954 0.7926 0.7413 0.7556
1012.726 0.774 0.7529 0.7748 0.8324 0.8239 0.8039 0.8562 0.8377 0.7761 0.7621
1032.016 0.8704 1.019 1.025 0.9118 0.9202 0.9968 0.9857 0.9292 0.8741 0.8999
1051.306 0.9782 1.0119 1.1115 1.208 1.2816 1.4725 1.7 1.9 2.07 2.33
1070.596 2.63 2.85 3.12 3.39 3.62 3.89 4.27 4.79 5.52 6.64
1089.886 8.24 10.49 13.46 16.97 20.69 24.03 26.53 27.98 28.32 27.9
1109.176 26.95 25.79 24.95 24.99 26.16 27.99 29.57 30.45 30.52 29.74
1128.467 28.16 26.07 24.02 22.54 22.13 22.84 24.86 28.91 35.18 43.58
1147.757 53.42 62.53 68.47 70.67 70.21 67.39 60.71 49.9 38.22 28.89
1167.047 22.55 18.41 15.92 14.62 14.26 14.63 15.49 16.75 18.21 19.75
1186.337 21.67 23.97 26.53 29.53 33.14 37.46 42.49 48.61 55.73 63.42
1205.627 70.96 77.28 81.35 82.82 82.49 80.83 77.38 72.89 69.49 68.94
1224.917 71.16 74.62 77.86 79.96 80.29 78.65 74.58 67.23 56.9 45.58
1244.207 35.48 27.52 21.65 17.57 14.68 12.52 10.98 9.88 9.03 8.46
1263.497 8.08 7.76 7.66 7.64 7.71 7.91 8.13 8.39 8.57 8.57
1282.787 8.4 8.24 8.12 7.99 7.83 7.64 7.5 7.38 7.28 7.21
1302.077 7.13 7.08 7.13 7.31 7.52 7.81 8.3 9.14 10.47 12.31
1321.367 14.96 18.7 23.76 30.42 38.81 48.75 59.67 70.43 79.58 85.53
1340.657 87.06 83.93 76.48 65.56 52.45 39.02 27.37 18.85 13.51 10.27
1359.947 8.17 6.68 5.53 4.71 4.16 3.74 3.45 3.22 3.13 3.15
1379.237 3.13 3.17 3.26 3.44 3.66 3.88 4.2 4.58 4.93 5.4
1398.527 5.98 6.72 7.75 9.2 11.1 13.67 17.02 21.3 26.41 32.25
1417.817 38.62 45.11 50.57 54.39 56.09 55.86 54.36 51.58 46.89 40.71
1437.107 34.28 29.29 25.9 23.62 22.12 21.18 20.45 19.69 18.79 17.72
1456.397 16.33 14.71 13.18 11.74 10.6 9.69 9.04 8.7 8.68 8.74
1475.687 8.95 9.4 10.06 10.97 12.15 13.62 15.58 18.1 21.49 25.97
1494.977 32.07 40.58 51.84 66.75 86.18 110.09 140.09 173.6 206.82 238.68
1514.267 265.1 284.08 294.63 295.34 284.67 262.89 230.82 194.92 160.05 126.97
1533.557 95.53 68.88 50.05 36.96 28.43 22.98 19.43 16.99 15.33 14.12
1552.847 13.25 12.49 11.9 11.48 10.95 10.45 10.1 9.82 9.64 9.57
1572.137 9.51 9.53 9.56 9.58 9.57 9.53 9.4 9.23 9.15 9.04
1591.427 9.01 9.13 9.34 9.72 10.29 11.21 12.39 13.9 15.84 18.15
1610.717 20.82 24.1 27.94 32.47 37.23 41.5 44.89 46.7 46.59 44.48
1630.007 40.76 35.88 30.54 25.35 21.18 18.37 16.45 15.07 13.98 12.97
1649.297 11.99 11.15 10.17 9.13 8.23 7.36 6.46 5.51 4.6 3.84
1668.587 3.3 2.9 2.64 2.55 2.48 2.5 2.54 2.67 2.89 3.04
1687.877 3.19 3.33 3.42 3.52 3.57 3.55 3.53 3.46 3.42 3.39
1707.167 3.36 3.47 3.61 3.78 3.94 4.11 4.26 4.26 4.16 4.01
1726.457 3.81 3.54 3.26 2.96 2.64 2.36 2.09 1.92 1.81 1.73
1745.747 1.7 1.68 1.63 1.65 1.68 1.6072 1.5413 1.4919 1.453 1.3857
1765.037 1.3036 1.2442 1.1844 1.2033 1.2065 1.1477 1.1049 1.1147 1.1393 1.1195
1784.327 1.0847 1.1205 1.1867 1.2305 1.3079 1.3887 1.443 1.5296 1.6186 1.66
1803.617 1.65 1.66 1.69 1.66 1.7 1.72 1.69 1.71 1.67 1.64
1822.907 1.5926 1.5856 1.5773 1.4999 1.4625 1.4427 1.4087 1.4074 1.4555 1.4379
1842.197 1.4147 1.4183 1.3867 1.3058 1.2628 1.2298 1.1349 1.0909 1.0962 1.0453
1861.487 0.9801 0.9427 0.9291 0.8945 0.8567 0.82 0.813 0.8089 0.71566 0.69481
1880.777 0.7786 0.7921 0.7347 0.7867 0.8639 0.8862 0.8651 0.8762 0.9781 1.0244
1900.067 1.1045 1.147 1.1174 1.1277 1.1257 1.1017 1.0506 1.0205 1.0217 1.0448
1919.357 1.0622 1.0645 1.0576 1.0439 1.0699 1.1214 1.1166 1.0599 1.0449 0.987
1938.647 0.9621 0.9814 0.9924 1.0115 1.0141 0.9812 0.912 0.9101 0.879 0.8695
1957.937 0.8763 0.8678 0.8912 0.8998 0.8874 0.8227 0.8304 0.903 0.952 0.9902
1977.227 1.0086 1.0204 1.0071 0.9725 1.0036 1.0251 1.0372 1.0517 1.0113 0.944
1996.517 0.8623 0.8532 0.8862 0.8939 0.8795 0.8801 0.9136 0.9024 0.8706 0.8787
2015.807 0.902 0.8927 0.8659 0.9101 0.9395 0.9051 0.9212 0.896 0.8722 0.9118
2035.097 0.8727 0.8924 0.9358 0.8819 0.868 0.8709 0.8208 0.7794 0.7897 0.8189
2054.387 0.7611 0.6735 0.6062 0.5774 0.6052 0.5972 0.64123 0.67869 0.6515 0.62529
2073.677 0.637829 0.70177 0.7413 0.7334 0.7528 0.7844 0.7426 0.7498 0.8035 0.7914
2092.967 0.7686 0.7676 0.778 0.69734 0.6182 0.5889 0.5754 0.62349 0.637541 0.6201
2112.257 0.64772 0.6504 0.65606 0.68933 0.71061 0.70934 0.69886 0.72392 0.72338 0.69825
2131.547 0.69634 0.6953 0.70735 0.70767 0.69999 0.68769 0.6469 0.64735 0.66255 0.64948
2150.837 0.62508 0.65452 0.67902 0.71131 0.7659 0.8063 0.8208 0.8422 0.8962 0.9614
2170.127 0.9757 0.986 1.0193 1.0135 1.0058 1.0061 0.9559 0.9033 0.928 0.9103
2189.417 0.8608 0.8224 0.7991 0.8053 0.7929 0.8106 0.8576 0.872 0.8722 0.8859
2208.707 0.8978 0.9219 0.9449 0.9378 0.9756 1.0141 1.0183 1.0589 1.1165 1.0694
2227.997 1.0514 1.1366 1.1158 1.0785 1.12 1.076 1.0388 1.08 1.1318 1.1698
2247.287 1.2155 1.2798 1.367 1.4554 1.5128 1.5826 1.6296 1.66 1.74 1.79
2266.577 1.74 1.7 1.6279 1.536 1.4388 1.2879 1.1762 1.154 1.1024 1.0192
2285.868 0.9811 0.9654 0.9356 0.9372 0.9768 0.9657 0.9967 1.0324 1.0474 1.0751
2305.158 1.1331 1.1737 1.2128 1.2697 1.2975 1.3744 1.4284 1.4161 1.4338 1.4408
2324.448 1.4287 1.4436 1.4817 1.4768 1.4487 1.4678 1.4499 1.3954 1.3304 1.2898
2343.738 1.3138 1.2782 1.2311 1.2579 1.3001 1.3055 1.2955 1.3232 1.3984 1.4576
2363.028 1.4847 1.4966 1.5286 1.5804 1.5854 1.5572 1.5227 1.4727 1.397 1.3304
2382.318 1.2055 1.104 1.0304 0.8871 0.8271 0.8786 0.8749 0.8291 0.8253 0.828
2401.608 0.7734 0.7276 0.7688 0.8303 0.821 0.8509 0.8477 0.8491 0.9032 0.8558
2420.898 0.8385 0.8549 0.8804 0.964 0.9542 0.8888 0.8893 0.946 1.01 1.1042
2440.188 1.1373 1.0702 1.0416 1.0309 1.0095 1.0094 1.0068 0.9115 0.8586 0.8585
2459.478 0.8195 0.8291 0.8225 0.8246 0.8462 0.8399 0.8595 0.8497 0.8239 0.8562
2478.768 0.9208 0.9673 1.0326 1.09 1.1035 1.1816 1.199 1.1855 1.2244 1.2212
2498.058 1.1844 1.1237 1.038 0.9894 0.971 0.9227 0.8634 0.8812 0.9173 0.8921
2517.348 0.8572 0.8936 0.9586 0.9806 1.0492 1.1829 1.2211 1.2127 1.2571 1.2739
2536.638 1.3273 1.394 1.4178 1.443 1.4742 1.4532 1.5087 1.6252 1.65 1.63
2555.928 1.5825 1.5394 1.5254 1.4653 1.4915 1.5212 1.4817 1.5414 1.5412 1.4865
2575.218 1.4223 1.3586 1.2729 1.1946 1.1674 1.011 0.8992 0.8795 0.8216 0.8189
2594.508 0.7572 0.630625 0.65763 0.68634 0.67023 0.69303 0.72472 0.7826 0.7774 0.8091
2613.798 0.8517 0.8457 0.922 0.9896 1.0273 1.0717 1.0999 1.1365 1.146 1.1126
2633.088 1.1201 1.2241 1.245 1.136 1.0563 1.0338 0.9841 0.9385 0.9259 0.9502
2652.378 1.0052 0.9471 0.9436 0.99 1.0101 1.0174 1.0339 1.0815 1.0775 1.0514
2671.668 1.0901 1.0832 0.9395 0.7607 0.7727 0.7788 0.69671 0.65222 0.591 0.5929
2690.958 0.522 0.463 0.426 0.424 0.466 0.408 0.463 0.518 0.494 0.5322
2710.248 0.542 0.492 0.499 0.5972 0.66088 0.66657 0.68167 0.7593 0.754 0.7351
2729.538 0.8021 0.8286 0.8429 0.8399 0.8492 0.8413 0.8277 0.8262 0.8019 0.8264
2748.828 0.84 0.844 0.8353 0.813 0.7377 0.68399 0.72524 0.70945 0.6046 0.5349
2768.118 0.521 0.502 0.472 0.43 0.397 0.415 0.415 0.457 0.497 0.462
2787.408 0.473 0.515 0.62293 0.5908 0.441 0.38 0.314 0.379 0.469 0.467
2806.698 0.379 0.399 0.479 0.442 0.42 0.394 0.385 0.367 0.379 0.394
2825.988 0.488 0.5332 0.517 0.5437 0.482 0.384 0.437 0.524 0.491 0.526
2845.278 0.5786 0.639076 0.68047 0.68553 0.71245 0.7439 0.7669 0.7659 0.72958 0.72733
2864.568 0.7897 0.8014 0.8032 0.7835 0.70647 0.69479 0.7433 0.7558 0.7332 0.67911
2883.858 0.66249 0.70331 0.8351 0.8545 0.7439 0.734 0.7929 0.7966 0.7555 0.7387
2903.148 0.66893 0.69865 0.7302 0.65005 0.62369 0.635727 0.64137 0.5869 0.514 0.503
2922.438 0.5999 0.634798 0.6028 0.5907 0.523 0.441 0.441 0.42 0.401 0.5781
2941.728 0.64964 0.62653 0.70204 0.71352 0.71733 0.7523 0.867 1.0628 1.1125 1.1104
2961.018 1.1428 1.1766 1.2712 1.3928 1.5995 1.84 2.07 2.29 2.65 3.14
2980.308 3.49 3.83 4.33 4.69 4.93 5.07 4.88 4.56 4.11 3.49
2999.598 2.91 2.54 2.19 1.75 1.4169 1.2323 1.189 1.0833 0.9 0.8325
3018.888 0.894 0.7629 0.62469 0.6133 0.547 0.473 0.377 0.417 0.435 0.339
3038.178 0.312 0.331 0.381 0.385 0.425 0.411 0.443 0.5481 0.5619 0.491
3057.468 0.428 0.489 0.62275 0.8456 1.0765 1.1394 1.1315 0.9924 0.927 1.0191
3076.758 1.0042 0.981 0.9606 0.9478 0.9962 1.1393 1.2792 1.3083 1.3376 1.3428
3096.048 1.3919 1.391 1.1635 0.9428 0.7569 0.62751 0.5891 0.5643 0.437 0.402
3115.338 0.433 0.401 0.306 0.237 0.329 0.378 0.41 0.382 0.303 0.334
3134.628 0.292 0.26 0.348 0.353 0.338 0.285 0.297 0.354 0.248 0.185
3153.918 0.275 0.243 0.237 0.223 0.136 0.209 0.281 0.309 0.305 0.41
3173.208 0.34 0.146 0.161 0.136 0.146 0.19 0.113 0.074 0.126 0.147
3192.498 0.119 0.154 0.085 0.007 0 0.04 0.118 0.07 0.084 0.078
3211.788 0.07 0.155 0.18 0.166 0.239 0.25 0.066 0.119 0.199 0.144
3231.078 0.169 0.222 0.215 0.186 0.193 0.208 0.25 0.159 0.012 0.042
3250.368 0.175 0.144 0.085 0.086 0.079 0.036 0.019 0.16 0.257 0.208
3269.658 0.243 0.171 0.178 0.319 0.317 0.187 0.058 0.118 0.089 0.126
3288.948 0.275 0.35 0.259 0.107 0.092 0.133 0.223 0.269 0.217 0.14
3308.238 0.181 0.212 0.073 0.071 0.216 0.181 0.119 0.1 0.027 0.044
3327.528 0.179 0.272 0.253 0.239 0.205 0.105 0.158 0.207 0.212 0.291
3346.818 0.231 0.168 0.189 0.18 0.215 0.196 0.167 0.207 0.23 0.186
3366.108 0.17 0.189 0.169 0.109 0.167 0.285 0.232 0.22 0.232 0.185
3385.398 0.124 0.133 0.139 0.064 0.062 0.116 0.142 0.194 0.222 0.253
3404.688 0.149 0.06 0.157 0.157 0.168 0.233 0.18 0.119 0.144 0.156
3423.978 0.123 0.059 0.088 0.172 0.184 0.192 0.2 0.155 0.136 0.13
3443.269 0.173 0.3 0.284 0.258 0.296 0.324 0.235 0.184 0.291 0.315
3462.559 0.336 0.271 0.208 0.2 0.221 0.298 0.365 0.369 0.343 0.255
3481.849 0.142 0.2 0.193 0.205 0.34 0.426 0.45 0.36 0.224 0.186
3501.139 0.192 0.231 0.359 0.443 0.348 0.308 0.326 0.299 0.243 0.242
3520.429 0.251 0.264 0.443 0.353 0.174 0.272 0.322 0.239 0.134 0.113
3539.719 0.281 0.333 0.252 0.369 0.386 0.353 0.288 0.175 0.269 0.377
3559.009 0.26 0.239 0.371 0.424 0.466 0.39 0.261 0.239 0.352 0.444
3578.299 0.446 0.421 0.392 0.342 0.411 0.5985 0.5805 0.426 0.352 0.323
3597.589 0.308 0.429 0.491 0.354 0.28 0.33 0.398 0.391 0.362 0.395
3616.879 0.386 0.335 0.403 0.35 0.283 0.428 0.446 0.377 0.354 0.376
3636.169 0.325 0.238 0.364 0.453 0.515 0.5532 0.5618 0.62522 0.492 0.431
3655.459 0.421 0.376 0.475 0.414 0.339 0.394 0.437 0.448 0.296 0.289
3674.749 0.43 0.467 0.467 0.323 0.235 0.32 0.38 0.39 0.43 0.499
3694.039 0.478 0.458 0.394 0.472 0.5903 0.461 0.429 0.44 0.39 0.494
3713.329 0.467 0.508 0.468 0.36 0.435 0.408 0.476 0.5626 0.494 0.453
3732.619 0.487 0.427 0.47 0.5391 0.5 0.5676 0.5636 0.439 0.412 0.441
3751.909 0.445 0.458 0.396 0.331 0.411 0.377 0.324 0.42 0.499 0.63235
3771.199 0.62883 0.391 0.313 0.324 0.487 0.6148 0.5625 0.5573 0.5651 0.47
3790.489 0.408 0.446 0.462 0.471 0.429 0.434 0.509 0.5423 0.508 0.6065
3809.779 0.5978 0.52 0.5446 0.5866 0.68356 0.66271 0.634058 0.65184 0.52 0.41
3829.069 0.421 0.456 0.43 0.395 0.5506 0.67444 0.611 0.5549 0.463 0.485
3848.359 0.636173 0.6111 0.477 0.5301 0.62264 0.5766 0.529 0.512 0.518 0.5
3867.649 0.449 0.483 0.51 0.5538 0.5896 0.486 0.499 0.5689 0.516 0.508
3886.939 0.5682 0.5454 0.427 0.457 0.64196 0.5545 0.428 0.5538 0.5828 0.505
3906.229 0.458 0.435 0.4 0.375 0.419 0.416 0.364 0.472 0.637587 0.5561
3925.519 0.376 0.37 0.443 0.436 0.44 0.493 0.452 0.479 0.5927 0.5918
3944.809 0.483 0.403 0.436 0.477 0.376 0.302 0.396 0.475 0.432 0.426
3964.099 0.45 0.457 0.374 0.428 0.523 0.409 0.346 0.359 0.434 0.435
3983.389 0.399 0.349 0.417 0.517 0.475 0.5551 0.6125 0.447 0.464 0.432
##END=
