##TITLE=trans-2-undecenoic acid
##JCAMP-DX=4.24
##DATA TYPE=INFRARED SPECTRUM
##ORIGIN=EPA-IR VAPOR PHASE LIBRARY
##OWNER=SRD/NIST
Collection (C) 2018 copyright by the U.S. Secretary of Commerce
on behalf of the United States of America. All rights reserved.
##CAS REGISTRY NO=15790-94-0
##MOLFORM=C 11 H 20 O 2
##$NIST SOURCE=MSDC-IR
##STATE=gas
##XUNITS=1/CM
##YUNITS=ABSORBANCE
##XFACTOR=1.
##YFACTOR=0.001
##DELTAX=1.92898
##FIRSTX=549.8
##LASTX=4000.7
##FIRSTY=7.346
##MAXX=4000.7
##MINX=549.759
##MAXY=0.051676
##MINY=0
##NPOINTS=1790
##XYDATA=(X++(Y..Y))
549.759 7.346 7.066 7.416 8.566 8.706 8.466 8.376 8.386 8.056 7.726
569.049 7.856 7.516 7.146 7.816 7.676 6.816 6.556 6.516 5.526 4.646
588.339 4.746 4.546 4.206 3.886 3.636 3.316 3.466 3.856 3.566 3.106
607.628 3.086 2.846 2.986 3.706 3.926 4.046 4.166 4.636 5.086 5.256
626.918 5.906 5.656 4.916 5.276 5.136 5.106 5.596 6.076 6.446 6.566
646.208 6.836 6.596 5.986 5.606 5.746 5.676 4.696 3.906 3.846 3.926
665.498 3.626 3.516 3.346 3.476 3.666 3.336 3.386 3.186 2.976 3.266
684.787 3.326 3.166 2.886 3.046 3.246 3.166 3.386 3.366 3.416 3.966
704.077 4.096 3.986 3.976 3.966 3.946 3.906 3.916 3.356 3.036 2.996
723.367 3.106 3.196 3.066 2.876 2.596 2.726 2.666 2.616 2.656 2.456
742.657 2.256 2.556 2.686 2.426 2.326 2.046 1.946 2.306 2.096 1.5466
761.947 1.5475 1.646 1.726 1.826 1.906 2.086 1.926 1.666 1.646 1.5255
781.236 1.666 1.646 1.3321 1.3371 1.726 1.576 1.447 1.3553 0.949 1.3071
800.526 1.806 2.006 1.896 2.046 2.346 2.046 1.816 2.126 2.166 1.876
819.816 2.206 2.446 2.646 2.336 1.646 2.026 2.056 1.846 2.066 2.246
839.106 2.366 2.506 2.766 2.586 2.286 2.546 2.636 2.096 2.296 2.936
858.395 2.686 2.686 2.686 2.546 2.436 2.596 3.006 2.696 2.696 3.056
877.685 2.946 2.906 2.776 2.406 2.466 2.606 2.746 2.626 2.536 2.516
896.975 2.366 2.436 2.056 1.836 2.236 2.456 2.636 2.796 2.526 2.306
916.265 2.356 2.236 2.216 2.366 2.296 2.226 2.176 2.346 2.786 2.766
935.555 2.746 2.806 2.986 2.836 2.606 2.806 3.036 3.226 3.406 3.736
954.844 3.496 3.426 3.816 4.056 4.276 4.426 4.816 5.336 5.716 6.266
974.134 6.726 6.986 7.066 7.066 7.126 7.166 7.106 6.856 6.786 6.196
993.424 5.076 4.736 4.686 4.566 4.336 4.026 4.006 4.166 4.166 4.216
1012.714 3.976 2.996 2.916 3.506 3.776 3.636 3.646 3.796 3.776 3.696
1032.003 3.376 3.706 4.006 3.966 3.766 3.816 4.336 3.876 3.796 4.416
1051.293 5.016 4.866 4.246 4.666 4.846 5.346 6.326 6.226 5.916 5.886
1070.583 5.776 5.616 6.106 7.306 7.216 7.056 7.566 8.246 9.236 10.306
1089.873 10.736 11.306 12.456 13.666 15.646 17.226 19.216 20.786 22.896 23.566
1109.163 23.226 24.706 24.606 23.556 23.686 23.116 22.206 21.736 20.316 20.246
1128.452 21.456 21.156 21.036 21.086 20.136 19.456 18.936 18.866 19.316 18.936
1147.742 18.486 17.966 17.656 17.546 17.196 17.046 15.896 15.726 15.386 14.496
1167.032 14.276 13.326 12.886 11.636 10.216 9.676 8.846 8.556 8.086 7.196
1186.322 7.116 6.806 6.736 6.246 4.876 4.546 4.266 3.496 3.196 4.046
1205.611 4.506 4.046 3.426 3.956 4.816 3.936 3.786 4.516 4.106 3.686
1224.901 3.566 3.586 3.826 4.496 4.176 4.466 4.836 4.566 5.216 5.156
1244.191 4.646 4.976 5.546 5.476 5.476 5.526 5.196 5.046 5.076 5.446
1263.481 5.746 5.256 5.136 5.306 5.256 5.286 5.106 4.946 4.906 4.836
1282.771 4.966 4.946 4.746 4.886 5.106 5.006 4.796 4.816 5.176 5.206
1302.060 5.046 5.076 4.816 4.816 5.166 4.996 4.836 4.866 4.806 4.926
1321.350 5.046 5.296 5.506 5.566 5.866 6.206 6.486 6.936 7.396 7.866
1340.640 8.426 9.026 9.586 10.046 10.416 10.746 10.946 11.106 11.256 11.326
1359.930 11.416 11.256 11.156 10.906 10.376 9.806 9.186 8.406 7.516 6.766
1379.219 6.196 5.706 5.216 4.726 4.406 4.076 3.746 3.426 3.116 3.036
1398.509 2.916 2.846 2.806 2.666 2.556 2.536 2.496 2.406 2.376 2.366
1417.799 2.406 2.546 2.626 2.626 2.586 2.806 2.956 3.056 3.166 3.326
1437.089 3.686 3.836 4.046 4.306 4.536 4.576 4.636 4.736 4.756 4.956
1456.378 5.066 5.116 5.206 5.146 4.976 4.726 4.486 4.156 3.906 3.826
1475.668 3.586 3.166 2.666 2.586 2.556 2.256 1.976 1.766 1.666 1.686
1494.958 1.716 1.746 1.576 1.4631 1.566 1.4392 1.3441 1.39 1.5112 1.5316
1514.248 1.4165 1.3467 1.2964 1.3292 1.2521 1.2288 1.3055 1.2477 1.0889 1.0307
1533.538 1.097 1.146 1.2574 1.2668 1.2398 1.1525 1.1393 1.2105 1.2452 1.1489
1552.827 1.0433 1.1622 1.0318 0.8311 1.052 1.1909 1.23 1.2593 1.2423 1.2069
1572.117 0.8968 0.7978 1.0094 1.1798 1.174 1.2109 0.9929 0.7905 0.9306 1.0191
1591.407 1.0674 0.9354 1.0569 1.1513 0.9899 1.1925 1.3769 1.3048 1.1081 1.1335
1610.697 1.1411 1.1915 1.4549 1.616 1.866 1.856 1.776 1.976 2.306 2.476
1629.986 2.686 2.966 3.246 3.716 4.396 5.176 5.966 6.746 7.546 8.826
1649.276 10.046 10.866 11.756 12.476 12.446 11.616 10.236 8.656 7.296 6.006
1668.566 4.846 3.866 3.366 3.076 2.646 2.496 2.426 2.206 2.146 2.176
1687.856 2.186 2.416 2.446 2.356 2.506 2.616 2.796 3.026 3.286 3.586
1707.146 3.786 4.026 4.486 4.846 5.216 5.836 6.406 7.006 7.706 8.386
1726.435 9.136 10.096 11.296 12.716 14.246 15.886 17.866 20.146 22.516 25.456
1745.725 28.876 32.536 36.416 40.616 44.696 48.176 50.736 51.676 51.096 48.856
1765.015 44.936 40.286 35.676 31.486 27.676 24.386 21.406 19.066 17.206 15.256
1784.305 13.596 12.246 10.896 9.656 8.636 7.756 6.776 6.046 5.406 4.746
1803.594 4.326 4.036 3.736 3.386 3.146 2.846 2.616 2.426 2.246 2.276
1822.884 2.216 2.106 1.976 1.756 1.706 1.666 1.616 1.756 1.806 1.726
1842.174 1.606 1.4714 1.3585 1.3482 1.4167 1.3423 1.2673 1.243 1.2502 1.3009
1861.464 1.2291 1.2833 1.3371 1.2625 1.2288 1.1325 1.2005 1.0833 0.8665 0.932
1880.754 0.9935 0.9577 0.9847 1.1027 1.02 1.0252 1.0025 0.9821 1.0472 1.1125
1900.043 1.1565 1.0688 0.9322 0.8134 0.9347 0.896 0.9009 1.0427 0.969 0.8686
1919.333 0.8366 0.8907 1.063 1.1103 1.1163 1.1836 1.0359 0.8981 0.9637 1.054
1938.623 1.0201 0.8767 0.8657 0.9699 0.9253 0.8357 0.8664 0.9648 0.9731 0.945
1957.913 0.9422 0.9232 0.9831 0.9611 0.8645 0.7506 0.8299 0.9711 1.0145 1.0625
1977.202 0.8588 0.7693 0.9182 0.9111 0.905 0.9657 1.0079 1.0225 1.0438 0.9713
1996.492 0.7867 0.8269 0.9214 1.052 1.1623 1.0727 1.0774 1.145 1.0194 0.9422
2015.782 1.0369 1.0399 1.0504 1.0236 0.8588 0.98 1.1252 1.0312 0.96 0.989
2035.072 1.0635 1.0142 1.0025 0.988 0.9393 1.0085 1.0549 0.9997 1.0076 0.9277
2054.362 0.8972 0.8876 0.8093 0.8328 0.822 0.965 1.0052 0.9033 0.9454 0.9593
2073.651 0.8702 0.8445 0.9918 1.102 1.0594 1.0887 0.988 0.8601 0.8941 0.9774
2092.941 0.9664 0.8881 0.9917 0.9468 0.9555 0.8811 0.8557 1.0189 0.916 0.8917
2112.231 0.8787 0.7912 0.8066 0.804 0.7968 0.7939 0.9135 0.9412 0.85 0.9072
2131.521 0.7766 0.7042 0.9001 0.9908 0.8739 0.8655 0.9372 0.8322 0.7675 0.7627
2150.810 0.8968 0.9209 0.8935 1.0036 0.9202 0.8874 0.797 0.7834 0.8569 0.9456
2170.100 0.8894 0.8162 0.8777 0.8038 0.8173 0.8766 0.8622 0.7858 0.8531 0.9611
2189.390 0.9743 0.9539 1.0123 0.9184 0.7492 0.904 1.034 1.0226 0.9754 0.8102
2208.680 0.7187 0.8824 0.8931 0.9014 1.0426 1.0199 1.2086 1.2167 0.994 1.0328
2227.970 0.9451 0.8635 0.9054 0.8977 1.0279 1.0911 0.9992 0.8531 0.6939 0.6789
2247.259 0.8409 0.882 0.7839 0.9555 1.0364 0.9576 0.8168 0.6312 0.8484 1.0327
2266.549 1.0511 1.0591 0.9829 0.8897 0.7737 0.8332 0.9708 0.9251 0.9033 1.0651
2285.839 1.0408 0.7649 0.7106 0.861 0.955 0.9548 0.6956 0.7162 0.9204 0.809
2305.129 1.0125 1.2002 0.8869 0.64461 0.8091 1.0529 1.1097 1.0077 1.0506 1.0411
2324.418 0.8983 0.9514 1.0684 0.962 0.9029 0.9992 1.039 0.8593 0.7145 0.8403
2343.708 0.8852 0.8234 0.7612 0.724 0.7932 0.7931 0.8861 1.0625 0.9548 0.9308
2362.998 0.9129 0.9493 0.8333 0.7437 0.9182 0.95 1.0973 1.1558 1.1239 1.1095
2382.288 1.019 0.8959 0.9613 1.1293 1.0743 0.9675 0.969 0.9671 0.8649 0.8764
2401.578 0.8896 0.9172 1.0243 0.9576 0.8673 0.9054 0.7525 0.63891 0.8876 0.9919
2420.867 0.9368 1.0918 1.1378 1.0599 0.9837 0.9339 0.92 0.8093 0.9715 0.9778
2440.157 0.8845 0.9542 0.7239 0.60785 0.7109 0.7419 0.8012 0.8401 0.7648 0.7609
2459.447 0.8391 1.0808 1.178 1.0197 0.8958 0.985 1.2318 1.1472 0.9389 0.7955
2478.737 0.7716 0.7817 0.8269 0.7497 0.65427 0.8209 0.8572 0.719 0.7239 0.7279
2498.026 0.64202 0.7328 0.8677 1.0289 0.9495 0.871 1.0394 1.0989 0.8699 0.8402
2517.316 1.0846 1.1335 0.9502 0.7081 0.8043 0.7974 0.62646 0.745 0.7485 0.6813
2536.606 0.8287 0.8805 0.8223 0.8024 0.735 0.8033 0.8473 0.8412 0.9526 0.9815
2555.896 0.8234 0.7341 0.7486 0.8193 0.8418 0.7224 0.7097 0.894 1.0073 0.8584
2575.186 0.8935 0.9837 1.0878 1.0617 0.8604 0.8524 0.8997 0.8481 0.62899 0.6763
2594.475 0.9064 1.0391 0.9209 1.0079 0.9864 0.8119 0.9406 1.061 0.943 0.9356
2613.765 0.9926 0.804 0.8083 0.9231 0.9539 0.7036 0.63494 0.8529 0.8523 0.814
2633.055 0.9481 0.9394 0.9007 0.9335 0.7802 0.9784 1.3301 1.1681 1.1799 1.1864
2652.345 0.9854 0.9446 0.9774 1.0165 1.0801 1.1344 1.2303 1.3712 1.4049 1.3826
2671.634 1.1664 1.1105 1.1864 1.4499 1.576 1.3448 1.2073 1.1266 1.1313 1.2183
2690.924 1.1921 1.2269 1.2517 1.2301 1.1552 1.218 1.3211 1.1893 1.0668 1.1323
2710.214 1.2434 1.1772 1.0521 0.9982 0.957 1.0436 1.345 1.3548 1.2501 1.3022
2729.504 1.4708 1.3605 1.3809 1.5081 1.325 1.2684 1.2554 1.301 1.305 1.1304
2748.794 1.3644 1.5163 1.3784 1.2147 0.9075 0.917 1.1803 1.3477 1.5018 1.5209
2768.083 1.1928 1.1102 1.3828 1.4656 1.3873 1.2914 1.3194 1.395 1.238 1.351
2787.373 1.596 1.4367 1.5424 1.656 1.716 1.826 1.736 1.926 2.026 2.066
2806.663 2.326 2.316 2.236 2.386 2.566 2.826 2.836 2.696 2.696 2.896
2825.953 3.046 3.036 3.126 3.386 3.786 4.036 4.596 5.366 5.526 5.796
2845.242 6.706 7.266 8.046 9.586 10.876 12.176 13.546 15.166 16.556 17.206
2864.532 17.806 18.146 17.816 17.096 16.396 15.736 14.946 14.436 14.106 13.416
2883.822 12.876 12.626 12.296 12.006 11.636 11.446 11.596 12.106 12.686 13.116
2903.112 14.006 14.776 15.636 16.866 18.216 19.886 21.716 23.786 26.076 28.876
2922.401 32.236 35.666 39.206 43.096 46.806 49.396 50.196 49.916 49.076 47.076
2941.691 43.996 40.316 36.666 32.806 28.986 25.786 23.396 21.966 21.026 20.016
2960.981 19.546 19.456 19.026 19.036 18.896 17.616 16.356 14.896 12.956 11.426
2980.271 9.826 8.336 7.506 6.786 6.086 5.786 5.606 4.946 4.356 4.336
2999.561 4.476 4.266 3.666 3.286 3.076 2.906 2.786 2.896 2.776 2.756
3018.850 2.876 2.796 2.616 2.376 2.436 2.856 2.866 2.406 2.326 2.216
3038.140 2.316 2.096 1.806 2.046 2.116 2.126 2.036 1.946 2.246 2.136
3057.430 1.806 2.096 2.246 2.416 2.526 1.796 1.3105 1.3983 1.586 1.596
3076.720 1.4923 1.776 1.966 1.946 1.646 1.3471 1.3421 1.3791 1.356 1.2843
3096.009 0.9792 0.8333 0.8842 0.7505 1.0266 1.1922 1.2824 1.2846 1.1675 1.626
3115.299 1.786 1.4472 1.3148 1.1981 1.1145 1.2063 0.9338 0.9909 1.1255 0.9118
3134.589 0.8775 1.0875 1.2808 1.2267 1.2816 1.2026 0.8739 0.6699 0.937 0.9915
3153.879 0.7614 0.8278 0.9589 1.2724 1.229 1.1201 1.1717 1.0881 0.8747 0.7093
3173.169 0.9768 1.1321 0.8389 0.58691 0.8101 1.1562 0.7203 0.57753 0.64944 0.6843
3192.458 1.1574 1.3079 1.2812 0.9371 0.805 0.7458 0.714 1.0717 1.277 1.0204
3211.748 0.7416 0.8226 0.7546 0.7847 1.0501 0.9058 0.7229 0.8925 0.9066 0.4931
3231.038 0.4775 0.63503 0.255 0.423 0.6688 0.7449 0.6275 0.5743 0.8054 0.7463
3250.328 0.8857 0.7083 0.5205 0.8233 0.8236 0.8128 0.8198 0.60711 0.63596 0.7383
3269.617 0.8693 0.6628 0.508 0.8509 0.62559 0.5008 0.7715 0.8245 0.6684 0.446
3288.907 0.5454 0.707 0.9462 0.8618 0.56728 0.9916 1.1588 0.8799 1.2088 1.2948
3308.197 1.1132 0.7826 0.61708 0.7276 0.6909 0.65093 0.61302 0.4762 0.393 0.8856
3327.487 1.0163 0.62297 0.62467 0.7003 0.6639 0.557467 0.265 0.6704 1.155 0.9484
3346.777 1.0214 1.0671 0.913 0.7613 0.562002 0.9095 0.8003 0.5033 0.6675 0.8994
3366.066 1.1144 1.1182 1.1364 1.0654 1.3445 1.4205 0.8495 0.6706 0.7957 0.7766
3385.356 0.7225 0.8046 0.9923 0.7707 0.7747 1.0805 0.6925 0.7662 1.1541 1.3971
3404.646 1.756 1.616 1.419 1.2849 1.4941 1.3623 1.029 0.7382 0.391 0.63663
3423.936 0.9041 1.2687 1.0721 0.418 0.6939 0.9878 1.0496 1.1921 1.0675 0.875
3443.225 0.7881 0.8441 0.8152 0.9595 1.2681 0.9823 0.9883 1.2842 1.1352 0.7266
3462.515 0.7553 1.1838 1.0131 0.9916 0.9656 0.7388 0.8038 0.5425 0.266 0.60143
3481.805 0.812 0.9058 1.2114 1.2524 1.2521 1.5149 1.706 1.4602 0.9851 1.2374
3501.095 1.606 1.2588 1.2945 1.3806 1.4277 1.0473 1.0052 1.3783 0.8783 0.62399
3520.385 0.59174 0.8477 1.1531 0.9713 1.0158 0.8769 0.987 1.3287 1.198 0.8664
3539.674 0.8215 0.9829 0.8155 0.863 0.6892 0.7028 0.8019 1.0987 1.876 1.946
3558.964 1.726 1.806 2.146 2.456 3.006 3.796 5.056 7.386 10.456 13.826
3578.254 17.416 20.336 21.736 22.306 20.626 17.056 13.296 9.896 7.416 5.426
3597.544 3.876 2.976 2.586 2.286 1.786 1.2077 1.2266 1.1792 1.1584 1.2397
3616.833 0.9468 1.0179 1.0618 1.1823 0.8785 0.6718 1.121 1.4202 1.3017 1.2089
3636.123 1.3371 0.9435 0.55848 0.7467 0.9373 1.0023 1.0146 0.7646 0.8864 1.0164
3655.413 0.61915 0.60725 0.9746 1.1373 0.9995 0.8107 0.741 0.58853 0.57426 0.7643
3674.703 0.9375 0.7536 0.63022 0.8749 1.052 0.8611 0.8044 0.7981 0.8175 0.8685
3693.993 0.7165 0.6779 0.8251 0.7926 0.785 0.6909 0.8234 1.1057 0.8 0.4758
3713.282 0.4677 0.6834 0.9441 1.0291 0.6713 0.6806 0.9933 0.7171 0.308 0.251
3732.572 0.7359 0.8855 0.59149 0.675 0.34 0.4574 0.7698 0.6801 0.56632 0.392
3751.862 0.54733 0.8886 0.8947 0.7489 0.62672 0.57004 0.7805 0.8646 0.56669 0.251
3771.152 0.527 0.753 0.5035 0.386 0.564303 0.6034 0.7486 0.8665 0.7956 0.9832
3790.441 1.4022 1.2406 0.57482 0.6826 0.8639 0.8877 1.1634 1.1613 0.989 0.7343
3809.731 0.57274 0.4993 0.8177 0.9299 0.8283 0.874 0.61966 0.4592 0.7614 1.0883
3829.021 1.0431 0.6915 0.337 0.292 0.223 0.284 0.428 0.64396 0.9199 0.9726
3848.311 0.9743 0.9274 0.8626 1.007 0.7966 0.65138 0.9388 0.993 0.62911 0.454
3867.601 0.192 0.274 0.8711 0.9883 0.9578 0.8112 0.8246 0.7687 0.4734 0.5097
3886.890 0.4831 0.4614 0.454 0.6621 0.9803 0.8221 0.8753 1.013 0.61729 0.43
3906.180 0.7047 0.62641 0.64688 0.9242 1.0722 0.877 0.563737 0.7605 1.0136 1.0491
3925.470 1.0785 0.8019 0.60923 0.661 0.8481 1.1073 0.9095 0.60497 0.8336 0.7082
3944.760 0.28 0.5086 0.5172 0.249 0.137 0.433 0.935 1.1246 1.2752 1.2714
3964.049 1.0074 1.1459 1.666 1.5079 0.693 0 0.564201 1.1903 0.9464 0.6918
3983.339 0.60092 0.8093 0.8408 1.0178 1.0482 0.7046 0.881 1.0014 0.4823 0.226
##END=
