##TITLE=4-Amino-3-chloro-5-methylbenzonitrile
##JCAMP-DX=4.24
##DATA TYPE=INFRARED SPECTRUM
##ORIGIN=EPA-IR VAPOR PHASE LIBRARY
##OWNER=SRD/NIST
Collection (C) 2018 copyright by the U.S. Secretary of Commerce
on behalf of the United States of America. All rights reserved.
##CAS REGISTRY NO=158296-69-6
##MOLFORM=C 8 H 7 Cl N 2
##$NIST SOURCE=MSDC-IR
##STATE=gas
##XUNITS=1/CM
##YUNITS=ABSORBANCE
##XFACTOR=1.
##YFACTOR=0.001
##DELTAX=1.92898
##FIRSTX=549.8
##LASTX=4000.7
##FIRSTY=6.02
##MAXX=4000.7
##MINX=549.759
##MAXY=0.05734
##MINY=0
##NPOINTS=1790
##XYDATA=(X++(Y..Y))
549.759 6.02 6.24 6.19 5.54 5.51 6.06 6.11 5.5 5.24 5.61
569.049 5.75 5.83 5.85 6.2 7.04 7.04 6.81 6.63 6.83 7.5
588.339 7.4 8.06 8.83 8.96 8.66 9.26 10.44 10.91 11.12 10.31
607.628 9.83 9.07 9.09 9.35 8.33 8.04 7.95 7.65 7.94 8.46
626.918 8.37 8.33 8.06 7.79 8.09 7.56 7.25 7.37 6.74 7.29
646.208 7.95 7.17 6.66 6.54 6.8 7.33 7.18 6.65 6.25 6.22
665.498 6.39 5.9 5.35 5.64 6.07 6.17 6.1 6.04 5.87 6.03
684.787 6.57 6.49 6.28 6.69 7.13 6.94 6.97 7 7.37 8.16
704.077 8.22 8.63 9.83 10.63 11.05 11.78 12.75 13.87 14.37 15.04
723.367 16.1 16.8 16.82 16.75 16.65 16.25 15.98 15.22 14.38 13.83
742.657 13.12 12.26 11.57 11 10.96 10.66 9.87 9.34 9.49 9.7
761.947 9.06 9.07 9.43 9.26 9 8.36 7.94 7.82 7.27 6.83
781.236 6.28 6.05 5.89 5.84 5.88 5.18 4.99 5.31 5.9 6.49
800.526 6.6 6.05 5.83 6.43 6.47 6.3 6.24 6.13 5.22 4.15
819.816 3.63 4.59 6.24 6.42 6.58 7.21 7.57 8.4 9.27 9.88
839.106 10.82 12.03 13.27 14.61 15.5 16.15 16.98 17.12 17.41 17.71
858.395 17.08 15.98 14.56 13.71 13.78 13.91 14.66 15.44 16.06 17.23
877.685 18.89 21.6 22.87 19.91 16.76 15.44 14.06 12.23 10.45 9.08
896.975 7.75 6.79 5.95 5.44 5.06 4.45 4.4 4.71 4.71 4.73
916.265 4.94 4.61 4.35 3.93 3.58 3.68 3.37 3.36 3.98 4.33
935.555 3.89 3.4 3.44 3.46 3.55 3.72 3.47 3.66 4.32 4.09
954.844 3.8 4 4.03 4.06 3.97 3.62 3.26 3.04 3.5 3.47
974.134 3.41 3.76 3.67 3.77 4.28 4.2 3.74 4.44 5.08 4.86
993.424 5.12 5.39 5.28 5.45 5.68 5.52 5.23 5.56 5.96 5.59
1012.714 5 4.73 4.24 3.38 2.76 2.69 2.83 3.24 3.03 2.35
1032.003 3.07 3.52 3.88 4.23 3.01 3.23 3.83 3.44 3.84 4.86
1051.293 4.76 5.32 6.02 5.51 5.66 5.92 6.65 8.1 8.98 9.08
1070.583 9.27 10.39 11.1 11.7 12.44 12.19 13.43 13.86 11.09 10.36
1089.873 9.97 7.47 7.17 6.86 5.94 4.31 3.45 4.53 3.83 2.1398
1109.163 1.19162 2.33 2.23 2.0211 2.31 1.6414 1.18775 0.917 0.982 2.1024
1128.452 2.7 2.5 4.52 6.24 6.13 7.36 7.41 7.16 8.79 8.73
1147.742 7.58 6.65 6.61 6.29 5.01 3.64 2.69 2.23 2.125 1.425
1167.032 1.17594 0.983 1.019 1.3178 1.286 2.3 2.93 2.35 1.6326 1.904
1186.322 1.8665 0.535 0.09 0.655 0.691 2.27 3.05 1.4953 1.8052 1.7231
1205.611 2.0522 2.32 0.01 0 3.12 3.78 3.8 4.27 3.78 4.99
1224.901 4.9 4.5 6.47 6.87 7.29 8.93 9.03 8.69 9.15 9.6
1244.191 9.89 8.52 6.36 5.85 5.5 4.43 4.05 3.63 3.28 2.68
1263.481 1.9079 2.62 3.61 3.81 3.56 3.89 4.36 5 5.78 6.39
1282.771 6.82 8.18 10.37 12.87 15.99 19.04 21.61 24.12 25.92 26.72
1302.060 26.69 25.62 23.66 20.96 17.73 14.19 11.06 8.65 6.96 5.82
1321.350 4.85 4.33 3.92 3.54 3.34 3.33 3.41 3.36 3.2 2.93
1340.640 2.76 2.8 2.61 2.35 2.35 2.33 2.25 2.19 2.27 2.32
1359.930 2.29 2.41 2.39 2.5 2.73 2.75 2.82 3 3.17 3.42
1379.219 3.73 3.64 3.4 3.44 3.58 3.61 3.27 3.14 3.13 3.06
1398.509 3.14 3.31 3.72 3.8 3.96 4.13 4 4.06 4.15 4.06
1417.799 4.14 4.1 3.94 3.94 4.27 4.88 5.7 6.49 7.22 8.41
1437.089 9.86 11.48 13.71 16.02 17.71 19.1 20.31 21.09 21.57 21.71
1456.378 21.63 21.58 21.86 22.45 23.86 26.08 28.66 31.8 35.05 38.13
1475.668 40.59 43.15 45.53 47.39 48.6 48.83 47.99 45.7 42.4 38.87
1494.958 34.83 30.36 25.78 20.58 15.6 12.26 9.81 7.89 6.66 5.87
1514.248 5.3 5.06 4.9 4.82 4.85 4.59 4.53 4.56 4.61 4.85
1533.538 5.05 5.23 5.41 5.45 5.79 6.05 6.19 6.27 6.33 6.63
1552.827 6.74 6.84 6.98 7.63 8.24 8.37 8.7 9.09 9.14 8.9
1572.117 8.71 8.66 8.42 7.81 7.44 7.31 7.1 7.16 7.59 7.98
1591.407 8.52 9.31 10.46 11.81 13.16 14.95 16.88 18.95 21.89 25.67
1610.697 29.99 34.87 40.06 44.99 49.72 53.61 55.99 57.34 57.02 55.14
1629.986 52.06 47.75 42.32 35.99 30 24.73 20.39 16.99 14.03 11.45
1649.276 9.43 8.22 7.4 6.92 6.43 5.81 5.59 5.24 4.71 4.6
1668.566 4.46 4.3 4.32 4.37 4.22 3.89 3.68 3.56 3.5 3.48
1687.856 3.32 3.24 3.26 3.11 2.85 2.91 3.16 2.99 2.84 2.92
1707.146 2.9 2.64 2.61 2.94 2.91 2.68 2.57 2.6 2.63 2.65
1726.435 2.8 2.81 2.49 2.3 2.57 2.78 2.81 2.74 2.8 2.95
1745.725 3.04 3.37 3.67 3.88 3.94 3.86 4.03 4.41 4.56 4.49
1765.015 4.26 3.99 3.63 3.32 3.25 3.09 2.76 2.35 2.1385 2.19
1784.305 2.0308 1.7903 1.8497 1.9693 1.9809 1.7317 1.5854 1.7123 1.9006 1.9707
1803.594 1.7566 1.7449 1.8835 1.7058 1.7054 1.7991 1.7255 1.7692 1.6694 1.6043
1822.884 1.5568 1.4907 1.4899 1.6499 1.6172 1.5657 1.5406 1.5335 1.8652 1.9009
1842.174 1.9498 2.0568 1.8688 1.7226 1.6474 1.6416 1.7253 1.6943 1.6694 1.8075
1861.464 1.75 1.6809 1.6497 1.518 1.6086 1.6358 1.4475 1.3525 1.4178 1.5258
1880.754 1.6565 1.7423 1.7533 1.7896 1.8517 1.7875 1.785 1.731 1.6429 1.6297
1900.043 1.5632 1.6849 1.8898 1.8603 1.8359 1.8999 2.0474 2.0554 1.8302 1.7489
1919.333 1.6954 1.6776 1.7817 1.8676 1.7524 1.6132 1.6605 1.7586 1.6679 1.6745
1938.623 1.7637 1.7458 1.8317 1.8326 1.6681 1.6208 1.655 1.7485 1.7717 1.6547
1957.913 1.6228 1.6219 1.5481 1.4582 1.688 1.751 1.5493 1.5352 1.8324 1.9291
1977.202 1.5756 1.5692 1.6987 1.5655 1.6332 1.8031 1.7153 1.497 1.4912 1.6453
1996.492 1.7399 1.7373 1.6117 1.7329 1.9167 1.7436 1.6743 1.7117 1.6136 1.7464
2015.782 1.8289 1.5262 1.6682 1.7745 1.6978 1.8594 1.9973 2.0428 1.9495 1.8359
2035.072 1.7977 1.7701 1.6346 1.7809 1.8547 1.7563 1.7379 1.7632 1.9172 1.9427
2054.362 1.8373 1.7724 1.7333 1.7946 1.775 1.7378 1.83 1.8449 1.6857 1.6567
2073.651 1.9013 2.0593 1.9555 1.9246 2.0391 1.9397 1.7345 1.7193 1.8742 1.8244
2092.941 1.7835 1.8006 1.8111 1.8231 1.6035 1.6717 1.74 1.7022 1.9679 2.1379
2112.231 1.9693 1.652 1.638 1.9023 1.8508 1.6522 1.6175 1.4937 1.5136 1.6459
2131.521 1.8227 1.8481 1.6255 1.5425 1.6426 1.9196 1.8415 1.6507 1.7626 1.6823
2150.810 1.6803 1.9175 2.0237 1.9062 1.7996 1.9027 1.9989 2.0039 2.0419 2.0209
2170.100 1.7897 1.7996 2.0232 2.0737 2.0686 2.0928 2.23 2.28 2.31 2.37
2189.390 2.43 2.29 2.4 2.6 2.51 2.74 2.94 3.02 3.09 2.93
2208.680 2.89 3.29 3.83 4.51 5.51 6.77 8.41 10.5 12.46 14.16
2227.970 15.57 16.57 17.13 17.18 16.67 15.3 13.29 11.07 8.95 6.88
2247.259 5.52 4.72 4.03 3.78 3.57 3.34 3.14 2.97 2.8 2.69
2266.549 2.62 2.38 2.1372 1.9433 1.9932 1.9695 1.6746 1.7229 1.9197 1.8988
2285.839 1.886 1.9883 1.7944 1.6202 1.6498 1.6605 1.8116 2.19 2.35 2.22
2305.129 2.095 2.0879 1.9867 1.6613 1.6919 1.8121 1.682 1.7422 1.9349 1.8117
2324.418 1.8833 2.17 1.9114 1.4662 1.5268 1.8685 2.0996 2.38 2.26 2.0457
2343.708 2.0036 1.7263 1.6816 1.7888 1.8345 1.798 1.8229 1.7529 1.5003 1.601
2362.998 1.9516 2.0711 2.1358 2.125 1.7953 1.718 2.0129 2.0922 2.0611 2.1272
2382.288 2.21 2.22 2.0905 2.0704 1.9988 1.9652 2.0001 2.0189 1.9503 1.8847
2401.578 1.898 1.8688 1.8383 1.8344 1.8552 1.8702 1.7165 1.6746 1.8405 1.8525
2420.867 1.6484 1.5518 1.7583 1.8325 1.9195 1.9213 2.0183 1.9771 1.7458 1.7915
2440.157 1.8227 1.6755 1.613 1.6689 1.7151 1.8582 1.9574 1.9501 1.7777 1.6902
2459.447 1.8406 1.9688 1.5943 1.5812 2.0819 2.28 1.9098 1.6686 1.9631 2.18
2478.737 2.16 1.9529 2.0137 2.0866 1.9524 1.9624 1.6187 1.2925 1.3526 1.6086
2498.026 2.0763 2.0838 1.8406 1.8723 1.8304 1.9132 1.773 1.7112 1.8722 1.7369
2517.316 1.8238 1.9113 1.8403 2.048 2.0909 1.751 1.7191 1.9139 1.9181 2.0491
2536.606 2.1553 2.0135 1.9914 2.16 2.41 2.38 1.9715 2.0245 2.39 2.4
2555.896 2.0867 1.759 1.8252 2.1511 2.0234 1.7614 2.0699 2.23 2.0997 2.0196
2575.186 2.1567 2.17 2.025 1.8879 1.8008 1.8414 2.17 2.28 2.34 2.51
2594.475 2.56 2.72 2.73 2.63 2.62 2.7 2.82 3.11 3.06 2.9
2613.765 3.04 2.99 2.96 3.04 2.96 2.84 2.58 2.3 2.22 2.6
2633.055 2.94 2.48 2.27 2.33 2.0151 2.093 2.41 2.21 1.8621 1.5391
2652.345 1.8362 2.29 1.9213 1.8196 1.9012 1.7935 1.8513 1.8743 1.768 1.8096
2671.634 1.7563 1.6112 1.8819 1.9642 1.6492 1.6042 1.686 1.6527 1.7628 2.0804
2690.924 2.19 2.0213 2.25 2.35 2.0363 1.6479 1.6736 1.6151 1.37 1.5188
2710.214 1.6617 2.0461 2.1374 1.8001 1.9097 2.19 2.1308 1.9086 1.7768 1.7254
2729.504 1.6144 1.7039 1.8107 2.0769 2.46 2.36 2.21 2.1233 2.2 2.034
2748.794 1.5364 1.9555 2.5 2.47 2.26 1.9738 2.1096 2.18 2.0303 1.9926
2768.083 2.25 2.48 2.4 2.1075 1.7229 1.8347 2.0184 2.23 2.32 2.47
2787.373 2.59 2.1122 1.8327 1.6204 1.7447 2.1305 2.29 2.0432 1.7061 1.5423
2806.663 1.7834 2.22 2.0478 1.781 2.0287 2.5 2.3 1.9038 2.0166 1.9896
2825.953 1.9554 2.31 2.42 2.41 2.41 2.34 2.19 2.4 2.91 3.08
2845.242 2.99 3 2.75 2.85 3.37 3.25 3.23 3.68 4.13 4.38
2864.532 4.47 4.21 4.62 5.35 5.14 4.87 5.19 5.5 5.53 5.49
2883.822 5.35 5.44 5.18 4.6 4.53 4.55 4.37 4.32 4.65 5.13
2903.112 5.24 5.3 5.35 5.26 5.66 6.09 6.71 7.16 7.45 7.34
2922.401 7.31 7.82 8.21 8.38 8.03 8.11 8.45 8.43 8.45 8.11
2941.691 7.73 7.62 7.55 7.26 6.87 7.04 6.63 5.61 4.8 4.3
2960.981 3.97 3.88 3.69 3.31 3.53 3.94 3.59 3.65 4.37 5.05
2980.271 5.21 5.11 5.49 5.62 5.87 5.93 5.79 5.62 5.08 4.77
2999.561 4.46 4.31 4.32 3.63 2.7 2.83 3.09 2.71 2.35 2.6
3018.850 2.78 2.61 2.49 2.29 2.32 2.49 2.68 2.74 2.63 2.66
3038.140 2.67 3 3.17 2.73 2.99 3.18 3.43 3.79 3.34 2.61
3057.430 2.56 3.04 2.83 3.14 3.42 2.75 2.5 2.52 2.79 2.75
3076.720 2.0112 2.1078 2.98 2.84 2.0332 2.0171 2.44 2.36 2.31 2.66
3096.009 2.28 1.6739 2.0088 2.0115 2.0014 2.29 2.0807 1.6328 1.6168 2.058
3115.299 2.1268 1.8683 2.0992 2.33 2.0394 2.24 2.39 2.0221 1.7065 1.8924
3134.589 2.26 1.9612 1.6673 1.5926 1.22774 1.0915 1.3522 1.656 1.745 1.4353
3153.879 1.554 2.32 2.36 2.0827 2.24 2.49 2.67 2.32 2.34 2.42
3173.169 2.29 2.28 2.0155 1.8452 1.8631 2.1336 2.0663 2.1365 2.28 2.28
3192.458 2.25 2.1019 2.46 2.59 2.31 2.1554 2.35 2.082 1.8664 2.32
3211.748 2.58 2.24 1.866 2.4 2.5 1.8311 1.3708 1.22522 1.6855 1.6267
3231.038 1.4305 1.9749 2.19 2.23 2.0498 1.6626 1.4236 1.4593 1.5872 1.6942
3250.328 1.9099 1.6719 1.6562 1.9152 2.17 1.8999 1.4805 1.4855 1.1377 1.0711
3269.617 1.5594 1.5434 1.0694 1.20531 1.6665 1.7769 1.7159 1.7814 1.842 1.7803
3288.907 1.8995 1.5923 1.7121 2.39 2.052 1.648 1.0683 1.046 1.5761 2.17
3308.197 2.42 1.7994 1.4789 1.2969 1.4544 1.9075 2.0863 2.22 1.9954 1.7886
3327.487 2.33 2.28 1.7238 1.7943 2.26 2.25 1.3783 0.644 0.699 1.439
3346.777 2.1279 1.6309 1.25959 1.6158 1.7389 1.9398 1.4814 1.6469 2.159 2.24
3366.066 2.49 2.21 1.7311 1.9705 2.37 2.49 2.93 2.88 2.57 2.93
3385.356 3.44 3.4 3.5 3.95 3.95 4.12 4.72 5.67 6.71 7.68
3404.646 8.14 8.68 10.02 11.16 12.52 13.59 14.36 15.25 15.83 15.8
3423.936 15.09 14.3 13.44 12.93 12.14 11 10.45 10.01 9.42 8.4
3443.225 7.23 6.12 5.42 4.87 3.81 3.61 3.42 3.1 3.1 3.01
3462.515 3.19 3 2.84 2.92 2.85 2.42 2.38 3.03 3.43 3.62
3481.805 3.63 3.71 3.91 4.17 4.67 5.13 5.61 5.92 6.62 7.53
3501.095 8.24 8.86 9.29 9.55 10.4 10.96 10.41 10.88 10.81 9.96
3520.385 9.17 8.35 8.67 9.09 8.47 7.51 7.16 7.16 7.41 7.28
3539.674 6.5 6.3 6.06 5.92 5.94 4.89 3.66 2.81 2.59 2.32
3558.964 2.1191 2.036 1.8719 2.5 2.9 2.26 1.9753 2.0242 1.9862 1.8456
3578.254 1.5735 1.435 1.5247 1.7743 1.6968 1.6731 1.3467 1.5137 1.9816 1.5232
3597.544 1.3773 1.4927 1.514 1.6255 1.6861 1.9305 1.7334 1.4203 1.0653 1.057
3616.833 1.2964 1.06 0.945 1.056 1.3166 1.1197 0.993 1.1006 1.1223 1.3546
3636.123 1.6018 1.7035 1.9128 1.938 1.7305 1.7628 1.4964 1.4185 1.7928 1.7568
3655.413 1.5667 1.7561 1.7349 1.18544 0.908 1.1123 1.3922 1.7191 1.8404 1.5937
3674.703 1.9683 2.05 1.18481 0.867 1.20362 1.6662 1.5055 1.059 1.24417 1.5863
3693.993 2.18 2.25 2.0626 1.8627 1.6109 1.3603 0.911 1.1338 1.5877 2.29
3713.282 2.39 1.7892 1.15606 1.21411 1.5364 1.3906 1.2814 1.17182 1.3054 1.1649
3732.572 1.4541 1.3145 0.956 1.56 1.8874 2.16 1.2564 0.832 1.007 0.955
3751.862 0.895 0.791 1.527 1.9453 1.9321 1.9596 1.8705 2.0466 2.43 1.9466
3771.152 1.7339 1.8174 1.6958 1.6543 1.6056 1.4351 1.3538 1.3306 1.22579 1.0857
3790.441 1.042 1.6514 1.7044 1.689 1.8685 1.6927 1.8051 1.5315 1.3894 1.777
3809.731 1.6553 1.3908 1.9987 2.0269 1.4575 1.2681 1.3992 1.8153 1.7661 1.78
3829.021 1.8884 2.3 2.21 1.3286 1.7127 2.0711 1.3588 1.648 2.079 1.9621
3848.311 1.5705 1.441 1.6035 1.6167 1.6466 1.8907 1.6668 1.6734 2.26 2.2
3867.601 1.7082 1.7249 2.34 2.3 1.8837 1.7281 2.46 2.65 2.71 2.6
3886.890 1.9137 1.9657 2.1447 2.0972 1.8423 1.6964 2.1411 2.2 2.35 2.3
3906.180 1.7691 1.7693 2.0311 1.9838 2.25 2.22 1.5672 1.9606 2.2 1.9186
3925.470 2.0383 2.32 1.944 1.8893 2.0514 2.22 2.33 2.21 1.872 1.3041
3944.760 1.4814 1.3123 1.3557 1.6268 1.17099 1.2981 1.6993 1.7737 1.9852 1.9695
3964.049 1.9785 1.7923 1.3533 1.3547 1.7131 1.4189 1.1519 0.876 0.833 1.7236
3983.339 2.31 2.44 2.0594 1.373 1.042 1.7 1.8853 1.7803 2.41 2.82
##END=
