##TITLE=3-Fluorophthalic acid
##JCAMP-DX=4.24
##DATA TYPE=INFRARED SPECTRUM
##ORIGIN=EPA-IR VAPOR PHASE LIBRARY
##OWNER=SRD/NIST
Collection (C) 2018 copyright by the U.S. Secretary of Commerce
on behalf of the United States of America. All rights reserved.
##CAS REGISTRY NO=1583-67-1
##MOLFORM=C 8 H 5 F O 4
##$NIST SOURCE=MSDC-IR
##STATE=gas
##XUNITS=1/CM
##YUNITS=ABSORBANCE
##XFACTOR=1.
##YFACTOR=0.001
##DELTAX=1.92898
##FIRSTX=549.8
##LASTX=4000.7
##FIRSTY=6.23
##MAXX=4000.7
##MINX=549.759
##MAXY=0.20339
##MINY=0
##NPOINTS=1790
##XYDATA=(X++(Y..Y))
549.759 6.23 5.69 5.98 5.85 5.51 5.6 4.14 3.04 2.65 1.6231
569.049 1.7369 1.48774 0.871 1.6059 2.26 1.14 0.749 1.073 0.504 0.446
588.339 0.587 0.827 1.4909 1.5611 1.41826 1.3167 1.11 0.831 0.808 1.123
607.628 1.5088 2.3373 2.2018 1.3504 1.528 2.1636 2.2863 3.06 3.82 4.18
626.918 5.05 5.92 6.69 7.13 7.35 7.39 7.19 7.04 6.99 6.59
646.208 5.33 3.74 2.98 2.79 2.51 2.85 2.85 3.03 4.29 5.33
665.498 5.01 3.8 3.32 3.02 2.99 2.88 2.2947 1.9974 1.7682 1.6571
684.787 1.847 2.1168 2.2212 1.9798 1.9357 1.975 1.9049 1.7107 1.6737 1.5681
704.077 1.295 1.3578 1.5176 1.6616 1.87 2.116 2.55 3.17 4.11 5.91
723.367 8.03 10 11.71 13.11 14.36 16.31 22.32 32.47 31.6 20.08
742.657 15.08 15.21 14.54 12.6 9.72 7.06 5.33 4.13 3.77 3.96
761.947 4.42 5.24 5.57 5.91 6.55 7.34 8.83 10.54 10.47 7.96
781.236 6.01 5.55 5.45 5.08 3.7 3.13 3.01 2.5 2.2958 2.3475
800.526 2.53 2.58 2.73 3.15 3.53 4.3 5.24 5.88 5.75 6.16
819.816 8.2 9.81 8.35 6.98 6.86 6.05 5.92 5.45 4.77 4.01
839.106 3.52 3.35 3.04 2.73 2.77 3.05 2.59 2.76 3.59 3.65
858.395 3.54 3.69 4.29 5.14 5.87 6.74 7.6 8.54 9.8 11.63
877.685 14.48 17.45 20.37 25.04 29.82 34.27 40.08 46.31 52.87 59.78
896.975 66.8 74.14 81.47 87.96 93.23 96.4 97.35 95.98 91.7 86.15
916.265 80.02 71.86 60.96 49 37.59 27.56 19.93 15.03 12.03 10.22
935.555 8.88 7.97 7.68 7.06 6.68 7.08 7.58 8.35 9.38 10.24
954.844 11.44 12.56 13.02 12.91 12.64 12.62 11.85 11.04 10.1 8.33
974.134 6.71 5.95 5.25 4.27 4.08 4.09 4.1 3.94 3.44 2.67
993.424 2.299 2.59 2.3844 2.1171 2.47 2.57 2.299 1.932 1.5129 1.44816
1012.714 1.3289 1.096 0.98 1.3389 2.2271 2.51 2.44 2.68 3 3.06
1032.003 2.9 2.99 3.66 4.54 4.64 4.34 4.05 3.71 3.85 3.85
1051.293 3.67 4.38 3.71 2.83 2.42 1.3633 1.7114 1.9796 2.76 2.79
1070.583 1.8214 2.0218 2.3259 2.0937 1.7633 1.7459 1.7184 1.202 0.805 1.953
1089.873 2.65 2.114 2.78 3.04 3.19 3.87 4.87 5.87 5.8 6.65
1109.163 7.74 8.02 8.22 9.18 11.02 12.27 12.86 14.55 16.18 16.56
1128.452 16.02 15.96 15.45 13.6 12.72 12.17 10.52 9.35 7.73 6.04
1147.742 5.77 5.75 4.85 3.68 3.48 3.78 3.61 3.9 3.8 3.56
1167.032 3.92 4.31 3.94 3.74 4.07 4.41 5 6.1 7.25 8.47
1186.322 10.05 11.08 12.5 14.08 15.95 17.26 19.6 22.7 25.31 29.22
1205.611 32.35 32.08 30.6 31 30.91 28.76 26.05 23.4 19.6 14.78
1224.901 12.6 11.51 10.02 9.67 10.02 10.1 10.93 13.01 15.76 19.87
1244.191 24.82 29.95 35.05 39.4 43.46 47.01 49.46 51.91 53.85 54.62
1263.481 54.2 52.56 50.12 48.06 47.24 46.32 44.79 42.35 38.68 34.69
1282.771 30.64 26.68 22.76 18.59 14.53 10.63 7.8 6.14 5.01 4.5
1302.060 4.45 4.44 4.57 4.83 4.76 4.81 5 4.99 4.85 4.72
1321.350 4.69 4.68 4.82 5.52 6.4 7.41 8.73 10.08 11.15 11.89
1340.640 12.4 12.54 12.48 12.25 11.77 10.93 9.81 8.64 7.58 6.73
1359.930 6.26 5.95 5.66 5.47 5.29 4.95 4.46 4.09 3.74 3.17
1379.219 2.93 2.92 2.68 2.6 2.65 2.74 2.85 2.83 2.92 3.09
1398.509 3.21 3.11 2.94 2.85 2.76 2.73 2.74 2.6 2.31 2.1004
1417.799 2.0936 2.1586 2.2332 2.3466 2.4 2.45 2.53 2.68 2.83 2.92
1437.089 3.18 3.48 3.75 4.21 4.54 4.9 5.5 6.02 6.38 6.55
1456.378 6.84 7.33 8.04 8.65 8.91 9.54 10.9 12.9 15.61 19.34
1475.668 23.76 28.64 33.45 37.14 38.78 38.75 37.63 35.87 33.62 30.75
1494.958 26.43 20.83 15.29 10.83 7.81 6.03 5.05 4.53 4.44 4.54
1514.248 4.67 4.67 4.56 4.56 4.52 4.17 3.83 3.57 3.43 3.46
1533.538 3.31 3.01 2.88 2.87 2.9 3.02 3.08 3.02 3.06 3.07
1552.827 3.18 3.34 3.14 2.98 2.9 3.07 3.05 2.81 2.73 2.43
1572.117 2.2292 2.3622 2.64 2.77 2.9 3.04 3.07 3.29 3.68 4.19
1591.407 4.89 5.86 6.97 8.21 9.66 11.4 13.51 15.74 18.18 20.57
1610.697 22.88 24.78 25.87 25.88 24.55 22.26 19.05 15.35 11.89 8.97
1629.986 6.89 5.43 4.22 3.69 3.44 2.99 2.67 2.52 2.3363 2.3715
1649.276 2.3658 2.2445 2.2826 2.1482 1.9458 1.8513 1.9209 2.0095 1.9736 1.8881
1668.566 2.0113 2.0123 1.8025 1.9654 2.2084 2.2269 2.3351 2.309 2.3155 2.3332
1687.856 2.2825 2.1939 2.0155 2.1613 2.3032 2.1053 2.0884 2.43 2.56 2.45
1707.146 2.2421 2.3578 2.56 2.59 2.67 2.73 2.66 2.63 2.76 2.84
1726.435 2.8 2.81 2.98 3.03 3.24 3.32 3.24 3.45 3.76 4.06
1745.725 4.44 4.84 5.28 5.83 6.35 6.97 7.65 8.34 9.1 9.88
1765.015 10.86 12.06 13.24 14.6 16.43 18.54 21.43 25.39 30.68 37.5
1784.305 46.62 58.87 74.27 93.06 115.16 138.72 160.83 178.91 191.04 198.55
1803.594 202.52 203.39 199.08 186.93 167.67 144.97 122.39 102.29 85.93 72.95
1822.884 62.56 54.26 47.52 41.79 36.49 31.95 28.32 25.46 23.39 21.8
1842.174 20.64 19.85 19.18 18.89 19.13 19.91 21.45 23.98 27.41 31.72
1861.464 36.76 42.26 47.52 51.81 54.87 56.6 57.13 56.57 54.88 51.56
1880.754 46.75 40.94 34.95 29.67 25.42 22.03 19.3 17.15 15.28 13.61
1900.043 12.17 10.74 9.17 7.77 6.64 5.69 5.16 4.69 4.34 4.22
1919.333 4.02 3.79 3.47 3.28 3.19 2.95 2.71 2.63 2.57 2.56
1938.623 2.66 2.67 2.69 2.84 2.98 3.03 3.04 2.99 2.87 2.73
1957.913 2.64 2.65 2.66 2.65 2.57 2.344 2.2643 2.1909 2.0615 1.9535
1977.202 1.9284 2.0145 2.0027 1.8872 1.8389 1.762 1.8256 1.941 1.8352 1.9201
1996.492 2.0042 1.9677 2.122 2.3184 2.44 2.3657 2.39 2.77 3.04 2.91
2015.782 2.93 3.07 3.09 3.24 3.35 3.33 3.27 3.24 3.23 3.19
2035.072 3.2 3.16 3.08 2.88 2.77 2.71 2.54 2.43 2.1734 2.0413
2054.362 1.8861 1.6878 1.5907 1.5902 1.5646 1.535 1.508 1.5286 1.5828 1.4364
2073.651 1.5877 1.7635 1.7532 1.7101 1.7641 1.9339 1.8922 1.7801 1.719 1.7259
2092.941 1.8192 1.8112 1.8701 1.9006 1.8887 1.9656 1.872 1.8999 1.9918 2.0036
2112.231 2.0154 2.0735 2.032 1.9661 2.0628 1.8827 1.7259 1.8091 1.7331 1.7073
2131.521 1.7954 1.8412 1.7041 1.48287 1.38358 1.41094 1.45603 1.5444 1.6138 1.6394
2150.810 1.6921 1.6293 1.6488 1.7661 1.7163 1.6575 1.8041 1.8345 1.7958 1.827
2170.100 1.8856 1.7172 1.6164 1.7314 1.6071 1.48711 1.42787 1.39652 1.40154 1.3213
2189.390 1.246 1.3072 1.2957 1.243 1.44806 1.40188 1.252 1.43809 1.48647 1.3309
2208.680 1.262 1.38181 1.611 1.6439 1.4989 1.5373 1.7424 1.8929 1.8077 1.6884
2227.970 1.6307 1.6048 1.6895 1.7273 1.7233 1.637 1.717 1.7846 1.7225 1.8488
2247.259 1.7748 1.7278 1.8594 1.7985 1.8069 1.9338 1.9161 1.7781 1.5136 1.42644
2266.549 1.5627 1.5941 1.5667 1.5094 1.3237 1.3312 1.40043 1.236 1.246 1.3284
2285.839 1.41599 1.4393 1.5429 1.5241 1.17 1.151 1.2963 1.23 1.203 1.3368
2305.129 1.3408 1.3482 1.44084 1.3409 1.3078 1.3519 1.268 1.3225 1.44588 1.3493
2324.418 1.249 1.115 1.133 1.192 1.253 1.40764 1.3401 1.3743 1.23 1.3073
2343.708 1.45901 1.241 1.242 1.214 1.213 1.3112 1.3487 1.5175 1.5553 1.3354
2362.998 1.17 1.075 1.087 1.278 1.261 1.091 1.032 1.049 1.112 1.117
2382.288 1.129 1.036 1.073 1.3095 1.38376 1.3303 1.16 1.005 1.2 1.216
2401.578 1.069 1.189 1.29 1.38048 1.242 1.014 1.211 1.348 1.164 1.184
2420.867 1.256 1.3615 1.43872 1.4928 1.5245 1.5093 1.41776 1.3711 1.7058 1.8414
2440.157 1.6839 1.4524 1.265 1.39705 1.40608 1.315 1.3493 1.3459 1.47507 1.48385
2459.447 1.3404 1.15 1.116 1.17 1.181 1.156 1.177 1.214 1.07 1.15
2478.737 1.258 1.211 1.13 1.106 1.231 1.39031 1.44992 1.3668 1.245 1.39131
2498.026 1.5774 1.44733 1.41594 1.3372 1.5474 1.5132 1.229 1.3445 1.3707 1.255
2517.316 1.3826 1.5524 1.286 1.216 1.219 1.181 1.3772 1.39578 1.44774 1.6043
2536.606 1.5552 1.45977 1.46983 1.6799 1.5578 1.303 1.44472 1.5929 1.7427 1.6764
2555.896 1.3735 1.3225 1.5771 1.7334 1.4431 1.252 1.3034 1.5 1.7538 1.47189
2575.186 1.273 1.286 1.171 1.208 1.063 1.235 1.6155 1.4998 1.3783 1.371
2594.475 1.271 1.43696 1.6126 1.48939 1.41669 1.288 1.287 1.372 1.3799 1.188
2613.765 1.131 1.3346 1.42367 1.4907 1.263 1.058 1.066 1.028 1.256 1.5547
2633.055 1.3755 1.3061 1.289 1.066 0.972 0.866 1.01 1.167 1.147 1.082
2652.345 1.18 1.3302 1.361 1.235 0.978 1.049 1.40665 1.41354 1.139 1.213
2671.634 1.3767 1.136 1.115 1.241 1.132 1.076 0.997 1.121 1.2 1.018
2690.924 1.13 1.184 1.085 1.233 1.286 1.3334 1.4956 1.2932 0.981 0.974
2710.214 1.237 1.38565 1.3318 1.257 1.148 1.3172 1.45716 1.207 1.128 1.3115
2729.504 1.202 1.046 1.07 1.3081 1.39623 1.249 1.117 1.12 1.177 1.3663
2748.794 1.6124 1.47147 1.42847 1.26 1.2 1.3748 1.238 1.127 1.022 0.934
2768.083 0.976 1.087 1.206 1.208 1.268 1.264 1.13 1.234 1.18 1.021
2787.373 0.986 1.067 1.128 1.144 1.2992 1.39474 1.5585 1.5852 1.256 1.212
2806.663 1.47235 1.5237 1.47768 1.48206 1.5886 1.46217 1.266 1.3161 1.3026 1.369
2825.953 1.224 0.982 0.835 1.042 1.237 1.128 1.2 1.3 1.3386 1.256
2845.242 1.272 1.266 1.121 1.158 1.234 1.231 1.174 1.39762 1.48141 1.175
2864.532 1.05 1.054 1.193 1.3291 1.45967 1.38052 1.3256 1.152 1.076 1.41115
2883.822 1.7193 1.7407 1.3403 1.184 1.45915 1.274 1.079 1.254 1.38646 1.3389
2903.112 1.219 1.207 1.214 1.161 0.989 0.973 1.204 1.204 1.163 1.164
2922.401 0.941 0.98 1.208 1.3497 1.544 1.3361 1.133 1.45402 1.5072 1.47891
2941.691 1.3324 1.3155 1.252 0.919 0.988 1.102 1.326 1.43273 1.5422 1.6231
2960.981 1.42861 1.5206 1.6393 1.3856 1.236 1.38763 1.40955 1.206 1.147 1.3185
2980.271 1.113 1.012 1.1 1.134 1.039 0.877 1.245 1.38328 1.199 1.5082
2999.561 1.6245 1.123 0.884 1.031 1.191 1.21 1.074 0.951 0.901 1.018
3018.850 1.136 1.192 1.145 1.286 1.5099 1.6232 1.5378 1.46565 1.43797 1.289
3038.140 1.275 1.45318 1.6857 1.6551 1.375 1.3529 1.6982 2.1734 2.3663 2.3663
3057.430 2.1803 1.7893 1.9712 2.082 1.7676 1.679 1.683 1.8941 2.1086 2.0579
3076.720 1.7278 1.3128 1.3333 1.5365 1.7289 1.823 1.7152 1.3734 1.172 1.261
3096.009 1.162 1.3438 1.7399 1.6152 1.7307 1.9942 1.5741 1.263 1.6479 1.6727
3115.299 1.23 1.073 0.991 1.102 1.2912 1.46512 1.3696 1.242 0.9 0.654
3134.589 1.199 1.207 0.975 0.726 0.817 1.168 1.053 1.075 1.052 0.689
3153.879 0.633 0.935 1.085 1.226 1.249 1.3751 1.168 1.061 1.278 1.169
3173.169 1.029 0.898 0.78 0.99 1.08 0.945 0.991 1.027 0.944 0.72
3192.458 0.634 0.796 0.94 1.119 1.5199 1.4846 1.023 0.955 1.39485 1.049
3211.748 0.668 0.895 0.845 1.3077 1.7775 1.5281 1.42984 1.5551 1.3594 0.866
3231.038 1.043 1.277 1.16 1.102 1.147 1.112 0.694 0.86 1.231 0.995
3250.328 0.61 0.71 1.069 1.142 0.746 0.447 0.769 1.41293 1.3786 1.074
3269.617 0.826 0.448 0.829 1.44185 1.194 0.594 0.607 1.075 1.3219 0.92
3288.907 0.568 0.393 0.37 0.534 0.978 1.03 0.698 0.18 0.22 1.029
3308.197 1.3477 1.3114 1.095 1.185 1.3517 1.159 1.093 0.923 0.711 0.832
3327.487 0.971 1.3077 1.203 1.035 1.113 0.949 1.147 0.993 0.412 0.571
3346.777 0.668 0.677 1.049 1.085 1.104 1.3004 0.934 0.95 1.6007 1.618
3366.066 1.41173 1.214 0.539 0.39 1.106 1.265 0.945 0.525 0.3 0.919
3385.356 1.297 1.061 1.44583 1.3818 0.876 0.881 0.848 0.647 0.803 1.264
3404.646 1.078 0.887 0.814 0.882 1.1 1.224 1.3098 1.07 1.039 0.801
3423.936 0.538 0.931 1.166 1.031 0.995 1.014 1.103 1.39897 1.48965 1.3882
3443.225 1.46224 1.283 1.2 1.178 1.127 1.3133 1.3179 1.27 1.3492 1.42114
3462.515 1.171 0.837 1.112 1.205 0.9 1.215 1.40165 1.184 0.953 0.743
3481.805 0.68 0.669 0.632 0.35 0.23 0.33 0.692 0.94 0.758 1.179
3501.095 1.2936 1.049 1.017 0.756 0.712 0.7 0.932 1.203 0.882 0.889
3520.385 0.678 0.449 0.66 0.872 1.019 0.975 1.031 1.3451 1.24 0.883
3539.674 0.975 1.3225 1.5532 1.108 0.992 1.181 1.134 1.7323 1.963 1.6043
3558.964 1.2995 1.157 1.3316 1.3076 1.137 1.236 1.042 1.105 1.749 1.8929
3578.254 1.6705 1.7723 1.8626 1.5537 1.5341 1.8223 2.198 2.3168 2.3224 2.2567
3597.544 2.0849 2.1697 2.49 2.49 2.2659 2.66 2.87 2.7 2.77 2.2689
3616.833 2.0148 2.58 2.48 1.9911 1.9904 1.8325 1.9065 2.2456 2.3464 2.51
3636.123 2.59 2.41 1.9446 2.41 2.66 2.2862 2.69 2.83 2.78 2.95
3655.413 3.33 3.5 3.22 3.11 2.96 2.83 2.69 2.45 2.43 2.54
3674.703 2.6 2.3296 1.9875 2.1899 2.1446 1.6771 1.7848 1.914 1.7186 1.301
3693.993 1.39018 1.7375 1.5365 1.42915 1.6391 1.7076 1.5887 1.3 0.897 1.069
3713.282 1.45874 1.4269 1.5723 1.3441 0.789 1.133 1.45037 1.6441 1.6045 1.201
3732.572 1.4924 1.9281 1.6611 1.613 1.8691 1.5451 1.42053 1.7273 1.7161 1.44005
3751.862 1.248 1.279 1.3288 1.2952 1.41384 1.6273 1.7189 1.5801 1.39921 1.5019
3771.152 1.3546 1.02 0.88 1.218 1.3789 1.038 1.21 1.019 0.763 1.083
3790.441 1.3274 1.18 1.147 1.362 0.855 0.432 1.065 1.3488 1.043 0.775
3809.731 0.988 1.45468 1.39925 1.39979 1.212 0.997 1.096 1.131 1.278 1.5124
3829.021 1.196 0.866 0.838 1.38836 1.7914 1.067 0.804 0.946 1.035 1.152
3848.311 1.012 0.971 1.084 1.131 1.3273 1.44156 1.028 0.815 1.39634 1.6395
3867.601 1.151 0.979 1.3167 0.999 1.112 1.3011 1.205 1.239 1.233 1.46349
3886.890 1.16 0.663 0.717 0.993 1.046 1.3046 1.28 0.752 0.719 1.077
3906.180 1.228 1.067 0.891 0.682 0.622 0.657 0.434 0.694 1.095 0.934
3925.470 0.88 0.927 0.784 0.588 0.34 0 0.38 1.135 1.207 0.904
3944.760 0.99 1.154 0.942 1.205 1.259 1.3516 1.6423 1.251 0.713 1.01
3964.049 1.28 0.832 0.27 0.39 0.625 0.686 1.029 0.896 0.804 0.911
3983.339 1.003 1.3072 1.2911 0.674 0.641 1.179 1.5787 1.6694 1.218 1.07
##END=
