##TITLE=cis-2-Methyl-3-hexene
##JCAMP-DX=4.24
##DATA TYPE=INFRARED SPECTRUM
##ORIGIN=NIST Mass Spectrometry Data Center
##OWNER=NIST Standard Reference Data Program
Collection (C) 2018 copyright by the U.S. Secretary of Commerce
on behalf of the United States of America. All rights reserved.
##CAS REGISTRY NO=15840-60-5
##MOLFORM=C 7 H 14
##$NIST SOURCE=MSDC-IR
##SPECTROMETER/DATA SYSTEM=HP-GC/MS/IRD
##STATE=gas
##XUNITS=1/CM
##YUNITS=ABSORBANCE
##XFACTOR=1.0
##YFACTOR=0.000003400
##DELTAX=4.0
##FIRSTX=550.0
##LASTX=3846.0
##FIRSTY=0.000201
##MAXX=3846
##MINX=550
##MAXY=0.034
##MINY=0
##NPOINTS=825
##XYDATA=(X++(Y..Y))
550.0 59 54 14 0 36 69 95 107 105 96
590.0 95 128 150 114 100 125 128 104 106 103
630.0 82 92 113 123 126 103 64 77 96 107
670.0 131 147 165 200 240 281 331 404 507 644
710.0 767 909 1062 1176 1279 1319 1295 1227 1107 955
750.0 795 674 581 509 450 381 344 326 293 283
790.0 275 263 277 278 247 227 216 188 167 142
830.0 115 91 78 95 105 90 77 81 93 103
870.0 113 131 146 151 147 132 115 104 121 134
910.0 161 202 243 305 374 425 472 465 406 332
950.0 242 181 150 121 94 88 87 83 78 84
990.0 101 101 101 106 116 131 134 136 138 134
1030.0 127 133 129 127 149 179 208 240 292 342
1070.0 373 386 382 383 377 367 361 339 325 320
1110.0 314 289 258 233 204 193 199 185 190 220
1150.0 237 245 252 252 231 208 173 133 104 77
1190.0 59 61 66 60 53 54 66 66 59 72
1230.0 85 88 96 110 125 127 141 167 181 189
1270.0 209 262 338 434 539 632 690 712 678 569
1310.0 433 329 263 213 184 173 170 179 210 247
1350.0 293 349 418 463 508 583 618 594 551 501
1390.0 451 417 412 423 440 448 442 425 403 394
1430.0 407 444 514 616 731 864 983 1077 1143 1160
1470.0 1113 999 868 741 616 507 414 327 263 220
1510.0 185 160 135 120 105 83 70 58 58 53
1550.0 49 48 44 54 49 46 50 56 55 59
1590.0 65 72 73 71 77 82 80 83 97 107
1630.0 115 120 127 138 145 143 151 154 150 161
1670.0 161 156 165 168 174 188 188 172 161 145
1710.0 130 115 99 96 92 79 70 61 53 54
1750.0 52 49 46 45 46 44 44 47 47 42
1790.0 39 36 36 36 32 29 29 27 18 18
1830.0 23 19 27 31 23 20 21 21 17 17
1870.0 15 13 14 12 14 24 25 16 13 13
1910.0 14 15 11 7 13 18 12 8 9 12
1950.0 13 13 14 13 13 14 13 14 13 6
1990.0 8 13 14 14 16 18 11 14 20 21
2030.0 31 37 30 32 31 27 33 32 21 15
2070.0 16 18 20 20 19 19 17 14 11 2
2110.0 1 9 13 9 12 11 6 7 8 9
2150.0 8 5 5 14 11 6 7 7 9 6
2190.0 5 7 0 4 9 9 10 10 12 15
2230.0 9 13 13 13 20 21 24 23 20 24
2270.0 25 23 20 23 26 15 7 17 26 26
2310.0 28 24 22 19 13 12 11 4 8 15
2350.0 16 17 18 21 25 32 34 34 39 37
2390.0 28 32 38 38 35 31 30 27 26 26
2430.0 25 28 29 32 34 37 40 32 36 41
2470.0 32 28 30 34 38 36 34 34 30 28
2510.0 24 25 28 27 25 29 43 44 38 48
2550.0 56 56 53 52 53 63 68 64 61 60
2590.0 61 56 53 62 66 65 63 54 52 58
2630.0 61 59 57 62 62 55 49 56 56 47
2670.0 49 43 40 52 59 68 77 87 87 89
2710.0 110 128 141 157 166 177 178 170 177 189
2750.0 186 176 169 176 183 182 183 200 219 222
2790.0 223 240 262 285 306 336 357 376 412 449
2830.0 492 554 637 732 840 993 1200 1463 1819 2270
2870.0 2728 3105 3388 3559 3591 3529 3421 3322 3280 3304
2910.0 3382 3517 3677 3876 4159 4498 4857 5212 5570 6023
2950.0 6631 7388 8409 9508 10000 9903 9422 8440 7069 5629
2990.0 4563 3950 3648 3505 3405 3164 2778 2371 1946 1540
3030.0 1186 892 687 557 471 424 393 377 372 358
3070.0 340 332 311 289 276 260 255 253 234 225
3110.0 225 217 207 203 211 215 208 200 195 192
3150.0 197 198 192 180 184 186 165 161 162 146
3190.0 143 140 122 122 129 112 101 92 75 65
3230.0 60 59 58 47 42 51 40 29 34 31
3270.0 26 31 37 50 61 48 43 42 38 49
3310.0 59 52 57 59 42 33 37 39 32 40
3350.0 46 35 36 33 24 23 27 29 25 15
3390.0 28 29 27 31 17 20 41 44 21 8
3430.0 18 11 11 19 22 24 27 23 14 10
3470.0 7 4 4 4 11 16 16 25 26 13
3510.0 16 28 22 19 10 0 8 15 25 27
3550.0 24 11 20 40 35 31 33 24 15 20
3590.0 14 11 10 8 10 14 14 16 21 14
3630.0 21 15 17 24 22 29 17 7 8 17
3670.0 21 24 33 28 23 24 29 36 35 33
3710.0 29 28 31 32 29 26 40 39 26 29
3750.0 38 38 28 22 27 24 18 22 25 37
3790.0 52 55 41 32 39 41 37 37 31 24
3830.0 30 32 18 26 52
##END=
