##TITLE=5-Bromoamyl acetate
##JCAMP-DX=4.24
##DATA TYPE=INFRARED SPECTRUM
##ORIGIN=EPA-IR VAPOR PHASE LIBRARY
##OWNER=SRD/NIST
Collection (C) 2018 copyright by the U.S. Secretary of Commerce
on behalf of the United States of America. All rights reserved.
##CAS REGISTRY NO=15848-22-3
##MOLFORM=C 7 H 13 Br O 2
##$NIST SOURCE=MSDC-IR
##STATE=gas
##XUNITS=1/CM
##YUNITS=ABSORBANCE
##XFACTOR=1.
##YFACTOR=0.001
##DELTAX=1.92934
##FIRSTX=549.9
##LASTX=3999.5
##FIRSTY=0.70406
##MAXX=3999.53
##MINX=549.863
##MAXY=0.067961
##MINY=0
##NPOINTS=1789
##XYDATA=(X++(Y..Y))
549.863 0.70406 0.6811 0.8793 1.086 1.1622 1.1725 1.3334 1.5071 1.6687 1.841
569.156 1.891 1.841 1.871 1.851 1.6472 1.448 1.2864 1.0893 1.0801 1.1402
588.450 1.1337 1.1773 1.1446 1.1402 1.2469 1.242 1.2824 1.4406 1.487 1.5321
607.743 1.5445 1.5913 1.6224 1.484 1.4244 1.4842 1.6007 1.691 1.701 1.851
627.037 2.021 2.111 2.321 2.461 2.581 2.631 2.611 2.661 2.721 2.701
646.330 2.641 2.621 2.581 2.491 2.271 1.971 1.761 1.5757 1.3447 1.1801
665.624 1.0267 0.8862 0.8371 0.74688 0.6591 0.66436 0.676648 0.6221 0.6349 0.5915
684.917 0.568 0.571 0.521 0.547 0.535 0.564 0.6562 0.6436 0.6414 0.68432
704.210 0.70408 0.67716 0.6361 0.71432 0.76244 0.75731 0.7901 0.8645 0.9434 0.9856
723.504 1.0194 1.0163 1.1376 1.2849 1.3273 1.3933 1.4352 1.4974 1.5096 1.4864
742.797 1.4801 1.4251 1.308 1.2458 1.2097 1.1106 1.0094 0.9675 0.9987 1.0112
762.091 0.9873 0.9652 0.9653 0.9752 0.9532 0.895 0.8599 0.8541 0.9423 0.9866
781.384 0.9844 1.0515 1.0627 1.0575 1.1031 1.1214 1.1262 1.1304 1.125 1.1599
800.678 1.2076 1.2014 1.2195 1.2216 1.2381 1.2796 1.2836 1.3438 1.3695 1.3717
819.971 1.3823 1.4008 1.422 1.4187 1.4208 1.4425 1.427 1.4408 1.4726 1.4472
839.264 1.4315 1.4738 1.5243 1.5602 1.5729 1.557 1.5603 1.5781 1.5935 1.604
858.558 1.6409 1.6364 1.5688 1.5119 1.5052 1.5544 1.5742 1.5152 1.505 1.5041
877.851 1.5009 1.5012 1.4736 1.4795 1.5051 1.5462 1.5424 1.4856 1.4792 1.4798
897.145 1.5109 1.5253 1.4868 1.4954 1.5143 1.5291 1.5526 1.6055 1.6092 1.5727
916.438 1.5917 1.5946 1.5636 1.5796 1.5914 1.5818 1.5445 1.5178 1.5379 1.5752
935.732 1.6161 1.6203 1.6483 1.701 1.761 1.811 1.861 1.931 1.961 1.981
955.025 2.041 2.081 2.111 2.131 2.191 2.281 2.301 2.351 2.411 2.461
974.318 2.541 2.571 2.581 2.581 2.571 2.601 2.641 2.701 2.801 2.881
993.612 3.021 3.211 3.461 3.751 4.031 4.351 4.641 4.981 5.331 5.711
1012.905 6.081 6.431 6.791 7.121 7.471 7.821 8.181 8.581 8.991 9.421
1032.199 9.941 10.481 10.971 11.451 11.851 12.091 12.171 12.081 11.841 11.531
1051.492 11.161 10.771 10.371 9.971 9.591 9.311 9.051 8.791 8.631 8.481
1070.786 8.261 8.001 7.731 7.461 7.251 6.991 6.631 6.281 5.971 5.631
1090.079 5.281 5.021 4.741 4.411 4.111 3.851 3.641 3.361 3.081 2.901
1109.372 2.731 2.521 2.381 2.251 2.101 2.021 1.951 1.851 1.781 1.731
1128.666 1.691 1.6078 1.4757 1.4666 1.4846 1.5075 1.5809 1.5582 1.5453 1.721
1147.959 1.741 1.701 1.731 1.771 1.841 1.851 1.811 1.851 1.961 2.081
1167.253 2.211 2.341 2.441 2.551 2.691 2.931 3.231 3.401 3.681 4.151
1186.546 4.601 5.111 5.811 6.491 7.301 8.281 9.381 10.951 12.851 14.771
1205.840 16.951 19.511 22.411 25.761 29.681 34.331 39.511 45.161 51.221 57.041
1225.133 62.121 66.001 67.961 67.951 65.931 62.001 56.791 51.081 45.361 39.961
1244.426 35.131 30.921 27.381 24.461 22.021 20.061 18.531 17.201 16.031 14.961
1263.720 13.901 12.931 12.041 11.191 10.451 9.801 9.211 8.831 8.461 8.081
1283.013 7.761 7.511 7.251 6.831 6.461 6.111 5.731 5.401 5.071 4.731
1302.307 4.461 4.201 3.961 3.741 3.511 3.331 3.131 2.921 2.751 2.581
1321.600 2.491 2.431 2.301 2.221 2.181 2.151 2.141 2.151 2.191 2.251
1340.894 2.351 2.491 2.681 2.921 3.211 3.591 4.031 4.571 5.271 6.131
1360.187 7.161 8.321 9.461 10.381 10.981 11.191 10.951 10.291 9.361 8.461
1379.480 7.701 7.181 6.851 6.581 6.401 6.221 5.971 5.651 5.261 4.831
1398.774 4.411 3.981 3.611 3.231 2.891 2.691 2.541 2.421 2.351 2.331
1418.067 2.291 2.291 2.341 2.411 2.511 2.631 2.801 2.981 3.181 3.451
1437.361 3.701 3.861 4.061 4.211 4.251 4.311 4.331 4.301 4.261 4.261
1456.654 4.261 4.231 4.171 4.051 3.951 3.851 3.661 3.481 3.311 3.131
1475.948 2.951 2.751 2.551 2.381 2.261 2.111 1.901 1.761 1.701 1.6421
1495.241 1.5629 1.475 1.4655 1.4549 1.3922 1.3034 1.2746 1.2809 1.2529 1.2524
1514.534 1.2407 1.1939 1.1565 1.1544 1.1642 1.1756 1.1636 1.133 1.1245 1.0761
1533.828 1.0192 1.0047 0.9606 0.9172 0.9273 0.9595 0.9794 1.0086 0.9806 0.9301
1553.121 0.9009 0.8897 0.8984 0.8481 0.8345 0.8739 0.8807 0.8641 0.8227 0.8238
1572.415 0.9 0.8748 0.8266 0.8474 0.8483 0.849 0.8571 0.8392 0.834 0.8378
1591.708 0.8251 0.8564 0.8585 0.825 0.8296 0.849 0.8498 0.8376 0.8266 0.8367
1611.002 0.8211 0.7969 0.8155 0.814 0.813 0.831 0.8175 0.8044 0.834 0.8217
1630.295 0.8487 0.908 0.891 0.8733 0.8892 0.9045 0.9155 0.9155 0.942 0.9573
1649.588 0.9618 0.9453 0.9508 1.0136 1.0339 1.0545 1.0747 1.0731 1.0856 1.096
1668.882 1.1011 1.1369 1.1341 1.1233 1.1794 1.234 1.2488 1.2608 1.2824 1.3232
1688.175 1.3796 1.4488 1.5237 1.5795 1.6293 1.701 1.811 1.931 2.081 2.241
1707.469 2.441 2.621 2.801 3.081 3.391 3.681 3.981 4.351 4.761 5.211
1726.762 5.711 6.281 6.941 7.711 8.611 9.641 10.801 12.101 13.541 15.171
1746.056 17.021 19.091 21.451 24.231 27.331 30.621 33.771 36.051 37.121 37.041
1765.349 35.831 33.441 30.041 26.401 23.031 20.211 17.701 15.451 13.471 11.741
1784.642 10.251 8.941 7.831 6.911 6.101 5.441 4.911 4.411 3.961 3.561
1803.936 3.211 2.921 2.651 2.421 2.221 2.061 1.951 1.861 1.731 1.5973
1823.229 1.5087 1.4542 1.4268 1.381 1.3194 1.2607 1.2303 1.1896 1.1619 1.1382
1842.523 1.0892 1.0713 1.0488 1.0073 1.01 1.0089 0.9628 0.9403 0.9253 0.9008
1861.816 0.9153 0.9129 0.8821 0.8508 0.8121 0.8164 0.8303 0.8136 0.8071 0.8286
1881.110 0.8185 0.7795 0.76798 0.7787 0.7884 0.76947 0.76665 0.7783 0.76408 0.7788
1900.403 0.7868 0.7834 0.76774 0.73597 0.76106 0.75975 0.74013 0.76083 0.7775 0.783
1919.696 0.74574 0.71423 0.72655 0.73744 0.70759 0.70748 0.70011 0.6426 0.6497 0.68928
1938.990 0.6976 0.6902 0.69095 0.69268 0.69672 0.673522 0.677268 0.6922 0.69697 0.69552
1958.283 0.68508 0.675424 0.6583 0.69749 0.70713 0.66932 0.66267 0.6843 0.676951 0.68655
1977.577 0.72075 0.73415 0.72095 0.69498 0.69787 0.70827 0.6908 0.69668 0.7411 0.75159
1996.870 0.75457 0.74908 0.74923 0.74508 0.73079 0.75484 0.76648 0.75255 0.74708 0.7717
2016.164 0.7849 0.77041 0.76355 0.778 0.7884 0.76853 0.7717 0.7782 0.7804 0.76751
2035.457 0.76188 0.7782 0.7912 0.814 0.8217 0.8075 0.7892 0.7846 0.7818 0.76776
2054.750 0.7882 0.8076 0.7794 0.8076 0.8131 0.8089 0.829 0.7863 0.76709 0.7837
2074.044 0.7944 0.7993 0.8231 0.8079 0.75011 0.74593 0.7721 0.7747 0.7713 0.7794
2093.337 0.776 0.7725 0.76796 0.76487 0.781 0.7916 0.7911 0.76082 0.72699 0.72393
2112.631 0.69311 0.673723 0.70194 0.69865 0.70337 0.71699 0.70036 0.69598 0.70578 0.70095
2131.924 0.69531 0.675966 0.672957 0.649 0.6199 0.6398 0.6444 0.6476 0.6549 0.672421
2151.218 0.671228 0.6597 0.6458 0.63 0.6378 0.6421 0.6181 0.5889 0.5985 0.6215
2170.511 0.6112 0.6188 0.6323 0.6134 0.604 0.6213 0.6412 0.6571 0.6577 0.6425
2189.804 0.6362 0.6441 0.6499 0.6498 0.643 0.6434 0.66343 0.6567 0.637 0.6066
2209.098 0.6147 0.6406 0.6404 0.6362 0.6173 0.6165 0.6289 0.6303 0.6371 0.671343
2228.391 0.671477 0.6401 0.6345 0.6335 0.6204 0.6227 0.6262 0.6114 0.6354 0.6437
2247.685 0.6298 0.6294 0.6303 0.6531 0.6546 0.6303 0.6302 0.639 0.6393 0.6297
2266.978 0.6249 0.6467 0.6609 0.6443 0.6408 0.6484 0.6363 0.6248 0.6306 0.6196
2286.272 0.5996 0.6297 0.6256 0.5963 0.6018 0.5952 0.5971 0.612 0.6174 0.6423
2305.565 0.6467 0.6231 0.623 0.6162 0.6046 0.6236 0.6435 0.6441 0.6362 0.5947
2324.858 0.5974 0.6169 0.5976 0.587 0.6027 0.6211 0.6264 0.6439 0.66814 0.6478
2344.152 0.5968 0.6205 0.6422 0.6122 0.6141 0.6277 0.621 0.5921 0.5828 0.611
2363.445 0.5848 0.554 0.55 0.562 0.608 0.6235 0.5902 0.5875 0.6247 0.6365
2382.739 0.6298 0.6159 0.5981 0.6225 0.6489 0.6438 0.6155 0.6032 0.6204 0.6471
2402.032 0.6564 0.6309 0.6408 0.6485 0.6492 0.6428 0.6262 0.6528 0.6477 0.6598
2421.326 0.675419 0.6454 0.6379 0.6549 0.66367 0.6605 0.680761 0.68284 0.71177 0.73372
2440.619 0.725 0.72929 0.71615 0.71134 0.70442 0.71529 0.73247 0.71311 0.676824 0.673377
2459.912 0.66128 0.6332 0.6485 0.674137 0.70444 0.71046 0.69391 0.69824 0.70666 0.70044
2479.206 0.69218 0.68259 0.6438 0.6096 0.5996 0.6233 0.6412 0.619 0.6271 0.6387
2498.499 0.6259 0.6198 0.6404 0.638 0.6104 0.6274 0.621 0.6263 0.6572 0.6553
2517.793 0.6546 0.6416 0.6228 0.6111 0.6178 0.62 0.6105 0.6387 0.6206 0.6067
2537.086 0.6165 0.5905 0.5943 0.6226 0.6302 0.6197 0.6024 0.5937 0.6039 0.6013
2556.380 0.5801 0.566 0.5916 0.5738 0.542 0.562 0.5769 0.5906 0.5943 0.5976
2575.673 0.6122 0.6062 0.5984 0.5811 0.5963 0.6381 0.6562 0.66792 0.66699 0.674371
2594.966 0.6542 0.6472 0.6449 0.6568 0.6542 0.6166 0.6033 0.5966 0.6048 0.6095
2614.260 0.6234 0.66989 0.677981 0.6536 0.670812 0.672213 0.677594 0.69336 0.68844 0.69383
2633.553 0.66309 0.6258 0.6404 0.6472 0.66682 0.70863 0.70469 0.70232 0.671804 0.6609
2652.847 0.673982 0.6608 0.68109 0.66453 0.66983 0.6587 0.626 0.6215 0.6409 0.70444
2672.140 0.70228 0.701 0.74487 0.7351 0.72092 0.675076 0.69897 0.7922 0.7807 0.74728
2691.434 0.74103 0.7305 0.72943 0.72052 0.70991 0.71106 0.74526 0.7724 0.77021 0.76731
2710.727 0.763 0.7262 0.68803 0.73695 0.7819 0.7843 0.7859 0.76818 0.75202 0.74922
2730.020 0.73043 0.73836 0.7735 0.7735 0.76554 0.7784 0.76706 0.74682 0.74348 0.73035
2749.314 0.75017 0.7388 0.70835 0.73713 0.74933 0.76787 0.8055 0.797 0.7659 0.73199
2768.607 0.7467 0.8068 0.8237 0.8302 0.8272 0.8014 0.8304 0.8615 0.8467 0.8138
2787.901 0.7883 0.7993 0.8214 0.8605 0.8887 0.8991 0.8611 0.8143 0.8194 0.8486
2807.194 0.885 0.9385 0.9631 0.9523 0.9929 1.0336 1.0263 1.0188 1.0934 1.1458
2826.488 1.1849 1.2289 1.2944 1.4352 1.5241 1.5995 1.731 1.891 2.031 2.141
2845.781 2.351 2.621 2.821 2.941 3.111 3.331 3.531 3.721 3.831 3.961
2865.074 4.051 4.191 4.271 4.281 4.341 4.361 4.321 4.211 4.231 4.291
2884.368 4.241 4.181 4.251 4.371 4.451 4.571 4.691 4.861 5.021 5.101
2903.661 5.211 5.361 5.501 5.661 5.821 5.951 6.191 6.451 6.641 6.961
2922.955 7.311 7.621 7.951 8.311 8.741 9.161 9.711 10.401 11.051 11.701
2942.248 12.321 12.921 13.431 13.671 13.791 13.841 13.791 13.621 13.331 13.131
2961.542 12.931 12.701 12.501 12.171 11.801 11.491 11.061 10.441 9.691 8.951
2980.835 8.281 7.601 6.851 6.181 5.531 4.851 4.401 4.061 3.671 3.381
3000.128 3.211 3.131 3.071 3.011 2.991 3.051 3.081 3.021 2.981 2.761
3019.422 2.561 2.391 2.131 1.961 1.811 1.6536 1.5665 1.52 1.4494 1.347
3038.715 1.2689 1.2498 1.1738 1.1059 1.0617 1.057 1.1433 1.0901 1.0455 1.06
3058.009 1.0021 0.9964 1.0266 0.9779 0.8911 0.9303 0.9868 0.9749 0.9391 0.8797
3077.302 0.8272 0.8454 0.8071 0.76358 0.69257 0.6344 0.6394 0.6174 0.6476 0.6588
3096.596 0.66119 0.70977 0.70575 0.6188 0.539 0.546 0.563 0.498 0.535 0.565
3115.889 0.57 0.537 0.457 0.433 0.383 0.339 0.356 0.427 0.497 0.454
3135.182 0.336 0.375 0.385 0.312 0.281 0.325 0.346 0.262 0.322 0.397
3154.476 0.341 0.313 0.278 0.308 0.395 0.328 0.339 0.418 0.419 0.435
3173.769 0.417 0.389 0.322 0.319 0.359 0.354 0.366 0.332 0.346 0.329
3193.063 0.263 0.21 0.193 0.24 0.239 0.305 0.356 0.282 0.224 0.312
3212.356 0.262 0.224 0.231 0.227 0.33 0.255 0.204 0.281 0.255 0.276
3231.650 0.411 0.444 0.365 0.158 0.14 0.246 0.229 0.251 0.308 0.288
3250.943 0.173 0.18 0.197 0.106 0.156 0.26 0.217 0.202 0.207 0.139
3270.236 0.175 0.298 0.322 0.26 0.213 0.248 0.298 0.271 0.178 0.196
3289.530 0.281 0.269 0.323 0.381 0.39 0.264 0.226 0.326 0.269 0.24
3308.823 0.215 0.083 0 0.045 0.107 0.086 0.06 0.064 0.045 0.041
3328.117 0.132 0.187 0.094 0.134 0.269 0.316 0.297 0.204 0.157 0.205
3347.410 0.251 0.219 0.273 0.236 0.12 0.15 0.175 0.142 0.101 0.109
3366.704 0.107 0.128 0.186 0.141 0.13 0.159 0.128 0.102 0.118 0.166
3385.997 0.148 0.055 0.067 0.108 0.037 0.099 0.276 0.309 0.296 0.223
3405.290 0.188 0.232 0.192 0.184 0.195 0.194 0.173 0.189 0.084 0.11
3424.584 0.244 0.19 0.201 0.232 0.229 0.28 0.186 0.178 0.214 0.179
3443.877 0.288 0.234 0.144 0.096 0.125 0.191 0.17 0.227 0.283 0.292
3463.171 0.325 0.298 0.216 0.18 0.269 0.314 0.297 0.371 0.402 0.388
3482.464 0.379 0.347 0.409 0.434 0.395 0.435 0.449 0.433 0.448 0.562
3501.758 0.6232 0.68052 0.73112 0.69168 0.6541 0.546 0.45 0.4 0.433 0.448
3521.051 0.458 0.51 0.459 0.368 0.32 0.26 0.21 0.274 0.222 0.21
3540.344 0.278 0.24 0.285 0.318 0.227 0.171 0.157 0.211 0.301 0.271
3559.638 0.277 0.239 0.138 0.213 0.274 0.257 0.311 0.339 0.327 0.333
3578.931 0.352 0.378 0.368 0.365 0.322 0.26 0.277 0.278 0.271 0.249
3598.225 0.2 0.097 0.161 0.245 0.195 0.237 0.304 0.361 0.299 0.243
3617.518 0.232 0.199 0.18 0.236 0.325 0.331 0.238 0.187 0.269 0.279
3636.812 0.236 0.163 0.13 0.226 0.336 0.364 0.323 0.262 0.249 0.239
3656.105 0.177 0.244 0.345 0.292 0.288 0.301 0.298 0.334 0.356 0.333
3675.398 0.261 0.261 0.317 0.326 0.295 0.273 0.292 0.335 0.317 0.289
3694.692 0.325 0.339 0.291 0.35 0.375 0.335 0.341 0.322 0.301 0.366
3713.985 0.437 0.371 0.337 0.413 0.45 0.335 0.324 0.349 0.285 0.255
3733.279 0.346 0.353 0.347 0.424 0.383 0.384 0.37 0.377 0.376 0.334
3752.572 0.282 0.373 0.485 0.439 0.417 0.354 0.367 0.415 0.391 0.444
3771.866 0.428 0.362 0.356 0.387 0.474 0.485 0.46 0.505 0.488 0.423
3791.159 0.37 0.39 0.464 0.436 0.388 0.364 0.312 0.367 0.412 0.35
3810.452 0.308 0.336 0.365 0.35 0.367 0.448 0.407 0.387 0.42 0.46
3829.746 0.461 0.412 0.419 0.406 0.358 0.377 0.436 0.493 0.494 0.395
3849.039 0.379 0.34 0.304 0.349 0.403 0.483 0.423 0.373 0.451 0.513
3868.333 0.473 0.42 0.405 0.445 0.51 0.457 0.415 0.41 0.448 0.489
3887.626 0.48 0.414 0.436 0.515 0.5 0.461 0.483 0.507 0.473 0.415
3906.920 0.398 0.446 0.508 0.51 0.444 0.407 0.458 0.491 0.43 0.444
3926.213 0.52 0.502 0.494 0.522 0.489 0.502 0.564 0.514 0.482 0.547
3945.506 0.527 0.514 0.526 0.54 0.5756 0.555 0.528 0.519 0.547 0.5817
3964.800 0.6237 0.6311 0.6242 0.6598 0.6182 0.533 0.527 0.5762 0.5734 0.568
3984.093 0.6117 0.5947 0.6086 0.571 0.5 0.535 0.57 0.552 0.547
##END=
