##TITLE=2,4-Bis(chloromethylmesitylene)
##JCAMP-DX=4.24
##DATA TYPE=INFRARED SPECTRUM
##ORIGIN=EPA-IR VAPOR PHASE LIBRARY
##OWNER=SRD/NIST
Collection (C) 2018 copyright by the U.S. Secretary of Commerce
on behalf of the United States of America. All rights reserved.
##CAS REGISTRY NO=1585-17-7
##MOLFORM=C 11 H 14 Cl 2
##$NIST SOURCE=MSDC-IR
##STATE=gas
##XUNITS=1/CM
##YUNITS=ABSORBANCE
##XFACTOR=1.
##YFACTOR=0.001
##DELTAX=1.92934
##FIRSTX=549.9
##LASTX=3999.5
##FIRSTY=0.6515
##MAXX=3999.53
##MINX=549.863
##MAXY=0.027056
##MINY=0
##NPOINTS=1789
##XYDATA=(X++(Y..Y))
549.863 0.6515 0.518177 0.53694 0.4808 0.4233 0.58625 0.518236 0.4394 0.60146 0.686
569.156 0.6913 0.7056 0.7581 0.8157 0.8834 1.0306 1.2427 1.4894 1.756 2.076
588.450 2.506 3.136 3.826 4.456 4.816 4.856 4.706 4.296 3.716 3.016
607.743 2.466 2.046 1.646 1.421 1.2666 1.1485 1.1164 1.0774 1.0439 1.0915
627.037 1.1432 1.2806 1.4123 1.4973 1.596 1.776 2.086 2.416 2.866 3.546
646.330 4.386 5.396 6.656 8.226 10.106 12.156 14.306 16.506 18.356 19.736
665.624 20.706 21.076 20.596 19.136 16.996 14.426 11.706 9.146 7.046 5.546
684.917 4.566 3.956 3.596 3.456 3.496 3.656 4.016 4.556 5.306 6.346
704.210 7.656 9.166 10.736 12.226 13.316 13.916 14.086 13.786 13.006 11.866
723.504 10.566 9.206 7.946 6.866 5.916 5.006 4.146 3.446 2.876 2.496
742.797 2.296 2.196 2.186 2.336 2.646 3.026 3.586 4.236 4.806 5.256
762.091 5.526 5.546 5.326 4.986 4.536 4.066 3.626 3.296 3.096 3.016
781.384 3.046 3.156 3.306 3.466 3.666 3.946 4.206 4.466 4.796 5.266
800.678 5.856 6.436 7.046 7.596 7.876 7.816 7.446 6.706 5.776 4.796
819.971 3.806 3.006 2.396 1.936 1.716 1.616 1.4452 1.2975 1.2557 1.22
839.264 1.1989 1.2085 1.1727 1.1784 1.2552 1.366 1.536 1.766 2.056 2.406
858.558 2.766 3.106 3.436 3.716 3.866 3.616 3.156 2.736 2.306 1.906
877.851 1.576 1.2878 1.0817 0.9478 0.8277 0.7469 0.6826 0.6567 0.6333 0.5991
897.145 0.6421 0.6684 0.6627 0.6956 0.6981 0.6988 0.7806 0.8726 0.8986 0.9181
916.438 0.9555 0.9817 0.9618 0.9034 0.8492 0.8227 0.8098 0.6972 0.60825 0.6242
935.732 0.58959 0.56272 0.57805 0.59921 0.6185 0.622 0.6245 0.6637 0.7381 0.791
955.025 0.8597 0.9373 0.9867 1.0415 1.0888 1.0982 1.1044 1.0485 0.9677 0.9029
974.318 0.8593 0.8313 0.7817 0.7426 0.7328 0.7529 0.7761 0.779 0.8131 0.892
993.612 0.9616 1.0333 1.1266 1.2958 1.4973 1.686 1.926 2.216 2.506 2.756
1012.905 2.936 3.076 3.146 3.146 3.116 2.996 2.836 2.686 2.566 2.466
1032.199 2.336 2.186 2.046 1.936 1.816 1.676 1.616 1.556 1.477 1.3823
1051.492 1.3165 1.3154 1.299 1.2779 1.2735 1.3016 1.3513 1.3826 1.4256 1.4826
1070.786 1.4838 1.5152 1.566 1.606 1.616 1.546 1.4489 1.3665 1.2494 1.1044
1090.079 1.0107 0.8989 0.8378 0.8178 0.7828 0.7628 0.7443 0.7473 0.7158 0.6551
1109.372 0.6652 0.7104 0.6667 0.6182 0.622 0.58773 0.54273 0.55414 0.56959 0.524194
1128.666 0.4894 0.4969 0.4906 0.4722 0.4947 0.4951 0.4919 0.520085 0.53836 0.60858
1147.959 0.6853 0.8224 0.9444 0.989 1.0725 1.1959 1.2704 1.2835 1.3193 1.2993
1167.253 1.2552 1.1709 1.0282 0.8837 0.7438 0.7689 0.8349 0.8331 0.8326 0.8098
1186.546 0.7816 0.7879 0.8915 0.9484 0.9455 1.0588 1.1988 1.2551 1.3728 1.556
1205.840 1.596 1.696 1.826 1.886 2.006 2.066 2.136 2.246 2.356 2.446
1225.133 2.626 2.806 2.906 3.036 3.206 3.446 3.766 4.086 4.436 4.996
1244.426 5.786 6.826 8.226 10.196 12.876 16.286 20.076 23.486 25.866 27.056
1263.720 26.846 25.276 22.496 18.846 14.976 11.516 8.806 6.786 5.276 4.196
1283.013 3.466 2.916 2.496 2.176 1.936 1.726 1.596 1.526 1.4366 1.3759
1302.307 1.3814 1.3821 1.3584 1.367 1.392 1.4104 1.4105 1.3978 1.3953 1.4102
1321.600 1.4126 1.3988 1.4087 1.408 1.3978 1.3988 1.4084 1.3849 1.3529 1.324
1340.894 1.3253 1.3424 1.333 1.3135 1.3047 1.3012 1.3092 1.3284 1.3539 1.3782
1360.187 1.4229 1.4526 1.4688 1.536 1.616 1.716 1.876 2.036 2.266 2.546
1379.480 2.786 2.966 3.076 3.096 3.036 2.956 2.786 2.536 2.336 2.186
1398.774 2.106 2.096 2.126 2.156 2.236 2.316 2.396 2.506 2.606 2.726
1418.067 2.846 3.026 3.256 3.456 3.696 3.946 4.216 4.516 4.816 5.156
1437.361 5.556 5.986 6.436 6.896 7.386 7.926 8.486 9.046 9.566 10.016
1456.654 10.466 10.956 11.346 11.616 11.736 11.696 11.426 10.946 10.246 9.386
1475.948 8.476 7.556 6.746 6.066 5.496 4.976 4.536 4.176 3.876 3.646
1495.241 3.426 3.256 3.096 2.956 2.886 2.786 2.636 2.556 2.516 2.486
1514.534 2.446 2.396 2.376 2.406 2.426 2.386 2.406 2.456 2.496 2.536
1533.828 2.546 2.596 2.706 2.796 2.836 2.906 3.026 3.186 3.316 3.466
1553.121 3.646 3.796 3.996 4.166 4.256 4.346 4.386 4.416 4.426 4.396
1572.415 4.316 4.296 4.296 4.246 4.216 4.206 4.256 4.336 4.506 4.706
1591.708 4.946 5.316 5.756 6.166 6.546 6.836 6.916 6.816 6.506 5.986
1611.002 5.316 4.566 3.866 3.256 2.686 2.256 1.946 1.666 1.4479 1.3283
1630.295 1.2374 1.1609 1.0659 0.9865 0.9305 0.8783 0.8472 0.8324 0.8186 0.7993
1649.588 0.7808 0.7712 0.7668 0.7372 0.7194 0.6806 0.6991 0.7543 0.7289 0.6965
1668.882 0.6741 0.6882 0.6886 0.6554 0.6553 0.6306 0.58906 0.58315 0.60465 0.60156
1688.175 0.59572 0.59608 0.58779 0.6093 0.6251 0.6215 0.6389 0.6367 0.6436 0.6543
1707.469 0.6832 0.7151 0.728 0.7893 0.838 0.8762 0.9088 0.96 1.0102 1.0138
1726.762 1.0172 1.0023 0.9697 0.9321 0.8637 0.8088 0.7572 0.7138 0.6952 0.6452
1746.056 0.59339 0.56581 0.55301 0.5427 0.54017 0.522776 0.521722 0.524406 0.4957 0.5046
1765.349 0.51081 0.4661 0.474 0.54747 0.54081 0.51008 0.5025 0.4998 0.53253 0.53298
1784.642 0.520465 0.53676 0.54618 0.5408 0.53977 0.55763 0.57194 0.57258 0.5508 0.51246
1803.936 0.51275 0.53848 0.53801 0.51093 0.518411 0.524023 0.4883 0.4933 0.4887 0.4721
1823.229 0.4781 0.4697 0.4471 0.4362 0.4478 0.4484 0.4497 0.4335 0.4422 0.4567
1842.523 0.4624 0.4847 0.4742 0.4548 0.4639 0.4577 0.4567 0.4752 0.4774 0.4555
1861.816 0.4652 0.489 0.4738 0.4738 0.4975 0.518831 0.50658 0.520452 0.53277 0.55073
1881.110 0.55544 0.54294 0.56382 0.57746 0.58636 0.58953 0.5694 0.56818 0.59009 0.55674
1900.403 0.54685 0.55469 0.53788 0.522808 0.4802 0.4626 0.484 0.4705 0.4646 0.4461
1919.696 0.4354 0.4425 0.4406 0.4357 0.409 0.4222 0.4439 0.4472 0.4292 0.4277
1938.990 0.4448 0.4436 0.4374 0.4586 0.4683 0.4769 0.4935 0.4827 0.4622 0.4659
1958.283 0.4724 0.4466 0.4661 0.4773 0.4472 0.4358 0.4596 0.4841 0.4753 0.4749
1977.577 0.4757 0.462 0.4747 0.4668 0.4494 0.4478 0.4418 0.4202 0.4174 0.4344
1996.870 0.4488 0.4597 0.4346 0.4355 0.4584 0.4658 0.4678 0.4694 0.4888 0.5012
2016.164 0.4945 0.4809 0.4889 0.51285 0.5019 0.5031 0.519759 0.50923 0.4966 0.4771
2035.457 0.4577 0.4791 0.4796 0.4656 0.4852 0.4949 0.4811 0.4583 0.4533 0.483
2054.750 0.4707 0.4555 0.4949 0.4955 0.4872 0.5054 0.53341 0.53656 0.52961 0.54603
2074.044 0.55663 0.5421 0.53579 0.55176 0.58621 0.57937 0.524577 0.4997 0.5004 0.50839
2093.337 0.51057 0.5274 0.4991 0.4524 0.4522 0.4507 0.4521 0.4664 0.4673 0.4842
2112.631 0.4884 0.4922 0.5015 0.517708 0.521248 0.4919 0.4914 0.4925 0.4931 0.4913
2131.924 0.4711 0.4795 0.5074 0.51698 0.52172 0.51376 0.51369 0.51387 0.520346 0.5307
2151.218 0.525822 0.54682 0.55053 0.54949 0.5586 0.53327 0.52889 0.52869 0.50625 0.53373
2170.511 0.56543 0.55549 0.55039 0.5485 0.54307 0.525173 0.5045 0.5014 0.519544 0.5291
2189.804 0.5058 0.50745 0.53463 0.52906 0.517379 0.5002 0.5003 0.4914 0.4834 0.496
2209.098 0.488 0.46 0.4502 0.4476 0.4386 0.4511 0.4619 0.4628 0.4612 0.4558
2228.391 0.4482 0.4551 0.4503 0.4352 0.4269 0.4417 0.4643 0.4877 0.51161 0.4896
2247.685 0.4648 0.4724 0.4571 0.4407 0.4712 0.4902 0.4875 0.4737 0.4711 0.484
2266.978 0.4799 0.4753 0.478 0.4867 0.4934 0.4892 0.48 0.4844 0.5047 0.515192
2286.272 0.51437 0.52672 0.50685 0.51485 0.524838 0.5028 0.50961 0.518117 0.516877 0.5044
2305.565 0.50765 0.518248 0.5079 0.4966 0.5012 0.5015 0.4937 0.4684 0.4633 0.4803
2324.858 0.4988 0.50893 0.50825 0.5016 0.50627 0.53198 0.54444 0.53319 0.50739 0.51348
2344.152 0.53657 0.53487 0.53338 0.53019 0.51171 0.525007 0.53029 0.515859 0.53996 0.524616
2363.445 0.50704 0.52856 0.4911 0.4688 0.4846 0.4795 0.472 0.4745 0.4733 0.4545
2382.739 0.446 0.465 0.4709 0.5026 0.55859 0.55083 0.5371 0.54877 0.57909 0.57031
2402.032 0.54295 0.59858 0.64 0.60717 0.59572 0.58125 0.56857 0.57488 0.57178 0.57212
2421.326 0.54337 0.521306 0.54856 0.5715 0.56942 0.55155 0.52663 0.52723 0.521576 0.518375
2440.619 0.53379 0.55211 0.55063 0.55306 0.55844 0.5397 0.52857 0.54993 0.59366 0.59763
2459.912 0.56746 0.55678 0.58346 0.6164 0.6361 0.6326 0.6357 0.61137 0.59629 0.6198
2479.206 0.58539 0.55488 0.57322 0.58703 0.57052 0.56592 0.57689 0.59856 0.59278 0.5716
2498.499 0.5615 0.5503 0.54724 0.5347 0.51036 0.53625 0.54368 0.51 0.4818 0.4718
2517.793 0.4785 0.4641 0.4615 0.4475 0.4508 0.4878 0.50669 0.4757 0.4664 0.4776
2537.086 0.4798 0.4822 0.4763 0.516676 0.53408 0.5041 0.4996 0.4895 0.4848 0.4917
2556.380 0.4743 0.4758 0.4947 0.5014 0.4865 0.4575 0.4376 0.4382 0.4268 0.416
2575.673 0.413 0.4323 0.415 0.397 0.402 0.389 0.4312 0.4162 0.413 0.4668
2594.966 0.4793 0.4577 0.4162 0.401 0.409 0.413 0.409 0.408 0.435 0.4858
2614.260 0.519932 0.4698 0.4653 0.53146 0.5104 0.4932 0.5036 0.4891 0.4784 0.4773
2633.553 0.5005 0.50931 0.5033 0.5012 0.4851 0.52349 0.57174 0.57701 0.58109 0.60653
2652.847 0.6201 0.61522 0.60549 0.57948 0.5885 0.6341 0.6281 0.6221 0.6465 0.6319
2672.140 0.6289 0.6689 0.6731 0.6592 0.6565 0.6275 0.60901 0.6325 0.6594 0.6427
2691.434 0.61246 0.6223 0.6279 0.60395 0.55751 0.56038 0.5986 0.6294 0.651 0.6539
2710.727 0.7009 0.7446 0.7127 0.7035 0.7795 0.8153 0.8245 0.8518 0.8634 0.9066
2730.020 0.9608 0.98 1.0013 1.032 1.0988 1.1683 1.1975 1.1996 1.2147 1.2253
2749.314 1.1989 1.185 1.1819 1.1157 1.0328 0.9747 0.9309 0.8826 0.8468 0.8298
2768.607 0.819 0.8281 0.8001 0.7817 0.781 0.7391 0.7384 0.7706 0.7804 0.7774
2787.901 0.7893 0.7781 0.7535 0.7878 0.8085 0.8254 0.8751 0.9054 0.8959 0.9329
2807.194 1.0188 1.0586 1.0777 1.1375 1.1082 1.0849 1.1595 1.2059 1.2487 1.2982
2826.488 1.3035 1.3402 1.4709 1.576 1.616 1.716 1.806 1.876 2.026 2.186
2845.781 2.316 2.406 2.496 2.696 2.886 3.096 3.356 3.546 3.786 4.156
2865.074 4.546 4.876 5.216 5.586 5.946 6.256 6.506 6.756 6.876 6.916
2884.368 6.956 6.906 6.776 6.676 6.666 6.636 6.586 6.556 6.556 6.626
2903.661 6.756 6.936 7.206 7.526 7.896 8.316 8.766 9.326 10.016 10.766
2922.955 11.376 11.916 12.506 13.046 13.516 13.766 13.726 13.496 13.136 12.726
2942.248 12.156 11.536 10.946 10.436 10.026 9.726 9.606 9.576 9.586 9.566
2961.542 9.586 9.696 9.816 9.836 9.826 9.806 9.886 10.096 10.206 10.236
2980.835 10.306 10.306 10.286 10.286 10.286 10.346 10.416 10.656 11.066 11.626
3000.128 12.296 12.926 13.386 13.516 13.316 12.966 12.536 12.026 11.606 11.246
3019.422 10.866 10.436 9.996 9.546 8.986 8.336 7.646 6.986 6.406 5.896
3038.715 5.476 5.096 4.786 4.596 4.476 4.386 4.246 4.136 4.036 3.996
3058.009 3.946 3.846 3.726 3.626 3.596 3.496 3.346 3.266 3.136 3.036
3077.302 2.916 2.726 2.636 2.506 2.386 2.236 2.106 2.056 1.946 1.826
3096.596 1.796 1.746 1.666 1.576 1.4499 1.3292 1.3121 1.2778 1.2148 1.1397
3115.889 1.1143 1.1112 1.1211 1.0875 0.9561 0.8944 0.8913 0.8656 0.7804 0.7042
3135.182 0.7724 0.7767 0.6688 0.6425 0.60183 0.59492 0.6303 0.60708 0.6367 0.6886
3154.476 0.6297 0.5363 0.4903 0.4904 0.4717 0.53366 0.57112 0.4585 0.4714 0.57263
3173.769 0.53986 0.4468 0.391 0.379 0.358 0.333 0.291 0.258 0.34 0.388
3193.063 0.311 0.29 0.3 0.302 0.301 0.325 0.34 0.353 0.298 0.288
3212.356 0.378 0.278 0.187 0.226 0.283 0.249 0.183 0.225 0.272 0.267
3231.650 0.28 0.329 0.309 0.168 0.081 0.074 0.153 0.238 0.18 0.087
3250.943 0.044 0.076 0.125 0.135 0.176 0.213 0.199 0.223 0.224 0.213
3270.236 0.136 0.073 0.102 0.133 0.154 0.135 0.123 0.2 0.174 0.145
3289.530 0.163 0.161 0.188 0.081 0.036 0.09 0.079 0.054 0.179 0.247
3308.823 0.162 0.137 0.115 0.107 0.039 0.051 0.179 0.19 0.25 0.241
3328.117 0.138 0.081 0.082 0.167 0.186 0.081 0.025 0.113 0.19 0.205
3347.410 0.239 0.276 0.252 0.284 0.192 0.197 0.293 0.258 0.183 0.124
3366.704 0.148 0.101 0.121 0.121 0.065 0.156 0.194 0.11 0.121 0.121
3385.997 0.105 0.049 0 0.134 0.195 0.157 0.151 0.076 0.083 0.173
3405.290 0.184 0.193 0.168 0.19 0.181 0.177 0.165 0.041 0.131 0.235
3424.584 0.206 0.118 0.058 0.122 0.154 0.136 0.086 0.063 0.079 0.098
3443.877 0.116 0.122 0.186 0.182 0.162 0.196 0.162 0.2 0.271 0.224
3463.171 0.136 0.12 0.127 0.122 0.116 0.073 0.084 0.164 0.183 0.13
3482.464 0.156 0.181 0.129 0.203 0.226 0.177 0.131 0.065 0.086 0.115
3501.758 0.205 0.253 0.167 0.089 0.138 0.255 0.272 0.225 0.256 0.258
3521.051 0.214 0.208 0.177 0.187 0.167 0.138 0.149 0.123 0.075 0.106
3540.344 0.158 0.18 0.151 0.148 0.16 0.113 0.162 0.203 0.227 0.243
3559.638 0.202 0.16 0.111 0.037 0.057 0.166 0.181 0.083 0.075 0.141
3578.931 0.217 0.229 0.178 0.153 0.125 0.134 0.174 0.09 0.065 0.207
3598.225 0.225 0.178 0.155 0.119 0.113 0.125 0.134 0.131 0.159 0.154
3617.518 0.149 0.155 0.17 0.21 0.201 0.172 0.178 0.181 0.152 0.165
3636.812 0.196 0.186 0.208 0.266 0.233 0.164 0.16 0.184 0.2 0.201
3656.105 0.178 0.132 0.137 0.172 0.148 0.119 0.207 0.272 0.244 0.211
3675.398 0.15 0.201 0.241 0.312 0.327 0.256 0.293 0.286 0.234 0.217
3694.692 0.208 0.225 0.218 0.218 0.226 0.198 0.224 0.238 0.219 0.224
3713.985 0.217 0.16 0.111 0.153 0.169 0.126 0.171 0.241 0.23 0.221
3733.279 0.25 0.274 0.285 0.305 0.326 0.315 0.218 0.251 0.347 0.348
3752.572 0.297 0.248 0.237 0.177 0.143 0.237 0.293 0.281 0.294 0.241
3771.866 0.161 0.19 0.257 0.244 0.178 0.163 0.234 0.248 0.258 0.25
3791.159 0.246 0.289 0.305 0.289 0.272 0.292 0.309 0.299 0.225 0.181
3810.452 0.253 0.268 0.251 0.253 0.219 0.252 0.33 0.342 0.283 0.201
3829.746 0.204 0.283 0.295 0.289 0.299 0.36 0.375 0.329 0.34 0.316
3849.039 0.298 0.319 0.31 0.294 0.253 0.229 0.252 0.255 0.235 0.227
3868.333 0.247 0.254 0.258 0.296 0.259 0.193 0.298 0.29 0.203 0.274
3887.626 0.306 0.31 0.332 0.308 0.291 0.265 0.257 0.29 0.333 0.329
3906.920 0.323 0.384 0.335 0.233 0.292 0.337 0.307 0.336 0.352 0.385
3926.213 0.392 0.349 0.323 0.332 0.397 0.405 0.343 0.279 0.233 0.281
3945.506 0.358 0.316 0.325 0.339 0.297 0.293 0.365 0.375 0.328 0.349
3964.800 0.349 0.33 0.334 0.382 0.372 0.341 0.335 0.353 0.355 0.332
3984.093 0.301 0.281 0.215 0.234 0.343 0.306 0.264 0.227 0.233
##END=
