##TITLE=Ethyl pipecolinate
##JCAMP-DX=4.24
##DATA TYPE=INFRARED SPECTRUM
##ORIGIN=EPA-IR VAPOR PHASE LIBRARY
##OWNER=SRD/NIST
Collection (C) 2018 copyright by the U.S. Secretary of Commerce
on behalf of the United States of America. All rights reserved.
##CAS REGISTRY NO=15862-72-3
##MOLFORM=C 8 H 15 N O 2
##$NIST SOURCE=MSDC-IR
##STATE=gas
##XUNITS=1/CM
##YUNITS=ABSORBANCE
##XFACTOR=1.
##YFACTOR=0.001
##DELTAX=1.92898
##FIRSTX=549.8
##LASTX=4000.7
##FIRSTY=2.609
##MAXX=4000.7
##MINX=549.759
##MAXY=0.083149
##MINY=0
##NPOINTS=1790
##XYDATA=(X++(Y..Y))
549.759 2.609 2.369 2.349 2.979 3.889 4.139 4.019 2.749 2.349 2.599
569.049 1.6833 1.739 2.259 1.879 1.6783 1.919 2.279 1.929 1.4163 1.879
588.339 2.749 2.779 2.359 2.149 2.649 2.529 1.889 2.279 2.119 2.339
607.628 2.919 2.289 1.989 2.429 2.289 2.209 2.689 2.799 2.519 2.649
626.918 3.239 3.569 3.589 3.539 3.149 3.649 4.579 4.719 4.769 4.569
646.208 4.359 4.519 4.679 4.389 4.569 5.019 4.659 4.779 4.399 3.909
665.498 4.229 4.199 4.449 4.479 4.379 4.469 4.779 5.049 4.899 5.019
684.787 5.089 5.179 5.859 6.379 6.339 6.349 6.649 6.469 6.369 7.089
704.077 7.979 8.229 8.419 8.509 8.349 8.869 9.659 9.859 10.059 10.609
723.367 10.819 11.439 12.009 12.069 11.659 11.289 11.399 11.359 11.609 11.779
742.657 11.469 10.989 10.549 10.309 10.139 9.979 9.459 8.369 7.999 7.879
761.947 7.319 6.999 7.099 7.149 6.539 6.419 6.279 5.619 5.049 5.009
781.236 5.049 4.939 4.989 4.759 4.779 4.479 3.859 4.029 3.929 3.559
800.526 3.369 3.249 3.199 2.919 2.579 3.039 3.379 2.959 2.729 3.469
819.816 3.999 3.479 3.069 3.009 3.449 3.569 4.009 4.349 4.339 4.759
839.106 4.999 5.079 4.969 5.099 5.559 5.789 6.229 6.199 5.819 6.389
858.395 6.939 6.339 6.249 6.459 6.069 6.299 6.199 5.409 5.309 5.319
877.685 5.069 4.569 3.939 4.279 4.049 3.509 3.759 4.019 3.679 3.699
896.975 4.559 4.739 4.169 3.539 3.819 4.189 4.119 4.439 4.499 4.529
916.265 4.789 4.759 4.919 5.169 4.999 4.499 4.689 5.119 5.069 4.719
935.555 4.289 4.259 4.239 4.159 3.819 3.369 3.389 3.419 3.349 3.589
954.844 3.209 2.629 2.149 1.999 2.379 2.629 2.229 2.009 2.249 2.139
974.134 1.949 1.809 2.189 2.459 2.949 3.439 3.299 2.909 2.839 3.499
993.424 3.699 3.729 4.289 5.049 5.239 5.209 5.559 6.299 7.389 8.489
1012.714 8.709 8.729 9.289 10.039 11.699 13.339 14.299 15.569 17.119 18.869
1032.003 21.049 23.229 25.289 27.299 28.239 29.349 31.269 31.999 32.219 32.259
1051.293 31.689 30.919 29.289 27.089 25.749 24.179 22.219 20.089 17.549 16.129
1070.583 14.849 13.119 12.859 13.269 13.139 13.339 13.199 13.439 13.629 13.839
1089.873 15.269 15.559 16.049 17.359 17.689 17.589 17.539 18.499 18.439 17.989
1109.163 19.379 20.289 20.849 21.779 22.869 24.329 25.139 26.159 26.959 27.829
1128.452 28.739 27.839 26.879 26.639 26.759 27.139 27.709 27.449 28.039 31.309
1147.742 33.029 32.429 34.159 36.839 38.159 39.219 40.389 42.939 46.759 50.009
1167.032 51.699 54.209 58.279 61.799 64.599 66.619 68.009 69.739 71.139 70.189
1186.322 69.319 67.969 66.249 64.429 62.269 60.509 57.829 56.159 55.939 54.359
1205.611 52.309 50.719 47.559 43.899 40.989 39.459 37.929 33.629 29.399 28.429
1224.901 28.249 28.239 26.649 25.599 25.659 25.269 25.649 25.799 25.789 26.629
1244.191 28.009 28.809 28.769 29.229 29.989 29.719 29.379 29.209 27.529 25.369
1263.481 24.189 23.669 22.569 21.129 20.139 18.789 17.459 16.439 15.869 15.079
1282.771 14.159 14.079 14.549 15.229 16.239 16.969 17.849 18.949 19.209 18.729
1302.060 18.319 17.819 16.629 15.229 13.879 12.399 11.329 10.779 10.589 10.829
1321.350 11.149 11.359 11.649 12.079 12.309 12.359 12.529 12.639 12.539 12.639
1340.640 12.639 12.479 12.409 12.389 12.389 12.069 11.569 11.139 10.799 10.409
1359.930 10.339 10.809 11.309 11.859 12.599 13.099 13.209 13.259 13.019 12.519
1379.219 11.759 10.699 9.529 8.559 7.829 7.139 6.719 6.459 6.219 5.909
1398.509 5.729 5.689 5.629 5.549 5.499 5.369 5.089 5.009 5.269 5.349
1417.799 5.349 5.819 6.459 7.019 7.659 8.559 9.659 10.729 11.759 12.599
1437.089 13.389 14.249 15.019 15.589 15.839 15.749 15.509 15.299 15.159 14.979
1456.378 14.539 13.859 13.229 12.859 12.419 11.759 10.939 10.139 9.509 8.809
1475.668 8.059 7.339 6.749 5.949 5.459 5.199 4.489 4.149 3.939 3.499
1494.958 3.279 3.099 2.829 2.599 2.589 2.649 2.699 2.499 2.199 2.059
1514.248 2.069 2.089 1.869 1.709 1.779 1.889 1.819 1.709 1.6666 1.5921
1533.538 1.779 1.789 1.849 1.839 1.829 1.699 1.5182 1.5891 1.6347 1.739
1552.827 1.729 1.5986 1.6598 1.789 1.6256 1.3556 1.2591 1.3326 1.536 1.849
1572.117 1.769 1.4981 1.5802 1.5701 1.4741 1.4933 1.4992 1.3089 1.2781 1.6113
1591.407 1.344 1.0223 1.301 1.4621 1.2756 1.3134 1.3407 1.4278 1.1822 1.0562
1610.697 1.2222 1.1282 1.1711 1.2724 1.1307 1.1387 1.5457 1.2476 1.1321 1.5026
1629.986 1.3631 1.2731 1.4243 1.512 1.4029 1.2213 1.3176 1.4293 1.4699 1.4912
1649.276 1.3855 1.729 1.929 1.869 1.799 1.6123 1.5922 1.4362 1.5155 1.819
1668.566 1.759 1.5985 1.819 2.189 2.219 2.029 2.049 2.389 2.749 2.839
1687.856 2.959 3.079 3.189 3.509 3.859 4.119 4.539 4.949 5.219 5.739
1707.146 6.329 6.919 7.599 8.349 9.199 10.299 11.799 13.099 14.409 16.189
1726.435 18.419 21.259 24.579 28.299 32.719 37.579 42.719 48.519 54.479 60.289
1745.725 65.629 70.109 73.169 74.909 75.209 73.719 70.709 66.469 60.699 54.149
1765.015 47.389 40.599 34.049 28.429 23.449 19.449 16.269 13.639 11.589 10.139
1784.305 8.959 7.899 7.039 6.369 5.759 5.149 4.689 4.349 3.889 3.559
1803.594 3.289 2.979 2.949 2.889 2.809 2.669 2.399 2.179 2.159 2.049
1822.884 1.939 1.859 1.5759 1.4559 1.628 1.749 1.6237 1.4661 1.5595 1.5747
1842.174 1.5041 1.5663 1.5081 1.3552 1.3729 1.3592 1.4487 1.5571 1.3707 1.3759
1861.464 1.4838 1.4181 1.3171 1.3347 1.4331 1.3847 1.4174 1.5022 1.4534 1.4294
1880.754 1.4606 1.5925 1.518 1.5202 1.6057 1.4342 1.3957 1.3132 1.2231 1.1682
1900.043 1.2879 1.3395 1.2783 1.2471 1.2277 1.2462 1.1521 1.2001 1.372 1.4179
1919.333 1.2656 1.0768 0.9978 1.0191 1.1198 1.2327 1.4287 1.3622 1.0936 1.1211
1938.623 1.2598 1.2432 1.0384 1.0653 1.2443 1.1838 1.0829 1.0089 1.1079 1.2848
1957.913 1.1982 1.0237 1.0062 0.9584 0.7905 0.8816 1.1661 1.3189 1.2252 1.0542
1977.202 1.072 1.1388 1.0113 0.8577 0.7949 0.78443 1.0285 1.3316 1.2091 1.2086
1996.492 1.2267 1.1885 1.3337 1.3387 1.2768 1.2148 1.0696 1.0769 1.0406 0.9932
2015.782 1.2944 1.3404 1.2542 1.3277 1.3711 1.3906 1.3285 1.1123 1.1106 1.1533
2035.072 1.1873 1.364 1.5321 1.4474 1.41 1.3621 1.3032 1.3759 1.2715 1.1932
2054.362 1.1306 1.0636 1.2143 1.3617 1.2721 1.2216 1.1819 1.108 1.2243 1.2524
2073.651 1.1097 1.1028 1.1431 1.134 1.0985 1.3184 1.2892 1.2141 1.1253 1.0292
2092.941 1.1956 1.1662 1.1211 1.2392 1.2429 1.136 1.054 1.0413 1.1033 1.1361
2112.231 1.2563 1.1504 0.9329 0.9765 1.0134 1.153 1.1571 1.0675 1.1706 1.1762
2131.521 1.07 1.0732 1.0192 1.0234 1.1114 0.8492 0.71663 0.9515 1.0969 0.9728
2150.810 0.8825 1.0403 1.041 0.8442 0.8384 1.0517 0.979 0.9152 0.9676 0.7997
2170.100 0.72164 0.68044 0.9196 1.1344 1.0881 1.1895 1.1691 0.9793 0.9976 1.1102
2189.390 1.1061 1.0576 1.1453 1.0429 0.8398 0.897 1.0719 1.1876 1.0943 1.0212
2208.680 0.9608 0.8095 1.0837 1.2201 0.9906 1.2806 1.3831 1.1719 0.9995 0.8376
2227.970 0.9296 1.0909 1.0493 0.9634 0.9481 0.8593 0.9386 1.0651 1.2197 1.3234
2247.259 1.2308 1.2566 1.1258 0.9792 1.0931 1.2529 1.1111 0.9856 1.0869 0.9776
2266.549 0.9649 1.0058 1.0227 1.0467 1.195 1.2439 1.1738 1.2174 1.226 1.1097
2285.839 0.8722 0.91 1.0062 1.062 1.2411 1.2008 1.0724 0.994 0.9278 1.0923
2305.129 1.1299 1.0565 1.0329 1.1088 1.161 1.0201 1.0192 1.0196 1.1272 1.3299
2324.418 1.3402 1.3007 1.1717 1.1807 1.3273 1.3223 1.2397 1.2539 1.248 1.0681
2343.708 1.1305 1.1018 1.1034 1.1616 1.2252 1.338 1.2305 1.1997 1.4501 1.5376
2362.998 1.6405 1.4829 1.153 1.2923 1.0378 0.927 1.0976 1.3369 1.4036 1.2941
2382.288 1.1776 0.9788 0.9825 0.9838 1.0985 1.0879 0.9609 0.9995 1.1902 1.3218
2401.578 1.2338 1.1811 1.3381 1.1258 0.9283 1.2669 1.4294 1.3717 1.532 1.5626
2420.867 1.3411 1.2096 1.1943 0.9916 1.1323 1.2475 1.0223 1.0076 1.04 1.2109
2440.157 1.2245 1.155 1.0251 1.2234 1.3571 1.0942 0.8963 1.076 1.1705 1.0178
2459.447 0.9673 0.9647 1.2186 1.2633 1.4155 1.4447 1.2471 1.3581 1.2804 1.3034
2478.737 1.3667 1.1128 1.0162 1.1324 1.1982 1.3926 1.4345 1.187 1.33 1.4539
2498.026 1.4342 1.4345 1.4231 1.6034 1.5621 1.3999 1.5306 1.759 1.699 1.5835
2517.316 1.4802 1.3054 1.0465 1.1415 1.3444 1.3348 1.2077 1.0081 0.8717 0.989
2536.606 1.4699 1.4249 1.3349 1.2609 1.0072 1.0715 1.4557 1.5354 1.3706 1.3588
2555.896 1.3128 1.2464 1.2672 1.2366 1.1395 1.2831 1.476 1.5628 1.5649 1.4729
2575.186 1.5396 1.739 1.2547 1.3144 1.789 1.5901 1.699 1.6186 1.55 1.929
2594.475 1.889 1.699 1.959 2.149 1.919 1.759 1.819 1.729 1.709 1.869
2613.765 1.759 1.6484 1.6746 1.769 1.809 1.729 1.809 1.999 2.099 1.859
2633.055 1.6653 1.839 1.939 1.969 1.959 2.079 2.209 2.319 2.289 2.139
2652.345 2.099 2.129 2.329 2.529 2.659 2.649 2.639 2.769 2.539 2.569
2671.634 2.929 3.049 2.909 2.919 3.119 3.099 3.129 3.179 3.069 3.029
2690.924 3.289 3.219 3.099 3.299 3.589 3.579 3.279 3.209 3.289 3.459
2710.214 3.509 3.599 3.669 3.809 4.249 4.329 4.159 4.319 4.339 4.129
2729.504 4.019 4.069 4.109 4.329 4.499 4.369 4.339 4.449 4.569 4.549
2748.794 4.499 4.339 4.519 4.579 4.779 5.169 5.389 5.659 5.899 6.289
2768.083 6.789 7.249 7.559 7.909 8.229 8.669 9.189 9.649 10.429 11.029
2787.373 11.159 11.279 11.499 11.909 12.239 12.239 12.489 12.899 12.739 12.279
2806.663 12.159 12.169 11.969 11.919 11.969 11.559 11.249 10.999 10.729 10.649
2825.953 10.539 10.409 10.089 9.679 9.429 9.369 9.579 9.809 9.999 10.459
2845.242 11.679 12.819 13.849 15.239 16.709 18.309 19.949 21.549 22.799 23.359
2864.532 22.849 22.309 21.709 20.759 19.699 18.589 17.629 16.489 15.539 14.649
2883.822 14.319 14.399 14.389 14.489 14.759 14.989 15.319 15.759 16.289 16.959
2903.112 17.569 18.339 19.319 20.629 21.909 23.479 25.489 27.399 30.179 33.699
2922.401 37.319 41.569 45.939 50.929 56.509 61.889 67.609 72.799 77.529 81.149
2941.691 82.819 83.149 82.039 80.159 77.349 72.809 66.909 60.639 54.879 49.909
2960.981 45.119 40.919 36.959 33.179 30.739 28.479 26.889 26.329 25.769 25.169
2980.271 24.959 25.389 25.119 24.249 23.369 22.209 20.659 18.979 17.579 16.209
2999.561 14.609 13.269 12.369 11.439 10.389 9.349 8.599 8.169 7.499 6.619
3018.850 6.099 5.709 5.609 5.229 4.619 4.569 4.179 3.679 3.689 3.219
3038.140 2.969 2.979 2.829 2.679 2.339 2.339 2.259 2.149 2.299 2.139
3057.430 2.369 2.479 1.929 1.4871 1.4011 1.909 2.099 1.819 2.279 2.529
3076.720 1.989 1.859 1.879 2.119 1.759 1.789 2.099 1.6762 1.6117 1.6847
3096.009 1.799 1.949 1.799 1.562 1.809 2.059 1.989 1.909 1.4728 1.3771
3115.299 1.5731 1.769 1.6199 1.3131 1.6268 1.839 1.739 1.5393 1.5797 1.5289
3134.589 1.0121 0.8013 0.8217 1.1503 1.2511 1.0464 1.1345 1.0406 0.9879 1.2394
3153.879 1.2248 1.0282 1.4897 1.4973 1.2737 1.2914 1.1725 1.3191 1.2385 0.70434
3173.169 0.6381 0.73728 0.7021 0.68412 0.9674 1.5121 1.4982 1.1787 0.9409 1.2519
3192.458 1.4225 1.0603 1.2057 1.5071 1.2793 1.1342 1.2552 1.3232 0.75307 0.202
3211.748 0.412 1.3639 1.999 1.6641 1.0672 0.277 0.119 0.72156 1.0525 1.1945
3231.038 1.2868 0.9302 0.8127 0.9247 1.1765 1.45 1.4407 1.3643 1.1365 0.9325
3250.328 0.76268 0.6115 0.9011 1.0448 1.1344 1.3417 1.1136 1.0147 1.1169 1.3331
3269.617 1.3591 1.0481 0.7968 0.78674 0.51 0.488 0.78139 0.8042 0.9133 0.74438
3288.907 0.457 0.287 0.417 0.71289 0.77728 0.8195 0.8542 0.78422 0.553 0.6096
3308.197 0.8049 0.6422 0.9914 1.2419 0.7794 0.8273 1.0989 0.9965 0.9269 0.9707
3327.487 0.576 0.73138 1.0555 0.9571 1.0114 1.2314 1.989 1.909 1.5047 1.4748
3346.777 1.5687 1.769 1.4101 1.154 1.5562 1.759 1.2973 1.3208 1.532 1.558
3366.066 1.5308 1.3151 1.4042 2.079 2.579 1.939 1.4975 1.638 1.5394 1.699
3385.356 1.582 1.4889 1.6812 1.4607 1.0979 0.8803 0.8493 0.76593 0.6166 0.9872
3404.646 1.328 0.8125 0.68567 0.77338 0.286 0.344 0.6507 0.6695 0.6244 0.68392
3423.936 0.9212 0.8602 0.9565 1.3758 1.4678 0.9925 0.501 0.8812 0.9917 0.51
3443.225 0.78458 1.1622 1.3038 1.3229 1.2235 1.1582 0.9507 0.9776 1.2113 1.2485
3462.515 1.2888 1.144 0.8962 1.221 1.2176 1.0919 1.2909 1.0329 0.9079 1.0172
3481.805 1.1076 0.9796 1.0266 1.1577 1.2197 1.4274 1.6345 1.3435 0.77649 1.1205
3501.095 1.3208 1.3202 1.6476 1.4722 1.1669 0.8547 0.70898 0.8661 0.45 0.301
3520.385 0.8866 0.8259 0.511 0.474 0.70721 0.6653 0.74 0.75074 0.346 0.336
3539.674 0.292 0.153 0.423 0.6623 0.9715 1.0686 0.5923 0.6237 0.8104 0.6118
3558.964 0.283 0.477 1.1542 0.8813 0.532 0.476 0.466 0.70153 0.55 0.479
3578.254 0.543 0.537 0.479 0.72428 0.461 0.363 0.75159 1.0783 0.8972 0.534
3597.544 0.245 0.208 0.72096 0.8452 0.78023 0.8244 0.506 0.49 0.8041 0.75242
3616.833 0.75188 0.369 0.293 0.7949 1.0588 0.9578 0.9238 0.68025 0.278 0.364
3636.123 0.6759 0.35 0.148 0.517 0.8731 1.0803 0.6001 0.398 0.494 0.483
3655.413 0.39 0.498 0.8644 0.6697 0.463 0.8691 1.0489 0.599 0.146 0
3674.703 0.075 0.39 1.0274 1.3513 1.1226 0.7909 0.408 0.423 0.693724 0.76242
3693.993 0.78045 0.439 0.164 0.8539 1.1935 0.77226 0.8444 0.9718 1.1538 1.1897
3713.282 0.586 0.347 0.586 0.544 0.265 0.5934 1.1426 0.8938 0.483 0.467
3732.572 0.853 0.6644 0.361 0.326 0.6639 1.2588 1.0616 0.539 0.72861 1.4279
3751.862 1.5272 0.9724 0.8411 0.73114 0.11 0.167 0.6508 0.56 0.471 0.584
3771.152 0.8013 1 0.6115 0.578 0.554 0.259 0.535 0.9038 1.0913 1.4024
3790.441 1.4724 1.1016 0.76928 0.462 0.444 0.9591 0.9287 0.73067 1.1751 1.1999
3809.731 0.8571 1.1919 1.859 1.6611 0.9008 0.5996 0.44 0.409 0.488 0.408
3829.021 0.371 0.72824 1.3949 0.9549 0.468 0.859 0.6238 0.511 1.089 0.8502
3848.311 0.247 0.7927 1.1768 0.543 0.6608 1.1859 0.9565 0.8847 1.3708 0.9351
3867.601 0.343 0.389 0.6448 0.8827 0.9011 0.8325 0.93 0.9421 0.8145 1.0623
3886.890 0.9367 0.379 0.341 1.0263 1.4295 1.0181 0.8439 0.8966 0.74099 0.6098
3906.180 0.6339 1.4256 1.739 1.2016 0.75411 0.6254 0.73848 0.9776 0.75853 0.513
3925.470 1.3793 1.4059 0.523 0.6143 0.649 0.459 1.0312 1.3186 0.8256 0.9283
3944.760 1.4114 0.9728 0.431 0.367 0.587 0.8746 1.0214 1.6705 1.2336 0.77646
3964.049 0.967 0.9149 1.3367 0.9055 0.6288 0.8655 1.2059 1.1437 0.6227 1.2512
3983.339 1.6302 1.2155 0.73102 0.224 0.079 0.195 0.8639 1.0495 0.9964 1.148
##END=
