##TITLE=2,2-Dimethyloctane
##JCAMP-DX=4.24
##DATA TYPE=INFRARED SPECTRUM
##ORIGIN=NIST Mass Spectrometry Data Center
##OWNER=NIST Standard Reference Data Program
Collection (C) 2018 copyright by the U.S. Secretary of Commerce
on behalf of the United States of America. All rights reserved.
##CAS REGISTRY NO=15869-87-1
##MOLFORM=C 10 H 22
##$NIST SOURCE=MSDC-IR
##SPECTROMETER/DATA SYSTEM=HP-GC/MS/IRD
##STATE=gas
##XUNITS=1/CM
##YUNITS=ABSORBANCE
##XFACTOR=1.0
##YFACTOR=0.000004900
##DELTAX=4.0
##FIRSTX=550.0
##LASTX=3846.0
##FIRSTY=0.000167
##MAXX=3846
##MINX=550
##MAXY=0.049
##MINY=0
##NPOINTS=825
##XYDATA=(X++(Y..Y))
550.0 34 9 0 8 45 39 23 44 42 33
590.0 35 44 47 39 42 49 53 47 40 38
630.0 33 42 51 45 44 54 56 43 40 49
670.0 60 58 44 34 42 50 64 79 86 90
710.0 101 115 122 130 136 133 124 124 115 103
750.0 104 101 101 98 89 87 92 90 79 71
790.0 65 67 73 72 62 56 60 64 62 56
830.0 61 62 64 58 54 65 72 71 66 68
870.0 79 80 79 82 83 83 85 83 86 92
910.0 100 102 103 102 96 93 88 83 79 77
950.0 75 71 70 68 69 72 71 70 66 68
990.0 69 66 68 68 65 66 67 61 57 57
1030.0 57 66 64 59 59 56 56 63 63 57
1070.0 58 56 58 62 62 66 68 69 70 75
1110.0 78 72 60 51 49 53 56 54 56 56
1150.0 58 64 76 86 95 102 104 119 136 144
1190.0 160 175 182 187 194 205 217 234 254 279
1230.0 309 349 382 397 382 340 280 222 179 158
1270.0 150 142 140 135 133 128 128 136 140 146
1310.0 153 157 161 170 182 199 220 251 291 346
1350.0 428 551 714 892 1017 1041 959 813 672 590
1390.0 565 548 506 428 317 237 207 197 198 214
1430.0 239 271 323 391 476 579 697 829 954 1058
1470.0 1126 1137 1076 935 745 551 396 291 231 186
1510.0 152 131 113 99 91 82 73 63 58 60
1550.0 56 53 50 48 47 47 42 41 44 42
1590.0 39 41 40 37 35 33 30 32 36 37
1630.0 36 31 27 29 29 31 33 32 29 29
1670.0 28 27 30 27 28 29 25 23 25 24
1710.0 23 24 23 22 23 22 22 20 17 17
1750.0 20 21 21 18 15 16 14 14 18 19
1790.0 17 13 15 19 19 18 18 17 18 17
1830.0 18 17 13 12 13 12 11 10 10 12
1870.0 12 10 10 12 12 14 15 13 12 11
1910.0 12 12 10 10 11 13 13 12 9 8
1950.0 9 11 14 10 7 10 12 10 9 8
1990.0 9 8 9 10 11 8 10 11 12 13
2030.0 12 10 11 10 10 11 12 11 10 11
2070.0 11 9 7 7 6 9 10 8 5 9
2110.0 9 7 10 11 9 9 9 6 5 6
2150.0 5 7 7 6 5 4 5 4 3 4
2190.0 5 4 4 5 7 6 2 0 1 2
2230.0 1 2 4 5 5 6 5 6 7 6
2270.0 7 9 9 11 12 12 11 9 7 8
2310.0 11 12 12 13 9 9 12 11 13 14
2350.0 11 11 10 8 5 7 12 12 13 13
2390.0 12 16 19 18 18 17 17 15 13 16
2430.0 17 16 14 13 14 16 17 16 14 13
2470.0 14 15 19 21 20 21 20 19 20 19
2510.0 19 21 23 26 27 27 26 27 33 31
2550.0 29 33 36 39 41 41 40 40 45 45
2590.0 44 46 48 55 55 54 59 61 63 68
2630.0 73 77 80 80 80 85 87 87 92 100
2670.0 103 104 107 105 109 114 114 115 117 121
2710.0 127 133 141 151 154 157 161 164 165 169
2750.0 172 170 170 173 175 181 191 198 214 235
2790.0 254 277 301 324 360 398 443 492 549 627
2830.0 724 850 1015 1241 1536 1900 2323 2752 3152 3493
2870.0 3714 3829 3861 3817 3746 3705 3728 3850 4064 4351
2910.0 4693 5120 5674 6368 7148 7899 8463 8732 8742 8684
2950.0 8823 9272 9795 10000 9442 8003 6176 4414 3033 2137
2990.0 1571 1201 963 797 672 584 517 458 413 378
3030.0 347 323 299 274 257 241 232 224 212 205
3070.0 198 192 187 183 181 173 167 157 150 142
3110.0 133 135 133 124 120 118 117 122 124 120
3150.0 114 111 114 115 118 117 112 109 110 107
3190.0 104 104 105 100 96 96 93 88 85 83
3230.0 81 78 70 63 60 54 51 47 42 42
3270.0 40 37 32 33 37 33 30 32 31 29
3310.0 28 27 26 23 27 31 29 28 26 26
3350.0 25 25 26 27 29 28 30 37 32 27
3390.0 22 23 26 21 14 16 20 23 16 10
3430.0 17 16 10 14 11 12 12 12 14 12
3470.0 8 8 9 11 10 7 8 8 6 1
3510.0 0 0 2 7 4 4 3 4 7 8
3550.0 9 11 12 9 7 8 9 8 2 3
3590.0 7 6 4 9 13 11 7 7 10 11
3630.0 12 12 16 13 14 17 15 13 10 14
3670.0 13 5 8 16 18 20 21 20 19 14
3710.0 14 10 5 7 14 17 16 15 12 18
3750.0 21 18 16 17 19 23 24 25 23 21
3790.0 23 22 22 23 24 26 26 29 29 28
3830.0 27 25 23 26 27
##END=
