##TITLE=4-(Methylthio)phenyl isothiocyanate
##JCAMP-DX=4.24
##DATA TYPE=INFRARED SPECTRUM
##ORIGIN=EPA-IR VAPOR PHASE LIBRARY
##OWNER=SRD/NIST
Collection (C) 2018 copyright by the U.S. Secretary of Commerce
on behalf of the United States of America. All rights reserved.
##CAS REGISTRY NO=15863-41-9
##MOLFORM=C 8 H 7 N S 2
##$NIST SOURCE=MSDC-IR
##STATE=gas
##XUNITS=1/CM
##YUNITS=ABSORBANCE
##XFACTOR=1.
##YFACTOR=0.001
##DELTAX=1.92898
##FIRSTX=549.8
##LASTX=4000.7
##FIRSTY=4.682
##MAXX=4000.7
##MINX=549.759
##MAXY=0.783232
##MINY=0
##NPOINTS=1790
##XYDATA=(X++(Y..Y))
549.759 4.682 5.042 4.782 4.612 4.822 5.242 5.662 6.072 7.062 7.442
569.049 7.772 8.152 8.272 9.002 9.412 9.342 9.302 9.202 9.122 8.932
588.339 8.842 8.482 8.022 7.652 7.302 7.482 7.752 7.622 7.532 7.712
607.628 7.772 7.752 7.902 7.662 7.432 7.342 7.192 6.892 6.722 6.512
626.918 5.982 5.982 6.382 6.522 6.982 7.392 7.092 7.102 6.872 6.612
646.208 6.482 6.132 6.072 5.842 5.652 5.562 5.312 5.152 5.382 5.382
665.498 5.052 4.902 4.912 5.052 4.982 4.602 4.462 4.642 4.282 4.362
684.787 4.632 4.202 3.982 3.852 3.782 3.902 3.812 3.722 3.572 3.502
704.077 3.672 3.732 3.952 3.862 4.122 4.622 4.492 4.452 4.582 4.652
723.367 5.282 6.112 7.182 8.382 9.892 12.462 14.332 15.402 15.882 15.962
742.657 15.152 12.792 10.102 7.252 5.402 4.862 4.342 3.682 3.282 3.252
761.947 3.172 3.282 3.432 3.742 4.502 4.622 4.652 4.842 5.012 5.532
781.236 5.992 6.322 6.792 7.422 8.142 8.992 10.492 12.502 14.322 16.512
800.526 19.612 23.412 27.462 32.082 37.072 41.822 46.072 49.802 53.922 58.012
819.816 60.592 62.952 63.942 61.442 58.092 54.372 50.002 45.942 41.802 36.952
839.106 32.332 27.862 23.722 20.162 16.722 14.192 12.092 10.322 9.312 8.672
858.395 8.252 7.982 7.502 7.112 7.012 7.042 6.812 6.272 5.712 5.452
877.685 5.652 5.852 5.962 6.512 7.122 7.732 8.662 9.812 11.242 12.932
896.975 14.522 16.462 18.192 19.372 20.752 22.302 23.682 24.742 25.992 27.342
916.265 28.482 29.802 32.002 34.632 37.242 39.972 43.032 46.272 49.042 51.872
935.555 54.452 56.042 56.772 56.512 55.212 52.702 49.372 45.952 42.892 39.472
954.844 36.462 34.512 32.492 30.662 29.772 29.652 29.422 28.252 26.332 23.672
974.134 20.862 17.992 15.342 13.282 11.542 10.452 9.592 9.222 8.902 8.332
993.424 7.772 7.532 7.662 7.872 7.702 7.962 9.312 10.502 11.882 14.102
1012.714 15.702 15.602 14.142 12.442 10.752 8.562 6.632 5.682 4.862 4.102
1032.003 3.952 4.442 4.892 4.832 4.892 4.862 4.622 4.922 5.622 5.892
1051.293 5.742 5.462 5.832 5.762 5.702 6.362 6.772 7.442 7.992 8.942
1070.583 10.222 10.822 11.412 13.062 15.412 18.242 22.212 27.042 33.922 42.282
1089.873 49.622 55.282 58.962 59.252 55.022 47.322 38.152 28.742 21.632 17.552
1109.163 13.952 12.352 11.422 9.632 9.172 8.772 8.022 8.032 8.082 7.372
1128.452 7.072 6.582 6.432 6.572 6.082 5.542 5.092 4.382 4.572 4.742
1147.742 4.152 4.302 4.372 4.272 3.532 3.212 3.842 3.872 3.902 3.692
1167.032 3.542 3.962 3.952 4.132 4.582 4.042 3.792 4.762 4.652 4.132
1186.322 3.932 3.682 3.762 4.772 4.112 3.632 4.732 5.312 5.702 4.892
1205.611 4.282 4.752 5.472 6.692 7.612 6.822 6.542 6.882 6.592 6.772
1224.901 6.862 7.102 7.822 9.092 10.442 11.062 12.702 14.912 16.752 19.032
1244.191 21.322 23.682 25.522 26.442 26.832 26.812 25.872 24.222 22.832 21.112
1263.481 19.252 17.152 15.382 13.642 11.862 11.022 10.222 9.702 9.642 9.152
1282.771 8.562 8.452 8.282 8.082 8.102 8.272 8.522 8.572 8.712 8.932
1302.060 9.042 9.002 8.892 8.932 9.082 9.362 9.822 10.452 11.152 11.722
1321.350 11.952 11.782 11.282 10.402 9.062 7.562 6.262 5.272 4.552 3.922
1340.640 3.642 3.602 3.412 3.142 2.952 2.922 2.842 2.802 2.882 2.782
1359.930 2.722 2.792 2.832 2.842 2.852 3.062 3.232 3.372 3.622 3.742
1379.219 3.992 4.372 4.692 5.032 5.372 5.642 6.042 6.472 6.822 7.182
1398.509 7.572 8.032 8.492 8.902 9.112 9.442 9.852 10.352 11.022 11.652
1417.799 12.362 13.332 14.312 15.422 16.752 18.142 19.892 21.972 24.202 26.632
1437.089 29.322 31.772 33.412 33.862 33.232 31.732 29.332 26.362 23.362 20.922
1456.378 19.122 18.032 17.552 17.572 18.272 19.722 22.182 26.202 32.572 42.222
1475.668 56.002 75.302 100.192 129.632 157.982 177.812 183.962 177.522 160.892 134.852
1494.958 101.452 68.872 46.322 33.142 25.572 21.012 17.942 15.892 14.572 13.722
1514.248 13.172 12.622 12.252 11.952 11.682 11.492 11.402 11.412 11.412 11.392
1533.538 11.362 11.422 11.522 11.632 11.992 12.422 12.852 13.592 14.472 15.272
1552.827 15.782 16.342 16.882 16.942 17.162 17.422 17.292 17.242 17.352 17.662
1572.117 18.622 19.912 21.512 23.702 26.002 28.472 30.792 32.512 33.072 32.382
1591.407 30.572 27.832 24.382 20.712 17.482 14.702 12.432 10.952 10.002 9.372
1610.697 9.002 8.702 8.442 8.252 8.232 8.212 8.432 8.512 8.342 8.212
1629.986 8.102 8.142 8.182 8.042 8.112 8.112 7.922 7.952 7.802 7.482
1649.276 7.292 7.062 6.822 6.632 6.432 6.212 6.002 5.742 5.472 5.152
1668.566 4.902 4.792 4.542 4.352 4.342 4.262 4.042 3.982 3.912 3.862
1687.856 3.822 3.722 3.652 3.592 3.632 3.492 3.292 3.382 3.612 3.642
1707.146 3.422 3.402 3.552 3.632 3.612 3.482 3.502 3.792 3.982 4.012
1726.435 4.062 4.102 4.142 4.222 4.312 4.372 4.482 4.642 4.692 4.782
1745.725 4.942 4.952 5.042 5.242 5.322 5.232 5.232 5.312 5.342 5.292
1765.015 5.272 5.152 4.942 4.752 4.662 4.632 4.532 4.452 4.472 4.502
1784.305 4.582 4.692 4.642 4.812 5.022 5.142 5.192 5.372 5.682 5.822
1803.594 6.012 6.182 6.382 6.542 6.672 6.942 7.292 7.482 7.722 8.092
1822.884 8.382 8.552 8.872 9.232 9.452 9.592 9.742 10.082 10.382 10.612
1842.174 10.912 11.282 11.752 12.022 12.322 12.702 13.072 13.412 13.602 13.852
1861.464 14.142 14.302 14.492 14.782 15.072 15.392 15.652 15.922 16.232 16.642
1880.754 16.992 17.232 17.332 17.522 17.932 18.142 18.362 18.682 18.932 19.342
1900.043 19.762 20.072 20.522 21.062 21.672 22.292 23.102 24.042 24.952 26.042
1919.333 27.312 28.712 30.262 31.982 33.952 36.062 38.312 40.842 43.702 46.842
1938.623 50.112 53.592 57.472 61.612 65.912 70.522 75.422 80.532 85.952 91.702
1957.913 97.902 104.322 110.882 117.892 125.522 133.542 141.752 150.402 159.432 168.952
1977.202 178.882 189.132 200.122 211.492 223.212 235.852 249.232 263.412 278.512 294.732
1996.492 312.162 330.562 349.892 369.762 390.172 411.122 432.602 454.052 474.762 495.232
2015.782 514.932 534.282 553.552 572.622 591.232 609.152 627.382 646.552 665.852 685.222
2035.072 705.352 725.872 745.812 763.892 777.842 783.232 776.382 754.842 720.082 675.622
2054.362 624.532 571.202 519.862 472.962 432.542 399.672 374.332 356.422 345.182 339.772
2073.651 339.602 344.042 352.502 364.932 380.682 398.732 419.162 441.292 463.692 484.852
2092.941 503.302 516.962 522.652 519.032 505.552 482.522 452.342 417.622 380.712 344.132
2112.231 310.132 279.392 252.322 229.462 210.302 194.462 181.452 170.822 162.362 155.642
2131.521 150.242 146.142 143.332 141.442 140.602 140.712 141.412 142.382 143.242 143.512
2150.810 142.792 141.112 138.302 134.302 129.162 123.262 116.742 109.892 103.302 96.982
2170.100 91.032 85.432 80.412 76.362 72.802 69.702 67.132 65.002 63.202 61.412
2189.390 59.662 57.862 55.902 53.732 51.322 48.852 46.462 44.042 41.462 38.782
2208.680 36.292 33.862 31.482 29.382 27.442 25.712 24.102 22.622 21.222 19.812
2227.970 18.572 17.432 16.182 15.082 14.062 13.062 12.282 11.532 10.812 10.122
2247.259 9.522 9.102 8.612 8.032 7.602 7.312 7.132 6.962 6.812 6.632
2266.549 6.582 6.492 6.392 6.292 6.132 6.142 5.952 5.742 5.642 5.592
2285.839 5.542 5.442 5.332 5.142 5.002 4.912 4.812 4.822 4.762 4.612
2305.129 4.612 4.762 4.692 4.602 4.642 4.772 4.882 4.842 4.852 5.032
2324.418 5.292 5.412 5.342 5.292 5.332 5.352 5.442 5.482 5.672 5.772
2343.708 5.812 5.962 6.012 6.062 6.202 6.362 6.462 6.432 6.252 6.282
2362.998 6.402 6.312 6.222 6.172 5.962 5.772 5.762 5.662 5.552 5.542
2382.288 5.542 5.592 5.582 5.642 5.662 5.772 5.822 5.692 5.692 5.772
2401.578 5.872 5.752 5.752 5.882 5.892 5.902 5.832 5.652 5.512 5.552
2420.867 5.612 5.492 5.282 5.182 4.972 4.842 4.652 4.512 4.532 4.252
2440.157 4.072 4.162 4.182 4.192 4.182 4.122 4.152 4.132 4.212 4.372
2459.447 4.412 4.412 4.452 4.412 4.412 4.472 4.452 4.582 4.922 5.112
2478.737 5.222 5.472 5.582 5.742 6.072 6.252 6.522 6.762 6.812 6.832
2498.026 6.922 7.152 7.132 6.942 6.882 6.792 6.702 6.522 6.372 6.162
2517.316 5.922 5.782 5.672 5.522 5.372 5.252 5.052 4.932 4.742 4.542
2536.606 4.542 4.502 4.452 4.342 4.242 4.382 4.352 4.342 4.552 4.632
2555.896 4.632 4.692 4.742 4.812 4.962 4.962 5.012 5.382 5.542 5.722
2575.186 5.872 5.932 6.282 6.462 6.502 6.852 7.422 7.842 8.292 8.902
2594.475 9.392 9.852 10.592 11.492 12.262 13.092 14.042 14.812 15.622 16.582
2613.765 17.292 18.072 18.632 18.722 18.462 17.842 17.072 16.172 14.872 13.412
2633.055 12.092 10.692 9.402 8.202 7.042 6.352 6.052 5.692 5.282 4.992
2652.345 4.812 4.592 4.382 4.242 4.322 4.212 4.092 4.112 4.052 4.162
2671.634 4.082 3.992 3.992 3.872 3.662 3.382 3.372 3.262 3.132 3.262
2690.924 3.242 3.242 3.322 3.212 3.002 2.882 2.762 2.682 2.852 2.852
2710.214 2.812 2.872 2.952 3.242 3.282 3.222 3.092 3.162 3.522 3.622
2729.504 3.652 3.752 3.752 3.782 3.842 3.892 4.112 4.302 4.472 4.672
2748.794 4.702 4.512 4.572 4.752 4.882 4.972 4.862 4.942 5.272 5.422
2768.083 5.392 5.552 5.602 5.632 5.752 5.862 5.972 6.122 6.232 6.112
2787.373 6.132 6.132 6.092 5.882 5.802 5.442 4.882 4.812 4.652 4.422
2806.663 4.342 4.372 4.312 4.112 3.832 3.792 3.902 4.042 4.282 4.442
2825.953 4.572 4.882 5.022 5.142 5.532 6.012 6.322 6.492 6.562 6.882
2845.242 7.282 7.492 7.832 7.702 7.192 7.002 6.612 6.272 6.262 5.892
2864.532 5.342 5.252 5.482 5.442 5.262 5.092 5.032 5.112 4.952 4.682
2883.822 4.652 4.792 4.962 5.162 5.312 5.402 5.512 5.862 6.412 6.792
2903.112 7.242 8.032 8.732 9.442 10.152 10.952 11.892 12.672 13.782 15.562
2922.401 17.452 19.722 22.692 26.322 30.122 32.052 31.842 31.262 29.752 26.442
2941.691 22.342 18.792 16.452 15.212 14.542 13.852 13.082 12.302 11.802 11.482
2960.981 10.952 10.572 10.272 10.102 10.162 10.392 10.642 10.752 11.072 11.382
2980.271 11.462 11.802 11.912 12.112 12.792 13.482 14.272 15.052 15.472 15.872
2999.561 15.722 15.292 14.732 13.222 11.572 10.562 10.242 9.972 9.712 9.522
3018.850 9.142 8.902 9.182 9.612 9.982 10.502 10.892 11.222 11.552 11.762
3038.140 11.432 10.632 10.012 9.332 8.392 7.552 6.872 6.252 6.142 6.262
3057.430 6.052 6.122 6.262 6.262 6.562 7.122 7.602 7.942 8.442 9.252
3076.720 9.862 10.172 10.852 11.422 11.842 12.202 12.272 12.362 12.042 11.492
3096.009 10.992 10.232 9.252 8.462 7.642 6.562 5.652 4.902 4.422 4.082
3115.299 3.622 3.352 3.232 2.842 2.552 2.482 2.302 2.082 2.242 2.232
3134.589 1.872 1.742 1.482 1.512 1.892 1.982 1.712 1.652 1.982 1.832
3153.879 1.422 1.2966 1.047 0.9141 1.1782 1.402 1.522 1.412 1.532 1.552
3173.169 1.2443 1.2566 1.472 1.442 1.1821 0.9473 0.5796 0.629 0.9345 0.8189
3192.458 0.687 0.7238 0.8374 0.7874 0.563 0.4461 0.5235 0.7091 0.5381 0.316894
3211.748 0.5261 0.6347 0.7886 0.8561 0.7007 0.7759 0.6803 0.39586 0.4514 0.4553
3231.038 0.538 0.37349 0 0.5939 0.8134 0.5711 0.6177 0.5584 0.7456 0.9121
3250.328 0.6634 0.6232 0.7906 0.6149 0.463 0.517 0.6831 0.7935 0.7955 0.5069
3269.617 0.312172 0.3896 0.2874 0.2329 0.3815 0.6962 0.6873 0.5906 0.7344 0.9178
3288.907 0.9032 0.6295 0.631 0.6859 0.731 0.7285 0.5554 0.7727 0.6597 0.2932
3308.197 0.207 0.137 0.2344 0.6315 0.9511 1.0085 0.6511 0.4468 0.6014 0.6565
3327.487 0.6757 0.5631 0.723 0.9994 0.9665 0.9512 0.5616 0.32203 0.4724 0.4566
3346.777 0.4905 0.6737 0.9202 0.9878 0.9333 0.8439 0.8174 0.7258 0.7919 0.704
3366.066 0.7088 0.9063 0.8594 0.7357 0.6828 0.5544 0.6407 0.7504 0.7554 1.0503
3385.356 0.9832 0.6889 0.6755 0.6325 0.2155 0.197 0.5917 0.6388 0.6483 0.38561
3404.646 0.124 0.4207 0.5793 0.5259 0.37235 0.2936 0.4663 0.5008 0.5794 0.5872
3423.936 0.7353 1.099 1.1194 0.9285 0.8592 1.0031 0.9212 0.9109 0.865 0.6113
3443.225 0.9067 1.0775 0.7097 0.5763 0.993 1.2126 0.7304 0.6175 0.868 0.9851
3462.515 0.892 0.5404 0.5872 0.8723 0.8153 0.5594 0.7383 0.9829 0.6445 0.5186
3481.805 1.035 1.0257 0.431 0.2373 0.4995 0.6162 0.7781 0.7379 0.6871 1.0247
3501.095 1.0297 0.8303 0.6806 0.827 0.8599 0.818 0.8593 0.6462 0.4878 0.5481
3520.385 0.8616 1.0844 0.8091 0.4961 0.4769 0.41095 0.5903 0.7224 0.4457 0.6853
3539.674 0.737 0.6755 0.8595 0.8243 0.8365 0.9635 0.9614 0.6443 0.6244 0.5195
3558.964 0.5123 0.5585 0.4626 0.6405 0.38641 0.2619 0.6002 0.4443 0.199 0.4394
3578.254 0.7002 0.6757 0.5566 0.4362 0.5479 0.8723 0.8328 0.6855 0.9506 1.0586
3597.544 0.7075 0.5942 0.5766 0.6773 0.7413 0.7648 0.8733 0.6161 0.4624 0.6071
3616.833 0.754 0.4246 0.40913 0.7911 0.8297 0.73 0.7182 0.6849 0.6178 0.7288
3636.123 0.8605 0.6752 0.40995 0.7008 0.9532 0.9429 0.964 0.8687 0.9404 1.1239
3655.413 1.0282 0.811 0.9303 1.1225 0.9889 0.9739 1.2905 1.2034 0.9656 0.8943
3674.703 0.6601 0.6891 0.8043 0.7589 0.9009 1.0787 1.0297 0.8811 1.238 1.0714
3693.993 0.6121 0.5177 0.7785 1.1939 1.1149 0.9377 1.038 1.342 1.412 1.0766
3713.282 0.7134 0.7652 0.9906 1.2326 1.1647 1.2618 1.452 0.9257 1.1454 1.512
3732.572 0.9771 0.7717 0.6878 0.5808 0.6782 0.4847 0.2222 0.3606 0.6902 0.7849
3751.862 0.6393 0.6362 0.7058 0.9255 1.063 0.9863 0.8871 1.1436 1.2519 1.1081
3771.152 1.1039 1.2166 1.0396 0.8036 0.8759 0.7948 0.8309 0.9133 0.9867 1.0418
3790.441 0.9909 0.802 0.8961 0.8408 0.7798 1.2151 1.342 1.382 1.0615 0.9548
3809.731 1.2472 1.342 1.0903 1.1297 1.342 0.9738 1.0198 1.1408 1.1964 1.2086
3829.021 1.1657 1.362 1.218 0.9049 1.0843 1.2345 1.1084 1.2479 1.322 1.222
3848.311 1.2529 1.0789 1.256 1.332 1.0392 1.038 1.1611 1.442 1.532 1.592
3867.601 1.2383 1.1599 1.3049 1.2553 1.582 1.632 1.582 1.662 1.632 1.542
3886.890 1.592 1.542 1.442 1.392 1.522 1.882 2.122 2.282 1.852 1.1477
3906.180 1.0947 1.392 1.682 1.792 1.792 1.642 2.012 2.362 2.272 2.192
3925.470 2.022 2.022 2.242 2.322 2.052 2.042 2.092 2.282 2.302 2.222
3944.760 2.552 2.502 2.342 2.422 2.492 2.652 2.452 2.272 2.372 2.682
3964.049 3.052 2.932 2.552 2.802 3.312 3.232 3.032 3.102 3.182 3.352
3983.339 3.312 2.862 2.832 2.902 2.912 3.172 3.242 3.122 3.052 3.252
##END=
