##TITLE=Bicyclo[2.2.1]-2,5-heptadiene-2,3-dicarboxylic acid
##JCAMP-DX=4.24
##DATA TYPE=INFRARED SPECTRUM
##ORIGIN=EPA-IR VAPOR PHASE LIBRARY
##OWNER=SRD/NIST
Collection (C) 2018 copyright by the U.S. Secretary of Commerce
on behalf of the United States of America. All rights reserved.
##CAS REGISTRY NO=15872-28-3
##MOLFORM=C 9 H 8 O 4
##$NIST SOURCE=MSDC-IR
##STATE=gas
##XUNITS=1/CM
##YUNITS=ABSORBANCE
##XFACTOR=1.
##YFACTOR=0.001
##DELTAX=1.92898
##FIRSTX=549.8
##LASTX=4000.7
##FIRSTY=0.251
##MAXX=4000.7
##MINX=549.759
##MAXY=0.061187
##MINY=0
##NPOINTS=1790
##XYDATA=(X++(Y..Y))
549.759 0.251 0.26 0.079 0.455321 0.8957 0.521 0.51049 0.8598 1.3602 1.2699
569.049 0.7437 1.0257 1.547 1.917 2.317 2.357 2.527 2.807 2.597 2.467
588.339 2.597 2.367 2.017 1.787 1.717 1.807 1.717 1.617 1.357 1.447
607.628 1.687 1.477 1.3241 1.2192 1.0186 0.8392 0.9062 1.0765 0.9714 0.7529
626.918 0.6595 0.7891 0.8739 0.6946 0.5206 0.3743 0.49139 0.7383 0.9438 0.9765
646.208 0.6057 0.5842 0.5771 0.6096 0.723 0.7126 0.5862 0.7534 0.7826 0.449992
665.498 0.53816 0.6362 0.5488 0.6321 0.7554 0.46164 0.311 0.409 0.52687 0.6998
684.787 0.763 0.7715 0.9861 1.4062 1.957 2.627 3.487 4.057 4.497 5.247
704.077 5.797 6.097 6.497 6.567 5.967 5.247 4.747 4.147 3.457 2.627
723.367 2.057 2.167 2.227 2.497 3.207 4.067 4.667 5.157 6.047 7.507
742.657 8.757 8.377 7.167 6.627 6.467 6.067 5.097 4.257 3.567 2.737
761.947 2.107 1.567 1.1716 1.0052 0.986 0.9484 0.9631 0.9379 0.8181 0.7259
781.236 0.7755 0.8466 0.9703 0.9708 0.7904 0.8406 1.0965 1.3246 1.567 1.937
800.526 2.387 2.767 3.127 3.317 3.457 3.567 3.647 4.017 4.197 4.047
819.816 4.057 4.037 3.947 3.827 3.787 3.997 4.197 4.397 4.527 4.787
839.106 5.397 6.007 6.647 7.587 8.757 10.087 11.487 12.967 14.177 15.157
858.395 16.267 17.447 18.297 18.347 18.127 17.867 17.267 16.477 15.127 13.497
877.685 11.937 10.197 8.627 7.037 5.607 4.527 3.937 3.737 3.247 2.777
896.975 2.737 2.617 2.267 2.147 2.117 2.177 2.237 2.227 2.227 1.947
916.265 1.807 1.807 1.747 1.517 1.3047 1.447 1.477 1.1884 0.8951 0.9762
935.555 1.0591 0.7658 0.6744 0.7315 0.8686 0.9452 0.8933 0.9193 0.9539 0.9327
954.844 1.0815 1.1039 1.04 1.1523 1.14 1.063 1.0672 1.21 1.0488 1.0382
974.134 1.1583 0.8332 0.6104 0.6213 0.50832 0.51355 0.54544 0.6199 0.5791 0.47743
993.424 0.6097 0.7019 0.6422 0.4289 0.5775 0.9651 1.1553 1.1217 0.9152 1.1804
1012.714 1.567 1.987 2.267 2.097 1.857 2.087 2.307 2.077 2.037 1.797
1032.003 1.777 1.737 1.2932 1.2993 1.517 1.787 1.917 2.207 3.047 3.897
1051.293 4.757 5.237 5.507 6.047 6.097 5.797 5.447 5.087 5.137 4.717
1070.583 3.667 3.127 2.697 2.267 1.717 0.9456 1.4314 1.667 1.797 2.777
1089.873 3.107 2.907 3.327 4.157 3.767 3.447 3.487 3.357 3.647 3.717
1109.163 3.427 2.827 2.227 1.547 0.9781 1.0913 1.1839 1.1507 1.3292 1.2528
1128.452 0.9644 0.6773 0.6716 1.114 1.2465 1.0491 0.7183 0.51841 0.6638 1.1416
1147.742 0.9073 0.3974 0.8181 1.1159 1.0006 0.6066 0.262 0.6318 0.6434 0.254
1167.032 0.4892 0.9026 0.8769 0.7566 0.9593 0.951 1.0439 0.8739 0.6319 1.0769
1186.322 1.323 1.1944 1.4376 1.827 1.937 2.287 2.537 2.867 3.157 3.107
1205.611 3.317 3.947 4.667 5.257 5.897 5.827 5.287 5.147 4.807 4.247
1224.901 3.927 3.377 2.807 2.487 2.177 1.817 1.737 1.827 1.787 1.647
1244.191 1.597 2.057 2.507 2.637 2.837 2.897 3.037 3.577 4.007 4.607
1263.481 5.467 6.317 7.577 8.777 10.027 11.507 12.667 13.717 14.487 14.817
1282.771 14.707 14.257 13.337 11.837 10.267 8.457 6.637 5.227 4.187 3.417
1302.060 2.757 2.377 2.077 1.787 1.597 1.487 1.4048 1.3963 1.443 1.385
1321.350 1.395 1.4351 1.3799 1.388 1.4181 1.4308 1.3951 1.3196 1.2583 1.1532
1340.640 1.0112 0.9551 0.9673 0.9235 0.8365 0.8127 0.7607 0.6902 0.6652 0.5628
1359.930 0.5002 0.52402 0.51698 0.46476 0.51132 0.6001 0.5987 0.5538 0.51842 0.5793
1379.219 0.6746 0.6676 0.6429 0.7265 0.7391 0.6126 0.54101 0.6148 0.693 0.6664
1398.509 0.6418 0.6613 0.6717 0.6359 0.6822 0.7264 0.7205 0.7106 0.6377 0.6532
1417.799 0.664 0.6224 0.611 0.51503 0.49633 0.5514 0.49603 0.50726 0.6265 0.622
1437.089 0.5582 0.5947 0.6496 0.7547 0.7952 0.7207 0.7911 0.8979 0.9838 1.0923
1456.378 1.0259 0.9129 0.9077 0.9318 0.8991 0.8127 0.7939 0.7853 0.7707 0.7274
1475.668 0.6563 0.6252 0.7039 0.747 0.5576 0.51307 0.6775 0.665 0.65 0.6636
1494.958 0.6359 0.6839 0.6904 0.6606 0.6239 0.6529 0.6864 0.6638 0.6325 0.6456
1514.248 0.722 0.7448 0.7202 0.6605 0.6262 0.6327 0.6478 0.6115 0.586 0.6203
1533.538 0.5991 0.6572 0.7569 0.825 0.957 1.0544 1.3068 1.577 1.777 1.987
1552.827 2.047 2.067 2.197 2.267 2.147 2.047 1.937 1.707 1.487 1.2346
1572.117 1.0186 0.9627 0.8976 0.7733 0.6925 0.7272 0.74 0.6985 0.7112 0.7696
1591.407 0.7702 0.7842 0.9075 0.982 0.9877 1.0508 1.1986 1.3111 1.527 1.837
1610.697 2.017 2.187 2.357 2.337 2.387 2.447 2.397 2.307 2.107 1.897
1629.986 1.677 1.4386 1.2507 1.1498 0.9673 0.8963 0.9194 0.8463 0.7805 0.702
1649.276 0.6432 0.6338 0.5502 0.50713 0.5744 0.5932 0.6544 0.6271 0.5694 0.6532
1668.566 0.7177 0.5802 0.52262 0.6325 0.6351 0.6494 0.7095 0.7274 0.7483 0.7891
1687.856 0.7602 0.7169 0.774 0.8525 0.8694 0.7587 0.7025 0.8309 0.8823 0.9027
1707.146 0.9915 1.0575 1.0479 1.0868 1.1769 1.1573 1.1231 1.1598 1.2464 1.3488
1726.435 1.3844 1.497 1.637 1.737 1.747 1.787 2.017 2.247 2.547 2.887
1745.725 3.447 4.107 4.757 5.467 6.157 7.027 7.967 8.897 9.867 10.897
1765.015 12.357 14.297 16.787 19.917 23.977 28.697 34.137 39.987 45.607 50.497
1784.305 54.167 56.847 59.207 61.157 61.187 58.927 55.347 50.887 45.857 40.737
1803.594 35.987 31.607 27.687 24.107 20.697 17.577 14.927 12.637 10.797 9.567
1822.884 8.827 8.517 8.687 9.277 10.257 11.627 13.207 14.777 16.137 17.237
1842.174 17.977 18.337 18.117 17.347 16.327 14.897 13.137 11.247 9.577 8.437
1861.464 7.667 7.057 6.567 6.187 5.747 5.177 4.627 4.047 3.457 2.997
1880.754 2.597 2.297 2.067 1.957 1.947 1.867 1.737 1.757 1.727 1.657
1900.043 1.687 1.697 1.727 1.747 1.777 1.737 1.707 1.767 1.717 1.637
1919.333 1.657 1.677 1.637 1.497 1.3905 1.3419 1.3318 1.2507 1.173 1.1857
1938.623 1.1106 1.044 0.9808 0.9726 0.9631 1.0175 1.0408 0.9964 1.0153 1.029
1957.913 1.024 0.9496 0.8967 0.9737 1.0609 1.0558 1.0738 1.0558 1.0778 1.066
1977.202 0.9476 0.921 0.9942 1.0249 0.9746 0.9295 0.9044 0.8737 0.7849 0.795
1996.492 0.7385 0.6581 0.6641 0.5738 0.5994 0.7207 0.7172 0.616 0.6542 0.7019
2015.782 0.639 0.59 0.5842 0.6204 0.6249 0.6663 0.6461 0.5973 0.584 0.5751
2035.072 0.5474 0.48019 0.50363 0.53738 0.50838 0.52573 0.595 0.4983 0.4139 0.3989
2054.362 0.4232 0.50603 0.47358 0.47638 0.46436 0.46466 0.54615 0.54698 0.47737 0.4361
2073.651 0.4963 0.51168 0.46513 0.52062 0.558 0.5931 0.6469 0.5577 0.51881 0.52934
2092.941 0.51813 0.47612 0.49213 0.54346 0.50305 0.5374 0.5841 0.54061 0.553 0.6291
2112.231 0.6682 0.6013 0.50642 0.5872 0.6499 0.6169 0.6801 0.7244 0.7337 0.735
2131.521 0.6951 0.675 0.6676 0.7032 0.6944 0.6528 0.6703 0.5701 0.50572 0.5846
2150.810 0.5987 0.53585 0.5522 0.5628 0.454007 0.46025 0.46645 0.48127 0.53855 0.48185
2170.100 0.48536 0.447662 0.3789 0.3621 0.3962 0.452772 0.45811 0.44497 0.451835 0.4093
2189.390 0.3894 0.44437 0.4326 0.5035 0.50928 0.3688 0.3572 0.4076 0.4328 0.4038
2208.680 0.291 0.239 0.316 0.4241 0.4311 0.3752 0.339 0.346 0.3519 0.286
2227.970 0.285 0.344 0.344 0.277 0.29 0.3886 0.3657 0.291 0.255 0.311
2247.259 0.3925 0.3546 0.3679 0.3945 0.3783 0.334 0.309 0.301 0.307 0.3685
2266.549 0.3868 0.433 0.4024 0.332 0.316 0.298 0.305 0.3707 0.339 0.289
2285.839 0.327 0.3703 0.3727 0.3592 0.4093 0.3762 0.336 0.333 0.346 0.3561
2305.129 0.325 0.4231 0.4323 0.339 0.3597 0.3991 0.3673 0.341 0.3748 0.308
2324.418 0.267 0.3645 0.3729 0.334 0.346 0.297 0.346 0.3943 0.297 0.339
2343.708 0.455674 0.4051 0.299 0.292 0.299 0.322 0.3873 0.3531 0.4192 0.45937
2362.998 0.33 0.347 0.456141 0.4061 0.312 0.323 0.317 0.3715 0.308 0.257
2382.288 0.3623 0.4038 0.43846 0.3876 0.341 0.297 0.319 0.3645 0.3595 0.3595
2401.578 0.303 0.278 0.314 0.3897 0.417 0.3699 0.3668 0.3713 0.3938 0.4323
2420.867 0.329 0.303 0.295 0.287 0.3976 0.4139 0.3954 0.43948 0.47095 0.4776
2440.157 0.4158 0.3871 0.3947 0.298 0.31 0.4325 0.3938 0.244 0.334 0.4096
2459.447 0.334 0.298 0.26 0.284 0.27 0.282 0.3477 0.3865 0.4128 0.51755
2478.737 0.50029 0.331 0.34 0.3901 0.3888 0.3491 0.31 0.286 0.334 0.3895
2498.026 0.4278 0.3921 0.244 0.244 0.28 0.276 0.282 0.298 0.279 0.272
2517.316 0.3881 0.447857 0.44066 0.47331 0.44654 0.3541 0.331 0.359 0.317 0.232
2536.606 0.213 0.278 0.3646 0.41 0.3675 0.3531 0.3544 0.313 0.343 0.269
2555.896 0.206 0.3493 0.4024 0.339 0.3483 0.331 0.162 0.112 0.273 0.3623
2575.186 0.323 0.256 0.228 0.283 0.335 0.295 0.263 0.262 0.252 0.274
2594.475 0.238 0.249 0.339 0.4117 0.3 0.259 0.3677 0.305 0.202 0.161
2613.765 0.325 0.45784 0.3763 0.293 0.206 0.205 0.233 0.259 0.244 0.205
2633.055 0.262 0.239 0.173 0.221 0.221 0.178 0.25 0.321 0.324 0.327
2652.345 0.26 0.258 0.3613 0.3655 0.287 0.268 0.323 0.307 0.267 0.324
2671.634 0.32 0.257 0.332 0.3483 0.269 0.295 0.328 0.259 0.263 0.254
2690.924 0.149 0.134 0.23 0.274 0.234 0.23 0.261 0.282 0.191 0.189
2710.214 0.186 0.218 0.327 0.313 0.244 0.199 0.233 0.3662 0.446362 0.33
2729.504 0.282 0.263 0.243 0.227 0.208 0.215 0.185 0.206 0.283 0.23
2748.794 0.137 0.203 0.274 0.248 0.156 0.132 0.178 0.234 0.27 0.192
2768.083 0.124 0.179 0.222 0.257 0.258 0.207 0.178 0.164 0.233 0.267
2787.373 0.202 0.234 0.266 0.191 0.166 0.207 0.298 0.24 0.183 0.18
2806.663 0.16 0.151 0.198 0.278 0.32 0.34 0.274 0.298 0.3544 0.302
2825.953 0.221 0.25 0.151 0.081 0.159 0.199 0.207 0.205 0.143 0.204
2845.242 0.242 0.255 0.308 0.233 0.188 0.167 0.224 0.236 0.216 0.329
2864.532 0.46242 0.5721 0.7032 0.8044 0.9389 0.9422 0.9633 1.109 1.2292 1.3723
2883.822 1.507 1.607 1.3873 1.0782 0.9386 0.8807 0.8244 0.8563 0.8037 0.7079
2903.112 0.53285 0.341 0.446682 0.51664 0.47867 0.3831 0.45952 0.586 0.608 0.564
2922.401 0.4571 0.4261 0.48727 0.5743 0.5878 0.605 0.7206 0.7815 0.9579 1.1091
2941.691 1.4061 1.837 2.027 2.237 2.407 2.727 3.087 3.147 2.867 2.427
2960.981 2.047 2.027 2.047 1.707 1.428 1.3002 1.175 1.1991 1.447 1.787
2980.271 2.177 2.877 3.597 3.697 3.557 4.037 4.477 3.747 3.377 3.467
2999.561 2.847 2.197 1.657 1.1989 1.0588 1.2077 1.467 1.807 2.277 2.607
3018.850 2.967 3.447 3.707 3.687 3.617 3.667 3.547 3.197 2.757 2.267
3038.140 1.697 1.2977 1.081 0.8305 0.6228 0.47894 0.45514 0.3707 0.216 0.311
3057.430 0.47976 0.47787 0.26 0.275 0.453767 0.5549 0.5606 0.4308 0.49314 0.6438
3076.720 0.6831 0.6345 0.5599 0.6097 0.7731 0.661 0.6206 0.7192 0.6023 0.5749
3096.009 0.49403 0.451758 0.5752 0.48366 0.453235 0.6397 0.6428 0.5541 0.48482 0.50165
3115.299 0.6631 0.7003 0.6214 0.6016 0.6043 0.5824 0.601 0.621 0.6213 0.53671
3134.589 0.5562 0.6435 0.6126 0.54004 0.4015 0.3992 0.44375 0.3664 0.332 0.318
3153.879 0.277 0.3767 0.3978 0.3 0.3554 0.3819 0.49196 0.46398 0.189 0.235
3173.169 0.326 0.258 0.227 0.406 0.45982 0.336 0.23 0.252 0.259 0.203
3192.458 0.342 0.294 0.191 0.359 0.52194 0.39 0.244 0.291 0.296 0.217
3211.748 0.341 0.4224 0.28 0.241 0.4102 0.5866 0.5539 0.54162 0.48807 0.258
3231.038 0.267 0.307 0.17 0.171 0.154 0.055 0.167 0.3996 0.4868 0.43788
3250.328 0.3491 0.3705 0.48051 0.4103 0.3688 0.267 0.162 0.309 0.3685 0.316
3269.617 0.3866 0.4123 0.331 0.319 0.46521 0.47435 0.3509 0.4594 0.54304 0.3659
3288.907 0.3 0.44363 0.4086 0.3784 0.3743 0.4106 0.48136 0.48584 0.52051 0.4789
3308.197 0.4329 0.4235 0.3633 0.242 0.189 0.095 0.16 0.273 0.259 0.239
3327.487 0.154 0.262 0.3577 0.239 0.173 0.225 0.3709 0.311 0.337 0.46083
3346.777 0.4123 0.288 0.203 0.4089 0.381 0.093 0 0.23 0.3472 0.247
3366.066 0.258 0.279 0.243 0.241 0.3743 0.51158 0.4073 0.334 0.44228 0.5908
3385.356 0.53446 0.3678 0.3752 0.3574 0.4006 0.433 0.3923 0.327 0.221 0.359
3404.646 0.45995 0.342 0.3759 0.4049 0.4268 0.4138 0.342 0.427 0.48743 0.48433
3423.936 0.46027 0.34 0.317 0.4294 0.4132 0.4046 0.3888 0.24 0.216 0.267
3443.225 0.258 0.3892 0.45878 0.331 0.3496 0.47563 0.334 0.314 0.5989 0.5655
3462.515 0.4087 0.4274 0.3647 0.244 0.274 0.3909 0.45009 0.3984 0.3803 0.325
3481.805 0.3925 0.54663 0.4023 0.304 0.3697 0.5498 0.51503 0.47314 0.50334 0.3562
3501.095 0.347 0.50424 0.7389 0.6897 0.5457 0.6092 0.6642 0.6479 0.52263 0.3986
3520.385 0.5948 0.5473 0.4258 0.4283 0.3672 0.4017 0.35 0.3545 0.322 0.3665
3539.674 0.45844 0.44523 0.4089 0.3911 0.44175 0.5483 0.6785 0.7213 0.6525 0.5755
3558.964 0.43802 0.47049 0.50847 0.50956 0.6796 0.8886 0.8855 0.7206 0.54435 0.6854
3578.254 0.8143 0.6395 0.6473 0.8127 0.9203 0.8708 0.8598 0.7803 0.816 0.8748
3597.544 0.8459 0.9319 1.0196 1.0562 1.2206 1.4182 1.447 1.3895 1.3518 1.457
3616.833 1.447 1.233 1.1947 1.2239 1.1781 1.1871 1.1719 0.9272 0.719 0.8515
3636.123 0.7702 0.7174 0.7446 0.6388 0.5837 0.54152 0.6151 0.50696 0.46399 0.6405
3655.413 0.6371 0.51098 0.45722 0.6312 0.728 0.568 0.4183 0.292 0.6013 0.9398
3674.703 0.8115 0.47968 0.3 0.4144 0.53084 0.50728 0.51172 0.53007 0.53537 0.6836
3693.993 0.6762 0.7522 0.8102 0.5982 0.4332 0.6545 0.7141 0.52599 0.5594 0.50779
3713.282 0.4166 0.52509 0.7289 0.47669 0.316 0.325 0.253 0.4281 0.54637 0.6687
3732.572 0.7971 0.5539 0.3529 0.4169 0.3505 0.3519 0.48098 0.5886 0.7704 0.6976
3751.862 0.446622 0.49509 0.4241 0.322 0.51975 0.48481 0.3925 0.44185 0.4266 0.294
3771.152 0.279 0.582 0.6297 0.6221 0.7373 0.7206 0.7016 0.7472 0.72 0.52035
3790.441 0.48206 0.6081 0.5595 0.50835 0.53513 0.47702 0.3795 0.27 0.277 0.258
3809.731 0.3775 0.6353 0.5597 0.47625 0.6412 0.52253 0.44575 0.51887 0.48552 0.54163
3829.021 0.54099 0.31 0.261 0.46419 0.3992 0.4331 0.4203 0.4065 0.53162 0.50103
3848.311 0.4191 0.4043 0.4272 0.4323 0.5596 0.50645 0.334 0.4301 0.4098 0.326
3867.601 0.48056 0.52371 0.5588 0.54245 0.53692 0.5606 0.48284 0.4414 0.49546 0.52479
3886.890 0.3492 0.54537 0.848 0.5547 0.48237 0.6097 0.5537 0.7138 0.858 0.6992
3906.180 0.6069 0.6148 0.5306 0.48408 0.313 0.3867 0.47494 0.3478 0.48819 0.454445
3925.470 0.3818 0.53604 0.5818 0.50109 0.4276 0.51176 0.51784 0.6316 0.7303 0.6138
3944.760 0.5625 0.64 0.7394 0.6999 0.7355 0.7546 0.7384 0.647 0.51619 0.54167
3964.049 0.6026 0.5806 0.5495 0.448814 0.3887 0.5748 0.5648 0.5529 0.7075 0.5607
3983.339 0.4141 0.575 0.49815 0.449448 0.5815 0.5561 0.5911 0.6361 0.5926 0.50662
##END=
