##TITLE=p-Nonyloxybenzoic acid
##JCAMP-DX=4.24
##DATA TYPE=INFRARED SPECTRUM
##ORIGIN=EPA-IR VAPOR PHASE LIBRARY
##OWNER=SRD/NIST
Collection (C) 2018 copyright by the U.S. Secretary of Commerce
on behalf of the United States of America. All rights reserved.
##CAS REGISTRY NO=15872-43-2
##MOLFORM=C 16 H 24 O 3
##$NIST SOURCE=MSDC-IR
##STATE=gas
##XUNITS=1/CM
##YUNITS=ABSORBANCE
##XFACTOR=1.
##YFACTOR=0.001
##DELTAX=1.92898
##FIRSTX=549.8
##LASTX=4000.7
##FIRSTY=2.7346
##MAXX=4000.7
##MINX=549.759
##MAXY=0.0596146
##MINY=0
##NPOINTS=1790
##XYDATA=(X++(Y..Y))
549.759 2.7346 2.8646 3.2246 3.2646 2.8746 2.9046 3.3946 3.5346 3.5646 3.8146
569.049 4.1946 4.2446 3.8446 3.7346 3.4346 3.3246 3.2546 3.2446 3.4046 3.3546
588.339 3.3846 3.6646 3.9346 4.0146 4.2546 4.0146 3.8446 4.1146 4.3046 4.5946
607.628 4.8846 5.3746 6.1846 6.9446 7.4746 7.7346 7.0346 5.7346 4.8046 3.9946
626.918 3.2646 2.8246 2.7346 2.6046 2.2846 1.9346 1.5046 1.4146 1.3446 1.0676
646.208 0.8257 0.6814 0.7471 0.9476 1.0796 1.0221 0.8902 0.7426 0.6249 0.7174
665.498 0.8239 0.7986 0.6487 0.5342 0.7395 0.8978 1.0703 1.5446 1.8446 1.9646
684.787 2.1946 2.4546 2.8846 3.2946 3.4346 3.7146 3.9846 3.8746 3.7246 3.6846
704.077 3.6946 3.6846 3.4746 3.1746 3.0546 3.0246 2.8046 2.7246 2.7146 2.4746
723.367 2.1246 1.8346 1.6846 1.6546 1.6846 1.5846 1.5346 1.6746 1.6446 1.4646
742.657 1.4546 1.4646 1.6046 1.7746 2.0246 2.3246 2.4646 2.6746 3.0646 3.4746
761.947 3.8746 4.5046 5.2946 5.8946 6.3046 6.3946 6.0546 5.3046 4.4146 3.6546
781.236 3.2646 3.0746 2.7946 2.6446 2.4746 2.2346 2.0046 1.9546 2.0746 2.1246
800.526 1.8746 1.9146 1.8846 1.4246 1.3546 1.3846 1.4546 1.4746 1.5446 1.5446
819.816 1.3446 1.4246 1.4446 1.4046 1.6346 1.8546 1.9446 2.0646 2.4546 2.7546
839.106 3.0446 3.5246 3.9046 4.4546 4.6546 4.3946 3.9846 3.4346 2.9346 2.4746
858.395 2.1046 1.9646 1.8446 1.5846 1.3946 1.3146 1.3746 1.2346 1.0638 1.1346
877.685 1.1746 1.1446 1.1346 1.1746 1.038 0.9364 1.1646 1.0791 1.004 1.0639
896.975 0.9809 1.1046 1.2046 1.1846 1.1746 1.1346 1.1946 1.3846 1.4146 1.4246
916.265 1.5646 1.5346 1.4346 1.5646 1.5746 1.5846 1.4546 1.2146 1.3546 1.4646
935.555 1.5946 1.5246 1.3646 1.4246 1.3846 1.3046 1.1446 1.1146 1.3046 1.3346
954.844 1.4346 1.5346 1.3246 1.3846 1.6046 1.7546 1.8146 1.8646 2.0446 2.1946
974.134 2.3146 2.4046 2.5546 2.7946 3.0546 3.2346 3.2146 3.2246 3.5646 3.8046
993.424 3.7046 3.6846 3.8546 4.1446 4.5346 4.7346 5.0946 5.7746 6.1446 6.1246
1012.714 6.0046 5.9146 5.9146 6.0046 6.3046 6.6146 6.4846 6.3246 6.2946 6.4046
1032.003 6.7046 6.5846 6.4646 6.3746 6.3546 6.5746 6.6146 6.9646 6.9546 7.1246
1051.293 7.3446 7.1346 7.2546 7.5946 8.4346 9.3146 10.0546 11.3946 13.1246 14.8246
1070.583 16.7946 19.0646 21.6546 24.0446 25.1746 24.9146 23.7146 21.0946 17.1746 13.2846
1089.873 10.3246 8.2746 7.4246 6.9546 6.0046 5.1346 4.5446 4.1746 3.9146 3.4546
1109.163 3.1646 3.2946 3.3646 3.7446 3.6546 3.0646 3.1446 3.1546 3.1946 3.1946
1128.452 2.6546 2.6446 2.9346 3.0946 3.5646 4.1846 4.6146 5.1746 5.9346 6.6646
1147.742 7.7046 9.0246 11.1846 14.8146 19.7746 26.1246 33.7046 40.4946 43.8046 42.4846
1167.032 37.1046 29.5746 22.4946 17.3246 13.9746 12.2146 11.3546 11.4546 12.1646 12.8546
1186.322 13.3746 13.4046 12.5946 11.2046 9.4646 8.0146 7.3646 6.8446 6.3846 6.5546
1205.611 6.4746 5.9646 6.2346 6.7346 6.9946 7.3246 7.8046 8.6746 9.2746 9.8646
1224.901 10.9146 11.7446 12.8446 14.0946 15.4146 16.9146 18.5246 20.3546 22.4046 24.6146
1244.191 26.8346 28.9946 30.9746 32.2446 32.5346 31.5846 29.5446 26.8046 23.7246 20.6746
1263.481 17.9246 15.5646 13.4246 12.0046 10.8146 9.9746 9.2946 8.5546 8.1946 7.8246
1282.771 7.5446 7.5846 7.7046 7.9546 8.4546 8.9746 9.5246 10.1546 10.6846 10.9046
1302.060 10.8446 10.6346 10.1246 9.5646 9.1446 8.8546 8.8546 9.0146 9.1346 9.3246
1321.350 9.6346 9.9146 10.1946 10.4246 10.4846 10.1846 9.5846 8.8146 7.9146 7.1446
1340.640 6.6346 6.3146 6.1546 6.1446 6.3646 6.8146 7.4546 8.3246 9.4546 10.8346
1359.930 12.1446 13.0146 13.1946 12.5646 11.1346 9.3646 7.7546 6.4946 5.5746 4.9746
1379.219 4.5746 4.3346 4.2146 4.0646 3.8946 3.7346 3.5046 3.2446 3.0146 2.7746
1398.509 2.5846 2.4446 2.3846 2.4246 2.4746 2.5846 2.7846 3.0346 3.2646 3.4746
1417.799 3.6646 3.6646 3.5246 3.3046 2.9746 2.6846 2.4446 2.3046 2.2446 2.2246
1437.089 2.3346 2.4446 2.4746 2.5946 2.7346 2.8546 3.0646 3.2346 3.3646 3.5046
1456.378 3.6846 3.9346 4.1246 4.2846 4.4546 4.6946 5.0446 5.3546 5.5346 5.5846
1475.668 5.3446 4.8646 4.3146 3.8346 3.4346 3.1446 3.0946 3.1346 3.2946 3.6546
1494.958 4.1746 5.0146 6.1846 7.6546 9.4646 11.3846 13.3546 14.7846 14.9446 13.8046
1514.248 11.7146 9.2746 7.1246 5.5346 4.3046 3.4946 2.9146 2.5146 2.2646 2.0546
1533.538 1.9046 1.8346 1.7646 1.6846 1.6646 1.6946 1.7346 1.7046 1.7146 1.7546
1552.827 1.7946 1.8546 1.7846 1.8046 2.0046 2.2746 2.5846 2.8546 3.2246 3.6546
1572.117 3.9346 4.2346 4.7046 5.1846 5.5746 5.8946 6.2646 6.6946 7.1946 7.9046
1591.407 8.9746 10.4346 12.2746 14.4946 17.0046 19.5146 21.8846 23.5546 23.9146 22.7746
1610.697 20.2846 17.0146 13.8046 10.9646 8.7746 7.1846 5.8446 4.7846 3.9746 3.3146
1629.986 2.7846 2.4246 2.1046 1.8046 1.6746 1.5746 1.5246 1.4546 1.3146 1.2546
1649.276 1.1946 1.1446 1.1346 1.2046 1.1346 1.0555 1.0614 1.0689 1.1146 1.1146
1668.566 1.0814 1.0688 1.0598 1.094 1.1546 1.1246 1.0946 1.1246 1.1746 1.3446
1687.856 1.4846 1.5446 1.6346 1.6546 1.6046 1.5846 1.5946 1.7246 1.8946 2.0046
1707.146 2.1246 2.3346 2.5546 2.6846 2.8146 2.9546 3.0546 3.1946 3.4146 3.6846
1726.435 3.9946 4.4746 5.1246 5.8846 6.8246 8.0446 9.4546 11.2946 13.7046 17.0346
1745.725 21.4746 27.6146 35.7846 45.6746 54.8746 59.6146 57.9646 50.5446 39.5246 29.0446
1765.015 21.6146 16.4546 12.8546 10.4146 8.6846 7.3946 6.3246 5.4946 4.8146 4.1846
1784.305 3.6646 3.1946 2.7846 2.4346 2.1946 2.0746 1.9446 1.8246 1.7246 1.6246
1803.594 1.5946 1.5446 1.5046 1.4946 1.4646 1.4146 1.3946 1.3946 1.3846 1.3446
1822.884 1.2746 1.1646 1.0655 1.007 0.9359 0.8261 0.7746 0.7076 0.6702 0.6836
1842.174 0.6727 0.694 0.6416 0.5492 0.5417 0.5928 0.5784 0.4913 0.4675 0.4981
1861.464 0.4847 0.4743 0.5232 0.5774 0.5554 0.5169 0.5667 0.6389 0.598 0.615
1880.754 0.6672 0.6683 0.6938 0.6671 0.6693 0.7068 0.7138 0.7179 0.7341 0.7343
1900.043 0.7553 0.8102 0.8426 0.8679 0.8572 0.859 0.8473 0.9074 0.9485 0.8946
1919.333 0.892 0.8399 0.8159 0.7771 0.7275 0.7557 0.6877 0.6192 0.6255 0.6946
1938.623 0.697 0.6371 0.6598 0.609 0.555 0.5726 0.639 0.6995 0.6768 0.6306
1957.913 0.6548 0.6665 0.6749 0.7222 0.7041 0.631 0.618 0.6822 0.7171 0.6783
1977.202 0.632 0.6572 0.6704 0.6482 0.6058 0.5728 0.5824 0.5701 0.59 0.5995
1996.492 0.5937 0.6039 0.6094 0.5992 0.5708 0.5509 0.561 0.5643 0.545 0.597
2015.782 0.6235 0.5801 0.5364 0.5563 0.6027 0.6143 0.6346 0.633 0.6159 0.6452
2035.072 0.6073 0.5714 0.5885 0.5402 0.5626 0.6167 0.5829 0.5617 0.6074 0.6128
2054.362 0.6036 0.6231 0.6601 0.6594 0.6359 0.5993 0.5458 0.5394 0.5086 0.486
2073.651 0.481 0.5697 0.6405 0.6323 0.5968 0.5707 0.5757 0.5083 0.4961 0.5309
2092.941 0.5359 0.5025 0.5091 0.4917 0.4682 0.5063 0.5394 0.5436 0.4887 0.5061
2112.231 0.5262 0.4586 0.4258 0.4452 0.4133 0.4171 0.5018 0.5197 0.4459 0.4233
2131.521 0.4193 0.4395 0.4878 0.4886 0.4815 0.4764 0.4816 0.4537 0.4723 0.5317
2150.810 0.4772 0.4951 0.5944 0.597 0.5847 0.543 0.498 0.491 0.4943 0.5336
2170.100 0.531 0.4718 0.4909 0.5276 0.4846 0.5004 0.4739 0.4503 0.4862 0.4508
2189.390 0.4831 0.4699 0.3774 0.4286 0.466 0.4216 0.4079 0.4261 0.4308 0.4169
2208.680 0.4523 0.4192 0.3808 0.4182 0.435 0.4162 0.4423 0.5258 0.5515 0.473
2227.970 0.4329 0.4757 0.4387 0.3844 0.3836 0.4212 0.5194 0.5592 0.5129 0.4962
2247.259 0.4699 0.44 0.473 0.4212 0.377 0.3824 0.387 0.4317 0.4468 0.4786
2266.549 0.4319 0.4138 0.5343 0.5039 0.4216 0.4056 0.4286 0.4341 0.394 0.4432
2285.839 0.4884 0.512 0.4728 0.369 0.3634 0.4307 0.4757 0.4929 0.4512 0.415
2305.129 0.4614 0.4816 0.5041 0.5208 0.5301 0.5032 0.4518 0.5096 0.5089 0.4292
2324.418 0.4454 0.4661 0.443 0.4808 0.481 0.4243 0.4217 0.3557 0.3297 0.4658
2343.708 0.5147 0.5013 0.5483 0.4863 0.4065 0.4686 0.5054 0.4647 0.4391 0.4171
2362.998 0.4506 0.443 0.4058 0.4562 0.509 0.467 0.3972 0.4994 0.5094 0.5175
2382.288 0.6159 0.5819 0.5364 0.5354 0.4893 0.4521 0.4846 0.5361 0.5571 0.5016
2401.578 0.4849 0.6104 0.7013 0.6226 0.6034 0.594 0.564 0.5833 0.5803 0.6026
2420.867 0.6401 0.6667 0.6722 0.629 0.5861 0.6215 0.6417 0.5961 0.4859 0.5343
2440.157 0.614 0.5986 0.6161 0.5889 0.6037 0.6151 0.5753 0.5965 0.6121 0.5582
2459.447 0.5797 0.6049 0.5945 0.6037 0.6153 0.5984 0.5347 0.5055 0.5256 0.5059
2478.737 0.5062 0.5974 0.6443 0.5993 0.6071 0.6478 0.6452 0.6351 0.589 0.5884
2498.026 0.5752 0.5648 0.5508 0.6059 0.6631 0.6244 0.607 0.5776 0.567 0.5849
2517.316 0.6012 0.6421 0.6969 0.6696 0.5684 0.5763 0.6029 0.5847 0.6437 0.6537
2536.606 0.6396 0.6919 0.7075 0.7181 0.7007 0.71 0.7411 0.7433 0.7809 0.7665
2555.896 0.854 0.8435 0.8033 0.8769 0.8383 0.7648 0.7572 0.7228 0.6964 0.7325
2575.186 0.7016 0.7018 0.7186 0.6981 0.6577 0.6391 0.6192 0.5927 0.703 0.7223
2594.475 0.6468 0.6515 0.675 0.7241 0.7012 0.6739 0.7277 0.6928 0.678 0.693
2613.765 0.6872 0.7116 0.6485 0.5599 0.6138 0.6783 0.714 0.6838 0.6057 0.5339
2633.055 0.5696 0.6381 0.5984 0.6229 0.6532 0.6525 0.6303 0.6371 0.6592 0.6531
2652.345 0.684 0.7182 0.7344 0.6898 0.6536 0.6369 0.6625 0.7136 0.7111 0.7215
2671.634 0.6451 0.6466 0.7837 0.8258 0.7254 0.6699 0.7037 0.7061 0.7165 0.7851
2690.924 0.8255 0.7808 0.8076 0.7773 0.6597 0.6956 0.7728 0.7744 0.679 0.651
2710.214 0.6095 0.5836 0.6889 0.7426 0.7203 0.6502 0.6921 0.7216 0.7176 0.7478
2729.504 0.7891 0.8883 0.8842 0.8601 0.8891 0.887 0.9077 0.9676 0.9328 0.8865
2748.794 0.9872 1.0365 1.0222 1.0345 1.0223 0.9581 0.9654 0.9922 0.9619 0.9905
2768.083 1.0165 1.0426 1.1046 1.0871 1.0221 1.0121 1.0883 1.0812 1.0295 0.993
2787.373 1.0642 1.1746 1.1146 1.0894 1.1446 1.1746 1.1146 1.1646 1.1946 1.1746
2806.663 1.2546 1.4246 1.4746 1.4346 1.4946 1.5846 1.6646 1.6946 1.7446 1.8846
2825.953 2.0046 2.1146 2.1846 2.3146 2.5246 2.5946 2.7646 3.1446 3.5046 3.7546
2845.242 4.1246 4.6446 5.2846 5.9946 6.8246 7.7846 8.7046 9.7346 10.7246 11.2446
2864.532 11.5446 11.6646 11.5546 11.2946 10.8946 10.4146 10.1246 9.9446 9.8246 9.5846
2883.822 9.2046 8.9346 8.8546 8.7546 8.6246 8.5146 8.4946 8.6746 8.9146 9.3846
2903.112 9.8846 10.4346 11.2546 12.0546 12.9646 14.0346 15.1646 16.4946 17.9246 19.5046
2922.401 21.3446 23.3546 25.3446 27.1446 28.6246 29.6946 30.2046 30.0446 29.4146 28.3746
2941.691 26.9746 25.5646 24.1046 22.4346 20.7946 19.4346 18.2146 17.1846 16.3146 15.6046
2960.981 15.2646 14.9846 14.6546 14.3246 13.8146 13.0146 11.7846 10.4246 9.0646 7.8446
2980.271 6.9246 6.0946 5.3046 4.6746 4.2446 3.9146 3.5946 3.1746 2.8646 2.6746
2999.561 2.5246 2.4646 2.3746 2.2446 2.0946 2.0546 1.9646 1.8046 1.7746 1.7846
3018.850 1.7246 1.6846 1.6146 1.4446 1.3946 1.3546 1.2646 1.3146 1.3146 1.2446
3038.140 1.2846 1.3246 1.2746 1.2746 1.2346 1.1946 1.3846 1.4746 1.2746 1.2446
3057.430 1.3546 1.3246 1.3546 1.3046 1.1846 1.2046 1.2946 1.3946 1.4946 1.6346
3076.720 1.6646 1.6646 1.5746 1.4646 1.4746 1.3346 1.2446 1.2746 1.2046 1.0946
3096.009 1.0747 1.1546 1.2146 1.2046 1.0919 1.0072 1.081 1.0503 0.9523 0.9472
3115.299 0.9215 0.8213 0.7946 0.8788 0.8926 0.8897 0.8525 0.8288 0.6933 0.4835
3134.589 0.5393 0.6121 0.6254 0.6612 0.7365 0.7313 0.6789 0.5997 0.6391 0.7758
3153.879 0.6803 0.5663 0.5239 0.5204 0.5919 0.6711 0.6698 0.5894 0.538 0.3559
3173.169 0.4088 0.5465 0.5741 0.4822 0.3505 0.4888 0.5659 0.4437 0.3661 0.3802
3192.458 0.2866 0.4285 0.6122 0.5961 0.4996 0.3895 0.3815 0.3635 0.4949 0.5488
3211.748 0.3814 0.3023 0.3799 0.3809 0.2887 0.2952 0.3032 0.3342 0.403 0.3883
3231.038 0.3528 0.4037 0.4598 0.3783 0.3589 0.3594 0.3981 0.591 0.621 0.4436
3250.328 0.3259 0.336 0.3759 0.3794 0.3111 0.2846 0.2121 0.2473 0.3659 0.3545
3269.617 0.3484 0.462 0.3838 0.2255 0.213 0.2226 0.3925 0.4742 0.3965 0.2996
3288.907 0.2631 0.2928 0.3423 0.4003 0.4896 0.5812 0.4896 0.3148 0.2825 0.2914
3308.197 0.229 0.2811 0.3667 0.4186 0.5363 0.4586 0.2984 0.2882 0.4088 0.4877
3327.487 0.3485 0.2356 0.2143 0.3067 0.452 0.3486 0.2528 0.2283 0.3305 0.4972
3346.777 0.5209 0.4784 0.4944 0.3444 0.2295 0.3409 0.3819 0.4369 0.4545 0.3023
3366.066 0.17354 0.2381 0.3083 0.5181 0.6581 0.4317 0.3574 0.4727 0.5565 0.492
3385.356 0.18615 0.2564 0.3566 0.2279 0.17531 0.19157 0.3784 0.3371 0.2295 0.4296
3404.646 0.4773 0.4114 0.3171 0.2832 0.4012 0.4269 0.3543 0.3927 0.5322 0.4733
3423.936 0.216 0.1775 0.3532 0.4234 0.4309 0.2747 0.1378 0.17104 0.2854 0.3749
3443.225 0.4329 0.492 0.4783 0.4468 0.4293 0.3582 0.3079 0.3877 0.4055 0.3635
3462.515 0.4795 0.465 0.2927 0.3858 0.4365 0.3138 0.3768 0.5225 0.502 0.5578
3481.805 0.5783 0.5241 0.6208 0.5274 0.455 0.5602 0.5857 0.4898 0.414 0.408
3501.095 0.4214 0.453 0.5826 0.6253 0.4246 0.2292 0.2741 0.3834 0.4171 0.4451
3520.385 0.367 0.4069 0.4556 0.4145 0.3224 0.2831 0.2887 0.18618 0.221 0.2489
3539.674 0.2655 0.4168 0.445 0.3258 0.3699 0.4541 0.4371 0.4661 0.5138 0.6359
3558.964 0.7995 0.9078 1.0362 1.1646 1.2946 1.7546 2.4646 3.1246 4.1746 6.1046
3578.254 8.6946 11.9146 15.4246 18.0146 18.4246 16.3546 12.5946 8.3546 5.1846 3.5146
3597.544 2.3546 1.5346 1.1346 0.8808 0.705 0.6721 0.6895 0.6571 0.5661 0.4697
3616.833 0.4074 0.2992 0.407 0.4995 0.4515 0.4584 0.4922 0.551 0.5992 0.4843
3636.123 0.3553 0.4424 0.4806 0.4251 0.4652 0.3835 0.312 0.2465 0.255 0.3008
3655.413 0.1696 0.11846 0.2705 0.4144 0.4483 0.4579 0.3456 0.2414 0.2673 0.3324
3674.703 0.3223 0.1737 0.10153 0.15811 0.2496 0.3304 0.2755 0.1999 0.2021 0.2072
3693.993 0.2633 0.3096 0.2464 0.18927 0.2612 0.3386 0.2431 0.2214 0.2189 0.10427
3713.282 0.2093 0.2888 0.3278 0.3115 0.216 0.2221 0.3041 0.3349 0.11347 0.0041
3732.572 0.0579 0.08794 0.19242 0.2715 0.2582 0.168 0.1384 0.2097 0.2981 0.2284
3751.862 0.10822 0.2934 0.3359 0.2685 0.2606 0.2296 0.2689 0.3177 0.3663 0.4229
3771.152 0.5162 0.4647 0.3201 0.2804 0.18859 0.2192 0.2888 0.2071 0.1967 0.2061
3790.441 0.3302 0.322 0.16553 0.2709 0.3669 0.2141 0.16722 0.2919 0.2274 0.2514
3809.731 0.3495 0.377 0.3491 0.2304 0.17399 0.18196 0.2658 0.2861 0.2767 0.3262
3829.021 0.3852 0.3029 0.3263 0.3456 0.14991 0.10555 0.16728 0.18964 0.081 0.2374
3848.311 0.4297 0.3816 0.3417 0.3252 0.325 0.2696 0.3208 0.3942 0.3549 0.2457
3867.601 0.10861 0.208 0.4042 0.3024 0.19229 0.11961 0.13843 0.0814 0.04 0.1661
3886.890 0.16879 0.12662 0.2367 0.4122 0.4959 0.5294 0.4236 0.2869 0.18206 0
3906.180 0.0605 0.2635 0.2685 0.1897 0.3 0.4813 0.3569 0.2749 0.2729 0.2311
3925.470 0.2365 0.2043 0.2804 0.3372 0.3087 0.2552 0.2973 0.4409 0.3679 0.3779
3944.760 0.4849 0.3952 0.3742 0.3112 0.3497 0.4753 0.4342 0.3623 0.17894 0.18136
3964.049 0.3128 0.4112 0.3406 0.4235 0.5183 0.4008 0.3035 0.3249 0.416 0.4288
3983.339 0.5026 0.4988 0.3978 0.3635 0.3953 0.4521 0.3771 0.3276 0.4824 0.3725
##END=
