##TITLE=1-Allyl-2-methylbenzene
##JCAMP-DX=4.24
##DATA TYPE=INFRARED SPECTRUM
##ORIGIN=NIST Mass Spectrometry Data Center
##OWNER=NIST Standard Reference Data Program
Collection (C) 2018 copyright by the U.S. Secretary of Commerce
on behalf of the United States of America. All rights reserved.
##CAS REGISTRY NO=1587-04-8
##MOLFORM=C 10 H 12
##$NIST SOURCE=MSDC-IR
##SPECTROMETER/DATA SYSTEM=HP-GC/MS/IRD
##STATE=gas
##XUNITS=1/CM
##YUNITS=ABSORBANCE
##XFACTOR=1.0
##YFACTOR=0.000000800
##DELTAX=4.0
##FIRSTX=550.0
##LASTX=3846.0
##FIRSTY=0.000493
##MAXX=3846
##MINX=550
##MAXY=0.008
##MINY=0
##NPOINTS=825
##XYDATA=(X++(Y..Y))
550.0 616 484 376 425 497 321 238 254 157 93
590.0 115 136 132 92 1 18 118 177 308 390
630.0 539 755 808 812 812 780 613 350 242 362
670.0 389 260 160 153 173 99 164 368 429 523
710.0 820 1311 2242 3656 5145 6604 8902 10000 8106 6365
750.0 5119 3750 2805 2280 2042 1796 1396 1003 755 570
790.0 422 299 266 271 212 203 184 192 140 229
830.0 366 440 457 446 486 456 501 558 526 551
870.0 639 694 740 859 1026 1292 1736 2334 3032 3803
910.0 4487 4714 4550 4141 3355 2561 1970 1544 1278 1099
950.0 1020 986 927 886 945 1123 1337 1587 1926 2310
990.0 2517 2497 2331 1980 1558 1245 1053 915 848 857
1030.0 862 877 982 1031 1011 999 953 832 673 552
1070.0 484 447 399 401 430 454 450 473 563 580
1110.0 492 456 458 449 429 406 349 248 233 195
1150.0 145 200 232 234 277 354 401 362 355 425
1190.0 415 347 357 396 379 378 367 375 381 267
1230.0 189 193 175 128 131 158 177 187 177 216
1270.0 292 300 316 381 473 515 535 531 472 429
1310.0 383 358 351 283 235 228 286 393 328 266
1350.0 257 268 363 455 402 426 571 662 707 811
1390.0 890 951 951 886 945 983 1064 1237 1265 1311
1430.0 1491 1814 2075 2226 2470 2606 2818 2899 2698 2605
1470.0 2642 2725 2687 2775 3053 3157 3028 2793 2352 2027
1510.0 1576 1075 879 748 600 516 499 578 629 525
1550.0 450 553 713 520 389 463 527 569 578 683
1590.0 814 921 970 1015 1028 1024 1061 1105 1232 1494
1630.0 1812 2177 2282 2139 1861 1539 1162 739 545 499
1670.0 517 526 515 592 550 381 455 596 523 383
1710.0 333 428 485 326 215 295 389 291 220 279
1750.0 348 288 236 237 280 355 342 304 354 382
1790.0 445 491 458 500 458 439 497 567 655 748
1830.0 752 710 692 654 548 395 295 258 251 302
1870.0 318 250 241 245 270 327 343 372 390 395
1910.0 383 361 357 331 288 298 325 341 344 280
1950.0 202 166 124 100 105 99 100 120 127 104
1990.0 98 50 47 63 27 13 21 55 45 38
2030.0 38 45 73 73 49 43 39 28 45 53
2070.0 35 30 36 32 51 74 60 46 34 31
2110.0 29 28 38 19 10 27 48 23 7 39
2150.0 47 50 50 31 17 10 21 44 29 28
2190.0 35 32 54 39 19 43 52 54 74 75
2230.0 73 65 41 36 29 7 23 40 55 75
2270.0 72 52 38 36 34 43 63 76 87 101
2310.0 138 171 183 197 194 200 189 170 170 157
2350.0 150 185 221 228 218 196 156 133 103 54
2390.0 30 45 61 44 33 33 38 74 84 75
2430.0 68 63 78 91 93 79 64 80 67 53
2470.0 56 44 61 70 82 91 74 62 41 10
2510.0 16 50 39 42 52 42 63 78 69 45
2550.0 55 60 44 47 76 93 85 71 91 112
2590.0 93 82 50 48 65 72 85 86 73 71
2630.0 91 100 83 68 81 65 64 84 74 73
2670.0 69 79 79 58 60 68 85 106 108 107
2710.0 116 114 135 181 186 172 197 222 216 208
2750.0 233 240 205 173 139 148 175 187 182 197
2790.0 206 212 221 238 261 278 330 385 448 526
2830.0 609 731 887 1068 1234 1410 1613 1839 1999 2135
2870.0 2261 2338 2389 2426 2462 2501 2597 2780 3003 3252
2910.0 3612 4017 4390 4701 4887 4977 4976 4819 4566 4251
2950.0 3890 3551 3300 3210 3245 3321 3484 3649 3754 3759
2990.0 3625 3479 3443 3711 4234 4844 5510 5937 5997 5733
3030.0 5254 4674 4134 3800 3774 4033 4502 5073 5655 6144
3070.0 6467 6573 6432 6082 5518 4720 3857 3042 2318 1761
3110.0 1382 1107 896 758 605 509 499 454 404 372
3150.0 338 327 338 325 272 219 241 259 206 189
3190.0 188 179 170 166 135 114 93 95 98 76
3230.0 86 51 79 149 132 86 93 108 75 73
3270.0 92 113 146 145 115 100 83 63 39 68
3310.0 96 81 64 51 41 55 62 55 53 41
3350.0 41 52 79 71 34 26 16 11 46 50
3390.0 35 29 76 103 87 84 74 80 21 22
3430.0 43 28 28 52 72 45 51 51 41 51
3470.0 51 62 77 87 52 40 45 65 84 29
3510.0 48 63 35 168 177 34 48 33 48 116
3550.0 91 56 17 53 239 210 56 34 31 133
3590.0 141 99 121 121 174 200 165 166 58 125
3630.0 203 13 16 80 182 244 112 58 40 88
3670.0 164 182 114 13 71 107 40 41 41 62
3710.0 179 135 9 72 144 133 255 216 225 330
3750.0 295 212 109 0 8 11 8 23 11 35
3790.0 39 34 70 63 47 51 81 121 68 12
3830.0 36 95 163 148 63
##END=
