##TITLE=p-Pentyloxybenzoic acid
##JCAMP-DX=4.24
##DATA TYPE=INFRARED SPECTRUM
##ORIGIN=EPA-IR VAPOR PHASE LIBRARY
##OWNER=SRD/NIST
Collection (C) 2018 copyright by the U.S. Secretary of Commerce
on behalf of the United States of America. All rights reserved.
##CAS REGISTRY NO=15872-41-0
##MOLFORM=C 12 H 16 O 3
##$NIST SOURCE=MSDC-IR
##STATE=gas
##XUNITS=1/CM
##YUNITS=ABSORBANCE
##XFACTOR=1.
##YFACTOR=0.001
##DELTAX=1.92898
##FIRSTX=549.8
##LASTX=4000.7
##FIRSTY=7.9089
##MAXX=4000.7
##MINX=549.759
##MAXY=0.171939
##MINY=0
##NPOINTS=1790
##XYDATA=(X++(Y..Y))
549.759 7.9089 8.3689 8.2789 8.4589 9.2189 9.8289 10.5989 11.2689 11.9489 12.7889
569.049 12.8089 12.4089 11.8689 11.1189 10.3889 10.0089 9.7989 9.7589 9.7089 10.1589
588.339 10.8589 10.9389 11.3289 11.8689 12.0989 12.2589 12.2889 12.2789 12.7189 13.7089
607.628 14.9489 16.9789 19.6089 21.7489 22.8889 22.6689 20.9489 17.8489 14.4189 11.4489
626.918 9.3089 8.1489 7.5289 7.0289 6.5389 6.0689 5.3789 4.4789 3.5189 2.9289
646.208 2.6389 2.3489 2.1189 1.7889 1.6489 1.6389 1.6989 1.7589 1.7689 1.9089
665.498 1.9189 1.7689 1.8889 2.1289 2.4089 2.7789 3.1589 3.4489 3.8089 4.6489
684.787 5.5789 6.4389 7.3989 8.3689 9.2089 9.9889 10.4989 10.6189 10.6689 10.4989
704.077 10.2089 9.8989 9.3089 8.6789 8.2189 7.6189 6.9889 6.5589 5.8489 5.3089
723.367 4.8989 4.4489 4.3589 4.2689 4.2689 4.2389 4.1489 4.1789 4.0089 3.8489
742.657 3.8089 3.9889 4.3589 4.4389 4.6389 5.1289 5.7389 6.7889 8.3089 9.9189
761.947 11.4489 13.2589 14.9389 16.3289 17.2589 17.3189 16.6789 15.4189 13.8789 12.3689
781.236 10.9989 9.6289 8.4989 7.6489 6.7489 6.1089 5.5589 5.0689 4.8489 4.6989
800.526 4.6789 4.5489 4.4489 4.5689 4.5189 4.3489 4.4089 4.3389 4.2189 3.9889
819.816 3.9089 4.1089 4.0689 4.1389 4.6589 5.2589 6.0089 6.8389 7.6589 8.6689
839.106 9.7789 10.5789 10.9889 11.4789 11.7789 11.4289 10.7189 10.0289 8.8489 7.4789
858.395 6.5589 5.5589 4.7189 4.0089 3.4789 3.1789 3.0189 2.9589 2.7589 2.6689
877.685 2.6289 2.7889 2.8589 2.6689 2.6289 2.6489 2.6889 2.8689 3.0889 3.1289
896.975 3.2789 3.4189 3.5389 3.8289 3.8089 3.8289 3.9489 3.9189 3.8989 3.8889
916.265 3.8289 3.6589 3.5789 3.4989 3.1589 2.9989 2.9989 2.7689 2.4189 2.2989
935.555 2.2989 2.1389 2.0089 2.0289 2.1389 2.3789 2.4889 2.4289 2.5989 2.6389
954.844 2.6789 2.7289 2.8789 2.9689 2.9389 3.1989 3.4889 3.8589 4.3689 4.9889
974.134 5.5189 6.1689 7.0289 7.9989 8.7789 9.4589 10.4689 11.4389 12.3289 13.2189
993.424 14.0089 14.7289 15.5589 16.3989 17.1089 17.8989 18.7089 19.3889 19.6489 19.7689
1012.714 19.6889 18.9789 18.2589 18.1889 18.1289 18.5689 19.6889 20.5389 20.9189 20.6989
1032.003 20.6489 20.6389 20.3889 20.1789 20.2489 20.4489 20.4589 20.4089 20.3989 20.6189
1051.293 20.3889 20.4889 21.5389 22.3489 23.8889 26.5589 29.8589 34.4689 40.4689 47.1289
1070.583 53.9289 61.3389 68.9189 74.4089 76.8289 75.7589 71.0589 63.2189 53.4789 43.3989
1089.873 34.4789 27.9389 22.7789 18.9489 16.2489 14.0089 13.1589 12.0189 10.8889 11.1089
1109.163 11.0589 10.2989 9.6689 9.4289 9.6289 9.6589 9.2589 9.4689 9.4989 9.3789
1128.452 9.8889 10.2189 10.1489 10.4889 11.2889 12.4489 13.8589 15.2689 17.0389 19.6889
1147.742 23.5389 28.7289 36.1789 46.6689 61.8889 82.1189 103.399 119.959 127.879 125.809
1167.032 113.559 93.8689 72.3289 54.8989 43.9389 37.9989 35.3789 35.3589 36.8589 39.1689
1186.322 40.5789 40.2389 38.5589 35.3789 31.5789 27.5989 24.4689 22.4189 21.0289 20.3489
1205.611 20.1289 20.3889 20.9889 22.2889 23.5589 24.5089 25.8589 27.6389 29.3489 31.1789
1224.901 33.4889 35.8589 39.1789 43.0289 47.1089 52.0589 57.3289 63.2089 69.7789 76.3689
1244.191 82.9089 89.3589 94.7189 98.3589 99.5789 97.2689 91.8589 83.7989 74.1489 63.8989
1263.481 54.2889 46.4189 40.1489 34.9789 31.0889 28.4889 26.2489 24.3289 23.0889 22.4689
1282.771 22.0689 21.9089 22.3989 23.5189 24.8489 26.3389 28.0589 29.9289 31.4789 32.2189
1302.060 32.0189 31.1789 29.8589 28.2989 27.1089 26.3389 26.1589 26.4689 26.9489 27.6189
1321.350 28.4689 29.4389 30.3889 31.0189 30.9289 30.0189 28.2889 26.0189 23.3989 20.8889
1340.640 19.0789 17.9589 17.3389 17.2589 17.8889 19.1889 21.1489 23.8989 27.4289 31.3889
1359.930 35.1689 37.7389 38.2189 36.5789 33.0789 28.1989 23.1889 19.0889 16.1889 14.2189
1379.219 12.9289 12.1789 11.7389 11.4489 11.1489 10.7289 10.1289 9.3989 8.6289 7.8689
1398.509 7.2689 6.8689 6.6589 6.6189 6.8289 7.2889 7.8789 8.5889 9.3889 10.0889
1417.799 10.4789 10.4489 9.9689 9.1989 8.2789 7.2789 6.4489 5.8589 5.5289 5.3889
1437.089 5.2989 5.3089 5.3689 5.4989 5.6389 5.7489 5.9789 6.3289 6.6389 7.0089
1456.378 7.3889 7.7889 8.2889 8.9189 9.6789 10.6389 11.8389 12.9389 13.7389 14.1189
1475.668 13.8589 12.9889 11.7989 10.5289 9.4189 8.6189 8.3289 8.5889 9.3089 10.4189
1494.958 12.0889 14.6089 18.0489 22.4989 28.0289 33.9589 39.5889 43.3489 43.9189 41.4489
1514.248 36.4189 29.8289 23.0689 17.5689 13.4089 10.6289 8.7889 7.4289 6.4489 5.8089
1533.538 5.3189 4.9689 4.8089 4.8089 4.7589 4.6089 4.5789 4.5289 4.4989 4.5889
1552.827 4.7489 4.9889 5.2489 5.6089 6.1689 6.7089 7.3589 8.1289 9.0089 10.1489
1572.117 11.3489 12.5489 13.7589 14.9589 16.1489 17.3589 18.4389 19.6089 21.2489 23.4789
1591.407 26.4389 30.6589 36.2789 43.1089 50.8289 58.7589 65.8089 70.5189 71.5989 68.4789
1610.697 61.8389 52.7689 43.1789 34.2589 27.0889 21.9089 17.7989 14.5589 12.0489 9.9489
1629.986 8.3089 7.0989 6.1389 5.3389 4.7489 4.3489 4.0089 3.8089 3.7289 3.5489
1649.276 3.3189 3.2989 3.2389 3.1389 3.0589 2.9389 2.9089 2.9089 2.8189 2.7889
1668.566 2.7589 2.6789 2.6789 2.7589 2.9089 2.9989 3.0489 3.1989 3.4489 3.6889
1687.856 3.8189 4.0289 4.2289 4.3989 4.5189 4.6489 4.7789 4.9389 5.1189 5.3589
1707.146 5.7489 6.3689 6.9589 7.3889 7.8589 8.2289 8.4689 8.8189 9.3889 10.1589
1726.435 11.1689 12.5189 14.2689 16.5489 19.5089 23.2789 27.9889 34.3489 42.5289 53.4589
1745.725 68.1089 87.7289 112.649 140.409 162.399 171.939 169.279 154.959 127.969 96.6089
1765.015 71.7989 54.4789 42.0789 33.1789 26.5389 21.7489 18.3789 15.8789 13.8889 12.1989
1784.305 10.7289 9.3889 8.2789 7.3689 6.6289 6.0289 5.5189 5.0989 4.7689 4.5389
1803.594 4.3789 4.1989 4.0589 3.9889 3.9989 4.0189 3.9889 3.9189 3.7989 3.7189
1822.884 3.5189 3.2689 3.0689 2.7489 2.4189 2.1689 1.9889 1.8389 1.7089 1.5789
1842.174 1.4589 1.3789 1.2989 1.1989 1.1589 1.1389 1.0889 1.0889 1.0545 1.0413
1861.464 1.049 1.0889 1.1589 1.1389 1.0789 1.0324 1.0628 1.1989 1.2489 1.2089
1880.754 1.2489 1.2889 1.3989 1.4489 1.5289 1.6289 1.6789 1.8089 1.8389 1.9289
1900.043 2.0189 1.9789 2.0189 2.0689 2.1389 2.2289 2.1989 2.1289 2.0889 2.0389
1919.333 1.9989 1.8689 1.7889 1.7989 1.7189 1.6489 1.5989 1.5389 1.5589 1.5189
1938.623 1.4189 1.3289 1.3089 1.2989 1.2589 1.2089 1.2089 1.2189 1.1989 1.1689
1957.913 1.1889 1.3189 1.3789 1.3989 1.4089 1.3689 1.3589 1.3989 1.3889 1.3589
1977.202 1.3589 1.3189 1.3189 1.2689 1.2389 1.2589 1.1789 1.0989 1.1589 1.2089
1996.492 1.2389 1.2789 1.2989 1.2589 1.2189 1.1789 1.1689 1.2089 1.1389 1.0789
2015.782 1.1289 1.1689 1.1889 1.2589 1.2989 1.2389 1.1789 1.1489 1.1589 1.1089
2035.072 1.0789 1.1289 1.1589 1.1389 1.0789 1.0399 1.0889 1.0989 1.0889 1.0452
2054.362 1.0004 1.0033 1.0191 1.0409 0.9942 0.9429 0.9411 0.9549 0.95 0.961
2073.651 1.0418 1.0455 0.9814 1.0027 0.9947 0.9675 0.9721 0.9715 0.9771 0.9509
2092.941 0.9321 0.934 0.9202 0.8631 0.8517 0.8325 0.7943 0.7721 0.791 0.7644
2112.231 0.7234 0.7586 0.7589 0.7198 0.6515 0.6979 0.7911 0.7984 0.7977 0.8318
2131.521 0.8105 0.7989 0.844 0.8138 0.785 0.8098 0.8672 0.8648 0.8729 0.8777
2150.810 0.8318 0.8724 0.8626 0.8304 0.8595 0.8011 0.7384 0.7301 0.7181 0.7073
2170.100 0.624 0.5734 0.6571 0.6847 0.5692 0.511 0.4531 0.4397 0.4546 0.4177
2189.390 0.4465 0.4344 0.4084 0.381 0.3865 0.443 0.5069 0.4952 0.42 0.4679
2208.680 0.4919 0.4966 0.5655 0.5649 0.513 0.4593 0.4648 0.5533 0.5933 0.5906
2227.970 0.6323 0.6319 0.6448 0.6407 0.5761 0.5183 0.5352 0.5875 0.5939 0.5124
2247.259 0.4796 0.4989 0.4109 0.396 0.4399 0.4765 0.4401 0.3693 0.3388 0.3641
2266.549 0.4287 0.4774 0.5498 0.5925 0.5509 0.4828 0.4941 0.4991 0.4805 0.4424
2285.839 0.4185 0.4789 0.4864 0.4454 0.4414 0.4509 0.509 0.6173 0.6176 0.5134
2305.129 0.513 0.518 0.5283 0.605 0.6081 0.6096 0.6518 0.6726 0.6622 0.7226
2324.418 0.7595 0.748 0.7614 0.6868 0.6259 0.6815 0.7089 0.6387 0.63 0.6651
2343.708 0.6814 0.7286 0.6969 0.7007 0.735 0.7272 0.7436 0.6875 0.6577 0.7214
2362.998 0.7591 0.7313 0.7462 0.7974 0.8194 0.8034 0.7859 0.8116 0.8139 0.7892
2382.288 0.7707 0.7997 0.8373 0.8246 0.8076 0.7642 0.718 0.775 0.8306 0.8315
2401.578 0.8359 0.8089 0.8417 0.9053 0.9419 0.9558 0.9627 1.0242 1.0428 0.991
2420.867 0.976 1.011 1.0468 1.0224 0.9619 0.9683 1.0113 1.0107 0.9545 0.9448
2440.157 0.9599 0.9095 0.977 1.0039 0.9495 0.9062 0.8653 0.8708 0.9101 0.9552
2459.447 0.912 0.9107 0.9011 0.8671 0.8617 0.8766 0.869 0.9022 0.9259 0.8488
2478.737 0.8969 0.9508 0.8839 0.883 0.9734 0.9737 0.9 0.9065 0.9205 0.9217
2498.026 0.9356 0.8991 0.8832 0.856 0.8239 0.8625 0.8907 0.8967 0.8926 0.8863
2517.316 0.9519 0.9806 0.939 1.011 0.9662 0.9224 0.9952 0.9675 1.0172 1.0348
2536.606 1.0353 1.1289 1.1389 1.2489 1.3489 1.4189 1.4289 1.3789 1.3789 1.2989
2555.896 1.2689 1.3789 1.4289 1.4389 1.3589 1.3289 1.4389 1.4089 1.3589 1.3189
2575.186 1.2889 1.2389 1.2089 1.1989 1.1789 1.1689 1.2389 1.2489 1.1289 1.1089
2594.475 1.1389 1.1389 1.0989 1.0789 1.0467 1.0494 0.9577 0.8492 0.9101 0.9532
2613.765 0.9627 0.9531 0.9643 0.9278 0.8632 0.7839 0.7158 0.6917 0.7242 0.6951
2633.055 0.7139 0.6751 0.6028 0.6279 0.6512 0.6157 0.5898 0.6501 0.6579 0.6705
2652.345 0.6361 0.6455 0.7159 0.6946 0.6243 0.6441 0.7292 0.7859 0.7543 0.7261
2671.634 0.7519 0.7993 0.8095 0.8406 0.8195 0.7095 0.7205 0.6969 0.6298 0.6205
2690.924 0.7144 0.811 0.8697 1.0194 0.9786 0.8859 0.9596 0.8793 0.7292 0.734
2710.214 0.7356 0.7607 0.8129 0.8002 0.8428 0.9046 0.9544 0.9537 0.9701 1.0276
2729.504 1.0127 1.0889 1.1689 1.1789 1.1789 1.1889 1.2789 1.4789 1.4589 1.3789
2748.794 1.4989 1.5389 1.4989 1.4889 1.4889 1.5389 1.5489 1.5389 1.5889 1.5589
2768.083 1.5589 1.5089 1.4789 1.4089 1.3489 1.3389 1.2589 1.3389 1.3589 1.2689
2787.373 1.2189 1.2989 1.3989 1.3889 1.5089 1.5989 1.5689 1.5689 1.6589 1.8089
2806.663 1.8189 1.8289 1.9189 1.9989 2.1189 2.2389 2.2889 2.3489 2.4989 2.6389
2825.953 2.7189 2.8789 3.0889 3.2889 3.4889 3.6989 3.8689 4.1189 4.5189 4.8589
2845.242 5.1889 5.6489 6.2489 6.9289 7.6089 8.3589 9.2089 10.1589 11.0789 11.9689
2864.532 13.0089 14.0789 15.1189 15.9389 16.4989 17.0389 17.6689 18.1389 18.3789 18.4589
2883.822 18.4989 18.3089 17.8289 17.2889 16.6989 16.1689 15.8489 15.8089 15.8389 16.0289
2903.112 16.2389 16.6489 17.3589 18.0789 18.8289 19.7389 20.7489 21.7289 22.7989 23.9689
2922.401 25.3489 26.7689 28.2489 29.8589 31.4989 33.1489 34.6589 36.1689 37.4889 38.3689
2941.691 38.8689 38.8689 38.4789 37.7989 36.7189 35.5789 34.6689 34.1289 33.9689 34.0489
2960.981 34.4389 35.0789 35.7589 36.1589 35.8589 34.8389 32.8289 29.9489 26.6189 22.9989
2980.271 19.4489 16.4589 14.1289 12.3189 10.8289 9.5889 8.5089 7.5989 6.9289 6.3989
2999.561 5.9389 5.4389 4.9489 4.5889 4.4189 4.2089 3.9489 3.8189 3.6289 3.4589
3018.850 3.2889 3.1689 3.0989 2.8989 2.7589 2.6789 2.5489 2.5489 2.5789 2.4989
3038.140 2.4889 2.4389 2.3889 2.4989 2.5989 2.7489 2.7689 2.9289 3.0589 3.0689
3057.430 3.2889 3.2189 2.9089 2.7989 2.8489 2.9889 3.0589 3.0889 3.0989 3.1389
3076.720 3.4289 3.5989 3.6789 3.7789 3.7089 3.5189 3.2789 2.9889 2.6989 2.4789
3096.009 2.4389 2.5189 2.4989 2.3489 2.2989 2.3589 2.2689 2.1789 2.0889 1.9889
3115.299 1.8889 1.6389 1.5589 1.5589 1.4389 1.3789 1.2489 1.1489 1.1189 1.013
3134.589 0.9004 0.9118 0.8983 0.816 0.8287 0.8199 0.8698 0.8271 0.7014 0.7579
3153.879 0.8557 0.8729 0.9536 0.8674 0.8365 0.8755 0.6908 0.6935 0.7549 0.6988
3173.169 0.5322 0.4859 0.557 0.5036 0.5167 0.5896 0.7088 0.6791 0.5228 0.5678
3192.458 0.5771 0.4178 0.4033 0.5466 0.6563 0.6613 0.6836 0.757 0.6653 0.5991
3211.748 0.6712 0.5751 0.3538 0.2965 0.345 0.3873 0.4165 0.3365 0.3751 0.5496
3231.038 0.6429 0.46 0.2329 0.2712 0.3178 0.2577 0.1719 0.2092 0.2544 0.1883
3250.328 0.1318 0.15665 0.257 0.2973 0.2873 0.2283 0.2308 0.2375 0.2006 0.233
3269.617 0.2487 0.2095 0.1744 0.2037 0.1955 0.13397 0.15585 0.2691 0.3992 0.4439
3288.907 0.1701 0.003 0.10014 0.2006 0.3418 0.3134 0.16602 0.1972 0.2412 0.189
3308.197 0.11889 0 0.0693483 0.1761 0.2069 0.14358 0.09762 0.11518 0.2127 0.3754
3327.487 0.295 0.15982 0.11788 0.1737 0.10167 0.09144 0.2205 0.2958 0.3685 0.2864
3346.777 0.2039 0.2257 0.2175 0.1843 0.1915 0.2385 0.2671 0.3032 0.2721 0.3581
3366.066 0.4057 0.3334 0.3793 0.3315 0.2429 0.3395 0.389 0.3578 0.3374 0.2071
3385.356 0.1993 0.1869 0.2728 0.2828 0.245 0.2954 0.2665 0.2788 0.2488 0.233
3404.646 0.3067 0.2458 0.10654 0.173 0.08311 0.13561 0.2805 0.11399 0.076694 0.2416
3423.936 0.389 0.3161 0.311 0.2832 0.2063 0.2055 0.249 0.3366 0.3746 0.4269
3443.225 0.4224 0.3412 0.3141 0.3425 0.4476 0.4308 0.3325 0.2611 0.2644 0.3466
3462.515 0.3339 0.1775 0.043 0.16143 0.3784 0.4348 0.4846 0.6526 0.7025 0.6523
3481.805 0.6898 0.9006 0.8783 0.7669 1.0071 1.1489 1.0989 1.2089 1.2989 1.2189
3501.095 1.0889 1.0315 0.9848 0.9053 0.771 0.682 0.6458 0.5465 0.4867 0.4981
3520.385 0.5168 0.4989 0.4312 0.393 0.4243 0.5254 0.5613 0.6607 0.6375 0.468
3539.674 0.5218 0.4937 0.5084 0.6526 0.6258 0.6084 0.7307 0.9986 1.0989 1.2489
3558.964 1.5689 1.8789 2.3289 2.9689 3.7689 4.8989 6.6089 9.0589 12.7289 18.1589
3578.254 26.2389 36.6289 46.8589 52.9389 53.2589 48.7889 39.7289 27.8089 16.8089 9.8689
3597.544 6.3089 4.4989 3.4389 2.5889 2.0989 1.6789 1.4989 1.4189 1.2589 1.0989
3616.833 0.8533 0.7955 0.8231 0.8242 0.7566 0.7069 0.6099 0.527 0.5142 0.5515
3636.123 0.4986 0.4119 0.5438 0.5649 0.619 0.5259 0.4046 0.4702 0.4579 0.3452
3655.413 0.4336 0.4775 0.3236 0.2415 0.2557 0.3062 0.3143 0.3086 0.1951 0.14395
3674.703 0.2924 0.4292 0.4625 0.4696 0.3333 0.3365 0.299 0.16207 0.13768 0.14091
3693.993 0.1932 0.283 0.4608 0.5874 0.6621 0.6903 0.5691 0.4195 0.4468 0.5108
3713.282 0.3655 0.2009 0.1961 0.2103 0.2204 0.4085 0.4559 0.3285 0.3272 0.3992
3732.572 0.4287 0.4745 0.3312 0.2206 0.2905 0.3384 0.2769 0.15048 0.1877 0.3462
3751.862 0.4501 0.4381 0.4184 0.3234 0.2349 0.2439 0.2263 0.13858 0.2339 0.3341
3771.152 0.285 0.1886 0.16697 0.1938 0.2399 0.3154 0.2637 0.1817 0.12735 0.13806
3790.441 0.309 0.42 0.396 0.4304 0.4174 0.3835 0.4128 0.2871 0.16064 0.16781
3809.731 0.2292 0.18 0.12472 0.1869 0.3433 0.375 0.2806 0.2507 0.14445 0.0942
3829.021 0.16256 0.2222 0.12214 0.14295 0.271 0.25 0.2184 0.15135 0.3153 0.3965
3848.311 0.3334 0.4019 0.2769 0.08474 0.16127 0.3613 0.4397 0.3446 0.2103 0.14345
3867.601 0.13991 0.2046 0.1945 0.2809 0.16554 0.0287 0.0514 0.11085 0.3711 0.4474
3886.890 0.3482 0.2718 0.183 0.12904 0.2655 0.4361 0.4583 0.5548 0.4632 0.3254
3906.180 0.4915 0.4397 0.3509 0.2723 0.2918 0.3496 0.3256 0.4003 0.338 0.1712
3925.470 0.14669 0.169 0.1251 0.1699 0.283 0.3696 0.3158 0.3126 0.2349 0.15535
3944.760 0.3697 0.4115 0.3372 0.3859 0.2662 0.16743 0.1806 0.11695 0.2373 0.3509
3964.049 0.3547 0.3644 0.2887 0.14013 0.2142 0.2983 0.2357 0.2517 0.2939 0.2485
3983.339 0.1991 0.3581 0.4078 0.3361 0.4013 0.4062 0.3074 0.1923 0.14346 0.2608
##END=
