##TITLE=p-Heptyloxybenzoic acid
##JCAMP-DX=4.24
##DATA TYPE=INFRARED SPECTRUM
##ORIGIN=EPA-IR VAPOR PHASE LIBRARY
##OWNER=SRD/NIST
Collection (C) 2018 copyright by the U.S. Secretary of Commerce
on behalf of the United States of America. All rights reserved.
##CAS REGISTRY NO=15872-42-1
##MOLFORM=C 14 H 20 O 3
##$NIST SOURCE=MSDC-IR
##STATE=gas
##XUNITS=1/CM
##YUNITS=ABSORBANCE
##XFACTOR=1.
##YFACTOR=0.001
##DELTAX=3.85796
##FIRSTX=501.5
##LASTX=4000.7
##FIRSTY=4.268
##MAXX=4000.7
##MINX=501.534
##MAXY=0.056278
##MINY=0
##NPOINTS=908
##XYDATA=(X++(Y..Y))
501.534 4.268 3.918 3.418 2.958 2.598 2.408 2.298 2.228 2.278 2.368
540.114 2.478 2.718 2.928 3.108 3.358 3.698 4.128 4.458 4.508 4.148
578.693 3.768 3.688 3.858 4.188 4.448 4.528 4.588 5.018 6.098 7.418
617.273 7.738 6.338 4.408 3.278 2.738 2.248 1.818 1.3781 1.1081 0.9877
655.852 0.8639 0.8496 0.9129 0.9503 1.0217 1.1945 1.488 1.938 2.518 3.178
694.432 3.738 3.988 3.918 3.658 3.338 3.008 2.688 2.408 2.168 1.928
733.011 1.718 1.568 1.568 1.648 1.778 2.128 2.758 3.698 4.918 5.958
771.591 6.198 5.508 4.398 3.488 2.918 2.568 2.358 2.168 1.958 1.868
810.170 1.838 1.838 1.808 1.638 1.688 2.068 2.498 3.048 3.708 4.228
848.750 4.248 3.678 2.918 2.288 1.878 1.648 1.538 1.468 1.4001 1.3422
887.330 1.2843 1.2483 1.2576 1.2792 1.2377 1.2394 1.2799 1.2565 1.2257 1.2354
925.909 1.2345 1.2156 1.2497 1.3444 1.458 1.628 1.778 1.948 2.128 2.288
964.489 2.478 2.718 2.808 2.748 2.708 2.738 2.918 3.218 3.548 3.968
1003.068 4.648 5.588 6.398 6.818 7.278 7.868 8.278 8.278 7.928 7.428
1041.648 7.038 6.948 7.218 7.848 8.898 10.448 12.728 16.068 20.498 24.608
1080.227 25.538 21.658 15.378 10.268 7.258 5.658 4.708 4.168 3.858 3.698
1118.807 3.718 3.718 3.738 3.948 4.338 4.908 5.938 7.698 10.838 17.088
1157.387 27.928 39.298 41.028 31.108 19.848 14.198 13.058 13.888 14.118 12.478
1195.966 10.158 8.498 7.718 7.628 8.018 8.838 9.968 11.218 12.948 15.548
1234.546 18.828 22.498 26.408 30.088 32.358 31.638 27.598 21.968 16.958 13.378
1273.125 10.878 9.228 8.358 8.138 8.538 9.468 10.578 11.238 10.978 10.118
1311.705 9.528 9.538 9.868 10.338 10.718 10.438 9.228 7.738 6.778 6.618
1350.284 7.268 8.798 11.058 12.868 12.438 9.848 7.118 5.488 4.738 4.408
1388.864 4.078 3.578 3.068 2.758 2.718 2.908 3.278 3.668 3.738 3.368
1427.443 2.828 2.458 2.328 2.358 2.478 2.668 2.908 3.188 3.498 3.878
1466.023 4.438 5.098 5.398 4.918 4.058 3.458 3.438 4.068 5.468 8.028
1504.603 11.528 14.248 13.608 9.978 6.258 4.048 2.908 2.328 2.058 1.928
1543.182 1.878 1.878 1.938 2.068 2.308 2.678 3.198 3.908 4.708 5.528
1581.762 6.298 7.158 8.538 11.018 14.908 19.668 23.148 22.508 17.698 11.988
1620.341 7.928 5.438 3.828 2.838 2.198 1.808 1.598 1.518 1.468 1.4062
1658.921 1.3489 1.3168 1.3007 1.2764 1.2849 1.3383 1.458 1.618 1.748 1.868
1697.500 1.968 2.068 2.288 2.598 2.958 3.278 3.588 4.108 5.008 6.488
1736.080 8.818 12.448 18.628 29.528 45.488 56.278 49.928 32.598 19.098 12.118
1774.659 8.408 6.278 4.768 3.658 2.878 2.388 2.068 1.868 1.738 1.678
1813.239 1.648 1.608 1.528 1.3789 1.1919 1.0211 0.886 0.7932 0.7224 0.6747
1851.819 0.6611 0.6434 0.6044 0.5892 0.6055 0.6245 0.6456 0.6767 0.7115 0.7389
1890.398 0.7771 0.821 0.8664 0.911 0.9496 0.9783 0.9691 0.9277 0.8753 0.8249
1928.978 0.7893 0.7637 0.7243 0.6848 0.6782 0.67 0.6444 0.6581 0.6821 0.6964
1967.557 0.7028 0.7058 0.6973 0.6768 0.655 0.6373 0.6387 0.6248 0.6082 0.6011
2006.137 0.5919 0.5771 0.5817 0.6069 0.61 0.5852 0.5809 0.5709 0.5489 0.5439
2044.716 0.5671 0.5808 0.5512 0.5463 0.5433 0.5355 0.5211 0.5129 0.517 0.50633
2083.296 0.50218 0.5133 0.5127 0.50742 0.50247 0.4857 0.45678 0.43731 0.43683 0.42959
2121.875 0.43686 0.44842 0.44346 0.44734 0.45381 0.45943 0.45797 0.46087 0.46963 0.46815
2160.455 0.45704 0.417673 0.3696 0.3473 0.3517 0.3544 0.3407 0.3226 0.3184 0.3255
2199.035 0.3407 0.3623 0.3609 0.365 0.3708 0.36 0.3695 0.3776 0.3647 0.3469
2237.614 0.3385 0.3438 0.3382 0.3196 0.3274 0.3453 0.3367 0.3276 0.3313 0.3286
2276.194 0.3367 0.3467 0.3349 0.3346 0.3396 0.3505 0.3699 0.3678 0.3699 0.3889
2314.773 0.388 0.3908 0.41859 0.43751 0.44596 0.44767 0.42753 0.42591 0.43536 0.42501
2353.353 0.410039 0.410016 0.412283 0.413969 0.42134 0.4352 0.44556 0.42548 0.412997 0.4301
2391.932 0.44912 0.44219 0.44569 0.47696 0.50105 0.5148 0.49827 0.4852 0.48749 0.47674
2430.512 0.48119 0.47531 0.47766 0.48078 0.46497 0.46134 0.45043 0.44974 0.47475 0.47731
2469.092 0.4556 0.4529 0.46934 0.48678 0.49464 0.48455 0.47988 0.47115 0.47123 0.48552
2507.671 0.48444 0.4804 0.48311 0.5084 0.5218 0.5043 0.50307 0.5219 0.551 0.5896
2546.251 0.6125 0.6292 0.6446 0.6321 0.6096 0.5884 0.5773 0.5943 0.5921 0.559
2584.830 0.5551 0.5653 0.5688 0.5728 0.5608 0.5404 0.50126 0.48558 0.4893 0.47588
2623.410 0.46673 0.451 0.43538 0.42755 0.4401 0.44447 0.414765 0.40447 0.42159 0.42915
2661.989 0.43916 0.44553 0.42534 0.44214 0.46798 0.46055 0.48026 0.49191 0.49174 0.48402
2700.569 0.47822 0.5035 0.47503 0.46872 0.5118 0.5312 0.5315 0.5356 0.568 0.6123
2739.148 0.6497 0.6844 0.6948 0.7036 0.7404 0.7495 0.7695 0.7688 0.7524 0.7537
2777.728 0.7381 0.7209 0.7137 0.7312 0.7592 0.8225 0.8725 0.9094 0.9694 1.048
2816.308 1.164 1.2883 1.438 1.628 1.808 2.028 2.348 2.778 3.368 4.168
2854.887 5.218 6.408 7.498 8.208 8.468 8.418 8.308 8.158 7.918 7.558
2893.467 7.258 7.258 7.608 8.318 9.318 10.598 12.108 13.888 15.918 18.008
2932.046 19.798 20.798 20.748 19.798 18.258 16.578 15.218 14.348 13.968 13.578
2970.626 12.478 10.418 8.008 6.038 4.648 3.678 3.038 2.538 2.178 1.928
3009.205 1.708 1.548 1.448 1.3244 1.2221 1.1763 1.1498 1.0912 1.063 1.0986
3047.785 1.1372 1.2152 1.2695 1.1985 1.132 1.1259 1.1757 1.2598 1.3447 1.4029
3086.364 1.3211 1.1536 1.0058 0.9398 0.9505 0.9164 0.8239 0.767 0.7119 0.6361
3124.944 0.5656 0.5241 0.48251 0.43716 0.408256 0.3877 0.3547 0.3404 0.3734 0.3735
3163.524 0.3543 0.3484 0.3186 0.282 0.293 0.3109 0.271 0.299 0.3189 0.272
3202.103 0.265 0.258 0.257 0.273 0.287 0.262 0.201 0.15 0.185 0.191
3240.683 0.166 0.164 0.136 0.156 0.179 0.146 0.146 0.186 0.171 0.14
3279.262 0.154 0.171 0.14 0.14 0.144 0.152 0.173 0.154 0.166 0.173
3317.842 0.156 0.161 0.191 0.193 0.161 0.143 0.149 0.139 0.143 0.188
3356.421 0.196 0.218 0.247 0.189 0.13 0.145 0.151 0.149 0.153 0.141
3395.001 0.123 0.136 0.134 0.106 0.091 0.141 0.224 0.206 0.169 0.135
3433.580 0.112 0.147 0.15 0.105 0.085 0.095 0.116 0.13 0.17 0.209
3472.160 0.263 0.3187 0.3318 0.3759 0.42888 0.44949 0.45563 0.43269 0.407156 0.3896
3510.740 0.3516 0.3553 0.3296 0.246 0.227 0.248 0.276 0.3085 0.3128 0.3294
3549.319 0.40588 0.48466 0.5546 0.7334 1.1148 1.798 3.228 6.018 11.178 16.438
3587.899 15.908 9.708 4.278 2.008 1.1474 0.7009 0.49306 0.3561 0.279 0.257
3626.478 0.24 0.255 0.271 0.252 0.24 0.197 0.16 0.18 0.172 0.174
3665.058 0.207 0.244 0.246 0.235 0.251 0.194 0.139 0.161 0.18 0.175
3703.637 0.178 0.194 0.162 0.15 0.158 0.056 0.016 0.09 0.143 0.149
3742.217 0.095 0.048 0.058 0.09 0.149 0.179 0.135 0.11 0.117 0.142
3780.797 0.172 0.151 0.143 0.14 0.139 0.15 0.172 0.185 0.157 0.159
3819.376 0.156 0.127 0.101 0.063 0.037 0 0.027 0.11 0.095 0.056
3857.956 0.084 0.04 0.025 0.096 0.094 0.073 0.085 0.122 0.175 0.191
3896.535 0.134 0.116 0.1 0.131 0.17 0.123 0.051 0.043 0.071 0.055
3935.115 0.059 0.061 0.056 0.061 0.057 0.091 0.134 0.116 0.132 0.161
3973.694 0.149 0.162 0.134 0.13 0.105 0.094 0.174 0.14
##END=
