##TITLE=4-Fluorobenzyl mercaptan
##JCAMP-DX=4.24
##DATA TYPE=INFRARED SPECTRUM
##ORIGIN=EPA-IR VAPOR PHASE LIBRARY
##OWNER=SRD/NIST
Collection (C) 2018 copyright by the U.S. Secretary of Commerce
on behalf of the United States of America. All rights reserved.
##CAS REGISTRY NO=15894-04-9
##MOLFORM=C 7 H 7 F S
##$NIST SOURCE=MSDC-IR
##STATE=gas
##XUNITS=1/CM
##YUNITS=ABSORBANCE
##XFACTOR=1.
##YFACTOR=0.001
##DELTAX=1.92898
##FIRSTX=549.8
##LASTX=4000.7
##FIRSTY=3.408
##MAXX=4000.7
##MINX=549.759
##MAXY=0.139368
##MINY=0
##NPOINTS=1790
##XYDATA=(X++(Y..Y))
549.759 3.408 3.188 2.968 3.088 2.668 1.948 2.448 2.668 2.078 2.018
569.049 2.008 2.188 2.218 2.168 2.068 2.048 2.168 2.678 2.668 1.958
588.339 1.578 0.536 0.432 1.688 2.188 1.808 1.438 1.838 2.168 1.958
607.628 1.678 1.438 1.648 1.838 1.2737 1.0401 1.578 1.978 2.248 2.738
626.918 2.608 2.258 1.938 1.848 2.398 2.978 4.128 4.438 4.448 5.308
646.208 5.318 5.708 6.548 7.498 8.228 8.388 8.998 9.808 10.018 10.568
665.498 10.978 10.658 10.408 10.128 10.268 9.858 8.768 7.938 7.398 6.918
684.787 6.438 5.908 5.138 4.578 3.858 3.458 3.808 3.948 3.878 3.868
704.077 3.748 4.028 4.378 4.538 4.638 4.478 5.298 6.208 6.218 6.018
723.367 6.428 6.368 5.818 5.838 5.538 5.678 5.728 5.688 6.188 5.498
742.657 5.248 5.318 5.498 6.038 5.848 6.108 6.938 7.078 6.788 6.968
761.947 7.108 7.118 6.508 5.928 5.318 4.848 4.738 4.208 3.988 4.428
781.236 4.268 4.058 4.348 4.868 5.518 5.948 6.428 6.578 6.798 7.528
800.526 8.768 9.878 10.888 12.758 14.798 16.358 18.118 20.158 21.998 24.218
819.816 26.728 27.618 28.828 31.468 33.478 35.248 37.228 38.538 39.408 39.858
839.106 39.438 38.508 37.478 35.838 33.228 30.408 27.548 24.288 20.658 17.388
858.395 14.038 11.418 9.448 8.018 6.888 6.098 6.158 5.538 4.768 4.328
877.685 4.308 4.108 3.528 3.148 2.928 3.118 3.288 3.028 3.088 2.958
896.975 2.408 2.478 2.808 2.528 2.098 2.098 2.218 2.698 2.878 2.628
916.265 2.248 2.188 2.268 2.098 2.388 2.368 2.478 2.588 2.208 2.328
935.555 2.468 2.348 2.218 2.328 2.218 1.848 1.998 2.098 2.088 2.098
954.844 2.268 2.408 2.238 2.278 2.428 2.528 2.468 2.478 2.908 3.288
974.134 2.988 2.908 2.638 2.488 2.748 2.688 2.848 2.968 2.418 2.168
993.424 2.208 2.178 2.618 3.128 3.388 3.208 3.138 3.998 5.388 6.358
1012.714 5.918 5.548 5.908 5.718 5.848 4.988 3.258 2.648 2.738 2.248
1032.003 1.518 1.368 1.738 2.078 1.908 1.728 1.458 2.138 2.948 2.368
1051.293 2.208 1.628 1.858 2.518 2.518 2.258 1.928 1.938 1.618 2.118
1070.583 2.908 3.068 3.978 4.588 4.478 5.278 5.128 4.618 6.518 7.708
1089.873 6.768 6.908 7.428 7.538 7.118 7.098 8.308 7.248 5.698 5.968
1109.163 5.078 3.918 3.658 4.248 4.188 2.838 2.958 2.718 1.978 2.218
1128.452 2.418 3.448 3.488 3.258 3.328 2.128 2.078 3.408 4.368 5.498
1147.742 8.378 14.668 21.718 25.768 26.428 25.988 25.998 26.538 27.318 24.938
1167.032 19.278 12.988 8.858 7.478 6.298 4.748 4.588 4.868 4.978 5.608
1186.322 6.328 6.658 5.908 5.598 6.658 7.838 7.738 7.948 9.588 11.098
1205.611 11.298 12.568 14.898 18.098 22.138 25.608 29.818 36.168 44.708 54.538
1224.901 67.468 84.038 102.478 118.848 130.618 137.228 139.368 137.338 132.358 123.348
1244.191 107.378 86.298 64.278 45.358 32.088 24.328 19.648 16.418 14.818 13.588
1263.481 12.288 11.408 10.448 9.578 8.918 8.238 7.798 7.618 6.978 6.708
1282.771 7.048 6.698 6.268 6.308 6.288 6.128 5.708 5.518 5.618 5.588
1302.060 5.538 5.608 5.668 5.608 5.558 5.418 5.358 5.268 4.918 4.788
1321.350 4.678 4.348 4.298 4.238 3.908 3.488 3.348 3.568 3.528 3.218
1340.640 3.108 2.958 2.798 2.818 2.668 2.518 2.398 2.298 2.258 2.308
1359.930 2.338 2.298 2.228 2.148 2.108 2.188 2.188 2.008 1.788 1.888
1379.219 2.238 2.248 2.248 2.328 2.388 2.548 2.818 2.898 2.858 3.138
1398.509 3.298 3.428 3.708 3.838 3.868 3.988 4.318 4.578 4.588 4.658
1417.799 4.708 4.828 4.958 5.058 5.328 5.408 5.488 5.718 5.978 6.228
1437.089 6.458 6.398 6.438 6.628 6.688 6.788 6.628 6.398 6.168 5.838
1456.378 5.568 5.398 5.208 4.858 4.608 4.538 4.468 4.388 4.448 4.628
1475.668 4.928 5.498 5.978 6.478 7.328 8.698 10.718 13.248 16.638 21.578
1494.958 29.138 39.658 52.908 69.278 87.008 103.338 116.708 124.878 127.628 126.148
1514.248 120.928 111.758 97.808 79.888 59.998 43.438 30.588 21.208 15.238 11.728
1533.538 9.418 7.648 6.708 6.028 5.258 4.858 4.428 3.998 3.838 3.688
1552.827 3.668 4.098 4.348 4.148 4.198 4.298 4.588 4.878 5.298 5.938
1572.117 6.538 7.078 7.628 8.418 9.308 10.368 11.188 11.958 12.878 13.838
1591.407 14.968 16.388 17.928 19.548 21.498 23.438 24.948 25.828 26.028 25.838
1610.697 25.118 23.458 21.398 19.098 16.808 14.678 12.708 11.288 10.048 8.818
1629.986 7.718 6.858 6.588 6.448 5.858 5.368 5.168 4.838 4.438 4.208
1649.276 3.968 3.538 3.208 3.208 2.998 2.628 2.748 3.008 2.968 2.578
1668.566 2.208 2.218 2.278 2.178 2.128 2.228 2.128 2.138 2.158 2.078
1687.856 2.018 1.968 2.128 2.218 2.128 1.988 1.868 2.078 2.378 2.338
1707.146 2.048 1.918 2.128 2.138 2.118 2.128 2.128 1.968 1.848 2.018
1726.435 2.008 2.078 2.358 2.398 2.198 2.258 2.418 2.458 2.498 2.718
1745.725 2.968 3.198 3.488 3.568 3.478 3.438 3.308 3.148 2.978 2.808
1765.015 2.548 2.258 1.998 1.748 1.608 1.568 1.498 1.388 1.338 1.438
1784.305 1.518 1.378 1.2921 1.3065 1.2379 1.2337 1.328 1.368 1.2702 1.3008
1803.594 1.315 1.2113 1.2053 1.0855 1.0726 1.1608 1.225 1.2969 1.2701 1.2295
1822.884 1.378 1.538 1.468 1.478 1.508 1.458 1.438 1.448 1.578 1.758
1842.174 1.868 1.918 1.788 1.868 2.228 2.308 2.408 2.678 2.838 2.958
1861.464 3.008 3.168 3.408 3.678 3.878 4.118 4.138 3.988 4.138 4.198
1880.754 4.138 4.138 3.988 3.678 3.508 3.378 3.258 3.038 2.578 2.328
1900.043 2.108 1.908 1.958 1.928 1.728 1.658 1.608 1.578 1.678 1.698
1919.333 1.518 1.408 1.428 1.408 1.458 1.528 1.398 1.2594 1.368 1.498
1938.623 1.488 1.3137 1.2887 1.478 1.488 1.328 1.348 1.428 1.378 1.578
1957.913 1.558 1.358 1.438 1.578 1.668 1.648 1.558 1.488 1.518 1.538
1977.202 1.528 1.358 1.348 1.568 1.608 1.588 1.738 1.918 1.768 1.548
1996.492 1.768 1.968 1.858 1.768 1.838 1.848 1.798 1.708 1.468 1.448
2015.782 1.428 1.448 1.418 1.438 1.438 1.2615 1.243 1.2558 1.2651 1.209
2035.072 1.398 1.458 1.358 1.2512 1.1549 1.2083 1.358 1.458 1.368 1.418
2054.362 1.448 1.418 1.448 1.458 1.518 1.548 1.738 1.718 1.438 1.428
2073.651 1.568 1.568 1.608 1.918 1.918 1.718 1.758 1.758 1.618 1.438
2092.941 1.398 1.338 1.2654 1.3181 1.368 1.3263 1.1598 1.1785 1.2188 1.1237
2112.231 1.262 1.348 1.1735 0.9396 0.9413 0.9832 0.9056 0.8979 0.9571 1.0221
2131.521 0.8978 0.8988 0.9846 0.9223 1.0231 1.0545 0.8792 0.9273 1.0272 1.077
2150.810 0.8957 0.8454 0.9198 0.9423 1.2165 1.438 1.458 1.388 1.2478 1.1974
2170.100 1.0507 0.9627 0.9634 0.9873 1.1695 1.1889 1.0879 1.0534 1.0211 1.0589
2189.390 1.1685 1.1368 1.1051 0.9712 0.8215 0.8733 0.9438 0.9519 0.9232 0.8029
2208.680 0.9921 1.2359 1.0157 0.9446 0.9653 0.7807 0.7313 0.8184 0.97 1.0676
2227.970 1.0797 0.9176 1.0333 1.1932 0.9764 0.9117 1.172 1.388 1.338 1.2961
2247.259 1.398 1.468 1.448 1.3079 1.368 1.518 1.528 1.458 1.3108 1.3099
2266.549 1.2291 1.378 1.458 1.2282 1.306 1.338 1.0397 1.0527 1.448 1.378
2285.839 1.1828 1.1503 1.0719 1.3029 1.2659 1.0508 1.1503 1.2164 1.2327 1.2402
2305.129 1.1193 0.9227 1.0359 1.0725 1.2384 1.2528 1.0518 1.1728 1.2033 1.1449
2324.418 1.2131 1.378 1.448 1.418 1.2092 1.1123 1.1025 1.0754 1.1836 1.458
2343.708 1.428 1.378 1.508 1.578 1.638 1.518 1.2385 1.0633 1.2546 1.368
2362.998 1.1247 0.9863 1.116 1.1311 1.2228 1.2643 1.1687 1.2885 1.428 1.388
2382.288 1.378 1.428 1.2839 1.388 1.538 1.378 1.468 1.768 1.878 1.578
2401.578 1.2964 1.408 1.358 1.0564 1.113 1.548 1.648 1.348 0.9024 0.7831
2420.867 1.0737 1.348 1.378 1.2185 1.2634 1.0571 1.0429 1.408 1.321 1.3261
2440.157 1.708 1.838 1.708 1.828 1.838 1.818 1.878 1.768 1.768 1.918
2459.447 2.108 1.918 1.928 2.078 1.978 2.098 2.148 1.938 1.568 1.438
2478.737 1.398 1.348 1.2797 1.1031 1.0621 0.9667 0.9651 1.1159 1.3206 1.1799
2498.026 0.9694 1.0172 1.0558 0.9916 0.8729 0.8237 0.8868 0.9905 0.8401 0.8098
2517.316 1.0016 0.9142 0.9625 1.0976 1.0535 0.9251 1.1568 1.2157 1.0295 1.0595
2536.606 1.1439 1.0067 0.9563 1.126 1.1643 1.378 1.368 1.358 1.528 1.468
2555.896 1.458 1.338 1.348 1.548 1.508 1.488 1.598 1.788 1.908 1.978
2575.186 1.908 1.888 2.078 2.138 2.088 2.428 2.598 2.528 2.548 2.118
2594.475 1.858 1.818 1.738 1.538 1.378 1.628 1.508 1.3074 1.146 1.0305
2613.765 1.2838 1.348 1.2885 1.1961 1.1479 1.368 1.498 1.328 0.8955 0.8817
2633.055 1.0331 0.938 0.9905 1.0416 0.8017 0.6565 1.0478 1.1814 1.0492 0.9959
2652.345 1.0518 1.1869 1.368 1.368 0.9333 0.8276 0.8039 0.7699 1.028 1.2236
2671.634 1.408 1.508 1.448 1.488 1.568 1.378 1.1854 1.1834 1.0196 0.8781
2690.924 0.8291 0.8474 1.1705 1.448 1.428 1.378 1.428 1.398 1.1367 1.0395
2710.214 1.0464 1.1327 1.358 1.1897 1.1384 0.9878 1.0139 1.2273 1.1083 0.8989
2729.504 0.8264 0.8976 0.9371 1.0282 1.0254 0.9747 1.2365 1.628 1.348 1.018
2748.794 1.1507 1.2321 1.0265 0.6572 0.6808 0.8407 0.757 0.9825 1.0624 0.9364
2768.083 0.7844 0.8715 0.9384 1.0023 0.878 0.6999 0.9465 1.1474 1.398 1.2765
2787.373 0.8762 0.7869 1.0469 1.1929 1.368 1.488 1.368 1.0917 1.2109 1.1133
2806.663 0.6484 1.0198 1.588 1.488 1.418 1.498 1.338 1.1996 1.2673 1.438
2825.953 1.388 1.378 1.418 1.368 1.358 1.368 1.518 1.608 1.528 1.598
2845.242 1.818 1.938 1.868 2.038 2.248 2.378 2.248 2.048 2.278 2.328
2864.532 2.028 2.348 2.788 2.488 2.088 2.338 2.388 2.018 1.908 1.848
2883.822 1.748 1.758 1.948 1.788 1.648 1.648 1.738 2.158 2.658 2.858
2903.112 2.818 2.648 2.618 2.768 2.958 2.798 2.868 3.598 4.218 4.608
2922.401 4.758 5.048 5.518 5.838 6.128 6.528 6.958 7.538 8.388 8.828
2941.691 8.608 8.678 8.558 8.228 7.868 7.618 7.558 7.608 7.338 6.898
2960.981 6.678 6.338 6.308 6.568 6.398 5.608 5.228 5.368 5.388 5.358
2980.271 5.198 5.108 4.588 3.888 4.038 4.378 4.218 3.918 4.108 4.308
2999.561 4.268 4.008 4.178 4.298 3.878 3.558 3.468 3.768 3.678 3.198
3018.850 3.568 4.218 4.238 4.068 4.398 5.258 6.008 6.818 7.558 8.328
3038.140 9.008 9.448 10.218 10.708 10.918 10.948 10.398 9.848 9.218 8.208
3057.430 7.218 6.468 6.078 5.768 5.338 5.048 5.068 5.018 5.068 5.178
3076.720 5.168 5.068 4.798 4.608 4.448 4.028 3.788 3.548 3.188 3.198
3096.009 2.978 2.868 2.908 2.528 2.228 2.118 2.228 2.358 2.528 2.668
3115.299 2.358 2.378 2.368 2.208 2.108 1.958 1.838 1.468 1.398 1.568
3134.589 1.798 1.988 2.058 1.938 1.668 1.2146 0.5375 0.7738 1.0554 0.7531
3153.879 0.8851 1.2593 1.548 1.368 1.3115 1.2087 1.0506 0.9402 0.7496 0.819
3173.169 0.6441 0.6945 1.2493 1.2721 1.2147 1.28 1.0809 0.8811 0.987 1.2029
3192.458 1.0363 1.0237 1.0738 1.0346 0.5293 0.4963 0.7615 0.41139 0.464 0.7517
3211.748 1.0471 1.283 1.388 1.0526 0.875 0.9146 0.8531 1.0274 0.9276 0.9599
3231.038 0.9776 0.7201 0.66 0.731 0.7222 0.6793 0.9045 0.8254 0.7589 0.611
3250.328 0.37653 0.7659 0.9326 1.1634 1.1519 0.9577 1.0239 1.0038 0.6081 0.8616
3269.617 0.8424 0.327958 0.7605 1.2422 1.528 1.2242 1.0036 1.0837 0.8183 0.8794
3288.907 0.7294 0.6918 1.1584 1.0104 0.9559 1.0134 0.8495 0.976 0.8887 0.8534
3308.197 0.7103 0.561 0.9678 0.877 0.40813 0.5824 0.9341 0.7572 0.735 1.0893
3327.487 1.2198 0.6359 0.8778 1.408 1.147 0.8036 1.0683 1.438 1.2172 1.0085
3346.777 0.8335 0.6255 0.7192 1.1605 1.1789 1.1243 1.2228 1.1951 0.9555 0.6863
3366.066 0.8283 1.0188 0.9905 1.193 1.2322 1.398 1.428 0.9768 0.8043 1.0634
3385.356 0.9548 0.7336 0.641 0.4902 0.5969 0.9492 1.0728 0.7938 0.9862 1.2475
3404.646 0.8022 0.8697 1.0738 1.0799 0.9967 0.6251 0.8894 1.1725 1.1301 1.0545
3423.936 1.0052 1.0289 1.0468 0.6704 0.4356 0.5588 0.8457 1.0264 0.4768 0.208
3443.225 0.4658 0.9275 1.0349 0.3254 0.2708 0.6688 0.5736 0.2714 0.4483 0.6081
3462.515 0.16 0.061 0.6744 0.9456 0.7525 0.7839 0.6086 0.5887 1.0334 1.3026
3481.805 1.488 1.438 1.1024 0.9751 0.9634 0.5592 0.158 0.6527 1.2292 0.9416
3501.095 0.8186 0.8337 0.5232 0.6361 0.6895 0.7009 1.2045 1.1191 0.39464 0.2481
3520.385 0.6513 0.8369 0.8844 1.1716 1.468 1.1625 1.0171 0.9619 0.6903 0.7495
3539.674 0.9319 0.9442 0.9469 0.729 0.6034 0.5937 0.7944 0.9986 0.7128 1.0159
3558.964 1.1213 1.0504 1.2298 0.8728 0.5263 1.0045 0.9666 0.5708 0.8483 0.9825
3578.254 0.7918 0.7217 0.8501 0.6235 0.5868 1.0307 0.8701 0.8289 1.0615 1.1886
3597.544 1.0564 0.42393 0.3148 0.8365 1.0458 0.949 1.1649 1.1089 1.171 1.1248
3616.833 0.7989 0.8582 1.014 1.0012 1.0568 1.2645 1.0143 1.0075 0.7558 0.7013
3636.123 0.6319 0.6398 0.8495 0.8193 0.7448 0.4787 0.701 0.9813 1.0358 0.8588
3655.413 0.5692 0.53 0.5677 0.6034 0.6501 0.5368 0.5939 0.6363 0.5692 0.2656
3674.703 0.6019 1.0472 1.0563 1.2722 1.2206 1.211 1.338 1.1343 1.0398 1.046
3693.993 0.7057 0.8483 0.945 0.7387 0.6512 0.8991 0.9825 0.7076 1.2985 1.978
3713.282 1.638 1.1262 0.689 0.5436 0.8821 0.8798 1.0843 1.828 1.838 1.14
3732.572 1.2615 1.141 0.8901 1.2127 0.9905 1.188 1.558 1.538 1.0303 0.6121
3751.862 0.8164 0.8423 0.4548 0.185 0.38518 0.6129 0.7795 0.7879 0.6705 0.545
3771.152 0.7888 1.2479 0.9752 0.8718 0.9146 1.1396 0.9798 0.5412 0.9195 0.9569
3790.441 1.0564 1.1212 1.0535 0.7331 0.7311 0.9268 0.5993 0.7715 0.7895 0.5039
3809.731 0.6161 0.8967 0.5543 0.089 0.2889 0.6692 0.9186 0.8067 0.42278 0.061
3829.021 0.5626 0.8922 0.7305 0.7913 0.5664 0.6247 0.6252 0.32054 0.38883 0.5182
3848.311 0.3115 0.4861 0.5902 0.7203 1.398 0.9826 0.37349 0.6222 1.066 1.428
3867.601 0.862 0.34772 0.4544 0.512 0.8759 1.0677 1.0905 1.0386 0.7197 0.4781
3886.890 0.39541 0.40781 0.7521 1.2541 1.648 1.2372 0.5386 0.4429 0.5149 0.8062
3906.180 0.733 0.9083 1.0418 0.8835 1.1931 1.338 0.7538 0.071 0.167 0.5401
3925.470 0.6425 0.828 0.778 0.2761 0.6795 1.2748 0.7012 0.4436 0.7945 0.9662
3944.760 0.6192 0.5368 0.9843 0.904 1.0397 1.1577 0.8137 0.4648 0.5189 0.7239
3964.049 0.5299 0.8649 0.93 0.3826 0.36315 0.38294 0.35658 0.5548 0.7165 0.4298
3983.339 0.5226 1.1577 0.971 0 0.001 0.6583 0.5095 0.4785 0.5663 0.4505
##END=
