##TITLE=1-Phenylcyclohexanol
##JCAMP-DX=4.24
##DATA TYPE=INFRARED SPECTRUM
##ORIGIN=NIST Mass Spectrometry Data Center
##OWNER=NIST Standard Reference Data Program
Collection (C) 2018 copyright by the U.S. Secretary of Commerce
on behalf of the United States of America. All rights reserved.
##CAS REGISTRY NO=1589-60-2
##MOLFORM=C 12 H 16 O
##$NIST SOURCE=MSDC-IR
##SPECTROMETER/DATA SYSTEM=HP-GC/MS/IRD
##STATE=gas
##XUNITS=1/CM
##YUNITS=ABSORBANCE
##XFACTOR=1.0
##YFACTOR=0.000004200
##DELTAX=4.0
##FIRSTX=550.0
##LASTX=3846.0
##FIRSTY=0.002323
##MAXX=3846
##MINX=550
##MAXY=0.042
##MINY=0
##NPOINTS=825
##XYDATA=(X++(Y..Y))
550.0 553 401 250 156 112 85 67 25 4 16
590.0 14 13 11 14 23 25 24 24 26 61
630.0 140 221 268 257 181 126 125 138 183 247
670.0 306 400 544 751 1038 1368 1682 1818 1674 1368
710.0 1035 749 542 423 368 363 399 506 683 908
750.0 1150 1310 1293 1116 870 611 407 283 208 141
790.0 89 59 38 36 38 37 49 75 103 137
830.0 176 229 302 381 422 406 329 221 148 118
870.0 109 116 138 173 214 269 327 364 369 336
910.0 283 247 241 243 257 277 299 336 403 523
950.0 703 920 1171 1417 1574 1576 1419 1147 843 581
990.0 415 334 318 364 487 633 749 812 824 819
1030.0 819 802 766 716 680 662 642 597 524 449
1070.0 392 343 312 296 269 245 249 279 326 385
1110.0 448 505 547 564 583 609 633 674 702 699
1150.0 684 648 602 565 539 511 490 490 504 520
1190.0 534 530 540 570 599 617 607 569 516 478
1230.0 464 465 484 523 566 624 666 686 686 666
1270.0 642 615 592 582 577 580 600 622 633 635
1310.0 623 608 596 586 587 598 623 657 691 733
1350.0 761 766 746 701 642 578 506 432 367 313
1390.0 272 250 232 212 202 209 231 264 301 357
1430.0 448 582 747 907 1053 1130 1117 1030 900 754
1470.0 627 514 443 458 543 625 631 549 407 267
1510.0 180 134 112 99 83 74 68 61 58 52
1550.0 42 42 44 36 40 53 64 85 117 158
1590.0 206 255 289 282 236 167 103 59 40 28
1630.0 20 22 26 27 29 33 36 33 30 30
1670.0 34 34 29 25 19 13 14 12 7 6
1710.0 9 16 22 17 15 23 31 28 26 27
1750.0 30 30 27 27 28 31 35 42 53 76
1790.0 105 120 124 114 90 68 51 39 28 23
1830.0 22 17 18 28 32 32 37 44 49 56
1870.0 64 68 69 66 60 56 55 51 45 37
1910.0 32 34 35 43 54 67 79 95 107 109
1950.0 109 102 87 65 45 30 20 14 11 11
1990.0 8 5 8 9 5 4 3 2 2 0
2030.0 0 3 6 5 4 7 8 7 7 4
2070.0 3 3 5 8 6 9 9 6 8 11
2110.0 11 8 8 11 10 6 7 7 4 5
2150.0 8 10 10 13 16 14 11 11 14 16
2190.0 19 20 19 19 19 23 26 23 21 22
2230.0 22 20 18 17 18 19 22 22 18 20
2270.0 21 18 14 14 16 17 17 12 13 15
2310.0 20 29 31 29 28 25 25 28 33 35
2350.0 32 33 33 32 33 30 22 18 18 16
2390.0 13 14 19 16 15 18 18 19 20 16
2430.0 14 11 9 11 7 4 7 9 13 13
2470.0 14 15 16 18 17 17 16 16 18 15
2510.0 14 16 18 21 20 17 13 13 14 11
2550.0 12 17 17 17 19 19 19 24 28 30
2590.0 31 34 40 44 46 45 43 47 53 53
2630.0 52 56 57 61 69 77 83 89 97 101
2670.0 103 101 91 81 72 63 56 52 53 53
2710.0 49 45 48 50 47 48 46 42 44 52
2750.0 54 55 59 58 64 74 82 92 108 112
2790.0 116 124 131 141 149 159 179 198 215 241
2830.0 286 359 470 648 906 1263 1713 2126 2413 2537
2870.0 2459 2224 1925 1637 1419 1296 1263 1316 1441 1626
2910.0 1897 2311 2928 3771 4838 6180 7779 9277 10000 9528
2950.0 7949 5793 3829 2420 1512 966 640 451 341 280
2990.0 244 231 226 234 259 300 356 443 554 685
3030.0 817 925 975 949 887 845 890 1037 1257 1438
3070.0 1480 1378 1180 979 858 796 726 629 530 433
3110.0 346 276 211 153 114 99 85 70 65 68
3150.0 68 68 66 59 48 41 42 37 27 28
3190.0 27 23 18 23 26 21 21 20 21 18
3230.0 14 14 10 13 19 21 11 4 9 12
3270.0 18 13 13 19 17 21 20 15 17 15
3310.0 16 21 20 13 18 25 21 26 26 17
3350.0 18 25 32 33 28 29 31 31 27 28
3390.0 29 29 32 29 27 24 26 32 43 41
3430.0 41 46 38 32 29 31 27 23 23 21
3470.0 12 14 17 18 22 21 19 18 26 24
3510.0 14 7 5 12 22 21 15 7 5 19
3550.0 21 16 5 8 23 24 22 25 28 35
3590.0 31 30 42 53 75 104 140 198 276 362
3630.0 429 433 405 349 287 227 179 146 110 79
3670.0 68 62 48 37 38 37 32 33 41 43
3710.0 39 40 39 30 28 35 35 25 19 29
3750.0 29 26 25 18 20 25 24 23 24 23
3790.0 21 20 10 9 18 21 29 28 24 29
3830.0 29 24 29 31 25
##END=
