##TITLE=2,3-Dimethylphenylisocyanate
##JCAMP-DX=4.24
##DATA TYPE=INFRARED SPECTRUM
##ORIGIN=EPA-IR VAPOR PHASE LIBRARY
##OWNER=SRD/NIST
Collection (C) 2018 copyright by the U.S. Secretary of Commerce
on behalf of the United States of America. All rights reserved.
##CAS REGISTRY NO=1591-99-7
##MOLFORM=C 9 H 9 N O
##$NIST SOURCE=MSDC-IR
##STATE=gas
##XUNITS=1/CM
##YUNITS=ABSORBANCE
##XFACTOR=1.
##YFACTOR=0.001
##DELTAX=1.92898
##FIRSTX=549.8
##LASTX=4000.7
##FIRSTY=2.0082
##MAXX=4000.7
##MINX=549.759
##MAXY=0.719198
##MINY=0
##NPOINTS=1790
##XYDATA=(X++(Y..Y))
549.759 2.0082 2.3482 2.5682 2.5682 2.9582 3.7382 4.1082 4.2782 4.8982 5.5082
569.049 6.1782 6.7582 7.3382 8.2982 9.3582 10.5582 11.7782 12.8682 13.7982 13.9182
588.339 13.7182 13.7982 13.4882 12.7882 12.0882 11.6182 11.1282 10.6282 10.3582 10.2482
607.628 10.1682 9.9482 9.7982 9.5682 9.1682 8.9782 9.0382 8.7482 8.1082 7.7582
626.918 7.4282 7.0682 6.5082 6.0382 5.8782 5.5682 5.2982 5.1082 4.9382 4.6782
646.208 4.5182 4.5682 4.2182 3.7482 3.7582 3.5282 3.0682 2.9682 2.9682 3.0782
665.498 3.1282 3.1482 3.3282 3.5682 3.7982 4.0782 4.3482 4.5282 4.6182 4.7182
684.787 4.9882 5.2382 5.5182 5.9282 6.4082 7.0582 7.5682 7.9982 8.7282 9.8482
704.077 11.7582 13.1082 11.4582 9.0182 7.8382 7.2482 6.6882 5.9182 4.9982 4.2382
723.367 3.7582 3.2482 2.7282 2.4682 2.3482 2.1582 2.0982 2.1782 2.1382 2.2082
742.657 2.3082 2.4982 2.8782 3.4582 4.2582 5.2282 6.7682 8.9482 11.4182 14.3682
761.947 17.7082 20.8582 24.0082 27.1382 30.8582 36.1082 41.8582 43.4782 38.4482 31.5882
781.236 27.2282 24.2982 21.3482 18.1982 14.8682 11.7182 8.9482 6.8282 5.3082 4.3982
800.526 4.0682 4.0182 4.0182 3.8782 3.7382 3.7982 3.6982 3.5482 3.2682 2.8482
819.816 2.4782 2.0882 2.0282 1.9682 1.6882 1.4282 1.2382 1.1982 1.1382 1.0515
839.106 1.1882 1.4282 1.6282 1.8582 2.2082 2.6982 3.4082 4.2582 5.0282 5.6882
858.395 6.3182 6.9382 7.3282 7.3682 6.9582 6.4082 5.7882 4.8282 3.6982 2.6182
877.685 2.0182 1.6382 1.1282 1.0432 1.2182 1.1082 0.9415 0.9554 0.753 0.5307
896.975 0.4864 0.5694 0.5225 0.521 0.5428 0.4408 0.3543 0.372 0.5163 0.5085
916.265 0.4492 0.4364 0.4797 0.5168 0.5019 0.4911 0.5314 0.5536 0.5717 0.6208
935.555 0.6289 0.6257 0.7071 0.6975 0.5747 0.6942 0.7727 0.8288 0.9611 1.0464
954.844 1.1582 1.2682 1.4782 1.6082 1.8082 2.1082 2.2182 2.5682 3.0082 3.3582
974.134 3.7782 4.2982 4.8182 5.2882 5.5682 5.7482 5.9182 5.8682 5.8782 5.8782
993.424 5.9082 5.8182 5.7482 5.5982 5.4282 5.7082 5.9482 6.1882 6.3582 6.7382
1012.714 7.4982 8.1582 9.0682 10.2582 11.3582 12.4382 13.8182 15.4382 16.8882 18.1282
1032.003 19.1582 19.7582 19.6982 19.4582 19.0782 18.1882 17.0582 16.0682 14.7082 13.1582
1051.293 11.9082 10.8782 10.1582 9.4982 8.6182 8.1682 7.8282 7.3882 7.3482 7.4082
1070.583 7.2082 7.1282 7.5782 8.0082 8.6182 9.4282 9.9082 9.5182 8.9382 8.8182
1089.873 8.7482 8.2882 7.3982 6.5982 5.6682 4.8282 4.1382 3.4482 3.1682 2.8382
1109.163 2.2082 1.9182 1.8882 1.8182 1.7782 1.5182 1.4782 1.4482 1.1682 0.9857
1128.452 1.2082 1.4882 1.5482 1.5882 1.4882 1.5182 1.5782 1.8182 1.7982 1.9282
1147.742 2.4082 2.9082 3.5282 3.6582 3.6982 3.4682 3.3082 3.4782 3.6282 3.8882
1167.032 3.8582 3.9582 4.5382 5.4182 6.3182 7.0682 7.7482 8.1482 8.2482 8.1382
1186.322 8.0082 7.8482 7.5782 7.1382 6.5982 6.4582 6.5382 6.8282 7.0882 7.3382
1205.611 7.8282 7.9582 7.7382 7.5082 6.8982 6.1582 5.5282 4.6682 3.8682 3.1082
1224.901 2.5082 2.4982 2.5582 2.2882 2.3382 2.2782 2.1082 2.2782 2.3982 2.4182
1244.191 2.4782 2.4982 2.6182 2.6082 2.4682 2.5982 2.5782 2.5082 2.3782 2.0882
1263.481 1.9382 1.9982 2.0882 2.0082 1.9782 2.1082 2.1782 2.0882 2.0082 2.0382
1282.771 1.9582 1.8682 1.8682 1.8882 1.7782 1.5782 1.4682 1.4182 1.4382 1.4782
1302.060 1.4782 1.5182 1.5782 1.6582 1.7482 1.7382 1.7782 1.9182 1.9882 1.9082
1321.350 1.8582 1.8482 1.8582 1.8582 1.7882 1.7882 1.7482 1.6882 1.6882 1.6882
1340.640 1.6882 1.6982 1.6882 1.6782 1.6982 1.6982 1.7582 1.7882 1.8082 1.8382
1359.930 1.8982 1.9782 2.0382 2.1282 2.2482 2.4682 2.6882 2.8382 3.0282 3.2782
1379.219 3.5082 3.7982 4.0482 4.1682 4.2182 4.1982 4.1482 4.1882 4.1582 3.9982
1398.509 3.7482 3.4682 3.2382 3.1082 3.0582 3.0482 3.1682 3.4582 3.8582 4.2982
1417.799 4.7682 5.3182 5.8682 6.4282 6.9182 7.4182 7.8882 8.2982 8.7382 9.1682
1437.089 9.6482 10.2182 10.8682 11.5782 12.2582 12.9682 13.5582 14.0982 14.6082 15.0682
1456.378 15.5082 15.9482 16.3382 16.5982 16.8882 17.1982 17.4982 17.9782 18.6382 19.5182
1475.668 20.5582 21.7782 23.1682 24.6882 26.3282 27.9782 29.4282 30.6282 31.5582 32.1982
1494.958 32.5482 32.5582 32.2782 31.6382 30.5882 29.3182 27.7582 25.9182 23.9682 21.9682
1514.248 19.8682 17.7382 15.6582 13.7382 12.0882 10.7882 9.7382 8.9282 8.2982 7.8682
1533.538 7.6382 7.5282 7.4982 7.6382 7.8082 7.9782 8.2982 8.7882 9.3782 10.0082
1552.827 10.8982 12.0482 13.3182 14.8682 16.5382 18.2782 19.9882 21.5382 22.9882 24.3282
1572.117 25.5682 26.7482 27.7382 28.4682 28.9582 29.2582 29.5682 29.9782 30.3182 30.4182
1591.407 30.3082 29.9082 29.0782 27.8882 26.2982 24.3982 22.4382 20.3182 18.1082 15.9782
1610.697 13.9282 11.8682 10.0182 8.4482 7.1182 6.0782 5.1482 4.4582 3.9682 3.4582
1629.986 3.0682 2.7882 2.5282 2.3682 2.2182 2.1182 2.0982 2.0082 2.0082 2.0882
1649.276 2.0982 2.1182 2.0682 2.0582 2.1282 2.1982 2.1982 2.0882 2.0082 2.0082
1668.566 1.9182 1.8182 1.7482 1.6082 1.4182 1.2682 1.1482 1.027 0.9711 0.9058
1687.856 0.7684 0.6592 0.6268 0.5709 0.5152 0.483 0.4408 0.4304 0.3916 0.3889
1707.146 0.4792 0.5491 0.5389 0.487 0.451 0.4977 0.5567 0.5312 0.5623 0.5921
1726.435 0.5789 0.5784 0.5836 0.6383 0.6842 0.6254 0.5882 0.6022 0.6458 0.6972
1745.725 0.678 0.7166 0.8 0.8799 0.9409 1.0145 1.1282 1.2382 1.2782 1.2982
1765.015 1.3482 1.3682 1.3782 1.3782 1.3082 1.2282 1.1882 1.0982 0.983 0.8257
1784.305 0.6353 0.5484 0.4752 0.4612 0.4767 0.4105 0.3706 0.374 0.3451 0.358
1803.594 0.4074 0.3808 0.3437 0.3518 0.428 0.5136 0.5022 0.5161 0.5751 0.5756
1822.884 0.6348 0.7739 0.8902 0.9758 1.1282 1.2682 1.3882 1.5282 1.6082 1.6382
1842.174 1.6682 1.6482 1.5482 1.4282 1.3182 1.2082 1.0882 0.9543 0.8245 0.7448
1861.464 0.7056 0.7075 0.6363 0.5747 0.6007 0.6304 0.6353 0.6195 0.5986 0.6076
1880.754 0.6312 0.6194 0.6618 0.7416 0.8353 0.9035 0.9636 1.0551 1.1182 1.2482
1900.043 1.3882 1.5682 1.7482 1.8482 2.0082 2.1282 2.1682 2.2082 2.1882 2.1282
1919.333 2.1182 2.0082 1.7982 1.5882 1.3882 1.1882 1.0301 0.8765 0.7574 0.6546
1938.623 0.5701 0.4812 0.4166 0.4374 0.4616 0.4504 0.3721 0.3353 0.4017 0.4159
1957.913 0.3752 0.3968 0.4205 0.4741 0.5413 0.5551 0.5883 0.5981 0.576 0.6135
1977.202 0.6338 0.5993 0.614 0.6882 0.6413 0.5883 0.5999 0.5937 0.6257 0.6384
1996.492 0.6727 0.6576 0.6018 0.5881 0.6278 0.6858 0.6975 0.6884 0.6829 0.7076
2015.782 0.7191 0.7209 0.7691 0.8523 0.9167 0.9147 0.9391 0.9458 0.9386 0.9842
2035.072 0.9928 1.0508 1.0982 1.1882 1.2482 1.2982 1.3882 1.4182 1.4482 1.4582
2054.362 1.5082 1.6682 1.7882 1.8582 2.0082 2.1182 2.2082 2.3082 2.3982 2.5782
2073.651 2.7082 2.8082 2.9482 3.1082 3.2682 3.4082 3.5582 3.7782 4.0282 4.1882
2092.941 4.3882 4.6482 4.9082 5.1482 5.3982 5.6182 5.8282 6.0082 6.2182 6.4182
2112.231 6.6082 6.7982 6.8982 6.9882 7.1682 7.3282 7.4582 7.6682 7.8382 8.0182
2131.521 8.2282 8.4882 8.7982 9.1282 9.4882 9.9482 10.5182 11.1382 11.7482 12.5182
2150.810 13.3882 14.3082 15.2582 16.2182 17.3182 18.4482 19.6682 20.9882 22.3482 23.6782
2170.100 24.8982 26.2082 27.4982 28.6882 29.8482 30.8482 31.8482 32.7682 33.6182 34.4282
2189.390 35.2082 36.0682 37.0482 38.1782 39.3682 40.6582 42.1482 43.8982 45.9282 48.0182
2208.680 50.3482 52.8182 55.3382 58.0782 60.7982 63.5482 66.3682 69.2082 72.1182 75.1182
2227.970 78.2082 81.6282 85.4582 89.8482 95.1082 101.338 108.688 117.498 128.128 140.928
2247.259 156.238 174.518 196.278 222.098 252.588 288.038 328.948 375.428 426.348 479.908
2266.549 533.858 585.028 630.388 668.498 697.788 715.328 719.198 707.948 682.248 645.828
2285.839 601.758 552.748 501.468 449.738 399.218 351.708 308.588 270.808 238.648 211.558
2305.129 189.038 170.348 154.708 141.368 129.628 119.048 109.388 100.538 92.4782 85.1082
2324.418 78.4982 72.6582 67.5582 63.2982 59.7382 56.8582 54.6082 52.8382 51.5582 50.6482
2343.708 50.0282 49.8882 50.2182 50.9582 51.9982 53.3882 55.1482 57.0482 58.8082 60.2282
2362.998 61.1482 61.2482 60.5182 59.1182 57.0682 54.4082 51.3282 47.8882 44.2582 40.5382
2382.288 36.8682 33.3582 30.1182 27.1482 24.4382 22.0882 19.9382 17.9882 16.3182 14.9382
2401.578 13.6582 12.5382 11.6282 10.6782 9.8882 9.2582 8.6882 8.1182 7.6682 7.3282
2420.867 7.0382 6.7682 6.5082 6.3182 6.1682 6.1182 6.0682 5.9782 5.9782 5.9482
2440.157 5.8782 5.7882 5.6382 5.4982 5.3382 5.0882 4.8182 4.5882 4.3482 4.0982
2459.447 3.8382 3.5282 3.3182 3.1882 2.9282 2.7382 2.6182 2.3382 2.1082 2.0682
2478.737 1.9482 1.8082 1.8182 1.8082 1.6482 1.5682 1.5082 1.4482 1.4682 1.4082
2498.026 1.3682 1.3882 1.3082 1.2282 1.2182 1.2182 1.2182 1.2482 1.1382 1.1182
2517.316 1.2182 1.1482 1.1782 1.2282 1.2082 1.1682 1.1282 1.1482 1.1282 1.1082
2536.606 1.1182 1.0882 1.0361 0.9897 0.9883 1.0241 0.9847 0.9955 1.0266 0.9631
2555.896 0.93 0.8789 0.9138 1.0016 0.9832 0.9744 1.0113 1.0298 1.0039 0.992
2575.186 0.9764 0.9486 0.9594 0.9679 0.8768 0.7921 0.7989 0.7887 0.7821 0.7527
2594.475 0.7026 0.717 0.719 0.6687 0.6081 0.6073 0.6777 0.726 0.6286 0.5746
2613.765 0.5594 0.5603 0.5633 0.5191 0.5187 0.5229 0.5333 0.5568 0.5473 0.5534
2633.055 0.6161 0.5607 0.5228 0.5199 0.5524 0.5959 0.5752 0.601 0.6428 0.6673
2652.345 0.6293 0.5567 0.5946 0.6673 0.7129 0.7855 0.773 0.7593 0.7419 0.7539
2671.634 0.8055 0.8421 0.9201 0.9282 0.9265 0.9425 1.0465 1.1382 1.2182 1.2582
2690.924 1.2482 1.3582 1.4482 1.4082 1.4582 1.5582 1.7082 1.8082 1.8582 1.9782
2710.214 2.0682 2.0882 2.1082 2.1182 2.0082 2.0282 2.1282 2.1782 2.0982 1.9482
2729.504 1.9582 1.9582 1.8382 1.7582 1.7782 1.7882 1.7682 1.7882 1.7682 1.6582
2748.794 1.5682 1.5382 1.5482 1.4582 1.3082 1.1882 1.1582 1.1982 1.2282 1.1782
2768.083 1.1882 1.1882 1.1482 1.2182 1.1682 1.1282 1.0882 1.1482 1.2682 1.2082
2787.373 1.2282 1.3282 1.4082 1.3982 1.3482 1.3682 1.3982 1.4682 1.4282 1.3582
2806.663 1.4682 1.5282 1.5382 1.5982 1.6382 1.7082 1.7182 1.6982 1.7382 1.8082
2825.953 1.8982 2.0282 2.1582 2.2282 2.3382 2.5082 2.6482 2.6882 2.8182 2.9882
2845.242 3.2582 3.5582 3.8482 4.1182 4.4482 4.8282 5.1982 5.8082 6.4582 7.0782
2864.532 7.5282 8.1282 8.8882 9.4282 9.9982 10.4682 10.6982 10.7782 10.8182 10.8682
2883.822 10.8582 10.7482 10.5882 10.3182 10.0782 9.9682 9.8882 9.8682 9.8182 9.9182
2903.112 10.1682 10.3282 10.4682 10.7682 11.3082 12.0182 12.8382 13.7382 14.7182 15.8082
2922.401 17.1282 18.5382 20.0082 21.4582 22.6482 23.6482 24.3282 24.7682 25.0282 24.9982
2941.691 24.7982 24.3882 23.6882 22.8482 21.9182 21.1282 20.5382 19.7582 18.9582 18.2782
2960.981 17.4482 16.5682 15.7982 15.2982 14.8582 14.4682 14.2582 14.0782 13.9382 13.9682
2980.271 13.9382 13.6082 13.2082 12.8282 12.3782 11.8182 11.2082 10.5682 9.8582 9.3282
2999.561 8.9082 8.4382 8.0882 7.9782 8.0482 8.1582 8.3582 8.6482 9.0282 9.3582
3018.850 9.5882 9.9482 10.2682 10.4582 10.6582 10.8482 10.8782 10.8782 10.8982 10.8982
3038.140 10.8682 10.9082 11.1282 11.3182 11.6282 11.9782 12.5382 13.2982 13.8882 14.6182
3057.430 15.4582 16.2482 16.9782 17.6082 18.1282 18.3482 18.2982 17.9582 17.3882 16.6682
3076.720 15.6982 14.5482 13.3182 12.0882 10.9082 9.5982 8.3282 7.4182 6.6382 5.9582
3096.009 5.4482 4.8382 4.3582 4.0182 3.6282 3.3282 3.1982 3.0582 2.8182 2.7282
3115.299 2.6782 2.6082 2.5882 2.5682 2.5482 2.5882 2.6782 2.6182 2.4982 2.5782
3134.589 2.7582 2.8582 2.7982 2.6082 2.5582 2.5282 2.3882 2.2682 2.1182 1.9482
3153.879 1.8582 1.7382 1.6182 1.5282 1.4182 1.2582 1.1982 1.1482 0.9972 0.8983
3173.169 0.8475 0.7899 0.7487 0.6474 0.5127 0.5212 0.6007 0.6038 0.5524 0.4831
3192.458 0.3974 0.4196 0.4675 0.5218 0.5392 0.4144 0.2704 0.2464 0.2108 0.16811
3211.748 0.15061 0.11926 0.1902 0.1741 0.16735 0.3023 0.2813 0.2952 0.3399 0.3248
3231.038 0.3601 0.3181 0.3278 0.3631 0.3178 0.2733 0.3425 0.4024 0.3394 0.2681
3250.328 0.3001 0.4294 0.4011 0.2949 0.3698 0.4497 0.3972 0.3298 0.3292 0.3657
3269.617 0.4915 0.5492 0.5801 0.6258 0.5561 0.5529 0.6353 0.6505 0.6302 0.602
3288.907 0.6835 0.8205 0.8822 0.9845 1.0349 1.0563 1.1482 1.1382 1.0982 1.2082
3308.197 1.2482 1.2082 1.1582 1.2682 1.3882 1.2982 1.3382 1.2382 1.0474 1.0107
3327.487 0.9509 1.0331 1.1182 1.0338 0.8127 0.6387 0.7407 0.805 0.6411 0.5581
3346.777 0.5421 0.6004 0.7163 0.6477 0.6679 0.7033 0.5855 0.6668 0.6932 0.6646
3366.066 0.6067 0.4881 0.583 0.5788 0.4284 0.4807 0.5708 0.5907 0.6391 0.5509
3385.356 0.4579 0.4624 0.5109 0.5385 0.5668 0.6188 0.615 0.6952 0.6406 0.5704
3404.646 0.5424 0.6186 0.8849 0.7834 0.6799 0.8324 0.9301 0.9403 1.0335 1.0882
3423.936 1.0631 1.2182 1.3282 1.3682 1.3782 1.3982 1.3282 1.2582 1.3682 1.4782
3443.225 1.5482 1.5382 1.5782 1.5882 1.6182 1.6982 1.7682 1.8882 1.9082 1.8282
3462.515 1.7882 1.8482 1.9682 2.1082 2.1582 2.1182 2.1782 2.2082 2.2382 2.3182
3481.805 2.2282 2.2082 2.2982 2.1382 1.8482 1.6882 1.6782 1.5682 1.3582 1.2782
3501.095 1.2682 1.1382 0.918 0.8278 0.8698 0.8982 0.7224 0.7158 0.7692 0.6486
3520.385 0.7189 0.8493 0.7918 0.6583 0.6696 0.7715 0.7611 0.6498 0.6295 0.618
3539.674 0.7328 0.7066 0.596 0.6059 0.6671 0.5935 0.4526 0.533 0.5393 0.6399
3558.964 0.6003 0.4324 0.4946 0.5512 0.5034 0.5116 0.6594 0.7717 0.7963 0.8447
3578.254 0.8897 0.8405 0.7808 0.7483 0.6744 0.7036 0.691 0.6953 0.747 0.7721
3597.544 0.832 0.8776 0.889 0.7935 0.8061 0.9705 1.0354 1.0159 0.976 0.9405
3616.833 1.0782 1.0682 1.0292 1.0882 1.2382 1.2282 1.039 1.1082 1.2382 1.3482
3636.123 1.3482 1.4782 1.5682 1.6082 1.5982 1.5982 1.7482 1.8682 1.9382 1.9282
3655.413 2.0282 2.1082 2.1382 2.2382 2.2482 2.2882 2.3582 2.3382 2.3282 2.4682
3674.703 2.6382 2.6382 2.6582 2.7082 2.7382 2.8282 2.8282 2.7682 2.8082 2.8382
3693.993 2.8082 2.7982 2.7682 2.7582 2.7682 2.7182 2.7282 2.6682 2.5082 2.3382
3713.282 2.1982 2.1882 2.2282 2.1082 1.9082 1.8282 1.8382 1.8582 1.7782 1.6682
3732.572 1.7682 1.9082 1.7482 1.6482 1.6582 1.5882 1.6182 1.6782 1.7582 1.7982
3751.862 1.7482 1.7882 1.7782 1.7882 1.8982 1.9882 2.0382 1.9682 2.1582 2.4382
3771.152 2.4082 2.3182 2.3382 2.2882 2.1482 2.1682 2.2082 2.0682 1.8782 1.8882
3790.441 1.8182 1.6682 1.6282 1.5382 1.5382 1.4682 1.3182 1.3882 1.3582 1.2982
3809.731 1.3082 1.2982 1.1882 1.0982 1.2282 1.2782 1.0882 0.9637 0.8941 0.9135
3829.021 0.9023 0.8146 0.8001 0.8567 0.8807 0.8755 0.823 0.7156 0.7474 0.6761
3848.311 0.6474 0.753 0.7198 0.6945 0.7343 0.7618 0.736 0.5926 0.7141 0.8831
3867.601 0.6713 0.6006 0.6459 0.6669 0.7285 0.5955 0.5732 0.7008 0.6522 0.6248
3886.890 0.7178 0.7067 0.6661 0.6841 0.6486 0.4683 0.3689 0.5612 0.4802 0.1917
3906.180 0.2203 0.2805 0.33 0.4128 0.4414 0.4202 0.4218 0.3209 0.1403 0.1436
3925.470 0.22 0.2587 0.2371 0.2947 0.4037 0.2387 0.13538 0.2311 0.15195 0.15619
3944.760 0.1696 0.14852 0.11937 0.0121 0.0053 0.2862 0.2748 0.10694 0.232 0.1862
3964.049 0.12925 0.2545 0.2642 0.16792 0.15415 0.13482 0.09847 0.0165 0 0.1221
3983.339 0.14524 0.16611 0.15311 0.2033 0.1917 0.13371 0.11754 0.06436 0.11661 0.1956
##END=
