##TITLE=2-Bromophenyl isocyanate
##JCAMP-DX=4.24
##DATA TYPE=INFRARED SPECTRUM
##ORIGIN=EPA-IR VAPOR PHASE LIBRARY
##OWNER=SRD/NIST
Collection (C) 2018 copyright by the U.S. Secretary of Commerce
on behalf of the United States of America. All rights reserved.
##CAS REGISTRY NO=1592-00-3
##MOLFORM=C 7 H 4 Br N O
##$NIST SOURCE=MSDC-IR
##STATE=gas
##XUNITS=1/CM
##YUNITS=ABSORBANCE
##XFACTOR=1.
##YFACTOR=0.001
##DELTAX=1.92898
##FIRSTX=549.8
##LASTX=4000.7
##FIRSTY=5.735
##MAXX=4000.7
##MINX=549.759
##MAXY=0.960015
##MINY=0
##NPOINTS=1790
##XYDATA=(X++(Y..Y))
549.759 5.735 6.335 7.275 7.925 8.285 8.795 9.455 10.155 10.795 11.025
569.049 11.435 11.985 12.075 12.705 12.955 12.955 13.555 14.485 15.465 16.225
588.339 17.545 19.145 21.005 22.855 24.455 26.255 27.355 27.565 27.255 26.525
607.628 25.605 24.485 23.185 21.775 20.365 19.195 17.905 16.655 15.935 15.385
626.918 14.835 14.225 13.735 13.645 13.705 13.555 13.655 14.155 14.525 15.085
646.208 16.015 16.585 16.865 17.185 17.305 17.315 17.145 16.275 14.515 12.685
665.498 11.195 9.755 8.755 8.055 7.225 6.425 5.795 5.415 5.125 4.935
684.787 4.925 4.875 4.915 5.165 5.335 5.375 5.425 5.595 5.815 5.815
704.077 5.605 5.215 4.775 4.705 4.675 4.475 4.535 4.825 4.985 5.405
723.367 6.195 7.505 9.705 13.025 17.955 25.285 35.105 46.625 58.595 69.575
742.657 79.145 91.385 112.995 143.355 151.875 117.165 86.965 79.485 74.105 65.215
761.947 53.535 41.895 32.285 25.375 21.085 18.575 17.175 16.275 15.305 14.205
781.236 13.325 12.575 11.535 10.615 9.705 8.665 7.675 6.715 5.845 5.045
800.526 4.155 3.505 3.085 2.815 2.825 2.615 2.335 2.395 2.245 2.185
819.816 2.425 2.605 2.655 2.645 2.645 2.825 2.905 2.695 2.645 2.755
839.106 2.635 2.615 2.595 2.535 2.785 2.845 2.875 2.935 2.695 2.275
858.395 1.835 1.655 1.585 1.325 0.9556 1.0767 1.375 1.295 1.235 1.305
877.685 1.315 1.245 1.315 1.255 1.195 1.205 1.205 1.1083 0.9596 0.9654
896.975 0.8672 0.7287 0.6815 0.6277 0.6063 0.6504 0.639 0.5466 0.4761 0.489
916.265 0.4798 0.4005 0.5308 0.9785 1.345 1.595 1.845 2.125 2.545 3.085
935.555 4.005 5.135 5.235 3.865 2.925 2.905 2.635 2.325 2.095 1.695
954.844 1.435 1.325 1.1164 1.125 1.305 1.295 1.155 1.0067 1.0991 1.175
974.134 1.1142 1.205 1.175 0.9986 1.125 1.215 1.265 1.615 1.735 1.835
993.424 1.885 2.045 2.145 2.245 2.525 2.665 3.105 4.215 5.465 7.105
1012.714 9.485 12.465 16.525 21.045 25.625 29.865 33.545 37.275 41.635 46.555
1032.003 51.595 54.785 54.305 51.045 47.555 45.565 43.645 39.705 32.915 24.595
1051.293 17.105 11.685 8.205 5.965 4.655 4.115 3.825 3.455 3.155 2.605
1070.583 2.445 2.705 2.525 2.145 2.035 2.165 2.135 2.235 2.335 2.585
1089.873 2.865 3.005 3.475 4.425 5.865 7.455 8.685 10.345 12.915 15.105
1109.163 16.965 18.745 19.645 19.855 19.975 19.945 19.255 17.735 16.125 15.105
1128.452 13.855 12.765 12.835 13.305 13.915 14.355 14.735 15.015 15.275 15.475
1147.742 15.695 15.835 15.685 15.795 15.855 15.875 16.085 16.045 15.895 15.765
1167.032 15.195 14.505 13.695 12.515 11.365 10.415 9.255 8.165 7.335 6.765
1186.322 6.435 5.905 5.455 5.325 4.905 4.325 4.175 3.795 3.595 3.615
1205.611 3.375 3.195 3.005 3.045 2.955 2.615 2.395 2.705 3.275 2.905
1224.901 2.545 2.845 2.915 3.035 3.115 2.895 2.795 2.885 2.885 3.205
1244.191 3.725 4.475 5.465 6.185 6.865 7.535 7.925 8.105 8.225 8.335
1263.481 8.105 7.375 6.365 5.635 5.105 4.645 4.225 3.685 3.345 3.185
1282.771 2.965 2.675 2.525 2.295 2.005 1.915 1.885 1.765 1.645 1.565
1302.060 1.545 1.435 1.295 1.265 1.295 1.265 1.195 1.195 1.195 1.145
1321.350 1.0676 0.9632 0.9607 1.0826 1.0678 0.9617 0.9015 0.9483 0.9557 0.9235
1340.640 0.9386 0.8977 0.8663 0.8024 0.8356 0.947 1.0402 1.07 1.135 1.205
1359.930 1.315 1.545 1.745 1.945 2.155 2.365 2.535 2.725 2.815 2.835
1379.219 2.845 2.755 2.595 2.535 2.535 2.505 2.585 2.795 3.075 3.435
1398.509 3.745 3.945 4.175 4.375 4.565 4.825 5.215 5.895 6.795 7.895
1417.799 9.285 10.885 12.325 13.435 14.355 15.185 16.195 17.155 17.895 18.545
1437.089 19.245 20.235 21.495 22.775 23.555 23.845 23.825 23.455 22.625 21.345
1456.378 19.825 17.995 16.185 14.765 13.755 13.225 13.225 13.515 13.985 14.615
1475.668 15.515 16.615 17.975 19.455 21.035 22.955 25.055 27.315 29.845 32.545
1494.958 35.525 38.875 42.485 46.665 51.385 56.475 62.095 67.795 72.765 76.365
1514.248 78.095 77.925 76.255 73.225 68.425 62.185 54.775 47.025 39.805 33.495
1533.538 28.165 23.685 20.105 17.335 15.345 13.975 13.165 12.655 12.355 12.325
1552.827 12.435 12.565 12.825 13.155 13.605 14.145 14.575 15.125 16.075 17.515
1572.117 19.625 22.465 26.285 31.095 36.625 42.885 49.325 54.935 58.945 61.045
1591.407 60.855 58.775 55.345 50.515 44.245 36.875 29.075 21.895 16.255 12.365
1610.697 9.765 7.755 6.395 5.345 4.435 3.715 3.175 2.815 2.525 2.385
1629.986 2.275 2.105 1.905 1.735 1.665 1.605 1.495 1.375 1.275 1.185
1649.276 1.1084 1.0537 1.0123 0.9629 0.9676 1.0009 1.0662 1.165 1.215 1.245
1668.566 1.335 1.505 1.685 1.845 2.165 2.475 2.665 2.815 2.805 2.745
1687.856 2.715 2.695 2.585 2.385 2.185 2.085 1.965 1.815 1.855 1.935
1707.146 1.955 2.005 1.995 1.835 1.725 1.645 1.515 1.385 1.355 1.255
1726.435 1.125 1.145 1.1224 0.9591 0.8542 0.8677 0.891 0.8582 0.8264 0.8239
1745.725 0.7818 0.7491 0.7371 0.7264 0.7668 0.7778 0.7954 0.8673 0.9028 0.9335
1765.015 1.0251 1.155 1.305 1.465 1.655 1.915 2.245 2.605 2.945 3.235
1784.305 3.425 3.405 3.365 3.305 3.165 2.935 2.645 2.335 2.035 1.805
1803.594 1.655 1.615 1.645 1.725 1.895 2.085 2.235 2.305 2.305 2.325
1822.884 2.295 2.195 1.985 1.785 1.645 1.425 1.205 1.1131 1.0282 0.9265
1842.174 0.8914 0.862 0.8146 0.8074 0.8144 0.8439 0.855 0.8386 0.9287 1.0553
1861.464 1.205 1.385 1.575 1.835 1.955 2.055 2.195 2.185 2.185 2.155
1880.754 2.025 1.915 1.795 1.755 1.805 1.965 2.255 2.555 2.945 3.415
1900.043 3.815 4.125 4.355 4.435 4.365 4.125 3.805 3.515 3.175 2.805
1919.333 2.415 2.175 2.165 2.235 2.425 2.735 3.045 3.395 3.635 3.785
1938.623 3.905 3.905 3.785 3.535 3.235 2.865 2.465 2.065 1.695 1.435
1957.913 1.225 1.0879 0.9896 1.0191 1.0855 1.1185 1.1151 1.0977 1.1191 1.155
1977.202 1.145 1.195 1.245 1.265 1.335 1.295 1.245 1.295 1.385 1.475
1996.492 1.475 1.415 1.495 1.625 1.625 1.625 1.605 1.685 1.785 1.735
2015.782 1.715 1.795 1.935 2.005 2.015 2.075 2.185 2.195 2.215 2.375
2035.072 2.475 2.505 2.575 2.635 2.765 2.835 2.845 2.925 3.035 3.195
2054.362 3.345 3.405 3.455 3.585 3.745 3.815 3.875 3.955 4.055 4.225
2073.651 4.375 4.535 4.655 4.765 4.945 5.125 5.255 5.405 5.595 5.715
2092.941 5.755 5.885 6.045 6.155 6.295 6.375 6.565 6.935 7.305 7.665
2112.231 8.055 8.495 8.895 9.225 9.565 9.965 10.435 10.865 11.285 11.765
2131.521 12.285 12.785 13.335 14.025 14.805 15.725 16.705 17.805 19.005 20.215
2150.810 21.505 22.815 24.085 25.405 26.775 28.195 29.695 31.255 32.885 34.645
2170.100 36.515 38.595 40.795 43.135 45.555 47.935 50.245 52.485 54.715 56.985
2189.390 59.365 61.725 64.045 66.515 69.245 72.165 75.285 78.615 82.125 85.735
2208.680 89.395 93.065 96.755 100.495 104.175 107.795 111.605 115.825 120.505 125.995
2227.970 132.425 139.895 148.845 159.615 172.835 189.115 208.805 232.485 260.845 294.975
2247.259 335.695 383.655 439.045 501.275 569.645 642.255 716.285 786.825 848.955 897.875
2266.549 932.055 952.895 960.015 954.205 934.915 904.065 866.265 826.215 786.935 750.135
2285.839 715.665 682.355 649.815 617.295 583.575 547.815 510.545 472.195 433.585 395.805
2305.129 359.495 325.135 292.875 262.975 235.865 211.805 191.145 173.705 158.995 146.785
2324.418 136.505 127.715 120.235 113.725 107.885 102.605 97.715 93.035 88.775 84.945
2343.708 81.385 78.405 75.995 74.215 72.935 72.225 72.185 72.455 72.905 73.425
2362.998 73.765 73.685 73.125 72.085 70.385 68.235 65.725 62.625 59.195 55.615
2382.288 51.865 48.185 44.695 41.325 38.055 34.945 31.985 29.205 26.675 24.375
2401.578 22.245 20.275 18.485 16.815 15.335 14.105 12.935 11.905 11.125 10.395
2420.867 9.665 9.095 8.575 8.105 7.625 7.245 6.885 6.525 6.275 6.035
2440.157 5.765 5.535 5.375 5.265 5.115 4.935 4.855 4.725 4.595 4.605
2459.447 4.665 4.685 4.565 4.415 4.465 4.555 4.615 4.605 4.495 4.525
2478.737 4.545 4.395 4.245 4.215 4.155 3.945 3.795 3.605 3.365 3.205
2498.026 3.085 2.985 2.865 2.695 2.595 2.555 2.465 2.365 2.335 2.395
2517.316 2.405 2.345 2.335 2.405 2.415 2.525 2.725 2.715 2.705 2.795
2536.606 2.855 2.945 2.965 2.945 2.935 2.925 2.985 2.945 2.945 3.015
2555.896 3.035 3.085 3.025 2.905 2.835 2.765 2.715 2.595 2.455 2.355
2575.186 2.245 2.055 1.965 1.935 1.875 1.835 1.755 1.705 1.735 1.775
2594.475 1.735 1.665 1.605 1.605 1.565 1.475 1.395 1.365 1.405 1.365
2613.765 1.295 1.265 1.195 1.1056 1.145 1.1212 1.038 1.0339 0.9408 0.8818
2633.055 0.9162 0.9386 0.9046 0.866 0.8283 0.802 0.8642 0.8977 0.8916 0.9285
2652.345 0.8658 0.8929 0.8959 0.9761 1.0397 0.9919 0.9566 0.8401 0.8837 0.9716
2671.634 1.1008 1.125 1.155 1.225 1.175 1.225 1.215 1.235 1.325 1.325
2690.924 1.255 1.305 1.445 1.485 1.525 1.575 1.605 1.685 1.655 1.655
2710.214 1.695 1.745 1.815 1.795 1.825 1.815 1.765 1.825 1.835 1.725
2729.504 1.735 1.845 1.985 1.985 1.955 2.055 2.095 2.105 2.095 2.095
2748.794 2.145 2.205 2.195 2.155 2.115 2.005 1.955 2.005 1.945 1.905
2768.083 1.975 1.935 1.915 1.905 1.845 1.825 1.795 1.705 1.635 1.615
2787.373 1.565 1.535 1.565 1.595 1.535 1.405 1.295 1.335 1.445 1.435
2806.663 1.405 1.395 1.395 1.365 1.235 1.175 1.195 1.215 1.305 1.325
2825.953 1.295 1.335 1.315 1.325 1.405 1.425 1.375 1.275 1.175 1.225
2845.242 1.365 1.395 1.345 1.445 1.525 1.425 1.365 1.465 1.555 1.545
2864.532 1.525 1.505 1.585 1.625 1.705 1.865 1.845 1.875 1.985 2.005
2883.822 2.155 2.295 2.405 2.435 2.405 2.435 2.605 2.725 2.665 2.625
2903.112 2.615 2.615 2.575 2.455 2.275 2.215 2.275 2.305 2.205 2.155
2922.401 2.215 2.315 2.405 2.425 2.425 2.315 2.225 2.265 2.295 2.235
2941.691 2.135 2.025 1.865 1.755 1.765 1.755 1.705 1.665 1.625 1.565
2960.981 1.535 1.445 1.405 1.415 1.355 1.465 1.515 1.525 1.535 1.545
2980.271 1.595 1.615 1.625 1.595 1.635 1.685 1.805 1.925 1.855 1.915
2999.561 2.115 2.305 2.475 2.665 2.755 2.825 3.075 3.365 3.585 3.855
3018.850 4.035 4.245 4.625 4.785 4.845 5.115 5.315 5.345 5.525 5.535
3038.140 5.605 5.925 6.085 6.385 6.805 7.205 7.755 8.485 9.405 10.515
3057.430 12.075 13.965 15.985 18.265 20.665 22.835 24.685 25.935 26.525 26.475
3076.720 25.735 24.565 22.695 20.415 18.125 15.735 13.425 11.525 10.055 8.765
3096.009 7.515 6.475 5.695 5.065 4.515 3.945 3.495 3.085 2.865 2.675
3115.299 2.445 2.435 2.305 2.095 2.025 2.035 1.995 1.945 1.885 1.925
3134.589 1.995 1.775 1.755 1.855 1.565 1.375 1.365 1.165 1.008 1.0874
3153.879 0.9306 0.7373 0.7229 0.6722 0.6108 0.5537 0.5565 0.5364 0.435 0.4066
3173.169 0.4749 0.5014 0.5182 0.425 0.434 0.4938 0.3399 0.2842 0.337 0.3145
3192.458 0.2679 0.14403 0.14854 0.2545 0.2633 0.1039 0 0.17609 0.3048 0.3821
3211.748 0.2643 0.17614 0.2586 0.14349 0.01 0.0755 0.19966 0.0858 0.003 0.17051
3231.038 0.22115 0.2335 0.18007 0.17407 0.1693 0.09 0.133025 0.22277 0.20984 0.2871
3250.328 0.2573 0.19223 0.2393 0.246 0.3566 0.3632 0.3047 0.21463 0.18408 0.242
3269.617 0.3119 0.3668 0.4016 0.4275 0.5397 0.6166 0.6097 0.6138 0.6428 0.5895
3288.907 0.5577 0.6034 0.7659 0.8894 0.9084 1.0352 1.145 1.195 1.175 1.275
3308.197 1.295 1.275 1.355 1.355 1.285 1.315 1.395 1.395 1.395 1.395
3327.487 1.415 1.385 1.375 1.395 1.485 1.465 1.245 1.295 1.295 1.295
3346.777 1.325 1.365 1.415 1.425 1.495 1.505 1.635 1.715 1.745 1.835
3366.066 1.735 1.635 1.875 2.195 2.345 2.425 2.585 2.695 2.785 2.855
3385.356 3.015 3.205 3.235 3.285 3.415 3.565 3.745 3.845 3.955 4.115
3404.646 4.315 4.585 4.905 5.315 5.605 5.635 5.745 5.975 6.035 6.035
3423.936 6.045 6.105 6.245 6.195 5.955 5.775 5.455 5.185 5.055 4.765
3443.225 4.455 4.115 3.955 3.745 3.395 3.295 3.195 3.005 2.695 2.425
3462.515 2.295 2.115 1.925 1.915 1.955 1.915 1.795 1.615 1.435 1.355
3481.805 1.395 1.345 1.365 1.325 1.185 1.125 1.205 1.215 1.165 1.265
3501.095 1.245 1.0571 0.981 1.1192 1.255 1.325 1.425 1.445 1.265 1.195
3520.385 1.285 1.295 1.335 1.425 1.455 1.415 1.335 1.375 1.425 1.445
3539.674 1.375 1.185 1.185 1.285 1.275 1.245 1.245 1.245 1.205 1.175
3558.964 1.235 1.275 1.205 1.245 1.265 1.275 1.205 1.0062 0.9761 1.0984
3578.254 1.255 1.175 1.135 1.285 1.305 1.275 1.245 1.145 1.195 1.285
3597.544 1.225 1.215 1.205 1.275 1.385 1.395 1.385 1.375 1.395 1.365
3616.833 1.405 1.505 1.605 1.635 1.555 1.495 1.525 1.765 1.925 1.985
3636.123 2.095 2.115 2.245 2.245 2.115 2.155 2.375 2.425 2.425 2.625
3655.413 2.775 2.755 2.895 3.155 3.225 3.445 3.685 3.805 3.925 4.085
3674.703 4.275 4.425 4.485 4.645 4.795 4.885 5.025 5.115 5.135 4.925
3693.993 4.885 4.975 4.735 4.575 4.505 4.495 4.475 4.365 4.155 3.865
3713.282 3.785 3.785 3.745 3.615 3.395 3.195 3.255 3.245 2.925 2.775
3732.572 2.645 2.495 2.455 2.525 2.565 2.365 2.295 2.375 2.295 2.235
3751.862 2.345 2.495 2.615 2.785 2.845 3.015 3.175 3.015 2.985 3.225
3771.152 3.405 3.345 3.335 3.395 3.415 3.355 3.295 3.285 3.275 3.245
3790.441 3.125 3.045 3.015 2.765 2.815 2.965 2.825 2.695 2.715 2.705
3809.731 2.645 2.635 2.355 2.265 2.325 2.055 1.855 1.955 1.925 1.895
3829.021 1.985 1.815 1.755 1.925 1.795 1.565 1.475 1.575 1.575 1.535
3848.311 1.515 1.385 1.495 1.425 1.325 1.205 1.1149 1.225 1.275 1.285
3867.601 1.275 1.295 1.0827 1.0226 1.0437 0.8942 0.8711 0.9724 1.0256 0.95
3886.890 0.801 0.7283 0.8938 0.9774 0.8477 0.6618 0.6205 0.7592 0.788 0.7352
3906.180 0.6928 0.797 0.7675 0.6073 0.5314 0.5534 0.7304 0.842 0.8022 0.6029
3925.470 0.4089 0.3635 0.3229 0.4458 0.5874 0.5008 0.3518 0.3546 0.4541 0.5476
3944.760 0.5561 0.4592 0.4332 0.4221 0.4545 0.4751 0.4041 0.4284 0.4563 0.4049
3964.049 0.3339 0.3571 0.4035 0.3657 0.3494 0.19228 0.11924 0.3454 0.4522 0.434
3983.339 0.4254 0.45 0.4648 0.4229 0.551 0.6033 0.4858 0.4914 0.3983 0.3779
##END=
