##TITLE=2-Naphthalenemethanol
##JCAMP-DX=4.24
##DATA TYPE=INFRARED SPECTRUM
##ORIGIN=NIST Mass Spectrometry Data Center
##OWNER=NIST Standard Reference Data Program
Collection (C) 2018 copyright by the U.S. Secretary of Commerce
on behalf of the United States of America. All rights reserved.
##CAS REGISTRY NO=1592-38-7
##MOLFORM=C 11 H 10 O
##$NIST SOURCE=MSDC-IR
##SPECTROMETER/DATA SYSTEM=HP-GC/MS/IRD
##STATE=gas
##XUNITS=1/CM
##YUNITS=ABSORBANCE
##XFACTOR=1.0
##YFACTOR=0.000000900
##DELTAX=4.0
##FIRSTX=550.0
##LASTX=3846.0
##FIRSTY=0.000573
##MAXX=3846
##MINX=550
##MAXY=0.009
##MINY=0
##NPOINTS=825
##XYDATA=(X++(Y..Y))
550.0 637 520 429 393 238 83 124 254 198 125
590.0 75 0 83 120 110 243 342 402 473 402
630.0 279 170 86 80 87 79 32 79 98 75
670.0 101 78 88 124 163 195 277 356 473 753
710.0 1067 1400 1789 2217 2817 3710 4840 5952 6609 6440
750.0 5546 4448 3372 2422 1744 1356 1137 1103 1206 1445
790.0 1936 2798 3940 5162 6454 7222 6777 5511 4230 3176
830.0 2561 2474 2820 3387 4063 4418 3950 3150 2453 1898
870.0 1571 1501 1668 1911 2088 2066 1838 1540 1266 1048
910.0 875 841 879 948 1064 1199 1461 1775 2173 2535
950.0 2692 2858 2920 2894 2947 3019 3097 3136 3190 3326
990.0 3507 3783 4171 4647 5189 5929 6863 7908 8967 9772
1030.0 10000 9575 8547 7212 5950 4879 4030 3337 2795 2365
1070.0 2044 1781 1532 1302 1114 1003 956 971 1061 1253
1110.0 1552 1977 2419 2608 2551 2318 1977 1770 1702 1725
1150.0 1737 1845 2180 2603 2866 2878 2699 2400 2090 1903
1190.0 1841 1773 1754 1767 1752 1727 1714 1707 1745 1760
1230.0 1728 1715 1688 1632 1618 1630 1687 1823 1949 1982
1270.0 1944 1874 1669 1440 1296 1205 1169 1145 1115 1136
1310.0 1174 1191 1224 1299 1398 1500 1667 1901 2163 2455
1350.0 2792 3147 3477 3776 4072 4345 4548 4675 4677 4568
1390.0 4300 3892 3380 2889 2477 2138 1834 1571 1353 1191
1430.0 1059 967 893 806 747 698 659 693 800 898
1470.0 930 904 805 697 642 709 888 1210 1598 1807
1510.0 1744 1427 953 564 393 329 307 313 299 280
1550.0 278 278 269 278 304 330 366 415 480 580
1590.0 698 788 856 871 803 676 557 474 420 430
1630.0 463 466 456 396 312 272 272 273 279 303
1670.0 332 363 405 445 471 480 457 411 373 373
1710.0 430 505 540 549 512 435 397 394 426 466
1750.0 486 493 465 437 424 421 436 441 437 429
1790.0 393 351 326 300 272 285 340 343 303 283
1830.0 263 232 229 222 202 185 157 137 120 109
1870.0 103 106 122 186 277 369 454 511 557 595
1910.0 584 539 493 460 442 459 517 538 501 411
1950.0 289 176 103 72 61 45 34 42 52 58
1990.0 50 53 70 63 44 57 72 68 73 80
2030.0 79 76 77 84 93 84 69 76 75 61
2070.0 56 47 47 54 53 54 47 34 41 54
2110.0 35 15 16 17 5 4 20 16 10 10
2150.0 14 6 13 22 22 34 25 18 26 34
2190.0 27 2 8 23 34 30 24 24 21 9
2230.0 0 17 13 2 4 13 32 47 51 46
2270.0 62 75 83 98 94 93 109 107 103 114
2310.0 111 90 83 90 60 45 52 34 48 52
2350.0 53 47 32 24 31 60 57 44 51 71
2390.0 71 45 44 39 51 65 51 50 54 59
2430.0 47 57 76 49 31 30 19 23 27 30
2470.0 40 45 45 42 43 43 40 41 66 78
2510.0 63 48 38 31 31 26 20 12 6 14
2550.0 3 4 12 5 0 11 14 19 20 2
2590.0 19 24 14 22 14 7 17 17 24 48
2630.0 70 70 59 67 68 65 68 69 52 47
2670.0 56 81 91 97 108 102 99 107 126 133
2710.0 150 166 154 150 164 151 144 166 183 192
2750.0 215 239 244 248 254 259 285 326 354 380
2790.0 390 398 414 441 468 505 540 576 644 727
2830.0 822 925 1041 1190 1346 1504 1706 1981 2292 2674
2870.0 3142 3578 3893 4026 3963 3714 3430 3194 3020 2907
2910.0 2817 2797 2842 2896 2958 3012 3036 3021 2991 2960
2950.0 2902 2813 2639 2422 2190 1992 1843 1718 1618 1550
2990.0 1527 1507 1568 1716 1899 2155 2487 2817 3063 3196
3030.0 3224 3252 3494 4123 5203 6608 8118 9288 9729 9468
3070.0 8419 6770 5203 4019 3172 2532 1957 1460 1068 753
3110.0 548 434 370 292 235 206 191 180 182 168
3150.0 140 142 167 171 156 134 151 156 106 80
3190.0 85 96 97 58 58 56 40 66 59 47
3230.0 67 82 82 53 38 52 43 10 2 23
3270.0 54 51 24 54 78 73 48 24 33 33
3310.0 50 67 53 39 51 64 73 84 91 101
3350.0 92 74 89 106 120 100 76 101 121 112
3390.0 110 96 104 114 110 115 128 158 157 177
3430.0 184 161 174 173 139 123 182 203 139 138
3470.0 169 175 158 138 140 124 115 146 168 147
3510.0 131 141 176 192 195 202 160 136 134 102
3550.0 124 180 164 153 175 195 203 210 230 215
3590.0 235 279 287 323 333 350 431 517 594 711
3630.0 874 1098 1329 1583 1912 2146 2230 2184 2077 1920
3670.0 1680 1409 1200 1026 891 790 659 573 507 443
3710.0 383 344 297 256 274 284 277 272 249 228
3750.0 211 227 258 251 232 208 222 236 241 261
3790.0 246 238 231 232 276 275 241 230 233 247
3830.0 262 254 222 240 271
##END=
