##TITLE=6-Chloropiperonal
##JCAMP-DX=4.24
##DATA TYPE=INFRARED SPECTRUM
##ORIGIN=EPA-IR VAPOR PHASE LIBRARY
##OWNER=SRD/NIST
Collection (C) 2018 copyright by the U.S. Secretary of Commerce
on behalf of the United States of America. All rights reserved.
##CAS REGISTRY NO=15952-61-1
##MOLFORM=C 8 H 5 Cl O 3
##$NIST SOURCE=MSDC-IR
##STATE=gas
##XUNITS=1/CM
##YUNITS=ABSORBANCE
##XFACTOR=1.
##YFACTOR=0.001
##DELTAX=1.92934
##FIRSTX=549.9
##LASTX=3999.5
##FIRSTY=0.882
##MAXX=3999.53
##MINX=549.863
##MAXY=0.040927
##MINY=0
##NPOINTS=1789
##XYDATA=(X++(Y..Y))
549.863 0.882 0.7985 0.6593 0.50714 0.47725 0.45109 0.4065 0.4147 0.46304 0.43894
569.156 0.44211 0.44377 0.426981 0.47809 0.48163 0.44331 0.44206 0.48183 0.5382 0.5348
588.450 0.5908 0.7518 0.9473 1.2481 1.637 1.917 2.227 2.547 2.677 2.747
607.743 2.797 2.707 2.417 2.077 1.737 1.447 1.2702 1.1456 1.0053 0.8476
627.037 0.7375 0.6394 0.50878 0.49055 0.43492 0.3706 0.3475 0.285 0.242 0.24
646.330 0.249 0.242 0.241 0.2 0.194 0.239 0.274 0.3182 0.3674 0.3456
665.624 0.285 0.3214 0.3428 0.3881 0.47355 0.5379 0.6273 0.7314 0.8585 1.0646
684.917 1.259 1.447 1.577 1.607 1.627 1.567 1.567 1.457 1.2487 1.0159
704.210 0.8235 0.7472 0.651 0.5981 0.6245 0.6841 0.7785 0.8822 1.0136 1.1587
723.504 1.2367 1.2376 1.1444 1.0112 0.9399 0.8013 0.6682 0.5515 0.45831 0.3763
742.797 0.3307 0.3414 0.3211 0.296 0.225 0.265 0.3356 0.3318 0.3339 0.3377
762.091 0.346 0.3947 0.47824 0.5293 0.6271 0.8416 1.1698 1.577 1.977 2.247
781.384 2.417 2.567 2.667 2.667 2.527 2.287 1.977 1.597 1.3359 1.1968
800.678 1.0376 0.9081 0.7714 0.633 0.5638 0.51593 0.50091 0.4528 0.42777 0.4776
819.971 0.5312 0.49927 0.46311 0.5602 0.6556 0.8012 1.0548 1.2685 1.557 1.947
839.264 2.367 2.817 3.247 3.617 3.977 4.207 4.107 3.817 3.497 3.087
858.558 2.727 2.487 2.317 2.217 2.177 2.237 2.337 2.497 2.677 2.847
877.851 3.057 3.347 3.577 3.707 3.587 3.117 2.617 2.237 1.947 1.667
897.145 1.3334 1.0644 0.8492 0.7262 0.7181 0.7209 0.7035 0.7508 0.8514 0.976
916.438 1.1639 1.3919 1.647 1.947 2.337 2.787 3.277 3.837 4.417 4.987
935.732 5.557 6.047 6.347 6.487 6.397 6.097 5.707 5.197 4.577 3.867
955.025 3.067 2.407 1.977 1.707 1.547 1.507 1.607 1.817 2.107 2.457
974.318 2.987 3.757 4.717 5.837 7.017 8.087 8.967 9.497 9.617 9.367
993.612 8.697 7.617 6.237 4.797 3.617 2.827 2.387 2.187 2.157 2.217
1012.905 2.337 2.487 2.747 3.087 3.437 3.907 4.447 5.057 5.787 6.577
1032.199 7.437 8.337 9.217 10.007 10.667 11.217 11.607 11.787 11.797 11.637
1051.492 11.307 10.837 10.257 9.597 8.847 8.017 7.187 6.337 5.537 4.797
1070.786 4.117 3.557 3.097 2.747 2.497 2.307 2.237 2.267 2.357 2.437
1090.079 2.587 2.927 3.357 3.947 4.717 5.597 6.567 7.587 8.517 9.187
1109.372 9.517 9.627 9.597 9.297 8.687 7.757 6.587 5.467 4.517 3.707
1128.666 3.037 2.557 2.187 1.797 1.527 1.34 1.2093 1.0813 0.91 0.7715
1147.959 0.6469 0.638 0.696 0.7087 0.7548 0.8664 0.9209 0.8843 0.8467 0.8733
1167.253 0.8937 0.9902 1.0274 0.8853 0.8619 0.8928 0.6844 0.5852 0.5462 0.342
1186.546 0.3525 0.3922 0.369 0.5183 0.7435 0.8354 0.9208 1.211 1.677 1.987
1205.840 2.337 2.997 3.527 3.907 4.437 5.297 6.117 6.887 7.657 8.567
1225.133 9.687 11.207 13.157 15.427 18.507 22.477 26.777 31.227 35.517 38.807
1244.426 40.687 40.927 39.497 36.697 32.537 27.297 21.537 16.017 11.467 8.167
1263.720 5.927 4.427 3.417 2.677 2.177 1.837 1.607 1.3994 1.1807 1.0646
1283.013 1.0027 0.9618 0.8949 0.808 0.6874 0.643 0.7071 0.7412 0.7402 0.744
1302.307 0.7471 0.723 0.699 0.7128 0.7171 0.7305 0.8035 0.8357 0.867 0.9376
1321.600 1.0772 1.2958 1.507 1.797 2.077 2.307 2.617 2.897 3.097 3.227
1340.894 3.277 3.237 3.147 2.977 2.787 2.567 2.297 2.097 1.977 1.887
1360.187 1.827 1.797 1.827 1.927 2.067 2.277 2.577 2.887 3.237 3.647
1379.480 4.127 4.677 5.287 5.947 6.657 7.277 7.867 8.587 9.457 10.617
1398.774 12.207 14.167 16.357 18.517 20.157 20.887 20.727 19.817 18.147 15.687
1418.067 12.517 8.917 5.887 3.997 3.007 2.487 2.177 1.967 1.847 1.817
1437.361 1.867 1.967 2.177 2.557 3.037 3.677 4.617 5.837 7.427 9.527
1456.654 12.227 15.507 19.187 23.027 26.677 29.827 32.117 33.517 34.037 33.647
1475.948 32.407 30.517 28.147 25.577 22.987 20.487 18.097 15.707 13.357 11.177
1495.241 9.217 7.697 6.787 6.427 6.507 6.657 6.717 6.727 6.597 6.317
1514.534 5.857 5.107 4.217 3.357 2.637 2.157 1.787 1.537 1.3774 1.2288
1533.828 1.1295 1.0761 0.9852 0.9091 0.8692 0.8 0.7633 0.7064 0.6132 0.6028
1553.121 0.5832 0.5367 0.50657 0.48897 0.4925 0.49194 0.50294 0.5138 0.5528 0.6072
1572.415 0.6571 0.7273 0.7447 0.785 0.827 0.8781 1.0038 1.1 1.2248 1.3988
1591.708 1.577 1.827 2.127 2.477 2.917 3.467 4.117 4.797 5.487 6.107
1611.002 6.617 6.937 6.937 6.687 6.267 5.747 5.197 4.597 3.947 3.307
1630.295 2.797 2.367 1.997 1.677 1.437 1.275 1.1329 0.987 0.8668 0.785
1649.588 0.7614 0.7518 0.771 0.8132 0.8448 0.9466 1.0556 1.1152 1.1764 1.2769
1668.882 1.427 1.567 1.737 1.977 2.267 2.587 3.057 3.687 4.487 5.517
1688.175 6.857 8.697 11.167 14.397 18.697 23.547 27.887 30.547 30.487 29.487
1707.469 29.957 30.237 27.057 21.207 15.317 10.827 7.797 5.957 4.847 4.167
1726.762 3.727 3.417 3.127 2.867 2.517 2.077 1.697 1.3782 1.1803 1.0514
1746.056 0.9821 0.9825 0.9899 0.9761 0.9599 0.975 1.0412 1.0985 1.1133 1.0951
1765.349 1.0796 1.1063 1.0919 1.035 0.9816 0.9396 0.8952 0.859 0.8343 0.7929
1784.642 0.7817 0.6984 0.6606 0.6719 0.5865 0.5409 0.524 0.46852 0.41399 0.3997
1803.936 0.3628 0.313 0.315 0.272 0.243 0.261 0.253 0.232 0.241 0.274
1823.229 0.281 0.278 0.278 0.292 0.326 0.3298 0.302 0.3269 0.4 0.3937
1842.523 0.3427 0.3592 0.40748 0.42979 0.422248 0.3954 0.3942 0.44614 0.47966 0.48356
1861.816 0.4951 0.51219 0.5429 0.5422 0.5239 0.5247 0.5245 0.5536 0.5903 0.5897
1881.110 0.5797 0.5507 0.5175 0.48614 0.44815 0.41599 0.3549 0.305 0.3 0.272
1900.403 0.24 0.206 0.173 0.175 0.175 0.182 0.182 0.197 0.21 0.205
1919.696 0.172 0.182 0.198 0.182 0.222 0.243 0.23 0.232 0.258 0.276
1938.990 0.26 0.232 0.233 0.24 0.245 0.231 0.212 0.213 0.213 0.241
1958.283 0.269 0.258 0.257 0.262 0.266 0.265 0.268 0.282 0.292 0.295
1977.577 0.3253 0.3599 0.3564 0.3539 0.3393 0.294 0.247 0.26 0.26 0.222
1996.870 0.216 0.25 0.231 0.223 0.245 0.222 0.213 0.223 0.233 0.234
2016.164 0.25 0.271 0.271 0.223 0.21 0.237 0.237 0.249 0.25 0.222
2035.457 0.21 0.22 0.235 0.244 0.253 0.24 0.258 0.267 0.241 0.259
2054.750 0.245 0.241 0.26 0.254 0.271 0.258 0.25 0.282 0.301 0.3341
2074.044 0.3525 0.3799 0.41419 0.424655 0.4483 0.48154 0.51222 0.51475 0.50809 0.548
2093.337 0.5927 0.6094 0.5819 0.5546 0.5416 0.51314 0.49689 0.45986 0.4035 0.3472
2112.631 0.306 0.307 0.299 0.264 0.239 0.241 0.226 0.212 0.228 0.232
2131.924 0.218 0.186 0.176 0.199 0.192 0.191 0.205 0.199 0.202 0.187
2151.218 0.205 0.235 0.208 0.192 0.194 0.193 0.196 0.169 0.143 0.157
2170.511 0.16 0.179 0.208 0.195 0.21 0.254 0.263 0.259 0.259 0.254
2189.804 0.254 0.269 0.256 0.24 0.257 0.24 0.241 0.254 0.238 0.232
2209.098 0.242 0.249 0.245 0.223 0.232 0.254 0.236 0.221 0.228 0.248
2228.391 0.253 0.246 0.234 0.236 0.228 0.241 0.264 0.256 0.25 0.237
2247.685 0.232 0.246 0.266 0.243 0.221 0.239 0.252 0.238 0.248 0.253
2266.978 0.244 0.252 0.23 0.224 0.235 0.242 0.245 0.236 0.224 0.22
2286.272 0.23 0.222 0.212 0.226 0.254 0.273 0.278 0.29 0.308 0.3364
2305.565 0.3709 0.4049 0.4056 0.3706 0.3646 0.3892 0.40851 0.40971 0.3678 0.3509
2324.858 0.3831 0.3599 0.3335 0.3488 0.3523 0.347 0.3422 0.32 0.304 0.291
2344.152 0.263 0.255 0.271 0.264 0.252 0.262 0.266 0.264 0.257 0.266
2363.445 0.303 0.295 0.27 0.29 0.291 0.286 0.302 0.297 0.278 0.266
2382.739 0.264 0.256 0.261 0.26 0.257 0.259 0.232 0.206 0.21 0.224
2402.032 0.218 0.22 0.213 0.225 0.229 0.196 0.185 0.196 0.202 0.2
2421.326 0.192 0.206 0.202 0.2 0.193 0.181 0.188 0.166 0.181 0.207
2440.619 0.206 0.225 0.23 0.206 0.216 0.225 0.208 0.213 0.212 0.204
2459.912 0.233 0.232 0.202 0.211 0.223 0.203 0.18 0.192 0.209 0.211
2479.206 0.236 0.218 0.204 0.225 0.205 0.22 0.251 0.25 0.23 0.241
2498.499 0.256 0.246 0.236 0.207 0.238 0.254 0.242 0.251 0.247 0.248
2517.793 0.263 0.282 0.263 0.249 0.246 0.242 0.256 0.258 0.267 0.294
2537.086 0.296 0.284 0.315 0.356 0.3544 0.371 0.3776 0.3485 0.3767 0.43126
2556.380 0.426808 0.3959 0.420584 0.46746 0.48711 0.49359 0.51637 0.5462 0.578 0.5989
2575.673 0.6473 0.7011 0.6899 0.6845 0.6983 0.7035 0.7179 0.7342 0.7533 0.7361
2594.966 0.7328 0.7452 0.7102 0.6804 0.6482 0.6221 0.5616 0.50707 0.50382 0.49785
2614.260 0.51632 0.49273 0.425823 0.422053 0.40969 0.3807 0.388 0.44041 0.48551 0.48833
2633.553 0.48738 0.47362 0.47466 0.48663 0.49123 0.49081 0.50817 0.50598 0.47826 0.47064
2652.847 0.47527 0.48802 0.47366 0.48362 0.49958 0.49591 0.50195 0.50074 0.47397 0.49581
2672.140 0.5347 0.5636 0.5953 0.6022 0.5995 0.6329 0.6171 0.5598 0.6136 0.6878
2691.434 0.6689 0.645 0.6908 0.7506 0.8031 0.8048 0.8115 0.8623 0.8774 0.9119
2710.727 0.9409 0.9281 0.9579 0.9999 0.9893 0.9927 1.0354 1.008 0.97 1.0063
2730.020 0.9994 1.0023 0.9981 0.9449 0.9093 0.878 0.878 0.8592 0.8528 0.8615
2749.314 0.8498 0.8761 0.9267 0.9736 1.0813 1.1121 1.1176 1.2815 1.487 1.617
2768.607 1.697 1.827 1.947 2.027 2.067 2.037 2.007 1.927 1.837 1.747
2787.901 1.677 1.577 1.467 1.3515 1.2322 1.2026 1.2056 1.1748 1.0945 1.0876
2807.194 1.1559 1.1644 1.1717 1.2035 1.2139 1.245 1.1982 1.1341 1.1736 1.1931
2826.488 1.183 1.2094 1.1868 1.1869 1.2417 1.3104 1.35 1.326 1.447 1.587
2845.781 1.667 1.827 2.027 2.217 2.517 2.907 3.377 3.997 4.687 5.467
2865.074 6.197 6.747 7.117 7.177 7.037 6.787 6.407 5.837 5.247 4.717
2884.368 4.287 4.117 3.967 3.947 3.987 3.967 3.957 3.877 3.897 3.947
2903.661 3.917 3.887 3.837 3.827 3.877 3.907 3.907 3.947 4.057 4.017
2922.955 3.997 4.037 3.977 3.897 3.807 3.717 3.667 3.457 3.217 3.107
2942.248 2.997 2.887 2.767 2.687 2.697 2.707 2.647 2.707 2.827 2.817
2961.542 2.717 2.677 2.597 2.497 2.387 2.227 2.107 2.007 1.947 1.857
2980.835 1.807 1.807 1.787 1.707 1.637 1.557 1.527 1.477 1.417 1.3895
3000.128 1.3351 1.2602 1.1807 1.2163 1.3699 1.487 1.507 1.627 1.767 1.827
3019.422 1.867 1.877 1.837 1.817 1.757 1.597 1.4049 1.2524 1.1449 1.0574
3038.715 1.0355 0.979 0.8365 0.7769 0.785 0.7514 0.7632 0.759 0.6833 0.6796
3058.009 0.6742 0.6632 0.661 0.6904 0.7053 0.6706 0.6695 0.6763 0.6796 0.6999
3077.302 0.7099 0.7013 0.71 0.6994 0.7477 0.8077 0.8232 0.8477 0.7904 0.7476
3096.596 0.7831 0.7074 0.605 0.46718 0.44284 0.51228 0.46143 0.48591 0.48641 0.3852
3115.889 0.336 0.314 0.271 0.217 0.142 0.177 0.246 0.27 0.259 0.253
3135.182 0.238 0.151 0.183 0.204 0.169 0.242 0.3458 0.334 0.29 0.314
3154.476 0.278 0.243 0.194 0.103 0.143 0.2 0.154 0.127 0.159 0.173
3173.769 0.171 0.176 0.256 0.24 0.164 0.112 0.08 0.089 0.126 0.124
3193.063 0.094 0.112 0.17 0.286 0.158 0.046 0.121 0.147 0.132 0.125
3212.356 0.211 0.191 0.086 0.194 0.3186 0.314 0.211 0.2 0.218 0.143
3231.650 0.108 0.081 0.135 0.124 0.114 0.203 0.237 0.195 0.137 0.125
3250.943 0.118 0.092 0.081 0.135 0.175 0.059 0.037 0.118 0.133 0.044
3270.236 0.031 0.091 0.13 0.223 0.28 0.201 0.115 0.097 0.106 0.066
3289.530 0.065 0.086 0.046 0.145 0.193 0.115 0.051 0.043 0.056 0.085
3308.823 0.109 0.13 0.153 0.19 0.147 0.088 0.121 0.175 0.209 0.187
3328.117 0.184 0.177 0.05 0.002 0.087 0.164 0.189 0.216 0.264 0.248
3347.410 0.245 0.211 0.243 0.3361 0.247 0.16 0.149 0.174 0.187 0.223
3366.704 0.172 0.176 0.294 0.3763 0.417945 0.317 0.41305 0.5713 0.6121 0.7029
3385.997 0.7567 0.6465 0.6285 0.6935 0.5762 0.49003 0.51358 0.50552 0.4054 0.257
3405.290 0.281 0.287 0.252 0.225 0.155 0.096 0.07 0.11 0.006 0
3424.584 0.017 0.111 0.159 0.14 0.153 0.093 0.096 0.102 0.106 0.066
3443.877 0.048 0.077 0.12 0.134 0.162 0.216 0.137 0.065 0.101 0.037
3463.171 0.108 0.219 0.181 0.157 0.119 0.049 0.043 0.007 0.036 0.142
3482.464 0.124 0.097 0.162 0.192 0.231 0.238 0.192 0.145 0.078 0.095
3501.758 0.17 0.223 0.213 0.145 0.154 0.201 0.15 0.068 0.052 0.069
3521.051 0.063 0.007 0.067 0.162 0.165 0.161 0.102 0.063 0.16 0.114
3540.344 0.032 0.084 0.107 0.159 0.145 0.171 0.216 0.212 0.184 0.233
3559.638 0.246 0.169 0.176 0.205 0.144 0.13 0.182 0.172 0.252 0.286
3578.931 0.21 0.248 0.237 0.157 0.159 0.166 0.191 0.167 0.117 0.075
3598.225 0.033 0.095 0.18 0.199 0.186 0.167 0.177 0.14 0.142 0.19
3617.518 0.197 0.202 0.143 0.115 0.089 0.079 0.155 0.221 0.25 0.222
3636.812 0.191 0.173 0.095 0.055 0.104 0.134 0.056 0.084 0.177 0.224
3656.105 0.299 0.206 0.15 0.21 0.193 0.194 0.175 0.246 0.284 0.199
3675.398 0.186 0.145 0.13 0.156 0.13 0.146 0.145 0.132 0.146 0.147
3694.692 0.204 0.239 0.255 0.218 0.161 0.163 0.156 0.156 0.218 0.26
3713.985 0.219 0.2 0.226 0.235 0.204 0.095 0.082 0.15 0.132 0.148
3733.279 0.22 0.276 0.255 0.184 0.132 0.205 0.242 0.201 0.252 0.272
3752.572 0.238 0.218 0.197 0.16 0.246 0.3314 0.298 0.228 0.226 0.21
3771.866 0.15 0.179 0.258 0.317 0.309 0.241 0.216 0.263 0.249 0.234
3791.159 0.313 0.3363 0.284 0.198 0.139 0.22 0.314 0.3342 0.3308 0.3197
3810.452 0.3305 0.242 0.19 0.261 0.261 0.23 0.222 0.255 0.3328 0.3581
3829.746 0.3514 0.3 0.242 0.244 0.251 0.263 0.259 0.222 0.224 0.217
3849.039 0.208 0.268 0.24 0.218 0.249 0.306 0.291 0.261 0.301 0.3365
3868.333 0.298 0.253 0.295 0.3 0.3442 0.345 0.3263 0.3605 0.3421 0.3308
3887.626 0.3973 0.41062 0.3943 0.3671 0.315 0.318 0.3208 0.31 0.28 0.288
3906.920 0.3265 0.277 0.259 0.3283 0.303 0.3173 0.3616 0.4068 0.44715 0.4021
3926.213 0.387 0.3805 0.3175 0.278 0.3385 0.313 0.303 0.3409 0.3489 0.3682
3945.506 0.3551 0.3193 0.3415 0.3629 0.3288 0.311 0.3586 0.3669 0.3614 0.41345
3964.800 0.3956 0.3993 0.3404 0.3439 0.366 0.3212 0.3522 0.4082 0.48574 0.5002
3984.093 0.40853 0.3463 0.3382 0.3731 0.3842 0.3549 0.416948 0.416763 0.29
##END=
