##TITLE=Alachlor
##JCAMP-DX=4.24
##DATA TYPE=INFRARED SPECTRUM
##ORIGIN=NIST Mass Spectrometry Data Center
##OWNER=NIST Standard Reference Data Program
Collection (C) 2018 copyright by the U.S. Secretary of Commerce
on behalf of the United States of America. All rights reserved.
##CAS REGISTRY NO=15972-60-8
##MOLFORM=C 14 H 20 Cl N O 2
##$NIST SOURCE=MSDC-IR
##SPECTROMETER/DATA SYSTEM=HP-GC/MS/IRD
##STATE=gas
##XUNITS=1/CM
##YUNITS=ABSORBANCE
##XFACTOR=1.0
##YFACTOR=0.000004200
##DELTAX=4.0
##FIRSTX=550.0
##LASTX=3846.0
##FIRSTY=0.000979
##MAXX=3846
##MINX=550
##MAXY=0.042
##MINY=0
##NPOINTS=825
##XYDATA=(X++(Y..Y))
550.0 233 121 103 206 221 243 249 222 196 167
590.0 162 184 230 252 262 298 338 361 393 418
630.0 435 446 463 480 482 463 460 470 428 349
670.0 281 220 181 175 186 202 224 253 270 259
710.0 212 162 124 73 23 16 33 42 60 110
750.0 188 284 386 486 589 691 791 866 926 1016
790.0 1140 1264 1351 1346 1242 1078 878 663 479 341
830.0 235 161 122 98 100 119 163 227 251 230
870.0 192 144 141 180 236 312 427 556 612 577
910.0 501 465 456 470 494 506 471 428 406 384
950.0 404 438 448 456 431 382 355 331 319 308
990.0 314 350 404 486 586 708 850 970 1041 1120
1030.0 1217 1340 1510 1724 1979 2292 2733 3295 3834 4180
1070.0 4246 4117 3921 3788 3793 3886 4066 4340 4592 4651
1110.0 4539 4336 4043 3605 2992 2373 1899 1590 1434 1360
1150.0 1352 1375 1399 1412 1408 1410 1424 1464 1588 1767
1190.0 1930 2000 1921 1775 1655 1607 1684 1877 2095 2318
1230.0 2502 2605 2637 2615 2542 2404 2222 1997 1775 1593
1270.0 1467 1382 1317 1269 1264 1317 1442 1636 1879 2145
1310.0 2367 2447 2352 2148 1939 1770 1635 1550 1568 1752
1350.0 2154 2740 3391 3843 3853 3425 2791 2215 1790 1485
1390.0 1276 1174 1182 1265 1352 1402 1401 1398 1435 1496
1430.0 1563 1642 1790 2063 2481 2991 3362 3362 3005 2527
1470.0 2083 1648 1242 926 719 582 490 423 367 324
1510.0 285 257 236 216 204 186 176 170 163 163
1550.0 160 157 162 166 181 200 225 250 282 304
1590.0 297 270 239 212 198 191 194 208 219 237
1630.0 269 306 351 408 480 585 716 865 1033 1235
1670.0 1495 1850 2341 3047 4085 5513 7279 8998 10000 9829
1710.0 8659 7036 5390 3952 2801 1940 1350 968 723 564
1750.0 453 379 326 279 238 211 190 172 160 156
1790.0 160 152 141 113 89 69 57 52 44 38
1830.0 33 34 29 28 33 39 48 66 85 89
1870.0 73 46 19 5 1 0 0 1 2 1
1910.0 4 17 28 42 68 103 123 112 79 49
1950.0 34 29 27 22 21 27 28 27 30 31
1990.0 33 39 47 48 46 47 54 55 56 63
2030.0 69 70 71 74 71 66 64 57 54 51
2070.0 50 50 43 39 38 36 35 27 24 29
2110.0 26 24 23 20 22 26 26 25 24 21
2150.0 24 23 13 16 26 29 28 23 18 22
2190.0 22 21 25 21 18 19 22 23 22 22
2230.0 28 26 23 22 17 18 19 18 21 22
2270.0 20 21 22 23 23 21 20 20 19 19
2310.0 17 20 26 34 39 39 43 50 55 54
2350.0 49 39 34 35 33 24 19 26 23 17
2390.0 15 12 13 19 21 22 23 20 19 18
2430.0 22 25 29 29 22 16 14 19 24 28
2470.0 27 23 24 21 19 15 15 23 24 24
2510.0 29 25 20 22 26 28 36 41 31 28
2550.0 25 31 36 28 29 36 32 27 29 32
2590.0 32 33 32 34 37 40 44 45 48 52
2630.0 46 42 42 49 51 48 48 47 44 46
2670.0 50 46 50 56 54 52 50 45 52 62
2710.0 61 59 70 81 85 93 108 124 135 138
2750.0 139 141 146 159 176 199 231 254 267 290
2790.0 323 356 387 417 461 524 612 724 854 992
2830.0 1110 1164 1175 1172 1161 1148 1146 1167 1239 1347
2870.0 1489 1677 1914 2182 2400 2495 2459 2361 2280 2267
2910.0 2290 2341 2430 2572 2786 3074 3454 3883 4200 4227
2950.0 3899 3409 3071 3067 3393 3941 4473 4661 4347 3723
2990.0 3104 2620 2231 1885 1578 1334 1187 1117 1078 1044
3030.0 1007 947 879 821 773 760 821 951 1119 1257
3070.0 1295 1198 1006 784 581 418 324 274 230 207
3110.0 201 187 172 168 167 159 141 134 144 148
3150.0 144 138 136 137 126 120 122 111 97 90
3190.0 88 89 75 57 49 45 50 45 50 56
3230.0 43 31 33 36 38 43 52 47 41 46
3270.0 38 31 37 42 39 40 34 35 45 35
3310.0 27 30 33 34 41 50 54 45 40 54
3350.0 59 63 65 60 66 79 93 109 110 100
3390.0 96 105 111 103 93 85 78 68 63 62
3430.0 54 50 52 52 45 35 26 27 43 39
3470.0 25 28 42 41 40 36 31 30 29 39
3510.0 46 39 25 28 30 30 40 30 19 18
3550.0 36 45 40 34 31 32 25 35 45 30
3590.0 25 26 26 26 33 31 24 32 22 13
3630.0 18 26 31 15 14 21 31 36 31 35
3670.0 37 45 44 42 39 33 52 50 54 64
3710.0 45 36 38 34 38 37 36 34 33 38
3750.0 35 40 56 63 57 48 56 68 64 57
3790.0 48 49 56 57 50 44 41 49 61 73
3830.0 69 61 63 72 63
##END=
