##TITLE=4-Phenylurazole
##JCAMP-DX=4.24
##DATA TYPE=INFRARED SPECTRUM
##ORIGIN=EPA-IR VAPOR PHASE LIBRARY
##OWNER=SRD/NIST
Collection (C) 2018 copyright by the U.S. Secretary of Commerce
on behalf of the United States of America. All rights reserved.
##CAS REGISTRY NO=15988-11-1
##MOLFORM=C 8 H 7 N 3 O 2
##$NIST SOURCE=MSDC-IR
##STATE=gas
##XUNITS=1/CM
##YUNITS=ABSORBANCE
##XFACTOR=1.
##YFACTOR=0.001
##DELTAX=1.929
##FIRSTX=549.8
##LASTX=4000.8
##FIRSTY=3.75
##MAXX=4000.75
##MINX=549.766
##MAXY=0.05548
##MINY=0
##NPOINTS=1790
##XYDATA=(X++(Y..Y))
549.766 3.75 3.84 3.92 3.78 3.78 3.68 3.62 3.56 3.51 3.72
569.056 3.78 3.83 3.94 4.03 4.29 4.57 4.79 5.42 6.12 6.67
588.346 7.32 8 8.94 9.84 10.42 10.92 11.05 10.84 10.59 9.87
607.636 8.96 8.01 6.88 6.01 5.29 4.58 4.05 3.81 3.75 3.69
626.926 3.55 3.46 3.31 3.08 2.92 2.82 2.59 2.18 2.08 1.92
646.216 1.72 1.63 1.43 1.43 1.52 1.55 1.69 1.92 2.07 2.23
665.506 2.45 2.7 2.9 3.24 3.71 4.03 4.21 4.24 4.29 4.41
684.796 4.34 4.2 4.04 3.7 3.36 3.09 2.93 2.83 2.8 2.87
704.086 3.01 3.24 3.48 3.73 3.8 3.83 3.86 3.74 3.52 3.21
723.376 2.95 2.76 2.76 2.86 3.1 3.5 3.9 4.37 4.92 5.39
742.666 5.76 6.18 6.5 6.8 7.1 7.3 7.42 7.59 7.94 8.34
761.956 8.85 9.52 10.14 10.65 11.18 11.56 11.68 11.45 11.03 10.49
781.246 9.72 8.8 7.83 6.98 6.24 5.51 4.86 4.38 3.96 3.6
800.536 3.36 3.18 3.06 2.91 2.75 2.57 2.48 2.41 2.39 2.27
819.826 2.18 2.17 2.1 2.02 1.97 1.9 1.89 1.89 1.8 1.75
839.116 1.73 1.65 1.59 1.57 1.58 1.56 1.55 1.51 1.46 1.43
858.406 1.3939 1.3636 1.3723 1.3595 1.2913 1.3361 1.41 1.3613 1.3173 1.2925
877.696 1.1694 1.1583 1.2038 1.2034 1.2153 1.1758 1.2332 1.2358 1.1839 1.1921
896.986 1.229 1.2827 1.2283 1.2328 1.2343 1.2303 1.2185 1.2246 1.1977 1.1721
916.276 1.2069 1.2038 1.2005 1.1219 1.14 1.1305 1.0973 1.1192 1.0943 1.094
935.566 1.0958 1.1184 1.1515 1.1576 1.1738 1.129 1.1349 1.1687 1.0986 1.0969
954.856 1.1444 1.2167 1.2519 1.1755 1.0928 1.1615 1.29 1.2484 1.1949 1.1533
974.146 1.1254 1.1331 1.1318 1.1367 1.1271 1.1473 1.1825 1.1922 1.2016 1.2239
993.436 1.2457 1.2429 1.2413 1.2723 1.2816 1.2692 1.2904 1.2501 1.1518 1.1026
1012.726 1.1028 1.1142 1.1166 1.143 1.123 1.1385 1.1939 1.227 1.2139 1.2433
1032.016 1.333 1.42 1.45 1.49 1.49 1.47 1.5 1.57 1.63 1.57
1051.306 1.63 1.73 1.79 1.83 1.86 1.91 2.01 2.17 2.28 2.34
1070.596 2.43 2.52 2.61 2.68 2.78 2.93 3.05 3.12 3.21 3.33
1089.886 3.33 3.3 3.33 3.36 3.25 3.15 2.99 2.8 2.82 2.77
1109.176 2.61 2.48 2.38 2.32 2.3 2.19 2.03 1.97 2 1.94
1128.467 1.81 1.78 1.79 1.76 1.66 1.63 1.69 1.67 1.59 1.57
1147.757 1.6 1.65 1.68 1.71 1.74 1.71 1.68 1.74 1.88 1.96
1167.047 1.95 2.01 2.1 2.21 2.32 2.36 2.51 2.69 2.81 2.97
1186.337 3.17 3.39 3.57 3.75 3.85 3.87 3.91 4.03 4.08 4
1205.627 3.95 3.79 3.6 3.6 3.5 3.29 3.12 2.99 2.93 2.78
1224.917 2.69 2.77 2.76 2.74 2.87 2.98 3.05 3 2.9 2.74
1244.207 2.52 2.29 2.07 1.84 1.61 1.45 1.3548 1.2679 1.2413 1.2036
1263.497 1.1597 1.1813 1.2478 1.2172 1.1765 1.2399 1.2517 1.2435 1.2698 1.308
1282.787 1.3204 1.3328 1.3458 1.3019 1.2715 1.2833 1.2986 1.2845 1.3402 1.42
1302.077 1.45 1.46 1.46 1.5 1.56 1.68 1.81 1.92 2.11 2.39
1321.367 2.7 3.07 3.58 4.11 4.66 5.19 5.48 5.54 5.42 5.14
1340.657 4.73 4.27 3.69 2.99 2.43 2.07 1.82 1.68 1.63 1.66
1359.947 1.67 1.71 1.81 1.9 2 2.16 2.32 2.52 2.75 3.01
1379.237 3.3 3.63 4.04 4.49 4.97 5.58 6.3 7.13 8.15 9.34
1398.527 10.72 12.31 13.95 15.65 17.39 19.01 20.4 21.46 22 21.91
1417.817 21.25 20.08 18.49 16.6 14.47 12.3 10.23 8.44 6.97 5.88
1437.107 5.12 4.57 4.11 3.77 3.49 3.23 3.08 3 2.89 2.74
1456.397 2.62 2.59 2.56 2.53 2.52 2.5 2.49 2.5 2.54 2.53
1475.687 2.52 2.54 2.64 2.76 2.81 3 3.37 3.96 4.91 6.07
1494.977 7.24 8.31 9.05 9.41 9.44 9.11 8.43 7.48 6.24 4.99
1514.267 3.97 3.21 2.76 2.5 2.29 2.12 1.95 1.89 1.87 1.78
1533.557 1.7 1.71 1.69 1.59 1.51 1.43 1.365 1.3175 1.2342 1.1719
1552.847 1.147 1.1301 1.114 1.0684 1.0494 1.0962 1.1078 1.1252 1.1643 1.1692
1572.137 1.2155 1.2562 1.2994 1.41 1.52 1.64 1.79 1.96 2.15 2.37
1591.427 2.62 2.85 3.05 3.21 3.22 3.09 2.93 2.78 2.53 2.24
1610.717 1.99 1.74 1.51 1.3783 1.3354 1.2733 1.1873 1.1857 1.1986 1.1825
1630.007 1.149 1.1194 1.0964 1.0192 0.981 1.0136 1.0274 1.0134 1.0089 0.9778
1649.297 0.9661 0.9554 0.9627 0.9886 1.0009 1.0288 1.0052 0.9795 1.0144 1.0283
1668.587 1.0331 1.0308 1.0008 1.0012 1.0255 1.0312 1.069 1.0799 1.1175 1.2255
1687.877 1.2977 1.3665 1.45 1.51 1.6 1.72 1.76 1.94 2.1 2.18
1707.167 2.28 2.39 2.55 2.68 2.86 3.13 3.42 3.73 4.09 4.53
1726.457 5.02 5.56 6.19 6.82 7.65 8.75 9.99 11.54 13.35 15.64
1745.747 18.51 21.92 25.92 30.64 35.74 40.91 45.93 50.14 53.19 54.94
1765.037 55.48 54.98 53.26 49.95 44.85 39.07 33.35 28.14 23.64 19.87
1784.327 16.84 14.45 12.61 11.12 9.95 8.98 8.23 7.62 7.11 6.7
1803.617 6.43 6.18 5.97 5.81 5.63 5.46 5.25 4.98 4.66 4.3
1822.907 3.95 3.59 3.25 2.92 2.63 2.47 2.33 2.18 2.07 1.97
1842.197 1.85 1.75 1.64 1.57 1.52 1.48 1.44 1.3777 1.3544 1.347
1861.487 1.323 1.266 1.2356 1.2363 1.2043 1.1468 1.1236 1.1411 1.1128 1.099
1880.777 1.0988 1.0625 1.0148 0.9884 0.9945 0.998 0.993 0.9466 0.9408 0.9496
1900.067 0.9203 0.8751 0.8642 0.885 0.851 0.8167 0.8149 0.8361 0.8561 0.8553
1919.357 0.8183 0.8098 0.8282 0.8234 0.8253 0.8032 0.8236 0.8402 0.8267 0.8907
1938.647 0.8928 0.8664 0.9046 0.8962 0.8919 0.9003 0.8878 0.8844 0.8508 0.842
1957.937 0.8402 0.8205 0.8062 0.7997 0.8008 0.7993 0.7853 0.7524 0.7199 0.7237
1977.227 0.7604 0.7494 0.7588 0.7801 0.7322 0.7113 0.7353 0.7237 0.6992 0.6987
1996.517 0.702 0.6881 0.6866 0.6853 0.6543 0.6709 0.7161 0.7354 0.711 0.6878
2015.807 0.6707 0.6512 0.6656 0.6457 0.6273 0.6362 0.6173 0.5837 0.5888 0.6187
2035.097 0.6227 0.6188 0.6061 0.6066 0.6089 0.6166 0.6 0.5761 0.5709 0.5711
2054.387 0.5949 0.5578 0.5799 0.591 0.5633 0.5637 0.5286 0.5457 0.5669 0.5645
2073.677 0.5744 0.5606 0.5386 0.5191 0.5253 0.5576 0.6112 0.5968 0.5814 0.5691
2092.967 0.5678 0.5672 0.5381 0.5718 0.5622 0.5719 0.5487 0.5321 0.5377 0.5435
2112.257 0.5538 0.5949 0.6413 0.6168 0.6054 0.5807 0.5435 0.5617 0.5792 0.5318
2131.547 0.5225 0.585 0.6213 0.6048 0.5877 0.5592 0.5495 0.5567 0.5694 0.619
2150.837 0.621 0.6147 0.6357 0.6728 0.7139 0.7048 0.708 0.7059 0.7038 0.7151
2170.127 0.7159 0.7706 0.8109 0.8032 0.8096 0.8195 0.8446 0.8759 0.8826 0.874
2189.417 0.8609 0.848 0.8799 0.9244 0.9437 0.9322 0.9419 0.9794 1.0035 1.008
2208.707 1.0174 1.0158 0.9754 0.9465 0.9328 0.9344 0.9307 0.9325 0.9655 1.0187
2227.997 1.0365 1.0695 1.1649 1.2019 1.2091 1.3206 1.46 1.54 1.65 1.82
2247.287 1.98 2.13 2.29 2.45 2.64 2.86 3.08 3.26 3.43 3.57
2266.577 3.69 3.8 3.92 4.04 4.07 4.13 4.14 4.06 3.98 3.9
2285.868 3.79 3.64 3.42 3.12 2.79 2.48 2.21 1.96 1.77 1.6
2305.158 1.45 1.2823 1.1676 1.0648 0.9706 0.9409 0.9022 0.8333 0.7942 0.7717
2324.448 0.7 0.6687 0.6467 0.6618 0.7046 0.6836 0.6222 0.6164 0.6327 0.6163
2343.738 0.5933 0.6125 0.6306 0.5757 0.5266 0.528 0.5996 0.6174 0.5879 0.6212
2363.028 0.6338 0.6286 0.6258 0.6261 0.6314 0.6061 0.6213 0.6302 0.626 0.6151
2382.318 0.5978 0.6066 0.565 0.5536 0.5257 0.5075 0.47982 0.43804 0.42317 0.3636
2401.608 0.3679 0.39885 0.3885 0.368 0.3468 0.3512 0.378 0.3476 0.3747 0.44744
2420.898 0.42683 0.41296 0.3604 0.3366 0.3747 0.403918 0.43901 0.41129 0.3677 0.348
2440.188 0.3751 0.375 0.3463 0.3165 0.287 0.28 0.3115 0.3791 0.3577 0.3117
2459.478 0.3409 0.364 0.3877 0.39724 0.39509 0.402027 0.3834 0.403371 0.3853 0.3638
2478.768 0.41341 0.39282 0.3716 0.403046 0.3571 0.3317 0.3228 0.3039 0.3426 0.3325
2498.058 0.3293 0.3509 0.336 0.3788 0.39479 0.3398 0.3485 0.3683 0.3468 0.3259
2517.348 0.294 0.3035 0.3628 0.3416 0.298 0.293 0.29 0.3364 0.3181 0.256
2536.638 0.277 0.271 0.276 0.279 0.235 0.228 0.25 0.271 0.287 0.286
2555.928 0.251 0.272 0.3069 0.262 0.23 0.259 0.253 0.246 0.3049 0.344
2575.218 0.3166 0.295 0.284 0.3069 0.296 0.3195 0.3867 0.308 0.279 0.277
2594.508 0.282 0.3089 0.3314 0.3726 0.3514 0.3351 0.299 0.282 0.28 0.276
2613.798 0.3344 0.3365 0.287 0.244 0.266 0.284 0.246 0.216 0.217 0.219
2633.088 0.219 0.249 0.259 0.264 0.246 0.204 0.192 0.212 0.222 0.192
2652.378 0.184 0.252 0.276 0.214 0.185 0.219 0.219 0.159 0.177 0.216
2671.668 0.241 0.261 0.197 0.141 0.088 0.115 0.189 0.154 0.136 0.193
2690.958 0.204 0.223 0.214 0.165 0.168 0.173 0.193 0.209 0.171 0.189
2710.248 0.218 0.163 0.104 0.076 0.134 0.214 0.228 0.185 0.167 0.194
2729.538 0.191 0.163 0.135 0.151 0.159 0.104 0.08 0.137 0.16 0.136
2748.828 0.174 0.214 0.182 0.145 0.147 0.143 0.159 0.201 0.107 0.125
2768.118 0.202 0.109 0.111 0.145 0.117 0.127 0.107 0.073 0.066 0.075
2787.408 0.124 0.136 0.106 0.129 0.178 0.123 0.079 0.105 0.06 0.047
2806.698 0.087 0.068 0.087 0.088 0.032 0.019 0.075 0.081 0.053 0.093
2825.988 0.074 0.06 0.07 0.082 0.166 0.191 0.149 0.106 0.096 0.106
2845.278 0.063 0.025 0.038 0.044 0.074 0.119 0.129 0.178 0.168 0.089
2864.568 0.097 0.078 0.099 0.149 0.151 0.167 0.15 0.15 0.101 0.056
2883.858 0.045 0.085 0.115 0.071 0.079 0.129 0.1 0.094 0.191 0.203
2903.148 0.122 0.126 0.221 0.203 0.14 0.139 0.118 0.141 0.112 0.092
2922.438 0.078 0.083 0.181 0.146 0.092 0.117 0.182 0.14 0.029 0.018
2941.728 0.049 0.006 0.054 0.145 0.076 0.02 0.004 0 0.089 0.159
2961.018 0.163 0.117 0.089 0.138 0.069 0.017 0.094 0.117 0.133 0.169
2980.308 0.074 0.015 0.042 0.129 0.164 0.068 0.12 0.181 0.124 0.127
2999.598 0.133 0.091 0.085 0.083 0.044 0.064 0.104 0.172 0.278 0.296
3018.888 0.3088 0.238 0.214 0.3449 0.41247 0.43972 0.5149 0.5672 0.5174 0.5856
3038.178 0.7546 0.7859 0.7816 0.8358 0.8946 0.9332 1.0519 1.2019 1.2339 1.2595
3057.468 1.3193 1.2992 1.3284 1.41 1.42 1.47 1.52 1.58 1.63 1.63
3076.758 1.73 1.71 1.59 1.56 1.45 1.3832 1.2804 1.0998 0.9721 0.8528
3096.048 0.7937 0.7827 0.7283 0.6965 0.6921 0.6368 0.5604 0.5569 0.5756 0.5199
3115.338 0.43169 0.3774 0.39364 0.3379 0.263 0.212 0.152 0.07 0.034 0.082
3134.628 0.091 0.141 0.11 0.069 0.134 0.152 0.195 0.204 0.193 0.21
3153.918 0.211 0.213 0.149 0.149 0.221 0.16 0.159 0.191 0.131 0.134
3173.208 0.186 0.244 0.235 0.246 0.23 0.128 0.108 0.106 0.162 0.219
3192.498 0.173 0.168 0.246 0.284 0.214 0.199 0.195 0.201 0.228 0.251
3211.788 0.206 0.15 0.081 0.068 0.229 0.179 0.07 0.01 0.08 0.256
3231.078 0.219 0.137 0.139 0.168 0.162 0.115 0.126 0.191 0.196 0.118
3250.368 0.046 0.178 0.295 0.259 0.241 0.233 0.217 0.153 0.158 0.157
3269.658 0.18 0.248 0.237 0.274 0.268 0.252 0.223 0.208 0.226 0.206
3288.948 0.16 0.143 0.263 0.24 0.151 0.252 0.3076 0.247 0.236 0.217
3308.238 0.273 0.3322 0.225 0.172 0.233 0.196 0.19 0.258 0.263 0.3676
3327.528 0.3743 0.306 0.3762 0.3626 0.339 0.3339 0.292 0.252 0.18 0.202
3346.818 0.259 0.298 0.3 0.3011 0.333 0.3569 0.44279 0.45167 0.408493 0.46917
3366.108 0.5255 0.5807 0.6074 0.6532 0.7868 0.9681 1.2705 1.73 2.44 3.48
3385.398 4.86 6.37 7.59 8.38 8.82 9.2 9.24 8.65 7.64 6.12
3404.688 4.59 3.34 2.45 1.92 1.4 1.0518 0.9149 0.8603 0.782 0.5998
3423.978 0.5586 0.5424 0.48746 0.48206 0.41435 0.41501 0.46163 0.46684 0.49056 0.45285
3443.269 0.3765 0.28 0.268 0.281 0.24 0.3538 0.3687 0.277 0.3519 0.41849
3462.559 0.39544 0.40363 0.404906 0.3837 0.39887 0.39099 0.39402 0.41058 0.293 0.247
3481.849 0.3413 0.287 0.279 0.297 0.282 0.3565 0.3323 0.251 0.249 0.3448
3501.139 0.46836 0.5201 0.42702 0.367 0.39972 0.3707 0.42588 0.49852 0.49877 0.42093
3520.429 0.3568 0.3733 0.3027 0.283 0.3302 0.3745 0.3743 0.3599 0.39139 0.407597
3539.719 0.39248 0.3016 0.3394 0.407084 0.45564 0.5891 0.5282 0.5154 0.6501 0.6351
3559.009 0.6344 0.6775 0.6712 0.7374 0.7739 0.7134 0.6763 0.746 0.7395 0.6389
3578.299 0.6309 0.5941 0.5776 0.5628 0.5124 0.48977 0.46461 0.4555 0.3363 0.259
3597.589 0.3121 0.3577 0.41747 0.39525 0.4195 0.46001 0.327 0.288 0.43209 0.43955
3616.879 0.3117 0.27 0.296 0.3027 0.308 0.3282 0.3615 0.3359 0.221 0.277
3636.169 0.3838 0.42466 0.4748 0.45804 0.3438 0.273 0.23 0.271 0.3424 0.3099
3655.459 0.289 0.273 0.286 0.215 0.181 0.235 0.3598 0.3379 0.284 0.3243
3674.749 0.3267 0.3153 0.259 0.273 0.231 0.24 0.3435 0.3657 0.44794 0.45566
3694.039 0.3641 0.3568 0.258 0.16 0.124 0.197 0.3261 0.3868 0.3369 0.268
3713.329 0.256 0.3075 0.312 0.269 0.376 0.3439 0.227 0.207 0.212 0.274
3732.619 0.22 0.214 0.273 0.292 0.271 0.204 0.142 0.163 0.207 0.291
3751.909 0.401212 0.405466 0.39113 0.39068 0.3299 0.193 0.244 0.3177 0.231 0.226
3771.199 0.3174 0.3325 0.3094 0.3328 0.3388 0.3421 0.257 0.198 0.3368 0.3659
3790.489 0.239 0.178 0.207 0.214 0.239 0.312 0.256 0.141 0.101 0.079
3809.779 0.209 0.3447 0.276 0.115 0.167 0.296 0.25 0.229 0.227 0.287
3829.069 0.238 0.177 0.252 0.199 0.12 0.152 0.196 0.242 0.279 0.235
3848.359 0.241 0.243 0.205 0.16 0.184 0.173 0.159 0.192 0.186 0.127
3867.649 0.067 0.115 0.122 0.189 0.232 0.119 0.089 0.174 0.196 0.191
3886.939 0.15 0.118 0.262 0.3282 0.295 0.21 0.171 0.269 0.193 0.129
3906.229 0.212 0.3006 0.3281 0.267 0.234 0.202 0.217 0.187 0.129 0.216
3925.519 0.243 0.102 0.099 0.185 0.218 0.3041 0.241 0.095 0.102 0.151
3944.809 0.091 0.239 0.3095 0.285 0.41086 0.39813 0.283 0.181 0.253 0.29
3964.099 0.191 0.195 0.187 0.268 0.3516 0.287 0.3023 0.292 0.3015 0.3368
3983.389 0.3285 0.212 0.181 0.242 0.24 0.273 0.251 0.244 0.273 0.287
##END=
