##TITLE=1-Docosene
##JCAMP-DX=4.24
##DATA TYPE=INFRARED SPECTRUM
##ORIGIN=NIST Mass Spectrometry Data Center
##OWNER=NIST Standard Reference Data Program
Collection (C) 2018 copyright by the U.S. Secretary of Commerce
on behalf of the United States of America. All rights reserved.
##CAS REGISTRY NO=1599-67-3
##MOLFORM=C 22 H 44
##$NIST SOURCE=MSDC-IR
##SPECTROMETER/DATA SYSTEM=HP-GC/MS/IRD
##STATE=gas
##XUNITS=1/CM
##YUNITS=ABSORBANCE
##XFACTOR=1.0
##YFACTOR=0.000009000
##DELTAX=4.0
##FIRSTX=550.0
##LASTX=3846.0
##FIRSTY=0.000189
##MAXX=3846
##MINX=550
##MAXY=0.09
##MINY=0
##NPOINTS=825
##XYDATA=(X++(Y..Y))
550.0 21 18 8 7 17 27 21 16 18 23
590.0 28 28 32 32 38 47 54 55 56 59
630.0 59 60 56 48 41 38 41 35 38 48
670.0 39 33 36 47 50 54 66 72 84 105
710.0 129 144 152 151 149 137 122 113 102 91
750.0 84 79 77 75 69 64 61 57 57 57
790.0 55 54 50 47 46 47 47 49 51 54
830.0 52 54 59 57 59 58 61 68 72 73
870.0 77 84 93 107 120 136 164 202 255 325
910.0 391 410 357 281 227 187 159 139 127 120
950.0 114 109 108 113 115 115 121 132 149 172
990.0 189 191 178 155 133 115 102 96 88 80
1030.0 77 71 66 65 64 63 60 56 56 58
1070.0 58 58 57 55 51 50 52 50 48 47
1110.0 46 46 46 44 44 42 41 40 38 36
1150.0 38 38 38 40 41 41 39 39 42 43
1190.0 46 47 47 47 44 44 45 46 48 49
1230.0 48 50 55 57 58 63 67 69 72 76
1270.0 82 90 98 107 116 125 134 144 154 160
1310.0 158 148 143 139 140 150 167 189 218 249
1350.0 273 272 256 234 215 194 166 149 139 126
1390.0 110 98 94 95 100 108 115 121 134 152
1430.0 179 221 286 366 449 527 591 643 657 605
1470.0 498 372 267 196 146 115 96 81 68 55
1510.0 44 43 41 38 38 35 34 33 31 27
1550.0 25 26 26 25 24 25 27 26 25 24
1590.0 26 28 29 32 35 40 47 55 67 84
1630.0 107 136 165 168 139 98 65 46 34 27
1670.0 22 19 15 11 10 12 10 9 8 9
1710.0 9 5 3 5 6 5 3 3 3 2
1750.0 0 1 2 3 2 3 4 4 3 5
1790.0 7 8 9 10 13 16 20 27 34 40
1830.0 40 34 26 18 14 12 11 8 6 5
1870.0 4 4 4 3 5 6 5 6 5 5
1910.0 6 4 4 5 5 4 4 5 4 5
1950.0 6 5 5 7 7 9 9 8 7 8
1990.0 7 6 6 7 8 9 9 10 12 13
2030.0 12 13 14 14 13 11 11 10 9 8
2070.0 8 10 10 10 8 7 7 6 7 6
2110.0 7 6 7 8 6 7 6 7 7 8
2150.0 10 10 9 9 10 10 9 8 8 9
2190.0 8 7 7 10 11 10 10 9 7 8
2230.0 10 11 10 11 11 10 9 9 10 11
2270.0 10 9 9 10 11 11 10 11 10 10
2310.0 11 11 10 9 9 7 9 9 9 10
2350.0 11 10 9 7 8 9 9 10 10 11
2390.0 12 10 9 11 14 14 13 12 13 13
2430.0 12 13 11 9 11 12 11 12 11 12
2470.0 13 12 13 14 16 15 15 17 17 17
2510.0 19 20 21 23 25 27 28 28 30 28
2550.0 30 30 26 28 31 32 33 34 36 36
2590.0 40 42 41 42 43 45 48 51 54 54
2630.0 56 59 62 68 71 72 75 79 82 85
2670.0 89 92 94 96 96 95 92 88 86 84
2710.0 84 85 84 86 87 88 93 98 101 101
2750.0 104 110 115 119 122 127 135 144 156 169
2790.0 186 207 227 248 269 296 331 370 415 468
2830.0 538 632 767 971 1287 1790 2514 3302 3724 3544
2870.0 3015 2482 2106 1891 1788 1778 1876 2103 2462 2941
2910.0 3530 4266 5283 6739 8512 9886 10000 8812 7037 5328
2950.0 3982 3063 2513 2208 2008 1784 1495 1212 993 833
2990.0 715 626 563 516 472 423 373 329 295 265
3030.0 240 223 207 192 182 177 175 177 180 187
3070.0 203 226 256 291 305 268 208 157 126 105
3110.0 90 80 74 69 67 61 55 56 56 54
3150.0 49 47 47 44 40 38 38 36 33 31
3190.0 31 30 27 26 28 27 25 23 22 21
3230.0 21 22 20 17 18 19 18 17 16 17
3270.0 15 15 18 20 18 14 11 14 15 14
3310.0 12 11 11 12 14 14 12 12 13 16
3350.0 17 16 14 10 12 15 17 16 16 15
3390.0 14 15 14 15 14 16 19 17 16 10
3430.0 9 11 11 12 12 13 13 11 10 13
3470.0 13 12 10 7 10 13 12 14 11 7
3510.0 10 12 11 7 9 11 8 10 9 10
3550.0 11 12 16 13 6 11 16 14 11 9
3590.0 13 16 20 25 24 22 21 20 19 20
3630.0 23 26 23 22 23 23 25 26 26 24
3670.0 25 24 21 23 25 25 23 23 23 22
3710.0 24 26 26 22 23 22 15 14 17 24
3750.0 25 23 24 24 25 26 28 29 31 28
3790.0 26 26 29 30 28 26 26 28 29 28
3830.0 29 27 28 30 30
##END=
