##TITLE=Tetramethyl methylenediphosphonate
##JCAMP-DX=4.24
##DATA TYPE=INFRARED SPECTRUM
##ORIGIN=EPA-IR VAPOR PHASE LIBRARY
##OWNER=SRD/NIST
Collection (C) 2018 copyright by the U.S. Secretary of Commerce
on behalf of the United States of America. All rights reserved.
##CAS REGISTRY NO=16001-93-7
##MOLFORM=C 5 H 14 O 6 P 2
##$NIST SOURCE=MSDC-IR
##STATE=gas
##XUNITS=1/CM
##YUNITS=ABSORBANCE
##XFACTOR=1.
##YFACTOR=0.001
##DELTAX=1.92898
##FIRSTX=549.8
##LASTX=4000.7
##FIRSTY=11.938
##MAXX=4000.7
##MINX=549.759
##MAXY=0.509758
##MINY=0
##NPOINTS=1790
##XYDATA=(X++(Y..Y))
549.759 11.938 11.088 10.618 9.888 8.778 7.768 6.848 6.288 5.918 5.498
569.049 5.208 4.868 4.508 4.238 3.948 3.648 3.558 3.358 3.188 3.188
588.339 3.048 2.928 2.628 2.468 2.798 2.828 2.378 2.188 2.288 2.378
607.628 2.188 2.298 2.628 2.318 2.238 2.428 2.338 2.438 2.318 2.248
626.918 2.338 2.538 2.498 2.298 2.308 2.358 2.298 2.268 2.488 2.488
646.208 2.398 2.588 2.678 2.588 2.518 2.628 2.808 2.968 3.078 3.028
665.498 2.918 3.058 3.458 3.638 3.858 3.948 4.218 4.648 4.928 5.058
684.787 5.088 5.298 5.508 5.548 5.648 5.948 6.088 6.348 6.848 7.258
704.077 7.608 8.408 9.298 9.998 10.918 11.978 12.778 13.158 13.188 12.978
723.367 12.418 11.628 10.908 10.478 10.118 9.578 9.348 9.248 9.378 9.828
742.657 10.378 10.978 11.568 12.428 13.578 14.508 15.408 16.708 18.098 19.338
761.947 20.338 21.538 22.598 23.298 23.728 24.118 24.858 25.598 26.458 27.788
781.236 29.818 32.548 36.118 40.658 46.088 52.518 60.058 68.338 77.628 87.908
800.526 98.498 109.008 118.898 127.198 133.298 137.698 140.008 140.368 139.138 137.058
819.816 135.228 133.848 133.288 133.768 135.528 137.948 140.538 143.508 146.338 148.508
839.106 150.228 151.388 151.228 149.248 145.048 138.518 130.248 120.498 109.488 97.788
858.395 86.058 75.068 65.068 55.838 47.508 40.508 34.648 29.808 25.748 22.398
877.685 19.838 17.778 16.058 14.778 13.748 12.868 12.018 11.468 11.068 10.548
896.975 10.188 9.928 9.728 9.328 8.988 8.878 8.748 8.538 8.258 8.158
916.265 8.248 8.178 7.868 7.958 8.178 7.998 7.898 7.908 7.658 7.638
935.555 8.078 8.158 7.968 8.028 8.028 7.798 7.898 8.268 8.488 8.708
954.844 8.978 9.198 9.288 9.428 9.968 10.498 10.968 11.508 11.988 12.498
974.134 13.098 13.638 14.228 15.178 16.188 17.148 18.248 19.408 20.508 21.768
993.424 23.478 25.608 27.958 30.378 33.198 36.498 39.968 44.138 49.228 54.878
1012.714 61.758 70.068 79.608 91.418 105.898 123.298 143.988 168.938 198.368 232.548
1032.003 271.238 313.088 357.158 399.798 438.628 471.978 495.208 507.438 509.758 501.768
1051.293 484.798 461.428 434.998 407.278 377.748 347.548 317.908 290.498 264.788 240.588
1070.583 219.868 203.208 188.718 175.178 163.668 153.238 143.148 133.398 123.608 114.048
1089.873 105.888 99.038 92.148 85.638 80.498 76.798 72.988 68.698 65.368 63.168
1109.163 61.098 58.998 57.458 55.398 52.498 50.058 48.508 46.798 44.708 43.038
1128.452 41.758 40.578 38.888 36.968 35.708 34.568 33.378 32.228 31.868 31.708
1147.742 31.158 30.968 31.168 31.948 33.498 35.468 37.758 41.048 46.018 52.288
1167.032 60.128 69.318 78.508 86.458 92.618 96.748 98.368 96.628 92.588 87.798
1186.322 81.558 74.698 67.908 61.458 55.588 50.928 46.598 42.318 39.558 37.448
1205.611 35.178 33.278 31.288 30.038 29.588 28.378 27.648 27.768 27.498 27.058
1224.901 26.918 27.438 27.468 27.288 28.088 29.238 29.628 30.018 30.738 31.368
1244.191 31.858 32.688 33.908 35.858 38.968 42.408 47.238 54.028 62.828 73.848
1263.481 87.268 103.448 121.498 140.968 160.938 179.868 196.758 210.028 218.398 221.908
1282.771 220.428 214.158 203.948 190.738 175.778 160.198 144.708 129.928 116.218 103.588
1302.060 91.998 81.208 71.148 61.898 53.458 46.048 39.638 34.118 29.508 25.668
1321.350 22.478 19.828 17.748 16.108 14.658 13.488 12.558 11.798 11.138 10.518
1340.640 10.078 9.778 9.538 9.368 9.278 9.258 9.288 9.448 9.738 10.158
1359.930 10.698 11.348 12.098 12.828 13.428 13.938 14.228 14.308 14.128 13.618
1379.219 12.828 11.868 10.928 10.098 9.288 8.668 8.238 7.848 7.568 7.418
1398.509 7.328 7.258 7.238 7.088 6.928 6.918 6.888 6.818 6.768 6.678
1417.799 6.608 6.668 6.728 6.808 6.898 7.028 7.298 7.498 7.728 8.118
1437.089 8.628 9.138 9.758 10.588 11.518 12.508 13.438 14.258 14.888 15.248
1456.378 15.388 15.258 14.988 14.708 14.468 14.318 14.078 13.698 13.318 12.948
1475.668 12.568 12.188 11.708 11.188 10.658 10.098 9.658 9.218 8.768 8.508
1494.958 8.278 8.098 7.928 7.758 7.598 7.478 7.388 7.288 7.318 7.318
1514.248 7.268 7.238 7.198 7.238 7.238 7.128 7.118 7.208 7.248 7.188
1533.538 7.178 7.178 7.128 7.018 6.918 6.948 6.948 6.798 6.628 6.648
1552.827 6.608 6.448 6.378 6.338 6.208 6.188 6.168 5.928 5.728 5.518
1572.117 5.348 5.358 5.228 5.018 4.848 4.698 4.628 4.608 4.508 4.368
1591.407 4.188 4.088 4.118 4.178 4.138 3.958 3.938 3.968 3.888 3.818
1610.697 3.788 3.758 3.778 3.878 3.958 3.998 3.938 3.868 3.768 3.658
1629.986 3.598 3.498 3.308 3.098 2.918 2.728 2.588 2.518 2.468 2.368
1649.276 2.258 2.228 2.138 2.048 2.038 1.938 1.858 1.828 1.788 1.778
1668.566 1.748 1.798 1.808 1.808 1.778 1.708 1.688 1.648 1.698 1.688
1687.856 1.598 1.538 1.488 1.468 1.508 1.608 1.628 1.568 1.588 1.628
1707.146 1.678 1.658 1.688 1.818 1.798 1.828 1.968 2.038 2.028 2.068
1726.435 2.198 2.278 2.298 2.418 2.568 2.668 2.908 3.238 3.628 4.118
1745.725 4.708 5.168 5.518 5.738 5.648 5.398 5.118 4.718 4.288 3.968
1765.015 3.838 3.708 3.588 3.548 3.458 3.398 3.318 3.238 3.248 3.308
1784.305 3.328 3.318 3.368 3.428 3.378 3.308 3.328 3.348 3.358 3.368
1803.594 3.358 3.358 3.378 3.328 3.298 3.398 3.448 3.448 3.528 3.558
1822.884 3.578 3.658 3.718 3.828 3.908 4.068 4.188 4.178 4.238 4.308
1842.174 4.388 4.468 4.498 4.418 4.328 4.368 4.338 4.298 4.278 4.228
1861.464 4.188 4.218 4.238 4.218 4.188 4.088 4.048 4.108 4.138 4.218
1880.754 4.218 4.108 4.028 3.978 3.998 3.988 3.928 3.878 3.818 3.768
1900.043 3.658 3.538 3.408 3.308 3.198 3.178 3.208 3.018 2.888 2.828
1919.333 2.768 2.698 2.608 2.538 2.508 2.488 2.408 2.328 2.218 2.168
1938.623 2.188 2.058 1.948 1.908 1.768 1.738 1.798 1.828 1.828 1.748
1957.913 1.648 1.658 1.648 1.598 1.628 1.678 1.618 1.558 1.538 1.498
1977.202 1.458 1.478 1.468 1.478 1.538 1.528 1.438 1.408 1.318 1.258
1996.492 1.308 1.288 1.23 1.1847 1.1782 1.1822 1.2096 1.1931 1.1515 1.1629
2015.782 1.1578 1.1529 1.0815 1.0757 1.1407 1.1326 1.1742 1.153 1.0522 1.06
2035.072 1.1145 1.0873 1.0761 1.1183 1.091 1.1541 1.1407 1.0659 1.0703 1.1528
2054.362 1.1982 1.1168 1.0951 1.1103 1.1495 1.2053 1.258 1.338 1.358 1.368
2073.651 1.448 1.458 1.498 1.498 1.518 1.558 1.528 1.508 1.498 1.498
2092.941 1.498 1.458 1.398 1.428 1.418 1.298 1.268 1.278 1.248 1.2062
2112.231 1.1288 1.0564 1.0608 1.129 1.1249 1.1018 1.0581 1.0322 1.047 0.9655
2131.521 0.9374 0.9854 0.9471 0.8933 0.864 0.8391 0.8955 0.8619 0.7259 0.6932
2150.810 0.7762 0.8138 0.8382 0.8195 0.6939 0.6695 0.6743 0.5928 0.5907 0.6706
2170.100 0.6476 0.6135 0.6759 0.6509 0.6089 0.587 0.5661 0.5548 0.5069 0.4823
2189.390 0.5356 0.5884 0.6152 0.6265 0.5578 0.5307 0.5415 0.5467 0.5773 0.5423
2208.680 0.4575 0.4691 0.4991 0.5009 0.5246 0.5181 0.5535 0.5984 0.4882 0.33177
2227.970 0.3836 0.4783 0.5109 0.5401 0.5389 0.5746 0.5736 0.5521 0.5997 0.5994
2247.259 0.5399 0.4911 0.5016 0.5646 0.5605 0.5633 0.5816 0.5138 0.4543 0.5183
2266.549 0.5363 0.4705 0.4557 0.4692 0.4709 0.4905 0.47 0.502 0.5382 0.5014
2285.839 0.5159 0.5533 0.5857 0.5314 0.5255 0.5269 0.4576 0.4443 0.4427 0.4794
2305.129 0.5494 0.5446 0.5138 0.4698 0.4552 0.4383 0.3601 0.29494 0.33374 0.4633
2324.418 0.5192 0.4657 0.4596 0.4668 0.4428 0.5167 0.6109 0.5332 0.4563 0.5308
2343.708 0.499 0.4313 0.4671 0.4116 0.3649 0.4395 0.4697 0.4194 0.309 0.28922
2362.998 0.3481 0.33449 0.27916 0.23567 0.2735 0.3526 0.3957 0.3843 0.29707 0.237956
2382.288 0.26973 0.32095 0.32006 0.31843 0.3776 0.3702 0.3788 0.3958 0.3879 0.3426
2401.578 0.3463 0.427 0.4089 0.3465 0.33622 0.3881 0.392 0.32985 0.239968 0.30467
2420.867 0.3733 0.29461 0.28541 0.30855 0.26149 0.29481 0.32477 0.27103 0.32824 0.3333
2440.157 0.28736 0.3697 0.4192 0.28755 0.2187 0.30288 0.32122 0.28884 0.3508 0.4335
2459.447 0.5002 0.4931 0.4426 0.4164 0.4456 0.4283 0.3481 0.3652 0.3977 0.4151
2478.737 0.395 0.3904 0.3929 0.356 0.32227 0.3394 0.3518 0.3686 0.4435 0.4526
2498.026 0.416 0.414 0.4171 0.4249 0.4055 0.4116 0.4746 0.5582 0.6436 0.5703
2517.316 0.487 0.461 0.4311 0.4559 0.5791 0.7151 0.6722 0.5625 0.6056 0.6953
2536.606 0.7948 0.8649 0.8559 0.8862 0.8984 0.8699 0.8724 0.7992 0.681 0.7158
2555.896 0.829 0.8778 0.8269 0.7475 0.6773 0.6779 0.7861 0.8986 0.8755 0.7523
2575.186 0.7047 0.6841 0.6706 0.7394 0.7297 0.7149 0.7644 0.8025 0.8052 0.7923
2594.475 0.6975 0.578 0.6369 0.7385 0.7952 0.8067 0.73 0.6616 0.6697 0.7608
2613.765 0.8757 0.9264 0.9658 0.9471 0.8868 0.8708 0.8821 0.8396 0.8409 0.9577
2633.055 0.8992 0.8006 0.8691 0.8414 0.8039 0.8317 0.9078 0.9968 0.9486 0.9327
2652.345 0.8386 0.7941 0.8093 0.7131 0.7374 0.784 0.7754 0.7999 0.7598 0.6806
2671.634 0.6436 0.5677 0.5168 0.5156 0.5901 0.5647 0.5761 0.652 0.5244 0.5189
2690.924 0.5979 0.5474 0.4827 0.413 0.4951 0.5582 0.4923 0.496 0.5756 0.6115
2710.214 0.5666 0.443 0.4142 0.4816 0.526 0.5466 0.5659 0.6014 0.5267 0.5034
2729.504 0.431 0.4526 0.655 0.5938 0.4814 0.5221 0.5624 0.5994 0.571 0.5223
2748.794 0.5169 0.5836 0.6258 0.5469 0.5769 0.6432 0.6024 0.5956 0.6256 0.6903
2768.083 0.7784 0.8363 0.8401 0.8357 0.9014 1.0176 0.9634 0.8368 0.9079 1.0687
2787.373 1.258 1.368 1.318 1.248 1.348 1.458 1.568 1.738 1.778 1.828
2806.663 1.968 2.068 2.268 2.568 2.748 2.958 3.198 3.428 3.788 4.108
2825.953 4.358 4.728 5.148 5.538 6.048 6.628 7.288 8.168 9.158 10.388
2845.242 12.018 14.128 16.968 20.548 24.668 28.588 31.818 34.238 35.358 35.138
2864.532 33.508 30.668 27.108 23.508 20.378 17.528 15.228 13.478 12.198 11.318
2883.822 10.658 10.428 10.318 10.188 10.208 10.278 10.288 10.538 10.978 11.368
2903.112 11.798 12.338 12.928 13.458 14.058 14.738 15.238 15.838 16.518 16.908
2922.401 17.278 17.748 17.978 18.138 18.438 18.788 19.328 20.088 21.348 22.898
2941.691 24.798 27.398 30.858 35.628 41.898 49.478 58.608 68.618 77.608 84.948
2960.981 89.768 91.168 89.208 84.078 76.098 66.728 57.318 48.938 42.288 36.898
2980.271 32.658 29.698 27.578 26.088 25.088 24.368 23.888 23.518 23.238 23.088
2999.561 23.088 22.948 22.788 22.718 22.568 22.418 22.328 22.268 22.088 21.928
3018.850 21.638 21.008 20.348 19.658 18.748 17.798 16.808 15.788 14.888 13.998
3038.140 13.328 12.798 12.198 11.638 11.318 11.088 10.908 10.668 10.338 10.268
3057.430 10.268 10.118 10.008 9.968 9.918 9.748 9.608 9.528 9.498 9.328
3076.720 9.088 8.898 8.518 8.328 8.278 8.068 7.798 7.428 7.118 6.958
3096.009 6.668 6.378 6.128 5.908 5.698 5.418 5.128 4.868 4.658 4.558
3115.299 4.388 4.088 3.938 3.858 3.638 3.528 3.378 3.118 2.968 2.838
3134.589 2.758 2.558 2.308 2.308 2.268 2.018 1.798 1.688 1.668 1.698
3153.879 1.468 1.368 1.538 1.508 1.328 1.268 1.1717 1.0549 1.1834 1.2046
3173.169 1.0428 0.9861 0.9644 0.9192 0.8588 0.779 0.9241 0.932 0.9435 1.0156
3192.458 0.9637 0.9987 0.8238 0.6715 0.7048 0.7072 0.6845 0.7333 0.8 0.724
3211.748 0.6315 0.655 0.6355 0.6308 0.6077 0.5289 0.4582 0.4431 0.4885 0.4936
3231.038 0.5982 0.4931 0.4242 0.4824 0.4757 0.6117 0.6469 0.5042 0.4283 0.4328
3250.328 0.496 0.5312 0.4623 0.4184 0.4983 0.6416 0.6032 0.4694 0.363 0.4429
3269.617 0.6398 0.5453 0.4072 0.4837 0.5298 0.4764 0.4775 0.424 0.4746 0.6146
3288.907 0.5046 0.4402 0.4721 0.4125 0.3752 0.3885 0.4648 0.4444 0.4703 0.33328
3308.197 0.33241 0.3913 0.25481 0.31543 0.3915 0.3518 0.33225 0.3687 0.41 0.4585
3327.487 0.32816 0.2896 0.5263 0.4563 0.3889 0.5089 0.26167 0.1453 0.2062 0.29155
3346.777 0.4512 0.4663 0.3871 0.2548 0.2165 0.247372 0.28819 0.31974 0.28381 0.31033
3366.066 0.33231 0.3917 0.4263 0.4027 0.4564 0.3956 0.1925 0.129 0.31444 0.4345
3385.356 0.23112 0.052 0.091 0.23536 0.4512 0.4313 0.4037 0.4282 0.33227 0.3494
3404.646 0.3713 0.353 0.244646 0.134 0.1485 0.1623 0.1591 0.071 0.007 0.2078
3423.936 0.2622 0.208 0.131 0.1917 0.33071 0.32074 0.243554 0.068 0.059 0.237696
3443.225 0.341 0.1561 0.033 0.2193 0.28032 0.1868 0.3625 0.32737 0.1846 0.3543
3462.515 0.29052 0.1882 0.26876 0.25667 0.31784 0.3908 0.27632 0.3705 0.4493 0.4369
3481.805 0.352 0.247027 0.25889 0.238439 0.25142 0.26135 0.2106 0.26004 0.32222 0.30874
3501.095 0.2068 0.1885 0.1885 0.172 0.3769 0.4748 0.2259 0.07 0.31665 0.3956
3520.385 0.31128 0.3803 0.30013 0.123 0.2224 0.2739 0.27537 0.4032 0.5152 0.4784
3539.674 0.30907 0.3654 0.30207 0.1602 0.26395 0.1413 0.081 0.1816 0.2102 0.2039
3558.964 0.23481 0.27093 0.241637 0.2158 0.23415 0.1969 0.2069 0.23697 0.25096 0.31994
3578.254 0.3383 0.4029 0.4589 0.3782 0.27363 0.25153 0.194 0.240024 0.26492 0.3644
3597.544 0.3991 0.31082 0.3481 0.31672 0.238638 0.088 0 0.125 0.121 0.105
3616.833 0.122 0.1885 0.3864 0.3809 0.3463 0.29868 0.30575 0.3622 0.3878 0.2792
3636.123 0.1465 0.102 0.1836 0.4067 0.359 0.33296 0.4275 0.3991 0.3177 0.25051
3655.413 0.3581 0.5112 0.3732 0.206 0.27467 0.2166 0.1621 0.2087 0.3528 0.4491
3674.703 0.3715 0.3417 0.27556 0.1984 0.30569 0.1931 0.057 0.054 0.23307 0.3534
3693.993 0.23305 0.218 0.25378 0.3534 0.2949 0.2691 0.32004 0.2237 0.1545 0.27848
3713.282 0.3679 0.3908 0.3851 0.3893 0.3098 0.1766 0.32395 0.4465 0.32898 0.3934
3732.572 0.5171 0.3808 0.4593 0.534 0.31873 0.24481 0.26682 0.33145 0.4419 0.4492
3751.862 0.31044 0.3577 0.4024 0.30308 0.23283 0.25893 0.3793 0.4226 0.3873 0.25153
3771.152 0.2892 0.3831 0.4205 0.377 0.2691 0.33728 0.3588 0.4902 0.5118 0.4341
3790.441 0.3942 0.2151 0.242228 0.33459 0.28813 0.3674 0.4046 0.32666 0.3627 0.28804
3809.731 0.32208 0.4184 0.29829 0.27948 0.4326 0.4489 0.28041 0.28006 0.27961 0.26242
3829.021 0.27056 0.26922 0.25789 0.1393 0.101 0.1461 0.25483 0.42 0.28084 0.1634
3848.311 0.1919 0.2025 0.25295 0.239658 0.26364 0.1527 0.1424 0.26833 0.4023 0.32618
3867.601 0.148 0.29667 0.4559 0.3693 0.32298 0.3536 0.3462 0.29315 0.1957 0.26691
3886.890 0.4397 0.30731 0.33128 0.7168 0.7233 0.5406 0.6661 0.9149 0.9176 0.7745
3906.180 0.7172 0.7724 0.698 0.3633 0.3866 0.7752 0.8649 0.7215 0.6776 0.6173
3925.470 0.5435 0.4264 0.2128 0.28258 0.4552 0.4701 0.5483 0.5426 0.55 0.5931
3944.760 0.6269 0.5492 0.6101 0.8048 0.796 0.8085 0.7136 0.6757 0.6132 0.6056
3964.049 0.6396 0.7173 0.6559 0.4641 0.5231 0.5269 0.552 0.6269 0.7021 0.8793
3983.339 0.8922 0.7772 1.0274 1.1304 0.978 1.1136 1.2144 1.0911 1.1243 1.1211
##END=
