##TITLE=trans-1-Phenyl-1-pentene
##JCAMP-DX=4.24
##DATA TYPE=INFRARED SPECTRUM
##ORIGIN=NIST Mass Spectrometry Data Center
##OWNER=NIST Standard Reference Data Program
Collection (C) 2018 copyright by the U.S. Secretary of Commerce
on behalf of the United States of America. All rights reserved.
##CAS REGISTRY NO=16002-93-0
##MOLFORM=C 11 H 14
##$NIST SOURCE=MSDC-IR
##SPECTROMETER/DATA SYSTEM=HP-GC/MS/IRD
##STATE=gas
##XUNITS=1/CM
##YUNITS=ABSORBANCE
##XFACTOR=1.0
##YFACTOR=0.000001400
##DELTAX=4.0
##FIRSTX=550.0
##LASTX=3846.0
##FIRSTY=0.000403
##MAXX=3846
##MINX=550
##MAXY=0.014
##MINY=0
##NPOINTS=825
##XYDATA=(X++(Y..Y))
550.0 288 167 97 73 24 47 11 2 29 30
590.0 135 194 237 402 481 457 379 287 223 216
630.0 172 117 130 171 225 300 433 548 718 979
670.0 1284 1768 2384 2973 3578 4058 4186 4013 3707 3363
710.0 2996 2800 2881 3207 3645 4096 4480 4520 4163 3591
750.0 2935 2300 1776 1417 1151 929 801 709 615 542
790.0 483 461 465 461 466 472 420 362 334 303
830.0 249 239 250 209 163 164 218 236 230 260
870.0 287 317 369 394 403 413 413 435 449 444
910.0 439 417 420 455 505 608 806 1102 1523 2144
950.0 2859 3586 4202 4389 4069 3513 2851 2206 1664 1248
990.0 977 810 693 621 589 578 603 698 870 967
1030.0 943 814 594 492 511 553 621 693 729 764
1070.0 761 705 634 543 458 401 370 337 297 282
1110.0 277 254 216 166 138 130 133 104 105 129
1150.0 105 102 114 124 117 112 108 117 141 136
1190.0 146 159 163 185 205 217 213 195 187 189
1230.0 188 196 205 225 230 264 336 415 473 485
1270.0 445 402 397 399 395 393 422 466 510 550
1310.0 568 573 584 634 701 813 981 1073 1030 886
1350.0 703 536 462 444 437 488 572 654 718 723
1390.0 652 553 472 412 393 397 422 477 569 709
1430.0 873 1075 1297 1477 1601 1649 1640 1612 1572 1485
1470.0 1407 1374 1433 1612 1884 2194 2327 2111 1646 1086
1510.0 643 436 345 296 270 248 243 233 226 231
1550.0 230 237 264 292 339 392 443 546 701 924
1590.0 1224 1478 1532 1359 1049 718 476 350 287 254
1630.0 250 271 306 348 390 396 381 347 280 220
1670.0 183 160 154 155 169 180 197 210 204 204
1710.0 201 192 192 211 220 227 241 239 226 227
1750.0 238 245 258 281 308 343 372 385 413 460
1790.0 482 463 389 313 251 219 209 184 167 165
1830.0 157 160 167 176 189 208 234 268 301 324
1870.0 334 336 316 277 227 168 122 95 88 103
1910.0 122 139 183 226 260 303 334 355 366 368
1950.0 342 288 215 133 80 56 39 27 38 49
1990.0 51 52 41 29 24 28 18 15 21 29
2030.0 38 48 44 30 41 45 22 13 17 9
2070.0 12 16 7 17 23 8 5 7 10 5
2110.0 4 17 21 24 28 16 22 14 2 9
2150.0 13 19 17 22 23 19 30 34 21 24
2190.0 25 25 32 28 39 34 10 12 27 31
2230.0 18 13 17 29 33 25 12 8 24 33
2270.0 42 46 34 36 44 41 41 46 47 64
2310.0 79 85 91 69 48 51 59 69 73 64
2350.0 67 64 54 60 56 47 39 41 45 29
2390.0 25 39 58 67 48 39 45 34 38 40
2430.0 38 38 40 52 35 18 31 36 38 36
2470.0 30 21 4 5 19 24 38 38 16 25
2510.0 43 47 31 28 47 56 45 46 56 59
2550.0 65 57 61 82 98 83 62 66 84 89
2590.0 72 66 72 68 70 91 97 83 82 86
2630.0 91 100 94 87 91 102 103 100 119 136
2670.0 125 120 123 121 108 100 101 112 122 129
2710.0 114 102 127 135 140 155 164 182 206 207
2750.0 215 215 209 214 219 240 250 277 327 339
2790.0 345 365 380 423 471 501 560 633 734 876
2830.0 1034 1243 1527 1876 2249 2546 2746 2885 3070 3431
2870.0 3927 4458 4953 5162 5069 4840 4581 4509 4672 4965
2910.0 5356 5827 6366 7076 7987 8919 9669 10000 9720 9052
2950.0 8328 7851 7910 8498 9389 9857 9437 8197 6407 4885
2990.0 3986 3453 3151 3035 3080 3306 3727 4329 5041 5665
3030.0 5964 5798 5197 4359 3678 3360 3344 3765 4607 5288
3070.0 5436 5035 4216 3548 3179 2893 2551 2176 1811 1488
3110.0 1196 924 689 533 433 363 312 281 278 285
3150.0 285 281 247 203 206 211 184 179 187 167
3190.0 133 125 112 117 147 131 93 76 81 92
3230.0 90 85 84 87 86 72 63 50 48 66
3270.0 70 70 65 51 51 43 35 26 9 9
3310.0 16 9 27 41 32 39 32 30 42 39
3350.0 44 48 28 34 48 22 24 54 63 63
3390.0 62 40 20 45 57 44 29 21 25 15
3430.0 21 30 39 36 30 31 14 15 16 0
3470.0 17 28 19 14 8 19 49 60 38 18
3510.0 27 37 44 30 28 31 10 14 34 52
3550.0 59 27 3 15 25 19 19 34 32 27
3590.0 31 22 25 50 54 44 34 51 68 51
3630.0 52 51 60 74 74 67 68 81 84 74
3670.0 92 109 78 64 87 91 88 74 63 82
3710.0 80 81 94 60 58 77 71 58 49 47
3750.0 39 49 46 54 66 63 72 80 89 69
3790.0 51 65 69 72 77 86 88 69 60 77
3830.0 79 66 44 54 79
##END=
