##TITLE=2-Amino-5-picoline
##JCAMP-DX=4.24
##DATA TYPE=INFRARED SPECTRUM
##ORIGIN=NIST Mass Spectrometry Data Center
##OWNER=NIST Standard Reference Data Program
Collection (C) 2018 copyright by the U.S. Secretary of Commerce
on behalf of the United States of America. All rights reserved.
##CAS REGISTRY NO=1603-41-4
##MOLFORM=C 6 H 8 N 2
##$NIST SOURCE=MSDC-IR
##SPECTROMETER/DATA SYSTEM=HP-GC/MS/IRD
##STATE=gas
##XUNITS=1/CM
##YUNITS=ABSORBANCE
##XFACTOR=1.0
##YFACTOR=0.000003400
##DELTAX=4.0
##FIRSTX=550.0
##LASTX=3846.0
##FIRSTY=0.001333
##MAXX=3846
##MINX=550
##MAXY=0.034
##MINY=0
##NPOINTS=825
##XYDATA=(X++(Y..Y))
550.0 392 576 490 574 619 740 856 969 1064 1138
590.0 1182 1216 1223 1176 1096 1009 925 817 723 662
630.0 623 617 641 680 681 692 791 867 889 955
670.0 1056 1169 1296 1386 1410 1406 1387 1304 1182 1065
710.0 979 930 892 861 825 800 769 702 638 597
750.0 556 517 493 500 539 594 664 752 877 1041
790.0 1241 1457 1666 1869 2084 2372 2478 2174 1848 1626
830.0 1413 1167 944 776 634 526 452 409 374 320
870.0 266 233 219 210 200 187 182 191 194 207
910.0 220 233 234 228 224 218 209 203 195 196
950.0 195 192 196 208 209 205 205 203 188 172
990.0 166 159 174 206 241 288 327 359 411 438
1030.0 442 429 407 391 395 382 357 337 320 303
1070.0 274 247 228 207 173 154 139 123 120 121
1110.0 146 198 278 412 610 738 729 707 738 705
1150.0 517 313 189 134 104 74 51 38 30 19
1190.0 11 6 0 0 7 17 39 62 99 159
1230.0 235 330 445 561 629 654 670 696 692 634
1270.0 583 597 734 1058 1557 2093 2461 2659 2781 2748
1310.0 2361 1670 1071 739 560 440 354 297 263 251
1350.0 262 304 378 491 669 937 1332 1886 2524 3099
1390.0 3553 3804 3772 3448 2901 2282 1660 1147 838 684
1430.0 606 569 554 564 581 619 692 790 911 1109
1470.0 1483 2193 3471 5474 7739 9146 9452 9230 8756 7343
1510.0 4621 2336 1281 894 744 682 674 707 769 860
1550.0 985 1141 1326 1534 1718 1873 2016 2251 2583 2880
1590.0 3162 3727 4767 6231 7795 9102 9889 10000 9474 8336
1630.0 6671 4777 3098 1973 1320 961 767 651 564 504
1670.0 458 414 368 322 280 246 218 201 185 167
1710.0 152 145 143 140 135 123 112 104 102 108
1750.0 110 106 104 103 105 105 100 94 91 83
1790.0 76 70 71 75 79 83 86 98 104 98
1830.0 101 104 106 110 119 133 149 166 177 182
1870.0 186 191 191 188 181 176 178 172 164 161
1910.0 156 144 135 121 112 108 101 92 90 96
1950.0 102 107 113 118 122 129 134 141 145 144
1990.0 141 141 144 142 134 128 120 119 127 130
2030.0 133 139 141 143 143 136 124 115 111 106
2070.0 107 108 104 109 119 126 127 130 132 132
2110.0 136 135 129 122 120 121 126 131 136 136
2150.0 129 134 132 127 130 128 123 120 124 128
2190.0 131 138 139 137 141 145 149 151 150 148
2230.0 148 145 147 154 154 159 159 157 161 161
2270.0 158 153 152 154 151 149 152 159 162 163
2310.0 164 163 167 168 170 174 178 179 176 177
2350.0 179 186 180 171 158 150 144 140 135 129
2390.0 126 124 128 124 121 126 131 137 141 141
2430.0 143 145 148 146 149 154 157 169 173 175
2470.0 180 185 189 181 171 167 162 160 160 156
2510.0 156 154 147 142 139 137 140 138 134 138
2550.0 133 132 139 143 149 158 166 169 171 176
2590.0 178 177 177 175 169 161 157 155 153 161
2630.0 166 163 165 159 156 154 148 151 150 141
2670.0 141 144 147 149 151 149 144 147 149 148
2710.0 138 140 158 161 162 176 189 195 204 220
2750.0 222 217 207 190 174 162 152 157 161 168
2790.0 180 179 183 198 208 212 224 238 247 255
2830.0 273 295 316 345 381 425 491 578 684 797
2870.0 914 999 1043 1070 1075 1055 1025 1011 1019 1030
2910.0 1063 1133 1244 1406 1564 1671 1694 1637 1527 1368
2950.0 1170 993 883 816 804 827 852 887 928 995
2990.0 1082 1205 1396 1661 1984 2259 2397 2456 2479 2394
3030.0 2118 1747 1490 1365 1264 1129 1008 931 863 786
3070.0 709 653 618 585 560 524 482 451 425 398
3110.0 373 343 309 279 252 231 219 208 189 183
3150.0 191 192 193 192 198 208 207 211 213 207
3190.0 196 192 194 195 191 182 185 196 185 164
3230.0 162 168 168 158 146 146 149 140 137 136
3270.0 136 146 135 121 124 128 139 144 145 146
3310.0 138 134 126 123 134 142 147 155 153 143
3350.0 149 161 173 175 178 191 210 236 273 324
3390.0 405 536 732 976 1178 1284 1358 1407 1381 1201
3430.0 957 767 641 516 381 301 261 238 227 240
3470.0 268 296 329 370 431 510 615 734 820 854
3510.0 863 885 909 889 816 709 587 518 479 415
3550.0 348 297 249 214 195 171 157 150 152 153
3590.0 142 137 134 123 124 130 131 136 141 134
3630.0 133 137 132 141 149 143 141 145 149 145
3670.0 147 149 157 158 152 159 161 162 158 157
3710.0 152 147 145 148 155 158 148 152 153 144
3750.0 144 150 166 174 182 188 181 175 177 177
3790.0 169 168 164 159 166 162 170 186 175 172
3830.0 188 188 181 188 181
##END=
