##TITLE=3-Bromo-4-fluorocinnamic acid
##JCAMP-DX=4.24
##DATA TYPE=INFRARED SPECTRUM
##ORIGIN=EPA-IR VAPOR PHASE LIBRARY
##OWNER=SRD/NIST
Collection (C) 2018 copyright by the U.S. Secretary of Commerce
on behalf of the United States of America. All rights reserved.
##CAS REGISTRY NO=160434-49-1
##MOLFORM=C 9 H 6 Br F O 2
##$NIST SOURCE=MSDC-IR
##STATE=gas
##XUNITS=1/CM
##YUNITS=ABSORBANCE
##XFACTOR=1.
##YFACTOR=0.001
##DELTAX=1.929
##FIRSTX=549.8
##LASTX=4000.8
##FIRSTY=11.81
##MAXX=4000.75
##MINX=549.766
##MAXY=0.0994
##MINY=0
##NPOINTS=1790
##XYDATA=(X++(Y..Y))
549.766 11.81 10.79 10.54 10.55 10.86 11.42 11.71 11.99 12.59 13.32
569.056 14.01 14.72 15.61 16.08 16.49 17.07 17.05 16.58 15.94 15.12
588.346 13.85 12.27 10.52 8.89 7.62 6.76 6.33 5.89 5.72 5.81
607.636 6.03 6.44 6.67 7.05 7.43 7.55 7.55 7.2 6.68 6.65
626.926 6.83 7.03 7.24 7.27 7.3 7.58 8.29 8.82 8.97 8.68
646.216 8.09 6.94 5.22 3.91 3.39 3.19 3.16 3.36 3.29 3.18
665.506 3.41 3.54 3.61 3.92 4.26 4.35 4.46 4.66 4.81 4.82
684.796 4.72 4.83 4.9 4.83 4.87 4.72 4.31 4.04 3.89 3.62
704.086 3.37 3.15 2.9 2.61 2.45 2.31 2.21 2.2 2.14 2.08
723.376 2.14 2.18 2.25 2.33 2.18 2.21 2.24 2.12 2.14 2.15
742.666 2.08 2.06 2.15 2.15 2.08 2.14 2.19 2.25 2.2 2.16
761.956 2.17 2.04 1.92 1.83 1.73 1.81 2 2.19 2.56 3.04
781.246 3.55 4.16 4.68 4.88 4.9 4.75 4.6 4.6 4.65 4.95
800.536 5.58 6.41 7.43 8.79 10.53 12.42 13.99 15.38 16.58 16.9
819.826 15.94 14.16 12.27 10.26 8.42 6.82 5.44 4.52 3.85 3.44
839.116 3.16 3.01 2.99 3.05 3.29 3.74 4.29 4.85 5.62 6.45
858.406 7.18 7.82 8.11 7.93 7.72 7.53 6.97 6.46 6.32 6.5
877.696 7.14 8.08 9.2 10.29 10.89 11.2 11.09 10.43 9.67 8.99
896.986 8.45 7.8 6.97 6.44 6.2 5.91 5.62 5.4 5.19 4.94
916.276 4.61 4.29 4 3.75 3.63 3.53 3.48 3.62 3.83 4.06
935.566 4.37 4.79 5.29 5.71 6.11 6.3 6.12 5.87 5.49 5.06
954.856 4.68 4.41 4.34 4.49 5.07 6 7.07 8.4 9.89 11.21
974.146 12.35 13.17 13.34 12.81 11.79 10.41 8.85 7.44 6.3 5.29
993.436 4.48 3.91 3.59 3.41 3.24 3.09 2.97 2.87 2.72 2.59
1012.726 2.46 2.3 2.26 2.26 2.22 2.2 2.27 2.44 2.57 2.81
1032.016 3.18 3.6 4.15 4.81 5.7 6.67 7.56 8.26 8.6 8.62
1051.306 8.44 8.06 7.37 6.65 6.25 6.1 6.13 6.36 6.76 7.16
1070.596 7.46 7.57 7.57 7.53 7.64 8.04 8.73 9.62 10.46 11.35
1089.886 12.36 13.41 14.68 16.34 18.46 21.21 24.9 29.83 36.11 44.12
1109.176 54.34 66.42 79.35 90.86 98.05 99.4 95.2 86.28 74.51 62.36
1128.467 52.23 44.88 39.45 35.37 32.26 30.2 29.09 28.93 29.57 30.92
1147.757 33.1 36 39.05 41.86 43.75 43.69 41.57 37.71 32.61 26.97
1167.047 21.77 17.75 14.94 12.95 11.65 10.83 10.36 10.21 10.22 10.39
1186.337 10.74 11.36 12.06 12.7 13.23 13.28 12.79 11.89 10.55 9.24
1205.627 8.5 8.08 7.87 7.98 8.22 8.47 8.71 8.99 9.3 9.47
1224.917 9.49 9.65 9.9 10.23 10.85 11.66 12.52 13.68 15.2 17
1244.207 19.22 21.97 25.19 28.7 32.37 35.88 38.75 40.83 42.16 42.47
1263.497 41.41 39.03 35.5 30.92 25.86 21.13 17.21 14.34 12.56 11.48
1282.787 10.89 10.45 9.99 9.65 9.38 9.17 9.01 9.07 9.22 9.43
1302.077 9.73 10.07 10.35 10.45 10.45 10.31 10.15 9.9 9.48 9.07
1321.367 8.75 8.48 8.26 8.1 8.03 8.1 8.28 8.58 8.99 9.68
1340.657 10.63 11.76 13.1 14.67 16.41 18.07 19.49 20.61 21.23 21.39
1359.947 20.93 19.85 18.32 16.45 14.47 12.66 11.18 10.07 9.31 8.88
1379.237 8.67 8.55 8.59 8.87 9.36 10.1 11.08 12.16 13.17 13.9
1398.527 14.15 13.85 12.99 11.66 10.31 9.16 8.32 7.63 6.95 6.37
1417.817 5.81 5.2 4.79 4.46 4.11 3.9 3.85 3.84 3.8 3.75
1437.107 3.77 3.8 3.81 3.79 3.68 3.58 3.52 3.59 3.67 3.71
1456.397 3.88 4.16 4.46 4.82 5.2 5.68 6.26 6.95 7.85 9.11
1475.687 10.71 12.7 15.08 17.86 21.13 24.97 29.52 35 41.21 46.82
1494.977 50.26 50.65 47.55 41.35 33.09 24.76 17.61 12.88 10.17 8.41
1514.267 7.25 6.36 5.66 5.11 4.57 4.13 3.75 3.46 3.22 2.97
1533.557 2.75 2.66 2.59 2.54 2.55 2.61 2.77 2.95 3.12 3.35
1552.847 3.61 3.86 4.09 4.37 4.72 5.05 5.28 5.38 5.47 5.52
1572.137 5.58 5.66 5.82 6.15 6.6 7.13 7.8 8.57 9.44 10.4
1591.427 11.32 12.22 12.8 12.93 12.56 11.62 10.23 8.72 7.34 6.2
1610.717 5.41 5.07 4.97 4.98 5.19 5.53 6.1 6.9 7.92 9.47
1630.007 11.55 14.2 17.34 21.06 24.83 28.04 30.06 30.26 28.35 24.62
1649.297 19.89 15.01 10.39 7.33 5.66 4.53 3.85 3.37 3.03 2.89
1668.587 2.8 2.76 2.73 2.72 2.83 2.91 3 3.1 3.18 3.35
1687.877 3.58 3.74 3.91 4.07 4.19 4.32 4.44 4.61 4.81 5.12
1707.167 5.53 5.96 6.47 7.06 7.71 8.45 9.26 10.05 10.93 11.95
1726.457 13.09 14.4 15.84 17.5 19.74 22.34 25.5 29.99 35.81 43.53
1745.747 53.02 64.02 75.26 85.45 93.05 97.23 97.21 92.72 85.31 77.11
1765.037 68.42 58.78 49.17 41.36 35.26 30.99 28.08 26.05 24.53 23.22
1784.327 22.03 20.83 19.57 18.05 16.35 14.62 13.03 11.55 10.18 8.99
1803.617 7.93 7.11 6.42 5.84 5.36 4.97 4.69 4.42 4.24 4.03
1822.907 3.83 3.64 3.46 3.28 3.04 2.87 2.68 2.5 2.35 2.21
1842.197 2.11 2.01 1.87 1.77 1.69 1.55 1.47 1.43 1.44 1.4
1861.487 1.4 1.44 1.38 1.37 1.46 1.56 1.61 1.73 1.81 1.85
1880.777 1.9 1.93 1.95 1.88 1.76 1.67 1.59 1.45 1.37 1.3125
1900.067 1.2401 1.1749 1.1299 1.1722 1.1566 1.0806 1.05 1.0517 1.072 1.086
1919.357 1.0663 1.0121 0.9599 0.9736 0.9932 0.9607 0.9387 0.8758 0.825 0.8098
1938.647 0.8225 0.862 0.8803 0.8352 0.8043 0.8193 0.7707 0.7582 0.7578 0.7359
1957.937 0.7901 0.7903 0.741 0.7059 0.6824 0.6814 0.7428 0.768 0.7204 0.7094
1977.227 0.7231 0.7447 0.7192 0.7147 0.7275 0.7486 0.7748 0.7507 0.716 0.7152
1996.517 0.7034 0.7285 0.7481 0.6833 0.6941 0.7379 0.7317 0.762 0.795 0.7971
2015.807 0.7739 0.7343 0.7483 0.7548 0.7704 0.8215 0.8443 0.8787 0.8506 0.812
2035.097 0.8727 0.9346 0.9512 0.9335 0.9474 0.9922 1.0013 1.0466 1.0681 1.0662
2054.387 1.0799 1.0541 1.0581 1.0752 1.0348 0.9951 0.9327 0.856 0.7738 0.7112
2073.677 0.7213 0.7283 0.6861 0.6106 0.6059 0.5984 0.5751 0.6024 0.5979 0.5489
2092.967 0.538 0.5254 0.5319 0.5558 0.5173 0.5012 0.4874 0.4767 0.4791 0.4342
2112.257 0.4362 0.4788 0.4856 0.5006 0.484 0.4868 0.5047 0.5144 0.555 0.5398
2131.547 0.5386 0.5618 0.5091 0.4663 0.486 0.5423 0.5474 0.5242 0.5097 0.5116
2150.837 0.5349 0.5362 0.5064 0.538 0.5862 0.6009 0.6167 0.6087 0.5713 0.5036
2170.127 0.5056 0.5306 0.5317 0.5617 0.5395 0.5111 0.5376 0.4884 0.4704 0.5276
2189.417 0.5244 0.5218 0.5371 0.5274 0.5104 0.4912 0.514 0.5241 0.5449 0.5628
2208.707 0.5204 0.5115 0.5255 0.5438 0.5647 0.5624 0.5888 0.6735 0.6623 0.5815
2227.997 0.5963 0.6502 0.682 0.7078 0.6766 0.632 0.5888 0.5806 0.5942 0.5132
2247.287 0.4702 0.5225 0.5193 0.4851 0.5289 0.5446 0.5543 0.5624 0.598 0.6152
2266.577 0.5518 0.5396 0.5406 0.553 0.5659 0.5909 0.5914 0.5607 0.538 0.5741
2285.868 0.5689 0.5755 0.5909 0.5589 0.5917 0.6183 0.6173 0.5863 0.5718 0.5396
2305.158 0.5451 0.5978 0.6123 0.6073 0.5422 0.5134 0.5419 0.5531 0.5337 0.4538
2324.448 0.39016 0.4465 0.4752 0.39593 0.37925 0.4077 0.4427 0.4338 0.42466 0.41827
2343.738 0.38181 0.4063 0.42156 0.40604 0.4456 0.41245 0.36614 0.42167 0.41722 0.38223
2363.028 0.38853 0.36869 0.37165 0.38955 0.39703 0.4439 0.4739 0.4547 0.4327 0.4584
2382.318 0.4687 0.4776 0.4731 0.4962 0.5289 0.4842 0.42525 0.40161 0.42818 0.4643
2401.608 0.4458 0.4408 0.42716 0.36901 0.330484 0.3046 0.40619 0.4908 0.403 0.35208
2420.898 0.36948 0.40319 0.4622 0.4474 0.4439 0.42986 0.38092 0.431 0.442 0.4477
2440.188 0.42774 0.41922 0.5205 0.4879 0.4497 0.4797 0.459 0.4552 0.4491 0.4669
2459.478 0.5344 0.5277 0.5089 0.5181 0.5485 0.6341 0.5804 0.4717 0.4526 0.4732
2478.768 0.5458 0.5741 0.598 0.5602 0.4916 0.521 0.5411 0.599 0.62 0.6038
2498.058 0.6174 0.5766 0.5435 0.6135 0.6464 0.5712 0.5783 0.6467 0.6884 0.727
2517.348 0.7401 0.6619 0.6224 0.6459 0.6606 0.6625 0.6154 0.6193 0.6491 0.607
2536.638 0.5298 0.4789 0.4927 0.5517 0.547 0.5591 0.5768 0.5583 0.5556 0.5759
2555.928 0.5829 0.5563 0.5436 0.4763 0.4524 0.5496 0.5895 0.4801 0.40412 0.4323
2575.218 0.41324 0.40709 0.39494 0.39567 0.4527 0.4624 0.42893 0.39611 0.4539 0.4469
2594.508 0.3528 0.32935 0.3647 0.35324 0.3013 0.304 0.2783 0.2581 0.2545 0.2559
2613.798 0.2643 0.212 0.216 0.259 0.2507 0.2497 0.2831 0.219 0.188 0.2373
2633.088 0.2624 0.2654 0.2677 0.3194 0.2741 0.2745 0.28 0.244 0.2923 0.2712
2652.378 0.189 0.172 0.226 0.2356 0.158 0.147 0.2611 0.222 0.133 0.186
2671.668 0.209 0.221 0.204 0.222 0.2563 0.2345 0.2744 0.2785 0.2663 0.2401
2690.958 0.17 0.147 0.182 0.219 0.2419 0.21 0.178 0.218 0.2711 0.3161
2710.248 0.2705 0.217 0.2423 0.2803 0.2419 0.2397 0.3109 0.243 0.162 0.149
2729.538 0.142 0.186 0.149 0.151 0.164 0.169 0.243 0.2801 0.2568 0.2531
2748.828 0.34907 0.38069 0.39925 0.37276 0.32583 0.34697 0.42243 0.4466 0.39288 0.35188
2768.118 0.32042 0.3133 0.2683 0.2805 0.2887 0.2594 0.3068 0.252 0.217 0.2528
2787.408 0.227 0.228 0.2307 0.2692 0.3278 0.2831 0.207 0.218 0.2339 0.197
2806.698 0.16 0.146 0.179 0.204 0.109 0.106 0.214 0.2527 0.32441 0.3136
2825.988 0.228 0.312 0.3169 0.2831 0.2699 0.2805 0.38909 0.34657 0.3087 0.42033
2845.278 0.40553 0.2862 0.32089 0.315 0.3159 0.41167 0.429 0.41902 0.4442 0.5122
2864.568 0.4538 0.38867 0.4846 0.5996 0.68 0.7833 0.7489 0.6642 0.68 0.7254
2883.858 0.7981 0.7932 0.7735 0.7593 0.6917 0.7463 0.8595 0.8292 0.7663 0.696
2903.148 0.7167 0.768 0.7464 0.7094 0.5794 0.4462 0.42478 0.4574 0.4673 0.4831
2922.438 0.4818 0.461 0.4607 0.5533 0.5831 0.5728 0.6193 0.7246 0.7643 0.6532
2941.728 0.6266 0.6339 0.5575 0.4811 0.4681 0.547 0.6685 0.6301 0.584 0.5999
2961.018 0.6537 0.6241 0.6161 0.6829 0.6503 0.6431 0.7677 0.875 0.8675 0.9585
2980.308 1.0936 1.1114 1.0253 0.997 0.9705 0.9244 0.8913 0.7601 0.7134 0.6618
2999.598 0.6067 0.6777 0.6826 0.6621 0.6001 0.5171 0.5557 0.5771 0.5698 0.5727
3018.888 0.5062 0.4625 0.4539 0.5457 0.7214 0.7588 0.8109 0.9052 0.9378 0.9305
3038.178 1.0381 1.2445 1.2986 1.34 1.4 1.39 1.44 1.48 1.39 1.3038
3057.468 1.1908 1.088 1.1671 1.2656 1.3055 1.37 1.37 1.5 1.66 1.64
3076.758 1.64 1.57 1.3287 1.1185 0.9721 0.804 0.7495 0.7711 0.7376 0.7202
3096.048 0.6905 0.5992 0.5883 0.5139 0.4548 0.4638 0.36524 0.3105 0.3785 0.38122
3115.338 0.284 0.2749 0.35531 0.39036 0.328 0.2516 0.2305 0.22 0.181 0.21
3134.628 0.2507 0.193 0.2316 0.218 0.081 0.028 0.125 0.2418 0.2472 0.229
3153.918 0.2711 0.3842 0.2672 0.153 0.198 0.22 0.219 0.202 0.187 0.214
3173.208 0.16 0.071 0.097 0.129 0.2501 0.2707 0.229 0.3086 0.2563 0.212
3192.498 0.187 0.094 0.112 0.155 0.143 0.177 0.168 0.118 0.172 0.144
3211.788 0.192 0.139 0.049 0.206 0.3006 0.2654 0.2528 0.256 0.2319 0.3003
3231.078 0.34249 0.3048 0.154 0.045 0.088 0.106 0.279 0.34002 0.225 0.138
3250.368 0.029 0 0.06 0.24 0.34199 0.3158 0.3093 0.3047 0.2496 0.2535
3269.658 0.2349 0.211 0.2885 0.209 0.2502 0.36062 0.197 0.144 0.188 0.2835
3288.948 0.3166 0.221 0.224 0.215 0.208 0.183 0.139 0.098 0.3101 0.40249
3308.238 0.32725 0.3034 0.196 0.122 0.098 0.195 0.148 0.035 0.066 0.2357
3327.528 0.3157 0.215 0.2808 0.39254 0.32 0.2695 0.2933 0.38117 0.32182 0.169
3346.818 0.2458 0.2754 0.36789 0.40485 0.37681 0.5084 0.4756 0.34729 0.38805 0.41407
3366.108 0.37978 0.37705 0.36289 0.35382 0.4553 0.5049 0.4421 0.42997 0.4367 0.4476
3385.398 0.32206 0.332767 0.3231 0.34012 0.4777 0.5126 0.6018 0.5545 0.4609 0.40382
3404.688 0.438 0.4912 0.4423 0.4529 0.42261 0.3925 0.5128 0.5538 0.4446 0.32772
3423.978 0.3003 0.4585 0.5906 0.5337 0.4929 0.4658 0.42163 0.42828 0.4557 0.4473
3443.269 0.4923 0.5619 0.5058 0.4623 0.40842 0.42331 0.5084 0.4726 0.4717 0.5464
3462.559 0.5232 0.7051 0.8831 0.7517 0.5962 0.6452 0.8333 0.8661 0.7647 0.7363
3481.849 0.801 0.8642 0.984 1.075 0.9898 0.9869 1.0576 1.1799 1.2162 1.0611
3501.139 1.0573 1.0786 0.971 0.9664 1.0791 1.2053 1.1747 0.9265 0.9391 0.9172
3520.429 0.8135 0.9059 0.9219 0.8327 0.8349 0.7845 0.7125 0.7448 0.7577 0.877
3539.719 0.8531 0.8497 0.9982 1.0519 1.0112 1.1173 1.2202 1.2807 1.46 1.61
3559.009 1.94 2.42 3.1 3.95 5.33 7.53 10.64 15.56 22.53 30.97
3578.299 38.98 44.21 46 44.05 37.82 29.03 20.85 14.3 9.21 5.69
3597.589 3.74 2.86 2.24 1.84 1.55 1.2524 1.1577 1.1639 1.0287 0.9157
3616.879 0.8468 0.801 0.8715 0.8657 0.7792 0.7253 0.751 0.8172 0.8799 0.9383
3636.169 0.8468 0.8553 0.9513 0.9937 0.9427 0.9241 0.9092 0.7439 0.8004 0.8364
3655.459 0.7626 0.7275 0.7367 0.751 0.6465 0.513 0.4891 0.41202 0.4436 0.5153
3674.749 0.4382 0.555 0.664 0.6036 0.5332 0.41268 0.34917 0.499 0.5533 0.6508
3694.039 0.671 0.6295 0.5634 0.4815 0.5074 0.5372 0.6055 0.6028 0.5962 0.6119
3713.329 0.637 0.6076 0.6072 0.607 0.4741 0.4859 0.5081 0.4611 0.506 0.5548
3732.619 0.581 0.588 0.6991 0.7046 0.577 0.5596 0.4865 0.4841 0.5453 0.4476
3751.909 0.35989 0.34718 0.36375 0.4482 0.474 0.462 0.5313 0.6338 0.5931 0.41384
3771.199 0.5348 0.7077 0.5689 0.38214 0.3178 0.42748 0.5244 0.4812 0.4574 0.4833
3790.489 0.4422 0.3786 0.40596 0.4663 0.5021 0.4349 0.39897 0.4665 0.4615 0.36348
3809.779 0.36691 0.4504 0.4139 0.3951 0.5431 0.487 0.4805 0.5876 0.4336 0.37172
3829.069 0.41311 0.5048 0.5706 0.5396 0.6731 0.5977 0.34975 0.3083 0.38143 0.4791
3848.359 0.4617 0.32229 0.34923 0.4562 0.4434 0.333257 0.223 0.2533 0.36264 0.39921
3867.649 0.41498 0.39264 0.36397 0.4337 0.4784 0.5279 0.5542 0.4962 0.5717 0.5955
3886.939 0.4893 0.5032 0.5182 0.39141 0.36824 0.4497 0.4833 0.5273 0.4901 0.4404
3906.229 0.41703 0.4848 0.5346 0.5412 0.4685 0.3157 0.40592 0.4989 0.4936 0.5611
3925.519 0.4904 0.39586 0.336075 0.32947 0.42624 0.40271 0.42859 0.601 0.5256 0.42578
3944.809 0.6042 0.6616 0.5584 0.537 0.5014 0.39181 0.38808 0.4603 0.39915 0.41837
3964.099 0.4447 0.5258 0.6518 0.6452 0.5788 0.37023 0.3185 0.4574 0.37123 0.3456
3983.389 0.4876 0.4461 0.42914 0.3961 0.36311 0.42998 0.3628 0.338641 0.37205 0.4632
##END=
