##TITLE=6-Methyl-3,5-heptadien-2-one
##JCAMP-DX=4.24
##DATA TYPE=INFRARED SPECTRUM
##ORIGIN=EPA-IR VAPOR PHASE LIBRARY
##OWNER=SRD/NIST
Collection (C) 2018 copyright by the U.S. Secretary of Commerce
on behalf of the United States of America. All rights reserved.
##CAS REGISTRY NO=1604-28-0
##MOLFORM=C 8 H 12 O
##$NIST SOURCE=MSDC-IR
##STATE=gas
##XUNITS=1/CM
##YUNITS=ABSORBANCE
##XFACTOR=1.
##YFACTOR=0.001
##DELTAX=1.92898
##FIRSTX=549.8
##LASTX=4000.7
##FIRSTY=9.121
##MAXX=4000.7
##MINX=549.759
##MAXY=0.110501
##MINY=0
##NPOINTS=1790
##XYDATA=(X++(Y..Y))
549.759 9.121 7.861 6.831 6.301 5.611 5.021 4.781 4.511 4.231 4.011
569.049 4.001 4.191 4.291 4.721 4.931 4.871 5.291 6.021 6.651 6.961
588.339 7.331 7.351 7.171 7.331 7.441 7.201 6.651 6.031 5.331 4.881
607.628 4.851 4.941 5.011 5.211 5.221 5.241 5.411 5.221 5.021 4.891
626.918 4.371 3.701 3.241 2.761 2.271 1.911 1.521 1.073 0.9149 1.0243
646.208 1.1537 1.0563 0.9774 0.943 0.7973 0.7252 0.6837 0.7391 0.7738 0.698
665.498 0.7173 0.636 0.6199 0.6728 0.7864 0.8435 0.7912 0.7388 0.6474 0.5589
684.787 0.4712 0.6959 0.7978 0.7238 0.6998 0.6424 0.5564 0.45108 0.5956 0.6379
704.077 0.7262 0.7201 0.7885 0.8936 0.7327 0.8137 0.8925 0.8738 0.9683 0.9534
723.367 0.8502 0.9567 1.1052 1.0021 0.9043 1.0334 1.0047 1.0302 1.2324 1.1611
742.657 1.1352 1.2384 1.3035 1.3055 1.1776 1.1035 1.1189 1.3434 1.471 1.431
761.947 1.551 1.731 1.721 1.701 1.821 1.871 1.831 1.831 1.831 1.641
781.236 1.651 1.861 1.871 1.801 1.721 1.721 1.691 1.671 1.721 1.801
800.526 1.791 1.641 1.531 1.531 1.641 1.791 1.871 1.901 1.961 2.201
819.816 2.361 2.411 2.551 2.611 2.651 2.771 2.961 2.891 2.871 3.031
839.106 3.031 3.011 3.141 3.381 3.531 3.731 4.021 4.351 4.851 5.451
858.395 6.021 6.561 7.071 7.641 8.371 9.001 9.461 9.881 10.121 10.061
877.685 9.621 9.011 8.561 8.181 7.851 7.561 7.101 6.751 6.481 6.101
896.975 5.801 5.601 5.481 5.521 5.721 5.871 5.811 5.851 6.031 6.091
916.265 6.161 6.311 6.481 6.681 6.831 7.021 7.371 7.821 8.461 9.401
935.555 10.561 11.971 13.681 15.491 17.571 19.821 21.901 24.001 26.071 27.881
954.844 29.331 30.281 30.791 31.091 31.161 30.891 30.351 29.741 29.181 28.781
974.134 28.501 28.071 27.631 27.291 26.911 26.411 25.591 24.511 23.431 22.311
993.424 20.771 19.241 17.921 16.601 15.401 14.101 12.961 12.201 11.401 10.611
1012.714 9.931 9.471 9.001 8.681 8.731 8.811 8.671 8.671 8.881 9.051
1032.003 9.251 9.221 9.301 9.301 9.261 9.351 9.031 8.551 8.231 8.041
1051.293 7.671 7.141 6.741 6.341 5.991 5.681 5.121 4.711 4.591 4.481
1070.583 4.291 4.001 3.901 3.851 3.751 3.721 3.841 3.921 3.821 3.781
1089.873 3.821 3.871 4.001 4.101 4.031 4.001 4.121 4.281 4.631 4.921
1109.163 4.831 5.121 5.521 5.781 6.421 6.881 7.411 8.661 10.231 11.691
1128.452 13.441 15.731 17.681 19.211 20.671 21.951 22.891 23.371 23.501 23.301
1147.742 23.201 23.381 24.121 25.411 27.031 28.641 29.841 30.591 30.941 30.751
1167.032 29.871 28.431 26.191 23.391 20.521 17.861 15.631 14.171 13.171 12.371
1186.322 12.081 12.021 12.341 13.101 13.851 14.441 15.061 15.611 15.991 16.171
1205.611 16.261 16.191 15.961 15.741 15.781 16.051 16.841 18.311 20.011 22.291
1224.901 25.431 29.131 33.441 38.311 43.591 49.081 54.321 59.451 64.361 68.411
1244.191 71.121 72.421 72.531 71.731 70.411 68.881 66.761 63.791 60.981 59.661
1263.481 60.091 61.461 62.731 63.361 63.151 62.091 60.151 57.291 53.491 48.191
1282.771 41.221 33.851 27.621 23.001 19.681 17.361 15.651 14.281 13.211 12.291
1302.060 11.481 10.761 10.041 9.381 8.941 8.681 8.491 8.401 8.401 8.511
1321.350 8.721 9.051 9.531 10.061 10.731 11.651 12.771 14.231 16.171 18.781
1340.640 22.221 26.341 30.951 35.781 40.571 45.591 50.991 56.111 59.891 61.621
1359.930 61.661 60.791 59.311 56.831 52.881 47.891 42.781 38.181 34.331 31.171
1379.219 28.521 26.301 24.561 23.261 22.151 21.021 19.761 18.471 17.131 15.821
1398.509 14.651 13.621 12.741 12.011 11.461 11.071 10.801 10.681 10.731 10.841
1417.799 11.041 11.361 11.741 12.101 12.421 12.821 13.261 13.571 13.931 14.231
1437.089 14.431 14.631 14.701 14.671 14.551 14.271 13.901 13.521 13.101 12.581
1456.378 11.981 11.451 10.921 10.321 9.751 9.221 8.681 8.201 7.791 7.421
1475.668 7.111 6.791 6.521 6.301 6.111 5.941 5.761 5.651 5.581 5.471
1494.958 5.441 5.401 5.341 5.331 5.291 5.261 5.281 5.321 5.401 5.481
1514.248 5.481 5.501 5.611 5.671 5.741 5.801 5.841 5.851 5.831 5.841
1533.538 5.851 5.921 6.011 6.141 6.261 6.321 6.521 6.811 7.121 7.451
1552.827 7.801 8.361 9.041 9.801 10.741 11.761 12.861 14.221 15.941 17.971
1572.117 20.301 23.081 26.511 30.501 34.961 40.031 45.491 51.171 56.641 61.681
1591.407 65.811 68.471 69.421 68.751 66.691 63.391 59.101 54.051 48.761 44.051
1610.697 40.581 38.311 36.981 36.491 36.701 37.611 39.281 41.661 44.621 48.151
1629.986 51.901 55.601 59.091 62.061 64.071 64.851 64.011 61.531 57.691 52.971
1649.276 47.801 42.471 37.011 31.911 27.681 24.691 23.211 22.911 23.681 25.361
1668.566 28.011 31.681 36.691 43.361 52.091 62.501 74.401 85.981 95.621 102.511
1687.856 106.601 109.251 110.501 108.891 102.721 93.171 82.971 73.331 65.821 59.581
1707.146 54.741 50.931 47.661 44.161 40.001 35.471 30.971 26.881 23.241 20.161
1726.435 17.521 15.251 13.371 11.921 10.681 9.621 8.851 8.171 7.591 7.111
1745.725 6.721 6.421 6.091 5.751 5.441 5.161 4.921 4.691 4.531 4.361
1765.015 4.191 4.061 3.941 3.911 3.901 3.871 3.881 3.911 3.891 3.901
1784.305 3.921 3.891 3.821 3.731 3.671 3.551 3.371 3.151 2.921 2.701
1803.594 2.501 2.341 2.231 2.081 1.971 1.871 1.771 1.721 1.701 1.731
1822.884 1.741 1.741 1.761 1.741 1.741 1.781 1.821 1.811 1.811 1.861
1842.174 1.861 1.861 1.851 1.791 1.791 1.801 1.741 1.681 1.661 1.611
1861.464 1.521 1.461 1.431 1.361 1.3422 1.3399 1.3399 1.3404 1.2499 1.2283
1880.754 1.2853 1.2798 1.2918 1.2711 1.2251 1.2573 1.245 1.2573 1.2848 1.2171
1900.043 1.1942 1.2355 1.2762 1.2642 1.2251 1.1969 1.2073 1.2342 1.22 1.229
1919.333 1.2724 1.2819 1.2595 1.2762 1.2957 1.2845 1.3169 1.3512 1.3569 1.3399
1938.623 1.3236 1.3039 1.2431 1.2249 1.2788 1.2992 1.2541 1.1852 1.1624 1.1674
1957.913 1.1167 1.1111 1.1212 1.0735 1.0545 1.0682 1.0652 1.0665 1.0397 1.0056
1977.202 1.0231 1.0103 0.9852 1.0291 1.0643 1.0272 0.9971 0.9654 0.9363 0.8994
1996.492 0.8987 0.9155 0.9057 0.9027 0.8843 0.8643 0.8167 0.8036 0.8479 0.8485
2015.782 0.8266 0.8046 0.7792 0.7643 0.7701 0.8051 0.7836 0.7814 0.7746 0.7484
2035.072 0.7783 0.7859 0.7574 0.7291 0.7153 0.6841 0.6554 0.643 0.6641 0.6834
2054.362 0.6989 0.6798 0.6191 0.5873 0.621 0.6508 0.6267 0.6308 0.6265 0.6918
2073.651 0.6864 0.644 0.6932 0.6863 0.7062 0.7027 0.6453 0.6467 0.6878 0.7214
2092.941 0.7293 0.724 0.699 0.6825 0.6841 0.6985 0.7579 0.7507 0.6656 0.6545
2112.231 0.6815 0.6783 0.6715 0.686 0.7004 0.7228 0.737 0.7236 0.7419 0.7296
2131.521 0.7476 0.7765 0.7775 0.7848 0.7885 0.7862 0.7597 0.8055 0.8371 0.8058
2150.810 0.8187 0.8103 0.7903 0.7909 0.8072 0.8411 0.8144 0.8202 0.8614 0.8222
2170.100 0.7754 0.813 0.912 0.9294 0.8517 0.7886 0.8013 0.8279 0.8653 0.8919
2189.390 0.8541 0.7833 0.7961 0.8234 0.7793 0.808 0.8277 0.8173 0.7816 0.7207
2208.680 0.727 0.7549 0.7736 0.7266 0.6879 0.7144 0.7181 0.698 0.7256 0.7658
2227.970 0.7935 0.795 0.7027 0.6944 0.73 0.7495 0.7485 0.7246 0.6858 0.6744
2247.259 0.733 0.7431 0.7074 0.7107 0.705 0.6792 0.7408 0.7347 0.704 0.72
2266.549 0.6758 0.6461 0.6715 0.6619 0.6557 0.6357 0.6437 0.6755 0.623 0.5672
2285.839 0.5304 0.5976 0.6456 0.5828 0.5483 0.57 0.5925 0.5717 0.5594 0.6081
2305.129 0.6342 0.6016 0.6063 0.5717 0.5531 0.5803 0.5333 0.5181 0.5011 0.4648
2324.418 0.4913 0.5247 0.5337 0.4924 0.45342 0.43173 0.43755 0.4851 0.5035 0.548
2343.708 0.5712 0.5239 0.4786 0.5092 0.5647 0.5042 0.4924 0.5021 0.4853 0.4884
2362.998 0.5201 0.5859 0.6297 0.6749 0.6801 0.6633 0.6802 0.6813 0.6692 0.6761
2382.288 0.76 0.7832 0.7652 0.7539 0.7223 0.7793 0.7764 0.8087 0.8221 0.7519
2401.578 0.792 0.8225 0.7798 0.7977 0.788 0.7255 0.7799 0.8015 0.7658 0.7252
2420.867 0.709 0.7497 0.708 0.6607 0.6863 0.6569 0.6455 0.6785 0.6787 0.6879
2440.157 0.6541 0.5634 0.5624 0.6629 0.7328 0.6566 0.6423 0.7053 0.6684 0.6632
2459.447 0.655 0.6795 0.724 0.764 0.7358 0.692 0.7529 0.8359 0.8608 0.8746
2478.737 0.8525 0.8364 0.9162 0.985 1.0374 0.9492 0.8872 0.9401 0.9347 0.8851
2498.026 0.8744 0.8915 0.9726 1.0001 0.9618 0.9583 0.9232 0.9197 0.865 0.7664
2517.316 0.7827 0.795 0.7726 0.8067 0.7153 0.6709 0.7202 0.6988 0.6966 0.7205
2536.606 0.7514 0.7944 0.7905 0.7427 0.6779 0.7264 0.7832 0.7815 0.7285 0.7167
2555.896 0.7419 0.6976 0.7251 0.724 0.6822 0.6839 0.6566 0.5614 0.5667 0.5902
2575.186 0.5841 0.6169 0.5776 0.5933 0.6476 0.6128 0.6071 0.6035 0.596 0.5839
2594.475 0.5724 0.6209 0.6096 0.5908 0.5838 0.5821 0.5168 0.4803 0.5003 0.5039
2613.765 0.6022 0.5963 0.5489 0.5982 0.5925 0.627 0.6509 0.5788 0.5289 0.4838
2633.055 0.5533 0.6418 0.606 0.5965 0.6046 0.5966 0.6069 0.5913 0.6159 0.6798
2652.345 0.6713 0.6572 0.7131 0.6959 0.66 0.6549 0.664 0.6612 0.6249 0.6279
2671.634 0.6573 0.6169 0.5454 0.5735 0.6369 0.6376 0.6323 0.6151 0.5731 0.5825
2690.924 0.6299 0.6526 0.6486 0.685 0.6399 0.556 0.5954 0.6389 0.7267 0.8678
2710.214 0.8507 0.8208 0.9292 1.009 0.988 1.1056 1.1981 1.2181 1.3527 1.461
2729.504 1.591 1.731 1.851 1.981 2.111 2.221 2.341 2.421 2.471 2.541
2748.794 2.471 2.361 2.241 2.101 2.031 2.001 1.871 1.781 1.821 1.771
2768.083 1.701 1.641 1.571 1.551 1.571 1.601 1.621 1.591 1.571 1.661
2787.373 1.751 1.741 1.741 1.771 1.911 1.941 1.931 2.041 2.121 2.151
2806.663 2.211 2.321 2.431 2.551 2.601 2.691 2.811 2.941 3.161 3.351
2825.953 3.561 3.801 3.991 4.211 4.501 4.911 5.171 5.501 5.961 6.391
2845.242 6.831 7.321 7.961 8.751 9.501 10.391 11.441 12.411 13.431 14.491
2864.532 15.471 16.291 16.801 17.111 17.401 17.531 17.541 17.431 17.381 17.341
2883.822 17.271 17.251 17.301 17.271 17.321 17.531 17.711 18.101 18.521 19.081
2903.112 20.011 21.011 22.311 23.991 25.991 28.321 30.851 33.281 35.381 37.071
2922.401 38.211 38.691 38.581 37.971 36.671 34.861 32.801 30.781 29.171 27.851
2941.691 26.461 25.041 23.741 22.701 21.981 21.221 20.521 20.121 19.741 19.421
2960.981 19.471 19.761 20.031 20.411 20.911 21.341 21.801 22.191 22.361 22.351
2980.271 22.291 22.291 22.241 22.081 21.881 21.541 21.161 20.921 20.551 20.171
2999.561 20.031 20.061 20.331 20.531 20.731 20.851 20.751 20.751 20.651 20.321
3018.850 19.851 19.321 18.801 18.241 17.721 17.291 17.071 16.951 16.741 16.571
3038.140 16.451 16.401 16.391 16.291 16.111 15.911 15.611 15.071 14.411 13.721
3057.430 12.981 12.221 11.411 10.561 9.781 9.111 8.511 7.991 7.451 6.971
3076.720 6.621 6.251 5.821 5.581 5.481 5.201 5.001 4.791 4.571 4.451
3096.009 4.211 4.051 3.891 3.761 3.681 3.451 3.311 3.211 3.101 3.021
3115.299 2.861 2.731 2.631 2.511 2.331 2.191 2.111 2.021 1.911 1.791
3134.589 1.651 1.611 1.601 1.461 1.2804 1.3051 1.391 1.3237 1.2392 1.1928
3153.879 1.0687 0.9701 1.0591 1.0442 1.0102 0.9097 0.851 0.883 0.8785 0.8178
3173.169 0.7616 0.7604 0.7481 0.7828 0.8333 0.8337 0.765 0.7552 0.7426 0.7891
3192.458 0.8226 0.6277 0.5163 0.6883 0.7564 0.7217 0.6715 0.5947 0.5939 0.6208
3211.748 0.6594 0.7517 0.7174 0.6776 0.6865 0.6353 0.5891 0.5725 0.5724 0.5706
3231.038 0.584 0.5259 0.5519 0.5633 0.6473 0.6697 0.6122 0.6091 0.5911 0.5707
3250.328 0.5234 0.5635 0.6076 0.6229 0.6371 0.5901 0.5529 0.5387 0.5033 0.5662
3269.617 0.6302 0.6505 0.7063 0.6622 0.5681 0.6517 0.7441 0.6192 0.5659 0.5728
3288.907 0.5293 0.5049 0.5767 0.6797 0.7334 0.6974 0.632 0.6499 0.7164 0.7845
3308.197 0.7343 0.7111 0.8047 0.7521 0.8034 1.0198 0.9824 0.8579 0.8512 0.8731
3327.487 0.959 1.016 0.9855 1.0676 1.1343 1.0979 1.1942 1.3297 1.3335 1.581
3346.777 1.651 1.471 1.551 1.601 1.691 1.841 1.841 1.861 1.841 1.851
3366.066 1.861 1.661 1.581 1.621 1.571 1.591 1.531 1.411 1.481 1.581
3385.356 1.581 1.511 1.381 1.3512 1.391 1.481 1.391 1.3104 1.2861 1.2795
3404.646 1.3065 1.0561 0.9487 1.0048 0.9099 0.7908 0.88 0.9139 0.8729 0.714
3423.936 0.5563 0.6604 0.6959 0.6402 0.5383 0.3354 0.3478 0.41289 0.44115 0.547
3443.225 0.44999 0.2632 0.2743 0.3101 0.2776 0.362974 0.3273 0.223 0.217 0.176
3462.515 0.2889 0.43468 0.225 0.073 0.166 0.224 0.3499 0.37268 0.39353 0.44663
3481.805 0.237 0.117 0.189 0.2955 0.265 0.2922 0.35973 0.3154 0.2712 0.2795
3501.095 0.39073 0.3124 0.238 0.242 0.229 0.201 0.186 0.2742 0.2948 0.2792
3520.385 0.2912 0.2773 0.205 0.168 0.2781 0.3064 0.251 0.246 0.213 0.156
3539.674 0.223 0.3262 0.302 0.3078 0.2926 0.35811 0.41566 0.3313 0.254 0.2989
3558.964 0.3143 0.3216 0.4075 0.3165 0.22 0.227 0.2654 0.3205 0.3398 0.26
3578.254 0.2938 0.363842 0.3332 0.37079 0.38414 0.41009 0.248 0.147 0.2638 0.25
3597.544 0.195 0.238 0.2985 0.2791 0.226 0.18 0.192 0.249 0.228 0.197
3616.833 0.207 0.101 0.243 0.4109 0.2986 0.3108 0.2897 0.244 0.217 0.117
3636.123 0.1 0.207 0.3435 0.42437 0.4987 0.38049 0.069 0 0.191 0.3047
3655.413 0.43852 0.40154 0.3431 0.35975 0.2905 0.171 0.185 0.232 0.194 0.158
3674.703 0.057 0.09 0.07 0.076 0.173 0.22 0.113 0.027 0.117 0.179
3693.993 0.232 0.2948 0.39016 0.39221 0.295 0.205 0.184 0.153 0.204 0.167
3713.282 0.048 0.146 0.2656 0.134 0.002 0.095 0.161 0.40519 0.43659 0.3265
3732.572 0.44742 0.37443 0.216 0.161 0.173 0.207 0.24 0.2889 0.3151 0.257
3751.862 0.2811 0.345 0.2656 0.141 0.207 0.2956 0.2914 0.2648 0.206 0.2722
3771.152 0.252 0.239 0.188 0.221 0.249 0.2669 0.218 0.183 0.3061 0.3216
3790.441 0.38438 0.249 0.2661 0.5237 0.525 0.5158 0.41958 0.3356 0.3348 0.2805
3809.731 0.3337 0.2876 0.2809 0.199 0.117 0.154 0.21 0.17 0.143 0.3022
3829.021 0.3462 0.4179 0.4707 0.41259 0.46033 0.4187 0.35207 0.3505 0.3097 0.37964
3848.311 0.38346 0.368687 0.42647 0.38836 0.288 0.41948 0.43602 0.3278 0.2832 0.127
3867.601 0.18 0.3365 0.41216 0.3249 0.3118 0.37248 0.40701 0.5336 0.508 0.4665
3886.890 0.45429 0.40988 0.45061 0.39213 0.41008 0.471 0.37125 0.43444 0.4314 0.3233
3906.180 0.195 0.222 0.3469 0.3141 0.3471 0.38025 0.4381 0.4999 0.45905 0.479
3925.470 0.5913 0.44693 0.2807 0.3051 0.2809 0.42552 0.6448 0.5291 0.3157 0.3283
3944.760 0.4319 0.5438 0.5637 0.3922 0.24 0.461 0.629 0.4978 0.35215 0.38901
3964.049 0.44537 0.4677 0.6244 0.6421 0.5457 0.365443 0.12 0.186 0.42027 0.35211
3983.339 0.235 0.3266 0.4742 0.5419 0.5747 0.486 0.187 0.176 0.4897 0.4892
##END=
