##TITLE=Cyclopentylcyclohexane
##JCAMP-DX=4.24
##DATA TYPE=INFRARED SPECTRUM
##ORIGIN=NIST Mass Spectrometry Data Center
##OWNER=NIST Standard Reference Data Program
Collection (C) 2018 copyright by the U.S. Secretary of Commerce
on behalf of the United States of America. All rights reserved.
##CAS REGISTRY NO=1606-08-2
##MOLFORM=C 11 H 20
##$NIST SOURCE=MSDC-IR
##SPECTROMETER/DATA SYSTEM=HP-GC/MS/IRD
##STATE=gas
##XUNITS=1/CM
##YUNITS=ABSORBANCE
##XFACTOR=1.0
##YFACTOR=0.000005400
##DELTAX=4.0
##FIRSTX=550.0
##LASTX=3846.0
##FIRSTY=0.000124
##MAXX=3846
##MINX=550
##MAXY=0.054
##MINY=0
##NPOINTS=825
##XYDATA=(X++(Y..Y))
550.0 23 13 2 5 15 13 8 19 23 22
590.0 12 20 27 15 12 11 14 26 24 20
630.0 15 9 13 20 21 17 14 18 21 17
670.0 15 9 8 22 28 22 19 23 16 14
710.0 13 16 20 12 12 16 16 11 13 8
750.0 4 13 14 11 16 18 16 17 14 16
790.0 26 27 22 16 15 22 24 23 21 23
830.0 34 40 47 58 64 72 78 77 75 77
870.0 84 93 109 131 156 166 163 143 111 83
910.0 63 53 52 50 47 54 61 58 57 55
950.0 51 46 44 47 53 57 61 61 54 41
990.0 28 20 20 22 23 25 36 38 35 38
1030.0 40 37 33 29 25 16 13 18 19 16
1070.0 11 16 21 15 16 22 21 19 20 22
1110.0 27 28 23 21 20 24 25 21 22 23
1150.0 26 31 31 32 38 39 42 49 48 47
1190.0 50 57 57 55 52 48 52 56 61 72
1230.0 78 78 80 78 84 100 127 161 178 178
1270.0 171 145 118 102 91 85 86 90 88 83
1310.0 76 74 77 77 79 83 89 100 122 142
1350.0 148 141 120 96 88 85 81 74 62 51
1390.0 45 45 49 55 61 67 73 78 85 103
1430.0 141 206 311 449 581 679 705 637 532 417
1470.0 316 242 190 155 128 104 84 65 50 39
1510.0 30 27 28 26 21 18 16 14 12 11
1550.0 14 14 11 12 12 11 8 7 14 16
1590.0 12 10 9 9 8 3 3 7 9 8
1630.0 9 9 11 12 10 7 7 10 11 11
1670.0 8 5 6 6 5 6 4 6 5 6
1710.0 8 7 5 6 9 9 6 5 7 6
1750.0 8 8 6 5 7 8 7 6 5 5
1790.0 4 3 3 5 6 5 7 9 10 9
1830.0 8 6 5 6 5 4 4 6 8 7
1870.0 6 5 6 7 7 5 7 7 2 1
1910.0 3 6 5 4 6 5 6 5 4 7
1950.0 9 6 6 7 5 6 7 7 6 4
1990.0 5 5 3 3 5 6 4 2 4 3
2030.0 3 2 1 1 2 5 5 3 3 4
2070.0 5 4 0 0 4 4 2 2 2 1
2110.0 0 2 0 3 2 3 5 6 8 9
2150.0 8 9 10 11 15 14 10 13 14 13
2190.0 16 18 17 19 17 13 14 17 14 13
2230.0 17 16 16 14 12 11 11 10 9 8
2270.0 9 8 9 9 11 13 13 13 9 7
2310.0 11 11 10 9 10 14 14 15 15 15
2350.0 16 14 10 12 14 15 16 13 11 11
2390.0 8 5 6 10 9 5 5 7 5 4
2430.0 9 9 8 7 4 3 8 8 6 5
2470.0 6 10 11 13 15 15 14 13 12 9
2510.0 6 6 10 14 14 16 17 18 17 19
2550.0 21 22 24 27 28 29 33 35 37 40
2590.0 46 51 52 55 57 57 59 60 59 61
2630.0 63 65 68 71 73 79 88 98 105 109
2670.0 106 102 96 85 76 72 71 70 71 73
2710.0 72 71 70 70 69 69 71 69 66 69
2750.0 71 75 81 85 88 95 107 126 143 163
2790.0 181 194 206 220 231 246 264 297 340 394
2830.0 474 602 811 1135 1611 2262 3040 3711 4062 4116
2870.0 3910 3525 3131 2789 2491 2278 2209 2323 2582 2996
2910.0 3594 4397 5437 6716 8162 9450 10000 9718 8950 7891
2950.0 6852 6145 5679 5051 4172 3270 2449 1775 1292 974
2990.0 771 640 540 463 405 355 311 274 239 210
3030.0 189 165 145 129 110 99 91 82 72 67
3070.0 66 62 59 56 54 51 46 41 39 38
3110.0 35 30 30 24 25 28 27 32 36 39
3150.0 38 32 27 23 22 21 18 18 15 17
3190.0 20 15 11 10 8 10 18 18 13 8
3230.0 12 16 11 12 15 13 13 13 16 14
3270.0 12 11 7 4 2 4 4 2 0 1
3310.0 2 7 8 4 9 12 5 5 8 9
3350.0 9 7 11 9 3 5 6 6 10 11
3390.0 6 5 5 8 10 10 15 16 14 14
3430.0 17 19 19 18 13 11 14 11 10 11
3470.0 7 3 8 10 6 6 6 6 7 6
3510.0 7 12 16 10 8 11 11 10 10 9
3550.0 9 11 16 13 9 8 8 12 13 8
3590.0 9 10 8 7 5 3 5 7 7 5
3630.0 8 14 14 9 13 17 18 17 15 13
3670.0 11 13 14 12 12 14 18 19 17 21
3710.0 23 20 21 21 15 13 20 21 17 18
3750.0 20 19 21 20 19 23 20 21 25 25
3790.0 21 18 15 17 23 30 28 20 27 35
3830.0 31 26 27 30 26
##END=
