##TITLE=5-Amino-4-carboethoxy-1-phenylpyrazole
##JCAMP-DX=4.24
##DATA TYPE=INFRARED SPECTRUM
##ORIGIN=EPA-IR VAPOR PHASE LIBRARY
##OWNER=SRD/NIST
Collection (C) 2018 copyright by the U.S. Secretary of Commerce
on behalf of the United States of America. All rights reserved.
##CAS REGISTRY NO=16078-71-0
##MOLFORM=C 12 H 13 N 3 O 2
##$NIST SOURCE=MSDC-IR
##STATE=gas
##XUNITS=1/CM
##YUNITS=ABSORBANCE
##XFACTOR=1.
##YFACTOR=0.001
##DELTAX=1.92898
##FIRSTX=549.8
##LASTX=4000.7
##FIRSTY=9.036
##MAXX=4000.7
##MINX=549.759
##MAXY=0.228926
##MINY=0
##NPOINTS=1790
##XYDATA=(X++(Y..Y))
549.759 9.036 8.796 8.176 8.366 8.426 8.576 9.306 9.206 8.656 8.726
569.049 8.706 8.626 8.376 7.446 7.966 8.596 8.136 8.196 8.406 8.006
588.339 8.046 8.106 8.026 7.856 8.236 8.986 8.586 8.686 9.046 8.666
607.628 8.516 8.546 8.086 8.126 8.386 8.476 8.936 8.856 8.696 8.876
626.918 9.466 10.076 10.406 10.976 11.556 11.906 12.096 12.306 12.366 11.786
646.208 11.156 11.426 11.706 11.156 10.556 10.576 10.676 10.866 11.826 12.366
665.498 12.456 13.276 14.256 14.816 15.766 16.766 17.746 19.656 22.456 24.806
684.787 26.946 29.146 30.536 31.566 31.746 30.686 29.456 27.996 25.706 23.066
704.077 20.566 18.156 16.216 14.976 13.826 13.006 12.606 12.676 12.826 12.986
723.367 13.236 13.376 14.506 15.706 16.186 17.046 17.966 19.076 19.676 19.986
742.657 20.646 20.756 20.766 21.566 23.126 24.316 25.546 27.386 28.936 30.116
761.947 30.196 29.406 28.596 27.396 26.666 26.256 25.726 26.066 26.476 26.746
781.236 27.486 27.596 27.296 26.236 24.376 22.686 21.056 19.166 17.206 15.216
800.526 13.426 12.586 11.726 10.796 10.336 10.526 10.686 10.306 10.416 10.646
819.816 10.296 9.906 10.016 10.596 11.296 11.446 11.746 12.316 12.186 12.146
839.106 12.156 11.646 11.246 11.126 10.426 9.396 8.796 8.506 8.196 8.146
858.395 8.476 8.656 8.836 8.866 9.856 11.296 11.876 12.166 12.386 11.956
877.685 10.876 9.996 9.406 8.786 7.586 6.956 6.696 6.636 6.936 6.446
896.975 6.266 7.036 7.886 8.466 9.056 9.636 10.186 10.796 10.926 10.596
916.265 10.446 10.356 10.496 10.896 11.346 12.546 13.696 14.886 17.576 21.476
935.555 26.806 33.896 42.306 52.346 62.876 71.426 76.936 77.706 73.336 65.266
954.844 55.246 45.586 37.456 31.036 25.796 21.836 18.786 16.466 14.936 13.596
974.134 12.456 11.526 11.016 10.176 9.596 9.486 9.196 9.006 9.076 9.536
993.424 9.606 9.616 10.186 11.006 12.046 13.326 14.106 15.256 17.326 18.676
1012.714 19.966 20.956 20.596 20.486 19.366 17.516 15.956 14.716 13.686 12.986
1032.003 12.196 11.256 11.356 11.936 12.146 11.276 11.146 12.446 13.856 14.986
1051.293 15.706 16.016 16.946 18.406 20.256 22.376 24.336 26.526 27.846 30.126
1070.583 34.306 37.676 40.596 43.496 47.846 53.656 58.126 63.276 70.006 75.916
1089.873 82.446 90.156 98.966 108.316 118.126 128.186 134.916 136.486 136.636 134.076
1109.163 124.906 113.396 103.226 92.876 81.996 75.476 72.526 70.276 70.296 72.816
1128.452 75.356 78.446 82.846 86.256 87.516 87.396 85.866 81.766 76.646 71.996
1147.742 65.856 59.726 54.036 49.986 47.056 43.296 39.766 37.026 35.506 34.926
1167.032 33.706 32.506 32.076 31.256 30.406 29.226 27.546 25.816 23.726 22.556
1186.322 22.796 21.716 21.596 22.976 23.206 22.156 20.996 19.366 17.286 16.376
1205.611 15.096 13.756 13.016 13.416 14.766 15.576 16.916 18.076 19.366 20.806
1224.901 22.166 25.816 29.856 32.066 34.836 37.116 38.116 37.756 36.536 35.516
1244.191 34.976 35.366 35.776 37.136 39.646 42.516 47.316 54.136 62.426 73.526
1263.481 87.686 104.946 125.606 148.806 174.286 198.966 217.956 228.926 228.606 215.066
1282.771 191.016 160.866 130.206 104.376 85.656 73.816 66.816 63.256 61.756 61.216
1302.060 60.586 58.526 55.076 50.746 45.866 40.866 36.396 32.466 28.896 25.826
1321.350 23.116 20.716 18.816 17.056 15.546 14.396 13.436 12.526 11.836 11.426
1340.640 10.966 10.786 10.626 10.426 10.516 10.766 11.076 11.496 11.806 12.046
1359.930 12.246 12.366 12.626 12.866 13.296 14.186 15.586 17.706 20.986 25.676
1379.219 31.396 37.226 41.876 44.306 44.496 42.556 39.406 36.706 35.546 36.316
1398.509 38.616 41.506 44.306 46.376 46.916 45.926 43.686 40.776 38.246 36.516
1417.799 35.746 35.986 36.926 38.176 39.026 39.326 38.806 37.296 34.996 32.106
1437.089 29.096 26.456 24.216 22.706 21.936 21.736 22.066 22.646 23.436 24.176
1456.378 24.756 24.946 24.746 24.276 23.926 23.816 23.786 24.126 24.626 24.786
1475.668 24.946 25.266 25.276 25.676 26.106 26.426 27.246 28.546 30.416 33.616
1494.958 38.336 43.446 48.066 51.996 55.086 57.416 59.496 61.826 64.526 67.556
1514.248 70.516 72.636 73.656 73.796 72.626 70.556 68.476 67.206 67.646 70.366
1533.538 75.816 84.286 95.756 111.606 130.856 152.376 175.266 196.936 213.896 223.156
1552.827 222.576 212.466 195.306 172.956 149.186 127.676 108.376 91.726 78.016 66.866
1572.117 58.036 51.696 47.076 43.506 41.696 41.166 41.796 43.746 46.836 51.636
1591.407 58.206 66.226 75.256 84.636 93.476 101.406 107.716 112.786 117.056 121.096
1610.697 125.096 128.036 128.146 124.506 117.926 108.166 96.086 83.566 71.766 61.136
1629.986 51.976 44.446 38.476 33.756 29.716 26.636 24.406 22.556 21.196 20.196
1649.276 19.446 19.156 18.706 18.366 18.396 18.386 18.386 18.736 19.216 19.606
1668.566 20.746 22.346 24.056 26.456 29.576 33.236 38.386 44.706 52.656 62.356
1687.856 73.666 87.196 102.126 117.316 132.096 144.296 151.226 152.666 147.816 137.286
1707.146 122.766 106.206 90.176 76.176 64.196 54.596 47.266 42.336 39.876 39.616
1726.435 41.156 44.936 51.496 59.996 69.296 76.676 80.156 79.206 73.096 62.476
1745.725 50.066 38.716 30.286 24.286 20.066 17.286 15.116 13.316 11.946 10.856
1765.015 10.056 9.516 9.056 8.856 8.606 8.226 8.096 8.036 7.886 7.726
1784.305 7.736 7.806 7.796 7.736 7.716 7.736 7.636 7.306 6.826 6.396
1803.594 6.036 5.786 5.576 5.376 5.266 4.976 4.896 4.846 4.716 4.656
1822.884 4.346 4.096 4.086 4.106 4.026 3.846 3.706 3.756 3.776 3.696
1842.174 3.776 3.826 3.776 3.646 3.606 3.706 3.706 3.656 3.706 3.866
1861.464 4.096 4.256 4.386 4.606 4.856 5.026 4.966 4.976 4.956 4.986
1880.754 5.126 5.216 5.086 4.986 5.026 4.836 4.526 4.296 4.036 3.796
1900.043 3.526 3.266 3.206 3.056 2.916 2.936 2.896 2.796 2.756 2.716
1919.333 2.736 2.786 2.846 2.956 2.916 2.896 3.076 3.196 3.386 3.626
1938.623 3.696 3.766 3.946 3.926 3.916 3.936 3.786 3.806 3.916 4.006
1957.913 4.066 3.886 3.746 3.686 3.446 3.246 3.126 2.976 2.866 2.786
1977.202 2.876 2.856 2.526 2.276 2.316 2.436 2.486 2.436 2.296 2.316
1996.492 2.236 2.176 2.096 2.016 2.036 2.026 1.986 1.906 2.006 2.076
2015.782 2.096 2.136 2.106 1.946 1.846 1.846 1.836 1.836 1.846 1.866
2035.072 1.736 1.736 1.876 1.916 1.836 1.796 1.816 1.826 1.816 1.726
2054.362 1.624 1.756 1.796 1.766 1.856 1.6996 1.5545 1.6505 1.6153 1.4949
2073.651 1.5016 1.639 1.726 1.756 1.726 1.6188 1.5703 1.378 1.2776 1.4316
2092.941 1.5488 1.4666 1.4823 1.6519 1.736 1.766 1.776 1.806 1.806 1.796
2112.231 1.7048 1.6985 1.826 1.906 1.886 1.866 1.916 1.766 1.716 1.649
2131.521 1.5211 1.5552 1.5412 1.6251 1.766 1.756 1.786 1.846 1.786 1.706
2150.810 1.746 1.726 1.6452 1.5675 1.5678 1.766 1.6992 1.623 1.746 1.726
2170.100 1.746 1.856 1.886 1.936 1.846 1.726 1.856 1.916 1.846 1.786
2189.390 1.736 1.6098 1.5514 1.6238 1.756 1.691 1.6746 1.766 1.736 1.776
2208.680 1.6425 1.706 1.746 1.866 1.986 1.816 1.966 2.206 2.216 2.016
2227.970 1.916 2.116 2.236 2.156 2.176 2.206 2.146 1.986 1.926 2.056
2247.259 2.196 2.236 2.296 2.126 2.006 1.886 1.846 1.996 1.856 1.886
2266.549 1.876 1.716 1.6 1.6296 1.716 1.776 1.846 1.796 1.706 1.6982
2285.839 1.746 1.786 1.846 1.856 1.866 1.826 1.786 1.6191 1.4846 1.5144
2305.129 1.4721 1.4976 1.6531 1.736 1.6645 1.6636 1.716 1.746 1.726 1.677
2324.418 1.6524 1.5794 1.6487 1.6012 1.4675 1.525 1.6713 1.756 1.756 1.756
2343.708 1.836 1.876 1.796 1.5858 1.5147 1.6861 1.766 1.6736 1.4532 1.487
2362.998 1.585 1.5341 1.6955 1.706 1.4491 1.3112 1.4445 1.55 1.5034 1.5491
2382.288 1.4721 1.5265 1.3887 1.2341 1.3812 1.213 1.1243 1.2642 1.5445 1.5547
2401.578 1.2126 1.2252 1.3926 1.3506 1.3589 1.4768 1.3253 1.1436 1.2323 1.1768
2420.867 1.1849 1.3218 1.3084 1.3401 1.416 1.3085 1.2843 1.3228 1.2719 1.3108
2440.157 1.3376 1.4083 1.4197 1.3431 1.2876 1.3007 1.5645 1.5129 1.2719 1.2562
2459.447 1.0609 0.9441 0.9864 1.1119 1.431 1.5466 1.5421 1.5349 1.5862 1.4781
2478.737 1.2234 1.2354 1.333 1.4692 1.5864 1.816 1.816 1.5849 1.5227 1.6419
2498.026 1.766 1.6937 1.5606 1.4569 1.6336 1.517 1.212 1.1766 1.1686 1.2261
2517.316 1.2135 1.2333 1.2172 1.2215 1.2485 1.2842 1.1417 0.9338 1.0655 1.3076
2536.606 1.3741 1.2806 1.3308 1.2977 1.2626 1.5177 1.3683 1.189 1.4061 1.3133
2555.896 1.2607 1.5596 1.5312 1.3405 1.3652 1.4338 1.2828 1.3114 1.5227 1.5686
2575.186 1.581 1.4227 1.2796 1.3035 1.4875 1.5727 1.5424 1.3751 1.3932 1.5795
2594.475 1.6309 1.5818 1.4255 1.3486 1.496 1.5254 1.3372 1.3072 1.4931 1.5695
2613.765 1.6435 1.746 1.5628 1.4369 1.4444 1.6697 1.6759 1.4684 1.4595 1.5928
2633.055 1.6056 1.6062 1.7017 1.6396 1.6152 1.4365 1.2173 1.3063 1.6174 1.6879
2652.345 1.6242 1.746 1.806 1.5443 1.4512 1.766 1.786 1.6324 1.6533 1.4689
2671.634 1.3428 1.5641 1.5146 1.3455 1.3448 1.4669 1.2676 1.0762 1.2213 1.2731
2690.924 1.5637 1.6066 1.2259 0.8496 0.9399 1.2741 1.1564 0.9982 1.1169 1.2133
2710.214 1.0185 1.202 1.3113 1.2223 1.4033 1.5929 1.6362 1.4677 1.3287 1.1983
2729.504 1.1178 1.3993 1.736 1.5435 1.4334 1.6319 1.736 1.896 1.736 1.6762
2748.794 1.836 1.896 1.976 2.136 2.206 2.036 2.076 1.986 1.6715 1.786
2768.083 2.036 1.946 1.856 1.746 1.836 1.936 1.946 2.096 2.266 2.266
2787.373 2.066 2.166 2.376 2.366 2.396 2.426 2.426 2.356 2.276 2.236
2806.663 2.236 2.316 2.476 2.526 2.566 2.696 2.806 2.746 2.506 2.386
2825.953 2.606 2.796 2.806 2.576 2.416 2.636 2.456 2.376 2.406 2.236
2845.242 2.456 2.636 2.546 2.536 2.616 2.836 3.016 3.026 3.296 3.526
2864.532 3.686 3.986 4.246 4.466 4.386 4.496 5.276 5.916 6.086 6.176
2883.822 6.476 6.916 7.116 7.066 6.956 6.766 6.906 7.256 7.176 7.566
2903.112 8.146 8.426 9.016 9.256 9.306 9.406 9.336 9.296 9.426 9.226
2922.401 8.976 9.106 9.526 9.886 10.386 11.546 12.626 14.106 15.646 16.806
2941.691 17.906 18.396 18.236 17.646 16.606 15.436 14.356 13.936 14.226 14.616
2960.981 15.136 15.946 16.826 17.426 18.276 19.426 20.606 22.246 24.266 26.556
2980.271 29.076 30.966 31.796 31.356 29.836 27.776 25.236 22.856 20.956 19.336
2999.561 17.846 16.366 15.166 14.246 13.006 11.726 10.826 10.046 9.486 8.966
3018.850 8.116 7.526 7.496 7.466 7.226 6.936 7.116 7.216 7.286 7.766
3038.140 8.136 8.676 8.976 9.416 10.216 10.996 11.416 12.046 12.736 12.796
3057.430 13.006 12.596 12.176 12.356 12.886 13.286 13.666 14.646 15.766 16.766
3076.720 17.026 16.946 16.326 14.726 13.256 11.686 10.126 9.056 8.436 8.016
3096.009 7.646 7.536 7.266 6.946 6.686 6.456 6.156 5.886 5.596 5.236
3115.299 4.896 4.616 4.436 4.326 3.966 3.526 3.396 3.206 3.236 2.906
3134.589 2.666 2.746 2.386 2.546 2.536 1.946 1.6468 1.6469 1.6364 1.736
3153.879 1.756 1.776 2.006 1.886 1.816 1.746 1.736 1.6332 1.5685 2.046
3173.169 1.6791 1.4562 1.816 1.796 1.816 1.716 1.976 2.156 1.766 1.5094
3192.458 1.4455 1.2061 1.5625 2.226 2.096 1.896 2.106 1.986 1.5609 1.736
3211.748 1.986 1.776 1.5845 1.816 1.816 1.6999 1.876 1.776 1.746 1.866
3231.038 2.026 2.126 2.116 1.5261 1.3446 2.106 2.136 1.996 2.126 2.156
3250.328 2.386 1.896 1.4487 1.746 1.736 1.826 1.786 1.726 1.796 2.076
3269.617 1.746 1.3187 1.806 2.036 2.006 1.936 2.006 2.206 1.886 1.826
3288.907 2.036 2.076 2.496 2.736 2.836 2.786 2.846 2.996 3.206 3.586
3308.197 3.256 2.966 2.966 3.346 3.786 3.606 3.316 3.166 2.826 2.856
3327.487 3.076 3.266 3.776 3.976 4.196 4.246 4.346 5.016 5.686 6.346
3346.777 7.216 7.986 8.956 10.656 12.856 15.136 17.276 19.936 22.376 23.556
3366.066 23.666 23.366 22.106 20.186 18.166 15.406 13.126 11.296 9.776 9.096
3385.356 8.336 7.546 7.506 7.356 6.856 6.726 6.586 6.106 5.656 5.216
3404.646 5.386 5.386 4.736 4.216 3.806 3.506 3.406 3.136 2.616 2.826
3423.936 3.036 2.786 2.866 2.966 3.046 2.886 2.516 2.906 3.296 3.266
3443.225 3.536 3.846 4.146 4.796 4.996 5.466 6.716 7.186 7.396 8.306
3462.515 9.286 10.676 12.556 14.006 16.076 19.116 21.906 25.016 28.496 31.356
3481.805 33.746 34.886 34.676 33.346 31.076 28.196 25.246 22.066 19.046 16.586
3501.095 14.146 12.136 10.566 9.066 8.056 7.646 6.756 5.926 5.106 4.326
3520.385 4.276 3.976 3.616 3.666 3.276 2.976 2.646 2.496 2.496 2.086
3539.674 1.946 1.986 1.776 1.5971 1.3694 1.4264 1.6583 1.4443 1.2557 1.1147
3558.964 1.2022 1.5101 1.846 1.956 1.5151 1.1406 1.0014 1.1383 1.263 0.896
3578.254 0.871 1.1359 1.4495 1.3306 0.8165 0.57 0.513 0.73979 0.889 0.8117
3597.544 0.71793 0.276 0.42 0.6353 1.0346 1.1399 0.74127 1.3022 1.2694 1.0083
3616.833 1.1378 1.1246 0.9514 0.9703 1.1995 0.9158 0.76889 0.77755 0.8775 1.209
3636.123 1.239 1.2054 0.9021 0.988 1.2006 0.9502 0.9183 1.2334 1.2205 0.9207
3655.413 0.9235 1.1045 1.145 1.0788 1.0671 1.1375 1.1735 0.6064 0.585 1.532
3674.703 1.726 1.1842 0.8377 0.79946 0.9702 0.9493 0.8126 0.9305 1.0564 1.2098
3693.993 0.9552 0.484 0.496 0.534 0.481 0.323 0.334 0.8798 0.8903 0.6621
3713.282 1.32 1.4371 1.0474 1.06 1.0116 1.3059 1.2511 0.546 0.288 0.6082
3732.572 0.8838 1.0485 1.2043 0.8851 0.9513 1.492 1.4868 1.2974 1.026 1.2788
3751.862 1.5637 1.1789 0.70326 0.76521 1.0615 1.2107 1.5508 1.429 1.413 1.4857
3771.152 1.4458 1.5271 1.5295 1.5835 1.3119 1.0175 1.1235 1.1112 1.0409 0.9755
3790.441 0.6295 0.6093 0.8158 0.6895 1.0749 1.3391 1.2868 1.0962 0.78294 1.1971
3809.731 1.3212 1.1422 1.1548 1.0722 1.0445 1.1364 0.8646 0.8447 1.0134 0.9338
3829.021 0.8554 0.69682 0.529 0.705366 0.9118 1.1004 1.5992 1.459 1.0344 0.9636
3848.311 0.74765 0.496 0.8758 1.1951 0.77956 0.69738 1.029 0.7719 0.6279 0.601
3867.601 0.394 0.6868 0.9769 1.1483 0.9397 0.603 0.6427 0.8208 1.0462 0.8771
3886.890 0.74435 0.8083 0.74962 1.1117 1.1117 0.79313 0.9812 0.973 0.9615 0.79014
3906.180 0.75097 0.9846 1.0057 0.9997 0.8724 0.598 0.555 0.6537 0.596 0.579
3925.470 0.75106 0.73344 1.0321 1.3951 1.0008 0.8375 0.9789 1.0735 0.9401 0.91
3944.760 0.8892 0.76042 0.9569 1.2958 0.521 0 0.452 0.539 0.8147 1.005
3964.049 0.8757 1.1691 1.3685 0.8497 0.6 0.56 0.602 0.79073 0.9939 0.9663
3983.339 0.6919 0.73934 0.783 0.6709 0.35 0.43 0.78166 0.9993 1.0953 0.76748
##END=
