##TITLE=4,5-Dimethyl-1-hexene
##JCAMP-DX=4.24
##DATA TYPE=INFRARED SPECTRUM
##ORIGIN=NIST Mass Spectrometry Data Center
##OWNER=NIST Standard Reference Data Program
Collection (C) 2018 copyright by the U.S. Secretary of Commerce
on behalf of the United States of America. All rights reserved.
##CAS REGISTRY NO=16106-59-5
##MOLFORM=C 8 H 16
##$NIST SOURCE=MSDC-IR
##SPECTROMETER/DATA SYSTEM=HP-GC/MS/IRD
##STATE=gas
##XUNITS=1/CM
##YUNITS=ABSORBANCE
##XFACTOR=1.0
##YFACTOR=0.000003600
##DELTAX=4.0
##FIRSTX=550.0
##LASTX=3846.0
##FIRSTY=0.000508
##MAXX=3846
##MINX=550
##MAXY=0.036
##MINY=0
##NPOINTS=825
##XYDATA=(X++(Y..Y))
550.0 141 108 81 83 68 53 58 49 29 54
590.0 102 107 109 128 149 182 212 225 261 273
630.0 232 211 191 164 161 128 94 115 107 83
670.0 89 91 110 110 90 79 78 79 69 78
710.0 82 78 80 78 75 83 82 86 99 91
750.0 81 79 91 96 94 94 89 84 72 71
790.0 68 55 57 70 73 75 88 102 152 158
830.0 141 162 177 195 217 237 261 281 297 323
870.0 344 361 405 461 518 637 823 1071 1380 1677
910.0 1876 1942 1840 1593 1281 974 740 587 490 430
950.0 406 388 390 411 445 504 579 682 796 896
990.0 953 970 938 835 701 578 482 412 354 319
1030.0 313 303 282 279 284 290 292 291 289 277
1070.0 262 254 250 254 261 276 304 328 357 397
1110.0 416 429 421 394 393 399 390 407 415 403
1150.0 376 349 324 286 258 231 210 197 186 175
1190.0 160 146 135 132 135 147 163 177 189 197
1230.0 197 198 194 188 182 186 201 199 198 209
1270.0 200 189 194 209 221 233 257 276 294 298
1310.0 295 287 269 250 241 243 252 254 296 359
1350.0 415 495 605 736 919 1123 1294 1419 1493 1480
1390.0 1361 1149 924 721 554 471 431 404 429 489
1430.0 559 630 731 873 990 1104 1171 1239 1308 1287
1470.0 1195 1059 922 774 609 457 357 285 229 155
1510.0 129 137 111 104 124 129 116 90 74 88
1550.0 98 75 41 71 103 98 96 104 123 120
1590.0 124 132 149 166 185 214 244 312 424 561
1630.0 713 813 864 849 754 578 376 262 191 144
1670.0 124 108 93 62 56 76 53 27 42 61
1710.0 68 44 27 51 58 35 19 41 52 39
1750.0 26 36 42 37 31 25 37 49 50 58
1790.0 58 56 64 76 98 115 148 194 224 238
1830.0 254 248 215 163 124 108 90 70 59 54
1870.0 52 57 56 58 58 55 57 56 54 50
1910.0 49 46 42 39 42 41 37 38 38 39
1950.0 42 45 43 42 44 55 63 60 58 56
1990.0 52 51 47 42 49 46 39 36 38 41
2030.0 38 38 39 37 33 34 37 29 30 37
2070.0 39 41 38 36 34 34 35 31 32 34
2110.0 33 29 35 36 30 34 37 33 30 25
2150.0 28 34 39 40 41 40 35 35 35 32
2190.0 32 36 37 36 36 39 36 36 40 38
2230.0 41 48 45 40 40 43 41 41 44 38
2270.0 37 38 35 36 38 38 39 35 32 31
2310.0 29 32 31 27 25 28 33 28 27 32
2350.0 32 31 25 21 22 22 32 41 40 43
2390.0 50 53 49 44 49 48 42 42 39 39
2430.0 41 46 44 41 42 41 43 42 43 37
2470.0 35 39 40 40 36 33 32 36 39 40
2510.0 43 41 44 46 45 46 48 45 44 44
2550.0 49 55 56 63 70 77 81 87 90 94
2590.0 101 103 107 110 114 112 108 107 108 108
2630.0 107 104 94 86 87 91 93 93 93 97
2670.0 104 106 111 114 112 113 112 115 117 118
2710.0 130 138 144 159 169 175 186 185 180 185
2750.0 186 184 184 189 190 188 195 198 198 206
2790.0 223 236 250 270 297 323 354 400 443 495
2830.0 558 627 713 825 955 1097 1284 1550 1925 2424
2870.0 3029 3667 4223 4613 4822 4850 4727 4554 4425 4359
2910.0 4379 4464 4587 4728 4877 5018 5129 5238 5407 5720
2950.0 6310 7236 8369 9420 10000 9940 9271 8050 6569 5142
2990.0 3949 3044 2389 1925 1607 1370 1165 1000 865 747
3030.0 668 624 604 592 586 604 643 697 778 888
3070.0 1044 1242 1400 1475 1423 1268 1071 802 558 410
3110.0 337 306 281 264 244 227 225 214 205 200
3150.0 200 201 189 183 179 169 156 151 152 151
3190.0 144 133 134 123 108 95 91 79 67 70
3230.0 66 64 60 64 56 40 46 46 31 37
3270.0 48 42 40 38 35 35 37 35 35 41
3310.0 37 38 38 35 41 35 32 34 39 37
3350.0 31 36 36 40 40 35 37 38 31 29
3390.0 35 34 34 37 43 38 31 25 24 29
3430.0 37 39 31 29 32 37 44 39 29 30
3470.0 38 41 41 36 40 43 40 44 41 35
3510.0 32 32 38 37 32 34 25 25 21 17
3550.0 33 33 29 20 1 14 30 38 34 8
3590.0 13 36 38 41 32 15 16 1 6 3
3630.0 1 27 31 37 11 6 35 42 47 36
3670.0 15 11 28 42 32 21 29 32 29 32
3710.0 14 17 36 32 26 17 1 1 4 0
3750.0 0 11 39 49 42 38 39 42 39 42
3790.0 50 56 42 24 35 38 24 22 41 51
3830.0 41 31 25 40 60
##END=
