##TITLE=Prometon
##JCAMP-DX=4.24
##DATA TYPE=INFRARED SPECTRUM
##ORIGIN=NIST Mass Spectrometry Data Center
##OWNER=NIST Standard Reference Data Program
Collection (C) 2018 copyright by the U.S. Secretary of Commerce
on behalf of the United States of America. All rights reserved.
##CAS REGISTRY NO=1610-18-0
##MOLFORM=C 10 H 19 N 5 O
##$NIST SOURCE=MSDC-IR
##SPECTROMETER/DATA SYSTEM=HP-GC/MS/IRD
##STATE=gas
##XUNITS=1/CM
##YUNITS=ABSORBANCE
##XFACTOR=1.0
##YFACTOR=0.000045500
##DELTAX=4.0
##FIRSTX=550.0
##LASTX=3846.0
##FIRSTY=0.007781
##MAXX=3846
##MINX=550
##MAXY=0.455
##MINY=0
##NPOINTS=825
##XYDATA=(X++(Y..Y))
550.0 171 156 134 116 96 81 70 64 61 57
590.0 55 54 51 52 51 52 54 54 53 48
630.0 44 42 40 40 37 37 37 31 24 19
670.0 16 15 14 13 15 17 18 18 17 15
710.0 13 12 13 15 16 15 14 11 8 5
750.0 4 5 6 5 7 12 18 22 26 30
790.0 34 38 48 68 109 190 308 432 444 337
830.0 227 151 118 104 95 87 78 67 58 55
870.0 57 61 68 76 86 96 107 119 130 138
910.0 146 154 160 166 172 175 179 183 187 191
950.0 194 196 196 193 189 185 176 165 154 148
990.0 149 162 185 225 281 337 355 324 263 208
1030.0 171 152 141 132 127 126 127 131 141 157
1070.0 181 215 266 334 412 481 515 508 477 452
1110.0 451 478 528 583 623 633 620 597 573 559
1150.0 563 588 639 726 866 1071 1331 1601 1798 1843
1190.0 1735 1545 1339 1117 873 636 458 353 298 271
1230.0 255 245 234 222 211 201 196 197 203 220
1270.0 250 294 349 408 457 486 494 491 490 502
1310.0 528 568 621 685 757 842 945 1076 1250 1497
1350.0 1880 2461 3164 3680 3710 3279 2764 2583 2789 3091
1390.0 3137 2780 2213 1757 1517 1403 1354 1361 1379 1323
1430.0 1185 1072 1066 1185 1454 1926 2656 3617 4544 5113
1470.0 5143 4802 4447 4340 4606 5158 5742 6027 5776 5022
1510.0 4032 3097 2373 1906 1655 1565 1595 1738 1998 2361
1550.0 2826 3411 4189 5256 6607 8088 9327 10000 9939 9175
1590.0 7873 6307 4783 3529 2636 2053 1670 1395 1173 983
1630.0 818 683 577 499 440 394 358 327 301 281
1670.0 266 250 234 216 198 181 165 152 141 131
1710.0 123 114 107 100 94 90 86 82 79 76
1750.0 74 72 69 66 61 58 56 54 53 52
1790.0 51 48 46 44 42 41 40 39 40 40
1830.0 39 40 41 43 45 46 47 45 43 41
1870.0 40 39 38 37 36 34 33 31 32 29
1910.0 29 27 27 26 25 26 26 25 26 25
1950.0 23 22 19 16 15 13 12 11 10 10
1990.0 9 8 8 9 11 12 13 14 15 14
2030.0 13 12 11 11 11 10 11 12 12 13
2070.0 12 12 13 14 15 16 15 16 17 17
2110.0 16 15 15 13 12 11 11 10 9 8
2150.0 7 6 5 6 5 4 5 5 4 3
2190.0 4 4 5 6 6 5 6 6 7 8
2230.0 8 7 6 7 6 5 5 4 5 5
2270.0 4 4 6 6 7 8 9 10 11 12
2310.0 13 15 16 17 17 16 17 15 14 15
2350.0 14 15 16 17 16 17 17 16 17 16
2390.0 15 14 14 12 11 11 10 9 10 11
2430.0 12 13 13 15 17 20 21 22 23 24
2470.0 25 26 27 28 28 27 28 28 29 31
2510.0 32 33 34 36 37 38 39 41 42 43
2550.0 43 42 39 38 36 34 33 33 32 33
2590.0 33 32 33 33 31 28 27 25 23 22
2630.0 22 21 20 19 19 18 17 18 17 19
2670.0 20 19 19 20 20 19 20 21 20 20
2710.0 21 23 26 29 31 32 31 31 29 28
2750.0 28 27 29 30 32 33 33 33 34 35
2790.0 37 40 42 46 51 54 58 62 64 67
2830.0 71 75 82 92 106 122 141 163 192 233
2870.0 292 370 455 517 529 493 444 410 408 433
2910.0 471 509 538 560 587 626 672 708 718 715
2950.0 729 793 908 1053 1215 1372 1478 1517 1481 1322
2990.0 1044 740 512 383 316 285 275 264 237 197
3030.0 155 124 102 87 79 72 65 60 56 52
3070.0 49 47 45 45 44 43 42 40 39 40
3110.0 40 39 40 41 42 41 42 42 41 42
3150.0 43 43 44 44 43 42 40 39 37 34
3190.0 31 27 25 23 22 19 17 16 15 12
3230.0 9 8 7 5 4 4 3 3 2 1
3270.0 2 1 0 1 0 0 1 0 1 0
3310.0 0 0 0 1 1 0 1 2 2 3
3350.0 4 4 4 5 5 6 7 7 9 10
3390.0 11 13 18 21 26 34 44 61 85 124
3430.0 183 265 371 484 568 582 513 395 273 182
3470.0 124 88 66 52 42 35 29 24 20 17
3510.0 16 16 15 14 13 13 11 9 9 8
3550.0 9 8 7 7 6 5 6 5 6 6
3590.0 4 5 4 5 6 5 6 7 7 6
3630.0 5 5 6 4 5 4 5 5 4 5
3670.0 6 6 6 6 4 4 5 6 6 5
3710.0 6 5 6 5 4 5 6 5 7 8
3750.0 6 6 5 6 5 4 6 9 8 8
3790.0 7 7 8 9 10 9 10 11 10 10
3830.0 11 10 9 10 11
##END=
