##TITLE=1,2-Butanedithiol
##JCAMP-DX=4.24
##DATA TYPE=INFRARED SPECTRUM
##ORIGIN=NIST Mass Spectrometry Data Center
##OWNER=NIST Standard Reference Data Program
Collection (C) 2018 copyright by the U.S. Secretary of Commerce
on behalf of the United States of America. All rights reserved.
##CAS REGISTRY NO=16128-68-0
##MOLFORM=C 4 H 10 S 2
##$NIST SOURCE=MSDC-IR
##SPECTROMETER/DATA SYSTEM=HP-GC/MS/IRD
##STATE=gas
##XUNITS=1/CM
##YUNITS=ABSORBANCE
##XFACTOR=1.0
##YFACTOR=0.000007700
##DELTAX=4.0
##FIRSTX=550.0
##LASTX=3846.0
##FIRSTY=0.001502
##MAXX=3846
##MINX=550
##MAXY=0.077
##MINY=0
##NPOINTS=825
##XYDATA=(X++(Y..Y))
550.0 195 254 112 99 85 77 68 59 55 54
590.0 43 31 29 18 8 20 35 44 62 78
630.0 80 70 57 50 43 37 39 51 57 65
670.0 85 103 113 119 125 143 180 217 257 308
710.0 349 380 401 414 431 442 449 468 489 500
750.0 503 480 441 401 363 336 331 346 369 391
790.0 421 447 467 496 508 508 516 518 533 566
830.0 587 609 625 654 707 768 827 890 953 1019
870.0 1088 1160 1240 1310 1402 1534 1669 1798 1919 2041
910.0 2206 2456 2824 3173 3318 3248 2963 2537 2085 1715
950.0 1491 1410 1457 1594 1827 2183 2693 3323 3938 4359
990.0 4421 4084 3465 2774 2187 1791 1583 1538 1665 1968
1030.0 2477 3177 3993 4885 5842 6864 7916 8921 9683 9943
1070.0 9592 8781 7781 6850 6176 5702 5238 4692 4080 3474
1110.0 2969 2632 2454 2426 2544 2737 2929 3032 2973 2738
1150.0 2382 2044 1820 1718 1715 1758 1807 1831 1825 1801
1190.0 1810 1950 2236 2548 2759 2745 2472 2023 1569 1257
1230.0 1080 981 933 918 916 904 864 796 712 625
1270.0 548 498 459 433 431 445 483 533 582 627
1310.0 658 695 759 850 958 1067 1148 1191 1209 1213
1350.0 1201 1143 1018 843 647 475 346 268 220 188
1390.0 175 173 185 213 265 349 462 589 706 794
1430.0 861 928 1031 1181 1368 1522 1607 1622 1562 1444
1470.0 1335 1182 901 652 459 299 201 147 120 104
1510.0 88 77 72 64 57 54 52 54 53 47
1550.0 47 46 44 43 42 41 41 43 41 43
1590.0 46 52 55 56 59 61 64 66 69 72
1630.0 76 83 89 91 97 106 115 120 129 147
1670.0 162 175 184 194 207 210 218 237 263 294
1710.0 337 399 480 574 689 842 1061 1372 1844 2562
1750.0 3598 4871 6164 7279 7622 6914 5806 4731 3853 3378
1790.0 3330 3692 4481 5736 7252 8682 9678 10000 9601 8608
1830.0 7332 5989 4679 3550 2688 2088 1669 1357 1117 929
1870.0 779 651 543 457 389 333 290 255 227 206
1910.0 184 165 154 138 124 111 101 92 85 78
1950.0 71 64 58 54 52 51 46 44 42 41
1990.0 40 37 33 31 28 25 25 25 26 27
2030.0 28 27 26 27 26 26 28 28 30 35
2070.0 38 39 42 43 48 62 73 83 103 127
2110.0 156 187 216 237 238 215 175 131 98 72
2150.0 56 43 33 28 22 18 16 13 11 11
2190.0 11 8 8 9 8 9 7 4 3 4
2230.0 0 3 6 5 8 9 8 10 13 13
2270.0 12 10 8 9 11 8 4 7 7 7
2310.0 10 10 11 17 20 20 21 22 21 16
2350.0 14 20 22 22 24 23 22 20 15 14
2390.0 12 13 15 11 12 15 13 12 13 17
2430.0 18 15 12 8 12 14 15 16 13 13
2470.0 12 11 14 16 15 15 18 20 21 24
2510.0 25 24 23 24 25 26 26 26 26 22
2550.0 19 18 17 15 15 21 23 22 24 25
2590.0 24 26 28 26 24 26 30 33 33 30
2630.0 34 39 39 42 49 53 56 60 66 72
2670.0 79 87 92 97 104 108 109 106 101 97
2710.0 87 80 74 66 63 62 58 57 61 63
2750.0 65 65 69 75 75 78 84 86 89 92
2790.0 103 116 123 135 148 159 176 190 207 228
2830.0 246 272 308 366 477 675 938 1198 1427 1610
2870.0 1750 1863 1968 2058 2087 2024 1890 1797 1846 2090
2910.0 2478 3000 3456 3644 3898 4378 5061 5855 6425 6512
2950.0 6134 5420 4607 3934 3463 3154 2808 2358 1905 1460
2990.0 1089 816 617 477 377 296 239 198 170 147
3030.0 127 114 106 98 93 87 76 68 67 67
3070.0 60 55 55 52 52 54 52 49 43 44
3110.0 41 37 34 37 35 31 34 37 39 39
3150.0 37 32 30 30 33 31 27 31 35 28
3190.0 26 29 30 27 27 25 20 23 32 27
3230.0 22 25 30 27 23 27 31 31 27 22
3270.0 20 18 17 19 23 25 22 20 17 18
3310.0 15 15 17 9 15 21 17 17 24 25
3350.0 17 16 11 8 14 17 14 16 23 23
3390.0 26 27 23 22 21 24 21 27 36 32
3430.0 25 26 23 25 31 30 27 23 22 27
3470.0 30 31 39 43 45 56 73 86 93 105
3510.0 113 106 94 88 89 92 88 74 67 68
3550.0 68 73 86 107 129 140 144 147 144 139
3590.0 128 117 117 124 135 135 131 132 118 110
3630.0 106 103 104 92 95 96 93 85 79 75
3670.0 68 64 57 49 49 46 48 46 38 40
3710.0 44 44 41 38 44 48 48 41 35 39
3750.0 33 38 41 33 30 33 33 41 43 35
3790.0 32 33 36 36 39 42 40 34 33 34
3830.0 35 38 37 41 43
##END=
