##TITLE=3-Fluoro-5-(trifluoromethyl)benzoic acid
##JCAMP-DX=4.24
##DATA TYPE=INFRARED SPECTRUM
##ORIGIN=EPA-IR VAPOR PHASE LIBRARY
##OWNER=SRD/NIST
Collection (C) 2018 copyright by the U.S. Secretary of Commerce
on behalf of the United States of America. All rights reserved.
##CAS REGISTRY NO=161622-05-5
##MOLFORM=C 8 H 4 F 4 O 2
##$NIST SOURCE=MSDC-IR
##STATE=gas
##XUNITS=1/CM
##YUNITS=ABSORBANCE
##XFACTOR=1.
##YFACTOR=0.001
##DELTAX=1.92898
##FIRSTX=549.8
##LASTX=4000.7
##FIRSTY=5.437
##MAXX=4000.7
##MINX=549.759
##MAXY=0.118187
##MINY=0
##NPOINTS=1790
##XYDATA=(X++(Y..Y))
549.759 5.437 5.197 5.347 5.767 5.377 5.267 5.437 5.177 5.457 5.597
569.049 5.927 6.507 7.357 8.397 9.437 11.077 12.137 12.947 13.947 14.767
588.339 14.357 13.237 11.867 10.607 9.607 9.387 8.597 7.007 6.307 5.657
607.628 5.077 4.437 4.057 4.047 3.457 2.747 3.007 2.807 2.437 2.997
626.918 3.467 3.717 4.127 4.427 4.757 5.877 8.257 11.757 16.827 22.097
646.208 25.657 26.957 27.287 27.477 24.427 19.607 14.517 8.987 5.507 3.877
665.498 2.867 2.417 2.157 2.127 1.907 1.5234 1.767 1.907 1.897 2.507
684.787 3.277 3.667 4.167 4.777 5.087 5.117 4.707 4.437 4.307 4.007
704.077 4.137 5.017 6.187 7.707 8.697 8.617 9.147 9.787 9.627 8.157
723.367 5.847 4.307 3.287 2.617 2.507 2.117 1.827 1.927 1.2957 1.1764
742.657 1.767 1.907 2.097 2.237 2.417 2.827 2.987 3.217 4.467 5.827
761.947 7.027 8.127 9.597 11.987 14.317 14.377 11.697 9.647 8.887 7.557
781.236 5.687 4.427 3.367 2.377 2.377 2.457 2.017 1.897 1.837 1.797
800.526 1.4526 1.549 2.107 2.097 1.947 1.887 1.767 1.957 2.187 1.6872
819.816 1.2799 1.585 1.6143 1.452 1.5103 1.3098 1.4457 1.807 1.747 1.4746
839.106 1.5539 1.837 1.877 2.017 1.967 2.317 3.267 3.697 3.937 4.347
858.395 4.717 4.967 5.257 5.127 4.567 3.777 3.037 2.857 3.067 3.147
877.685 3.687 4.957 6.137 7.087 8.407 10.107 12.237 13.417 11.847 9.587
896.975 8.167 7.577 7.177 5.917 5.277 4.887 4.407 4.647 4.757 4.647
916.265 4.657 4.637 4.437 4.367 4.577 4.937 5.917 7.217 9.117 11.927
935.555 14.797 18.387 21.387 23.117 24.577 25.487 25.917 24.477 21.017 17.767
954.844 15.007 12.087 9.787 8.227 6.207 4.557 3.847 3.237 2.627 2.397
974.134 2.307 2.307 2.277 1.947 1.6228 1.58 1.807 1.907 2.037 1.927
993.424 1.997 2.007 1.897 1.917 1.867 1.6807 1.6739 1.967 1.937 1.827
1012.714 1.5648 1.586 2.477 2.887 2.427 2.267 2.227 2.097 2.047 1.877
1032.003 2.277 2.287 1.827 1.807 2.137 2.167 1.707 1.837 1.897 2.157
1051.293 2.287 2.307 3.277 3.487 2.837 3.037 3.027 2.897 2.447 1.827
1070.583 3.087 4.457 4.427 4.707 6.107 7.567 8.637 10.157 12.577 13.747
1089.873 12.947 13.457 14.607 15.107 15.587 15.267 14.787 14.107 12.597 11.387
1109.163 11.087 10.367 10.227 10.397 10.597 11.687 12.637 12.547 13.017 15.297
1128.452 18.237 21.837 25.937 30.487 36.507 43.537 50.637 58.857 68.747 79.277
1147.742 89.547 99.067 108.207 115.687 118.187 112.437 100.527 88.577 77.647 67.027
1167.032 57.947 52.237 51.787 55.757 61.837 68.077 74.107 78.277 77.407 71.677
1186.322 63.247 55.447 46.847 37.347 29.397 23.217 19.327 16.387 14.567 13.567
1205.611 13.437 14.537 16.477 18.887 21.777 25.427 28.857 33.117 37.707 41.767
1224.901 43.707 43.317 41.297 38.447 34.137 28.057 22.617 18.377 16.467 15.937
1244.191 15.347 14.467 13.957 14.607 14.167 12.767 11.687 11.047 10.527 9.967
1263.481 10.147 10.357 10.417 10.867 11.167 11.377 11.487 11.827 12.747 13.897
1282.771 14.867 15.437 16.927 18.437 19.207 20.607 22.657 24.917 27.567 31.337
1302.060 36.057 41.497 47.107 51.787 54.587 55.077 53.377 49.157 43.237 36.587
1321.350 30.047 24.717 20.747 18.187 16.527 15.277 14.527 14.107 13.947 14.167
1340.640 14.987 16.147 17.727 19.957 22.427 24.727 26.887 28.867 30.327 30.957
1359.930 30.717 29.947 28.867 27.397 25.897 25.227 25.547 26.697 28.527 30.927
1379.219 33.477 35.517 36.807 36.947 36.027 33.857 30.427 26.377 21.757 17.337
1398.509 13.607 10.677 8.867 7.577 6.647 6.137 5.827 5.567 5.397 5.157
1417.799 5.087 5.117 4.967 5.087 5.387 5.667 5.997 6.357 6.917 7.717
1437.089 8.527 9.517 10.897 12.377 13.817 15.037 16.257 17.137 17.937 18.557
1456.378 18.797 19.027 18.787 17.877 16.507 14.787 12.907 11.027 9.377 7.837
1475.668 6.587 5.727 4.977 4.277 3.967 3.747 3.267 3.107 2.847 2.557
1494.958 2.507 2.397 2.327 2.327 2.257 2.327 2.377 2.177 1.967 1.807
1514.248 1.837 1.897 1.847 1.877 1.797 1.5674 1.5168 1.6546 1.787 1.787
1533.538 1.6955 1.727 1.887 1.847 1.6376 1.489 1.591 1.777 1.987 1.907
1552.827 1.5493 1.5006 1.5158 1.4549 1.757 1.827 1.797 1.977 2.037 2.057
1572.117 2.267 2.617 2.937 3.087 3.107 3.357 3.647 3.987 4.567 5.147
1591.407 5.917 6.757 7.617 8.817 9.877 10.477 11.037 11.117 10.907 10.837
1610.697 10.087 8.967 8.227 7.447 6.497 5.817 5.407 4.997 4.697 4.477
1629.986 4.177 4.017 3.777 3.497 3.297 2.937 2.687 2.737 2.687 2.597
1649.276 2.427 2.297 2.127 1.827 1.632 1.5562 1.561 1.613 1.5614 1.4876
1668.566 1.5287 1.4724 1.4851 1.663 1.767 1.737 1.777 1.787 1.727 1.5834
1687.856 1.5858 1.5563 1.457 1.5245 1.5367 1.6364 1.767 1.957 2.147 2.287
1707.146 2.497 2.967 3.407 3.847 4.447 5.007 5.617 5.887 5.977 5.807
1726.435 5.477 5.287 5.067 4.747 4.557 4.387 4.437 4.867 5.347 5.937
1745.725 6.867 8.387 10.597 13.637 17.857 24.087 32.947 44.017 56.727 69.117
1765.015 78.427 83.287 83.387 79.477 72.357 61.267 46.737 33.207 23.317 16.717
1784.305 12.327 9.507 7.867 6.767 5.997 5.657 5.527 5.437 5.507 5.527
1803.594 5.647 5.917 6.187 6.487 6.787 6.937 6.907 6.717 6.307 5.587
1822.884 4.907 4.307 3.627 2.967 2.447 2.087 1.847 1.767 1.5881 1.4302
1842.174 1.4555 1.5355 1.5958 1.4944 1.2656 1.1795 1.212 1.1374 1.0443 1.0865
1861.464 1.1078 1.2684 1.3612 1.152 0.9857 0.9382 1.097 1.1069 1.014 1.0787
1880.754 1.1051 1.2456 1.2784 1.1862 1.2154 1.2825 1.3211 1.2801 1.2102 1.1062
1900.043 1.0417 1.0762 0.9876 0.8913 1.0083 0.8939 0.595 0.6462 0.8205 0.79343
1919.333 0.75791 0.8618 0.9424 0.9057 0.76353 0.8206 0.9507 0.8739 0.8928 0.8229
1938.623 0.6495 0.699108 0.79185 0.8806 0.877 0.78352 0.817 0.8469 0.882 0.8292
1957.913 0.72551 0.8063 0.77729 0.6837 0.698796 0.72996 0.71815 0.74214 0.8703 0.9812
1977.202 0.9922 1.0005 0.9018 0.8421 0.8353 0.8025 0.78672 0.79533 0.76755 0.69165
1996.492 0.8069 0.8026 0.8988 0.9779 0.77887 0.8182 0.9685 0.9762 0.9242 0.9316
2015.782 1.0175 1.0613 1.0158 1.0376 1.0325 0.9944 1.0466 0.9866 0.9644 0.9325
2035.072 0.8109 0.8089 0.78195 0.6402 0.6713 0.8281 0.806 0.71525 0.77367 0.8092
2054.362 0.7981 0.7978 0.8632 0.7727 0.6195 0.706054 0.77258 0.72594 0.6844 0.72343
2073.651 0.8011 0.74143 0.7691 0.9342 0.9244 0.9407 0.9819 1.0052 1.0508 1.0099
2092.941 1.0053 1.025 0.9599 0.8741 1.0164 1.1717 0.9115 0.7842 0.8961 0.78778
2112.231 0.7922 0.9175 0.8399 0.6847 0.73947 0.73258 0.76527 0.73587 0.466 0.533
2131.521 0.799 0.8448 0.6711 0.533 0.527 0.6635 0.6697 0.6476 0.74044 0.76741
2150.810 0.75303 0.7759 0.8289 0.7799 0.75882 0.6958 0.8151 0.9179 0.874 1.0763
2170.100 1.0983 0.938 0.8441 0.78902 0.8642 0.8409 0.72936 0.78269 0.74839 0.567
2189.390 0.558 0.7347 0.8009 0.700896 0.70808 0.8604 0.72124 0.6062 0.698358 0.8151
2208.680 0.9111 0.9815 0.9847 0.9022 0.8709 0.8121 1.0143 1.0124 0.8217 0.8546
2227.970 0.78907 0.73979 0.72374 0.581 0.6638 0.849 0.7277 0.69194 0.8239 0.8374
2247.259 0.76804 0.74866 0.7152 0.700775 0.77475 0.79243 0.79522 0.8715 0.8575 0.864
2266.549 0.827 0.8306 0.8141 0.77026 0.76736 0.78983 0.839 0.7885 0.8119 0.826
2285.839 0.8219 0.8904 0.7995 0.79603 0.862 0.75808 0.7719 0.9039 1.0534 1.0221
2305.129 1.094 0.9794 0.8292 0.8658 0.9559 1.093 0.8205 0.6704 0.6577 0.6571
2324.418 0.8905 0.9197 0.6319 0.537 0.6451 0.76866 0.9936 0.9257 0.8077 0.7989
2343.708 0.75884 0.8544 0.9398 0.8095 0.6475 0.7982 0.8348 0.6841 0.78765 0.9838
2362.998 0.8412 0.6457 0.68942 0.6432 0.6433 0.751 0.6795 0.75284 0.77692 0.6125
2382.288 0.6603 0.79349 0.8336 0.77509 0.6396 0.6527 0.75301 0.77087 0.6513 0.566
2401.578 0.8013 0.966 0.8454 0.8471 0.8326 0.75499 0.76723 0.7141 0.8072 0.8502
2420.867 0.905 0.8268 0.6751 0.827 0.94 0.75222 0.72348 0.825 0.75696 0.564
2440.157 0.457 0.554 0.6074 0.6722 0.6416 0.485 0.573 0.73382 0.73185 0.73352
2459.447 0.71187 0.7657 0.8926 0.8339 0.72676 0.71434 0.6562 0.75149 0.8356 0.6326
2478.737 0.591 0.78113 0.9465 0.892 0.69004 0.6602 0.703776 0.78882 0.6337 0.53
2498.026 0.864 1.0151 0.6318 0.457 0.525 0.369 0.425 0.73081 0.7202 0.439
2517.316 0.495 0.6721 0.706831 0.5978 0.513 0.476 0.6661 0.9477 0.8307 0.701915
2536.606 0.6567 0.6431 0.72811 0.73158 0.9121 1.0448 0.8541 0.8039 0.8108 0.8481
2555.896 0.8659 0.562 0.368 0.535 0.6808 0.597 0.592 0.75611 0.76694 0.6125
2575.186 0.499 0.477 0.355 0.457 0.6206 0.428 0.507 0.78116 0.583 0.268
2594.475 0.344 0.382 0.287 0.427 0.507 0.597 0.6177 0.495 0.505 0.587
2613.765 0.71986 0.72128 0.6054 0.659 0.71175 0.6496 0.6469 0.8375 1.0256 0.71429
2633.055 0.494 0.6555 0.6837 0.703245 0.6455 0.6626 0.558 0.38 0.411 0.37
2652.345 0.544 0.6377 0.544 0.525 0.507 0.549 0.402 0.402 0.417 0.383
2671.634 0.591 0.6811 0.568 0.414 0.6234 0.71277 0.68855 0.8419 0.9759 0.8648
2690.924 0.576 0.509 0.528 0.6526 0.6382 0.503 0.572 0.7828 0.77418 0.6201
2710.214 0.671 0.6823 0.589 0.552 0.6267 0.6517 0.6435 0.6015 0.364 0.167
2729.504 0.301 0.46 0.403 0.537 0.6302 0.6334 0.9106 0.941 0.6538 0.47
2748.794 0.465 0.514 0.54 0.435 0.356 0.34 0.487 0.586 0.421 0.56
2768.083 0.6179 0.577 0.71448 0.524 0.673 0.981 0.77747 0.74635 0.7661 0.70372
2787.373 0.663 0.6226 0.73342 0.75805 0.623 0.46 0.351 0.175 0.278 0.366
2806.663 0.324 0.369 0.283 0.415 0.597 0.6103 0.525 0.53 0.806 0.71728
2825.953 0.4 0.47 0.8563 0.9865 0.75863 0.6654 0.549 0.602 0.73944 0.9336
2845.242 0.6734 0.497 0.7139 0.6336 0.75931 0.8917 0.6833 0.501 0.6531 0.6717
2864.532 0.506 0.551 0.76496 0.8344 0.6615 0.74275 0.6438 0.324 0.518 0.8546
2883.822 1.0247 0.9837 0.6246 0.533 0.55 0.353 0.124 0.497 0.8604 0.56
2903.112 0.7649 1.0596 1.0156 0.8734 0.6848 0.464 0.379 0.574 0.8233 0.7658
2922.401 0.77063 0.948 0.73326 0.462 0.38 0.529 0.543 0.526 0.564 0.672
2941.691 0.9519 1.1101 0.8308 0.44 0.378 0.55 0.6723 0.6201 0.9308 0.73246
2960.981 0.352 0.426 0.466 0.542 0.73778 0.69066 0.323 0.277 0.584 0.6097
2980.271 0.387 0.575 0.76688 0.6058 0.6667 0.76454 0.8128 0.8748 0.6511 0.533
2999.561 0.496 0.481 0.6583 1.0499 1.0611 0.75998 0.7976 0.8281 0.486 0.332
3018.850 0.6085 0.435 0.098 0.486 0.74609 0.508 0.481 0.6779 0.8293 0.515
3038.140 0.35 0.6041 0.596 0.541 0.594 0.6844 0.75762 0.9406 0.9257 0.586
3057.430 0.594 0.9421 1.1011 1.0901 0.95 0.78879 0.999 1.2138 1.0954 1.0305
3076.720 1.2081 1.1032 1.1493 1.3931 1.4065 1.4279 1.3936 1.2525 1.6218 1.757
3096.009 1.6674 1.837 1.817 1.867 1.6936 1.2432 1.0648 1.3512 1.2066 0.8343
3115.299 0.449 0.373 0.74043 0.79023 0.535 0.521 0.512 0.6048 0.75376 0.6126
3134.589 0.6372 0.42 0.461 0.702077 0.498 0.606 0.8724 0.7457 0.8515 0.8365
3153.879 0.559 0.559 0.76848 0.8263 0.8016 0.374 0.398 0.705764 0.588 0.8118
3173.169 1.0889 1.0548 0.8417 0.72124 0.58 0.6397 0.7976 0.907 0.583 0.44
3192.458 0.535 0.6043 0.441 0 0.214 0.443 0.429 0.75392 0.73864 0.486
3211.748 0.71816 0.7658 0.69076 0.6364 0.536 0.6023 0.352 0.312 0.78135 0.9789
3231.038 0.8327 0.6277 0.6666 0.77107 0.7818 0.9296 0.7921 0.57 0.523 0.257
3250.328 0.273 0.472 0.584 0.6404 0.589 0.6296 0.577 0.8482 0.76866 0.6698
3269.617 0.671 0.511 0.6392 0.76397 0.75712 0.53 0.417 0.375 0.6131 0.8667
3288.907 0.526 0.398 0.74487 0.9558 1.2281 0.9715 0.515 0.504 0.6321 0.9669
3308.197 0.9755 0.73164 0.79499 0.78054 0.74132 0.8513 0.9084 0.8381 0.76623 0.696366
3327.487 0.6696 0.73935 0.511 0.38 0.662 0.881 0.6568 0.267 0.435 0.8819
3346.777 0.701119 0.208 0.317 0.75722 0.546 0.399 0.538 0.305 0.472 0.6019
3366.066 0.70726 0.9802 1.1133 1.0168 0.541 0.276 0.446 0.533 0.8845 1.3082
3385.356 1.1804 1.2051 0.9255 0.6747 0.76386 0.6019 0.516 0.526 0.486 0.6083
3404.646 0.6418 0.548 0.492 0.342 0.5989 0.6822 0.458 0.47 0.69023 0.569
3423.936 0.279 0.244 0.379 0.492 0.552 0.499 0.312 0.486 0.8693 1.1045
3443.225 0.9562 0.72646 0.578 0.70952 0.69622 0.461 0.6163 0.9669 0.8621 0.697362
3462.515 0.6528 0.73804 0.6239 0.53 0.6289 0.7293 0.656 0.571 0.594 0.6422
3481.805 0.71493 0.453 0.514 0.6169 0.6004 0.973 1.1161 1.0779 1.1828 1.3837
3501.095 1.1913 1.1748 1.2822 1.0802 1.2906 1.3335 1.232 1.3923 1.6519 1.787
3520.385 1.6778 1.4237 1.6385 1.697 1.2156 1.1597 1.1745 1.1944 1.4952 1.416
3539.674 1.5036 1.077 0.699851 1.1048 1.1679 1.0192 0.9755 1.0502 1.6424 2.277
3558.964 2.147 2.447 3.607 4.507 5.887 8.517 11.617 15.067 19.407 24.787
3578.254 29.207 31.677 32.467 31.127 28.527 24.507 18.767 13.307 8.417 5.127
3597.544 3.497 2.287 1.727 1.6075 1.4874 1.2493 1.043 0.9489 0.8021 0.9448
3616.833 1.2 1.3286 1.4902 1.1483 0.8116 1.0714 1.465 1.2857 1.0308 0.8204
3636.123 0.419 0.435 0.536 0.70991 0.9566 0.8383 1.213 1.3746 1.1145 1.1244
3655.413 0.6555 0.6421 1.0557 1.0208 0.8965 0.71251 0.406 0.289 0.6354 0.78379
3674.703 0.267 0.511 1.0444 0.79219 1.1937 1.235 0.434 0.313 0.559 0.78187
3693.993 0.9983 0.9115 0.72974 0.9051 0.9631 0.8839 0.457 0.331 0.8849 0.8916
3713.282 0.6398 0.6748 0.6697 0.547 0.479 0.6797 0.8761 0.9298 0.9996 0.9712
3732.572 0.9278 0.9289 1.0226 0.8902 0.6843 0.70927 0.8188 0.868 0.6508 0.6403
3751.862 0.9288 0.965 0.638 0.595 0.72595 0.8343 0.74301 0.509 0.6853 0.9933
3771.152 1.2295 1.0936 0.583 0.443 0.358 0.054 0.4 0.539 0.5998 0.72325
3790.441 0.74691 0.7546 0.319 0.224 0.397 0.578 1.0096 0.9946 0.71157 0.8578
3809.731 0.6831 0.078 0.034 0.491 0.6145 0.499 0.451 0.403 0.506 0.6759
3829.021 0.428 0.53 0.74614 0.6398 1.1672 0.9939 0.541 0.8649 0.79465 0.549
3848.311 0.606 0.70846 0.73305 0.58 0.551 0.565 0.413 0.6869 1.2499 1.0181
3867.601 0.76136 0.78728 1.2308 1.6231 1.0914 0.77259 0.6273 0.489 0.661 0.6304
3886.890 0.77914 0.8703 0.8032 1.1462 1.0027 0.9373 0.8713 0.6291 0.7856 0.832
3906.180 0.6392 0.6804 0.525 0.505 0.9864 1.0629 1.1097 1.0569 1.0126 0.71668
3925.470 0.276 0.79216 1.2836 1.4254 1.4108 1.1277 0.72496 0.6374 0.70722 1.0095
3944.760 0.9518 0.596 1.0535 1.0953 0.7612 0.76042 0.8644 0.706631 0.79047 0.7972
3964.049 0.769 0.8672 0.83 0.8535 1.1524 1.3104 1.0929 0.8649 0.386 0.557
3983.339 1.0918 0.9738 0.71649 0.6045 0.515 0.79383 1.2696 1.0169 0.9903 1.2546
##END=
