##TITLE=2,3,4-Trifluorobenzaldehyde
##JCAMP-DX=4.24
##DATA TYPE=INFRARED SPECTRUM
##ORIGIN=EPA-IR VAPOR PHASE LIBRARY
##OWNER=SRD/NIST
Collection (C) 2018 copyright by the U.S. Secretary of Commerce
on behalf of the United States of America. All rights reserved.
##CAS REGISTRY NO=161793-17-5
##MOLFORM=C 7 H 3 F 3 O
##$NIST SOURCE=MSDC-IR
##STATE=gas
##XUNITS=1/CM
##YUNITS=ABSORBANCE
##XFACTOR=1.
##YFACTOR=0.001
##DELTAX=1.92898
##FIRSTX=549.8
##LASTX=4000.7
##FIRSTY=3.15
##MAXX=4000.7
##MINX=549.759
##MAXY=0.03906
##MINY=0
##NPOINTS=1790
##XYDATA=(X++(Y..Y))
549.759 3.15 3.53 3.13 3.28 2.53 1.57 1.195 1.4367 1.6619 1.8627
569.049 1.978 1.4212 1.38413 2.1477 1.8452 2.1183 3.09 2.32 2.1819 3.29
588.339 3 2.44 3.08 3.33 3.09 3.76 3.97 3.52 3.01 2.2912
607.628 2.2789 2.48 2.54 2.38 2.57 2.54 2.99 3.54 3.11 2.77
626.918 2.2554 2.0139 2.45 2.82 3.21 4.01 4.58 4.55 3.85 3.9
646.208 3.76 3.14 3.27 3.84 4.32 3.85 3.39 3.69 3.77 3.36
665.498 3.42 3.63 3.6 3.23 3.49 3.27 2.1823 2.2137 3.01 3.1
684.787 2.51 1.9192 2.0046 2.89 2.7 2.1763 2.1723 1.9889 1.5209 1.7097
704.077 2.2836 1.8603 2.73 3.89 4.28 4.43 3.96 4.15 4.37 4.04
723.367 4.1 4.46 4.08 4.43 3.59 2.1576 2.52 2.52 2.51 2.75
742.657 2.83 2.69 2.79 3.42 3.24 2.59 2.63 3.09 3.96 4
761.947 3.68 4.6 6.02 7.43 8.93 10.18 10.89 11.45 12.57 12.57
781.236 11.6 11.54 10.52 8.77 7.27 6.18 5.74 6.13 6.3 6.4
800.526 7.33 8.35 9.28 9.73 9.06 8.74 9.99 11 10.77 8.77
819.816 7.18 6.29 5.61 5.25 4.08 3.14 3.05 2.7 1.9966 2.209
839.106 2.38 1.7067 1.31522 1.6433 1.5197 1.6063 1.5593 1.032 1.2073 1.4405
858.395 0.976 0.809 1.998 2.76 2.45 2.2946 2.1219 1.5544 0.71 0.889
877.685 1.994 2.0428 1.7596 1.3666 1.107 1.7546 1.9004 1.4927 1.4862 1.9111
896.975 1.8155 1.7681 2.1398 1.6419 1.186 1.5647 1.7828 1.2462 1.014 1.6228
916.265 1.9833 2.0057 1.8412 1.883 2.0073 2.0806 1.8971 1.6037 1.7178 2.1382
935.555 2.95 2.86 2.96 3.47 2.94 3.08 3.16 2.8 3.09 3.03
954.844 3.1 3.42 3.28 2.75 2.0295 1.6978 1.901 1.5077 1.35116 1.8451
974.134 1.6894 1.8509 1.8979 1.5526 2.1151 2.43 1.9998 1.7774 1.89 1.9247
993.424 1.4832 1.6326 2.75 3.17 2.1746 2.1336 2.61 2.94 2.95 3.87
1012.714 4.85 4.75 5.02 5.09 6.59 8.03 9.9 12.13 14.23 17.05
1032.003 19.97 23.91 26.16 26.59 26.32 25.38 25.22 24.74 22.82 20.34
1051.293 16.62 12.37 9.53 8.96 9 8.04 7.44 6.73 5.52 5.65
1070.583 6.37 6.37 6.02 4.63 4.18 4.06 3.89 3.51 3.47 2.94
1089.873 0.791 0.344 0.481 1.5842 2.2421 1.9261 2.2513 2.54 3.82 3.16
1109.163 1.7154 3.12 2.64 1.9694 3.1 1.7382 1.3034 3.18 2.1684 2.1974
1128.452 4.61 4.12 4.06 4.94 4.07 2.97 3.38 4.48 5.4 5.92
1147.742 7.48 9.49 9.2 10.17 12.01 12.77 12.58 11.22 11.66 12.17
1167.032 11.56 10.63 8.4 6.26 4.88 4.01 4.37 4.68 4.25 3.65
1186.322 2.89 4.22 4.55 4.08 4.18 4.41 5.55 5.2 4.94 5.17
1205.611 5.21 5.84 5.47 5.62 6.67 5.79 5.27 7.3 8.27 6.36
1224.901 5.76 5.39 5.21 5.23 5.95 6.46 5.41 5.89 6.29 6.32
1244.191 6.88 8.04 9.43 10.17 11.31 13.78 15.41 16.44 17.9 18.6
1263.481 19.23 19.86 19.91 19.66 19.71 19.29 19.23 19.81 21 21.87
1282.771 21.58 21.98 22.32 22.75 23.8 25.64 27.75 29.91 32.63 35.47
1302.060 37.71 38.93 39.06 38.33 36.76 33.81 29.64 24.67 19.24 14.24
1321.350 10.46 8.03 6.56 5.73 5.21 4.71 4.26 3.73 3.58 3.66
1340.640 3.44 3.25 3.15 3.03 3.15 3.18 3.03 2.8 2.48 2.46
1359.930 2.45 2.45 2.53 2.51 2.34 2.2212 2.1968 2.47 2.8 2.86
1379.219 2.88 3.1 3.49 4.32 5.45 6.36 7.57 8.93 9.57 9.35
1398.509 8.79 8.68 9.24 9.16 8.2 7.24 6.17 5.19 4.58 4.06
1417.799 3.64 3.46 3.34 3.08 2.87 2.72 2.91 3.14 3.24 3.2
1437.089 3.39 3.65 3.89 4.27 4.42 4.82 5.31 6.01 6.87 7.64
1456.378 8.4 9.44 10.93 12.81 15.01 17.37 19.73 21.88 23.63 24.69
1475.668 24.7 24.16 23.77 24.13 24.09 22.29 19.51 16.82 15.49 15.33
1494.958 15.52 16.57 18.4 20.6 23.69 26.96 29.74 32.18 33.52 33.77
1514.248 33.46 32.66 30.71 27.29 22.6 18.17 14.53 11.85 9.73 8.12
1533.538 6.77 6.05 5.97 5.5 5.11 4.99 4.64 4.61 4.78 4.54
1552.827 4.36 4.65 4.81 4.76 5.22 5.66 5.83 6.29 7.02 7.57
1572.117 7.84 8.01 8.49 8.81 8.76 8.91 9.15 8.99 9.04 9.68
1591.407 10.06 10.39 11.42 12.78 13.82 14.75 15.86 16.89 18.18 19.44
1610.697 20.83 22.28 23.42 24.67 25.44 25.49 24.71 23.89 23.32 21.66
1629.986 19.72 17.76 15.34 13.43 11.72 9.9 8.45 7.34 6.47 5.72
1649.276 5.26 4.96 4.63 4.53 4.41 4.28 4.36 4.52 4.28 4.28
1668.566 4.32 4.25 4.36 4.33 4.1 4.01 4.08 4.3 4.9 5.46
1687.856 5.88 6.44 7.48 8.74 10.62 13.4 16.73 20.39 23.58 26.81
1707.146 28.9 30.28 31.36 31.65 32.06 31.83 30.03 28.08 26.33 24.95
1726.435 24.31 23.63 22.44 21.3 20.11 18.61 16.76 14.48 11.71 9.29
1745.725 7.6 6.39 5.59 5.06 4.61 4.26 4.29 4.26 3.93 3.44
1765.015 2.98 2.81 2.8 2.6 2.44 2.39 2.34 2.2437 2.1596 2.1121
1784.305 2.1433 2.43 2.5 2.2442 2.2109 2.43 2.51 2.4 2.1047 2.0419
1803.594 2.2831 2.35 2.1803 2.0822 2.0796 1.7956 1.8343 1.9516 1.717 1.7249
1822.884 1.7323 1.5979 1.73 1.7523 1.7951 1.814 1.5861 1.8292 1.9189 1.6245
1842.174 1.4189 1.33381 1.4071 1.6774 1.8235 1.8377 1.7285 1.5113 1.6501 1.8109
1861.464 1.6942 1.5912 1.6724 1.7275 1.6643 1.5265 1.722 1.941 1.7788 1.6954
1880.754 1.6904 1.7547 1.9401 1.8853 1.9676 2.1041 2.0284 2.0319 1.9757 1.9205
1900.043 1.837 2.1239 2.0462 1.6288 1.7955 1.7691 1.6841 1.7062 1.554 1.5359
1919.333 1.5491 1.4891 1.5362 1.4655 1.39393 1.436 1.4257 1.4448 1.4598 1.5074
1938.623 1.6325 1.6552 1.4182 1.33078 1.6365 1.7547 1.6806 1.6661 1.5865 1.5191
1957.913 1.4977 1.4696 1.4606 1.5239 1.7293 1.8298 1.4875 1.33064 1.2648 1.35988
1977.202 1.5668 1.5246 1.36342 1.5479 1.7892 1.7513 1.6038 1.6083 1.742 1.728
1996.492 1.7084 1.5682 1.5899 1.5979 1.519 1.5805 1.6707 1.68 1.4314 1.2861
2015.782 1.411 1.481 1.6144 1.7754 1.9373 1.7258 1.4369 1.5723 1.6913 1.6745
2035.072 1.5591 1.5525 1.539 1.2247 1.175 1.279 1.35269 1.4942 1.37044 1.279
2054.362 1.35997 1.5044 1.4881 1.4121 1.34018 1.2793 1.462 1.4479 1.32892 1.39785
2073.651 1.4806 1.4965 1.5426 1.4062 1.157 1.007 1.033 1.07 1.101 1.34035
2092.941 1.4348 1.32844 1.29091 1.2044 1.32313 1.4626 1.39081 1.4594 1.593 1.6211
2112.231 1.4324 1.2538 1.095 1.071 1.061 1.067 1.2879 1.37721 1.33345 1.114
2131.521 0.993 1.076 1.082 0.995 1.2377 1.4606 1.2657 1.2792 1.29445 1.2881
2150.810 1.3684 1.38462 1.36615 1.38118 1.434 1.191 1.08 1.4417 1.4518 1.35355
2170.100 1.5567 1.5857 1.4204 1.2861 1.5735 1.7553 1.3501 1.2049 1.4124 1.5644
2189.390 1.38646 1.186 1.4217 1.6333 1.7595 1.7337 1.4941 1.36347 1.154 1.2403
2208.680 1.4909 1.34394 1.4354 1.5265 1.3181 1.29577 1.33537 1.35956 1.5515 1.4327
2227.970 1.134 1.34188 1.5896 1.5125 1.2218 1.047 1.057 1.088 1.2156 1.2202
2247.259 1.156 1.32465 1.2448 1.14 1.2076 1.133 1.183 1.132 1.255 1.4065
2266.549 1.32603 1.33347 1.2622 1.2436 1.3923 1.36815 1.35379 1.4198 1.2121 1.192
2285.839 1.33356 1.18 1.124 0.993 1.157 1.6282 1.7431 1.4806 1.2632 1.4773
2305.129 1.6108 1.6435 1.5494 1.6069 1.499 1.30324 1.5678 1.4473 1.2426 1.31831
2324.418 1.2165 1.075 1.32505 1.33833 1.147 1.149 1.192 1.287 1.4413 1.33197
2343.708 1.045 0.926 1.175 1.6352 1.6935 1.36395 1.211 1.31897 1.4472 1.2884
2362.998 0.964 1.072 1.2731 1.2895 1.123 0.867 1.007 1.086 1.105 1.048
2382.288 1.014 1.5266 1.4438 1.2893 1.2878 1.08 0.949 0.932 0.989 1.041
2401.578 1.072 1.036 1.094 1.169 1.139 1.008 1.198 1.2037 0.968 1.16
2420.867 1.2315 1.29545 1.29693 1.088 0.902 0.896 1.271 1.5302 1.43 1.021
2440.157 1.066 1.36514 1.2554 1.2558 1.7831 1.957 1.7338 1.6908 1.7439 1.8014
2459.447 1.7892 1.803 1.765 1.4535 1.4157 1.5363 1.39157 1.199 1.2673 1.39641
2478.737 1.2892 1.4953 1.631 1.5632 1.7277 1.714 1.4264 1.38288 1.38102 1.33016
2498.026 0.976 0.971 1.015 0.785 1.102 1.5727 1.7745 1.8767 1.983 1.8067
2517.316 1.4242 1.4558 1.5699 1.34625 1.006 1.211 1.6129 1.4103 1.5661 1.6175
2536.606 1.4718 1.4828 1.2554 1.431 2.0109 1.7078 1.139 1.30349 1.6577 1.8089
2555.896 1.5639 1.4392 1.39105 1.6177 1.6289 1.34796 1.2246 1.087 1.37324 1.8405
2575.186 1.9675 1.678 1.5923 1.9536 1.8001 1.6073 1.4948 1.245 1.5186 1.5516
2594.475 1.4393 1.30664 1.155 1.4022 1.5288 1.5884 1.597 1.8397 1.6447 0.991
2613.765 1.189 1.083 0.949 1.3345 1.5135 1.119 1.30442 1.5288 1.177 1.32353
2633.055 1.11 0.737 1.145 1.4391 1.224 1.2705 1.2076 1.2063 0.933 0.909
2652.345 1.2675 1.135 1.34512 1.5849 1.5717 1.4802 1.38287 1.2604 0.913 0.78
2671.634 1.183 1.4538 1.38688 1.2448 1.12 1.129 1.525 1.6515 1.32535 1.31109
2690.924 1.432 1.798 1.7786 1.6248 2.0182 1.9343 1.5117 1.5307 1.8263 1.7847
2710.214 1.7975 2.0409 2.0453 2.0829 2.1207 2.44 2.66 2.7 2.66 2.3
2729.504 2.2952 2.53 2.53 2.42 2.1549 1.9074 1.9023 2.43 2.53 2.2258
2748.794 2.049 1.9231 2.47 3.12 3.57 3.64 3.74 4.16 4.44 4.33
2768.083 4.3 4.71 4.51 4.06 3.65 2.81 2.38 2.54 2.32 1.7456
2787.373 1.8725 1.7995 1.5329 1.4261 1.2172 1.34247 1.8933 2.39 1.8894 1.8172
2806.663 1.8343 1.6972 1.8561 2.1213 2.49 2.36 2.0763 1.9568 2.0069 2.38
2825.953 2.88 2.57 2.42 2.59 2.39 1.9992 1.9173 2.1086 2.52 3.17
2845.242 3.9 4.22 4.5 5.44 6.59 6.97 7.35 7.81 7.9 8.2
2864.532 7.97 7.62 7.19 6.76 6.23 5.64 5.22 5.07 4.96 4.59
2883.822 4.11 3.67 3.41 3.07 2.81 2.58 2.3 1.6843 1.5966 1.8363
2903.112 1.5298 1.2772 1.4017 1.4734 1.4029 1.109 1.034 1.5825 1.2621 1.172
2922.401 1.7759 1.5109 1.35011 1.2039 1.077 1.5283 1.6839 1.8281 1.5591 1.37018
2941.691 1.7662 1.5135 1.2154 1.37816 1.34973 1.034 1.056 1.018 0.898 0.891
2960.981 1.39816 1.7179 1.34449 1.2301 0.891 0.855 1.09 1.30077 0.981 0.684
2980.271 0.894 1.171 1.108 1.056 0.939 0.817 1.19 0.955 0.914 1.011
2999.561 1.1 1.37449 1.36587 1.061 1.01 0.916 0.662 1.058 1.8686 1.5503
3018.850 0.927 1.027 1.131 1.4374 1.693 1.459 1.109 1.18 1.073 1.4609
3038.140 2.1633 1.9313 1.34264 1.5779 1.8258 1.5028 1.2157 1.2325 1.5677 1.265
3057.430 0.927 1.2891 1.4545 1.492 1.29325 1.139 1.2352 1.29742 1.051 1.37103
3076.720 1.7316 1.36766 1.2753 1.082 0.998 0.937 1.4864 1.6626 1.38872 1.9646
3096.009 1.8743 1.526 1.5216 1.078 0.888 1.182 1.112 1.043 1.176 1.5527
3115.299 1.4157 1.2016 1.6002 1.38043 1.32026 1.32904 1.31006 1.152 0.789 1.168
3134.589 1.2741 1.189 1.2223 1.36608 1.163 0.609 0.421 0.704 1.108 1.136
3153.879 0.924 0.948 1.008 1.088 1.36532 1.146 0.757 1.213 1.6918 1.125
3173.169 1.17 1.4493 0.991 1.4032 1.9343 1.9705 1.7219 1.4279 1.4416 1.7324
3192.458 1.7057 1.5862 1.7208 0.903 0.442 0.814 1.025 0.749 0.681 0.579
3211.748 0.496 0.892 1.034 1.38292 2.0034 1.8988 1.451 1.4578 1.173 0.969
3231.038 1.2482 1.6142 1.4795 1.17 1.204 1.4146 0.921 0.608 0.975 1.064
3250.328 1.30345 1.8929 1.9722 1.4651 1.31983 0.933 1.021 1.38433 1.037 1.085
3269.617 1 0.522 0.499 0.768 0.645 0.448 0.818 1.088 1.37543 1.4484
3288.907 1.33559 1.11 1.3152 1.38226 0.981 1.192 0.877 0.27 0 0.575
3308.197 1.1 0.72 0.801 0.751 1.2595 1.8158 1.139 0.985 1.4858 1.6986
3327.487 1.7861 1.2334 1.025 1.5129 1.6128 1.6507 1.5181 1.5654 1.5603 1.33769
3346.777 0.947 1.263 1.4983 0.991 1.16 1.4882 1.4017 1.5077 1.075 0.329
3366.066 0.71 1.2567 1.164 1.39192 1.4156 0.816 0.962 1.39873 1.2451 1.4476
3385.356 1.2675 0.555 0.694 0.99 1.4768 2.1479 1.7709 0.963 0.941 1.6437
3404.646 2.1901 2.2757 1.7225 1.162 1.7895 2.2578 1.9854 1.4328 1.30379 1.8566
3423.936 1.9898 1.9677 2.52 1.8172 0.986 1.082 1.455 1.9371 2.168 2.0916
3443.225 1.30204 0.504 0.9 1.6895 1.36074 1.068 1.5063 2.43 2.82 1.8752
3462.515 1.4249 1.2633 1.224 1.748 1.5665 1.6243 1.5023 0.777 0.575 0.453
3481.805 0.563 0.852 1.131 1.3653 1.7224 1.7001 1.15 0.949 1.103 1.2103
3501.095 1.108 0.861 0.716 1.4036 1.8332 1.9481 2.0799 1.8039 1.6528 1.6194
3520.385 1.2759 1.072 1.36093 1.4438 1.029 0.507 0.648 0.832 0.852 1.116
3539.674 1.716 2.285 1.9658 1.466 1.2484 1.6696 1.532 1.48 1.8811 1.6843
3558.964 1.6262 1.34009 1.34593 1.6977 1.8054 1.39396 0.967 0.799 0.866 1.055
3578.254 1.34676 1.055 0.794 0.631 0.543 0.882 0.739 0.998 1.2408 1.762
3597.544 2.0213 1.38129 1.131 1.4062 1.7772 1.37652 1.058 1.35648 1.063 0.988
3616.833 1.229 1.2239 1.7893 1.9254 1.8399 2.0845 2.0998 1.7306 1.5373 1.5338
3636.123 1.061 0.971 1.5565 1.6953 1.7818 2.0149 1.7132 1.4399 1.5713 1.6231
3655.413 1.2748 1.158 1.2508 0.973 1.12 1.4034 1.2118 1.2179 1.2827 1.5868
3674.703 1.5654 1.31297 1.091 1.11 1.39494 1.4062 1.4238 1.127 1.30971 1.8958
3693.993 1.5055 1.285 1.9208 2.1785 1.7065 1.2666 1.129 1.17 1.33707 1.5032
3713.282 1.019 0.705 1.121 1.38542 1.2448 1.199 1.5007 1.5576 1.34727 1.2586
3732.572 1.16 1.36322 1.5773 1.4688 1.30592 0.911 0.11 0.683 1.6578 1.7433
3751.862 1.2765 1.141 1.4516 1.2274 1.051 1.068 1.33315 1.14 1.137 1.223
3771.152 1.2003 1.199 0.934 1.2467 1.35062 0.685 0.805 1.5345 1.9848 1.5963
3790.441 0.928 0.937 1.056 1.1 1.2103 1.2889 1.2448 1.4261 1.5035 0.802
3809.731 0.991 1.491 1.4451 1.075 0.429 0.773 1.3557 1.628 1.6547 1.4588
3829.021 1.7053 1.6795 1.4105 1.6709 1.8811 1.8581 1.82 1.5937 0.703 0.14
3848.311 0.29 0.615 0.941 0.731 0.47 0.713 0.928 0.433 0.567 0.88
3867.601 1.115 1.8575 1.5809 0.833 0.606 0.596 0.704 0.959 0.968 0.713
3886.890 0.904 0.99 1.099 1.5158 1.4509 1.9015 2.2119 1.6676 1.6111 2.0945
3906.180 1.5857 1.2108 1.29097 1.6981 1.8766 1.5626 1.172 0.991 1.5531 1.35755
3925.470 1.2083 1.5095 1.9596 1.8694 1.37585 1.4772 1.07 0.556 1.17 1.2604
3944.760 0.82 0.89 1.2808 1.2732 1.39645 1.7436 1.5663 0.945 0.585 1.5611
3964.049 1.8431 1.5019 1.005 0.712 1.178 1.167 1.36089 1.6632 2.1026 2.0005
3983.339 1.4052 1.4493 1.5206 1.4424 1.6847 1.4709 0.797 0.79 1.36252 1.6919
##END=
