##TITLE=Ethoxycarbonyl isothiocyanate
##JCAMP-DX=4.24
##DATA TYPE=INFRARED SPECTRUM
##ORIGIN=EPA-IR VAPOR PHASE LIBRARY
##OWNER=SRD/NIST
Collection (C) 2018 copyright by the U.S. Secretary of Commerce
on behalf of the United States of America. All rights reserved.
##CAS REGISTRY NO=16182-04-0
##MOLFORM=C 4 H 5 N O 2 S
##$NIST SOURCE=MSDC-IR
##STATE=gas
##XUNITS=1/CM
##YUNITS=ABSORBANCE
##XFACTOR=1.
##YFACTOR=0.001
##DELTAX=1.92898
##FIRSTX=549.8
##LASTX=4000.7
##FIRSTY=1.455
##MAXX=4000.7
##MINX=549.759
##MAXY=0.889995
##MINY=0
##NPOINTS=1790
##XYDATA=(X++(Y..Y))
549.759 1.455 1.495 1.3672 1.385 1.435 1.425 1.1468 1.3676 1.445 1.2529
569.049 1.635 2.135 2.455 2.395 2.365 2.655 2.925 2.845 2.865 2.785
588.339 3.035 3.355 3.435 3.785 4.245 4.545 4.645 4.875 5.105 5.135
607.628 5.105 5.285 5.665 6.045 6.395 6.765 6.995 7.405 7.805 8.075
626.918 8.495 8.665 9.145 9.835 10.155 10.405 10.785 11.115 11.385 11.465
646.208 11.335 11.325 11.065 10.725 10.205 9.545 9.025 8.495 7.805 7.065
665.498 6.845 7.245 6.795 5.735 5.275 5.165 5.095 4.975 5.045 5.105
684.787 5.165 5.215 5.165 5.335 5.545 5.795 6.135 6.295 6.475 6.695
704.077 7.025 7.625 8.085 8.355 8.745 9.135 9.705 10.415 11.125 11.935
723.367 12.595 13.365 14.475 15.475 16.495 17.565 18.725 19.945 21.185 22.675
742.657 24.105 25.475 26.765 28.095 29.365 30.635 31.775 32.605 33.435 34.325
761.947 35.435 36.275 37.145 38.075 38.685 39.155 39.305 39.455 39.385 38.935
781.236 38.385 37.665 36.715 35.735 34.895 34.005 32.965 31.865 30.945 30.105
800.526 29.185 28.385 27.415 26.445 26.005 25.825 25.655 25.495 25.905 26.525
819.816 27.085 28.085 29.425 29.925 29.905 29.965 29.495 28.745 27.875 26.565
839.106 24.825 22.925 21.215 19.745 18.325 17.285 16.435 15.605 15.115 14.755
858.395 14.405 14.195 14.025 13.915 13.905 13.635 13.275 13.005 12.695 12.285
877.685 11.785 11.475 10.915 10.355 9.995 9.425 8.935 8.705 8.275 7.985
896.975 7.825 7.605 7.585 7.425 7.115 6.905 6.795 6.545 6.445 6.415
916.265 6.265 6.005 5.925 5.855 5.655 5.435 5.255 5.215 5.055 4.995
935.555 4.975 4.815 4.765 4.775 4.805 4.795 4.865 4.995 4.945 4.875
954.844 4.875 5.055 4.995 4.845 4.915 4.895 5.115 5.255 5.205 5.145
974.134 5.055 5.355 5.675 5.725 5.825 6.015 6.315 6.525 6.895 7.345
993.424 7.765 8.235 8.395 8.635 8.875 9.035 9.395 9.705 10.065 10.395
1012.714 10.435 10.575 10.805 11.035 11.555 12.035 12.435 13.275 14.465 15.655
1032.003 17.205 19.305 21.755 24.845 28.465 32.615 38.175 44.735 52.645 62.485
1051.293 73.965 87.045 101.865 118.325 135.735 153.085 169.245 183.475 194.855 203.585
1070.583 209.535 211.505 209.715 205.165 196.565 185.775 175.045 164.295 154.095 144.815
1089.873 136.785 129.515 122.445 114.535 106.355 98.265 89.925 81.275 72.395 63.285
1109.163 54.395 46.775 40.495 35.595 31.675 28.875 27.495 26.245 24.985 24.415
1128.452 24.295 24.435 24.475 24.685 24.775 25.435 26.695 27.685 28.645 29.525
1147.742 30.645 31.795 32.755 33.945 35.625 37.535 39.295 41.155 43.255 45.425
1167.032 48.305 51.645 54.915 58.995 64.035 69.605 76.355 84.305 93.365 104.165
1186.322 116.955 132.145 149.385 169.475 192.945 219.545 249.775 282.875 317.905 354.355
1205.611 391.975 429.545 465.065 496.085 523.055 545.585 563.315 577.985 589.375 600.275
1224.901 610.215 617.955 624.885 631.675 638.565 645.495 651.495 653.815 649.735 639.845
1244.191 622.765 598.015 565.515 525.095 478.415 428.115 376.405 325.415 277.535 235.085
1263.481 199.205 169.025 144.445 124.905 109.545 97.505 87.925 80.215 73.855 68.515
1282.771 63.955 60.235 57.255 54.805 52.905 51.645 50.755 50.215 49.945 49.675
1302.060 49.385 48.855 47.905 46.535 44.595 42.275 39.735 36.895 33.885 30.705
1321.350 27.725 25.085 22.725 20.665 18.885 17.365 16.145 15.135 14.315 13.685
1340.640 13.145 12.775 12.675 12.865 13.235 13.865 14.885 16.355 18.575 21.765
1359.930 25.995 31.155 36.655 41.325 44.085 44.765 44.175 43.635 43.535 42.015
1379.219 37.665 31.625 25.945 21.925 19.505 18.215 17.705 17.555 17.475 17.425
1398.509 17.355 17.215 16.985 16.675 16.175 15.515 14.775 13.935 13.185 12.535
1417.799 11.945 11.455 11.065 10.795 10.695 10.775 10.935 11.145 11.445 11.855
1437.089 12.375 12.905 13.335 13.775 14.225 14.745 15.325 15.925 16.575 17.205
1456.378 17.865 18.635 19.485 20.475 21.415 22.075 22.435 22.445 22.255 21.935
1475.668 21.315 20.385 19.105 17.605 16.115 14.785 13.675 12.715 11.855 11.105
1494.958 10.415 9.825 9.285 8.795 8.425 8.115 7.725 7.355 7.115 6.885
1514.248 6.585 6.355 6.215 6.015 5.855 5.755 5.605 5.425 5.325 5.235
1533.538 5.135 5.065 5.045 4.905 4.805 4.795 4.765 4.705 4.645 4.565
1552.827 4.565 4.575 4.555 4.505 4.425 4.405 4.425 4.455 4.475 4.495
1572.117 4.625 4.785 4.875 4.975 5.045 5.145 5.295 5.325 5.415 5.595
1591.407 5.695 5.705 5.765 5.825 5.685 5.605 5.685 5.715 5.605 5.405
1610.697 5.255 5.255 5.225 5.105 4.975 4.895 4.925 4.935 4.945 5.005
1629.986 5.035 5.005 5.085 5.235 5.275 5.375 5.475 5.535 5.615 5.775
1649.276 5.895 5.995 6.115 6.265 6.445 6.565 6.745 6.985 7.115 7.265
1668.566 7.495 7.685 7.935 8.175 8.355 8.575 8.935 9.205 9.525 9.815
1687.856 10.025 10.365 10.755 11.175 11.665 12.245 12.855 13.555 14.295 15.135
1707.146 16.075 17.185 18.515 19.985 21.685 23.635 25.765 28.095 30.735 33.605
1726.435 36.715 40.205 44.345 49.125 54.735 61.285 69.085 78.655 90.005 103.615
1745.725 119.735 138.575 160.365 185.555 213.655 243.935 276.015 308.345 340.355 372.055
1765.015 401.795 426.305 443.425 452.245 453.905 449.685 438.725 419.925 392.375 358.115
1784.305 320.615 282.505 246.825 215.235 187.455 162.665 140.605 120.845 103.495 88.355
1803.594 75.405 64.595 55.605 48.125 42.055 37.145 33.195 29.965 27.455 25.465
1822.884 23.865 22.605 21.595 20.825 20.235 19.805 19.445 19.165 19.065 18.995
1842.174 18.995 19.125 19.335 19.525 19.805 20.225 20.715 21.335 22.015 22.775
1861.464 23.655 24.655 25.795 27.045 28.345 29.725 31.265 32.915 34.715 36.675
1880.754 38.715 40.925 43.285 45.685 48.195 50.785 53.585 56.495 59.405 62.405
1900.043 65.435 68.485 71.585 74.795 78.085 81.465 84.975 88.665 92.615 96.805
1919.333 101.365 106.335 111.665 117.455 123.735 130.525 137.675 145.065 152.915 161.235
1938.623 170.005 179.145 188.805 199.235 210.425 222.465 235.835 250.655 266.935 285.055
1957.913 305.395 328.275 353.975 383.005 415.745 453.005 494.795 541.015 591.605 644.925
1977.202 698.935 750.935 797.745 837.955 868.465 886.205 889.995 879.425 855.855 820.275
1996.492 774.375 720.505 661.565 600.675 541.445 486.885 438.265 396.315 361.025 331.795
2015.782 307.915 288.425 272.455 259.395 248.615 239.575 232.055 225.675 220.095 215.185
2035.072 210.695 206.515 202.475 198.315 194.145 190.025 185.815 181.535 177.425 173.605
2054.362 170.085 167.005 164.325 162.095 160.255 158.595 157.045 155.375 153.415 151.055
2073.651 148.015 144.275 139.875 134.825 129.175 123.045 116.675 110.205 103.745 97.435
2092.941 91.345 85.555 80.095 75.145 70.705 66.585 62.975 59.795 56.955 54.525
2112.231 52.365 50.465 48.805 47.305 46.005 44.795 43.625 42.555 41.515 40.445
2131.521 39.445 38.485 37.395 36.365 35.425 34.505 33.515 32.385 31.285 30.225
2150.810 29.135 27.985 26.825 25.735 24.675 23.485 22.335 21.315 20.245 19.105
2170.100 18.135 17.265 16.335 15.495 14.765 14.085 13.445 12.825 12.275 11.845
2189.390 11.515 11.155 10.805 10.595 10.525 10.425 10.315 10.235 10.145 10.085
2208.680 10.045 9.995 10.095 10.155 10.095 10.115 10.085 9.935 9.925 9.905
2227.970 9.805 9.815 9.775 9.685 9.625 9.545 9.405 9.405 9.425 9.345
2247.259 9.305 9.235 9.165 9.115 9.075 9.065 9.045 8.975 8.945 8.895
2266.549 8.775 8.795 8.805 8.665 8.595 8.555 8.405 8.365 8.395 8.335
2285.839 8.355 8.355 8.295 8.325 8.355 8.415 8.445 8.535 8.645 8.685
2305.129 8.785 8.905 8.905 8.895 8.925 8.895 8.915 8.825 8.685 8.505
2324.418 8.365 8.335 8.235 8.015 7.775 7.545 7.405 7.285 7.145 7.125
2343.708 6.995 6.695 6.465 6.465 6.665 6.905 7.085 7.235 7.355 7.435
2362.998 7.415 7.375 7.315 7.215 7.075 6.815 6.575 6.365 6.045 5.805
2382.288 5.595 5.385 5.225 5.125 5.135 5.055 5.045 5.165 5.145 5.185
2401.578 5.265 5.265 5.305 5.355 5.395 5.385 5.395 5.445 5.385 5.335
2420.867 5.355 5.365 5.365 5.305 5.245 5.245 5.255 5.265 5.245 5.135
2440.157 5.195 5.245 5.215 5.255 5.305 5.355 5.365 5.365 5.465 5.475
2459.447 5.325 5.245 5.205 5.235 5.115 4.985 4.895 4.775 4.675 4.585
2478.737 4.495 4.365 4.255 4.085 3.915 3.825 3.785 3.715 3.645 3.535
2498.026 3.405 3.365 3.305 3.235 3.185 3.095 3.095 3.185 3.165 3.095
2517.316 3.105 3.195 3.265 3.375 3.485 3.495 3.545 3.605 3.635 3.705
2536.606 3.765 3.895 4.045 4.045 4.205 4.405 4.495 4.625 4.735 4.945
2555.896 5.135 5.205 5.355 5.555 5.695 5.855 6.035 6.285 6.435 6.575
2575.186 6.775 6.995 7.125 7.235 7.395 7.385 7.305 7.295 7.305 7.255
2594.475 7.125 6.955 6.775 6.635 6.475 6.305 6.305 6.285 6.175 6.205
2613.765 6.245 6.185 6.215 6.275 6.315 6.405 6.515 6.665 6.805 6.815
2633.055 6.765 6.785 6.745 6.695 6.685 6.565 6.355 6.145 5.855 5.445
2652.345 5.095 4.705 4.275 3.875 3.495 3.285 3.035 2.695 2.525 2.395
2671.634 2.205 2.055 2.075 2.035 1.905 1.935 1.875 1.825 1.805 1.745
2690.924 1.735 1.735 1.665 1.775 1.905 1.875 1.795 1.705 1.735 1.795
2710.214 1.775 1.735 1.855 1.895 1.825 1.825 1.905 1.945 1.935 2.065
2729.504 2.105 2.015 2.105 2.245 2.245 2.235 2.265 2.365 2.435 2.465
2748.794 2.555 2.655 2.765 2.805 2.845 3.045 3.175 3.295 3.395 3.405
2768.083 3.465 3.565 3.705 3.845 3.925 3.985 4.045 4.135 4.275 4.395
2787.373 4.445 4.505 4.415 4.375 4.505 4.625 4.775 4.895 5.075 5.175
2806.663 5.375 5.645 5.765 5.915 6.025 6.125 6.325 6.415 6.305 6.305
2825.953 6.375 6.355 6.265 6.095 5.965 5.885 5.785 5.645 5.565 5.465
2845.242 5.335 5.295 5.225 5.225 5.275 5.275 5.275 5.325 5.365 5.375
2864.532 5.425 5.615 5.795 5.835 5.995 6.275 6.515 6.805 7.095 7.505
2883.822 7.795 7.885 8.075 8.335 8.475 8.505 8.645 8.895 9.025 9.135
2903.112 9.335 9.535 9.825 10.215 10.645 10.985 11.265 11.515 11.735 11.895
2922.401 12.035 12.175 12.455 12.825 13.215 13.635 14.345 15.485 16.745 18.065
2941.691 19.195 20.075 20.685 20.915 20.965 20.955 20.685 20.125 19.435 18.785
2960.981 18.225 17.965 18.235 18.975 20.085 21.415 23.145 25.355 27.805 30.685
2980.271 34.365 38.295 41.625 43.975 45.235 45.735 45.565 45.145 44.365 42.395
2999.561 39.445 36.025 32.685 29.845 27.585 25.725 24.035 22.465 20.865 19.305
3018.850 17.875 16.415 14.985 13.545 12.115 10.995 9.985 9.075 8.315 7.535
3038.140 6.855 6.325 5.845 5.375 5.015 4.705 4.555 4.255 3.855 3.595
3057.430 3.455 3.425 3.265 3.075 2.935 2.715 2.525 2.445 2.435 2.375
3076.720 2.245 2.035 2.005 2.035 1.985 1.895 1.685 1.705 1.725 1.545
3096.009 1.505 1.565 1.475 1.3474 1.313 1.425 1.455 1.2889 1.2381 1.2657
3115.299 1.2613 1.2477 1.2778 1.2307 1.2742 1.385 1.333 1.3448 1.3664 1.3079
3134.589 1.2662 1.3214 1.2025 1.099 1.1882 1.1915 1.1979 1.1115 1.0394 0.9897
3153.879 0.8773 0.9476 1.0702 1.0297 0.9252 0.8523 0.8273 0.8654 0.8387 0.8
3173.169 0.8564 0.8376 0.7294 0.6862 0.6521 0.6062 0.6857 0.724 0.7362 0.7559
3192.458 0.7113 0.7158 0.6927 0.678 0.5253 0.38646 0.3638 0.254 0.22 0.3443
3211.748 0.44504 0.38886 0.37134 0.40281 0.5134 0.42365 0.2906 0.3494 0.36986 0.3274
3231.038 0.3076 0.224 0.225 0.3237 0.332 0.2913 0.163 0.067 0.141 0.194
3250.328 0.179 0.153 0.208 0.3019 0.15 0.114 0.155 0.109 0.108 0.235
3269.617 0.2946 0.2912 0.182 0.077 0.142 0.244 0.32 0.165 0.045 0.079
3288.907 0.137 0.3039 0.2919 0.042 0.008 0.086 0.182 0.177 0.109 0.3521
3308.197 0.40051 0.2904 0.2813 0.172 0.016 0 0.254 0.3533 0.199 0.216
3327.487 0.204 0.102 0.162 0.2787 0.266 0.061 0.177 0.2827 0.163 0.122
3346.777 0.102 0.157 0.17 0.194 0.266 0.234 0.122 0.154 0.245 0.213
3366.066 0.222 0.3088 0.3061 0.216 0.22 0.3646 0.376083 0.3297 0.383938 0.3368
3385.356 0.166 0.12 0.232 0.265 0.378078 0.47377 0.3168 0.159 0.127 0.2839
3404.646 0.274 0.251 0.42747 0.45603 0.3155 0.263 0.3322 0.3129 0.5401 0.6238
3423.936 0.46513 0.4787 0.5286 0.45568 0.3809 0.41072 0.4763 0.5115 0.6655 0.6738
3443.225 0.5353 0.5853 0.7231 0.7675 0.6031 0.5721 0.6773 0.7336 0.7062 0.7653
3462.515 0.7363 0.6368 0.7165 0.9334 0.9807 0.8942 0.9564 1.1116 1.3233 1.465
3481.805 1.3442 1.2466 1.3608 1.475 1.755 1.895 2.025 2.155 2.205 2.355
3501.095 2.415 2.465 2.595 2.805 2.815 2.865 2.995 3.095 3.175 3.285
3520.385 3.415 3.405 3.555 3.575 3.595 3.715 3.685 3.545 3.355 3.285
3539.674 3.235 3.035 2.845 2.845 2.685 2.465 2.295 1.955 1.825 1.815
3558.964 1.605 1.385 1.2705 1.2392 1.2175 1.2148 1.1971 1.1192 1.0481 0.9778
3578.254 0.9364 0.8307 0.6767 0.5291 0.569 0.7957 0.6753 0.6648 0.8102 0.6934
3597.544 0.6813 0.5283 0.4909 0.5972 0.5933 0.5804 0.5192 0.5158 0.46726 0.3482
3616.833 0.375023 0.4929 0.4971 0.45423 0.37264 0.42192 0.5001 0.4398 0.39221 0.39747
3636.123 0.378273 0.3364 0.378584 0.3611 0.39731 0.4785 0.5258 0.4811 0.4323 0.4624
3655.413 0.4263 0.43441 0.5519 0.4945 0.5232 0.5089 0.43456 0.4841 0.298 0.3066
3674.703 0.4446 0.3196 0.194 0.2888 0.2864 0.4081 0.5896 0.6239 0.6169 0.5317
3693.993 0.5376 0.4756 0.44371 0.4855 0.6101 0.5125 0.44967 0.5473 0.36843 0.266
3713.282 0.247 0.364 0.44931 0.5086 0.5305 0.5065 0.5893 0.5793 0.5335 0.4693
3732.572 0.46305 0.6735 0.6452 0.5548 0.627 0.6416 0.7507 0.7853 0.6826 0.6365
3751.862 0.5806 0.5467 0.5892 0.5895 0.501 0.41082 0.5957 0.7792 0.7819 0.6731
3771.152 0.6648 0.7495 0.7761 0.9037 0.9098 0.8558 0.8657 0.8417 0.7958 0.8749
3790.441 0.7973 0.7953 0.8957 0.8632 0.9092 0.884 0.9738 1.112 0.998 1.0215
3809.731 1.1036 1.131 1.2659 1.3641 1.2351 1.2189 1.3289 1.2919 1.2984 1.445
3829.021 1.485 1.3099 1.3426 1.515 1.505 1.435 1.415 1.575 1.725 1.555
3848.311 1.435 1.595 1.745 1.805 1.795 1.765 1.755 1.735 1.835 1.825
3867.601 1.855 1.965 1.965 1.845 1.935 2.015 1.945 2.045 2.095 2.085
3886.890 2.145 2.155 2.115 2.335 2.465 2.265 2.215 2.385 2.395 2.335
3906.180 2.335 2.405 2.415 2.475 2.745 2.845 2.715 2.735 2.915 2.875
3925.470 2.845 2.905 2.975 2.975 2.995 2.995 3.075 3.225 3.135 3.175
3944.760 3.315 3.365 3.255 3.205 3.225 3.145 3.095 3.105 3.055 2.965
3964.049 3.095 3.095 3.065 3.095 3.075 3.105 3.035 2.965 2.925 2.845
3983.339 2.875 3.185 3.225 2.925 2.995 3.075 2.975 2.875 2.805 2.885
##END=
