##TITLE=2,5-Dimethylphenylacetonitrile
##JCAMP-DX=4.24
##DATA TYPE=INFRARED SPECTRUM
##ORIGIN=EPA-IR VAPOR PHASE LIBRARY
##OWNER=SRD/NIST
Collection (C) 2018 copyright by the U.S. Secretary of Commerce
on behalf of the United States of America. All rights reserved.
##CAS REGISTRY NO=16213-85-7
##MOLFORM=C 10 H 11 N
##$NIST SOURCE=MSDC-IR
##STATE=gas
##XUNITS=1/CM
##YUNITS=ABSORBANCE
##XFACTOR=1.
##YFACTOR=0.001
##DELTAX=1.92898
##FIRSTX=549.8
##LASTX=4000.7
##FIRSTY=1.741
##MAXX=4000.7
##MINX=549.759
##MAXY=0.032181
##MINY=0
##NPOINTS=1790
##XYDATA=(X++(Y..Y))
549.759 1.741 1.431 1.2661 1.0138 0.7805 0.4748 0.229 0.4103 0.6252 0.624
569.049 0.836 0.8073 0.6128 0.6968 0.861 0.8423 0.5642 0.6541 0.7526 0.5506
588.339 0.5522 0.44447 0.329 0.38558 0.5155 0.7785 0.8592 0.8869 0.9876 0.8669
607.628 0.7608 0.7095 0.7275 0.7259 0.8609 0.964 1.0371 1.2035 1.391 1.431
626.918 1.451 1.621 1.681 1.481 1.3294 1.521 1.481 1.3122 1.0922 0.97
646.208 1.0249 1.0495 1.1114 1.0265 0.6758 0.5272 0.8004 0.8096 0.5347 0.42769
665.498 0.573 0.8871 0.9156 0.757 0.5616 0.46007 0.6613 0.7468 0.7395 0.8294
684.787 0.7531 0.7796 0.8362 0.9194 1.1381 1.1262 1.0643 1.1559 1.3111 1.481
704.077 1.631 1.501 1.461 1.701 1.631 1.411 1.421 1.371 1.1723 1.08
723.367 1.1365 1.1974 1.2167 1.236 1.309 1.316 1.3589 1.381 1.2728 1.2702
742.657 1.481 1.751 1.851 1.831 1.991 2.191 2.321 2.351 2.331 2.321
761.947 2.231 2.131 1.971 1.851 1.811 1.751 1.531 1.511 1.551 1.671
781.236 2.031 2.461 3.021 3.641 4.721 6.161 7.911 9.831 11.611 13.621
800.526 15.631 18.061 21.321 25.321 27.311 24.081 19.521 17.001 15.471 13.841
819.816 11.661 9.331 7.281 5.581 4.181 3.211 2.611 2.281 1.991 2.001
839.106 2.001 1.891 1.871 1.621 1.601 1.751 1.851 2.281 2.421 2.501
858.395 2.661 2.851 3.341 3.671 3.811 3.891 3.981 3.991 3.841 3.601
877.685 3.441 3.041 2.681 2.461 2.131 1.911 1.701 1.661 1.581 1.3458
896.975 1.471 1.511 1.521 1.561 1.561 1.671 1.721 1.751 1.731 1.921
916.265 2.101 2.061 2.061 2.031 2.031 2.051 1.941 1.871 1.911 1.901
935.555 1.851 1.851 1.921 1.921 1.851 1.961 2.111 2.191 2.011 1.571
954.844 1.471 1.451 1.551 1.561 1.371 1.288 1.2819 1.2803 1.1226 1.0963
974.134 1.0875 1.1615 1.3608 1.601 1.751 1.781 1.941 2.021 2.131 2.321
993.424 2.411 2.491 2.401 2.261 2.181 2.221 2.311 2.231 2.111 1.961
1012.714 1.611 1.461 1.621 1.751 1.591 1.461 1.531 1.411 1.531 1.961
1032.003 2.141 2.051 1.961 2.161 2.261 2.231 2.441 2.511 2.421 2.231
1051.293 2.071 1.951 1.871 1.791 1.811 1.891 1.781 1.681 1.401 1.2289
1070.583 1.0871 1.1239 1.3552 1.441 1.531 1.1502 0.9471 1.431 1.3217 1.1495
1089.873 1.1905 1.0598 1.591 1.721 1.591 1.951 2.101 2.571 3.001 2.961
1109.163 2.781 2.391 2.181 2.161 2.081 2.251 2.371 1.991 1.601 1.561
1128.452 1.591 1.531 1.371 1.401 1.461 1.561 1.681 1.561 1.571 1.931
1147.742 2.471 2.661 3.071 3.201 3.001 3.171 3.061 2.971 2.721 2.171
1167.032 1.921 1.801 1.701 1.561 1.601 1.421 1.2806 1.2865 1.1221 1.2081
1186.322 1.2671 1.2446 1.2838 1.2567 1.1532 0.894 0.676 0.9739 1.1449 1.1934
1205.611 1.631 1.841 1.481 1.711 1.931 2.031 2.281 2.051 2.131 2.321
1224.901 2.371 2.621 2.351 2.191 2.541 2.601 2.401 2.091 2.021 2.141
1244.191 1.941 1.861 1.841 1.811 1.671 1.731 2.021 2.131 2.191 2.121
1263.481 1.991 2.051 1.841 1.711 1.931 1.801 1.621 1.691 1.621 1.621
1282.771 1.611 1.671 1.911 1.981 2.021 1.971 2.051 2.151 2.211 2.161
1302.060 2.181 2.281 2.221 2.131 2.141 2.101 1.981 1.921 1.831 1.781
1321.350 1.791 1.751 1.641 1.631 1.691 1.751 1.771 1.821 1.871 1.841
1340.640 1.841 1.891 1.971 1.981 1.981 1.991 2.001 2.071 2.061 2.031
1359.930 2.061 2.121 2.221 2.301 2.331 2.381 2.551 2.721 2.911 3.211
1379.219 3.551 3.821 3.991 4.101 4.221 4.381 4.481 4.531 4.471 4.391
1398.509 4.361 4.331 4.371 4.581 4.941 5.411 5.911 6.481 7.161 7.961
1417.799 8.991 10.081 11.131 12.051 12.761 13.301 13.731 13.991 13.891 13.511
1437.089 12.911 12.231 11.581 10.961 10.481 10.221 10.081 9.991 9.951 9.911
1456.378 9.861 9.711 9.551 9.381 9.251 9.031 8.781 8.641 8.441 8.231
1475.668 8.051 8.001 8.091 8.341 8.681 9.211 10.151 11.441 12.991 14.911
1494.958 17.191 19.591 21.731 23.261 24.131 24.581 24.511 23.611 22.171 20.241
1514.248 17.631 14.731 12.011 9.821 8.151 6.871 5.951 5.311 4.861 4.531
1533.538 4.271 4.081 3.961 3.851 3.771 3.671 3.541 3.471 3.371 3.331
1552.827 3.351 3.371 3.341 3.301 3.291 3.221 3.171 3.201 3.241 3.191
1572.117 3.121 3.101 3.061 3.001 2.971 2.921 2.821 2.751 2.691 2.641
1591.407 2.611 2.641 2.801 3.001 3.221 3.501 3.861 4.301 4.801 5.191
1610.697 5.491 5.751 5.891 5.841 5.631 5.271 4.811 4.271 3.701 3.161
1629.986 2.671 2.241 1.931 1.691 1.461 1.2844 1.1293 1.0613 1.1056 1.103
1649.276 0.9837 0.927 0.9201 0.8519 0.8537 0.8575 0.8373 0.862 0.9392 1.0055
1668.566 0.9565 0.9118 0.9208 0.9435 1.0321 1.0132 0.9573 0.9894 1.0106 0.9235
1687.856 0.8389 0.8252 0.8005 0.7248 0.6939 0.671 0.6627 0.6972 0.7203 0.6754
1707.146 0.6098 0.707 0.7288 0.6975 0.7304 0.7894 0.8725 0.9054 0.8949 0.9808
1726.435 1.117 1.159 1.1673 1.2766 1.421 1.511 1.521 1.581 1.661 1.641
1745.725 1.591 1.591 1.591 1.541 1.451 1.381 1.3118 1.2426 1.1625 1.1111
1765.015 1.0058 0.8748 0.8449 0.8304 0.7907 0.7259 0.6835 0.7146 0.6995 0.6682
1784.305 0.7306 0.7987 0.7715 0.7396 0.7505 0.7152 0.6878 0.738 0.7355 0.6833
1803.594 0.706 0.7645 0.8251 0.9215 0.9983 1.0311 1.043 1.0821 1.0976 1.0889
1822.884 1.0786 1.0582 1.0337 1.0229 0.9721 0.9196 0.9467 0.9117 0.9134 0.8811
1842.174 0.8636 0.939 0.9574 0.9127 0.9365 1.0116 0.9773 0.9969 1.0417 1.051
1861.464 1.0369 1.0208 1.0442 1.0913 1.1736 1.2351 1.2023 1.1666 1.2431 1.2793
1880.754 1.3312 1.391 1.371 1.391 1.471 1.491 1.471 1.541 1.511 1.441
1900.043 1.371 1.2984 1.2126 1.0908 0.9767 0.8693 0.8357 0.7889 0.6702 0.6315
1919.333 0.6294 0.5441 0.4599 0.43948 0.44844 0.5095 0.5364 0.5327 0.5291 0.4534
1938.623 0.4392 0.4745 0.4677 0.4916 0.5276 0.5337 0.5366 0.5413 0.5421 0.5405
1957.913 0.4797 0.43016 0.4403 0.41005 0.40291 0.41203 0.41568 0.43688 0.4627 0.5039
1977.202 0.5155 0.44848 0.39421 0.40752 0.41625 0.44323 0.4842 0.486 0.45752 0.41688
1996.492 0.39962 0.3918 0.39577 0.41072 0.39929 0.42416 0.44221 0.360169 0.3231 0.3584
2015.782 0.3463 0.35216 0.360417 0.361165 0.361878 0.3713 0.3234 0.2652 0.35485 0.37303
2035.072 0.35616 0.38399 0.3461 0.3383 0.35837 0.3818 0.370264 0.361081 0.35604 0.3486
2054.362 0.35488 0.3402 0.363554 0.3452 0.365491 0.35172 0.3429 0.39031 0.35758 0.3464
2073.651 0.35137 0.331 0.3148 0.38198 0.4676 0.4614 0.41506 0.41545 0.45875 0.43979
2092.941 0.45718 0.5346 0.5585 0.5521 0.5153 0.5356 0.5277 0.493 0.47 0.37605
2112.231 0.42044 0.4996 0.44747 0.4457 0.40461 0.41279 0.39727 0.361469 0.39247 0.3589
2131.521 0.3432 0.367572 0.39218 0.40279 0.38387 0.3304 0.3173 0.3261 0.39565 0.4621
2150.810 0.43205 0.38699 0.35743 0.3509 0.3219 0.2778 0.245 0.241 0.2911 0.3202
2170.100 0.3383 0.3512 0.364801 0.38475 0.3845 0.3098 0.239 0.2713 0.2927 0.3172
2189.390 0.37475 0.3459 0.277 0.226 0.3008 0.319 0.2629 0.35189 0.35203 0.3074
2208.680 0.3391 0.37601 0.38835 0.37799 0.3391 0.35454 0.44609 0.4974 0.4633 0.43261
2227.970 0.4984 0.6274 0.658 0.7368 0.8792 0.972 1.0841 1.2658 1.471 1.611
2247.259 1.741 1.801 1.861 1.911 1.991 1.991 1.871 1.791 1.631 1.481
2266.549 1.3574 1.1688 1.0282 0.9674 0.7689 0.6445 0.6271 0.5386 0.5465 0.5815
2285.839 0.5346 0.5012 0.5056 0.4826 0.463 0.4904 0.4936 0.4904 0.4798 0.46025
2305.129 0.45452 0.4695 0.507 0.5224 0.5274 0.5186 0.5362 0.5689 0.5819 0.5863
2324.418 0.5766 0.5524 0.5106 0.5126 0.61 0.5995 0.543 0.5617 0.6098 0.6434
2343.708 0.5726 0.5072 0.5479 0.5724 0.4799 0.43948 0.4663 0.5122 0.5695 0.4955
2362.998 0.4255 0.44634 0.4828 0.5133 0.5358 0.5267 0.482 0.4655 0.39117 0.37656
2382.288 0.4491 0.44744 0.37513 0.3416 0.4372 0.44571 0.4762 0.5176 0.44393 0.40181
2401.578 0.41917 0.4811 0.42765 0.4641 0.5397 0.5604 0.5937 0.5631 0.5745 0.5691
2420.867 0.5496 0.5634 0.5289 0.5314 0.498 0.4958 0.5688 0.5117 0.4874 0.5183
2440.157 0.4725 0.4893 0.5469 0.5849 0.4854 0.42944 0.5172 0.541 0.5505 0.5114
2459.447 0.5781 0.5887 0.4716 0.5067 0.5381 0.5509 0.5633 0.5353 0.4755 0.5078
2478.737 0.5572 0.4734 0.45989 0.45434 0.4903 0.5322 0.5138 0.5074 0.44283 0.39021
2498.026 0.45837 0.508 0.5569 0.5163 0.44368 0.41767 0.3261 0.35163 0.4905 0.5453
2517.316 0.5122 0.4877 0.4827 0.5414 0.5249 0.5301 0.5191 0.43416 0.4857 0.5526
2536.606 0.5281 0.4934 0.5125 0.5184 0.55 0.5028 0.45868 0.4745 0.44638 0.4335
2555.896 0.38072 0.3198 0.3179 0.2938 0.3875 0.559 0.5217 0.41913 0.44818 0.5802
2575.186 0.6223 0.6322 0.7063 0.6483 0.6136 0.6357 0.5725 0.5323 0.5738 0.6562
2594.475 0.6142 0.569 0.6057 0.5778 0.6981 0.8108 0.7051 0.6704 0.6423 0.5977
2613.765 0.6683 0.693 0.6662 0.6728 0.6492 0.6337 0.6347 0.594 0.5268 0.46081
2633.055 0.5188 0.5386 0.45179 0.45218 0.4882 0.505 0.5569 0.5893 0.5702 0.5332
2652.345 0.4919 0.45004 0.39035 0.43012 0.5416 0.5565 0.4745 0.35614 0.35368 0.42118
2671.634 0.5203 0.5365 0.45015 0.5994 0.6553 0.5353 0.5676 0.5736 0.5285 0.5388
2690.924 0.5198 0.5226 0.5328 0.44703 0.4971 0.6587 0.6901 0.6852 0.7293 0.8007
2710.214 0.7882 0.7366 0.7037 0.7917 0.8351 0.831 0.9437 0.9913 0.9977 0.9921
2729.504 1.0357 1.1486 1.3115 1.361 1.401 1.521 1.631 1.721 1.831 1.891
2748.794 1.871 1.881 1.811 1.661 1.531 1.461 1.2726 1.1287 1.1863 1.1623
2768.083 1.0076 0.9133 0.8196 0.853 0.9466 0.8522 0.8677 0.8894 0.8043 0.8884
2787.373 1.0708 1.163 1.0703 0.9748 1.0419 1.1448 1.2323 1.2831 1.3581 1.411
2806.663 1.491 1.531 1.581 1.731 1.641 1.671 1.911 2.031 2.101 2.171
2825.953 2.431 2.641 2.701 2.721 2.901 3.131 3.221 3.431 3.681 3.931
2845.242 4.181 4.461 4.801 5.121 5.491 6.041 6.491 7.031 7.821 8.701
2864.532 9.641 10.471 11.301 12.251 13.061 13.631 14.171 14.621 14.811 14.881
2883.822 14.771 14.471 14.161 13.811 13.481 13.251 12.991 12.851 12.901 12.841
2903.112 12.881 13.211 13.521 13.991 14.721 15.631 16.701 17.951 19.491 21.301
2922.401 23.291 25.361 27.551 29.401 30.741 31.751 32.181 32.001 31.361 30.041
2941.691 28.251 26.291 24.291 22.281 20.291 18.761 17.411 16.061 15.181 14.601
2960.981 14.061 13.571 13.241 13.031 12.871 12.661 12.641 12.711 12.691 12.831
2980.271 13.191 13.611 13.821 13.921 14.061 14.331 14.491 14.681 15.101 15.471
2999.561 15.771 16.261 16.941 17.651 18.301 18.711 19.241 19.651 19.741 19.891
3018.850 19.951 19.761 19.441 18.971 18.491 17.951 17.331 16.811 16.181 15.591
3038.140 15.201 14.891 14.841 14.941 15.211 15.561 15.871 16.061 15.861 15.591
3057.430 15.121 14.451 13.691 12.691 11.641 10.681 9.781 8.851 8.081 7.471
3076.720 6.911 6.331 5.831 5.461 5.031 4.581 4.171 3.951 3.741 3.541
3096.009 3.401 3.161 2.941 2.821 2.701 2.511 2.521 2.521 2.361 2.291
3115.299 2.371 2.331 2.241 2.291 2.271 2.231 2.081 1.901 1.841 1.801
3134.589 1.751 1.501 1.3481 1.401 1.3005 1.2345 1.1865 1.1037 1.0339 1.1013
3153.879 1.0642 0.9817 0.9922 0.9093 0.8227 0.7071 0.8186 0.9363 0.794 0.8103
3173.169 0.8976 0.8409 0.7574 0.7588 0.8047 0.833 0.8093 0.8409 0.7439 0.6032
3192.458 0.6885 0.8014 0.8269 0.6495 0.598 0.6692 0.5892 0.6331 0.6489 0.4978
3211.748 0.370806 0.4612 0.6329 0.6351 0.5334 0.5261 0.5812 0.4709 0.41478 0.5938
3231.038 0.6166 0.39196 0.4616 0.567 0.4781 0.41592 0.44748 0.39066 0.40383 0.39128
3250.328 0.3397 0.5101 0.45526 0.42206 0.45662 0.4617 0.35306 0.243 0.3485 0.4656
3269.617 0.4996 0.44943 0.257 0.2661 0.42576 0.35313 0.3341 0.4803 0.5621 0.39896
3288.907 0.2728 0.2701 0.179 0.194 0.2818 0.2683 0.3161 0.39365 0.40919 0.40426
3308.197 0.43401 0.43843 0.3392 0.2611 0.213 0.228 0.2666 0.2699 0.234 0.231
3327.487 0.259 0.222 0.229 0.3362 0.4745 0.4915 0.368913 0.2878 0.35645 0.43212
3346.777 0.370143 0.337 0.26 0.154 0.15 0.141 0.124 0.174 0.253 0.2756
3366.066 0.2801 0.2922 0.3122 0.2877 0.2719 0.3399 0.256 0.131 0.189 0.245
3385.356 0.2614 0.252 0.228 0.24 0.235 0.107 0.113 0.322 0.35482 0.2835
3404.646 0.2746 0.258 0.207 0.3448 0.3957 0.2785 0.257 0.209 0.2972 0.244
3423.936 0.14 0.144 0.078 0.122 0.245 0.3412 0.39904 0.40878 0.4834 0.39524
3443.225 0.3244 0.2861 0.219 0.3289 0.25 0.2858 0.35488 0.3468 0.2644 0.2777
3462.515 0.40456 0.3299 0.196 0.25 0.32 0.38309 0.2815 0.159 0.2871 0.2788
3481.805 0.2922 0.249 0.146 0.138 0.152 0.3075 0.4663 0.45171 0.37969 0.35507
3501.095 0.206 0.104 0.19 0.117 0.117 0.232 0.128 0.026 0.158 0.3139
3520.385 0.3524 0.12 0 0.237 0.2893 0.192 0.207 0.252 0.2661 0.2698
3539.674 0.3055 0.2615 0.2942 0.2997 0.187 0.234 0.3051 0.3388 0.2906 0.181
3558.964 0.229 0.2659 0.19 0.179 0.101 0.109 0.2761 0.256 0.124 0.174
3578.254 0.2979 0.2781 0.099 0.094 0.2621 0.249 0.211 0.25 0.3011 0.35362
3597.544 0.3505 0.14 0.175 0.39543 0.360344 0.364213 0.39863 0.2896 0.313 0.3328
3616.833 0.18 0.179 0.2671 0.2822 0.153 0.254 0.39883 0.3212 0.35558 0.38882
3636.123 0.4102 0.41354 0.370306 0.38685 0.2781 0.219 0.229 0.166 0.141 0.049
3655.413 0.066 0.211 0.158 0.095 0.01 0.151 0.3256 0.2952 0.3477 0.256
3674.703 0.3077 0.39276 0.2801 0.227 0.241 0.311 0.308 0.235 0.165 0.2709
3693.993 0.366739 0.24 0.3007 0.2704 0.174 0.212 0.221 0.172 0.212 0.24
3713.282 0.208 0.2828 0.225 0.2 0.3431 0.3256 0.2967 0.3286 0.40907 0.343
3732.572 0.2881 0.38317 0.3914 0.5072 0.4804 0.42899 0.5049 0.43119 0.22 0.3021
3751.862 0.38391 0.41883 0.462 0.37301 0.238 0.215 0.369297 0.38376 0.3126 0.243
3771.152 0.40073 0.37765 0.2669 0.3202 0.22 0.3265 0.216 0.076 0.249 0.2788
3790.441 0.3122 0.3541 0.38871 0.38118 0.3459 0.2987 0.3087 0.2906 0.35575 0.39143
3809.731 0.38066 0.233 0.103 0.3452 0.38192 0.146 0.22 0.38925 0.284 0.2973
3829.021 0.35507 0.223 0.23 0.3341 0.3476 0.42522 0.4934 0.42169 0.363479 0.5039
3848.311 0.5125 0.248 0.122 0.269 0.301 0.3044 0.40821 0.370214 0.39017 0.38039
3867.601 0.208 0.009 0.195 0.5769 0.4464 0.37549 0.3216 0.13 0.168 0.26
3886.890 0.37563 0.4586 0.5311 0.42942 0.3042 0.2706 0.37428 0.39223 0.235 0.213
3906.180 0.40635 0.5074 0.35148 0.35661 0.5028 0.5471 0.5201 0.4763 0.504 0.45082
3925.470 0.3193 0.361732 0.4625 0.5494 0.4722 0.4934 0.4629 0.38668 0.469 0.4792
3944.760 0.44928 0.42365 0.512 0.5406 0.4691 0.39812 0.39636 0.39173 0.2904 0.149
3964.049 0.3017 0.5836 0.5229 0.45433 0.43286 0.237 0.21 0.4044 0.45759 0.3447
3983.339 0.317 0.35135 0.41854 0.5054 0.40585 0.226 0.178 0.13 0.199 0.38915
##END=
