##TITLE=3,5-Di-t-butylbenzoic acid
##JCAMP-DX=4.24
##DATA TYPE=INFRARED SPECTRUM
##ORIGIN=EPA-IR VAPOR PHASE LIBRARY
##OWNER=SRD/NIST
Collection (C) 2018 copyright by the U.S. Secretary of Commerce
on behalf of the United States of America. All rights reserved.
##CAS REGISTRY NO=16225-26-6
##MOLFORM=C 15 H 22 O 2
##$NIST SOURCE=MSDC-IR
##STATE=gas
##XUNITS=1/CM
##YUNITS=ABSORBANCE
##XFACTOR=1.
##YFACTOR=0.001
##DELTAX=1.929
##FIRSTX=549.8
##LASTX=4000.8
##FIRSTY=2.741
##MAXX=4000.75
##MINX=549.766
##MAXY=0.056091
##MINY=0
##NPOINTS=1790
##XYDATA=(X++(Y..Y))
549.766 2.741 2.571 2.501 2.471 2.641 2.881 3.121 3.211 3.371 3.671
569.056 3.881 3.871 3.991 4.311 4.791 5.191 5.621 6.211 6.961 7.581
588.346 8.191 8.711 8.451 7.921 7.241 6.491 5.731 4.981 4.391 3.871
607.636 3.461 3.011 2.621 2.461 2.191 1.841 1.641 1.349 1.1415 1.2662
626.926 1.3863 1.421 1.3992 1.541 1.691 1.721 1.881 2.251 2.971 4.531
646.216 7.131 10.481 13.531 15.101 15.301 14.911 13.481 10.551 6.981 4.131
665.506 2.541 1.681 1.2916 1.0499 0.9891 0.9711 0.7241 0.5862 0.7416 0.7632
684.796 0.7382 0.6677 0.6347 0.8504 1.0979 1.3998 1.791 2.221 2.681 3.201
704.086 3.301 2.741 2.261 1.901 1.601 1.2916 1.0054 0.8599 0.6539 0.55488
723.376 0.6258 0.6544 0.6868 0.6172 0.54716 0.57425 0.57593 0.7221 0.6533 0.51522
742.666 0.6251 0.6566 0.6767 0.8231 0.9394 1.0258 1.1734 1.4191 1.651 2.081
761.956 2.861 3.591 4.261 5.041 6.021 6.631 6.191 5.231 4.451 3.801
781.246 3.051 2.421 2.011 1.731 1.521 1.3463 1.1576 1.0785 1.1082 1.082
800.536 1.0858 1.0438 0.97 0.9023 0.8411 0.8197 0.7696 0.8259 0.9847 0.9021
819.826 0.7754 0.8202 0.7906 0.6248 0.49867 0.5321 0.56793 0.57841 0.6371 0.656
839.116 0.5831 0.51348 0.54963 0.55405 0.5976 0.688 0.7181 0.6612 0.57169 0.6143
858.406 0.6995 0.7456 0.7896 0.8782 0.9553 1.0232 1.0944 1.232 1.4576 1.861
877.696 2.371 2.861 3.341 3.831 4.421 4.991 5.401 5.661 5.601 5.281
896.986 4.801 4.231 3.681 3.051 2.411 2.061 1.861 1.681 1.511 1.4766
916.276 1.511 1.511 1.521 1.4809 1.3372 1.2193 1.237 1.27 1.2244 1.0963
935.566 1.03 1.0402 1.0297 0.9538 0.925 0.9265 0.8457 0.7446 0.7449 0.756
954.856 0.7349 0.7279 0.6812 0.638 0.6527 0.6299 0.6289 0.673 0.6815 0.6845
974.146 0.702 0.6354 0.5876 0.5958 0.57241 0.5916 0.5832 0.594 0.671 0.6973
993.436 0.57424 0.55161 0.68 0.6871 0.6728 0.7245 0.6616 0.6298 0.6644 0.66
1012.726 0.7185 0.743 0.7948 0.8103 0.8293 0.8714 0.8305 0.8626 0.8371 0.8314
1032.016 0.8544 0.8514 0.8957 0.9422 1.0681 1.1843 1.2533 1.3501 1.551 1.751
1051.306 1.821 1.911 2.071 2.191 2.171 2.041 1.951 1.851 1.741 1.691
1070.596 1.681 1.801 1.911 2.041 2.321 2.671 3.231 4.031 5.161 6.671
1089.886 8.751 11.671 15.271 19.451 23.861 27.741 30.311 30.911 29.541 26.421
1109.176 21.951 16.931 12.471 9.261 7.271 6.281 5.791 5.641 5.761 5.931
1128.467 6.201 6.491 6.621 6.481 6.301 6.171 5.861 5.711 5.711 5.681
1147.757 5.791 5.931 6.041 6.331 6.711 7.121 7.591 8.191 8.941 9.681
1167.047 10.451 11.421 12.571 13.721 14.931 16.181 17.541 18.971 20.301 21.421
1186.337 22.021 22.031 21.511 20.371 18.681 16.621 14.371 12.161 10.121 8.511
1205.627 7.221 6.151 5.291 4.591 4.171 3.911 3.601 3.421 3.461 3.431
1224.917 3.461 3.651 3.931 4.221 4.651 5.351 6.071 6.911 7.831 8.741
1244.207 9.471 9.731 9.681 9.291 8.601 7.791 7.011 6.451 6.061 5.731
1263.497 5.541 5.431 5.371 5.311 5.241 5.141 5.011 4.871 4.731 4.541
1282.787 4.261 3.881 3.501 3.181 2.861 2.651 2.541 2.541 2.591 2.661
1302.077 2.801 2.921 3.101 3.301 3.451 3.601 3.761 3.921 4.071 4.271
1321.367 4.451 4.711 5.161 5.781 6.541 7.381 8.251 9.141 9.891 10.351
1340.657 10.401 10.121 9.671 8.981 8.191 7.521 7.101 6.831 6.651 6.671
1359.947 6.941 7.351 7.911 8.581 9.061 9.311 9.331 9.181 8.871 8.391
1379.237 7.791 7.181 6.481 5.801 5.231 4.771 4.631 4.671 4.721 4.631
1398.527 4.481 4.261 3.851 3.301 2.781 2.431 2.171 2.001 1.981 1.931
1417.817 1.891 2.051 2.161 2.231 2.421 2.601 2.751 2.911 3.061 3.241
1437.107 3.441 3.681 3.971 4.161 4.371 4.571 4.741 4.941 5.131 5.221
1456.397 5.241 5.381 5.481 5.461 5.521 5.631 5.761 6.031 6.401 6.831
1475.687 7.181 7.321 7.221 6.891 6.321 5.571 4.691 3.861 3.171 2.691
1494.977 2.281 1.931 1.731 1.551 1.4084 1.2014 1.0574 1.0551 0.9994 0.9361
1514.267 0.9013 0.8477 0.8069 0.795 0.8242 0.8309 0.8492 0.8925 0.8852 0.8708
1533.557 0.9154 0.9894 1.0065 1.0011 1.0096 1.0482 1.0529 1.0741 1.0809 1.0692
1552.847 1.0861 1.0772 1.1031 1.0855 1.1048 1.16 1.1551 1.1407 1.2222 1.3024
1572.137 1.316 1.3495 1.4754 1.671 1.901 2.171 2.501 2.941 3.451 4.021
1591.427 4.651 5.371 6.011 6.461 6.751 6.701 6.291 5.701 4.921 4.091
1610.717 3.391 2.771 2.261 1.891 1.631 1.3752 1.1513 1.1199 1.1318 1.0492
1630.007 0.9629 0.9005 0.8635 0.8476 0.8174 0.787 0.7479 0.7394 0.7085 0.655
1649.297 0.6968 0.6769 0.6325 0.7168 0.8013 0.8342 0.8347 0.8424 0.8546 0.8554
1668.587 0.847 0.8768 0.9106 0.8859 0.9294 0.9475 0.936 0.972 0.9739 0.9947
1687.877 1.0402 1.0949 1.1065 1.162 1.3039 1.491 1.731 2.071 2.371 2.741
1707.167 3.131 3.461 3.641 3.631 3.541 3.401 3.251 3.071 2.911 2.871
1726.457 2.961 3.141 3.411 3.841 4.541 5.521 6.711 8.591 11.351 15.401
1745.747 21.101 28.631 37.331 46.131 52.821 56.091 55.841 51.991 44.461 34.821
1765.037 25.861 18.831 13.901 10.551 8.081 6.381 5.131 4.231 3.621 3.211
1784.327 2.961 2.881 2.871 2.971 3.111 3.271 3.511 3.731 3.931 4.071
1803.617 4.091 3.931 3.601 3.221 2.821 2.481 2.161 1.871 1.701 1.551
1822.907 1.3917 1.2746 1.2066 1.1533 1.0802 1.0121 0.9473 0.8743 0.8279 0.795
1842.197 0.7501 0.7289 0.7199 0.6923 0.6643 0.6114 0.592 0.6308 0.6402 0.587
1861.487 0.57715 0.56386 0.57426 0.5893 0.5918 0.6934 0.7224 0.7111 0.731 0.7467
1880.777 0.8003 0.8178 0.8195 0.7847 0.6993 0.6531 0.6006 0.6028 0.5823 0.52821
1900.067 0.57638 0.57956 0.53235 0.51641 0.484922 0.47777 0.47262 0.480234 0.48691 0.4668
1919.357 0.480087 0.489429 0.47941 0.49651 0.50263 0.483189 0.4986 0.47538 0.4343 0.489777
1938.647 0.482067 0.4655 0.51705 0.483877 0.481923 0.50309 0.47879 0.49622 0.52057 0.50676
1957.937 0.4965 0.47119 0.4611 0.47769 0.48649 0.51595 0.51164 0.49185 0.50375 0.489068
1977.227 0.53715 0.5828 0.5872 0.6262 0.5965 0.5938 0.595 0.54956 0.5854 0.6201
1996.517 0.55315 0.53004 0.54598 0.50935 0.481821 0.486249 0.481149 0.47846 0.486663 0.50485
2015.807 0.49909 0.4631 0.4556 0.4357 0.4317 0.4393 0.43 0.4469 0.49264 0.49594
2035.097 0.481586 0.4608 0.462 0.49203 0.52199 0.51992 0.4592 0.4563 0.51201 0.54108
2054.387 0.51586 0.50169 0.4535 0.414 0.4392 0.47695 0.49246 0.49039 0.5111 0.50476
2073.677 0.50175 0.4606 0.457 0.4749 0.4459 0.4661 0.465 0.4352 0.4177 0.372
2092.967 0.359 0.409 0.4031 0.4139 0.4318 0.4181 0.4263 0.4132 0.4193 0.4386
2112.257 0.4474 0.4438 0.4392 0.443 0.4687 0.484455 0.47968 0.4541 0.47439 0.4639
2131.547 0.4385 0.47143 0.49255 0.5054 0.4609 0.463 0.47782 0.482769 0.50498 0.486062
2150.837 0.490205 0.489524 0.49195 0.483516 0.47285 0.452 0.4387 0.4484 0.4395 0.4177
2170.127 0.4319 0.4484 0.4383 0.4685 0.47961 0.464 0.47387 0.50316 0.47258 0.453
2189.417 0.4623 0.4615 0.49828 0.52543 0.55117 0.5821 0.56569 0.51069 0.47158 0.47538
2208.707 0.49842 0.47354 0.4359 0.47889 0.52194 0.487543 0.4283 0.4068 0.4093 0.431
2227.997 0.4625 0.486525 0.47818 0.448 0.47931 0.51016 0.51087 0.50381 0.4828 0.458
2247.287 0.4653 0.49375 0.487487 0.4611 0.4589 0.49361 0.4624 0.4337 0.4639 0.4659
2266.577 0.49504 0.51224 0.50249 0.47759 0.4453 0.4484 0.4672 0.4578 0.4522 0.47838
2285.868 0.50325 0.51754 0.50985 0.52869 0.50948 0.4548 0.487109 0.51898 0.4622 0.4421
2305.158 0.47613 0.4694 0.481621 0.47357 0.4257 0.3969 0.366 0.4034 0.412 0.3984
2324.448 0.4114 0.4149 0.4284 0.4215 0.4648 0.49765 0.50429 0.487785 0.4172 0.4112
2343.738 0.4377 0.4648 0.51423 0.49835 0.486023 0.51941 0.482435 0.4565 0.480595 0.4328
2363.028 0.4085 0.4194 0.408 0.412 0.4463 0.49909 0.51131 0.54401 0.56977 0.5916
2382.318 0.6051 0.5693 0.56569 0.597 0.5963 0.53356 0.47871 0.52256 0.52745 0.4657
2401.608 0.47969 0.49202 0.51907 0.52166 0.483404 0.489941 0.47481 0.481293 0.50003 0.50542
2420.898 0.5098 0.47314 0.48211 0.51402 0.488951 0.51869 0.54666 0.52802 0.55337 0.57149
2440.188 0.55061 0.51625 0.48098 0.47406 0.47916 0.47787 0.50991 0.50987 0.49666 0.49282
2459.478 0.4388 0.4166 0.4505 0.4678 0.49498 0.53343 0.5105 0.50879 0.55822 0.5441
2478.768 0.51794 0.53228 0.56076 0.51862 0.5027 0.52879 0.51012 0.487273 0.50627 0.57199
2498.058 0.55791 0.50891 0.53185 0.54985 0.53306 0.54024 0.5285 0.53497 0.54042 0.53611
2517.348 0.56337 0.47856 0.4195 0.47109 0.47326 0.4377 0.4579 0.52002 0.52475 0.53008
2536.638 0.54959 0.51708 0.54242 0.6007 0.54443 0.52005 0.5466 0.54587 0.5901 0.5928
2555.928 0.5722 0.58092 0.56553 0.6071 0.6447 0.6076 0.629 0.6753 0.6572 0.645
2575.218 0.6577 0.6478 0.6058 0.6451 0.7057 0.6974 0.6458 0.53306 0.53215 0.6574
2594.508 0.6534 0.5989 0.6471 0.6502 0.593 0.57596 0.609 0.5851 0.55968 0.57412
2613.798 0.5956 0.6109 0.6237 0.6411 0.57706 0.51199 0.50009 0.56849 0.6158 0.5977
2633.088 0.5901 0.5914 0.6013 0.5834 0.6068 0.6243 0.661 0.6999 0.666 0.6599
2652.378 0.7042 0.6977 0.6209 0.6105 0.6756 0.6949 0.6697 0.6735 0.6546 0.6175
2671.668 0.6151 0.6238 0.6638 0.6391 0.57492 0.6067 0.6027 0.57019 0.5713 0.5815
2690.958 0.5939 0.656 0.7216 0.6643 0.6127 0.6529 0.6525 0.617 0.6187 0.6278
2710.248 0.6347 0.6429 0.7039 0.7382 0.7665 0.8444 0.8781 0.8575 0.7722 0.7548
2729.538 0.8368 0.8361 0.8102 0.7801 0.791 0.8353 0.7495 0.7333 0.7789 0.7717
2748.828 0.7704 0.7376 0.7451 0.822 0.8589 0.8229 0.7839 0.7308 0.7097 0.888
2768.118 0.9394 0.7718 0.7019 0.735 0.7606 0.7475 0.7874 0.8243 0.8297 0.8764
2787.408 0.8724 0.8368 0.8125 0.8777 0.9177 0.8808 0.8968 0.8816 0.9289 0.9385
2806.698 0.9371 0.9786 0.9617 1.055 1.1497 1.1545 1.1596 1.1294 1.1007 1.1768
2825.988 1.2265 1.1818 1.2131 1.3086 1.3386 1.3862 1.3972 1.4397 1.541 1.661
2845.278 1.791 1.911 2.081 2.271 2.501 2.721 3.011 3.351 3.741 4.221
2864.568 4.821 5.471 6.141 6.701 7.211 7.731 8.081 8.231 8.271 8.241
2883.858 8.201 8.181 8.051 7.891 7.731 7.611 7.661 7.741 7.911 8.261
2903.148 8.571 9.051 9.551 9.911 10.241 10.421 10.581 10.621 10.421 10.181
2922.438 9.981 9.941 9.961 9.951 9.951 10.061 10.291 10.491 10.711 11.031
2941.728 11.471 12.151 13.141 14.381 16.001 18.101 20.671 23.801 27.261 30.891
2961.018 34.671 38.491 41.811 44.031 44.741 43.651 40.821 36.521 31.241 25.631
2980.308 20.561 16.431 13.301 11.011 9.141 7.601 6.421 5.521 4.691 3.951
2999.598 3.371 2.941 2.561 2.201 1.941 1.671 1.571 1.531 1.3822 1.278
3018.888 1.2977 1.2707 1.2105 1.172 1.0971 1.0723 1.0987 1.1028 1.0752 1.0194
3038.178 0.9661 0.9783 1.0208 1.0257 1.0467 1.047 1.0026 0.9259 0.8741 0.9256
3057.468 0.9247 0.8877 1.0096 1.0441 1.0002 1.041 1.062 1.1113 1.2181 1.2485
3076.758 1.1889 1.2352 1.3339 1.3225 1.3608 1.3944 1.4034 1.3839 1.2506 1.2422
3096.048 1.2165 1.1884 1.2186 1.0977 0.9673 0.8856 0.8811 0.7601 0.8249 0.8955
3115.338 0.7057 0.6937 0.608 0.53802 0.6158 0.6731 0.7187 0.7505 0.6429 0.6388
3134.628 0.7557 0.6737 0.6607 0.7225 0.6531 0.6468 0.6642 0.7072 0.7344 0.5973
3153.918 0.6138 0.6509 0.5891 0.649 0.6947 0.6245 0.6475 0.7682 0.711 0.6333
3173.208 0.6631 0.58098 0.55362 0.6392 0.6721 0.6704 0.7109 0.8022 0.817 0.8133
3192.498 0.83 0.7199 0.6973 0.7258 0.652 0.6403 0.687 0.6902 0.7258 0.7548
3211.788 0.5977 0.6174 0.6315 0.5547 0.57221 0.5978 0.5814 0.4702 0.5905 0.7112
3231.078 0.6504 0.6611 0.589 0.52882 0.50816 0.53974 0.56445 0.50392 0.57491 0.6287
3250.368 0.52449 0.481862 0.5406 0.56462 0.55547 0.5896 0.6384 0.5211 0.4622 0.52912
3269.658 0.4017 0.283 0.3855 0.54115 0.481079 0.4029 0.4306 0.3845 0.3984 0.4542
3288.948 0.51727 0.4408 0.316 0.309 0.26 0.333 0.47415 0.4517 0.4172 0.4045
3308.238 0.291 0.184 0.237 0.287 0.373 0.368 0.313 0.358 0.377 0.337
3327.528 0.294 0.265 0.266 0.25 0.246 0.333 0.318 0.31 0.326 0.351
3346.818 0.362 0.375 0.4494 0.378 0.307 0.3 0.293 0.349 0.334 0.312
3366.108 0.347 0.335 0.267 0.23 0.239 0.348 0.4243 0.372 0.238 0.193
3385.398 0.309 0.262 0.218 0.25 0.193 0.211 0.233 0.234 0.191 0.122
3404.688 0.152 0.226 0.265 0.261 0.28 0.291 0.338 0.4008 0.3874 0.357
3423.978 0.351 0.38 0.3857 0.282 0.288 0.3832 0.261 0.248 0.3811 0.292
3443.269 0.227 0.198 0.171 0.346 0.4665 0.335 0.203 0.274 0.3832 0.365
3462.559 0.322 0.228 0.171 0.147 0.177 0.284 0.287 0.252 0.282 0.346
3481.849 0.357 0.354 0.4306 0.52003 0.55108 0.56128 0.639 0.6375 0.505 0.52859
3501.139 0.53214 0.37 0.356 0.4041 0.363 0.352 0.337 0.33 0.289 0.319
3520.429 0.305 0.274 0.295 0.223 0.213 0.269 0.3988 0.373 0.309 0.358
3539.719 0.345 0.368 0.311 0.309 0.337 0.357 0.375 0.4612 0.6262 0.648
3559.009 0.7294 0.8489 1.1065 1.611 2.201 3.071 4.591 6.741 9.361 12.511
3578.299 15.521 17.501 18.161 17.541 15.721 12.791 9.381 6.101 3.641 2.131
3597.589 1.2874 0.9165 0.6737 0.54858 0.465 0.4159 0.4182 0.4601 0.52207 0.371
3616.879 0.281 0.299 0.219 0.318 0.364 0.27 0.216 0.235 0.32 0.388
3636.169 0.371 0.2 0.103 0.24 0.319 0.259 0.218 0.256 0.288 0.191
3655.459 0.165 0.236 0.281 0.236 0.097 0.066 0.105 0.171 0.206 0.211
3674.749 0.184 0.123 0.16 0.168 0.114 0.047 0.09 0.22 0.166 0.152
3694.039 0.231 0.236 0.215 0.196 0.165 0.15 0.2 0.218 0.263 0.212
3713.329 0.135 0.147 0.184 0.234 0.222 0.194 0.151 0.136 0.261 0.218
3732.619 0.071 0.006 0.086 0.206 0.096 0.111 0.236 0.124 0.057 0.115
3751.909 0.162 0.135 0.108 0.225 0.292 0.351 0.235 0.041 0.108 0.23
3771.199 0.187 0.105 0.183 0.224 0.2 0.213 0.198 0.272 0.267 0.148
3790.489 0.22 0.34 0.329 0.311 0.255 0.136 0.134 0.257 0.297 0.339
3809.779 0.352 0.325 0.292 0.201 0.176 0.276 0.4617 0.4026 0.192 0.124
3829.069 0.193 0.292 0.3 0.227 0.118 0.114 0.192 0.249 0.269 0.142
3848.359 0.032 0 0.048 0.157 0.133 0.206 0.238 0.181 0.272 0.315
3867.649 0.259 0.261 0.259 0.244 0.301 0.241 0.124 0.236 0.272 0.148
3886.939 0.308 0.4101 0.281 0.325 0.3839 0.359 0.344 0.364 0.312 0.149
3906.229 0.138 0.195 0.329 0.3812 0.277 0.219 0.246 0.37 0.375 0.281
3925.519 0.273 0.225 0.197 0.243 0.37 0.349 0.213 0.163 0.18 0.211
3944.809 0.297 0.323 0.215 0.187 0.221 0.291 0.318 0.355 0.4216 0.4043
3964.099 0.333 0.345 0.319 0.322 0.318 0.232 0.178 0.199 0.265 0.314
3983.389 0.28 0.378 0.4412 0.372 0.344 0.197 0.188 0.278 0.287 0.233
##END=
