##TITLE=p-Octylaniline
##JCAMP-DX=4.24
##DATA TYPE=INFRARED SPECTRUM
##ORIGIN=EPA-IR VAPOR PHASE LIBRARY
##OWNER=SRD/NIST
Collection (C) 2018 copyright by the U.S. Secretary of Commerce
on behalf of the United States of America. All rights reserved.
##CAS REGISTRY NO=16245-79-7
##MOLFORM=C 14 H 23 N
##$NIST SOURCE=MSDC-IR
##STATE=gas
##XUNITS=1/CM
##YUNITS=ABSORBANCE
##XFACTOR=1.
##YFACTOR=0.001
##DELTAX=1.92898
##FIRSTX=549.8
##LASTX=4000.7
##FIRSTY=6.933
##MAXX=4000.7
##MINX=549.759
##MAXY=0.097843
##MINY=0
##NPOINTS=1790
##XYDATA=(X++(Y..Y))
549.759 6.933 6.433 6.283 6.173 5.223 4.753 4.533 3.933 3.653 3.823
569.049 3.923 3.803 3.753 3.883 3.663 3.483 3.583 3.273 3.343 3.313
588.339 3.113 3.383 3.553 3.383 3.323 3.263 3.313 3.643 3.813 3.893
607.628 3.793 3.683 3.683 3.713 3.973 4.273 4.613 4.723 4.773 5.193
626.918 5.743 6.463 7.043 7.693 8.563 9.283 10.163 11.173 11.943 13.113
646.208 14.423 15.203 15.673 15.893 15.983 15.593 14.653 13.833 13.043 12.303
665.498 11.733 11.273 10.723 10.223 10.003 9.683 9.343 9.113 8.923 8.743
684.787 8.503 8.293 8.163 7.903 7.533 7.233 7.083 6.883 6.783 6.713
704.077 6.443 6.173 6.133 6.143 6.013 5.893 6.023 5.963 5.553 5.443
723.367 5.493 5.523 5.433 5.443 5.413 5.223 5.133 5.113 5.083 5.153
742.657 4.983 4.663 4.763 4.813 4.843 4.893 4.863 4.743 4.863 5.153
761.947 5.223 5.393 5.403 5.423 5.583 5.603 5.633 5.663 5.893 6.213
781.236 6.293 6.373 6.613 7.253 7.613 7.743 8.163 8.703 9.353 10.093
800.526 10.733 11.113 11.633 12.193 12.623 12.923 13.203 13.403 13.153 12.683
819.816 12.263 11.703 11.133 10.473 9.733 9.193 8.813 8.363 7.693 7.343
839.106 7.253 6.903 6.503 6.033 5.533 5.213 4.973 4.643 4.313 4.123
858.395 3.913 3.763 3.463 3.173 3.103 3.073 3.183 3.083 2.783 2.553
877.685 2.533 2.533 2.523 2.543 2.343 2.303 2.303 2.343 2.373 2.113
896.975 2.043 2.093 2.143 2.013 1.903 1.913 1.923 1.993 2.023 2.083
916.265 1.953 1.893 1.903 1.883 1.923 1.953 1.873 1.813 1.923 2.043
935.555 2.073 1.883 1.953 2.133 2.013 1.963 1.903 1.743 1.773 1.823
954.844 1.673 1.603 1.663 1.783 2.003 1.973 1.843 1.933 2.173 2.183
974.134 2.083 2.173 2.183 2.103 2.073 2.093 2.203 2.123 2.043 2.203
993.424 2.093 2.003 1.933 1.663 1.743 1.943 1.983 2.073 2.173 2.193
1012.714 2.413 2.583 2.483 2.483 2.533 2.453 2.363 2.203 2.093 2.083
1032.003 2.103 2.023 2.063 2.063 1.903 2.023 2.183 2.393 2.583 2.573
1051.293 2.413 2.703 3.073 3.373 3.553 3.313 2.933 2.923 3.283 3.533
1070.583 3.593 3.413 3.473 3.653 3.983 3.923 3.263 3.443 3.443 3.433
1089.873 3.783 3.353 2.903 2.693 2.533 2.473 2.553 2.763 2.983 2.963
1109.163 3.113 3.393 3.413 3.613 3.893 3.793 3.823 3.903 3.703 3.313
1128.452 3.183 3.263 3.243 3.003 2.523 2.233 1.943 1.633 1.443 1.553
1147.742 1.613 1.663 1.573 1.473 1.723 1.753 1.783 1.863 1.803 1.983
1167.032 2.233 2.613 3.243 4.223 5.543 6.543 7.113 7.313 6.933 5.713
1186.322 4.253 3.133 2.493 1.933 1.733 1.863 1.833 2.063 1.953 1.713
1205.611 1.833 1.913 1.793 1.523 1.353 1.473 1.553 1.903 2.073 2.013
1224.901 2.453 2.603 2.683 2.643 2.663 3.083 3.653 3.943 4.243 4.963
1244.191 5.683 6.583 7.513 8.643 10.183 11.773 13.693 16.413 19.583 22.753
1263.481 25.713 28.023 28.773 28.313 26.973 24.353 21.143 17.773 14.823 12.383
1282.771 10.293 8.563 7.113 6.213 5.643 5.113 4.783 4.483 4.203 4.053
1302.060 3.993 3.973 3.863 3.753 3.633 3.553 3.523 3.473 3.413 3.283
1321.350 3.263 3.343 3.343 3.383 3.493 3.643 3.773 3.883 4.023 4.163
1340.640 4.253 4.313 4.383 4.423 4.453 4.413 4.283 4.183 4.093 3.963
1359.930 3.823 3.703 3.593 3.453 3.303 3.223 3.123 3.083 3.023 2.983
1379.219 3.003 3.013 2.993 2.983 2.873 2.693 2.553 2.363 2.203 2.203
1398.509 2.213 2.143 2.183 2.233 2.243 2.283 2.293 2.283 2.383 2.503
1417.799 2.643 2.763 2.843 2.983 3.193 3.323 3.423 3.683 3.923 4.153
1437.089 4.483 4.943 5.443 5.953 6.523 7.053 7.483 7.903 8.333 8.653
1456.378 8.853 9.023 9.103 9.063 8.923 8.673 8.343 7.913 7.383 6.863
1475.668 6.373 5.863 5.533 5.273 5.053 5.023 5.093 5.263 5.623 6.153
1494.958 7.083 8.343 9.943 12.223 15.203 19.033 24.303 30.733 37.503 43.813
1514.248 47.613 47.823 44.603 38.673 30.643 23.293 17.483 13.353 10.483 8.473
1533.538 6.993 5.963 5.283 4.673 4.183 3.813 3.423 3.043 2.793 2.663
1552.827 2.593 2.563 2.603 2.623 2.643 2.623 2.643 2.633 2.683 2.863
1572.117 2.953 3.083 3.203 3.363 3.633 3.843 3.983 4.183 4.473 4.723
1591.407 5.013 5.373 5.793 6.333 6.853 7.513 8.263 9.183 10.423 11.843
1610.697 13.543 15.483 17.563 19.973 22.463 24.813 26.983 28.563 29.263 28.983
1629.986 27.603 25.253 22.283 18.863 15.623 12.833 10.453 8.643 7.223 6.143
1649.276 5.263 4.683 4.233 3.803 3.503 3.283 3.023 2.783 2.623 2.473
1668.566 2.353 2.223 2.073 1.933 1.903 1.853 1.773 1.793 1.683 1.613
1687.856 1.603 1.543 1.573 1.613 1.603 1.623 1.633 1.583 1.583 1.533
1707.146 1.473 1.563 1.643 1.633 1.593 1.523 1.483 1.443 1.373 1.303
1726.435 1.2677 1.2666 1.2028 1.2162 1.323 1.323 1.313 1.373 1.333 1.2575
1745.725 1.343 1.363 1.363 1.343 1.2319 1.1427 1.0773 1.0483 1.0349 1.0507
1765.015 0.9999 0.9019 0.8321 0.8127 0.8535 0.8184 0.7383 0.7107 0.7278 0.6766
1784.305 0.6632 0.7065 0.7109 0.7164 0.7042 0.7457 0.7504 0.7046 0.7226 0.7424
1803.594 0.6914 0.6968 0.7438 0.7002 0.709 0.7617 0.763 0.7633 0.7926 0.7759
1822.884 0.7861 0.8108 0.8515 0.9301 0.9246 0.8963 0.9046 0.9934 1.0693 1.0823
1842.174 1.1169 1.1745 1.1549 1.1635 1.293 1.373 1.423 1.523 1.673 1.743
1861.464 1.773 1.823 1.833 1.783 1.753 1.693 1.663 1.603 1.433 1.323
1880.754 1.1937 1.1289 1.116 1.0666 0.9766 0.9072 0.9055 0.8608 0.882 0.8915
1900.043 0.8798 0.8848 0.8468 0.8509 0.8734 0.8492 0.8403 0.8445 0.8639 0.8736
1919.333 0.8467 0.9016 0.9412 0.9158 0.8499 0.814 0.8283 0.8221 0.8483 0.8723
1938.623 0.8273 0.8528 0.8252 0.7786 0.8383 0.822 0.8005 0.8448 0.8061 0.7333
1957.913 0.727 0.7011 0.6981 0.6883 0.6434 0.6788 0.6731 0.6299 0.6239 0.6271
1977.202 0.674 0.6395 0.586 0.6184 0.673 0.6156 0.5486 0.5931 0.6254 0.6233
1996.492 0.6314 0.6414 0.6597 0.6788 0.7278 0.7419 0.7121 0.6844 0.7022 0.8058
2015.782 0.8117 0.7591 0.7152 0.7702 0.8243 0.8599 0.916 0.8708 0.8267 0.8136
2035.072 0.8387 0.7961 0.7252 0.8019 0.8647 0.8334 0.8332 0.8473 0.845 0.8247
2054.362 0.8011 0.8218 0.7841 0.7871 0.7939 0.7997 0.8833 0.8593 0.7974 0.801
2073.651 0.845 0.8341 0.803 0.7785 0.7458 0.8057 0.7752 0.7017 0.7392 0.7598
2092.941 0.7089 0.7054 0.7269 0.7454 0.7657 0.702 0.7175 0.7557 0.7272 0.7179
2112.231 0.7209 0.6772 0.7178 0.7253 0.6065 0.5353 0.5213 0.5662 0.609 0.5727
2131.521 0.5617 0.552 0.5382 0.5594 0.5466 0.5452 0.5831 0.5613 0.6106 0.6544
2150.810 0.5976 0.6584 0.6591 0.6375 0.6588 0.6615 0.6871 0.633 0.6558 0.7369
2170.100 0.6967 0.6059 0.5874 0.6383 0.6282 0.5825 0.5253 0.5067 0.5142 0.5159
2189.390 0.5045 0.5363 0.6346 0.5892 0.5479 0.5589 0.5635 0.6045 0.5652 0.5594
2208.680 0.5861 0.5459 0.5233 0.6144 0.6065 0.5185 0.5654 0.5245 0.4438 0.4753
2227.970 0.5335 0.59 0.6356 0.6066 0.5116 0.5073 0.5136 0.5162 0.5847 0.6101
2247.259 0.592 0.578 0.605 0.6321 0.6308 0.5638 0.5359 0.6019 0.6418 0.6002
2266.549 0.6114 0.6643 0.6332 0.6474 0.6706 0.7008 0.6947 0.6419 0.676 0.7441
2285.839 0.719 0.6753 0.6941 0.6942 0.7019 0.7131 0.694 0.7638 0.8319 0.7644
2305.129 0.718 0.7606 0.7485 0.7146 0.7569 0.8253 0.8206 0.669 0.5867 0.6865
2324.418 0.7503 0.7201 0.7278 0.7318 0.716 0.7281 0.7121 0.6806 0.7165 0.7406
2343.708 0.7566 0.7892 0.7318 0.7211 0.7323 0.6462 0.6409 0.7189 0.6434 0.5043
2362.998 0.501 0.5495 0.5652 0.5474 0.5262 0.5672 0.553 0.5436 0.5679 0.5126
2382.288 0.4573 0.489 0.5188 0.4831 0.5173 0.5203 0.5511 0.5608 0.476 0.4991
2401.578 0.5456 0.5691 0.5618 0.5638 0.6112 0.6339 0.6175 0.5529 0.5512 0.5641
2420.867 0.5214 0.5272 0.5604 0.592 0.5393 0.5204 0.6089 0.5926 0.5263 0.492
2440.157 0.5287 0.6112 0.5365 0.5321 0.6221 0.5457 0.5254 0.5493 0.5331 0.5813
2459.447 0.6074 0.5643 0.498 0.4934 0.5688 0.5833 0.5104 0.525 0.5894 0.5476
2478.737 0.5197 0.5219 0.4941 0.4573 0.4621 0.5101 0.5235 0.5298 0.5981 0.6526
2498.026 0.5964 0.6177 0.626 0.5819 0.5485 0.522 0.565 0.6068 0.6095 0.6385
2517.316 0.6693 0.6368 0.6292 0.706 0.8114 0.8243 0.8109 0.8765 0.8521 0.7585
2536.606 0.7511 0.7161 0.707 0.7777 0.7516 0.7373 0.7814 0.7753 0.7479 0.7391
2555.896 0.7378 0.7322 0.736 0.7299 0.6822 0.6662 0.7077 0.7277 0.7103 0.6473
2575.186 0.674 0.7951 0.8064 0.7434 0.7796 0.8438 0.8555 0.8514 0.8598 0.8705
2594.475 0.8656 0.8721 0.8651 0.8636 0.9208 0.9962 0.946 0.9223 0.9713 1.0029
2613.765 1.0271 1.0456 1.087 0.9939 0.9382 0.9984 1.0513 1.036 0.9958 1.0258
2633.055 1.0371 1.0335 1.0609 1.1056 1.1214 1.0897 1.1102 1.0586 1.0783 1.0925
2652.345 1.058 1.1344 1.1898 1.2175 1.2059 1.2105 1.2729 1.2878 1.2557 1.343
2671.634 1.413 1.343 1.2753 1.293 1.313 1.363 1.353 1.2286 1.2881 1.353
2690.924 1.2645 1.1798 1.1635 1.2656 1.2736 1.2612 1.2458 1.1378 1.1372 1.1768
2710.214 1.1961 1.1461 1.1197 1.2042 1.2118 1.1928 1.2227 1.303 1.2803 1.2862
2729.504 1.393 1.363 1.323 1.343 1.393 1.423 1.423 1.413 1.403 1.423
2748.794 1.483 1.493 1.483 1.523 1.483 1.433 1.523 1.573 1.643 1.743
2768.083 1.713 1.723 1.813 1.913 1.953 1.953 1.933 1.953 1.953 2.023
2787.373 2.153 2.233 2.323 2.413 2.473 2.583 2.653 2.643 2.663 2.823
2806.663 3.023 3.073 3.203 3.383 3.573 3.783 3.963 4.163 4.443 4.713
2825.953 4.953 5.203 5.593 6.123 6.613 7.143 7.813 8.733 9.773 11.023
2845.242 12.733 14.773 17.193 20.173 23.573 26.983 30.373 33.383 35.553 36.853
2864.532 36.983 36.193 34.783 32.963 30.983 29.003 27.293 25.933 24.903 24.043
2883.822 23.333 22.703 22.223 21.773 21.503 21.723 22.193 23.023 24.293 25.913
2903.112 27.743 29.993 32.513 35.193 38.233 41.843 45.983 50.753 56.313 62.633
2922.401 69.663 77.003 84.253 90.573 95.253 97.823 97.843 95.353 90.603 84.383
2941.691 77.053 69.123 61.393 54.143 47.873 42.853 39.043 36.413 34.963 34.443
2960.981 34.253 34.403 34.623 34.223 32.963 30.843 28.093 24.983 21.893 19.083
2980.271 16.663 14.793 13.383 12.403 11.803 11.333 11.103 11.083 11.293 11.753
2999.561 12.093 12.383 12.703 12.923 12.903 12.753 12.643 12.663 12.833 13.083
3018.850 13.463 14.003 14.593 15.173 15.663 16.033 16.063 15.493 14.643 13.463
3038.140 11.983 10.613 9.563 8.713 8.123 7.833 7.553 7.273 7.103 6.863
3057.430 6.523 6.243 6.003 5.603 5.173 4.923 4.783 4.493 4.133 3.923
3076.720 3.653 3.443 3.393 3.243 3.023 2.963 2.983 2.973 2.903 2.833
3096.009 2.773 2.773 2.613 2.363 2.373 2.353 2.213 2.103 2.033 1.983
3115.299 1.883 1.783 1.703 1.703 1.713 1.693 1.743 1.683 1.553 1.483
3134.589 1.373 1.2561 1.2814 1.2229 1.0873 1.1229 1.0798 0.9353 0.864 0.8665
3153.879 0.8827 0.8672 0.891 0.9452 0.877 0.7414 0.6744 0.7145 0.744 0.7118
3173.169 0.5931 0.5218 0.5192 0.5292 0.6065 0.6319 0.6758 0.7215 0.6856 0.5653
3192.458 0.6139 0.6772 0.6729 0.7658 0.6456 0.617 0.7526 0.758 0.7085 0.6994
3211.748 0.7237 0.6819 0.7395 0.8078 0.7673 0.7568 0.802 0.7462 0.6351 0.6399
3231.038 0.6831 0.8086 0.933 0.8905 0.8468 0.835 0.7791 0.6829 0.69 0.6311
3250.328 0.5594 0.6716 0.5364 0.4357 0.5545 0.5504 0.4786 0.4706 0.4716 0.4574
3269.617 0.5648 0.5919 0.5399 0.5124 0.4099 0.37911 0.4163 0.28844 0.202 0.30752
3288.907 0.31102 0.36934 0.2771 0.166 0.193 0.178 0.2039 0.2055 0.157 0.182
3308.197 0.2311 0.2528 0.34278 0.34106 0.2214 0.183 0.2583 0.2593 0.2138 0.32719
3327.487 0.4064 0.30525 0.300133 0.2562 0.1982 0.175 0.2444 0.35137 0.35612 0.34623
3346.777 0.34552 0.33999 0.4101 0.4286 0.293317 0.2757 0.2728 0.31467 0.4026 0.5177
3366.066 0.6501 0.7046 0.7205 0.6087 0.5751 0.7213 0.7506 0.7704 0.8467 0.8884
3385.356 0.9644 1.1552 1.313 1.443 1.813 2.213 2.663 2.983 3.063 3.183
3404.646 3.333 3.303 3.193 3.063 2.913 2.773 2.403 1.983 1.673 1.433
3423.936 1.293 1.1128 0.9436 0.9123 0.9632 0.8599 0.7108 0.7486 0.7573 0.6294
3443.225 0.5981 0.6324 0.7339 0.7618 0.7092 0.8224 0.7931 0.8557 0.8916 0.8435
3462.515 0.9815 1.0733 1.1792 1.343 1.333 1.383 1.623 1.773 1.883 1.993
3481.805 2.193 2.163 1.943 1.933 2.063 2.103 2.043 1.983 1.853 1.723
3501.095 1.633 1.483 1.343 1.2646 1.0949 0.8987 0.9452 0.8395 0.6221 0.6582
3520.385 0.6426 0.5766 0.5784 0.572 0.4357 0.4283 0.4284 0.38831 0.34402 0.2387
3539.674 0.147 0.091 0.165 0.2259 0.2284 0.35773 0.3086 0.168 0.163 0.2331
3558.964 0.35395 0.31066 0.32733 0.33841 0.28839 0.3951 0.36234 0.2385 0.2468 0.192
3578.254 0.098 0.172 0.1982 0.165 0.187 0.043 0 0.035 0.044 0.109
3597.544 0.157 0.157 0.089 0.125 0.115 0.106 0.136 0.167 0.292052 0.2376
3616.833 0.2702 0.4391 0.4564 0.35087 0.32671 0.4009 0.4448 0.33813 0.29178 0.254
3636.123 0.32197 0.4097 0.29113 0.2518 0.31458 0.4168 0.35163 0.4286 0.5358 0.4026
3655.413 0.294315 0.34021 0.2706 0.18 0.298202 0.2759 0.2793 0.38791 0.32744 0.2843
3674.703 0.2208 0.33403 0.5621 0.36908 0.2209 0.3102 0.2742 0.2371 0.1955 0.181
3693.993 0.3779 0.4548 0.3172 0.31324 0.4806 0.4832 0.301585 0.3547 0.4935 0.35828
3713.282 0.2598 0.28572 0.3376 0.36656 0.37387 0.34676 0.4442 0.4211 0.28615 0.37964
3732.572 0.4052 0.32089 0.143 0.2134 0.31652 0.2454 0.2572 0.38801 0.4549 0.37855
3751.862 0.4005 0.4554 0.4403 0.4448 0.4196 0.4507 0.4246 0.2145 0.163 0.2565
3771.152 0.2626 0.31028 0.4227 0.4334 0.39154 0.2275 0.2674 0.3499 0.2506 0.2703
3790.441 0.4327 0.4315 0.30954 0.4595 0.4752 0.2772 0.197 0.31276 0.4669 0.5321
3809.731 0.5202 0.4352 0.35593 0.32288 0.273 0.3194 0.38216 0.33828 0.34167 0.295542
3829.021 0.35204 0.4871 0.438 0.35885 0.4249 0.4922 0.4406 0.5545 0.5746 0.468
3848.311 0.492 0.4269 0.56 0.6971 0.6031 0.5238 0.4843 0.6188 0.6588 0.5833
3867.601 0.6483 0.7468 0.7234 0.542 0.4737 0.5439 0.4832 0.4315 0.5155 0.4698
3886.890 0.38862 0.36515 0.4222 0.3368 0.33079 0.4993 0.402 0.37463 0.4266 0.4373
3906.180 0.4333 0.5417 0.512 0.37535 0.36781 0.35733 0.30427 0.37439 0.3985 0.38781
3925.470 0.4203 0.4434 0.6064 0.4756 0.466 0.5195 0.5019 0.4497 0.30841 0.3319
3944.760 0.4788 0.5545 0.36298 0.39104 0.32864 0.3082 0.4689 0.4426 0.38745 0.33869
3964.049 0.4896 0.5369 0.4376 0.4394 0.4871 0.504 0.5309 0.5815 0.5503 0.36639
3983.339 0.2917 0.4649 0.4721 0.4371 0.4447 0.2395 0.253 0.483 0.5547 0.5684
##END=
