##TITLE=2,4-Dichlorobenzenesulfonyl chloride
##JCAMP-DX=4.24
##DATA TYPE=INFRARED SPECTRUM
##ORIGIN=EPA-IR VAPOR PHASE LIBRARY
##OWNER=SRD/NIST
Collection (C) 2018 copyright by the U.S. Secretary of Commerce
on behalf of the United States of America. All rights reserved.
##CAS REGISTRY NO=16271-33-3
##MOLFORM=C 6 H 3 Cl 3 O 2 S
##$NIST SOURCE=MSDC-IR
##STATE=gas
##XUNITS=1/CM
##YUNITS=ABSORBANCE
##XFACTOR=1.
##YFACTOR=0.001
##DELTAX=1.92898
##FIRSTX=549.8
##LASTX=4000.7
##FIRSTY=55.062
##MAXX=4000.7
##MINX=549.759
##MAXY=0.287202
##MINY=0
##NPOINTS=1790
##XYDATA=(X++(Y..Y))
549.759 55.062 52.632 48.032 42.592 37.382 33.392 31.332 32.302 36.782 45.132
569.049 57.512 73.722 92.372 111.262 129.062 146.542 161.172 153.932 131.032 112.202
588.339 94.472 76.852 61.462 51.382 49.382 55.882 71.342 96.872 132.192 175.572
607.628 222.632 263.312 286.182 287.202 266.732 227.972 178.652 127.022 83.432 53.852
626.918 36.502 26.692 21.032 17.532 15.052 13.282 11.602 10.052 9.252 8.632
646.208 7.982 7.362 6.892 6.662 6.392 6.292 6.422 6.642 7.142 8.562
665.498 11.082 15.112 20.902 26.162 29.022 30.082 29.412 26.992 21.942 15.332
684.787 10.672 8.522 7.902 8.472 9.872 11.602 13.412 14.802 14.932 13.532
704.077 11.742 9.562 7.122 5.392 4.232 3.352 2.812 2.702 2.652 2.532
723.367 2.542 2.652 2.692 2.612 2.702 2.932 3.092 3.192 3.182 3.492
742.657 4.022 4.172 4.402 4.622 4.642 4.892 5.202 5.192 5.232 5.222
761.947 4.892 4.652 4.392 4.062 3.722 3.382 3.142 2.912 2.802 2.962
781.236 3.172 3.332 3.592 3.842 4.252 4.972 5.942 7.282 8.892 11.142
800.526 14.062 17.672 22.302 28.422 36.942 49.132 65.692 87.312 114.522 145.402
819.816 174.012 192.072 195.402 185.822 164.982 133.812 96.822 62.692 39.022 26.312
839.106 19.922 16.242 13.982 12.252 10.812 9.742 8.802 8.012 7.532 7.582
858.395 8.502 10.162 12.202 14.682 17.812 21.012 23.742 26.132 27.512 25.882
877.685 22.242 19.102 16.202 13.262 10.362 7.922 6.292 5.102 4.212 3.642
896.975 3.102 2.552 2.242 2.102 2.112 1.942 1.892 2.082 2.002 1.982
916.265 1.962 1.802 1.672 1.592 1.462 1.362 1.392 1.482 1.412 1.282
935.555 1.1331 1.106 1.097 1.1843 1.382 1.2332 1.2353 1.382 1.492 1.422
954.844 1.272 1.312 1.352 1.332 1.432 1.672 1.562 1.362 1.422 1.602
974.134 1.552 1.482 1.542 1.462 1.572 1.812 1.732 1.592 1.642 1.692
993.424 1.802 1.792 1.802 1.702 1.322 1.2203 1.372 1.632 1.962 2.232
1012.714 2.552 2.762 3.262 3.992 4.972 6.512 8.562 11.132 14.352 17.632
1032.003 20.552 22.532 23.052 22.352 20.672 18.102 14.322 10.692 8.242 6.622
1051.293 5.482 4.942 4.982 4.902 4.472 4.442 4.942 5.132 5.032 5.392
1070.583 5.872 6.212 7.162 7.962 8.252 8.622 8.822 9.832 11.392 12.872
1089.873 15.512 19.562 24.942 31.802 38.592 43.752 47.412 49.742 50.482 51.482
1109.163 53.432 56.222 60.712 65.512 68.352 68.242 65.352 59.782 51.262 42.132
1128.452 35.732 33.012 32.972 34.662 37.372 39.972 41.922 43.512 44.542 43.702
1147.742 40.902 37.312 34.172 31.222 28.142 25.582 24.722 25.092 26.062 27.772
1167.032 29.932 33.452 39.252 47.662 59.362 76.152 98.702 125.752 156.202 186.492
1186.322 209.122 219.462 215.162 194.272 162.092 125.092 89.582 61.762 42.682 30.202
1205.611 22.222 17.812 15.782 15.142 15.042 15.382 16.612 17.922 19.302 20.842
1224.901 22.062 22.892 22.902 22.212 21.592 20.492 19.362 19.462 20.352 21.752
1244.191 22.892 23.202 23.082 21.882 19.532 16.212 12.762 10.342 8.622 7.782
1263.481 7.352 7.012 6.782 6.462 6.352 6.382 6.072 5.582 5.202 4.762
1282.771 4.262 3.842 3.662 3.442 3.242 3.142 3.042 2.982 2.932 2.942
1302.060 3.052 3.152 3.242 3.292 3.382 3.492 3.562 3.502 3.422 3.452
1321.350 3.452 3.462 3.482 3.602 3.812 4.032 4.232 4.482 4.802 5.082
1340.640 5.392 5.782 6.222 6.822 7.632 8.512 9.582 11.162 13.032 15.032
1359.930 17.142 18.992 20.632 22.002 22.762 23.072 23.042 22.762 22.412 22.522
1379.219 23.832 26.452 30.472 36.062 43.472 53.482 67.452 86.272 110.382 140.342
1398.509 175.452 211.452 239.842 252.152 248.222 236.122 214.412 177.592 134.772 97.412
1417.799 69.192 49.552 36.872 29.352 25.022 22.522 21.072 20.352 20.322 21.152
1437.089 23.022 25.752 29.382 33.722 38.142 41.912 44.582 46.162 46.982 46.952
1456.378 45.412 42.002 37.792 33.842 29.572 24.322 18.532 13.492 9.742 7.222
1475.668 5.702 4.702 4.062 3.742 3.542 3.462 3.532 3.552 3.622 3.822
1494.958 4.062 4.412 4.802 5.232 5.722 6.192 6.642 6.942 7.162 7.402
1514.248 7.532 7.602 7.722 7.952 8.412 9.002 9.792 10.922 12.362 14.182
1533.538 16.512 19.542 23.472 28.222 33.732 40.052 46.872 53.542 59.482 64.322
1552.827 68.072 70.802 72.812 75.092 78.852 85.232 94.622 105.972 116.852 124.062
1572.117 125.542 120.612 109.842 94.832 77.472 60.212 45.632 35.242 28.552 23.912
1591.407 20.142 16.952 14.232 11.792 9.702 8.062 6.812 5.902 5.162 4.492
1610.697 4.152 3.912 3.682 3.502 3.312 3.272 3.292 3.332 3.442 3.682
1629.986 4.022 4.292 4.542 4.752 4.942 5.082 4.982 4.782 4.542 4.202
1649.276 3.832 3.382 2.862 2.482 2.212 1.932 1.632 1.432 1.362 1.312
1668.566 1.2242 1.1815 1.2181 1.2018 1.252 1.312 1.322 1.292 1.282 1.2173
1687.856 1.1227 1.1433 1.0725 1.0349 1.1047 1.1255 1.2024 1.292 1.422 1.592
1707.146 1.682 1.832 1.942 1.942 1.982 2.072 2.052 1.922 1.802 1.722
1726.435 1.702 1.772 1.902 2.122 2.402 2.622 2.902 3.172 3.292 3.242
1745.725 3.072 2.912 2.662 2.392 2.132 1.962 1.932 1.992 2.082 2.142
1765.015 2.292 2.472 2.682 2.862 2.962 3.032 2.942 2.682 2.402 2.152
1784.305 1.912 1.702 1.572 1.462 1.382 1.362 1.322 1.1939 1.0709 1.0324
1803.594 1.0105 0.9854 0.9394 0.9366 0.9566 1.0096 1.021 0.9485 0.9903 1.0668
1822.884 1.0888 1.1051 1.0995 1.1265 1.1492 1.1584 1.1791 1.1966 1.1841 1.1459
1842.174 1.0963 1.086 1.1403 1.2253 1.382 1.402 1.352 1.342 1.312 1.292
1861.464 1.242 1.2061 1.1047 0.9772 0.8786 0.8177 0.8115 0.7666 0.7044 0.6909
1880.754 0.7123 0.7113 0.7266 0.7644 0.8643 0.9549 0.9991 1.1236 1.282 1.362
1900.043 1.532 1.772 1.992 2.292 2.552 2.812 3.002 3.112 3.052 2.922
1919.333 2.802 2.582 2.352 2.092 1.792 1.562 1.462 1.382 1.292 1.282
1938.623 1.332 1.312 1.272 1.1966 1.1143 1.0922 1.0128 0.9038 0.878 0.8752
1957.913 0.8394 0.8114 0.8715 0.8775 0.8641 0.9271 0.9699 1.0111 1.0427 0.9864
1977.202 0.9165 0.876 0.7798 0.7428 0.746 0.7207 0.7233 0.693 0.6066 0.5458
1996.492 0.5328 0.5162 0.4583 0.4737 0.5312 0.5345 0.5935 0.621 0.5009 0.42
2015.782 0.4792 0.4873 0.4721 0.426 0.3455 0.346 0.3847 0.4014 0.4604 0.4788
2035.072 0.4084 0.3837 0.4174 0.5036 0.4949 0.4294 0.4609 0.4709 0.5138 0.5631
2054.362 0.5323 0.5176 0.5286 0.5728 0.6141 0.6016 0.669 0.7196 0.6666 0.6857
2073.651 0.6846 0.6646 0.5682 0.4624 0.4706 0.4465 0.4429 0.4431 0.4611 0.5339
2092.941 0.518 0.5051 0.4946 0.4142 0.3722 0.4166 0.4571 0.4892 0.5006 0.4774
2112.231 0.465 0.4711 0.5171 0.5274 0.5438 0.5832 0.6677 0.814 0.8665 0.9269
2131.521 1.0555 1.0826 1.1242 1.262 1.252 1.1526 1.1183 1.0105 0.9329 0.8806
2150.810 0.7951 0.7739 0.7162 0.6517 0.6731 0.613 0.5396 0.5169 0.5076 0.4878
2170.100 0.4371 0.4738 0.4657 0.436 0.4597 0.4432 0.4844 0.5901 0.6067 0.5846
2189.390 0.5831 0.6017 0.6081 0.6052 0.6187 0.5242 0.4615 0.5432 0.6387 0.5804
2208.680 0.4835 0.5297 0.5585 0.5693 0.6613 0.7639 0.8776 0.9428 0.9384 0.9257
2227.970 0.8816 0.8903 0.8429 0.7784 0.7198 0.6103 0.5669 0.611 0.6975 0.739
2247.259 0.7491 0.7415 0.7549 0.7224 0.5922 0.5637 0.5458 0.5393 0.5532 0.5102
2266.549 0.5549 0.5614 0.5335 0.6212 0.6728 0.6718 0.6808 0.7585 0.8664 0.8504
2285.839 0.8847 0.9126 0.9142 0.9881 1.0046 1.0248 0.9623 0.9252 0.9029 0.8228
2305.129 0.7653 0.7459 0.7673 0.776 0.7141 0.6593 0.6208 0.5527 0.4923 0.4473
2324.418 0.4902 0.5059 0.5319 0.6069 0.6015 0.5652 0.5926 0.6008 0.6503 0.7815
2343.708 0.8925 0.9089 0.9493 1.0503 1.0358 0.9733 0.9675 0.9585 1.0333 1.1678
2362.998 1.2309 1.302 1.312 1.282 1.392 1.432 1.342 1.252 1.1586 1.1399
2382.288 1.027 0.9672 0.9385 0.8557 0.8688 0.81 0.7511 0.756 0.8491 0.8891
2401.578 0.8233 0.81 0.7724 0.7361 0.7097 0.6577 0.6099 0.551 0.5274 0.5108
2420.867 0.4364 0.4511 0.5162 0.5124 0.5236 0.4912 0.445 0.3846 0.4528 0.5894
2440.157 0.5249 0.4709 0.4708 0.4758 0.4827 0.4927 0.5221 0.4319 0.3922 0.4785
2459.447 0.4749 0.4526 0.4563 0.4463 0.4069 0.4415 0.5341 0.615 0.6781 0.6891
2478.737 0.6975 0.7711 0.8068 0.8131 0.8941 0.9704 1.0097 1.0206 1.1378 1.195
2498.026 1.1299 1.1879 1.2272 1.1908 1.282 1.352 1.272 1.352 1.472 1.512
2517.316 1.612 1.672 1.622 1.562 1.572 1.642 1.732 1.772 1.742 1.722
2536.606 1.802 1.772 1.692 1.652 1.612 1.592 1.552 1.602 1.562 1.412
2555.896 1.332 1.282 1.242 1.1958 1.1889 1.204 1.252 1.292 1.302 1.352
2575.186 1.472 1.542 1.622 1.762 1.812 1.802 1.782 1.712 1.682 1.582
2594.475 1.352 1.2016 1.1022 1.0737 1.0594 1.0505 1.0893 1.0903 1.0763 1.0659
2613.765 1.0396 1.0308 1.01 0.9273 0.8839 0.9288 0.9701 0.9675 0.9512 0.9661
2633.055 0.9514 0.8747 0.8516 0.8423 0.8612 0.9051 0.8947 0.838 0.8332 0.8479
2652.345 0.7473 0.6639 0.6657 0.6799 0.7779 0.8309 0.8016 0.7702 0.7772 0.8715
2671.634 0.9139 0.7649 0.6839 0.6621 0.652 0.6177 0.5388 0.648 0.733 0.66
2690.924 0.6924 0.8405 0.9327 0.905 0.8379 0.9307 0.9827 0.7608 0.6057 0.5964
2710.214 0.5614 0.5003 0.4351 0.4161 0.3785 0.28968 0.3914 0.5225 0.4166 0.33449
2729.504 0.3715 0.30039 0.27738 0.3644 0.3772 0.4248 0.4195 0.4207 0.4879 0.4707
2748.794 0.4907 0.4622 0.3893 0.4248 0.4751 0.4655 0.4519 0.4802 0.5202 0.5989
2768.083 0.6149 0.5276 0.4999 0.4687 0.4957 0.5583 0.4445 0.455 0.5202 0.4917
2787.373 0.5074 0.603 0.6656 0.7181 0.7444 0.6663 0.6527 0.718 0.788 0.8153
2806.663 0.7673 0.6726 0.6803 0.6715 0.6106 0.5796 0.5392 0.5384 0.4455 0.4888
2825.953 0.566 0.4466 0.428 0.4019 0.29982 0.3689 0.4438 0.4574 0.5094 0.5011
2845.242 0.3481 0.187 0.2002 0.2278 0.26223 0.32878 0.3734 0.3799 0.30467 0.28218
2864.532 0.3584 0.36 0.3387 0.34047 0.32814 0.31177 0.26114 0.1699 0.097 0.076
2883.822 0.11 0.1667 0.27486 0.3102 0.29927 0.2191 0.249304 0.26296 0.2193 0.33075
2903.112 0.31743 0.249269 0.2651 0.4187 0.4336 0.3536 0.3552 0.33028 0.29569 0.31074
2922.401 0.4129 0.4235 0.4336 0.4855 0.5536 0.6052 0.5106 0.4478 0.533 0.6065
2941.691 0.5755 0.5162 0.5346 0.5439 0.4762 0.4789 0.4158 0.3617 0.355 0.28462
2960.981 0.3948 0.5881 0.5316 0.4104 0.4659 0.5065 0.4644 0.5292 0.5678 0.6256
2980.271 0.7525 0.7451 0.7279 0.8862 0.9269 0.8497 0.9055 0.9475 1.1185 1.1986
2999.561 1.1004 1.1767 1.392 1.422 1.442 1.552 1.412 1.372 1.372 1.262
3018.850 1.292 1.2109 0.9312 0.8164 0.7758 0.7957 0.7909 0.7483 0.6755 0.6562
3038.140 0.6857 0.6203 0.5817 0.4769 0.4619 0.468 0.5455 0.6236 0.6952 0.6962
3057.430 0.675 0.6887 0.6216 0.6466 0.8144 0.9279 0.9628 1.078 1.292 1.492
3076.720 1.542 1.802 2.152 2.312 2.592 2.922 3.422 4.082 4.762 5.592
3096.009 6.152 6.402 6.472 6.282 5.752 4.842 3.852 3.022 2.292 1.792
3115.299 1.502 1.1486 0.8914 0.8857 0.7786 0.6776 0.7554 0.672 0.6211 0.643
3134.589 0.552 0.4384 0.4374 0.4343 0.413 0.535 0.6308 0.6654 0.518 0.4247
3153.879 0.4328 0.4238 0.3901 0.29627 0.27877 0.28099 0.30907 0.3492 0.4028 0.4642
3173.169 0.443 0.32339 0.25266 0.241231 0.33342 0.5522 0.6176 0.4725 0.3494 0.3492
3192.458 0.33409 0.4224 0.4668 0.3894 0.31428 0.251246 0.31783 0.3961 0.2715 0.2263
3211.748 0.29322 0.188 0.30523 0.30515 0.224 0.3602 0.3136 0.30091 0.4344 0.5011
3231.038 0.4859 0.5348 0.5043 0.437 0.3707 0.32296 0.32959 0.33768 0.26353 0.3972
3250.328 0.512 0.4065 0.4364 0.5682 0.5898 0.4805 0.4624 0.555 0.6837 0.5282
3269.617 0.30392 0.4644 0.5231 0.471 0.5155 0.4309 0.30419 0.241728 0.31739 0.3722
3288.907 0.3714 0.31149 0.23396 0.26015 0.2638 0.2174 0.27023 0.32215 0.3798 0.4793
3308.197 0.5609 0.5154 0.459 0.4668 0.4635 0.3813 0.31453 0.27512 0.31035 0.33971
3327.487 0.33979 0.3682 0.4125 0.4336 0.5256 0.5932 0.389 0.33202 0.3584 0.4398
3346.777 0.5404 0.4477 0.3876 0.5024 0.5769 0.5968 0.5572 0.5471 0.5924 0.4624
3366.066 0.31201 0.31202 0.4905 0.6024 0.4501 0.5112 0.5384 0.3723 0.31374 0.4196
3385.356 0.477 0.3688 0.3637 0.26048 0.1642 0.3817 0.5827 0.5779 0.5253 0.4676
3404.646 0.4651 0.4376 0.31397 0.28776 0.3639 0.32578 0.3695 0.3764 0.4247 0.4834
3423.936 0.3465 0.29238 0.2652 0.29699 0.3516 0.3453 0.31055 0.2796 0.32734 0.4468
3443.225 0.5097 0.5757 0.5797 0.549 0.4957 0.4338 0.3833 0.5168 0.5783 0.5104
3462.515 0.5146 0.4921 0.34105 0.1846 0.29461 0.32218 0.4479 0.6581 0.72 0.5802
3481.805 0.6139 0.6895 0.6502 0.6873 0.4787 0.4027 0.5144 0.3558 0.33111 0.4789
3501.095 0.4943 0.4484 0.6009 0.6952 0.5499 0.5477 0.4042 0.32056 0.3771 0.3922
3520.385 0.5113 0.4448 0.3681 0.517 0.5482 0.5869 0.6545 0.4774 0.29356 0.4337
3539.674 0.5002 0.4668 0.5451 0.5136 0.4352 0.3847 0.382 0.4739 0.4802 0.3559
3558.964 0.3999 0.4847 0.4627 0.4104 0.4133 0.4967 0.5542 0.4817 0.4278 0.4197
3578.254 0.4171 0.4811 0.512 0.5863 0.5889 0.4298 0.3699 0.4097 0.4484 0.4269
3597.544 0.3608 0.4437 0.5106 0.3566 0.2372 0.30799 0.31641 0.31314 0.34175 0.3967
3616.833 0.5234 0.5362 0.375 0.3496 0.4804 0.5423 0.5122 0.5119 0.5835 0.5827
3636.123 0.5321 0.6233 0.6112 0.4392 0.4506 0.3957 0.4178 0.6272 0.415 0.26718
3655.413 0.4898 0.5549 0.4339 0.4498 0.5087 0.4131 0.5057 0.5257 0.4489 0.4266
3674.703 0.28706 0.30668 0.4141 0.3869 0.3947 0.6478 0.8566 0.7779 0.7152 0.7807
3693.993 0.6344 0.4571 0.4398 0.4393 0.31982 0.3853 0.6274 0.5973 0.5584 0.5943
3713.282 0.5782 0.5191 0.5148 0.6157 0.6842 0.5007 0.5147 0.5486 0.4782 0.471
3732.572 0.4627 0.6337 0.6912 0.6232 0.493 0.4749 0.558 0.4502 0.4274 0.4627
3751.862 0.5268 0.6709 0.6963 0.5986 0.5067 0.609 0.667 0.7149 0.7747 0.738
3771.152 0.7816 0.7294 0.6631 0.7567 0.7491 0.5583 0.3554 0.3809 0.4912 0.3488
3790.441 0.28992 0.4029 0.5225 0.5302 0.4077 0.434 0.3637 0.3476 0.4704 0.4135
3809.731 0.416 0.4646 0.4467 0.3474 0.31283 0.4183 0.4971 0.4577 0.5384 0.6254
3829.021 0.5228 0.358 0.3578 0.4616 0.3614 0.29465 0.3988 0.5943 0.5265 0.4169
3848.311 0.4664 0.5215 0.5991 0.5127 0.3555 0.32094 0.3738 0.3455 0.345 0.4877
3867.601 0.4225 0.3798 0.4514 0.6273 0.653 0.4906 0.5086 0.4488 0.375 0.4011
3886.890 0.5661 0.691 0.5278 0.4081 0.5054 0.58 0.6632 0.6095 0.601 0.7119
3906.180 0.6637 0.6183 0.4922 0.4833 0.596 0.6296 0.6458 0.7718 0.7821 0.7811
3925.470 0.7448 0.4642 0.408 0.4245 0.23431 0.23702 0.4143 0.5454 0.7201 0.7735
3944.760 0.669 0.5099 0.3886 0.4212 0.4069 0.29641 0.404 0.4682 0.3488 0.413
3964.049 0.4689 0.4439 0.4936 0.5364 0.4309 0.218 0.245346 0.4192 0.29969 0
3983.339 0.23201 0.4652 0.4306 0.4206 0.4437 0.5057 0.33568 0.1658 0.27077 0.4381
##END=
