##TITLE=Benzyldimethylsilane
##JCAMP-DX=4.24
##DATA TYPE=INFRARED SPECTRUM
##ORIGIN=EPA-IR VAPOR PHASE LIBRARY
##OWNER=SRD/NIST
Collection (C) 2018 copyright by the U.S. Secretary of Commerce
on behalf of the United States of America. All rights reserved.
##CAS REGISTRY NO=1631-70-5
##MOLFORM=C 9 H 14 Si
##$NIST SOURCE=MSDC-IR
##STATE=gas
##XUNITS=1/CM
##YUNITS=ABSORBANCE
##XFACTOR=1.
##YFACTOR=0.001
##DELTAX=1.92934
##FIRSTX=549.9
##LASTX=3999.5
##FIRSTY=6.79
##MAXX=3999.53
##MINX=549.863
##MAXY=0.39834
##MINY=0
##NPOINTS=1789
##XYDATA=(X++(Y..Y))
549.863 6.79 6.1 5.69 5.16 4.63 4.28 4.05 3.9 3.79 3.5796
569.156 3.3735 3.3979 3.3933 3.3924 3.3779 3.3556 3.3109 3.3624 3.61 3.82
588.450 4.04 4.27 4.5 4.97 5.63 6.28 6.94 7.73 8.77 9.94
607.743 11.04 12.04 13.14 14.24 15.18 15.94 16.62 17.25 17.69 18.24
627.037 18.91 19.58 20.28 20.73 20.85 20.84 20.65 20.15 19.49 18.71
646.330 17.74 16.75 15.96 15.3 14.75 14.34 14.03 13.84 13.77 13.84
665.624 14.18 14.86 15.79 17.07 18.95 21.47 24.7 28.75 33.68 39.54
684.917 46.08 53.39 61.12 68.51 74.59 79.49 82.55 81.11 77.11 72.74
704.210 67.09 60.56 54.19 48.4 43.18 38.51 34.54 31.43 29.12 27.67
723.504 27.23 27.85 29.5 31.85 34.31 36.09 36.99 37.32 36.95 35.94
742.797 34.25 31.58 28.42 25.8 24.2 23.62 23.91 24.81 26.16 27.94
762.091 30.09 32.49 35.04 37.53 39.79 41.56 42.98 44.14 44.83 45.16
781.384 45.12 44.73 44.24 43.71 43.26 43.03 42.95 42.98 43.25 43.82
800.678 44.72 46.07 48.05 50.77 54.04 57.37 59.99 61.45 61.94 61.77
819.971 60.81 59.34 57.62 55.89 54.78 54.65 55.55 57.37 60.03 63.12
839.264 66.22 68.93 71.06 72.77 73.97 74.66 74.78 74.43 73.93 73.5
858.558 73.44 74.07 75.67 78.54 83.05 89.61 98.83 111.36 128.07 150.11
877.851 178.14 212.18 250.92 291.57 330.3 362.46 385.1 397.9 398.34 383.31
897.145 355.46 322.3 289.85 260.32 234.05 210.13 187.49 166.23 146.25 127.54
916.438 110.56 95.69 83.01 72.24 63.09 55.31 48.72 43.18 38.46 34.33
935.732 30.73 27.63 24.89 22.46 20.31 18.48 16.9 15.48 14.2 13.1
955.025 12.15 11.27 10.49 9.84 9.29 8.77 8.29 7.87 7.4 7
974.318 6.7 6.38 6.05 5.76 5.55 5.36 5.21 5.11 5.07 5.16
993.612 5.31 5.4 5.43 5.42 5.43 5.43 5.53 5.59 5.53 5.52
1012.905 5.68 6.08 6.66 7.49 8.6 9.91 11.06 11.49 11.3 11.04
1032.199 10.75 10.54 10.54 10.22 9.77 9.76 10.3 11.3 12.51 13.79
1051.492 14.98 15.79 16.24 16.43 16.37 16.02 15.36 14.37 13.16 11.89
1070.786 10.61 9.43 8.49 7.7 6.97 6.51 6.2 5.95 5.77 5.66
1090.079 5.5 5.29 5.18 5.1 4.95 4.79 4.65 4.51 4.4 4.31
1109.372 4.19 4.06 3.96 3.93 4.04 3.94 3.84 3.97 4.1 4.16
1128.666 4.31 4.56 4.77 5.03 5.4 5.96 6.76 7.91 9.42 11.34
1147.959 14.12 17.7 21.97 26.55 30.18 32.24 32.79 32 30.35 28.19
1167.253 25.36 21.84 18.02 14.53 11.82 9.98 8.94 8.75 9.08 9.8
1186.546 11.39 13.75 16.81 20.79 25.51 30.41 34.94 38.41 40.66 41.69
1205.840 41.42 39.9 37.04 32.88 27.8 23.09 19.56 17.28 16.2 16.02
1225.133 16.35 17.3 18.59 20.11 21.87 23.78 25.9 28.3 31.24 34.5
1244.426 38.07 42.1 46.46 50.96 55.07 58.41 61.01 62.78 63.31 61.94
1263.720 58.39 53.34 47.66 41.63 35.42 29.65 24.77 20.82 17.8 15.67
1283.013 14.08 12.87 11.93 11.15 10.6 10.22 9.9 9.65 9.49 9.32
1302.307 9.23 9.26 9.21 9.2 9.11 8.94 8.87 8.67 8.35 8.1
1321.600 7.8 7.41 7.03 6.73 6.44 6.11 5.78 5.51 5.3 5.14
1340.894 4.98 4.8 4.63 4.55 4.58 4.6 4.61 4.62 4.64 4.79
1360.187 4.91 5.03 5.23 5.41 5.55 5.73 5.94 6.11 6.26 6.45
1379.480 6.64 6.83 7.07 7.34 7.62 7.97 8.39 8.89 9.42 10
1398.774 10.62 11.2 11.75 12.25 12.72 13.15 13.44 13.53 13.49 13.41
1418.067 13.2 12.87 12.55 12.25 12 11.83 11.81 11.85 11.94 12.22
1437.361 12.63 13.08 13.57 14 14.32 14.49 14.44 14.07 13.51 12.91
1456.654 12.29 11.48 10.58 9.68 8.83 8.2 7.8 7.62 7.75 8.31
1475.948 9.43 11.25 14.04 18.1 23.38 29.7 36.06 40.7 42.81 43.13
1495.241 42.3 40.4 37.59 32.6 25.26 18.14 12.83 9.58 7.72 6.62
1514.534 5.93 5.48 5.17 4.93 4.73 4.58 4.53 4.49 4.46 4.49
1533.828 4.48 4.48 4.47 4.46 4.42 4.42 4.41 4.3 4.24 4.25
1553.121 4.24 4.34 4.42 4.48 4.64 4.8 5.09 5.52 5.95 6.45
1572.415 7.06 7.81 8.68 9.66 10.88 12.39 14.18 16.33 18.76 21.38
1591.708 24 26.36 28.16 29.21 29.31 28.45 26.83 24.56 21.87 18.94
1611.002 15.92 13.08 10.8 9.03 7.65 6.62 5.86 5.2 4.64 4.21
1630.295 3.87 3.5686 3.3721 3.2138 3.011 2.8752 2.7698 2.7034 2.6983 2.67701
1649.588 2.60999 2.5668 2.5148 2.441 2.418 2.451 2.4935 2.5018 2.4814 2.505
1668.882 2.5468 2.57724 2.58834 2.5632 2.4999 2.4918 2.4902 2.432 2.414 2.377
1688.175 2.311 2.292 2.284 2.276 2.323 2.299 2.289 2.334 2.33 2.372
1707.469 2.388 2.385 2.421 2.451 2.4883 2.5576 2.6312 2.7126 2.8397 2.9502
1726.762 3.0277 3.093 3.1443 3.1958 3.2449 3.3052 3.376 3.3699 3.3132 3.2578
1746.056 3.1823 3.1445 3.1319 3.0834 3.0902 3.0951 3.0715 3.0797 3.1448 3.2797
1765.349 3.3728 3.5136 3.75 3.91 4.07 4.24 4.43 4.65 4.89 5.11
1784.642 5.38 5.64 5.76 5.84 5.87 5.8 5.64 5.42 5.12 4.78
1803.936 4.46 4.15 3.91 3.66 3.4714 3.3329 3.1369 2.9744 2.8862 2.7844
1823.229 2.7112 2.64836 2.62756 2.5973 2.5612 2.61542 2.6854 2.758 2.8227 2.9316
1842.523 3.0716 3.2231 3.3602 3.5216 3.73 3.9 4.06 4.25 4.38 4.49
1861.816 4.62 4.77 4.88 4.94 4.97 4.94 4.89 4.81 4.64 4.45
1881.110 4.24 3.96 3.71 3.4984 3.3058 3.1224 2.9727 2.8695 2.7511 2.67227
1900.403 2.63656 2.65232 2.704 2.7418 2.8389 2.9784 3.1431 3.3347 3.5397 3.8
1919.696 4.12 4.45 4.75 5.03 5.25 5.43 5.62 5.78 5.9 6.02
1938.990 6.12 6.17 6.18 6.06 5.88 5.64 5.36 5.03 4.69 4.32
1958.283 3.9 3.5179 3.2017 3.0033 2.902 2.7982 2.7102 2.64329 2.5717 2.5341
1977.577 2.5339 2.5006 2.425 2.39 2.403 2.391 2.396 2.428 2.433 2.464
1996.870 2.4982 2.5152 2.5358 2.5587 2.5842 2.62376 2.6871 2.7227 2.721 2.7244
2016.164 2.7572 2.7761 2.7827 2.8078 2.7927 2.7946 2.8674 2.9349 3.0055 3.1073
2035.457 3.2499 3.4105 3.61 3.86 4.11 4.39 4.64 4.9 5.1 5.28
2054.750 5.42 5.46 5.53 5.56 5.54 5.56 5.59 5.63 5.79 6.01
2074.044 6.27 6.58 6.99 7.54 8.24 9.08 10.1 11.34 12.85 14.59
2093.337 16.63 19.12 22.18 26 30.92 37.32 45.74 56.87 71.42 89.81
2112.631 111.44 134.37 155.75 173.43 187.26 196.65 198.95 195.13 187.82 175.07
2131.924 156.52 136.03 117.15 100.61 85.86 72.58 60.68 50.33 41.58 34.39
2151.218 28.6 23.99 20.31 17.33 14.92 12.97 11.3 9.86 8.6 7.5
2170.511 6.57 5.86 5.31 4.83 4.44 4.19 3.98 3.78 3.68 3.5671
2189.804 3.4383 3.3532 3.2809 3.2152 3.1597 3.1009 3.0338 2.9567 2.8463 2.7004
2209.098 2.5469 2.414 2.318 2.219 2.095 1.983 1.899 1.857 1.875 1.836
2228.391 1.77 1.727 1.682 1.663 1.61 1.599 1.606 1.584 1.583 1.56
2247.685 1.55 1.56 1.54 1.51 1.49 1.48 1.48 1.5 1.49 1.49
2266.978 1.46 1.44 1.47 1.48 1.48 1.49 1.48 1.52 1.54 1.55
2286.272 1.585 1.628 1.643 1.672 1.712 1.722 1.773 1.809 1.865 1.965
2305.565 2.077 2.162 2.17 2.178 2.18 2.15 2.118 2.023 1.988 1.957
2324.858 1.839 1.777 1.751 1.722 1.725 1.749 1.759 1.753 1.74 1.777
2344.152 1.785 1.745 1.758 1.734 1.731 1.781 1.792 1.798 1.798 1.786
2363.445 1.781 1.752 1.713 1.688 1.689 1.655 1.659 1.701 1.675 1.689
2382.739 1.702 1.735 1.815 1.863 1.912 1.938 1.978 2.057 2.087 2.079
2402.032 2.057 2.065 2.056 2.006 1.929 1.88 1.829 1.712 1.661 1.612
2421.326 1.55 1.53 1.55 1.56 1.53 1.51 1.48 1.48 1.48 1.41
2440.619 1.36 1.33 1.33 1.29 1.26 1.31 1.34 1.3 1.27 1.26
2459.912 1.25 1.27 1.24 1.25 1.26 1.2 1.21 1.28 1.24 1.18
2479.206 1.23 1.26 1.27 1.26 1.25 1.3 1.32 1.31 1.33 1.38
2498.499 1.37 1.31 1.32 1.33 1.33 1.35 1.32 1.24 1.2 1.18
2517.793 1.14 1.16 1.2 1.18 1.23 1.24 1.16 1.17 1.22 1.25
2537.086 1.26 1.24 1.28 1.34 1.33 1.33 1.34 1.36 1.38 1.42
2556.380 1.41 1.38 1.45 1.51 1.52 1.51 1.54 1.57 1.629 1.638
2575.673 1.596 1.65 1.682 1.612 1.58 1.56 1.54 1.51 1.46 1.47
2594.966 1.46 1.4 1.41 1.43 1.42 1.41 1.35 1.31 1.32 1.28
2614.260 1.24 1.23 1.23 1.25 1.28 1.3 1.26 1.22 1.18 1.23
2633.553 1.29 1.26 1.23 1.22 1.27 1.29 1.27 1.22 1.21 1.25
2652.847 1.27 1.24 1.22 1.2 1.26 1.28 1.22 1.21 1.22 1.17
2672.140 1.17 1.2 1.19 1.16 1.09 1.04 1.03 1.12 1.16 1.11
2691.434 1.1 1.14 1.16 1.18 1.19 1.18 1.22 1.22 1.23 1.24
2710.727 1.24 1.26 1.21 1.25 1.33 1.32 1.26 1.2 1.19 1.24
2730.020 1.26 1.24 1.27 1.32 1.32 1.28 1.3 1.36 1.41 1.48
2749.314 1.51 1.53 1.56 1.51 1.587 1.724 1.81 1.859 1.877 1.977
2768.607 2.086 2.162 2.303 2.433 2.4899 2.60173 2.7682 2.9234 3.1519 3.3983
2787.901 3.5772 3.72 3.83 3.98 4.21 4.42 4.55 4.72 4.93 5.05
2807.194 5.2 5.35 5.42 5.49 5.47 5.51 5.52 5.51 5.6 5.63
2826.488 5.69 5.75 5.71 5.66 5.74 5.82 5.88 5.94 5.98 6.1
2845.781 6.26 6.49 6.76 6.95 7.14 7.37 7.73 8.03 8.28 8.65
2865.074 9.13 9.71 10.22 10.85 11.62 12.42 13.46 14.68 16.04 17.76
2884.368 19.81 22.12 24.64 27.3 29.96 32.43 34.64 36.4 37.64 38.44
2903.661 38.66 38.13 37.08 35.86 34.6 33.17 31.68 30.32 29.04 27.68
2922.955 26.33 25.1 23.89 22.68 21.59 20.62 19.65 18.89 18.35 18.14
2942.248 18.52 19.29 20.52 22.42 25.02 28.38 32.27 36.57 41.14 45.56
2961.542 49.12 51.5 52.63 52.27 50.4 47.29 43.18 38.3 33.29 28.3
2980.835 23.75 20.1 17.22 14.99 13.52 12.74 12.32 12.2 12.38 12.82
3000.128 13.37 14.11 14.97 15.98 17.29 18.84 20.75 22.97 25.57 28.73
3019.422 32.52 36.61 40.66 44.4 47.36 49.08 49.59 49.21 47.81 45.2
3038.715 41.66 37.53 33.15 29.18 26.26 24.65 23.99 24.21 25.51 27.76
3058.009 30.96 34.96 39.31 43.36 46.57 48.67 49.86 50.28 49.89 48.6
3077.302 45.9 42.09 38.35 35.35 32.77 30.56 28.69 26.85 24.84 22.77
3096.596 20.75 18.76 17.1 15.61 14.04 12.63 11.38 10.21 9.17 8.18
3115.889 7.23 6.28 5.5 4.9 4.35 3.79 3.4198 3.25 3.0215 2.66702
3135.182 2.463 2.406 2.231 2.199 2.172 2.017 1.943 2.016 1.955 1.735
3154.476 1.604 1.52 1.51 1.43 1.39 1.33 1.25 1.14 1.01 0.93
3173.769 0.82 0.72 0.55 0.43 0.43 0.37 0.37 0.44 0.48 0.56
3193.063 0.63 0.63 0.54 0.59 0.65 0.57 0.6 0.54 0.39 0.34
3212.356 0.31 0.37 0.27 0.12 0.22 0.2 0.23 0.34 0.46 0.35
3231.650 0.09 0.11 0.12 0.07 0.16 0.13 0.08 0.18 0.14 0.1
3250.943 0.12 0.19 0.34 0.33 0.27 0.35 0.42 0.24 0 0.12
3270.236 0.31 0.21 0.2 0.23 0.23 0.28 0.23 0.17 0.2 0.29
3289.530 0.29 0.15 0.18 0.16 0.11 0.16 0.1 0.12 0.14 0.04
3308.823 0.11 0.18 0.06 0.08 0.15 0.24 0.21 0.04 0.04 0.04
3328.117 0.07 0.12 0.11 0.13 0.18 0.19 0.12 0.18 0.18 0.06
3347.410 0.03 0.07 0.09 0.07 0.07 0.06 0.14 0.28 0.29 0.21
3366.704 0.25 0.3 0.2 0.05 0 0.21 0.29 0.21 0.17 0.17
3385.997 0.19 0.18 0.23 0.15 0.17 0.29 0.35 0.38 0.33 0.32
3405.290 0.38 0.4 0.35 0.15 0.22 0.37 0.26 0.26 0.3 0.37
3424.584 0.38 0.34 0.4 0.52 0.57 0.5 0.42 0.41 0.47 0.59
3443.877 0.64 0.55 0.52 0.53 0.49 0.49 0.51 0.52 0.47 0.52
3463.171 0.53 0.48 0.53 0.53 0.48 0.53 0.58 0.61 0.74 0.73
3482.464 0.63 0.6 0.55 0.53 0.62 0.6 0.59 0.69 0.77 0.83
3501.758 0.77 0.69 0.84 0.98 1.05 1.04 0.99 1.1 1.08 1.05
3521.051 1.07 1.03 1.04 0.94 0.87 0.95 1.12 1.18 1.19 1.15
3540.344 1.05 1.09 1.15 1.08 1.16 1.2 1.22 1.3 1.18 1.13
3559.638 1.15 1.2 1.2 1.2 1.29 1.27 1.33 1.32 1.23 1.28
3578.931 1.3 1.41 1.54 1.58 1.53 1.57 1.643 1.51 1.53 1.54
3598.225 1.43 1.37 1.4 1.4 1.35 1.41 1.33 1.28 1.47 1.55
3617.518 1.48 1.48 1.49 1.48 1.56 1.596 1.5 1.48 1.48 1.45
3636.812 1.5 1.52 1.48 1.596 1.636 1.5 1.56 1.671 1.689 1.679
3656.105 1.64 1.54 1.47 1.53 1.53 1.58 1.598 1.648 1.727 1.641
3675.398 1.634 1.687 1.582 1.53 1.678 1.757 1.734 1.735 1.858 1.887
3694.692 1.957 2.045 1.974 1.984 2.068 2.123 2.083 2.039 2.122 2.15
3713.985 2.048 2.058 2.099 2.043 1.944 2.022 2.151 2.154 2.091 2.045
3733.279 2.094 2.077 2.009 2.023 2.046 2.028 1.985 1.912 1.944 2.078
3752.572 1.99 1.891 1.98 1.957 1.897 1.849 1.857 1.84 1.753 1.75
3771.866 1.743 1.719 1.697 1.72 1.722 1.765 1.794 1.798 1.847 1.819
3791.159 1.868 1.938 1.953 1.935 1.984 2.01 1.927 1.93 1.945 1.878
3810.452 1.833 1.809 1.885 2.029 1.914 1.713 1.769 1.84 1.833 1.773
3829.746 1.639 1.56 1.653 1.694 1.65 1.614 1.57 1.621 1.624 1.727
3849.039 1.79 1.699 1.792 1.912 1.812 1.674 1.619 1.664 1.703 1.653
3868.333 1.607 1.669 1.61 1.48 1.4 1.35 1.45 1.58 1.54 1.41
3887.626 1.44 1.42 1.3 1.23 1.21 1.21 1.27 1.39 1.4 1.34
3906.920 1.31 1.37 1.37 1.29 1.35 1.45 1.36 1.27 1.28 1.31
3926.213 1.34 1.34 1.34 1.37 1.39 1.44 1.47 1.4 1.37 1.32
3945.506 1.31 1.35 1.34 1.36 1.42 1.36 1.3 1.39 1.48 1.45
3964.800 1.51 1.58 1.58 1.53 1.47 1.49 1.51 1.49 1.56 1.596
3984.093 1.49 1.46 1.44 1.51 1.51 1.43 1.6 1.746 1.685
##END=
