##TITLE=3-Methylpyridazine
##JCAMP-DX=4.24
##DATA TYPE=INFRARED SPECTRUM
##ORIGIN=EPA-IR VAPOR PHASE LIBRARY
##OWNER=SRD/NIST
Collection (C) 2018 copyright by the U.S. Secretary of Commerce
on behalf of the United States of America. All rights reserved.
##CAS REGISTRY NO=1632-76-4
##MOLFORM=C 5 H 6 N 2
##$NIST SOURCE=MSDC-IR
##STATE=gas
##XUNITS=1/CM
##YUNITS=ABSORBANCE
##XFACTOR=1.
##YFACTOR=0.001
##DELTAX=1.92898
##FIRSTX=549.8
##LASTX=4000.7
##FIRSTY=1.843
##MAXX=4000.7
##MINX=549.759
##MAXY=0.041073
##MINY=0
##NPOINTS=1790
##XYDATA=(X++(Y..Y))
549.759 1.843 1.853 2.183 2.123 1.893 1.633 2.083 2.743 2.853 2.473
569.049 1.713 1.523 0.8222 0.58093 0.9048 0.51355 0.382 0.7206 1.1675 1.3918
588.339 1.603 1.683 1.3155 0.7876 0.7557 0.826 0.9179 0.677 0.191 0.9487
607.628 1.4221 0.8217 0.7817 1.0167 1.0628 0.726 0.27 0.6635 1.1269 0.9216
626.918 0.56807 0.4328 0.527829 1.0312 0.9905 1.0433 1.1971 0.6648 0.4257 0.227
646.208 0 0.223 0.211 0.373 0.8488 0.8804 0.7374 0.818 0.8122 1.0367
665.498 1.4962 1.523 0.8232 0.54364 0.6204 0.839 1.1449 0.79 0.7027 0.9523
684.787 1.017 1.1162 1.0429 0.8096 1.0869 1.3241 1.1218 1.0937 1.3785 1.418
704.077 1.3362 1.4857 1.913 1.633 1.573 2.123 2.243 2.453 2.563 2.873
723.367 3.093 2.983 3.263 3.513 3.423 3.683 4.063 4.623 5.333 6.593
742.657 9.113 11.713 10.933 9.073 9.393 10.173 11.243 12.323 13.263 14.683
761.947 15.903 16.683 17.593 18.053 19.253 20.743 22.053 25.553 31.473 38.093
781.236 41.073 35.083 26.233 21.973 20.383 19.653 19.303 18.883 17.903 16.633
800.526 15.213 13.903 13.103 12.383 11.493 10.453 9.053 7.703 6.653 5.653
819.816 4.703 4.213 3.783 3.103 2.583 1.973 1.953 2.023 1.593 1.415
839.106 1.3641 1.563 1.713 1.1733 0.9396 0.9982 0.8245 0.7967 0.9216 0.8707
858.395 0.7735 0.9537 1.1774 1.0936 0.9198 0.9389 0.6565 0.7074 0.8787 0.945
877.685 0.9825 0.7959 0.7654 0.8444 0.6364 0.4996 0.7476 0.9232 0.9494 0.7982
896.975 1.0083 1.1179 1.0944 1.1503 1.029 1.0201 1.1 1.1569 1.2221 1.4268
916.265 1.3415 1.0021 1.1729 1.2212 1.0027 1.329 1.603 1.4321 1.3457 1.4112
935.555 1.146 1.4177 1.4769 1.2604 1.723 1.573 1.2104 1.583 1.723 1.3804
954.844 1.3589 1.4455 1.355 1.3748 1.603 1.4958 1.553 1.993 2.133 2.213
974.134 2.123 2.263 2.593 2.843 3.043 3.243 3.433 3.563 4.083 4.813
993.424 5.193 5.293 5.633 5.913 6.173 5.693 4.923 5.053 5.663 5.863
1012.714 5.633 5.683 5.883 5.683 5.443 4.903 4.093 4.143 3.973 4.053
1032.003 4.103 3.523 3.693 4.173 4.443 4.753 5.663 6.503 6.163 6.153
1051.293 7.133 7.923 8.973 10.283 11.593 12.463 12.543 12.313 12.173 12.573
1070.583 12.473 11.713 11.273 10.713 11.533 12.233 11.813 11.563 10.653 9.743
1089.873 8.703 7.243 5.783 4.703 3.633 3.253 2.953 2.373 2.623 2.413
1109.163 1.5087 2.283 2.163 1.4418 2.363 2.363 1.2392 1.543 1.863 1.2357
1128.452 1.683 2.073 1.963 2.343 2.173 1.2701 1.4342 1.3672 2.103 2.323
1147.742 1.4749 1.733 1.963 2.273 2.173 1.603 1.583 1.593 1.673 1.479
1167.032 0.8733 0.8077 0.9888 1.361 1.663 1.793 1.963 1.773 1.2196 0.737
1186.322 0.9001 1.4975 2.013 2.323 2.163 2.753 2.433 1.3948 1.583 2.293
1205.611 2.543 1.4236 0.4452 1.4276 2.093 2.133 2.053 1.843 2.573 2.753
1224.901 3.263 3.523 3.413 3.963 4.543 5.823 7.103 8.373 8.923 9.083
1244.191 9.513 9.163 9.433 10.243 10.113 9.453 8.783 8.463 8.933 9.323
1263.481 8.643 7.233 6.063 4.973 3.823 3.093 2.433 2.173 2.233 2.303
1282.771 2.303 2.293 2.133 1.893 1.993 2.083 1.893 1.803 2.023 2.013
1302.060 1.923 1.943 1.753 1.603 1.613 1.5208 1.4852 1.523 1.573 1.573
1321.350 1.593 1.673 1.723 1.803 1.933 1.993 2.073 2.193 2.303 2.613
1340.640 2.873 3.043 3.243 3.393 3.613 3.983 4.353 4.753 5.373 6.093
1359.930 6.723 7.443 8.233 8.973 9.743 10.343 10.893 11.413 11.623 11.553
1379.219 11.683 12.283 12.593 12.233 11.873 11.743 11.433 10.963 10.253 9.493
1398.509 8.923 8.533 8.563 8.983 9.713 10.833 12.413 14.663 17.433 20.443
1417.799 23.763 26.943 29.523 31.423 32.413 32.873 33.653 35.223 36.883 37.063
1437.089 34.713 33.113 33.563 33.473 32.033 29.013 24.733 20.343 16.943 14.743
1456.378 13.073 11.663 10.313 8.783 7.423 6.443 5.683 5.053 4.643 4.463
1475.668 4.403 4.343 4.273 4.193 4.173 4.203 4.143 4.113 4.163 4.363
1494.958 4.483 4.363 4.303 4.343 4.443 4.403 4.393 4.413 4.373 4.413
1514.248 4.423 4.493 4.503 4.513 4.653 4.823 5.133 5.253 5.343 5.513
1533.538 5.643 5.813 6.073 6.323 6.553 6.863 7.133 7.333 7.523 7.903
1552.827 8.433 9.163 9.863 10.793 12.063 13.263 14.773 16.243 17.393 18.213
1572.117 18.713 18.923 18.643 18.503 18.463 18.323 18.103 17.503 16.853 16.773
1591.407 16.313 14.883 12.843 10.623 8.533 6.643 5.383 4.463 3.703 3.223
1610.697 2.933 2.773 2.503 2.263 2.063 1.673 1.543 1.633 1.4716 1.181
1629.986 1.0791 1.2108 1.3296 1.2016 1.158 1.1262 0.9906 1.0278 1.1126 1.0618
1649.276 1.1209 1.1053 1.0162 1.0179 0.9452 1.0349 1.1355 1.0845 0.9918 0.9945
1668.566 1.0596 1.063 1.1706 1.2036 1.2104 1.2782 1.2796 1.2937 1.4138 1.4951
1687.856 1.4391 1.4154 1.493 1.713 1.813 1.853 1.903 1.743 1.703 1.763
1707.146 1.733 1.783 1.743 1.793 1.943 1.963 1.973 1.873 1.693 1.5149
1726.435 1.3912 1.3244 1.1897 1.2427 1.411 1.371 1.3796 1.3937 1.2619 1.1868
1745.725 1.2472 1.1562 1.1394 1.1707 1.0196 1.0215 1.1107 1.174 1.0932 1.0592
1765.015 1.1328 1.0801 1.0116 1.0341 1.0716 1.0419 1.0125 0.9863 0.986 0.947
1784.305 0.927 0.936 1.0216 1.1324 1.0068 0.8613 0.9714 0.9221 0.8499 0.9545
1803.594 0.916 0.9115 0.8751 0.8393 0.9909 1.0572 1.1576 1.1881 1.0567 1.0736
1822.884 1.0411 1.0407 1.206 1.301 1.2957 1.2889 1.3219 1.3141 1.3944 1.573
1842.174 1.713 1.753 1.733 1.783 1.793 1.813 1.843 1.773 1.663 1.623
1861.464 1.543 1.4575 1.553 1.613 1.5119 1.3413 1.3361 1.3232 1.2293 1.3188
1880.754 1.3089 1.2726 1.3108 1.3955 1.4773 1.633 1.683 1.703 1.813 1.843
1900.043 1.813 1.773 1.843 1.993 2.013 1.993 2.003 1.953 1.973 2.033
1919.333 2.033 2.053 2.013 1.823 1.623 1.533 1.5061 1.4867 1.563 1.613
1938.623 1.633 1.663 1.713 1.873 1.963 1.903 1.963 2.073 2.123 2.093
1957.913 2.093 2.033 1.993 1.833 1.753 1.863 1.753 1.783 1.963 1.913
1977.202 1.763 1.683 1.553 1.463 1.3918 1.3187 1.2677 1.2064 1.2513 1.2024
1996.492 1.1448 1.1509 1.0991 1.0973 1.1426 1.1114 1.0806 1.1036 1.1186 1.1765
2015.782 1.2177 1.1538 1.0251 1.0755 1.2029 1.2427 1.258 1.1697 1.0796 1.1445
2035.072 1.2236 1.1265 1.0773 1.1509 1.2001 1.1146 1.0703 1.2047 1.3062 1.2674
2054.362 1.1806 1.1941 1.2538 1.2599 1.2491 1.2949 1.251 1.2356 1.1699 1.1852
2073.651 1.245 1.1561 1.1753 1.1897 1.2109 1.3395 1.2094 1.096 1.2695 1.2976
2092.941 1.306 1.2486 1.2003 1.2469 1.1588 1.0417 1.0026 1.0489 1.0072 0.9603
2112.231 1.0015 1.1099 1.0976 1.0448 1.0208 0.914 0.9447 1.0128 1.045 1.0609
2131.521 1.0611 1.1723 1.2943 1.2124 1.1126 1.0773 1.0275 0.9916 0.9912 0.9538
2150.810 0.9873 1.0621 1.0845 1.0645 1.0303 1.0201 1.0032 1.0417 1.1636 1.2164
2170.100 1.1888 1.2702 1.3486 1.383 1.3326 1.3966 1.5071 1.4378 1.3879 1.3719
2189.390 1.3749 1.3915 1.3159 1.2643 1.2324 1.2398 1.3774 1.3554 1.121 0.9924
2208.680 0.932 1.0216 1.0253 0.9406 0.9993 0.9312 0.9195 0.9546 1.0257 1.0929
2227.970 1.0715 1.0476 1.0588 1.1017 1.0868 1.1133 1.1129 1.0687 1.0742 0.975
2247.259 0.9845 0.9905 0.9424 0.9701 0.9401 0.9695 0.8945 0.8748 1.0003 1.0181
2266.549 0.9788 0.9119 0.9363 0.9711 0.9482 0.9839 1.0652 1.1218 1.1395 1.1096
2285.839 1.2477 1.3719 1.1932 1.0541 1.1005 1.1424 1.1334 1.0651 1.0789 1.1226
2305.129 1.0387 1.0684 1.0936 1.0544 1.0692 0.991 0.9682 1.0513 0.9805 0.9571
2324.418 0.8707 0.8591 0.9987 1.0261 0.9666 0.8762 1.0053 1.0518 1.0839 1.1005
2343.708 1.0778 1.1451 1.1664 1.312 1.393 1.3984 1.5212 1.563 1.3436 1.138
2362.998 1.1345 1.1095 1.0959 1.1095 1.1651 1.1594 1.1282 1.1857 1.157 1.0552
2382.288 0.9348 0.8567 0.8802 1.0035 1.1737 1.1184 0.9023 0.8822 0.8753 0.9013
2401.578 0.924 0.9432 1.0889 1.1158 1.1212 1.0452 0.9642 0.9345 0.8923 1.0125
2420.867 1.0995 1.1525 1.0226 0.8786 0.955 0.9062 0.9206 1.0203 1.016 0.9719
2440.157 0.9815 0.9144 0.9 1.0232 0.9414 0.866 0.9546 1.0423 0.9557 0.9192
2459.447 0.9212 0.8367 0.832 0.8617 0.9274 0.8915 0.9056 0.85 0.8359 0.9148
2478.737 0.91 0.8581 0.9004 1.0377 1.0038 0.9657 0.8865 0.8469 0.9051 0.9515
2498.026 0.9308 0.9049 0.9744 1.0148 0.9468 0.9645 0.9649 0.8768 1.009 1.0457
2517.316 0.9566 1.0011 0.9639 0.8893 0.777 0.8052 0.8164 0.679 0.8042 0.8721
2536.606 0.58101 0.6417 0.9084 0.8427 0.8421 0.8641 0.8274 0.8751 0.8941 0.9354
2555.896 0.9785 0.8621 0.76 0.8685 0.9687 0.924 0.8926 0.8298 0.8632 0.8592
2575.186 0.7968 0.9011 0.8469 0.7338 0.7317 0.7439 0.8223 0.7664 0.8589 0.8557
2594.475 0.831 0.8049 0.6333 0.7606 0.8811 0.892 0.9603 0.9549 0.8442 0.6796
2613.765 0.6408 0.8717 1.005 0.9538 0.9341 1.0462 1.1032 1.0975 1.1527 1.0719
2633.055 0.8407 0.7068 0.8433 0.9621 0.8725 0.9858 1.0017 0.8837 0.7695 0.8061
2652.345 0.9877 0.8013 0.7477 0.8404 0.7118 0.73 0.7987 0.6774 0.459 0.4919
2671.634 0.61756 0.58171 0.57622 0.6943 0.7902 0.7386 0.7529 0.8533 0.7927 0.6606
2690.924 0.7334 0.7985 0.6742 0.6487 0.7613 0.7619 0.60042 0.6693 0.7508 0.657
2710.214 0.7263 0.8909 0.9437 0.9308 0.8227 0.6324 0.6936 0.8188 0.8285 0.8976
2729.504 1.1158 1.1317 1.0764 1.1984 1.3604 1.3289 1.103 1.0621 1.1436 1.2461
2748.794 1.1991 1.0852 1.0914 0.9445 0.8754 1.1199 1.2093 0.9443 0.8621 0.8705
2768.083 0.872 0.9759 1.0657 0.9786 0.6239 0.6675 0.8784 0.8807 0.8717 0.7702
2787.373 0.8045 0.8595 0.9733 1.1494 1.2102 1.2096 1.1162 1.123 1.3095 1.4916
2806.663 1.475 1.4452 1.663 1.673 1.583 1.633 1.3995 1.3934 1.603 1.563
2825.953 1.467 1.573 1.583 1.4769 1.593 1.763 1.893 1.983 2.073 2.143
2845.242 2.233 2.383 2.603 2.553 2.703 2.983 3.033 3.183 3.353 3.453
2864.532 3.573 3.653 3.753 3.953 4.053 4.073 4.103 4.123 4.193 4.243
2883.822 4.053 4.153 4.373 4.523 4.603 4.563 4.603 4.543 4.653 4.883
2903.112 5.003 5.203 5.493 5.823 6.413 7.053 7.483 8.003 8.823 9.623
2922.401 10.173 11.043 11.933 12.593 13.293 13.633 13.703 13.753 13.943 13.863
2941.691 13.773 13.653 13.093 12.603 12.313 12.023 11.403 10.603 9.893 9.373
2960.981 8.863 8.573 8.583 8.353 8.033 7.373 6.553 6.263 6.053 5.923
2980.271 5.763 5.723 5.653 5.463 5.493 5.393 5.483 5.503 5.443 5.673
2999.561 5.773 5.753 5.723 5.783 5.763 5.753 5.963 6.113 6.063 6.103
3018.850 6.443 6.653 6.593 6.853 7.343 7.723 8.133 8.593 9.133 9.693
3038.140 10.483 11.503 12.403 13.653 15.403 16.993 18.643 20.203 21.133 21.743
3057.430 22.013 22.023 21.863 21.733 22.183 22.543 22.233 21.863 21.593 20.723
3076.720 19.343 17.683 15.723 14.013 12.283 10.703 9.563 8.543 7.993 7.703
3096.009 7.333 6.883 6.613 6.473 6.143 5.793 5.593 5.163 4.683 4.573
3115.299 4.483 4.273 4.093 3.823 3.483 3.453 3.153 2.683 2.513 2.353
3134.589 2.153 2.113 2.173 1.863 1.643 1.743 1.723 1.793 1.753 1.4108
3153.879 1.2919 1.4804 1.783 1.793 1.573 1.4164 1.4653 1.4726 1.1473 1.2907
3173.169 1.4265 1.2124 1.2645 1.1272 0.8959 0.9409 0.9567 1.0209 0.6982 0.4966
3192.458 0.57693 0.6647 0.7081 0.6894 0.9405 0.834 0.7058 0.7006 0.6772 0.6916
3211.748 0.4818 0.4475 0.8265 0.8422 0.6795 0.6969 0.7343 0.60057 0.7315 1.0414
3231.038 0.8966 0.6344 0.6841 0.8537 0.7424 0.58648 0.6687 0.7844 0.8378 1.0111
3250.328 0.8576 0.7469 0.7585 0.5104 0.41 0.475 0.57575 0.5012 0.419 0.5122
3269.617 0.6662 0.7225 0.7072 0.923 0.7195 0.4 0.58939 0.894 0.9889 0.8466
3288.907 0.8896 0.8902 0.8749 0.8507 0.7877 0.6269 0.363 0.323 0.51567 0.6439
3308.197 0.5476 0.4593 0.409 0.6097 0.7499 0.8339 0.7825 0.6286 0.62231 0.375
3327.487 0.59814 0.8629 0.7723 0.7194 0.6611 0.7477 0.7159 0.5578 0.6276 0.6894
3346.777 0.6561 0.7521 0.6448 0.5006 0.393 0.4842 0.4704 0.235 0.327 0.407
3366.066 0.43 0.774 0.84 0.6299 0.4963 0.54045 0.7719 0.58543 0.7521 1.094
3385.356 1.0146 0.7782 0.4828 0.59361 0.7763 0.6739 0.667 0.59007 0.522768 0.9176
3404.646 1.0241 0.6594 0.412 0.52726 0.8087 0.9881 0.7896 0.61762 0.6399 0.7129
3423.936 0.8682 0.9945 0.9861 0.9505 0.8639 0.7334 0.8354 0.933 0.7802 0.6239
3443.225 0.761 0.8493 0.58889 0.4973 0.60733 0.6794 0.6342 0.4414 0.5784 0.7302
3462.515 0.59696 0.6594 0.4751 0.2 0.383 0.6301 0.7122 0.6578 0.6438 0.7438
3481.805 0.718 0.58234 0.9232 0.9551 0.6895 0.4484 0.368 0.384 0.263 0.36
3501.095 0.47 0.6226 0.6343 0.58906 0.7105 0.7189 0.54272 0.38 0.375 0.749
3520.385 0.9277 1.0709 1.123 0.6407 0.57715 0.7867 0.7044 0.525232 0.7161 1.0069
3539.674 0.888 0.55777 0.62243 0.7558 0.57407 0.54549 0.6433 0.9596 0.9016 0.8107
3558.964 0.7374 0.6687 0.6607 0.406 0.531991 0.7456 0.4843 0.352 0.5511 0.6515
3578.254 0.6594 0.6657 0.7054 0.59032 0.6271 0.6326 0.8456 0.8658 0.7758 1.0792
3597.544 1.0857 0.8647 0.60382 0.4962 0.4366 0.4893 0.6936 0.58336 0.408 0.60515
3616.833 0.9558 0.6881 0.174 0.228 0.311 0.53634 0.7305 0.60567 0.6695 0.7739
3636.123 0.60182 0.416 0.396 0.4804 0.7193 0.9425 0.8283 0.7112 0.8165 0.57715
3655.413 0.448 0.58325 0.7546 0.7369 0.6264 0.56348 0.724 0.7437 0.51866 0.5047
3674.703 0.4662 0.277 0.248 0.55457 0.6736 0.7961 0.8753 0.6914 0.4729 0.6393
3693.993 0.833 0.7476 0.57947 0.6048 0.8089 0.57468 0.246 0.51666 0.60282 0.4819
3713.282 0.7061 0.7243 0.61738 0.4868 0.374 0.4349 0.61121 0.55544 0.373 0.57549
3732.572 0.8574 0.7781 0.61544 0.6535 0.58892 0.5042 0.7996 0.7343 0.7314 0.9391
3751.862 0.8555 0.9491 0.8289 0.60171 0.7162 0.9841 0.9006 0.6681 0.4835 0.4983
3771.152 0.5087 0.4401 0.4622 0.4678 0.588 0.6243 0.4707 0.312 0.333 0.4846
3790.441 0.7432 0.60024 0.5102 0.6675 0.6252 0.7349 0.7068 0.9008 1.0665 0.56854
3809.731 0.346 0.58494 0.6575 0.51645 0.52184 0.8194 0.6272 0.392 0.5102 0.7568
3829.021 0.9303 0.4641 0.457 0.4827 0.525229 0.7844 0.6917 0.6749 0.7034 0.6538
3848.311 0.6931 0.8802 1.1342 0.8593 0.779 1.0758 0.8979 0.8809 0.9197 0.8779
3867.601 0.8477 0.9705 0.9229 0.6779 0.9604 1.1255 0.7217 0.6671 0.7832 0.991
3886.890 1.0246 0.60597 0.54736 0.7171 0.5378 0.4737 0.8439 0.8618 0.7903 0.7686
3906.180 0.6504 0.6779 0.5482 0.56433 0.8623 0.6651 0.4725 0.57625 0.259 0.319
3925.470 0.5375 0.395 0.421 0.4855 0.7239 1.0031 0.9549 0.881 0.9388 0.9295
3944.760 0.7421 0.917 1.0597 0.8852 0.7355 0.7984 0.8337 0.53301 0.6163 0.56609
3964.049 0.411 0.9258 1.169 0.8394 0.7288 0.723 0.655 0.6825 0.6576 0.59018
3983.339 0.62121 0.8147 1.0789 0.9796 0.7873 0.877 0.8197 0.7596 0.6543 0.756
##END=
