##TITLE=4-Ethoxybenzoyl chloride
##JCAMP-DX=4.24
##DATA TYPE=INFRARED SPECTRUM
##ORIGIN=EPA-IR VAPOR PHASE LIBRARY
##OWNER=SRD/NIST
Collection (C) 2018 copyright by the U.S. Secretary of Commerce
on behalf of the United States of America. All rights reserved.
##CAS REGISTRY NO=16331-46-7
##MOLFORM=C 9 H 9 Cl O 2
##$NIST SOURCE=MSDC-IR
##STATE=gas
##XUNITS=1/CM
##YUNITS=ABSORBANCE
##XFACTOR=1.
##YFACTOR=0.001
##DELTAX=1.92898
##FIRSTX=549.8
##LASTX=4000.7
##FIRSTY=2.192
##MAXX=4000.7
##MINX=549.759
##MAXY=0.163172
##MINY=0
##NPOINTS=1790
##XYDATA=(X++(Y..Y))
549.759 2.192 2.052 2.182 2.042 1.932 1.812 1.2246 1.1338 1.482 1.812
569.049 1.802 1.862 1.912 1.902 2.102 2.372 2.372 2.322 2.712 2.812
588.339 2.992 3.372 4.042 4.792 5.732 7.212 8.832 11.152 13.772 16.602
607.628 19.662 22.612 25.312 27.082 28.312 29.622 30.642 30.692 29.942 28.472
626.918 26.612 24.692 22.272 20.002 18.782 19.202 21.402 24.362 26.952 29.472
646.208 31.982 32.512 30.812 29.082 27.882 26.772 25.362 23.042 20.092 17.622
665.498 15.142 11.792 8.832 6.692 5.112 4.152 3.642 3.302 3.052 2.832
684.787 2.482 2.312 2.262 2.192 2.092 1.982 2.132 2.292 2.212 2.152
704.077 2.112 2.002 1.952 2.002 2.032 1.902 1.932 2.042 2.112 2.352
723.367 2.622 2.902 3.112 3.392 3.632 3.772 3.842 3.992 4.082 4.252
742.657 4.422 4.262 4.402 4.892 5.362 6.052 6.852 7.662 8.432 9.342
761.947 10.442 11.492 12.252 12.802 12.992 12.882 12.802 12.762 12.582 12.172
781.236 12.022 12.122 12.192 12.212 12.092 11.952 11.772 11.232 10.752 10.732
800.526 10.442 10.062 10.252 10.502 10.752 11.332 12.292 13.412 14.452 15.042
819.816 15.602 16.272 16.422 16.812 17.702 18.752 19.772 20.802 22.332 23.882
839.106 25.232 26.242 26.682 26.782 26.472 26.302 26.532 26.952 27.842 29.822
858.395 32.792 36.822 42.512 49.642 57.862 67.002 76.382 85.292 92.832 97.842
877.685 99.692 98.242 94.002 87.872 80.252 72.012 64.312 57.632 51.832 46.652
896.975 42.242 38.422 34.792 31.462 28.732 26.092 23.712 21.802 19.972 18.382
916.265 17.102 16.192 15.352 14.372 13.292 12.212 11.062 10.052 9.212 8.242
935.555 7.442 6.792 6.112 5.682 5.292 4.722 4.422 4.332 3.992 3.902
954.844 3.662 3.292 3.242 3.062 2.902 2.802 2.782 2.772 2.652 2.702
974.134 2.712 2.522 2.672 2.992 2.962 2.902 3.242 3.472 3.362 3.532
993.424 3.882 4.012 4.122 4.312 4.612 4.952 5.122 5.402 6.042 6.672
1012.714 7.152 7.892 8.802 9.322 10.052 11.502 13.112 14.782 16.842 19.472
1032.003 21.702 23.622 25.552 27.002 28.122 28.602 28.682 27.952 26.442 24.702
1051.293 22.692 20.422 18.072 16.122 14.042 12.112 10.972 10.042 9.012 8.192
1070.583 7.892 7.442 7.112 7.542 7.892 8.282 8.312 8.502 8.962 9.202
1089.873 9.942 10.252 10.102 10.022 10.022 10.132 10.132 10.122 10.372 10.772
1109.163 11.282 11.982 12.322 12.392 11.842 11.142 10.962 10.972 10.952 10.932
1128.452 10.712 10.432 10.622 11.102 12.252 13.722 15.362 17.522 20.052 22.892
1147.742 26.532 31.292 37.192 45.062 55.712 69.852 88.332 111.182 135.582 154.642
1167.032 163.172 161.622 152.812 136.242 110.092 80.162 55.702 40.242 31.642 26.932
1186.322 25.702 26.922 29.242 33.132 38.612 45.822 54.142 62.052 69.402 74.822
1205.611 77.112 76.982 75.102 71.302 67.142 63.892 60.642 57.822 54.952 51.262
1224.901 47.382 43.682 41.052 40.302 41.032 43.912 48.012 53.062 58.782 64.422
1244.191 69.822 74.592 78.832 82.362 85.232 87.932 90.062 90.782 89.732 86.452
1263.481 80.772 72.862 63.562 53.482 43.272 34.482 28.232 24.202 21.812 20.642
1282.771 20.282 20.532 21.072 22.252 23.782 25.422 27.462 29.552 31.562 33.442
1302.060 34.902 35.692 35.732 35.042 33.742 31.812 29.382 26.602 23.682 20.832
1321.350 18.082 15.432 12.982 10.862 9.152 7.992 7.192 6.552 6.022 5.642
1340.640 5.392 5.172 5.022 4.832 4.652 4.562 4.542 4.582 4.582 4.592
1359.930 4.582 4.642 4.862 5.032 5.262 5.462 5.602 5.762 5.932 6.212
1379.219 6.482 6.832 7.442 8.212 9.142 10.142 11.112 12.012 12.682 12.992
1398.509 12.832 12.382 11.732 10.972 10.212 9.532 9.222 9.182 9.212 9.222
1417.799 9.132 8.992 8.732 8.252 7.622 6.862 6.302 5.962 5.772 5.722
1437.089 5.722 5.742 5.822 5.932 6.072 6.252 6.462 6.692 6.802 7.012
1456.378 7.292 7.542 7.812 8.152 8.622 9.142 9.822 10.782 12.012 13.492
1475.668 15.062 16.372 17.022 17.312 17.472 17.282 16.912 16.872 17.682 19.732
1494.958 23.162 28.002 33.762 39.502 43.932 46.072 45.702 43.082 38.422 31.932
1514.248 24.872 18.772 14.452 11.732 9.982 8.842 8.182 7.782 7.412 7.162
1533.538 7.002 6.942 6.932 6.892 6.802 6.782 6.972 7.212 7.512 7.852
1552.827 8.302 8.992 9.862 10.972 12.272 13.962 16.052 18.492 21.302 24.252
1572.117 27.192 29.822 31.982 33.702 35.052 36.302 37.722 39.872 43.842 50.222
1591.407 58.972 69.842 82.052 94.032 103.542 108.482 107.752 101.662 91.082 76.932
1610.697 60.982 45.702 33.582 24.972 19.042 15.022 12.172 10.082 8.622 7.622
1629.986 6.822 6.212 5.882 5.672 5.412 5.342 5.262 5.082 4.982 4.872
1649.276 4.712 4.562 4.502 4.362 4.222 4.112 3.962 3.822 3.722 3.672
1668.566 3.662 3.662 3.622 3.522 3.432 3.462 3.512 3.582 3.632 3.562
1687.856 3.522 3.522 3.542 3.572 3.712 3.882 4.042 4.192 4.262 4.402
1707.146 4.632 4.832 5.132 5.452 5.792 6.242 6.802 7.382 8.122 9.022
1726.435 10.022 11.312 12.802 14.402 16.232 18.292 20.352 22.492 24.762 26.922
1745.725 28.932 30.692 32.192 33.472 34.442 35.202 36.092 37.082 38.392 40.312
1765.015 42.912 46.322 50.692 56.122 62.532 69.652 77.292 84.742 91.022 95.222
1784.305 96.922 96.242 93.032 87.162 78.772 68.882 58.832 49.282 40.742 33.422
1803.594 27.262 22.222 18.182 14.992 12.602 10.812 9.392 8.312 7.562 6.922
1822.884 6.412 6.062 5.732 5.462 5.202 4.952 4.682 4.412 4.192 3.922
1842.174 3.622 3.402 3.232 3.062 2.862 2.652 2.432 2.322 2.242 2.082
1861.464 2.082 2.112 2.022 1.972 1.912 1.872 1.882 1.882 1.892 1.892
1880.754 1.852 1.832 1.892 1.982 2.052 2.122 2.162 2.182 2.242 2.372
1900.043 2.432 2.432 2.552 2.622 2.592 2.622 2.652 2.582 2.522 2.552
1919.333 2.512 2.402 2.292 2.262 2.272 2.202 2.092 2.032 1.952 1.842
1938.623 1.842 1.852 1.692 1.602 1.562 1.502 1.522 1.492 1.482 1.482
1957.913 1.442 1.332 1.322 1.372 1.322 1.332 1.362 1.3094 1.2585 1.2439
1977.202 1.2151 1.1745 1.1832 1.187 1.1658 1.135 1.1289 1.1091 1.1065 1.1154
1996.492 1.1257 1.1206 1.0969 1.1633 1.1931 1.2517 1.402 1.442 1.462 1.542
2015.782 1.602 1.642 1.642 1.582 1.662 1.762 1.752 1.752 1.752 1.732
2035.072 1.792 1.872 1.922 1.982 2.012 2.052 2.042 2.002 2.032 2.012
2054.362 1.952 1.942 1.852 1.832 1.812 1.732 1.762 1.742 1.652 1.612
2073.651 1.612 1.582 1.562 1.612 1.592 1.482 1.412 1.392 1.3101 1.2452
2092.941 1.2288 1.1548 1.1028 1.1763 1.159 1.0385 1.0513 1.0453 0.9556 0.9074
2112.231 0.8609 0.7894 0.7386 0.7726 0.827 0.7975 0.7688 0.7005 0.7526 0.8449
2131.521 0.8372 0.8374 0.7925 0.7125 0.6704 0.701 0.7244 0.7297 0.6716 0.6428
2150.810 0.6825 0.6983 0.7145 0.7537 0.7942 0.7589 0.7211 0.7084 0.67 0.6187
2170.100 0.6245 0.6556 0.5978 0.5851 0.5675 0.5756 0.5745 0.5326 0.5685 0.5487
2189.390 0.4626 0.4979 0.5594 0.4896 0.4632 0.5157 0.573 0.6369 0.6023 0.5184
2208.680 0.4429 0.4139 0.4138 0.40441 0.5061 0.4873 0.4449 0.4666 0.4556 0.4877
2227.970 0.5403 0.5284 0.5213 0.5456 0.5025 0.5293 0.4863 0.4107 0.4216 0.4392
2247.259 0.40622 0.431 0.4962 0.4788 0.4786 0.5277 0.5627 0.5576 0.5676 0.5741
2266.549 0.5567 0.6057 0.6661 0.7084 0.7479 0.745 0.7405 0.7503 0.76 0.7702
2285.839 0.7456 0.7373 0.8069 0.7968 0.7528 0.7388 0.7146 0.7062 0.7609 0.7029
2305.129 0.6228 0.6435 0.65 0.6971 0.693 0.7656 0.8697 0.81 0.7899 0.8015
2324.418 0.7528 0.7173 0.6922 0.7041 0.7414 0.8256 0.8982 0.9331 0.863 0.7393
2343.708 0.692 0.7134 0.6749 0.6172 0.7293 0.7805 0.6888 0.7242 0.7518 0.6893
2362.998 0.7701 0.8283 0.8189 0.8541 0.8823 0.9324 0.932 0.926 1.0297 1.0425
2382.288 0.9719 1.0108 1.1022 1.0984 1.0575 1.0801 1.1625 1.2188 1.2367 1.2543
2401.578 1.2748 1.2353 1.2382 1.3028 1.3069 1.322 1.3017 1.3072 1.3026 1.3002
2420.867 1.352 1.2568 1.1751 1.2323 1.2334 1.1763 1.0651 1.012 1.0181 0.9658
2440.157 1.0274 1.037 0.8993 0.9116 0.9374 0.891 0.9077 0.9554 1.0065 0.9822
2459.447 0.9846 0.9433 0.9195 1.0025 1.0585 1.1458 1.2501 1.2675 1.2181 1.262
2478.737 1.372 1.422 1.362 1.3091 1.322 1.332 1.332 1.2863 1.2267 1.2133
2498.026 1.2142 1.2409 1.303 1.322 1.372 1.352 1.3096 1.2603 1.2375 1.249
2517.316 1.322 1.372 1.2538 1.0995 1.1379 1.1445 1.0715 1.0278 0.9245 1.0035
2536.606 1.1742 1.2059 1.2164 1.2701 1.332 1.412 1.522 1.562 1.632 1.832
2555.896 1.882 1.882 2.022 2.162 2.192 2.222 2.262 2.222 2.112 2.042
2575.186 2.022 1.982 1.862 1.772 1.762 1.782 1.802 1.722 1.712 1.792
2594.475 1.692 1.612 1.612 1.482 1.352 1.402 1.402 1.2812 1.2166 1.1865
2613.765 1.1718 1.1997 1.2096 1.1565 1.0618 1.047 0.9826 0.925 1.0385 1.0438
2633.055 0.9252 0.7851 0.7815 0.8326 0.8466 0.8227 0.7825 0.7201 0.674 0.631
2652.345 0.5897 0.6052 0.5798 0.6118 0.6085 0.6131 0.5704 0.4531 0.4302 0.4792
2671.634 0.543 0.6755 0.7183 0.6239 0.6264 0.7389 0.7025 0.6331 0.6488 0.5989
2690.924 0.6512 0.6758 0.6219 0.6496 0.6658 0.7131 0.8038 0.8485 0.7407 0.6601
2710.214 0.7974 0.8403 0.7656 0.7677 0.751 0.753 0.8145 0.7769 0.7631 0.9159
2729.504 0.9023 0.8024 0.9239 0.9914 0.9787 0.9222 0.9404 1.0998 1.1995 1.2988
2748.794 1.3005 1.2927 1.342 1.3116 1.372 1.412 1.402 1.372 1.2126 1.312
2768.083 1.482 1.442 1.372 1.312 1.342 1.472 1.562 1.432 1.322 1.362
2787.373 1.2898 1.2356 1.2915 1.352 1.392 1.392 1.402 1.362 1.322 1.2634
2806.663 1.322 1.392 1.382 1.462 1.542 1.472 1.512 1.512 1.532 1.612
2825.953 1.552 1.502 1.542 1.602 1.632 1.622 1.542 1.502 1.572 1.652
2845.242 1.752 1.922 2.022 2.092 2.142 2.082 2.172 2.322 2.412 2.622
2864.532 2.852 3.192 3.522 3.762 4.132 4.542 4.912 5.392 5.782 6.172
2883.822 6.592 7.002 7.372 7.552 7.622 7.662 7.762 7.852 7.982 8.112
2903.112 8.162 8.192 8.162 8.282 8.492 8.552 8.492 8.532 8.722 8.832
2922.401 9.002 9.212 9.252 9.362 9.592 10.052 10.582 11.142 11.672 12.042
2941.691 12.392 12.682 12.822 12.502 11.872 11.222 10.372 9.462 8.772 8.172
2960.981 7.642 7.472 7.602 7.892 8.302 8.712 9.422 10.292 11.312 12.632
2980.271 13.992 15.382 16.842 18.182 18.982 19.402 19.602 19.322 18.442 16.812
2999.561 14.822 12.962 11.292 9.822 8.462 7.242 6.182 5.482 4.872 4.192
3018.850 3.852 3.622 3.322 3.142 2.982 2.882 2.782 2.582 2.372 2.322
3038.140 2.432 2.452 2.412 2.382 2.382 2.302 2.252 2.402 2.492 2.442
3057.430 2.442 2.442 2.442 2.392 2.432 2.602 2.762 2.852 3.002 3.282
3076.720 3.612 3.782 3.952 4.162 4.242 4.202 3.842 3.442 3.152 2.972
3096.009 2.902 2.652 2.422 2.282 2.292 2.342 2.302 2.312 2.252 2.042
3115.299 1.792 1.542 1.312 1.342 1.2961 1.1467 1.2209 1.1787 0.9969 0.8904
3134.589 0.7884 0.7407 0.8049 0.9779 0.9753 0.9047 0.8716 0.8429 0.8498 0.8378
3153.879 0.9158 0.9792 0.9361 0.8505 0.6702 0.6374 0.7577 0.6173 0.5119 0.5613
3173.169 0.5312 0.665 0.7224 0.6181 0.6726 0.7116 0.6912 0.6702 0.6789 0.7163
3192.458 0.808 0.7172 0.6966 0.7795 0.5968 0.6189 0.8555 0.9494 0.8347 0.7653
3211.748 0.7012 0.5346 0.39942 0.36806 0.37248 0.4143 0.4772 0.40072 0.4808 0.5581
3231.038 0.3269 0.2161 0.2407 0.30943 0.4266 0.4696 0.2541 0.197 0.268 0.211
3250.328 0.34468 0.2872 0.178 0.2783 0.33746 0.2637 0.19 0.2606 0.33775 0.31075
3269.617 0.36928 0.33923 0.2847 0.37182 0.4912 0.4975 0.30252 0.102 0.113 0.144
3288.907 0.131 0.138 0.174 0.2939 0.2225 0.2975 0.4732 0.4776 0.4215 0.39281
3308.197 0.33445 0.2606 0.2454 0.33247 0.39245 0.195 0.127 0.154 0.201 0.2625
3327.487 0.2841 0.32176 0.209 0.135 0.2163 0.2127 0.3003 0.2635 0.175 0.2273
3346.777 0.178 0.163 0.2215 0.197 0.3443 0.4692 0.4241 0.5133 0.36805 0.32396
3366.066 0.40411 0.39523 0.38657 0.2885 0.32426 0.4479 0.4511 0.4977 0.5556 0.5692
3385.356 0.4921 0.4536 0.5893 0.5996 0.4863 0.2965 0.097 0.174 0.2764 0.2955
3404.646 0.2847 0.2289 0.2969 0.212 0.068 0.169 0.2994 0.39358 0.5256 0.5598
3423.936 0.5674 0.5418 0.4264 0.5253 0.5482 0.4558 0.38841 0.39558 0.5116 0.38083
3443.225 0.2356 0.209 0.314402 0.5301 0.5952 0.4533 0.4173 0.36836 0.40476 0.5224
3462.515 0.40977 0.33478 0.31971 0.4813 0.5826 0.4888 0.4202 0.4873 0.6411 0.5995
3481.805 0.4404 0.5509 0.5526 0.38353 0.4178 0.6763 0.7591 0.6323 0.5557 0.6485
3501.095 0.8963 1.0447 1.0713 1.0558 1.0399 1.17 1.372 1.259 1.1574 1.246
3520.385 1.2346 1.2398 1.422 1.392 1.225 1.372 1.432 1.2585 1.1958 1.1109
3539.674 1.0345 0.9666 0.9175 0.9695 1.0088 0.8916 0.8468 0.8705 0.7983 0.8293
3558.964 0.7423 0.5901 0.5114 0.5496 0.6008 0.5072 0.6062 0.6718 0.5948 0.6068
3578.254 0.6069 0.624 0.5775 0.4824 0.41047 0.4819 0.587 0.4757 0.5209 0.5788
3597.544 0.41132 0.2275 0.201 0.2661 0.207 0.2353 0.206 0.173 0.2198 0.2404
3616.833 0.2611 0.3015 0.33007 0.2534 0.2618 0.2875 0.4373 0.4944 0.46 0.36167
3636.123 0.115 0.106 0.206 0.04 0.046 0.37343 0.36861 0.38936 0.40452 0.4215
3655.413 0.4403 0.2142 0.169 0.312104 0.2355 0.159 0.33658 0.34831 0.284 0.32757
3674.703 0.35424 0.2783 0.33357 0.37478 0.2367 0.2203 0.2878 0.317753 0.32244 0.36325
3693.993 0.4264 0.2835 0.086 0.2311 0.2883 0.2917 0.4456 0.4612 0.38223 0.2559
3713.282 0.277 0.40291 0.2403 0.258 0.4202 0.35993 0.30888 0.2726 0.2714 0.2716
3732.572 0.3431 0.3556 0.32855 0.2739 0.316221 0.39833 0.4411 0.3809 0.2393 0.283
3751.862 0.2969 0.39622 0.38579 0.39292 0.37211 0.179 0.2569 0.35614 0.40203 0.4541
3771.152 0.5158 0.5271 0.40891 0.4313 0.4405 0.39925 0.33921 0.204 0.007 0.023
3790.441 0.073 0.005 0.22 0.248 0.205 0.2591 0.146 0.199 0.4507 0.4546
3809.731 0.34874 0.3521 0.179 0.061 0.2391 0.2955 0.182 0.157 0.33904 0.36949
3829.021 0.123 0.2932 0.5367 0.3856 0.40235 0.35608 0.33779 0.5393 0.4497 0.2223
3848.311 0.2748 0.313487 0.2929 0.5614 0.4973 0.198 0.172 0.194 0.37081 0.34156
3867.601 0.131 0.188 0.2615 0.204 0.32345 0.383 0.2499 0.36706 0.33843 0.196
3886.890 0.273 0.32277 0.2956 0.38168 0.5025 0.38782 0.2269 0.33319 0.4474 0.2526
3906.180 0.2978 0.37471 0.2313 0.074 0 0.108 0.2306 0.2662 0.31074 0.35368
3925.470 0.31059 0.2912 0.2702 0.34616 0.33178 0.287 0.321906 0.38472 0.252 0.009
3944.760 0.031 0.2508 0.4825 0.3596 0.164 0.36687 0.4477 0.188 0.19 0.2981
3964.049 0.38455 0.5533 0.6586 0.6224 0.34297 0.203 0.31006 0.36162 0.2792 0.22
3983.339 0.229 0.2167 0.2512 0.34031 0.315322 0.205 0.2414 0.2942 0.3558 0.2897
##END=
