##TITLE=4-Ethylbenzoyl chloride
##JCAMP-DX=4.24
##DATA TYPE=INFRARED SPECTRUM
##ORIGIN=EPA-IR VAPOR PHASE LIBRARY
##OWNER=SRD/NIST
Collection (C) 2018 copyright by the U.S. Secretary of Commerce
on behalf of the United States of America. All rights reserved.
##CAS REGISTRY NO=16331-45-6
##MOLFORM=C 9 H 9 Cl O
##$NIST SOURCE=MSDC-IR
##STATE=gas
##XUNITS=1/CM
##YUNITS=ABSORBANCE
##XFACTOR=1.
##YFACTOR=0.001
##DELTAX=1.92898
##FIRSTX=549.8
##LASTX=4000.7
##FIRSTY=2.64
##MAXX=4000.7
##MINX=549.759
##MAXY=0.20994
##MINY=0
##NPOINTS=1790
##XYDATA=(X++(Y..Y))
549.759 2.64 2.67 2.66 3.26 3.27 3.22 3.35 3.29 3.2 3.47
569.049 3.62 3.67 3.75 3.83 4 4.19 4.32 4.45 4.78 4.92
588.339 5.59 6.79 8.13 9.93 12.3 15.39 19.67 25.78 33.33 41.96
607.628 50.55 56.9 59.85 60.06 58.98 56.26 49.4 39.12 29.55 22.83
626.918 18.72 16.62 15.91 15.93 16.62 18.27 20.32 22.45 24.74 27.08
646.208 29.5 31.94 33.94 33.42 30.37 27.32 24.89 22.51 19.98 17.4
665.498 14.96 12.68 10.76 9.46 8.41 7.65 7.04 6.44 6.27 6.29
684.787 6.32 6.27 6.29 6.34 6.29 6.32 6.34 6.36 6.31 6.37
704.077 6.45 6.4 6.61 7.01 7.38 7.75 8.2 8.89 9.46 10.01
723.367 10.74 11.36 11.91 12.58 13.16 13.72 14.5 15.09 15.88 17.09
742.657 18.52 20.34 22.87 26.5 31.32 37.32 44.65 52.81 60.5 66.83
761.947 70.43 70.96 69.15 64.82 57.88 48.96 39.61 31.17 24.42 19.92
781.236 17.07 15.37 14.43 14.03 14.43 15.37 16.64 18.24 19.83 21.05
800.526 21.62 21.37 20.95 20.4 19.22 17.89 16.9 16.51 16.65 17.31
819.816 18.5 20.23 22.31 24.73 27.89 31.18 34.41 37.99 41.28 43.95
839.106 46.73 49.66 52.21 53.32 53.07 53.19 54.49 56.8 60.55 66.11
858.395 73.35 82.71 94.5 108.77 125.43 143.35 161.68 178.91 193.06 203.27
877.685 208.96 209.94 205.77 196.78 183.31 166.74 149.12 131.75 115.86 101.26
896.975 87.87 76.04 65.85 57.19 49.87 43.51 38.09 33.78 30.05 26.96
916.265 24.43 22.23 20.56 19.06 17.62 16.37 15.13 13.95 12.93 11.86
935.555 10.71 9.65 8.76 8.03 7.34 6.66 6.23 5.86 5.63 5.58
954.844 5.38 5.22 5.42 5.87 6.14 6.11 6.05 6.05 5.91 5.65
974.134 5.12 4.69 4.38 4.01 3.81 3.62 3.52 3.42 3.35 3.21
993.424 3.37 3.53 3.43 3.78 4.17 4.39 4.45 4.39 4.6 5.13
1012.714 5.46 5.63 5.8 5.64 5.53 5.83 5.94 5.59 5.11 4.79
1032.003 4.58 4.63 4.99 5.33 5.55 5.85 6.03 6.25 6.67 6.91
1051.293 7.59 8.25 8.74 9.23 9.51 9.37 9.06 8.63 7.89 7.07
1070.583 6.23 5.2 4.59 4.26 3.7 3.38 3.23 3.13 3.05 3.02
1089.873 2.93 2.54 2.75 3.21 3.28 3.53 3.73 3.93 4.08 4.22
1109.163 4.19 4.68 5.19 5.49 5.91 5.87 6.28 6.73 6.88 7.46
1128.452 8.25 8.59 8.56 9.09 9.99 10.6 11.14 11.98 12.89 14.05
1147.742 15.81 17.97 20.44 23.24 27.22 32.23 38.14 46.01 56.2 69.19
1167.032 85.22 103.77 122.73 139.1 150.18 153.99 150.76 141.68 127.02 107.17
1186.322 85.34 67.07 55.72 51.81 54.86 63.08 74.8 88.97 103.05 114.14
1205.611 119.97 119.85 115.07 105.52 91.38 74.23 56.56 42.56 33.52 27.87
1224.901 24.38 22.25 21.07 20.56 20.17 19.36 18.52 17.63 16.2 14.59
1244.191 12.95 11.23 9.7 8.25 7.31 6.66 5.95 5.51 5.12 4.94
1263.481 4.73 4.57 4.42 4.29 4.49 4.53 4.51 4.49 4.6 4.79
1282.771 5.01 5.3 5.67 6.05 6.35 6.69 7.01 7.21 7.35 7.49
1302.060 7.51 7.5 7.59 7.68 7.65 7.68 7.8 7.92 8.14 8.32
1321.350 8.33 8.18 7.86 7.48 7.05 6.47 5.98 5.56 5.12 4.78
1340.640 4.56 4.44 4.35 4.28 4.23 4.27 4.26 4.21 4.19 4.15
1359.930 4.09 4.05 4.02 3.94 3.88 3.83 3.83 3.87 3.94 4.06
1379.219 4.19 4.35 4.56 4.81 5.15 5.55 6.01 6.57 7.34 8.24
1398.509 9.34 10.67 12.12 13.75 15.46 17.16 18.57 19.46 19.78 19.63
1417.799 19.2 18.42 17.08 15.36 13.59 12.02 10.77 9.82 9.01 8.5
1437.089 8.26 8.04 7.94 8.05 8.2 8.39 8.63 8.91 9.3 9.67
1456.378 10 10.35 10.61 10.69 10.72 10.7 10.54 10.26 9.9 9.5
1475.668 9.07 8.65 8.27 7.97 7.76 7.6 7.52 7.47 7.36 7.25
1494.958 7.23 7.23 7.15 6.96 6.76 6.49 6.14 5.74 5.3 4.81
1514.248 4.29 3.9 3.55 3.31 3.21 3.02 2.9 2.84 2.73 2.66
1533.538 2.67 2.72 2.73 2.77 2.83 2.87 2.96 3.14 3.38 3.65
1552.827 4.15 4.81 5.53 6.4 7.37 8.43 9.63 10.85 11.83 12.5
1572.117 12.88 12.91 12.59 12.11 11.55 11.03 11.04 11.75 13.38 16.1
1591.407 19.78 24.69 30.95 38.34 46.34 54.08 60.34 63.88 64.29 61.8
1610.697 56.88 49.64 40.68 31.04 22.5 16.49 12.75 10.42 8.91 7.91
1629.986 7.12 6.57 6.12 5.73 5.39 5.12 4.91 4.71 4.58 4.45
1649.276 4.35 4.45 4.43 4.36 4.47 4.58 4.69 4.82 4.98 5.15
1668.566 5.25 5.31 5.37 5.39 5.42 5.36 5.29 5.29 5.28 5.21
1687.856 5.16 5.16 5.21 5.34 5.45 5.53 5.72 6.01 6.4 6.88
1707.146 7.35 7.89 8.6 9.38 10.33 11.46 12.64 13.98 15.61 17.52
1726.435 19.82 22.45 25.36 28.64 32.41 36.37 40.59 45.15 49.71 54.16
1745.725 58.35 62.2 65.54 68.43 70.79 72.78 74.61 76.38 78.5 81.29
1765.015 85.21 90.55 97.59 106.47 117.36 129.89 143.98 159.09 173.88 186.91
1784.305 196.51 201.79 202.77 199.86 192.84 181.22 164.92 145.17 124.59 104.96
1803.594 87.2 71.74 58.64 47.85 39.2 32.33 27.05 23.06 20.05 17.76
1822.884 15.98 14.55 13.39 12.45 11.67 10.9 10.15 9.38 8.62 7.92
1842.174 7.2 6.51 5.86 5.29 4.81 4.32 3.86 3.48 3.25 3
1861.464 2.74 2.58 2.47 2.41 2.37 2.29 2.17 2.06 2.07 2.09
1880.754 2.06 2.06 2.08 2.06 2.1 2.15 2.15 2.27 2.43 2.53
1900.043 2.73 2.92 3.12 3.32 3.46 3.63 3.87 4.1 4.28 4.48
1919.333 4.54 4.5 4.51 4.49 4.34 4.12 3.89 3.67 3.43 3.12
1938.623 2.87 2.65 2.51 2.37 2.15 2 1.86 1.73 1.65 1.58
1957.913 1.48 1.35 1.2573 1.1934 1.2166 1.1801 1.1565 1.1367 1.1431 1.1246
1977.202 1.0854 1.1058 1.0904 1.0374 0.9422 0.9058 0.9201 0.9017 0.8876 0.9173
1996.492 0.8877 0.8721 0.907 0.8976 0.8777 0.9002 0.918 0.9381 0.9986 1.0321
2015.782 1.0975 1.1841 1.1777 1.1896 1.2465 1.3029 1.38 1.43 1.5 1.57
2035.072 1.65 1.69 1.71 1.77 1.8 1.81 1.82 1.77 1.74 1.83
2054.362 1.86 1.8 1.69 1.65 1.64 1.57 1.53 1.53 1.56 1.52
2073.651 1.45 1.45 1.48 1.46 1.4 1.36 1.39 1.4 1.3364 1.3126
2092.941 1.2652 1.1704 1.075 1.0291 0.9813 0.9133 0.9011 0.913 0.9051 0.853
2112.231 0.7745 0.7364 0.7181 0.652 0.6538 0.6862 0.6716 0.6213 0.5768 0.5883
2131.521 0.5353 0.4971 0.4504 0.4432 0.4719 0.4822 0.4851 0.4425 0.4924 0.5353
2150.810 0.5156 0.5547 0.5934 0.5747 0.562 0.5723 0.55 0.5807 0.615 0.5785
2170.100 0.6437 0.6626 0.6215 0.6585 0.6909 0.692 0.6651 0.6951 0.6821 0.6825
2189.390 0.7579 0.7255 0.7258 0.7776 0.7946 0.7616 0.7386 0.7588 0.7414 0.7283
2208.680 0.8 0.8217 0.7465 0.6773 0.6207 0.5589 0.5799 0.6876 0.7055 0.6815
2227.970 0.6678 0.6967 0.6792 0.6618 0.6327 0.6094 0.6147 0.61 0.6373 0.552
2247.259 0.487 0.5341 0.5348 0.5155 0.5237 0.4825 0.4963 0.5726 0.596 0.5797
2266.549 0.5841 0.6138 0.6242 0.5802 0.5443 0.5656 0.5521 0.5664 0.6496 0.6596
2285.839 0.6354 0.7135 0.7773 0.7839 0.8195 0.8193 0.8392 0.8854 0.9256 0.9174
2305.129 0.9442 0.9864 0.9548 0.9872 0.9906 0.8918 0.8841 0.8901 0.8813 0.9942
2324.418 1.0605 1.0296 1.0157 1.0096 1.0048 1.1029 1.135 1.1592 1.2194 1.2495
2343.708 1.27 1.2448 1.2582 1.3208 1.4 1.41 1.42 1.37 1.2948 1.2939
2362.998 1.2584 1.2623 1.2957 1.3173 1.35 1.4 1.48 1.6 1.67 1.67
2382.288 1.64 1.61 1.61 1.52 1.44 1.34 1.221 1.2088 1.1956 1.2309
2401.578 1.2943 1.201 1.1616 1.2471 1.36 1.42 1.34 1.2666 1.2104 1.2168
2420.867 1.2344 1.1886 1.1211 1.0564 1.0633 1.11 1.0944 1.0244 0.9925 0.9385
2440.157 0.9181 0.9078 0.8272 0.7395 0.7019 0.7181 0.7413 0.7788 0.7162 0.5888
2459.447 0.5522 0.5731 0.5915 0.578 0.5694 0.6105 0.6378 0.7089 0.7639 0.7097
2478.737 0.6713 0.7262 0.7589 0.7719 0.8085 0.7826 0.7527 0.7075 0.617 0.6273
2498.026 0.6487 0.6541 0.7602 0.7647 0.7078 0.7405 0.7925 0.7947 0.844 0.919
2517.316 0.9693 1.0277 0.9576 0.9312 0.9588 0.9688 0.9792 0.9663 0.931 0.9048
2536.606 0.9457 0.9928 1.0296 0.968 0.9022 0.8971 0.8409 0.87 0.9282 0.8646
2555.896 0.8093 0.7955 0.8147 0.8045 0.8367 0.9753 0.9674 0.9172 0.9468 0.9952
2575.186 1.0323 1.0304 1.0595 1.1272 1.1877 1.1946 1.1972 1.2074 1.18 1.1736
2594.475 1.1748 1.148 1.1454 1.1877 1.1334 1.1408 1.1662 1.1312 1.1795 1.08
2613.765 1.0054 1.1677 1.2153 1.1902 1.269 1.35 1.38 1.2975 1.2793 1.3311
2633.055 1.3024 1.2357 1.2149 1.1249 1.0636 1.0481 1.0209 0.9584 0.8817 0.9442
2652.345 1.0175 0.9476 0.8876 0.8542 0.799 0.8292 0.8712 0.8263 0.8361 0.8825
2671.634 0.9343 0.9795 0.9889 1.0952 1.0794 0.9986 1.051 1.0379 1.0171 0.9857
2690.924 1.0132 1.0032 0.9858 0.994 0.9821 1.1094 1.1229 1.0937 1.1286 1.1442
2710.214 1.11 1.1431 1.2225 1.1794 1.1331 1.0548 0.9784 0.9248 0.9286 0.955
2729.504 0.9182 0.9546 1.0325 1.0235 1.0253 1.1197 1.1328 1.1834 1.2339 1.274
2748.794 1.2933 1.2707 1.2552 1.2935 1.39 1.39 1.4 1.43 1.54 1.66
2768.083 1.76 1.9 1.97 1.94 2.02 2.14 2.1 2 2.08 2.19
2787.373 2.03 1.91 1.95 2.02 2.05 2.12 2.11 2.19 2.36 2.34
2806.663 2.39 2.52 2.68 2.79 2.79 2.77 2.83 2.8 2.77 2.86
2825.953 2.96 3.07 3.12 3.11 3.16 3.38 3.69 3.9 4.09 4.23
2845.242 4.41 4.68 5.05 5.41 5.63 5.96 6.47 7.07 7.65 8.29
2864.532 9.17 10.11 11 11.81 12.57 13.43 14.2 14.96 15.77 16.59
2883.822 17.38 17.99 18.4 18.55 18.59 18.39 18.08 17.77 17.39 17.07
2903.112 16.8 16.75 16.86 16.9 16.94 16.79 16.75 16.66 16.47 16.58
2922.401 16.84 17.32 18.13 19.12 20.13 21.41 23.04 24.88 26.83 28.86
2941.691 30.75 32.3 33.22 33.44 33.22 32.56 31.39 30.03 28.88 28.38
2960.981 28.49 29.3 31.09 34.08 38.77 45.19 52.88 59.61 62.76 62.94
2980.271 61.79 59.38 54.06 45.39 36.33 29.35 24.61 21.51 19.35 17.58
2999.561 16.17 15.08 14.05 13.09 12.24 11.49 10.86 10.14 9.43 8.97
3018.850 8.62 8.34 8.24 8.37 8.83 9.52 10.39 11.37 12.18 12.93
3038.140 13.69 14.03 14.1 14.15 13.89 13.25 12.55 11.98 11.42 10.98
3057.430 10.59 10.1 9.59 9.12 8.79 8.67 8.59 8.46 8.32 8.1
3076.720 7.75 7.34 7.04 6.72 6.34 6.04 5.85 5.79 5.67 5.64
3096.009 5.7 5.59 5.19 4.87 4.64 4.28 4 3.9 3.63 3.33
3115.299 3.3 3.15 2.89 2.77 2.65 2.5 2.44 2.34 2.22 2.13
3134.589 2.06 1.95 1.87 1.86 1.67 1.57 1.61 1.51 1.43 1.36
3153.879 1.3119 1.39 1.39 1.2585 1.3098 1.35 1.3059 1.3281 1.1604 1.136
3173.169 1.2627 1.2492 1.1797 1.1435 1.1523 1.1231 1.1071 1.1028 1.1627 1.2828
3192.458 1.1746 1.0394 1.0518 1.0242 0.9353 0.9074 0.9323 0.9824 0.973 0.8874
3211.748 0.742 0.7184 0.8318 0.7849 0.688 0.7278 0.6237 0.5455 0.6906 0.686
3231.038 0.5773 0.4855 0.38769 0.3008 0.327 0.42627 0.37084 0.2855 0.33157 0.42515
3250.328 0.4556 0.40295 0.35059 0.33286 0.349379 0.4621 0.4755 0.2996 0.38009 0.4812
3269.617 0.42344 0.40621 0.4844 0.43047 0.3224 0.36125 0.37811 0.4603 0.4907 0.43626
3288.907 0.39667 0.4269 0.4593 0.522 0.4788 0.39813 0.4481 0.5003 0.4748 0.4838
3308.197 0.5115 0.37589 0.219 0.102 0.137 0.2669 0.33616 0.3217 0.2533 0.3266
3327.487 0.40312 0.464 0.4694 0.38198 0.2613 0.196 0.2821 0.348967 0.3284 0.3277
3346.777 0.43085 0.345314 0.204 0.3238 0.4215 0.35792 0.40693 0.43326 0.38784 0.43244
3366.066 0.37131 0.3115 0.347595 0.2989 0.341184 0.4407 0.5552 0.6128 0.559 0.611
3385.356 0.6259 0.6494 0.7014 0.6292 0.4954 0.5885 0.6274 0.53 0.4963 0.5013
3404.646 0.4953 0.4719 0.4462 0.43976 0.40066 0.40181 0.4838 0.4906 0.5083 0.4505
3423.936 0.34598 0.217 0.233 0.2715 0.269 0.37848 0.36718 0.3014 0.3937 0.42591
3443.225 0.35846 0.3211 0.40273 0.4712 0.4634 0.5182 0.5891 0.518 0.36161 0.41227
3462.515 0.43529 0.39249 0.4755 0.5488 0.6443 0.6675 0.6888 0.8211 0.8753 0.7684
3481.805 0.7782 0.7816 0.8044 0.774 0.7448 0.8314 0.9313 1.0615 1.0432 1.1115
3501.095 1.246 1.42 1.5 1.58 1.74 1.81 1.92 2.09 2.24 2.42
3520.385 2.57 2.69 2.74 2.8 2.97 2.99 2.89 2.7 2.56 2.33
3539.674 2.17 2.16 1.97 1.91 1.76 1.47 1.53 1.53 1.42 1.41
3558.964 1.47 1.45 1.3074 1.254 1.34 1.38 1.35 1.42 1.3169 1.1628
3578.254 1.2216 1.2931 1.1103 0.9879 0.884 0.8088 0.8722 0.9044 0.9498 0.8589
3597.544 0.703 0.6023 0.6051 0.6066 0.6184 0.7238 0.7579 0.5884 0.5406 0.6676
3616.833 0.6062 0.4976 0.51 0.5079 0.5287 0.4866 0.3131 0.33122 0.4933 0.5465
3636.123 0.5406 0.5141 0.4862 0.41762 0.38545 0.41919 0.42166 0.4777 0.4936 0.4841
3655.413 0.4874 0.5044 0.5393 0.5323 0.5238 0.5467 0.5281 0.5125 0.5934 0.521
3674.703 0.564 0.5191 0.35399 0.33414 0.236 0.314 0.457 0.5549 0.43108 0.33004
3693.993 0.37935 0.40292 0.39776 0.4946 0.5872 0.38701 0.2662 0.309 0.38206 0.42275
3713.282 0.339138 0.37769 0.4742 0.42322 0.4376 0.4901 0.64 0.6883 0.5269 0.39741
3732.572 0.43021 0.533 0.4902 0.5384 0.4796 0.309 0.3255 0.36527 0.2532 0.132
3751.862 0.23 0.2966 0.3086 0.3212 0.3146 0.39995 0.4934 0.5058 0.37518 0.207
3771.152 0.2762 0.37474 0.2762 0.2576 0.121 0.111 0.2902 0.2887 0.224 0.37845
3790.441 0.503 0.483 0.37305 0.235 0.283 0.3171 0.2903 0.211 0.2675 0.35106
3809.731 0.472 0.5928 0.5086 0.38062 0.39656 0.41359 0.39599 0.36594 0.211 0.151
3829.021 0.2664 0.208 0.161 0.2819 0.2696 0.165 0.3142 0.37613 0.38816 0.4816
3848.311 0.39926 0.36981 0.41676 0.43914 0.39475 0.4566 0.5505 0.4877 0.33755 0.2983
3867.601 0.42369 0.42407 0.2902 0.2904 0.4554 0.39102 0.2972 0.4989 0.505 0.33508
3886.890 0.2991 0.2919 0.43068 0.5385 0.43598 0.3085 0.258 0.061 0 0.126
3906.180 0.2698 0.4913 0.4318 0.2846 0.2599 0.2503 0.2833 0.42445 0.4713 0.5302
3925.470 0.4783 0.33632 0.446 0.5036 0.4925 0.5217 0.3649 0.21 0.3303 0.4356
3944.760 0.4685 0.5852 0.5212 0.4633 0.4871 0.4435 0.5114 0.676 0.6577 0.37143
3964.049 0.3055 0.3096 0.214 0.36609 0.43485 0.33873 0.40953 0.5447 0.5941 0.5056
3983.339 0.42513 0.4611 0.459 0.3841 0.35982 0.46 0.5041 0.4547 0.4586 0.40164
##END=
