##TITLE=[2.2]Paracyclophane
##JCAMP-DX=4.24
##DATA TYPE=INFRARED SPECTRUM
##ORIGIN=NIST Mass Spectrometry Data Center
##OWNER=NIST Standard Reference Data Program
Collection (C) 2018 copyright by the U.S. Secretary of Commerce
on behalf of the United States of America. All rights reserved.
##CAS REGISTRY NO=1633-22-3
##MOLFORM=C 16 H 16
##$NIST SOURCE=MSDC-IR
##SPECTROMETER/DATA SYSTEM=HP-GC/MS/IRD
##STATE=gas
##XUNITS=1/CM
##YUNITS=ABSORBANCE
##XFACTOR=1.0
##YFACTOR=0.000000600
##DELTAX=4.0
##FIRSTX=550.0
##LASTX=3846.0
##FIRSTY=0.000416
##MAXX=3846
##MINX=550
##MAXY=0.006
##MINY=0
##NPOINTS=825
##XYDATA=(X++(Y..Y))
550.0 693 288 146 193 209 157 144 148 86 131
590.0 294 620 983 1412 1891 2238 2441 2462 2202 1756
630.0 1172 794 536 273 239 344 354 379 497 531
670.0 503 634 679 507 477 598 645 716 961 1520
710.0 2483 3443 3955 3707 2825 1785 989 594 513 566
750.0 623 505 379 394 465 446 412 484 640 857
790.0 1398 2308 3293 4070 4052 3270 1960 1038 776 710
830.0 687 651 658 695 595 496 483 466 446 405
870.0 427 594 727 898 1184 1412 1592 1647 1477 1226
910.0 994 820 812 1031 1302 1450 1304 999 712 445
950.0 343 326 359 341 247 287 309 225 234 310
990.0 401 401 335 288 219 194 215 249 233 276
1030.0 273 227 227 240 276 382 435 422 378 322
1070.0 327 319 498 601 553 576 531 441 440 379
1110.0 277 274 278 311 327 242 207 214 260 327
1150.0 336 346 415 392 357 460 529 593 550 420
1190.0 317 262 262 280 329 323 300 231 267 349
1230.0 336 269 199 210 175 113 94 135 123 95
1270.0 125 113 66 40 0 31 55 63 86 84
1310.0 98 110 99 83 67 113 124 90 155 206
1350.0 223 237 224 258 298 279 263 288 317 326
1390.0 356 400 512 727 935 1087 1058 825 602 476
1430.0 449 448 495 618 665 686 646 580 596 558
1470.0 464 437 498 606 711 865 1157 1401 1481 1239
1510.0 854 531 308 236 239 229 202 173 154 194
1550.0 226 213 201 264 318 372 445 583 804 968
1590.0 1059 1087 977 788 579 427 361 319 318 288
1630.0 288 276 247 230 202 186 173 159 171 185
1670.0 135 150 163 149 167 157 129 121 144 178
1710.0 228 233 206 235 258 206 158 165 185 196
1750.0 212 245 208 199 204 157 128 133 140 166
1790.0 142 122 139 141 168 134 118 118 134 162
1830.0 165 150 141 148 159 196 228 236 285 371
1870.0 446 550 621 598 514 404 356 308 260 251
1910.0 233 212 185 152 133 130 141 153 175 168
1950.0 154 159 152 140 157 162 133 101 88 144
1990.0 136 120 182 203 186 154 176 117 92 88
2030.0 88 141 156 159 137 99 114 159 169 157
2070.0 165 171 143 133 149 156 156 150 159 144
2110.0 144 152 143 147 147 141 168 208 177 160
2150.0 146 143 147 119 132 160 160 175 175 153
2190.0 173 187 198 197 202 191 177 162 162 158
2230.0 152 145 144 146 137 158 164 133 132 147
2270.0 135 152 219 234 196 173 188 169 165 206
2310.0 215 194 177 161 182 184 153 171 183 140
2350.0 110 95 110 112 116 134 116 152 167 167
2390.0 174 144 134 168 181 163 139 130 142 180
2430.0 233 246 233 207 212 201 192 210 217 212
2470.0 199 153 134 152 165 169 185 204 186 133
2510.0 84 113 183 205 163 125 148 114 94 133
2550.0 140 129 103 127 150 117 135 161 202 189
2590.0 103 131 175 157 158 206 220 172 173 201
2630.0 215 168 149 155 204 213 167 201 189 143
2670.0 138 185 214 219 196 202 197 154 178 211
2710.0 189 187 175 148 139 184 234 220 194 201
2750.0 177 155 192 229 229 219 240 256 258 229
2790.0 228 265 275 272 297 304 357 406 364 425
2830.0 517 512 550 801 1187 1804 2740 3487 3713 3397
2870.0 2656 1920 1535 1518 1736 2046 2402 2678 2786 2865
2910.0 2976 3308 4078 5360 7161 8948 10000 9851 8916 7861
2950.0 7217 7243 6368 4844 3541 2440 1904 1699 1655 1698
2990.0 1779 1838 1914 2178 2726 3188 3449 3381 3057 2737
3030.0 2711 2941 2946 2688 2285 1970 1857 1849 1958 1953
3070.0 1756 1514 1205 941 732 583 537 585 550 468
3110.0 490 482 356 255 301 218 137 184 203 220
3150.0 206 187 218 201 232 326 294 236 146 156
3190.0 314 317 230 158 123 125 146 204 261 268
3230.0 214 255 249 216 268 294 237 176 253 272
3270.0 228 223 183 152 118 179 255 244 235 197
3310.0 227 237 148 147 190 208 228 224 201 194
3350.0 213 289 247 161 202 292 257 188 219 220
3390.0 252 311 246 165 222 250 315 294 167 187
3430.0 211 296 352 260 232 234 207 225 268 304
3470.0 271 230 212 193 267 366 380 397 362 262
3510.0 178 199 226 163 159 189 248 308 300 187
3550.0 256 298 224 244 203 222 287 330 276 175
3590.0 231 292 256 251 257 201 189 98 114 254
3630.0 220 212 216 273 271 247 270 294 385 434
3670.0 334 205 260 274 210 168 204 255 279 260
3710.0 201 236 348 351 308 298 186 282 415 302
3750.0 289 342 298 318 318 370 470 429 420 370
3790.0 437 448 356 301 267 281 343 424 411 279
3830.0 180 147 215 405 458
##END=
