##TITLE=Bicyclopentyl
##JCAMP-DX=4.24
##DATA TYPE=INFRARED SPECTRUM
##ORIGIN=NIST Mass Spectrometry Data Center
##OWNER=NIST Standard Reference Data Program
Collection (C) 2018 copyright by the U.S. Secretary of Commerce
on behalf of the United States of America. All rights reserved.
##CAS REGISTRY NO=1636-39-1
##MOLFORM=C 10 H 18
##$NIST SOURCE=MSDC-IR
##SPECTROMETER/DATA SYSTEM=HP-GC/MS/IRD
##STATE=gas
##XUNITS=1/CM
##YUNITS=ABSORBANCE
##XFACTOR=1.0
##YFACTOR=0.000003800
##DELTAX=4.0
##FIRSTX=550.0
##LASTX=3846.0
##FIRSTY=0.000600
##MAXX=3846
##MINX=550
##MAXY=0.038
##MINY=0
##NPOINTS=825
##XYDATA=(X++(Y..Y))
550.0 158 102 76 73 77 101 75 53 61 62
590.0 83 77 73 78 63 54 36 35 53 58
630.0 52 57 54 45 46 40 51 56 33 38
670.0 37 20 24 25 38 62 47 18 24 36
710.0 28 31 35 33 45 41 43 41 30 32
750.0 36 23 19 31 26 25 36 39 47 47
790.0 36 50 48 39 49 40 25 43 68 52
830.0 28 29 32 34 40 50 56 54 54 61
870.0 73 91 106 121 146 172 182 172 154 140
910.0 137 137 145 151 141 142 137 123 108 96
950.0 83 76 71 71 79 69 60 62 67 72
990.0 65 65 70 68 57 51 55 57 62 62
1030.0 53 42 48 44 36 35 23 21 22 17
1070.0 6 4 4 2 9 16 16 8 0 3
1110.0 15 20 16 9 5 4 14 24 23 13
1150.0 20 31 32 40 41 48 53 56 60 59
1190.0 60 58 55 52 55 65 64 66 68 64
1230.0 62 64 72 78 78 74 76 78 79 85
1270.0 86 78 77 79 88 103 110 110 106 116
1310.0 130 143 155 152 145 130 127 144 110 72
1350.0 76 86 109 140 110 88 90 74 59 86
1390.0 96 107 114 90 90 90 116 172 167 151
1430.0 173 237 271 261 319 370 446 468 395 358
1470.0 358 370 321 270 263 247 196 163 148 217
1510.0 220 149 154 157 116 89 86 114 139 105
1550.0 78 99 145 83 35 38 41 42 21 15
1590.0 9 11 16 18 25 22 30 38 35 34
1630.0 32 59 52 41 67 114 124 55 33 43
1670.0 55 63 60 98 100 50 69 116 102 58
1710.0 39 75 93 47 30 66 95 66 50 64
1750.0 84 63 47 41 53 71 49 30 41 46
1790.0 54 50 44 48 26 27 29 20 22 34
1830.0 33 18 17 45 48 17 4 11 10 25
1870.0 36 20 10 8 14 21 22 14 9 12
1910.0 11 12 26 24 12 4 4 13 19 11
1950.0 9 11 5 3 12 12 6 5 5 10
1990.0 19 16 11 5 2 5 2 7 12 6
2030.0 1 2 4 6 7 8 8 9 11 10
2070.0 7 5 10 9 4 9 8 4 7 8
2110.0 9 8 6 8 7 10 12 12 14 14
2150.0 14 9 10 14 12 16 18 19 18 13
2190.0 16 18 17 18 20 18 12 15 20 19
2230.0 13 15 15 13 16 17 20 23 21 24
2270.0 25 19 18 20 20 22 24 29 32 34
2310.0 34 36 43 42 39 40 43 46 47 41
2350.0 40 47 51 50 44 38 34 29 21 13
2390.0 10 9 11 14 16 12 3 0 2 4
2430.0 6 8 9 11 9 9 13 10 13 15
2470.0 14 16 14 12 11 13 14 16 18 19
2510.0 17 14 11 19 21 19 21 22 20 24
2550.0 28 28 28 31 38 39 40 47 47 47
2590.0 53 49 51 56 60 55 45 48 52 52
2630.0 51 49 52 57 53 48 55 57 56 57
2670.0 62 60 62 61 58 60 58 59 63 71
2710.0 73 70 72 74 74 76 80 82 86 89
2750.0 88 100 109 111 116 120 125 133 149 159
2790.0 167 174 189 212 232 251 275 308 355 407
2830.0 467 547 641 768 942 1179 1515 1958 2473 3065
2870.0 3667 4071 4200 4097 3790 3376 3015 2790 2726 2794
2910.0 2957 3183 3443 3715 3996 4333 4806 5501 6455 7577
2950.0 8623 9461 10000 9540 8170 6672 5174 3818 2763 2028
2990.0 1552 1245 1021 854 726 627 537 465 406 357
3030.0 315 273 241 212 189 181 168 150 132 116
3070.0 110 105 91 86 85 85 87 86 81 74
3110.0 70 67 70 70 71 69 65 60 59 60
3150.0 59 56 54 51 47 50 46 44 47 41
3190.0 42 42 41 40 34 29 29 33 33 37
3230.0 41 29 18 29 32 26 31 36 32 25
3270.0 24 30 31 26 25 17 16 27 23 18
3310.0 14 15 24 23 21 14 11 15 16 15
3350.0 14 17 22 21 19 17 10 8 13 9
3390.0 9 13 18 10 4 10 9 9 14 3
3430.0 1 9 10 14 12 9 12 24 35 23
3470.0 7 6 17 31 30 19 11 22 35 32
3510.0 26 16 21 30 43 33 17 16 34 50
3550.0 34 27 14 30 82 59 6 6 24 65
3590.0 59 33 35 23 43 69 58 66 52 76
3630.0 88 27 10 0 42 80 38 22 9 25
3670.0 62 69 46 17 26 33 15 22 28 22
3710.0 51 46 29 55 60 62 108 86 89 112
3750.0 86 57 30 30 30 29 17 23 18 10
3790.0 11 10 28 45 37 17 28 57 48 29
3830.0 25 51 72 61 36
##END=
