##TITLE=2-(p-Nitrophenoxy)ethanol
##JCAMP-DX=4.24
##DATA TYPE=INFRARED SPECTRUM
##ORIGIN=EPA-IR VAPOR PHASE LIBRARY
##OWNER=SRD/NIST
Collection (C) 2018 copyright by the U.S. Secretary of Commerce
on behalf of the United States of America. All rights reserved.
##CAS REGISTRY NO=16365-27-8
##MOLFORM=C 8 H 9 N O 4
##$NIST SOURCE=MSDC-IR
##STATE=gas
##XUNITS=1/CM
##YUNITS=ABSORBANCE
##XFACTOR=1.
##YFACTOR=0.001
##DELTAX=1.92898
##FIRSTX=549.8
##LASTX=4000.7
##FIRSTY=1.73
##MAXX=4000.7
##MINX=549.759
##MAXY=0.14854
##MINY=0.0001203
##NPOINTS=1790
##XYDATA=(X++(Y..Y))
549.759 1.73 1.82 1.64 1.44 1.56 1.73 1.78 1.76 1.74 1.8
569.049 1.7 1.64 1.62 1.68 1.68 1.53 1.67 1.91 1.89 1.62
588.339 1.59 1.8 1.96 2.14 2.17 2.2 2.41 2.63 2.98 3.27
607.628 3.61 4.18 4.79 5.35 5.67 5.97 6.3 6.53 6.64 6.83
626.918 7.04 7.17 7.36 7.46 7.7 8.1 8.35 8.76 9.63 10.7
646.208 11.83 13.02 14.35 15.13 15.01 14.19 12.87 11.38 9.71 7.79
665.498 6.47 5.86 5.4 5.32 5.47 5.78 6.16 6.45 6.71 6.95
684.787 6.99 6.93 6.93 6.73 6.28 5.88 5.56 5.09 4.66 4.42
704.077 3.99 3.49 3.16 2.84 2.51 2.43 2.35 2.31 2.3 2.15
723.367 2.27 2.47 2.69 2.96 3.33 3.85 4.61 5.48 6.43 7.43
742.657 8.33 9.4 10.49 11.35 11.65 11.21 10.37 9.5 8.65 7.73
761.947 6.62 5.6 4.84 4.15 3.54 3.16 3.05 2.93 2.76 2.59
781.236 2.6 2.65 2.47 2.38 2.37 2.35 2.3 2.12 2.24 2.43
800.526 2.33 2.32 2.49 2.66 2.72 2.69 2.95 3.49 3.78 4.28
819.816 5.2 6.26 7.32 8.5 9.94 11.57 13.23 15.19 17.51 19.89
839.106 22.39 25.24 28.39 31.47 34.37 37.06 39.64 41.84 42.86 42.25
858.395 40.39 37.23 32.7 27.45 22.62 18.98 16.43 14.6 13.35 12.66
877.685 12.21 11.94 11.86 11.96 12.24 12.63 13.1 13.56 13.98 14.45
896.975 15.01 15.51 16.07 16.71 17.3 17.89 18.13 17.87 17.31 16.46
916.265 15.25 13.74 12.14 10.75 9.53 8.47 7.74 7.1 6.63 6.28
935.555 5.87 5.59 5.31 5.15 5.1 4.97 4.92 5.09 5.04 4.79
954.844 4.86 4.88 4.67 4.74 4.86 4.8 4.78 4.97 5.31 5.61
974.134 5.98 6.25 6.47 6.68 6.96 7.3 7.65 8.18 8.75 9.05
993.424 9.36 10.27 11.32 12.11 12.94 14.07 15.12 16.17 17.54 18.97
1012.714 20.64 22.63 24.75 27.13 29.83 32.91 36.41 40.09 43.52 46.69
1032.003 49.95 52.65 54.17 54.77 54.28 52.66 50.02 46.85 43.39 39.92
1051.293 36.79 33.91 31.72 29.83 28.29 27.28 26.41 25.32 24.53 24.5
1070.583 24.95 25.73 26.01 26.27 26.71 26.79 26.92 26.66 26.22 25.93
1089.873 25.06 24.27 24.01 24.16 24.27 24.6 26.1 28.1 30.77 33.97
1109.163 36 36.89 36.3 34.17 30.86 25.77 20.36 15.97 12.77 10.66
1128.452 9 7.71 6.99 6.58 6.11 5.95 6.07 6.13 6.42 6.61
1147.742 6.87 7.41 8.3 9.59 11.28 13.9 17.56 22.73 28.65 33.6
1167.032 36.83 38.35 38.5 36.48 32.32 27.31 22.7 19.26 16.86 15.47
1186.322 14.83 14.21 13.69 13.88 14.17 14.45 15.19 15.81 16.7 18.17
1205.611 19.35 20.72 22.42 24.14 26.18 27.84 29.79 32.49 34.98 37.76
1224.901 41.3 45.29 50.16 55.74 61.43 67.41 73.89 80.96 88.6 96.88
1244.191 105.99 115.87 125.9 135.31 143.19 148.1 148.54 144.14 134.89 121.49
1263.481 105.25 88.05 72.69 60.45 51.23 44.59 39.93 36.56 33.98 32.47
1282.771 32.15 32.94 34.75 37.42 40.41 42.56 43.35 43.03 41.59 38.75
1302.060 35.02 31.44 28.82 27.29 26.71 27 28 29.4 30.95 32.49
1321.350 33.86 35.15 36.68 38.74 41.77 46.46 53.55 63.49 76.38 91.83
1340.640 108.84 125.17 138.12 145.44 146.21 140.49 128.62 112.08 94.07 78.1
1359.930 65.79 56.9 50.56 45.94 42.26 39.18 36.48 33.85 31.2 28.6
1379.219 25.99 23.48 21.17 19.03 17.12 15.53 14.25 13.21 12.36 11.64
1398.509 10.98 10.45 10.05 9.72 9.4 9.06 8.8 8.63 8.44 8.29
1417.799 8.19 8.08 8.06 8.14 8.19 8.22 8.32 8.46 8.62 8.77
1437.089 9.04 9.33 9.68 10.25 11.06 12.1 13.6 15.69 18.22 20.78
1456.378 22.75 23.85 24.23 24.09 23.24 21.74 20.42 19.84 20 20.75
1475.668 22.02 23.84 26.28 29.61 34.22 40.44 48.58 58.67 69.86 79.83
1494.958 86.16 87.68 84.87 78.62 69.19 57.74 46.89 39.71 36.52 36.13
1514.248 37.65 40.59 44.73 49.84 56.1 62.89 70.26 77.83 84.86 90.75
1533.538 95.03 97.18 97.01 94.86 91.05 85.39 77.76 68.99 60.12 51.6
1552.827 44.18 37.67 32.42 28.28 25.09 23.02 21.67 20.93 20.83 21.37
1572.117 22.43 24.22 26.97 30.75 35.7 42.11 49.85 58.9 68.93 79
1591.407 88.08 95.17 99.14 99.33 95.64 88.64 79.65 70.11 61.37 54.38
1610.697 48.99 44.36 39.97 35.39 30.71 26.13 21.7 17.84 14.66 12.09
1629.986 10.11 8.54 7.34 6.48 5.84 5.38 5.07 4.81 4.59 4.44
1649.276 4.29 4.1 3.92 3.84 3.71 3.57 3.45 3.27 3.09 2.87
1668.566 2.73 2.61 2.46 2.27 2.13 2.06 1.96 1.9 1.85 1.83
1687.856 1.73 1.64 1.64 1.63 1.59 1.5 1.43 1.39 1.38 1.36
1707.146 1.33 1.3 1.29 1.28 1.33 1.31 1.24 1.21 1.21 1.23
1726.435 1.27 1.28 1.23 1.23 1.26 1.3 1.37 1.42 1.48 1.58
1745.725 1.7 1.79 1.8 1.93 2.12 2.25 2.38 2.49 2.52 2.48
1765.015 2.41 2.31 2.14 1.95 1.76 1.63 1.5 1.36 1.33 1.37
1784.305 1.35 1.27 1.26 1.3 1.29 1.26 1.26 1.26 1.26 1.23
1803.594 1.21 1.15 1.08 1.04 0.985 0.9837 0.97 0.9066 0.8766 0.8666
1822.884 0.8422 0.826 0.8488 0.8353 0.7946 0.8155 0.7837 0.7325 0.7235 0.737
1842.174 0.7983 0.8103 0.8087 0.8779 0.9186 0.919 0.9316 0.9905 1.04 1.02
1861.464 1.08 1.15 1.16 1.19 1.27 1.33 1.35 1.38 1.45 1.56
1880.754 1.64 1.72 1.85 1.98 2.07 2.14 2.21 2.28 2.33 2.37
1900.043 2.41 2.44 2.42 2.39 2.38 2.36 2.32 2.22 2.14 2.02
1919.333 1.88 1.83 1.7 1.58 1.56 1.49 1.35 1.29 1.33 1.31
1938.623 1.27 1.25 1.2 1.18 1.2 1.23 1.27 1.27 1.26 1.26
1957.913 1.24 1.29 1.3 1.28 1.25 1.24 1.28 1.26 1.2 1.19
1977.202 1.15 1.12 1.1 1.09 1.1 1.11 1.12 1.11 1.11 1.09
1996.492 1.12 1.17 1.2 1.19 1.22 1.29 1.3 1.31 1.32 1.39
2015.782 1.46 1.43 1.42 1.47 1.49 1.43 1.41 1.49 1.53 1.6
2035.072 1.66 1.67 1.75 1.73 1.74 1.77 1.74 1.73 1.69 1.6
2054.362 1.55 1.56 1.53 1.44 1.41 1.42 1.41 1.4 1.39 1.39
2073.651 1.34 1.33 1.34 1.28 1.29 1.27 1.26 1.28 1.25 1.25
2092.941 1.22 1.19 1.22 1.21 1.21 1.21 1.21 1.2 1.17 1.21
2112.231 1.17 1.14 1.13 1.04 0.9923 0.9989 0.9836 0.9446 0.8676 0.7689
2131.521 0.7467 0.7574 0.7123 0.6595 0.6405 0.6657 0.6679 0.6261 0.6523 0.6913
2150.810 0.6606 0.6446 0.6022 0.5713 0.6206 0.582 0.5059 0.5733 0.6075 0.5227
2170.100 0.4672 0.4626 0.4625 0.4502 0.4571 0.4223 0.4088 0.4219 0.444 0.4721
2189.390 0.4278 0.4103 0.4503 0.451 0.4899 0.5513 0.5228 0.5396 0.5835 0.6041
2208.680 0.6415 0.6762 0.7015 0.6722 0.66 0.6697 0.6955 0.7367 0.77 0.7464
2227.970 0.6758 0.6654 0.6685 0.6517 0.6399 0.5952 0.5406 0.5472 0.5621 0.5574
2247.259 0.5872 0.5762 0.5335 0.5437 0.5868 0.6524 0.7017 0.7396 0.7394 0.723
2266.549 0.7535 0.782 0.8026 0.8784 0.8957 0.8561 0.8428 0.8637 0.8838 0.869
2285.839 0.9065 0.8561 0.7725 0.7882 0.7803 0.7359 0.7405 0.7259 0.6602 0.6371
2305.129 0.6929 0.6753 0.5971 0.5995 0.6096 0.6221 0.6036 0.6015 0.6165 0.6394
2324.418 0.6603 0.6655 0.6945 0.6907 0.6672 0.6577 0.6912 0.6867 0.6571 0.6417
2343.708 0.6395 0.6497 0.6596 0.7243 0.7573 0.75 0.7717 0.7779 0.8113 0.8798
2362.998 0.8708 0.901 0.9381 0.9322 0.9572 0.9846 1 1 1.05 1.1
2382.288 1.1 1.14 1.18 1.17 1.14 1.18 1.11 1.08 1.11 1.09
2401.578 1.09 1.05 1.08 1.04 0.9958 0.975 0.9542 0.931 0.9549 1.01
2420.867 0.9712 0.9633 0.9961 1.1 1.16 1.14 1.14 1.16 1.21 1.29
2440.157 1.43 1.53 1.57 1.69 1.8 1.9 2 2.06 2.06 2.05
2459.447 2.02 1.97 2 2.01 1.88 1.81 1.76 1.68 1.59 1.5
2478.737 1.51 1.53 1.55 1.59 1.59 1.52 1.48 1.52 1.57 1.6
2498.026 1.64 1.68 1.67 1.57 1.52 1.55 1.58 1.55 1.46 1.39
2517.316 1.33 1.31 1.29 1.24 1.23 1.25 1.25 1.25 1.31 1.39
2536.606 1.44 1.48 1.48 1.53 1.59 1.65 1.69 1.73 1.73 1.71
2555.896 1.68 1.68 1.64 1.6 1.65 1.61 1.58 1.61 1.6 1.58
2575.186 1.57 1.56 1.51 1.5 1.51 1.51 1.49 1.46 1.41 1.37
2594.475 1.36 1.36 1.39 1.42 1.42 1.37 1.35 1.38 1.42 1.38
2613.765 1.34 1.29 1.23 1.26 1.32 1.2 1.1 1.16 1.12 1.06
2633.055 1.03 1.07 1.16 1.08 1.07 1.11 1.04 0.9885 1.03 1.06
2652.345 0.9503 0.9295 0.9409 0.9743 1.01 0.9969 0.9505 0.9552 0.9094 0.8638
2671.634 0.949 0.9981 1.01 1.08 1.19 1.15 1.06 1.06 1.15 1.18
2690.924 1.18 1.2 1.21 1.25 1.28 1.35 1.44 1.45 1.49 1.47
2710.214 1.44 1.48 1.54 1.56 1.51 1.56 1.64 1.63 1.58 1.64
2729.504 1.71 1.65 1.58 1.57 1.55 1.53 1.6 1.63 1.59 1.56
2748.794 1.58 1.51 1.46 1.52 1.49 1.5 1.5 1.49 1.43 1.48
2768.083 1.54 1.48 1.52 1.58 1.62 1.67 1.69 1.68 1.64 1.63
2787.373 1.74 1.79 1.75 1.76 1.74 1.76 1.85 1.93 1.93 1.92
2806.663 1.93 1.95 2.05 2.14 2.22 2.26 2.26 2.39 2.48 2.61
2825.953 2.75 2.82 2.91 3 3.11 3.27 3.49 3.74 3.96 4.03
2845.242 4.1 4.33 4.55 4.84 5.18 5.42 5.74 6.17 6.61 7.21
2864.532 7.74 8.19 8.88 9.68 10.44 11.11 11.82 12.51 13.16 13.81
2883.822 14.25 14.52 14.66 14.61 14.45 14.23 13.84 13.36 13.01 12.71
2903.112 12.38 12.18 12.1 12.03 12.06 12.26 12.47 12.79 13.25 13.75
2922.401 14.41 15.31 16.28 17.2 18.17 19.23 20.22 21.05 21.8 22.46
2941.691 22.92 23.23 23.35 23.18 22.92 22.54 22.05 21.52 20.94 20.32
2960.981 19.58 18.81 18.06 17.2 16.21 15.34 14.61 13.87 13.05 12.31
2980.271 11.66 10.85 9.96 9.1 8.18 7.32 6.44 5.66 5.04 4.36
2999.561 3.78 3.41 3.12 2.83 2.59 2.32 2.11 1.97 1.85 1.67
3018.850 1.52 1.56 1.5 1.41 1.41 1.32 1.24 1.23 1.2 1.22
3038.140 1.18 1.15 1.23 1.2 1.16 1.14 1.19 1.34 1.48 1.53
3057.430 1.49 1.57 1.67 1.72 1.81 1.99 2.08 2.22 2.47 2.59
3076.720 2.73 3.1 3.57 3.97 4.49 5.01 5.3 5.46 5.32 4.89
3096.009 4.28 3.5 2.8 2.17 1.62 1.23 1.05 0.9278 0.8568 0.8587
3115.299 0.7528 0.628 0.6 0.6123 0.5122 0.4603 0.5095 0.4056 0.3846 0.3809
3134.589 0.3547 0.3217 0.3146 0.2799 0.2603 0.3239 0.2704 0.2688 0.2499 0.2924
3153.879 0.3199 0.304 0.4054 0.3897 0.3777 0.4001 0.3342 0.2714 0.2681 0.3006
3173.169 0.3822 0.4013 0.3482 0.3816 0.4497 0.4344 0.4279 0.5023 0.4644 0.4284
3192.458 0.5379 0.6276 0.6847 0.6691 0.6967 0.7094 0.6245 0.7624 0.8069 0.7108
3211.748 0.6898 0.7127 0.7509 0.799 0.7507 0.6303 0.6416 0.6257 0.5033 0.4025
3231.038 0.4303 0.4791 0.4729 0.4102 0.3486 0.3174 0.3444 0.3278 0.2326 0.2377
3250.328 0.2139 0.1203 0.193 0.2555 0.2711 0.2305 0.2106 0.1844 0.1862 0.2558
3269.617 0.212 0.2279 0.2551 0.2259 0.1791 0.1464 0.2316 0.3032 0.2858 0.2871
3288.907 0.2629 0.253 0.2424 0.2818 0.2648 0.3329 0.4345 0.3197 0.297 0.3293
3308.197 0.2857 0.3253 0.4521 0.4365 0.4336 0.4682 0.4276 0.4175 0.4739 0.5227
3327.487 0.4767 0.4461 0.3972 0.4589 0.5058 0.4741 0.4881 0.4198 0.3094 0.2612
3346.777 0.2331 0.2598 0.4298 0.4653 0.399 0.5153 0.5539 0.462 0.4069 0.4031
3366.066 0.4415 0.4435 0.4243 0.4863 0.4879 0.4074 0.3483 0.3012 0.4616 0.5156
3385.356 0.4052 0.4191 0.3929 0.3027 0.3087 0.3109 0.3028 0.2986 0.3274 0.3632
3404.646 0.3362 0.3863 0.4317 0.4171 0.4415 0.5528 0.5522 0.5405 0.5591 0.4574
3423.936 0.4592 0.4574 0.4763 0.5455 0.47 0.5272 0.5533 0.5053 0.606 0.6004
3443.225 0.4381 0.4241 0.4343 0.4598 0.608 0.5455 0.496 0.6185 0.591 0.5701
3462.515 0.5805 0.4574 0.4621 0.4962 0.4843 0.5003 0.5318 0.5784 0.5879 0.6337
3481.805 0.6239 0.501 0.5283 0.5636 0.4422 0.5247 0.5973 0.6483 0.6919 0.5679
3501.095 0.5896 0.6651 0.6009 0.4242 0.5115 0.7413 0.7067 0.6758 0.63 0.6428
3520.385 0.6381 0.5859 0.6365 0.642 0.7183 0.6638 0.5629 0.6468 0.712 0.7727
3539.674 0.7484 0.7752 0.8138 0.8278 0.8268 0.7387 0.79 0.8168 0.7824 0.8016
3558.964 0.8687 0.8839 0.8694 0.9072 0.8842 0.888 0.8044 0.7211 0.7925 0.837
3578.254 0.9245 0.9882 0.9716 0.8922 0.7564 0.8301 0.9893 0.8696 0.8131 0.9994
3597.544 1.06 1.07 1.27 1.26 1.13 1.17 1.28 1.33 1.36 1.52
3616.833 1.63 1.62 1.64 1.8 1.97 2.17 2.59 2.89 3.1 3.56
3636.123 4.06 4.53 5.11 5.81 6.28 6.62 6.98 7.25 7.39 7.36
3655.413 7.29 7.3 7.41 7.49 7.52 7.54 7.64 7.68 7.52 7.38
3674.703 7.17 6.8 6.28 5.83 5.37 4.83 4.36 3.96 3.6 3.17
3693.993 2.86 2.62 2.33 2.07 1.91 1.79 1.6 1.53 1.44 1.21
3713.282 1.13 1.17 1.19 1.19 1.11 1.08 1.17 1.12 0.989 1.03
3732.572 1.03 0.9839 0.9754 0.9958 1.06 1.02 1.04 1.03 0.9279 0.9284
3751.862 0.9558 0.9708 0.998 1.1 1.04 0.9009 0.9379 0.9716 0.8526 0.6878
3771.152 0.5903 0.598 0.6922 0.6723 0.6559 0.6609 0.6492 0.5895 0.6403 0.7536
3790.441 0.6466 0.6263 0.6868 0.6286 0.5792 0.6203 0.5872 0.4542 0.4504 0.5738
3809.731 0.6001 0.6193 0.688 0.6051 0.5831 0.5984 0.4617 0.4324 0.5089 0.4812
3829.021 0.4146 0.4985 0.5959 0.5025 0.3581 0.4591 0.4826 0.4581 0.5639 0.6579
3848.311 0.6019 0.4612 0.4485 0.4368 0.4368 0.3722 0.4726 0.629 0.5981 0.5414
3867.601 0.5609 0.6306 0.6418 0.5819 0.5362 0.5096 0.4483 0.4625 0.5692 0.7135
3886.890 0.6938 0.6065 0.55 0.529 0.5641 0.5649 0.553 0.5731 0.5206 0.5307
3906.180 0.5218 0.542 0.6155 0.5841 0.6779 0.705 0.5849 0.5288 0.4941 0.5228
3925.470 0.5884 0.5823 0.614 0.6421 0.7544 0.7642 0.7695 0.7222 0.58 0.6114
3944.760 0.6238 0.5909 0.5278 0.4435 0.541 0.6206 0.582 0.617 0.679 0.7333
3964.049 0.7537 0.7408 0.7788 0.7736 0.7369 0.7298 0.6388 0.6864 0.7168 0.7
3983.339 0.6965 0.6134 0.5392 0.5969 0.6656 0.6364 0.4912 0.4818 0.565 0.4522
##END=
