##TITLE=Ethyl 5,6-dimethoxyindole-2-carboxylate
##JCAMP-DX=4.24
##DATA TYPE=INFRARED SPECTRUM
##ORIGIN=EPA-IR VAPOR PHASE LIBRARY
##OWNER=SRD/NIST
Collection (C) 2018 copyright by the U.S. Secretary of Commerce
on behalf of the United States of America. All rights reserved.
##CAS REGISTRY NO=16382-18-6
##MOLFORM=C 13 H 15 N O 4
##$NIST SOURCE=MSDC-IR
##STATE=gas
##XUNITS=1/CM
##YUNITS=ABSORBANCE
##XFACTOR=1.
##YFACTOR=0.001
##DELTAX=1.92898
##FIRSTX=549.8
##LASTX=4000.7
##FIRSTY=6.277
##MAXX=4000.7
##MINX=549.759
##MAXY=0.237237
##MINY=0
##NPOINTS=1790
##XYDATA=(X++(Y..Y))
549.759 6.277 5.657 5.527 4.797 3.697 2.937 2.177 1.987 1.927 1.637
569.049 1.717 1.337 0.6835 0.461 0.7711 1.0456 1.0018 1.152 1.1257 0.8969
588.339 0.9044 1.2398 1.637 1.687 1.677 1.827 1.847 1.727 1.647 1.657
607.628 1.807 2.327 2.457 1.977 1.577 2.237 2.777 2.657 2.637 2.387
626.918 2.367 2.627 2.657 2.577 2.387 2.307 2.337 1.897 1.547 1.477
646.208 1.437 1.2594 1.2317 1.1505 1.2195 1.497 1.557 1.2604 1.327 1.367
665.498 1.1257 1.1041 0.8127 0.7487 0.8493 0.7195 0.9291 1.1207 1.2346 1.407
684.787 1.317 1.218 1.1813 1.1053 1.317 1.537 1.467 1.667 1.757 1.917
704.077 2.157 2.427 2.487 2.407 2.707 2.987 3.337 3.257 3.137 3.687
723.367 3.997 4.217 4.237 4.177 4.437 4.687 4.687 4.567 4.717 4.597
742.657 4.407 4.627 4.907 4.927 5.217 6.597 8.017 9.187 11.037 12.467
761.947 13.367 14.727 15.407 14.807 13.557 12.127 10.767 8.997 7.327 6.027
781.236 4.957 4.447 4.067 3.777 3.127 2.597 2.717 2.907 3.457 4.037
800.526 4.117 4.347 4.607 4.967 5.357 5.397 5.427 5.597 5.657 5.187
819.816 4.807 5.057 5.107 5.277 5.697 5.787 6.177 6.727 7.407 8.077
839.106 8.367 8.997 10.057 10.717 10.867 11.007 11.377 11.367 11.147 11.097
858.395 10.897 10.967 10.927 10.567 10.137 9.577 9.077 8.627 8.427 8.097
877.685 7.337 6.617 6.077 5.777 5.467 5.067 4.597 4.147 4.007 3.747
896.975 3.427 3.587 3.527 3.087 3.317 3.507 3.377 3.527 3.747 3.897
916.265 3.667 3.517 3.537 3.667 3.857 4.137 4.467 4.517 4.617 4.917
935.555 5.277 5.467 5.427 5.647 5.667 5.607 5.357 4.957 4.867 4.747
954.844 4.547 4.827 5.197 5.397 5.807 5.997 6.097 6.637 7.387 7.527
974.134 7.647 8.067 7.987 8.037 8.707 9.367 10.047 10.977 12.147 13.407
993.424 14.387 15.657 17.177 18.237 19.187 20.237 21.047 21.797 23.017 23.957
1012.714 25.837 28.457 30.177 32.077 34.327 35.767 36.307 36.327 35.257 32.577
1032.003 29.467 26.997 24.187 21.157 18.597 16.457 14.397 12.617 11.617 10.347
1051.293 9.177 8.667 8.227 7.617 7.247 6.847 6.167 6.227 6.787 7.647
1070.583 8.287 8.697 9.257 10.017 11.727 13.537 14.637 15.797 17.197 18.377
1089.873 19.847 21.007 21.217 21.847 22.527 23.537 23.237 21.467 19.807 17.967
1109.163 16.287 14.137 13.097 13.817 15.407 17.047 18.847 20.957 23.287 26.367
1128.452 29.557 33.347 37.107 39.727 41.357 41.867 40.547 37.967 36.277 34.237
1147.742 30.817 27.837 26.007 25.187 24.937 24.557 24.397 25.247 27.037 29.067
1167.032 31.207 34.327 38.247 42.427 46.707 51.077 56.167 61.677 65.787 68.147
1186.322 70.127 70.767 69.817 68.897 68.547 69.127 70.957 73.777 78.667 87.087
1205.611 98.147 110.917 124.407 137.337 150.777 160.237 166.817 173.897 177.647 181.087
1224.901 188.047 197.347 207.237 219.227 231.247 237.237 234.137 222.767 205.017 182.797
1244.191 159.417 137.757 118.887 103.557 92.487 85.247 82.077 82.317 85.667 91.367
1263.481 97.687 103.017 105.527 103.017 95.427 84.897 72.597 60.747 50.307 41.837
1282.771 35.567 30.637 26.747 23.847 21.677 20.037 18.557 17.417 16.797 16.487
1302.060 16.027 15.487 14.987 14.627 14.197 13.587 13.127 12.867 12.827 12.937
1321.350 13.387 14.077 14.847 15.577 16.397 17.147 17.657 17.977 17.987 17.717
1340.640 17.127 16.167 15.107 14.037 12.907 11.817 10.757 9.747 8.947 8.437
1359.930 8.177 8.257 8.607 9.127 9.817 10.327 10.577 10.517 9.997 9.387
1379.219 8.857 8.607 8.607 8.767 8.977 9.367 10.007 10.657 11.347 12.157
1398.509 13.087 14.087 15.197 16.577 18.257 19.837 21.197 22.027 22.017 21.047
1417.799 19.257 17.087 14.957 13.397 12.617 12.507 12.857 13.577 14.697 16.017
1437.089 17.197 17.947 18.207 17.867 17.037 15.977 15.217 14.967 15.097 15.657
1456.378 16.637 18.157 20.197 22.757 25.737 28.717 31.007 32.277 32.187 30.757
1475.668 28.447 25.807 23.747 22.537 22.007 22.227 22.747 23.017 22.797 21.857
1494.958 20.127 17.987 15.907 14.337 13.317 12.827 12.877 13.497 14.697 16.417
1514.248 19.067 22.587 26.967 32.527 39.087 45.717 52.287 58.417 63.627 67.697
1533.538 70.317 70.797 68.377 63.087 55.447 46.607 37.697 29.677 23.517 19.017
1552.827 15.917 13.747 12.147 11.057 10.417 9.937 9.507 9.317 9.447 9.467
1572.117 9.087 8.747 8.527 8.087 7.337 6.627 6.217 5.687 5.177 4.837
1591.407 4.637 4.517 4.377 4.447 4.517 4.687 4.917 4.947 5.097 5.537
1610.697 5.957 6.347 6.917 7.557 8.287 8.997 9.777 10.467 10.797 11.277
1629.986 11.577 11.367 10.897 10.307 9.737 9.017 8.137 7.397 6.817 6.457
1649.276 6.257 5.987 5.707 5.587 5.427 5.197 5.147 5.147 5.097 5.177
1668.566 5.307 5.487 5.707 5.957 6.287 6.597 6.747 6.877 6.997 7.257
1687.856 7.667 8.067 8.617 9.397 10.447 11.687 13.237 15.517 18.647 22.847
1707.146 28.587 36.617 47.607 61.777 78.607 95.957 109.667 115.987 113.997 103.487
1726.435 86.217 68.257 54.127 45.197 41.257 41.517 45.297 51.127 55.907 57.507
1745.725 55.087 48.257 38.167 28.027 20.337 15.357 12.067 9.797 8.287 7.227
1765.015 6.517 5.917 5.407 5.287 5.267 5.097 4.957 4.767 4.527 4.427
1784.305 4.397 4.427 4.437 4.267 4.147 4.057 3.967 3.917 3.807 3.677
1803.594 3.547 3.487 3.407 3.237 3.027 2.917 2.887 2.797 2.677 2.597
1822.884 2.507 2.437 2.347 2.247 2.177 2.047 2.027 2.007 1.907 1.907
1842.174 1.907 1.917 1.897 1.817 1.797 1.797 1.697 1.627 1.667 1.637
1861.464 1.637 1.727 1.757 1.647 1.617 1.637 1.637 1.747 1.727 1.697
1880.754 1.637 1.667 1.797 1.787 1.697 1.607 1.677 1.727 1.577 1.527
1900.043 1.597 1.637 1.697 1.667 1.677 1.647 1.527 1.517 1.437 1.337
1919.333 1.367 1.2563 1.1626 1.337 1.497 1.477 1.457 1.417 1.347 1.337
1938.623 1.357 1.497 1.497 1.427 1.477 1.537 1.667 1.667 1.657 1.717
1957.913 1.737 1.747 1.757 1.817 1.837 1.827 1.717 1.687 1.807 1.797
1977.202 1.757 1.767 1.757 1.737 1.757 1.807 1.827 1.907 1.847 1.797
1996.492 1.927 1.947 1.867 1.807 1.777 1.717 1.657 1.597 1.517 1.507
2015.782 1.557 1.647 1.637 1.627 1.607 1.637 1.687 1.627 1.607 1.637
2035.072 1.657 1.707 1.667 1.577 1.517 1.487 1.557 1.617 1.657 1.617
2054.362 1.587 1.527 1.517 1.557 1.567 1.567 1.597 1.627 1.517 1.517
2073.651 1.567 1.637 1.657 1.617 1.587 1.367 1.327 1.387 1.417 1.427
2092.941 1.387 1.427 1.467 1.447 1.357 1.2565 1.2382 1.327 1.387 1.337
2112.231 1.2274 1.2471 1.367 1.427 1.347 1.317 1.2828 1.2796 1.357 1.337
2131.521 1.1918 1.2251 1.387 1.2674 1.1935 1.2643 1.307 1.1837 1.1923 1.297
2150.810 1.2679 1.2488 1.1747 1.0764 1.1338 1.287 1.357 1.347 1.2747 1.267
2170.100 1.347 1.327 1.1617 1.1707 1.2756 1.317 1.367 1.417 1.347 1.307
2189.390 1.347 1.327 1.274 1.2351 1.2805 1.246 1.1792 1.357 1.427 1.407
2208.680 1.317 1.155 1.2139 1.337 1.507 1.507 1.347 1.1949 1.1392 1.1403
2227.970 1.2017 1.317 1.317 1.1713 1.0644 1.0641 1.0312 0.9544 1.0136 1.0425
2247.259 1.0618 1.1203 1.1639 1.0874 0.9128 0.9861 1.0896 0.9599 0.9258 1.0001
2266.549 0.9509 0.9392 0.9167 0.9637 0.9908 0.9933 1.0101 1.001 0.9773 0.9312
2285.839 0.9676 0.9978 0.8858 0.8375 0.814 0.8429 0.9439 0.9703 1.0141 1.0574
2305.129 1.1134 0.9301 0.7858 0.9039 0.8555 1.0079 1.0497 1.0153 1.1281 1.0624
2324.418 0.9352 0.773 0.7678 0.8266 0.8773 0.9552 1.0095 0.9418 0.9069 1.0437
2343.708 1.1044 1.0114 1.0354 1.0958 0.9792 1.0281 1.1435 1.1362 1.1253 1.0543
2362.998 1.1468 1.297 1.1585 1.1238 1.2051 1.1188 0.9908 0.9024 0.9011 0.9078
2382.288 0.829 0.9108 1.0913 1.0493 0.9263 1.0034 1.1599 1.1136 1.0729 1.1017
2401.578 1.1039 1.0731 0.9673 1.0673 1.0925 0.8535 0.8519 0.9238 0.9425 1.0497
2420.867 1.009 0.949 0.9661 1.0094 0.9544 0.8778 0.8794 0.952 1.0224 0.949
2440.157 0.8905 0.9022 0.8788 0.8116 0.8073 0.7204 0.7563 0.8837 0.8811 0.9074
2459.447 0.9637 0.9022 0.9381 0.9756 0.8885 0.8671 0.9331 1.0685 1.1673 1.1624
2478.737 1.0824 1.0526 1.0684 1.0569 0.9921 0.9993 1.0589 1.1489 1.1601 1.0889
2498.026 1.0224 1.0517 1.0678 1.0065 1.0514 1.0592 1.075 1.1284 1.1229 1.0951
2517.316 1.0712 1.0787 1.1924 1.1364 0.9533 0.8644 0.8468 0.9836 1.1253 1.2133
2536.606 1.1915 1.0452 1.0121 1.2089 1.2323 1.1621 1.1635 1.1478 1.2132 1.2636
2555.896 1.2731 1.297 1.317 1.307 1.447 1.447 1.287 1.2534 1.337 1.577
2575.186 1.627 1.577 1.597 1.557 1.457 1.457 1.517 1.457 1.507 1.577
2594.475 1.527 1.587 1.567 1.517 1.477 1.447 1.497 1.447 1.467 1.627
2613.765 1.627 1.687 1.747 1.737 1.617 1.497 1.517 1.457 1.467 1.567
2633.055 1.427 1.1735 1.2058 1.397 1.407 1.437 1.367 1.2215 1.2387 1.1963
2652.345 1.307 1.447 1.2587 1.2552 1.387 1.307 1.357 1.357 1.307 1.347
2671.634 1.517 1.577 1.367 1.327 1.347 1.2393 1.1626 1.2099 1.317 1.1981
2690.924 1.0671 1.1403 1.1929 1.2017 1.1462 1.0602 1.1442 1.2757 1.176 1.1583
2710.214 1.2597 1.2638 1.2633 1.417 1.447 1.2851 1.2583 1.317 1.477 1.427
2729.504 1.397 1.377 1.317 1.347 1.347 1.377 1.507 1.507 1.477 1.507
2748.794 1.497 1.497 1.397 1.507 1.597 1.537 1.657 1.687 1.627 1.637
2768.083 1.587 1.517 1.627 1.817 1.737 1.767 1.847 1.897 1.867 1.747
2787.373 2.017 2.107 2.197 2.317 2.277 2.307 2.197 2.397 2.587 2.687
2806.663 2.837 3.207 3.627 3.747 3.967 4.287 4.527 4.927 5.577 6.297
2825.953 7.057 8.007 8.927 9.957 11.117 12.057 12.677 13.107 13.027 12.717
2845.242 12.267 11.377 10.497 9.817 9.167 8.397 7.707 7.327 7.047 6.787
2864.532 6.497 6.517 6.747 6.807 6.887 7.197 7.637 8.037 8.357 8.767
2883.822 9.287 9.707 10.207 10.657 10.817 10.777 10.867 11.127 11.447 12.037
2903.112 12.547 12.777 13.037 13.487 13.987 14.327 14.537 14.737 14.697 14.747
2922.401 15.067 15.247 15.547 16.557 17.887 19.377 21.167 23.167 25.207 27.087
2941.691 28.657 29.287 29.117 28.317 26.797 24.997 23.477 22.387 21.317 20.607
2960.981 20.207 19.787 19.527 19.227 18.947 18.707 18.867 19.127 19.457 20.367
2980.271 21.717 23.137 23.937 24.137 23.777 23.157 22.497 21.827 21.577 21.857
2999.561 22.157 22.087 21.717 21.157 20.147 18.257 15.897 13.837 11.977 10.307
3018.850 9.217 8.447 7.607 7.027 6.677 6.247 5.837 5.647 5.477 5.297
3038.140 5.207 5.177 5.377 5.427 5.507 5.497 5.147 5.027 4.987 4.907
3057.430 4.837 4.747 4.647 4.527 4.347 4.517 4.537 4.117 3.937 3.737
3076.720 3.317 3.237 3.297 3.097 2.907 2.787 2.717 2.617 2.577 2.477
3096.009 2.367 2.347 2.287 2.207 2.107 2.197 2.127 1.977 2.107 2.137
3115.299 2.107 2.087 1.997 2.117 2.077 1.927 1.837 1.807 1.887 1.927
3134.589 1.847 1.617 1.457 1.437 1.537 1.567 1.467 1.397 1.447 1.387
3153.879 1.2638 1.287 1.2428 0.9968 1.033 1.2118 1.0769 0.8457 0.7324 0.5847
3173.169 0.6465 1.0791 1.2009 1.1891 1.0492 0.9134 1.0084 1.0288 0.9756 0.7222
3192.458 0.5471 0.6766 0.8354 1.0647 1.0953 0.8186 0.761 0.7754 0.815 0.8035
3211.748 0.6895 0.507 0.5129 0.7716 0.8003 0.6216 0.5984 0.8367 0.8922 0.7645
3231.038 0.817 0.8221 0.9103 0.9569 0.8357 0.9858 1.0658 0.8583 0.7203 0.7139
3250.328 0.7883 0.6319 0.6848 1.0193 1.1106 1.0249 0.9485 0.7822 0.7422 0.7743
3269.617 0.6786 0.5105 0.454 0.5321 0.5949 0.7749 0.8626 0.7674 0.5534 0.4566
3288.907 0.5221 0.7792 0.9645 0.6992 0.34878 0.3594 0.546 0.7805 0.6593 0.4355
3308.197 0.6699 0.7235 0.7393 0.7553 0.6529 0.5811 0.5015 0.5862 0.5409 0.37779
3327.487 0.34019 0.36719 0.2715 0.2669 0.30428 0.2666 0.32252 0.35646 0.5336 0.6291
3346.777 0.5007 0.4062 0.5489 0.7345 0.5184 0.35603 0.2134 0.131 0.4351 0.5675
3366.066 0.4924 0.4389 0.4056 0.4055 0.287824 0.36567 0.629 0.5083 0.5194 0.7276
3385.356 0.6064 0.557 0.5854 0.5595 0.5158 0.3697 0.3912 0.4149 0.35738 0.618
3404.646 0.8004 0.7426 0.9603 1.2635 1.2606 1.2669 1.467 1.367 1.1758 1.297
3423.936 1.427 1.487 1.457 1.317 1.1877 1.192 1.2582 1.367 1.317 1.2275
3443.225 1.297 1.457 1.467 1.787 2.127 2.227 2.537 2.857 3.117 3.197
3462.515 3.527 4.077 4.387 4.867 5.617 6.617 7.657 8.847 10.527 12.657
3481.805 15.117 17.657 20.397 22.787 24.427 24.707 23.767 21.637 18.837 16.057
3501.095 13.827 12.457 11.367 10.647 9.927 8.947 7.837 6.347 4.757 3.447
3520.385 2.597 2.257 1.827 1.357 1.1839 1.2483 1.0265 0.6595 0.6792 0.6512
3539.674 0.7622 0.8642 0.6187 0.37539 0.35661 0.5636 0.6637 0.8188 0.7487 0.4731
3558.964 0.31936 0.4517 0.5526 0.6271 0.6183 0.5047 0.5721 0.4823 0.707 0.7453
3578.254 0.5298 0.30952 0.136 0.2603 0.6256 0.6647 0.5179 0.5424 0.5923 0.551
3597.544 0.286866 0.31422 0.3362 0.4965 0.6584 0.4749 0.5138 0.5429 0.33147 0.407
3616.833 0.4416 0.178 0.35187 0.57 0.4082 0.37312 0.2831 0.2034 0.291332 0.2727
3636.123 0.2408 0.3767 0.32346 0.3928 0.4599 0.4869 0.718 0.4611 0.2614 0.2521
3655.413 0.33394 0.4487 0.4401 0.4739 0.4044 0.30935 0.4354 0.6867 0.5437 0.4021
3674.703 0.4513 0.3881 0.5175 0.5953 0.34079 0.2626 0.3977 0.4188 0.7184 0.6693
3693.993 0.2601 0.296448 0.502 0.2392 0 0.075 0.2652 0.484 0.2106 0.003
3713.282 0.058 0.2138 0.2627 0.1924 0.292895 0.4193 0.36348 0.2672 0.2262 0.163
3732.572 0.289817 0.5161 0.4324 0.2265 0.4535 0.56 0.3905 0.4226 0.4475 0.2373
3751.862 0.37919 0.4235 0.27757 0.28381 0.217 0.37074 0.5097 0.5687 0.4915 0.3889
3771.152 0.30378 0.2717 0.4571 0.4028 0.246 0.417 0.5722 0.5516 0.614 0.9454
3790.441 0.9372 0.613 0.5002 0.3879 0.2056 0.31141 0.625 0.5785 0.34721 0.291357
3809.731 0.4433 0.34071 0.126 0.1964 0.31377 0.3934 0.5152 0.7887 0.8911 0.8169
3829.021 0.7667 0.7184 0.5794 0.5129 0.5144 0.34916 0.5017 0.5829 0.28451 0.1963
3848.311 0.4463 0.35271 0.2307 0.4152 0.68 0.6482 0.31895 0.483 0.5786 0.3001
3867.601 0.167 0.4267 0.6046 0.6813 0.6315 0.458 0.4308 0.5909 0.6893 0.4553
3886.890 0.2224 0.174 0.2506 0.4451 0.7107 0.804 0.6179 0.5215 0.4342 0.4182
3906.180 0.5288 0.5157 0.5055 0.4543 0.4706 0.5316 0.5167 0.5252 0.3981 0.424
3925.470 0.614 0.6215 0.5738 0.6779 0.5915 0.5137 0.6434 0.4618 0.33938 0.6714
3944.760 0.9507 0.7842 0.5837 0.5964 0.6229 0.5488 0.4779 0.4908 0.5576 0.582
3964.049 0.462 0.5207 0.7079 0.683 0.4646 0.4216 0.38063 0.103 0.4612 0.7555
3983.339 0.6988 0.7949 0.615 0.4443 0.6817 0.7607 0.5541 0.6551 0.7285 0.5655
##END=
