##TITLE=2-Octyn-1-al diethyl acetal
##JCAMP-DX=4.24
##DATA TYPE=INFRARED SPECTRUM
##ORIGIN=EPA-IR VAPOR PHASE LIBRARY
##OWNER=SRD/NIST
Collection (C) 2018 copyright by the U.S. Secretary of Commerce
on behalf of the United States of America. All rights reserved.
##CAS REGISTRY NO=16387-55-6
##MOLFORM=C 10 H 22 O 2
##$NIST SOURCE=MSDC-IR
##STATE=gas
##XUNITS=1/CM
##YUNITS=ABSORBANCE
##XFACTOR=1.
##YFACTOR=0.001
##DELTAX=1.92898
##FIRSTX=549.8
##LASTX=4000.7
##FIRSTY=0.9548
##MAXX=4000.7
##MINX=549.759
##MAXY=0.106952
##MINY=0
##NPOINTS=1790
##XYDATA=(X++(Y..Y))
549.759 0.9548 1.0827 1.5944 1.5155 1.2492 1.2942 1.752 2.132 1.932 1.6167
569.049 1.3057 1.1514 1.0805 0.9623 0.405 0.328 0.959 1.0141 0.71118 0.8491
588.339 1.1215 1.0722 0.896 0.9426 1.0489 1.3763 0.9365 0.8314 0.9416 0.77
607.628 0.66627 0.503 0.7828 1.1558 0.474 0.379 0.9973 0.68102 1.235 1.3294
626.918 1.0159 0.9894 0.7831 0.476 0.6047 0.8796 0.7819 0.8007 1.1892 1.2816
646.208 1.2526 1.3216 0.8258 0.7905 1.0094 0.6584 0.308 0.8697 1.2041 0.9529
665.498 0.8565 0.9778 1.3102 1.3597 1.6261 1.3084 1.459 1.752 1.5507 1.5374
684.787 1.1648 1.5198 1.822 1.499 1.4802 1.3633 1.1153 1.006 1.1266 1.3153
704.077 1.4708 1.922 2.002 1.6265 1.3326 1.5848 1.862 2.202 2.712 2.632
723.367 2.242 2.332 2.542 2.272 2.092 2.192 2.402 2.782 2.842 2.422
742.657 2.432 2.572 2.112 2.032 2.132 1.892 1.912 1.992 1.822 2.152
761.947 2.362 2.332 2.592 2.382 2.652 2.952 2.572 2.662 2.732 2.402
781.236 2.472 2.482 2.132 2.212 2.442 2.472 2.372 2.352 2.372 2.612
800.526 2.892 2.662 2.752 3.132 3.132 3.232 3.512 3.512 3.672 3.432
819.816 3.252 4.782 5.822 4.232 3.842 4.612 4.022 3.732 4.172 4.182
839.106 3.742 3.712 4.052 4.022 4.262 4.692 4.252 3.942 3.872 3.602
858.395 3.462 3.602 3.332 3.202 3.362 3.282 3.422 3.662 3.872 3.862
877.685 3.932 3.852 3.692 3.792 4.242 4.702 4.742 5.342 5.642 5.482
896.975 5.932 6.342 6.512 6.672 6.992 7.142 6.772 6.402 6.142 6.352
916.265 6.322 5.772 5.432 4.962 5.172 5.592 5.372 4.812 4.852 4.982
935.555 5.152 5.592 5.172 4.942 5.242 5.862 6.232 6.222 6.782 6.592
954.844 6.922 7.862 8.042 8.632 9.392 10.392 11.222 12.152 13.622 15.322
974.134 16.802 18.262 19.822 21.862 24.272 25.912 27.492 29.222 30.432 31.812
993.424 33.152 34.082 35.252 36.012 36.032 35.352 34.432 34.332 34.302 33.282
1012.714 31.852 30.652 29.832 28.292 26.692 26.022 25.942 26.122 27.242 28.792
1032.003 30.242 33.362 37.322 41.102 46.532 53.082 59.702 67.122 74.572 82.052
1051.293 89.272 96.502 102.282 105.762 106.952 106.732 105.462 102.632 98.682 95.292
1070.583 91.892 86.342 82.392 80.042 77.742 74.942 71.352 68.012 66.552 66.042
1089.873 64.092 61.352 59.502 59.682 59.792 59.022 58.252 58.692 58.622 57.522
1109.163 57.162 54.932 50.942 47.632 44.152 41.222 38.472 36.702 36.052 35.592
1128.452 34.442 33.492 33.282 34.172 36.962 40.552 43.612 47.232 51.922 56.312
1147.742 60.242 63.002 64.212 63.532 60.722 56.962 52.572 47.472 42.742 38.612
1167.032 34.692 30.452 28.062 26.742 24.922 23.002 20.812 19.932 18.312 15.762
1186.322 15.102 15.582 14.512 12.742 12.882 12.512 11.212 10.022 9.912 10.722
1205.611 10.752 9.312 7.542 8.322 8.992 7.692 6.952 7.892 7.562 5.912
1224.901 4.742 4.972 5.182 3.842 4.812 5.382 4.452 4.362 4.022 4.062
1244.191 5.052 5.232 4.512 5.092 5.452 4.412 4.522 4.702 4.492 4.762
1263.481 4.992 5.122 5.452 5.532 5.132 5.422 5.642 5.792 6.332 6.642
1282.771 6.832 7.162 7.492 7.942 8.452 8.822 8.752 8.732 9.182 9.562
1302.060 9.772 10.192 10.572 10.992 11.602 12.272 13.392 15.022 17.102 19.372
1321.350 22.072 25.392 28.952 32.092 34.582 36.302 36.912 36.682 36.102 35.272
1340.640 34.652 34.462 34.602 35.242 36.212 37.042 37.372 36.622 34.732 32.022
1359.930 28.652 25.292 22.752 21.312 20.572 19.992 19.272 18.342 17.322 16.162
1379.219 15.092 14.242 13.812 13.642 13.532 13.292 12.952 12.592 12.142 11.822
1398.509 11.322 10.762 10.312 9.632 8.942 8.502 8.002 7.662 7.442 7.082
1417.799 6.862 6.802 6.872 6.962 7.052 7.282 7.552 7.912 8.162 8.622
1437.089 9.032 9.322 9.802 10.062 10.122 10.302 10.482 10.462 10.452 10.322
1456.378 10.172 10.272 10.372 10.122 9.872 9.712 9.292 8.892 8.452 8.002
1475.668 7.592 7.152 6.712 6.272 5.752 5.352 5.152 4.742 4.532 4.252
1494.958 3.892 3.642 3.392 3.242 3.102 2.992 2.812 2.582 2.372 2.432
1514.248 2.532 2.592 2.652 2.392 2.082 1.932 1.882 1.932 1.862 2.062
1533.538 2.172 2.002 1.912 1.802 1.942 1.912 1.642 1.652 1.672 1.5936
1552.827 1.702 1.742 1.4837 1.4403 1.632 1.692 1.632 1.5218 1.5941 1.581
1572.117 1.2728 1.0902 1.185 1.18 1.2131 1.3834 1.4399 1.2696 1.0437 1.1231
1591.407 1.258 1.2498 1.0274 0.9612 1.2901 1.3396 1.1866 1.3204 1.352 1.1499
1610.697 1.1613 1.2854 1.3019 1.3526 1.3367 1.3864 1.5157 1.5911 1.566 1.5022
1629.986 1.4299 1.296 1.2927 1.2172 1.1648 1.2106 1.2158 1.1618 1.2017 1.2989
1649.276 1.4202 1.457 1.394 1.3067 1.2671 1.3996 1.5101 1.2245 1.1219 1.3342
1668.566 1.2885 1.071 1.1073 1.4056 1.4238 1.3133 1.3344 1.2931 1.1473 0.9955
1687.856 1.0192 1.1855 1.2777 1.3423 1.1505 1.0664 1.2259 1.2857 1.1874 1.1505
1707.146 1.1897 1.1799 0.989 0.8985 0.9936 1.0585 1.1355 1.0676 1.0633 1.0138
1726.435 1.0173 1.0682 1.0273 0.9466 0.9065 1.1091 1.0903 1.0174 0.9626 0.9468
1745.725 1.1439 1.1188 0.9838 1.0703 1.0911 0.8859 0.9954 1.0909 1.0497 1.1421
1765.015 1.1237 1.0445 1.1192 1.0209 0.7199 0.7666 0.9406 1.01 0.9939 0.979
1784.305 0.908 0.9486 1.098 1.045 0.9446 0.8563 0.7466 0.8818 1.0092 0.9496
1803.594 0.982 1.0136 0.9477 0.8227 0.8126 0.9123 0.8711 0.8432 1.0042 1.1036
1822.884 1.2515 1.2724 1.1734 1.108 0.891 0.9225 1.2164 1.2322 1.0622 1.0602
1842.174 1.1606 1.2136 1.1873 0.9943 0.9345 1.143 1.2024 1.2357 1.0974 1.1318
1861.464 1.376 1.2259 1.1684 1.259 1.3052 1.3277 1.3774 1.4539 1.4694 1.368
1880.754 1.4042 1.5155 1.443 1.4579 1.4062 1.4866 1.6217 1.5754 1.5454 1.5195
1900.043 1.4951 1.4719 1.5952 1.702 1.6036 1.4731 1.4985 1.4873 1.5078 1.5706
1919.333 1.5913 1.6303 1.5973 1.5079 1.4056 1.2751 1.2793 1.4444 1.565 1.632
1938.623 1.6185 1.4786 1.4984 1.5749 1.5737 1.632 1.6113 1.642 1.5953 1.5776
1957.913 1.6319 1.702 1.812 1.792 1.752 1.6252 1.5427 1.642 1.692 1.545
1977.202 1.4057 1.5719 1.692 1.662 1.6314 1.486 1.4349 1.4613 1.545 1.5541
1996.492 1.4349 1.5499 1.772 1.732 1.606 1.5389 1.3782 1.33 1.4353 1.4967
2015.782 1.4779 1.3687 1.2532 1.2878 1.3868 1.3319 1.4585 1.5302 1.4393 1.4516
2035.072 1.3124 1.3364 1.3877 1.1903 1.0727 1.1229 1.3061 1.3724 1.1668 1.1291
2054.362 1.2816 1.2989 1.2178 1.2548 1.3382 1.3381 1.1527 1.1636 1.332 1.2448
2073.651 1.1898 1.1529 1.1563 1.1965 1.1855 1.0656 0.8664 0.9465 1.2091 1.2763
2092.941 1.1693 1.3311 1.5244 1.4209 1.3169 1.2102 1.1494 1.0791 1.1795 1.3364
2112.231 1.3808 1.2623 1.0959 1.1211 1.2276 1.2695 1.3097 1.4664 1.5131 1.4521
2131.521 1.3811 1.3366 1.3163 1.3973 1.3153 1.281 1.3671 1.4009 1.4879 1.5283
2150.810 1.4794 1.4894 1.642 1.812 2.012 1.982 1.782 1.662 1.722 1.852
2170.100 1.982 2.072 1.992 1.982 1.992 2.032 2.142 2.192 2.252 2.362
2189.390 2.392 2.512 2.692 2.862 3.142 3.422 3.472 3.582 3.932 4.162
2208.680 4.362 4.542 4.882 5.212 5.342 5.592 6.072 6.562 6.992 7.212
2227.970 7.352 7.412 7.382 7.342 7.282 7.202 7.002 6.752 6.492 6.282
2247.259 5.942 5.452 5.142 5.002 4.752 4.482 4.342 4.242 4.072 3.932
2266.549 3.682 3.312 3.162 3.242 3.262 3.002 2.752 2.642 2.582 2.602
2285.839 2.452 2.442 2.592 2.512 2.392 2.402 2.462 2.472 2.472 2.382
2305.129 2.162 2.222 2.252 2.072 1.812 1.6013 1.5193 1.4552 1.1358 1.0332
2324.418 1.1375 1.175 1.2721 1.1742 1.2373 1.1025 0.8843 0.8582 1.0798 1.3836
2343.708 1.2729 1.0873 0.9482 0.9215 1.1598 1.1954 1.0367 1.0986 1.1691 1.0016
2362.998 0.7889 1.0412 0.9993 0.8375 1.2179 1.0379 0.9183 1.0238 0.8876 0.9547
2382.288 0.9897 0.9911 1.2114 1.2568 1.132 1.0711 1.1333 1.1435 1.0107 1.0075
2401.578 0.9825 0.8006 0.8706 1.2211 1.2056 1.0569 0.9697 0.9854 1.1535 1.3966
2420.867 1.3086 0.9923 0.9728 1.0084 1.0614 1.0843 1.0279 1.0574 1.1036 1.0151
2440.157 0.8937 0.9778 0.9052 0.9673 1.1923 1.1334 1.2094 1.1735 1.0536 1.0315
2459.447 0.9362 0.69041 0.7809 1.0134 0.9267 1.0864 1.1679 0.9786 1.0448 1.1786
2478.737 1.1201 1.0669 1.0149 0.9778 1.2073 1.0793 0.9642 1.1312 1.0453 1.1582
2498.026 1.1445 1.0142 0.955 0.9378 0.7752 0.7765 0.9845 0.9817 0.8382 0.71145
2517.316 0.8438 1.0109 0.9729 1.0089 1.0078 0.8148 0.7819 1.0245 1.2449 1.136
2536.606 0.9733 0.9869 0.9409 0.8995 0.8078 0.66506 0.8083 1.0064 0.9708 1.0678
2555.896 1.1239 1.1741 1.2734 1.0259 0.9816 1.1558 1.3083 1.3127 1.2962 1.1851
2575.186 1.0557 1.1173 1.0691 0.9642 1.1049 1.5136 1.732 1.6041 1.6023 1.6265
2594.475 1.3289 1.4525 1.5942 1.5521 1.5889 1.4361 1.5424 1.782 1.782 1.682
2613.765 1.672 1.972 2.072 1.762 1.822 1.742 1.782 1.792 1.623 2.092
2633.055 2.292 2.212 2.132 1.992 1.912 2.002 1.892 1.722 1.812 2.042
2652.345 2.042 1.722 1.682 1.702 1.802 1.912 1.932 1.872 1.942 2.092
2671.634 1.812 1.672 1.752 1.702 1.802 1.822 1.782 1.882 2.152 2.282
2690.924 2.062 2.002 1.672 1.4878 1.662 1.672 1.992 1.932 1.912 2.292
2710.214 2.272 2.312 2.352 2.182 2.362 2.472 2.512 2.822 2.882 2.722
2729.504 2.992 3.102 3.132 3.202 2.932 3.092 3.332 3.472 3.432 3.422
2748.794 3.632 3.562 3.602 3.662 3.322 3.492 3.502 3.392 3.652 3.622
2768.083 3.822 3.832 3.872 3.952 3.822 3.912 4.242 4.312 4.202 4.552
2787.373 4.562 4.452 4.712 4.982 4.872 4.692 4.902 5.002 5.182 5.452
2806.663 5.602 5.732 6.032 6.242 6.382 6.442 6.662 7.082 7.452 8.062
2825.953 8.322 8.662 9.222 9.692 10.242 11.032 11.762 12.542 13.432 14.162
2845.242 15.192 16.362 17.722 19.142 20.442 21.902 23.562 25.632 27.902 29.982
2864.532 31.862 34.202 36.432 37.782 39.142 40.242 40.702 41.202 41.752 42.182
2883.822 42.322 42.152 42.062 42.432 43.032 43.452 43.942 44.612 45.352 45.922
2903.112 46.442 47.112 47.862 48.442 49.042 49.552 49.902 50.962 52.572 54.532
2922.401 57.302 60.432 64.252 68.662 73.202 78.082 82.632 85.972 88.022 88.772
2941.691 87.712 84.902 80.442 75.372 70.322 65.012 60.672 57.952 56.482 55.932
2960.981 56.402 57.522 58.812 60.172 60.852 61.212 61.492 61.332 60.992 60.382
2980.271 59.172 57.342 54.872 51.402 46.632 41.462 36.852 32.402 28.092 24.442
2999.561 21.322 19.292 17.822 16.322 15.172 13.952 12.892 12.062 11.032 10.332
3018.850 9.652 9.242 9.102 8.432 7.872 7.102 6.792 6.612 6.122 5.922
3038.140 5.472 5.162 5.442 5.442 5.052 4.892 4.792 4.562 4.232 4.112
3057.430 3.992 3.642 3.202 3.342 3.692 3.432 3.032 2.732 2.912 3.172
3076.720 2.942 2.922 3.012 2.742 2.552 2.432 2.332 2.532 2.212 2.492
3096.009 2.772 2.652 2.792 2.442 2.632 2.832 2.722 2.372 2.062 1.982
3115.299 2.022 2.282 2.422 2.492 2.292 2.382 2.552 2.522 2.162 1.772
3134.589 1.862 2.152 2.062 1.772 1.4428 1.2556 1.5892 2.012 2.082 1.982
3153.879 2.112 2.062 1.742 1.662 1.902 2.142 2.182 1.752 1.4097 1.3409
3173.169 1.5143 1.772 1.6184 1.672 1.762 1.682 1.6091 1.692 1.642 1.4478
3192.458 1.4619 1.6171 1.742 1.509 1.772 1.972 1.2123 1.1806 1.632 1.5394
3211.748 1.3699 1.4176 1.6262 1.4535 1.2778 1.1485 0.9038 1.3128 1.4542 0.8499
3231.038 1.066 1.3961 1.4058 1.632 1.1616 1.0527 1.2902 0.9263 0.8032 0.9454
3250.328 0.9933 1.1573 1.1398 1.0694 0.9962 0.7736 0.8063 0.7575 0.68645 0.8874
3269.617 0.8008 0.8751 1.0401 1.0303 1.3149 1.1781 1.1797 0.9836 0.7879 1.1555
3288.907 1.0045 0.9158 0.8988 0.7787 1.4423 1.527 1.0733 0.8461 0.8102 0.8345
3308.197 0.374 0.65078 0.965 0.5958 0.573 0.8092 1.0913 1.2638 0.963 0.776
3327.487 0.7349 1.1804 1.702 1.4909 1.2208 1.2997 1.4929 1.2177 0.9133 0.72626
3346.777 0.64777 0.7546 1.0597 1.208 0.8206 0.333 0.5487 1.1753 1.569 1.5117
3366.066 1.3014 1.3973 1.1876 1.0158 1.5346 1.5005 0.8765 0.5793 0.70178 0.9806
3385.356 0.9303 0.315 0.034 0.9121 1.3741 1.0315 1.0971 1.2688 1.3436 1.1916
3404.646 1.0016 0.69761 0.383 0.753 0.7224 0.69811 0.62921 0.509 0.8116 1.0602
3423.936 1.3691 1.3222 1.0907 1.0616 1.222 1.0898 0.5866 0.324 0.143 0.447
3443.225 0.9021 0.62303 0.368 0.6006 0.8664 0.70895 0.489 0.414 0.33 0.277
3462.515 0.399 0.65686 0.517 0.7432 1.1088 1.0579 1.3045 1.3102 1.1219 0.9292
3481.805 1.2181 1.3973 0.6308 0.5708 1.0312 0.5939 0.38 0.7875 0.5579 0.7603
3501.095 1.2047 0.639558 0.51 0.7741 0.7839 0.6571 0.505 0.5723 0.6907 1.0815
3520.385 0.9545 0.9978 1.2396 0.9976 0.72938 0.5601 0.521 0.287 0.193 0.69484
3539.674 0.9341 1.0723 1.682 1.1314 0.5913 1.0875 1.1428 1.2305 1.2566 1.04
3558.964 1.2136 1.2582 0.932 0.452 0.507 0.70298 0.67502 0.8532 1.0748 1.0262
3578.254 1.2594 1.1211 0.383 0.364 0.432 0.64398 1.1656 1.1323 1.0331 0.9941
3597.544 0.70074 0.7459 1.018 0.9159 0.5736 0.5474 0.8753 0.8917 0.7523 0.9726
3616.833 1.2008 0.8993 0.247 0.395 0.9098 1.1046 1.2788 1.3277 1.4093 1.1034
3636.123 0.9119 1.0838 0.69012 0.384 0.498 0.9992 1.5352 1.1638 0.8898 1.0671
3655.413 0.7863 0.501 0.447 0.64261 0.792 0.359 0.198 0.5816 0.7616 0.7772
3674.703 0.66254 0.245 0.506 0.7831 0.9116 1.1845 0.9136 0.7837 0.346 0
3693.993 0.485 0.8929 1.3496 1.3359 0.5752 0.7061 1.0733 0.9596 0.7544 0.462
3713.282 0.67637 0.9457 0.64588 0.519 0.466 0.287 0.72637 0.9088 0.7998 1.2513
3732.572 1.1948 0.8453 1.1153 1.3073 1.4471 1.4367 1.5911 1.6187 0.9381 0.7698
3751.862 0.9637 1.2063 1.3678 1.2394 0.5569 0.414 1.0061 0.942 1.1291 1.1932
3771.152 0.64198 0.64937 0.5 0.372 1.0655 1.4257 1.0973 0.8152 0.71112 0.68702
3790.441 0.7823 1.0604 1.0656 0.7701 1.0702 1.1705 0.7385 0.6007 0.5843 0.507
3809.731 0.65567 0.67378 0.447 0.9565 1.3906 0.8782 0.9143 0.948 0.499 0.512
3829.021 0.64892 0.63534 0.503 0.7449 1.1912 1.0535 1.1839 1.0262 0.6139 0.791
3848.311 0.9932 1.0172 0.8483 0.64001 0.67637 1.018 0.8848 0.68968 0.64162 0.8016
3867.601 1.25 1.0054 0.7922 0.8704 1.2172 1.4472 1.3647 1.3402 1.4446 1.652
3886.890 1.4715 0.9293 0.9676 1.5203 1.5899 1.712 1.6125 0.8825 0.288 0.6103
3906.180 1.0423 0.778 0.70593 0.9979 0.7611 0.9116 1.4246 0.948 0.8964 1.4959
3925.470 1.311 0.8616 1.1977 1.2669 0.9214 0.9851 1.5496 1.952 1.702 1.3647
3944.760 1.0563 1.3171 1.642 1.4503 0.986 1.1524 1.672 1.5923 1.097 1.109
3964.049 1.922 2.142 1.782 1.3421 1.278 1.6244 1.4845 1.3549 1.5023 1.3797
3983.339 1.2156 1.2088 1.3581 1.872 2.002 1.3867 1.1758 1.4592 1.5244 1.1954
##END=
