##TITLE=1-Heptanethiol
##JCAMP-DX=4.24
##DATA TYPE=INFRARED SPECTRUM
##ORIGIN=NIST Mass Spectrometry Data Center
##OWNER=NIST Standard Reference Data Program
Collection (C) 2018 copyright by the U.S. Secretary of Commerce
on behalf of the United States of America. All rights reserved.
##CAS REGISTRY NO=1639-09-4
##MOLFORM=C 7 H 16 S
##$NIST SOURCE=MSDC-IR
##SPECTROMETER/DATA SYSTEM=HP-GC/MS/IRD
##STATE=gas
##XUNITS=1/CM
##YUNITS=ABSORBANCE
##XFACTOR=1.0
##YFACTOR=0.000013600
##DELTAX=4.0
##FIRSTX=550.0
##LASTX=3846.0
##FIRSTY=0.000095
##MAXX=3846
##MINX=550
##MAXY=0.136
##MINY=0
##NPOINTS=825
##XYDATA=(X++(Y..Y))
550.0 7 1 4 9 10 7 11 10 6 8
590.0 7 9 16 17 19 22 20 22 22 20
630.0 23 32 42 49 56 61 63 64 59 55
670.0 53 51 56 64 74 89 108 129 151 179
710.0 206 230 250 265 268 262 249 231 210 192
750.0 177 166 158 152 146 137 128 122 112 103
790.0 99 94 89 87 85 86 88 87 88 90
830.0 92 90 85 86 85 83 82 79 79 83
870.0 87 86 86 89 92 92 92 92 91 92
910.0 95 96 94 98 100 101 102 103 102 101
950.0 99 96 93 89 86 83 80 79 79 80
990.0 80 80 80 79 78 79 79 78 79 77
1030.0 77 79 80 80 82 80 78 73 73 73
1070.0 71 73 77 78 81 87 96 108 115 119
1110.0 115 111 103 92 78 67 59 53 59 60
1150.0 60 66 74 78 83 91 91 92 94 95
1190.0 98 103 106 112 122 132 142 153 167 190
1230.0 219 254 293 329 358 372 378 380 389 413
1270.0 450 490 523 540 540 528 511 495 475 450
1310.0 417 379 340 306 282 274 280 296 316 331
1350.0 337 333 321 305 290 282 287 299 305 301
1390.0 279 241 211 196 190 192 204 230 273 336
1430.0 424 526 630 722 798 866 920 954 950 895
1470.0 797 675 547 431 336 264 210 172 145 125
1510.0 109 98 88 79 72 66 58 52 48 45
1550.0 42 39 35 33 34 33 32 30 29 28
1590.0 28 27 26 25 25 24 23 22 23 23
1630.0 22 20 18 19 18 16 15 16 16 14
1670.0 13 14 15 14 12 12 11 10 11 11
1710.0 10 9 7 8 8 7 5 6 6 7
1750.0 8 7 6 6 7 6 5 4 5 5
1790.0 4 4 5 5 4 3 3 2 1 1
1830.0 2 4 4 3 3 4 5 4 3 2
1870.0 2 1 1 2 2 1 0 0 1 1
1910.0 1 0 1 3 3 1 2 3 2 3
1950.0 4 4 5 6 4 3 4 4 3 5
1990.0 6 4 6 7 6 8 8 9 12 10
2030.0 12 13 12 12 10 11 10 11 10 8
2070.0 7 8 8 8 9 8 7 8 7 7
2110.0 8 7 7 7 8 8 7 8 10 12
2150.0 11 12 11 10 11 10 10 11 11 11
2190.0 13 11 11 12 11 10 9 7 9 11
2230.0 8 6 6 9 9 9 9 9 10 11
2270.0 10 11 12 12 11 10 11 10 11 11
2310.0 10 12 13 13 14 15 13 12 13 14
2350.0 14 16 15 16 17 17 16 14 15 15
2390.0 14 15 15 14 14 13 14 16 15 15
2430.0 15 14 14 13 15 14 15 16 16 15
2470.0 15 16 18 17 16 17 18 19 20 21
2510.0 22 22 24 26 27 29 31 33 33 35
2550.0 38 42 47 50 54 63 75 88 105 124
2590.0 138 140 133 119 105 96 88 83 82 82
2630.0 84 85 88 91 92 92 95 100 104 110
2670.0 113 117 122 123 124 122 119 119 114 113
2710.0 114 117 120 126 130 134 141 148 154 157
2750.0 158 159 158 161 166 172 183 195 212 232
2790.0 252 273 296 324 356 388 428 475 531 601
2830.0 695 827 1015 1278 1629 2068 2561 3039 3416 3633
2870.0 3671 3593 3466 3292 3108 2959 2867 2918 3155 3578
2910.0 4198 5035 6090 7308 8521 9488 10000 9933 9329 8419
2950.0 7455 6667 6217 6072 5951 5548 4828 3867 2882 2133
2990.0 1620 1269 1030 860 732 636 561 501 450 407
3030.0 369 336 305 273 248 229 208 191 181 172
3070.0 162 152 145 139 134 130 126 119 112 110
3110.0 105 101 99 96 92 90 85 83 81 82
3150.0 80 78 77 74 71 69 68 68 65 62
3190.0 61 59 53 48 45 42 40 36 34 33
3230.0 33 30 26 27 26 25 23 22 20 20
3270.0 21 20 19 18 20 21 17 14 15 16
3310.0 16 18 17 17 18 18 18 19 18 17
3350.0 19 19 15 12 12 15 14 15 15 16
3390.0 17 18 14 12 14 13 10 14 18 17
3430.0 15 17 15 12 9 10 11 11 10 10
3470.0 13 13 9 6 7 6 5 7 7 9
3510.0 10 9 13 13 12 11 12 11 10 10
3550.0 13 15 13 12 14 14 12 13 14 15
3590.0 18 21 20 17 17 20 24 21 22 24
3630.0 23 25 25 25 23 22 24 26 27 26
3670.0 24 23 26 27 26 23 24 26 23 22
3710.0 22 24 25 24 25 25 22 22 25 22
3750.0 21 24 25 24 23 25 27 26 26 24
3790.0 23 24 25 27 27 28 28 26 28 29
3830.0 29 26 24 23 26
##END=
