##TITLE=l-Menthol acetate
##JCAMP-DX=4.24
##DATA TYPE=INFRARED SPECTRUM
##ORIGIN=NIST Mass Spectrometry Data Center
##OWNER=NIST Standard Reference Data Program
Collection (C) 2018 copyright by the U.S. Secretary of Commerce
on behalf of the United States of America. All rights reserved.
##CAS REGISTRY NO=16409-45-3
##MOLFORM=C 12 H 22 O 2
##$NIST SOURCE=MSDC-IR
##SPECTROMETER/DATA SYSTEM=HP-GC/MS/IRD
##STATE=gas
##XUNITS=1/CM
##YUNITS=ABSORBANCE
##XFACTOR=1.0
##YFACTOR=0.000004300
##DELTAX=4.0
##FIRSTX=550.0
##LASTX=3846.0
##FIRSTY=0.000245
##MAXX=3846
##MINX=550
##MAXY=0.043
##MINY=0
##NPOINTS=825
##XYDATA=(X++(Y..Y))
550.0 57 27 12 12 5 0 1 25 42 40
590.0 47 48 82 141 185 229 223 165 105 80
630.0 91 104 110 124 139 143 125 81 53 54
670.0 51 29 13 9 3 13 17 16 25 26
710.0 21 16 21 11 0 1 2 14 9 2
750.0 7 16 22 18 16 18 15 15 19 21
790.0 22 30 40 45 51 52 58 71 84 95
830.0 103 121 163 172 141 109 92 89 82 77
870.0 84 88 83 90 112 147 205 271 311 302
910.0 268 240 222 223 236 242 233 234 254 272
950.0 318 394 490 589 661 716 763 805 819 811
990.0 817 869 983 1149 1373 1644 1915 2126 2203 2127
1030.0 1948 1725 1495 1260 1017 802 661 590 577 601
1070.0 650 707 765 811 829 807 752 677 591 512
1110.0 429 362 319 287 279 292 315 348 394 434
1150.0 457 454 439 433 457 511 604 699 751 763
1190.0 753 773 855 1021 1292 1685 2222 2987 4081 5567
1230.0 7355 9044 10000 9669 8044 5738 3646 2301 1588 1223
1270.0 1019 884 784 696 629 570 512 459 414 368
1310.0 336 317 295 281 283 291 311 350 413 502
1350.0 625 825 1131 1521 1894 2138 2153 1933 1625 1338
1390.0 1082 847 634 470 362 305 279 267 270 279
1430.0 292 317 362 439 553 685 804 873 872 805
1470.0 699 575 448 344 267 208 174 160 150 146
1510.0 139 134 138 140 133 127 125 125 126 120
1550.0 118 122 126 117 108 106 108 99 85 80
1590.0 74 72 73 66 62 67 72 76 77 76
1630.0 78 88 90 85 90 101 101 96 102 114
1670.0 124 132 144 167 189 211 247 298 351 399
1710.0 452 500 548 613 738 977 1415 2129 3136 4250
1750.0 5086 5085 4189 3010 2025 1399 1064 873 743 635
1790.0 550 469 392 330 269 226 200 175 151 139
1830.0 122 102 91 87 85 83 73 64 58 54
1870.0 51 44 37 33 34 34 32 34 34 29
1910.0 32 35 38 37 32 31 31 27 23 21
1950.0 18 14 10 11 11 9 7 6 6 8
1990.0 8 5 2 1 2 2 5 5 1 3
2030.0 4 5 6 2 0 0 3 8 12 7
2070.0 4 16 21 17 14 13 13 10 11 14
2110.0 15 16 18 20 21 25 28 29 30 27
2150.0 24 21 15 16 16 14 11 7 4 3
2190.0 4 4 5 5 7 4 3 6 3 0
2230.0 5 8 8 7 4 7 12 12 12 13
2270.0 14 10 8 6 4 8 13 14 12 8
2310.0 5 9 13 12 11 16 19 17 21 16
2350.0 10 11 17 20 17 14 13 14 12 8
2390.0 7 10 9 8 9 9 10 11 13 17
2430.0 19 15 12 16 15 18 22 24 25 24
2470.0 24 23 18 15 12 7 8 7 4 5
2510.0 4 2 4 1 0 3 4 6 5 2
2550.0 9 16 15 10 13 15 17 17 19 26
2590.0 27 34 37 34 40 44 43 44 44 46
2630.0 50 50 48 46 47 50 52 51 54 55
2670.0 49 50 55 56 57 59 64 67 63 61
2710.0 66 68 74 86 92 96 101 101 100 99
2750.0 91 77 77 85 81 76 81 91 98 98
2790.0 109 121 130 138 145 160 173 190 204 221
2830.0 243 267 311 391 546 786 1053 1275 1442 1606
2870.0 1854 2177 2379 2354 2163 1913 1740 1700 1757 1897
2910.0 2118 2417 2825 3341 3850 4202 4335 4299 4145 3975
2950.0 3934 4165 4782 5284 5097 4284 3124 2099 1445 1039
2990.0 774 590 469 389 335 300 277 255 242 235
3030.0 227 216 199 186 176 164 155 151 147 145
3070.0 137 136 135 128 126 123 121 108 101 95
3110.0 85 79 83 92 90 81 75 71 71 72
3150.0 73 72 66 65 67 64 66 71 65 57
3190.0 53 48 45 47 43 37 33 34 32 26
3230.0 24 25 22 13 13 15 10 13 18 9
3270.0 5 9 11 13 8 8 11 10 9 11
3310.0 13 12 13 7 4 7 11 8 7 19
3350.0 21 13 15 23 20 19 23 21 22 20
3390.0 15 9 4 13 13 10 9 9 15 18
3430.0 21 24 27 19 7 10 21 25 26 32
3470.0 40 54 59 64 71 64 52 49 39 27
3510.0 26 32 29 26 25 28 19 8 16 22
3550.0 21 16 18 23 13 5 9 9 5 13
3590.0 26 20 14 11 4 7 9 12 14 6
3630.0 4 9 10 16 21 19 12 13 10 8
3670.0 15 17 18 23 22 20 13 1 2 14
3710.0 26 25 20 18 11 8 11 12 17 36
3750.0 33 18 20 28 31 23 14 14 20 22
3790.0 26 31 34 34 31 27 33 48 47 35
3830.0 36 42 44 41 32
##END=
