##TITLE=2,3,3-Trimethyl-3H-indole
##JCAMP-DX=4.24
##DATA TYPE=INFRARED SPECTRUM
##ORIGIN=EPA-IR VAPOR PHASE LIBRARY
##OWNER=SRD/NIST
Collection (C) 2018 copyright by the U.S. Secretary of Commerce
on behalf of the United States of America. All rights reserved.
##CAS REGISTRY NO=1640-39-7
##MOLFORM=C 11 H 13 N
##$NIST SOURCE=MSDC-IR
##STATE=gas
##XUNITS=1/CM
##YUNITS=ABSORBANCE
##XFACTOR=1.
##YFACTOR=0.001
##DELTAX=1.92898
##FIRSTX=549.8
##LASTX=4000.7
##FIRSTY=0.6158
##MAXX=4000.7
##MINX=549.759
##MAXY=0.117392
##MINY=0
##NPOINTS=1790
##XYDATA=(X++(Y..Y))
549.759 0.6158 0.6936 0.7804 1.422 1.962 2.452 2.982 3.102 3.492 4.172
569.049 4.932 4.792 3.522 2.692 2.352 1.932 1.602 1.242 0.6422 0.3036
588.339 0.0916 0.2336 0.337 0.0792 0.14233 0.2938 0.3163 0.3862 0.4385 0.4468
607.628 0.6984 1.0542 1.482 1.972 2.622 3.332 4.142 4.962 5.432 5.942
626.918 6.862 8.402 9.952 9.512 7.942 6.942 6.782 6.902 6.962 7.242
646.208 7.442 7.382 7.102 7.062 7.262 7.092 6.632 5.992 4.912 3.882
665.498 2.762 1.762 1.372 1.262 1.1143 0.9835 0.8423 0.842 0.7536 0.7168
684.787 0.9891 1.1036 0.969 0.9407 0.9179 0.8198 0.7193 0.5083 0.4817 0.5638
704.077 0.5659 0.4943 0.5286 0.6241 0.6344 0.8023 1.202 1.462 1.722 2.452
723.367 3.092 4.182 6.292 9.532 14.382 20.582 27.962 36.092 43.942 51.082
742.657 58.352 67.522 83.802 105.472 99.452 75.132 65.282 60.812 56.002 50.182
761.947 42.962 36.072 30.582 27.712 25.642 21.672 18.082 16.342 14.792 13.102
781.236 11.592 10.062 8.552 7.422 6.512 5.742 5.032 4.392 3.542 2.822
800.526 2.362 2.012 1.752 1.552 1.422 1.372 1.212 1.0603 1.0255 0.917
819.816 0.8955 0.989 1.312 1.472 1.372 1.492 1.602 1.602 1.752 1.982
839.106 2.152 2.252 2.612 3.112 3.582 4.382 5.412 6.442 7.302 7.772
858.395 8.012 8.422 8.682 8.472 7.862 7.032 6.032 4.872 3.962 3.212
877.685 2.542 2.252 1.952 1.612 1.432 1.352 1.352 1.202 1.202 1.432
896.975 1.452 1.572 1.872 1.832 1.772 2.142 2.312 2.412 2.912 3.512
916.265 4.172 4.862 5.672 6.522 7.242 7.982 8.802 9.632 9.862 8.952
935.555 7.882 7.512 7.172 6.552 5.752 4.802 3.872 3.082 2.652 2.282
954.844 1.792 1.582 1.442 1.172 0.9956 1.0408 1.0742 1.0897 1.132 1.0968
974.134 1.172 1.222 1.272 1.502 1.712 1.832 1.962 2.522 3.292 3.712
993.424 4.172 5.012 6.092 7.232 8.632 10.372 11.822 12.402 12.142 11.742
1012.714 11.272 9.962 8.902 8.112 6.592 5.092 3.722 2.862 2.432 1.892
1032.003 1.742 1.622 1.472 1.522 1.362 1.272 1.0343 0.8118 0.9913 1.0415
1051.293 0.9735 1.058 1.132 1.1213 0.9718 1.0473 1.492 1.452 1.472 2.012
1070.583 2.982 3.852 4.092 4.382 4.892 5.032 4.772 4.862 4.892 4.332
1089.873 4.052 4.362 4.882 5.492 6.202 7.272 8.062 8.162 8.622 8.912
1109.163 9.222 9.512 8.932 7.552 6.172 5.602 4.732 3.882 3.612 3.432
1128.452 3.482 3.652 3.922 3.972 4.072 4.112 4.032 4.382 4.312 4.142
1147.742 3.942 3.662 3.652 3.262 2.972 2.622 1.992 1.742 1.652 1.722
1167.032 1.832 1.922 2.002 2.102 2.432 2.762 3.422 4.362 5.392 6.642
1186.322 8.372 10.502 12.982 15.092 16.602 17.742 18.672 19.252 18.442 17.292
1205.611 15.912 13.922 11.612 9.352 7.732 6.682 6.512 6.682 7.162 8.182
1224.901 8.872 9.672 10.932 12.252 13.412 14.592 15.842 17.052 18.252 19.022
1244.191 19.422 19.822 20.412 20.772 20.802 20.432 19.582 18.482 17.162 16.032
1263.481 14.812 13.372 12.142 10.582 8.852 7.432 6.432 5.672 5.082 4.852
1282.771 5.012 5.502 6.172 6.882 7.632 8.242 8.332 8.092 8.042 8.172
1302.060 8.172 7.622 6.642 5.702 4.972 4.542 4.232 3.972 3.852 3.842
1321.350 3.892 3.862 3.852 3.902 3.882 3.882 3.982 4.112 4.232 4.352
1340.640 4.562 4.932 5.392 6.012 6.792 7.682 8.712 9.842 11.052 12.332
1359.930 13.852 15.812 18.262 19.892 20.092 20.542 21.682 22.882 23.702 23.852
1379.219 23.642 23.412 23.002 21.802 19.702 17.432 15.332 13.252 11.352 9.842
1398.509 8.702 7.872 7.392 7.202 7.282 7.622 8.212 8.962 9.932 11.202
1417.799 12.702 14.402 16.302 18.192 19.962 21.572 23.112 24.542 25.842 27.252
1437.089 28.922 31.032 33.902 37.932 43.282 49.432 55.192 59.232 61.092 62.092
1456.378 63.512 64.032 63.432 61.382 56.352 49.732 43.842 39.542 36.262 32.982
1475.668 29.272 25.572 21.962 18.262 14.962 12.462 10.712 9.522 8.702 8.092
1494.958 7.572 7.082 6.702 6.392 6.142 5.902 5.622 5.342 5.052 4.902
1514.248 4.822 4.812 4.852 4.882 4.962 5.032 5.162 5.292 5.422 5.622
1533.538 5.822 6.102 6.472 6.872 7.332 7.912 8.472 9.172 10.062 11.112
1552.827 12.362 13.802 15.402 17.212 19.512 22.232 25.382 29.112 33.352 38.092
1572.117 43.382 48.952 54.522 59.432 63.002 65.142 65.582 64.142 60.972 56.252
1591.407 50.282 43.392 36.262 29.902 24.812 20.982 18.152 16.072 14.482 13.212
1610.697 12.132 11.122 10.082 8.972 7.882 6.832 5.872 5.102 4.452 3.922
1629.986 3.532 3.222 3.002 2.862 2.682 2.522 2.452 2.402 2.342 2.252
1649.276 2.262 2.272 2.252 2.272 2.282 2.322 2.452 2.612 2.822 3.012
1668.566 3.232 3.482 3.702 3.812 3.802 3.682 3.452 3.222 2.982 2.692
1687.856 2.352 2.082 1.882 1.742 1.752 1.782 1.732 1.762 1.862 1.892
1707.146 1.972 2.072 2.152 2.272 2.382 2.402 2.382 2.412 2.422 2.382
1726.435 2.302 2.242 2.092 1.902 1.812 1.752 1.582 1.422 1.302 1.202
1745.725 1.132 1.0342 0.966 0.9117 0.8717 0.8501 0.8653 0.9281 0.9386 0.9408
1765.015 1.0353 1.132 1.192 1.372 1.602 1.852 2.202 2.582 2.912 3.262
1784.305 3.612 3.832 3.912 3.922 3.872 3.712 3.572 3.292 2.842 2.392
1803.594 2.002 1.712 1.512 1.402 1.332 1.322 1.352 1.422 1.562 1.752
1822.884 1.912 2.022 2.062 2.022 1.962 1.872 1.812 1.742 1.592 1.472
1842.174 1.382 1.362 1.432 1.622 1.802 1.932 2.072 2.192 2.212 2.192
1861.464 2.162 2.002 1.822 1.712 1.532 1.312 1.192 1.182 1.312 1.542
1880.754 1.802 2.082 2.422 2.812 3.202 3.502 3.702 3.762 3.772 3.742
1900.043 3.552 3.362 3.102 2.712 2.282 1.912 1.702 1.532 1.472 1.592
1919.333 1.772 2.062 2.472 2.902 3.332 3.632 3.802 3.862 3.872 3.732
1938.623 3.402 3.052 2.672 2.182 1.682 1.312 1.0694 0.8445 0.7872 0.7465
1957.913 0.6277 0.6119 0.5768 0.5827 0.5823 0.5701 0.5766 0.5823 0.6279 0.5761
1977.202 0.5106 0.5338 0.5424 0.5511 0.5213 0.4739 0.5064 0.5509 0.5507 0.5325
1996.492 0.5006 0.4674 0.5155 0.5445 0.5303 0.5261 0.4951 0.5256 0.5026 0.4814
2015.782 0.5429 0.5732 0.5316 0.49 0.5122 0.5294 0.6072 0.6734 0.6655 0.64
2035.072 0.5811 0.6266 0.7341 0.7518 0.7695 0.7507 0.7501 0.7907 0.8061 0.8487
2054.362 0.8674 0.8644 0.8245 0.8165 0.8393 0.8219 0.7977 0.7779 0.7686 0.7139
2073.651 0.6604 0.613 0.5451 0.4991 0.4612 0.4831 0.4701 0.3945 0.3485 0.3846
2092.941 0.411 0.4042 0.3993 0.388 0.4246 0.4396 0.4493 0.4391 0.4972 0.5455
2112.231 0.5078 0.6232 0.6356 0.5323 0.5095 0.4503 0.4506 0.4992 0.4556 0.382
2131.521 0.3897 0.416 0.3816 0.3541 0.4511 0.4813 0.409 0.4045 0.4323 0.4835
2150.810 0.4986 0.4671 0.4795 0.5043 0.5863 0.6061 0.5769 0.5991 0.5604 0.6397
2170.100 0.7385 0.648 0.5881 0.5855 0.5296 0.5317 0.5695 0.54 0.4888 0.4403
2189.390 0.3843 0.4282 0.4913 0.4707 0.4564 0.4584 0.4546 0.466 0.5121 0.5467
2208.680 0.5189 0.5273 0.5634 0.5376 0.5254 0.5779 0.5604 0.5497 0.6322 0.6444
2227.970 0.6553 0.647 0.5704 0.5962 0.6708 0.7377 0.7456 0.7276 0.8198 0.8537
2247.259 0.7592 0.7212 0.7593 0.7564 0.7587 0.7554 0.7577 0.8192 0.814 0.7493
2266.549 0.7556 0.7199 0.6789 0.6764 0.63 0.6321 0.6698 0.6484 0.6595 0.6934
2285.839 0.6871 0.7074 0.7935 0.8394 0.8391 0.9632 1.142 1.242 1.292 1.362
2305.129 1.342 1.332 1.322 1.222 1.182 1.1077 0.9561 0.8111 0.7493 0.6341
2324.418 0.523 0.5076 0.4862 0.4976 0.5042 0.5066 0.4703 0.4258 0.3891 0.4218
2343.708 0.488 0.5072 0.5337 0.5073 0.4868 0.4857 0.4688 0.4539 0.534 0.6119
2362.998 0.5791 0.5586 0.5986 0.6448 0.6979 0.7463 0.6569 0.6311 0.7146 0.7559
2382.288 0.7678 0.7115 0.7177 0.7695 0.722 0.7635 0.8624 0.9216 0.941 0.88
2401.578 0.8417 0.8229 0.8056 0.7986 0.7893 0.7612 0.7085 0.7557 0.8495 0.7821
2420.867 0.7475 0.8206 0.7723 0.7685 0.8379 0.8593 0.8425 0.8056 0.8695 0.9267
2440.157 0.9289 0.9189 0.8589 0.8852 0.9637 0.9339 0.9017 0.91 0.8902 0.8705
2459.447 0.9202 1.0056 1.132 1.152 1.0698 1.0807 1.1126 1.0751 1.0489 1.0478
2478.737 1.0439 1.0612 1.0636 1.0785 1.0132 1.0163 1.0588 1.0889 1.122 1.0223
2498.026 1.0011 0.9956 1.016 1.092 1.0987 1.172 1.212 1.152 1.1105 1.132
2517.316 1.172 1.192 1.202 1.162 1.1077 1.0368 1.0191 1.0939 1.0657 0.9523
2536.606 0.9374 0.9504 0.9445 0.9467 0.8835 0.8022 0.7993 0.8009 0.749 0.7257
2555.896 0.7692 0.8125 0.8271 0.8372 0.8271 0.8271 0.8936 0.9785 0.9843 0.9705
2575.186 0.9749 0.9021 0.8467 0.8729 0.8243 0.8215 0.7981 0.832 0.8356 0.7162
2594.475 0.7699 0.8224 0.8487 0.8989 0.913 0.8706 0.7461 0.7281 0.7981 0.8499
2613.765 0.8357 0.786 0.8074 0.8309 0.8288 0.8294 0.8269 0.8191 0.7731 0.8306
2633.055 0.8437 0.8068 0.8887 0.995 1.0378 0.8963 0.8318 0.8321 0.7738 0.7695
2652.345 0.792 0.8144 0.8125 0.8296 0.8754 0.8221 0.7663 0.7946 0.8617 0.8631
2671.634 0.7764 0.7765 0.7614 0.7206 0.779 0.8988 0.8979 0.8811 0.9262 0.9535
2690.924 0.996 1.0601 1.0772 1.0898 1.142 1.172 1.262 1.292 1.242 1.312
2710.214 1.412 1.522 1.682 1.752 1.742 1.642 1.652 1.782 1.902 1.962
2729.504 2.012 2.092 2.112 2.172 2.212 2.222 2.122 2.062 2.022 1.892
2748.794 1.782 1.752 1.782 1.672 1.612 1.772 1.842 1.772 1.752 1.822
2768.083 1.932 1.902 1.812 1.762 1.802 1.752 1.662 1.632 1.592 1.672
2787.373 1.782 1.802 1.972 2.102 2.072 2.122 2.172 2.262 2.392 2.502
2806.663 2.592 2.652 2.612 2.592 2.772 2.882 2.902 3.032 3.172 3.312
2825.953 3.462 3.632 3.882 4.152 4.432 4.762 5.222 5.672 6.312 7.092
2845.242 7.752 8.612 9.542 10.432 11.462 12.822 14.352 16.172 18.422 20.712
2864.532 23.112 25.402 27.302 28.912 30.462 31.792 31.952 30.922 29.452 27.982
2883.822 26.692 25.472 24.312 23.272 22.572 22.172 22.072 22.312 22.912 23.742
2903.112 24.832 26.372 28.262 30.392 32.812 35.602 38.552 41.752 45.142 48.372
2922.401 51.312 53.792 55.872 57.492 58.572 59.042 58.432 56.652 54.122 51.422
2941.691 48.922 46.722 44.912 43.712 43.302 44.222 46.992 51.962 59.662 69.802
2960.981 81.022 91.552 100.822 109.622 115.692 117.392 116.582 110.482 97.652 83.382
2980.271 70.482 57.992 46.172 36.022 28.112 22.412 18.612 16.222 14.832 14.142
2999.561 13.802 13.842 14.082 14.492 15.092 15.732 16.432 17.222 18.142 19.032
3018.850 19.922 20.782 21.362 21.672 21.972 22.092 21.872 21.682 21.372 20.912
3038.140 20.612 20.582 20.862 21.402 22.282 23.402 24.662 26.132 27.852 29.722
3057.430 31.962 34.482 36.922 39.222 41.242 42.882 43.842 43.992 43.462 42.202
3076.720 40.312 38.072 35.342 32.362 29.502 26.622 23.892 21.482 19.122 16.762
3096.009 14.542 12.512 10.672 9.022 7.592 6.372 5.342 4.562 4.082 3.792
3115.299 3.522 3.292 3.242 3.092 2.922 2.862 2.792 2.952 2.942 2.762
3134.589 2.832 2.842 2.742 2.712 2.782 2.802 2.892 2.932 2.892 2.972
3153.879 3.042 3.102 3.052 3.032 3.042 2.822 2.682 2.762 2.682 2.512
3173.169 2.432 2.412 2.522 2.432 2.322 2.322 2.282 2.302 2.372 2.452
3192.458 2.432 2.292 2.272 2.222 2.172 2.132 1.982 1.862 1.872 1.862
3211.748 1.702 1.722 1.752 1.572 1.482 1.522 1.432 1.382 1.382 1.432
3231.038 1.342 1.232 1.152 1.0465 1.0866 1.172 1.0278 0.9084 0.923 0.8499
3250.328 0.8386 0.8189 0.7881 0.7889 0.6934 0.5182 0.4657 0.5011 0.5724 0.4682
3269.617 0.3171 0.3415 0.4565 0.5038 0.4288 0.4226 0.4015 0.3441 0.4537 0.4712
3288.907 0.5502 0.6999 0.698 0.74 0.7779 0.7638 0.7786 0.7404 0.7335 0.8878
3308.197 0.9089 0.7708 0.8205 0.8616 0.6349 0.5555 0.6603 0.5875 0.4917 0.515
3327.487 0.453 0.369 0.4083 0.3763 0.2995 0.3554 0.3604 0.2905 0.20346 0.18486
3346.777 0.19273 0.0648 0.1325 0.3308 0.3911 0.3622 0.3082 0.3161 0.2583 0.2804
3366.066 0.3368 0.329 0.2841 0.3296 0.3763 0.21387 0.3181 0.4188 0.2642 0.2277
3385.356 0.2614 0.3271 0.3534 0.3456 0.3428 0.38 0.4849 0.5502 0.4861 0.4531
3404.646 0.4404 0.4179 0.3264 0.3 0.341 0.3434 0.3496 0.20049 0.18431 0.3534
3423.936 0.4006 0.3751 0.3574 0.2672 0.2894 0.3229 0.275 0.2408 0.2373 0.19772
3443.225 0.18229 0.1156 0 0.094 0.122906 0.1481 0.16712 0.130099 0.18717 0.18782
3462.515 0.22136 0.2897 0.317 0.2924 0.18323 0.0916 0.128184 0.21596 0.19588 0.236
3481.805 0.2344 0.2403 0.3134 0.2517 0.3373 0.4569 0.4403 0.3425 0.3203 0.3419
3501.095 0.3047 0.2711 0.3235 0.3795 0.25 0.20455 0.2349 0.11829 0.0745 0.2327
3520.385 0.4035 0.4438 0.4438 0.4071 0.3974 0.3994 0.3985 0.3391 0.3441 0.3911
3539.674 0.3324 0.3549 0.4515 0.4708 0.3435 0.2917 0.3467 0.4166 0.3478 0.2729
3558.964 0.304 0.3377 0.20539 0.19774 0.4185 0.4011 0.4554 0.4677 0.3902 0.3794
3578.254 0.2038 0.18384 0.2762 0.3036 0.4288 0.478 0.4118 0.21962 0.2442 0.3795
3597.544 0.4114 0.5463 0.5065 0.4281 0.3583 0.3716 0.4536 0.398 0.2979 0.1864
3616.833 0.125644 0.258 0.3756 0.3491 0.3468 0.3317 0.3651 0.3875 0.4154 0.4357
3636.123 0.3829 0.2327 0.124116 0.16515 0.2327 0.2647 0.20229 0.18029 0.18555 0.2554
3655.413 0.2284 0.16034 0.2724 0.277 0.19924 0.228 0.19726 0.2252 0.2479 0.2745
3674.703 0.3095 0.2838 0.3038 0.2514 0.16759 0.22066 0.2603 0.2492 0.3966 0.397
3693.993 0.3336 0.3354 0.3536 0.3737 0.3368 0.5013 0.6009 0.4558 0.4257 0.3668
3713.282 0.4612 0.5919 0.4596 0.2529 0.2981 0.4973 0.4297 0.3838 0.3982 0.4372
3732.572 0.437 0.458 0.5781 0.5254 0.4749 0.4969 0.4113 0.4374 0.4835 0.5969
3751.862 0.6592 0.5715 0.5737 0.5409 0.4719 0.4411 0.2916 0.2944 0.3954 0.308
3771.152 0.4478 0.4866 0.4525 0.5723 0.5066 0.3911 0.4259 0.4726 0.3235 0.3035
3790.441 0.4563 0.6007 0.5839 0.4826 0.5308 0.5629 0.5362 0.3856 0.4607 0.6446
3809.731 0.6134 0.6343 0.5583 0.4829 0.5185 0.4027 0.3307 0.3767 0.3467 0.4085
3829.021 0.5122 0.4703 0.4334 0.528 0.4926 0.4792 0.5198 0.4366 0.3057 0.2835
3848.311 0.4969 0.6398 0.5503 0.467 0.5796 0.6661 0.7409 0.7745 0.7612 0.7667
3867.601 0.8203 0.7896 0.7594 0.7677 0.7693 0.8903 0.8635 0.6773 0.6739 0.8084
3886.890 0.777 0.7349 0.756 0.6688 0.7076 0.9424 0.9342 0.8837 0.9677 0.9395
3906.180 0.8795 0.8876 0.9027 0.87 0.8538 0.7578 0.7177 0.8478 0.7765 0.7224
3925.470 0.7792 0.8531 0.8759 0.7128 0.6779 0.7947 0.7343 0.6426 0.6565 0.6006
3944.760 0.5131 0.5663 0.6069 0.6728 0.8968 0.8539 0.7585 0.5354 0.4311 0.6608
3964.049 0.6189 0.4979 0.4329 0.4521 0.5031 0.5236 0.6359 0.6407 0.6675 0.6109
3983.339 0.4739 0.4959 0.6144 0.5967 0.6423 0.8818 0.9694 0.8262 0.5929 0.5845
##END=
