##TITLE=Thiophene-3-carbonitrile
##JCAMP-DX=4.24
##DATA TYPE=INFRARED SPECTRUM
##ORIGIN=EPA-IR VAPOR PHASE LIBRARY
##OWNER=SRD/NIST
Collection (C) 2018 copyright by the U.S. Secretary of Commerce
on behalf of the United States of America. All rights reserved.
##CAS REGISTRY NO=1641-09-4
##MOLFORM=C 5 H 3 N S
##$NIST SOURCE=MSDC-IR
##STATE=gas
##XUNITS=1/CM
##YUNITS=ABSORBANCE
##XFACTOR=1.
##YFACTOR=0.001
##DELTAX=1.92934
##FIRSTX=549.9
##LASTX=3999.5
##FIRSTY=0.5407
##MAXX=3999.53
##MINX=549.863
##MAXY=0.0337145
##MINY=0
##NPOINTS=1789
##XYDATA=(X++(Y..Y))
549.863 0.5407 0.4939 0.6687 0.7299 0.7012 0.7526 0.7557 0.7653 0.7855 0.7712
569.156 0.7297 0.7316 0.9945 1.0119 0.8882 0.9055 1.0945 1.1445 1.0028 1.0521
588.450 1.1245 1.4445 1.7145 1.9645 2.1945 2.4645 2.8545 3.2045 3.6445 4.0345
607.743 4.3245 4.6645 4.8745 4.9545 5.1245 5.8345 7.5045 10.0345 10.0345 7.1145
627.037 5.6945 5.8645 6.1745 6.2245 5.9545 5.5945 5.1545 4.7445 4.4345 4.1545
646.330 3.7245 3.3745 3.1045 2.7545 2.3245 2.0345 1.9345 1.8245 1.7745 1.8045
665.624 1.8845 2.0245 2.2645 2.4145 2.5845 2.8045 2.9845 3.1345 3.1945 3.2345
684.917 3.3845 3.8745 4.7945 6.7245 6.8345 4.5245 3.6445 3.7045 3.6945 3.6645
704.210 3.5645 3.3945 3.1245 2.9645 2.7545 2.4345 2.1545 1.9345 1.7045 1.5745
723.504 1.4245 1.2845 1.2645 1.2345 1.1345 1.0647 1.1245 1.0945 0.9621 0.9945
742.797 1.0945 1.1445 1.2045 1.4345 1.7745 2.0445 2.4145 2.9945 3.6245 4.3645
762.091 5.3345 6.4245 7.5345 8.7945 10.0145 11.1645 12.2045 13.0545 13.7345 14.2545
781.384 14.7445 16.2845 20.2945 28.7445 33.7145 24.5745 16.0345 15.1945 14.9645 14.7845
800.678 14.3445 13.6945 12.7245 11.5945 10.4245 9.1945 8.0645 7.1045 6.1445 5.4045
819.971 4.7945 4.2145 3.6745 3.2345 2.9945 2.8745 2.7845 2.8345 2.8345 2.7145
839.264 2.5745 2.4845 2.4545 2.5445 2.7645 2.9845 3.2445 3.6545 4.2645 5.1245
858.558 6.1545 7.1745 7.9745 8.4045 8.4845 8.2145 7.8245 7.9645 8.2445 8.0545
877.851 8.0645 7.9545 6.9745 5.3645 3.6545 2.4445 1.7245 1.3545 1.2145 1.1245
897.145 0.9535 0.8293 0.8186 0.8126 0.855 0.922 1.0314 1.1545 1.3545 1.7545
916.438 2.1445 2.6245 3.0345 3.1445 3.0945 3.0345 3.1445 3.1945 2.9945 2.9845
935.732 3.1145 2.9745 2.5845 2.0145 1.4845 1.1545 0.9346 0.7754 0.669 0.5615
955.025 0.5242 0.4746 0.4197 0.4932 0.4939 0.4239 0.4302 0.432 0.4077 0.3993
974.318 0.3596 0.3641 0.3907 0.3561 0.3264 0.2979 0.3317 0.3633 0.2981 0.2562
993.612 0.3015 0.345 0.3507 0.3454 0.3605 0.4073 0.3902 0.351 0.3193 0.2964
1012.905 0.3369 0.3416 0.2957 0.3215 0.2985 0.3072 0.3566 0.3529 0.3088 0.2692
1032.199 0.3063 0.3502 0.3087 0.2453 0.2722 0.2928 0.276 0.3261 0.3685 0.378
1051.492 0.4247 0.4412 0.4633 0.4445 0.4398 0.5209 0.5536 0.5886 0.7351 0.8998
1070.786 0.9948 1.1145 1.2645 1.3745 1.3145 1.1645 1.0244 0.992 1.0281 1.0945
1090.079 1.2345 1.2545 1.2045 1.1045 1.004 0.9046 0.7229 0.6583 0.6733 0.5566
1109.372 0.4222 0.4063 0.465 0.5349 0.5247 0.3646 0.3505 0.5162 0.5359 0.564
1128.666 0.6948 0.7582 0.8638 0.9396 0.9732 1.0822 1.1645 1.3445 1.5845 1.6645
1147.959 1.6445 1.4645 1.2745 1.2745 1.3045 1.5045 1.6345 1.5845 1.3845 1.1145
1167.253 0.895 0.6881 0.5859 0.4977 0.5053 0.5279 0.5613 0.6246 0.5333 0.4502
1186.546 0.4648 0.5765 0.533 0.3783 0.12664 0 0.2606 0.3113 0.2959 0.4333
1205.840 0.3724 0.2436 0.4239 0.7472 0.9219 1.1545 1.1845 0.9067 0.9641 1.3345
1225.133 1.4445 1.2745 1.2345 1.1845 1.0527 0.912 0.8354 0.8292 0.7211 0.6996
1244.426 0.9523 0.9566 0.6984 0.6075 0.5016 0.4207 0.4392 0.4037 0.4297 0.4505
1263.720 0.4597 0.3815 0.4624 0.5783 0.6509 0.7217 0.4772 0.443 0.442 0.3377
1283.013 0.4202 0.4746 0.3912 0.4423 0.5217 0.5348 0.5561 0.607 0.569 0.5173
1302.307 0.5731 0.6399 0.6541 0.6257 0.6134 0.5903 0.5663 0.5593 0.6183 0.6462
1321.600 0.6368 0.6008 0.5501 0.5079 0.4931 0.4997 0.5156 0.5318 0.5435 0.602
1340.894 0.6765 0.7135 0.802 0.9732 1.0813 1.2045 1.4045 1.6245 1.8545 2.0545
1360.187 2.2145 2.3145 2.4445 2.4845 2.4745 2.5245 2.6045 2.6245 2.6145 2.5345
1379.480 2.3245 2.1445 1.8745 1.6945 1.7145 1.8945 2.1145 2.2745 2.4345 2.6245
1398.774 2.8045 2.9645 3.1545 3.2545 3.2145 3.0445 2.9545 3.0045 2.9145 2.7845
1418.067 2.6145 2.1845 1.6945 1.3245 1.0622 0.8544 0.6549 0.559 0.5926 0.6285
1437.361 0.5721 0.5664 0.5766 0.5578 0.6128 0.674 0.7085 0.8145 0.8873 0.9027
1456.654 0.9958 1.1145 1.2645 1.4145 1.5245 1.6745 1.8345 1.9345 1.9345 1.8345
1475.948 1.6545 1.5345 1.5945 1.7845 1.9445 1.9645 1.9145 1.7545 1.5545 1.4145
1495.241 1.2945 1.1945 1.1045 0.9915 0.9243 0.884 0.8973 0.9273 0.8944 0.8412
1514.534 0.8213 0.8118 0.78 0.7159 0.6982 0.6888 0.6841 0.6594 0.5819 0.558
1533.828 0.5284 0.4704 0.4134 0.3864 0.4044 0.4111 0.4802 0.6286 0.7594 0.8369
1553.121 0.9123 1.0578 1.2645 1.5345 1.8545 2.1045 2.2945 2.3845 2.3345 2.3445
1572.415 2.3445 2.1645 2.0945 2.2345 2.2045 1.9445 1.6145 1.3445 1.1045 0.8407
1591.708 0.6749 0.6213 0.5866 0.5512 0.4916 0.4981 0.4689 0.3753 0.3935 0.368
1611.002 0.3625 0.3686 0.3325 0.3437 0.3554 0.3209 0.2969 0.313 0.3586 0.37
1630.295 0.3288 0.3298 0.3223 0.2792 0.316 0.3395 0.3547 0.3601 0.2792 0.2918
1649.588 0.344 0.3818 0.367 0.4012 0.5421 0.5459 0.5264 0.5941 0.6101 0.6078
1668.882 0.5986 0.5959 0.6158 0.6337 0.6432 0.6451 0.6113 0.5008 0.4161 0.4876
1688.175 0.5258 0.4728 0.4825 0.5563 0.725 0.9285 1.07 1.3645 1.7545 1.9745
1707.469 2.0545 2.0245 1.9545 2.0045 2.0045 1.8745 2.0045 2.2145 2.1145 1.7545
1726.762 1.3445 1.0404 0.8349 0.6737 0.5906 0.6331 0.6338 0.6079 0.6389 0.7258
1746.056 0.782 0.7626 0.7903 0.8228 0.8323 0.8171 0.753 0.7159 0.7086 0.7202
1765.349 0.7947 0.8275 0.8111 0.7729 0.6936 0.5993 0.5265 0.4805 0.4605 0.4675
1784.642 0.426 0.3434 0.3047 0.2923 0.2925 0.283 0.2517 0.2558 0.2575 0.2922
1803.936 0.3136 0.3146 0.3214 0.2858 0.2719 0.2681 0.2317 0.2418 0.2897 0.304
1823.229 0.2676 0.2636 0.2968 0.3142 0.3093 0.2794 0.2496 0.2432 0.2672 0.2806
1842.523 0.2604 0.2556 0.2809 0.2699 0.273 0.2995 0.3219 0.2927 0.2849 0.2709
1861.816 0.2476 0.256 0.258 0.2485 0.2122 0.2687 0.3128 0.2692 0.2006 0.2284
1881.110 0.2828 0.2734 0.2865 0.3162 0.3213 0.2874 0.3087 0.2915 0.2767 0.2953
1900.403 0.2967 0.2822 0.2349 0.2631 0.2978 0.2828 0.2711 0.3081 0.2986 0.2565
1919.696 0.2763 0.2777 0.2331 0.2203 0.2465 0.2057 0.2221 0.2684 0.2423 0.2211
1938.990 0.2288 0.2558 0.2714 0.2668 0.2287 0.2235 0.2854 0.3379 0.3364 0.299
1958.283 0.2743 0.2565 0.2564 0.263 0.3062 0.3216 0.2992 0.2897 0.2413 0.2217
1977.577 0.228 0.2555 0.2789 0.2683 0.2317 0.2317 0.2697 0.2911 0.2838 0.2842
1996.870 0.2956 0.2855 0.2843 0.3228 0.3341 0.321 0.3718 0.3727 0.3692 0.3885
2016.164 0.3585 0.3624 0.3857 0.3878 0.3951 0.3975 0.3791 0.3901 0.3944 0.3767
2035.457 0.3685 0.3739 0.3613 0.3663 0.384 0.3543 0.3395 0.3073 0.3282 0.3457
2054.750 0.3446 0.3704 0.3551 0.3299 0.348 0.3561 0.3039 0.3246 0.3676 0.3818
2074.044 0.3173 0.2706 0.3327 0.3487 0.3325 0.3051 0.2931 0.3267 0.3321 0.3331
2093.337 0.336 0.3203 0.3178 0.2851 0.314 0.3574 0.2981 0.2612 0.2255 0.1999
2112.631 0.2265 0.2093 0.2424 0.3062 0.2764 0.2591 0.2597 0.2797 0.32 0.3244
2131.924 0.3178 0.3011 0.3226 0.3468 0.2887 0.2914 0.3283 0.3021 0.3244 0.3455
2151.218 0.3352 0.3331 0.3377 0.3727 0.3833 0.3906 0.4073 0.3725 0.3299 0.3259
2170.511 0.3929 0.444 0.4244 0.4139 0.4127 0.4118 0.4146 0.4127 0.4263 0.4259
2189.804 0.4011 0.4161 0.4387 0.429 0.4101 0.4217 0.473 0.5037 0.5528 0.6429
2209.098 0.7209 0.8792 1.0945 1.3345 1.6445 2.0345 2.4445 2.8845 3.3545 3.8445
2228.391 4.3245 4.6945 4.9645 5.2145 5.3445 5.2445 5.1645 5.1145 4.8845 4.5145
2247.685 4.0645 3.5545 2.9745 2.2745 1.5645 1.0009 0.6858 0.5435 0.4702 0.4583
2266.978 0.4344 0.4437 0.448 0.4363 0.4447 0.4476 0.442 0.4199 0.4567 0.4655
2286.272 0.4426 0.4686 0.4903 0.482 0.4596 0.4663 0.4898 0.5097 0.479 0.4356
2305.565 0.4592 0.5094 0.4755 0.4367 0.47 0.4443 0.3756 0.3878 0.3916 0.3451
2324.858 0.3555 0.3485 0.3121 0.3076 0.2955 0.264 0.2752 0.2903 0.3105 0.3155
2344.152 0.2934 0.2377 0.17974 0.2459 0.2732 0.2525 0.2552 0.194 0.17562 0.2239
2363.445 0.2419 0.2408 0.2506 0.2681 0.2861 0.2945 0.3245 0.3265 0.3406 0.4196
2382.739 0.4584 0.4487 0.4005 0.3691 0.435 0.4228 0.3772 0.4245 0.3803 0.3053
2402.032 0.3168 0.3543 0.3097 0.3 0.3022 0.3081 0.2993 0.2956 0.3292 0.3032
2421.326 0.3182 0.3175 0.285 0.3154 0.3636 0.3582 0.3674 0.4344 0.4556 0.4381
2440.619 0.4387 0.4678 0.4585 0.4583 0.4743 0.4422 0.4512 0.4385 0.4265 0.4385
2459.912 0.3979 0.3347 0.3364 0.307 0.272 0.2827 0.2564 0.2787 0.3219 0.2812
2479.206 0.2731 0.2655 0.2626 0.3025 0.2279 0.1868 0.225 0.1959 0.2104 0.245
2498.499 0.2642 0.2357 0.2026 0.2293 0.2482 0.277 0.2339 0.2259 0.2715 0.295
2517.793 0.2957 0.2461 0.1911 0.2094 0.2383 0.2247 0.257 0.265 0.2635 0.2573
2537.086 0.2588 0.2842 0.2796 0.268 0.2717 0.2847 0.2983 0.2768 0.2638 0.2988
2556.380 0.2712 0.2431 0.2433 0.2432 0.2415 0.2473 0.2617 0.2838 0.2486 0.2078
2575.673 0.2165 0.2246 0.2821 0.312 0.2525 0.2742 0.2935 0.2939 0.3672 0.3357
2594.966 0.253 0.2452 0.281 0.2989 0.3281 0.3136 0.3124 0.3351 0.2644 0.2229
2614.260 0.2687 0.3702 0.4141 0.3233 0.2748 0.2616 0.2826 0.3033 0.259 0.2125
2633.553 0.2395 0.3259 0.3212 0.3499 0.3936 0.3612 0.3765 0.3597 0.2902 0.3423
2652.847 0.3601 0.2842 0.2779 0.2966 0.3517 0.3454 0.3317 0.3644 0.4356 0.4626
2672.140 0.4123 0.3648 0.3425 0.4304 0.4328 0.4108 0.3608 0.3118 0.3087 0.3118
2691.434 0.3579 0.394 0.4806 0.484 0.4524 0.4933 0.5076 0.5581 0.5758 0.5549
2710.727 0.5637 0.5714 0.6176 0.6197 0.6196 0.6635 0.6593 0.5861 0.5666 0.6033
2730.020 0.5877 0.5698 0.5442 0.5586 0.5476 0.5076 0.5548 0.5295 0.5015 0.5588
2749.314 0.5695 0.5416 0.5138 0.4375 0.4667 0.5036 0.4779 0.4592 0.4122 0.4164
2768.607 0.4191 0.4481 0.502 0.5444 0.4922 0.4826 0.5364 0.5443 0.4929 0.4664
2787.901 0.5024 0.5536 0.6336 0.5699 0.4926 0.516 0.4966 0.5138 0.5979 0.5529
2807.194 0.5041 0.5421 0.5226 0.4657 0.4358 0.3714 0.4128 0.4535 0.4004 0.375
2826.488 0.3562 0.3532 0.3667 0.3114 0.3577 0.399 0.3851 0.4745 0.4509 0.4187
2845.781 0.2878 0.2638 0.341 0.3827 0.4191 0.3994 0.4394 0.4393 0.3987 0.3652
2865.074 0.3188 0.3593 0.3335 0.3377 0.416 0.4651 0.3994 0.3097 0.3726 0.4481
2884.368 0.4233 0.4022 0.4321 0.3738 0.3884 0.4097 0.3626 0.3246 0.332 0.2109
2903.661 0.12064 0.2337 0.3129 0.3135 0.3432 0.34 0.3117 0.1953 0.14023 0.2976
2922.955 0.3532 0.3397 0.3596 0.3686 0.4178 0.3254 0.2138 0.2095 0.2071 0.2427
2942.248 0.229 0.3144 0.4309 0.3664 0.3039 0.2957 0.306 0.2333 0.2716 0.3329
2961.542 0.1848 0.2505 0.3392 0.3304 0.4597 0.4469 0.2835 0.2715 0.14751 0.16031
2980.835 0.3424 0.397 0.3219 0.2661 0.2389 0.2066 0.2804 0.2885 0.1963 0.10709
3000.128 0.16538 0.1891 0.265 0.251 0.201 0.2794 0.2489 0.225 0.2606 0.2935
3019.422 0.28 0.3006 0.293 0.3313 0.3596 0.3767 0.3004 0.2667 0.3463 0.3064
3038.715 0.2875 0.4479 0.5432 0.3635 0.2008 0.17064 0.3137 0.3253 0.11164 0.10877
3058.009 0.28 0.215 0.1949 0.2923 0.2616 0.2751 0.2788 0.2283 0.4374 0.5814
3077.302 0.428 0.2901 0.2957 0.3863 0.4904 0.5912 0.5351 0.5594 0.6179 0.5798
3096.596 0.6075 0.652 0.8336 1.0118 0.9805 1.0342 1.1345 1.1445 1.2545 1.3745
3115.889 1.4645 1.5445 1.5345 1.4445 1.3345 1.3645 1.3245 1.2745 1.3745 1.4345
3135.182 1.3745 1.0845 0.9493 0.913 0.8391 0.8359 0.6803 0.5704 0.5038 0.5125
3154.476 0.5403 0.5706 0.6052 0.4205 0.3854 0.4844 0.4548 0.4057 0.3809 0.3987
3173.769 0.3378 0.3957 0.5427 0.4021 0.2552 0.222 0.10318 0.0298 0.15346 0.3139
3193.063 0.3561 0.3656 0.3007 0.3769 0.406 0.2411 0.2792 0.4101 0.3696 0.3751
3212.356 0.3977 0.3369 0.2491 0.396 0.4247 0.196 0.2526 0.3773 0.413 0.4662
3231.650 0.2664 0.196 0.2675 0.2986 0.4223 0.4304 0.4251 0.4244 0.3991 0.349
3250.943 0.3326 0.2361 0.2257 0.2252 0.2888 0.2898 0.1902 0.09938 0.0728 0.12388
3270.236 0.12241 0.2678 0.4419 0.3511 0.2879 0.3264 0.259 0.282 0.2744 0.2979
3289.530 0.2485 0.1535 0.18439 0.3325 0.2548 0.2336 0.3832 0.3256 0.306 0.2792
3308.823 0.5074 0.4715 0.2075 0.4067 0.6201 0.5084 0.482 0.5604 0.3346 0.0745
3328.117 0.11198 0.2714 0.3496 0.471 0.3745 0.2338 0.3503 0.3668 0.3417 0.2227
3347.410 0.12871 0.2364 0.4183 0.429 0.3919 0.2899 0.16865 0.2428 0.17039 0.07882
3366.704 0.3401 0.6007 0.4528 0.4518 0.4453 0.3746 0.4564 0.4839 0.4748 0.4389
3385.997 0.3306 0.4335 0.5286 0.3563 0.3288 0.2917 0.4705 0.7375 0.6581 0.3761
3405.290 0.3771 0.5147 0.443 0.4489 0.4906 0.4385 0.2962 0.15827 0.2603 0.3399
3424.584 0.2223 0.1532 0.15142 0.17282 0.2823 0.4841 0.4681 0.2602 0.2495 0.3218
3443.877 0.2595 0.3829 0.4528 0.2413 0.2048 0.2664 0.2893 0.359 0.33 0.3177
3463.171 0.4097 0.371 0.4434 0.4855 0.4276 0.3807 0.3919 0.5432 0.3887 0.3253
3482.464 0.3791 0.3209 0.3581 0.4043 0.3371 0.2518 0.1897 0.247 0.3441 0.3016
3501.758 0.3322 0.4578 0.3312 0.0385 0.16117 0.4258 0.4016 0.282 0.12765 0.10286
3521.051 0.238 0.2711 0.2213 0.2296 0.1872 0.18145 0.4157 0.4986 0.3121 0.1876
3540.344 0.282 0.3624 0.2433 0.11776 0.0744 0.2572 0.5272 0.5036 0.4364 0.4878
3559.638 0.4496 0.48 0.3984 0.086812 0.09527 0.3894 0.4965 0.4113 0.442 0.4284
3578.931 0.4323 0.4982 0.3804 0.4308 0.4932 0.4933 0.6055 0.5949 0.4132 0.2873
3598.225 0.3304 0.4413 0.4534 0.4291 0.4768 0.4547 0.4617 0.4664 0.3144 0.2562
3617.518 0.3767 0.408 0.4368 0.5313 0.4925 0.4275 0.4147 0.4354 0.4085 0.4927
3636.812 0.5142 0.3562 0.3525 0.4473 0.4652 0.4418 0.3776 0.3261 0.3785 0.5121
3656.105 0.529 0.4554 0.4173 0.3049 0.2659 0.2087 0.227 0.2732 0.2937 0.455
3675.398 0.4485 0.3982 0.3561 0.3307 0.3321 0.3315 0.2116 0.088692 0.16825 0.2148
3694.692 0.2381 0.2472 0.2829 0.3205 0.4129 0.4594 0.4125 0.3628 0.3172 0.301
3713.985 0.2724 0.2045 0.17127 0.2812 0.39 0.4269 0.4098 0.2827 0.3688 0.5794
3733.279 0.6096 0.5811 0.5561 0.4969 0.4498 0.3969 0.4788 0.5263 0.417 0.4124
3752.572 0.4588 0.5576 0.6093 0.5417 0.5127 0.5858 0.4969 0.4538 0.4981 0.4387
3771.866 0.3843 0.3577 0.3865 0.4349 0.4603 0.4643 0.372 0.3016 0.401 0.4376
3791.159 0.4002 0.3771 0.4307 0.3809 0.3077 0.2319 0.086533 0.10727 0.2642 0.3015
3810.452 0.3713 0.4781 0.3663 0.3253 0.3844 0.3776 0.2654 0.2385 0.2419 0.2472
3829.746 0.2969 0.2178 0.2579 0.3641 0.2397 0.15042 0.2757 0.3129 0.2777 0.289
3849.039 0.2613 0.2064 0.2376 0.232 0.3227 0.4545 0.4456 0.3519 0.359 0.456
3868.333 0.3742 0.3347 0.3447 0.3727 0.4096 0.325 0.2985 0.3403 0.4416 0.4113
3887.626 0.272 0.2472 0.2459 0.3542 0.4288 0.3186 0.2141 0.229 0.254 0.2078
3906.920 0.17044 0.2512 0.2843 0.3378 0.4164 0.3465 0.3143 0.3589 0.3323 0.2369
3926.213 0.3045 0.4372 0.3301 0.28 0.3068 0.2627 0.3281 0.4851 0.5363 0.3841
3945.506 0.3338 0.3727 0.4281 0.4977 0.3814 0.3197 0.3133 0.3884 0.4546 0.3128
3964.800 0.3534 0.4788 0.3744 0.2602 0.2901 0.2965 0.3083 0.3605 0.3749 0.4048
3984.093 0.368 0.3072 0.4647 0.5524 0.493 0.4633 0.3812 0.3953 0.4541
##END=
