##TITLE=4-Isopropylphenoxyacetic acid
##JCAMP-DX=4.24
##DATA TYPE=INFRARED SPECTRUM
##ORIGIN=EPA-IR VAPOR PHASE LIBRARY
##OWNER=SRD/NIST
Collection (C) 2018 copyright by the U.S. Secretary of Commerce
on behalf of the United States of America. All rights reserved.
##CAS REGISTRY NO=1643-16-9
##MOLFORM=C 11 H 14 O 3
##$NIST SOURCE=MSDC-IR
##STATE=gas
##XUNITS=1/CM
##YUNITS=ABSORBANCE
##XFACTOR=1.
##YFACTOR=0.001
##DELTAX=1.929
##FIRSTX=549.8
##LASTX=4000.8
##FIRSTY=28.527
##MAXX=4000.75
##MINX=549.766
##MAXY=0.166777
##MINY=0
##NPOINTS=1790
##XYDATA=(X++(Y..Y))
549.766 28.527 29.097 29.407 29.627 30.127 30.547 30.797 30.977 30.877 30.597
569.056 30.407 30.407 30.257 29.847 29.657 29.437 28.997 28.717 28.597 28.427
588.346 28.387 28.767 29.097 29.387 29.897 30.577 31.227 32.047 33.087 34.087
607.636 34.987 35.657 36.137 36.497 36.587 36.327 35.917 35.187 34.247 33.317
626.926 32.127 30.787 29.377 28.007 26.877 25.767 24.647 23.597 22.627 21.497
646.216 20.447 19.647 18.887 18.137 17.517 16.857 16.267 15.687 15.077 14.717
665.506 14.337 13.957 13.547 13.147 12.817 12.647 12.617 12.717 12.957 13.187
684.796 13.577 14.077 14.407 14.597 14.567 14.387 13.957 13.447 12.937 12.267
704.086 11.647 11.037 10.557 10.197 9.857 9.687 9.537 9.357 9.167 8.917
723.376 8.637 8.277 7.797 7.357 6.897 6.457 6.097 5.757 5.277 4.837
742.666 4.477 4.157 3.947 3.737 3.547 3.307 3.087 2.947 2.717 2.527
761.956 2.397 2.267 2.227 2.087 2.007 2.047 2.037 2.037 2.137 2.337
781.246 2.557 2.837 3.377 4.027 4.737 5.677 6.837 8.317 10.007 11.697
800.536 13.427 14.897 16.137 17.347 18.417 19.477 20.847 22.717 25.187 28.187
819.826 31.617 35.377 39.137 42.527 45.147 46.467 46.287 44.877 42.437 39.187
839.116 35.447 31.567 27.907 24.687 21.967 19.787 18.007 16.547 15.317 14.227
858.406 13.357 12.517 11.787 11.217 10.667 10.127 9.747 9.537 9.337 9.097
877.696 8.877 8.617 8.307 7.937 7.527 7.147 6.667 6.117 5.637 5.177
896.986 4.637 4.017 3.467 2.977 2.567 2.307 2.107 1.917 1.847 1.967
916.276 2.077 2.267 2.597 2.847 3.027 3.177 3.267 3.267 3.267 3.247
935.566 3.177 3.147 3.187 3.267 3.267 3.247 3.337 3.427 3.457 3.497
954.856 3.527 3.577 3.687 3.807 3.867 3.987 4.157 4.307 4.537 4.827
974.146 5.057 5.257 5.507 5.727 5.947 6.257 6.517 6.777 7.067 7.407
993.436 7.827 8.217 8.747 9.487 10.387 11.657 13.387 15.567 17.897 19.527
1012.726 20.327 20.677 20.537 19.727 18.767 18.467 18.897 19.987 21.637 23.777
1032.016 26.437 29.687 33.557 37.937 42.827 48.147 53.747 59.377 64.467 68.477
1051.306 71.057 72.047 71.697 70.287 68.447 67.007 66.267 66.597 67.917 69.827
1070.596 71.917 73.767 74.937 75.037 74.147 72.197 69.147 65.237 60.757 56.007
1089.886 51.427 47.417 44.327 42.357 41.407 41.317 41.947 43.197 45.097 47.607
1109.176 50.587 54.287 58.807 63.887 69.207 74.227 78.467 81.407 82.567 81.917
1128.467 79.647 76.097 72.097 68.417 65.237 62.657 60.847 59.657 58.987 58.837
1147.757 58.927 59.177 59.607 60.037 60.387 60.537 60.587 60.727 61.187 62.267
1167.047 64.307 67.627 72.127 77.137 81.157 83.027 82.307 78.877 72.987 65.507
1186.337 57.997 51.967 48.207 46.697 47.287 49.477 52.837 57.277 62.377 67.947
1205.627 74.047 80.517 87.117 93.997 101.247 108.917 116.857 124.757 132.057 137.987
1224.917 141.957 143.497 142.357 138.947 133.857 127.537 120.707 113.987 107.427 101.057
1244.207 94.917 88.847 82.897 77.217 71.967 67.237 63.257 60.017 57.337 55.097
1263.497 53.147 51.497 50.157 49.247 48.907 49.277 50.357 52.027 53.987 55.707
1282.787 56.807 56.917 55.967 54.077 51.597 48.917 46.327 44.157 42.507 41.167
1302.077 40.027 39.017 38.037 37.137 36.477 36.187 36.347 36.957 37.967 39.287
1321.367 40.867 42.707 44.797 46.997 49.197 51.407 53.417 55.107 56.317 56.927
1340.657 57.027 56.657 55.827 54.667 53.317 51.927 50.597 49.367 48.137 46.947
1359.947 45.827 44.637 43.357 42.057 40.687 39.177 37.527 35.877 34.327 32.877
1379.237 31.647 30.707 29.977 29.297 28.497 27.567 26.577 25.367 23.887 22.427
1398.527 21.157 20.047 19.067 18.177 17.387 16.697 16.117 15.697 15.357 15.087
1417.817 14.937 14.787 14.647 14.607 14.607 14.667 14.797 14.997 15.327 15.787
1437.107 16.387 17.147 18.167 19.377 20.607 21.607 22.117 22.177 21.767 20.997
1456.397 20.027 19.137 18.557 18.297 18.237 18.177 18.127 18.097 18.127 18.157
1475.687 18.267 18.477 18.807 19.377 20.317 21.727 23.757 26.617 30.627 36.057
1494.977 43.687 54.347 68.317 86.127 107.317 129.567 150.617 164.367 166.777 158.467
1514.267 141.187 116.497 88.357 63.637 44.117 31.977 24.257 19.137 15.607 13.077
1533.557 11.167 9.697 8.647 7.807 7.107 6.577 6.157 5.837 5.577 5.427
1552.847 5.307 5.197 5.117 5.047 4.957 4.907 4.897 4.937 5.117 5.437
1572.137 5.867 6.457 7.297 8.267 9.307 10.497 11.667 12.807 13.957 15.057
1591.427 16.187 17.387 18.757 20.427 22.447 24.667 26.887 28.837 30.227 30.807
1610.717 30.407 28.957 26.687 23.687 20.437 17.427 14.697 12.437 10.727 9.467
1630.007 8.477 7.737 7.207 6.777 6.337 5.987 5.717 5.447 5.207 4.957
1649.297 4.757 4.627 4.477 4.257 4.057 3.927 3.807 3.677 3.537 3.447
1668.587 3.377 3.317 3.277 3.277 3.287 3.317 3.387 3.457 3.557 3.617
1687.877 3.697 3.837 3.967 4.137 4.357 4.517 4.677 4.867 5.027 5.227
1707.167 5.407 5.587 5.787 6.037 6.337 6.667 6.937 7.277 7.737 8.207
1726.457 8.757 9.397 10.127 11.007 12.127 13.417 14.837 16.537 18.367 20.417
1745.747 22.687 25.047 27.407 29.847 32.307 34.777 37.427 40.167 43.287 46.907
1765.037 51.147 56.497 63.357 71.507 81.077 90.337 97.847 102.997 105.757 106.097
1784.327 103.707 99.707 96.217 94.637 95.597 99.027 104.597 112.037 120.627 129.597
1803.617 137.857 144.347 147.857 147.357 142.617 134.037 122.387 108.647 94.207 80.427
1822.907 68.347 58.267 50.097 43.547 38.147 33.787 30.137 27.087 24.517 22.307
1842.197 20.367 18.607 17.027 15.577 14.267 13.087 12.057 11.167 10.347 9.627
1861.487 9.007 8.517 8.127 7.767 7.457 7.147 6.887 6.617 6.327 6.037
1880.777 5.747 5.467 5.187 4.887 4.627 4.367 4.117 3.917 3.727 3.557
1900.067 3.407 3.247 3.087 2.887 2.717 2.547 2.357 2.217 2.117 2.037
1919.357 1.947 1.847 1.777 1.697 1.637 1.587 1.5292 1.5078 1.4725 1.4208
1938.647 1.4112 1.4089 1.381 1.3285 1.2753 1.2637 1.2467 1.2528 1.2693 1.2554
1957.937 1.2384 1.2652 1.2758 1.2638 1.2728 1.2938 1.3469 1.3651 1.3878 1.4449
1977.227 1.4556 1.4262 1.4382 1.4766 1.4855 1.4674 1.4676 1.4672 1.4587 1.432
1996.517 1.4315 1.4471 1.4652 1.4747 1.4378 1.4371 1.5026 1.5257 1.5226 1.567
2015.807 1.607 1.637 1.687 1.727 1.757 1.787 1.757 1.727 1.717 1.687
2035.097 1.657 1.637 1.587 1.5376 1.5308 1.5422 1.545 1.557 1.5496 1.5369
2054.387 1.5483 1.557 1.597 1.607 1.597 1.587 1.597 1.617 1.647 1.647
2073.677 1.597 1.577 1.607 1.627 1.617 1.567 1.5359 1.537 1.547 1.5054
2092.967 1.4456 1.4092 1.4051 1.3993 1.3703 1.349 1.3406 1.3466 1.3331 1.3152
2112.257 1.3508 1.3553 1.3114 1.2844 1.2777 1.2652 1.2481 1.2485 1.2525 1.234
2131.547 1.2179 1.1924 1.1509 1.1798 1.1795 1.119 1.1023 1.1395 1.1587 1.123
2150.837 1.0912 1.0718 1.059 1.0544 1.0464 1.0338 1.02 1.0139 1.0088 1.0112
2170.127 1.0052 0.9906 0.9733 0.9731 0.9697 0.9441 0.9629 1.0039 1.0044 0.9861
2189.417 0.9794 0.977 0.9391 0.8954 0.9266 0.9509 0.9105 0.8595 0.8319 0.8337
2208.707 0.8186 0.7914 0.7697 0.7595 0.7639 0.7726 0.7707 0.756 0.7764 0.7978
2227.997 0.7877 0.7885 0.8425 0.8551 0.8346 0.8707 0.9195 0.9388 0.9303 0.9483
2247.287 0.9547 0.9649 0.98 0.9772 1.0057 1.0574 1.0506 1.0258 1.0644 1.104
2266.577 1.0906 1.095 1.1298 1.157 1.1614 1.1459 1.1554 1.1986 1.1929 1.2136
2285.868 1.2918 1.2776 1.2805 1.3406 1.3707 1.372 1.3677 1.3807 1.4123 1.4374
2305.158 1.4634 1.4932 1.4723 1.4505 1.4578 1.4481 1.4335 1.4126 1.3912 1.3678
2324.448 1.3353 1.3217 1.2747 1.2555 1.2496 1.205 1.214 1.2504 1.2615 1.2488
2343.738 1.2414 1.2005 1.1582 1.1719 1.193 1.1467 1.0925 1.098 1.0773 1.0578
2363.028 1.054 1.0618 1.1091 1.1277 1.1057 1.0513 1.0466 1.1078 1.1238 1.1361
2382.318 1.1238 1.0967 1.1204 1.1197 1.0972 1.1096 1.1595 1.201 1.1959 1.1672
2401.608 1.1255 1.1687 1.2095 1.2082 1.2149 1.2034 1.1975 1.1825 1.1948 1.1726
2420.898 1.162 1.1593 1.1497 1.1762 1.165 1.1512 1.1324 1.1508 1.1876 1.1873
2440.188 1.204 1.2277 1.2443 1.2591 1.2548 1.2534 1.2663 1.252 1.2413 1.2231
2459.478 1.2217 1.2277 1.2245 1.2386 1.2556 1.2687 1.2509 1.2532 1.2561 1.2534
2478.768 1.2667 1.2671 1.2354 1.2231 1.2311 1.202 1.2004 1.2032 1.1878 1.2324
2498.058 1.2429 1.2224 1.2077 1.2087 1.2439 1.2399 1.2027 1.1733 1.2 1.2231
2517.348 1.239 1.2054 1.1545 1.1605 1.1552 1.1641 1.1774 1.1447 1.0972 1.068
2536.638 1.0448 1.032 0.996 0.9892 1.0269 1.0247 1.0002 0.9724 0.9461 0.948
2555.928 0.9432 0.9384 0.9489 0.9288 0.9424 0.9524 0.9578 0.9747 0.9615 0.9585
2575.218 0.9818 1.0322 1.1008 1.1356 1.1481 1.1685 1.2088 1.1949 1.1425 1.1635
2594.508 1.1724 1.1551 1.1223 1.106 1.0877 1.0391 0.9741 0.9207 0.9087 0.8864
2613.798 0.8455 0.78 0.7371 0.7178 0.7378 0.7082 0.61619 0.59359 0.60942 0.61095
2633.088 0.6028 0.60145 0.57786 0.539 0.5408 0.54829 0.59777 0.6315 0.59547 0.57408
2652.378 0.562353 0.558339 0.57022 0.58909 0.61752 0.64636 0.65681 0.6778 0.6919 0.7138
2671.668 0.7216 0.7324 0.7514 0.744 0.7255 0.6921 0.6975 0.7266 0.7365 0.7697
2690.958 0.7802 0.7744 0.8376 0.882 0.8995 0.9348 0.9425 0.9395 0.9511 0.9689
2710.248 1.0348 1.1254 1.1614 1.2008 1.2848 1.3805 1.4433 1.5151 1.5228 1.4915
2729.538 1.4914 1.5278 1.567 1.5378 1.5039 1.4636 1.4148 1.3392 1.3377 1.3455
2748.828 1.3485 1.3831 1.4069 1.4513 1.4683 1.4885 1.5146 1.5464 1.5372 1.5447
2768.118 1.617 1.607 1.567 1.597 1.627 1.657 1.687 1.697 1.737 1.777
2787.408 1.817 1.817 1.817 1.867 1.897 1.977 2.077 2.117 2.167 2.207
2806.698 2.237 2.267 2.397 2.557 2.647 2.667 2.687 2.757 2.867 2.967
2825.988 3.087 3.177 3.237 3.377 3.547 3.737 3.997 4.277 4.567 4.987
2845.278 5.437 5.887 6.477 7.097 7.767 8.557 9.427 10.417 11.517 12.747
2864.568 14.117 15.657 17.477 19.577 21.747 23.967 26.067 27.797 29.007 29.717
2883.858 29.947 29.727 29.257 28.767 28.437 28.327 28.437 28.617 28.857 29.257
2903.148 29.627 29.977 30.387 30.747 31.037 31.477 31.987 32.597 33.427 34.347
2922.438 35.427 36.787 38.277 39.907 41.707 43.557 45.387 47.077 48.397 49.307
2941.728 49.657 49.427 49.047 48.597 48.487 49.287 51.537 55.927 63.207 74.097
2961.018 87.977 102.347 114.157 121.827 125.037 122.177 111.837 96.957 81.987 68.317
2980.308 55.747 45.007 36.867 31.027 26.727 23.527 21.087 19.117 17.587 16.287
2999.598 15.127 14.217 13.347 12.507 11.797 11.207 10.827 10.657 10.587 10.577
3018.888 10.817 11.307 11.977 12.847 13.957 15.327 16.757 18.027 18.927 19.317
3038.178 19.237 18.517 17.417 16.217 14.947 13.817 12.977 12.317 11.747 11.237
3057.468 10.767 10.367 10.097 9.917 9.817 9.737 9.627 9.477 9.227 8.887
3076.758 8.467 7.977 7.527 7.157 6.857 6.687 6.517 6.437 6.437 6.457
3096.048 6.437 6.337 6.217 6.157 5.987 5.757 5.457 5.097 4.827 4.547
3115.338 4.227 3.947 3.707 3.517 3.357 3.127 2.907 2.727 2.567 2.427
3134.628 2.297 2.107 1.947 1.827 1.687 1.567 1.5253 1.4736 1.4232 1.3621
3153.918 1.3348 1.3565 1.3776 1.3301 1.3293 1.4156 1.3536 1.2925 1.2809 1.2209
3173.208 1.1349 1.1479 1.1934 1.1863 1.2269 1.2117 1.1138 1.1115 1.1221 1.0991
3192.498 1.1433 1.1455 1.1412 1.1463 1.0811 1.0488 1.0536 1.0632 1.0139 0.8424
3211.788 0.8238 0.8878 0.8265 0.7413 0.6977 0.7091 0.6713 0.6573 0.63344 0.534
3231.078 0.5407 0.55269 0.439 0.39 0.381 0.369 0.375 0.381 0.374 0.298
3250.368 0.245 0.215 0.176 0.214 0.263 0.239 0.232 0.145 0.139 0.218
3269.658 0.185 0.134 0.129 0.205 0.245 0.22 0.134 0.115 0.109 0.099
3288.948 0.173 0.211 0.196 0.065 0.104 0.228 0.215 0.259 0.28 0.239
3308.238 0.212 0.24 0.236 0.189 0.176 0.164 0.197 0.247 0.259 0.243
3327.528 0.213 0.244 0.259 0.173 0.168 0.186 0.148 0.077 0.049 0.123
3346.818 0.151 0.097 0.106 0.162 0.203 0.191 0.143 0.093 0.066 0.106
3366.108 0.075 0.008 0 0.111 0.207 0.203 0.185 0.121 0.139 0.203
3385.398 0.14 0.093 0.173 0.327 0.334 0.209 0.217 0.24 0.262 0.228
3404.688 0.132 0.152 0.243 0.274 0.298 0.261 0.253 0.335 0.358 0.433
3423.978 0.5127 0.5074 0.561166 0.63171 0.6942 0.6978 0.7025 0.7807 0.8036 0.7328
3443.269 0.7434 0.8904 0.9718 0.9501 0.9312 0.9967 1.0238 1.0734 1.1918 1.302
3462.559 1.3699 1.4535 1.5561 1.697 1.827 1.937 2.037 2.137 2.367 2.657
3481.849 2.887 3.187 3.657 4.127 4.657 5.287 5.947 6.757 7.587 8.437
3501.139 9.387 10.367 11.567 12.987 14.537 16.397 18.567 20.907 23.257 25.357
3520.429 26.897 27.597 27.407 26.417 24.827 22.807 20.667 18.677 17.087 15.737
3539.719 14.417 13.347 12.647 12.077 11.667 11.587 11.717 12.077 12.657 13.617
3559.009 15.067 17.247 20.427 24.907 30.997 38.357 45.837 52.087 56.437 58.287
3578.299 56.677 51.647 44.807 37.567 30.457 24.007 18.767 14.817 11.957 9.887
3597.589 8.297 7.057 6.117 5.427 4.907 4.377 3.767 3.317 2.977 2.697
3616.879 2.437 2.187 2.027 1.847 1.727 1.617 1.4565 1.2653 1.1334 1.1069
3636.169 0.9648 0.8133 0.8096 0.79 0.694 0.674 0.6555 0.63651 0.57127 0.4845
3655.459 0.559192 0.59157 0.5423 0.4945 0.379 0.301 0.412 0.4651 0.338 0.254
3674.749 0.326 0.434 0.421 0.357 0.267 0.195 0.221 0.236 0.24 0.238
3694.039 0.23 0.194 0.149 0.169 0.144 0.116 0.19 0.25 0.25 0.224
3713.329 0.173 0.183 0.17 0.212 0.25 0.293 0.29 0.165 0.199 0.291
3732.619 0.293 0.209 0.187 0.21 0.214 0.329 0.33 0.256 0.254 0.218
3751.909 0.248 0.143 0.121 0.187 0.149 0.175 0.238 0.227 0.217 0.258
3771.199 0.205 0.207 0.229 0.233 0.245 0.229 0.113 0.028 0.105 0.166
3790.489 0.191 0.206 0.198 0.214 0.189 0.134 0.185 0.245 0.278 0.225
3809.779 0.185 0.241 0.283 0.372 0.377 0.329 0.334 0.37 0.369 0.354
3829.069 0.434 0.4687 0.414 0.421 0.45 0.391 0.313 0.294 0.307 0.296
3848.359 0.392 0.438 0.402 0.431 0.409 0.413 0.39 0.356 0.307 0.207
3867.649 0.255 0.338 0.338 0.297 0.214 0.254 0.26 0.192 0.181 0.252
3886.939 0.335 0.332 0.314 0.27 0.194 0.19 0.334 0.373 0.242 0.173
3906.229 0.204 0.286 0.341 0.307 0.292 0.315 0.348 0.393 0.379 0.377
3925.519 0.395 0.389 0.402 0.429 0.421 0.328 0.292 0.322 0.326 0.389
3944.809 0.45 0.5034 0.5672 0.5143 0.4727 0.464 0.438 0.42 0.4767 0.5335
3964.099 0.5099 0.456 0.403 0.4669 0.5489 0.54769 0.4959 0.4604 0.4 0.349
3983.389 0.423 0.5401 0.5237 0.417 0.398 0.4666 0.60302 0.6486 0.62408 0.64299
##END=
