##TITLE=3-Methylphenoxyacetic acid
##JCAMP-DX=4.24
##DATA TYPE=INFRARED SPECTRUM
##ORIGIN=EPA-IR VAPOR PHASE LIBRARY
##OWNER=SRD/NIST
Collection (C) 2018 copyright by the U.S. Secretary of Commerce
on behalf of the United States of America. All rights reserved.
##CAS REGISTRY NO=1643-15-8
##MOLFORM=C 9 H 10 O 3
##$NIST SOURCE=MSDC-IR
##STATE=gas
##XUNITS=1/CM
##YUNITS=ABSORBANCE
##XFACTOR=1.
##YFACTOR=0.001
##DELTAX=1.92934
##FIRSTX=549.9
##LASTX=3999.5
##FIRSTY=32.62
##MAXX=3999.53
##MINX=549.863
##MAXY=0.19647
##MINY=0
##NPOINTS=1789
##XYDATA=(X++(Y..Y))
549.863 32.62 33.37 34.04 34.59 35.11 35.58 35.82 35.92 35.99 36.06
569.156 35.92 35.73 35.77 35.81 35.77 35.67 35.69 35.88 36.14 36.4
588.450 36.65 37.04 37.41 37.85 38.43 39.01 39.62 40.33 41.21 42.14
607.743 43.05 43.89 44.72 45.45 46.04 46.5 46.76 46.8 46.66 46.32
627.037 45.79 45.13 44.29 43.25 42.16 41.08 40.09 39.17 38.27 37.35
646.330 36.47 35.72 34.97 34.19 33.49 32.83 32.23 31.72 31.36 31.13
665.624 31.1 31.36 31.75 32.35 33.26 34.35 35.52 36.79 38.14 39.48
684.917 40.62 40.94 39.81 37.53 34.83 32.03 29.25 26.5 23.9 21.55
704.210 19.45 17.69 16.26 15.1 14.34 14.03 14.09 14.54 15.28 16.08
723.504 16.88 17.64 18.23 18.66 18.88 18.88 18.82 18.8 18.95 19.28
742.797 19.74 20.37 21.16 22.11 23.2 24.41 25.8 27.46 29.42 31.77
762.091 34.51 37.35 39.84 41.77 43.24 44.39 45.25 45.58 44.8 42.43
781.384 38.87 35.03 31.31 27.74 24.33 21.23 18.4 15.91 13.94 12.41
800.678 11.23 10.38 9.73 9.26 8.93 8.64 8.58 8.75 8.83 8.93
819.971 9.23 9.61 10.06 10.67 11.39 12.19 13.03 13.9 14.79 15.65
839.264 16.47 17.3 18.03 18.59 19.08 19.55 19.94 20.13 20.17 20.07
858.558 19.81 19.53 19.23 18.93 18.67 18.41 18.16 17.88 17.56 17.22
877.851 16.82 16.43 16.07 15.68 15.34 15.05 14.9 14.96 15.23 15.8
897.145 16.76 17.94 19.31 20.81 22.24 23.41 24.26 24.68 24.6 24.05
916.438 23.15 22 20.67 19.36 18.2 17.2 16.27 15.4 14.52 13.67
935.732 12.92 12.16 11.42 10.75 10.15 9.73 9.44 9.29 9.22 9.21
955.025 9.22 9.29 9.4 9.55 9.75 9.97 10.18 10.44 10.74 11.09
974.318 11.42 11.78 12.2 12.62 13.07 13.53 14.02 14.52 15.12 15.79
993.612 16.43 16.96 17.35 17.69 18.08 18.48 18.79 19 19.26 19.68
1012.905 20.16 20.79 21.52 22.33 23.25 24.3 25.55 26.99 28.69 30.61
1032.199 32.82 35.35 38.21 41.41 44.89 48.62 52.54 56.57 60.63 64.67
1051.492 68.7 72.7 76.64 80.49 84.28 88.12 92.01 95.94 99.92 103.81
1070.786 107.45 110.75 113.63 115.94 117.4 117.66 116.31 113.19 108.5 102.65
1090.079 96.06 89.01 81.91 75.29 69.86 66.39 65.25 66.48 69.87 75.31
1109.372 82.59 91.27 100.71 109.97 118.17 124.74 129.19 131.32 130.96 128.15
1128.666 123.63 118.55 114.04 110.85 109.51 110.26 113.24 118.47 125.66 134.26
1147.959 143.66 153.09 161.73 168.86 173.54 175.12 173.51 168.91 161.66 152.43
1167.253 141.97 130.91 119.62 108.36 97.56 87.7 78.87 70.94 63.8 57.61
1186.546 52.54 48.55 45.56 43.38 41.79 40.68 39.91 39.38 39.13 39.08
1205.840 39.09 39.2 39.36 39.56 39.84 40.24 40.9 41.93 43.45 45.67
1225.133 48.73 52.77 57.89 64.1 71.28 79.18 87.52 95.96 104.11 111.62
1244.426 118.08 123.25 127.03 129.31 130.06 129.44 127.59 124.68 120.97 116.65
1263.720 111.99 107.32 102.82 98.77 95.44 93 91.59 91.22 91.89 93.36
1283.013 95.06 96.33 96.59 95.42 92.7 88.6 83.48 77.86 72.25 67.02
1302.307 62.6 59.24 56.92 55.52 54.87 54.79 55.14 55.93 57.12 58.71
1321.600 60.65 62.84 65.13 67.38 69.52 71.47 73.08 74.16 74.56 74.44
1340.894 73.97 73.22 72.08 70.5 68.64 66.67 64.77 62.99 61.23 59.47
1360.187 57.61 55.56 53.47 51.44 49.35 47.09 44.75 42.5 40.44 38.63
1379.480 37.03 35.65 34.44 33.4 32.49 31.65 30.9 30.2 29.51 28.8
1398.774 28.03 27.24 26.46 25.69 24.95 24.33 23.9 23.7 23.85 24.3
1418.067 25.05 26.19 27.59 29.31 31.38 33.76 36.49 39.52 42.84 46.36
1437.361 50.09 53.49 56.38 58.44 59.34 59.09 57.62 55.11 51.68 47.82
1456.654 43.66 39.72 36.61 34.21 32.59 31.67 31.46 31.96 33.42 36.01
1475.948 39.88 45.4 52.41 60.51 68.62 75.63 80.65 83.32 83.44 81.06
1495.241 76.19 69.29 61.63 54.37 48.45 44.19 41.17 39.12 37.63 36.13
1514.534 34.54 32.76 30.77 28.66 26.64 25.2 24.16 23.45 22.99 22.6
1533.828 22.23 21.87 21.52 21.1 20.65 20.26 19.92 19.74 19.8 20.08
1553.121 20.56 21.25 22.18 23.39 24.8 26.43 28.51 31.01 34.14 37.96
1572.415 42.41 47.57 53.81 60.64 67.54 74.5 80.92 86.39 90.54 93.39
1591.708 94.89 95.11 94.32 92.98 91.62 90.37 88.92 87.08 84.66 81.42
1611.002 77.29 72.1 66.01 59.02 51.93 45.3 38.99 33.21 28.29 24.08
1630.295 20.56 17.83 15.67 13.88 12.5 11.48 10.64 9.98 9.47 9.01
1649.588 8.68 8.46 8.23 7.95 7.74 7.65 7.62 7.58 7.54 7.52
1668.882 7.52 7.54 7.56 7.62 7.64 7.67 7.73 7.83 7.92 7.99
1688.175 8.08 8.19 8.32 8.52 8.72 8.9 9.18 9.49 9.74 10.1
1707.469 10.52 10.95 11.43 12.01 12.67 13.35 14.09 14.89 15.76 16.79
1726.762 17.95 19.17 20.55 22.11 23.87 25.64 27.51 29.6 31.75 34.06
1746.056 36.49 39.07 41.85 44.93 48.25 51.93 56.15 60.87 66.52 73.28
1765.349 81.39 91.29 103.05 115.84 129.01 140.36 149.07 155.24 158.92 159.97
1784.642 157.73 152.51 146.42 141.95 140.62 142.82 148.23 156.2 165.86 176.11
1803.936 185.6 192.86 196.47 195.62 190.3 180.84 167.86 152.06 134.49 116.33
1823.229 98.93 83.31 70.38 60.19 52.08 45.79 40.73 36.58 33.16 30.28
1842.523 27.82 25.63 23.65 21.86 20.22 18.72 17.37 16.18 15.12 14.13
1861.816 13.25 12.51 11.82 11.22 10.67 10.15 9.71 9.34 8.97 8.65
1881.110 8.37 8.12 7.85 7.65 7.51 7.37 7.25 7.17 7.11 7.04
1900.403 7 7.01 7.03 7.07 7.08 7.1 7.11 7.07 7.05 7.03
1919.696 6.96 6.85 6.69 6.49 6.29 6.0685 5.8044 5.548 5.2988 5.056
1938.990 4.863 4.688 4.553 4.478 4.42 4.351 4.336 4.372 4.356 4.341
1958.283 4.375 4.388 4.388 4.383 4.379 4.379 4.341 4.315 4.324 4.294
1977.577 4.263 4.277 4.269 4.266 4.26 4.247 4.258 4.265 4.278 4.289
1996.870 4.265 4.227 4.191 4.204 4.253 4.246 4.213 4.188 4.166 4.141
2016.164 4.113 4.09 4.07 4.07 4.05 4.03 4.03 4 3.97 3.98
2035.457 3.98 3.98 3.97 3.96 3.98 3.99 3.99 4.01 4.02 4.04
2054.750 4.06 4.07 4.102 4.14 4.135 4.143 4.137 4.134 4.15 4.153
2074.044 4.123 4.07 4.04 4.03 4.03 3.98 3.91 3.84 3.82 3.79
2093.337 3.73 3.69 3.68 3.68 3.66 3.66 3.67 3.66 3.63 3.66
2112.631 3.69 3.71 3.74 3.75 3.77 3.8 3.84 3.86 3.88 3.93
2131.924 3.94 3.97 4.04 4.083 4.095 4.129 4.179 4.236 4.282 4.293
2151.218 4.303 4.337 4.371 4.346 4.339 4.353 4.329 4.324 4.343 4.347
2170.511 4.346 4.355 4.376 4.369 4.338 4.318 4.312 4.307 4.269 4.271
2189.804 4.297 4.295 4.275 4.243 4.237 4.226 4.196 4.156 4.119 4.107
2209.098 4.09 4.05 4.03 4.03 4.01 3.99 3.97 3.97 3.98 3.96
2228.391 3.96 3.96 3.98 4.01 4 3.98 3.97 3.95 3.9 3.87
2247.685 3.86 3.82 3.77 3.75 3.7 3.66 3.63 3.57 3.52 3.48
2266.978 3.42 3.4 3.38 3.37 3.35 3.34 3.34 3.35 3.35 3.37
2286.272 3.41 3.42 3.43 3.47 3.5 3.5 3.5 3.51 3.54 3.57
2305.565 3.61 3.66 3.69 3.71 3.76 3.83 3.87 3.89 3.91 3.93
2324.858 3.96 3.99 4 3.98 3.97 3.96 3.94 3.93 3.92 3.91
2344.152 3.87 3.83 3.8 3.78 3.82 3.86 3.87 3.87 3.88 3.84
2363.445 3.83 3.84 3.81 3.77 3.73 3.68 3.67 3.66 3.61 3.57
2382.739 3.52 3.51 3.51 3.51 3.51 3.52 3.55 3.55 3.56 3.59
2402.032 3.6 3.58 3.58 3.6 3.6 3.6 3.6 3.59 3.59 3.56
2421.326 3.52 3.53 3.53 3.5 3.46 3.45 3.43 3.42 3.42 3.39
2440.619 3.38 3.38 3.34 3.31 3.28 3.24 3.25 3.24 3.21 3.21
2459.912 3.2 3.18 3.18 3.16 3.12 3.12 3.12 3.11 3.14 3.16
2479.206 3.16 3.13 3.11 3.15 3.17 3.17 3.16 3.16 3.14 3.11
2498.499 3.12 3.13 3.1 3.06 3.05 3.09 3.09 3.08 3.09 3.08
2517.793 3.08 3.06 3.06 3.07 3.05 3.07 3.08 3.06 3.1 3.14
2537.086 3.15 3.18 3.16 3.13 3.1 3.08 3.06 3.04 2.99 2.92
2556.380 2.86 2.78 2.73 2.7 2.64 2.61 2.62 2.58 2.52 2.49
2575.673 2.46 2.47 2.44 2.39 2.39 2.4 2.38 2.35 2.33 2.3
2594.966 2.29 2.31 2.3 2.27 2.26 2.23 2.17 2.14 2.13 2.11
2614.260 2.08 2.07 2.07 2.09 2.06 2.01 2 2 1.97 1.96
2633.553 1.95 1.92 1.91 1.91 1.89 1.89 1.9 1.91 1.91 1.88
2652.847 1.9 1.92 1.88 1.86 1.84 1.83 1.86 1.88 1.89 1.86
2672.140 1.86 1.89 1.87 1.87 1.88 1.87 1.88 1.89 1.9 1.94
2691.434 1.96 1.95 1.94 1.95 2.01 2.08 2.12 2.08 2.03 2.03
2710.727 2.01 2.02 2.05 2.02 2.04 2.08 2.09 2.1 2.23 2.3
2730.020 2.3 2.38 2.47 2.55 2.68 2.79 2.87 2.89 2.85 2.86
2749.314 2.84 2.78 2.64 2.5 2.43 2.33 2.24 2.19 2.18 2.14
2768.607 2.12 2.13 2.17 2.21 2.19 2.15 2.14 2.12 2.13 2.16
2787.901 2.13 2.11 2.1 2.14 2.2 2.26 2.28 2.27 2.33 2.34
2807.194 2.37 2.48 2.54 2.62 2.77 2.89 3.01 3.21 3.34 3.45
2826.488 3.64 3.86 4.06 4.312 4.673 5.0688 5.4561 5.8385 6.27 6.66
2845.781 6.98 7.36 7.79 8.21 8.71 9.32 9.99 10.81 11.75 12.63
2865.074 13.59 14.54 15.35 16.02 16.55 16.89 17 16.88 16.61 16.31
2884.368 15.97 15.58 15.3 15.1 14.94 14.99 15.24 15.63 16.11 16.75
2903.661 17.56 18.51 19.61 20.85 22.28 23.94 25.83 27.96 30.29 32.82
2922.955 35.4 37.89 40.11 41.91 43.19 44 44.35 44.1 43.25 41.98
2942.248 40.44 38.63 36.64 34.63 32.57 30.6 28.79 27.06 25.55 24.25
2961.542 23.1 22.09 21.05 20.08 19.15 18.18 17.2 16.29 15.48 14.81
2980.835 14.28 13.8 13.46 13.31 13.24 13.17 13.14 13.23 13.36 13.47
3000.128 13.58 13.66 13.77 13.92 14.09 14.27 14.4 14.63 15 15.48
3019.422 16.31 17.28 18.46 19.92 21.34 22.71 24.01 25.2 26.23 27.06
3038.715 27.72 28.22 28.46 28.53 28.45 28.21 27.93 27.59 27.17 26.7
3058.009 26.18 25.59 24.92 24.37 23.87 23.28 22.75 22.16 21.45 20.82
3077.302 20.14 19.23 18.19 17.12 15.9 14.57 13.27 12.11 11.09 10.07
3096.596 9.19 8.55 7.99 7.47 6.97 6.52 6.1 5.6345 5.14693 4.659
3115.889 4.109 3.63 3.22 2.8 2.49 2.24 1.95 1.71 1.51 1.37
3135.182 1.3 1.09 0.91 0.83 0.73 0.57 0.46 0.4 0.36 0.28
3154.476 0.28 0.33 0.29 0.28 0.2 0.14 0.14 0.1 0.2 0.2
3173.769 0.04 0.01 0.06 0.07 0.08 0.09 0.03 0.02 0.09 0.08
3193.063 0 0.02 0.02 0.04 0.05 0.06 0.02 0 0.06 0.07
3212.356 0.14 0.17 0.13 0.1 0.12 0.24 0.22 0.2 0.23 0.14
3231.650 0.15 0.23 0.21 0.26 0.28 0.22 0.26 0.34 0.37 0.36
3250.943 0.37 0.34 0.29 0.23 0.2 0.26 0.29 0.33 0.39 0.46
3270.236 0.54 0.56 0.51 0.52 0.6 0.65 0.64 0.56 0.57 0.71
3289.530 0.72 0.69 0.69 0.69 0.7 0.74 0.75 0.72 0.73 0.68
3308.823 0.63 0.63 0.71 0.74 0.7 0.62 0.53 0.6 0.68 0.67
3328.117 0.63 0.66 0.71 0.66 0.67 0.75 0.72 0.68 0.69 0.72
3347.410 0.71 0.7 0.76 0.78 0.82 0.88 0.9 0.84 0.85 0.89
3366.704 0.89 0.93 0.96 1.03 1.07 1.02 1.03 1.14 1.25 1.16
3385.997 1.06 1.08 1.13 1.11 1.09 1.19 1.22 1.22 1.3 1.31
3405.290 1.31 1.36 1.4 1.39 1.45 1.52 1.61 1.77 1.85 1.82
3424.584 1.87 1.93 1.98 2.07 2.02 2.09 2.19 2.16 2.17 2.27
3443.877 2.4 2.46 2.44 2.46 2.53 2.57 2.65 2.74 2.84 3.02
3463.171 3.09 3.04 3.13 3.31 3.37 3.55 3.84 4.099 4.403 4.69
3482.464 5.15421 5.6618 6.0702 6.65 7.34 7.95 8.67 9.56 10.51 11.59
3501.758 12.72 14 15.59 17.35 19.31 21.66 24.31 27.16 30.14 32.95
3521.051 35.18 36.55 37.1 36.76 35.48 33.54 31.17 28.63 26.22 24.16
3540.344 22.44 21.14 20.13 19.36 18.94 18.87 19.21 19.99 21.37 23.39
3559.638 26.36 30.63 36.61 44.65 54.4 64.44 73.1 79.56 83.26 83.51
3578.931 80.21 73.59 64.43 54.37 44.49 35.4 27.94 22.32 18.13 15.13
3598.225 13.02 11.45 10.2 9.23 8.47 7.8 7.34 6.91 6.41 6.069
3617.518 5.7228 5.3616 5.0597 4.722 4.546 4.447 4.233 3.99 3.83 3.74
3636.812 3.6 3.55 3.53 3.5 3.45 3.4 3.4 3.35 3.3 3.21
3656.105 3.07 2.98 2.91 2.79 2.75 2.72 2.67 2.6 2.6 2.57
3675.398 2.5 2.47 2.45 2.38 2.38 2.43 2.41 2.45 2.49 2.49
3694.692 2.4 2.33 2.41 2.45 2.38 2.37 2.48 2.55 2.43 2.35
3713.985 2.37 2.39 2.38 2.42 2.48 2.51 2.52 2.49 2.47 2.48
3733.279 2.49 2.46 2.45 2.49 2.6 2.6 2.49 2.5 2.53 2.53
3752.572 2.54 2.54 2.58 2.59 2.6 2.6 2.6 2.65 2.6 2.57
3771.866 2.54 2.48 2.48 2.52 2.55 2.58 2.6 2.56 2.53 2.47
3791.159 2.41 2.44 2.47 2.5 2.53 2.55 2.5 2.46 2.5 2.48
3810.452 2.52 2.53 2.49 2.48 2.45 2.47 2.45 2.46 2.51 2.45
3829.746 2.46 2.53 2.52 2.49 2.47 2.49 2.48 2.46 2.47 2.46
3849.039 2.47 2.51 2.55 2.48 2.41 2.44 2.5 2.48 2.38 2.35
3868.333 2.45 2.49 2.4 2.41 2.47 2.53 2.58 2.56 2.46 2.45
3887.626 2.47 2.43 2.43 2.51 2.53 2.53 2.51 2.49 2.5 2.51
3906.920 2.53 2.55 2.6 2.62 2.63 2.64 2.65 2.64 2.61 2.61
3926.213 2.63 2.68 2.68 2.6 2.59 2.59 2.59 2.64 2.63 2.64
3945.506 2.65 2.66 2.7 2.69 2.65 2.66 2.68 2.67 2.67 2.7
3964.800 2.75 2.76 2.75 2.76 2.72 2.74 2.8 2.82 2.83 2.82
3984.093 2.82 2.79 2.79 2.77 2.74 2.76 2.8 2.83 2.79
##END=
