##TITLE=1-Bromo-2,3,5,6-tetramethylbenzene
##JCAMP-DX=4.24
##DATA TYPE=INFRARED SPECTRUM
##ORIGIN=NIST Mass Spectrometry Data Center
##OWNER=NIST Standard Reference Data Program
Collection (C) 2018 copyright by the U.S. Secretary of Commerce
on behalf of the United States of America. All rights reserved.
##CAS REGISTRY NO=1646-53-3
##MOLFORM=C 10 H 13 Br
##$NIST SOURCE=MSDC-IR
##SPECTROMETER/DATA SYSTEM=HP-GC/MS/IRD
##STATE=gas
##XUNITS=1/CM
##YUNITS=ABSORBANCE
##XFACTOR=1.0
##YFACTOR=0.000001500
##DELTAX=4.0
##FIRSTX=550.0
##LASTX=3846.0
##FIRSTY=0.000365
##MAXX=3846
##MINX=550
##MAXY=0.015
##MINY=0
##NPOINTS=825
##XYDATA=(X++(Y..Y))
550.0 243 90 20 104 106 27 1 41 78 129
590.0 67 71 89 100 165 113 133 165 120 97
630.0 92 45 16 19 0 28 72 100 93 83
670.0 120 123 160 160 143 146 182 263 281 328
710.0 330 204 161 182 152 104 90 147 184 179
750.0 173 181 233 222 205 254 347 506 816 1466
790.0 2515 3649 4293 4197 3208 1848 984 612 432 308
830.0 255 242 268 312 398 650 1015 1357 1757 1853
870.0 1442 1045 726 494 413 374 359 339 321 351
910.0 380 411 419 405 434 450 473 540 578 679
950.0 831 995 1274 1677 2168 2746 3293 3694 3918 3898
990.0 3648 3285 2937 2700 2575 2438 2239 2033 1811 1570
1030.0 1394 1249 1117 1033 972 877 781 702 617 556
1070.0 538 485 417 394 364 368 329 307 293 250
1110.0 280 290 252 222 197 191 207 188 196 263
1150.0 254 264 321 441 597 724 848 944 1045 1114
1190.0 1075 938 696 469 318 234 222 233 219 222
1230.0 247 281 333 380 439 535 670 823 937 968
1270.0 886 702 498 381 337 312 304 322 331 334
1310.0 351 356 349 361 368 372 397 428 455 465
1350.0 479 502 561 625 688 783 924 1146 1490 1894
1390.0 2252 2412 2342 2127 1848 1636 1518 1479 1552 1716
1430.0 1966 2314 2762 3291 3823 4351 4749 5091 5434 5570
1470.0 5422 5007 4377 3597 2834 2294 1937 1690 1512 1340
1510.0 1294 1286 1258 1308 1451 1656 1851 1954 2052 2106
1550.0 2005 1766 1435 1247 1121 994 901 860 901 920
1590.0 955 1003 1064 1095 1025 879 669 503 424 350
1630.0 311 252 219 206 169 87 82 152 132 124
1670.0 121 107 118 87 82 142 105 50 94 166
1710.0 209 221 255 332 353 290 206 176 161 136
1750.0 126 143 159 134 97 68 72 105 97 82
1790.0 69 69 77 79 100 85 58 68 75 78
1830.0 87 90 99 86 76 76 67 69 73 80
1870.0 102 117 101 115 140 153 163 152 127 92
1910.0 82 85 75 78 69 57 54 36 37 51
1950.0 60 62 51 48 52 70 69 49 55 56
1990.0 52 54 52 54 59 61 94 105 84 66
2030.0 62 75 104 102 82 79 86 88 79 61
2070.0 73 89 62 48 45 43 49 40 42 58
2110.0 34 35 56 55 42 23 29 31 35 57
2150.0 61 58 66 71 69 58 57 66 67 75
2190.0 84 83 73 57 66 75 76 60 55 65
2230.0 60 49 55 77 81 73 70 68 58 51
2270.0 62 70 73 60 39 28 20 23 31 30
2310.0 23 8 6 30 37 19 6 18 39 30
2350.0 38 35 15 6 6 20 58 71 69 77
2390.0 106 118 108 107 111 112 117 131 130 130
2430.0 157 159 147 146 133 120 116 122 137 142
2470.0 129 123 133 134 115 103 118 116 108 119
2510.0 115 110 105 94 87 96 109 91 78 74
2550.0 81 86 97 102 68 81 104 88 87 85
2590.0 97 113 114 101 105 116 118 131 131 132
2630.0 150 143 129 124 139 144 141 142 137 138
2670.0 125 119 127 134 158 165 178 195 198 208
2710.0 223 231 252 272 306 348 396 455 484 467
2750.0 463 474 475 466 435 432 432 409 404 392
2790.0 387 413 434 441 450 464 518 589 634 716
2830.0 805 893 995 1129 1308 1544 1821 2188 2662 3228
2870.0 3854 4348 4584 4533 4318 4026 3793 3717 3784 3948
2910.0 4268 4777 5537 6561 7766 8970 9798 10000 9571 8731
2950.0 7819 7078 6444 5830 5388 5152 5050 4929 4659 4245
2990.0 3827 3515 3426 3643 4084 4502 4650 4440 3917 3327
3030.0 2905 2642 2459 2310 2182 2067 1941 1833 1723 1603
3070.0 1525 1455 1345 1211 1101 996 865 770 707 620
3110.0 565 523 460 427 392 361 340 348 358 364
3150.0 333 291 275 244 217 240 280 257 248 237
3190.0 188 200 209 206 212 171 147 188 200 158
3230.0 168 183 160 149 154 134 110 124 132 150
3270.0 167 154 122 98 119 155 182 156 143 123
3310.0 104 111 128 137 146 147 127 140 107 95
3350.0 134 151 140 122 121 120 137 141 120 117
3390.0 116 100 66 85 103 81 84 78 69 86
3430.0 94 85 89 82 66 81 74 59 55 46
3470.0 65 75 50 30 29 54 73 62 79 102
3510.0 118 97 86 128 145 97 110 137 118 141
3550.0 126 113 114 99 79 66 100 130 93 66
3590.0 81 76 97 132 103 64 84 79 77 59
3630.0 32 77 101 97 27 8 62 76 113 104
3670.0 63 50 79 112 97 88 116 128 122 113
3710.0 95 118 135 113 91 36 4 44 54 61
3750.0 53 67 100 76 76 92 125 152 109 77
3790.0 76 72 88 103 58 43 65 38 61 125
3830.0 119 95 118 136 141
##END=
