##TITLE=3-Amino-4-bromopyrazole
##JCAMP-DX=4.24
##DATA TYPE=INFRARED SPECTRUM
##ORIGIN=EPA-IR VAPOR PHASE LIBRARY
##OWNER=SRD/NIST
Collection (C) 2018 copyright by the U.S. Secretary of Commerce
on behalf of the United States of America. All rights reserved.
##CAS REGISTRY NO=16461-94-2
##MOLFORM=C 3 H 4 Br N 3
##$NIST SOURCE=MSDC-IR
##STATE=gas
##XUNITS=1/CM
##YUNITS=ABSORBANCE
##XFACTOR=1.
##YFACTOR=0.001
##DELTAX=1.929
##FIRSTX=549.8
##LASTX=4000.8
##FIRSTY=3.92
##MAXX=4000.75
##MINX=549.766
##MAXY=0.03069
##MINY=0.0003103
##NPOINTS=1790
##XYDATA=(X++(Y..Y))
549.766 3.92 4.23 4.21 4.23 4.16 4.28 4.25 3.83 3.67 3.85
569.056 4.11 4.14 3.99 4.16 4.16 4.1 4.33 4.58 4.78 4.62
588.346 4.69 4.79 5.12 5.47 5.65 5.97 6.27 6.63 6.96 7.21
607.636 7.37 7.62 7.9 8.16 8.66 9.32 9.47 9.19 8.92 8.88
626.926 8.98 8.99 8.91 8.74 8.67 8.69 8.83 8.93 8.71 8.4
646.216 8.37 8.42 8.4 8.41 8.19 8.07 8.01 7.85 7.84 7.74
665.506 7.82 7.95 7.9 7.98 8.12 8.31 8.54 8.84 9.18 9.63
684.796 10.07 10.33 10.58 10.8 10.94 10.95 10.94 10.92 10.82 10.71
704.086 10.63 10.46 10.28 10.09 9.94 9.78 9.51 9.26 9.04 8.75
723.376 8.5 8.3 7.93 7.68 7.57 7.4 7 6.67 6.6 6.43
742.666 6.37 6.5 6.35 6.1 5.97 5.84 5.78 5.78 5.78 5.8
761.956 5.86 6.1 6.25 6.29 6.54 6.82 7.06 7.36 7.68 7.89
781.246 8.1 8.58 9.54 10.29 9.65 8.74 8.32 7.78 7.31 6.92
800.536 6.55 6.15 5.78 5.4 5.05 4.71 4.68 4.91 4.85 4.63
819.826 4.55 4.69 4.91 5.11 5.4 5.85 6.28 6.84 7.52 8.18
839.116 8.75 9.38 10.16 10.98 11.8 12.87 14.05 14.42 14.56 14.88
858.406 15.22 15.62 15.8 15.86 15.93 15.75 15.41 15 14.5 13.93
877.696 13.31 12.6 11.85 11.11 10.34 9.7 9.08 8.58 8.27 7.97
896.986 7.83 7.89 8.17 8.59 9 9.38 9.71 9.83 9.74 9.8
916.276 9.82 9.63 9.4 9.04 8.38 7.55 6.73 6.01 5.42 4.91
935.566 4.5 4.08 3.77 3.57 3.36 3.19 3.08 2.93 2.75 2.62
954.856 2.59 2.59 2.51 2.49 2.49 2.45 2.46 2.42 2.37 2.4
974.146 2.37 2.3 2.3 2.27 2.22 2.27 2.31 2.26 2.16 2.11
993.436 2.19 2.27 2.33 2.36 2.37 2.42 2.5 2.64 2.85 3.08
1012.726 3.27 3.59 4.08 4.56 5.11 5.85 6.64 7.51 8.6 9.76
1032.016 11.07 12.7 14.32 15.8 17.17 18.32 19.13 19.54 19.68 19.63
1051.306 19.27 18.59 17.47 15.85 14 12.15 10.45 9.06 7.94 7.06
1070.596 6.34 5.74 5.26 4.86 4.57 4.43 4.41 4.33 4.28 4.27
1089.886 4.27 4.36 4.37 4.36 4.31 4.37 4.59 4.73 4.93 5.32
1109.176 5.68 5.99 6.31 6.55 6.7 6.72 6.7 6.65 6.51 6.32
1128.467 6.05 5.62 5.07 4.42 3.85 3.39 2.95 2.66 2.45 2.18
1147.757 2 1.89 1.83 1.74 1.6 1.58 1.54 1.48 1.51 1.54
1167.047 1.56 1.6 1.68 1.77 1.9 2.07 2.25 2.34 2.44 2.67
1186.337 2.76 2.8 2.77 2.73 2.72 2.56 2.44 2.34 2.16 1.91
1205.627 1.74 1.66 1.55 1.37 1.3 1.14 1.02 1.1 1.05 0.9214
1224.917 0.9214 0.9986 0.9981 1.01 1.09 1.09 1.05 1.18 1.29 1.27
1244.207 1.33 1.46 1.63 1.87 2.09 2.26 2.49 2.79 3.11 3.23
1263.497 3.23 3.08 2.8 2.82 3.06 3.28 3.31 3.01 2.59 2.24
1282.787 1.97 1.75 1.61 1.52 1.47 1.4 1.37 1.43 1.41 1.42
1302.077 1.45 1.47 1.5 1.5 1.53 1.59 1.63 1.63 1.59 1.63
1321.367 1.65 1.62 1.53 1.5 1.44 1.35 1.33 1.3 1.26 1.22
1340.657 1.14 1.13 1.11 1.07 1.03 1.04 1.05 1.06 1.11 1.17
1359.947 1.27 1.39 1.46 1.52 1.63 1.77 1.89 2.01 2.17 2.36
1379.237 2.56 2.7 2.77 2.91 3.07 3.18 3.24 3.28 3.36 3.38
1398.527 3.34 3.22 3.12 3.01 2.84 2.69 2.58 2.53 2.46 2.36
1417.817 2.39 2.39 2.35 2.4 2.46 2.51 2.6 2.75 2.91 3.08
1437.107 3.24 3.29 3.27 3.23 3.21 3.2 3.18 3.24 3.35 3.38
1456.397 3.45 3.41 3.41 3.66 3.98 4.28 4.66 5.15 5.64 6.24
1475.687 6.9 7.57 8.4 9.29 10.22 11.24 12.3 13.41 14.48 15.43
1494.977 16.33 17.2 17.83 18.27 18.44 18.32 18.05 17.62 17.01 16.33
1514.267 15.6 14.7 13.59 12.37 11.09 10.13 9.44 8.95 8.74 8.85
1533.557 9.2 9.65 10.19 10.87 11.45 11.86 12.21 12.5 12.77 13.02
1552.847 13.24 13.38 13.39 13.26 12.91 12.45 12.01 11.7 11.47 11.31
1572.137 11.24 11.21 11.26 11.37 11.45 11.5 11.65 12 12.5 13.19
1591.427 14.05 15 16.08 17.45 19.05 20.75 22.54 24.39 25.97 27.06
1610.717 27.71 28.11 28.48 28.68 28.58 28.15 27.33 26.14 24.45 22.29
1630.007 20 17.77 15.66 13.64 11.84 10.26 8.88 7.78 6.78 5.85
1649.297 5.14 4.59 4.05 3.6 3.19 2.86 2.67 2.48 2.3 2.14
1668.587 2.02 1.93 1.84 1.76 1.72 1.67 1.59 1.59 1.62 1.57
1687.877 1.55 1.5 1.43 1.41 1.38 1.36 1.37 1.35 1.32 1.29
1707.167 1.27 1.22 1.19 1.2 1.16 1.15 1.12 1.08 1.08 1.1
1726.457 1.1 1.1 1.15 1.13 1.11 1.11 1.11 1.14 1.15 1.15
1745.747 1.1 1.04 1.04 1.08 1.04 1.01 1 1.01 1.02 0.9817
1765.037 0.9702 0.9872 1.01 0.9705 0.9501 0.9502 0.9282 0.8963 0.8639 0.8439
1784.327 0.8742 0.8868 0.8489 0.8343 0.8394 0.8633 0.8477 0.7821 0.7638 0.8193
1803.617 0.776 0.7105 0.7344 0.7626 0.7591 0.7241 0.742 0.808 0.7705 0.7604
1822.907 0.8113 0.8265 0.8265 0.8089 0.8302 0.8542 0.846 0.8308 0.8135 0.7793
1842.197 0.8315 0.8729 0.8487 0.8389 0.784 0.7624 0.7631 0.7249 0.6863 0.6866
1861.487 0.7021 0.6786 0.6615 0.6489 0.6391 0.6207 0.6018 0.6239 0.6394 0.6388
1880.777 0.6444 0.6388 0.6159 0.6233 0.6343 0.6269 0.6361 0.6643 0.6921 0.6454
1900.067 0.6308 0.7159 0.6878 0.65 0.6911 0.6952 0.6548 0.675 0.6938 0.6409
1919.357 0.5801 0.5973 0.6642 0.6492 0.6505 0.6783 0.6859 0.672 0.6491 0.6597
1938.647 0.632 0.5921 0.603 0.6063 0.6109 0.6365 0.6337 0.6099 0.6336 0.6425
1957.937 0.6249 0.6253 0.622 0.6124 0.6199 0.6616 0.7127 0.7243 0.7053 0.69
1977.227 0.6821 0.6502 0.6788 0.6768 0.6224 0.5967 0.6126 0.6528 0.6377 0.6535
1996.517 0.6248 0.6073 0.6079 0.5987 0.6277 0.6294 0.629 0.614 0.5859 0.5699
2015.807 0.5587 0.5684 0.5642 0.5926 0.619 0.6014 0.6483 0.6549 0.611 0.6067
2035.097 0.6255 0.6064 0.6475 0.6841 0.6501 0.6065 0.5697 0.5987 0.6464 0.6529
2054.387 0.6127 0.6237 0.6549 0.6887 0.6742 0.6639 0.6733 0.6706 0.6759 0.6515
2073.677 0.6586 0.6984 0.719 0.7146 0.733 0.7307 0.7282 0.7307 0.7047 0.6754
2092.967 0.666 0.6929 0.7163 0.7244 0.7399 0.771 0.7346 0.6675 0.6645 0.6554
2112.257 0.6745 0.702 0.6852 0.6373 0.6386 0.6856 0.7039 0.7031 0.7007 0.6935
2131.547 0.6761 0.6934 0.7082 0.6783 0.634 0.6201 0.6302 0.6225 0.6598 0.7067
2150.837 0.7036 0.6846 0.659 0.6603 0.6843 0.7231 0.7547 0.7168 0.6941 0.6927
2170.127 0.6731 0.7565 0.835 0.8047 0.7809 0.7731 0.7421 0.7145 0.7001 0.67
2189.417 0.69 0.7032 0.732 0.7659 0.7656 0.7724 0.7794 0.7941 0.7866 0.779
2208.707 0.7853 0.7447 0.7151 0.73 0.7912 0.8605 0.7795 0.724 0.757 0.7611
2227.997 0.7554 0.7742 0.8114 0.7937 0.7669 0.7621 0.7423 0.7339 0.7417 0.7315
2247.287 0.7314 0.7471 0.7204 0.6982 0.6914 0.6922 0.6773 0.6561 0.6527 0.6461
2266.577 0.669 0.6808 0.6217 0.5875 0.6426 0.6714 0.6194 0.6292 0.6845 0.665
2285.868 0.6348 0.6835 0.7242 0.7107 0.6907 0.7133 0.7136 0.6612 0.656 0.647
2305.158 0.6636 0.7153 0.742 0.7596 0.7389 0.7683 0.8181 0.796 0.8126 0.7573
2324.448 0.7024 0.7096 0.725 0.7587 0.6897 0.6863 0.6737 0.6108 0.6238 0.5675
2343.738 0.5392 0.5742 0.5872 0.5918 0.6218 0.6521 0.6266 0.5999 0.6101 0.6393
2363.028 0.6583 0.6552 0.6115 0.5854 0.5697 0.5762 0.567 0.548 0.5769 0.6126
2382.318 0.615 0.5686 0.5621 0.5674 0.5383 0.5387 0.5206 0.4881 0.4707 0.4699
2401.608 0.5376 0.5468 0.4636 0.4471 0.5522 0.581 0.5323 0.479 0.4715 0.5094
2420.898 0.5155 0.5247 0.4876 0.4541 0.4937 0.5221 0.5159 0.5187 0.5155 0.5198
2440.188 0.5649 0.5885 0.5415 0.5253 0.5303 0.52 0.5491 0.5755 0.5543 0.5865
2459.478 0.654 0.6516 0.604 0.578 0.5641 0.5808 0.6675 0.6915 0.6725 0.682
2478.768 0.6989 0.7206 0.7286 0.7394 0.745 0.676 0.6432 0.7037 0.6883 0.618
2498.058 0.5815 0.5734 0.5496 0.5727 0.6051 0.5902 0.594 0.5927 0.5871 0.5945
2517.348 0.5976 0.6133 0.6272 0.5214 0.5072 0.6142 0.5819 0.5913 0.6344 0.5779
2536.638 0.5463 0.5768 0.6344 0.6879 0.6592 0.6191 0.6207 0.5923 0.5349 0.5562
2555.928 0.6093 0.6337 0.6723 0.6734 0.6572 0.6399 0.6607 0.6972 0.7041 0.6641
2575.218 0.6353 0.6059 0.5877 0.6933 0.7562 0.7329 0.7192 0.7569 0.7878 0.7491
2594.508 0.6813 0.6329 0.6741 0.6884 0.6797 0.7049 0.6987 0.6915 0.7594 0.7899
2613.798 0.7929 0.8477 0.8634 0.8629 0.8836 0.8558 0.8924 0.9585 0.9236 0.8813
2633.088 0.8041 0.788 0.8222 0.8106 0.81 0.7813 0.6851 0.6349 0.6735 0.6923
2652.378 0.6178 0.6729 0.6842 0.5564 0.5665 0.6189 0.6387 0.6623 0.6355 0.5766
2671.668 0.5357 0.5317 0.6281 0.6372 0.5288 0.4788 0.5758 0.6784 0.6209 0.593
2690.958 0.5907 0.5829 0.614 0.588 0.5555 0.592 0.6346 0.6092 0.5857 0.6088
2710.248 0.5676 0.5496 0.5883 0.6184 0.5774 0.5703 0.6487 0.6177 0.5974 0.6002
2729.538 0.5656 0.6045 0.6735 0.7352 0.6616 0.6036 0.644 0.6045 0.5873 0.6212
2748.828 0.5488 0.5106 0.5688 0.5575 0.5114 0.509 0.5215 0.509 0.5144 0.5184
2768.118 0.5463 0.5344 0.5476 0.6148 0.5597 0.5242 0.522 0.5123 0.5529 0.5514
2787.408 0.5518 0.5546 0.5345 0.5016 0.5232 0.6074 0.5824 0.6111 0.6444 0.5174
2806.698 0.4602 0.5163 0.5436 0.5096 0.4306 0.4629 0.5777 0.5895 0.5801 0.5527
2825.988 0.5431 0.5992 0.5995 0.585 0.6441 0.6496 0.6221 0.606 0.5899 0.6045
2845.278 0.6784 0.6559 0.5498 0.5469 0.5319 0.5138 0.5147 0.4857 0.5194 0.5879
2864.568 0.6033 0.6129 0.7034 0.682 0.6411 0.7114 0.678 0.68 0.7293 0.6253
2883.858 0.5466 0.6099 0.7058 0.6381 0.5365 0.5279 0.4987 0.4944 0.576 0.6597
2903.148 0.6026 0.5648 0.6385 0.5833 0.5142 0.5491 0.598 0.5843 0.4913 0.493
2922.438 0.5635 0.5552 0.4842 0.474 0.5696 0.6159 0.5487 0.5881 0.6551 0.6879
2941.728 0.6983 0.6579 0.6512 0.6325 0.6545 0.6492 0.5552 0.5264 0.5614 0.5755
2961.018 0.5925 0.6654 0.645 0.5382 0.4915 0.4622 0.407 0.5179 0.6842 0.7325
2980.308 0.7088 0.6507 0.5829 0.6552 0.6947 0.6266 0.6197 0.5999 0.6255 0.679
2999.598 0.6478 0.5558 0.564 0.6307 0.602 0.6107 0.5671 0.4715 0.5542 0.5556
3018.888 0.5741 0.5867 0.5325 0.5944 0.5882 0.5177 0.6591 0.7439 0.6942 0.6113
3038.178 0.4551 0.4987 0.5834 0.5691 0.6159 0.6269 0.5683 0.4901 0.3968 0.5133
3057.468 0.5949 0.5803 0.6177 0.5676 0.5331 0.5645 0.579 0.541 0.5837 0.6419
3076.758 0.657 0.6242 0.6208 0.6576 0.6206 0.5706 0.6134 0.6551 0.7082 0.7356
3096.048 0.6993 0.7436 0.8032 0.8013 0.821 0.8527 0.8199 0.7372 0.7242 0.7738
3115.338 0.803 0.7909 0.7731 0.7663 0.803 0.8108 0.6916 0.6834 0.7502 0.7875
3134.628 0.7365 0.7683 0.847 0.8356 0.7984 0.7188 0.6498 0.6752 0.7043 0.6329
3153.918 0.6936 0.7448 0.6599 0.6246 0.5967 0.5775 0.545 0.5874 0.5854 0.5208
3173.208 0.6353 0.6109 0.4674 0.5289 0.5659 0.5002 0.5623 0.6591 0.6357 0.5173
3192.498 0.5415 0.6151 0.4421 0.476 0.7176 0.6416 0.58 0.6942 0.7627 0.7277
3211.788 0.6313 0.5418 0.5496 0.638 0.7179 0.7086 0.6526 0.7578 0.7092 0.6109
3231.078 0.8148 0.9812 0.9546 0.8326 0.8268 0.9126 0.9782 0.899 0.7664 0.7845
3250.368 0.6935 0.5693 0.6429 0.7582 0.7672 0.6918 0.6375 0.7137 0.7226 0.6715
3269.658 0.6689 0.6875 0.6898 0.5601 0.5432 0.652 0.6178 0.6356 0.748 0.7423
3288.948 0.5234 0.4396 0.6081 0.7395 0.7742 0.7254 0.7062 0.6731 0.6834 0.6552
3308.238 0.6769 0.7441 0.7561 0.69 0.609 0.6919 0.7416 0.7369 0.6908 0.6251
3327.528 0.6432 0.72 0.7671 0.7127 0.6711 0.758 0.7773 0.7247 0.7257 0.7365
3346.818 0.7402 0.7437 0.8373 0.8542 0.7783 0.8063 0.8927 0.9079 0.9862 1.11
3366.108 1.16 1.29 1.39 1.54 1.76 1.94 2.02 2.18 2.45 2.64
3385.398 2.7 2.87 3.21 3.5 3.72 3.87 3.91 3.86 3.95 4.04
3404.688 3.89 3.95 4.06 3.89 3.7 3.46 3.11 2.87 2.61 2.42
3423.978 2.4 2.21 2.03 2.02 2.11 2.11 1.97 1.91 2.01 1.99
3443.269 1.88 1.93 2.06 2.28 2.45 2.47 2.59 2.85 3.1 3.36
3462.559 3.63 3.84 4.24 4.85 5.34 5.86 6.66 7.5 8.3 9.17
3481.849 10.04 10.99 12.15 13.44 14.67 15.93 17.12 18.33 19.43 20.03
3501.139 20.47 20.99 21.56 22.41 23.72 25.19 26.96 28.95 30.36 30.69
3520.429 30.09 29.05 27.91 26.82 25.91 24.86 23.27 20.72 16.93 12.71
3539.719 9.08 6.43 4.72 3.56 2.79 2.31 1.97 1.63 1.36 1.26
3559.009 1.09 1.08 1.15 1.04 0.9496 0.8431 0.7978 0.89 0.8692 0.7773
3578.299 0.68 0.6296 0.7194 0.7429 0.6915 0.7291 0.6355 0.5683 0.587 0.6367
3597.589 0.7974 0.8307 0.8033 0.7117 0.6719 0.8074 0.8764 0.909 0.9282 0.8264
3616.879 0.8151 0.8015 0.6756 0.7185 0.859 0.7909 0.7025 0.6575 0.5704 0.6387
3636.169 0.8088 0.7685 0.7222 0.7413 0.7502 0.7148 0.6357 0.6813 0.6919 0.7097
3655.459 0.6827 0.6551 0.6408 0.6371 0.7395 0.7125 0.7796 0.9111 0.9269 0.8726
3674.749 0.7773 0.7072 0.64 0.6659 0.729 0.7162 0.694 0.7186 0.6702 0.6525
3694.039 0.7133 0.7037 0.6233 0.6438 0.642 0.625 0.6671 0.7201 0.7607 0.686
3713.329 0.6475 0.612 0.5646 0.6268 0.6518 0.7322 0.7422 0.58 0.5752 0.5965
3732.619 0.5502 0.7322 0.8314 0.7183 0.6967 0.6021 0.5894 0.6563 0.5621 0.4843
3751.909 0.5272 0.5752 0.5481 0.5629 0.6389 0.6386 0.576 0.5525 0.5625 0.522
3771.199 0.4392 0.5092 0.5729 0.5323 0.5724 0.6279 0.571 0.5401 0.6229 0.5751
3790.489 0.5755 0.6963 0.7799 0.712 0.5662 0.4912 0.3979 0.4815 0.6251 0.7002
3809.779 0.7262 0.6502 0.6513 0.6112 0.5715 0.5455 0.439 0.3103 0.4129 0.6528
3829.069 0.676 0.5849 0.6015 0.747 0.8074 0.6493 0.5999 0.6072 0.4424 0.4075
3848.359 0.4574 0.4983 0.569 0.715 0.6945 0.6902 0.7238 0.6984 0.6957 0.6878
3867.649 0.6557 0.6309 0.7193 0.7025 0.5667 0.637 0.8163 0.7722 0.771 0.7782
3886.939 0.7163 0.8512 0.9327 0.8844 0.8217 0.7757 0.8849 1.02 0.9813 0.8743
3906.229 0.8736 0.9415 0.893 0.7538 0.8298 0.9255 0.9018 0.9471 0.9432 0.8298
3925.519 0.7373 0.7901 0.7829 0.6937 0.7554 0.8542 0.8628 0.7381 0.7181 0.8149
3944.809 0.8126 0.8302 0.8767 0.8319 0.6938 0.7775 0.7867 0.6804 0.7141 0.6033
3964.099 0.5202 0.5289 0.655 0.7634 0.6933 0.6855 0.7573 0.7892 0.6918 0.616
3983.389 0.6919 0.8459 0.8261 0.715 0.6823 0.7342 0.8116 0.8759 0.8801 0.8428
##END=
