##TITLE=3-Methyl-4-phenyl-1-butene
##JCAMP-DX=4.24
##DATA TYPE=INFRARED SPECTRUM
##ORIGIN=NIST Mass Spectrometry Data Center
##OWNER=NIST Standard Reference Data Program
Collection (C) 2018 copyright by the U.S. Secretary of Commerce
on behalf of the United States of America. All rights reserved.
##CAS REGISTRY NO=1647-06-9
##MOLFORM=C 11 H 14
##$NIST SOURCE=MSDC-IR
##SPECTROMETER/DATA SYSTEM=HP-GC/MS/IRD
##STATE=gas
##XUNITS=1/CM
##YUNITS=ABSORBANCE
##XFACTOR=1.0
##YFACTOR=0.000001100
##DELTAX=4.0
##FIRSTX=550.0
##LASTX=3846.0
##FIRSTY=0.000444
##MAXX=3846
##MINX=550
##MAXY=0.011
##MINY=0
##NPOINTS=825
##XYDATA=(X++(Y..Y))
550.0 404 154 63 165 214 276 276 304 374 415
590.0 374 189 150 194 98 28 10 43 105 134
630.0 180 175 272 424 557 712 915 1152 1503 1889
670.0 2180 2534 3081 3792 4871 6086 7092 7584 7133 6061
710.0 4849 3949 3547 3606 4041 4663 5033 4920 4259 3269
750.0 2315 1573 1105 788 564 465 375 301 272 206
790.0 148 209 278 284 281 304 314 297 237 231
830.0 303 281 200 157 150 183 221 248 291 337
870.0 376 450 562 729 934 1178 1589 2245 3168 4373
910.0 5454 5958 5734 4868 3593 2464 1777 1311 1052 881
950.0 760 730 700 692 766 904 1129 1475 1898 2286
990.0 2510 2495 2251 1920 1563 1217 1013 1006 1123 1270
1030.0 1287 1165 985 795 701 685 707 767 843 903
1070.0 921 909 893 913 894 857 835 837 822 773
1110.0 710 615 504 428 389 355 395 409 352 297
1150.0 224 185 150 110 86 63 59 70 121 152
1190.0 137 151 162 151 172 168 112 86 85 82
1230.0 100 99 134 130 99 108 138 168 170 198
1270.0 216 210 223 245 291 328 359 385 387 403
1310.0 407 399 395 411 421 425 439 459 481 458
1350.0 440 453 479 577 752 989 1212 1317 1270 1090
1390.0 863 682 618 638 729 894 1111 1283 1334 1314
1430.0 1296 1314 1473 1812 2189 2463 2590 2564 2355 2020
1470.0 1658 1382 1319 1484 1943 2519 2829 2733 2273 1540
1510.0 879 529 370 286 269 264 242 218 209 218
1550.0 220 229 282 347 393 464 563 710 887 1059
1590.0 1271 1539 1736 1813 1727 1509 1250 1049 1054 1232
1630.0 1516 1831 2031 2004 1748 1363 979 699 518 395
1670.0 329 268 218 201 172 146 157 166 134 114
1710.0 99 109 131 129 138 167 186 194 196 198
1750.0 191 162 133 126 128 135 167 207 271 374
1790.0 445 470 476 440 386 366 383 434 509 578
1830.0 644 659 602 487 402 374 351 347 352 337
1870.0 334 333 324 310 261 210 171 114 95 121
1910.0 135 157 201 252 300 367 431 456 459 442
1950.0 415 356 274 196 126 103 102 95 79 82
1990.0 74 56 42 33 47 54 29 23 23 15
2030.0 31 56 56 26 12 15 12 13 21 33
2070.0 44 61 64 40 27 30 36 34 51 51
2110.0 39 40 42 39 38 36 45 46 32 42
2150.0 45 29 23 26 32 16 7 14 44 61
2190.0 48 52 56 48 30 28 45 55 57 51
2230.0 36 24 35 44 31 41 52 35 6 31
2270.0 61 43 39 55 58 65 56 36 51 75
2310.0 105 101 94 91 85 101 85 79 78 77
2350.0 70 58 81 78 66 62 42 39 44 42
2390.0 33 33 49 53 26 27 50 56 49 52
2430.0 61 50 34 23 24 25 27 29 35 53
2470.0 46 26 26 35 17 14 41 35 28 31
2510.0 39 60 67 69 77 68 52 57 65 79
2550.0 83 89 84 71 80 84 77 79 97 101
2590.0 105 118 112 105 110 87 61 89 114 102
2630.0 87 103 124 109 74 56 68 94 102 107
2670.0 92 54 63 87 85 77 94 87 85 99
2710.0 95 116 145 152 160 160 161 156 157 186
2750.0 182 161 164 151 172 195 185 197 214 217
2790.0 230 222 242 288 320 350 377 403 460 553
2830.0 651 781 973 1190 1472 1812 2119 2447 2767 3052
2870.0 3352 3636 3881 3978 3950 3915 3914 4007 4229 4637
2910.0 5254 6076 7022 7851 8345 8403 8066 7407 6575 5829
2950.0 5471 5612 6282 7381 8644 9672 10000 9424 8104 6397
2990.0 4866 3988 3675 3619 3650 3721 3893 4286 4982 5857
3030.0 6538 6706 6323 5474 4544 3998 3939 4490 5525 6557
3070.0 7242 7537 7479 7103 6603 5903 4957 3856 2904 2233
3110.0 1728 1346 1084 870 692 524 451 423 370 340
3150.0 340 332 320 296 262 249 262 247 241 220
3190.0 206 205 169 144 135 130 115 126 127 112
3230.0 112 105 104 98 91 128 143 121 151 158
3270.0 119 105 84 69 64 60 72 85 97 98
3310.0 113 130 96 43 42 47 56 73 85 73
3350.0 73 96 89 82 86 65 30 30 57 62
3390.0 31 10 23 45 43 50 52 66 94 82
3430.0 46 31 57 56 48 33 40 47 31 12
3470.0 20 47 63 78 60 34 30 40 47 36
3510.0 42 28 25 59 32 5 6 19 11 33
3550.0 52 30 26 13 22 40 30 22 26 26
3590.0 25 25 23 50 49 45 74 82 90 60
3630.0 47 57 60 69 88 123 134 154 127 85
3670.0 66 62 91 73 57 43 24 27 26 26
3710.0 47 68 76 99 81 68 79 56 56 67
3750.0 79 77 46 48 73 36 49 50 0 25
3790.0 48 31 40 55 24 39 73 74 89 79
3830.0 36 50 60 36 10
##END=
