##TITLE=2-Iodo-5-methylthiophene
##JCAMP-DX=4.24
##DATA TYPE=INFRARED SPECTRUM
##ORIGIN=EPA-IR VAPOR PHASE LIBRARY
##OWNER=SRD/NIST
Collection (C) 2018 copyright by the U.S. Secretary of Commerce
on behalf of the United States of America. All rights reserved.
##CAS REGISTRY NO=16494-36-3
##MOLFORM=C 5 H 5 I S
##$NIST SOURCE=MSDC-IR
##STATE=gas
##XUNITS=1/CM
##YUNITS=ABSORBANCE
##XFACTOR=1.
##YFACTOR=0.001
##DELTAX=1.92898
##FIRSTX=549.8
##LASTX=4000.7
##FIRSTY=0.8536
##MAXX=4000.7
##MINX=549.759
##MAXY=0.058004
##MINY=0
##NPOINTS=1790
##XYDATA=(X++(Y..Y))
549.759 0.8536 0.8672 0.7841 0.9999 1.1679 1.0557 0.9846 1.2665 1.574 1.744
569.049 1.924 1.964 2.004 2.144 2.244 2.104 1.904 1.614 1.2183 0.8653
588.339 0.8034 0.8709 0.7813 0.9245 1.0448 0.7278 0.4786 0.43206 0.42423 0.5179
607.628 0.6296 0.4857 0.3069 0.3284 0.43589 0.6807 0.736 0.4994 0.3925 0.42832
626.918 0.5202 0.4611 0.369819 0.5282 0.6343 0.8668 1.054 1.0018 1.2795 1.664
646.208 1.904 2.264 2.754 3.184 3.534 4.224 5.174 5.904 6.214 5.824
665.498 5.374 5.524 5.704 5.394 4.284 2.954 2.094 1.704 1.654 1.664
684.787 1.624 1.494 1.394 1.364 1.3187 1.3389 1.3092 1.1327 1.1179 1.103
704.077 1.1009 1.2159 1.2611 1.384 1.474 1.574 1.934 2.364 2.754 3.014
723.367 3.054 3.114 3.284 3.364 3.374 3.384 3.354 3.194 2.994 2.854
742.657 2.694 2.684 2.654 2.254 2.064 2.284 2.674 3.304 4.274 5.734
761.947 7.424 9.414 12.024 15.064 18.524 22.274 25.914 29.384 32.224 34.474
781.236 37.114 41.584 49.904 58.004 51.214 39.214 36.314 35.524 33.504 30.364
800.526 26.554 22.374 18.454 14.754 11.464 8.854 6.684 4.934 3.754 3.194
819.816 2.694 2.234 1.854 1.544 1.564 1.624 1.564 1.624 1.584 1.484
839.106 1.444 1.404 1.3171 1.3127 1.474 1.434 1.2897 1.2483 1.1506 1.125
858.395 1.1701 1.0552 0.9473 0.9326 0.6942 0.5823 0.7714 0.8568 0.8141 0.6854
877.685 0.8693 1.05 1.1197 1.3009 1.574 1.714 1.644 1.834 1.864 1.824
896.975 1.984 2.084 2.104 2.354 2.704 2.794 3.224 3.854 4.444 5.554
916.265 6.964 8.654 10.914 13.564 16.394 19.114 20.794 21.764 22.484 22.754
935.555 22.624 21.524 18.914 15.114 11.474 9.014 7.554 6.584 5.704 4.774
954.844 4.014 3.614 3.624 3.374 3.074 3.124 3.304 3.594 4.004 4.254
974.134 4.604 5.164 5.604 5.954 6.174 6.174 5.914 5.704 5.564 5.004
993.424 3.884 2.954 2.514 2.164 2.024 2.014 1.744 1.554 1.604 1.824
1012.714 2.324 2.794 3.024 3.394 3.644 3.724 4.054 4.344 4.344 4.484
1032.003 5.344 6.344 7.244 8.284 9.114 9.874 10.634 11.394 11.774 11.204
1051.293 10.504 10.254 9.754 8.694 7.374 6.224 5.194 4.344 3.344 2.794
1070.583 2.624 2.124 1.784 1.474 1.784 1.654 1.0051 1.0963 1.1814 0.9385
1089.873 0.983 1.0845 1.2233 1.584 1.714 1.444 0.9733 0.9691 1.3418 1.554
1109.163 1.524 1.484 1.744 1.944 1.944 1.884 1.654 1.634 1.914 2.014
1128.452 2.284 2.584 2.694 3.074 3.714 4.194 4.504 5.354 6.284 6.794
1147.742 7.124 7.834 8.684 9.074 9.414 9.604 9.344 8.924 8.884 8.644
1167.032 7.814 6.814 5.674 4.724 4.044 3.614 3.004 2.364 2.194 2.164
1186.322 2.074 1.784 1.494 1.434 1.544 1.684 1.724 2.114 2.804 3.714
1205.611 5.394 8.544 13.244 17.494 20.074 20.484 19.644 19.364 19.684 17.974
1224.901 13.454 8.604 4.804 2.884 2.074 1.794 1.904 1.584 1.424 1.424
1244.191 1.2705 1.384 1.3078 1.2484 1.454 1.474 1.3249 1.1189 1.0576 0.954
1263.481 1.1805 1.444 1.1981 1.1545 1.2932 1.229 1.08 1.0833 1.1854 1.3078
1282.771 1.404 1.434 1.374 1.3415 1.3037 1.2732 1.3598 1.2801 1.1651 1.2506
1302.060 1.2614 1.2799 1.323 1.3171 1.444 1.564 1.554 1.574 1.614 1.634
1321.350 1.734 1.794 1.864 1.994 2.034 2.064 2.144 2.154 2.114 2.114
1340.640 2.084 2.034 1.964 1.894 1.904 1.894 1.914 1.934 1.974 2.044
1359.930 2.044 2.044 2.154 2.234 2.284 2.334 2.414 2.524 2.614 2.654
1379.219 2.724 2.724 2.724 2.764 2.784 2.884 2.984 3.044 3.104 3.154
1398.509 3.234 3.424 3.644 3.974 4.444 4.954 5.544 6.224 7.074 8.034
1417.799 9.114 10.334 11.614 13.004 14.434 15.724 16.744 17.304 17.374 17.244
1437.089 17.124 16.994 16.564 15.554 14.074 12.394 10.834 9.584 8.564 7.714
1456.378 6.984 6.394 5.944 5.514 5.124 4.634 4.264 4.084 3.794 3.554
1475.668 3.334 3.044 2.854 2.704 2.594 2.474 2.324 2.204 2.144 2.214
1494.958 2.244 2.274 2.394 2.474 2.574 2.694 2.874 2.954 3.024 3.254
1514.248 3.414 3.554 3.714 3.954 4.184 4.444 4.804 5.014 5.214 5.564
1533.538 5.834 5.984 6.084 6.064 5.964 5.774 5.474 5.154 4.834 4.624
1552.827 4.404 4.204 4.184 4.224 4.304 4.444 4.554 4.614 4.614 4.454
1572.117 4.234 4.154 4.194 4.134 3.854 3.494 3.104 2.814 2.514 2.244
1591.407 1.974 1.654 1.514 1.454 1.394 1.2956 1.1409 1.0448 1.0453 1.0264
1610.697 1.0641 1.0911 1.0742 1.1639 1.1883 1.1122 1.0959 1.1065 1.0997 1.0873
1629.986 1.1075 1.1256 1.1439 1.1342 1.1254 1.2659 1.3441 1.3054 1.3258 1.2972
1649.276 1.2068 1.123 1.0572 0.9844 0.9275 0.8753 0.8056 0.7551 0.7764 0.7865
1668.566 0.7218 0.7065 0.7088 0.728 0.7491 0.733 0.6922 0.7072 0.7762 0.8081
1687.856 0.8287 0.9057 1.0104 1.11 1.2 1.3067 1.424 1.554 1.734 1.984
1707.146 2.194 2.424 2.714 2.994 3.294 3.544 3.734 3.834 3.824 3.784
1726.435 3.644 3.614 3.644 3.444 3.174 2.824 2.384 2.014 1.724 1.534
1745.725 1.346 1.1613 0.9309 0.7556 0.6462 0.5665 0.5583 0.578 0.5846 0.5322
1765.015 0.5045 0.45609 0.4467 0.5089 0.4787 0.4897 0.5125 0.48 0.5268 0.5481
1784.305 0.5434 0.5723 0.5415 0.5287 0.5644 0.5626 0.5825 0.5673 0.5307 0.5486
1803.594 0.6083 0.6681 0.6814 0.6575 0.6539 0.6664 0.6908 0.7497 0.7838 0.7791
1822.884 0.7362 0.7151 0.6962 0.6352 0.5775 0.5435 0.5055 0.5154 0.5002 0.43298
1842.174 0.43146 0.4738 0.4995 0.4887 0.46055 0.40362 0.41719 0.4772 0.46027 0.41236
1861.464 0.4531 0.4879 0.45899 0.41909 0.45207 0.5377 0.5104 0.4864 0.4954 0.4582
1880.754 0.40356 0.4466 0.4982 0.42464 0.40452 0.4743 0.477 0.4801 0.44962 0.41397
1900.043 0.41373 0.37612 0.42041 0.43402 0.40005 0.365944 0.3382 0.3492 0.3482 0.39002
1919.333 0.37613 0.36249 0.4283 0.40283 0.38508 0.41104 0.39033 0.44775 0.4743 0.40308
1938.623 0.38874 0.373819 0.3409 0.371087 0.43096 0.42875 0.43277 0.4662 0.5075 0.5132
1957.913 0.5147 0.5314 0.4804 0.5056 0.5285 0.5181 0.497 0.45414 0.44552 0.43836
1977.202 0.4888 0.4949 0.5105 0.5192 0.4924 0.5157 0.5416 0.5541 0.5279 0.5557
1996.492 0.5755 0.5617 0.5452 0.5048 0.4983 0.5272 0.5417 0.5125 0.4712 0.43955
2015.782 0.4788 0.4882 0.4891 0.46221 0.43293 0.44346 0.40325 0.40831 0.42386 0.41583
2035.072 0.41826 0.4175 0.44488 0.5184 0.4957 0.4669 0.45654 0.3807 0.42498 0.4932
2054.362 0.4957 0.521 0.5475 0.5307 0.5087 0.4883 0.4941 0.5184 0.5374 0.5322
2073.651 0.493 0.543 0.5981 0.62 0.6409 0.6268 0.6408 0.6227 0.6217 0.673
2092.941 0.7079 0.7521 0.798 0.7967 0.7535 0.7789 0.7937 0.7307 0.6889 0.658
2112.231 0.6318 0.6467 0.675 0.6452 0.5807 0.5802 0.559 0.5475 0.5571 0.5319
2131.521 0.5474 0.5701 0.5782 0.5341 0.4927 0.46349 0.4702 0.5559 0.5876 0.5574
2150.810 0.5492 0.5981 0.581 0.5476 0.5776 0.5932 0.5673 0.549 0.5213 0.4922
2170.100 0.5174 0.4736 0.469 0.45886 0.45385 0.5135 0.4756 0.371907 0.38243 0.41561
2189.390 0.3762 0.37577 0.4016 0.41714 0.43562 0.44899 0.4695 0.478 0.3961 0.40266
2208.680 0.44211 0.4699 0.43347 0.40564 0.45454 0.425 0.38708 0.4168 0.43228 0.40623
2227.970 0.365475 0.3271 0.36203 0.43322 0.4964 0.44087 0.4081 0.363166 0.3507 0.4647
2247.259 0.5077 0.5212 0.5076 0.5483 0.6417 0.6686 0.6821 0.7193 0.6719 0.5942
2266.549 0.6138 0.6533 0.6518 0.6591 0.6167 0.5551 0.5546 0.5484 0.5874 0.5516
2285.839 0.4427 0.5166 0.6113 0.5866 0.5814 0.6437 0.7197 0.7479 0.8068 0.8427
2305.129 0.8304 0.8275 0.8114 0.82 0.8375 0.8138 0.8231 0.8278 0.7734 0.7288
2324.418 0.7248 0.7021 0.6331 0.5414 0.5119 0.5756 0.5817 0.5949 0.651 0.6636
2343.708 0.6551 0.6521 0.668 0.6481 0.6588 0.7388 0.7353 0.7483 0.8611 0.8889
2362.998 0.851 0.8464 0.7615 0.7428 0.7949 0.772 0.76 0.7588 0.7272 0.6454
2382.288 0.6327 0.6714 0.6387 0.5914 0.5663 0.5669 0.6128 0.6953 0.7135 0.6963
2401.578 0.711 0.6625 0.5955 0.6569 0.6481 0.6464 0.71 0.7155 0.7505 0.7275
2420.867 0.7204 0.6605 0.6164 0.6647 0.7223 0.7246 0.6668 0.6593 0.6831 0.7282
2440.157 0.761 0.7192 0.7029 0.7098 0.6481 0.6324 0.6818 0.7296 0.7443 0.745
2459.447 0.6925 0.6173 0.602 0.6493 0.7054 0.7377 0.7603 0.7781 0.7721 0.8369
2478.737 0.8915 0.8532 0.8098 0.8062 0.7237 0.5613 0.6062 0.6985 0.6275 0.5667
2498.026 0.5843 0.5669 0.6625 0.6772 0.6327 0.6237 0.5562 0.5515 0.5957 0.672
2517.316 0.7358 0.809 0.7917 0.7224 0.7855 0.7322 0.7566 0.8338 0.8087 0.8209
2536.606 0.8485 0.8287 0.7955 0.9025 0.9287 0.855 0.7955 0.7113 0.6318 0.5726
2555.896 0.5789 0.6391 0.562 0.5381 0.5393 0.5191 0.6123 0.6079 0.5813 0.6235
2575.186 0.5703 0.6243 0.6968 0.6808 0.6556 0.5684 0.5838 0.6283 0.657 0.6364
2594.475 0.5686 0.5603 0.5142 0.46026 0.45571 0.44547 0.39947 0.3385 0.3442 0.43048
2613.765 0.4724 0.5242 0.478 0.364923 0.35578 0.44218 0.4819 0.473 0.5035 0.4895
2633.055 0.42361 0.3433 0.367546 0.42525 0.40744 0.3305 0.3458 0.43791 0.37979 0.42469
2652.345 0.5179 0.4675 0.38498 0.363354 0.37722 0.3207 0.3307 0.3151 0.39694 0.5132
2671.634 0.45413 0.37677 0.42613 0.42699 0.35945 0.44998 0.44033 0.3436 0.35795 0.42803
2690.924 0.43844 0.42704 0.3911 0.37943 0.43858 0.40805 0.3524 0.40016 0.4053 0.37466
2710.214 0.40394 0.46189 0.544 0.5288 0.4853 0.42152 0.5325 0.6303 0.527 0.585
2729.504 0.6253 0.6182 0.7038 0.8417 0.9834 1.1542 1.384 1.624 1.734 1.714
2748.794 1.794 1.884 1.864 1.734 1.504 1.2281 1.0144 0.8546 0.7161 0.5872
2768.083 0.5067 0.5319 0.5807 0.5829 0.6907 0.7279 0.6471 0.6537 0.6476 0.6798
2787.373 0.6813 0.7317 0.7758 0.7731 0.7915 0.7948 0.8431 0.7564 0.711 0.7317
2806.663 0.8655 0.9701 0.8572 0.8769 0.9685 1.0268 1.1604 1.2994 1.404 1.474
2825.953 1.494 1.584 1.704 1.844 1.964 1.964 2.044 2.244 2.484 2.734
2845.242 2.924 3.234 3.564 3.854 4.164 4.484 4.924 5.454 6.104 6.924
2864.532 7.954 9.204 10.374 11.274 12.154 12.774 13.084 13.384 13.334 12.794
2883.822 12.194 11.474 10.704 10.044 9.474 8.964 8.534 8.284 7.984 7.714
2903.112 7.584 7.514 7.394 7.344 7.564 8.024 8.454 9.184 10.374 11.814
2922.401 13.794 16.564 20.244 24.494 28.364 30.624 30.824 30.014 29.224 28.164
2941.691 25.644 21.294 16.494 12.854 10.574 9.194 8.504 8.334 8.184 8.184
2960.981 8.424 8.744 8.944 8.784 8.654 8.564 8.654 8.864 8.914 8.724
2980.271 8.444 8.054 7.674 7.394 7.064 6.644 6.114 5.544 5.034 4.684
2999.561 4.444 4.184 3.854 3.564 3.374 3.374 3.294 3.294 3.424 3.464
3018.850 3.554 3.644 3.874 4.104 4.224 4.524 4.904 5.264 5.634 5.984
3038.140 6.294 6.584 6.934 7.244 7.554 7.824 7.894 7.984 7.924 7.764
3057.430 7.684 7.394 7.124 6.934 6.824 6.834 6.704 6.724 7.054 7.354
3076.720 7.504 7.544 7.584 7.504 7.184 6.834 6.364 5.864 5.434 4.894
3096.009 4.364 3.934 3.764 3.564 3.274 3.034 2.794 2.544 2.174 1.854
3115.299 1.714 1.554 1.444 1.3257 1.0868 0.9761 0.9927 0.7952 0.7378 0.8146
3134.589 0.7659 0.6941 0.6745 0.7363 0.6536 0.6253 0.5714 0.5163 0.5887 0.4983
3153.879 0.3318 0.373126 0.44199 0.43233 0.5027 0.5265 0.40384 0.3503 0.39453 0.3157
3173.169 0.26 0.39663 0.2795 0.163 0.3329 0.42033 0.233 0.206 0.46218 0.41913
3192.458 0.38538 0.366966 0.4702 0.5011 0.35649 0.42417 0.44888 0.4356 0.3189 0.36045
3211.748 0.5236 0.44618 0.40878 0.45475 0.41947 0.2681 0.262 0.44358 0.44285 0.5123
3231.038 0.6 0.5317 0.44077 0.3366 0.2959 0.2644 0.3349 0.547 0.5421 0.3427
3250.328 0.366551 0.4386 0.3163 0.40854 0.44129 0.2659 0.252 0.2837 0.3291 0.37564
3269.617 0.42655 0.38633 0.41946 0.42122 0.3219 0.3264 0.3237 0.3461 0.3244 0.326
3288.907 0.35771 0.42688 0.38415 0.2687 0.264 0.2828 0.3454 0.40477 0.4361 0.37535
3308.197 0.3323 0.3178 0.3182 0.35496 0.3297 0.234 0.239 0.22 0.2945 0.36178
3327.487 0.40919 0.4716 0.4733 0.37575 0.208 0.3224 0.39232 0.253 0.17 0.2979
3346.777 0.45335 0.36058 0.3228 0.39745 0.184 0.077 0.203 0.371636 0.39676 0.3067
3366.066 0.3192 0.3032 0.38962 0.41594 0.3371 0.3339 0.246 0.247 0.2854 0.205
3385.356 0.242 0.234 0.195 0.243 0.209 0.215 0.3517 0.40674 0.3008 0.182
3404.646 0.245 0.41982 0.4757 0.41413 0.35692 0.3083 0.2865 0.3085 0.254 0.326
3423.936 0.44096 0.40101 0.3488 0.271 0.2983 0.2887 0.107 0.176 0.42877 0.363628
3443.225 0.3181 0.314 0.2876 0.42251 0.328 0.225 0.2674 0.2734 0.256 0.249
3462.515 0.222 0.048 0.052 0.2696 0.3 0.257 0.2936 0.231 0.243 0.246
3481.805 0.121 0.15 0.2916 0.2902 0.2701 0.247 0.2975 0.38197 0.3241 0.202
3501.095 0.097 0.259 0.43929 0.3464 0.3183 0.44999 0.46094 0.3428 0.26 0.292
3520.385 0.3099 0.3496 0.38415 0.262 0.256 0.2819 0.255 0.2809 0.3175 0.3247
3539.674 0.252 0.158 0.146 0.39414 0.38424 0.2693 0.213 0.172 0.2669 0.084
3558.964 0.158 0.36643 0.41295 0.5061 0.44461 0.2801 0.173 0.109 0.125 0.218
3578.254 0.233 0.2857 0.3034 0.145 0.056 0.151 0.197 0.249 0.3035 0.106
3597.544 0 0.243 0.38192 0.35751 0.2723 0.178 0.191 0.38626 0.4724 0.2981
3616.833 0.243 0.3147 0.245 0.188 0.2967 0.247 0.205 0.2789 0.3161 0.3254
3636.123 0.292 0.3313 0.3071 0.173 0.253 0.36021 0.2678 0.336 0.42584 0.3992
3655.413 0.4067 0.40743 0.2878 0.271 0.3414 0.213 0.233 0.41543 0.39295 0.3457
3674.703 0.40936 0.42489 0.2827 0.247 0.28 0.3174 0.371158 0.35971 0.3199 0.225
3693.993 0.251 0.35911 0.44182 0.41726 0.3477 0.221 0.2744 0.41336 0.3217 0.3039
3713.282 0.40943 0.5182 0.4755 0.3927 0.3268 0.192 0.139 0.143 0.174 0.189
3732.572 0.204 0.252 0.3308 0.3336 0.4184 0.4898 0.2816 0.144 0.248 0.3351
3751.862 0.3507 0.252 0.169 0.225 0.2881 0.3137 0.44034 0.4918 0.267 0.216
3771.152 0.3311 0.37889 0.4646 0.43518 0.3226 0.39037 0.43485 0.4051 0.4882 0.4762
3790.441 0.4726 0.5321 0.45311 0.38291 0.4992 0.6554 0.5971 0.4907 0.5864 0.6774
3809.731 0.5914 0.5321 0.5206 0.6032 0.7826 0.8101 0.7501 0.8002 0.808 0.7612
3829.021 0.7791 0.7571 0.6977 0.8104 0.7063 0.43383 0.255 0.216 0.3293 0.3353
3848.311 0.43378 0.45511 0.4816 0.5371 0.40922 0.217 0.138 0.3051 0.39823 0.38669
3867.601 0.3393 0.2854 0.258 0.35882 0.40243 0.3474 0.42225 0.365856 0.3052 0.34
3886.890 0.2773 0.26 0.237 0.121 0.2687 0.41114 0.42423 0.598 0.5945 0.42232
3906.180 0.41397 0.42628 0.2923 0.252 0.40759 0.368362 0.351 0.422 0.4686 0.44546
3925.470 0.40487 0.3442 0.2904 0.3222 0.3244 0.37472 0.45237 0.41701 0.3099 0.2938
3944.760 0.2789 0.41438 0.44437 0.37861 0.41529 0.42061 0.3267 0.365319 0.4521 0.39588
3964.049 0.4792 0.491 0.4544 0.44968 0.17 0.031 0.146 0.3212 0.4699 0.5592
3983.339 0.7105 0.5656 0.43047 0.45851 0.4443 0.43841 0.41048 0.4758 0.378 0.3425
##END=
