##TITLE=2,4,5-Trifluorobenzaldehyde
##JCAMP-DX=4.24
##DATA TYPE=INFRARED SPECTRUM
##ORIGIN=EPA-IR VAPOR PHASE LIBRARY
##OWNER=SRD/NIST
Collection (C) 2018 copyright by the U.S. Secretary of Commerce
on behalf of the United States of America. All rights reserved.
##CAS REGISTRY NO=165047-24-5
##MOLFORM=C 7 H 3 F 3 O
##$NIST SOURCE=MSDC-IR
##STATE=gas
##XUNITS=1/CM
##YUNITS=ABSORBANCE
##XFACTOR=1.
##YFACTOR=0.001
##DELTAX=1.92898
##FIRSTX=549.8
##LASTX=4000.7
##FIRSTY=10.806
##MAXX=4000.7
##MINX=549.759
##MAXY=0.218366
##MINY=0
##NPOINTS=1790
##XYDATA=(X++(Y..Y))
549.759 10.806 13.296 17.586 23.926 30.066 35.046 36.626 36.936 39.396 40.006
569.049 38.816 36.176 30.456 23.366 17.046 12.506 9.046 6.746 5.146 4.356
588.339 3.226 2.586 2.756 2.566 2.956 3.136 2.866 2.866 3.056 3.136
607.628 2.506 1.976 2.456 2.626 2.356 2.676 3.276 3.456 3.396 4.006
626.918 4.326 4.286 4.436 4.496 4.476 4.146 3.586 3.116 3.116 2.976
646.208 2.436 2.216 2.446 2.536 2.596 2.416 2.566 2.776 2.236 2.026
665.498 1.906 1.806 2.116 2.506 2.646 2.526 2.716 3.106 3.946 5.456
684.787 6.946 9.636 13.896 18.766 24.456 29.106 30.856 31.156 31.866 32.776
704.077 33.296 32.116 28.466 23.566 18.906 15.116 12.636 11.066 9.586 8.376
723.367 7.696 7.346 6.696 6.226 6.016 5.856 6.116 6.636 7.036 7.856
742.657 9.516 12.406 17.506 24.286 31.826 37.796 40.496 42.196 43.536 41.696
761.947 39.656 38.746 33.516 24.686 16.286 10.626 7.996 6.676 6.606 7.296
781.236 7.486 7.646 8.066 7.986 7.976 8.216 7.996 7.416 6.726 6.066
800.526 5.526 5.086 4.806 4.786 4.366 4.276 4.596 4.896 5.206 5.206
819.816 5.186 4.866 5.076 6.756 7.586 8.306 9.506 10.686 12.516 14.736
839.106 16.896 18.436 19.886 22.036 25.866 31.806 34.516 29.246 24.186 23.196
858.395 22.316 20.806 19.296 18.086 16.926 16.106 16.666 18.346 20.656 23.676
877.685 27.656 32.186 35.936 38.456 40.686 43.256 45.616 48.026 50.186 50.676
896.975 47.746 40.426 31.606 25.706 22.496 19.586 16.586 13.856 10.906 8.326
916.265 6.796 5.666 4.786 4.096 3.706 3.366 3.016 3.126 3.016 2.666
935.555 2.506 2.006 1.766 1.646 1.4573 1.3195 1.158 1.21 1.0025 0.7832
954.844 1.0428 1.2639 0.9075 0.5078 0.8713 1.3306 1.111 0.9739 1.2613 1.576
974.134 1.856 1.4892 1.418 1.636 1.596 1.696 1.876 2.376 2.586 2.436
993.424 2.396 2.346 2.236 2.066 1.976 1.876 1.836 2.046 1.4584 0.8617
1012.714 1.2996 1.3045 0.9672 1.3437 1.826 1.696 1.4369 1.3632 1.2778 1.566
1032.003 2.036 1.4885 1.0901 1.2745 1.2856 1.4835 1.27 1.1714 1.606 1.906
1051.293 1.896 1.926 2.286 2.666 2.446 2.546 2.706 2.796 3.836 4.776
1070.583 5.036 6.106 6.906 7.786 9.796 11.916 14.186 18.086 21.416 23.466
1089.873 28.386 33.746 38.306 43.866 50.346 56.366 61.016 65.916 69.936 73.096
1109.163 75.936 77.196 76.016 72.466 67.906 62.426 56.176 50.576 46.266 42.086
1128.452 40.226 40.736 42.996 48.226 53.856 57.156 59.726 61.436 61.446 61.396
1147.742 60.126 57.356 51.626 42.326 33.356 27.126 22.286 18.816 15.426 11.946
1167.032 9.806 8.486 7.866 7.366 7.216 7.046 7.436 8.456 9.256 11.286
1186.322 14.826 18.886 23.486 29.216 35.866 40.426 40.986 42.676 50.256 59.896
1205.611 67.816 74.586 77.846 75.026 68.316 65.816 71.196 73.126 67.566 58.036
1224.901 47.426 38.336 31.666 26.106 21.676 18.616 15.566 12.796 10.736 10.256
1244.191 9.806 9.046 9.646 10.576 10.916 11.786 12.496 12.986 13.896 14.806
1263.481 15.766 16.876 18.536 20.446 22.486 24.836 27.886 31.166 34.386 37.676
1282.771 40.046 41.876 42.926 42.886 42.856 42.706 41.826 40.466 38.936 37.586
1302.060 37.036 37.156 37.946 39.786 42.426 45.926 51.236 58.366 67.086 76.916
1321.350 87.366 98.336 109.356 119.306 126.346 129.806 129.056 123.926 115.466 104.616
1340.640 92.076 78.706 64.166 49.376 36.296 26.406 19.786 15.536 12.756 10.506
1359.930 8.946 7.976 7.416 7.356 7.426 7.656 8.246 9.016 9.986 11.126
1379.219 12.626 14.416 16.466 19.156 22.246 25.166 27.376 28.856 30.086 30.976
1398.509 31.366 31.376 30.506 28.906 27.566 26.576 26.396 27.576 30.166 34.786
1417.799 41.806 51.396 62.586 74.616 85.956 94.576 99.606 101.256 100.536 97.896
1437.089 92.296 82.706 68.466 51.866 37.086 26.166 19.226 15.166 12.816 11.626
1456.378 10.876 10.476 10.496 10.596 10.886 11.526 12.296 13.236 14.866 17.166
1475.668 19.906 23.806 29.126 35.846 44.126 54.266 66.766 81.466 97.516 113.696
1494.958 129.876 145.216 157.956 168.716 178.496 188.276 198.746 208.516 215.626 218.366
1514.248 216.046 210.246 202.746 193.836 181.566 165.676 144.846 120.876 97.116 76.116
1533.538 58.446 44.426 34.626 27.316 21.566 17.286 14.276 12.276 11.106 10.456
1552.827 10.046 9.896 9.796 9.866 9.866 9.786 9.966 10.316 10.726 11.116
1572.117 11.406 11.716 12.006 12.206 12.326 12.796 13.426 13.976 14.826 16.236
1591.407 18.196 20.896 24.526 29.086 34.396 41.006 49.006 57.286 65.716 74.226
1610.697 81.956 89.066 95.086 99.386 101.896 102.386 100.326 95.356 88.316 80.196
1629.986 71.606 62.826 54.226 46.096 38.726 31.846 26.226 22.326 19.686 18.196
1649.276 17.176 16.706 16.786 17.106 17.566 17.896 18.306 18.756 19.056 19.466
1668.566 19.896 19.996 19.686 19.366 18.976 18.666 18.506 18.526 18.966 19.706
1687.856 20.976 23.006 25.966 30.006 36.346 44.986 56.486 72.946 92.216 115.646
1707.146 139.886 161.166 174.256 178.036 176.836 175.236 174.566 168.886 150.316 123.376
1726.435 97.356 78.176 65.626 57.116 50.916 46.726 43.646 40.266 36.086 30.536
1745.725 23.876 17.796 13.586 10.946 9.326 8.156 7.166 6.486 6.056 5.756
1765.015 5.606 5.646 5.646 5.656 5.796 5.846 5.876 5.936 6.046 6.236
1784.305 6.306 6.256 6.276 6.266 6.256 6.186 6.126 6.176 6.066 5.646
1803.594 5.136 4.776 4.446 4.066 3.776 3.506 3.196 2.956 2.836 2.656
1822.884 2.416 2.296 2.316 2.276 2.356 2.516 2.686 2.796 2.916 3.006
1842.174 2.966 2.956 2.916 2.916 2.856 2.776 2.746 2.706 2.736 2.726
1861.464 2.676 2.606 2.536 2.426 2.486 2.556 2.406 2.326 2.346 2.406
1880.754 2.506 2.616 2.706 2.806 2.796 2.796 2.846 2.786 2.686 2.606
1900.043 2.376 2.246 2.346 2.246 2.006 1.956 1.996 1.916 1.776 1.666
1919.333 1.5056 1.4518 1.4678 1.3532 1.2415 1.2345 1.2506 1.2009 1.2583 1.3893
1938.623 1.4753 1.4448 1.4105 1.3883 1.3649 1.3442 1.3461 1.3843 1.4517 1.536
1957.913 1.4801 1.4945 1.586 1.676 1.676 1.706 1.766 1.796 1.836 1.826
1977.202 1.646 1.556 1.616 1.616 1.586 1.536 1.586 1.596 1.566 1.4459
1996.492 1.3476 1.4005 1.3708 1.2981 1.2167 1.2646 1.2583 1.1694 1.3684 1.476
2015.782 1.3812 1.3992 1.4522 1.4445 1.4424 1.457 1.4657 1.4665 1.4901 1.606
2035.072 1.556 1.536 1.566 1.5047 1.4196 1.2641 1.1237 1.1205 1.2333 1.2257
2054.362 1.1746 1.0177 0.9702 1.1145 1.1471 1.0661 1.1211 1.2557 1.3509 1.2629
2073.651 1.1637 1.212 1.3176 1.5171 1.4088 1.246 1.2889 1.2917 1.349 1.2673
2092.941 1.2158 1.2907 1.0238 0.8973 1.007 0.9939 0.8122 0.8287 0.8542 0.7868
2112.231 0.8436 0.7677 0.7436 0.7258 0.7383 0.9006 0.9617 0.9238 1.0002 0.9965
2131.521 1.0101 1.0509 0.9204 0.6989 0.56206 0.56388 0.641 0.8547 0.91 0.8072
2150.810 0.7864 0.8732 0.9441 0.9058 0.7886 0.8206 1.0494 1.1024 1.1453 1.3296
2170.100 1.3131 1.264 1.2781 1.1146 1.0248 1.1381 1.2788 1.2634 1.2377 1.3976
2189.390 1.546 1.5118 1.4569 1.586 1.626 1.596 1.666 1.556 1.45 1.536
2208.680 1.596 1.776 2.036 1.986 1.876 1.866 1.686 1.636 1.716 1.726
2227.970 1.876 1.926 1.706 1.546 1.626 1.636 1.596 1.656 1.676 1.676
2247.259 1.676 1.676 1.646 1.646 1.726 1.636 1.546 1.706 1.736 1.676
2266.549 1.676 1.636 1.606 1.5018 1.596 1.626 1.4826 1.536 1.4223 1.3065
2285.839 1.2772 1.2029 1.2216 1.277 1.1981 1.1397 1.3155 1.3645 1.4061 1.546
2305.129 1.4873 1.4686 1.646 1.706 1.576 1.576 1.756 1.856 1.816 1.856
2324.418 1.846 1.846 1.976 1.956 1.846 1.846 1.836 1.876 1.936 1.976
2343.708 2.006 2.056 2.276 2.286 2.076 2.046 2.206 2.196 2.136 2.066
2362.998 1.866 1.856 1.846 1.706 1.626 1.566 1.4341 1.435 1.556 1.4985
2382.288 1.5077 1.5011 1.355 1.37 1.5246 1.4262 1.3939 1.2838 0.9883 1.0894
2401.578 1.0789 0.9747 1.1814 1.3691 1.385 1.3941 1.4353 1.4824 1.3863 1.1999
2420.867 1.3872 1.646 1.536 1.4377 1.596 1.636 1.636 1.616 1.4722 1.536
2440.157 1.4015 1.2668 1.4327 1.4961 1.4536 1.3255 1.1997 1.2613 1.4553 1.616
2459.447 1.526 1.4228 1.4683 1.596 1.536 1.2881 1.2269 1.4186 1.536 1.546
2478.737 1.465 1.3295 1.3338 1.2629 1.1972 1.1863 1.218 1.1934 1.1383 1.1618
2498.026 1.0564 0.8804 0.8803 0.9259 0.9972 1.1683 1.0801 0.9685 0.9251 1.068
2517.316 1.339 1.3237 1.2207 1.2165 1.4427 1.626 1.646 1.566 1.716 1.936
2536.606 1.866 1.856 1.946 1.976 2.116 2.106 1.966 2.006 2.106 1.986
2555.896 1.786 1.976 2.106 2.026 2.056 1.976 2.076 2.126 1.986 1.986
2575.186 1.996 2.036 2.036 2.136 2.236 2.136 1.916 1.836 1.916 2.036
2594.475 1.986 1.876 1.936 2.206 2.396 2.476 2.676 2.646 2.556 2.646
2613.765 2.806 2.876 2.996 2.996 2.956 2.936 2.796 2.706 2.866 2.916
2633.055 2.676 2.676 2.616 2.286 2.256 2.236 2.096 2.256 2.096 1.926
2652.345 1.936 1.886 2.006 2.036 1.736 1.5055 1.546 1.3815 1.2549 1.4363
2671.634 1.606 1.4918 1.5259 1.706 1.766 1.836 1.956 2.076 2.276 2.656
2690.924 2.716 2.656 2.746 2.956 3.186 3.406 3.926 4.326 4.696 5.056
2710.214 5.596 6.216 6.626 6.906 6.856 6.886 6.916 6.796 6.556 6.036
2729.504 5.576 5.176 4.976 4.746 4.336 4.026 3.786 4.056 4.596 5.276
2748.794 6.026 7.086 8.766 10.526 11.886 12.976 13.556 13.606 13.606 13.476
2768.083 13.006 12.266 11.196 9.776 8.436 7.336 6.626 6.176 5.746 5.496
2787.373 5.366 5.066 4.896 4.996 4.736 4.406 4.236 4.216 4.256 4.086
2806.663 3.976 3.836 3.796 3.836 3.806 3.806 3.946 4.236 4.696 4.896
2825.953 4.716 4.766 4.896 5.106 5.186 5.126 5.176 5.546 5.946 6.616
2845.242 7.586 8.396 9.856 12.206 15.106 18.676 23.006 28.386 34.316 39.626
2864.532 43.276 44.896 45.036 44.076 42.066 39.056 34.866 29.146 22.676 16.876
2883.822 12.176 8.916 7.006 5.506 4.596 4.396 3.986 3.556 3.706 3.686
2903.112 3.566 3.266 2.826 2.786 3.066 2.976 2.786 2.716 2.816 2.976
2922.401 2.766 2.456 2.226 2.366 2.306 2.066 2.046 2.136 2.266 2.316
2941.691 2.146 2.076 1.996 1.946 2.206 2.336 2.246 2.026 1.726 1.3259
2960.981 1.2346 1.441 1.3722 1.2467 1.3519 1.3545 1.2011 1.0473 1.1104 1.0783
2980.271 1.0435 1.0932 1.1752 1.179 1.1388 1.2297 1.4372 1.706 1.776 1.646
2999.561 1.3613 1.4525 1.756 1.886 2.076 2.236 1.776 1.736 2.126 2.006
3018.850 1.866 1.906 1.906 1.616 1.4269 1.606 1.746 1.936 1.996 1.596
3038.140 1.3486 1.3518 1.3158 1.2675 1.846 2.146 1.966 2.196 2.496 2.876
3057.430 3.276 3.526 4.026 4.736 5.406 6.166 6.766 7.176 7.276 7.026
3076.720 7.146 7.326 6.766 5.966 4.996 4.356 4.156 3.666 3.216 2.876
3096.009 2.696 2.566 2.506 2.586 2.596 2.336 2.036 2.096 2.046 1.896
3115.299 2.206 2.326 2.086 1.786 1.536 1.536 1.3788 1.3943 1.526 1.5241
3134.589 1.616 1.576 1.4421 1.3787 1.646 1.826 1.4717 1.4355 1.2733 0.7201
3153.879 0.9373 1.1111 1.1191 1.0785 0.7632 0.831 0.6925 0.8784 1.1027 0.7487
3173.169 0.60827 0.6661 0.6497 0.8728 0.6514 0.414 0.696 0.6414 0.55666 0.9292
3192.458 1.1425 1.1156 1.0961 0.9818 0.9638 0.8364 1.0451 1.3985 1.2349 0.9067
3211.748 0.5021 0.52118 1.0491 1.2822 1.2828 1.0834 1.1157 1.0375 0.9692 1.3542
3231.038 1.1975 0.6722 0.51936 0.6692 0.9127 1.0846 0.8727 0.8225 0.9784 1.2141
3250.328 1.1653 0.8936 0.57382 0.361 0.52341 0.58736 0.8375 0.9133 0.9605 1.24
3269.617 0.849 0.663 1.0098 1.0162 0.9356 0.9875 1.2213 0.9764 0.7013 0.7677
3288.907 0.7137 0.6827 0.6435 0.7234 0.7009 0.58733 0.53651 0.8261 0.8167 0.7355
3308.197 1.0066 0.9037 0.8289 0.9183 0.56641 0.4652 0.7581 0.7027 0.54826 0.58038
3327.487 0.9392 0.79 0.6367 0.7289 0.635 0.7646 1.0129 0.9183 0.8182 0.59846
3346.777 0.348 0.9478 1.3105 1.033 0.9441 0.837 0.6487 0.8892 0.9659 1.0274
3366.066 1.2861 1.3397 1.0823 1.0217 1.2815 0.9755 0.842 1.0441 1.0555 1.0803
3385.356 0.9244 1.2461 1.556 1.796 2.436 2.686 2.636 2.976 3.446 3.766
3404.646 4.256 4.376 4.176 4.086 4.216 4.276 4.036 3.596 3.366 3.066
3423.936 2.556 2.076 1.896 1.926 1.576 1.2672 1.523 1.616 1.536 1.566
3443.225 1.3591 1.1746 1.4588 1.766 1.626 1.4409 1.4018 1.3501 1.5036 1.4025
3462.515 1.2966 1.4345 1.0938 0.7872 0.7492 0.8418 0.57227 0.404 0.7754 0.8551
3481.805 0.674 0.6679 0.525797 0.55535 0.61872 0.61874 0.54816 0.176 0.082 0.236
3501.095 0.628 0.845 0.8426 0.7759 0.6702 0.357 0.395 0.59488 0.56976 0.5064
3520.385 0.359 0.256 0.153 0.405 0.7666 0.8813 0.9759 1.1208 1.0965 0.9237
3539.674 0.7097 0.757 0.7489 0.6265 0.6948 0.6731 0.6655 0.6327 0.5718 0.6331
3558.964 0.355 0.312 0.527782 0.9124 1.1181 0.6551 0.6672 0.8152 0.4298 0.18
3578.254 0.55561 0.9872 0.769 0.4952 0.41 0.61549 0.9863 1.0451 0.51 0.053
3597.544 0.311 0.439 0.405 0.339 0.409 0.4462 0.158 0.106 0.242 0.381
3616.833 0.409 0.173 0.101 0.297 0.4771 0.6583 0.9554 0.9085 0.7345 0.54765
3636.123 0.192 0.329 0.361 0.25 0.17 0.201 0.317 0.378 0.4828 0.4909
3655.413 0.54891 0.7996 0.8794 1.2519 1.2527 0.4293 0.203 0.241 0.223 0.56237
3674.703 0.58244 0.346 0.59435 0.663 0.4587 0.39 0.56095 0.59862 0.6326 0.60957
3693.993 0.381 0.302 0.60637 0.8078 0.9535 0.9532 0.8875 1.0157 0.9962 0.8875
3713.282 1.2163 1.4167 0.9445 0.56051 0.6281 0.8868 1.0187 0.8629 0.739 0.659
3732.572 0.279 0.128 0.4472 0.4272 0.306 0.62318 0.4962 0.243 0.297 0.359
3751.862 0.263 0.7315 1.085 1.0285 1.0787 0.641 0.6796 0.9334 0.5215 0.372
3771.152 0.7325 0.55309 0.23 0.55629 0.7831 0.885 0.8679 0.60643 0.7237 0.8766
3790.441 0.7529 0.7088 0.704 0.7333 0.6893 0.365 0.264 0.6494 0.7052 0.57822
3809.731 0.364 0.5121 1.0532 0.8305 0.6711 0.733 0.58739 0.6395 0.9184 0.9
3829.021 0.8454 0.891 0.7166 0.59648 0.7379 0.5063 0.127 0.4564 0.6633 0.57745
3848.311 0.55701 0.59194 0.8519 0.7771 0.6413 0.804 0.7835 0.6601 0.4763 0.6419
3867.601 0.9 1.067 0.7671 0.4971 0.7903 0.8038 0.9473 0.7571 0.4598 0.53785
3886.890 0.4414 0.59909 0.9073 0.4866 0 0.177 0.034 0.371 0.8246 0.4835
3906.180 0.55097 0.8814 1.0953 1.2157 0.8861 0.534239 0.51626 0.4356 0.292 0.7281
3925.470 1.1753 0.7636 0.389 0.34 0.338 0.7759 0.9413 0.7383 0.8275 0.8702
3944.760 0.7835 0.6645 0.371 0.736 1.0247 0.7587 0.8744 0.929 0.812 0.7173
3964.049 0.8155 0.8286 0.35 0.423 0.5923 0.314 0.5069 0.62172 0.4656 0.54245
3983.339 0.734 0.399 0.238 0.55579 0.61407 0.387 0.378 0.4373 0.61423 0.60323
##END=
