##TITLE=1,2,3-Triphenylcyclopropene
##JCAMP-DX=4.24
##DATA TYPE=INFRARED SPECTRUM
##ORIGIN=EPA-IR VAPOR PHASE LIBRARY
##OWNER=SRD/NIST
Collection (C) 2018 copyright by the U.S. Secretary of Commerce
on behalf of the United States of America. All rights reserved.
##CAS REGISTRY NO=16510-49-9
##MOLFORM=C 21 H 16
##$NIST SOURCE=MSDC-IR
##STATE=gas
##XUNITS=1/CM
##YUNITS=ABSORBANCE
##XFACTOR=1.
##YFACTOR=0.001
##DELTAX=1.929
##FIRSTX=549.8
##LASTX=4000.8
##FIRSTY=3.092
##MAXX=4000.75
##MINX=549.766
##MAXY=0.031632
##MINY=0
##NPOINTS=1790
##XYDATA=(X++(Y..Y))
549.766 3.092 3.192 2.922 2.852 2.702 2.552 2.352 1.992 1.5819 1.4189
569.056 1.54 1.3713 1.4731 1.6309 1.802 2.372 2.942 3.562 4.082 4.152
588.346 4.072 4.122 3.982 3.582 3.182 3.022 3.512 3.842 3.862 3.902
607.636 3.672 3.232 2.492 2.012 2.042 1.962 1.6475 1.5161 1.4743 1.3652
626.926 1.4113 1.6373 1.4709 1.2364 1.4601 1.5826 1.6236 1.6572 1.762 1.902
646.216 2.052 2.432 2.582 2.942 3.412 3.702 4.012 4.302 4.732 4.932
665.506 5.062 5.332 5.822 6.232 6.402 6.572 6.992 8.032 9.582 11.662
684.796 14.302 17.162 19.572 21.542 23.372 24.372 24.332 23.122 20.702 17.542
704.086 14.192 11.622 9.882 8.652 7.952 7.722 8.032 8.492 9.372 10.542
723.376 11.032 11.262 11.822 12.212 11.742 10.772 10.372 10.642 11.702 13.492
742.666 15.532 17.922 20.522 22.932 25.022 26.162 26.462 25.942 23.752 20.432
761.956 17.302 14.602 12.252 10.502 9.092 7.582 6.302 5.312 4.562 4.062
781.246 3.722 3.372 3.062 3.002 3.062 3.002 2.792 2.692 2.672 2.602
800.536 2.592 2.512 2.462 2.472 2.562 2.182 1.962 2.272 2.022 1.762
819.826 1.5598 1.4093 1.4392 1.4337 1.4515 1.4902 1.5468 1.5511 1.4282 1.431
839.116 1.4685 1.4061 1.522 1.702 1.782 1.852 1.902 1.832 1.682 1.5133
858.406 1.42 1.247 1.1596 1.267 1.4639 1.862 2.332 2.852 3.442 4.012
877.696 4.162 3.892 3.522 3.012 2.412 1.882 1.722 1.5381 1.3285 1.3094
896.986 1.3701 1.5147 1.712 1.992 2.172 2.212 2.372 2.482 2.392 2.312
916.276 2.102 1.822 1.6471 1.5992 1.5949 1.6177 1.752 1.912 2.042 1.992
935.566 2.022 2.162 2.092 1.952 1.832 1.662 1.5038 1.3349 1.2157 1.2214
954.856 1.1428 1.0679 1.0478 1.0099 1.0411 1.0311 1.0289 1.0139 0.9825 1.03
974.146 0.9793 1.0118 1.112 1.1061 1.1411 1.2004 1.2772 1.2814 1.246 1.2798
993.436 1.4167 1.5872 1.752 1.932 2.172 2.482 2.922 3.572 4.372 5.252
1012.726 5.902 6.162 6.012 5.582 5.192 4.962 4.942 4.902 4.732 4.462
1032.016 4.022 3.492 2.962 2.382 1.912 1.6607 1.5852 1.582 1.6048 1.5093
1051.306 1.5824 1.862 2.032 2.102 2.272 2.522 2.652 2.822 3.002 3.172
1070.596 3.122 2.962 2.742 2.392 2.062 1.742 1.508 1.3259 1.2113 1.1412
1089.886 1.1404 1.2156 1.2227 1.2221 1.2926 1.3997 1.3697 1.2 1.1003 1.0423
1109.176 0.9728 0.8342 0.73503 0.70692 0.70523 0.68055 0.6366 0.69296 0.70841 0.69198
1128.467 0.776 0.7726 0.7207 0.74018 0.7653 0.669901 0.68365 0.7955 0.8684 1.0631
1147.757 1.345 1.5609 1.6156 1.6472 1.5901 1.4354 1.2249 1.0778 1.1533 1.3187
1167.047 1.4511 1.5775 1.752 1.952 2.112 2.262 2.232 1.982 1.882 1.842
1186.337 1.5822 1.2808 1.1265 1.0279 0.9843 0.9722 0.9724 1.0116 0.9381 1.098
1205.627 1.3266 1.4137 1.4774 1.5193 1.5384 1.4912 1.4158 1.423 1.4298 1.3522
1224.917 1.3882 1.3754 1.4643 1.5678 1.712 1.772 1.692 1.742 1.812 1.752
1244.207 1.5691 1.4252 1.3384 1.2506 1.0946 0.9125 0.8612 0.9443 0.9176 0.8489
1263.497 0.9296 1.0026 1.0199 0.9999 0.9898 1.0685 1.1432 1.1976 1.215 1.2025
1282.787 1.2048 1.2103 1.2693 1.4016 1.5297 1.6369 1.692 1.672 1.6231 1.5345
1302.077 1.4188 1.3251 1.2389 1.2189 1.2535 1.2572 1.2556 1.3705 1.4748 1.4959
1321.367 1.5412 1.5441 1.5453 1.4757 1.3481 1.3265 1.4065 1.4542 1.5206 1.672
1340.657 1.732 1.752 1.852 1.912 1.962 1.982 1.812 1.6535 1.5387 1.3946
1359.947 1.1999 1.0431 1.0544 1.0715 1.0454 1.0692 1.1661 1.2002 1.186 1.2213
1379.237 1.1827 1.1033 1.0973 1.1406 1.1703 1.1802 1.29 1.4528 1.5821 1.692
1398.527 1.752 1.712 1.5922 1.4315 1.2563 1.1335 1.0226 0.9242 0.9739 1.0617
1417.817 1.0991 1.1474 1.1731 1.2167 1.2632 1.3383 1.4835 1.6419 1.902 2.272
1437.107 2.852 3.512 4.262 5.142 5.962 6.572 6.932 7.132 7.222 7.192
1456.397 7.172 7.312 7.422 7.332 7.012 6.442 5.652 4.832 4.102 3.622
1475.687 3.462 3.692 4.242 5.192 6.512 8.002 9.532 10.872 11.842 12.112
1494.977 11.552 10.332 8.642 6.772 5.122 3.942 3.072 2.402 1.992 1.762
1514.267 1.6043 1.4784 1.3987 1.3565 1.3393 1.2693 1.2234 1.2325 1.1782 1.1212
1533.557 1.0963 1.0787 1.0978 1.1211 1.1329 1.0398 0.9143 0.8957 0.8866 0.8835
1552.847 0.9569 1.001 1.049 1.1545 1.2426 1.2847 1.3851 1.5125 1.6376 1.802
1572.137 1.962 2.172 2.462 2.672 2.952 3.352 3.752 4.292 4.952 5.722
1591.427 6.562 7.292 7.912 8.422 8.702 8.652 8.272 7.652 6.712 5.592
1610.717 4.542 3.622 2.922 2.292 1.852 1.6008 1.3562 1.1609 1.0069 0.9129
1630.007 0.8792 0.8999 0.8717 0.8061 0.7945 0.7713 0.70807 0.71935 0.8102 0.9578
1649.297 1.029 1.0497 1.1263 1.1437 1.2023 1.2881 1.3184 1.3326 1.3258 1.2605
1668.587 1.143 1.1364 1.1481 1.0796 1.0247 0.9627 0.9385 0.8897 0.8339 0.75926
1687.877 0.75027 0.8177 0.8022 0.7887 0.8004 0.8298 0.8708 0.8771 0.8537 0.836
1707.167 0.8095 0.7779 0.7935 0.834 0.8747 0.8852 0.8534 0.8719 0.8884 0.8992
1726.457 0.9707 1.0616 1.1682 1.1893 1.1411 1.1201 1.1328 1.1757 1.1467 1.1084
1745.747 1.0782 1.0981 1.1054 1.0465 1.0342 1.0311 1.0396 0.9578 0.8692 0.9208
1765.037 0.9519 0.922 0.9922 1.0763 1.0917 1.1186 1.2245 1.3756 1.4717 1.564
1784.327 1.742 1.952 2.082 2.192 2.272 2.242 2.182 2.142 2.032 1.922
1803.617 1.892 1.942 2.002 2.112 2.272 2.362 2.462 2.502 2.462 2.382
1822.907 2.382 2.422 2.362 2.242 2.162 2.032 1.882 1.742 1.4979 1.2878
1842.197 1.2181 1.1697 1.0565 0.9928 0.9858 1.0157 1.0548 1.1111 1.149 1.2231
1861.487 1.377 1.4665 1.4908 1.5198 1.5556 1.614 1.682 1.662 1.5834 1.5828
1880.777 1.626 1.6249 1.5764 1.497 1.4562 1.4355 1.3244 1.2003 1.154 1.1363
1900.067 1.138 1.0213 0.9276 0.9206 0.8548 0.8006 0.7995 0.7923 0.7726 0.7887
1919.357 0.853 0.9374 1.0374 1.242 1.493 1.722 2.002 2.292 2.442 2.442
1938.647 2.362 2.232 2.042 1.852 1.732 1.692 1.722 1.752 1.722 1.6515
1957.937 1.4887 1.2248 1.0229 0.8551 0.7019 0.558 0.462 0.455 0.436 0.431
1977.227 0.398 0.385 0.384 0.357 0.342 0.301 0.28 0.338 0.352 0.32
1996.517 0.291 0.262 0.31 0.278 0.209 0.243 0.288 0.27 0.262 0.292
2015.807 0.29 0.346 0.355 0.29 0.257 0.267 0.256 0.262 0.27 0.228
2035.097 0.244 0.23 0.264 0.276 0.239 0.28 0.288 0.276 0.242 0.21
2054.387 0.248 0.274 0.263 0.262 0.265 0.264 0.291 0.295 0.29 0.267
2073.677 0.228 0.246 0.243 0.198 0.176 0.196 0.193 0.162 0.18 0.213
2092.967 0.258 0.227 0.166 0.224 0.194 0.129 0.2 0.221 0.24 0.252
2112.257 0.226 0.242 0.238 0.263 0.196 0.175 0.178 0.167 0.22 0.194
2131.547 0.188 0.212 0.215 0.234 0.229 0.18 0.16 0.156 0.219 0.242
2150.837 0.171 0.171 0.241 0.287 0.303 0.301 0.281 0.269 0.265 0.26
2170.127 0.289 0.283 0.226 0.3 0.378 0.282 0.233 0.268 0.238 0.215
2189.417 0.202 0.206 0.225 0.219 0.21 0.257 0.281 0.272 0.318 0.307
2208.707 0.241 0.205 0.171 0.221 0.282 0.253 0.241 0.201 0.179 0.249
2227.997 0.32 0.31 0.261 0.296 0.322 0.324 0.333 0.377 0.384 0.384
2247.287 0.349 0.263 0.317 0.341 0.286 0.332 0.396 0.354 0.273 0.232
2266.577 0.244 0.244 0.259 0.331 0.365 0.345 0.352 0.315 0.294 0.271
2285.868 0.22 0.286 0.283 0.204 0.208 0.335 0.41 0.39 0.398 0.374
2305.158 0.427 0.51 0.5854 0.6326 0.587 0.5801 0.6373 0.6511 0.5913 0.491
2324.448 0.456 0.471 0.509 0.571 0.573 0.546 0.54 0.526 0.497 0.544
2343.738 0.556 0.473 0.433 0.445 0.442 0.449 0.462 0.424 0.433 0.45
2363.028 0.479 0.485 0.451 0.446 0.393 0.345 0.339 0.343 0.351 0.353
2382.318 0.38 0.332 0.26 0.237 0.253 0.34 0.312 0.283 0.367 0.317
2401.608 0.255 0.276 0.268 0.29 0.315 0.339 0.32 0.29 0.337 0.367
2420.898 0.323 0.308 0.329 0.345 0.408 0.403 0.348 0.345 0.311 0.242
2440.188 0.252 0.284 0.277 0.256 0.323 0.421 0.387 0.303 0.335 0.278
2459.478 0.218 0.302 0.336 0.337 0.337 0.355 0.309 0.295 0.288 0.253
2478.768 0.37 0.362 0.278 0.301 0.346 0.349 0.329 0.309 0.249 0.298
2498.058 0.342 0.303 0.358 0.413 0.356 0.332 0.323 0.39 0.403 0.363
2517.348 0.429 0.404 0.33 0.309 0.289 0.295 0.315 0.293 0.305 0.31
2536.638 0.306 0.339 0.33 0.31 0.344 0.357 0.246 0.238 0.277 0.311
2555.928 0.405 0.497 0.531 0.394 0.314 0.359 0.346 0.32 0.373 0.369
2575.218 0.343 0.437 0.484 0.456 0.44 0.431 0.474 0.446 0.4 0.438
2594.508 0.457 0.384 0.369 0.468 0.455 0.428 0.385 0.313 0.384 0.471
2613.798 0.467 0.391 0.343 0.339 0.394 0.478 0.454 0.447 0.458 0.429
2633.088 0.393 0.389 0.361 0.322 0.319 0.235 0.216 0.286 0.271 0.262
2652.378 0.283 0.301 0.3 0.274 0.275 0.252 0.269 0.298 0.255 0.311
2671.668 0.357 0.311 0.29 0.259 0.312 0.361 0.33 0.295 0.262 0.252
2690.958 0.295 0.352 0.328 0.272 0.292 0.302 0.267 0.317 0.339 0.299
2710.248 0.29 0.274 0.33 0.331 0.327 0.389 0.328 0.317 0.327 0.312
2729.538 0.302 0.33 0.364 0.309 0.278 0.298 0.37 0.373 0.347 0.398
2748.828 0.351 0.291 0.315 0.373 0.442 0.44 0.393 0.375 0.393 0.483
2768.118 0.473 0.474 0.6005 0.6406 0.6849 0.68895 0.67836 0.70329 0.70442 0.65984
2787.408 0.666002 0.5687 0.492 0.545 0.5963 0.532 0.377 0.395 0.352 0.376
2806.698 0.561 0.5749 0.518 0.503 0.504 0.467 0.41 0.354 0.303 0.382
2825.988 0.443 0.413 0.397 0.429 0.5775 0.6286 0.52 0.476 0.462 0.467
2845.278 0.462 0.458 0.53 0.5981 0.5915 0.636 0.71855 0.71669 0.7879 0.855
2864.568 0.8501 0.8452 0.8213 0.9626 1.0785 1.2192 1.5562 1.822 1.962 2.102
2883.858 2.162 2.102 2.082 2.072 2.102 2.272 2.612 2.882 2.932 2.912
2903.148 2.942 2.962 2.882 3.012 3.392 3.872 4.502 4.822 4.832 4.752
2922.438 4.712 4.472 4.002 3.512 2.972 2.532 2.232 1.952 1.6563 1.4571
2941.728 1.4046 1.355 1.2187 1.0594 1.125 1.2138 0.9776 0.8784 1.0439 1.0368
2961.018 0.9568 0.9758 1.0217 1.014 0.936 0.9354 0.9452 0.8265 0.815 0.9653
2980.308 1.0368 1.027 0.9716 1.0558 1.2228 1.3856 1.4528 1.5482 1.772 1.982
2999.598 2.212 2.442 2.702 2.982 3.312 3.772 4.342 5.092 6.102 7.232
3018.888 8.542 10.062 11.512 12.802 14.022 15.022 15.532 15.412 14.812 13.882
3038.178 12.852 11.842 10.862 10.222 10.052 10.172 10.612 11.492 12.752 14.462
3057.468 16.682 19.342 22.592 26.112 29.032 30.952 31.632 30.812 28.752 26.042
3076.758 23.092 20.722 18.952 17.432 16.082 14.562 12.842 11.252 9.692 8.312
3096.048 7.392 6.652 6.072 5.572 5.112 4.682 4.272 3.802 3.262 2.762
3115.338 2.332 2.052 1.952 1.822 1.597 1.3089 1.2649 1.3246 1.2282 1.1941
3134.628 1.1998 1.0971 0.9294 0.9478 0.9686 0.944 0.9814 1.0172 1.125 1.1414
3153.918 1.0521 0.943 0.7991 0.68326 0.6203 0.556 0.488 0.578 0.6251 0.6068
3173.208 0.663569 0.70733 0.67433 0.5631 0.469 0.52 0.508 0.362 0.473 0.69994
3192.498 0.6366 0.6164 0.665616 0.471 0.462 0.49 0.513 0.516 0.423 0.407
3211.788 0.46 0.468 0.45 0.471 0.356 0.249 0.329 0.341 0.24 0.235
3231.078 0.302 0.259 0.319 0.391 0.363 0.46 0.33 0.158 0.167 0.359
3250.368 0.44 0.331 0.332 0.391 0.418 0.395 0.413 0.383 0.359 0.322
3269.658 0.334 0.448 0.503 0.495 0.393 0.254 0.293 0.283 0.352 0.404
3288.948 0.33 0.321 0.342 0.389 0.371 0.381 0.447 0.471 0.486 0.428
3308.238 0.381 0.453 0.433 0.41 0.473 0.463 0.453 0.414 0.284 0.335
3327.528 0.41 0.376 0.243 0.307 0.358 0.274 0.282 0.294 0.353 0.29
3346.818 0.265 0.346 0.394 0.38 0.313 0.289 0.404 0.403 0.278 0.256
3366.108 0.327 0.336 0.307 0.394 0.269 0.197 0.221 0.247 0.481 0.5661
3385.398 0.417 0.237 0.326 0.34 0.219 0.324 0.362 0.385 0.269 0.011
3404.688 0.1 0.24 0.188 0.273 0.231 0.209 0.27 0.289 0.435 0.473
3423.978 0.417 0.352 0.265 0.252 0.335 0.359 0.398 0.381 0.208 0.138
3443.269 0.319 0.389 0.458 0.562 0.448 0.322 0.444 0.545 0.433 0.268
3462.559 0.277 0.452 0.332 0.288 0.246 0.305 0.447 0.331 0.368 0.466
3481.849 0.381 0.308 0.377 0.351 0.36 0.388 0.464 0.5733 0.395 0.24
3501.139 0.237 0.114 0.12 0.22 0.286 0.334 0.321 0.283 0.099 0.194
3520.429 0.409 0.422 0.354 0.401 0.37 0.2 0.178 0.318 0.383 0.128
3539.719 0 0.182 0.295 0.351 0.277 0.085 0.14 0.16 0.137 0.336
3559.009 0.331 0.219 0.277 0.349 0.437 0.329 0.281 0.331 0.242 0.297
3578.299 0.328 0.283 0.341 0.444 0.5814 0.5716 0.306 0.191 0.338 0.362
3597.589 0.302 0.247 0.189 0.286 0.381 0.351 0.37 0.485 0.527 0.395
3616.879 0.158 0.185 0.319 0.396 0.537 0.531 0.487 0.531 0.5842 0.309
3636.169 0.248 0.549 0.481 0.389 0.446 0.396 0.38 0.43 0.476 0.545
3655.459 0.557 0.426 0.439 0.459 0.392 0.407 0.449 0.433 0.323 0.317
3674.749 0.381 0.334 0.401 0.549 0.525 0.428 0.405 0.407 0.403 0.484
3694.039 0.438 0.402 0.432 0.489 0.479 0.344 0.469 0.509 0.382 0.371
3713.329 0.442 0.508 0.424 0.492 0.482 0.298 0.379 0.529 0.5779 0.6444
3732.619 0.6346 0.416 0.357 0.36 0.274 0.435 0.36 0.194 0.44 0.5645
3751.909 0.37 0.349 0.522 0.51 0.554 0.493 0.315 0.487 0.452 0.293
3771.199 0.357 0.347 0.243 0.325 0.446 0.45 0.466 0.389 0.351 0.302
3790.489 0.353 0.507 0.456 0.47 0.415 0.437 0.484 0.547 0.67823 0.443
3809.779 0.339 0.442 0.454 0.511 0.504 0.481 0.6055 0.67723 0.6254 0.5989
3829.069 0.427 0.236 0.4 0.46 0.24 0.306 0.476 0.451 0.385 0.288
3848.359 0.44 0.525 0.428 0.467 0.403 0.33 0.394 0.466 0.527 0.437
3867.649 0.431 0.384 0.3 0.447 0.554 0.532 0.505 0.479 0.26 0.358
3886.939 0.72692 0.634 0.463 0.43 0.406 0.382 0.386 0.503 0.5794 0.671233
3906.229 0.453 0.251 0.373 0.424 0.378 0.411 0.425 0.369 0.46 0.467
3925.519 0.432 0.459 0.424 0.528 0.597 0.507 0.443 0.45 0.446 0.499
3944.809 0.526 0.345 0.178 0.206 0.338 0.42 0.375 0.442 0.463 0.506
3964.099 0.5714 0.486 0.504 0.353 0.364 0.438 0.358 0.5 0.5761 0.529
3983.389 0.426 0.466 0.557 0.5626 0.558 0.44 0.489 0.6142 0.611 0.402
##END=
