##TITLE=4-Phenyl-1-butyne
##JCAMP-DX=4.24
##DATA TYPE=INFRARED SPECTRUM
##ORIGIN=EPA-IR VAPOR PHASE LIBRARY
##OWNER=SRD/NIST
Collection (C) 2018 copyright by the U.S. Secretary of Commerce
on behalf of the United States of America. All rights reserved.
##CAS REGISTRY NO=16520-62-0
##MOLFORM=C 10 H 10
##$NIST SOURCE=MSDC-IR
##STATE=gas
##XUNITS=1/CM
##YUNITS=ABSORBANCE
##XFACTOR=1.
##YFACTOR=0.001
##DELTAX=1.92934
##FIRSTX=549.9
##LASTX=3999.5
##FIRSTY=2.174
##MAXX=3999.53
##MINX=549.863
##MAXY=0.115774
##MINY=0
##NPOINTS=1789
##XYDATA=(X++(Y..Y))
549.863 2.174 2.404 2.504 2.544 2.944 3.544 4.214 4.894 5.494 5.974
569.156 6.554 7.184 7.644 7.974 8.224 8.214 8.034 7.794 7.374 6.854
588.450 6.424 5.974 5.614 5.424 5.324 5.144 5.204 5.634 6.164 6.984
607.743 8.094 9.664 11.774 14.554 18.154 22.244 26.534 31.904 38.534 46.644
627.037 57.244 67.284 82.544 105.084 115.774 107.564 93.484 81.244 70.004 59.194
646.330 49.634 42.084 35.384 28.824 23.184 18.944 15.934 13.644 12.004 10.924
665.624 10.404 10.254 10.344 10.794 11.564 12.674 14.024 15.564 17.354 19.334
684.917 21.554 23.874 26.264 28.734 31.194 33.764 34.804 33.594 32.214 31.054
704.210 29.554 27.794 26.034 24.394 22.864 21.494 20.354 19.494 18.894 18.624
723.504 18.564 18.754 19.174 19.784 20.554 21.394 22.124 22.654 22.964 23.064
742.797 22.744 21.974 20.834 19.344 17.714 15.994 14.314 12.704 11.244 9.924
762.091 8.724 7.624 6.624 5.764 4.954 4.394 3.924 3.454 3.074 2.764
781.384 2.444 2.254 2.144 1.914 1.794 1.774 1.724 1.634 1.5755 1.5693
800.678 1.5658 1.5297 1.4519 1.4041 1.4273 1.4632 1.4081 1.4097 1.3908 1.2739
819.971 1.2495 1.1707 1.0469 1.0243 1.0181 1.0127 1.0041 0.9358 0.894 0.8568
839.264 0.804 0.7934 0.7645 0.7171 0.69887 0.7387 0.7535 0.771 0.8216 0.8328
858.558 0.8643 0.8098 0.8156 0.9045 0.9362 0.9724 0.9447 0.9344 0.9579 0.9386
877.851 1.0119 1.1175 1.1541 1.1948 1.2537 1.2846 1.3325 1.3715 1.3905 1.4571
897.145 1.4758 1.4666 1.4476 1.3984 1.3856 1.3071 1.1899 1.1824 1.1557 1.1063
916.438 1.0964 1.1494 1.239 1.273 1.2534 1.2168 1.2219 1.2694 1.2575 1.2007
935.732 1.1828 1.1492 1.1356 1.1707 1.1943 1.1273 1.0848 1.0738 1.0237 1.0408
955.025 1.1148 1.1774 1.1668 1.1587 1.1788 1.1492 1.1199 1.1533 1.1845 1.1997
974.318 1.2045 1.2762 1.3563 1.3435 1.3473 1.3847 1.4268 1.4319 1.4082 1.4565
993.612 1.5354 1.5451 1.5651 1.634 1.674 1.734 1.814 1.924 1.994 2.084
1012.905 2.294 2.534 2.874 3.344 3.854 4.354 4.814 5.134 5.124 4.904
1032.199 4.624 4.314 4.064 3.634 2.964 2.384 1.944 1.634 1.5345 1.5996
1051.492 1.634 1.804 2.084 2.314 2.594 2.904 3.244 3.594 3.874 4.044
1070.786 4.074 4.034 4.064 4.034 3.924 3.784 3.544 3.264 3.024 2.724
1090.079 2.414 2.134 1.994 1.794 1.624 1.5426 1.4284 1.3672 1.2508 1.112
1109.372 1.0774 1.0847 1.142 1.0644 0.8594 0.7581 0.69508 0.5938 0.53 0.5406
1128.666 0.471 0.366 0.344 0.313 0.378 0.384 0.345 0.519 0.5633 0.60438
1147.959 0.5167 0.407 0.398 0.34 0.341 0.474 0.5278 0.5321 0.65697 0.6873
1167.253 0.70258 0.7279 0.7547 0.7372 0.8022 0.8496 0.8567 0.8776 0.8695 1.0402
1186.546 1.1977 1.3336 1.4604 1.5236 1.684 1.714 1.664 1.694 1.5732 1.455
1205.840 1.5654 1.654 1.844 1.854 1.764 1.904 2.124 2.474 2.734 3.264
1225.133 3.934 4.594 5.284 5.874 7.024 8.674 10.654 12.884 15.154 17.724
1244.426 20.504 23.074 25.114 26.484 26.954 26.524 25.694 24.514 22.434 19.484
1263.720 16.294 13.204 10.614 8.674 7.194 6.004 5.184 4.614 4.094 3.794
1283.013 3.604 3.394 3.144 3.034 2.924 2.784 2.804 2.734 2.664 2.754
1302.307 2.774 2.824 2.934 3.044 3.114 3.174 3.224 3.364 3.564 3.704
1321.600 3.914 4.164 4.404 4.734 5.094 5.454 5.824 6.084 6.174 6.124
1340.894 5.964 5.694 5.314 4.914 4.464 3.944 3.384 2.844 2.414 2.084
1360.187 1.854 1.704 1.536 1.4429 1.4526 1.4171 1.3691 1.379 1.406 1.4307
1379.480 1.4054 1.367 1.3482 1.3692 1.3777 1.3689 1.3558 1.3182 1.3555 1.3612
1398.774 1.4216 1.5235 1.5535 1.634 1.734 1.844 2.004 2.194 2.444 2.744
1418.067 3.054 3.454 3.944 4.614 5.444 6.364 7.364 8.344 9.284 10.064
1437.361 10.684 11.264 11.734 12.084 12.244 12.184 11.934 11.544 11.024 10.544
1456.654 10.194 9.694 9.044 8.334 7.564 6.854 6.234 5.684 5.274 5.114
1475.948 5.064 5.154 5.464 6.024 6.934 8.164 9.604 11.164 12.524 13.434
1495.241 13.924 13.974 13.644 13.134 12.444 11.144 9.154 6.984 5.164 3.894
1514.534 3.144 2.704 2.384 2.144 1.994 1.904 1.824 1.754 1.704 1.664
1533.828 1.614 1.5849 1.5643 1.5464 1.4906 1.4336 1.4418 1.4304 1.4086 1.3486
1553.121 1.3286 1.3531 1.4028 1.4219 1.4244 1.5014 1.5942 1.674 1.814 1.954
1572.415 2.074 2.304 2.584 2.894 3.204 3.524 3.874 4.244 4.674 5.104
1591.708 5.494 5.954 6.444 6.924 7.274 7.384 7.344 7.144 6.764 6.274
1611.002 5.754 5.064 4.344 3.634 2.954 2.434 2.124 1.924 1.774 1.624
1630.295 1.533 1.4824 1.4377 1.3768 1.3219 1.2821 1.2117 1.1459 1.0373 0.989
1649.588 1.0078 0.9768 0.9085 0.9183 0.8981 0.8756 0.8822 0.8365 0.8033 0.7728
1668.882 0.7889 0.781 0.7085 0.70659 0.7334 0.7447 0.7171 0.7173 0.7566 0.70291
1688.175 0.71387 0.7623 0.7409 0.7572 0.7919 0.789 0.7292 0.751 0.8138 0.8357
1707.469 0.8768 0.9115 0.9222 0.956 1.0447 1.0864 1.1372 1.2099 1.2231 1.2466
1726.762 1.2773 1.3152 1.3281 1.3073 1.2669 1.1859 1.1393 1.1687 1.1955 1.1763
1746.056 1.0644 0.9975 1.0252 0.9443 0.884 0.8822 0.8971 0.9556 0.9451 0.9355
1765.349 0.9902 1.0215 1.0673 1.1526 1.201 1.3061 1.4825 1.654 1.824 2.004
1784.642 2.204 2.414 2.644 2.824 2.914 2.944 2.854 2.744 2.594 2.384
1803.936 2.194 1.954 1.664 1.4657 1.3753 1.2256 1.1232 1.0901 1.0903 1.1077
1823.229 1.0553 1.0137 0.9985 0.9895 1.0153 1.0837 1.1378 1.1752 1.2299 1.2885
1842.523 1.3847 1.471 1.523 1.6 1.674 1.794 1.904 1.934 2.004 2.034
1861.816 2.094 2.164 2.194 2.234 2.194 2.134 2.064 1.984 1.874 1.724
1881.110 1.5783 1.4581 1.2982 1.187 1.1486 1.0388 0.9584 0.9319 0.907 0.9009
1900.403 0.8862 0.8947 0.8936 0.901 0.9703 1.0388 1.1105 1.2359 1.3112 1.3645
1919.696 1.4645 1.6132 1.764 1.894 2.014 2.104 2.204 2.274 2.344 2.444
1938.990 2.534 2.624 2.684 2.744 2.734 2.654 2.564 2.414 2.274 2.164
1958.283 1.994 1.724 1.4601 1.2585 1.0522 0.8862 0.8108 0.7249 0.63221 0.6006
1977.577 0.603 0.64416 0.65171 0.6016 0.5689 0.5642 0.5805 0.5481 0.5405 0.5783
1996.870 0.5799 0.6012 0.60563 0.5698 0.5555 0.5824 0.61175 0.623442 0.60634 0.618235
2016.164 0.60739 0.6108 0.65845 0.64656 0.594 0.60527 0.63724 0.62477 0.63538 0.62434
2035.457 0.63409 0.67695 0.69001 0.71007 0.7064 0.66939 0.65454 0.67927 0.67099 0.63392
2054.750 0.63418 0.63373 0.615334 0.63662 0.66462 0.618677 0.658 0.7264 0.71024 0.69618
2074.044 0.71032 0.7385 0.7742 0.8148 0.8246 0.8463 0.9557 1.0663 1.1368 1.2926
2093.337 1.4566 1.5813 1.784 2.054 2.344 2.654 2.944 3.254 3.614 3.994
2112.631 4.364 4.674 4.924 5.034 4.994 4.864 4.594 4.214 3.804 3.354
2131.924 2.884 2.424 1.964 1.553 1.3473 1.2537 1.1241 1.0142 0.9806 0.9414
2151.218 0.9041 0.8828 0.8656 0.8444 0.8648 0.8806 0.8281 0.8323 0.7991 0.742
2170.511 0.69008 0.68378 0.70753 0.68528 0.6511 0.619034 0.66179 0.68885 0.64634 0.5901
2189.804 0.5986 0.62757 0.5901 0.5359 0.51 0.5477 0.58 0.5484 0.5199 0.5307
2209.098 0.5367 0.5596 0.5549 0.5479 0.5605 0.5257 0.525 0.5338 0.5229 0.504
2228.391 0.5238 0.5314 0.527 0.5565 0.5859 0.5922 0.5562 0.5847 0.5769 0.5335
2247.685 0.5391 0.5541 0.5795 0.5916 0.5915 0.5964 0.5914 0.5912 0.63014 0.63178
2266.978 0.62884 0.65044 0.61232 0.5943 0.616214 0.621528 0.5995 0.5555 0.60495 0.60915
2286.272 0.5725 0.6019 0.5955 0.5998 0.594 0.5962 0.64244 0.65492 0.63991 0.67794
2305.565 0.7328 0.7588 0.7845 0.8036 0.806 0.7816 0.8246 0.8538 0.7929 0.7624
2324.858 0.7788 0.798 0.7916 0.791 0.8015 0.8112 0.8217 0.8245 0.8048 0.7737
2344.152 0.799 0.8408 0.8244 0.7531 0.7144 0.726 0.71037 0.69868 0.66391 0.63673
2363.445 0.64987 0.64277 0.65121 0.67469 0.66057 0.66338 0.66407 0.63134 0.65339 0.67901
2382.739 0.65525 0.64614 0.66873 0.63609 0.5964 0.60438 0.5673 0.5288 0.5417 0.5721
2402.032 0.5557 0.5489 0.61189 0.62418 0.5994 0.64005 0.63003 0.65213 0.67819 0.64738
2421.326 0.63041 0.64194 0.63804 0.61151 0.64921 0.68255 0.69201 0.66273 0.65183 0.6625
2440.619 0.620981 0.5922 0.62947 0.66294 0.62166 0.5729 0.5747 0.5873 0.597 0.5921
2459.912 0.593 0.5788 0.5693 0.5834 0.5943 0.563 0.5668 0.595 0.5779 0.6014
2479.206 0.5964 0.5657 0.5464 0.5301 0.5371 0.5216 0.5203 0.5339 0.5296 0.5636
2498.499 0.5609 0.5566 0.565 0.5515 0.5365 0.5472 0.5891 0.602 0.63121 0.6039
2517.793 0.5554 0.5444 0.5459 0.5313 0.502 0.499 0.493 0.5285 0.5525 0.5579
2537.086 0.5791 0.5486 0.509 0.492 0.488 0.5465 0.5722 0.5575 0.5711 0.60713
2556.380 0.62513 0.5875 0.5627 0.613706 0.66743 0.63696 0.60433 0.65097 0.7177 0.7209
2575.673 0.7349 0.7251 0.7312 0.7694 0.7834 0.82 0.8445 0.9204 0.9262 0.9034
2594.966 0.8991 0.9054 0.9127 0.8779 0.8517 0.827 0.8183 0.804 0.7944 0.8061
2614.260 0.8101 0.8069 0.8088 0.7986 0.7832 0.7954 0.8295 0.8554 0.8162 0.7933
2633.553 0.8141 0.8224 0.8379 0.864 0.8727 0.83 0.8157 0.8134 0.8153 0.854
2652.847 0.8981 0.9326 0.9284 0.9399 0.9892 1.0533 1.0994 1.1053 1.0504 1.0092
2672.140 1.0543 1.0444 0.998 1.0389 1.034 1.0104 0.9919 1.0507 1.1405 1.1707
2691.434 1.2374 1.2509 1.2123 1.204 1.0866 0.8875 0.8645 0.8588 0.8508 0.7605
2710.727 0.67181 0.70951 0.7244 0.69226 0.65382 0.66464 0.7294 0.7495 0.69695 0.65632
2730.020 0.67264 0.68594 0.64621 0.62429 0.68085 0.7463 0.7261 0.69597 0.7756 0.8071
2749.314 0.7687 0.8016 0.7876 0.7749 0.7592 0.70282 0.7887 0.8824 0.8869 0.8697
2768.607 0.849 0.8806 0.9274 0.9911 1.0411 1.057 1.1031 1.2461 1.2699 1.2264
2787.901 1.3248 1.3104 1.2286 1.2572 1.2939 1.2836 1.3074 1.3426 1.2797 1.1822
2807.194 1.1289 1.1814 1.2587 1.2962 1.2906 1.274 1.3488 1.431 1.5426 1.744
2826.488 1.814 1.964 2.214 2.344 2.434 2.644 2.994 3.354 3.724 4.074
2845.781 4.534 4.994 5.314 5.674 6.054 6.494 6.824 7.094 7.474 7.604
2865.074 7.604 7.754 7.924 7.974 7.934 7.764 7.424 7.084 6.874 6.574
2884.368 6.244 6.054 5.784 5.594 5.624 5.594 5.624 5.874 6.274 6.794
2903.661 7.334 7.984 8.874 9.824 11.064 12.534 13.974 15.474 17.084 18.704
2922.955 20.304 21.954 23.654 25.304 26.664 27.694 28.544 29.134 29.594 29.824
2942.248 29.734 29.634 29.204 28.224 26.934 25.524 24.114 22.654 21.024 19.404
2961.542 17.944 16.384 14.674 12.894 11.234 9.874 8.634 7.684 6.934 6.294
2980.835 5.794 5.224 4.834 4.614 4.394 4.344 4.384 4.454 4.614 4.884
3000.128 5.244 5.674 6.264 6.954 7.594 8.424 9.584 10.844 12.124 13.574
3019.422 15.354 17.544 19.844 22.124 24.334 26.194 27.564 28.434 28.814 28.664
3038.715 28.014 26.734 25.064 23.014 20.734 18.944 17.774 17.044 16.834 17.264
3058.009 18.274 19.764 21.614 23.484 25.144 26.354 27.054 27.444 27.374 26.914
3077.302 25.974 24.364 22.254 20.134 18.274 16.634 15.484 14.564 13.704 13.064
3096.596 12.344 11.544 10.754 9.914 9.044 8.294 7.644 6.904 6.194 5.594
3115.889 5.034 4.444 3.844 3.234 2.824 2.424 1.974 1.5836 1.3581 1.376
3135.182 1.2167 1.0335 1.0086 1.0532 0.951 0.9037 0.9834 0.9129 0.8562 0.68951
3154.476 0.5727 0.6752 0.9087 1.034 0.9067 0.7761 0.5938 0.5772 0.5908 0.492
3173.769 0.5751 0.618917 0.482 0.5 0.59 0.471 0.365 0.33 0.368 0.351
3193.063 0.295 0.343 0.442 0.401 0.268 0.272 0.359 0.49 0.47 0.361
3212.356 0.194 0.265 0.294 0.217 0.36 0.349 0.434 0.428 0.405 0.503
3231.650 0.468 0.458 0.64659 0.7245 0.67044 0.68248 0.7776 0.7769 0.8417 1.0635
3250.943 1.1298 1.1417 1.1909 1.3551 1.5906 1.724 1.834 2.084 2.284 2.424
3270.236 2.684 2.974 3.034 3.214 3.604 4.214 4.914 5.444 5.864 6.244
3289.530 6.844 7.534 8.244 9.174 10.494 12.334 14.474 16.334 17.514 18.234
3308.823 18.984 20.394 22.294 23.994 25.894 29.224 34.104 39.124 41.884 41.444
3328.117 40.254 40.354 41.154 40.154 34.454 25.684 18.014 12.774 9.694 7.924
3347.410 6.684 5.914 5.204 4.634 4.204 3.834 3.684 3.374 3.094 2.854
3366.704 2.534 2.204 2.004 1.944 1.654 1.4348 1.3453 1.335 1.2535 1.0282
3385.997 0.9651 0.8906 0.861 0.8725 0.827 0.8211 0.7378 0.7466 0.71297 0.503
3405.290 0.369 0.437 0.427 0.345 0.229 0.156 0.261 0.295 0.288 0.325
3424.584 0.418 0.43 0.219 0.111 0.129 0.237 0.415 0.401 0.402 0.327
3443.877 0.206 0.267 0.362 0.431 0.498 0.389 0.225 0.203 0.197 0.131
3463.171 0.177 0.2 0.243 0.261 0.24 0.231 0.056 0.072 0.208 0.236
3482.464 0.186 0.134 0.213 0.273 0.407 0.498 0.27 0.175 0.302 0.432
3501.758 0.403 0.25 0.225 0.263 0.242 0.303 0.293 0.197 0.189 0.145
3521.051 0.149 0.168 0.165 0.118 0.139 0.157 0.043 0.116 0.15 0.062
3540.344 0.087 0.114 0.179 0.257 0.246 0.237 0.201 0.257 0.325 0.163
3559.638 0 0.102 0.14 0.083 0.119 0.08 0.133 0.149 0.039 0.086
3578.931 0.125 0.203 0.275 0.195 0.161 0.197 0.266 0.297 0.234 0.094
3598.225 0.074 0.226 0.275 0.225 0.308 0.368 0.361 0.224 0.21 0.378
3617.518 0.315 0.205 0.289 0.27 0.271 0.299 0.327 0.5769 0.458 0.32
3636.812 0.466 0.422 0.335 0.383 0.423 0.435 0.414 0.341 0.334 0.295
3656.105 0.425 0.477 0.478 0.403 0.259 0.345 0.513 0.51 0.412 0.367
3675.398 0.245 0.347 0.479 0.417 0.457 0.471 0.327 0.311 0.299 0.264
3694.692 0.293 0.327 0.387 0.421 0.442 0.405 0.295 0.358 0.391 0.28
3713.985 0.274 0.4 0.442 0.387 0.346 0.37 0.409 0.291 0.164 0.112
3733.279 0.221 0.308 0.308 0.399 0.283 0.185 0.384 0.49 0.388 0.326
3752.572 0.413 0.497 0.46 0.32 0.41 0.504 0.498 0.5288 0.407 0.346
3771.866 0.349 0.338 0.386 0.427 0.467 0.452 0.351 0.321 0.401 0.343
3791.159 0.18 0.132 0.205 0.269 0.258 0.343 0.321 0.304 0.449 0.435
3810.452 0.394 0.418 0.435 0.46 0.5519 0.5227 0.472 0.481 0.42 0.462
3829.746 0.468 0.431 0.424 0.462 0.5182 0.5201 0.5208 0.5301 0.5329 0.486
3849.039 0.408 0.327 0.35 0.379 0.408 0.5312 0.61568 0.5369 0.428 0.388
3868.333 0.45 0.509 0.449 0.479 0.416 0.347 0.42 0.455 0.424 0.396
3887.626 0.383 0.465 0.441 0.435 0.491 0.541 0.5303 0.56 0.63147 0.5728
3906.920 0.63352 0.69342 0.63454 0.67293 0.7853 0.8097 0.7381 0.66322 0.7354 0.8181
3926.213 0.9031 0.888 0.8923 0.9548 0.9714 1.0209 1.1468 1.2857 1.3284 1.2503
3945.506 1.1298 1.0569 0.9872 0.7868 0.63954 0.70583 0.70955 0.63846 0.5821 0.513
3964.800 0.481 0.466 0.45 0.488 0.467 0.479 0.6065 0.6 0.5838 0.5562
3984.093 0.504 0.505 0.503 0.49 0.407 0.493 0.48 0.428 0.448
##END=
