##TITLE=4-Tetradecanol
##JCAMP-DX=4.24
##DATA TYPE=INFRARED SPECTRUM
##ORIGIN=NIST Mass Spectrometry Data Center
##OWNER=NIST Standard Reference Data Program
Collection (C) 2018 copyright by the U.S. Secretary of Commerce
on behalf of the United States of America. All rights reserved.
##CAS REGISTRY NO=1653-33-4
##MOLFORM=C 14 H 30 O
##$NIST SOURCE=MSDC-IR
##SPECTROMETER/DATA SYSTEM=HP-GC/MS/IRD
##STATE=gas
##XUNITS=1/CM
##YUNITS=ABSORBANCE
##XFACTOR=1.0
##YFACTOR=0.000006100
##DELTAX=4.0
##FIRSTX=550.0
##LASTX=3846.0
##FIRSTY=0.000415
##MAXX=3846
##MINX=550
##MAXY=0.061
##MINY=0
##NPOINTS=825
##XYDATA=(X++(Y..Y))
550.0 68 60 42 32 26 17 17 20 18 18
590.0 21 20 17 14 21 24 18 16 19 13
630.0 1 9 14 11 7 6 12 19 18 11
670.0 16 30 29 27 30 36 47 49 59 78
710.0 98 115 130 132 121 119 119 115 120 121
750.0 119 108 93 92 87 79 79 75 62 58
790.0 63 62 63 66 74 80 81 86 119 122
830.0 105 117 135 146 149 151 149 134 124 120
870.0 122 129 130 132 135 144 155 157 159 154
910.0 150 146 144 140 141 143 150 161 171 180
950.0 190 203 224 250 273 299 327 358 393 422
990.0 450 481 507 534 560 567 553 523 478 428
1030.0 384 354 335 323 326 338 353 366 374 387
1070.0 394 394 391 385 379 378 380 386 397 405
1110.0 418 431 437 440 440 429 400 360 314 280
1150.0 257 237 230 223 217 218 219 221 226 231
1190.0 243 254 267 283 298 310 312 313 316 315
1230.0 313 318 320 324 330 335 336 341 343 340
1270.0 332 327 320 309 303 302 299 297 294 291
1310.0 287 280 275 274 281 293 315 352 385 416
1350.0 447 469 485 502 513 524 535 547 549 526
1390.0 478 424 375 331 295 267 246 239 243 262
1430.0 295 348 412 483 567 658 752 830 855 813
1470.0 712 574 433 323 248 201 167 137 117 104
1510.0 93 83 77 71 64 59 56 52 47 46
1550.0 42 40 38 33 31 29 31 27 25 27
1590.0 22 20 23 21 18 17 15 13 16 15
1630.0 13 13 12 13 12 11 12 12 10 13
1670.0 15 13 12 14 11 10 8 8 7 5
1710.0 7 7 8 7 8 10 9 7 5 6
1750.0 7 6 5 5 6 6 6 5 4 4
1790.0 3 1 3 7 7 5 7 5 4 5
1830.0 5 4 5 7 7 7 6 6 7 7
1870.0 4 3 4 5 6 4 6 7 5 3
1910.0 2 3 3 4 7 5 4 2 3 3
1950.0 4 6 6 5 6 7 7 5 4 3
1990.0 5 5 3 5 5 7 9 9 11 15
2030.0 15 13 13 12 10 8 9 11 10 11
2070.0 8 6 7 6 5 5 5 4 3 4
2110.0 5 0 1 6 6 4 5 7 8 7
2150.0 5 5 3 2 2 2 6 8 9 11
2190.0 9 7 3 4 6 5 3 4 5 4
2230.0 5 5 7 6 4 6 5 5 6 7
2270.0 6 7 8 6 5 7 9 10 10 13
2310.0 16 13 14 13 10 12 11 6 8 13
2350.0 12 11 8 7 9 12 14 17 13 10
2390.0 13 13 13 14 13 14 15 15 13 14
2430.0 13 12 11 10 11 10 8 10 8 8
2470.0 9 8 9 10 10 10 14 17 15 15
2510.0 17 20 20 20 22 23 22 23 26 29
2550.0 26 30 34 32 33 36 40 43 46 44
2590.0 45 48 49 51 53 56 60 64 64 68
2630.0 72 75 79 81 86 91 93 93 98 105
2670.0 110 114 113 114 117 116 114 112 107 108
2710.0 111 112 113 116 119 124 131 136 140 149
2750.0 153 154 153 157 164 172 184 192 205 224
2790.0 245 260 281 308 337 369 407 454 510 581
2830.0 669 787 949 1176 1499 1958 2556 3181 3618 3730
2870.0 3588 3359 3170 3041 2903 2764 2724 2855 3157 3616
2910.0 4209 4942 5889 7124 8519 9641 10000 9476 8325 6925
2950.0 5650 4775 4380 4352 4383 4105 3411 2574 1900 1442
2990.0 1138 924 765 649 560 492 443 397 356 324
3030.0 300 278 256 237 221 206 188 171 162 151
3070.0 138 129 128 125 117 108 103 98 93 88
3110.0 83 82 78 73 70 71 70 67 66 59
3150.0 55 56 60 61 57 50 47 48 46 45
3190.0 45 42 38 42 36 29 28 24 24 20
3230.0 16 17 18 20 15 11 13 14 13 11
3270.0 9 8 10 11 12 13 15 16 14 11
3310.0 8 8 10 7 7 10 15 12 13 15
3350.0 13 9 8 14 14 9 9 12 10 11
3390.0 15 13 13 18 16 15 15 19 20 18
3430.0 20 18 18 20 18 14 17 21 18 14
3470.0 16 15 10 7 9 10 10 13 6 2
3510.0 7 7 7 9 10 7 6 11 14 10
3550.0 5 6 7 10 11 10 10 11 14 14
3590.0 12 13 17 21 33 40 48 62 72 85
3630.0 98 113 132 164 203 240 257 241 201 154
3670.0 119 92 67 54 46 36 30 25 22 24
3710.0 26 23 20 19 19 17 17 20 23 23
3750.0 20 20 24 25 24 22 19 23 26 23
3790.0 21 22 24 22 22 24 24 25 26 24
3830.0 25 30 32 31 28
##END=
