##TITLE=2-Tridecanol
##JCAMP-DX=4.24
##DATA TYPE=INFRARED SPECTRUM
##ORIGIN=NIST Mass Spectrometry Data Center
##OWNER=NIST Standard Reference Data Program
Collection (C) 2018 copyright by the U.S. Secretary of Commerce
on behalf of the United States of America. All rights reserved.
##CAS REGISTRY NO=1653-31-2
##MOLFORM=C 13 H 28 O
##$NIST SOURCE=MSDC-IR
##SPECTROMETER/DATA SYSTEM=HP-GC/MS/IRD
##STATE=gas
##XUNITS=1/CM
##YUNITS=ABSORBANCE
##XFACTOR=1.0
##YFACTOR=0.000006600
##DELTAX=4.0
##FIRSTX=550.0
##LASTX=3846.0
##FIRSTY=0.000172
##MAXX=3846
##MINX=550
##MAXY=0.066
##MINY=0
##NPOINTS=825
##XYDATA=(X++(Y..Y))
550.0 26 42 50 36 31 11 6 23 29 25
590.0 25 25 29 45 37 38 44 32 31 42
630.0 41 27 14 6 12 22 19 26 40 44
670.0 31 22 32 47 52 59 75 88 96 107
710.0 123 146 154 156 151 137 129 122 112 102
750.0 98 98 99 98 93 92 90 87 83 80
790.0 77 84 86 88 96 98 95 100 116 117
830.0 116 126 133 130 133 134 128 127 126 125
870.0 127 129 134 141 146 153 166 183 198 214
910.0 233 249 265 292 320 341 352 356 346 318
950.0 292 270 257 251 245 244 251 261 269 273
990.0 281 287 286 291 303 316 329 349 375 395
1030.0 417 435 444 452 458 458 456 464 479 491
1070.0 508 528 543 559 576 589 603 612 606 591
1110.0 572 555 544 541 544 541 522 487 441 397
1150.0 361 334 310 293 279 264 254 249 241 237
1190.0 239 239 242 250 267 278 289 307 327 350
1230.0 373 401 427 442 447 433 408 385 359 338
1270.0 323 309 297 292 291 288 288 287 292 298
1310.0 297 293 291 294 308 324 349 389 435 479
1350.0 521 550 570 590 622 664 707 743 741 693
1390.0 616 531 458 400 350 311 282 266 262 271
1430.0 296 333 390 465 551 643 732 801 819 767
1470.0 664 527 400 304 231 184 153 131 114 101
1510.0 84 73 70 64 55 51 52 54 46 38
1550.0 37 40 45 38 30 29 32 30 24 27
1590.0 26 20 20 19 19 21 21 18 18 19
1630.0 18 22 22 19 19 22 23 19 19 21
1670.0 19 17 16 17 15 13 15 18 18 16
1710.0 17 18 21 22 21 21 23 23 18 14
1750.0 11 11 9 6 6 8 8 6 8 6
1790.0 9 9 7 6 6 6 3 3 6 6
1830.0 7 7 6 7 8 7 4 3 4 4
1870.0 3 3 4 3 4 3 4 3 3 3
1910.0 3 4 5 4 3 1 1 0 0 1
1950.0 2 1 2 1 1 3 1 0 1 2
1990.0 3 1 3 3 5 8 5 8 13 13
2030.0 11 12 11 12 11 8 6 9 10 9
2070.0 9 7 6 5 6 6 4 2 3 5
2110.0 4 2 3 3 3 4 7 11 11 11
2150.0 10 7 5 6 7 8 9 10 10 11
2190.0 9 6 7 8 9 9 10 8 8 6
2230.0 10 13 12 8 9 11 10 9 9 10
2270.0 10 14 15 10 9 10 11 13 15 16
2310.0 15 14 15 12 10 14 18 17 15 16
2350.0 15 16 17 19 17 18 16 13 16 19
2390.0 18 18 17 18 18 18 20 21 19 18
2430.0 17 19 19 16 16 18 18 19 21 21
2470.0 19 19 20 20 19 19 21 21 23 26
2510.0 27 29 29 29 34 37 35 33 33 38
2550.0 41 40 39 42 46 43 45 50 53 57
2590.0 60 62 65 65 67 70 72 74 77 81
2630.0 84 89 93 96 99 103 106 110 115 119
2670.0 123 125 127 126 124 123 122 121 118 117
2710.0 117 121 126 126 129 133 136 142 147 152
2750.0 153 156 162 167 172 178 187 201 217 234
2790.0 250 271 295 318 348 381 418 465 517 579
2830.0 659 766 911 1128 1460 1939 2569 3222 3663 3734
2870.0 3507 3179 2903 2719 2596 2522 2550 2719 3034 3492
2910.0 4082 4824 5821 7145 8620 9744 10000 9305 7996 6506
2950.0 5210 4322 3862 3721 3690 3538 3181 2690 2188 1717
2990.0 1316 1020 807 665 559 474 411 365 328 291
3030.0 259 237 218 199 183 169 153 143 139 132
3070.0 124 115 112 115 114 107 102 99 94 93
3110.0 89 82 79 78 79 76 74 73 71 68
3150.0 66 68 65 59 61 60 58 58 56 58
3190.0 59 55 53 49 47 44 42 36 34 34
3230.0 31 29 29 26 24 24 22 20 24 24
3270.0 18 13 13 12 19 24 21 19 16 19
3310.0 21 19 20 17 15 20 24 22 14 9
3350.0 17 25 25 25 18 18 25 22 17 19
3390.0 23 25 23 18 20 22 23 23 26 29
3430.0 30 29 30 30 26 20 21 18 17 17
3470.0 17 17 15 18 23 20 15 12 8 7
3510.0 9 13 19 15 13 12 11 13 10 7
3550.0 7 12 11 9 9 10 15 21 17 13
3590.0 16 23 27 30 34 37 41 52 67 86
3630.0 105 122 143 175 211 244 262 252 210 164
3670.0 127 102 81 63 56 51 39 31 32 28
3710.0 32 36 30 26 25 27 23 21 25 33
3750.0 34 29 24 24 25 23 23 25 25 25
3790.0 26 28 34 41 38 32 37 43 42 34
3830.0 29 34 37 39 35
##END=
