##TITLE=2-Undecanol
##JCAMP-DX=4.24
##DATA TYPE=INFRARED SPECTRUM
##ORIGIN=NIST Mass Spectrometry Data Center
##OWNER=NIST Standard Reference Data Program
Collection (C) 2018 copyright by the U.S. Secretary of Commerce
on behalf of the United States of America. All rights reserved.
##CAS REGISTRY NO=1653-30-1
##MOLFORM=C 11 H 24 O
##$NIST SOURCE=MSDC-IR
##SPECTROMETER/DATA SYSTEM=HP-GC/MS/IRD
##STATE=gas
##XUNITS=1/CM
##YUNITS=ABSORBANCE
##XFACTOR=1.0
##YFACTOR=0.000005100
##DELTAX=4.0
##FIRSTX=550.0
##LASTX=3846.0
##FIRSTY=0.000719
##MAXX=3846
##MINX=550
##MAXY=0.051
##MINY=0
##NPOINTS=825
##XYDATA=(X++(Y..Y))
550.0 141 73 30 37 17 27 37 12 18 28
590.0 17 13 11 14 11 2 13 22 17 13
630.0 17 24 27 26 23 22 17 6 4 8
670.0 9 9 19 41 49 50 52 59 76 88
710.0 114 138 144 150 147 141 127 112 101 98
750.0 94 81 85 90 82 80 86 82 78 84
790.0 80 72 79 88 95 92 96 105 97 103
830.0 118 133 146 152 156 158 152 140 134 142
870.0 147 151 152 153 164 181 195 208 228 252
910.0 266 285 309 331 357 382 395 394 383 372
950.0 360 337 319 309 294 289 290 290 293 300
990.0 321 348 381 418 451 486 511 525 532 531
1030.0 517 507 501 502 515 531 547 569 583 598
1070.0 616 632 645 662 687 708 726 732 718 691
1110.0 672 657 645 652 671 673 654 616 556 490
1150.0 432 384 358 344 322 312 308 301 296 295
1190.0 296 298 301 315 331 344 365 383 407 432
1230.0 453 472 499 524 523 510 479 445 416 393
1270.0 375 355 337 325 326 327 323 318 317 322
1310.0 327 333 333 328 337 361 407 472 508 535
1350.0 574 611 658 714 740 792 869 915 917 877
1390.0 783 681 591 495 425 369 343 345 325 315
1430.0 340 404 462 511 605 701 826 905 882 822
1470.0 732 615 463 342 279 236 187 158 143 172
1510.0 175 136 128 120 96 78 78 93 102 80
1550.0 60 66 86 57 28 28 32 30 16 16
1590.0 13 9 12 17 15 14 23 28 27 23
1630.0 17 30 30 27 38 57 65 38 30 31
1670.0 33 37 39 57 60 36 47 71 67 43
1710.0 34 59 72 44 33 56 72 50 35 41
1750.0 53 43 34 30 35 44 32 20 26 26
1790.0 30 29 26 29 18 15 13 10 14 21
1830.0 21 14 14 26 27 10 4 9 12 22
1870.0 24 12 9 5 3 8 8 6 5 5
1910.0 4 6 11 11 8 4 1 5 9 3
1950.0 0 2 2 4 8 7 4 3 1 4
1990.0 10 6 4 5 5 4 7 12 13 10
2030.0 11 8 9 11 9 8 7 8 9 10
2070.0 8 5 7 8 7 8 7 5 7 4
2110.0 2 3 5 4 2 3 5 5 7 9
2150.0 7 6 8 8 8 9 7 7 9 10
2190.0 8 7 8 7 7 7 3 4 5 6
2230.0 10 9 7 7 8 8 11 12 10 10
2270.0 7 7 9 9 11 10 11 13 15 17
2310.0 16 19 19 17 20 19 17 23 21 18
2350.0 19 19 23 25 25 24 23 21 19 19
2390.0 15 13 16 19 17 14 12 11 12 13
2430.0 13 14 14 15 16 14 11 13 13 17
2470.0 18 14 13 16 17 18 19 17 17 18
2510.0 19 22 23 24 25 26 29 30 32 33
2550.0 32 31 32 36 38 39 45 47 47 46
2590.0 47 51 54 57 63 64 62 66 76 80
2630.0 78 79 84 91 97 104 111 112 112 119
2670.0 120 119 119 120 122 116 115 117 114 113
2710.0 114 112 115 124 128 127 133 142 144 147
2750.0 152 157 158 162 170 180 188 197 214 227
2790.0 246 268 295 320 346 377 422 474 530 596
2830.0 677 795 959 1195 1536 2008 2597 3188 3613 3769
2870.0 3672 3452 3239 3069 2926 2829 2830 2971 3267 3718
2910.0 4318 5097 6118 7387 8725 9727 10000 9465 8351 7000
2950.0 5763 4888 4461 4391 4418 4282 3886 3300 2669 2081
2990.0 1580 1202 942 762 629 533 466 410 362 320
3030.0 286 259 238 218 202 186 175 164 150 140
3070.0 140 132 121 124 113 100 102 98 95 92
3110.0 84 82 77 70 67 69 67 63 65 69
3150.0 61 57 59 57 55 55 57 52 49 53
3190.0 51 47 47 46 46 43 38 37 29 27
3230.0 28 23 21 19 18 15 15 16 11 11
3270.0 9 10 8 9 9 3 6 10 10 11
3310.0 13 15 13 10 14 14 9 8 7 7
3350.0 9 10 8 11 16 16 10 8 12 16
3390.0 23 23 17 17 12 12 19 19 19 18
3430.0 16 19 18 17 16 13 12 13 13 9
3470.0 8 13 13 12 4 6 12 12 19 12
3510.0 3 5 5 19 29 9 7 12 14 24
3550.0 16 5 7 23 46 31 6 13 23 48
3590.0 47 28 28 29 41 62 69 80 86 119
3630.0 154 157 176 211 278 337 341 309 258 212
3670.0 173 136 95 58 54 54 30 25 29 20
3710.0 34 37 25 35 36 28 50 41 41 50
3750.0 32 21 9 3 8 14 6 3 3 2
3790.0 2 2 14 23 20 10 15 27 25 17
3830.0 15 23 29 24 15
##END=
