##TITLE=3-Tetradecanol
##JCAMP-DX=4.24
##DATA TYPE=INFRARED SPECTRUM
##ORIGIN=NIST Mass Spectrometry Data Center
##OWNER=NIST Standard Reference Data Program
Collection (C) 2018 copyright by the U.S. Secretary of Commerce
on behalf of the United States of America. All rights reserved.
##CAS REGISTRY NO=1653-32-3
##MOLFORM=C 14 H 30 O
##$NIST SOURCE=MSDC-IR
##SPECTROMETER/DATA SYSTEM=HP-GC/MS/IRD
##STATE=gas
##XUNITS=1/CM
##YUNITS=ABSORBANCE
##XFACTOR=1.0
##YFACTOR=0.000006500
##DELTAX=4.0
##FIRSTX=550.0
##LASTX=3846.0
##FIRSTY=0.000221
##MAXX=3846
##MINX=550
##MAXY=0.065
##MINY=0
##NPOINTS=825
##XYDATA=(X++(Y..Y))
550.0 34 56 50 39 50 51 54 52 47 42
590.0 36 42 47 34 23 22 22 29 35 31
630.0 24 21 30 31 27 14 10 23 24 15
670.0 19 30 35 33 47 55 54 66 85 101
710.0 113 134 147 141 133 126 110 100 98 86
750.0 80 84 87 81 89 99 94 95 92 82
790.0 79 77 70 68 64 65 76 78 93 91
830.0 74 77 77 82 89 91 93 100 105 109
870.0 113 116 123 127 132 135 142 150 156 169
910.0 184 195 208 219 226 239 251 264 286 316
950.0 359 405 459 510 549 568 558 535 514 491
990.0 473 461 449 437 424 413 404 394 374 359
1030.0 354 346 339 331 316 313 312 308 310 313
1070.0 318 328 331 335 346 356 372 392 404 411
1110.0 410 405 399 395 391 377 354 321 281 248
1150.0 232 224 216 210 208 206 205 208 210 212
1190.0 220 232 244 260 277 294 310 329 342 346
1230.0 349 347 340 333 325 315 306 303 299 291
1270.0 288 289 288 287 293 294 297 301 302 301
1310.0 295 288 278 269 270 278 300 332 361 396
1350.0 431 456 473 489 498 498 502 508 505 491
1390.0 455 410 361 316 279 251 234 228 229 241
1430.0 267 319 388 465 554 652 748 832 863 825
1470.0 722 575 434 327 249 195 154 129 109 99
1510.0 91 78 66 60 53 47 44 36 35 37
1550.0 37 32 25 28 29 26 21 20 26 23
1590.0 24 23 20 21 19 19 16 14 17 16
1630.0 13 9 12 13 9 3 3 10 11 9
1670.0 8 10 13 12 7 8 3 0 5 8
1710.0 8 7 7 9 11 10 8 8 9 9
1750.0 8 9 8 3 3 3 0 4 6 7
1790.0 5 3 4 6 5 5 5 4 5 5
1830.0 4 3 4 4 5 6 4 3 2 4
1870.0 5 3 3 4 4 3 3 5 4 5
1910.0 4 3 3 6 4 1 3 5 5 4
1950.0 2 4 4 2 3 4 4 3 5 7
1990.0 6 3 0 2 6 8 9 11 13 12
2030.0 11 10 13 12 9 10 9 8 9 13
2070.0 12 8 9 8 7 7 6 7 7 4
2110.0 3 6 7 6 8 8 9 8 8 10
2150.0 8 9 10 10 12 12 12 13 12 12
2190.0 10 9 10 11 11 9 11 12 10 10
2230.0 10 9 9 9 10 10 11 11 12 14
2270.0 16 16 15 14 14 15 16 16 17 18
2310.0 17 18 17 14 14 12 8 10 11 14
2350.0 14 10 7 6 9 14 16 19 22 22
2390.0 21 21 19 18 17 19 19 18 18 17
2430.0 16 18 17 15 19 16 16 19 18 19
2470.0 18 19 18 17 18 18 19 20 19 20
2510.0 24 26 27 29 29 31 32 32 33 31
2550.0 32 35 38 39 41 42 45 49 49 50
2590.0 52 54 57 64 66 66 67 69 71 73
2630.0 76 78 81 81 85 92 93 98 104 109
2670.0 113 116 117 118 118 117 116 115 112 113
2710.0 115 115 116 119 125 130 134 136 142 151
2750.0 154 155 158 164 171 177 187 197 207 219
2790.0 235 254 279 303 327 360 400 445 502 565
2830.0 648 758 911 1133 1464 1951 2594 3269 3719 3786
2870.0 3556 3215 2936 2775 2669 2584 2571 2697 2976 3409
2910.0 3976 4711 5700 7012 8496 9662 10000 9411 8184 6730
2950.0 5411 4454 3924 3747 3726 3591 3175 2572 1991 1528
2990.0 1195 954 777 650 551 479 424 378 337 308
3030.0 283 259 239 221 204 190 175 163 155 147
3070.0 138 134 131 127 121 116 115 105 98 94
3110.0 90 88 84 77 77 74 67 67 67 62
3150.0 57 56 57 57 54 51 51 49 45 41
3190.0 43 42 43 37 34 32 28 25 24 24
3230.0 21 18 16 18 19 18 21 21 19 15
3270.0 12 15 15 15 16 12 10 14 13 11
3310.0 12 14 13 11 13 13 13 17 17 14
3350.0 13 10 10 9 9 10 10 14 14 12
3390.0 14 15 14 15 19 22 23 23 21 25
3430.0 28 27 25 20 22 25 27 23 22 23
3470.0 20 15 10 9 15 21 18 16 15 14
3510.0 11 12 15 13 13 17 20 18 16 14
3550.0 9 12 17 15 20 23 16 13 20 24
3590.0 25 26 26 29 35 42 46 51 62 75
3630.0 96 116 132 154 180 214 243 244 213 166
3670.0 124 92 67 56 44 33 32 31 27 24
3710.0 24 25 26 26 23 20 23 26 22 20
3750.0 17 21 21 23 24 21 19 20 22 25
3790.0 27 28 26 20 17 20 18 16 21 25
3830.0 24 22 24 28 31
##END=
