##TITLE=t-Butyldiphenylmethanol
##JCAMP-DX=4.24
##DATA TYPE=INFRARED SPECTRUM
##ORIGIN=EPA-IR VAPOR PHASE LIBRARY
##OWNER=SRD/NIST
Collection (C) 2018 copyright by the U.S. Secretary of Commerce
on behalf of the United States of America. All rights reserved.
##CAS REGISTRY NO=1657-60-9
##MOLFORM=C 17 H 20 O
##$NIST SOURCE=MSDC-IR
##STATE=gas
##XUNITS=1/CM
##YUNITS=ABSORBANCE
##XFACTOR=1.
##YFACTOR=0.001
##DELTAX=1.92898
##FIRSTX=549.8
##LASTX=4000.7
##FIRSTY=2.69
##MAXX=4000.7
##MINX=549.759
##MAXY=0.05059
##MINY=0.000001039
##NPOINTS=1790
##XYDATA=(X++(Y..Y))
549.759 2.69 3.24 3.56 3.76 4.06 4.31 4.34 4.07 3.7 3.28
569.049 3.13 3.31 3.48 3.48 3.32 3.46 3.55 3.07 2.83 2.72
588.339 2.27 2.01 1.68 1.56 1.66 1.63 1.5 1.38 1.47 1.56
607.628 1.56 1.46 1.64 1.89 2.02 1.91 1.98 2.37 2.46 2.65
626.918 3.33 4.77 6.92 8.96 10.32 11.5 11.76 10.87 9.37 7.13
646.208 5.21 4.07 3.55 3.24 3.11 3.27 3.32 3.29 3.44 3.63
665.498 4.13 4.89 5.57 6.34 7.41 8.46 9.2 9.89 10.61 11.27
684.787 11.96 13.06 14.7 17.23 21.16 26.48 32.71 39.27 45.38 49.53
704.077 50.59 48.53 44.05 37.82 30.61 23.95 18.61 14.53 11.79 10.04
723.367 8.91 7.96 7.56 7.62 7.73 8.36 9.55 11.04 13.22 16.56
742.657 20.53 24.81 28.75 31.85 33.55 32.83 30.45 27.32 23.43 19.21
761.947 15.24 11.93 9.48 7.6 6.07 5.09 4.39 3.88 3.58 3.43
781.236 3.11 2.76 2.54 2.36 2.32 2.4 2.33 2.29 2.53 2.63
800.526 2.72 2.91 3.03 2.88 2.81 2.86 2.44 2.08 2.01 1.86
819.816 1.74 1.6 1.57 1.68 1.64 1.5 1.38 1.44 1.52 1.45
839.106 1.42 1.49 1.51 1.4 1.61 2.16 2.28 2.13 2.14 2.26
858.395 2.36 2.6 2.97 3.2 3.38 3.64 4.23 4.78 5.08 5.45
877.685 6.08 6.71 7.08 7.49 7.57 7.35 7.16 6.83 6.64 6.7
896.975 6.62 6.55 6.71 6.87 6.97 6.87 6.56 6.28 5.91 5.59
916.265 5.4 5.2 5.12 5.15 5.01 4.8 4.64 4.53 4.49 4.29
935.555 3.95 3.76 3.96 4.09 4.07 4.33 4.62 4.76 5.01 5.05
954.844 4.98 4.98 4.92 4.94 4.9 4.96 4.96 5.16 5.64 5.96
974.134 6.4 6.96 7.74 8.71 9.75 11.02 12.67 14.69 16.62 18.31
993.424 19.94 21.14 21.41 20.96 19.74 17.91 16.24 14.16 12.01 10.52
1012.714 9.58 9.12 8.87 9.04 9.67 10.32 10.91 11.77 12.56 13.19
1032.003 13.79 13.88 13.88 13.57 12.67 12.12 11.37 10.04 8.89 7.67
1051.293 6.42 5.48 4.52 3.85 3.39 2.71 2.42 2.27 1.84 1.74
1070.583 1.88 1.89 2.02 1.82 1.55 1.73 1.55 1.64 1.98 1.82
1089.873 1.96 2.18 2.09 1.79 1.64 1.98 2.4 2.31 2.19 2.21
1109.163 2.21 2.28 2.03 2.11 2.32 2.22 2.17 2.17 2.53 2.94
1128.452 3.23 3.38 3.33 3.67 4.16 4.48 4.95 5.9 6.73 7.09
1147.742 7.56 8.08 8.79 9.56 10.28 10.86 11.47 11.95 12.19 12.35
1167.032 12.69 12.77 12.45 12.24 12.15 12.11 12.02 12.06 12.35 12.38
1186.322 12.25 12.19 11.8 11.2 10.81 10.83 10.63 10.36 10.27 10.17
1205.611 10.47 10.53 10.14 9.81 9.35 9.05 8.86 8.35 7.58 7.22
1224.901 6.79 6.16 5.81 5.4 5.12 5.03 4.87 4.68 4.55 4.57
1244.191 4.48 4.39 4.38 4.43 4.68 4.84 4.95 5.07 5.2 5.4
1263.481 5.59 5.82 6.09 6.25 6.56 7.08 7.34 7.61 7.95 8.28
1282.771 8.7 9.06 9.39 9.68 10.08 10.49 10.78 11.01 11.19 11.3
1302.060 11.26 11.15 11.04 10.97 10.98 10.99 10.99 11.03 10.99 10.86
1321.350 10.66 10.35 9.98 9.59 9.18 8.66 8.13 7.56 6.97 6.45
1340.640 6.01 5.64 5.33 5.07 4.86 4.76 4.77 4.88 5.13 5.58
1359.930 6.27 7.22 8.49 9.82 11.06 12.12 12.82 12.87 11.86 10.39
1379.219 9.1 7.99 7.12 6.7 6.73 7.22 8.17 9.57 11.34 13.23
1398.509 14.8 15.66 15.65 14.78 13.09 10.9 8.68 6.78 5.45 4.65
1417.799 4.19 3.91 3.72 3.7 3.9 4.12 4.45 4.92 5.68 6.77
1437.089 8.16 9.59 10.97 12.22 13.13 13.51 13.05 11.99 10.77 9.63
1456.378 8.71 8.01 7.56 7.43 7.51 7.69 7.97 8.31 8.74 9.33
1475.668 10.07 11.01 12.1 13.35 14.79 16.1 17.23 18.08 18.39 18.13
1494.958 17.34 16.1 14.4 12.44 10.46 8.57 6.91 5.56 4.54 3.78
1514.248 3.2 2.77 2.48 2.32 2.14 2 1.94 1.86 1.77 1.73
1533.538 1.77 1.89 1.91 1.85 1.89 1.94 1.9 1.84 1.8 1.76
1552.827 1.7 1.61 1.52 1.43 1.45 1.45 1.39 1.47 1.69 1.86
1572.117 1.92 2.11 2.37 2.55 2.83 3.12 3.4 3.74 4.15 4.75
1591.407 5.26 5.78 6.24 6.43 6.4 6.11 5.47 4.61 3.76 3.07
1610.697 2.55 2.23 1.93 1.6 1.47 1.42 1.33 1.21 1.13 1.08
1629.986 1.07 1.01 0.9231 0.8961 0.8733 0.8677 0.8821 0.8565 0.8852 0.9209
1649.276 0.8782 0.8717 0.9231 0.9576 0.9258 0.8935 0.8937 0.9171 0.9971 1.05
1668.566 1.03 1.04 1.08 1.13 1.18 1.15 1.11 1.13 1.18 1.1
1687.856 1.02 0.9959 0.9582 0.9402 0.8674 0.7986 0.7643 0.7261 0.7406 0.778
1707.146 0.728 0.7267 0.7345 0.6487 0.6734 0.6767 0.6969 0.739 0.7494 0.7749
1726.435 0.7886 0.7939 0.7431 0.7526 0.8279 0.859 0.8343 0.8028 0.8481 0.8288
1745.725 0.866 0.9693 0.9821 1 0.9887 0.9666 0.9615 0.9821 0.9915 1.02
1765.015 1.01 0.9732 0.9686 1.02 1.12 1.16 1.22 1.27 1.27 1.25
1784.305 1.29 1.32 1.35 1.43 1.55 1.71 1.88 2.07 2.29 2.54
1803.594 2.71 2.73 2.71 2.67 2.59 2.45 2.19 1.93 1.72 1.49
1822.884 1.31 1.21 1.14 1.02 0.9027 0.8853 0.8418 0.7903 0.7564 0.7089
1842.174 0.6788 0.6699 0.7227 0.7381 0.7147 0.7467 0.7676 0.7872 0.8662 0.909
1861.464 0.9478 1.03 1.11 1.18 1.28 1.32 1.36 1.39 1.46 1.52
1880.754 1.55 1.57 1.55 1.57 1.56 1.48 1.44 1.41 1.37 1.33
1900.043 1.26 1.22 1.15 1.06 1.03 1.02 0.956 0.8889 0.8259 0.8402
1919.333 0.8966 0.9395 0.9662 0.9583 0.9676 1.03 1.15 1.28 1.43 1.6
1938.623 1.79 2.03 2.29 2.48 2.62 2.7 2.71 2.7 2.61 2.46
1957.913 2.29 2.09 1.86 1.62 1.38 1.16 0.9936 0.812 0.6334 0.5443
1977.202 0.574 0.6021 0.5332 0.4535 0.4277 0.3821 0.3764 0.3898 0.3375 0.3147
1996.492 0.3477 0.3339 0.2983 0.286 0.2831 0.3101 0.3371 0.3515 0.2955 0.294
2015.782 0.2942 0.2436 0.2888 0.318 0.3104 0.2506 0.2452 0.2846 0.2093 0.1648
2035.072 0.1837 0.2157 0.2239 0.1922 0.2394 0.2836 0.2461 0.2448 0.2221 0.1908
2054.362 0.2642 0.3031 0.2166 0.1945 0.2503 0.2067 0.1711 0.1955 0.19 0.1647
2073.651 0.1553 0.1804 0.1774 0.1835 0.1802 0.1476 0.1793 0.1961 0.1506 0.145
2092.941 0.1588 0.1388 0.1552 0.1787 0.209 0.1889 0.1279 0.1361 0.2094 0.2068
2112.231 0.1521 0.2104 0.2209 0.1797 0.1926 0.2187 0.1735 0.1161 0.1264 0.1564
2131.521 0.2183 0.2264 0.1955 0.1783 0.1804 0.2077 0.1803 0.1142 0.1322 0.1881
2150.810 0.1903 0.2305 0.2905 0.2783 0.2384 0.2797 0.3416 0.2882 0.2274 0.2435
2170.100 0.2432 0.2316 0.2425 0.2833 0.2179 0.1626 0.2079 0.2107 0.2487 0.2769
2189.390 0.2752 0.2749 0.2969 0.314 0.2585 0.1961 0.2355 0.2636 0.286 0.2663
2208.680 0.2005 0.2182 0.2258 0.1905 0.2288 0.2242 0.1776 0.1982 0.1833 0.1741
2227.970 0.151 0.09517 0.1646 0.2299 0.2244 0.1766 0.1353 0.1834 0.1557 0.1524
2247.259 0.2199 0.2599 0.2265 0.2382 0.2942 0.24 0.2451 0.2308 0.1598 0.163
2266.549 0.1817 0.18 0.1856 0.1936 0.1667 0.1973 0.2328 0.2341 0.152 0.1382
2285.839 0.1899 0.2284 0.2508 0.2168 0.2225 0.2676 0.2575 0.2745 0.3744 0.4402
2305.129 0.3758 0.3507 0.4304 0.4818 0.5536 0.6079 0.5644 0.543 0.5461 0.4489
2324.418 0.3833 0.38 0.3385 0.3307 0.3358 0.3191 0.3044 0.3046 0.2959 0.2951
2343.708 0.3384 0.3955 0.4582 0.4378 0.4618 0.4816 0.4645 0.4356 0.3389 0.3228
2362.998 0.3829 0.3915 0.3242 0.2876 0.3265 0.3289 0.3958 0.3712 0.3422 0.3626
2382.288 0.3473 0.3972 0.3509 0.3061 0.2859 0.3194 0.3661 0.3255 0.2417 0.3526
2401.578 0.4655 0.3589 0.3228 0.34 0.3841 0.365 0.3645 0.3787 0.3404 0.3411
2420.867 0.3449 0.3365 0.3119 0.294 0.3231 0.3589 0.2861 0.2033 0.2317 0.2796
2440.157 0.3014 0.2859 0.2485 0.2415 0.2789 0.269 0.1716 0.1641 0.2274 0.2726
2459.447 0.2996 0.242 0.22 0.2595 0.2104 0.1903 0.2099 0.255 0.3243 0.3044
2478.737 0.2882 0.2999 0.3006 0.3219 0.2985 0.2752 0.2912 0.3694 0.381 0.2911
2498.026 0.2494 0.214 0.171 0.17 0.1806 0.2153 0.3083 0.2796 0.2267 0.1691
2517.316 0.1456 0.2415 0.2618 0.2082 0.2498 0.2938 0.2231 0.2749 0.3128 0.3188
2536.606 0.3453 0.3826 0.4655 0.4474 0.392 0.361 0.3691 0.3425 0.3098 0.3003
2555.896 0.3167 0.3766 0.464 0.4957 0.4856 0.4954 0.4694 0.4387 0.4063 0.4187
2575.186 0.4793 0.5003 0.5554 0.5223 0.4341 0.5134 0.4821 0.4026 0.4715 0.5178
2594.475 0.4225 0.4205 0.4236 0.4021 0.4512 0.4258 0.3961 0.3998 0.4089 0.4474
2613.765 0.438 0.342 0.3159 0.2811 0.3176 0.3459 0.3172 0.3894 0.3962 0.3581
2633.055 0.3357 0.3196 0.2816 0.2786 0.2843 0.2313 0.2761 0.3643 0.3736 0.3329
2652.345 0.3077 0.2398 0.3011 0.4153 0.4718 0.4323 0.3391 0.3581 0.3697 0.3415
2671.634 0.3172 0.433 0.4752 0.3916 0.3872 0.3134 0.3093 0.3548 0.3212 0.2974
2690.924 0.3498 0.3691 0.3828 0.4216 0.3717 0.4152 0.4226 0.4323 0.4515 0.4077
2710.214 0.4574 0.5313 0.5089 0.4986 0.5347 0.6593 0.7864 0.766 0.6848 0.7136
2729.504 0.8148 0.828 0.7959 0.6752 0.6687 0.7855 0.7946 0.76 0.7671 0.7477
2748.794 0.6729 0.7204 0.8304 0.8738 0.8879 0.8751 0.9021 0.9982 1.05 0.9009
2768.083 0.7657 0.813 0.8382 0.7964 0.7432 0.7568 0.8203 0.8428 0.8654 0.902
2787.373 0.9638 1.03 1.04 1.13 1.16 1.14 1.16 1.12 1.14 1.21
2806.663 1.19 1.17 1.17 1.24 1.32 1.29 1.36 1.44 1.45 1.44
2825.953 1.45 1.45 1.55 1.62 1.62 1.69 1.79 1.87 1.97 2.06
2845.242 2.15 2.37 2.52 2.6 2.79 2.96 3.17 3.49 3.79 4.28
2864.532 4.82 5.3 5.99 6.91 7.86 8.9 10.05 11.15 12.25 13.18
2883.822 13.85 14.38 14.67 14.74 14.6 14.14 13.78 13.64 13.5 13.46
2903.112 13.46 13.61 13.91 14.38 14.88 15.42 16.01 16.54 17.01 17.29
2922.401 17.61 17.91 18.07 18.27 18.53 18.77 19.21 19.87 20.48 21.16
2941.691 21.92 22.47 22.93 23.45 23.92 24.3 24.7 25.3 26.14 26.99
2960.981 27.92 28.99 30 30.83 31.65 32.4 32.72 32.66 32.39 32
2980.271 31.54 31.07 30.85 30.9 31.08 31.21 30.91 30.01 28.45 26.26
2999.561 23.7 20.93 18.18 15.9 14.05 12.65 11.76 11.23 11.03 11.04
3018.850 11.37 11.95 12.51 13.09 13.6 14.07 14.51 14.78 15.08 15.31
3038.140 15.22 14.99 14.53 14.05 13.76 13.66 14.02 14.94 16.65 18.95
3057.430 21.87 25.17 28.26 30.78 32.23 32.54 31.58 29.58 26.8 23.51
3076.720 20.51 17.99 15.95 14.52 13.61 13.02 12.62 12.29 12.1 11.74
3096.009 11.2 10.7 10.03 9.36 8.75 8.11 7.55 7.02 6.48 6.08
3115.299 5.8 5.53 5.13 4.8 4.66 4.36 3.8 3.33 2.97 2.59
3134.589 2.29 2.19 2.13 2.02 1.93 1.89 1.89 1.84 1.82 1.73
3153.879 1.69 1.7 1.65 1.61 1.57 1.6 1.52 1.3 1.22 1.18
3173.169 1.06 0.9087 0.7554 0.7727 0.8487 0.8164 0.7841 0.7937 0.6767 0.5925
3192.458 0.7118 0.7893 0.7311 0.7708 0.7946 0.7486 0.6977 0.6228 0.5633 0.4942
3211.748 0.5033 0.4782 0.4513 0.5189 0.5271 0.4875 0.442 0.4868 0.4876 0.4108
3231.038 0.468 0.473 0.4898 0.5813 0.611 0.5377 0.4284 0.4419 0.4562 0.4457
3250.328 0.4621 0.4471 0.414 0.4968 0.5524 0.4944 0.4335 0.4873 0.5741 0.596
3269.617 0.5345 0.4129 0.389 0.4248 0.4881 0.5266 0.5258 0.517 0.4317 0.362
3288.907 0.4631 0.5787 0.4404 0.3478 0.4775 0.6316 0.5194 0.336 0.4311 0.4342
3308.197 0.418 0.4004 0.2138 0.2346 0.4265 0.5482 0.466 0.3098 0.3224 0.3713
3327.487 0.3878 0.444 0.4502 0.4669 0.4291 0.2159 0.1617 0.2691 0.3796 0.3736
3346.777 0.313 0.2631 0.2004 0.3322 0.4639 0.4128 0.308 0.2304 0.2628 0.4186
3366.066 0.4572 0.4142 0.3868 0.2815 0.4011 0.5692 0.4875 0.3024 0.3168 0.3254
3385.356 0.3385 0.436 0.3997 0.4131 0.5167 0.4853 0.3734 0.3517 0.365 0.4251
3404.646 0.4913 0.5427 0.443 0.3846 0.3421 0.2136 0.1872 0.3868 0.5202 0.3539
3423.936 0.1893 0.1939 0.3727 0.3714 0.3425 0.4202 0.3919 0.347 0.3448 0.3535
3443.225 0.3481 0.4196 0.3853 0.3512 0.3549 0.2709 0.2572 0.2734 0.3454 0.4257
3462.515 0.4251 0.3452 0.1789 0.1102 0.2644 0.2747 0.3381 0.4025 0.2994 0.3076
3481.805 0.2679 0.138 0.09894 0.2686 0.3923 0.3835 0.3927 0.484 0.4408 0.265
3501.095 0.1916 0.1637 0.2905 0.4103 0.3274 0.2421 0.2131 0.2147 0.2801 0.2153
3520.385 0.2484 0.3574 0.3558 0.3162 0.228 0.1129 0.001039 0.1335 0.1656 0.18
3539.674 0.2282 0.2038 0.332 0.3031 0.1498 0.2761 0.2784 0.1754 0.2643 0.3294
3558.964 0.2777 0.2169 0.2466 0.2703 0.2184 0.143 0.1513 0.1665 0.1969 0.2645
3578.254 0.2839 0.2123 0.1164 0.2284 0.243 0.08377 0.1937 0.2918 0.2804 0.3546
3597.544 0.3699 0.3475 0.2621 0.346 0.5671 0.6684 0.7284 0.7302 0.8201 1.02
3616.833 1.2 1.41 1.67 1.89 2.1 2.43 3 3.63 4.33 5.3
3636.123 6.31 7.22 7.85 8.15 7.87 7 5.98 4.92 3.92 3.13
3655.413 2.59 2.05 1.64 1.47 1.32 1.13 1.04 1.16 1.18 0.9614
3674.703 0.7656 0.7854 0.8337 0.7934 0.7752 0.6929 0.5112 0.3563 0.5392 0.7107
3693.993 0.5953 0.4531 0.4605 0.5187 0.6724 0.7824 0.5805 0.5913 0.6002 0.3964
3713.282 0.3573 0.4086 0.3534 0.3599 0.415 0.3431 0.2719 0.3162 0.3734 0.3141
3732.572 0.2798 0.3471 0.3706 0.285 0.3206 0.249 0.4141 0.5678 0.3315 0.3377
3751.862 0.3453 0.346 0.4105 0.3612 0.3406 0.3727 0.3432 0.2766 0.1277 0.04757
3771.152 0.1579 0.1591 0.1462 0.09293 0.1188 0.2471 0.3484 0.3565 0.3911 0.5389
3790.441 0.4279 0.3141 0.2506 0.2735 0.3474 0.2188 0.1792 0.208 0.3774 0.3813
3809.731 0.3357 0.395 0.3642 0.3521 0.2459 0.2506 0.3082 0.263 0.1756 0.1447
3829.021 0.1766 0.1355 0.1505 0.2515 0.1961 0.2439 0.2793 0.2525 0.1919 0.1522
3848.311 0.3442 0.364 0.2356 0.2703 0.2408 0.25 0.2061 0.2486 0.373 0.3625
3867.601 0.3549 0.2982 0.3644 0.4099 0.4562 0.5121 0.4402 0.4054 0.4177 0.3408
3886.890 0.3509 0.509 0.4015 0.3706 0.4436 0.3646 0.3827 0.4448 0.4489 0.3344
3906.180 0.2802 0.3059 0.2871 0.2207 0.1431 0.1379 0.2974 0.3908 0.3815 0.2985
3925.470 0.2584 0.2853 0.4137 0.4982 0.4005 0.391 0.4844 0.4509 0.3389 0.4344
3944.760 0.5742 0.4508 0.2712 0.3609 0.4193 0.3426 0.3753 0.519 0.4533 0.4071
3964.049 0.3844 0.2936 0.2073 0.2587 0.3525 0.1611 0.2421 0.3359 0.1023 0.2019
3983.339 0.3811 0.335 0.2945 0.2054 0.2387 0.3273 0.2739 0.2294 0.3019 0.3423
##END=
