##TITLE=3-Methylene-1,5,5-trimethylcyclohexene
##JCAMP-DX=4.24
##DATA TYPE=INFRARED SPECTRUM
##ORIGIN=NIST Mass Spectrometry Data Center
##OWNER=NIST Standard Reference Data Program
Collection (C) 2018 copyright by the U.S. Secretary of Commerce
on behalf of the United States of America. All rights reserved.
##CAS REGISTRY NO=16609-28-2
##MOLFORM=C 10 H 16
##$NIST SOURCE=MSDC-IR
##SPECTROMETER/DATA SYSTEM=HP-GC/MS/IRD
##STATE=gas
##XUNITS=1/CM
##YUNITS=ABSORBANCE
##XFACTOR=1.0
##YFACTOR=0.000002700
##DELTAX=4.0
##FIRSTX=550.0
##LASTX=3846.0
##FIRSTY=0.001040
##MAXX=3846
##MINX=550
##MAXY=0.027
##MINY=0
##NPOINTS=825
##XYDATA=(X++(Y..Y))
550.0 385 234 123 110 100 100 154 220 263 247
590.0 202 157 128 106 68 38 20 50 64 31
630.0 9 2 24 26 6 24 54 50 46 48
670.0 73 112 132 134 128 132 98 80 86 68
710.0 44 51 76 71 60 39 45 63 47 44
750.0 61 64 78 87 81 86 110 132 135 140
790.0 139 127 119 122 120 142 146 132 154 165
830.0 203 261 323 405 537 745 1029 1410 1893 2397
870.0 2710 2785 2619 2305 2024 1806 1766 1835 1552 1165
910.0 925 664 431 297 252 238 234 234 229 205
950.0 179 154 142 133 131 149 173 207 226 237
990.0 251 244 217 193 184 166 142 146 179 174
1030.0 158 146 113 87 82 95 97 87 86 92
1070.0 78 69 71 70 83 92 90 93 90 94
1110.0 118 173 255 331 411 484 512 494 444 359
1150.0 274 219 188 161 144 151 170 206 232 241
1190.0 236 208 182 162 145 135 132 131 131 138
1230.0 139 134 150 181 207 244 285 321 365 407
1270.0 435 454 478 480 449 410 365 315 270 239
1310.0 225 219 217 222 239 281 343 426 552 732
1350.0 979 1273 1578 1792 2055 2260 2054 1897 1808 1654
1390.0 1474 1190 988 866 804 835 927 1061 1215 1334
1430.0 1413 1449 1447 1439 1429 1425 1443 1436 1402 1334
1470.0 1207 1045 872 690 517 381 299 242 201 172
1510.0 151 139 138 142 138 136 137 135 144 156
1550.0 169 179 189 202 211 223 237 264 317 382
1590.0 470 595 763 936 1076 1166 1174 1093 972 860
1630.0 835 948 1125 1275 1356 1342 1195 951 677 459
1670.0 311 220 174 152 149 155 156 156 148 133
1710.0 134 145 147 162 187 211 236 270 303 325
1750.0 344 362 365 353 327 293 259 227 188 169
1790.0 152 130 115 97 86 72 57 55 49 45
1830.0 49 51 47 45 55 57 45 43 47 42
1870.0 40 42 45 44 38 41 38 30 32 35
1910.0 32 30 23 23 27 22 22 18 12 10
1950.0 15 22 18 15 21 30 29 17 11 14
1990.0 14 17 18 19 21 22 21 20 16 14
2030.0 18 23 24 22 28 28 22 22 22 17
2070.0 18 20 13 10 14 13 12 13 12 9
2110.0 12 13 15 22 21 23 26 21 22 30
2150.0 33 27 18 19 24 24 19 16 12 3
2190.0 0 8 12 15 15 12 19 19 15 11
2230.0 10 12 10 10 15 21 17 13 17 20
2270.0 18 19 19 14 14 22 30 26 23 32
2310.0 34 25 21 23 17 12 13 11 6 6
2350.0 12 12 7 6 9 17 21 9 7 14
2390.0 12 12 16 15 5 3 11 9 5 6
2430.0 4 0 3 6 7 12 7 11 16 7
2470.0 10 22 29 30 23 26 30 22 17 23
2510.0 26 26 33 27 20 30 27 20 31 31
2550.0 27 34 27 26 27 20 28 33 34 31
2590.0 26 25 31 29 34 46 42 39 43 50
2630.0 50 49 49 46 49 45 39 42 54 58
2670.0 56 58 73 93 98 102 120 137 134 135
2710.0 157 188 213 240 262 283 315 318 304 300
2750.0 280 258 241 235 234 231 248 267 280 310
2790.0 347 396 474 559 685 862 1103 1444 1829 2176
2830.0 2418 2499 2431 2323 2285 2415 2748 3262 3928 4669
2870.0 5358 5916 6323 6544 6747 7046 7381 7500 7328 7116
2910.0 6907 6763 6861 7104 7310 7392 7365 7138 6969 7376
2950.0 8128 9104 10000 9762 8927 7804 6361 5076 4087 3266
2990.0 2616 2238 2006 1847 1738 1661 1610 1595 1585 1538
3030.0 1430 1268 1071 887 756 674 637 650 730 864
3070.0 1098 1428 1625 1715 1647 1409 1079 692 437 318
3110.0 258 230 203 190 204 200 183 175 162 151
3150.0 155 164 165 169 179 173 159 159 164 157
3190.0 152 159 157 154 146 137 137 136 124 114
3230.0 109 105 95 92 86 65 52 48 45 54
3270.0 54 49 58 70 74 75 74 70 86 84
3310.0 57 54 61 47 37 43 46 41 48 55
3350.0 58 54 56 57 58 62 53 55 55 45
3390.0 35 37 36 10 4 36 48 33 25 32
3430.0 39 63 50 34 51 44 22 29 34 43
3470.0 43 23 33 41 22 25 31 28 24 19
3510.0 23 32 30 32 45 29 8 14 12 12
3550.0 35 36 22 27 28 26 39 45 29 19
3590.0 22 25 27 11 9 28 15 7 9 1
3630.0 6 10 13 32 25 8 8 5 1 0
3670.0 5 10 16 31 28 21 23 23 27 35
3710.0 40 33 26 37 52 58 52 44 49 44
3750.0 37 48 53 37 32 46 49 45 49 48
3790.0 50 45 53 55 42 44 59 44 39 71
3830.0 63 52 57 64 75
##END=
