##TITLE=Tetraisopropyl methylenediphosphonate
##JCAMP-DX=4.24
##DATA TYPE=INFRARED SPECTRUM
##ORIGIN=EPA-IR VAPOR PHASE LIBRARY
##OWNER=SRD/NIST
Collection (C) 2018 copyright by the U.S. Secretary of Commerce
on behalf of the United States of America. All rights reserved.
##CAS REGISTRY NO=1660-95-3
##MOLFORM=C 13 H 30 O 6 P 2
##$NIST SOURCE=MSDC-IR
##STATE=gas
##XUNITS=1/CM
##YUNITS=ABSORBANCE
##XFACTOR=1.
##YFACTOR=0.001
##DELTAX=1.92934
##FIRSTX=549.9
##LASTX=3999.5
##FIRSTY=21.33
##MAXX=3999.53
##MINX=549.863
##MAXY=0.90487
##MINY=0
##NPOINTS=1789
##XYDATA=(X++(Y..Y))
549.863 21.33 20.2 19.23 18.39 17.79 17.23 16.66 16.15 15.53 14.84
569.156 14.13 13.54 12.93 12.2 11.58 10.95 10.45 9.99 9.48 9.11
588.450 8.8 8.56 8.26 7.97 7.76 7.6 7.52 7.4 7.24 7.1
607.743 7.05 7.02 6.95 6.9 6.84 6.75 6.67 6.55 6.49 6.59
627.037 6.6 6.53 6.52 6.61 6.63 6.58 6.61 6.62 6.68 6.69
646.330 6.7 6.82 6.99 7.1 7.16 7.3 7.39 7.56 7.74 7.9
665.624 8.12 8.35 8.53 8.8 9.14 9.48 9.91 10.34 10.68 11.16
684.917 11.75 12.31 12.77 13.17 13.69 14.18 14.58 14.96 15.4 15.96
704.210 16.58 17.19 17.8 18.45 18.99 19.5 19.84 19.88 19.77 19.52
723.504 19.29 19.07 18.89 18.94 19.13 19.38 19.77 20.17 20.59 21.09
742.797 21.56 22.09 22.69 23.31 23.96 24.55 25.19 25.93 26.67 27.51
762.091 28.47 29.51 30.76 32.2 33.75 35.54 37.59 39.76 42.03 44.52
781.384 47.29 50.56 54.5 59.34 65.08 71.55 78.41 85.38 92.41 99.92
800.678 108.66 118.91 130.52 142.11 151.42 156.52 156.46 151.6 143.1 132.26
819.971 120.03 106.84 93.09 79.58 67.31 56.99 48.71 42.27 37.4 33.81
839.264 31.07 29.1 27.79 26.85 26.22 25.92 26.01 26.39 27.11 28.28
858.558 29.9 32.09 35.03 38.73 43.33 48.92 55.59 63.05 70.41 76.38
877.851 79.64 79.57 76.53 71.86 67.33 63.97 61.73 59.95 57.71 54.39
897.145 50.15 45.52 41.12 37.56 35.02 33.46 32.71 32.64 32.99 33.39
916.438 34.05 35.16 36.51 38.08 39.86 41.82 44 46.34 48.89 51.62
935.732 54.48 57.5 60.72 64.26 68.31 72.94 78.18 84.26 91.14 98.92
955.025 107.85 118.15 130.14 144.29 161.12 181.12 205.1 233.97 268.77 310.44
974.318 359.91 417.96 484.48 558.78 638.33 718.55 793.12 853.81 893.08 904.87
993.612 887.93 846 785.88 715.58 641.94 570.17 503.19 442.54 388.9 342.3
1012.905 302.69 269.76 243.02 221.72 204.8 191.2 179.6 168.84 158 146.66
1032.199 134.82 122.77 111.01 100.1 90.39 81.9 74.68 68.64 63.54 59.29
1051.492 55.73 52.78 50.42 48.57 47.2 46.36 46.11 46.55 47.66 49.32
1070.786 51.38 53.58 55.66 57.64 59.43 60.83 61.95 62.85 63.62 64.48
1090.079 65.82 68.07 71.74 77.25 84.74 94.17 105.09 116.45 126.74 134.48
1109.372 138.75 139.38 136.96 132.64 127.71 123.17 119.49 116.85 115.12 114.1
1128.666 113.74 113.89 114.1 113.97 113.04 110.88 107.27 102.5 97.17 91.92
1147.959 87.3 83.61 80.91 79.09 78.04 77.93 79 81.46 85.71 92.11
1167.253 100.61 110.69 120.82 128.5 131.17 127.24 116.85 102.01 85.56 70.1
1186.546 57.26 47.49 40.29 34.98 31.02 28.03 25.73 23.89 22.44 21.31
1205.840 20.43 19.76 19.25 18.91 18.7 18.58 18.6 18.73 18.95 19.37
1225.133 19.93 20.51 21.26 22.15 23.24 24.61 26.25 28.28 30.88 34.21
1244.426 38.48 44.14 51.57 61.25 73.83 89.89 109.86 133.7 160.67 189.27
1263.720 217.42 242.57 262.13 273.96 276.38 268.69 251.73 227.9 200.67 173.54
1283.013 148.82 127.49 109.59 94.63 81.98 71.17 61.89 53.92 47.18 41.58
1302.307 36.9 33.04 29.88 27.3 25.26 23.67 22.4 21.42 20.74 20.26
1321.600 19.93 19.78 19.83 20.03 20.35 20.81 21.43 22.2 23.14 24.17
1340.894 25.22 26.42 27.89 29.68 31.81 34.26 36.97 39.76 42.47 45
1360.187 47.33 49.51 51.84 54.59 58.11 62.69 68.12 73.59 78.18 81.54
1379.480 84.39 88.24 94.3 101.74 107.36 107.42 100.07 86.58 70.23 55.01
1398.774 43.18 34.76 29.07 25.02 22.06 19.85 18.17 16.84 15.83 15.07
1418.067 14.48 14.01 13.67 13.46 13.38 13.41 13.52 13.71 13.97 14.35
1437.361 14.87 15.4 16.01 16.7 17.47 18.32 19.24 20.21 21.16 21.99
1456.654 22.63 23 23.23 23.54 23.98 24.44 24.78 24.77 24.13 22.85
1475.948 21.17 19.26 17.35 15.63 14.22 13.02 11.99 11.11 10.32 9.64
1495.241 9.08 8.57 8.13 7.72 7.39 7.11 6.89 6.68 6.47 6.3102
1514.534 6.1438 5.986 5.8671 5.7379 5.6148 5.50557 5.4288 5.327 5.21 5.118
1533.828 5.015 4.919 4.85 4.769 4.712 4.659 4.572 4.506 4.516 4.484
1553.121 4.41 4.36 4.32 4.31 4.31 4.29 4.26 4.22 4.2 4.22
1572.415 4.22 4.22 4.24 4.23 4.18 4.17 4.16 4.17 4.18 4.23
1591.708 4.27 4.25 4.25 4.25 4.27 4.28 4.28 4.28 4.32 4.36
1611.002 4.37 4.36 4.39 4.43 4.42 4.44 4.46 4.507 4.557 4.564
1630.295 4.592 4.604 4.649 4.679 4.715 4.777 4.812 4.853 4.906 4.981
1649.588 5.075 5.162 5.25 5.294 5.3952 5.53965 5.6188 5.7035 5.8209 5.9066
1668.882 5.9988 6.152 6.2633 6.3805 6.52 6.64 6.79 6.94 7.05 7.18
1688.175 7.34 7.48 7.63 7.8 7.97 8.12 8.27 8.4 8.48 8.6
1707.469 8.73 8.82 8.92 9.06 9.19 9.23 9.31 9.46 9.54 9.62
1726.762 9.73 9.82 9.87 9.9 9.89 9.8 9.76 9.7 9.6 9.45
1746.056 9.25 9.07 8.9 8.71 8.5 8.34 8.18 8 7.87 7.71
1765.349 7.55 7.42 7.23 7.08 6.92 6.75 6.59 6.4116 6.238 6.1101
1784.642 6.0055 5.8974 5.7748 5.6852 5.6076 5.47749 5.3739 5.335 5.341 5.251
1803.936 5.158 5.114 5.079 5.057 5.002 4.928 4.883 4.872 4.807 4.719
1823.229 4.696 4.632 4.56 4.513 4.467 4.42 4.41 4.42 4.41 4.39
1842.523 4.37 4.38 4.39 4.37 4.39 4.45 4.525 4.586 4.61 4.668
1861.816 4.751 4.793 4.85 4.886 4.868 4.894 4.921 4.898 4.849 4.825
1881.110 4.797 4.711 4.636 4.573 4.534 4.468 4.39 4.31 4.23 4.12
1900.403 4.03 3.98 3.9 3.82 3.78 3.77 3.74 3.68 3.62 3.59
1919.696 3.54 3.49 3.43 3.38 3.34 3.27 3.21 3.13 3.08 3.06
1938.990 3.06 3.04 2.96 2.93 2.94 2.91 2.9 2.89 2.87 2.87
1958.283 2.85 2.83 2.85 2.83 2.79 2.78 2.74 2.7 2.7 2.7
1977.577 2.69 2.7 2.69 2.68 2.66 2.6 2.62 2.64 2.61 2.63
1996.870 2.62 2.59 2.6 2.6 2.58 2.56 2.56 2.57 2.59 2.57
2016.164 2.58 2.57 2.53 2.56 2.54 2.51 2.53 2.51 2.49 2.5
2035.457 2.5 2.48 2.5 2.52 2.51 2.49 2.48 2.51 2.51 2.51
2054.750 2.51 2.55 2.6 2.63 2.66 2.69 2.7 2.7 2.71 2.71
2074.044 2.67 2.68 2.68 2.64 2.61 2.61 2.6 2.61 2.62 2.59
2093.337 2.55 2.59 2.63 2.6 2.58 2.57 2.56 2.54 2.5 2.5
2112.631 2.51 2.51 2.47 2.46 2.48 2.47 2.46 2.45 2.46 2.48
2131.924 2.5 2.51 2.47 2.45 2.47 2.49 2.5 2.47 2.44 2.45
2151.218 2.46 2.45 2.46 2.43 2.42 2.45 2.47 2.44 2.42 2.41
2170.511 2.4 2.41 2.39 2.4 2.41 2.35 2.35 2.38 2.36 2.37
2189.804 2.36 2.32 2.29 2.26 2.25 2.25 2.24 2.21 2.21 2.23
2209.098 2.23 2.22 2.22 2.2 2.17 2.19 2.23 2.26 2.29 2.32
2228.391 2.36 2.37 2.39 2.46 2.52 2.55 2.58 2.65 2.73 2.8
2247.685 2.88 2.95 3.01 3.06 3.12 3.2 3.26 3.3 3.31 3.34
2266.978 3.32 3.26 3.21 3.13 3.03 2.99 2.95 2.86 2.79 2.78
2286.272 2.78 2.73 2.73 2.73 2.75 2.75 2.79 2.81 2.81 2.82
2305.565 2.82 2.85 2.85 2.81 2.77 2.72 2.68 2.62 2.57 2.52
2324.858 2.48 2.45 2.41 2.33 2.29 2.28 2.25 2.22 2.25 2.28
2344.152 2.27 2.25 2.23 2.22 2.26 2.23 2.16 2.17 2.19 2.24
2363.445 2.28 2.25 2.28 2.32 2.35 2.38 2.37 2.34 2.34 2.35
2382.739 2.32 2.32 2.32 2.28 2.28 2.27 2.25 2.25 2.24 2.19
2402.032 2.16 2.16 2.16 2.16 2.13 2.09 2.07 2.05 2.09 2.06
2421.326 2.04 2.05 2.04 2.04 2.08 2.11 2.1 2.1 2.1 2.09
2440.619 2.09 2.16 2.16 2.13 2.15 2.16 2.14 2.15 2.17 2.19
2459.912 2.2 2.22 2.26 2.25 2.22 2.22 2.25 2.27 2.3 2.31
2479.206 2.27 2.26 2.28 2.29 2.34 2.39 2.42 2.43 2.45 2.5
2498.499 2.57 2.58 2.6 2.64 2.69 2.73 2.76 2.79 2.79 2.8
2517.793 2.79 2.75 2.72 2.72 2.73 2.7 2.68 2.66 2.6 2.56
2537.086 2.51 2.44 2.4 2.4 2.41 2.38 2.33 2.29 2.25 2.21
2556.380 2.2 2.21 2.19 2.16 2.17 2.14 2.09 2.04 1.98 1.97
2575.673 1.96 1.91 1.87 1.8 1.8 1.84 1.81 1.85 1.88 1.85
2594.966 1.86 1.89 1.88 1.89 1.87 1.85 1.87 1.91 1.97 1.98
2614.260 2.04 2.06 2.04 2.06 2.07 2.11 2.19 2.26 2.32 2.35
2633.553 2.34 2.36 2.41 2.41 2.41 2.43 2.42 2.46 2.49 2.43
2652.847 2.43 2.4 2.41 2.38 2.32 2.32 2.31 2.27 2.26 2.23
2672.140 2.23 2.2 2.17 2.14 2.09 2.1 2.16 2.24 2.26 2.25
2691.434 2.28 2.31 2.32 2.34 2.4 2.49 2.54 2.54 2.58 2.62
2710.727 2.68 2.72 2.74 2.76 2.8 2.87 2.93 3.05 3.23 3.42
2730.020 3.69 4 4.38 4.693 4.881 5.055 5.074 4.967 4.752 4.502
2749.314 4.3 4.14 4 3.87 3.8 3.71 3.68 3.66 3.57 3.56
2768.607 3.63 3.62 3.57 3.53 3.5 3.46 3.32 3.23 3.19 3.2
2787.901 3.27 3.27 3.25 3.27 3.35 3.47 3.53 3.56 3.59 3.65
2807.194 3.77 4.03 4.2 4.3 4.498 4.642 4.824 5.034 5.147 5.246
2826.488 5.332 5.4096 5.47047 5.51278 5.581 5.624 5.6739 5.8017 5.9992 6.147
2845.781 6.2824 6.49 6.76 7.05 7.4 7.82 8.46 9.29 10.13 11.11
2865.074 12.37 13.87 15.63 17.7 20.08 22.56 25.1 27.5 29.31 30.39
2884.368 30.77 30.4 29.46 28.41 27.48 26.77 26.46 26.39 26.64 27.19
2903.661 27.95 28.9 29.97 31.16 32.44 34.04 35.91 38.09 40.9 44.34
2922.955 48.56 53.41 58.58 64.08 69.7 75.29 80.55 85.03 88.54 90.42
2942.248 90.07 87.63 83.34 77.67 71.36 65.3 60.22 56.6 54.56 54.18
2961.542 55.56 58.44 62.75 68.6 76.27 86.38 99.78 116.98 137.04 157.26
2980.835 173.35 181.24 179.58 170.04 156.14 141.34 127.22 113.56 99.83 86.24
3000.128 73.48 62.11 52.46 44.55 38.11 32.86 28.57 25 21.99 19.37
3019.422 17.18 15.26 13.54 12.13 10.95 9.88 8.93 8.04 7.32 6.63
3038.715 6.0504 5.6867 5.326 4.946 4.569 4.27 4.04 3.8 3.53 3.34
3058.009 3.2 3.06 2.98 2.97 2.87 2.68 2.68 2.72 2.64 2.57
3077.302 2.6 2.57 2.53 2.5 2.51 2.56 2.58 2.58 2.49 2.5
3096.596 2.59 2.57 2.57 2.54 2.52 2.67 2.68 2.54 2.46 2.46
3115.889 2.35 2.2 2.25 2.31 2.25 2.19 2.15 2.1 2.08 2.09
3135.182 2.09 2.08 1.94 1.9 1.93 1.87 1.87 1.94 1.96 1.92
3154.476 1.89 1.89 1.88 1.89 2.02 2.03 1.95 1.94 2.01 2.11
3173.769 2.11 2.09 2.15 2.24 2.28 2.25 2.26 2.21 2.13 2.21
3193.063 2.22 2.13 2 1.98 2.05 1.98 1.85 1.8 1.76 1.73
3212.356 1.72 1.79 1.73 1.58 1.64 1.61 1.52 1.4 1.34 1.3
3231.650 1.24 1.22 1.22 1.15 0.87 0.75 0.72 0.62 0.53 0.51
3250.943 0.55 0.47 0.39 0.35 0.28 0.28 0.28 0.27 0.27 0.23
3270.236 0.16 0.11 0.1 0.16 0.17 0.1 0.05 0 0 0.05
3289.530 0.14 0.2 0.11 0.07 0.13 0.2 0.22 0.21 0.25 0.22
3308.823 0.27 0.32 0.2 0.21 0.22 0.35 0.47 0.49 0.56 0.55
3328.117 0.52 0.41 0.46 0.52 0.47 0.46 0.47 0.44 0.48 0.6
3347.410 0.64 0.68 0.65 0.64 0.69 0.64 0.64 0.71 0.81 0.75
3366.704 0.68 0.72 0.78 0.87 0.84 0.78 0.78 0.79 0.74 0.67
3385.997 0.71 0.87 0.96 0.92 0.9 0.86 0.86 0.88 0.93 0.93
3405.290 1.02 1.08 1.03 0.99 1.04 1.05 1.02 1.05 1.1 1.08
3424.584 1.01 1.11 1.13 1.12 1.21 1.23 1.09 1.11 1.24 1.25
3443.877 1.23 1.22 1.2 1.24 1.3 1.2 1.1 1.12 1.16 1.19
3463.171 1.32 1.29 1.18 1.13 1.12 1.2 1.21 1.23 1.21 1.13
3482.464 1.12 1.12 1.2 1.28 1.23 1.21 1.25 1.21 1.24 1.27
3501.758 1.23 1.22 1.18 1.23 1.3 1.29 1.27 1.16 1.13 1.2
3521.051 1.11 1.12 1.28 1.29 1.24 1.27 1.21 1.21 1.29 1.28
3540.344 1.34 1.34 1.36 1.42 1.39 1.32 1.28 1.24 1.18 1.27
3559.638 1.47 1.53 1.48 1.4 1.38 1.43 1.39 1.43 1.41 1.36
3578.931 1.43 1.49 1.49 1.47 1.44 1.46 1.58 1.63 1.6 1.55
3598.225 1.48 1.52 1.51 1.39 1.4 1.4 1.53 1.59 1.49 1.47
3617.518 1.57 1.67 1.69 1.7 1.68 1.64 1.66 1.69 1.75 1.75
3636.812 1.64 1.71 1.78 1.82 1.9 1.91 1.87 1.81 1.81 1.73
3656.105 1.67 1.73 1.75 1.75 1.82 1.83 1.79 1.72 1.75 1.8
3675.398 1.8 1.92 1.96 1.9 1.82 1.81 1.83 1.82 1.83 1.79
3694.692 1.78 1.76 1.76 1.84 1.84 1.84 1.9 1.95 1.96 1.95
3713.985 1.91 1.95 1.98 1.97 2.03 2.06 2.01 1.94 1.93 1.96
3733.279 1.94 1.92 1.96 1.98 1.97 1.97 1.96 1.99 2.01 1.96
3752.572 1.94 1.95 1.87 1.85 1.92 1.99 2.03 2.01 2 1.93
3771.866 1.89 1.89 1.89 1.91 1.94 1.98 1.92 1.88 1.93 1.94
3791.159 1.94 1.92 1.95 1.92 1.94 2.01 2.04 2.1 2.09 2.01
3810.452 2.04 2.08 2.11 2.13 2.12 2.17 2.19 2.17 2.14 2.17
3829.746 2.22 2.24 2.23 2.2 2.22 2.18 2.06 2.04 2.04 2.12
3849.039 2.15 2.17 2.25 2.22 2.21 2.29 2.34 2.41 2.37 2.22
3868.333 2.23 2.33 2.3 2.3 2.29 2.24 2.29 2.34 2.29 2.19
3887.626 2.18 2.21 2.24 2.25 2.21 2.22 2.29 2.32 2.27 2.27
3906.920 2.29 2.32 2.27 2.19 2.28 2.36 2.32 2.31 2.4 2.47
3926.213 2.4 2.36 2.43 2.4 2.41 2.47 2.41 2.39 2.44 2.45
3945.506 2.41 2.39 2.4 2.41 2.44 2.48 2.47 2.47 2.49 2.52
3964.800 2.57 2.61 2.64 2.66 2.7 2.76 2.74 2.66 2.7 2.71
3984.093 2.7 2.68 2.64 2.72 2.76 2.69 2.64 2.69 2.7
##END=
