##TITLE=3-Aminopyrazole-4-carbonitrile
##JCAMP-DX=4.24
##DATA TYPE=INFRARED SPECTRUM
##ORIGIN=NIST Mass Spectrometry Data Center
##OWNER=NIST Standard Reference Data Program
Collection (C) 2018 copyright by the U.S. Secretary of Commerce
on behalf of the United States of America. All rights reserved.
##CAS REGISTRY NO=16617-46-2
##MOLFORM=C 4 H 4 N 4
##$NIST SOURCE=MSDC-IR
##SPECTROMETER/DATA SYSTEM=HP-GC/MS/IRD
##STATE=gas
##XUNITS=1/CM
##YUNITS=ABSORBANCE
##XFACTOR=1.0
##YFACTOR=0.000000700
##DELTAX=4.0
##FIRSTX=550.0
##LASTX=3846.0
##FIRSTY=0.000482
##MAXX=3846
##MINX=550
##MAXY=0.007
##MINY=0
##NPOINTS=825
##XYDATA=(X++(Y..Y))
550.0 689 1054 817 907 946 1038 1189 1188 1094 1053
590.0 1002 977 957 925 987 1114 1281 1490 1810 2002
630.0 1892 1792 1860 1901 1823 1761 1688 1531 1462 1478
670.0 1413 1351 1334 1345 1428 1487 1545 1657 1750 1814
710.0 1903 1856 1673 1528 1420 1245 1097 1030 961 899
750.0 815 791 858 856 802 750 742 782 781 756
790.0 757 853 966 975 987 1264 1568 1236 866 785
830.0 674 506 406 386 396 406 408 430 573 652
870.0 492 411 419 353 279 275 292 341 453 586
910.0 792 1042 1225 1443 1624 1781 1950 2148 2331 2409
950.0 2484 2581 2618 2605 2591 2547 2398 2205 2005 1821
990.0 1644 1417 1196 1009 869 873 907 897 861 842
1030.0 940 1032 1012 1026 1036 972 886 808 681 572
1070.0 574 622 649 657 695 708 647 531 440 364
1110.0 280 216 172 149 159 181 175 169 163 158
1150.0 167 244 349 469 580 608 588 617 667 666
1190.0 607 573 610 629 611 597 571 536 483 363
1230.0 206 85 60 56 20 0 28 51 38 41
1270.0 64 86 110 169 282 375 390 381 403 453
1310.0 441 372 316 272 249 256 244 213 217 222
1350.0 186 165 147 128 140 190 246 312 411 482
1390.0 515 552 573 551 497 418 363 373 416 487
1430.0 583 693 844 999 1169 1327 1368 1370 1372 1386
1470.0 1427 1493 1661 2003 2516 3160 3835 4521 5143 5643
1510.0 5843 5718 5456 4987 4228 3398 2671 2135 1794 1672
1550.0 1817 2278 3002 3829 4497 4937 5176 5281 5210 4890
1590.0 4520 4417 4675 5266 6073 6872 7427 7707 7779 7518
1630.0 6776 5781 4674 3601 2687 1998 1500 1131 899 731
1670.0 620 566 495 458 427 395 375 354 347 336
1710.0 340 360 365 342 321 316 317 275 250 245
1750.0 228 224 220 218 210 220 221 213 220 223
1790.0 227 222 218 211 215 227 223 212 197 198
1830.0 197 184 190 204 206 204 204 202 206 204
1870.0 195 200 209 202 195 210 216 223 222 215
1910.0 224 227 225 219 226 234 238 255 261 250
1950.0 253 258 252 239 234 251 264 264 261 263
1990.0 257 257 267 266 275 284 270 279 269 282
2030.0 304 279 269 286 306 302 285 285 281 280
2070.0 276 267 280 304 304 284 298 313 299 312
2110.0 316 321 314 305 323 331 325 313 320 328
2150.0 326 323 336 349 359 362 366 381 396 410
2190.0 440 479 541 641 810 1081 1473 2056 2714 3233
2230.0 3567 3729 3727 3440 2856 2012 1237 794 620 522
2270.0 459 426 393 372 361 351 354 345 349 364
2310.0 356 340 339 349 356 362 357 357 347 325
2350.0 337 366 387 402 384 351 344 341 331 332
2390.0 338 322 297 296 310 303 282 278 293 308
2430.0 299 292 278 269 285 279 288 282 290 314
2470.0 302 290 287 302 317 317 323 323 315 317
2510.0 335 337 320 330 353 372 382 364 348 330
2550.0 337 336 310 308 304 305 313 315 321 326
2590.0 326 327 343 368 369 353 362 386 394 400
2630.0 403 403 396 381 372 357 341 311 299 302
2670.0 297 311 314 316 343 344 322 312 330 333
2710.0 328 322 316 330 342 353 347 349 381 407
2750.0 423 423 413 387 379 384 369 348 335 323
2790.0 324 324 321 335 342 356 356 340 335 348
2830.0 364 366 353 339 327 298 301 310 302 310
2870.0 291 315 328 300 284 288 332 343 309 311
2910.0 320 325 325 324 301 293 285 309 360 347
2950.0 325 348 364 345 351 355 345 353 336 334
2990.0 357 357 332 328 339 334 348 357 368 355
3030.0 337 362 356 353 350 331 333 326 305 281
3070.0 267 291 302 295 284 274 312 344 341 333
3110.0 331 377 426 419 400 356 371 437 426 368
3150.0 348 381 362 344 332 322 337 325 328 358
3190.0 361 337 362 385 358 367 401 362 348 385
3230.0 406 403 374 370 389 415 409 388 383 390
3270.0 380 391 385 371 375 356 364 384 371 356
3310.0 368 362 326 336 355 356 356 394 412 387
3350.0 403 420 421 452 484 498 524 543 640 834
3390.0 1011 1178 1393 1576 1741 1892 1929 1893 1818 1689
3430.0 1465 1278 1128 950 855 838 834 851 924 1108
3470.0 1321 1581 1950 2389 3038 3933 4960 5961 6988 8157
3510.0 9375 10000 9498 8578 7508 6409 5026 3171 1785 1078
3550.0 812 700 606 503 467 462 441 387 315 304
3590.0 307 318 353 358 315 275 286 294 287 291
3630.0 311 344 319 297 317 320 301 327 311 337
3670.0 379 329 310 283 266 304 318 313 326 346
3710.0 342 299 287 310 285 292 309 293 324 331
3750.0 350 382 331 268 279 257 228 280 297 281
3790.0 308 337 341 337 310 265 261 268 281 315
3830.0 302 308 332 293 273
##END=
