##TITLE=2-Thiophenesulfonyl chloride
##JCAMP-DX=4.24
##DATA TYPE=INFRARED SPECTRUM
##ORIGIN=EPA-IR VAPOR PHASE LIBRARY
##OWNER=SRD/NIST
Collection (C) 2018 copyright by the U.S. Secretary of Commerce
on behalf of the United States of America. All rights reserved.
##CAS REGISTRY NO=16629-19-9
##MOLFORM=C 4 H 3 Cl O 2 S 2
##$NIST SOURCE=MSDC-IR
##STATE=gas
##XUNITS=1/CM
##YUNITS=ABSORBANCE
##XFACTOR=1.
##YFACTOR=0.001
##DELTAX=1.92898
##FIRSTX=549.8
##LASTX=4000.7
##FIRSTY=201.82
##MAXX=4000.7
##MINX=549.759
##MAXY=0.44398
##MINY=0
##NPOINTS=1790
##XYDATA=(X++(Y..Y))
549.759 201.82 231.98 247.32 257.07 269.56 268.15 249.81 234.69 216.66 192.89
569.049 173.93 166.38 171.76 187.56 212.7 247.04 288.06 331.44 373.25 410.93
588.339 435.97 443.98 442.41 427.9 392.13 348.14 302.47 250.11 198.08 152.95
607.628 115.49 86.12 64.94 50.86 42.33 37.48 34.79 33.1 32.16 31.71
626.918 31.21 30.43 29.12 27.67 25.97 24.27 22.66 21.65 21.59 21.99
646.208 24.03 28.81 37.03 49.43 66.02 84.85 102.57 115.65 122.84 127.58
665.498 130.76 125.43 115.06 106.38 90.88 68.14 47.94 34.57 27.69 24.72
684.787 22.95 21.39 20.57 20.71 21.88 24.34 29.1 36.59 47.21 61.07
704.077 77.54 96.11 116.12 136.2 154.5 170.69 184.55 186.95 170.72 151.14
723.367 132.94 112.4 92.05 72.59 55.46 41.33 30.98 24.41 20.9 19.4
742.657 19.05 19.19 19.02 18.71 18.38 17.61 16.63 15.24 13.57 11.96
761.947 10.0077 8.467 7.17 5.88 5.1 4.49 4.19 4.1 4.09 4.04
781.236 4.08 4.22 4.44 4.54 4.62 4.89 5.03 5 4.93 4.88
800.526 5 4.95 5.11 5.45 5.32 5.48 5.84 5.88 5.86 5.93
819.816 5.93 5.95 5.78 5.65 5.88 6.41 7.22 8.424 9.9678 11.3
839.106 12.67 14.71 16.94 18.99 21.17 23.18 24.81 25.85 26.55 26.9
858.395 26.29 24.86 23.14 20.76 17.84 15.3 12.8 10.31 8.315 6.54
877.685 5.12 4.42 4.1 3.64 3.14 3 2.96 2.81 2.82 2.78
896.975 2.75 2.93 2.81 2.76 2.85 2.9 2.94 3.12 3.14 2.93
916.265 2.97 3.01 3.12 3.14 3.26 3.48 3.6 3.79 4.11 4.17
935.555 4.25 4.45 4.48 4.42 4.32 4.32 4.11 3.73 3.47 3.47
954.844 3.53 3.36 3.4 3.5 3.48 3.53 3.58 3.56 3.5 3.76
974.134 3.94 4.2 4.74 5.15 5.85 6.86 7.82 8.814 10.76 13.69
993.424 17.08 21.21 25.62 30.47 36.71 45.03 54.72 65.12 75.39 83.02
1012.714 86.31 87.34 87.56 83.89 76.55 69.04 58.33 43.39 29.58 19.69
1032.003 13.79 10.68 8.88 7.84 7.19 6.28 6.09 6.29 5.97 5.64
1051.293 5.92 6.45 7.48 9.06727 9.9188 11.16 12.8 14.05 14.84 15.18
1070.583 15.63 16.25 16.32 16.09 16.2 16.52 17.15 18.2 20 21.28
1089.873 22.26 23.29 23.11 22.63 21.14 18.98 17.16 15.16 13.22 11.82
1109.163 10.14 8.681 8.478 8.617 8.47 8.036 8.589 9.09763 8.781 9.2757
1128.452 10.27 11.18 12.71 14.08 15.26 17.01 18.27 19.8 21.61 22.83
1147.742 24.05 25.91 27.96 30.71 34.6 39.71 47.27 56.6 68.33 83.81
1167.032 102.99 124.92 148.91 175.2 202.4 228.57 253.15 275.83 294.27 305.42
1186.322 308.99 306.3 296.27 277.74 252.86 224.1 192.92 161.25 130.9 103.17
1205.611 79.06 59.89 46.51 38.4 33.52 32.02 33.57 37.48 45.21 55.45
1224.901 65.16 72.27 74.82 76.37 80.91 76.81 70.28 68.47 60.23 47.04
1244.191 35.36 27.46 22.56 19.84 18.3 17.02 15.72 14.35 13.1 11.91
1263.481 10.79 9.7171 8.591 7.46 6.41 5.51 4.8 4.4 4.23 4.1
1282.771 3.84 3.65 3.76 3.64 3.6 3.77 3.82 3.91 4 4.07
1302.060 4.32 4.59 4.86 5.28 5.71 5.99 6.26 6.64 6.99 7.44
1321.350 7.93 8.318 8.873 9.6549 10.71 12.03 13.7 16.02 18.73 21.54
1340.640 23.95 25.36 25.94 26.35 26.4 25.18 24 23.06 21 18.6
1359.930 17.15 16.84 17.82 20.27 23.84 28.28 33.66 40.39 48.58 58.57
1379.219 70.97 86.12 104.73 127.12 153.4 183.45 216.61 251.15 284.56 314.29
1398.509 337.95 353.94 360.18 354.54 337.31 311.6 278.2 238.15 196.58 158.17
1417.799 124.54 95.36 71.71 53.63 40.41 31.48 25.65 21.84 19.2 17.21
1437.089 15.37 13.66 11.97 10.24 8.631 7.31 6.36 5.66 5.05 4.61
1456.378 4.3 4.01 3.74 3.52 3.45 3.43 3.33 3.24 3.29 3.4
1475.668 3.52 3.68 3.94 4.36 4.89 5.54 6.54 7.75 9.10776 10.84
1494.958 12.93 15.35 17.78 19.72 20.86 21.22 21.06 20.42 18.86 16.81
1514.248 14.79 12.11 8.9757 6.4 4.8 3.93 3.44 3.28 3.24 3.27
1533.538 3.47 3.67 3.94 4.46 5.09 5.82 6.73 7.78 8.865 9.8919
1552.827 10.66 11.24 11.52 11.44 11.08 10.35 9.4545 8.51 7.48 6.42
1572.117 5.32 4.46 3.77 3.29 3.1 2.94 2.79 2.63 2.45 2.39
1591.407 2.35 2.28 2.26 2.2 2.27 2.32 2.39 2.55 2.64 2.74
1610.697 2.95 3.05 3.15 3.29 3.4 3.57 3.64 3.63 3.56 3.36
1629.986 3.15 3.01 2.76 2.55 2.35 2.23 2.12 2.09 2.07 2
1649.276 2.11 2.2 2.23 2.29 2.38 2.52 2.67 2.87 3.15 3.44
1668.566 3.69 3.98 4.4 4.8 5.16 5.45 5.64 5.84 5.9 5.75
1687.856 5.54 5.21 4.81 4.36 3.9 3.48 3.06 2.66 2.51 2.46
1707.146 2.32 2.28 2.26 2.21 2.23 2.31 2.3 2.26 2.38 2.53
1726.435 2.62 2.7 2.88 3.1 3.48 4.01 4.44 4.86 5.32 5.59
1745.725 5.8 6.05 6.13 6.06 5.78 5.39 4.98 4.54 4.01 3.54
1765.015 3.1 2.66 2.41 2.19 1.99 1.95 1.9 1.85 1.9 1.89
1784.305 1.85 1.86 1.87 1.85 1.93 2.13 2.28 2.43 2.71 3.01
1803.594 3.31 3.72 4.2 4.64 4.95 5.21 5.43 5.47 5.39 5.12
1822.884 4.77 4.43 4 3.59 3.17 2.78 2.51 2.34 2.24 2.12
1842.174 1.99 1.94 1.89 1.85 1.86 1.85 1.76 1.65 1.64 1.59
1861.464 1.53 1.51 1.5 1.55 1.45 1.38 1.47 1.48 1.44 1.38
1880.754 1.28 1.25 1.27 1.26 1.19 1.15 1.16 1.14 1.12 1.12
1900.043 1.06 1.07 1.1 1.07 1.05 1.13 1.19 1.16 1.11 1.07
1919.333 1.14 1.19 1.2 1.22 1.14 1.13 1.23 1.22 1.13 1.14
1938.623 1.19 1.21 1.24 1.24 1.25 1.31 1.24 1.17 1.28 1.29
1957.913 1.21 1.26 1.32 1.28 1.21 1.15 1.13 1.15 1.17 1.12
1977.202 1.11 1.14 1.12 1.21 1.21 1.18 1.26 1.3 1.3 1.3
1996.492 1.43 1.53 1.57 1.68 1.74 1.81 1.97 2.01 2 2
2015.782 1.91 1.94 2.02 2.05 2.07 2.12 2.13 2.04 1.94 1.92
2035.072 1.87 1.81 1.73 1.57 1.48 1.45 1.42 1.4 1.43 1.49
2054.362 1.51 1.53 1.6 1.69 1.78 1.84 1.77 1.7 1.69 1.69
2073.651 1.7 1.63 1.63 1.76 1.86 1.9 1.92 1.99 1.98 1.86
2092.941 1.9 1.92 1.95 2 1.89 1.82 1.82 1.79 1.7 1.6
2112.231 1.53 1.52 1.44 1.34 1.24 1.14 1.16 1.13 1.04 0.96
2131.521 0.94 1.01 0.95 0.98 1.06 1.03 1.1 1.16 1.29 1.38
2150.810 1.42 1.46 1.37 1.44 1.6 1.65 1.7 1.78 1.8 1.78
2170.100 1.7 1.69 1.78 1.68 1.61 1.77 1.83 1.85 1.92 1.89
2189.390 1.95 1.95 1.95 1.95 1.81 1.78 1.74 1.64 1.56 1.45
2208.680 1.46 1.48 1.36 1.26 1.19 1.15 1.06 1.03 1.07 1.06
2227.970 1.1 1.18 1.3 1.38 1.41 1.37 1.43 1.58 1.65 1.64
2247.259 1.62 1.72 1.87 1.89 1.79 1.71 1.72 1.63 1.5 1.53
2266.549 1.44 1.3 1.25 1.2 1.24 1.19 1.09 1.01 1.01 1.1
2285.839 1.09 1.06 1.13 1.13 0.98 0.96 0.95 0.87 0.88 1
2305.129 0.98 0.88 0.99 1.06 0.91 0.9 1.01 1.02 0.97 1.07
2324.418 1.12 1.1 1.17 1.24 1.27 1.26 1.34 1.45 1.54 1.66
2343.708 1.67 1.72 1.91 1.95 2.03 2.18 2.26 2.45 2.5 2.49
2362.998 2.44 2.37 2.43 2.35 2.32 2.32 2.08 1.9 1.94 1.94
2382.288 1.95 1.99 2.04 2.2 2.33 2.4 2.53 2.73 2.9 3.12
2401.578 3.36 3.64 3.91 4.03 4.12 4.15 4.11 3.96 3.76 3.59
2420.867 3.34 3.01 2.65 2.26 1.93 1.62 1.41 1.41 1.36 1.32
2440.157 1.29 1.29 1.29 1.29 1.28 1.23 1.22 1.28 1.37 1.43
2459.447 1.47 1.49 1.46 1.47 1.51 1.42 1.38 1.39 1.34 1.4
2478.737 1.43 1.35 1.31 1.29 1.28 1.33 1.3 1.25 1.29 1.35
2498.026 1.37 1.25 1.15 1.05 1.07 1.17 1.16 1.16 1.19 1.27
2517.316 1.35 1.26 1.15 1.27 1.48 1.43 1.32 1.4 1.33 1.26
2536.606 1.35 1.39 1.42 1.35 1.31 1.49 1.5 1.5 1.68 1.79
2555.896 1.79 1.75 1.91 2.13 2.29 2.53 2.73 2.83 3.09 3.35
2575.186 3.33 3.42 3.57 3.62 3.64 3.65 3.61 3.54 3.37 3.1
2594.475 2.89 2.69 2.43 2.28 2.09 1.78 1.62 1.53 1.23 1.04
2613.765 1.1 1.05 1 0.97 0.86 0.86 0.91 0.91 0.94 0.97
2633.055 0.91 0.86 0.96 1 0.89 0.86 0.77 0.72 0.73 0.7
2652.345 0.75 0.74 0.8 0.85 0.81 0.81 0.79 0.73 0.73 0.73
2671.634 0.76 0.8 0.81 0.88 0.94 0.97 0.95 0.96 0.87 0.84
2690.924 0.8 0.77 0.79 0.8 0.95 0.93 0.97 0.93 0.71 0.7
2710.214 0.79 0.84 0.83 0.82 0.8 0.8 0.98 1.21 1.22 1.22
2729.504 1.19 1.15 1.08 0.98 1.02 1.1 1.05 0.99 0.97 0.9
2748.794 0.94 0.95 0.83 0.73 0.77 0.82 0.8 0.84 0.8 0.72
2768.083 0.82 0.86 0.98 0.98 1.02 1.18 1.15 1.22 1.36 1.36
2787.373 1.28 1.4 1.55 1.44 1.29 1.28 1.35 1.28 1.14 1.03
2806.663 0.97 0.98 0.77 0.7 0.77 0.7 0.61 0.55 0.5 0.35
2825.953 0.33 0.45 0.44 0.37 0.42 0.47 0.4 0.46 0.5 0.55
2845.242 0.51 0.35 0.38 0.42 0.47 0.53 0.56 0.42 0.38 0.43
2864.532 0.34 0.39 0.4 0.32 0.3 0.26 0.31 0.45 0.55 0.48
2883.822 0.42 0.48 0.42 0.47 0.43 0.33 0.4 0.47 0.49 0.46
2903.112 0.57 0.5 0.38 0.46 0.55 0.53 0.46 0.35 0.28 0.5
2922.401 0.53 0.46 0.45 0.34 0.35 0.41 0.51 0.56 0.57 0.61
2941.691 0.58 0.43 0.51 0.55 0.47 0.47 0.44 0.46 0.48 0.53
2960.981 0.58 0.58 0.46 0.44 0.49 0.31 0.28 0.47 0.63 0.75
2980.271 0.61 0.47 0.47 0.38 0.34 0.43 0.38 0.5 0.64 0.55
2999.561 0.62 0.66 0.45 0.39 0.43 0.45 0.48 0.46 0.5 0.39
3018.850 0.35 0.47 0.48 0.38 0.36 0.41 0.51 0.6 0.58 0.61
3038.140 0.41 0.23 0.41 0.53 0.57 0.48 0.36 0.33 0.46 0.64
3057.430 0.6 0.53 0.59 0.65 0.69 0.77 0.93 1.12 1.16 1.14
3076.720 1.42 1.99 2.32 2.77 3.51 4 4.53 5.19 5.68 6.44
3096.009 6.93 7.03 7.39 7.5 6.95 6.51 6.35 5.57 4.88 4.57
3115.299 3.99 3.08 2.43 2.11 1.91 1.77 1.48 1.33 1.17 1.12
3134.589 1.08 0.97 1.01 0.8 0.63 0.53 0.47 0.62 0.69 0.57
3153.879 0.49 0.48 0.5 0.55 0.61 0.61 0.58 0.62 0.51 0.49
3173.169 0.39 0.39 0.54 0.4 0.39 0.39 0.34 0.42 0.41 0.22
3192.458 0.31 0.44 0.41 0.4 0.41 0.58 0.67 0.51 0.4 0.55
3211.748 0.46 0.43 0.59 0.51 0.6 0.56 0.23 0.26 0.46 0.56
3231.038 0.4 0.25 0.36 0.44 0.45 0.4 0.45 0.37 0.33 0.41
3250.328 0.48 0.52 0.47 0.53 0.51 0.3 0.29 0.29 0.15 0.16
3269.617 0.25 0.3 0.45 0.43 0.27 0.37 0.44 0.49 0.5 0.46
3288.907 0.44 0.42 0.47 0.56 0.54 0.39 0.34 0.41 0.41 0.37
3308.197 0.32 0.37 0.54 0.55 0.61 0.57 0.24 0.27 0.56 0.53
3327.487 0.53 0.49 0.43 0.49 0.49 0.51 0.35 0.27 0.6 0.7
3346.777 0.42 0.37 0.26 0 0.1 0.38 0.32 0.18 0.19 0.16
3366.066 0.11 0.14 0.25 0.34 0.44 0.49 0.56 0.52 0.35 0.37
3385.356 0.38 0.34 0.37 0.4 0.46 0.62 0.54 0.4 0.5 0.64
3404.646 0.71 0.64 0.48 0.44 0.52 0.48 0.4 0.42 0.49 0.49
3423.936 0.59 0.78 0.61 0.4 0.38 0.35 0.45 0.48 0.39 0.43
3443.225 0.33 0.5 0.58 0.39 0.48 0.47 0.36 0.34 0.38 0.46
3462.515 0.5 0.49 0.51 0.63 0.54 0.52 0.62 0.55 0.41 0.16
3481.805 0.18 0.32 0.37 0.24 0.19 0.32 0.39 0.34 0.4 0.57
3501.095 0.34 0.32 0.31 0.23 0.33 0.37 0.4 0.35 0.34 0.24
3520.385 0.2 0.45 0.54 0.46 0.37 0.4 0.37 0.33 0.36 0.24
3539.674 0.25 0.28 0.26 0.13 0.13 0.33 0.39 0.51 0.58 0.46
3558.964 0.37 0.31 0.23 0.26 0.23 0.09 0.15 0.28 0.5 0.43
3578.254 0.2 0.21 0.27 0.45 0.43 0.37 0.41 0.47 0.35 0.21
3597.544 0.58 0.6 0.44 0.5 0.4 0.31 0.15 0.09 0.18 0.23
3616.833 0.18 0.15 0.32 0.45 0.32 0.28 0.56 0.67 0.52 0.58
3636.123 0.7 0.67 0.65 0.62 0.36 0.28 0.42 0.47 0.52 0.48
3655.413 0.34 0.32 0.28 0.28 0.35 0.49 0.57 0.48 0.48 0.56
3674.703 0.64 0.52 0.36 0.35 0.49 0.6 0.65 0.56 0.52 0.47
3693.993 0.27 0.29 0.35 0.28 0.25 0.35 0.3 0.29 0.34 0.34
3713.282 0.54 0.65 0.54 0.39 0.49 0.63 0.47 0.36 0.31 0.31
3732.572 0.5 0.61 0.48 0.52 0.7 0.64 0.68 0.68 0.62 0.64
3751.862 0.62 0.61 0.64 0.62 0.81 0.99 0.86 0.74 0.76 0.95
3771.152 0.73 0.46 0.47 0.49 0.6 0.82 0.79 0.61 0.6 0.68
3790.441 0.71 0.72 0.69 0.57 0.33 0.42 0.61 0.54 0.63 0.6
3809.731 0.62 0.67 0.53 0.7 0.79 0.72 0.84 0.6 0.45 0.6
3829.021 0.63 0.7 0.95 1.09 1.09 1.19 1.09 1.12 1.31 1.19
3848.311 1.06 1.28 1.34 1.19 1.19 1.11 0.81 0.63 0.55 0.53
3867.601 0.7 0.71 0.52 0.46 0.45 0.43 0.49 0.57 0.41 0.19
3886.890 0.44 0.5 0.33 0.31 0.48 0.49 0.32 0.43 0.65 0.76
3906.180 0.7 0.56 0.47 0.45 0.43 0.41 0.46 0.61 0.71 0.54
3925.470 0.42 0.49 0.52 0.72 0.77 0.82 1.03 1.06 1.13 1.31
3944.760 1.47 1.57 1.61 1.63 1.7 1.75 1.66 1.65 1.43 1.25
3964.049 1.3 1.2 1.02 1.1 0.96 0.56 0.67 0.8 0.65 0.48
3983.339 0.4 0.47 0.43 0.32 0.39 0.42 0.44 0.47 0.45 0.43
##END=
