##TITLE=t-Butyl acrylate
##JCAMP-DX=4.24
##DATA TYPE=INFRARED SPECTRUM
##ORIGIN=NIST Mass Spectrometry Data Center
##OWNER=NIST Standard Reference Data Program
Collection (C) 2018 copyright by the U.S. Secretary of Commerce
on behalf of the United States of America. All rights reserved.
##CAS REGISTRY NO=1663-39-4
##MOLFORM=C 7 H 12 O 2
##$NIST SOURCE=MSDC-IR
##SPECTROMETER/DATA SYSTEM=HP-GC/MS/IRD
##STATE=gas
##XUNITS=1/CM
##YUNITS=ABSORBANCE
##XFACTOR=1.0
##YFACTOR=0.000007100
##DELTAX=4.0
##FIRSTX=550.0
##LASTX=3846.0
##FIRSTY=0.000383
##MAXX=3846
##MINX=550
##MAXY=0.071
##MINY=0
##NPOINTS=825
##XYDATA=(X++(Y..Y))
550.0 54 29 10 25 29 19 23 34 39 30
590.0 13 13 17 19 25 22 13 17 13 22
630.0 28 17 6 12 27 25 33 40 35 52
670.0 73 94 116 118 113 105 93 68 40 30
710.0 38 45 36 32 41 56 80 107 142 177
750.0 198 217 216 186 163 144 128 144 184 241
790.0 322 414 518 627 721 770 763 737 706 686
830.0 692 736 788 833 829 768 662 525 392 302
870.0 254 232 222 240 269 291 340 402 457 488
910.0 488 475 444 393 347 322 327 369 434 533
950.0 652 796 953 1013 1003 1012 1013 999 998 979
990.0 874 721 593 494 409 357 361 408 492 618
1030.0 801 1060 1380 1676 1849 1905 1822 1607 1287 965
1070.0 748 618 527 464 422 400 398 420 450 485
1110.0 558 652 772 953 1204 1542 2005 2641 3482 4571
1150.0 5874 7269 8583 9567 10000 9787 8984 7753 6385 5164
1190.0 4217 3597 3351 3448 3727 3940 3943 3744 3336 2713
1230.0 2145 1918 1937 2040 2132 2174 2179 2196 2324 2593
1270.0 2949 3324 3609 3747 3784 3726 3470 3032 2572 2117
1310.0 1549 972 639 503 433 394 377 374 387 437
1350.0 545 726 978 1276 1579 1850 1937 1816 1692 1695
1390.0 1916 2381 2848 3069 3033 2729 2154 1449 917 648
1430.0 530 480 470 485 512 543 572 593 610 619
1470.0 616 610 597 570 524 466 402 335 275 224
1510.0 188 168 152 136 126 119 115 109 106 102
1550.0 97 95 93 93 96 99 104 109 125 143
1590.0 161 183 215 257 308 371 434 489 534 582
1630.0 617 609 571 520 451 366 299 271 267 278
1670.0 292 312 334 355 385 423 463 522 622 791
1710.0 1087 1586 2368 3454 4752 5985 6693 6863 6636 5650
1750.0 4146 2755 1718 1045 658 454 350 292 259 236
1790.0 216 206 196 188 177 165 153 148 137 131
1830.0 125 110 102 96 88 79 75 76 75 73
1870.0 72 76 77 78 79 80 84 90 94 103
1910.0 118 132 146 148 143 134 113 93 77 65
1950.0 60 57 53 45 40 38 36 33 36 40
1990.0 40 41 37 40 44 39 41 35 31 32
2030.0 33 34 33 33 37 39 40 41 39 38
2070.0 37 35 29 26 26 27 26 25 24 27
2110.0 32 35 37 36 38 40 39 34 31 28
2150.0 20 22 26 20 15 14 13 9 6 10
2190.0 13 14 13 12 14 15 14 11 8 6
2230.0 2 0 3 2 1 4 6 2 3 4
2270.0 3 8 12 11 12 18 21 22 24 25
2310.0 24 30 29 28 30 29 25 18 15 11
2350.0 14 20 18 18 25 26 21 22 23 22
2390.0 19 18 23 21 20 23 19 19 19 17
2430.0 21 18 15 14 11 13 13 12 12 14
2470.0 16 8 6 8 6 7 12 12 7 7
2510.0 11 11 8 9 16 17 14 20 24 18
2550.0 15 15 18 18 18 13 12 17 21 10
2590.0 8 14 18 21 19 21 24 21 23 26
2630.0 32 36 33 35 34 27 24 23 26 24
2670.0 26 24 24 26 29 30 27 28 28 27
2710.0 27 28 35 40 39 40 42 45 45 40
2750.0 35 33 37 38 38 37 38 44 43 43
2790.0 42 44 48 48 55 60 65 73 79 87
2830.0 93 94 94 101 116 130 151 181 210 255
2870.0 299 337 384 426 467 504 540 576 615 653
2910.0 694 731 785 866 965 1078 1192 1278 1315 1303
2950.0 1252 1203 1208 1311 1534 1861 2280 2707 3007 3031
2990.0 2739 2334 1841 1374 1065 874 747 649 548 453
3030.0 389 360 340 315 288 253 207 165 147 148
3070.0 150 150 147 147 146 146 164 212 250 264
3110.0 267 246 202 142 98 74 63 65 70 65
3150.0 55 53 51 50 56 56 54 58 65 65
3190.0 61 62 57 59 65 59 56 50 49 49
3230.0 50 51 50 44 35 34 36 36 37 39
3270.0 33 28 29 23 16 23 25 24 22 26
3310.0 27 18 22 22 24 36 33 23 22 37
3350.0 35 21 21 14 18 29 30 29 30 35
3390.0 33 27 30 34 33 30 24 31 38 35
3430.0 43 56 57 65 84 96 103 102 100 90
3470.0 81 73 59 43 39 41 36 36 30 18
3510.0 18 25 27 26 16 10 8 7 18 27
3550.0 27 20 23 26 20 24 28 28 24 20
3590.0 20 17 19 17 13 16 19 22 26 24
3630.0 19 20 20 13 9 17 17 12 18 20
3670.0 11 8 13 16 19 11 10 12 12 7
3710.0 4 16 14 4 11 15 7 9 9 5
3750.0 7 9 13 14 9 13 22 11 5 10
3790.0 8 9 9 2 5 15 16 11 8 8
3830.0 16 20 9 15 20
##END=
