##TITLE=2-(Acetoacetyl)phenol
##JCAMP-DX=4.24
##DATA TYPE=INFRARED SPECTRUM
##ORIGIN=EPA-IR VAPOR PHASE LIBRARY
##OWNER=SRD/NIST
Collection (C) 2018 copyright by the U.S. Secretary of Commerce
on behalf of the United States of America. All rights reserved.
##CAS REGISTRY NO=16636-62-7
##MOLFORM=C 10 H 10 O 3
##$NIST SOURCE=MSDC-IR
##STATE=gas
##XUNITS=1/CM
##YUNITS=ABSORBANCE
##XFACTOR=1.
##YFACTOR=0.001
##DELTAX=1.92898
##FIRSTX=549.8
##LASTX=4000.7
##FIRSTY=9.77
##MAXX=4000.7
##MINX=549.759
##MAXY=0.1603
##MINY=0.000155
##NPOINTS=1790
##XYDATA=(X++(Y..Y))
549.759 9.77 9.48 9.39 9.4 9.54 9.54 9.33 9.33 9.13 8.67
569.049 8.24 7.66 7.3 6.67 6.02 6.1 6.13 5.87 5.72 5.84
588.339 6.18 6.38 6.6 6.87 6.89 7.35 8.16 8.89 9.8 10.68
607.628 11.69 12.89 13.7 14.26 14.54 13.91 13.01 12.06 10.86 9.82
626.918 8.73 7.76 7.21 6.72 6.24 5.66 5.34 5.39 5.43 5.48
646.208 5.33 5.53 6.04 6.47 7.27 7.87 8.67 10.02 11.22 12.28
665.498 12.97 13.55 14.14 14.32 14.27 14.02 13.36 12.82 12.31 11.74
684.787 11.17 10.82 10.73 10.63 10.52 10.62 11.2 11.97 12.54 13.05
704.077 13.59 14.31 15.28 16.19 17.05 17.95 18.73 19.31 19.8 20.36
723.367 20.92 21.36 22.01 22.82 23.95 25.58 27.58 30.39 34.19 38.38
742.657 42.76 47.77 52.94 57.69 61.25 62.26 60.61 57.35 52.69 46.61
761.947 40.05 33.78 28.26 23.63 19.65 16.15 13.37 11.42 10.04 9.09
781.236 8.51 8.2 8.06 8.01 8.23 8.76 9.51 10.61 11.83 12.97
800.526 14.3 15.12 15.3 15.16 14.6 13.61 12.02 10.16 8.71 7.94
819.816 7.31 6.85 6.99 6.97 6.9 7.26 7.67 8.12 8.58 8.98
839.106 9.28 9.45 9.5 9.64 9.69 9.55 9.56 9.56 9.61 10.19
858.395 11.14 12.27 13.9 15.53 16.66 17.41 17.62 17.32 16.71 15.49
877.685 13.68 11.97 10.88 10.48 10.46 10.51 10.63 10.75 11.06 11.31
896.975 11.29 11.04 10.68 10.47 10.21 9.97 9.72 9.43 9.24 9.17
916.265 9.25 9.43 9.59 9.77 9.9 10.26 10.96 11.84 12.52 12.86
935.555 13.07 13.04 12.74 12.29 11.49 10.59 9.77 9.03 8.59 8.33
954.844 8.2 8.34 8.68 8.93 9.39 10.19 10.82 11.53 12.17 12.59
974.134 13.23 13.76 13.96 14.01 13.84 13.54 13.32 13.06 12.63 12.2
993.424 11.7 11.17 10.87 10.45 10.05 9.56 9.01 8.73 8.47 8.35
1012.714 8.22 8.18 8.46 8.97 9.47 9.95 10.85 11.75 12.22 12.4
1032.003 12.59 12.73 12.72 12.61 12.37 11.89 11.49 11.64 12.25 12.71
1051.293 12.86 13.2 13.45 13.1 12.66 12.02 11.07 10.02 8.57 7.53
1070.583 7.07 6.73 6.45 6 6.09 6.33 6.04 6.04 6.51 6.71
1089.873 6.85 6.8 6.77 7.37 7.83 8.08 8.66 9.81 10.61 10.89
1109.163 11.58 12.61 13.28 14.36 15.99 17.4 18.58 19.76 20.81 21.57
1128.452 22.01 22.41 23.37 24.67 26.3 29.05 32.22 36.29 42.45 49.43
1147.742 57.45 66.5 75.23 81.6 84.26 83.55 80.71 75.75 68.1 58.49
1167.032 48.96 41.89 38.09 36.61 36.39 37.17 38.57 40.17 42.13 44.51
1186.322 47.19 50.25 53.36 55.87 57.84 59.23 60.05 60.36 59.98 59.18
1205.611 58.59 58.69 58.8 59.3 60.35 61.38 62.1 62.12 61.8 60.84
1224.901 59.48 58.41 57.12 56.19 56.5 57.65 60.01 63.35 66.74 69.55
1244.191 71.5 72.51 72.35 70.96 68.4 65.09 61.7 58.05 54.9 52.63
1263.481 50.73 49.62 48.98 48.74 49.02 49.84 51.07 53 55.28 58.2
1282.771 62.03 66.32 71.15 76.32 81.65 86.91 91.32 94.27 95.97 96.34
1302.060 95.19 92.89 89.61 85.58 81.43 77.76 74.82 72.37 69.97 67.65
1321.350 65.53 63.68 62.19 61.05 60.1 58.99 57.51 55.83 53.98 52.01
1340.640 50.01 48.13 46.6 45.34 44.45 43.91 43.58 43.47 43.41 43.4
1359.930 43.24 42.83 42.21 41.31 40.27 39.18 38.12 37.13 36.2 35.49
1379.219 34.95 34.46 33.98 33.34 32.56 31.77 31.02 30.38 29.85 29.47
1398.509 29.25 29.17 29.26 29.48 29.82 30.21 30.63 31.15 31.72 32.23
1417.799 32.66 33.07 33.42 33.79 34.14 34.49 34.93 35.53 36.32 37.31
1437.089 38.51 39.78 41.16 42.61 43.94 45.12 46.1 46.87 47.38 47.54
1456.378 47.38 46.96 46.36 45.74 45.36 45.27 45.64 46.48 48.02 50.33
1475.668 53.33 56.98 60.76 64.29 66.91 68.43 68.84 68.35 66.98 64.6
1494.958 61.35 57.51 53.49 49.57 46.13 43.06 40.18 37.44 34.85 32.5
1514.248 30.51 28.83 27.35 26.24 25.34 24.72 24.4 24.14 24.09 24.25
1533.538 24.6 24.94 25.43 26.18 26.91 27.76 28.77 29.96 31.37 32.99
1552.827 34.87 37.07 39.71 43.04 47.08 51.71 57.43 64.35 72.24 81.09
1572.117 90.29 98.99 106.85 112.85 116.05 116.69 114.98 111.39 106.43 100.83
1591.407 95.83 92.45 91.12 91.91 94.44 98.32 103.21 108.96 115.39 122.55
1610.697 130.1 137.79 145.07 151.68 156.93 159.93 160.3 158.06 153.92 148.31
1629.986 141.96 135.53 129.87 125.7 123.39 122.39 121.88 121.39 120.08 117.6
1649.276 113.56 107.95 100.4 91.86 83.03 73.92 65.43 57.47 50.39 44.54
1668.566 39.58 35.4 32.11 29.41 27.16 25.4 23.99 22.92 22.13 21.38
1687.856 20.8 20.4 20.05 19.88 19.94 20.14 20.49 20.99 21.74 22.68
1707.146 23.67 24.8 26.01 27.3 28.69 30.16 31.78 33.47 35.17 36.89
1726.435 38.68 40.47 42.06 43.21 44 44.21 43.57 42.09 39.94 37.22
1745.725 34.19 31.01 27.99 25.28 22.92 20.89 18.99 17.33 15.95 14.79
1765.015 13.75 12.79 11.91 11.19 10.58 9.97 9.4 8.92 8.5 8.11
1784.305 7.86 7.69 7.41 7.17 6.99 6.79 6.58 6.32 6.07 5.83
1803.594 5.6 5.27 4.94 4.76 4.67 4.49 4.31 4.25 4.19 4.08
1822.884 4.02 3.98 3.88 3.87 3.86 3.79 3.69 3.67 3.63 3.55
1842.174 3.52 3.46 3.42 3.41 3.37 3.31 3.3 3.38 3.41 3.4
1861.464 3.5 3.54 3.56 3.59 3.58 3.6 3.6 3.56 3.56 3.52
1880.754 3.43 3.33 3.24 3.18 3.06 2.97 2.91 2.88 2.93 2.92
1900.043 2.93 3.05 3.16 3.26 3.37 3.44 3.41 3.38 3.38 3.28
1919.333 3.2 3.18 3.13 2.99 2.89 2.91 2.98 3.04 3.09 3.2
1938.623 3.38 3.58 3.6 3.64 3.68 3.56 3.47 3.29 3.04 2.78
1957.913 2.57 2.42 2.26 2.11 2 2.02 2.07 2.05 2.04 1.98
1977.202 1.88 1.87 1.99 2.03 1.97 1.98 2 2.05 2.09 2.11
1996.492 2.1 2.04 2.01 2.02 2.02 2 1.97 1.89 1.85 1.86
2015.782 1.95 1.95 1.94 1.93 1.92 1.95 1.95 1.93 1.94 1.99
2035.072 1.95 1.92 1.93 1.92 1.93 1.9 1.91 1.9 1.9 1.9
2054.362 1.89 1.85 1.85 1.87 1.88 1.91 1.9 1.92 1.89 1.89
2073.651 1.87 1.83 1.87 1.88 1.88 1.9 1.88 1.87 1.93 1.96
2092.941 1.95 1.94 1.93 1.89 1.89 1.89 1.93 1.97 1.96 1.93
2112.231 1.91 1.84 1.81 1.81 1.81 1.82 1.81 1.78 1.71 1.63
2131.521 1.62 1.69 1.75 1.73 1.67 1.69 1.71 1.72 1.79 1.83
2150.810 1.85 1.88 1.89 1.92 1.94 1.95 1.98 1.98 1.92 1.86
2170.100 1.86 1.84 1.81 1.81 1.82 1.82 1.81 1.79 1.78 1.75
2189.390 1.78 1.78 1.75 1.7 1.68 1.69 1.66 1.65 1.64 1.7
2208.680 1.71 1.67 1.68 1.7 1.69 1.67 1.69 1.7 1.7 1.69
2227.970 1.7 1.69 1.7 1.72 1.71 1.72 1.84 1.88 1.83 1.86
2247.259 1.86 1.83 1.83 1.84 1.84 1.87 1.85 1.79 1.77 1.81
2266.549 1.9 1.95 1.91 1.93 2 1.99 2.01 2.11 2.12 2.09
2285.839 2.09 2.07 2.12 2.11 2.07 2.07 2.01 1.96 2.05 2.07
2305.129 2.02 1.98 1.97 2.03 2.08 2.11 2.1 2.04 1.99 1.96
2324.418 1.98 2 1.99 2.09 2.15 2.11 2.11 2.07 2.07 2.15
2343.708 2.12 2.11 2.16 2.14 2.19 2.26 2.28 2.26 2.22 2.21
2362.998 2.2 2.22 2.26 2.26 2.23 2.23 2.3 2.32 2.2 2.11
2382.288 2.11 2.2 2.26 2.25 2.26 2.27 2.25 2.31 2.38 2.37
2401.578 2.31 2.27 2.32 2.39 2.42 2.31 2.28 2.36 2.39 2.32
2420.867 2.26 2.35 2.45 2.45 2.37 2.35 2.37 2.31 2.29 2.29
2440.157 2.32 2.35 2.35 2.37 2.48 2.51 2.42 2.37 2.44 2.5
2459.447 2.47 2.46 2.53 2.64 2.69 2.66 2.59 2.61 2.65 2.72
2478.737 2.82 2.79 2.71 2.73 2.74 2.75 2.75 2.77 2.78 2.9
2498.026 2.99 2.95 2.91 2.88 2.9 2.9 3 3.07 3.01 3.02
2517.316 3.01 2.97 2.95 2.97 2.94 2.92 3.05 3.15 3.18 3.17
2536.606 3.27 3.35 3.33 3.3 3.34 3.42 3.44 3.44 3.45 3.57
2555.896 3.66 3.65 3.65 3.63 3.58 3.58 3.6 3.65 3.65 3.56
2575.186 3.54 3.55 3.5 3.48 3.57 3.55 3.51 3.5 3.53 3.62
2594.475 3.7 3.82 3.87 3.84 3.84 3.88 3.9 3.87 3.83 3.9
2613.765 3.98 3.99 4.04 4.09 4.12 4.11 4.17 4.12 4.1 4.17
2633.055 4.11 4.12 4.12 4.06 4.04 4 3.9 3.85 3.82 3.81
2652.345 3.74 3.69 3.7 3.68 3.73 3.73 3.7 3.77 3.82 3.75
2671.634 3.67 3.67 3.75 3.81 3.78 3.82 3.87 3.88 3.86 3.89
2690.924 4.03 4.02 4.04 4.18 4.3 4.41 4.39 4.43 4.5 4.55
2710.214 4.6 4.57 4.58 4.68 4.72 4.73 4.66 4.63 4.72 4.75
2729.504 4.78 4.83 4.86 4.88 4.91 4.91 4.93 4.89 4.92 5.09
2748.794 5.12 5.08 5.03 5.03 5.09 5.11 5.09 5.07 5.04 5.01
2768.083 5.01 4.97 4.94 4.99 5.01 4.92 4.92 4.86 4.81 4.83
2787.373 4.78 4.78 4.76 4.76 4.87 4.92 4.93 5.01 5.03 5.02
2806.663 5.06 5.2 5.23 5.22 5.36 5.33 5.32 5.44 5.57 5.5
2825.953 5.45 5.58 5.55 5.52 5.56 5.56 5.5 5.48 5.45 5.41
2845.242 5.41 5.44 5.38 5.31 5.34 5.42 5.49 5.42 5.34 5.35
2864.532 5.39 5.37 5.35 5.41 5.33 5.23 5.25 5.2 5.21 5.33
2883.822 5.45 5.47 5.47 5.55 5.6 5.64 5.7 5.79 5.92 5.99
2903.112 6.05 6.22 6.34 6.42 6.52 6.65 6.83 6.95 7.03 7.19
2922.401 7.42 7.77 7.98 8.2 8.55 8.78 8.96 9.04 9.07 8.9
2941.691 8.75 8.69 8.63 8.46 8.1 7.88 7.75 7.65 7.67 7.7
2960.981 7.66 7.67 7.71 7.94 8.2 8.16 8.16 8.28 8.29 8.43
2980.271 8.52 8.57 8.75 8.91 9.01 9.07 9.25 9.46 9.67 9.93
2999.561 10.13 10.19 10.41 10.72 10.84 10.97 11.13 11.31 11.44 11.47
3018.850 11.37 11.35 11.53 11.57 11.63 11.69 11.72 12 12.41 12.79
3038.140 13.26 13.8 14.21 14.6 15.15 15.74 16.37 17.09 17.75 18.42
3057.430 19.17 19.87 20.58 21.46 22.19 22.54 22.72 22.65 22.32 21.95
3076.720 21.5 20.96 20.42 20.08 19.85 19.54 19.24 18.97 18.65 18.39
3096.009 17.95 17.34 16.73 16.16 15.77 15.48 15.27 15.01 14.82 14.71
3115.299 14.52 14.31 14.13 13.98 13.93 13.91 13.79 13.72 13.56 13.37
3134.589 13.16 12.99 13.04 12.9 12.83 12.85 12.79 12.66 12.63 12.55
3153.879 12.48 12.57 12.59 12.59 12.57 12.56 12.5 12.51 12.42 12.39
3173.169 12.48 12.4 12.3 12.4 12.41 12.27 12.3 12.38 12.3 12.25
3192.458 12.29 12.34 12.33 12.13 12.01 11.98 11.96 11.88 11.96 12.03
3211.748 11.82 11.74 11.74 11.74 11.62 11.49 11.49 11.42 11.43 11.45
3231.038 11.52 11.5 11.43 11.4 11.35 11.32 11.26 11.16 11.21 11.24
3250.328 11.2 11.32 11.24 11.1 11.22 11.29 11.15 10.93 10.9 10.9
3269.617 10.79 10.74 10.63 10.57 10.49 10.44 10.46 10.45 10.41 10.3
3288.907 10.12 10.07 10.18 10.12 10.01 9.98 9.88 9.79 9.7 9.59
3308.197 9.49 9.31 9.22 9.2 9.16 9.02 8.9 8.84 8.83 8.83
3327.487 8.71 8.61 8.65 8.63 8.52 8.43 8.27 8.11 8.21 8.27
3346.777 8.08 7.86 7.85 7.91 7.9 7.86 7.69 7.63 7.61 7.47
3366.066 7.28 7.25 7.24 7.15 7.03 7.01 6.99 6.86 6.8 6.73
3385.356 6.69 6.82 6.77 6.52 6.48 6.46 6.38 6.32 6.23 6.13
3404.646 6.09 6.07 5.92 5.84 5.85 5.84 5.89 5.85 5.72 5.7
3423.936 5.72 5.67 5.64 5.6 5.5 5.6 5.71 5.66 5.74 5.71
3443.225 5.49 5.53 5.48 5.26 5.26 5.31 5.22 5.11 5.05 4.93
3462.515 4.92 4.84 4.69 4.56 4.57 4.57 4.42 4.29 4.11 4.08
3481.805 4.07 3.9 3.72 3.68 3.62 3.67 3.67 3.41 3.28 3.36
3501.095 3.37 3.33 3.2 3 3.02 3.11 3.1 3.01 2.93 2.83
3520.385 2.78 2.86 2.72 2.49 2.55 2.6 2.45 2.28 2.25 2.31
3539.674 2.36 2.32 2.36 2.26 2.01 2.02 2.13 2.24 2.22 2.01
3558.964 1.83 1.7 1.8 1.95 1.93 1.88 1.9 1.95 1.92 1.79
3578.254 1.61 1.54 1.52 1.5 1.41 1.39 1.36 1.4 1.47 1.38
3597.544 1.31 1.18 1.13 1.15 1.17 1.25 1.3 1.22 1.19 1.27
3616.833 1.44 1.62 1.66 1.76 1.81 1.87 2.06 2.08 1.9 1.74
3636.123 1.67 1.69 1.55 1.36 1.33 1.18 1.08 1.08 0.9245 0.7893
3655.413 0.7471 0.7485 0.8441 0.8434 0.8553 0.9144 0.7937 0.7706 0.7625 0.6846
3674.703 0.6189 0.6042 0.5785 0.5944 0.5481 0.3795 0.499 0.5818 0.4911 0.4374
3693.993 0.5343 0.6127 0.5371 0.5861 0.6644 0.6087 0.6355 0.5616 0.4815 0.5208
3713.282 0.4215 0.4084 0.4383 0.4583 0.4592 0.5563 0.5294 0.422 0.5225 0.5229
3732.572 0.4851 0.4172 0.4487 0.4365 0.4648 0.5206 0.3925 0.4069 0.4589 0.5162
3751.862 0.461 0.266 0.2888 0.252 0.2494 0.4411 0.4022 0.281 0.2507 0.2245
3771.152 0.2558 0.342 0.3767 0.2353 0.1888 0.324 0.2718 0.2189 0.3006 0.3478
3790.441 0.3744 0.339 0.3552 0.3716 0.3453 0.2947 0.2115 0.2555 0.3283 0.2909
3809.731 0.2634 0.2478 0.155 0.1729 0.2359 0.2779 0.3739 0.3603 0.1877 0.1839
3829.021 0.4585 0.5799 0.4096 0.3712 0.4733 0.4935 0.4513 0.4465 0.302 0.2905
3848.311 0.4512 0.5189 0.524 0.4799 0.4502 0.4298 0.4838 0.4969 0.4644 0.4621
3867.601 0.3852 0.4156 0.4446 0.3029 0.3721 0.4631 0.4995 0.6094 0.6714 0.6107
3886.890 0.481 0.4361 0.5455 0.5947 0.5761 0.5504 0.4234 0.4518 0.6046 0.6256
3906.180 0.6709 0.6984 0.5486 0.3257 0.1647 0.2413 0.4177 0.3962 0.3522 0.4985
3925.470 0.5223 0.439 0.5442 0.7347 0.7747 0.7534 0.5912 0.4479 0.4154 0.2895
3944.760 0.4741 0.547 0.4183 0.4133 0.4395 0.4371 0.4567 0.471 0.422 0.4331
3964.049 0.2582 0.2289 0.4425 0.4763 0.5269 0.5119 0.3817 0.4018 0.4718 0.5219
3983.339 0.5167 0.4434 0.3284 0.3157 0.338 0.2914 0.4264 0.422 0.4123 0.5046
##END=
