##TITLE=N-Phenylethylenediamine
##JCAMP-DX=4.24
##DATA TYPE=INFRARED SPECTRUM
##ORIGIN=EPA-IR VAPOR PHASE LIBRARY
##OWNER=SRD/NIST
Collection (C) 2018 copyright by the U.S. Secretary of Commerce
on behalf of the United States of America. All rights reserved.
##CAS REGISTRY NO=1664-40-0
##MOLFORM=C 8 H 12 N 2
##$NIST SOURCE=MSDC-IR
##STATE=gas
##XUNITS=1/CM
##YUNITS=ABSORBANCE
##XFACTOR=1.
##YFACTOR=0.001
##DELTAX=1.92898
##FIRSTX=549.8
##LASTX=4000.7
##FIRSTY=11.89
##MAXX=4000.7
##MINX=549.759
##MAXY=0.13678
##MINY=0.0003592
##NPOINTS=1790
##XYDATA=(X++(Y..Y))
549.759 11.89 12.03 12.13 12.29 12.36 12.49 12.59 12.51 12.5 12.53
569.049 12.63 12.59 12.59 12.43 12.18 12.23 12.14 12.01 11.8 11.56
588.339 11.51 11.46 11.31 11.16 11.06 10.97 11.04 11.22 11.32 11.34
607.628 11.43 11.55 11.74 12.05 12.29 12.44 12.61 12.81 13.01 13.21
626.918 13.36 13.42 13.56 13.81 13.92 14.03 14.39 14.66 14.79 15.11
646.208 15.5 15.88 16.19 16.46 16.85 17.32 17.7 18.2 18.92 19.8
665.498 20.74 21.89 23.38 24.9 26.64 28.84 31.14 33.5 35.87 38.1
684.787 40.55 43.4 45.69 45.68 44.16 42.79 41.49 39.99 38.32 36.73
704.077 35 33.29 31.93 30.89 30.1 29.74 29.8 30.23 31.09 32.37
723.367 34.25 36.61 39.46 42.84 46.61 50.69 54.93 59.37 63.68 67.84
742.657 72.02 75.49 77.45 77.13 75.15 72.75 70.03 67.08 63.88 60.31
761.947 56.58 52.99 49.54 46.3 43.36 40.63 38.34 36.41 34.62 32.9
781.236 31.27 29.8 28.5 27.32 26.24 25.28 24.36 23.41 22.51 21.67
800.526 20.94 20.2 19.54 18.92 18.37 17.82 17.21 16.67 16.1 15.56
819.816 14.97 14.49 14.1 13.65 13.26 12.8 12.31 11.95 11.71 11.52
839.106 11.31 11.13 11.07 11.08 11.1 11.14 11.3 11.53 11.85 12.26
858.395 12.65 12.98 13.39 13.91 14.21 14.44 14.64 14.56 14.37 14.12
877.685 13.84 13.39 12.94 12.62 12.26 11.82 11.44 11.11 10.8 10.59
896.975 10.39 10.22 10.16 10.03 9.86 9.73 9.7 9.63 9.49 9.5
916.265 9.46 9.24 9.06 8.96 8.79 8.5 8.27 8.07 7.83 7.65
935.555 7.37 7.15 7.04 6.89 6.77 6.72 6.61 6.53 6.46 6.37
954.844 6.33 6.17 6.05 6.11 6.18 6.18 6.2 6.17 6.27 6.45
974.134 6.52 6.7 6.85 7.05 7.47 7.99 8.56 9.18 9.79 10.09
993.424 10.22 10.34 10.25 10.08 9.85 9.32 8.67 8.11 7.76 7.68
1012.714 7.74 7.89 8.1 8.4 8.9 9.39 9.78 10.19 10.64 10.94
1032.003 11.25 11.66 12.03 12.36 12.71 13.19 13.83 14.59 15.51 16.53
1051.293 17.61 18.66 19.5 20.31 21.05 21.46 21.52 21.36 21.16 20.81
1070.583 20.33 19.91 19.33 18.62 17.8 17.02 16.71 16.44 15.8 15.41
1089.873 15.02 14.56 14.3 14.12 13.8 13.21 12.99 12.92 12.63 12.47
1109.163 12.24 12.11 12.06 11.91 11.77 11.59 11.31 10.97 10.75 10.49
1128.452 10.02 9.69 9.57 9.41 9.27 9.28 9.35 9.39 9.52 9.82
1147.742 10.18 10.27 10.21 10.02 9.99 10.24 10.4 10.52 10.62 10.84
1167.032 11.4 12.34 13.46 14.42 15.04 15.27 15.48 15.63 15.51 15.08
1186.322 14.27 13.31 12.17 11.27 10.62 9.93 9.56 9.43 9.33 9.36
1205.611 9.32 9.27 9.43 9.6 9.82 10.13 10.53 10.98 11.37 11.93
1224.901 12.79 13.83 14.99 16.46 18.5 21 24.07 27.67 31.68 35.94
1244.191 40.24 44.36 48.17 51.32 53.66 55.18 55.72 55.5 54.41 52.7
1263.481 50.69 48.48 46.36 44.16 42.01 40.02 38.19 36.5 34.89 33.55
1282.771 32.53 32 32.05 32.6 33.62 35.05 36.63 38.37 40.21 41.99
1302.060 43.76 45.5 47.06 48.31 49.03 49.03 48.19 46.6 44.45 41.87
1321.350 38.88 35.51 31.9 28.28 24.94 22.04 19.67 17.83 16.42 15.36
1340.640 14.59 14.04 13.74 13.64 13.73 13.94 14.18 14.35 14.43 14.43
1359.930 14.33 14.11 13.81 13.42 12.99 12.56 12.1 11.7 11.4 11.16
1379.219 10.98 10.86 10.73 10.61 10.49 10.33 10.14 9.96 9.81 9.65
1398.509 9.53 9.45 9.42 9.53 9.7 9.96 10.42 11.02 11.81 12.86
1417.799 14.15 15.73 17.42 19.11 20.61 21.69 22.3 22.42 22.14 21.51
1437.089 20.42 19 17.46 15.95 14.82 14.27 14.33 14.85 15.81 17.17
1456.378 18.91 20.8 22.56 24.32 25.98 27.4 28.57 29.61 30.53 31.45
1475.668 32.42 33.64 35.34 37.75 41.25 46.19 53.09 62.29 73.94 87.34
1494.958 101.53 115.46 126.72 134.02 136.78 135.32 130.07 121.65 109.98 94.88
1514.248 78.45 63.02 50.06 40.57 33.34 28.27 24.65 21.9 19.86 18.32
1533.538 17.09 16.13 15.5 15.04 14.67 14.41 14.28 14.26 14.32 14.39
1552.827 14.49 14.58 14.65 14.8 14.95 15.09 15.38 15.84 16.52 17.44
1572.117 18.69 20.41 22.69 25.52 28.99 33.46 38.98 45.73 53.87 63.58
1591.407 74.54 86.32 97.98 108.26 116.09 120.66 121.69 119.52 114.63 107.26
1610.697 97.76 86.59 75.01 63.83 54.2 46.66 40.44 35.32 31.09 27.47
1629.986 24.42 21.91 19.85 18.06 16.43 15.08 13.91 12.95 12.12 11.33
1649.276 10.64 10.12 9.55 9.06 8.66 8.26 7.96 7.74 7.49 7.3
1668.566 7.15 6.93 6.71 6.54 6.35 6.15 5.99 5.86 5.72 5.5
1687.856 5.28 5.08 4.94 4.85 4.73 4.59 4.49 4.37 4.23 4.12
1707.146 4.02 3.9 3.84 3.79 3.75 3.77 3.72 3.65 3.62 3.58
1726.435 3.57 3.61 3.66 3.71 3.77 3.78 3.82 3.96 4.09 4.16
1745.725 4.26 4.36 4.45 4.53 4.5 4.5 4.47 4.4 4.29 4.12
1765.015 3.96 3.83 3.7 3.59 3.49 3.39 3.32 3.27 3.2 3.15
1784.305 3.12 3.09 3.09 3.13 3.17 3.16 3.15 3.19 3.24 3.3
1803.594 3.35 3.4 3.45 3.47 3.52 3.55 3.59 3.67 3.75 3.76
1822.884 3.79 3.82 3.8 3.79 3.75 3.66 3.56 3.45 3.36 3.25
1842.174 3.15 3.04 2.91 2.85 2.79 2.75 2.75 2.73 2.71 2.66
1861.464 2.63 2.64 2.65 2.67 2.66 2.66 2.64 2.62 2.66 2.7
1880.754 2.75 2.83 2.92 3.04 3.14 3.26 3.39 3.53 3.7 3.89
1900.043 4.06 4.16 4.24 4.33 4.38 4.4 4.43 4.48 4.51 4.52
1919.333 4.44 4.3 4.18 4.06 3.87 3.66 3.42 3.17 2.92 2.64
1938.623 2.35 2.1 1.87 1.71 1.61 1.5 1.37 1.25 1.19 1.12
1957.913 1.03 0.9322 0.8541 0.809 0.7506 0.7248 0.7266 0.7366 0.7351 0.7305
1977.202 0.73 0.6948 0.6386 0.5633 0.535 0.5273 0.4884 0.484 0.4897 0.514
1996.492 0.5832 0.6622 0.745 0.8722 0.9767 1.04 1.12 1.18 1.23 1.26
2015.782 1.28 1.28 1.24 1.21 1.2 1.18 1.15 1.11 1.07 0.9864
2035.072 0.9415 0.929 0.8516 0.7613 0.7393 0.7127 0.6709 0.6682 0.6581 0.6428
2054.362 0.6499 0.6673 0.6616 0.683 0.7102 0.7218 0.7663 0.814 0.8197 0.8692
2073.651 0.9371 0.9733 1 1.02 1.03 1.05 1.1 1.14 1.16 1.17
2092.941 1.18 1.18 1.19 1.2 1.21 1.23 1.22 1.2 1.22 1.24
2112.231 1.26 1.28 1.29 1.3 1.3 1.28 1.28 1.27 1.24 1.26
2131.521 1.28 1.3 1.28 1.24 1.26 1.26 1.25 1.25 1.27 1.28
2150.810 1.24 1.21 1.22 1.19 1.18 1.18 1.2 1.21 1.21 1.24
2170.100 1.26 1.23 1.23 1.24 1.24 1.27 1.28 1.24 1.2 1.19
2189.390 1.19 1.14 1.14 1.15 1.13 1.1 1.07 1.06 1.07 1.06
2208.680 1.03 1.03 1.03 1.03 1.04 1.05 1 0.982 0.9845 0.9641
2227.970 0.9708 0.9584 0.9746 0.9918 0.9975 1.02 1.03 1.04 1.05 1.05
2247.259 1.07 1.07 1.06 1.07 1.06 1.05 1.08 1.1 1.08 1.07
2266.549 1.09 1.11 1.11 1.14 1.12 1.12 1.15 1.16 1.15 1.16
2285.839 1.19 1.19 1.14 1.1 1.11 1.14 1.16 1.2 1.2 1.23
2305.129 1.28 1.28 1.32 1.31 1.3 1.34 1.33 1.31 1.34 1.36
2324.418 1.34 1.34 1.32 1.32 1.33 1.34 1.34 1.33 1.34 1.33
2343.708 1.33 1.36 1.37 1.35 1.33 1.34 1.37 1.34 1.32 1.32
2362.998 1.28 1.26 1.25 1.24 1.25 1.24 1.24 1.23 1.24 1.24
2382.288 1.22 1.21 1.25 1.27 1.2 1.22 1.28 1.31 1.36 1.36
2401.578 1.34 1.34 1.34 1.33 1.29 1.27 1.28 1.29 1.27 1.27
2420.867 1.27 1.25 1.19 1.15 1.16 1.21 1.21 1.16 1.13 1.13
2440.157 1.16 1.18 1.17 1.17 1.2 1.2 1.19 1.21 1.24 1.21
2459.447 1.23 1.24 1.24 1.24 1.24 1.27 1.31 1.33 1.31 1.31
2478.737 1.33 1.35 1.4 1.37 1.3 1.3 1.32 1.35 1.37 1.38
2498.026 1.38 1.36 1.37 1.37 1.38 1.42 1.42 1.42 1.45 1.47
2517.316 1.51 1.53 1.52 1.57 1.63 1.66 1.7 1.75 1.81 1.86
2536.606 1.88 1.92 1.98 2.05 2.08 2.06 2.15 2.21 2.24 2.29
2555.896 2.34 2.38 2.41 2.46 2.5 2.46 2.45 2.45 2.38 2.32
2575.186 2.24 2.19 2.21 2.16 2.11 2.09 2.06 1.99 1.95 1.89
2594.475 1.85 1.85 1.84 1.87 1.87 1.84 1.8 1.81 1.8 1.78
2613.765 1.79 1.79 1.76 1.78 1.81 1.79 1.8 1.82 1.84 1.85
2633.055 1.83 1.83 1.88 1.9 1.92 1.95 1.96 2.05 2.09 2.06
2652.345 2.1 2.13 2.17 2.28 2.32 2.31 2.39 2.49 2.54 2.58
2671.634 2.66 2.76 2.81 2.83 2.9 3.01 3.09 3.15 3.18 3.25
2690.924 3.29 3.28 3.36 3.44 3.52 3.58 3.59 3.55 3.56 3.56
2710.214 3.54 3.49 3.44 3.42 3.39 3.36 3.34 3.36 3.34 3.37
2729.504 3.42 3.47 3.52 3.53 3.57 3.56 3.57 3.66 3.71 3.79
2748.794 3.87 3.92 3.97 4.02 4.13 4.19 4.2 4.25 4.34 4.42
2768.083 4.44 4.51 4.58 4.67 4.78 4.86 5 5.13 5.26 5.41
2787.373 5.66 5.91 6.06 6.26 6.55 6.89 7.23 7.61 8.12 8.58
2806.663 9.08 9.66 10.23 10.86 11.54 12.2 12.87 13.62 14.37 15.16
2825.953 15.9 16.54 17.21 17.93 18.67 19.37 20.08 20.78 21.47 22.27
2845.242 23.11 23.96 24.87 25.78 26.78 27.78 28.77 29.77 30.77 31.74
2864.532 32.59 33.32 33.77 33.96 33.97 33.81 33.39 32.72 31.94 31.06
2883.822 30.1 29.25 28.42 27.71 27.17 26.71 26.41 26.32 26.34 26.49
2903.112 26.8 27.27 27.88 28.62 29.47 30.27 31.23 32.35 33.33 34.34
2922.401 35.36 36.31 37.19 37.9 38.52 38.95 39.22 39.47 39.46 39.18
2941.691 38.75 38.11 37.29 36.24 34.87 33.3 31.67 29.84 27.8 25.77
2960.981 23.75 21.7 19.81 18.09 16.43 14.92 13.55 12.27 11.18 10.32
2980.271 9.55 8.88 8.28 7.86 7.55 7.3 7.21 7.24 7.45 7.79
2999.561 8.18 8.69 9.39 10.31 11.36 12.55 13.83 15.17 16.62 18.01
3018.850 19.18 20.14 20.89 21.4 21.7 21.74 21.61 21.39 21.02 20.56
3038.140 20.26 20.28 20.68 21.54 22.8 24.45 26.3 28.18 29.97 31.39
3057.430 32.21 32.39 32.14 31.5 30.38 28.85 27.02 25.14 23.39 22.03
3076.720 21.16 20.6 20.22 19.87 19.43 18.9 18.29 17.6 16.74 15.65
3096.009 14.52 13.44 12.42 11.54 10.68 9.88 9.17 8.41 7.74 7.09
3115.299 6.37 5.69 5 4.43 3.95 3.47 3.02 2.69 2.44 2.13
3134.589 1.87 1.69 1.53 1.48 1.5 1.38 1.28 1.24 1.13 1.06
3153.879 1.08 1.05 0.9875 0.9422 0.9228 0.99 1.04 0.9444 0.912 1
3173.169 0.991 0.9381 0.9439 1 0.9942 0.9759 1.01 1.03 1.03 1.03
3192.458 1.01 0.9736 0.9754 0.9756 0.959 0.9256 0.919 0.9857 0.9506 0.9048
3211.748 0.976 1.02 0.9988 0.9195 0.8691 0.9464 0.9771 0.9163 0.8808 0.7976
3231.038 0.7296 0.7057 0.7595 0.8228 0.8437 0.7965 0.7886 0.7801 0.7286 0.7277
3250.328 0.6438 0.632 0.6872 0.6756 0.6454 0.6604 0.6636 0.6568 0.6837 0.7114
3269.617 0.7438 0.7885 0.7848 0.7714 0.7922 0.7225 0.6911 0.6983 0.6785 0.6745
3288.907 0.7125 0.7075 0.7173 0.7929 0.7971 0.7414 0.7113 0.749 0.7615 0.7364
3308.197 0.7307 0.7246 0.8266 0.9266 0.8347 0.7895 0.8673 0.9517 1.01 1.12
3327.487 1.18 1.24 1.29 1.35 1.47 1.49 1.53 1.58 1.64 1.81
3346.777 1.92 1.88 1.92 2.03 2.08 2.09 2.08 2.09 2.05 1.97
3366.066 2.01 2.08 2.07 2.13 2.22 2.28 2.49 2.62 2.78 3.08
3385.356 3.34 3.67 4.14 4.74 5.34 5.89 6.55 7.17 7.75 8.33
3404.646 8.74 9.02 9.22 9.25 9.17 9.01 8.77 8.45 8.03 7.66
3423.936 7.37 7.06 6.73 6.5 6.23 5.89 5.72 5.65 5.46 5.27
3443.225 5.16 5.1 5.01 4.89 4.79 4.64 4.48 4.31 4.09 3.88
3462.515 3.74 3.54 3.37 3.17 2.85 2.71 2.6 2.37 2.25 2.15
3481.805 2.08 1.96 1.8 1.63 1.51 1.52 1.42 1.28 1.24 1.2
3501.095 1.23 1.14 1.03 1.05 0.9483 0.831 0.8385 0.8856 0.9155 0.9358
3520.385 0.8328 0.8003 0.8548 0.7608 0.7359 0.7983 0.7785 0.8048 0.7853 0.6635
3539.674 0.602 0.6076 0.617 0.6664 0.7477 0.6817 0.6447 0.6649 0.5796 0.5491
3558.964 0.6203 0.6495 0.5561 0.5239 0.5392 0.5286 0.538 0.4986 0.4048 0.3592
3578.254 0.4197 0.4899 0.5232 0.6931 0.8263 0.6871 0.6561 0.7651 0.7977 0.815
3597.544 0.7721 0.6885 0.7431 0.8226 0.7855 0.7404 0.7969 0.814 0.7569 0.8003
3616.833 0.8434 0.8828 0.9146 0.8528 0.8827 0.9885 1.07 1.08 0.9997 0.9245
3636.123 0.9687 1.02 0.9581 0.9828 1.01 0.9503 0.9343 0.941 1 0.9964
3655.413 0.9397 0.98 0.925 0.902 0.9549 0.9302 0.9277 1 1.05 0.986
3674.703 0.942 0.8639 0.8995 0.9015 0.8411 0.9292 0.9485 0.9109 0.84 0.7275
3693.993 0.7116 0.7508 0.7838 0.8523 0.8241 0.7411 0.7434 0.7646 0.7323 0.7117
3713.282 0.7282 0.7553 0.7227 0.7085 0.7795 0.7697 0.7246 0.7281 0.7359 0.741
3732.572 0.7886 0.7816 0.774 0.78 0.7074 0.622 0.6335 0.6621 0.7025 0.7634
3751.862 0.8086 0.8328 0.8617 0.8756 0.8088 0.7071 0.7185 0.7447 0.6523 0.6463
3771.152 0.6123 0.6444 0.7474 0.7127 0.6953 0.6924 0.7527 0.777 0.7202 0.7217
3790.441 0.7192 0.6443 0.6239 0.585 0.5461 0.7456 0.7617 0.7161 0.7164 0.6314
3809.731 0.6445 0.7234 0.8866 0.9301 0.8237 0.8068 0.7863 0.7855 0.8974 0.8488
3829.021 0.7494 0.719 0.7224 0.715 0.6938 0.7382 0.6679 0.6263 0.64 0.6988
3848.311 0.7833 0.7567 0.7868 0.8075 0.7937 0.7549 0.758 0.8309 0.7981 0.7239
3867.601 0.7556 0.7711 0.7522 0.8468 0.8847 0.8554 0.7946 0.7603 0.7605 0.8177
3886.890 0.8865 0.8462 0.8567 0.8692 0.7845 0.7596 0.8545 0.9128 0.8959 0.8506
3906.180 0.7528 0.6919 0.7249 0.7956 0.8571 0.8569 0.8859 0.8812 0.8177 0.9057
3925.470 0.8884 0.8494 0.8615 0.9142 0.893 0.807 0.9198 0.8519 0.7349 0.7988
3944.760 0.8937 0.9046 0.8488 0.7651 0.8085 0.8671 0.7516 0.7373 0.8686 0.8232
3964.049 0.7383 0.7234 0.8058 0.8963 0.8625 0.9318 1.01 0.9912 0.8764 0.7672
3983.339 0.7887 0.7843 0.8888 0.9561 0.9588 0.9975 0.9572 0.9627 1.04 1.05
##END=
