##TITLE=3-Hydroxycarbofuran
##JCAMP-DX=4.24
##DATA TYPE=INFRARED SPECTRUM
##ORIGIN=NIST Mass Spectrometry Data Center
##OWNER=NIST Standard Reference Data Program
Collection (C) 2018 copyright by the U.S. Secretary of Commerce
on behalf of the United States of America. All rights reserved.
##CAS REGISTRY NO=16655-82-6
##MOLFORM=C 12 H 15 N O 4
##$NIST SOURCE=MSDC-IR
##SPECTROMETER/DATA SYSTEM=HP-GC/MS/IRD
##STATE=gas
##XUNITS=1/CM
##YUNITS=ABSORBANCE
##XFACTOR=1.0
##YFACTOR=0.000001600
##DELTAX=4.0
##FIRSTX=550.0
##LASTX=3846.0
##FIRSTY=0.000454
##MAXX=3846
##MINX=550
##MAXY=0.016
##MINY=0
##NPOINTS=825
##XYDATA=(X++(Y..Y))
550.0 284 139 191 235 190 234 176 152 206 169
590.0 140 123 137 156 130 98 175 228 178 121
630.0 99 90 47 50 80 104 69 53 65 87
670.0 114 54 2 14 37 84 90 94 118 135
710.0 141 165 291 467 671 911 1093 1012 828 687
750.0 650 723 749 757 760 752 693 584 535 519
790.0 476 408 334 355 414 459 508 624 632 538
830.0 469 409 419 422 504 645 786 948 1084 1207
870.0 1379 1593 1810 1978 2032 1927 1763 1560 1327 1220
910.0 1199 1311 1433 1437 1404 1218 991 846 806 862
950.0 854 790 768 768 770 733 632 496 418 387
990.0 403 476 517 572 647 708 821 988 1112 1069
1030.0 1028 990 921 1031 1289 1657 1957 2110 2220 2242
1070.0 2274 2299 2367 2672 3201 4011 5037 5987 6622 6655
1110.0 5983 5090 4442 4037 3704 3389 3037 2595 2225 2063
1150.0 2092 2464 3042 3600 4067 4520 4971 5230 5231 5219
1190.0 5607 6443 7582 8866 9805 10000 9309 8046 6765 5648
1230.0 4888 4302 3785 3506 3256 2992 2886 2955 3060 3131
1270.0 3025 2750 2510 2367 2245 2062 1811 1647 1573 1591
1310.0 1731 1951 2188 2356 2395 2287 2086 1814 1580 1446
1350.0 1349 1248 1113 1025 1062 1159 1193 1075 933 833
1390.0 732 653 581 536 531 575 650 770 958 1143
1430.0 1286 1390 1542 1825 2185 2693 3384 4183 4849 5327
1470.0 5845 6646 7503 7851 7449 6551 5644 4908 4277 3653
1510.0 3074 2635 2291 2025 1817 1643 1496 1353 1218 1077
1550.0 949 878 810 746 736 718 699 723 769 864
1590.0 1005 1189 1340 1354 1256 1159 1148 1132 1034 848
1630.0 653 505 386 330 292 252 212 200 204 201
1670.0 205 199 198 193 175 177 200 216 215 243
1710.0 286 322 383 445 534 670 810 938 1038 1133
1750.0 1282 1560 2032 2818 4068 5884 7962 9272 8789 6843
1790.0 4655 2992 2001 1438 1094 905 812 753 705 620
1830.0 537 471 398 337 282 226 178 152 144 144
1870.0 137 115 110 126 133 132 132 118 114 108
1910.0 72 65 70 55 40 45 46 40 46 44
1950.0 33 25 39 56 54 52 52 46 42 55
1990.0 63 57 61 56 53 58 61 74 84 82
2030.0 82 74 67 71 93 93 86 82 63 67
2070.0 99 105 87 72 79 90 100 89 74 88
2110.0 98 103 101 83 83 99 90 61 69 88
2150.0 79 74 59 38 29 31 26 30 37 29
2190.0 41 59 55 56 63 78 85 83 104 119
2230.0 136 175 183 215 262 260 274 319 341 360
2270.0 379 396 403 393 409 374 322 309 295 284
2310.0 306 292 217 175 145 122 109 128 127 105
2350.0 93 50 20 0 13 37 18 17 18 17
2390.0 35 36 31 22 3 13 13 19 43 44
2430.0 42 38 44 51 62 65 51 20 37 74
2470.0 46 18 19 32 56 39 21 38 54 50
2510.0 39 47 64 45 25 44 64 62 49 46
2550.0 63 75 66 37 40 63 77 74 61 55
2590.0 75 83 72 82 86 66 63 59 54 62
2630.0 80 88 99 97 80 75 86 63 54 66
2670.0 77 74 68 93 117 108 107 115 97 78
2710.0 84 86 75 66 70 93 101 90 91 108
2750.0 113 102 110 120 120 109 129 159 167 191
2790.0 205 233 267 301 327 376 484 643 871 1073
2830.0 1180 1122 940 771 677 677 709 710 705 737
2870.0 794 888 991 1108 1216 1319 1390 1392 1393 1405
2910.0 1453 1481 1503 1614 1741 1937 2172 2350 2435 2397
2950.0 2263 2086 1891 1728 1683 1775 1992 2284 2540 2554
2990.0 2312 1924 1505 1228 1029 879 761 633 559 506
3030.0 497 531 557 581 600 614 659 659 623 648
3070.0 708 715 673 587 477 411 365 309 230 207
3110.0 205 197 164 131 146 148 132 112 76 66
3150.0 80 78 44 51 80 85 111 130 137 114
3190.0 95 104 109 104 124 112 39 31 49 76
3230.0 71 49 87 111 109 85 67 79 54 32
3270.0 55 94 133 149 117 80 56 37 44 47
3310.0 84 98 85 91 56 51 69 37 39 94
3350.0 63 0 17 81 93 66 88 69 29 61
3390.0 107 98 69 69 95 117 126 131 81 45
3430.0 97 135 136 134 129 135 135 195 292 340
3470.0 387 480 590 728 829 890 886 757 594 477
3510.0 397 297 212 192 184 175 196 191 227 238
3550.0 185 169 172 147 101 103 126 116 98 127
3590.0 161 152 106 87 102 139 170 173 152 150
3630.0 171 155 153 154 149 151 159 137 105 89
3670.0 123 97 75 95 102 140 160 136 119 104
3710.0 66 92 157 136 92 94 117 117 91 83
3750.0 136 129 67 67 160 129 83 133 159 149
3790.0 173 161 84 90 59 31 87 120 87 104
3830.0 165 152 94 96 135
##END=
