##TITLE=Cyclopropyl phenylmethane
##JCAMP-DX=4.24
##DATA TYPE=INFRARED SPECTRUM
##ORIGIN=EPA-IR VAPOR PHASE LIBRARY
##OWNER=SRD/NIST
Collection (C) 2018 copyright by the U.S. Secretary of Commerce
on behalf of the United States of America. All rights reserved.
##CAS REGISTRY NO=1667-00-1
##MOLFORM=C 10 H 12
##$NIST SOURCE=MSDC-IR
##STATE=gas
##XUNITS=1/CM
##YUNITS=ABSORBANCE
##XFACTOR=1.
##YFACTOR=0.001
##DELTAX=1.929
##FIRSTX=549.8
##LASTX=4000.8
##FIRSTY=0.7209
##MAXX=4000.75
##MINX=549.766
##MAXY=0.057039
##MINY=0
##NPOINTS=1790
##XYDATA=(X++(Y..Y))
549.766 0.7209 0.5205 0.5769 0.7428 0.7647 0.8637 0.9986 0.9479 1.1065 1.2283
569.056 1.529 1.949 2.119 2.169 2.259 2.549 2.859 3.199 3.299 3.119
588.346 3.029 3.069 2.979 2.949 2.809 2.469 2.379 2.449 2.249 2.039
607.636 1.749 1.349 1.269 1.399 1.349 1.1568 1.0959 1.0261 0.8251 0.7252
626.926 0.7669 0.7588 0.7766 0.8756 0.8878 0.8586 1.0695 1.1879 1.1078 1.279
646.216 1.529 1.539 1.749 2.149 2.339 2.409 2.769 3.259 3.749 4.419
665.506 5.099 5.899 6.919 8.089 9.429 10.899 12.879 15.129 17.449 20.029
684.796 22.829 25.789 28.839 32.129 35.569 38.729 40.539 40.409 39.669 38.979
704.086 38.169 37.219 36.379 35.549 34.779 34.369 34.199 34.349 34.879 35.799
723.376 36.909 37.629 37.759 37.069 35.039 32.139 29.369 26.939 24.309 21.629
742.666 19.309 17.029 14.899 13.089 11.619 10.549 9.919 9.659 9.599 9.719
761.956 9.849 9.979 9.949 9.759 9.579 9.349 9.039 8.639 8.209 7.819
781.246 7.599 7.569 7.589 7.749 8.189 8.639 9.079 9.629 10.249 11.029
800.536 11.819 12.199 12.209 12.029 11.779 11.439 11.159 11.159 11.149 11.109
819.826 11.439 12.029 12.729 13.269 13.249 13.079 12.779 12.349 11.799 10.839
839.116 9.549 8.159 6.909 6.069 5.509 5.039 4.509 3.989 3.699 3.449
858.406 3.169 3.049 2.959 2.799 2.739 2.699 2.699 2.689 2.629 2.609
877.696 2.609 2.569 2.529 2.499 2.459 2.469 2.499 2.599 2.659 2.709
896.986 2.849 2.939 3.039 3.219 3.349 3.439 3.569 3.659 3.789 4.119
916.276 4.409 4.699 5.079 5.469 5.949 6.519 6.939 7.189 7.409 7.449
935.566 7.409 7.279 7.019 6.649 6.149 5.599 5.099 4.689 4.369 4.129
954.856 4.049 4.119 4.289 4.579 5.019 5.629 6.309 7.009 7.619 8.009
974.146 8.239 8.339 8.259 8.079 7.779 7.249 6.629 6.029 5.459 5.069
993.436 4.989 5.129 5.469 5.929 6.579 7.589 8.769 10.169 11.939 13.849
1012.726 15.559 16.819 17.489 18.129 19.029 19.809 20.189 19.349 17.529 15.709
1032.016 14.019 12.909 12.239 11.229 10.079 9.049 8.209 7.709 7.429 7.249
1051.306 7.189 7.029 6.759 6.519 6.309 6.139 6.049 6.099 6.059 5.909
1070.596 5.819 5.629 5.389 5.119 4.829 4.549 4.179 3.859 3.529 3.279
1089.886 3.169 3.089 3.019 2.979 3.029 3.039 3.049 3.009 2.999 3.009
1109.176 2.999 2.999 2.799 2.579 2.509 2.299 2.139 2.049 1.839 1.659
1128.467 1.549 1.399 1.329 1.299 1.0741 1.0929 1.1143 0.9441 0.9465 1.0339
1147.757 1.0556 1.0568 1.1428 1.2256 1.2092 1.1627 1.279 1.519 1.699 1.749
1167.047 1.759 1.799 1.839 1.969 2.069 1.979 1.959 1.939 1.899 1.899
1186.337 1.859 1.939 1.939 1.869 1.859 1.839 1.819 1.839 1.819 1.729
1205.627 1.669 1.749 1.719 1.579 1.479 1.549 1.679 1.729 1.799 1.959
1224.917 2.059 2.119 2.299 2.309 2.259 2.319 2.249 2.199 2.119 1.959
1244.207 1.869 1.729 1.609 1.539 1.509 1.489 1.469 1.499 1.509 1.579
1263.497 1.719 1.879 2.049 2.239 2.439 2.669 2.959 3.309 3.709 4.099
1282.787 4.399 4.629 4.859 5.079 5.239 5.359 5.379 5.329 5.259 5.129
1302.077 4.929 4.709 4.569 4.429 4.239 4.079 3.919 3.749 3.589 3.369
1321.367 3.159 3.049 2.889 2.639 2.409 2.279 2.159 2.049 1.989 1.919
1340.657 1.849 1.769 1.679 1.629 1.629 1.699 1.759 1.749 1.779 1.899
1359.947 2.089 2.239 2.289 2.379 2.509 2.559 2.549 2.559 2.459 2.369
1379.237 2.359 2.289 2.159 2.009 1.929 1.819 1.769 1.829 1.789 1.779
1398.527 1.889 1.919 1.949 2.099 2.289 2.459 2.699 3.019 3.319 3.669
1417.817 4.119 4.609 5.049 5.589 6.189 6.749 7.349 7.919 8.509 9.089
1437.107 9.679 10.249 10.769 11.279 11.769 12.179 12.459 12.559 12.589 12.639
1456.397 12.709 12.629 12.299 11.709 10.909 10.049 9.169 8.329 7.549 6.879
1475.687 6.479 6.459 6.919 7.869 9.479 11.599 13.939 16.069 17.479 18.019
1494.977 18.129 17.969 17.339 16.319 14.589 12.019 9.059 6.619 4.999 3.949
1514.267 3.319 2.839 2.529 2.319 2.119 2.009 1.989 1.919 1.859 1.849
1533.557 1.829 1.809 1.809 1.829 1.799 1.789 1.829 1.819 1.819 1.859
1552.847 1.889 1.949 1.989 2.079 2.169 2.209 2.339 2.449 2.619 2.909
1572.137 3.139 3.359 3.679 4.049 4.429 4.739 5.039 5.499 6.059 6.649
1591.427 7.259 7.929 8.579 9.159 9.699 10.129 10.259 10.059 9.649 9.139
1610.717 8.419 7.459 6.399 5.309 4.299 3.509 2.929 2.469 2.149 1.899
1630.007 1.699 1.609 1.489 1.389 1.339 1.269 1.174 1.1152 1.1605 1.1807
1649.297 1.1216 1.0593 1.0514 1.0367 1.0092 0.9987 0.9991 1.0119 1.0331 1.0275
1668.587 0.992 0.9629 0.9532 0.9198 0.9144 0.954 0.9762 0.9743 0.9541 0.9318
1687.877 0.9438 0.9671 0.9732 0.9936 0.9705 1.0076 1.0365 1.0313 1.0345 1.0197
1707.167 1.0274 1.0218 1.0323 1.112 1.1842 1.1616 1.1729 1.2172 1.259 1.309
1726.457 1.359 1.399 1.499 1.589 1.659 1.699 1.669 1.649 1.669 1.729
1745.747 1.739 1.699 1.639 1.569 1.519 1.499 1.449 1.389 1.409 1.429
1765.037 1.449 1.499 1.579 1.699 1.839 1.979 2.109 2.349 2.659 2.969
1784.327 3.259 3.529 3.779 3.919 3.979 3.969 3.939 3.799 3.619 3.409
1803.617 3.079 2.809 2.599 2.419 2.239 2.139 2.089 2.049 1.999 1.959
1822.907 1.949 1.939 1.909 1.899 1.889 1.899 1.929 2.029 2.109 2.129
1842.197 2.199 2.289 2.349 2.389 2.479 2.529 2.539 2.619 2.649 2.629
1861.487 2.629 2.679 2.709 2.669 2.649 2.609 2.589 2.559 2.509 2.449
1880.777 2.339 2.279 2.179 2.079 1.989 1.909 1.839 1.759 1.659 1.599
1900.067 1.659 1.679 1.689 1.719 1.739 1.799 1.919 2.049 2.139 2.239
1919.357 2.439 2.609 2.779 2.969 3.129 3.259 3.389 3.469 3.539 3.659
1938.647 3.749 3.829 3.909 3.939 3.889 3.749 3.559 3.279 3.009 2.779
1957.937 2.529 2.179 1.849 1.609 1.399 1.1714 1.0529 1.0002 0.9338 0.9193
1977.227 0.9056 0.9249 0.9264 0.9067 0.9376 0.9529 0.9471 0.9169 0.9338 0.9485
1996.517 0.9067 0.8943 0.8983 0.8646 0.8374 0.8927 0.9503 0.9623 0.9315 0.9379
2015.807 1.0051 1.048 1.0403 1.0466 1.1099 1.1685 1.2082 1.259 1.299 1.269
2035.097 1.279 1.309 1.309 1.329 1.409 1.439 1.429 1.479 1.559 1.599
2054.387 1.639 1.699 1.709 1.669 1.609 1.609 1.619 1.529 1.409 1.319
2073.677 1.279 1.299 1.259 1.229 1.279 1.309 1.319 1.289 1.1998 1.1328
2092.967 1.0983 1.0869 1.0777 0.978 0.8597 0.8073 0.7837 0.74 0.6928 0.6962
2112.257 0.7003 0.6766 0.6628 0.6454 0.6613 0.6634 0.6443 0.6554 0.6548 0.6575
2131.547 0.6057 0.5667 0.664 0.7284 0.6625 0.5856 0.5533 0.6297 0.6793 0.6486
2150.837 0.6302 0.5603 0.5423 0.5574 0.5672 0.5671 0.5516 0.5395 0.5468 0.5908
2170.127 0.5533 0.528 0.5694 0.5583 0.5563 0.5301 0.4551 0.4943 0.5433 0.5702
2189.417 0.6197 0.6184 0.6118 0.6637 0.6598 0.6536 0.679 0.6562 0.6792 0.714
2208.707 0.7378 0.7761 0.7598 0.7674 0.7911 0.7786 0.7849 0.7918 0.7818 0.7677
2227.997 0.7772 0.7523 0.7094 0.6712 0.6438 0.6145 0.6294 0.6339 0.6015 0.6562
2247.287 0.6771 0.6571 0.6609 0.624 0.6493 0.7326 0.7415 0.7076 0.6861 0.6689
2266.577 0.6449 0.6467 0.6553 0.636 0.6054 0.606 0.6207 0.6147 0.5903 0.5726
2285.868 0.56 0.5372 0.5611 0.5507 0.5101 0.5183 0.5907 0.6459 0.655 0.6808
2305.158 0.7232 0.7956 0.8192 0.8121 0.7866 0.7444 0.7565 0.8015 0.8074 0.7552
2324.448 0.7041 0.7081 0.687 0.6695 0.6985 0.7123 0.6898 0.6437 0.6317 0.6297
2343.738 0.6734 0.6888 0.6727 0.6519 0.6157 0.6617 0.7132 0.6629 0.6121 0.629
2363.028 0.6616 0.6619 0.6106 0.6031 0.5842 0.5515 0.5587 0.5662 0.6237 0.6403
2382.318 0.5864 0.5706 0.5908 0.6523 0.6694 0.6618 0.6718 0.6544 0.6328 0.6566
2401.608 0.681 0.6503 0.6495 0.6501 0.6389 0.6212 0.6249 0.6294 0.567 0.5146
2420.898 0.5444 0.5547 0.5067 0.5458 0.5687 0.5357 0.5101 0.4992 0.5045 0.5042
2440.188 0.5235 0.4692 0.4515 0.5049 0.5397 0.5154 0.4761 0.5343 0.5944 0.5999
2459.478 0.6551 0.6957 0.6978 0.713 0.7501 0.8572 0.9184 0.9409 0.965 0.9605
2478.768 0.9881 1.0261 0.9856 0.9005 0.8183 0.756 0.7138 0.6816 0.6439 0.6114
2498.058 0.5903 0.5554 0.5321 0.5731 0.5159 0.4583 0.5163 0.4739 0.4397 0.4735
2517.348 0.4935 0.4675 0.4427 0.4222 0.4611 0.4784 0.4552 0.4438 0.4621 0.5628
2536.638 0.5449 0.4681 0.4585 0.4555 0.4131 0.416 0.4272 0.3796 0.4416 0.4989
2555.928 0.488 0.5062 0.4967 0.47 0.4708 0.4599 0.4579 0.5297 0.6083 0.647
2575.218 0.6241 0.5939 0.6592 0.6917 0.7081 0.7265 0.6481 0.669 0.6857 0.6135
2594.508 0.6448 0.6924 0.7085 0.6969 0.6836 0.7117 0.7003 0.6938 0.7197 0.7303
2613.798 0.7211 0.7458 0.7408 0.6874 0.7141 0.679 0.6482 0.7396 0.7378 0.715
2633.088 0.6955 0.6947 0.6747 0.6837 0.7323 0.6833 0.6249 0.6349 0.6692 0.6396
2652.378 0.6205 0.5826 0.5583 0.5648 0.5843 0.5998 0.5855 0.5245 0.503 0.5683
2671.668 0.5818 0.5423 0.5466 0.5506 0.5262 0.5464 0.5068 0.4549 0.4514 0.5068
2690.958 0.4723 0.3945 0.4224 0.5133 0.5525 0.5034 0.5044 0.4803 0.4187 0.4362
2710.248 0.4893 0.4826 0.4725 0.4777 0.6046 0.6413 0.5668 0.6573 0.7241 0.6968
2729.538 0.6869 0.6991 0.7491 0.7224 0.7508 0.8211 0.8347 0.8569 0.8406 0.8736
2748.828 0.8385 0.8239 0.8801 0.8683 0.8482 0.7657 0.7595 0.8356 0.812 0.7451
2768.118 0.7439 0.8 0.8283 0.8192 0.855 0.9099 0.9902 1.0484 1.0241 1.0075
2787.408 1.0078 1.0291 1.089 1.0942 1.1446 1.1913 1.1898 1.349 1.389 1.379
2806.698 1.539 1.729 1.859 1.959 2.079 2.259 2.499 2.739 3.069 3.359
2825.988 3.679 4.059 4.369 4.749 5.189 5.719 6.359 6.989 7.559 8.149
2845.278 8.759 9.319 9.899 10.379 10.799 11.249 11.489 11.649 11.629 11.469
2864.568 11.389 11.159 10.859 10.669 10.439 10.209 10.119 10.159 10.299 10.539
2883.858 10.849 11.259 11.739 12.369 13.119 14.089 15.099 16.069 17.119 18.199
2903.148 19.389 20.739 22.209 23.469 24.739 26.079 27.369 28.469 29.219 29.759
2922.438 29.839 29.329 28.329 27.009 25.459 23.629 21.709 19.669 17.449 15.319
2941.728 13.419 11.739 10.229 8.949 7.899 7.089 6.519 6.009 5.629 5.279
2961.018 5.029 5.039 5.069 5.169 5.339 5.519 5.839 6.299 6.719 7.249
2980.308 8.009 8.899 9.909 11.129 12.589 14.269 16.309 18.689 21.449 24.509
2999.598 27.959 31.869 35.869 39.789 43.329 46.349 48.899 50.919 52.459 53.459
3018.888 53.999 54.199 53.999 53.649 53.169 52.539 51.669 50.449 48.989 47.199
3038.178 44.989 42.349 39.429 36.349 33.369 30.889 29.169 28.329 28.509 29.719
3057.468 31.849 34.809 38.209 41.749 45.029 47.649 49.949 52.159 54.159 55.879
3076.758 57.039 56.759 54.939 52.589 50.429 48.209 45.509 42.659 39.469 35.589
3096.048 31.509 27.939 24.789 21.899 19.319 16.869 14.629 12.679 11.049 9.699
3115.338 8.369 7.129 6.089 5.179 4.399 3.669 3.089 2.759 2.419 2.079
3134.628 1.919 1.889 1.719 1.519 1.419 1.359 1.419 1.349 1.2178 1.269
3153.918 1.2071 1.1458 1.1641 1.1901 1.279 1.1558 0.938 0.904 0.9404 0.8706
3173.208 0.7453 0.6838 0.6722 0.7055 0.7132 0.5682 0.5783 0.6602 0.5638 0.5774
3192.498 0.6055 0.582 0.6017 0.6102 0.618 0.5884 0.4875 0.4717 0.4839 0.4094
3211.788 0.4305 0.4509 0.3935 0.3368 0.3499 0.4267 0.4202 0.3815 0.3592 0.3344
3231.078 0.348 0.3659 0.3693 0.3965 0.4057 0.3851 0.3632 0.3372 0.24119 0.1806
3250.368 0.23965 0.22299 0.2223 0.30983 0.3437 0.3948 0.3575 0.22618 0.29076 0.4282
3269.658 0.4222 0.4243 0.3756 0.27229 0.3583 0.4022 0.29264 0.23083 0.24804 0.2926
3288.948 0.29163 0.3259 0.3745 0.3527 0.2094 0.209 0.233473 0.235357 0.3679 0.3946
3308.238 0.3764 0.452 0.4148 0.255 0.24582 0.216 0.25519 0.3597 0.30689 0.32514
3327.528 0.3604 0.2102 0.119 0.116 0.1528 0.1676 0.22381 0.21973 0.2512 0.3306
3346.818 0.1862 0.034 0.121 0.1546 0.036 0.102 0.1857 0.2527 0.30952 0.3547
3366.108 0.347 0.29905 0.25944 0.24503 0.2621 0.30744 0.26013 0.1917 0.356 0.3783
3385.398 0.25599 0.29051 0.27557 0.32777 0.3605 0.27482 0.27538 0.4034 0.378 0.1899
3404.688 0.27565 0.3568 0.24375 0.232556 0.26087 0.17 0.103 0.1918 0.1488 0.067
3423.978 0.1536 0.2084 0.2188 0.1641 0.1441 0.1708 0.1965 0.238173 0.2094 0.143
3443.269 0.1419 0.26209 0.30737 0.2602 0.27461 0.1803 0.116 0.156 0.125 0.121
3462.559 0.1823 0.22784 0.22569 0.1612 0.1905 0.27505 0.23911 0.1647 0.1348 0.1646
3481.849 0.24769 0.31765 0.31722 0.25117 0.188 0.231425 0.2703 0.21909 0.2082 0.231982
3501.139 0.1469 0.121 0.2031 0.31369 0.28322 0.1837 0.1876 0.28002 0.25473 0.1841
3520.429 0.2188 0.1412 0.064 0.072 0.1772 0.2131 0.1513 0.1935 0.205 0.044
3539.719 0.019 0.076 0.109 0.09 0.061 0.026 0 0.105 0.122 0.107
3559.009 0.1402 0.1851 0.1885 0.118 0.075 0.078 0.088 0.24676 0.3926 0.29995
3578.299 0.1713 0.15 0.097 0.065 0.1836 0.23971 0.1372 0.07 0.063 0.042
3597.589 0.1543 0.22699 0.15 0.1474 0.32222 0.3944 0.28876 0.32358 0.26802 0.2187
3616.879 0.32698 0.3481 0.3323 0.3782 0.26901 0.1561 0.25246 0.29343 0.3132 0.32544
3636.169 0.27001 0.3878 0.4305 0.3863 0.4173 0.3774 0.3858 0.4574 0.5634 0.6387
3655.459 0.5623 0.4223 0.3768 0.3471 0.31247 0.30699 0.3294 0.31906 0.3336 0.3811
3674.749 0.3503 0.29818 0.31802 0.2054 0.1861 0.228765 0.201 0.164 0.236596 0.375
3694.039 0.3721 0.31956 0.3973 0.4195 0.25509 0.1984 0.27762 0.3398 0.30426 0.28651
3713.329 0.30918 0.4179 0.5028 0.4919 0.3544 0.3218 0.30791 0.25226 0.30174 0.1974
3732.619 0.24467 0.399 0.3586 0.2724 0.2037 0.126 0.1371 0.25329 0.27906 0.26658
3751.909 0.188 0.1628 0.27826 0.28584 0.24695 0.25244 0.2817 0.28816 0.30736 0.3684
3771.199 0.4486 0.4265 0.31859 0.3788 0.394 0.27796 0.32477 0.3901 0.2009 0.1561
3790.489 0.3206 0.432 0.4512 0.3901 0.3482 0.4552 0.461 0.3594 0.4988 0.4897
3809.779 0.45 0.5404 0.578 0.6497 0.5749 0.4725 0.5489 0.6686 0.6846 0.5845
3829.069 0.6208 0.7842 0.8214 0.7183 0.6147 0.5561 0.5703 0.6883 0.661 0.5895
3848.359 0.6814 0.7263 0.697 0.7133 0.6359 0.5264 0.5994 0.6211 0.5762 0.6135
3867.649 0.614 0.6028 0.6112 0.6302 0.6494 0.7088 0.6249 0.6425 0.7008 0.605
3886.939 0.5394 0.4961 0.4575 0.6331 0.7456 0.6665 0.6266 0.5566 0.5324 0.556
3906.229 0.5189 0.4165 0.4428 0.4618 0.4159 0.4385 0.4689 0.417 0.3991 0.4325
3925.519 0.3834 0.3334 0.3557 0.4299 0.4929 0.5391 0.5077 0.31089 0.352 0.4242
3944.809 0.3447 0.4122 0.3692 0.3786 0.4506 0.32594 0.28665 0.341 0.3293 0.32369
3964.099 0.3711 0.3755 0.31218 0.31032 0.4075 0.4644 0.4562 0.32633 0.2267 0.27487
3983.389 0.26237 0.3464 0.4226 0.3743 0.4012 0.4458 0.6125 0.6537 0.5909 0.5517
##END=
