##TITLE=5-Nitrothiophene-2-carbonitrile
##JCAMP-DX=4.24
##DATA TYPE=INFRARED SPECTRUM
##ORIGIN=EPA-IR VAPOR PHASE LIBRARY
##OWNER=SRD/NIST
Collection (C) 2018 copyright by the U.S. Secretary of Commerce
on behalf of the United States of America. All rights reserved.
##CAS REGISTRY NO=16689-02-4
##MOLFORM=C 5 H 2 N 2 O 2 S
##$NIST SOURCE=MSDC-IR
##STATE=gas
##XUNITS=1/CM
##YUNITS=ABSORBANCE
##XFACTOR=1.
##YFACTOR=0.001
##DELTAX=1.92898
##FIRSTX=549.8
##LASTX=4000.7
##FIRSTY=4.81
##MAXX=4000.7
##MINX=549.759
##MAXY=0.17529
##MINY=0
##NPOINTS=1790
##XYDATA=(X++(Y..Y))
549.759 4.81 5.58 7.03 7.93 7.55 7.76 7.83 8.23 8.32 6.74
569.049 4.77 3.6 4.3 4.65 3.41 2.95 3.2 3.18 2.78 1.9229
588.339 1.3095 1.597 1.8905 1.8712 2.59 2.2172 1.6923 1.8685 2.145 2.39
607.628 2.1472 1.9084 1.4743 0.897 1.048 1.6299 1.6551 1.44578 1.157 1.6179
626.918 1.6321 1.024 1.023 1.4801 2.2147 2.43 1.9061 1.257 1.37155 1.5626
646.208 1.3729 1.5037 1.8611 2.0319 2.1839 2.45 2.51 2.0504 1.7215 2.55
665.498 2.95 2.74 2.63 2.2211 2.1347 2.44 2.59 2.92 3.26 3.39
684.787 3.76 4.2 4.57 4.64 4.74 5.28 5.13 5.27 5.99 6.34
704.077 6.83 7.73 9.17 10.06 11.4 13.01 14.65 16.4 17.1 19.25
723.367 22.99 28.97 30.13 22.52 18.48 18.1 16.63 15.08 13.45 11.94
742.657 10.44 8.76 7.03 5.71 4.97 4.64 4.16 3.88 4.12 4.08
761.947 3.46 2.69 2.72 3 3.04 2.53 2.51 2.99 3 3.53
781.236 3.74 3.78 4.44 5.09 5.62 6.39 7.58 9.36 10.95 13.1
800.526 16.32 20.98 28.32 38.52 51.99 65.49 74.29 77.26 80.72 84.95
819.816 91.06 93.56 78.68 59.98 46.6 36.04 28.43 23.2 18.88 15.37
839.106 12.1 9.02 7.03 5.03 3.64 3.03 2.8 2.88 2.58 1.931
858.395 2.2266 1.9223 0.925 1.004 1.5192 1.8037 1.8043 1.5956 1.6167 1.6278
877.685 1.5098 1.497 1.7404 2.011 1.8115 1.5485 1.45249 1.138 1.4077 1.5576
896.975 1.6129 1.7905 1.8471 2.0724 1.4996 1.252 1.8331 2.62 2.87 1.8095
916.265 1.6854 2.41 2.3013 2.1625 2.0744 1.9553 1.6479 1.5995 1.6625 1.6403
935.555 1.3988 1.40846 1.9459 1.7234 1.43839 1.5144 1.39882 1.46166 1.36157 1.213
954.844 1.46866 1.6449 1.765 2.3319 2.66 2.54 2.44 2.73 2.82 2.54
974.134 2.2689 1.8733 1.7837 1.9733 2.55 3.33 2.9 2.2916 2.81 2.81
993.424 2.66 2.81 3.05 2.99 3.84 5.25 5.79 6.56 7.43 7.99
1012.714 9.15 10.87 12.35 14.74 17.45 19.57 20.62 20.01 19.88 19.77
1032.003 19.62 20.01 18.76 16.24 13.05 10.58 8.35 6.28 5.34 3.85
1051.293 2.96 2.94 2.2467 1.9387 1.9216 1.838 1.724 1.4839 2.0941 1.2974
1070.583 1.022 2.61 2.54 2.75 2.77 1.574 1.515 2.79 4.79 4.62
1089.873 3.14 2.1199 1.081 1.5136 2.96 4.51 5.18 6.21 8.17 8.58
1109.163 9.2 9.16 8.43 9.85 10.4 9.17 8.6 9.03 10.13 9.79
1128.452 8.05 7.81 7.94 7.82 8.13 7.47 6.67 6.71 6.69 7.01
1147.742 7.16 8.53 10.44 9.88 8.31 8.19 9.51 9 7.26 5.99
1167.032 4.94 3.94 3.04 3.36 4.26 4 3.35 2.85 2.65 3.02
1186.322 3.45 3.42 2.98 3.5 4.45 3.65 3.63 3.88 3.78 6.13
1205.611 6.81 6.29 6.66 8.63 11.52 14.74 17.21 18.09 19.43 20.83
1224.901 20.44 20.12 20.98 19.74 15.97 11.9 9.96 9.38 8.38 7
1244.191 5.4 4.5 4.33 4.6 4.28 3.37 3.13 3.01 2.9 2.53
1263.481 2.3469 2.3472 1.9719 1.7659 2.0802 2.45 2.3265 2.1725 2.63 2.64
1282.771 2.65 3.6 4.23 4.46 4.88 5.85 6.7 7.88 9.33 10.55
1302.060 12.18 14.37 16.71 19.52 23.17 27.63 33.28 40.37 48.87 59
1321.350 70.71 82.99 94.9 105.93 115.37 123.16 130.23 137.66 145.9 154.32
1340.640 161.61 167.67 172.51 175.29 175.23 171.99 165.85 156.29 142.86 123.49
1359.930 98.71 74.3 55.24 42.49 34.21 28.81 25.01 22.06 19.7 17.73
1379.219 15.7 13.93 12.23 10.48 9.24 8.4 7.59 6.96 6.73 6.81
1398.509 7.04 7.27 7.39 7.71 8.41 9.33 10.57 11.89 13.6 16.06
1417.799 18.92 22.72 26.89 30.61 33.64 35.27 35.68 35.79 35.96 35.72
1437.089 34.34 31.16 26.75 22.83 19.95 18.05 17.11 16.4 15.69 15.1
1456.378 14.66 14.16 13.76 13.35 12.85 12.39 11.99 11.61 10.99 10.26
1475.668 9.54 9.18 9.09 9.01 8.96 9.04 9.33 9.94 10.64 11.22
1494.958 12.13 13.58 15.1 16.88 19.45 22.66 26.58 30.89 36.11 42.56
1514.248 49.38 56.39 63.21 68.86 72.87 75.2 77.56 80.79 84.66 87.26
1533.538 87.34 86.35 86.17 87.59 90.34 94.8 99.84 104.09 107.53 109.87
1552.827 111.38 113.02 114.13 113.09 109.87 105.04 99.02 93.22 87.36 81.01
1572.117 73.63 65.58 56.97 48.66 41.38 34.53 28.34 23.49 19.87 16.94
1591.407 14.77 12.77 11.18 10 9.21 8.6 8.2 7.93 7.76 7.85
1610.697 7.95 7.94 7.78 7.77 7.75 7.76 7.96 8.08 8.19 8.16
1629.986 7.99 7.87 7.67 7.37 7.09 6.62 6.11 5.72 5.52 5.3
1649.276 4.68 4.16 4.03 3.89 3.4 3.1 3.12 3.02 2.98 2.94
1668.566 3.01 3.04 2.85 2.77 2.8 2.79 2.82 2.64 2.42 2.3183
1687.856 2.0087 1.9595 2.303 2.51 2.41 2.2949 2.1031 1.8949 1.9767 1.9384
1707.146 1.8497 1.7798 1.732 1.9331 2.2247 2.49 2.46 2.2926 2.3029 2.2826
1726.435 2.2582 2.1666 2.0003 1.969 1.7189 1.6231 1.8113 1.8906 1.8712 1.6879
1745.725 1.688 1.7325 1.6334 1.6473 1.6786 1.6647 1.43702 1.259 1.4998 1.5411
1765.015 1.43362 1.5335 1.702 1.8376 1.9534 2.0531 2.1556 2.322 2.39 2.1301
1784.305 2.0683 2.3144 2.5 2.66 2.83 3.24 3.41 3.55 3.74 3.79
1803.594 3.93 4.01 3.94 3.84 3.82 3.8 3.63 3.25 2.92 2.71
1822.884 2.42 2.2028 2.122 1.8907 1.7026 1.576 1.5353 1.43321 1.44958 1.615
1842.174 1.4952 1.46096 1.41887 1.35 1.4966 1.7077 1.7906 1.6678 1.5458 1.5053
1861.464 1.38971 1.3273 1.40622 1.43719 1.5799 1.6112 1.46872 1.5853 1.6179 1.43822
1880.754 1.46307 1.5233 1.6206 1.5135 1.3436 1.37223 1.40385 1.36027 1.3394 1.259
1900.043 1.192 1.295 1.38346 1.5184 1.40465 1.157 1.059 1.104 1.3317 1.45663
1919.333 1.38541 1.085 1.061 1.252 1.17 1.314 1.42829 1.43374 1.5149 1.3472
1938.623 1.198 1.253 1.21 1.153 1.104 1.095 1.041 0.931 0.904 1.049
1957.913 1.189 1.098 0.99 0.891 0.908 0.869 0.972 1.125 1.129 1.154
1977.202 0.947 0.977 1.138 1.032 0.97 0.849 0.807 0.889 1.03 0.956
1996.492 0.789 0.975 0.984 1.037 1.078 1.006 1.123 1.055 1.049 1.099
2015.782 1.172 1.144 1.07 1.079 1.109 1.142 1.019 0.996 0.938 0.91
2035.072 1.016 1.097 1.137 1.09 1.077 1.248 1.2855 1.3449 1.4904 1.44565
2054.362 1.3081 1.3438 1.4879 1.5928 1.46692 1.37749 1.46148 1.45353 1.43671 1.4192
2073.651 1.42695 1.41918 1.3079 1.187 1.3087 1.39941 1.26 1.2987 1.2778 1.067
2092.941 1.069 1.094 1.145 1.196 1.37018 1.236 1.137 1.37016 1.3075 1.038
2112.231 1.088 1.199 1.161 1.164 1.131 1.3047 1.44018 1.5381 1.5053 1.267
2131.521 1.2888 1.3117 1.247 1.3417 1.36663 1.4768 1.5067 1.41864 1.287 1.293
2150.810 1.42352 1.3565 1.38312 1.2 1.159 1.107 0.947 1.073 1.186 1.251
2170.100 1.166 1.195 1.145 1.03 1.163 1.234 1.163 1.104 1.101 1.015
2189.390 0.903 1.047 1.194 1.144 1.188 1.152 1.183 1.46698 1.5782 1.6087
2208.680 1.8331 2.2139 2.6 3.13 3.79 4.54 5.28 6.06 6.76 6.98
2227.970 6.92 6.8 6.64 6.27 5.46 4.5 3.65 3.05 2.72 2.0748
2247.259 1.6451 1.6053 1.4842 1.39898 1.37935 1.109 0.842 1.094 1.3955 1.3047
2266.549 1.247 1.264 1.154 1.247 1.196 1.024 1.005 1.158 1.165 1.102
2285.839 1.061 0.941 0.996 1.065 1.102 0.89 1.005 1.39178 1.3083 1.135
2305.129 1.146 1.203 1.13 1.086 1.071 1.113 1.081 1.067 1.18 1.3182
2324.418 1.41533 1.44136 1.6687 1.6921 1.46592 1.40197 1.5756 1.6511 1.5553 1.7024
2343.708 1.7567 1.7904 1.9268 1.8316 1.8315 1.7268 1.7344 1.6487 1.44808 1.6871
2362.998 1.8429 1.8271 1.6989 1.5592 1.6008 1.829 1.745 1.5439 1.39478 1.39552
2382.288 1.3961 1.2736 1.142 1.159 1.236 1.085 0.981 0.85 0.849 1.019
2401.578 1.168 1.202 1.179 1.23 1.248 1.2849 1.41521 1.4768 1.5511 1.656
2420.867 1.432 1.042 1.074 1.40283 1.41879 1.5709 1.7395 1.6506 1.6405 1.7761
2440.157 1.9874 1.9027 1.8957 1.827 1.6646 1.8025 2.0476 2.049 1.9612 1.8672
2459.447 1.6692 1.6688 1.8524 1.7845 1.43928 1.111 1.148 1.38995 1.5505 1.3246
2478.737 1.076 1.082 1.1 1.152 1.266 1.3052 1.031 0.828 0.826 0.785
2498.026 0.889 1.205 1.3336 1.2868 1.46308 1.5096 0.961 0.825 1.2 1.37468
2517.316 1.37128 1.2855 1.31 1.4975 1.8306 2.0598 2.039 2.0892 2.3141 2.55
2536.606 2.51 2.55 2.86 2.98 2.98 2.58 2.3004 2.38 2.39 2.1476
2555.896 1.7877 1.7909 1.7349 1.6517 1.7484 1.8166 1.901 1.9604 1.9947 1.7507
2575.186 1.42657 1.43352 1.7023 1.5716 1.5916 1.8087 1.6871 1.41281 1.265 1.244
2594.475 1.221 1.43756 1.115 0.902 1.056 1.2945 1.2735 1.164 1.1 1.131
2613.765 1.2925 1.42914 1.6051 1.7905 1.6735 1.3682 1.529 1.3441 1.202 1.5861
2633.055 1.6601 1.5331 1.618 1.5915 1.8902 2.1908 2.2564 2.57 2.74 2.8
2652.345 2.3641 2.1435 2.3201 2.65 2.71 2.1381 1.9465 2.2742 2.66 2.47
2671.634 2.3622 2.57 2.45 1.9869 1.7504 2.0139 2.0311 1.7977 1.7477 1.6266
2690.924 1.4789 1.3284 1.2768 1.43364 1.5245 1.2981 1.3031 1.45001 1.153 1.246
2710.214 1.4052 1.5243 1.6054 1.5305 1.012 0.761 1.139 1.26 1.5444 1.6114
2729.504 1.41122 1.193 1.063 1.143 1.46792 1.6415 1.5387 1.5577 1.8221 2.0089
2748.794 2.0908 2.1697 2.128 2.3084 2.3127 2.1892 2.2052 2.2177 2.1605 1.8585
2768.083 1.734 1.8374 1.9543 1.961 2.1111 2.2949 2.2532 2.1032 1.9507 2.1867
2787.373 2.2589 2.2535 2.1826 1.4924 1.39621 1.9264 1.9231 1.6843 1.6244 1.5107
2806.663 1.45785 1.46687 1.2907 1.42687 1.6905 1.863 1.7056 1.7613 2.0182 1.9692
2825.953 1.8548 2.0892 2.4 2.1096 2.2156 2.8 2.86 2.39 2.2758 2.58
2845.242 2.59 2.52 2.92 3.13 2.96 3.07 3.25 3.1 3.3 3.57
2864.532 3.27 3.12 3.15 3.27 3.55 3.71 3.82 3.61 3.38 3.62
2883.822 3.81 3.52 3.28 3.58 3.65 3.08 2.97 2.79 3.16 3.47
2903.112 3.03 3 2.9 2.7 2.55 2.52 2.6 2.5 2.2844 2.1375
2922.401 1.7584 1.8185 2.0102 1.9782 2.0269 1.7374 1.349 1.477 1.5373 1.066
2941.691 1.101 1.6072 1.5536 1.13 1.041 1.203 1.2776 1.131 0.834 0.744
2960.981 0.831 0.706 0.736 1.049 0.99 0.822 0.913 1.206 1.257 0.935
2980.271 1.062 1.25 1.155 1.2959 1.249 0.984 0.868 0.864 0.929 1.024
2999.561 1.183 1.122 1.008 1.115 1.2837 0.985 0.779 0.929 0.854 0.819
3018.850 0.825 0.677 0.784 1.09 1.2995 1.3299 1.4371 1.5271 1.177 1.018
3038.140 0.974 1.234 1.159 0.935 0.928 0.88 1.009 0.82 0.464 0.687
3057.430 1.224 1.4624 1.153 1.31 1.4892 1.095 1.495 2.1339 2.164 1.37888
3076.720 1.045 1.43842 1.40096 1.017 1.3263 1.5399 1.5879 1.5451 1.3135 1.6548
3096.009 1.8866 2.39 2.63 2.42 2.59 3.22 3.94 3.85 3.82 4.54
3115.299 5 5.34 5.43 5.19 5.02 4.47 4.21 4.13 3.7 3.2
3134.589 2.47 2.0461 1.9308 1.7019 1.346 1.148 1.2825 1.3173 1.054 1.023
3153.879 1.4173 1.101 0.985 1.40046 1.265 1.009 0.73 0.743 1.046 0.767
3173.169 0.26 0.736 1.3476 1.18 0.949 1.165 0.973 0.433 0.406 0.506
3192.458 0.621 1.036 1.3287 0.936 0.619 0.663 0.604 1.102 1.39751 1.152
3211.748 1.143 1.3092 1.1 0.763 0.785 0.924 0.752 0.35 0.445 0.787
3231.038 0.83 0.784 0.91 0.62 0.18 0.35 0.673 0.773 0.766 0.652
3250.328 0.774 0.858 0.44 0.441 0.66 0.12 0 0.408 0.749 1.3052
3269.617 1.41924 1.162 1.207 1.069 1.2859 1.2897 0.892 0.566 0.565 0.733
3288.907 0.708 1.005 1.45302 1.615 1.2973 1.161 0.968 0.819 1.165 1.142
3308.197 1.101 1.3025 1.228 1.347 1.42561 1.3072 1.2743 1.223 1.262 1.183
3327.487 1.087 1.126 1.44622 1.6385 1.234 1.209 0.988 1.251 1.6723 1.344
3346.777 1.5885 1.5352 0.994 0.907 1.081 0.913 0.788 0.518 0.509 0.894
3366.066 0.998 1.076 1.185 1.46542 1.43571 1.38638 1.3449 1.39321 1.3389 1.225
3385.356 0.956 0.802 1.2954 1.116 0.918 0.954 0.839 1.085 1.076 1.192
3404.646 1.19 0.921 0.923 1.017 1.3092 1.3378 1.165 0.882 0.525 0.383
3423.936 0.725 1.098 1.113 1.155 1.239 1.156 1.088 1.131 1.3084 1.37056
3443.225 1.40257 1.41165 1.264 1.093 1.064 1.239 1.148 1.231 1.029 0.772
3462.515 1.1 1.099 1.029 0.758 0.541 0.907 0.908 1.01 1.36561 1.39632
3481.805 0.756 0.772 1.131 1.104 1.269 1.5037 1.46985 1.153 1.055 1.013
3501.095 1.038 1.6836 1.7359 1.3451 1.2998 1.3052 1.18 1.034 1.4821 1.5714
3520.385 1.193 1.037 1.40362 1.38659 1.095 1.235 0.852 0.559 0.627 0.803
3539.674 1.243 1.6192 1.4922 1.18 1.43734 1.5684 1.054 0.877 1.41969 1.6291
3558.964 1.5757 1.5091 1.328 1.02 0.678 0.492 0.704 0.854 0.89 1.046
3578.254 0.627 0.572 0.931 0.736 0.54 0.882 1.224 1.221 1.052 1.151
3597.544 1.2852 1.075 1.264 1.256 0.761 0.658 1.141 1.3128 1.2806 1.036
3616.833 0.916 1.267 1.069 0.873 1.02 1.143 0.834 0.496 0.968 1.3203
3636.123 1.234 1.088 1.047 1.3404 0.952 0.625 1.2935 1.183 1.40702 1.8246
3655.413 1.576 1.36728 0.932 0.887 1.162 1.239 1.021 0.982 1.101 1.066
3674.703 0.94 0.526 0.46 0.966 1.038 0.687 0.891 1.42244 1.21 1.027
3693.993 1.233 1.108 0.59 0.32 0.86 0.827 0.36 0.663 1.035 1.266
3713.282 1.42811 1.39464 1.116 1.028 1.3529 1.194 0.556 0.452 1.137 1.5424
3732.572 1.5891 1.222 1.172 1.088 0.679 0.665 0.87 0.96 0.838 1.049
3751.862 1.6999 1.45307 1.223 1.46083 1.5641 1.7364 1.4787 1.4708 0.901 0.14
3771.152 0.754 1.092 1.011 1.255 1.251 1.213 1.3337 1.183 1.2989 1.226
3790.441 0.591 0.935 1.187 0.786 0.505 1.244 1.7331 1.5339 1.5515 1.8128
3809.731 1.6489 1.259 1.231 1.03 1.092 1.057 1.037 1.016 1.167 1.065
3829.021 0.698 0.732 0.96 1.106 0.936 0.987 1.258 1.234 1.206 1.241
3848.311 1.175 1.4129 1.163 1.168 1.45332 1.42472 1.5004 1.2964 1.43337 1.868
3867.601 2.2649 2.52 1.8524 1.091 1.144 1.36896 1.18 0.86 0.76 0.683
3886.890 0.632 1.014 1.40954 1.694 1.536 1.134 1.079 0.632 0.636 0.859
3906.180 0.926 1.083 0.679 0.419 0.911 1.43769 1.134 0.762 0.749 0.902
3925.470 1.143 1.218 1.228 1.152 1.41418 1.42842 1.3341 1.074 0.876 1.12
3944.760 1.154 0.944 0.682 0.729 0.624 0.946 1.5585 1.38826 1.054 0.862
3964.049 0.729 0.866 1.3187 1.3126 0.778 0.652 1.057 1.071 0.897 0.918
3983.339 1.3505 1.8153 1.5792 1.074 0.943 1.41973 1.2894 0.914 0.728 0.941
##END=
