##TITLE=2-Acetylcyclopentanone
##JCAMP-DX=4.24
##DATA TYPE=INFRARED SPECTRUM
##ORIGIN=EPA-IR VAPOR PHASE LIBRARY
##OWNER=SRD/NIST
Collection (C) 2018 copyright by the U.S. Secretary of Commerce
on behalf of the United States of America. All rights reserved.
##CAS REGISTRY NO=1670-46-8
##MOLFORM=C 7 H 10 O 2
##$NIST SOURCE=MSDC-IR
##STATE=gas
##XUNITS=1/CM
##YUNITS=ABSORBANCE
##XFACTOR=1.
##YFACTOR=0.001
##DELTAX=1.92934
##FIRSTX=549.9
##LASTX=3999.5
##FIRSTY=4.1224
##MAXX=3999.53
##MINX=549.863
##MAXY=0.0539224
##MINY=0
##NPOINTS=1789
##XYDATA=(X++(Y..Y))
549.863 4.1224 4.4324 4.6924 4.8724 4.9624 5.1624 5.0324 5.0524 5.1624 5.0224
569.156 4.8124 4.6824 4.7224 4.5724 4.2524 3.9724 3.7324 3.6524 3.6324 3.4824
588.450 3.2624 3.1624 2.9724 2.6424 2.5124 2.5324 2.5524 2.4424 2.2924 2.1024
607.743 1.8824 1.8624 1.9124 1.8524 1.7424 1.6724 1.7124 1.7124 1.6724 1.5824
627.037 1.5724 1.6424 1.6624 1.5624 1.5524 1.6924 1.5724 1.5024 1.4424 1.3324
646.330 1.3224 1.2824 1.2724 1.2824 1.2224 1.0624 0.968 1.0724 1.1224 1.0304
665.624 0.9696 0.8932 0.8085 0.8405 0.8457 0.809 0.8372 0.9309 0.8246 0.7022
684.917 0.7389 0.7895 0.9083 0.9674 1.0183 1.0524 1.0424 1.1224 1.1824 1.1024
704.210 1.0032 0.9931 0.9983 0.9768 0.9676 0.9815 0.9361 0.856 0.7838 0.8128
723.504 0.8511 0.8376 0.861 0.8669 0.8231 0.8657 0.8293 0.801 0.8569 0.7807
742.797 0.7856 0.773 0.8334 0.9424 0.8974 0.8603 0.842 0.8845 1.0281 1.1324
762.091 1.1824 1.2724 1.3424 1.3024 1.3224 1.3724 1.4624 1.6924 1.8924 2.0324
781.384 2.1424 2.1524 2.2724 2.5124 2.7624 2.9624 3.0524 3.2424 3.4624 3.6924
800.678 3.9624 4.2524 4.4724 4.6924 4.9124 5.1624 5.4524 5.6224 5.8024 6.0224
819.971 6.2424 6.4124 6.4724 6.4724 6.5424 6.6524 6.6224 6.4924 6.3224 6.3124
839.264 6.2324 6.0224 5.9124 5.7724 5.7124 5.7324 5.7024 5.6624 5.7524 5.8424
858.558 5.9124 5.8924 5.7924 5.7324 5.5924 5.5424 5.4424 5.2924 5.2224 5.0324
877.851 4.8924 4.8124 4.5924 4.3024 4.1124 3.9124 3.8124 3.7624 3.7024 3.7324
897.145 3.7324 3.7824 3.8324 3.8324 3.8624 3.9824 4.1324 4.2324 4.3824 4.6124
916.438 4.8524 5.0524 5.2024 5.2624 5.3224 5.3724 5.2824 5.1924 5.1324 4.9824
935.732 4.7624 4.4924 4.1024 3.6724 3.2624 2.9324 2.8624 2.8524 2.8624 2.9724
955.025 3.0524 3.1824 3.3924 3.5424 3.6424 3.7324 3.8424 3.8524 3.8024 3.7424
974.318 3.6624 3.5224 3.4224 3.3424 3.2024 3.0524 2.9324 2.7824 2.6924 2.6724
993.612 2.6024 2.6024 2.6224 2.6424 2.6624 2.6724 2.7024 2.6724 2.7024 2.6524
1012.905 2.5824 2.6624 2.6124 2.4824 2.4524 2.4224 2.4024 2.3924 2.3724 2.3524
1032.199 2.3224 2.2124 2.1324 2.1824 2.2524 2.2424 2.2524 2.3824 2.4224 2.4424
1051.492 2.5824 2.7224 2.8124 2.8624 2.9824 3.1224 3.1924 3.2224 3.1924 3.2524
1070.786 3.3424 3.4324 3.4824 3.5724 3.7824 3.9024 4.0924 4.3124 4.5624 4.8624
1090.079 5.2024 5.5924 6.0924 6.7424 7.4924 8.4124 9.3624 10.4124 11.5524 12.7524
1109.372 14.0624 15.2624 16.2824 17.3024 18.1824 18.9424 19.6224 20.1624 20.6024 20.9524
1128.666 21.1924 21.1624 20.9324 20.6124 20.3924 19.9724 19.5024 19.0824 18.5924 18.1124
1147.959 17.4824 16.9024 16.4324 16.0724 15.7824 15.5424 15.3224 15.0824 14.8824 14.7024
1167.253 14.4424 14.1624 13.9224 13.6124 13.1724 12.6524 12.1524 11.6624 11.1224 10.7524
1186.546 10.5524 10.2724 10.1824 10.3424 10.6924 11.1924 11.8124 12.5724 13.5224 14.5024
1205.840 15.3224 16.1124 17.0924 18.1224 19.2524 20.5224 21.6924 22.6324 23.6224 24.6124
1225.133 25.3924 26.0924 26.6524 26.9724 26.9724 26.7424 26.2524 25.5224 24.7224 23.7024
1244.426 22.5524 21.3724 20.1624 19.0424 18.0624 17.1424 16.3924 15.9424 15.6724 15.4624
1263.720 15.4024 15.3624 15.4224 15.6024 15.7724 15.9424 16.0324 16.0724 16.0424 16.0124
1283.013 15.9124 15.6624 15.3624 14.9524 14.5324 14.1324 13.6724 13.1124 12.6024 12.1724
1302.307 11.7124 11.4124 11.2524 11.1724 11.1724 11.3424 11.5324 11.5924 11.6624 11.7124
1321.600 11.7124 11.7524 11.8024 11.7524 11.6524 11.5624 11.4724 11.4324 11.5224 11.7124
1340.894 12.0024 12.4624 13.0924 13.9724 15.0324 16.2224 17.3924 18.4624 19.4024 20.1824
1360.187 20.8624 21.3824 21.5824 21.5024 21.2924 20.9424 20.2624 19.2024 18.0624 16.9724
1379.480 15.9524 15.1924 14.5524 14.0424 13.6624 13.2724 12.9724 12.7924 12.6024 12.3324
1398.774 12.1324 12.0324 11.9324 11.8624 11.8024 11.7924 11.8324 11.9424 12.1024 12.1324
1418.067 12.0324 11.8524 11.6324 11.4824 11.2724 10.9224 10.5924 10.2924 9.9224 9.5824
1437.361 9.2824 9.0024 8.8524 8.7424 8.6324 8.6124 8.4824 8.2524 8.0924 8.0624
1456.654 7.9624 7.8024 7.7024 7.5224 7.2924 7.0124 6.7324 6.4524 6.1124 5.7624
1475.948 5.4524 5.2524 5.1024 4.9024 4.6924 4.5024 4.3524 4.2124 4.0724 3.9824
1495.241 3.9224 3.9624 4.0224 4.0024 3.9924 4.0524 4.0924 4.1124 4.1524 4.1724
1514.534 4.2124 4.2924 4.3724 4.4624 4.5424 4.6324 4.7124 4.7524 4.8424 4.9324
1533.828 5.0724 5.2224 5.3624 5.5324 5.7324 5.9824 6.2324 6.4324 6.6724 6.9624
1553.121 7.3024 7.7624 8.1924 8.7324 9.2824 9.8624 10.5324 11.1724 11.8924 12.7324
1572.415 13.5324 14.3624 15.3124 16.2124 17.0924 18.0324 18.8924 19.6424 20.3724 21.1124
1591.708 21.8024 22.3924 22.9424 23.5324 24.0624 24.5424 25.1024 25.7024 26.3724 27.1224
1611.002 27.8824 28.7324 29.5424 30.4224 31.3124 32.0024 32.6124 33.0924 33.3624 33.5124
1630.295 33.4924 33.2724 32.9324 32.5224 32.0524 31.5124 30.8524 30.1324 29.5124 29.0424
1649.588 28.6624 28.3824 28.2024 28.2124 28.3224 28.4924 28.8024 29.0924 29.2624 29.4924
1668.882 29.6724 29.7124 29.6424 29.4224 29.0024 28.5424 27.9424 27.1824 26.2724 25.3224
1688.175 24.4024 23.4824 22.6824 22.0324 21.5824 21.4424 21.6624 22.3424 23.5824 25.3324
1707.469 27.6424 30.5424 33.8524 37.5324 41.2824 44.9024 48.2424 50.8524 52.6324 53.6124
1726.762 53.9224 53.7024 52.9124 51.3124 48.7224 45.8224 42.9924 40.2224 37.8624 36.1024
1746.056 35.0124 34.5724 34.5424 34.7024 34.8724 34.9424 34.9024 34.5624 33.8624 32.7824
1765.349 31.1824 28.9724 26.3124 23.3724 20.3424 17.5824 15.0424 12.8424 11.0224 9.4624
1784.642 8.1824 7.1524 6.3324 5.6524 5.0924 4.6324 4.2024 3.8724 3.5924 3.3124
1803.936 3.0724 2.8524 2.6824 2.5224 2.4024 2.2524 2.0624 1.9124 1.7924 1.6524
1823.229 1.5324 1.4724 1.3824 1.3324 1.2924 1.2224 1.1424 1.0424 1.0324 1.0624
1842.523 1.0424 0.9789 0.9403 0.9127 0.888 0.8767 0.8518 0.872 0.8585 0.8375
1861.816 0.8057 0.765 0.7598 0.7292 0.7207 0.7164 0.6862 0.6548 0.5784 0.5417
1881.110 0.5549 0.5553 0.541 0.5484 0.5795 0.5527 0.5237 0.4728 0.4536 0.4958
1900.403 0.5121 0.4971 0.4448 0.4571 0.4747 0.511 0.4921 0.4258 0.4277 0.4436
1919.696 0.4746 0.494 0.4957 0.4701 0.4723 0.4918 0.4844 0.471 0.4503 0.4084
1938.990 0.4166 0.482 0.5003 0.4606 0.4587 0.4354 0.4068 0.4103 0.3849 0.3796
1958.283 0.3742 0.3579 0.374 0.3809 0.382 0.3729 0.3722 0.3655 0.3387 0.3338
1977.577 0.326 0.3069 0.3131 0.3252 0.3518 0.3586 0.3065 0.2623 0.2241 0.2139
1996.870 0.2405 0.2152 0.2103 0.2211 0.1949 0.1995 0.1814 0.12573 0.12758 0.1418
2016.164 0.1407 0.1807 0.1862 0.1954 0.2124 0.1884 0.1974 0.1786 0.11044 0.12896
2035.457 0.159 0.1549 0.209 0.2265 0.1883 0.195 0.2223 0.1914 0.1655 0.164
2054.750 0.1582 0.1615 0.1814 0.1883 0.1707 0.1574 0.1798 0.1863 0.155 0.11924
2074.044 0.09347 0.10939 0.10398 0.11778 0.1384 0.1743 0.1536 0.10156 0.14 0.12191
2093.337 0.10066 0.1373 0.1613 0.1509 0.12326 0.12717 0.128 0.12545 0.1573 0.12211
2112.631 0.08362 0.1371 0.1654 0.12684 0.11599 0.1325 0.12715 0.1376 0.1724 0.2187
2131.924 0.1663 0.09765 0.12484 0.1366 0.1206 0.11527 0.09457 0.11675 0.12992 0.09218
2151.218 0.10309 0.12855 0.11407 0.11209 0.11532 0.10756 0.08162 0.11671 0.1687 0.129
2170.511 0.09802 0.11647 0.1644 0.10876 0.09087 0.1506 0.137 0.1329 0.09224 0.08257
2189.804 0.1446 0.1426 0.12092 0.12997 0.1491 0.12695 0.12745 0.1474 0.1395 0.1523
2209.098 0.1614 0.215 0.2048 0.1498 0.1812 0.2169 0.223 0.2023 0.202 0.2036
2228.391 0.215 0.2412 0.2511 0.2749 0.2694 0.241 0.2579 0.2556 0.253 0.2813
2247.685 0.2898 0.3247 0.3494 0.3268 0.2943 0.2858 0.2933 0.2641 0.3002 0.3241
2266.978 0.2865 0.3254 0.322 0.3085 0.354 0.3896 0.374 0.3298 0.3252 0.3133
2286.272 0.3229 0.3751 0.3542 0.341 0.3884 0.4321 0.437 0.4232 0.4384 0.4389
2305.565 0.4394 0.4352 0.4336 0.4172 0.4394 0.4677 0.4424 0.4394 0.4474 0.4426
2324.858 0.384 0.3136 0.2882 0.298 0.3502 0.3909 0.3761 0.3255 0.3154 0.3352
2344.152 0.3177 0.3129 0.2975 0.2518 0.2385 0.2389 0.2524 0.2868 0.2828 0.2836
2363.445 0.3741 0.3585 0.2658 0.2913 0.2995 0.2197 0.1921 0.2054 0.2311 0.236
2382.739 0.1668 0.1578 0.2251 0.2027 0.1953 0.2249 0.242 0.2442 0.1839 0.1885
2402.032 0.1481 0.1406 0.2223 0.2224 0.2293 0.2363 0.2171 0.2163 0.1612 0.1842
2421.326 0.2477 0.225 0.1886 0.1747 0.1933 0.2334 0.2282 0.2308 0.288 0.295
2440.619 0.303 0.3044 0.3046 0.3254 0.3077 0.3077 0.3099 0.2942 0.2809 0.2707
2459.912 0.2686 0.2752 0.249 0.2038 0.2654 0.3038 0.2607 0.2762 0.2988 0.2989
2479.206 0.3444 0.3646 0.3605 0.3242 0.2375 0.2835 0.3434 0.3051 0.2589 0.2499
2498.499 0.2558 0.2822 0.2851 0.2202 0.2451 0.3024 0.3061 0.3033 0.2581 0.2559
2517.793 0.2868 0.2716 0.2892 0.2752 0.2599 0.2848 0.2713 0.289 0.2882 0.2677
2537.086 0.2544 0.269 0.3075 0.3086 0.3248 0.2863 0.2211 0.2127 0.2469 0.3282
2556.380 0.3561 0.3218 0.2786 0.2928 0.2566 0.2092 0.2774 0.3228 0.3339 0.2635
2575.673 0.2472 0.2924 0.3338 0.4051 0.4137 0.4222 0.4626 0.443 0.3859 0.3814
2594.966 0.4376 0.4701 0.4957 0.4591 0.3539 0.3478 0.3554 0.3101 0.3573 0.4364
2614.260 0.4698 0.4545 0.3397 0.2647 0.3372 0.369 0.33 0.3224 0.413 0.4427
2633.553 0.3422 0.4224 0.4822 0.4982 0.5475 0.4958 0.4664 0.4475 0.4604 0.449
2652.847 0.4301 0.4727 0.4842 0.529 0.543 0.5593 0.5783 0.5643 0.5479 0.5161
2672.140 0.5078 0.5027 0.5924 0.6564 0.7083 0.7215 0.642 0.6497 0.6163 0.5618
2691.434 0.5568 0.576 0.5512 0.5662 0.5494 0.5946 0.6857 0.6463 0.6429 0.6411
2710.727 0.6072 0.6069 0.6524 0.6473 0.6283 0.626 0.7238 0.8124 0.7361 0.6546
2730.020 0.6989 0.7442 0.8203 0.8467 0.7881 0.8263 0.8474 0.8034 0.7928 0.7752
2749.314 0.7733 0.8483 0.9388 0.9081 0.8774 0.9732 0.9753 0.955 1.0105 1.0524
2768.607 1.0624 1.0209 0.9582 1.0524 1.1224 1.1024 1.0824 1.1024 1.1824 1.1324
2787.901 1.0924 1.1524 1.1324 1.1424 1.1624 1.2724 1.3224 1.3724 1.4724 1.4924
2807.194 1.5924 1.6724 1.7424 1.7924 1.8224 1.9224 2.0724 2.1824 2.1724 2.2524
2826.488 2.4224 2.5024 2.6824 2.8524 2.9124 3.0624 3.3024 3.5224 3.7224 3.9024
2845.781 4.1924 4.5224 4.8324 5.2224 5.6424 6.0524 6.5024 6.8224 7.0624 7.4124
2865.074 7.7124 8.0224 8.2624 8.5424 8.8924 9.1024 9.3424 9.6324 9.9524 10.3024
2884.368 10.6024 10.9024 11.1124 11.2524 11.3824 11.4324 11.4224 11.4524 11.3624 11.3124
2903.661 11.2524 11.2024 11.3424 11.5124 11.6724 11.8724 12.1224 12.4324 12.7924 13.0424
2922.955 13.3224 13.6524 13.9424 14.1024 14.2924 14.4124 14.5024 14.7824 15.0524 15.2424
2942.248 15.3524 15.5724 15.9624 16.3324 16.7424 17.4724 18.3124 19.0824 19.9524 21.1424
2961.542 22.4024 23.5224 24.7924 26.0724 26.9624 27.4324 27.6624 27.6024 27.0324 26.1024
2980.835 24.7124 22.7924 20.7224 18.6824 16.6724 14.7324 12.7324 10.9324 9.5124 8.3324
3000.128 7.3824 6.7024 6.0824 5.5324 5.3124 5.1024 4.7024 4.4724 4.5624 4.5524
3019.422 4.4424 4.3024 4.0424 3.9124 3.7824 3.6224 3.5224 3.3524 3.2124 3.1024
3038.715 2.9824 2.8724 2.7224 2.7424 2.7024 2.6524 2.6824 2.6724 2.5624 2.4124
3058.009 2.4324 2.4224 2.4024 2.2624 2.1724 2.2924 2.3424 2.3124 2.1424 1.8924
3077.302 2.0024 1.9424 1.6824 1.7124 1.7024 1.7624 1.8524 1.8124 1.7124 1.7724
3096.596 1.8124 1.7124 1.7124 1.6224 1.5024 1.3824 1.3424 1.3724 1.3624 1.3524
3115.889 1.2624 1.2924 1.3324 1.3124 1.3524 1.2624 1.2824 1.2324 1.2324 1.2724
3135.182 1.2124 1.1924 1.2124 1.1824 1.0824 1.1224 1.1924 1.0724 0.9749 1.005
3154.476 1.0724 1.1424 0.857 0.7498 1.0168 1.0261 0.9795 1.0424 0.9458 0.7513
3173.769 0.6235 0.7703 0.9234 0.8391 0.8251 0.85 0.7319 0.7874 0.8709 0.9322
3193.063 0.9257 0.7199 0.7237 0.7053 0.6271 0.6629 0.7032 0.787 0.8798 0.9501
3212.356 0.8729 0.7479 0.652 0.7437 0.8824 0.76 0.7336 0.7944 0.8415 0.8496
3231.650 0.8431 0.93 0.8744 0.7299 0.8425 0.8638 0.7788 0.8811 0.8004 0.7463
3250.943 0.8584 0.8249 0.7477 0.7699 0.7229 0.6119 0.6273 0.7979 0.8668 0.7781
3270.236 0.6926 0.6928 0.6822 0.7321 0.79 0.726 0.7452 0.7589 0.7547 0.7049
3289.530 0.7159 0.7608 0.6808 0.5815 0.5544 0.5545 0.5878 0.6995 0.6007 0.5568
3308.823 0.6828 0.8209 0.8352 0.7423 0.6962 0.7483 0.7943 0.7287 0.5666 0.5891
3328.117 0.8207 0.7154 0.4772 0.468 0.5331 0.5531 0.586 0.5373 0.4154 0.5314
3347.410 0.5747 0.4562 0.5376 0.4639 0.5545 0.7789 0.8151 0.6081 0.4944 0.7794
3366.704 0.7999 0.5809 0.4042 0.2653 0.3784 0.6518 0.6722 0.5192 0.5371 0.6029
3385.997 0.5475 0.5274 0.5805 0.5422 0.4416 0.3941 0.4591 0.5641 0.5269 0.588
3405.290 0.5921 0.4004 0.3498 0.2387 0.3025 0.6579 0.8488 0.73 0.6972 0.8069
3424.584 0.8003 0.8148 0.9622 0.9748 0.9491 0.9842 1.0824 1.1324 1.0224 0.8349
3443.877 0.696 0.7356 0.857 0.9182 0.9139 0.9523 0.8762 0.8366 0.8578 0.8641
3463.171 0.8488 0.8209 0.8484 0.8345 0.993 1.0924 0.9824 0.9412 0.926 0.8948
3482.464 0.8643 0.96 1.0524 0.973 0.8761 0.8777 0.9131 0.831 0.8306 0.8956
3501.758 0.616 0.61 0.8395 0.811 0.6837 0.5897 0.4824 0.4691 0.5333 0.5611
3521.051 0.5826 0.6277 0.596 0.4187 0.4029 0.4636 0.471 0.5302 0.5575 0.366
3540.344 0.2088 0.2693 0.2868 0.3408 0.3917 0.3205 0.5069 0.5451 0.2905 0.11044
3559.638 0.032914 0.1985 0.3771 0.2 0.1488 0.2832 0.13163 0.013 0.09083 0.08661
3578.931 0.1836 0.2252 0.1404 0.2767 0.3031 0.2507 0.2461 0.1529 0.0522 0.08404
3598.225 0.1691 0.2099 0.2048 0.11989 0.2674 0.3183 0.1998 0.2785 0.3762 0.2621
3617.518 0.04567 0.3015 0.3881 0.2633 0.2921 0.1693 0.1756 0.2275 0.2066 0.201
3636.812 0.205 0.2434 0.2394 0.1157 0.0707 0.1953 0.1331 0.1435 0.1532 0.1387
3656.105 0.2221 0.12993 0.05373 0.149 0.1459 0.08324 0.2112 0.3424 0.2973 0.1818
3675.398 0.1968 0.1709 0.1758 0.1605 0.1505 0.1689 0.1346 0.08341 0.06272 0.1398
3694.692 0.1644 0.12376 0.136 0.09459 0.0102 0.0216 0.04286 0.07859 0.2005 0.2524
3713.985 0.3072 0.319 0.1946 0.1824 0.2496 0.245 0.1803 0.1374 0.1837 0.1438
3733.279 0.1321 0.1426 0.08933 0.2104 0.3654 0.316 0.2341 0.133 0.06311 0
3752.572 0.10998 0.2795 0.2822 0.2123 0.11177 0.1765 0.1535 0.2277 0.3284 0.2391
3771.866 0.2782 0.2229 0.0631 0.08595 0.235 0.3661 0.1944 0.2382 0.3592 0.2074
3791.159 0.2649 0.3348 0.2597 0.3023 0.3568 0.4368 0.4184 0.3236 0.2765 0.1571
3810.452 0.1416 0.2475 0.3421 0.2598 0.07881 0.11595 0.2001 0.2074 0.2791 0.2763
3829.746 0.1886 0.1558 0.1909 0.2449 0.2698 0.2377 0.2812 0.335 0.2922 0.3137
3849.039 0.3775 0.3933 0.4169 0.4338 0.4231 0.2608 0.1891 0.2911 0.2849 0.224
3868.333 0.3544 0.4755 0.3358 0.2006 0.2013 0.2278 0.2435 0.3722 0.4348 0.319
3887.626 0.1525 0.2214 0.3256 0.1973 0.09026 0.1536 0.2364 0.2491 0.2779 0.1841
3906.920 0.2901 0.3947 0.3479 0.419 0.4098 0.3049 0.1792 0.2108 0.3388 0.2897
3926.213 0.2771 0.3118 0.235 0.2837 0.3676 0.3308 0.2839 0.2332 0.2864 0.3277
3945.506 0.2959 0.3907 0.3635 0.2181 0.1751 0.138 0.2132 0.33 0.2773 0.3042
3964.800 0.3411 0.2274 0.2371 0.2566 0.2099 0.3076 0.2565 0.09211 0.13069 0.2844
3984.093 0.307 0.2252 0.3078 0.4224 0.3975 0.3697 0.3006 0.3367 0.271
##END=
