##TITLE=Ethyl-N,N-Dimethyloxamate
##JCAMP-DX=4.24
##DATA TYPE=INFRARED SPECTRUM
##ORIGIN=EPA-IR VAPOR PHASE LIBRARY
##OWNER=SRD/NIST
Collection (C) 2018 copyright by the U.S. Secretary of Commerce
on behalf of the United States of America. All rights reserved.
##CAS REGISTRY NO=16703-52-9
##MOLFORM=C 6 H 11 N O 3
##$NIST SOURCE=MSDC-IR
##STATE=gas
##XUNITS=1/CM
##YUNITS=ABSORBANCE
##XFACTOR=1.
##YFACTOR=0.001
##DELTAX=3.85796
##FIRSTX=501.5
##LASTX=4000.7
##FIRSTY=0
##MAXX=4000.7
##MINX=501.534
##MAXY=0.204199
##MINY=0
##NPOINTS=908
##XYDATA=(X++(Y..Y))
501.534 0 0.163 0.346 0.284 0.326 0.4738 0.427 0.38 0.403 0.414
540.114 0.357 0.402 0.438 0.336 0.345 0.378 0.425 0.4545 0.447 0.4707
578.693 0.54782 0.6921 0.732 0.7712 0.8849 0.9486 0.9611 1.0194 1.1273 1.2501
617.273 1.3362 1.4329 1.5212 1.579 1.709 1.819 1.969 2.309 2.839 3.449
655.852 4.059 4.469 4.589 4.599 4.539 4.399 4.229 4.089 4.009 3.979
694.432 4.029 4.169 4.299 4.469 4.759 5.059 5.429 5.869 6.289 6.679
733.011 7.049 7.229 7.269 7.279 7.219 7.199 7.249 7.349 7.459 7.599
771.591 7.719 7.799 7.829 7.789 7.639 7.349 6.969 6.409 5.759 5.209
810.170 4.719 4.339 4.129 4.109 4.249 4.419 4.589 4.609 4.519 4.319
848.750 4.139 4.159 4.459 5.019 5.519 5.709 5.499 4.829 3.919 3.079
887.330 2.489 2.189 2.039 1.969 1.909 1.859 1.879 1.949 2.099 2.329
925.909 2.629 3.049 3.649 4.369 4.989 5.409 5.529 5.339 4.969 4.469
964.489 3.999 3.719 3.639 3.679 3.869 4.229 4.769 5.589 6.729 8.309
1003.068 10.369 12.869 15.639 18.089 19.709 20.269 19.869 18.709 17.189 15.879
1041.648 14.949 14.509 14.589 15.129 16.109 17.599 19.629 22.479 26.439 31.779
1080.227 39.299 49.639 63.109 80.009 99.719 120.329 138.349 149.739 151.599 143.759
1118.807 128.089 108.179 88.729 72.499 59.909 50.509 43.629 38.589 34.769 31.809
1157.387 29.689 28.089 26.909 26.109 25.589 25.179 24.829 24.699 24.819 25.339
1195.966 26.429 28.079 30.379 33.499 37.639 43.119 50.389 59.619 70.829 83.509
1234.546 96.189 106.439 111.459 109.789 101.789 89.289 75.279 62.679 53.239 46.969
1273.125 42.649 38.989 35.209 31.179 27.349 24.149 21.669 19.829 18.329 16.829
1311.705 15.319 13.849 12.479 11.259 10.279 9.529 9.019 8.779 8.789 9.149
1350.284 10.019 11.549 13.769 16.129 18.049 19.589 20.909 21.949 23.389 25.919
1388.864 29.399 33.329 37.189 40.349 42.109 42.079 40.159 36.549 31.839 26.989
1427.443 22.709 19.519 17.639 16.869 16.999 17.709 18.769 19.879 20.839 21.489
1466.023 21.779 21.659 21.189 20.499 19.709 18.949 18.269 17.649 17.049 16.309
1504.603 15.449 14.489 13.459 12.459 11.549 10.729 10.099 9.589 9.199 8.929
1543.182 8.709 8.569 8.469 8.349 8.229 8.029 7.769 7.499 7.239 6.979
1581.762 6.739 6.559 6.429 6.319 6.229 6.159 6.149 6.159 6.209 6.359
1620.341 6.599 6.949 7.449 8.109 8.979 10.129 11.629 13.549 15.929 18.969
1658.921 22.739 28.019 35.579 46.939 63.809 87.659 117.969 152.919 183.349 200.859
1697.500 204.199 191.299 159.939 121.149 88.769 65.979 52.119 45.459 43.909 47.039
1736.080 54.949 66.879 81.299 95.119 104.689 105.199 96.179 81.679 65.659 50.759
1774.659 38.659 29.939 23.879 19.559 16.259 13.569 11.349 9.519 8.039 6.869
1813.239 5.979 5.299 4.769 4.379 4.039 3.759 3.519 3.319 3.149 2.979
1851.819 2.859 2.739 2.629 2.589 2.569 2.539 2.509 2.469 2.429 2.379
1890.398 2.269 2.169 2.049 1.929 1.809 1.689 1.609 1.5373 1.481 1.4531
1928.978 1.4236 1.4029 1.3976 1.3776 1.3746 1.364 1.3554 1.3742 1.3829 1.3911
1967.557 1.4029 1.406 1.4101 1.3857 1.3597 1.3409 1.2899 1.2518 1.2395 1.2272
2006.137 1.212 1.2248 1.2368 1.2363 1.2385 1.2439 1.278 1.3133 1.3153 1.3244
2044.716 1.3798 1.4464 1.4833 1.5285 1.569 1.589 1.599 1.589 1.5467 1.4685
2083.296 1.4146 1.3692 1.3534 1.3317 1.3152 1.3322 1.3297 1.3201 1.3443 1.368
2121.875 1.3562 1.3361 1.3067 1.2564 1.2091 1.179 1.1489 1.1218 1.0931 1.0548
2160.455 1.0323 1.0144 1.0074 1.0007 0.9855 0.9933 1.0212 1.0337 1.0179 0.996
2199.035 1.0081 1.0303 1.0411 1.0697 1.0843 1.0794 1.0609 1.0318 1.0106 0.9951
2237.614 0.9849 0.9606 0.9502 0.9555 0.9394 0.9388 0.9309 0.8964 0.8897 0.896
2276.194 0.8828 0.8654 0.8533 0.8328 0.8382 0.8617 0.8623 0.8728 0.9085 0.9601
2314.773 1.0164 1.0472 1.082 1.1299 1.1869 1.248 1.2928 1.3389 1.3811 1.4428
2353.353 1.4778 1.4612 1.4446 1.3986 1.3192 1.2336 1.1736 1.1288 1.0789 1.0532
2391.932 1.0326 1.0159 1.0135 1.0271 1.0321 0.9862 0.9545 0.9575 0.9574 0.9424
2430.512 0.9156 0.9184 0.9319 0.9456 0.968 0.9767 0.9707 0.9785 1.0098 1.0438
2469.092 1.0573 1.0473 1.0538 1.0811 1.0916 1.0798 1.0794 1.0986 1.1129 1.109
2507.671 1.1285 1.1307 1.1022 1.129 1.1383 1.1115 1.1109 1.1242 1.1445 1.1332
2546.251 1.0892 1.059 1.034 1.0092 1.0318 1.0635 1.0293 1.0097 1.0278 1.0325
2584.830 1.0323 1.0121 1.0058 1.0069 0.9978 0.9921 0.9838 0.9806 0.9745 0.9679
2623.410 0.9383 0.9358 0.9356 0.9189 0.9251 0.9072 0.9089 0.9249 0.9061 0.884
2661.989 0.8919 0.9042 0.9095 0.9048 0.9027 0.9411 0.9867 0.988 1.0077 1.0265
2700.569 1.023 1.054 1.0872 1.0912 1.1339 1.1987 1.218 1.2616 1.3402 1.3932
2739.148 1.4164 1.4672 1.569 1.659 1.739 1.829 1.959 2.109 2.269 2.449
2777.728 2.639 2.889 3.199 3.519 3.839 4.199 4.569 4.909 5.199 5.479
2816.308 5.729 5.889 5.999 6.069 6.129 6.249 6.479 6.819 7.279 7.869
2854.887 8.589 9.509 10.609 11.769 12.999 14.179 15.249 16.169 16.849 17.399
2893.467 17.909 18.449 19.159 20.159 21.399 22.799 24.519 26.699 29.419 32.729
2932.046 36.429 39.969 42.519 43.319 42.229 39.639 36.049 32.249 29.179 27.199
2970.626 26.259 26.349 27.579 29.069 29.669 29.259 27.759 25.039 21.929 19.359
3009.205 17.229 15.299 13.569 12.079 10.779 9.659 8.699 7.939 7.299 6.739
3047.785 6.299 5.899 5.529 5.179 4.849 4.549 4.279 3.999 3.769 3.579
3086.364 3.349 3.169 3.009 2.839 2.679 2.509 2.329 2.179 2.089 1.949
3124.944 1.839 1.809 1.759 1.699 1.649 1.629 1.609 1.579 1.549 1.5283
3163.524 1.4664 1.3983 1.3367 1.2788 1.2537 1.2402 1.2243 1.2123 1.1768 1.1083
3202.103 1.0381 0.9796 0.9261 0.8674 0.8686 0.8818 0.8429 0.8188 0.7716 0.7357
3240.683 0.7123 0.6887 0.6823 0.6772 0.7012 0.6876 0.705 0.701 0.6538 0.6497
3279.262 0.62889 0.58634 0.58855 0.6657 0.7094 0.7206 0.74 0.6784 0.6535 0.6707
3317.842 0.6832 0.7283 0.7487 0.7796 0.8201 0.8807 1.0272 1.1771 1.263 1.389
3356.421 1.609 1.789 1.989 2.179 2.249 2.279 2.259 2.119 1.879 1.589
3395.001 1.3927 1.2727 1.1569 1.1068 1.0387 0.9527 0.9585 0.9348 0.9338 0.9462
3433.580 0.9294 0.9606 1.0136 1.064 1.1396 1.1924 1.172 1.137 1.1542 1.2028
3472.160 1.2475 1.3271 1.4399 1.5094 1.4793 1.4865 1.4424 1.3662 1.3103 1.2155
3510.740 1.1844 1.1578 1.057 0.9736 0.9243 0.8933 0.8702 0.8062 0.7102 0.6526
3549.319 0.59254 0.554103 0.58765 0.6032 0.61446 0.6674 0.6679 0.60098 0.56291 0.56485
3587.899 0.54488 0.5029 0.535 0.54161 0.4911 0.5083 0.55983 0.58993 0.5913 0.5377
3626.478 0.5119 0.54503 0.553182 0.5169 0.5276 0.54111 0.553793 0.5338 0.5305 0.55989
3665.058 0.5061 0.5007 0.5227 0.5197 0.5351 0.57656 0.56827 0.54261 0.54217 0.5221
3703.637 0.5012 0.5076 0.552414 0.54622 0.56145 0.58388 0.5263 0.56845 0.59985 0.58352
3742.217 0.61528 0.60502 0.60861 0.60771 0.60211 0.58238 0.56546 0.5801 0.56799 0.57993
3780.797 0.58921 0.56549 0.54286 0.5153 0.515 0.54765 0.57613 0.56572 0.57198 0.59259
3819.376 0.56076 0.57572 0.60306 0.56447 0.57513 0.62315 0.63178 0.5983 0.555032 0.58284
3857.956 0.63331 0.64603 0.59471 0.56357 0.58587 0.60831 0.62817 0.63761 0.57197 0.5352
3896.535 0.57754 0.61534 0.61097 0.59798 0.59881 0.55732 0.54097 0.56547 0.62416 0.6704
3935.115 0.6938 0.6612 0.61342 0.6639 0.6653 0.63956 0.6638 0.63878 0.61044 0.6127
3973.694 0.666 0.7513 0.7692 0.7454 0.7892 0.8356 0.8273 0.856
##END=
