##TITLE=3-Benzenesulphonylthiophene
##JCAMP-DX=4.24
##DATA TYPE=INFRARED SPECTRUM
##ORIGIN=EPA-IR VAPOR PHASE LIBRARY
##OWNER=SRD/NIST
Collection (C) 2018 copyright by the U.S. Secretary of Commerce
on behalf of the United States of America. All rights reserved.
##CAS REGISTRY NO=16718-05-1
##MOLFORM=C 10 H 8 O 2 S 2
##$NIST SOURCE=MSDC-IR
##STATE=gas
##XUNITS=1/CM
##YUNITS=ABSORBANCE
##XFACTOR=1.
##YFACTOR=0.001
##DELTAX=1.92898
##FIRSTX=549.8
##LASTX=4000.7
##FIRSTY=24.749
##MAXX=4000.7
##MINX=549.759
##MAXY=0.115369
##MINY=0
##NPOINTS=1790
##XYDATA=(X++(Y..Y))
549.759 24.749 21.229 17.109 13.389 10.869 9.839 9.169 8.409 7.889 8.359
569.049 9.229 9.969 10.989 13.529 18.429 25.219 35.469 51.299 71.089 87.789
588.339 97.079 101.449 98.919 90.529 75.929 55.679 37.169 24.229 17.599 13.939
607.628 11.919 11.989 13.099 14.099 15.729 19.819 25.489 33.039 40.149 46.519
626.918 54.709 62.909 71.329 76.789 76.889 74.669 69.459 60.469 47.919 34.239
646.208 22.709 15.019 11.449 9.839 8.689 8.069 7.609 7.419 7.909 8.899
665.498 9.599 9.529 10.129 11.249 12.369 13.559 15.479 18.519 22.109 25.909
684.787 28.919 31.809 33.859 33.389 31.539 28.789 25.769 23.029 21.169 19.969
704.077 19.689 21.579 25.879 33.129 43.889 57.089 69.119 76.789 78.959 75.299
723.367 67.279 56.139 41.239 26.579 17.409 12.869 10.699 9.559 9.149 9.309
742.657 10.429 11.419 12.299 13.419 13.539 13.509 13.379 12.519 11.199 10.099
761.947 8.899 7.999 7.649 7.459 7.249 7.299 7.509 7.549 7.639 8.439
781.236 10.009 11.009 12.399 15.109 17.729 19.849 21.659 23.069 23.079 21.569
800.526 19.749 18.479 17.159 16.879 19.159 22.189 25.449 27.759 28.179 27.479
819.816 24.389 21.059 17.559 12.269 7.779 5.319 4.429 4.219 4.009 3.939
839.106 3.829 3.759 4.059 4.679 5.469 5.579 5.909 6.599 7.659 9.159
858.395 10.199 10.509 10.069 9.709 9.039 7.639 5.999 4.209 2.899 2.349
877.685 2.019 2.019 2.039 2.249 2.359 1.7221 2.189 3.499 4.439 4.879
896.975 5.189 5.589 5.299 4.469 3.969 3.469 2.509 2.489 2.429 2.009
916.265 2.089 2.309 1.969 1.743 2.129 2.029 1.7228 1.7834 1.7412 1.2704
935.555 0.80881 0.468 0.81107 1.6073 1.7268 1.6682 1.4036 0.9447 1.2582 1.5936
954.844 1.4035 1.4083 1.1434 0.6922 1.0328 1.4212 1.4785 1.3428 1.3611 1.158
974.134 1.0351 1.4572 1.6116 1.1156 0.9784 1.4457 1.869 2.129 1.959 2.119
993.424 2.659 3.039 2.649 2.759 3.129 3.139 2.769 1.979 2.449 2.799
1012.714 2.489 2.309 2.919 4.139 4.639 4.929 4.859 4.779 4.539 4.309
1032.003 3.829 3.129 2.849 1.989 2.079 2.809 2.839 3.309 3.219 2.749
1051.293 3.259 3.339 3.399 4.019 4.649 5.749 6.869 7.999 9.359 10.399
1070.583 12.329 14.749 16.559 18.979 21.829 24.459 26.579 27.619 27.009 25.559
1089.873 23.409 20.609 19.669 23.159 27.929 31.929 36.719 40.729 43.209 42.429
1109.163 39.919 36.039 28.539 21.689 17.409 15.029 12.009 8.929 8.709 8.319
1128.452 7.649 7.459 6.959 7.149 8.029 9.589 11.389 13.259 16.589 21.969
1147.742 29.059 37.149 47.279 60.689 76.319 91.899 104.629 113.539 115.369 112.109
1167.032 105.999 94.149 80.379 66.409 51.519 39.919 32.269 26.189 22.609 18.669
1186.322 15.539 14.589 13.049 12.759 12.609 13.769 16.049 18.309 21.169 23.049
1205.611 24.619 24.679 23.279 20.659 17.769 15.709 12.929 10.879 10.679 9.179
1224.901 6.429 6.169 7.069 6.309 5.499 5.119 4.289 4.139 3.979 3.839
1244.191 3.719 3.409 3.189 3.389 3.769 3.739 3.739 4.199 4.289 4.219
1263.481 4.399 3.729 3.539 4.099 4.409 4.189 3.959 4.089 4.509 4.689
1282.771 4.709 4.589 4.389 4.529 4.699 4.689 4.719 5.089 5.579 6.159
1302.060 6.769 7.449 8.299 9.109 9.689 10.149 10.589 11.339 12.529 14.159
1321.350 16.209 18.469 21.019 24.079 27.549 31.339 36.109 41.379 47.469 54.829
1340.640 62.609 70.509 77.479 82.229 83.599 80.399 73.109 63.539 53.439 43.669
1359.930 34.559 26.809 20.849 16.519 13.299 11.159 9.509 8.399 7.829 7.319
1379.219 6.969 6.639 6.449 6.259 5.879 5.679 5.779 6.139 6.679 7.689
1398.509 9.479 11.429 13.339 15.239 16.529 17.309 17.499 16.629 14.969 12.959
1417.799 10.869 8.799 7.409 6.459 5.779 5.389 5.169 5.279 5.689 6.489
1437.089 7.549 8.649 9.699 10.409 10.989 11.479 11.549 10.899 9.569 8.209
1456.378 7.229 6.379 5.429 4.709 4.519 4.419 4.479 4.749 5.199 5.789
1475.668 6.329 7.169 7.829 7.989 8.199 8.579 8.609 8.669 9.079 9.769
1494.958 10.169 10.159 9.999 9.549 8.779 7.789 6.219 4.849 3.959 3.099
1514.248 2.719 2.649 2.579 2.349 2.299 2.229 2.059 1.959 2.029 1.979
1533.538 1.7769 1.6808 1.7584 2.009 2.079 1.909 1.6901 1.5344 1.5899 1.809
1552.827 1.859 1.7865 2.169 2.719 3.049 3.249 3.469 4.289 4.889 5.149
1572.117 5.489 5.409 5.249 4.929 4.339 3.809 3.669 3.829 3.639 3.309
1591.407 2.979 2.489 2.499 2.359 1.766 1.6659 1.676 1.4891 1.5048 1.5709
1610.697 1.7188 1.969 1.879 1.6511 1.3799 1.3873 1.7493 1.7335 1.5052 1.4473
1629.986 1.3532 1.3088 1.4312 1.469 1.3236 1.2309 1.2931 1.3785 1.4948 1.4986
1649.276 1.4358 1.637 1.7437 1.809 1.7711 1.495 1.5776 1.6875 1.4758 1.4889
1668.566 1.819 2.179 2.409 2.339 2.229 2.259 2.219 1.959 1.829 1.7739
1687.856 1.467 1.2791 1.3463 1.4927 1.4445 1.2031 1.2089 1.3393 1.2191 1.0229
1707.146 1.1279 1.2936 1.3144 1.3788 1.4872 1.481 1.2893 1.3593 1.5069 1.3797
1726.435 1.4232 1.5076 1.3616 1.3599 1.462 1.3103 1.2743 1.4885 1.6171 1.7692
1745.725 1.839 1.6671 1.7326 2.029 2.139 2.229 2.249 2.289 2.389 2.419
1765.015 2.269 2.249 2.299 2.079 1.959 1.859 1.899 1.789 1.7201 1.869
1784.305 1.7312 1.5043 1.5136 1.7137 1.959 2.149 2.279 2.459 2.679 2.719
1803.594 2.759 2.909 2.699 2.429 2.309 2.039 1.869 1.829 1.6884 1.5025
1822.884 1.5606 1.6016 1.5046 1.4185 1.3461 1.4839 1.4784 1.3294 1.198 1.2819
1842.174 1.384 1.2374 1.2142 1.1969 1.1488 1.1222 0.9982 1.0439 1.1929 1.1581
1861.464 1.1827 1.337 1.367 1.2543 1.1973 1.3056 1.3752 1.4627 1.6404 1.6912
1880.754 1.6323 1.7476 1.869 1.889 2.039 2.059 1.999 2.129 2.129 2.059
1900.043 2.119 2.019 1.859 1.939 2.019 1.939 1.949 1.7359 1.5351 1.4732
1919.333 1.2834 1.2656 1.3012 1.2208 1.339 1.4393 1.3154 1.3138 1.388 1.3012
1938.623 1.3913 1.6217 1.7062 1.7421 1.703 1.6872 1.6986 1.839 2.089 2.289
1957.913 2.359 2.249 2.259 2.209 2.089 2.079 2.219 2.129 1.789 1.724
1977.202 1.7055 1.6122 1.459 1.4357 1.4391 1.2946 1.3061 1.2724 1.2955 1.4148
1996.492 1.4055 1.3483 1.3071 1.3256 1.3278 1.2179 1.213 1.2871 1.2315 1.2241
2015.782 1.0765 0.9698 1.0467 1.021 0.9511 0.9116 0.9189 0.9913 0.9734 1.0394
2035.072 1.0756 0.9945 1.0428 1.0017 1.0061 1.029 0.82998 0.8988 1.1591 1.0595
2054.362 0.88484 0.88132 0.9862 0.9702 0.83879 0.7737 0.7763 0.9561 1.0843 0.9097
2073.651 0.86455 0.9964 1.023 1.0732 1.0095 1.064 1.0753 0.9783 1.0428 1.1325
2092.941 1.1606 1.0308 0.9239 0.9335 1.053 1.2799 1.2728 1.0759 1.1198 1.2246
2112.231 1.1786 0.9117 0.78793 0.83048 0.8975 0.9369 1.0106 1.0886 0.9306 0.9614
2131.521 1.0422 1.0768 1.1334 1.1281 1.0561 0.7408 0.86934 1.0607 0.88263 0.9431
2150.810 0.8931 0.9258 1.1945 1.1694 1.1572 1.3331 1.3543 1.3647 1.4506 1.3885
2170.100 1.2916 1.2031 1.2276 1.3132 1.2408 1.2849 1.2164 1.24 1.2664 1.0499
2189.390 0.9941 1.0106 1.0818 1.1772 1.0992 1.0485 1.1637 1.0808 0.9523 1.0138
2208.680 1.0377 0.9854 1.0177 1.1802 1.1141 1.0115 1.0418 1.1835 1.4018 1.3434
2227.970 1.2853 1.2856 1.3445 1.4204 1.3648 1.4189 1.3941 1.3239 1.2705 1.4086
2247.259 1.5854 1.6165 1.5644 1.4714 1.4235 1.2761 1.4414 1.4639 1.0994 1.2045
2266.549 1.4401 1.276 1.2557 1.3122 1.2128 1.2553 1.3021 1.1594 1.2098 1.4064
2285.839 1.4448 1.3027 1.2617 1.2758 1.116 1.2046 1.1764 1.1441 1.2381 1.1204
2305.129 1.0404 1.2336 1.4369 1.4336 1.4199 1.281 1.4243 1.6631 1.6251 1.5178
2324.418 1.5316 1.4585 1.3714 1.3883 1.2176 1.123 1.2637 1.3126 1.3838 1.4335
2343.708 1.1922 0.9691 0.9203 1.1009 1.3486 1.2577 1.1141 1.1419 1.084 0.9555
2362.998 1.035 1.1764 1.15 1.0161 1.014 1.1067 1.1962 1.1722 1.1437 1.2513
2382.288 1.2041 1.2427 1.1579 1.205 1.4213 1.2939 1.1054 1.3432 1.5969 1.4739
2401.578 1.3422 1.2695 1.0626 1.0192 1.0749 1.1211 1.1045 1.008 0.9269 0.82237
2420.867 1.0356 1.2532 1.3533 1.2625 1.1573 1.2643 1.2944 1.2214 1.1034 1.2564
2440.157 1.1793 0.85472 0.7589 0.713 0.6973 0.80997 0.80975 0.681 0.9119 1.0883
2459.447 1.0947 1.1564 1.0681 0.82102 0.82928 0.9788 0.9395 0.961 1.0087 1.1259
2478.737 1.3109 1.2477 1.1629 1.0429 0.9308 1.0533 1.0931 1.2411 1.3581 1.3424
2498.026 1.3998 1.1887 1.1888 1.2647 1.198 1.2262 1.1967 1.052 1.0927 1.2571
2517.316 1.2232 1.1391 1.0781 1.0064 0.7599 0.525 0.66 0.8047 0.87072 1.0028
2536.606 1.0363 1.1003 1.1682 0.9039 0.541 0.653 1.0172 1.0445 1.0222 0.9651
2555.896 0.8942 1.0572 1.0047 1.1117 1.1139 0.8948 1.2174 1.4064 1.1306 0.9577
2575.186 1.0377 1.0954 1.0095 1.1138 1.1434 1.1307 1.216 1.1616 1.0567 0.8408
2594.475 0.78654 1.0363 0.9634 0.81285 0.9749 0.9442 0.7342 0.636 0.7079 0.9211
2613.765 0.9425 0.88712 1.1144 0.9938 0.7802 0.9522 0.8912 0.9048 1.1496 1.0382
2633.055 0.82056 0.85943 0.83665 0.9911 1.0683 0.9117 0.86448 0.9408 1.0616 0.82417
2652.345 0.78632 0.9373 0.7745 0.81081 0.9629 1.0761 0.86066 0.561 0.9593 1.1355
2671.634 1.1713 1.4492 1.2931 1.1008 1.1669 1.1327 1.223 1.2517 1.1159 1.1258
2690.924 1.117 1.2405 1.2499 1.0655 1.1974 1.3766 1.2985 1.1116 0.9687 0.9218
2710.214 0.7514 0.88217 1.2497 1.1854 0.9836 1.002 1.0124 0.79902 0.936 0.9466
2729.504 0.7232 0.8642 0.9007 0.924 0.9361 0.82963 0.78332 0.8625 1.0583 1.2636
2748.794 1.2291 1.0699 0.83562 0.78702 0.82426 0.81882 0.575 0.478 0.78052 0.7073
2768.083 0.7572 0.9062 0.9737 1.0515 1.1067 1.112 1.0663 0.9918 0.7598 0.9412
2787.373 1.1628 1.1299 1.0945 1.199 1.2525 1.042 0.78007 0.677 0.9144 1.0685
2806.663 1.2042 1.0561 0.621 0.8066 0.9603 1.002 1.1934 0.9024 0.7644 0.9483
2825.953 0.797969 0.579 0.7618 1.1161 0.9117 0.377 0.369 0.68 1.0304 1.3351
2845.242 1.3675 1.1877 1.1442 0.86864 0.87158 1.3982 1.1998 0.7246 0.529 0.442
2864.532 0.77971 1.1695 0.87652 0.478 0.6909 0.83302 0.86329 0.8385 0.7879 1.136
2883.822 1.5711 1.4907 1.0418 1.0057 1.0005 0.8371 1.0209 1.0181 0.7187 0.81757
2903.112 0.81859 0.652 0.668 1.0027 1.1326 0.79911 0.7493 0.81727 0.948 1.2231
2922.401 0.8939 0.790356 0.7747 0.66 0.80784 0.595 0.8884 1.0685 1.0849 1.2311
2941.691 1.0248 1.0398 1.3699 1.4419 1.1649 0.9128 0.9054 0.85834 1.0012 0.83586
2960.981 0.56 0.678 0.487 0.089 0.096 0.599 1.0983 1.3246 1.1252 0.88501
2980.271 1.1528 1.2575 0.9935 1.1307 1.1623 1.274 1.1678 1.2031 1.5339 1.3897
2999.561 1.4594 1.2386 0.85546 1.0715 1.3057 1.5033 1.4185 1.4389 1.774 1.989
3018.850 1.979 2.329 2.679 2.369 2.409 2.389 2.579 2.889 2.639 2.719
3038.140 2.899 2.889 2.839 2.419 2.689 3.279 3.429 3.439 3.869 4.549
3057.430 5.179 6.169 6.989 7.789 8.909 10.699 12.599 13.969 15.039 15.179
3076.720 14.409 13.349 12.099 10.709 8.819 7.079 6.489 6.589 6.349 5.709
3096.009 5.249 5.029 4.579 3.879 3.609 3.649 3.559 3.819 4.059 3.989
3115.299 3.889 4.439 5.109 5.139 5.289 5.209 4.349 3.699 3.209 2.389
3134.589 1.909 1.929 1.789 1.5371 1.0243 0.6939 1.019 1.0812 1.1723 1.2743
3153.879 0.9028 0.87025 1.0098 0.9043 0.9666 0.9747 0.86693 0.9986 1.2839 1.146
3173.169 0.9015 1.1341 1.475 1.1073 0.9747 1.1897 0.84055 0.646 0.9874 1.112
3192.458 1.1882 1.1241 0.579 0.613 1.0649 1.2036 0.9953 1.0987 1.2503 1.198
3211.748 1.1231 0.8746 0.8203 0.789818 0.569 0.521 0.792173 0.7285 0.674 0.85847
3231.038 0.775 0.7755 0.86175 1.013 0.9578 1.0297 1.2553 0.81919 0.6903 0.9269
3250.328 0.9025 0.86963 0.9271 0.9835 0.7627 0.7398 1.043 1.3346 1.3072 0.85907
3269.617 0.636 0.577 0.628 0.7207 1.0208 1.2813 0.9977 0.9049 0.9232 0.7466
3288.907 0.594 0.77977 0.9274 0.81071 0.78354 1.0429 1.0606 0.565 0.582 0.7317
3308.197 0.687 0.88534 1.4585 1.4451 1.0795 1.4473 1.4873 1.1128 1.0767 0.8975
3327.487 0.451 0.338 0.34 0.439 0.539 0.202 0.3 0.83893 1.1686 1.2602
3346.777 1.2025 0.84539 0.496 1.1483 1.4946 1.1827 1.24 1.1614 0.86782 0.7182
3366.066 1.0186 1.2682 0.681 0.577 0.790659 0.78475 1.2131 1.4591 1.5542 1.3762
3385.356 0.9851 0.641 0.371 0.142 0.109 0.373 0.454 0.595 0.621 0.549
3404.646 0.666 0.9854 0.9608 1.0119 1.0314 0.318 0.282 0.668 0.9579 1.1944
3423.936 0.9522 0.9429 0.891 0.689 0.9708 0.901 0.9805 0.687 0.18 0.442
3443.225 0.24 0 0.316 0.791332 0.7687 0.80861 0.526 0.438 1.0325 0.8344
3462.515 0.494 0.7466 0.566 0.285 0.383 0.424 0.45 0.561 1.014 1.0886
3481.805 0.627 0.58 1.0596 1.0999 0.9698 1.2567 1.3863 1.0964 0.668 0.7176
3501.095 1.1183 1.1053 1.2469 1.3397 1.0356 0.9797 1.2534 1.38 1.2189 0.9945
3520.385 0.9298 1.0004 1.2291 1.3982 1.1462 0.791307 0.662 0.9546 1.1238 1.0412
3539.674 0.9153 1.0233 1.1478 0.9565 0.9174 0.8364 1.1004 1.1703 0.81661 0.6899
3558.964 0.561 0.39 0.317 0.7143 0.78646 0.483 0.459 0.617 0.531 0.534
3578.254 0.83599 0.9021 0.59 0.537 0.7592 0.7118 0.463 0.518 0.646 0.7723
3597.544 0.9495 0.83138 0.572 0.501 0.84033 0.649 0.9669 1.6073 1.1522 0.9456
3616.833 1.2585 1.3962 0.893 0.46 0.87698 0.86257 0.526 0.577 0.609 0.366
3636.123 0.049 0.48 0.81543 0.7165 1.1467 0.81422 0.184 0.403 0.572 0.84688
3655.413 0.796122 0.57 0.528 0.039 0.162 0.86411 1.0103 1.2263 1.2374 0.7735
3674.703 0.659 0.85934 1.1429 1.3179 0.992 0.598 0.555 0.80875 0.977 0.571
3693.993 0.7089 0.84258 1.0405 1.4394 1.1803 1.1446 1.0236 0.80134 0.7648 0.627
3713.282 0.537 0.595 0.9541 1.2334 0.8215 0.81469 1.259 1.5887 1.3722 0.9162
3732.572 0.84453 0.7337 1.0765 1.4864 1.4498 1.3389 0.9077 0.918 1.0805 1.065
3751.862 1.2864 1.0833 0.7265 0.9444 0.473 0.014 0.638 0.9488 0.84309 0.82998
3771.152 1.1682 1.0671 0.78348 1.0166 0.80264 0.465 0.9648 1.118 0.9362 0.9101
3790.441 0.702 0.82272 0.7217 0.525 0.83948 1.2285 1.3161 1.0776 1.0997 1.137
3809.731 0.7398 0.473 0.81186 0.7575 0.524 0.488 0.371 0.539 0.588 0.452
3829.021 0.88382 0.9707 0.481 0.595 1.0788 0.9888 0.663 0.66 0.326 0.363
3848.311 0.618 0.35 0.465 1.0938 1.2523 0.7707 0.643 1.0083 1.0766 0.88581
3867.601 0.85047 1.0647 1.253 0.968 0.7619 1.1867 1.4986 1.0229 0.665 0.337
3886.890 0.328 0.9777 1.0074 0.9695 1.1131 1.0534 1.0991 0.9631 0.667 0.83455
3906.180 0.9433 0.9846 1.0074 0.548 0.441 0.546 0.4 0.7065 0.9825 1.0737
3925.470 0.81551 0.6955 0.80775 0.667 0.78359 0.649 0.9689 1.418 1.1188 0.9549
3944.760 1.1918 0.7249 0.401 0.595 0.522 0.645 0.78094 0.655 0.7743 0.652
3964.049 0.495 1.0709 1.4469 1.0564 0.7136 0.78498 0.79982 0.723 0.605 1.0123
3983.339 1.5985 1.5962 0.987 1.0736 1.0055 0.80871 0.581 0.653 0.7005 0.328
##END=
