##TITLE=2-Methylbenzyl isothiocyanate
##JCAMP-DX=4.24
##DATA TYPE=INFRARED SPECTRUM
##ORIGIN=EPA-IR VAPOR PHASE LIBRARY
##OWNER=SRD/NIST
Collection (C) 2018 copyright by the U.S. Secretary of Commerce
on behalf of the United States of America. All rights reserved.
##CAS REGISTRY NO=16735-69-6
##MOLFORM=C 9 H 9 N S
##$NIST SOURCE=MSDC-IR
##STATE=gas
##XUNITS=1/CM
##YUNITS=ABSORBANCE
##XFACTOR=1.
##YFACTOR=0.001
##DELTAX=1.92898
##FIRSTX=549.8
##LASTX=4000.7
##FIRSTY=8.759
##MAXX=4000.7
##MINX=549.759
##MAXY=0.375329
##MINY=0
##NPOINTS=1790
##XYDATA=(X++(Y..Y))
549.759 8.759 8.649 8.539 8.899 9.539 9.759 9.759 10.169 10.369 10.269
569.049 10.549 10.579 10.379 10.509 10.659 10.939 11.079 11.019 11.089 11.159
588.339 11.439 11.669 11.759 11.769 11.809 12.219 12.449 12.469 12.549 12.549
607.628 12.149 11.449 10.889 10.489 9.909 9.329 8.969 8.669 8.499 8.249
626.918 7.949 7.649 7.389 7.209 7.009 6.699 6.239 5.909 5.689 5.449
646.208 5.179 5.029 4.929 5.029 5.089 5.099 5.299 5.539 5.909 6.459
665.498 7.019 7.639 8.739 9.869 10.809 12.049 13.319 14.259 15.279 16.119
684.787 16.519 16.709 16.439 15.639 14.819 14.019 13.039 12.269 11.869 11.749
704.077 11.799 12.269 13.419 15.009 17.229 20.399 24.499 29.479 35.419 41.679
723.367 47.579 52.719 56.699 59.579 61.329 61.539 59.739 56.169 51.889 47.259
742.657 42.159 36.779 31.779 27.459 23.939 20.729 17.819 15.609 13.579 11.829
761.947 10.479 9.419 8.519 7.609 6.609 5.789 5.069 4.519 4.069 3.749
781.236 3.489 3.159 2.999 2.969 2.919 2.779 2.419 2.209 2.179 1.949
800.526 1.959 2.089 2.039 1.939 1.949 1.989 2.159 2.319 2.459 2.719
819.816 3.039 3.469 3.829 4.439 5.399 6.009 6.309 6.519 6.499 6.269
839.106 6.029 5.879 5.599 4.999 4.239 3.919 3.749 3.589 3.599 3.609
858.395 3.499 3.389 3.309 3.259 3.239 2.919 2.849 2.829 2.669 2.579
877.685 2.419 2.379 2.419 2.429 2.189 2.259 2.669 2.719 2.709 2.699
896.975 2.579 2.509 2.589 2.719 2.759 2.829 2.879 3.029 3.099 3.199
916.265 3.379 3.369 3.509 3.589 3.689 3.969 4.179 4.279 4.359 4.589
935.555 4.629 4.439 4.279 4.129 4.019 3.879 3.799 3.639 3.389 3.329
954.844 3.339 3.249 3.049 3.089 3.129 2.849 2.779 2.859 2.919 2.909
974.134 2.739 2.649 2.639 2.629 2.789 3.169 3.069 2.909 2.919 2.799
993.424 2.729 2.779 2.779 2.679 2.669 2.869 2.799 2.639 2.649 2.569
1012.714 2.729 2.959 2.839 2.959 3.139 3.119 3.509 3.929 3.959 3.989
1032.003 4.319 4.729 4.839 5.039 5.519 5.729 6.059 6.589 7.059 7.009
1051.293 6.809 7.049 6.829 6.259 5.819 5.239 4.669 4.439 4.339 3.799
1070.583 3.539 3.509 3.149 2.849 2.679 2.779 3.109 3.079 2.899 2.939
1089.873 2.939 3.149 3.519 3.629 3.759 3.719 3.619 3.669 3.849 4.029
1109.163 4.039 4.169 4.189 4.409 4.729 4.639 4.579 4.349 4.249 4.379
1128.452 4.209 3.819 3.699 3.839 3.709 3.439 3.509 3.599 3.469 3.539
1147.742 3.709 3.859 3.829 4.139 4.529 4.419 4.369 4.519 4.839 4.979
1167.032 4.809 5.239 5.649 5.649 5.729 5.789 6.049 6.319 6.489 6.149
1186.322 5.669 5.879 5.969 5.679 5.549 5.149 4.809 5.009 5.469 5.729
1205.611 5.649 5.799 5.829 5.559 5.589 5.829 5.789 5.629 5.079 4.879
1224.901 5.229 5.269 5.129 5.039 5.139 5.309 5.119 5.009 5.329 5.339
1244.191 5.189 5.059 5.019 5.109 5.139 5.299 5.579 5.669 5.769 5.939
1263.481 5.989 6.249 6.719 7.039 7.319 7.749 8.199 8.719 9.249 9.609
1282.771 9.959 10.429 10.629 10.729 11.049 11.519 11.859 12.159 12.599 12.999
1302.060 13.539 14.409 15.419 16.619 17.969 19.479 21.339 23.549 26.119 29.069
1321.350 32.389 36.279 40.779 45.889 51.669 57.979 64.289 69.649 72.899 73.479
1340.640 71.709 68.289 63.609 57.719 50.829 43.369 36.179 30.129 25.499 22.149
1359.930 19.679 17.819 16.369 15.089 13.929 12.859 11.859 11.019 10.479 10.219
1379.219 10.199 10.259 10.269 10.109 9.869 9.619 9.389 9.059 8.429 7.689
1398.509 7.009 6.439 6.029 5.709 5.499 5.409 5.369 5.419 5.539 5.749
1417.799 6.039 6.319 6.699 7.159 7.729 8.389 9.109 10.039 11.199 12.499
1437.089 14.009 15.779 17.729 19.809 22.039 24.469 26.959 29.279 31.229 32.719
1456.378 33.669 34.039 33.799 32.799 30.919 28.309 25.439 22.659 20.169 18.179
1475.668 16.679 15.429 14.629 14.229 14.139 14.359 14.779 15.099 15.259 15.179
1494.958 14.839 14.339 13.509 12.439 11.229 9.849 8.409 7.169 6.199 5.449
1514.248 4.829 4.299 4.029 3.809 3.579 3.409 3.269 3.169 3.089 3.039
1533.538 3.009 2.909 2.899 2.899 2.869 2.839 2.789 2.819 2.819 2.769
1552.827 2.769 2.769 2.739 2.769 2.839 2.829 2.789 2.809 2.979 2.999
1572.117 3.049 3.259 3.399 3.579 3.819 4.009 4.219 4.429 4.619 4.909
1591.407 5.189 5.459 5.669 5.909 6.159 6.279 6.259 6.159 6.079 5.849
1610.697 5.469 5.099 4.719 4.249 3.819 3.499 3.239 3.049 2.849 2.619
1629.986 2.449 2.339 2.219 2.149 2.109 2.059 1.929 1.859 1.819 1.809
1649.276 1.849 1.789 1.749 1.809 1.809 1.789 1.869 1.959 1.959 1.959
1668.566 2.019 2.059 2.089 2.079 1.999 1.929 1.869 1.869 1.889 1.889
1687.856 1.879 1.819 1.789 1.799 1.899 1.979 1.909 1.879 1.939 1.959
1707.146 1.949 1.929 1.899 1.859 1.859 1.889 1.869 1.819 1.799 1.759
1726.435 1.749 1.719 1.6872 1.6887 1.689 1.6822 1.6373 1.6299 1.611 1.5735
1745.725 1.5555 1.5615 1.5495 1.5594 1.6452 1.6625 1.719 1.769 1.749 1.769
1765.015 1.809 1.839 1.899 1.989 2.029 2.089 2.099 2.209 2.329 2.379
1784.305 2.489 2.599 2.709 2.829 2.869 2.869 2.859 2.849 2.819 2.799
1803.594 2.759 2.669 2.589 2.579 2.599 2.549 2.459 2.489 2.609 2.729
1822.884 2.789 2.839 2.969 3.139 3.249 3.259 3.259 3.259 3.229 3.189
1842.174 3.179 3.149 3.129 3.169 3.199 3.229 3.329 3.449 3.609 3.779
1861.464 3.959 4.129 4.309 4.479 4.689 4.979 5.269 5.499 5.799 6.119
1880.754 6.319 6.529 6.799 7.109 7.389 7.619 7.899 8.269 8.629 8.989
1900.043 9.369 9.739 10.149 10.549 10.839 11.139 11.459 11.779 12.209 12.559
1919.333 12.909 13.419 13.949 14.549 15.239 15.999 16.809 17.759 18.789 19.859
1938.623 21.059 22.279 23.519 24.769 26.029 27.329 28.649 29.959 31.259 32.629
1957.913 34.189 35.939 37.919 40.049 42.299 44.809 47.499 50.479 53.639 56.969
1977.202 60.619 64.499 68.579 72.979 77.709 82.739 88.139 93.829 99.899 106.409
1996.492 113.289 120.579 128.239 136.299 144.829 153.789 163.229 173.139 183.409 193.989
2015.782 204.899 216.119 227.589 239.249 250.989 262.689 274.369 286.059 297.549 308.769
2035.072 319.709 330.179 339.979 349.139 357.259 364.299 369.929 373.619 375.329 374.839
2054.362 371.989 367.079 360.379 352.069 342.779 332.979 322.769 312.309 301.729 290.989
2073.651 279.969 268.749 257.109 244.999 232.549 219.869 207.209 194.779 182.849 171.509
2092.941 160.919 151.089 142.089 133.939 126.339 119.369 113.139 107.429 102.259 97.619
2112.231 93.409 89.629 86.209 83.129 80.229 77.579 75.089 72.779 70.739 68.909
2131.521 67.349 65.919 64.749 63.919 63.359 63.049 62.969 62.959 63.129 63.599
2150.810 64.229 64.909 65.669 66.499 67.419 68.299 69.039 69.649 69.949 69.989
2170.100 69.709 69.099 68.099 66.729 65.039 62.949 60.589 58.069 55.439 52.729
2189.390 50.119 47.719 45.489 43.429 41.639 39.999 38.399 36.959 35.699 34.469
2208.680 33.279 32.089 30.849 29.629 28.369 27.019 25.709 24.429 23.049 21.729
2227.970 20.579 19.449 18.399 17.499 16.589 15.729 15.029 14.439 13.879 13.339
2247.259 12.909 12.489 12.059 11.619 11.239 10.899 10.529 10.149 9.759 9.409
2266.549 9.079 8.719 8.399 8.089 7.699 7.419 7.159 6.809 6.489 6.309
2285.839 6.129 5.879 5.769 5.589 5.319 5.159 5.039 4.849 4.669 4.529
2305.129 4.429 4.309 4.169 4.109 4.039 3.939 3.849 3.749 3.669 3.699
2324.418 3.689 3.589 3.489 3.389 3.309 3.319 3.249 3.119 3.089 2.989
2343.708 2.909 2.879 2.819 2.809 2.719 2.569 2.509 2.439 2.419 2.359
2362.998 2.269 2.249 2.259 2.149 2.059 2.069 2.019 1.989 2.019 2.049
2382.288 2.029 1.959 1.939 1.909 1.889 1.909 1.919 1.839 1.739 1.709
2401.578 1.6783 1.6388 1.6225 1.6274 1.6018 1.5894 1.6025 1.5996 1.6758 1.749
2420.867 1.6656 1.5736 1.5457 1.4995 1.5221 1.6257 1.6223 1.5671 1.534 1.5052
2440.157 1.5196 1.5701 1.5391 1.5054 1.5195 1.5868 1.6788 1.6087 1.5923 1.5596
2459.447 1.5138 1.576 1.649 1.6764 1.591 1.6529 1.729 1.699 1.699 1.729
2478.737 1.739 1.709 1.729 1.749 1.779 1.809 1.799 1.829 1.839 1.829
2498.026 1.899 1.939 2.009 2.039 1.949 1.919 1.939 1.979 1.999 1.949
2517.316 1.959 1.949 1.899 1.919 1.949 1.939 1.999 2.059 2.089 2.149
2536.606 2.119 2.049 2.029 2.059 2.049 2.059 2.079 2.069 2.129 2.179
2555.896 2.189 2.179 2.189 2.149 2.209 2.269 2.169 2.159 2.199 2.199
2575.186 2.189 2.219 2.269 2.249 2.209 2.219 2.209 2.229 2.209 2.139
2594.475 2.109 2.199 2.199 2.109 2.139 2.189 2.169 2.059 1.979 1.979
2613.765 1.939 1.909 1.939 1.939 1.899 1.829 1.779 1.699 1.6332 1.618
2633.055 1.6631 1.6618 1.6361 1.6438 1.645 1.699 1.6752 1.709 1.699 1.709
2652.345 1.779 1.769 1.779 1.809 1.879 1.889 1.879 1.969 1.979 1.949
2671.634 2.019 2.059 2.059 2.129 2.159 2.119 2.179 2.219 2.209 2.329
2690.924 2.409 2.399 2.499 2.629 2.709 2.809 2.849 2.939 3.079 3.139
2710.214 3.229 3.339 3.409 3.459 3.559 3.719 3.819 3.899 3.979 4.109
2729.504 4.239 4.259 4.339 4.509 4.579 4.529 4.559 4.589 4.569 4.579
2748.794 4.559 4.529 4.499 4.479 4.459 4.429 4.409 4.329 4.219 4.139
2768.083 4.159 4.229 4.159 4.079 4.129 4.179 4.169 4.189 4.199 4.169
2787.373 4.289 4.359 4.289 4.159 4.169 4.319 4.399 4.389 4.309 4.249
2806.663 4.209 4.189 4.079 4.019 3.989 3.929 3.969 3.959 3.809 3.819
2825.953 3.919 4.099 4.199 4.129 4.199 4.289 4.329 4.459 4.649 4.769
2845.242 4.889 5.079 5.399 5.739 5.979 6.319 6.669 7.149 7.749 8.179
2864.532 8.669 9.299 10.089 10.859 11.419 12.149 12.889 13.589 14.289 14.729
2883.822 15.089 15.499 15.669 15.669 15.599 15.309 14.989 14.739 14.459 14.149
2903.112 13.959 13.849 13.829 13.839 13.949 14.219 14.579 15.209 15.839 16.509
2922.401 17.349 18.299 19.289 20.209 21.099 21.859 22.509 23.079 23.449 23.779
2941.691 23.919 23.919 23.939 23.869 23.779 23.549 23.179 22.819 22.299 21.619
2960.981 21.029 20.259 19.429 18.619 17.849 17.219 16.679 16.099 15.649 15.339
2980.271 14.789 14.199 13.719 13.259 12.639 11.979 11.339 10.659 10.009 9.609
2999.561 9.339 9.109 9.179 9.429 9.719 10.129 11.069 12.349 13.619 15.109
3018.850 16.629 18.069 19.409 20.519 21.329 21.789 21.729 21.249 20.419 19.349
3038.140 18.249 17.039 16.009 15.289 14.749 14.589 14.779 14.999 15.449 16.089
3057.430 16.779 17.599 18.409 19.389 20.369 21.259 22.049 22.659 23.139 23.339
3076.720 23.179 22.649 21.599 20.119 18.289 16.369 14.459 12.619 10.959 9.489
3096.009 8.409 7.579 6.809 6.169 5.859 5.589 5.229 5.039 4.749 4.279
3115.299 3.899 3.699 3.409 2.929 2.579 2.439 2.199 1.979 1.889 1.719
3134.589 1.6135 1.5288 1.5258 1.4087 1.2314 1.2841 1.2909 1.171 1.0755 1.0452
3153.879 1.1371 1.1632 1.0883 1.1227 1.1473 1.0195 0.9786 0.9397 0.8062 0.7881
3173.169 0.9257 0.8546 0.6723 0.78253 0.7412 0.6624 0.7974 0.73719 0.564 0.607
3192.458 0.583 0.469 0.529 0.5892 0.57 0.559 0.426 0.397 0.421 0.433
3211.748 0.511 0.498 0.488 0.463 0.411 0.289 0.19 0.179 0.208 0.337
3231.038 0.371 0.31 0.318 0.368 0.393 0.411 0.461 0.37 0.313 0.366
3250.328 0.301 0.247 0.372 0.408 0.318 0.347 0.394 0.318 0.275 0.276
3269.617 0.313 0.29 0.234 0.333 0.424 0.402 0.47 0.564 0.388 0.32
3288.907 0.361 0.268 0.285 0.324 0.349 0.291 0.168 0.178 0.131 0
3308.197 0.069 0.355 0.46 0.381 0.371 0.378 0.23 0.143 0.254 0.299
3327.487 0.344 0.356 0.341 0.36 0.276 0.156 0.189 0.218 0.289 0.361
3346.777 0.314 0.32 0.272 0.241 0.406 0.434 0.394 0.416 0.348 0.301
3366.066 0.332 0.24 0.148 0.245 0.296 0.344 0.355 0.286 0.34 0.536
3385.356 0.513 0.42 0.371 0.346 0.354 0.368 0.492 0.456 0.318 0.261
3404.646 0.318 0.376 0.38 0.455 0.505 0.419 0.383 0.458 0.42 0.428
3423.936 0.351 0.313 0.367 0.38 0.346 0.341 0.37 0.297 0.314 0.352
3443.225 0.325 0.395 0.463 0.351 0.39 0.426 0.481 0.445 0.331 0.366
3462.515 0.328 0.175 0.232 0.521 0.576 0.441 0.408 0.43 0.404 0.378
3481.805 0.344 0.391 0.29 0.208 0.295 0.344 0.383 0.32 0.426 0.397
3501.095 0.187 0.283 0.496 0.516 0.5 0.448 0.333 0.355 0.376 0.383
3520.385 0.439 0.437 0.461 0.456 0.39 0.411 0.389 0.42 0.489 0.452
3539.674 0.404 0.33 0.312 0.409 0.32 0.287 0.378 0.446 0.472 0.513
3558.964 0.56 0.429 0.398 0.354 0.222 0.156 0.219 0.319 0.522 0.690152
3578.254 0.6265 0.553 0.511 0.6186 0.6191 0.445 0.352 0.365 0.395 0.441
3597.544 0.488 0.459 0.486 0.461 0.418 0.468 0.558 0.5973 0.6461 0.6236
3616.833 0.436 0.382 0.446 0.547 0.558 0.545 0.549 0.416 0.343 0.47
3636.123 0.57 0.546 0.6121 0.555 0.477 0.438 0.337 0.391 0.524 0.537
3655.413 0.436 0.43 0.475 0.387 0.353 0.424 0.366 0.338 0.455 0.588
3674.703 0.604 0.5 0.542 0.564 0.42 0.304 0.348 0.422 0.478 0.53
3693.993 0.493 0.532 0.526 0.506 0.5997 0.71062 0.689665 0.536 0.456 0.543
3713.282 0.588 0.569 0.70624 0.6743 0.581 0.522 0.428 0.314 0.317 0.386
3732.572 0.467 0.489 0.487 0.515 0.565 0.6694 0.6401 0.574 0.5924 0.71323
3751.862 0.697487 0.6621 0.6007 0.6341 0.74968 0.7903 0.678 0.574 0.471 0.237
3771.152 0.391 0.579 0.519 0.489 0.492 0.532 0.6324 0.546 0.384 0.487
3790.441 0.68328 0.603 0.54 0.6525 0.6661 0.6583 0.6369 0.70183 0.70741 0.70644
3809.731 0.78863 0.72024 0.6402 0.6181 0.6336 0.74046 0.818 0.8567 0.77814 0.6666
3829.021 0.6616 0.72667 0.74924 0.8175 0.8469 0.693626 0.6532 0.6474 0.6344 0.6774
3848.311 0.8487 0.9278 0.8397 0.9868 0.9945 0.8079 0.78844 0.8835 0.9382 0.8846
3867.601 0.9047 0.9909 1.0116 1.0507 1.0246 0.9242 0.8899 0.9443 0.9703 0.8931
3886.890 0.9212 0.9474 0.9849 1.0224 0.951 1.0792 1.2695 1.2809 1.2702 1.2562
3906.180 1.3294 1.3482 1.2943 1.3432 1.212 1.0723 1.1061 1.1456 1.0055 0.9081
3925.470 0.9645 1.0329 1.0023 0.9622 1.1536 1.2621 1.3085 1.3065 1.24 1.2902
3944.760 1.2624 1.2477 1.3763 1.3971 1.3698 1.3065 1.4334 1.5907 1.6125 1.6277
3964.049 1.5551 1.5727 1.5265 1.4598 1.4889 1.5933 1.5499 1.5397 1.5892 1.5011
3983.339 1.5577 1.719 1.869 1.889 1.729 1.799 1.879 1.709 1.739 1.849
##END=
