##TITLE=1,2-Dimethylcyclohexene
##JCAMP-DX=4.24
##DATA TYPE=INFRARED SPECTRUM
##ORIGIN=NIST Mass Spectrometry Data Center
##OWNER=NIST Standard Reference Data Program
Collection (C) 2018 copyright by the U.S. Secretary of Commerce
on behalf of the United States of America. All rights reserved.
##CAS REGISTRY NO=1674-10-8
##MOLFORM=C 8 H 14
##$NIST SOURCE=MSDC-IR
##SPECTROMETER/DATA SYSTEM=HP-GC/MS/IRD
##STATE=gas
##XUNITS=1/CM
##YUNITS=ABSORBANCE
##XFACTOR=1.0
##YFACTOR=0.000006200
##DELTAX=4.0
##FIRSTX=550.0
##LASTX=3846.0
##FIRSTY=0.000738
##MAXX=3846
##MINX=550
##MAXY=0.062
##MINY=0
##NPOINTS=825
##XYDATA=(X++(Y..Y))
550.0 119 57 41 60 60 54 41 33 47 50
590.0 53 72 78 65 46 35 30 30 35 33
630.0 31 41 44 38 30 21 23 28 30 25
670.0 9 18 32 32 30 22 25 33 33 32
710.0 37 34 25 24 29 29 31 35 34 34
750.0 35 33 33 32 29 27 26 27 32 33
790.0 35 46 53 51 59 77 91 101 98 102
830.0 102 96 92 82 72 63 58 69 72 67
870.0 68 72 70 62 59 57 53 59 61 63
910.0 66 70 77 79 78 75 74 73 76 76
950.0 76 82 85 89 91 90 90 88 85 86
990.0 84 80 83 84 83 81 84 86 79 71
1030.0 61 55 59 59 52 54 66 74 77 81
1070.0 86 90 97 99 89 93 109 122 140 163
1110.0 189 218 252 297 353 403 414 399 370 340
1150.0 293 233 191 159 132 113 100 87 76 69
1190.0 62 60 68 71 75 88 100 118 136 146
1230.0 163 169 162 160 155 150 149 151 155 157
1270.0 159 159 153 144 134 122 108 103 103 102
1310.0 107 113 123 142 166 186 206 223 241 256
1350.0 262 264 265 276 296 330 373 417 454 473
1390.0 459 426 379 321 277 259 260 284 331 401
1430.0 490 581 672 754 799 844 840 741 648 569
1470.0 490 406 329 270 224 194 182 172 166 161
1510.0 159 167 174 180 184 187 188 190 189 185
1550.0 181 176 174 161 145 136 132 121 109 100
1590.0 89 83 80 75 66 61 61 57 51 48
1630.0 47 50 48 47 50 55 56 53 52 51
1670.0 51 46 43 42 42 40 38 36 33 32
1710.0 32 31 28 29 29 27 25 26 31 31
1750.0 24 20 21 20 18 20 22 21 20 19
1790.0 21 21 19 19 23 21 20 21 21 20
1830.0 21 20 21 21 20 21 22 21 20 21
1870.0 23 23 21 22 23 22 22 26 29 29
1910.0 27 24 24 23 22 21 19 19 18 19
1950.0 21 20 20 20 22 25 23 22 23 19
1990.0 16 17 19 18 17 18 19 20 19 18
2030.0 20 20 18 18 17 15 19 23 21 18
2070.0 17 15 14 14 13 13 14 15 16 13
2110.0 12 12 11 10 9 10 11 11 9 11
2150.0 12 10 9 10 11 11 9 8 9 10
2190.0 11 11 12 14 17 19 21 19 17 16
2230.0 13 14 12 14 14 13 14 11 9 11
2270.0 13 12 10 7 9 11 12 11 12 13
2310.0 12 13 15 18 21 22 20 23 22 19
2350.0 20 24 28 26 22 20 18 13 15 19
2390.0 18 16 17 16 17 18 18 20 21 19
2430.0 19 21 22 23 26 26 28 29 29 31
2470.0 32 34 32 29 29 30 32 32 34 33
2510.0 34 36 36 37 37 33 28 27 28 28
2550.0 27 28 28 28 31 33 33 36 41 44
2590.0 43 44 46 48 50 51 50 51 54 57
2630.0 56 53 59 71 80 93 114 136 153 169
2670.0 185 196 197 193 186 177 167 158 154 151
2710.0 151 158 168 178 186 192 196 192 184 178
2750.0 172 172 174 178 188 202 217 235 260 288
2790.0 322 359 402 451 509 588 712 913 1230 1685
2830.0 2237 2748 3103 3334 3536 3728 3929 4110 4326 4549
2870.0 4614 4756 5117 5117 4830 4874 5105 5310 5562 5930
2910.0 6356 6842 7409 7968 8681 9686 10000 9055 7967 7012
2950.0 5783 4427 3086 2042 1444 1171 1087 1107 1172 1247
2990.0 1320 1368 1386 1373 1325 1256 1179 1101 1033 972
3030.0 913 854 782 704 625 548 474 400 342 294
3070.0 256 225 197 176 160 144 129 117 106 97
3110.0 88 84 78 72 68 63 59 59 55 51
3150.0 48 49 50 49 51 50 48 43 44 48
3190.0 43 39 36 38 37 34 34 33 32 32
3230.0 34 33 25 21 20 19 18 15 14 14
3270.0 14 18 18 14 12 12 13 10 11 12
3310.0 13 15 14 14 14 19 19 16 17 17
3350.0 20 20 19 21 23 22 18 20 18 19
3390.0 19 19 19 16 17 7 0 3 6 10
3430.0 11 13 13 14 16 15 11 8 10 11
3470.0 16 19 16 17 20 20 20 18 15 20
3510.0 25 25 21 18 19 23 25 26 23 21
3550.0 21 18 16 16 14 8 8 12 13 11
3590.0 10 11 17 17 11 14 17 13 17 17
3630.0 17 18 15 19 18 17 16 16 20 23
3670.0 21 20 16 14 21 22 19 24 29 32
3710.0 31 29 31 31 29 34 37 35 33 39
3750.0 41 41 42 39 41 39 34 39 41 38
3790.0 40 40 42 45 46 45 44 45 45 44
3830.0 45 44 42 38 37
##END=
