##TITLE=1-Ethyl-1-methylcyclopentane
##JCAMP-DX=4.24
##DATA TYPE=INFRARED SPECTRUM
##ORIGIN=NIST Mass Spectrometry Data Center
##OWNER=NIST Standard Reference Data Program
Collection (C) 2018 copyright by the U.S. Secretary of Commerce
on behalf of the United States of America. All rights reserved.
##CAS REGISTRY NO=16747-50-5
##MOLFORM=C 8 H 16
##$NIST SOURCE=MSDC-IR
##SPECTROMETER/DATA SYSTEM=HP-GC/MS/IRD
##STATE=gas
##XUNITS=1/CM
##YUNITS=ABSORBANCE
##XFACTOR=1.0
##YFACTOR=0.000000900
##DELTAX=4.0
##FIRSTX=550.0
##LASTX=3846.0
##FIRSTY=0.000353
##MAXX=3846
##MINX=550
##MAXY=0.009
##MINY=0
##NPOINTS=825
##XYDATA=(X++(Y..Y))
550.0 392 275 205 232 259 233 239 188 213 309
590.0 197 40 103 117 91 131 142 207 215 202
630.0 169 93 124 210 201 162 167 130 25 28
670.0 75 124 116 67 97 99 137 149 96 50
710.0 74 113 119 159 131 89 80 97 140 109
750.0 40 33 63 86 154 194 134 127 167 194
790.0 181 171 183 156 147 139 118 88 17 28
830.0 85 86 53 47 63 45 35 59 83 96
870.0 87 40 19 52 44 33 52 85 116 122
910.0 109 153 167 126 120 147 122 95 98 71
950.0 47 78 132 118 138 166 174 173 162 207
990.0 252 287 299 284 268 235 201 205 189 172
1030.0 167 145 139 138 138 103 92 97 114 125
1070.0 101 98 98 78 60 55 72 93 85 91
1110.0 97 84 84 97 96 128 138 121 113 129
1150.0 149 146 192 208 177 162 143 118 126 150
1190.0 162 149 152 180 179 182 185 171 159 163
1230.0 177 170 149 159 152 132 131 156 133 100
1270.0 123 167 158 123 120 108 124 153 156 151
1310.0 141 150 176 178 166 185 198 191 191 194
1350.0 199 203 257 315 379 475 563 615 637 601
1390.0 525 436 319 239 208 191 170 165 191 247
1430.0 302 332 421 559 679 782 840 881 908 892
1470.0 827 737 664 574 476 398 331 264 205 157
1510.0 139 124 98 84 99 129 111 63 72 94
1550.0 94 71 7 49 102 108 99 93 128 120
1590.0 111 119 121 116 103 103 91 73 83 82
1630.0 79 58 61 75 70 41 24 64 85 65
1670.0 42 55 79 38 7 57 49 16 14 37
1710.0 67 35 11 53 72 52 41 52 63 59
1750.0 54 48 46 47 45 51 57 64 73 79
1790.0 69 63 72 85 77 78 82 61 57 66
1830.0 75 87 97 72 47 72 82 70 75 62
1870.0 51 52 53 68 73 60 67 63 56 58
1910.0 59 67 62 55 42 38 38 47 52 62
1950.0 69 62 63 42 35 40 46 54 55 64
1990.0 82 73 49 48 53 52 56 62 54 54
2030.0 48 42 43 38 40 52 53 46 47 49
2070.0 38 41 51 39 24 20 50 64 60 65
2110.0 51 29 32 36 20 25 38 36 49 59
2150.0 59 56 58 45 32 41 38 30 39 46
2190.0 42 40 39 20 4 19 49 43 32 29
2230.0 24 26 42 37 14 31 56 43 34 37
2270.0 42 41 32 40 57 58 60 53 36 42
2310.0 62 59 39 29 15 29 43 25 25 29
2350.0 29 22 3 4 4 4 19 50 72 64
2390.0 39 50 58 51 45 51 66 65 67 77
2430.0 86 72 72 65 68 90 97 71 51 46
2470.0 48 65 75 83 76 60 56 64 70 85
2510.0 77 59 63 78 102 90 65 79 72 67
2550.0 59 61 85 90 83 85 113 123 124 110
2590.0 101 99 92 102 93 93 111 116 113 108
2630.0 117 119 106 131 142 143 133 123 127 127
2670.0 112 110 109 95 101 125 151 139 124 127
2710.0 115 116 141 148 158 161 170 192 190 211
2750.0 218 185 182 200 190 217 249 238 236 235
2790.0 258 288 298 302 306 323 345 374 439 512
2830.0 585 676 760 890 1139 1438 1788 2162 2481 2860
2870.0 3221 3490 3699 3756 3744 3697 3613 3544 3592 3757
2910.0 3976 4251 4549 4856 5190 5520 5890 6343 6908 7627
2950.0 8496 9387 10000 9966 9327 8393 7168 5668 4240 3098
2990.0 2264 1667 1269 1016 840 754 655 541 494 452
3030.0 401 370 369 361 322 307 317 318 279 276
3070.0 302 275 264 284 254 210 215 219 218 208
3110.0 200 196 181 163 159 181 155 160 180 170
3150.0 148 119 139 148 147 164 171 167 162 160
3190.0 160 148 118 107 75 61 67 73 100 93
3230.0 107 98 96 106 82 104 133 98 74 101
3270.0 112 102 89 99 125 92 67 105 95 80
3310.0 107 102 112 105 92 122 120 102 103 96
3350.0 80 92 125 121 99 111 118 120 99 54
3390.0 89 97 89 126 111 109 128 107 76 83
3430.0 72 54 47 59 75 63 71 97 80 68
3470.0 93 96 76 92 98 75 83 97 109 141
3510.0 121 58 64 80 91 93 94 113 113 119
3550.0 114 77 68 48 29 51 51 71 95 112
3590.0 117 109 101 56 49 64 42 33 58 40
3630.0 23 55 74 83 62 37 43 45 48 57
3670.0 29 0 21 40 3 34 94 50 32 59
3710.0 31 12 45 72 67 19 6 4 4 21
3750.0 32 21 38 110 128 89 68 84 86 51
3790.0 42 49 53 32 5 30 59 42 41 55
3830.0 75 55 33 60 70
##END=
