##TITLE=3,4-Dimethyl-1-hexene
##JCAMP-DX=4.24
##DATA TYPE=INFRARED SPECTRUM
##ORIGIN=NIST Mass Spectrometry Data Center
##OWNER=NIST Standard Reference Data Program
Collection (C) 2018 copyright by the U.S. Secretary of Commerce
on behalf of the United States of America. All rights reserved.
##CAS REGISTRY NO=16745-94-1
##MOLFORM=C 8 H 16
##$NIST SOURCE=MSDC-IR
##SPECTROMETER/DATA SYSTEM=HP-GC/MS/IRD
##STATE=gas
##XUNITS=1/CM
##YUNITS=ABSORBANCE
##XFACTOR=1.0
##YFACTOR=0.000004300
##DELTAX=4.0
##FIRSTX=550.0
##LASTX=3846.0
##FIRSTY=0.000262
##MAXX=3846
##MINX=550
##MAXY=0.043
##MINY=0
##NPOINTS=825
##XYDATA=(X++(Y..Y))
550.0 61 48 45 24 1 14 21 21 36 34
590.0 32 31 31 42 40 42 38 48 64 65
630.0 75 73 74 91 112 133 153 195 235 253
670.0 267 276 279 273 253 223 182 145 124 117
710.0 99 81 76 81 93 89 89 100 114 128
750.0 135 136 137 139 139 136 119 113 128 122
790.0 117 115 121 119 108 108 98 102 109 115
830.0 127 133 142 148 145 143 143 141 152 161
870.0 173 190 210 262 347 477 683 1006 1411 1768
910.0 2011 2109 1998 1727 1335 938 654 499 415 369
950.0 368 375 385 402 423 458 508 587 708 864
990.0 1020 1139 1210 1206 1107 943 769 625 507 419
1030.0 364 338 319 300 294 294 288 278 274 271
1070.0 272 269 273 287 293 301 303 302 306 313
1110.0 317 308 294 277 245 215 204 192 175 156
1150.0 145 141 131 118 105 94 91 88 87 81
1190.0 72 67 65 63 53 52 69 81 90 99
1230.0 106 116 129 148 163 162 155 154 155 163
1270.0 178 189 204 218 227 236 243 242 243 241
1310.0 231 220 210 211 215 219 216 208 229 268
1350.0 303 346 419 523 688 874 1040 1161 1220 1179
1390.0 1038 853 676 571 524 523 538 538 550 556
1430.0 548 543 594 707 837 992 1113 1223 1303 1276
1470.0 1154 984 826 666 497 364 285 228 187 126
1510.0 99 109 96 88 93 94 90 77 60 73
1550.0 88 79 67 93 118 121 122 132 145 141
1590.0 145 152 155 159 175 203 242 304 388 492
1630.0 584 626 644 619 533 405 283 220 177 139
1670.0 115 98 87 69 57 64 51 26 26 40
1710.0 42 20 9 31 42 21 4 22 31 23
1750.0 8 15 24 25 15 9 18 26 21 22
1790.0 26 31 35 40 63 89 118 150 185 206
1830.0 215 213 192 145 104 85 69 48 39 32
1870.0 28 31 31 33 30 29 31 30 30 31
1910.0 31 27 24 23 23 26 30 26 20 22
1950.0 26 26 27 27 27 30 36 36 36 35
1990.0 30 30 28 25 25 23 19 20 24 24
2030.0 23 22 18 17 20 21 19 17 19 24
2070.0 23 18 21 20 16 16 19 20 21 23
2110.0 21 19 22 24 23 17 17 18 13 10
2150.0 11 14 15 14 16 19 19 17 19 17
2190.0 16 18 15 12 11 13 14 11 10 14
2230.0 12 13 13 13 13 15 19 20 19 19
2270.0 19 13 15 18 19 21 17 11 12 12
2310.0 4 1 1 1 1 1 6 4 6 12
2350.0 9 1 1 1 1 1 8 18 23 29
2390.0 34 34 37 41 42 41 40 40 41 43
2430.0 39 34 32 34 37 37 41 42 36 32
2470.0 38 39 33 29 34 34 30 30 35 39
2510.0 38 37 38 40 40 43 56 60 61 61
2550.0 63 69 75 77 78 84 89 89 89 88
2590.0 89 93 93 93 97 99 99 95 94 94
2630.0 92 96 99 95 99 101 99 100 100 97
2670.0 96 100 104 104 107 108 108 111 115 118
2710.0 125 134 143 152 161 175 187 197 205 204
2750.0 201 195 192 194 197 198 198 203 210 222
2790.0 238 254 269 286 303 321 346 377 413 450
2830.0 487 532 594 681 812 1000 1277 1658 2135 2704
2870.0 3350 3995 4517 4806 4841 4653 4322 3948 3644 3498
2910.0 3524 3703 3989 4319 4641 4918 5117 5234 5291 5368
2950.0 5628 6207 7165 8397 9495 10000 9768 8933 7571 5958
2990.0 4498 3366 2567 2041 1693 1436 1240 1072 931 816
3030.0 724 664 626 604 604 615 645 702 788 911
3070.0 1066 1208 1329 1399 1329 1182 1004 779 583 442
3110.0 358 313 279 254 243 236 227 222 216 211
3150.0 208 202 200 200 198 188 175 172 167 149
3190.0 131 125 126 113 102 96 87 84 79 69
3230.0 64 71 68 62 64 62 55 55 62 66
3270.0 59 50 56 55 52 53 43 40 50 51
3310.0 44 54 51 42 41 33 36 46 49 44
3350.0 49 52 46 44 43 46 47 40 38 36
3390.0 36 38 44 36 32 44 43 37 40 39
3430.0 32 34 35 32 30 35 33 27 31 33
3470.0 30 36 35 29 32 32 37 30 13 19
3510.0 27 28 25 13 11 24 30 29 20 3
3550.0 16 32 25 10 0 10 24 23 19 4
3590.0 8 25 27 28 23 13 22 26 32 22
3630.0 12 36 50 49 25 14 40 49 53 43
3670.0 30 31 41 49 42 34 37 37 39 45
3710.0 34 33 48 38 24 31 17 19 27 21
3750.0 25 34 41 40 44 50 63 66 60 56
3790.0 63 64 49 48 51 48 51 39 41 65
3830.0 64 57 53 54 73
##END=
