##TITLE=4-Bromo-2,5-difluoronitrobenzene
##JCAMP-DX=4.24
##DATA TYPE=INFRARED SPECTRUM
##ORIGIN=EPA-IR VAPOR PHASE LIBRARY
##OWNER=SRD/NIST
Collection (C) 2018 copyright by the U.S. Secretary of Commerce
on behalf of the United States of America. All rights reserved.
##CAS REGISTRY NO=167415-27-2
##MOLFORM=C 6 H 2 Br F 2 N O 2
##$NIST SOURCE=MSDC-IR
##STATE=gas
##XUNITS=1/CM
##YUNITS=ABSORBANCE
##XFACTOR=1.
##YFACTOR=0.001
##DELTAX=1.929
##FIRSTX=549.8
##LASTX=4000.8
##FIRSTY=2.51
##MAXX=4000.75
##MINX=549.766
##MAXY=0.26551
##MINY=0
##NPOINTS=1790
##XYDATA=(X++(Y..Y))
549.766 2.51 2.35 1.9201 2.14 2.36 2.26 2.22 2.16 1.9201 2.0424
569.056 2.35 2.48 2.43 2.46 2.56 2.44 2.5 2.39 2.33 2.16
588.346 1.7932 1.8986 1.924 1.7201 1.7023 1.7406 1.7461 1.8306 1.7795 1.6809
607.636 1.597 1.4049 1.4197 1.4464 1.4949 1.493 1.2248 1.20967 1.2939 1.2882
626.926 1.4026 1.5404 1.6573 1.5408 1.3107 1.3274 1.2293 1.0741 1.14047 1.2955
646.216 1.3635 1.21558 1.13738 1.19387 1.3702 1.5941 1.755 1.8792 1.8752 1.9443
665.506 2.0861 2.18 2.41 2.55 2.52 2.66 2.62 2.44 2.39 2.33
684.796 2.29 2.23 2.18 2.0887 2.045 2.119 2.25 2.36 2.42 2.66
704.086 2.97 3.22 3.65 4.14 4.78 5.48 6.08 6.79 7.42 7.78
723.376 7.98 8.16 8.36 8.61 9.22 10.23 11.42 12.97 14.72 16.62
742.666 18.5 20.46 22.43 23.86 24.67 24.63 24.21 24.19 24.66 25.64
761.956 27.52 30.21 33.48 37.06 40.24 42.85 45.35 48.44 53 60.83
781.246 74.63 97.01 127.78 160.51 184.19 193.47 191.66 180.45 156.21 119.89
800.536 82.5 54.26 37.08 27.67 22.5 19.78 18.54 18.15 18.54 19.32
819.826 20.37 21.69 23.13 24.66 26.15 27.62 28.73 28.93 28.24 27.12
839.116 26.13 25.05 23.21 20.82 18.58 16.82 15.56 14.85 14.72 15.01
858.406 15.68 16.7 17.62 18.2 19.26 21.43 24.75 29.02 34.05 40.08
877.696 46.84 53.8 59.89 63.75 65.07 64.24 60.37 52.91 44.28 36.64
896.986 29.86 23.7 18.37 14.02 10.71 8.42 6.99 5.97 5.21 4.72
916.276 4.26 3.89 3.72 3.63 3.61 3.52 3.42 3.35 3.34 3.33
935.566 3.33 3.46 3.56 3.51 3.48 3.59 3.68 3.88 4.07 4.4
954.856 5.01 5.63 6.49 7.62 8.79 10.18 11.74 13.51 15.56 18.2
974.146 21.74 26.33 32.17 39.16 46.6 53.02 57.07 58.06 55.86 50.57
993.436 42.35 32.51 23.44 16.84 12.78 10.25 8.55 7.47 6.68 6.07
1012.726 5.7 5.49 5.39 5.44 5.46 5.34 5.15 4.89 4.65 4.48
1032.016 4.14 3.67 3.44 3.27 3.04 2.82 2.66 2.67 2.65 2.6
1051.306 2.5 2.49 2.56 2.59 2.55 2.46 2.42 2.3 2.2 2.12
1070.596 2.0765 2.16 2.22 2.34 2.48 2.68 3.07 3.53 4.16 4.9
1089.886 5.72 6.64 7.38 7.8 7.84 7.5 6.79 5.94 5.16 4.52
1109.176 4.08 3.74 3.54 3.51 3.53 3.51 3.47 3.51 3.62 3.67
1128.467 3.65 3.65 3.75 3.86 3.93 4.09 4.22 4.3 4.35 4.32
1147.757 4.24 4.22 4.26 4.19 4.24 4.39 4.61 4.85 5.2 5.81
1167.047 6.68 7.96 9.7 12.05 15.25 19.78 26.09 34.24 44.67 57.52
1186.337 72.68 89.2 105.15 118.34 126.56 129.86 130.75 129.44 122.69 109.58
1205.627 93.76 78.5 64.92 53.69 44.63 37.07 30.92 25.97 21.9 18.74
1224.917 16.34 14.53 13.23 12.17 11.46 11.07 10.87 10.87 11 11.36
1244.207 11.87 12.3 12.76 13.32 13.82 14.48 15.29 16.39 18.02 20.29
1263.497 23.23 26.63 30.34 33.84 36.62 38.17 38.27 36.98 34.62 31.71
1282.787 28.66 26.31 25.14 24.88 25.26 25.83 26.31 26.52 26.4 26.02
1302.077 25.56 25.18 24.95 25.02 25.62 27.01 29.21 32.23 36.2 41.51
1321.367 48.37 57.02 67.65 79.97 93.6 107.94 122.29 135.94 147.93 157.29
1340.657 163.69 167 167.54 165.65 161.23 154.01 143.89 131.36 117.13 101.45
1359.947 84.36 67.21 52.27 41.23 33.89 29.23 26.63 25.62 26.08 28.12
1379.237 32 37.78 45.62 55.1 65.33 74.79 81.93 85.97 86.39 82.72
1398.527 74.77 64.25 54.19 45.8 39 33.41 28.76 24.81 21.84 19.81
1417.817 18.5 17.66 17.17 16.96 16.87 16.86 17.02 17.2 17.45 17.83
1437.107 18.3 18.91 19.69 20.57 21.66 23 24.58 26.55 29.08 32.15
1456.397 36.17 41.12 46.89 54.06 62.96 74.07 87.67 104.26 124.23 147.79
1475.687 173.03 199.14 223.17 243.32 257.46 264.95 265.51 259.56 247.97 233.21
1494.977 217.03 200.56 185.05 169.9 154.99 141.05 127.58 115.4 105.19 97.04
1514.267 91.6 88.67 87.73 88.46 90.69 94.05 98.76 104.74 111.9 120.34
1533.557 130.28 141.57 153.82 168.08 183.49 198.95 214.23 228.31 239.97 248.71
1552.847 253.09 253.01 248.74 240.19 228.67 215.83 201.3 186.55 172.97 161.17
1572.137 152.06 145.36 140.14 136.18 133.25 130.73 128.48 126.27 123.97 121.48
1591.427 118.59 115.22 111.23 106.44 100.61 93.65 86.37 80.3 76.26 73.89
1610.717 72.47 71.34 69.93 67.43 63.77 59.02 53.13 46.63 40.08 33.8
1630.007 28.24 23.74 20.41 17.87 15.82 14.34 13.2 12.28 11.45 10.65
1649.297 10.01 9.5 8.97 8.47 8.08 7.64 7.2 6.86 6.51 6.19
1668.587 5.9 5.63 5.43 5.31 5.27 5.27 5.19 5.12 5.15 5.09
1687.877 4.93 4.78 4.63 4.5 4.43 4.34 4.3 4.26 4.24 4.27
1707.167 4.28 4.29 4.33 4.45 4.67 4.88 5.12 5.34 5.58 5.88
1726.457 6.13 6.4 6.65 6.84 7.08 7.27 7.39 7.42 7.34 7.15
1745.747 6.83 6.37 5.88 5.37 4.86 4.39 3.98 3.64 3.37 3.23
1765.037 3.15 3.11 3.11 3.08 3.05 3.01 2.96 2.85 2.72 2.6
1784.327 2.47 2.33 2.14 2.0262 1.9188 1.8024 1.6986 1.6109 1.5439 1.5166
1803.617 1.4653 1.419 1.4427 1.4045 1.3992 1.4202 1.3776 1.4088 1.4239 1.3721
1822.907 1.3704 1.386 1.3725 1.3292 1.2845 1.2636 1.2555 1.2436 1.2754 1.3178
1842.197 1.2996 1.3031 1.3347 1.3242 1.289 1.2439 1.21883 1.2261 1.18611 1.13587
1861.487 1.19859 1.2344 1.2297 1.2976 1.2724 1.2282 1.2817 1.3123 1.3211 1.3646
1880.777 1.443 1.4734 1.4349 1.48 1.5128 1.468 1.4507 1.4416 1.4247 1.3818
1900.067 1.3552 1.3379 1.2857 1.2429 1.2211 1.20399 1.16253 1.1033 1.11227 1.1197
1919.357 1.12946 1.16022 1.16328 1.20235 1.20439 1.14574 1.15519 1.18374 1.14187 1.0985
1938.647 1.11546 1.105 1.0923 1.0558 1.002 1.0275 1.0334 1.0598 1.0674 1.017
1957.937 0.993 1.0249 1.0595 1.0574 1.0655 1.0863 1.0597 1.0284 1.04 1.0361
1977.227 0.999 0.976 0.981 0.996 1.015 0.991 0.98 1.0284 1.011 0.988
1996.517 1.018 1.0567 1.0724 1.0893 1.0865 1.0658 1.0603 1.0458 1.0637 1.0724
2015.807 1.0692 1.0947 1.12335 1.2032 1.2228 1.20533 1.2297 1.2774 1.3266 1.3578
2035.097 1.4404 1.4524 1.4505 1.48 1.4672 1.4572 1.3994 1.4036 1.4719 1.5049
2054.387 1.507 1.5162 1.5629 1.6045 1.6757 1.7363 1.7916 1.8705 1.9508 2.0326
2073.677 2.1152 2.16 2.22 2.31 2.38 2.4 2.43 2.49 2.49 2.43
2092.967 2.38 2.29 2.15 2.0662 1.934 1.754 1.6205 1.488 1.3838 1.3381
2112.257 1.3067 1.2855 1.2462 1.2376 1.2367 1.2275 1.20232 1.18855 1.2562 1.2584
2131.547 1.2426 1.3099 1.3563 1.3413 1.3412 1.2967 1.2211 1.20405 1.19222 1.1494
2150.837 1.0905 1.0439 1.009 1.01 1.045 1.0376 1.0518 1.12977 1.17982 1.2681
2170.127 1.3542 1.3702 1.4202 1.486 1.5212 1.5367 1.5002 1.4885 1.5057 1.4349
2189.417 1.4075 1.396 1.3311 1.2962 1.235 1.21462 1.2367 1.17365 1.11099 1.0704
2208.707 1.0638 1.0815 1.0632 1.0351 0.98 0.958 0.899 0.846 0.882 0.83
2227.997 0.819 0.887 0.882 0.895 0.892 0.846 0.776 0.724 0.698 0.754
2247.287 0.794 0.773 0.791 0.806 0.813 0.784 0.762 0.787 0.858 0.854
2266.577 0.872 0.896 0.911 0.96 0.944 0.982 1.0484 1.0867 1.13255 1.1833
2285.868 1.19691 1.2251 1.3157 1.3854 1.3745 1.3434 1.369 1.3703 1.3404 1.3765
2305.158 1.4058 1.4179 1.4087 1.3625 1.3088 1.2894 1.3253 1.3134 1.2984 1.2698
2324.448 1.2332 1.289 1.3091 1.3612 1.3951 1.3488 1.3542 1.4059 1.3533 1.3139
2343.738 1.391 1.395 1.3376 1.3554 1.3673 1.3519 1.3755 1.3426 1.3524 1.3529
2363.028 1.3369 1.3955 1.4491 1.4623 1.5329 1.5699 1.5811 1.6171 1.6186 1.6974
2382.318 1.7412 1.7432 1.733 1.7165 1.7281 1.7129 1.7513 1.7192 1.7055 1.7124
2401.608 1.6859 1.6444 1.575 1.5666 1.5812 1.57 1.5756 1.644 1.652 1.5996
2420.898 1.5985 1.561 1.5738 1.6402 1.5908 1.5881 1.6065 1.573 1.6084 1.7209
2440.188 1.8117 1.7928 1.7635 1.7873 1.8546 1.9171 1.9438 2.0317 2.0768 2.0296
2459.478 2.0172 2.0781 2.15 2.24 2.3 2.3 2.36 2.48 2.49 2.51
2478.768 2.61 2.62 2.67 2.8 2.86 2.83 2.79 2.82 2.83 2.73
2498.058 2.56 2.41 2.22 1.9558 1.7956 1.6971 1.516 1.418 1.3771 1.3169
2517.348 1.3083 1.2955 1.2448 1.18221 1.11001 1.14119 1.17987 1.18425 1.2274 1.2357
2536.638 1.2619 1.3674 1.4378 1.5047 1.5299 1.4659 1.4897 1.5156 1.5369 1.5812
2555.928 1.5812 1.5786 1.6372 1.7514 1.861 1.8851 1.9187 2.025 2.15 2.19
2575.218 2.16 2.16 2.1096 1.9911 1.9074 1.7683 1.6475 1.6045 1.5763 1.5125
2594.508 1.4127 1.4196 1.4554 1.5104 1.4671 1.3093 1.2717 1.3195 1.2393 1.14328
2613.798 1.19993 1.20018 1.1485 1.17569 1.18365 1.0685 1.0483 1.1384 1.2203 1.2607
2633.088 1.2562 1.2689 1.3101 1.3472 1.3319 1.4236 1.5249 1.6171 1.7106 1.7915
2652.378 1.8571 1.9142 2.0082 2.19 2.37 2.5 2.63 2.65 2.8 3.01
2671.668 3.08 3.16 3.32 3.46 3.59 3.68 3.67 3.7 3.79 3.71
2690.958 3.61 3.63 3.55 3.38 3.13 2.88 2.69 2.45 2.29 2.14
2710.248 1.9465 1.8721 1.7506 1.5733 1.4999 1.4234 1.3682 1.3779 1.3063 1.21982
2729.538 1.2745 1.3112 1.269 1.2881 1.2861 1.2624 1.2687 1.21138 1.2441 1.3041
2748.828 1.2813 1.2777 1.3024 1.3225 1.3468 1.4057 1.4004 1.3472 1.3191 1.289
2768.118 1.3183 1.4535 1.4649 1.416 1.4179 1.4364 1.4762 1.4619 1.4871 1.5768
2787.408 1.5639 1.5077 1.5503 1.539 1.54 1.5564 1.6224 1.6978 1.6556 1.7083
2806.698 1.8338 1.7841 1.7734 1.9402 2.0196 2.0519 2.12 2.16 2.13 2.13
2825.988 2.13 2.14 2.27 2.3 2.33 2.41 2.37 2.38 2.58 2.74
2845.278 2.81 2.94 3.1 3.29 3.43 3.6 3.81 3.88 3.93 4.02
2864.568 4.14 4.23 4.27 4.38 4.4 4.31 4.41 4.49 4.43 4.39
2883.858 4.42 4.41 4.33 4.27 4.24 4.15 4.04 3.97 3.95 3.81
2903.148 3.64 3.58 3.54 3.48 3.41 3.28 3.08 2.95 2.88 2.74
2922.438 2.57 2.47 2.48 2.48 2.39 2.32 2.26 2.14 2.0718 2.0522
2941.728 1.9519 1.8285 1.8262 1.6957 1.5294 1.4498 1.3753 1.3117 1.234 1.14978
2961.018 1.0562 1.0463 0.975 0.937 0.886 0.805 0.871 0.834 0.795 0.884
2980.308 0.875 0.842 0.848 0.797 0.684 0.666 0.697 0.614 0.549 0.455
2999.598 0.374 0.41 0.442 0.538 0.546 0.524 0.502 0.416 0.426 0.52
3018.888 0.604 0.667 0.701 0.632 0.601 0.685 0.676 0.737 0.901 1.003
3038.178 1.21953 1.4311 1.5469 1.7687 2.0307 2.35 2.73 3.12 3.55 4.1
3057.468 4.73 5.22 5.68 6.2 6.74 7.07 7.21 7.2 7.08 6.92
3076.758 6.65 6.36 6.2 6.14 6.24 6.43 6.67 7.17 7.54 7.7
3096.048 8.05 8.44 8.5 8.45 8.43 8.42 8.46 8.44 8.29 8.07
3115.338 7.91 7.57 7.13 6.69 6.08 5.4 4.73 4.15 3.67 3.21
3134.628 2.78 2.35 1.9869 1.7166 1.5317 1.3145 1.019 0.855 0.89 0.905
3153.918 0.7 0.555 0.528 0.401 0.449 0.462 0.385 0.312 0.296 0.344
3173.208 0.284 0.233 0.244 0.328 0.393 0.341 0.192 0.11 0.141 0.196
3192.498 0.384 0.406 0.26 0.311 0.363 0.462 0.482 0.386 0.413 0.401
3211.788 0.469 0.442 0.312 0.31 0.349 0.358 0.32 0.331 0.333 0.286
3231.078 0.204 0.193 0.245 0.138 0 0.193 0.257 0.167 0.129 0.02
3250.368 0.1 0.341 0.322 0.21 0.09 0.05 0.197 0.128 0.09 0.128
3269.658 0.09 0.07 0.06 0.01 0.05 0.136 0.288 0.29 0.17 0.223
3288.948 0.221 0.177 0.205 0.176 0.09 0.05 0.197 0.235 0.195 0.238
3308.238 0.283 0.204 0.04 0.03 0.161 0.228 0.171 0.304 0.284 0.203
3327.528 0.343 0.363 0.388 0.363 0.248 0.257 0.263 0.242 0.2 0.169
3346.818 0.11 0.124 0.193 0.278 0.31 0.23 0.264 0.222 0.192 0.266
3366.108 0.241 0.33 0.381 0.29 0.263 0.259 0.294 0.246 0.139 0.18
3385.398 0.259 0.344 0.36 0.31 0.335 0.373 0.394 0.503 0.543 0.487
3404.688 0.447 0.368 0.261 0.12 0.171 0.36 0.405 0.253 0.215 0.281
3423.978 0.322 0.368 0.445 0.453 0.356 0.385 0.354 0.329 0.471 0.433
3443.269 0.291 0.311 0.355 0.298 0.271 0.464 0.532 0.475 0.424 0.329
3462.559 0.417 0.464 0.393 0.377 0.281 0.17 0.151 0.204 0.314 0.397
3481.849 0.304 0.262 0.311 0.259 0.318 0.354 0.283 0.269 0.371 0.46
3501.139 0.443 0.365 0.418 0.464 0.505 0.682 0.67 0.619 0.533 0.33
3520.429 0.307 0.528 0.609 0.525 0.555 0.581 0.562 0.601 0.642 0.588
3539.719 0.542 0.519 0.502 0.492 0.468 0.433 0.388 0.525 0.656 0.611
3559.009 0.629 0.609 0.6 0.548 0.496 0.653 0.644 0.547 0.511 0.454
3578.299 0.499 0.596 0.466 0.386 0.521 0.557 0.521 0.495 0.536 0.531
3597.589 0.542 0.531 0.564 0.605 0.575 0.637 0.602 0.506 0.499 0.543
3616.879 0.474 0.542 0.664 0.62 0.555 0.522 0.584 0.637 0.548 0.521
3636.169 0.622 0.696 0.747 0.739 0.647 0.673 0.603 0.466 0.599 0.599
3655.459 0.56 0.664 0.653 0.547 0.551 0.613 0.589 0.507 0.516 0.579
3674.749 0.604 0.672 0.673 0.677 0.639 0.577 0.636 0.668 0.658 0.569
3694.039 0.558 0.758 0.828 0.653 0.74 0.861 0.695 0.638 0.839 0.821
3713.329 0.628 0.54 0.574 0.656 0.633 0.615 0.566 0.6 0.739 0.71
3732.619 0.545 0.645 0.82 0.726 0.514 0.375 0.501 0.716 0.715 0.672
3751.909 0.731 0.748 0.664 0.851 0.936 0.73 0.695 0.832 0.911 0.881
3771.199 0.824 0.762 0.711 0.788 0.939 0.911 0.907 0.861 0.732 0.653
3790.489 0.691 0.808 0.854 0.918 0.842 0.869 0.915 0.978 1.0561 0.792
3809.779 0.65 0.7 0.69 0.718 0.743 0.688 0.708 0.829 0.91 0.84
3829.069 0.679 0.621 0.657 0.633 0.629 0.631 0.578 0.549 0.528 0.55
3848.359 0.649 0.621 0.568 0.642 0.733 0.823 0.772 0.65 0.668 0.689
3867.649 0.608 0.641 0.753 0.877 0.876 0.863 0.906 0.945 1.001 0.881
3886.939 0.867 0.859 0.759 0.721 0.651 0.784 1.013 0.918 0.736 0.721
3906.229 0.832 0.827 0.757 0.706 0.673 0.734 0.796 0.793 0.736 0.699
3925.519 0.65 0.752 0.756 0.722 0.887 0.8 0.65 0.699 0.74 0.851
3944.809 0.813 0.543 0.547 0.696 0.827 0.825 0.727 0.771 0.806 0.74
3964.099 0.805 0.831 0.727 0.714 0.712 0.701 0.783 0.909 0.792 0.722
3983.389 0.72 0.641 0.706 0.772 0.773 0.696 0.76 0.859 0.782 0.74
##END=
