##TITLE=2,2-Dimethyl-3-ethylpentane
##JCAMP-DX=4.24
##DATA TYPE=INFRARED SPECTRUM
##ORIGIN=NIST Mass Spectrometry Data Center
##OWNER=NIST Standard Reference Data Program
Collection (C) 2018 copyright by the U.S. Secretary of Commerce
on behalf of the United States of America. All rights reserved.
##CAS REGISTRY NO=16747-32-3
##MOLFORM=C 9 H 20
##$NIST SOURCE=MSDC-IR
##SPECTROMETER/DATA SYSTEM=HP-GC/MS/IRD
##STATE=gas
##XUNITS=1/CM
##YUNITS=ABSORBANCE
##XFACTOR=1.0
##YFACTOR=0.000005100
##DELTAX=4.0
##FIRSTX=550.0
##LASTX=3846.0
##FIRSTY=0.000321
##MAXX=3846
##MINX=550
##MAXY=0.051
##MINY=0
##NPOINTS=825
##XYDATA=(X++(Y..Y))
550.0 63 67 48 56 56 42 59 71 60 46
590.0 35 28 21 28 31 30 31 39 29 9
630.0 26 25 16 19 27 20 7 5 10 12
670.0 9 14 30 38 42 36 25 40 46 47
710.0 42 37 52 60 48 27 23 39 41 36
750.0 40 46 53 61 77 93 90 82 83 73
790.0 62 55 41 27 24 17 15 23 21 10
830.0 8 14 16 9 8 16 21 19 10 7
870.0 15 23 14 11 23 41 66 83 118 172
910.0 212 224 223 200 160 117 84 63 38 20
950.0 4 4 4 2 7 7 4 1 2 13
990.0 13 17 25 34 48 57 64 63 60 58
1030.0 51 44 49 46 35 25 30 40 46 50
1070.0 57 77 83 77 81 84 75 76 83 72
1110.0 63 68 75 89 111 115 120 127 128 134
1150.0 135 123 129 143 142 161 193 222 261 299
1190.0 320 332 342 356 369 381 399 423 438 437
1230.0 421 389 342 291 242 204 175 160 149 137
1270.0 134 141 139 134 141 155 163 166 173 176
1310.0 165 157 148 137 129 123 133 150 176 220
1350.0 305 441 607 757 963 1121 1059 1009 1008 962
1390.0 919 881 804 682 560 422 288 214 190 185
1430.0 194 216 258 314 388 490 619 779 942 1082
1470.0 1186 1241 1203 1076 908 729 559 413 300 224
1510.0 173 141 119 104 91 78 67 63 58 52
1550.0 49 49 54 52 43 40 35 38 39 34
1590.0 34 32 32 33 35 32 31 34 36 38
1630.0 37 35 36 36 39 41 37 34 35 37
1670.0 34 31 28 30 29 25 28 33 33 24
1710.0 24 24 21 17 17 18 19 20 22 23
1750.0 20 17 18 16 13 14 18 19 20 24
1790.0 21 17 15 15 16 14 12 12 13 11
1830.0 13 14 13 16 16 13 8 8 11 16
1870.0 16 11 11 14 17 17 16 15 15 19
1910.0 16 15 14 11 10 10 11 12 14 17
1950.0 15 12 8 6 5 6 6 5 7 7
1990.0 6 7 2 1 4 8 10 5 6 11
2030.0 13 12 8 11 12 11 11 8 8 8
2070.0 8 9 11 12 10 7 6 7 2 2
2110.0 7 8 10 3 1 8 12 7 1 4
2150.0 10 10 7 7 9 12 10 5 0 1
2190.0 2 0 0 0 3 8 6 4 4 4
2230.0 1 2 6 6 5 6 2 5 4 5
2270.0 9 10 11 13 12 14 15 15 15 11
2310.0 6 4 4 5 7 4 2 6 13 11
2350.0 11 18 20 16 13 14 14 15 19 25
2390.0 27 26 24 22 18 17 22 19 13 13
2430.0 11 9 9 10 14 10 8 13 9 8
2470.0 17 17 17 18 12 9 10 12 11 7
2510.0 8 13 15 15 16 18 19 20 25 28
2550.0 27 26 31 39 41 44 45 43 47 48
2590.0 46 51 56 57 61 63 61 50 42 50
2630.0 56 54 54 62 66 63 64 68 68 66
2670.0 74 80 73 66 69 73 78 83 86 84
2710.0 94 112 117 120 131 148 155 157 163 162
2750.0 159 158 157 150 150 152 162 164 169 180
2790.0 183 191 213 237 252 265 286 316 342 367
2830.0 406 458 534 639 792 996 1249 1583 1968 2362
2870.0 2801 3278 3679 3908 3938 3785 3555 3321 3140 3055
2910.0 3079 3192 3374 3640 4000 4466 5013 5580 6120 6671
2950.0 7286 7988 8739 9482 10000 9954 9251 7992 6443 4916
2990.0 3601 2582 1881 1420 1120 919 785 688 614 554
3030.0 499 454 417 385 347 318 307 300 277 258
3070.0 256 245 237 227 216 207 205 198 191 190
3110.0 177 169 166 160 151 150 154 153 151 146
3150.0 141 138 138 137 132 132 131 119 102 92
3190.0 92 90 86 82 81 77 71 66 65 73
3230.0 67 60 55 52 55 50 44 50 47 40
3270.0 38 36 34 29 34 33 25 40 39 32
3310.0 34 25 13 15 30 35 28 15 12 15
3350.0 21 26 18 16 29 35 32 26 23 26
3390.0 26 23 24 23 20 18 17 19 23 16
3430.0 17 26 30 32 23 18 27 26 18 10
3470.0 11 17 18 21 22 24 17 14 18 22
3510.0 16 14 20 19 14 27 27 17 21 22
3550.0 16 10 5 3 7 19 22 19 12 14
3590.0 13 14 24 16 11 15 22 18 20 13
3630.0 0 2 5 18 26 29 36 29 18 22
3670.0 27 27 24 34 38 22 11 11 22 29
3710.0 23 27 31 24 23 21 15 16 19 24
3750.0 29 24 26 38 35 32 23 10 9 16
3790.0 23 18 14 24 23 19 31 36 28 21
3830.0 27 33 41 33 23
##END=
