##TITLE=2,2,3-Trimethylhexane
##JCAMP-DX=4.24
##DATA TYPE=INFRARED SPECTRUM
##ORIGIN=NIST Mass Spectrometry Data Center
##OWNER=NIST Standard Reference Data Program
Collection (C) 2018 copyright by the U.S. Secretary of Commerce
on behalf of the United States of America. All rights reserved.
##CAS REGISTRY NO=16747-25-4
##MOLFORM=C 9 H 20
##$NIST SOURCE=MSDC-IR
##SPECTROMETER/DATA SYSTEM=HP-GC/MS/IRD
##STATE=gas
##XUNITS=1/CM
##YUNITS=ABSORBANCE
##XFACTOR=1.0
##YFACTOR=0.000000900
##DELTAX=4.0
##FIRSTX=550.0
##LASTX=3846.0
##FIRSTY=0.000120
##MAXX=3846
##MINX=550
##MAXY=0.009
##MINY=0
##NPOINTS=825
##XYDATA=(X++(Y..Y))
550.0 133 40 0 22 47 48 70 103 110 60
590.0 48 88 142 151 165 177 133 128 174 148
630.0 113 153 169 151 120 157 198 254 230 143
670.0 98 120 197 206 243 264 252 231 208 188
710.0 182 174 137 165 205 177 196 199 183 205
750.0 183 168 184 194 150 144 181 171 187 191
790.0 197 197 163 148 134 135 185 212 179 177
830.0 187 209 221 231 232 204 208 216 197 176
870.0 173 206 258 255 233 229 215 213 198 180
910.0 210 229 263 281 268 264 257 256 259 238
950.0 196 188 213 221 202 203 206 184 177 201
990.0 229 229 235 257 231 224 209 217 232 203
1030.0 212 210 187 161 172 173 167 187 183 177
1070.0 185 215 236 261 275 305 310 277 269 240
1110.0 225 242 247 231 227 245 256 278 291 326
1150.0 330 322 311 252 206 215 225 226 241 300
1190.0 355 334 322 333 328 333 336 343 337 361
1230.0 376 343 327 287 258 241 220 217 212 233
1270.0 236 200 178 165 185 203 201 201 196 199
1310.0 222 241 230 236 250 252 268 304 324 371
1350.0 470 572 746 965 1179 1336 1373 1329 1264 1177
1390.0 1043 924 816 685 561 445 367 328 311 332
1430.0 349 363 398 459 580 696 786 903 1025 1116
1470.0 1180 1177 1090 964 816 673 549 433 324 267
1510.0 231 209 201 168 159 166 154 152 159 146
1550.0 129 147 166 141 108 90 74 80 106 121
1590.0 119 116 101 99 108 113 118 122 128 125
1630.0 122 134 126 112 114 111 92 84 92 104
1670.0 119 123 119 115 114 116 102 98 96 102
1710.0 94 91 98 101 89 87 90 76 57 43
1750.0 76 89 78 73 76 79 76 75 72 83
1790.0 88 84 78 74 75 61 49 58 66 70
1830.0 69 53 56 77 77 79 88 69 66 74
1870.0 77 80 62 49 42 44 56 42 45 62
1910.0 55 53 53 61 74 72 51 32 44 53
1950.0 48 44 52 57 54 39 27 31 19 26
1990.0 39 48 48 49 44 34 38 39 30 28
2030.0 36 35 43 54 49 38 25 25 30 24
2070.0 28 23 15 24 17 11 18 19 28 32
2110.0 27 32 19 6 9 20 36 24 17 19
2150.0 33 43 37 31 20 39 60 55 44 45
2190.0 32 13 16 11 8 36 59 48 28 30
2230.0 27 18 12 25 33 18 18 20 18 26
2270.0 38 28 29 50 54 51 46 43 39 23
2310.0 27 40 47 50 53 55 42 42 56 53
2350.0 46 41 47 55 59 57 65 61 51 59
2390.0 73 79 67 51 49 50 49 41 64 84
2430.0 59 44 53 70 79 63 62 75 76 62
2470.0 67 78 75 80 86 73 60 71 76 63
2510.0 62 55 40 45 69 76 69 88 101 105
2550.0 96 77 90 96 97 109 113 117 128 133
2590.0 116 103 111 117 125 120 123 123 119 144
2630.0 150 141 141 143 136 144 156 152 163 144
2670.0 130 145 165 157 141 164 167 165 177 175
2710.0 166 169 199 203 211 248 247 232 232 239
2750.0 245 248 228 224 243 251 254 248 270 281
2790.0 286 307 314 333 357 373 401 443 452 443
2830.0 494 562 642 739 836 1001 1245 1573 1998 2515
2870.0 3065 3519 3774 3821 3712 3509 3300 3123 3050 3083
2910.0 3211 3390 3594 3877 4207 4573 5005 5489 5941 6427
2950.0 7040 7820 8746 9581 10000 9789 8894 7464 5864 4429
2990.0 3259 2392 1751 1330 1098 932 798 708 628 561
3030.0 524 490 459 428 401 377 366 357 338 331
3070.0 318 301 300 289 268 286 299 288 287 266
3110.0 246 253 263 231 228 259 240 218 216 206
3150.0 217 228 232 230 225 226 229 225 225 211
3190.0 192 183 188 197 182 182 182 156 184 186
3230.0 149 129 130 136 146 151 125 136 135 116
3270.0 126 125 131 129 134 126 77 82 104 117
3310.0 106 125 136 143 157 136 138 120 107 102
3350.0 78 86 119 123 145 155 121 86 83 93
3390.0 103 101 90 89 127 137 123 121 104 92
3430.0 97 123 141 135 99 80 94 101 101 116
3470.0 126 97 75 93 120 111 97 89 92 107
3510.0 101 93 102 123 104 65 43 52 62 51
3550.0 20 11 42 66 74 68 69 89 100 110
3590.0 107 70 50 50 65 77 106 109 67 68
3630.0 99 80 38 65 92 80 82 85 103 91
3670.0 60 57 57 68 93 108 86 69 97 94
3710.0 80 90 79 66 72 79 76 78 81 110
3750.0 81 63 69 86 116 102 102 80 87 117
3790.0 103 88 106 108 90 99 89 48 40 68
3830.0 87 84 83 102 117
##END=
