##TITLE=1,2-Dichloropentane
##JCAMP-DX=4.24
##DATA TYPE=INFRARED SPECTRUM
##ORIGIN=NIST Mass Spectrometry Data Center
##OWNER=NIST Standard Reference Data Program
Collection (C) 2018 copyright by the U.S. Secretary of Commerce
on behalf of the United States of America. All rights reserved.
##CAS REGISTRY NO=1674-33-5
##MOLFORM=C 5 H 10 Cl 2
##$NIST SOURCE=MSDC-IR
##SPECTROMETER/DATA SYSTEM=HP-GC/MS/IRD
##STATE=gas
##XUNITS=1/CM
##YUNITS=ABSORBANCE
##XFACTOR=1.0
##YFACTOR=0.000001900
##DELTAX=4.0
##FIRSTX=550.0
##LASTX=3846.0
##FIRSTY=0.000638
##MAXX=3846
##MINX=550
##MAXY=0.019
##MINY=0
##NPOINTS=825
##XYDATA=(X++(Y..Y))
550.0 336 257 223 164 99 44 13 56 93 131
590.0 137 101 145 168 189 255 305 346 437 544
630.0 626 689 798 950 1241 1680 2128 2542 2883 3061
670.0 2989 2663 2162 1686 1367 1189 1100 1127 1224 1351
710.0 1548 1782 2113 2575 3135 3704 4046 4150 4042 3603
750.0 2931 2330 1914 1588 1294 1038 833 666 534 420
790.0 301 235 213 152 115 113 131 149 145 165
830.0 165 172 226 266 282 293 307 344 394 416
870.0 444 473 520 573 587 571 569 576 540 518
910.0 544 549 535 542 521 464 449 434 400 386
950.0 394 414 452 476 479 489 481 444 437 451
990.0 450 423 366 317 293 268 243 224 235 273
1030.0 286 274 295 335 369 407 444 481 525 540
1070.0 524 507 487 488 509 520 474 414 395 396
1110.0 385 339 298 271 242 189 173 159 158 162
1150.0 187 256 318 420 524 608 674 660 640 626
1190.0 626 680 757 845 934 994 980 899 831 775
1230.0 754 794 876 1006 1139 1237 1301 1297 1247 1189
1270.0 1143 1117 1126 1150 1161 1177 1171 1137 1094 1024
1310.0 923 823 758 710 668 644 620 611 578 531
1350.0 489 435 402 402 405 435 486 530 583 622
1390.0 620 578 511 437 390 385 429 527 679 900
1430.0 1173 1469 1742 1895 1977 1981 1934 1863 1728 1592
1470.0 1462 1253 1021 804 619 463 364 310 266 255
1510.0 235 210 204 190 174 162 151 157 154 122
1550.0 109 114 127 105 90 102 100 85 61 53
1590.0 56 58 63 69 79 80 79 79 78 73
1630.0 60 68 71 68 72 86 84 58 47 46
1670.0 54 61 69 72 60 48 71 80 58 49
1710.0 44 43 42 33 37 42 57 57 49 48
1750.0 48 41 36 35 38 63 65 47 32 17
1790.0 26 33 33 36 25 25 34 38 37 35
1830.0 37 29 21 34 37 24 25 22 24 21
1870.0 21 29 22 29 30 17 18 32 37 27
1910.0 24 26 24 13 13 17 8 16 41 42
1950.0 25 18 21 27 33 37 36 36 33 23
1990.0 24 23 21 14 14 35 33 23 26 32
2030.0 30 24 26 27 24 30 34 34 36 39
2070.0 37 39 36 28 27 24 27 30 37 42
2110.0 28 20 15 18 21 20 27 18 0 3
2150.0 18 16 18 19 16 21 23 19 21 28
2190.0 31 36 45 39 25 23 33 31 35 38
2230.0 29 38 27 23 26 27 26 23 30 22
2270.0 19 34 41 38 35 25 21 35 35 31
2310.0 30 26 33 35 39 34 41 40 29 36
2350.0 33 47 76 79 70 51 25 16 15 26
2390.0 26 22 39 51 48 47 43 36 29 41
2430.0 47 35 37 34 18 19 19 18 27 19
2470.0 24 33 22 23 42 45 35 37 30 18
2510.0 16 15 22 24 26 30 41 43 35 30
2550.0 41 51 54 45 36 30 21 22 26 40
2590.0 36 17 26 33 28 34 43 47 48 42
2630.0 36 40 44 53 50 43 49 56 56 53
2670.0 57 54 51 65 70 69 75 78 80 98
2710.0 116 106 114 129 128 135 132 140 172 174
2750.0 164 171 182 182 167 147 146 153 167 198
2790.0 222 234 260 292 304 318 342 352 375 426
2830.0 491 579 671 782 910 1025 1139 1257 1424 1659
2870.0 2009 2451 2952 3325 3476 3448 3261 2993 2781 2716
2910.0 2797 2983 3248 3575 3910 4279 4766 5341 5812 6157
2950.0 6512 6945 7563 8455 9456 10000 9819 8756 7022 5175
2990.0 3573 2548 1941 1580 1359 1239 1131 1043 973 866
3030.0 754 660 576 495 439 410 368 322 297 266
3070.0 247 241 224 215 205 207 189 171 162 154
3110.0 173 163 152 154 151 161 161 142 135 143
3150.0 139 133 125 119 110 122 137 109 95 102
3190.0 99 108 112 93 77 78 74 67 68 67
3230.0 61 41 50 61 47 42 37 37 39 46
3270.0 67 79 66 59 56 65 60 51 50 42
3310.0 35 34 27 23 47 59 51 37 43 55
3350.0 62 65 43 37 60 58 41 33 48 51
3390.0 54 45 19 24 30 26 29 37 44 37
3430.0 38 55 56 44 42 52 64 76 91 64
3470.0 57 75 56 51 46 27 32 58 75 67
3510.0 38 41 39 25 21 29 42 32 50 65
3550.0 52 49 55 70 78 71 53 30 56 83
3590.0 81 57 48 56 67 70 55 54 73 88
3630.0 94 86 74 75 91 99 78 72 92 103
3670.0 112 107 87 68 74 88 90 83 90 104
3710.0 120 106 93 93 97 120 132 117 138 148
3750.0 150 139 103 103 104 98 109 116 109 104
3790.0 93 76 84 105 102 106 131 154 138 114
3830.0 108 114 105 74 88
##END=
