##TITLE=Azelaic dinitrile
##JCAMP-DX=4.24
##DATA TYPE=INFRARED SPECTRUM
##ORIGIN=EPA-IR VAPOR PHASE LIBRARY
##OWNER=SRD/NIST
Collection (C) 2018 copyright by the U.S. Secretary of Commerce
on behalf of the United States of America. All rights reserved.
##CAS REGISTRY NO=1675-69-0
##MOLFORM=C 9 H 14 N 2
##$NIST SOURCE=MSDC-IR
##STATE=gas
##XUNITS=1/CM
##YUNITS=ABSORBANCE
##XFACTOR=1.
##YFACTOR=0.001
##DELTAX=1.92934
##FIRSTX=549.9
##LASTX=3999.5
##FIRSTY=0.87692
##MAXX=3999.53
##MINX=549.863
##MAXY=0.209773
##MINY=0
##NPOINTS=1789
##XYDATA=(X++(Y..Y))
549.863 0.87692 0.7397 0.678 0.7452 0.7185 0.666 0.649 0.593 0.68 0.7352
569.156 0.697 0.708 0.7143 0.677 0.546 0.517 0.519 0.387 0.218 0.186
588.450 0.225 0.221 0.198 0.195 0.154 0.102 0.069 0.057 0.122 0.155
607.743 0.18 0.21 0.214 0.23 0.174 0.142 0.156 0.229 0.297 0.271
627.037 0.237 0.224 0.241 0.27 0.316 0.318 0.355 0.373 0.325 0.326
646.330 0.323 0.342 0.336 0.359 0.433 0.435 0.484 0.512 0.453 0.464
665.624 0.531 0.608 0.685 0.711 0.744 0.83323 0.9689 1.0647 1.0986 1.1996
684.917 1.3113 1.4307 1.5866 1.766 1.953 2.193 2.463 2.693 3.003 3.333
704.210 3.663 4.083 4.533 4.933 5.353 5.823 6.283 6.643 6.903 7.133
723.504 7.283 7.293 7.193 6.993 6.703 6.423 6.073 5.633 5.253 4.953
742.797 4.643 4.373 4.153 3.943 3.733 3.553 3.433 3.313 3.183 3.043
762.091 2.903 2.833 2.723 2.573 2.483 2.373 2.293 2.283 2.243 2.183
781.384 2.103 2.003 1.983 1.923 1.863 1.843 1.786 1.7855 1.7821 1.7243
800.678 1.6924 1.6941 1.6779 1.6222 1.6386 1.7116 1.7616 1.833 1.913 1.963
819.971 2.003 2.093 2.163 2.213 2.293 2.323 2.393 2.423 2.453 2.513
839.264 2.503 2.503 2.513 2.483 2.453 2.433 2.403 2.373 2.373 2.363
858.558 2.333 2.303 2.253 2.213 2.153 2.103 2.063 2.003 1.943 1.893
877.851 1.8095 1.7377 1.714 1.7218 1.7302 1.7651 1.763 1.7504 1.823 1.873
897.145 1.883 1.893 1.903 1.963 2.023 2.053 2.063 2.093 2.163 2.203
916.438 2.193 2.173 2.163 2.163 2.153 2.113 2.023 1.973 1.973 1.993
935.732 1.983 1.973 1.953 1.923 1.903 1.873 1.863 1.813 1.75 1.6949
955.025 1.6393 1.5331 1.443 1.3863 1.3072 1.2726 1.2491 1.2033 1.1936 1.2056
974.318 1.2267 1.2523 1.2955 1.3139 1.2903 1.3062 1.3229 1.3224 1.3661 1.3944
993.612 1.3911 1.4133 1.4059 1.3846 1.4253 1.4361 1.4081 1.4061 1.402 1.373
1012.905 1.3662 1.3534 1.3377 1.3471 1.3118 1.2784 1.2546 1.2119 1.1914 1.1599
1032.199 1.1169 1.0799 1.0769 1.0954 1.0867 1.0855 1.1134 1.1769 1.2007 1.1861
1051.492 1.2127 1.2939 1.365 1.36 1.3247 1.3118 1.3346 1.3737 1.402 1.4213
1070.786 1.4532 1.4582 1.4435 1.4528 1.5083 1.5414 1.5401 1.5348 1.5148 1.4849
1090.079 1.4501 1.4079 1.3691 1.2964 1.2399 1.1696 1.0286 0.9673 0.90386 0.82413
1109.372 0.699 0.556 0.481 0.392 0.351 0.32 0.271 0.262 0.286 0.353
1128.666 0.381 0.379 0.42 0.451 0.464 0.464 0.455 0.447 0.448 0.506
1147.959 0.573 0.546 0.531 0.556 0.575 0.639 0.667 0.656 0.716 0.7766
1167.253 0.81517 0.89585 0.893 0.87997 0.924 0.9528 0.9893 1.0076 1.0295 1.065
1186.546 1.0707 1.0991 1.138 1.2195 1.2727 1.3194 1.3734 1.3645 1.3814 1.4288
1205.840 1.513 1.568 1.6039 1.6589 1.7427 1.873 1.923 1.933 1.993 2.053
1225.133 2.093 2.133 2.193 2.263 2.283 2.253 2.233 2.253 2.313 2.323
1244.426 2.293 2.313 2.383 2.403 2.403 2.543 2.693 2.733 2.803 2.933
1263.720 3.063 3.153 3.223 3.293 3.413 3.523 3.613 3.713 3.803 3.853
1283.013 3.943 4.053 4.143 4.273 4.433 4.643 4.863 5.083 5.373 5.663
1302.307 5.973 6.293 6.603 6.943 7.253 7.563 7.883 8.153 8.403 8.673
1321.600 8.923 9.133 9.293 9.413 9.503 9.563 9.633 9.653 9.663 9.773
1340.894 9.953 10.163 10.453 10.823 11.263 11.633 11.853 11.943 11.853 11.593
1360.187 11.173 10.593 9.943 9.303 8.693 8.163 7.693 7.273 6.883 6.503
1379.480 6.133 5.763 5.383 5.023 4.713 4.453 4.263 4.133 4.063 4.053
1398.774 4.153 4.313 4.493 4.773 5.143 5.583 6.133 6.793 7.543 8.503
1418.067 9.683 11.143 12.873 14.973 17.613 20.803 24.383 27.853 30.713 32.603
1437.361 33.773 34.263 33.873 32.733 31.423 30.573 30.333 30.533 31.083 31.723
1456.654 32.193 32.373 32.083 31.323 30.023 28.283 26.203 23.743 21.183 18.683
1475.948 16.353 14.163 12.203 10.443 8.963 7.743 6.723 5.893 5.243 4.693
1495.241 4.263 3.913 3.603 3.333 3.123 2.903 2.703 2.573 2.453 2.353
1514.534 2.263 2.123 1.973 1.853 1.7673 1.7011 1.6445 1.5998 1.562 1.5162
1533.828 1.4515 1.3892 1.3287 1.2473 1.2087 1.2383 1.2224 1.1661 1.1508 1.1517
1553.121 1.135 1.1053 1.0821 1.0052 0.9967 1.0328 1.0519 1.0711 1.0118 0.9386
1572.415 0.9431 0.9242 0.89145 0.90739 0.89966 0.863 0.83307 0.814909 0.80804 0.83556
1591.708 0.84304 0.83368 0.814493 0.7827 0.81175 0.8001 0.7725 0.7484 0.7149 0.706
1611.002 0.7286 0.7842 0.7717 0.7154 0.7181 0.7273 0.7301 0.7375 0.7363 0.7236
1630.295 0.703 0.7134 0.675 0.641 0.638 0.608 0.637 0.668 0.616 0.599
1649.588 0.607 0.553 0.527 0.607 0.671 0.664 0.636 0.636 0.665 0.658
1668.882 0.627 0.625 0.612 0.606 0.628 0.632 0.608 0.562 0.51 0.556
1688.175 0.615 0.601 0.586 0.569 0.546 0.538 0.504 0.52 0.559 0.567
1707.469 0.57 0.579 0.59 0.548 0.503 0.497 0.516 0.495 0.469 0.491
1726.762 0.508 0.479 0.457 0.448 0.425 0.405 0.38 0.367 0.333 0.292
1746.056 0.262 0.215 0.182 0.121 0.066 0.037 0.049 0.07 0.088 0.141
1765.349 0.203 0.222 0.245 0.271 0.312 0.371 0.414 0.459 0.428 0.413
1784.642 0.466 0.477 0.461 0.474 0.516 0.553 0.565 0.578 0.592 0.601
1803.936 0.602 0.608 0.621 0.595 0.575 0.591 0.6 0.59 0.597 0.602
1823.229 0.6 0.612 0.599 0.577 0.586 0.622 0.621 0.619 0.633 0.621
1842.523 0.601 0.572 0.594 0.624 0.608 0.602 0.584 0.566 0.576 0.593
1861.816 0.6 0.609 0.632 0.62 0.585 0.611 0.657 0.641 0.635 0.645
1881.110 0.653 0.684 0.661 0.655 0.68 0.671 0.677 0.688 0.674 0.648
1900.403 0.648 0.642 0.597 0.567 0.571 0.586 0.607 0.612 0.603 0.599
1919.696 0.619 0.619 0.587 0.573 0.552 0.541 0.541 0.547 0.528 0.534
1938.990 0.562 0.539 0.534 0.556 0.579 0.587 0.557 0.551 0.561 0.545
1958.283 0.536 0.575 0.603 0.582 0.572 0.58 0.602 0.637 0.65 0.634
1977.577 0.635 0.641 0.651 0.659 0.678 0.687 0.699 0.7208 0.712 0.702
1996.870 0.706 0.7392 0.7785 0.7782 0.7732 0.7743 0.7956 0.83132 0.815063 0.819691
2016.164 0.85698 0.86515 0.88783 0.922 0.9223 0.9503 0.9913 1.0007 1.0044 0.9826
2035.457 0.9801 1.0094 1.0171 1.0136 1.0163 1.043 1.0607 1.0434 1.0288 1.0398
2054.750 1.0451 1.0359 1.0064 0.9758 0.9724 0.9782 0.9735 0.9599 0.9395 0.9185
2074.044 0.91116 0.9198 0.90934 0.88454 0.87264 0.86488 0.87818 0.8807 0.87386 0.87343
2093.337 0.85362 0.83439 0.84397 0.84589 0.84684 0.85151 0.83895 0.8325 0.86215 0.87896
2112.631 0.86993 0.87962 0.86233 0.83967 0.86591 0.88404 0.88396 0.87793 0.85675 0.85658
2131.924 0.86327 0.8528 0.83007 0.83104 0.85187 0.88108 0.88373 0.9036 0.9479 0.9523
2151.218 0.9464 0.9637 0.9745 0.9729 0.9672 0.9628 0.9824 0.991 1.0134 1.0416
2170.511 1.0433 1.0481 1.0441 1.0527 1.0508 1.0371 1.0408 1.0342 1.0323 1.0364
2189.804 1.0511 1.0637 1.1036 1.1383 1.1387 1.1542 1.1577 1.1762 1.1957 1.2233
2209.098 1.2565 1.2869 1.3168 1.3471 1.4112 1.505 1.5865 1.6734 1.8092 1.973
2228.391 2.183 2.423 2.733 3.113 3.543 4.063 4.693 5.383 6.073 6.733
2247.685 7.313 7.703 7.893 7.863 7.573 7.073 6.403 5.623 4.873 4.233
2266.978 3.703 3.283 2.893 2.593 2.393 2.233 2.093 1.963 1.863 1.7937
2286.272 1.7285 1.6645 1.6351 1.6174 1.5736 1.5265 1.4667 1.4334 1.4269 1.3982
2305.565 1.3882 1.3823 1.3649 1.3334 1.2981 1.2757 1.2535 1.256 1.2411 1.211
2324.858 1.21 1.2058 1.1847 1.1674 1.1613 1.1591 1.1647 1.1738 1.1732 1.1877
2344.152 1.2044 1.1923 1.1912 1.2009 1.1982 1.2207 1.2194 1.2 1.2014 1.2048
2363.445 1.1993 1.1987 1.2145 1.2163 1.2119 1.2343 1.2821 1.2898 1.2641 1.2444
2382.739 1.2267 1.2222 1.2461 1.2503 1.2379 1.1849 1.1491 1.1768 1.1949 1.2082
2402.032 1.2107 1.1996 1.2001 1.1981 1.1943 1.1998 1.2138 1.2243 1.2235 1.2392
2421.326 1.2434 1.2377 1.2464 1.2476 1.2541 1.2589 1.2569 1.2631 1.2419 1.2212
2440.619 1.2239 1.2262 1.2088 1.198 1.1744 1.1716 1.1805 1.1373 1.1091 1.0779
2459.912 1.0608 1.0426 1.0166 1.0389 1.0468 1.0162 0.9906 0.9827 1.0027 1.0328
2479.206 1.0143 1.0011 0.9907 0.964 0.9714 0.9793 0.9726 0.9647 1.0086 1.0578
2498.499 1.0793 1.1033 1.1092 1.1162 1.1382 1.1816 1.2087 1.1889 1.2192 1.2581
2517.793 1.2811 1.3141 1.3139 1.3257 1.3356 1.3318 1.3428 1.37 1.3979 1.4012
2537.086 1.4067 1.4136 1.391 1.3568 1.3491 1.3334 1.321 1.3387 1.3479 1.3393
2556.380 1.3213 1.2906 1.2816 1.2976 1.2978 1.3187 1.3225 1.309 1.3338 1.386
2575.673 1.4171 1.3965 1.414 1.4733 1.4892 1.5248 1.5958 1.6476 1.6663 1.6909
2594.966 1.7664 1.853 1.883 1.913 1.943 2.013 2.053 2.043 2.043 2.063
2614.260 2.083 2.093 2.073 2.053 2.073 2.043 2.083 2.113 2.073 2.073
2633.553 2.103 2.133 2.143 2.173 2.233 2.263 2.283 2.303 2.343 2.383
2652.847 2.413 2.433 2.453 2.463 2.463 2.483 2.533 2.553 2.553 2.563
2672.140 2.593 2.633 2.673 2.693 2.713 2.753 2.773 2.803 2.843 2.883
2691.434 2.853 2.803 2.823 2.853 2.843 2.803 2.783 2.733 2.673 2.663
2710.727 2.613 2.543 2.533 2.513 2.503 2.503 2.503 2.463 2.433 2.413
2730.020 2.393 2.393 2.443 2.473 2.463 2.503 2.583 2.603 2.563 2.613
2749.314 2.683 2.733 2.773 2.803 2.883 2.923 2.973 3.033 3.063 3.103
2768.607 3.133 3.153 3.133 3.203 3.303 3.363 3.433 3.483 3.553 3.633
2787.901 3.723 3.863 4.033 4.183 4.303 4.433 4.613 4.773 4.933 5.153
2807.194 5.373 5.573 5.793 6.013 6.293 6.623 6.963 7.323 7.713 8.103
2826.488 8.523 9.033 9.583 10.243 10.973 11.803 12.813 13.993 15.393 17.083
2845.781 19.103 21.573 24.483 27.843 31.783 36.263 41.153 46.363 51.843 57.193
2865.074 62.123 66.433 69.653 71.693 72.423 71.703 69.793 66.913 63.373 59.443
2884.368 55.283 51.153 47.423 44.233 41.613 39.643 38.423 37.933 38.103 39.063
2903.661 40.633 42.783 45.713 49.373 53.693 58.703 64.503 71.023 78.123 85.903
2922.955 94.413 103.683 113.703 124.463 135.823 147.413 159.043 170.203 180.633 189.933
2942.248 197.603 203.693 207.963 209.773 208.863 205.353 199.463 191.793 182.273 170.653
2961.542 157.113 142.123 126.573 110.993 95.603 81.053 67.923 56.663 47.423 39.903
2980.835 33.873 29.053 25.093 21.823 19.203 17.083 15.403 13.903 12.623 11.503
3000.128 10.523 9.733 8.993 8.353 7.813 7.283 6.833 6.493 6.163 5.833
3019.422 5.593 5.333 5.003 4.773 4.613 4.443 4.283 4.073 3.853 3.763
3038.715 3.713 3.553 3.323 3.193 3.183 3.103 2.943 2.753 2.703 2.623
3058.009 2.503 2.463 2.383 2.303 2.273 2.113 2.063 2.173 2.033 1.893
3077.302 1.903 1.923 1.873 1.8079 1.7929 1.7563 1.7143 1.6234 1.5919 1.6057
3096.596 1.6143 1.5664 1.4975 1.4776 1.4851 1.5615 1.5483 1.5054 1.4856 1.41
3115.889 1.3874 1.4363 1.4752 1.4083 1.329 1.3467 1.4385 1.4982 1.4945 1.4703
3135.182 1.4153 1.4322 1.5011 1.5614 1.5046 1.406 1.4214 1.4442 1.5081 1.5436
3154.476 1.4844 1.51 1.4523 1.3343 1.4092 1.5259 1.5399 1.5788 1.4717 1.3245
3173.769 1.4293 1.3809 1.2955 1.3593 1.3804 1.4032 1.3694 1.273 1.2672 1.2737
3193.063 1.1657 1.1683 1.199 1.1514 1.1727 1.1447 1.1057 1.1042 0.9723 0.89867
3212.356 0.9592 0.9956 0.9708 0.9962 0.9992 0.9748 0.9652 0.89237 0.9401 0.9942
3231.650 1.0028 0.9445 0.91027 0.88232 0.8724 0.83085 0.7223 0.814913 0.84205 0.84962
3250.943 0.87941 0.7783 0.683 0.627 0.64 0.685 0.7226 0.702 0.621 0.575
3270.236 0.5 0.523 0.607 0.586 0.516 0.505 0.532 0.606 0.588 0.483
3289.530 0.53 0.571 0.552 0.55 0.558 0.545 0.495 0.538 0.684 0.686
3308.823 0.668 0.653 0.625 0.59 0.501 0.526 0.607 0.618 0.64 0.642
3328.117 0.512 0.446 0.486 0.48 0.435 0.385 0.348 0.358 0.352 0.394
3347.410 0.386 0.356 0.341 0.358 0.347 0.246 0.157 0.192 0.243 0.203
3366.704 0.278 0.249 0.196 0.254 0.277 0.222 0.191 0.215 0.276 0.302
3385.997 0.261 0.298 0.239 0.212 0.249 0.207 0.254 0.278 0.166 0.123
3405.290 0.116 0.153 0.202 0.202 0.193 0.198 0.167 0.108 0.101 0.163
3424.584 0.216 0.232 0.259 0.235 0.129 0.062 0.143 0.133 0.089 0.127
3443.877 0.141 0.06 0.059 0.115 0.147 0.223 0.176 0.111 0.025 0.031
3463.171 0.111 0.092 0.047 0.129 0.225 0.229 0.296 0.312 0.242 0.257
3482.464 0.324 0.25 0.235 0.242 0.125 0.091 0.186 0.208 0.205 0.28
3501.758 0.274 0.221 0.253 0.289 0.303 0.223 0.147 0.197 0.264 0.295
3521.051 0.308 0.249 0.199 0.227 0.201 0.252 0.209 0.127 0.251 0.287
3540.344 0.2 0.13 0.15 0.192 0.132 0.109 0 0.002 0.139 0.161
3559.638 0.162 0.097 0.057 0.074 0.102 0.057 0.074 0.084 0.077 0.092
3578.931 0.039 0.054 0.056 0.002 0.018 0.006 0.063 0.215 0.288 0.294
3598.225 0.288 0.327 0.294 0.245 0.218 0.219 0.247 0.272 0.264 0.259
3617.518 0.293 0.274 0.279 0.303 0.281 0.236 0.181 0.284 0.404 0.399
3636.812 0.399 0.388 0.325 0.262 0.314 0.389 0.4 0.34 0.315 0.351
3656.105 0.312 0.323 0.336 0.386 0.401 0.318 0.302 0.332 0.449 0.473
3675.398 0.34 0.317 0.414 0.473 0.454 0.42 0.383 0.34 0.325 0.337
3694.692 0.356 0.465 0.468 0.362 0.395 0.425 0.4 0.304 0.28 0.323
3713.985 0.396 0.498 0.426 0.33 0.388 0.42 0.439 0.448 0.46 0.48
3733.279 0.455 0.434 0.411 0.425 0.378 0.291 0.311 0.391 0.395 0.33
3752.572 0.342 0.419 0.504 0.496 0.43 0.461 0.505 0.537 0.504 0.474
3771.866 0.527 0.521 0.506 0.524 0.516 0.501 0.488 0.471 0.423 0.443
3791.159 0.529 0.478 0.45 0.46 0.429 0.41 0.452 0.527 0.49 0.431
3810.452 0.452 0.476 0.456 0.467 0.508 0.488 0.457 0.473 0.514 0.504
3829.746 0.479 0.464 0.423 0.454 0.498 0.483 0.467 0.429 0.477 0.537
3849.039 0.497 0.496 0.466 0.465 0.527 0.565 0.569 0.529 0.528 0.6
3868.333 0.592 0.536 0.514 0.492 0.502 0.537 0.608 0.623 0.578 0.571
3887.626 0.588 0.552 0.555 0.56 0.537 0.594 0.568 0.487 0.483 0.529
3906.920 0.601 0.642 0.624 0.584 0.611 0.606 0.603 0.671 0.683 0.708
3926.213 0.7532 0.7517 0.7399 0.7369 0.7986 0.85073 0.7778 0.7716 0.82854 0.87459
3945.506 0.9342 0.9419 0.896 0.90739 0.90771 0.924 0.9358 0.88452 0.87748 0.91236
3964.800 0.9726 0.938 0.86044 0.7939 0.7376 0.692 0.7445 0.7891 0.7799 0.7535
3984.093 0.697 0.684 0.723 0.7761 0.80363 0.815567 0.80974 0.80322 0.7268
##END=
