##TITLE=4-Chloro-2-methoxyphenol
##JCAMP-DX=4.24
##DATA TYPE=INFRARED SPECTRUM
##ORIGIN=EPA-IR VAPOR PHASE LIBRARY
##OWNER=SRD/NIST
Collection (C) 2018 copyright by the U.S. Secretary of Commerce
on behalf of the United States of America. All rights reserved.
##CAS REGISTRY NO=16766-30-6
##MOLFORM=C 7 H 7 Cl O 2
##$NIST SOURCE=MSDC-IR
##STATE=gas
##XUNITS=1/CM
##YUNITS=ABSORBANCE
##XFACTOR=1.
##YFACTOR=0.001
##DELTAX=1.929
##FIRSTX=549.8
##LASTX=4000.8
##FIRSTY=6.92
##MAXX=4000.75
##MINX=549.766
##MAXY=0.18777
##MINY=0
##NPOINTS=1790
##XYDATA=(X++(Y..Y))
549.766 6.92 7 7.12 7 6.52 5.91 5.25 5.04 4.94 4.79
569.056 4.87 5.08 5.43 5.78 6.08 6.28 6.33 6.39 6.44 6.34
588.346 5.98 5.88 5.78 5.58 5.34 4.74 4.49 4.25 3.83 3.6
607.636 3.33 3.04 2.79 2.72 2.63 2.43 2.42 2.41 2.24 2.16
626.926 2.35 2.42 2.41 2.65 3.05 3.65 4.6 6.07 8.12 10.47
646.216 12.82 14.52 15.28 15.75 15.96 15.47 14.67 13.21 10.55 7.75
665.506 5.58 4.1 3.21 2.6 2.17 2.0045 1.907 1.7948 1.8082 1.7771
684.796 1.7575 1.7725 1.6508 1.6439 1.6558 1.7272 1.7992 1.8057 1.8913 1.9825
704.086 1.9687 1.9581 1.8433 1.7251 1.7951 1.8587 1.936 2.0031 2.02 1.9398
723.376 1.9064 1.9401 1.9229 1.9192 1.9631 2.14 2.36 2.57 2.82 2.94
742.666 3.12 3.4 3.81 4.26 4.57 4.94 5.31 5.79 6.37 7
761.956 7.72 8.61 9.93 11.7 13.78 16.43 19.63 22.98 26.04 28.45
781.246 30.1 31.04 31.29 30.91 29.75 27.77 25.4 23.3 21.66 20.67
800.536 20.5 20.89 21.75 23.17 25.49 27.82 27.18 23.31 20.26 18.76
819.826 17.59 16.75 15.76 14.89 14.34 14.1 14.32 15.09 16.38 17.64
839.116 17.69 17.01 16.56 16.1 15.62 15.06 14.28 13.5 12.89 12.51
858.406 12.36 12.4 13.09 14.53 16.6 19.27 22.33 25.34 27.75 29.31
877.696 30.07 30.2 29.26 27.33 24.57 20.82 16.65 12.9 10.02 8.1
896.986 6.82 5.75 4.95 4.47 4.06 3.73 3.51 3.43 3.43 3.36
916.276 3.28 3.2 3.17 3.09 3.08 3.12 3.13 3.17 3.12 2.99
935.566 2.89 2.83 2.8 2.67 2.61 2.59 2.49 2.55 2.6 2.62
954.856 2.68 2.71 2.8 2.93 3 3.08 3.28 3.48 3.62 3.78
974.146 4.02 4.29 4.52 4.73 4.91 5.14 5.41 5.66 5.99 6.32
993.436 6.7 7.28 7.99 8.78 9.83 11.09 12.54 14.3 16.2 18.21
1012.726 20.33 22.47 24.68 26.78 28.74 30.51 31.9 32.96 33.66 33.98
1032.016 33.98 33.55 32.59 31.24 29.48 27.3 25.06 22.83 20.46 17.96
1051.306 15.45 13.2 11.35 9.9 8.81 8.11 7.8 7.82 8.23 8.98
1070.596 10.1 11.57 13.12 14.64 16.04 17.07 17.76 18.15 18.11 17.57
1089.886 16.39 14.83 13.39 12.38 12.03 12.51 13.91 16.23 19.28 22.81
1109.176 26.22 28.57 29.32 28.88 28.38 28.63 28.56 26.61 23.05 19.12
1128.467 15.71 13.03 10.99 9.56 8.64 8.02 7.63 7.52 7.57 7.88
1147.757 8.39 8.88 9.48 10.2 10.89 11.58 12.32 13.01 13.7 14.57
1167.047 15.31 15.93 16.53 17.13 17.9 18.69 19.54 20.49 21.54 22.69
1186.337 23.99 25.71 27.89 30.56 33.85 37.5 41.4 45.26 49.13 53.24
1205.627 57.76 62.74 68.45 74.97 82.15 89.7 97.15 103.87 108.51 110.6
1224.917 110.48 109.15 107.2 103.6 97.05 87.72 77.75 69.41 64.04 61.97
1244.207 62.93 66.55 72.57 80.38 89.38 99.12 108.57 116.34 121.26 122.55
1263.497 120.22 114.63 106.05 95.33 82.54 67.86 53.17 40.71 31.55 25.24
1282.787 20.86 17.82 15.57 13.82 12.56 11.62 10.85 10.28 9.86 9.54
1302.077 9.32 9.19 8.99 8.86 8.87 8.82 8.79 8.76 8.72 8.67
1321.367 8.69 8.74 8.82 9.02 9.46 10.12 10.9 11.96 13.31 15.03
1340.657 17.18 19.59 22.25 25.09 28.06 30.84 33.24 35.18 36.58 37.28
1359.947 37.21 36.43 34.89 32.72 30.11 27.19 24.03 20.79 17.75 15.16
1379.237 12.98 11.24 9.96 9.08 8.48 8.08 7.88 7.97 8.26 8.61
1398.527 9.12 9.85 10.78 11.97 13.43 15.15 16.93 18.6 19.98 20.94
1417.817 21.49 21.72 21.63 21.2 20.45 19.52 18.52 17.78 17.58 18.02
1437.107 19.11 20.68 22.79 25.36 28 30.31 31.94 32.77 33.28 34.09
1456.397 34.86 34.42 32.91 31.36 30.06 29.06 28.58 28.7 29.67 31.51
1475.687 34.3 38.19 43.7 51.92 63.53 78.98 98.23 120.14 142.85 162.59
1494.977 176.92 185.42 187.77 184.44 175.09 159.9 138.14 112.75 87.79 65.78
1514.267 49.64 38.4 30.49 25.13 21.23 18.57 16.7 15.24 14.1 13.1
1533.557 12.2 11.3 10.43 9.59 8.71 7.86 7.13 6.47 5.97 5.58
1552.847 5.26 5 4.77 4.61 4.45 4.37 4.41 4.48 4.71 5
1572.137 5.34 5.83 6.49 7.27 8.15 9.16 10.16 11.15 12.15 13.14
1591.427 14.07 15 15.94 16.96 18.01 18.86 19.57 20.13 20.28 20.04
1610.717 19.55 18.68 17.5 15.99 14.18 12.27 10.39 8.72 7.27 6.17
1630.007 5.4 4.8 4.33 3.98 3.73 3.57 3.41 3.24 3.12 3.04
1649.297 3 2.94 2.83 2.7 2.66 2.66 2.66 2.65 2.7 2.77
1668.587 2.75 2.74 2.76 2.77 2.72 2.62 2.52 2.47 2.39 2.33
1687.877 2.26 2.16 2.17 2.18 2.18 2.15 2.11 2.1 2.1 2.11
1707.167 2.13 2.11 2.12 2.17 2.21 2.24 2.26 2.3 2.35 2.38
1726.457 2.43 2.49 2.52 2.57 2.55 2.52 2.49 2.44 2.37 2.24
1745.747 2.15 2.0871 1.9838 1.9212 1.8544 1.8323 1.8912 1.9185 1.9547 1.9642
1765.037 1.9852 2.0192 2.0469 2.0702 2.0801 2.0644 2.0495 2.0302 2.0344 2.0564
1784.327 2.0092 1.9517 1.934 1.9112 1.8608 1.8057 1.7488 1.7394 1.7594 1.7247
1803.617 1.6262 1.6052 1.619 1.5657 1.5773 1.5929 1.5819 1.5995 1.6068 1.6359
1822.907 1.6798 1.6916 1.6987 1.7422 1.8355 1.9733 2.11 2.22 2.37 2.52
1842.197 2.65 2.77 2.89 2.97 2.99 3.01 2.98 2.93 2.82 2.65
1861.487 2.52 2.37 2.22 2.0805 1.9799 1.9281 1.8971 1.8648 1.8183 1.8227
1880.777 1.8655 1.8298 1.7588 1.7075 1.6616 1.6563 1.6571 1.6801 1.6583 1.605
1900.067 1.6048 1.5931 1.581 1.624 1.6231 1.5836 1.57 1.5425 1.4593 1.3764
1919.357 1.355 1.2883 1.2474 1.2779 1.2961 1.257 1.1907 1.15998 1.12398 1.14676
1938.647 1.18907 1.14681 1.10167 1.11578 1.13948 1.11531 1.11418 1.09433 1.0784 1.12457
1957.937 1.10699 1.0777 1.09854 1.12436 1.15111 1.16145 1.13221 1.13742 1.1964 1.1995
1977.227 1.2234 1.2928 1.2986 1.3449 1.4055 1.4406 1.5222 1.6029 1.6156 1.6108
1996.517 1.6565 1.6734 1.7113 1.7878 1.7861 1.7598 1.8033 1.8316 1.8361 1.8869
2015.807 1.9165 1.9621 2.0511 2.11 2.15 2.23 2.32 2.42 2.47 2.55
2035.097 2.7 2.77 2.86 2.92 2.92 2.95 2.95 2.91 2.8 2.69
2054.387 2.62 2.52 2.45 2.35 2.24 2.11 2.0183 1.9904 1.9078 1.8837
2073.677 1.8821 1.8509 1.8212 1.7749 1.768 1.7929 1.806 1.8561 1.8927 1.9146
2092.967 1.9183 1.8761 1.8667 1.8861 1.9186 1.9032 1.8384 1.7887 1.7647 1.7367
2112.257 1.7113 1.6615 1.5924 1.5873 1.5793 1.5567 1.521 1.4855 1.5221 1.5603
2131.547 1.5505 1.5834 1.5943 1.5708 1.5532 1.5809 1.5815 1.5424 1.5296 1.5348
2150.837 1.5226 1.4717 1.4203 1.3483 1.3172 1.2745 1.2838 1.3056 1.278 1.2261
2170.127 1.18006 1.16901 1.15947 1.11996 1.10965 1.13243 1.11458 1.09232 1.09305 1.09602
2189.417 1.12339 1.13358 1.10828 1.09342 1.11767 1.18181 1.2083 1.2039 1.18362 1.1982
2208.707 1.2231 1.17238 1.2095 1.25 1.228 1.2338 1.2375 1.2972 1.3284 1.367
2227.997 1.4252 1.432 1.3992 1.4189 1.4598 1.4026 1.3584 1.3786 1.4276 1.4515
2247.287 1.4819 1.4834 1.4778 1.4823 1.4896 1.5358 1.518 1.5542 1.6084 1.6214
2266.577 1.6548 1.7456 1.8082 1.8205 1.8873 1.9175 1.9406 1.9481 1.9079 1.898
2285.868 1.8983 1.8675 1.8298 1.7856 1.6994 1.5861 1.5529 1.5221 1.4771 1.4204
2305.158 1.373 1.3767 1.3586 1.329 1.3261 1.3061 1.267 1.2811 1.3243 1.3388
2324.448 1.2852 1.3098 1.3733 1.3595 1.3539 1.3026 1.2982 1.3508 1.3699 1.3711
2343.738 1.3706 1.3925 1.4059 1.4034 1.4099 1.3815 1.334 1.3405 1.3374 1.3423
2363.028 1.3705 1.3908 1.4167 1.5338 1.659 1.6856 1.665 1.6233 1.6028 1.6376
2382.318 1.6899 1.6944 1.6525 1.5944 1.5728 1.5581 1.5313 1.4574 1.4407 1.4846
2401.608 1.4597 1.4372 1.4609 1.5005 1.4711 1.4571 1.4544 1.3896 1.4337 1.4665
2420.898 1.4133 1.4711 1.5388 1.4748 1.4259 1.4521 1.4665 1.5261 1.5475 1.527
2440.188 1.5607 1.597 1.6242 1.6414 1.67 1.7307 1.7153 1.7159 1.7995 1.8313
2459.478 1.8569 1.923 2.0222 2.0694 2.0818 2.11 2.2 2.31 2.37 2.45
2478.768 2.5 2.52 2.57 2.54 2.47 2.42 2.35 2.31 2.21 2.0699
2498.058 2.0284 2.0043 1.9119 1.9047 1.9155 1.865 1.8368 1.831 1.8209 1.8019
2517.348 1.763 1.7366 1.7305 1.7083 1.6918 1.6572 1.6319 1.5548 1.4665 1.4709
2536.638 1.421 1.332 1.2997 1.2525 1.2579 1.3018 1.2885 1.2508 1.2216 1.2349
2555.928 1.2686 1.2608 1.2725 1.2099 1.1535 1.2081 1.2256 1.2283 1.2278 1.2181
2575.218 1.2047 1.13666 1.12803 1.18977 1.2229 1.2421 1.2318 1.2552 1.2777 1.3601
2594.508 1.3531 1.2594 1.3104 1.3819 1.4268 1.4509 1.5049 1.5808 1.6093 1.604
2613.798 1.6527 1.6734 1.6733 1.7667 1.7647 1.694 1.7145 1.6832 1.6843 1.6987
2633.088 1.6633 1.7011 1.677 1.6012 1.5899 1.6137 1.5906 1.5443 1.4688 1.429
2652.378 1.4112 1.3964 1.3902 1.3325 1.3232 1.2767 1.2379 1.3171 1.3661 1.2961
2671.668 1.3173 1.3135 1.2468 1.2634 1.2453 1.222 1.2142 1.18477 1.13682 1.16541
2690.958 1.2218 1.13458 1.09912 1.13531 1.15602 1.1906 1.2194 1.2383 1.2218 1.2372
2710.248 1.2762 1.3637 1.4235 1.3743 1.2609 1.2812 1.3594 1.3514 1.3919 1.368
2729.538 1.3214 1.2946 1.2152 1.2009 1.2698 1.319 1.2955 1.289 1.2768 1.3122
2748.828 1.3647 1.3752 1.3388 1.3226 1.3857 1.4159 1.3938 1.4346 1.4751 1.4835
2768.118 1.4433 1.4047 1.409 1.461 1.5052 1.4567 1.4947 1.5506 1.5028 1.4195
2787.408 1.451 1.5471 1.6454 1.6882 1.6846 1.7506 1.8739 1.9654 2.0269 2.14
2806.698 2.3 2.38 2.5 2.64 2.72 2.84 2.92 3.03 3.16 3.25
2825.988 3.45 3.71 4.03 4.35 4.82 5.4 5.99 6.72 7.49 8.23
2845.278 8.85 9.32 9.62 9.77 9.76 9.72 9.58 9.26 8.77 8.15
2864.568 7.67 7.29 6.92 6.5 6.16 6.02 5.87 5.6 5.41 5.27
2883.858 5.19 5.11 4.95 4.89 4.83 4.73 4.79 4.86 5.05 5.24
2903.148 5.46 5.74 6 6.34 6.79 7.24 7.62 8 8.32 8.69
2922.438 9.06 9.19 9.16 9.19 9.41 9.79 10.22 10.84 11.64 12.52
2941.728 13.51 14.52 15.5 16.29 16.92 17.44 17.76 17.89 17.92 17.9
2961.018 17.69 17.29 16.77 16.22 15.56 14.55 13.28 12.17 11.35 10.55
2980.308 9.65 8.93 8.38 7.88 7.51 7.3 7.25 7.32 7.61 8.09
2999.598 8.74 9.63 10.63 11.65 12.65 13.3 13.57 13.43 12.99 12.4
3018.888 11.58 10.55 9.19 7.81 6.63 5.62 4.91 4.41 4.09 3.99
3038.178 3.8 3.56 3.43 3.4 3.43 3.39 3.46 3.56 3.69 3.72
3057.468 3.66 3.68 3.65 3.57 3.55 3.63 3.69 3.68 3.66 3.7
3076.758 3.74 3.78 3.69 3.5 3.48 3.42 3.17 2.99 2.78 2.44
3096.048 2.23 2.15 2.0264 1.9937 1.938 1.7245 1.7116 1.7297 1.4789 1.4101
3115.338 1.5238 1.4552 1.3454 1.2698 1.2359 1.1932 1.18167 1.1939 1.1074 1.13152
3134.628 1.0618 0.979 1.0248 0.966 0.913 0.907 0.877 0.832 0.876 0.969
3153.918 0.924 0.871 0.879 0.816 0.796 0.862 0.824 0.762 0.692 0.664
3173.208 0.844 0.87 0.753 0.736 0.762 0.692 0.659 0.668 0.657 0.599
3192.498 0.584 0.665 0.639 0.576 0.587 0.557 0.521 0.513 0.508 0.542
3211.788 0.586 0.492 0.381 0.459 0.532 0.519 0.5 0.431 0.366 0.31
3231.078 0.338 0.489 0.377 0.277 0.392 0.451 0.461 0.449 0.455 0.538
3250.368 0.538 0.467 0.42 0.419 0.395 0.382 0.381 0.343 0.413 0.502
3269.658 0.433 0.365 0.455 0.434 0.339 0.316 0.385 0.414 0.359 0.317
3288.948 0.23 0.282 0.455 0.539 0.451 0.421 0.479 0.36 0.297 0.438
3308.238 0.594 0.531 0.42 0.478 0.445 0.355 0.229 0.194 0.303 0.269
3327.528 0.256 0.228 0.232 0.161 0.174 0.215 0.146 0.21 0.171 0.138
3346.818 0.08 0.095 0.114 0.05 0.094 0.158 0.192 0.291 0.304 0.187
3366.108 0.149 0.2 0.268 0.26 0.156 0.09 0.169 0.126 0 0.04
3385.398 0.195 0.157 0.144 0.244 0.2 0.197 0.198 0.262 0.307 0.235
3404.688 0.286 0.329 0.356 0.286 0.201 0.168 0.173 0.265 0.198 0.125
3423.978 0.122 0.176 0.249 0.215 0.176 0.234 0.28 0.253 0.155 0.142
3443.269 0.191 0.205 0.309 0.26 0.176 0.279 0.149 0.11 0.207 0.228
3462.559 0.202 0.06 0.01 0.101 0.207 0.137 0.07 0.07 0 0.096
3481.849 0.232 0.218 0.228 0.345 0.299 0.188 0.261 0.242 0.228 0.368
3501.139 0.385 0.341 0.395 0.345 0.245 0.358 0.44 0.483 0.597 0.542
3520.429 0.521 0.574 0.596 0.634 0.72 0.705 0.666 0.784 0.887 1.08668
3539.719 1.2319 1.2486 1.3722 1.4111 1.6001 1.8782 1.9683 2.11 2.46 3.01
3559.009 3.59 4.22 5.18 6.49 8.24 10.58 13.7 17.85 23.11 29.25
3578.299 36.01 42.85 49.21 54.96 59.62 62.55 63.35 61.69 57.95 52.81
3597.589 46.5 39.45 32.28 25.46 19.32 14.35 10.59 7.94 6.1 4.83
3616.879 3.97 3.28 2.79 2.46 2.31 2.15 1.9788 1.8919 1.7879 1.7329
3636.169 1.7028 1.7229 1.8906 2.18 2.51 2.7 2.68 2.67 2.65 2.62
3655.459 2.51 2.31 2.0464 1.5194 1.17124 1.13207 0.956 0.659 0.479 0.389
3674.749 0.387 0.434 0.413 0.434 0.48 0.48 0.467 0.447 0.447 0.407
3694.039 0.449 0.419 0.364 0.439 0.428 0.437 0.495 0.491 0.446 0.462
3713.329 0.435 0.404 0.443 0.475 0.486 0.533 0.494 0.317 0.383 0.476
3732.619 0.409 0.318 0.264 0.316 0.294 0.231 0.191 0.207 0.273 0.305
3751.909 0.357 0.302 0.321 0.399 0.264 0.243 0.174 0.218 0.337 0.324
3771.199 0.342 0.358 0.377 0.373 0.41 0.383 0.312 0.293 0.332 0.37
3790.489 0.304 0.218 0.225 0.227 0.305 0.301 0.207 0.228 0.259 0.214
3809.779 0.318 0.434 0.435 0.382 0.329 0.367 0.394 0.347 0.293 0.247
3829.069 0.317 0.445 0.447 0.37 0.354 0.515 0.531 0.528 0.423 0.267
3848.359 0.336 0.41 0.409 0.298 0.446 0.618 0.617 0.72 0.708 0.706
3867.649 0.751 0.823 0.903 0.839 0.786 0.854 0.945 0.903 0.75 0.689
3886.939 0.669 0.565 0.627 0.622 0.533 0.528 0.476 0.438 0.486 0.493
3906.229 0.41 0.387 0.369 0.338 0.437 0.589 0.519 0.417 0.462 0.471
3925.519 0.464 0.58 0.61 0.655 0.828 0.759 0.591 0.595 0.66 0.642
3944.809 0.732 0.771 0.613 0.638 0.672 0.727 0.813 0.793 0.77 0.815
3964.099 0.827 0.848 0.88 0.926 0.949 0.881 0.911 0.896 0.851 0.729
3983.389 0.6 0.621 0.673 0.6 0.612 0.754 0.774 0.728 0.666 0.652
##END=
