##TITLE=4-Methoxybenzoyl isothiocyanate
##JCAMP-DX=4.24
##DATA TYPE=INFRARED SPECTRUM
##ORIGIN=EPA-IR VAPOR PHASE LIBRARY
##OWNER=SRD/NIST
Collection (C) 2018 copyright by the U.S. Secretary of Commerce
on behalf of the United States of America. All rights reserved.
##CAS REGISTRY NO=16778-84-0
##MOLFORM=C 9 H 7 N O 2 S
##$NIST SOURCE=MSDC-IR
##STATE=gas
##XUNITS=1/CM
##YUNITS=ABSORBANCE
##XFACTOR=1.
##YFACTOR=0.001
##DELTAX=1.92898
##FIRSTX=549.8
##LASTX=4000.7
##FIRSTY=4.548
##MAXX=4000.7
##MINX=549.759
##MAXY=0.568208
##MINY=0
##NPOINTS=1790
##XYDATA=(X++(Y..Y))
549.759 4.548 4.648 4.488 4.658 4.848 5.508 5.948 6.168 6.378 7.148
569.049 7.978 8.318 9.218 10.068 11.288 13.148 15.028 17.178 20.388 24.578
588.339 29.488 35.638 42.838 49.948 56.568 62.188 66.178 68.178 67.588 64.818
607.628 61.578 58.558 55.278 52.128 49.448 46.958 44.758 42.658 40.338 37.618
626.918 34.578 31.628 28.738 26.498 25.148 24.278 23.808 24.098 24.368 23.878
646.208 23.518 22.788 21.388 19.728 17.538 15.608 14.368 13.628 13.378 13.648
665.498 14.328 15.228 16.438 17.908 19.608 20.958 22.098 23.168 23.568 23.118
684.787 21.988 20.488 18.528 16.108 14.228 12.668 11.048 9.878 8.908 8.328
704.077 7.958 7.528 7.198 6.938 6.698 6.578 6.528 6.608 6.738 6.868
723.367 7.188 7.478 7.658 8.158 8.628 9.078 9.878 11.018 12.418 14.308
742.657 16.598 18.618 20.578 22.878 25.028 26.878 27.508 26.698 25.818 25.118
761.947 24.138 23.258 22.978 23.058 24.048 26.188 29.188 33.298 38.448 43.548
781.236 47.758 50.378 50.958 48.978 44.538 38.638 32.188 25.898 20.458 16.768
800.526 14.608 13.668 13.428 13.568 14.508 16.018 18.058 20.668 23.298 25.588
819.816 27.458 27.938 27.588 27.168 26.828 27.078 28.028 30.108 33.628 38.208
839.106 43.418 49.358 56.158 63.098 69.158 74.978 82.748 93.018 105.068 118.638
858.395 132.758 146.198 156.528 162.118 162.598 157.588 147.108 132.788 117.418 101.918
877.685 87.488 74.898 64.288 55.688 48.908 43.808 39.998 37.158 35.118 33.498
896.975 32.688 32.268 31.758 31.378 30.928 30.578 30.188 29.508 28.578 27.528
916.265 26.538 25.748 24.718 23.768 23.068 22.228 21.438 20.898 20.358 19.708
935.555 19.268 19.018 18.748 18.618 18.798 19.108 19.258 19.428 19.858 20.498
954.844 21.428 22.428 23.158 23.658 23.938 23.948 23.498 22.848 22.208 21.388
974.134 20.478 19.688 19.048 18.398 17.338 16.778 16.578 16.108 15.868 15.538
993.424 15.428 15.548 15.718 16.188 16.668 17.228 18.068 18.818 19.808 21.128
1012.714 22.468 24.428 27.088 30.148 34.118 38.608 43.228 48.178 53.088 57.678
1032.003 61.808 64.378 64.908 63.988 60.988 56.288 50.748 45.438 40.588 36.728
1051.293 34.938 34.408 35.408 37.938 40.998 45.058 49.798 55.368 61.588 67.688
1070.583 74.218 79.908 84.218 87.318 88.358 86.468 81.738 75.648 67.468 57.768
1089.873 48.748 40.478 33.068 26.778 22.188 18.928 16.218 14.898 13.938 13.258
1109.163 12.948 12.578 12.678 12.718 12.968 13.408 13.378 12.918 12.848 12.808
1128.452 12.848 13.378 13.998 14.628 15.538 17.158 19.168 21.298 24.378 27.948
1147.742 32.028 37.948 46.278 59.198 80.258 113.038 160.908 221.708 281.548 324.078
1167.032 344.148 344.028 320.068 270.168 208.238 153.358 114.098 88.758 72.978 63.008
1186.322 55.558 49.208 43.968 40.188 38.148 37.518 37.928 39.558 42.448 46.718
1205.611 52.958 60.728 69.208 78.418 88.118 97.848 107.478 117.738 130.178 146.088
1224.901 167.168 194.838 230.338 273.538 323.838 378.398 432.968 483.708 525.588 554.638
1244.191 568.208 566.188 547.608 514.688 472.328 423.838 373.118 323.668 278.118 237.758
1263.481 203.198 174.468 149.828 128.448 110.348 94.988 82.108 72.048 64.578 59.168
1282.771 55.338 52.798 51.708 51.808 52.888 55.268 58.788 63.008 67.698 72.138
1302.060 75.708 77.588 77.278 74.818 70.648 65.558 60.118 54.928 50.478 46.658
1321.350 42.898 38.958 34.758 30.338 25.958 21.838 18.458 16.058 14.308 13.008
1340.640 12.158 11.658 11.268 11.068 10.968 10.808 10.608 10.408 10.108 9.758
1359.930 9.358 8.968 8.608 8.238 7.948 7.608 7.258 6.968 6.788 6.588
1379.219 6.328 6.208 6.178 6.058 6.018 6.128 6.268 6.458 6.758 7.188
1398.509 7.728 8.458 9.368 10.578 12.008 13.708 15.668 17.738 19.658 21.198
1417.799 22.168 22.208 21.328 19.818 17.888 15.868 14.118 12.978 12.518 12.728
1437.089 13.468 14.658 16.218 17.818 19.138 19.788 20.058 20.198 19.928 19.588
1456.378 19.788 20.728 22.368 24.578 27.048 29.218 30.448 30.628 30.038 28.798
1475.668 26.798 24.388 22.398 21.178 20.798 21.148 22.148 23.928 26.598 30.298
1494.958 35.308 42.028 50.338 59.858 69.748 78.288 83.648 84.638 80.848 73.038
1514.248 62.528 50.298 38.558 29.478 23.248 19.328 16.658 14.748 13.358 12.438
1533.538 11.828 11.468 11.248 11.158 11.318 11.598 11.828 12.248 12.908 13.598
1552.827 14.488 15.638 17.138 19.078 21.498 24.518 28.288 32.978 38.808 45.848
1572.117 53.678 61.768 69.738 76.658 81.828 85.218 86.938 88.008 89.648 93.428
1591.407 100.818 112.018 126.548 143.658 161.868 178.598 191.188 197.178 194.998 184.408
1610.697 166.738 144.138 119.858 96.368 76.188 60.478 48.258 38.838 31.678 26.368
1629.986 22.408 19.488 17.538 16.248 15.238 14.578 14.138 13.868 13.808 13.708
1649.276 13.548 13.498 13.408 13.248 13.168 13.058 12.948 12.988 13.118 13.348
1668.566 13.838 14.508 15.308 16.288 17.508 18.918 20.418 22.078 24.018 26.228
1687.856 28.668 31.488 34.908 39.148 44.458 50.848 58.818 69.048 81.058 95.938
1707.146 113.368 132.888 153.828 174.968 194.658 211.488 224.678 232.998 235.628 232.858
1726.435 225.108 213.038 197.648 180.298 161.528 143.048 125.558 109.168 94.608 81.748
1745.725 70.798 61.508 53.508 46.548 40.698 35.678 31.418 28.028 25.218 22.908
1765.015 21.058 19.518 18.248 17.148 16.048 15.018 14.018 13.048 12.198 11.418
1784.305 10.888 10.478 9.988 9.668 9.358 9.028 8.788 8.518 8.268 8.068
1803.594 7.888 7.728 7.628 7.498 7.428 7.398 7.348 7.338 7.418 7.468
1822.884 7.508 7.718 7.898 8.048 8.348 8.668 9.078 9.588 10.098 10.678
1842.174 11.298 11.948 12.708 13.558 14.408 15.278 16.178 17.198 18.308 19.398
1861.464 20.528 21.688 22.898 24.118 25.428 26.798 28.238 29.928 31.688 33.638
1880.754 35.858 38.238 40.878 43.758 46.938 50.448 54.198 58.158 62.368 66.908
1900.043 71.718 76.718 82.008 87.688 93.898 100.658 107.948 115.918 124.698 134.308
1919.333 144.728 155.738 167.138 178.818 190.388 201.518 211.808 220.718 227.748 232.758
1938.623 235.878 237.428 237.808 237.648 237.708 238.518 240.688 244.678 250.638 258.968
1957.913 269.968 283.638 300.278 320.238 343.748 370.578 400.378 432.158 464.128 494.108
1977.202 519.478 538.068 547.628 547.188 537.498 520.758 499.538 476.318 453.438 432.568
1996.492 414.718 400.258 389.508 382.428 378.238 376.278 375.908 376.248 376.568 376.248
2015.782 374.628 371.308 365.898 357.968 347.188 333.718 317.958 300.338 281.888 263.368
2035.072 245.368 228.308 212.398 197.678 183.878 170.888 158.758 147.458 136.918 127.288
2054.362 118.548 110.628 103.688 97.578 92.118 87.298 82.938 78.908 75.288 72.138
2073.651 69.348 66.858 64.678 62.788 61.068 59.508 58.068 56.638 55.158 53.598
2092.941 52.028 50.378 48.758 47.238 45.658 44.168 42.868 41.658 40.548 39.558
2112.231 38.498 37.428 36.498 35.638 34.688 33.698 32.988 32.338 31.648 31.078
2131.521 30.628 30.318 30.108 29.988 29.848 29.818 29.818 29.778 29.658 29.508
2150.810 29.348 29.088 28.708 28.138 27.438 26.598 25.528 24.318 23.068 21.798
2170.100 20.528 19.208 17.848 16.608 15.508 14.488 13.638 12.908 12.228 11.738
2189.390 11.218 10.778 10.438 10.078 9.818 9.528 9.198 8.928 8.668 8.388
2208.680 8.168 7.928 7.658 7.398 7.068 6.808 6.618 6.448 6.258 5.978
2227.970 5.798 5.648 5.498 5.428 5.388 5.428 5.428 5.418 5.448 5.388
2247.259 5.418 5.518 5.538 5.378 5.188 5.078 4.998 4.888 4.728 4.558
2266.549 4.488 4.508 4.598 4.618 4.558 4.578 4.598 4.648 4.698 4.818
2285.839 4.998 5.118 5.168 5.208 5.288 5.328 5.328 5.418 5.368 5.258
2305.129 5.298 5.318 5.278 5.198 5.218 5.148 5.008 5.018 4.958 4.868
2324.418 4.828 4.738 4.628 4.498 4.408 4.318 4.208 4.088 3.938 3.718
2343.708 3.548 3.458 3.278 3.108 3.048 2.978 2.948 2.898 2.828 2.798
2362.998 2.708 2.668 2.688 2.668 2.618 2.648 2.738 2.858 2.978 2.988
2382.288 2.928 2.998 3.138 3.228 3.198 3.228 3.378 3.308 3.228 3.298
2401.578 3.368 3.458 3.548 3.518 3.428 3.428 3.408 3.408 3.418 3.408
2420.867 3.428 3.468 3.548 3.558 3.558 3.678 3.828 3.808 3.778 3.728
2440.157 3.728 3.768 3.818 3.998 4.048 3.988 4.058 4.058 4.038 4.088
2459.447 4.208 4.238 4.178 4.208 4.298 4.348 4.318 4.178 4.138 4.138
2478.737 4.118 4.138 4.118 4.148 4.188 4.058 4.028 4.068 4.058 4.068
2498.026 4.108 4.158 4.168 4.238 4.268 4.258 4.338 4.428 4.518 4.578
2517.316 4.548 4.538 4.568 4.558 4.498 4.428 4.488 4.518 4.488 4.558
2536.606 4.588 4.498 4.508 4.648 4.638 4.598 4.758 4.888 4.988 5.188
2555.896 5.388 5.548 5.658 5.718 5.768 5.898 5.928 5.938 6.028 5.928
2575.186 5.718 5.658 5.588 5.538 5.438 5.278 5.198 5.158 5.058 4.758
2594.475 4.638 4.718 4.708 4.648 4.608 4.698 4.808 4.838 4.878 4.918
2613.765 4.878 4.868 4.898 4.848 4.928 5.008 4.998 4.988 4.978 5.048
2633.055 5.108 5.138 5.188 5.238 5.208 5.198 5.238 5.318 5.428 5.458
2652.345 5.478 5.548 5.658 5.838 5.868 5.828 5.878 5.948 6.038 6.038
2671.634 5.978 5.918 5.888 5.728 5.528 5.358 5.168 4.938 4.638 4.308
2690.924 4.078 3.898 3.598 3.438 3.358 3.208 3.088 2.958 2.778 2.688
2710.214 2.668 2.548 2.488 2.448 2.438 2.398 2.288 2.248 2.198 2.268
2729.504 2.318 2.258 2.338 2.248 2.148 2.268 2.358 2.468 2.588 2.658
2748.794 2.708 2.878 2.938 2.918 3.088 3.268 3.358 3.408 3.408 3.388
2768.083 3.468 3.568 3.458 3.368 3.348 3.238 3.198 3.128 3.068 3.128
2787.373 3.068 3.068 3.148 3.178 3.188 3.248 3.258 3.268 3.418 3.488
2806.663 3.528 3.698 3.898 3.998 4.118 4.258 4.448 4.718 5.058 5.408
2825.953 5.698 6.138 6.598 7.108 7.728 8.548 9.658 10.928 12.678 14.948
2845.242 17.298 19.188 20.228 20.478 20.058 18.688 16.448 14.048 11.968 10.328
2864.532 9.128 8.158 7.428 6.908 6.568 6.318 6.218 6.078 6.098 6.278
2883.822 6.308 6.328 6.588 6.858 6.998 7.198 7.478 7.828 8.268 8.728
2903.112 9.168 9.828 10.488 11.198 11.928 12.508 13.128 13.528 13.698 13.878
2922.401 13.908 14.008 13.988 13.828 13.908 14.208 14.768 15.778 17.208 18.778
2941.691 20.578 22.258 23.448 24.258 24.618 24.508 24.058 23.608 23.248 22.898
2960.981 22.488 22.128 21.728 21.248 20.368 19.248 18.168 16.858 15.438 14.138
2980.271 13.078 11.918 10.958 10.178 9.428 9.088 8.998 8.838 8.908 9.238
2999.561 9.668 10.338 11.338 12.548 14.068 16.268 18.818 20.878 21.838 21.608
3018.850 20.678 18.888 16.008 12.808 10.358 8.788 7.668 6.858 6.398 6.048
3038.140 5.778 5.718 5.678 5.728 5.928 5.978 5.828 5.798 5.898 5.838
3057.430 5.738 5.648 5.478 5.428 5.388 5.478 5.728 5.868 6.088 6.558
3076.720 7.128 7.698 8.158 8.348 8.268 7.868 7.258 6.558 5.858 5.388
3096.009 5.138 4.888 4.658 4.608 4.648 4.618 4.518 4.238 3.808 3.528
3115.299 3.458 3.278 3.008 2.898 2.738 2.468 2.238 2.128 2.158 2.208
3134.589 2.018 1.798 1.6467 1.5988 1.5585 1.5911 1.748 1.668 1.5586 1.5274
3153.879 1.3995 1.3838 1.3199 1.1901 1.1522 1.0752 1.1733 1.2042 1.1101 1.146
3173.169 1.0082 0.865 0.8866 0.9923 1.04 1.0347 1.1208 1.0066 0.9144 0.9443
3192.458 0.8749 0.8879 0.8542 0.8486 0.9319 0.8708 0.9214 1.0044 1.084 1.0093
3211.748 0.7763 0.71937 0.68251 0.5695 0.554 0.667897 0.71298 0.6308 0.433 0.345
3231.038 0.425 0.407 0.258 0.255 0.298 0.356 0.45 0.517 0.389 0.154
3250.328 0.144 0.135 0.161 0.203 0.186 0.187 0.221 0.348 0.383 0.255
3269.617 0.164 0.186 0.254 0.286 0.251 0.232 0.295 0.285 0.237 0.34
3288.907 0.332 0.264 0.392 0.287 0.19 0.336 0.364 0.261 0.249 0.364
3308.197 0.487 0.5845 0.6122 0.5725 0.536 0.669024 0.71575 0.653 0.673545 0.6398
3327.487 0.669114 0.7693 0.68878 0.70298 0.8463 0.7859 0.6195 0.513 0.5831 0.6405
3346.777 0.5981 0.488 0.365 0.362 0.442 0.402 0.328 0.428 0.37 0.379
3366.066 0.515 0.351 0.382 0.6018 0.495 0.472 0.525 0.557 0.6253 0.7551
3385.356 0.9012 0.8438 0.7962 0.9557 1.2696 1.2279 1.0957 1.294 1.422 1.4106
3404.646 1.5362 1.818 1.998 2.178 2.378 2.448 2.538 2.578 2.708 2.718
3423.936 2.558 2.678 2.828 2.728 2.568 2.428 2.158 1.978 2.008 1.848
3443.225 1.718 1.558 1.375 1.4091 1.4004 1.32 1.2393 1.0673 0.9721 0.99
3462.515 0.9704 0.8845 0.671605 0.6346 0.7722 0.75599 0.66457 0.567 0.5867 0.568
3481.805 0.518 0.507 0.518 0.5688 0.47 0.369 0.404 0.457 0.333 0.282
3501.095 0.307 0.345 0.445 0.441 0.479 0.477 0.356 0.376 0.443 0.33
3520.385 0.352 0.379 0.236 0.326 0.395 0.3 0.209 0.232 0.251 0.158
3539.674 0.188 0.326 0.352 0.323 0.379 0.534 0.478 0.388 0.437 0.358
3558.964 0.244 0.329 0.43 0.396 0.212 0.142 0.195 0.309 0.251 0.335
3578.254 0.521 0.23 0.139 0.121 0.077 0.087 0 0.07 0.097 0.227
3597.544 0.464 0.467 0.328 0.262 0.242 0.195 0.321 0.35 0.336 0.37
3616.833 0.281 0.285 0.299 0.152 0.198 0.305 0.383 0.373 0.104 0.097
3636.123 0.295 0.442 0.521 0.455 0.285 0.124 0.121 0.207 0.212 0.233
3655.413 0.342 0.355 0.235 0.109 0.199 0.291 0.192 0.267 0.427 0.5
3674.703 0.434 0.512 0.6394 0.472 0.293 0.347 0.418 0.412 0.423 0.382
3693.993 0.427 0.539 0.518 0.331 0.214 0.343 0.502 0.531 0.548 0.492
3713.282 0.44 0.368 0.38 0.564 0.56 0.556 0.422 0.244 0.298 0.43
3732.572 0.487 0.375 0.428 0.471 0.359 0.337 0.353 0.291 0.388 0.574
3751.862 0.6245 0.535 0.498 0.589 0.6138 0.5877 0.5872 0.7015 0.674218 0.6004
3771.152 0.6068 0.533 0.346 0.365 0.5992 0.68491 0.69136 0.5759 0.5806 0.553
3790.441 0.464 0.6295 0.639 0.6409 0.8801 0.9922 0.9889 0.8824 0.8081 0.8013
3809.731 0.8424 0.9461 0.9099 0.9331 0.9623 1.0826 1.271 1.3216 1.3528 1.5378
3829.021 1.4728 1.3302 1.3131 1.4914 1.698 1.5953 1.688 1.858 1.6631 1.5906
3848.311 1.6287 1.698 1.768 1.6673 1.828 1.998 1.968 1.818 2.008 2.348
3867.601 2.248 2.158 2.048 1.948 2.088 2.188 2.138 2.158 2.328 2.368
3886.890 2.238 2.218 2.178 2.168 2.258 2.178 2.068 2.088 2.148 2.148
3906.180 2.158 2.248 2.208 2.068 2.018 1.968 2.028 2.128 2.088 2.158
3925.470 2.288 2.168 2.058 2.238 2.268 2.258 2.248 2.248 2.298 2.168
3944.760 2.308 2.558 2.648 2.708 2.688 2.668 2.568 2.488 2.558 2.688
3964.049 2.658 2.478 2.478 2.528 2.498 2.568 2.538 2.498 2.518 2.398
3983.339 2.358 2.348 2.398 2.478 2.548 2.488 2.368 2.438 2.318 2.108
##END=
