##TITLE=3-Bromo-2-hydroxy-5-nitrobenzaldehyde
##JCAMP-DX=4.24
##DATA TYPE=INFRARED SPECTRUM
##ORIGIN=EPA-IR VAPOR PHASE LIBRARY
##OWNER=SRD/NIST
Collection (C) 2018 copyright by the U.S. Secretary of Commerce
on behalf of the United States of America. All rights reserved.
##CAS REGISTRY NO=16789-84-7
##MOLFORM=C 7 H 4 Br N O 4
##$NIST SOURCE=MSDC-IR
##STATE=gas
##XUNITS=1/CM
##YUNITS=ABSORBANCE
##XFACTOR=1.
##YFACTOR=0.001
##DELTAX=1.92898
##FIRSTX=549.8
##LASTX=4000.7
##FIRSTY=4.3164
##MAXX=4000.7
##MINX=549.759
##MAXY=0.164166
##MINY=0
##NPOINTS=1790
##XYDATA=(X++(Y..Y))
549.759 4.3164 4.3664 4.5064 4.7564 4.2164 3.1764 2.3264 1.9164 1.6264 1.7964
569.049 2.0664 2.0164 1.6564 1.7564 2.4164 3.0364 3.1364 2.9464 3.0464 2.6764
588.339 2.2964 2.2564 2.4364 2.1564 1.7764 2.1264 2.2364 1.8764 1.6464 1.7564
607.628 1.8064 1.7764 1.6564 1.4764 1.4164 1.7864 1.7664 1.1564 1.4664 2.1864
626.918 2.2964 2.0764 1.9864 1.9664 1.6864 1.6464 1.9064 2.2264 2.9564 3.4664
646.208 3.5264 3.6464 3.6664 3.6664 3.8764 4.2064 4.2164 4.1264 4.2064 4.5264
665.498 5.1264 6.0164 6.8764 8.1964 10.7064 13.4364 16.1364 19.4264 22.7864 25.7664
684.787 28.2364 31.1564 34.4464 36.9064 38.1264 38.9064 38.8064 36.7864 33.4464 29.2264
704.077 25.3964 23.0664 22.6364 24.1664 27.4264 31.2664 34.1564 35.9064 36.6664 36.3764
723.367 34.7764 31.5064 27.5664 24.3864 23.2064 22.9064 23.1564 23.3464 23.4764 24.5064
742.657 26.0464 27.8164 28.9464 28.8664 27.8164 26.6864 25.1664 22.6864 20.3064 18.3564
761.947 16.0664 13.8064 12.1264 10.4964 8.7764 7.1264 5.5764 4.4264 3.9364 3.5964
781.236 2.9164 2.5464 2.7164 3.0064 2.9364 2.5164 1.8964 1.7064 1.5464 1.4264
800.526 1.5964 1.6664 1.7264 1.7664 2.1564 2.8964 3.6164 3.8364 3.5864 3.2164
819.816 2.8064 2.7064 2.9164 2.6064 2.1864 2.0864 2.1064 1.9164 1.7164 1.6264
839.106 1.6764 2.0964 2.1264 2.1764 2.4164 2.4364 2.3464 2.3464 2.1264 2.0464
858.395 2.7164 3.4164 3.6664 3.3064 2.8664 2.8364 2.8364 2.2664 1.8364 1.9664
877.685 1.8164 1.6564 1.7864 2.0064 2.1264 2.6164 3.3464 3.8564 4.3964 5.2864
896.975 6.0064 6.6764 7.2364 7.8864 8.4664 8.4264 8.4564 8.5364 8.6864 8.7364
916.265 8.4564 7.6964 6.4764 5.5564 4.9364 4.3564 4.1564 4.4564 5.1964 6.3364
935.555 7.5564 9.3964 12.1264 15.0064 17.2264 18.1264 18.3964 17.6864 15.5464 12.7164
954.844 9.0764 5.7664 3.8264 2.8664 2.4864 1.9864 1.4164 1.2564 1.2164 1.1364
974.134 1.1964 1.1364 1.1664 1.1864 0.7408 0.6215 1.0562 1.3464 1.4464 1.5964
993.424 1.9864 2.2664 1.7664 1.2564 1.3164 1.3764 1.5064 1.8764 1.9864 1.3764
1012.714 1.0587 1.1864 1.0764 1.0034 1.2364 1.1864 1.1664 1.1264 1.1264 1.2064
1032.003 0.8865 1.2964 1.6964 1.6564 1.6764 1.5964 1.9164 2.1664 1.7664 1.7064
1051.293 2.2764 3.0064 2.9564 3.0064 3.7164 3.9264 4.4564 4.9264 5.7364 5.9764
1070.583 6.1864 7.0364 8.0964 9.1064 9.5664 10.9364 11.7964 13.1664 15.9164 18.3564
1089.873 20.4464 22.5964 23.6964 23.7264 23.3664 21.3564 17.8564 15.3264 12.4164 9.4464
1109.163 7.5864 5.6164 4.0464 3.7964 3.8864 3.9164 4.1264 3.7564 3.0664 3.4964
1128.452 4.2364 4.6464 5.5264 6.8964 8.1864 8.6964 10.1564 10.8964 11.5664 13.4564
1147.742 15.0664 16.1664 16.6764 18.0464 20.4364 23.3764 26.1464 28.5564 30.6964 30.8564
1167.032 29.5064 27.2764 24.1264 20.7764 16.8764 12.4564 9.8464 9.6664 10.4164 11.1164
1186.322 12.2964 15.7464 20.4864 26.2864 33.2064 40.1364 46.4764 51.3664 53.7264 53.9364
1205.611 50.9164 44.0164 36.0564 28.8064 22.5164 18.2064 16.0464 13.7364 12.5064 12.5164
1224.901 11.8664 10.5464 10.3264 10.1964 9.1364 9.0464 9.3564 9.0764 8.5764 9.0664
1244.191 9.2764 8.1364 7.6964 8.1664 8.5464 8.9264 9.2064 9.5064 9.9964 10.9164
1263.481 12.3064 14.2464 15.9264 18.1164 20.5564 22.4464 25.1264 28.2164 31.2564 35.0264
1282.771 38.7364 42.4164 46.3764 49.8864 52.8764 55.5264 57.6564 59.0464 60.2964 61.5264
1302.060 61.9664 61.4864 60.1664 57.5264 53.5064 48.2364 42.0564 35.7064 29.9864 25.4064
1321.350 22.2264 20.8564 21.1764 22.7364 25.7064 30.4064 37.1564 46.6664 59.7964 77.1764
1340.640 98.0664 120.256 140.986 156.546 164.166 162.676 151.476 131.386 105.466 78.6464
1359.930 55.8364 39.6864 29.6864 23.8764 20.8964 19.6664 19.5664 20.2264 21.0364 21.6864
1379.219 22.0464 21.7664 20.9364 19.7064 18.1864 16.6664 15.1664 13.7364 12.5564 11.5864
1398.509 10.8364 10.3464 9.9864 9.8364 10.0464 10.4964 11.1764 12.1764 13.4764 15.3364
1417.799 17.7064 20.5964 24.2164 28.4864 33.4864 39.0364 44.7264 50.0564 54.2264 56.7364
1437.089 57.3964 56.0564 53.0864 49.0264 44.3964 40.1064 36.1964 32.5764 29.6264 27.0664
1456.378 24.5664 22.0764 19.7064 17.6564 15.9064 14.4964 13.4264 12.5364 11.8264 11.1864
1475.668 10.8564 10.6564 10.3964 10.2064 10.0164 9.9664 10.0464 10.1464 10.3864 10.8464
1494.958 11.4464 12.1164 12.6664 13.0664 13.3064 13.1564 12.7764 12.3164 11.8364 11.4364
1514.248 10.9564 10.3564 9.9564 9.7864 9.4964 9.2564 9.3764 9.9464 10.9464 12.7164
1533.538 15.5164 19.2964 24.6164 31.8864 40.6264 50.5364 60.2764 68.5764 74.2864 76.3064
1552.827 74.5464 69.4764 61.9364 52.6164 43.3164 35.9264 30.9364 28.2664 27.0364 26.6264
1572.117 26.2964 25.5164 24.5164 23.3964 21.9464 20.3564 19.1064 18.3864 18.0664 18.0464
1591.407 18.3664 18.8364 19.5364 20.6864 21.8164 23.1164 24.8564 26.7164 29.2264 32.6764
1610.697 36.2264 39.4564 41.9364 42.9064 42.3364 40.5464 37.5964 33.4864 29.0064 24.9864
1629.986 21.7364 19.6564 18.5064 17.7564 17.4164 17.2064 16.9364 16.6464 16.3764 16.2164
1649.276 15.9964 15.8064 15.7364 15.7464 16.3164 17.5064 19.2164 21.7864 25.4864 30.6964
1668.566 38.1664 48.6664 63.0064 81.2564 102.086 121.346 134.996 141.596 141.706 134.116
1687.856 117.396 94.4464 70.9864 51.1664 36.2564 26.1564 20.0964 16.4564 14.2864 13.1464
1707.146 12.7464 12.6664 12.6464 12.5864 12.4164 11.9264 11.1064 10.0964 9.0964 8.0364
1726.435 7.2064 6.7964 6.5064 6.2864 6.0964 5.8564 5.5164 5.1164 4.8064 4.3864
1745.725 4.0064 3.6064 3.3664 3.2364 2.9664 2.8364 2.6764 2.5364 2.5064 2.4164
1765.015 2.2664 2.1464 2.0964 2.0864 2.0964 2.1864 2.3564 2.4464 2.5264 2.6764
1784.305 2.7464 2.6964 2.8164 2.9964 3.0664 3.0964 3.1064 3.0764 3.0964 3.0564
1803.594 2.9164 2.9464 3.0264 3.0964 2.9464 2.7364 2.7164 2.7164 2.6064 2.5064
1822.884 2.4964 2.3164 2.0464 1.9864 1.8864 1.7064 1.6464 1.5764 1.5464 1.4664
1842.174 1.4064 1.4964 1.5164 1.4164 1.3364 1.3564 1.3064 1.1964 1.1364 1.0063
1861.464 0.941 0.9733 0.9486 0.9709 0.9523 0.9303 0.8389 0.7396 0.8578 0.9894
1880.754 0.9936 0.9764 1.063 1.1264 1.1364 1.1264 1.2364 1.2964 1.2264 1.1764
1900.043 1.1064 1.1064 1.0664 1.0426 1.0527 1.0402 0.9258 0.9193 1.0077 0.9928
1919.333 1.0029 0.9394 1.0064 1.0664 0.9812 0.9562 0.864 0.7266 0.6736 0.7348
1938.623 0.8303 0.6734 0.5092 0.5927 0.5872 0.5511 0.6261 0.586 0.5551 0.6326
1957.913 0.7959 0.7821 0.6389 0.7335 0.7795 0.7142 0.7506 0.7386 0.6795 0.7045
1977.202 0.7057 0.6556 0.6056 0.5832 0.6485 0.6479 0.604 0.6721 0.7735 0.6748
1996.492 0.5824 0.6964 0.6654 0.483 0.4019 0.4469 0.5198 0.6114 0.7632 0.6829
2015.782 0.4714 0.3927 0.428 0.3946 0.5116 0.6588 0.5767 0.5644 0.5611 0.4581
2035.072 0.4529 0.5045 0.5128 0.6411 0.7306 0.6478 0.5895 0.5824 0.5846 0.6471
2054.362 0.5609 0.4449 0.5488 0.6188 0.5824 0.602 0.6022 0.5888 0.5586 0.6021
2073.651 0.6699 0.625 0.629 0.7005 0.6683 0.727 0.7896 0.6551 0.6332 0.7736
2092.941 0.8045 0.8352 0.7732 0.6624 0.743 0.7722 0.7066 0.7756 0.8082 0.7018
2112.231 0.6374 0.5912 0.6488 0.7057 0.7112 0.6816 0.6253 0.6005 0.689 0.7158
2131.521 0.6625 0.8078 0.8993 0.7876 0.7926 0.847 0.8918 0.8817 0.8538 0.9045
2150.810 0.8175 0.8575 0.9096 0.8145 0.7504 0.646 0.6764 0.7131 0.6321 0.7196
2170.100 0.8068 0.6744 0.5796 0.5645 0.6175 0.6626 0.5905 0.5042 0.5074 0.3988
2189.390 0.3664 0.5241 0.5345 0.4838 0.4561 0.4547 0.5506 0.5679 0.4885 0.4041
2208.680 0.3807 0.4199 0.4497 0.5084 0.5128 0.4816 0.5102 0.563 0.6654 0.7019
2227.970 0.6104 0.7287 0.7256 0.6383 0.6731 0.649 0.6723 0.7549 0.7962 0.7746
2247.259 0.7884 0.8363 0.8081 0.736 0.7384 0.8008 0.8878 0.9116 0.849 0.9473
2266.549 1.0066 0.9302 0.941 0.9454 0.8568 0.8994 0.8583 0.747 0.9388 0.9384
2285.839 0.9755 1.1164 1.0764 1.0764 1.1364 1.1764 1.1864 1.1264 1.1664 1.0964
2305.129 0.9129 0.8662 0.8561 0.9205 0.8077 0.7352 0.78 0.7956 0.825 0.7841
2324.418 0.7804 0.6993 0.5838 0.5773 0.5843 0.7018 0.9073 0.8738 0.779 0.7243
2343.708 0.5901 0.6907 0.8145 0.797 0.7734 0.7957 0.8357 0.8276 0.8223 0.7537
2362.998 0.7566 0.8302 0.9064 0.9083 0.8593 0.8026 0.7484 0.9398 0.9985 0.8043
2382.288 0.7655 0.8353 0.7045 0.6261 0.8014 0.9378 0.9154 0.8183 0.7608 0.745
2401.578 0.7589 0.8019 0.8447 0.8455 0.8715 0.9254 1.006 1.008 0.9526 0.9248
2420.867 0.9672 1.0275 1.0299 1.1064 1.0429 0.9961 1.1264 1.1764 1.2464 1.1864
2440.157 1.1964 1.1964 1.1464 1.1964 1.1864 1.2164 1.2264 1.2664 1.2464 1.1064
2459.447 1.0964 1.1664 1.0764 1.1064 1.1564 1.0964 1.1864 1.3064 1.2864 1.1264
2478.737 1.0864 1.0664 1.1464 1.1564 1.0764 1.2764 1.4264 1.3064 1.0964 1.1364
2498.026 1.3164 1.3664 1.4764 1.5164 1.4064 1.4264 1.3264 1.3164 1.4264 1.3764
2517.316 1.2664 1.1264 1.1664 1.3064 1.3664 1.3164 1.2464 1.2664 1.3064 1.3064
2536.606 1.3764 1.4364 1.4564 1.4164 1.4664 1.4464 1.4564 1.7364 1.6864 1.7164
2555.896 1.9564 2.0664 2.0964 1.9964 2.0164 2.0964 2.0164 2.1864 2.2264 1.9764
2575.186 2.0464 2.1364 2.0764 2.2164 2.3864 2.4264 2.3464 2.2364 2.2764 2.3664
2594.475 2.4864 2.3964 2.2364 2.2564 2.2364 2.1164 2.1264 2.1664 2.1164 2.0664
2613.765 2.0664 2.0564 2.0164 1.9564 2.0564 2.1864 2.0564 1.9764 2.0364 2.1564
2633.055 2.1364 2.2264 2.3164 2.2064 2.2164 2.1864 2.2264 2.2864 2.0964 2.0364
2652.345 2.0564 2.2464 2.3064 2.2564 2.3364 2.2864 2.1564 2.0864 2.1764 2.2164
2671.634 2.1564 2.0564 2.0464 2.2164 2.3164 2.2964 2.3864 2.5064 2.5464 2.3564
2690.924 2.3664 2.5564 2.4764 2.4364 2.5064 2.5164 2.4764 2.5164 2.6464 2.7264
2710.214 2.7864 2.8264 2.9064 3.1764 3.3964 3.6764 3.6764 3.9264 4.4764 4.8564
2729.504 5.4464 5.8364 5.9864 6.1864 6.4464 6.3164 6.0164 5.5764 5.0764 4.7864
2748.794 4.3264 3.9564 3.6964 3.4664 3.4264 3.4664 3.4964 3.4564 3.4464 3.3164
2768.083 3.3164 3.3664 3.3664 3.3464 3.2764 3.4464 3.4064 3.4164 3.4564 3.3664
2787.373 3.3564 3.4664 3.8064 3.9364 3.9864 4.1864 4.1464 4.0164 4.2564 4.4864
2806.663 4.5964 4.6364 4.8264 5.0664 5.1664 5.3264 5.4164 5.6864 5.8764 6.1864
2825.953 6.5964 6.8364 7.3564 8.0764 9.1664 10.5164 12.1564 14.6864 17.7264 21.0164
2845.242 24.5964 28.0564 30.4964 31.1964 30.1764 27.8564 24.5164 20.1464 15.6864 12.1164
2864.532 9.5664 8.0264 7.1064 6.5464 6.2464 5.9564 5.8964 5.9764 5.8264 5.6164
2883.822 5.5564 5.4664 5.3564 5.3664 5.2264 4.8764 4.9364 4.8164 4.4364 4.2664
2903.112 4.2064 4.1364 3.8664 3.7064 3.7064 3.7264 3.7564 3.6664 3.5564 3.5464
2922.401 3.4364 3.4664 3.5064 3.4864 3.4264 3.2464 3.2664 3.3864 3.3264 3.5064
2941.691 3.4464 3.2664 3.5064 3.4964 3.4064 3.4664 3.5464 3.6764 3.5964 3.3364
2960.981 3.5564 3.8164 3.6964 3.5864 3.5764 3.6964 3.7664 3.7964 3.8564 3.7864
2980.271 3.7164 3.5364 3.8464 3.9464 3.6264 3.6264 3.7064 3.9864 4.0364 3.7664
2999.561 3.8464 4.0064 4.0464 4.2064 4.2864 4.3564 4.5064 4.7164 4.8964 4.8264
3018.850 4.6564 4.5264 4.5164 4.6864 4.7064 4.8364 5.0864 5.0764 4.9764 4.8064
3038.140 4.8364 4.9964 5.0564 5.4464 5.6464 5.6864 5.7464 5.8564 5.8464 5.8064
3057.430 6.1764 6.6164 6.8164 6.7964 6.7764 6.9764 7.4964 7.8264 8.0964 8.4764
3076.720 8.6964 8.8964 9.0464 9.4164 10.0264 10.5564 11.0564 11.5964 12.0964 12.4564
3096.009 12.5564 12.4264 11.9964 11.3464 11.1264 10.8964 10.3364 9.9564 9.9164 9.7864
3115.299 9.6064 9.4164 9.1764 9.0664 9.1664 9.0364 8.9764 8.9864 8.8864 8.8564
3134.589 8.6964 8.6864 8.7764 8.8364 8.5564 8.7164 9.1464 8.9564 8.7464 8.7664
3153.879 8.7364 8.9964 9.2264 9.0364 9.0964 9.1864 9.1864 9.3964 9.2764 9.4464
3173.169 9.5464 9.3664 9.3464 9.3464 9.3564 9.2964 9.1864 9.2164 9.5264 9.4764
3192.458 9.3764 9.3964 9.4664 9.2864 8.9864 9.3164 9.5264 9.1664 9.0464 9.0564
3211.748 8.9864 8.9564 8.9564 8.6264 8.4364 8.5364 8.6264 8.7864 8.5464 8.4964
3231.038 8.6564 8.5564 8.5264 8.3264 8.0664 8.0064 7.9564 7.8464 7.7564 7.7264
3250.328 7.7564 7.7164 7.6664 7.5564 7.5664 7.6064 7.4864 7.8164 7.8864 7.6564
3269.617 7.4664 7.4564 7.3564 7.3464 7.6564 7.4664 7.4164 7.5964 7.3464 7.2064
3288.907 7.4064 7.2864 6.8764 6.7564 6.7664 6.7864 6.4964 6.1964 6.0064 5.9964
3308.197 6.1464 6.0364 5.8464 5.8064 6.1064 6.0664 6.0764 6.0064 5.6364 5.4864
3327.487 5.4264 5.4564 5.6964 5.9464 5.9864 5.9864 6.1764 6.2664 6.3664 6.6464
3346.777 6.8464 6.9864 6.9464 6.6664 6.5964 6.3564 5.8964 5.7164 5.4764 5.3564
3366.066 5.4264 5.3964 5.0264 4.7864 4.8564 4.8264 4.5264 4.3764 4.6564 4.7864
3385.356 4.3864 4.0664 4.1964 4.1764 4.2564 4.3864 4.3964 4.3764 4.1664 3.9464
3404.646 3.7164 3.9264 4.2164 3.9464 3.5364 3.4664 3.6264 3.5564 3.3764 3.4164
3423.936 3.5864 3.7964 3.8764 3.5364 3.1364 3.2464 3.4064 3.1964 3.0364 2.9364
3443.225 2.8664 3.1064 3.3664 3.3064 3.2664 3.0364 2.7264 2.5864 2.3664 2.3764
3462.515 2.4364 2.4864 2.3664 2.3964 2.6564 2.3564 2.1464 2.1964 2.2764 2.2764
3481.805 2.2264 2.0364 1.7664 1.8964 2.0964 2.3864 2.2364 2.0664 2.2464 1.9664
3501.095 1.8764 1.9864 2.0864 2.1764 1.9264 1.9764 2.6264 3.2164 3.4564 3.8264
3520.385 4.3564 4.9864 5.3264 5.3064 5.2864 5.1664 5.0264 4.6964 4.0964 3.4264
3539.674 3.0164 2.5964 2.2364 2.3564 2.2264 1.8364 1.7664 1.4664 1.4464 1.6964
3558.964 1.5664 1.2464 1.0764 1.2164 1.0637 1.0429 1.2764 1.3864 1.1564 1.0457
3578.254 1.0642 0.8629 1.0578 1.2364 1.0664 1.0373 1.0764 0.8794 0.8758 0.8609
3597.544 0.6637 0.8415 1.1664 1.1764 1.1264 1.0309 1.0266 1.0064 0.9091 0.8202
3616.833 0.7114 0.8409 0.935 0.8887 0.9609 0.8931 0.8664 0.9908 0.9737 0.9633
3636.123 0.947 0.9509 1.0063 0.9312 0.8222 0.7711 0.5993 0.4436 0.4928 0.6027
3655.413 0.7309 0.7545 0.77 0.9522 0.8268 0.637 0.5601 0.5861 0.7859 0.9507
3674.703 0.8261 0.5351 0.5716 0.7702 0.7747 0.7936 0.793 0.5627 0.6167 0.9575
3693.993 0.738 0.571 0.726 0.6821 0.8356 0.8312 0.5859 0.4957 0.3613 0.1844
3713.282 0.2941 0.6607 0.6583 0.6644 0.6465 0.5046 0.8382 1.0487 0.8219 0.563
3732.572 0.5556 0.4886 0.5056 0.6069 0.6758 0.7436 0.9168 0.8881 0.4994 0.4702
3751.862 0.7111 0.6858 0.5253 0.309 0.0446 0.15486 0.3445 0.4135 0.5725 0.6723
3771.152 0.5866 0.5218 0.4552 0.5998 0.7434 0.6514 0.8513 1.034 0.8833 0.7191
3790.441 0.6 0.526 0.5728 0.7503 0.6988 0.4705 0.4848 0.3497 0.2544 0.5221
3809.731 0.5537 0.3171 0.4154 0.5017 0.15881 0 0.2254 0.173 0.07856 0.14385
3829.021 0.3274 0.5414 0.4634 0.6182 0.5311 0.4218 0.5094 0.5281 0.6935 0.6757
3848.311 0.5551 0.6326 0.5739 0.1911 0.1803 0.4219 0.3649 0.4027 0.4698 0.3582
3867.601 0.14829 0.2612 0.7701 0.7267 0.441 0.4794 0.4071 0.1928 0.3554 0.803
3886.890 0.711 0.3594 0.4708 0.6906 0.5983 0.6113 0.4755 0.3198 0.411 0.5015
3906.180 0.4696 0.3241 0.4752 0.4597 0.4389 0.4338 0.1875 0.3468 0.4969 0.2641
3925.470 0.195 0.12174 0.3416 0.5645 0.3037 0.2491 0.3501 0.7114 0.8591 0.4945
3944.760 0.3554 0.3752 0.3205 0.2107 0.2415 0.2482 0.2141 0.338 0.5805 0.5446
3964.049 0.5177 0.7811 0.9235 0.7339 0.4173 0.3055 0.3859 0.3404 0.3174 0.4517
3983.339 0.7422 1.0394 0.4935 0.0442 0.4801 0.7037 0.4945 0.3641 0.2747 0.3947
##END=
