##TITLE=trans-1-Methyl-4-isopropylcyclohexane
##JCAMP-DX=4.24
##DATA TYPE=INFRARED SPECTRUM
##ORIGIN=NIST Mass Spectrometry Data Center
##OWNER=NIST Standard Reference Data Program
Collection (C) 2018 copyright by the U.S. Secretary of Commerce
on behalf of the United States of America. All rights reserved.
##CAS REGISTRY NO=1678-82-6
##MOLFORM=C 10 H 20
##$NIST SOURCE=MSDC-IR
##SPECTROMETER/DATA SYSTEM=HP-GC/MS/IRD
##STATE=gas
##XUNITS=1/CM
##YUNITS=ABSORBANCE
##XFACTOR=1.0
##YFACTOR=0.000003800
##DELTAX=4.0
##FIRSTX=550.0
##LASTX=3846.0
##FIRSTY=0.000042
##MAXX=3846
##MINX=550
##MAXY=0.038
##MINY=0
##NPOINTS=825
##XYDATA=(X++(Y..Y))
550.0 11 35 59 81 85 60 26 22 28 26
590.0 35 38 42 38 15 6 22 21 20 31
630.0 19 3 16 31 37 44 38 45 53 28
670.0 27 32 13 6 16 33 35 29 37 48
710.0 36 24 28 32 22 17 18 37 42 40
750.0 43 31 20 19 28 21 18 27 31 21
790.0 16 24 22 29 30 33 44 38 29 23
830.0 23 33 40 43 44 52 57 70 79 72
870.0 70 73 86 105 108 105 105 103 89 82
910.0 88 91 88 94 86 79 84 87 91 97
950.0 100 98 99 109 128 159 194 215 221 209
990.0 184 158 139 130 123 112 107 112 123 127
1030.0 119 114 97 81 84 80 78 91 97 108
1070.0 131 132 145 163 173 186 200 192 161 139
1110.0 119 92 80 79 72 63 61 68 78 84
1150.0 91 108 130 148 173 192 195 184 164 133
1190.0 98 80 76 71 66 77 99 123 157 196
1230.0 222 236 226 187 153 136 128 125 113 100
1270.0 97 102 117 135 152 169 176 174 169 154
1310.0 145 141 139 144 153 161 168 175 183 196
1350.0 217 257 325 420 529 633 725 802 837 810
1390.0 723 588 431 294 212 173 161 168 183 217
1430.0 285 392 551 743 933 1113 1209 1204 1147 1064
1470.0 953 824 687 536 389 277 206 161 131 109
1510.0 93 81 75 72 70 66 57 56 54 46
1550.0 40 44 46 45 44 40 34 34 34 37
1590.0 40 37 34 35 35 36 37 37 40 36
1630.0 30 34 38 38 37 40 44 40 34 33
1670.0 35 36 35 34 36 35 31 28 30 27
1710.0 24 27 25 23 21 16 18 22 20 16
1750.0 18 20 17 15 18 20 16 15 16 14
1790.0 18 23 19 19 20 15 14 18 19 12
1830.0 11 14 13 14 13 10 12 13 9 8
1870.0 12 13 11 13 19 19 18 16 11 10
1910.0 11 12 8 7 9 14 13 6 2 3
1950.0 3 2 2 4 5 4 10 13 12 8
1990.0 7 7 1 0 3 5 5 6 4 3
2030.0 6 6 3 3 7 12 9 5 3 2
2070.0 3 6 7 9 6 5 4 5 5 0
2110.0 0 4 12 15 10 6 5 5 5 5
2150.0 2 0 6 8 10 10 7 6 8 13
2190.0 17 11 7 11 11 5 6 10 11 12
2230.0 14 15 18 20 20 16 15 18 17 17
2270.0 18 13 10 13 16 16 13 15 14 13
2310.0 13 12 13 16 19 18 20 25 25 26
2350.0 28 30 29 30 31 30 30 28 23 25
2390.0 28 29 31 33 33 35 38 35 32 33
2430.0 34 34 33 33 35 33 28 31 28 26
2470.0 25 26 28 29 26 23 26 27 27 30
2510.0 36 36 34 42 47 48 46 44 44 40
2550.0 41 46 46 53 57 58 66 67 74 82
2590.0 87 93 101 111 113 120 122 120 123 126
2630.0 127 128 131 131 128 128 132 130 133 138
2670.0 132 134 140 144 144 148 147 141 140 139
2710.0 140 147 161 173 180 185 193 192 188 186
2750.0 180 181 185 188 188 186 192 206 220 236
2790.0 257 281 305 331 360 393 431 479 540 633
2830.0 785 1031 1422 2006 2712 3370 3903 4207 4257 4296
2870.0 4447 4590 4629 4573 4409 4219 4176 4362 4808 5535
2910.0 6554 7819 9024 9777 10000 9712 8972 8091 7370 7001
2950.0 7136 7714 8128 7964 7361 6268 4848 3533 2557 1859
2990.0 1338 960 713 556 449 374 332 305 285 268
3030.0 255 247 235 219 206 193 183 177 168 163
3070.0 164 166 165 160 154 151 151 147 146 146
3110.0 140 137 143 142 140 139 138 143 149 151
3150.0 150 143 136 138 137 134 129 117 103 95
3190.0 92 86 81 81 77 66 62 58 56 52
3230.0 45 41 44 45 38 32 38 38 36 36
3270.0 33 32 34 32 30 34 37 38 39 34
3310.0 28 26 33 39 39 36 36 39 40 42
3350.0 38 38 44 42 35 33 33 31 37 38
3390.0 31 30 31 28 27 24 25 32 34 36
3430.0 34 20 14 18 19 17 22 31 32 23
3470.0 21 26 29 30 25 14 11 16 8 3
3510.0 11 11 13 15 15 16 20 20 14 8
3550.0 9 13 18 9 9 17 16 11 12 18
3590.0 23 33 32 28 28 24 17 14 17 19
3630.0 18 21 26 28 27 25 25 26 33 35
3670.0 33 33 34 34 31 32 29 29 39 48
3710.0 39 29 34 37 34 39 43 39 39 43
3750.0 37 37 33 27 31 33 35 37 33 34
3790.0 40 40 44 51 48 49 49 42 41 41
3830.0 44 56 58 53 51
##END=
