##TITLE=cis,trans,cis-1,2,3-Trimethylcyclohexane
##JCAMP-DX=4.24
##DATA TYPE=INFRARED SPECTRUM
##ORIGIN=NIST Mass Spectrometry Data Center
##OWNER=NIST Standard Reference Data Program
Collection (C) 2018 copyright by the U.S. Secretary of Commerce
on behalf of the United States of America. All rights reserved.
##CAS REGISTRY NO=1678-81-5
##MOLFORM=C 9 H 18
##$NIST SOURCE=MSDC-IR
##SPECTROMETER/DATA SYSTEM=HP-GC/MS/IRD
##STATE=gas
##XUNITS=1/CM
##YUNITS=ABSORBANCE
##XFACTOR=1.0
##YFACTOR=0.000004400
##DELTAX=4.0
##FIRSTX=550.0
##LASTX=3846.0
##FIRSTY=0.000224
##MAXX=3846
##MINX=550
##MAXY=0.044
##MINY=0
##NPOINTS=825
##XYDATA=(X++(Y..Y))
550.0 51 32 38 58 41 33 58 88 89 87
590.0 93 78 40 15 3 0 7 22 37 44
630.0 47 42 45 52 53 47 44 43 36 33
670.0 42 43 29 27 27 28 22 26 39 34
710.0 44 46 53 66 54 46 51 50 44 40
750.0 39 50 50 36 31 34 37 40 34 37
790.0 54 51 47 63 75 61 53 52 56 57
830.0 59 69 78 91 95 93 92 84 75 70
870.0 58 47 45 51 60 64 66 79 91 86
910.0 87 94 102 113 133 153 169 191 201 204
950.0 212 227 263 308 341 378 411 409 375 326
990.0 279 224 170 136 115 102 106 114 126 154
1030.0 183 218 236 226 200 174 153 134 128 130
1070.0 124 124 128 124 120 114 113 135 170 203
1110.0 226 246 260 268 276 277 272 266 257 228
1150.0 196 177 168 170 175 176 177 177 174 162
1190.0 141 122 111 102 92 88 95 103 104 103
1230.0 104 108 115 123 148 173 195 217 229 223
1270.0 205 187 175 170 168 165 171 179 173 162
1310.0 152 139 127 120 126 137 152 180 205 228
1350.0 260 295 345 423 514 655 794 827 812 785
1390.0 693 546 404 301 232 199 192 203 223 264
1430.0 342 474 633 783 976 1181 1315 1339 1260 1175
1470.0 1054 872 680 508 381 291 222 176 151 138
1510.0 118 101 93 85 76 71 69 72 74 66
1550.0 64 67 73 62 53 53 60 68 70 75
1590.0 74 79 82 84 82 78 79 77 71 72
1630.0 74 81 82 79 78 79 78 69 63 64
1670.0 67 61 54 55 51 41 45 50 44 40
1710.0 45 53 54 44 40 47 50 41 39 44
1750.0 43 40 43 46 43 41 37 32 35 38
1790.0 35 38 35 34 31 25 25 23 21 24
1830.0 28 30 29 32 32 26 25 28 26 23
1870.0 27 27 25 24 25 21 20 23 21 17
1910.0 14 15 15 14 12 9 11 14 13 7
1950.0 7 13 12 13 13 9 10 11 12 10
1990.0 13 17 16 19 19 17 16 14 14 13
2030.0 11 12 12 6 3 5 11 11 8 8
2070.0 9 13 16 12 9 9 11 11 11 11
2110.0 9 13 14 14 14 10 9 11 8 11
2150.0 13 13 12 11 13 10 9 10 12 12
2190.0 11 11 10 11 10 3 0 2 0 1
2230.0 7 8 12 9 5 8 10 10 11 11
2270.0 10 11 17 19 19 27 30 28 32 38
2310.0 41 45 52 58 55 51 53 51 48 45
2350.0 46 53 60 66 64 59 52 47 43 40
2390.0 42 43 46 45 44 46 44 39 36 33
2430.0 31 31 32 32 28 22 23 25 24 25
2470.0 28 29 28 31 39 40 40 41 37 38
2510.0 42 43 44 43 46 42 39 41 35 34
2550.0 43 45 49 61 73 81 85 89 95 100
2590.0 100 98 97 95 95 97 99 95 96 103
2630.0 111 116 115 119 118 116 118 119 120 124
2670.0 128 136 137 138 140 135 132 128 124 122
2710.0 125 134 136 141 154 161 164 171 172 168
2750.0 166 165 165 169 178 188 196 212 230 246
2790.0 266 278 295 315 336 362 389 431 486 558
2830.0 669 856 1157 1598 2175 2865 3540 4010 4585 5289
2870.0 5278 4897 4762 4571 4228 3925 3780 3776 3947 4501
2910.0 5442 6625 8015 9461 10000 9542 9037 8148 6907 5936
2950.0 5253 4842 4723 4670 4667 4770 4812 4609 4209 3745
2990.0 3137 2412 1714 1163 811 612 494 415 365 329
3030.0 305 287 270 263 255 248 245 244 247 240
3070.0 230 218 208 202 198 196 198 202 200 190
3110.0 187 188 178 178 174 163 159 153 147 147
3150.0 149 146 146 142 129 117 112 109 99 85
3190.0 79 76 67 57 55 46 46 50 52 52
3230.0 51 51 56 58 55 50 51 50 44 43
3270.0 41 46 45 37 40 39 33 33 31 27
3310.0 28 32 34 31 28 31 34 35 31 31
3350.0 27 22 29 36 29 28 31 29 34 36
3390.0 28 14 18 24 18 24 26 18 12 17
3430.0 20 24 22 15 19 27 21 21 26 31
3470.0 30 19 22 26 20 13 14 19 17 13
3510.0 10 8 8 12 15 13 16 9 2 9
3550.0 12 7 11 14 15 16 5 3 9 18
3590.0 20 17 16 13 7 5 5 13 14 12
3630.0 15 4 0 6 15 17 12 9 12 14
3670.0 19 25 18 14 17 23 22 19 15 16
3710.0 25 26 18 16 16 20 26 20 21 31
3750.0 33 25 17 20 19 16 13 8 3 6
3790.0 13 16 13 17 22 20 26 27 31 23
3830.0 10 17 22 17 22
##END=
