##TITLE=1,2,3-Trimethylcyclohexane
##JCAMP-DX=4.24
##DATA TYPE=INFRARED SPECTRUM
##ORIGIN=NIST Mass Spectrometry Data Center
##OWNER=NIST Standard Reference Data Program
Collection (C) 2018 copyright by the U.S. Secretary of Commerce
on behalf of the United States of America. All rights reserved.
##CAS REGISTRY NO=1678-97-3
##MOLFORM=C 9 H 18
##$NIST SOURCE=MSDC-IR
##SPECTROMETER/DATA SYSTEM=HP-GC/MS/IRD
##STATE=gas
##XUNITS=1/CM
##YUNITS=ABSORBANCE
##XFACTOR=1.0
##YFACTOR=0.000001900
##DELTAX=4.0
##FIRSTX=550.0
##LASTX=3846.0
##FIRSTY=0.000236
##MAXX=3846
##MINX=550
##MAXY=0.019
##MINY=0
##NPOINTS=825
##XYDATA=(X++(Y..Y))
550.0 124 62 6 56 69 67 74 85 112 73
590.0 77 89 50 68 101 97 101 69 86 145
630.0 132 108 118 103 66 24 0 24 69 74
670.0 87 49 9 56 89 95 98 78 58 67
710.0 69 58 61 60 51 65 93 90 71 71
750.0 86 86 60 50 51 52 59 50 26 40
790.0 44 40 47 49 61 69 90 105 84 93
830.0 124 122 117 101 100 104 93 95 106 106
870.0 91 96 106 92 82 62 39 45 72 90
910.0 89 104 113 112 127 142 150 151 151 156
950.0 173 173 168 177 182 189 187 182 182 167
990.0 149 152 172 167 146 157 173 191 211 205
1030.0 189 182 184 213 239 252 251 217 177 134
1070.0 98 85 71 57 56 69 86 98 94 90
1110.0 83 70 69 65 72 74 82 89 106 129
1150.0 165 178 189 204 181 151 120 78 73 86
1190.0 85 81 64 59 69 64 55 65 73 75
1230.0 75 78 87 87 91 107 105 82 68 67
1270.0 59 61 75 89 86 80 103 118 115 114
1310.0 122 128 128 128 124 137 150 146 160 186
1350.0 214 257 310 383 499 648 789 913 982 992
1390.0 886 687 494 352 250 193 173 174 200 256
1430.0 340 450 595 742 893 1054 1177 1257 1224 1105
1470.0 982 809 629 468 325 238 188 143 115 89
1510.0 81 84 63 53 61 58 43 42 47 55
1550.0 59 36 24 44 44 43 51 48 54 57
1590.0 57 57 58 58 44 49 55 53 54 44
1630.0 55 49 39 51 42 25 31 45 41 40
1670.0 28 26 30 16 10 26 23 6 16 23
1710.0 21 19 14 20 25 18 12 19 22 16
1750.0 17 24 23 24 17 13 27 31 24 20
1790.0 14 13 22 30 29 21 26 29 24 28
1830.0 22 20 24 22 18 24 27 24 26 25
1870.0 29 30 16 12 12 16 22 16 13 20
1910.0 14 15 18 21 19 14 21 17 19 29
1950.0 27 14 12 6 0 16 24 20 25 27
1990.0 18 10 20 27 23 19 23 32 31 19
2030.0 17 18 19 18 15 18 24 15 0 3
2070.0 10 12 12 10 8 10 15 9 11 19
2110.0 16 10 23 31 20 15 14 11 15 19
2150.0 24 18 21 22 16 15 17 22 26 25
2190.0 15 9 7 14 22 18 5 12 22 26
2230.0 20 20 26 29 29 28 24 21 30 36
2270.0 35 31 27 31 28 31 35 27 31 37
2310.0 36 29 33 38 33 35 41 40 28 30
2350.0 36 40 50 51 58 59 47 40 40 40
2390.0 39 47 47 39 44 50 47 43 55 58
2430.0 47 52 45 39 47 53 57 61 54 47
2470.0 55 54 55 60 54 48 48 51 59 63
2510.0 66 72 62 57 73 76 77 82 87 87
2550.0 84 84 78 80 78 87 97 85 86 109
2590.0 126 135 151 157 155 161 166 170 165 161
2630.0 159 168 177 176 175 176 187 194 196 199
2670.0 211 211 202 194 188 188 183 189 194 189
2710.0 186 197 212 218 223 221 207 211 218 212
2750.0 208 206 213 211 206 216 228 230 245 252
2790.0 255 277 293 303 328 367 407 439 473 516
2830.0 582 682 840 1108 1533 2127 2833 3569 4266 4879
2870.0 5359 5635 5822 5689 5155 4630 4164 3812 3784 4214
2910.0 5044 6148 7282 8459 9759 10000 9150 8312 7504 6770
2950.0 6376 6263 6340 6697 6709 5944 5006 4084 3192 2440
2990.0 1810 1289 924 708 571 475 416 381 340 314
3030.0 306 289 281 274 253 240 237 245 251 254
3070.0 257 259 249 239 248 253 265 259 239 224
3110.0 214 209 205 198 185 173 168 158 159 156
3150.0 154 161 155 148 157 160 154 159 153 128
3190.0 125 130 113 99 94 92 91 86 87 92
3230.0 84 77 83 89 83 81 80 70 73 76
3270.0 83 91 93 79 60 67 62 50 61 64
3310.0 68 56 49 57 54 65 68 68 70 70
3350.0 71 71 55 51 60 53 45 43 45 47
3390.0 45 26 19 39 45 48 50 42 38 42
3430.0 42 33 35 35 49 67 61 45 38 38
3470.0 42 39 38 57 57 48 42 47 48 47
3510.0 48 34 37 37 26 30 38 52 48 38
3550.0 40 43 42 40 37 39 47 27 22 39
3590.0 48 40 24 22 27 27 26 24 24 30
3630.0 24 30 32 53 48 8 7 37 43 38
3670.0 41 23 28 42 33 23 17 27 37 33
3710.0 23 27 27 26 38 43 31 39 53 34
3750.0 15 6 42 48 42 49 44 41 48 54
3790.0 37 36 23 21 44 59 58 55 41 48
3830.0 54 33 36 31 41
##END=
