##TITLE=3-Ethyl-3-hexene
##JCAMP-DX=4.24
##DATA TYPE=INFRARED SPECTRUM
##ORIGIN=NIST Mass Spectrometry Data Center
##OWNER=NIST Standard Reference Data Program
Collection (C) 2018 copyright by the U.S. Secretary of Commerce
on behalf of the United States of America. All rights reserved.
##CAS REGISTRY NO=16789-51-8
##MOLFORM=C 8 H 16
##$NIST SOURCE=MSDC-IR
##SPECTROMETER/DATA SYSTEM=HP-GC/MS/IRD
##STATE=gas
##XUNITS=1/CM
##YUNITS=ABSORBANCE
##XFACTOR=1.0
##YFACTOR=0.000002800
##DELTAX=4.0
##FIRSTX=550.0
##LASTX=3846.0
##FIRSTY=0.000283
##MAXX=3846
##MINX=550
##MAXY=0.028
##MINY=0
##NPOINTS=825
##XYDATA=(X++(Y..Y))
550.0 101 106 119 127 118 124 129 113 108 90
590.0 100 140 169 162 137 131 139 134 125 124
630.0 112 85 77 83 63 32 15 19 15 19
670.0 41 49 46 47 63 64 68 75 71 73
710.0 85 90 95 108 117 121 123 118 108 115
750.0 119 117 120 129 145 161 181 181 176 171
790.0 178 196 195 209 232 238 245 244 238 248
830.0 246 259 322 401 471 536 589 583 507 429
870.0 378 317 268 263 291 338 370 380 384 376
910.0 327 270 239 227 230 236 231 207 186 164
950.0 139 131 122 110 109 107 107 109 112 124
990.0 130 129 134 137 144 154 167 180 192 200
1030.0 211 213 218 234 251 271 287 297 303 315
1070.0 328 336 334 318 304 276 231 195 169 149
1110.0 142 139 137 139 134 127 118 98 87 84
1150.0 80 72 69 68 68 76 83 91 93 93
1190.0 98 105 98 94 90 78 70 69 72 66
1230.0 67 70 69 87 108 135 176 202 222 238
1270.0 241 240 248 266 288 324 361 385 402 411
1310.0 415 405 381 357 326 286 250 215 188 180
1350.0 183 196 230 285 349 414 483 540 561 541
1390.0 483 415 360 323 309 304 303 314 335 363
1430.0 403 466 541 637 758 900 1042 1165 1235 1223
1470.0 1143 1014 854 692 542 422 338 281 244 223
1510.0 202 184 172 155 139 130 127 123 112 106
1550.0 100 92 90 94 95 88 89 95 87 92
1590.0 93 89 88 86 90 99 108 107 105 106
1630.0 109 115 118 127 134 141 151 150 141 131
1670.0 112 98 84 76 72 75 81 82 81 80
1710.0 79 72 64 51 39 31 25 19 14 8
1750.0 8 9 0 6 14 15 15 18 23 22
1790.0 20 25 27 31 34 29 31 37 31 23
1830.0 22 21 22 22 22 26 28 25 23 24
1870.0 25 27 30 31 33 35 34 33 40 39
1910.0 34 36 35 32 28 26 23 22 26 28
1950.0 27 22 14 12 13 21 23 17 18 18
1990.0 19 21 15 11 13 13 21 26 20 19
2030.0 21 23 25 19 21 25 22 17 15 19
2070.0 21 25 26 24 26 22 18 17 18 19
2110.0 15 14 19 18 12 10 13 15 19 19
2150.0 20 21 22 16 13 17 13 14 17 16
2190.0 16 15 17 18 19 18 17 13 14 19
2230.0 19 24 26 20 18 17 16 18 24 25
2270.0 25 23 19 21 19 16 21 25 26 24
2310.0 21 26 29 23 27 26 24 31 32 35
2350.0 35 33 38 42 39 37 36 36 37 41
2390.0 50 45 41 47 46 44 42 38 38 42
2430.0 46 41 32 35 36 29 28 29 31 33
2470.0 29 36 38 33 32 36 36 33 32 33
2510.0 41 41 40 43 43 44 51 52 51 50
2550.0 56 61 66 64 59 60 57 56 55 56
2590.0 61 65 65 58 54 61 63 64 73 79
2630.0 76 78 80 79 79 76 75 76 69 66
2670.0 69 69 72 74 75 77 84 92 99 103
2710.0 106 118 140 157 172 184 191 201 204 197
2750.0 200 199 208 217 219 227 237 249 262 278
2790.0 283 294 317 343 365 393 430 472 534 614
2830.0 697 799 928 1089 1275 1498 1756 2042 2354 2685
2870.0 3070 3481 3834 4066 4182 4181 4065 3867 3676 3569
2910.0 3556 3636 3797 4046 4420 4896 5354 5685 5842 5920
2950.0 6051 6371 7116 8239 9333 10000 9907 9025 7518 5769
2990.0 4276 3201 2474 1990 1662 1426 1246 1109 1005 912
3030.0 842 785 724 658 600 553 503 458 419 383
3070.0 358 337 314 308 301 284 277 274 270 266
3110.0 258 250 246 244 234 221 219 219 212 204
3150.0 201 200 193 182 168 153 142 143 136 122
3190.0 119 111 105 100 87 75 73 73 68 69
3230.0 70 67 68 59 52 53 46 48 53 49
3270.0 53 56 46 41 40 41 44 46 42 32
3310.0 36 39 41 38 34 35 36 31 31 39
3350.0 44 39 33 35 35 36 34 32 31 37
3390.0 39 31 25 21 27 29 24 23 18 18
3430.0 18 22 31 29 28 27 34 36 32 31
3470.0 25 24 25 21 15 21 29 33 36 35
3510.0 38 28 17 19 14 21 19 12 16 17
3550.0 22 22 20 24 19 23 28 16 14 20
3590.0 20 20 18 15 20 23 25 26 33 43
3630.0 30 22 32 41 46 46 41 40 41 44
3670.0 49 39 38 52 57 57 52 49 48 46
3710.0 46 42 52 51 37 39 42 43 43 43
3750.0 54 57 53 55 52 48 44 41 38 36
3790.0 28 31 42 40 36 33 39 51 54 54
3830.0 46 45 46 40 39
##END=
