##TITLE=4-Chlorobenzoyl isothiocyanate
##JCAMP-DX=4.24
##DATA TYPE=INFRARED SPECTRUM
##ORIGIN=EPA-IR VAPOR PHASE LIBRARY
##OWNER=SRD/NIST
Collection (C) 2018 copyright by the U.S. Secretary of Commerce
on behalf of the United States of America. All rights reserved.
##CAS REGISTRY NO=16794-67-5
##MOLFORM=C 8 H 4 Cl N O S
##$NIST SOURCE=MSDC-IR
##STATE=gas
##XUNITS=1/CM
##YUNITS=ABSORBANCE
##XFACTOR=1.
##YFACTOR=0.001
##DELTAX=1.92898
##FIRSTX=549.8
##LASTX=4000.7
##FIRSTY=2.731
##MAXX=4000.7
##MINX=549.759
##MAXY=0.858431
##MINY=0
##NPOINTS=1790
##XYDATA=(X++(Y..Y))
549.759 2.731 2.861 3.041 3.501 3.931 4.531 5.211 5.731 6.451 7.431
569.049 7.871 8.771 9.561 9.841 10.071 10.201 10.381 10.671 10.871 10.671
588.339 10.701 10.731 10.741 10.961 11.021 11.141 11.461 11.511 11.641 11.911
607.628 11.991 11.981 11.821 11.791 11.811 11.641 11.771 11.521 10.981 10.771
626.918 10.461 10.061 9.741 9.671 9.601 9.681 9.951 10.521 11.161 11.731
646.208 12.041 12.281 12.411 12.151 11.901 11.551 11.121 10.611 10.711 11.381
665.498 12.451 14.061 15.911 17.801 19.821 21.701 23.371 23.701 21.971 19.821
684.787 17.841 15.651 13.421 11.431 9.941 8.791 7.951 7.381 6.961 6.631
704.077 6.251 6.011 5.771 5.681 5.881 5.831 5.751 5.871 6.081 6.311
723.367 6.671 7.131 7.451 8.191 9.301 10.881 13.361 16.691 21.041 26.751
742.657 33.541 41.291 49.611 58.311 67.831 76.611 79.791 75.731 69.581 63.971
761.947 57.701 50.741 43.681 37.341 32.111 28.431 25.911 23.641 21.941 20.511
781.236 19.521 18.651 17.661 17.021 16.571 16.341 16.581 17.001 17.491 18.001
800.526 18.301 18.551 18.651 18.551 17.861 16.411 14.851 13.211 11.541 10.091
819.816 8.671 7.421 6.501 5.921 5.451 5.071 4.851 4.741 4.641 4.551
839.106 4.911 5.111 5.041 5.341 5.721 5.831 6.021 6.591 6.991 7.411
858.395 7.821 8.271 8.651 8.671 8.541 8.361 8.181 7.961 7.831 7.871
877.685 8.051 8.481 9.261 10.601 12.601 15.211 18.381 22.451 27.081 31.751
896.975 36.201 39.541 41.631 41.961 40.011 36.561 32.001 27.061 22.461 18.241
916.265 14.751 11.931 9.951 8.471 7.111 6.271 5.891 5.361 4.871 4.621
935.555 4.331 4.251 4.201 4.081 4.011 3.971 3.951 3.881 3.891 3.841
954.844 3.741 3.841 3.901 4.041 4.261 4.171 4.321 4.561 4.491 4.591
974.134 4.841 4.981 5.281 5.521 5.681 6.111 6.381 6.871 7.791 8.871
993.424 10.161 11.971 13.811 15.391 17.051 18.651 20.691 23.091 25.391 27.821
1012.714 30.691 33.481 35.701 37.141 37.591 37.391 35.941 33.271 30.291 27.111
1032.003 24.101 20.911 17.951 15.691 13.841 12.531 11.901 11.541 10.991 11.051
1051.293 11.531 12.161 13.351 15.241 17.611 20.421 24.631 30.311 37.491 45.921
1070.583 54.031 60.721 65.751 69.261 71.541 72.391 72.951 74.771 78.601 85.391
1089.873 93.561 101.951 108.461 110.261 107.281 99.431 88.081 75.911 65.041 57.781
1109.163 53.891 52.741 54.771 58.571 63.491 69.151 74.311 78.661 82.091 83.321
1128.452 82.331 79.711 76.201 71.341 65.941 61.311 56.811 53.251 50.721 48.351
1147.742 46.841 46.261 45.851 46.021 47.011 48.471 50.281 51.781 52.351 51.901
1167.032 50.631 48.921 46.551 43.601 41.211 39.681 38.341 37.021 35.181 32.731
1186.322 30.461 28.521 26.561 25.141 24.171 23.251 22.651 22.171 22.311 23.211
1205.611 24.031 24.781 26.211 28.181 30.531 32.981 35.561 38.691 41.871 45.241
1224.901 48.901 52.531 56.131 60.411 65.761 72.351 80.881 91.941 106.811 126.351
1244.191 150.841 181.291 217.441 256.311 294.281 328.031 353.611 368.361 368.431 352.621
1263.481 325.881 294.551 265.351 242.551 227.751 220.701 218.631 218.131 215.521 208.281
1282.771 197.281 185.271 174.781 166.161 157.671 147.661 135.531 121.391 106.541 92.491
1302.060 80.311 69.931 60.881 52.971 46.021 40.151 35.201 31.041 27.601 24.751
1321.350 22.471 20.651 19.151 17.881 16.701 15.791 15.051 14.351 13.681 13.111
1340.640 12.661 12.271 11.941 11.761 11.811 11.901 12.201 12.831 13.791 15.211
1359.930 17.511 20.941 25.231 29.451 32.191 33.121 32.861 31.541 28.471 24.151
1379.219 20.251 17.681 16.281 15.571 15.311 15.341 15.691 15.971 16.181 16.501
1398.509 16.751 16.931 17.091 17.361 17.711 18.201 18.911 19.641 20.281 20.941
1417.799 21.411 21.501 21.331 21.081 20.711 20.301 20.001 19.891 19.951 20.281
1437.089 20.831 21.601 22.491 23.401 24.541 25.871 27.201 28.471 29.621 30.501
1456.378 31.081 31.431 31.561 31.571 31.541 31.431 31.361 31.251 30.951 30.591
1475.668 30.241 29.961 29.921 30.151 30.821 31.931 33.631 35.951 38.731 41.841
1494.958 45.051 48.181 50.921 53.051 54.281 54.361 53.191 50.771 47.221 42.791
1514.248 38.001 33.161 28.621 24.641 21.211 18.381 16.101 14.301 12.811 11.571
1533.538 10.581 9.901 9.381 8.911 8.641 8.561 8.661 8.801 9.021 9.451
1552.827 9.881 10.481 11.251 12.201 13.501 15.001 16.931 19.401 22.301 25.791
1572.117 30.051 35.141 40.981 47.121 53.121 58.451 62.441 64.831 65.581 65.081
1591.407 63.581 61.661 60.061 59.481 60.091 61.291 62.511 63.041 62.281 59.951
1610.697 55.811 50.221 43.861 37.081 30.661 25.171 20.771 17.381 14.811 12.871
1629.986 11.271 10.041 9.131 8.331 7.801 7.481 7.161 6.921 6.831 6.641
1649.276 6.531 6.631 6.631 6.661 6.721 6.711 6.741 6.881 6.981 6.941
1668.566 7.021 7.101 7.091 7.111 7.101 7.241 7.511 7.771 8.031 8.481
1687.856 9.111 9.921 10.911 11.931 13.111 14.331 15.581 16.981 18.361 19.581
1707.146 20.571 21.531 22.551 23.621 24.991 26.821 29.241 32.551 37.391 44.371
1726.435 54.221 68.031 87.151 112.551 145.441 183.661 220.341 247.011 259.481 263.081
1745.725 258.461 236.681 195.351 146.701 105.351 75.861 55.511 41.841 32.871 27.401
1765.015 24.301 22.541 21.491 20.781 20.261 19.761 19.101 18.301 17.381 16.351
1784.305 15.211 14.111 13.071 12.131 11.341 10.611 9.981 9.511 9.081 8.611
1803.594 8.251 7.811 7.401 7.151 6.791 6.511 6.241 5.981 5.741 5.501
1822.884 5.301 5.131 4.911 4.661 4.461 4.231 4.051 3.861 3.621 3.421
1842.174 3.321 3.221 3.061 2.981 2.931 2.871 2.831 2.801 2.761 2.821
1861.464 2.921 3.001 3.141 3.261 3.381 3.621 3.891 4.091 4.301 4.501
1880.754 4.661 4.651 4.581 4.541 4.431 4.261 3.981 3.681 3.421 3.171
1900.043 2.941 2.671 2.451 2.401 2.411 2.351 2.281 2.301 2.341 2.341
1919.333 2.381 2.411 2.431 2.541 2.601 2.731 2.941 3.051 3.281 3.561
1938.623 3.721 3.951 4.141 4.271 4.321 4.261 4.191 4.051 3.891 3.681
1957.913 3.451 3.201 2.931 2.761 2.671 2.601 2.511 2.481 2.461 2.451
1977.202 2.501 2.531 2.551 2.561 2.601 2.631 2.581 2.561 2.541 2.521
1996.492 2.451 2.371 2.351 2.401 2.421 2.381 2.381 2.371 2.361 2.361
2015.782 2.361 2.381 2.451 2.521 2.531 2.521 2.491 2.621 2.721 2.691
2035.072 2.761 2.821 2.861 2.941 2.981 3.071 3.121 3.171 3.291 3.381
2054.362 3.441 3.551 3.651 3.771 3.891 3.991 4.101 4.141 4.201 4.321
2073.651 4.491 4.581 4.631 4.721 4.841 5.081 5.271 5.411 5.681 5.951
2092.941 6.081 6.261 6.551 6.791 7.001 7.281 7.611 7.921 8.201 8.551
2112.231 8.911 9.231 9.581 9.941 10.261 10.611 11.021 11.481 11.961 12.431
2131.521 12.951 13.531 14.091 14.691 15.361 16.071 16.851 17.581 18.281 19.061
2150.810 19.791 20.621 21.401 22.071 22.881 23.731 24.621 25.611 26.801 28.221
2170.100 29.731 31.331 33.001 34.791 36.631 38.491 40.361 42.161 44.021 45.851
2189.390 47.861 50.101 52.521 55.201 58.231 61.511 65.231 69.501 74.061 78.741
2208.680 83.491 88.391 93.271 98.091 103.041 108.141 113.311 118.851 124.951 131.521
2227.970 138.831 147.121 156.481 167.151 179.371 193.561 210.151 229.511 252.081 278.391
2247.259 308.831 343.731 383.341 427.511 475.961 528.061 582.621 638.261 692.571 743.351
2266.549 788.311 824.051 847.811 858.431 855.151 836.921 805.371 761.891 709.251 650.861
2285.839 589.511 528.261 469.421 415.251 366.751 324.331 288.251 257.901 232.631 211.801
2305.129 194.851 181.021 169.791 160.671 153.171 147.011 141.621 136.971 132.821 128.841
2324.418 124.941 120.881 116.741 112.511 108.131 103.611 99.101 94.671 90.181 85.861
2343.708 81.721 77.791 74.181 70.821 67.541 64.541 61.841 59.251 56.871 54.701
2362.998 52.551 50.461 48.471 46.601 44.851 43.111 41.451 39.761 38.031 36.321
2382.288 34.611 32.821 31.021 29.301 27.691 26.201 24.751 23.311 21.881 20.661
2401.578 19.611 18.541 17.521 16.511 15.551 14.681 13.861 13.141 12.421 11.741
2420.867 11.101 10.521 9.921 9.291 8.681 8.151 7.711 7.301 6.981 6.701
2440.157 6.381 6.161 5.871 5.531 5.391 5.221 4.991 4.851 4.721 4.611
2459.447 4.481 4.281 4.111 4.021 4.001 3.931 3.851 3.691 3.481 3.471
2478.737 3.411 3.281 3.291 3.261 3.121 2.991 2.881 2.901 2.901 2.851
2498.026 2.771 2.681 2.721 2.741 2.681 2.551 2.591 2.611 2.391 2.351
2517.316 2.391 2.341 2.291 2.251 2.171 2.121 2.181 2.221 2.211 2.241
2536.606 2.271 2.351 2.321 2.221 2.251 2.251 2.091 2.001 1.961 1.921
2555.896 1.861 1.741 1.741 1.831 1.821 1.731 1.731 1.691 1.601 1.621
2575.186 1.691 1.691 1.731 1.831 1.941 1.941 1.831 1.751 1.731 1.831
2594.475 1.841 1.841 1.851 1.731 1.651 1.571 1.621 1.691 1.631 1.571
2613.765 1.581 1.561 1.521 1.511 1.491 1.441 1.411 1.491 1.611 1.681
2633.055 1.621 1.521 1.471 1.471 1.531 1.551 1.471 1.431 1.351 1.401
2652.345 1.491 1.411 1.331 1.311 1.441 1.491 1.471 1.521 1.491 1.521
2671.634 1.531 1.531 1.621 1.691 1.701 1.741 1.771 1.781 1.851 1.901
2690.924 1.891 1.931 2.021 2.061 1.991 2.051 2.191 2.231 2.281 2.241
2710.214 2.311 2.411 2.381 2.341 2.351 2.541 2.681 2.731 2.811 2.741
2729.504 2.661 2.601 2.621 2.661 2.511 2.411 2.521 2.491 2.321 2.341
2748.794 2.331 2.361 2.351 2.211 2.191 2.221 2.221 2.231 2.161 2.081
2768.083 2.081 2.011 2.031 2.201 2.241 2.201 2.131 2.051 1.991 1.901
2787.373 1.941 1.971 1.911 1.891 1.821 1.821 1.971 1.981 1.861 1.881
2806.663 1.951 1.951 2.031 2.151 2.161 2.281 2.411 2.441 2.421 2.571
2825.953 2.761 2.661 2.641 2.741 2.761 2.851 2.941 2.971 2.961 2.941
2845.242 3.061 3.101 3.171 3.261 3.281 3.431 3.681 3.951 4.211 4.301
2864.532 4.351 4.601 4.901 5.301 5.631 6.021 6.491 7.151 7.841 8.371
2883.822 8.951 9.381 9.681 9.761 9.821 9.871 9.721 9.691 9.821 10.071
2903.112 10.461 11.041 11.531 11.891 12.361 12.761 13.011 13.121 13.021 12.931
2922.401 12.921 12.991 13.111 13.301 13.961 14.901 15.971 17.341 18.941 20.581
2941.691 21.981 22.991 23.321 23.091 22.491 21.621 20.481 19.421 18.881 18.721
2960.981 19.061 19.901 21.071 22.431 23.791 25.291 27.071 29.121 31.611 34.831
2980.271 38.511 41.791 44.311 45.691 45.721 44.281 41.721 38.421 34.701 31.411
2999.561 28.611 26.271 24.181 22.151 20.361 18.821 17.361 16.051 14.821 13.581
3018.850 12.421 11.621 10.871 10.251 9.821 9.221 8.951 8.841 8.641 8.471
3038.140 8.401 8.471 8.611 8.591 8.401 8.461 8.501 8.441 8.531 8.781
3057.430 9.211 9.521 9.921 10.601 11.431 12.401 13.321 14.191 14.991 15.601
3076.720 15.681 15.221 14.651 13.871 12.901 11.981 11.051 10.031 8.931 8.011
3096.009 7.231 6.441 5.831 5.301 4.891 4.501 4.191 4.011 3.811 3.731
3115.299 3.431 3.101 3.031 2.831 2.531 2.401 2.501 2.451 2.311 2.331
3134.589 2.301 2.281 2.201 2.111 2.131 2.151 2.061 1.951 2.061 2.181
3153.879 2.191 2.261 2.481 2.491 2.501 2.611 2.581 2.691 2.731 2.731
3173.169 2.721 2.761 2.921 2.801 2.551 2.371 2.251 2.211 2.071 1.891
3192.458 1.781 1.561 1.421 1.521 1.631 1.451 1.231 1.221 1.211 1.271
3211.748 1.201 1.241 1.221 1.0273 1.1019 1.171 1.0979 0.96 0.8917 0.878
3231.038 0.8421 0.796 0.7482 0.7132 0.7186 0.6367 0.6584 0.7407 0.6987 0.711
3250.328 0.6414 0.5664 0.6559 0.6055 0.554 0.684 0.6291 0.3554 0.3702 0.6267
3269.617 0.6376 0.566 0.667 0.6292 0.4305 0.568 0.6967 0.6785 0.6729 0.7656
3288.907 0.7548 0.6933 0.8568 0.8521 0.6811 0.5732 0.7005 0.8735 0.6016 0.5002
3308.197 0.7729 0.731 0.747 0.8251 0.797 0.8558 0.8427 0.9095 0.9253 0.9287
3327.487 1.1122 1.07 0.9999 1.1229 1.191 1.391 1.501 1.511 1.511 1.501
3346.777 1.791 1.991 1.961 1.961 2.151 2.421 2.531 2.441 2.471 2.571
3366.066 2.571 2.681 2.771 2.831 2.891 2.931 3.021 3.021 3.001 3.011
3385.356 2.921 3.011 3.371 3.451 3.301 3.461 3.611 3.571 3.611 3.721
3404.646 3.771 3.851 4.051 3.951 3.911 4.221 4.511 4.561 4.321 4.261
3423.936 4.251 3.891 3.751 3.811 3.731 3.671 3.541 3.291 3.021 2.901
3443.225 2.891 2.741 2.701 2.671 2.701 2.851 2.981 3.051 3.211 3.371
3462.515 3.451 3.511 3.381 3.401 3.541 3.421 3.161 2.881 2.651 2.441
3481.805 2.171 1.941 1.831 1.731 1.601 1.641 1.741 1.741 1.761 1.631
3501.095 1.541 1.521 1.511 1.441 1.311 1.411 1.441 1.411 1.561 1.491
3520.385 1.301 1.421 1.571 1.621 1.541 1.401 1.401 1.441 1.561 1.621
3539.674 1.401 1.221 1.231 1.331 1.301 1.1499 1.291 1.201 0.9707 0.9075
3558.964 0.8926 1.0767 1.161 1.096 1.0386 1.106 1.161 1.1468 1.291 1.481
3578.254 1.291 1.231 1.301 1.351 1.531 1.481 1.361 1.401 1.401 1.241
3597.544 1.181 1.301 1.481 1.341 1.221 1.401 1.501 1.761 1.821 1.751
3616.833 1.771 1.741 1.781 1.881 1.891 1.821 1.821 1.901 2.021 2.241
3636.123 2.321 2.181 2.271 2.321 2.361 2.461 2.391 2.621 2.901 2.941
3655.413 3.001 3.131 3.251 3.271 3.271 3.381 3.561 3.571 3.731 3.851
3674.703 3.831 4.001 4.141 4.151 4.101 3.811 3.521 3.561 3.711 3.671
3693.993 3.611 3.541 3.321 3.121 2.981 2.941 2.911 2.981 3.081 2.931
3713.282 2.871 2.971 2.961 3.051 3.161 3.121 3.081 3.091 3.261 3.061
3732.572 2.921 3.011 3.061 3.071 2.731 2.761 2.911 2.901 2.851 2.661
3751.862 2.561 2.601 2.611 2.741 2.781 2.771 2.631 2.551 2.691 2.661
3771.152 2.721 2.761 2.731 2.751 2.641 2.731 2.791 2.491 2.361 2.451
3790.441 2.361 2.271 2.391 2.351 2.291 2.281 2.001 1.851 1.791 1.701
3809.731 1.681 1.551 1.451 1.501 1.541 1.581 1.441 1.191 1.391 1.451
3829.021 1.1074 1.1082 1.1504 1.1403 1.171 1.0852 1.0342 0.9509 0.9198 0.9785
3848.311 1.013 0.9615 0.9789 1.0497 1.0918 1.1486 0.9833 0.7757 0.7233 0.8215
3867.601 0.8752 0.6624 0.6493 0.7079 0.8574 0.8075 0.6354 0.7294 0.7885 0.7208
3886.890 0.6072 0.6592 0.8038 0.6849 0.6264 0.7297 0.637 0.5332 0.4281 0.395
3906.180 0.5121 0.4696 0.4602 0.3359 0.2549 0.4256 0.3353 0.4694 0.6929 0.6507
3925.470 0.4723 0.2672 0.2092 0.18996 0.1014 0.024 0 0.19767 0.4336 0.402
3944.760 0.3634 0.5224 0.5184 0.4658 0.3646 0.2549 0.4754 0.5285 0.5255 0.5687
3964.049 0.5047 0.3985 0.4257 0.5902 0.5263 0.3973 0.4789 0.5272 0.4812 0.5703
3983.339 0.6484 0.4921 0.4854 0.5347 0.5301 0.5736 0.5128 0.5543 0.4741 0.5052
##END=
