##TITLE=4-Methylbenzoyl isothiocyanate
##JCAMP-DX=4.24
##DATA TYPE=INFRARED SPECTRUM
##ORIGIN=EPA-IR VAPOR PHASE LIBRARY
##OWNER=SRD/NIST
Collection (C) 2018 copyright by the U.S. Secretary of Commerce
on behalf of the United States of America. All rights reserved.
##CAS REGISTRY NO=16794-68-6
##MOLFORM=C 9 H 7 N O S
##$NIST SOURCE=MSDC-IR
##STATE=gas
##XUNITS=1/CM
##YUNITS=ABSORBANCE
##XFACTOR=1.
##YFACTOR=0.001
##DELTAX=1.92898
##FIRSTX=549.8
##LASTX=4000.7
##FIRSTY=0.8587
##MAXX=4000.7
##MINX=549.759
##MAXY=0.336041
##MINY=0
##NPOINTS=1790
##XYDATA=(X++(Y..Y))
549.759 0.8587 1.0501 1.2284 1.461 1.541 1.2798 1.3077 1.551 1.761 2.131
569.049 2.301 2.341 2.511 2.591 3.281 4.311 5.041 5.991 7.291 9.631
588.339 12.531 15.321 18.101 20.591 22.371 23.061 22.651 21.701 20.231 18.121
607.628 16.191 14.721 13.621 12.891 12.351 12.201 12.301 12.221 12.261 12.261
626.918 11.941 11.201 10.361 9.731 8.781 7.791 7.051 6.331 5.971 5.751
646.208 5.261 4.701 4.221 3.941 4.101 4.281 4.211 4.621 5.151 5.571
665.498 6.311 6.731 6.971 7.501 8.011 8.331 8.581 8.741 8.471 8.091
684.787 7.631 6.751 6.141 5.691 5.251 5.031 4.691 4.561 4.621 4.701
704.077 4.931 5.151 5.421 5.871 6.241 6.681 7.281 8.151 9.341 11.021
723.367 13.171 15.461 17.761 19.881 21.911 24.751 27.171 26.241 23.621 21.771
742.657 20.141 18.341 16.521 14.491 12.511 11.051 10.091 9.761 10.011 10.301
761.947 10.651 11.161 11.831 12.841 14.381 16.801 20.321 25.141 31.051 36.971
781.236 41.601 43.991 43.951 42.161 38.741 33.341 27.231 22.411 20.091 20.251
800.526 21.551 22.761 22.971 22.331 20.951 19.071 16.841 14.121 11.731 10.481
819.816 10.421 10.811 11.191 12.011 13.441 14.711 15.481 15.891 16.151 16.631
839.106 16.971 17.561 19.271 21.841 25.471 30.631 37.181 45.021 53.851 63.541
858.395 72.961 80.481 85.611 88.121 87.511 83.141 76.021 67.251 57.731 49.061
877.685 41.271 34.431 29.171 25.061 21.841 19.681 18.141 16.951 16.491 16.381
896.975 16.531 16.541 16.711 17.251 17.421 17.281 17.061 16.701 16.301 15.801
916.265 15.141 14.621 14.191 13.581 12.981 12.621 12.391 12.211 12.001 11.861
935.555 11.731 11.671 11.601 11.461 11.361 11.401 11.321 11.171 11.091 11.121
954.844 11.071 11.111 11.311 11.221 11.231 11.361 11.361 11.251 11.081 10.741
974.134 10.371 9.851 9.201 8.811 8.531 8.111 7.861 7.641 7.271 7.091
993.424 6.921 6.681 6.601 6.551 6.391 6.221 6.161 6.451 7.061 8.141
1012.714 9.541 10.721 11.041 10.561 10.261 10.231 9.271 7.361 5.771 5.231
1032.003 5.361 5.621 6.051 6.471 6.691 6.951 7.641 8.731 9.771 10.641
1051.293 11.571 13.001 14.871 16.781 19.211 21.931 24.901 28.171 31.721 35.601
1070.583 39.701 43.881 47.371 49.681 51.311 51.721 50.631 48.291 44.271 38.681
1089.873 33.101 27.481 21.751 16.881 12.861 10.201 8.341 6.821 5.991 5.471
1109.163 4.931 4.431 4.041 3.841 3.981 4.351 4.291 4.191 4.321 4.641
1128.452 4.411 3.851 3.781 4.051 4.421 4.591 4.791 5.051 5.201 5.191
1147.742 5.481 5.791 6.101 6.721 7.181 7.841 8.871 10.111 12.311 15.681
1167.032 20.631 29.181 43.251 61.731 79.771 90.071 92.491 93.121 89.931 77.391
1186.322 57.531 38.471 25.981 20.521 19.101 19.891 22.431 25.911 29.731 33.671
1205.611 37.051 39.441 42.441 45.711 49.191 53.531 58.841 66.491 76.111 86.211
1224.901 95.901 105.481 114.801 122.691 128.441 132.981 137.391 142.511 149.801 159.091
1244.191 169.271 179.161 187.861 193.121 192.111 183.821 168.441 147.701 124.241 99.911
1263.481 77.171 58.811 45.921 37.231 31.061 26.681 23.441 20.811 18.761 17.191
1282.771 15.671 14.271 12.981 11.821 10.731 9.651 8.701 7.851 7.171 6.661
1302.060 6.451 6.691 7.321 7.951 8.361 8.591 8.631 8.531 7.911 6.711
1321.350 5.511 4.641 3.951 3.381 2.991 2.691 2.521 2.431 2.361 2.271
1340.640 2.211 2.281 2.441 2.581 2.791 2.971 3.151 3.301 3.281 3.271
1359.930 3.231 3.141 3.081 2.971 2.871 2.811 2.781 2.781 2.861 2.821
1379.219 2.791 2.921 3.041 3.061 3.151 3.371 3.611 3.931 4.361 4.881
1398.509 5.521 6.231 7.011 7.711 8.321 8.871 9.171 9.261 9.161 8.911
1417.799 8.501 7.951 7.341 6.771 6.271 5.801 5.371 5.031 4.711 4.421
1437.089 4.141 3.901 3.771 3.691 3.621 3.551 3.501 3.531 3.651 3.631
1456.378 3.571 3.701 3.851 3.891 4.021 4.141 4.211 4.271 4.171 4.121
1475.668 4.141 4.121 4.141 4.141 4.171 4.281 4.391 4.571 4.781 5.011
1494.958 5.261 5.471 5.661 5.851 6.021 6.101 6.121 6.131 6.101 6.021
1514.248 5.871 5.751 5.621 5.451 5.241 5.031 4.961 5.031 5.021 5.091
1533.538 5.211 5.241 5.281 5.371 5.361 5.341 5.391 5.351 5.311 5.381
1552.827 5.461 5.561 5.651 5.781 6.011 6.271 6.601 7.051 7.481 8.021
1572.117 8.541 8.931 9.261 9.401 9.591 9.731 9.791 10.091 10.571 11.301
1591.407 12.501 14.051 15.991 18.221 20.791 23.661 26.661 29.741 32.461 34.341
1610.697 35.061 34.381 32.511 29.511 25.571 21.231 17.071 13.621 11.111 9.411
1629.986 8.241 7.461 6.901 6.541 6.401 6.281 6.141 6.031 5.971 5.981
1649.276 5.971 5.971 6.051 6.021 6.071 6.221 6.261 6.361 6.551 6.761
1668.566 7.091 7.421 7.831 8.421 9.031 9.761 10.561 11.421 12.491 13.741
1687.856 15.101 16.631 18.481 20.701 23.531 27.021 31.111 36.221 42.201 49.531
1707.146 58.091 67.751 78.371 89.551 100.861 111.791 121.691 129.441 134.451 136.651
1726.435 136.221 133.341 128.011 120.531 111.071 100.531 89.591 78.531 68.091 58.491
1745.725 50.111 42.901 36.761 31.631 27.371 23.811 20.871 18.391 16.271 14.491
1765.015 13.031 11.851 10.901 10.081 9.341 8.781 8.411 8.031 7.641 7.331
1784.305 6.981 6.731 6.561 6.351 6.151 5.981 5.871 5.851 5.801 5.691
1803.594 5.611 5.481 5.271 5.071 4.891 4.701 4.531 4.441 4.391 4.351
1822.884 4.371 4.491 4.631 4.761 4.911 5.171 5.421 5.641 5.891 6.231
1842.174 6.641 7.051 7.431 7.841 8.351 8.791 9.251 9.791 10.381 10.941
1861.464 11.481 12.151 12.911 13.661 14.541 15.431 16.341 17.441 18.621 19.851
1880.754 21.231 22.751 24.281 25.891 27.651 29.481 31.491 33.671 35.991 38.511
1900.043 41.221 44.221 47.631 51.381 55.601 60.371 65.551 71.191 77.311 83.811
1919.333 90.671 97.671 104.741 111.691 118.241 124.211 129.401 133.631 136.801 138.921
1938.623 140.101 140.571 140.511 140.171 139.901 140.011 140.971 143.111 146.621 152.071
1957.913 159.591 169.281 181.341 195.761 212.561 231.541 251.931 272.791 292.851 310.551
1977.202 324.481 333.301 336.041 332.541 323.861 311.751 297.951 283.781 270.051 257.541
1996.492 246.791 238.141 231.541 226.821 223.841 222.241 221.461 221.161 221.081 220.831
2015.782 220.081 218.471 215.721 211.721 206.111 198.611 189.551 179.311 168.241 156.941
2035.072 145.781 135.231 125.551 116.671 108.601 101.151 94.081 87.431 81.161 75.221
2054.362 69.761 64.851 60.481 56.551 53.051 50.061 47.371 44.991 42.901 41.101
2073.651 39.521 38.141 36.991 35.931 35.001 34.171 33.361 32.571 31.791 31.041
2092.941 30.241 29.491 28.721 27.921 27.161 26.341 25.471 24.591 23.791 23.041
2112.231 22.211 21.441 20.761 20.051 19.391 18.881 18.401 17.921 17.611 17.351
2131.521 17.081 16.911 16.811 16.741 16.731 16.711 16.681 16.691 16.681 16.641
2150.810 16.591 16.561 16.431 16.221 16.011 15.671 15.241 14.781 14.181 13.511
2170.100 12.831 12.041 11.171 10.371 9.581 8.861 8.211 7.571 7.051 6.691
2189.390 6.251 5.861 5.671 5.491 5.321 5.121 4.901 4.791 4.741 4.551
2208.680 4.371 4.241 4.081 3.971 3.811 3.701 3.671 3.561 3.451 3.381
2227.970 3.331 3.271 3.191 3.151 3.091 3.061 3.011 2.991 3.091 3.201
2247.259 3.311 3.431 3.551 3.611 3.561 3.571 3.681 3.681 3.621 3.581
2266.549 3.391 3.271 3.201 3.031 2.931 2.801 2.661 2.661 2.691 2.731
2285.839 2.721 2.671 2.681 2.751 2.841 2.861 2.971 3.041 3.141 3.211
2305.129 3.221 3.201 3.181 3.161 3.121 3.151 3.131 3.131 3.161 3.001
2324.418 2.901 2.921 2.831 2.721 2.601 2.561 2.531 2.321 2.131 2.091
2343.708 2.031 1.901 1.741 1.651 1.651 1.581 1.591 1.591 1.511 1.511
2362.998 1.4225 1.3281 1.2746 1.2894 1.3001 1.2802 1.3436 1.3705 1.3638 1.3759
2382.288 1.3596 1.301 1.3659 1.3723 1.3189 1.3856 1.501 1.541 1.551 1.571
2401.578 1.591 1.661 1.681 1.671 1.701 1.731 1.731 1.671 1.691 1.761
2420.867 1.851 1.881 1.861 1.901 1.841 1.861 1.891 1.861 1.881 1.921
2440.157 1.961 2.031 2.071 2.051 2.151 2.201 2.191 2.261 2.281 2.181
2459.447 2.151 2.221 2.191 2.111 2.131 2.101 2.021 1.971 1.951 1.991
2478.737 2.011 2.061 2.111 2.041 1.921 1.891 1.881 1.881 1.861 1.891
2498.026 1.921 1.861 1.851 1.911 1.941 1.911 1.911 1.961 2.021 2.011
2517.316 2.021 2.041 1.971 1.971 2.001 2.001 2.051 2.021 1.991 2.051
2536.606 1.971 1.811 1.771 1.741 1.691 1.691 1.691 1.721 1.731 1.751
2555.896 1.731 1.761 1.781 1.611 1.591 1.771 1.831 1.801 1.751 1.721
2575.186 1.741 1.831 1.861 1.941 2.091 2.071 1.971 1.971 2.051 2.001
2594.475 1.961 1.991 2.031 1.991 1.931 1.881 1.841 1.931 1.971 1.981
2613.765 1.951 1.911 2.041 2.021 1.991 2.101 2.201 2.221 2.231 2.341
2633.055 2.411 2.441 2.371 2.341 2.461 2.621 2.761 2.841 2.931 3.021
2652.345 3.111 3.161 3.201 3.271 3.361 3.391 3.401 3.531 3.611 3.631
2671.634 3.691 3.681 3.531 3.451 3.261 3.071 3.021 2.931 2.761 2.601
2690.924 2.501 2.431 2.251 2.061 2.001 1.881 1.781 1.631 1.561 1.571
2710.214 1.581 1.591 1.541 1.511 1.481 1.3172 1.2966 1.451 1.4373 1.4008
2729.504 1.435 1.394 1.3498 1.3895 1.491 1.571 1.601 1.681 1.741 1.641
2748.794 1.601 1.691 1.711 1.661 1.581 1.491 1.501 1.551 1.591 1.531
2768.083 1.481 1.511 1.531 1.551 1.501 1.571 1.581 1.521 1.561 1.591
2787.373 1.571 1.491 1.501 1.561 1.541 1.551 1.521 1.471 1.501 1.521
2806.663 1.511 1.4442 1.501 1.651 1.591 1.541 1.551 1.581 1.731 1.791
2825.953 1.821 1.961 2.051 2.101 2.171 2.161 2.241 2.331 2.451 2.621
2845.242 2.601 2.611 2.681 2.771 2.921 3.031 3.111 3.261 3.481 3.591
2864.532 3.771 4.051 4.271 4.371 4.481 4.701 4.831 4.871 4.861 4.871
2883.822 4.901 4.941 4.831 4.721 4.701 4.521 4.431 4.551 4.421 4.291
2903.112 4.321 4.351 4.471 4.531 4.641 4.741 4.921 5.221 5.511 5.881
2922.401 6.431 7.081 7.731 8.491 9.121 9.591 9.961 10.011 9.761 9.301
2941.691 8.701 8.041 7.301 6.471 5.771 5.341 4.971 4.581 4.251 4.041
2960.981 3.871 3.781 3.721 3.521 3.441 3.401 3.301 3.251 3.221 3.391
2980.271 3.481 3.511 3.711 3.731 3.741 3.861 3.931 4.101 4.331 4.521
2999.561 4.711 4.901 5.081 5.191 5.261 5.441 5.431 5.341 5.341 5.191
3018.850 5.161 5.291 5.461 5.741 6.161 6.731 7.291 8.011 8.931 9.901
3038.140 10.561 10.671 10.631 10.441 9.851 9.121 8.391 7.691 7.171 6.801
3057.430 6.421 6.071 5.841 5.621 5.571 5.641 5.681 5.521 5.221 4.921
3076.720 4.621 4.361 4.121 3.891 3.751 3.741 3.771 3.821 3.691 3.451
3096.009 3.371 3.281 3.001 2.651 2.361 2.201 2.001 1.811 1.731 1.501
3115.299 1.4295 1.4499 1.351 1.3718 1.3074 1.2212 1.2325 1.1504 1.0078 0.836
3134.589 0.7245 0.6714 0.6129 0.649 0.6484 0.6415 0.725 0.6375 0.459021 0.4219
3153.879 0.3815 0.4309 0.50307 0.44208 0.46226 0.4266 0.35 0.3625 0.254 0.142
3173.169 0.122 0.109 0.213 0.274 0.313 0.341 0.3863 0.318 0.182 0.189
3192.458 0.248 0.321 0.336 0.295 0.241 0.323 0.3604 0.264 0.245 0.245
3211.748 0.171 0.164 0.241 0.245 0.241 0.246 0.3648 0.52947 0.3846 0.296
3231.038 0.329 0.3615 0.3624 0.13 0.111 0.267 0.235 0.277 0.317 0.236
3250.328 0.111 0.09 0.287 0.344 0.239 0.209 0.199 0.262 0.255 0.218
3269.617 0.291 0.221 0.117 0.147 0.266 0.18 0.066 0.168 0.209 0.215
3288.907 0.303 0.28 0.227 0.29 0.261 0.109 0.142 0.265 0.254 0.201
3308.197 0.172 0.263 0.3668 0.3565 0.265 0.29 0.3978 0.327 0.28 0.3658
3327.487 0.348 0.4155 0.47277 0.51492 0.5516 0.333 0.255 0.308 0.311 0.3728
3346.777 0.4042 0.3682 0.44644 0.5696 0.5753 0.4218 0.3561 0.453616 0.311 0.233
3366.066 0.316 0.295 0.329 0.301 0.24 0.32 0.5354 0.54483 0.46218 0.5587
3385.356 0.54025 0.456117 0.46833 0.5803 0.6697 0.6737 0.7646 0.775 0.7058 0.8438
3404.646 0.8973 0.9759 1.1304 1.2617 1.3422 1.3973 1.611 1.701 1.641 1.631
3423.936 1.631 1.621 1.661 1.721 1.631 1.651 1.681 1.611 1.491 1.2974
3443.225 1.2657 1.2806 1.2176 1.0926 1.0786 1.0663 0.9951 1.0576 1.022 0.9059
3462.515 0.8566 0.7415 0.7603 0.798 0.7513 0.7432 0.6441 0.5567 0.54312 0.4246
3481.805 0.46124 0.611 0.5685 0.3625 0.222 0.234 0.185 0.176 0.325 0.4219
3501.095 0.4002 0.4111 0.34 0.194 0.179 0.218 0.318 0.453843 0.4377 0.322
3520.385 0.223 0.271 0.3977 0.3563 0.21 0.142 0.254 0.306 0.285 0.261
3539.674 0.19 0.201 0.204 0.189 0.25 0.343 0.244 0.201 0.308 0.053
3558.964 0.05 0.165 0.016 0.055 0 0.1 0.239 0.148 0.049 0.037
3578.254 0.14 0.059 0.105 0.205 0.096 0 0.075 0.097 0.069 0.164
3597.544 0.161 0.111 0.157 0.348 0.348 0.35 0.345 0.18 0.18 0.172
3616.833 0.101 0.2 0.325 0.329 0.22 0.192 0.237 0.269 0.285 0.313
3636.123 0.3842 0.342 0.44964 0.4237 0.228 0.226 0.212 0.194 0.196 0.223
3655.413 0.281 0.4061 0.4015 0.205 0.23 0.344 0.3658 0.259 0.124 0.242
3674.703 0.335 0.229 0.297 0.303 0.256 0.319 0.226 0.178 0.333 0.3767
3693.993 0.335 0.3607 0.247 0.2 0.267 0.315 0.3724 0.4371 0.322 0.222
3713.282 0.336 0.278 0.173 0.252 0.357 0.3908 0.4125 0.385 0.303 0.3699
3732.572 0.31 0.251 0.3954 0.343 0.283 0.294 0.406 0.48597 0.333 0.296
3751.862 0.345 0.349 0.318 0.292 0.326 0.3796 0.3705 0.297 0.295 0.42
3771.152 0.453031 0.4054 0.53808 0.627 0.4244 0.333 0.3817 0.355 0.4185 0.3913
3790.441 0.3607 0.4893 0.392 0.3914 0.6261 0.6734 0.5692 0.5816 0.5923 0.6444
3809.731 0.737 0.7559 0.7222 0.7747 0.8585 0.8648 0.7948 0.7185 0.7641 0.8111
3829.021 0.9566 1.0584 1.0768 1.0336 0.9399 0.9165 0.8137 0.8422 1.0684 1.1064
3848.311 1.1276 1.204 1.1808 1.1972 1.1399 1.1303 1.2884 1.461 1.4336 1.2807
3867.601 1.3425 1.4229 1.3672 1.2894 1.3125 1.3701 1.3664 1.3574 1.2358 1.2591
3886.890 1.481 1.501 1.3849 1.3011 1.2208 1.3275 1.481 1.481 1.541 1.621
3906.180 1.4096 1.1859 1.3799 1.541 1.481 1.541 1.631 1.4165 1.2223 1.2802
3925.470 1.338 1.4143 1.511 1.438 1.4383 1.551 1.541 1.591 1.731 1.601
3944.760 1.481 1.531 1.591 1.561 1.611 1.721 1.741 1.811 1.851 1.851
3964.049 1.861 1.831 1.921 1.951 1.741 1.691 1.701 1.611 1.4136 1.2488
3983.339 1.2607 1.4353 1.481 1.4213 1.4157 1.4039 1.4264 1.471 1.4155 1.3459
##END=
