##TITLE=5-Ethyl-5-methylhydantoin
##JCAMP-DX=4.24
##DATA TYPE=INFRARED SPECTRUM
##ORIGIN=EPA-IR VAPOR PHASE LIBRARY
##OWNER=SRD/NIST
Collection (C) 2018 copyright by the U.S. Secretary of Commerce
on behalf of the United States of America. All rights reserved.
##CAS REGISTRY NO=16820-12-5
##MOLFORM=C 6 H 10 N 2 O 2
##$NIST SOURCE=MSDC-IR
##STATE=gas
##XUNITS=1/CM
##YUNITS=ABSORBANCE
##XFACTOR=1.
##YFACTOR=0.001
##DELTAX=1.92898
##FIRSTX=549.8
##LASTX=4000.7
##FIRSTY=8.609
##MAXX=4000.7
##MINX=549.759
##MAXY=0.106939
##MINY=0
##NPOINTS=1790
##XYDATA=(X++(Y..Y))
549.759 8.609 9.339 10.119 10.869 11.559 12.129 12.459 13.019 13.259 12.919
569.049 12.499 11.899 11.069 10.299 9.659 9.019 8.169 7.339 6.749 6.139
588.339 5.609 5.209 4.769 4.219 3.869 3.709 3.589 3.189 2.749 2.679
607.628 2.519 2.359 2.239 2.299 2.349 2.069 2.059 2.089 2.029 2.209
626.918 2.319 2.219 2.279 2.059 1.739 1.689 1.529 1.479 1.279 1.0632
646.208 0.8999 0.9463 1.0734 0.9211 0.6878 0.5929 0.6661 0.595 0.6387 0.8222
665.498 0.7019 0.4905 0.4757 0.4348 0.4902 0.5822 0.5931 0.7815 0.839 0.7344
684.787 0.7484 0.8462 0.8454 0.7737 0.6612 0.7667 1.0165 0.8919 0.8449 1.0367
704.077 1.1077 1.0684 1.0741 1.219 1.429 1.589 1.809 1.939 1.999 2.159
723.367 2.309 2.439 2.579 2.729 2.889 2.969 2.849 2.849 3.119 3.199
742.657 3.239 3.329 3.369 3.389 3.569 3.759 3.689 3.669 3.429 3.139
761.947 2.979 2.699 2.569 2.529 2.409 2.189 1.949 1.769 1.749 1.689
781.236 1.529 1.369 1.369 1.319 1.219 1.379 1.409 1.339 1.409 1.349
800.526 1.0523 0.9714 1.129 1.169 1.189 1.219 1.1014 1.0503 1.0664 0.9805
819.816 0.9933 0.9708 0.9338 0.6882 0.4479 0.5922 0.6186 0.6632 0.6518 0.553
839.106 0.6155 0.7466 0.6743 0.4875 0.3527 0.458 0.5571 0.4111 0.2838 0.3424
858.395 0.4452 0.4535 0.4828 0.4492 0.3442 0.4307 0.6074 0.5467 0.5782 0.6073
877.685 0.5777 0.6104 0.6708 0.7135 0.6937 0.8643 0.8904 0.862 0.9159 0.8689
896.975 0.8137 0.8362 0.8686 0.8892 0.9856 0.9543 0.9323 0.8416 0.7055 0.7152
916.265 0.6409 0.6661 0.6933 0.5688 0.6695 0.6406 0.5769 0.7442 0.8235 0.844
935.555 0.9308 1.209 1.459 1.509 1.509 1.709 1.999 2.039 1.929 1.989
954.844 2.229 2.289 2.319 2.549 2.789 3.009 3.289 3.489 3.539 3.899
974.134 4.199 4.419 4.569 4.439 4.299 4.139 4.049 3.749 3.359 3.109
993.424 2.859 2.569 2.389 2.219 2.039 2.079 2.169 2.159 2.189 2.149
1012.714 2.179 2.069 2.079 2.109 1.969 1.959 2.009 2.169 2.099 1.769
1032.003 1.669 1.789 1.789 1.649 1.619 1.359 1.0568 1.1154 1.0698 1.329
1051.293 1.409 1.169 1.259 1.209 0.9719 0.9997 1.279 1.259 1.129 1.139
1070.583 1.0255 0.9763 1.299 1.399 1.569 1.539 1.399 1.739 1.969 2.269
1089.873 2.309 2.279 2.349 2.489 2.739 2.919 3.089 3.359 3.489 3.449
1109.163 3.419 3.529 3.589 3.779 4.349 4.649 4.559 4.259 4.259 4.219
1128.452 4.029 4.079 3.809 3.569 3.599 3.259 2.889 2.739 2.429 2.409
1147.742 2.259 1.869 1.749 1.999 2.079 1.859 1.689 1.749 2.069 2.109
1167.032 1.919 1.869 1.889 1.979 2.069 2.059 2.349 2.659 2.669 2.419
1186.322 2.199 2.359 2.499 2.499 2.749 3.049 3.319 3.099 2.899 2.779
1205.611 2.819 3.229 2.929 2.879 2.809 2.589 2.729 2.829 2.979 3.189
1224.901 3.549 3.779 3.789 3.569 3.589 3.939 4.149 4.109 4.289 4.279
1244.191 3.889 3.829 3.839 3.599 3.249 3.049 3.049 2.949 2.809 2.719
1263.481 2.559 2.569 2.779 2.999 3.119 3.279 3.429 3.529 3.839 4.299
1282.771 4.659 5.029 5.499 5.959 6.299 6.619 6.959 7.209 7.369 7.459
1302.060 7.539 7.579 7.519 7.429 7.379 7.279 7.129 7.079 7.089 7.069
1321.350 7.069 7.079 7.059 7.119 7.279 7.409 7.419 7.379 7.339 7.319
1340.640 7.359 7.459 7.619 7.889 8.309 8.979 9.769 10.629 11.619 12.689
1359.930 13.739 14.709 15.559 16.189 16.549 16.569 16.329 15.989 15.509 14.849
1379.219 14.069 13.269 12.529 11.809 11.009 10.279 9.679 9.049 8.299 7.449
1398.509 6.629 5.909 5.179 4.419 3.779 3.209 2.699 2.289 1.919 1.619
1417.799 1.419 1.289 1.199 1.149 1.115 1.0743 1.0858 1.1167 1.139 1.159
1437.089 1.219 1.329 1.419 1.519 1.659 1.809 1.979 2.199 2.399 2.499
1456.378 2.619 2.759 2.799 2.759 2.799 2.789 2.609 2.419 2.229 2.029
1475.668 1.909 1.749 1.599 1.469 1.269 1.159 1.122 1.0825 1.0467 1.016
1494.958 0.928 0.9165 0.8969 0.8991 0.9381 0.8922 0.8744 0.9023 0.9096 0.8659
1514.248 0.859 0.9059 0.874 0.8527 0.8621 0.8447 0.8175 0.7728 0.7888 0.7805
1533.538 0.7627 0.7073 0.6975 0.7614 0.7299 0.6191 0.5783 0.5793 0.5227 0.4958
1552.827 0.4795 0.537 0.5637 0.5189 0.4973 0.4992 0.5199 0.472 0.3876 0.4031
1572.117 0.4768 0.459 0.3937 0.3839 0.4298 0.4412 0.3915 0.375 0.4448 0.4743
1591.407 0.4476 0.4072 0.4008 0.3857 0.3396 0.3857 0.4289 0.4476 0.4301 0.4047
1610.697 0.4052 0.4193 0.4524 0.5034 0.5652 0.513 0.4258 0.471 0.4795 0.4112
1629.986 0.4359 0.4429 0.4788 0.5253 0.5319 0.5933 0.5412 0.4442 0.5 0.5319
1649.276 0.5016 0.5399 0.5865 0.5943 0.6623 0.7509 0.7723 0.7299 0.6946 0.7189
1668.566 0.7623 0.8711 0.9169 0.9207 0.8875 0.8504 0.8955 0.9484 0.9845 1.0151
1687.856 1.129 1.219 1.239 1.309 1.369 1.409 1.509 1.589 1.639 1.739
1707.146 1.849 1.909 2.059 2.249 2.429 2.649 2.949 3.209 3.569 4.039
1726.435 4.449 4.979 5.579 6.229 7.039 7.929 8.919 10.089 11.479 13.189
1745.725 15.219 17.749 20.929 25.059 30.279 36.749 44.839 54.159 64.359 74.889
1765.015 84.549 92.679 99.179 103.959 106.939 106.929 103.169 96.589 88.689 79.769
1784.305 69.199 57.609 46.779 38.279 32.829 30.269 29.969 30.999 32.749 34.559
1803.594 36.009 37.239 38.199 38.249 36.699 33.889 30.949 27.919 24.169 19.759
1822.884 15.279 11.519 8.729 6.809 5.619 4.819 4.189 3.799 3.459 3.179
1842.174 3.039 2.929 2.749 2.569 2.469 2.359 2.229 2.089 2.019 1.969
1861.464 1.859 1.769 1.719 1.659 1.579 1.549 1.499 1.449 1.409 1.379
1880.754 1.329 1.239 1.189 1.149 1.1233 1.1105 1.0973 1.1039 1.0833 1.088
1900.043 1.0929 1.0299 1.0481 1.0962 1.0724 1.0884 1.159 1.189 1.179 1.149
1919.333 1.129 1.189 1.249 1.259 1.279 1.319 1.389 1.429 1.369 1.379
1938.623 1.399 1.429 1.449 1.409 1.439 1.459 1.409 1.339 1.299 1.299
1957.913 1.239 1.139 1.0371 0.9658 0.9593 0.8892 0.7878 0.7884 0.7607 0.6917
1977.202 0.6695 0.6286 0.5402 0.5224 0.513 0.5107 0.5518 0.5169 0.4829 0.4863
1996.492 0.4797 0.4705 0.4602 0.4771 0.4923 0.4175 0.3757 0.4325 0.4164 0.3532
2015.782 0.3618 0.3462 0.33 0.358 0.3946 0.4022 0.4001 0.4109 0.3713 0.3371
2035.072 0.3408 0.3263 0.3081 0.22597 0.19823 0.2662 0.2763 0.278 0.3206 0.3011
2054.362 0.2946 0.2755 0.22459 0.2434 0.2368 0.231 0.2439 0.2664 0.2709 0.2777
2073.651 0.2583 0.2321 0.2355 0.2545 0.2401 0.2385 0.2851 0.3065 0.3128 0.2849
2092.941 0.3081 0.3292 0.3039 0.3092 0.3008 0.2818 0.2682 0.3234 0.3422 0.27
2112.231 0.2622 0.2783 0.2555 0.20411 0.2365 0.2852 0.21377 0.1655 0.20323 0.21439
2131.521 0.22778 0.2622 0.20069 0.1712 0.19993 0.1774 0.17554 0.14667 0.12464 0.17576
2150.810 0.22642 0.22343 0.22446 0.22518 0.19321 0.18546 0.138587 0.128389 0.20922 0.18601
2170.100 0.14425 0.17507 0.21674 0.2447 0.21257 0.20032 0.20348 0.16147 0.14835 0.16752
2189.390 0.15631 0.15259 0.16778 0.21235 0.2487 0.20623 0.14533 0.15735 0.18579 0.21966
2208.680 0.2497 0.2537 0.22792 0.2053 0.19988 0.22132 0.304 0.2716 0.19796 0.18975
2227.970 0.2327 0.2326 0.22646 0.2821 0.2957 0.3281 0.2823 0.2335 0.2914 0.2512
2247.259 0.233 0.293 0.2719 0.2494 0.2574 0.2406 0.2668 0.2995 0.2549 0.21407
2266.549 0.18981 0.2613 0.3177 0.2985 0.2905 0.2507 0.2365 0.22181 0.265 0.286
2285.839 0.3142 0.2989 0.22395 0.21507 0.1832 0.17926 0.22327 0.2453 0.26 0.21943
2305.129 0.20528 0.2669 0.2517 0.2458 0.2737 0.2924 0.3186 0.316 0.2387 0.17786
2324.418 0.2723 0.2992 0.2639 0.2874 0.2656 0.2918 0.337 0.3149 0.3069 0.309
2343.708 0.308 0.2822 0.2352 0.2828 0.3309 0.2821 0.2614 0.3222 0.3101 0.2582
2362.998 0.2734 0.2921 0.2545 0.2566 0.2405 0.20141 0.2577 0.2892 0.2706 0.2922
2382.288 0.2953 0.2942 0.3243 0.3257 0.3241 0.3259 0.2442 0.2573 0.3823 0.3897
2401.578 0.3718 0.3783 0.4311 0.4638 0.4421 0.3827 0.3309 0.3622 0.4147 0.3927
2420.867 0.2842 0.2204 0.2527 0.3249 0.3676 0.3376 0.2838 0.2894 0.3169 0.2506
2440.157 0.20651 0.2306 0.21396 0.22132 0.3015 0.3701 0.3385 0.2918 0.2421 0.2392
2459.447 0.3033 0.2792 0.2411 0.2742 0.2679 0.2347 0.2787 0.3386 0.3287 0.2562
2478.737 0.21892 0.22178 0.2458 0.2811 0.2557 0.2465 0.2843 0.3148 0.3544 0.3061
2498.026 0.21237 0.18193 0.2335 0.2598 0.2366 0.2613 0.2557 0.2639 0.3091 0.3117
2517.316 0.289 0.2781 0.22317 0.21255 0.2442 0.2467 0.22312 0.2084 0.17344 0.14798
2536.606 0.22345 0.20446 0.14373 0.21991 0.2397 0.17134 0.20679 0.2554 0.16976 0.1179
2555.896 0.1452 0.20538 0.2374 0.16696 0.14617 0.2374 0.2548 0.18335 0.16364 0.18661
2575.186 0.16594 0.21849 0.2903 0.2562 0.2341 0.2461 0.3278 0.3098 0.2594 0.271
2594.475 0.2706 0.279 0.2751 0.247 0.2473 0.2928 0.326 0.3251 0.2926 0.2982
2613.765 0.3127 0.2981 0.2459 0.2117 0.2183 0.22778 0.279 0.2523 0.12742 0.16999
2633.055 0.22229 0.2296 0.2728 0.2784 0.3016 0.2332 0.2467 0.3331 0.3449 0.3454
2652.345 0.2525 0.21677 0.273 0.2553 0.2555 0.3279 0.282 0.21179 0.2416 0.22334
2671.634 0.2721 0.3788 0.2685 0.1766 0.2441 0.253 0.2348 0.22442 0.2589 0.2877
2690.924 0.2195 0.15962 0.21063 0.2998 0.3112 0.2689 0.2663 0.3235 0.3104 0.2538
2710.214 0.2764 0.2484 0.19606 0.1986 0.241 0.2457 0.2934 0.3152 0.2776 0.2546
2729.504 0.20696 0.22793 0.3001 0.2945 0.2372 0.2513 0.2571 0.2823 0.3276 0.2957
2748.794 0.2966 0.3644 0.3556 0.3286 0.3301 0.3107 0.3173 0.3202 0.278 0.2964
2768.083 0.3469 0.376 0.3152 0.3212 0.3493 0.2533 0.21362 0.20673 0.22114 0.2349
2787.373 0.2729 0.2955 0.2964 0.307 0.3246 0.3697 0.3326 0.2728 0.3096 0.3549
2806.663 0.3199 0.2447 0.2491 0.3331 0.3297 0.3392 0.3596 0.3717 0.3482 0.2685
2825.953 0.3507 0.4668 0.4288 0.3922 0.4364 0.4333 0.4106 0.4613 0.52 0.5671
2845.242 0.5906 0.5967 0.6357 0.704 0.7774 0.9088 0.9956 1.0762 1.169 1.149
2864.532 1.219 1.359 1.409 1.469 1.599 1.709 1.669 1.719 1.939 1.979
2883.822 1.959 2.149 2.269 2.259 2.319 2.319 2.369 2.359 2.289 2.289
2903.112 2.349 2.389 2.319 2.299 2.359 2.499 2.629 2.669 2.829 2.969
2922.401 3.079 3.249 3.419 3.549 3.639 3.739 3.869 3.989 4.179 4.329
2941.691 4.289 4.209 4.159 4.069 3.979 3.829 3.589 3.509 3.499 3.509
2960.981 3.539 3.659 4.049 4.459 4.869 5.329 5.899 6.479 7.079 7.689
2980.271 7.979 7.989 7.689 7.259 6.899 6.419 5.909 5.179 4.259 3.589
2999.561 3.109 2.609 2.229 1.849 1.399 1.139 1.0567 0.9391 0.7125 0.6669
3018.850 0.6192 0.5238 0.4637 0.4716 0.5622 0.6231 0.5564 0.4102 0.4314 0.3776
3038.140 0.3475 0.452 0.439 0.3437 0.4472 0.5338 0.4696 0.4006 0.3421 0.3661
3057.430 0.4761 0.5132 0.4561 0.4181 0.3586 0.3923 0.4338 0.4393 0.4793 0.4609
3076.720 0.3452 0.3577 0.5214 0.5998 0.569 0.5228 0.509 0.5215 0.5357 0.5324
3096.009 0.545 0.4793 0.4122 0.4276 0.4612 0.4597 0.5042 0.5069 0.3846 0.4178
3115.299 0.414 0.3203 0.3318 0.3822 0.4358 0.4912 0.4565 0.4013 0.3612 0.3845
3134.589 0.4029 0.3637 0.3276 0.3459 0.432 0.4653 0.6591 0.592 0.378 0.4395
3153.879 0.4455 0.4137 0.4231 0.4118 0.3885 0.4051 0.5283 0.5858 0.4608 0.3766
3173.169 0.4206 0.4514 0.3586 0.3247 0.2878 0.15183 0.20787 0.2624 0.2735 0.3025
3192.458 0.2598 0.2768 0.2753 0.3144 0.3089 0.2939 0.2743 0.3002 0.295 0.2597
3211.748 0.3341 0.2418 0.2468 0.18401 0.1397 0.2973 0.21925 0.20147 0.21513 0.17316
3231.038 0.17769 0.19161 0.2545 0.287 0.2685 0.269 0.2641 0.2709 0.3053 0.2378
3250.328 0.17777 0.17253 0.244 0.3144 0.2411 0.21621 0.2987 0.22658 0.14066 0.2468
3269.617 0.2597 0.1182 0.0583 0.2042 0.21993 0.138703 0.18728 0.20964 0.2798 0.2986
3288.907 0.20937 0.044 0.0743 0.14455 0.0889 0.18465 0.22869 0.16113 0.20177 0.1919
3308.197 0.15347 0.19644 0.0589 0 0.16772 0.2392 0.15217 0.22197 0.3463 0.3621
3327.487 0.3254 0.21787 0.15995 0.20481 0.2504 0.18253 0.0911 0.0387 0.12266 0.20179
3346.777 0.20182 0.3117 0.3381 0.2347 0.15299 0.0902 0.22489 0.2999 0.17738 0.1088
3366.066 0.0882 0.18123 0.2571 0.2317 0.18684 0.21125 0.20284 0.2359 0.259 0.2679
3385.356 0.3783 0.4394 0.3854 0.2833 0.2823 0.3249 0.3363 0.2834 0.2734 0.3366
3404.646 0.3289 0.3481 0.374 0.3676 0.3715 0.3524 0.2712 0.3132 0.4293 0.4021
3423.936 0.3619 0.3358 0.4137 0.426 0.308 0.3188 0.4816 0.6232 0.8343 0.8288
3443.225 0.777 1.041 1.419 1.649 1.899 2.369 2.689 3.199 3.839 4.599
3462.515 5.509 6.319 7.239 8.289 9.409 10.479 11.399 12.149 12.589 12.759
3481.805 12.799 12.529 11.919 11.109 10.039 8.729 7.479 6.399 5.249 4.109
3501.095 3.009 2.169 1.709 1.319 1.0739 0.9538 0.8247 0.8095 0.7269 0.553
3520.385 0.5542 0.6952 0.7928 0.8593 0.9437 0.8575 0.7984 0.724 0.6821 0.819
3539.674 0.8959 0.9435 0.8779 0.7963 0.8558 0.8852 0.8955 0.9021 0.9239 0.8881
3558.964 0.8916 0.912 0.9489 1.0023 0.8987 0.8538 0.8411 0.7316 0.7323 0.7895
3578.254 0.7208 0.6893 0.7139 0.6314 0.5556 0.6238 0.4777 0.2568 0.3238 0.3546
3597.544 0.373 0.4851 0.4962 0.4905 0.4929 0.4909 0.402 0.379 0.4475 0.4112
3616.833 0.3955 0.4272 0.3985 0.3535 0.3747 0.3854 0.4786 0.4306 0.2595 0.248
3636.123 0.2333 0.293 0.2498 0.17218 0.2368 0.277 0.2813 0.2364 0.135294 0.1152
3655.413 0.15297 0.19072 0.3225 0.2842 0.19863 0.22642 0.1884 0.0947 0.16304 0.17747
3674.703 0.11939 0.20109 0.266 0.2454 0.19193 0.2339 0.2499 0.1047 0.17109 0.2757
3693.993 0.19824 0.2632 0.16014 0.0539 0.20657 0.16302 0.102 0.2544 0.3214 0.271
3713.282 0.21929 0.14782 0.1144 0.0972 0.0755 0.2469 0.26 0.17321 0.2596 0.22817
3732.572 0.17045 0.17177 0.12295 0.15204 0.134326 0.0722 0.128347 0.2878 0.2928 0.17548
3751.862 0.2439 0.2513 0.2858 0.3984 0.307 0.18558 0.19044 0.134312 0.064 0.0926
3771.152 0.1106 0.1156 0.1058 0.12793 0.0979 0.17416 0.22425 0.20954 0.2403 0.279
3790.441 0.3136 0.2526 0.17733 0.1708 0.3028 0.231 0.1111 0.1007 0.1034 0.15385
3809.731 0.19448 0.2687 0.2297 0.19265 0.2869 0.2593 0.22374 0.16825 0.1064 0.0889
3829.021 0.17255 0.2405 0.21509 0.21853 0.2795 0.3844 0.269 0.129407 0.14156 0.0756
3848.311 0.022 0.15864 0.2607 0.2764 0.2957 0.261 0.2336 0.2326 0.20833 0.2606
3867.601 0.2856 0.16108 0.16859 0.247 0.0926 0.1097 0.20719 0.21404 0.18069 0.1037
3886.890 0.22607 0.3715 0.2545 0.1015 0.16357 0.14786 0.0799 0.1139 0.14149 0.261
3906.180 0.2917 0.2453 0.15578 0.0721 0.21707 0.2423 0.0975 0.0552 0.18518 0.2595
3925.470 0.2367 0.2702 0.2638 0.2412 0.2569 0.2726 0.21059 0.1121 0.16178 0.2575
3944.760 0.3567 0.4018 0.3218 0.3308 0.3866 0.2771 0.17514 0.2868 0.2369 0.133406
3964.049 0.18551 0.19306 0.0818 0.01 0.2308 0.2365 0.2732 0.3474 0.15635 0.15232
3983.339 0.3083 0.3097 0.20339 0.2356 0.2792 0.20572 0.20628 0.2548 0.3608 0.4207
##END=
