##TITLE=2-Methoxythiophene
##JCAMP-DX=4.24
##DATA TYPE=INFRARED SPECTRUM
##ORIGIN=NIST Mass Spectrometry Data Center
##OWNER=NIST Standard Reference Data Program
Collection (C) 2018 copyright by the U.S. Secretary of Commerce
on behalf of the United States of America. All rights reserved.
##CAS REGISTRY NO=16839-97-7
##MOLFORM=C 5 H 6 O S
##$NIST SOURCE=MSDC-IR
##SPECTROMETER/DATA SYSTEM=HP-GC/MS/IRD
##STATE=gas
##XUNITS=1/CM
##YUNITS=ABSORBANCE
##XFACTOR=1.0
##YFACTOR=0.000000700
##DELTAX=4.0
##FIRSTX=550.0
##LASTX=3846.0
##FIRSTY=0.000440
##MAXX=3846
##MINX=550
##MAXY=0.007
##MINY=0
##NPOINTS=825
##XYDATA=(X++(Y..Y))
550.0 628 894 598 610 428 424 451 402 477 516
590.0 334 226 458 471 330 314 244 179 258 370
630.0 453 555 859 1351 2063 2899 3615 4366 5319 6928
670.0 8401 7895 6317 5142 4253 3464 2703 1912 1266 953
710.0 823 787 865 922 943 843 694 674 594 479
750.0 504 500 476 583 659 745 954 1026 1043 1138
790.0 1257 1381 1434 1314 1213 1158 1131 1064 1068 1186
830.0 1421 1592 1514 1399 1436 1495 1341 959 561 330
870.0 257 181 96 81 31 18 94 124 129 98
910.0 47 16 24 115 214 228 245 293 399 459
950.0 474 496 547 669 774 892 1037 1194 1465 1782
990.0 2072 2365 2603 2779 2904 2935 2819 2671 2522 2425
1030.0 2321 2161 1961 1835 1759 1515 1273 1109 982 956
1070.0 1189 1685 1784 1713 1775 1725 1619 1315 950 782
1110.0 750 770 861 927 1114 1392 1674 2003 2457 2954
1150.0 3444 3820 4151 4569 4840 4939 5156 5496 5968 6732
1190.0 7820 8846 9525 9922 10000 9749 9260 8398 7329 6689
1230.0 6457 6244 5928 5424 4761 3989 3199 2498 1980 1622
1270.0 1386 1236 1101 966 872 801 744 682 614 594
1310.0 575 603 658 740 896 987 1077 1176 1259 1328
1350.0 1360 1327 1233 1153 1052 929 816 689 610 629
1390.0 750 967 1311 1868 2753 3937 5144 6086 6698 6965
1430.0 6885 6550 5804 4950 4506 4562 5007 5564 5916 6018
1470.0 5831 5352 4656 3814 2882 2000 1389 1077 963 1007
1510.0 1165 1506 2093 3001 4253 5660 7002 8136 8922 9151
1550.0 8791 7820 6369 4850 3506 2348 1559 1077 840 682
1590.0 613 560 450 397 355 316 310 295 285 280
1630.0 263 260 263 245 237 251 250 244 243 245
1670.0 227 215 244 246 235 230 236 236 207 193
1710.0 184 200 193 189 241 241 263 320 372 416
1750.0 397 384 413 440 418 374 289 222 208 205
1790.0 220 196 166 181 163 147 150 149 148 134
1830.0 104 86 77 70 95 84 76 99 91 109
1870.0 143 134 134 139 114 94 125 175 168 134
1910.0 127 112 130 116 101 137 165 159 115 97
1950.0 137 166 157 156 169 188 182 188 216 200
1990.0 201 202 185 166 154 183 187 141 116 122
2030.0 127 102 80 70 45 12 18 46 52 50
2070.0 45 35 25 20 12 23 51 59 50 60
2110.0 67 43 51 61 72 55 40 68 66 65
2150.0 67 83 100 78 85 100 95 91 89 109
2190.0 116 82 75 117 130 119 115 115 108 102
2230.0 93 86 118 133 82 35 42 75 95 95
2270.0 53 41 59 97 99 67 70 35 9 35
2310.0 66 64 52 67 90 65 40 34 47 46
2350.0 1 0 52 85 49 24 36 54 56 27
2390.0 22 24 54 65 31 3 15 54 80 94
2430.0 83 125 127 105 89 68 86 107 97 69
2470.0 94 101 111 136 82 51 60 9 8 59
2510.0 39 17 18 25 37 30 25 33 52 39
2550.0 24 30 35 97 86 39 45 49 68 94
2590.0 93 82 70 25 15 41 61 85 91 93
2630.0 123 112 82 95 87 47 21 63 131 117
2670.0 110 119 144 135 111 134 97 96 99 116
2710.0 131 115 115 105 87 73 83 126 140 146
2750.0 150 143 156 164 126 146 180 166 141 166
2790.0 196 232 265 250 243 368 541 623 704 826
2830.0 961 994 1040 1091 1081 1029 957 996 1012 1029
2870.0 1076 1073 1004 1000 1045 1054 1092 1170 1248 1334
2910.0 1412 1417 1465 1550 1673 1913 2235 2516 2691 2769
2950.0 2831 2872 2748 2578 2328 1983 1717 1632 1599 1455
2990.0 1399 1444 1596 1817 2001 2029 1978 1936 1747 1468
3030.0 1163 839 633 553 491 467 514 522 513 625
3070.0 784 933 1085 1071 999 1012 1039 877 717 661
3110.0 603 542 502 426 308 310 296 297 303 212
3150.0 144 180 152 128 225 199 140 112 110 102
3190.0 96 154 149 74 71 81 46 57 86 75
3230.0 5 34 171 126 105 121 72 92 77 35
3270.0 44 102 104 117 123 96 72 24 10 32
3310.0 118 143 82 44 95 194 196 183 185 160
3350.0 167 159 129 147 207 158 24 62 157 124
3390.0 89 92 118 155 124 108 118 105 138 129
3430.0 148 210 188 192 200 140 157 157 105 96
3470.0 53 88 211 271 243 191 204 244 234 156
3510.0 155 187 198 171 212 251 164 119 119 131
3550.0 139 138 106 125 82 22 168 234 194 185
3590.0 178 144 104 101 85 56 172 181 140 171
3630.0 204 191 67 133 198 139 128 89 115 152
3670.0 142 147 160 169 178 164 112 110 95 116
3710.0 150 127 188 213 207 129 17 137 149 151
3750.0 269 235 156 169 183 181 202 113 130 196
3790.0 188 172 190 254 212 175 169 215 235 210
3830.0 190 186 217 181 142
##END=
