##TITLE=4'-Aminobutyrophenone
##JCAMP-DX=4.24
##DATA TYPE=INFRARED SPECTRUM
##ORIGIN=EPA-IR VAPOR PHASE LIBRARY
##OWNER=SRD/NIST
Collection (C) 2018 copyright by the U.S. Secretary of Commerce
on behalf of the United States of America. All rights reserved.
##CAS REGISTRY NO=1688-71-7
##MOLFORM=C 10 H 13 N O
##$NIST SOURCE=MSDC-IR
##STATE=gas
##XUNITS=1/CM
##YUNITS=ABSORBANCE
##XFACTOR=1.
##YFACTOR=0.001
##DELTAX=3.85796
##FIRSTX=551.7
##LASTX=4000.7
##FIRSTY=14.5
##MAXX=4000.7
##MINX=551.688
##MAXY=0.11645
##MINY=0.0009845
##NPOINTS=895
##XYDATA=(X++(Y..Y))
551.688 14.5 15.45 16.23 16.84 17.56 18.48 19.44 20.11 19.81 18.62
590.268 17.1 15.72 14.75 14.17 13.8 13.49 13.08 12.53 12.17 12.11
628.847 12.26 12.66 13.19 13.8 14.49 15.31 16.29 17.35 18.69 20.5
667.427 22.51 24.13 24.97 24.71 23.67 22.22 20.63 19.23 18.1 17.22
706.006 16.58 16.17 15.88 15.49 14.96 14.35 13.66 12.99 12.53 12.33
744.586 12.3 12.35 12.5 12.75 12.94 13.07 13.14 13.15 13.22 13.38
783.165 13.83 14.58 15.63 17.04 18.6 20.1 21.52 23.01 24.7 26.51
821.745 28.18 29.2 28.71 26.42 22.96 19.17 15.59 12.74 10.87 9.75
860.324 9.04 8.51 8.15 7.84 7.68 7.83 8.29 9.06 9.72 9.84
898.904 9.25 8.1 6.92 6.14 5.74 5.48 5.38 5.42 5.51 5.66
937.484 5.85 6.1 6.4 6.73 7.17 7.78 8.57 9.69 11.43 14.04
976.063 17.43 20.93 23.36 23.97 22.69 19.87 16.51 13.26 10.5 8.6
1014.643 7.57 6.96 6.47 6.25 6.24 6.42 6.66 6.85 6.96 6.95
1053.222 6.79 6.59 6.6 6.68 6.71 6.78 6.8 6.98 7.36 7.78
1091.802 8.37 8.96 9.39 9.73 9.94 10.07 10.43 11.01 11.73 12.23
1130.381 12.44 12.28 11.84 11.35 11.21 11.54 12.48 14.78 19.93 31.3
1168.961 52.91 74.7 82.28 75.43 53.92 31.69 22.54 22.11 25.61 30.92
1207.540 36.68 42.11 46.11 47.51 45.87 41.64 36.36 31.82 29.05 28.1
1246.120 28.52 30.11 33.01 37.42 43.91 52.19 60.38 66.34 68.55 66.52
1284.699 60.99 52.98 43.77 35.54 29.74 26.57 25.1 24.19 23.14 21.53
1323.279 19.43 17.4 16.09 15.97 17.06 18.98 21.16 23.07 24.15 24.06
1361.859 22.75 20.27 17.1 14.03 11.53 9.77 8.66 7.9 7.38 7.09
1400.438 7.06 7.36 8.02 9.03 10.32 11.9 13.75 15.52 16.61 16.73
1439.018 15.99 14.81 13.89 13.34 12.9 12.41 11.86 11.23 10.49 9.71
1477.597 9.02 8.49 8.25 8.39 8.97 10.18 12.19 14.98 17.88 19.22
1516.177 18.47 15.87 12.52 9.95 8.53 7.89 7.64 7.62 7.84 8.35
1554.756 9.21 10.5 12.38 15.06 18.81 22.87 26.84 30.91 36.81 47.12
1593.336 63.16 81.01 93.38 96.72 93.83 92.51 100.19 111.67 116.45 108.68
1631.915 88.16 64.01 44.79 32.03 24.6 21.06 19.32 18.92 19.96 22.73
1670.495 27.97 36.59 49.29 65.01 81.11 90.96 90.57 80.01 62.13 43.22
1709.075 28.63 19.33 13.63 10.22 8.28 7.1 6.36 5.77 5.24 4.81
1747.654 4.43 4.08 3.79 3.63 3.55 3.5 3.44 3.32 3.22 3.13
1786.234 3 2.88 2.77 2.66 2.58 2.51 2.47 2.45 2.43 2.37
1824.813 2.33 2.31 2.28 2.29 2.32 2.37 2.44 2.51 2.58 2.68
1863.393 2.84 3 3.11 3.15 3.11 3 2.89 2.78 2.73 2.71
1901.972 2.69 2.7 2.71 2.75 2.81 2.84 2.84 2.82 2.74 2.61
1940.552 2.48 2.39 2.32 2.27 2.25 2.26 2.26 2.23 2.22 2.21
1979.131 2.18 2.16 2.14 2.15 2.16 2.2 2.24 2.3 2.37 2.39
2017.711 2.39 2.38 2.31 2.21 2.12 2 1.91 1.86 1.83 1.81
2056.291 1.77 1.73 1.69 1.66 1.64 1.6 1.59 1.58 1.6 1.61
2094.870 1.6 1.59 1.59 1.59 1.58 1.57 1.55 1.5 1.44 1.39
2133.450 1.33 1.29 1.27 1.23 1.2 1.2 1.21 1.21 1.23 1.24
2172.029 1.23 1.22 1.23 1.25 1.28 1.29 1.28 1.29 1.29 1.28
2210.609 1.24 1.23 1.21 1.18 1.16 1.15 1.14 1.12 1.13 1.15
2249.188 1.16 1.18 1.2 1.23 1.25 1.29 1.32 1.35 1.37 1.4
2287.768 1.43 1.47 1.52 1.55 1.58 1.6 1.61 1.56 1.51 1.47
2326.347 1.45 1.43 1.4 1.38 1.39 1.41 1.42 1.45 1.45 1.45
2364.927 1.46 1.47 1.45 1.44 1.45 1.45 1.43 1.42 1.45 1.45
2403.507 1.43 1.45 1.49 1.51 1.57 1.65 1.71 1.76 1.79 1.81
2442.086 1.81 1.73 1.62 1.57 1.53 1.48 1.43 1.36 1.29 1.22
2480.666 1.14 1.12 1.1 1.1 1.12 1.12 1.11 1.14 1.2 1.23
2519.245 1.23 1.23 1.25 1.25 1.26 1.27 1.29 1.37 1.45 1.52
2557.825 1.61 1.67 1.72 1.78 1.84 1.87 1.88 1.9 1.95 2
2596.404 2.02 2.07 2.12 2.13 2.11 2.11 2.11 2.06 2.02 1.99
2634.984 2.02 2.05 2.02 1.94 1.83 1.74 1.66 1.59 1.57 1.56
2673.563 1.56 1.55 1.51 1.5 1.5 1.48 1.49 1.51 1.51 1.49
2712.143 1.51 1.53 1.51 1.52 1.53 1.56 1.62 1.67 1.72 1.74
2750.722 1.73 1.73 1.77 1.81 1.87 1.92 1.99 2.06 2.1 2.14
2789.302 2.19 2.24 2.3 2.39 2.47 2.58 2.72 2.83 2.94 3.05
2827.882 3.15 3.29 3.44 3.63 3.93 4.32 4.79 5.38 6.2 7.3
2866.461 8.79 10.72 13.03 15.38 16.99 17.55 17.19 16.38 15.89 15.91
2905.041 16.21 16.63 17.06 17.54 18.33 19.52 21.16 23.15 25.06 26.42
2943.620 26.91 26.84 26.91 28.01 30.86 35.5 40.08 41.97 40.29 35.2
2982.200 28.62 22.8 18.29 15.1 13.1 12.01 11.4 11.06 10.83 10.7
3020.779 10.88 11.6 13.12 15.11 16.56 16.59 15.1 12.65 10.55 9.69
3059.359 9.62 9.71 9.52 8.88 7.91 6.85 6.11 5.82 5.66 5.5
3097.938 5.26 4.89 4.47 4.04 3.7 3.48 3.28 3.06 2.85 2.62
3136.518 2.39 2.26 2.17 2.14 2.09 2.01 1.93 1.83 1.78 1.76
3175.098 1.68 1.63 1.68 1.72 1.81 1.98 2.14 2.32 2.52 2.63
3213.677 2.67 2.56 2.32 2.1 1.89 1.76 1.68 1.57 1.48 1.4
3252.257 1.36 1.32 1.28 1.23 1.16 1.15 1.13 1.07 1.05 1.08
3290.836 1.08 1.1 1.11 1.1 1.11 1.14 1.16 1.18 1.21 1.28
3329.416 1.33 1.38 1.51 1.68 1.85 2.01 2.25 2.51 2.68 2.79
3367.995 2.86 2.89 2.9 2.91 3.02 3.34 3.84 4.51 5.4 6.61
3406.575 8.36 10.55 12.35 13.36 13.42 12.67 11.77 10.54 8.81 6.78
3445.154 4.84 3.5 2.76 2.39 2.27 2.3 2.42 2.58 2.8 3.11
3483.734 3.51 3.97 4.46 5 5.44 5.68 5.77 5.65 5.41 5.11
3522.314 4.84 4.53 4.1 3.54 2.96 2.45 2.04 1.72 1.51 1.37
3560.893 1.23 1.17 1.15 1.12 1.07 1.04 1.04 1.08 1.04 0.9892
3599.473 1.03 1.01 0.9845 1 1.01 1.03 1.04 1.11 1.14 1.07
3638.052 1.03 1.02 1.04 1.07 1.08 1.06 1.07 1.17 1.22 1.23
3676.632 1.19 1.16 1.18 1.16 1.12 1.12 1.12 1.11 1.12 1.12
3715.211 1.11 1.13 1.18 1.16 1.17 1.17 1.12 1.15 1.19 1.15
3753.791 1.13 1.13 1.14 1.15 1.14 1.12 1.15 1.17 1.13 1.14
3792.370 1.14 1.21 1.28 1.31 1.34 1.35 1.41 1.4 1.43 1.54
3830.950 1.67 1.78 1.95 2.11 2.18 2.21 2.12 1.9 1.72 1.6
3869.530 1.48 1.39 1.33 1.31 1.35 1.39 1.35 1.33 1.31 1.28
3908.109 1.26 1.29 1.32 1.37 1.39 1.43 1.5 1.46 1.47 1.53
3946.689 1.48 1.36 1.34 1.36 1.26 1.26 1.3 1.29 1.35 1.33
3985.268 1.3 1.28 1.29 1.31 1.33
##END=
