##TITLE=9-Hydroxyfluorene
##JCAMP-DX=4.24
##DATA TYPE=INFRARED SPECTRUM
##ORIGIN=NIST Mass Spectrometry Data Center
##OWNER=NIST Standard Reference Data Program
Collection (C) 2018 copyright by the U.S. Secretary of Commerce
on behalf of the United States of America. All rights reserved.
##CAS REGISTRY NO=1689-64-1
##MOLFORM=C 13 H 10 O
##$NIST SOURCE=MSDC-IR
##SPECTROMETER/DATA SYSTEM=HP-GC/MS/IRD
##STATE=gas
##XUNITS=1/CM
##YUNITS=ABSORBANCE
##XFACTOR=1.0
##YFACTOR=0.000002000
##DELTAX=4.0
##FIRSTX=550.0
##LASTX=3846.0
##FIRSTY=0.000178
##MAXX=3846
##MINX=550
##MAXY=0.02
##MINY=0
##NPOINTS=825
##XYDATA=(X++(Y..Y))
550.0 89 64 22 7 9 1 26 40 41 66
590.0 82 107 129 153 181 245 494 764 877 893
630.0 643 392 432 586 775 1039 1116 886 641 440
670.0 288 223 180 136 162 188 196 214 222 274
710.0 410 668 1214 2262 3932 5823 8072 10000 8499 5822
750.0 4105 2614 1915 1842 1636 1227 899 605 365 241
790.0 200 167 162 176 179 175 191 210 269 376
830.0 468 577 656 650 590 499 424 394 393 381
870.0 368 343 297 246 205 200 209 220 244 262
910.0 282 284 283 299 324 356 404 448 418 383
950.0 370 355 351 338 336 362 400 433 475 533
990.0 620 808 1129 1553 2069 2652 3220 3811 4313 4466
1030.0 4230 3627 2746 1878 1238 831 609 489 426 383
1070.0 350 327 320 333 365 431 523 601 626 598
1110.0 533 446 364 298 247 240 272 324 430 586
1150.0 703 755 730 651 653 822 1162 1671 2240 2563
1190.0 2570 2305 1754 1233 910 745 672 620 579 543
1230.0 516 498 484 457 438 447 472 496 521 555
1270.0 583 625 681 739 789 853 964 1104 1216 1254
1310.0 1188 1054 902 765 666 626 633 668 711 766
1350.0 851 960 1113 1312 1509 1649 1727 1693 1547 1352
1390.0 1111 870 675 530 420 348 323 333 373 422
1430.0 481 578 788 1220 1897 2482 2601 2276 1612 980
1470.0 718 633 563 458 331 245 193 163 151 142
1510.0 138 134 118 101 88 78 72 67 68 83
1550.0 97 112 122 142 178 226 296 396 502 585
1590.0 630 655 712 824 925 919 796 602 407 253
1630.0 165 131 127 131 129 122 112 111 114 125
1670.0 148 163 157 131 112 99 97 110 128 155
1710.0 181 199 225 276 346 401 416 404 336 238
1750.0 164 121 96 92 102 109 113 115 112 108
1790.0 119 154 194 236 254 253 232 183 137 117
1830.0 115 127 140 151 144 117 91 86 104 134
1870.0 164 170 156 135 116 117 153 201 261 300
1910.0 296 262 196 133 116 145 211 292 336 312
1950.0 242 154 76 42 35 31 24 19 18 18
1990.0 20 21 20 22 22 25 28 24 23 28
2030.0 41 40 35 36 38 37 34 34 32 28
2070.0 23 19 16 9 7 17 17 15 21 20
2110.0 16 19 13 8 11 5 0 4 6 6
2150.0 5 5 7 8 9 14 13 10 8 9
2190.0 12 13 19 26 27 27 24 13 10 11
2230.0 16 23 22 23 26 29 29 28 24 19
2270.0 16 14 12 14 23 22 23 40 48 49
2310.0 59 59 46 42 40 35 34 27 21 18
2350.0 18 18 17 9 7 10 19 25 22 24
2390.0 32 31 26 29 28 25 25 23 21 18
2430.0 16 22 26 28 32 24 22 24 19 19
2470.0 18 12 11 13 15 12 10 15 14 9
2510.0 13 16 16 21 19 22 22 20 19 17
2550.0 26 27 25 25 26 32 36 37 33 34
2590.0 42 42 38 37 41 45 43 37 35 32
2630.0 36 43 38 25 20 9 2 8 15 25
2670.0 20 14 17 18 19 19 11 6 10 13
2710.0 15 18 22 20 23 29 22 20 24 24
2750.0 28 26 24 24 24 31 42 43 48 51
2790.0 43 48 59 53 46 49 50 51 54 59
2830.0 66 71 82 98 116 150 195 254 329 388
2870.0 431 474 487 471 449 431 412 409 432 469
2910.0 505 517 494 417 309 227 167 125 106 94
2950.0 85 79 78 84 78 74 81 92 100 109
2990.0 127 157 193 248 345 481 673 926 1182 1387
3030.0 1528 1589 1632 1731 1842 1927 2024 2234 2705 3386
3070.0 3890 3927 3461 2684 1954 1480 1143 851 605 403
3110.0 276 196 133 99 83 75 67 65 67 66
3150.0 68 79 90 99 88 81 89 75 51 39
3190.0 41 42 40 27 26 31 22 19 23 17
3230.0 16 31 30 21 23 19 22 30 23 17
3270.0 19 15 4 7 16 19 22 27 22 13
3310.0 23 30 25 23 22 35 43 40 42 49
3350.0 44 43 43 35 29 28 35 41 43 45
3390.0 35 25 28 39 44 40 48 54 63 64
3430.0 62 61 48 38 44 53 57 56 50 45
3470.0 35 31 32 34 34 42 52 43 37 39
3510.0 43 47 44 48 48 53 62 54 52 53
3550.0 48 48 53 61 64 62 63 68 67 64
3590.0 71 82 94 126 185 275 425 605 831 989
3630.0 947 851 731 601 474 354 261 187 136 113
3670.0 103 88 86 90 80 73 78 77 68 59
3710.0 58 67 66 58 55 57 64 70 57 59
3750.0 77 85 83 77 76 72 71 62 57 64
3790.0 66 74 78 83 86 89 91 91 95 95
3830.0 100 96 81 84 84
##END=
