##TITLE=1,3-Di-(4-piperidyl)propane
##JCAMP-DX=4.24
##DATA TYPE=INFRARED SPECTRUM
##ORIGIN=NIST Mass Spectrometry Data Center
##OWNER=NIST Standard Reference Data Program
Collection (C) 2018 copyright by the U.S. Secretary of Commerce
on behalf of the United States of America. All rights reserved.
##CAS REGISTRY NO=16898-52-5
##MOLFORM=C 13 H 26 N 2
##$NIST SOURCE=MSDC-IR
##SPECTROMETER/DATA SYSTEM=HP-GC/MS/IRD
##STATE=gas
##XUNITS=1/CM
##YUNITS=ABSORBANCE
##XFACTOR=1.0
##YFACTOR=0.000003200
##DELTAX=4.0
##FIRSTX=550.0
##LASTX=3846.0
##FIRSTY=0.001408
##MAXX=3846
##MINX=550
##MAXY=0.032
##MINY=0
##NPOINTS=825
##XYDATA=(X++(Y..Y))
550.0 440 473 481 499 438 339 292 273 268 286
590.0 252 204 196 180 156 140 130 133 108 60
630.0 44 61 51 34 53 63 64 92 122 144
670.0 167 207 259 309 345 394 451 528 627 727
710.0 845 1002 1191 1394 1586 1766 1923 2027 2047 1988
750.0 1870 1634 1338 1054 795 622 510 422 365 317
790.0 284 271 250 220 203 185 164 145 135 116
830.0 98 88 82 84 101 100 85 84 77 69
870.0 70 78 81 58 55 65 72 69 55 60
910.0 57 42 39 47 57 56 63 78 94 116
950.0 130 144 156 156 165 189 207 211 219 230
990.0 240 259 294 319 308 261 203 170 153 146
1030.0 157 167 167 150 126 92 73 74 57 56
1070.0 62 72 113 152 180 223 276 325 380 405
1110.0 407 413 403 402 407 419 491 606 721 809
1150.0 818 727 592 466 357 280 228 208 187 162
1190.0 140 129 123 115 120 126 134 152 176 199
1230.0 200 191 185 178 194 247 285 311 325 313
1270.0 296 286 277 271 267 262 269 286 319 395
1310.0 524 698 867 937 869 713 547 440 407 414
1350.0 448 486 498 468 425 366 307 274 281 308
1390.0 303 241 167 150 159 175 202 252 336 445
1430.0 552 656 781 914 995 993 919 808 705 595
1470.0 479 349 241 168 113 70 55 48 32 8
1510.0 0 5 4 6 9 7 3 3 0 3
1550.0 10 20 24 12 9 16 20 16 10 13
1590.0 22 16 19 30 31 27 33 38 37 37
1630.0 37 44 53 61 66 77 83 78 68 52
1670.0 38 27 19 14 18 19 19 27 23 19
1710.0 22 22 22 20 16 14 11 14 17 11
1750.0 12 17 15 16 19 24 27 27 26 28
1790.0 25 28 26 25 35 45 55 54 41 27
1830.0 26 28 23 20 23 29 34 34 31 28
1870.0 34 40 38 43 45 42 43 45 46 49
1910.0 47 42 42 45 44 39 41 42 35 37
1950.0 39 35 38 39 38 34 35 43 47 42
1990.0 41 47 45 47 48 47 44 43 51 51
2030.0 49 52 52 53 49 39 37 43 45 40
2070.0 48 55 50 46 44 43 44 46 47 46
2110.0 46 43 44 45 46 48 46 49 54 49
2150.0 43 45 50 45 42 45 48 46 47 51
2190.0 51 53 51 51 50 45 47 47 43 48
2230.0 54 53 50 52 51 48 46 51 56 52
2270.0 50 47 47 52 52 53 57 63 68 66
2310.0 67 71 76 84 89 87 80 87 88 77
2350.0 74 79 91 91 88 87 81 66 61 62
2390.0 56 51 43 39 47 41 35 46 51 52
2430.0 57 64 68 63 56 59 62 61 62 63
2470.0 62 60 66 66 57 62 62 51 51 54
2510.0 61 73 68 64 64 66 72 67 65 70
2550.0 76 80 83 83 89 93 96 104 110 119
2590.0 129 141 144 147 150 161 181 189 203 215
2630.0 229 250 258 253 239 236 237 238 245 267
2670.0 289 306 325 346 360 366 366 371 371 380
2710.0 423 476 557 663 794 943 1053 1083 1030 912
2750.0 794 732 711 734 796 882 998 1128 1248 1350
2790.0 1460 1618 1862 2169 2445 2539 2402 2124 1832 1611
2830.0 1500 1537 1720 2019 2407 2801 3112 3278 3251 3069
2870.0 2786 2500 2320 2265 2319 2495 2821 3327 4028 4898
2910.0 5883 6923 7944 8892 9645 10000 9804 9236 8633 7967
2950.0 6902 5352 3727 2438 1610 1133 831 638 518 422
2990.0 341 283 241 216 200 188 177 164 158 152
3030.0 142 130 123 119 120 126 113 104 108 98
3070.0 80 77 81 79 75 75 70 76 79 71
3110.0 59 54 72 84 80 76 65 68 75 72
3150.0 77 78 66 70 80 70 72 84 82 70
3190.0 65 69 77 61 52 56 54 56 56 59
3230.0 61 55 53 63 70 69 59 49 51 56
3270.0 46 45 55 63 60 55 48 43 42 39
3310.0 46 57 63 62 68 89 94 81 58 46
3350.0 51 53 54 72 77 60 61 72 73 64
3390.0 59 60 56 52 60 54 43 37 39 63
3430.0 75 60 52 56 57 56 53 62 67 61
3470.0 49 45 54 43 38 53 50 47 54 49
3510.0 53 52 52 61 56 61 51 39 42 44
3550.0 42 48 66 61 40 45 60 64 61 48
3590.0 47 49 57 66 62 58 61 59 59 63
3630.0 55 57 70 73 79 87 73 65 73 72
3670.0 59 61 62 65 79 83 83 64 63 86
3710.0 90 80 61 56 67 68 61 54 56 79
3750.0 82 84 96 92 105 102 85 83 93 87
3790.0 81 91 81 79 79 76 78 79 73 78
3830.0 84 74 72 77 87
##END=
