##TITLE=2-(Trifluoromethyl)thioxanthen-9-one
##JCAMP-DX=4.24
##DATA TYPE=INFRARED SPECTRUM
##ORIGIN=EPA-IR VAPOR PHASE LIBRARY
##OWNER=SRD/NIST
Collection (C) 2018 copyright by the U.S. Secretary of Commerce
on behalf of the United States of America. All rights reserved.
##CAS REGISTRY NO=1693-28-3
##MOLFORM=C 14 H 7 F 3 O S
##$NIST SOURCE=MSDC-IR
##STATE=gas
##XUNITS=1/CM
##YUNITS=ABSORBANCE
##XFACTOR=1.
##YFACTOR=0.001
##DELTAX=1.92898
##FIRSTX=549.8
##LASTX=4000.7
##FIRSTY=3.41
##MAXX=4000.7
##MINX=549.759
##MAXY=0.38601
##MINY=0
##NPOINTS=1790
##XYDATA=(X++(Y..Y))
549.759 3.41 2.84 2.79 3.07 3.65 3.95 3.11 2.76 3.15 3.44
569.049 3.89 4.37 4.26 3.76 3.51 3.26 3.25 3.17 3.05 3.23
588.339 3.87 4.22 4.91 5.53 6.24 6.92 6.96 8.43 10.35 11.8
607.628 13.48 15.33 16.77 17.62 18.06 18.51 19.58 19.98 18.66 17.04
626.918 16.25 17.21 20.04 22.42 22.49 21.43 18.61 13.24 8.83 6.62
646.208 5.32 4.53 3.82 3.6 3.55 3.02 2.96 3.04 2.82 2.61
665.498 2.38 2.07 1.716 2.14 2.27 2.42 2.65 2.49 2.53 2.82
684.787 3.3 3.39 3.08 2.92 3.11 3.31 3 2.63 2.6 2.48
704.077 2.43 2.58 3.01 4.03 5.31 6.09 7.49 9.75 11.69 12.84
723.367 13.55 13.84 14.18 16.55 21.78 29.73 40.16 51.57 63.48 76.21
742.657 86.58 85.2 73.49 61.8 49.89 36.88 25.58 17.13 11.69 8.51
761.947 6.39 5.27 4.79 4.56 4.23 4.12 3.88 3.22 2.68 2.53
781.236 2.36 2.2 2.67 2.79 2.88 2.88 2.98 2.97 2.9 3.47
800.526 3.87 4.28 4.9 6.63 9.94 14.95 21.11 27.45 33.32 37.56
819.816 40.09 40.19 35.51 28.67 23.04 17.96 13.51 9.74 6.88 5.28
839.106 4.43 3.85 3.44 2.89 2.63 2.79 2.75 2.48 2.53 2.51
858.395 2.32 2.53 2.55 2.56 2.53 2.55 2.44 2.47 2.6 2.43
877.685 2.32 2.24 2.27 2.29 2.26 2.21 2.52 3.02 3.08 2.74
896.975 2.56 2.39 2.39 2.16 1.91 2.23 2.73 3 3.46 4.62
916.265 5.48 6.91 8.46 10.03 12.1 14.18 15.97 17.15 17.53 16.97
935.555 15.42 13.03 10.61 8.56 7.39 6.44 5.97 6.16 6.6 7
954.844 7.34 7.8 7.65 7.31 7.32 6.58 5.69 5.26 4.98 4.78
974.134 4.52 4.12 3.84 3.76 3.34 3.33 3.33 2.98 2.9 2.95
993.424 3.01 2.58 2.34 2.54 2.77 3 2.89 2.91 2.84 2.88
1012.714 2.81 2.33 3.18 4.42 4.73 5.37 6.71 8.78 11.96 16.52
1032.003 19.43 19.77 19.08 16.61 13.37 10.75 8.82 7.41 6.78 7.23
1051.293 7.13 7.41 8.95 9.61 10.22 10.35 11.13 14.04 16.54 18.2
1070.583 20.2 22.59 23.97 24.61 26.53 29.19 34.03 42.79 56.81 81.15
1089.873 111.33 139.8 159.47 161.75 146.12 113.65 77.63 54.55 43.15 36.73
1109.163 33.5 32.23 33.14 36.47 39.11 40.6 43.22 45.93 48.24 52.67
1128.452 59.58 68.58 79.11 92.17 109.32 130.11 156.07 185.68 215.79 244.35
1147.742 267.4 279.45 275.54 261.53 242.69 218.34 191.61 167.24 147.33 130.23
1167.032 116.88 110.19 111.49 120.29 134.77 150.37 160.34 160.81 151.51 132.24
1186.322 107.65 83.89 64.5 49.54 38.55 30.95 26.38 24.85 23.85 22.96
1205.611 22.28 22.94 23.11 23.77 24.84 24.17 25.01 27.47 27.82 26.02
1224.901 24.88 23.89 21.92 20.74 21.93 23.35 24.12 24.62 26.44 30.53
1244.191 35.06 43.38 59.41 85.61 121.1 154.55 173.24 174.27 156.39 121.8
1263.481 86.72 65.29 56.41 54.98 58.99 68.17 82.15 100.98 126.71 162.06
1282.771 210.49 268.98 326.37 368.16 386.01 377.61 343.48 298.71 259.28 226.51
1302.060 196.48 168.2 142.43 119.96 101.03 86.46 75.72 68.22 64.36 64.03
1321.350 66.92 72.9 81.54 92.95 106.72 120.92 133.59 142.97 145.9 139.64
1340.640 125.01 105.07 82.6 61.81 45.98 35.15 27.85 22.69 19.02 16.34
1359.930 14.35 12.86 11.81 10.85 9.88 9.05 8.31 7.7 7.3 6.72
1379.219 6.33 6.27 6.17 6.1 6.11 5.98 5.79 5.67 5.69 5.69
1398.509 5.82 6.47 7.06 7.62 8.52 9.26 9.64 9.89 9.97 10.13
1417.799 10.31 10.58 11.1 12.16 14.21 17.02 21 26.04 31.76 37.52
1437.089 42.5 45.24 45.12 42.13 36.49 29.79 23.91 19.76 17.2 16.24
1456.378 16.36 16.77 17.35 17.95 18.58 19.16 19.4 19.49 19.08 18.15
1475.668 16.95 15.41 13.68 11.81 9.94 8.12 6.72 5.59 4.89 4.53
1494.958 4.16 3.8 3.68 3.7 3.54 3.52 3.47 3.34 3.16 3.11
1514.248 3.37 3.26 3.04 3.24 3.53 3.81 3.93 4.16 4.42 4.51
1533.538 4.79 4.94 5.41 6.05 6.19 6.62 7.19 7.67 8.41 9.14
1552.827 9.85 10.76 11.36 11.19 11.08 11.36 11.85 12.7 13.69 14.87
1572.117 16.21 17.63 19.32 21.46 24.1 27.77 32.85 38.75 45.58 53.16
1591.407 59.97 64.59 66.17 65.16 62.87 61.2 61.7 64.84 69.6 74.16
1610.697 76.91 76.76 73.39 66.93 58.42 49.27 40.35 32.9 27.41 23.71
1629.986 21.47 20.61 20.61 21.39 22.56 23.73 24.65 25.26 25.92 26.82
1649.276 28.72 32.61 39.69 50.5 66.1 87.99 115.84 148.82 178.88 197.86
1668.566 204.96 201.53 183.73 153.55 119.21 89.75 65.83 48 35.21 26.77
1687.856 21.53 18.01 16.12 15.29 15.27 15.37 15.17 14.83 14.27 13.49
1707.146 12.31 11.12 10.31 9.59 8.73 7.77 7.07 6.36 5.89 5.51
1726.435 5.02 4.9 4.74 4.52 4.31 3.89 3.7 3.79 3.81 3.87
1745.725 3.87 3.81 3.94 4.03 3.89 3.85 3.81 3.62 3.5 3.53
1765.015 3.37 3.31 3.58 3.76 4.09 4.51 4.85 4.99 4.78 4.46
1784.305 4.13 3.64 3.35 3.23 3.09 2.99 2.91 3.01 3.03 2.93
1803.594 2.84 2.71 2.73 2.84 2.98 3.22 3.27 3.4 3.63 3.75
1822.884 3.75 3.65 3.4 3.18 3.17 3.14 3.19 3.35 3.51 3.75
1842.174 4.01 4.28 4.44 4.23 4.04 3.96 3.75 3.66 3.66 3.53
1861.464 3.38 3.4 3.15 2.78 2.69 2.62 2.52 2.31 2.23 2.35
1880.754 2.37 2.36 2.44 2.74 2.81 2.73 2.79 2.79 2.83 2.9
1900.043 3.02 3.03 2.9 3.09 3.38 3.62 4.11 4.44 4.8 5.02
1919.333 4.97 4.94 4.68 4.26 3.93 3.78 3.64 3.61 3.69 3.71
1938.623 3.5 3.23 3.19 3.32 3.18 2.79 2.7 2.91 2.9 2.84
1957.913 3.04 3.29 3.37 3.42 3.33 3.1 2.86 2.69 2.58 2.43
1977.202 2.26 2.1 2.13 2.05 1.9 1.86 1.83 1.7343 1.6844 1.645
1996.492 1.7059 1.7304 1.5745 1.4376 1.4122 1.3909 1.2899 1.3155 1.3883 1.4535
2015.782 1.4386 1.3787 1.3194 1.3486 1.443 1.4736 1.5303 1.5619 1.582 1.5455
2035.072 1.4249 1.4498 1.698 1.6889 1.5463 1.4623 1.3219 1.4164 1.5337 1.491
2054.362 1.5931 1.5887 1.4091 1.4173 1.4419 1.4471 1.5402 1.4944 1.4911 1.5742
2073.651 1.5578 1.5323 1.5394 1.5491 1.5179 1.5507 1.5488 1.4897 1.4658 1.4998
2092.941 1.4621 1.3412 1.4041 1.3926 1.4515 1.6136 1.5174 1.3744 1.435 1.5425
2112.231 1.584 1.6745 1.6215 1.586 1.4499 1.2359 1.3047 1.4043 1.4725 1.5509
2131.521 1.5196 1.4945 1.4256 1.4574 1.4334 1.4136 1.5469 1.6178 1.7642 1.7856
2150.810 1.7062 1.7231 1.6687 1.6441 1.6833 1.6341 1.6505 1.5868 1.5794 1.4705
2170.100 1.3041 1.3737 1.4574 1.4254 1.3748 1.3945 1.401 1.4174 1.5277 1.4773
2189.390 1.2519 1.3102 1.3655 1.4847 1.6968 1.5587 1.4094 1.3767 1.6123 1.93
2208.680 1.6253 1.3787 1.461 1.5286 1.7787 1.98 1.84 1.6462 1.5908 1.6188
2227.970 1.7883 1.86 1.91 1.89 1.7509 1.96 2.12 1.98 2.04 2.06
2247.259 2.05 2.09 1.92 1.87 1.92 1.92 1.99 1.86 1.7323 1.91
2266.549 2.04 2.05 2.16 2.26 2.15 2.2 2.27 2.37 2.53 2.48
2285.839 2.43 2.3 2.15 2.13 2.19 2.25 2.21 2.14 2.17 2.13
2305.129 2.01 2.15 2.2 2.09 2.02 1.89 2.02 2.1 2.17 2.35
2324.418 2.25 2.36 2.57 2.45 2.43 2.56 2.76 2.8 2.61 2.46
2343.708 2.43 2.28 2.03 2.1 2.23 2.14 1.99 1.92 2.12 2.25
2362.998 2.1 1.93 1.93 2.09 2.17 2.1 1.95 1.84 1.7672 1.7391
2382.288 1.7307 1.83 1.9 1.89 1.86 1.7946 1.87 1.7653 1.6711 1.7095
2401.578 1.7005 1.7047 1.86 1.89 1.7258 1.7146 1.83 1.84 1.83 1.8139
2420.867 1.6018 1.5299 1.476 1.4459 1.4717 1.3882 1.3904 1.4054 1.4843 1.6251
2440.157 1.5363 1.421 1.4653 1.4457 1.3848 1.3737 1.487 1.5261 1.3566 1.2272
2459.447 1.4865 1.5514 1.2901 1.5288 1.5749 1.296 1.1342 1.2871 1.5932 1.4922
2478.737 1.5136 1.5987 1.4469 1.4784 1.4455 1.3557 1.424 1.3813 1.2711 1.2235
2498.026 1.3832 1.446 1.4572 1.5238 1.5161 1.5172 1.4248 1.2031 1.1018 1.3254
2517.316 1.4884 1.5053 1.3762 1.3565 1.335 1.2233 1.4639 1.6819 1.6266 1.4526
2536.606 1.4471 1.4845 1.4739 1.2603 1.2327 1.4045 1.5458 1.5736 1.4618 1.4554
2555.896 1.3616 1.4571 1.83 1.98 1.6738 1.5912 1.7372 1.8155 1.91 1.7875
2575.186 1.7338 1.84 1.83 1.6797 1.6966 1.94 2.05 2.01 2.07 2.19
2594.475 2.07 1.84 1.8185 1.86 1.8092 1.92 1.7855 1.5528 1.5493 1.6943
2613.765 1.6355 1.5988 1.6084 1.5809 1.6007 1.6642 1.82 1.751 1.6498 1.7129
2633.055 1.89 1.7675 1.5633 1.4695 1.4666 1.4295 1.501 1.7388 1.7271 1.4873
2652.345 1.494 1.606 1.559 1.5015 1.5438 1.6416 1.6617 1.8156 1.7932 1.6443
2671.634 1.7394 1.7173 1.7207 1.89 1.83 1.6472 1.737 1.6528 1.5677 1.5235
2690.924 1.3096 1.3349 1.6066 1.84 1.7196 1.4957 1.6177 1.5686 1.5964 1.688
2710.214 1.4144 1.4247 1.417 1.3074 1.5209 1.5513 1.3472 1.3996 1.2714 1.2675
2729.504 1.533 1.4889 1.5848 1.83 1.5873 1.4599 1.4291 1.3088 1.3906 1.4514
2748.794 1.424 1.3761 1.6002 1.6645 1.5966 1.557 1.3462 1.3862 1.6707 1.637
2768.083 1.5059 1.4371 1.2815 1.2175 1.1999 1.172 1.0914 0.9486 0.9888 1.2338
2787.373 1.458 1.2372 0.89963 1.2543 1.4643 1.5017 1.4427 1.096 1.2528 1.0477
2806.663 1.0529 1.5283 1.2714 1.023 0.9287 0.9416 1.0404 1.1979 1.3554 1.4893
2825.953 1.4121 1.3372 1.4357 1.4442 1.1706 0.826386 1.1203 1.2212 1.1678 1.3135
2845.242 1.1799 1.2983 1.5989 1.6436 1.501 1.0644 0.9762 1.1661 1.1261 1.3099
2864.532 1.576 1.7954 1.5418 1.5595 1.85 1.5836 1.7004 1.8193 1.7092 1.6314
2883.822 1.4245 1.2562 1.4813 1.4359 1.2569 1.3228 1.5248 1.5406 1.2689 1.1741
2903.112 0.91652 0.8051 0.9774 1.1414 1.3491 1.4009 1.721 1.5311 1.0259 1.1122
2922.401 1.1371 1.4149 1.42 1.5055 1.6367 1.6852 1.86 1.5267 1.1619 1.5906
2941.691 1.98 1.6766 1.3968 1.486 1.5423 1.3284 1.1676 1.1872 1.5626 1.7452
2960.981 1.5826 1.6282 1.7551 1.615 1.6416 1.7294 1.5638 1.6722 1.6489 1.4658
2980.271 1.5573 1.5005 1.6155 1.93 1.7955 1.7648 1.5539 1.3636 1.4814 1.3463
2999.561 1.4469 1.6099 2.08 2.48 2.53 2.57 2.42 2.66 2.74 2.52
3018.850 2.46 2.43 2.5 2.39 2.53 2.63 2.34 2.3 2.7 2.47
3038.140 2.19 2.38 2.58 3.22 3.47 3.69 4.3 5 5.91 7.57
3057.430 9.79 12.23 14.97 17.13 19.14 20.83 22.38 24.05 25.27 25.96
3076.720 25.08 22.42 18.74 14.57 10.46 7.87 6.57 5.41 4.8 4.22
3096.009 3.55 3.62 3.66 3.28 2.87 3.08 3.32 3.06 3.15 3.44
3115.299 3.35 2.86 2.49 2.53 2.28 1.93 1.96 1.85 2.15 2.1
3134.589 1.5607 1.7187 1.6904 1.4182 1.5235 1.8092 1.7526 1.5201 1.4518 1.3529
3153.879 1.3522 1.6688 1.6429 1.4425 1.5888 1.3088 1.2172 1.5213 1.5189 1.42
3173.169 1.4144 1.1335 0.9259 1.142 1.6427 1.97 1.5505 1.1105 1.2805 1.2064
3192.458 0.81185 0.9993 1.3152 1.337 1.0353 0.682 0.91476 1.2671 1.098 1.0016
3211.748 1.1508 1.1329 1.1779 1.2049 1.1745 1.1362 0.8586 1.0776 1.0192 0.7828
3231.038 1.3539 1.4367 1.1426 1.2184 1.1422 0.89661 0.7234 0.9194 1.1913 1.3285
3250.328 1.5186 1.5887 1.4463 1.0503 0.85669 0.7964 1.0537 1.2133 1.1859 1.3114
3269.617 1.4667 1.4141 1.5162 1.5672 1.3104 1.3039 1.4365 1.5773 1.4619 1.5114
3288.907 1.3819 1.0601 0.702 0.8024 1.0772 1.0879 1.2652 1.6359 1.7974 1.7475
3308.197 2.01 2.36 2.19 2.17 2.9 3.22 2.87 2.68 2.99 3.3
3327.487 3.01 2.38 2.28 2.21 1.7968 1.4713 1.4226 1.2026 1.1159 1.5598
3346.777 1.4061 0.8326 0.703 0.8011 0.757 0.7921 0.762 0.796 1.0455 0.8015
3366.066 0.518 0.7474 0.86473 0.829905 1.0845 1.1472 0.91087 0.9514 1.2339 1.3125
3385.356 0.87995 0.582 0.554 0.83778 0.827077 0.84734 1.3639 1.0383 0.446 0.61
3404.646 1.0248 0.9559 0.83025 1.1499 1.2293 0.7842 0.638 1.0395 1.1086 1.1514
3423.936 0.7982 0.629 1.0984 0.7854 0.613 0.528 0.711 0.9967 0.84322 0.7749
3443.225 0.9651 1.2325 1.148 0.85304 0.792 0.9251 0.709 0.663 1.1984 1.2257
3462.515 1.1862 1.1993 1.0503 0.9963 0.8003 0.7447 0.9655 0.7573 0.565 1.2222
3481.805 1.4504 0.9393 0.621 0.575 0.599 0.67 1.0744 1.5308 1.3407 0.962
3501.095 0.7707 0.7516 0.685 0.7647 1.0928 1.0406 0.7951 0.9961 1.3898 1.0123
3520.385 0.87413 1.0938 0.9943 1.0722 0.7687 0.86126 1.4085 1.4525 0.90172 0.88484
3539.674 1.0577 0.7563 0.591 0.7663 0.8052 0.84751 0.9279 0.7249 0.968 1.248
3558.964 0.7754 0.521 0.555 0.518 0.83228 1.0575 0.9664 0.649 0.484 0.499
3578.254 0.7662 1.1679 1.0633 0.9721 0.8093 0.687 1.1547 0.7968 0.206 0.576
3597.544 0.9992 0.84602 0.621 0.382 0 0.276 0.7524 0.84338 1.0583 1.1807
3616.833 1.0279 0.7381 0.509 0.477 0.7282 0.90998 1.0435 1.2591 1.1582 0.583
3636.123 0.579 0.9782 0.555 0.7412 0.89521 0.6 0.853 0.83971 1.0122 1.3849
3655.413 1.1052 0.88407 0.9345 0.9644 1.0834 1.2058 1.0134 1.0432 1.1707 1.0857
3674.703 1.0188 0.677 0.619 0.738 0.88649 0.85747 0.61 0.7576 1.0489 0.9906
3693.993 1.1092 1.3903 1.5376 1.6227 1.6378 1.6426 1.4141 1.0493 1.0269 1.0074
3713.282 1.2408 1.2891 0.69 0.7866 1.4389 1.91 1.7136 1.3392 1.0721 0.84525
3732.572 1.0653 1.5267 1.1445 0.445 0.7525 0.90817 0.9905 1.4338 1.4335 1.5023
3751.862 1.396 0.87589 0.89799 1.3245 1.0876 0.81235 1.0608 0.90003 0.85429 1.271
3771.152 1.3154 1.0105 1.4897 1.6759 0.9604 0.9051 1.1658 0.9474 0.89862 0.7513
3790.441 0.88014 1.2624 1.2472 0.7456 0.453 0.7576 0.86367 1.1331 0.9702 0.9362
3809.731 1.1662 1.3406 1.6721 1.6156 1.4164 1.1282 1.0275 1.6455 1.5777 0.91184
3829.021 0.88158 0.9702 0.91907 0.9258 0.9267 1.1428 1.0745 1.323 1.435 1.0383
3848.311 0.85746 0.609 0.9322 1.2537 0.694 0.7289 1.4864 1.2684 0.86287 0.88182
3867.601 0.9738 1.1686 0.9532 0.7266 1.01 1.1414 0.8046 0.9372 1.2703 1.006
3886.890 0.665 0.7698 0.7356 0.557 0.596 0.57 0.751 0.90499 1.0198 1.1596
3906.180 0.88605 1.0223 0.84262 0.306 0.604 1.2327 1.4741 1.1241 0.91051 0.9381
3925.470 0.89089 0.81344 0.54 0.477 0.7304 0.501 0.307 0.7478 0.567 0.163
3944.760 0.345 0.413 0.192 0.317 0.718 0.8037 0.83914 0.518 0.37 0.321
3964.049 0.58 0.88415 0.7631 0.765 0.685 0.582 0.577 0.627 0.87396 0.689
3983.339 0.502 1.034 1.2459 0.86818 0.90086 1.0645 0.89749 1.0412 1.0334 0.9296
##END=
