##TITLE=2,6-Dimethoxybenzonitrile
##JCAMP-DX=4.24
##DATA TYPE=INFRARED SPECTRUM
##ORIGIN=EPA-IR VAPOR PHASE LIBRARY
##OWNER=SRD/NIST
Collection (C) 2018 copyright by the U.S. Secretary of Commerce
on behalf of the United States of America. All rights reserved.
##CAS REGISTRY NO=16932-49-3
##MOLFORM=C 9 H 9 N O 2
##$NIST SOURCE=MSDC-IR
##STATE=gas
##XUNITS=1/CM
##YUNITS=ABSORBANCE
##XFACTOR=1.
##YFACTOR=0.001
##DELTAX=1.92934
##FIRSTX=549.9
##LASTX=3999.5
##FIRSTY=1.062
##MAXX=3999.53
##MINX=549.863
##MAXY=0.01273
##MINY=0
##NPOINTS=1789
##XYDATA=(X++(Y..Y))
549.863 1.062 1.016 1.1 0.975 1.071 1.26747 1.1446 1.208 1.29267 1.1453
569.156 0.958 0.941 1.1542 1.1728 1.1252 1.1782 1.1551 1.25062 1.1937 0.975
588.450 1.066 1.22936 1.3498 1.3697 1.3502 1.4029 1.4318 1.31488 1.21342 1.1833
607.743 1.1995 1.22119 1.2059 1.1434 1.1486 1.25436 1.3312 1.3764 1.42 1.445
627.037 1.4307 1.5099 1.4414 1.339 1.30224 1.3485 1.3994 1.3601 1.3636 1.30274
646.330 1.31766 1.4067 1.4285 1.4763 1.4691 1.4195 1.4546 1.4188 1.3985 1.3773
665.624 1.3986 1.3589 1.3385 1.4711 1.5322 1.5231 1.4205 1.4214 1.4494 1.332
684.917 1.3331 1.2999 1.1864 1.2019 1.25514 1.28166 1.3313 1.3351 1.28717 1.26016
704.210 1.3981 1.5577 1.626 1.6923 1.8458 2.0214 2.1848 2.45 2.63 2.74
723.504 2.93 2.99 2.93 2.76 2.49 2.34 2.3 2.1726 1.9425 1.7844
742.797 1.7053 1.4905 1.3425 1.3361 1.3459 1.3636 1.3566 1.3295 1.29506 1.357
762.091 1.4148 1.3966 1.4497 1.5669 1.6755 1.7512 1.8711 2.0438 2.1708 2.26
781.384 2.34 2.35 2.31 2.38 2.41 2.29 2.1912 2.1184 2.0172 2.0385
800.678 1.9831 1.7286 1.5778 1.5566 1.4662 1.3336 1.23153 1.2609 1.1827 1.1327
819.971 1.27402 1.24601 1.1759 1.1621 1.1384 1.098 1.043 1.032 1.1262 1.1603
839.264 1.071 1.087 1.1751 1.1391 1.125 1.1218 1.054 1.088 1.101 1.033
858.558 1.1222 1.1866 1.092 1.113 1.1443 1.1209 1.1452 1.1572 1.12 1.067
877.851 1.066 1.1375 1.1954 1.1576 1.1 1.1493 1.1745 1.158 1.114 1.1942
897.145 1.2845 1.1991 1.1959 1.203 1.25692 1.3767 1.3334 1.28672 1.3552 1.4122
916.438 1.3804 1.3349 1.3596 1.391 1.3791 1.30405 1.26039 1.27688 1.28422 1.28122
935.732 1.3299 1.3238 1.3181 1.3401 1.27641 1.3235 1.30681 1.2819 1.31094 1.2897
955.025 1.382 1.3996 1.3402 1.30442 1.29772 1.3352 1.3837 1.3979 1.3769 1.3971
974.318 1.3812 1.3984 1.4401 1.4377 1.4989 1.571 1.5647 1.5384 1.531 1.5607
993.612 1.6145 1.6304 1.6464 1.6435 1.6643 1.7106 1.7561 1.7696 1.8048 1.8783
1012.905 1.9386 1.9294 1.9051 1.9314 1.939 1.9629 1.9076 1.8405 1.9144 1.969
1032.199 1.9102 1.8354 1.8471 1.8485 1.8111 1.8215 1.8881 1.9843 2.0458 2.0855
1051.492 2.1589 2.23 2.31 2.47 2.52 2.58 2.77 2.94 3.13 3.34
1070.786 3.5 3.68 4 4.3 4.46 4.67 4.91 5.16 5.5 5.86
1090.079 6.22 6.84 7.44 8 8.66 9.22 9.7 10.13 10.46 10.81
1109.372 11.07 11.17 11.27 11.28 11.13 10.9 10.54 10.01 9.36 8.63
1128.666 7.74 6.73 5.77 4.73 3.66 2.87 2.34 1.9076 1.6004 1.4832
1147.959 1.4537 1.4671 1.3323 1.24258 1.2897 1.29931 1.3138 1.31014 1.23987 1.3238
1167.253 1.3682 1.3267 1.25963 1.117 1.26318 1.364 1.1735 1.112 1.1803 1.088
1186.546 1.05 0.836 0.611 0.698 0.707 0.632 0.466 0.552 0.56 0.458
1205.840 0.651 0.45 0 0.09 0.34 0.281 0.465 0.648 0.842 1.059
1225.133 0.991 1.24754 1.594 1.8591 2.42 2.91 3.4 4.06 4.76 5.67
1244.426 6.78 7.95 9.16 10.22 11.08 11.71 12.15 12.28 12.05 11.66
1263.720 11.06 10.3 9.34 8.46 7.63 6.67 6.01 5.5 5.05 4.66
1283.013 4.3 4.05 3.88 3.87 3.94 3.82 3.76 3.78 3.71 3.64
1302.307 3.61 3.54 3.26 3.07 2.98 2.79 2.61 2.44 2.34 2.219
1321.600 2.0638 1.9646 1.9073 1.8498 1.7549 1.679 1.6914 1.6263 1.4844 1.4942
1340.894 1.5074 1.4725 1.474 1.4253 1.3608 1.3653 1.3823 1.354 1.3257 1.3493
1360.187 1.3505 1.28029 1.27585 1.353 1.3207 1.27378 1.31456 1.3345 1.3296 1.31106
1379.480 1.30049 1.3369 1.3613 1.3887 1.4491 1.4817 1.4443 1.4411 1.4698 1.5148
1398.774 1.5654 1.5402 1.5544 1.6623 1.752 1.8638 2.0262 2.1222 2.2185 2.4
1418.067 2.65 2.95 3.29 3.68 4.21 4.78 5.3 5.75 6 6.08
1437.361 6.09 5.97 5.69 5.33 4.9 4.47 4.17 3.98 3.94 4.02
1456.654 4.2 4.49 4.94 5.5 6.21 7.12 8.16 9.42 10.76 11.86
1475.948 12.53 12.73 12.48 11.83 10.85 9.63 8.09 6.46 5.06 4.01
1495.241 3.27 2.73 2.42 2.28 2.1485 2.0207 1.9276 1.8835 1.8744 1.7883
1514.534 1.6913 1.6361 1.6428 1.698 1.6397 1.6094 1.6395 1.6344 1.666 1.7152
1533.828 1.7313 1.7564 1.7829 1.8135 1.9041 1.9882 2.1329 2.33 2.47 2.61
1553.121 2.76 2.95 3.23 3.58 3.96 4.35 4.77 5.23 5.68 6.11
1572.415 6.58 7.01 7.44 7.93 8.34 8.7 9.03 9.32 9.51 9.51
1591.708 9.34 8.9 8.26 7.51 6.7 5.9 5.09 4.4 3.78 3.27
1611.002 2.87 2.51 2.25 2.034 1.9476 1.8744 1.7572 1.6685 1.6191 1.5735
1630.295 1.5708 1.516 1.4564 1.397 1.3719 1.4349 1.4184 1.3341 1.26852 1.29872
1649.588 1.27728 1.2059 1.2074 1.27457 1.29505 1.27037 1.27117 1.28168 1.27589 1.26199
1668.882 1.23462 1.207 1.1945 1.23541 1.26406 1.22615 1.24949 1.21495 1.1785 1.24395
1688.175 1.28035 1.25009 1.1899 1.1208 1.1329 1.1204 1.064 1.052 1.033 1.069
1707.469 1.091 1.081 1.1242 1.1309 1.043 1.029 1.073 1.089 1.109 1.091
1726.762 1.043 1.055 1.067 1.071 1.071 1.072 1.08 1.071 1.058 1.117
1746.056 1.1832 1.104 1.066 1.073 1.072 1.097 1.108 1.103 1.056 1.048
1765.349 1.071 1.071 1.071 1.059 1.072 1.088 1.106 1.117 1.1278 1.1566
1784.642 1.1476 1.083 1.115 1.1905 1.1362 1.043 1.056 1.098 1.105 1.119
1803.936 1.156 1.1312 1.1212 1.137 1.096 1.109 1.1383 1.1371 1.1461 1.1472
1823.229 1.1348 1.1601 1.1775 1.1315 1.104 1.101 1.1251 1.1502 1.09 1.093
1842.523 1.1598 1.1547 1.1462 1.1426 1.118 1.1272 1.1318 1.11 1.06 1.019
1861.816 1.041 1.055 1.008 1.006 1.076 1.124 1.078 1.052 1.082 1.1307
1881.110 1.1205 1.07 1.071 1.1289 1.1947 1.1552 1.1376 1.1766 1.187 1.21956
1900.403 1.23495 1.21041 1.22449 1.25002 1.25313 1.27886 1.3361 1.3346 1.3471 1.3939
1919.696 1.4092 1.3882 1.3561 1.3489 1.3796 1.3886 1.3711 1.3505 1.3385 1.3563
1938.990 1.31551 1.26828 1.28434 1.28948 1.25503 1.27461 1.26915 1.22469 1.21854 1.21061
1958.283 1.1847 1.186 1.1809 1.1688 1.1914 1.2003 1.1799 1.1847 1.1671 1.1459
1977.577 1.1608 1.1353 1.1606 1.1995 1.1792 1.1806 1.1937 1.2033 1.1964 1.1806
1996.870 1.1901 1.1783 1.1285 1.107 1.12 1.1521 1.2035 1.1594 1.123 1.1737
2016.164 1.23406 1.23276 1.22879 1.21677 1.1668 1.1757 1.21677 1.23702 1.24856 1.23895
2035.457 1.2552 1.25368 1.2208 1.26884 1.29161 1.26283 1.23915 1.21978 1.24553 1.24915
2054.750 1.2328 1.26916 1.26624 1.27109 1.27943 1.25328 1.25081 1.25441 1.1976 1.18
2074.044 1.24738 1.26126 1.25016 1.26487 1.28595 1.29822 1.28493 1.25463 1.29088 1.29972
2093.337 1.28055 1.31812 1.30231 1.25118 1.28525 1.3289 1.30867 1.29455 1.29051 1.2907
2112.631 1.29417 1.3241 1.3396 1.31698 1.31173 1.3261 1.3233 1.3318 1.3448 1.3443
2131.924 1.3525 1.3526 1.3517 1.3228 1.25717 1.29581 1.3702 1.3416 1.3275 1.3543
2151.218 1.3799 1.3886 1.3688 1.4102 1.4224 1.4055 1.3927 1.3996 1.432 1.4166
2170.511 1.3794 1.3426 1.3509 1.3792 1.4158 1.3945 1.346 1.3664 1.3869 1.3754
2189.804 1.3664 1.3823 1.4094 1.4069 1.4073 1.4653 1.4858 1.4987 1.487 1.4996
2209.098 1.5357 1.552 1.5824 1.5924 1.6403 1.6929 1.7717 1.8613 1.9142 1.9796
2228.391 2.0347 2.0169 1.9844 1.9468 1.923 1.902 1.8313 1.7478 1.6618 1.5779
2247.685 1.5389 1.5022 1.4599 1.4636 1.5043 1.5057 1.43 1.4042 1.4431 1.4446
2266.978 1.4545 1.4616 1.4135 1.3827 1.4269 1.4242 1.369 1.3335 1.3465 1.3933
2286.272 1.383 1.356 1.29443 1.29466 1.3804 1.3635 1.3231 1.3574 1.3699 1.3508
2305.565 1.371 1.3641 1.3563 1.3793 1.3891 1.3928 1.3708 1.3843 1.4045 1.3751
2324.858 1.3614 1.3316 1.3309 1.3563 1.3642 1.3546 1.28616 1.3318 1.3767 1.3449
2344.152 1.3998 1.4246 1.3659 1.3343 1.3499 1.3897 1.4093 1.4207 1.4054 1.3826
2363.445 1.3862 1.4093 1.414 1.4099 1.4316 1.4106 1.4157 1.4448 1.427 1.4187
2382.739 1.4627 1.46 1.4184 1.4271 1.4103 1.435 1.4598 1.4488 1.4578 1.463
2402.032 1.4557 1.4043 1.3917 1.3954 1.4239 1.4495 1.4363 1.4296 1.4403 1.4507
2421.326 1.4443 1.4194 1.3641 1.376 1.4555 1.473 1.4352 1.4386 1.4313 1.4256
2440.619 1.4477 1.4687 1.415 1.3987 1.4518 1.464 1.4693 1.4454 1.4216 1.4313
2459.912 1.4417 1.4515 1.4748 1.4843 1.5029 1.5043 1.5023 1.4571 1.4264 1.4654
2479.206 1.4484 1.4701 1.5125 1.467 1.4185 1.4146 1.456 1.4368 1.4513 1.4803
2498.499 1.4714 1.4919 1.517 1.5112 1.4965 1.5421 1.5038 1.481 1.544 1.565
2517.793 1.5485 1.5189 1.5323 1.5426 1.5437 1.5926 1.5715 1.5797 1.6579 1.6343
2537.086 1.5745 1.5675 1.6209 1.651 1.5996 1.5579 1.577 1.637 1.669 1.669
2556.380 1.6277 1.5716 1.5899 1.6467 1.6546 1.6375 1.6033 1.5935 1.6007 1.6122
2575.673 1.6212 1.5906 1.5793 1.5627 1.6091 1.6618 1.6388 1.6142 1.5775 1.5754
2594.966 1.63 1.6365 1.6514 1.6512 1.6447 1.6641 1.6256 1.6263 1.7031 1.6935
2614.260 1.5936 1.6265 1.6806 1.6713 1.7108 1.6778 1.6439 1.6882 1.6714 1.6526
2633.553 1.7167 1.7401 1.7039 1.6114 1.5709 1.6332 1.6574 1.6563 1.669 1.6776
2652.847 1.6354 1.5793 1.5936 1.6376 1.6422 1.6409 1.6562 1.6483 1.6111 1.6244
2672.140 1.6313 1.6234 1.6867 1.6921 1.709 1.7789 1.7442 1.636 1.6726 1.7172
2691.434 1.6267 1.5962 1.6463 1.7245 1.7148 1.6466 1.6333 1.6711 1.6919 1.7133
2710.727 1.7188 1.701 1.6731 1.7413 1.7948 1.7266 1.6693 1.6426 1.6657 1.7251
2730.020 1.778 1.7063 1.6589 1.7557 1.7784 1.7819 1.8626 1.8099 1.7151 1.7874
2749.314 1.8588 1.8213 1.8131 1.8179 1.7874 1.7797 1.8125 1.8429 1.8177 1.8095
2768.607 1.8443 1.8473 1.8055 1.7941 1.8377 1.8754 1.8924 1.8164 1.7866 1.8762
2787.901 1.7964 1.7415 1.8137 1.7593 1.7302 1.7993 1.8468 1.8126 1.7943 1.9175
2807.194 1.9875 1.9386 1.9563 2.0053 1.96 1.909 1.9161 1.9247 1.9963 2.0275
2826.488 2.1093 2.24 2.33 2.39 2.42 2.45 2.59 2.72 2.91 3.18
2845.781 3.29 3.32 3.42 3.53 3.47 3.29 3.17 2.96 2.8 2.82
2865.074 2.75 2.64 2.54 2.47 2.37 2.33 2.41 2.42 2.4 2.4
2884.368 2.54 2.63 2.56 2.51 2.54 2.69 2.79 2.8 2.76 2.79
2903.661 2.86 2.9 2.9 2.87 2.89 2.91 2.91 2.98 3.08 3.06
2922.955 3.06 3.16 3.24 3.3 3.3 3.29 3.41 3.64 3.82 4.03
2942.248 4.25 4.5 4.64 4.64 4.66 4.59 4.46 4.41 4.39 4.4
2961.542 4.28 4.09 4.04 4.05 3.98 3.87 3.72 3.49 3.38 3.4
2980.835 3.31 3.09 2.94 2.85 2.85 2.85 2.86 2.74 2.7 2.78
3000.128 2.76 2.8 2.89 3 3.09 3.24 3.38 3.46 3.5 3.53
3019.422 3.44 3.2 3.13 3.09 2.96 2.7 2.58 2.52 2.47 2.54
3038.715 2.47 2.36 2.29 2.22 2.1567 2.0999 2.0803 2.0697 2.0547 2.1034
3058.009 2.1083 2.1435 2.27 2.26 2.1922 2.1225 2.1426 2.143 2.1977 2.27
3077.302 2.1683 2.0829 2.0133 2.1179 2.2032 2.1161 2.1281 2.1466 2.1377 2.2003
3096.596 2.203 2.1471 2.1504 2.1105 2.1642 2.0991 2.0037 2.0651 1.9885 1.8189
3115.889 1.6948 1.7106 1.6017 1.6302 1.8912 1.8225 1.6984 1.7129 1.629 1.5869
3135.182 1.5621 1.4903 1.4914 1.5964 1.6773 1.5747 1.5119 1.5009 1.5302 1.6111
3154.476 1.5392 1.4905 1.6459 1.6875 1.5825 1.5506 1.5085 1.4729 1.5534 1.5842
3173.769 1.56 1.5276 1.4701 1.5361 1.4786 1.4378 1.521 1.5331 1.6195 1.6792
3193.063 1.5067 1.4638 1.4528 1.4811 1.561 1.6471 1.692 1.5034 1.4498 1.5027
3212.356 1.4596 1.4896 1.4796 1.3395 1.4314 1.4258 1.26808 1.3331 1.3488 1.31905
3231.650 1.27976 1.23902 1.3445 1.3613 1.28837 1.22635 1.1498 1.093 1.21574 1.29477
3250.943 1.1704 1.31145 1.27366 1.087 1.1784 1.1459 1.28665 1.4502 1.29684 1.21253
3270.236 1.29608 1.3691 1.3517 1.25697 1.23637 1.21115 1.1579 1.21562 1.3253 1.23586
3289.530 1.1776 1.3458 1.3466 1.3547 1.2954 1.1756 1.1348 1.099 1.1297 1.116
3308.823 1.18 1.22374 1.101 0.973 0.964 1.078 1.1476 1.058 1.034 1.23379
3328.117 1.3753 1.25512 1.096 1.084 1.067 1.027 1.059 1.23019 1.1955 1.18
3347.410 1.30944 1.2001 1.134 1.1502 1.22689 1.31492 1.28204 1.067 1.052 1.1905
3366.704 1.1925 1.189 1.092 1.1761 1.23043 1.22543 1.097 0.902 0.922 1.012
3385.997 1.021 1.045 1.111 1.1251 1.064 1.28932 1.27743 1.068 0.995 0.863
3405.290 1.006 1.094 1.1385 1.1417 1.008 1.003 1.1722 1.1689 1.064 0.97
3424.584 1.068 1.1642 1.1743 1.3723 1.4657 1.359 1.26725 1.1328 1.083 1.1512
3443.877 1.27577 1.3493 1.1452 0.956 1.023 1.118 1.05 0.941 0.951 0.953
3463.171 0.973 1.1572 1.1751 0.972 0.933 0.987 1.047 0.985 0.918 0.984
3482.464 1.05 1.005 0.8 0.906 1.1859 1.071 1.045 1.1201 1.1566 1.1908
3501.758 1.1668 1.118 1.1216 1.027 0.911 1.1812 1.4253 1.2856 0.986 0.911
3521.051 1.093 1.1865 1.082 0.986 0.961 0.976 0.931 1.056 1.1362 1.003
3540.344 0.916 0.889 0.995 1.115 1.045 1.025 0.977 0.973 1.073 0.999
3559.638 0.914 0.99 1.095 1.064 0.958 1.009 1.083 0.967 1.058 1.1487
3578.931 0.962 0.958 1.1561 1.1401 1.039 1.006 1.039 0.994 1.081 1.1299
3598.225 1.024 1.1201 1.1227 1.054 1.059 1.083 1.1 1.084 1.032 1.055
3617.518 1.115 1.13 1.172 1.23083 1.28098 1.26296 1.1272 0.972 0.984 1.061
3636.812 1.113 1.1948 1.1941 1.112 1.022 1.01 1.013 1.062 1.1326 1.103
3656.105 0.986 1.018 1.1454 1.086 1.098 1.118 1.008 0.987 1.066 1.155
3675.398 1.1838 1.2569 1.27456 1.05 0.945 0.944 1.028 1.24612 1.082 0.966
3694.692 1.1468 1.1322 1.061 1.1296 1.24115 1.28674 1.22715 1.119 1.157 1.2016
3713.985 1.1445 1.054 1.066 1.1292 1.1507 1.1756 1.1846 1.101 1.071 1.056
3733.279 0.932 1.025 1.26806 1.36 1.1641 1.108 1.113 1.076 1.09 1.079
3752.572 1.104 1.118 1.1511 1.22582 1.27249 1.1255 1.033 1.1361 1.1612 1.25626
3771.866 1.27668 1.1911 1.2058 1.24738 1.23462 1.22003 1.30047 1.23828 1.079 1.1634
3791.159 1.23327 1.1863 1.2074 1.1572 1.1638 1.1706 1.1973 1.25759 1.28507 1.3262
3810.452 1.3932 1.3967 1.26583 1.1599 1.1376 1.2046 1.21314 1.2063 1.27655 1.22018
3829.746 1.2094 1.3266 1.3702 1.30951 1.2671 1.24734 1.1428 1.112 1.1454 1.3225
3849.039 1.43 1.31749 1.24971 1.23124 1.4025 1.4484 1.27002 1.3462 1.4365 1.30184
3868.333 1.30623 1.28233 1.1781 1.175 1.1652 1.1363 1.25327 1.3987 1.4317 1.3756
3887.626 1.27644 1.27178 1.3652 1.3763 1.3793 1.3789 1.4466 1.5428 1.4337 1.363
3906.920 1.3255 1.3982 1.3521 1.24986 1.29345 1.29999 1.402 1.4563 1.4125 1.3916
3926.213 1.368 1.3685 1.30891 1.25425 1.347 1.4882 1.4518 1.348 1.31271 1.3245
3945.506 1.29948 1.27832 1.31158 1.3426 1.4039 1.3614 1.3488 1.3827 1.4055 1.4473
3964.800 1.4157 1.4429 1.479 1.423 1.3546 1.3835 1.419 1.4665 1.459 1.4076
3984.093 1.4747 1.4888 1.4195 1.4072 1.4022 1.3898 1.4843 1.4981 1.3476
##END=
