##TITLE=t-Butyl acetoacetate
##JCAMP-DX=4.24
##DATA TYPE=INFRARED SPECTRUM
##ORIGIN=NIST Mass Spectrometry Data Center
##OWNER=NIST Standard Reference Data Program
Collection (C) 2018 copyright by the U.S. Secretary of Commerce
on behalf of the United States of America. All rights reserved.
##CAS REGISTRY NO=1694-31-1
##MOLFORM=C 8 H 14 O 3
##$NIST SOURCE=MSDC-IR
##SPECTROMETER/DATA SYSTEM=HP-GC/MS/IRD
##STATE=gas
##XUNITS=1/CM
##YUNITS=ABSORBANCE
##XFACTOR=1.0
##YFACTOR=0.000002100
##DELTAX=4.0
##FIRSTX=550.0
##LASTX=3846.0
##FIRSTY=0.000947
##MAXX=3846
##MINX=550
##MAXY=0.021
##MINY=0
##NPOINTS=825
##XYDATA=(X++(Y..Y))
550.0 451 350 265 221 132 60 77 105 78 4
590.0 29 102 112 116 138 148 200 223 172 147
630.0 159 177 177 189 201 194 168 132 164 787
670.0 871 271 156 167 192 199 173 155 151 137
710.0 120 148 203 174 117 106 129 169 182 179
750.0 169 190 245 271 295 308 284 249 209 180
790.0 199 218 228 243 259 265 289 354 503 600
830.0 563 606 693 753 731 655 580 524 482 444
870.0 432 458 494 531 568 590 594 622 652 699
910.0 794 862 843 811 830 885 933 954 939 868
950.0 746 636 544 482 444 410 410 430 443 488
990.0 537 573 597 622 687 734 777 857 926 936
1030.0 902 872 796 690 637 573 531 519 503 516
1070.0 544 550 609 675 710 787 909 1074 1315 1606
1110.0 1995 2528 3199 3982 4919 6002 7098 8139 9014 9545
1150.0 9667 9509 9161 8654 8075 7449 6740 6001 5303 4699
1190.0 4240 3976 3840 3755 3699 3610 3448 3227 3053 2984
1230.0 3000 3048 3160 3343 3531 3684 3756 3754 3723 3685
1270.0 3669 3673 3688 3696 3710 3759 3853 3976 4103 4217
1310.0 4289 4279 4153 3893 3535 3147 2771 2485 2390 2480
1350.0 2677 2980 3358 3816 4347 4716 4598 4119 3548 2993
1390.0 2608 2329 2071 1873 1646 1429 1280 1153 1081 1034
1430.0 977 909 887 921 930 950 930 924 976 989
1470.0 954 891 868 832 738 636 541 450 370 250
1510.0 198 214 190 175 191 201 193 158 145 173
1550.0 194 181 146 195 236 239 234 227 247 250
1590.0 255 250 254 255 259 269 252 254 271 284
1630.0 306 307 324 341 352 357 375 446 514 583
1670.0 686 823 1012 1214 1454 1771 2112 2511 2965 3468
1710.0 4054 4804 5794 6941 8067 9004 9669 10000 9885 9415
1750.0 8708 7840 6789 5617 4448 3393 2547 1910 1438 1117
1790.0 878 705 582 481 428 373 318 281 242 200
1830.0 169 161 155 126 112 123 128 122 111 95
1870.0 88 96 87 85 85 73 66 61 57 51
1910.0 45 41 40 40 43 38 31 26 29 37
1950.0 42 45 42 32 37 44 33 25 24 28
1990.0 28 31 35 30 28 36 40 31 23 19
2030.0 24 32 36 34 34 33 42 52 48 58
2070.0 77 85 93 111 134 166 210 273 368 516
2110.0 709 946 1254 1613 1966 2283 2537 2639 2589 2407
2150.0 2134 1798 1355 852 472 270 178 139 114 95
2190.0 81 76 72 73 69 62 65 71 59 60
2230.0 77 86 98 100 99 103 112 119 133 164
2270.0 194 235 303 388 503 646 818 1018 1240 1492
2310.0 1764 2008 2242 2420 2479 2488 2419 2296 2185 1915
2350.0 1876 2425 2994 3254 3222 2919 2393 1716 1056 553
2390.0 262 126 83 66 48 52 63 60 44 33
2430.0 39 37 29 13 10 16 17 30 38 26
2470.0 10 9 11 6 7 19 23 18 16 9
2510.0 2 3 14 14 18 27 17 12 20 18
2550.0 18 22 15 15 19 28 22 16 20 18
2590.0 9 10 24 31 23 22 23 16 21 35
2630.0 37 32 36 41 24 28 49 36 31 38
2670.0 29 28 26 29 49 64 61 45 28 36
2710.0 55 60 55 49 61 80 87 87 81 79
2750.0 80 94 92 78 87 98 97 84 85 100
2790.0 127 150 146 148 141 139 160 170 175 183
2830.0 203 227 232 248 291 323 356 420 481 548
2870.0 623 683 766 824 870 920 981 1054 1118 1191
2910.0 1269 1359 1459 1550 1698 1881 2061 2234 2356 2388
2950.0 2388 2427 2508 2669 2958 3351 3836 4411 4820 4750
2990.0 4294 3641 2872 2201 1791 1534 1312 1096 892 705
3030.0 568 480 411 362 324 282 258 281 298 283
3070.0 279 284 306 304 274 252 253 246 227 228
3110.0 215 190 170 173 166 161 151 138 145 128
3150.0 127 150 147 140 130 121 138 149 145 146
3190.0 146 156 136 114 131 136 126 109 113 116
3230.0 117 132 118 86 78 98 109 111 102 85
3270.0 68 54 37 55 70 58 85 107 112 118
3310.0 95 93 113 98 102 95 66 69 71 71
3350.0 89 88 73 65 89 95 84 83 82 73
3390.0 86 133 157 116 85 97 121 128 133 125
3430.0 129 146 188 223 218 233 224 197 210 217
3470.0 214 218 190 146 148 159 140 105 87 84
3510.0 88 93 93 69 51 62 56 69 43 0
3550.0 27 70 67 42 22 30 74 83 68 49
3590.0 57 99 101 88 74 62 75 99 135 119
3630.0 109 163 177 193 155 106 113 127 160 126
3670.0 71 59 63 87 76 76 99 109 93 72
3710.0 56 52 89 73 55 75 57 93 94 84
3750.0 84 44 56 61 62 89 92 65 75 69
3790.0 56 74 82 77 78 86 76 64 71 92
3830.0 114 102 82 78 97
##END=
