##TITLE=1-Phenyl-1-octyne
##JCAMP-DX=4.24
##DATA TYPE=INFRARED SPECTRUM
##ORIGIN=EPA-IR VAPOR PHASE LIBRARY
##OWNER=SRD/NIST
Collection (C) 2018 copyright by the U.S. Secretary of Commerce
on behalf of the United States of America. All rights reserved.
##CAS REGISTRY NO=16967-02-5
##MOLFORM=C 14 H 18
##$NIST SOURCE=MSDC-IR
##STATE=gas
##XUNITS=1/CM
##YUNITS=ABSORBANCE
##XFACTOR=1.
##YFACTOR=0.001
##DELTAX=1.92898
##FIRSTX=549.8
##LASTX=4000.7
##FIRSTY=3.68
##MAXX=4000.7
##MINX=549.759
##MAXY=0.10359
##MINY=0
##NPOINTS=1790
##XYDATA=(X++(Y..Y))
549.759 3.68 3.88 3.63 2.7877 2.9522 3.6 3.66 3.65 3.27 2.9548
569.049 2.7325 3.0727 3.49 3.87 3.95 3.57 3.12 2.8804 2.9998 2.9807
588.339 3.41 3.0509 2.7198 2.8444 2.3116 2.37 2.6627 2.5984 2.13328 2.4678
607.628 3.0582 2.9961 2.85 2.6054 2.6175 2.5558 2.9765 3.24 3.2 3.0762
626.918 2.8732 3.0689 3.0637 2.924 2.9628 3.18 2.9604 2.5177 2.5603 3.0572
646.208 3.65 3.81 3.94 3.95 4.41 4.61 4.82 5.47 5.63 5.57
665.498 5.91 7.06 8.26 9.39 10.48 11.94 12.91 13.88 15.58 16.37
684.787 17.63 19.01 19.47 19.79 19.46 18.74 17.68 16.11 15.16 14.21
704.077 12.91 11.69 10.53 9.97 9.51 8.61 8.34 8.71 8.17 7.81
723.367 8.32 9.07 9.69 10.17 10.91 11.9 13.33 14.88 16.58 18.4
742.657 20.08 21.1 21.86 23.84 25.44 26.19 26.6 25.45 23.04 21.41
761.947 20.25 18.26 16.47 14.45 12.55 10.9 8.7 7.33 6.76 6.07
781.236 5.29 4.16 3.93 3.82 3.25 3.15 3.15 3.55 3.45 3.15
800.526 3.31 3.41 3.5 3.52 3.54 3.61 3.27 2.9864 2.8224 3.11
819.816 3.2 2.3284 2.9529 3.48 3.36 3.27 2.7465 3.28 3.25 2.979
839.106 3.31 3.29 3.21 3.59 3.41 2.9885 3.5 3.85 3.81 3.77
858.395 3.76 3.38 3.51 3.79 3.62 3.49 3.2 3.1 3.49 3.49
877.685 3.15 3.64 3.98 3.8 3.78 3.68 3.77 4.03 4.02 3.86
896.975 4.09 4.44 4.55 4.34 4.51 4.99 5.22 4.99 4.16 3.93
916.265 4.37 4.39 4.25 4.13 3.64 3.5 3.5 3.14 3.17 3.19
935.555 3.0436 2.8189 2.6342 2.9577 2.766 2.9882 3.28 3.0695 2.925 2.9045
954.844 3.12 3.15 2.8819 2.7493 3.26 3.39 3.0633 2.4871 2.2073 2.4728
974.134 2.3494 2.4419 2.792 2.9044 3.7 2.8889 2.4038 3.26 3.002 3.12
993.424 3.21 3.43 4.15 4.12 3.29 3.28 3.94 4.55 4.41 4.34
1012.714 4.66 4.47 4.3 4.12 4.6 5.6 5.81 5.57 6.22 6.87
1032.003 5.73 4.29 3.99 3.99 4.48 4.46 3.7 3.61 4.19 4.4
1051.293 4.4 3.8 3.84 4.81 5.01 5.1 5.09 4.79 4.08 3.3
1070.583 3.58 3.11 3.0528 3.92 3.42 3.48 3.21 3.18 3.87 3.3
1089.873 2.4749 2.6396 2.2592 1.167 1.77 2.421 1.969 2.0031 2.5893 2.4097
1109.163 1.656 1.18 1.965 2.0181 1.622 2.3105 2.4337 1.499 0.93 1.838
1128.452 2.5626 2.4637 1.456 0.3 0.23 1.292 2.0342 1.573 1.314 2.0083
1147.742 1.689 0.63 0.5 0.77 1.214 1.321 0.83 0.13 0.1 0.75
1167.032 1.155 1.843 2.3882 2.6198 1.643 0.88 1.564 2.09523 3.49 3.81
1186.322 2.9222 1.431 0.27 0.34 0.54 1.16 0.72 0.77 1.089 0.84
1205.611 1.289 1.367 1.638 2.0396 0.29 0 1.16 0.8 1.06 2.4669
1224.901 2.5587 1.703 1.466 1.04 1.419 2.039 2.08272 2.2322 2.5291 3.0085
1244.191 3.21 3.16 3.7 3.52 3.48 4.06 4.34 4.1 3.96 4.17
1263.481 4.2 4.33 4.36 4.05 4.39 5.09 5.36 5.22 5.35 5.24
1282.771 4.7 4.74 4.63 4.92 5.48 5.32 5.32 5.91 6.13 6.02
1302.060 6.12 6.42 6.52 6.62 7.1 7.43 7.61 8.02 8.27 8.64
1321.350 9.26 10 11.08 11.8 12.01 12.13 12 11.56 10.96 10.35
1340.640 9.8 9.48 9.42 9.3 9.32 9.3 9.01 8.64 8.29 8.01
1359.930 7.65 7.33 7.24 7.13 6.73 6.43 6.23 6.06 6.03 5.87
1379.219 5.78 5.82 5.71 5.56 5.4 5.03 4.72 4.47 4.18 4.13
1398.509 4.17 3.88 3.51 3.55 3.59 3.58 3.83 4 4.26 4.46
1417.799 4.44 4.48 5.06 5.96 6.53 7.05 8.03 9.38 10.55 11.37
1437.089 11.97 12.34 12.3 12.07 11.74 11.46 11.31 11.17 11.43 11.53
1456.378 11.43 11.39 11.41 11.38 11.24 11.21 11.01 10.75 10.71 10.83
1475.668 11.16 11.84 12.91 14.8 17.68 20.66 23.08 24.23 23.78 22.17
1494.958 19.38 15.88 13.07 10.99 9.57 8.68 7.72 6.88 6.1 5.33
1514.248 4.8 4.63 4.44 3.96 3.67 3.55 3.41 3.34 3.34 3.09
1533.538 2.844 2.8935 2.9652 3.0612 2.904 2.7829 3.015 3.0721 2.9223 3.09
1552.827 2.9925 2.8374 3.36 3.51 3.28 3.5 3.74 3.75 3.78 3.93
1572.117 4.04 4.36 4.68 4.87 5.17 5.76 6.51 7.29 8.08 9.19
1591.407 10.53 11.9 12.77 12.92 12.86 12.65 11.59 9.92 8.62 7.11
1610.697 5.63 4.61 3.74 3.19 3.15 3.0195 3.0786 3.004 2.5713 2.5385
1629.986 2.9074 2.8341 2.5485 2.5305 2.4822 2.5533 2.6591 2.7013 2.6843 2.514
1649.276 2.6036 2.7932 2.895 3.2 3.3 3.41 3.68 3.67 3.61 3.59
1668.566 3.24 2.7198 2.15537 2.4455 2.8107 2.7754 2.7478 2.4371 2.4903 2.3626
1687.856 2.3647 2.588 2.3663 2.11634 2.0494 2.2781 2.4218 2.3257 2.3522 2.329
1707.146 2.4071 2.2737 2.2666 2.4918 2.5238 2.5514 2.5305 2.412 2.6558 2.8549
1726.435 2.7124 2.9168 3.0427 2.9452 2.9218 2.9053 2.7118 2.6615 2.8543 2.9942
1745.725 2.8729 2.7764 2.6758 2.4383 2.4341 2.4026 2.341 2.3423 2.5276 2.5543
1765.015 2.3258 2.4362 2.5929 2.5654 2.5705 2.6213 2.735 2.8647 2.8944 2.9865
1784.305 3.09 3.061 3.075 3.29 3.62 3.67 3.41 3.25 3.15 2.8909
1803.594 2.7792 2.8849 2.8991 2.6236 2.5226 2.6627 2.7075 2.7251 2.5713 2.5573
1822.884 2.5654 2.4791 2.5159 2.17312 2.0326 2.17978 2.1926 2.3009 2.2884 2.16182
1842.174 2.2347 2.5016 2.3971 2.4253 2.5839 2.525 2.4656 2.5218 2.6523 2.7417
1861.464 2.7952 2.8094 2.9941 3.0646 3.0357 3.0506 3.19 3.41 3.55 3.62
1880.754 3.61 3.71 3.73 3.44 3.13 3.0754 2.9091 2.4928 2.3819 2.5463
1900.043 2.6306 2.5889 2.4648 2.3662 2.3908 2.5281 2.4908 2.596 2.662 2.5684
1919.333 2.7325 2.9214 3.0366 3.0549 2.9561 2.9812 3.18 3.29 3.19 3.0586
1938.623 3.11 3.24 3.45 3.55 3.63 3.69 3.82 3.98 4.07 4.03
1957.913 3.53 3.18 3.17 3.0111 2.6277 2.4046 2.5676 2.6106 2.3216 2.17942
1977.202 2.3368 2.4875 2.3307 2.2929 2.3575 2.261 2.2335 2.29 2.4194 2.3784
1996.492 2.3555 2.388 2.3834 2.2694 2.2444 2.2604 2.3094 2.468 2.3769 2.1827
2015.782 2.2392 2.4629 2.6077 2.5616 2.347 2.3504 2.2428 2.2555 2.3993 2.3605
2035.072 2.3301 2.2839 2.2252 2.2937 2.3523 2.4654 2.5278 2.3979 2.3705 2.5634
2054.362 2.5128 2.3124 2.4009 2.3599 2.2884 2.2435 2.315 2.3499 2.3807 2.3757
2073.651 2.319 2.1603 2.0414 2.2156 2.2579 2.1842 2.16545 2.204 2.15236 2.3145
2092.941 2.4702 2.2256 2.10711 2.3547 2.4382 2.3709 2.3967 2.344 2.233 2.17343
2112.231 2.204 2.12314 2.1873 2.252 2.09574 2.201 2.4613 2.4398 2.3121 2.2538
2131.521 2.2433 2.398 2.3478 2.2842 2.2787 2.1972 2.3389 2.555 2.4077 2.15719
2150.810 2.5016 2.6353 2.3794 2.2316 2.317 2.348 2.2557 2.2625 2.53 2.5744
2170.100 2.335 2.465 2.6194 2.7606 2.6863 2.5569 2.7533 2.8141 2.8998 2.9944
2189.390 2.9614 2.86 2.6915 2.8292 2.8037 2.9059 3.25 3.47 3.5 3.53
2208.680 3.86 4.06 4.1 4.21 4.3 4.54 4.69 4.65 4.81 4.81
2227.970 4.83 4.76 4.54 4.44 4.19 3.95 3.86 3.79 3.71 3.74
2247.259 3.68 3.37 3.38 3.4 3.0378 3.0234 2.932 2.7359 2.8565 2.8557
2266.549 2.8968 2.7578 2.5107 2.5619 2.6091 2.5802 2.63 2.8257 2.7712 2.527
2285.839 2.4261 2.4164 2.5248 2.7542 2.5896 2.3444 2.4871 2.462 2.4668 2.5645
2305.129 2.4938 2.4894 2.4813 2.593 2.7778 2.8636 2.7639 2.7067 2.6968 2.6623
2324.418 2.9117 2.8451 2.6661 2.6732 2.5783 2.5613 2.7368 2.7704 2.9142 2.7622
2343.708 2.4329 2.4544 2.546 2.6916 2.5051 2.5448 2.7703 2.4894 2.3217 2.4619
2362.998 2.4015 2.2841 2.3217 2.5404 2.7556 2.6845 2.7125 2.7472 2.4909 2.2499
2382.288 2.15066 2.2901 2.4255 2.5034 2.571 2.5113 2.3817 2.3915 2.5883 2.5838
2401.578 2.636 2.7182 2.4358 2.3168 2.6851 2.8519 2.6866 2.4775 2.4859 2.6413
2420.867 2.6525 2.6126 2.5711 2.5709 2.6342 2.6491 2.5818 2.7581 2.612 2.2275
2440.157 2.2031 2.2755 2.5177 2.6574 2.6968 2.7721 2.7568 2.8087 2.5649 2.4026
2459.447 2.525 2.5025 2.5624 2.5404 2.3576 2.349 2.315 2.16462 2.3283 2.6132
2478.737 2.768 2.6282 2.4855 2.5508 2.7051 2.746 2.6824 2.5509 2.5909 2.8428
2498.026 2.9415 2.8675 2.6649 2.5665 2.4539 2.348 2.5765 2.7303 2.4277 2.4112
2517.316 2.4351 2.4201 2.6265 2.5895 2.4509 2.4722 2.5792 2.5991 2.5177 2.4036
2536.606 2.5589 2.7876 2.6799 2.6483 2.6354 2.6677 2.9766 3.032 2.9579 2.8004
2555.896 2.6514 2.7888 2.9661 3.0536 2.8258 2.8667 2.9122 2.707 2.9702 3.15
2575.186 2.8631 2.5716 2.7219 2.9111 2.9977 2.9196 2.7049 2.8704 2.869 2.7595
2594.475 2.8079 2.8102 3.074 3.0618 2.9332 2.6517 2.5122 2.81 2.91 3.15
2613.765 3.26 3.18 3.0673 3.17 3.26 2.9734 2.8707 3.14 3.0719 3.0795
2633.055 2.9215 2.709 3.09 3.29 3.29 3.31 3.46 3.35 3.17 3.19
2652.345 3.25 3.38 3.45 3.24 3.42 3.35 2.8543 2.9882 3.2 3.19
2671.634 3.14 3.12 3.28 3.21 3.19 3.54 3.76 3.44 3.1 3.3
2690.924 3.22 3.29 3.29 3.14 3.39 3.37 3.13 3.28 3.19 3.11
2710.214 3.3 3.24 3.46 3.43 3.0657 3.2 3.48 3.55 3.4 3.12
2729.504 2.8744 2.7729 3.12 3.33 3.32 3.32 3.12 3.22 3.73 3.89
2748.794 3.62 3.62 3.35 3.12 3.52 3.62 3.61 3.55 3.46 3.65
2768.083 3.91 4.06 3.94 3.95 3.91 3.94 4.03 4.04 4.29 4.35
2787.373 4.46 4.49 4.45 4.21 4.26 4.65 4.61 4.62 4.68 4.94
2806.663 5.34 5.49 5.62 5.71 5.47 5.76 6.51 6.82 6.74 6.88
2825.953 7.25 7.74 8.27 8.51 8.74 9.34 10.09 11.76 13.7 14.69
2845.242 15.51 17.17 19.37 21.12 23.13 25.29 27.59 29.95 32.26 34.11
2864.532 35.97 37.58 37.61 36.97 36.05 34.93 33.81 32.66 31.86 30.96
2883.822 29.79 29.1 28.55 27.81 27.23 27.04 27.38 27.84 28.76 30.14
2903.112 32.21 34.9 37.32 39.81 42.24 45.1 48.36 51.7 55.38 59.44
2922.401 64.41 69.73 75.3 81.48 87.66 93.46 98.6 102.19 103.59 102.9
2941.691 99.89 95.01 88.43 80.93 73.46 66.27 60.12 56.27 53.94 52.65
2960.981 52.79 52.91 52.92 52.53 51.14 48.22 44.7 40.63 35.55 30.8
2980.271 26.6 23.09 20.11 18.08 16.56 15.04 14 12.78 12.04 11.88
2999.561 11.22 10.71 10.47 10.18 9.72 9.77 10.01 9.77 9.64 9.37
3018.850 9.59 9.83 10.16 10.45 10.65 11.21 11.68 12.6 13.67 14.47
3038.140 14.5 13.67 12.92 12.1 11.39 11.29 11.4 12.06 13.18 14.09
3057.430 15.07 16.76 18.7 20.01 20.87 21.7 22.23 21.2 19.4 17.95
3076.720 16.57 15.58 14.77 14.25 14.4 14.29 13.63 13.82 13.91 13.26
3096.009 12.55 11.96 11.43 10.35 9.28 8.51 7.72 6.88 6.22 5.68
3115.299 5.41 5.09 4.32 4.08 3.95 3.73 3.71 3.52 3.19 3.32
3134.589 3.46 3.0725 3.0375 3.58 3.69 2.8938 2.9987 3.22 3.14 2.7855
3153.879 2.5606 3.13 3.4 3.44 3.35 2.9274 2.7466 2.8077 2.793 2.8539
3173.169 3.0273 3.4 3.45 3.18 2.9372 2.8465 2.6438 2.5045 2.8697 3.11
3192.458 2.7933 2.6361 2.7771 3.14 3.23 3.11 2.9625 3.036 3.08 2.6306
3211.748 2.391 2.671 3.0318 2.9531 2.6894 2.9672 3.0036 2.5811 2.3109 1.924
3231.038 2.0209 2.3467 2.2495 2.274 2.5551 2.6366 2.3311 1.976 1.795 1.93
3250.328 2.3154 2.3027 2.6092 2.5672 2.11819 2.4475 2.598 1.889 1.38 1.817
3269.617 2.3452 2.3736 2.408 2.3411 2.2394 2.4764 2.17304 2.0369 2.7342 2.6647
3288.907 2.3099 2.4813 2.10009 1.622 1.655 1.84 1.945 1.887 1.9876 2.2477
3308.197 2.3426 2.4704 2.5187 2.59 2.3011 2.0418 2.17348 2.2826 2.5441 2.3977
3327.487 2.2025 2.3687 2.509 2.4093 2.4105 3.09 3.0309 2.2196 1.955 1.508
3346.777 1.561 2.3634 2.4278 2.2826 2.4589 2.6476 2.4834 2.1266 2.08723 2.0627
3366.066 2.3048 2.3121 2.09819 1.891 1.928 2.3326 2.3048 2.15596 2.1973 1.9812
3385.356 1.901 2.07057 1.899 1.61 1.691 1.56 1.742 2.0249 1.715 1.839
3404.646 1.973 1.743 1.926 1.959 2.0518 2.2816 2.3183 2.181 1.466 1.525
3423.936 2.0138 1.871 1.719 1.495 1.615 2.3326 2.14884 1.381 1.261 1.745
3443.225 1.959 2.0365 1.876 1.8 1.935 1.804 2.07959 2.2086 2.14196 2.1879
3462.515 2.2965 2.7541 2.8093 2.2863 2.4515 2.3886 2.17385 2.549 2.4372 2.0438
3481.805 2.10454 2.2628 2.221 2.6855 2.9837 2.08147 1.552 2.09768 2.5021 2.3083
3501.095 1.9989 2.15236 2.09471 2.2522 2.3495 2.08022 2.3945 2.6407 2.3595 1.962
3520.385 1.696 1.917 2.08848 2.2459 2.4199 2.2588 2.5748 2.2913 1.86 2.14998
3539.674 2.2555 2.4157 2.2203 1.862 2.2664 2.4564 1.942 1.895 2.16535 2.2273
3558.964 2.16411 2.2621 2.2021 1.603 1.514 1.428 1.223 1.551 2.0166 2.1886
3578.254 1.923 2.11189 2.5537 1.974 1.879 2.14917 1.686 1.931 2.2394 2.5069
3597.544 2.609 1.879 1.73 2.156 2.14678 2.2659 2.6295 2.3548 2.07315 1.929
3616.833 1.701 2.0493 1.951 1.693 1.666 1.592 1.941 2.4768 2.2934 1.948
3636.123 2.3421 2.6174 2.4522 2.0688 1.747 1.669 2.3618 2.9475 2.8199 2.4869
3655.413 2.202 2.2491 2.541 2.5482 2.1913 2.0015 1.79 1.584 1.345 1.432
3674.703 1.665 1.714 1.697 1.97 2.3478 2.17161 2.2883 2.8214 2.8583 2.6564
3693.993 2.5065 2.3531 2.4828 2.7207 2.5275 2.4119 2.2191 2.0392 2.1911 2.4426
3713.282 2.3989 2.14673 2.16333 2.197 2.12244 2.12766 2.0249 1.758 1.371 1.401
3732.572 2.2969 2.4448 2.1855 2.14789 2.14533 2.3986 2.5997 2.9923 2.5383 1.944
3751.862 1.9869 1.9937 2.483 2.7799 2.5707 2.10889 2.0678 2.4727 2.5851 2.3516
3771.152 2.5487 2.3805 2.1048 2.2773 1.95 1.675 1.929 2.2677 2.331 1.82
3790.441 1.787 2.4241 2.4587 2.3291 2.5452 2.6172 2.8884 3.11 2.5376 2.2939
3809.731 2.0674 2.0668 2.0566 2.08417 2.4433 2.2767 2.0107 1.752 1.847 1.746
3829.021 1.71 1.796 2.3783 3.0054 2.8683 2.7526 2.4239 2.2884 2.6398 2.7345
3848.311 2.4588 2.4052 2.5636 3.0443 2.9343 2.2843 2.2427 2.4703 2.0011 2.0582
3867.601 2.6492 2.6599 2.5735 2.2776 2.10849 2.327 2.8125 3.29 3.1 2.3525
3886.890 1.744 1.681 1.812 1.821 1.902 1.695 1.383 1.947 2.4249 2.14357
3906.180 1.843 2.2488 2.7108 2.6832 2.0379 1.928 2.7119 2.6679 2.3236 2.4976
3925.470 2.4186 1.999 2.4815 2.9854 2.07131 1.568 2.0252 2.2207 2.5131 2.6444
3944.760 2.8807 3.0072 2.488 2.2534 2.043 1.739 2.17662 2.5025 2.503 2.8221
3964.049 3.14 2.8836 2.3605 2.07013 2.07081 2.3545 2.17834 1.367 1.892 2.6804
3983.339 2.5049 2.4573 2.4394 2.6603 2.2426 1.703 1.89 2.6099 2.8537 2.3542
##END=
