##TITLE=2-Methyl-2-octene
##JCAMP-DX=4.24
##DATA TYPE=INFRARED SPECTRUM
##ORIGIN=NIST Mass Spectrometry Data Center
##OWNER=NIST Standard Reference Data Program
Collection (C) 2018 copyright by the U.S. Secretary of Commerce
on behalf of the United States of America. All rights reserved.
##CAS REGISTRY NO=16993-86-5
##MOLFORM=C 9 H 18
##$NIST SOURCE=MSDC-IR
##SPECTROMETER/DATA SYSTEM=HP-GC/MS/IRD
##STATE=gas
##XUNITS=1/CM
##YUNITS=ABSORBANCE
##XFACTOR=1.0
##YFACTOR=0.000003000
##DELTAX=4.0
##FIRSTX=550.0
##LASTX=3846.0
##FIRSTY=0.000345
##MAXX=3846
##MINX=550
##MAXY=0.03
##MINY=0
##NPOINTS=825
##XYDATA=(X++(Y..Y))
550.0 115 124 77 11 16 16 0 20 36 11
590.0 17 20 6 0 20 21 34 60 66 60
630.0 58 77 70 61 58 46 28 32 72 56
670.0 39 75 83 87 80 79 79 104 144 165
710.0 185 189 199 221 233 231 214 198 189 172
750.0 177 191 196 202 204 210 216 204 201 216
790.0 223 226 232 248 260 270 312 343 382 421
830.0 434 439 430 416 380 344 315 285 243 205
870.0 194 183 167 164 170 159 157 166 156 150
910.0 154 153 139 123 121 126 123 125 134 145
950.0 162 183 193 196 203 211 209 216 228 222
990.0 207 198 186 175 167 156 149 142 142 141
1030.0 144 144 133 138 134 141 159 157 157 179
1070.0 204 231 248 269 288 298 310 315 321 329
1110.0 353 383 396 372 321 270 219 170 137 124
1150.0 123 108 106 125 130 133 139 146 148 149
1190.0 157 167 170 167 174 188 189 201 218 211
1230.0 196 182 170 168 173 171 163 160 158 167
1270.0 172 180 197 209 216 219 223 228 230 236
1310.0 253 276 290 296 305 323 338 360 389 413
1350.0 432 438 467 519 584 679 783 873 913 892
1390.0 812 690 573 490 440 417 413 433 471 525
1430.0 606 702 813 920 1020 1095 1141 1155 1137 1072
1470.0 966 835 705 582 482 401 344 306 273 249
1510.0 229 213 204 195 187 176 169 166 165 163
1550.0 157 152 146 143 146 137 129 131 127 121
1590.0 120 117 115 115 116 113 113 111 104 105
1630.0 105 104 111 116 117 121 130 141 154 159
1670.0 156 151 133 111 88 74 70 66 61 58
1710.0 55 49 47 49 49 45 41 39 35 32
1750.0 33 34 34 35 35 36 33 33 34 30
1790.0 29 27 25 24 23 25 28 33 37 28
1830.0 27 29 25 24 24 29 30 24 21 24
1870.0 27 26 25 26 25 25 20 14 21 25
1910.0 25 26 22 21 28 26 23 21 20 23
1950.0 21 23 20 17 19 20 19 16 12 13
1990.0 11 8 16 17 14 17 17 20 22 22
2030.0 24 21 17 13 12 16 15 14 18 15
2070.0 10 11 10 9 10 11 10 8 9 10
2110.0 13 16 17 20 20 17 18 16 18 17
2150.0 17 19 18 18 17 16 14 12 18 20
2190.0 14 10 6 7 11 11 9 10 11 10
2230.0 12 6 7 11 10 7 8 8 3 0
2270.0 6 11 8 5 11 15 17 19 18 13
2310.0 12 16 19 19 24 25 21 20 23 22
2350.0 23 27 28 28 28 27 26 28 24 26
2390.0 28 28 35 41 39 37 37 40 44 43
2430.0 39 30 27 31 37 42 41 41 42 40
2470.0 41 40 35 34 40 38 43 46 42 42
2510.0 40 39 40 42 41 43 51 57 57 59
2550.0 62 59 60 59 59 63 61 61 68 73
2590.0 70 69 75 73 70 79 84 85 89 88
2630.0 92 94 92 101 104 106 110 117 123 124
2670.0 130 133 134 129 122 122 126 126 131 145
2710.0 153 157 169 192 225 252 267 282 291 292
2750.0 281 261 247 249 258 263 275 289 307 325
2790.0 355 386 413 455 506 559 612 670 746 851
2830.0 987 1156 1373 1667 2071 2572 3144 3735 4245 4578
2870.0 4730 4754 4696 4574 4464 4386 4345 4425 4673 5113
2910.0 5779 6670 7722 8763 9579 10000 9920 9391 8587 7706
2950.0 6951 6485 6379 6537 6650 6462 5948 5179 4342 3627
2990.0 3078 2634 2263 1951 1706 1506 1349 1233 1144 1066
3030.0 998 944 885 831 777 715 676 631 579 540
3070.0 500 464 431 397 366 344 327 304 282 271
3110.0 255 248 239 220 198 187 175 158 154 157
3150.0 160 150 140 136 127 118 115 109 101 97
3190.0 100 89 72 70 66 59 69 71 63 71
3230.0 70 57 51 64 68 58 47 44 51 62
3270.0 62 55 54 54 53 47 43 41 37 32
3310.0 32 33 24 28 37 37 43 31 26 34
3350.0 39 41 38 41 49 43 39 31 28 36
3390.0 30 32 41 44 29 31 48 39 27 24
3430.0 22 19 16 22 24 19 18 29 34 34
3470.0 26 19 24 23 23 17 11 11 14 15
3510.0 16 15 16 21 19 14 11 16 21 18
3550.0 16 15 12 9 18 18 1 4 11 13
3590.0 25 25 28 30 18 19 28 22 11 20
3630.0 30 32 20 16 28 28 17 12 23 24
3670.0 24 28 31 37 34 25 31 37 31 24
3710.0 25 23 27 35 24 26 37 38 34 41
3750.0 51 40 36 33 28 35 39 23 29 51
3790.0 56 51 49 41 32 34 45 48 42 31
3830.0 30 27 28 34 40
##END=
