##TITLE=3-Benzyloxybenzaldehyde
##JCAMP-DX=4.24
##DATA TYPE=INFRARED SPECTRUM
##ORIGIN=NIST Mass Spectrometry Data Center
##OWNER=NIST Standard Reference Data Program
Collection (C) 2018 copyright by the U.S. Secretary of Commerce
on behalf of the United States of America. All rights reserved.
##CAS REGISTRY NO=1700-37-4
##MOLFORM=C 14 H 12 O 2
##$NIST SOURCE=MSDC-IR
##SPECTROMETER/DATA SYSTEM=HP-GC/MS/IRD
##STATE=gas
##XUNITS=1/CM
##YUNITS=ABSORBANCE
##XFACTOR=1.0
##YFACTOR=0.000022200
##DELTAX=4.0
##FIRSTX=550.0
##LASTX=3846.0
##FIRSTY=0.000932
##MAXX=3846
##MINX=550
##MAXY=0.222
##MINY=0
##NPOINTS=825
##XYDATA=(X++(Y..Y))
550.0 42 37 4 10 18 31 41 48 55 66
590.0 74 85 104 130 168 216 272 339 403 442
630.0 469 520 595 641 617 544 476 458 494 583
670.0 753 1018 1359 1661 1833 1913 1892 1718 1455 1226
710.0 1079 1016 1047 1172 1366 1590 1811 2022 2178 2217
750.0 2117 1980 1929 1965 2026 2091 2181 2264 2268 2097
790.0 1763 1374 1002 706 504 389 321 286 279 298
830.0 346 402 425 404 362 332 322 337 374 427
870.0 474 496 499 503 530 575 611 619 595 551
910.0 504 470 455 460 475 473 442 385 323 275
950.0 241 227 231 251 289 347 429 545 701 895
990.0 1064 1146 1177 1245 1406 1640 1944 2333 2705 2845
1030.0 2708 2441 2186 1901 1524 1135 820 623 528 503
1070.0 525 557 550 488 403 330 280 256 248 253
1110.0 271 310 392 534 764 1118 1597 2064 2281 2128
1150.0 1749 1424 1314 1315 1268 1108 903 763 683 638
1190.0 637 692 797 947 1145 1395 1685 2006 2389 2965
1230.0 3860 4987 6042 6765 7194 7584 8030 8150 7447 6065
1270.0 4761 3979 3615 3441 3237 2877 2451 2155 2055 2079
1310.0 2101 2005 1761 1463 1246 1160 1152 1128 1033 884
1350.0 750 682 701 832 1065 1364 1704 1996 2076 1848
1390.0 1433 1057 797 634 533 470 452 491 596 790
1430.0 1093 1507 2030 2570 2946 2955 2588 2087 1755 1645
1470.0 1703 1943 2368 2746 2732 2289 1739 1314 983 697
1510.0 497 407 369 351 342 331 320 314 319 338
1550.0 382 455 572 751 1007 1390 1923 2624 3346 3869
1590.0 4042 3902 3509 2896 2178 1530 1054 741 552 434
1630.0 356 306 271 253 247 250 265 290 328 384
1670.0 451 528 613 701 802 929 1132 1473 2048 3003
1710.0 4520 6639 8917 10000 8799 5917 3249 1784 1091 725
1750.0 524 402 323 273 243 226 218 213 209 209
1790.0 216 230 235 225 202 181 167 158 151 145
1830.0 138 130 123 121 125 134 146 155 158 157
1870.0 156 154 151 140 124 107 91 81 77 76
1910.0 80 89 102 118 139 158 170 177 174 165
1950.0 158 152 144 128 106 86 74 70 69 69
1990.0 66 63 61 60 62 64 66 68 69 71
2030.0 72 72 71 69 68 66 64 63 62 60
2070.0 56 52 47 42 37 32 27 22 20 16
2110.0 13 12 10 7 8 7 8 7 8 10
2150.0 11 13 12 11 12 13 12 13 14 15
2190.0 15 14 14 15 15 16 16 16 15 13
2230.0 11 10 10 9 8 7 7 8 10 14
2270.0 18 22 26 26 23 20 16 13 14 16
2310.0 20 26 28 24 21 20 18 16 14 13
2350.0 12 11 9 7 8 9 8 9 10 11
2390.0 11 12 12 13 14 15 16 17 18 17
2430.0 15 13 10 8 7 8 10 10 13 15
2470.0 16 18 20 22 25 28 31 34 37 38
2510.0 39 39 38 38 39 39 38 39 40 42
2550.0 43 44 42 43 45 48 51 54 57 58
2590.0 61 66 67 69 75 78 80 81 80 79
2630.0 77 76 76 75 78 84 91 99 106 110
2670.0 112 115 122 137 163 204 272 388 574 839
2710.0 1166 1517 1800 1844 1580 1147 764 528 400 331
2750.0 292 273 272 287 317 364 436 540 670 810
2790.0 943 1075 1252 1515 1776 1829 1603 1261 1001 854
2830.0 747 647 546 458 392 349 332 332 349 385
2870.0 435 493 551 598 618 605 572 539 519 513
2910.0 513 512 511 509 509 515 526 538 548 561
2950.0 580 597 589 541 463 385 319 267 226 193
2990.0 171 163 170 191 227 282 355 455 595 778
3030.0 985 1171 1274 1270 1188 1091 1038 1059 1162 1350
3070.0 1559 1641 1518 1272 1053 909 802 701 597 495
3110.0 399 314 237 169 117 81 57 41 34 31
3150.0 28 26 25 27 29 30 29 24 22 20
3190.0 17 13 11 11 10 6 3 5 4 3
3230.0 1 2 2 1 0 0 2 2 2 2
3270.0 4 4 3 1 3 5 4 5 6 6
3310.0 5 7 8 9 8 6 4 4 5 6
3350.0 5 6 7 8 10 12 15 19 25 28
3390.0 35 45 54 67 84 102 118 132 140 138
3430.0 124 102 76 56 43 36 28 19 17 13
3470.0 12 12 11 12 10 8 8 9 10 9
3510.0 8 10 11 11 12 10 7 8 8 9
3550.0 12 10 8 8 10 11 10 10 12 11
3590.0 10 11 12 15 15 13 13 12 11 13
3630.0 15 17 18 17 16 17 20 21 21 20
3670.0 20 21 21 20 19 20 22 21 22 25
3710.0 25 22 22 23 22 21 19 18 18 19
3750.0 19 19 20 21 21 20 18 19 20 19
3790.0 19 21 22 23 22 23 22 21 22 24
3830.0 25 25 24 24 27
##END=
