##TITLE=4-Benzyloxy-3-methoxyphenylacetonitrile
##JCAMP-DX=4.24
##DATA TYPE=INFRARED SPECTRUM
##ORIGIN=EPA-IR VAPOR PHASE LIBRARY
##OWNER=SRD/NIST
Collection (C) 2018 copyright by the U.S. Secretary of Commerce
on behalf of the United States of America. All rights reserved.
##CAS REGISTRY NO=1700-29-4
##MOLFORM=C 16 H 15 N O 2
##$NIST SOURCE=MSDC-IR
##STATE=gas
##XUNITS=1/CM
##YUNITS=ABSORBANCE
##XFACTOR=1.
##YFACTOR=0.001
##DELTAX=3.85796
##FIRSTX=551.7
##LASTX=4000.7
##FIRSTY=2.81
##MAXX=4000.7
##MINX=551.688
##MAXY=0.09256
##MINY=0.0004519
##NPOINTS=895
##XYDATA=(X++(Y..Y))
551.688 2.81 3.04 3.16 3.23 3.4 3.47 3.46 3.55 3.71 3.84
590.268 3.95 4.14 4.21 4.3 4.41 4.32 4.22 4.16 4.14 4.1
628.847 3.97 3.9 3.88 3.67 3.42 3.19 3.08 3.14 3.3 3.63
667.427 4.28 5.09 6.15 7.48 9.04 11.15 13.81 15.86 15.84 14.41
706.006 13.04 12.37 12.53 13.54 15.16 16.91 17.99 17.9 16.86 15.45
744.586 13.97 12.4 11.07 10.16 9.51 9.02 8.46 7.85 7.45 7.34
783.165 7.57 8.24 9.25 10.5 11.52 11.83 11.47 10.81 10.09 9.35
821.745 8.64 7.96 7.4 7.22 7.43 7.78 8.01 7.7 7.02 6.34
860.324 5.73 5.3 5.04 4.84 4.71 4.71 4.86 5.1 5.45 5.92
898.904 6.5 7.12 7.49 7.41 7.08 6.81 6.71 6.64 6.47 6.34
937.484 6.25 6.26 6.45 6.77 7.15 7.69 8.48 9.59 11.11 13.03
976.063 15.18 17.16 18.78 20.09 21.2 22.32 23.65 25.15 26.66 28.21
1014.643 30.07 32.26 34.27 35.49 35.11 32.56 28.28 23.18 18.19 13.93
1053.222 10.58 8.34 6.99 6.26 5.96 5.83 5.7 5.54 5.32 5.17
1091.802 5.28 5.56 6.02 6.85 8.43 10.82 14.68 20.2 26.2 30.69
1130.381 32.01 30.81 28.97 27.67 27.07 26.72 25.6 22.94 19.07 15.47
1168.961 13.02 11.96 12.23 13.1 14.18 15.42 17.34 20.5 25.19 31.5
1207.540 38.51 45.07 50.05 52.4 52.12 50.03 47 43.94 41.47 39.98
1246.120 40 42.05 46.35 52.75 60.56 68.06 72.73 73.18 69.9 64.1
1284.699 56.77 49.05 41.82 35.58 30.63 26.99 24.39 22.32 20.38 18.36
1323.279 16.32 14.45 12.82 11.38 10.12 9 8.12 7.59 7.44 7.67
1361.859 8.32 9.43 10.76 11.93 12.3 11.34 9.53 7.99 7.42 7.74
1400.438 8.89 11.04 14.21 17.88 21 22.95 23.88 23.27 20.26 16.24
1439.018 13.82 13.76 15.16 17.32 19.34 20.83 21.9 22.48 21.75 19.73
1477.597 17.98 17.99 20.39 25.94 35.4 49.84 68.33 85.01 92.56 84.82
1516.177 66.3 46.5 31.42 21.9 16.04 12.42 10.15 8.58 7.57 7.01
1554.756 6.77 6.74 6.89 7.36 8.12 9.18 10.49 11.68 12.5 12.8
1593.336 12.74 12.6 12.56 12.46 11.81 10.39 8.44 6.57 5.22 4.32
1631.915 3.77 3.4 3.1 2.93 2.79 2.68 2.57 2.47 2.43 2.4
1670.495 2.37 2.35 2.32 2.3 2.28 2.23 2.22 2.22 2.2 2.2
1709.075 2.21 2.24 2.26 2.27 2.31 2.33 2.38 2.41 2.4 2.37
1747.654 2.33 2.25 2.17 2.12 2.08 2.08 2.11 2.17 2.19 2.21
1786.234 2.3 2.47 2.7 2.79 2.7 2.47 2.22 2.07 1.97 1.91
1824.813 1.9 1.92 1.92 1.96 2.05 2.14 2.22 2.36 2.47 2.54
1863.393 2.62 2.66 2.66 2.65 2.59 2.48 2.33 2.16 2 1.88
1901.972 1.79 1.73 1.72 1.76 1.79 1.83 1.93 2.05 2.18 2.31
1940.552 2.43 2.51 2.56 2.61 2.62 2.55 2.38 2.19 2.08 2.04
1979.131 2.04 2.05 2.05 2.02 2.01 2.01 2.01 2.02 2 1.99
2017.711 2 1.98 1.96 1.93 1.93 1.94 1.94 1.94 1.95 1.94
2056.291 1.9 1.88 1.83 1.76 1.69 1.61 1.54 1.48 1.39 1.31
2094.870 1.24 1.18 1.16 1.12 1.09 1.06 1.04 1.04 1.03 1.03
2133.450 1.01 1.03 1.03 1.01 1.01 1.03 1.03 1.01 1.01 1.03
2172.029 1.07 1.06 1.04 1.06 1.08 1.08 1.06 1.04 1.04 1.03
2210.609 1.03 1.04 1.06 1.09 1.13 1.19 1.27 1.36 1.47 1.6
2249.188 1.75 1.87 1.85 1.76 1.61 1.44 1.33 1.25 1.21 1.19
2287.768 1.17 1.14 1.12 1.11 1.11 1.16 1.2 1.21 1.17 1.1
2326.347 1.08 1.1 1.12 1.12 1.09 1.08 1.07 1.06 1.06 1.02
2364.927 1.02 1.03 1 0.9727 0.9788 0.9769 0.9622 0.9966 1.01 1
2403.507 1.01 1.03 1.03 1.04 1.06 1.05 1.03 1.01 0.9967 1.01
2442.086 1.02 0.9915 1.01 1.03 1.04 1.05 1.07 1.1 1.09 1.08
2480.666 1.1 1.13 1.13 1.11 1.13 1.15 1.14 1.16 1.16 1.19
2519.245 1.25 1.28 1.3 1.35 1.39 1.41 1.46 1.5 1.5 1.5
2557.825 1.49 1.52 1.54 1.5 1.49 1.52 1.51 1.45 1.44 1.42
2596.404 1.39 1.39 1.38 1.36 1.29 1.19 1.08 1.05 1.02 0.9953
2634.984 0.9811 0.9721 0.9713 0.9465 0.9029 0.8827 0.8824 0.8803 0.8668 0.8406
2673.563 0.872 0.8945 0.8866 0.9136 0.9354 0.963 1.02 1.04 1.06 1.11
2712.143 1.13 1.17 1.21 1.24 1.28 1.28 1.27 1.25 1.26 1.23
2750.722 1.17 1.19 1.18 1.15 1.16 1.2 1.24 1.31 1.35 1.4
2789.302 1.52 1.64 1.75 1.86 2.04 2.32 2.62 3.02 3.54 4.16
2827.882 4.96 5.9 6.83 7.67 8.22 8.27 7.99 7.55 7.27 7.39
2866.461 7.84 8.46 9.09 9.62 9.97 10.07 9.91 9.65 9.38 9.2
2905.041 9.36 9.82 10.54 11.5 12.57 13.68 14.82 15.96 17.12 18.27
2943.620 19.12 19.24 18.49 17.29 16.04 14.86 13.66 12.35 10.95 9.64
2982.200 8.67 8.05 7.87 8.12 8.77 9.76 10.78 11.38 11.32 10.84
3020.779 10.58 11.14 12.49 14.21 15.58 15.9 15.05 13.7 12.59 12.09
3059.359 12.34 13.28 14.78 15.89 15.3 12.99 10.52 8.98 8.08 7.29
3097.938 6.47 5.65 4.99 4.45 3.92 3.36 2.82 2.32 1.94 1.67
3136.518 1.49 1.35 1.2 1.19 1.18 1.11 1.11 1.14 1.13 1.09
3175.098 1.03 0.9831 0.9827 0.9876 0.9897 0.9773 0.9509 0.937 0.8754 0.8148
3213.677 0.7845 0.748 0.7237 0.6803 0.6303 0.601 0.5916 0.6138 0.5954 0.5686
3252.257 0.5764 0.5451 0.5452 0.5677 0.5273 0.5359 0.536 0.491 0.4783 0.4948
3290.836 0.5321 0.5893 0.539 0.491 0.5388 0.5906 0.5939 0.5434 0.5346 0.5447
3329.416 0.5191 0.5087 0.4896 0.4681 0.4995 0.5049 0.5029 0.4775 0.5063 0.5224
3367.995 0.4948 0.5144 0.5086 0.4599 0.4519 0.5236 0.5325 0.501 0.5221 0.5045
3406.575 0.4818 0.4927 0.5318 0.5312 0.4723 0.4732 0.4927 0.4805 0.5033 0.5306
3445.154 0.5353 0.5327 0.4844 0.4996 0.5125 0.5265 0.5719 0.5503 0.5575 0.5692
3483.734 0.603 0.6264 0.5833 0.5468 0.5581 0.5137 0.4948 0.559 0.5831 0.5762
3522.314 0.5443 0.4819 0.4905 0.5158 0.4956 0.5382 0.5423 0.4942 0.5088 0.5559
3560.893 0.5577 0.6033 0.6291 0.5921 0.5617 0.5848 0.5632 0.5225 0.5166 0.5013
3599.473 0.5216 0.5086 0.5198 0.5962 0.6243 0.6069 0.6082 0.628 0.5975 0.5505
3638.052 0.5917 0.6311 0.7013 0.7217 0.6377 0.6652 0.6895 0.6298 0.647 0.6789
3676.632 0.6967 0.643 0.6417 0.6938 0.6821 0.6558 0.6237 0.6318 0.6183 0.6015
3715.211 0.5976 0.6061 0.5972 0.5788 0.5778 0.5699 0.591 0.598 0.563 0.5843
3753.791 0.5973 0.5507 0.5459 0.6085 0.6298 0.5954 0.5815 0.5994 0.5529 0.5598
3792.370 0.5659 0.5533 0.6014 0.5678 0.6036 0.6171 0.6323 0.6646 0.6231 0.6393
3830.950 0.6861 0.6912 0.7113 0.7331 0.6935 0.6432 0.7198 0.7945 0.7927 0.8079
3869.530 0.8241 0.7463 0.7073 0.795 0.8316 0.7968 0.7803 0.7636 0.7221 0.6918
3908.109 0.672 0.6969 0.7085 0.7634 0.7893 0.6924 0.6327 0.6889 0.7183 0.7402
3946.689 0.7426 0.7489 0.7555 0.7181 0.7149 0.7411 0.753 0.7578 0.7933 0.7643
3985.268 0.715 0.6817 0.6926 0.7405 0.6746
##END=
