##TITLE=4-Methyl-3-hexanone
##JCAMP-DX=4.24
##DATA TYPE=INFRARED SPECTRUM
##ORIGIN=NIST Mass Spectrometry Data Center
##OWNER=NIST Standard Reference Data Program
Collection (C) 2018 copyright by the U.S. Secretary of Commerce
on behalf of the United States of America. All rights reserved.
##CAS REGISTRY NO=17042-16-9
##MOLFORM=C 7 H 14 O
##$NIST SOURCE=MSDC-IR
##SPECTROMETER/DATA SYSTEM=HP-GC/MS/IRD
##STATE=gas
##XUNITS=1/CM
##YUNITS=ABSORBANCE
##XFACTOR=1.0
##YFACTOR=0.000002300
##DELTAX=4.0
##FIRSTX=550.0
##LASTX=3846.0
##FIRSTY=0.000083
##MAXX=3846
##MINX=550
##MAXY=0.023
##MINY=0
##NPOINTS=825
##XYDATA=(X++(Y..Y))
550.0 36 54 119 141 134 120 101 103 131 129
590.0 89 90 79 68 58 69 82 85 72 42
630.0 49 57 53 67 66 57 69 67 51 41
670.0 43 27 1 8 16 21 32 42 45 40
710.0 32 20 20 34 49 69 75 86 110 115
750.0 107 130 151 156 180 207 207 203 216 223
790.0 231 241 257 256 247 246 252 248 184 195
830.0 239 229 233 225 207 199 184 155 132 114
870.0 102 88 87 82 65 75 90 93 96 118
910.0 159 188 224 313 448 611 803 1002 1189 1356
950.0 1476 1548 1584 1602 1592 1538 1468 1365 1223 1063
990.0 927 875 867 897 966 1047 1113 1163 1189 1171
1030.0 1118 1048 937 828 752 702 676 645 639 684
1070.0 750 842 971 1159 1380 1603 1795 1907 1927 1880
1110.0 1741 1534 1320 1114 963 861 785 743 738 747
1150.0 765 814 917 1036 1134 1193 1220 1192 1088 966
1190.0 838 718 609 496 412 357 314 285 271 282
1230.0 298 307 325 349 393 439 464 476 475 468
1270.0 476 469 457 461 477 496 522 553 585 623
1310.0 670 744 817 900 999 1087 1170 1257 1354 1438
1350.0 1498 1534 1560 1578 1601 1652 1713 1760 1788 1755
1390.0 1637 1435 1213 1038 928 876 868 893 934 966
1430.0 1009 1081 1202 1384 1615 1910 2196 2420 2540 2496
1470.0 2294 1986 1642 1274 952 718 563 454 379 321
1510.0 280 262 234 214 200 180 167 158 148 145
1550.0 138 132 123 131 143 141 131 126 131 139
1590.0 142 141 142 141 146 157 165 175 180 179
1630.0 188 199 210 221 243 262 279 317 373 439
1670.0 514 613 739 896 1112 1389 1780 2339 3126 4095
1710.0 5199 6289 7254 7917 8012 7355 6125 4793 3547 2467
1750.0 1664 1145 835 636 492 400 328 267 220 184
1790.0 156 136 118 109 107 93 86 81 78 76
1830.0 69 65 62 53 53 61 59 56 57 53
1870.0 43 38 42 44 41 38 35 32 38 40
1910.0 27 21 27 22 24 25 25 25 19 16
1950.0 23 33 39 31 22 25 27 25 20 18
1990.0 16 18 20 20 23 22 18 20 23 23
2030.0 26 22 20 18 9 6 16 20 14 17
2070.0 11 4 11 13 12 9 1 13 19 5
2110.0 8 11 8 7 11 16 14 16 16 11
2150.0 10 22 16 4 6 7 9 8 13 15
2190.0 6 9 12 1 2 12 17 11 9 12
2230.0 7 3 7 14 8 9 12 15 17 15
2270.0 15 17 10 6 11 16 19 17 17 17
2310.0 15 14 19 23 26 26 24 24 18 24
2350.0 24 18 18 14 15 24 28 26 32 35
2390.0 29 22 22 30 34 32 35 29 22 26
2430.0 26 29 30 30 35 33 37 34 33 29
2470.0 23 23 24 28 34 32 24 26 23 15
2510.0 18 28 26 14 14 22 26 22 15 11
2550.0 12 28 27 27 25 24 37 39 33 26
2590.0 24 23 26 31 36 40 43 40 36 35
2630.0 31 36 47 47 46 42 44 50 62 71
2670.0 67 66 72 68 72 82 80 80 85 92
2710.0 94 97 110 124 141 160 166 174 191 205
2750.0 204 201 203 201 199 196 202 210 226 242
2790.0 261 290 312 335 364 402 436 468 502 545
2830.0 590 634 701 781 864 980 1160 1413 1723 2096
2870.0 2540 3051 3583 4025 4346 4541 4598 4545 4431 4366
2910.0 4411 4568 4843 5198 5596 6047 6490 6855 7071 7119
2950.0 7083 7128 7417 7980 8774 9567 10000 9928 9280 8088
2990.0 6601 5149 3915 2965 2268 1772 1434 1200 1029 903
3030.0 800 728 664 607 560 511 487 463 431 411
3070.0 390 373 356 342 342 323 309 315 311 304
3110.0 282 265 255 245 234 222 216 222 215 208
3150.0 209 201 202 206 196 177 160 155 155 138
3190.0 124 117 107 104 88 78 85 75 62 57
3230.0 47 41 51 47 34 25 21 30 16 20
3270.0 33 20 23 17 18 30 37 47 35 30
3310.0 36 32 33 36 30 24 30 33 30 23
3350.0 24 18 25 41 42 34 36 52 47 54
3390.0 66 67 81 86 100 106 116 142 154 157
3430.0 157 160 149 136 127 109 82 68 68 67
3470.0 60 52 47 37 39 48 40 24 22 14
3510.0 12 21 33 33 22 27 18 15 4 7
3550.0 37 24 8 10 5 0 11 27 26 22
3590.0 14 10 27 41 20 17 16 3 24 33
3630.0 25 15 19 26 14 16 31 28 12 14
3670.0 15 24 32 26 25 27 25 23 28 33
3710.0 25 16 23 34 41 31 6 9 6 0
3750.0 7 19 32 30 32 31 22 23 33 23
3790.0 9 18 36 39 30 23 25 30 24 24
3830.0 34 25 28 37 33
##END=
