##TITLE=6-Methylchrysene
##JCAMP-DX=4.24
##DATA TYPE=INFRARED SPECTRUM
##ORIGIN=NIST Mass Spectrometry Data Center
##OWNER=NIST Standard Reference Data Program
Collection (C) 2018 copyright by the U.S. Secretary of Commerce
on behalf of the United States of America. All rights reserved.
##CAS REGISTRY NO=1705-85-7
##MOLFORM=C 19 H 14
##$NIST SOURCE=MSDC-IR
##SPECTROMETER/DATA SYSTEM=HP-GC/MS/IRD
##STATE=gas
##XUNITS=1/CM
##YUNITS=ABSORBANCE
##XFACTOR=1.0
##YFACTOR=0.000001500
##DELTAX=4.0
##FIRSTX=550.0
##LASTX=3846.0
##FIRSTY=0.000914
##MAXX=3846
##MINX=550
##MAXY=0.015
##MINY=0
##NPOINTS=825
##XYDATA=(X++(Y..Y))
550.0 609 1047 908 904 779 536 416 383 355 345
590.0 351 356 280 233 184 147 152 159 188 191
630.0 161 163 221 366 603 763 634 356 207 205
670.0 286 506 762 796 564 323 234 178 174 190
710.0 214 241 295 359 388 501 865 1620 3177 5681
750.0 8573 10000 8582 5617 3064 1549 907 712 664 608
790.0 497 452 556 895 1491 2298 2746 2233 1422 795
830.0 416 294 248 224 223 305 458 730 1096 1521
870.0 1638 1375 1053 730 450 253 176 136 115 95
910.0 77 84 102 124 124 117 149 177 207 197
950.0 139 113 92 73 61 66 68 87 135 168
990.0 186 164 133 147 187 215 288 391 527 812
1030.0 1119 1198 942 550 293 176 113 72 56 48
1070.0 46 37 15 7 36 34 33 72 108 113
1110.0 87 84 84 91 95 108 129 157 199 240
1150.0 286 323 321 289 261 249 252 282 341 392
1190.0 451 507 467 389 354 368 437 475 472 483
1230.0 508 613 754 831 773 629 487 369 280 218
1270.0 195 187 180 191 196 198 197 184 163 144
1310.0 141 138 140 140 134 137 158 172 167 166
1350.0 171 176 183 207 229 248 297 406 534 618
1390.0 680 745 807 830 818 746 678 689 790 971
1430.0 1128 1161 1090 1001 923 827 739 682 643 611
1470.0 590 635 748 807 714 547 421 396 470 576
1510.0 680 746 754 696 599 496 381 297 250 212
1550.0 197 193 193 176 174 193 224 270 370 536
1590.0 732 900 1025 1053 972 840 716 619 541 469
1630.0 378 284 207 171 171 159 144 140 146 185
1670.0 236 292 349 393 414 402 407 386 328 284
1710.0 277 311 355 363 351 363 347 300 282 333
1750.0 415 424 370 295 233 190 153 147 173 195
1790.0 218 251 271 282 279 257 247 274 315 316
1830.0 258 185 133 101 76 64 58 61 72 88
1870.0 112 151 208 264 291 296 299 306 329 352
1910.0 352 312 262 235 247 322 433 503 460 319
1950.0 178 102 61 38 32 30 28 28 23 24
1990.0 26 25 27 28 28 35 29 29 32 25
2030.0 23 24 17 8 17 24 16 19 27 30
2070.0 35 33 33 34 37 38 29 29 27 22
2110.0 18 12 10 11 5 16 22 25 21 18
2150.0 26 24 18 15 13 10 18 30 33 32
2190.0 31 26 21 18 10 4 12 21 22 21
2230.0 18 25 33 28 19 20 23 15 6 11
2270.0 19 26 37 30 21 32 46 55 51 50
2310.0 52 55 62 57 46 45 51 50 44 32
2350.0 25 24 30 34 33 33 32 30 28 31
2390.0 27 27 31 29 25 24 27 30 31 27
2430.0 25 26 31 42 47 38 42 36 31 42
2470.0 33 28 55 58 55 76 65 53 56 52
2510.0 50 42 34 34 36 39 24 21 31 28
2550.0 27 32 26 26 30 23 9 22 53 52
2590.0 44 34 33 43 41 31 28 28 34 29
2630.0 27 28 29 35 26 30 37 35 28 36
2670.0 24 17 26 18 21 18 8 4 14 23
2710.0 25 32 30 32 27 24 50 73 72 74
2750.0 87 85 76 62 32 25 37 29 18 18
2790.0 40 47 33 47 55 49 63 79 81 91
2830.0 117 129 135 156 180 222 279 349 424 472
2870.0 519 588 617 596 560 525 532 607 716 815
2910.0 882 925 936 959 1075 1277 1451 1482 1342 1170
2950.0 1113 1090 1003 892 827 866 997 1128 1119 953
2990.0 768 669 654 686 758 836 932 1087 1249 1385
3030.0 1507 1643 1834 2082 2383 2696 2968 3265 3622 3978
3070.0 4189 4221 4201 4176 4025 3660 3130 2462 1801 1276
3110.0 899 693 563 447 374 321 262 211 191 181
3150.0 157 130 112 95 105 95 77 82 84 67
3190.0 67 93 92 81 69 90 97 92 78 46
3230.0 31 35 32 27 18 7 16 22 18 12
3270.0 9 25 37 20 21 23 14 12 34 46
3310.0 32 31 14 7 22 23 14 2 0 12
3350.0 31 45 34 14 19 13 5 9 8 32
3390.0 52 47 24 7 12 19 20 22 27 26
3430.0 36 36 23 28 26 31 23 10 27 47
3470.0 52 52 54 59 60 62 59 26 17 34
3510.0 25 35 15 21 63 43 51 68 66 64
3550.0 59 65 71 50 34 33 37 66 94 76
3590.0 48 34 39 53 76 111 87 31 5 15
3630.0 64 75 59 51 45 62 76 45 23 33
3670.0 58 63 57 62 68 56 34 32 51 65
3710.0 55 67 87 89 68 52 75 87 94 111
3750.0 90 49 46 59 80 40 38 81 55 50
3790.0 64 63 77 75 67 95 109 94 76 79
3830.0 69 76 51 48 56
##END=
