##TITLE=2-Chloro-6-fluorobenzyl mercaptan
##JCAMP-DX=4.24
##DATA TYPE=INFRARED SPECTRUM
##ORIGIN=EPA-IR VAPOR PHASE LIBRARY
##OWNER=SRD/NIST
Collection (C) 2018 copyright by the U.S. Secretary of Commerce
on behalf of the United States of America. All rights reserved.
##CAS REGISTRY NO=170924-52-4
##MOLFORM=C 7 H 6 Cl F S
##$NIST SOURCE=MSDC-IR
##STATE=gas
##XUNITS=1/CM
##YUNITS=ABSORBANCE
##XFACTOR=1.
##YFACTOR=0.001
##DELTAX=1.929
##FIRSTX=549.8
##LASTX=4000.8
##FIRSTY=2.414
##MAXX=4000.75
##MINX=549.766
##MAXY=0.104844
##MINY=0
##NPOINTS=1790
##XYDATA=(X++(Y..Y))
549.766 2.414 2.134 1.964 1.994 2.154 2.124 1.904 1.644 1.574 1.844
569.056 1.614 1.264 1.0741 1.0022 1.304 1.304 1.324 1.0646 0.964 1.154
588.346 0.9607 1.0004 1.254 1.284 1.234 1.144 1.134 1.204 1.354 1.454
607.636 1.614 1.854 1.974 2.314 2.704 3.124 3.554 3.794 4.034 4.334
626.926 4.474 4.194 3.884 3.614 3.094 2.784 2.544 2.244 2.124 1.894
646.216 1.864 2.024 2.144 2.324 2.504 2.604 2.714 2.894 3.104 3.714
665.506 4.464 5.294 6.454 7.874 9.474 11.194 12.824 14.414 16.124 17.384
684.796 17.964 17.204 15.104 12.954 11.244 9.614 7.814 6.214 4.964 4.004
704.086 3.494 3.164 2.964 2.994 3.224 3.564 3.974 4.514 5.104 5.824
723.376 6.544 7.394 8.274 9.244 10.094 10.324 10.324 10.314 10.014 9.674
742.666 9.314 8.954 8.794 8.814 9.004 9.664 10.854 12.544 14.774 17.394
761.956 20.404 24.184 29.144 34.884 40.174 43.744 46.274 48.884 51.364 54.174
781.246 56.894 56.224 50.104 41.884 35.344 30.274 25.384 20.614 16.194 12.354
800.536 9.594 7.854 6.794 6.304 6.144 6.264 6.214 6.014 6.134 6.154
819.826 6.154 6.024 5.674 5.224 4.814 4.504 4.214 3.964 3.884 3.894
839.116 4.024 4.234 4.314 4.574 4.904 5.234 5.634 6.104 6.794 7.734
858.406 8.914 10.264 11.954 14.194 16.974 20.314 24.044 28.074 31.994 35.654
877.696 38.924 41.634 43.564 44.644 44.984 44.434 42.824 40.254 37.234 34.174
896.986 31.224 28.604 26.294 24.044 21.994 20.424 19.194 18.194 17.524 17.124
916.276 16.774 16.324 15.904 15.464 14.934 14.454 13.844 13.194 12.584 11.914
935.566 11.234 10.584 10.034 9.624 9.214 8.924 8.914 8.934 8.914 9.084
954.856 9.384 9.804 10.584 11.164 11.394 12.134 13.334 14.854 16.844 19.214
974.146 21.964 25.004 28.104 30.834 32.924 34.184 34.444 33.824 32.484 30.404
993.436 27.524 23.984 20.264 16.744 13.884 11.704 9.994 8.684 7.774 7.144
1012.726 6.544 6.014 5.694 5.414 5.244 5.114 4.854 4.684 4.554 4.474
1032.016 4.294 3.984 3.794 3.614 3.454 3.314 3.194 3.194 3.094 3.144
1051.306 3.334 3.504 3.724 3.914 4.114 4.354 4.484 4.424 4.144 3.804
1070.596 3.574 3.284 2.944 2.614 2.394 2.314 2.264 2.164 2.184 2.324
1089.886 2.304 2.264 2.234 2.244 2.354 2.474 2.574 2.724 2.884 3.004
1109.176 3.154 3.384 3.724 4.024 4.454 5.124 5.914 6.914 8.024 9.094
1128.467 10.094 11.014 11.674 12.044 12.114 11.864 11.334 10.584 9.794 9.034
1147.757 8.284 7.414 6.634 6.174 5.884 5.594 5.284 5.014 4.704 4.504
1167.047 4.544 4.784 5.334 6.284 7.704 9.494 11.444 13.684 15.914 17.844
1186.337 19.384 20.454 20.864 20.294 19.034 17.664 16.074 14.334 12.714 11.314
1205.627 10.214 9.354 8.834 8.544 8.404 8.214 7.974 7.854 7.774 7.874
1224.917 8.244 8.994 10.304 12.434 15.574 19.994 25.604 32.244 39.544 46.944
1244.207 53.844 59.974 64.904 68.114 69.534 68.794 65.634 60.414 53.704 46.214
1263.497 38.894 32.294 26.294 20.794 15.984 12.134 9.354 7.454 6.264 5.554
1282.787 5.074 4.694 4.394 4.164 3.914 3.674 3.414 3.094 2.844 2.624
1302.077 2.394 2.254 2.154 2.064 1.984 1.904 1.834 1.744 1.744 1.804
1321.367 1.854 1.954 2.074 2.164 2.314 2.474 2.564 2.734 2.934 3.074
1340.657 3.184 3.274 3.264 3.114 2.934 2.704 2.514 2.364 2.174 1.954
1359.947 1.744 1.554 1.444 1.394 1.374 1.374 1.374 1.404 1.474 1.494
1379.237 1.474 1.534 1.654 1.694 1.764 1.914 2.064 2.174 2.244 2.404
1398.527 2.514 2.614 2.804 2.934 3.104 3.294 3.504 3.894 4.364 4.924
1417.817 5.784 6.934 8.284 9.894 11.804 13.964 16.644 19.924 23.924 28.214
1437.107 33.214 39.384 47.154 56.064 65.194 73.814 81.884 89.494 96.694 102.264
1456.397 104.844 104.094 100.074 93.564 85.684 76.894 67.314 56.944 46.464 36.484
1475.687 28.244 21.494 16.314 12.454 9.814 8.024 6.844 6.084 5.624 5.404
1494.977 5.294 5.294 5.394 5.464 5.614 5.764 5.954 6.294 6.634 6.974
1514.267 7.384 7.664 7.874 8.084 8.364 8.664 8.754 8.744 8.704 8.534
1533.557 8.334 8.234 8.124 7.884 7.764 7.714 7.774 8.014 8.464 9.194
1552.847 10.224 11.604 13.314 15.644 18.674 22.094 26.364 31.354 36.754 42.494
1572.137 47.774 52.044 55.394 57.574 58.354 57.714 55.494 51.664 46.794 41.874
1591.427 38.004 35.644 34.544 34.064 33.594 32.814 31.484 29.554 27.054 24.044
1610.717 20.864 17.624 14.584 11.734 9.314 7.474 6.024 4.944 4.184 3.614
1630.007 3.154 2.884 2.654 2.424 2.244 2.164 2.134 2.044 1.994 2.014
1649.297 2.054 2.064 2.084 2.164 2.184 2.184 2.184 2.114 2.024 2.014
1668.587 1.934 1.834 1.774 1.694 1.664 1.604 1.584 1.584 1.524 1.564
1687.877 1.594 1.584 1.544 1.474 1.434 1.384 1.324 1.284 1.244 1.224
1707.167 1.194 1.164 1.1234 1.0791 1.0497 1.0621 1.0839 1.0981 1.0709 1.0787
1726.457 1.0814 1.0381 1.0778 1.0938 1.0268 0.98 1.0219 1.0935 1.164 1.284
1745.747 1.474 1.684 1.904 2.184 2.524 2.744 2.884 2.954 2.934 2.834
1765.037 2.594 2.304 1.954 1.654 1.374 1.124 0.9578 0.8124 0.741 0.7602
1784.327 0.7324 0.6836 0.6694 0.6359 0.604 0.5789 0.589 0.6235 0.6178 0.613
1803.617 0.6391 0.6474 0.6509 0.6642 0.6923 0.748 0.7829 0.8001 0.8504 0.9856
1822.907 1.174 1.404 1.694 1.954 2.284 2.634 2.834 2.884 2.824 2.784
1842.197 2.674 2.444 2.174 1.874 1.534 1.254 1.0897 0.9446 0.8698 0.8456
1861.487 0.786 0.7953 0.8296 0.8408 0.8524 0.8495 0.8661 0.8695 0.8401 0.8091
1880.777 0.7752 0.7232 0.7782 0.8055 0.753 0.7729 0.8483 0.8907 0.955 1.164
1900.067 1.384 1.694 2.074 2.474 2.944 3.414 3.794 4.054 4.134 4.064
1919.357 3.844 3.484 3.064 2.604 2.074 1.524 1.154 0.9408 0.7839 0.6501
1938.647 0.5636 0.566 0.5802 0.5777 0.5447 0.5045 0.4916 0.5056 0.5004 0.4759
1957.937 0.4415 0.4397 0.5011 0.5414 0.5327 0.5182 0.5397 0.5477 0.5164 0.5157
1977.227 0.5131 0.4979 0.499 0.4804 0.4753 0.4667 0.4213 0.4219 0.447 0.4486
1996.517 0.4375 0.4488 0.4436 0.4188 0.4261 0.4269 0.3935 0.4247 0.5017 0.4644
2015.807 0.4464 0.4745 0.4669 0.4627 0.5054 0.5249 0.4934 0.4817 0.448 0.4578
2035.097 0.4786 0.4471 0.3795 0.3239 0.3658 0.3935 0.3899 0.4096 0.4161 0.369
2054.387 0.3749 0.4231 0.4115 0.4468 0.4776 0.4986 0.5391 0.5344 0.5543 0.5821
2073.677 0.5782 0.5406 0.5465 0.563 0.5683 0.6052 0.5577 0.5516 0.5246 0.4722
2092.967 0.5412 0.5657 0.536 0.4918 0.4741 0.5374 0.576 0.5846 0.5798 0.594
2112.257 0.6386 0.6666 0.7124 0.7323 0.7283 0.7236 0.7435 0.8 0.7933 0.8061
2131.547 0.8351 0.8133 0.7724 0.718 0.7024 0.6909 0.6407 0.6122 0.5776 0.5052
2150.837 0.4554 0.4356 0.4458 0.4316 0.4275 0.4423 0.453 0.4237 0.3899 0.362
2170.127 0.318 0.3351 0.368 0.3823 0.3597 0.3465 0.3723 0.3614 0.3528 0.3721
2189.417 0.403 0.4317 0.4568 0.5174 0.5001 0.4601 0.4989 0.5412 0.5453 0.5234
2208.707 0.5005 0.518 0.5438 0.5373 0.5445 0.5227 0.5219 0.534 0.5407 0.5298
2227.997 0.5014 0.5462 0.5353 0.4877 0.4794 0.4252 0.4095 0.4671 0.4425 0.3546
2247.287 0.3061 0.356 0.4252 0.4408 0.4108 0.4077 0.44 0.4183 0.4152 0.4502
2266.577 0.4692 0.4126 0.4181 0.4813 0.5097 0.4911 0.464 0.4804 0.4318 0.4375
2285.868 0.4956 0.4969 0.4679 0.4366 0.4579 0.4888 0.5213 0.5619 0.5776 0.5789
2305.158 0.6327 0.7017 0.6999 0.6361 0.5864 0.6036 0.5895 0.5208 0.4896 0.5109
2324.448 0.5021 0.5057 0.5366 0.544 0.5509 0.5417 0.5368 0.6107 0.6126 0.5603
2343.738 0.5678 0.538 0.5412 0.5545 0.5135 0.479 0.4665 0.437 0.3993 0.3918
2363.028 0.4054 0.3791 0.3564 0.363 0.379 0.3921 0.4081 0.4187 0.4091 0.4157
2382.318 0.48 0.496 0.4484 0.4423 0.4226 0.4134 0.4386 0.3943 0.3683 0.4074
2401.608 0.3918 0.3884 0.3848 0.3734 0.3678 0.3642 0.4324 0.4099 0.3788 0.4639
2420.898 0.4885 0.5062 0.5739 0.583 0.5792 0.6139 0.6327 0.6737 0.7161 0.7803
2440.188 0.8113 0.8356 0.8624 0.8236 0.7574 0.7427 0.7361 0.6642 0.6814 0.6983
2459.478 0.6626 0.6168 0.5841 0.6338 0.6227 0.5756 0.5728 0.5959 0.6257 0.6275
2478.768 0.6315 0.6572 0.6899 0.7665 0.8057 0.8895 0.9629 0.9518 0.9708 1.006
2498.058 1.0375 0.9809 0.9584 0.9221 0.8316 0.7875 0.7737 0.7391 0.6856 0.6638
2517.348 0.6633 0.6235 0.5359 0.4979 0.5265 0.493 0.4259 0.4362 0.4604 0.469
2536.638 0.462 0.4473 0.4536 0.4381 0.4439 0.4544 0.4148 0.37 0.3196 0.3111
2555.928 0.3082 0.2563 0.28 0.2951 0.3152 0.3352 0.2878 0.325 0.4248 0.4805
2575.218 0.4493 0.4594 0.5394 0.6566 0.7376 0.8519 0.9734 1.0225 1.1163 1.204
2594.508 1.224 1.144 1.036 1.0247 0.9102 0.7195 0.5872 0.4682 0.4179 0.3608
2613.798 0.3215 0.2929 0.25 0.2711 0.2843 0.259 0.2413 0.2525 0.3006 0.3096
2633.088 0.3318 0.398 0.4004 0.3841 0.4551 0.4946 0.4879 0.4811 0.4416 0.4656
2652.378 0.4834 0.48 0.4952 0.4797 0.4356 0.4313 0.4953 0.4961 0.4107 0.4131
2671.668 0.4357 0.3907 0.4913 0.5363 0.4422 0.5126 0.5764 0.579 0.6042 0.643
2690.958 0.6521 0.602 0.6659 0.6816 0.6966 0.6824 0.6239 0.6306 0.5791 0.5855
2710.248 0.5581 0.5317 0.4983 0.4446 0.3934 0.3403 0.3461 0.3591 0.3528 0.349
2729.538 0.3264 0.2657 0.3234 0.3602 0.2921 0.2738 0.3346 0.3248 0.2872 0.3803
2748.828 0.4037 0.3084 0.2255 0.20056 0.14708 0.1152 0.1124 0.0801 0.0921 0.17505
2768.118 0.1946 0.1627 0.132214 0.083 0.11663 0.131902 0.14733 0.19598 0.16704 0.104
2787.408 0.13526 0.18629 0.16127 0.15414 0.17338 0.0918 0.0489 0.1029 0.0971 0.0585
2806.698 0.0422 0.0872 0.15061 0.15383 0.1021 0.0626 0.126838 0.14581 0.0586 0.024
2825.988 0 0.039 0.0573 0.0716 0.1864 0.19679 0.16312 0.19058 0.3405 0.4268
2845.278 0.49 0.5291 0.5128 0.5528 0.5465 0.5682 0.5936 0.5987 0.6022 0.5633
2864.568 0.4326 0.362 0.3825 0.4292 0.4371 0.3196 0.2926 0.3592 0.3355 0.2754
2883.858 0.2366 0.2525 0.2826 0.3387 0.3192 0.14583 0.1001 0.0794 0.133254 0.20603
2903.148 0.15022 0.19548 0.146 0.0834 0.0614 0.0255 0.18135 0.3358 0.2551 0.20794
2922.438 0.22295 0.2836 0.3855 0.4372 0.5633 0.6738 0.7325 0.912 1.194 1.424
2941.728 1.584 1.814 1.974 2.224 2.484 2.634 2.914 3.154 3.304 3.654
2961.018 4.094 4.424 4.814 5.264 5.774 6.184 6.364 6.174 5.504 4.694
2980.308 4.094 3.634 3.124 2.584 2.134 1.784 1.434 1.224 1.214 1.1064
2999.598 1.0838 1.0983 1.069 1.0976 1.244 1.344 1.354 1.434 1.394 1.354
3018.888 1.404 1.384 1.294 1.174 1.1223 1.0652 0.972 1.025 0.9762 0.9325
3038.178 0.9124 0.9224 1.0541 1.1232 1.0855 1.0518 1.144 1.304 1.424 1.534
3057.468 1.744 1.954 2.174 2.484 2.954 3.554 4.274 4.994 5.674 6.324
3076.758 6.824 7.294 7.654 7.654 7.584 7.364 6.814 6.194 5.604 4.994
3096.048 4.334 3.664 2.964 2.244 1.614 1.214 0.9524 0.6562 0.454 0.4823
3115.338 0.4812 0.4465 0.4377 0.3471 0.3405 0.3802 0.4312 0.4122 0.3566 0.3276
3134.628 0.309 0.3671 0.3798 0.4446 0.4734 0.3791 0.22155 0.16958 0.3142 0.4653
3153.918 0.5317 0.4031 0.2392 0.2325 0.3697 0.4006 0.2324 0.124988 0.0672 0.0356
3173.208 0.0996 0.2391 0.20297 0.11734 0.13852 0.14402 0.129343 0.0948 0.0968 0.19108
3192.498 0.326 0.2913 0.1119 0.13536 0.2683 0.21744 0.20622 0.2394 0.19343 0.19741
3211.788 0.2282 0.20249 0.1062 0.0896 0.14466 0.14727 0.15559 0.21901 0.16003 0.0804
3231.078 0.2383 0.2415 0.09 0.125871 0.128941 0.14552 0.0986 0.0953 0.17257 0.1098
3250.368 0.18502 0.2507 0.19999 0.21338 0.3151 0.3169 0.2361 0.2944 0.3637 0.3288
3269.658 0.364 0.4792 0.4355 0.4224 0.4262 0.3549 0.3523 0.4111 0.3724 0.3271
3288.948 0.4331 0.3618 0.317 0.2853 0.2739 0.3294 0.2608 0.2673 0.3087 0.3293
3308.238 0.3306 0.2878 0.3127 0.3587 0.3169 0.2983 0.3446 0.3833 0.4304 0.452
3327.528 0.3562 0.2679 0.3538 0.3655 0.2884 0.2037 0.19019 0.4126 0.4097 0.357
3346.818 0.3955 0.3824 0.4264 0.473 0.4848 0.3973 0.4258 0.417 0.3217 0.2621
3366.108 0.326 0.3753 0.2989 0.2983 0.409 0.4508 0.3984 0.4386 0.3015 0.19767
3385.398 0.2983 0.3463 0.4246 0.5051 0.4832 0.4947 0.5231 0.4171 0.4819 0.5334
3404.688 0.4712 0.452 0.3517 0.2821 0.3398 0.4016 0.3812 0.292 0.2735 0.3126
3423.978 0.3891 0.575 0.5944 0.4641 0.4146 0.4482 0.4241 0.3263 0.3222 0.3981
3443.269 0.3669 0.3619 0.4587 0.5233 0.5639 0.4764 0.4512 0.4805 0.469 0.5061
3462.559 0.4245 0.3832 0.458 0.4467 0.4869 0.5765 0.4953 0.4903 0.4782 0.3581
3481.849 0.3804 0.4845 0.4616 0.479 0.593 0.4437 0.4194 0.5626 0.4477 0.4098
3501.139 0.471 0.4803 0.5093 0.6075 0.6179 0.4476 0.4056 0.4017 0.4528 0.4659
3520.429 0.4077 0.5566 0.6059 0.4861 0.3464 0.2776 0.3696 0.4764 0.4836 0.5136
3539.719 0.4617 0.3974 0.4717 0.5336 0.5212 0.5541 0.625 0.564 0.5167 0.6027
3559.009 0.6998 0.6413 0.5945 0.6445 0.6829 0.769 0.8391 0.7896 0.7482 0.8035
3578.299 0.8205 0.726 0.7126 0.7132 0.6763 0.6401 0.591 0.5822 0.5496 0.5769
3597.589 0.5929 0.5384 0.579 0.6181 0.5685 0.5523 0.6193 0.5914 0.5673 0.5998
3616.879 0.541 0.5765 0.5642 0.5451 0.5676 0.5831 0.5405 0.4115 0.5525 0.6513
3636.169 0.5314 0.5223 0.4877 0.4753 0.5626 0.5294 0.5339 0.5945 0.4645 0.3436
3655.459 0.4797 0.55 0.4084 0.3724 0.3893 0.4081 0.4472 0.4962 0.5146 0.4297
3674.749 0.4797 0.4804 0.3736 0.4498 0.572 0.6688 0.6495 0.4343 0.3626 0.378
3694.039 0.492 0.5835 0.6175 0.6425 0.481 0.4515 0.5463 0.5289 0.5409 0.5565
3713.329 0.5361 0.5386 0.4538 0.4735 0.5366 0.5218 0.5245 0.4982 0.5223 0.6039
3732.619 0.593 0.4868 0.3918 0.4776 0.5843 0.55 0.4876 0.4509 0.473 0.5469
3751.909 0.5624 0.5688 0.6207 0.6267 0.5898 0.4926 0.4775 0.4889 0.4669 0.4644
3771.199 0.4394 0.4856 0.6478 0.69 0.4947 0.355 0.3802 0.5039 0.6014 0.5942
3790.489 0.4606 0.3888 0.5403 0.5675 0.4328 0.4654 0.5273 0.4885 0.516 0.5826
3809.779 0.5163 0.4467 0.382 0.4688 0.4986 0.4422 0.4592 0.3402 0.3476 0.4544
3829.069 0.5599 0.6312 0.4777 0.3291 0.3997 0.3981 0.4579 0.5861 0.5468 0.5746
3848.359 0.502 0.3292 0.2503 0.2758 0.339 0.3393 0.4272 0.5392 0.5595 0.5176
3867.649 0.4317 0.4923 0.5207 0.5241 0.6721 0.7268 0.697 0.6335 0.5676 0.5917
3886.939 0.5691 0.672 0.7443 0.7232 0.7999 0.7943 0.7424 0.6632 0.6212 0.6286
3906.229 0.6886 0.6715 0.6366 0.622 0.6343 0.5859 0.5542 0.5397 0.509 0.5055
3925.519 0.4707 0.5162 0.5097 0.4597 0.5464 0.5852 0.4758 0.3399 0.2522 0.366
3944.809 0.4356 0.4633 0.6861 0.7206 0.5499 0.5198 0.6022 0.571 0.6234 0.6668
3964.099 0.5987 0.6063 0.6566 0.7271 0.7615 0.5903 0.5965 0.6035 0.4252 0.5061
3983.389 0.5955 0.5439 0.4217 0.4232 0.4781 0.4598 0.4139 0.4032 0.4659 0.4501
##END=
