##TITLE=3-Bromobenzoyl chloride
##JCAMP-DX=4.24
##DATA TYPE=INFRARED SPECTRUM
##ORIGIN=NIST Mass Spectrometry Data Center
##OWNER=NIST Standard Reference Data Program
Collection (C) 2018 copyright by the U.S. Secretary of Commerce
on behalf of the United States of America. All rights reserved.
##CAS REGISTRY NO=1711-09-7
##MOLFORM=C 7 H 4 Br Cl O
##$NIST SOURCE=MSDC-IR
##SPECTROMETER/DATA SYSTEM=HP-GC/MS/IRD
##STATE=gas
##XUNITS=1/CM
##YUNITS=ABSORBANCE
##XFACTOR=1.0
##YFACTOR=0.000019900
##DELTAX=4.0
##FIRSTX=550.0
##LASTX=3846.0
##FIRSTY=0.000876
##MAXX=3846
##MINX=550
##MAXY=0.199
##MINY=0
##NPOINTS=825
##XYDATA=(X++(Y..Y))
550.0 44 29 0 7 10 16 19 9 5 7
590.0 9 13 13 18 27 45 68 95 126 160
630.0 212 305 467 681 830 892 831 662 575 579
670.0 618 758 1104 1818 3034 5230 7955 8992 7839 4974
710.0 2524 1841 2075 2765 3485 3736 3328 2393 1390 768
750.0 505 400 365 353 354 390 489 662 886 1132
790.0 1321 1262 988 706 470 319 262 262 286 302
830.0 303 296 290 304 345 416 516 641 783 931
870.0 1096 1307 1599 2014 2610 3437 4412 5181 5584 5576
910.0 5109 4557 4078 3511 2781 2031 1496 1172 942 752
950.0 592 466 366 290 232 185 150 131 127 143
990.0 205 305 358 344 258 157 115 101 96 105
1030.0 117 131 143 159 190 229 282 370 474 601
1070.0 759 869 874 780 605 457 381 336 307 284
1110.0 264 241 224 218 221 232 258 312 404 535
1150.0 722 993 1389 1936 2593 3334 4510 6377 8537 10000
1190.0 9803 8045 5850 4069 2857 2069 1544 1204 987 831
1230.0 691 554 430 327 263 232 225 234 255 282
1270.0 302 307 300 286 281 282 279 264 233 189
1310.0 147 113 87 72 69 74 86 97 104 103
1350.0 96 87 83 84 91 109 138 181 235 286
1390.0 340 409 518 700 972 1276 1466 1436 1191 824
1430.0 513 334 250 223 230 266 339 471 663 879
1470.0 992 914 681 404 226 147 104 82 69 63
1510.0 60 60 64 70 79 93 115 156 223 329
1550.0 485 699 968 1240 1415 1418 1257 1005 775 610
1590.0 485 381 291 226 183 158 145 138 137 139
1630.0 137 129 115 102 94 90 86 81 79 77
1670.0 80 86 95 106 121 141 164 194 234 271
1710.0 302 328 363 423 516 643 795 965 1173 1451
1750.0 1873 2582 3744 5349 7114 8349 8486 7803 6431 4830
1790.0 3650 2989 2739 2684 2624 2422 2066 1644 1275 1019
1830.0 859 755 671 586 499 413 334 273 233 211
1870.0 200 196 193 192 196 200 198 179 148 113
1910.0 86 68 57 52 49 49 53 61 70 77
1950.0 78 70 59 46 32 24 19 15 14 14
1990.0 14 12 10 8 6 7 7 6 7 8
2030.0 8 9 11 10 11 13 13 17 20 24
2070.0 27 29 31 34 38 43 44 45 43 37
2110.0 28 22 16 10 8 6 5 5 4 3
2150.0 3 4 6 8 9 10 11 12 12 13
2190.0 14 13 14 13 10 9 9 7 5 4
2230.0 3 2 2 2 2 2 2 3 3 4
2270.0 5 7 6 7 8 6 5 6 5 5
2310.0 6 5 6 7 9 12 17 25 30 35
2350.0 38 40 43 40 38 38 36 33 30 26
2390.0 22 19 15 12 10 7 7 7 5 4
2430.0 3 5 7 8 10 11 13 15 17 16
2470.0 15 13 12 11 10 11 12 11 9 10
2510.0 13 14 14 15 16 17 18 17 19 19
2550.0 18 17 15 16 18 20 20 21 21 21
2590.0 20 17 16 14 11 9 8 7 7 8
2630.0 9 9 10 10 12 14 17 18 18 16
2670.0 13 12 13 13 12 11 9 10 11 10
2710.0 8 8 9 10 13 14 16 18 24 29
2750.0 34 38 42 46 48 47 47 43 34 26
2790.0 19 14 13 11 9 7 5 8 10 9
2830.0 9 10 11 13 13 11 12 13 14 14
2870.0 13 11 10 8 9 8 7 3 4 6
2910.0 6 7 10 12 12 12 17 20 22 21
2950.0 17 17 20 23 21 20 20 21 22 21
2990.0 18 19 22 20 21 25 30 33 32 31
3030.0 32 31 31 32 34 46 66 101 153 227
3070.0 314 389 422 397 326 232 152 99 67 46
3110.0 35 29 24 24 26 25 26 27 27 27
3150.0 25 21 19 19 17 14 12 10 8 9
3190.0 8 6 7 7 6 9 8 7 5 5
3230.0 4 4 7 6 5 6 8 6 6 7
3270.0 6 4 4 5 4 3 3 4 5 5
3310.0 3 5 8 6 7 8 10 11 12 14
3350.0 16 14 16 18 17 16 15 15 13 11
3390.0 12 13 12 14 13 11 9 11 14 13
3430.0 14 13 12 12 13 11 11 16 18 18
3470.0 19 22 25 28 31 33 35 40 48 62
3510.0 80 98 116 133 142 147 137 120 104 91
3550.0 82 76 69 63 58 53 47 44 43 39
3590.0 37 36 31 28 28 26 22 20 22 20
3630.0 20 23 20 19 18 17 18 19 18 19
3670.0 18 16 15 16 15 15 16 15 14 14
3710.0 12 13 17 17 15 16 18 21 22 21
3750.0 24 23 23 22 20 19 18 19 19 18
3790.0 17 17 16 15 16 15 15 17 15 12
3830.0 12 10 9 10 12
##END=
