##TITLE=2-Methyl-1,5-hexadiene-3-ol
##JCAMP-DX=4.24
##DATA TYPE=INFRARED SPECTRUM
##ORIGIN=NIST Mass Spectrometry Data Center
##OWNER=NIST Standard Reference Data Program
Collection (C) 2018 copyright by the U.S. Secretary of Commerce
on behalf of the United States of America. All rights reserved.
##CAS REGISTRY NO=17123-60-3
##MOLFORM=C 7 H 12 O
##$NIST SOURCE=MSDC-IR
##SPECTROMETER/DATA SYSTEM=HP-GC/MS/IRD
##STATE=gas
##XUNITS=1/CM
##YUNITS=ABSORBANCE
##XFACTOR=1.0
##YFACTOR=0.000000900
##DELTAX=4.0
##FIRSTX=550.0
##LASTX=3846.0
##FIRSTY=0.001084
##MAXX=3846
##MINX=550
##MAXY=0.009
##MINY=0
##NPOINTS=825
##XYDATA=(X++(Y..Y))
550.0 1204 938 748 719 740 818 641 658 661 590
590.0 529 443 461 636 751 770 922 1025 1147 1179
630.0 1093 1041 927 822 701 527 425 358 266 232
670.0 225 201 226 218 218 200 112 61 109 194
710.0 168 69 100 156 174 219 177 63 69 91
750.0 34 22 38 57 105 124 138 177 163 174
790.0 195 192 189 227 236 213 286 381 453 466
830.0 522 660 700 809 1023 1217 1375 1556 1799 2027
870.0 2218 2444 2844 3498 4415 5643 7077 8415 9501 10000
910.0 9882 9313 8401 7222 6037 5034 4109 3403 2890 2561
950.0 2396 2371 2398 2504 2696 2928 3305 3893 4570 5250
990.0 5910 6481 6884 7158 7366 7515 7600 7619 7621 7592
1030.0 7465 7252 7037 6821 6605 6348 6056 5723 5350 4952
1070.0 4472 3988 3546 3134 2806 2543 2397 2282 2157 2094
1110.0 2044 1973 1921 1851 1712 1605 1422 1205 1085 1039
1150.0 1016 966 928 991 1089 1175 1294 1450 1650 1880
1190.0 2054 2213 2419 2573 2682 2723 2741 2756 2731 2740
1230.0 2708 2648 2589 2520 2447 2412 2366 2355 2346 2379
1270.0 2419 2390 2369 2322 2280 2279 2228 2177 2108 2019
1310.0 2005 2017 2017 2017 2032 2079 2102 2100 2140 2221
1350.0 2317 2457 2638 2808 2965 3095 3175 3197 3095 2929
1390.0 2731 2538 2408 2341 2310 2311 2338 2418 2560 2720
1430.0 2872 3051 3196 3254 3232 3161 2976 2683 2384 2075
1470.0 1765 1442 1161 958 804 710 629 531 464 436
1510.0 416 388 349 332 307 276 274 306 342 336
1550.0 310 335 322 295 297 299 324 332 339 367
1590.0 384 390 436 514 600 716 877 1088 1381 1822
1630.0 2340 2821 3203 3406 3404 3153 2620 2016 1501 1108
1670.0 804 541 378 294 191 148 151 122 89 65
1710.0 69 83 60 43 42 27 18 15 0 14
1750.0 33 10 6 21 30 49 69 71 112 182
1790.0 243 306 374 433 486 534 562 584 587 603
1830.0 604 596 608 577 506 410 297 215 164 138
1870.0 117 99 91 68 44 21 45 56 33 38
1910.0 46 29 14 20 14 4 6 29 34 18
1950.0 22 37 47 55 63 60 68 63 73 65
1990.0 44 35 18 21 25 40 37 33 39 24
2030.0 28 37 32 39 49 47 39 49 56 43
2070.0 45 76 65 45 44 53 57 38 19 30
2110.0 41 38 69 59 32 46 55 41 46 62
2150.0 61 51 43 29 18 30 45 38 20 29
2190.0 43 37 51 93 79 61 71 59 63 71
2230.0 55 35 48 54 39 25 39 71 82 76
2270.0 70 76 82 86 98 77 38 48 68 70
2310.0 63 65 86 86 88 93 91 80 65 70
2350.0 64 61 61 76 85 81 78 74 71 63
2390.0 80 99 63 59 73 70 76 104 92 59
2430.0 90 102 92 88 91 89 65 54 53 64
2470.0 63 56 64 70 65 67 91 79 66 75
2510.0 68 70 82 61 22 38 83 73 79 115
2550.0 102 98 102 110 131 115 99 96 85 91
2590.0 127 126 114 104 98 107 100 102 136 148
2630.0 148 130 129 119 116 154 160 158 154 172
2670.0 195 173 184 178 180 212 192 177 184 210
2710.0 219 215 248 249 268 288 267 269 283 271
2750.0 284 280 296 314 293 313 319 343 357 366
2790.0 385 421 449 490 554 620 702 779 850 975
2830.0 1198 1409 1620 1902 2214 2530 2896 3217 3463 3695
2870.0 3871 4015 4126 4199 4270 4303 4335 4463 4634 4896
2910.0 5189 5587 6020 6407 6726 6933 6982 6902 6693 6298
2950.0 5858 5458 5087 4837 4792 5027 5384 5704 5912 5921
2990.0 5741 5318 4779 4308 3903 3495 3107 2731 2366 2110
3030.0 1871 1678 1597 1545 1579 1682 1869 2140 2525 3102
3070.0 3853 4660 5401 5877 5948 5517 4775 3807 2779 1966
3110.0 1361 991 766 595 500 441 411 371 339 332
3150.0 277 227 185 157 166 144 123 114 81 86
3190.0 61 45 93 90 65 89 81 69 70 84
3230.0 91 75 66 71 111 123 96 80 106 128
3270.0 92 110 134 138 104 30 21 44 73 84
3310.0 101 88 37 43 56 60 93 111 100 101
3350.0 119 122 92 58 112 182 138 79 71 85
3390.0 123 129 132 136 97 130 169 130 134 134
3430.0 114 151 139 114 132 139 166 176 134 96
3470.0 110 151 157 181 168 124 159 197 187 167
3510.0 150 121 115 177 192 179 191 199 177 149
3550.0 189 176 151 213 258 258 245 248 301 394
3590.0 408 423 534 687 861 1011 1103 1192 1283 1409
3630.0 1631 1850 2054 2258 2350 2307 2160 1814 1399 1071
3670.0 819 622 469 380 346 285 225 215 200 175
3710.0 194 165 115 131 181 135 101 146 168 182
3750.0 136 138 165 140 145 128 115 133 165 159
3790.0 112 134 172 170 130 136 169 166 138 106
3830.0 117 135 175 218 233
##END=
