##TITLE=3-Fluoro-5-(trifluoromethyl)benzoyl chloride
##JCAMP-DX=4.24
##DATA TYPE=INFRARED SPECTRUM
##ORIGIN=EPA-IR VAPOR PHASE LIBRARY
##OWNER=SRD/NIST
Collection (C) 2018 copyright by the U.S. Secretary of Commerce
on behalf of the United States of America. All rights reserved.
##CAS REGISTRY NO=171243-30-4
##MOLFORM=C 8 H 3 Cl F 4 O
##$NIST SOURCE=MSDC-IR
##STATE=gas
##XUNITS=1/CM
##YUNITS=ABSORBANCE
##XFACTOR=1.
##YFACTOR=0.001
##DELTAX=1.92898
##FIRSTX=549.8
##LASTX=4000.7
##FIRSTY=1.4314
##MAXX=4000.7
##MINX=549.759
##MAXY=0.229929
##MINY=0
##NPOINTS=1790
##XYDATA=(X++(Y..Y))
549.759 1.4314 1.7866 1.4779 1.568 1.6559 1.959 1.979 1.8454 1.789 1.4191
569.049 1.4059 1.5708 1.3444 0.723 0.835 1.0321 1.1794 1.4608 1.3426 1.6598
588.339 2.309 2.559 3.479 4.619 5.479 5.939 6.309 6.999 6.509 5.419
607.628 4.749 4.129 3.249 2.009 1.5373 1.969 1.999 1.7703 1.8083 1.6132
626.918 0.9027 1.3766 1.7348 1.2668 1.5236 1.979 1.959 1.6847 1.5183 1.4241
646.208 1.7184 1.949 2.609 3.509 3.419 3.739 3.709 3.169 3.539 3.449
665.498 3.019 3.239 4.069 4.609 5.279 6.269 7.119 8.749 11.189 15.069
684.787 21.289 31.959 48.569 68.689 84.119 91.919 95.099 94.509 90.039 73.609
704.077 50.509 34.249 24.629 18.019 13.479 10.479 8.539 7.099 6.179 6.059
723.367 6.739 7.319 7.849 9.039 9.839 9.939 10.189 10.899 11.309 10.769
742.657 10.089 10.279 12.119 14.489 17.299 22.659 30.469 42.049 58.699 78.509
761.947 99.369 115.779 124.639 126.119 120.009 106.519 86.349 63.229 43.509 30.959
781.236 22.939 17.429 14.149 12.629 11.919 11.079 10.469 9.989 9.399 8.569
800.526 7.439 6.619 6.349 5.639 4.339 3.779 3.939 3.519 2.839 2.849
819.816 3.199 3.239 3.679 4.059 3.679 3.459 3.559 3.579 3.499 3.459
839.106 3.139 2.839 2.909 2.949 3.109 3.389 3.799 4.169 4.349 4.699
858.395 4.799 5.379 5.979 5.929 6.999 8.389 9.229 10.689 13.379 17.249
877.685 21.939 28.539 38.119 49.849 62.159 74.299 85.629 93.099 93.269 86.249
896.975 75.619 63.959 51.989 41.899 34.939 30.389 28.169 27.359 26.529 25.199
916.265 23.239 21.089 18.149 14.739 12.609 11.309 10.839 10.379 9.819 9.389
935.555 8.549 8.369 8.169 7.109 6.559 6.559 6.099 5.409 4.899 5.239
954.844 5.239 5.069 5.909 6.299 6.549 7.509 8.599 10.169 11.759 14.299
974.134 17.769 20.969 24.979 28.859 33.459 37.399 39.269 40.169 38.319 35.859
993.424 32.729 27.489 22.549 18.489 16.249 15.279 14.349 14.119 13.709 12.469
1012.714 11.109 10.299 9.659 8.299 7.209 7.039 6.789 6.629 6.549 6.009
1032.003 4.949 4.829 5.629 5.649 5.069 4.929 5.269 5.089 4.549 5.009
1051.293 5.019 4.259 4.629 5.209 5.049 4.189 4.329 5.189 5.519 4.929
1070.583 5.059 6.079 7.279 8.079 9.349 11.119 12.619 15.449 19.789 25.809
1089.873 32.319 37.259 39.099 40.719 41.619 37.869 31.329 24.529 19.539 17.629
1109.163 16.229 13.859 13.609 15.559 17.649 20.679 24.239 29.449 37.419 48.009
1128.452 60.549 74.869 91.289 107.089 121.279 133.599 140.749 144.669 147.539 149.049
1147.742 154.209 164.949 180.359 199.429 218.309 229.929 226.169 205.999 176.689 147.829
1167.032 124.069 104.549 91.759 89.189 98.349 117.899 139.989 158.519 171.129 174.039
1186.322 165.449 148.689 128.749 108.029 86.849 68.779 54.689 46.889 44.289 41.649
1205.611 40.349 41.129 41.649 43.359 48.419 57.429 69.829 84.229 102.309 123.139
1224.901 146.819 167.849 181.069 184.329 176.829 162.099 141.009 117.999 95.059 75.839
1244.191 64.099 56.019 49.129 43.169 37.659 32.209 27.269 23.179 18.669 15.249
1263.481 13.799 12.139 10.879 9.749 9.009 8.929 8.939 8.669 8.519 8.569
1282.771 8.669 9.139 9.679 10.189 10.669 11.519 12.339 12.839 13.229 13.959
1302.060 14.879 15.599 16.489 17.229 17.609 17.759 17.809 17.879 17.969 18.159
1321.350 18.939 20.729 23.879 29.009 36.709 47.769 62.909 82.679 107.469 136.299
1340.640 166.459 193.439 212.799 222.019 219.659 205.269 180.729 148.609 113.739 82.629
1359.930 59.069 43.199 32.999 26.649 22.779 20.349 19.029 18.029 17.109 16.329
1379.219 15.489 14.869 14.219 13.559 13.019 12.339 11.639 11.239 11.059 10.699
1398.509 10.419 10.299 10.349 10.629 10.889 11.199 11.579 11.989 12.599 13.379
1417.799 14.189 15.159 16.219 17.129 18.239 19.729 21.389 23.419 26.099 29.259
1437.089 33.299 38.009 42.889 47.839 52.699 57.119 60.889 63.499 64.509 63.899
1456.378 61.419 56.869 50.589 42.809 35.069 28.319 22.699 17.999 14.209 11.269
1475.668 9.209 7.759 7.059 6.549 6.059 5.569 5.269 5.019 4.819 4.709
1494.958 4.469 4.269 4.269 4.219 3.929 3.719 3.709 3.749 3.749 3.809
1514.248 3.719 3.409 3.249 3.459 3.459 3.319 3.379 3.189 3.249 3.349
1533.538 3.259 3.349 3.249 3.049 2.949 2.739 2.609 2.509 2.329 2.629
1552.827 2.839 2.689 2.759 2.989 3.109 3.259 3.679 3.999 4.239 4.479
1572.117 5.239 5.919 6.299 6.869 7.459 8.159 9.129 10.309 11.289 12.839
1591.407 14.769 16.869 19.069 21.449 23.959 26.069 27.599 28.269 28.509 27.999
1610.697 26.559 24.249 21.589 18.849 16.559 14.629 12.739 11.279 10.019 8.979
1629.986 7.979 7.179 6.769 6.429 5.669 5.239 5.059 4.579 4.239 4.019
1649.276 3.939 3.979 3.849 3.759 3.739 3.849 4.129 3.849 3.729 3.659
1668.566 3.379 3.569 3.579 3.409 3.459 3.259 2.849 2.809 2.779 2.719
1687.856 2.889 2.909 2.689 2.709 2.829 2.649 2.649 2.819 3.049 3.309
1707.146 3.409 3.339 3.449 3.729 4.039 4.269 4.559 5.029 5.569 6.239
1726.435 7.089 7.849 8.669 9.499 10.259 11.149 11.969 13.269 14.959 16.749
1745.725 18.969 21.629 24.619 28.199 32.229 36.429 40.939 45.499 49.669 53.099
1765.015 56.049 58.709 61.499 65.289 70.899 78.469 87.969 98.069 107.119 114.089
1784.305 118.249 118.409 112.649 101.659 87.259 71.949 57.899 45.369 35.129 27.829
1803.594 23.289 20.389 18.809 18.059 17.869 18.079 18.259 18.029 17.339 16.389
1822.884 15.119 13.319 11.409 9.879 8.469 7.009 5.959 5.319 4.679 4.089
1842.174 3.699 3.349 3.119 3.059 2.969 2.779 2.709 2.789 2.729 2.779
1861.464 2.579 2.389 2.619 2.609 2.529 2.539 2.599 2.559 2.459 2.509
1880.754 2.599 2.679 2.719 2.749 2.919 3.149 3.179 3.239 3.249 3.089
1900.043 3.029 2.969 2.939 2.769 2.509 2.419 2.319 2.189 1.979 1.9078
1919.333 1.8267 1.5967 1.5325 1.5947 1.585 1.4812 1.4298 1.4284 1.4288 1.5759
1938.623 1.6101 1.426 1.3801 1.457 1.388 1.4591 1.6779 1.5875 1.5898 1.5624
1957.913 1.4223 1.4449 1.4373 1.4058 1.4621 1.6723 1.7169 1.4068 1.3363 1.4454
1977.202 1.3488 1.281 1.1966 1.2457 1.223 1.1498 1.2931 1.2721 1.2959 1.3414
1996.492 1.4272 1.53 1.5587 1.6561 1.7606 1.544 1.3461 1.29 1.3009 1.4332
2015.782 1.2884 1.251 1.3147 1.2853 1.2723 1.2107 1.0586 1.0503 1.2024 1.352
2035.072 1.2801 1.2098 1.3807 1.3819 1.1982 1.071 1.174 1.3226 1.351 1.3069
2054.362 1.2216 1.1066 1.2547 1.4491 1.3895 1.3295 1.3777 1.4952 1.3469 1.1974
2073.651 1.3535 1.5076 1.3804 1.0476 0.986 1.1875 1.4647 1.6344 1.583 1.5374
2092.941 1.4951 1.501 1.456 1.4 1.4162 1.4632 1.5837 1.5956 1.595 1.744
2112.231 1.949 2.089 2.209 2.209 1.8714 1.6927 1.8753 1.9236 1.939 1.9204
2131.521 1.8065 1.8221 1.939 1.949 1.8364 1.7338 1.7031 1.7275 1.6616 1.504
2150.810 1.5289 1.5782 1.4683 1.4652 1.3852 1.313 1.2834 1.1545 0.9782 0.9099
2170.100 0.99343 1.111 1.2459 1.2584 1.2349 1.2664 1.2976 1.1946 1.1271 1.1935
2189.390 1.1745 1.01347 1.1388 1.1503 1.1332 1.3698 1.1654 0.95867 0.96971 1.00467
2208.680 1.0719 1.0445 1.0777 1.3319 1.4329 1.4547 1.3924 1.2992 1.4848 1.6389
2227.970 1.6289 1.6587 1.7695 1.6538 1.7255 1.949 1.7854 1.5879 1.5302 1.6738
2247.259 1.829 1.834 1.8662 1.7437 1.6269 1.572 1.6495 1.767 1.7795 1.8439
2266.549 1.6535 1.6226 1.8587 1.979 1.929 1.736 1.713 1.6765 1.6078 1.4916
2285.839 1.3365 1.3616 1.5241 1.6725 1.7983 1.7798 1.6628 1.827 1.999 2.059
2305.129 1.989 1.7208 1.7626 1.8522 1.7317 1.7766 1.673 1.6856 1.7062 1.5538
2324.418 1.6215 1.8117 1.7276 1.5959 1.4275 1.3251 1.5505 1.7292 1.6352 1.4619
2343.708 1.5545 1.6371 1.5683 1.7502 1.88 1.713 1.7826 1.8267 1.6749 1.7548
2362.998 1.7078 1.5526 1.4635 1.5352 1.6362 1.646 1.6515 1.5139 1.3086 1.254
2382.288 1.3995 1.4155 1.3821 1.4808 1.5195 1.2971 1.1203 1.2028 1.2397 1.0779
2401.578 1.1175 1.2208 1.1623 1.243 1.3194 1.2219 0.96298 0.98842 1.1028 1.0527
2420.867 1.0839 1.0414 0.96975 1.0671 1.2848 1.3637 1.3174 1.3573 1.3953 1.2704
2440.157 1.2286 1.1688 1.2201 1.2903 1.3297 1.2626 1.0331 1.0986 1.0028 1.00719
2459.447 1.2806 1.3936 1.4933 1.5306 1.4514 1.2511 1.2045 1.2829 1.0709 1.1082
2478.737 1.3708 1.4448 1.3073 1.2442 1.2972 1.2384 1.2726 1.2286 1.146 1.2554
2498.026 1.3514 1.4658 1.4452 1.3274 1.2133 1.0742 1.2627 1.5137 1.3663 1.0692
2517.316 1.0493 1.0949 1.0722 1.0568 1.1351 0.9163 0.768 1.0501 1.2405 1.1299
2536.606 1.1735 1.5318 1.7034 1.4832 1.3038 1.5664 1.6497 1.3338 1.1619 1.2247
2555.896 1.4152 1.4886 1.4553 1.4181 1.4675 1.6533 1.5894 1.6511 1.7342 1.6853
2575.186 1.5696 1.6128 1.7358 1.6771 1.55 1.3523 1.3644 1.5072 1.4499 1.2065
2594.475 1.1677 1.1337 1.0337 1.1782 1.1492 1.02307 1.1855 1.2913 1.208 1.3491
2613.765 1.1356 0.8682 1.2053 1.5519 1.5241 1.399 1.4584 1.3873 1.23 1.1532
2633.055 1.1715 1.1302 1.1391 1.2644 1.2803 1.0795 1.0294 0.98893 1.105 1.3598
2652.345 1.3426 1.2866 1.1982 1.0658 1.0849 1.0619 1.192 1.6027 1.5046 1.2698
2671.634 1.3105 1.5367 1.4931 1.1965 1.1853 1.1149 1.2025 1.2276 1.1846 1.1583
2690.924 1.1586 1.0401 0.97549 1.1675 0.8449 0.695 0.805 0.9565 1.2483 1.1401
2710.214 0.96056 1.0886 1.1111 1.0915 1.1716 0.92525 0.715 0.95924 1.0395 0.779
2729.504 0.96443 1.0271 0.8484 1.00939 1.1556 1.1677 0.98201 0.8798 1.00685 1.1937
2748.794 1.4463 1.4051 1.1835 0.9137 1.01243 1.4199 1.3726 1.00619 1.0972 1.3168
2768.083 1.2578 1.2956 1.0745 0.778 0.97236 1.1667 1.2001 1.229 1.143 1.1895
2787.373 1.3163 1.2238 0.802 0.8695 1.0781 1.1305 1.2194 1.4291 1.3122 0.783
2806.663 0.79 0.748 0.94277 1.05 1.0653 1.3769 1.1028 1.1969 1.2013 1.094
2825.953 1.1383 1.0783 1.00287 1.201 1.1816 0.918 1.0561 1.01286 1.1539 1.1978
2845.242 0.76 0.614 0.752 0.8787 0.96455 1.1951 1.2668 0.92792 0.98945 1.1048
2864.532 1.0529 1.2892 1.3225 0.8374 0.8418 1.1872 0.935378 0.8609 1.2519 1.4455
2883.822 1.4239 1.01272 0.762 1.0552 0.97414 0.816 1.1541 1.01821 0.563 0.882
2903.112 1.4241 1.8577 1.6687 1.1792 1.3947 1.6647 1.7491 1.4556 1.2834 1.5444
2922.401 1.5077 1.0985 1.3316 1.679 1.305 1.01702 0.9029 0.95304 1.2046 1.1209
2941.691 1.2616 1.4576 1.114 1.0915 1.2031 1.2499 1.2761 1.4399 1.6784 1.6983
2960.981 1.5837 1.2461 1.1534 1.3687 1.31 1.2101 1.2992 1.5202 1.5603 1.4919
2980.271 1.1952 0.678 1.0443 1.2062 0.829 0.66 0.734 0.791 0.831 1.0956
2999.561 1.3896 1.234 0.95935 1.4005 1.3195 0.8703 0.96473 1.1845 1.3727 1.4114
3018.850 1.2782 1.0683 0.99373 0.94928 0.94428 0.719 0.723 1.1704 1.1458 1.278
3038.140 1.1998 1.1592 1.3491 1.4327 1.7656 2.049 2.019 1.5804 1.5997 2.219
3057.430 2.319 1.989 1.6371 1.7084 1.939 1.805 1.7262 1.7098 1.939 2.259
3076.720 2.489 2.439 2.379 2.739 3.239 3.599 4.309 5.339 6.049 6.109
3096.009 6.099 6.469 6.439 6.069 5.859 5.199 4.279 3.289 2.669 2.499
3115.299 2.009 1.3373 1.1717 1.4791 1.3984 1.4073 1.2363 1.00551 1.0944 0.8495
3134.589 0.642 0.507 0.368 0.281 0.468 0.748 0.81 0.762 1.0323 0.8929
3153.879 0.551 1.0835 1.5617 1.266 0.878 1.1187 0.8982 0.643 0.8794 0.812
3173.169 1.1146 1.4738 0.97336 0.794 0.8506 0.711 1.1342 1.1368 0.807 0.8747
3192.458 1.0619 1.337 1.4206 1.0398 0.715 0.822 0.635 0.538 0.898 1.1055
3211.748 1.0867 0.92299 0.8864 0.92364 0.8394 0.96394 1.0371 1.01691 0.94681 0.869
3231.038 0.8521 0.799 1.0836 1.3261 0.8947 0.8649 0.777 0.703 1.1125 0.8722
3250.328 0.259 0.111 0.438 0.74 0.592 0.58 0.826 0.525 0.415 1.1145
3269.617 1.4802 1.3227 1.1004 0.945 1.2753 1.3058 1.0665 0.94321 0.98914 1.1992
3288.907 1.0737 0.8316 0.937821 1.00198 1.1005 0.9039 0.54 0.686 0.92766 0.94305
3308.197 0.587 0.451 0.8627 1.0832 1.0553 1.0953 1.259 1.2386 0.768 0.689
3327.487 0.8949 0.699 0.95532 0.736 0.324 0.793 0.9145 0.64 0.502 0.828
3346.777 0.928518 0.933933 1.2314 1.177 1.02118 0.69 0.744 1.1737 1.2082 0.93998
3366.066 0.799 0.778 0.78 0.729 0.92636 1.3253 0.776 0.439 0.77 0.817
3385.356 0.8968 0.552 0.507 1.01333 1.1584 1.1774 0.621 0.619 1.1537 1.0688
3404.646 0.8854 0.809 1.2772 1.1866 0.8374 1.2219 1.1459 0.611 0.665 1.1677
3423.936 1.0891 1.1226 1.4045 1.3381 1.2225 1.0939 0.788 0.8912 0.778 0.526
3443.225 0.98974 1.1599 1.3072 1.5247 1.3369 0.786 0.517 0.63 0.448 0.74
3462.515 1.2705 1.4048 1.3024 0.8293 0.676 0.8701 0.82 0.97814 1.0404 0.788
3481.805 1.18 1.2915 1.00429 1.227 1.1994 1.1467 1.284 1.2905 1.0335 0.742
3501.095 1.0792 1.3767 1.3501 1.4763 1.4003 1.5338 2.019 1.8259 1.939 2.439
3520.385 2.239 2.079 2.219 2.359 2.599 2.479 2.249 2.159 2.199 2.089
3539.674 1.8499 1.8894 1.969 1.9222 1.989 2.179 2.009 2.019 1.9279 1.5463
3558.964 1.5846 1.5532 1.6119 1.7416 1.4663 1.3085 1.7719 2.259 1.8269 1.5465
3578.254 1.3439 1.2576 1.6034 1.7767 1.5243 1.3013 1.4209 1.591 1.3066 0.796
3597.544 1.0638 1.2836 1.5519 1.5453 1.3827 1.4208 1.1597 1.02295 0.9109 1.4767
3616.833 1.5292 0.702 0.71 0.934039 1.0407 0.95303 0.634 0.533 0.516 0.59
3636.123 0.664 0.8444 0.823 0.767 0.75 0.9146 1.2607 1.3303 1.3391 0.932483
3655.413 0.637 0.702 0.8308 0.743 0.303 0.419 0.96528 1.1007 0.95153 0.99337
3674.703 1.0548 1.1055 0.8805 0.9249 1.02838 0.668 0.632 0.415 0.593 0.609
3693.993 0.415 0.8889 1.1306 1.1118 1.0757 0.776 0.94703 1.259 0.97424 0.8826
3713.282 0.727 0.493 0.586 0.65 0.679 0.9038 1.2004 1.1052 1.1644 1.1239
3732.572 0.59 0.706 0.679 0.421 0.285 0.063 0.169 0.405 0.734 1.1082
3751.862 1.0455 1.2898 1.3372 1.1019 1.1578 0.8349 1.0874 0.92662 0.561 0.9154
3771.152 0.782 0.799 1.0656 1.00982 1.111 1.00756 0.563 0.671 1.3024 1.1375
3790.441 0.629 0.725 0.706 1.1396 1.1563 0.9121 1.0375 1.1478 0.96839 0.494
3809.731 0.315 0.558 0.752 0.628 0.934721 1.1891 1.02742 0.81 0.815 1.0481
3829.021 1.1202 0.589 0.19 0.361 0.632 0.814 0.737 0.677 0.95922 0.8327
3848.311 0.374 0.406 0.514 0.718 0.677 0.823 1.02007 0.883 0.91989 0.8338
3867.601 0.679 0.702 0.9052 0.8947 1.1343 1.2735 1.2158 1.01228 0.92439 0.634
3886.890 0.201 0.75 0.8454 0.556 0.505 0.299 0 0.292 0.505 0.821
3906.180 0.9094 0.394 0.516 0.826 1.0652 0.669 0.643 0.931269 0.527 0.288
3925.470 0.444 0.608 0.8925 0.97494 0.549 0.583 0.753 0.498 0.406 0.144
3944.760 0.371 1.0628 1.2663 1.2015 1.1022 0.8474 0.447 0.552 0.9017 0.789
3964.049 0.642 0.8815 0.545 0.322 1.02459 0.8359 0.574 0.775 0.622 0.4
3983.339 0.157 0.277 0.63 0.812 0.566 0.49 0.588 0.752 0.737 0.8503
##END=
