##TITLE=2-Chloroanthracene
##JCAMP-DX=4.24
##DATA TYPE=INFRARED SPECTRUM
##ORIGIN=NIST Mass Spectrometry Data Center
##OWNER=NIST Standard Reference Data Program
Collection (C) 2018 copyright by the U.S. Secretary of Commerce
on behalf of the United States of America. All rights reserved.
##CAS REGISTRY NO=17135-78-3
##MOLFORM=C 14 H 9 Cl
##$NIST SOURCE=MSDC-IR
##SPECTROMETER/DATA SYSTEM=HP-GC/MS/IRD
##STATE=gas
##XUNITS=1/CM
##YUNITS=ABSORBANCE
##XFACTOR=1.0
##YFACTOR=0.000000800
##DELTAX=4.0
##FIRSTX=550.0
##LASTX=3846.0
##FIRSTY=0.001646
##MAXX=3846
##MINX=550
##MAXY=0.008
##MINY=0
##NPOINTS=825
##XYDATA=(X++(Y..Y))
550.0 2058 2024 1360 734 527 390 365 581 715 767
590.0 833 737 564 377 315 403 522 534 427 398
630.0 370 292 258 267 260 253 248 156 71 28
670.0 87 259 241 139 213 425 807 1371 1941 2460
710.0 2778 2636 2439 2941 4516 6499 8382 7970 5876 3981
750.0 2166 1014 547 441 446 433 444 553 817 1135
790.0 1387 1343 989 685 502 468 555 618 562 455
830.0 447 529 633 716 841 1054 1167 1274 1562 2106
870.0 3150 4682 6785 8610 9301 9118 7350 5165 3583 2585
910.0 2076 1728 1432 1499 2642 5405 8015 8260 5753 2948
950.0 1882 1448 1101 873 724 654 615 566 503 452
990.0 467 521 601 678 623 478 387 332 306 371
1030.0 493 631 740 823 1070 1539 2395 4338 7655 10000
1070.0 9035 5349 2273 1210 817 656 637 658 675 686
1110.0 707 697 658 660 707 724 646 644 796 1112
1150.0 1338 1384 1209 905 725 594 470 326 250 250
1190.0 255 275 322 365 363 309 286 319 305 303
1230.0 327 395 605 901 1097 1073 895 825 862 868
1270.0 859 756 603 512 534 740 987 1078 978 742
1310.0 596 613 785 1139 1456 1456 1126 723 568 589
1350.0 613 585 493 349 252 216 206 254 299 317
1390.0 401 519 637 731 718 657 614 607 742 941
1430.0 1103 1255 1476 2083 3046 3566 3005 1817 1163 1146
1470.0 1220 1136 909 634 394 178 25 32 145 168
1510.0 222 349 482 748 1132 1455 1543 1318 1027 941
1550.0 1015 1120 1241 1536 1910 2335 2621 2516 1985 1366
1590.0 1006 865 885 1098 1622 2510 3606 4648 5107 4778
1630.0 3887 2856 1970 1287 839 599 500 498 500 537
1670.0 613 749 927 982 905 752 595 534 563 585
1710.0 523 437 396 442 495 527 567 625 620 539
1750.0 435 407 455 501 534 577 653 693 665 636
1790.0 621 641 622 512 369 274 266 276 282 294
1830.0 308 317 302 262 252 264 245 213 189 157
1870.0 144 150 179 235 305 423 577 684 702 629
1910.0 523 441 396 393 406 467 542 539 418 249
1950.0 153 122 108 113 107 89 73 74 85 89
1990.0 76 79 98 95 99 90 79 86 101 100
2030.0 79 68 83 97 80 74 60 36 46 61
2070.0 67 82 91 102 104 87 82 81 74 74
2110.0 54 67 69 52 60 42 13 15 28 14
2150.0 0 25 48 42 40 43 61 64 43 51
2190.0 48 29 21 30 30 11 17 22 24 19
2230.0 23 39 54 56 46 48 53 64 78 90
2270.0 96 81 67 73 89 101 103 112 112 109
2310.0 109 106 100 73 62 84 112 116 90 68
2350.0 68 48 30 7 12 24 34 68 94 97
2390.0 88 83 88 102 108 107 98 105 123 119
2430.0 109 108 122 125 100 93 96 97 103 107
2470.0 109 114 113 104 107 122 124 114 118 131
2510.0 132 134 150 146 147 154 159 163 144 143
2550.0 123 116 142 148 157 152 118 114 128 116
2590.0 114 114 118 133 134 129 122 133 138 120
2630.0 118 132 149 156 158 170 185 192 184 177
2670.0 192 192 180 181 184 180 174 174 167 176
2710.0 186 179 163 159 174 173 166 171 175 161
2750.0 141 125 142 152 141 143 173 183 182 185
2790.0 176 179 182 188 186 199 206 189 188 196
2830.0 215 203 189 203 220 213 187 187 192 174
2870.0 163 153 163 169 187 209 192 192 215 233
2910.0 247 251 248 263 256 236 242 266 301 318
2950.0 360 404 397 385 374 385 412 451 531 622
2990.0 711 778 879 979 1068 1172 1313 1500 1735 2095
3030.0 2534 3025 3561 4060 4600 5343 6156 6628 6390 5648
3070.0 4815 4031 3226 2495 1990 1725 1518 1259 995 821
3110.0 692 569 504 416 350 333 287 245 232 222
3150.0 235 256 238 209 219 215 237 267 241 241
3190.0 273 283 243 235 255 219 192 213 209 176
3230.0 154 155 186 210 196 191 179 167 172 174
3270.0 171 165 160 141 130 131 139 146 145 109
3310.0 114 121 108 132 138 114 106 141 166 140
3350.0 114 113 106 112 123 142 171 156 125 125
3390.0 125 140 132 117 132 135 124 110 117 127
3430.0 116 80 76 94 90 86 88 100 124 131
3470.0 103 78 74 66 67 90 113 109 96 107
3510.0 99 99 102 92 88 105 85 62 68 51
3550.0 87 111 97 83 37 66 88 63 26 4
3590.0 23 46 64 96 71 38 47 77 109 81
3630.0 66 122 132 109 91 75 90 111 133 112
3670.0 92 74 69 100 70 92 149 118 111 107
3710.0 77 84 95 75 57 66 46 45 30 13
3750.0 24 68 114 123 111 107 148 168 138 125
3790.0 117 118 133 99 80 112 128 104 83 74
3830.0 89 86 63 102 119
##END=
