##TITLE=Dibenzyl phosphite
##JCAMP-DX=4.24
##DATA TYPE=INFRARED SPECTRUM
##ORIGIN=EPA-IR VAPOR PHASE LIBRARY
##OWNER=SRD/NIST
Collection (C) 2018 copyright by the U.S. Secretary of Commerce
on behalf of the United States of America. All rights reserved.
##CAS REGISTRY NO=17176-77-1
##MOLFORM=C 14 H 15 O 3 P
##$NIST SOURCE=MSDC-IR
##STATE=gas
##XUNITS=1/CM
##YUNITS=ABSORBANCE
##XFACTOR=1.
##YFACTOR=0.001
##DELTAX=3.85796
##FIRSTX=501.5
##LASTX=4000.7
##FIRSTY=1.594
##MAXX=4000.7
##MINX=501.534
##MAXY=0.035434
##MINY=0
##NPOINTS=908
##XYDATA=(X++(Y..Y))
501.534 1.594 1.584 1.404 1.414 1.654 1.794 1.854 2.004 2.204 2.184
540.114 2.104 1.874 1.674 1.464 1.294 1.344 1.434 1.494 1.544 1.614
578.693 1.744 2.024 2.324 2.504 2.604 2.584 2.344 2.034 1.644 1.404
617.273 1.2444 1.0508 0.8985 0.814 0.8235 0.7707 0.7404 0.8144 0.8313 0.8404
655.852 0.9894 1.1676 1.364 1.664 2.074 2.664 3.314 4.034 4.934 5.904
694.432 6.504 6.374 5.894 5.474 5.194 5.184 5.464 5.964 6.644 7.304
733.011 7.694 7.484 6.604 5.484 4.454 3.564 2.904 2.424 2.084 1.914
771.591 1.874 1.904 2.004 2.204 2.414 2.564 2.704 2.794 2.764 2.714
810.170 2.674 2.684 2.784 2.874 2.894 2.934 2.994 3.074 3.154 3.164
848.750 3.124 3.084 2.954 2.844 2.734 2.494 2.304 2.204 2.134 2.144
887.330 2.224 2.354 2.544 2.724 2.974 3.384 3.924 4.474 4.974 5.484
925.909 6.344 7.744 9.764 12.694 16.544 21.174 26.204 30.784 33.974 35.434
964.489 35.374 34.224 32.664 31.114 29.654 28.004 25.944 23.464 20.844 18.584
1003.068 16.834 15.404 14.184 13.214 12.684 12.454 12.264 12.294 12.754 13.434
1041.648 13.944 14.034 13.634 13.024 12.274 11.534 10.994 10.574 10.064 9.514
1080.227 8.744 7.774 6.844 5.944 5.084 4.324 3.754 3.154 2.664 2.304
1118.807 2.034 1.894 1.664 1.514 1.434 1.394 1.334 1.2311 1.2358 1.264
1157.387 1.324 1.314 1.284 1.374 1.474 1.624 1.714 1.774 1.964 2.254
1195.966 2.684 3.314 4.044 4.584 4.604 3.924 3.154 2.724 2.534 2.574
1234.546 2.714 2.914 3.194 3.514 3.954 4.424 5.074 6.114 7.564 9.504
1273.125 11.594 12.994 13.224 12.474 11.254 10.194 9.364 8.424 7.254 5.954
1311.705 4.744 3.764 3.074 2.564 2.184 1.944 1.754 1.594 1.534 1.514
1350.284 1.514 1.544 1.604 1.724 1.984 2.384 2.884 3.184 3.064 2.614
1388.864 2.134 1.744 1.424 1.264 1.1434 1.0555 1.0109 0.9365 0.9311 0.9896
1427.443 1.0501 1.1453 1.2279 1.414 1.664 1.864 2.064 2.134 2.204 2.214
1466.023 2.034 1.764 1.504 1.354 1.294 1.284 1.424 1.754 1.994 1.914
1504.603 1.474 0.9863 0.7805 0.6722 0.5965 0.6074 0.6227 0.5905 0.5608 0.5233
1543.182 0.5353 0.5757 0.5611 0.5274 0.5191 0.5954 0.6375 0.6323 0.6326 0.6384
1581.762 0.6677 0.673 0.6725 0.6846 0.6889 0.6699 0.6472 0.6566 0.633 0.5553
1620.341 0.514 0.4955 0.4981 0.4849 0.4613 0.4776 0.4444 0.4013 0.35523 0.3647
1658.921 0.4332 0.4506 0.4622 0.432 0.4148 0.4304 0.3873 0.3953 0.4387 0.4066
1697.500 0.3607 0.3721 0.4237 0.4553 0.4549 0.4461 0.498 0.5371 0.5263 0.4817
1736.080 0.5001 0.5372 0.5419 0.5264 0.5173 0.5477 0.5371 0.5447 0.5479 0.5585
1774.659 0.5853 0.6161 0.6424 0.6755 0.7527 0.8421 0.8893 0.8787 0.8387 0.7685
1813.239 0.6992 0.6462 0.5941 0.5592 0.5548 0.5487 0.5547 0.544 0.5324 0.5698
1851.819 0.5927 0.6092 0.6313 0.6363 0.6353 0.6573 0.7035 0.7147 0.7074 0.6878
1890.398 0.6409 0.6064 0.562 0.5144 0.5088 0.5114 0.5113 0.518 0.5272 0.5655
1928.978 0.6098 0.6455 0.6656 0.6699 0.7009 0.7469 0.7579 0.7303 0.6748 0.5895
1967.557 0.478 0.4005 0.3644 0.33107 0.31373 0.32343 0.31699 0.30751 0.29519 0.27674
2006.137 0.272426 0.26018 0.27726 0.28362 0.28148 0.268188 0.26071 0.273107 0.267945 0.263876
2044.716 0.25696 0.2521 0.2519 0.2508 0.2519 0.2357 0.2187 0.2304 0.25876 0.25542
2083.296 0.2403 0.2187 0.2046 0.2085 0.2182 0.2328 0.2179 0.217 0.2406 0.2391
2121.875 0.2231 0.2194 0.2224 0.223 0.1996 0.186 0.194 0.1899 0.1812 0.2027
2160.455 0.2141 0.2089 0.2121 0.2085 0.1955 0.1965 0.2037 0.194 0.2013 0.22
2199.035 0.2162 0.2165 0.2094 0.1997 0.2046 0.2051 0.1974 0.1796 0.1885 0.1962
2237.614 0.196 0.2023 0.1977 0.2225 0.2469 0.2363 0.2232 0.2201 0.2515 0.27706
2276.194 0.26492 0.265578 0.25866 0.2458 0.2506 0.2304 0.2286 0.2337 0.2382 0.28533
2314.773 0.3273 0.31176 0.29621 0.28935 0.28655 0.33088 0.36174 0.35354 0.3461 0.3507
2353.353 0.371 0.4048 0.457 0.5004 0.5303 0.5914 0.6579 0.7464 0.8394 0.9553
2391.932 1.0737 1.1998 1.344 1.464 1.604 1.724 1.854 1.974 2.094 2.234
2430.512 2.424 2.594 2.684 2.644 2.454 2.124 1.734 1.374 1.0547 0.8279
2469.092 0.6541 0.5316 0.453 0.3642 0.30896 0.27625 0.2426 0.2292 0.2187 0.1976
2507.671 0.2013 0.2114 0.2037 0.1753 0.161 0.163 0.1712 0.158 0.1727 0.191
2546.251 0.1726 0.1735 0.1906 0.2188 0.2049 0.151 0.121 0.099 0.113 0.149
2584.830 0.15 0.154 0.164 0.1773 0.163 0.128 0.152 0.152 0.119 0.111
2623.410 0.093 0.089 0.104 0.141 0.13 0.106 0.107 0.085 0.084 0.123
2661.989 0.127 0.109 0.106 0.114 0.117 0.109 0.116 0.134 0.133 0.125
2700.569 0.134 0.127 0.118 0.129 0.115 0.124 0.135 0.119 0.12 0.141
2739.148 0.1661 0.142 0.127 0.128 0.106 0.104 0.121 0.129 0.14 0.139
2777.728 0.148 0.1665 0.1664 0.153 0.154 0.1936 0.2288 0.2444 0.2498 0.263814
2816.308 0.28667 0.28581 0.29491 0.31162 0.33654 0.3892 0.4709 0.5095 0.5015 0.5466
2854.887 0.587 0.6086 0.669 0.7552 0.8194 0.9122 1.0579 1.1695 1.304 1.484
2893.467 1.644 1.764 1.824 1.804 1.674 1.544 1.434 1.304 1.2365 1.2474
2932.046 1.334 1.444 1.554 1.684 1.884 2.094 2.314 2.514 2.604 2.554
2970.626 2.364 2.124 1.854 1.634 1.414 1.1796 1.0113 0.9258 0.878 0.9136
3009.205 1.0385 1.2264 1.464 1.804 2.274 2.824 3.424 3.924 4.094 3.954
3047.785 3.544 3.134 2.994 3.114 3.564 4.204 4.744 4.824 4.324 3.534
3086.364 2.904 2.534 2.254 1.984 1.694 1.494 1.304 1.0427 0.8237 0.6487
3124.944 0.5166 0.3745 0.28948 0.27579 0.2385 0.1938 0.144 0.133 0.1842 0.1857
3163.524 0.133 0.144 0.158 0.123 0.088 0.083 0.087 0.076 0.092 0.064
3202.103 0.021 0.037 0.002 0.005 0.064 0.076 0.077 0.089 0.097 0.085
3240.683 0.038 0.021 0.041 0.028 0.029 0.056 0.08 0.041 0.024 0.075
3279.262 0.047 0.029 0.066 0.046 0 0.013 0.072 0.078 0.054 0.075
3317.842 0.065 0.028 0.006 0.03 0.056 0.065 0.044 0.023 0.037 0.081
3356.421 0.122 0.093 0.094 0.099 0.065 0.041 0.046 0.085 0.095 0.099
3395.001 0.121 0.133 0.148 0.115 0.066 0.064 0.086 0.102 0.129 0.2307
3433.580 0.2271 0.128 0.146 0.158 0.121 0.114 0.116 0.121 0.123 0.1927
3472.160 0.1971 0.099 0.073 0.115 0.1701 0.1875 0.2117 0.1678 0.115 0.11
3510.740 0.117 0.1865 0.156 0.11 0.133 0.124 0.09 0.139 0.1709 0.117
3549.319 0.108 0.068 0.091 0.118 0.046 0.054 0.128 0.14 0.138 0.103
3587.899 0.072 0.077 0.111 0.16 0.148 0.098 0.099 0.151 0.135 0.1662
3626.478 0.1712 0.1942 0.2866 0.34624 0.3808 0.34798 0.375 0.4704 0.4458 0.4001
3665.058 0.36187 0.27512 0.2246 0.2494 0.27792 0.2119 0.2281 0.245 0.1656 0.155
3703.637 0.1749 0.1718 0.153 0.16 0.1676 0.069 0.058 0.122 0.096 0.124
3742.217 0.1 0.049 0.058 0.123 0.1697 0.1708 0.1702 0.147 0.1776 0.1755
3780.797 0.103 0.088 0.073 0.039 0.095 0.129 0.131 0.154 0.16 0.127
3819.376 0.096 0.108 0.16 0.1926 0.128 0.106 0.1837 0.2244 0.113 0.023
3857.956 0.127 0.16 0.1797 0.1687 0.09 0.117 0.143 0.156 0.2077 0.2131
3896.535 0.139 0.044 0.051 0.133 0.158 0.102 0.106 0.131 0.095 0.127
3935.115 0.1748 0.1849 0.163 0.091 0.054 0.088 0.126 0.127 0.1817 0.1643
3973.694 0.109 0.1844 0.2231 0.1659 0.139 0.16 0.107 0.063
##END=
