##TITLE=Bicyclo[2.2.2]-7-octene-2,3,5,6-tetracarboxylic dianhydride
##JCAMP-DX=4.24
##DATA TYPE=INFRARED SPECTRUM
##ORIGIN=EPA-IR VAPOR PHASE LIBRARY
##OWNER=SRD/NIST
Collection (C) 2018 copyright by the U.S. Secretary of Commerce
on behalf of the United States of America. All rights reserved.
##CAS REGISTRY NO=1719-83-1
##MOLFORM=C 12 H 8 O 6
##$NIST SOURCE=MSDC-IR
##STATE=gas
##XUNITS=1/CM
##YUNITS=ABSORBANCE
##XFACTOR=1.
##YFACTOR=0.001
##DELTAX=1.92898
##FIRSTX=549.8
##LASTX=4000.7
##FIRSTY=0.3026
##MAXX=4000.7
##MINX=549.759
##MAXY=0.035586
##MINY=0
##NPOINTS=1790
##XYDATA=(X++(Y..Y))
549.759 0.3026 0.3039 0.4088 0.4903 0.4852 0.3454 0.5321 0.8867 0.6829 0.5117
569.049 0.6902 0.7369 0.7386 0.8833 0.925 0.8869 0.9861 1.1132 1.236 1.226
588.339 1.1177 1.246 1.246 1.0617 0.9273 0.7745 0.7574 0.7295 0.59 0.3952
607.628 0.3319 0.2416 0.2935 0.5346 0.4363 0.3856 0.4356 0.4665 0.5354 0.6558
626.918 0.5916 0.4739 0.3977 0.2883 0.4215 0.3513 0.16899 0.157271 0.22211 0.365
646.208 0.3839 0.4004 0.4761 0.4238 0.379 0.4928 0.5858 0.7037 0.8999 0.9593
665.498 1.1397 1.406 1.636 1.766 1.686 1.616 1.306 0.9862 0.8716 0.7942
684.787 0.6526 0.6964 0.967 1.058 0.9882 0.9707 1.0633 1.0114 0.8431 0.6992
704.077 0.6584 0.6815 0.6435 0.7602 0.881 0.8189 0.6817 0.6584 0.7061 0.727
723.367 0.7382 0.7708 0.8117 0.8181 0.9712 1.236 1.396 1.616 1.946 2.206
742.657 2.316 2.286 2.166 2.026 1.976 1.876 1.846 1.966 1.986 1.966
761.947 2.046 2.016 1.876 1.646 1.256 0.9819 0.7246 0.5086 0.4733 0.3217
781.236 0.2711 0.319 0.487 0.4974 0.4962 0.6533 0.5682 0.4353 0.409 0.4736
800.526 0.4603 0.4707 0.494 0.4355 0.3787 0.4609 0.5563 0.4066 0.259 0.2686
819.816 0.21933 0.2742 0.3648 0.3951 0.3808 0.3287 0.4333 0.5348 0.5054 0.5334
839.106 0.6929 0.7085 0.6235 0.6935 0.7334 0.5382 0.4381 0.4625 0.5646 0.5549
858.395 0.4881 0.4655 0.5001 0.6545 0.6496 0.7534 0.9267 0.9009 0.8991 0.9764
877.685 0.9978 0.8365 0.7083 0.8328 0.8336 0.7973 0.7834 0.8266 1.0033 1.266
896.975 1.366 1.426 1.716 2.026 2.266 2.616 3.206 3.966 4.846 5.776
916.265 7.126 9.036 11.306 13.846 16.486 18.796 20.456 21.296 21.056 19.636
935.555 17.496 14.876 11.676 8.496 6.056 4.326 3.016 2.246 1.866 1.596
954.844 1.416 1.266 1.1116 1.1468 1.216 1.1489 1.0761 1.0221 1.0607 1.0284
974.134 1.0076 1.0663 1.0216 0.8887 0.8327 0.913 1.0059 1.0113 0.9928 1.1404
993.424 1.406 1.606 1.966 2.476 2.776 2.846 2.816 2.716 2.616 2.466
1012.714 1.956 1.506 1.186 1.0176 0.9713 0.9521 1.0273 1.1098 1.166 1.336
1032.003 1.586 1.506 1.396 1.376 1.316 1.426 1.606 1.726 1.856 2.166
1051.293 2.466 2.566 2.946 3.086 3.076 3.506 3.666 3.446 3.226 2.766
1070.583 2.236 2.026 2.106 2.366 2.586 2.926 3.466 4.066 4.596 5.046
1089.873 5.756 6.526 6.856 6.776 6.936 6.996 6.926 6.776 6.126 5.706
1109.163 5.066 4.196 3.666 2.976 2.366 1.966 1.466 1.186 1.1093 1.1256
1128.452 1.0124 0.8033 0.7779 0.998 1.206 1.0629 1.186 1.336 1.246 1.216
1147.742 1.0805 1.0996 1.196 0.9769 0.6922 0.7416 0.9672 0.8827 0.9549 1.0365
1167.032 0.976 1.286 1.466 1.416 1.586 1.816 1.766 1.756 1.906 2.026
1186.322 2.056 2.156 2.376 2.826 3.236 3.556 4.146 4.616 5.076 5.466
1205.611 5.876 6.296 6.926 7.996 9.046 10.226 11.076 11.526 12.096 12.396
1224.901 12.166 11.436 10.296 9.146 8.186 7.336 6.456 5.586 4.956 4.306
1244.191 3.756 3.436 3.066 2.696 2.336 2.026 1.896 1.826 1.716 1.616
1263.481 1.496 1.326 1.1397 1.0495 1.0726 1.1181 0.9849 0.8019 0.9102 1.0397
1282.771 0.9836 1.065 1.196 1.256 1.456 1.676 1.846 1.996 2.126 2.316
1302.060 2.336 2.266 2.216 2.066 1.836 1.606 1.386 1.1401 0.9641 0.8707
1321.350 0.8504 0.8514 0.7732 0.6625 0.5964 0.5919 0.5953 0.6135 0.6885 0.7796
1340.640 0.7564 0.6526 0.6152 0.6379 0.629 0.6113 0.6208 0.6453 0.6911 0.71
1359.930 0.7647 0.874 0.8736 0.8448 0.892 0.9257 1.0222 1.1359 1.0261 0.9425
1379.219 0.9248 0.8645 0.7525 0.6788 0.7313 0.6003 0.4507 0.4924 0.547 0.5085
1398.509 0.5135 0.4329 0.3668 0.426 0.3811 0.35 0.3836 0.3469 0.3383 0.4522
1417.799 0.6057 0.6092 0.4516 0.4501 0.4398 0.4327 0.4474 0.4271 0.4322 0.601
1437.089 0.6371 0.3903 0.3433 0.3785 0.4048 0.4733 0.4734 0.4713 0.491 0.5692
1456.378 0.8118 0.71 0.4874 0.4641 0.5085 0.4904 0.4089 0.4423 0.6136 0.6416
1475.668 0.5471 0.4991 0.4332 0.4253 0.4061 0.4686 0.5351 0.6222 0.5782 0.4125
1494.958 0.4894 0.5519 0.4803 0.4683 0.4851 0.637 0.8697 0.839 0.7096 0.6384
1514.248 0.6251 0.666 0.6327 0.7367 0.7322 0.5781 0.6269 0.5857 0.5138 0.5657
1533.538 0.6208 0.5592 0.6007 0.8158 0.8154 0.7346 0.7159 0.5553 0.5148 0.532
1552.827 0.5812 0.5983 0.5735 0.766 0.6171 0.3653 0.3617 0.387 0.3925 0.3716
1572.117 0.3336 0.3636 0.4938 0.4647 0.361 0.328 0.2761 0.2804 0.3572 0.379
1591.407 0.3482 0.3649 0.419 0.4072 0.3822 0.3711 0.3767 0.4129 0.39 0.349
1610.697 0.3638 0.4325 0.4615 0.5021 0.4841 0.5043 0.5648 0.5474 0.5217 0.4816
1629.986 0.4469 0.4558 0.6113 0.7359 0.6086 0.5206 0.4969 0.5204 0.6499 0.6154
1649.276 0.4675 0.6314 0.8234 0.6052 0.4517 0.4826 0.5312 0.5209 0.4404 0.4638
1668.566 0.5155 0.4947 0.4825 0.5841 0.5525 0.4775 0.4965 0.5545 0.7291 0.6406
1687.856 0.5476 0.5761 0.4968 0.562 0.7512 0.7126 0.8217 0.8857 0.7355 0.7492
1707.146 0.7244 0.6839 0.6749 0.7517 0.9156 1.0648 0.9417 0.7641 0.7466 0.7057
1726.435 0.6797 0.7812 0.8884 1.0375 1.1381 0.9696 0.9371 0.9646 0.9885 1.0235
1745.725 1.0286 1.1264 1.286 1.386 1.326 1.366 1.516 1.666 1.926 2.076
1765.015 2.236 2.656 2.936 3.246 3.686 4.056 4.616 5.286 5.996 6.856
1784.305 8.006 9.416 11.286 13.856 17.046 20.776 24.936 29.096 32.626 34.916
1803.594 35.586 35.026 33.246 30.056 26.136 22.236 18.966 16.486 14.536 13.076
1822.884 12.046 11.216 10.436 9.796 9.166 8.526 7.976 7.446 6.946 6.456
1842.174 6.066 5.716 5.296 4.966 4.746 4.616 4.626 4.746 4.936 5.166
1861.464 5.526 6.026 6.696 7.486 8.236 8.716 8.896 8.786 8.316 7.536
1880.754 6.516 5.446 4.586 3.856 3.346 2.976 2.626 2.356 2.126 1.926
1900.043 1.706 1.536 1.446 1.306 1.186 1.0696 0.9179 0.8627 0.8435 0.8007
1919.333 0.7144 0.6978 0.705 0.6382 0.6101 0.5812 0.5255 0.5076 0.4979 0.4654
1938.623 0.4736 0.5312 0.5423 0.5173 0.5031 0.4773 0.4734 0.4515 0.4477 0.4607
1957.913 0.4346 0.4182 0.4204 0.4375 0.4473 0.453 0.4447 0.4602 0.4732 0.4934
1977.202 0.506 0.4636 0.4554 0.476 0.4941 0.4672 0.4561 0.4945 0.4842 0.4218
1996.492 0.4071 0.4037 0.4228 0.4269 0.4334 0.4778 0.4484 0.4717 0.4902 0.4457
2015.782 0.4513 0.4439 0.3749 0.3539 0.3715 0.3557 0.2947 0.2997 0.3321 0.3042
2035.072 0.3117 0.3616 0.3365 0.272 0.24256 0.25141 0.2563 0.24583 0.23012 0.20999
2054.362 0.20114 0.18566 0.21052 0.19451 0.20286 0.2869 0.3177 0.2778 0.24307 0.23886
2073.651 0.24258 0.2573 0.2671 0.2769 0.3045 0.2796 0.23044 0.23646 0.24851 0.23848
2092.941 0.23409 0.24525 0.25175 0.269 0.296 0.3042 0.2952 0.3151 0.3699 0.3924
2112.231 0.3671 0.3455 0.3409 0.3185 0.2953 0.3193 0.3536 0.3552 0.3548 0.3699
2131.521 0.3685 0.3899 0.4352 0.4376 0.4096 0.3931 0.3823 0.3985 0.4259 0.4128
2150.810 0.3999 0.4003 0.4227 0.4191 0.4215 0.4385 0.4314 0.4078 0.3682 0.4132
2170.100 0.4399 0.4382 0.4501 0.4362 0.4793 0.4305 0.3404 0.3627 0.3963 0.3864
2189.390 0.3695 0.3867 0.4024 0.3671 0.3573 0.3636 0.3118 0.3376 0.3681 0.3039
2208.680 0.2829 0.2767 0.2862 0.2759 0.24532 0.2947 0.3263 0.3176 0.2749 0.2947
2227.970 0.3306 0.23302 0.19551 0.2683 0.3039 0.2741 0.22059 0.24679 0.25399 0.24135
2247.259 0.25281 0.23263 0.2942 0.3123 0.2567 0.2619 0.2781 0.3018 0.2755 0.2807
2266.549 0.3043 0.2978 0.3203 0.2925 0.2717 0.265 0.2868 0.3164 0.3519 0.3744
2285.839 0.3487 0.2968 0.3007 0.3546 0.3206 0.2937 0.3097 0.3169 0.3301 0.2954
2305.129 0.2679 0.2697 0.24273 0.22061 0.24334 0.23736 0.1998 0.19518 0.20256 0.20394
2324.418 0.22576 0.19531 0.1516 0.19809 0.22989 0.2248 0.17653 0.16917 0.24946 0.2572
2343.708 0.2169 0.19935 0.18474 0.19475 0.23095 0.24638 0.22458 0.2341 0.23685 0.24497
2362.998 0.24148 0.24811 0.21943 0.22567 0.2637 0.21375 0.21405 0.2083 0.17088 0.15283
2382.288 0.161523 0.1993 0.22593 0.21877 0.22703 0.2357 0.24295 0.22647 0.21538 0.1788
2401.578 0.16839 0.22532 0.20474 0.20156 0.2056 0.20131 0.24047 0.24476 0.2784 0.2916
2420.867 0.25371 0.2612 0.22978 0.22295 0.286 0.2729 0.2837 0.2793 0.23281 0.24842
2440.157 0.19871 0.1313 0.15379 0.22812 0.2808 0.3029 0.2662 0.18848 0.18358 0.21549
2459.447 0.23996 0.23211 0.2117 0.2807 0.2982 0.20446 0.15472 0.163367 0.20544 0.15278
2478.737 0.1336 0.19673 0.18107 0.19589 0.17961 0.18233 0.24394 0.23542 0.20335 0.23994
2498.026 0.2228 0.17975 0.165875 0.1426 0.165148 0.20118 0.23521 0.19486 0.15224 0.22908
2517.316 0.22701 0.1724 0.1367 0.17439 0.24329 0.20265 0.22778 0.23744 0.20006 0.159469
2536.606 0.15234 0.23376 0.2845 0.2434 0.21123 0.21951 0.2174 0.18062 0.163194 0.19614
2555.896 0.2047 0.17688 0.134 0.19241 0.22253 0.17219 0.15365 0.16938 0.16868 0.16173
2575.186 0.20527 0.20326 0.20956 0.19016 0.17953 0.21028 0.20851 0.16702 0.14916 0.17772
2594.475 0.17738 0.15139 0.1253 0.1246 0.1307 0.18651 0.22187 0.20367 0.19755 0.20391
2613.765 0.19812 0.17563 0.18954 0.24706 0.21887 0.1233 0.18306 0.24691 0.1885 0.1183
2633.055 0.0966 0.1284 0.1781 0.20205 0.21739 0.19884 0.155399 0.163289 0.21895 0.24875
2652.345 0.155642 0.1261 0.1845 0.18603 0.161327 0.136 0.1536 0.17539 0.158949 0.19513
2671.634 0.20077 0.16916 0.1415 0.0783 0.0948 0.21115 0.2574 0.22016 0.165743 0.15801
2690.924 0.18301 0.21217 0.18099 0.0915 0.1082 0.21607 0.162344 0.0751 0.1015 0.1254
2710.214 0.18007 0.17733 0.17237 0.14703 0.1366 0.14958 0.1129 0.1052 0.19016 0.19959
2729.504 0.164084 0.18071 0.16885 0.131 0.0737 0.05 0.0708 0.16799 0.18674 0.1455
2748.794 0.16934 0.17134 0.18248 0.19653 0.1804 0.1513 0.18807 0.22324 0.19957 0.20541
2768.083 0.1406 0.1115 0.1448 0.159085 0.18231 0.19741 0.18227 0.1081 0.0563 0.082
2787.373 0.19361 0.2877 0.23725 0.23416 0.23001 0.1331 0.1264 0.15382 0.19332 0.2212
2806.663 0.19151 0.19736 0.22595 0.1413 0.05 0.11 0.17382 0.1873 0.22119 0.22731
2825.953 0.20494 0.18741 0.162046 0.17406 0.18019 0.18917 0.2677 0.21571 0.14964 0.15387
2845.242 0.1519 0.163109 0.1212 0.0891 0.15362 0.21634 0.13 0.1188 0.149 0.1065
2864.532 0.1419 0.17065 0.21412 0.20934 0.1875 0.1344 0.1002 0.18526 0.1723 0.1279
2883.822 0.157835 0.19103 0.22122 0.24265 0.1717 0.0904 0.0946 0.1257 0.1236 0.1267
2903.112 0.160122 0.0593 0.006 0.0653 0.0999 0.15033 0.19128 0.19589 0.21075 0.21597
2922.401 0.161662 0.17162 0.22106 0.3141 0.4184 0.5082 0.6395 0.7224 0.692 0.7378
2941.691 0.9515 1.1259 1.206 1.266 1.306 1.176 0.9978 0.9089 0.7212 0.4754
2960.981 0.2491 0.20451 0.24386 0.24729 0.21941 0.1175 0.1436 0.23759 0.24031 0.20016
2980.271 0.18491 0.19763 0.259 0.3028 0.3349 0.4244 0.5276 0.5854 0.5624 0.5338
2999.561 0.5386 0.3869 0.20336 0.17094 0.20297 0.23444 0.21517 0.1432 0.1102 0.18452
3018.850 0.22567 0.159216 0.0991 0.0794 0.0596 0.1274 0.20729 0.15398 0.162724 0.16768
3038.140 0.15299 0.17964 0.20996 0.22649 0.159594 0.145 0.0969 0.037 0.1416 0.155436
3057.430 0.13 0.1435 0.0566 0.0679 0.17673 0.21506 0.2565 0.3435 0.3434 0.298
3076.720 0.2919 0.3034 0.3357 0.2646 0.19977 0.16845 0.082 0.0589 0.0923 0.14834
3096.009 0.2416 0.18278 0.0961 0.164672 0.19802 0.18324 0.17828 0.1279 0.1091 0.0959
3115.299 0.055 0.0756 0.1249 0.19426 0.15324 0.137 0.162607 0.16665 0.1002 0.1036
3134.589 0.1376 0.1289 0.155 0.133 0.1249 0.0851 0.1043 0.17959 0.23447 0.2667
3153.879 0.2565 0.18311 0.1278 0.18911 0.20319 0.0952 0.0644 0.1335 0.16875 0.17247
3173.169 0.1043 0.1221 0.1431 0.1315 0.21031 0.14754 0.0594 0.1106 0.18678 0.159507
3192.458 0.0952 0.1176 0.1333 0.21352 0.23222 0.22216 0.21294 0.1367 0.23683 0.25197
3211.748 0.16723 0.22098 0.21474 0.17067 0.19038 0.1388 0.055 0.0995 0.1394 0.1396
3231.038 0.1368 0.1097 0.1234 0.14809 0.161681 0.1399 0.1354 0.142 0.160991 0.1216
3250.328 0.1342 0.158851 0.156968 0.1856 0.17285 0.1111 0.1083 0.18917 0.20448 0.23015
3269.617 0.3064 0.25384 0.053 0.1037 0.16744 0.0932 0.086 0.0897 0.1 0.156543
3288.907 0.19291 0.1317 0.066 0.0899 0.1548 0.1312 0.0805 0.0969 0.20892 0.24306
3308.197 0.20814 0.19553 0.1191 0.0848 0.1252 0.15245 0.0967 0.039 0.1271 0.155478
3327.487 0.125 0.1228 0.1001 0.1714 0.21805 0.23844 0.2762 0.19596 0.1374 0.18333
3346.777 0.22745 0.25384 0.2783 0.24734 0.2678 0.2801 0.2408 0.2607 0.24629 0.23008
3366.066 0.157026 0.1373 0.18165 0.1134 0.15951 0.24512 0.17343 0.1119 0.2284 0.266
3385.356 0.1124 0 0.011 0.161254 0.18032 0.1399 0.0903 0.0875 0.162176 0.1723
3404.646 0.0932 0.044 0.144 0.2981 0.3294 0.19528 0.19586 0.3275 0.3573 0.24254
3423.936 0.2319 0.2844 0.19014 0.0977 0.1409 0.25554 0.2722 0.1432 0.0676 0.20221
3443.225 0.25019 0.2616 0.2972 0.25168 0.2343 0.18921 0.19621 0.24776 0.2603 0.2927
3462.515 0.2914 0.21844 0.19976 0.22443 0.20626 0.22167 0.2587 0.17855 0.17117 0.19496
3481.805 0.1279 0.17238 0.164816 0.162433 0.24328 0.22877 0.21238 0.20881 0.25053 0.3196
3501.095 0.3554 0.381 0.3101 0.2684 0.2908 0.2603 0.1506 0.054 0.0712 0.17054
3520.385 0.2986 0.3378 0.3909 0.3613 0.20138 0.19907 0.18543 0.1397 0.21301 0.20549
3539.674 0.23458 0.2603 0.3473 0.4699 0.4769 0.3696 0.2966 0.295 0.22721 0.2527
3558.964 0.3607 0.4205 0.3915 0.3597 0.4406 0.4184 0.24796 0.2097 0.2335 0.25349
3578.254 0.22079 0.2664 0.3002 0.2062 0.3628 0.4814 0.3829 0.4116 0.4261 0.4813
3597.544 0.4923 0.4264 0.4498 0.4982 0.4528 0.4682 0.5867 0.5099 0.3931 0.3388
3616.833 0.4126 0.5518 0.4599 0.3873 0.439 0.5794 0.7495 0.6492 0.4723 0.404
3636.123 0.3808 0.4085 0.3778 0.3851 0.4324 0.515 0.6889 0.8206 0.7106 0.5736
3655.413 0.6388 0.5848 0.5224 0.5432 0.5653 0.5302 0.5701 0.7138 0.6696 0.625
3674.703 0.6458 0.4852 0.4012 0.4817 0.4491 0.4224 0.4547 0.5345 0.5389 0.4669
3693.993 0.3387 0.2734 0.2636 0.3059 0.409 0.3976 0.3949 0.3062 0.3768 0.5209
3713.282 0.5194 0.4701 0.4443 0.4111 0.3911 0.4025 0.4294 0.4118 0.3132 0.3295
3732.572 0.4643 0.6211 0.5325 0.4095 0.4462 0.5228 0.5855 0.4589 0.4958 0.619
3751.862 0.6005 0.4343 0.331 0.3448 0.3001 0.2724 0.22682 0.2749 0.2675 0.285
3771.152 0.2974 0.19929 0.3101 0.3566 0.23792 0.157845 0.18358 0.2365 0.17668 0.0642
3790.441 0.158124 0.2593 0.21753 0.25095 0.286 0.3523 0.289 0.22969 0.3425 0.3703
3809.731 0.268 0.2757 0.415 0.446 0.3285 0.387 0.413 0.307 0.3027 0.2972
3829.021 0.2966 0.3094 0.284 0.24991 0.3409 0.3866 0.3016 0.2569 0.271 0.2617
3848.311 0.3214 0.5054 0.6759 0.6715 0.4792 0.2833 0.2747 0.3316 0.3521 0.3358
3867.601 0.2502 0.24902 0.3274 0.3746 0.3032 0.3484 0.3725 0.3772 0.3836 0.3404
3886.890 0.2869 0.24271 0.3122 0.3114 0.20181 0.24507 0.4324 0.4497 0.4628 0.5217
3906.180 0.4206 0.22298 0.159643 0.2316 0.25339 0.3187 0.506 0.5179 0.2761 0.21825
3925.470 0.3909 0.4209 0.4026 0.4063 0.3651 0.3042 0.22392 0.25409 0.37 0.3538
3944.760 0.2675 0.2721 0.3174 0.3244 0.3054 0.3053 0.2635 0.20202 0.23169 0.2768
3964.049 0.3119 0.3157 0.3699 0.2828 0.1185 0.2622 0.3543 0.3533 0.2833 0.2968
3983.339 0.4599 0.3054 0.24765 0.3311 0.3841 0.4038 0.2859 0.3168 0.3226 0.21438
##END=
