##TITLE=Anthracene-d10
##JCAMP-DX=4.24
##DATA TYPE=INFRARED SPECTRUM
##ORIGIN=NIST Mass Spectrometry Data Center
##OWNER=NIST Standard Reference Data Program
Collection (C) 2018 copyright by the U.S. Secretary of Commerce
on behalf of the United States of America. All rights reserved.
##CAS REGISTRY NO=1719-06-8
##MOLFORM=C 14 D 10
##$NIST SOURCE=MSDC-IR
##SPECTROMETER/DATA SYSTEM=HP-GC/MS/IRD
##STATE=gas
##XUNITS=1/CM
##YUNITS=ABSORBANCE
##XFACTOR=1.0
##YFACTOR=0.000000900
##DELTAX=4.0
##FIRSTX=550.0
##LASTX=3846.0
##FIRSTY=0.003635
##MAXX=3846
##MINX=550
##MAXY=0.009
##MINY=0
##NPOINTS=825
##XYDATA=(X++(Y..Y))
550.0 4039 9968 10000 7726 6096 4507 3473 3249 2880 2133
590.0 1237 713 597 561 503 370 318 369 383 295
630.0 207 181 195 166 121 115 75 52 63 45
670.0 69 126 195 221 248 262 317 482 805 1351
710.0 2146 2910 3950 4206 3315 2582 1705 911 510 336
750.0 243 226 202 219 370 698 1293 1890 2722 3447
790.0 2869 2031 1382 775 494 411 474 647 1324 2269
830.0 2580 2287 1460 646 374 283 225 206 240 388
870.0 660 961 1240 1386 1341 1155 879 633 423 272
910.0 249 215 202 159 94 135 215 222 173 155
950.0 123 117 145 119 71 53 103 149 132 98
990.0 61 39 67 115 118 96 75 113 155 164
1030.0 182 183 168 142 116 80 43 32 65 56
1070.0 33 49 47 56 75 80 35 11 64 78
1110.0 71 81 51 19 17 0 31 53 58 99
1150.0 142 212 248 279 272 185 114 114 127 170
1190.0 279 379 425 427 396 288 235 235 191 191
1230.0 202 238 288 381 593 873 1102 1187 1138 905
1270.0 595 379 262 213 212 206 188 200 240 302
1310.0 369 485 685 865 906 796 566 337 245 255
1350.0 277 319 362 376 413 469 512 640 846 997
1390.0 1023 903 737 655 634 606 526 420 339 289
1430.0 237 221 229 233 253 285 312 313 263 177
1470.0 126 100 153 242 411 813 1380 1791 1778 1330
1510.0 705 386 416 642 812 784 580 313 182 166
1550.0 192 217 226 236 245 268 331 396 449 571
1590.0 763 857 783 617 413 307 290 291 270 257
1630.0 227 206 244 275 279 249 214 181 162 212
1670.0 237 182 152 115 93 97 82 80 80 97
1710.0 96 76 78 101 121 109 100 116 135 140
1750.0 119 115 115 103 91 86 91 72 33 19
1790.0 25 39 51 81 114 126 138 138 120 106
1830.0 111 110 104 81 54 50 43 55 87 75
1870.0 46 61 82 78 56 47 56 51 36 25
1910.0 32 39 49 60 54 54 58 62 70 65
1950.0 65 76 88 79 57 61 82 81 72 82
1990.0 76 46 31 27 25 24 12 18 32 34
2030.0 23 26 42 46 37 56 66 60 55 50
2070.0 51 35 19 27 35 57 97 108 89 79
2110.0 78 67 37 32 52 55 42 43 57 60
2150.0 78 81 86 119 114 108 142 165 208 256
2190.0 274 298 326 337 347 386 439 512 643 793
2230.0 966 1179 1481 1890 2375 2913 3547 4195 4865 5736
2270.0 6581 7080 7441 7799 8166 8447 8118 6869 4883 3007
2310.0 1820 1211 891 711 621 597 642 685 620 510
2350.0 427 372 391 411 393 379 337 285 244 200
2390.0 169 153 179 213 203 209 242 231 208 198
2430.0 188 190 169 149 146 129 112 96 96 114
2470.0 95 93 100 81 88 101 91 116 117 82
2510.0 70 76 76 61 68 66 56 57 43 45
2550.0 57 46 41 64 80 79 77 59 42 61
2590.0 79 65 57 47 42 33 13 26 42 50
2630.0 69 82 82 64 87 85 67 85 84 76
2670.0 75 59 75 83 63 59 39 38 46 30
2710.0 37 57 50 50 31 27 48 42 48 63
2750.0 55 29 24 49 53 49 71 90 74 55
2790.0 48 34 66 76 39 48 61 47 72 118
2830.0 124 127 139 124 99 94 115 116 101 94
2870.0 89 94 75 83 132 118 70 64 74 108
2910.0 103 58 63 100 91 38 53 69 49 80
2950.0 108 105 107 101 125 127 91 58 35 60
2990.0 89 59 21 24 66 71 69 113 135 136
3030.0 148 173 202 226 220 234 278 257 241 231
3070.0 196 187 180 171 173 183 184 183 147 127
3110.0 119 64 106 150 149 161 170 179 208 224
3150.0 186 128 116 125 122 133 123 138 113 83
3190.0 88 85 94 67 76 75 63 65 62 88
3230.0 106 106 90 64 76 85 78 71 59 67
3270.0 79 49 38 66 115 129 105 141 145 124
3310.0 94 87 79 11 40 64 50 75 91 60
3350.0 46 66 65 87 84 63 59 59 40 64
3390.0 88 85 87 78 95 83 67 60 48 74
3430.0 103 113 78 51 50 66 81 80 90 84
3470.0 80 124 146 107 122 137 141 142 132 167
3510.0 197 178 158 177 153 138 144 137 132 115
3550.0 107 137 106 77 84 75 78 75 103 129
3590.0 123 103 107 92 120 125 81 82 104 110
3630.0 98 94 105 162 169 122 129 150 144 145
3670.0 136 118 60 95 150 108 126 138 80 65
3710.0 79 92 112 59 21 79 104 89 63 77
3750.0 108 112 143 173 203 187 125 119 178 152
3790.0 176 194 191 203 179 172 161 149 145 118
3830.0 142 119 105 143 143
##END=
