##TITLE=p-Cyanobenzyl bromide
##JCAMP-DX=4.24
##DATA TYPE=INFRARED SPECTRUM
##ORIGIN=NIST Mass Spectrometry Data Center
##OWNER=NIST Standard Reference Data Program
Collection (C) 2018 copyright by the U.S. Secretary of Commerce
on behalf of the United States of America. All rights reserved.
##CAS REGISTRY NO=17201-43-3
##MOLFORM=C 8 H 6 Br N
##$NIST SOURCE=MSDC-IR
##SPECTROMETER/DATA SYSTEM=HP-GC/MS/IRD
##STATE=gas
##XUNITS=1/CM
##YUNITS=ABSORBANCE
##XFACTOR=1.0
##YFACTOR=0.000001600
##DELTAX=4.0
##FIRSTX=550.0
##LASTX=3846.0
##FIRSTY=0.002064
##MAXX=3846
##MINX=550
##MAXY=0.016
##MINY=0
##NPOINTS=825
##XYDATA=(X++(Y..Y))
550.0 1290 1821 925 832 803 659 579 700 905 1258
590.0 1749 2449 3455 4878 6661 8273 9139 9119 8364 7265
630.0 6061 4867 3837 3001 2300 1797 1479 1262 1155 1154
670.0 1111 1052 1057 1064 1100 1208 1404 1691 2117 2649
710.0 3042 3040 2591 1901 1344 1023 803 683 618 520
750.0 409 370 386 390 417 547 756 1003 1331 1633
790.0 1842 2082 2354 2703 3228 3912 4779 5631 6236 6727
830.0 7013 6907 6483 5865 5246 4676 4087 3506 3006 2569
870.0 2181 1872 1675 1517 1313 1158 1025 891 740 569
910.0 429 359 272 195 184 177 155 171 231 265
950.0 262 220 186 156 130 86 43 55 62 48
990.0 11 20 60 81 157 369 946 1631 1802 1465
1030.0 754 218 74 10 7 49 57 75 145 224
1070.0 331 440 542 722 888 1000 1165 1232 1165 1071
1110.0 910 716 544 440 421 388 321 294 328 330
1150.0 349 409 445 498 519 616 828 1023 1275 1643
1190.0 2144 2761 3378 3921 4560 5699 7503 9252 10000 9669
1230.0 8624 7294 5966 4521 3223 2453 2053 1766 1536 1318
1270.0 1174 1083 991 920 838 739 640 534 429 343
1310.0 280 244 225 215 231 253 249 263 278 280
1350.0 290 327 371 412 457 495 511 542 630 760
1390.0 940 1191 1512 1844 2125 2270 2265 2135 1892 1632
1430.0 1414 1276 1189 1114 1020 908 795 670 555 464
1470.0 418 444 535 705 928 1197 1602 2366 3681 5077
1510.0 5496 4608 2853 1297 668 469 361 314 294 275
1550.0 277 297 316 319 315 288 265 260 274 310
1590.0 377 491 665 944 1306 1574 1570 1281 879 567
1630.0 420 392 417 457 515 539 530 525 523 504
1670.0 478 443 410 370 313 267 234 209 164 124
1710.0 121 128 113 108 90 76 95 91 88 105
1750.0 126 141 163 213 279 335 374 450 566 671
1790.0 700 627 503 366 241 162 118 108 97 83
1830.0 80 62 48 51 51 53 64 66 67 76
1870.0 94 117 131 171 233 315 446 585 724 849
1910.0 936 934 866 758 597 429 305 214 158 125
1950.0 95 78 73 67 69 76 78 79 77 68
1990.0 56 52 70 75 73 73 74 68 53 56
2030.0 61 56 54 54 50 45 39 31 25 28
2070.0 36 44 50 50 42 21 17 30 35 40
2110.0 48 50 41 25 29 32 11 3 9 15
2150.0 27 36 35 25 37 59 68 79 80 75
2190.0 84 96 120 150 203 318 483 759 1323 2184
2230.0 3174 3782 3550 2553 1331 542 271 192 168 164
2270.0 164 167 168 181 210 228 231 239 256 256
2310.0 254 249 224 197 183 174 151 132 131 134
2350.0 131 141 146 153 167 168 164 165 164 138
2390.0 120 121 138 136 135 158 151 133 125 118
2430.0 93 72 68 46 28 28 15 3 16 16
2470.0 12 37 42 45 51 41 42 46 22 19
2510.0 37 43 50 43 35 45 41 33 42 54
2550.0 47 38 57 61 42 36 51 58 53 43
2590.0 46 80 82 71 76 75 96 134 147 158
2630.0 192 211 205 173 165 181 192 183 148 127
2670.0 127 119 120 109 108 110 108 124 124 107
2710.0 105 101 89 95 106 91 81 89 92 72
2750.0 84 86 91 113 121 124 126 128 138 141
2790.0 123 133 138 148 194 217 201 182 182 192
2830.0 206 226 236 241 244 242 251 244 233 250
2870.0 273 284 276 270 265 224 199 169 151 187
2910.0 208 214 220 232 241 275 330 346 374 451
2950.0 539 659 819 1025 1248 1459 1653 1797 1816 1682
2990.0 1512 1341 1139 971 907 900 893 901 960 1086
3030.0 1287 1556 1916 2224 2278 2058 1699 1429 1255 1143
3070.0 1095 1036 1041 1094 1162 1223 1226 1171 1076 939
3110.0 765 642 587 590 574 495 386 296 222 147
3150.0 119 118 89 78 87 61 57 75 85 87
3190.0 83 75 49 62 109 132 106 53 51 77
3230.0 82 62 51 60 61 61 46 39 34 11
3270.0 0 23 53 39 30 60 71 69 106 101
3310.0 70 41 38 45 58 71 49 43 74 91
3350.0 82 64 77 104 86 61 45 49 82 93
3390.0 90 112 143 171 184 178 208 197 150 148
3430.0 157 136 147 184 156 125 82 74 93 80
3470.0 91 80 69 88 82 74 54 34 41 49
3510.0 65 89 60 62 84 59 60 72 94 101
3550.0 93 60 69 87 107 114 93 88 103 129
3590.0 105 64 50 86 119 108 88 88 73 80
3630.0 102 89 96 103 90 101 101 69 87 132
3670.0 131 120 109 89 120 156 144 122 114 123
3710.0 103 99 139 149 126 125 152 154 204 211
3750.0 190 199 144 104 91 100 111 104 111 143
3790.0 138 97 91 132 130 118 122 108 122 149
3830.0 151 126 146 156 150
##END=
