##TITLE=1,9-Decadiyne
##JCAMP-DX=4.24
##DATA TYPE=INFRARED SPECTRUM
##ORIGIN=NIST Mass Spectrometry Data Center
##OWNER=NIST Standard Reference Data Program
Collection (C) 2018 copyright by the U.S. Secretary of Commerce
on behalf of the United States of America. All rights reserved.
##CAS REGISTRY NO=1720-38-3
##MOLFORM=C 10 H 14
##$NIST SOURCE=MSDC-IR
##SPECTROMETER/DATA SYSTEM=HP-GC/MS/IRD
##STATE=gas
##XUNITS=1/CM
##YUNITS=ABSORBANCE
##XFACTOR=1.0
##YFACTOR=0.000005000
##DELTAX=4.0
##FIRSTX=550.0
##LASTX=3846.0
##FIRSTY=0.001315
##MAXX=3846
##MINX=550
##MAXY=0.05
##MINY=0
##NPOINTS=825
##XYDATA=(X++(Y..Y))
550.0 263 245 220 202 195 199 195 203 226 246
590.0 294 360 458 605 854 1270 1938 2826 3971 5782
630.0 8493 10000 8616 6313 4392 2853 1800 1156 764 534
670.0 384 278 217 173 140 114 106 105 99 107
710.0 121 129 136 152 156 142 126 107 89 79
750.0 77 74 71 64 48 40 37 29 28 31
790.0 29 29 29 31 37 41 40 28 19 24
830.0 30 28 28 19 17 25 19 12 11 8
870.0 14 26 16 2 2 3 2 2 1 6
910.0 9 8 15 19 19 20 23 27 27 32
950.0 35 33 38 43 44 45 44 39 34 23
990.0 16 15 16 12 10 13 8 1 4 10
1030.0 9 12 19 20 24 26 25 24 25 33
1070.0 42 45 41 34 23 22 23 21 17 13
1110.0 11 15 19 18 19 24 23 24 30 30
1150.0 32 39 47 46 45 54 60 63 66 78
1190.0 91 95 101 119 146 175 206 254 327 442
1230.0 635 934 1368 1894 2310 2401 2183 1724 1209 833
1270.0 609 482 404 356 326 301 282 275 279 286
1310.0 298 322 352 383 410 417 408 388 376 370
1350.0 365 348 314 273 235 200 171 144 119 101
1390.0 90 85 88 93 100 116 139 174 227 318
1430.0 451 603 714 767 754 711 680 649 601 526
1470.0 432 340 262 196 149 113 85 65 57 51
1510.0 41 34 29 30 29 22 21 22 19 16
1550.0 16 17 17 19 21 18 15 10 12 14
1590.0 9 5 7 9 7 6 7 11 9 7
1630.0 5 3 6 8 10 11 11 8 7 6
1670.0 3 6 6 4 3 2 8 14 10 9
1710.0 9 10 9 7 3 1 4 6 8 5
1750.0 1 1 1 4 6 9 10 6 4 6
1790.0 7 7 6 5 5 4 6 9 9 8
1830.0 5 1 4 6 5 6 9 8 4 5
1870.0 5 4 5 6 9 9 7 6 7 7
1910.0 7 6 4 3 2 1 1 1 4 4
1950.0 5 4 4 6 8 9 7 6 6 6
1990.0 11 11 10 12 11 11 13 15 14 15
2030.0 15 19 23 22 25 27 27 31 37 39
2070.0 41 48 57 68 86 110 143 192 250 315
2110.0 386 442 466 446 380 284 188 121 83 59
2150.0 45 37 33 31 28 25 23 20 17 17
2190.0 16 17 19 17 17 16 10 10 11 11
2230.0 9 11 13 12 13 14 13 13 11 11
2270.0 13 15 15 17 16 14 16 16 15 15
2310.0 14 13 12 14 14 16 16 12 17 11
2350.0 9 13 14 15 14 14 13 14 13 11
2390.0 12 13 13 16 15 12 14 12 10 10
2430.0 14 14 11 11 16 12 9 10 6 1
2470.0 2 3 3 5 7 8 10 13 14 12
2510.0 14 16 16 15 18 19 17 18 19 18
2550.0 15 10 12 12 13 19 19 15 18 18
2590.0 21 23 25 29 30 32 32 34 36 38
2630.0 46 50 51 54 55 53 57 64 70 78
2670.0 79 78 83 94 101 104 108 99 83 69
2710.0 62 60 58 55 56 60 59 58 61 64
2750.0 69 64 64 68 70 74 80 80 80 86
2790.0 95 105 113 127 145 158 177 202 232 266
2830.0 313 383 478 607 783 1006 1267 1535 1771 1934
2870.0 1977 1893 1717 1505 1327 1220 1201 1272 1442 1693
2910.0 2004 2368 2780 3287 3925 4663 5441 6143 6585 6565
2950.0 5995 4981 3800 2753 1948 1370 976 722 556 439
2990.0 352 290 251 216 192 170 149 133 118 107
3030.0 94 87 83 79 78 73 67 65 66 64
3070.0 60 58 52 44 38 36 32 32 36 34
3110.0 31 25 20 22 25 22 14 19 22 20
3150.0 19 18 18 19 21 20 17 18 17 15
3190.0 16 13 13 12 14 22 21 24 31 30
3230.0 31 36 42 53 68 86 105 127 156 190
3270.0 229 278 358 470 576 686 812 1019 1362 1646
3310.0 1884 2094 2406 3119 3556 3558 3128 2079 1282 905
3350.0 665 525 427 347 263 185 132 105 80 59
3390.0 53 52 39 32 27 25 28 29 26 17
3430.0 16 21 20 18 25 22 12 11 12 13
3470.0 15 18 16 13 14 14 18 21 15 15
3510.0 10 7 10 5 5 13 14 13 10 4
3550.0 5 9 14 15 9 6 11 8 1 2
3590.0 2 5 8 10 7 11 20 17 12 15
3630.0 17 13 16 17 8 8 16 20 16 15
3670.0 18 11 14 21 16 11 8 3 6 3
3710.0 0 7 10 13 17 19 15 5 6 12
3750.0 11 9 11 22 23 19 23 19 16 16
3790.0 10 8 12 15 16 17 15 13 13 7
3830.0 6 10 11 8 11
##END=
