##TITLE=2,3-Dichlorothiophenol
##JCAMP-DX=4.24
##DATA TYPE=INFRARED SPECTRUM
##ORIGIN=EPA-IR VAPOR PHASE LIBRARY
##OWNER=SRD/NIST
Collection (C) 2018 copyright by the U.S. Secretary of Commerce
on behalf of the United States of America. All rights reserved.
##CAS REGISTRY NO=17231-95-7
##MOLFORM=C 6 H 4 Cl 2 S
##$NIST SOURCE=MSDC-IR
##STATE=gas
##XUNITS=1/CM
##YUNITS=ABSORBANCE
##XFACTOR=1.
##YFACTOR=0.001
##DELTAX=1.92934
##FIRSTX=549.9
##LASTX=3999.5
##FIRSTY=2.0806
##MAXX=3999.53
##MINX=549.863
##MAXY=0.12112
##MINY=0
##NPOINTS=1789
##XYDATA=(X++(Y..Y))
549.863 2.0806 1.8963 1.4869 1.5254 1.6804 1.7097 1.6738 1.6871 1.7188 1.6643
569.156 1.5714 1.5804 1.789 1.9382 2.0158 1.9287 1.7002 1.8749 2.0108 1.949
588.450 1.9613 2.0525 2.0835 1.9236 1.8787 1.914 1.9585 1.9917 1.9543 2.0483
607.743 2.19 2.23 2.24 2.2 2.179 2.0879 1.9759 1.9826 1.9061 1.7501
627.037 1.5913 1.4777 1.4797 1.469 1.466 1.5899 1.6775 1.7028 1.815 1.8634
646.330 1.8224 1.983 2.0789 2.0167 1.9965 2.0051 2.1043 2.1119 2.1842 2.26
665.624 2.29 2.41 2.52 2.64 2.92 3.29 3.8 4.62 5.8 7.23
684.917 8.74 10.34 11.97 13.48 15.32 18.26 23.03 26.11 22.69 18.19
704.210 16.33 15.15 14.07 12.57 11.04 9.79 8.95 8.82 9.18 10.06
723.504 11.33 12.42 13.33 14.31 15.49 16.82 18.05 18.88 19.26 19.54
742.797 20.07 21.28 23.46 26.88 31.56 37.42 44.26 51.52 58.96 67.7
762.091 80.65 101.02 119.09 121.12 114.09 109.41 110.6 114.27 115.74 113.61
781.384 108.2 100.94 93.05 84.77 75.39 65.21 54.38 43.33 33.61 26.15
800.678 20.92 17.11 14.1 11.8 9.99 8.61 7.56 6.86 6.45 6.14
819.971 6.01 5.99 5.86 5.67 5.54 5.44 5.22 4.82 4.42 4.09
839.264 3.75 3.4 3.14 2.92 2.67 2.45 2.36 2.26 2.1829 2.1612
858.558 2.0413 1.9394 1.9413 1.9378 1.9849 2.0724 2.162 2.23 2.32 2.49
877.851 2.71 2.93 3.17 3.44 3.65 3.67 3.73 3.83 3.83 3.78
897.145 3.7 3.58 3.34 3.09 3.04 3.04 3.03 3.2 3.54 3.84
916.438 4.1 4.36 4.58 4.75 4.8 4.76 4.66 4.45 4.1 3.8
935.732 3.63 3.51 3.36 3.26 3.22 3.2 3.22 3.24 3.33 3.36
955.025 3.37 3.41 3.4 3.36 3.33 3.3 3.21 3.07 2.91 2.78
974.318 2.72 2.74 2.82 3 3.21 3.43 3.69 4.07 4.51 4.91
993.612 5.32 5.69 5.99 6.16 6.28 6.35 6.4 6.35 6.13 5.94
1012.905 5.9 5.95 6.05 6.26 6.56 6.97 7.5 8.11 8.85 9.76
1032.199 10.82 12.16 13.79 15.67 17.74 19.79 21.43 22.16 21.87 20.99
1051.492 20.38 19.91 18.49 15.86 12.77 9.97 7.74 6.2 5.24 4.66
1070.786 4.42 4.43 4.58 4.92 5.46 6.14 6.85 7.21 7.15 6.94
1090.079 6.7 6.43 6.06 5.41 4.44 3.48 2.67 2.181 2.088 2.0781
1109.372 2.0261 2.0221 2.1268 2.27 2.45 2.62 2.84 3.25 3.72 4.26
1128.666 5.1 6.33 7.98 10.26 13.19 17.04 22.15 27.85 33.89 39.79
1147.959 44.58 48.26 51.39 54.07 56.17 56.77 54.13 48.54 42.09 36.61
1167.253 31.97 27.07 22.04 17.45 14.1 12.37 12.04 12.99 14.96 18.05
1186.546 22.39 27.09 31.6 35.71 38.56 40.09 40.21 38.84 36.89 33.84
1205.840 29.26 24.46 20.15 16.66 13.81 11.56 10.37 9.37 8.3 7.38
1225.133 6.62 5.87 5.16 4.78 4.36 4.02 4.31 4.75 4.93 5.26
1244.426 5.76 6.16 6.28 6.32 6.42 6.36 6.24 6.06 5.83 5.63
1263.720 5.29 4.73 4.29 4.01 3.76 3.64 3.5 3.46 3.42 3.22
1283.013 3.18 3.11 2.98 2.82 2.71 2.59 2.42 2.24 2.1258 2.0499
1302.307 2.0009 1.9546 1.845 1.7862 1.7723 1.6978 1.6317 1.5914 1.5585 1.5908
1321.600 1.6447 1.7055 1.6627 1.6 1.5856 1.5969 1.6587 1.731 1.8382 1.8777
1340.894 1.9278 2.0818 2.24 2.3 2.37 2.54 2.73 2.92 3.08 3.22
1360.187 3.39 3.58 3.82 4.13 4.59 5.16 5.86 6.74 7.97 9.54
1379.480 11.47 14.06 17.47 21.63 26.67 32.58 39.23 46.65 54.87 63.74
1398.774 72.81 81.24 87.88 91.92 92.65 90.37 86.38 82.07 77.63 72.1
1418.067 65.67 60.51 59.8 64.34 72.7 82.22 90.15 95.13 97.5 96.9
1437.361 92.49 86.04 76.61 62.11 45.56 31.45 21.52 15.5 12.02 10.05
1456.654 8.88 8.13 7.79 7.71 7.91 8.29 8.78 9.35 9.86 10.15
1475.948 10.26 10.21 9.96 9.56 8.9 8.13 7.26 6.34 5.53 4.79
1495.241 4.26 3.92 3.7 3.53 3.4 3.42 3.48 3.44 3.46 3.52
1514.534 3.57 3.71 3.89 4.13 4.3 4.5 4.82 5.13 5.52 6
1533.828 6.62 7.38 8.38 9.71 11.51 13.92 17.02 20.94 25.62 31.04
1553.121 36.99 43.64 50.36 56.86 61.98 64.43 63.78 60.07 54.24 47.38
1572.415 40.42 33.53 26.36 19.5 13.94 9.82 7.09 5.47 4.52 3.94
1591.708 3.53 3.23 3.09 2.86 2.62 2.5 2.4 2.33 2.31 2.22
1611.002 2.1707 2.19 2.1842 2.23 2.27 2.35 2.5 2.6 2.74 2.92
1630.295 3.09 3.25 3.45 3.76 3.99 4.21 4.51 4.76 4.97 5.1
1649.588 5.1 5.11 5.06 4.82 4.58 4.32 3.98 3.63 3.29 3.01
1668.882 2.83 2.63 2.48 2.39 2.22 2.1353 2.0281 1.9274 1.9255 1.8829
1688.175 1.834 1.7855 1.7365 1.7424 1.6816 1.6564 1.7124 1.725 1.7247 1.7284
1707.469 1.7491 1.752 1.7575 1.7899 1.8284 1.8261 1.7924 1.7539 1.735 1.746
1726.762 1.7862 1.796 1.7622 1.7978 1.8733 1.9648 2.0587 2.0988 2.2 2.34
1746.056 2.44 2.55 2.72 2.88 2.95 3.08 3.2 3.24 3.25 3.24
1765.349 3.29 3.3 3.31 3.27 3.11 2.98 2.88 2.7 2.54 2.41
1784.642 2.27 2.157 2.0199 1.8789 1.7514 1.5769 1.4821 1.437 1.4113 1.415
1803.936 1.4605 1.5099 1.5115 1.5275 1.5592 1.6524 1.7549 1.8368 1.9453 2.113
1823.229 2.38 2.65 2.87 3.08 3.34 3.59 3.76 3.88 4.02 4.18
1842.523 4.18 4.09 3.99 3.79 3.58 3.4 3.16 2.91 2.64 2.37
1861.816 2.1353 1.9575 1.8257 1.7199 1.6392 1.5899 1.5773 1.5403 1.4956 1.504
1881.110 1.5249 1.5838 1.6495 1.683 1.7792 1.8829 1.9633 2.151 2.34 2.51
1900.403 2.75 3.07 3.41 3.71 4.07 4.43 4.67 4.87 5.04 5.12
1919.696 5.08 4.96 4.77 4.55 4.26 3.9 3.58 3.27 2.94 2.66
1938.990 2.4 2.1341 1.9472 1.7689 1.6647 1.5921 1.4683 1.3791 1.3171 1.28184
1958.283 1.25036 1.20777 1.1498 1.1177 1.1254 1.1068 1.089 1.082 1.045 1.015
1977.577 1.075 1.1056 1.08 1.08 1.084 1.068 1.08 1.023 0.958 0.977
1996.870 0.961 1.017 1.035 0.966 0.967 0.994 0.988 0.973 0.989 0.981
2016.164 0.998 1.035 0.988 0.962 0.982 0.949 0.951 0.996 1.002 0.991
2035.457 0.996 0.997 1.003 0.973 0.935 0.959 0.977 0.99 0.994 0.969
2054.750 0.93 0.962 0.988 0.96 0.952 0.957 0.971 0.965 0.972 0.988
2074.044 0.953 0.926 0.929 0.942 0.925 0.916 0.952 0.954 0.946 0.917
2093.337 0.901 0.903 0.876 0.895 0.923 0.892 0.868 0.87 0.839 0.818
2112.631 0.845 0.87 0.846 0.847 0.919 0.97 0.972 0.985 0.99 1.014
2131.924 1.068 1.065 1.088 1.0973 1.049 1.0946 1.1172 1.079 1.066 1.03
2151.218 1.006 0.986 0.92 0.901 0.948 0.937 0.9 0.873 0.876 0.896
2170.511 0.914 0.95 0.966 0.978 0.951 0.92 0.973 0.991 0.964 0.977
2189.804 0.994 1.004 0.951 0.932 0.949 0.935 0.958 0.972 0.966 0.925
2209.098 0.894 0.905 0.918 0.91 0.886 0.86 0.826 0.821 0.813 0.809
2228.391 0.855 0.875 0.86 0.802 0.767 0.781 0.797 0.811 0.809 0.796
2247.685 0.817 0.83 0.821 0.82 0.794 0.773 0.82 0.869 0.85 0.822
2266.978 0.842 0.846 0.845 0.916 0.959 0.979 1.067 1.1692 1.22392 1.27241
2286.272 1.3254 1.3436 1.3926 1.4406 1.4337 1.5048 1.5566 1.5417 1.5766 1.6361
2305.565 1.6472 1.6355 1.6416 1.6364 1.6197 1.5736 1.5315 1.5081 1.4645 1.4288
2324.858 1.4187 1.372 1.27256 1.2388 1.23226 1.22238 1.25663 1.22629 1.1627 1.1705
2344.152 1.1628 1.131 1.083 1.084 1.091 1.061 1.063 1.031 1.005 0.94
2363.445 0.908 0.934 0.885 0.868 0.896 0.884 0.837 0.831 0.83 0.819
2382.739 0.822 0.811 0.819 0.844 0.852 0.87 0.868 0.854 0.866 0.863
2402.032 0.832 0.827 0.853 0.83 0.814 0.8 0.778 0.787 0.77 0.762
2421.326 0.776 0.765 0.791 0.83 0.866 0.905 0.928 0.95 0.935 0.937
2440.619 0.972 1.006 1.0959 1.152 1.1035 1.071 0.996 0.96 1.053 1.082
2459.912 1.045 1.081 1.1208 1.09 1.036 1.028 1.076 1.1067 1.1006 1.0968
2479.206 1.1002 1.1406 1.19272 1.23944 1.3211 1.3308 1.3487 1.3935 1.3935 1.4054
2498.499 1.4401 1.4895 1.5182 1.5593 1.5576 1.452 1.4004 1.3912 1.3134 1.2571
2517.793 1.20477 1.1013 1.066 1.016 0.95 0.922 0.874 0.835 0.849 0.873
2537.086 0.85 0.841 0.806 0.792 0.815 0.779 0.776 0.805 0.837 0.896
2556.380 0.867 0.891 0.946 0.953 1.005 1.032 1.1104 1.23111 1.25101 1.3603
2575.673 1.5537 1.76 2.0303 2.3 2.6 2.97 3.4 3.92 4.48 5.03
2594.966 5.53 5.9 6.11 6.14 6.11 5.86 5.42 4.92 4.37 3.74
2614.260 3.09 2.57 2.0978 1.7226 1.5156 1.3339 1.18211 1.1279 1.1324 1.1267
2633.553 1.099 1.068 1.1609 1.26169 1.22303 1.21946 1.1783 1.1683 1.1061 0.995
2652.847 1.047 1.035 0.936 0.803 0.746 0.786 0.759 0.692 0.634 0.611
2672.140 0.568 0.528 0.548 0.597 0.597 0.568 0.574 0.643 0.674 0.57
2691.434 0.487 0.479 0.476 0.428 0.459 0.53 0.486 0.529 0.6 0.579
2710.727 0.566 0.571 0.573 0.544 0.517 0.488 0.486 0.436 0.424 0.506
2730.020 0.46 0.33 0.309 0.305 0.392 0.423 0.335 0.363 0.327 0.337
2749.314 0.382 0.321 0.256 0.297 0.371 0.347 0.335 0.32 0.301 0.264
2768.607 0.278 0.362 0.349 0.306 0.341 0.411 0.429 0.469 0.493 0.45
2787.901 0.46 0.546 0.591 0.51 0.486 0.546 0.515 0.481 0.503 0.556
2807.194 0.541 0.42 0.406 0.404 0.346 0.335 0.344 0.309 0.33 0.304
2826.488 0.213 0.295 0.416 0.4 0.325 0.343 0.342 0.308 0.299 0.336
2845.781 0.369 0.446 0.485 0.435 0.495 0.56 0.523 0.576 0.707 0.731
2865.074 0.662 0.672 0.657 0.583 0.56 0.497 0.461 0.433 0.386 0.334
2884.368 0.263 0.216 0.23 0.279 0.253 0.13 0.1 0.19 0.16 0.06
2903.661 0.222 0.269 0.17 0.194 0.09 0.06 0.11 0.1 0.17 0.14
2922.955 0.07 0 0.05 0.17 0.11 0.06 0.09 0.07 0.14 0.224
2942.248 0.19 0.09 0.12 0.282 0.266 0.241 0.295 0.338 0.395 0.521
2961.542 0.569 0.513 0.658 0.727 0.841 0.937 0.881 0.976 1.078 1.05
2980.835 0.999 1.058 1.03 0.982 0.997 0.936 0.827 0.734 0.593 0.584
3000.128 0.556 0.38 0.289 0.419 0.414 0.243 0.226 0.302 0.333 0.351
3019.422 0.365 0.297 0.299 0.336 0.407 0.466 0.556 0.661 0.775 0.974
3038.715 1.1025 1.28998 1.7452 2.32 3 3.77 4.61 5.72 7.06 8.55
3058.009 10.13 11.86 13.53 14.89 15.81 16.05 15.86 15.5 14.92 13.99
3077.302 12.47 10.43 8.27 6.51 5.27 4.07 3.02 2.45 2.0322 1.7133
3096.596 1.6079 1.5982 1.5705 1.5863 1.6467 1.7359 1.696 1.6952 1.855 1.9423
3115.889 1.9993 2.1138 2.3 2.24 2.1271 2.21 2.29 2.23 2.0199 1.8375
3135.182 1.8364 1.7032 1.3064 1.129 1 0.792 0.714 0.569 0.482 0.377
3154.476 0.308 0.326 0.228 0.249 0.262 0.329 0.369 0.22 0.221 0.302
3173.769 0.17 0.01 0.01 0.09 0.25 0.352 0.3 0.18 0.231 0.242
3193.063 0.12 0.05 0.16 0.225 0.14 0.287 0.343 0.15 0.17 0.332
3212.356 0.298 0.17 0.16 0.11 0.244 0.41 0.425 0.398 0.328 0.228
3231.650 0.209 0.292 0.291 0.15 0.11 0.246 0.367 0.293 0.261 0.396
3250.943 0.554 0.468 0.301 0.344 0.314 0.422 0.406 0.23 0.16 0.13
3270.236 0.197 0.315 0.393 0.368 0.377 0.436 0.393 0.411 0.346 0.285
3289.530 0.45 0.419 0.324 0.346 0.377 0.391 0.528 0.737 0.716 0.634
3308.823 0.442 0.46 0.579 0.47 0.409 0.437 0.409 0.388 0.433 0.509
3328.117 0.5 0.327 0.394 0.595 0.626 0.522 0.613 0.656 0.56 0.496
3347.410 0.466 0.628 0.674 0.672 0.6 0.647 0.723 0.611 0.68 0.661
3366.704 0.588 0.601 0.451 0.522 0.767 0.655 0.658 0.694 0.588 0.622
3385.997 0.618 0.518 0.532 0.719 0.58 0.341 0.466 0.532 0.533 0.631
3405.290 0.693 0.736 0.664 0.678 0.745 0.697 0.639 0.707 0.816 0.809
3424.584 0.767 0.742 0.83 0.827 0.688 0.691 0.779 0.908 0.956 0.96
3443.877 0.859 0.848 0.79 0.75 1.01 1.081 1.04 0.962 0.817 0.857
3463.171 1.022 1.017 0.931 0.967 1.1183 1.1131 1.1398 1.3246 1.3938 1.4511
3482.464 1.5885 1.6381 1.7242 1.7945 1.8363 1.8486 2.0268 2.23 2.27 2.48
3501.758 2.58 2.56 2.51 2.56 2.75 2.69 2.5 2.48 2.3 2.0796
3521.051 2.0169 1.8257 1.6337 1.4533 1.3014 1.2779 1.21014 1.1069 1.1387 1.27608
3540.344 1.20354 1.005 0.977 1.032 1.016 1.082 1.19017 1.20008 1.1007 0.995
3559.638 0.961 0.912 0.812 0.858 0.977 0.897 0.772 0.884 1.015 0.927
3578.931 0.875 0.953 0.979 0.916 0.978 1.028 0.948 0.954 1.036 1.025
3598.225 0.945 1.006 1.049 1.071 1.1132 0.929 0.779 0.861 0.981 1.036
3617.518 1.072 1.048 0.979 0.995 1.029 0.95 0.902 1.02 1.035 0.975
3636.812 0.96 0.935 0.92 0.993 1.017 0.988 1 0.975 0.973 0.94
3656.105 0.925 0.922 0.936 0.985 0.949 0.952 0.979 0.973 0.98 0.99
3675.398 0.986 0.827 0.848 1.059 1.051 1.073 1.082 1.035 1.03 1.058
3694.692 0.999 0.912 0.977 1.013 0.983 1.016 1.07 1.0961 1.078 0.962
3713.985 0.889 0.921 1.036 1.1203 1.036 0.898 0.93 1.018 1.048 0.996
3733.279 0.966 0.976 0.9 0.871 0.921 1.021 1.1002 0.988 0.936 1.059
3752.572 1.03 0.987 1.012 1.089 1.1463 1.122 1.0932 1.1421 1.25208 1.1652
3771.866 1.2072 1.26174 1.19685 1.1329 1.1038 1.21082 1.3035 1.3509 1.3295 1.4191
3791.159 1.5005 1.4759 1.4172 1.3383 1.4994 1.5194 1.4421 1.4791 1.4347 1.3429
3810.452 1.3866 1.4944 1.3874 1.23588 1.24096 1.377 1.3016 1.1402 1.19863 1.25427
3829.746 1.1124 0.997 1.1145 1.23636 1.22651 1.25848 1.26111 1.19832 1.19294 1.1735
3849.039 1.25459 1.3194 1.21233 1.1492 1.087 1.044 0.995 1.037 1.1482 1.006
3868.333 1.009 1.1162 0.972 0.952 1.011 0.885 0.82 0.939 0.91 0.842
3887.626 0.82 0.813 0.897 0.853 0.857 0.931 0.896 0.911 0.911 0.856
3906.920 0.769 0.835 0.999 1.047 0.948 0.842 0.828 0.929 1.005 0.943
3926.213 0.93 0.942 0.892 0.806 0.858 0.948 0.891 0.928 0.946 0.779
3945.506 0.766 0.876 0.85 0.843 0.833 0.777 0.768 0.736 0.844 0.862
3964.800 0.824 0.849 0.893 1.005 1.004 0.875 0.831 0.886 0.954 0.934
3984.093 0.817 0.768 0.841 0.937 1.016 1.058 0.939 0.983 1.029
##END=
