##TITLE=3-Chlorobenzenesulphonamide
##JCAMP-DX=4.24
##DATA TYPE=INFRARED SPECTRUM
##ORIGIN=EPA-IR VAPOR PHASE LIBRARY
##OWNER=SRD/NIST
Collection (C) 2018 copyright by the U.S. Secretary of Commerce
on behalf of the United States of America. All rights reserved.
##CAS REGISTRY NO=17260-71-8
##MOLFORM=C 6 H 6 Cl N O 2 S
##$NIST SOURCE=MSDC-IR
##STATE=gas
##XUNITS=1/CM
##YUNITS=ABSORBANCE
##XFACTOR=1.
##YFACTOR=0.001
##DELTAX=1.92898
##FIRSTX=549.8
##LASTX=4000.7
##FIRSTY=10.46
##MAXX=4000.7
##MINX=549.759
##MAXY=0.11045
##MINY=0
##NPOINTS=1790
##XYDATA=(X++(Y..Y))
549.759 10.46 10.69 11.13 12.15 13.63 16.04 18.58 20.88 23.72 26.43
569.049 29.5 32.54 36.72 42.16 47.7 53.85 59.36 63.56 66.4 66.78
588.339 64.65 60.87 55.07 48.56 41.86 35.06 29.5 25.03 21.29 18.13
607.628 16.13 15.1 13.53 12.35 11.65 10.93 10.05 9.18 9.46 9.74
626.918 9.49 9.31 8.9 8.39 8.55 8.6 8.54 8.5 8.35 8.15
646.208 8.23 8.8 8.91 9.12 9.52 10.98 13.92 18.8 25 30.79
665.498 34.95 36.87 38.17 40.34 40.98 37.3 32.62 29.23 26.35 23.56
684.787 20.93 19.28 17.94 16.25 15.02 13.8 12.63 11.94 11.53 10.82
704.077 10.15 10.18 10.22 9.84 9.64 9.4 9.44 9.71 9.49 9.31
723.367 9.51 9.6 9.07 8.77 9.07 9.37 9.7 9.72 9.42 9.31
742.657 9.09 9.11 9.31 9.25 9.67 10.2 9.97 9.82 10.58 11.62
761.947 12.13 12.7 13.69 15.01 16.8 18.81 20.8 22.94 25.57 27.91
781.236 29.69 31.48 31.48 28.93 25.44 22.56 20.04 17.66 15.46 13.05
800.526 11.33 10.19 9.4 9.17 9.17 9.14 9.16 9.15 9.2 9.2
819.816 9.56 10.05 10.25 10.94 11.77 12.49 13.29 14.01 14.84 16.12
839.106 17.38 18.51 19.94 21.95 24.01 25.88 27.75 29.63 31.37 32.76
858.395 34.08 35.18 35.59 35.3 34.94 33.69 32.16 30.68 28.77 26.85
877.685 24.79 23.19 21.66 19.66 18.22 17.23 15.5 14.09 13.01 11.62
896.975 10.64 9.92 9.04 8.18 7.27 6.74 6.69 6.43 5.65 4.91
916.265 4.65 4.47 4.14 3.77 3.57 3.59 3.58 3.39 3.22 3.05
935.555 2.51 2.08 2.29 2.29 2.04 2.6 2.91 2.32 2.16 2.41
954.844 2.25 1.9 1.84 2.01 2.33 2.26 2.01 2.13 2.22 2.37
974.134 2.53 2.3 1.86 1.72 1.65 1.41 1.7 2.26 2.57 2.23
993.424 1.97 2.56 2.71 2.51 2.49 2.76 2.63 2.23 1.87 1.46
1012.714 1.53 1.46 1.56 1.75 1.68 1.72 1.3378 1.1275 1.174 1.162
1032.003 1.2164 1.42 2.22 2.32 1.85 1.8 1.59 1.64 2.1 2.22
1051.293 2.12 1.82 1.88 3.04 4.17 5.05 5.91 6.86 7.57 7.84
1070.583 8.96 9.79 10 10.95 12.28 12.97 12.78 12.11 11.35 10.99
1089.873 11.09 10.45 9.57 9.75 11.01 11.52 11.6 12.04 12.64 13.48
1109.163 14.73 16.95 19.33 19.97 20.47 20.62 20.71 20.12 17.78 15.99
1128.452 14.69 13.69 12.07 10.25 9.69 9.49 9.36 9.62 9.53 10.28
1147.742 11.24 12.33 13.74 15.34 17.79 20.72 24.82 30.05 36.51 43.85
1167.032 52.59 63.71 76.49 88.94 99.76 107.33 110.45 109.45 103.75 93.48
1186.322 80.92 66.61 52.28 41.28 33.12 26.2 20.63 17.23 15.24 12.76
1205.611 10.64 9.76 8.19 7.37 7.56 7 5.93 5.5 5.28 5.2
1224.901 5.35 4.99 4.79 4.35 3.93 4.41 4.74 4.43 4.32 4.27
1244.191 3.99 4.08 4.17 4.08 4.06 3.91 3.71 3.38 3.28 3.42
1263.481 3.22 3.11 3.1 3.22 3.15 3.04 3.56 4.03 4.17 4.56
1282.771 5.13 5.52 5.87 6.26 6.41 6.6 6.71 6.53 5.93 5.11
1302.060 4.52 4.11 3.69 3.49 3.29 3.09 3.07 3.03 3.08 3.09
1321.350 3.12 3.26 3.35 3.51 3.85 4.29 4.67 5.04 5.53 6.12
1340.640 6.82 7.75 8.77 9.86 11.23 12.92 14.73 16.63 18.8 21.14
1359.930 23.68 26.48 29.32 32.14 35.4 39.3 43.9 49.37 55.39 61.16
1379.219 66.46 70.76 73.3 73.98 73.16 71.08 67.24 61.83 55.75 49.69
1398.509 44.19 39.34 35.33 32.05 29.54 27.71 26.17 24.85 23.74 22.49
1417.799 20.92 19.34 17.89 16.3 14.42 12.45 10.65 9.31 8.34 7.57
1437.089 7.26 7.24 7.23 7.42 7.87 8.44 9.11 9.76 10.37 11.04
1456.378 11.62 12.14 12.68 13.18 13.41 13.54 13.41 12.95 12.34 11.49
1475.668 10.4 9.15 7.8 6.54 5.6 4.69 4.07 3.7 3.51 3.4
1494.958 3.34 3.25 3.06 3.05 3.15 3.18 3.3 3.55 3.69 3.91
1514.248 4.23 4.43 4.72 5.11 5.46 5.97 6.53 7.05 7.62 8.29
1533.538 9.06 9.91 10.87 11.81 12.79 13.91 14.84 15.51 16.17 16.63
1552.827 16.67 16.28 15.82 15.21 14.44 13.81 13.26 13.08 13.17 13.26
1572.117 13.7 14.2 14.83 15.43 15.38 14.87 13.89 12.46 10.74 8.89
1591.407 7.02 5.44 4.44 3.68 3.16 2.78 2.43 2.22 1.86 1.68
1610.697 1.71 1.71 1.57 1.4 1.3786 1.2472 1.0914 1.1382 1.0489 0.8345
1629.986 0.8374 0.9789 1.0395 1.0899 1.0395 0.8737 0.9711 1.1131 1.0014 0.8794
1649.276 0.9287 0.9205 0.9479 0.9804 1.0085 0.8994 0.8823 1.1092 1.0757 1.0079
1668.566 1.0544 0.9596 0.9004 0.9191 0.9632 1.0411 1.0773 1.218 1.41 1.62
1687.856 1.68 1.74 1.9 1.91 1.84 1.76 1.56 1.41 1.3385 1.1253
1707.146 1.0364 1.061 0.9016 0.7688 0.8819 0.8879 0.8631 0.8729 0.7283 0.7181
1726.435 0.8233 0.8276 0.8552 0.8597 0.895 0.9963 0.941 0.9012 0.9553 0.9457
1745.725 0.8545 0.9164 1.0994 1.1004 1.0645 1.0648 1.0587 1.1638 1.1893 1.2358
1765.015 1.3507 1.274 1.2581 1.3667 1.3423 1.2222 1.3145 1.3735 1.3126 1.3182
1784.305 1.2751 1.1878 1.0686 1.0424 1.0457 1.0269 1.0916 1.1151 1.1244 1.125
1803.594 1.0174 0.9445 0.9599 1.0489 1.1004 1.0165 0.9557 1.0072 1.0794 1.0579
1822.884 0.9952 0.846 0.764 0.8255 0.7719 0.8103 0.8517 0.7374 0.6556 0.6729
1842.174 0.6961 0.74 0.7015 0.6547 0.6644 0.7042 0.8583 0.9627 0.9783 0.9006
1861.464 0.9772 1.1089 1.139 1.177 1.2309 1.2977 1.3619 1.46 1.62 1.61
1880.754 1.55 1.56 1.51 1.42 1.2321 1.0805 0.9327 0.9151 0.8654 0.7968
1900.043 0.7973 0.7727 0.7777 0.7717 0.807 0.6592 0.5677 0.6249 0.6246 0.6361
1919.333 0.6496 0.7675 0.8611 0.8142 0.7992 0.9361 1.0816 1.0335 1.083 1.2222
1938.623 1.1688 1.1434 1.1572 1.0938 1.1619 1.2539 1.2535 1.1503 0.955 0.8714
1957.913 0.8055 0.7583 0.7165 0.7468 0.8039 0.7884 0.7579 0.6882 0.5874 0.5128
1977.202 0.6091 0.6594 0.6579 0.6038 0.4905 0.46619 0.5241 0.5309 0.4661 0.43907
1996.492 0.45461 0.46278 0.4983 0.5483 0.5562 0.5113 0.4977 0.5332 0.5608 0.5476
2015.782 0.4861 0.5122 0.4838 0.5421 0.4628 0.37929 0.4867 0.4868 0.4931 0.5524
2035.072 0.604 0.656 0.608 0.5289 0.44656 0.43101 0.5371 0.589 0.5662 0.5086
2054.362 0.5667 0.6084 0.5561 0.6202 0.6037 0.5751 0.5743 0.46126 0.47766 0.4853
2073.651 0.4965 0.5725 0.5745 0.5765 0.46477 0.46238 0.5095 0.4123 0.46942 0.6034
2092.941 0.6061 0.5387 0.5784 0.6653 0.5354 0.40631 0.4867 0.5684 0.532 0.5064
2112.231 0.5693 0.5249 0.587 0.6776 0.5402 0.5047 0.6069 0.6227 0.5455 0.5087
2131.521 0.5322 0.6122 0.6108 0.5245 0.5013 0.5785 0.6238 0.5179 0.5246 0.5187
2150.810 0.5754 0.496 0.41173 0.4822 0.4995 0.46121 0.43969 0.46698 0.4539 0.514
2170.100 0.4984 0.44094 0.41828 0.44086 0.383921 0.3559 0.46708 0.47951 0.5224 0.6491
2189.390 0.6622 0.6431 0.5596 0.4986 0.5537 0.6089 0.6494 0.4913 0.42829 0.45513
2208.680 0.4854 0.638 0.6944 0.5871 0.382224 0.4401 0.43493 0.3649 0.5139 0.45142
2227.970 0.382384 0.41684 0.5048 0.6022 0.5713 0.5433 0.5552 0.6083 0.6813 0.629
2247.259 0.47896 0.47029 0.4949 0.6084 0.6712 0.545 0.5467 0.6214 0.6332 0.5952
2266.549 0.42065 0.5113 0.6224 0.5121 0.5591 0.5947 0.6236 0.6267 0.5518 0.5801
2285.839 0.6351 0.6484 0.7349 0.8289 0.8454 0.8477 0.8328 0.7363 0.6549 0.6939
2305.129 0.6271 0.5492 0.5245 0.40206 0.45421 0.548 0.6969 0.7693 0.6405 0.6573
2324.418 0.7397 0.7951 0.8224 0.8942 0.8873 0.8397 0.8299 0.8635 0.7895 0.6853
2343.708 0.7879 0.883 0.8401 0.6746 0.7154 0.7694 0.6805 0.8349 0.9068 0.7872
2362.998 0.7593 0.7939 0.8675 0.8057 0.7619 0.7232 0.6847 0.7144 0.5707 0.45732
2382.288 0.4953 0.4926 0.6807 0.8216 0.7362 0.7202 0.6662 0.5371 0.5231 0.6997
2401.578 0.7078 0.7014 0.7323 0.6283 0.5865 0.5648 0.6012 0.6755 0.6895 0.7393
2420.867 0.7359 0.5956 0.5428 0.5932 0.6169 0.6205 0.4949 0.5186 0.5621 0.4957
2440.157 0.4911 0.43198 0.381762 0.3671 0.45876 0.5578 0.5355 0.5355 0.5335 0.676
2459.447 0.7344 0.6038 0.4609 0.39045 0.5059 0.39863 0.389567 0.4738 0.46354 0.45666
2478.737 0.39015 0.41938 0.40402 0.5729 0.6622 0.5348 0.6341 0.6593 0.46091 0.39656
2498.026 0.6149 0.7357 0.5806 0.6096 0.8056 0.8078 0.7791 0.6613 0.6747 0.8381
2517.316 0.7265 0.6788 0.7679 0.8217 0.8768 0.8036 0.7504 0.7336 0.7078 0.8082
2536.606 0.9052 0.9647 1.029 1.0818 0.9974 0.9669 1.0241 0.9795 1.0559 1.2245
2555.896 1.1641 1.0457 1.0612 0.8605 0.7206 0.7178 0.6649 0.6652 0.7749 0.817
2575.186 0.6929 0.6016 0.6656 0.6725 0.5507 0.6502 0.7068 0.7879 0.9053 0.8802
2594.475 0.8411 0.7076 0.6643 0.682 0.7062 0.6155 0.5845 0.6562 0.5889 0.6372
2613.765 0.6899 0.8424 0.8914 0.6307 0.5678 0.5262 0.45685 0.5933 0.5958 0.4917
2633.055 0.43771 0.47292 0.5779 0.6182 0.5045 0.3592 0.389556 0.46392 0.604 0.6773
2652.345 0.5427 0.5233 0.5693 0.6139 0.6818 0.6233 0.5068 0.47796 0.5775 0.5532
2671.634 0.5516 0.555 0.44545 0.43763 0.5306 0.6592 0.6035 0.4993 0.7055 0.7958
2690.924 0.6869 0.6245 0.6188 0.678 0.5472 0.4895 0.5045 0.5296 0.6168 0.5213
2710.214 0.41492 0.43878 0.4965 0.4926 0.4731 0.5705 0.5692 0.5033 0.6013 0.6529
2729.504 0.5995 0.4944 0.43441 0.5097 0.43108 0.381786 0.39929 0.45078 0.6485 0.74
2748.794 0.659 0.6516 0.6438 0.5326 0.683 0.545 0.3612 0.5584 0.5783 0.5036
2768.083 0.5729 0.5823 0.43191 0.4855 0.4863 0.3508 0.2836 0.181 0.3504 0.41674
2787.373 0.3576 0.42581 0.40527 0.39646 0.4452 0.3157 0.2803 0.37372 0.42355 0.4982
2806.663 0.41475 0.5161 0.5641 0.45174 0.41606 0.3291 0.42982 0.5433 0.5825 0.5176
2825.953 0.4889 0.6049 0.6645 0.7189 0.6534 0.5578 0.5756 0.592 0.5114 0.4863
2845.242 0.4065 0.2945 0.47522 0.47498 0.3699 0.4884 0.5189 0.37169 0.37823 0.45017
2864.532 0.3568 0.239 0.182 0.3347 0.382895 0.39261 0.3666 0.3576 0.3655 0.39734
2883.822 0.5845 0.47662 0.223 0.3666 0.5917 0.625 0.7048 0.6177 0.3645 0.5287
2903.112 0.7008 0.6198 0.6068 0.45127 0.45037 0.4991 0.4996 0.6412 0.5797 0.5311
2922.401 0.41642 0.5003 0.6089 0.3276 0.3199 0.4915 0.47653 0.6669 0.7761 0.41153
2941.691 0.4874 0.6284 0.37269 0.4294 0.5995 0.5914 0.5706 0.5377 0.5798 0.382467
2960.981 0.28 0.5 0.46258 0.43595 0.43055 0.43745 0.46963 0.3626 0.183 0.112
2980.271 0.269 0.44729 0.3548 0.3599 0.5357 0.6634 0.7467 0.7583 0.8028 0.6042
2999.561 0.5029 0.4392 0.2851 0.5416 0.757 0.7259 0.665 0.7195 0.9283 0.7989
3018.850 0.5886 0.659 0.8129 0.8294 0.8044 0.7842 0.6963 0.5952 0.5332 0.6495
3038.140 0.6802 0.7165 0.9219 0.8647 0.8961 1.0081 1.0169 1.1601 1.359 1.68
3057.430 1.71 2.16 2.79 2.86 3.13 3.7 4.24 4.68 5.02 5.27
3076.720 5.41 5.3 5.13 4.92 4.47 3.96 3.41 2.65 2.23 2.05
3096.009 1.7 1.67 1.61 1.52 1.3716 1.1843 1.0782 0.9381 1.0135 1.0495
3115.299 0.9556 0.9765 0.8402 0.49 0.5536 0.7591 0.7918 0.7619 0.6747 0.7936
3134.589 0.7675 0.7042 0.8251 0.8277 0.9067 0.8886 0.9535 1.0229 0.89 0.8987
3153.879 0.8948 0.7881 0.7075 0.5811 0.6877 0.7827 0.5771 0.5431 0.6491 0.6277
3173.169 0.7108 0.8063 0.9136 0.9517 0.8268 0.6592 0.6544 0.8795 0.7947 0.6078
3192.458 0.5737 0.693 0.6394 0.6696 0.6628 0.3573 0.5178 0.8785 0.7884 0.5854
3211.748 0.7453 0.7511 0.5968 0.7891 0.8487 0.993 1.0126 0.7863 0.8349 0.7182
3231.038 0.7211 0.8715 0.8785 0.8681 0.8333 0.793 0.8375 0.7834 0.9173 1.0549
3250.328 1.0122 0.9978 1.0875 1.2472 1.1149 1.04 1.1115 1.1025 1.1309 1.2874
3269.617 1.0813 1.1106 1.3214 1.1322 1.0018 1.1099 1.0866 0.7984 0.7427 1.0291
3288.907 1.1558 0.9665 0.7642 0.69 0.8969 0.9516 0.8043 0.8662 0.9559 1.0696
3308.197 0.9935 0.8924 1.0389 0.9769 1.1851 1.2411 0.914 1.0096 1.1001 1.053
3327.487 1.0661 1.42 1.74 1.81 1.92 2.08 2.46 2.69 2.92 3.18
3346.777 3.87 4.67 5.06 5.75 6.56 7.45 8.66 9.57 10.72 12.14
3366.066 13.18 14.28 15.21 15.69 15.84 15.72 15.46 14.46 13.2 12.17
3385.356 11.13 10 8.48 7.18 6.32 5.62 4.76 3.97 3.65 3.49
3404.646 3.21 2.88 2.46 2.12 1.94 1.63 1.54 1.73 1.84 1.98
3423.936 2 1.92 2.13 2.39 2.54 2.34 2.27 2.65 3.13 3.59
3443.225 3.68 3.82 4.12 4.24 4.62 5.36 6.04 6.41 6.95 7.68
3462.515 8.27 8.86 9.25 9.42 9.89 10.16 10.23 10.49 10.4 10.27
3481.805 9.95 9.61 9.42 8.75 7.89 7.4 6.77 6.22 5.86 5.52
3501.095 4.96 4.42 4.2 3.73 3.27 2.87 2.6 2.48 2.27 2.2
3520.385 2.08 1.77 1.41 1.3761 1.55 1.2886 1.2833 1.2567 0.9081 1.0535
3539.674 1.0184 0.8417 0.8751 0.7608 0.921 1.0677 0.7502 0.7397 1.0474 1.0334
3558.964 0.8524 0.8385 1.0588 1.1088 0.8245 0.5652 0.3305 0.5567 0.8929 0.9658
3578.254 0.9204 0.6459 0.6999 0.8916 0.6939 0.7694 0.9313 0.7364 0.6533 0.8131
3597.544 0.827 0.74 0.7179 0.7646 0.879 0.7255 0.6827 0.7832 0.8978 0.6888
3616.833 0.46354 0.7565 0.9153 0.9764 1.0089 0.9382 0.8474 1.0238 1.1808 0.8565
3636.123 0.7679 0.6538 0.4607 0.5549 0.5137 0.5306 0.5596 0.7661 0.9126 0.7065
3655.413 0.5725 0.6497 0.6503 0.47974 0.792 0.9723 0.7042 0.8636 1.033 1.0474
3674.703 1.4 1.2631 0.7834 0.42697 0.3554 0.6756 0.7178 0.6719 0.7567 0.7876
3693.993 0.709 0.5688 0.6264 0.7188 0.8856 0.8716 0.768 0.7033 0.7403 0.9153
3713.282 0.9241 0.8255 0.888 1.0163 0.9048 0.7301 0.4943 0.208 0.228 0.4886
3732.572 0.7125 0.8408 0.7416 0.6246 0.5203 0.644 0.681 0.8089 0.9631 0.7779
3751.862 0.8161 0.8829 0.8053 0.8422 1.015 1.178 0.9814 0.8771 0.6942 0.256
3771.152 0.3217 0.44446 0.4886 0.43835 0.387249 0.525 0.6776 0.7924 0.7077 0.6237
3790.441 0.578 0.6106 0.579 0.4891 0.6315 0.83 0.7564 0.6235 0.664 0.784
3809.731 0.6851 0.5765 0.7689 0.5852 0.6665 0.8594 0.6676 0.5071 0.4853 0.6666
3829.021 0.6885 0.6998 0.6622 0.5659 0.7692 0.8139 0.9755 0.9948 0.40709 0.384607
3848.311 0.7555 0.8258 0.8693 0.7261 0.7046 0.8394 0.6888 0.8592 0.9883 0.8534
3867.601 0.7672 0.4842 0.6129 1.1392 1.0929 0.6663 0.5996 0.7327 0.8465 0.9182
3886.890 1.1062 1.0983 0.9712 0.9408 0.8044 0.7599 0.7923 0.546 0.2886 0.5812
3906.180 0.8303 0.7154 0.380667 0 0.135 0.4603 0.5447 0.5636 0.5959 0.6835
3925.470 0.42696 0.4529 0.8455 0.8362 0.6191 0.46189 0.6039 0.9342 0.9896 0.8383
3944.760 0.7901 0.7455 0.8687 0.8843 0.8074 0.8271 0.6575 0.5073 0.608 0.7438
3964.049 0.42753 0.2945 0.484 0.648 0.39202 0.3149 0.6187 0.6324 0.43786 0.5974
3983.339 0.8002 0.6781 0.7419 0.7613 0.6325 0.39983 0.3397 0.5685 0.6443 0.6351
##END=
