##TITLE=1-Cyclohexyl-1-propanol
##JCAMP-DX=4.24
##DATA TYPE=INFRARED SPECTRUM
##ORIGIN=NIST Mass Spectrometry Data Center
##OWNER=NIST Standard Reference Data Program
Collection (C) 2018 copyright by the U.S. Secretary of Commerce
on behalf of the United States of America. All rights reserved.
##CAS REGISTRY NO=17264-02-7
##MOLFORM=C 9 H 18 O
##$NIST SOURCE=MSDC-IR
##SPECTROMETER/DATA SYSTEM=HP-GC/MS/IRD
##STATE=gas
##XUNITS=1/CM
##YUNITS=ABSORBANCE
##XFACTOR=1.0
##YFACTOR=0.000004800
##DELTAX=4.0
##FIRSTX=550.0
##LASTX=3846.0
##FIRSTY=0.000158
##MAXX=3846
##MINX=550
##MAXY=0.048
##MINY=0
##NPOINTS=825
##XYDATA=(X++(Y..Y))
550.0 33 33 7 15 24 17 31 40 52 48
590.0 38 42 40 45 51 44 36 39 37 36
630.0 35 33 33 27 25 32 39 36 48 66
670.0 63 45 33 35 37 29 24 19 26 26
710.0 20 20 15 16 17 17 12 16 31 37
750.0 42 59 68 66 72 73 68 70 68 56
790.0 58 73 72 69 71 62 68 77 79 98
830.0 116 131 133 129 131 128 132 140 147 153
870.0 164 187 212 242 284 305 299 270 226 186
910.0 157 153 156 160 166 183 220 260 316 407
950.0 527 668 822 981 1115 1180 1177 1105 961 789
990.0 641 521 434 377 349 346 351 361 381 412
1030.0 445 476 497 505 505 509 507 491 479 468
1070.0 475 483 492 501 507 526 545 566 593 624
1110.0 646 644 614 571 520 465 419 386 358 333
1150.0 312 295 283 273 273 278 291 310 326 334
1190.0 340 347 351 370 401 429 452 469 479 478
1230.0 477 475 466 455 449 443 437 438 440 437
1270.0 428 414 396 381 372 367 364 356 346 332
1310.0 318 301 285 277 271 269 275 290 308 328
1350.0 350 361 372 387 406 435 466 489 506 503
1390.0 476 431 377 324 282 248 221 210 203 209
1430.0 245 316 438 592 757 893 973 942 834 698
1470.0 560 437 329 244 182 145 119 102 90 83
1510.0 72 63 62 62 55 49 49 53 52 44
1550.0 43 44 48 42 36 35 36 31 26 26
1590.0 25 24 22 21 18 21 23 20 15 14
1630.0 18 24 21 18 19 24 26 20 19 16
1670.0 17 19 17 19 15 12 15 18 19 15
1710.0 6 8 15 11 4 5 11 13 13 13
1750.0 12 11 10 7 4 9 10 8 8 5
1790.0 7 4 3 6 5 5 4 4 5 6
1830.0 4 3 1 2 2 0 3 5 6 7
1870.0 5 4 5 5 6 7 6 2 3 8
1910.0 6 5 4 4 6 6 5 5 8 7
1950.0 4 6 4 3 3 3 6 6 7 9
1990.0 6 6 8 6 3 2 4 7 6 5
2030.0 7 7 2 2 5 7 7 6 6 5
2070.0 2 2 3 3 2 2 0 2 3 2
2110.0 4 5 7 2 2 6 8 9 10 9
2150.0 3 2 6 8 7 11 16 14 12 14
2190.0 14 11 11 9 12 14 12 11 12 11
2230.0 13 14 13 12 12 15 16 13 11 11
2270.0 10 8 8 6 7 6 4 7 10 9
2310.0 9 12 11 10 13 15 18 24 22 20
2350.0 22 25 31 34 31 28 28 24 20 22
2390.0 22 22 24 25 26 25 22 20 20 21
2430.0 21 20 17 12 11 14 14 17 17 15
2470.0 14 17 22 23 21 24 26 23 21 21
2510.0 23 24 22 23 28 28 30 31 32 34
2550.0 29 28 34 41 45 46 44 49 56 59
2590.0 63 66 73 78 78 79 77 79 80 86
2630.0 88 91 99 107 115 122 129 139 149 155
2670.0 156 153 145 138 134 129 125 124 124 124
2710.0 121 117 114 114 115 116 115 116 124 126
2750.0 130 139 140 139 147 157 168 178 194 212
2790.0 231 250 263 278 289 303 327 360 406 465
2830.0 548 671 861 1155 1588 2189 2898 3522 3870 3895
2870.0 3632 3202 2788 2492 2304 2204 2176 2244 2447 2805
2910.0 3343 4101 5103 6369 7840 9236 10000 9808 8852 7368
2950.0 5648 4160 3205 2725 2509 2359 2168 1886 1538 1189
2990.0 897 678 521 408 336 289 254 230 213 199
3030.0 182 166 159 156 151 145 137 123 116 112
3070.0 105 97 96 94 89 87 84 80 77 72
3110.0 69 69 62 60 65 62 57 55 61 68
3150.0 69 64 61 63 58 52 46 36 29 31
3190.0 36 35 31 25 19 20 25 21 18 21
3230.0 18 14 14 12 17 15 16 17 13 14
3270.0 17 17 12 10 12 17 16 8 6 7
3310.0 10 11 9 11 11 10 10 12 15 17
3350.0 16 13 17 20 19 14 13 19 22 29
3390.0 27 19 21 22 19 22 21 23 30 28
3430.0 29 35 34 31 29 27 27 21 19 23
3470.0 22 19 17 16 20 19 12 8 4 7
3510.0 10 5 9 12 11 9 12 17 15 18
3550.0 18 10 7 11 11 8 12 15 15 11
3590.0 13 14 9 11 22 38 49 53 59 73
3630.0 96 117 148 186 221 268 306 323 311 268
3670.0 230 187 132 89 69 56 42 37 32 27
3710.0 26 28 29 32 30 22 25 29 34 31
3750.0 29 22 18 22 17 23 26 24 25 24
3790.0 22 16 12 14 21 25 29 31 31 30
3830.0 32 39 39 31 30
##END=
