##TITLE=2-Amino-3-bromo-5-methylpyridine
##JCAMP-DX=4.24
##DATA TYPE=INFRARED SPECTRUM
##ORIGIN=EPA-IR VAPOR PHASE LIBRARY
##OWNER=SRD/NIST
Collection (C) 2018 copyright by the U.S. Secretary of Commerce
on behalf of the United States of America. All rights reserved.
##CAS REGISTRY NO=17282-00-7
##MOLFORM=C 6 H 7 Br N 2
##$NIST SOURCE=MSDC-IR
##STATE=gas
##XUNITS=1/CM
##YUNITS=ABSORBANCE
##XFACTOR=1.
##YFACTOR=0.001
##DELTAX=1.92898
##FIRSTX=549.8
##LASTX=4000.7
##FIRSTY=10.54
##MAXX=4000.7
##MINX=549.759
##MAXY=0.20248
##MINY=0
##NPOINTS=1790
##XYDATA=(X++(Y..Y))
549.759 10.54 10.76 11.49 11.44 10.57 9.58 8.86 8.96 8.86 8.2
569.049 7.87 8.28 8.04 7.13 6.7 6.97 7.57 7.64 7.73 7.54
588.339 7.19 7.54 7.92 8.38 8.29 7.87 7.77 8.83 10.02 9.69
607.628 9.8 9.68 9.33 9.28 9.47 9.67 9.5 9.7 9.98 10.15
626.918 10.42 10.83 10.6 10.42 10.8 11.48 12.36 12.52 12.21 12.89
646.208 13.41 13.78 14.02 13.94 14.56 15.13 15.62 15.89 16.25 17.37
665.498 18.45 19.57 20.59 21.34 22.19 23.06 23.91 24.19 23.83 23.49
684.787 23.13 22.69 22.49 22.28 21.76 20.94 19.94 18.99 18.38 17.7
704.077 17.42 17.11 16.55 16.59 16.71 16.16 15.4 15.45 15.71 15.97
723.367 16.18 16.87 17.86 18.79 19.98 20.93 22.63 24.38 25.93 27.83
742.657 29.84 31.39 31.07 29.97 29.43 28.35 27.71 27.14 25.95 25.28
761.947 24.42 23.81 23 22.11 21.45 20.91 20.25 19.85 19.55 18.73
781.236 17.88 16.93 16.39 15.97 15.43 15.09 14.89 14.45 13.62 13.24
800.526 13.25 12.63 12.54 12.3 11.74 11.78 11.78 11.68 11.42 11.48
819.816 11.17 10.01 9.19 10.07 10.86 10.54 10.34 10.45 10.26 9.8
839.106 9.87 9.99 10.24 10.5 10.68 10.93 11.26 11.26 11.1 11.34
858.395 11.18 11.09 11.3 11.63 12.41 13.22 14.29 15.67 16.99 18.44
877.685 19.93 21.64 24 26.73 28.71 29.46 29.26 28.96 29.42 30.16
896.975 30.06 29.17 27.75 26.26 24.71 22.53 19.8 16.16 12.72 10.62
916.265 9.42 8.85 8.61 8.3 7.96 7.45 7.06 7.2 7.1 6.48
935.555 6.4 6.54 6.67 6.74 6.61 6.36 6.09 6.06 6.16 6.38
954.844 6.22 6.44 7.02 7.25 7.38 7.73 8.17 8.62 9.12 9.74
974.134 10.63 11.3 11.69 12.23 12.52 12.16 11.72 11.34 10.67 10.02
993.424 9.64 8.83 7.62 7.07 6.86 6.48 5.66 4.95 4.79 4.66
1012.714 4.81 4.91 4.93 4.93 5.94 7.29 7.15 7.66 9.26 11.99
1032.003 15.85 20.76 25.99 31.46 36.52 41.48 46.39 49.81 52.28 53.73
1051.293 53.88 51.66 47.94 42.92 37.45 32.08 27.75 25.07 22.13 18.39
1070.583 15.48 13.67 11.42 9.89 8.58 6.07 4.92 4.61 3.85 4.02
1089.873 4.89 4.83 4.49 5.04 5.65 5.5 4.98 4.67 5.9 5.99
1109.163 5.2 5.51 5.68 4.9 4.64 4.85 4.82 4.65 4.22 4.43
1128.452 5.09 6 5.24 4.15 4.31 4.59 4.62 4.5 4.31 4.47
1147.742 4.76 4.31 4.15 3.98 3.92 4.1 4.35 4.24 3.86 3.96
1167.032 4.06 4.64 5.51 5.21 4.79 4.96 5 5.83 6.91 9.06
1186.322 12.07 15.38 19.16 23.51 27.43 30.29 33.16 33.68 33.82 33.61
1205.611 30.76 26.74 23.6 20.6 16.57 13.6 12.55 12.29 12.46 13.36
1224.901 13.06 12.93 13.67 13.99 15.15 14.85 14.64 16.04 15.89 15.25
1244.191 14.59 13.48 12.13 10.55 9.63 8.62 8.16 7.84 7.4 7.34
1263.481 6.88 6.64 6.57 6.94 7 7.04 7.64 8.11 7.9 7.85
1282.771 7.8 7.63 7.71 7.63 7.82 7.59 7.49 7.35 7.26 7.23
1302.060 7.37 8 8.73 9.35 9.69 9.9 9.9 9.63 9.56 9.68
1321.350 9.56 9.06 8.2 7.31 6.6 6.02 5.45 5.17 4.91 4.57
1340.640 4.51 4.41 4.31 4.53 4.62 4.51 4.5 4.53 4.72 4.98
1359.930 5.16 5.31 5.46 5.76 6.23 6.91 7.8 8.66 9.98 11.66
1379.219 13.47 15.42 17.68 20.35 23.16 25.72 27.99 29.89 31.28 32.4
1398.509 33.1 32.89 31.85 30.16 27.96 25.56 22.87 20.35 18.15 16.07
1417.799 14.44 13.2 12.48 12.3 12.27 12.34 12.88 13.52 14.22 15.12
1437.089 16.18 17.45 19.24 21.83 24.97 28.98 34.81 42.33 52.81 66.74
1456.378 85.36 108.78 133.89 159.49 181.58 196.97 202.48 201.65 197.6 190.51
1475.668 178.01 155.85 125.39 93.54 67.55 49.55 37.75 29.71 23.99 20.22
1494.958 17.74 15.82 14.5 13.7 13.2 12.87 12.58 12.37 12.42 12.47
1514.248 12.25 12.08 12.23 12.27 12.43 12.62 12.76 13.16 13.88 14.57
1533.538 15.04 15.48 16.11 16.76 17.07 17.36 17.44 17.11 16.69 16.35
1552.827 16.44 16.43 16.15 16.17 16.26 16.55 17.25 18.2 19.61 21.5
1572.117 23.85 26.47 29.6 33 36.18 38.95 41.13 43.28 45.81 48.84
1591.407 52.33 56.85 62.55 70.45 81.45 95.72 112.86 131.86 150.29 165.6
1610.697 175.44 179.32 179.23 176.54 171.42 161.63 144.49 122.36 100.1 79.93
1629.986 63.46 50.8 41.07 33.41 27.64 23.24 19.95 17.6 15.75 14.38
1649.276 13.14 12.4 11.93 10.94 9.99 9.35 8.66 8.03 7.5 7.16
1668.566 6.76 6.18 5.68 5.27 4.82 4.53 4.43 4.33 4.05 3.81
1687.856 3.74 3.56 3.48 3.52 3.65 3.61 3.42 3.41 3.32 3.16
1707.146 3.18 3.34 3.53 3.59 3.65 3.8 3.84 3.74 3.77 4.06
1726.435 4.14 4.02 3.97 3.94 3.98 3.67 3.37 3.43 3.43 3.39
1745.725 3.26 3.13 3.01 2.99 2.95 2.85 2.76 2.69 2.72 2.78
1765.015 2.64 2.63 2.85 2.8 2.69 2.6 2.59 2.57 2.49 2.43
1784.305 2.47 2.51 2.6 2.85 3 3.24 3.47 3.45 3.42 3.71
1803.594 4 4.1 4.02 3.75 3.69 3.61 3.38 3.24 3.05 2.72
1822.884 2.4 2.27 2.24 2.05 1.9005 1.8867 2.09 2.32 2.24 2.19
1842.174 2.33 2.58 2.69 2.67 2.64 2.61 2.54 2.48 2.4 2.25
1861.464 2.17 2.16 2.05 1.8324 1.8105 1.8068 1.8142 1.7134 1.6531 1.6164
1880.754 1.5542 1.5412 1.4712 1.5105 1.5608 1.5509 1.5387 1.5561 1.502 1.4492
1900.043 1.4908 1.5858 1.6622 1.7025 1.5679 1.3904 1.4596 1.681 1.7671 1.7545
1919.333 1.8219 1.8995 1.795 1.7058 1.8098 1.9848 2.03 1.9652 1.8799 1.8899
1938.623 1.8672 1.8616 1.9761 1.913 1.8369 1.9221 1.9353 1.7808 1.7481 1.8965
1957.913 2.001 1.9885 1.9873 1.8608 1.6175 1.5814 1.6694 1.7505 1.8877 1.7807
1977.202 1.6138 1.6514 1.6673 1.6045 1.4938 1.3874 1.4581 1.4946 1.3851 1.3515
1996.492 1.5086 1.5221 1.3888 1.3933 1.5085 1.6724 1.6235 1.4304 1.2838 1.2989
2015.782 1.3656 1.3609 1.3949 1.5361 1.4975 1.3899 1.4365 1.47 1.4967 1.4626
2035.072 1.5059 1.5247 1.5676 1.5807 1.5778 1.6895 1.7532 1.7599 1.7478 1.8352
2054.362 1.9019 1.8285 1.7173 1.854 1.9541 1.8547 1.9101 2.07 2.03 1.8968
2073.651 1.9285 2.16 2.07 1.9921 1.992 1.86 1.9716 2.06 2.1 2.07
2092.941 1.9131 1.7614 1.6473 1.72 1.7542 1.7126 1.6372 1.6121 1.6601 1.5458
2112.231 1.5109 1.5468 1.3806 1.3651 1.5589 1.6343 1.5991 1.6842 1.8085 1.6936
2131.521 1.7255 1.6593 1.6185 1.8083 1.7942 1.7075 1.6412 1.6349 1.7389 1.6565
2150.810 1.4089 1.4173 1.5525 1.4481 1.295 1.3019 1.4934 1.4527 1.413 1.3747
2170.100 1.3375 1.4022 1.2613 1.2788 1.3513 1.3069 1.2769 1.2596 1.3347 1.4258
2189.390 1.384 1.2832 1.2652 1.1159 1.07881 1.2798 1.2334 1.2015 1.1917 1.2274
2208.680 1.3091 1.3446 1.2781 1.4089 1.546 1.2426 1.2558 1.3798 1.4051 1.4785
2227.970 1.366 1.4031 1.5458 1.4597 1.3156 1.2931 1.3503 1.3303 1.353 1.6498
2247.259 1.6723 1.3867 1.3434 1.347 1.4415 1.5045 1.4104 1.3061 1.4299 1.573
2266.549 1.5156 1.7124 1.8796 1.8538 1.8928 1.8338 1.8428 1.9194 1.8789 1.8365
2285.839 1.9136 2.04 1.877 1.7728 1.8328 1.7591 1.6235 1.5784 1.5577 1.5515
2305.129 1.2989 1.265 1.5878 1.6865 1.5975 1.3235 1.1865 1.2974 1.4715 1.4786
2324.418 1.2379 1.08042 1.08099 1.2562 1.3845 1.3303 1.4224 1.6159 1.6447 1.5896
2343.708 1.7128 1.847 1.8397 1.6235 1.5258 1.5958 1.6369 1.7741 1.8119 1.9317
2362.998 2.1 1.9754 2.04 2.11 1.9514 1.8614 1.8419 1.9689 2.06 1.8087
2382.288 1.7083 1.8444 1.7821 1.5639 1.5642 1.447 1.1838 1.1963 1.2386 1.3407
2401.578 1.4399 1.4223 1.3645 1.3528 1.199 1.00084 0.814 0.838 0.9458 1.08973
2420.867 1.05679 0.9776 1.02133 1.06829 1.10717 1.2192 1.5363 1.3938 1.2335 1.358
2440.157 1.3061 1.3292 1.2723 1.122 1.217 1.2355 1.3225 1.3845 1.3737 1.5494
2459.447 1.5277 1.5225 1.4862 1.4382 1.5611 1.5294 1.3929 1.3568 1.3809 1.4348
2478.737 1.4872 1.484 1.488 1.5486 1.5379 1.7744 1.9575 1.5714 1.5667 1.6338
2498.026 1.4242 1.6129 1.7763 1.6233 1.7845 2.04 2.07 2.15 1.976 1.7333
2517.316 1.6822 1.8169 1.8485 1.6391 1.3923 1.1136 1.07992 1.1414 1.2293 1.1535
2536.606 1.11 1.2392 1.2869 1.3535 1.2396 1.02501 1.00008 1.1531 1.1461 1.08446
2555.896 1.1276 1.1343 1.3457 1.3322 1.1162 0.9539 1.0332 1.1712 1.10129 1.2186
2575.186 1.3027 1.316 1.3086 1.2356 1.1875 1.2838 1.5396 1.7641 1.695 1.6364
2594.475 1.8521 1.7249 1.4524 1.4961 1.636 1.5948 1.5035 1.4468 1.4827 1.361
2613.765 1.1248 1.09001 1.10737 1.08869 0.9506 0.993 1.2462 1.2005 1.0257 0.9924
2633.055 0.9226 1.09758 1.2753 1.14 1.05061 1.06068 1.145 1.2049 1.112 1.1143
2652.345 0.9226 0.98 1.1116 0.9674 0.82 0.678 0.826 0.9252 0.897 0.763
2671.634 0.522 0.417 0.552 0.8 0.903 1.06666 1.02705 0.873 0.853 0.869
2690.924 1.1481 1.08879 0.87 0.9366 0.9222 0.794 0.866 0.9992 0.863 0.753
2710.214 0.646 0.678 0.878 0.798 0.839 0.861 0.614 0.732 0.886 0.784
2729.504 0.888 1.00227 0.952 1.06582 1.2195 1.1897 1.2251 1.5542 1.6748 1.5554
2748.794 1.445 1.5436 1.8229 1.7748 1.7983 1.755 1.3996 1.1661 1.1554 1.444
2768.083 1.6091 1.5317 1.6587 1.6969 1.5384 1.5761 1.5708 1.373 1.5401 1.605
2787.373 1.511 1.4547 1.4261 1.5432 1.4999 1.4191 1.4187 1.3692 1.4068 1.5377
2806.663 1.4607 1.4245 1.5394 1.5318 1.4638 1.6521 1.8104 1.7933 1.6146 1.7081
2825.953 2.01 1.9047 1.8848 2.28 2.67 2.82 2.68 2.83 3.17 3.49
2845.242 3.85 4.04 4.33 4.61 4.99 5.77 6.31 6.57 7.09 7.7
2864.532 8.17 8.58 9.5 10.31 10.71 11.11 11.32 11.6 11.92 12.07
2883.822 12.12 12.07 12.15 11.88 11.32 11.03 10.91 10.81 10.59 10.48
2903.112 10.51 10.63 10.89 11.22 11.74 12.21 12.58 13.32 14.44 15.43
2922.401 16.56 17.84 19.29 21.12 22.8 23.59 23.64 23.43 22.9 22.22
2941.691 21.02 19.12 17.45 15.65 13.51 11.87 10.8 9.89 9.3 9.18
2960.981 8.97 8.6 8.45 8.36 8.15 8.37 8.57 8.63 8.75 8.62
2980.271 9.13 9.51 9.31 9.38 9.55 9.62 9.72 9.98 10.51 11.38
2999.561 12.18 13.08 14.35 15.74 17.24 18.58 20.45 22.49 23.6 24.35
3018.850 24.79 24.63 23.99 23.16 21.69 19.61 17.74 15.81 13.91 12.45
3038.140 11.39 10.79 10.59 10.71 11.1 11.1 10.71 10.43 10.35 10.34
3057.430 10.24 10.03 9.31 8.6 7.96 7.28 6.5 5.94 5.45 4.91
3076.720 4.69 4.2 3.73 3.35 3.01 2.75 2.44 2.3 2.31 2.09
3096.009 1.9302 1.8301 1.8153 1.799 1.6652 1.9367 2.02 2.03 1.8078 1.7415
3115.299 2.08 1.9911 1.4947 1.3621 1.5401 1.7259 1.6567 1.5498 1.7601 1.7331
3134.589 1.4796 1.2893 1.4599 1.5498 1.401 1.2809 1.1538 1.07236 1.207 1.1589
3153.879 1.1558 1.07364 0.9136 0.843 0.9612 1.2109 1.1166 0.9875 1.2541 1.3775
3173.169 1.1204 1.2281 1.464 1.6196 1.6812 1.882 1.7947 1.3757 1.2193 1.05979
3192.458 1.07194 1.4599 1.5152 1.08761 1.1139 1.6155 1.4676 1.221 1.2031 1.05651
3211.748 1.2201 1.01042 0.827 1.08485 0.755 0.578 0.517 0.276 0.512 0.841
3231.038 0.9537 0.738 0.785 0.85 0.9266 1.08121 0.983 0.76 0.385 0.16
3250.328 0.343 0.745 0.821 0.652 0.743 0.716 0.447 0.566 0.9376 0.618
3269.617 0.42 0.593 0.646 0.753 0.838 0.9118 0.748 0.412 0.518 0.763
3288.907 0.632 0.9197 0.83 0.305 0.074 0.175 0.523 0.821 0.9739 0.571
3308.197 0.368 0.679 0.795 0.711 0.495 0.758 1.00906 0.544 0.633 0.9235
3327.487 0.729 0.584 0.816 0.793 0.542 0.834 1.0626 0.9532 0.539 0.332
3346.777 0.554 0.9942 1.1131 0.9104 0.719 0.795 1.2589 1.2992 1.4293 1.3934
3366.066 1.1715 1.5228 1.4972 1.1762 1.5424 1.7805 1.4452 1.6817 2.43 3.17
3385.356 3.46 3.52 4.04 4.69 5.37 6.2 7.52 8.82 10.02 11.9
3404.646 13.97 16.25 18.81 21.12 23.26 25.21 26.65 27.89 28.55 28.2
3423.936 27.09 25.69 24.3 21.92 18.98 16.37 14.15 11.99 10.1 9.13
3443.225 8.3 7.47 6.61 5.51 4.74 4.35 3.92 3.4 3.31 3.5
3462.515 3.45 3.12 3.45 3.68 3.4 3.53 3.69 3.86 4.1 4.4
3481.805 4.42 4.73 5.22 5.36 5.78 6.44 7.25 7.83 8.35 9.65
3501.095 10.66 11.5 12.89 14.59 16.06 17.69 19.67 20.9 22.13 23.57
3520.385 24.25 24.41 24.8 24.52 23.48 22.51 21.26 19.45 17.46 15.77
3539.674 14.53 13.18 11.69 10.19 8.62 7.51 7.13 6.6 5.76 5.29
3558.964 4.74 4.18 3.83 3.48 3.26 2.8 2.58 2.74 2.58 2.27
3578.254 2.42 2.79 2.29 1.5371 1.6596 1.4831 0.9828 1.05632 1.3806 1.4063
3597.544 1.1169 1.3843 1.3332 1.10889 1.2658 1.2227 1.09612 0.88 1.00513 1.08857
3616.833 0.9195 1.03507 0.909 0.811 0.813 0.754 0.832 1.07781 1.09056 0.556
3636.123 0.686 0.869 0.545 0.542 0.592 0.77 0.794 1.01499 1.0897 0.865
3655.413 1.1559 1.1932 1.03244 1.2541 1.2931 0.898 1.08087 0.893 0.527 0.647
3674.703 0.834 1.1777 0.9222 0.636 0.836 0.906 0.843 0.809 1.07696 1.1508
3693.993 0.545 0.447 1.00321 0.9976 0.619 0.527 0.632 1.02415 0.675 0.145
3713.282 0.484 0.522 0 0.282 0.515 0.36 0.607 0.857 0.9442 0.681
3732.572 0.836 1.03274 0.534 0.393 0.539 0.731 1.05888 1.06551 0.65 0.897
3751.862 1.1842 0.635 0.529 0.727 0.813 0.628 0.781 1.00652 1.0416 0.746
3771.152 0.536 0.767 0.701 0.663 0.9353 1.1214 1.3279 1.07325 0.667 0.643
3790.441 0.533 0.626 0.622 0.676 0.707 0.455 0.434 0.534 0.65 0.879
3809.731 0.612 0.565 0.885 0.902 0.722 0.673 0.901 1.2561 1.386 1.06321
3829.021 1.05074 1.1888 0.736 0.72 1.03838 1.08851 1.2826 1.2717 1.02834 1.1526
3848.311 1.4102 1.04536 1.4059 1.7092 1.7512 1.9304 1.5692 1.4315 1.4117 1.5511
3867.601 1.3521 1.1186 1.08261 0.79 0.707 0.848 0.741 0.745 1.2303 1.3685
3886.890 1.337 1.813 2.16 1.6879 1.3906 1.9454 2.07 1.9679 1.8623 1.858
3906.180 2.05 1.7213 1.4656 1.2656 1.3417 1.38 1.3678 1.3821 1.1764 1.271
3925.470 1.3322 1.7326 1.663 1.1607 1.4266 1.5335 1.6587 1.7592 1.7126 1.7846
3944.760 1.4767 1.5013 1.5602 1.4569 1.3869 1.2245 1.5787 1.1486 0.9819 1.4268
3964.049 1.2305 1.1835 1.2807 1.153 0.843 0.683 0.54 0.502 0.467 0.852
3983.339 0.9281 0.434 0.271 0.346 0.781 1.3588 1.2276 0.983 1.1803 0.9601
##END=
