##TITLE=2,7-(exo)-Diacetoxynorbornane
##JCAMP-DX=4.24
##DATA TYPE=INFRARED SPECTRUM
##ORIGIN=EPA-IR VAPOR PHASE LIBRARY
##OWNER=SRD/NIST
Collection (C) 2018 copyright by the U.S. Secretary of Commerce
on behalf of the United States of America. All rights reserved.
##CAS REGISTRY NO=17290-00-5
##MOLFORM=C 11 H 16 O 4
##$NIST SOURCE=MSDC-IR
##STATE=gas
##XUNITS=1/CM
##YUNITS=ABSORBANCE
##XFACTOR=1.
##YFACTOR=0.001
##DELTAX=1.92898
##FIRSTX=549.8
##LASTX=4000.7
##FIRSTY=0.5298
##MAXX=4000.7
##MINX=549.759
##MAXY=0.207847
##MINY=0
##NPOINTS=1790
##XYDATA=(X++(Y..Y))
549.759 0.5298 0.5326 0.5067 0.4186 0.067 0.064 0.137 0.2153 0.3776 0.369
569.049 0 0.2453 0.5735 0.3959 0.4095 0.37512 0.383 0.4004 0.4623 0.6624
588.339 0.7875 0.9921 1.317 1.537 1.877 2.357 2.677 2.807 3.007 3.207
607.628 3.187 3.177 3.407 3.267 3.107 3.237 3.487 3.997 4.217 4.517
626.918 4.917 5.067 5.027 4.927 4.697 4.377 4.077 3.617 3.217 2.927
646.208 2.657 2.487 2.257 1.937 1.667 1.297 1.1879 1.277 1.193 0.999
665.498 1.0005 1.1215 0.9305 0.8016 0.8057 0.6308 0.5602 0.5344 0.6422 0.7793
684.787 0.6404 0.5121 0.29061 0.28896 0.3714 0.29871 0.4527 0.5219 0.5301 0.4511
704.077 0.4019 0.5959 0.5736 0.4876 0.6327 0.6913 0.7225 0.4905 0.2064 0.33398
723.367 0.37106 0.4205 0.4253 0.4408 0.5748 0.5748 0.4931 0.5671 0.677 0.5795
742.657 0.5321 0.6699 0.5958 0.389 0.5357 0.5862 0.35267 0.37435 0.4546 0.6556
761.947 1.0534 0.9748 0.7703 0.7956 0.8163 0.8041 0.7842 0.8812 1.0947 1.1224
781.236 0.9731 0.9607 0.9695 0.9787 0.9996 0.9867 0.93 0.7325 0.6932 0.8573
800.526 0.8253 0.7762 1.0167 1.2062 1.1625 1.1416 1.2701 1.327 1.557 1.727
819.816 1.707 1.597 1.397 1.607 1.817 1.887 1.917 1.917 2.057 2.247
839.106 2.267 2.307 2.547 2.667 2.857 3.027 3.027 2.987 3.087 3.307
858.395 3.237 3.047 2.887 2.937 3.017 2.777 2.737 2.847 3.047 3.267
877.685 3.197 3.187 3.247 3.237 3.327 3.387 3.427 3.317 3.137 3.157
896.975 3.157 3.057 3.067 3.117 3.007 2.857 2.767 2.827 2.837 2.587
916.265 2.557 2.667 2.587 2.877 3.307 3.517 3.807 4.367 5.137 5.987
935.555 6.857 7.527 8.277 8.747 8.907 8.757 8.297 7.857 7.197 6.767
954.844 6.707 6.487 6.427 6.987 7.537 8.037 8.577 9.157 10.047 10.937
974.134 12.017 13.607 15.427 17.517 19.757 21.637 23.017 24.187 25.157 25.977
993.424 26.847 27.807 28.917 30.707 32.387 33.647 35.227 36.367 37.167 37.617
1012.714 37.137 35.867 34.007 32.077 30.037 27.687 25.637 24.627 24.297 24.617
1032.003 25.427 26.417 27.757 28.587 28.787 28.087 26.767 25.437 23.847 22.457
1051.293 21.497 20.887 20.887 22.307 24.837 28.037 32.567 38.317 43.967 49.027
1070.583 52.517 53.347 51.377 47.637 42.397 35.967 30.567 25.877 22.337 19.897
1089.873 17.887 17.087 16.117 14.577 13.677 12.817 12.087 11.077 9.987 9.567
1109.163 8.897 8.147 7.787 7.867 8.277 8.427 8.497 8.947 8.647 8.087
1128.452 7.617 6.617 6.287 6.457 6.627 6.917 7.277 7.317 7.387 7.887
1147.742 7.707 7.387 7.417 7.247 7.307 7.447 7.637 8.197 9.177 10.537
1167.032 11.777 12.857 13.757 14.037 13.777 13.217 12.847 12.987 13.247 14.117
1186.322 15.077 15.917 17.157 18.357 19.827 21.597 24.007 27.567 32.077 37.367
1205.611 44.207 52.277 61.617 72.987 85.827 100.337 116.637 133.947 151.647 168.947
1224.901 184.537 197.217 205.337 207.847 204.057 194.747 180.727 163.477 145.007 127.037
1244.191 110.807 95.967 82.867 71.307 61.017 52.417 45.327 39.327 34.487 30.637
1263.481 27.317 24.607 22.297 20.357 18.827 17.577 16.517 15.637 14.747 13.927
1282.771 13.397 13.097 12.827 12.487 12.097 11.817 11.497 11.267 11.347 11.727
1302.060 12.337 12.947 13.327 13.307 12.817 11.767 10.387 8.957 7.717 6.757
1321.350 6.047 5.577 5.207 4.957 4.817 4.717 4.677 4.747 4.917 5.087
1340.640 5.437 5.927 6.487 7.357 8.637 10.357 12.787 16.267 21.027 26.717
1359.930 32.087 35.927 37.977 38.417 37.117 34.247 31.137 28.977 27.647 26.677
1379.219 25.607 23.917 21.607 18.977 16.137 13.607 11.657 10.057 8.807 7.837
1398.509 7.117 6.527 6.037 5.647 5.327 5.097 4.877 4.707 4.537 4.437
1417.799 4.407 4.407 4.477 4.487 4.637 4.807 5.007 5.307 5.697 6.177
1437.089 6.727 7.217 7.647 8.027 8.297 8.407 8.247 7.887 7.357 6.827
1456.378 6.347 5.877 5.427 4.987 4.637 4.447 4.327 4.197 4.107 4.007
1475.668 3.857 3.737 3.587 3.347 3.197 3.127 2.997 2.897 2.877 2.707
1494.958 2.577 2.597 2.617 2.567 2.437 2.387 2.457 2.467 2.407 2.337
1514.248 2.287 2.317 2.327 2.327 2.307 2.267 2.347 2.387 2.357 2.397
1533.538 2.417 2.417 2.417 2.397 2.367 2.297 2.317 2.327 2.257 2.187
1552.827 2.157 2.117 2.067 2.087 2.067 1.987 2.007 1.947 1.927 1.957
1572.117 1.877 1.837 1.797 1.817 1.827 1.667 1.597 1.647 1.627 1.497
1591.407 1.427 1.507 1.537 1.497 1.517 1.477 1.397 1.387 1.397 1.397
1610.697 1.467 1.497 1.547 1.597 1.517 1.497 1.547 1.627 1.607 1.607
1629.986 1.647 1.657 1.687 1.727 1.727 1.747 1.697 1.707 1.807 1.787
1649.276 1.787 1.897 1.957 1.927 1.977 1.977 2.067 2.137 2.177 2.347
1668.566 2.447 2.447 2.467 2.597 2.637 2.667 2.847 2.997 3.167 3.317
1687.856 3.487 3.717 3.927 4.187 4.537 4.887 5.307 5.727 6.197 6.797
1707.146 7.377 8.037 8.817 9.497 10.137 10.977 11.757 12.507 13.287 14.187
1726.435 15.287 16.657 18.267 20.167 22.767 26.037 30.097 35.457 41.827 49.627
1745.725 58.687 68.907 79.607 90.257 99.527 106.117 109.547 109.487 105.767 98.907
1765.015 89.887 79.687 69.177 59.497 50.477 42.837 36.387 31.057 26.857 23.327
1784.305 20.467 18.137 16.227 14.587 13.187 12.007 10.967 10.037 9.287 8.577
1803.594 7.937 7.367 6.867 6.527 6.127 5.707 5.367 5.007 4.707 4.437
1822.884 4.187 3.987 3.787 3.617 3.457 3.307 3.217 3.127 2.937 2.747
1842.174 2.617 2.497 2.397 2.317 2.277 2.207 2.077 2.017 1.987 1.897
1861.464 1.847 1.777 1.727 1.707 1.657 1.607 1.547 1.577 1.567 1.457
1880.754 1.407 1.407 1.407 1.407 1.367 1.327 1.317 1.307 1.2321 1.1294
1900.043 1.1167 1.1277 1.0927 1.0787 1.0965 1.0609 1.0753 1.0844 1.0487 1.0883
1919.333 1.0621 1.0664 1.0747 1.0579 1.046 1.0111 0.9948 1.0128 0.98 0.9631
1938.623 0.9933 0.9103 0.8576 0.8159 0.7883 0.8323 0.8531 0.8468 0.8154 0.7823
1957.913 0.7852 0.8145 0.8058 0.7853 0.7841 0.7416 0.7054 0.7019 0.7049 0.6714
1977.202 0.6459 0.6437 0.6415 0.6552 0.6789 0.7073 0.7072 0.7261 0.7 0.6989
1996.492 0.8428 0.8654 0.7706 0.7491 0.7905 0.7864 0.7156 0.7765 0.8235 0.7756
2015.782 0.7886 0.7862 0.8447 0.8416 0.7479 0.7311 0.7482 0.7848 0.792 0.7685
2035.072 0.7659 0.754 0.7674 0.8349 0.8417 0.8424 0.8541 0.8422 0.8349 0.8502
2054.362 0.8676 0.8563 0.8847 0.9292 0.9634 0.9299 0.8901 0.8506 0.8495 0.9002
2073.651 0.9182 0.9418 0.9847 1.0344 1.0268 1.0286 1.0553 1.0878 1.0866 1.0991
2092.941 1.1235 1.1456 1.1225 1.0917 1.0669 1.0729 1.1625 1.2045 1.153 1.0947
2112.231 1.0994 1.1055 1.0594 0.9695 0.9955 1.0357 1.0149 1.0454 1.0647 1.0448
2131.521 0.9993 0.9782 1.0245 1.0516 1.0578 1.0488 0.9934 0.9006 0.8651 0.8647
2150.810 0.7855 0.7776 0.813 0.8065 0.728 0.7519 0.8451 0.8124 0.8105 0.7598
2170.100 0.7158 0.7735 0.7613 0.7405 0.7148 0.669 0.6566 0.7249 0.7585 0.714
2189.390 0.7199 0.7012 0.7044 0.7256 0.7402 0.7562 0.7248 0.642 0.634 0.6475
2208.680 0.6232 0.6579 0.6401 0.6 0.625 0.6604 0.5908 0.5349 0.5453 0.6051
2227.970 0.6617 0.6858 0.7127 0.6754 0.6863 0.6558 0.6392 0.6866 0.6205 0.5761
2247.259 0.6514 0.6932 0.7385 0.7868 0.7438 0.6623 0.6694 0.7244 0.6773 0.638
2266.549 0.613 0.5618 0.5616 0.5524 0.544 0.5749 0.5741 0.5698 0.5778 0.511
2285.839 0.4099 0.4448 0.4856 0.4782 0.5005 0.584 0.5864 0.489 0.5133 0.4891
2305.129 0.4647 0.4983 0.4858 0.5181 0.5209 0.4803 0.4961 0.5301 0.493 0.4874
2324.418 0.5143 0.4222 0.3847 0.4856 0.531 0.4387 0.4019 0.4348 0.4552 0.4631
2343.708 0.4662 0.5068 0.4841 0.4521 0.4778 0.514 0.4797 0.4483 0.4542 0.4484
2362.998 0.4735 0.4064 0.34104 0.3899 0.4788 0.4395 0.36989 0.4316 0.4927 0.5277
2382.288 0.4511 0.37571 0.4252 0.4318 0.4359 0.5185 0.4721 0.3883 0.457 0.4252
2401.578 0.36973 0.4058 0.446 0.5531 0.541 0.4085 0.383 0.4336 0.4835 0.4712
2420.867 0.4881 0.5032 0.4556 0.4436 0.5361 0.6319 0.6221 0.5447 0.505 0.5028
2440.157 0.5635 0.6355 0.667 0.6639 0.6586 0.7467 0.7368 0.7003 0.7393 0.7381
2459.447 0.7359 0.7431 0.7128 0.7444 0.7521 0.6822 0.6392 0.6047 0.6301 0.6039
2478.737 0.5226 0.5934 0.632 0.5606 0.4997 0.5339 0.5708 0.5412 0.436 0.35293
2498.026 0.3952 0.4416 0.4577 0.3824 0.30141 0.34278 0.3814 0.37216 0.32887 0.3608
2517.316 0.35269 0.28875 0.32349 0.35132 0.2074 0.107 0.2383 0.33191 0.285576 0.212
2536.606 0.2414 0.283015 0.282643 0.2653 0.236 0.280014 0.36926 0.30254 0.2071 0.2365
2555.896 0.2291 0.2351 0.2545 0.161 0.123 0.168 0.30013 0.33362 0.33871 0.3797
2575.186 0.35547 0.33906 0.34189 0.3805 0.33948 0.30685 0.30303 0.35115 0.4545 0.4934
2594.475 0.4769 0.414 0.37639 0.4401 0.4773 0.37282 0.3949 0.4538 0.4167 0.4258
2613.765 0.3801 0.32773 0.4278 0.4845 0.3965 0.34057 0.3181 0.2534 0.276676 0.34517
2633.055 0.33048 0.35624 0.29745 0.27138 0.3066 0.31689 0.32864 0.34103 0.4284 0.4152
2652.345 0.33758 0.26984 0.28768 0.36698 0.4121 0.3818 0.34704 0.34931 0.26984 0.35367
2671.634 0.5127 0.4373 0.37626 0.4383 0.34811 0.2547 0.283299 0.32407 0.36636 0.37545
2690.924 0.35426 0.4315 0.509 0.5246 0.5108 0.37428 0.36456 0.4228 0.4377 0.4268
2710.214 0.27981 0.189 0.32207 0.4174 0.4135 0.32389 0.35241 0.4204 0.3633 0.30226
2729.504 0.32263 0.3967 0.31081 0.28707 0.4034 0.4206 0.43 0.4723 0.4228 0.36344
2748.794 0.4072 0.4265 0.4386 0.36634 0.3996 0.4927 0.4763 0.5028 0.4322 0.4531
2768.083 0.4206 0.4021 0.4433 0.35819 0.28846 0.2126 0.246 0.33918 0.30261 0.278229
2787.373 0.33406 0.32386 0.29214 0.29978 0.27551 0.2548 0.28861 0.3397 0.3993 0.381
2806.663 0.2428 0.2233 0.30789 0.4175 0.3964 0.4941 0.5595 0.4753 0.4401 0.4783
2825.953 0.5777 0.4802 0.4331 0.5524 0.6603 0.6445 0.6113 0.7114 0.8863 0.9227
2845.242 0.853 0.9346 1.0804 1.1665 1.2719 1.337 1.447 1.717 2.027 2.287
2864.532 2.487 2.677 2.967 3.267 3.447 3.627 3.857 4.127 4.397 4.587
2883.822 4.687 4.677 4.647 4.737 4.777 4.657 4.467 4.277 4.127 4.007
2903.112 3.847 3.667 3.457 3.387 3.357 3.227 3.217 3.297 3.377 3.367
2922.401 3.417 3.667 3.937 4.207 4.567 4.947 5.487 6.297 7.327 8.517
2941.691 9.967 11.547 13.047 14.487 15.617 16.367 16.937 17.037 16.697 16.437
2960.981 16.517 17.047 18.167 20.027 22.587 25.717 29.017 32.277 35.537 38.037
2980.271 38.917 38.537 37.357 34.997 31.477 27.587 23.947 20.457 16.857 13.587
2999.561 11.007 8.817 6.957 5.547 4.607 3.897 3.427 3.207 3.007 2.957
3018.850 2.877 2.737 2.687 2.607 2.527 2.367 2.347 2.347 2.277 2.297
3038.140 2.277 2.147 2.017 2.077 2.137 2.037 1.917 1.957 1.837 1.597
3057.430 1.677 1.727 1.717 1.787 1.677 1.597 1.697 1.657 1.557 1.487
3076.720 1.367 1.367 1.377 1.2741 1.1435 1.0919 1.0746 1.1217 1.2102 1.0861
3096.009 1.0002 1.0509 1.1284 1.0529 0.9174 0.9105 0.8949 0.8768 0.9175 0.9794
3115.299 0.9076 0.8056 0.7863 0.7922 0.782 0.7638 0.6801 0.5803 0.5348 0.5094
3134.589 0.5411 0.5352 0.4538 0.3958 0.5399 0.5236 0.30048 0.36324 0.4446 0.35741
3153.879 0.4065 0.4048 0.33703 0.35816 0.33211 0.36564 0.4088 0.32192 0.33515 0.34085
3173.169 0.4127 0.3793 0.2533 0.29375 0.2579 0.27363 0.34345 0.32945 0.41 0.5795
3192.458 0.5334 0.4096 0.36379 0.31513 0.28876 0.30919 0.27916 0.2468 0.1879 0.2602
3211.748 0.32736 0.2441 0.2524 0.2213 0.2259 0.203 0.085 0.082 0.1998 0.28867
3231.038 0.177 0.135 0.115 0.142 0.31118 0.173 0.133 0.35932 0.34811 0.2141
3250.328 0.16 0.12 0.165 0.169 0.114 0.06 0.1862 0.29383 0.278453 0.2433
3269.617 0.1789 0.35538 0.429 0.1807 0.148 0.129 0.028 0.2196 0.30536 0.2187
3288.907 0.2541 0.2584 0.163 0.31065 0.35829 0.31594 0.29345 0.126 0.008 0.034
3308.197 0.073 0.136 0.32422 0.2211 0.2229 0.30878 0.2554 0.2095 0.046 0.114
3327.487 0.2143 0.2534 0.3793 0.33656 0.2156 0.069 0.069 0.2181 0.2143 0.229
3346.777 0.2507 0.2371 0.137 0.2583 0.33405 0.17 0.1958 0.164 0.15 0.1929
3366.066 0.2122 0.3174 0.31591 0.2036 0.126 0.144 0.35965 0.3613 0.2177 0.283459
3385.356 0.2103 0.032 0.12 0.3082 0.27095 0.2052 0.159 0.107 0.32577 0.32294
3404.646 0.12 0.223 0.2655 0.29556 0.2476 0.1937 0.2521 0.2405 0.29309 0.31239
3423.936 0.28822 0.4323 0.5034 0.4281 0.4501 0.4801 0.5056 0.5183 0.4566 0.31164
3443.225 0.4077 0.7079 0.739 0.5443 0.5205 0.5216 0.4758 0.4129 0.4012 0.4925
3462.515 0.5347 0.5888 0.6109 0.6392 0.6707 0.7315 0.7707 0.8157 0.8873 0.9316
3481.805 0.9512 1.0189 1.185 1.2454 1.307 1.287 1.297 1.347 1.317 1.367
3501.095 1.297 1.2576 1.287 1.1828 0.9916 0.8904 0.7369 0.6342 0.5763 0.421
3520.385 0.5239 0.779 0.7265 0.4791 0.27029 0.29184 0.511 0.5475 0.36584 0.4832
3539.674 0.4998 0.4511 0.5185 0.4777 0.408 0.3965 0.4405 0.2123 0.145 0.255
3558.964 0.4124 0.3902 0.1948 0.31664 0.4325 0.4418 0.4629 0.4511 0.33416 0.2369
3578.254 0.1853 0.2322 0.30776 0.3827 0.33643 0.1818 0.32422 0.433 0.31654 0.1903
3597.544 0.2418 0.265 0.2149 0.34406 0.4446 0.3835 0.37545 0.35133 0.35188 0.36793
3616.833 0.3826 0.2061 0.029 0.2097 0.33986 0.37546 0.33066 0.132 0.029 0.176
3636.123 0.435 0.4007 0.2145 0.27715 0.3771 0.2147 0.057 0.09 0.29123 0.3983
3655.413 0.35198 0.32274 0.2357 0.162 0.074 0.116 0.2499 0.3753 0.395 0.29133
3674.703 0.151 0.174 0.2475 0.31666 0.31401 0.062 0.115 0.30293 0.2082 0.057
3693.993 0.163 0.32756 0.3681 0.3266 0.2481 0.2479 0.2566 0.30498 0.3474 0.2162
3713.282 0.126 0.2301 0.32648 0.31814 0.2198 0.28675 0.4065 0.31627 0.123 0.065
3732.572 0.164 0.127 0.2314 0.4221 0.3335 0.4095 0.5019 0.3918 0.4348 0.3711
3751.862 0.29454 0.27592 0.3015 0.33727 0.34135 0.3786 0.34541 0.27093 0.1874 0.2454
3771.152 0.28905 0.4382 0.5638 0.35027 0.33268 0.4556 0.1892 0.2026 0.4028 0.30897
3790.441 0.280728 0.37038 0.4184 0.29535 0.2338 0.2105 0.27524 0.2657 0.2444 0.4406
3809.731 0.4415 0.36678 0.4504 0.5385 0.4325 0.3834 0.29192 0.111 0.2075 0.3761
3829.021 0.31105 0.218 0.2311 0.32707 0.3947 0.4027 0.3964 0.4424 0.5598 0.6136
3848.311 0.4222 0.2528 0.3216 0.32839 0.36112 0.29269 0.2018 0.29778 0.31219 0.386
3867.601 0.5005 0.5337 0.5076 0.4051 0.4534 0.4283 0.278607 0.37088 0.5072 0.5169
3886.890 0.4147 0.3841 0.5478 0.6421 0.4805 0.34596 0.4745 0.5171 0.4346 0.4693
3906.180 0.4633 0.4459 0.33604 0.32562 0.4027 0.4957 0.6068 0.4136 0.37647 0.5313
3925.470 0.6037 0.43 0.4544 0.3851 0.2018 0.3838 0.548 0.5101 0.4428 0.3804
3944.760 0.381 0.4827 0.5888 0.4984 0.4402 0.6185 0.5063 0.37196 0.4747 0.4158
3964.049 0.3927 0.2572 0.2335 0.35338 0.30704 0.4168 0.2589 0.1822 0.2654 0.37379
3983.339 0.5099 0.3961 0.4015 0.36515 0.27031 0.36079 0.30775 0.1806 0.139 0.26735
##END=
