##TITLE=1-Methylfluorene
##JCAMP-DX=4.24
##DATA TYPE=INFRARED SPECTRUM
##ORIGIN=NIST Mass Spectrometry Data Center
##OWNER=NIST Standard Reference Data Program
Collection (C) 2018 copyright by the U.S. Secretary of Commerce
on behalf of the United States of America. All rights reserved.
##CAS REGISTRY NO=1730-37-6
##MOLFORM=C 14 H 12
##$NIST SOURCE=MSDC-IR
##SPECTROMETER/DATA SYSTEM=HP-GC/MS/IRD
##STATE=gas
##XUNITS=1/CM
##YUNITS=ABSORBANCE
##XFACTOR=1.0
##YFACTOR=0.000002200
##DELTAX=4.0
##FIRSTX=550.0
##LASTX=3846.0
##FIRSTY=0.000156
##MAXX=3846
##MINX=550
##MAXY=0.022
##MINY=0
##NPOINTS=825
##XYDATA=(X++(Y..Y))
550.0 71 64 31 42 187 316 343 333 202 74
590.0 48 17 11 17 18 36 80 227 390 423
630.0 395 255 107 73 64 29 0 21 64 60
670.0 52 108 187 299 463 745 904 795 702 594
710.0 483 510 602 877 1174 1597 2715 4516 6532 9118
750.0 10000 7650 5225 3260 1659 836 551 507 559 707
790.0 692 539 423 266 169 128 86 54 63 66
830.0 103 123 107 92 62 48 51 52 54 69
870.0 100 122 127 127 128 124 108 95 78 59
910.0 31 14 23 25 47 91 106 131 167 164
950.0 156 145 130 123 121 111 99 85 83 95
990.0 107 118 121 139 224 372 530 594 516 374
1030.0 221 139 129 134 164 195 247 327 356 329
1070.0 278 212 170 148 126 115 100 108 134 151
1110.0 141 121 105 64 48 50 52 73 109 168
1150.0 225 273 325 399 483 506 459 368 356 392
1190.0 404 390 338 281 241 201 153 120 109 109
1230.0 146 185 208 214 187 148 112 99 123 174
1270.0 250 320 355 356 319 286 320 370 383 355
1310.0 285 204 189 223 244 229 176 126 122 139
1350.0 150 167 172 173 206 262 344 435 491 504
1390.0 508 511 527 589 678 795 905 998 1085 1116
1430.0 1097 1053 1052 1212 1564 2074 2541 2697 2422 1826
1470.0 1199 781 585 500 463 426 378 321 248 168
1510.0 145 167 178 202 243 288 306 291 262 241
1550.0 235 236 247 311 418 571 763 962 1143 1276
1590.0 1330 1330 1234 1032 788 561 378 255 191 177
1630.0 182 183 183 164 130 104 108 145 170 188
1670.0 203 200 180 146 120 111 93 86 89 102
1710.0 111 86 54 52 50 21 3 18 31 34
1750.0 37 58 91 134 172 205 219 206 165 138
1790.0 135 141 134 122 116 114 135 171 201 202
1830.0 181 172 185 204 219 218 192 148 117 111
1870.0 119 138 154 164 165 164 163 179 208 233
1910.0 258 272 281 280 293 309 301 267 200 122
1950.0 62 30 20 21 13 10 9 16 19 13
1990.0 11 14 16 7 5 9 6 3 2 9
2030.0 17 17 16 14 13 5 2 6 4 5
2070.0 9 11 11 7 4 5 10 10 7 6
2110.0 6 10 5 4 13 20 17 8 8 11
2150.0 12 11 10 10 16 20 16 10 6 6
2190.0 7 3 1 10 12 8 6 8 13 19
2230.0 25 24 23 17 19 29 33 38 40 40
2270.0 41 40 33 21 20 25 27 31 38 42
2310.0 45 41 43 54 51 37 27 19 15 21
2350.0 23 19 16 7 11 23 13 6 16 21
2390.0 22 22 22 25 23 21 26 36 37 29
2430.0 32 38 40 40 44 40 38 34 34 35
2470.0 26 22 21 20 29 30 27 38 38 30
2510.0 27 27 37 38 34 37 38 38 40 44
2550.0 39 38 40 31 18 23 34 36 39 40
2590.0 40 39 40 49 55 47 41 52 56 48
2630.0 45 46 41 36 40 34 31 39 39 27
2670.0 29 29 23 35 39 36 29 36 47 48
2710.0 52 49 47 51 60 68 78 93 101 96
2750.0 92 90 91 89 92 109 106 116 137 157
2790.0 180 208 248 290 306 297 285 266 245 242
2830.0 242 244 262 287 321 379 468 588 715 831
2870.0 908 940 963 1015 1141 1401 1777 2160 2431 2586
2910.0 2651 2552 2248 2055 1963 1814 1635 1422 1218 1064
2950.0 950 851 789 757 770 815 859 877 862 806
2990.0 745 718 736 824 985 1224 1533 1862 2156 2390
3030.0 2579 2772 2986 3216 3439 3705 4028 4300 4448 4411
3070.0 4177 3807 3349 2789 2170 1606 1142 811 600 443
3110.0 327 257 215 178 155 142 131 144 148 145
3150.0 166 179 183 187 174 147 118 110 106 92
3190.0 86 73 63 55 57 52 50 62 50 36
3230.0 29 35 31 20 32 41 33 29 34 32
3270.0 23 23 29 24 25 24 25 35 38 27
3310.0 25 32 33 39 39 36 41 40 39 39
3350.0 40 37 31 42 54 51 49 56 54 43
3390.0 35 34 50 41 23 36 39 40 41 35
3430.0 36 36 34 23 19 34 37 17 16 35
3470.0 31 29 39 34 29 29 42 41 35 38
3510.0 25 25 27 26 24 37 47 37 31 18
3550.0 23 46 58 47 20 25 45 44 29 10
3590.0 8 18 30 45 39 17 19 23 14 2
3630.0 18 42 45 63 50 35 47 40 41 29
3670.0 15 20 26 38 35 32 41 51 53 62
3710.0 62 47 51 45 36 39 33 30 22 26
3750.0 35 40 53 58 62 64 60 51 61 70
3790.0 62 58 61 59 49 48 56 61 65 69
3830.0 62 51 52 57 69
##END=
