##TITLE=2,6-Dimethylundecene
##JCAMP-DX=4.24
##DATA TYPE=INFRARED SPECTRUM
##ORIGIN=NIST Mass Spectrometry Data Center
##OWNER=NIST Standard Reference Data Program
Collection (C) 2018 copyright by the U.S. Secretary of Commerce
on behalf of the United States of America. All rights reserved.
##CAS REGISTRY NO=17301-23-4
##MOLFORM=C 13 H 28
##$NIST SOURCE=MSDC-IR
##SPECTROMETER/DATA SYSTEM=HP-GC/MS/IRD
##STATE=gas
##XUNITS=1/CM
##YUNITS=ABSORBANCE
##XFACTOR=1.0
##YFACTOR=0.000006200
##DELTAX=4.0
##FIRSTX=550.0
##LASTX=3846.0
##FIRSTY=0.000533
##MAXX=3846
##MINX=550
##MAXY=0.062
##MINY=0
##NPOINTS=825
##XYDATA=(X++(Y..Y))
550.0 86 58 30 31 38 40 39 30 24 38
590.0 33 17 17 23 10 0 8 14 19 33
630.0 38 32 26 25 22 17 16 21 27 20
670.0 21 27 27 25 25 25 41 61 64 74
710.0 92 95 111 133 142 146 142 133 116 101
750.0 91 83 80 79 79 78 80 72 56 45
790.0 54 60 55 61 60 60 61 62 81 76
830.0 56 63 63 63 68 70 67 65 59 51
870.0 57 61 60 65 69 70 74 75 74 76
910.0 79 82 88 100 108 108 107 111 107 100
950.0 100 95 87 88 88 87 85 82 75 72
990.0 71 70 67 68 72 72 72 74 75 75
1030.0 76 72 74 79 77 72 65 62 56 49
1070.0 48 47 44 39 38 40 41 42 44 46
1110.0 42 45 49 54 66 79 97 120 141 162
1150.0 177 184 197 213 218 208 179 141 117 107
1190.0 106 105 102 106 113 111 103 94 90 91
1230.0 86 84 85 85 87 85 84 92 97 108
1270.0 122 130 137 139 147 155 157 160 170 183
1310.0 194 207 219 230 249 276 314 356 367 368
1350.0 383 413 469 542 615 703 796 865 909 882
1390.0 746 564 406 300 250 222 221 237 234 241
1430.0 273 343 422 511 643 791 980 1161 1259 1279
1470.0 1201 1020 777 567 433 348 277 226 194 197
1510.0 180 138 131 127 106 88 81 90 96 80
1550.0 69 73 84 63 45 44 47 46 36 35
1590.0 35 36 35 34 34 36 43 43 38 38
1630.0 35 43 41 42 51 65 69 46 40 45
1670.0 47 50 47 57 59 43 51 67 57 41
1710.0 33 45 54 34 23 39 49 33 26 30
1750.0 39 32 23 21 24 31 23 18 25 26
1790.0 28 28 25 30 21 15 19 21 21 22
1830.0 21 18 14 22 25 15 9 12 12 16
1870.0 18 11 10 11 10 12 13 13 10 10
1910.0 8 6 9 8 7 7 6 7 11 10
1950.0 5 3 2 4 5 1 0 3 3 4
1990.0 9 6 3 3 5 6 9 8 7 9
2030.0 12 10 8 8 7 6 5 4 4 4
2070.0 2 4 5 3 2 4 4 3 2 3
2110.0 2 1 2 1 0 0 0 3 4 4
2150.0 3 3 4 3 2 3 5 8 9 6
2190.0 1 1 3 1 3 6 4 0 2 3
2230.0 6 3 1 1 2 4 5 8 9 7
2270.0 7 9 11 11 13 14 16 18 20 22
2310.0 22 22 23 22 24 26 27 26 25 22
2350.0 23 26 30 32 31 32 30 25 20 16
2390.0 16 17 15 14 15 18 20 18 15 13
2430.0 13 15 17 15 13 12 10 10 12 14
2470.0 15 18 17 17 19 19 18 16 17 20
2510.0 23 26 29 30 31 32 33 34 35 37
2550.0 39 41 43 44 49 56 60 62 65 68
2590.0 71 72 73 77 81 83 85 86 86 87
2630.0 88 88 91 95 92 97 102 106 108 111
2670.0 114 115 115 115 115 114 118 125 127 131
2710.0 137 146 155 166 176 183 190 194 191 190
2750.0 189 187 189 196 201 207 218 227 246 266
2790.0 289 318 347 376 408 444 491 545 608 688
2830.0 787 915 1107 1394 1804 2315 2844 3284 3594 3826
2870.0 4062 4311 4485 4493 4347 4198 4216 4479 4957 5534
2910.0 6099 6664 7331 8185 9117 9819 10000 9586 8767 7913
2950.0 7433 7634 8462 9334 9406 8230 6239 4288 2910 2091
2990.0 1588 1255 1026 853 722 625 547 486 436 396
3030.0 365 339 312 288 268 251 240 231 225 215
3070.0 204 196 192 190 186 178 170 164 158 156
3110.0 150 138 137 139 134 125 124 126 125 125
3150.0 120 114 112 111 110 115 115 113 110 104
3190.0 91 86 85 78 74 67 59 54 48 44
3230.0 43 39 32 32 32 29 31 31 30 27
3270.0 26 23 20 23 27 33 33 28 24 22
3310.0 26 25 24 24 24 30 30 27 25 25
3350.0 28 25 24 28 27 22 22 24 26 23
3390.0 14 15 20 16 15 17 17 18 17 11
3430.0 14 14 12 14 17 14 8 10 16 14
3470.0 4 0 6 11 6 5 7 9 7 7
3510.0 12 12 12 16 17 9 4 4 10 19
3550.0 14 11 5 12 32 23 7 5 9 27
3590.0 24 16 17 14 26 34 31 33 22 32
3630.0 43 20 8 12 30 37 23 18 14 24
3670.0 37 41 31 22 26 26 19 19 20 18
3710.0 28 29 24 32 32 26 41 38 42 49
3750.0 41 30 16 14 15 14 6 10 12 12
3790.0 11 14 23 25 19 15 23 30 24 20
3830.0 24 31 33 27 23
##END=
