##TITLE=4-Methylnonane
##JCAMP-DX=4.24
##DATA TYPE=INFRARED SPECTRUM
##ORIGIN=NIST Mass Spectrometry Data Center
##OWNER=NIST Standard Reference Data Program
Collection (C) 2018 copyright by the U.S. Secretary of Commerce
on behalf of the United States of America. All rights reserved.
##CAS REGISTRY NO=17301-94-9
##MOLFORM=C 10 H 22
##$NIST SOURCE=MSDC-IR
##SPECTROMETER/DATA SYSTEM=HP-GC/MS/IRD
##STATE=gas
##XUNITS=1/CM
##YUNITS=ABSORBANCE
##XFACTOR=1.0
##YFACTOR=0.000003500
##DELTAX=4.0
##FIRSTX=550.0
##LASTX=3846.0
##FIRSTY=0.000147
##MAXX=3846
##MINX=550
##MAXY=0.035
##MINY=0
##NPOINTS=825
##XYDATA=(X++(Y..Y))
550.0 42 26 28 58 71 76 72 32 20 26
590.0 26 25 22 18 19 16 31 42 16 21
630.0 26 20 30 34 29 29 35 44 45 40
670.0 47 39 26 36 47 43 51 58 71 85
710.0 91 107 115 130 165 176 170 177 183 166
750.0 147 136 117 107 107 95 79 79 75 67
790.0 62 39 24 32 42 59 67 47 3 18
830.0 62 59 61 65 63 70 68 63 70 79
870.0 88 86 70 67 72 80 84 90 88 85
910.0 85 78 70 77 91 110 129 129 135 142
950.0 130 118 118 107 90 74 64 57 52 52
990.0 56 62 62 56 52 54 45 53 64 61
1030.0 56 53 58 63 66 65 62 55 53 53
1070.0 56 59 54 49 49 58 60 53 47 53
1110.0 59 57 61 76 82 76 99 127 147 169
1150.0 178 172 161 143 120 104 90 84 79 77
1190.0 77 85 87 84 94 101 95 88 84 87
1230.0 93 98 106 105 102 113 116 110 114 121
1270.0 124 127 137 141 143 147 154 158 165 172
1310.0 177 186 193 200 214 232 262 289 309 325
1350.0 332 341 361 391 438 512 617 704 738 713
1390.0 609 472 364 296 258 236 224 222 234 259
1430.0 297 354 429 533 666 833 999 1144 1225 1219
1470.0 1119 944 752 573 424 322 262 217 183 157
1510.0 139 123 110 99 91 82 74 67 63 63
1550.0 58 51 50 52 51 48 45 49 52 51
1590.0 43 44 47 50 52 50 47 39 35 36
1630.0 35 35 38 36 35 31 26 32 38 36
1670.0 35 36 38 35 30 23 18 21 23 24
1710.0 19 15 19 26 26 18 13 19 25 23
1750.0 22 23 19 14 13 13 11 6 3 11
1790.0 16 11 10 6 8 12 14 15 17 16
1830.0 13 13 10 9 10 10 7 10 15 14
1870.0 12 11 10 12 10 11 12 10 8 6
1910.0 6 3 5 3 2 2 2 2 2 6
1950.0 4 0 3 8 9 8 9 6 4 1
1990.0 0 5 6 2 4 8 8 10 8 7
2030.0 11 13 13 13 11 10 9 8 8 7
2070.0 8 6 2 1 4 5 6 5 5 5
2110.0 6 9 10 7 4 5 6 1 2 6
2150.0 6 12 12 10 14 15 11 10 14 12
2190.0 8 11 13 13 8 9 13 11 9 12
2230.0 7 8 11 9 11 14 13 9 10 13
2270.0 10 4 9 20 17 11 11 10 10 12
2310.0 14 19 20 14 13 15 17 15 18 21
2350.0 16 17 18 14 18 21 19 22 23 18
2390.0 20 24 26 27 28 27 26 28 24 23
2430.0 18 12 12 12 11 9 9 10 9 12
2470.0 15 14 14 15 19 21 21 20 20 21
2510.0 24 28 27 30 29 30 33 37 43 43
2550.0 43 42 43 45 47 56 59 61 69 68
2590.0 68 69 71 76 82 82 79 78 78 81
2630.0 90 91 92 94 94 95 95 98 105 108
2670.0 109 115 119 115 118 126 127 126 134 141
2710.0 141 142 151 160 170 177 189 203 206 206
2750.0 205 202 200 205 212 220 229 244 267 285
2790.0 307 335 358 390 424 459 506 558 615 696
2830.0 803 938 1141 1431 1816 2286 2791 3259 3652 3975
2870.0 4256 4522 4719 4753 4634 4446 4339 4474 4845 5376
2910.0 6014 6733 7553 8444 9266 9838 10000 9688 9007 8221
2950.0 7652 7608 8158 8976 9359 8778 7318 5434 3750 2626
2990.0 1952 1541 1269 1079 942 834 734 653 600 549
3030.0 498 463 429 394 367 336 311 296 271 259
3070.0 251 248 243 226 219 214 206 190 181 182
3110.0 166 154 151 149 147 138 133 130 128 126
3150.0 123 120 124 125 114 103 101 105 101 95
3190.0 86 83 83 73 69 66 67 64 51 40
3230.0 34 35 41 39 32 27 33 39 36 41
3270.0 42 31 26 31 40 34 29 29 19 22
3310.0 29 28 20 21 22 17 24 29 29 27
3350.0 24 22 18 21 24 24 22 20 25 25
3390.0 22 29 30 18 17 21 25 26 19 23
3430.0 27 28 29 20 17 19 21 18 12 13
3470.0 22 31 28 26 21 18 17 21 24 22
3510.0 12 6 12 17 16 15 25 18 4 8
3550.0 14 17 15 12 14 12 10 13 16 21
3590.0 24 17 18 17 15 25 28 25 26 19
3630.0 22 32 31 34 33 32 44 45 32 35
3670.0 34 30 36 43 42 37 38 41 37 37
3710.0 39 39 36 26 25 35 33 39 40 33
3750.0 37 42 39 31 30 43 50 38 29 36
3790.0 37 35 36 39 43 47 43 37 38 38
3830.0 37 37 35 36 37
##END=
