##TITLE=all-trans-1,6-Diphenylhexatriene
##JCAMP-DX=4.24
##DATA TYPE=INFRARED SPECTRUM
##ORIGIN=EPA-IR VAPOR PHASE LIBRARY
##OWNER=SRD/NIST
Collection (C) 2018 copyright by the U.S. Secretary of Commerce
on behalf of the United States of America. All rights reserved.
##CAS REGISTRY NO=17329-15-6
##MOLFORM=C 18 H 16
##$NIST SOURCE=MSDC-IR
##STATE=gas
##XUNITS=1/CM
##YUNITS=ABSORBANCE
##XFACTOR=1.
##YFACTOR=0.001
##DELTAX=1.92898
##FIRSTX=549.8
##LASTX=4000.7
##FIRSTY=1.43332
##MAXX=4000.7
##MINX=549.759
##MAXY=0.02045
##MINY=0
##NPOINTS=1790
##XYDATA=(X++(Y..Y))
549.759 1.43332 2.006 1.7328 1.135 1.167 1.195 1.027 1.4244 1.33 1.51137
569.049 1.8786 1.798 1.7028 1.3624 1.038 1.298 1.5913 1.242 1.048 1.168
588.339 1.5866 1.52746 1.098 1.407 1.8375 1.7851 1.49039 1.47046 1.316 1.48417
607.628 1.725 1.7521 1.7987 1.9788 2.1981 1.7168 1.8635 2.3593 2.46 2.83
626.918 2.86 3.02 3.4 3.07 2.95 2.83 2.3022 2.4049 2.3582 2.0607
646.208 2.0192 1.9786 2.184 2.1443 1.8256 2.0734 2.49 2.79 3.34 3.49
665.498 3.79 4.25 4.35 4.99 5.61 5.95 6.71 7.48 8.16 9.38
684.787 10.63 11.38 11.77 12.1 12.39 12.34 12.11 11.74 11.07 10.01
704.077 9.1 8.3 7.23 6.67 6.29 5.73 5.49 5.06 4.75 5.05
723.367 5.25 5.51 5.78 6.07 6.66 7.27 7.95 8.54 9.24 10.15
742.657 10.94 11.63 12.18 12.36 11.67 10.84 10.08 9.02 8.13 7.15
761.947 6.25 5.43 4.6 4.3 3.97 3.57 3.26 3.03 2.78 2.76
781.236 3.02 2.68 2.48 2.68 2.7 2.3244 2.0617 2.2031 2.3834 2.3974
800.526 1.9332 1.864 2.1495 2.0477 1.9678 1.8306 1.7837 1.7 1.599 1.4128
819.816 1.6977 2.1112 2.0393 1.8619 1.6675 1.9357 2.0232 2.2606 2.63 2.59
839.106 2.4185 2.1461 1.911 1.8193 2.2253 2.69 2.95 2.8 2.3236 2.2033
858.395 2.47 2.57 2.3961 2.2158 2.111 2.2593 2.4161 2.4025 2.2707 2.2282
877.685 2.3437 2.2919 2.45 2.65 2.55 2.63 2.68 2.48 2.55 2.73
896.975 2.86 2.86 2.69 2.55 2.61 3.15 3.12 2.75 2.86 3.13
916.265 3.06 2.95 2.89 2.76 2.68 2.78 2.98 2.83 2.83 3.11
935.555 3 2.79 2.88 3.06 2.99 3.11 3.49 3.44 3.81 4.16
954.844 4.1 4.34 4.52 4.86 5.02 5.34 5.91 6.33 7.25 8.02
974.134 8.81 10.34 12 12.99 13.98 14.82 15.19 15.32 14.66 13.93
993.424 12.83 11.23 9.83 8.45 6.99 5.65 4.78 4.34 3.96 3.55
1012.714 3.18 3 2.86 2.95 3.11 3.24 3.95 4.66 5.05 4.93
1032.003 4 2.91 2.56 2.54 2.0594 1.6788 1.9552 2.1187 2.0022 2.2789
1051.293 2.4265 2.3807 2.65 2.51 2.0258 2.0332 2.45 2.4137 2.5 2.5
1070.583 2.65 2.66 2.59 2.3791 1.9266 2.86 3.02 2.2773 2.3932 2.96
1089.873 2.78 2.0308 1.7892 2.86 3.64 2.52 1.6165 2.4373 3.03 2.65
1109.163 1.9236 0.525 0 1.226 1.9773 1.44075 1.303 1.271 1.021 1.027
1128.452 1.47788 1.3538 1.49146 2.0881 2.0524 1.7146 1.47173 1.7802 2.0878 2.4044
1147.742 1.8632 0.887 1.3565 1.6263 1.3911 1.327 1.34 1.48404 1.9701 1.9994
1167.032 1.5995 1.8878 1.594 1.5761 2.2452 1.9898 1.5808 2.0695 1.50962 1.108
1186.322 2.0167 2.017 1.7396 1.49724 0.864 0.42 0.742 1.221 0.636 0.686
1205.611 0.884 0.866 1.069 0.959 1.313 1.119 0.78 1.196 1.49077 2.0249
1224.901 1.9834 1.316 1.5748 1.9691 1.6708 1.157 0.832 0.42 0.27 0.471
1244.191 0.539 0.88 1.4107 1.6141 1.6043 1.5946 1.308 1.3576 1.46401 1.058
1263.481 0.929 1.032 1.304 1.52456 1.3939 1.287 1.46719 1.5426 1.50585 1.3844
1282.771 1.45487 1.6303 1.575 1.6689 1.6478 1.6724 1.8272 1.8903 1.8562 1.8732
1302.060 1.9376 1.9391 1.9494 2.0006 2.0219 2.0237 2.013 2.0001 2.0015 1.9913
1321.350 2.0212 2.0062 1.9402 1.8872 1.8778 1.8265 1.7177 1.6282 1.6352 1.6862
1340.640 1.6651 1.6433 1.682 1.7453 1.7859 1.7741 1.7559 1.7253 1.7531 1.8558
1359.930 1.8026 1.663 1.5979 1.6751 1.7381 1.7401 1.7011 1.664 1.6757 1.6703
1379.219 1.7187 1.712 1.6756 1.6754 1.7148 1.653 1.5988 1.6579 1.689 1.6917
1398.509 1.7516 1.8246 1.8751 1.9285 1.8779 1.8714 1.9729 2.0797 2.0727 1.999
1417.799 1.8852 1.8212 1.8652 1.8627 1.9937 2.0914 2.1192 2.2085 2.2995 2.3534
1437.089 2.48 2.71 2.98 3.13 3.23 3.33 3.41 3.54 3.38 3.14
1456.378 2.84 2.68 2.71 2.57 2.57 2.73 2.62 2.52 2.61 2.92
1475.668 3.3 3.56 3.8 4.14 4.61 4.9 5.27 5.99 7.03 8.2
1494.958 9.21 9.44 8.55 6.75 4.85 3.55 2.77 2.376 2.193 2.0437
1514.248 1.9304 2.0027 2.0203 1.875 1.8375 1.8411 1.7878 1.743 1.7217 1.9113
1533.538 2.0468 1.9081 1.6364 1.53111 1.6309 1.5701 1.6968 1.9176 2.0205 2.0044
1552.827 1.7902 1.7354 1.8475 1.8759 1.8947 2.0837 2.1146 2.1269 2.379 2.47
1572.117 2.57 2.82 2.93 2.88 3.11 3.4 3.73 4.2 4.87 5.65
1591.407 6.36 7.3 7.93 8.03 7.85 7.14 5.99 5.01 4.2 3.46
1610.697 3.07 2.67 2.3795 2.379 2.3368 2.2594 2.1267 1.905 1.9794 2.1162
1629.986 2.0027 2.1286 2.0883 1.9278 2.1158 2.1913 2.0654 2.1767 2.3074 2.4037
1649.276 2.4213 2.291 2.323 2.3696 2.4075 2.3873 2.2552 2.2124 2.1568 2.003
1668.566 1.943 1.8524 1.7637 1.6991 1.7098 1.8111 1.8107 1.7742 1.7078 1.7621
1687.856 1.9205 1.9649 1.8838 1.8162 1.8286 1.9186 1.9048 2.0651 2.2932 2.2664
1707.146 2.3309 2.4246 2.4192 2.4228 2.54 2.62 2.62 2.78 2.86 2.84
1726.435 2.79 2.64 2.47 2.3966 2.2281 2.1186 2.1856 2.1384 2.1156 2.031
1745.725 1.9687 1.9285 1.9329 2.0949 2.0797 1.8849 1.8349 1.8148 1.8696 1.9918
1765.015 1.9076 1.9159 1.9898 2.0071 2.1133 2.2915 2.4193 2.55 2.54 2.58
1784.305 2.79 2.92 3.04 3.09 3.22 3.28 3.03 2.85 2.75 2.56
1803.594 2.3768 2.3535 2.3502 2.2888 2.2374 2.1946 2.2566 2.2201 2.1716 2.1877
1822.884 2.0779 2.0381 2.008 1.9334 1.8997 1.8294 1.8386 1.9736 2.0718 2.0638
1842.174 1.9937 1.9199 1.9646 2.187 2.3914 2.4349 2.56 2.66 2.77 2.82
1861.464 2.81 2.92 2.9 2.83 2.63 2.44 2.5 2.58 2.55 2.55
1880.754 2.62 2.52 2.2733 2.0964 1.9951 1.9516 1.8748 1.8153 1.7708 1.8071
1900.043 1.8911 1.7589 1.6409 1.7521 1.8576 1.8784 1.8458 1.9079 1.976 1.9856
1919.333 2.0429 2.0537 2.0751 2.0153 2.0636 2.1665 2.1891 2.326 2.4128 2.3607
1938.623 2.3253 2.395 2.45 2.4267 2.45 2.57 2.63 2.58 2.47 2.3039
1957.913 2.1031 1.8912 1.7405 1.6943 1.6911 1.625 1.5828 1.5802 1.6989 1.7665
1977.202 1.6285 1.542 1.5455 1.49503 1.47325 1.48423 1.49735 1.52284 1.5248 1.50112
1996.492 1.5752 1.5975 1.53335 1.6051 1.53319 1.45578 1.48306 1.5417 1.52174 1.51156
2015.782 1.49508 1.3686 1.4111 1.53189 1.52655 1.45632 1.43154 1.43841 1.607 1.6731
2035.072 1.5984 1.6166 1.5938 1.6167 1.5892 1.5411 1.5465 1.5542 1.5507 1.5488
2054.362 1.5504 1.46292 1.51084 1.48464 1.4147 1.425 1.3596 1.33 1.4145 1.49604
2073.651 1.46883 1.4546 1.44525 1.50031 1.4139 1.339 1.4295 1.46827 1.48899 1.53862
2092.941 1.50146 1.4104 1.388 1.3688 1.4291 1.47209 1.5386 1.5412 1.4812 1.50196
2112.231 1.51733 1.585 1.6576 1.565 1.44398 1.4241 1.3962 1.45677 1.51918 1.50353
2131.521 1.50526 1.5566 1.49529 1.45395 1.49381 1.50971 1.5696 1.51639 1.46112 1.49378
2150.810 1.6011 1.6489 1.5553 1.3948 1.46925 1.5886 1.46245 1.49301 1.5682 1.5519
2170.100 1.46821 1.49222 1.47388 1.3702 1.437 1.5982 1.663 1.6142 1.5599 1.51651
2189.390 1.5942 1.5942 1.51655 1.5509 1.51922 1.543 1.6337 1.6151 1.5848 1.5306
2208.680 1.44811 1.44528 1.5651 1.5517 1.44584 1.3965 1.3648 1.44152 1.50014 1.5427
2227.970 1.51254 1.4291 1.44697 1.51174 1.5752 1.51013 1.3814 1.5093 1.48917 1.29
2247.259 1.3904 1.49358 1.50171 1.5768 1.6245 1.5649 1.48107 1.49417 1.5659 1.5607
2266.549 1.5325 1.51504 1.5612 1.52036 1.46811 1.45773 1.44505 1.47009 1.48949 1.6161
2285.839 1.7218 1.6062 1.5617 1.5941 1.46953 1.50761 1.50437 1.47621 1.47329 1.376
2305.129 1.44434 1.53965 1.4262 1.4219 1.5437 1.6299 1.6552 1.6035 1.5975 1.49556
2324.418 1.51918 1.5478 1.50933 1.419 1.3805 1.5821 1.7207 1.6934 1.5575 1.46175
2343.708 1.5406 1.5434 1.43796 1.51548 1.5631 1.52335 1.50172 1.44453 1.3694 1.48343
2362.998 1.6022 1.51739 1.46089 1.3469 1.3601 1.46162 1.52931 1.5307 1.49239 1.4395
2382.288 1.355 1.43871 1.6021 1.4969 1.307 1.4179 1.5745 1.6426 1.6014 1.45863
2401.578 1.4293 1.4179 1.3684 1.49457 1.47077 1.3978 1.52476 1.51866 1.53223 1.5614
2420.867 1.51225 1.6041 1.7996 1.7619 1.6137 1.6186 1.5884 1.53142 1.51757 1.48308
2440.157 1.49703 1.5541 1.46402 1.419 1.49139 1.48875 1.4051 1.4226 1.45569 1.335
2459.447 1.4226 1.6457 1.7135 1.65 1.50697 1.45835 1.46599 1.51267 1.48573 1.45147
2478.737 1.50103 1.51633 1.50942 1.4006 1.50988 1.5513 1.53723 1.7232 1.6539 1.5587
2498.026 1.5499 1.424 1.4434 1.6166 1.6079 1.46243 1.45064 1.47258 1.46102 1.52967
2517.316 1.5604 1.47437 1.45953 1.50791 1.48853 1.4066 1.5593 1.671 1.46587 1.44076
2536.606 1.5437 1.6426 1.746 1.6102 1.4567 1.6292 1.6698 1.572 1.5513 1.53528
2555.896 1.5716 1.5876 1.5605 1.6039 1.5964 1.50844 1.48459 1.46582 1.46285 1.51963
2575.186 1.5755 1.5418 1.47166 1.52417 1.5897 1.46534 1.3836 1.3985 1.3941 1.3923
2594.475 1.4259 1.6344 1.699 1.649 1.699 1.5503 1.3728 1.3837 1.3494 1.3718
2613.765 1.4116 1.46584 1.50427 1.3742 1.321 1.3661 1.363 1.3801 1.44724 1.57
2633.055 1.5677 1.5535 1.5857 1.6184 1.5786 1.49932 1.584 1.5788 1.5641 1.6386
2652.345 1.6101 1.5698 1.50308 1.4158 1.51291 1.4869 1.3952 1.332 1.3932 1.43693
2671.634 1.45718 1.5499 1.563 1.5701 1.52385 1.48743 1.49848 1.324 1.247 1.47265
2690.924 1.5682 1.46512 1.43818 1.612 1.6954 1.6446 1.6383 1.48874 1.45507 1.48379
2710.214 1.50446 1.6116 1.6728 1.51188 1.269 1.4262 1.5821 1.6383 1.6527 1.48875
2729.504 1.43623 1.45008 1.49163 1.6056 1.5479 1.48094 1.6101 1.5927 1.48758 1.4214
2748.794 1.43633 1.572 1.4046 1.311 1.43591 1.405 1.3448 1.333 1.3739 1.51028
2768.083 1.5991 1.45096 1.4021 1.3912 1.4203 1.53166 1.3796 1.47086 1.5865 1.52307
2787.373 1.43516 1.4212 1.5594 1.6069 1.6489 1.7243 1.7711 1.8278 1.7322 1.46758
2806.663 1.53067 1.768 1.8193 1.7781 1.713 1.7346 1.76 1.837 1.8538 1.6553
2825.953 1.6596 1.6142 1.6572 1.8357 1.9019 1.9718 1.9324 1.7785 1.7212 1.7074
2845.242 1.6349 1.6406 1.7324 1.756 1.7224 1.7296 1.74 1.6861 1.6368 1.7265
2864.532 1.8217 1.9762 2.0069 1.8364 1.7963 1.8832 1.949 1.9673 2.0656 2.0038
2883.822 1.7367 1.8237 1.95 1.8651 1.9028 1.9885 2.0097 2.0567 2.1019 2.2617
2903.112 2.2572 2.1666 2.3067 2.48 2.4209 2.283 2.2664 2.2362 2.2257 2.0892
2922.401 2.1554 2.2744 2.2537 2.2447 2.2186 2.2847 2.3368 2.3757 2.2028 2.0153
2941.691 2.1271 2.1091 1.965 2.0994 2.2005 2.1251 2.0091 2.0416 2.1839 2.0756
2960.981 1.9734 2.1243 2.1795 2.1181 2.0923 2.2556 2.3326 2.3406 2.46 2.46
2980.271 2.49 2.413 2.48 2.79 3.07 3.34 3.42 3.47 3.85 4.26
2999.561 4.58 4.86 5.23 5.83 6.3 6.81 7.81 9.24 10.89 12.73
3018.850 14.71 16.78 18.55 19.69 20.45 20.42 19.38 17.91 15.93 13.81
3038.140 12.09 10.82 10.22 9.66 8.82 8.24 7.7 7.45 7.74 8.09
3057.430 8.68 9.76 11.27 13.32 15.6 17.17 17.74 16.78 14.69 12.43
3076.720 10.63 9.8 9.4 9.06 8.93 8.61 8.08 7.54 7.12 6.71
3096.009 6.3 5.9 5.46 5.11 4.79 4.43 4.02 3.54 3.21 3.02
3115.299 2.89 2.55 2.2727 2.1338 2.0292 2.2307 2.0792 1.7902 1.7091 1.6805
3134.589 1.7614 1.8858 1.8866 1.8999 2.077 2.2627 2.19 1.9476 1.9086 1.865
3153.879 1.836 1.8379 1.5795 1.46356 1.6508 1.6557 1.6278 1.48659 1.316 1.5042
3173.169 1.5639 1.6526 1.6078 1.268 1.159 1.3415 1.45738 1.654 1.8079 1.8031
3192.458 1.7692 1.7247 1.49755 1.3429 1.46554 1.46408 1.47052 1.5653 1.6644 1.6867
3211.748 1.6935 1.6071 1.5828 1.6166 1.6737 1.6233 1.6346 1.8932 1.6612 1.3702
3231.038 1.415 1.50412 1.661 1.6636 1.49941 1.48012 1.49183 1.5522 1.47743 1.348
3250.328 1.46448 1.53847 1.5279 1.47479 1.5406 1.5816 1.4132 1.232 1.3638 1.43109
3269.617 1.223 1.208 1.172 1.138 1.3711 1.45074 1.5271 1.6151 1.47479 1.5997
3288.907 1.648 1.52855 1.50149 1.46452 1.3963 1.256 1.47939 1.6689 1.6011 1.6551
3308.197 1.50302 1.308 1.45621 1.4229 1.288 1.306 1.3809 1.3627 1.278 1.51154
3327.487 1.6503 1.4672 1.315 1.271 1.3427 1.6002 1.6269 1.4216 1.306 1.243
3346.777 1.122 1.158 1.3703 1.52893 1.6036 1.50395 1.43051 1.47124 1.448 1.269
3366.066 1.181 1.3764 1.6106 1.6593 1.46157 1.51044 1.7785 1.51095 1.269 1.6183
3385.356 1.6617 1.4276 1.5765 1.47492 1.283 1.338 1.4161 1.317 1.309 1.6405
3404.646 1.8499 1.764 1.7969 1.6731 1.4186 1.5598 1.46513 1.192 1.3585 1.5882
3423.936 1.4003 1.164 1.185 1.165 1.074 1.26 1.3736 1.4299 1.319 1.225
3443.225 1.50207 1.6053 1.45113 1.3676 1.198 1.212 1.3475 1.4198 1.3866 1.25
3462.515 1.248 1.128 1.121 1.274 1.3831 1.218 1.081 1.296 1.47634 1.46683
3481.805 1.48286 1.5484 1.6355 1.6293 1.46385 1.49971 1.6133 1.47818 1.355 1.50313
3501.095 1.50829 1.324 1.332 1.51136 1.6291 1.44677 1.26 1.3794 1.53316 1.6386
3520.385 1.634 1.332 1.187 1.309 1.49572 1.53679 1.5823 1.48793 1.4001 1.5839
3539.674 1.3904 1.157 1.4379 1.51834 1.5774 1.7149 1.53024 1.298 1.314 1.53133
3558.964 1.322 1.08 1.255 1.3714 1.323 1.339 1.53866 1.6459 1.52573 1.3766
3578.254 1.3429 1.44301 1.4035 1.121 1.232 1.3642 1.406 1.6231 1.6769 1.51688
3597.544 1.47783 1.757 1.5714 1.293 1.3506 1.6107 1.6328 1.5407 1.5468 1.3909
3616.833 1.321 1.3403 1.47895 1.6146 1.6119 1.5485 1.47443 1.49112 1.5479 1.5601
3636.123 1.7657 1.9051 1.6889 1.6505 1.6227 1.6157 1.628 1.3919 1.3426 1.137
3655.413 1.028 1.302 1.324 1.315 1.49086 1.5451 1.44364 1.242 1.208 1.302
3674.703 1.247 1.3857 1.6775 1.5732 1.46929 1.6344 1.51754 1.3527 1.327 1.45892
3693.993 1.5786 1.5673 1.4031 1.5422 1.6564 1.3449 1.45723 1.5711 1.5661 1.43967
3713.282 1.3545 1.3638 1.3738 1.6226 1.6677 1.5703 1.5838 1.48293 1.291 1.3774
3732.572 1.45661 1.49766 1.5915 1.50407 1.3836 1.3673 1.5957 1.6744 1.51426 1.48284
3751.862 1.312 1.3545 1.4154 1.296 1.5441 1.46311 1.153 1.094 1.292 1.51469
3771.152 1.272 1.2 1.211 1.04 1.125 1.239 1.3633 1.44687 1.48173 1.45922
3790.441 1.48169 1.5611 1.6476 1.8088 1.50328 1.4078 1.5474 1.3886 1.4125 1.4006
3809.731 1.268 1.223 1.49214 1.48843 1.3737 1.4267 1.361 1.3574 1.49892 1.3663
3829.021 1.14 1.244 1.286 1.308 1.45452 1.5884 1.5679 1.6377 1.44154 1.26
3848.311 1.4123 1.322 1.24 1.239 1.313 1.4145 1.405 1.215 1.144 1.45053
3867.601 1.3591 1.293 1.7842 1.6798 1.52951 1.8145 1.5842 1.5472 1.53963 1.5994
3886.890 1.8519 1.9579 2.0145 1.6623 1.264 1.292 1.49527 1.362 1.192 1.45123
3906.180 1.6538 1.5639 1.4144 1.169 1.206 1.281 1.084 1.101 1.3864 1.4241
3925.470 1.178 1.3585 1.7393 1.3948 1.271 1.47008 1.4229 1.45361 1.3662 1.44056
3944.760 1.128 1.044 1.303 1.53194 1.8677 1.7845 1.5823 1.3902 1.4273 1.327
3964.049 1.191 1.261 1.095 1.099 1.192 1.246 1.50424 1.3833 1.3673 1.4281
3983.339 1.43444 1.5846 1.3855 1.4961 1.5722 1.6695 1.6002 1.4192 1.6049 1.45672
##END=
