##TITLE=Ethyl diphenyl phosphine oxide
##JCAMP-DX=4.24
##DATA TYPE=INFRARED SPECTRUM
##ORIGIN=EPA-IR VAPOR PHASE LIBRARY
##OWNER=SRD/NIST
Collection (C) 2018 copyright by the U.S. Secretary of Commerce
on behalf of the United States of America. All rights reserved.
##CAS REGISTRY NO=1733-57-9
##MOLFORM=C 14 H 15 O P
##$NIST SOURCE=MSDC-IR
##STATE=gas
##XUNITS=1/CM
##YUNITS=ABSORBANCE
##XFACTOR=1.
##YFACTOR=0.001
##DELTAX=1.929
##FIRSTX=549.8
##LASTX=4000.8
##FIRSTY=18.079
##MAXX=4000.75
##MINX=549.766
##MAXY=0.061989
##MINY=0
##NPOINTS=1790
##XYDATA=(X++(Y..Y))
549.766 18.079 12.579 9.039 6.709 5.269 4.179 3.649 3.209 2.679 2.399
569.056 2.139 1.939 1.709 1.549 1.509 1.549 1.3152 1.1491 1.0613 0.8452
588.346 0.8105 0.8184 0.8991 0.93 0.9331 0.9859 1.0022 0.9756 0.8598 0.823
607.636 0.817 0.8941 1.0705 1.2501 1.3225 1.2594 1.1599 0.9228 0.8143 0.9178
626.926 0.9143 0.8618 0.976 1.1343 1.1713 1.1631 1.2291 1.3355 1.509 1.709
646.216 1.889 2.179 2.629 3.099 3.749 4.579 5.509 6.819 8.299 9.619
665.506 10.879 11.869 12.379 12.469 12.269 11.959 11.589 11.509 11.949 12.939
684.796 14.499 16.689 19.179 21.679 23.899 25.559 26.919 28.269 29.969 32.699
704.086 37.019 43.109 50.189 56.829 61.159 61.989 59.359 53.829 46.479 38.799
723.376 32.139 27.359 24.649 23.379 22.919 22.819 22.609 22.009 21.169 20.209
742.666 19.289 18.649 18.579 19.069 19.769 20.479 20.919 20.939 20.289 18.879
761.956 17.009 14.689 12.119 9.849 8.019 6.559 5.499 4.869 4.449 4.059
781.246 3.789 3.499 3.139 2.859 2.659 2.449 2.189 1.969 1.819 1.749
800.536 1.639 1.409 1.379 1.449 1.409 1.339 1.237 1.2168 1.1614 1.0963
819.826 1.1306 1.1002 0.9774 0.897 0.9076 0.962 1.0339 1.018 0.9176 0.8491
839.116 0.7901 0.7739 0.8509 0.8364 0.746 0.7358 0.6677 0.5797 0.5761 0.5766
858.406 0.6724 0.6977 0.6716 0.6345 0.5833 0.5687 0.5964 0.6952 0.688 0.6346
877.696 0.6286 0.6423 0.5914 0.5054 0.4918 0.5695 0.5787 0.5343 0.5346 0.5139
896.986 0.5204 0.5996 0.669 0.7122 0.7737 0.6666 0.6119 0.6653 0.6706 0.6553
916.276 0.6284 0.7493 0.8347 0.804 0.8158 0.7704 0.7282 0.7667 0.7331 0.6809
935.566 0.6472 0.7008 0.7481 0.685 0.6374 0.6445 0.7256 0.769 0.8075 0.8792
954.856 0.9315 1.0099 1.0838 1.0592 1.1115 1.2574 1.3184 1.399 1.519 1.679
974.146 1.789 1.829 1.979 2.209 2.449 2.769 3.229 3.799 4.499 5.249
993.436 5.869 6.289 6.369 6.109 5.609 4.929 4.239 3.699 3.469 3.459
1012.726 3.669 4.109 4.779 5.679 6.749 7.919 8.849 9.349 9.409 8.969
1032.016 8.149 7.019 5.719 4.569 3.729 3.129 2.669 2.379 2.259 2.179
1051.306 2.199 2.399 2.609 2.809 3.049 3.209 3.249 3.359 3.489 3.459
1070.596 3.309 3.209 3.219 3.229 3.259 3.339 3.559 3.959 4.449 5.059
1089.886 5.939 6.899 8.109 9.599 11.389 13.489 15.819 18.719 22.229 26.249
1109.176 30.669 34.739 37.599 38.949 38.229 35.259 30.549 24.749 18.939 14.049
1128.467 10.429 8.039 6.479 5.359 4.539 3.859 3.319 2.939 2.649 2.389
1147.757 2.129 2.039 2.079 2.039 2.009 2.029 1.989 1.909 1.969 2.079
1167.047 2.179 2.329 2.629 3.019 3.509 4.179 4.949 5.549 5.999 6.429
1186.337 6.629 6.869 7.139 7.609 8.669 10.219 12.389 15.319 19.159 23.829
1205.627 28.979 34.329 39.169 42.969 45.069 44.799 42.149 37.819 32.819 27.869
1224.917 23.509 20.059 17.679 16.109 15.139 14.449 13.719 12.769 11.799 10.809
1244.207 9.889 9.169 8.539 8.099 7.929 7.799 7.639 7.469 7.179 6.809
1263.497 6.379 5.999 5.679 5.329 4.909 4.569 4.259 3.969 3.729 3.469
1282.787 3.199 2.899 2.669 2.579 2.549 2.479 2.419 2.479 2.539 2.539
1302.077 2.569 2.629 2.669 2.569 2.449 2.319 2.189 2.149 2.159 2.169
1321.367 2.209 2.289 2.299 2.259 2.239 2.229 2.149 2.019 1.889 1.749
1340.657 1.629 1.599 1.499 1.359 1.3213 1.3238 1.3249 1.3178 1.349 1.419
1359.947 1.479 1.489 1.489 1.529 1.569 1.659 1.799 1.889 1.999 2.089
1379.237 2.149 2.229 2.249 2.229 2.299 2.339 2.319 2.389 2.449 2.499
1398.527 2.639 2.779 3.039 3.389 3.739 4.019 4.229 4.379 4.499 4.579
1417.817 4.679 4.829 5.079 5.499 6.099 6.969 8.089 9.229 10.329 11.259
1437.107 11.909 12.069 11.379 10.199 9.019 7.809 6.629 5.689 5.059 4.679
1456.397 4.439 4.339 4.309 4.199 4.039 3.969 3.849 3.679 3.549 3.409
1475.687 3.369 3.409 3.479 3.549 3.549 3.389 3.149 2.879 2.579 2.249
1494.977 1.919 1.609 1.389 1.2271 1.1234 1.0431 0.9943 0.9851 0.9878 1.0082
1514.267 0.956 0.9039 0.909 0.9354 0.9434 0.9765 1.0033 1.0141 1.0584 1.0423
1533.557 0.9978 1.0884 1.0754 0.9775 1.0161 1.0503 1.068 1.0638 1.0421 1.0377
1552.847 1.0472 1.0564 1.0282 0.983 1.0274 1.1057 1.1503 1.1433 1.142 1.1944
1572.137 1.2701 1.2947 1.3266 1.439 1.529 1.609 1.679 1.809 1.889 1.909
1591.427 1.939 1.879 1.769 1.649 1.549 1.419 1.2773 1.2081 1.2094 1.1866
1610.717 1.1196 1.0636 1.0553 1.0154 0.9398 0.9161 0.8537 0.8471 0.87 0.8483
1630.007 0.861 0.9027 0.9123 0.9046 0.92 0.9545 0.9648 0.9812 1.0806 1.1382
1649.297 1.1655 1.1801 1.1791 1.2013 1.3057 1.369 1.359 1.339 1.3195 1.349
1668.587 1.349 1.292 1.2311 1.1652 1.0931 1.04 0.9604 0.8595 0.7972 0.7792
1687.877 0.7647 0.7324 0.6996 0.6916 0.7058 0.6631 0.6067 0.6339 0.6768 0.6702
1707.167 0.6617 0.661 0.6539 0.6741 0.7046 0.6785 0.6472 0.675 0.6878 0.6701
1726.457 0.6487 0.6463 0.7004 0.7243 0.6865 0.6838 0.7028 0.7323 0.7531 0.7701
1745.747 0.7841 0.8188 0.8779 0.8788 0.8851 0.9618 1.0361 1.0547 1.0543 1.0713
1765.037 1.1178 1.1631 1.1563 1.1571 1.1453 1.1065 1.0891 1.0901 1.038 0.9559
1784.327 0.9217 0.8966 0.9176 0.9339 0.9803 1.0765 1.1496 1.2876 1.499 1.659
1803.617 1.829 2.029 2.209 2.339 2.379 2.339 2.279 2.139 1.959 1.819
1822.907 1.699 1.559 1.419 1.359 1.316 1.2584 1.1515 1.0686 1.0251 0.9594
1842.197 0.8894 0.8377 0.8055 0.7832 0.7834 0.8144 0.8174 0.8106 0.8402 0.8799
1861.487 0.9012 0.887 0.8932 0.9517 1.0277 1.0917 1.1505 1.2643 1.359 1.439
1880.777 1.579 1.679 1.729 1.789 1.849 1.899 1.959 1.959 1.939 1.909
1900.067 1.879 1.839 1.699 1.589 1.519 1.389 1.2561 1.1507 1.0586 1.0127
1919.357 0.982 0.9377 0.8853 0.9036 0.9662 0.9607 0.9597 0.9632 0.9414 0.9998
1938.647 1.092 1.1586 1.2693 1.399 1.529 1.659 1.739 1.799 1.909 1.989
1957.937 2.049 2.039 1.969 1.959 1.909 1.849 1.799 1.709 1.589 1.429
1977.227 1.2616 1.1278 1.0173 0.894 0.7707 0.6994 0.6751 0.641 0.6118 0.6024
1996.517 0.5866 0.5942 0.5787 0.5632 0.5715 0.5629 0.5566 0.5989 0.5973 0.5691
2015.807 0.5599 0.5588 0.5763 0.5742 0.5334 0.5134 0.5267 0.5205 0.5241 0.5403
2035.097 0.5357 0.5055 0.5221 0.5311 0.5242 0.4942 0.4897 0.5241 0.5226 0.5429
2054.387 0.5547 0.5145 0.5014 0.5037 0.5103 0.5375 0.52 0.4894 0.4877 0.4704
2073.677 0.4713 0.4974 0.5085 0.5072 0.5028 0.5135 0.5131 0.5038 0.5072 0.5079
2092.967 0.5351 0.5333 0.5164 0.5408 0.5842 0.5633 0.5337 0.5125 0.4905 0.5356
2112.257 0.5394 0.5401 0.5598 0.583 0.5732 0.5169 0.4865 0.5093 0.5395 0.5414
2131.547 0.5788 0.584 0.5803 0.6087 0.6003 0.586 0.5557 0.5901 0.6513 0.6215
2150.837 0.6051 0.5996 0.6048 0.5967 0.5485 0.579 0.5407 0.5331 0.6018 0.5814
2170.127 0.5883 0.6101 0.588 0.5647 0.5699 0.5771 0.5885 0.5837 0.5648 0.6036
2189.417 0.6298 0.5687 0.5814 0.632 0.6571 0.6576 0.643 0.6622 0.6281 0.6795
2208.707 0.7671 0.7766 0.7822 0.8198 0.8083 0.7981 0.8511 0.8488 0.8031 0.7833
2227.997 0.7717 0.7282 0.7125 0.6889 0.6672 0.6886 0.7222 0.7486 0.697 0.6432
2247.287 0.6832 0.6895 0.6688 0.6631 0.6335 0.6442 0.6432 0.5903 0.596 0.6345
2266.577 0.5896 0.5858 0.6057 0.604 0.6569 0.6353 0.6225 0.6897 0.7166 0.6751
2285.868 0.684 0.6689 0.6001 0.6379 0.6744 0.6427 0.6281 0.6655 0.7324 0.7559
2305.158 0.7171 0.7187 0.7622 0.8382 0.925 1.0177 1.0374 1.0255 1.0603 0.9643
2324.448 0.884 0.8682 0.7956 0.7442 0.7142 0.6996 0.7023 0.7411 0.7909 0.7601
2343.738 0.7712 0.8315 0.8212 0.7562 0.719 0.7375 0.7736 0.7781 0.734 0.7124
2363.028 0.69 0.6662 0.6728 0.6764 0.7182 0.7419 0.689 0.6374 0.6312 0.6554
2382.318 0.6661 0.6619 0.6266 0.6211 0.6869 0.699 0.6314 0.64 0.725 0.7123
2401.608 0.6884 0.7342 0.7483 0.7512 0.7562 0.7262 0.7445 0.8062 0.8043 0.7622
2420.898 0.734 0.7465 0.7675 0.7517 0.7476 0.7236 0.6669 0.693 0.7204 0.6834
2440.188 0.6411 0.6289 0.6506 0.6816 0.6674 0.6202 0.5685 0.5434 0.5859 0.5966
2459.478 0.6052 0.6407 0.6813 0.7008 0.7027 0.7064 0.6739 0.6335 0.6148 0.6336
2478.768 0.6726 0.6442 0.5811 0.5292 0.5046 0.5438 0.5587 0.5997 0.5989 0.5639
2498.058 0.6061 0.5769 0.534 0.5679 0.6144 0.6112 0.6216 0.6246 0.601 0.543
2517.348 0.4913 0.513 0.5575 0.5906 0.584 0.596 0.6059 0.624 0.6395 0.5999
2536.638 0.6074 0.6839 0.6568 0.6001 0.6058 0.6007 0.6354 0.6418 0.5945 0.5889
2555.928 0.5888 0.5913 0.652 0.677 0.6662 0.6654 0.6434 0.6805 0.7102 0.6897
2575.218 0.7066 0.7547 0.7821 0.7686 0.8076 0.8644 0.8299 0.7867 0.8006 0.7743
2594.508 0.7491 0.7797 0.7011 0.6773 0.7525 0.777 0.8522 0.8175 0.7358 0.7366
2613.798 0.7403 0.729 0.7435 0.7582 0.7064 0.6735 0.7163 0.6902 0.6299 0.6505
2633.088 0.6574 0.7139 0.7414 0.7097 0.7108 0.7191 0.6886 0.6536 0.6296 0.6156
2652.378 0.6784 0.7255 0.6761 0.6885 0.733 0.7164 0.7538 0.7845 0.7679 0.6874
2671.668 0.6188 0.6447 0.7083 0.8298 0.8795 0.8498 0.9242 1.005 0.9827 0.9327
2690.958 0.9577 1.016 1.0233 1.0319 0.9768 0.8825 0.9118 0.9668 0.9538 0.9349
2710.248 0.9128 0.8641 0.7926 0.7294 0.7331 0.7118 0.7065 0.7384 0.6835 0.6449
2729.538 0.6335 0.6574 0.7302 0.6672 0.5974 0.6887 0.7203 0.7092 0.7272 0.7422
2748.828 0.7784 0.8244 0.8063 0.7454 0.72 0.7351 0.7087 0.705 0.7015 0.6625
2768.118 0.6388 0.6508 0.7195 0.7327 0.7586 0.7696 0.6961 0.6997 0.7648 0.7453
2787.408 0.733 0.718 0.7368 0.8497 0.8509 0.9135 0.9734 0.8571 0.8677 0.8833
2806.698 0.8883 0.9598 1.0336 1.1172 1.0949 1.0256 1.0119 1.0045 0.9941 1.0004
2825.988 1.0044 0.9919 1.0172 1.0477 0.9933 1.0332 1.1593 1.1845 1.1596 1.1416
2845.278 1.1487 1.1914 1.2953 1.3142 1.276 1.359 1.479 1.589 1.559 1.539
2864.568 1.639 1.739 1.819 1.909 2.009 2.179 2.479 2.799 3.179 3.639
2883.858 4.229 4.799 5.289 5.679 5.809 5.749 5.599 5.379 4.939 4.509
2903.148 4.349 4.329 4.289 4.479 4.939 5.349 5.699 6.049 6.319 6.369
2922.438 6.239 5.879 5.479 5.109 4.899 4.899 5.119 5.649 6.439 7.449
2941.728 8.459 9.339 10.019 10.319 10.069 9.419 8.529 7.409 6.449 5.729
2961.018 5.269 5.189 5.329 5.729 6.399 7.199 8.079 8.879 9.399 9.849
2980.308 9.999 9.599 9.059 8.409 7.669 6.929 6.289 5.709 5.179 4.799
2999.598 4.499 4.309 4.319 4.359 4.409 4.679 4.909 5.029 5.199 5.379
3018.888 5.599 5.729 5.869 6.019 5.989 5.939 5.869 5.689 5.499 5.349
3038.178 5.259 5.179 5.299 5.699 6.179 6.839 7.729 8.929 10.439 12.489
3057.468 15.259 18.159 20.879 22.939 23.839 23.769 22.779 21.089 19.099 17.189
3076.758 15.819 15.069 14.479 13.789 12.959 11.989 10.979 9.829 8.709 7.699
3096.048 6.729 6.009 5.269 4.479 3.869 3.349 2.809 2.289 2.099 1.969
3115.338 1.809 1.719 1.559 1.469 1.509 1.419 1.2764 1.3284 1.399 1.369
3134.628 1.369 1.409 1.429 1.469 1.549 1.499 1.439 1.439 1.439 1.379
3153.918 1.349 1.243 1.0099 0.8536 0.8385 0.7855 0.5438 0.5407 0.6971 0.6542
3173.208 0.6978 0.6665 0.4627 0.4489 0.5193 0.4561 0.344495 0.37407 0.4656 0.4715
3192.498 0.40701 0.41502 0.42006 0.41031 0.4427 0.4933 0.5146 0.4665 0.5034 0.41041
3211.788 0.37701 0.43659 0.4055 0.4591 0.4557 0.40413 0.36509 0.322 0.40589 0.39356
3231.078 0.3088 0.3279 0.37423 0.3245 0.2864 0.342095 0.3208 0.2892 0.2495 0.2535
3250.368 0.3017 0.42429 0.39285 0.202 0.116 0.209 0.41548 0.4395 0.2972 0.2727
3269.658 0.2975 0.2661 0.287 0.231 0.117 0.163 0.2884 0.282 0.167 0.101
3288.948 0.096 0.091 0.197 0.2884 0.2492 0.2633 0.3234 0.2 0.099 0.045
3308.238 0.053 0.175 0.208 0.2466 0.18 0.152 0.2501 0.25 0.125 0.137
3327.528 0.223 0.224 0.224 0.2474 0.228 0.204 0.235 0.2684 0.2768 0.171
3346.818 0.217 0.3062 0.2842 0.2718 0.28 0.2737 0.3145 0.35376 0.218 0.16
3366.108 0.234 0.234 0.198 0.222 0.207 0.193 0.232 0.193 0.222 0.243
3385.398 0.197 0.214 0.3248 0.3375 0.2877 0.154 0.036 0.161 0.173 0.2412
3404.688 0.34949 0.2817 0.2401 0.212 0.2682 0.2752 0.216 0.2413 0.218 0.118
3423.978 0.012 0.036 0.073 0.018 0.079 0.174 0.159 0.2581 0.2637 0.172
3443.269 0.168 0.2857 0.2981 0.073 0.036 0.094 0.054 0.126 0.216 0.174
3462.559 0.049 0.024 0.083 0.104 0.144 0.155 0.19 0.19 0.152 0.145
3481.849 0.2507 0.43026 0.43784 0.2514 0.196 0.2 0.173 0.185 0.136 0.041
3501.139 0.01 0.205 0.2572 0.101 0.118 0.153 0.139 0.209 0.2992 0.3076
3520.429 0.203 0.152 0.211 0.2407 0.179 0.158 0.162 0.097 0.103 0.182
3539.719 0.16 0.125 0.154 0.224 0.2431 0.161 0.04 0.044 0.068 0.056
3559.009 0.087 0.13 0.139 0.234 0.2936 0.201 0.217 0.141 0.001 0
3578.299 0.144 0.2546 0.219 0.105 0.151 0.2612 0.2497 0.229 0.093 0.001
3597.589 0.109 0.166 0.101 0.148 0.186 0.228 0.229 0.165 0.178 0.128
3616.879 0.158 0.169 0.188 0.35278 0.445 0.40127 0.3051 0.2534 0.314 0.265
3636.169 0.2526 0.3269 0.266 0.2881 0.34588 0.3045 0.2517 0.2923 0.2892 0.3118
3655.459 0.3222 0.235 0.213 0.219 0.2578 0.3017 0.229 0.093 0.055 0.046
3674.749 0.187 0.325 0.264 0.235 0.262 0.2919 0.235 0.145 0.206 0.3757
3694.039 0.4984 0.4722 0.39565 0.33109 0.258 0.195 0.2459 0.36807 0.3113 0.2515
3713.329 0.221 0.3022 0.35164 0.2823 0.33758 0.35363 0.341209 0.32916 0.2712 0.2852
3732.619 0.35827 0.40768 0.3245 0.2531 0.237 0.204 0.19 0.2657 0.2409 0.208
3751.909 0.223 0.123 0.16 0.184 0.2801 0.36221 0.2873 0.206 0.177 0.225
3771.199 0.3031 0.38843 0.4588 0.36244 0.3228 0.4454 0.42473 0.340926 0.3045 0.2977
3790.489 0.238 0.165 0.209 0.21 0.2504 0.3124 0.3116 0.238 0.085 0.119
3809.779 0.205 0.2399 0.231 0.209 0.173 0.235 0.3134 0.3089 0.23 0.203
3829.069 0.233 0.169 0.059 0.068 0.188 0.124 0.217 0.3003 0.167 0.092
3848.359 0.131 0.186 0.144 0.223 0.216 0.187 0.2451 0.2634 0.189 0.142
3867.649 0.23 0.35576 0.38367 0.3681 0.2643 0.148 0.111 0.141 0.2417 0.237
3886.939 0.2609 0.2974 0.309 0.2507 0.189 0.2444 0.2876 0.3106 0.3031 0.224
3906.229 0.3274 0.40908 0.2412 0.228 0.3183 0.36578 0.37266 0.209 0.185 0.3069
3925.519 0.288 0.3176 0.37942 0.37453 0.5077 0.5397 0.39267 0.33402 0.36088 0.37531
3944.809 0.39354 0.36323 0.33137 0.267 0.182 0.2777 0.43426 0.37548 0.318 0.4419
3964.099 0.4636 0.40629 0.34965 0.346425 0.39054 0.36913 0.40961 0.3936 0.3254 0.3106
3983.389 0.39207 0.5272 0.42488 0.3279 0.3204 0.2696 0.221 0.33513 0.51 0.5219
##END=
