##TITLE=4-Iodoisopropylbenzene
##JCAMP-DX=4.24
##DATA TYPE=INFRARED SPECTRUM
##ORIGIN=EPA-IR VAPOR PHASE LIBRARY
##OWNER=SRD/NIST
Collection (C) 2018 copyright by the U.S. Secretary of Commerce
on behalf of the United States of America. All rights reserved.
##CAS REGISTRY NO=17356-09-1
##MOLFORM=C 9 H 11 I
##$NIST SOURCE=MSDC-IR
##STATE=gas
##XUNITS=1/CM
##YUNITS=ABSORBANCE
##XFACTOR=1.
##YFACTOR=0.001
##DELTAX=1.929
##FIRSTX=549.8
##LASTX=4000.8
##FIRSTY=3.326
##MAXX=4000.75
##MINX=549.766
##MAXY=0.080996
##MINY=0
##NPOINTS=1790
##XYDATA=(X++(Y..Y))
549.766 3.326 2.906 2.776 2.536 2.216 2.116 1.936 1.546 1.3194 1.2415
569.056 1.3193 1.3394 1.3306 1.3668 1.5347 1.976 2.236 2.426 2.576 2.606
588.346 2.646 2.446 1.966 1.4915 0.9966 0.6636 0.6558 0.6899 0.6715 0.433
607.636 0.225 0.198 0.2 0.402 0.535484 0.39 0.25 0.193 0.254 0.335
626.926 0.297 0.279 0.333 0.375 0.393 0.4594 0.4972 0.4535 0.6027 0.8559
646.216 0.8431 0.8874 0.9497 0.9412 1.0113 0.9272 0.7412 0.4781 0.216 0.215
665.506 0.206 0.19 0.145 0.019 0.083 0.314 0.217 0.136 0.25 0.269
684.796 0.383 0.372 0.352 0.354 0.4578 0.7476 0.9466 1.135 1.2839 1.3667
704.086 1.686 1.996 2.176 2.426 2.636 2.826 3.006 3.026 3.066 3.016
723.376 2.736 2.636 2.576 2.436 2.516 2.606 2.856 3.366 4.166 5.316
742.666 6.506 7.406 7.636 7.246 6.726 5.726 4.126 2.596 1.646 1.2324
761.956 1.1422 1.0916 1.0664 1.1796 1.3032 1.4068 1.5325 1.676 1.736 1.886
781.246 1.986 2.046 2.056 2.146 2.316 2.626 3.146 3.776 4.626 5.586
800.536 6.866 8.456 10.226 12.236 14.356 16.296 17.966 19.426 20.696 21.436
819.826 20.806 19.406 17.936 16.176 14.106 11.856 9.736 7.946 6.316 4.966
839.116 3.876 2.986 2.436 2.036 1.706 1.4406 1.2161 0.9962 0.8515 0.807
858.406 0.8057 0.7151 0.60977 0.57964 0.536871 0.56121 0.62394 0.6649 0.6613 0.7029
877.696 0.8021 0.8015 0.7305 0.7642 0.841 0.8614 0.8825 0.8038 0.7417 0.7216
896.986 0.6992 0.6823 0.6449 0.6624 0.6391 0.60307 0.5514 0.54946 0.6009 0.6807
916.276 0.7053 0.6706 0.6882 0.681 0.7569 0.859 0.8172 0.7777 0.7839 0.7707
935.566 0.7885 0.7444 0.7072 0.7139 0.7178 0.6745 0.61941 0.58982 0.56768 0.53306
954.856 0.54163 0.5135 0.4906 0.62974 0.6614 0.6058 0.6494 0.7468 0.8104 0.887
974.146 0.9937 1.0784 1.1538 1.3028 1.4883 1.746 2.166 2.716 3.616 5.036
993.436 7.016 9.856 14.316 21.036 30.156 39.376 44.176 43.986 42.386 38.336
1012.726 28.136 15.996 8.206 4.776 3.266 2.406 1.976 1.766 1.596 1.546
1032.016 1.4649 1.536 1.736 1.936 2.356 2.836 3.336 3.986 4.796 5.866
1051.306 7.136 8.546 10.376 12.686 15.266 17.916 20.176 21.486 21.626 20.636
1070.596 18.606 15.646 12.456 9.836 7.966 6.736 5.856 5.276 4.856 4.676
1089.886 4.786 5.066 5.516 6.066 6.526 6.696 6.606 6.266 5.726 5.066
1109.176 4.386 3.826 3.466 3.206 2.946 2.736 2.636 2.606 2.576 2.626
1128.467 2.756 2.806 2.956 3.226 3.446 3.606 3.576 3.426 3.226 2.816
1147.757 2.386 1.906 1.453 1.1529 0.8701 0.7238 0.62618 0.60024 0.57028 0.5087
1167.047 0.54513 0.60271 0.642 0.71 0.7683 0.8067 0.8414 0.842 0.7956 0.7292
1186.337 0.6891 0.59205 0.52909 0.4587 0.38 0.4962 0.5225 0.416 0.4814 0.5024
1205.627 0.4836 0.6389 0.8513 1.005 1.1301 1.3352 1.666 1.896 1.916 1.826
1224.917 1.676 1.5166 1.2267 0.9709 0.7207 0.5028 0.4589 0.4616 0.4698 0.4419
1244.207 0.4759 0.55365 0.6031 0.6385 0.6698 0.6817 0.6694 0.7138 0.7781 0.818
1263.497 0.7948 0.82 0.838 0.8447 0.852 0.8094 0.8968 1.0253 1.0866 1.195
1282.787 1.3718 1.676 2.166 2.776 3.436 3.986 4.316 4.426 4.326 4.056
1302.077 3.566 2.996 2.586 2.486 2.546 2.556 2.696 2.866 2.996 3.096
1321.367 3.206 3.196 3.176 3.186 3.096 2.986 2.896 2.906 2.936 2.956
1340.657 3.086 3.246 3.376 3.456 3.466 3.516 3.596 3.606 3.666 3.806
1359.947 3.896 4.026 4.216 4.436 4.656 4.836 5.006 5.126 5.206 5.336
1379.237 5.576 5.856 6.206 6.636 7.036 7.506 7.996 8.416 8.746 9.076
1398.527 9.396 9.696 9.826 9.686 9.446 8.986 8.266 7.446 6.566 5.736
1417.817 4.996 4.356 3.946 3.616 3.396 3.256 3.146 3.146 3.176 3.216
1437.107 3.366 3.636 3.936 4.246 4.656 5.186 5.806 6.406 7.146 7.986
1456.397 8.776 9.596 10.466 11.276 11.996 12.736 13.516 14.486 15.796 17.626
1475.687 20.176 23.796 28.266 33.376 38.056 40.876 40.946 38.586 34.206 28.046
1494.977 20.776 14.096 9.626 6.886 5.216 4.126 3.256 2.586 2.246 1.996
1514.267 1.786 1.656 1.5335 1.4364 1.4135 1.3501 1.2574 1.2322 1.1733 1.1175
1533.557 1.1209 1.0775 1.0449 0.9994 0.8827 0.8923 0.9059 0.8134 0.7927 0.7967
1552.847 0.7995 0.7979 0.7766 0.7661 0.7642 0.7673 0.7993 0.8137 0.7917 0.8384
1572.137 0.8771 0.9088 0.9848 1.1381 1.4343 1.736 1.986 2.146 2.186 2.176
1591.427 2.016 1.756 1.4588 1.1096 0.8961 0.8168 0.7266 0.6505 0.6594 0.6967
1610.717 0.7231 0.7713 0.8086 0.8698 1.0003 1.1155 1.1789 1.3027 1.4513 1.596
1630.007 1.776 1.926 2.016 2.056 2.116 2.096 2.026 1.946 1.896 1.796
1649.297 1.646 1.5072 1.3193 1.1796 1.0444 0.9194 0.7822 0.6827 0.687 0.6258
1668.587 0.55529 0.5138 0.4842 0.5208 0.53492 0.474 0.4397 0.43 0.386 0.406
1687.877 0.38 0.358 0.378 0.347 0.324 0.328 0.332 0.347 0.372 0.362
1707.167 0.363 0.356 0.309 0.287 0.297 0.288 0.332 0.349 0.356 0.394
1726.457 0.367 0.374 0.407 0.402 0.4645 0.5182 0.5087 0.539322 0.55732 0.60903
1745.747 0.6926 0.7272 0.7784 0.8448 0.8796 0.8854 0.8578 0.8575 0.8582 0.8513
1765.037 0.9849 1.1439 1.2785 1.4615 1.566 1.5278 1.4768 1.3997 1.2197 1.0232
1784.327 0.8143 0.59426 0.4709 0.389 0.304 0.237 0.243 0.293 0.284 0.237
1803.617 0.198 0.163 0.136 0.189 0.278 0.269 0.224 0.216 0.198 0.199
1822.907 0.245 0.259 0.273 0.303 0.296 0.313 0.318 0.292 0.295 0.294
1842.197 0.31 0.364 0.386 0.402 0.4 0.381 0.423 0.4482 0.4738 0.53329
1861.487 0.58296 0.63428 0.7187 0.7699 0.8486 1.0089 1.1246 1.2333 1.3299 1.4363
1880.777 1.596 1.696 1.796 1.926 1.976 2.006 2.016 1.956 1.846 1.706
1900.067 1.576 1.4346 1.2784 1.1178 0.9955 0.9022 0.7904 0.6751 0.60187 0.55923
1919.357 0.540671 0.51 0.434 0.395 0.387 0.378 0.373 0.35 0.347 0.327
1938.647 0.321 0.331 0.291 0.246 0.259 0.304 0.299 0.284 0.288 0.319
1957.937 0.347 0.312 0.28 0.261 0.238 0.244 0.256 0.255 0.259 0.268
1977.227 0.25 0.23 0.227 0.25 0.266 0.245 0.231 0.246 0.285 0.319
1996.517 0.276 0.253 0.263 0.252 0.264 0.311 0.367 0.361 0.332 0.289
2015.807 0.277 0.289 0.272 0.296 0.285 0.247 0.261 0.283 0.295 0.293
2035.097 0.314 0.295 0.269 0.264 0.258 0.261 0.247 0.28 0.274 0.229
2054.387 0.271 0.309 0.316 0.308 0.305 0.341 0.344 0.334 0.382 0.399
2073.677 0.353 0.348 0.336 0.322 0.314 0.312 0.335 0.312 0.316 0.339
2092.967 0.294 0.284 0.281 0.278 0.304 0.304 0.302 0.302 0.256 0.259
2112.257 0.323 0.303 0.277 0.33 0.33 0.32 0.361 0.326 0.303 0.349
2131.547 0.384 0.362 0.315 0.34 0.34 0.323 0.339 0.27 0.22 0.307
2150.837 0.361 0.295 0.256 0.259 0.253 0.289 0.27 0.229 0.277 0.308
2170.127 0.298 0.305 0.29 0.274 0.323 0.329 0.275 0.319 0.313 0.265
2189.417 0.293 0.3 0.282 0.298 0.357 0.351 0.32 0.285 0.317 0.35
2208.707 0.306 0.314 0.33 0.312 0.341 0.385 0.404 0.37 0.369 0.413
2227.997 0.41 0.416 0.412 0.41 0.427 0.431 0.431 0.4383 0.391 0.39
2247.287 0.4768 0.497 0.467 0.5141 0.52908 0.5046 0.5073 0.5112 0.540571 0.55161
2266.577 0.58431 0.58222 0.5753 0.59237 0.60158 0.60462 0.60265 0.5599 0.53173 0.60429
2285.868 0.61419 0.55334 0.58189 0.6454 0.63214 0.61796 0.61332 0.59001 0.56758 0.54287
2305.158 0.53134 0.5159 0.5129 0.5134 0.54534 0.55295 0.5147 0.52788 0.54835 0.58031
2324.448 0.538266 0.4934 0.52865 0.535736 0.5072 0.5235 0.5258 0.4923 0.5106 0.4912
2343.738 0.417 0.4605 0.4853 0.4628 0.4941 0.4824 0.4739 0.5049 0.535052 0.5098
2363.028 0.5154 0.57396 0.55386 0.55816 0.57514 0.54696 0.56621 0.56202 0.55682 0.56717
2382.318 0.57226 0.59772 0.59243 0.60028 0.60362 0.58226 0.54775 0.5017 0.4817 0.53232
2401.608 0.57124 0.53252 0.5768 0.57432 0.53319 0.4986 0.4517 0.452 0.4638 0.448
2420.898 0.427 0.4679 0.5235 0.4764 0.4697 0.541602 0.5171 0.4648 0.4525 0.4837
2440.188 0.4953 0.4638 0.4833 0.52678 0.54884 0.543156 0.56862 0.59942 0.55302 0.5191
2459.478 0.55489 0.58432 0.56541 0.58359 0.6529 0.6433 0.62765 0.6756 0.6759 0.62343
2478.768 0.5849 0.62387 0.61175 0.5687 0.56444 0.5841 0.58077 0.59924 0.6462 0.6484
2498.058 0.6504 0.60724 0.60567 0.59654 0.56352 0.60965 0.61347 0.61977 0.63385 0.60408
2517.348 0.60799 0.601 0.57821 0.57628 0.57296 0.58696 0.6535 0.6673 0.6504 0.7063
2536.638 0.6917 0.6671 0.6825 0.6869 0.6363 0.61368 0.6838 0.7446 0.7485 0.7366
2555.928 0.745 0.709 0.7303 0.7574 0.6996 0.6745 0.7126 0.7988 0.9151 0.9315
2575.218 0.9372 0.9712 0.9784 1.048 1.1009 1.1098 1.1801 1.251 1.2985 1.2505
2594.508 1.1845 1.1819 1.0988 1 0.9667 0.9253 0.8613 0.8348 0.8071 0.7634
2613.798 0.7989 0.8208 0.7766 0.7837 0.7293 0.7022 0.7962 0.8041 0.7555 0.7925
2633.088 0.8001 0.795 0.735 0.6942 0.7636 0.8113 0.7778 0.7253 0.7211 0.7156
2652.378 0.7013 0.7386 0.7691 0.6765 0.672 0.6975 0.6625 0.6643 0.6864 0.7031
2671.668 0.7297 0.7383 0.7948 0.8569 0.7368 0.6681 0.7038 0.7177 0.706 0.6791
2690.958 0.668 0.7044 0.7595 0.7814 0.7857 0.812 0.7815 0.7521 0.7933 0.8079
2710.248 0.8742 0.9542 0.9201 0.906 0.9661 0.9897 1.0511 1.107 1.0916 1.1226
2729.538 1.1933 1.2313 1.1341 1.0692 1.116 1.055 1.0482 1.1148 1.1427 1.1671
2748.828 1.1404 1.0754 1.1121 1.1495 1.1469 1.1317 1.1455 1.1823 1.1947 1.2056
2768.118 1.1873 1.2206 1.2814 1.232 1.1556 1.1672 1.2553 1.3363 1.3506 1.2711
2787.408 1.2401 1.3423 1.3544 1.3174 1.3599 1.3711 1.3696 1.4228 1.4381 1.5067
2806.698 1.586 1.666 1.736 1.766 1.786 1.856 1.906 1.936 1.986 1.946
2825.988 1.926 1.976 1.996 1.966 2.056 2.216 2.326 2.426 2.546 2.696
2845.278 2.886 3.226 3.506 3.746 4.046 4.336 4.636 5.046 5.676 6.416
2864.568 7.176 7.996 9.006 10.106 11.346 12.766 14.236 15.526 16.496 17.216
2883.858 17.516 17.446 17.106 16.736 16.426 16.176 16.076 16.066 16.246 16.486
2903.148 16.696 16.886 16.996 17.056 16.996 16.916 16.886 16.816 16.746 16.776
2922.438 16.876 17.156 17.546 18.086 18.886 19.946 21.006 21.916 22.656 23.246
2941.728 23.646 23.746 23.796 23.916 24.296 25.146 26.746 29.466 33.386 39.056
2961.018 46.966 56.666 66.406 73.926 78.796 80.996 78.856 71.376 61.146 51.166
2980.308 41.736 33.056 25.996 20.786 17.036 14.216 11.996 10.356 9.116 8.026
2999.598 7.236 6.666 6.206 5.966 5.856 5.846 5.946 6.176 6.526 7.036
3018.888 7.606 8.066 8.406 8.606 8.476 8.236 7.866 7.286 6.876 6.616
3038.178 6.436 6.266 6.066 6.006 5.956 5.796 5.726 5.696 5.776 5.856
3057.468 5.896 6.086 6.226 6.376 6.506 6.636 6.726 6.826 6.926 7.046
3076.758 7.286 7.456 7.476 7.406 7.286 6.976 6.616 6.136 5.476 4.916
3096.048 4.326 3.656 3.156 2.766 2.496 2.336 2.046 1.846 1.856 1.866
3115.338 1.726 1.546 1.4207 1.3583 1.2514 1.2375 1.4011 1.3308 1.1891 1.2118
3134.628 1.1858 1.1087 1.0509 0.9769 1.0415 1.2024 1.1869 1.1112 1.1665 1.2168
3153.918 1.1539 1.1217 1.1638 1.1204 1.026 1.0295 1.0794 1.0812 1.1361 1.1789
3173.208 1.0889 1.0471 1.1178 1.1656 1.1579 1.1175 1.163 1.2647 1.1957 1.1251
3192.498 1.1463 1.0602 1.054 1.0221 0.9418 0.9938 0.9199 0.9012 0.9327 0.8765
3211.788 0.8663 0.8914 0.8212 0.84 0.9071 0.8408 0.7804 0.6902 0.695 0.7013
3231.078 0.6513 0.59468 0.5236 0.48 0.5203 0.537076 0.413 0.4476 0.4734 0.416
3250.368 0.427 0.5051 0.537161 0.4416 0.415 0.4473 0.378 0.282 0.223 0.343
3269.658 0.349 0.142 0.213 0.367 0.289 0.267 0.388 0.378 0.331 0.295
3288.948 0.259 0.257 0.189 0.143 0.267 0.268 0.297 0.4373 0.4406 0.4412
3308.238 0.421 0.398 0.372 0.302 0.349 0.42 0.395 0.36 0.391 0.4462
3327.528 0.416 0.357 0.32 0.384 0.336 0.208 0.157 0.252 0.429 0.402
3346.818 0.313 0.249 0.245 0.322 0.273 0.235 0.384 0.44 0.368 0.336
3366.108 0.316 0.252 0.169 0.159 0.185 0.129 0.173 0.19 0.107 0.16
3385.398 0.146 0.122 0.186 0.176 0.102 0.119 0.157 0.166 0.294 0.311
3404.688 0.219 0.204 0.271 0.253 0.124 0.203 0.293 0.287 0.215 0.187
3423.978 0.284 0.251 0.176 0.213 0.221 0.092 0 0.158 0.265 0.209
3443.269 0.279 0.194 0.233 0.371 0.237 0.132 0.138 0.094 0.122 0.13
3462.559 0.05 0.148 0.155 0.12 0.246 0.312 0.196 0.177 0.173 0.172
3481.849 0.208 0.194 0.171 0.06 0.132 0.248 0.122 0.154 0.248 0.159
3501.139 0.137 0.145 0.105 0.099 0.077 0.003 0.039 0.051 0.072 0.187
3520.429 0.279 0.295 0.331 0.277 0.207 0.306 0.286 0.226 0.2 0.116
3539.719 0.161 0.155 0.107 0.199 0.219 0.1 0.167 0.226 0.178 0.223
3559.009 0.259 0.256 0.148 0.19 0.1 0.019 0.063 0.104 0.222 0.178
3578.299 0.174 0.258 0.242 0.148 0.163 0.231 0.114 0.031 0.022 0.051
3597.589 0.13 0.1 0.066 0.135 0.152 0.023 0.023 0.108 0.179 0.205
3616.879 0.152 0.131 0.138 0.261 0.21 0.109 0.151 0.212 0.302 0.287
3636.169 0.19 0.232 0.282 0.266 0.276 0.211 0.246 0.278 0.195 0.213
3655.459 0.285 0.342 0.421 0.4403 0.335 0.297 0.352 0.244 0.192 0.269
3674.749 0.239 0.133 0.118 0.182 0.251 0.297 0.197 0.167 0.173 0.166
3694.039 0.19 0.111 0.206 0.368 0.339 0.247 0.248 0.256 0.29 0.38
3713.329 0.258 0.182 0.321 0.421 0.292 0.201 0.2 0.228 0.245 0.249
3732.619 0.219 0.144 0.234 0.154 0.075 0.179 0.196 0.244 0.333 0.288
3751.909 0.25 0.32 0.301 0.22 0.217 0.229 0.28 0.297 0.291 0.197
3771.199 0.09 0.125 0.273 0.261 0.172 0.244 0.236 0.192 0.303 0.366
3790.489 0.297 0.354 0.367 0.296 0.321 0.27 0.146 0.163 0.347 0.484
3809.779 0.39 0.372 0.419 0.391 0.448 0.53213 0.4707 0.399 0.4813 0.52876
3829.069 0.54887 0.5151 0.458 0.4697 0.43 0.4755 0.4851 0.4443 0.43 0.4378
3848.359 0.4583 0.5248 0.5079 0.35 0.267 0.278 0.278 0.238 0.346 0.426
3867.649 0.4502 0.407 0.315 0.219 0.253 0.306 0.315 0.429 0.4519 0.543606
3886.939 0.6651 0.5655 0.407 0.366 0.4622 0.536594 0.405 0.288 0.398 0.5176
3906.229 0.34 0.187 0.173 0.239 0.364 0.363 0.431 0.4933 0.461 0.353
3925.519 0.207 0.293 0.4 0.353 0.293 0.335 0.417 0.296 0.381 0.54732
3944.809 0.429 0.4365 0.431 0.335 0.402 0.4447 0.4867 0.53397 0.57016 0.5134
3964.099 0.398 0.406 0.4568 0.536846 0.433 0.348 0.349 0.4396 0.4602 0.372
3983.389 0.411 0.421 0.540211 0.49 0.53414 0.58179 0.401 0.5026 0.4901 0.416
##END=
