##TITLE=1,2-Dimethyl-1,4-cyclohexadiene
##JCAMP-DX=4.24
##DATA TYPE=INFRARED SPECTRUM
##ORIGIN=NIST Mass Spectrometry Data Center
##OWNER=NIST Standard Reference Data Program
Collection (C) 2018 copyright by the U.S. Secretary of Commerce
on behalf of the United States of America. All rights reserved.
##CAS REGISTRY NO=17351-28-9
##MOLFORM=C 8 H 12
##$NIST SOURCE=MSDC-IR
##SPECTROMETER/DATA SYSTEM=HP-GC/MS/IRD
##STATE=gas
##XUNITS=1/CM
##YUNITS=ABSORBANCE
##XFACTOR=1.0
##YFACTOR=0.000000900
##DELTAX=4.0
##FIRSTX=550.0
##LASTX=3846.0
##FIRSTY=0.000288
##MAXX=3846
##MINX=550
##MAXY=0.009
##MINY=0
##NPOINTS=825
##XYDATA=(X++(Y..Y))
550.0 320 225 62 163 243 116 84 15 18 152
590.0 141 52 178 259 129 54 72 108 120 165
630.0 283 512 757 1158 1740 2202 2248 3638 5397 3782
670.0 2331 2352 1955 1274 680 348 224 188 111 52
710.0 43 0 17 86 75 112 240 340 325 311
750.0 288 241 248 213 182 180 155 107 137 153
790.0 125 157 200 140 95 130 135 127 108 106
830.0 125 125 84 94 127 117 125 140 150 178
870.0 229 291 376 482 554 659 820 954 1006 904
910.0 794 718 581 492 392 322 278 220 181 192
950.0 209 170 145 158 204 207 200 247 301 361
990.0 424 475 564 687 746 762 788 779 765 741
1030.0 642 570 486 370 331 320 273 259 257 198
1070.0 167 199 218 141 75 115 123 147 153 172
1110.0 288 334 419 565 742 840 864 849 721 551
1150.0 419 297 201 189 155 106 164 179 123 116
1190.0 111 117 150 179 156 132 147 159 142 128
1230.0 142 125 110 134 167 175 148 156 179 181
1270.0 205 223 195 207 255 238 195 206 224 226
1310.0 257 296 346 413 423 428 467 483 480 433
1350.0 424 439 427 482 572 679 755 831 941 999
1390.0 997 967 893 769 662 603 569 636 778 900
1430.0 951 981 1065 1119 1098 1033 951 860 803 752
1470.0 661 558 488 461 449 427 393 394 402 370
1510.0 364 387 413 438 437 414 424 442 439 449
1550.0 439 408 398 385 366 370 355 296 291 280
1590.0 223 239 244 215 232 295 361 390 413 432
1630.0 435 446 465 488 478 451 433 435 428 393
1670.0 352 306 275 262 263 278 271 265 258 246
1710.0 208 135 80 83 97 67 41 31 33 58
1750.0 63 41 28 37 53 45 42 56 77 68
1790.0 60 61 80 112 107 108 130 169 163 149
1830.0 140 123 129 121 102 105 103 99 84 74
1870.0 78 79 66 61 80 72 63 53 39 60
1910.0 67 52 51 60 63 52 75 87 77 87
1950.0 78 53 33 30 39 37 38 40 54 70
1990.0 58 49 50 41 44 60 48 35 37 51
2030.0 51 38 41 44 48 34 21 13 24 46
2070.0 55 46 22 4 5 13 23 28 40 45
2110.0 27 48 50 35 24 24 36 42 50 42
2150.0 27 14 40 67 41 17 26 43 46 23
2190.0 25 40 42 40 32 26 12 4 0 11
2230.0 12 23 33 32 38 32 22 21 34 60
2270.0 61 28 17 3 20 64 38 14 43 42
2310.0 39 32 38 71 73 63 83 73 59 85
2350.0 86 84 96 93 94 74 41 29 29 53
2390.0 64 57 58 60 65 70 54 49 35 33
2430.0 54 52 55 44 54 78 75 66 58 65
2470.0 62 52 65 74 80 80 76 76 66 64
2510.0 56 36 50 48 36 48 62 54 65 90
2550.0 99 104 88 87 98 69 55 62 59 59
2590.0 56 43 50 86 74 68 68 55 68 78
2630.0 82 82 85 101 128 151 161 187 219 242
2670.0 293 343 368 391 435 464 445 385 374 388
2710.0 389 412 430 447 501 561 592 614 609 598
2750.0 617 602 577 575 587 616 646 734 848 951
2790.0 1069 1205 1395 1719 2246 3027 4104 5346 6362 6819
2830.0 7090 7468 7553 7301 6983 7545 8807 9011 8812 9018
2870.0 9449 9911 10000 9452 8748 8298 7597 6584 5703 5279
2910.0 5297 5577 5896 6053 6054 5967 5621 4956 4189 3512
2950.0 2983 2569 2338 2265 2233 2282 2385 2549 2794 3041
2990.0 3290 3438 3455 3447 3469 3500 3658 4091 4869 5849
3030.0 6563 6830 6776 6350 5659 4531 3106 1999 1354 1073
3070.0 886 742 724 680 604 550 494 426 423 435
3110.0 404 358 335 318 311 293 261 210 209 261
3150.0 230 165 148 150 126 106 136 150 110 48
3190.0 53 101 102 123 138 134 102 65 81 113
3230.0 136 149 199 220 149 128 139 152 149 118
3270.0 82 85 129 103 64 64 90 91 114 115
3310.0 115 139 86 63 108 157 192 176 90 65
3350.0 102 141 126 111 135 105 77 59 103 122
3390.0 49 53 115 134 128 113 103 103 113 143
3430.0 132 80 96 119 78 93 82 67 58 70
3470.0 103 74 73 94 113 74 32 82 137 127
3510.0 122 124 78 115 163 113 85 70 67 111
3550.0 131 104 73 67 66 79 86 106 129 154
3590.0 166 170 171 176 135 20 22 80 89 111
3630.0 172 151 55 73 112 100 86 58 54 129
3670.0 144 133 113 91 96 114 120 85 110 117
3710.0 76 93 102 75 111 138 133 123 88 141
3750.0 145 110 166 113 86 132 83 102 168 178
3790.0 179 162 143 119 83 107 145 116 112 139
3830.0 97 85 113 118 90
##END=
