##TITLE=5-Bromoindoxyl-3-acetate
##JCAMP-DX=4.24
##DATA TYPE=INFRARED SPECTRUM
##ORIGIN=EPA-IR VAPOR PHASE LIBRARY
##OWNER=SRD/NIST
Collection (C) 2018 copyright by the U.S. Secretary of Commerce
on behalf of the United States of America. All rights reserved.
##CAS REGISTRY NO=17357-14-1
##MOLFORM=C 10 H 8 Br N O 2
##$NIST SOURCE=MSDC-IR
##STATE=gas
##XUNITS=1/CM
##YUNITS=ABSORBANCE
##XFACTOR=1.
##YFACTOR=0.001
##DELTAX=1.92898
##FIRSTX=549.8
##LASTX=4000.7
##FIRSTY=9.237
##MAXX=4000.7
##MINX=549.759
##MAXY=0.176647
##MINY=0
##NPOINTS=1790
##XYDATA=(X++(Y..Y))
549.759 9.237 7.467 5.457 4.437 4.567 4.977 5.767 6.077 6.167 7.557
569.049 8.897 8.837 8.057 6.757 6.307 6.227 5.537 5.017 5.167 5.767
588.339 6.647 7.907 9.567 11.047 12.257 12.767 12.627 11.847 10.667 9.577
607.628 7.467 6.307 5.557 4.617 4.117 4.067 3.627 3.177 3.037 3.407
626.918 3.677 2.587 2.427 3.207 3.277 3.197 3.327 3.237 3.197 3.157
646.208 3.017 2.667 2.407 2.887 3.237 3.157 3.727 4.247 4.517 5.197
665.498 5.827 6.447 7.057 8.367 10.127 11.007 11.107 11.227 11.107 9.867
684.787 8.387 7.277 6.427 5.927 5.207 4.157 3.837 3.567 3.007 2.757
704.077 2.947 3.027 2.867 2.967 3.397 3.957 3.877 3.237 3.337 3.567
723.367 3.507 3.367 3.607 3.777 3.957 4.657 4.677 5.147 5.807 6.547
742.657 7.217 7.017 6.987 7.707 8.297 8.587 8.607 8.787 9.317 9.407
761.947 9.487 10.037 10.447 10.787 12.037 13.417 14.517 16.147 18.157 20.157
781.236 22.327 24.657 26.257 26.737 25.847 23.867 21.737 18.857 16.107 14.297
800.526 12.607 11.617 11.247 10.757 9.997 9.447 9.467 8.987 8.367 8.497
819.816 8.307 7.607 6.887 6.127 5.607 5.457 5.477 5.537 4.947 4.947
839.106 5.147 4.857 4.857 5.047 5.937 6.217 6.297 6.877 7.217 7.707
858.395 8.837 9.647 9.967 10.597 11.407 11.547 10.837 10.807 11.877 13.797
877.685 15.627 18.357 21.817 25.277 29.007 31.437 32.517 31.817 29.387 25.967
896.975 21.957 18.087 14.197 11.487 10.047 8.427 7.167 5.997 5.037 4.487
916.265 4.227 4.067 3.367 3.067 3.187 2.967 2.787 2.837 2.987 2.777
935.555 2.367 2.177 1.747 1.907 2.407 2.317 2.157 2.017 1.632 1.737
954.844 1.917 1.667 2.027 2.347 2.217 2.237 2.447 2.717 2.797 2.987
974.134 3.207 3.867 4.477 4.087 4.037 4.337 4.297 4.547 5.027 5.547
993.424 6.177 6.557 7.517 9.277 9.807 9.877 10.657 10.807 10.377 9.797
1012.714 9.057 8.207 6.877 5.837 4.727 3.977 4.247 4.257 4.667 4.867
1032.003 5.017 5.187 5.627 6.407 7.137 8.557 9.887 10.817 11.387 10.477
1051.293 9.577 9.347 7.657 5.737 5.557 6.357 7.017 7.637 8.657 9.457
1070.583 10.717 13.327 14.847 16.507 18.637 21.177 24.327 26.377 29.077 30.947
1089.873 30.537 30.537 30.247 28.767 27.167 23.817 20.507 18.527 15.567 11.797
1109.163 8.287 6.507 5.347 6.177 7.777 6.957 6.117 6.957 8.147 8.907
1128.452 8.837 8.207 8.687 9.617 10.767 11.527 11.807 11.687 11.147 11.297
1147.742 11.687 11.337 10.187 10.737 12.477 12.687 12.717 13.497 14.437 14.857
1167.032 15.047 16.437 18.147 19.197 20.797 23.557 27.387 31.037 34.627 40.597
1186.322 47.167 54.677 64.497 75.857 89.327 104.897 122.547 137.967 150.167 160.077
1205.611 168.987 175.107 176.647 172.687 163.147 153.147 140.307 123.547 105.157 90.457
1224.901 78.727 68.377 61.727 56.307 51.187 47.027 41.767 36.197 32.117 29.257
1244.191 26.587 23.427 20.597 17.887 16.117 15.407 15.617 17.487 19.747 23.947
1263.481 28.877 33.147 37.657 40.087 40.267 38.027 33.797 28.857 24.017 19.257
1282.771 15.127 12.617 11.017 10.037 8.887 8.297 9.067 9.817 10.457 11.617
1302.060 12.477 13.057 13.357 12.857 11.937 10.667 9.327 8.287 7.527 7.257
1321.350 7.497 7.877 8.207 8.407 8.577 8.597 8.217 7.827 7.477 7.117
1340.640 6.947 6.807 6.727 6.797 6.737 6.747 6.907 7.147 7.717 8.527
1359.930 9.827 11.507 13.487 16.107 18.807 21.047 22.767 23.657 23.377 21.827
1379.219 19.547 17.077 14.397 12.157 10.567 9.437 8.557 7.787 7.227 6.587
1398.509 5.957 5.507 5.157 5.017 4.897 4.847 4.787 4.777 4.817 4.907
1417.799 5.247 5.667 6.087 6.507 7.307 8.477 9.697 10.667 11.527 12.247
1437.089 12.897 13.407 14.107 15.367 17.147 19.787 23.337 27.847 33.287 38.767
1456.378 43.307 45.867 45.597 42.417 36.877 29.777 22.637 17.097 13.777 11.777
1475.668 10.547 9.647 8.897 8.207 7.617 7.237 6.907 6.497 6.117 5.687
1494.958 5.387 4.987 4.727 4.597 4.417 4.227 4.107 4.237 4.117 3.877
1514.248 3.887 4.287 4.567 4.737 5.007 5.037 5.137 5.327 5.657 6.037
1533.538 6.517 7.367 7.967 8.847 10.197 11.457 12.737 13.917 14.807 15.457
1552.827 15.787 15.677 15.017 14.097 13.297 12.717 12.347 12.307 12.457 12.537
1572.117 12.557 12.757 12.627 12.267 11.657 10.377 9.347 8.647 7.947 7.297
1591.407 6.887 6.507 5.957 5.677 5.497 5.137 4.837 4.637 4.727 4.527
1610.697 4.407 4.397 4.107 3.787 3.607 3.967 4.127 3.707 3.557 3.627
1629.986 3.687 3.497 3.297 3.297 3.127 3.017 2.777 2.747 2.867 2.737
1649.276 2.747 2.807 2.627 2.417 2.337 2.277 2.437 2.467 2.527 2.527
1668.566 2.297 2.347 2.427 2.517 2.517 2.617 2.837 2.897 2.797 2.757
1687.856 2.897 2.987 3.057 3.257 3.487 3.347 3.367 3.707 3.937 3.967
1707.146 4.127 4.277 4.527 5.017 5.287 5.557 5.957 6.077 6.137 6.507
1726.435 6.737 6.857 7.077 7.417 7.887 8.067 8.407 8.967 9.647 10.547
1745.725 11.417 12.307 13.487 14.987 16.587 18.557 21.037 23.467 25.897 28.437
1765.015 30.517 32.207 33.477 34.447 35.367 36.047 37.067 38.707 40.957 43.427
1784.305 45.437 47.057 47.677 46.977 45.457 43.087 40.147 37.277 34.717 32.187
1803.594 29.827 27.467 24.997 22.377 19.747 17.337 15.167 13.327 11.797 10.297
1822.884 8.957 7.827 7.027 6.477 6.037 5.577 5.237 5.037 4.867 4.737
1842.174 4.377 4.367 4.567 4.327 3.997 3.827 3.667 3.307 3.097 2.887
1861.464 2.607 2.557 2.477 2.427 2.337 2.157 2.127 2.347 2.247 2.117
1880.754 2.177 2.217 2.277 2.117 1.877 1.827 2.027 2.017 2.027 2.127
1900.043 2.117 2.057 1.787 1.797 1.987 1.847 1.847 1.877 1.777 1.827
1919.333 1.907 1.787 1.797 1.877 1.887 1.867 1.827 1.907 1.927 1.947
1938.623 1.957 1.937 1.917 1.887 1.837 1.677 1.757 2.087 2.027 2.017
1957.913 1.987 1.817 1.857 1.907 1.897 1.877 1.767 1.667 1.677 1.727
1977.202 1.657 1.5134 1.5415 1.757 1.727 1.6377 1.657 1.5504 1.521 1.5671
1996.492 1.502 1.58 1.677 1.5249 1.5003 1.687 1.767 1.6381 1.6249 1.657
2015.782 1.667 1.6074 1.4703 1.4485 1.5929 1.6073 1.667 1.6178 1.5067 1.6113
2035.072 1.5058 1.5006 1.677 1.6321 1.667 1.777 1.847 1.767 1.5957 1.5283
2054.362 1.6446 1.827 1.697 1.5521 1.6074 1.797 1.937 1.897 1.917 1.987
2073.651 1.937 1.867 2.237 2.517 2.267 2.047 1.987 2.097 2.197 2.177
2092.941 2.207 2.237 2.057 1.977 2.067 2.137 1.947 1.727 1.787 1.907
2112.231 1.837 1.837 1.977 1.927 1.787 1.747 1.657 1.4195 1.4777 1.6356
2131.521 1.4903 1.4217 1.6108 1.687 1.6118 1.5206 1.4678 1.4719 1.5262 1.4823
2150.810 1.2502 1.2341 1.3467 1.4986 1.6191 1.4159 1.3337 1.3195 1.0569 1.1148
2170.100 1.3381 1.356 1.4179 1.381 1.3209 1.4781 1.4896 1.4699 1.5522 1.4921
2189.390 1.3792 1.4976 1.486 1.283 1.1995 1.177 1.2262 1.0687 1.0551 1.1367
2208.680 1.2636 1.4527 1.4007 1.3023 1.4469 1.2336 0.8326 0.9698 1.1291 1.1671
2227.970 1.2209 1.2033 1.0749 1.1437 1.3239 1.1995 1.1691 1.2076 1.05 1.1184
2247.259 1.3583 1.5133 1.4607 1.3883 1.32 1.2931 1.4662 1.3804 1.319 1.5102
2266.549 1.3754 1.1686 1.1698 1.0905 1.0647 1.193 1.4149 1.5086 1.6198 1.6535
2285.839 1.4897 1.4369 1.4283 1.408 1.2094 1.2793 1.5643 1.3603 1.198 1.3233
2305.129 1.3884 1.2797 1.1942 1.2127 1.1417 1.1556 1.2003 1.1851 1.5034 1.717
2324.418 1.4059 1.354 1.3362 1.2695 1.5034 1.5403 1.4098 1.4813 1.3891 1.3191
2343.708 1.365 1.3514 1.3521 1.4409 1.5972 1.6111 1.5318 1.5207 1.4983 1.4348
2362.998 1.4176 1.4227 1.4545 1.4154 1.4413 1.4326 1.3976 1.5451 1.5923 1.4193
2382.288 1.4167 1.4419 1.2783 1.1348 1.3182 1.4691 1.3882 1.3543 1.4041 1.5023
2401.578 1.2627 1.1556 1.3563 1.3128 1.0772 1.2282 1.5199 1.3396 1.205 1.1891
2420.867 1.1098 1.1833 1.4036 1.6268 1.6474 1.5206 1.3184 1.1871 1.2776 1.3707
2440.157 1.5805 1.5229 1.2526 1.2793 1.5029 1.5002 1.374 1.4875 1.4533 1.4988
2459.447 1.55 1.5398 1.4777 1.4292 1.4689 1.419 1.4174 1.2895 1.2395 1.4386
2478.737 1.6253 1.5377 1.5088 1.4494 1.5907 1.5747 1.56 1.917 2.087 1.977
2498.026 1.717 1.777 1.797 1.847 2.007 2.007 1.917 1.897 1.817 1.547
2517.316 1.3556 1.4773 1.4123 1.1184 1.0554 1.1572 1.0651 1.0677 1.1326 1.0998
2536.606 1.1864 1.2636 1.3712 1.4245 1.423 1.4339 1.3939 1.2855 1.2881 1.4083
2555.896 1.4847 1.3557 1.2679 1.2924 1.3526 1.4527 1.2712 1.0906 1.1164 1.2422
2575.186 1.3886 1.4637 1.5048 1.517 1.3095 1.2261 1.2111 1.1535 1.2661 1.4511
2594.475 1.4806 1.3889 1.3315 1.2319 1.4147 1.4176 1.2156 1.2359 1.1194 1.2846
2613.765 1.2602 1.311 1.6141 1.5646 1.385 1.1582 1.0866 1.1343 1.49 1.5755
2633.055 1.5312 1.6057 1.5985 1.5247 1.414 1.5406 1.707 1.727 1.6491 1.4813
2652.345 1.4342 1.5214 1.5359 1.374 1.3861 1.5806 1.5895 1.5427 1.4347 1.2629
2671.634 1.3317 1.3833 1.2447 1.5442 1.5947 1.2043 1.2157 1.3179 1.2708 1.6376
2690.924 1.787 1.5563 1.667 1.5141 1.3222 1.3853 1.6464 1.697 1.5781 1.677
2710.214 1.807 1.827 1.602 1.697 1.897 1.4896 0.9622 0.7645 0.86 1.086
2729.504 1.0386 1.0688 1.0633 0.8659 1.0903 1.287 1.0096 1.0854 1.3245 1.358
2748.794 1.4169 1.4902 1.527 1.4516 1.4562 1.0541 0.8827 0.9344 1.0281 1.2476
2768.083 1.4172 1.6282 1.4577 1.3373 1.2428 1.048 1.2018 1.3422 1.1699 0.9427
2787.373 0.8439 0.9952 1.082 1.1365 1.3365 1.4555 1.3408 1.4484 1.5885 1.4222
2806.663 0.9426 0.8531 0.9489 1.1851 1.4496 1.1958 1.0576 1.0709 0.9065 0.9569
2825.953 1.4691 1.5641 1.5294 1.5878 1.4605 1.4196 1.5268 1.707 1.6533 1.6247
2845.242 1.707 1.6017 1.4522 1.126 1.2268 1.787 1.947 1.707 1.2885 1.125
2864.532 1.667 1.847 1.4762 1.2564 1.3664 1.2813 1.1524 1.5043 1.477 1.42
2883.822 1.707 1.747 1.697 1.6406 1.707 1.5612 1.4479 1.657 1.4989 1.2604
2903.112 1.1149 1.2759 1.727 1.6205 1.667 1.6317 1.777 1.6402 1.1875 1.2876
2922.401 1.3908 1.1803 1.1418 1.4719 1.4841 1.2916 1.1066 1.4722 1.737 1.797
2941.691 1.677 1.6284 1.6293 1.937 2.347 2.547 2.647 2.227 1.717 1.6233
2960.981 1.667 1.5549 1.5688 1.747 1.4703 1.1594 1.4666 1.667 1.707 1.827
2980.271 2.027 1.747 1.737 1.857 1.817 2.047 1.3143 1.3411 1.957 1.737
2999.561 1.757 2.107 2.127 1.717 1.827 1.987 1.787 1.927 2.077 2.037
3018.850 2.417 2.727 2.807 3.077 3.327 3.217 2.987 2.967 3.087 3.277
3038.140 3.317 3.387 3.207 2.717 2.497 2.577 3.047 3.177 2.937 2.967
3057.430 2.817 2.847 2.977 2.847 2.967 2.857 2.557 2.887 3.437 3.537
3076.720 3.327 3.267 3.437 3.337 3.097 3.177 3.237 3.497 3.547 3.057
3096.009 2.537 2.327 2.527 2.297 2.057 1.707 1.777 1.887 1.5783 1.817
3115.299 1.6397 1.6125 2.147 2.027 1.767 1.687 1.4776 1.6198 1.837 1.967
3134.589 1.837 1.757 1.5064 1.0918 1.3359 1.4267 1.2857 1.5455 1.877 2.107
3153.879 2.017 1.807 1.897 2.207 2.367 2.067 2.127 2.097 1.727 2.147
3173.169 2.417 2.427 2.727 2.237 1.549 1.777 1.837 1.3896 1.5517 1.957
3192.458 2.077 1.827 1.717 1.3866 0.91 1.1123 1.1396 1.3297 1.667 1.707
3211.748 1.4093 1.1047 1.1387 1.2244 1.1119 1.2851 1.357 1.2659 1.1265 0.8977
3231.038 1.1412 1.1346 1.1119 1.1619 1.1467 1.3046 1.1753 1.1933 1.264 1.4672
3250.328 1.4124 1.3174 1.2358 1.0345 1.0109 0.5796 0.7861 1.2102 1.0651 1.0201
3269.617 1.282 1.0812 0.5874 0.9764 1.3325 1.4938 1.4201 1.0452 1.6017 1.827
3288.907 1.1931 0.607 0.497 0.989 1.1129 1.0928 1.0293 1.3032 1.4611 1.2668
3308.197 1.571 1.757 1.767 1.3871 0.8736 0.9457 0.9593 0.877 1.06 0.936
3327.487 1.0357 1.1791 1.6445 1.907 1.5019 1.5604 1.3423 0.5742 0.6055 1.2204
3346.777 1.2008 0.9837 0.8965 0.9528 1.0441 0.9098 1.1057 1.1319 1.218 1.3252
3366.066 1.0754 0.9089 0.6031 0.6128 0.8526 1.0748 1.0741 1.0479 0.74268 0.512
3385.356 0.7887 0.7866 0.9138 1.1039 1.3568 1.4655 1.0842 1.0856 1.4241 1.5122
3404.646 1.414 1.5283 1.5264 1.0973 0.8356 0.8481 0.9734 1.0755 1.2608 1.3553
3423.936 1.4857 1.707 1.232 1.2297 1.687 1.4527 1.1209 1.179 1.5242 1.817
3443.225 1.947 1.837 1.3542 1.385 1.917 2.487 2.617 2.217 2.367 2.697
3462.515 3.047 3.287 3.417 3.477 3.577 3.837 4.227 5.047 5.277 5.117
3481.805 5.527 6.187 6.767 7.667 9.077 9.847 10.297 11.467 12.477 13.747
3501.095 15.207 16.517 17.977 18.987 20.037 21.217 22.127 23.027 22.767 21.677
3520.385 19.927 17.357 14.677 11.517 9.017 7.077 5.357 4.007 3.087 3.087
3539.674 3.407 3.457 3.037 2.657 2.537 2.857 2.917 2.467 2.517 2.467
3558.964 2.487 2.247 1.947 2.177 2.327 2.147 1.5591 1.5137 1.957 1.877
3578.254 1.737 1.927 1.897 2.057 2.557 2.227 1.5724 1.3196 1.6043 2.007
3597.544 1.4491 1.1094 1.4558 1.5967 1.6448 1.4662 1.3501 1.4813 1.2578 1.1277
3616.833 1.352 1.3988 0.8385 1.0381 1.536 1.0789 0.6557 1.0043 1.1852 0.635
3636.123 0.8741 1.3817 1.188 1.3292 1.1793 1.0913 1.3108 0.869 0.68876 0.9262
3655.413 1.078 0.8513 0.71744 0.968 1.1467 1.0561 1.1823 1.3594 1.0818 0.9146
3674.703 0.8139 1.0795 1.6036 1.2079 0.8233 0.9958 0.8284 0.8199 1.1578 1.3473
3693.993 1.0999 0.9414 1.206 1.5954 1.757 1.2891 1.1693 1.2402 0.9124 0.981
3713.282 1.2618 1.058 1.1094 1.314 1.2328 1.4544 1.3889 0.8432 0.9603 1.5603
3732.572 1.687 1.4438 1.091 1.1571 1.4029 0.71211 0.399 1.1009 1.0779 0.982
3751.862 1.2219 1.1731 1.3675 1.614 1.5219 1.727 1.767 0.9305 0.72213 1.1243
3771.152 1.2342 0.9129 0.524 0.9646 1.1549 0.9048 0.9085 1.0975 1.2579 1.0825
3790.441 0.944 0.7681 0.7733 0.67764 0.468 0.8409 1.4038 1.4009 1.0629 1.267
3809.731 1.4264 1.3126 1.124 0.9938 1.0183 1.0684 1.2918 1.3054 1.0313 0.8373
3829.021 1.3457 1.6169 1.2424 1.4968 1.5856 1.3599 1.737 1.807 1.651 1.927
3848.311 1.887 1.3674 1.4003 1.5656 1.2012 1.0465 1.1833 0.8997 0.64861 1.0075
3867.601 1.1826 1.1545 1.2585 1.3687 1.0341 0.535 0.71702 1.3211 1.4671 1.6163
3886.890 1.577 0.8952 0.098 0 1.2134 1.6495 0.8745 0.533 0.7041 0.65484
3906.180 0.72319 1.0554 1.3349 1.2064 0.8006 0.8726 1.2112 1.5371 1.403 1.385
3925.470 1.667 1.4391 1.1161 1.3921 1.3386 0.9307 0.8864 1.2271 1.3993 1.1806
3944.760 0.8241 1.0676 1.1562 0.8733 1.2202 1.2594 1.1232 1.3913 1.4557 1.069
3964.049 0.768 1.174 1.3252 0.8102 0.9655 1.2562 1.2935 1.667 1.727 1.3073
3983.339 1.2329 1.635 2.157 2.117 1.6564 1.2651 0.8268 0.6045 0.73549 0.75199
##END=
