##TITLE=3-(4-Hydroxyphenyl)propionitrile
##JCAMP-DX=4.24
##DATA TYPE=INFRARED SPECTRUM
##ORIGIN=EPA-IR VAPOR PHASE LIBRARY
##OWNER=SRD/NIST
Collection (C) 2018 copyright by the U.S. Secretary of Commerce
on behalf of the United States of America. All rights reserved.
##CAS REGISTRY NO=17362-17-3
##MOLFORM=C 9 H 9 N O
##$NIST SOURCE=MSDC-IR
##STATE=gas
##XUNITS=1/CM
##YUNITS=ABSORBANCE
##XFACTOR=1.
##YFACTOR=0.001
##DELTAX=1.92898
##FIRSTX=549.8
##LASTX=4000.7
##FIRSTY=4.3632
##MAXX=4000.7
##MINX=549.759
##MAXY=0.0678632
##MINY=0
##NPOINTS=1790
##XYDATA=(X++(Y..Y))
549.759 4.3632 3.9932 3.6732 3.6232 3.5732 3.4532 3.3932 3.5032 3.7432 4.0232
569.049 4.2932 4.5832 4.6632 4.4432 4.2832 4.0932 3.8732 3.7532 3.3732 3.0032
588.339 2.6532 2.2432 1.8832 1.6832 1.5232 1.4732 1.2932 1.0832 1.0312 0.8799
607.628 0.7486 0.7397 0.7931 0.6971 0.6252 0.6718 0.6158 0.5555 0.6201 0.4939
626.918 0.4564 0.4702 0.4191 0.4931 0.6356 0.8396 0.9281 0.9333 0.847 0.6996
646.208 0.6787 0.7331 0.7326 0.6768 0.6259 0.6182 0.6018 0.6167 0.5541 0.5967
665.498 0.8101 0.7495 0.587 0.7377 0.812 0.7468 0.8053 0.8811 0.8579 0.8643
684.787 0.9203 0.9152 1.0132 1.1732 1.3132 1.3932 1.5132 1.7532 1.8932 2.0432
704.077 2.1832 2.2332 2.3932 2.5732 2.7332 2.8132 2.8532 2.9232 2.8032 2.6932
723.367 2.6832 2.5632 2.3932 2.2732 2.1432 1.8832 1.6832 1.5132 1.3732 1.3432
742.657 1.3432 1.3632 1.4532 1.5532 1.4732 1.4132 1.3932 1.5532 1.8032 1.8732
761.947 2.2032 2.6432 2.8632 3.1332 3.3932 3.4832 3.5732 3.6432 3.6232 3.6232
781.236 3.7832 4.0032 4.1832 4.6732 5.3032 5.9332 6.6432 7.3332 8.2032 9.0632
800.526 9.8932 10.7132 11.4232 12.0532 12.5832 13.1332 13.5832 13.9032 14.3132 14.8132
819.816 15.2132 15.4532 15.7532 16.1032 16.0132 15.7232 15.3732 14.8032 14.0832 13.3032
839.106 12.5032 11.5432 10.4232 9.2032 8.0932 7.0632 6.0932 5.1132 4.2032 3.4832
858.395 2.9332 2.5132 2.2632 2.1232 1.9132 1.6132 1.5332 1.6332 1.5632 1.4332
877.685 1.3632 1.2632 1.2432 1.2132 1.1232 1.2132 1.2632 1.1932 1.1332 1.0832
896.975 1.019 1.0041 0.9406 0.9759 1.0582 1.0932 1.1432 1.1332 1.1732 1.1932
916.265 1.1932 1.2632 1.2832 1.3132 1.2932 1.1932 1.2432 1.2932 1.2332 1.1532
935.555 1.1132 1.1132 1.0832 1.0832 1.0646 1.0141 1.0832 1.1432 1.0276 0.9202
954.844 0.9581 0.9999 0.8417 0.7649 0.8578 0.8921 0.8862 0.9133 0.9711 0.9366
974.134 0.9626 1.0559 1.1532 1.1332 1.1232 1.1832 1.1132 1.0467 1.1432 1.2332
993.424 1.1232 1.1332 1.1632 1.0932 1.1532 1.3132 1.4732 1.4732 1.5832 1.8332
1012.714 1.8132 1.9232 2.0332 1.8732 1.7932 1.6032 1.4232 1.4532 1.3732 1.1932
1032.003 1.1332 1.1232 0.9817 0.9673 0.8861 0.8112 0.7582 0.8251 0.8964 0.9596
1051.293 1.1932 1.2232 1.1732 1.1432 1.2132 1.1932 1.2532 1.4232 1.5132 1.6832
1070.583 1.8132 1.7932 1.7932 2.1032 2.5232 2.7032 2.8132 3.2032 3.8432 4.4532
1089.873 4.9432 5.6332 6.5932 7.1332 7.2932 7.3432 7.5532 7.9632 8.0332 7.4932
1109.163 6.9832 6.6932 6.2432 5.9132 5.6132 5.4232 5.5432 5.7332 5.8032 6.1232
1128.452 6.4332 6.4032 6.4432 6.5532 6.3932 6.3632 6.3832 6.3732 6.6232 7.0732
1147.742 8.1132 9.6232 11.5132 14.1932 18.0332 22.6332 27.6632 33.7032 40.1232 46.5632
1167.032 53.1532 58.8332 63.1032 66.1232 67.8632 67.7632 65.7732 62.0232 57.0232 51.6532
1186.322 46.5232 41.5932 36.6532 32.1232 28.0032 24.5432 21.6832 19.1832 17.1132 15.3132
1205.611 13.6832 12.2232 11.2532 10.7632 9.9832 9.3632 9.0432 8.9132 8.6832 8.4732
1224.901 8.7332 8.7132 8.7132 9.0332 9.0832 9.1432 9.5232 10.1032 11.0232 12.6032
1244.191 14.9232 18.1532 22.7232 28.3932 34.3832 40.0332 44.2332 46.4932 47.0032 45.7932
1263.481 42.8832 38.0132 31.4732 24.0132 16.9832 11.8432 8.7132 6.8032 5.6332 4.9432
1282.771 4.5432 4.2532 3.9832 3.8032 3.7832 3.8132 3.7932 3.7932 3.8432 3.8532
1302.060 3.8532 3.9032 4.0132 4.1532 4.3732 4.6632 5.0232 5.4432 5.9532 6.5832
1321.350 7.3232 8.2532 9.3932 10.6432 11.9032 13.0132 13.7532 14.0432 13.8532 13.3332
1340.640 12.5332 11.3132 9.8132 8.2932 6.9132 5.7132 4.7732 4.1032 3.5232 3.0532
1359.930 2.7032 2.4132 2.1932 1.9932 1.8132 1.6832 1.5832 1.5332 1.5032 1.4832
1379.219 1.4232 1.3732 1.3332 1.3032 1.3132 1.3032 1.2932 1.3032 1.3332 1.3932
1398.509 1.4932 1.5532 1.6232 1.7532 1.9232 2.0932 2.3232 2.6232 2.9832 3.4032
1417.799 3.9232 4.6332 5.4832 6.5032 7.7132 9.0032 10.2532 11.3632 12.1132 12.4532
1437.089 12.4532 12.1332 11.4532 10.4432 9.3532 8.3032 7.3632 6.6232 6.0132 5.5232
1456.378 5.1432 4.7432 4.3632 4.0332 3.7332 3.4432 3.1832 2.9832 2.8632 2.7532
1475.668 2.6732 2.6432 2.6832 2.7632 2.9332 3.2432 3.6332 4.0932 4.8232 5.8932
1494.958 7.3032 9.2432 11.9632 15.7432 20.8932 27.5132 35.5432 44.0032 51.1832 55.7932
1514.248 57.3632 56.5432 54.0732 49.7532 42.8432 34.0232 24.9032 17.5832 12.6932 9.6332
1533.538 7.6532 6.2632 5.2532 4.4832 3.8732 3.4032 3.0132 2.7132 2.5632 2.4132
1552.827 2.2732 2.1432 2.0832 2.0932 2.0032 1.9732 2.0632 2.1632 2.3032 2.4232
1572.117 2.5632 2.8832 3.2632 3.6332 4.2232 4.9632 5.7832 6.7632 7.8832 9.0432
1591.407 10.1532 11.1532 11.9332 12.5832 13.0932 13.4632 13.6332 13.6532 13.7232 13.9632
1610.697 14.3432 14.6332 14.7332 14.5632 14.0132 13.1932 12.1832 10.9432 9.5832 8.1832
1629.986 6.7932 5.6732 4.8532 4.2132 3.7232 3.3432 3.0032 2.7832 2.5732 2.3032
1649.276 2.0932 1.9032 1.7032 1.5832 1.4132 1.2532 1.2132 1.1632 1.0238 0.9613
1668.566 0.959 0.929 0.8191 0.7434 0.7338 0.7082 0.7294 0.7191 0.6817 0.6373
1687.856 0.5838 0.5997 0.6312 0.6003 0.5518 0.5511 0.5884 0.623 0.6721 0.6983
1707.146 0.6802 0.6578 0.6578 0.6957 0.7187 0.7248 0.7889 0.8252 0.8351 0.8287
1726.435 0.8109 0.8116 0.8247 0.8819 0.9037 0.933 0.9643 1.0045 1.0611 1.0475
1745.725 1.0484 1.0649 1.0832 1.1032 1.0563 0.9981 0.94 0.8589 0.8113 0.8013
1765.015 0.7616 0.702 0.6513 0.6436 0.6034 0.5185 0.4494 0.4207 0.4121 0.3822
1784.305 0.3848 0.3726 0.3511 0.34 0.3041 0.275 0.285 0.304 0.3132 0.3052
1803.594 0.297 0.2958 0.2999 0.3399 0.3342 0.3139 0.3596 0.3765 0.3724 0.4353
1822.884 0.4392 0.3948 0.4232 0.4601 0.506 0.5908 0.6616 0.6763 0.6545 0.6724
1842.174 0.7697 0.8432 0.8774 0.9273 0.9701 1.0439 1.1232 1.2032 1.2632 1.2732
1861.464 1.3332 1.4232 1.4332 1.3932 1.3732 1.3932 1.3732 1.3532 1.3332 1.2932
1880.754 1.2632 1.2232 1.1632 1.0932 1.0457 1.0108 0.9642 0.8804 0.7867 0.7129
1900.043 0.6624 0.665 0.6525 0.592 0.5497 0.4836 0.4472 0.4043 0.3831 0.4082
1919.333 0.355 0.3075 0.3278 0.326 0.3367 0.3653 0.3623 0.355 0.3421 0.3525
1938.623 0.3714 0.3957 0.4093 0.3888 0.385 0.3646 0.3695 0.3787 0.3703 0.3888
1957.913 0.4093 0.4303 0.4475 0.4475 0.4443 0.4368 0.4175 0.4241 0.4883 0.5277
1977.202 0.4912 0.4753 0.474 0.471 0.4374 0.4221 0.4404 0.4126 0.4055 0.4548
1996.492 0.4679 0.4888 0.503 0.4744 0.4683 0.4901 0.5519 0.5853 0.5393 0.5332
2015.782 0.5972 0.6362 0.635 0.6447 0.6268 0.6169 0.6303 0.6051 0.5779 0.5551
2035.072 0.5137 0.4691 0.437 0.4257 0.4096 0.3955 0.3758 0.2948 0.2588 0.2849
2054.362 0.3341 0.3435 0.3551 0.3741 0.3485 0.3685 0.3908 0.366 0.4054 0.4372
2073.651 0.4332 0.4635 0.4743 0.4998 0.5209 0.5214 0.548 0.5584 0.5363 0.5073
2092.941 0.53 0.5724 0.5706 0.5605 0.5528 0.5479 0.5327 0.4955 0.4351 0.3767
2112.231 0.3371 0.3154 0.3189 0.3136 0.2614 0.2548 0.2503 0.2173 0.2166 0.2206
2131.521 0.2057 0.2021 0.2165 0.2199 0.234 0.221 0.1911 0.17006 0.174 0.2038
2150.810 0.2003 0.1744 0.17079 0.186 0.2113 0.2493 0.2183 0.1939 0.2133 0.2319
2170.100 0.2655 0.2424 0.248 0.279 0.264 0.2802 0.2716 0.2339 0.2486 0.2737
2189.390 0.2943 0.29 0.2406 0.2381 0.2689 0.246 0.2275 0.2342 0.2456 0.2425
2208.680 0.216 0.2404 0.2608 0.2545 0.2521 0.26 0.2485 0.2651 0.3463 0.387
2227.970 0.4183 0.4413 0.4387 0.5066 0.6338 0.7091 0.7869 0.9458 1.0438 1.1132
2247.259 1.2632 1.3232 1.3432 1.3032 1.2232 1.1632 1.0511 0.9721 0.8455 0.6713
2266.549 0.636 0.6579 0.6306 0.6204 0.5913 0.577 0.6003 0.5793 0.5726 0.5516
2285.839 0.5171 0.5358 0.5587 0.5199 0.4776 0.47 0.4902 0.5189 0.5005 0.4723
2305.129 0.4513 0.4461 0.459 0.4682 0.4798 0.5384 0.5657 0.5396 0.4919 0.4835
2324.418 0.5291 0.5086 0.5223 0.5809 0.6136 0.6647 0.6801 0.6483 0.6574 0.6995
2343.708 0.6989 0.6627 0.6953 0.748 0.727 0.6917 0.6514 0.6188 0.6041 0.599
2362.998 0.5879 0.5189 0.4489 0.3907 0.4046 0.4382 0.4527 0.458 0.4455 0.4539
2382.288 0.4638 0.4823 0.4861 0.4595 0.3721 0.3809 0.3877 0.3575 0.4199 0.4796
2401.578 0.5434 0.5659 0.5348 0.599 0.6071 0.6481 0.7705 0.7743 0.8522 0.9698
2420.867 0.997 1.0715 1.2032 1.2332 1.2532 1.3032 1.3032 1.2532 1.2232 1.2132
2440.157 1.1632 1.0732 0.9983 0.9465 0.8432 0.8327 0.8312 0.7296 0.7045 0.6724
2459.447 0.62 0.5944 0.5765 0.5457 0.5559 0.541 0.4566 0.4775 0.5388 0.5535
2478.737 0.5524 0.5027 0.4401 0.4781 0.5151 0.4476 0.3939 0.4009 0.4207 0.4697
2498.026 0.5078 0.5198 0.5424 0.5824 0.6429 0.7282 0.7694 0.7146 0.6784 0.709
2517.316 0.7288 0.693 0.6532 0.6463 0.6042 0.5047 0.4609 0.4669 0.4264 0.4035
2536.606 0.3976 0.382 0.3544 0.3715 0.3748 0.3281 0.3081 0.3039 0.2738 0.2313
2555.896 0.2256 0.2632 0.3269 0.3116 0.2482 0.1959 0.2333 0.2886 0.2994 0.2838
2575.186 0.2724 0.3558 0.3859 0.3449 0.3857 0.4203 0.4357 0.4451 0.4482 0.4206
2594.475 0.3927 0.4517 0.5319 0.5448 0.5814 0.6003 0.5667 0.6048 0.6109 0.5983
2613.765 0.5468 0.5211 0.5407 0.4968 0.4313 0.4403 0.4756 0.4569 0.4275 0.4038
2633.055 0.4146 0.3934 0.4445 0.5075 0.4109 0.3718 0.3899 0.3925 0.4327 0.4266
2652.345 0.4008 0.3819 0.3811 0.4223 0.3958 0.4279 0.5276 0.5047 0.4177 0.3751
2671.634 0.4127 0.4101 0.3212 0.3157 0.3795 0.3934 0.4267 0.4896 0.4291 0.3334
2690.924 0.3405 0.4365 0.4912 0.4323 0.3725 0.3553 0.3541 0.3324 0.3133 0.3041
2710.214 0.3248 0.317 0.224 0.1841 0.2423 0.2434 0.2168 0.2349 0.2755 0.2718
2729.504 0.2604 0.3084 0.3195 0.2502 0.2104 0.2525 0.274 0.2628 0.2927 0.3236
2748.794 0.3455 0.3142 0.318 0.3705 0.3283 0.3096 0.3454 0.4038 0.4357 0.4466
2768.083 0.4429 0.4597 0.4572 0.466 0.5097 0.5401 0.5557 0.489 0.4761 0.4232
2787.373 0.4321 0.4849 0.4331 0.4537 0.425 0.4472 0.4681 0.4474 0.4664 0.3804
2806.663 0.3648 0.4526 0.4471 0.371 0.345 0.4092 0.4309 0.4617 0.4857 0.4479
2825.953 0.4485 0.451 0.5136 0.536 0.5295 0.6379 0.7615 0.7776 0.7568 0.8889
2845.242 1.0336 1.1332 1.2632 1.3332 1.4132 1.5732 1.7332 1.8032 1.9332 2.0532
2864.532 2.1932 2.3832 2.5932 2.8032 2.9332 3.0732 3.0932 3.0932 3.0232 2.8132
2883.822 2.6032 2.4732 2.3932 2.1832 1.9832 1.8432 1.7632 1.7032 1.6632 1.7032
2903.112 1.7832 1.8032 1.7932 1.8532 1.9432 2.1332 2.4032 2.6432 2.9832 3.3932
2922.401 3.8632 4.4432 5.1032 5.8232 6.6332 7.4132 8.1632 8.9132 9.4832 9.8832
2941.691 10.1832 10.3932 10.4532 10.3232 10.0432 9.8032 9.5932 9.5232 9.5232 9.4132
2960.981 9.2232 9.0232 8.7132 8.0432 7.2532 6.6532 5.9232 5.0832 4.4932 4.0132
2980.271 3.5432 3.0932 2.8032 2.7332 2.6332 2.4632 2.4332 2.4032 2.5432 2.7632
2999.561 3.0732 3.4932 3.9832 4.6132 5.2332 5.8932 6.6232 7.4132 8.0632 8.5632
3018.850 8.9032 9.0932 9.2232 9.2632 9.1832 9.0732 9.1132 9.1632 9.2132 9.2432
3038.140 9.1132 8.8332 8.4432 7.9632 7.3932 6.7332 6.1332 5.5232 5.0332 4.6532
3057.430 4.3632 4.1232 3.9732 3.9032 3.7332 3.5832 3.4732 3.3732 3.1832 3.0632
3076.720 2.9932 2.8732 2.6432 2.3732 2.3232 2.1932 1.9232 1.8132 1.7432 1.6532
3096.009 1.5332 1.4332 1.3532 1.2832 1.3632 1.4232 1.3132 1.2932 1.2932 1.2332
3115.299 1.2632 1.1632 1.1032 1.1332 1.0625 1.0084 0.9171 0.8434 0.9046 0.8499
3134.589 0.7696 0.7545 0.6907 0.6553 0.6103 0.5485 0.5739 0.5995 0.4918 0.4149
3153.879 0.404 0.3878 0.3042 0.2902 0.3505 0.2346 0.2421 0.3413 0.3222 0.3124
3173.169 0.34 0.3324 0.2549 0.2922 0.3379 0.3067 0.3539 0.3761 0.3041 0.3408
3192.458 0.4115 0.3464 0.316 0.3128 0.3725 0.448 0.4215 0.3884 0.2688 0.2252
3211.748 0.2256 0.2095 0.3165 0.3751 0.2932 0.2518 0.3611 0.3987 0.3247 0.2762
3231.038 0.3332 0.381 0.3157 0.2277 0.3293 0.445 0.3388 0.3156 0.3216 0.2198
3250.328 0.2578 0.2839 0.2669 0.2883 0.3001 0.3032 0.3227 0.3288 0.2305 0.2138
3269.617 0.2208 0.1951 0.2179 0.2455 0.2125 0.1861 0.14246 0.13448 0.13322 0.1745
3288.907 0.2229 0.1651 0.2565 0.3245 0.2278 0.15741 0.12764 0.0449 0 0.075522
3308.197 0.16087 0.2033 0.2565 0.2615 0.2157 0.1765 0.16484 0.17213 0.2462 0.3284
3327.487 0.2859 0.3057 0.3427 0.3123 0.4162 0.5125 0.4891 0.4848 0.5248 0.4753
3346.777 0.3715 0.4174 0.4642 0.4866 0.5542 0.5249 0.5376 0.5835 0.4994 0.5019
3366.066 0.5236 0.5424 0.4635 0.3125 0.4097 0.5547 0.5065 0.3999 0.4117 0.4506
3385.356 0.4178 0.4404 0.4818 0.4733 0.4229 0.3946 0.4066 0.4071 0.4141 0.3738
3404.646 0.427 0.4235 0.3941 0.5027 0.5314 0.4529 0.4102 0.3348 0.3768 0.514
3423.936 0.4665 0.4305 0.4162 0.3665 0.3335 0.3245 0.3831 0.4048 0.3477 0.2827
3443.225 0.4079 0.4211 0.2242 0.2577 0.3298 0.3121 0.3724 0.4023 0.2551 0.295
3462.515 0.3297 0.2553 0.3051 0.3013 0.2724 0.2659 0.2718 0.278 0.3178 0.3056
3481.805 0.3165 0.2958 0.255 0.3444 0.3175 0.2724 0.2438 0.2712 0.3102 0.3113
3501.095 0.3239 0.2586 0.2122 0.11504 0.13765 0.2696 0.2824 0.2598 0.2905 0.2867
3520.385 0.2872 0.2819 0.1776 0.0993 0.1767 0.2809 0.2449 0.2459 0.2555 0.1935
3539.674 0.1847 0.1794 0.1881 0.1734 0.14938 0.2675 0.3214 0.2392 0.1952 0.2723
3558.964 0.3811 0.3321 0.241 0.1907 0.2472 0.2996 0.2039 0.2459 0.313 0.2587
3578.254 0.2664 0.2701 0.2573 0.3283 0.3621 0.4399 0.4573 0.425 0.4514 0.4079
3597.544 0.5152 0.6609 0.5649 0.5169 0.6435 0.7414 0.7237 0.7861 0.9589 1.0932
3616.833 1.1932 1.3432 1.6632 2.0732 2.4632 2.8632 3.4432 4.3232 5.5132 7.1132
3636.123 9.1432 11.8232 15.2932 19.4532 24.1932 28.8632 32.3832 34.0932 33.7932 32.3632
3655.413 30.2932 27.3832 23.1432 17.5732 12.3432 8.6032 6.1232 4.5832 3.6932 2.9532
3674.703 2.3332 1.8732 1.5732 1.4532 1.2232 1.0132 0.9421 0.7353 0.5549 0.573
3693.993 0.6467 0.6364 0.5862 0.4884 0.409 0.4328 0.4449 0.4212 0.4092 0.3658
3713.282 0.3578 0.3229 0.2951 0.2735 0.16621 0.14231 0.2482 0.2697 0.2168 0.11384
3732.572 0.11373 0.2353 0.3835 0.3373 0.1858 0.2878 0.3157 0.3135 0.3125 0.1961
3751.862 0.1749 0.2322 0.3026 0.3431 0.3466 0.35 0.367 0.3231 0.345 0.3483
3771.152 0.2534 0.3369 0.3751 0.2963 0.2998 0.2995 0.2431 0.2426 0.2409 0.1971
3790.441 0.14821 0.2492 0.2766 0.2479 0.3049 0.3517 0.4591 0.4059 0.3469 0.3435
3809.731 0.2818 0.2636 0.3004 0.3213 0.3535 0.3921 0.3836 0.31 0.2566 0.3241
3829.021 0.4021 0.4406 0.4675 0.4289 0.4219 0.4182 0.3415 0.4274 0.443 0.4217
3848.311 0.4262 0.425 0.4731 0.4657 0.4517 0.499 0.5342 0.5169 0.5261 0.5431
3867.601 0.4981 0.476 0.5684 0.559 0.4214 0.3346 0.3226 0.308 0.3691 0.4927
3886.890 0.5166 0.4893 0.4702 0.4145 0.4091 0.3831 0.3197 0.3464 0.3867 0.3381
3906.180 0.3593 0.4627 0.4614 0.4461 0.5112 0.5678 0.5309 0.5226 0.4568 0.432
3925.470 0.4877 0.4889 0.4342 0.3969 0.485 0.5414 0.5402 0.4809 0.4027 0.4341
3944.760 0.5354 0.5551 0.5107 0.5392 0.5385 0.5008 0.4463 0.4708 0.5655 0.49
3964.049 0.4634 0.4533 0.4287 0.4421 0.3497 0.2906 0.2149 0.1973 0.2194 0.12471
3983.339 0.13077 0.14121 0.1898 0.2195 0.148 0.2683 0.3755 0.2936 0.2158 0.2704
##END=
