##TITLE=4-(Trifluoromethoxy)benzyl alcohol
##JCAMP-DX=4.24
##DATA TYPE=INFRARED SPECTRUM
##ORIGIN=EPA-IR VAPOR PHASE LIBRARY
##OWNER=SRD/NIST
Collection (C) 2018 copyright by the U.S. Secretary of Commerce
on behalf of the United States of America. All rights reserved.
##CAS REGISTRY NO=1736-74-9
##MOLFORM=C 8 H 7 F 3 O 2
##$NIST SOURCE=MSDC-IR
##STATE=gas
##XUNITS=1/CM
##YUNITS=ABSORBANCE
##XFACTOR=1.
##YFACTOR=0.001
##DELTAX=1.929
##FIRSTX=549.8
##LASTX=4000.8
##FIRSTY=5.22
##MAXX=4000.75
##MINX=549.766
##MAXY=0.71462
##MINY=0
##NPOINTS=1790
##XYDATA=(X++(Y..Y))
549.766 5.22 5.02 4.86 4.73 4.57 4.25 3.86 3.67 3.78 3.82
569.056 3.53 3.25 3.25 3.31 3.28 3.24 3.16 3.11 3.2 3.32
588.346 3.27 3.49 3.66 3.71 3.95 4.44 4.84 5.19 5.62 5.79
607.636 5.79 6.04 6.34 6.22 5.98 5.67 5.35 5.07 4.7 4.37
626.926 4.29 4.19 3.94 3.54 3.37 3.48 3.44 3.46 3.47 3.26
646.216 3.24 3.35 3.51 3.72 3.91 4.1 4.28 4.79 5.27 5.79
665.506 6.41 6.98 7.51 7.89 8.09 8.25 8.29 8.18 8 7.58
684.796 7.23 7 6.77 6.43 6.15 5.91 5.63 5.46 5.29 5.09
704.086 5.03 5.12 5.14 5.01 4.94 4.93 4.91 4.8 4.6 4.37
723.376 4.18 3.96 3.77 3.7 3.48 3.31 3.19 3.04 3 2.97
742.666 2.98 3.08 3.17 3.24 3.31 3.48 3.64 3.81 4.08 4.32
761.956 4.57 4.75 5.04 5.26 5.38 5.46 5.57 5.65 5.74 5.92
781.246 6.17 6.54 6.78 7.02 7.61 8.34 9.05 9.97 11.1 12.24
800.536 13.66 15.3 16.77 18.18 19.6 20.53 21.44 22.48 23.1 23.55
819.826 24.03 24.67 25.27 25.71 26.01 26.06 25.93 25.64 25.14 24.43
839.116 23.65 22.87 22.07 21.09 20.07 18.97 17.58 16.21 14.98 13.61
858.406 12.28 11.15 10.03 8.96 8.03 7.18 6.53 5.98 5.46 5.14
877.696 4.87 4.6 4.37 4.21 4.2 4.16 4.17 4.14 4.03 4.01
896.986 4.09 4.26 4.5 4.73 5.02 5.29 5.7 6.33 7.1 8.13
916.276 9.29 10.42 11.46 12.25 12.75 13.02 13.03 12.7 12.22 11.85
935.566 11.45 11.1 10.85 10.66 10.55 10.4 10.26 10.17 10.12 10.17
954.856 10.28 10.48 10.78 11.11 11.49 11.81 12.07 12.44 12.88 13.32
974.146 13.7 14.07 14.55 15.09 15.68 16.38 17.16 18 18.9 19.95
993.436 21.12 22.47 23.95 25.51 27.41 29.71 32.48 35.95 40.36 45.6
1012.726 50.69 53.86 54.5 54.03 53.39 51.84 48.79 45.67 44.23 44.38
1032.016 44.84 44.84 44.23 42.86 40.92 38.6 36.1 33.63 31.33 29.31
1051.306 27.56 26.07 24.74 23.47 22.21 20.94 19.64 18.49 17.38 16.28
1070.596 15.23 14.25 13.41 12.67 12.13 11.63 11.21 10.99 10.8 10.72
1089.886 10.75 10.84 11 11.28 11.67 12.07 12.39 12.69 13.03 13.42
1109.176 13.75 13.97 14.18 14.43 14.67 14.87 15.08 15.35 15.79 16.39
1128.467 17.11 17.96 19.06 20.4 21.91 23.57 25.54 27.83 30.44 33.42
1147.757 36.85 40.91 45.6 51.05 57.48 64.89 73.57 83.69 95.16 108.01
1167.047 122.03 137.14 153.71 171.71 190.82 210.7 230.76 250.25 268 282.09
1186.337 290.5 291.85 286.14 274.82 260.18 245.55 233.94 227.25 226.65 232.12
1205.627 242.48 256.51 272.95 290.2 306.91 321.95 333.55 340.63 342.76 340.08
1224.917 333.5 323.93 311.83 297.74 282.87 269.03 257.61 249.37 245.34 246.44
1244.207 253.44 267.27 288.85 318.95 357.8 405.26 460.25 520.4 581.86 638.61
1263.497 683.81 711.01 714.62 693.28 649.41 587.68 514.38 437.08 363 297.96
1282.787 244.56 202.36 169.51 143.82 123.66 107.57 94.53 83.75 74.6 66.82
1302.077 60.1 54.25 49.14 44.6 40.71 37.36 34.4 31.77 29.48 27.45
1321.367 25.63 24.06 22.68 21.48 20.42 19.49 18.68 17.99 17.45 16.99
1340.657 16.56 16.22 15.94 15.71 15.6 15.58 15.57 15.56 15.68 15.91
1359.947 16.16 16.44 16.82 17.24 17.6 18.03 18.43 18.69 18.84 18.82
1379.237 18.56 18.1 17.55 16.87 16.15 15.46 14.71 14.04 13.53 13.04
1398.527 12.57 12.27 12 11.72 11.46 11.18 10.92 10.64 10.4 10.18
1417.817 9.89 9.51 9.18 8.93 8.61 8.24 7.87 7.57 7.26 6.92
1437.107 6.69 6.55 6.41 6.22 6.07 6.01 5.95 5.95 6.04 6.18
1456.397 6.37 6.76 7.26 7.85 8.53 9.18 9.62 9.75 9.72 9.56
1475.687 9.22 8.69 8.28 8.2 8.45 9.05 9.96 11.25 13.12 15.65
1494.977 19.18 24.13 30.48 38.27 46.97 55.3 62.22 66.14 66.57 63.89
1514.267 58.3 50.07 40.73 32.45 25.78 21.48 18.4 16.14 14.49 13.14
1533.557 12 11.06 10.2 9.3 8.55 7.91 7.34 6.86 6.42 6.05
1552.847 5.76 5.51 5.37 5.27 5.23 5.25 5.27 5.33 5.46 5.61
1572.137 5.79 6.08 6.34 6.61 6.9 7.24 7.61 7.99 8.39 8.8
1591.427 9.23 9.68 10.18 10.81 11.48 12.17 12.83 13.35 13.6 13.5
1610.717 13.09 12.37 11.34 10.05 8.82 7.7 6.74 5.96 5.32 4.92
1630.007 4.66 4.45 4.23 3.98 3.83 3.78 3.72 3.61 3.52 3.41
1649.297 3.29 3.16 3.04 2.98 2.95 2.9 2.8 2.75 2.7 2.6
1668.587 2.52 2.44 2.34 2.26 2.19 2.13 2.06 1.97 1.8481 1.793
1687.877 1.7713 1.6949 1.674 1.6466 1.5952 1.5921 1.5229 1.4737 1.4551 1.4088
1707.167 1.424 1.4379 1.4048 1.3758 1.3325 1.3303 1.3837 1.4397 1.4636 1.4604
1726.457 1.4756 1.4906 1.5069 1.5 1.4676 1.4853 1.537 1.5939 1.6257 1.6422
1745.747 1.718 1.7662 1.8291 1.93 2 2.09 2.2 2.27 2.38 2.56
1765.037 2.71 2.87 3.06 3.11 3.1 3.09 2.94 2.75 2.58 2.4
1784.327 2.22 2.04 1.92 1.8148 1.7176 1.6952 1.6779 1.6253 1.6132 1.5878
1803.617 1.5815 1.6175 1.6078 1.5772 1.5654 1.5664 1.5887 1.5862 1.5486 1.5239
1822.907 1.4863 1.5208 1.4988 1.4308 1.4357 1.4415 1.4195 1.3622 1.36 1.3384
1842.197 1.2596 1.2582 1.289 1.3089 1.3485 1.3834 1.4307 1.483 1.5431 1.5942
1861.487 1.6676 1.7705 1.91 2.03 2.21 2.42 2.54 2.7 2.86 3.03
1880.777 3.17 3.28 3.39 3.54 3.62 3.66 3.69 3.64 3.55 3.45
1900.067 3.37 3.2 2.97 2.77 2.58 2.38 2.19 2.03 1.89 1.7417
1919.357 1.6539 1.6036 1.5363 1.4849 1.4532 1.4381 1.3868 1.2995 1.3024 1.3195
1938.647 1.315 1.333 1.3366 1.3398 1.3693 1.3891 1.372 1.359 1.3953 1.4317
1957.937 1.4283 1.4579 1.5182 1.4963 1.532 1.6114 1.6127 1.6367 1.6736 1.7063
1977.227 1.7907 1.8472 1.87 1.9 1.93 1.95 1.91 1.93 2.02 2.03
1996.517 1.98 2.01 2.04 2.06 2.09 2.11 2.11 2.15 2.18 2.19
2015.807 2.22 2.24 2.25 2.31 2.38 2.36 2.36 2.38 2.37 2.39
2035.097 2.39 2.38 2.4 2.39 2.35 2.33 2.31 2.33 2.34 2.3
2054.387 2.29 2.31 2.27 2.25 2.21 2.14 2.12 2.13 2.13 2.08
2073.677 2.08 2.1 2.07 2.05 2.04 2.01 2 2.01 2.02 2.04
2092.967 2.07 2.09 2.07 2.05 2.07 2.08 2.02 2.01 1.99 1.92
2112.257 1.86 1.8204 1.7943 1.7306 1.6826 1.616 1.5779 1.6028 1.6432 1.645
2131.547 1.6155 1.6407 1.6963 1.7369 1.7314 1.7315 1.7464 1.7083 1.635 1.62
2150.837 1.6287 1.5876 1.5202 1.4687 1.4466 1.3959 1.403 1.4516 1.3829 1.3911
2170.127 1.4692 1.5164 1.6141 1.6502 1.6433 1.6818 1.7176 1.7198 1.7187 1.6782
2189.417 1.5849 1.5398 1.4489 1.3441 1.2407 1.1207 1.0197 0.9273 0.8623 0.8106
2208.707 0.7788 0.714 0.684 0.705 0.714 0.737 0.742 0.69 0.678 0.703
2227.997 0.657 0.643 0.671 0.665 0.671 0.683 0.702 0.678 0.633 0.612
2247.287 0.689 0.747 0.733 0.738 0.701 0.735 0.7756 0.8186 0.84208 0.7852
2266.577 0.8157 0.88235 0.88774 0.89434 0.9224 0.93719 0.93565 0.92612 0.9708 1.0156
2285.868 1.0186 1.0044 0.9913 0.9662 0.9616 0.9734 1.0215 1.0439 0.9881 1.0197
2305.158 1.0324 1.0046 1.0119 1.026 1.0641 1.1197 1.1451 1.1468 1.1728 1.1622
2324.448 1.1583 1.1996 1.2204 1.226 1.2753 1.2999 1.2635 1.2383 1.2709 1.3059
2343.738 1.3184 1.3235 1.3168 1.2908 1.3178 1.3342 1.2804 1.2636 1.2742 1.2715
2363.028 1.2485 1.2694 1.3522 1.4111 1.4232 1.4324 1.4854 1.5666 1.6096 1.6268
2382.318 1.6639 1.6924 1.7322 1.7825 1.7966 1.7718 1.7978 1.86 1.94 1.96
2401.608 1.98 2.04 2.1 2.2 2.32 2.41 2.49 2.57 2.61 2.72
2420.898 2.85 2.92 3.03 3.13 3.17 3.17 3.19 3.23 3.25 3.26
2440.188 3.29 3.31 3.34 3.33 3.32 3.31 3.28 3.24 3.22 3.21
2459.478 3.16 3.14 3.14 3.12 3.15 3.18 3.15 3.15 3.18 3.18
2478.768 3.27 3.42 3.49 3.54 3.59 3.59 3.63 3.69 3.68 3.64
2498.058 3.63 3.58 3.42 3.22 3.09 3 2.88 2.75 2.59 2.38
2517.348 2.26 2.17 2.12 2 1.89 1.8398 1.7623 1.7424 1.7262 1.631
2536.638 1.5345 1.5189 1.5015 1.3814 1.2537 1.1949 1.1957 1.1937 1.1725 1.1342
2555.928 1.0776 1.0531 1.0192 0.9755 0.9574 0.94529 0.9785 0.9603 0.86803 0.8499
2575.218 0.858673 0.89864 0.94184 0.91137 0.89093 0.88254 0.85757 0.84399 0.8037 0.79
2594.508 0.7941 0.7734 0.748 0.714 0.667 0.647 0.737 0.7932 0.744 0.7564
2613.798 0.7779 0.709 0.673 0.664 0.624 0.661 0.703 0.674 0.649 0.657
2633.088 0.667 0.726 0.7711 0.71 0.696 0.659 0.655 0.713 0.708 0.691
2652.378 0.674 0.674 0.68 0.704 0.739 0.679 0.696 0.7897 0.8166 0.7942
2671.668 0.7617 0.7648 0.745 0.7817 0.7628 0.7964 0.90834 0.86292 0.8022 0.7628
2690.958 0.7817 0.8342 0.86801 0.859582 0.849592 0.86471 0.87627 0.90182 0.90936 0.9248
2710.248 0.91012 0.92846 0.9767 0.9533 0.9767 0.9991 1.0089 1.0223 1.0061 1.0163
2729.538 1.0027 0.9877 1.0422 1.1256 1.2023 1.1753 1.1427 1.2063 1.1782 1.1453
2748.828 1.1751 1.2352 1.35 1.3678 1.3702 1.4286 1.4314 1.4372 1.4366 1.4499
2768.118 1.5556 1.613 1.5672 1.5481 1.5873 1.5988 1.6682 1.7978 1.86 1.87
2787.408 1.8482 1.89 1.96 1.98 1.98 1.99 2.07 2.13 2.21 2.31
2806.698 2.35 2.41 2.42 2.41 2.48 2.56 2.67 2.79 2.88 2.95
2825.988 3.08 3.16 3.28 3.48 3.68 3.87 4.1 4.29 4.56 4.86
2845.278 5.17 5.54 5.94 6.38 6.71 7.09 7.59 8.02 8.43 8.91
2864.568 9.58 10.32 11.02 11.76 12.56 13.41 14.32 15.29 16.05 16.61
2883.858 16.98 17.05 16.94 16.6 16.08 15.5 14.96 14.52 14.01 13.55
2903.148 13.2 12.91 12.72 12.65 12.48 12.35 12.38 12.34 12.25 12.2
2922.438 12.34 12.48 12.38 12.31 12.25 12.25 12.24 12.18 12.08 11.84
2941.728 11.63 11.49 11.38 11.22 10.94 10.6 10.27 9.96 9.59 9.09
2961.018 8.6 8.08 7.49 6.98 6.43 5.96 5.64 5.26 4.88 4.53
2980.308 4.18 3.91 3.72 3.53 3.31 3.16 3.16 3.07 3.04 3.11
2999.598 3.15 3.19 3.17 3.18 3.26 3.33 3.43 3.46 3.56 3.73
3018.888 3.79 3.76 3.86 4.11 4.35 4.69 5.18 5.61 6.03 6.44
3038.178 6.88 7.41 7.79 7.93 7.88 7.77 7.49 7.01 6.49 6
3057.468 5.54 5 4.55 4.27 3.98 3.69 3.42 3.22 3 2.85
3076.758 2.81 2.73 2.63 2.46 2.44 2.56 2.38 2.19 2.14 2
3096.048 1.94 1.829 1.7661 1.7893 1.7479 1.7597 1.7182 1.6818 1.7044 1.6367
3115.338 1.628 1.5902 1.5035 1.4143 1.3235 1.2997 1.3118 1.2319 1.0327 0.8358
3134.628 0.712 0.7655 0.784 0.628 0.544 0.456 0.376 0.374 0.308 0.366
3153.918 0.386 0.273 0.308 0.346 0.243 0.137 0.141 0.236 0.238 0.251
3173.208 0.23 0.241 0.263 0.124 0.074 0.117 0.155 0.257 0.365 0.278
3192.498 0.265 0.314 0.267 0.242 0.3 0.304 0.209 0.088 0.146 0.222
3211.788 0.219 0.216 0.171 0.188 0.202 0.193 0.243 0.255 0.17 0.199
3231.078 0.243 0.207 0.257 0.365 0.334 0.25 0.29 0.222 0.118 0.172
3250.368 0.207 0.189 0.172 0.096 0.062 0.163 0.229 0.209 0.264 0.135
3269.658 0 0.093 0.208 0.252 0.174 0.19 0.14 0.128 0.085 0.081
3288.948 0.209 0.154 0.126 0.16 0.18 0.158 0.095 0.191 0.181 0.194
3308.238 0.285 0.228 0.301 0.339 0.286 0.232 0.121 0.117 0.17 0.232
3327.528 0.298 0.276 0.291 0.35 0.312 0.279 0.311 0.311 0.365 0.422
3346.818 0.361 0.298 0.29 0.287 0.344 0.32 0.234 0.205 0.263 0.333
3366.108 0.322 0.396 0.487 0.364 0.248 0.269 0.391 0.46 0.35 0.326
3385.398 0.342 0.461 0.479 0.317 0.286 0.383 0.436 0.362 0.301 0.348
3404.688 0.374 0.431 0.399 0.375 0.479 0.536 0.561 0.592 0.604 0.632
3423.978 0.671 0.628 0.488 0.369 0.473 0.524 0.495 0.502 0.484 0.597
3443.269 0.723 0.706 0.639 0.634 0.704 0.654 0.609 0.685 0.731 0.719
3462.559 0.718 0.682 0.591 0.518 0.55 0.593 0.564 0.598 0.693 0.7622
3481.849 0.714 0.634 0.654 0.681 0.627 0.617 0.627 0.492 0.403 0.515
3501.139 0.647 0.61 0.577 0.638 0.612 0.634 0.674 0.615 0.577 0.615
3520.429 0.687 0.716 0.568 0.441 0.622 0.732 0.652 0.699 0.693 0.716
3539.719 0.689 0.642 0.705 0.706 0.693 0.662 0.654 0.575 0.512 0.633
3559.009 0.7966 0.752 0.671 0.715 0.7536 0.7832 0.7741 0.721 0.749 0.7746
3578.299 0.733 0.7969 0.89416 0.92252 0.9756 1.0125 1.0143 0.9526 0.9553 1.0526
3597.589 1.1213 1.1633 1.1969 1.1689 1.2701 1.4369 1.4969 1.6197 1.7832 2.02
3616.879 2.25 2.48 2.68 2.84 3.14 3.46 3.82 4.3 4.68 5.04
3636.169 5.48 5.93 6.42 6.95 7.38 7.81 8.37 9 9.68 10.24
3655.459 10.67 11 11.2 11.42 11.42 11.07 10.67 10.31 9.74 9
3674.749 8.35 7.75 7.12 6.41 5.77 5.4 5.11 4.61 4.14 3.88
3694.039 3.57 3.25 2.98 2.72 2.6 2.5 2.33 2.23 1.96 1.7051
3713.329 1.7087 1.6414 1.5711 1.53 1.4848 1.5134 1.3909 1.3579 1.3901 1.305
3732.619 1.2867 1.272 1.0845 0.9695 1.0193 0.9727 0.94773 1.045 1.0989 1.0884
3751.909 1.002 0.9515 0.9508 0.8809 0.8033 0.7658 0.7553 0.8253 0.88872 0.87529
3771.199 0.86754 0.7804 0.8132 0.84746 0.8396 0.86526 0.86561 0.8277 0.732 0.7623
3790.489 0.7625 0.8279 0.799 0.7568 0.7937 0.7564 0.7612 0.7515 0.736 0.843
3809.779 0.90858 0.9475 0.90154 0.858515 0.94676 0.8844 0.88806 0.91163 0.86739 0.84494
3829.069 0.8391 0.9508 1.0324 0.989 0.94425 1.0277 1.0333 1.0677 1.119 1.1653
3848.359 1.255 1.1111 0.992 1.0749 1.1685 1.0394 1.0093 1.0332 1.0005 0.9716
3867.649 0.9091 0.89002 0.8733 1.0166 1.1032 1.1201 1.1193 1.0361 1.0545 1.0856
3886.939 1.1282 1.0896 1.0141 1.0111 1.0145 0.9513 0.8016 0.8352 0.9544 0.93127
3906.229 0.941 0.92929 0.89911 0.9823 1.0416 1.0347 1.0329 1.0049 0.89778 0.7941
3925.519 0.801 0.8866 0.9423 0.8069 0.746 0.7663 0.7957 0.7995 0.7848 0.7897
3944.809 0.665 0.643 0.8011 0.8957 0.8192 0.7904 0.7502 0.7722 0.813 0.8198
3964.099 0.7791 0.709 0.732 0.711 0.727 0.86694 0.8382 0.7544 0.674 0.656
3983.389 0.7704 0.7743 0.7706 0.682 0.625 0.625 0.648 0.662 0.733 0.677
##END=
