##TITLE=N-Benzyl-4-methoxyaniline
##JCAMP-DX=4.24
##DATA TYPE=INFRARED SPECTRUM
##ORIGIN=EPA-IR VAPOR PHASE LIBRARY
##OWNER=SRD/NIST
Collection (C) 2018 copyright by the U.S. Secretary of Commerce
on behalf of the United States of America. All rights reserved.
##CAS REGISTRY NO=17377-95-6
##MOLFORM=C 14 H 15 N O
##$NIST SOURCE=MSDC-IR
##STATE=gas
##XUNITS=1/CM
##YUNITS=ABSORBANCE
##XFACTOR=1.
##YFACTOR=0.001
##DELTAX=1.92898
##FIRSTX=549.8
##LASTX=4000.7
##FIRSTY=11.133
##MAXX=4000.7
##MINX=549.759
##MAXY=0.333853
##MINY=0
##NPOINTS=1790
##XYDATA=(X++(Y..Y))
549.759 11.133 11.473 11.763 11.403 11.403 11.103 10.713 10.973 10.613 10.023
569.049 10.333 11.363 11.463 11.153 11.513 11.193 11.303 11.703 11.563 11.463
588.339 11.743 11.873 11.543 11.553 11.663 11.353 11.163 10.853 10.783 11.023
607.628 10.613 10.803 11.073 11.013 10.783 9.943 9.773 10.313 10.463 10.383
626.918 10.353 9.843 9.853 10.513 10.403 10.473 10.903 10.623 10.653 10.923
646.208 10.303 9.923 10.413 10.523 10.293 10.363 10.323 10.613 11.513 12.103
665.498 12.253 12.873 13.633 14.353 14.963 15.703 16.713 17.673 19.453 21.693
684.787 23.503 25.713 28.643 31.233 33.313 34.223 34.243 33.633 32.153 30.583
704.077 29.503 28.103 26.613 25.603 24.943 24.573 24.303 24.623 25.233 25.793
723.367 26.643 27.663 29.163 30.963 32.643 34.193 35.153 35.533 35.753 35.383
742.657 34.053 32.533 30.873 29.233 28.023 26.943 26.113 25.013 23.413 21.093
761.947 18.473 16.453 14.193 12.153 10.773 9.883 9.253 8.573 8.453 8.413
781.236 8.523 8.723 8.913 9.633 10.103 10.273 10.623 11.143 12.073 13.423
800.526 14.523 15.963 18.243 20.443 23.263 26.663 30.203 33.953 37.693 39.973
819.816 40.513 41.703 41.363 37.073 32.923 29.743 25.793 22.323 19.693 17.573
839.106 15.473 13.703 12.133 10.923 10.033 9.063 8.443 7.573 6.823 6.883
858.395 6.463 6.153 6.243 5.823 5.853 5.793 5.193 4.873 4.963 5.043
877.685 5.023 4.913 4.723 4.703 4.753 4.593 4.603 4.923 4.823 4.713
896.975 4.843 5.113 5.133 4.933 4.883 5.463 5.903 5.483 4.753 4.443
916.265 4.383 3.903 3.753 3.603 3.193 3.103 3.113 3.283 3.613 3.543
935.555 3.523 3.663 3.623 3.833 3.613 3.093 3.213 3.633 3.593 3.313
954.844 3.723 3.913 3.823 4.103 4.213 4.313 4.423 4.583 5.313 5.683
974.134 5.533 5.293 5.143 6.203 7.153 7.463 7.713 7.933 7.993 7.883
993.424 8.483 9.313 9.793 10.343 11.003 11.403 11.543 12.233 12.643 13.653
1012.714 15.353 16.493 18.173 20.303 23.003 26.933 31.643 35.533 38.403 40.693
1032.003 41.843 42.083 42.813 43.393 43.593 44.003 43.593 42.493 41.103 40.113
1051.293 38.403 36.193 34.803 33.013 31.073 29.323 27.993 26.283 24.633 23.193
1070.583 21.783 21.383 21.293 20.483 20.213 19.793 18.743 17.913 16.643 16.013
1089.873 15.603 15.293 14.113 13.493 13.313 13.023 13.043 13.733 14.553 14.253
1109.163 14.113 14.943 15.023 14.593 15.143 14.813 13.993 13.403 12.653 11.853
1128.452 10.843 9.223 8.743 8.863 8.093 7.523 7.933 8.433 7.903 7.233
1147.742 7.693 8.073 8.803 9.393 9.813 11.023 12.403 14.013 16.483 19.433
1167.032 21.983 24.223 26.173 27.893 28.483 28.163 27.743 27.303 26.473 25.723
1186.322 24.393 23.483 23.103 21.773 21.833 22.623 23.113 24.003 25.403 26.313
1205.611 27.313 30.453 33.013 34.643 38.033 42.543 48.563 55.693 64.573 75.663
1224.901 89.103 105.183 122.563 141.443 159.583 175.393 188.703 198.313 203.733 204.343
1244.191 200.773 192.973 180.303 164.163 146.123 128.393 111.533 95.903 83.213 72.903
1263.481 64.673 58.333 53.583 49.913 46.673 43.993 42.033 40.643 39.223 37.883
1282.771 37.043 36.503 35.753 34.993 34.083 32.833 31.513 30.133 29.083 28.253
1302.060 27.703 27.393 26.823 26.093 25.183 23.973 22.643 21.523 20.583 19.593
1321.350 18.813 17.933 16.743 15.603 14.483 13.593 12.903 12.273 11.643 11.093
1340.640 10.903 10.913 10.973 11.203 11.603 12.203 12.963 13.313 13.313 13.253
1359.930 12.953 12.253 11.283 10.453 9.853 9.413 9.043 8.843 8.763 8.633
1379.219 8.573 8.733 8.983 9.063 9.233 9.733 10.343 10.943 11.713 12.763
1398.509 13.863 15.143 16.103 16.503 16.493 15.813 14.953 14.003 12.863 12.063
1417.799 11.583 11.413 11.783 12.203 12.633 13.403 14.463 15.723 17.233 19.123
1437.089 21.533 24.193 26.973 29.403 31.203 32.703 33.723 34.183 34.733 35.493
1456.378 36.663 38.323 40.423 43.153 46.343 49.783 52.813 54.863 55.423 54.263
1475.668 51.703 48.253 44.653 41.453 39.313 38.513 39.533 42.583 47.923 55.543
1494.958 66.163 81.413 102.093 129.913 165.683 207.853 256.133 300.733 328.373 333.853
1514.248 316.253 278.803 228.923 179.013 134.683 104.173 82.103 66.023 54.373 45.543
1533.538 38.463 32.983 28.843 25.263 22.303 19.963 18.063 16.693 15.543 14.373
1552.827 13.783 13.303 12.733 12.143 11.463 11.023 10.833 10.663 10.183 9.903
1572.117 9.843 9.813 9.883 9.943 10.073 10.073 10.103 10.273 10.563 10.903
1591.407 11.243 11.423 11.773 12.203 12.483 12.843 13.013 13.053 12.983 12.603
1610.697 12.383 12.253 11.703 10.923 10.263 9.783 9.383 8.943 8.303 7.843
1629.986 7.773 7.503 7.163 6.903 6.433 6.063 5.693 5.403 5.183 4.933
1649.276 4.603 4.263 4.193 4.193 4.063 3.973 3.893 3.683 3.693 3.633
1668.566 3.403 3.423 3.453 3.413 3.273 3.143 3.093 3.053 3.033 3.043
1687.856 2.993 2.933 2.923 2.993 3.143 3.323 3.143 2.963 3.083 3.273
1707.146 3.423 3.433 3.613 3.553 3.583 3.793 3.693 3.583 3.543 3.693
1726.435 3.723 3.493 3.343 3.233 2.973 3.013 3.193 3.133 3.103 3.173
1745.725 3.183 3.073 2.953 2.803 2.903 2.903 2.903 2.863 2.733 2.863
1765.015 2.863 2.743 2.723 2.783 2.863 2.973 2.983 2.943 2.973 3.063
1784.305 3.173 3.423 3.723 3.763 4.053 4.373 4.433 4.653 4.683 4.433
1803.594 4.303 4.193 4.063 3.923 3.813 3.723 3.683 3.773 3.873 3.883
1822.884 3.873 3.883 4.013 4.083 4.123 4.283 4.343 4.353 4.403 4.513
1842.174 4.493 4.503 4.573 4.543 4.613 4.613 4.593 4.633 4.553 4.493
1861.464 4.503 4.453 4.233 4.103 4.143 4.253 4.233 4.013 3.913 3.873
1880.754 3.803 3.703 3.473 3.253 3.183 3.153 3.003 2.853 2.893 2.883
1900.043 2.793 2.673 2.683 2.843 2.773 2.723 2.763 2.843 2.873 2.943
1919.333 3.123 3.113 3.123 3.183 3.243 3.263 3.423 3.723 3.823 3.833
1938.623 3.973 3.873 3.873 4.103 4.093 4.063 4.083 4.073 4.103 4.113
1957.913 3.973 3.673 3.413 3.263 3.133 3.023 3.003 3.023 2.923 2.963
1977.202 2.933 2.853 2.903 2.893 2.863 2.893 2.993 2.873 2.773 2.823
1996.492 2.863 2.893 2.883 2.983 2.953 2.753 2.713 2.773 2.793 2.723
2015.782 2.663 2.773 2.843 2.713 2.703 2.723 2.743 2.803 2.773 2.843
2035.072 3.043 3.103 3.163 3.303 3.343 3.323 3.343 3.423 3.493 3.593
2054.362 3.663 3.673 3.643 3.583 3.623 3.593 3.513 3.573 3.643 3.523
2073.651 3.373 3.313 3.223 3.163 3.183 3.123 3.053 3.073 2.903 2.733
2092.941 2.743 2.713 2.463 2.373 2.293 2.083 2.033 1.973 1.883 1.963
2112.231 2.033 1.893 1.803 1.703 1.683 1.743 1.603 1.4949 1.593 1.623
2131.521 1.4352 1.44 1.5684 1.3661 1.2293 1.3403 1.3635 1.3289 1.3275 1.4629
2150.810 1.4943 1.3985 1.5067 1.593 1.603 1.461 1.4255 1.5279 1.3271 1.231
2170.100 1.3414 1.2891 1.3733 1.2821 1.188 1.362 1.32 1.2789 1.4519 1.4069
2189.390 1.3473 1.4849 1.2986 1.1547 1.2126 1.2081 1.3114 1.4306 1.1809 1.1233
2208.680 1.3478 1.4466 1.4709 1.375 1.2776 1.2476 1.2302 1.3397 1.3486 1.2111
2227.970 1.1576 1.1633 1.2765 1.4199 1.4655 1.3321 1.2675 1.3486 1.3524 1.3619
2247.259 1.2538 1.2128 1.3963 1.4024 1.3511 1.401 1.427 1.3974 1.384 1.5027
2266.549 1.5563 1.4942 1.5564 1.643 1.633 1.5846 1.653 1.683 1.823 1.973
2285.839 1.853 1.793 1.673 1.643 1.773 1.703 1.5575 1.633 1.703 1.653
2305.129 1.733 1.963 2.033 1.903 2.003 2.133 2.163 2.113 2.073 2.073
2324.418 2.103 2.083 2.043 2.013 1.963 2.023 2.023 2.083 2.053 1.963
2343.708 1.913 1.653 1.733 1.823 1.683 1.613 1.5039 1.4201 1.3253 1.3625
2362.998 1.5169 1.292 1.1597 1.512 1.653 1.5436 1.5048 1.5531 1.5698 1.4011
2382.288 1.1205 1.0569 1.1828 1.301 1.2473 1.2714 1.3778 1.2797 1.2404 1.3172
2401.578 1.4154 1.4311 1.3205 1.3762 1.4446 1.495 1.4443 1.3087 1.3421 1.3975
2420.867 1.4381 1.3999 1.2264 1.1741 1.2151 1.2876 1.3006 1.3698 1.603 1.633
2440.157 1.623 1.643 1.5491 1.3292 1.3382 1.5767 1.613 1.5494 1.5499 1.5443
2459.447 1.5465 1.553 1.673 1.813 1.733 1.653 1.813 1.813 1.663 1.643
2478.737 1.5911 1.723 1.783 1.633 1.693 1.783 1.773 1.5781 1.5376 1.713
2498.026 1.763 1.843 1.783 1.743 1.773 1.633 1.683 1.673 1.643 1.623
2517.316 1.4581 1.5632 1.703 1.713 1.633 1.5683 1.733 1.923 1.953 1.953
2536.606 1.913 1.873 2.003 2.163 2.193 2.273 2.123 1.873 1.923 1.963
2555.896 1.993 1.923 1.863 1.933 1.843 1.833 1.923 1.853 1.893 1.893
2575.186 1.803 1.943 1.773 1.613 1.5315 1.623 1.873 1.873 1.693 1.773
2594.475 2.133 1.973 1.663 1.4858 1.47 1.4803 1.643 1.743 1.633 1.653
2613.765 1.683 1.5876 1.562 1.5734 1.5098 1.4681 1.3838 1.3013 1.2946 1.4011
2633.055 1.5436 1.743 1.833 1.763 1.633 1.5198 1.653 1.953 1.713 1.397
2652.345 1.5228 1.5577 1.633 1.673 1.673 1.5813 1.5278 1.603 1.613 1.683
2671.634 1.793 1.833 1.833 1.893 1.823 1.753 1.893 1.893 1.703 1.733
2690.924 1.913 1.893 1.863 2.143 2.233 2.193 2.173 2.013 2.073 1.943
2710.214 1.813 1.903 1.963 2.103 2.213 2.053 1.813 1.783 1.903 1.813
2729.504 1.813 1.823 1.623 1.813 2.043 2.103 2.093 2.103 2.293 2.333
2748.794 2.393 2.383 2.243 2.143 2.123 2.373 2.523 2.453 2.343 2.483
2768.083 2.783 2.953 2.983 3.093 3.393 3.743 3.993 3.943 4.063 4.373
2787.373 4.533 4.983 5.323 5.483 5.813 6.083 6.383 6.553 6.993 7.623
2806.663 8.053 8.393 8.773 9.423 10.043 10.553 11.203 12.103 12.883 13.403
2825.953 14.483 16.253 18.293 20.533 23.193 25.913 28.013 29.273 29.693 28.873
2845.242 27.283 25.663 24.043 22.953 22.153 21.583 21.283 20.983 20.623 20.253
2864.532 19.843 19.663 19.693 19.323 18.833 18.683 18.313 17.823 17.643 17.583
2883.822 17.843 18.043 17.783 17.743 18.273 18.663 19.063 19.563 20.093 20.743
2903.112 21.383 22.223 23.183 24.193 25.023 25.523 26.063 26.603 27.153 27.783
2922.401 28.193 28.813 29.483 29.853 30.403 30.923 31.463 31.913 31.933 31.993
2941.691 32.013 31.543 30.503 29.323 28.293 27.223 25.873 24.733 23.803 22.463
2960.981 20.903 19.303 18.193 17.443 16.773 15.953 15.183 15.033 15.073 14.733
2980.271 14.663 14.993 15.743 16.503 17.573 19.023 20.643 23.053 25.753 28.313
2999.561 30.443 31.833 31.863 30.733 29.103 27.013 24.763 23.643 23.613 23.853
3018.850 25.093 27.273 29.813 32.603 35.313 37.563 38.903 39.203 38.703 37.143
3038.140 34.363 31.393 29.063 27.293 25.643 24.913 24.623 24.593 25.103 26.013
3057.430 26.983 27.623 28.703 30.343 32.213 33.743 34.923 35.113 33.993 32.003
3076.720 29.163 26.053 23.623 21.503 19.773 18.603 17.353 16.483 15.803 15.103
3096.009 14.773 14.173 13.303 12.303 11.463 11.013 10.653 9.813 8.953 8.483
3115.299 7.803 7.153 6.343 5.433 4.893 4.613 4.123 3.703 4.043 3.873
3134.589 2.933 2.903 3.173 2.673 2.393 2.513 2.273 2.043 1.903 2.013
3153.879 1.953 1.683 1.5927 1.5661 1.783 1.783 1.853 1.803 1.643 1.803
3173.169 1.713 1.5584 1.1069 1.0901 1.451 1.5196 1.2067 0.7922 0.9963 0.9048
3192.458 0.7678 0.7328 0.63914 0.8849 1.0122 1.0676 0.9161 0.6374 0.5717 0.416
3211.748 0.63801 0.9359 0.7359 0.8769 0.9764 0.9892 1.1255 0.68925 0.5443 0.64153
3231.038 0.5446 0.59009 0.65049 1.0512 1.5002 1.097 0.7267 0.7766 0.600057 0.8925
3250.328 1.0874 1.0008 0.8837 0.7974 0.7338 0.5407 0.521 0.518 0.5465 0.493
3269.617 0.384 0.8039 1.385 1.3936 1.0789 0.60934 0.62393 0.7236 0.432 0.451
3288.907 0.63109 0.63922 0.7234 0.596632 0.441 0.63979 0.5424 0.5443 0.8442 0.61247
3308.197 0.443 0.5543 0.6376 0.65201 0.493 0.34 0.63904 0.9541 0.9454 0.65532
3327.487 0.427 0.7749 0.9471 0.469 0.5446 1.2604 1.1863 0.9089 0.8776 0.8766
3346.777 0.58566 0.65609 1.1362 1.1144 0.8653 0.6205 0.425 0.468 0.61675 0.8817
3366.066 1.2026 1.2559 1.1503 1.0872 0.8862 0.7913 0.9597 1.1065 0.8686 0.7618
3385.356 1.1753 1.4258 1.4869 1.493 1.3822 1.3596 1.633 1.833 1.633 1.753
3404.646 2.323 2.393 2.703 3.143 3.303 3.673 3.693 3.413 3.743 4.023
3423.936 3.513 3.533 3.593 3.493 3.623 3.523 3.803 3.843 3.443 3.573
3443.225 3.893 3.753 3.433 3.213 3.363 3.633 3.153 2.673 2.453 2.283
3462.515 2.403 2.233 2.073 1.913 1.963 1.4956 1.0503 1.5677 1.633 1.4769
3481.805 1.3026 1.065 0.9094 0.8497 0.64368 0.7939 1.1975 0.9988 0.408 0.235
3501.095 0.394 0.5704 0.8585 0.9769 0.816 0.6878 1 0.9849 0.599532 0.5528
3520.385 0.60814 0.68651 0.432 0.415 0.7204 0.58311 0.7582 0.8671 0.59477 0.5312
3539.674 0.8322 1.0557 0.582 0.58923 1.2661 1.1684 0.9228 0.8059 0.60626 0.62403
3558.964 0.7577 0.508 0.483 0.7027 0.464 0.5421 0.425 0.5482 0.62531 0.362
3578.254 0.442 0.5098 0.5376 0.393 0.5473 1.2915 1.5379 1.2024 0.9889 0.8011
3597.544 0.8 0.68365 0.7539 0.64417 0.5336 0.5012 0.45 0.894 0.8468 0.8878
3616.833 0.8267 0.5464 0.5012 0.67602 0.8749 0.5664 0.63994 1.0543 0.5257 0.399
3636.123 0.9472 0.7506 0.7666 0.9581 0.61009 0.5134 0.60573 0.8308 1.2373 1.1497
3655.413 1.0095 1.1471 0.9144 0.725 0.9885 1.1031 0.8895 0.8495 0.8121 0.7069
3674.703 0.799 0.5011 0.60469 1.0131 0.9401 0.5787 0.413 0.7205 1.06 0.9183
3693.993 0.8182 0.9646 0.9116 0.9307 1.2252 1.3499 1.1725 1.1125 0.9069 0.61132
3713.282 0.67374 0.7375 1.0006 1.0386 0.795 0.60451 0.5173 0.62188 0.7338 0.9342
3732.572 1.0457 0.8613 0.7065 0.9779 0.8429 0.7643 0.979 0.8136 0.731 0.8287
3751.862 0.7353 0.66564 0.7769 0.7171 0.802 0.9274 1.0557 0.9976 0.489 0
3771.152 0.394 0.599764 0.387 0.8487 1.0377 0.8323 0.7551 0.9868 0.7207 0.484
3790.441 0.8307 0.67283 0.364 0.917 1.4014 1.1353 1.0062 0.9353 0.752 0.7958
3809.731 0.9276 1.0146 0.8445 0.5204 0.66256 0.8074 0.9141 1.2093 1.0467 0.7541
3829.021 0.9354 1.0453 1.055 1.2739 1.2263 0.8987 0.8259 1.0773 1.0197 0.63807
3848.311 0.335 0.5386 0.8421 0.6954 0.61203 0.746 0.8006 0.7135 0.8293 0.8641
3867.601 0.938 0.9339 0.748 0.64478 0.6991 0.8614 0.8603 1.1171 1.783 1.793
3886.890 1.2664 1.1743 1.0606 0.8616 1.0619 0.9872 0.66729 0.9303 1.2672 1.2788
3906.180 1.016 0.7181 0.69228 0.9728 1.1064 0.66905 0.7407 1.408 1.3435 1.0675
3925.470 0.7844 0.64085 0.68319 0.596806 0.763 0.9488 1.1595 1.1714 0.8413 0.7102
3944.760 0.8628 0.7568 0.5423 0.65398 0.7047 0.9414 1.3091 1.1826 1.0262 1.4753
3964.049 1.173 0.7057 1.0694 0.67155 0.9537 1.593 1.3285 1.1219 0.9492 0.69162
3983.339 0.7828 1.3233 1.2176 1.3651 1.586 1.1555 0.7879 0.6978 0.9989 1.1117
##END=
