##TITLE=3-Fluorophenylacetone
##JCAMP-DX=4.24
##DATA TYPE=INFRARED SPECTRUM
##ORIGIN=EPA-IR VAPOR PHASE LIBRARY
##OWNER=SRD/NIST
Collection (C) 2018 copyright by the U.S. Secretary of Commerce
on behalf of the United States of America. All rights reserved.
##CAS REGISTRY NO=1737-19-5
##MOLFORM=C 9 H 9 F O
##$NIST SOURCE=MSDC-IR
##STATE=gas
##XUNITS=1/CM
##YUNITS=ABSORBANCE
##XFACTOR=1.
##YFACTOR=0.001
##DELTAX=1.92898
##FIRSTX=549.8
##LASTX=4000.7
##FIRSTY=8.064
##MAXX=4000.7
##MINX=549.759
##MAXY=0.097004
##MINY=0
##NPOINTS=1790
##XYDATA=(X++(Y..Y))
549.759 8.064 7.384 7.404 7.134 6.574 6.464 6.684 7.524 7.584 6.654
569.049 6.614 6.194 4.774 3.014 2.624 3.844 3.574 3.014 3.154 2.134
588.339 1.2461 1.6864 2.294 2.614 2.004 1.5249 1.776 1.964 2.094 2.264
607.628 2.634 2.384 1.7604 1.1787 1.6614 2.144 2.014 2.224 2.084 2.354
626.918 2.684 2.594 2.724 2.534 2.334 2.524 2.994 3.624 3.444 2.894
646.208 2.474 2.474 2.394 2.704 3.314 3.174 3.474 3.554 3.124 3.654
665.498 4.744 5.954 7.544 8.964 10.474 12.434 14.784 17.334 19.934 22.874
684.787 25.704 27.404 26.664 23.734 21.264 19.064 16.434 14.104 11.884 9.744
704.077 7.704 6.174 5.484 5.124 4.894 4.784 4.654 5.114 5.294 5.184
723.367 6.174 7.464 7.854 8.314 9.614 11.704 13.614 14.754 15.864 17.254
742.657 18.004 19.044 19.864 19.434 19.604 19.934 19.994 19.664 20.054 21.134
761.947 22.314 23.684 25.164 26.954 28.814 31.134 32.744 32.654 31.264 29.804
781.236 28.084 25.984 23.904 20.994 18.194 16.464 14.674 12.054 9.914 8.584
800.526 7.704 7.404 6.474 5.134 4.724 4.274 3.434 3.784 3.694 3.014
819.816 3.134 3.034 3.274 3.754 3.684 3.554 3.364 2.914 2.624 3.224
839.106 3.764 4.074 4.494 4.764 5.274 5.114 5.394 6.324 7.124 8.344
858.395 9.604 10.494 11.264 12.664 14.344 15.764 16.294 16.654 16.294 15.834
877.685 15.754 14.734 14.234 13.084 12.074 12.054 11.574 10.364 9.314 8.884
896.975 7.914 6.924 6.044 5.954 6.024 5.804 5.864 5.524 5.784 6.344
916.265 7.104 7.654 7.954 9.134 10.984 12.794 14.584 17.454 20.744 23.354
935.555 25.014 26.264 26.974 26.844 26.514 25.064 22.324 19.284 16.164 13.434
954.844 11.324 10.194 9.644 9.494 9.124 7.984 7.464 8.554 9.284 8.824
974.134 8.324 8.754 9.184 8.424 7.964 8.104 7.994 7.464 7.394 7.274
993.424 7.134 7.054 7.454 8.634 8.564 7.354 6.454 7.024 7.404 7.054
1012.714 6.934 6.824 7.074 6.944 6.564 6.194 6.154 6.044 5.574 4.984
1032.003 5.314 5.774 5.704 5.114 4.674 5.204 4.964 4.114 4.424 4.154
1051.293 3.144 3.584 4.154 4.394 4.694 4.794 4.794 6.124 6.804 6.514
1070.583 6.634 7.324 6.674 6.234 8.084 7.704 6.854 6.014 5.614 5.494
1089.873 5.274 6.334 4.804 3.774 4.184 5.094 6.574 6.034 5.814 5.694
1109.163 6.234 7.024 7.664 8.774 10.514 11.434 13.134 15.774 17.364 19.944
1128.452 25.184 30.334 35.394 41.004 45.304 49.854 54.234 58.644 60.104 59.524
1147.742 59.844 57.594 52.944 47.294 41.564 37.654 34.264 30.634 26.644 23.694
1167.032 22.654 21.174 19.234 17.924 16.804 16.684 17.644 17.304 16.294 16.584
1186.322 16.504 17.004 18.394 19.054 19.634 20.524 21.574 23.144 25.634 28.024
1205.611 30.244 31.834 33.264 35.234 38.114 40.354 42.124 42.044 42.004 41.944
1224.901 40.494 41.034 39.624 37.574 37.564 38.004 39.694 42.484 46.264 50.784
1244.191 54.914 59.264 63.434 66.924 69.714 71.614 71.804 70.784 69.244 65.674
1263.481 61.544 57.334 52.974 48.394 43.844 40.234 37.244 33.834 30.824 28.654
1282.771 26.134 24.114 22.464 20.914 19.864 19.194 18.114 17.284 16.794 16.204
1302.060 15.684 15.074 14.694 14.384 14.104 13.984 13.974 13.874 14.244 14.814
1321.350 15.104 15.264 15.404 15.434 15.324 15.554 15.744 15.864 16.194 16.784
1340.640 17.704 18.794 20.304 22.424 24.924 27.654 30.524 33.224 35.754 37.664
1359.930 38.614 38.404 37.344 35.524 32.754 29.374 25.704 22.344 19.584 17.434
1379.219 15.784 14.264 13.074 12.454 11.864 11.384 11.144 10.984 11.184 11.414
1398.509 11.484 11.684 11.784 12.114 12.654 12.984 13.384 13.864 14.524 15.374
1417.799 16.294 17.124 18.134 19.454 20.754 21.934 23.394 25.344 27.414 29.424
1437.089 31.294 33.204 34.954 36.234 36.974 37.304 37.234 36.474 35.404 33.644
1456.378 31.004 28.224 26.044 24.214 22.904 22.414 22.244 22.484 23.694 26.174
1475.668 29.924 34.924 40.954 46.984 51.544 54.024 54.434 53.914 52.204 49.384
1494.958 45.084 38.184 30.574 24.694 20.614 17.724 15.654 14.084 13.554 13.284
1514.248 12.964 13.074 12.904 12.514 12.144 11.794 11.304 10.844 10.614 10.084
1533.538 9.614 9.344 9.024 8.764 8.814 9.064 9.004 8.984 9.454 10.034
1552.827 10.774 11.574 12.534 13.744 14.764 15.964 17.734 19.934 22.074 24.684
1572.117 27.584 30.664 34.464 38.614 42.944 47.644 52.694 56.844 59.864 62.434
1591.407 64.124 65.344 65.524 64.834 63.724 62.234 61.234 61.394 62.854 64.414
1610.697 64.774 63.914 61.494 57.534 52.244 46.104 39.404 32.144 25.424 19.734
1629.986 15.264 12.384 10.614 9.314 8.414 7.914 7.494 6.984 6.684 6.474
1649.276 6.244 6.204 6.474 6.644 6.764 7.074 7.274 7.384 7.524 7.724
1668.566 8.244 8.594 8.784 9.494 10.254 10.704 11.284 11.784 12.614 13.874
1687.856 15.154 16.274 17.294 18.634 20.424 22.424 24.244 26.624 28.974 31.524
1707.146 34.904 38.654 42.854 47.904 53.624 60.364 67.704 74.494 81.344 87.544
1726.435 92.274 95.424 96.874 97.004 95.404 92.334 88.204 83.054 77.684 72.444
1745.725 67.364 62.324 57.574 53.004 48.854 44.574 40.414 36.624 32.774 29.504
1765.015 26.644 23.574 20.844 18.694 16.784 14.964 13.334 12.024 10.884 9.764
1784.305 8.714 7.954 7.414 6.844 6.304 5.834 5.344 5.024 4.724 4.454
1803.594 4.344 4.094 3.804 3.554 3.244 3.234 3.174 3.294 3.314 3.154
1822.884 3.164 3.034 3.074 3.204 3.384 3.434 3.414 3.394 3.384 3.634
1842.174 3.854 3.894 4.004 4.024 4.074 4.084 3.894 3.864 3.724 3.334
1861.464 3.114 2.964 2.674 2.674 2.814 2.564 2.334 2.374 2.524 2.404
1880.754 2.234 2.414 2.534 2.434 2.434 2.414 2.284 2.264 2.404 2.404
1900.043 2.164 2.134 2.294 2.514 2.654 2.774 2.884 2.994 3.104 3.204
1919.333 3.324 3.504 3.734 3.764 3.744 3.624 3.294 3.264 3.114 2.734
1938.623 2.664 2.644 2.474 2.304 2.254 2.254 2.124 2.014 1.9297 1.7836
1957.913 1.7993 1.5567 1.4752 1.7957 1.7613 1.5506 1.4876 1.637 1.8005 1.749
1977.202 1.8321 1.9335 1.879 1.7748 1.7864 1.8592 1.8752 1.882 1.935 1.994
1996.492 2.024 2.064 2.114 2.244 2.264 2.164 1.9239 1.8754 2.034 1.974
2015.782 1.9262 1.8979 1.8888 1.8734 1.8663 1.8154 1.6865 1.6846 1.6212 1.6545
2035.072 1.7607 1.78 1.6947 1.6944 1.5333 1.6259 1.8608 1.7263 1.7912 1.6954
2054.362 1.6697 1.7187 1.6859 1.602 1.5978 1.628 1.6042 1.8309 1.984 1.866
2073.651 1.6264 1.758 2.104 2.164 1.9509 1.9029 1.8917 1.6481 1.6203 1.8521
2092.941 1.994 2.004 1.964 1.9484 1.8484 1.6046 1.5037 1.6848 1.816 1.7343
2112.231 1.6737 1.6409 1.7061 1.6426 1.8146 1.8366 1.4563 1.5873 1.8879 1.953
2131.521 1.994 2.004 1.8429 1.8729 2.034 1.925 1.819 1.776 1.8372 2.054
2150.810 2.044 1.894 1.9048 2.024 2.014 1.8329 1.6875 1.6863 1.6817 1.6562
2170.100 1.7774 1.7939 1.7523 1.8802 2.064 2.134 2.104 1.994 1.8752 1.7962
2189.390 1.8128 1.9239 2.024 1.8917 1.7228 1.809 1.7776 1.578 1.5965 1.6906
2208.680 1.6702 1.5893 1.5048 1.6582 1.7608 1.6598 1.7474 1.6244 1.4646 1.551
2227.970 1.476 1.5775 1.7749 1.5595 1.5047 1.6217 1.71 1.7646 1.6988 1.6072
2247.259 1.5915 1.6812 1.6759 1.3774 1.1843 1.4594 1.559 1.4683 1.4251 1.4349
2266.549 1.4117 1.3492 1.3841 1.4405 1.4834 1.6663 1.7476 1.6161 1.5751 1.476
2285.839 1.4111 1.7283 1.8195 1.6673 1.8492 1.6692 1.4125 1.614 1.6222 1.5842
2305.129 1.6571 1.6632 1.6499 1.6903 1.7809 1.7163 1.6848 1.6714 1.7973 2.034
2324.418 2.024 2.024 1.9406 1.7141 1.405 1.5421 1.8485 1.7484 1.6682 1.6662
2343.708 1.6556 1.6743 1.7226 1.8741 2.054 2.004 1.8704 1.6922 1.7142 1.7079
2362.998 1.6405 1.8506 1.8352 1.8955 2.004 1.9487 2.084 2.154 2.094 1.7628
2382.288 1.7193 1.9212 1.6965 1.824 2.174 1.974 1.8416 1.974 2.014 1.891
2401.578 1.6715 1.5077 1.4329 1.672 1.8211 1.6873 1.7158 1.7464 1.7448 1.974
2420.867 2.104 2.014 1.994 1.7304 1.6987 1.8716 1.872 1.834 1.7725 1.729
2440.157 1.7507 1.7248 1.6892 1.9007 1.7174 1.317 1.3531 1.5852 1.388 1.3299
2459.447 1.6389 1.696 1.545 1.5297 1.5545 1.4215 1.3961 1.3391 1.336 1.617
2478.737 1.8165 1.8642 1.7956 1.5826 1.5754 1.9357 2.094 1.984 1.7425 1.8361
2498.026 2.104 1.7825 1.5087 1.6697 1.6876 1.6987 1.9033 2.024 1.9269 1.7846
2517.316 1.964 1.9489 1.6422 1.5093 1.6756 1.757 1.7692 1.7693 1.7599 1.8528
2536.606 1.7856 1.4315 1.2052 1.1572 1.2169 1.3404 1.1403 1.1658 1.4623 1.5679
2555.896 1.6087 1.525 1.667 1.8385 1.6178 1.8138 1.974 1.9289 1.7782 1.5569
2575.186 1.4689 1.3153 1.4791 1.8655 1.964 1.7122 1.487 1.4895 1.5125 1.4749
2594.475 1.3798 1.1471 1.4398 1.7057 1.7053 1.7506 1.7897 1.7293 1.4338 1.2824
2613.765 1.4231 1.4693 1.4465 1.4234 1.5475 1.418 1.4386 1.8343 1.5799 1.4613
2633.055 1.7018 1.4315 1.3614 1.5539 1.3845 1.2992 1.4613 1.4992 1.3422 1.1572
2652.345 1.0518 1.1264 1.02442 1.1755 1.2262 0.8923 1.1817 1.652 1.7322 1.7991
2671.634 1.7195 1.6629 1.7337 1.8457 1.8763 1.4374 1.2848 1.5564 1.4902 1.3946
2690.924 1.6413 1.8434 1.8832 2.044 1.9318 1.6396 1.3306 1.2581 1.3322 1.4324
2710.214 1.6565 1.663 1.8909 2.064 1.8908 1.6264 1.3523 1.333 1.2895 1.6158
2729.504 1.8447 1.4922 1.6385 2.074 2.174 1.898 1.4007 1.391 1.4475 1.3816
2748.794 1.5004 1.4006 1.3902 1.4872 1.6423 1.8156 1.964 1.6773 1.2099 1.2717
2768.083 1.13 0.723 0.727 1.02128 1.5142 1.7612 1.4218 1.4476 1.5134 1.4026
2787.373 1.679 1.787 1.7243 1.5629 1.577 1.8164 1.8422 1.984 2.104 1.974
2806.663 2.084 2.284 2.364 2.324 2.464 2.844 2.504 1.913 2.034 2.104
2825.953 2.134 2.314 2.464 2.554 2.424 2.594 2.934 2.964 3.264 3.144
2845.242 2.754 2.714 2.634 2.754 2.674 2.834 3.304 3.194 3.024 3.204
2864.532 3.154 3.184 3.384 3.194 3.134 3.374 3.624 3.724 4.154 4.694
2883.822 4.564 4.584 4.994 5.294 5.684 6.154 6.354 6.684 6.974 6.964
2903.112 7.324 8.044 8.634 8.874 9.294 10.004 10.494 10.974 11.634 12.124
2922.401 12.564 13.174 13.474 13.344 13.084 12.684 12.404 12.064 11.454 11.054
2941.691 10.214 9.684 9.394 9.304 9.054 8.714 9.004 8.894 8.784 9.024
2960.981 9.544 9.934 9.954 9.524 9.004 8.894 8.814 8.474 7.754 7.024
2980.271 6.844 6.764 6.334 6.034 5.554 5.194 5.584 5.394 4.994 5.754
2999.561 6.394 6.114 6.534 7.184 7.254 7.674 8.344 8.384 8.684 8.934
3018.850 8.784 8.554 8.494 8.584 8.264 8.304 8.704 9.164 9.534 9.694
3038.140 10.124 10.964 11.274 11.524 11.944 11.934 12.024 12.014 11.954 12.144
3057.430 11.964 11.624 11.564 11.784 11.834 12.044 12.284 11.914 11.834 12.054
3076.720 11.784 11.334 11.114 10.864 10.844 10.584 9.984 9.614 8.624 8.104
3096.009 7.964 7.214 6.484 5.824 5.444 5.004 4.544 4.284 4.124 4.174
3115.299 3.824 3.214 3.034 2.964 2.994 2.644 2.264 2.104 1.8506 2.114
3134.589 2.304 1.7174 1.2672 1.3718 1.5166 1.5965 1.4551 1.4793 1.3825 1.3296
3153.879 1.2699 1.2216 1.3338 1.2516 1.102 1.04772 1.3185 1.3754 1.2851 1.0692
3173.169 0.675 1.164 1.994 1.964 1.2617 1.1997 1.4009 1.0631 1.1525 1.2188
3192.458 1.1451 1.0919 1.4737 1.9445 1.4609 0.84 0.762 0.8581 0.8721 1.3278
3211.748 1.6605 1.3881 1.5673 1.7105 1.5955 1.4333 0.99787 0.72 0.9293 1.2525
3231.038 1.1283 0.714 0.99999 1.596 1.5215 1.581 1.29 0.75 0.712 0.851
3250.328 1.1297 1.2159 1.1699 1.2345 1.2342 1.2254 1.397 1.4688 1.5062 1.4617
3269.617 1.3427 0.8855 0.773 1.1163 1.237 0.745 0.264 0.8843 1.0945 0.78
3288.907 0.772 0.561 0.754 1.5383 1.7721 1.4556 1.214 1.3106 1.3553 1.2574
3308.197 1.3248 1.1013 1.1905 1.3973 1.1927 1.2954 1.732 1.6762 1.4424 1.3316
3327.487 0.72 0.425 1.04268 1.1573 0.8959 0.589 0.553 1.0257 0.99344 0.9378
3346.777 1.04053 0.8619 1.2554 1.6232 0.843 0.814 1.4805 1.5036 1.3055 1.0722
3366.066 0.9371 1.2297 1.5443 1.1651 1.03251 1.1149 1.1703 1.0989 0.9425 0.99838
3385.356 1.02142 0.94941 0.316 0.742 1.576 1.3758 1.0659 0.9705 1.4907 1.876
3404.646 1.3763 1.5972 2.234 1.9339 1.7313 1.9077 1.9108 1.8464 1.8924 2.094
3423.936 2.064 2.284 2.384 2.324 2.714 2.704 2.664 3.054 3.294 2.964
3443.225 3.324 3.164 3.044 3.044 2.564 3.084 3.014 2.524 2.234 1.964
3462.515 1.549 1.8443 2.504 2.284 1.964 1.8945 2.084 1.8321 1.5079 2.024
3481.805 1.994 1.8051 1.5584 0.9267 1.2938 1.4088 1.3872 1.1751 0.788 1.1826
3501.095 1.2039 1.2521 1.3309 1.4068 1.4957 1.4154 0.99711 0.5 0.827 1.2272
3520.385 1.3012 1.1326 0.846 0.743 0.8804 1.3414 0.854 0 0.299 1.0314
3539.674 1.5739 1.862 1.4529 1.1402 1.2258 1.1841 1.0708 1.02441 1.17 1.01244
3558.964 0.95231 1.1367 1.555 1.3963 1.4145 1.529 1.1742 1.2261 1.4571 0.878
3578.254 0.402 1.0575 1.4355 1.5395 1.296 0.9402 0.97726 0.692 0.462 0.8695
3597.544 1.5029 1.6414 0.9198 0.497 0.581 0.525 0.418 0.8801 1.1735 0.789
3616.833 0.699 0.727 0.704 0.621 0.646 0.694 0.9421 0.829 0.613 1.1976
3636.123 1.1323 0.665 0.609 0.592 0.355 0.275 0.538 0.537 0.679 0.98448
3655.413 0.83 0.436 0.655 1.1619 0.98244 0.605 0.822 1.1697 0.8837 0.661
3674.703 1.0217 0.826 0.8601 1.1438 0.644 0.579 0.646 0.574 1.0804 1.148
3693.993 0.536 0.331 0.609 1.1438 1.1953 1.1287 1.01485 0.8919 1.1073 1.1255
3713.282 1.0843 0.685 0.321 0.372 0.451 0.113 0.499 0.843 0.82 0.835
3732.572 0.8818 1.7649 1.5585 0.564 0.662 0.812 0.656 0.753 0.782 0.9245
3751.862 0.698 0.738 1.4018 1.8062 1.3638 1.02984 0.546 0.3 0.787 1.03722
3771.152 0.8698 0.769 1.0917 1.2043 0.9435 0.268 0.608 1.06 0.834 1.5327
3790.441 1.994 1.4895 1.3063 1.6788 1.2567 0.536 0.96662 1.45 1.2645 0.9402
3809.731 0.727 0.960662 1.1743 0.841 0.624 0.97526 1.3322 0.851 0.794 1.1728
3829.021 1.2648 1.2218 1.1916 1.01343 0.728 0.99692 1.2341 1.2238 1.1834 1.5383
3848.311 1.359 0.707 0.62 1.03932 1.1981 0.615 0.456 1.1942 0.98251 0.708
3867.601 0.839 0.751 1.0922 1.0617 1.2569 1.0688 0.546 0.706 0.8823 1.2229
3886.890 0.98461 0.8901 1.2415 0.9117 1.00308 1.3606 1.2873 1.2627 1.0549 0.768
3906.180 0.9192 1.3024 1.00829 0.9336 0.719 0.296 0.705 0.98934 0.817 0.541
3925.470 1.0689 1.1801 0.759 0.51 0.615 0.799 0.921 0.659 0.642 0.556
3944.760 0.235 0.447 0.8541 1.334 1.256 1.1565 1.0598 0.807 0.658 0.68
3964.049 1.293 1.6659 1.4315 1.2625 1.1289 1.512 1.1961 0.99911 1.2959 0.731
3983.339 0.725 1.2154 1.2622 1.03988 0.953253 1.5327 1.7768 0.95932 0.585 0.913
##END=
