##TITLE=2-Fluoro-6-(trifluoromethyl)acetophenone
##JCAMP-DX=4.24
##DATA TYPE=INFRARED SPECTRUM
##ORIGIN=EPA-IR VAPOR PHASE LIBRARY
##OWNER=SRD/NIST
Collection (C) 2018 copyright by the U.S. Secretary of Commerce
on behalf of the United States of America. All rights reserved.
##CAS REGISTRY NO=174013-29-7
##MOLFORM=C 9 H 6 F 4 O
##$NIST SOURCE=MSDC-IR
##STATE=gas
##XUNITS=1/CM
##YUNITS=ABSORBANCE
##XFACTOR=1.
##YFACTOR=0.001
##DELTAX=1.92898
##FIRSTX=549.8
##LASTX=4000.7
##FIRSTY=2.7
##MAXX=4000.7
##MINX=549.759
##MAXY=0.18531
##MINY=0
##NPOINTS=1790
##XYDATA=(X++(Y..Y))
549.759 2.7 3.58 3.66 4.17 4.37 4.06 3.34 2.62 2.85 2.88
569.049 3.58 4.48 4.34 4.48 4.47 4.34 4.58 4.23 3.47 2.55
588.339 2.78 4.49 4.2 3.67 4.82 5.46 5.9 6.52 6.49 6.62
607.628 6.78 6.25 5.32 4.31 3.62 2.9 2.26 1.7471 2.0342 1.9298
626.918 1.8516 2.26 2.4 2.6 3.01 3.22 3.25 3.23 3.22 3.76
646.208 3.41 3.14 3.17 2.61 2.16 2.0932 1.9983 1.9649 2.14 1.8931
665.498 1.9626 2.43 1.906 1.4303 1.5461 1.6605 1.4708 1.2559 1.4877 1.7161
684.787 2.21 2.25 2.0358 2.0936 2.48 3.46 4.85 6.3 8.05 10.46
704.077 12.49 13.7 14.64 14.87 14.16 12.8 11.03 9.2 7.15 5.61
723.367 4.6 4.36 5.34 6.59 8.22 10.19 12.3 14.57 16.95 21.04
742.657 23.43 19.4 14.94 13.52 11.77 9.75 8.22 6.77 6.34 6.16
761.947 6.59 7.53 7.93 8.3 8.28 7.69 7.47 7.12 5.92 4.7
781.236 3.86 4.14 5.55 7.01 9.34 12.28 14.86 17.3 19.59 23.67
800.526 30.24 31.1 23.58 18.59 17.16 14.93 12.09 9.19 6.36 4.73
819.816 3.87 2.85 2.55 2.6 2.67 2.36 2.0504 2.12 1.9548 1.8475
839.106 2.0719 2.0552 2.0668 2.22 2.16 2.41 2.77 2.5 2.57 2.99
858.395 2.76 1.9957 2.0193 1.9167 2.0535 2.7 3 3.41 3.18 3.26
877.685 4.03 5.12 6.07 7.72 10.55 13.81 17.93 23.74 29.68 35.36
896.975 40.84 44.18 45.21 44.16 41.89 37.86 31.72 25.29 19.52 14.7
916.265 11.87 9.93 7.86 6.62 5.82 5.4 5.21 5.05 4.98 5.18
935.555 5.34 4.93 4.85 5.23 5.31 5.67 5.95 6.13 6.83 7.46
954.844 7.89 8.52 9.43 10.1 10.33 10.38 10.3 10.41 9.57 8.29
974.134 7.87 6.93 6.33 5.94 5.27 4.97 4.79 4.44 4.84 5.28
993.424 4.74 4.59 4.7 4.98 5.23 5.4 5.9 6.03 6.14 5.79
1012.714 6.01 7.4 7.75 7.38 6.88 6.29 6.54 6.72 6.1 6.39
1032.003 7.05 7.01 7.32 7.64 8.31 8.6 9.56 11.03 10.88 11.56
1051.293 12.11 11.61 11.05 10.5 9.34 8.15 7.41 6.17 5.43 5.56
1070.583 5.73 5.95 6.29 5.65 5.39 5.56 5.24 6.23 7.7 8.4
1089.873 7.83 8.89 9.99 9 9.96 11.04 9.51 8.36 9.23 9.95
1109.163 11.28 13.61 16.75 20.36 23.64 28.36 34.22 39.96 47.23 56.04
1128.452 62.42 67.98 72.06 73.55 75.06 74.96 75.26 76.8 79.86 86.21
1147.742 93.8 101.66 109.77 116.26 120.78 123.96 126.64 128.82 130.42 133.33
1167.032 136.4 139.44 142.76 143.87 141.05 136.13 129.3 119.68 107.26 94.49
1186.322 83.06 71.44 60.63 51.79 44.81 38.01 32.6 29.46 26.7 24.81
1205.611 23.57 21.4 19.81 20.41 21.46 23.02 26.7 29.62 32.76 36.91
1224.901 38.5 39.62 41.62 43.51 45.39 45.95 46.25 47.12 48.93 51.96
1244.191 57.91 67.37 78.55 88.4 94.93 98.03 98.28 95.78 89.33 78.14
1263.481 63.97 49.93 37.69 29.17 24.11 20.72 18.5 16.97 16.13 16.15
1282.771 16.72 17.49 18.33 19.71 21.74 24.03 26.47 29.25 32.5 36.73
1302.060 42.98 51.78 63.14 78.31 97.27 118.21 139.44 158.63 173.51 182.71
1321.350 185.31 180.47 167.46 147.5 123.43 98.32 75.52 57.16 43.3 33.12
1340.640 26.1 21.81 19.28 17.96 17.85 18.51 19.64 21.24 23.02 24.87
1359.930 26.43 27.41 27.39 26.34 24.67 22.3 19.67 16.88 14.35 12.23
1379.219 10.2 8.91 7.85 6.98 6.35 5.92 5.82 5.72 5.51 5.36
1398.509 5.46 5.41 5.46 5.71 5.94 6.3 6.69 6.89 7.2 7.5
1417.799 7.75 8.25 8.88 9.4 9.81 10.4 11.01 11.79 12.93 14.27
1437.089 16.16 18.3 20.7 23.69 27.21 31 34.6 37.91 40.52 41.79
1456.378 41.76 40.69 38.44 35.2 31.64 27.72 24.08 21.48 19.72 18.31
1475.668 17.32 16.46 15 13.16 11.61 10.03 8.58 7.3 6.33 5.64
1494.958 5.27 5.09 4.77 4.51 4.31 4.18 4.08 4.15 4.25 4.1
1514.248 4.07 4.01 3.82 3.82 3.97 3.96 3.78 3.73 3.62 3.56
1533.538 3.99 4.19 4.06 4.11 4.24 4.34 4.44 4.3 3.98 3.99
1552.827 4.09 4.33 4.65 4.81 5.19 5.45 5.73 6.26 6.93 7.44
1572.117 7.79 8.53 9.08 9.36 9.75 9.94 9.85 9.71 9.01 8.27
1591.407 7.71 7.23 7.49 7.93 8.03 8.27 8.98 9.7 10.24 10.81
1610.697 10.99 10.96 10.91 10.55 9.69 8.65 7.66 6.68 5.78 5.06
1629.986 4.37 3.74 3.56 3.63 3.57 3.75 4 4.07 4.04 4
1649.276 4.09 4.11 3.96 3.91 3.91 3.84 3.99 4.07 3.87 3.81
1668.566 3.9 3.91 3.9 4.08 4.26 4.45 4.68 4.87 5.04 5.14
1687.856 5.29 5.45 5.94 6.65 6.99 7.49 8.37 9.1 9.83 10.61
1707.146 11.54 12.8 14.44 16.68 19.62 23.63 28.93 35.52 43.3 51.44
1726.435 59.94 68.32 75.83 80.83 81.37 76.64 68.6 59.25 50.47 41.56
1745.725 33.06 25.88 20.24 16.21 13.71 12.02 10.66 9.57 8.72 8.13
1765.015 7.51 7.11 6.61 6 5.61 5.38 5.09 4.74 4.61 4.54
1784.305 4.44 4.3 4.22 4.21 4.22 4.27 4.26 4.28 4.3 4.17
1803.594 4.1 4.18 3.91 3.7 3.55 3.24 2.9 2.6 2.48 2.26
1822.884 2.13 2.0627 2.0856 2.0211 1.9552 2.0914 2.14 2.0265 1.9874 2.051
1842.174 2.0819 2.0123 1.8213 1.8136 1.9966 2.0934 2.15 2.0267 2.0462 2.25
1861.464 2.46 2.55 2.59 2.8 2.87 2.89 2.97 2.73 2.42 2.33
1880.754 2.091 1.7885 1.7251 1.7543 1.6028 1.5556 1.5724 1.3318 1.14873 1.3491
1900.043 1.4957 1.4204 1.4464 1.4764 1.5148 1.5349 1.4343 1.4885 1.7018 1.8451
1919.333 1.7988 1.5603 1.6061 1.8757 1.9198 2.15 2.39 2.41 2.49 2.59
1938.623 2.8 2.86 2.58 2.43 2.42 2.23 1.9551 1.7017 1.6492 1.5151
1957.913 1.2695 1.3152 1.5155 1.4107 1.2414 1.4136 1.4919 1.4128 1.4396 1.3418
1977.202 1.2376 1.3244 1.2949 1.3305 1.3028 1.227 1.2265 1.11775 1.10927 1.16048
1996.492 1.2434 1.2484 1.0607 1.0749 1.10598 1.0671 1.2146 1.2411 1.2629 1.3449
2015.782 1.4778 1.5125 1.29 1.3559 1.4694 1.334 1.2958 1.4035 1.5168 1.4747
2035.072 1.3184 1.17516 1.15977 1.2944 1.2143 1.17745 1.3398 1.3762 1.1607 0.943
2054.362 1.0706 1.0995 1.0617 1.0733 1.0884 1.14099 1.14812 1.2388 1.3624 1.4698
2073.651 1.5318 1.3712 1.3812 1.7016 1.5422 1.3852 1.5394 1.4189 1.4546 1.5898
2092.941 1.3464 1.272 1.3477 1.17319 1.0325 1.0648 1.2315 1.012 0.915 1.0592
2112.231 0.967 0.947 0.943 1.0643 1.0708 0.996 1.0574 1.15747 1.0643 1.0762
2131.521 1.2474 1.2832 1.12518 1.11465 1.2365 1.15036 1.12873 1.2859 1.4412 1.19965
2150.810 1.16775 1.2491 1.122 1.3252 1.425 1.3398 1.4059 1.2913 1.2642 1.2878
2170.100 1.12058 1 1.0754 1.12911 1.14035 1.2251 1.0921 1.0713 1.1707 1.0336
2189.390 0.995 1.12601 1.0907 1.061 1.0478 0.991 1.032 1.18345 1.17025 1.10877
2208.680 1.17579 1.14288 0.998 1.0298 1.0866 1.1497 1.2641 1.14186 1.11379 1.3481
2227.970 1.3172 1.3275 1.4804 1.3728 1.11503 0.962 1.2429 1.4881 1.3437 1.15408
2247.259 1.0916 1.10301 1.4183 1.5268 1.3181 1.4191 1.4605 1.3281 1.347 1.5301
2266.549 1.62 1.4974 1.4935 1.5308 1.2969 1.1707 1.14576 1.0651 1.14666 1.10266
2285.839 1.0766 1.14659 1.0464 1.13724 1.4439 1.316 0.985 1.0325 1.19449 1.20613
2305.129 1.18519 1.20216 1.2255 1.3449 1.4133 1.3969 1.5129 1.6134 1.8432 1.8134
2324.418 1.617 1.7333 1.6334 1.5501 1.452 1.4359 1.5767 1.6121 1.6168 1.4352
2343.708 1.3107 1.3251 1.5149 1.5539 1.4083 1.3602 1.4122 1.3526 1.445 1.6262
2362.998 1.5057 1.3864 1.20061 1.16709 1.17767 1.0981 0.995 0.995 1.2213 1.16367
2382.288 1.0238 0.929 0.843 0.86 0.918 1.0147 0.983 1.0486 1.0374 1.0697
2401.578 1.0932 0.978 0.935 1.0706 1.0243 0.806 0.868 0.895 0.795 0.92
2420.867 1.0344 1.15404 1.19293 1.0642 1.0586 1.0867 0.967 0.987 1.2177 1.237
2440.157 1.12742 1.20811 1.3151 1.0767 0.984 1.0208 1.0173 1.11949 1.14004 1.13633
2459.447 1.15668 1.0821 1.0206 1.0766 1.2737 1.3546 1.11275 1.043 1.2109 1.3526
2478.737 1.4385 1.3352 1.16468 1.3463 1.4827 1.19254 1.1346 1.11203 1.14276 1.19245
2498.026 1.12014 1.3241 1.5266 1.5905 1.4738 1.19036 1.009 1.0806 1.2654 1.18771
2517.316 0.873 0.814 0.861 0.885 0.867 0.934 1.15018 1.0248 0.877 0.992
2536.606 1.0887 0.74 0.35 0.664 0.882 0.902 1.0381 1.13794 1.1355 1.10529
2555.896 1.1227 0.959 0.858 1 1.2311 1.3055 0.974 0.745 0.895 1.0257
2575.186 1.0867 0.941 0.976 0.996 1.0691 1.14175 1.0279 1.3078 1.2936 1.16707
2594.475 1.0486 0.991 1.14084 1.0905 1.2816 1.0797 0.88 1.0208 0.848 1.0606
2613.765 1.1936 0.948 0.863 0.869 0.955 1.036 0.923 0.908 1.12747 1.0312
2633.055 1.0248 1.19275 1.12598 0.878 0.709 0.797 1 1.0407 0.683 0.386
2652.345 0.611 0.661 0.273 0.41 0.678 0.686 0.597 0.463 0.552 0.778
2671.634 0.672 0.249 0.288 0.588 0.83 0.821 0.609 0.635 0.604 0.536
2690.924 0.698 0.918 0.909 0.959 1.2233 1.13094 0.87 0.883 1.10981 0.777
2710.214 0.545 0.739 0.953 0.996 0.749 0.977 1.18371 1.0529 0.819 0.58
2729.504 0.72 0.978 0.814 0.402 0.249 0.634 0.89 0.816 0.751 0.656
2748.794 0.657 0.659 0.781 0.929 0.803 0.498 0.301 0.264 0.437 0.608
2768.083 0.773 0.683 0.696 0.75 0.607 0.692 0.756 0.843 0.908 0.657
2787.373 0.344 0.642 0.729 0.519 0.786 0.69 0.05 0.175 0.684 0.633
2806.663 0.517 0.849 0.964 0.886 0.799 0.536 0.612 0.64 0.621 0.746
2825.953 0.908 1.074 1.0618 1.0555 0.702 0.544 0.771 0.825 0.687 0.481
2845.242 0.605 0.492 0.338 0.888 1.0801 0.91 1.20559 1.14588 1.0808 1.0994
2864.532 0.831 0.519 0.625 0.734 0.74 1.17172 1.2481 1.0893 1.16657 1.0188
2883.822 0.638 0.629 0.604 0.841 1.14039 1.14724 1.2854 1.1916 1.2358 1.3001
2903.112 1.0669 1.0773 1.2128 1.13899 1.16917 1.2491 1.2081 0.993 1.0874 1.3142
2922.401 1.2256 1.2139 1.6407 1.6255 1.4022 1.9371 2.0703 1.9059 1.7004 1.5535
2941.691 1.4988 1.2831 1.5151 1.5788 1.4128 1.3155 1.0608 1.2235 1.0614 0.926
2960.981 1.2316 1.4236 1.4577 1.2675 1.3399 1.3411 1.0419 1.15299 1.5836 1.5981
2980.271 1.5301 1.5881 1.4749 1.0804 0.966 1.3686 1.6684 1.5299 1.4653 1.7937
2999.561 2.24 2.29 2.17 2.17 2.47 2.77 2.52 2.63 2.36 2.26
3018.850 2.53 2.57 2.66 2.37 2.13 2.24 2.29 2.0349 1.8082 2.0351
3038.140 2.2 2.13 1.9235 1.6072 1.5934 1.5862 1.8915 1.9471 1.5991 1.9214
3057.430 2.22 2.0952 1.8005 1.8777 2.14 2.21 2.21 2.0983 2.73 3.2
3076.720 3.09 3.11 3.04 2.85 2.94 3.09 3.13 3.28 3.33 3.24
3096.009 3.35 2.98 2.66 2.47 1.7972 1.4608 1.4125 1.2899 1.19031 0.939
3115.299 0.791 1.0726 1.0869 1.0371 0.916 0.765 1.0328 1.11502 0.899 1.19615
3134.589 1.0415 0.883 1.12431 1.219 1.0604 0.309 0.591 0.872 0.853 1.0688
3153.879 0.658 0.727 1.16986 1.0901 1 1.14099 1.2659 1.2804 1.4275 1.3055
3173.169 1.074 1.2248 1.0115 0.935 1.0987 1.005 0.778 0.6 0.893 1.5004
3192.458 1.6685 1.3875 1.4306 1.2236 0.603 0.592 0.578 0.678 0.924 0.859
3211.748 0.803 0.819 0.941 1.0649 0.938 0.803 0.812 0.757 0.935 1.0596
3231.038 1.007 0.787 0.772 0.844 0.572 0.665 0.814 0.451 0.212 0.598
3250.328 0.476 0.307 0.638 0.802 1.2271 1.19466 0.844 0.83 0.617 0.538
3269.617 0.909 0.995 0.99 0.937 1.0328 0.982 0.548 0.665 1.0714 1.0285
3288.907 0.93 1.20401 0.899 0.757 0.963 0.702 0.821 0.955 0.469 0.497
3308.197 0.928 0.744 0.902 1.14908 0.784 0.522 0.764 0.961 0.516 0.35
3327.487 0.757 1.10989 1.16942 1.14945 1.3996 1.024 0.963 1.0992 0.343 0.273
3346.777 0.638 0.89 0.98 0.856 0.733 0.888 1.2816 1.0485 0.882 0.83
3366.066 0.455 0.9 1.0454 1.11288 1.5013 1.2524 1.277 1.3673 1.2908 1.221
3385.356 1.1226 1.07 0.858 0.763 0.823 0.542 0.762 1.4066 1.13291 0.853
3404.646 1.16806 1.10252 0.719 0.901 1.2567 1.0483 1.4026 1.3557 0.822 1.2997
3423.936 1.5419 1.2195 1.4703 1.8981 2.0862 2.095 1.732 1.503 1.956 2.3
3443.225 1.9968 2.0536 2.0347 2.0867 2.19 2.076 1.9924 2.0757 2.13 1.75
3462.515 1.5262 1.2206 0.914 1.4444 2.0302 1.81 1.3517 1.6081 1.5947 1.0528
3481.805 0.848 0.85 1.11216 1.0347 0.926 1.0457 1.0618 1.16565 1.17404 0.679
3501.095 0.716 1.3913 1.3805 1.5806 1.5658 1 1.0157 0.692 0.405 0.911
3520.385 1.0309 0.827 0.93 1.13662 1.3116 0.987 0.595 0.32 1.001 1.6229
3539.674 0.935 0.445 0.127 0.222 0.8 0.735 0.172 0.11 0.09 0.196
3558.964 0.701 1.13585 1.2963 0.967 1.0234 1.4914 1.3367 0.718 0.711 0.914
3578.254 0.892 0.892 0.511 0.698 0.993 0.681 0.46 0.337 0.01 0.277
3597.544 0.928 0.83 0.39 0.472 0.758 0.908 0.987 0.998 1.2258 1.10593
3616.833 0.949 1.0948 0.675 0.431 0.863 1.2795 1.4697 1.0668 0.598 0.631
3636.123 0.592 0.222 0.629 1.15411 0.787 0.687 0.934 0.861 0.826 1.20951
3655.413 1.327 1.3434 1.3131 1.2169 0.927 0.471 1.0485 1.5376 1.27 1.2435
3674.703 1.15814 0.716 0.896 0.959 0.649 0.742 0.911 1.0432 0.734 0.566
3693.993 0.782 1.2816 1.413 0.753 0.827 1.0716 0.812 0.815 0.585 0.635
3713.282 1.10889 1.2472 1.0939 0.698 1.0814 1.447 1.2754 1.2257 0.924 0.797
3732.572 0.958 0.82 0.243 0.262 0.787 1.13167 1.5383 1.2904 0.983 0.919
3751.862 0.802 1.004 1.0595 1.0496 1.004 0.759 0.636 0.834 1.0748 1.10529
3771.152 1.0251 0.645 0.39 0.71 0.807 0.653 0.761 0.656 0.47 0.682
3790.441 0.903 1.2954 1.5259 1.15506 0.607 0.923 1.2233 0.968 1.19831 0.767
3809.731 0.369 0.665 0.584 0.918 1.3365 1 0.708 0.978 1.0563 0.484
3829.021 0.52 0.939 1.13828 1.19596 1.18435 0.885 0.722 1.007 0.946 0.524
3848.311 0.571 0.769 0.632 0.654 0.685 0.625 0.498 0.647 0.812 0.768
3867.601 0.881 0.64 0.822 1.212 1.13777 1.0918 1.16326 1.5922 1.5333 1.13558
3886.890 0.911 0.904 1.4115 1.8512 1.20214 0.665 0.929 0.728 0.609 1.19881
3906.180 1.0892 0.514 0.645 0.847 0.559 0.756 0.838 0.412 0.311 0.568
3925.470 1.0412 1.10236 0.943 0.884 0.771 0.488 0.671 0.601 0.609 0.877
3944.760 0.993 1.3162 1.4955 1.10388 0.881 1.15334 1.12295 1.004 1.11518 1.2622
3964.049 1.4023 1.447 1.3162 1.5512 1.451 1.0786 0.723 0.61 0.165 0
3983.339 0.728 0.267 0.32 1.2906 1.15607 0.758 1.19962 1.2375 0.786 0.754
##END=
