##TITLE=Chromone-3-carboxaldehyde
##JCAMP-DX=4.24
##DATA TYPE=INFRARED SPECTRUM
##ORIGIN=EPA-IR VAPOR PHASE LIBRARY
##OWNER=SRD/NIST
Collection (C) 2018 copyright by the U.S. Secretary of Commerce
on behalf of the United States of America. All rights reserved.
##CAS REGISTRY NO=17422-74-1
##MOLFORM=C 10 H 6 O 3
##$NIST SOURCE=MSDC-IR
##STATE=gas
##XUNITS=1/CM
##YUNITS=ABSORBANCE
##XFACTOR=1.
##YFACTOR=0.001
##DELTAX=1.929
##FIRSTX=549.8
##LASTX=4000.8
##FIRSTY=1.912
##MAXX=4000.75
##MINX=549.766
##MAXY=0.032602
##MINY=0
##NPOINTS=1790
##XYDATA=(X++(Y..Y))
549.766 1.912 1.842 1.682 1.532 1.4193 1.4049 1.1521 0.8581 0.8203 0.9905
569.056 1.0503 1.0271 1.0903 1.0295 0.9657 0.8882 0.8652 1.0624 1.0588 1.051
588.346 1.1393 1.0327 0.9485 0.9514 0.8688 0.8255 0.8973 0.7844 0.7016 0.7441
607.636 0.6836 0.67 0.6956 0.6634 0.6858 0.7997 0.8482 0.8556 0.8897 0.8902
626.926 0.9845 1.0241 1.0426 1.2139 1.3711 1.492 1.842 2.092 2.062 2.222
646.216 2.332 2.232 2.252 2.002 1.522 1.1382 1.0991 1.0582 0.9564 1.0145
665.506 1.0829 1.1906 1.1198 1.1049 1.3605 1.592 1.732 1.942 2.042 2.122
684.796 2.322 2.522 2.542 2.212 1.922 1.832 1.682 1.502 1.3713 1.2407
704.086 1.1429 1.0646 1.0066 1.0125 0.997 0.9939 1.0293 0.9989 1.0122 1.0876
723.376 1.1521 1.2364 1.3982 1.682 2.042 2.392 2.802 3.252 3.712 4.162
742.666 4.622 5.312 6.082 6.612 7.282 8.412 10.092 12.902 16.782 18.982
761.956 18.102 17.062 16.822 16.152 15.162 13.352 10.422 7.342 5.032 3.572
781.246 2.672 2.172 1.852 1.662 1.612 1.522 1.4138 1.308 1.2196 1.2747
800.536 1.3593 1.2441 1.1342 1.1683 1.1757 1.2243 1.2406 1.0994 1.0257 1.0368
819.826 0.9461 0.9306 0.8815 0.8193 0.9068 0.9766 1.009 1.0514 1.2183 1.542
839.116 1.782 1.992 2.152 2.112 2.142 2.232 2.152 2.032 1.782 1.452
858.406 1.2224 1.057 1.0088 0.9937 0.8868 0.9031 0.9812 0.9766 1.0036 1.0415
877.696 1.0485 1.0064 0.8877 0.863 0.9556 0.957 0.8697 0.7645 0.7263 0.7887
896.986 0.8902 0.93 0.9021 0.8403 0.8145 0.8003 0.8058 0.8489 0.8766 0.9061
916.276 0.9874 1.1246 1.2205 1.3387 1.522 1.692 1.832 1.932 2.032 2.052
935.566 1.972 1.832 1.602 1.3684 1.2443 1.1285 1.0038 0.907 0.7831 0.7321
954.856 0.7545 0.7433 0.681 0.596 0.5655 0.5375 0.50858 0.5269 0.5979 0.6247
974.146 0.5513 0.5681 0.6747 0.7408 0.7803 0.7667 0.7135 0.6799 0.6723 0.6751
993.436 0.6893 0.6773 0.6261 0.6051 0.6171 0.6533 0.6701 0.6124 0.616 0.6556
1012.726 0.6108 0.6452 0.7767 0.9547 1.1162 1.2474 1.3377 1.3377 1.2561 1.1909
1032.016 1.1876 1.0018 0.8241 0.7554 0.6518 0.6212 0.6251 0.6386 0.6595 0.6356
1051.306 0.6072 0.6657 0.6837 0.6182 0.6801 0.7064 0.6751 0.6861 0.7073 0.7343
1070.596 0.7132 0.758 0.8306 0.7805 0.7309 0.7953 0.8884 0.9008 0.9009 0.9879
1089.886 1.0173 1.0594 1.2027 1.2957 1.2876 1.2857 1.316 1.3322 1.3092 1.2671
1109.176 1.2162 1.1537 1.1154 1.0353 1.021 1.0125 1.0497 1.143 1.2084 1.3709
1128.467 1.542 1.692 1.822 2.042 2.242 2.382 2.502 2.472 2.442 2.432
1147.757 2.362 2.122 1.802 1.552 1.4156 1.3981 1.432 1.532 1.702 1.882
1167.047 2.022 2.152 2.222 2.322 2.352 2.282 2.262 2.282 2.222 1.992
1186.337 1.792 1.682 1.522 1.3606 1.2832 1.1379 1.0483 1.1064 1.1844 1.303
1205.627 1.462 1.572 1.742 2.162 2.702 3.322 3.922 4.482 4.972 5.172
1224.917 5.162 5.002 4.622 4.082 3.402 2.612 2.072 1.752 1.522 1.4164
1244.207 1.3626 1.397 1.422 1.492 1.662 1.852 2.102 2.462 2.852 3.172
1263.497 3.462 3.602 3.632 3.592 3.422 3.102 2.742 2.462 2.312 2.322
1282.787 2.592 3.142 3.972 5.132 6.642 8.492 10.452 12.022 12.942 13.542
1302.077 13.972 14.262 14.512 14.362 13.692 13.152 13.112 13.272 13.372 13.212
1321.367 12.782 12.162 11.402 10.652 9.932 9.332 8.772 8.192 7.572 6.912
1340.657 6.182 5.412 4.742 4.402 4.562 5.092 5.702 5.992 6.022 6.032
1359.947 5.902 5.662 5.112 4.092 2.992 2.302 1.952 1.742 1.662 1.642
1379.237 1.642 1.722 1.812 1.902 2.022 2.212 2.502 2.842 3.302 3.832
1398.527 4.422 5.062 5.572 6.012 6.332 6.452 6.382 6.082 5.562 4.902
1417.817 4.162 3.422 2.752 2.152 1.762 1.532 1.4108 1.3872 1.4087 1.512
1437.107 1.642 1.782 2.032 2.362 2.802 3.402 4.312 5.602 7.452 10.002
1456.397 13.232 16.462 18.712 19.802 20.012 19.682 18.722 16.842 13.322 8.912
1475.687 5.702 3.892 2.892 2.322 1.932 1.632 1.3832 1.1692 1.0255 0.9307
1494.977 0.8805 0.8567 0.8802 0.887 0.882 0.9587 1.0147 1.0331 1.0952 1.1197
1514.267 1.0798 1.1163 1.1596 1.1486 1.106 1.0076 0.9541 0.9276 0.8847 0.8595
1533.557 0.8747 0.8972 1.0226 1.2315 1.419 1.672 2.012 2.422 2.942 3.582
1552.847 4.282 5.162 6.292 7.652 9.002 10.162 11.122 11.742 12.152 12.402
1572.137 12.322 11.742 10.522 9.062 7.872 6.872 6.022 5.262 4.542 4.032
1591.427 3.852 4.002 4.502 5.432 6.812 8.682 11.072 13.772 16.452 18.662
1610.717 20.052 20.552 20.252 19.102 17.152 14.532 11.562 8.842 6.722 5.282
1630.007 4.292 3.612 3.172 2.812 2.482 2.312 2.302 2.292 2.342 2.492
1649.297 2.592 2.832 3.142 3.342 3.672 4.292 5.102 6.162 7.622 9.512
1668.587 12.022 15.192 18.972 23.222 27.412 30.582 32.152 32.432 32.462 32.602
1687.877 31.832 29.012 24.442 19.852 16.092 13.362 11.672 10.542 10.162 10.652
1707.167 11.962 13.862 15.972 17.612 18.272 18.132 17.742 17.262 16.182 13.762
1726.457 10.372 7.362 5.292 4.122 3.452 2.992 2.692 2.482 2.302 2.152
1745.747 2.032 1.892 1.782 1.622 1.4108 1.2782 1.2195 1.131 1.0708 1.0501
1765.037 1.0391 1.0394 1.0867 1.1101 1.0978 1.1 1.0468 0.9865 0.9602 0.926
1784.327 0.8683 0.7775 0.7047 0.6701 0.6409 0.5967 0.5419 0.5302 0.5544 0.5568
1803.617 0.5651 0.5762 0.5878 0.5953 0.6255 0.6621 0.6573 0.6635 0.6863 0.6722
1822.907 0.6343 0.6491 0.7071 0.7142 0.6826 0.6807 0.678 0.7031 0.7469 0.7443
1842.197 0.7648 0.8217 0.8144 0.8016 0.8282 0.8529 0.8703 0.8333 0.8047 0.8046
1861.487 0.7864 0.7755 0.7379 0.725 0.738 0.7019 0.6722 0.6165 0.5762 0.5571
1880.777 0.50712 0.46804 0.44061 0.46036 0.46655 0.42343 0.421316 0.4092 0.3782 0.3771
1900.067 0.375 0.3963 0.42002 0.45644 0.4681 0.45571 0.47075 0.46988 0.46542 0.48077
1919.357 0.49263 0.48955 0.50363 0.48895 0.50585 0.5567 0.5487 0.5463 0.5716 0.585
1938.647 0.5748 0.5721 0.5649 0.5298 0.50541 0.47574 0.43415 0.41997 0.43395 0.43929
1957.937 0.44519 0.45853 0.43439 0.45106 0.48023 0.431636 0.3919 0.3925 0.3765 0.3379
1977.227 0.3504 0.3571 0.308 0.305 0.3335 0.3363 0.309 0.277 0.282 0.307
1996.517 0.3321 0.322 0.298 0.297 0.282 0.261 0.246 0.244 0.242 0.254
2015.807 0.272 0.294 0.306 0.3237 0.295 0.277 0.3407 0.3367 0.306 0.299
2035.097 0.296 0.304 0.28 0.26 0.295 0.268 0.242 0.257 0.239 0.243
2054.387 0.27 0.311 0.311 0.3261 0.3717 0.3946 0.3906 0.3585 0.3683 0.3914
2073.677 0.3511 0.3375 0.3527 0.3619 0.3431 0.277 0.271 0.283 0.268 0.265
2092.967 0.27 0.282 0.277 0.244 0.236 0.259 0.253 0.243 0.249 0.246
2112.257 0.227 0.208 0.191 0.17 0.162 0.168 0.169 0.204 0.218 0.159
2131.547 0.156 0.153 0.173 0.217 0.227 0.229 0.221 0.216 0.208 0.221
2150.837 0.262 0.265 0.254 0.247 0.223 0.204 0.187 0.214 0.256 0.239
2170.127 0.181 0.183 0.254 0.236 0.185 0.222 0.224 0.197 0.212 0.228
2189.417 0.24 0.233 0.21 0.19 0.214 0.258 0.257 0.239 0.223 0.215
2208.707 0.187 0.156 0.166 0.162 0.155 0.18 0.204 0.195 0.18 0.184
2227.997 0.187 0.186 0.169 0.197 0.233 0.204 0.173 0.184 0.191 0.173
2247.287 0.202 0.171 0.09 0.081 0.09 0.108 0.125 0.156 0.167 0.166
2266.577 0.157 0.15 0.133 0.115 0.135 0.153 0.159 0.155 0.144 0.149
2285.868 0.158 0.141 0.111 0.152 0.197 0.181 0.183 0.164 0.147 0.16
2305.158 0.203 0.228 0.207 0.196 0.202 0.226 0.263 0.297 0.306 0.276
2324.448 0.277 0.3257 0.319 0.29 0.306 0.301 0.258 0.231 0.231 0.266
2343.738 0.301 0.241 0.224 0.266 0.304 0.308 0.285 0.292 0.287 0.321
2363.028 0.3526 0.29 0.257 0.304 0.318 0.295 0.318 0.3354 0.304 0.299
2382.318 0.3 0.285 0.3384 0.3636 0.3247 0.3293 0.3518 0.3631 0.34 0.297
2401.608 0.28 0.263 0.236 0.263 0.294 0.231 0.206 0.226 0.172 0.165
2420.898 0.222 0.244 0.248 0.202 0.214 0.237 0.228 0.237 0.22 0.252
2440.188 0.229 0.191 0.202 0.207 0.219 0.233 0.244 0.229 0.173 0.131
2459.478 0.143 0.128 0.105 0.129 0.104 0.109 0.123 0.119 0.118 0.136
2478.768 0.144 0.149 0.163 0.112 0.129 0.141 0.117 0.131 0.173 0.203
2498.058 0.163 0.119 0.162 0.168 0.116 0.134 0.17 0.153 0.088 0.061
2517.348 0.112 0.128 0.122 0.148 0.118 0.084 0.114 0.136 0.093 0.122
2536.638 0.189 0.169 0.164 0.117 0.1 0.15 0.134 0.106 0.103 0.12
2555.928 0.118 0.095 0.08 0.069 0.081 0.107 0.075 0.076 0.099 0.084
2575.218 0.061 0.023 0.054 0.117 0.157 0.167 0.143 0.092 0.06 0.094
2594.508 0.096 0.037 0.065 0.123 0.119 0.135 0.114 0.076 0.075 0.08
2613.798 0.075 0.084 0.09 0.037 0.049 0.106 0.064 0.021 0.058 0.066
2633.088 0.066 0.063 0.095 0.158 0.083 0.059 0.087 0.071 0.112 0.101
2652.378 0.064 0.084 0.077 0.023 0 0.052 0.052 0.046 0.078 0.073
2671.668 0.082 0.166 0.211 0.123 0.065 0.112 0.183 0.167 0.149 0.198
2690.958 0.223 0.217 0.243 0.237 0.213 0.258 0.307 0.292 0.228 0.236
2710.248 0.27 0.251 0.223 0.207 0.195 0.157 0.177 0.19 0.218 0.246
2729.538 0.239 0.23 0.202 0.211 0.235 0.254 0.288 0.294 0.295 0.247
2748.828 0.217 0.294 0.299 0.297 0.315 0.316 0.3448 0.311 0.265 0.243
2768.118 0.189 0.154 0.144 0.155 0.148 0.188 0.268 0.272 0.216 0.224
2787.408 0.258 0.194 0.17 0.25 0.253 0.213 0.239 0.239 0.253 0.288
2806.698 0.273 0.303 0.3579 0.319 0.289 0.309 0.277 0.229 0.253 0.312
2825.988 0.321 0.321 0.3554 0.3628 0.3464 0.3313 0.4096 0.47093 0.4119 0.45669
2845.278 0.5515 0.611 0.7344 0.9527 1.2172 1.512 1.922 2.362 2.772 3.022
2864.568 3.162 3.172 3.122 3.052 2.872 2.612 2.142 1.652 1.2747 1.0256
2883.858 0.8198 0.6878 0.5928 0.4033 0.3323 0.298 0.275 0.279 0.283 0.214
2903.148 0.177 0.196 0.147 0.155 0.109 0.067 0.081 0.088 0.106 0.063
2922.438 0.021 0.061 0.117 0.138 0.101 0.096 0.156 0.164 0.1 0.023
2941.728 0.121 0.195 0.159 0.177 0.174 0.14 0.134 0.148 0.127 0.152
2961.018 0.147 0.129 0.221 0.272 0.199 0.18 0.196 0.185 0.181 0.211
2980.308 0.254 0.231 0.247 0.234 0.206 0.218 0.177 0.173 0.201 0.281
2999.598 0.3284 0.274 0.251 0.294 0.3385 0.3315 0.294 0.297 0.3747 0.4031
3018.888 0.3677 0.3856 0.4048 0.352 0.286 0.3554 0.41838 0.3503 0.278 0.299
3038.178 0.3674 0.423619 0.43558 0.4037 0.4469 0.45322 0.3972 0.50649 0.6497 0.6819
3057.468 0.735 0.8829 0.9168 0.809 0.9176 1.0027 1.0172 1.0845 1.2286 1.3022
3076.758 1.318 1.4171 1.462 1.512 1.492 1.4051 1.3988 1.3273 1.1481 1.0685
3096.048 0.9251 0.7379 0.6631 0.6346 0.6015 0.51643 0.43851 0.3781 0.3618 0.3614
3115.338 0.313 0.3268 0.3756 0.3483 0.271 0.315 0.3859 0.3795 0.4063 0.3643
3134.628 0.3297 0.3571 0.3941 0.41228 0.397 0.4112 0.3793 0.3622 0.3944 0.3593
3153.918 0.302 0.276 0.308 0.253 0.21 0.242 0.248 0.318 0.318 0.215
3173.208 0.099 0.118 0.154 0.204 0.226 0.213 0.305 0.308 0.276 0.312
3192.498 0.308 0.3221 0.306 0.293 0.3306 0.3414 0.3265 0.3773 0.3447 0.218
3211.788 0.231 0.365 0.3883 0.298 0.29 0.259 0.248 0.23 0.256 0.3
3231.078 0.287 0.3877 0.3974 0.3827 0.5294 0.3902 0.248 0.3709 0.3965 0.373
3250.368 0.405 0.387 0.421576 0.45494 0.45066 0.44432 0.3825 0.3782 0.3351 0.3481
3269.658 0.3907 0.3746 0.421066 0.44175 0.3562 0.3375 0.4082 0.44744 0.46522 0.47401
3288.948 0.51435 0.47391 0.43319 0.5231 0.50632 0.422881 0.43638 0.45101 0.47444 0.43311
3308.238 0.4011 0.41662 0.37 0.4047 0.47409 0.49639 0.5477 0.629 0.586 0.5804
3327.528 0.6315 0.584 0.6036 0.6341 0.6008 0.5604 0.5688 0.6296 0.5933 0.558
3346.818 0.6242 0.6714 0.7377 0.7534 0.6963 0.7273 0.7737 0.7216 0.6849 0.6559
3366.108 0.6197 0.6169 0.6292 0.632 0.5547 0.50796 0.4636 0.4048 0.50112 0.50855
3385.398 0.48596 0.5319 0.5395 0.5691 0.5627 0.554 0.554 0.6069 0.679 0.7536
3404.688 0.7805 0.7636 0.7084 0.7079 0.7406 0.6907 0.6694 0.7086 0.7095 0.6694
3423.978 0.5989 0.618 0.6581 0.6767 0.6502 0.6031 0.649 0.5735 0.4654 0.425158
3443.269 0.45354 0.50665 0.48877 0.5173 0.51483 0.51588 0.6468 0.671 0.5298 0.46211
3462.559 0.43445 0.3817 0.41766 0.49998 0.48028 0.50436 0.5726 0.47972 0.427472 0.48712
3481.849 0.51117 0.47765 0.464 0.41846 0.3726 0.3866 0.44807 0.41626 0.3337 0.3964
3501.139 0.46657 0.46667 0.46534 0.5634 0.48761 0.3907 0.4756 0.48614 0.44948 0.43433
3520.429 0.4026 0.4039 0.429441 0.3983 0.426389 0.41 0.4068 0.3994 0.41936 0.405
3539.719 0.41378 0.47285 0.44045 0.4348 0.44742 0.4579 0.429044 0.4029 0.3956 0.3878
3559.009 0.356 0.4069 0.51939 0.5435 0.5545 0.5658 0.51913 0.49723 0.5771 0.51015
3578.299 0.4627 0.49754 0.5065 0.5366 0.47148 0.4065 0.3867 0.43755 0.44922 0.44784
3597.589 0.46441 0.41306 0.44325 0.47258 0.4039 0.3909 0.421714 0.47686 0.45752 0.4387
3616.879 0.48016 0.431341 0.41593 0.41498 0.3773 0.3657 0.45178 0.5597 0.5814 0.6391
3636.169 0.6181 0.51678 0.46502 0.5248 0.5221 0.47118 0.48237 0.41721 0.45752 0.49644
3655.459 0.44441 0.47239 0.47265 0.44967 0.5232 0.49672 0.3675 0.365 0.4037 0.47777
3674.749 0.6147 0.6033 0.5448 0.48815 0.424167 0.50298 0.5746 0.5241 0.51701 0.523
3694.039 0.51481 0.48625 0.44952 0.49519 0.45708 0.3412 0.3533 0.3918 0.3775 0.44336
3713.329 0.51495 0.535 0.48928 0.4017 0.4143 0.423001 0.4133 0.48577 0.5494 0.5494
3732.619 0.44908 0.3562 0.423049 0.48428 0.45014 0.5459 0.51707 0.3653 0.426313 0.47877
3751.909 0.47213 0.48079 0.4916 0.426841 0.3435 0.314 0.297 0.423774 0.5449 0.5026
3771.199 0.421454 0.3797 0.431444 0.3905 0.3557 0.3972 0.3914 0.4337 0.47947 0.47255
3790.489 0.41603 0.44567 0.48042 0.45309 0.49622 0.41374 0.3672 0.421009 0.44314 0.4646
3809.779 0.45578 0.3917 0.4044 0.4012 0.3627 0.43541 0.4114 0.44242 0.4875 0.43467
3829.069 0.51937 0.50073 0.45914 0.5284 0.5479 0.50617 0.3922 0.3806 0.41802 0.426791
3848.359 0.47932 0.51359 0.50788 0.51768 0.47956 0.3952 0.41237 0.3449 0.316 0.3786
3867.649 0.284 0.277 0.3566 0.329 0.357 0.49503 0.45353 0.3579 0.313 0.3451
3886.939 0.4175 0.428341 0.3708 0.3451 0.4085 0.50273 0.5645 0.48446 0.3707 0.3407
3906.229 0.3233 0.294 0.418 0.47466 0.44646 0.427289 0.43361 0.49082 0.4099 0.3536
3925.519 0.3691 0.3468 0.3357 0.41621 0.4037 0.3607 0.3673 0.422122 0.43733 0.3262
3944.809 0.3662 0.48094 0.4095 0.3794 0.44516 0.45598 0.42054 0.3516 0.302 0.27
3964.099 0.3517 0.3978 0.38 0.3704 0.3331 0.317 0.3625 0.429213 0.424541 0.3406
3983.389 0.179 0.143 0.18 0.295 0.3969 0.3489 0.283 0.285 0.3682 0.3613
##END=
