##TITLE=18-Crown-6
##JCAMP-DX=4.24
##DATA TYPE=INFRARED SPECTRUM
##ORIGIN=NIST Mass Spectrometry Data Center
##OWNER=NIST Standard Reference Data Program
Collection (C) 2018 copyright by the U.S. Secretary of Commerce
on behalf of the United States of America. All rights reserved.
##CAS REGISTRY NO=17455-13-9
##MOLFORM=C 12 H 24 O 6
##$NIST SOURCE=MSDC-IR
##SPECTROMETER/DATA SYSTEM=HP-GC/MS/IRD
##STATE=gas
##XUNITS=1/CM
##YUNITS=ABSORBANCE
##XFACTOR=1.0
##YFACTOR=0.000012400
##DELTAX=4.0
##FIRSTX=550.0
##LASTX=3846.0
##FIRSTY=0.001438
##MAXX=3846
##MINX=550
##MAXY=0.124
##MINY=0
##NPOINTS=825
##XYDATA=(X++(Y..Y))
550.0 116 207 180 170 152 144 131 119 101 80
590.0 67 56 49 45 42 39 36 30 26 24
630.0 19 13 11 15 14 12 9 2 0 1
670.0 9 12 7 3 8 15 12 10 12 16
710.0 21 19 14 18 22 23 24 25 26 30
750.0 34 36 41 48 55 59 71 87 103 118
790.0 136 161 184 208 240 277 311 347 382 410
830.0 431 447 463 472 483 498 513 520 516 501
870.0 477 449 425 408 399 403 421 447 480 522
910.0 576 644 724 825 951 1092 1232 1352 1413 1406
950.0 1337 1229 1124 1045 1009 1021 1081 1173 1271 1337
990.0 1332 1258 1146 1029 934 883 872 886 925 985
1030.0 1050 1121 1203 1279 1344 1417 1491 1565 1636 1716
1070.0 1834 1998 2219 2500 2840 3228 3660 4143 4703 5369
1110.0 6162 7079 8054 8958 9647 10000 9990 9673 9105 8319
1150.0 7349 6264 5160 4143 3290 2614 2089 1698 1403 1183
1190.0 1018 896 806 743 700 672 661 667 684 715
1230.0 763 831 921 1037 1151 1232 1263 1246 1207 1177
1270.0 1168 1185 1240 1328 1423 1487 1481 1390 1239 1069
1310.0 913 792 715 689 707 757 842 991 1240 1542
1350.0 1762 1755 1524 1209 955 784 669 580 500 430
1390.0 377 339 309 289 274 262 247 235 234 241
1430.0 261 303 384 513 671 811 882 879 841 778
1470.0 693 590 494 412 335 261 203 158 125 99
1510.0 83 75 66 59 57 53 49 45 39 37
1550.0 36 32 29 34 35 32 29 26 26 25
1590.0 23 21 21 19 17 18 16 13 12 13
1630.0 11 8 9 9 8 6 4 7 9 10
1670.0 10 8 10 7 6 10 10 6 8 11
1710.0 13 11 10 13 14 9 7 10 11 10
1750.0 7 8 9 10 9 8 9 8 9 7
1790.0 7 6 6 4 6 6 5 5 5 4
1830.0 4 5 4 2 1 6 9 8 9 10
1870.0 13 18 21 25 28 30 35 40 46 52
1910.0 57 64 72 79 86 94 101 109 115 123
1950.0 127 131 135 137 135 132 129 125 122 117
1990.0 112 104 96 89 82 76 68 61 56 53
2030.0 48 45 44 43 42 39 39 41 40 39
2070.0 40 42 43 42 44 46 47 48 47 47
2110.0 47 45 44 44 43 43 42 43 44 43
2150.0 42 41 42 41 39 39 37 34 33 32
2190.0 33 32 31 30 30 29 27 28 28 26
2230.0 24 25 26 27 26 27 26 25 26 27
2270.0 25 23 24 23 22 21 19 18 17 15
2310.0 11 9 8 8 6 6 5 3 1 2
2350.0 5 5 5 5 4 4 5 4 4 5
2390.0 4 4 6 4 4 5 4 5 5 4
2430.0 4 0 1 3 3 2 3 2 2 3
2470.0 4 6 6 7 9 12 14 14 15 16
2510.0 18 18 17 16 18 20 18 16 20 22
2550.0 20 20 21 23 25 29 31 33 36 38
2590.0 40 40 43 46 48 47 49 53 55 54
2630.0 57 58 60 66 72 74 81 89 96 107
2670.0 118 133 153 179 209 237 263 285 303 322
2710.0 342 365 384 399 410 421 431 436 438 440
2750.0 442 448 461 481 507 536 566 600 635 670
2790.0 710 755 806 857 917 986 1063 1154 1266 1404
2830.0 1584 1827 2159 2610 3196 3911 4686 5402 5922 6162
2870.0 6116 5876 5581 5350 5200 5078 4941 4798 4666 4554
2910.0 4449 4329 4195 4083 4020 4011 4034 4057 4027 3895
2950.0 3651 3348 3031 2691 2295 1856 1441 1103 846 661
2990.0 528 433 362 305 260 226 197 174 156 141
3030.0 128 115 104 93 84 79 74 71 66 56
3070.0 50 48 51 46 38 38 36 37 36 33
3110.0 30 30 26 24 26 25 23 26 28 27
3150.0 25 23 22 23 22 20 23 25 21 18
3190.0 19 21 17 18 22 22 17 16 14 15
3230.0 16 17 19 16 14 14 12 12 13 11
3270.0 9 8 10 11 10 12 13 11 9 10
3310.0 12 9 13 12 13 12 11 12 8 6
3350.0 8 7 8 7 5 9 12 13 13 13
3390.0 11 7 11 15 11 8 11 15 12 14
3430.0 14 8 12 12 11 13 12 6 2 5
3470.0 9 10 8 9 8 6 6 8 6 5
3510.0 9 9 8 7 8 9 5 6 9 7
3550.0 8 7 2 0 0 4 8 5 1 0
3590.0 4 6 6 8 7 4 4 6 10 11
3630.0 11 11 12 15 13 7 5 8 13 17
3670.0 18 19 20 21 18 19 22 23 24 22
3710.0 22 25 25 25 24 24 22 24 25 24
3750.0 27 27 29 29 30 32 31 32 29 27
3790.0 30 29 28 29 28 33 38 33 29 30
3830.0 36 36 29 29 38
##END=
