##TITLE=1-(3-Fluorophenyl)imidazoline-2-thione
##JCAMP-DX=4.24
##DATA TYPE=INFRARED SPECTRUM
##ORIGIN=EPA-IR VAPOR PHASE LIBRARY
##OWNER=SRD/NIST
Collection (C) 2018 copyright by the U.S. Secretary of Commerce
on behalf of the United States of America. All rights reserved.
##CAS REGISTRY NO=17452-26-5
##MOLFORM=C 9 H 7 F N 2 S
##$NIST SOURCE=MSDC-IR
##STATE=gas
##XUNITS=1/CM
##YUNITS=ABSORBANCE
##XFACTOR=1.
##YFACTOR=0.001
##DELTAX=1.92898
##FIRSTX=549.8
##LASTX=4000.7
##FIRSTY=2.51
##MAXX=4000.7
##MINX=549.759
##MAXY=0.02547
##MINY=0
##NPOINTS=1790
##XYDATA=(X++(Y..Y))
549.759 2.51 2.5 2.36 1.63 1.2586 1.2806 1.0242 0.7885 0.7907 1.011
569.049 0.9989 0.7907 0.5715 0.5474 0.6577 0.5011 0.42586 0.4872 0.5034 0.38342
588.339 0.2331 0.2968 0.493 0.5599 0.6432 0.831 0.6794 0.7034 0.9425 0.9541
607.628 0.8603 0.8302 0.9737 1.1786 1.3249 1.1439 0.9785 1.0468 1.0173 0.8474
626.918 0.6894 0.4999 0.5307 0.6972 0.7177 0.5869 0.5959 0.6901 0.8414 1.0162
646.208 1.1739 1.49 1.85 2.39 2.87 3.41 3.87 4.29 4.52 4.39
665.498 4.42 4.31 4.15 4.14 4.34 4.55 4.63 4.84 5.39 6
684.787 6.42 6.7 6.83 7.04 7.13 7.1 7.48 7.14 5.83 4.8
704.077 4.06 3.36 2.56 1.86 1.45 1.2574 0.9643 0.7055 0.7166 0.7326
723.367 0.6903 0.5507 0.6043 0.7545 0.6309 0.7024 0.6676 0.6792 0.6588 0.4943
742.657 0.4439 0.2927 0.4512 0.5333 0.42206 0.5823 0.7459 0.7515 0.6247 0.7359
761.947 1.147 1.39 1.62 1.98 2.47 2.89 3.32 3.57 3.61 3.5
781.236 3.06 2.81 2.46 1.92 1.6 1.1855 0.8745 0.9493 0.808 0.5712
800.526 0.626 0.8019 0.8488 0.6104 0.34561 0.3068 0.466 0.7017 0.7639 0.4581
819.816 0.5113 0.5338 0.3012 0.42599 0.5614 0.6151 0.617 0.7119 0.8821 0.9747
839.106 1.0677 1.3279 1.85 2.46 2.98 3.75 4.99 6.29 7.35 8.24
858.395 8.93 8.95 8.58 8 6.88 5.43 4.13 3.07 2.34 1.83
877.685 1.43 1.35 1.42 1.41 1.2902 1.2765 1.1789 1.1986 1.3076 1.0432
896.975 0.9582 1.1983 1.34 1.51 1.66 1.63 1.51 1.42 1.34 1.2908
916.265 1.2392 0.9612 0.7037 0.5102 0.34055 0.3083 0.32498 0.2761 0.157 0.2693
935.555 0.4388 0.4404 0.34701 0.337504 0.330286 0.42127 0.4628 0.4397 0.42426 0.39708
954.844 0.40793 0.42488 0.4915 0.4524 0.2826 0.287 0.46 0.4952 0.5521 0.6947
974.134 0.5815 0.4782 0.7112 0.7135 0.6294 0.6991 0.8215 1.0723 1.2814 1.4
993.424 1.49 1.47 1.35 1.41 1.42 1.2339 1.206 1.3107 1.138 0.7933
1012.714 0.7033 0.8778 1.0058 0.9912 1.0145 1.1265 0.8856 0.8101 0.8818 0.5885
1032.003 0.5581 0.7964 1.0971 1.39 1.87 2.4 3.07 3.93 4.55 4.82
1051.293 5.24 5.32 4.85 4.47 4.14 3.75 3.36 3.18 3.11 2.91
1070.583 3.16 3.21 2.97 3.11 3.07 2.81 2.13 1.7 1.93 1.98
1089.873 1.55 1.2942 1.44 1.2698 1.4 1.68 1.44 1.43 1.2062 1.4
1109.163 1.8 1.49 1.0858 0.6576 0.5681 0.6506 0.7207 0.6701 0.4438 0.6845
1128.452 0.9909 1.2461 1.4 1.48 1.49 1.63 2.06 2.12 2.16 2.48
1147.742 2.59 2.65 2.5 2.17 2.03 2.25 2.25 1.97 1.71 1.36
1167.032 1.1273 0.9545 1.2357 1.41 1.3054 1.38 1.45 1.87 2.42 2.91
1186.322 3.33 3.91 4.85 5.66 6.45 6.98 7.19 7.55 7.94 8.24
1205.611 8.45 8.38 8.17 8.07 7.94 7.66 7.56 7.45 7.1 6.89
1224.901 6.74 6.59 6.7 7.23 7.51 7.88 8.76 9.65 10.41 10.75
1244.191 10.94 10.92 10.66 10.11 9.33 8.39 7.32 6.4 5.58 4.87
1263.481 4.35 4.06 3.81 3.54 3.24 3.09 3.11 3.05 2.86 2.68
1282.771 2.55 2.54 2.49 2.54 2.58 2.58 2.68 2.97 3.39 3.8
1302.060 4.25 4.74 5.27 5.89 6.41 6.71 6.98 6.99 6.71 6.26
1321.350 5.63 4.97 4.34 3.68 3.09 2.57 2.12 1.81 1.62 1.47
1340.640 1.38 1.2932 1.2231 1.2318 1.1813 1.1596 1.1691 1.1654 1.1613 1.1125
1359.930 1.1231 1.0528 1.0362 1.0359 0.9712 1.0239 1.1025 1.1352 1.1544 1.2656
1379.219 1.44 1.61 1.89 2.25 2.63 3.2 3.94 4.69 5.48 6.21
1398.509 6.71 7.02 7.1 6.91 6.51 5.95 5.44 5.16 5.12 5.37
1417.799 5.92 6.83 8.06 9.51 11.29 13.36 15.57 17.9 20.19 22.12
1437.089 23.8 24.97 25.47 25.28 24.34 22.86 21.07 19.17 17.14 15.15
1456.378 13.34 11.89 10.83 9.95 9.29 8.86 8.53 8.22 8.11 8.14
1475.668 8.32 8.63 8.81 8.98 9.35 9.81 10.32 10.95 11.6 12.08
1494.958 12.27 12.25 12.01 11.34 10.23 8.84 7.26 5.9 4.9 4.04
1514.248 3.33 2.81 2.49 2.25 2.06 1.92 1.8 1.81 1.83 1.68
1533.538 1.48 1.47 1.45 1.37 1.4 1.41 1.41 1.45 1.43 1.5
1552.827 1.58 1.64 1.75 1.74 1.85 2.06 2.17 2.38 2.7 2.95
1572.117 3.2 3.44 3.7 4.05 4.28 4.53 4.92 5.35 5.95 6.51
1591.407 7.15 7.89 8.54 9.28 10.06 10.74 11.37 11.86 12.14 12.09
1610.697 11.89 11.39 10.39 9.3 8.27 7.21 6.14 5.19 4.28 3.48
1629.986 2.92 2.51 2.08 1.75 1.52 1.37 1.2148 1.0551 0.95 0.9045
1649.276 0.9039 0.819 0.6656 0.6259 0.6616 0.652 0.6485 0.5761 0.4759 0.4759
1668.566 0.4863 0.4744 0.4584 0.4417 0.3974 0.35475 0.37163 0.34598 0.36289 0.4517
1687.856 0.38749 0.3164 0.4462 0.4655 0.336285 0.339214 0.35268 0.4401 0.4665 0.37077
1707.146 0.36586 0.37592 0.40099 0.41216 0.36893 0.338554 0.36848 0.456 0.4695 0.41346
1726.435 0.4629 0.5078 0.4557 0.336047 0.34568 0.40715 0.32648 0.331958 0.3162 0.2591
1745.725 0.2898 0.34728 0.330468 0.27 0.2895 0.34612 0.42217 0.4475 0.4322 0.4316
1765.015 0.4435 0.42006 0.39395 0.40907 0.40527 0.40724 0.40162 0.38397 0.34569 0.3109
1784.305 0.2971 0.3183 0.3161 0.2599 0.2784 0.2996 0.2674 0.2793 0.3042 0.331881
1803.594 0.39729 0.3673 0.3083 0.2776 0.238 0.2378 0.296 0.3072 0.255 0.2783
1822.884 0.2937 0.2633 0.2829 0.3013 0.3166 0.36009 0.3077 0.3189 0.3659 0.3077
1842.174 0.36522 0.42033 0.40208 0.4444 0.41195 0.35352 0.36761 0.3074 0.263 0.2842
1861.464 0.3155 0.2912 0.2644 0.2801 0.2445 0.2568 0.205 0.135 0.149 0.182
1880.754 0.19 0.202 0.212 0.2306 0.2717 0.2351 0.2506 0.2849 0.2892 0.3012
1900.043 0.3054 0.3181 0.32749 0.34557 0.3619 0.39812 0.39602 0.40671 0.4501 0.40867
1919.333 0.42733 0.4618 0.4312 0.4643 0.4201 0.37326 0.41716 0.37237 0.34276 0.34531
1938.623 0.27 0.2718 0.333536 0.32292 0.3274 0.3032 0.2387 0.213 0.217 0.2437
1957.913 0.2609 0.297 0.3066 0.2673 0.192 0.169 0.2876 0.335339 0.3093 0.34649
1977.202 0.34934 0.32526 0.333142 0.3557 0.3879 0.3126 0.2527 0.2786 0.2646 0.2596
1996.492 0.167 0.146 0.2485 0.243 0.2512 0.2708 0.194 0.205 0.2651 0.25
2015.782 0.206 0.212 0.2781 0.3102 0.2604 0.217 0.2442 0.2308 0.185 0.141
2035.072 0.153 0.172 0.199 0.226 0.191 0.209 0.288 0.3554 0.36949 0.3098
2054.362 0.33391 0.36791 0.2623 0.2772 0.3069 0.2476 0.2499 0.2693 0.2646 0.283
2073.651 0.3061 0.2795 0.2677 0.281 0.2484 0.2313 0.2604 0.2515 0.214 0.225
2092.941 0.2399 0.19 0.163 0.216 0.2568 0.226 0.206 0.2519 0.3055 0.2743
2112.231 0.226 0.2603 0.2908 0.2999 0.36581 0.37132 0.305 0.34267 0.35167 0.337011
2131.521 0.37765 0.333288 0.3083 0.333109 0.34424 0.339843 0.2703 0.22 0.2762 0.34203
2150.810 0.2918 0.2535 0.2899 0.3055 0.2905 0.2452 0.2318 0.2862 0.330916 0.374
2170.100 0.37023 0.336258 0.34148 0.32549 0.2678 0.2778 0.2813 0.229 0.2932 0.36177
2189.390 0.37893 0.34055 0.3178 0.3146 0.2772 0.2564 0.2496 0.229 0.2864 0.42979
2208.680 0.37664 0.32482 0.36687 0.2942 0.2589 0.2894 0.2966 0.236 0.2478 0.2467
2227.970 0.165 0.2412 0.2685 0.224 0.2639 0.2426 0.233 0.2916 0.2999 0.259
2247.259 0.2705 0.2466 0.225 0.2365 0.208 0.2446 0.34312 0.3134 0.221 0.203
2266.549 0.2645 0.311 0.2477 0.218 0.206 0.2748 0.3165 0.2874 0.3365 0.35609
2285.839 0.2923 0.2664 0.3263 0.34659 0.3267 0.40402 0.4563 0.39967 0.37816 0.40378
2305.129 0.39903 0.34905 0.35393 0.3165 0.226 0.282 0.3002 0.2399 0.32134 0.42009
2324.418 0.38877 0.332301 0.3091 0.32082 0.299 0.2973 0.37011 0.4394 0.41135 0.34602
2343.708 0.314 0.3254 0.330786 0.36306 0.39593 0.3239 0.32733 0.34136 0.2617 0.2783
2362.998 0.38431 0.38353 0.37531 0.336347 0.323 0.32156 0.32858 0.3005 0.2843 0.335611
2382.288 0.344 0.36715 0.32753 0.3427 0.41086 0.4492 0.32799 0.332761 0.4658 0.38714
2401.578 0.3658 0.35576 0.33789 0.37283 0.34157 0.334294 0.3233 0.337395 0.3846 0.40195
2420.867 0.4416 0.4465 0.41104 0.41165 0.35331 0.35779 0.39198 0.32272 0.32832 0.41804
2440.157 0.4662 0.36556 0.337028 0.338212 0.2827 0.2917 0.35048 0.37676 0.3933 0.432
2459.447 0.4323 0.40614 0.3661 0.34809 0.37255 0.36106 0.3766 0.41491 0.41789 0.4387
2478.737 0.4446 0.4422 0.38308 0.34897 0.40286 0.459 0.4477 0.3639 0.32738 0.40863
2498.026 0.4329 0.3507 0.42032 0.44 0.332576 0.36282 0.4442 0.4385 0.332706 0.248
2517.316 0.2514 0.3165 0.3192 0.2831 0.333295 0.37549 0.34201 0.2816 0.225 0.2376
2536.606 0.299 0.34061 0.34351 0.3064 0.2779 0.34635 0.38074 0.27 0.2628 0.3134
2555.896 0.3161 0.34734 0.34271 0.272 0.226 0.2896 0.2919 0.2547 0.2732 0.3153
2575.186 0.3051 0.2978 0.3827 0.42692 0.41902 0.39004 0.37145 0.35187 0.3173 0.3085
2594.475 0.37306 0.4625 0.4603 0.42885 0.39727 0.34763 0.36306 0.38344 0.3074 0.266
2613.765 0.2986 0.3571 0.40404 0.329822 0.217 0.3031 0.3904 0.3442 0.286 0.3183
2633.055 0.39033 0.37768 0.36617 0.335823 0.34039 0.40872 0.4376 0.4515 0.4698 0.41015
2652.345 0.37848 0.4759 0.5253 0.42975 0.461 0.4995 0.35865 0.3179 0.38265 0.32246
2671.634 0.329942 0.40991 0.3056 0.2629 0.2666 0.2889 0.37883 0.334698 0.2603 0.2475
2690.924 0.2558 0.275 0.3047 0.3557 0.32194 0.2998 0.35213 0.32776 0.36749 0.34749
2710.214 0.2575 0.339758 0.37889 0.36314 0.3049 0.2691 0.2723 0.2576 0.22 0.206
2729.504 0.2777 0.3142 0.34681 0.36186 0.298 0.21 0.199 0.228 0.223 0.226
2748.794 0.2863 0.3136 0.32152 0.3059 0.34361 0.3124 0.2532 0.32299 0.2909 0.2878
2768.083 0.332997 0.2353 0.185 0.193 0.218 0.3485 0.336545 0.3048 0.3415 0.2473
2787.373 0.206 0.2362 0.211 0.188 0.218 0.2905 0.266 0.227 0.217 0.189
2806.663 0.2404 0.2739 0.267 0.2811 0.34452 0.38891 0.3157 0.2314 0.3014 0.38478
2825.953 0.3852 0.36033 0.38375 0.35471 0.3098 0.37647 0.34352 0.275 0.2846 0.301
2845.242 0.2808 0.2606 0.2657 0.132 0.091 0.118 0.187 0.2751 0.169 0.194
2864.532 0.3027 0.2783 0.209 0.196 0.2675 0.34245 0.3021 0.2597 0.2705 0.3018
2883.822 0.276 0.330324 0.33555 0.175 0.13 0.183 0.2799 0.2349 0.104 0.208
2903.112 0.2723 0.2334 0.219 0.2439 0.35528 0.37953 0.4387 0.4666 0.34774 0.2366
2922.401 0.133 0.081 0.156 0.2827 0.3051 0.35839 0.40657 0.2824 0.2565 0.2929
2941.691 0.2319 0.18 0.207 0.2614 0.32 0.32626 0.3159 0.2922 0.2855 0.32373
2960.981 0.34479 0.333779 0.2734 0.2817 0.34767 0.42099 0.4414 0.4601 0.4622 0.42696
2980.271 0.34142 0.2917 0.36248 0.38945 0.31 0.228 0.204 0.2401 0.35008 0.34674
2999.561 0.202 0.2596 0.2593 0.207 0.39785 0.37339 0.215 0.2901 0.39022 0.38428
3018.850 0.2564 0.2944 0.4032 0.4623 0.4751 0.34545 0.3237 0.2798 0.2964 0.4871
3038.140 0.6051 0.6148 0.6045 0.628 0.587 0.6547 0.7378 0.5657 0.5346 0.6319
3057.430 0.6571 0.6805 0.7635 0.8356 0.8288 0.7367 0.7106 0.7735 0.6925 0.6522
3076.720 0.7828 0.8298 1 1.1377 1.0687 0.9321 0.8512 0.7033 0.5731 0.6917
3096.009 0.5801 0.4773 0.5963 0.545 0.4781 0.503 0.40784 0.3647 0.5283 0.5526
3115.299 0.4399 0.34904 0.318 0.37534 0.3016 0.2769 0.329407 0.34129 0.32 0.3078
3134.589 0.39531 0.42074 0.38284 0.41006 0.46 0.5691 0.6628 0.5676 0.5819 0.732
3153.879 0.6576 0.5835 0.5723 0.4896 0.42001 0.38569 0.4009 0.3174 0.2406 0.2873
3173.169 0.23 0.2367 0.32509 0.2589 0.2937 0.36108 0.38871 0.34101 0.199 0.2576
3192.458 0.4724 0.5145 0.38597 0.2976 0.35944 0.2948 0.2632 0.2517 0.209 0.3122
3211.748 0.2755 0.336638 0.4118 0.37567 0.33678 0.331238 0.34946 0.2643 0.2466 0.3149
3231.038 0.214 0.2378 0.2782 0.228 0.161 0.17 0.2411 0.2998 0.34666 0.3014
3250.328 0.2667 0.332285 0.2958 0.174 0.133 0.129 0.2558 0.2601 0.2413 0.2568
3269.617 0.331248 0.37785 0.36595 0.3035 0.2337 0.2351 0.229 0.2436 0.2303 0.2928
3288.907 0.2715 0.185 0.19 0.2623 0.2407 0.132 0.2461 0.3193 0.2659 0.32151
3308.197 0.3091 0.2521 0.241 0.37778 0.4356 0.2503 0.159 0.251 0.2704 0.188
3327.487 0.194 0.222 0.3068 0.231 0.224 0.216 0.2991 0.36661 0.34521 0.38714
3346.777 0.292 0.195 0.196 0.2899 0.32624 0.2515 0.223 0.2759 0.2989 0.32222
3366.066 0.17 0.101 0.189 0.195 0.086 0.219 0.32775 0.282 0.32541 0.35047
3385.356 0.334684 0.216 0.2423 0.2473 0.2652 0.2821 0.2909 0.2434 0.185 0.267
3404.646 0.273 0.2974 0.2995 0.236 0.2416 0.40072 0.38974 0.39077 0.39071 0.21
3423.936 0.207 0.223 0.32058 0.3142 0.22 0.37829 0.4356 0.42824 0.40661 0.38433
3443.225 0.40504 0.2493 0.2611 0.39722 0.32 0.3131 0.4742 0.5293 0.4411 0.5298
3462.515 0.5447 0.5108 0.555 0.6679 0.8262 1.0294 1.1727 1.1293 1.2997 1.57
3481.805 1.89 2.18 2.6 3.34 3.86 4.4 5.29 6.36 7.41 8.49
3501.095 9.37 9.85 9.68 9.1 8.1 6.54 5.03 3.47 2.13 1.3043
3520.385 0.9361 0.7418 0.6326 0.4935 0.3045 0.22 0.2727 0.38641 0.2931 0.2893
3539.674 0.39382 0.38588 0.32271 0.213 0.2373 0.4345 0.37729 0.34886 0.338945 0.216
3558.964 0.34617 0.35765 0.336523 0.465 0.338775 0.2981 0.330821 0.15 0.158 0.2462
3578.254 0.209 0.332351 0.4391 0.42656 0.41594 0.36465 0.37274 0.337403 0.176 0.199
3597.544 0.3044 0.2915 0.205 0.11 0.141 0.2727 0.40442 0.473 0.461 0.4433
3616.833 0.32707 0.2399 0.223 0.167 0.2 0.2422 0.182 0.223 0.329649 0.2615
3636.123 0.335937 0.32471 0.17 0.2525 0.33191 0.2842 0.37336 0.4483 0.36123 0.2668
3655.413 0.224 0.219 0.2339 0.2358 0.152 0.159 0.32704 0.3223 0.2647 0.232
3674.703 0.226 0.2545 0.2391 0.179 0.157 0.2726 0.35002 0.36855 0.38129 0.4716
3693.993 0.5107 0.2928 0.2302 0.32101 0.32642 0.2842 0.2411 0.37381 0.36553 0.147
3713.282 0.082 0.137 0.228 0.2499 0.3006 0.4664 0.36701 0.184 0.164 0.2807
3732.572 0.39159 0.2865 0.2716 0.2897 0.204 0.195 0.179 0.2605 0.34523 0.2956
3751.862 0.113 0.122 0.2756 0.219 0.146 0.2557 0.38129 0.36075 0.2686 0.2322
3771.152 0.218 0.2742 0.36985 0.312 0.21 0.207 0.3034 0.37039 0.35762 0.333253
3790.441 0.223 0.2714 0.42047 0.4502 0.41356 0.4837 0.5059 0.38492 0.37134 0.36196
3809.731 0.2899 0.147 0.205 0.4546 0.40361 0.221 0.218 0.095 0 0.061
3829.021 0.213 0.2746 0.3113 0.39425 0.32366 0.2484 0.32305 0.330247 0.164 0.187
3848.311 0.40875 0.37769 0.216 0.34271 0.3901 0.317 0.2893 0.38637 0.3162 0.169
3867.601 0.2817 0.3057 0.2418 0.146 0.077 0.2498 0.37655 0.3138 0.41615 0.40553
3886.890 0.212 0.137 0.169 0.2928 0.4536 0.39313 0.2421 0.161 0.026 0.146
3906.180 0.2445 0.31 0.40061 0.3158 0.3224 0.2533 0.177 0.222 0.34598 0.4371
3925.470 0.3112 0.2356 0.197 0.2447 0.37758 0.3192 0.219 0.215 0.3155 0.37407
3944.760 0.4344 0.5133 0.4999 0.4827 0.4451 0.3185 0.148 0.126 0.131 0.3137
3964.049 0.4796 0.40074 0.4646 0.34194 0.14 0.3109 0.4638 0.4044 0.42872 0.5252
3983.339 0.35557 0.194 0.37061 0.4901 0.34842 0.337829 0.463 0.36602 0.2872 0.331184
##END=
