##TITLE=1-(4-Trifluoromethylphenyl)imidazoline-2-thione
##JCAMP-DX=4.24
##DATA TYPE=INFRARED SPECTRUM
##ORIGIN=EPA-IR VAPOR PHASE LIBRARY
##OWNER=SRD/NIST
Collection (C) 2018 copyright by the U.S. Secretary of Commerce
on behalf of the United States of America. All rights reserved.
##CAS REGISTRY NO=17452-18-5
##MOLFORM=C 10 H 7 F 3 N 2 S
##$NIST SOURCE=MSDC-IR
##STATE=gas
##XUNITS=1/CM
##YUNITS=ABSORBANCE
##XFACTOR=1.
##YFACTOR=0.001
##DELTAX=1.92898
##FIRSTX=549.8
##LASTX=4000.7
##FIRSTY=3.439
##MAXX=4000.7
##MINX=549.759
##MAXY=0.098949
##MINY=0
##NPOINTS=1790
##XYDATA=(X++(Y..Y))
549.759 3.439 2.839 2.599 2.349 2.249 2.209 2.239 2.059 1.769 1.969
569.049 2.129 2.219 2.249 2.229 2.249 2.219 2.269 2.509 2.469 2.199
588.339 2.059 2.279 2.599 2.969 3.309 3.719 4.359 4.889 5.279 5.429
607.628 5.339 5.199 4.729 3.989 3.559 3.019 2.479 2.159 1.629 1.419
626.918 1.479 1.399 1.2658 1.349 1.399 1.339 1.509 1.649 1.529 1.589
646.208 2.029 2.439 3.119 3.729 4.319 5.039 5.869 6.559 6.689 6.479
665.498 6.169 5.709 5.039 4.389 3.939 3.629 3.369 3.409 3.639 3.999
684.787 4.659 5.709 7.179 8.599 9.799 11.029 12.369 12.599 11.109 9.619
704.077 8.279 6.619 4.969 3.569 2.579 1.859 1.489 1.1842 1.0335 1.0554
723.367 0.947 0.8959 0.8684 0.818 0.8166 0.7903 0.8829 1.1336 1.329 1.2274
742.657 1.0574 1.1014 1.1368 1.2264 1.1754 1.1297 1.0622 0.8491 0.9372 1.0974
761.947 1.0172 0.9125 0.969 1.0575 1.1379 1.1694 1.2896 1.489 1.839 1.939
781.236 1.719 1.569 1.369 1.1819 0.9523 0.7333 0.5209 0.4924 0.6512 0.7257
800.526 0.838 0.8346 0.7778 0.8436 0.7657 0.8561 0.9335 1.0083 1.2837 1.399
819.816 1.409 1.489 1.739 2.119 2.639 3.169 3.889 4.779 5.639 6.619
839.106 7.449 7.879 7.779 7.389 6.649 5.479 4.619 3.989 3.129 2.449
858.395 2.239 2.139 1.989 1.939 1.889 1.749 1.489 1.409 1.389 1.1689
877.685 1.1303 1.1667 1.011 0.9903 1.0673 1.1987 1.369 1.429 1.599 2.189
896.975 3.289 4.659 6.029 6.829 6.909 6.439 5.479 3.909 2.369 1.529
916.265 1.1588 0.8399 0.608 0.552 0.432 0.403 0.5122 0.4742 0.37522 0.4326
935.555 0.5981 0.7629 0.8777 1.002 1.2814 1.449 1.529 1.849 1.919 2.039
954.844 2.279 2.549 2.939 3.039 3.239 3.649 4.279 4.759 4.719 4.429
974.134 4.009 3.169 2.269 1.829 1.519 1.2841 1.2552 1.2324 0.9952 0.8409
993.424 0.9557 1.0818 1.0519 1.1298 1.1072 1.0379 1.0903 1.329 1.519 1.839
1012.714 2.889 4.549 6.289 7.419 7.819 7.669 6.879 5.249 3.849 3.299
1032.003 2.979 3.059 3.649 4.319 5.139 6.669 9.479 13.219 17.749 22.169
1051.293 25.119 26.179 24.679 21.479 18.059 15.369 14.099 14.489 16.039 17.319
1070.583 17.609 17.279 15.689 12.819 10.169 8.249 7.129 6.579 6.039 5.799
1089.873 5.759 5.549 5.799 6.119 6.379 7.379 8.839 10.179 11.799 12.939
1109.163 13.289 13.369 12.379 11.399 10.959 10.409 10.069 10.079 10.579 11.419
1128.452 12.409 13.809 15.839 18.409 21.419 24.819 28.689 32.759 36.769 40.619
1147.742 43.349 44.539 44.359 42.689 39.889 36.899 34.269 32.319 31.169 31.009
1167.032 31.669 32.349 33.189 33.869 33.779 32.589 30.329 27.529 24.429 21.359
1186.322 18.639 15.989 13.559 11.799 10.089 8.699 8.139 7.649 7.199 7.109
1205.611 7.119 7.339 8.039 9.089 9.799 10.029 10.719 11.449 11.769 12.239
1224.901 12.809 13.389 14.169 15.109 15.829 16.559 17.189 17.439 17.479 17.159
1244.191 16.359 14.949 13.409 11.959 10.549 9.319 8.119 7.179 6.579 6.279
1263.481 6.059 5.759 5.389 5.269 5.269 5.179 5.209 5.329 5.629 5.909
1282.771 6.289 6.769 7.419 8.389 9.689 11.479 13.719 16.309 19.199 22.339
1302.060 25.429 28.079 30.229 32.159 34.249 37.319 42.379 50.399 61.449 74.609
1321.350 87.539 96.639 98.949 93.169 80.139 62.269 43.599 28.569 19.009 13.829
1340.640 10.989 9.219 8.069 7.209 6.519 5.939 5.459 5.059 4.769 4.549
1359.930 4.319 4.149 3.999 3.799 3.559 3.339 3.189 3.129 3.199 3.319
1379.219 3.489 3.799 4.279 5.019 6.039 7.419 9.179 11.389 14.169 17.319
1398.509 20.349 22.749 24.049 23.969 22.669 20.599 18.219 16.239 14.949 14.049
1417.799 13.419 13.029 12.829 12.799 12.989 13.509 14.449 15.819 17.729 19.959
1437.089 22.539 25.379 28.429 31.499 34.299 36.499 37.969 38.499 37.859 36.109
1456.378 33.439 30.309 27.049 23.739 20.609 17.849 15.429 13.169 11.169 9.449
1475.668 7.959 6.709 5.789 5.139 4.609 4.209 3.939 3.699 3.589 3.589
1494.958 3.739 4.099 4.639 5.309 6.009 6.499 6.749 7.009 7.259 7.499
1514.248 8.069 8.849 9.599 10.069 10.089 9.649 8.789 7.729 6.669 5.609
1533.538 4.659 3.899 3.309 2.899 2.589 2.419 2.369 2.239 2.149 2.179
1552.827 2.159 2.119 2.149 2.109 2.129 2.209 2.239 2.349 2.449 2.579
1572.117 2.789 2.939 2.989 2.929 2.959 3.099 3.109 3.109 3.189 3.319
1591.407 3.419 3.529 3.739 3.949 4.299 4.879 5.599 6.539 7.689 8.919
1610.697 10.079 10.979 11.449 11.339 10.759 9.769 8.429 7.009 5.789 4.749
1629.986 3.769 3.009 2.499 2.079 1.879 1.779 1.619 1.549 1.479 1.429
1649.276 1.399 1.2988 1.2835 1.3269 1.359 1.359 1.339 1.3208 1.3272 1.2652
1668.566 1.1283 1.0997 1.0667 0.9991 1.0397 1.0495 0.9419 0.8006 0.7031 0.6967
1687.856 0.6761 0.6277 0.6006 0.575 0.5199 0.4342 0.39981 0.40561 0.41423 0.4485
1707.146 0.4917 0.6218 0.6726 0.5908 0.6017 0.6262 0.6883 0.7407 0.7074 0.6983
1726.435 0.7101 0.741 0.7666 0.678 0.6636 0.7793 0.7703 0.7399 0.7818 0.8374
1745.725 0.8801 0.8857 0.8338 0.8159 0.908 0.9201 0.9352 0.9751 0.9042 0.8719
1765.015 0.9623 1.013 0.9707 0.9677 1.0173 1.0942 1.1411 1.195 1.1637 1.0937
1784.305 1.0552 0.9948 0.9553 0.8784 0.8011 0.8188 0.833 0.7798 0.7768 0.7887
1803.594 0.7689 0.7858 0.8153 0.7963 0.7517 0.762 0.7914 0.7668 0.7046 0.6944
1822.884 0.6945 0.6631 0.6219 0.5931 0.569 0.5248 0.5411 0.5821 0.5455 0.5477
1842.174 0.577 0.5511 0.5757 0.5585 0.5729 0.5936 0.5682 0.572 0.5653 0.5371
1861.464 0.5179 0.5567 0.6516 0.6896 0.663 0.6523 0.7056 0.71 0.6522 0.6909
1880.754 0.7146 0.6879 0.7001 0.7745 0.7954 0.81 0.8528 0.8753 0.8989 0.949
1900.043 0.9969 1.0499 1.0788 1.0297 1.0122 0.9906 0.9747 0.9398 0.8645 0.796
1919.333 0.7899 0.771 0.7283 0.6955 0.6553 0.6577 0.693 0.6985 0.6551 0.5947
1938.623 0.5977 0.6467 0.6023 0.5772 0.6375 0.6051 0.5586 0.6274 0.657 0.6417
1957.913 0.6242 0.6574 0.6812 0.6819 0.6781 0.6004 0.557 0.6011 0.601 0.5302
1977.202 0.5152 0.546 0.5465 0.5933 0.6186 0.6084 0.5697 0.5308 0.5493 0.5405
1996.492 0.5456 0.5557 0.5558 0.5892 0.6459 0.6484 0.6243 0.6471 0.6309 0.5701
2015.782 0.5857 0.5773 0.5043 0.5 0.542 0.5402 0.5511 0.6009 0.5817 0.5261
2035.072 0.5409 0.5611 0.5866 0.6127 0.5777 0.5464 0.581 0.542 0.5084 0.5833
2054.362 0.565 0.4797 0.482 0.5112 0.5168 0.5452 0.5264 0.4588 0.4727 0.4899
2073.651 0.4915 0.5237 0.5315 0.5383 0.5246 0.487 0.5227 0.5662 0.5661 0.6036
2092.941 0.6389 0.6829 0.7301 0.7539 0.7198 0.686 0.7255 0.7696 0.7332 0.6677
2112.231 0.6895 0.7039 0.6283 0.5991 0.6159 0.598 0.542 0.51 0.5331 0.5854
2131.521 0.5852 0.5741 0.6053 0.567 0.5183 0.5306 0.5347 0.5355 0.5161 0.4946
2150.810 0.5239 0.5563 0.6014 0.5944 0.5505 0.5096 0.4699 0.497 0.5739 0.5683
2170.100 0.5128 0.5264 0.5549 0.4993 0.5229 0.5602 0.5728 0.6547 0.594 0.4878
2189.390 0.4759 0.5154 0.4788 0.4529 0.5016 0.5413 0.5395 0.5356 0.5849 0.5817
2208.680 0.5767 0.5836 0.5376 0.4946 0.5188 0.5755 0.621 0.6394 0.6415 0.6573
2227.970 0.6314 0.5596 0.5613 0.5746 0.5442 0.5312 0.4919 0.5378 0.6499 0.6173
2247.259 0.5803 0.5989 0.5981 0.5525 0.564 0.6132 0.6262 0.6689 0.6626 0.6501
2266.549 0.6853 0.6558 0.6225 0.6856 0.7126 0.6931 0.7417 0.7681 0.736 0.7291
2285.839 0.724 0.7144 0.6967 0.7292 0.7047 0.6773 0.724 0.7317 0.6705 0.6363
2305.129 0.7036 0.7254 0.6621 0.5787 0.5629 0.6547 0.699 0.6775 0.6227 0.5646
2324.418 0.594 0.6185 0.6388 0.6137 0.6344 0.6612 0.5532 0.5124 0.5873 0.6586
2343.708 0.6511 0.6108 0.6072 0.5923 0.5324 0.5571 0.5793 0.5718 0.5645 0.5058
2362.998 0.5173 0.527 0.5262 0.5247 0.5676 0.6315 0.6366 0.7003 0.7354 0.6957
2382.288 0.6639 0.6502 0.6396 0.6787 0.6908 0.605 0.5511 0.5523 0.5936 0.6064
2401.578 0.6047 0.5924 0.6062 0.5929 0.6027 0.6249 0.5795 0.6576 0.7039 0.6364
2420.867 0.6316 0.6351 0.5852 0.5747 0.5934 0.5496 0.5396 0.582 0.5919 0.6056
2440.157 0.5702 0.5926 0.6131 0.5909 0.6731 0.6736 0.6548 0.7211 0.7135 0.6926
2459.447 0.67 0.6623 0.6972 0.7125 0.6661 0.6717 0.7261 0.733 0.7059 0.7033
2478.737 0.7019 0.6785 0.6549 0.6908 0.7305 0.6989 0.7593 0.7361 0.6376 0.6455
2498.026 0.6644 0.5955 0.5626 0.6432 0.6487 0.6273 0.5663 0.5146 0.5111 0.4962
2517.316 0.5149 0.5399 0.5454 0.506 0.4632 0.4491 0.4834 0.483 0.4484 0.4835
2536.606 0.5081 0.5337 0.5495 0.498 0.5611 0.5842 0.4601 0.4357 0.458 0.4285
2555.896 0.5044 0.547 0.5237 0.5303 0.5132 0.5679 0.5938 0.5761 0.5695 0.521
2575.186 0.4951 0.4753 0.4778 0.5085 0.5086 0.5584 0.6832 0.6199 0.5854 0.6958
2594.475 0.7247 0.7185 0.6805 0.7394 0.7414 0.658 0.629 0.6505 0.6511 0.6781
2613.765 0.6572 0.5302 0.5691 0.6419 0.6859 0.7202 0.6039 0.5643 0.6482 0.7246
2633.055 0.7538 0.7715 0.7997 0.7689 0.7238 0.6706 0.6885 0.735 0.6905 0.6895
2652.345 0.7515 0.7025 0.6622 0.6463 0.6032 0.5993 0.5759 0.5557 0.5959 0.5731
2671.634 0.5251 0.558 0.5375 0.5269 0.556 0.4926 0.5049 0.5358 0.4955 0.4834
2690.924 0.5106 0.5539 0.5208 0.4829 0.5242 0.539 0.4677 0.491 0.5236 0.4648
2710.214 0.5606 0.6151 0.5524 0.5201 0.5223 0.5227 0.4555 0.4476 0.41634 0.39961
2729.504 0.41688 0.31995 0.3061 0.40674 0.4452 0.40283 0.40603 0.39777 0.4307 0.498
2748.794 0.4721 0.447 0.40347 0.2678 0.32277 0.4691 0.4129 0.42248 0.42883 0.40637
2768.083 0.334713 0.332861 0.4658 0.444 0.32731 0.3127 0.4395 0.4683 0.448 0.41743
2787.373 0.35987 0.4339 0.4674 0.4396 0.5195 0.4798 0.2925 0.38747 0.5601 0.5737
2806.663 0.5464 0.4906 0.4643 0.531 0.5169 0.4387 0.42422 0.4532 0.5323 0.545
2825.953 0.5166 0.4926 0.4981 0.4663 0.41503 0.39223 0.42268 0.5144 0.5379 0.4565
2845.242 0.42873 0.4895 0.4886 0.4538 0.4414 0.35305 0.337574 0.4227 0.39188 0.40335
2864.532 0.4848 0.5367 0.5328 0.5413 0.4411 0.2926 0.36569 0.4853 0.42607 0.3143
2883.822 0.2773 0.2766 0.3064 0.35285 0.4641 0.5471 0.4631 0.38148 0.37063 0.35429
2903.112 0.4524 0.4673 0.37997 0.38584 0.40128 0.4856 0.4364 0.34344 0.4436 0.5683
2922.401 0.5891 0.4624 0.39697 0.4375 0.4765 0.478 0.41276 0.41214 0.5076 0.5475
2941.691 0.4498 0.39442 0.4386 0.4604 0.4753 0.41953 0.41527 0.5004 0.5146 0.38657
2960.981 0.3952 0.4395 0.330188 0.3943 0.4663 0.3164 0.298 0.4831 0.4924 0.4662
2980.271 0.4774 0.4414 0.39939 0.34376 0.33874 0.3185 0.3185 0.40203 0.4754 0.4945
2999.561 0.4589 0.42146 0.4626 0.4521 0.36522 0.4421 0.6157 0.6405 0.5794 0.6017
3018.850 0.564 0.6079 0.6071 0.4781 0.4873 0.5155 0.5098 0.4328 0.4672 0.5593
3038.140 0.6915 0.7909 0.7186 0.6089 0.5546 0.6783 0.7488 0.7585 0.7636 0.8429
3057.430 0.8703 0.8439 0.935 0.9156 0.9324 0.8935 0.7954 0.8105 0.6997 0.6721
3076.720 0.6366 0.6196 0.7678 0.7365 0.6318 0.7892 0.8777 0.7827 0.7051 0.8699
3096.009 0.893 0.7144 0.7047 0.5618 0.436 0.5826 0.6907 0.6769 0.6109 0.5241
3115.299 0.4518 0.36523 0.4819 0.5407 0.4838 0.5756 0.6673 0.5673 0.525 0.5651
3134.589 0.6994 0.7278 0.5967 0.7577 0.9567 1.0192 1.157 1.2917 1.419 1.509
3153.879 1.549 1.479 1.2259 0.9387 0.8185 0.6882 0.5365 0.4891 0.5353 0.6092
3173.169 0.5783 0.5685 0.5223 0.5258 0.5541 0.4907 0.4904 0.4819 0.5193 0.7001
3192.458 0.5207 0.2989 0.39024 0.41861 0.42776 0.4748 0.4445 0.37148 0.2519 0.2411
3211.748 0.3076 0.2832 0.3126 0.35383 0.3039 0.2804 0.4474 0.5447 0.4517 0.3031
3231.038 0.213 0.22 0.35212 0.4591 0.494 0.4754 0.40046 0.338599 0.34013 0.31942
3250.328 0.2373 0.2695 0.2605 0.34288 0.37918 0.34675 0.2674 0.177 0.33994 0.3811
3269.617 0.35045 0.37651 0.39993 0.37962 0.39666 0.38673 0.2498 0.36652 0.4941 0.37093
3288.907 0.38266 0.37048 0.2647 0.2889 0.32534 0.36894 0.35922 0.2571 0.202 0.185
3308.197 0.3188 0.42761 0.531 0.5475 0.36881 0.32762 0.337705 0.38666 0.41989 0.421
3327.487 0.36517 0.34639 0.37379 0.3011 0.3028 0.288 0.2449 0.2936 0.2978 0.128
3346.777 0.203 0.39609 0.36064 0.39607 0.37374 0.4629 0.5224 0.38831 0.37626 0.3149
3366.066 0.2679 0.3017 0.336079 0.34726 0.336275 0.2707 0.2323 0.3153 0.2804 0.3131
3385.356 0.39129 0.4096 0.37176 0.2682 0.261 0.4081 0.5538 0.5042 0.4737 0.4831
3404.646 0.38068 0.32322 0.41969 0.38673 0.39263 0.4487 0.482 0.5461 0.4702 0.335007
3423.936 0.328705 0.35577 0.5052 0.559 0.34335 0.2698 0.3216 0.38261 0.42002 0.4956
3443.225 0.5208 0.5263 0.5664 0.5964 0.6556 0.6836 0.7611 0.8211 0.8213 0.7759
3462.515 0.8041 1.0294 1.193 1.3112 1.459 1.649 1.899 2.079 2.289 2.739
3481.805 3.269 4.089 5.119 6.019 6.809 7.569 8.589 9.969 11.949 15.059
3501.095 18.509 20.549 20.339 18.429 15.059 10.209 5.629 3.039 1.909 1.399
3520.385 1.1636 0.8126 0.7565 0.8765 0.7499 0.7473 0.7022 0.5822 0.5924 0.543
3539.674 0.4711 0.5192 0.5257 0.4684 0.4856 0.5053 0.6129 0.6721 0.5045 0.514
3558.964 0.5861 0.4509 0.5545 0.5125 0.36915 0.4493 0.4825 0.4774 0.4691 0.36106
3578.254 0.32008 0.338455 0.246 0.23 0.208 0.241 0.36622 0.4556 0.4969 0.472
3597.544 0.4665 0.438 0.4353 0.34851 0.3152 0.36129 0.36179 0.2858 0.2686 0.331476
3616.833 0.37125 0.37273 0.4338 0.4672 0.32158 0.2473 0.203 0.2636 0.308 0.3186
3636.123 0.2643 0.184 0.33989 0.4601 0.42205 0.37036 0.14 0 0.161 0.36485
3655.413 0.268 0.3179 0.5175 0.39136 0.329113 0.3007 0.207 0.134 0.215 0.36409
3674.703 0.38941 0.37835 0.42244 0.37917 0.2338 0.2337 0.187 0.15 0.37499 0.4691
3693.993 0.35289 0.207 0.208 0.32342 0.36695 0.5311 0.6104 0.4506 0.4393 0.38688
3713.282 0.39511 0.4378 0.34306 0.2896 0.274 0.2649 0.223 0.34398 0.3797 0.2417
3732.572 0.177 0.167 0.2692 0.38739 0.42442 0.40639 0.2989 0.2706 0.223 0.158
3751.862 0.162 0.2387 0.37441 0.41097 0.39891 0.36767 0.42489 0.4362 0.329667 0.2464
3771.152 0.32343 0.38897 0.36387 0.33803 0.2978 0.232 0.239 0.39226 0.4752 0.5367
3790.441 0.4698 0.34341 0.33913 0.175 0.191 0.34744 0.2866 0.2881 0.34052 0.40273
3809.731 0.40048 0.39165 0.4462 0.36998 0.198 0.187 0.2742 0.2881 0.34171 0.4444
3829.021 0.4634 0.4402 0.4965 0.4537 0.3194 0.155 0.198 0.37126 0.39256 0.2752
3848.311 0.134 0.32475 0.37081 0.2613 0.33 0.41714 0.4407 0.34499 0.162 0.217
3867.601 0.42098 0.36605 0.2866 0.40217 0.5259 0.38769 0.2852 0.37573 0.5376 0.37385
3886.890 0.136 0.2829 0.37398 0.3101 0.2515 0.16 0.087 0.32085 0.4689 0.299
3906.180 0.159 0.167 0.193 0.2434 0.2596 0.191 0.198 0.173 0.181 0.183
3925.470 0.2401 0.32183 0.194 0.151 0.172 0.2911 0.335859 0.215 0.2695 0.4395
3944.760 0.37856 0.36366 0.432 0.32283 0.2642 0.2578 0.2576 0.2859 0.2592 0.2471
3964.049 0.32501 0.2892 0.269 0.338274 0.333106 0.2981 0.2792 0.2416 0.2592 0.211
3983.339 0.2331 0.3068 0.274 0.333117 0.3187 0.186 0.224 0.34 0.4117 0.5436
##END=
