##TITLE=1-(4-Methoxyphenyl)imidazoline-2-thione
##JCAMP-DX=4.24
##DATA TYPE=INFRARED SPECTRUM
##ORIGIN=EPA-IR VAPOR PHASE LIBRARY
##OWNER=SRD/NIST
Collection (C) 2018 copyright by the U.S. Secretary of Commerce
on behalf of the United States of America. All rights reserved.
##CAS REGISTRY NO=17452-14-1
##MOLFORM=C 10 H 10 N 2 O S
##$NIST SOURCE=MSDC-IR
##STATE=gas
##XUNITS=1/CM
##YUNITS=ABSORBANCE
##XFACTOR=1.
##YFACTOR=0.001
##DELTAX=1.92898
##FIRSTX=549.8
##LASTX=4000.7
##FIRSTY=5.119
##MAXX=4000.7
##MINX=549.759
##MAXY=0.064319
##MINY=0
##NPOINTS=1790
##XYDATA=(X++(Y..Y))
549.759 5.119 5.119 5.349 4.909 4.289 4.929 5.319 5.589 6.029 6.189
569.049 6.609 7.539 8.769 8.189 7.289 7.489 6.659 5.679 5.079 4.559
588.339 4.039 3.629 3.619 3.579 4.119 4.599 4.229 4.349 4.629 4.519
607.628 4.729 5.239 6.019 5.979 5.939 6.619 6.099 5.809 5.609 4.399
626.918 3.549 4.269 4.789 4.279 3.459 2.869 2.949 3.239 3.619 3.419
646.208 3.539 4.059 4.899 5.189 5.799 7.599 8.769 9.219 9.409 9.749
665.498 9.379 8.099 7.499 7.259 6.479 6.159 5.799 5.049 4.829 5.419
684.787 5.839 6.309 7.299 8.399 9.269 9.609 10.359 10.529 9.289 8.169
704.077 7.399 6.129 5.059 4.849 4.259 3.349 3.279 3.439 2.939 3.009
723.367 2.979 2.379 2.589 2.609 2.409 2.549 2.249 2.059 2.299 2.429
742.657 2.409 2.809 3.219 2.849 2.379 1.989 1.819 1.929 2.129 2.329
761.947 2.409 2.469 2.359 2.089 2.079 2.389 2.089 2.049 2.749 2.739
781.236 2.619 3.009 2.669 2.689 3.079 2.929 2.879 3.149 3.719 3.509
800.526 3.319 3.259 2.629 2.819 3.259 2.959 3.209 3.599 3.099 3.529
819.816 4.909 5.269 5.469 6.429 7.299 7.549 7.459 7.449 7.399 7.109
839.106 6.549 5.599 4.949 4.529 3.999 3.619 3.859 3.959 3.409 2.919
858.395 2.919 2.759 2.429 2.519 2.719 2.989 3.049 2.759 2.549 2.359
877.685 1.779 1.689 2.159 2.019 1.959 2.299 2.329 2.279 2.819 2.939
896.975 3.139 4.199 5.099 5.719 6.219 6.349 6.169 5.479 4.679 3.589
916.265 2.569 2.369 2.289 2.459 2.209 2.099 2.199 2.179 1.709 1.689
935.555 2.079 1.5536 1.3837 1.939 2.249 1.959 1.679 1.919 2.189 1.939
954.844 1.959 2.589 3.429 4.179 4.789 4.909 5.359 5.799 5.849 5.539
974.134 4.679 4.169 3.169 3.029 3.319 2.449 2.019 2.449 2.429 2.679
993.424 2.899 2.159 1.719 1.829 2.239 2.469 2.399 2.279 2.199 2.499
1012.714 3.059 3.469 3.599 3.329 3.489 4.379 5.239 5.049 4.919 6.119
1032.003 6.819 7.589 8.939 9.339 9.919 11.549 13.229 13.839 15.109 17.709
1051.293 18.969 19.179 18.729 17.599 15.189 11.789 9.739 8.059 6.519 5.309
1070.583 4.899 4.949 4.529 3.349 2.509 2.359 1.1193 1.414 3.529 3.449
1089.873 2.849 2.339 2.499 2.489 2.759 4.039 3.299 3.639 5.199 6.479
1109.163 5.779 4.339 4.789 5.539 5.729 3.979 2.489 3.919 4.049 3.889
1128.452 3.889 4.269 6.389 6.439 6.149 7.649 9.799 10.919 10.119 11.289
1147.742 12.819 12.869 12.419 10.479 8.769 8.019 7.069 5.649 6.059 7.709
1167.032 9.409 10.519 10.769 10.509 9.939 10.239 9.539 8.139 7.889 8.329
1186.322 8.479 7.919 8.859 9.969 7.829 6.469 7.429 8.199 10.659 12.139
1205.611 11.429 11.359 12.719 14.439 15.029 15.589 16.609 16.419 16.439 17.029
1224.901 18.959 20.929 20.819 22.309 24.879 27.759 31.859 36.309 39.229 42.119
1244.191 46.059 49.209 50.379 50.239 48.759 45.769 42.119 38.069 33.459 28.919
1263.481 24.849 21.729 19.309 16.949 15.529 14.849 14.229 13.649 13.729 14.329
1282.771 14.459 14.609 15.389 15.929 15.919 16.219 16.729 16.699 16.489 16.379
1302.060 16.369 16.139 15.659 15.069 14.319 13.459 12.549 11.529 10.349 9.199
1321.350 8.099 7.029 6.279 5.599 4.949 4.569 4.349 3.979 3.849 3.949
1340.640 3.629 3.599 3.739 3.599 3.519 3.639 3.689 3.729 3.769 3.759
1359.930 3.629 3.559 3.469 3.379 3.369 3.259 3.089 3.019 3.239 3.319
1379.219 3.349 3.449 3.529 3.859 4.209 4.509 5.159 5.749 6.479 7.639
1398.509 8.649 9.699 10.819 11.389 11.559 11.729 11.539 11.029 10.629 10.309
1417.799 9.979 10.069 10.879 11.919 13.299 15.209 17.599 20.449 23.619 26.739
1437.089 30.429 34.449 38.229 41.479 43.789 45.219 45.309 43.959 41.559 38.329
1456.378 34.109 29.739 26.019 22.789 20.229 18.239 16.499 14.889 13.379 11.899
1475.668 10.669 9.729 9.119 8.439 8.129 8.059 8.209 8.719 9.579 10.949
1494.958 12.489 14.519 17.369 21.169 26.149 32.269 40.349 49.479 57.529 62.989
1514.248 64.319 61.779 56.199 48.149 37.489 27.469 19.389 14.039 10.759 8.359
1533.538 6.749 6.139 5.649 4.979 4.739 4.619 4.139 3.939 3.989 3.999
1552.827 3.849 3.579 3.569 3.509 3.279 3.309 3.629 4.019 3.999 3.719
1572.117 3.779 4.069 4.209 4.139 3.999 4.029 4.089 4.039 4.189 4.159
1591.407 4.169 4.469 4.479 4.379 4.189 4.049 4.429 4.849 4.879 5.049
1610.697 5.039 4.879 5.019 4.669 4.119 3.979 3.769 3.389 3.299 3.209
1629.986 2.929 2.879 3.029 2.959 2.689 2.649 2.639 2.609 2.659 2.329
1649.276 2.329 2.569 2.439 2.569 2.739 2.789 2.639 2.529 2.609 2.419
1668.566 2.269 2.369 2.539 2.729 2.789 2.519 2.379 2.269 2.069 2.339
1687.856 2.459 2.279 2.179 2.189 2.339 2.339 2.299 2.649 2.639 2.369
1707.146 2.369 2.309 2.349 2.569 2.559 2.319 2.129 2.029 2.179 2.279
1726.435 2.169 2.249 2.549 2.719 2.569 2.329 2.309 2.409 2.299 2.259
1745.725 2.099 2.119 2.339 2.249 2.349 2.209 1.879 1.889 2.019 2.169
1765.015 2.179 2.189 2.129 2.059 2.199 2.109 2.059 2.159 2.049 1.999
1784.305 2.009 2.109 2.149 2.139 2.169 2.139 2.149 2.159 2.039 2.039
1803.594 2.189 2.089 2.049 2.229 2.259 2.189 2.059 2.069 2.019 1.929
1822.884 2.009 1.949 1.969 2.019 2.149 2.169 1.939 1.859 1.999 2.059
1842.174 2.069 2.079 2.159 2.329 2.279 2.199 2.139 2.179 2.279 2.359
1861.464 2.269 1.879 1.759 2.059 2.189 2.119 2.209 2.229 2.129 2.119
1880.754 2.249 2.219 2.179 2.049 1.929 1.789 1.639 1.859 1.869 1.749
1900.043 1.639 1.699 1.729 1.669 1.619 1.5162 1.709 1.809 1.789 1.809
1919.333 1.779 1.709 1.599 1.599 1.749 1.809 1.719 1.5406 1.599 1.819
1938.623 1.769 1.719 1.689 1.719 1.809 1.759 1.809 2.059 2.059 1.819
1957.913 1.639 1.699 1.779 1.679 1.799 1.809 1.559 1.569 1.589 1.5466
1977.202 1.629 1.639 1.659 1.719 1.659 1.629 1.609 1.4575 1.4961 1.46
1996.492 1.4042 1.569 1.679 1.679 1.5015 1.3093 1.4524 1.589 1.4387 1.4051
2015.782 1.639 1.639 1.5346 1.779 1.869 1.859 1.889 2.049 2.139 1.989
2035.072 1.939 1.989 2.019 2.089 2.199 2.269 2.269 1.949 1.869 1.979
2054.362 1.949 2.059 2.189 2.109 1.789 1.659 1.739 1.819 1.889 1.959
2073.651 2.089 1.939 1.739 1.879 1.779 1.589 1.5374 1.569 1.759 1.659
2092.941 1.4246 1.4454 1.659 1.669 1.4974 1.4974 1.4841 1.4939 1.37 1.3904
2112.231 1.569 1.679 1.5398 1.4451 1.3683 1.3974 1.4459 1.3938 1.3771 1.219
2131.521 1.2136 1.2704 1.321 1.3958 1.4555 1.4094 1.3964 1.4727 1.4465 1.3284
2150.810 1.3321 1.3743 1.2439 1.0208 1.0615 1.1132 1.2085 1.3749 1.2715 1.2393
2170.100 1.3937 1.4995 1.2426 1.1624 1.2532 0.9097 0.925 1.1217 1.2132 1.3229
2189.390 1.3816 1.3833 1.3246 1.1372 1.0656 1.2943 1.1823 1.0457 1.176 1.1689
2208.680 1.1423 1.2499 1.3622 1.3909 1.2432 1.1942 1.1199 1.126 1.1921 1.1727
2227.970 1.4166 1.5276 1.2685 1.2215 1.3237 1.4771 1.5203 1.4017 1.3657 1.1742
2247.259 1.1948 1.4734 1.2987 1.0085 1.1261 1.2055 1.1422 1.2032 1.197 1.1319
2266.549 1.331 1.527 1.3382 1.2678 1.4333 1.4936 1.3667 1.3157 1.5587 1.619
2285.839 1.4274 1.4162 1.4159 1.426 1.4991 1.4601 1.4238 1.4415 1.3057 1.2018
2305.129 1.4133 1.3736 1.3494 1.619 1.4927 1.3194 1.3997 1.2321 1.206 1.0663
2324.418 1.1047 1.2181 1.0172 1.2147 1.3161 1.1265 1.0521 1.1279 1.0657 1.1408
2343.708 1.3886 1.4553 1.589 1.559 1.324 1.0316 0.8999 0.9643 1.0743 1.128
2362.998 0.9773 0.9558 1.1147 1.2968 1.4439 1.323 1.2622 1.4748 1.3823 1.1364
2382.288 1.0557 1.0869 1.1267 1.1116 1.126 1.2276 1.3629 1.3614 1.5135 1.5067
2401.578 1.4217 1.5203 1.4194 1.4922 1.3892 1.2209 1.2121 1.148 1.1699 1.2088
2420.867 1.3165 1.3553 1.5045 1.5301 1.3845 1.3564 1.3525 1.2943 1.1156 1.0829
2440.157 1.2977 1.3429 1.1871 1.1153 1.1057 0.9589 0.8477 1.2076 1.4375 1.2915
2459.447 1.3019 1.2931 1.3743 1.3233 1.2478 1.4511 1.4161 1.2396 1.288 1.2194
2478.737 1.2247 1.2805 1.0877 1.1698 1.2525 1.3939 1.4445 1.2984 1.4015 1.2601
2498.026 0.8859 0.9996 1.2368 0.9819 0.9233 1.2859 1.4673 1.629 1.569 1.5516
2517.316 1.779 1.589 1.3504 1.3919 1.4531 1.2305 1.3019 1.4816 1.216 1.0723
2536.606 1.2804 1.3291 1.3292 1.4552 1.3337 1.0963 1.334 1.52 1.4478 1.3404
2555.896 0.9928 1.0615 1.0636 0.8306 0.965 1.1955 1.0128 0.8577 0.9443 0.7926
2575.186 0.63787 0.8444 0.9331 1.1344 1.4085 1.2409 1.0819 1.0017 0.9229 0.7395
2594.475 0.8497 1.0594 0.8548 0.8545 0.9907 0.8645 1.0517 1.2259 0.9038 0.8365
2613.765 0.8197 0.7443 0.771 1.0756 1.4285 1.2452 1.0933 1.3726 1.569 0.9943
2633.055 0.7696 1.0398 1.1761 1.491 1.4644 1.2828 1.3556 1.1387 0.9864 1.1416
2652.345 1.1686 0.9997 0.7678 1.013 1.327 1.1727 0.9102 1.0043 0.9583 0.63397
2671.634 0.57639 0.8227 0.9171 0.7733 0.6894 0.7183 0.7072 0.8478 0.7393 0.7447
2690.924 1.1727 1.1599 1.025 1.0581 0.889 0.841 1.0026 0.9764 0.9887 0.8505
2710.214 0.987 1.0904 1.0761 0.9781 0.9711 1.1176 1.1519 0.9465 0.992 1.0775
2729.504 0.7602 0.8095 0.8443 0.9701 1.0055 0.9094 1.0179 1.2006 1.1904 1.1818
2748.794 1.2266 0.9536 0.772 0.63115 0.8083 1.0361 1.0132 1.173 1.0053 0.9751
2768.083 1.1301 0.8969 0.8391 0.9951 1.1721 1.1541 0.9968 0.8664 0.8094 0.9144
2787.373 1.0493 1.2303 1.2841 1.0579 0.9144 0.9824 1.2185 1.3118 1.2623 1.2776
2806.663 1.2539 1.4828 1.779 1.659 1.819 1.839 1.5331 1.599 1.579 1.739
2825.953 1.659 1.599 2.029 2.359 2.489 2.399 2.709 3.209 3.599 4.129
2845.242 4.609 4.569 4.109 3.589 3.089 2.969 2.799 2.659 2.689 2.349
2864.532 1.879 2.289 2.379 2.089 2.229 1.939 1.829 1.809 1.859 2.109
2883.822 2.089 1.649 1.569 1.5238 1.3136 1.799 2.049 2.389 2.889 2.869
2903.112 2.899 3.239 3.299 3.339 3.639 3.289 3.469 4.129 4.079 3.839
2922.401 3.489 3.529 3.649 3.539 3.569 3.859 3.549 3.259 3.949 4.349
2941.691 4.499 4.929 5.209 5.499 5.959 5.659 5.109 4.909 4.689 4.559
2960.981 4.359 4.279 4.359 3.959 3.619 3.579 3.439 3.259 3.149 2.759
2980.271 2.499 2.519 2.499 2.589 2.499 2.929 3.289 3.409 3.689 3.709
2999.561 3.709 3.989 4.079 4.499 5.229 5.339 5.009 4.619 4.359 4.199
3018.850 3.949 3.409 2.999 2.689 2.459 2.599 2.429 1.909 1.799 2.319
3038.140 2.709 2.679 2.619 2.779 2.789 2.469 2.489 2.509 2.709 2.849
3057.430 2.739 2.829 2.609 2.379 2.499 2.259 2.259 2.689 2.509 2.519
3076.720 2.519 2.169 2.069 1.989 1.719 1.939 2.079 2.169 2.459 2.369
3096.009 2.559 2.329 1.959 1.609 1.4047 1.4154 1.3686 1.5507 1.699 1.689
3115.299 1.649 1.5316 1.3293 1.5436 1.669 1.719 1.889 1.649 1.2452 1.1549
3134.589 1.282 1.1964 1.2099 1.4295 1.699 2.259 2.639 2.419 1.849 1.899
3153.879 2.369 2.129 1.589 1.4628 1.5259 1.569 1.3297 1.406 1.659 1.3298
3173.169 1.2795 1.512 1.619 1.3781 1.0606 0.9228 1.3439 1.739 1.579 1.2183
3192.458 0.9283 0.9741 1.0023 1.0009 1.2397 1.1686 1.242 1.4552 1.07 0.7109
3211.748 0.7001 0.7545 1.0557 0.9892 0.9444 1.2758 1.0547 0.9868 1.5 1.779
3231.038 1.5543 0.9687 0.8016 1.3572 1.1508 0.692 0.62181 0.7878 1.0338 1.217
3250.328 1.1737 1.1378 0.8796 0.6789 1.162 1.2824 0.8945 1.2583 1.1874 0.6599
3269.617 0.7789 0.703 0.563208 0.65284 0.8068 0.8818 0.7661 0.7303 0.5416 0.64234
3288.907 1.1937 1.2592 1.342 1.5109 1.0941 0.61931 0.9981 1.1754 1.0634 1.1405
3308.197 1.3592 0.9556 0.409 0.8726 1.2292 1.1343 1.141 1.18 1.3263 1.689
3327.487 1.709 1.4354 1.1936 0.9487 1.0057 1.274 1.2693 1.0265 0.8725 1.102
3346.777 1.3094 1.4616 1.0131 0.419 0.511 0.393 0.233 0.8216 1.4585 1.3871
3366.066 1.3638 1.2342 1.0431 1.1378 1.0678 0.9307 0.6024 0.4909 0.9633 0.8999
3385.356 1.0032 1.619 1.4322 1.1644 1.2061 1.2804 1.1814 0.9835 0.8418 1.1644
3404.646 1.5448 1.4021 1.2811 1.3069 1.3132 0.9638 1.0238 1.779 2.099 1.599
3423.936 1.1775 0.9932 0.9263 1.412 1.3934 0.9434 1.2534 1.0834 0.64331 0.7941
3443.225 1.0069 1.318 0.9101 0.58278 0.8999 1.0497 0.9256 1.0552 1.1397 1.0742
3462.515 0.977 0.9508 1.1333 1.12 1.3812 1.4616 1.599 1.979 2.609 3.229
3481.805 3.529 4.069 4.679 5.669 6.739 7.199 7.689 8.729 10.419 12.679
3501.095 15.229 17.069 17.659 17.489 16.159 13.889 10.789 7.439 4.979 3.189
3520.385 1.959 1.739 1.979 1.659 1.4626 1.4981 0.878 0.8608 1.078 0.802
3539.674 0.993 0.8131 0.7926 1.3477 0.9564 0.4716 0.9943 1.609 1.729 1.5126
3558.964 1.3196 1.3406 1.3708 1.3951 1.1857 1.1636 1.2391 1.0171 0.566251 0.115
3578.254 0.9664 1.669 1.2101 1.2278 1.1801 0.93 0.7745 0.527 1.0111 1.5234
3597.544 1.0572 0.8853 1.0629 0.9147 1.2079 1.2175 0.9411 0.9414 0.7902 0.8174
3616.833 1.1708 1.1268 0.63712 0.4967 0.8868 1.1356 1.2646 1.619 1.659 1.3536
3636.123 1.4528 1.2626 0.896 1.0193 0.8175 0.8346 0.9578 0.8624 0.8474 0.5387
3655.413 0.393 0.65219 0.9527 1.2337 1.2596 0.969 0.9068 1.0102 1.1355 0.9289
3674.703 0.4727 0 0.128 0.4867 0.62684 0.62419 0.8051 1.0212 0.9424 1.0628
3693.993 0.9623 1.0711 0.96 0.5301 0.433 0.6256 0.862 0.925 1.0357 1.0191
3713.282 0.7841 0.8072 0.7715 1.0365 1.669 1.2838 0.8422 0.9391 0.304 0.18
3732.572 0.9464 1.3528 1.4749 1.298 0.8298 0.64454 0.7609 0.937 1.2033 0.8883
3751.862 0.289 0.307 0.57324 0.6943 0.8751 0.59375 0.62096 0.8304 0.5458 1.0404
3771.152 1.2483 0.7367 0.8895 1.4583 1.0063 0.227 0.436 0.8675 0.8624 0.8283
3790.441 1.0831 1.2875 1.1269 0.8056 0.8626 0.7354 0.4988 0.6964 0.9582 1.1515
3809.731 0.6717 0.57666 1.0765 0.5405 0.121 0.424 0.6919 0.9191 0.4888 0.077
3829.021 0.5251 1.0901 1.1853 0.9281 0.9986 0.9615 0.65456 0.4907 0.4618 0.5085
3848.311 0.4762 0.9575 1.4095 0.8199 0.239 0.34 0.9926 1.1382 0.56127 0.6636
3867.601 1.0315 1.1207 0.898 0.61487 0.7514 1.422 1.48 0.351 0.194 1.0114
3886.890 1.3118 1.2529 1.5147 1.2695 0.53 0.6324 1.2054 1.4041 1.2571 1.2495
3906.180 0.9448 0.61585 0.7562 1.0569 0.9751 0.6997 0.297 0.289 0.8947 0.9528
3925.470 0.678 0.7251 0.8464 0.58273 0.9059 1.799 1.4122 0.4907 0.6908 0.7707
3944.760 0.5142 0.8185 1.0385 1.1159 0.6893 0.422 0.9011 1.016 1.1522 0.9595
3964.049 1.0934 1.829 1.4585 0.8237 0.4983 0.427 0.404 0.351 0.5345 0.8863
3983.339 1.0919 0.9024 0.8273 0.9009 0.7747 0.745 0.60075 0.248 0.151 0.346
##END=
