##TITLE=5-Amino-4-methoxybenzamide
##JCAMP-DX=4.24
##DATA TYPE=INFRARED SPECTRUM
##ORIGIN=NIST Mass Spectrometry Data Center
##OWNER=NIST Standard Reference Data Program
Collection (C) 2018 copyright by the U.S. Secretary of Commerce
on behalf of the United States of America. All rights reserved.
##CAS REGISTRY NO=17481-27-5
##MOLFORM=C 8 H 10 N 2 O 2
##$NIST SOURCE=MSDC-IR
##SPECTROMETER/DATA SYSTEM=HP-GC/MS/IRD
##STATE=gas
##XUNITS=1/CM
##YUNITS=ABSORBANCE
##XFACTOR=1.0
##YFACTOR=0.000001200
##DELTAX=4.0
##FIRSTX=550.0
##LASTX=3846.0
##FIRSTY=0.000811
##MAXX=3846
##MINX=550
##MAXY=0.012
##MINY=0
##NPOINTS=825
##XYDATA=(X++(Y..Y))
550.0 676 961 681 783 720 722 684 718 766 811
590.0 935 1075 1162 1214 1207 1072 947 847 775 731
630.0 720 697 650 673 711 718 739 724 749 777
670.0 758 757 784 777 750 740 730 744 778 788
710.0 865 949 992 1063 1111 1158 1228 1325 1523 1764
750.0 2023 2231 2231 2030 1733 1397 1121 939 833 775
790.0 734 736 745 755 740 738 721 652 619 574
830.0 526 497 450 475 519 522 553 587 584 576
870.0 561 559 587 598 590 576 507 461 416 352
910.0 308 292 304 280 225 197 182 134 63 28
950.0 13 16 41 62 95 128 144 176 179 192
990.0 240 270 327 394 471 600 773 996 1180 1258
1030.0 1262 1178 1005 810 649 529 499 576 667 723
1070.0 772 818 851 848 826 804 763 725 703 672
1110.0 639 605 568 500 490 523 594 772 988 1197
1150.0 1332 1346 1247 1083 984 1023 1184 1361 1491 1519
1190.0 1467 1455 1583 1983 2664 3677 4980 6293 7196 7335
1230.0 6582 5181 3676 2481 1748 1423 1350 1447 1739 2160
1270.0 2646 3031 3143 2980 2550 2034 1629 1369 1277 1347
1310.0 1552 1886 2350 2997 3848 4865 5992 6964 7569 7610
1350.0 6916 5705 4275 2924 1943 1358 1033 816 693 601
1390.0 523 474 460 491 550 650 804 1034 1365 1762
1430.0 2191 2531 2732 2733 2434 1982 1541 1230 1092 1033
1470.0 973 923 892 879 949 1148 1484 2034 2810 3660
1510.0 4358 4587 4215 3367 2430 1682 1174 899 781 754
1550.0 780 854 1004 1241 1598 2158 3014 4041 4870 5383
1590.0 5514 5311 5024 4829 4704 4636 4569 4371 4038 3523
1630.0 2859 2203 1658 1271 1024 878 802 788 830 923
1670.0 1074 1231 1397 1546 1686 1845 2192 2906 4240 6356
1710.0 8705 9891 10000 8962 6381 3936 2515 1781 1501 1404
1750.0 1338 1234 1051 835 626 465 351 260 202 169
1790.0 144 124 102 99 101 81 63 56 41 36
1830.0 34 40 47 37 40 52 54 44 41 37
1870.0 28 28 30 24 24 30 31 30 32 26
1910.0 26 26 25 32 39 30 15 19 27 30
1950.0 25 29 33 38 40 39 53 46 38 39
1990.0 39 38 45 54 43 53 73 86 91 85
2030.0 79 87 81 74 74 56 59 63 49 47
2070.0 46 42 34 28 26 16 5 17 35 28
2110.0 19 16 20 15 16 23 4 6 24 28
2150.0 17 11 11 8 8 16 26 37 25 10
2190.0 21 40 50 47 31 26 30 43 47 33
2230.0 27 28 33 32 42 49 46 60 70 64
2270.0 71 78 57 38 31 21 22 14 6 19
2310.0 12 0 4 14 15 1 4 34 28 11
2350.0 17 34 45 40 31 35 39 23 11 5
2390.0 8 12 8 27 42 29 17 12 20 29
2430.0 19 17 28 21 6 20 21 5 15 23
2470.0 21 26 26 26 25 20 17 29 41 43
2510.0 60 69 50 50 55 48 60 57 66 90
2550.0 95 89 81 79 75 52 41 49 48 41
2590.0 39 48 50 50 50 50 45 39 37 38
2630.0 42 52 61 46 58 73 69 73 74 85
2670.0 72 54 71 84 66 51 47 39 42 31
2710.0 23 44 68 51 33 39 41 39 25 12
2750.0 22 42 52 58 63 66 72 88 92 79
2790.0 71 66 87 110 111 111 123 134 173 237
2830.0 297 381 521 660 741 742 675 542 402 329
2870.0 292 243 231 240 238 251 288 329 377 435
2910.0 508 579 627 659 672 693 757 877 1028 1142
2950.0 1196 1191 1127 1032 897 766 641 534 479 461
2990.0 504 565 674 837 955 954 856 679 524 460
3030.0 457 470 455 443 463 462 477 499 470 420
3070.0 393 367 322 304 293 261 226 197 191 187
3110.0 181 160 150 151 119 83 76 89 102 103
3150.0 95 79 70 68 65 82 79 88 111 102
3190.0 78 67 57 86 99 88 83 70 53 43
3230.0 48 39 45 79 88 52 41 44 48 69
3270.0 54 42 68 66 45 44 43 62 86 77
3310.0 62 70 38 12 45 64 57 36 34 66
3350.0 84 84 92 113 107 112 153 176 206 241
3390.0 295 399 527 698 898 1055 1139 1176 1210 1211
3430.0 1219 1177 1030 825 616 471 373 309 310 311
3470.0 291 298 320 363 425 504 619 717 762 826
3510.0 834 769 726 636 583 630 691 756 814 841
3550.0 834 792 679 516 386 308 250 212 190 174
3590.0 151 108 103 106 86 80 76 73 79 82
3630.0 77 68 69 93 102 96 108 86 51 41
3670.0 52 70 88 87 81 74 83 102 100 101
3710.0 92 86 112 113 72 50 32 49 94 94
3750.0 96 123 102 65 62 91 106 77 53 74
3790.0 83 79 53 58 93 111 114 83 54 27
3830.0 51 87 97 101 87
##END=
