##TITLE=(-)-N-Benzyl-.alpha.-phenethylamine
##JCAMP-DX=4.24
##DATA TYPE=INFRARED SPECTRUM
##ORIGIN=EPA-IR VAPOR PHASE LIBRARY
##OWNER=SRD/NIST
Collection (C) 2018 copyright by the U.S. Secretary of Commerce
on behalf of the United States of America. All rights reserved.
##CAS REGISTRY NO=17480-69-2
##MOLFORM=C 15 H 17 N
##$NIST SOURCE=MSDC-IR
##STATE=gas
##XUNITS=1/CM
##YUNITS=ABSORBANCE
##XFACTOR=1.
##YFACTOR=0.001
##DELTAX=1.92898
##FIRSTX=549.8
##LASTX=4000.7
##FIRSTY=9.791
##MAXX=4000.7
##MINX=549.759
##MAXY=0.083471
##MINY=0
##NPOINTS=1790
##XYDATA=(X++(Y..Y))
549.759 9.791 8.581 8.531 8.701 8.911 9.311 9.171 8.311 8.081 8.971
569.049 9.801 9.961 9.891 9.061 9.011 9.061 9.171 9.931 9.641 9.271
588.339 8.981 8.771 8.601 9.221 8.971 7.871 8.531 8.911 8.551 8.631
607.628 8.481 8.251 8.211 8.151 7.821 7.281 7.331 7.431 6.811 6.041
626.918 6.241 6.701 6.671 6.231 6.151 6.551 6.721 7.161 7.641 8.121
646.208 7.851 8.031 8.951 9.431 9.941 10.811 11.831 12.541 13.441 14.591
665.498 15.821 17.481 18.761 19.361 20.811 22.251 23.371 25.161 27.201 30.301
684.787 34.161 39.021 45.571 53.611 63.801 73.251 80.011 83.471 82.251 77.411
704.077 69.891 61.501 52.851 45.671 40.731 36.801 34.251 32.841 32.061 31.031
723.367 30.361 30.501 30.761 31.381 32.161 32.981 33.801 34.301 34.711 34.901
742.657 33.961 32.641 31.971 31.911 32.431 33.501 35.611 37.091 37.141 36.381
761.947 33.951 30.001 25.481 21.321 18.131 15.481 13.001 11.141 10.361 9.451
781.236 8.751 7.891 7.281 7.531 7.611 7.341 7.121 7.251 7.071 7.121
800.526 6.951 6.961 6.851 6.471 6.391 6.281 6.101 6.181 5.991 5.791
819.816 5.861 5.431 5.111 4.661 4.451 4.471 4.201 4.261 4.371 3.901
839.106 3.561 3.631 3.751 3.721 3.771 3.751 3.711 3.661 3.861 4.081
858.395 3.611 3.051 3.011 3.331 3.781 3.971 3.941 4.041 4.081 4.231
877.685 3.931 3.511 3.601 3.731 4.231 4.791 4.601 4.601 4.751 4.931
896.975 5.541 5.901 6.611 7.341 7.731 8.031 7.801 7.511 7.231 6.451
916.265 5.631 5.671 5.511 4.931 4.511 4.251 4.291 4.251 4.121 3.951
935.555 3.871 3.741 3.861 4.091 3.561 3.311 3.031 2.901 3.051 2.821
954.844 2.961 3.021 3.301 3.961 3.981 3.671 3.791 4.191 4.821 5.241
974.134 5.071 5.211 5.971 5.791 5.551 5.981 5.931 6.031 5.921 5.821
993.424 5.731 5.411 6.091 7.231 7.651 7.961 8.191 7.801 8.381 9.471
1012.714 9.341 9.551 10.611 12.421 14.621 16.331 17.861 18.201 16.981 15.281
1032.003 13.681 11.681 9.321 7.991 7.731 8.131 7.941 7.471 7.521 7.891
1051.293 8.781 9.491 10.371 11.111 11.481 11.281 11.411 11.371 10.791 11.371
1070.583 11.941 10.701 9.371 9.351 9.901 9.451 9.181 9.621 9.821 10.751
1089.873 11.481 11.191 11.431 12.031 12.171 13.901 16.111 17.061 18.561 19.691
1109.163 20.831 24.191 26.691 28.091 29.181 30.851 33.561 34.751 35.071 34.741
1128.452 33.411 30.881 27.441 24.671 20.781 17.571 16.371 14.001 12.411 12.041
1147.742 11.301 9.981 8.951 9.081 8.901 8.231 7.211 7.281 7.221 6.991
1167.032 7.621 7.851 7.561 8.221 9.671 9.991 9.871 9.321 9.591 10.571
1186.322 10.361 10.681 12.031 12.661 12.741 14.391 16.011 15.971 15.261 14.651
1205.611 14.741 15.111 14.731 12.771 10.651 10.391 9.911 7.481 6.881 8.841
1224.901 8.831 8.631 8.221 6.841 7.351 7.521 7.581 7.531 6.551 6.421
1244.191 6.641 6.981 7.601 7.281 6.501 6.361 6.711 7.011 7.331 7.791
1263.481 7.881 8.101 8.931 9.001 9.111 9.531 9.721 9.791 9.791 9.791
1282.771 10.001 10.221 10.781 11.331 11.771 12.351 12.771 13.371 13.871 13.881
1302.060 13.631 13.401 13.181 12.831 12.501 12.661 12.941 13.191 13.671 14.111
1321.350 14.441 14.411 14.041 13.561 13.031 12.431 11.831 11.531 11.391 11.541
1340.640 12.081 12.561 13.081 13.781 14.451 14.951 15.391 15.671 15.701 15.731
1359.930 15.591 15.411 15.611 16.231 17.041 17.821 18.291 18.471 18.141 17.151
1379.219 15.581 13.631 11.691 9.871 8.401 7.281 6.461 5.941 5.601 5.321
1398.509 5.081 4.961 4.891 4.801 4.851 4.991 5.221 5.531 5.931 6.281
1417.799 6.641 7.281 7.891 8.661 9.471 10.431 11.721 13.211 14.821 16.691
1437.089 19.081 21.521 24.121 26.811 29.431 31.631 33.491 35.021 35.931 35.891
1456.378 35.101 33.971 32.661 31.071 29.181 27.221 25.021 22.621 20.221 18.071
1475.668 16.671 15.671 15.051 15.201 16.001 17.341 19.271 21.371 23.011 23.661
1494.958 23.131 21.461 18.781 15.631 12.461 9.781 7.831 6.341 5.431 4.971
1514.248 4.611 4.341 4.321 4.231 3.941 3.751 3.641 3.791 3.841 3.611
1533.538 3.501 3.341 3.421 3.401 3.071 2.991 3.101 3.071 2.851 2.841
1552.827 2.901 2.741 2.701 2.951 2.911 2.801 3.051 3.211 3.291 3.421
1572.117 3.781 3.941 4.171 4.421 4.601 5.321 6.121 6.731 7.441 8.241
1591.407 8.871 9.331 10.081 10.811 11.321 11.741 11.421 10.331 9.371 8.261
1610.697 7.111 6.041 4.981 4.381 3.951 3.581 3.211 2.891 2.721 2.671
1629.986 2.511 2.571 2.491 2.311 2.471 2.521 2.521 2.621 2.711 2.601
1649.276 2.541 2.641 2.761 2.751 2.671 2.581 2.591 2.781 2.861 2.801
1668.566 2.671 2.641 2.561 2.401 2.371 2.481 2.411 2.361 2.351 2.001
1687.856 1.901 2.011 1.961 1.951 2.161 2.331 2.211 2.131 2.201 2.031
1707.146 1.941 2.111 2.141 2.171 2.351 2.301 2.121 2.231 2.381 2.381
1726.435 2.311 2.391 2.601 2.691 2.821 2.821 2.881 3.001 2.981 2.941
1745.725 2.791 2.731 2.671 2.451 2.421 2.521 2.471 2.321 2.221 2.301
1765.015 2.371 2.311 2.171 2.301 2.561 2.551 2.491 2.581 2.911 3.211
1784.305 3.391 3.691 3.961 4.361 4.871 5.311 5.601 5.661 5.581 5.281
1803.594 4.911 4.571 4.301 3.961 3.561 3.301 3.131 3.041 2.921 2.731
1822.884 2.561 2.371 2.291 2.261 2.151 2.171 2.301 2.271 2.161 2.161
1842.174 2.321 2.431 2.411 2.441 2.461 2.471 2.641 2.951 3.071 3.141
1861.464 3.551 3.891 4.001 4.101 4.111 4.031 4.071 4.011 3.991 3.961
1880.754 3.811 3.751 3.531 3.231 3.131 2.961 2.731 2.691 2.521 2.351
1900.043 2.271 2.121 2.091 2.141 2.061 1.961 2.031 2.151 2.221 2.351
1919.333 2.311 2.501 2.761 3.021 3.411 3.651 3.821 4.081 4.311 4.511
1938.623 4.661 4.751 4.951 4.931 4.921 4.721 4.451 4.471 4.441 4.081
1957.913 3.821 3.421 2.851 2.541 2.231 1.871 1.6977 1.6306 1.5291 1.5485
1977.202 1.5595 1.5316 1.5072 1.5164 1.3279 1.1538 1.338 1.4426 1.3325 1.2439
1996.492 1.1972 1.1294 1.0265 1.1621 1.2877 1.2086 1.2006 1.2621 1.2468 1.1072
2015.782 1.1177 1.2613 1.0847 1.022 1.1846 1.221 1.2721 1.2963 1.1513 1.1512
2035.072 1.3301 1.2583 1.142 1.0728 1.0079 1.0252 0.9108 0.8908 0.9736 1.0386
2054.362 1.0142 0.83269 0.81751 0.9505 1.1002 1.0948 0.9598 1.0463 1.2734 1.1681
2073.651 1.0914 1.1154 1.1439 1.1719 1.0366 0.8801 0.8672 1.0877 1.1572 1.1779
2092.941 1.2725 1.1136 1.0169 1.0591 0.9884 0.8602 0.79628 0.8685 0.9686 1.0813
2112.231 1.0871 1.2108 1.2784 1.2135 1.2213 1.1318 1.0921 1.0463 0.9542 0.9688
2131.521 0.9435 1.0454 1.0746 0.9545 0.9851 1.0504 1.0334 0.9357 0.9142 0.9397
2150.810 0.9714 1.0014 0.9855 0.9246 1.0316 1.2118 1.1639 1.0388 0.9865 0.9646
2170.100 1.0325 1.1553 1.1507 1.1604 1.2285 1.1456 1.0437 0.99 0.9116 0.9552
2189.390 1.1435 1.102 1.0648 1.1684 1.1574 1.0038 1.045 1.0568 0.9993 1.0665
2208.680 1.1406 1.0912 1.0054 1.1061 1.1544 1.0017 0.9577 1.0155 1.0979 1.0953
2227.970 1.0282 1.1592 1.2712 1.3674 1.2729 1.2456 1.1019 1.093 1.2127 1.1145
2247.259 1.0556 1.0978 1.1446 1.1547 1.1204 1.1148 1.2865 1.2135 1.0721 1.0787
2266.549 1.1754 1.1639 1.0542 1.0058 0.9276 0.82011 0.8774 0.9683 0.8756 0.80221
2285.839 0.9028 1.0012 1.1625 1.1241 0.9919 1.1259 1.0531 1.1333 1.3225 1.237
2305.129 1.3297 1.6673 1.6816 1.6242 1.4796 1.4471 1.5841 1.7007 1.761 1.4757
2324.418 1.4391 1.4943 1.5068 1.466 1.3774 1.4521 1.5255 1.511 1.3245 1.2228
2343.708 1.5298 1.6557 1.3068 1.0864 1.2442 1.4464 1.3261 1.328 1.2863 1.2073
2362.998 1.2675 1.3877 1.5347 1.2761 1.0478 1.0984 1.1737 1.1607 1.041 0.8629
2382.288 0.74258 0.8871 1.0835 1.0696 1.0512 0.8811 0.8505 0.9554 1.0297 1.1663
2401.578 1.1654 1.0774 1.133 1.3524 1.345 1.1684 1.0883 1.0719 0.9617 1.0046
2420.867 1.0172 1.0187 1.0169 0.9845 0.9142 0.8663 1.0814 1.2095 1.1058 1.2184
2440.157 1.223 0.9203 0.78733 0.8585 1.0527 1.2469 1.0742 0.84076 0.9515 1.1524
2459.447 1.3382 1.24 1.1037 1.1643 1.1098 1.1251 1.1861 0.9311 0.83502 1.1291
2478.737 1.1845 1.0879 1.1943 1.0603 1.0697 1.0602 0.83921 1.1408 1.3324 1.1573
2498.026 1.0177 0.9186 1.0426 1.2471 0.9764 0.937 1.1407 1.1238 1.3561 1.4295
2517.316 1.4409 1.4007 1.2334 1.1562 1.0639 1.1877 1.2165 1.0467 1.0599 1.0595
2536.606 1.1398 1.4097 1.4929 1.4237 1.3078 1.3535 1.5144 1.4199 1.4128 1.4154
2555.896 1.3708 1.485 1.5657 1.6899 1.5883 1.569 1.841 1.6206 1.5899 1.791
2575.186 1.5945 1.6307 1.781 1.7213 1.5265 1.6481 1.781 1.761 1.951 2.051
2594.475 1.921 1.801 1.841 1.961 2.021 1.821 1.7255 2.001 2.141 2.051
2613.765 1.971 1.921 1.961 1.771 1.6607 1.931 2.011 1.911 1.7409 1.891
2633.055 2.031 1.831 1.911 1.831 1.841 1.771 1.791 1.901 1.871 2.011
2652.345 2.111 1.991 1.981 1.991 1.771 1.841 1.921 1.951 1.971 1.841
2671.634 2.031 2.281 2.061 1.781 1.831 2.021 2.031 1.901 2.041 2.501
2690.924 2.641 2.331 2.251 2.331 2.521 2.821 2.791 2.721 2.731 2.751
2710.214 2.721 2.541 2.471 2.621 2.801 2.791 2.761 3.001 2.961 3.111
2729.504 3.201 2.791 2.771 2.671 2.711 2.901 2.691 2.651 3.041 3.151
2748.794 3.131 3.041 2.841 2.891 3.311 3.461 3.571 4.071 4.221 4.211
2768.083 4.511 5.031 5.671 6.051 6.131 6.401 6.861 7.411 7.891 8.431
2787.373 8.791 9.341 10.041 10.501 11.191 11.871 12.401 12.791 13.261 13.901
2806.663 14.281 14.621 15.091 15.331 15.781 16.441 16.751 17.321 17.811 18.051
2825.953 18.401 18.581 18.791 19.021 18.901 18.901 18.951 18.611 18.391 18.311
2845.242 18.101 17.711 17.451 17.101 16.791 16.771 16.751 16.761 16.601 16.421
2864.532 16.611 16.761 16.961 17.141 17.791 18.311 18.261 18.521 18.611 18.571
2883.822 18.321 18.251 18.301 18.211 18.151 17.911 18.051 18.141 17.751 17.451
2903.112 17.211 17.041 16.911 16.821 17.111 17.451 17.561 18.251 19.311 20.161
2922.401 21.171 22.141 22.891 23.651 24.291 24.111 23.281 22.511 21.301 20.001
2941.691 18.941 17.531 16.201 15.391 14.841 14.811 15.401 16.011 17.241 19.391
2960.981 22.141 25.591 28.891 31.741 34.551 36.381 37.001 37.171 36.881 36.311
2980.271 34.781 32.031 28.331 24.471 20.981 17.371 14.431 12.281 10.881 10.191
2999.561 10.101 10.451 10.891 11.611 12.771 13.831 14.781 16.121 18.141 20.891
3018.850 23.871 27.451 31.691 35.881 39.641 42.261 43.551 43.991 42.931 40.691
3038.140 37.991 34.651 31.431 28.961 26.791 25.531 24.921 24.911 25.821 27.031
3057.430 29.321 32.661 36.961 42.121 47.081 50.711 52.531 52.631 51.051 47.961
3076.720 43.271 38.411 34.781 32.221 30.021 28.041 26.411 24.101 21.661 19.841
3096.009 18.141 16.921 15.761 14.121 12.961 12.071 10.891 9.861 8.961 7.941
3115.299 7.361 6.451 5.341 4.831 4.511 3.791 2.821 2.551 2.491 2.511
3134.589 2.471 2.081 2.101 2.401 2.461 2.061 2.051 1.991 1.3804 1.5316
3153.879 1.851 1.911 2.031 1.981 2.051 2.221 2.081 2.131 1.911 1.5478
3173.169 1.4865 1.4666 2.011 2.301 1.891 1.6275 1.3528 1.1907 1.2531 1.3087
3192.458 1.2704 1.1274 1.0266 1.0615 1.0983 1.5779 1.4506 1.0024 1.0447 1.1214
3211.748 1.2982 1.3493 1.4677 1.267 0.9191 0.9433 0.78016 0.7056 0.967 1.0441
3231.038 1.2778 1.4116 1.1501 0.9636 1.4636 1.6378 1.1783 1.0958 1.2223 1.0591
3250.328 0.82609 0.907 0.8917 0.6928 0.576 1.0016 1.0955 0.6878 0.83167 1.2972
3269.617 1.3263 0.9957 1.1085 1.2157 1.1464 1.2836 0.9337 0.79728 1.2559 1.0915
3288.907 1.0716 1.4634 1.2669 0.79484 0.747664 1.0743 1.1509 1.1824 1.0004 0.83816
3308.197 0.9949 1.0404 1.1324 0.9679 0.8693 0.8598 0.77629 0.602 0.415 0.404
3327.487 0.6473 0.8509 1.1454 1.3051 0.9535 0.7799 0.9334 0.82454 0.7143 0.83796
3346.777 1.2256 1.1277 1.0464 1.2035 1.0031 1.0586 1.3012 1.781 1.941 1.5696
3366.066 1.2624 1.4638 1.184 0.8498 0.8566 1.0004 1.0017 0.685 0.479 0.557
3385.356 0.743196 0.82118 0.95 0.82699 0.6968 0.7346 0.81174 0.8888 0.7149 0.612
3404.646 0.6593 0.745543 1.0042 1.1148 0.9042 0.979 1.128 1.1429 0.8551 0.594
3423.936 0.9316 0.747891 0.6668 0.76239 0.75297 0.73245 0.75248 0.76077 0.53 0.6681
3443.225 1.0268 0.898 0.308 0.517 0.8767 0.7062 0.35 0.035 0.217 0.519
3462.515 0.631 0.484 0.7325 0.871 0.6862 0.612 0.76819 0.7107 0.56 0.636
3481.805 0.65 0.466 0.9489 1.4711 1.1316 1.2714 1.4552 1.2329 0.987 0.9482
3501.095 0.742658 0.8149 1.2349 1.4405 1.178 0.9356 0.9694 0.83162 0.83073 0.657
3520.385 0.78179 0.852 0.6978 0.9022 0.9617 1.2595 1.3381 0.8787 0.83511 1.11
3539.674 1.3019 1.075 0.9717 0.9149 0.466 0.155 0.205 0.386 0.444 0.9313
3558.964 0.9823 0.586 0.594 0.79158 0.584 0.216 0.435 0.638 0.528 0.639
3578.254 0.7054 0.81613 0.8782 0.57 0.635 1.0222 0.6607 0.001 0.215 0.418
3597.544 0.594 1.1859 1.3022 1.0218 0.9392 1.0372 0.9069 0.9368 1.096 0.931
3616.833 1.3012 1.6457 1.3486 0.9767 0.6807 0.75329 1.1268 0.975 0.626 0.7283
3636.123 0.8789 1.0476 1.049 0.9402 1.0622 0.9793 0.82532 0.9116 0.9185 1.3138
3655.413 1.881 1.3276 0.6542 0.862 1.2307 1.4111 1.2861 1.0954 0.8776 1.2115
3674.703 1.6517 0.9451 0.78637 1.1964 1.2606 1.3062 1.2725 1.369 1.2542 1.0924
3693.993 1.2959 1.302 0.9805 0.8638 0.9735 0.8856 0.82151 0.9015 0.8737 0.9954
3713.282 1.5359 1.4233 1.0351 1.2861 1.3605 1.2069 1.1352 1.1429 1.1961 1.2319
3732.572 1.771 1.4749 0.501 1.0221 1.426 1.0058 1.2497 1.3243 0.415 0.539
3751.862 1.1629 0.9344 1.0322 1.3075 1.0284 0.535 0.458 0.532 0.511 0.47
3771.152 0.6756 0.51 0.559 1.2308 1.2007 0.7249 0.58 0.619 0.447 0.671
3790.441 0.7093 0.523 0.853 1.0261 1.0718 1.1103 0.82887 0.518 0.7049 0.8419
3809.731 0.572 0.6462 0.8679 0.701 0.354 0.239 0.8201 1.179 0.9985 0.76468
3829.021 0.7039 0.750382 0.80069 1.0609 1.2058 1.3731 1.0333 0.438 0 0.101
3848.311 0.352 0.385 0.6768 0.83646 1.0612 1.4572 1.781 1.5553 1.4285 1.971
3867.601 1.841 1.1228 0.9853 1.2836 1.4505 1.3082 0.9002 0.625 0.83811 0.6649
3886.890 0.6813 1.1727 1.1234 1.0405 0.76002 0.8604 0.9802 0.9101 1.5436 1.2612
3906.180 1.0863 1.3196 0.9308 1.0561 1.4713 1.7076 1.724 1.5578 1.2219 0.9667
3925.470 0.8633 0.63 0.6653 0.8533 0.9386 0.9289 0.76844 0.9337 1.0458 0.8689
3944.760 0.486 0.6477 1.077 1.0556 1.1657 1.2246 1.2628 1.1415 0.9233 0.9901
3964.049 1.2058 1.2122 0.77407 0.57 0.9186 0.9775 0.6744 0.6578 0.46 0.6548
3983.339 1.1531 0.8739 0.9789 1.188 0.80064 1.1161 1.771 1.4569 1.1015 1.0333
##END=
