##TITLE=3,3',5,5'-Tetrakis(trifluoromethyl)benzophenone
##JCAMP-DX=4.24
##DATA TYPE=INFRARED SPECTRUM
##ORIGIN=EPA-IR VAPOR PHASE LIBRARY
##OWNER=SRD/NIST
Collection (C) 2018 copyright by the U.S. Secretary of Commerce
on behalf of the United States of America. All rights reserved.
##CAS REGISTRY NO=175136-66-0
##MOLFORM=C 17 H 6 F 12 O
##$NIST SOURCE=MSDC-IR
##STATE=gas
##XUNITS=1/CM
##YUNITS=ABSORBANCE
##XFACTOR=1.
##YFACTOR=0.001
##DELTAX=1.92898
##FIRSTX=549.8
##LASTX=4000.7
##FIRSTY=1.7192
##MAXX=4000.7
##MINX=549.759
##MAXY=0.842758
##MINY=0
##NPOINTS=1790
##XYDATA=(X++(Y..Y))
549.759 1.7192 1.998 2.168 2.098 1.7495 2.108 1.838 1.442 2.038 2.098
569.049 1.4168 1.7342 2.118 1.6418 1.828 2.228 2.508 2.448 1.938 2.138
588.339 2.298 2.018 2.308 2.618 3.278 4.188 4.788 5.168 5.318 4.958
607.628 4.688 4.118 3.198 2.898 2.548 2.228 2.238 2.308 2.338 2.218
626.918 1.978 2.188 2.558 2.678 2.848 2.938 2.778 2.978 3.548 3.908
646.208 3.768 4.008 4.538 4.958 5.928 7.208 8.448 9.508 10.368 11.228
665.498 12.348 13.998 16.128 19.618 26.998 42.188 69.918 108.688 144.798 159.688
684.787 144.658 109.978 72.498 44.698 30.538 25.858 26.938 32.278 39.748 45.078
704.077 43.878 35.988 25.958 17.718 12.618 10.478 9.728 8.958 8.258 7.428
723.367 5.838 4.418 3.908 3.338 3.048 3.188 2.938 2.388 2.188 2.378
742.657 2.858 3.388 3.698 4.028 5.318 8.618 14.028 19.298 21.958 21.708
761.947 20.608 20.458 19.008 15.288 11.108 7.728 5.478 3.998 3.378 3.288
781.236 2.858 2.568 2.338 2.078 2.178 2.158 1.948 1.858 2.008 1.6944
800.526 1.2539 0.9596 0.8158 1.4744 2.118 1.998 1.818 2.228 2.318 2.258
819.816 2.278 2.388 2.458 2.608 3.318 3.808 4.608 5.818 7.278 9.508
839.106 12.518 16.398 20.548 23.298 23.938 22.898 20.728 17.948 15.088 12.118
858.395 9.738 7.828 5.978 4.268 3.168 3.308 3.048 2.288 2.178 2.438
877.685 2.818 3.078 2.868 2.798 3.188 3.498 3.778 4.598 5.818 7.238
896.975 8.418 9.818 12.788 18.288 27.358 39.308 52.138 60.258 57.928 47.038
916.265 33.548 22.758 16.108 12.408 10.528 9.238 8.268 8.028 8.308 8.178
935.555 7.698 6.728 5.678 5.228 4.618 3.968 3.608 3.418 3.238 3.018
954.844 2.648 2.318 2.288 2.398 2.558 2.668 2.598 2.238 2.208 2.428
974.134 2.298 2.178 2.408 2.588 2.388 2.258 2.468 2.538 2.748 3.288
993.424 3.428 3.508 3.968 4.358 5.028 6.168 7.198 7.778 7.748 7.408
1012.714 7.088 6.548 6.028 5.548 5.018 5.068 5.068 4.678 4.598 4.458
1032.003 3.808 3.548 3.848 4.028 4.198 4.088 4.208 4.328 4.978 5.358
1051.293 4.958 4.858 4.758 5.078 5.118 5.168 5.148 5.128 5.578 5.868
1070.583 5.888 5.948 6.368 6.898 7.028 7.318 7.398 7.618 8.288 9.238
1089.873 10.308 11.268 12.558 14.258 15.688 17.538 19.828 22.118 26.258 30.978
1109.163 34.388 37.148 37.058 35.138 33.048 30.778 31.168 33.108 34.808 36.968
1128.452 38.208 39.908 44.118 49.968 58.208 70.068 85.768 106.428 134.058 170.888
1147.742 220.598 287.238 370.758 464.988 556.328 618.118 621.738 558.548 453.658 344.608
1167.032 260.698 209.638 184.418 178.398 186.958 207.788 238.948 276.248 311.658 338.688
1186.322 356.318 364.058 362.718 351.098 328.508 298.198 262.918 228.048 195.498 168.918
1205.611 152.108 140.328 133.938 132.838 133.818 137.908 143.988 152.068 168.148 191.838
1224.901 223.228 266.408 315.198 351.928 357.048 328.598 274.758 214.058 166.048 134.228
1244.191 113.978 101.228 94.108 90.988 90.308 90.448 91.418 94.058 99.688 110.518
1263.481 127.598 151.148 182.798 225.318 284.538 371.398 493.968 644.938 783.018 842.758
1282.771 783.818 622.228 428.958 273.028 174.208 118.428 86.528 66.148 51.668 41.378
1302.060 34.118 28.768 25.018 22.468 20.698 19.388 18.518 18.178 18.118 18.048
1321.350 18.008 17.948 17.818 17.508 16.928 16.028 14.938 14.058 13.328 12.838
1340.640 12.588 12.588 13.028 13.588 14.438 15.738 17.348 19.338 21.908 25.118
1359.930 28.828 32.808 36.368 39.078 40.618 40.978 40.688 40.358 40.908 42.858
1379.219 45.468 46.988 45.508 40.268 32.368 23.948 17.188 12.858 10.348 8.878
1398.509 8.068 7.518 7.078 6.858 6.688 6.348 6.058 5.888 5.778 5.738
1417.799 5.748 5.688 5.578 5.488 5.408 5.368 5.478 5.628 5.868 6.328
1437.089 6.808 7.208 7.508 7.818 8.328 8.788 9.118 9.298 9.038 8.298
1456.378 7.508 6.598 5.618 4.908 4.588 4.278 3.888 3.658 3.538 3.548
1475.668 3.428 3.218 3.128 3.028 2.928 2.898 2.948 2.968 2.788 2.608
1494.958 2.578 2.608 2.558 2.478 2.408 2.408 2.528 2.608 2.698 2.748
1514.248 2.738 2.768 2.758 2.848 2.948 2.878 2.918 2.878 2.758 2.728
1533.538 2.628 2.538 2.468 2.428 2.478 2.448 2.528 2.608 2.668 2.778
1552.827 2.818 2.748 2.788 2.978 2.898 2.768 2.778 2.698 2.848 2.998
1572.117 2.938 3.178 3.288 3.298 3.618 3.948 4.278 4.728 5.198 5.678
1591.407 6.358 7.028 7.998 9.128 10.158 11.278 12.458 13.978 16.198 19.048
1610.697 22.078 24.938 26.928 27.318 25.988 23.238 19.748 16.208 13.188 11.058
1629.986 9.658 8.508 7.528 6.838 6.238 5.788 5.608 5.218 4.948 4.988
1649.276 5.058 5.228 5.288 5.428 5.728 5.968 6.208 6.628 7.218 7.878
1668.566 8.778 9.758 11.068 12.928 15.148 17.638 20.628 24.038 28.068 33.078
1687.856 38.848 45.348 51.708 56.688 58.678 56.728 51.248 44.008 37.618 32.348
1707.146 28.488 25.328 22.398 19.488 16.578 14.088 12.098 10.598 9.428 8.348
1726.435 7.548 6.898 6.198 5.488 4.748 4.168 3.768 3.478 3.298 3.078
1745.725 2.948 2.798 2.698 2.648 2.518 2.618 2.668 2.608 2.578 2.578
1765.015 2.558 2.408 2.448 2.478 2.388 2.298 2.308 2.428 2.358 2.278
1784.305 2.318 2.308 2.328 2.248 2.208 2.258 2.208 2.158 2.148 2.118
1803.594 2.068 2.068 2.108 2.148 2.318 2.538 2.748 3.058 3.418 3.888
1822.884 4.338 4.728 5.158 5.608 5.978 6.168 6.328 6.288 6.088 5.898
1842.174 5.548 5.158 4.798 4.478 4.218 3.948 3.788 3.768 3.588 3.518
1861.464 3.518 3.278 3.068 2.888 2.688 2.518 2.378 2.238 2.188 2.038
1880.754 1.898 1.828 1.6727 1.5666 1.4356 1.3416 1.3189 1.3118 1.3578 1.1979
1900.043 1.214 1.4337 1.4286 1.34 1.3721 1.4334 1.4306 1.4317 1.3501 1.2024
1919.333 1.0878 1.0249 1 1.054 1.0461 1.009 1.1164 1.1598 1.0967 1.2035
1938.623 1.2363 1.203 1.3507 1.3272 1.3115 1.4055 1.4217 1.4613 1.4407 1.3455
1957.913 1.1987 1.0636 1.0826 1.1239 1.0588 0.9846 0.9631 1.0027 1.0132 0.9194
1977.202 0.8899 1.003 1.0264 0.9769 1.1368 1.2675 1.2709 1.4432 1.6369 1.6163
1996.492 1.6043 1.6936 1.6682 1.6922 1.7125 1.6429 1.5667 1.4705 1.3214 1.2445
2015.782 1.3282 1.3307 1.3599 1.4098 1.4705 1.5196 1.4677 1.5871 1.7394 1.7203
2035.072 1.6753 1.6688 1.5435 1.415 1.4469 1.2592 1.0327 1.0125 1.066 1.0776
2054.362 1.0198 1.0349 1.0034 0.9224 0.8652 0.9046 0.9793 0.9839 0.9767 0.9582
2073.651 0.9459 1.0051 0.9029 0.8697 1.0025 0.9735 0.9159 0.889 0.8885 0.934
2092.941 0.9107 0.85092 0.80592 0.82986 0.8774 0.81884 0.83848 0.8955 0.9523 0.9344
2112.231 0.9506 1.1268 1.1904 1.1544 1.2369 1.3773 1.4136 1.3773 1.3659 1.3933
2131.521 1.2383 1.0546 1.0451 0.9445 0.8795 0.81391 0.81596 0.85399 0.8049 0.81169
2150.810 0.8955 0.82622 0.765469 0.79946 0.80657 0.761777 0.75333 0.80923 0.80567 0.82285
2170.100 0.84247 0.83399 0.7476 0.7308 0.81358 0.9204 0.9083 0.8597 0.8976 0.85797
2189.390 0.9152 1.0478 1.084 1.1151 1.1525 1.2323 1.2917 1.3015 1.4026 1.4945
2208.680 1.3063 1.2791 1.4324 1.5757 1.7399 1.868 1.848 1.858 1.948 1.898
2227.970 1.958 2.038 1.888 1.6644 1.6137 1.6374 1.5539 1.3758 1.4249 1.5075
2247.259 1.5781 1.778 1.848 1.788 1.788 1.868 1.968 2.038 1.958 1.888
2266.549 1.808 1.798 1.868 1.858 1.948 2.018 2.038 2.118 2.278 2.408
2285.839 2.408 2.438 2.578 2.568 2.528 2.728 2.738 2.638 2.608 2.578
2305.129 2.568 2.548 2.508 2.278 2.078 2.058 2.058 2.008 1.868 1.878
2324.418 1.7453 1.6373 1.6765 1.5524 1.5992 1.6603 1.5494 1.693 1.918 1.888
2343.708 1.7531 1.7302 1.798 1.858 1.948 1.988 1.948 1.868 1.888 1.908
2362.998 1.958 1.978 1.948 1.938 1.978 2.148 2.208 2.178 2.238 2.328
2382.288 2.348 2.128 1.878 1.848 1.838 1.7142 1.4917 1.5205 1.4479 1.341
2401.578 1.3772 1.1951 1.0207 1.052 1.0885 0.9377 1.0149 1.198 1.1651 1.2098
2420.867 1.1778 0.9566 0.9042 1.0273 1.1444 1.1574 1.0846 1.0711 1.0319 1.0014
2440.157 0.9629 1.0503 1.123 1.1346 1.068 0.9224 0.9719 1.0102 0.8979 0.81918
2459.447 0.8707 0.9237 0.83731 0.83767 0.9051 0.9236 0.9669 0.8934 0.84721 0.962
2478.737 0.84835 0.584 0.64 0.7217 0.6983 0.7061 0.6773 0.666 0.7416 0.84017
2498.026 0.767884 0.6654 0.7089 0.7414 0.7227 0.75222 0.83969 0.84328 0.7313 0.74991
2517.316 0.81927 0.81797 0.8637 0.8581 0.82262 0.9259 0.9183 0.81812 0.81219 0.962
2536.606 1.0289 1.0014 1.107 1.0924 1.1115 1.2427 1.2488 1.1933 1.2643 1.2948
2555.896 1.3277 1.4544 1.411 1.2316 1.1616 1.2007 1.0988 0.9596 0.8582 0.75674
2575.186 0.6851 0.7427 0.9643 0.915 0.884 0.8983 0.7395 0.77893 0.8677 0.81301
2594.475 0.8464 1.012 1.0983 0.9204 0.8601 0.77211 0.64 0.8829 1.0629 0.9698
2613.765 0.9319 0.8667 0.7422 0.7328 0.7467 0.85497 0.875 0.83049 0.9892 1.0485
2633.055 0.9636 1.0213 1.0535 1.0054 0.81287 0.79084 0.9034 0.8625 0.9059 0.9399
2652.345 0.9272 1.0177 1.0895 0.9784 0.84857 0.80149 0.83294 0.9267 0.81908 0.637
2671.634 0.622 0.631 0.599 0.518 0.501 0.6821 0.7099 0.652 0.6624 0.6969
2690.924 0.80751 0.760841 0.7096 0.634 0.631 0.6791 0.544 0.386 0.497 0.6964
2710.214 0.617 0.635 0.586 0.383 0.449 0.494 0.49 0.6652 0.77801 0.79366
2729.504 0.82777 0.635 0.362 0.31 0.427 0.408 0.474 0.7446 0.78613 0.638
2748.794 0.615 0.7004 0.7213 0.7115 0.616 0.582 0.49 0.64 0.7849 0.6995
2768.083 0.7428 0.719 0.79654 0.766172 0.654 0.645 0.7112 0.7422 0.549 0.485
2787.373 0.477 0.532 0.542 0.435 0.474 0.506 0.446 0.263 0.318 0.506
2806.663 0.657 0.73 0.633 0.53 0.473 0.464 0.473 0.6765 0.81083 0.619
2825.953 0.41 0.478 0.7029 0.77912 0.8098 0.7097 0.603 0.7873 0.7303 0.637
2845.242 0.636 0.482 0.387 0.301 0.401 0.463 0.507 0.6895 0.542 0.564
2864.532 0.6975 0.647 0.6831 0.6906 0.562 0.553 0.628 0.56 0.542 0.56
2883.822 0.573 0.619 0.649 0.64 0.636 0.686 0.533 0.49 0.82757 0.77986
2903.112 0.504 0.611 0.7037 0.5 0.463 0.6643 0.6788 0.609 0.639 0.603
2922.401 0.48 0.442 0.569 0.6726 0.644 0.54 0.476 0.385 0.416 0.382
2941.691 0.398 0.523 0.489 0.455 0.61 0.7202 0.6926 0.7096 0.7065 0.82589
2960.981 0.84489 0.83197 0.82597 0.802 0.83068 0.9293 1.1066 1.2003 1.0653 1.0593
2980.271 1.3073 1.2319 1.0119 0.9298 0.9759 0.9652 1.0453 1.1349 1.1592 1.2493
2999.561 1.1479 0.9283 0.75123 0.7395 0.80763 0.8945 0.8658 0.764309 0.79062 0.6829
3018.850 0.525 0.613 0.593 0.631 0.7247 0.636 0.7442 0.83923 0.80935 0.8908
3038.140 0.8983 0.79371 0.82123 0.9421 1.0903 0.901 0.9441 1.0725 0.9842 1.0391
3057.430 1.0557 1.1451 1.2761 1.2608 1.3465 1.4759 1.5535 1.778 1.828 1.898
3076.720 1.978 2.188 2.328 2.598 3.068 3.408 3.688 3.798 3.918 3.698
3096.009 3.108 2.678 2.138 1.6131 1.3934 1.1612 0.85262 1.0499 1.1865 0.9813
3115.299 0.80088 0.8615 0.9784 0.9189 0.75303 0.479 0.465 0.504 0.603 0.77685
3134.589 0.81115 0.82502 0.78822 0.576 0.617 0.6584 0.7343 0.8898 0.75052 0.765717
3153.879 0.7425 0.65 0.626 0.637 0.483 0.443 0.568 0.504 0.541 0.6639
3173.169 0.673 0.6996 0.6883 0.638 0.7894 0.8678 0.77106 0.591 0.548 0.369
3192.458 0.222 0.292 0.241 0.24 0.419 0.652 0.6615 0.62 0.62 0.567
3211.748 0.636 0.578 0.495 0.547 0.605 0.615 0.79487 0.8926 0.7357 0.587
3231.038 0.42 0.288 0.335 0.455 0.424 0.461 0.491 0.364 0.381 0.525
3250.328 0.578 0.49 0.368 0.418 0.532 0.449 0.426 0.441 0.243 0.501
3269.617 0.703 0.59 0.613 0.613 0.6591 0.6651 0.6935 0.7161 0.79847 0.586
3288.907 0.495 0.6696 0.577 0.767247 0.8955 0.6611 0.44 0.343 0.447 0.6838
3308.197 0.615 0.5 0.686 0.77337 0.657 0.614 0.631 0.635 0.81625 0.9003
3327.487 0.9269 0.683 0.512 0.65 0.6851 0.55 0.635 0.653 0.447 0.577
3346.777 0.78176 0.75831 0.7356 0.8852 0.903 0.84109 0.9474 1.0192 1.2133 1.3017
3366.066 1.0844 0.9961 1.1661 1.3246 1.2011 1.1294 1.1072 1.064 1.0602 1.2636
3385.356 1.4417 1.3316 1.1353 1.06 0.9223 0.9517 1.0626 0.85515 0.78625 1.0096
3404.646 0.9247 0.593 0.6687 0.644 0.562 0.759604 0.568 0.474 0.84961 0.888
3423.936 0.622 0.80846 1.0317 0.9171 0.7304 0.653 0.79539 0.817 0.83863 0.77458
3443.225 0.7125 0.6734 0.615 0.79446 0.7729 0.6896 0.634 0.566 0.6816 0.658
3462.515 0.613 0.634 0.5 0.443 0.492 0.513 0.496 0.565 0.549 0.399
3481.805 0.609 0.523 0.325 0.44 0.55 0.7028 0.6733 0.7401 0.9462 0.8745
3501.095 0.7078 0.562 0.449 0.459 0.457 0.416 0.456 0.455 0.452 0.543
3520.385 0.7493 0.765345 0.6909 0.687 0.584 0.545 0.298 0.126 0.379 0.714
3539.674 0.577 0.289 0.49 0.527 0.381 0.547 0.62 0.483 0.34 0.502
3558.964 0.644 0.481 0.533 0.628 0.54 0.553 0.642 0.642 0.532 0.562
3578.254 0.696 0.663 0.552 0.478 0.438 0.469 0.482 0.424 0.388 0.273
3597.544 0.336 0.521 0.464 0.405 0.506 0.404 0.323 0.609 0.80998 0.6627
3616.833 0.576 0.645 0.77222 0.64 0.42 0.514 0.535 0.548 0.54 0.473
3636.123 0.6762 0.525 0.396 0.7329 0.78209 0.505 0.418 0.45 0.406 0.369
3655.413 0.323 0.551 0.637 0.597 0.611 0.551 0.485 0.442 0.352 0.451
3674.703 0.637 0.591 0.486 0.424 0.51 0.504 0.7173 0.80193 0.521 0.34
3693.993 0.339 0.452 0.246 0.193 0.439 0.655 0.51 0.388 0.504 0.331
3713.282 0.149 0.242 0.371 0.342 0.386 0.503 0.273 0.112 0.532 0.6648
3732.572 0.499 0.78158 0.9355 0.7459 0.65 0.6638 0.554 0.616 0.579 0.344
3751.862 0.377 0.421 0.478 0.513 0.503 0.613 0.8065 0.9526 1.0687 1.0723
3771.152 0.862 0.537 0.421 0.567 0.7023 0.765011 0.6867 0.6755 0.589 0.535
3790.441 0.404 0.438 0.7166 0.77635 0.652 0.564 0.6899 0.758005 0.8711 0.8972
3809.731 0.626 0.518 0.7372 0.7421 0.579 0.498 0.7098 0.7452 0.481 0.494
3829.021 0.528 0.6672 0.75496 0.6927 0.632 0.6955 0.497 0.327 0.6607 0.764467
3848.311 0.7088 0.80062 0.9191 0.8534 0.533 0.397 0.545 0.568 0.458 0.502
3867.601 0.6746 0.644 0.644 0.658 0.582 0.685 0.81408 0.524 0.542 0.79042
3886.890 0.6867 0.6966 0.599 0.286 0 0.173 0.526 0.615 0.326 0.166
3906.180 0.451 0.549 0.7017 0.542 0.396 0.574 0.468 0.301 0.329 0.652
3925.470 0.7279 0.7465 1.054 0.9676 0.7311 0.79598 0.8937 0.9354 0.77365 0.52
3944.760 0.423 0.586 0.802 0.517 0.373 0.6973 0.555 0.071 0.12 0.277
3964.049 0.357 0.358 0.401 0.475 0.417 0.584 0.7244 0.7474 0.55 0.457
3983.339 0.583 0.614 0.595 0.552 0.567 0.431 0.472 0.56 0.486 0.448
##END=
