##TITLE=n-Propanesulphonylacetonitrile
##JCAMP-DX=4.24
##DATA TYPE=INFRARED SPECTRUM
##ORIGIN=EPA-IR VAPOR PHASE LIBRARY
##OWNER=SRD/NIST
Collection (C) 2018 copyright by the U.S. Secretary of Commerce
on behalf of the United States of America. All rights reserved.
##CAS REGISTRY NO=175137-61-8
##MOLFORM=C 5 H 9 N O 2 S
##$NIST SOURCE=MSDC-IR
##STATE=gas
##XUNITS=1/CM
##YUNITS=ABSORBANCE
##XFACTOR=1.
##YFACTOR=0.001
##DELTAX=1.92898
##FIRSTX=549.8
##LASTX=4000.7
##FIRSTY=42.824
##MAXX=4000.7
##MINX=549.759
##MAXY=0.274334
##MINY=0
##NPOINTS=1790
##XYDATA=(X++(Y..Y))
549.759 42.824 41.954 40.734 39.044 36.514 33.394 30.514 27.414 24.764 22.024
569.049 18.994 16.254 13.894 11.954 10.604 9.894 8.654 7.674 7.594 7.174
588.339 6.364 5.694 5.484 5.794 5.754 5.764 5.684 5.254 5.034 4.704
607.628 4.444 4.334 4.494 4.474 4.304 4.214 4.424 4.944 4.934 5.164
626.918 5.594 5.974 6.204 6.414 6.784 7.114 7.474 7.794 8.024 8.024
646.208 8.004 7.894 7.744 7.844 7.664 7.264 7.194 7.114 6.924 6.664
665.498 6.544 6.524 6.364 6.514 6.764 7.114 7.774 8.124 8.294 8.964
684.787 9.254 9.374 10.064 10.584 10.704 11.234 11.604 11.504 11.874 12.204
704.077 12.314 12.544 12.724 12.594 12.784 13.324 13.574 13.684 13.914 14.534
723.367 15.434 16.674 18.124 19.684 21.424 23.524 25.834 28.314 30.684 32.784
742.657 34.804 36.484 37.704 38.474 38.804 38.474 37.574 36.514 35.274 33.374
761.947 31.364 29.584 27.814 26.304 24.974 23.824 22.934 22.234 22.134 21.814
781.236 21.134 20.834 20.484 20.104 19.804 19.464 18.954 18.184 17.584 16.904
800.526 15.694 14.564 13.824 13.294 12.494 12.014 11.804 11.334 11.114 11.264
819.816 11.544 12.034 12.704 13.354 14.064 14.814 15.634 16.494 17.564 18.814
839.106 20.124 21.534 23.064 24.934 26.994 28.894 30.674 32.254 33.914 35.604
858.395 36.894 37.774 38.374 38.794 38.634 37.834 36.644 34.934 32.834 30.514
877.685 27.994 25.564 23.084 20.494 17.844 15.164 12.964 11.184 9.914 9.114
896.975 8.314 7.384 6.764 6.294 5.874 5.664 5.484 4.984 4.244 3.714
916.265 3.384 3.264 2.834 2.374 2.184 1.964 1.854 1.794 1.584 1.454
935.555 1.524 1.564 1.654 1.644 1.824 2.044 2.244 2.404 2.394 2.444
954.844 2.264 2.204 2.254 2.034 1.914 2.034 2.134 2.054 1.684 1.494
974.134 1.374 1.354 1.354 1.334 1.514 1.334 1.184 1.184 1.394 1.504
993.424 1.434 1.444 1.344 1.384 1.604 1.594 1.424 1.244 1.254 1.414
1012.714 1.604 1.984 2.044 1.814 2.184 2.634 2.324 1.934 2.224 2.494
1032.003 2.874 3.174 3.234 3.784 4.014 4.064 4.404 4.584 4.684 5.134
1051.293 5.644 6.434 6.744 6.784 7.454 7.954 8.584 9.284 9.244 9.294
1070.583 9.964 10.634 10.314 9.934 10.684 11.554 11.984 12.054 12.104 12.524
1089.873 12.964 12.514 12.314 11.964 10.534 9.754 9.894 10.034 9.944 10.234
1109.163 10.404 10.674 11.824 13.674 16.104 19.264 24.214 30.844 39.084 49.284
1128.452 61.864 76.014 91.264 106.184 118.394 128.364 136.334 141.134 143.194 143.614
1147.742 141.204 136.724 131.304 124.144 116.744 110.514 105.784 102.154 98.944 96.124
1167.032 92.764 87.694 81.694 75.264 67.644 59.474 50.804 42.384 35.234 29.434
1186.322 24.994 21.164 18.364 16.514 15.444 15.844 15.554 14.944 15.164 15.484
1205.611 15.914 15.934 15.744 15.864 17.384 19.214 20.324 21.164 22.714 24.624
1224.901 26.124 28.324 30.134 31.864 33.244 33.864 35.264 35.854 35.214 35.004
1244.191 34.744 33.614 32.624 31.934 31.544 30.974 29.894 28.874 28.014 27.234
1263.481 26.224 24.574 23.014 21.244 19.504 18.154 16.624 15.164 13.934 13.164
1282.771 12.764 12.574 12.434 12.604 12.964 13.204 13.624 14.154 14.724 15.294
1302.060 15.674 15.904 16.144 16.374 16.634 16.894 17.304 17.814 18.484 19.504
1321.350 20.744 22.394 24.524 27.244 30.674 34.764 39.464 44.914 51.234 58.334
1340.640 66.604 76.084 87.024 99.954 114.534 130.744 148.464 167.574 187.594 207.574
1359.930 226.534 243.714 258.834 270.234 274.334 267.464 250.404 227.524 201.724 175.454
1379.219 150.594 127.234 104.964 85.004 68.464 56.164 47.784 42.274 38.924 37.204
1398.509 36.594 35.984 34.244 32.014 30.344 28.864 27.184 25.234 22.854 20.434
1417.799 18.334 16.634 15.264 13.954 12.734 11.704 10.874 10.154 9.644 9.324
1437.089 9.174 9.304 9.534 9.844 10.314 10.824 11.414 12.094 12.774 13.454
1456.378 14.034 14.614 15.134 15.484 15.584 15.424 15.184 14.684 14.014 13.234
1475.668 12.374 11.514 10.624 9.684 8.844 8.084 7.364 6.694 6.184 5.784
1494.958 5.354 5.024 4.644 4.454 4.304 4.004 3.714 3.534 3.444 3.314
1514.248 3.214 3.144 3.124 2.954 2.814 2.884 2.744 2.574 2.474 2.344
1533.538 2.274 2.304 2.204 1.984 1.884 1.834 1.794 1.734 1.584 1.544
1552.827 1.524 1.414 1.454 1.354 1.324 1.344 1.334 1.394 1.354 1.324
1572.117 1.484 1.474 1.264 1.254 1.264 1.1093 1.0755 1.174 1.194 1.214
1591.407 1.264 1.224 1.04 1.1115 1.334 1.304 1.244 1.194 1.204 1.204
1610.697 1.164 1.224 1.194 1.0641 1.075 1.1055 1.0235 0.9596 1.0072 1.0908
1629.986 1.0999 1.0467 1.174 1.234 1.154 1.1038 1.0176 1.0571 1.1325 1.1368
1649.276 1.154 1.0367 0.9825 1.1248 1.0393 0.9428 0.9643 1.0542 1.164 1.0767
1668.566 1.0115 1.0312 0.964 0.9673 1.002 1.0196 0.9944 0.8835 0.8404 0.8709
1687.856 0.8725 0.9106 0.9634 0.8903 0.8864 0.9651 0.9145 0.903 0.8586 0.8116
1707.146 0.7933 0.786 0.8249 0.8477 0.8431 0.7713 0.8487 0.8985 0.9018 1.0107
1726.435 0.9874 0.9848 1.0563 0.9528 0.8815 0.9611 1.0822 1.164 1.164 1.214
1745.725 1.264 1.314 1.314 1.334 1.414 1.414 1.424 1.434 1.414 1.354
1765.015 1.234 1.1203 1.1325 1.1075 1.0137 1.0098 0.9875 0.9337 0.8407 0.7938
1784.305 0.7089 0.613 0.6913 0.7407 0.6314 0.6365 0.6953 0.6458 0.57 0.5451
1803.594 0.5571 0.5468 0.542 0.5996 0.6242 0.6071 0.5911 0.5366 0.5063 0.4759
1822.884 0.5367 0.4655 0.3969 0.4887 0.5335 0.5405 0.6275 0.6605 0.5052 0.4644
1842.174 0.5091 0.4651 0.5059 0.5655 0.57 0.6023 0.568 0.528 0.5247 0.5473
1861.464 0.5541 0.5253 0.5914 0.6326 0.5723 0.6117 0.7189 0.7656 0.7695 0.7908
1880.754 0.783 0.8394 0.8991 0.9146 0.9832 0.9857 0.9932 1.0855 1.1517 1.154
1900.043 1.1355 1.184 1.184 1.0825 1.0137 1.0326 1.0738 1.0163 1.043 0.9698
1919.333 0.8615 0.941 1.0096 0.9961 0.883 0.8648 0.8871 0.7972 0.8163 0.9377
1938.623 0.9633 0.8562 0.7435 0.7434 0.8044 0.9168 0.9858 0.9302 0.7781 0.7762
1957.913 0.8392 0.8056 0.7898 0.725 0.6979 0.6739 0.5966 0.6821 0.7328 0.6555
1977.202 0.6958 0.7265 0.6555 0.6418 0.654 0.5845 0.5703 0.6423 0.6652 0.6913
1996.492 0.7456 0.7907 0.8655 0.8702 0.8704 0.9169 0.9143 0.8827 0.9421 0.9657
2015.782 0.8349 0.8262 0.8681 0.9033 0.9578 0.9017 0.8681 0.8726 0.8941 0.8764
2035.072 0.8783 0.8385 0.8627 0.9836 0.9824 0.8923 0.7802 0.7806 0.8339 0.8319
2054.362 0.8418 0.8158 0.7849 0.8097 0.7147 0.6406 0.6752 0.6067 0.6789 0.8183
2073.651 0.7315 0.6307 0.588 0.6437 0.7463 0.7376 0.664 0.6686 0.7273 0.6809
2092.941 0.6142 0.6286 0.6976 0.6911 0.6437 0.713 0.7783 0.7662 0.8173 0.8914
2112.231 0.9241 0.9144 0.9266 0.9521 0.8864 0.8667 0.8857 0.8876 0.9459 0.93
2131.521 0.841 0.7799 0.7544 0.794 0.7476 0.6335 0.6393 0.7315 0.7655 0.6872
2150.810 0.645 0.7188 0.7485 0.6702 0.5615 0.481 0.5367 0.5843 0.5161 0.5258
2170.100 0.6121 0.6016 0.5234 0.5146 0.6065 0.6849 0.5806 0.5141 0.507 0.5872
2189.390 0.6938 0.6771 0.6486 0.6273 0.7101 0.8188 0.8349 0.8129 0.7265 0.7668
2208.680 0.9168 0.8584 0.7976 0.8211 0.779 0.795 0.8911 0.8819 0.8439 0.8805
2227.970 0.8881 0.9638 1.0479 1.0882 1.174 1.224 1.424 1.674 1.794 2.034
2247.259 2.244 2.444 2.634 2.764 2.874 2.884 2.864 2.914 2.834 2.654
2266.549 2.564 2.384 2.134 1.974 1.874 1.824 1.864 1.884 1.914 1.884
2285.839 1.784 1.624 1.504 1.464 1.464 1.494 1.444 1.394 1.344 1.234
2305.129 1.234 1.294 1.244 1.184 1.164 1.145 1.1149 1.0914 1.097 1.0837
2324.418 0.9945 1.0225 1.0698 1.0098 0.9561 1.0126 0.9915 0.8744 0.9693 0.959
2343.708 1.0081 1.1269 1.0366 0.9708 1.0344 1.1501 1.1236 1.1525 1.1186 1.0299
2362.998 1.0876 1.0422 0.9814 1.0588 1.1172 1.164 1.1339 1.0037 0.933 0.9532
2382.288 0.9847 1.0262 1.0626 0.9462 0.8976 0.9437 0.8792 0.8805 0.8812 0.8945
2401.578 0.9324 0.9009 0.8925 0.9093 0.9689 0.9762 0.9716 1.0372 1.1405 1.194
2420.867 1.1313 1.0753 1.0163 1.0513 1.1418 1.1112 1.1451 1.164 1.184 1.274
2440.157 1.334 1.364 1.374 1.404 1.494 1.534 1.494 1.494 1.544 1.524
2459.447 1.544 1.734 1.784 1.754 1.844 1.774 1.714 1.824 1.794 1.764
2478.737 1.814 1.904 1.924 1.924 1.954 2.024 2.124 2.144 2.194 2.264
2498.026 2.314 2.294 2.274 2.224 2.194 2.144 1.964 1.844 1.744 1.634
2517.316 1.494 1.364 1.274 1.254 1.174 0.9922 0.9497 1.0213 1.0536 0.9964
2536.606 0.875 0.8457 0.9013 0.9126 0.8759 0.8955 0.8974 0.856 0.7985 0.5717
2555.896 0.4545 0.623 0.7333 0.6643 0.5455 0.5135 0.6444 0.7558 0.6788 0.5916
2575.186 0.5623 0.6005 0.6812 0.6334 0.5808 0.6269 0.7545 0.8689 0.7674 0.7666
2594.475 0.8456 0.9101 1.0173 0.9453 0.8769 0.9473 1.0192 0.9777 0.8178 0.7509
2613.765 0.7564 0.7203 0.6654 0.5939 0.6939 0.7821 0.7444 0.7895 0.8319 0.8292
2633.055 0.8273 0.7367 0.7653 0.8205 0.7681 0.8315 0.8193 0.7333 0.7694 0.7763
2652.345 0.715 0.7001 0.7213 0.7647 0.8326 0.9369 0.9122 0.8414 0.8558 0.8232
2671.634 0.7624 0.69 0.7238 0.7262 0.7262 0.6918 0.5523 0.5557 0.5366 0.5006
2690.924 0.5385 0.6587 0.7375 0.7581 0.751 0.707 0.6864 0.6219 0.6538 0.6955
2710.214 0.6512 0.651 0.798 0.8768 0.8412 0.9086 0.9469 0.8921 0.8771 0.9608
2729.504 0.9239 0.8631 0.862 0.8398 0.9629 1.0071 1.0385 1.0639 1.0173 1.0793
2748.794 1.164 1.204 1.224 1.324 1.354 1.344 1.404 1.554 1.644 1.494
2768.083 1.404 1.454 1.494 1.564 1.444 1.354 1.484 1.434 1.434 1.594
2787.373 1.564 1.684 1.844 1.764 1.664 1.694 1.874 1.904 1.874 1.944
2806.663 2.004 2.004 1.964 2.044 2.144 2.124 2.094 2.174 2.204 2.254
2825.953 2.294 2.234 2.304 2.384 2.484 2.594 2.664 2.764 2.914 3.104
2845.242 3.294 3.344 3.454 3.704 3.864 3.944 4.184 4.554 4.844 5.144
2864.532 5.534 6.024 6.634 7.374 8.404 9.504 10.564 12.044 13.764 15.424
2883.822 16.994 18.304 19.334 20.124 20.694 20.684 20.404 20.134 19.424 18.584
2903.112 17.874 17.134 16.524 16.074 15.894 16.024 16.294 16.694 17.304 18.244
2922.401 19.274 20.314 21.704 22.954 24.114 25.854 27.934 30.014 32.144 34.284
2941.691 36.004 37.114 37.544 37.684 37.794 37.104 35.874 34.704 33.564 32.284
2960.981 31.104 30.444 30.894 32.674 35.534 38.994 42.704 46.534 49.734 52.014
2980.271 53.824 55.394 55.944 54.244 50.624 46.874 42.924 38.434 33.814 29.234
2999.561 25.344 22.174 19.324 16.844 14.914 13.084 11.354 10.094 9.114 8.374
3018.850 7.754 7.084 6.624 6.224 5.934 5.724 5.454 5.244 4.994 4.804
3038.140 4.684 4.534 4.314 4.044 3.824 3.734 3.594 3.394 3.214 3.214
3057.430 3.104 2.784 2.594 2.654 2.574 2.314 2.264 2.294 2.324 2.144
3076.720 1.824 1.884 1.834 1.664 1.694 1.684 1.694 1.764 1.754 1.704
3096.009 1.674 1.634 1.704 1.714 1.644 1.644 1.604 1.554 1.554 1.484
3115.299 1.454 1.324 1.184 1.254 1.214 1.274 1.404 1.484 1.444 1.274
3134.589 1.324 1.494 1.324 1.154 1.194 1.214 1.244 1.224 1.1335 0.9722
3153.879 1.114 1.194 1.0901 0.981 0.9296 0.9522 1.0244 1.0659 1.0594 1.0273
3173.169 1.0257 1.0805 1.0715 1.0437 0.9539 0.9481 1.0257 1.1511 1.304 1.264
3192.458 1.174 1.214 1.414 1.454 1.414 1.524 1.664 1.704 1.654 1.734
3211.748 1.584 1.484 1.414 1.354 1.414 1.254 1.0043 0.9751 1.0177 0.8792
3231.038 0.7518 0.8226 0.7108 0.478 0.5082 0.6756 0.6971 0.5793 0.4655 0.5691
3250.328 0.6807 0.6689 0.6851 0.5701 0.5464 0.5421 0.5143 0.4807 0.3856 0.3153
3269.617 0.4155 0.5599 0.4489 0.3825 0.4527 0.4166 0.4158 0.6263 0.6738 0.5356
3288.907 0.389 0.4174 0.5241 0.419 0.4541 0.5048 0.3555 0.4027 0.5024 0.3785
3308.197 0.2547 0.3229 0.4262 0.454 0.4514 0.356 0.4055 0.3983 0.3117 0.259
3327.487 0.3363 0.3737 0.2694 0.20862 0.3478 0.6033 0.5896 0.5811 0.4693 0.25019
3346.777 0.20745 0.24471 0.3271 0.2916 0.22269 0.4198 0.5341 0.16681 0.18186 0.4121
3366.066 0.3243 0.18252 0.161757 0.2686 0.4683 0.5136 0.3821 0.3247 0.3502 0.4732
3385.356 0.4641 0.4007 0.4443 0.3809 0.2751 0.3652 0.489 0.562 0.5357 0.4769
3404.646 0.23787 0.22121 0.4224 0.3551 0.2837 0.3363 0.2982 0.14559 0.17902 0.3317
3423.936 0.3347 0.156024 0.17586 0.406 0.313 0.289 0.3675 0.3082 0.1245 0.0814
3443.225 0.3191 0.3755 0.422 0.3765 0.155687 0.02 0.1244 0.1989 0.21573 0.2441
3462.515 0.2587 0.273 0.3705 0.4299 0.505 0.5921 0.5388 0.5865 0.4634 0.4202
3481.805 0.467 0.4075 0.4794 0.6382 0.7753 0.7515 0.6491 0.4859 0.4787 0.5901
3501.095 0.4812 0.3692 0.21779 0.2646 0.4269 0.3728 0.4492 0.4475 0.22812 0.17926
3520.385 0.25331 0.16449 0.015 0.1363 0.24213 0.3022 0.4453 0.4516 0.567 0.7465
3539.674 0.6147 0.4214 0.3329 0.2775 0.2567 0.2017 0.22068 0.2891 0.4014 0.456
3558.964 0.4634 0.4287 0.19702 0.047 0.20199 0.22479 0.19004 0.3083 0.3839 0.3158
3578.254 0.23562 0.2795 0.18019 0.14825 0.0961 0 0.20609 0.3695 0.20427 0.24376
3597.544 0.4725 0.3764 0.283 0.24283 0.22774 0.0881 0.0607 0.21375 0.17084 0.2859
3616.833 0.2732 0.17712 0.2557 0.22392 0.1432 0.23301 0.1347 0.002 0.15152 0.22509
3636.123 0.2997 0.3058 0.24513 0.4163 0.5553 0.5338 0.4647 0.3401 0.3233 0.21899
3655.413 0.018 0.053 0.24712 0.3071 0.2938 0.3466 0.3114 0.2404 0.311 0.2987
3674.703 0.24596 0.3615 0.18353 0.0657 0.05 0.1136 0.3393 0.23015 0.2848 0.4231
3693.993 0.4601 0.21811 0.1062 0.3356 0.3261 0.22481 0.3214 0.4062 0.3099 0.2818
3713.282 0.1848 0.0554 0.21663 0.3526 0.2987 0.2915 0.3307 0.5486 0.7287 0.6042
3732.572 0.3795 0.2755 0.14673 0.23505 0.371 0.3215 0.23175 0.21339 0.275 0.3549
3751.862 0.6171 0.577 0.3394 0.4337 0.5034 0.549 0.6503 0.5601 0.4278 0.5096
3771.152 0.4527 0.3777 0.5672 0.5334 0.5077 0.6106 0.628 0.5835 0.4535 0.5442
3790.441 0.6578 0.7333 0.6869 0.476 0.5346 0.5848 0.5641 0.6299 0.6964 0.58
3809.731 0.4653 0.6489 0.8194 0.8392 0.7636 0.6382 0.5525 0.4838 0.5066 0.5096
3829.021 0.6401 0.8083 0.6485 0.3834 0.1384 0.17663 0.4175 0.3962 0.2999 0.3921
3848.311 0.5752 0.4643 0.5412 0.8423 0.693 0.593 0.5776 0.452 0.4106 0.6227
3867.601 0.4113 0.1334 0.19954 0.22797 0.4687 0.4847 0.3566 0.5226 0.6236 0.4469
3886.890 0.3198 0.3304 0.4357 0.4567 0.3103 0.2635 0.3326 0.3076 0.3815 0.4329
3906.180 0.3821 0.2915 0.22046 0.3841 0.4353 0.2959 0.3542 0.3099 0.21414 0.3468
3925.470 0.22188 0.0649 0.0584 0.19212 0.3262 0.3808 0.333 0.22726 0.5443 0.6663
3944.760 0.4426 0.3395 0.2981 0.21285 0.22129 0.405 0.5704 0.5039 0.2895 0.2853
3964.049 0.4595 0.6091 0.5316 0.4968 0.5449 0.538 0.562 0.5495 0.6931 0.7088
3983.339 0.5744 0.6576 0.8795 0.8347 0.6536 0.6121 0.6828 0.7754 0.9103 0.7761
##END=
