##TITLE=2-(Pentamethylbenzoyl)thiophene
##JCAMP-DX=4.24
##DATA TYPE=INFRARED SPECTRUM
##ORIGIN=EPA-IR VAPOR PHASE LIBRARY
##OWNER=SRD/NIST
Collection (C) 2018 copyright by the U.S. Secretary of Commerce
on behalf of the United States of America. All rights reserved.
##CAS REGISTRY NO=175136-70-6
##MOLFORM=C 16 H 18 O S
##$NIST SOURCE=MSDC-IR
##STATE=gas
##XUNITS=1/CM
##YUNITS=ABSORBANCE
##XFACTOR=1.
##YFACTOR=0.001
##DELTAX=1.92898
##FIRSTX=549.8
##LASTX=4000.7
##FIRSTY=2.034
##MAXX=4000.7
##MINX=549.759
##MAXY=0.112274
##MINY=0
##NPOINTS=1790
##XYDATA=(X++(Y..Y))
549.759 2.034 1.4636 1.7764 1.4797 1.1067 0.77797 1.6451 2.814 3.434 3.794
569.049 3.364 2.754 2.614 3.004 2.874 2.814 3.024 3.134 2.764 2.634
588.339 2.844 3.044 4.264 5.094 5.554 6.034 5.554 4.834 3.894 3.914
607.628 4.844 5.174 4.954 4.164 3.404 3.134 3.114 3.224 2.794 2.504
626.918 2.504 1.934 1.974 2.144 2.324 2.494 2.474 1.904 1.2003 1.5887
646.208 2.134 2.134 2.214 2.744 2.934 3.174 3.994 5.734 7.924 9.684
665.498 10.514 11.154 10.564 9.334 7.424 5.364 4.274 3.584 3.334 3.714
684.787 3.274 2.774 3.614 4.174 4.824 5.804 7.214 9.644 13.784 20.174
704.077 28.854 38.694 49.294 60.184 68.444 70.744 68.114 63.524 54.334 41.274
723.367 30.244 22.834 17.664 14.004 11.844 10.654 9.694 8.584 7.554 7.454
742.657 7.944 8.454 8.604 8.404 8.464 8.084 7.014 6.384 6.304 5.984
761.947 5.734 5.364 4.634 4.014 3.664 3.294 3.294 3.254 3.084 2.764
781.236 2.884 3.084 3.054 3.974 4.094 3.944 4.394 4.714 5.274 5.224
800.526 4.854 5.064 5.244 5.574 5.824 6.234 6.454 6.484 8.394 10.214
819.816 12.054 15.074 18.664 23.344 29.764 38.364 47.704 56.354 61.494 61.074
839.106 55.734 45.774 33.334 23.404 18.364 16.504 16.184 16.544 16.274 14.534
858.395 13.034 11.994 11.774 12.524 13.244 15.354 18.364 20.874 22.404 22.144
877.685 20.474 18.164 14.474 10.904 8.334 6.344 4.904 3.654 2.914 2.974
896.975 2.924 2.654 2.914 2.914 2.444 2.104 2.124 2.384 2.394 2.234
916.265 1.964 1.7464 2.124 2.044 1.804 1.944 1.7771 1.934 2.684 2.554
935.555 1.824 1.6827 1.7568 1.7325 2.054 2.184 2.124 2.524 2.724 2.884
954.844 2.944 2.754 2.984 3.434 3.544 3.234 3.074 2.994 3.004 3.234
974.134 3.394 3.384 3.194 3.614 3.634 3.754 4.034 3.604 3.104 3.294
993.424 3.734 3.554 3.684 3.874 4.074 4.244 4.064 4.534 4.984 5.124
1012.714 5.604 6.214 8.184 9.814 11.044 13.194 14.814 16.534 18.584 19.984
1032.003 20.394 20.084 18.614 17.464 16.424 14.734 14.234 13.954 13.544 14.444
1051.293 15.294 16.204 17.234 17.454 17.634 17.514 17.284 17.054 16.114 13.934
1070.583 12.284 11.564 12.094 14.244 14.184 13.934 14.914 14.494 12.244 9.084
1089.873 6.044 3.944 4.244 2.994 2.194 3.724 4.994 4.974 3.434 3.424
1109.163 3.544 2.114 1.894 3.034 2.864 3.214 4.254 3.924 2.874 2.294
1128.452 2.124 2.124 2.574 2.964 2.574 2.484 2.344 2.084 3.104 3.404
1147.742 2.544 2.914 3.294 3.674 5.384 6.424 8.044 10.274 12.194 14.814
1167.032 17.944 20.574 22.454 23.104 22.664 21.974 19.594 16.824 14.024 12.114
1186.322 11.844 11.654 13.474 16.874 20.364 25.054 30.144 35.594 40.404 42.684
1205.611 42.574 40.824 37.824 31.624 24.844 20.984 19.274 17.644 18.904 23.734
1224.901 28.594 32.824 35.534 33.764 28.744 24.584 19.104 13.034 10.784 10.404
1244.191 10.144 10.624 11.604 13.604 17.214 21.484 26.174 32.104 37.944 42.624
1263.481 45.624 45.914 43.344 38.784 32.934 27.584 23.444 20.154 17.854 16.854
1282.771 16.854 17.774 19.794 22.084 25.354 29.204 32.934 36.684 40.124 42.304
1302.060 42.754 42.034 40.104 37.054 33.504 29.134 24.554 20.724 17.194 14.154
1321.350 11.874 10.144 8.724 7.874 7.524 7.374 7.504 7.834 8.264 8.984
1340.640 10.244 12.324 15.394 19.464 24.404 29.044 31.854 32.384 30.474 26.644
1359.930 21.644 16.624 13.084 11.094 10.174 9.904 9.874 10.004 10.304 10.734
1379.219 11.374 12.214 12.934 13.874 15.354 16.764 18.074 19.684 21.474 23.594
1398.509 26.554 30.224 34.334 39.564 45.384 51.034 56.014 59.484 61.124 60.264
1417.799 57.244 53.154 48.694 44.114 39.624 35.554 31.564 27.914 24.844 22.104
1437.089 19.604 18.034 17.024 16.534 16.204 15.804 15.614 15.514 15.514 15.534
1456.378 15.204 14.924 14.894 14.774 14.254 14.134 14.204 13.924 13.714 13.404
1475.668 13.014 12.564 12.344 12.164 11.804 11.524 11.504 11.614 11.754 12.064
1494.958 12.854 14.234 16.114 18.444 21.224 24.684 28.924 33.154 35.984 36.564
1514.248 35.024 31.424 26.624 22.184 17.934 15.034 13.204 11.844 10.704 10.114
1533.538 10.124 10.154 10.054 10.244 10.304 10.214 10.164 10.074 9.934 9.964
1552.827 10.084 10.294 10.634 11.124 11.624 12.044 12.344 12.394 12.034 11.254
1572.117 11.014 10.534 9.844 9.534 9.044 8.774 8.544 8.014 8.004 7.754
1591.407 7.154 7.114 7.294 7.184 6.854 6.864 6.814 6.774 6.874 6.744
1610.697 6.924 7.314 7.524 7.594 7.664 7.884 8.164 8.364 8.714 9.214
1629.986 9.524 9.854 10.064 10.484 11.094 11.364 12.044 12.894 13.564 14.474
1649.276 16.324 18.824 22.474 27.604 33.664 41.814 52.034 64.244 77.144 89.544
1668.566 100.274 108.304 112.274 111.614 106.284 97.134 84.044 70.204 55.924 42.734
1687.856 32.854 25.104 19.504 15.864 13.854 12.624 12.004 11.684 11.664 11.684
1707.146 11.444 11.134 10.734 9.994 9.224 8.314 7.444 6.824 6.254 5.724
1726.435 5.154 4.764 4.374 4.014 3.854 3.824 3.714 3.694 3.804 3.554
1745.725 3.504 3.704 3.714 3.824 3.834 3.674 3.534 3.354 3.114 2.814
1765.015 2.754 2.754 2.574 2.454 2.604 2.694 2.484 2.274 2.364 2.414
1784.305 2.314 2.234 2.304 2.364 2.364 2.584 2.804 2.964 2.944 2.944
1803.594 3.274 3.564 3.424 3.274 3.304 3.314 3.404 3.454 3.144 2.854
1822.884 2.734 2.654 2.544 2.184 2.064 1.954 1.794 1.7764 1.6268 1.6068
1842.174 1.6627 1.7013 1.6342 1.4126 1.4731 1.5334 1.6788 1.7703 1.5818 1.5985
1861.464 1.5955 1.6057 1.551 1.4643 1.4449 1.4369 1.6279 1.7434 1.6893 1.6633
1880.754 1.7008 1.6576 1.6957 1.761 1.6661 1.6579 1.7414 1.6834 1.5279 1.5404
1900.043 1.5751 1.5732 1.7165 1.834 1.7441 1.7034 1.7468 1.7166 1.5689 1.6331
1919.333 1.6631 1.6957 1.7484 1.518 1.4223 1.4171 1.3836 1.445 1.5057 1.4152
1938.623 1.3681 1.4653 1.6158 1.6862 1.5391 1.4298 1.5579 1.5519 1.5063 1.537
1957.913 1.5095 1.5698 1.4459 1.3447 1.5064 1.6293 1.6614 1.7158 1.7199 1.5752
1977.202 1.5261 1.3889 1.3866 1.452 1.5521 1.5757 1.388 1.4431 1.4234 1.4301
1996.492 1.3464 1.3675 1.5718 1.6269 1.612 1.5542 1.5628 1.4504 1.4185 1.4931
2015.782 1.5286 1.5153 1.5204 1.5082 1.399 1.333 1.368 1.5018 1.4649 1.456
2035.072 1.5103 1.4781 1.5661 1.586 1.3663 1.4463 1.4961 1.4785 1.6481 1.4432
2054.362 1.4389 1.642 1.5443 1.2671 1.3108 1.3876 1.3866 1.5494 1.6131 1.5524
2073.651 1.4751 1.5184 1.4867 1.5267 1.4603 1.3295 1.5001 1.5013 1.5035 1.5979
2092.941 1.4991 1.5737 1.704 1.5975 1.5793 1.6196 1.772 1.894 1.854 1.7736
2112.231 1.6349 1.658 1.7369 1.5864 1.4733 1.6663 1.854 1.824 1.6587 1.7015
2131.521 1.7723 1.5517 1.4563 1.6401 1.7637 1.591 1.5495 1.7178 1.5209 1.4284
2150.810 1.5629 1.6069 1.5595 1.5204 1.4656 1.4138 1.49 1.6551 1.7754 1.7362
2170.100 1.5832 1.5941 1.6994 1.6154 1.5677 1.4786 1.2516 1.1869 1.4254 1.3993
2189.390 1.1981 1.3161 1.3905 1.2393 1.2534 1.3382 1.3325 1.3794 1.2445 1.3002
2208.680 1.6119 1.5713 1.4677 1.4991 1.3037 1.3317 1.4668 1.3524 1.4106 1.3504
2227.970 1.1493 1.1241 1.2617 1.3255 1.2578 1.2445 1.3907 1.3702 1.2674 1.3436
2247.259 1.4471 1.5442 1.4395 1.4233 1.4651 1.6194 1.735 1.4073 1.2465 1.3989
2266.549 1.4602 1.4128 1.3087 1.2775 1.3055 1.3613 1.4717 1.5239 1.381 1.4456
2285.839 1.4339 1.2257 1.2987 1.3181 1.3543 1.4318 1.3067 1.37 1.4656 1.4781
2305.129 1.5358 1.6142 1.6592 1.3816 1.1061 1.1715 1.3541 1.4213 1.144 1.0823
2324.418 1.2832 1.353 1.4131 1.281 1.1011 1.0814 1.2759 1.4536 1.5069 1.4879
2343.708 1.6445 1.5837 1.3766 1.2796 1.2079 1.3014 1.2206 1.2291 1.3026 1.4434
2362.998 1.6946 1.676 1.7109 1.753 1.6724 1.6514 1.6662 1.5711 1.7238 1.814
2382.288 1.5921 1.6035 1.7009 1.6283 1.572 1.7034 1.5945 1.4408 1.5665 1.6666
2401.578 1.794 1.924 1.864 2.004 1.944 1.864 1.844 1.6294 1.7026 1.7386
2420.867 1.794 1.954 2.004 2.114 2.064 1.944 2.054 2.204 2.254 2.034
2440.157 2.044 2.074 2.164 2.244 2.194 2.284 2.444 2.334 1.914 1.964
2459.447 2.024 1.864 1.864 2.064 2.054 1.7111 1.6744 1.7829 1.834 1.7403
2478.737 1.763 1.4819 1.3394 1.6442 1.7028 1.7443 1.7791 1.874 1.804 1.5287
2498.026 1.3881 1.5623 1.6524 1.6353 1.6949 1.6709 1.7672 1.7764 1.5894 1.7779
2517.316 1.854 1.6936 1.824 1.914 1.874 1.6308 1.6885 1.944 1.6068 1.3947
2536.606 1.5078 1.5057 1.4791 1.5259 1.5255 1.5961 1.5793 1.4018 1.4224 1.497
2555.896 1.4527 1.3644 1.474 1.6101 1.6073 1.7254 1.794 1.794 1.804 1.6072
2575.186 1.5034 1.4508 1.6225 1.5989 1.3878 1.4745 1.4887 1.4073 1.3915 1.6333
2594.475 1.994 1.794 1.4479 1.6988 1.954 2.054 2.224 2.094 1.874 2.094
2613.765 2.014 1.7752 1.751 1.6933 1.894 1.924 1.824 1.775 1.824 1.914
2633.055 1.7768 1.5951 1.7407 1.7443 1.3878 1.5203 1.5527 1.3814 1.3801 1.5609
2652.345 1.834 1.7667 1.5838 1.824 1.974 1.854 2.004 2.024 1.934 1.5452
2671.634 1.2701 1.6664 1.5683 1.5911 2.074 2.014 2.114 2.364 2.384 2.274
2690.924 1.854 1.7737 2.054 2.004 2.004 2.024 2.044 2.154 2.084 2.264
2710.214 2.404 2.194 2.054 2.064 2.364 2.604 2.404 2.574 2.634 2.594
2729.504 2.754 2.814 3.334 3.754 3.734 3.634 3.554 3.424 3.214 3.434
2748.794 3.704 3.534 3.354 3.484 3.334 3.054 2.904 2.944 3.114 3.204
2768.083 3.354 3.194 3.044 2.964 3.054 3.144 3.194 2.894 3.014 3.684
2787.373 3.424 3.254 3.494 3.584 3.734 3.804 3.774 3.674 3.434 3.574
2806.663 4.024 4.194 4.254 4.244 4.264 4.724 4.894 4.934 5.144 5.074
2825.953 5.174 5.184 5.414 5.714 5.864 6.384 6.764 7.124 7.304 7.724
2845.242 8.654 8.904 9.264 9.854 10.764 11.694 12.524 13.694 14.304 15.174
2864.532 16.624 18.434 20.214 21.494 22.964 24.314 24.974 25.644 26.394 26.824
2883.822 26.844 26.864 26.954 26.574 26.634 26.964 26.924 27.134 27.534 27.764
2903.112 28.104 28.694 29.234 29.564 30.244 31.424 32.514 33.564 34.684 35.874
2922.401 37.054 38.324 39.874 41.784 43.224 44.684 46.254 46.824 46.934 47.334
2941.691 47.104 46.044 45.054 44.024 42.474 40.574 38.894 37.074 34.744 32.454
2960.981 30.554 28.894 27.314 25.684 24.424 23.214 22.364 21.974 21.254 20.574
2980.271 20.244 19.944 20.054 19.724 19.714 20.044 20.284 20.454 20.034 20.144
2999.561 20.274 20.014 19.534 19.484 19.624 19.134 18.544 18.134 18.174 18.744
3018.850 18.394 17.764 17.654 17.434 17.364 17.344 17.154 16.554 16.184 16.164
3038.140 15.794 15.484 15.334 15.154 14.704 14.064 13.564 12.964 12.694 12.294
3057.430 11.724 11.654 11.214 10.904 10.754 10.214 10.094 10.454 10.644 10.574
3076.720 10.824 11.224 11.394 11.134 10.924 10.654 9.764 9.204 9.054 8.794
3096.009 8.564 7.724 7.134 6.874 6.274 6.344 6.384 5.894 5.804 5.774
3115.299 5.564 5.014 4.234 4.154 3.944 3.644 3.274 2.914 2.694 2.624
3134.589 3.064 3.044 2.614 2.394 2.464 2.534 2.354 2.124 2.334 2.334
3153.879 2.034 1.944 2.054 2.344 2.454 2.034 1.3871 1.412 1.834 1.714
3173.169 1.5047 1.834 1.7688 1.5106 1.5589 1.6483 1.924 2.154 1.854 1.4762
3192.458 1.2196 1.2951 1.6327 1.6678 1.6956 1.732 1.7251 1.6498 1.6416 1.7756
3211.748 2.124 2.134 1.48 0.9783 1.0925 1.3818 1.2742 1.1832 1.4689 1.4801
3231.038 1.5325 1.3444 1.4374 1.4384 0.8891 1.4074 1.4158 1.1919 0.9948 0.517
3250.328 0.9343 1.0799 1.0551 1.2354 1.33 1.6701 1.4883 1.0438 0.85585 1.451
3269.617 1.924 1.5915 1.4203 1.3407 1.4402 1.4342 1.2575 1.5989 1.6978 1.4636
3288.907 1.5549 1.6009 1.804 1.814 1.4635 1.4223 1.5628 1.7828 1.6036 1.5474
3308.197 2.034 2.084 2.004 1.994 2.554 2.464 2.144 2.404 2.484 2.474
3327.487 2.044 2.244 2.454 2.154 2.154 2.214 2.134 2.014 2.134 2.124
3346.777 1.4657 1.3837 1.884 1.794 1.585 1.7418 1.6274 1.6142 2.014 2.004
3366.066 1.2317 0.7687 1.1103 1.1315 0.84842 1.359 1.7673 1.669 1.4554 0.82881
3385.356 0.78282 0.7508 0.429 0.9688 1.794 1.6555 1.4819 1.7777 1.611 0.87732
3404.646 0.619 0.83259 1.101 1.2138 1.0483 0.9831 1.3142 1.7336 1.4136 1.2892
3423.936 1.2974 0.82479 0.9019 1.0777 1.1583 1.3701 1.3593 1.3309 1.131 1.1787
3443.225 1.4844 1.0813 0.631 0.7373 1.0769 1.2723 1.4929 1.4247 1.2381 1.3134
3462.515 1.2636 1.3229 1.3835 1.1403 0.7696 1.3784 1.844 1.4554 1.5213 1.4962
3481.805 1.2783 1.0105 0.8983 1.3407 1.4285 1.117 1.1019 1.3469 1.0749 0.8321
3501.095 0.87359 0.79895 0.7477 0.83732 0.9486 0.7016 1.1862 1.3318 0.624 0.659
3520.385 0.972 0.85295 0.632 1.0086 1.2088 1.4145 1.7051 1.667 1.5983 1.2254
3539.674 1.0362 0.9224 0.9662 0.605 0.45 0.86459 0.9526 1.1727 1.2704 1.3897
3558.964 1.3763 1.496 1.6639 1.4381 1.2246 1.1094 1.1378 1.2559 1.377 1.3629
3578.254 1.551 1.2981 0.682 0.7484 0.7716 0.733 0.9725 1.214 1.1106 1.1996
3597.544 1.7004 1.6683 1.3976 1.2177 1.2459 1.563 1.2979 0.634 0.278 0.391
3616.833 0.672 0.403 0.193 0.465 0.7036 0.87679 0.87301 0.9654 1.323 1.2727
3636.123 0.574 0.66 1.0366 0.8368 1.0168 1.18 1.0775 0.9533 0.9367 0.9385
3655.413 0.787559 0.80354 0.80418 0.7337 0.86997 0.52 0.316 0.358 0.6 0.432
3674.703 0 0.321 0.85619 0.9642 1.2696 1.542 0.636 0.682 1.2291 1.0262
3693.993 1.3263 1.5159 1.3128 1.1446 1.0201 1.199 1.1618 0.9723 0.829 0.635
3713.282 0.665 1.1175 1.0993 0.85441 0.9533 0.7981 0.9786 1.5795 1.1122 0.31
3732.572 0.631 1.0199 1.02 0.9961 1.213 1.5427 1.6529 1.3643 0.642 0.9523
3751.862 1.159 1.0102 1.2235 0.82625 0.7607 0.80921 0.7398 0.7646 1.2023 1.3367
3771.152 1.1649 1.6009 1.3157 0.7112 0.84395 0.8929 1.3722 1.2569 0.629 0.596
3790.441 0.7313 0.9228 0.9708 0.7568 0.77497 1.0991 0.9604 0.498 0.9177 1.4712
3809.731 1.0803 0.9192 0.9093 0.6936 0.584 0.68 0.9288 1.1594 1.1639 1.3718
3829.021 1.5385 1.2784 1.3286 1.984 1.5737 0.9672 0.81334 0.7318 1.259 1.5803
3848.311 1.3067 1.1331 1.3194 1.5865 1.6786 1.4546 1.3722 1.2238 0.625 0.7278
3867.601 1.518 1.6588 0.9575 1.0209 1.4569 1.2542 0.9319 0.7616 0.81106 0.9011
3886.890 0.82991 0.497 0.587 0.9966 0.9392 0.567 0.7088 0.698 0.25 0.399
3906.180 0.675 0.9711 1.4804 1.5412 1.814 1.5366 1.3292 1.4183 1.1428 1.3265
3925.470 0.999 1.3552 1.6143 1.1129 1.2291 1.2638 1.4618 1.6088 1.834 2.064
3944.760 1.824 1.804 1.994 1.814 1.4495 1.609 1.944 2.214 1.884 1.454
3964.049 1.5842 1.0993 0.7289 1.2229 1.5256 1.6094 1.576 1.2213 1.1318 1.3584
3983.339 1.2604 1.824 1.794 1.0495 1.1504 1.1467 1.2195 1.091 1.4015 1.5617
##END=
