##TITLE=1-[3,5-Bis(trifluoromethyl)phenyl]pyrrole
##JCAMP-DX=4.24
##DATA TYPE=INFRARED SPECTRUM
##ORIGIN=EPA-IR VAPOR PHASE LIBRARY
##OWNER=SRD/NIST
Collection (C) 2018 copyright by the U.S. Secretary of Commerce
on behalf of the United States of America. All rights reserved.
##CAS REGISTRY NO=175136-60-4
##MOLFORM=C 12 H 7 F 6 N
##$NIST SOURCE=MSDC-IR
##STATE=gas
##XUNITS=1/CM
##YUNITS=ABSORBANCE
##XFACTOR=1.
##YFACTOR=0.001
##DELTAX=1.92898
##FIRSTX=549.8
##LASTX=4000.7
##FIRSTY=0.93
##MAXX=4000.7
##MINX=549.759
##MAXY=0.64467
##MINY=0
##NPOINTS=1790
##XYDATA=(X++(Y..Y))
549.759 0.93 1.15 0.889 1.283 0.901 1.088 2.439 1.948 1.49826 1.9899
569.049 2.2959 2.404 3.1 3.33 3.22 3.19 3.04 3.14 3.26 3.33
588.339 3.48 3.93 4.86 5.36 6.93 8.91 9.23 9.01 8.26 7.3
607.628 6.53 6.11 5.41 4.76 4.75 4.58 4.19 3.7 3.21 2.97
626.918 3.44 3.94 3.99 3.98 3.42 2.83 2.8 2.89 3.24 3.66
646.208 3.57 3.23 3 3.39 3.75 4.13 4.93 5.12 5.66 6.31
665.498 6.68 7.26 8.07 10.02 13.33 20.6 34.42 55.51 76.82 87.44
684.787 89.32 85.57 73.78 55.37 41.77 38.97 43.04 51.22 63.12 77.17
704.077 86.36 88.56 90.6 92.05 90.2 87.03 87.7 96.48 107.6 106.18
723.367 89.75 71.47 54.41 38.5 26.89 20.67 18.56 17.89 17.76 17.34
742.657 16.41 15.16 13.62 12.07 10.63 9.58 8.59 7.82 6.91 6.74
761.947 7.2 6.62 6.27 6.4 5.59 5.25 5.9 6.71 7.84 10.11
781.236 13.77 18.02 22.75 25.94 26.23 24.93 21.12 15.38 10.22 6.71
800.526 5.02 4.06 3.77 3.65 3.39 3.29 3.27 3.47 2.81 2.2085
819.816 3.23 3.38 3.96 4.49 4.44 5.3 6.2 7.48 9.68 13.02
839.106 16.56 20.15 23.13 25.19 26.48 25.54 22.76 19.09 15 11.45
858.395 9.26 7.9 6.88 7.33 8.07 8.61 9.44 9.37 8.81 9.07
877.685 10.02 12.57 17.66 24.84 33.99 44.35 55.49 64.69 64.13 54.08
896.975 42.88 32.68 23.49 16.18 11.25 8.22 6.32 5.22 4.25 3.65
916.265 3.97 4.13 3.51 3.18 3.64 3.98 3.9 4.38 4.55 4.29
935.555 4.03 3.88 4.23 4.68 5.46 5.52 5.22 5.77 5.82 5.54
954.844 4.76 4 3.59 3.56 3.3 3.03 3.26 3.3 3.36 3.25
974.134 3.23 3.4 3.82 4.2 3.99 3.65 3.97 4.23 4.46 4.47
993.424 5.08 5.72 5.85 6.36 6.29 6.64 7.57 8.03 8.49 8.93
1012.714 9.04 9.71 10.96 12.37 14.87 19.29 27.55 40.34 55.06 68.03
1032.003 73.64 72.51 65.86 51.9 35.76 22.35 15.27 13.19 12.4 12.82
1051.293 13.65 15.54 18.87 24.5 36.1 57.83 92.45 132.31 163.52 178.45
1070.583 177.02 158.77 123.11 84.72 57.45 41.95 33.73 28.19 24.92 22.04
1089.873 20.2 20.67 22.8 24.65 26.47 30.09 33.96 38.17 40.52 40.95
1109.163 39.59 37.4 33.06 28.72 28.66 29.41 30.81 33.38 36.2 39.44
1128.452 41.68 44.88 50.25 56.72 65.9 80.65 103.58 136.18 180.74 235.85
1147.742 300.79 373.62 448.29 510.94 537.93 516.69 454.41 374.55 295.13 226.17
1167.032 175.75 148.84 140.7 146.5 164.96 191.33 221.26 251.96 282.09 308.09
1186.322 328.23 338.98 333.65 309.92 272.9 229.22 181.99 140.76 110.37 89.58
1205.611 79.01 71.88 64.89 60.43 54.45 48.19 44.78 40.24 34.52 32.15
1224.901 30.32 27.48 26.55 26.09 24.71 25.26 27.03 27.52 29.12 30.56
1244.191 32.07 33.21 33.6 34.25 35.38 38.48 43.55 51.1 59.98 72.04
1263.481 90.95 117.21 154.32 206.61 280.55 377.17 485.5 583.63 641.66 644.67
1282.771 591.71 486.58 348.21 221.07 137.57 94.21 72.33 59.16 49.03 40.45
1302.060 33.34 27.77 24.68 22.9 21.78 21.37 20.93 20.34 19.48 18.36
1321.350 16.87 15.31 14.01 13.03 12.28 11.64 11.24 11.4 11.82 12.18
1340.640 12.69 13.21 13.7 14.2 15.16 16.66 18.77 21.97 26.28 32.1
1359.930 39.6 49.02 60.75 74.32 89.71 107.04 125.94 147.49 173.34 203.69
1379.219 236.91 265.7 280.95 277.5 254.54 215.54 168.74 125.97 96.06 80.12
1398.509 74.88 75.56 79.1 82.91 84.52 82.39 76.04 66.3 54.98 43.94
1417.799 34.65 27.57 22.79 19.72 17.62 15.8 14.17 12.86 12.03 11.5
1437.089 10.92 10.67 10.56 10.42 10.81 11.16 11.36 11.83 12.31 13.01
1456.378 14.16 15.36 16.71 18.99 22.12 26.02 30.47 35.18 40.03 45.13
1475.668 52.16 63.77 81.77 108.19 141.34 176.29 207.31 228.59 235.93 228.96
1494.958 208.61 178.36 146.01 115.69 88.72 66.47 48.61 36.46 29.43 25.13
1514.248 22.49 20.31 18.17 16.62 15.34 14.27 13.65 13.3 13.11 13.16
1533.538 13.92 15.1 16.94 20.46 24.71 29 32.9 36.07 37.5 36.41
1552.827 33.43 28.93 24.31 19.96 16.22 13.67 11.9 10.6 9.66 9.08
1572.117 8.83 8.37 8.24 8.43 8.33 8.36 8.7 9.07 9.46 10.12
1591.407 11.05 12.47 13.75 15.03 16.71 18.33 20.26 22.36 24.53 27.23
1610.697 30.52 34.37 38.18 42.42 46.61 50.25 53.09 53.9 52.34 48.51
1629.986 42.6 35.36 28.02 21.2 15.85 12.03 9.57 8.16 7.39 6.81
1649.276 6.16 5.99 5.82 5.44 5.33 5.29 5.19 5.17 5.31 5.54
1668.566 5.63 5.58 5.53 5.52 5.33 5.07 4.86 4.83 4.87 4.85
1687.856 5 5.19 5.33 5.59 5.63 5.41 5.21 4.9 4.47 4.09
1707.146 4.02 4.22 4.39 4.2 4.21 4.39 4.51 4.65 4.85 5.08
1726.435 5.28 5.85 6.57 7.01 7.39 7.51 7.05 6.44 5.89 5.25
1745.725 4.52 4.11 3.87 3.78 3.74 3.73 3.73 3.62 3.69 3.65
1765.015 3.58 3.57 3.64 3.77 3.97 4.18 4.42 4.86 5.52 6.12
1784.305 6.67 7.25 7.75 8.21 8.41 8.46 8.34 7.88 7.4 7.15
1803.594 6.66 6.05 5.58 4.95 4.5 4.12 3.68 3.54 3.52 3.25
1822.884 3.11 2.98 2.75 2.84 2.88 2.72 2.68 2.62 2.59 2.54
1842.174 2.2843 2.0287 2.0654 2.1771 1.9904 1.8817 1.9095 1.9813 2.0658 2.0168
1861.464 2.0762 2.0647 1.9896 1.9624 2.0694 2.13 1.8762 1.8026 1.8882 1.9512
1880.754 1.8796 1.9048 2.2542 2.3004 2.2378 2.3756 2.56 2.65 2.66 2.65
1900.043 2.5 2.4031 2.2424 2.0848 2.0996 2.156 2.2417 2.3092 2.4305 2.398
1919.333 2.2816 2.2387 2.1641 1.9844 1.8768 1.998 2.0082 2.0143 2.0868 2.226
1938.623 2.4398 2.5 2.3248 2.1602 2.3276 2.3483 2.1922 2.1033 1.9663 1.9493
1957.913 1.9241 1.7468 1.7017 1.7124 1.8526 2.0326 1.944 1.9555 2.0086 1.8374
1977.202 1.9584 2.1319 2.1029 2.1498 2.236 2.2464 2.0299 2.0117 2.1378 2.1552
1996.492 2.0906 2.0496 2.0881 1.9868 1.993 1.9653 1.8187 1.7485 1.7811 1.7953
2015.782 1.8243 1.8965 1.7683 1.6778 1.6416 1.7376 1.7602 1.6597 1.7839 1.7574
2035.072 1.8051 1.815 1.6507 1.7668 1.741 1.7414 1.8032 1.7004 1.7174 1.7509
2054.362 1.7441 1.7867 2.0736 2.2276 2.1816 2.1901 2.1833 2.2095 2.2361 2.359
2073.651 2.2937 2.2386 2.3749 2.4616 2.49 2.3599 2.2432 2.3832 2.3377 2.1905
2092.941 2.0524 1.9969 2.0969 1.9061 1.6528 1.665 1.8088 1.8618 1.8936 1.9601
2112.231 1.7501 1.54704 1.7163 1.8657 1.9249 1.8251 1.8765 2.0812 2.1128 2.1168
2131.521 2.1127 2.0654 2.0372 2.0685 2.0732 2.0758 2.2346 2.379 2.2246 2.1398
2150.810 2.097 1.9592 1.8314 1.7703 1.7176 1.7451 1.7078 1.6317 1.6594 1.5943
2170.100 1.6525 1.6988 1.6992 1.6123 1.5809 1.8123 1.8249 1.6066 1.6612 1.8986
2189.390 1.9881 2.0707 2.0839 1.8759 1.9569 2.1621 2.189 1.9274 1.7978 1.9325
2208.680 1.8926 1.9465 2.1922 2.4452 2.3824 2.1978 2.3461 2.4006 2.2409 2.3361
2227.970 2.4015 2.4077 2.5 2.71 2.83 2.87 2.93 2.92 2.93 3.11
2247.259 3.2 2.99 2.98 2.96 2.85 2.78 2.68 2.8 2.76 2.7
2266.549 2.8 2.66 2.55 2.5 2.61 2.73 2.66 2.73 2.73 2.79
2285.839 2.81 2.75 2.91 2.74 2.55 2.89 3.04 2.84 2.89 2.97
2305.129 2.7 2.61 2.61 2.4373 2.2597 2.1524 2.0612 2.2315 2.4094 2.2874
2324.418 2.3451 2.48 2.53 2.4781 2.4492 2.4096 2.187 2.1619 2.2241 2.2804
2343.708 2.2278 2.171 2.3006 2.3576 2.3372 2.3266 2.4123 2.4484 2.51 2.54
2362.998 2.56 2.51 2.3376 2.1654 2.129 2.2195 2.0761 1.9714 2.2067 2.3866
2382.288 2.2647 2.2814 2.3522 2.1906 2.212 2.2991 2.3427 2.2049 2.0974 2.1361
2401.578 2.0645 2.1029 2.0117 1.8691 1.7246 1.7985 2.0401 2.0933 2.0165 2.0791
2420.867 2.253 2.3728 2.4687 2.3226 2.2764 2.3422 2.2585 2.2931 2.4686 2.5
2440.157 2.56 2.5 2.423 2.4055 2.2862 2.2704 2.2398 2.3195 2.3555 2.0697
2459.447 1.75 1.7656 1.898 2.0844 2.2655 2.4459 2.52 2.1785 2.2211 2.1974
2478.737 1.9718 2.0048 1.9702 2.2453 2.4574 2.53 2.56 2.71 2.6 2.0485
2498.026 1.9619 2.2285 2.2162 1.8307 1.6701 1.7005 1.5483 1.49785 1.7359 1.7259
2517.316 1.5808 1.6182 1.7384 1.7849 1.7058 1.8122 1.8591 1.8472 1.9781 1.9148
2536.606 1.7114 1.7521 1.9432 1.9953 1.8971 1.9725 2.0431 1.9908 2.1745 2.3514
2555.896 2.4793 2.55 2.68 2.56 2.3411 2.57 2.58 2.53 2.58 2.3892
2575.186 2.4403 2.3992 2.3385 2.59 2.57 2.53 2.57 2.62 2.76 2.72
2594.475 2.53 2.467 2.57 2.72 2.63 2.5 2.65 2.73 2.54 2.53
2613.765 2.71 2.6 2.56 2.82 2.75 2.56 2.63 2.74 2.71 2.56
2633.055 2.53 2.63 2.64 2.53 2.3545 2.1711 2.275 2.3601 2.0976 2.0381
2652.345 2.1689 2.2836 2.0275 1.879 2.0884 2.121 2.387 2.3461 2.2342 2.1865
2671.634 2.0857 2.0421 1.8223 1.6452 1.8137 2.1145 1.7731 1.7823 2.0094 1.9104
2690.924 1.7749 1.626 1.53847 1.47651 1.7046 1.57933 1.57202 1.7158 1.33 1.323
2710.214 1.316 1.235 1.3932 1.4673 1.56979 1.636 1.7613 1.863 1.9622 1.9092
2729.504 1.7807 1.7232 1.6047 1.6835 1.6754 1.319 1.48683 1.7922 1.8797 1.7159
2748.794 1.57706 1.889 1.9331 1.8445 1.7427 1.47645 1.6204 1.941 1.7725 1.6393
2768.083 1.7281 1.8051 1.8793 2.0182 2.1724 2.3109 2.2373 2.0454 2.2227 2.3481
2787.373 2.2351 1.9239 1.7922 2.1352 2.3462 2.3558 1.9259 1.4589 1.427 1.355
2806.663 1.3986 1.6006 1.4145 1.294 1.671 1.651 1.54591 1.805 1.6719 1.49299
2825.953 1.52244 1.8363 1.925 1.7421 1.7167 1.6321 1.7667 1.8526 1.6152 1.49055
2845.242 1.8411 2.0901 1.9351 1.7561 1.9504 2.176 1.56842 1.4124 2.0018 2.0385
2864.532 1.7609 1.6943 1.6809 2.026 2.3023 2.2378 2.2188 2.1205 2.2387 2.2158
2883.822 2.1721 2.0652 1.9759 1.7113 1.4208 1.6001 1.6556 1.6043 1.6523 1.8739
2903.112 2.0961 1.891 1.636 1.9456 1.9718 1.9388 2.0244 1.7834 1.6085 1.8359
2922.401 1.9822 1.9136 1.6961 1.8618 2.141 1.6834 1.7988 1.7814 1.386 1.46
2941.691 1.5865 1.5965 1.6332 1.681 1.8976 2.0447 1.285 0.972 1.28 1.294
2960.981 1.137 1.164 1.54535 1.48295 1.53648 1.8188 1.56353 1.154 1.219 1.48373
2980.271 1.441 1.56521 1.9312 1.5844 1.242 1.6144 1.8287 1.6692 1.57551 1.575
2999.561 1.51593 1.7128 1.7153 1.52855 1.52161 1.52523 1.339 1.257 1.349 1.237
3018.850 1.3882 1.6387 1.6158 1.7516 1.6801 1.4643 1.50837 1.8059 2.2169 2.0897
3038.140 1.7688 1.8979 1.7776 1.49557 1.339 1.363 1.7333 1.853 1.6886 1.6026
3057.430 1.772 1.9752 2.1761 2.473 2.99 3.09 2.76 2.95 2.99 2.57
3076.720 2.371 2.67 2.59 2.4142 2.59 2.63 2.81 2.94 2.91 3.06
3096.009 2.74 2.91 3.47 2.94 2.55 2.94 3.35 3.58 3.93 4.34
3115.299 4.83 5.39 5.48 5.08 4.74 4.49 4.13 3.31 3.14 2.78
3134.589 2.1487 2.4009 2.7 2.73 2.3578 2.0616 2.1465 2.3688 2.2559 1.8217
3153.879 1.6747 1.5938 1.6168 1.7379 1.271 0.91 1.142 1.118 1.217 1.376
3173.169 1.176 1.087 1.3903 1.5873 1.157 0.718 1.022 1.138 1.322 1.48512
3192.458 0.991 0.776 0.86 1.218 1.332 1.187 1.295 1.262 1.4205 1.289
3211.748 1.2 1.4004 1.244 1.4002 1.48957 0.973 0.772 1.201 1.091 1.01
3231.038 1.068 1.04 0.953 0.975 1.251 1.086 1.167 1.229 0.952 0.903
3250.328 1.051 1.50712 1.6238 1.4126 1.4232 1.52465 1.4978 0.996 0.915 1.008
3269.617 0.956 1.3932 1.158 0.851 1.063 1.203 1.052 0.994 1.034 0.941
3288.907 0.992 0.848 0.95 1.236 0.792 0.843 1.01 0.611 1.111 1.242
3308.197 1.025 1.158 1.129 0.811 0.649 0.829 1.255 1.51687 1.319 1.3824
3327.487 1.5948 0.841 0.556 0.984 0.936 1.139 0.939 0.52 0.785 0.956
3346.777 0.923 1.015 0.93 1.085 1.4076 1.7767 1.7393 1.098 0.807 0.751
3366.066 1.084 1.222 0.845 0.895 0.866 0.981 1.49472 1.353 0.903 0.986
3385.356 0.83 0.87 1.139 0.652 0.4 0.712 1.179 1.106 1 0.806
3404.646 0.861 1.208 1.159 1.321 1.142 1.256 1.177 0.925 1.196 1.093
3423.936 1.026 0.892 1.027 1.4227 1.107 1.001 1.3937 1.179 1.069 1.4917
3443.225 1.717 1.5918 1.063 0.762 0.837 1.028 0.572 0 0.823 1.4043
3462.515 1.011 0.89 1.1 1.19 1.288 1.51457 1.375 0.969 0.814 0.728
3481.805 0.592 0.907 1.086 1.252 1.309 1.151 1.026 0.803 1.324 1.5664
3501.095 1.196 1.212 0.745 0.19 0.44 0.636 0.906 0.891 0.623 0.782
3520.385 0.64 0.698 1.159 1.076 1.039 1.6009 1.6388 1.191 0.938 1.12
3539.674 1.255 1.24 1.156 1.096 0.931 0.681 0.854 0.997 0.871 0.853
3558.964 1.129 1.48252 1.6005 1.319 1.278 1.24 0.956 0.771 1.223 1.288
3578.254 0.673 0.75 1.259 1.196 0.718 0.744 0.982 1.6477 2.1023 1.54826
3597.544 1.028 1.021 1.125 1.51116 1.52491 1.073 1.115 0.895 0.972 0.85
3616.833 0.885 1.307 1.017 1.357 1.6256 1.262 0.671 0.497 1.169 1.084
3636.123 0.503 0.622 0.841 0.991 0.781 0.643 0.937 0.959 1.045 1.224
3655.413 1.002 0.778 0.656 0.687 0.992 1.207 1.25 0.964 1.158 1.4446
3674.703 1.51421 1.021 0.691 1.011 0.936 1.287 1.5231 1.253 1.173 0.93
3693.993 0.625 0.46 0.734 0.939 1.106 1.3954 1.088 0.929 1.285 1.50044
3713.282 1.108 0.668 0.958 1.47936 1.308 0.975 1.048 1.224 0.976 0.812
3732.572 1.286 1.4097 0.844 0.602 0.769 0.738 0.506 0.612 1.065 1.076
3751.862 1.026 1.225 1.3936 1.353 1.017 1.049 1.48455 1.51795 1.211 1.4117
3771.152 1.284 0.856 1.084 1.022 1.197 1.5276 1.7068 1.49852 0.808 0.913
3790.441 1.24 0.969 0.754 0.716 0.981 1.336 1.337 1.368 1.3986 1.177
3809.731 1.007 0.869 0.802 1.092 1.258 1.364 1.074 0.896 1.4507 1.4594
3829.021 0.943 1.208 1.5818 1.3948 0.861 0.801 1.265 1.195 0.869 0.727
3848.311 0.715 0.97 1.133 0.984 0.889 0.968 1.119 1.075 1.298 1.257
3867.601 0.846 0.67 0.645 0.79 0.993 1.238 1.232 1.01 1.161 1.54096
3886.890 1.224 0.781 0.745 0.796 1.306 0.98 0.26 0.863 0.949 0.883
3906.180 1.431 1.6823 1.35 0.814 0.778 0.98 0.793 0.898 1.3853 0.979
3925.470 0.497 0.826 1.3836 1.297 1.158 1.33 1.4447 1.07 0.722 1.024
3944.760 1.183 1.252 1.064 0.778 0.741 1.248 1.6273 1.211 1.138 1.15
3964.049 1.212 1.28 1.116 1.158 1.363 1.211 1.291 1.51288 1.7612 1.7761
3983.339 1.7375 2.1368 2.1063 2.3618 2.4343 1.7847 1.8048 2.71 2.78 1.9454
##END=
