##TITLE=2-Bromo-4,6-difluoroiodobenzene
##JCAMP-DX=4.24
##DATA TYPE=INFRARED SPECTRUM
##ORIGIN=EPA-IR VAPOR PHASE LIBRARY
##OWNER=SRD/NIST
Collection (C) 2018 copyright by the U.S. Secretary of Commerce
on behalf of the United States of America. All rights reserved.
##CAS REGISTRY NO=175278-11-2
##MOLFORM=C 6 H 2 Br F 2 I
##$NIST SOURCE=MSDC-IR
##STATE=gas
##XUNITS=1/CM
##YUNITS=ABSORBANCE
##XFACTOR=1.
##YFACTOR=0.001
##DELTAX=1.92898
##FIRSTX=549.8
##LASTX=4000.7
##FIRSTY=2.704
##MAXX=4000.7
##MINX=549.759
##MAXY=0.205944
##MINY=0
##NPOINTS=1790
##XYDATA=(X++(Y..Y))
549.759 2.704 2.654 2.584 4.154 4.164 3.904 5.154 6.024 6.054 6.234
569.049 6.664 6.804 8.574 13.234 19.194 24.544 27.734 30.144 30.564 28.904
588.339 24.244 16.004 10.104 8.674 9.114 8.914 9.594 12.044 12.234 9.604
607.628 7.344 6.234 4.944 3.904 3.724 3.694 2.964 2.274 2.254 1.974
626.918 1.764 1.6661 0.84757 0.467 0.74484 0.716 1.0382 1.2282 1.2259 1.3162
646.208 1.2273 0.9631 1.2023 1.2954 1.256 1.2621 1.2945 1.5259 1.4742 1.6784
665.498 1.5061 1.0174 1.4593 2.294 2.784 3.304 3.854 4.244 4.644 5.424
684.787 5.504 3.894 2.764 2.854 2.694 2.484 1.904 1.0199 0.8648 0.555
704.077 0.521 0.964 0.757217 0.609 0.881 0.8746 0.571 0.599 0.9559 1.5094
723.367 1.4345 1.1358 1.0221 1.1064 0.9889 0.7268 1.3994 1.7471 1.6939 2.334
742.657 3.034 3.214 3.034 2.594 2.164 1.984 1.7345 1.6709 1.7517 1.4548
761.947 1.4789 1.5738 1.864 1.804 1.4374 1.727 2.014 1.2255 1.0153 1.7451
781.236 1.984 1.6416 1.3765 1.6583 1.794 1.6302 1.3193 1.5715 1.7245 1.7111
800.526 1.7359 1.354 1.4266 2.524 3.194 3.524 4.694 6.234 8.164 9.684
819.816 11.924 16.654 22.604 28.604 38.054 49.304 58.774 66.734 73.664 81.064
839.106 86.564 87.834 85.814 80.004 75.244 76.874 88.854 88.164 60.894 43.164
858.395 36.774 28.334 19.444 11.964 7.634 5.114 3.864 3.074 2.384 2.274
877.685 2.654 2.594 2.614 2.484 2.054 2.014 1.954 1.824 1.954 1.794
896.975 1.964 2.134 2.174 2.494 2.644 2.914 3.584 3.744 3.034 2.814
916.265 2.414 1.7017 1.804 1.954 1.6127 1.5343 1.7534 1.6064 1.3123 1.5008
935.555 1.884 1.5713 1.5295 1.7136 1.5771 1.964 2.274 2.004 1.6161 1.6722
954.844 1.4509 1.2135 1.894 2.384 2.174 2.004 2.404 2.714 3.024 3.554
974.134 4.324 4.654 4.854 5.594 6.614 8.394 11.214 16.764 26.184 37.224
993.424 47.604 54.664 57.034 55.954 51.914 44.514 32.774 20.564 12.804 8.754
1012.714 6.634 5.284 4.364 3.834 3.004 2.564 2.914 3.024 2.394 2.784
1032.003 2.714 2.854 3.694 3.274 2.664 1.774 1.954 2.684 2.224 1.6121
1051.293 2.454 2.884 2.384 2.744 2.234 2.204 2.284 1.5815 1.814 1.2743
1070.583 1.1195 2.694 4.264 4.224 2.044 1.3163 2.454 2.514 2.364 3.274
1089.873 2.994 1.854 2.894 3.504 3.164 4.554 5.714 6.354 7.054 9.144
1109.163 15.364 23.754 35.454 52.604 72.454 86.534 94.444 96.574 90.444 79.614
1128.452 62.764 41.444 24.794 16.084 11.204 8.084 7.034 6.844 7.144 8.914
1147.742 9.894 9.884 10.854 15.544 22.304 27.634 31.434 35.074 38.084 38.294
1167.032 35.824 30.984 25.874 21.284 16.464 11.594 7.954 5.504 3.754 3.294
1186.322 3.134 2.974 3.154 2.684 2.574 2.764 2.824 2.354 1.894 2.864
1205.611 3.534 3.824 3.354 3.134 3.454 3.964 5.094 4.914 4.524 4.664
1224.901 4.724 5.464 4.944 4.474 6.154 6.464 6.564 8.644 11.544 14.074
1244.191 16.284 18.994 20.864 21.314 20.754 19.694 17.914 14.614 11.484 9.584
1263.481 8.074 7.164 7.344 7.994 8.374 9.684 12.164 15.304 18.964 23.734
1282.771 28.914 33.924 38.754 41.944 42.974 41.534 38.264 32.994 26.564 20.724
1302.060 15.624 11.314 7.804 5.384 4.004 3.184 2.914 2.784 2.724 2.684
1321.350 2.604 2.564 2.544 2.774 2.824 2.604 2.494 2.514 2.634 2.704
1340.640 2.434 2.324 2.484 2.554 2.494 2.574 2.814 3.024 3.334 3.794
1359.930 4.394 4.974 5.544 6.234 7.154 8.144 9.174 10.554 12.474 14.604
1379.219 16.844 19.334 21.804 24.014 26.264 28.204 30.104 33.364 38.364 44.714
1398.509 52.814 62.764 73.374 83.564 91.604 96.594 98.134 96.544 92.274 86.274
1417.799 80.534 76.914 76.944 81.634 90.884 102.684 114.414 122.644 124.644 119.504
1437.089 107.244 89.904 68.734 46.414 28.624 18.194 13.694 12.404 12.324 12.414
1456.378 12.174 11.504 10.464 9.004 7.134 5.434 4.474 3.824 3.394 3.084
1475.668 2.674 2.614 2.714 2.494 2.494 2.584 2.544 2.654 2.764 2.874
1494.958 3.374 3.864 4.124 4.554 5.194 5.934 6.634 7.354 8.404 9.224
1514.248 10.254 11.504 12.144 12.584 12.474 11.734 11.124 10.354 9.254 8.544
1533.538 8.274 8.224 8.524 9.044 10.014 11.134 12.414 14.104 16.184 18.574
1552.827 21.234 24.104 26.644 29.294 31.634 33.904 37.524 42.144 48.524 57.844
1572.117 70.704 87.454 108.344 132.284 156.384 178.834 196.334 205.944 205.704 194.914
1591.407 173.884 147.244 121.414 99.674 81.974 67.684 55.754 46.174 39.144 33.684
1610.697 29.094 25.424 22.514 19.474 16.374 13.434 11.014 9.454 8.324 7.244
1629.986 6.554 6.194 5.784 5.464 5.074 4.794 4.694 4.684 4.734 4.774
1649.276 4.744 4.544 4.314 4.384 4.364 4.314 4.424 4.464 4.334 4.384
1668.566 4.664 4.724 4.774 5.044 5.414 5.774 6.224 6.604 6.924 7.124
1687.856 6.954 6.654 6.264 5.964 5.474 4.874 4.404 3.874 3.584 3.264
1707.146 2.874 2.434 1.974 1.864 1.804 1.6533 1.3683 0.9688 1.0039 1.1803
1726.435 1.2054 1.1747 1.0476 1.0533 1.1655 1.1192 1.0424 1.0728 1.0892 1.2477
1745.725 1.3489 1.2513 1.1244 1.0085 1.0749 1.3039 1.3752 1.0787 0.9197 0.8896
1765.015 0.7763 0.762388 0.881 0.8788 0.77064 0.78662 0.7388 0.597 0.624 0.7258
1784.305 0.7244 0.6676 0.80877 1.0019 0.8982 0.78183 0.760294 0.79322 0.9475 0.9559
1803.594 0.9173 0.8664 0.9456 1.0744 1.0657 1.1292 1.1562 0.9848 0.828 0.84817
1822.884 0.85135 0.82035 0.8829 0.9314 0.884 0.82116 0.84662 0.9213 0.9749 1.143
1842.174 1.1282 1.1041 1.2004 1.2471 1.219 1.1477 1.2929 1.3665 1.2559 1.1371
1861.464 1.2022 1.2041 1.1696 1.4168 1.5038 1.3038 1.1764 1.2053 1.1403 0.9435
1880.754 0.83208 0.757781 0.6765 0.79312 1.0047 0.905 0.8591 0.9345 0.8686 0.8827
1900.043 0.83845 0.83284 0.8547 0.9027 0.81175 0.587 0.7277 0.9238 0.9174 1
1919.333 1.0101 1.0441 1.0286 0.83586 0.79416 0.78812 0.7389 0.7293 0.9214 1.0861
1938.623 1.0499 1.0573 1.0422 1.1446 1.1488 1.1226 1.334 1.3566 1.3827 1.5309
1957.913 1.6129 1.7537 1.814 1.764 1.6963 1.5303 1.3472 1.1407 1.1688 1.1982
1977.202 1.1221 1.0946 1.0808 0.9854 0.9907 1.0387 0.942 0.9459 1.0988 1.1904
1996.492 1.0101 0.758065 0.7106 0.76537 0.760886 0.83032 0.82917 0.77989 0.734 0.8717
2015.782 0.9553 0.78587 0.7817 0.77293 0.6577 0.761393 0.8121 0.6575 0.7154 0.80588
2035.072 0.6971 0.624 0.84789 0.9477 0.85354 0.9981 0.9037 0.7393 0.8708 0.8696
2054.362 0.87 0.9337 0.9902 1.0327 1.0917 1.1078 1.0809 1.0846 0.8667 0.8844
2073.651 1.0157 1.1366 1.0682 0.9138 0.9783 0.8959 0.8946 0.9624 0.981 0.9499
2092.941 1.1144 1.1354 1.1847 1.2503 1.3229 1.551 1.6628 1.7202 1.7114 1.894
2112.231 1.924 1.804 1.864 1.934 1.994 2.014 1.964 1.754 1.671 1.6178
2131.521 1.3403 1.2069 1.2671 1.1744 0.9858 1.0903 1.1623 1.0636 1.0017 0.9107
2150.810 1.013 1.2383 1.1862 1.2076 1.1646 0.9897 1.1467 1.2921 1.2912 1.2275
2170.100 1.1001 1.0909 1.1362 1.087 0.83275 0.633 0.6834 0.7062 0.6749 0.71
2189.390 0.8938 1.0409 1.0444 1.0762 1.0196 0.9782 0.79996 0.78761 0.8556 0.80242
2208.680 1.0193 0.8572 0.51 0.552 0.619 0.632 0.760909 0.76867 0.76433 0.83222
2227.970 0.8668 1.157 1.2525 1.0904 1.2039 1.3881 1.5485 1.3818 1.2971 1.467
2247.259 1.4438 1.3523 1.208 1.1939 1.225 1.2267 1.2388 1.1346 1.0176 1.1047
2266.549 1.2644 1.253 1.1683 1.328 1.3937 1.4342 1.642 1.6376 1.5785 1.5932
2285.839 1.6299 1.5394 1.4151 1.3409 1.1241 1.0771 1.1225 0.9242 0.9307 0.82825
2305.129 0.7205 0.77214 0.8541 0.8708 0.77362 0.84046 0.9652 0.9213 0.8111 0.9867
2324.418 1.192 1.1542 0.80517 0.539 0.451 0.558 0.8802 0.77899 0.7132 0.8832
2343.708 0.895 0.9385 0.8706 0.94 1.0276 0.9514 0.9378 1.056 1.2173 1.1232
2362.998 0.9602 0.8852 0.9495 1.0766 1.067 1.0746 1.1366 1.1634 1.1 0.9133
2382.288 0.9722 1.06 1.0003 1.1741 1.3554 1.3445 1.497 1.7145 1.715 1.7514
2401.578 2.104 2.214 2.164 2.314 2.364 2.474 2.444 2.344 2.294 2.334
2420.867 2.374 2.234 1.994 1.874 1.854 1.874 1.924 1.934 1.784 1.5418
2440.157 1.5007 1.6564 1.6592 1.6678 1.6369 1.844 1.754 1.5458 1.6371 1.5843
2459.447 1.7256 1.453 1.2149 1.0531 0.9433 0.9229 0.6 0.491 0.602 0.642
2478.737 0.8806 1.008 0.891 0.9603 0.79043 0.62 0.8488 0.76591 0.74432 0.887
2498.026 0.754734 0.81924 0.84676 0.634 0.8618 1.0494 1.0175 1.293 1.3432 1.1573
2517.316 1.2092 1.5131 1.7089 1.5517 1.2781 1.1944 1.2694 1.35 1.2695 1.3086
2536.606 1.5051 1.5024 1.2626 1.3769 1.3526 1.2339 1.4682 1.3688 1.2371 1.3307
2555.896 1.3803 1.4878 1.6522 1.5843 1.3317 1.2223 1.2691 1.4495 1.579 1.7361
2575.186 1.6373 1.5239 1.7107 1.7215 1.6085 1.4423 1.1825 1.3479 1.575 1.3813
2594.475 1.1404 0.9333 1.1013 0.9528 0.757203 0.9087 1.0243 0.9822 0.78363 0.7221
2613.765 0.8793 1.0047 0.621 0.552 0.84887 0.9958 0.9145 0.619 0.83262 0.9985
2633.055 0.81633 0.82456 0.9973 0.9485 0.7789 0.9875 1.4342 1.517 1.2766 1.2256
2652.345 1.1604 1.365 1.6704 1.6355 1.4368 1.1929 1.3217 1.649 1.718 1.4046
2671.634 1.3086 1.3522 1.3809 1.3974 1.4234 1.5015 1.5135 1.6965 1.565 1.2663
2690.924 1.1822 1.0772 1.095 1.4655 1.4954 1.458 1.3314 1.2981 1.6348 1.5894
2710.214 1.5622 1.4563 1.1548 1.2155 1.3455 1.3868 1.2899 1.1633 1.3842 1.4144
2729.504 0.719 0.397 0.78441 1.0371 1.0893 0.854 0.7331 0.9468 1.0685 0.8902
2748.794 0.8989 0.84848 0.574 0.578 0.8625 0.9274 0.6752 0.456 0.635 0.8723
2768.083 0.531 0.487 0.761543 0.9453 0.8917 0.6 0.478 0.608 0.78921 0.7359
2787.373 0.647 0.76171 0.641 0.454 0.639 0.542 0.6757 0.84465 0.761129 0.78201
2806.663 0.7008 0.651 0.7213 0.9029 0.8831 0.6662 0.601 0.9399 1.0003 0.83769
2825.953 1.1344 1.4461 1.3427 1.0281 1.2407 1.1479 0.83717 0.9668 0.762772 0.7301
2845.242 0.6935 0.618 1.0075 1.1153 0.8978 1.0018 0.947 0.8179 0.571 0.531
2864.532 0.6969 0.552 0.6679 0.7768 0.492 0.511 0.617 0.615 0.935 0.942
2883.822 0.7134 0.7334 0.8869 0.78464 0.82054 1.1331 0.8746 0.339 0.263 0.622
2903.112 0.578 0.525 0.874 0.7374 0.272 0.233 0.59 0.9708 0.908 0.76506
2922.401 1.0585 1.2862 1.2208 1.124 0.9663 0.8789 0.75231 0.7393 0.9095 0.82796
2941.691 0.9046 0.8772 0.913 0.9609 0.637 0.553 0.653 0.6942 0.352 0.125
2960.981 0.412 0.378 0.256 0.7161 1.0676 0.46 0.088 0.346 0.74807 0.532
2980.271 0.551 0.753441 0.479 0.7062 0.603 0.271 0.575 0.6708 0.359 0.8343
2999.561 1.1606 0.77221 0.7308 0.48 0.219 0.556 0.9424 1.1473 0.81781 0.6642
3018.850 0.7357 0.7352 0.81886 0.617 0.477 0.541 0.691 0.83123 0.7313 0.6728
3038.140 0.82638 0.9423 0.83868 0.56 0.41 0.494 0.78419 1.1072 1.2133 0.8896
3057.430 0.631 0.617 0.526 0.579 0.6595 0.6876 0.82754 0.7165 0.6753 1.1635
3076.720 1.2044 0.9257 1.3052 1.764 1.994 2.224 2.464 2.794 3.484 4.444
3096.009 4.954 4.524 3.844 3.454 2.954 2.244 1.854 1.824 1.5646 1.4598
3115.299 1.3719 1.3656 1.4531 1.4169 0.9822 0.461 0.542 0.8129 0.9987 1.0466
3134.589 1.109 1.3277 1.4627 1.5137 1.2791 1.2594 1.2189 1.0691 1.0449 1.0158
3153.879 1.1733 1.2911 1.2663 1.4279 1.5049 1.2639 1.0367 0.9677 1.4683 1.5994
3173.169 1.6328 1.243 0.626 1.1858 1.5658 1.4834 1.2374 0.76865 0.8985 1.1296
3192.458 0.9239 1.0591 1.2991 0.9922 0.9558 0.942 0.9839 1.0195 0.64 0.287
3211.748 0.171 0.6593 0.8632 0.8963 1.0117 0.7151 0.84208 0.81536 0.389 0.516
3231.038 0.7413 0.8763 0.9209 1.0668 0.74886 0.399 0.8745 0.8646 0.755005 1.0597
3250.328 0.615 0 0.154 0.435 0.305 0.024 0.34 0.7368 0.9034 0.83101
3269.617 0.7185 0.75134 0.84807 0.9899 1.3748 1.3041 0.435 0.436 0.6923 0.7012
3288.907 0.7222 0.573 0.544 0.357 0.203 0.494 0.57 0.48 1.0558 1.3957
3308.197 0.8786 0.555 0.6808 0.6624 0.7185 1.0075 1.0696 0.605 0.327 0.635
3327.487 1.2433 1.3816 0.9078 0.948 0.647 0.162 0.391 0.6686 0.6695 0.455
3346.777 0.321 0.443 0.989 0.9433 0.407 0.365 0.244 0.117 0.295 0.557
3366.066 0.76731 0.9113 1.1445 1.1189 0.81134 0.627 0.396 0.505 0.552 0.52
3385.356 1.1471 1.4117 1.3561 1.2663 0.652 0.6799 0.9679 0.59 0.358 0.465
3404.646 0.391 0.308 0.279 0.534 0.9014 1.1332 1.1014 0.9438 0.458 0.187
3423.936 0.639 1.0293 0.8959 1.0655 1.2278 0.9279 1.1737 1.2505 1.3005 0.905
3443.225 0.632 0.578 0.486 0.77015 0.80928 0.79716 0.457 0.193 0.34 0.46
3462.515 0.7045 0.757647 0.545 0.7269 0.9199 0.493 0.621 1.0948 0.7184 0.212
3481.805 0.049 0.486 0.79924 0.588 0.583 0.419 0.128 0.691 0.75222 0.183
3501.095 0.433 0.621 0.531 0.659 0.9374 0.9454 0.74975 0.242 0.073 0.8978
3520.385 1.442 1.0775 0.339 0.019 0.495 0.81532 0.45 0.461 0.9748 1.0282
3539.674 1.0163 1.1894 1.0331 0.8564 0.693 0.571 0.539 0.393 0.7363 0.80914
3558.964 0.84619 1.2619 1.0865 0.7135 0.653 0.472 0.47 0.82277 1.0462 1.1324
3578.254 0.6677 0.6757 0.651 0.227 0.4 0.176 0.204 0.7363 0.80857 0.517
3597.544 0.081 0.059 0.76908 0.7364 0.311 0.617 1.0647 0.9161 0.615 0.81944
3616.833 0.8574 0.77768 0.9888 1.1856 1.0793 1.0296 0.9356 0.84149 0.588 0.531
3636.123 1.0039 0.9014 0.473 0.36 0.49 0.229 0.346 0.6589 0.6778 1.1234
3655.413 0.8846 0.603 1.0344 1.1574 0.9463 1.0804 0.8828 0.447 0.518 1.0981
3674.703 1.4452 1.3967 1.3381 1.1428 1.1007 0.7486 0.473 0.78841 1.0464 0.9445
3693.993 0.79685 0.9058 1.0266 0.763338 0.524 0.443 0.373 0.82169 0.6818 0.264
3713.282 0.326 0.6974 1.0321 1.1085 1.0829 1.1202 1.2698 0.7371 0.516 0.643
3732.572 0.7439 0.7188 0.623 0.83949 0.631 0.319 0.327 0.448 0.527 0.479
3751.862 0.648 0.7055 0.6848 0.82952 0.9233 1.0473 1.1205 1.421 1.4184 0.8914
3771.152 0.652 0.7405 0.937 0.585 0.502 0.7309 0.641 0.618 0.383 0.506
3790.441 0.81438 0.9001 1.0248 1.1745 0.9313 0.8598 1.0959 0.84833 0.8388 1.1076
3809.731 1.132 0.539 0.368 0.78958 0.507 0.626 0.78827 0.80865 1.0022 0.631
3829.021 0.762922 1.0209 1.2357 1.4487 0.6553 0.162 0.82506 1.1037 0.82731 0.7951
3848.311 0.79413 0.462 0.432 0.515 0.84928 0.74884 0.003 0.147 0.7229 1.0947
3867.601 1.2988 1.1022 0.761134 0.557 0.425 0.468 0.6786 0.58 0.141 0.112
3886.890 0.6627 1.1159 1.1121 1.2733 0.9989 0.611 0.9622 0.81461 0.571 0.584
3906.180 0.7253 0.633 0.312 0.9128 1.3021 1.3728 1.4823 1.1457 1.1288 1.1362
3925.470 0.78264 0.465 0.127 0.6735 0.947 0.6739 0.763019 0.907 1.2564 1.0555
3944.760 0.9828 1.021 0.79684 0.584 0.428 0.118 0.499 0.8719 0.518 0.636
3964.049 1.0123 0.9751 0.604 0.6655 0.637 0.7128 0.659 0.489 0.7202 0.59
3983.339 0.3 0.31 0.653 0.576 0.245 0.368 0.77273 1.114 0.9437 0.7406
##END=
