##TITLE=7-Amino-4-(methoxymethyl)coumarin
##JCAMP-DX=4.24
##DATA TYPE=INFRARED SPECTRUM
##ORIGIN=EPA-IR VAPOR PHASE LIBRARY
##OWNER=SRD/NIST
Collection (C) 2018 copyright by the U.S. Secretary of Commerce
on behalf of the United States of America. All rights reserved.
##CAS REGISTRY NO=175205-10-4
##MOLFORM=C 11 H 11 N O 3
##$NIST SOURCE=MSDC-IR
##STATE=gas
##XUNITS=1/CM
##YUNITS=ABSORBANCE
##XFACTOR=1.
##YFACTOR=0.001
##DELTAX=1.92898
##FIRSTX=549.8
##LASTX=4000.7
##FIRSTY=4.575
##MAXX=4000.7
##MINX=549.759
##MAXY=0.171735
##MINY=0
##NPOINTS=1790
##XYDATA=(X++(Y..Y))
549.759 4.575 5.335 5.235 4.795 5.225 5.335 4.505 4.505 4.635 3.605
569.049 3.565 4.285 4.245 4.625 5.195 5.235 5.505 5.255 4.995 5.585
588.339 4.765 4.425 4.875 4.725 4.705 4.855 4.795 4.595 4.685 4.915
607.628 4.745 4.645 4.455 4.535 5.015 5.605 5.895 6.265 6.545 5.765
626.918 5.235 4.765 4.785 5.125 5.035 4.905 5.165 5.625 5.915 5.875
646.208 6.145 6.655 7.445 8.495 9.425 10.375 10.595 10.925 11.595 11.825
665.498 12.215 12.245 12.215 12.565 12.875 12.685 11.895 11.105 10.525 9.685
684.787 8.885 9.155 9.355 8.875 8.575 8.915 8.825 8.495 8.465 8.245
704.077 7.945 7.825 7.565 7.465 7.645 7.245 7.115 7.355 7.715 7.645
723.367 7.075 7.145 7.185 6.815 6.375 6.365 6.255 6.035 6.275 6.745
742.657 6.865 6.825 6.965 6.735 6.405 5.835 5.605 5.855 5.945 5.575
761.947 5.255 5.065 5.085 5.255 4.885 4.115 4.275 5.225 5.405 5.005
781.236 4.925 4.965 5.125 5.845 6.045 5.825 6.225 6.895 7.455 7.785
800.526 7.965 8.065 8.105 8.215 7.875 7.475 7.385 7.275 6.625 6.195
819.816 6.035 5.195 4.465 4.905 5.685 5.745 6.355 7.095 8.165 9.705
839.106 11.695 13.885 16.115 17.995 18.215 17.985 18.315 18.695 19.305 19.585
858.395 18.895 18.065 17.735 17.655 17.035 16.105 15.095 14.235 13.285 12.305
877.685 11.415 10.035 8.665 7.385 6.665 6.135 5.665 5.295 4.705 4.415
896.975 4.395 4.745 4.585 3.895 4.165 5.045 5.235 5.145 5.295 5.905
916.265 6.315 5.925 5.775 5.795 5.835 5.715 5.555 5.565 4.695 4.485
935.555 4.715 4.455 4.195 4.065 4.255 4.215 4.525 5.315 5.385 5.045
954.844 5.055 4.665 4.595 5.105 5.185 5.505 6.345 7.065 7.815 8.995
974.134 9.735 10.355 10.995 11.705 13.015 13.005 12.345 12.155 11.405 10.775
993.424 10.225 9.355 9.135 8.935 8.815 9.005 9.245 9.595 9.725 9.585
1012.714 9.155 8.525 7.665 6.535 5.255 4.345 4.015 3.945 3.965 4.845
1032.003 5.185 5.935 7.505 7.905 8.535 8.335 7.765 8.195 8.545 8.435
1051.293 8.395 8.135 6.635 6.575 7.535 6.365 5.965 6.525 5.665 5.845
1070.583 6.355 6.155 6.045 6.485 8.165 8.565 8.445 8.705 9.805 10.335
1089.873 10.325 12.415 13.155 15.175 19.005 20.405 21.955 25.765 28.715 30.795
1109.163 32.165 32.815 35.275 37.075 35.645 34.605 35.615 35.275 34.375 33.075
1128.452 31.375 30.405 29.445 28.195 27.265 26.445 25.365 26.065 28.165 30.875
1147.742 34.615 38.005 40.285 41.685 41.635 40.545 37.815 33.345 28.835 23.995
1167.032 19.605 15.665 13.165 12.475 11.205 9.955 9.855 10.295 11.305 12.305
1186.322 13.435 15.035 16.025 16.515 16.575 17.605 19.195 19.415 18.795 17.795
1205.611 16.105 13.815 12.045 9.685 8.825 8.655 7.755 7.865 6.035 3.475
1224.901 3.305 3.975 3.375 3.665 4.705 4.245 4.205 4.525 5.205 5.605
1244.191 4.965 4.815 5.395 5.325 5.635 7.105 7.855 8.685 10.295 11.745
1263.481 11.905 11.305 10.995 10.315 9.605 8.555 7.535 6.635 5.885 5.645
1282.771 5.325 5.205 5.195 5.315 5.825 6.225 6.685 7.865 9.395 11.375
1302.060 13.755 16.285 18.705 20.505 21.595 21.705 20.915 19.545 17.685 15.745
1321.350 14.335 13.635 13.545 13.935 14.445 15.125 15.575 15.835 15.995 15.515
1340.640 14.575 13.475 12.385 11.345 10.275 9.305 8.415 7.805 7.665 7.665
1359.930 7.575 7.745 8.035 8.445 9.085 9.675 10.605 11.765 13.205 14.635
1379.219 15.965 17.385 18.735 19.545 19.595 19.295 18.485 17.145 15.665 13.895
1398.509 12.275 11.115 9.955 8.845 8.075 7.405 6.805 6.445 6.055 5.685
1417.799 5.605 5.765 5.735 5.745 6.025 6.425 6.855 7.275 7.845 8.445
1437.089 9.065 9.345 9.425 9.465 9.175 8.555 8.105 7.675 7.435 7.425
1456.378 6.855 6.535 6.535 6.405 6.305 6.115 5.875 5.515 5.165 4.925
1475.668 4.545 4.105 3.955 3.865 3.555 3.375 3.175 2.985 2.945 3.015
1494.958 3.235 3.465 3.735 3.905 4.135 4.575 4.945 5.385 5.995 6.355
1514.248 6.385 6.035 5.715 5.395 5.035 4.775 4.395 4.305 4.675 4.895
1533.538 4.945 5.265 5.645 6.205 6.585 7.275 8.335 9.355 10.615 12.395
1552.827 14.435 16.435 18.475 20.355 21.745 22.605 22.825 22.395 20.935 19.325
1572.117 17.885 16.395 15.075 14.125 13.875 14.055 14.395 14.775 15.475 16.475
1591.407 17.635 18.895 20.625 23.065 25.695 28.605 31.955 35.645 39.645 44.125
1610.697 49.135 54.595 59.945 65.575 71.645 77.405 83.035 88.615 92.985 95.445
1629.986 95.735 93.695 89.165 82.335 73.875 64.435 54.655 45.655 37.875 31.135
1649.276 25.855 22.175 18.915 16.065 14.005 12.315 10.965 10.105 9.165 8.345
1668.566 7.895 7.505 7.295 7.125 6.735 6.495 6.575 6.665 6.685 6.635
1687.856 6.585 6.625 6.535 6.535 6.695 6.635 6.735 7.255 7.625 7.825
1707.146 8.055 8.345 8.725 9.125 9.525 9.915 10.425 10.965 11.625 12.225
1726.435 12.735 13.405 13.985 14.555 15.225 15.865 16.765 17.785 18.815 20.275
1745.725 22.075 24.245 27.325 31.565 36.975 44.365 54.895 68.515 86.185 107.365
1765.015 128.845 148.215 162.605 170.475 171.735 165.035 149.995 128.365 103.715 80.305
1784.305 60.795 45.635 34.625 26.755 20.985 16.835 13.985 11.815 10.295 8.905
1803.594 7.765 6.955 6.245 5.635 5.145 4.765 4.445 4.125 3.935 3.785
1822.884 3.495 3.265 3.135 3.035 2.935 2.915 3.085 3.215 3.155 2.995
1842.174 3.215 3.375 3.075 3.215 3.355 3.405 3.595 3.475 3.525 3.625
1861.464 3.485 3.365 3.125 2.945 2.935 2.845 2.555 2.335 2.345 2.245
1880.754 2.095 2.025 2.025 2.085 1.945 1.795 1.665 1.665 1.685 1.5967
1900.043 1.5707 1.5067 1.4973 1.4908 1.3444 1.3087 1.2985 1.387 1.4416 1.236
1919.333 1.3788 1.665 1.5742 1.5274 1.6523 1.5028 1.5245 1.685 1.54 1.5434
1938.623 1.765 1.745 1.5442 1.651 1.815 1.795 1.715 1.5116 1.5589 1.665
1957.913 1.5957 1.583 1.5656 1.4329 1.3744 1.4854 1.5469 1.5635 1.5038 1.4993
1977.202 1.5956 1.5974 1.6101 1.665 1.6353 1.6203 1.6502 1.6362 1.675 1.6056
1996.492 1.6513 1.725 1.855 2.115 2.065 1.985 2.105 2.105 2.015 2.005
2015.782 2.025 2.035 1.995 1.775 1.725 1.985 1.885 1.6333 1.5522 1.6516
2035.072 1.705 1.715 1.6094 1.48 1.554 1.529 1.655 1.755 1.4971 1.3752
2054.362 1.675 1.785 1.6248 1.6402 1.5519 1.3738 1.5385 1.665 1.745 1.745
2073.651 1.6182 1.6445 1.6458 1.5754 1.5587 1.725 1.805 1.628 1.5398 1.546
2092.941 1.5508 1.5128 1.4451 1.3624 1.2935 1.2625 1.1868 1.2015 1.2013 1.1707
2112.231 1.0471 1.0101 1.1321 1.2711 1.2852 1.3298 1.3886 1.2943 1.3358 1.5587
2131.521 1.5433 1.3077 1.3243 1.3209 1.2892 1.4502 1.4782 1.2929 1.3072 1.3324
2150.810 1.1736 1.1666 1.2313 1.2942 1.2589 1.1271 1.0569 1.0912 1.1806 1.2175
2170.100 1.2907 1.3197 1.3283 1.4691 1.1788 0.9981 1.4472 1.6214 1.5497 1.5799
2189.390 1.3614 1.0586 1.0836 1.2045 1.1356 1.1057 1.3594 1.472 1.2198 1.0373
2208.680 1.0874 1.1136 1.2114 1.1471 1.0261 1.2942 1.131 0.9873 1.2499 1.3973
2227.970 1.4097 1.3848 1.3905 1.314 1.124 1.1375 1.2787 1.207 1.1816 1.2592
2247.259 1.3712 1.2797 1.1816 1.3565 1.4098 1.3538 1.6276 1.5492 1.1848 1.147
2266.549 1.2563 1.422 1.4746 1.4546 1.5138 1.725 1.705 1.6307 1.895 1.795
2285.839 1.915 2.235 2.245 2.265 1.985 1.945 2.075 1.875 1.715 1.705
2305.129 1.765 1.4884 1.3963 1.665 1.5635 1.5377 1.675 1.5206 1.3978 1.2968
2324.418 1.4113 1.835 1.805 1.5105 1.2732 1.3273 1.6128 1.805 1.805 1.655
2343.708 1.655 1.5986 1.5989 1.5382 1.4113 1.4908 1.4009 1.346 1.4376 1.5467
2362.998 1.5162 1.2686 1.2023 1.2746 1.0667 0.9822 1.2187 1.1754 0.9354 1.1244
2382.288 1.3304 1.2315 1.3428 1.356 1.1471 1.213 1.3966 1.4974 1.5109 1.3368
2401.578 1.1855 1.1389 1.1339 0.9947 1.203 1.439 1.2768 1.3545 1.277 1.2575
2420.867 1.471 1.675 1.6263 1.5929 1.3864 1.187 1.2162 1.2276 1.1992 1.3296
2440.157 1.4243 1.2141 1.2271 1.1452 1.0578 0.9949 0.8214 0.73691 0.8216 0.8923
2459.447 0.9809 1.0932 1.1232 1.1745 1.2428 1.1865 1.0654 1.024 1.2005 1.1474
2478.737 0.9207 0.9149 1.2587 1.5704 1.4879 1.1626 1.1178 1.2789 1.2232 1.3546
2498.026 1.2135 1.101 1.27 1.3443 1.1436 1.0049 1.1388 1.0831 0.9153 1.0031
2517.316 1.1861 1.1035 0.8989 0.7788 0.787 0.8356 1.0573 1.2059 1.1366 1.0001
2536.606 0.8096 0.542 0.6037 0.9757 0.8168 0.8594 1.1218 1.0157 0.8865 0.9538
2555.896 1.0916 1.1591 1.2566 1.1046 0.8641 0.8239 1.0884 1.1443 0.995 0.971
2575.186 1.1018 1.2007 1.2529 1.1948 0.8639 1.0509 1.4338 1.5163 1.528 1.4715
2594.475 1.4564 1.3466 1.3289 1.4023 1.3726 1.231 1.0169 1.0089 1.2745 1.4904
2613.765 1.1584 1.0718 1.0676 1.0546 1.2666 1.3793 1.4576 1.4805 1.675 1.755
2633.055 1.845 1.775 1.6363 1.705 1.6382 1.675 1.805 1.725 1.685 1.805
2652.345 1.785 1.6286 1.4511 1.4922 1.4952 1.6322 1.825 1.6115 1.4217 1.3928
2671.634 1.3362 1.4829 1.4975 1.2712 1.4944 1.835 1.995 1.5916 1.2607 1.4729
2690.924 1.3916 1.1263 1.0929 1.1852 1.1532 1.3336 1.3388 1.43 1.5214 1.3925
2710.214 1.3373 1.2061 1.1762 1.2058 1.3804 1.5946 1.5549 1.4153 1.5309 1.5324
2729.504 1.2402 0.9701 1.0406 1.3861 1.4727 1.6346 1.825 1.665 1.785 1.965
2748.794 1.925 1.975 2.005 1.6347 1.735 1.915 2.035 2.295 2.455 2.485
2768.083 2.345 2.185 2.125 2.145 2.125 2.365 2.295 2.205 2.365 2.455
2787.373 2.515 2.535 2.735 2.435 2.315 2.695 2.975 3.225 3.215 3.065
2806.663 3.185 3.565 3.955 4.305 4.845 5.725 6.025 6.425 7.215 8.075
2825.953 8.785 9.375 9.765 9.475 9.305 9.065 8.225 7.835 7.605 7.375
2845.242 6.655 6.055 5.865 5.835 6.295 6.645 7.045 7.025 7.145 7.795
2864.532 7.845 7.755 7.815 7.785 7.855 7.695 7.685 7.905 7.935 7.925
2883.822 7.965 8.205 8.485 8.665 8.895 9.135 9.315 9.015 8.745 8.875
2903.112 8.875 8.715 8.935 8.915 8.575 9.125 9.385 9.245 9.725 9.685
2922.401 9.485 9.825 10.605 11.235 11.235 10.945 10.715 10.845 10.965 10.395
2941.691 9.755 9.895 9.565 8.765 7.795 6.995 6.525 6.205 5.735 4.895
2960.981 4.365 3.965 3.725 3.645 4.035 4.025 3.695 3.685 3.575 3.385
2980.271 3.515 3.955 4.225 4.625 5.005 5.465 5.895 6.305 6.785 7.085
2999.561 7.045 6.795 6.835 6.515 5.865 4.965 4.205 4.105 3.745 3.295
3018.850 3.025 3.105 3.275 3.205 3.065 3.185 3.515 3.685 3.925 4.245
3038.140 4.535 4.715 4.705 4.765 4.935 5.085 5.015 4.365 4.175 4.275
3057.430 3.825 3.905 3.685 3.365 3.225 2.795 2.785 3.295 3.765 3.695
3076.720 3.195 3.165 3.155 2.995 3.155 2.885 2.625 2.655 2.465 2.245
3096.009 2.395 1.905 1.1246 1.0269 1.795 2.165 1.865 1.6271 1.1891 1.1817
3115.299 1.3262 1.1918 1.1658 1.306 1.4273 1.514 1.6273 1.665 1.3075 0.8812
3134.589 0.9041 1.4395 1.4391 1.2185 1.3268 1.1362 1.0176 0.9822 1.1611 1.0964
3153.879 1.1151 1.0681 0.6368 0.7693 1.0275 1.0992 1.1594 0.8423 0.493 0.6799
3173.169 0.9671 1.2724 1.4865 1.745 1.4453 0.9137 1.1792 1.2176 1.101 1.1638
3192.458 1.374 1.825 1.975 1.725 1.4314 1.685 2.045 1.6313 1.5561 1.865
3211.748 1.805 1.6378 1.815 2.005 1.745 1.5681 1.705 1.975 1.5802 1.4975
3231.038 1.5873 1.0135 1.0539 1.4384 1.5261 1.705 1.6279 1.1226 1.2835 1.4619
3250.328 0.9839 0.8598 1.0467 1.4243 1.5912 1.4355 1.3334 1.2008 1.1797 1.2794
3269.617 1.0475 0.73751 0.8177 0.9169 1.0146 0.9594 0.73518 0.73876 0.7895 1.0457
3288.907 1.2769 0.74443 0.505 0.828 1.0825 0.8612 1.021 0.9712 0.474 1.0234
3308.197 1.464 1.4893 1.4983 1.0955 0.7914 0.6167 0.551 0.69134 0.418 0.171
3327.487 0.374 0.9196 1.0828 0.6445 0.5802 0.525 0.6254 0.5754 0.513 0.9677
3346.777 0.865 0.6072 0.9231 1.1938 1.3818 1.3554 1.2906 0.9425 0.5954 1.0565
3366.066 1.0767 0.9667 1.0362 0.9854 1.0669 1.1755 1.3384 1.3104 1.0195 1.0145
3385.356 1.685 1.905 1.5495 1.775 2.475 3.165 3.045 2.835 3.235 3.135
3404.646 3.855 5.145 5.635 5.825 6.395 7.295 7.465 7.655 7.565 7.335
3423.936 7.275 6.815 6.745 7.145 7.325 6.905 6.295 5.725 5.035 4.495
3443.225 4.325 3.595 2.485 1.825 1.725 1.6355 1.3391 1.875 2.155 1.655
3462.515 1.725 2.005 1.865 1.795 1.465 1.2742 2.015 2.115 2.175 2.355
3481.805 2.265 2.605 2.545 2.165 2.305 2.675 3.075 3.765 4.135 3.915
3501.095 3.895 3.955 4.185 4.575 4.575 4.115 4.005 4.355 4.175 3.865
3520.385 3.955 3.915 4.185 4.345 4.295 4.225 3.765 3.575 3.015 2.325
3539.674 2.955 2.945 2.095 1.735 1.915 2.135 1.655 1.5965 1.695 1.2052
3558.964 0.70985 1.2534 1.6001 0.6032 0.23 1.0613 1.1998 0.8679 1.0186 0.8834
3578.254 0.504 0.8454 1.4486 1.3578 0.8571 0.425 0.319 0.5727 0.7774 0.65337
3597.544 0.459 0.7196 0.9903 0.8698 1.0856 0.9505 0.6769 0.9099 1.259 0.8004
3616.833 0 0.276 0.238 0.094 0.234 0.527 0.8487 0.9106 1.1231 1.0948
3636.123 0.9709 0.81 0.6005 0.6257 0.404 0.38 0.7982 1.1651 1.1702 0.8976
3655.413 0.7699 0.8711 1.2494 1.394 1.0477 0.519 0.7605 1.1447 0.662557 0.64959
3674.703 0.8418 0.533 0.368 0.73078 0.8604 0.9308 1.2015 1.3029 1.4008 1.2775
3693.993 0.9654 0.968 1.344 1.0343 0.70293 0.65068 0.528 0.635 1.0144 1.1083
3713.282 0.9462 0.391 0.196 0.39 0.319 0.302 0.238 0.68681 1.0848 0.9206
3732.572 0.5961 0.6104 1.1815 1.5704 0.9647 1.1107 1.5594 1.3779 1.1357 0.9163
3751.862 0.9224 0.72467 1.0415 1.3734 0.8783 0.67445 1.0578 1.1047 0.553 0.6373
3771.152 0.8828 0.8328 0.9989 1.2035 1.2536 1.0332 0.8746 1.1697 1.765 1.5795
3790.441 1.1517 0.8121 0.8723 1.0627 0.8837 0.8109 1.2453 1.665 1.1319 0.9811
3809.731 1.1407 1.0468 1.0108 1.0441 0.838 0.8292 0.8287 0.7882 0.7571 0.8744
3829.021 1.0491 0.7745 0.70807 0.9994 1.4165 1.3694 0.8188 1.0886 1.1564 0.5732
3848.311 0.9141 1.3255 1.0321 1.3507 1.875 1.3921 1.0774 1.2073 1.296 0.9031
3867.601 0.72003 1.5057 1.541 0.9124 0.5754 0.70543 1.0727 1.1297 1.3252 1.017
3886.890 0.8485 1.1389 0.8186 0.73727 1.2646 1.4334 1.3212 0.74376 0.445 0.8629
3906.180 0.7869 0.72917 1.5458 1.745 1.34 1.6306 1.705 1.1127 0.387 0.353
3925.470 0.6381 0.6193 1.2981 1.494 0.7925 0.74991 1.4461 1.4393 0.9512 1.3777
3944.760 1.3012 1.3124 1.6342 1.0451 1.0575 1.4173 1.0514 0.8383 0.8932 0.9899
3964.049 1.2652 1.345 1.2054 0.662548 0.398 0.9504 1.2608 0.8048 0.339 0.421
3983.339 1.1375 1.2033 0.9482 1.2352 1.2177 1.1956 1.0801 1.2913 1.2796 1.2987
##END=
