##TITLE=5-Fluoro-2-methylphenyl isothiocyanate
##JCAMP-DX=4.24
##DATA TYPE=INFRARED SPECTRUM
##ORIGIN=EPA-IR VAPOR PHASE LIBRARY
##OWNER=SRD/NIST
Collection (C) 2018 copyright by the U.S. Secretary of Commerce
on behalf of the United States of America. All rights reserved.
##CAS REGISTRY NO=175205-39-7
##MOLFORM=C 8 H 6 F N S
##$NIST SOURCE=MSDC-IR
##STATE=gas
##XUNITS=1/CM
##YUNITS=ABSORBANCE
##XFACTOR=1.
##YFACTOR=0.001
##DELTAX=1.92898
##FIRSTX=549.8
##LASTX=4000.7
##FIRSTY=20.518
##MAXX=4000.7
##MINX=549.759
##MAXY=0.618498
##MINY=0
##NPOINTS=1790
##XYDATA=(X++(Y..Y))
549.759 20.518 20.638 21.098 20.838 20.048 19.248 18.988 18.428 17.688 17.308
569.049 16.498 16.008 15.518 15.188 15.078 14.308 14.318 15.058 15.688 16.028
588.339 16.518 17.278 18.368 19.348 18.558 16.678 14.788 13.198 11.838 10.188
607.628 8.688 7.528 6.488 5.628 4.808 4.208 3.968 4.038 3.998 4.048
626.918 4.398 5.128 6.138 6.848 7.708 8.528 9.268 9.728 9.908 9.808
646.208 9.448 8.928 8.008 6.758 5.868 5.158 4.218 3.698 3.558 3.458
665.498 3.478 3.828 4.398 5.268 6.488 7.908 9.378 10.848 11.978 12.858
684.787 13.248 13.138 12.628 11.608 10.448 9.158 7.338 5.518 4.428 3.868
704.077 3.498 3.178 3.088 3.298 3.418 3.548 3.958 4.238 4.598 5.058
723.367 5.458 6.078 6.928 8.278 10.408 13.328 17.208 22.058 27.438 32.078
742.657 34.488 34.938 34.658 33.518 30.858 26.608 20.748 14.788 10.428 7.548
761.947 5.668 4.798 4.488 4.298 4.288 4.438 4.658 4.988 5.548 5.908
781.236 6.118 6.648 7.508 8.938 10.928 13.388 16.258 19.908 24.048 28.158
800.526 32.658 38.258 44.558 49.058 48.098 43.708 41.408 40.628 39.538 38.308
819.816 37.368 37.578 39.048 42.568 48.308 55.428 63.698 72.148 79.838 86.188
839.106 90.348 92.088 91.888 90.178 86.768 82.018 77.218 72.818 69.128 68.008
858.395 71.748 79.548 77.298 62.388 51.548 46.178 40.478 33.948 27.298 21.388
877.685 16.618 13.078 10.898 9.618 8.938 9.038 9.268 9.498 10.178 10.998
896.975 11.918 13.338 14.768 15.658 16.318 16.808 16.958 16.888 16.648 15.878
916.265 14.928 14.028 13.118 12.588 11.838 10.868 10.008 9.208 8.618 8.068
935.555 7.458 6.938 6.478 6.108 5.898 5.818 5.838 5.738 5.748 5.928
954.844 6.288 6.818 7.348 7.958 8.698 9.498 10.478 11.508 12.508 13.818
974.134 15.048 15.908 16.548 16.608 16.508 16.348 15.708 15.008 14.448 13.848
993.424 13.488 13.658 14.058 14.198 14.288 14.338 13.798 13.068 12.318 11.378
1012.714 10.488 9.318 7.898 6.828 6.018 5.258 4.628 4.018 3.728 3.648
1032.003 3.528 3.538 3.548 3.628 3.688 3.338 3.198 3.088 3.088 3.178
1051.293 3.058 2.928 2.638 2.538 2.258 2.068 2.148 2.138 2.538 2.538
1070.583 2.048 1.968 1.658 1.4648 1.768 2.018 2.198 2.118 2.038 2.258
1089.873 2.318 2.468 2.888 3.738 4.588 6.028 8.118 10.398 14.348 18.618
1109.163 21.338 22.868 23.698 23.698 22.418 19.768 15.898 11.908 8.818 6.948
1128.452 6.168 5.798 6.048 6.928 7.928 8.958 10.098 11.768 14.118 17.148
1147.742 21.648 27.668 35.578 45.808 56.938 67.298 74.258 76.168 75.748 75.638
1167.032 73.908 66.598 53.738 39.788 29.018 22.198 17.778 14.898 13.278 12.818
1186.322 12.668 12.698 13.108 13.268 12.728 12.098 11.668 10.668 9.478 8.548
1205.611 7.548 6.558 5.748 5.298 5.228 4.788 4.428 4.258 4.148 3.998
1224.901 4.038 3.938 3.848 4.468 4.808 4.878 5.288 5.968 6.778 7.808
1244.191 9.238 11.278 13.838 16.488 20.048 25.048 30.608 36.158 41.608 46.438
1263.481 50.188 53.028 54.918 56.378 56.878 56.758 56.528 56.148 56.088 56.158
1282.771 55.868 54.858 53.168 51.048 48.058 43.988 39.438 35.038 30.938 26.928
1302.060 22.968 19.228 16.028 13.408 11.328 9.748 8.448 7.468 6.728 6.178
1321.350 5.668 5.288 4.928 4.538 4.238 3.958 3.728 3.478 3.278 3.118
1340.640 2.968 2.818 2.718 2.658 2.588 2.588 2.578 2.578 2.638 2.768
1359.930 2.908 3.018 3.118 3.258 3.468 3.698 4.028 4.408 4.888 5.628
1379.219 6.548 7.548 8.568 9.358 9.918 10.398 10.978 11.408 11.318 10.878
1398.509 10.538 10.458 10.568 10.798 11.048 11.298 11.678 12.118 12.468 12.618
1417.799 12.668 12.618 12.388 11.998 11.598 11.228 10.958 11.088 11.508 12.198
1437.089 13.158 14.538 16.388 18.668 21.408 24.418 27.538 30.298 32.158 32.938
1456.378 32.848 32.008 30.478 28.348 25.818 23.278 21.208 19.768 19.138 19.438
1475.668 20.708 23.138 27.218 33.408 42.308 54.588 70.658 90.438 113.368 137.188
1494.958 159.258 177.398 189.418 193.788 189.288 176.328 155.828 130.688 103.998 78.028
1514.248 56.498 41.618 32.718 28.008 25.518 24.188 23.498 23.098 22.758 22.218
1533.538 21.608 20.888 20.038 19.148 18.328 17.638 17.178 16.878 16.658 16.638
1552.827 16.718 16.918 17.348 18.028 18.738 19.688 21.108 22.768 24.878 27.668
1572.117 31.058 35.028 39.828 45.538 51.928 59.208 67.078 75.468 84.228 93.018
1591.407 101.918 110.998 119.928 128.408 136.338 143.408 149.188 153.248 155.358 155.268
1610.697 152.738 147.918 140.658 130.618 118.408 105.478 92.418 79.388 66.858 55.168
1629.986 45.008 36.858 30.268 24.768 20.368 16.948 14.348 12.388 10.788 9.618
1649.276 8.808 8.148 7.588 7.148 6.788 6.518 6.298 6.148 5.948 5.678
1668.566 5.498 5.328 5.098 4.868 4.698 4.498 4.248 4.018 3.888 3.788
1687.856 3.688 3.628 3.508 3.518 3.608 3.668 3.728 3.828 3.888 4.058
1707.146 4.368 4.708 4.988 5.268 5.578 5.778 5.828 5.908 6.118 6.338
1726.435 6.368 6.268 6.208 6.218 6.168 6.078 5.938 5.728 5.618 5.398
1745.725 5.058 4.738 4.468 4.298 4.188 4.088 4.038 3.978 3.908 3.878
1765.015 3.878 3.898 3.928 3.958 3.988 4.068 4.128 4.178 4.258 4.328
1784.305 4.448 4.568 4.668 4.728 4.818 4.928 4.978 5.038 5.148 5.268
1803.594 5.348 5.448 5.488 5.518 5.698 5.898 6.018 6.148 6.218 6.258
1822.884 6.368 6.488 6.538 6.588 6.688 6.828 6.978 7.088 7.258 7.458
1842.174 7.588 7.668 7.788 7.918 7.998 8.188 8.498 8.828 9.128 9.548
1861.464 10.048 10.508 10.838 11.038 11.038 10.858 10.588 10.268 9.888 9.348
1880.754 8.768 8.378 8.188 8.098 8.108 8.218 8.418 8.668 9.028 9.488
1900.043 9.998 10.598 11.268 11.908 12.658 13.508 14.338 15.228 16.198 17.248
1919.333 18.368 19.608 21.108 22.668 24.288 26.148 28.218 30.438 32.768 35.258
1938.623 37.888 40.658 43.588 46.788 50.108 53.558 57.238 61.038 64.908 68.938
1957.913 73.128 77.478 81.918 86.508 91.228 96.158 101.398 106.848 112.548 118.598
1977.202 125.008 131.628 138.598 145.868 153.368 161.158 169.258 177.488 185.908 194.548
1996.492 203.268 212.148 221.168 230.498 240.278 250.458 261.148 272.508 284.568 297.398
2015.782 310.818 324.958 339.728 354.808 370.718 387.408 404.808 423.248 442.658 463.128
2035.072 484.708 507.318 530.208 552.668 573.818 592.018 605.818 614.718 618.498 618.168
2054.362 614.878 609.788 604.308 599.288 594.968 591.308 588.668 585.988 582.778 578.338
2073.651 572.098 563.958 553.528 541.158 527.168 512.208 496.868 481.128 465.168 449.138
2092.941 432.298 414.778 396.588 377.588 358.018 337.978 318.038 298.688 280.528 263.948
2112.231 249.088 236.078 224.718 215.058 206.868 200.108 194.828 190.798 187.988 186.238
2131.521 185.388 185.348 185.758 186.278 186.738 186.598 185.608 183.588 180.068 174.908
2150.810 167.908 159.408 149.568 138.798 127.778 116.808 106.408 96.768 87.798 79.578
2170.100 72.018 65.098 58.728 52.918 47.748 43.108 39.098 35.748 32.928 30.578
2189.390 28.568 26.838 25.298 23.838 22.448 21.118 19.768 18.538 17.468 16.568
2208.680 15.838 15.178 14.638 14.278 13.998 13.758 13.538 13.288 12.988 12.668
2227.970 12.318 11.918 11.498 11.038 10.558 10.148 9.768 9.388 9.158 9.008
2247.259 8.868 8.778 8.808 8.828 8.808 8.888 9.038 9.078 9.188 9.358
2266.549 9.428 9.478 9.518 9.498 9.308 9.118 8.898 8.598 8.258 7.898
2285.839 7.518 7.088 6.688 6.508 6.398 6.168 5.978 5.828 5.688 5.438
2305.129 5.178 5.098 5.078 5.098 5.078 5.158 5.368 5.478 5.578 5.658
2324.418 5.688 5.668 5.548 5.458 5.388 5.338 5.278 5.308 5.458 5.648
2343.708 5.898 6.208 6.418 6.518 6.608 6.538 6.398 6.218 6.028 5.908
2362.998 5.738 5.638 5.608 5.508 5.438 5.498 5.618 5.678 5.728 5.668
2382.288 5.538 5.558 5.518 5.418 5.288 5.078 4.918 4.698 4.528 4.458
2401.578 4.368 4.268 4.248 4.308 4.318 4.438 4.668 4.898 5.188 5.468
2420.867 5.768 6.128 6.468 6.778 7.098 7.398 7.678 7.898 8.038 8.088
2440.157 8.128 8.098 7.998 7.808 7.588 7.358 7.008 6.728 6.478 6.198
2459.447 5.898 5.688 5.568 5.318 5.138 5.168 5.128 5.068 4.998 4.898
2478.737 4.888 4.798 4.668 4.588 4.628 4.738 4.718 4.758 4.828 4.768
2498.026 4.818 4.988 5.108 5.158 5.238 5.338 5.488 5.608 5.708 5.808
2517.316 5.888 6.078 6.338 6.628 6.748 6.818 7.058 7.228 7.308 7.338
2536.606 7.418 7.498 7.578 7.638 7.598 7.668 7.838 7.968 8.018 8.048
2555.896 8.078 8.158 8.308 8.408 8.538 8.658 8.658 8.818 8.918 8.938
2575.186 9.008 8.998 8.908 8.878 8.858 8.738 8.588 8.328 8.048 7.748
2594.475 7.438 7.238 7.038 6.778 6.538 6.328 6.238 6.168 5.908 5.638
2613.765 5.588 5.528 5.318 5.198 5.098 4.818 4.598 4.478 4.318 4.168
2633.055 4.018 3.748 3.528 3.368 3.158 3.008 2.898 2.868 2.838 2.698
2652.345 2.488 2.308 2.318 2.388 2.408 2.318 2.228 2.258 2.228 2.248
2671.634 2.228 2.128 2.098 2.138 2.158 2.188 2.218 2.168 2.168 2.208
2690.924 2.268 2.348 2.368 2.408 2.468 2.488 2.548 2.658 2.768 2.838
2710.214 2.828 2.878 2.938 2.888 2.948 3.128 3.268 3.298 3.348 3.528
2729.504 3.658 3.838 3.998 4.038 4.108 4.188 4.298 4.498 4.618 4.558
2748.794 4.518 4.548 4.498 4.458 4.468 4.438 4.338 4.128 4.018 3.918
2768.083 3.738 3.598 3.538 3.408 3.238 3.168 3.088 3.038 3.008 2.988
2787.373 2.958 2.848 2.738 2.618 2.558 2.588 2.498 2.398 2.388 2.358
2806.663 2.298 2.298 2.338 2.338 2.338 2.468 2.418 2.348 2.468 2.528
2825.953 2.638 2.778 2.938 3.018 3.128 3.278 3.348 3.468 3.708 3.848
2845.242 3.968 4.188 4.448 4.628 4.848 5.228 5.578 5.878 6.218 6.608
2864.532 7.008 7.498 8.038 8.478 8.758 9.058 9.368 9.458 9.428 9.528
2883.822 9.588 9.568 9.548 9.538 9.508 9.438 9.348 9.288 9.268 9.188
2903.112 9.148 9.248 9.478 9.398 9.298 9.378 9.378 9.648 10.028 10.378
2922.401 10.998 11.898 13.098 14.378 15.638 16.888 17.948 18.588 18.838 18.768
2941.691 18.438 17.978 17.208 16.098 15.108 14.278 13.708 13.308 12.998 12.868
2960.981 12.808 12.858 12.908 12.818 12.618 12.458 12.328 12.508 12.768 12.898
2980.271 13.258 13.688 13.988 14.048 13.898 13.638 13.168 12.488 11.818 11.188
2999.561 10.278 9.368 8.588 7.868 7.308 6.948 6.618 6.348 6.228 6.258
3018.850 6.288 6.388 6.638 6.868 7.338 7.978 8.678 9.518 10.308 11.088
3038.140 11.928 12.678 13.298 13.618 13.518 13.198 12.808 12.218 11.348 10.398
3057.430 9.458 8.498 7.798 7.398 6.908 6.758 6.928 6.928 6.998 7.118
3076.720 7.048 6.798 6.498 6.248 6.018 5.678 5.168 4.668 4.378 4.158
3096.009 3.868 3.698 3.498 3.218 2.918 2.558 2.278 2.108 1.888 1.808
3115.299 1.798 1.768 1.898 1.848 1.588 1.456 1.4116 1.2899 1.0626 0.9004
3134.589 0.945 0.9854 0.9814 1.0327 1.0712 0.9308 0.7752 0.7836 0.7023 0.56765
3153.879 0.6267 0.6395 0.6039 0.53848 0.55702 0.6251 0.6263 0.494221 0.3917 0.4232
3173.169 0.353 0.4015 0.52267 0.6381 0.55018 0.357 0.32 0.25 0.182 0.251
3192.458 0.374 0.4376 0.49968 0.6109 0.49513 0.345 0.4278 0.4346 0.343 0.323
3211.748 0.319 0.3973 0.342 0.365 0.378 0.276 0.487237 0.6045 0.50738 0.382
3231.038 0.4413 0.50578 0.4412 0.314 0.206 0.176 0.153 0.057 0.017 0.098
3250.328 0.105 0.155 0.149 0.176 0.3973 0.349 0.174 0.271 0.355 0.318
3269.617 0.348 0.325 0.237 0.253 0.134 0 0.1 0.15 0.157 0.206
3288.907 0.281 0.225 0.146 0.229 0.154 0.18 0.26 0.169 0.162 0.134
3308.197 0.141 0.226 0.306 0.4098 0.4082 0.25 0.23 0.248 0.163 0.183
3327.487 0.248 0.148 0.097 0.258 0.297 0.175 0.217 0.4122 0.375 0.255
3346.777 0.143 0.085 0.106 0.083 0.061 0.257 0.328 0.102 0.2 0.38
3366.066 0.178 0.062 0.215 0.194 0.144 0.195 0.192 0.132 0.121 0.155
3385.356 0.218 0.377 0.348 0.21 0.338 0.4061 0.369 0.52205 0.597 0.54504
3404.646 0.495988 0.4514 0.4387 0.49952 0.399 0.31 0.294 0.247 0.356 0.322
3423.936 0.313 0.4484 0.4035 0.192 0.226 0.371 0.317 0.253 0.264 0.322
3443.225 0.233 0.261 0.315 0.319 0.28 0.232 0.277 0.3948 0.49868 0.4537
3462.515 0.366 0.336 0.43 0.50131 0.488074 0.4688 0.4424 0.4471 0.52947 0.52668
3481.805 0.364 0.317 0.377 0.3922 0.51105 0.55321 0.5977 0.8059 0.7035 0.4606
3501.095 0.49705 0.4705 0.4089 0.3926 0.384 0.3942 0.4513 0.55926 0.52991 0.33
3520.385 0.373 0.57692 0.4656 0.237 0.336 0.490386 0.4365 0.3977 0.4772 0.4367
3539.674 0.272 0.348 0.494244 0.48177 0.4568 0.4722 0.4661 0.492644 0.6217 0.6522
3558.964 0.5924 0.4418 0.325 0.4081 0.4386 0.6249 0.6777 0.4077 0.285 0.343
3578.254 0.50669 0.48316 0.358 0.336 0.47847 0.58339 0.4287 0.383 0.4567 0.4372
3597.544 0.57292 0.6465 0.54786 0.50995 0.305 0.3954 0.54664 0.4123 0.379 0.4335
3616.833 0.495717 0.4301 0.257 0.115 0.209 0.4475 0.4441 0.4739 0.4724 0.3904
3636.123 0.4389 0.49872 0.4674 0.4243 0.4422 0.346 0.4533 0.6152 0.488166 0.4593
3655.413 0.496406 0.3974 0.4471 0.6017 0.6691 0.51696 0.5414 0.727 0.6427 0.54191
3674.703 0.5608 0.54633 0.493302 0.52051 0.5763 0.4587 0.493486 0.6933 0.54796 0.4463
3693.993 0.58309 0.6335 0.57157 0.56883 0.57336 0.491738 0.491357 0.5959 0.7121 0.7484
3713.282 0.6629 0.6211 0.6415 0.6888 0.6823 0.8705 0.9127 0.7416 0.8985 0.9814
3732.572 0.7913 0.7722 0.795 0.7082 0.6879 0.7078 0.7701 0.8113 0.7604 0.6535
3751.862 0.6869 0.7159 0.5654 0.51855 0.661 0.7197 0.6241 0.55815 0.6393 0.636
3771.152 0.7031 0.952 0.8349 0.56638 0.6307 0.8483 0.8125 0.683 0.8186 0.9548
3790.441 0.9004 0.8365 0.8232 0.7175 0.6147 0.6566 0.7069 0.7043 0.7596 0.7061
3809.731 0.6468 0.7892 0.8689 0.7748 0.8677 0.9745 0.8803 0.9073 1.0085 1.0394
3829.021 1.0138 1.0156 0.9947 0.9495 1.0023 1.0306 0.9575 1.0271 1.0857 0.9368
3848.311 0.8087 0.8896 1.0003 1.0874 1.1338 0.9004 0.9484 1.1042 1.0007 1.0942
3867.601 1.0266 0.823 0.7918 0.9196 0.9907 0.9571 0.9413 1.0838 1.0904 0.953
3886.890 0.9889 1.1185 1.0235 1.0205 1.2965 1.3647 1.3773 1.0471 0.9038 1.0604
3906.180 0.955 0.9946 1.1611 1.1142 1.1065 1.2955 1.2974 1.2413 1.3455 1.3946
3925.470 1.4515 1.538 1.548 1.4668 1.598 1.808 1.648 1.3643 1.4212 1.688
3944.760 1.698 1.568 1.488 1.538 1.708 1.828 1.898 1.908 1.818 1.858
3964.049 1.858 1.868 1.918 1.908 2.078 2.118 2.048 2.048 2.128 2.098
3983.339 1.988 2.068 2.188 2.328 2.308 2.228 2.318 2.408 2.248 2.078
##END=
