##TITLE=1,3-Diacetylindole
##JCAMP-DX=4.24
##DATA TYPE=INFRARED SPECTRUM
##ORIGIN=EPA-IR VAPOR PHASE LIBRARY
##OWNER=SRD/NIST
Collection (C) 2018 copyright by the U.S. Secretary of Commerce
on behalf of the United States of America. All rights reserved.
##CAS REGISTRY NO=17537-64-3
##MOLFORM=C 12 H 11 N O 2
##$NIST SOURCE=MSDC-IR
##STATE=gas
##XUNITS=1/CM
##YUNITS=ABSORBANCE
##XFACTOR=1.
##YFACTOR=0.001
##DELTAX=1.92898
##FIRSTX=549.8
##LASTX=4000.7
##FIRSTY=7.039
##MAXX=4000.7
##MINX=549.759
##MAXY=0.128059
##MINY=0
##NPOINTS=1790
##XYDATA=(X++(Y..Y))
549.759 7.039 8.219 9.109 10.289 10.749 10.879 10.559 9.309 8.689 8.579
569.049 8.039 8.089 8.609 8.979 9.679 10.209 10.439 10.799 10.959 10.419
588.339 10.089 10.039 9.119 8.379 8.349 7.789 7.159 6.909 6.509 6.419
607.628 6.499 6.289 6.069 5.959 5.339 5.109 5.369 5.529 5.649 6.469
626.918 8.119 9.479 10.779 12.359 14.199 16.479 18.879 20.189 20.029 19.649
646.208 19.129 17.709 15.789 12.699 9.239 6.819 5.109 4.339 3.849 2.929
665.498 2.399 2.169 1.809 1.396 1.313 1.5101 1.729 1.779 1.5363 1.5472
684.787 1.769 1.5426 1.4779 1.729 1.939 2.019 1.999 1.839 1.829 2.059
704.077 2.149 2.369 2.529 2.589 2.829 3.059 3.349 3.729 4.179 4.779
723.367 5.199 6.349 8.179 9.729 11.649 14.199 17.339 21.419 26.999 32.049
742.657 34.399 36.549 38.049 39.129 40.919 36.689 27.979 22.929 20.479 17.769
761.947 15.439 13.419 11.579 10.169 8.999 8.049 6.689 5.439 4.219 3.239
781.236 2.659 2.209 2.169 2.269 2.479 2.649 2.819 2.979 3.099 3.149
800.526 2.989 2.629 2.519 2.379 2.389 2.079 1.999 2.339 2.029 1.829
819.816 1.829 2.269 2.489 2.319 2.609 2.769 2.959 3.049 2.969 3.009
839.106 2.999 3.079 2.979 2.779 2.789 3.059 3.079 2.609 2.319 2.389
858.395 2.159 1.789 1.759 1.5544 1.659 1.879 1.5229 1.5921 1.859 1.699
877.685 1.699 1.639 1.669 2.129 2.219 2.089 2.099 2.149 2.079 2.209
896.975 2.639 2.839 3.179 3.869 4.529 5.569 7.229 8.669 9.979 11.449
916.265 12.759 13.689 14.069 14.099 13.559 12.809 12.689 12.749 12.699 13.159
935.555 13.369 13.139 13.039 12.719 12.109 10.979 9.229 7.479 6.249 5.409
954.844 5.169 5.359 5.279 5.259 5.939 6.559 6.879 7.119 7.489 8.369
974.134 9.339 10.349 11.489 12.609 14.169 15.839 16.889 17.679 17.999 18.439
993.424 18.779 18.399 18.239 17.769 17.019 16.439 15.749 15.049 14.099 13.649
1012.714 13.769 14.119 14.169 14.039 14.529 14.619 14.249 13.259 12.179 11.809
1032.003 11.299 10.109 9.639 9.579 8.819 8.359 7.989 7.889 7.509 6.629
1051.293 6.519 6.549 6.349 5.769 5.649 5.399 4.929 4.999 4.939 4.589
1070.583 4.089 3.959 4.229 4.239 4.099 4.329 4.219 4.269 5.019 5.159
1089.873 4.459 5.159 5.469 4.189 4.519 5.759 6.619 6.699 6.239 7.129
1109.163 8.439 9.079 8.499 7.819 7.729 7.619 8.109 9.339 9.779 9.949
1128.452 11.199 12.439 12.979 14.309 16.369 19.149 22.709 25.689 27.449 28.989
1147.742 30.009 30.059 30.159 29.679 28.109 26.439 25.399 24.849 24.789 24.989
1167.032 24.569 23.219 22.929 24.059 26.499 30.919 36.759 45.379 55.519 65.629
1186.322 78.009 87.929 92.589 93.649 90.669 85.249 79.029 69.919 60.789 57.699
1205.611 62.019 72.989 86.629 102.049 115.749 123.859 128.059 127.119 118.599 104.279
1224.901 86.509 65.819 46.629 32.629 23.429 19.069 16.809 14.779 13.829 13.819
1244.191 14.369 15.239 16.979 19.809 23.389 26.509 29.049 31.369 33.199 34.309
1263.481 33.809 31.689 28.439 25.359 22.539 19.469 17.179 15.039 13.009 11.769
1282.771 11.569 12.419 13.569 15.039 17.139 20.009 23.399 26.269 28.329 29.969
1302.060 30.969 31.529 32.019 32.769 33.979 36.159 39.619 43.369 46.239 47.659
1321.350 47.669 46.379 44.059 41.089 37.899 35.759 35.829 37.549 39.999 42.559
1340.640 44.689 45.979 45.909 44.479 41.969 38.789 35.539 32.759 30.969 30.449
1359.930 31.279 33.699 37.939 43.959 51.369 59.739 67.899 75.119 80.929 84.399
1379.219 85.079 82.679 77.099 69.149 60.079 50.689 41.799 33.949 27.419 22.559
1398.509 19.309 16.999 15.519 14.599 13.839 13.319 12.959 12.499 12.229 12.139
1417.799 12.129 12.359 12.779 13.429 14.449 15.819 17.689 19.959 22.689 25.909
1437.089 30.329 36.149 42.979 50.119 56.379 60.559 62.389 62.129 59.459 54.279
1456.378 46.659 37.969 30.519 24.749 20.589 17.989 16.729 16.349 16.679 17.239
1475.668 17.519 17.399 16.829 15.929 14.649 12.699 10.479 8.579 7.209 6.309
1494.958 5.819 5.579 5.509 5.499 5.429 5.389 5.529 5.739 6.079 6.609
1514.248 7.219 7.939 8.959 10.159 11.419 13.219 15.529 18.229 21.459 25.259
1533.538 29.929 35.199 40.709 46.429 51.759 56.359 59.689 61.199 60.829 58.609
1552.827 54.809 50.029 44.829 39.229 33.939 29.249 25.079 21.739 19.029 16.929
1572.117 15.359 14.219 13.489 13.049 12.919 12.919 12.969 12.909 12.769 12.689
1591.407 12.789 12.779 12.649 12.739 12.739 12.599 12.049 11.199 10.349 9.389
1610.697 8.509 7.569 6.539 5.809 5.379 5.039 4.829 4.859 4.879 4.769
1629.986 4.869 5.079 5.369 5.499 5.669 6.029 6.469 6.749 6.999 7.279
1649.276 7.409 7.579 7.759 8.059 8.309 8.469 8.729 9.039 9.639 10.519
1668.566 11.599 13.239 15.699 18.949 23.459 29.609 38.199 48.679 60.569 72.429
1687.856 81.689 87.779 90.009 87.879 81.209 71.209 58.779 45.709 35.639 27.909
1707.146 22.929 19.949 18.389 17.979 18.499 19.889 22.369 25.699 31.009 38.609
1726.435 49.009 62.309 77.519 92.639 105.779 114.659 117.859 114.799 105.759 91.699
1745.725 74.279 55.819 39.779 28.059 20.589 16.059 13.219 11.469 10.199 9.309
1765.015 8.949 8.679 8.399 8.259 8.149 8.029 7.949 7.789 7.549 7.249
1784.305 6.979 6.899 6.669 6.309 6.039 5.919 5.949 5.839 5.659 5.539
1803.594 5.339 5.119 4.909 4.779 4.629 4.409 4.279 4.189 4.039 3.909
1822.884 3.829 3.679 3.529 3.479 3.289 2.999 2.859 2.809 2.669 2.519
1842.174 2.369 2.249 2.179 2.219 2.319 2.159 2.099 2.129 2.009 1.959
1861.464 2.059 2.189 2.229 2.169 2.049 2.129 2.259 2.209 2.169 2.109
1880.754 2.089 2.049 2.009 1.999 1.979 1.969 1.979 2.089 2.129 2.179
1900.043 2.219 2.249 2.309 2.369 2.469 2.529 2.559 2.459 2.449 2.539
1919.333 2.469 2.279 2.229 2.289 2.109 2.039 2.149 2.069 1.999 1.999
1938.623 2.009 2.129 2.229 2.189 2.189 2.219 2.299 2.099 1.789 1.669
1957.913 1.5333 1.483 1.4072 1.2752 1.3297 1.4112 1.2328 1.1001 1.1685 1.2366
1977.202 1.1349 1.1763 1.2417 1.1113 1.1539 1.2152 1.2484 1.2563 1.1736 1.1383
1996.492 1.1714 1.1185 1.0402 1.0773 1.1096 1.0693 1.0881 1.0886 1.1391 1.1598
2015.782 1.2053 1.2961 1.2143 1.2884 1.3103 1.1332 1.1459 1.2017 1.1855 1.168
2035.072 1.1546 1.186 1.1484 1.1395 1.1883 1.1177 1.0248 1.0744 1.0902 1.0644
2054.362 1.2194 1.2581 1.1501 1.1175 1.0544 1.1392 1.2059 1.1453 1.1473 1.1535
2073.651 1.1494 1.2275 1.2117 1.2403 1.3144 1.3258 1.3349 1.2677 1.1845 1.1856
2092.941 1.2505 1.2791 1.2995 1.3398 1.3788 1.3004 1.2471 1.2928 1.3772 1.3473
2112.231 1.2923 1.3164 1.2406 1.2384 1.25 1.2062 1.1591 1.1593 1.1418 1.0638
2131.521 1.0646 1.0975 0.9962 1.0185 1.1066 0.9958 0.9212 1.0176 1.0811 0.8959
2150.810 0.8427 0.8543 0.8799 0.9016 0.9124 1.0227 1.1165 1.0302 0.8819 0.9116
2170.100 0.9621 0.9066 0.8824 0.9673 1.0082 0.9711 0.8923 0.9368 0.9649 0.8347
2189.390 0.8171 0.941 1.0017 1.0108 0.9222 0.8885 0.8853 0.903 1.0328 1.1065
2208.680 1.0574 1.1212 1.2252 1.1922 1.0683 1.0061 1.1489 1.1691 1.0444 1.0397
2227.970 1.1044 1.0145 0.8786 0.9288 1.0049 1.1244 1.1625 0.9254 0.8194 0.9009
2247.259 0.9739 0.9374 0.8864 0.9738 1.0652 0.9496 1.0169 1.1273 1.0902 1.0611
2266.549 1.0094 0.9838 1.0506 1.1437 1.2332 1.2208 1.1649 1.1916 1.1914 1.1945
2285.839 1.1744 1.1659 1.1614 1.2518 1.3192 1.3649 1.3213 1.3034 1.3555 1.3491
2305.129 1.3434 1.277 1.2338 1.3481 1.3341 1.1727 1.2732 1.3209 1.2492 1.3479
2324.418 1.3748 1.3211 1.2034 1.1175 1.154 1.2351 1.2133 1.1408 1.2259 1.2457
2343.708 1.2985 1.333 1.1861 1.125 1.1388 1.143 0.9868 0.8266 0.8775 1.0422
2362.998 1.1543 1.1535 1.2029 1.1427 1.1313 1.1329 1.1247 1.2184 1.171 1.1578
2382.288 1.1041 1.0779 1.075 0.9136 0.9678 1.1284 1.1497 1.1623 1.0985 1.014
2401.578 1.0316 1.0945 1.1364 1.1859 1.2374 1.1857 1.174 1.2126 1.0855 1.0821
2420.867 1.2337 1.2108 1.1276 1.1879 1.231 1.2268 1.1627 1.0159 1.1642 1.2169
2440.157 1.1136 1.0497 0.966 1.0858 1.186 1.2045 1.1635 1.1193 1.1866 1.2093
2459.447 1.2209 1.2069 1.1243 1.2367 1.2249 1.2341 1.4598 1.5725 1.4694 1.3547
2478.737 1.4768 1.5425 1.4967 1.5547 1.6147 1.4892 1.4085 1.3552 1.4114 1.3912
2498.026 1.342 1.4265 1.407 1.4807 1.3532 1.0892 1.1401 1.3453 1.3506 1.2575
2517.316 1.2858 1.3242 1.2996 1.276 1.3019 1.2903 1.4428 1.5639 1.4617 1.4709
2536.606 1.4792 1.3872 1.4306 1.451 1.3897 1.4178 1.423 1.3935 1.3257 1.2252
2555.896 1.2371 1.2279 1.1716 1.2007 1.1693 1.1313 1.1509 1.0559 1.0532 1.1999
2575.186 1.2408 1.2405 1.3235 1.2838 1.2477 1.3625 1.348 1.4767 1.5508 1.3226
2594.475 1.3831 1.4968 1.405 1.4528 1.4667 1.3719 1.4296 1.6119 1.6111 1.5172
2613.765 1.4885 1.4308 1.3614 1.4076 1.4616 1.4468 1.3504 1.2187 1.2417 1.3246
2633.055 1.2822 1.2579 1.3272 1.4074 1.2896 1.2137 1.2592 1.2414 1.1672 1.2033
2652.345 1.2576 1.2372 1.3512 1.3317 1.3443 1.4201 1.3955 1.3853 1.4879 1.3647
2671.634 1.2589 1.2767 1.2965 1.345 1.0952 1.0234 0.9881 0.9862 1.1327 1.1973
2690.924 1.2896 1.1213 1.0631 1.1827 1.0244 1.0101 1.0562 1.004 1.0528 0.9997
2710.214 0.9232 0.9496 1.0424 0.9965 0.9191 0.9342 0.996 1.134 1.1522 0.9593
2729.504 1.0474 1.1297 0.9252 0.9214 1.0618 1.1838 1.1263 1.121 1.0473 0.8294
2748.794 0.7391 0.70956 0.7957 0.8581 0.8829 0.9014 1.0629 1.0472 0.8756 1.0805
2768.083 1.1588 0.8893 0.8632 0.9147 0.8953 1.0023 1.0054 1.0422 1.1605 1.0682
2787.373 0.9977 1.108 1.0957 0.9884 0.9841 1.0093 0.9511 0.992 1.0421 1.1001
2806.663 1.1324 1.0724 1.0366 1.0789 1.0463 1.0976 1.0941 1.0071 1.1657 1.1509
2825.953 1.0404 1.1863 1.2739 1.0998 1.1344 1.2849 1.3978 1.5276 1.3514 1.2748
2845.242 1.5791 1.6108 1.4866 1.4999 1.5271 1.3927 1.3706 1.5339 1.5205 1.4877
2864.532 1.5669 1.4641 1.4995 1.679 1.61 1.669 1.543 1.3558 1.4646 1.537
2883.822 1.669 1.809 1.689 1.689 1.789 1.809 1.929 1.959 2.039 2.089
2903.112 2.209 2.029 1.839 1.889 1.899 2.219 2.249 2.209 2.319 2.499
2922.401 2.639 2.619 2.819 3.009 3.159 3.289 3.309 3.339 3.459 3.439
2941.691 3.209 3.019 2.849 2.769 2.689 2.579 2.409 2.289 2.469 2.509
2960.981 2.369 2.659 2.899 2.769 2.769 3.009 3.069 3.079 3.119 3.179
2980.271 3.279 3.199 3.129 3.089 3.149 3.099 3.139 3.479 3.539 3.429
2999.561 3.549 3.619 3.769 4.059 4.319 4.489 4.739 4.869 4.859 5.089
3018.850 5.119 4.919 4.769 4.759 4.669 4.499 4.449 4.399 4.369 4.299
3038.140 4.019 3.859 4.069 4.159 4.279 4.709 5.319 6.199 6.969 7.709
3057.430 8.439 8.829 9.379 9.459 8.909 8.909 8.869 8.269 7.599 7.329
3076.720 7.269 7.069 7.039 7.219 7.149 7.029 6.969 6.679 6.089 5.489
3096.009 5.149 4.509 3.629 3.159 3.129 3.059 2.739 2.509 2.559 2.679
3115.299 2.559 2.459 2.539 2.539 2.299 2.149 2.189 2.229 2.139 1.949
3134.589 1.729 1.5487 1.659 1.859 1.939 2.019 2.189 2.309 2.359 2.389
3153.879 2.469 2.449 2.209 2.159 2.009 1.839 1.969 1.799 1.5759 1.4021
3173.169 1.2314 1.0121 0.8746 0.9893 0.9181 0.8404 1.0633 1.1563 0.9199 0.71424
3192.458 0.8176 0.9594 0.9445 0.7997 0.8122 0.72827 0.69833 0.8732 0.9702 1.05
3211.748 0.9896 1.0011 0.9754 0.8621 0.77 0.7811 0.8618 0.749 0.63683 0.7746
3231.038 0.8062 0.7582 0.72015 0.68757 0.62953 0.5577 0.376 0.392 0.643992 0.685
3250.328 0.8087 0.8274 0.6223 0.7449 0.9758 0.9513 0.901 0.8163 0.5998 0.5691
3269.617 0.5983 0.5392 0.7433 0.8065 0.5641 0.6188 0.643644 0.6169 0.6184 0.647994
3288.907 0.72389 0.72772 0.8061 0.875 0.9 0.63122 0.457 0.647768 0.72647 0.6277
3308.197 0.65267 0.70541 0.9007 1.0141 0.8879 0.9767 0.8667 0.5874 0.73163 0.72179
3327.487 0.7453 0.7965 0.8058 0.83 0.7879 0.8005 0.7749 0.9663 0.7416 0.5709
3346.777 0.72472 0.9338 1.2073 1.3006 1.312 1.3994 1.6339 1.759 1.779 1.679
3366.066 1.563 1.5738 1.4382 1.4971 1.488 1.1455 1.2562 1.3998 1.2083 0.7594
3385.356 0.65435 0.8968 0.9287 0.8141 0.69964 0.69372 0.73547 0.68171 0.68666 0.7419
3404.646 0.863 0.9672 0.7536 0.8417 1.0196 1.0758 1.001 0.9756 0.7695 0.68653
3423.936 0.8374 0.8099 0.8727 0.9593 1.0515 1.0406 0.9064 0.9868 1.3007 1.3335
3443.225 1.3277 1.5811 1.486 1.4548 1.679 1.659 1.6346 1.719 1.939 2.049
3462.515 1.859 1.5919 1.649 1.659 1.3705 1.137 1.0441 0.8838 0.847 0.9887
3481.805 0.9926 1.0122 0.8452 0.7534 0.73834 0.62953 0.6114 0.485 0.5923 0.9498
3501.095 0.9629 0.69749 0.71955 0.6068 0.6016 0.71623 0.65072 0.9406 0.8002 0.506
3520.385 0.66577 0.70235 0.70591 0.7548 0.8511 0.72099 0.638131 0.5751 0.419 0.5521
3539.674 0.5496 0.353 0.436 0.457 0.381 0.478 0.524 0.5961 0.409 0.38
3558.964 0.5634 0.67305 0.640369 0.5627 0.6093 0.6652 0.65695 0.402 0.339 0.489
3578.254 0.68269 0.67107 0.6002 0.67109 0.63628 0.425 0.402 0.5815 0.504 0.547
3597.544 0.6004 0.451 0.491 0.8212 0.8877 0.7601 0.70735 0.72659 0.65357 0.5563
3616.833 0.6226 0.515 0.349 0.373 0.349 0.313 0.347 0.311 0.511 0.8203
3636.123 0.7717 0.439 0.372 0.493 0.5742 0.6772 0.525 0.408 0.465 0.333
3655.413 0.421 0.548 0.5833 0.66047 0.498 0.463 0.506 0.527 0.48 0.362
3674.703 0.324 0.386 0.7986 0.9362 0.499 0.304 0.428 0.48 0.469 0.397
3693.993 0.291 0.5412 0.72482 0.5817 0.351 0.359 0.66128 0.7429 0.399 0.196
3713.282 0.494 0.371 0.062 0.372 0.5654 0.457 0.354 0.429 0.68278 0.6188
3732.572 0.517 0.6149 0.5831 0.585 0.38 0.006 0.064 0.187 0.092 0.162
3751.862 0.284 0.403 0.506 0.6181 0.389 0.266 0.465 0.47 0.516 0.319
3771.152 0.185 0.63208 0.8206 0.492 0.309 0.385 0.445 0.435 0.5402 0.527
3790.441 0.452 0.501 0.6197 0.581 0.442 0.389 0.316 0.325 0.46 0.487
3809.731 0.69527 0.9046 0.416 0.281 0.69107 0.468 0.027 0.301 0.7476 0.66244
3829.021 0.397 0.3 0.427 0.296 0 0.183 0.344 0.348 0.389 0.368
3848.311 0.522 0.448 0.334 0.36 0.406 0.519 0.645761 0.68375 0.5973 0.5861
3867.601 0.6084 0.481 0.6263 0.7403 0.67921 0.72573 0.527 0.7868 0.8597 0.8936
3886.890 0.9603 0.68894 0.5822 0.6269 0.772 0.65953 0.6142 0.467 0.246 0.404
3906.180 0.536 0.473 0.6061 0.6786 0.476 0.32 0.518 0.6043 0.63038 0.70066
3925.470 0.7667 0.6246 0.308 0.072 0.155 0.406 0.466 0.782 0.7267 0.5395
3944.760 0.64994 0.6985 0.8215 0.763 0.70808 0.72254 0.65125 0.70411 0.65163 0.7458
3964.049 0.8552 0.7315 0.7469 0.8497 0.5496 0.379 0.469 0.5984 0.8573 0.7886
3983.339 0.67513 0.7939 0.8809 0.7985 0.7927 0.882 0.8389 0.8164 0.8919 0.7558
##END=
