##TITLE=Ethyl 2,4,6-trimethylbenzoate
##JCAMP-DX=4.24
##DATA TYPE=INFRARED SPECTRUM
##ORIGIN=EPA-IR VAPOR PHASE LIBRARY
##OWNER=SRD/NIST
Collection (C) 2018 copyright by the U.S. Secretary of Commerce
on behalf of the United States of America. All rights reserved.
##CAS REGISTRY NO=1754-55-8
##MOLFORM=C 12 H 16 O 2
##$NIST SOURCE=MSDC-IR
##STATE=gas
##XUNITS=1/CM
##YUNITS=ABSORBANCE
##XFACTOR=1.
##YFACTOR=0.001
##DELTAX=1.92934
##FIRSTX=549.9
##LASTX=3999.5
##FIRSTY=1.6043
##MAXX=3999.53
##MINX=549.863
##MAXY=0.18888
##MINY=0
##NPOINTS=1789
##XYDATA=(X++(Y..Y))
549.863 1.6043 1.6249 1.777 1.8021 1.7536 1.8966 2.0461 2.0945 2.1697 2.1799
569.156 2.1443 2.2662 2.3086 2.3643 2.3605 2.3249 2.4043 2.3066 2.1751 2.2021
588.450 2.215 2.2417 2.51 2.91 3.3 3.63 3.84 3.95 3.83 3.55
607.743 3.1 2.56 2.1278 1.8163 1.56 1.3501 1.236 1.184 1.131 1.096
627.037 1.012 0.973 0.94 0.912 0.978 0.999 0.999 1.04 1.025 0.978
646.330 1.072 1.124 1.114 1.156 1.158 1.166 1.144 1.099 1.115 1.188
665.624 1.254 1.254 1.277 1.271 1.21 1.243 1.3366 1.3256 1.314 1.344
684.917 1.3391 1.3877 1.3975 1.45116 1.6171 1.7361 1.8686 2.0234 2.1751 2.335
704.210 2.58 2.85 3.09 3.35 3.66 3.98 4.25 4.4 4.53 4.57
723.504 4.45 4.32 4.16 3.92 3.66 3.44 3.28 3.13 2.93 2.71
742.797 2.67 2.73 2.64 2.63 2.69 2.75 2.79 2.85 3.01 3.21
762.091 3.49 3.81 4.18 4.65 5.12 5.63 6.14 6.62 6.92 7.04
781.384 7.05 6.9 6.6 6.26 5.89 5.53 5.15 4.77 4.54 4.36
800.678 4.24 4.1 3.95 3.88 3.82 3.8 3.76 3.77 3.9 4.12
819.971 4.3 4.51 4.84 5.32 5.99 6.79 7.78 9.02 10.57 12.38
839.264 14.28 16.03 17.62 19.14 20.45 20.04 17.57 15.05 13.04 11.17
858.558 9.33 7.72 6.6 5.85 5.44 5.19 4.91 4.58 4.2 3.78
877.851 3.35 2.95 2.59 2.3554 2.2501 2.1167 2.039 1.9431 1.8898 1.9146
897.145 1.9212 1.931 1.9283 1.878 1.9124 1.9521 1.8876 1.8653 1.8771 1.8838
916.438 1.8952 1.9025 1.9388 1.9876 2.0192 2.0675 2.1293 2.2025 2.2265 2.2896
935.732 2.3888 2.3966 2.43 2.5 2.53 2.64 2.7 2.69 2.72 2.75
955.025 2.67 2.59 2.53 2.49 2.5 2.48 2.53 2.57 2.61 2.64
974.318 2.7 2.85 3 3.1 3.25 3.47 3.63 3.89 4.18 4.51
993.612 4.89 5.22 5.63 6.05 6.48 6.95 7.46 7.95 8.46 8.95
1012.905 9.42 9.96 10.45 10.78 11.1 11.33 11.4 11.33 11.19 11.05
1032.199 10.87 10.7 10.66 10.79 11.09 11.54 12.1 12.91 13.96 15.18
1051.492 16.66 18.57 21.08 24.41 28.7 34.43 42.09 52.16 65.17 81.21
1070.786 99.94 120.18 139.99 157.24 169.86 176.34 175.82 168.16 154.37 136.62
1090.079 117.8 100.31 85.13 72.43 61.9 52.94 45.21 38.52 32.78 28.08
1109.372 24.29 21.24 18.87 17.06 15.71 14.66 13.81 13.19 12.77 12.43
1128.666 12.2 12.05 11.98 11.97 12.01 12.13 12.41 12.93 13.66 14.82
1147.959 16.69 19.38 22.95 27.5 33.16 40.1 48.21 57.2 65.79 72.21
1167.253 75.15 74.7 71.4 65.31 56.59 46.17 36.14 28.14 22.35 18.31
1186.546 15.47 13.42 11.94 10.9 10.16 9.64 9.35 9.19 9.24 9.43
1205.840 9.64 9.91 10.32 10.82 11.34 11.85 12.51 13.4 14.38 15.56
1225.133 17.01 18.82 21 23.79 27.43 31.98 37.77 45.21 54.78 66.74
1244.426 81.31 98.48 117.67 137.78 156.96 173.03 184.15 188.88 186.44 177
1263.720 161.63 142.28 121.51 101.56 83.85 68.9 56.68 46.94 39.41 33.63
1283.013 29.28 26.12 23.78 22.03 20.66 19.6 18.79 18.05 17.29 16.54
1302.307 15.77 15 14.22 13.4 12.56 11.78 11.03 10.32 9.65 8.99
1321.600 8.36 7.8 7.37 7.02 6.69 6.45 6.23 6.07 6.01 5.98
1340.894 5.94 5.92 6.01 6.13 6.27 6.5 6.78 7.2 7.78 8.58
1360.187 9.6 10.67 11.55 12.16 12.56 12.76 12.78 12.57 12.3 12.2
1379.480 12.34 12.63 12.85 12.95 12.95 12.75 12.34 11.81 11.33 10.88
1398.774 10.46 10.2 10.12 10.11 10.18 10.35 10.66 11.1 11.64 12.25
1418.067 13.03 13.93 14.89 15.89 16.81 17.69 18.6 19.41 20.11 20.7
1437.361 21.18 21.49 21.61 21.63 21.56 21.41 21.16 20.89 20.6 20.32
1456.654 20.1 19.9 19.81 19.84 19.89 19.87 19.73 19.48 19.05 18.43
1475.948 17.71 16.84 15.89 14.91 14.02 13.18 12.42 11.72 11.07 10.59
1495.241 10.2 9.82 9.51 9.26 9.07 8.93 8.84 8.81 8.75 8.7
1514.534 8.76 8.8 8.82 8.85 8.85 8.86 8.83 8.76 8.71 8.67
1533.828 8.62 8.58 8.6 8.58 8.63 8.71 8.73 8.79 8.86 8.96
1553.121 9.1 9.2 9.33 9.49 9.62 9.75 9.94 10.21 10.46 10.68
1572.415 10.81 10.93 11.07 11.11 11.06 10.95 10.84 10.78 10.72 10.8
1591.708 11.16 11.83 12.9 14.41 16.51 19.2 22.26 25.37 28.04 29.65
1611.002 29.9 28.75 26.36 22.84 18.8 14.82 11.25 8.51 6.69 5.56
1630.295 4.86 4.36 4.05 3.85 3.64 3.53 3.5 3.49 3.49 3.47
1649.588 3.5 3.59 3.69 3.71 3.78 3.93 4.07 4.21 4.28 4.38
1668.882 4.53 4.69 4.9 5.14 5.41 5.72 6.07 6.43 6.9 7.36
1688.175 7.92 8.61 9.32 10.12 11.1 12.09 13.09 14.19 15.28 16.6
1707.469 18.03 19.54 21.2 23.04 25.08 27.56 30.7 34.55 39.72 46.67
1726.762 55.78 67.2 80.86 95.85 112.28 127.58 139.86 147.8 147.9 139.24
1746.056 124.72 107.86 90.61 73.69 58.73 46.36 36.38 29.16 23.93 20.14
1765.349 17.41 15.35 13.65 12.23 11 9.93 9.01 8.28 7.68 7.18
1784.642 6.67 6.26 5.97 5.68 5.4 5.13 4.85 4.59 4.33 4.05
1803.936 3.77 3.5 3.3 3.13 2.95 2.77 2.65 2.55 2.45 2.3544
1823.229 2.2505 2.1416 2.0638 2.0242 1.9541 1.9221 1.9326 1.8872 1.853 1.8715
1842.523 1.8997 1.9123 1.898 1.9124 1.9154 1.8733 1.8867 1.9124 1.8859 1.9219
1861.816 1.9131 1.903 1.9156 1.8828 1.8734 1.8328 1.8487 1.8668 1.8408 1.8617
1881.110 1.866 1.8258 1.822 1.849 1.817 1.7906 1.7998 1.8471 1.8564 1.7931
1900.403 1.7632 1.7575 1.7698 1.7621 1.7633 1.7839 1.7487 1.7474 1.7621 1.7641
1919.696 1.7866 1.7643 1.7663 1.7759 1.7538 1.7452 1.7848 1.8191 1.8031 1.8398
1938.990 1.9151 1.9513 1.9671 1.9694 1.9735 1.977 1.9708 1.9167 1.8452 1.7765
1958.283 1.6909 1.5895 1.49987 1.41494 1.3476 1.3266 1.263 1.15 1.139 1.12
1977.577 1.041 1.025 0.997 1.015 1.016 0.991 0.992 0.979 0.977 1.002
1996.870 1.012 1.005 1.039 1.065 1.054 1.082 1.116 1.118 1.088 1.044
2016.164 1.076 1.101 1.105 1.109 1.12 1.131 1.102 1.1 1.139 1.17
2035.457 1.168 1.149 1.139 1.144 1.123 1.087 1.084 1.072 1.061 1.06
2054.750 1.044 1.04 1.042 1.081 1.102 1.09 1.117 1.145 1.169 1.178
2074.044 1.192 1.22 1.262 1.271 1.272 1.276 1.294 1.3361 1.3705 1.3789
2093.337 1.3637 1.3557 1.362 1.3641 1.315 1.255 1.214 1.21 1.161 1.127
2112.631 1.147 1.119 1.1 1.086 1.089 1.081 1.053 1.069 1.077 1.038
2131.924 1.014 1.007 1.002 1.002 0.99 0.99 0.997 0.974 0.931 0.905
2151.218 0.894 0.859 0.843 0.889 0.923 0.883 0.858 0.876 0.87 0.891
2170.511 0.919 0.917 0.906 0.924 0.919 0.879 0.9 0.888 0.833 0.802
2189.804 0.81 0.82 0.806 0.811 0.819 0.848 0.847 0.833 0.856 0.837
2209.098 0.832 0.859 0.863 0.849 0.866 0.906 0.923 0.918 0.923 0.934
2228.391 0.944 0.945 0.955 0.992 1.009 0.972 0.931 0.913 0.934 0.956
2247.685 0.931 0.92 0.938 0.955 0.933 0.887 0.857 0.874 0.865 0.845
2266.978 0.866 0.877 0.837 0.806 0.832 0.826 0.829 0.85 0.829 0.794
2286.272 0.764 0.792 0.825 0.785 0.767 0.815 0.846 0.802 0.796 0.876
2305.565 0.9 0.894 0.927 0.97 0.981 0.972 1.01 1.068 1.086 1.133
2324.858 1.181 1.189 1.233 1.282 1.3 1.279 1.255 1.234 1.214 1.199
2344.152 1.17 1.123 1.08 1.011 0.965 0.978 0.937 0.908 0.934 0.981
2363.445 0.958 0.934 0.918 0.903 0.943 0.946 0.932 0.952 0.984 1.009
2382.739 1.065 1.081 1.064 1.089 1.106 1.089 1.125 1.161 1.151 1.159
2402.032 1.167 1.148 1.159 1.193 1.193 1.208 1.191 1.178 1.219 1.209
2421.326 1.146 1.113 1.112 1.12 1.069 1.036 1.06 1.028 1.001 0.981
2440.619 0.941 0.968 0.95 0.898 0.936 0.974 0.949 0.963 1.002 0.978
2459.912 0.947 0.922 0.921 0.887 0.889 0.946 0.947 0.939 0.924 0.887
2479.206 0.886 0.871 0.845 0.862 0.887 0.875 0.844 0.88 0.886 0.85
2498.499 0.856 0.864 0.867 0.875 0.894 0.925 0.962 0.956 0.916 0.909
2517.793 0.922 0.899 0.833 0.798 0.812 0.792 0.775 0.792 0.818 0.829
2537.086 0.829 0.84 0.821 0.824 0.812 0.755 0.747 0.753 0.755 0.762
2556.380 0.725 0.665 0.667 0.694 0.666 0.661 0.652 0.633 0.664 0.643
2575.673 0.618 0.603 0.594 0.643 0.674 0.655 0.593 0.606 0.641 0.582
2594.966 0.571 0.573 0.548 0.571 0.584 0.595 0.608 0.585 0.576 0.631
2614.260 0.67 0.624 0.594 0.562 0.536 0.598 0.657 0.629 0.609 0.582
2633.553 0.549 0.606 0.62 0.588 0.607 0.6 0.573 0.606 0.616 0.61
2652.847 0.656 0.687 0.684 0.679 0.692 0.717 0.78 0.774 0.732 0.74
2672.140 0.795 0.849 0.877 0.901 0.849 0.81 0.782 0.802 0.844 0.816
2691.434 0.797 0.837 0.862 0.86 0.9 0.957 0.936 0.926 0.958 0.964
2710.727 0.99 1.029 1.045 1.091 1.17 1.24 1.305 1.3649 1.4059 1.49547
2730.020 1.628 1.6987 1.8683 2.0646 2.2154 2.3659 2.5 2.57 2.53 2.5
2749.314 2.44 2.3408 2.1877 2.0707 1.9648 1.8498 1.8199 1.7539 1.6296 1.6059
2768.607 1.6234 1.5683 1.50298 1.44907 1.41821 1.47924 1.5264 1.49056 1.46952 1.5551
2787.901 1.6298 1.6176 1.6539 1.7467 1.8362 1.8453 1.8627 1.9835 2.1071 2.1757
2807.194 2.2794 2.42 2.57 2.66 2.69 2.77 2.96 3.14 3.24 3.34
2826.488 3.42 3.57 3.8 3.97 4.07 4.29 4.55 4.85 5.29 5.58
2845.781 5.92 6.45 7.04 7.66 8.43 9.31 10.29 11.38 12.51 13.73
2865.074 14.98 16.16 17.18 18.02 18.56 18.92 19.15 19.18 19.04 18.81
2884.368 18.55 18.29 18.02 17.8 17.76 17.86 17.98 18.23 18.56 19.08
2903.661 19.87 20.73 21.66 22.62 23.63 24.82 26.24 27.92 29.86 32.09
2922.955 34.52 37.13 39.84 42.3 44.3 45.83 46.84 47.21 47 46.21
2942.248 44.74 42.82 40.56 38.08 35.8 33.86 32.14 30.93 30.29 30.11
2961.542 30.45 30.99 31.75 32.67 33.59 34.81 36.4 38.35 40.67 42.96
2980.835 44.83 46.2 46.88 46.57 45.37 43.44 41.01 38.58 36.42 34.65
3000.128 33.15 31.83 30.73 29.85 29.03 28.21 27.6 27.12 26.74 26.3
3019.422 25.81 25.32 24.61 23.91 23.16 22.24 21.23 20.26 19.46 18.68
3038.715 17.81 16.9 16.1 15.43 14.6 13.6 12.7 11.84 11.02 10.29
3058.009 9.45 8.68 8.03 7.45 7.02 6.59 6.2 5.79 5.56 5.44
3077.302 5.2 4.93 4.71 4.54 4.34 4.23 4.08 3.9 3.7 3.45
3096.596 3.23 3.03 2.88 2.72 2.53 2.4022 2.3849 2.2357 1.9568 1.9352
3115.889 1.9229 1.8584 1.8082 1.6695 1.5863 1.5486 1.44378 1.4224 1.3883 1.311
3135.182 1.176 1.134 1.181 1.098 1.116 1.093 1.055 0.957 0.831 0.801
3154.476 0.881 0.889 0.779 0.776 0.874 0.972 0.89 0.793 0.777 0.73
3173.769 0.748 0.768 0.64 0.615 0.708 0.651 0.595 0.624 0.587 0.577
3193.063 0.603 0.659 0.687 0.655 0.4 0.33 0.446 0.42 0.4 0.422
3212.356 0.467 0.509 0.446 0.29 0.34 0.445 0.33 0.23 0.26 0.24
3231.650 0.18 0.1 0.18 0.34 0.25 0.24 0.32 0.33 0.27 0.2
3250.943 0.18 0.12 0.2 0.27 0.22 0.16 0.12 0.24 0.11 0
3270.236 0.14 0.19 0.2 0.18 0.24 0.28 0.17 0.11 0.09 0.07
3289.530 0.17 0.21 0.17 0.19 0.14 0.11 0.17 0.17 0.14 0.1
3308.823 0.08 0.14 0.16 0.18 0.31 0.35 0.22 0.26 0.35 0.36
3328.117 0.433 0.423 0.27 0.17 0.25 0.33 0.33 0.37 0.4 0.26
3347.410 0.17 0.27 0.35 0.3 0.22 0.21 0.23 0.34 0.4 0.34
3366.704 0.25 0.28 0.34 0.21 0.24 0.32 0.23 0.34 0.441 0.35
3385.997 0.39 0.4 0.465 0.457 0.4 0.427 0.439 0.483 0.577 0.629
3405.290 0.477 0.4 0.38 0.37 0.43 0.459 0.497 0.578 0.579 0.609
3424.584 0.751 0.717 0.702 0.851 0.799 0.768 0.904 0.977 0.92 0.919
3443.877 1.063 1.12 1.145 1.229 1.282 1.3528 1.41061 1.3714 1.3 1.43944
3463.171 1.5659 1.5427 1.51619 1.32 1.148 1.081 1.096 1.113 1.048 0.869
3482.464 0.72 0.755 0.835 0.816 0.765 0.774 0.638 0.611 0.712 0.623
3501.758 0.513 0.589 0.671 0.56 0.498 0.532 0.561 0.571 0.573 0.58
3521.051 0.517 0.554 0.619 0.565 0.546 0.534 0.551 0.485 0.443 0.539
3540.344 0.444 0.27 0.33 0.527 0.565 0.495 0.41 0.437 0.476 0.449
3559.638 0.494 0.547 0.497 0.437 0.461 0.41 0.34 0.26 0.28 0.29
3578.931 0.33 0.41 0.4 0.456 0.516 0.514 0.469 0.434 0.426 0.39
3598.225 0.39 0.516 0.606 0.526 0.493 0.545 0.481 0.42 0.433 0.487
3617.518 0.514 0.569 0.514 0.37 0.3 0.31 0.483 0.457 0.38 0.465
3636.812 0.483 0.546 0.615 0.554 0.504 0.432 0.424 0.504 0.488 0.478
3656.105 0.481 0.44 0.437 0.488 0.495 0.531 0.457 0.41 0.446 0.486
3675.398 0.551 0.523 0.427 0.484 0.562 0.437 0.439 0.49 0.4 0.43
3694.692 0.474 0.512 0.532 0.529 0.557 0.524 0.463 0.4 0.469 0.495
3713.985 0.439 0.424 0.42 0.519 0.591 0.536 0.504 0.574 0.62 0.583
3733.279 0.635 0.683 0.614 0.591 0.624 0.643 0.767 0.741 0.615 0.66
3752.572 0.644 0.62 0.503 0.453 0.546 0.576 0.524 0.41 0.54 0.633
3771.866 0.571 0.531 0.532 0.644 0.666 0.673 0.68 0.657 0.591 0.587
3791.159 0.585 0.471 0.455 0.567 0.65 0.628 0.618 0.571 0.596 0.711
3810.452 0.684 0.651 0.62 0.719 0.774 0.692 0.686 0.692 0.71 0.682
3829.746 0.621 0.608 0.652 0.662 0.624 0.716 0.728 0.6 0.661 0.622
3849.039 0.665 0.767 0.721 0.688 0.729 0.783 0.687 0.725 0.834 0.817
3868.333 0.787 0.647 0.593 0.631 0.641 0.732 0.766 0.799 0.834 0.771
3887.626 0.724 0.739 0.727 0.756 0.872 0.895 0.78 0.774 0.841 0.802
3906.920 0.81 0.815 0.801 0.769 0.833 0.943 0.928 0.832 0.806 0.883
3926.213 0.9 0.868 0.812 0.876 0.974 0.977 0.912 0.912 0.955 0.957
3945.506 0.974 1.004 0.959 0.898 0.918 0.964 1.006 1.023 1.085 1.129
3964.800 1.148 1.109 1.021 1.038 1.028 1.047 1.054 1.009 1.09 1.071
3984.093 1.027 1.007 0.936 0.973 1.041 1.042 0.983 1.009 1.022
##END=
