##TITLE=N-Chloromethylphthalimide
##JCAMP-DX=4.24
##DATA TYPE=INFRARED SPECTRUM
##ORIGIN=EPA-IR VAPOR PHASE LIBRARY
##OWNER=SRD/NIST
Collection (C) 2018 copyright by the U.S. Secretary of Commerce
on behalf of the United States of America. All rights reserved.
##CAS REGISTRY NO=17564-64-6
##MOLFORM=C 9 H 6 Cl N O 2
##$NIST SOURCE=MSDC-IR
##STATE=gas
##XUNITS=1/CM
##YUNITS=ABSORBANCE
##XFACTOR=1.
##YFACTOR=0.001
##DELTAX=1.929
##FIRSTX=549.8
##LASTX=4000.8
##FIRSTY=2.535
##MAXX=4000.75
##MINX=549.766
##MAXY=0.199725
##MINY=0
##NPOINTS=1790
##XYDATA=(X++(Y..Y))
549.766 2.535 2.165 2.025 1.995 1.825 1.5062 1.3745 1.4612 1.2873 1.0791
569.056 0.9105 0.75606 0.74344 1.0042 1.2091 1.1684 1.2341 1.7079 2.275 2.655
588.346 3.135 3.725 4.455 5.315 6.335 7.915 9.375 10.025 10.385 10.385
607.636 9.865 9.055 7.435 5.495 4.005 2.805 1.995 1.7143 1.6039 1.4247
626.926 1.6432 1.835 1.6395 1.6999 1.945 2.015 1.745 1.4709 1.4846 1.429
646.216 1.212 1.3107 1.3466 1.137 1.1947 1.22 1.3321 1.2926 1.1426 1.2947
665.506 1.3088 1.2535 1.4847 1.6755 1.765 1.965 2.165 2.505 3.125 3.995
684.796 5.085 6.455 8.065 9.605 10.805 11.505 11.765 11.785 11.365 10.595
704.086 9.685 8.985 8.965 9.855 11.905 14.945 19.075 24.405 30.335 36.735
723.376 43.755 51.155 58.285 61.595 57.065 49.075 42.105 35.045 28.045 21.855
742.666 16.675 12.775 10.095 8.195 6.905 6.005 5.245 4.655 3.975 3.325
761.956 3.065 2.975 2.735 2.605 2.695 2.835 2.945 3.065 3.145 3.295
781.246 3.265 3.045 2.995 2.855 2.605 2.275 1.905 1.6619 1.5445 1.4031
800.536 1.1641 0.9681 0.9717 0.8558 0.71569 0.80422 0.6393 0.52 0.582 0.6379
819.826 0.7062 0.725162 0.8598 0.8954 0.8636 1.0107 1.0766 1.0099 1.167 1.3759
839.116 1.3926 1.4855 1.5062 1.4546 1.5512 1.4728 1.2851 1.2068 1.1383 1.0078
858.406 0.882 0.8695 0.9449 0.957 1.0322 1.1114 1.0957 1.0505 1.0159 0.9686
877.696 0.878 0.8964 0.8858 0.76877 0.74379 0.8864 0.944 0.8889 0.9019 0.9978
896.986 1.1588 1.2796 1.4521 1.775 2.025 2.415 3.095 3.915 4.935 6.285
916.276 8.145 10.405 13.065 16.135 19.355 22.515 25.205 26.985 27.705 27.065
935.566 25.685 24.135 21.455 17.495 13.495 10.275 7.775 5.915 4.595 3.695
954.856 3.215 3.015 2.815 2.505 2.245 2.265 2.385 2.425 2.405 2.405
974.146 2.415 2.375 2.315 2.265 2.155 2.015 1.865 1.5695 1.3522 1.2659
993.436 1.1546 1.0364 1.0111 1.0896 1.1354 1.1644 1.3618 1.5681 1.5992 1.6526
1012.726 1.6896 1.7047 1.643 1.5573 1.4922 1.4667 1.5741 1.5385 1.4753 1.5436
1032.016 1.6885 1.835 1.865 1.775 1.785 1.775 1.735 1.855 1.985 2.155
1051.306 2.325 2.495 2.875 3.355 3.915 4.545 5.145 5.835 6.705 7.635
1070.596 8.625 9.835 11.195 12.735 14.315 15.745 16.895 17.495 17.855 18.405
1089.886 18.565 17.645 15.985 14.205 12.545 10.965 9.385 7.625 6.055 4.695
1109.176 3.565 2.985 2.465 2.085 1.865 1.7133 1.6571 1.6205 1.5541 1.4987
1128.467 1.5676 1.5419 1.4944 1.5302 1.5591 1.6289 1.7102 1.695 1.805 1.955
1147.757 2.055 2.195 2.395 2.605 2.685 2.725 2.775 2.915 3.015 2.945
1167.047 2.935 3.095 3.175 3.235 3.305 3.405 3.495 3.445 3.455 3.615
1186.337 3.855 3.955 4.025 4.055 4.055 3.925 3.605 3.195 2.765 2.625
1205.627 2.675 2.635 2.495 2.335 2.265 2.295 2.345 2.335 2.195 2.195
1224.917 2.355 2.485 2.725 2.865 2.855 2.955 3.125 3.335 3.585 3.705
1244.207 3.875 4.115 4.305 4.535 4.765 4.915 4.975 4.915 4.815 4.685
1263.497 4.535 4.585 4.805 5.215 5.865 6.845 8.135 9.845 12.095 14.935
1282.787 18.745 23.885 30.445 38.625 48.475 59.505 70.785 81.255 89.225 93.125
1302.077 92.415 87.045 77.975 66.565 54.245 42.655 32.735 24.555 18.185 13.705
1321.367 10.735 8.925 7.825 7.095 6.765 6.715 6.895 7.405 8.255 9.405
1340.657 10.785 12.455 14.555 17.025 19.775 22.795 26.045 29.695 33.825 38.475
1359.947 43.845 50.165 57.615 66.165 75.735 85.625 94.605 101.555 105.455 105.835
1379.237 102.475 95.685 85.925 74.505 62.405 50.995 41.635 34.385 28.925 25.035
1398.527 22.295 20.165 18.495 16.885 15.185 13.455 11.895 10.715 10.035 9.955
1417.817 10.615 12.095 14.375 17.415 20.405 22.335 23.515 24.005 23.485 21.995
1437.107 19.165 15.775 12.675 10.315 8.655 7.525 6.865 6.445 6.255 6.275
1456.397 6.455 6.595 6.715 6.905 7.185 7.355 7.195 6.875 6.675 6.475
1475.687 5.935 5.115 4.405 3.855 3.365 2.985 2.755 2.565 2.265 2.055
1494.977 2.085 2.045 1.935 1.895 1.835 1.895 1.975 1.905 1.835 1.865
1514.267 1.935 1.995 2.005 2.035 1.975 1.855 1.725 1.5909 1.5088 1.5183
1533.557 1.5427 1.4523 1.4782 1.539 1.4574 1.3531 1.3223 1.3796 1.3949 1.3834
1552.847 1.4396 1.4658 1.5274 1.684 1.6038 1.5506 1.6882 1.775 1.855 1.975
1572.137 2.015 2.125 2.355 2.535 2.685 2.845 2.935 3.005 3.055 3.025
1591.427 2.985 2.885 2.805 2.775 2.775 2.895 2.975 3.075 3.265 3.475
1610.717 3.675 3.825 3.945 3.975 3.875 3.735 3.595 3.345 3.065 2.735
1630.007 2.345 2.105 2.025 1.925 1.755 1.6114 1.5799 1.6382 1.6707 1.6666
1649.297 1.6663 1.785 1.955 1.895 1.825 1.955 2.135 2.245 2.305 2.405
1668.587 2.565 2.645 2.705 2.885 3.045 3.115 3.175 3.375 3.605 3.555
1687.877 3.505 3.535 3.615 3.705 3.765 3.815 3.995 4.085 4.185 4.545
1707.167 4.915 5.385 6.115 7.005 7.925 8.885 9.735 10.565 11.925 13.975
1726.457 16.605 20.105 25.415 33.405 45.315 60.835 80.155 105.545 134.135 163.585
1745.747 186.965 198.065 198.375 198.325 199.725 188.715 158.705 123.405 91.975 67.255
1765.037 49.585 37.115 28.675 23.705 20.715 18.885 17.885 17.425 17.385 17.745
1784.327 18.665 20.285 22.695 25.765 28.925 31.215 32.005 31.405 29.665 26.995
1803.617 23.315 18.735 14.265 10.905 8.755 7.485 6.575 5.815 5.185 4.715
1822.907 4.305 3.925 3.675 3.425 3.125 2.955 2.895 2.845 2.775 2.715
1842.197 2.715 2.685 2.585 2.515 2.435 2.355 2.265 2.175 2.085 1.925
1861.487 1.865 1.855 1.925 1.975 1.965 1.975 1.985 2.055 2.155 2.125
1880.777 2.145 2.225 2.225 2.265 2.325 2.315 2.265 2.325 2.415 2.395
1900.067 2.355 2.395 2.495 2.515 2.515 2.505 2.435 2.385 2.335 2.255
1919.357 2.125 1.995 1.875 1.765 1.6992 1.6593 1.735 1.775 1.785 1.785
1938.647 1.755 1.805 1.845 1.815 1.755 1.6979 1.649 1.5381 1.4674 1.4557
1957.937 1.3692 1.2877 1.3171 1.3698 1.378 1.3984 1.4094 1.4238 1.4594 1.4431
1977.227 1.3501 1.2364 1.1867 1.1017 1.0275 1.0011 0.9758 0.9701 0.9322 0.9064
1996.517 0.9209 0.9009 0.8726 0.8483 0.8488 0.8602 0.8525 0.9291 0.9425 0.8737
2015.807 0.8484 0.8745 0.9069 0.8825 0.8793 0.8474 0.76296 0.72029 0.64 0.6284
2035.097 0.6936 0.6943 0.6428 0.591 0.581 0.579 0.559 0.6295 0.75054 0.78561
2054.387 0.73938 0.71966 0.78025 0.80791 0.8371 0.79842 0.76687 0.81175 0.78691 0.74242
2073.677 0.74489 0.78211 0.81553 0.81347 0.78838 0.78326 0.78548 0.81709 0.80901 0.79291
2092.967 0.8017 0.8603 0.8759 0.79637 0.7954 0.75961 0.718 0.677 0.616 0.613
2112.257 0.6441 0.6452 0.6576 0.6667 0.624 0.62 0.6926 0.71872 0.676 0.6482
2131.547 0.6793 0.7065 0.71 0.7556 0.78518 0.81567 0.79914 0.8297 0.8762 0.79901
2150.837 0.77242 0.8092 0.79967 0.82283 0.8409 0.8954 1.012 0.9309 0.82222 0.889
2170.127 0.931 0.9472 0.9603 0.9875 0.9618 0.8879 0.8572 0.8441 0.8311 0.77107
2189.417 0.7095 0.672 0.6863 0.6994 0.6861 0.667 0.6978 0.74062 0.74444 0.74897
2208.707 0.72039 0.74141 0.715 0.7059 0.78115 0.81885 0.77433 0.75355 0.834 0.8402
2227.997 0.80324 0.8298 0.8255 0.77954 0.75112 0.77644 0.8279 0.81744 0.77616 0.7049
2247.287 0.6595 0.6759 0.6796 0.71865 0.74165 0.7083 0.7132 0.77507 0.82363 0.79413
2266.577 0.8306 0.8699 0.8412 0.835 0.851 0.8254 0.8442 0.8841 0.8915 0.9296
2285.868 0.9402 0.883 0.8683 0.8694 0.9237 0.9651 0.937 0.9275 0.8902 0.9
2305.158 0.9342 0.9335 0.9071 0.9366 1.0158 1.0595 1.0391 0.9843 1.0305 1.0423
2324.448 0.9656 0.9215 0.8887 0.9264 0.9595 0.9464 0.8787 0.9319 0.9662 1.0156
2343.738 1.1201 1.0953 1.0912 1.1361 1.2029 1.2289 1.257 1.2346 1.2188 1.1914
2363.028 1.1392 1.0876 0.9877 0.9437 0.9165 0.8393 0.80696 0.78338 0.74705 0.71522
2382.318 0.6801 0.6901 0.7144 0.7032 0.725263 0.6941 0.61 0.592 0.592 0.612
2401.608 0.6339 0.6747 0.6445 0.6297 0.6423 0.569 0.54 0.571 0.509 0.474
2420.898 0.542 0.523 0.487 0.531 0.557 0.604 0.613 0.6287 0.6746 0.6969
2440.188 0.730025 0.73591 0.79032 0.80514 0.8134 0.8456 0.8647 0.943 1.0265 1.0234
2459.478 0.9576 0.8978 0.8374 0.80244 0.80696 0.75976 0.731402 0.7674 0.74936 0.7083
2478.768 0.624 0.567 0.612 0.612 0.57 0.513 0.528 0.575 0.581 0.529
2498.058 0.458 0.487 0.535 0.487 0.477 0.533 0.542 0.486 0.369 0.415
2517.348 0.492 0.432 0.38 0.372 0.442 0.504 0.502 0.505 0.487 0.435
2536.638 0.425 0.448 0.5 0.482 0.447 0.46 0.43 0.445 0.48 0.431
2555.928 0.398 0.473 0.523 0.443 0.379 0.4 0.428 0.407 0.393 0.37
2575.218 0.334 0.31 0.312 0.272 0.271 0.34 0.346 0.349 0.367 0.404
2594.508 0.336 0.251 0.232 0.239 0.276 0.297 0.326 0.318 0.305 0.288
2613.798 0.348 0.331 0.285 0.331 0.311 0.319 0.391 0.461 0.471 0.495
2633.088 0.505 0.473 0.49 0.402 0.351 0.349 0.325 0.402 0.423 0.433
2652.378 0.47 0.469 0.526 0.572 0.592 0.6288 0.569 0.545 0.6255 0.6598
2671.668 0.65 0.6712 0.6815 0.7365 0.74933 0.6511 0.648 0.6619 0.6877 0.6922
2690.958 0.6514 0.625 0.566 0.522 0.513 0.595 0.449 0.279 0.339 0.415
2710.248 0.459 0.378 0.255 0.269 0.334 0.344 0.345 0.352 0.352 0.324
2729.538 0.307 0.282 0.285 0.312 0.294 0.242 0.226 0.169 0.11 0.121
2748.828 0.081 0 0.039 0.151 0.16 0.129 0.184 0.268 0.286 0.261
2768.118 0.168 0.234 0.375 0.363 0.291 0.303 0.378 0.405 0.415 0.409
2787.408 0.348 0.286 0.313 0.331 0.301 0.288 0.282 0.279 0.296 0.347
2806.698 0.354 0.312 0.31 0.255 0.23 0.25 0.243 0.207 0.144 0.13
2825.988 0.204 0.347 0.386 0.306 0.257 0.219 0.208 0.251 0.238 0.264
2845.278 0.173 0.16 0.32 0.245 0.142 0.172 0.214 0.241 0.231 0.226
2864.568 0.225 0.284 0.328 0.251 0.184 0.167 0.146 0.116 0.146 0.161
2883.858 0.171 0.215 0.304 0.249 0.128 0.192 0.237 0.2 0.249 0.358
2903.148 0.32 0.229 0.168 0.148 0.276 0.318 0.278 0.433 0.519 0.534
2922.438 0.522 0.495 0.511 0.509 0.503 0.44 0.341 0.218 0.162 0.205
2941.728 0.249 0.331 0.372 0.325 0.372 0.377 0.254 0.253 0.375 0.451
2961.018 0.372 0.361 0.416 0.497 0.6316 0.79757 1.0434 1.3079 1.6527 2.005
2980.308 2.325 2.645 2.875 3.185 3.425 3.275 2.905 2.455 2.065 1.66
2999.598 1.2552 0.9173 0.629 0.457 0.356 0.333 0.374 0.377 0.315 0.236
3018.888 0.212 0.283 0.4 0.479 0.591 0.6658 0.6319 0.74812 0.9541 0.9806
3038.178 0.9945 1.1597 1.331 1.4198 1.5251 1.6026 1.6289 1.835 2.035 2.155
3057.468 2.355 2.525 2.575 2.545 2.505 2.455 2.445 2.555 2.665 2.785
3076.758 2.925 3.115 3.585 3.945 4.175 4.335 4.375 4.325 3.925 3.465
3096.048 2.955 2.325 1.975 1.6867 1.3939 1.0995 0.8725 0.77761 0.6515 0.579
3115.338 0.422 0.287 0.221 0.216 0.243 0.265 0.356 0.358 0.196 0.106
3134.628 0.164 0.135 0.194 0.254 0.191 0.195 0.2 0.144 0.156 0.179
3153.918 0.291 0.41 0.367 0.302 0.258 0.308 0.313 0.203 0.264 0.337
3173.208 0.23 0.155 0.058 0.088 0.284 0.373 0.417 0.357 0.309 0.35
3192.498 0.333 0.424 0.391 0.317 0.32 0.202 0.233 0.352 0.424 0.519
3211.788 0.438 0.421 0.416 0.322 0.349 0.382 0.387 0.317 0.293 0.349
3231.078 0.421 0.438 0.345 0.424 0.497 0.398 0.381 0.323 0.185 0.238
3250.368 0.329 0.272 0.273 0.311 0.418 0.467 0.376 0.368 0.354 0.271
3269.658 0.28 0.303 0.24 0.282 0.387 0.267 0.172 0.37 0.442 0.416
3288.948 0.397 0.294 0.286 0.386 0.452 0.34 0.25 0.307 0.346 0.306
3308.238 0.31 0.482 0.6607 0.469 0.221 0.293 0.431 0.422 0.288 0.221
3327.528 0.264 0.303 0.371 0.514 0.566 0.421 0.337 0.341 0.322 0.279
3346.818 0.39 0.524 0.373 0.288 0.339 0.334 0.316 0.388 0.411 0.299
3366.108 0.326 0.517 0.619 0.449 0.394 0.523 0.582 0.494 0.408 0.554
3385.398 0.51 0.328 0.322 0.437 0.407 0.37 0.395 0.444 0.395 0.347
3404.688 0.388 0.479 0.542 0.416 0.3 0.289 0.387 0.405 0.397 0.523
3423.978 0.546 0.53 0.545 0.493 0.559 0.615 0.676 0.72684 0.6726 0.582
3443.269 0.46 0.393 0.493 0.599 0.602 0.613 0.6626 0.606 0.58 0.569
3462.559 0.598 0.6635 0.601 0.545 0.543 0.6374 0.74594 0.79217 0.726711 0.643
3481.849 0.71628 0.9367 1.1403 1.2032 0.9455 0.8521 1.0407 1.119 1.1484 1.0626
3501.139 1.0476 1.157 1.2149 1.3949 1.5328 1.5798 1.5779 1.6732 1.975 2.175
3520.429 2.255 2.325 2.475 2.515 2.665 2.795 2.615 2.395 2.305 2.185
3539.719 1.965 1.825 1.6417 1.2597 1.1317 1.0817 0.78387 0.6443 0.7646 0.8701
3559.009 0.74864 0.6609 0.77013 0.75437 0.595 0.6602 0.79558 0.75963 0.6915 0.675
3578.299 0.71839 0.6611 0.577 0.6763 0.8278 0.81665 0.72102 0.6385 0.6416 0.548
3597.589 0.368 0.374 0.599 0.71637 0.592 0.527 0.6333 0.6309 0.495 0.488
3616.879 0.522 0.592 0.532 0.424 0.505 0.623 0.575 0.591 0.61 0.6392
3636.169 0.74155 0.6751 0.545 0.407 0.452 0.608 0.74851 0.75355 0.561 0.533
3655.459 0.6869 0.564 0.567 0.631 0.482 0.466 0.585 0.77382 0.7823 0.714
3674.749 0.7084 0.6345 0.487 0.496 0.583 0.573 0.61 0.729521 0.618 0.512
3694.039 0.596 0.671 0.6829 0.74063 0.668 0.558 0.505 0.556 0.6846 0.592
3713.329 0.6936 0.6666 0.553 0.476 0.435 0.496 0.512 0.6547 0.734579 0.7115
3732.619 0.6469 0.573 0.509 0.483 0.418 0.431 0.595 0.6359 0.7003 0.6654
3751.909 0.516 0.47 0.425 0.489 0.495 0.574 0.558 0.486 0.565 0.6431
3771.199 0.622 0.54 0.537 0.444 0.564 0.6727 0.568 0.597 0.6299 0.6749
3790.489 0.624 0.527 0.7125 0.75325 0.74951 0.75081 0.75974 0.82454 0.6949 0.554
3809.779 0.468 0.488 0.574 0.6728 0.76909 0.7143 0.7128 0.71514 0.562 0.583
3829.069 0.75334 0.7138 0.553 0.587 0.6 0.6689 0.72089 0.78308 0.81784 0.6512
3848.359 0.543 0.551 0.7057 0.72188 0.7095 0.64 0.424 0.476 0.499 0.489
3867.649 0.551 0.546 0.62 0.6516 0.618 0.532 0.481 0.495 0.383 0.363
3886.939 0.565 0.726463 0.6725 0.6261 0.617 0.453 0.496 0.6398 0.553 0.476
3906.229 0.574 0.6327 0.589 0.521 0.54 0.631 0.607 0.666 0.652 0.523
3925.519 0.602 0.6291 0.56 0.544 0.62 0.542 0.5 0.607 0.574 0.504
3944.809 0.528 0.548 0.548 0.519 0.459 0.488 0.453 0.463 0.444 0.433
3964.099 0.483 0.414 0.461 0.582 0.521 0.484 0.584 0.57 0.439 0.351
3983.389 0.453 0.633 0.725135 0.732034 0.608 0.554 0.413 0.404 0.46 0.428
##END=
