##TITLE=3-Methylcyclopentanone
##JCAMP-DX=4.24
##DATA TYPE=INFRARED SPECTRUM
##ORIGIN=NIST Mass Spectrometry Data Center
##OWNER=NIST Standard Reference Data Program
Collection (C) 2018 copyright by the U.S. Secretary of Commerce
on behalf of the United States of America. All rights reserved.
##CAS REGISTRY NO=1757-42-2
##MOLFORM=C 6 H 10 O
##$NIST SOURCE=MSDC-IR
##SPECTROMETER/DATA SYSTEM=HP-GC/MS/IRD
##STATE=gas
##XUNITS=1/CM
##YUNITS=ABSORBANCE
##XFACTOR=1.0
##YFACTOR=0.000002400
##DELTAX=4.0
##FIRSTX=550.0
##LASTX=3846.0
##FIRSTY=0.000278
##MAXX=3846
##MINX=550
##MAXY=0.024
##MINY=0
##NPOINTS=825
##XYDATA=(X++(Y..Y))
550.0 116 100 57 45 72 82 88 112 127 119
590.0 121 105 63 35 24 20 28 19 13 32
630.0 35 26 35 38 31 37 26 25 39 29
670.0 35 46 34 34 30 2 2 12 21 41
710.0 65 71 67 79 93 97 103 114 93 66
750.0 64 58 45 50 48 41 53 68 87 114
790.0 138 150 155 140 123 118 116 92 71 60
830.0 38 35 40 42 49 61 72 91 109 121
870.0 130 153 164 154 142 136 125 104 87 71
910.0 78 94 101 105 113 115 103 93 89 89
950.0 80 77 70 64 74 90 104 115 124 132
990.0 150 159 146 130 129 134 137 147 150 137
1030.0 141 160 170 178 200 228 256 286 305 306
1070.0 291 278 264 245 217 195 188 200 218 249
1110.0 304 391 505 648 836 1091 1414 1749 2036 2167
1150.0 2184 2149 2024 1770 1423 1079 816 623 491 397
1190.0 329 288 267 247 234 223 222 253 293 334
1230.0 370 381 379 396 402 367 320 288 270 262
1270.0 269 277 289 300 308 313 312 313 311 299
1310.0 272 243 229 224 212 213 226 245 258 246
1350.0 239 235 238 233 221 245 291 341 414 462
1390.0 508 580 646 722 800 833 814 812 798 729
1430.0 625 530 462 431 434 455 472 497 526 532
1470.0 478 418 368 311 252 196 156 121 94 86
1510.0 72 58 50 50 54 45 40 45 46 43
1550.0 39 42 42 36 45 48 52 60 64 64
1590.0 61 70 77 83 81 87 95 88 79 80
1630.0 85 91 89 90 100 108 121 141 158 174
1670.0 202 229 252 278 300 317 339 371 404 450
1710.0 513 591 691 833 1053 1388 1910 2713 3887 5417
1750.0 7109 8577 9535 10000 9917 9310 8167 6224 4037 2452
1790.0 1558 1063 767 588 476 403 357 330 298 265
1830.0 240 218 198 181 168 154 133 123 118 104
1870.0 92 82 79 77 69 63 57 49 45 43
1910.0 38 32 25 26 28 23 24 27 28 29
1950.0 31 30 31 32 31 32 28 27 32 28
1990.0 25 25 24 26 22 21 24 28 32 34
2030.0 32 34 32 27 19 16 16 14 12 9
2070.0 8 9 12 15 9 4 11 9 3 3
2110.0 0 5 11 13 11 9 14 12 14 20
2150.0 18 16 16 12 11 14 12 8 14 17
2190.0 20 25 24 25 27 26 25 26 20 15
2230.0 12 12 10 4 4 7 8 11 14 14
2270.0 15 18 19 22 23 23 25 20 13 13
2310.0 13 8 6 4 5 7 10 15 12 13
2350.0 15 15 15 17 10 12 15 11 12 5
2390.0 2 9 16 19 19 16 10 8 11 12
2430.0 11 11 12 13 15 19 17 20 27 21
2470.0 12 14 15 12 12 8 9 14 13 6
2510.0 7 5 1 3 0 0 5 8 6 6
2550.0 6 9 10 12 16 17 21 25 23 23
2590.0 21 24 21 18 23 24 24 22 20 24
2630.0 25 28 29 23 31 28 22 23 25 22
2670.0 13 11 21 28 30 27 25 31 32 26
2710.0 20 26 37 43 38 39 58 68 71 77
2750.0 76 74 74 73 65 60 64 60 60 71
2790.0 74 83 97 115 142 167 181 186 192 192
2830.0 198 213 227 245 276 333 425 560 747 958
2870.0 1194 1407 1577 1707 1790 1841 1867 1863 1836 1820
2910.0 1840 1904 1984 2095 2234 2359 2515 2748 3032 3429
2950.0 3947 4471 4911 5221 5149 4931 4577 3769 2849 2070
2990.0 1452 986 662 450 330 262 217 186 172 164
3030.0 157 161 164 155 147 140 130 123 120 114
3070.0 103 94 94 87 72 64 63 62 55 52
3110.0 49 50 52 45 40 39 39 43 45 39
3150.0 32 31 29 25 40 45 37 45 48 39
3190.0 33 35 35 31 31 20 18 19 12 7
3230.0 3 3 5 7 10 6 0 10 14 12
3270.0 16 16 8 4 3 8 21 22 11 1
3310.0 2 6 7 4 6 15 7 4 12 12
3350.0 5 5 10 10 13 13 14 16 15 14
3390.0 27 38 30 20 21 34 31 19 22 29
3430.0 36 32 29 39 40 16 17 28 35 51
3470.0 53 58 81 92 109 144 167 192 212 211
3510.0 219 201 177 167 130 94 75 69 58 46
3550.0 51 46 35 39 39 24 24 33 23 23
3590.0 25 17 16 26 35 33 23 19 24 17
3630.0 11 22 29 18 18 19 14 15 17 21
3670.0 17 22 23 17 22 21 19 20 16 16
3710.0 19 23 20 7 5 12 13 11 18 19
3750.0 28 36 34 22 22 29 21 24 30 23
3790.0 13 14 16 6 0 22 28 25 27 24
3830.0 21 15 23 29 24
##END=
