##TITLE=3-Methoxythiophene
##JCAMP-DX=4.24
##DATA TYPE=INFRARED SPECTRUM
##ORIGIN=EPA-IR VAPOR PHASE LIBRARY
##OWNER=SRD/NIST
Collection (C) 2018 copyright by the U.S. Secretary of Commerce
on behalf of the United States of America. All rights reserved.
##CAS REGISTRY NO=17573-92-1
##MOLFORM=C 5 H 6 O S
##$NIST SOURCE=MSDC-IR
##STATE=gas
##XUNITS=1/CM
##YUNITS=ABSORBANCE
##XFACTOR=1.
##YFACTOR=0.001
##DELTAX=1.92898
##FIRSTX=549.8
##LASTX=4000.7
##FIRSTY=4.11
##MAXX=4000.7
##MINX=549.759
##MAXY=0.12859
##MINY=0
##NPOINTS=1790
##XYDATA=(X++(Y..Y))
549.759 4.11 3.94 4.74 4.57 4.01 4.31 5.47 5.24 4 3.87
569.049 4.29 4.36 4.35 4.16 3.79 3.23 3.25 3.64 3.48 3.66
588.339 3.48 3.47 4.05 4.93 5.99 5.91 5.67 5.76 6.37 8.13
607.628 9.19 9.64 10.4 11.41 11.75 13.25 15.56 16.18 16.74 16
626.918 15.33 15.61 15.65 16.02 16.41 16.94 17.11 16.9 16.91 16.83
646.208 17.07 18.2 18.96 18.65 18.43 17.94 16.61 15.9 15.18 14.08
665.498 13.54 12.67 11.35 10.18 8.93 7.9 7.13 6.48 5.92 4.85
684.787 4.22 4.3 3.65 3.19 2.9 2.99 3.56 3.37 3.22 3.35
704.077 3.21 3.11 3.36 3.79 4.34 4.68 5.56 6.88 8.05 9.27
723.367 10.97 13.16 15.66 17.83 20.49 23.84 26.81 29.42 31.99 35
742.657 38.31 42.55 49.05 58.94 66.79 64.91 58.89 55.22 52.69 51.55
761.947 50.98 49.88 47.94 45.26 42.06 38.06 34.32 30.63 27.14 23.96
781.236 20.52 18.23 16 13.51 11.83 10.39 9.19 8.38 7.76 6.37
800.526 5.52 4.95 4.34 4.44 4.46 4.44 5 5.59 5.74 7.05
819.816 8.64 9.84 10.88 10.72 10.42 10.5 9.99 9.88 10.79 11.16
839.106 10.31 9.28 8.38 7.37 7.11 7.74 8.58 9.38 9.36 9.79
858.395 11.11 11.32 11.42 12.23 13.14 13.48 12.92 12.59 12.74 12.63
877.685 12.41 11.61 10.31 8.79 7.6 6.26 4.88 4.4 4.54 4.48
896.975 4 4.1 4.29 4.15 4.06 4.35 4.47 5.1 6.03 6.62
916.265 7.66 8.73 9.77 11.38 12.66 13.19 13.49 13.73 13.71 13.47
935.555 13.58 13.39 13.17 12.62 11.26 9.66 7.83 6.16 5.33 5.13
954.844 4.16 3.49 3.68 3.78 4.02 3.88 3.54 3.7 4.03 4.17
974.134 4.16 4.43 3.99 3.74 4.21 4.25 3.91 4.36 4.65 4.82
993.424 5.28 5.21 5.57 6.08 6.95 7.58 7.81 9.37 11.25 12.53
1012.714 14.29 17.2 20.44 23.72 27.45 30.79 34.46 37.5 39.93 42.62
1032.003 44.87 46.48 48.15 49.41 48.34 46.64 43.93 40.74 38.7 37.18
1051.293 35.18 32.52 29.71 27.1 24.24 20.75 19.21 19.88 20.86 21.89
1070.583 22.11 21.89 21.27 19.7 19.1 19.68 18.83 17.13 16.05 13.63
1089.873 11.76 10.78 9.6 7.66 6.14 6.28 6.01 5.14 4.39 4.64
1109.163 4.16 3.22 4.13 4.63 3.6 2.85 2.54 3.07 3.92 4.43
1128.452 5.26 5.36 5.33 6.87 8.47 10.44 13.29 17.12 21.47 25.01
1147.742 29.01 35.19 39.98 42.05 44.47 45.3 46.31 48.84 50.99 51.27
1167.032 50.2 48.21 44.18 38.55 33.36 29.79 26.91 24.24 21.86 19.9
1186.322 19.3 20.14 20.94 21.93 24.2 27.43 29.14 29.22 29.15 28.96
1205.611 28.37 27.39 26.41 26.55 25.78 25.65 27.79 28.62 29.76 32.9
1224.901 36.13 39.91 44.41 48.92 54.31 58.3 59.02 59.17 60.21 60.66
1244.191 59.73 58.46 56.96 52.85 46.11 39.1 32.25 26.27 21.74 18.69
1263.481 16.25 14.54 13.78 13.37 12.82 11.46 10.22 9.73 9.04 8.44
1282.771 7.67 7.02 6.74 6.23 6.27 6.56 6.27 5.41 5.45 5.45
1302.060 5.18 5.34 5.42 5.67 5.61 5.13 5.03 4.87 4.57 4.35
1321.350 4.14 4.21 4.19 4.05 3.92 3.67 3.65 3.55 3.21 3.14
1340.640 3.04 3.03 3.32 3.55 3.88 4.34 5.01 5.77 6.73 7.84
1359.930 9.01 10.8 12.99 15.54 18.91 23.1 28.32 34.56 41.6 49.64
1379.219 58.19 66.53 74.75 82.17 88.68 93.78 97.46 99.57 99.73 98.69
1398.509 96.25 91.96 85.88 78.53 70.85 62.92 54.25 45.11 36.71 30.02
1417.799 25.52 22.48 20.14 18.57 17.43 16.42 15.43 14.03 12.79 12.09
1437.089 11.97 12.16 12.41 12.95 13.54 14.2 14.86 15.44 16.47 17.58
1456.378 18.46 19.25 19.74 19.55 18.5 17.38 16.47 15.73 14.98 14.2
1475.668 13.72 13.61 13.28 12.33 11.38 10.6 9.82 9.54 9.55 9.59
1494.958 9.84 10.22 10.83 11.68 12.86 14.42 16.11 17.43 18.61 19.67
1514.248 21.02 23.01 25.39 28.61 32.85 37.71 44.12 51.82 60.83 71.57
1533.538 83.75 96.12 107.04 116.44 123.34 127.42 128.59 126.98 123.77 120.33
1552.827 115.2 106.56 95.78 82.35 66.86 51.68 36.84 25.08 16.83 11.17
1572.117 8.51 7.18 6.09 5.32 4.65 4.26 4.07 3.75 3.82 3.93
1591.407 3.74 3.78 3.64 3.63 3.66 3.67 3.83 3.79 3.56 3.38
1610.697 3.53 3.7 3.66 3.42 3.29 3.44 3.64 3.46 3.36 3.34
1629.986 3.16 3.02 2.84 2.79 2.83 2.89 3.08 3.03 2.68 2.49
1649.276 2.68 2.89 3.1 3.05 2.76 2.77 2.81 2.61 2.53 2.57
1668.566 2.53 2.34 2.22 2.32 2.29 2.1 1.7101 1.811 2.13 2.17
1687.856 2.21 2.16 2.25 2.32 2.19 2.16 2.35 2.45 2.43 2.45
1707.146 2.36 2.63 3.06 3.06 3.14 3.14 3.22 3.42 3.39 3.37
1726.435 3.31 3.37 3.31 3.15 3.43 3.39 3.26 3.43 3.36 2.99
1745.725 2.75 2.6 2.47 2.47 2.29 2.0293 1.9919 1.9392 1.6885 1.6991
1765.015 1.7719 1.875 1.8305 1.6275 1.5716 1.5401 1.4242 1.4147 1.6205 1.7181
1784.305 1.7035 1.5637 1.515 1.5715 1.6991 1.7202 1.6766 1.6414 1.6285 1.6514
1803.594 1.7405 1.7781 1.6992 1.7124 1.635 1.7592 1.9002 1.6754 1.5532 1.6085
1822.884 1.6496 1.8031 1.7615 1.572 1.4721 1.5113 1.5666 1.5285 1.5767 1.5914
1842.174 1.5068 1.4046 1.3895 1.4124 1.3929 1.4506 1.5593 1.581 1.549 1.6163
1861.464 1.6443 1.5666 1.2156 1.14025 1.6207 1.6602 1.4414 1.3727 1.5699 1.6868
1880.754 1.5652 1.6062 1.5109 1.4354 1.6719 1.8606 1.7328 1.629 1.6977 1.7666
1900.043 1.6169 1.4877 1.6322 1.5972 1.3759 1.3566 1.4435 1.4808 1.5862 1.555
1919.333 1.396 1.4034 1.3602 1.2958 1.5107 1.5985 1.5789 1.5498 1.563 1.6829
1938.623 1.6707 1.6751 1.6095 1.5958 1.6784 1.6975 1.792 1.6936 1.3918 1.3766
1957.913 1.5691 1.6491 1.5914 1.6039 1.6526 1.5613 1.6556 1.6607 1.6554 1.7197
1977.202 1.6964 1.7116 1.7155 1.7944 1.7473 1.6809 1.83 1.7849 1.7092 1.81
1996.492 1.7812 1.8953 2.031 2.11 2.11 1.7901 1.6771 1.9135 2.0597 2.12
2015.782 2.13 2.21 2.45 2.53 2.27 2.13 2.1 2.0329 2.34 2.6
2035.072 2.55 2.5 2.51 2.52 2.71 2.76 2.73 2.84 2.95 3.06
2054.362 3.23 3.39 3.42 3.53 3.58 3.69 3.64 3.51 3.59 3.71
2073.651 3.69 3.58 3.44 3.27 3.23 3.48 3.61 3.38 3.07 2.81
2092.941 2.68 2.54 2.59 2.49 2.27 2.32 2.33 2.13 2.09 2.11
2112.231 1.819 1.7273 1.8047 1.7529 1.6619 1.5332 1.5656 1.7075 1.7135 1.7522
2131.521 1.8736 1.7132 1.6192 1.5596 1.3354 1.4496 1.6581 1.5998 1.4221 1.4074
2150.810 1.6332 1.7556 1.6368 1.5226 1.4494 1.4774 1.5055 1.4168 1.7366 1.9854
2170.100 1.6594 1.5668 1.6041 1.6281 1.7648 1.6902 1.56 1.5066 1.535 1.6674
2189.390 1.6416 1.5906 1.6065 1.7744 2.008 1.9394 2.0276 1.9732 1.7443 2.0385
2208.680 2.06 1.9711 2.009 1.8435 1.709 1.5396 1.4763 1.4431 1.5608 1.5612
2227.970 1.499 1.5146 1.4094 1.2511 1.2097 1.4506 1.5203 1.3529 1.2134 1.2523
2247.259 1.2722 1.3163 1.5005 1.3339 1.2057 1.3354 1.5057 1.5545 1.263 1.0476
2266.549 1.09218 1.297 1.2711 1.4229 1.5067 1.1795 1.2167 1.368 1.3391 1.5064
2285.839 1.6186 1.6152 1.6378 1.4092 1.3915 1.4244 1.2641 1.3253 1.4148 1.4498
2305.129 1.4333 1.4788 1.637 1.6408 1.6807 1.7677 1.6472 1.6547 1.8733 1.6933
2324.418 1.7119 1.7312 1.3973 1.5548 1.7648 1.6427 1.542 1.3131 1.13117 1.3758
2343.708 1.4712 1.3464 1.3642 1.4726 1.3843 1.5007 1.6182 1.286 1.3352 1.5076
2362.998 1.4601 1.5529 1.4788 1.3196 1.4704 1.3742 1.4173 1.416 1.1999 1.4085
2382.288 1.5424 1.547 1.6791 1.7061 1.6789 1.6598 1.4366 1.2946 1.5467 1.7941
2401.578 1.7181 1.7035 1.7069 1.5095 1.12326 0.9847 1.13123 1.3889 1.2915 1.09423
2420.867 1.1706 1.3579 1.368 1.1957 1.3128 1.3707 1.432 1.6148 1.5912 1.3933
2440.157 1.14848 1.2961 1.5358 1.4443 1.4758 1.6684 1.6353 1.4089 1.5183 1.7912
2459.447 1.8983 1.676 1.6519 1.9359 2.0416 1.9216 1.8705 1.7635 1.5341 1.6321
2478.737 1.92 1.8594 1.853 1.8552 1.842 1.8707 1.5671 1.61 1.6242 1.4837
2498.026 1.2704 1.2677 1.4653 1.3163 1.2502 1.2375 1.1826 1.10458 1.0068 0.894
2517.316 0.875 0.9977 1.0112 0.9984 1.0411 1.08118 1.0124 1.0151 1.07052 1.0375
2536.606 1.0029 0.8 0.773 1.0098 1.12657 1.09592 1.0301 1.2111 1.4286 1.1639
2555.896 1.0355 1.0934 1.039 1.2203 1.2993 1.3809 1.206 0.933 0.9672 1.2193
2575.186 1.3713 1.2449 1.3282 1.3063 1.14527 1.05774 1.2375 1.4739 1.4179 1.3506
2594.475 1.3428 1.421 1.3775 1.2855 1.5302 1.7675 1.8504 1.8183 1.8828 1.9683
2613.765 1.9764 1.9435 1.7531 1.8277 1.8558 1.6406 1.4012 1.4185 1.5224 1.6598
2633.055 2.0072 2.09 1.794 1.4561 1.488 1.7143 2.0049 2.16 1.8661 1.7354
2652.345 1.7909 1.6319 1.3137 1.09498 1.3087 1.3549 1.0403 1.1788 1.3337 1.2598
2671.634 1.15189 1.1911 1.493 1.5619 1.3012 1.15391 1.13874 0.9907 1.15557 1.4609
2690.924 1.2143 1.11234 1.4951 1.4531 1.5675 1.4941 1.09312 1.1782 1.2955 1.3321
2710.214 1.3371 1.4682 1.4381 1.13926 1.11712 1.2291 1.2483 1.543 2.0246 2.1
2729.504 2.0204 1.7382 1.5385 1.7331 1.5496 1.3072 1.5217 1.4249 1.2706 1.3468
2748.794 1.4352 1.7175 2.0156 2.17 2.22 2.13 2.28 2.13 1.9187 2.23
2768.083 2.1 2.14 2.5 2.59 2.73 2.99 2.98 2.9 3.07 3.03
2787.373 3.17 3.59 4.03 4.31 3.96 3.69 4.09 4.32 4.37 4.64
2806.663 5.03 5.45 5.87 6.24 7.01 7.49 7.68 8.38 8.97 9.54
2825.953 9.84 9.77 9.98 10.42 10.8 11.16 11.46 11.87 12.19 12.04
2845.242 11.9 12.49 12.91 13.34 13.74 13.7 13.93 14.3 14.32 14.34
2864.532 14.47 14.54 14.22 13.76 13.37 12.99 12.64 12.2 11.78 11.56
2883.822 11.46 11.48 11.22 10.76 10.87 10.91 10.94 11.46 12.4 13.26
2903.112 13.82 14.4 15.35 16.08 17.08 18.42 19.04 19.21 19.63 20.4
2922.401 20.82 21.45 22.11 22.99 24.52 25.99 27.84 29.74 30.75 30.83
2941.691 31.47 31.87 31.67 32.12 32.42 32.19 32.46 32.66 31.1 28.34
2960.981 25.93 23.76 21.87 20.67 19.02 17.43 16.39 15.7 15.07 14.35
2980.271 13.67 13.14 12.92 12.65 13.11 14.21 14.92 16.31 18.23 19.76
2999.561 21.34 22.78 23.28 23.14 23.33 23.39 22.85 22.15 21.65 20.32
3018.850 18.74 17.09 15.07 12.9 10.48 8.49 6.62 5.42 5.31 5.05
3038.140 4.54 4.33 4.07 3.86 3.65 3.79 3.92 3.61 3.67 3.73
3057.430 3.77 3.92 3.81 3.74 3.85 4.2 4.46 4.35 4.28 4.18
3076.720 4.14 4.26 4.27 4.28 3.84 3.88 4.11 4.19 4.36 3.89
3096.009 3.86 3.85 3.6 3.64 3.72 3.87 3.84 4.02 4.03 3.81
3115.299 4.31 4.74 4.71 4.44 4.64 5.1 4.87 4.61 4.64 4.55
3134.589 4.17 3.71 3.63 3.34 2.97 3.01 2.9 2.53 2.27 1.7681
3153.879 1.394 1.2745 1.348 1.7974 1.8851 1.8265 1.8116 1.655 1.4173 1.7617
3173.169 1.8013 1.2222 1.1881 1.1966 1.018 0.9833 0.9918 1.6622 1.8347 1.3676
3192.458 1.12977 0.904 1.3121 1.5005 1.2613 1.12745 1.0495 1.11774 1.213 1.2083
3211.748 1.2024 1.0232 0.672 0.641 1.0487 1.2793 1.10274 1.2094 1.428 1.4548
3231.038 1.0305 1.0493 1.4828 1.5606 1.4543 1.2542 1.05185 0.9987 1.08853 0.959
3250.328 0.786 0.666 1.09888 1.5116 1.5783 1.2963 1.2736 1.2672 1.3381 1.3321
3269.617 0.69 0.618 0.9869 1.172 0.883 0.749 0.711 0.871 1.3477 1.2685
3288.907 1.11266 1.4646 1.344 0.9978 1.0249 1.06409 1.09601 0.848 1.11367 1.3402
3308.197 1.1882 0.873 0.816 1.2491 0.885 0.385 0.292 0.472 0.83 1.09335
3327.487 0.926 0.661 0.619 0.905 0.973 0.9904 0.687 0.01 0.567 1.1629
3346.777 1.06491 1.544 1.8141 1.2919 0.702 0.57 0.757 0.543 0.441 0.9746
3366.066 1.2928 1.12439 0.74 0.641 1.1826 1.3009 1.2613 0.9963 0.539 0.9921
3385.356 0.9775 0.659 0.9625 1.0335 0.9802 1.2388 1.4703 1.6805 1.4291 0.9888
3404.646 0.857 0.9805 1.0396 1.1922 1.1452 1.0226 0.752 0.516 0.9636 0.92
3423.936 0.847 0.883 0.669 0.536 1.171 1.1967 0.332 0.5 0.75 0.935
3443.225 1.14398 0.69 0.435 0.565 0.764 1.0069 1.4434 1.7 1.7129 1.2496
3462.515 0.733 0.9868 1.1833 1.3561 1.06112 0.483 1.0832 1.4967 1.4073 1.4292
3481.805 1.645 1.9653 1.9474 1.3688 0.787 1.15399 1.8326 1.3106 0.556 0.9993
3501.095 1.4907 1.4144 1.3421 1.2915 1.5081 1.6554 1.0358 0.95 1.10392 0.586
3520.385 0.42 0.804 1.0206 0.9666 0.7 0.267 0.409 0.923 0.878 0.752
3539.674 1.4161 1.3157 0.63 1.07556 1.0131 0.379 0.781 1.1926 1.12531 1.1155
3558.964 0.946 0.844 0.841 0.633 0.695 1.08129 1.3517 0.673 0 0.48
3578.254 0.759 1.038 1.3601 1.1751 1.14817 1.1992 1.1147 0.906 0.926 0.9969
3597.544 0.712 0.74 0.72 0.669 1.0205 0.707 0.604 0.916 0.834 1.048
3616.833 0.951 1.2605 1.6442 1.3791 0.9718 0.791 0.924 0.755 0.953 1.0138
3636.123 1.2938 1.6109 1.5015 1.5272 1.6076 1.1646 0.615 0.377 0.821 1.5209
3655.413 1.6101 1.4909 0.952 0.9969 1.3338 1.08706 1.14953 1.15198 1.14232 1.07338
3674.703 0.933 1.11832 1.0024 0.865 0.819 0.769 0.835 0.9742 0.9608 1.5269
3693.993 1.3441 0.794 1.05439 1.0302 1.1809 1.2736 1.13742 1.2718 1.6308 1.6695
3713.282 1.0371 0.8 1.5398 1.8069 1.8197 1.9782 1.4238 1.11286 1.2916 1.2104
3732.572 0.701 0.756 1.3497 0.9675 0.72 1.2941 1.5141 1.13059 1.2735 1.9487
3751.862 1.5608 1.4248 1.7695 1.4306 1.13923 1.2963 1.5491 1.5139 1.5661 1.6273
3771.152 1.3752 1.09005 1.1932 1.4221 0.817 0.554 1.3107 1.3982 1.1939 1.4515
3790.441 1.13893 1.2202 1.2089 0.613 0.957 1.2197 0.912 0.771 0.938 1.3136
3809.731 1.2851 0.948 1.09902 1.2826 0.805 0.9881 1.1738 0.945 1.07333 0.959
3829.021 0.712 0.854 1.4504 1.5631 1.6957 1.6918 1.4003 1.186 0.881 1.15937
3848.311 1.5261 1.3794 0.915 1.0295 1.14143 1.0318 0.848 0.722 0.975 1.4989
3867.601 1.4582 0.813 0.569 0.657 1.3542 1.345 0.9727 1.14986 1.4385 1.4169
3886.890 1.2911 1.174 1.10042 1.3797 1.10562 0.628 0.9759 1.8261 1.9635 1.0132
3906.180 0.318 0.879 1.0348 1.046 1.1606 1.3162 1.7095 1.687 1.3704 1.302
3925.470 1.1932 0.766 0.752 0.928 0.9925 0.563 1.05856 1.887 1.8216 1.7001
3944.760 1.5862 1.6328 1.5107 1.14583 1.3813 1.5293 1.7836 2.17 1.6398 1.4624
3964.049 2.11 2.51 2.38 1.8784 1.5478 1.0162 0.741 1.12406 1.0286 1.4635
3983.339 1.7484 1.7523 2.037 1.7862 1.8293 1.704 1.7384 2.1 1.9519 1.7737
##END=
