##TITLE=1,4-Dimethyl-2-ethylbenzene
##JCAMP-DX=4.24
##DATA TYPE=INFRARED SPECTRUM
##ORIGIN=NIST Mass Spectrometry Data Center
##OWNER=NIST Standard Reference Data Program
Collection (C) 2018 copyright by the U.S. Secretary of Commerce
on behalf of the United States of America. All rights reserved.
##CAS REGISTRY NO=1758-88-9
##MOLFORM=C 10 H 14
##$NIST SOURCE=MSDC-IR
##SPECTROMETER/DATA SYSTEM=HP-GC/MS/IRD
##STATE=gas
##XUNITS=1/CM
##YUNITS=ABSORBANCE
##XFACTOR=1.0
##YFACTOR=0.000003100
##DELTAX=4.0
##FIRSTX=550.0
##LASTX=3846.0
##FIRSTY=0.000598
##MAXX=3846
##MINX=550
##MAXY=0.031
##MINY=0
##NPOINTS=825
##XYDATA=(X++(Y..Y))
550.0 193 150 89 47 65 95 101 110 119 103
590.0 120 131 101 71 56 67 75 64 56 22
630.0 8 16 21 9 13 20 8 48 67 35
670.0 43 48 35 53 51 59 64 93 147 153
710.0 178 226 248 242 229 216 195 180 165 151
750.0 116 94 121 133 132 164 221 338 590 1017
790.0 1584 2174 2846 3863 3892 2886 2262 1667 1121 709
830.0 446 339 257 225 200 195 213 251 335 448
870.0 550 682 798 738 630 569 495 422 358 282
910.0 221 169 151 169 167 150 166 188 212 242
950.0 271 298 343 375 359 344 330 303 300 318
990.0 327 352 390 391 375 355 335 312 307 336
1030.0 373 423 502 577 633 679 699 670 598 523
1070.0 426 343 279 230 206 176 151 129 111 130
1110.0 162 175 190 201 225 249 238 243 272 324
1150.0 393 438 447 415 332 233 160 122 110 105
1190.0 100 102 118 139 161 176 173 172 181 195
1230.0 211 240 270 276 275 256 242 228 214 216
1270.0 211 192 191 210 212 218 238 253 284 330
1310.0 383 448 501 536 550 522 466 427 400 377
1350.0 371 382 403 440 511 604 727 828 865 870
1390.0 823 735 677 660 684 743 803 859 928 1011
1430.0 1090 1180 1303 1459 1648 1843 2011 2147 2249 2271
1470.0 2207 2083 1972 1953 2095 2451 2962 3402 3578 3429
1510.0 3003 2357 1656 1155 891 758 675 619 583 555
1550.0 534 528 511 516 528 512 507 514 510 508
1590.0 544 609 694 793 897 965 949 855 713 546
1630.0 383 250 181 156 131 108 100 99 101 98
1670.0 92 100 95 80 64 55 55 44 38 51
1710.0 54 56 67 88 115 146 188 225 243 251
1750.0 242 211 179 150 111 69 49 47 39 28
1790.0 34 44 40 47 64 77 86 98 94 96
1830.0 99 86 74 70 75 78 83 99 122 161
1870.0 203 239 262 258 219 169 124 90 78 57
1910.0 46 44 37 38 44 39 36 32 26 20
1950.0 17 25 25 19 26 28 24 22 18 13
1990.0 12 17 17 9 5 4 6 3 5 9
2030.0 12 20 24 22 20 14 7 8 6 2
2070.0 1 9 10 11 18 15 22 19 11 17
2110.0 14 12 17 13 11 13 5 0 2 1
2150.0 5 7 14 24 18 15 15 17 15 10
2190.0 7 7 11 14 5 5 12 7 6 13
2230.0 20 21 23 26 24 31 39 41 41 37
2270.0 38 48 59 63 57 52 53 55 53 54
2310.0 58 53 56 65 61 50 54 62 63 60
2350.0 64 63 53 57 63 61 65 82 86 76
2390.0 76 78 80 83 80 80 81 82 82 84
2430.0 93 97 100 103 102 97 95 96 98 97
2470.0 95 95 98 98 96 98 99 108 117 116
2510.0 111 105 102 105 103 108 120 122 119 116
2550.0 110 106 110 110 107 109 115 117 122 129
2590.0 131 125 128 138 141 145 145 144 157 162
2630.0 154 146 143 142 143 147 152 159 163 161
2670.0 158 152 153 158 166 178 182 190 193 200
2710.0 223 236 248 270 315 388 445 479 498 498
2750.0 460 407 372 355 348 363 391 395 401 428
2790.0 451 470 493 527 569 610 661 725 787 850
2830.0 933 1034 1164 1324 1530 1795 2138 2587 3154 3848
2870.0 4576 5264 5823 6153 6183 5968 5688 5423 5236 5213
2910.0 5376 5736 6330 7135 8024 8829 9376 9526 9261 8717
2950.0 8130 7733 7784 8424 9322 9912 10000 9475 8277 6875
2990.0 5909 5490 5427 5501 5583 5598 5455 5128 4724 4334
3030.0 4013 3818 3744 3741 3722 3615 3384 3011 2549 2112
3070.0 1778 1537 1337 1164 1039 951 860 789 764 741
3110.0 729 699 673 640 596 557 504 456 409 371
3150.0 350 322 295 279 261 248 220 197 188 177
3190.0 169 155 159 161 157 148 138 137 116 118
3230.0 129 123 135 133 118 129 128 114 113 110
3270.0 101 97 97 110 107 93 88 91 91 83
3310.0 87 106 110 96 87 72 63 73 81 78
3350.0 74 77 84 83 67 60 64 67 60 59
3390.0 51 47 50 54 71 77 77 57 53 70
3430.0 63 47 48 37 36 59 64 47 31 27
3470.0 42 52 49 59 67 47 28 30 38 23
3510.0 16 24 19 18 30 45 36 29 39 43
3550.0 29 25 24 14 5 5 22 31 26 21
3590.0 18 29 33 30 23 18 15 17 23 29
3630.0 21 4 13 25 17 16 15 16 15 13
3670.0 18 13 4 25 44 36 35 36 42 46
3710.0 39 42 47 52 51 46 45 58 65 53
3750.0 35 42 59 61 61 45 49 57 47 53
3790.0 47 38 35 40 53 52 47 53 51 53
3830.0 60 58 55 76 84
##END=
