##TITLE=4-Methyl-1,3-heptadiene (c,t)
##JCAMP-DX=4.24
##DATA TYPE=INFRARED SPECTRUM
##ORIGIN=NIST Mass Spectrometry Data Center
##OWNER=NIST Standard Reference Data Program
Collection (C) 2018 copyright by the U.S. Secretary of Commerce
on behalf of the United States of America. All rights reserved.
##CAS REGISTRY NO=17603-57-5
##MOLFORM=C 8 H 14
##$NIST SOURCE=MSDC-IR
##SPECTROMETER/DATA SYSTEM=HP-GC/MS/IRD
##STATE=gas
##XUNITS=1/CM
##YUNITS=ABSORBANCE
##XFACTOR=1.0
##YFACTOR=0.000004500
##DELTAX=4.0
##FIRSTX=550.0
##LASTX=3846.0
##FIRSTY=0.000383
##MAXX=3846
##MINX=550
##MAXY=0.045
##MINY=0
##NPOINTS=825
##XYDATA=(X++(Y..Y))
550.0 85 128 69 95 115 84 51 36 54 66
590.0 56 59 44 14 18 27 28 28 26 28
630.0 26 23 23 10 0 6 0 8 19 16
670.0 10 17 31 43 57 65 55 42 35 25
710.0 44 66 79 92 90 87 91 123 158 185
750.0 226 281 321 336 338 317 287 250 236 223
790.0 201 193 191 179 195 248 317 382 471 589
830.0 718 892 1057 1147 1140 1045 917 788 652 546
870.0 462 392 366 379 396 432 512 606 658 677
910.0 671 625 571 555 582 679 869 1157 1580 2102
950.0 2630 3109 3579 3539 2840 2254 1787 1319 985 797
990.0 713 659 611 579 550 507 458 426 431 489
1030.0 563 655 697 713 709 666 608 522 477 453
1070.0 423 388 365 353 338 328 313 293 294 331
1110.0 351 346 347 345 307 248 221 202 175 178
1150.0 184 206 213 194 196 203 208 221 245 266
1190.0 282 297 311 330 364 389 381 390 402 386
1230.0 367 357 342 330 312 293 291 316 325 322
1270.0 346 373 384 403 441 491 537 566 588 607
1310.0 607 580 545 510 471 437 405 372 361 374
1350.0 407 451 517 604 726 916 1132 1260 1285 1308
1390.0 1237 1020 813 677 610 597 625 690 787 919
1430.0 1081 1268 1471 1689 1877 1969 2005 1987 1897 1706
1470.0 1479 1263 1052 862 712 598 508 434 380 353
1510.0 326 296 283 279 272 253 244 247 247 235
1550.0 223 214 212 208 198 195 196 199 205 213
1590.0 222 231 249 263 272 281 295 307 309 308
1630.0 310 319 329 332 326 319 314 298 281 268
1670.0 259 260 260 265 263 252 243 233 214 193
1710.0 183 177 165 157 151 160 185 204 222 238
1750.0 242 232 207 169 143 134 115 101 99 102
1790.0 112 115 115 124 128 122 124 130 133 130
1830.0 123 117 106 103 94 77 73 75 74 75
1870.0 80 80 80 88 87 76 73 74 75 73
1910.0 67 61 56 45 39 38 28 28 31 30
1950.0 28 26 26 23 24 25 30 37 47 59
1990.0 70 72 61 52 44 34 22 16 9 13
2030.0 19 12 14 18 14 14 16 19 19 19
2070.0 19 17 20 18 15 18 20 9 8 17
2110.0 22 23 14 16 18 10 1 7 16 13
2150.0 2 1 6 9 11 8 4 5 9 7
2190.0 7 8 4 7 11 18 16 14 12 11
2230.0 8 0 0 7 12 13 11 11 14 13
2270.0 17 27 29 22 24 28 27 22 20 23
2310.0 27 20 16 22 24 28 20 16 21 27
2350.0 27 22 24 28 34 34 31 27 29 29
2390.0 31 37 37 40 39 35 41 51 48 37
2430.0 42 40 28 30 40 47 39 30 28 33
2470.0 48 58 49 36 42 43 35 30 24 23
2510.0 29 29 25 35 39 33 37 41 34 37
2550.0 51 57 57 57 56 52 49 55 59 58
2590.0 55 55 50 50 52 56 56 45 45 50
2630.0 48 48 43 40 49 43 41 46 38 39
2670.0 43 44 51 59 67 82 88 86 96 107
2710.0 113 140 173 207 253 308 363 399 406 398
2750.0 368 316 274 266 267 263 265 272 281 298
2790.0 317 347 378 426 481 534 588 650 724 805
2830.0 898 1010 1147 1325 1570 1919 2376 2933 3506 4018
2870.0 4492 4961 5340 5508 5553 5535 5413 5197 5034 5031
2910.0 5231 5684 6329 6954 7440 7863 8174 8172 7981 7859
2950.0 7814 7831 8135 8806 9568 10000 9938 9383 8352 7081
2990.0 5812 4781 4094 3641 3308 3089 2962 2900 2898 2944
3030.0 2998 2987 2886 2717 2481 2163 1805 1463 1188 995
3070.0 877 805 742 692 668 642 612 588 564 544
3110.0 531 501 487 482 452 419 397 369 325 294
3150.0 284 266 247 218 190 178 179 173 148 131
3190.0 125 117 105 94 105 96 81 73 54 65
3230.0 78 62 40 40 47 36 24 31 31 32
3270.0 38 36 29 27 35 41 29 34 40 16
3310.0 1 15 39 45 48 51 41 34 27 26
3350.0 31 33 38 38 26 12 16 21 15 29
3390.0 41 27 22 18 20 21 14 21 20 15
3430.0 29 33 31 42 56 54 45 39 31 29
3470.0 36 34 42 50 47 35 11 5 14 8
3510.0 1 3 4 14 25 20 10 19 35 36
3550.0 19 22 21 28 34 26 18 15 29 34
3590.0 36 39 21 20 36 32 19 17 9 18
3630.0 24 15 10 0 5 15 13 19 14 20
3670.0 24 23 31 28 20 23 26 23 35 46
3710.0 43 36 29 28 26 17 28 33 29 21
3750.0 17 29 25 24 19 28 42 35 18 26
3790.0 58 51 46 54 64 65 50 40 44 49
3830.0 35 38 52 43 40
##END=
