##TITLE=4,4'-Diaminodicyclohexylmethane
##JCAMP-DX=4.24
##DATA TYPE=INFRARED SPECTRUM
##ORIGIN=EPA-IR VAPOR PHASE LIBRARY
##OWNER=SRD/NIST
Collection (C) 2018 copyright by the U.S. Secretary of Commerce
on behalf of the United States of America. All rights reserved.
##CAS REGISTRY NO=1761-71-3
##MOLFORM=C 13 H 26 N 2
##$NIST SOURCE=MSDC-IR
##STATE=gas
##XUNITS=1/CM
##YUNITS=ABSORBANCE
##XFACTOR=1.
##YFACTOR=0.001
##DELTAX=3.85796
##FIRSTX=501.5
##LASTX=4000.7
##FIRSTY=2.154
##MAXX=4000.7
##MINX=501.534
##MAXY=0.127794
##MINY=0
##NPOINTS=908
##XYDATA=(X++(Y..Y))
501.534 2.154 1.834 1.734 1.604 1.754 1.894 1.714 1.634 1.664 1.664
540.114 1.704 1.794 1.814 1.824 2.004 2.074 2.134 2.254 2.314 2.424
578.693 2.574 2.794 2.854 2.874 2.834 2.704 2.744 2.824 2.864 2.994
617.273 3.124 3.284 3.494 3.564 3.374 3.204 3.304 3.524 3.664 3.684
655.852 3.714 3.764 3.874 3.984 4.024 3.984 4.014 4.104 4.164 4.284
694.432 4.384 4.534 4.734 4.984 5.294 5.624 6.114 6.634 7.174 7.794
733.011 8.634 9.584 10.534 11.714 13.064 14.384 15.704 17.014 18.254 19.424
771.591 20.374 21.014 21.404 21.794 22.124 21.814 20.484 18.234 15.664 13.354
810.170 11.594 10.444 9.524 8.684 7.804 6.954 6.234 5.624 5.154 4.804
848.750 4.514 4.254 4.044 3.894 3.754 3.634 3.534 3.484 3.564 3.784
887.330 4.104 4.474 4.764 4.884 4.814 4.594 4.214 3.764 3.414 3.104
925.909 2.924 2.904 2.794 2.664 2.724 3.014 3.544 4.174 4.634 4.794
964.489 4.744 4.284 3.784 3.554 3.414 3.284 3.174 3.094 2.964 2.924
1003.068 2.964 2.984 2.914 2.924 2.924 2.874 3.014 3.194 3.214 3.244
1041.648 3.264 3.294 3.434 3.704 4.204 5.144 6.484 8.034 9.524 10.194
1080.227 9.684 8.734 7.924 7.644 7.764 7.974 7.954 7.644 7.054 6.244
1118.807 5.414 4.654 3.924 3.384 2.994 2.694 2.484 2.304 2.154 2.124
1157.387 2.154 2.104 2.094 2.044 2.044 2.084 1.984 1.914 1.914 1.894
1195.966 1.904 1.904 1.914 1.974 1.994 1.954 1.874 1.774 1.784 1.814
1234.546 1.774 1.784 1.844 1.884 1.784 1.584 1.434 1.352 1.2423 1.2111
1273.125 1.2082 1.1535 1.1512 1.1686 1.2096 1.3139 1.464 1.644 1.884 2.134
1311.705 2.294 2.274 2.174 2.134 2.184 2.324 2.534 2.804 3.114 3.424
1350.284 3.704 4.004 4.374 4.804 5.264 5.614 5.694 5.484 5.024 4.354
1388.864 3.604 2.994 2.574 2.314 2.194 2.154 2.194 2.264 2.354 2.524
1427.443 2.884 3.504 4.594 6.314 8.604 10.964 12.334 12.044 10.214 7.824
1466.023 5.664 4.134 3.194 2.674 2.364 2.154 2.014 1.914 1.814 1.704
1504.603 1.624 1.554 1.504 1.484 1.474 1.484 1.464 1.464 1.484 1.514
1543.182 1.564 1.594 1.644 1.714 1.774 1.864 1.954 2.064 2.214 2.414
1581.762 2.664 2.934 3.304 3.794 4.464 5.344 6.464 7.874 9.334 10.334
1620.341 10.324 9.254 7.544 5.844 4.474 3.454 2.764 2.284 1.934 1.644
1658.921 1.434 1.2752 1.1381 1.0338 0.9323 0.8442 0.7909 0.7434 0.6884 0.6623
1697.500 0.6498 0.6298 0.6268 0.6183 0.6114 0.6174 0.6085 0.5863 0.5945 0.6021
1736.080 0.5835 0.5773 0.5789 0.5615 0.5586 0.5662 0.5623 0.5595 0.5535 0.534
1774.659 0.5407 0.5616 0.5664 0.5588 0.5577 0.5613 0.5439 0.5336 0.5494 0.5609
1813.239 0.5602 0.5723 0.5634 0.5541 0.5562 0.5671 0.565 0.5378 0.5355 0.5446
1851.819 0.5316 0.5255 0.5216 0.5028 0.5 0.4903 0.481 0.465 0.4653 0.4744
1890.398 0.45904 0.4511 0.42085 0.39048 0.39401 0.39862 0.372793 0.3501 0.3433 0.3505
1928.978 0.36088 0.363485 0.35797 0.3353 0.3227 0.3132 0.3024 0.2902 0.2831 0.2818
1967.557 0.2878 0.273 0.244 0.246 0.249 0.246 0.242 0.248 0.2689 0.2869
2006.137 0.2826 0.249 0.228 0.243 0.242 0.226 0.235 0.25 0.249 0.254
2044.716 0.252 0.258 0.2666 0.2697 0.2816 0.2771 0.2666 0.2807 0.283 0.2843
2083.296 0.2937 0.2886 0.2881 0.2962 0.2955 0.2797 0.2741 0.2901 0.3065 0.2918
2121.875 0.308 0.326 0.3135 0.3034 0.309 0.3091 0.2854 0.2831 0.3106 0.3179
2160.455 0.3026 0.315 0.3336 0.3346 0.3331 0.3049 0.3044 0.3501 0.3528 0.3524
2199.035 0.36011 0.364955 0.363234 0.35497 0.3482 0.3476 0.370168 0.38377 0.38048 0.363729
2237.614 0.372624 0.39693 0.39499 0.42374 0.46078 0.489 0.5062 0.5159 0.5081 0.46323
2276.194 0.41593 0.3951 0.38969 0.38072 0.365201 0.3537 0.35528 0.3473 0.3397 0.3337
2314.773 0.3416 0.363678 0.36833 0.373759 0.38332 0.37608 0.371448 0.35687 0.3411 0.365028
2353.353 0.3856 0.37768 0.38534 0.39845 0.40112 0.40453 0.40625 0.41421 0.40278 0.39331
2391.932 0.40489 0.42129 0.4342 0.41069 0.40078 0.4164 0.39873 0.39493 0.39599 0.38553
2430.512 0.3767 0.373386 0.39703 0.40011 0.39935 0.40643 0.42406 0.42603 0.41425 0.44296
2469.092 0.46303 0.44467 0.4234 0.4259 0.43393 0.44782 0.4687 0.4649 0.4755 0.503
2507.671 0.5147 0.5294 0.5617 0.5874 0.5648 0.5306 0.5406 0.5525 0.5527 0.5807
2546.251 0.6078 0.6128 0.6441 0.6626 0.6759 0.6965 0.6956 0.7437 0.7962 0.8315
2584.830 0.882 0.9276 0.993 1.0697 1.1527 1.2306 1.2992 1.374 1.414 1.434
2623.410 1.454 1.474 1.504 1.534 1.504 1.494 1.524 1.564 1.614 1.674
2661.989 1.734 1.774 1.814 1.854 1.884 1.854 1.824 1.864 1.874 1.854
2700.569 1.884 1.904 1.924 1.964 1.994 1.974 1.944 1.934 1.954 2.004
2739.148 2.034 2.004 1.964 1.924 1.864 1.844 1.824 1.854 1.904 1.964
2777.728 2.114 2.284 2.484 2.724 3.024 3.384 3.824 4.324 4.874 5.524
2816.308 6.244 7.074 8.174 9.684 11.864 15.054 19.714 26.304 34.514 42.594
2854.887 47.694 48.004 44.024 38.014 32.144 27.664 25.014 24.224 25.444 28.814
2893.467 34.114 40.584 47.384 54.714 63.954 77.014 95.094 114.994 127.794 126.844
2932.046 113.704 94.354 73.244 53.544 37.894 26.414 18.294 12.904 9.504 7.294
2970.626 5.734 4.574 3.724 3.104 2.574 2.134 1.844 1.574 1.3554 1.2164
3009.205 1.0648 0.9481 0.8718 0.7676 0.6434 0.5902 0.5825 0.5507 0.4784 0.43156
3047.785 0.45813 0.44294 0.41569 0.43158 0.43455 0.42205 0.42313 0.46082 0.43609 0.38969
3086.364 0.41261 0.41321 0.37723 0.38846 0.38359 0.3221 0.3332 0.38612 0.37121 0.3193
3124.944 0.370488 0.4644 0.4846 0.4686 0.4962 0.5058 0.4735 0.4948 0.46047 0.38625
3163.524 0.41698 0.41521 0.38235 0.39412 0.3442 0.2737 0.2752 0.297 0.2783 0.207
3202.103 0.18 0.21 0.207 0.165 0.154 0.142 0.12 0.152 0.164 0.182
3240.683 0.182 0.171 0.156 0.151 0.179 0.189 0.181 0.174 0.161 0.142
3279.262 0.17 0.176 0.177 0.201 0.242 0.255 0.236 0.2906 0.3429 0.41358
3317.842 0.5488 0.7142 0.9037 1.1009 1.2429 1.2709 1.1542 0.8733 0.624 0.5256
3356.421 0.433 0.3208 0.244 0.212 0.206 0.19 0.18 0.21 0.187 0.149
3395.001 0.183 0.19 0.176 0.134 0.084 0.093 0.109 0.111 0.107 0.084
3433.580 0.07 0.038 0.029 0.071 0.073 0.054 0.065 0.057 0 0.001
3472.160 0.048 0.016 0.017 0.058 0.082 0.091 0.067 0.035 0.05 0.091
3510.740 0.069 0.058 0.106 0.109 0.093 0.085 0.07 0.086 0.101 0.096
3549.319 0.087 0.117 0.1 0.084 0.076 0.02 0.023 0.074 0.052 0.061
3587.899 0.097 0.079 0.059 0.022 0.038 0.03 0.055 0.108 0.118 0.12
3626.478 0.126 0.138 0.113 0.107 0.122 0.1 0.11 0.135 0.117 0.092
3665.058 0.069 0.084 0.183 0.196 0.136 0.147 0.153 0.143 0.098 0.098
3703.637 0.116 0.129 0.148 0.156 0.2 0.212 0.178 0.149 0.117 0.152
3742.217 0.181 0.167 0.154 0.128 0.139 0.175 0.169 0.131 0.124 0.133
3780.797 0.156 0.094 0.097 0.183 0.22 0.247 0.2641 0.209 0.143 0.214
3819.376 0.2986 0.246 0.152 0.122 0.152 0.21 0.206 0.172 0.14 0.142
3857.956 0.114 0.104 0.165 0.213 0.195 0.133 0.114 0.168 0.174 0.151
3896.535 0.153 0.126 0.085 0.111 0.162 0.161 0.224 0.252 0.194 0.167
3935.115 0.217 0.228 0.175 0.175 0.153 0.132 0.199 0.248 0.244 0.26
3973.694 0.2809 0.2727 0.2796 0.28 0.257 0.218 0.181 0.164
##END=
