##TITLE=p-Aminobenzaldehyde
##JCAMP-DX=4.24
##DATA TYPE=INFRARED SPECTRUM
##ORIGIN=NIST Mass Spectrometry Data Center
##OWNER=NIST Standard Reference Data Program
Collection (C) 2018 copyright by the U.S. Secretary of Commerce
on behalf of the United States of America. All rights reserved.
##CAS REGISTRY NO=17625-83-1
##MOLFORM=C 13 H 12 N 2 O
##$NIST SOURCE=MSDC-IR
##SPECTROMETER/DATA SYSTEM=HP-GC/MS/IRD
##STATE=gas
##XUNITS=1/CM
##YUNITS=ABSORBANCE
##XFACTOR=1.0
##YFACTOR=0.000001100
##DELTAX=4.0
##FIRSTX=550.0
##LASTX=3846.0
##FIRSTY=0.000597
##MAXX=3846
##MINX=550
##MAXY=0.011
##MINY=0
##NPOINTS=825
##XYDATA=(X++(Y..Y))
550.0 543 674 548 674 861 1073 1131 965 622 414
590.0 324 235 194 201 242 293 359 418 507 602
630.0 613 476 356 358 368 393 476 568 722 869
670.0 945 1005 1088 1211 1333 1361 1289 1155 981 831
710.0 728 651 600 605 622 688 819 995 1238 1442
750.0 1526 1510 1423 1223 968 744 580 478 413 375
790.0 379 387 358 346 344 346 347 377 450 541
830.0 650 704 682 630 541 427 343 298 264 239
870.0 226 226 239 257 278 284 247 198 159 139
910.0 113 90 69 45 25 12 20 31 60 63
950.0 66 80 76 91 100 82 74 73 54 36
990.0 45 57 64 85 110 129 133 98 87 116
1030.0 127 125 121 128 158 181 196 271 349 415
1070.0 496 526 509 534 603 677 715 686 575 474
1110.0 427 348 331 393 455 460 393 315 265 255
1150.0 244 245 286 369 550 959 1838 2769 2863 2026
1190.0 1089 685 587 584 626 714 884 1200 1742 2553
1230.0 3511 4201 4328 4005 3469 2806 2164 1771 1635 1706
1270.0 1977 2438 2993 3338 3235 2822 2520 2615 2962 3193
1310.0 3116 2838 2493 2058 1560 1139 825 601 436 326
1350.0 264 241 232 230 237 255 254 246 248 252
1390.0 253 264 308 379 468 623 904 1376 2146 3102
1430.0 4089 4787 4688 3642 2276 1381 1008 891 902 1019
1470.0 1205 1428 1652 1941 2415 3258 4733 6967 9231 10000
1510.0 8669 6357 4590 3723 3218 2680 2130 1686 1362 1124
1550.0 976 885 837 829 852 907 988 1118 1326 1701
1590.0 2301 3118 3917 4285 4030 3470 3171 3430 4044 4354
1630.0 3908 2930 1965 1329 977 807 717 676 683 702
1670.0 752 855 994 1218 1588 2091 2699 3372 3878 3991
1710.0 3686 3013 2161 1458 1014 745 593 498 411 345
1750.0 282 237 221 209 203 203 197 174 138 115
1790.0 98 93 92 81 64 60 63 57 62 68
1830.0 63 62 71 81 85 92 98 99 103 103
1870.0 98 84 79 75 76 76 64 69 78 80
1910.0 85 93 86 90 98 93 79 74 76 79
1950.0 77 63 57 56 46 37 31 28 33 39
1990.0 29 28 40 39 38 36 38 54 54 49
2030.0 44 42 44 52 51 39 30 33 39 42
2070.0 47 43 42 50 48 36 28 32 36 28
2110.0 21 24 28 26 20 26 30 25 25 21
2150.0 26 34 33 18 15 28 39 39 28 24
2190.0 20 30 32 20 19 18 22 21 13 17
2230.0 17 15 9 7 15 22 23 19 23 24
2270.0 15 14 20 23 24 24 31 36 30 22
2310.0 16 16 3 2 2 2 2 2 2 2
2350.0 2 2 2 2 2 2 0 12 44 46
2390.0 29 23 31 36 38 44 42 38 41 41
2430.0 44 50 49 38 41 48 49 47 38 39
2470.0 37 47 53 39 29 40 45 43 40 47
2510.0 61 59 56 59 60 63 66 67 60 57
2550.0 59 44 48 56 43 43 50 50 55 55
2590.0 53 67 75 64 64 73 79 67 65 70
2630.0 64 62 61 52 48 50 42 44 55 59
2670.0 47 35 31 36 43 35 29 26 24 26
2710.0 24 28 43 42 40 38 36 42 37 23
2750.0 18 34 39 40 50 40 28 30 39 34
2790.0 36 32 9 7 5 4 16 21 24 28
2830.0 27 16 23 38 34 37 29 35 55 38
2870.0 33 30 27 33 33 42 55 53 36 35
2910.0 52 61 56 48 45 57 50 26 22 24
2950.0 27 34 36 33 33 40 53 55 74 95
2990.0 121 163 221 257 292 352 408 493 623 790
3030.0 964 1081 1044 886 738 656 668 765 896 969
3070.0 931 796 637 549 498 473 458 407 364 329
3110.0 280 219 184 181 164 137 132 121 106 110
3150.0 95 67 61 70 71 65 62 59 65 61
3190.0 51 81 90 105 127 120 108 113 118 110
3230.0 104 75 69 97 112 90 80 94 79 75
3270.0 48 31 73 86 70 67 60 65 90 106
3310.0 82 61 60 47 57 68 59 56 55 76
3350.0 99 107 118 106 104 102 107 116 141 194
3390.0 221 252 292 314 370 469 546 571 555 518
3430.0 477 424 336 256 245 274 305 348 394 408
3470.0 380 334 284 247 230 225 236 243 240 246
3510.0 240 240 236 199 170 130 115 125 95 46
3550.0 42 68 71 64 52 48 62 49 44 45
3590.0 27 33 50 40 15 25 57 57 37 42
3630.0 62 65 62 44 54 90 84 65 54 56
3670.0 66 79 77 36 48 75 59 39 26 29
3710.0 39 53 70 62 39 37 60 60 43 52
3750.0 76 80 44 47 62 63 64 43 32 57
3790.0 70 53 50 62 68 64 46 52 61 32
3830.0 48 77 92 103 76
##END=
