##TITLE=N,N-Dimethylcyclopropanecarboxamide
##JCAMP-DX=4.24
##DATA TYPE=INFRARED SPECTRUM
##ORIGIN=EPA-IR VAPOR PHASE LIBRARY
##OWNER=SRD/NIST
Collection (C) 2018 copyright by the U.S. Secretary of Commerce
on behalf of the United States of America. All rights reserved.
##CAS REGISTRY NO=17696-23-0
##MOLFORM=C 6 H 11 N O
##$NIST SOURCE=MSDC-IR
##STATE=gas
##XUNITS=1/CM
##YUNITS=ABSORBANCE
##XFACTOR=1.
##YFACTOR=0.001
##DELTAX=1.92898
##FIRSTX=549.8
##LASTX=4000.7
##FIRSTY=0.3312
##MAXX=4000.7
##MINX=549.759
##MAXY=0.117377
##MINY=0
##NPOINTS=1790
##XYDATA=(X++(Y..Y))
549.759 0.3312 0.9945 1.217 0.6893 0.6409 0.9354 0.8651 0.6082 0.3458 0.21175
569.049 0.5099 0.8835 1.1038 1.217 1.327 1.387 1.197 1.447 1.647 1.557
588.339 1.597 1.547 1.847 2.107 2.057 2.057 1.897 1.697 1.597 1.637
607.628 1.417 1.227 1.297 1.277 1.0119 0.7139 0.6212 0.612 0.6425 0.6472
626.918 0.7097 0.6339 0.4778 0.5157 0.4442 0.3453 0.5171 0.5821 0.4075 0.2975
646.208 0.3232 0.25081 0.086 0 0.082 0.1645 0.1445 0.20537 0.4553 0.4986
665.498 0.2943 0.26624 0.4182 0.5477 0.5095 0.3131 0.3919 0.467 0.24802 0.1598
684.787 0.2972 0.27328 0.27891 0.4004 0.4787 0.5449 0.6169 0.8472 0.8593 0.8328
704.077 0.8921 0.832 0.7 0.7968 1.0657 1.267 1.457 1.647 1.787 1.727
723.367 1.787 1.837 1.937 2.167 2.317 2.497 2.517 2.367 2.237 2.327
742.657 2.287 2.157 2.007 1.797 1.557 1.617 1.647 1.487 1.547 1.467
761.947 1.507 1.767 2.047 2.287 2.617 3.117 3.707 4.217 4.557 5.017
781.236 5.427 5.767 5.917 5.857 5.677 5.327 5.177 4.927 4.387 3.917
800.526 3.447 3.097 2.927 2.827 2.917 2.877 2.807 2.837 2.767 2.777
819.816 3.007 3.217 3.117 2.967 3.067 2.987 2.857 2.827 2.477 2.177
839.106 2.057 1.997 1.847 1.517 1.407 1.457 1.447 1.587 1.787 1.687
858.395 1.607 1.767 1.867 1.927 1.877 2.067 2.287 2.127 2.107 2.187
877.685 2.167 2.147 2.357 2.467 2.287 2.467 2.507 2.357 2.267 2.177
896.975 2.237 2.377 2.587 2.817 3.037 3.317 3.897 4.657 5.407 6.087
916.265 6.917 7.897 8.907 9.837 10.307 10.507 10.847 10.927 10.497 10.047
935.555 9.447 8.717 8.077 7.657 7.187 6.527 5.867 5.257 4.767 4.237
954.844 3.637 3.087 2.827 2.487 2.247 2.227 1.997 1.807 1.887 1.817
974.134 1.817 1.887 1.727 1.587 1.527 1.557 1.767 1.737 1.657 1.737
993.424 1.677 1.957 1.967 1.927 2.047 2.017 2.137 2.247 2.457 2.607
1012.714 2.607 2.697 2.877 3.117 3.397 3.677 3.727 3.717 3.857 4.147
1032.003 4.107 3.977 3.997 4.177 4.327 3.887 3.867 4.237 4.547 4.817
1051.293 5.217 5.837 6.507 6.997 7.427 8.327 9.237 9.917 10.357 10.997
1070.583 11.647 11.647 11.887 12.027 12.207 12.807 13.147 13.427 13.527 13.887
1089.873 14.707 15.347 15.637 15.277 15.057 14.877 14.347 14.057 14.247 14.637
1109.163 15.297 16.477 18.147 20.377 22.937 25.737 28.947 32.557 36.207 39.017
1128.452 40.437 41.297 41.447 40.487 38.947 36.337 32.647 28.217 23.917 19.827
1147.742 16.127 13.417 10.867 8.877 7.337 6.247 5.907 5.347 4.967 4.867
1167.032 4.597 4.197 4.067 4.267 4.557 4.667 4.757 5.257 5.777 5.837
1186.322 5.917 6.517 7.017 7.677 8.337 8.837 9.177 9.657 10.147 10.847
1205.611 11.497 11.917 12.967 13.697 14.167 15.177 16.277 17.287 18.577 19.707
1224.901 20.547 21.457 22.717 24.367 25.987 28.367 32.077 36.197 40.777 45.767
1244.191 50.807 54.997 57.937 59.967 60.667 59.707 57.167 53.277 48.217 42.217
1263.481 35.877 29.707 24.157 19.617 16.137 13.557 11.557 10.047 8.987 8.187
1282.771 7.687 7.327 7.097 6.957 6.837 6.977 7.317 7.677 8.057 8.367
1302.060 8.637 8.807 8.857 8.887 8.737 8.447 8.127 7.747 7.427 7.097
1321.350 6.727 6.447 6.287 6.327 6.537 6.877 7.367 7.927 8.657 9.557
1340.640 10.457 11.427 12.417 13.427 14.507 15.737 17.037 18.217 19.267 20.107
1359.930 20.707 21.137 21.487 21.847 22.287 23.017 23.897 24.507 25.007 25.557
1379.219 25.977 26.177 26.247 26.177 25.827 25.127 24.187 23.157 22.027 21.237
1398.509 21.067 21.387 22.287 23.797 25.927 28.597 31.877 35.807 40.167 44.927
1417.799 49.777 54.597 58.787 62.007 63.987 64.637 63.977 62.237 59.527 56.157
1437.089 52.227 48.097 44.007 40.327 37.517 35.747 34.807 34.347 34.297 34.357
1456.378 34.317 34.047 33.577 33.047 32.497 31.837 31.167 30.617 30.087 29.497
1475.668 28.817 27.937 26.997 25.887 24.447 22.847 21.017 18.907 16.657 14.447
1494.958 12.567 10.997 9.717 8.867 8.217 7.677 7.197 6.767 6.487 6.277
1514.248 6.087 5.897 5.687 5.507 5.377 5.197 4.937 4.777 4.687 4.447
1533.538 4.217 4.027 3.897 3.777 3.557 3.377 3.297 3.157 3.097 3.077
1552.827 2.927 2.817 2.827 2.837 2.857 2.847 2.767 2.697 2.717 2.757
1572.117 2.767 2.787 2.787 2.827 2.977 3.127 3.207 3.227 3.297 3.467
1591.407 3.667 3.877 3.947 4.127 4.357 4.457 4.637 4.777 4.947 5.247
1610.697 5.537 5.727 6.027 6.467 6.907 7.387 7.817 8.237 8.777 9.367
1629.986 10.037 10.627 11.347 12.367 13.477 14.797 16.547 18.767 21.767 25.837
1649.276 31.017 37.397 46.127 56.277 67.357 79.917 92.337 103.617 111.887 116.297
1668.566 117.377 116.957 115.377 110.567 100.407 86.857 71.337 56.647 43.487 32.497
1687.856 24.537 18.477 14.317 11.557 9.627 8.267 7.387 6.597 5.997 5.607
1707.146 5.297 4.927 4.637 4.457 4.267 4.077 3.907 3.767 3.677 3.557
1726.435 3.487 3.537 3.507 3.497 3.497 3.417 3.347 3.297 3.187 3.067
1745.725 2.937 2.827 2.687 2.517 2.407 2.307 2.187 2.087 1.947 1.857
1765.015 1.857 1.767 1.707 1.707 1.677 1.667 1.667 1.667 1.667 1.657
1784.305 1.587 1.547 1.607 1.607 1.527 1.457 1.427 1.417 1.387 1.327
1803.594 1.327 1.307 1.257 1.277 1.237 1.1328 1.1659 1.227 1.1657 1.0866
1822.884 1.1325 1.1541 1.1038 1.1187 1.1387 1.1436 1.207 1.237 1.217 1.247
1842.174 1.277 1.277 1.287 1.257 1.227 1.207 1.187 1.1845 1.1732 1.1188
1861.464 1.0811 1.0686 1.1065 1.1051 1.0235 0.9928 1.0239 1.0384 1.0201 1.0436
1880.754 1.0385 0.9983 1.0206 1.0277 1.0379 1.0311 0.9799 0.9589 0.9095 0.9066
1900.043 0.9427 0.927 0.9123 0.8906 0.8843 0.9175 0.9388 0.9646 0.9837 0.9854
1919.333 0.9943 1.0123 0.9916 0.9122 0.8988 0.9427 0.919 0.894 0.8617 0.8457
1938.623 0.8514 0.8713 0.9139 0.9633 0.921 0.8806 0.8611 0.8081 0.8523 0.9255
1957.913 0.9219 0.8971 0.8877 0.8156 0.7497 0.7575 0.8456 0.8229 0.7337 0.7276
1977.202 0.7537 0.7814 0.7695 0.7381 0.7003 0.6457 0.6282 0.6226 0.5978 0.5731
1996.492 0.6121 0.6167 0.5687 0.5265 0.5955 0.6079 0.5221 0.5674 0.541 0.506
2015.782 0.5438 0.5264 0.4664 0.433 0.5002 0.5708 0.5996 0.633 0.5877 0.5484
2035.072 0.5525 0.5313 0.4685 0.4775 0.5176 0.5272 0.5503 0.5773 0.6311 0.6636
2054.362 0.6265 0.5171 0.5566 0.653 0.7033 0.7544 0.7248 0.7158 0.8165 0.9161
2073.651 0.8969 0.9222 0.9737 0.9444 0.9376 1.0286 1.0914 1.0408 0.9909 0.9569
2092.941 0.9792 1.0212 1.0057 0.9747 0.9498 0.8676 0.7964 0.7816 0.7791 0.7723
2112.231 0.7295 0.7416 0.7914 0.802 0.7546 0.7714 0.8312 0.8212 0.8011 0.7657
2131.521 0.8147 0.8093 0.7286 0.7535 0.7388 0.7877 0.7779 0.6618 0.6417 0.6169
2150.810 0.6274 0.7253 0.7876 0.7674 0.7351 0.7161 0.702 0.6574 0.6916 0.7135
2170.100 0.6596 0.7032 0.719 0.6975 0.703 0.7256 0.7456 0.6887 0.6526 0.6292
2189.390 0.6508 0.7029 0.5866 0.5473 0.5969 0.5758 0.5683 0.5346 0.5846 0.5974
2208.680 0.5781 0.5446 0.4575 0.48 0.5304 0.5645 0.5382 0.584 0.6378 0.5804
2227.970 0.6405 0.7328 0.7639 0.727 0.6803 0.7059 0.6897 0.6769 0.6125 0.5613
2247.259 0.5824 0.5938 0.5799 0.5472 0.5519 0.5458 0.4881 0.4406 0.514 0.5522
2266.549 0.4838 0.5234 0.5736 0.5213 0.5032 0.5614 0.5472 0.5214 0.5546 0.4557
2285.839 0.3866 0.482 0.5765 0.5218 0.4758 0.4702 0.4895 0.5624 0.5263 0.5009
2305.129 0.4906 0.502 0.5344 0.4501 0.4736 0.5444 0.5239 0.5505 0.5528 0.4676
2324.418 0.4233 0.5114 0.5731 0.5489 0.5099 0.4645 0.4672 0.452 0.342 0.336
2343.708 0.3763 0.3724 0.4046 0.4994 0.5516 0.5676 0.6392 0.6048 0.6259 0.8006
2362.998 0.8043 0.6484 0.5802 0.6384 0.6729 0.6456 0.6099 0.6215 0.677 0.6962
2382.288 0.7509 0.7958 0.7446 0.7275 0.6866 0.6963 0.7981 0.7855 0.796 0.8549
2401.578 0.7703 0.726 0.7418 0.7173 0.6516 0.5941 0.5506 0.4929 0.5618 0.6142
2420.867 0.5572 0.5218 0.5767 0.5457 0.49 0.5308 0.6104 0.6809 0.6903 0.693
2440.157 0.6689 0.6882 0.7584 0.7973 0.8197 0.8174 0.7643 0.746 0.7211 0.6761
2459.447 0.6849 0.7304 0.7914 0.8096 0.8379 0.8913 0.8695 0.8602 0.9369 0.9104
2478.737 0.852 0.8512 0.8636 0.8495 0.7526 0.7494 0.8561 0.9087 0.9083 0.8381
2498.026 0.739 0.7578 0.8029 0.6875 0.6435 0.6894 0.6993 0.7445 0.7261 0.6274
2517.316 0.6083 0.6785 0.6098 0.5933 0.5947 0.59 0.6536 0.569 0.4708 0.4523
2536.606 0.5246 0.568 0.6192 0.6397 0.5968 0.5266 0.5063 0.5904 0.6451 0.5474
2555.896 0.4492 0.5427 0.5537 0.4856 0.4723 0.4937 0.5321 0.4962 0.4313 0.4905
2575.186 0.556 0.5113 0.5192 0.581 0.5698 0.4945 0.4946 0.5951 0.594 0.4847
2594.475 0.4895 0.5514 0.5968 0.6305 0.5883 0.5519 0.5251 0.4758 0.5217 0.61
2613.765 0.5702 0.4999 0.4929 0.5266 0.5064 0.419 0.4165 0.5011 0.5336 0.5004
2633.055 0.5033 0.4753 0.4164 0.433 0.5581 0.6272 0.4856 0.4303 0.5679 0.6434
2652.345 0.6248 0.5887 0.6165 0.6207 0.6447 0.6561 0.6815 0.7108 0.6386 0.7076
2671.634 0.7541 0.7538 0.7984 0.8214 0.8249 0.9108 0.9219 0.8494 0.8513 0.9353
2690.924 0.9937 1.023 0.9873 0.8629 0.9234 0.938 0.894 0.9233 0.9652 1.029
2710.214 0.964 0.9648 0.9835 0.9656 1.021 0.9597 0.8964 0.917 0.9183 0.9309
2729.504 1.009 1.0918 1.1111 1.1369 1.1566 1.1602 1.1161 1.1186 1.169 1.187
2748.794 1.1685 1.197 1.197 1.197 1.207 1.1474 1.1423 1.0981 1.1387 1.1676
2768.083 1.181 1.0822 1.0074 1.086 1.0817 1.091 1.187 1.337 1.437 1.477
2787.373 1.577 1.617 1.717 1.807 1.737 1.757 1.807 1.737 1.787 1.907
2806.663 1.937 1.977 2.127 2.237 2.277 2.377 2.497 2.617 2.677 2.727
2825.953 2.777 2.857 2.997 3.177 3.287 3.337 3.377 3.577 3.767 3.817
2845.242 4.007 4.247 4.517 4.767 5.007 5.257 5.527 5.987 6.437 6.857
2864.532 7.527 8.327 8.997 9.637 10.507 11.547 12.587 13.517 14.357 14.987
2883.822 15.457 15.867 16.117 16.207 16.257 16.207 16.027 15.957 15.947 16.037
2903.112 16.117 16.127 16.067 16.157 16.257 16.207 16.507 16.897 17.357 17.967
2922.401 18.547 19.587 20.707 21.827 23.277 24.707 26.257 27.547 28.217 28.587
2941.691 28.567 28.297 27.667 26.667 25.667 24.497 23.417 22.727 22.457 22.647
2960.981 23.257 24.217 25.797 27.837 30.017 32.387 34.737 36.847 38.927 40.717
2980.271 41.737 41.857 41.327 40.277 38.517 36.347 33.667 30.937 28.397 25.827
2999.561 23.617 21.737 20.157 19.097 18.687 18.707 18.947 19.387 19.667 19.607
3018.850 19.387 18.847 17.807 16.437 15.217 13.967 12.387 10.637 9.247 8.387
3038.140 7.617 6.937 6.427 6.017 5.857 5.907 5.747 5.627 5.537 5.477
3057.430 5.507 5.387 5.257 5.247 5.117 4.977 4.877 4.827 4.847 4.727
3076.720 4.607 4.547 4.507 4.417 4.467 4.737 5.027 5.287 5.577 5.817
3096.009 5.967 6.107 6.097 5.937 5.677 5.337 4.997 4.627 4.077 3.447
3115.299 3.017 2.677 2.337 2.227 2.287 2.097 1.957 1.917 1.747 1.707
3134.589 1.737 1.647 1.547 1.487 1.467 1.447 1.347 1.227 1.377 1.367
3153.879 1.197 1.247 1.197 1.1515 1.176 1.0667 1.0211 1.1411 1.1574 1.0117
3173.169 0.9433 0.9517 0.9313 0.8061 0.6558 0.7612 0.8805 0.7909 0.6182 0.651
3192.458 0.8386 0.848 0.8307 0.789 0.6548 0.604 0.579 0.4509 0.4675 0.6095
3211.748 0.6025 0.459 0.4443 0.5983 0.5215 0.433 0.5704 0.5526 0.4941 0.4382
3231.038 0.3999 0.4349 0.338 0.3214 0.4423 0.4967 0.3333 0.25823 0.2951 0.2041
3250.328 0.1022 0.176 0.2917 0.4336 0.5785 0.3909 0.2893 0.4708 0.6921 0.7385
3269.617 0.5775 0.4564 0.4211 0.5187 0.5128 0.5479 0.6152 0.4936 0.4501 0.4758
3288.907 0.5685 0.7218 0.6775 0.658 0.7655 0.605 0.6455 0.9018 1.0854 1.1299
3308.197 1.1511 1.317 1.357 1.297 1.257 1.217 1.297 1.417 1.327 1.307
3327.487 1.307 1.357 1.367 1.227 1.0966 1.0139 0.8911 0.8006 0.9133 0.9342
3346.777 0.7018 0.5741 0.6163 0.5888 0.6304 0.6291 0.5396 0.4844 0.4943 0.6098
3366.066 0.511 0.3703 0.4186 0.4115 0.3079 0.3498 0.3522 0.27493 0.3152 0.4933
3385.356 0.5383 0.3647 0.332 0.3455 0.418 0.3424 0.28229 0.4297 0.4686 0.3598
3404.646 0.3943 0.4802 0.4457 0.5267 0.5329 0.467 0.4463 0.365 0.20011 0.1613
3423.936 0.22146 0.26315 0.3145 0.2871 0.2925 0.23289 0.1693 0.1192 0.017 0.012
3443.225 0.077 0.082 0.21861 0.299 0.23247 0.3369 0.3848 0.378 0.4017 0.304
3462.515 0.22962 0.1644 0.0986 0.3278 0.517 0.4582 0.3228 0.22351 0.196894 0.20659
3481.805 0.23499 0.3156 0.3302 0.3116 0.3246 0.276 0.195377 0.3402 0.5041 0.4207
3501.095 0.3497 0.21069 0.194758 0.20464 0.25205 0.4251 0.3934 0.2811 0.23633 0.21028
3520.385 0.1635 0.1207 0.2949 0.417 0.3766 0.3819 0.21026 0.1658 0.19788 0.06
3539.674 0.1031 0.21608 0.3726 0.4251 0.1762 0.22688 0.3087 0.2426 0.3056 0.326
3558.964 0.192896 0.082 0.3196 0.3755 0.23877 0.168 0.193505 0.18513 0.1723 0.22109
3578.254 0.1269 0.20093 0.27441 0.26929 0.3309 0.188044 0.0951 0.22358 0.322 0.26062
3597.544 0.21942 0.25438 0.2972 0.3611 0.3592 0.27976 0.25591 0.1629 0.21367 0.3492
3616.833 0.3042 0.3069 0.27822 0.3699 0.3138 0.188409 0.27765 0.27434 0.21746 0.2109
3636.123 0.17914 0.20273 0.20701 0.0943 0.22098 0.2925 0.20012 0.3239 0.3459 0.3003
3655.413 0.4269 0.4856 0.4112 0.3398 0.3987 0.394 0.3266 0.3224 0.3111 0.3216
3674.703 0.3996 0.4087 0.3667 0.3925 0.3138 0.18409 0.1071 0.0875 0.24197 0.25229
3693.993 0.186881 0.3334 0.2959 0.396 0.4901 0.4241 0.4347 0.4467 0.4385 0.3563
3713.282 0.3097 0.3022 0.3154 0.2906 0.3092 0.1585 0.1127 0.3385 0.28474 0.1523
3732.572 0.1506 0.25455 0.2776 0.23536 0.3128 0.3637 0.3173 0.3201 0.3037 0.22324
3751.862 0.3148 0.20226 0.1013 0.23387 0.27021 0.3232 0.3932 0.4368 0.3608 0.2127
3771.152 0.28221 0.3752 0.388 0.3078 0.2175 0.3546 0.23553 0.190864 0.20193 0.1569
3790.441 0.22592 0.27414 0.3298 0.25418 0.4165 0.4313 0.161 0.085 0.1746 0.3578
3809.731 0.3359 0.19905 0.27772 0.383 0.4086 0.3646 0.3478 0.4091 0.348 0.24472
3829.021 0.24873 0.196561 0.19891 0.3724 0.3258 0.24072 0.2226 0.301 0.4273 0.3017
3848.311 0.192634 0.28354 0.4023 0.5046 0.6256 0.5151 0.3242 0.3167 0.3249 0.21493
3867.601 0.24426 0.3399 0.328 0.2668 0.065 0.0896 0.21094 0.3586 0.5143 0.4237
3886.890 0.4218 0.4765 0.4788 0.5137 0.3958 0.1443 0.3308 0.6717 0.4836 0.3231
3906.180 0.3193 0.24248 0.18208 0.2511 0.428 0.4335 0.343 0.3174 0.411 0.5892
3925.470 0.544 0.4755 0.4699 0.4129 0.1762 0.063 0.3214 0.508 0.43 0.1656
3944.760 0.1607 0.3828 0.518 0.4558 0.2872 0.1759 0.2974 0.4601 0.4016 0.4933
3964.049 0.7015 0.6283 0.3944 0.3957 0.4062 0.25807 0.22476 0.22904 0.3058 0.372
3983.339 0.3303 0.3689 0.6481 0.6556 0.3506 0.3266 0.23251 0.21068 0.4009 0.4326
##END=
