##TITLE=t-Octyl isothiocyanate
##JCAMP-DX=4.24
##DATA TYPE=INFRARED SPECTRUM
##ORIGIN=EPA-IR VAPOR PHASE LIBRARY
##OWNER=SRD/NIST
Collection (C) 2018 copyright by the U.S. Secretary of Commerce
on behalf of the United States of America. All rights reserved.
##CAS REGISTRY NO=17701-76-7
##MOLFORM=C 9 H 17 N S
##$NIST SOURCE=MSDC-IR
##STATE=gas
##XUNITS=1/CM
##YUNITS=ABSORBANCE
##XFACTOR=1.
##YFACTOR=0.001
##DELTAX=1.92898
##FIRSTX=549.8
##LASTX=4000.7
##FIRSTY=17.12
##MAXX=4000.7
##MINX=549.759
##MAXY=0.44519
##MINY=0.00111
##NPOINTS=1790
##XYDATA=(X++(Y..Y))
549.759 17.12 16.56 16.35 16.09 16.14 16.42 16.63 17.36 18.32 19.08
569.049 19.92 20.75 21.45 21.9 21.78 21.2 20.47 19.66 18.8 17.89
588.339 17.09 16.37 15.48 14.91 14.48 13.99 13.64 13.35 12.93 12.15
607.628 11.52 10.9 10.19 9.58 8.84 8.06 7.6 7.28 6.85 6.44
626.918 6.02 5.7 5.6 5.34 4.94 4.77 4.64 4.35 4.08 3.94
646.208 3.78 3.72 3.74 3.88 4.12 4.07 4.03 4.14 4.15 4.2
665.498 4.3 4.36 4.62 4.61 4.33 4.32 4.16 4.09 3.97 3.87
684.787 3.89 3.68 3.61 3.55 3.31 3.2 3.22 3.19 3.23 3.27
704.077 3.17 3.08 3 2.86 2.79 2.88 2.91 2.9 2.86 2.73
723.367 2.68 2.77 2.81 2.91 3 2.99 3.03 3.09 3.21 3.31
742.657 3.32 3.38 3.42 3.37 3.3 3.3 3.29 3.1 2.9 2.85
761.947 2.78 2.68 2.81 2.9 2.84 2.89 2.85 2.77 2.97 3.13
781.236 3.14 3.2 3.26 3.46 3.67 3.84 4.22 4.54 4.71 5.11
800.526 5.59 5.95 6.29 6.58 6.87 7.25 7.69 7.94 7.93 7.72
819.816 7.45 7.02 6.46 6 5.41 4.93 4.65 4.32 4.08 4
839.106 3.91 3.83 3.81 3.93 4.13 4.25 4.48 4.87 5.41 6.06
858.395 6.63 7.18 7.66 7.83 7.81 7.77 7.54 7.17 6.75 6.12
877.685 5.59 5.45 5.43 5.58 5.83 5.99 6.29 6.8 7.48 8.25
896.975 8.88 9.25 9.53 9.69 9.76 9.61 9.47 9.12 8.6 8.27
916.265 7.99 7.66 7.34 7.18 6.97 6.78 6.68 6.5 6.37 6.27
935.555 6.13 6.13 6.03 5.93 5.96 6.02 6.09 6.09 6.1 6.31
954.844 6.75 7.13 7.57 8.06 8.66 9.51 10.3 11.08 11.9 12.57
974.134 13.17 13.59 13.68 13.64 13.53 13.26 13.13 13.26 13.51 14.15
993.424 15.21 16.35 17.47 18.69 19.84 20.62 21.07 21.11 20.6 19.66
1012.714 18.23 16.46 14.64 12.91 11.42 10.33 9.39 8.6 8.04 7.56
1032.003 7.21 6.89 6.63 6.4 6.11 6 5.86 5.58 5.4 5.23
1051.293 5.08 5.04 5.13 5.04 5.02 5.03 4.78 4.8 4.82 4.6
1070.583 4.56 4.56 4.6 4.63 4.68 4.77 4.74 4.84 5.01 5.13
1089.873 4.98 4.76 4.96 5.17 5.42 5.53 5.72 6.1 6.47 7.08
1109.163 7.6 8.12 9 10.37 11.93 13.68 15.54 17.32 19.12 21.12
1128.452 22.85 24.53 26.22 27.63 28.85 29.64 30.09 30.14 29.53 28.3
1147.742 26.77 25.09 23.27 21.33 19.52 17.8 16.17 14.98 14.13 13.5
1167.032 13.13 12.94 12.9 13.01 13.46 14.06 14.69 15.57 16.74 18.23
1186.322 20.13 22.48 25.01 28.17 32.29 36.93 42.63 49 55.78 63.49
1205.611 71.49 79.59 87.26 93.75 98.71 101.52 101.97 99.83 95.3 88.91
1224.901 81.4 73.55 65.96 59.1 53.14 48.04 43.73 40.17 37.02 34.16
1244.191 31.5 28.89 26.38 24.05 21.66 19.45 17.57 15.79 14.3 13.04
1263.481 11.88 10.99 10.26 9.42 8.73 8.22 7.84 7.52 7.12 6.9
1282.771 6.75 6.66 6.58 6.37 6.27 6.21 6.18 6.32 6.48 6.72
1302.060 7.11 7.64 8.3 9.05 9.88 10.8 11.73 12.51 13.03 13.34
1321.350 13.41 13.23 12.89 12.39 11.86 11.46 11.25 11.36 11.85 12.74
1340.640 14.03 15.6 17.22 18.61 19.74 20.67 21.48 22.3 23.06 23.98
1359.930 25.55 27.92 30.83 33.96 37.26 40.97 44.69 45.02 41.58 37.99
1379.219 34.91 31.94 29.06 26.61 24.95 24.1 23.96 24.46 25.25 25.68
1398.509 25.42 24.5 23.13 21.5 19.71 17.56 15.06 12.82 11.2 10.08
1417.799 9.45 9.22 9.17 9.19 9.35 9.67 10.07 10.44 10.85 11.36
1437.089 12 12.72 13.61 14.6 15.71 16.92 18.15 19.44 20.78 21.99
1456.378 23.16 24.39 25.61 26.95 28.43 30.05 31.61 32.96 33.97 34.69
1475.668 34.95 34.64 33.79 32.29 30.21 27.75 24.94 22.04 19.19 16.55
1494.958 14.26 12.29 10.67 9.42 8.46 7.69 7.11 6.66 6.29 5.95
1514.248 5.68 5.43 5.2 4.98 4.75 4.61 4.47 4.34 4.21 4.05
1533.538 3.95 3.85 3.77 3.71 3.6 3.54 3.51 3.4 3.3 3.27
1552.827 3.32 3.3 3.21 3.15 3.14 3.12 3.13 3.14 3.08 3.07
1572.117 3.09 3.09 3.09 3.05 3.07 3.1 3.12 3.14 3.06 3.06
1591.407 3.17 3.17 3.09 3.07 3.11 3.13 3.14 3.12 3.14 3.2
1610.697 3.22 3.24 3.23 3.21 3.23 3.25 3.27 3.28 3.33 3.38
1629.986 3.37 3.34 3.3 3.33 3.38 3.39 3.39 3.41 3.4 3.44
1649.276 3.5 3.48 3.48 3.43 3.4 3.42 3.41 3.44 3.5 3.52
1668.566 3.53 3.54 3.58 3.57 3.52 3.5 3.51 3.5 3.53 3.6
1687.856 3.56 3.54 3.58 3.57 3.55 3.56 3.51 3.52 3.62 3.62
1707.146 3.6 3.63 3.69 3.74 3.74 3.74 3.77 3.73 3.74 3.78
1726.435 3.76 3.82 3.85 3.81 3.79 3.78 3.77 3.8 3.8 3.79
1745.725 3.83 3.86 3.86 3.82 3.83 3.88 3.88 3.87 3.96 4
1765.015 4.03 4.1 4.13 4.14 4.17 4.23 4.29 4.31 4.3 4.31
1784.305 4.32 4.3 4.33 4.35 4.4 4.46 4.45 4.42 4.44 4.45
1803.594 4.47 4.51 4.55 4.61 4.7 4.73 4.78 4.85 4.9 4.97
1822.884 5.03 5.06 5.09 5.12 5.09 5.12 5.2 5.26 5.31 5.38
1842.174 5.48 5.57 5.68 5.8 5.89 5.98 6.1 6.21 6.33 6.43
1861.464 6.56 6.68 6.75 6.92 7.12 7.3 7.52 7.73 7.94 8.19
1880.754 8.48 8.75 9.07 9.46 9.86 10.3 10.75 11.29 11.88 12.43
1900.043 13.02 13.62 14.27 14.96 15.65 16.42 17.19 18 18.88 19.77
1919.333 20.77 21.86 23.07 24.37 25.76 27.28 28.91 30.69 32.64 34.67
1938.623 36.82 39.11 41.49 44.04 46.71 49.47 52.37 55.42 58.61 61.85
1957.913 65.15 68.65 72.32 76.08 79.94 83.94 88.2 92.61 97.1 101.81
1977.202 106.74 111.88 117.18 122.6 128.13 133.71 139.2 144.59 149.74 154.49
1996.492 158.89 162.86 166.27 169.18 171.69 173.83 175.73 177.67 179.82 182.4
2015.782 185.58 189.42 194.07 199.5 205.78 212.95 220.94 229.81 239.57 250.18
2035.072 261.67 273.95 286.96 300.67 314.8 329.26 344.11 359.11 373.85 387.98
2054.362 401.32 413.58 424.29 433.14 439.8 443.86 445.19 443.53 438.85 431.12
2073.651 420.2 406.25 389.43 370.2 349.13 326.94 304.6 283.09 263.34 245.88
2092.941 230.93 218.58 208.45 200.01 192.92 186.89 181.55 176.52 171.63 166.8
2112.231 162.02 157.33 152.74 148.33 144.26 140.59 137.3 134.3 131.69 129.5
2131.521 127.62 125.95 124.47 123.21 122.05 120.91 119.72 118.42 116.89 115.06
2150.810 112.9 110.23 107.06 103.42 99.26 94.64 89.66 84.42 79.02 73.63
2170.100 68.42 63.38 58.65 54.32 50.37 46.72 43.42 40.49 37.83 35.4
2189.390 33.25 31.34 29.58 27.91 26.46 25.27 24.1 23 21.98 21.11
2208.680 20.36 19.64 19.01 18.41 17.82 17.18 16.55 15.99 15.4 14.8
2227.970 14.2 13.61 13.04 12.39 11.74 11.24 10.72 10.22 9.78 9.33
2247.259 8.92 8.55 8.17 7.88 7.64 7.32 7.03 6.8 6.6 6.4
2266.549 6.19 5.98 5.73 5.5 5.31 5.18 5.05 4.9 4.73 4.59
2285.839 4.52 4.44 4.35 4.27 4.17 4.08 4.05 4.03 4 3.91
2305.129 3.82 3.76 3.69 3.61 3.59 3.57 3.52 3.52 3.5 3.43
2324.418 3.41 3.38 3.34 3.36 3.38 3.35 3.32 3.24 3.19 3.19
2343.708 3.18 3.14 3.12 3.07 3.03 3 3 3.01 2.95 2.9
2362.998 2.94 2.94 2.84 2.81 2.83 2.86 2.85 2.83 2.83 2.85
2382.288 2.87 2.89 2.86 2.86 2.92 2.94 2.95 2.99 2.97 3
2401.578 3.02 3 3.09 3.16 3.16 3.17 3.23 3.29 3.26 3.22
2420.867 3.23 3.26 3.25 3.26 3.19 3.11 3.1 3.1 3.09 3.07
2440.157 3.03 3.03 3.05 2.98 2.92 2.88 2.81 2.79 2.82 2.75
2459.447 2.7 2.79 2.8 2.73 2.72 2.75 2.76 2.74 2.72 2.69
2478.737 2.7 2.73 2.76 2.74 2.74 2.77 2.72 2.7 2.75 2.77
2498.026 2.75 2.81 2.88 2.89 2.88 2.86 2.8 2.79 2.84 2.91
2517.316 2.93 2.86 2.86 2.92 2.92 2.9 2.9 2.89 2.84 2.82
2536.606 2.83 2.83 2.85 2.88 2.93 2.94 2.9 2.87 2.86 2.87
2555.896 2.95 3.02 3.02 3 3.02 3.04 3.06 3.08 3.06 3.04
2575.186 3.07 3.1 3.12 3.19 3.21 3.16 3.15 3.21 3.22 3.24
2594.475 3.23 3.22 3.3 3.31 3.33 3.36 3.32 3.35 3.4 3.42
2613.765 3.48 3.49 3.46 3.53 3.53 3.56 3.6 3.65 3.75 3.74
2633.055 3.76 3.85 3.87 3.85 3.9 3.97 4.1 4.22 4.28 4.36
2652.345 4.46 4.54 4.69 4.86 5.06 5.2 5.29 5.48 5.69 5.87
2671.634 6.05 6.31 6.56 6.7 6.83 7.06 7.38 7.63 7.82 8.08
2690.924 8.33 8.54 8.76 8.97 9.09 9.14 9.13 9.13 9.14 9.04
2710.214 8.89 8.72 8.45 8.17 7.9 7.66 7.45 7.2 6.96 6.8
2729.504 6.62 6.4 6.24 6.12 5.96 5.74 5.58 5.46 5.32 5.22
2748.794 5.14 5.07 4.96 4.93 4.91 4.85 4.82 4.8 4.82 4.81
2768.083 4.81 4.79 4.7 4.7 4.78 4.81 4.81 4.8 4.81 4.93
2787.373 5.03 5.13 5.28 5.38 5.51 5.61 5.69 5.86 6.03 6.24
2806.663 6.41 6.6 6.77 6.95 7.23 7.48 7.66 7.79 8.04 8.31
2825.953 8.55 8.84 9.16 9.56 9.89 10.34 11.03 11.58 12.17 12.82
2845.242 13.35 14 14.71 15.48 16.36 17.39 18.68 20.21 22.11 24.4
2864.532 27.01 30.02 33.37 36.86 40.37 43.7 46.64 49.22 51.32 52.84
2883.822 53.9 54.64 55.2 55.76 56.43 57.35 58.63 60.19 62.31 64.95
2903.112 67.88 71.02 74.3 77.55 80.67 83.59 86.15 88.23 89.62 90.56
2922.401 91.46 91.78 90.78 89.36 88.38 87.73 87.65 88.35 89.81 92.06
2941.691 95.28 99.41 104.28 110.03 116.81 124.62 133.35 142.65 151.89 160.36
2960.981 166.75 169.97 169.84 166.54 160.97 154.92 149.85 147.42 148.49 151.63
2980.271 153.93 154.33 153.76 149.29 139.64 126.45 109.16 90.01 73.22 60.62
2999.561 51.76 45.7 41.53 38.66 36.49 34.71 33.06 31.05 28.71 26.04
3018.850 23.23 20.6 18.13 15.81 13.87 12.3 10.91 9.81 9.02 8.41
3038.140 7.9 7.5 7.22 6.9 6.55 6.37 6.23 6.02 5.89 5.8
3057.430 5.69 5.6 5.47 5.4 5.33 5.29 5.27 5.17 5.03 4.95
3076.720 4.9 4.8 4.82 4.88 4.86 4.87 4.77 4.64 4.55 4.5
3096.009 4.47 4.41 4.31 4.22 4.26 4.23 4.08 4.11 4.14 4.03
3115.299 3.9 3.86 3.9 3.81 3.76 3.72 3.6 3.57 3.53 3.54
3134.589 3.56 3.52 3.49 3.47 3.48 3.47 3.37 3.35 3.42 3.42
3153.879 3.4 3.36 3.32 3.31 3.23 3.25 3.32 3.27 3.33 3.33
3173.169 3.28 3.31 3.3 3.29 3.35 3.38 3.34 3.36 3.43 3.43
3192.458 3.39 3.34 3.32 3.33 3.38 3.43 3.42 3.45 3.45 3.43
3211.748 3.39 3.39 3.48 3.44 3.39 3.38 3.28 3.38 3.45 3.28
3231.038 3.14 2.99 3 3.16 3.11 3 2.98 2.94 2.95 2.88
3250.328 2.76 2.82 2.76 2.69 2.74 2.68 2.64 2.58 2.41 2.38
3269.617 2.42 2.35 2.4 2.35 2.25 2.25 2.28 2.22 2.15 2.15
3288.907 2.13 2.18 1.96 1.82 1.93 1.91 1.97 1.95 1.86 1.84
3308.197 1.85 1.85 1.82 1.82 1.82 1.8 1.77 1.76 1.76 1.88
3327.487 2.01 1.98 1.89 1.86 1.88 1.9 1.94 2.01 1.95 1.87
3346.777 1.86 1.92 1.96 1.96 1.96 1.96 1.98 2.01 1.96 1.83
3366.066 1.79 1.84 1.93 1.91 1.75 1.73 1.7 1.68 1.72 1.74
3385.356 1.72 1.68 1.67 1.68 1.62 1.65 1.72 1.69 1.74 1.72
3404.646 1.69 1.68 1.69 1.69 1.58 1.66 1.76 1.64 1.53 1.58
3423.936 1.6 1.58 1.54 1.55 1.59 1.62 1.65 1.64 1.61 1.54
3443.225 1.49 1.62 1.67 1.69 1.78 1.69 1.61 1.63 1.68 1.67
3462.515 1.72 1.72 1.7 1.69 1.66 1.73 1.84 1.82 1.8 1.82
3481.805 1.81 1.85 1.83 1.75 1.74 1.77 1.83 1.94 1.9 1.78
3501.095 1.66 1.61 1.64 1.63 1.61 1.69 1.67 1.65 1.74 1.79
3520.385 1.81 1.8 1.83 1.79 1.73 1.68 1.59 1.61 1.64 1.66
3539.674 1.66 1.63 1.6 1.62 1.66 1.74 1.79 1.68 1.53 1.47
3558.964 1.48 1.56 1.57 1.46 1.48 1.48 1.42 1.37 1.37 1.44
3578.254 1.4 1.23 1.2 1.37 1.37 1.31 1.27 1.29 1.24 1.11
3597.544 1.14 1.15 1.12 1.23 1.31 1.28 1.16 1.21 1.31 1.25
3616.833 1.27 1.34 1.29 1.23 1.2 1.29 1.38 1.3 1.31 1.29
3636.123 1.31 1.27 1.31 1.37 1.28 1.18 1.15 1.29 1.37 1.38
3655.413 1.37 1.39 1.37 1.36 1.39 1.36 1.31 1.35 1.46 1.42
3674.703 1.41 1.41 1.41 1.43 1.4 1.45 1.43 1.34 1.25 1.32
3693.993 1.41 1.36 1.31 1.37 1.42 1.26 1.28 1.39 1.32 1.29
3713.282 1.29 1.29 1.23 1.3 1.35 1.33 1.44 1.43 1.45 1.42
3732.572 1.36 1.35 1.31 1.41 1.42 1.42 1.45 1.42 1.43 1.42
3751.862 1.37 1.43 1.54 1.61 1.67 1.6 1.55 1.51 1.53 1.47
3771.152 1.5 1.47 1.41 1.5 1.45 1.43 1.53 1.64 1.49 1.35
3790.441 1.49 1.62 1.59 1.49 1.63 1.78 1.67 1.71 1.73 1.59
3809.731 1.44 1.38 1.47 1.69 1.78 1.69 1.71 1.74 1.75 1.73
3829.021 1.67 1.71 1.77 1.63 1.61 1.63 1.51 1.61 1.78 1.85
3848.311 1.81 1.73 1.66 1.81 1.89 1.78 1.85 1.91 1.86 1.8
3867.601 1.82 1.93 1.97 1.98 2.01 2.03 1.99 2.03 2.04 2.04
3886.890 2.14 2.19 2.17 2.23 2.28 2.25 2.2 2.16 2.22 2.3
3906.180 2.34 2.28 2.3 2.35 2.43 2.42 2.32 2.34 2.36 2.27
3925.470 2.24 2.18 2.2 2.41 2.59 2.69 2.57 2.57 2.7 2.65
3944.760 2.65 2.65 2.76 2.8 2.68 2.56 2.48 2.69 2.84 2.77
3964.049 2.86 2.88 2.77 2.73 2.73 2.82 2.88 2.82 2.83 2.89
3983.339 2.89 3.05 3.14 3.09 3.14 3.01 2.76 2.9 2.95 2.83
##END=
