##TITLE=3-Methoxypropyl isothiocyanate
##JCAMP-DX=4.24
##DATA TYPE=INFRARED SPECTRUM
##ORIGIN=EPA-IR VAPOR PHASE LIBRARY
##OWNER=SRD/NIST
Collection (C) 2018 copyright by the U.S. Secretary of Commerce
on behalf of the United States of America. All rights reserved.
##CAS REGISTRY NO=17702-11-3
##MOLFORM=C 5 H 9 N O S
##$NIST SOURCE=MSDC-IR
##STATE=gas
##XUNITS=1/CM
##YUNITS=ABSORBANCE
##XFACTOR=1.
##YFACTOR=0.001
##DELTAX=1.92898
##FIRSTX=549.8
##LASTX=4000.7
##FIRSTY=8.989
##MAXX=4000.7
##MINX=549.759
##MAXY=0.372129
##MINY=0
##NPOINTS=1790
##XYDATA=(X++(Y..Y))
549.759 8.989 8.609 8.809 9.009 8.759 8.419 8.309 8.479 8.609 8.369
569.049 7.999 7.699 7.289 7.119 7.349 7.239 7.009 6.909 6.509 5.979
588.339 5.569 5.259 5.149 4.969 4.539 4.279 4.309 4.139 3.869 4.029
607.628 3.889 3.709 3.859 3.669 3.319 3.049 2.789 2.629 2.719 2.609
626.918 2.679 2.909 2.759 2.759 2.809 2.969 3.059 3.049 3.129 2.959
646.208 2.799 3.119 3.639 3.809 3.659 3.669 4.039 4.219 4.159 4.259
665.498 4.189 3.959 3.969 3.959 3.839 3.719 3.519 3.399 3.429 3.389
684.787 3.259 3.239 3.359 3.419 3.469 3.689 4.009 4.159 4.229 4.469
704.077 4.509 4.189 4.149 4.269 4.129 3.919 3.639 3.409 3.329 3.079
723.367 2.609 2.359 2.159 1.839 1.639 1.639 1.629 1.4989 1.2636 1.2326
742.657 1.3408 1.3838 1.4573 1.493 1.539 1.4772 1.4468 1.669 1.669 1.599
761.947 1.849 2.119 2.079 2.069 2.319 2.429 2.429 2.679 2.859 2.999
781.236 3.259 3.309 3.389 3.549 3.529 3.359 3.399 3.269 2.829 2.849
800.526 2.869 2.409 2.029 1.819 1.909 1.759 1.539 1.579 1.524 1.609
819.816 1.589 1.609 1.879 1.769 1.579 1.649 1.559 1.569 1.749 1.839
839.106 1.829 2.059 2.119 2.169 2.399 2.359 2.449 2.709 2.819 3.119
858.395 3.559 3.719 3.719 3.859 4.069 4.199 4.259 4.359 4.539 4.519
877.685 4.379 4.389 4.559 4.539 4.409 4.579 4.869 5.029 5.159 5.489
896.975 5.939 6.199 6.209 6.429 6.729 6.879 7.319 7.519 7.339 7.229
916.265 7.009 6.779 6.639 6.419 6.129 5.909 5.729 5.609 5.439 5.419
935.555 5.099 4.809 4.889 4.629 4.429 4.399 4.489 4.809 4.799 4.649
954.844 4.599 4.619 4.709 4.759 4.859 4.959 5.069 5.259 5.499 5.689
974.134 5.819 6.129 6.469 6.709 6.779 6.899 7.049 7.099 7.359 7.609
993.424 7.979 8.199 8.209 8.479 8.689 8.579 8.679 8.969 8.989 9.179
1012.714 9.139 8.929 8.989 8.859 8.679 8.269 8.049 8.079 8.209 8.209
1032.003 8.259 8.409 8.579 8.949 9.329 9.569 9.719 10.379 11.069 11.359
1051.293 11.649 11.859 12.459 13.439 13.909 14.239 14.639 15.339 16.299 16.969
1070.583 17.789 18.669 19.469 20.919 22.419 23.609 24.939 26.009 27.409 29.039
1089.873 30.479 32.239 34.069 36.429 39.079 41.899 45.159 48.589 52.739 57.229
1109.163 62.099 67.619 73.329 78.869 84.219 89.839 94.459 97.359 99.519 100.409
1128.452 99.509 96.969 93.219 88.279 81.759 74.389 66.869 59.949 53.839 48.069
1147.742 42.749 38.699 35.679 33.039 30.789 28.849 27.109 25.819 24.669 23.969
1167.032 23.649 23.089 22.669 22.879 23.489 23.689 24.149 25.159 26.229 26.939
1186.322 27.079 27.089 27.029 26.979 26.499 25.839 24.729 22.929 21.299 19.709
1205.611 18.719 17.849 16.409 15.249 14.499 14.079 13.869 13.749 13.519 13.039
1224.901 13.169 13.469 13.259 13.399 13.409 12.969 12.199 11.469 10.919 10.309
1244.191 9.809 9.309 8.989 8.829 8.699 8.649 8.589 8.349 8.299 8.259
1263.481 8.059 8.079 7.799 7.509 7.499 7.329 7.389 7.699 7.889 8.069
1282.771 8.279 8.619 8.979 9.239 9.569 9.979 10.509 11.179 11.939 12.739
1302.060 13.659 14.649 15.549 16.329 16.879 17.259 17.609 17.919 18.129 18.349
1321.350 18.779 19.439 20.559 22.269 24.539 27.309 30.719 34.549 38.409 41.949
1340.640 44.699 46.509 47.539 47.909 47.489 46.379 44.459 41.529 38.019 34.619
1359.930 31.859 29.759 27.989 26.569 25.369 24.299 23.439 22.809 22.299 21.969
1379.219 21.879 21.979 22.159 22.319 22.339 22.079 21.529 20.719 19.629 18.409
1398.509 17.039 15.559 14.169 12.879 11.759 10.759 9.859 9.139 8.689 8.409
1417.799 8.289 8.399 8.609 8.859 9.279 9.759 10.289 10.909 11.519 12.259
1437.089 13.089 13.919 14.769 15.649 16.779 18.299 20.239 22.649 25.359 27.979
1456.378 30.159 31.649 32.459 32.709 32.479 31.629 29.959 27.189 23.439 19.559
1475.668 16.299 13.909 12.219 10.969 10.039 9.169 8.319 7.619 6.929 6.319
1494.958 5.759 5.219 4.789 4.469 4.119 3.769 3.569 3.419 3.239 3.029
1514.248 2.889 2.789 2.669 2.459 2.369 2.379 2.339 2.289 2.249 2.199
1533.538 2.119 2.069 2.099 2.069 1.989 1.959 1.929 1.929 1.909 1.819
1552.827 1.779 1.789 1.739 1.719 1.739 1.689 1.629 1.609 1.539 1.5253
1572.117 1.599 1.619 1.579 1.5296 1.5024 1.4992 1.4456 1.4042 1.4155 1.3381
1591.407 1.3102 1.337 1.257 1.2341 1.2889 1.2917 1.2677 1.3157 1.354 1.3231
1610.697 1.2986 1.2568 1.2487 1.2148 1.228 1.2067 1.1086 1.1652 1.1791 1.1478
1629.986 1.119 1.1285 1.1385 1.1527 1.1953 1.1807 1.2346 1.3578 1.3749 1.2471
1649.276 1.1712 1.1486 1.1608 1.1804 1.1525 1.124 1.0691 1.1165 1.1554 1.0458
1668.566 1.0599 1.0544 1.0062 0.9672 0.9131 0.9411 0.9354 0.9552 0.9855 0.9644
1687.856 0.967 0.9978 0.9961 0.9834 1.0001 1.0085 0.9214 0.9164 0.9125 0.8882
1707.146 1.0081 1.024 0.9883 0.987 1.0259 1.0259 0.9599 0.9788 0.9814 0.998
1726.435 1.0015 1.002 0.9955 0.9566 0.9598 0.9848 1.0457 1.05 1.0707 1.0911
1745.725 1.0879 1.0701 0.9784 0.9906 1.0563 1.0889 1.1309 1.1104 1.1066 1.0881
1765.015 1.1326 1.2135 1.1759 1.1875 1.2498 1.1862 1.1125 1.1359 1.1822 1.1845
1784.305 1.197 1.2002 1.1756 1.1824 1.2056 1.1866 1.1691 1.203 1.2338 1.2344
1803.594 1.2027 1.2297 1.3252 1.3621 1.3339 1.3813 1.3981 1.428 1.4808 1.4604
1822.884 1.4959 1.5161 1.549 1.579 1.629 1.649 1.649 1.719 1.739 1.809
1842.174 1.879 1.899 1.969 2.069 2.099 2.169 2.309 2.399 2.479 2.539
1861.464 2.649 2.789 2.859 2.989 3.219 3.369 3.389 3.539 3.759 3.849
1880.754 4.019 4.259 4.389 4.599 4.889 5.119 5.269 5.489 5.819 6.079
1900.043 6.299 6.619 6.959 7.299 7.639 7.969 8.349 8.719 9.129 9.529
1919.333 9.919 10.439 10.949 11.429 11.929 12.479 13.139 13.769 14.359 14.969
1938.623 15.669 16.439 17.129 17.859 18.699 19.589 20.539 21.559 22.599 23.659
1957.913 24.849 26.039 27.249 28.649 30.099 31.599 33.189 34.849 36.619 38.519
1977.202 40.589 42.869 45.189 47.689 50.509 53.459 56.679 60.069 63.729 67.699
1996.492 71.999 76.609 81.409 86.619 92.249 98.219 104.559 111.289 118.389 125.919
2015.782 133.899 142.339 151.239 160.599 170.589 181.229 192.399 204.159 216.479 229.379
2035.072 242.699 256.349 270.279 284.239 298.049 311.389 323.849 335.399 345.889 354.849
2054.362 362.009 367.399 370.929 372.129 371.239 368.559 364.089 357.999 350.229 340.969
2073.651 330.379 318.379 305.109 290.919 275.909 260.389 244.739 229.249 214.189 199.829
2092.941 186.609 174.549 163.599 153.999 145.729 138.529 132.359 127.039 122.539 118.709
2112.231 115.279 112.239 109.419 106.749 104.199 101.749 99.319 96.779 94.229 91.639
2131.521 88.999 86.409 83.839 81.269 78.709 76.259 74.139 72.109 70.139 68.319
2150.810 66.609 65.059 63.649 62.379 61.129 60.049 59.069 58.159 57.249 56.279
2170.100 55.389 54.479 53.589 52.689 51.809 50.869 49.909 49.059 48.199 47.389
2189.390 46.719 46.129 45.509 44.849 44.179 43.669 43.069 42.389 41.749 40.969
2208.680 40.119 39.279 38.339 37.149 35.959 34.749 33.399 31.979 30.439 28.819
2227.970 27.269 25.819 24.389 23.049 21.779 20.529 19.369 18.279 17.239 16.249
2247.259 15.279 14.529 13.749 12.999 12.339 11.729 11.239 10.709 10.159 9.639
2266.549 9.219 8.769 8.409 8.089 7.679 7.319 7.049 6.729 6.469 6.279
2285.839 5.989 5.809 5.669 5.389 5.209 5.099 4.879 4.719 4.639 4.469
2305.129 4.309 4.169 4.049 3.979 3.889 3.749 3.669 3.559 3.409 3.319
2324.418 3.279 3.189 2.979 2.879 2.859 2.839 2.789 2.669 2.579 2.509
2343.708 2.449 2.359 2.339 2.309 2.259 2.289 2.299 2.269 2.179 2.139
2362.998 2.089 2.019 2.029 1.959 1.929 1.969 1.929 1.909 1.909 1.849
2382.288 1.899 1.979 1.889 1.789 1.719 1.719 1.699 1.599 1.549 1.5076
2401.578 1.579 1.569 1.539 1.569 1.549 1.559 1.569 1.5184 1.4525 1.426
2420.867 1.4172 1.4736 1.4414 1.3761 1.4029 1.3813 1.3828 1.4064 1.4075 1.4171
2440.157 1.3872 1.3688 1.5073 1.569 1.444 1.3927 1.3572 1.3555 1.3878 1.3557
2459.447 1.3672 1.4461 1.4446 1.355 1.2884 1.3625 1.4837 1.5231 1.5188 1.4813
2478.737 1.4801 1.5289 1.539 1.549 1.528 1.569 1.559 1.619 1.719 1.639
2498.026 1.649 1.619 1.539 1.609 1.699 1.639 1.609 1.649 1.689 1.719
2517.316 1.709 1.779 1.829 1.759 1.749 1.779 1.779 1.719 1.749 1.789
2536.606 1.809 1.869 1.899 1.939 1.939 2.029 2.009 1.939 2.019 2.099
2555.896 2.149 2.149 2.159 2.169 2.189 2.189 2.189 2.229 2.249 2.219
2575.186 2.309 2.369 2.349 2.429 2.449 2.469 2.539 2.599 2.549 2.519
2594.475 2.549 2.579 2.609 2.639 2.619 2.629 2.599 2.549 2.639 2.649
2613.765 2.579 2.539 2.549 2.469 2.449 2.439 2.239 2.209 2.309 2.299
2633.055 2.339 2.399 2.299 2.199 2.159 2.209 2.209 2.179 2.269 2.279
2652.345 2.269 2.399 2.359 2.359 2.499 2.529 2.559 2.669 2.859 2.959
2671.634 2.949 2.989 3.189 3.379 3.409 3.489 3.689 3.739 3.879 4.069
2690.924 4.129 4.169 4.399 4.639 4.669 4.829 5.119 5.369 5.669 5.849
2710.214 6.049 6.379 6.579 6.839 7.179 7.429 7.639 7.899 8.239 8.449
2729.504 8.649 8.889 8.969 9.149 9.209 9.249 9.389 9.259 9.119 9.149
2748.794 9.139 9.139 9.109 8.949 8.919 9.029 8.979 8.889 8.839 8.859
2768.083 8.769 8.609 8.599 8.619 8.609 8.619 8.619 8.679 8.789 9.009
2787.373 9.309 9.529 9.819 10.239 10.779 11.389 11.939 12.609 13.489 14.499
2806.663 15.849 17.269 18.739 20.469 22.229 23.789 25.219 26.599 27.989 29.449
2825.953 30.849 32.139 33.209 33.929 34.249 34.529 34.759 34.819 34.769 34.489
2845.242 34.119 33.909 33.659 33.399 33.549 34.039 34.759 35.639 36.649 37.869
2864.532 39.289 40.879 42.579 44.439 46.369 48.259 50.239 52.239 53.929 55.159
2883.822 56.059 56.629 56.949 56.739 55.909 54.619 52.729 50.739 48.969 47.259
2903.112 45.889 44.789 43.759 42.969 42.309 41.729 41.469 41.459 41.869 42.879
2922.401 44.419 46.139 47.929 49.799 51.549 53.059 54.269 55.169 55.829 56.259
2941.691 56.529 56.789 57.099 57.579 58.129 58.599 58.739 58.609 58.409 58.069
2960.981 57.579 56.619 54.969 52.489 49.549 46.739 43.909 41.109 38.509 36.039
2980.271 33.869 32.029 30.539 29.519 28.879 28.329 27.659 26.899 25.999 24.939
2999.561 23.529 21.929 20.409 18.759 16.929 15.179 13.769 12.479 11.349 10.299
3018.850 9.309 8.509 7.839 7.309 6.759 6.329 6.029 5.809 5.499 5.319
3038.140 5.189 4.949 4.799 4.599 4.469 4.219 4.029 4.029 3.929 3.809
3057.430 3.609 3.549 3.509 3.359 3.379 3.459 3.329 3.129 3.059 2.989
3076.720 2.869 2.869 2.769 2.489 2.399 2.569 2.679 2.599 2.419 2.359
3096.009 2.389 2.269 2.149 1.999 2.099 2.139 1.919 1.849 1.779 1.719
3115.299 1.789 1.819 1.749 1.629 1.5341 1.4917 1.4765 1.4341 1.3772 1.3891
3134.589 1.3864 1.2206 1.2533 1.3405 1.1695 1.0322 1.0735 1.0287 0.903 0.8777
3153.879 0.7852 0.8378 0.8429 0.8226 1.0005 1.0575 1.033 0.9915 1.0136 0.885
3173.169 0.8241 0.9169 0.8157 0.6758 0.715 0.8166 0.7738 0.7937 0.7306 0.60183
3192.458 0.55821 0.6058 0.6917 0.4896 0.416 0.57722 0.60053 0.56697 0.5591 0.59379
3211.748 0.6423 0.684 0.6715 0.6967 0.58176 0.4477 0.56609 0.56551 0.427 0.5204
3231.038 0.55043 0.376 0.337 0.369 0.37 0.334 0.283 0.402 0.438 0.311
3250.328 0.26 0.292 0.42 0.4401 0.29 0.303 0.491 0.441 0.241 0.242
3269.617 0.42 0.4973 0.385 0.4484 0.371 0.225 0.306 0.329 0.338 0.4406
3288.907 0.4784 0.319 0.263 0.325 0.322 0.22 0.24 0.299 0.245 0.256
3308.197 0.356 0.357 0.204 0.289 0.326 0.306 0.43 0.354 0.274 0.164
3327.487 0.169 0.256 0.283 0.326 0.356 0.27 0.266 0.343 0.411 0.4663
3346.777 0.378 0.307 0.35 0.245 0.197 0.328 0.365 0.4585 0.386 0.172
3366.066 0.233 0.413 0.354 0.249 0.31 0.37 0.393 0.423 0.424 0.382
3385.356 0.364 0.352 0.375 0.4781 0.411 0.257 0.157 0.259 0.366 0.334
3404.646 0.265 0.206 0.335 0.31 0.139 0.252 0.417 0.4517 0.388 0.375
3423.936 0.252 0.147 0.238 0.362 0.324 0.311 0.4736 0.38 0.303 0.37
3443.225 0.378 0.326 0.267 0.306 0.407 0.304 0.22 0.417 0.4943 0.353
3462.515 0.359 0.34 0.183 0.25 0.321 0.352 0.382 0.317 0.278 0.363
3481.805 0.45 0.319 0.269 0.298 0.244 0.136 0.035 0.19 0.325 0.28
3501.095 0.29 0.166 0.016 0.222 0.417 0.231 0.096 0.302 0.346 0.255
3520.385 0.288 0.209 0.224 0.247 0.315 0.364 0.255 0.269 0.283 0.218
3539.674 0.086 0.166 0.263 0.05 0.088 0.279 0.309 0.311 0.253 0.271
3558.964 0.168 0.095 0.305 0.4504 0.338 0.235 0.359 0.4711 0.289 0.153
3578.254 0.322 0.365 0.301 0.303 0.326 0.435 0.63365 0.539914 0.307 0.254
3597.544 0.187 0.125 0.248 0.27 0.245 0.179 0.217 0.441 0.388 0.286
3616.833 0.283 0.176 0.178 0.269 0.218 0.327 0.42 0.333 0.231 0.29
3636.123 0.376 0.353 0.372 0.293 0.18 0.218 0.304 0.201 0.131 0.272
3655.413 0.285 0.282 0.25 0.357 0.56787 0.4678 0.259 0.209 0.296 0.286
3674.703 0.183 0.062 0.261 0.5044 0.387 0.34 0.249 0.121 0.26 0.348
3693.993 0.276 0.303 0.386 0.339 0.236 0.334 0.237 0 0.263 0.401
3713.282 0.36 0.448 0.4791 0.4748 0.287 0.248 0.378 0.379 0.5254 0.57991
3732.572 0.408 0.252 0.372 0.5201 0.376 0.387 0.53692 0.56855 0.5155 0.4882
3751.862 0.57561 0.53183 0.371 0.363 0.4399 0.4551 0.392 0.4447 0.4736 0.426
3771.152 0.4482 0.6594 0.7114 0.4878 0.423 0.364 0.4615 0.60725 0.4948 0.318
3790.441 0.407 0.4945 0.4761 0.5525 0.6875 0.6952 0.522 0.4571 0.5281 0.5059
3809.731 0.4448 0.59643 0.61439 0.6588 0.6488 0.4659 0.57136 0.56826 0.264 0.238
3829.021 0.4808 0.58587 0.431 0.264 0.4532 0.6245 0.58714 0.7338 0.7752 0.57618
3848.311 0.428 0.377 0.63595 0.8069 0.55183 0.58012 0.59957 0.63292 0.7252 0.61165
3867.601 0.55252 0.5136 0.407 0.4 0.5176 0.6835 0.8532 0.6411 0.4651 0.59798
3886.890 0.7277 0.8037 0.695 0.54945 0.58574 0.6694 0.5885 0.4881 0.405 0.59607
3906.180 0.708 0.6613 0.8623 0.8003 0.7759 0.7965 0.8336 1.0274 0.9986 0.9846
3925.470 1.1408 1.1719 1.0971 1.0734 1.0411 1.1897 1.3512 1.2622 1.3067 1.2427
3944.760 1.1481 1.2344 1.174 1.2189 1.2862 1.1577 1.2105 1.3273 1.2288 1.2906
3964.049 1.3376 1.3791 1.3806 1.2426 1.2773 1.4313 1.4453 1.5077 1.589 1.589
3983.339 1.599 1.589 1.689 1.869 1.929 1.899 1.879 1.779 1.649 1.719
##END=
