##TITLE=N-(8-Bromooctyl)phthalimide
##JCAMP-DX=4.24
##DATA TYPE=INFRARED SPECTRUM
##ORIGIN=EPA-IR VAPOR PHASE LIBRARY
##OWNER=SRD/NIST
Collection (C) 2018 copyright by the U.S. Secretary of Commerce
on behalf of the United States of America. All rights reserved.
##CAS REGISTRY NO=17702-83-9
##MOLFORM=C 16 H 20 Br N O 2
##$NIST SOURCE=MSDC-IR
##STATE=gas
##XUNITS=1/CM
##YUNITS=ABSORBANCE
##XFACTOR=1.
##YFACTOR=0.001
##DELTAX=1.92898
##FIRSTX=549.8
##LASTX=4000.7
##FIRSTY=6.244
##MAXX=4000.7
##MINX=549.759
##MAXY=0.370864
##MINY=0
##NPOINTS=1790
##XYDATA=(X++(Y..Y))
549.759 6.244 5.984 5.304 4.664 4.424 4.494 4.394 4.404 4.364 4.304
569.049 4.564 4.574 4.244 3.834 3.424 2.804 2.554 2.524 2.154 2.004
588.339 2.054 2.114 2.294 2.344 2.044 1.844 2.124 2.554 2.774 2.834
607.628 2.974 3.254 3.724 4.364 4.894 5.414 5.714 5.454 4.624 3.704
626.918 3.014 2.604 2.764 2.994 3.044 3.154 3.434 3.734 4.214 4.744
646.208 5.084 5.274 5.354 5.224 4.984 4.674 4.044 3.294 2.714 2.364
665.498 2.054 1.944 1.804 1.714 1.814 1.884 1.994 2.194 2.414 2.714
684.787 3.254 3.834 4.614 5.594 6.524 7.384 8.114 9.074 10.744 13.094
704.077 16.264 20.484 26.704 35.654 48.004 62.864 74.574 77.134 69.434 55.574
723.367 42.064 31.954 24.854 19.664 15.684 12.994 11.264 9.794 8.544 7.764
742.657 7.314 6.924 6.534 6.244 6.024 5.654 5.454 5.394 5.124 4.794
761.947 4.594 4.674 4.624 4.394 4.304 4.304 4.294 4.484 4.684 4.884
781.236 5.224 5.594 6.074 6.304 5.964 5.364 4.564 3.914 3.374 2.994
800.526 2.924 2.734 2.504 2.354 2.214 2.304 2.434 2.304 2.094 2.004
819.816 2.034 2.174 2.344 2.404 2.264 2.254 2.414 2.454 2.344 2.184
839.106 2.164 2.274 2.484 2.584 2.694 2.794 2.844 3.004 3.264 3.564
858.395 3.844 4.174 4.654 5.124 5.434 5.764 6.044 6.284 6.444 6.494
877.685 6.484 6.634 6.754 6.814 6.794 6.544 6.224 6.014 6.014 6.024
896.975 5.954 5.884 6.004 5.964 5.884 5.924 6.114 6.454 6.484 6.594
916.265 6.854 7.014 7.224 7.434 7.544 7.474 7.424 7.164 7.034 7.084
935.555 6.984 6.874 6.954 6.974 6.814 6.594 6.534 6.714 6.844 6.844
954.844 6.934 6.964 6.794 6.774 6.764 6.724 6.574 6.404 6.334 6.414
974.134 6.604 6.704 6.694 7.044 7.434 7.934 8.544 9.004 9.444 9.994
993.424 10.464 10.874 11.384 11.794 12.084 12.074 11.974 12.004 12.134 11.944
1012.714 11.314 10.744 10.654 10.554 10.304 10.114 9.914 10.004 10.344 10.854
1032.003 11.514 12.214 13.174 14.244 15.234 16.594 18.434 19.944 21.314 22.444
1051.293 22.664 22.794 22.684 21.934 20.994 19.814 18.744 17.804 16.384 15.064
1070.583 14.314 13.464 12.474 12.174 11.944 11.074 10.974 10.954 10.464 10.444
1089.873 10.134 9.574 9.104 8.584 8.054 7.934 8.274 8.374 8.194 8.274
1109.163 8.514 8.484 8.214 8.314 8.174 7.554 7.194 6.704 6.494 6.454
1128.452 6.124 5.704 5.474 5.624 5.414 5.054 4.854 4.624 4.464 4.444
1147.742 4.704 5.004 5.344 6.044 6.714 7.024 6.994 6.374 6.424 7.054
1167.032 7.394 8.084 8.864 9.694 10.264 10.704 11.484 12.014 12.284 12.604
1186.322 12.704 12.084 10.894 9.724 8.794 8.284 8.044 8.004 8.154 7.904
1205.611 7.884 8.554 9.094 9.394 9.714 9.964 10.474 11.004 11.214 11.484
1224.901 11.754 12.034 12.044 12.024 12.284 12.264 12.124 11.974 11.904 12.064
1244.191 12.374 12.474 12.634 13.134 13.534 13.964 14.484 14.554 14.284 14.104
1263.481 13.834 13.574 13.294 13.124 13.064 12.844 12.724 12.804 12.974 13.224
1282.771 13.644 14.174 14.724 15.354 16.084 16.644 17.154 17.694 18.254 18.784
1302.060 19.194 19.654 20.254 20.994 21.804 22.714 23.884 25.284 26.854 28.484
1321.350 30.114 31.474 32.624 33.714 34.734 35.854 37.364 39.244 41.624 44.714
1340.640 48.524 53.174 58.624 64.914 71.974 79.374 86.754 93.684 99.824 104.694
1359.930 108.084 109.914 109.924 108.054 104.424 99.084 92.274 84.604 77.234 71.674
1379.219 69.064 70.174 75.064 82.884 92.174 100.644 105.384 104.604 98.054 87.514
1398.509 75.674 64.754 55.814 48.554 42.554 37.314 32.734 28.744 25.424 22.574
1417.799 20.314 18.644 17.474 16.784 16.544 16.814 17.624 18.964 20.884 23.384
1437.089 26.554 29.884 32.734 34.514 34.814 33.674 31.494 29.044 26.894 25.274
1456.378 24.034 23.134 22.534 22.164 21.954 21.654 20.964 19.464 17.164 14.404
1475.668 11.824 9.654 8.014 6.894 6.094 5.494 5.034 4.714 4.374 4.084
1494.958 3.894 3.704 3.574 3.524 3.464 3.364 3.294 3.274 3.274 3.274
1514.248 3.364 3.424 3.474 3.474 3.414 3.364 3.274 3.194 3.104 3.024
1533.538 2.954 2.794 2.774 2.814 2.734 2.654 2.544 2.454 2.434 2.474
1552.827 2.544 2.514 2.534 2.634 2.644 2.564 2.584 2.694 2.864 3.014
1572.117 3.094 3.294 3.434 3.514 3.614 3.784 3.994 4.194 4.474 4.754
1591.407 4.834 4.944 5.124 5.164 5.174 5.274 5.594 5.974 6.354 6.674
1610.697 6.794 6.644 6.394 6.074 5.584 4.984 4.414 3.904 3.524 3.314
1629.986 3.104 2.874 2.824 2.824 2.754 2.714 2.684 2.684 2.704 2.684
1649.276 2.794 2.974 3.104 3.194 3.314 3.384 3.534 3.784 4.004 4.294
1668.566 4.684 5.034 5.354 5.694 6.164 6.624 7.194 7.924 8.764 9.694
1687.856 10.804 12.264 13.914 15.844 18.204 20.794 23.714 26.974 30.124 33.784
1707.146 37.994 43.184 49.894 58.734 70.834 87.244 110.004 139.554 178.154 225.434
1726.435 277.774 327.164 362.234 370.864 348.934 304.704 249.824 193.754 147.444 111.994
1745.725 86.354 68.114 55.054 45.524 38.744 33.954 30.484 27.994 26.284 25.254
1765.015 24.754 24.874 25.714 27.174 29.444 32.644 36.674 41.114 45.434 48.324
1784.305 48.314 45.034 39.124 32.154 25.534 20.114 16.184 13.264 11.144 9.674
1803.594 8.544 7.634 6.914 6.294 5.844 5.514 5.204 4.904 4.674 4.484
1822.884 4.384 4.284 4.194 4.124 4.114 4.184 4.174 4.154 4.114 4.014
1842.174 3.914 3.784 3.564 3.304 3.094 2.974 2.844 2.714 2.654 2.624
1861.464 2.634 2.654 2.704 2.774 2.834 2.844 2.804 2.634 2.474 2.404
1880.754 2.274 2.134 2.034 1.974 2.014 2.034 1.994 2.004 1.994 2.014
1900.043 2.084 2.134 2.154 2.184 2.204 2.234 2.234 2.174 2.114 2.034
1919.333 1.974 1.924 1.874 1.904 1.974 2.034 2.144 2.244 2.374 2.464
1938.623 2.434 2.374 2.264 2.074 1.914 1.764 1.584 1.444 1.404 1.384
1957.913 1.404 1.474 1.574 1.694 1.854 1.994 2.054 2.064 1.954 1.794
1977.202 1.604 1.394 1.2008 1.0588 1.0006 1.0178 1.0085 0.9878 1.0032 0.9602
1996.492 0.9425 0.9518 0.9373 0.9446 0.8925 0.831 0.8939 0.893 0.8939 0.9296
2015.782 0.9667 0.9683 0.9085 0.8771 0.8303 0.8335 0.8497 0.8704 0.9133 0.8907
2035.072 0.854 0.8386 0.8408 0.8831 0.9182 0.8956 0.8692 0.8542 0.8788 0.9151
2054.362 0.9201 0.9018 0.8961 0.8983 0.8799 0.8578 0.869 0.886 0.8644 0.8579
2073.651 0.8548 0.8849 0.8453 0.8201 0.8782 0.8269 0.8114 0.8651 0.8718 0.8595
2092.941 0.8472 0.8349 0.8336 0.8224 0.832 0.8125 0.7851 0.8332 0.7949 0.7887
2112.231 0.7922 0.7271 0.7028 0.7341 0.8137 0.806 0.7248 0.7573 0.7968 0.7703
2131.521 0.7661 0.8283 0.9002 0.8528 0.794 0.8111 0.7996 0.7653 0.7763 0.8287
2150.810 0.8763 0.8495 0.7982 0.7326 0.7888 0.8657 0.8218 0.7852 0.8325 0.8557
2170.100 0.8925 0.9441 0.8588 0.7959 0.8145 0.8487 0.7927 0.7266 0.7121 0.6926
2189.390 0.7087 0.7336 0.6922 0.6502 0.6633 0.6637 0.6586 0.6788 0.7047 0.6782
2208.680 0.671 0.6894 0.6996 0.7011 0.6981 0.7207 0.7248 0.7416 0.764 0.7447
2227.970 0.7106 0.7262 0.7257 0.7479 0.8432 0.9317 0.9142 0.8773 0.9488 1.0128
2247.259 1.007 0.9816 1.0118 1.054 1.0081 0.9366 1.0023 1.0416 0.9299 0.8538
2266.549 0.8874 0.9369 0.9204 0.8644 0.8438 0.8679 0.8712 0.867 0.8699 0.8921
2285.839 0.8978 0.8438 0.8605 0.9217 0.9401 0.9347 0.8974 0.8862 0.9655 0.9987
2305.129 0.9869 0.9676 0.9653 1.045 1.1378 1.1723 1.1817 1.234 1.254 1.1716
2324.418 1.1901 1.1967 1.0806 1.1046 1.1586 1.1405 1.1309 1.0984 1.0653 1.062
2343.708 1.082 1.0453 1.0355 1.0481 0.9554 0.968 0.9645 0.9283 0.9914 0.9663
2362.998 0.9384 0.9694 0.9792 1.0103 1.0334 1.0343 1.041 1.014 0.9761 0.9578
2382.288 0.9949 0.9518 0.8282 0.8324 0.894 0.8775 0.8881 0.9278 0.9125 0.9548
2401.578 0.935 0.8655 0.8705 0.8712 0.9174 0.9111 0.9049 0.9775 0.9926 0.9718
2420.867 0.9655 1.0054 1.0514 1.0695 1.0818 1.1311 1.1644 1.214 1.224 1.1577
2440.157 1.177 1.192 1.1507 1.0937 1.0586 1.0869 1.0673 1.0185 1.0122 0.9887
2459.447 0.9861 0.972 0.9348 0.8574 0.7887 0.8286 0.8135 0.7565 0.8219 0.9053
2478.737 0.9333 0.8283 0.7028 0.7068 0.7072 0.7107 0.7666 0.8305 0.7803 0.7363
2498.026 0.7319 0.682 0.6765 0.7264 0.7058 0.7019 0.7202 0.7351 0.7392 0.7265
2517.316 0.7586 0.7678 0.7519 0.7183 0.6714 0.7296 0.7426 0.7117 0.784 0.768
2536.606 0.6945 0.7142 0.7505 0.7436 0.7189 0.6654 0.6952 0.7183 0.6304 0.582
2555.896 0.5934 0.5495 0.6355 0.7384 0.6962 0.6853 0.6955 0.633 0.6209 0.7103
2575.186 0.704 0.6884 0.709 0.7344 0.7047 0.6162 0.654 0.7146 0.6314 0.6113
2594.475 0.6703 0.6602 0.6463 0.6683 0.6591 0.6569 0.7176 0.7485 0.8001 0.8135
2613.765 0.791 0.8646 1.0143 1.0553 0.979 0.9766 1.0527 1.0604 1.0203 1.0258
2633.055 1.0707 1.0715 1.0631 1.0864 1.1033 1.088 1.0754 1.1144 1.1683 1.1797
2652.345 1.187 1.314 1.314 1.274 1.274 1.274 1.294 1.274 1.304 1.354
2671.634 1.404 1.544 1.624 1.574 1.514 1.504 1.554 1.524 1.524 1.664
2690.924 1.694 1.644 1.664 1.694 1.704 1.624 1.614 1.634 1.534 1.484
2710.214 1.404 1.374 1.314 1.2001 1.294 1.344 1.254 1.244 1.284 1.214
2729.504 1.204 1.214 1.1996 1.214 1.1534 1.1924 1.264 1.1654 1.1068 1.234
2748.794 1.264 1.214 1.294 1.334 1.304 1.364 1.364 1.464 1.524 1.514
2768.083 1.614 1.724 1.714 1.774 1.924 2.004 2.094 2.144 2.124 2.084
2787.373 2.134 2.174 2.214 2.224 2.294 2.394 2.434 2.474 2.534 2.514
2806.663 2.614 2.794 2.854 2.994 3.154 3.334 3.474 3.574 3.734 3.974
2825.953 4.194 4.384 4.744 5.134 5.474 5.974 6.544 7.034 7.704 8.604
2845.242 9.504 10.544 11.964 13.684 15.684 18.264 21.454 24.944 28.524 31.654
2864.532 33.684 34.484 34.034 32.374 30.014 27.564 25.124 22.854 20.914 19.254
2883.822 18.054 17.204 16.694 16.444 16.474 16.894 17.394 18.024 18.844 19.804
2903.112 20.954 22.354 23.954 25.874 28.114 30.714 33.634 36.934 40.744 44.964
2922.401 49.754 55.024 60.974 67.214 73.024 78.204 82.574 85.694 87.494 88.054
2941.691 87.124 84.684 80.684 75.244 68.724 61.384 53.974 47.014 40.744 35.574
2960.981 31.544 28.544 26.554 25.274 24.214 23.164 21.894 20.384 18.854 17.374
2980.271 15.904 14.334 12.684 11.184 9.864 8.574 7.754 7.204 6.614 6.284
2999.561 6.024 5.924 5.954 6.044 6.344 6.784 7.074 7.194 7.034 6.444
3018.850 5.654 4.934 4.384 3.914 3.554 3.374 3.344 3.344 3.374 3.384
3038.140 3.344 3.444 3.644 3.684 3.774 4.054 4.254 4.454 4.824 5.224
3057.430 5.654 6.044 6.424 6.874 6.784 6.284 5.944 5.724 5.794 6.074
3076.720 6.444 7.014 7.634 8.274 9.004 9.284 9.104 8.664 7.734 6.454
3096.009 5.214 4.224 3.414 2.814 2.314 1.884 1.684 1.404 1.1129 1.0992
3115.299 1.0593 0.8796 0.7681 0.7433 0.6739 0.7467 0.8861 0.7952 0.6798 0.6405
3134.589 0.5556 0.5452 0.5749 0.5652 0.6174 0.5894 0.5698 0.6384 0.5802 0.4535
3153.879 0.46 0.5263 0.4809 0.3778 0.3929 0.5457 0.5198 0.5783 0.6099 0.4683
3173.169 0.4934 0.5509 0.5016 0.3839 0.3349 0.3223 0.3987 0.5558 0.6628 0.6691
3192.458 0.5918 0.5224 0.5315 0.5418 0.5069 0.5149 0.5343 0.5942 0.637 0.6693
3211.748 0.6003 0.4842 0.6278 0.6738 0.5862 0.5149 0.3875 0.3779 0.3684 0.4085
3231.038 0.5058 0.5356 0.4484 0.4146 0.4121 0.3527 0.4323 0.5112 0.4578 0.4546
3250.328 0.4673 0.4817 0.507 0.4399 0.3199 0.3596 0.3255 0.21976 0.2842 0.3417
3269.617 0.381 0.3224 0.29714 0.30278 0.24832 0.1844 0.30167 0.382 0.3473 0.29953
3288.907 0.28803 0.3351 0.28128 0.24608 0.27311 0.27261 0.3958 0.3502 0.205722 0.22172
3308.197 0.20156 0.28107 0.27916 0.28871 0.3209 0.26644 0.23689 0.23414 0.339 0.30352
3327.487 0.28363 0.3147 0.3549 0.22273 0.144 0.25074 0.1577 0.1309 0.2287 0.1719
3346.777 0 0.073 0.1454 0.097 0.27126 0.25375 0.1439 0.24588 0.26992 0.23388
3366.066 0.1459 0.101 0.109 0.23821 0.27463 0.1485 0.183 0.23806 0.25593 0.22097
3385.356 0.1556 0.1773 0.21867 0.24555 0.25626 0.26152 0.21883 0.21919 0.1839 0.21628
3404.646 0.3114 0.27082 0.25416 0.3109 0.25323 0.25485 0.4062 0.4025 0.28487 0.3457
3423.936 0.3993 0.4686 0.5783 0.5568 0.6611 0.6867 0.6232 0.6989 0.8508 0.9164
3443.225 0.8567 0.9171 0.9531 0.8396 0.9751 1.1585 1.294 1.324 1.224 1.294
3462.515 1.384 1.414 1.334 1.254 1.474 1.664 1.534 1.514 1.794 1.894
3481.805 1.984 2.334 2.584 2.784 3.104 3.414 3.624 3.834 3.784 3.564
3501.095 3.474 3.334 3.004 2.654 2.354 2.024 1.784 1.534 1.274 1.1679
3520.385 0.9727 0.7602 0.6475 0.6264 0.658 0.7187 0.8103 0.7157 0.6271 0.6383
3539.674 0.5235 0.458 0.4558 0.4395 0.4287 0.5206 0.583 0.5292 0.4519 0.457
3558.964 0.4827 0.467 0.5885 0.6647 0.4362 0.3505 0.4622 0.4221 0.3044 0.364
3578.254 0.4481 0.3095 0.28522 0.28175 0.3266 0.3353 0.3754 0.4229 0.3356 0.3142
3597.544 0.3422 0.3169 0.26588 0.28953 0.28018 0.3221 0.3167 0.29899 0.4331 0.4064
3616.833 0.20008 0.1355 0.3194 0.4385 0.3567 0.3162 0.3597 0.4053 0.3546 0.1724
3636.123 0.1334 0.23402 0.28933 0.26486 0.28543 0.3371 0.29366 0.25761 0.204391 0.211626
3655.413 0.24364 0.3212 0.3922 0.27871 0.26677 0.3875 0.3239 0.4113 0.4182 0.22295
3674.703 0.3198 0.4429 0.3821 0.27062 0.1813 0.21677 0.29172 0.27043 0.148 0.1274
3693.993 0.1242 0.1446 0.1584 0.1527 0.25683 0.4069 0.495 0.4953 0.5053 0.4004
3713.282 0.3866 0.4397 0.3654 0.3396 0.27623 0.29582 0.3898 0.3198 0.3764 0.4542
3732.572 0.4545 0.4296 0.3367 0.3469 0.44 0.5027 0.5753 0.6108 0.5377 0.4699
3751.862 0.4031 0.3812 0.4443 0.4613 0.4973 0.4994 0.4239 0.4577 0.3982 0.3315
3771.152 0.4178 0.4551 0.4766 0.4916 0.5738 0.5168 0.3573 0.3699 0.29764 0.3515
3790.441 0.4668 0.3719 0.3528 0.3874 0.341 0.3295 0.4015 0.4359 0.4339 0.4333
3809.731 0.3197 0.3784 0.5075 0.3184 0.29421 0.3601 0.399 0.3722 0.3318 0.363
3829.021 0.25743 0.26574 0.27835 0.3246 0.4672 0.3483 0.1724 0.226 0.3605 0.4401
3848.311 0.3379 0.21794 0.27978 0.4307 0.3177 0.3506 0.5193 0.4427 0.5491 0.566
3867.601 0.3153 0.1817 0.1763 0.27382 0.3346 0.4034 0.5151 0.393 0.4479 0.5574
3886.890 0.5556 0.496 0.433 0.4674 0.4887 0.5135 0.4953 0.4507 0.4424 0.4076
3906.180 0.3904 0.3808 0.367 0.425 0.5285 0.5897 0.413 0.3551 0.4504 0.3598
3925.470 0.26624 0.212615 0.19846 0.1562 0.1298 0.210314 0.27266 0.30232 0.28178 0.4125
3944.760 0.4618 0.3647 0.3345 0.3939 0.4495 0.4414 0.496 0.5623 0.4304 0.3869
3964.049 0.3913 0.26601 0.21482 0.25127 0.3343 0.28448 0.2482 0.28238 0.3243 0.23808
3983.339 0.22091 0.3738 0.3589 0.3161 0.4667 0.5204 0.3943 0.4213 0.4048 0.3942
##END=
