##TITLE=3-Cyclohexyl-1-propyne
##JCAMP-DX=4.24
##DATA TYPE=INFRARED SPECTRUM
##ORIGIN=EPA-IR VAPOR PHASE LIBRARY
##OWNER=SRD/NIST
Collection (C) 2018 copyright by the U.S. Secretary of Commerce
on behalf of the United States of America. All rights reserved.
##CAS REGISTRY NO=17715-00-3
##MOLFORM=C 9 H 14
##$NIST SOURCE=MSDC-IR
##STATE=gas
##XUNITS=1/CM
##YUNITS=ABSORBANCE
##XFACTOR=1.
##YFACTOR=0.001
##DELTAX=1.92898
##FIRSTX=549.8
##LASTX=4000.7
##FIRSTY=2.92
##MAXX=4000.7
##MINX=549.759
##MAXY=0.209
##MINY=0
##NPOINTS=1790
##XYDATA=(X++(Y..Y))
549.759 2.92 2.4 2.4 1.9619 1.8557 2.75 3.67 3.11 2.99 3.92
569.049 3.88 3.74 4.74 4.27 3.35 3.63 3.68 4.05 4.08 3.94
588.339 4.42 4.5 4.08 4.87 5.33 4.8 5.12 5.63 6.52 8.2
607.628 10.17 12.29 15.24 18.28 21.02 24.59 29.74 35.2 42.3 52.49
626.918 64.65 75.52 83.12 89.03 84.57 72.84 62.97 53.69 46.2 40.09
646.208 34 28.15 22.39 18.27 15.52 12.83 10.99 8.78 6.71 5.99
665.498 5.09 4.02 3.17 3.05 3.33 3 2.61 2.3135 2.1553 2.2573
684.787 2.1274 1.9059 1.8872 1.6364 1.6934 2.1218 2.1523 2.2092 2.2635 1.9989
704.077 2.1867 2.3304 2.0458 2.2317 2.2354 1.6713 1.218 1.47582 2.128 2.2874
723.367 2.0612 2.1675 2.19 1.8115 1.7811 1.8128 1.6815 1.6722 1.6897 1.7092
742.657 1.46471 1.44172 1.46059 1.3349 1.5242 1.8576 1.7909 1.9494 2.3856 1.9664
761.947 1.7702 2.3214 2.3171 2.3457 2.43 1.38116 1.213 1.6176 1.168 1.46249
781.236 2.1112 2.1861 1.9458 1.9043 2.0829 1.7149 1.5983 2.2061 2.48 1.9621
800.526 1.46822 1.47909 2.0702 2.2127 1.6624 1.6046 1.7005 1.6147 2.056 2.73
819.816 2.1688 1.6864 1.9542 1.9934 2.54 2.63 2.61 3.01 3.47 3.5
839.106 2.83 2.91 3.15 2.46 2.55 2.74 2.62 2.4 1.7302 1.5213
858.395 1.7434 1.8796 1.574 1.9468 2.39 2.3605 2.71 2.56 2.1628 2.3754
877.685 2.68 2.69 2.66 2.63 2.72 3.22 3.61 3.36 3.07 3.19
896.975 3.08 2.9 2.46 2.061 2.2063 2.66 2.88 2.74 2.56 2.64
916.265 2.68 2.51 2.86 2.49 2.1954 2.64 2.68 2.1563 1.8315 2.1486
935.555 2.1733 1.9607 1.8631 1.7146 1.40508 1.6558 1.9258 1.6361 1.8345 2.1311
954.844 1.6974 1.214 1.286 1.9014 2.49 2.5 2.1523 2.57 3.09 2.83
974.134 2.356 1.857 1.9443 2.46 2.39 2.0511 1.6874 1.7502 1.3226 1.3628
993.424 2.1222 2.1897 1.5807 1.25 1.6922 1.41816 0.762 0.594 1.264 1.15
1012.714 0.715 1.41898 2.0689 1.4998 1.6838 2.0034 2.0467 1.8085 0.929 1.155
1032.003 1.6555 2.3019 3.13 2.78 1.8845 1.3026 1.24 1.7411 1.9131 2.54
1051.293 3.21 3.02 2.52 2.67 2.52 1.7122 1.7691 1.8679 1.8022 2.44
1070.583 2.96 2.86 2.0791 2.0855 3.2 3.29 3.14 3.58 3.71 3.61
1089.873 4.45 3.93 1.6997 1.8672 1.48977 0.18 0 0.541 2.2291 3.1
1109.163 2.2163 1.9849 3.16 3.2 2.8 3.62 3.74 2.79 2.46 2.79
1128.452 3.19 3.48 3.44 3.65 4.71 4.96 4.14 3.68 3.72 4.51
1147.742 4.8 3.15 2.2399 2.64 2.97 2.81 2.68 2.71 2.82 2.43
1167.032 1.9228 2.44 2.2482 1.237 1.8054 2.82 3.24 2.79 2.47 3.46
1186.322 3.69 3.64 4.58 5.21 4.91 5.03 5.05 3.97 4.49 4.23
1205.611 4.04 4.91 4.46 4.96 5.22 6.03 7.37 5.81 6.02 7.42
1224.901 6.88 9.03 11.21 13.01 15.75 17.93 20.06 21.81 23.89 25.22
1244.191 24.42 23.4 23.41 23.06 22.1 20.32 18.49 17.3 14.81 12.72
1263.481 12.06 10.86 10.12 9.84 8.94 8.59 8.16 7.74 7.74 7.17
1282.771 6.28 5.88 5.63 5.43 4.93 4.69 4.76 4.51 4.49 4.28
1302.060 3.97 4.25 4.51 4.41 4.4 4.51 4.73 4.99 5.06 5.16
1321.350 5.34 5.4 5.56 5.4 5.27 5.29 4.94 4.67 4.72 4.8
1340.640 4.8 4.91 4.86 4.63 4.47 4.43 4.58 4.67 4.58 4.42
1359.930 4.23 4.07 3.75 3.46 3.59 3.64 3.6 3.53 3.22 2.99
1379.219 2.94 2.83 2.43 2.2662 2.39 2.3699 2.1268 1.9526 2.0625 2.2743
1398.509 2.2798 2.3725 2.46 2.47 2.56 2.82 3.19 3.23 3.36 3.65
1417.799 3.96 4.48 5.21 5.84 6.3 7 7.68 8.51 9.72 10.64
1437.089 11.35 12.59 14.07 14.92 15.66 16.48 17.01 17.45 18.44 19.54
1456.378 18.82 17.08 15.68 14.17 12.67 11.25 9.82 8.31 7.01 6.03
1475.668 5.26 4.31 3.6 3.27 2.99 2.63 2.3873 2.3751 2.159 2.0837
1494.958 2.0924 1.9209 1.9858 2.0414 1.6302 1.3565 1.6427 1.8054 1.7249 1.6418
1514.248 1.5986 1.47052 1.3208 1.3315 1.41985 1.3776 1.4854 1.3367 1.171 1.42121
1533.538 1.41433 1.233 1.143 1.181 1.3583 1.3099 1.166 1.05 1.008 1.074
1552.827 1.225 1.5741 1.5302 1.5276 1.5987 1.3478 1.162 1.059 0.953 1.113
1572.117 1.3619 1.42953 1.4245 1.4986 1.6476 1.40882 1.42126 1.6214 1.6563 1.7268
1591.407 1.8873 1.9784 1.8802 1.806 1.7133 1.7614 2.0924 1.781 1.225 1.40813
1610.697 1.7013 1.8193 1.6371 1.5144 1.8385 2.0339 1.9212 1.9411 1.9928 1.7439
1629.986 1.7516 1.8777 1.8283 2.1089 2.073 1.654 1.7843 1.8408 1.782 1.8509
1649.276 1.7235 1.7558 1.7252 1.6725 1.7925 2.0202 2.0119 2.0675 1.8946 1.6441
1668.566 1.8176 1.5848 1.5558 1.7455 1.6721 1.7552 1.7198 1.6186 1.6135 1.7125
1687.856 1.7986 1.843 1.7661 1.5263 1.6356 1.7177 1.48626 1.5414 1.6712 1.7583
1707.146 1.7704 1.6356 1.5531 1.6961 1.7287 1.6759 1.9781 1.9244 1.7336 1.7588
1726.435 1.6585 1.7223 1.5642 1.5047 1.7704 1.6426 1.7249 1.9648 2.0524 1.886
1745.725 1.6039 1.7156 1.7574 1.8136 1.8242 1.5529 1.6077 1.6247 1.672 1.7528
1765.015 1.733 1.8982 1.9128 1.6689 1.5627 1.5136 1.57 1.6783 1.5869 1.5792
1784.305 1.6216 1.6994 1.6939 1.48609 1.3838 1.4962 1.48007 1.3777 1.41644 1.46299
1803.594 1.43265 1.6596 1.6436 1.38843 1.45738 1.5086 1.46624 1.3555 1.253 1.277
1822.884 1.39686 1.43567 1.39511 1.41374 1.378 1.215 1.107 1.212 1.44087 1.41116
1842.174 1.42589 1.4965 1.44019 1.5342 1.5802 1.48701 1.247 1.06 1.07 1.197
1861.464 1.3571 1.44116 1.47419 1.5245 1.48903 1.41149 1.5089 1.5486 1.3761 1.3763
1880.754 1.3751 1.40715 1.42065 1.261 1.44867 1.6096 1.42593 1.3147 1.3177 1.44925
1900.043 1.44943 1.3919 1.3066 1.241 1.41154 1.5054 1.43709 1.3102 1.249 1.253
1919.333 1.3235 1.3186 1.238 1.3024 1.3478 1.272 1.3233 1.3177 1.208 1.3028
1938.623 1.3399 1.245 1.269 1.168 1.085 1.159 1.3025 1.40507 1.3796 1.269
1957.913 1.098 1.101 1.084 1.193 1.3384 1.193 1.199 1.39252 1.284 1.154
1977.202 1.186 1.27 1.186 1.264 1.44765 1.3455 1.27 1.247 1.247 1.205
1996.492 1.159 1.094 1.066 1.085 1.141 1.138 1.095 1.035 1.019 1.164
2015.782 1.275 1.184 1.076 1.21 1.271 1.3031 1.218 1.192 1.3589 1.3355
2035.072 1.41297 1.39174 1.276 1.3336 1.3185 1.21 1.199 1.253 1.3196 1.25
2054.362 1.24 1.3727 1.3414 1.27 1.3687 1.3223 1.178 1.262 1.277 1.3151
2073.651 1.46298 1.4141 1.4933 1.5831 1.5688 1.6471 1.8163 2.0583 2.2234 2.43
2092.941 2.65 2.95 3.32 3.57 3.93 4.43 4.79 5.19 5.61 5.91
2112.231 5.83 5.68 5.96 6.02 5.78 5.42 4.91 4.48 4.11 3.74
2131.521 3.16 2.76 2.55 2.0489 1.6876 1.5927 1.5784 1.6076 1.6031 1.43913
2150.810 1.44426 1.58 1.569 1.507 1.213 1.2921 1.4185 1.45279 1.5867 1.5179
2170.100 1.2939 1.2951 1.6589 1.699 1.8136 1.8527 1.48189 1.3132 1.201 1.229
2189.390 1.3397 1.269 1.238 1.38601 1.5929 1.5346 1.43774 1.5623 1.5733 1.4919
2208.680 1.5176 1.3473 1.198 1.128 1.263 1.3149 1.105 1.284 1.3706 1.41955
2227.970 1.48108 1.256 1.019 1.187 1.533 1.4981 1.41276 1.3768 1.27 1.42111
2247.259 1.517 1.3139 1.3638 1.5922 1.6164 1.48065 1.43197 1.38478 1.3632 1.41177
2266.549 1.368 1.3754 1.5653 1.5574 1.48641 1.7119 1.7064 1.529 1.39067 1.238
2285.839 1.147 1.165 1.3239 1.40474 1.5447 1.46297 1.43712 1.5397 1.208 1.024
2305.129 1.194 1.257 1.246 1.181 1.256 1.3653 1.40517 1.41615 1.231 1.159
2324.418 1.123 1.224 1.209 1.15 1.138 1.177 1.44532 1.48319 1.42381 1.26
2343.708 1.204 1.3307 1.284 1.3286 1.3702 1.282 1.38571 1.362 1.3344 1.44052
2362.998 1.3675 1.3525 1.38942 1.3365 1.272 1.2974 1.3556 1.258 1.40432 1.6523
2382.288 1.41453 1.25 1.5377 1.5649 1.45006 1.7955 1.9225 1.7584 1.6797 1.6192
2401.578 1.5143 1.532 1.3536 1.3176 1.5044 1.47547 1.3102 1.41114 1.5018 1.46423
2420.867 1.3617 1.16 1.113 1.058 1.163 1.134 1.182 1.276 1.40655 1.3028
2440.157 1.043 1.171 1.091 1.017 1.3036 1.164 1.015 1.289 1.3722 1.179
2459.447 1.035 1.01 1.162 1.39868 1.236 0.894 0.98 1.247 1.39399 1.4368
2478.737 1.48113 1.4602 1.3579 1.211 1.308 1.5042 1.38981 1.47973 1.7355 1.6803
2498.026 1.40176 1.201 1.154 1.142 1.03 1.092 1.124 1.268 1.5087 1.4981
2517.316 1.2939 1.24 1.502 1.6589 1.6362 1.5959 1.48841 1.3071 1.254 1.2976
2536.606 1.3148 1.224 1.3441 1.38657 1.252 1.221 1.225 1.43022 1.45503 1.3082
2555.896 1.5004 1.6093 1.48826 1.5391 1.6313 1.47259 1.40491 1.5107 1.5412 1.6199
2575.186 1.7436 1.5396 1.3652 1.7481 2.025 1.8021 1.6284 1.8037 1.9467 1.9654
2594.475 2.1945 2.1979 2.1511 2.3421 2.356 2.3188 2.0153 2.0327 2.2996 2.1524
2613.765 2.0176 2.1257 2.1874 2.2983 2.1209 1.8358 1.959 2.0562 2.0739 2.2317
2633.055 2.3724 2.58 2.7 2.7 2.91 2.95 2.93 2.82 2.84 3.07
2652.345 2.9 2.73 2.96 3.22 3.05 3.1 3.32 3.17 3.36 3.64
2671.634 3.67 3.72 3.36 2.99 3.08 3.02 3.2 3.22 2.84 2.79
2690.924 2.93 3.01 3.06 3.09 3.1 2.95 2.7 2.66 2.46 2.3453
2710.214 2.3415 2.2445 2.2348 2.3432 2.1492 2.1079 2.1598 1.7604 1.6983 1.6985
2729.504 1.5767 1.6602 1.7846 1.7504 1.5363 1.39126 1.45247 1.9112 2.3541 1.9195
2748.794 1.663 1.78 1.9397 2.2228 2.345 1.9053 1.9071 2.1 2.1013 2.2516
2768.083 2.125 2.2824 2.2876 2.2558 2.7 2.95 2.91 3.1 3.4 3.59
2787.373 3.84 3.44 3.08 3.75 4.08 3.89 3.79 3.9 3.95 4.19
2806.663 4.47 4.17 4.3 4.56 4.81 4.79 4.68 5.28 5.83 6.4
2825.953 7.05 7.44 7.94 9.09 10.96 13.03 15.15 17.72 20.63 24.13
2845.242 28.35 32.72 37.3 42.6 48.52 54.17 58.35 61.47 62.8 63.06
2864.532 62.59 60.67 57.87 54.43 50.45 46.01 41.42 37.05 33.84 31.53
2883.822 29.31 27.64 26.86 27.12 28.33 30.06 32.51 35.72 39.76 44.43
2903.112 50.01 56 62.8 71.17 80.48 90.41 100.55 111.11 122.75 135.52
2922.401 148.43 160.57 173.9 188.81 200.94 207.34 209 204.51 194.43 183.31
2941.691 171.79 157.84 141.3 124.51 107.14 88.8 71.03 54.94 41.97 32.17
2960.981 24.51 19.01 15.2 12.18 10.15 8.66 7.36 6.4 5.67 5.09
2980.271 4.55 4.54 4.32 4.13 3.89 3.73 3.81 3.41 3.31 3.27
2999.561 2.87 2.84 3.09 2.96 2.84 2.99 2.72 2.93 3.02 2.48
3018.850 2.2531 2.2564 2.1232 1.889 1.9501 1.9869 2.0199 1.7804 2.0784 2.1335
3038.140 1.7985 1.7775 1.7447 1.4945 1.592 1.8768 1.9313 1.9426 2.2363 2.3341
3057.430 1.48081 1.40325 2.1139 1.906 1.6055 1.8799 1.6874 1.218 1.288 1.6031
3076.720 1.5305 1.38348 1.5255 1.6001 1.7308 1.9485 1.8944 1.9833 1.7654 1.5135
3096.009 1.5639 1.46997 1.5261 1.5294 1.199 1.054 1.42717 1.6219 1.27 1.129
3115.299 1.4969 1.7781 1.5562 1.5748 1.7563 1.62 1.133 0.919 1.152 1.212
3134.589 1.5626 1.686 1.234 1.3341 1.39516 1.40537 1.651 1.53 1.3709 1.6254
3153.879 1.8376 1.8071 1.258 0.86 1.048 1.001 1.187 1.43761 1.227 1.047
3173.169 1.3445 1.5066 1.46033 1.111 1.149 1.3288 1.047 1.263 1.7105 1.7893
3192.458 1.6577 1.5371 1.44507 1.246 1.148 1.3106 1.502 1.5872 1.5244 1.5698
3211.748 1.6594 1.39284 1.3333 1.245 1.113 1.044 1.028 1.259 1.6581 1.907
3231.038 1.8023 1.899 1.4989 1.5782 2.1577 2.1101 2.0617 2.1871 2.1495 2.1202
3250.328 2.1824 2.1246 2.1848 2.294 2.2024 2.1426 2.72 3.14 2.88 2.9
3269.617 3.15 3.53 3.77 3.83 3.59 3.93 4.56 4.66 5.07 5.63
3288.907 5.95 6.38 7.66 9.14 9.88 10.67 11.72 12.94 13.99 14.6
3308.197 15.2 16.17 18.6 21.82 24.13 26.7 29.85 31.61 31.58 31.86
3327.487 32.53 31.27 30.71 30.96 28.17 22.41 17.15 13.51 10.44 8.46
3346.777 7.5 6.73 6.03 5.27 4.98 5.36 4.77 3.83 3.15 2.9
3366.066 3 2.77 2.4 1.9992 2.0484 1.9181 1.7989 1.945 1.6824 1.5429
3385.356 1.9057 1.7044 1.234 1.7564 1.8448 1.5068 1.5662 1.198 1.3672 1.199
3404.646 0.38 0.896 1.3047 1.193 1.5428 1.7781 1.5829 1.5158 1.5382 1.28
3423.936 1.46861 1.45776 0.969 1.019 1.3069 1.43758 1.5411 1.5371 1.6229 1.3037
3443.225 1.17 1.3305 1.085 1.114 1.7038 1.7496 1.5498 1.6383 1.45119 1.6236
3462.515 1.5397 1.3441 1.4973 1.541 1.5296 1.4268 1.43691 1.625 1.39693 1.5599
3481.805 1.7834 1.6948 1.3461 0.957 1.066 1.041 1.172 1.38629 1.5042 1.282
3501.095 1.1 1.247 1.3317 1.16 0.706 0.36 0.556 0.63 0.686 0.884
3520.385 1.023 1.269 1.281 0.99 0.971 1.249 1.3099 1.013 0.86 1.051
3539.674 1.39367 1.38568 0.876 0.627 0.876 1.236 0.995 0.496 0.651 1.08
3558.964 1.072 1.3392 1.4789 1.178 0.857 0.578 0.523 0.781 1.174 1.123
3578.254 1.3623 1.6313 1.6854 1.5059 1.42004 1.8548 1.3728 0.976 1.097 1.5323
3597.544 2.0078 1.9386 1.7513 1.7087 1.8679 1.39064 0.804 1.186 1.45381 1.2908
3616.833 1.224 1.094 1.3537 1.5502 1.3297 1.3244 1.21 0.992 0.997 1.002
3636.123 0.994 0.794 0.846 0.848 1.235 1.5647 1.3547 1.5957 1.4913 0.831
3655.413 0.822 1.40752 1.242 0.956 1.068 1.146 1.38319 1.288 1.078 1.074
3674.703 0.998 0.654 0.62 1.5906 2.1569 1.672 1.39541 1.179 0.751 0.828
3693.993 1.3124 1.6485 1.5227 1.6059 1.609 1.195 1.219 1.6654 1.44588 1.178
3713.282 1.5287 1.42199 1.093 1.267 1.47645 1.46264 1.2906 1.42627 1.284 0.748
3732.572 1.083 1.169 0.985 1.40162 1.6505 1.5566 1.3203 0.941 0.561 0.637
3751.862 0.728 0.836 0.919 1.118 1.5343 1.276 1.201 1.083 1.38085 1.5904
3771.152 1.195 1.5609 1.41773 1.251 1.44732 1.021 1.158 1.47639 1.066 1.035
3790.441 1.45414 1.5428 1.17 1.03 1.082 0.983 0.816 1.009 1.3014 1.3602
3809.731 1.163 1.192 1.239 1.211 1.302 1.207 1.235 1.47824 1.197 0.884
3829.021 1.47447 1.5871 1.272 1.239 1.244 1.053 1.102 1.089 1.014 0.985
3848.311 1.024 1.171 1.324 1.624 1.6425 1.279 1.276 1.45336 1.285 1.247
3867.601 1.3056 1.6605 1.47788 1.071 1.228 1.47174 1.126 0.569 0.543 1.001
3886.890 1.6453 1.7857 1.6396 1.24 0.978 1.021 0.942 1.049 1.39922 1.5637
3906.180 1.40422 1.24 1.092 1.058 1.6489 2.0325 1.6712 1.5405 2.0227 2.0854
3925.470 1.6625 1.6477 1.7576 1.5633 1.9284 2.3009 2.43 2.3276 2.1503 2.1266
3944.760 1.8513 1.7853 1.8943 1.7462 1.164 1.5969 1.9505 1.8685 2.1431 1.9708
3964.049 1.868 1.193 0.941 1.6625 1.863 1.6092 1.206 0.757 1.058 1.44287
3983.339 1.067 1.032 1.7182 1.8113 1.38942 1.3349 1.5479 1.614 1.27 0.997
##END=
