##TITLE=3-Methoxyphenothiazine
##JCAMP-DX=4.24
##DATA TYPE=INFRARED SPECTRUM
##ORIGIN=EPA-IR VAPOR PHASE LIBRARY
##OWNER=SRD/NIST
Collection (C) 2018 copyright by the U.S. Secretary of Commerce
on behalf of the United States of America. All rights reserved.
##CAS REGISTRY NO=1771-19-3
##MOLFORM=C 13 H 11 N O S
##$NIST SOURCE=MSDC-IR
##STATE=gas
##XUNITS=1/CM
##YUNITS=ABSORBANCE
##XFACTOR=1.
##YFACTOR=0.001
##DELTAX=1.92898
##FIRSTX=549.8
##LASTX=4000.7
##FIRSTY=2.6281
##MAXX=4000.7
##MINX=549.759
##MAXY=0.146188
##MINY=0
##NPOINTS=1790
##XYDATA=(X++(Y..Y))
549.759 2.6281 2.6781 2.7181 2.5881 2.4281 2.5281 2.6881 2.4681 1.9281 1.7781
569.049 2.1381 2.2881 2.1681 2.4581 2.7481 2.5881 2.6481 3.0281 3.6781 4.1181
588.339 4.3581 4.7181 4.6781 4.3181 3.9681 3.6181 3.1381 2.7681 2.6881 2.7881
607.628 2.8581 2.9881 3.4181 3.9781 4.5581 4.9581 5.5481 6.1481 6.4281 6.7681
626.918 6.7981 6.4981 6.0481 5.6681 5.2881 4.6581 4.0381 3.3581 2.8381 2.6881
646.208 2.3681 2.2881 2.2981 2.1181 1.9881 1.9881 2.0181 1.9981 2.0781 2.0881
665.498 1.9981 1.8781 1.9681 2.0581 2.1681 2.4181 2.5681 2.5981 2.7181 3.0181
684.787 3.2881 3.2681 3.2681 3.2181 3.0481 3.0981 3.1281 3.2081 3.4381 3.7181
704.077 4.1881 4.8381 5.4181 5.7981 6.1281 6.6381 6.9681 6.8981 7.0581 7.5681
723.367 8.6081 10.5181 13.1581 16.6481 20.9581 25.5381 29.9581 34.7481 38.1981 36.2881
742.657 31.0381 26.2681 21.6881 17.0981 13.0181 9.8781 7.6481 6.0381 5.0481 4.6481
761.947 4.3681 4.2281 4.2781 4.2781 4.2481 4.3581 4.6081 4.8681 5.2081 5.5681
781.236 5.8681 6.0081 6.0081 5.8581 5.5281 5.3581 5.2581 4.9681 4.6081 4.5081
800.526 4.4681 4.3181 4.2581 4.3681 4.6181 4.8881 5.4081 5.9981 6.5981 7.0981
819.816 7.2981 7.5381 7.6981 7.9681 8.5081 8.9081 9.3981 10.0581 10.7581 11.2281
839.106 11.1581 10.5381 9.5681 8.6381 7.5881 6.3981 5.2581 4.3581 3.5681 3.1081
858.395 2.8281 2.4781 2.3181 2.2081 2.1081 1.8981 1.6581 1.6581 1.6881 1.5381
877.685 1.4081 1.3481 1.4581 1.4181 1.3481 1.3681 1.2581 1.1381 1.1981 1.2681
896.975 1.2581 1.4281 1.3581 1.0881 1.1181 1.3281 1.4781 1.6381 1.9081 2.0581
916.265 2.1581 2.2881 2.3581 2.3181 2.1981 2.1181 2.1381 2.0381 1.8781 1.7981
935.555 1.7381 1.9381 2.2181 2.4281 2.7481 3.2181 3.6081 4.0181 4.4081 4.8981
954.844 5.3581 5.3881 5.3681 5.2781 4.9781 4.5381 3.9281 3.3181 2.8281 2.5681
974.134 2.4181 2.2781 2.3081 2.4681 2.4981 2.4581 2.4581 2.4581 2.6481 2.7581
993.424 2.7981 2.8581 2.8981 2.9281 2.9681 3.2681 3.5681 3.8281 4.1781 4.5681
1012.714 5.0681 5.7781 6.8181 8.0181 9.5581 11.4981 13.8181 16.2581 18.5281 20.5081
1032.003 21.5181 21.4381 20.6781 19.0181 16.6681 14.1581 11.8881 10.1281 8.5381 7.4181
1051.293 6.8681 6.5681 6.3281 6.0081 5.9881 6.4481 6.8281 7.0081 7.1981 7.3481
1070.583 7.4581 7.4681 7.7981 8.9981 10.2281 10.9981 11.3481 11.3681 11.0281 10.0881
1089.873 8.9481 7.9881 7.2481 6.7381 6.5981 6.6081 6.2481 6.1581 6.4981 6.5181
1109.163 6.5381 7.1081 8.1481 9.6381 11.4981 14.0781 17.1281 19.6781 21.1281 21.3581
1128.452 20.6081 19.1281 16.9881 14.6081 13.1381 12.2281 11.5081 11.4181 11.9281 13.0381
1147.742 14.2881 15.8381 18.4881 21.5081 25.0081 29.8781 35.4081 40.8981 45.6981 48.5581
1167.032 48.9581 47.1281 43.2881 37.6581 31.8381 26.9381 23.2481 20.8181 19.4281 18.8581
1186.322 19.1081 19.8881 20.9581 22.0781 22.6281 22.4381 21.8381 20.7581 19.1681 17.4581
1205.611 15.6181 13.7681 12.2481 10.5881 9.0381 8.2381 7.7081 7.5781 7.6081 8.0381
1224.901 8.7881 9.5681 10.4181 11.1881 12.1681 13.6081 15.2581 17.3581 20.1981 23.9281
1244.191 28.4181 33.3281 38.3281 42.8881 46.8681 50.1681 52.4781 53.2781 52.9081 51.7781
1263.481 49.7781 47.4781 45.6581 45.2281 46.4881 48.8181 51.5281 53.7881 54.7581 53.9581
1282.771 51.3981 47.5381 43.1081 39.2781 36.5781 35.1881 34.7781 34.5781 34.1081 33.0781
1302.060 31.3881 28.9581 26.0381 23.0981 20.2681 17.7881 15.8181 14.1581 12.7781 11.5781
1321.350 10.5181 9.5481 8.6081 7.7881 7.0181 6.3181 5.7481 5.1781 4.7281 4.3881
1340.640 4.1081 3.9481 3.8681 3.8581 3.8181 3.8381 3.9481 4.1681 4.4981 4.9581
1359.930 5.6381 6.5381 7.6181 8.8681 10.2381 11.7681 13.3581 15.0281 16.6481 17.9581
1379.219 18.8881 19.3081 19.0081 18.0281 16.4581 14.6081 12.8281 11.2081 9.9481 9.2381
1398.509 8.9081 8.8081 8.9181 9.0781 9.2681 9.4981 9.8581 10.3581 11.0281 11.9581
1417.799 13.1181 14.6181 16.3981 18.4081 20.6681 22.9481 25.2081 27.1481 28.9581 30.7881
1437.089 32.8381 35.1981 38.0881 41.5581 45.5681 50.3981 56.8981 65.4281 76.6481 90.5081
1456.378 107.058 124.768 138.648 146.188 145.598 137.628 123.868 106.298 87.7781 70.9881
1475.668 58.1981 48.6381 41.7781 36.8181 33.2381 30.5581 28.5181 27.0681 26.0481 25.3481
1494.958 25.1581 25.3681 25.8581 26.5181 27.0881 27.2981 26.8281 25.5781 23.6781 21.1981
1514.248 18.5381 15.7581 13.1881 11.2781 9.8781 8.9681 8.3381 7.9581 7.8481 7.8881
1533.538 7.9581 8.1481 8.4281 8.7381 9.0981 9.5281 10.0381 10.6181 11.2681 12.0281
1552.827 12.9281 14.0781 15.5381 17.4781 19.8681 22.5481 25.5781 28.6981 31.6781 34.1581
1572.117 35.8381 36.6781 36.6681 36.1481 35.3981 34.8781 34.9581 35.5081 36.6181 38.2181
1591.407 40.0181 41.7481 43.0681 43.7481 43.7581 42.9681 41.5681 39.5481 36.8981 33.7481
1610.697 30.1081 26.2581 22.4381 18.6881 15.5781 13.2481 11.2281 9.6081 8.3281 7.2781
1629.986 6.4581 5.8381 5.2881 4.7981 4.4481 4.1381 3.9281 3.7581 3.5681 3.4481
1649.276 3.3981 3.3681 3.2881 3.3381 3.3481 3.2981 3.1981 3.1181 3.1081 2.9981
1668.566 2.8781 2.8781 2.8481 2.7281 2.6081 2.4881 2.3681 2.2381 2.0481 1.8881
1687.856 1.8181 1.7681 1.7581 1.6881 1.6281 1.5581 1.4981 1.5481 1.5281 1.4381
1707.146 1.4181 1.4481 1.4381 1.4181 1.4281 1.4581 1.4181 1.3681 1.3881 1.4081
1726.435 1.3681 1.3581 1.3881 1.3481 1.3381 1.3881 1.3881 1.3981 1.4481 1.5481
1745.725 1.6881 1.7881 1.8481 1.9081 1.9981 2.0181 2.0181 1.9281 1.8181 1.8081
1765.015 1.6781 1.5181 1.4281 1.3781 1.3581 1.3181 1.2481 1.2681 1.3381 1.3981
1784.305 1.4081 1.4181 1.4681 1.5681 1.6081 1.6181 1.6681 1.6381 1.5681 1.5381
1803.594 1.5081 1.4781 1.4081 1.3381 1.3581 1.3881 1.3981 1.4781 1.5381 1.5581
1822.884 1.6081 1.6681 1.6981 1.7781 1.8681 1.8981 1.9281 2.0181 2.0981 2.0481
1842.174 1.9881 1.8881 1.7881 1.6681 1.5481 1.4781 1.3881 1.4081 1.4781 1.4781
1861.464 1.5181 1.6181 1.6981 1.7681 1.8381 1.8981 1.9481 2.0081 2.0281 1.9881
1880.754 1.8781 1.7181 1.6181 1.5781 1.4581 1.3381 1.3181 1.3681 1.4081 1.4381
1900.043 1.5281 1.5881 1.7081 1.8881 2.0181 2.1981 2.3181 2.3181 2.2881 2.2081
1919.333 2.0881 1.8881 1.7181 1.5581 1.4481 1.4081 1.3481 1.2881 1.2381 1.1981
1938.623 1.1981 1.1581 1.1081 1.0981 1.0621 1.0275 0.9922 0.9422 0.9266 0.9406
1957.913 0.8903 0.9036 0.9382 0.9011 0.91 0.9145 0.9167 0.9443 0.9579 0.9743
1977.202 0.9854 0.9688 0.9428 0.9063 0.9202 0.9532 0.9106 0.8439 0.827 0.8376
1996.492 0.8356 0.8194 0.8046 0.7881 0.826 0.842 0.8109 0.8448 0.8665 0.8502
2015.782 0.852 0.8587 0.8793 0.8719 0.9048 0.9505 0.9559 0.9314 0.9334 0.9984
2035.072 0.9601 0.9211 0.9458 0.9402 0.959 0.9973 1.0285 1.0542 1.0313 1.0386
2054.362 1.0567 1.0429 1.0575 1.066 1.0478 1.0205 1.0318 1.0424 0.9975 1.0038
2073.651 1.0384 1.0017 0.9499 0.8988 0.8768 0.9173 0.919 0.8608 0.852 0.8715
2092.941 0.8354 0.8229 0.8464 0.8662 0.8686 0.8809 0.9324 0.9344 0.8888 0.8717
2112.231 0.8993 0.9243 0.8647 0.8305 0.7904 0.7569 0.7567 0.7467 0.7785 0.767
2131.521 0.7605 0.7874 0.7963 0.7659 0.757 0.7828 0.7836 0.7908 0.8018 0.8036
2150.810 0.7779 0.7807 0.7412 0.7207 0.7032 0.704 0.7302 0.6928 0.7273 0.7844
2170.100 0.7994 0.7529 0.7014 0.7391 0.7578 0.7131 0.733 0.7503 0.751 0.754
2189.390 0.7696 0.7399 0.7295 0.7389 0.7356 0.7725 0.8065 0.8203 0.7833 0.8027
2208.680 0.8509 0.8245 0.8555 0.9061 0.8977 0.9031 0.9644 1.0559 0.9995 0.8937
2227.970 0.8614 0.8903 0.876 0.8511 0.8781 0.8663 0.8537 0.789 0.7804 0.8026
2247.259 0.7826 0.7629 0.7873 0.8209 0.7776 0.721 0.7041 0.7262 0.7058 0.7015
2266.549 0.7175 0.6944 0.7455 0.7941 0.7481 0.76 0.7406 0.7552 0.7759 0.7291
2285.839 0.7316 0.7212 0.665 0.6623 0.682 0.6173 0.6296 0.6556 0.6618 0.7187
2305.129 0.7074 0.7325 0.8066 0.7993 0.8052 0.8092 0.7763 0.7892 0.7826 0.7354
2324.418 0.7243 0.6998 0.6315 0.6225 0.6618 0.6168 0.6354 0.6722 0.6415 0.7005
2343.708 0.7357 0.7442 0.6661 0.6384 0.7048 0.6975 0.753 0.7538 0.6842 0.6904
2362.998 0.7172 0.7262 0.773 0.7989 0.7555 0.7268 0.707 0.6952 0.7589 0.8168
2382.288 0.8091 0.7974 0.7445 0.7312 0.8263 0.8295 0.7632 0.7192 0.7461 0.7682
2401.578 0.732 0.7435 0.731 0.7285 0.759 0.7523 0.7558 0.7914 0.8271 0.8559
2420.867 0.8483 0.8442 0.826 0.871 0.961 1.0154 1.0781 1.1081 1.1181 1.1081
2440.157 0.9915 0.9697 1.0618 1.0981 1.0881 1.0548 1.0475 1.0393 1.0981 1.1181
2459.447 1.0881 1.0981 1.0589 1.0369 0.9878 0.9264 0.9436 0.9837 0.9415 0.8993
2478.737 0.926 0.9266 0.9348 0.8765 0.8233 0.8625 0.9675 0.9992 0.9183 0.8513
2498.026 0.8764 0.9408 0.9448 0.9692 1.0352 1.1281 1.1981 1.1981 1.2181 1.2581
2517.316 1.2481 1.2881 1.3681 1.4181 1.4281 1.4381 1.4481 1.4481 1.4081 1.3481
2536.606 1.3081 1.3081 1.3181 1.2281 1.1781 1.1481 1.0981 1.0598 1.0383 1.0657
2555.896 1.0511 1.0508 1.0147 1.0053 0.9951 0.9553 1.0321 1.1481 1.2281 1.1881
2575.186 1.1081 1.1381 1.1181 1.0881 1.1181 1.0012 0.8995 0.9196 0.8782 0.8142
2594.475 0.7667 0.6152 0.6172 0.7337 0.6775 0.7092 0.7697 0.7581 0.7162 0.6554
2613.765 0.7023 0.7678 0.7528 0.6829 0.6144 0.6839 0.7341 0.7563 0.7427 0.6402
2633.055 0.6266 0.6321 0.6678 0.6735 0.6546 0.6337 0.6088 0.6429 0.6787 0.6472
2652.345 0.5613 0.5902 0.6043 0.5662 0.6154 0.6161 0.6195 0.638 0.6168 0.6332
2671.634 0.7042 0.7542 0.7864 0.823 0.8246 0.8164 0.7846 0.7683 0.7741 0.685
2690.924 0.5468 0.5413 0.6625 0.6795 0.6442 0.7046 0.6866 0.6578 0.6672 0.6979
2710.214 0.7188 0.7249 0.7247 0.7195 0.7304 0.7411 0.7297 0.6779 0.7252 0.7703
2729.504 0.7695 0.7543 0.8004 0.8435 0.762 0.7296 0.7813 0.8745 0.8087 0.7923
2748.794 0.9169 0.9283 0.8305 0.6723 0.7257 0.7814 0.7036 0.7678 0.7371 0.696
2768.083 0.8326 0.8332 0.7894 0.7661 0.7944 0.9323 0.8835 0.8176 0.902 0.9398
2787.373 0.9729 0.9861 0.9609 0.9987 1.0981 1.2581 1.3481 1.2781 1.2781 1.3981
2806.663 1.4181 1.4381 1.5481 1.6681 1.7281 1.8481 1.9781 2.0981 2.2881 2.5081
2825.953 2.7081 3.0281 3.3681 3.7381 4.3181 4.9981 5.8081 6.7281 7.5881 8.2881
2845.242 8.6881 8.7481 8.4081 7.6481 6.7981 6.0281 5.2381 4.5481 4.0981 3.7181
2864.532 3.4781 3.3381 3.1881 3.0981 3.0581 3.0581 3.0281 3.0281 2.9981 2.9881
2883.822 3.0881 3.1681 3.1681 3.2381 3.3481 3.3881 3.5481 3.7481 3.8981 4.0881
2903.112 4.4981 4.8981 5.0481 5.3281 5.6081 5.8181 6.0881 6.3381 6.5581 6.5381
2922.401 6.5881 6.7081 6.6481 6.6581 6.8181 7.1381 7.6981 8.3381 9.0881 10.0181
2941.691 10.8781 11.3781 11.5781 11.7281 11.5881 11.2281 10.8581 10.4581 9.8781 9.4381
2960.981 9.1381 8.5681 7.9781 7.3581 6.7281 6.1181 5.5581 5.1281 4.9381 4.7481
2980.271 4.4181 4.3581 4.4181 4.4981 4.6781 4.9481 5.3481 5.8781 6.5981 7.5081
2999.561 8.5581 9.8081 11.1281 12.3381 13.1581 13.2481 12.8381 12.1381 11.0981 9.8781
3018.850 8.8381 8.0781 7.5381 7.1881 6.7681 6.3481 6.1681 6.0281 5.8981 5.8481
3038.140 5.7581 5.7381 5.7881 5.8881 6.0281 6.0181 6.0281 6.2481 6.6481 7.1281
3057.430 7.8081 8.5581 9.2481 10.0481 10.7881 11.3481 11.7881 12.0281 12.0481 12.0481
3076.720 11.9581 11.4381 10.7681 10.2081 9.3781 8.5081 7.7081 6.8381 6.0981 5.5781
3096.009 5.0381 4.4781 4.2181 3.8881 3.4181 3.0581 2.7781 2.5781 2.2881 1.9081
3115.299 1.6381 1.5581 1.4181 1.1181 1.1181 1.1381 0.888 0.8496 0.8387 0.7888
3134.589 0.7347 0.682 0.7613 0.8819 0.935 0.8238 0.6796 0.7359 0.7818 0.6748
3153.879 0.6921 0.8175 0.7875 0.7779 0.7841 0.6819 0.6642 0.5886 0.5199 0.594
3173.169 0.6991 0.6615 0.4879 0.4051 0.4222 0.5167 0.6844 0.6579 0.639 0.6307
3192.458 0.4979 0.4778 0.451 0.463 0.4686 0.3894 0.3292 0.3869 0.3997 0.4305
3211.748 0.3598 0.2823 0.4218 0.4778 0.3174 0.2767 0.3173 0.2101 0.13544 0.2246
3231.038 0.1855 0.13543 0.2099 0.3077 0.2388 0.13044 0.3134 0.4244 0.31 0.12811
3250.328 0.2405 0.3338 0.2613 0.2784 0.3511 0.3288 0.2625 0.358 0.2619 0.07556
3269.617 0.14146 0.2317 0.239 0.2033 0.11339 0.15214 0.257 0.12411 0.051 0.10571
3288.907 0.16059 0.2621 0.3155 0.3101 0.3283 0.3027 0.2508 0.1836 0.10739 0.10136
3308.197 0.084486 0.1888 0.2921 0.1927 0.07461 0.0592 0.11052 0.1712 0.1554 0.14861
3327.487 0.2624 0.1879 0.0649 0.07534 0.12241 0.15013 0.0647 0.2261 0.3354 0.2715
3346.777 0.3944 0.4911 0.4493 0.3419 0.2648 0.2717 0.3079 0.2568 0.1679 0.17061
3366.066 0.15421 0.0939 0.12243 0.1794 0.2246 0.2705 0.4148 0.4554 0.2505 0.252
3385.356 0.3585 0.3249 0.3838 0.518 0.4974 0.3978 0.4305 0.3698 0.5054 0.6674
3404.646 0.6622 0.6417 0.5379 0.5761 0.6545 0.8022 0.903 0.9882 1.2781 1.5281
3423.936 1.8381 2.4081 3.1081 4.0581 4.9281 5.4881 5.6781 5.7681 5.9281 5.5481
3443.225 4.7681 3.7881 2.8981 2.2381 1.6581 1.1281 0.7785 0.8511 0.7382 0.5281
3462.515 0.5857 0.5732 0.6318 0.7429 0.8229 0.7324 0.7676 0.8357 0.8421 0.8835
3481.805 0.8189 0.7938 0.6994 0.6037 0.6484 0.717 0.5562 0.4699 0.4359 0.3368
3501.095 0.3645 0.3709 0.3488 0.3972 0.4173 0.3236 0.2434 0.1907 0.2072 0.3449
3520.385 0.3823 0.3417 0.2621 0.2929 0.4468 0.5097 0.443 0.3573 0.3696 0.254
3539.674 0.09121 0.0595 0.1819 0.3447 0.3606 0.352 0.2786 0.2184 0.3356 0.4132
3558.964 0.3757 0.4261 0.4466 0.2635 0.12105 0.1877 0.3102 0.1991 0.07071 0.1465
3578.254 0.079432 0.0215 0.14942 0.3146 0.3261 0.2572 0.3414 0.3905 0.2725 0.15328
3597.544 0.16127 0.2027 0.2161 0.2808 0.2662 0.2715 0.2582 0.0989 0.0337 0
3616.833 0.0489 0.12319 0.17516 0.1845 0.2925 0.4474 0.3713 0.3304 0.3753 0.2814
3636.123 0.2332 0.2317 0.3101 0.3171 0.195 0.2031 0.17486 0.2476 0.3617 0.2586
3655.413 0.1832 0.2888 0.3164 0.2572 0.3292 0.3847 0.2759 0.1865 0.3122 0.4299
3674.703 0.3634 0.1226 0.0667 0.2646 0.3462 0.3599 0.4447 0.4497 0.2559 0.2733
3693.993 0.3979 0.3629 0.3252 0.3721 0.4383 0.5525 0.3895 0.10713 0.12194 0.13407
3713.282 0.16077 0.353 0.5566 0.522 0.4431 0.4418 0.5437 0.5331 0.3944 0.417
3732.572 0.458 0.3294 0.15365 0.10067 0.3158 0.5005 0.3957 0.4273 0.4024 0.2754
3751.862 0.2499 0.2386 0.2221 0.305 0.4901 0.4854 0.3254 0.2153 0.274 0.3338
3771.152 0.2695 0.1228 0.2777 0.5852 0.536 0.4261 0.4709 0.4303 0.3605 0.3508
3790.441 0.318 0.4991 0.6025 0.4784 0.422 0.4713 0.4559 0.3816 0.3016 0.2918
3809.731 0.2835 0.3364 0.5076 0.4057 0.3678 0.2764 0.2265 0.4542 0.3082 0.2134
3829.021 0.2593 0.3822 0.4214 0.4338 0.4699 0.289 0.2647 0.3347 0.4558 0.5364
3848.311 0.5329 0.5316 0.451 0.2783 0.2935 0.3358 0.16847 0.2888 0.4135 0.2307
3867.601 0.1957 0.3466 0.4577 0.2827 0.1807 0.3451 0.4116 0.3187 0.3853 0.4062
3886.890 0.3646 0.5067 0.6101 0.5116 0.4659 0.4651 0.5335 0.6116 0.6519 0.5305
3906.180 0.4145 0.4257 0.4472 0.4777 0.4761 0.5033 0.4084 0.5035 0.3335 0.2292
3925.470 0.2685 0.271 0.4987 0.4914 0.2678 0.2226 0.4021 0.2539 0.15092 0.2924
3944.760 0.391 0.3642 0.5206 0.7668 0.7099 0.6686 0.6762 0.498 0.3895 0.5806
3964.049 0.697 0.64 0.6313 0.6388 0.511 0.3748 0.4058 0.5922 0.4798 0.2119
3983.339 0.2012 0.2762 0.2616 0.2887 0.2344 0.17561 0.3087 0.251 0.2924 0.3058
##END=
