##TITLE=Diallylethanolamine
##JCAMP-DX=4.24
##DATA TYPE=INFRARED SPECTRUM
##ORIGIN=EPA-IR VAPOR PHASE LIBRARY
##OWNER=SRD/NIST
Collection (C) 2018 copyright by the U.S. Secretary of Commerce
on behalf of the United States of America. All rights reserved.
##CAS REGISTRY NO=17719-79-8
##MOLFORM=C 8 H 15 N O
##$NIST SOURCE=MSDC-IR
##STATE=gas
##XUNITS=1/CM
##YUNITS=ABSORBANCE
##XFACTOR=1.
##YFACTOR=0.001
##DELTAX=3.85796
##FIRSTX=501.5
##LASTX=4000.7
##FIRSTY=3.45
##MAXX=4000.7
##MINX=501.534
##MAXY=0.04433
##MINY=0.0001859
##NPOINTS=908
##XYDATA=(X++(Y..Y))
501.534 3.45 3.57 3.4 3.42 3.7 3.81 3.78 3.83 4.05 4.11
540.114 4.1 4.18 4.29 4.23 4.03 3.82 3.61 3.28 3.01 3.02
578.693 2.91 2.77 2.86 2.94 2.98 3.14 3.16 3.1 3.17 3.1
617.273 2.99 2.87 2.7 2.59 2.53 2.59 2.59 2.6 2.72 2.7
655.852 2.67 2.63 2.47 2.34 2.21 2.09 2.04 1.88 1.68 1.55
694.432 1.43 1.36 1.3 1.26 1.23 1.17 1.17 1.18 1.17 1.13
733.011 1.1 1.14 1.13 1.15 1.22 1.26 1.33 1.49 1.66 1.82
771.591 2.01 2.31 2.67 3.08 3.47 3.67 3.87 4.03 4.02 3.97
810.170 3.79 3.52 3.26 3.06 3.04 3.14 3.36 3.7 4.06 4.45
848.750 4.92 5.52 6.16 6.75 7.19 7.39 7.35 7.22 7.18 7.33
887.330 7.82 8.76 10.2 12.27 15.58 20.66 27.69 35.51 41.76 44.33
925.909 42.21 36.37 29.14 23 19.02 16.79 15.64 15.09 14.94 15
964.489 15.25 15.61 16.14 17.16 18.9 21.41 24.11 26.16 26.97 26.49
1003.068 25.25 23.79 22.96 23.32 24.64 26.64 29.09 31.83 34.64 37.1
1041.648 38.99 40.47 41.81 42.86 43.4 43.01 41.26 38.06 33.64 28.87
1080.227 24.76 21.52 19.22 17.49 16.09 15.12 14.46 14.07 13.81 13.75
1118.807 13.79 13.75 13.66 13.73 14.03 14.46 15.1 15.84 16.34 16.55
1157.387 16.45 15.9 14.93 13.7 12.43 11.22 10.21 9.53 9.27 9.32
1195.966 9.51 9.83 10.02 9.91 9.58 9.03 8.39 7.87 7.46 7.32
1234.546 7.35 7.43 7.6 8.07 8.78 9.58 10.47 11.2 11.66 11.89
1273.125 11.91 11.78 11.59 11.37 11.16 10.93 10.71 10.56 10.6 10.85
1311.705 11.31 12.11 13.2 14.42 15.59 16.51 17.12 17.47 17.54 17.47
1350.284 17.36 17.07 16.55 15.78 14.8 13.74 12.74 11.94 11.48 11.53
1388.864 12.09 12.99 14.04 14.98 15.73 16.37 16.89 16.97 16.48 15.64
1427.443 14.46 13.13 12.2 11.95 12.11 12.36 12.37 11.89 10.74 9.4
1466.023 8.06 6.87 5.93 5.17 4.49 3.85 3.25 2.73 2.33 2.04
1504.603 1.88 1.74 1.6 1.53 1.48 1.44 1.4 1.34 1.3 1.25
1543.182 1.23 1.22 1.18 1.14 1.09 1.07 1.06 1.04 1.02 1.02
1581.762 1.05 1.06 1.09 1.11 1.16 1.24 1.32 1.45 1.64 1.93
1620.341 2.45 3.2 4.23 5.46 6.61 7.23 7.16 6.35 4.99 3.39
1658.921 2.27 1.58 1.19 0.9915 0.855 0.7401 0.6758 0.6345 0.611 0.5663
1697.500 0.5394 0.5529 0.532 0.5164 0.5083 0.4818 0.4687 0.4614 0.4463 0.4361
1736.080 0.4504 0.4423 0.429 0.4293 0.4307 0.4373 0.4428 0.4476 0.4344 0.4316
1774.659 0.446 0.4605 0.4742 0.4761 0.4799 0.5155 0.5446 0.5607 0.6071 0.6794
1813.239 0.8024 0.9492 1.16 1.48 1.89 2.42 2.99 3.5 3.8 3.8
1851.819 3.53 3.04 2.45 1.9 1.45 1.14 0.9733 0.8548 0.7583 0.695
1890.398 0.67 0.641 0.6292 0.6429 0.6357 0.635 0.6536 0.6677 0.6593 0.6522
1928.978 0.6438 0.6351 0.6184 0.599 0.5938 0.5819 0.5637 0.5743 0.6105 0.6268
1967.557 0.6563 0.6942 0.7037 0.713 0.721 0.6643 0.5724 0.5105 0.4367 0.3768
2006.137 0.3649 0.3507 0.3309 0.3285 0.3219 0.3323 0.3397 0.3433 0.3472 0.3456
2044.716 0.3766 0.4085 0.4121 0.4117 0.4204 0.4179 0.4084 0.4255 0.4346 0.4137
2083.296 0.3971 0.3735 0.3824 0.3933 0.3905 0.3875 0.3821 0.3885 0.4002 0.3985
2121.875 0.3902 0.3924 0.3941 0.3892 0.3692 0.3305 0.311 0.3326 0.317 0.274
2160.455 0.2618 0.2837 0.2912 0.2897 0.2929 0.2838 0.2741 0.2858 0.3045 0.3068
2199.035 0.3205 0.329 0.3335 0.335 0.329 0.3106 0.2962 0.299 0.3157 0.3249
2237.614 0.3167 0.3279 0.3429 0.3472 0.3529 0.3421 0.3166 0.3354 0.3722 0.3666
2276.194 0.3536 0.3638 0.3446 0.3433 0.3649 0.3615 0.3592 0.3737 0.3982 0.3984
2314.773 0.3984 0.4031 0.4042 0.4216 0.4135 0.4047 0.4172 0.4014 0.3996 0.3977
2353.353 0.3923 0.4303 0.4669 0.4667 0.4648 0.4699 0.457 0.4556 0.4627 0.4469
2391.932 0.4419 0.458 0.4935 0.4991 0.4827 0.4675 0.4575 0.4589 0.4492 0.4443
2430.512 0.4393 0.4333 0.4212 0.3948 0.3853 0.3832 0.3792 0.4019 0.4156 0.4003
2469.092 0.3825 0.4093 0.4342 0.3853 0.3397 0.3683 0.3836 0.3937 0.4134 0.4098
2507.671 0.4319 0.4761 0.496 0.4905 0.5197 0.5168 0.5253 0.5631 0.5855 0.6024
2546.251 0.5961 0.6054 0.6384 0.6804 0.7039 0.7164 0.7475 0.7918 0.8017 0.826
2584.830 0.8549 0.8954 0.9463 0.9873 1.04 1.04 1.09 1.17 1.21 1.26
2623.410 1.34 1.4 1.45 1.53 1.6 1.68 1.78 1.87 1.95 2.05
2661.989 2.22 2.36 2.55 2.73 2.93 3.14 3.33 3.56 3.81 4.06
2700.569 4.28 4.46 4.62 4.78 4.87 4.96 5.07 5.16 5.3 5.48
2739.148 5.71 6.04 6.51 7.01 7.59 8.33 9.2 10.2 11.28 12.49
2777.728 13.92 15.67 17.83 20.41 23.35 26.41 29.35 31.92 33.91 35.13
2816.308 35.47 34.95 33.67 31.75 29.51 27.2 24.88 22.72 20.91 19.58
2854.887 18.86 18.87 19.6 20.88 22.53 24.26 25.77 26.81 27.27 27.25
2893.467 26.87 26.35 25.97 25.93 26.37 27.37 28.92 30.88 32.92 34.64
2932.046 35.79 36.24 35.98 35.11 33.76 32.05 30.09 27.94 25.61 23.37
2970.626 21.52 20.26 19.48 18.92 18.18 16.91 15.17 13.38 12.12 11.57
3009.205 11.45 11.36 10.93 9.93 8.52 7.07 5.9 5.17 4.86 4.83
3047.785 4.97 5.34 5.91 6.74 7.84 9.3 11.31 13.86 16.54 18.73
3086.364 19.62 18.09 14.76 11.22 7.82 5.15 3.55 2.64 2.09 1.78
3124.944 1.57 1.39 1.3 1.22 1.16 1.11 1.05 0.9878 0.944 0.9039
3163.524 0.8141 0.7651 0.7152 0.6514 0.6234 0.6278 0.6116 0.5791 0.5686 0.5527
3202.103 0.5431 0.5355 0.4917 0.4571 0.4453 0.416 0.4219 0.4262 0.367 0.3367
3240.683 0.3625 0.3916 0.4191 0.4537 0.4441 0.423 0.4683 0.433 0.4065 0.4392
3279.262 0.422 0.377 0.3732 0.3917 0.4377 0.4851 0.4468 0.442 0.4277 0.4249
3317.842 0.4663 0.4785 0.463 0.4753 0.4867 0.4691 0.5126 0.5419 0.5425 0.5657
3356.421 0.5834 0.5714 0.4968 0.4907 0.5685 0.6196 0.642 0.6416 0.6431 0.6823
3395.001 0.7456 0.7733 0.8445 0.9092 0.9339 0.9917 1.08 1.16 1.21 1.26
3433.580 1.26 1.28 1.32 1.32 1.34 1.37 1.32 1.29 1.3 1.29
3472.160 1.32 1.31 1.33 1.39 1.41 1.4 1.41 1.41 1.42 1.51
3510.740 1.56 1.66 1.87 2.14 2.46 2.91 3.44 3.89 4.2 4.44
3549.319 4.54 4.51 4.44 4.37 4.2 3.95 3.84 3.67 3.45 3.33
3587.899 3.17 2.99 2.91 2.8 2.69 2.62 2.45 2.33 2.21 2.05
3626.478 1.99 1.96 1.97 2.05 2.17 2.4 2.74 3.17 3.6 3.91
3665.058 4.13 4.15 3.86 3.46 3.05 2.56 2 1.56 1.29 1.08
3703.637 0.9297 0.8086 0.7175 0.6675 0.6116 0.5446 0.5309 0.5099 0.5021 0.501
3742.217 0.3895 0.3583 0.3551 0.3128 0.2744 0.217 0.2195 0.2332 0.2332 0.2609
3780.797 0.2763 0.2254 0.2473 0.3334 0.376 0.334 0.2931 0.2714 0.2042 0.1859
3819.376 0.1879 0.2235 0.2265 0.2134 0.2542 0.2712 0.2547 0.1967 0.2291 0.3177
3857.956 0.3267 0.3619 0.3535 0.2672 0.2738 0.2769 0.293 0.342 0.3596 0.3486
3896.535 0.3071 0.2864 0.3192 0.378 0.3653 0.2927 0.2783 0.3343 0.4 0.3666
3935.115 0.3008 0.3521 0.3661 0.3545 0.3519 0.2847 0.2499 0.2815 0.3166 0.3235
3973.694 0.3036 0.3405 0.3858 0.3596 0.3655 0.3572 0.3487 0.3557
##END=
