##TITLE=2-Bromo-1-indanone
##JCAMP-DX=4.24
##DATA TYPE=INFRARED SPECTRUM
##ORIGIN=EPA-IR VAPOR PHASE LIBRARY
##OWNER=SRD/NIST
Collection (C) 2018 copyright by the U.S. Secretary of Commerce
on behalf of the United States of America. All rights reserved.
##CAS REGISTRY NO=1775-27-5
##MOLFORM=C 9 H 7 Br O
##$NIST SOURCE=MSDC-IR
##STATE=gas
##XUNITS=1/CM
##YUNITS=ABSORBANCE
##XFACTOR=1.
##YFACTOR=0.001
##DELTAX=1.92898
##FIRSTX=549.8
##LASTX=4000.7
##FIRSTY=2.48
##MAXX=4000.7
##MINX=549.759
##MAXY=0.07307
##MINY=0
##NPOINTS=1790
##XYDATA=(X++(Y..Y))
549.759 2.48 2.1198 1.531 2.3351 2.87 2.1033 1.4913 1.7282 1.6089 1.162
569.049 1.177 1.3096 1.4981 1.4774 1.3199 1.5766 2.1801 2.64 2.1517 1.9301
588.339 2.83 3.35 3.51 5.03 6.59 7.18 7.61 8.24 8.53 8.16
607.628 7.18 5.47 4.29 3.72 3.72 2.97 2.1955 2.92 3.03 2.89
626.918 2.7 2.2489 2.71 2.55 2.2033 2.2444 2.0045 2.0566 2.0096 1.9205
646.208 1.995 1.9715 2.1209 2.59 2.83 2.99 3.36 3.8 4.53 5.41
665.498 6.34 7.76 8.71 9.55 10 9.73 9.84 9.41 8.37 7.8
684.787 7.02 5.84 4.59 3.83 3.65 3.33 2.88 2.83 2.91 2.63
704.077 2.54 2.74 2.72 2.63 2.62 2.66 2.91 3.65 4.53 4.65
723.367 5.06 6.18 8.07 10.6 11.85 13.08 15.85 18.59 20.53 20.04
742.657 18.63 17.78 16.05 14.57 12.83 10.91 9.54 7.46 6.01 4.85
761.947 3.88 4.05 3.98 3.2 2.66 3.31 3.77 3.49 3.24 3.33
781.236 3.55 3.3 2.39 2.0829 2.81 2.92 2.8 2.88 2.49 2.3499
800.526 2.51 2.2613 2.2982 2.1779 2.2144 2.2763 1.8547 1.9291 2.2796 2.3578
819.816 2.0067 1.9485 2.47 3.53 4.19 4.94 5.25 4.92 5.38 5.57
839.106 4.93 4.3 3.7 3.06 3.05 2.78 2.2746 2.045 1.9678 2.37
858.395 2.3151 2.0205 1.8662 1.6314 1.40129 1.40854 1.5071 1.6231 1.4961 0.966
877.685 1.12 1.8606 1.8878 1.248 1.6507 1.6726 0.971 1.196 1.2759 1.36107
896.975 1.7932 1.6636 1.9455 2.3037 2.0523 1.9098 1.8473 1.7642 1.5415 1.4771
916.265 1.257 1.188 1.43648 1.7827 2.0267 2.0553 2.6 2.93 3.17 3.29
935.555 3.3 3.1 2.82 3.04 2.78 2.1455 2.1175 2.4 2.0227 2.2366
954.844 2.81 2.63 2.79 2.94 3.18 3.22 2.87 2.67 2.45 2.7
974.134 3.36 3.65 3.3 3.41 3.65 3.74 3.89 3.97 4.31 4.25
993.424 3.82 4.56 5.24 4.98 4.73 5.15 6.37 7.13 7.51 8.02
1012.714 7.72 7.45 8.2 8.39 8.07 7.88 6.74 4.83 4.55 4.96
1032.003 4.31 3.28 3.05 2.83 1.8718 1.8496 2.71 2.52 1.7362 1.9135
1051.293 2.48 2.2693 1.903 2.76 2.86 2.46 3.52 3.11 2.2431 2.0219
1070.583 2.1316 2.4 1.6795 1.771 3.59 5.19 5.07 5.16 6.16 7.21
1089.873 7.36 6.97 6.39 5.7 4.69 4.19 4.19 3.07 1.8882 1.5487
1109.163 2.2496 2.42 0.893 1.36436 3.41 3.62 2.78 2.5 2.2993 2.78
1128.452 2.67 1.37591 2.2471 4.03 3.76 2.68 3.68 4.85 5.02 5.83
1147.742 5.7 5.78 6.1 5.65 5.22 4.73 4.89 5.14 5.27 5.48
1167.032 6.21 6.68 7.32 7.25 6.82 7.87 8.07 7.56 7.68 7.42
1186.322 7.33 6.56 5.22 5.41 6.01 7.48 8.68 7.95 7.2 7.31
1205.611 8.1 9.64 10.56 8.9 6.04 4.17 3.6 2.54 3.44 4.14
1224.901 2.83 3.57 3.79 3.28 2.69 3.6 3.44 3.23 4.84 4.48
1244.191 3.3 2.86 3.18 3.59 4.03 4.85 5.51 6.77 8.46 9.5
1263.481 11.5 13.42 13.92 14.29 14.02 13.64 12.73 10.88 9.44 7.85
1282.771 6.46 6.13 6.06 6.29 7.08 8.19 8.79 9.02 9.16 8.96
1302.060 8.35 7.89 7.6 7.07 6.91 7.11 7.41 7.37 7.19 6.93
1321.350 6.23 5.7 5.26 4.68 4.42 4.27 3.91 3.71 3.49 3.24
1340.640 3.2 3.22 2.99 2.49 2.2841 2.2589 2.0664 1.984 1.9182 1.6817
1359.930 1.5721 1.5436 1.5574 1.4997 1.39098 1.5432 1.5334 1.37505 1.3158 1.3263
1379.219 1.25 1.21 1.271 1.249 1.258 1.348 1.38741 1.35974 1.38488 1.4708
1398.509 1.5605 1.45556 1.45832 1.6761 1.7854 1.6052 1.7229 1.9268 1.8377 2.0913
1417.799 2.38 2.44 2.57 2.73 2.92 3.14 3.42 3.71 3.85 4.03
1437.089 4.15 4.12 4.17 4.12 4 4.13 4.06 3.86 4.1 4.63
1456.378 5.33 6.03 6.88 7.69 8.33 8.93 9.47 9.52 9.06 8.07
1475.668 6.77 5.81 5.03 4.29 3.64 3.06 2.54 2.2691 2.0976 2.1362
1494.958 2.2227 2.0349 1.9695 1.8671 1.6243 1.693 1.7368 1.5225 1.5379 1.642
1514.248 1.6718 1.5779 1.5265 1.2932 1.106 1.38494 1.5026 1.5842 1.7825 1.7842
1533.538 1.7238 1.3165 1.048 1.5256 1.7575 1.7121 1.7894 1.5398 1.3054 1.5393
1552.827 1.8311 1.9562 1.9589 1.9551 1.9089 1.9824 2.1086 2.2012 2.155 2.1674
1572.117 2.52 2.77 2.99 3.32 3.69 4.22 4.63 5.22 5.76 6.07
1591.407 6.35 6.94 8.2 9.04 9.92 11.15 12.16 13.18 14.13 14.64
1610.697 14.67 14.35 13.36 11.92 10.42 8.64 6.67 5.28 4.45 3.7
1629.986 2.99 2.47 2.45 2.3329 2.0072 1.9236 2.0259 2.0711 1.8601 1.7927
1649.276 1.9624 2.1983 2.3105 2.0643 1.7267 1.7311 1.9118 1.8795 1.9304 1.9735
1668.566 2.1578 2.1548 1.9451 1.9828 2.1127 2.2859 2.46 2.64 2.84 2.93
1687.856 3.12 3.47 3.59 3.83 3.99 3.97 4.23 4.33 4.22 4.35
1707.146 4.74 4.94 4.95 5.21 5.68 6.35 7.11 8.07 9.19 10.7
1726.435 12.93 15.48 18.66 22.93 28.6 35.45 43.18 51.77 59.91 66.79
1745.725 71.11 72.99 73.07 71.58 67.64 60.27 50.21 40.25 31.09 23.68
1765.015 18.11 13.93 10.89 8.69 7.14 6.06 5.22 4.37 3.88 3.69
1784.305 3.33 3.13 3.03 2.79 2.6 2.49 2.2222 2.1139 2.0792 2.0858
1803.594 2.112 2.1144 2.1407 2.2226 2.3319 2.3087 2.2654 2.1834 2.1853 2.3298
1822.884 2.43 2.38 2.1324 2.083 2.1212 2.0114 1.9859 1.9903 2.0771 2.0204
1842.174 1.9796 2.0496 1.9293 1.8827 1.852 1.7732 1.9042 1.7978 1.592 1.5655
1861.464 1.5126 1.5521 1.713 1.6055 1.43177 1.235 1.3418 1.6477 1.4965 1.3447
1880.754 1.42842 1.5108 1.4792 1.6028 1.6715 1.5356 1.4856 1.3371 1.3179 1.37788
1900.043 1.5184 1.561 1.38531 1.5453 1.6934 1.5678 1.5354 1.6149 1.6392 1.708
1919.333 1.74 1.6546 1.45342 1.5921 1.8116 1.5867 1.6276 1.6675 1.5465 1.6268
1938.623 1.7399 1.9992 2.099 1.831 1.6037 1.688 1.7815 1.8217 1.9456 1.9717
1957.913 1.8855 1.8014 1.8846 1.9229 1.7568 1.7882 1.6532 1.5101 1.44317 1.259
1977.202 1.166 1.195 1.188 1.084 1.161 1.3151 1.35926 1.38507 1.40389 1.218
1996.492 1.228 1.45512 1.3174 1.192 1.25 1.2674 1.3212 1.2 1.136 1.234
2015.782 1.235 1.2711 1.35523 1.3394 1.37155 1.43616 1.37135 1.2743 1.3463 1.41658
2035.072 1.249 1.247 1.3359 1.228 1.2817 1.3842 1.37361 1.35409 1.223 1.118
2054.362 1.064 0.941 1.017 1.123 1.156 1.201 1.209 1.219 1.134 1.113
2073.651 1.009 1.022 1.113 1.072 1.076 0.921 0.805 0.859 0.924 0.842
2092.941 0.867 1.062 1.172 1.184 1.232 1.35109 1.2622 1.181 1.081 0.982
2112.231 1.032 0.874 0.869 0.856 0.666 0.863 0.977 0.938 0.902 0.779
2131.521 0.85 0.934 0.889 1.117 1.2641 1.006 0.918 0.98 0.981 1.095
2150.810 1.251 1.2754 1.091 0.863 0.718 0.88 1.168 1.3432 1.2923 1.168
2170.100 1.346 1.3077 1.048 0.803 0.802 1.032 1.1 1.068 0.909 0.756
2189.390 0.967 1.026 0.929 0.954 1.026 1.035 1.012 1.082 1.111 1.148
2208.680 1.149 1.104 1.048 0.998 1.101 1.113 1.003 1.124 1.207 1.074
2227.970 1.146 1.128 0.989 1.133 1.001 0.931 1.104 1.15 1.186 1.137
2247.259 1.003 0.974 1.06 1.034 1.116 1.152 1.172 1.283 1.255 1.138
2266.549 1.042 1.016 1.018 1.058 1.095 0.972 0.983 1.009 0.991 1.2631
2285.839 1.39565 1.099 0.876 1.087 1.2 1.045 1.034 1.36059 1.4787 1.4841
2305.129 1.5569 1.4684 1.39142 1.39333 1.2924 1.245 1.4903 1.66 1.5452 1.5438
2324.418 1.5059 1.2702 1.129 1.078 1.218 1.149 1.087 1.245 1.254 1.214
2343.708 1.2664 1.132 1.091 1.267 1.40347 1.3253 1.201 1.42971 1.5705 1.601
2362.998 1.5237 1.191 1.156 1.4624 1.38778 1.2883 1.2667 1.089 0.951 0.904
2382.288 0.927 0.957 1.045 1.037 1.006 0.962 1.005 1.126 1.027 0.9
2401.578 0.804 0.729 0.777 0.96 1.179 1.125 1.027 0.963 0.703 0.837
2420.867 1.125 1.076 1.096 0.925 0.896 1.03 1.021 1.03 1.149 1.079
2440.157 0.985 1.219 1.225 1.05 0.78 0.831 1.042 1.211 1.052 0.563
2459.447 0.714 0.937 0.858 0.811 0.752 0.908 1.134 1.078 1.094 1.167
2478.737 1.005 0.994 1.147 1.128 1.034 1.041 1.002 0.971 1.096 1.083
2498.026 1.034 1.031 0.964 0.885 0.853 0.945 0.838 0.829 1.159 1.3048
2517.316 1.3077 1.4955 1.4454 1.152 0.981 0.881 1.064 1.126 1.133 1.44298
2536.606 1.141 0.572 0.647 0.893 0.972 1.087 1.039 0.906 1.067 0.998
2555.896 0.809 1.014 1.112 0.992 0.814 0.801 0.993 1.09 1.05 1.049
2575.186 1.247 1.207 0.847 0.838 1.147 1.195 0.904 1.043 1.106 1.112
2594.475 1.39202 1.132 0.931 1.168 1.2783 1.104 1.053 1.2748 1.196 1.191
2613.765 1.2955 1.38722 1.13 0.709 0.748 0.799 1.118 0.895 0.677 0.979
2633.055 1.011 0.837 0.785 0.811 0.972 1.09 1.102 1.182 1.21 1.283
2652.345 1.5178 1.4821 1.3202 1.4669 1.3337 1.193 1.162 0.961 0.817 1.104
2671.634 1.2895 0.989 0.817 0.627 0.699 1.116 1.238 1.188 1.2882 1.3201
2690.924 1.084 0.946 0.943 0.922 0.97 1.055 1.069 0.945 0.995 0.97
2710.214 0.97 1.135 1.163 1.184 1.207 0.987 0.793 0.69 0.601 0.765
2729.504 0.819 0.952 1.165 0.912 0.753 1.03 1.298 1.175 0.941 0.934
2748.794 1.11 1.113 1.087 1.223 0.894 0.856 1.41597 1.6843 1.40581 1.2885
2768.083 1.297 1.3234 1.138 0.858 0.858 1.045 1.42251 1.273 1.125 1.123
2787.373 1.255 1.2604 0.794 0.83 1.169 1.019 0.621 0.854 1.089 0.961
2806.663 1.205 1.193 0.938 1.183 0.918 0.739 1.124 1.3494 1.328 1.39315
2825.953 1.5946 1.5583 1.5005 1.36934 0.975 0.889 0.982 1.113 1.3412 1.38748
2845.242 1.6499 1.6028 1.4805 1.8864 2.1277 1.9769 2.0497 1.9248 1.8572 1.9797
2864.532 2.0822 1.9893 1.4824 1.7051 1.8433 1.6413 1.5673 1.4884 1.485 1.122
2883.822 1.2764 1.4972 1.2785 1.109 1.523 1.9574 1.9242 1.872 1.9066 1.8807
2903.112 2.1268 2.2758 2.43 2.63 2.62 3.02 3 3.15 2.89 2.94
2922.401 3.18 3.26 3.16 2.8 3.28 3.29 3.07 3.01 3.03 3.33
2941.691 3.36 3.19 3.2 3.34 3.34 3.36 3.32 3.32 3.38 3.38
2960.981 3.32 3.31 3.3 2.84 2.2827 2.1134 1.882 1.4858 1.6821 1.7848
2980.271 1.39912 1.43327 1.7814 1.975 1.6875 1.6152 2.0508 2.2481 1.844 1.6114
2999.561 1.9975 1.8593 1.4932 1.8396 2.0561 1.669 1.5098 1.8261 2.2299 2.2334
3018.850 2.1703 2.3227 2.54 2.87 3.08 2.81 3.06 3.59 3.45 3.66
3038.140 4.09 4.31 4.64 4.84 4.88 4.52 3.98 4.48 4.69 4.34
3057.430 4.32 4.4 4.55 4.83 4.93 5.44 6.5 6.72 6.88 7.23
3076.720 7.62 7.65 7.26 7.19 6.91 6.46 5.77 4.86 4.28 3.58
3096.009 3.5 3.55 3.08 2.45 1.482 1.5162 1.7777 1.562 1.221 1.116
3115.299 1.05 0.65 0.744 0.783 0.773 1.067 1.143 1.41397 1.218 0.948
3134.589 0.8 0.948 1.003 1.18 1.3159 0.952 1.152 0.951 1.214 1.5026
3153.879 1.052 1.01 0.914 0.587 1 1.198 1.018 1.205 0.907 0.701
3173.169 0.899 1.114 1.049 0.831 0.613 0.636 1.3133 1.38626 0.799 0.701
3192.458 0.991 1.3432 1.5132 1.195 1.3179 1.238 1.213 1.4962 1.226 1.2966
3211.748 1.3636 1.206 1.5213 1.104 0.695 0.886 0.781 0.723 1.3252 1.3145
3231.038 0.712 1.103 1.094 0.956 0.847 0.691 0.453 0.491 1.028 0.932
3250.328 0.841 0.919 1.127 1.185 0.998 0.976 0.957 0.884 0.825 0.51
3269.617 0.936 1.4275 0.811 0.701 0.835 0.831 0.935 0.661 0.851 1.088
3288.907 0.721 1.207 1.36408 0.748 0.69 1.35995 1.4769 1.056 1.4716 1.3111
3308.197 1.028 1.39569 0.985 1.167 1.7653 1.3447 1.3013 1.6606 1.195 1.272
3327.487 1.6138 1.183 1.117 0.9 0.689 0.995 0.892 1.118 1.226 0.906
3346.777 1.199 1.131 1.3392 1.5424 1.04 0.881 1.163 1.3131 1.3156 0.879
3366.066 0.964 0.966 0.49 0.695 0.564 0.19 0.375 0.705 0.825 0.934
3385.356 0.983 1.2936 1.292 1.177 1.165 1.22 1.139 1.032 1.1 0.789
3404.646 1.052 1.5786 1.2938 0.705 0.973 1.2685 1.144 1.35906 1.342 1.36488
3423.936 1.41353 1.196 1.157 1.242 1.35449 1.147 1.271 1.4987 1.2 1.2746
3443.225 1.3157 1.3606 1.43133 1.42012 1.5773 1.5226 1.238 0.953 1.127 1.7207
3462.515 1.7511 1.7537 2.1084 1.9523 2.28 2.61 2.2664 2.3441 2.41 2.023
3481.805 2.0045 2.49 2.52 2.2825 2.2665 1.7748 1.25 1.40633 1.6539 1.3204
3501.095 1.154 1.271 1.002 0.823 1.133 1.4719 1.23 0.851 0.756 0.913
3520.385 0.931 0.768 0.811 0.81 0.734 0.786 1.069 1.249 1.196 0.76
3539.674 0.422 0.959 1.3199 0.78 0.764 0.936 0.664 1.145 1.4669 1.598
3558.964 1.5155 1.234 1.3144 1.2933 1.242 1.2934 1.092 0.916 0.978 0.717
3578.254 0.745 0.877 0.722 0.708 1.022 1.3325 0.784 0.75 1.161 1.065
3597.544 0.795 0.985 1.129 1.21 1.5443 1.233 1.182 1.3272 1.243 1.4701
3616.833 1.3296 0.967 1.233 1.3453 0.676 0.696 1.169 0.873 0.397 0.888
3636.123 1.5037 1.43551 1.39656 1.082 0.734 0.533 1.017 1.5361 0.892 0.777
3655.413 1.054 1.225 1.5621 1.43613 1.195 0.904 0.716 0.761 0.986 0.733
3674.703 0.428 0.526 0.858 1.04 0.565 0.542 1.194 1.4884 1.38718 1.256
3693.993 1.2857 0.964 1.071 1.3466 0.905 0.621 0.646 1.102 1.6999 1.6637
3713.282 1.42579 1.2781 1.096 1.038 1.005 0.934 0.903 0.928 0.658 0.487
3732.572 0.399 1.115 1.5512 1.2671 1.40959 1.5239 1.099 0.54 1.236 1.39154
3751.862 0.783 1.214 1.5305 1.229 1.049 1.38259 1.073 0.678 0.545 0.542
3771.152 0.935 1.2781 1.6603 1.3347 1.217 1.38993 1.252 1.297 1.2681 1.216
3790.441 1.244 0.852 1.056 1.41568 1.4744 1.37774 1.349 1.4694 1.4583 1.197
3809.731 0.838 1.011 1.145 0.892 0.823 0.987 0.539 0.17 0.825 1.191
3829.021 0.86 1.021 1.087 1.2714 1.43592 1.141 0.749 1.065 1.098 0.646
3848.311 1.018 1.6476 1.6915 1.5715 1.2868 1.163 1.2981 1.323 1.2855 0.404
3867.601 0 0.588 0.578 0.25 0.395 0.909 1.068 0.665 1.2886 1.6513
3886.890 1.5101 1.6884 1.4732 1.3268 1.2785 1.09 0.925 1.038 1.7963 1.7246
3906.180 1.066 1.4655 2.1015 1.7577 1.16 1.096 0.478 0.608 1.606 1.7399
3925.470 1.45179 1.3251 1.051 0.664 0.566 0.579 0.66 0.994 0.934 0.695
3944.760 0.613 0.576 0.593 0.563 0.657 1.028 0.957 1.069 1.36968 1.143
3964.049 1.13 1.3291 1.149 0.859 1.132 1.08 0.612 0.742 0.929 0.812
3983.339 0.486 0.593 0.727 0.471 0.743 1.05 1.201 1.3372 1.218 1.106
##END=
