##TITLE=Bis(2-Chlorophenyl)phosphorochloridate
##JCAMP-DX=4.24
##DATA TYPE=INFRARED SPECTRUM
##ORIGIN=EPA-IR VAPOR PHASE LIBRARY
##OWNER=SRD/NIST
Collection (C) 2018 copyright by the U.S. Secretary of Commerce
on behalf of the United States of America. All rights reserved.
##CAS REGISTRY NO=17776-78-2
##MOLFORM=C 12 H 8 Cl 3 O 3 P
##$NIST SOURCE=MSDC-IR
##STATE=gas
##XUNITS=1/CM
##YUNITS=ABSORBANCE
##XFACTOR=1.
##YFACTOR=0.001
##DELTAX=1.92934
##FIRSTX=549.9
##LASTX=3999.5
##FIRSTY=37.62
##MAXX=3999.53
##MINX=549.863
##MAXY=0.48425
##MINY=0
##NPOINTS=1789
##XYDATA=(X++(Y..Y))
549.863 37.62 41.57 45.97 50.41 54.68 58.33 60.62 61.56 61.54 60.86
569.156 59.98 59.35 59.17 59.35 60.07 60.98 61.97 63.26 64.68 65.96
588.450 66.77 67.04 66.78 65.84 64.39 62.79 61.61 60.93 60.91 61.64
607.743 63.02 64.96 66.99 68.73 69.66 69.36 67.98 65.29 61.46 57.03
627.037 52.3 47.37 42.61 38.32 34.2 30.36 27.03 24.13 21.59 19.49
646.330 17.78 16.52 15.62 14.98 14.73 14.86 15.37 16.51 18.28 20.85
665.624 24.59 29.67 35.83 42.29 48.32 52.58 54.09 52.52 48.38 42.49
684.917 36.13 30.47 25.87 22.35 19.78 18.1 16.99 16.32 16.22 16.71
704.210 17.6 18.69 19.78 20.45 20.55 19.98 19 17.93 17.15 16.94
723.504 17.3 18.27 19.93 22.44 25.89 30.61 36.94 45.26 55.92 69.47
742.797 86.14 105.11 124.2 139.75 148.14 148.37 142.53 133.86 124.91 117.04
762.091 110.36 104.41 98.76 93.13 87.66 82.5 77.45 72.09 66.04 59.22
781.384 52.04 44.91 38.23 32.42 27.65 23.72 20.62 18.18 16.24 14.78
800.678 13.64 12.74 11.97 11.33 10.83 10.42 10.13 9.83 9.63 9.49
819.971 9.37 9.28 9.24 9.23 9.21 9.24 9.3 9.37 9.44 9.63
839.264 9.81 10.03 10.37 10.72 11.23 11.81 12.33 12.73 12.98 13.08
858.558 12.96 12.68 12.52 12.47 12.51 12.64 12.81 13.17 13.64 14.14
877.851 14.64 15.18 15.77 16.33 16.88 17.38 17.8 18.19 18.51 18.83
897.145 19.3 19.94 20.69 21.57 22.69 24.12 25.9 28.05 30.54 33.63
916.438 37.5 42.41 48.58 56.24 65.73 77.24 90.82 106.11 122.63 139.4
935.732 155.15 169.21 181.6 192.6 202.94 213.98 226.95 243.32 264.57 291.61
955.025 324.19 360.37 396.61 427.97 449.47 457.48 450.24 428.3 394.41 352.27
974.318 305.73 258.83 214.94 175.99 143.39 117.63 97.79 82.59 70.87 61.63
993.612 54.24 48.2 43.19 39.06 35.62 32.79 30.34 28.3 26.81 25.75
1012.905 25.14 25.03 25.45 26.57 28.61 31.78 36.55 43.36 52.32 62.65
1032.199 72.19 78.01 78.28 73.19 64.46 55.02 48.07 45.38 47.42 54.79
1051.492 68.36 88.52 113.22 137.29 154.93 162.47 158.56 144.56 125.07 105.25
1070.786 87.24 71.05 56.86 45.37 36.75 30.48 25.93 22.49 19.9 17.96
1090.079 16.37 15.04 13.98 13.09 12.41 11.91 11.41 11 10.7 10.41
1109.372 10.29 10.36 10.49 10.74 11.13 11.84 12.91 14.27 16.05 18.31
1128.666 20.74 22.85 24.27 24.53 23.4 21.24 18.64 16.22 14.48 13.55
1147.959 13.27 13.88 15.47 17.94 20.4 21.84 22.24 21.65 20.26 18.95
1167.253 18.46 18.77 19.66 20.8 22.21 24.01 26.25 29.14 32.62 36.85
1186.546 42.33 49.1 57.52 68.3 82.26 100.8 125.74 159.34 204.1 261.39
1205.840 328.65 397.32 453.98 484.25 479.08 439.66 377.53 310.37 253.44 212.9
1225.133 187.35 172.68 164.04 157.24 149.55 139.41 126.59 112.11 97.51 84.17
1244.426 72.77 63.53 56.52 51.6 48.78 48.3 50.48 55.82 63.76 71.98
1263.720 77.81 79.39 76.02 68.5 59.24 50.71 43.94 38.86 35.04 32.2
1283.013 30.11 28.51 27.35 26.66 26.38 26.48 26.96 27.81 29.16 31.08
1302.307 33.71 37.26 41.99 48.36 56.69 67.1 79.39 92.64 105.42 116.11
1321.600 123.27 126.39 126.24 124.67 123.13 121.62 119.3 114.83 106.99 95.81
1340.894 82.58 69.06 56.66 46.3 38.09 31.69 26.76 22.94 20.02 17.75
1360.187 16 14.69 13.67 12.89 12.37 12.03 11.83 11.81 11.93 12.14
1379.480 12.42 12.65 12.72 12.6 12.33 11.93 11.52 11.09 10.72 10.54
1398.774 10.5 10.56 10.73 11.05 11.45 11.94 12.44 12.96 13.42 13.66
1418.067 13.81 13.88 13.93 14.16 14.62 15.5 17.05 19.39 22.87 27.93
1437.361 35.34 45.09 56.99 69.16 77.92 80.63 77.05 68.61 57.72 48.76
1456.654 44.3 44.2 48.15 56.12 69 88.14 114.74 150.3 194.94 244.82
1475.948 288.62 315.42 316.47 291.86 247.69 195.76 148.45 112.67 87.82 71.48
1495.241 60.65 53.1 47.81 43.7 40 36.35 32.53 28.78 25.41 22.48
1514.534 20.07 18.11 16.58 15.35 14.3 13.45 12.73 12.06 11.5 11.04
1533.828 10.59 10.23 9.97 9.77 9.6 9.5 9.59 9.76 10.02 10.44
1553.121 10.97 11.64 12.55 13.66 14.97 16.51 18.51 21.14 24.61 29.08
1572.415 34.56 40.98 47.97 54.21 58.23 58.97 56.06 50.08 42.29 34.43
1591.708 27.76 22.6 18.69 15.79 13.72 12.2 11.08 10.24 9.5 8.85
1611.002 8.28 7.8 7.49 7.18 6.89 6.73 6.6 6.5 6.42 6.35
1630.295 6.31 6.26 6.27 6.26 6.21 6.19 6.2 6.18 6.06 5.9394
1649.588 5.8573 5.7957 5.7259 5.6837 5.654 5.6212 5.6056 5.6138 5.6935 5.8162
1668.882 5.9311 6.12 6.35 6.57 6.84 7.11 7.33 7.48 7.6 7.6
1688.175 7.55 7.44 7.34 7.28 7.24 7.27 7.38 7.47 7.57 7.67
1707.469 7.76 7.83 7.88 7.95 7.99 7.98 7.97 7.95 7.9 7.83
1726.762 7.74 7.64 7.53 7.38 7.26 7.12 6.9 6.68 6.46 6.26
1746.056 6.05 5.849 5.6845 5.5395 5.4055 5.297 5.2174 5.1332 5.1024 5.1649
1765.349 5.2238 5.3331 5.5335 5.8104 6.12 6.44 6.88 7.37 7.84 8.33
1784.642 8.66 8.81 8.78 8.5 8.03 7.52 7.02 6.59 6.29 6.06
1803.936 5.9434 5.901 5.8984 5.9176 5.96 6.12 6.32 6.47 6.63 6.76
1823.229 6.78 6.68 6.5 6.26 5.99 5.7535 5.5539 5.3748 5.2105 5.0805
1842.523 4.9955 4.8667 4.773 4.674 4.545 4.53 4.559 4.57 4.568 4.642
1861.816 4.783 4.9234 5.0861 5.3145 5.5315 5.6258 5.7447 5.8897 5.95 5.98
1881.110 5.98 6.04 6.13 6.26 6.51 6.74 7.04 7.44 7.9 8.42
1900.403 8.93 9.47 9.86 10 9.92 9.59 9.08 8.48 7.9 7.31
1919.696 6.87 6.58 6.41 6.32 6.34 6.51 6.77 7.12 7.51 7.86
1938.990 8.16 8.25 8.12 7.77 7.27 6.66 6.08 5.6153 5.2696 5.0699
1958.283 4.96549 4.8888 4.8624 4.9148 4.97034 5.00401 5.0866 5.1922 5.2548 5.3047
1977.577 5.3733 5.3798 5.3506 5.3443 5.3368 5.2862 5.194 5.1411 5.1523 5.1466
1996.870 5.1088 5.1334 5.1444 5.1329 5.1951 5.2734 5.2683 5.2072 5.1387 5.0495
2016.164 4.9287 4.762 4.621 4.524 4.428 4.329 4.253 4.213 4.232 4.292
2035.457 4.287 4.289 4.288 4.262 4.2 4.097 4.009 3.89 3.77 3.68
2054.750 3.58 3.52 3.48 3.39 3.34 3.34 3.32 3.25 3.15 3.13
2074.044 3.11 3.09 3.06 3.04 3.04 3.05 3.04 3.03 3.04 3.04
2093.337 3.03 3 2.94 2.93 2.95 2.94 2.97 2.99 2.96 2.96
2112.631 2.97 2.95 2.91 2.91 2.93 2.95 2.94 2.91 2.92 2.96
2131.924 3.01 3.05 3.04 3.09 3.18 3.24 3.31 3.35 3.42 3.55
2151.218 3.6 3.62 3.63 3.6 3.53 3.46 3.4 3.28 3.2 3.15
2170.511 3.12 3.09 3.08 3.06 3.02 3.03 3.05 3.07 3.07 3.08
2189.804 3.13 3.18 3.21 3.21 3.18 3.17 3.15 3.15 3.15 3.13
2209.098 3.14 3.12 3.12 3.18 3.22 3.23 3.22 3.22 3.22 3.26
2228.391 3.31 3.29 3.26 3.24 3.26 3.32 3.38 3.42 3.47 3.5
2247.685 3.51 3.53 3.59 3.63 3.65 3.68 3.68 3.66 3.66 3.62
2266.978 3.57 3.58 3.58 3.52 3.5 3.52 3.52 3.54 3.55 3.57
2286.272 3.59 3.63 3.65 3.65 3.61 3.56 3.58 3.54 3.45 3.38
2305.565 3.34 3.33 3.33 3.38 3.48 3.6 3.71 3.76 3.78 3.74
2324.858 3.67 3.58 3.47 3.35 3.27 3.24 3.21 3.15 3.05 3
2344.152 2.98 2.97 3 3 2.99 2.99 2.98 2.97 2.98 2.99
2363.445 2.95 2.93 2.91 2.91 2.9 2.9 2.92 2.91 2.91 2.9
2382.739 2.91 2.92 2.94 3.01 3.02 2.99 3 3.04 3.06 3.04
2402.032 3.08 3.08 3.08 3.15 3.2 3.26 3.35 3.4 3.44 3.48
2421.326 3.55 3.62 3.68 3.74 3.83 3.976 4.07 4.104 4.162 4.215
2440.619 4.172 4.131 4.059 3.95 3.88 3.8 3.7 3.61 3.54 3.48
2459.912 3.41 3.33 3.29 3.26 3.22 3.18 3.19 3.26 3.24 3.24
2479.206 3.23 3.18 3.19 3.15 3.11 3.1 3.09 3.09 3.03 3
2498.499 3.03 3.02 2.98 3.01 3.06 3.03 3.02 3.04 3.03 3.05
2517.793 3.08 3.14 3.17 3.16 3.19 3.25 3.31 3.36 3.43 3.52
2537.086 3.62 3.7 3.72 3.77 3.86 3.93 3.95 3.93 3.91 3.82
2556.380 3.73 3.62 3.51 3.32 3.13 3.03 2.88 2.74 2.7 2.64
2575.673 2.56 2.52 2.44 2.38 2.36 2.31 2.28 2.26 2.27 2.27
2594.966 2.23 2.2 2.24 2.26 2.22 2.23 2.24 2.26 2.25 2.23
2614.260 2.22 2.29 2.32 2.28 2.3 2.26 2.26 2.25 2.2 2.17
2633.553 2.18 2.21 2.2 2.24 2.3 2.28 2.25 2.25 2.21 2.22
2652.847 2.25 2.23 2.2 2.24 2.22 2.17 2.17 2.08 2 1.96
2672.140 1.89 1.92 2.05 2.11 2.02 1.96 1.95 1.94 1.94 1.95
2691.434 1.97 1.95 1.9 1.88 1.89 1.85 1.82 1.84 1.87 1.84
2710.727 1.82 1.81 1.79 1.82 1.91 1.93 1.84 1.86 1.9 1.87
2730.020 1.84 1.92 1.98 1.98 1.97 1.97 2.01 2.04 1.95 1.88
2749.314 1.88 1.85 1.73 1.6 1.62 1.68 1.65 1.55 1.51 1.56
2768.607 1.54 1.51 1.49 1.54 1.57 1.43 1.39 1.39 1.37 1.33
2787.901 1.34 1.41 1.41 1.38 1.45 1.52 1.41 1.31 1.32 1.25
2807.194 1.29 1.36 1.31 1.25 1.17 1.15 1.22 1.25 1.17 1.21
2826.488 1.26 1.15 1.12 1.13 1.13 1.22 1.26 1.27 1.27 1.24
2845.781 1.16 1.13 1.14 1.1 1.13 1.13 1.1 1.09 1.09 1.14
2865.074 1.07 0.96 0.94 0.96 0.82 0.77 0.79 0.79 0.8 0.8
2884.368 0.79 0.75 0.8 0.84 0.81 0.81 0.76 0.65 0.71 0.74
2903.661 0.72 0.67 0.58 0.6 0.64 0.62 0.59 0.63 0.65 0.61
2922.955 0.65 0.65 0.59 0.57 0.46 0.43 0.5 0.53 0.5 0.46
2942.248 0.45 0.54 0.59 0.46 0.48 0.49 0.37 0.35 0.33 0.45
2961.542 0.45 0.42 0.37 0.4 0.55 0.48 0.49 0.56 0.65 0.7
2980.835 0.75 0.86 0.78 0.65 0.76 0.99 1.1 1.17 1.33 1.32
3000.128 1.39 1.53 1.71 1.98 2.03 2.14 2.46 2.6 2.61 2.69
3019.422 2.77 2.73 2.74 2.78 2.64 2.64 2.7 2.51 2.42 2.56
3038.715 2.69 2.86 3.03 3.29 3.71 3.998 4.368 4.95554 5.6872 6.3
3058.009 6.83 7.61 8.69 9.83 11.08 12.83 15.23 18.2 21.73 25.72
3077.302 29.45 32.42 34.1 33.62 30.93 26.51 21.14 15.86 11.42 8.23
3096.596 6.14 4.776 3.9 3.11 2.55 2.29 1.93 1.59 1.43 1.36
3115.889 1.25 1.14 1.1 1.03 0.9 0.82 0.81 0.79 0.81 0.84
3135.182 0.77 0.63 0.7 0.78 0.75 0.79 0.89 0.9 0.81 0.76
3154.476 0.75 0.82 0.87 0.86 1.02 1.14 1.06 0.95 0.88 0.8
3173.769 0.67 0.66 0.67 0.57 0.47 0.42 0.44 0.28 0.17 0.15
3193.063 0.07 0.18 0.26 0.25 0.19 0.14 0.15 0.18 0.18 0.06
3212.356 0 0.05 0.07 0.21 0.32 0.23 0.19 0.3 0.28 0.26
3231.650 0.33 0.35 0.26 0.18 0.18 0.22 0.16 0.16 0.38 0.31
3250.943 0.24 0.3 0.15 0.15 0.3 0.32 0.28 0.26 0.17 0.19
3270.236 0.35 0.27 0.14 0.14 0.26 0.32 0.27 0.31 0.26 0.32
3289.530 0.41 0.35 0.31 0.26 0.35 0.4 0.28 0.36 0.47 0.36
3308.823 0.27 0.39 0.45 0.27 0.28 0.4 0.43 0.5 0.61 0.62
3328.117 0.58 0.47 0.46 0.54 0.56 0.51 0.52 0.63 0.63 0.54
3347.410 0.53 0.55 0.56 0.56 0.57 0.51 0.38 0.5 0.59 0.56
3366.704 0.59 0.62 0.71 0.69 0.61 0.68 0.87 0.88 0.65 0.74
3385.997 0.76 0.59 0.63 0.65 0.52 0.57 0.78 0.77 0.64 0.64
3405.290 0.68 0.72 0.64 0.7 0.79 0.82 0.96 0.95 0.86 0.85
3424.584 0.86 0.81 0.86 0.81 0.65 0.69 0.78 0.84 0.94 0.96
3443.877 0.99 1.08 1.02 1.02 1.13 1.16 1.14 1.18 1.22 1.24
3463.171 1.26 1.14 1.02 1.07 1.27 1.38 1.36 1.3 1.28 1.25
3482.464 1.2 1.22 1.22 1.2 1.23 1.26 1.28 1.35 1.42 1.39
3501.758 1.3 1.28 1.34 1.35 1.4 1.61 1.63 1.49 1.56 1.54
3521.051 1.46 1.48 1.47 1.36 1.33 1.45 1.59 1.6 1.51 1.51
3540.344 1.57 1.56 1.46 1.4 1.49 1.67 1.72 1.63 1.62 1.76
3559.638 1.8 1.69 1.62 1.64 1.72 1.71 1.75 1.75 1.7 1.73
3578.931 1.73 1.78 1.71 1.68 1.79 1.72 1.76 1.95 2.01 1.88
3598.225 1.77 1.8 1.75 1.79 1.94 2.01 1.99 1.93 1.97 1.92
3617.518 1.87 1.93 1.87 1.99 2.14 2.11 1.96 1.89 2.08 2.1
3636.812 2.02 2.01 2.04 2.14 2.15 2.1 2.12 2.23 2.32 2.27
3656.105 2.18 2.26 2.29 2.22 2.18 2.14 2.32 2.35 2.19 2.22
3675.398 2.23 2.17 2.14 2.14 2.14 2.13 2.11 2.11 2.09 2.12
3694.692 2.23 2.24 2.36 2.4 2.32 2.36 2.3 2.3 2.38 2.26
3713.985 2.2 2.28 2.33 2.36 2.31 2.28 2.34 2.34 2.44 2.43
3733.279 2.21 2.2 2.24 2.22 2.3 2.42 2.5 2.44 2.47 2.5
3752.572 2.48 2.51 2.58 2.7 2.61 2.48 2.52 2.61 2.71 2.7
3771.866 2.64 2.59 2.56 2.57 2.56 2.6 2.59 2.51 2.48 2.41
3791.159 2.45 2.47 2.41 2.41 2.34 2.3 2.39 2.42 2.36 2.47
3810.452 2.51 2.48 2.54 2.51 2.55 2.64 2.64 2.65 2.59 2.54
3829.746 2.67 2.73 2.6 2.55 2.64 2.71 2.69 2.7 2.72 2.7
3849.039 2.65 2.67 2.69 2.68 2.78 2.74 2.66 2.58 2.54 2.51
3868.333 2.52 2.48 2.35 2.4 2.39 2.27 2.29 2.3 2.34 2.41
3887.626 2.44 2.46 2.42 2.38 2.42 2.44 2.34 2.25 2.28 2.45
3906.920 2.39 2.27 2.32 2.37 2.38 2.31 2.32 2.32 2.31 2.42
3926.213 2.45 2.44 2.42 2.4 2.36 2.3 2.25 2.26 2.38 2.38
3945.506 2.4 2.39 2.32 2.38 2.4 2.31 2.27 2.34 2.31 2.23
3964.800 2.32 2.38 2.34 2.31 2.28 2.39 2.55 2.47 2.34 2.37
3984.093 2.4 2.41 2.4 2.42 2.42 2.37 2.39 2.48 2.56
##END=
