##TITLE=1,3,6-Trioxacyclooctane
##JCAMP-DX=4.24
##DATA TYPE=INFRARED SPECTRUM
##ORIGIN=NIST Mass Spectrometry Data Center
##OWNER=NIST Standard Reference Data Program
Collection (C) 2018 copyright by the U.S. Secretary of Commerce
on behalf of the United States of America. All rights reserved.
##CAS REGISTRY NO=1779-19-7
##MOLFORM=C 5 H 10 O 3
##$NIST SOURCE=MSDC-IR
##SPECTROMETER/DATA SYSTEM=HP-GC/MS/IRD
##STATE=gas
##XUNITS=1/CM
##YUNITS=ABSORBANCE
##XFACTOR=1.0
##YFACTOR=0.000004800
##DELTAX=4.0
##FIRSTX=550.0
##LASTX=3846.0
##FIRSTY=0.001613
##MAXX=3846
##MINX=550
##MAXY=0.048
##MINY=0
##NPOINTS=825
##XYDATA=(X++(Y..Y))
550.0 336 500 374 342 286 260 227 191 175 137
590.0 102 90 83 84 75 65 67 66 66 81
630.0 111 132 162 192 206 212 202 183 158 123
670.0 90 59 43 41 39 38 30 29 21 12
710.0 3 2 16 20 21 24 31 29 24 32
750.0 41 46 49 52 57 61 66 77 93 113
790.0 125 132 164 197 219 252 290 342 430 470
830.0 480 549 633 735 884 1068 1211 1329 1510 1589
870.0 1403 1195 1058 880 683 535 459 438 439 440
910.0 431 411 393 379 357 339 324 326 356 418
950.0 516 675 918 1271 1759 2377 3049 3646 4077 4302
990.0 4261 3885 3233 2487 1844 1448 1209 995 847 779
1030.0 789 880 1054 1340 1697 2077 2460 2810 3082 3243
1070.0 3275 3204 3120 3038 2899 2743 2624 2489 2362 2374
1110.0 2492 2762 3302 4143 5262 6634 8026 9082 9743 10000
1150.0 9747 9038 7996 6721 5412 4337 3666 3387 3320 3222
1190.0 2997 2710 2376 1979 1524 1082 762 576 482 441
1230.0 451 508 591 692 787 876 954 1014 1107 1240
1270.0 1387 1572 1822 2154 2467 2605 2638 2589 2395 2104
1310.0 1769 1415 1087 819 619 486 405 364 368 400
1350.0 448 513 601 704 791 827 833 808 747 666
1390.0 571 457 352 285 248 221 203 200 214 247
1430.0 307 389 494 601 666 704 739 703 652 603
1470.0 507 389 309 251 191 144 108 83 68 55
1510.0 46 44 43 41 38 35 31 29 28 24
1550.0 21 22 23 24 25 25 22 23 24 23
1590.0 23 24 23 22 24 29 33 36 39 40
1630.0 40 43 47 52 51 47 45 40 37 39
1670.0 39 35 29 28 27 29 32 29 28 30
1710.0 28 30 28 25 25 25 26 25 23 23
1750.0 22 23 22 22 23 24 29 28 24 27
1790.0 29 32 29 25 21 18 21 22 20 21
1830.0 22 25 32 34 31 36 42 43 47 51
1870.0 54 59 62 73 81 88 98 109 117 123
1910.0 126 129 133 132 132 131 134 138 136 138
1950.0 144 147 148 147 144 139 126 113 105 101
1990.0 98 95 91 92 92 90 87 80 73 65
2030.0 59 57 60 61 60 56 55 55 53 49
2070.0 42 39 41 42 42 41 41 43 47 49
2110.0 50 49 47 50 53 50 51 52 50 46
2150.0 42 42 42 37 36 37 36 34 31 24
2190.0 22 21 18 19 20 19 20 21 24 27
2230.0 30 33 32 32 30 28 29 28 24 23
2270.0 24 25 25 26 27 26 25 27 24 23
2310.0 21 21 20 20 21 20 18 21 25 24
2350.0 25 24 25 27 25 26 31 33 33 34
2390.0 32 28 23 19 15 17 19 16 15 13
2430.0 11 7 3 8 10 11 11 6 6 7
2470.0 5 2 5 7 4 4 5 2 3 7
2510.0 9 9 8 10 11 13 10 10 10 5
2550.0 13 16 8 12 10 13 14 10 10 16
2590.0 17 17 21 23 23 22 24 26 28 35
2630.0 39 40 43 48 52 56 57 55 54 55
2670.0 62 69 75 80 94 108 125 160 196 232
2710.0 272 314 345 366 385 383 368 347 330 319
2750.0 316 320 328 346 367 391 416 455 495 534
2790.0 567 592 608 605 587 571 574 588 621 694
2830.0 817 1003 1260 1574 1924 2301 2639 2909 3139 3271
2870.0 3306 3353 3421 3501 3550 3529 3462 3410 3410 3473
2910.0 3588 3797 4128 4549 5015 5529 5986 6230 6124 5845
2950.0 5521 5091 4637 3996 3327 2881 2593 2276 1876 1569
2990.0 1280 936 627 415 289 216 175 151 137 123
3030.0 105 97 92 77 66 63 57 56 52 47
3070.0 42 34 32 27 25 21 18 16 20 23
3110.0 19 12 17 19 7 1 8 18 15 13
3150.0 18 14 21 30 21 13 11 15 16 16
3190.0 17 17 19 15 16 27 30 23 22 23
3230.0 23 18 19 24 18 15 18 13 16 22
3270.0 19 15 17 19 20 18 19 25 19 19
3310.0 26 26 23 22 15 18 12 7 12 16
3350.0 16 13 8 10 13 13 11 7 7 8
3390.0 12 14 8 4 3 8 17 16 17 23
3430.0 18 17 18 19 23 27 19 15 19 19
3470.0 16 15 13 13 11 11 16 16 12 9
3510.0 10 12 13 14 9 5 3 1 0 1
3550.0 4 9 22 17 7 9 14 14 15 12
3590.0 7 16 17 10 7 7 6 3 6 11
3630.0 12 11 17 14 5 5 6 5 5 1
3670.0 10 18 13 14 21 22 17 10 4 4
3710.0 10 13 12 12 10 6 9 19 20 23
3750.0 21 20 28 30 27 19 22 31 22 18
3790.0 28 32 23 24 30 26 27 34 35 28
3830.0 20 23 26 26 22
##END=
