##TITLE=N,N-Dimethyl-N'-phenylformamidine
##JCAMP-DX=4.24
##DATA TYPE=INFRARED SPECTRUM
##ORIGIN=EPA-IR VAPOR PHASE LIBRARY
##OWNER=SRD/NIST
Collection (C) 2018 copyright by the U.S. Secretary of Commerce
on behalf of the United States of America. All rights reserved.
##CAS REGISTRY NO=1783-25-1
##MOLFORM=C 9 H 12 N 2
##$NIST SOURCE=MSDC-IR
##STATE=gas
##XUNITS=1/CM
##YUNITS=ABSORBANCE
##XFACTOR=1.
##YFACTOR=0.001
##DELTAX=1.92898
##FIRSTX=549.8
##LASTX=4000.7
##FIRSTY=2.356
##MAXX=4000.7
##MINX=549.759
##MAXY=0.309036
##MINY=0
##NPOINTS=1790
##XYDATA=(X++(Y..Y))
549.759 2.356 2.216 1.926 1.816 1.686 1.816 1.756 1.356 1.2355 0.9509
569.049 0.9694 1.05 0.8219 0.7045 0.7246 0.9455 1.0457 0.8222 0.5971 0.5641
588.339 0.5861 0.5451 0.542 0.5961 0.6043 0.6155 0.5684 0.5785 0.7013 0.7746
607.628 0.8469 0.9129 0.7654 0.558 0.4131 0.4365 0.738 0.9998 1.0699 1.2186
626.918 1.526 1.736 2.166 2.686 2.846 2.806 2.876 3.036 3.096 2.656
646.208 2.006 1.536 1.506 1.706 1.636 1.566 1.676 2.126 2.606 2.786
665.498 2.956 3.186 3.616 4.256 4.996 5.876 6.736 7.806 8.966 10.086
684.787 11.456 12.656 13.646 14.696 15.606 15.976 15.196 13.946 12.986 11.946
704.077 10.656 9.216 7.976 6.876 5.776 4.946 4.286 3.766 3.426 3.176
723.367 2.986 2.936 3.056 3.246 3.596 4.156 4.656 5.366 6.586 7.856
742.657 9.166 10.726 12.306 14.106 16.106 18.106 19.686 20.866 21.606 21.246
761.947 19.816 18.046 16.186 14.256 12.266 10.406 8.916 7.336 5.906 4.836
781.236 3.896 3.336 2.746 2.116 1.856 1.486 1.2511 1.346 1.376 1.306
800.526 1.316 1.336 1.2181 1.1241 1.1428 1.1979 1.396 1.636 1.936 2.286
819.816 2.626 2.896 3.296 3.936 4.526 4.946 5.216 5.306 5.386 5.086
839.106 4.526 4.116 3.546 3.116 2.956 2.826 2.636 2.426 2.426 2.376
858.395 2.286 2.356 2.206 2.196 2.466 2.366 2.286 2.546 2.756 2.976
877.685 3.146 3.246 3.326 3.506 3.476 3.206 3.046 2.956 2.906 2.866
896.975 2.816 2.816 2.896 2.746 2.696 2.706 2.606 2.546 2.616 2.576
916.265 2.196 2.026 1.996 1.916 1.866 1.816 1.746 1.646 1.636 1.716
935.555 1.846 1.836 1.886 1.876 1.966 2.366 2.616 2.786 2.976 3.286
954.844 3.636 4.196 4.556 4.686 4.986 5.176 5.316 5.186 4.816 4.746
974.134 4.476 4.026 3.716 3.576 3.536 3.246 3.056 3.196 3.316 3.576
993.424 3.816 3.786 3.986 4.096 3.916 3.916 3.966 3.966 4.206 4.556
1012.714 5.016 5.626 6.476 7.506 8.146 8.586 8.876 8.786 8.676 8.396
1032.003 7.766 7.546 7.316 7.186 7.876 8.536 9.106 9.786 10.176 10.816
1051.293 11.746 12.496 13.356 14.246 15.306 16.666 17.986 19.366 20.686 22.276
1070.583 24.196 26.116 28.436 31.036 34.366 38.196 42.796 48.296 53.256 58.446
1089.873 63.526 67.366 69.776 69.536 67.596 64.586 59.506 52.916 45.726 38.496
1109.163 32.186 27.386 24.026 21.136 18.776 16.976 15.426 14.056 12.626 11.666
1128.452 10.896 10.136 9.736 9.336 8.896 8.936 8.876 8.416 8.166 8.006
1147.742 7.776 7.796 7.816 7.696 7.946 8.256 8.786 9.406 9.806 10.006
1167.032 9.896 9.806 9.576 9.186 8.816 8.356 7.826 7.466 7.396 7.496
1186.322 7.656 7.626 7.986 8.466 8.976 9.956 10.956 12.186 13.626 14.856
1205.611 16.106 17.136 17.416 17.606 17.646 17.056 16.076 14.776 13.586 12.486
1224.901 11.806 11.536 11.066 10.906 11.106 11.216 11.376 11.636 12.016 12.346
1244.191 12.946 13.836 14.346 14.996 15.826 16.356 16.676 16.786 16.626 16.346
1263.481 15.736 15.106 14.606 13.756 12.876 12.226 11.536 10.826 10.296 9.806
1282.771 9.386 8.896 8.386 7.996 7.636 7.306 7.096 6.976 6.736 6.536
1302.060 6.516 6.456 6.436 6.426 6.406 6.526 6.636 6.776 7.016 7.246
1321.350 7.556 8.056 8.616 9.126 9.806 10.676 11.626 12.726 14.036 15.596
1340.640 17.356 19.336 21.696 24.426 27.586 31.256 35.406 40.126 45.226 50.476
1359.930 55.296 58.976 61.066 61.386 60.026 57.046 52.666 47.236 41.326 35.886
1379.219 31.506 28.556 27.016 26.746 27.536 29.096 30.996 32.926 34.676 35.946
1398.509 36.556 36.406 35.516 34.056 32.166 30.126 28.046 25.896 23.966 22.426
1417.799 21.176 20.156 19.326 18.676 18.266 18.016 17.806 17.596 17.316 16.846
1437.089 16.156 15.456 14.726 13.936 13.196 12.456 11.866 11.476 11.226 11.066
1456.378 11.076 11.156 11.206 11.376 11.606 11.936 12.496 13.306 14.366 15.646
1475.668 17.176 19.076 21.166 23.266 25.156 26.546 27.316 27.466 26.876 25.476
1494.958 23.396 21.006 18.586 16.116 13.856 12.056 10.576 9.426 8.596 8.006
1514.248 7.616 7.306 7.006 6.796 6.626 6.396 6.156 5.986 5.906 5.816
1533.538 5.796 5.886 6.016 6.116 6.136 6.206 6.386 6.636 6.816 7.016
1552.827 7.386 7.786 8.256 8.906 9.616 10.456 11.526 12.926 14.686 16.726
1572.117 19.256 22.396 26.376 31.426 37.776 45.886 55.496 66.106 76.626 85.566
1591.407 91.286 92.866 90.636 85.376 77.576 67.496 56.346 45.966 37.996 32.946
1610.697 30.456 29.836 30.366 31.876 34.266 37.656 42.306 48.466 56.516 66.986
1629.986 80.336 96.996 117.126 141.556 169.716 200.496 232.496 262.136 286.496 302.796
1649.276 309.036 304.226 288.156 263.636 231.756 194.266 157.596 125.296 99.666 80.336
1668.566 65.536 53.906 44.826 37.466 31.386 26.696 23.046 20.326 18.206 16.276
1687.856 14.786 13.596 12.566 11.736 11.016 10.356 9.896 9.456 9.016 8.686
1707.146 8.456 8.246 8.046 7.806 7.656 7.516 7.326 7.196 7.076 6.916
1726.435 6.786 6.726 6.656 6.506 6.316 6.056 5.786 5.506 5.166 4.906
1745.725 4.626 4.336 4.146 3.936 3.706 3.656 3.656 3.556 3.576 3.666
1765.015 3.736 3.736 3.766 3.786 3.726 3.626 3.436 3.236 3.096 2.886
1784.305 2.606 2.426 2.276 2.126 2.096 2.086 2.016 1.956 1.956 1.946
1803.594 1.896 1.876 1.906 1.916 1.846 1.726 1.666 1.696 1.706 1.696
1822.884 1.696 1.746 1.776 1.736 1.796 1.836 1.786 1.756 1.766 1.826
1842.174 1.846 1.896 2.006 2.046 2.006 1.966 1.936 1.896 1.886 1.836
1861.464 1.736 1.646 1.586 1.546 1.436 1.356 1.326 1.2941 1.2273 1.1566
1880.754 1.174 1.138 1.0608 1.0338 1.0122 1.0667 1.0752 1.0728 1.1104 1.1655
1900.043 1.306 1.476 1.596 1.696 1.836 1.956 2.066 2.166 2.266 2.346
1919.333 2.456 2.586 2.666 2.666 2.656 2.676 2.636 2.566 2.586 2.516
1938.623 2.376 2.256 2.136 1.966 1.726 1.556 1.426 1.296 1.2421 1.189
1957.913 1.1864 1.2517 1.2435 1.2066 1.2032 1.2251 1.2783 1.296 1.306 1.356
1977.202 1.376 1.366 1.386 1.466 1.506 1.546 1.546 1.566 1.646 1.686
1996.492 1.766 1.806 1.786 1.766 1.686 1.626 1.616 1.596 1.536 1.466
2015.782 1.436 1.386 1.366 1.366 1.396 1.476 1.466 1.406 1.426 1.436
2035.072 1.386 1.396 1.396 1.366 1.336 1.316 1.356 1.306 1.2334 1.205
2054.362 1.168 1.1028 1.0816 1.0736 1.0176 0.9818 1.0009 1.0179 0.9824 0.9698
2073.651 1.0065 1.0445 1.0206 1.0179 1.0161 1.0194 1.0504 1.0253 1.0243 1.0437
2092.941 1.0236 1.0126 1.0527 1.0929 1.0882 1.0402 1.0191 1.0385 1.0244 1.0258
2112.231 1.0449 1.0611 1.0595 1.0183 1.0363 1.0773 1.0284 1.0352 1.0252 0.974
2131.521 1.0336 1.0355 1.0254 1.0409 1.0662 1.0511 1.0198 0.9896 0.9539 0.9992
2150.810 1.0045 0.9636 0.9149 0.887 0.9026 0.9194 0.8899 0.9138 0.9448 0.9056
2170.100 0.8972 0.8754 0.8716 0.8689 0.9074 0.9076 0.8861 0.9488 0.9747 1.0038
2189.390 0.9867 0.9503 0.9201 0.8634 0.8848 0.9201 0.872 0.8725 0.8317 0.7858
2208.680 0.8027 0.8117 0.8267 0.8779 0.9226 0.9399 0.9356 0.8962 0.9641 1.015
2227.970 1.0017 1.049 1.0606 0.9855 0.8764 0.7894 0.8379 0.8951 0.8541 0.788
2247.259 0.7525 0.7751 0.7675 0.7461 0.7505 0.7708 0.7949 0.8181 0.8701 0.9021
2266.549 0.9348 1.0381 1.0796 1.0431 1.0638 1.1349 1.1843 1.214 1.1949 1.1206
2285.839 1.0715 1.0833 1.1024 1.077 1.019 0.983 0.9803 0.9583 0.9326 0.9534
2305.129 0.9703 0.9744 0.9834 0.9904 0.9785 0.9309 0.9311 0.9889 1.0303 1.0194
2324.418 0.9926 0.9984 1.0129 0.9512 0.8886 0.9161 0.9122 0.8657 0.7943 0.8019
2343.708 0.8314 0.7797 0.7015 0.6791 0.7034 0.7049 0.699 0.6404 0.6703 0.7264
2362.998 0.6911 0.6581 0.6443 0.6704 0.7092 0.7019 0.7164 0.7197 0.7065 0.7069
2382.288 0.693 0.6925 0.6877 0.6776 0.6825 0.672 0.6488 0.6715 0.709 0.7358
2401.578 0.8253 0.8949 0.9182 0.9162 0.9023 0.9303 0.9998 1.0755 1.0675 1.0582
2420.867 1.0755 1.1291 1.1863 1.1572 1.1929 1.2428 1.1679 1.1196 1.0984 1.0744
2440.157 1.0093 0.9172 0.9161 0.9437 0.9448 1.0294 1.0534 1.0454 1.0694 1.0168
2459.447 1.0494 1.0828 1.0546 1.0283 1.0241 1.0096 0.9475 0.9611 1.0032 0.9999
2478.737 0.9755 0.9959 1.0509 1.0422 1.0468 1.0029 0.9447 0.9253 0.873 0.8847
2498.026 0.8903 0.9213 0.9436 0.8781 0.9077 0.9357 0.9011 0.9063 0.8812 0.8307
2517.316 0.8312 0.8575 0.8721 0.8985 0.9351 0.9801 0.9916 0.9605 1.0383 1.085
2536.606 1.0703 1.124 1.1459 1.1398 1.1426 1.1422 1.2006 1.177 1.0854 1.0442
2555.896 1.0367 1.0541 1.0294 0.9951 1.0391 1.0205 0.9738 0.9434 0.925 0.9247
2575.186 0.854 0.8923 0.9735 0.9607 0.8933 0.8658 0.9751 0.9783 0.8921 0.9023
2594.475 0.879 0.8583 0.878 0.8975 0.8574 0.8577 0.8571 0.8175 0.8222 0.8355
2613.765 0.8486 0.7926 0.809 0.8453 0.7624 0.6523 0.6298 0.682 0.7075 0.7073
2633.055 0.6595 0.6599 0.7634 0.7683 0.7389 0.7206 0.6632 0.7192 0.8076 0.8357
2652.345 0.8215 0.8162 0.8401 0.8317 0.7841 0.8037 0.9061 0.959 0.9159 0.8659
2671.634 0.8742 0.824 0.8299 0.8963 0.901 0.951 1.0414 1.0683 1.064 1.0831
2690.924 1.0682 1.0685 1.1063 1.1281 1.1265 1.2272 1.336 1.366 1.386 1.436
2710.214 1.526 1.586 1.586 1.596 1.686 1.796 1.816 1.846 1.966 2.076
2729.504 2.146 2.306 2.436 2.366 2.396 2.506 2.476 2.526 2.596 2.686
2748.794 2.816 2.816 2.746 2.676 2.796 2.876 2.796 2.816 2.916 3.026
2768.083 3.116 3.236 3.316 3.446 3.676 3.966 4.226 4.436 4.716 5.136
2787.373 5.516 5.886 6.396 6.906 7.486 8.126 8.806 9.506 10.136 10.676
2806.663 11.086 11.426 11.686 11.636 11.336 10.986 10.576 10.116 9.716 9.316
2825.953 9.086 9.056 8.936 8.966 9.186 9.446 9.736 10.026 10.426 11.086
2845.242 11.686 12.326 13.106 13.786 14.386 14.986 15.626 16.186 16.496 16.816
2864.532 17.266 17.666 18.096 18.556 18.906 19.436 20.126 20.746 21.296 21.776
2883.822 22.316 22.916 23.536 24.006 24.356 24.776 25.346 26.016 26.706 27.476
2903.112 28.336 29.276 30.296 31.276 32.306 33.306 34.136 34.736 35.176 35.366
2922.401 35.276 34.956 34.416 33.716 32.716 31.696 30.576 29.286 27.956 26.696
2941.691 25.316 23.886 22.496 21.056 19.726 18.506 17.356 16.296 15.306 14.356
2960.981 13.496 12.786 12.186 11.706 11.396 10.936 10.616 10.556 10.476 10.416
2980.271 10.386 10.426 10.456 10.496 10.536 10.526 10.456 10.346 10.346 10.256
2999.561 10.066 9.906 9.836 9.946 10.096 10.326 10.566 10.716 11.036 11.496
3018.850 11.936 12.476 13.156 13.796 14.266 14.656 15.006 15.066 14.946 14.826
3038.140 14.456 13.876 13.316 12.746 12.326 12.196 12.276 12.606 13.056 13.796
3057.430 14.856 16.226 17.836 19.336 20.406 20.996 21.076 20.876 20.386 19.266
3076.720 17.726 16.056 14.506 13.326 12.416 11.606 10.846 10.206 9.476 8.626
3096.009 7.926 7.256 6.516 5.716 5.046 4.406 3.676 3.206 2.996 2.686
3115.299 2.346 2.256 2.106 1.866 1.766 1.666 1.566 1.506 1.396 1.316
3134.589 1.346 1.416 1.326 1.2752 1.326 1.2566 1.1136 0.9932 0.9889 1.038
3153.879 0.9897 0.9493 1.001 1.0329 1.0239 0.8706 0.7141 0.6905 0.7096 0.7084
3173.169 0.728 0.7034 0.7091 0.7308 0.7518 0.7752 0.7165 0.7153 0.6655 0.6568
3192.458 0.7496 0.7508 0.6857 0.6658 0.6309 0.572 0.5409 0.4551 0.4128 0.5145
3211.748 0.4878 0.4688 0.5565 0.4828 0.5153 0.4656 0.4797 0.6 0.589 0.5697
3231.038 0.5235 0.5323 0.5539 0.5163 0.4696 0.4742 0.5381 0.4896 0.4782 0.5429
3250.328 0.4982 0.54 0.6236 0.5422 0.6079 0.74 0.7205 0.7836 0.7924 0.8133
3269.617 0.8706 0.8439 0.8028 0.8022 0.8325 0.9601 1.0367 1.048 1.0866 1.0826
3288.907 1.0465 0.9532 0.8888 0.9446 0.8611 0.824 0.9404 0.8158 0.5812 0.5651
3308.197 0.6164 0.6032 0.6871 0.5211 0.304983 0.2658 0.2465 0.2665 0.35441 0.4804
3327.487 0.5394 0.4803 0.38552 0.39348 0.33215 0.2085 0.28823 0.37733 0.33856 0.353
3346.777 0.32431 0.2685 0.2589 0.300497 0.2832 0.2569 0.2629 0.2291 0.2126 0.31816
3366.066 0.3193 0.2506 0.28903 0.297277 0.264 0.2571 0.194 0.176 0.2718 0.2205
3385.356 0.2292 0.2668 0.1986 0.32807 0.37318 0.29152 0.34719 0.2755 0.2327 0.33023
3404.646 0.2798 0.114 0.124 0.2348 0.192 0.187 0.2264 0.162 0.124 0.2882
3423.936 0.36947 0.2585 0.2401 0.29276 0.33589 0.32367 0.3081 0.191 0.2328 0.258
3443.225 0.161 0.2619 0.192 0.184 0.31807 0.32085 0.185 0.154 0.2401 0.17
3462.515 0.137 0.153 0.2674 0.33123 0.36507 0.2673 0.2238 0.33744 0.31925 0.2569
3481.805 0.12 0.174 0.30645 0.33429 0.2742 0.2344 0.134 0.113 0.31028 0.33716
3501.095 0.31615 0.31921 0.181 0.08 0.2001 0.176 0.033 0.158 0.33041 0.2195
3520.385 0.158 0.2444 0.159 0.147 0.2064 0.31211 0.32551 0.2542 0.29462 0.2365
3539.674 0.2642 0.36369 0.3146 0.302677 0.3974 0.38978 0.2412 0.195 0.243 0.36226
3558.964 0.3991 0.37198 0.1967 0 0.125 0.35656 0.2777 0.174 0.2802 0.31621
3578.254 0.3286 0.31752 0.2649 0.169 0.123 0.179 0.2024 0.2157 0.121 0.204
3597.544 0.249 0.194 0.35609 0.36536 0.2205 0.14 0.2428 0.3702 0.33519 0.2396
3616.833 0.2454 0.2688 0.2011 0.149 0.215 0.34557 0.4095 0.3945 0.36366 0.34898
3636.123 0.4291 0.37905 0.305799 0.2818 0.34705 0.4756 0.31314 0.174 0.2157 0.31114
3655.413 0.38259 0.2467 0.2263 0.30881 0.216 0.225 0.2202 0.296575 0.4245 0.3964
3674.703 0.326 0.2554 0.2322 0.2022 0.2656 0.31415 0.2406 0.182 0.2295 0.33554
3693.993 0.38647 0.4211 0.4258 0.4019 0.4122 0.4392 0.4437 0.4056 0.31958 0.30908
3713.282 0.4497 0.454 0.4949 0.4733 0.2103 0.178 0.29425 0.31239 0.38114 0.2561
3732.572 0.109 0.148 0.14 0.2109 0.2462 0.2349 0.183 0.111 0.2099 0.2628
3751.862 0.4165 0.4513 0.32431 0.37273 0.4107 0.33812 0.37103 0.37576 0.2247 0.29367
3771.152 0.3435 0.295361 0.4063 0.4696 0.4077 0.34173 0.2078 0.148 0.2228 0.28725
3790.441 0.31313 0.3616 0.31011 0.2819 0.36565 0.32778 0.34552 0.37717 0.30803 0.2035
3809.731 0.2006 0.2752 0.211 0.36127 0.5033 0.4454 0.423 0.36571 0.36804 0.35974
3829.021 0.2789 0.2465 0.35131 0.462 0.4528 0.5132 0.5031 0.36656 0.33832 0.34833
3848.311 0.416 0.4508 0.30628 0.29231 0.4463 0.4705 0.5424 0.4382 0.179 0.184
3867.601 0.297457 0.4043 0.35116 0.2529 0.33491 0.457 0.4678 0.4247 0.424 0.35711
3886.890 0.32057 0.4393 0.5285 0.4898 0.35238 0.2753 0.2531 0.29236 0.39458 0.38043
3906.180 0.35354 0.4362 0.5106 0.452 0.31211 0.253 0.2524 0.2876 0.36045 0.4517
3925.470 0.5849 0.5596 0.4401 0.36652 0.31153 0.2489 0.2698 0.3628 0.35222 0.4341
3944.760 0.38561 0.33529 0.34333 0.4165 0.6043 0.6124 0.5687 0.4539 0.4323 0.4115
3964.049 0.4123 0.5354 0.6009 0.5963 0.4816 0.4262 0.544 0.48 0.36656 0.32694
3983.339 0.284 0.34127 0.35023 0.38747 0.4551 0.4923 0.4235 0.4331 0.5823 0.5157
##END=
