##TITLE=6-t-Butyl-4-methylcoumarin
##JCAMP-DX=4.24
##DATA TYPE=INFRARED SPECTRUM
##ORIGIN=EPA-IR VAPOR PHASE LIBRARY
##OWNER=SRD/NIST
Collection (C) 2018 copyright by the U.S. Secretary of Commerce
on behalf of the United States of America. All rights reserved.
##CAS REGISTRY NO=17874-32-7
##MOLFORM=C 14 H 16 O 2
##$NIST SOURCE=MSDC-IR
##STATE=gas
##XUNITS=1/CM
##YUNITS=ABSORBANCE
##XFACTOR=1.
##YFACTOR=0.001
##DELTAX=1.92898
##FIRSTX=549.8
##LASTX=4000.7
##FIRSTY=0.791
##MAXX=4000.7
##MINX=549.759
##MAXY=0.373125
##MINY=0
##NPOINTS=1790
##XYDATA=(X++(Y..Y))
549.759 0.791 0.8239 0.7015 0.588 0.8374 0.8481 0.9841 1.265 1.555 2.015
569.049 2.385 2.365 2.205 2.095 2.015 2.115 1.795 1.405 1.275 1.1753
588.339 1.0437 0.9653 1.0659 1.0441 0.8 0.7956 0.9021 0.8686 0.7909 0.546
607.628 0.5252 0.5946 0.698 0.7041 0.7162 0.9845 1.1715 1.465 1.855 2.575
626.918 3.355 4.165 5.195 6.215 7.245 8.425 9.295 9.215 8.195 7.095
646.208 6.245 5.325 4.365 3.315 2.515 2.125 1.935 1.505 1.305 1.245
665.498 0.9527 0.7821 0.8114 0.932 0.8748 0.7747 0.7221 0.9112 1.335 1.635
684.787 1.815 2.255 2.715 2.715 2.695 2.725 2.665 2.375 2.045 1.565
704.077 1.215 1.265 1.1242 0.9068 0.7103 0.5578 0.4469 0.5145 0.5971 0.5536
723.367 0.559 0.4901 0.3432 0.4044 0.5738 0.6736 0.6757 0.6912 0.8954 1.0294
742.657 1.225 1.395 1.515 1.635 1.785 2.055 2.045 1.785 1.755 1.645
761.947 1.465 1.375 1.295 1.245 1.062 0.9413 0.8742 0.7833 0.8293 0.8256
781.236 0.9488 1.0955 1.0448 1.043 1.0673 1.0889 1.1317 1.265 1.415 1.565
800.526 1.705 1.715 1.895 2.495 3.245 3.975 5.125 7.025 9.465 12.255
819.816 15.055 18.125 21.505 24.555 25.695 23.695 20.745 18.335 15.845 13.265
839.106 10.715 8.655 7.285 6.805 6.935 7.255 8.055 9.265 10.575 12.155
858.395 13.585 13.595 12.645 11.925 11.545 11.505 12.045 13.125 14.635 16.975
877.685 20.155 24.025 28.495 32.245 34.295 34.775 33.665 30.875 26.795 22.105
896.975 17.655 13.925 11.315 9.995 9.605 10.115 11.515 13.995 17.765 22.155
916.265 26.535 30.695 33.595 34.425 33.155 30.405 26.295 21.625 17.525 14.265
935.555 11.755 9.695 8.145 6.915 5.685 4.815 4.325 3.925 3.515 3.115
954.844 2.985 2.685 2.475 2.405 2.095 1.965 1.895 1.785 1.875 1.855
974.134 1.795 1.735 1.685 1.885 1.965 1.855 2.015 2.295 2.445 2.685
993.424 3.125 3.655 4.245 4.585 4.745 4.815 4.515 4.065 3.615 2.965
1012.714 2.435 1.955 1.825 1.735 1.495 1.625 1.605 1.315 1.1944 1.615
1032.003 1.835 1.815 1.715 1.675 2.055 2.315 2.345 2.545 3.035 3.825
1051.293 5.065 6.845 9.535 12.865 16.455 19.785 21.715 22.165 21.205 18.565
1070.583 15.035 11.565 8.395 6.095 4.745 4.005 3.705 3.405 3.025 2.925
1089.873 2.975 3.075 3.285 3.765 4.755 5.675 6.495 7.285 8.205 8.975
1109.163 9.055 8.685 8.075 6.965 6.205 5.645 5.215 5.115 4.885 4.995
1128.452 4.995 5.225 6.265 8.225 10.265 12.795 16.085 18.805 20.395 21.185
1147.742 21.055 19.815 18.215 17.385 17.745 18.755 20.235 22.155 24.445 27.095
1167.032 29.915 32.445 34.255 35.195 34.795 32.995 30.085 26.365 22.505 19.085
1186.322 16.435 14.365 13.145 12.535 12.345 12.755 13.845 15.105 16.905 19.705
1205.611 23.385 28.315 33.245 36.845 38.535 38.045 35.315 31.005 25.555 19.815
1224.901 15.145 11.875 9.745 8.455 7.845 7.485 7.595 8.065 8.485 9.335
1244.191 10.855 12.835 15.525 18.965 23.235 28.325 33.575 38.585 42.625 44.505
1263.481 44.135 41.655 37.175 31.565 26.255 22.155 19.745 18.925 19.235 20.305
1282.771 21.325 21.805 21.755 21.235 20.335 19.145 18.385 18.665 19.585 20.655
1302.060 21.245 21.025 19.835 17.795 15.245 12.555 10.215 8.435 7.175 6.265
1321.350 5.575 5.115 4.785 4.495 4.435 4.485 4.595 4.865 5.305 5.895
1340.640 6.585 7.445 8.385 9.445 10.565 11.675 12.785 13.755 14.725 15.765
1359.930 16.955 18.315 19.855 21.575 23.195 24.315 24.835 25.125 25.265 25.185
1379.219 24.995 24.615 23.805 22.845 21.995 20.915 19.315 17.535 16.155 15.215
1398.509 14.625 14.325 14.215 14.245 14.635 15.445 16.855 19.155 22.075 25.025
1417.799 27.305 28.445 28.125 26.285 23.125 19.335 15.705 13.005 11.465 10.735
1437.089 10.605 10.765 11.035 11.325 11.605 11.825 11.935 11.965 11.975 12.045
1456.378 12.175 12.305 12.495 12.715 12.865 13.105 13.495 13.915 14.445 15.315
1475.668 16.545 18.145 19.965 22.085 24.395 26.445 27.845 28.295 27.655 25.955
1494.958 23.395 20.015 16.435 13.205 10.515 8.465 6.925 5.835 5.155 4.595
1514.248 4.135 3.865 3.705 3.645 3.595 3.475 3.345 3.205 3.015 2.915
1533.538 2.845 2.775 2.805 2.835 2.855 3.035 3.425 3.875 4.455 5.355
1552.827 6.635 8.355 10.525 13.325 16.905 20.825 24.755 28.185 30.375 31.035
1572.117 30.035 27.555 23.965 19.885 16.105 12.955 10.675 9.055 7.885 7.125
1591.407 6.725 6.635 6.855 7.295 7.945 8.825 9.915 10.905 11.795 12.505
1610.697 12.935 13.305 13.745 14.485 15.725 17.565 19.865 22.275 24.225 25.215
1629.986 25.185 24.175 22.365 19.945 17.215 14.625 12.445 10.705 9.265 8.165
1649.276 7.375 6.735 6.175 5.705 5.405 5.145 4.925 4.755 4.585 4.535
1668.566 4.625 4.715 4.825 4.965 5.085 5.205 5.345 5.485 5.625 5.665
1687.856 5.665 5.705 5.745 5.865 6.095 6.405 6.825 7.375 8.065 8.925
1707.146 9.975 11.165 12.495 13.985 15.605 17.265 18.905 20.455 21.875 23.125
1726.435 24.125 24.945 25.635 26.315 27.165 28.345 30.015 32.475 35.815 39.905
1745.725 44.955 51.255 58.915 68.465 80.545 96.095 116.955 144.055 178.695 220.595
1765.015 266.495 311.605 349.435 371.525 373.125 354.345 317.715 268.855 214.845 163.945
1784.305 121.935 90.165 67.745 52.095 41.215 33.595 28.395 24.765 22.215 20.375
1803.594 19.145 18.155 17.295 16.435 15.485 14.455 13.505 12.565 11.615 10.815
1822.884 10.105 9.445 8.905 8.345 7.755 7.175 6.585 6.065 5.585 5.065
1842.174 4.565 4.165 3.805 3.465 3.215 2.935 2.675 2.505 2.325 2.215
1861.464 2.095 1.985 1.855 1.775 1.775 1.725 1.645 1.665 1.725 1.765
1880.754 1.875 1.995 2.175 2.305 2.455 2.625 2.745 2.815 2.775 2.715
1900.043 2.665 2.565 2.335 2.115 1.895 1.705 1.545 1.375 1.285 1.215
1919.333 1.1775 1.1195 1.0291 0.9919 0.9929 0.9545 0.9093 0.9235 0.9002 0.8437
1938.623 0.8577 0.8554 0.7983 0.7462 0.7574 0.7933 0.7565 0.706 0.7761 0.8421
1957.913 0.7977 0.7537 0.719 0.7183 0.7399 0.7776 0.8195 0.8387 0.8141 0.8167
1977.202 0.8453 0.8653 0.8757 0.8828 0.9448 0.9603 0.9337 0.9093 0.912 0.9541
1996.492 0.953 0.9725 0.9386 0.9162 0.9164 0.8706 0.8539 0.7725 0.7131 0.7231
2015.782 0.7273 0.7195 0.7176 0.6836 0.6575 0.6714 0.7452 0.7623 0.7355 0.7908
2035.072 0.8786 0.9091 0.8792 0.9024 0.9284 0.9659 0.994 1.0185 1.0511 1.0539
2054.362 1.0769 1.0735 1.0244 0.9844 0.9976 0.993 0.9495 0.9036 0.883 0.8875
2073.651 0.8839 0.8913 0.9179 0.9441 0.9701 0.9673 0.9414 0.9488 0.9902 0.9845
2092.941 0.9729 1.0009 1.0259 0.9796 0.9301 0.8489 0.8165 0.8207 0.7488 0.7737
2112.231 0.7949 0.7487 0.7454 0.7333 0.6551 0.6231 0.667 0.704 0.6706 0.6503
2131.521 0.6477 0.6038 0.5761 0.6431 0.6554 0.6138 0.5823 0.5109 0.5224 0.5963
2150.810 0.6123 0.5533 0.551 0.6159 0.6124 0.6199 0.6036 0.6063 0.6752 0.6745
2170.100 0.6634 0.6782 0.7111 0.746 0.7664 0.8025 0.8047 0.7521 0.7538 0.8021
2189.390 0.8418 0.7963 0.7207 0.6857 0.699 0.694 0.6313 0.6616 0.6502 0.6072
2208.680 0.6325 0.6477 0.7114 0.7531 0.7503 0.7288 0.7299 0.7657 0.7901 0.8129
2227.970 0.8189 0.8394 0.834 0.8353 0.8596 0.8787 0.8811 0.8421 0.8442 0.8584
2247.259 0.8274 0.7744 0.7815 0.7986 0.7498 0.7399 0.7911 0.8597 0.8892 0.8806
2266.549 0.8912 0.8734 0.929 1.0438 1.086 1.1451 1.1898 1.1726 1.1803 1.255
2285.839 1.305 1.225 1.1808 1.265 1.255 1.215 1.305 1.335 1.305 1.345
2305.129 1.395 1.385 1.405 1.515 1.615 1.645 1.755 1.895 1.885 1.845
2324.418 1.885 1.945 1.995 1.965 1.945 2.005 2.085 2.105 2.085 2.155
2343.708 2.195 2.155 2.075 1.945 1.835 1.765 1.645 1.525 1.455 1.365
2362.998 1.295 1.275 1.245 1.0978 1.0409 1.112 1.1349 1.1582 1.141 1.1036
2382.288 1.145 1.1392 1.0718 1.0449 1.1318 1.1833 1.1522 1.1859 1.1918 1.215
2401.578 1.195 1.1402 1.0826 1.0359 1.0433 1.1012 1.1788 1.1437 1.0291 0.9445
2420.867 0.9186 0.9117 0.9665 0.9769 0.9839 1.0139 0.9992 0.9941 0.999 0.9101
2440.157 0.8402 0.9019 0.8755 0.7786 0.7706 0.8228 0.8672 0.8685 0.8445 0.7971
2459.447 0.7517 0.8289 0.8508 0.7825 0.783 0.8497 0.8953 0.8456 0.8004 0.8178
2478.737 0.7833 0.7641 0.8208 0.8376 0.7723 0.7047 0.7222 0.7107 0.7133 0.7266
2498.026 0.7046 0.6866 0.6819 0.6946 0.727 0.6677 0.6154 0.6857 0.6897 0.6553
2517.316 0.6818 0.7285 0.7808 0.7878 0.792 0.7639 0.7907 0.7306 0.6766 0.7304
2536.606 0.712 0.7343 0.7821 0.7466 0.6922 0.7771 0.7527 0.7369 0.7257 0.7411
2555.896 0.8553 0.9007 0.982 1.0183 0.9801 0.9169 0.8293 0.8746 0.8779 0.8134
2575.186 0.7894 0.7667 0.7487 0.7535 0.7903 0.7676 0.7832 0.7666 0.692 0.6727
2594.475 0.6917 0.7253 0.7334 0.6673 0.6043 0.6217 0.6642 0.6496 0.6684 0.6626
2613.765 0.6457 0.6994 0.7509 0.7857 0.7731 0.7468 0.7533 0.791 0.8104 0.8236
2633.055 0.8877 0.8953 0.8388 0.8658 0.8187 0.77 0.7926 0.7513 0.7697 0.8194
2652.345 0.7948 0.7849 0.8144 0.8537 0.8464 0.8265 0.8435 0.8609 0.7497 0.8231
2671.634 0.9917 0.8474 0.7645 0.8071 0.822 0.8332 0.8364 0.7878 0.7792 0.7887
2690.924 0.8133 0.8894 0.8837 0.8701 0.898 0.9091 0.8694 0.8441 0.838 0.8427
2710.214 0.9461 1.0138 0.9579 0.9808 1.0871 1.158 1.145 1.1175 1.1806 1.1585
2729.504 1.0496 1.0765 1.1142 1.1716 1.255 1.325 1.365 1.375 1.415 1.395
2748.794 1.365 1.365 1.355 1.315 1.275 1.245 1.245 1.265 1.285 1.315
2768.083 1.305 1.295 1.275 1.285 1.285 1.375 1.495 1.505 1.615 1.725
2787.373 1.635 1.615 1.725 1.685 1.655 1.675 1.695 1.665 1.685 1.775
2806.663 1.835 1.915 1.895 1.845 1.935 2.065 2.035 1.965 1.965 2.085
2825.953 2.185 2.235 2.305 2.395 2.475 2.545 2.695 2.775 2.835 2.935
2845.242 3.125 3.345 3.555 3.975 4.425 4.905 5.525 6.245 7.175 8.095
2864.532 9.085 10.335 11.595 12.735 13.835 14.805 15.465 15.865 16.025 16.025
2883.822 15.795 15.565 15.235 14.835 14.605 14.515 14.525 14.705 15.125 15.605
2903.112 16.085 16.715 17.545 18.525 19.405 20.135 20.735 20.925 21.065 21.155
2922.401 21.115 21.255 21.465 21.775 22.135 22.475 22.835 23.225 23.585 23.975
2941.691 24.455 25.075 26.175 27.985 30.555 33.895 38.155 43.425 49.885 57.405
2960.981 65.715 74.325 82.255 88.255 91.005 89.805 84.805 76.705 66.455 55.485
2980.271 45.555 37.645 31.875 27.625 24.285 21.545 19.125 16.815 14.525 12.525
2999.561 10.655 8.885 7.475 6.445 5.775 5.155 4.525 4.135 3.755 3.435
3018.850 3.245 3.145 3.075 2.885 2.705 2.705 2.635 2.635 2.755 2.685
3038.140 2.715 2.895 3.035 3.255 3.525 3.585 3.525 3.625 3.785 3.905
3057.430 3.915 3.965 4.165 4.345 4.585 4.935 5.235 5.515 5.795 6.055
3076.720 6.115 5.925 5.745 5.485 5.085 4.625 4.195 3.765 3.255 2.955
3096.009 2.855 2.735 2.615 2.515 2.505 2.455 2.485 2.455 2.365 2.265
3115.299 2.115 2.045 1.965 1.995 1.985 1.865 1.815 1.705 1.565 1.545
3134.589 1.425 1.315 1.285 1.285 1.305 1.245 1.1746 1.0994 1.0581 1.103
3153.879 1.183 1.1193 1.1472 1.1747 1.1394 1.1924 1.205 1.285 1.215 1.1155
3173.169 1.174 1.169 1.1699 1.305 1.275 1.1355 1.225 1.305 1.275 1.245
3192.458 1.1569 1.285 1.335 1.225 1.1903 1.195 1.1498 1.1094 1.146 1.0634
3211.748 1.035 1.1423 1.1154 1.0824 1.1386 1.1237 1.205 1.1197 0.9928 0.9641
3231.038 0.9463 0.9488 0.8661 0.8475 0.9072 0.9286 0.9707 1.0154 0.9416 0.8858
3250.328 0.8713 0.9561 0.9373 0.7499 0.736 0.8469 0.8224 0.7063 0.724 0.7544
3269.617 0.7428 0.7274 0.6714 0.6446 0.6302 0.6368 0.6952 0.7117 0.6131 0.557
3288.907 0.6088 0.5877 0.5274 0.4923 0.4567 0.3817 0.3687 0.53 0.6204 0.5779
3308.197 0.582 0.537 0.3678 0.28843 0.3533 0.3896 0.4037 0.5061 0.4638 0.5253
3327.487 0.7462 0.7406 0.6803 0.682 0.6626 0.6104 0.6493 0.6539 0.6443 0.586
3346.777 0.4946 0.5314 0.549 0.4603 0.3514 0.4344 0.4992 0.4426 0.482 0.4699
3366.066 0.5669 0.672 0.6564 0.6502 0.5912 0.5864 0.6675 0.7055 0.6195 0.586
3385.356 0.604 0.5407 0.5697 0.5699 0.5518 0.6542 0.7488 0.723 0.6237 0.5797
3404.646 0.5546 0.5941 0.6672 0.6558 0.6573 0.5742 0.4739 0.5142 0.5921 0.7015
3423.936 0.5235 0.3943 0.4454 0.4412 0.5376 0.6352 0.5409 0.4687 0.5004 0.5719
3443.225 0.5744 0.5279 0.5925 0.6065 0.5495 0.5918 0.5492 0.4986 0.548 0.4351
3462.515 0.398 0.5752 0.6705 0.6839 0.7215 0.7423 0.8076 0.791 0.8819 1.0098
3481.805 1.0254 1.0947 1.0994 1.0882 1.205 1.415 1.435 1.475 1.755 1.815
3501.095 1.845 2.065 2.215 2.235 2.315 2.495 2.665 2.805 2.925 3.075
3520.385 3.165 3.015 2.965 2.945 2.735 2.585 2.415 2.235 2.095 1.935
3539.674 1.835 1.755 1.605 1.465 1.335 1.205 1.195 1.0696 0.9816 1.0207
3558.964 0.8853 0.8651 0.8904 0.7887 0.6042 0.5482 0.5703 0.4987 0.5204 0.5041
3578.254 0.4161 0.468 0.5314 0.5582 0.4795 0.4227 0.4777 0.5091 0.5234 0.493
3597.544 0.4107 0.3095 0.3451 0.4163 0.27772 0.1374 0.25395 0.322 0.25887 0.23563
3616.833 0.3007 0.3353 0.3407 0.4429 0.3977 0.3437 0.3786 0.27238 0.3053 0.4337
3636.123 0.3806 0.26168 0.3017 0.3174 0.3461 0.4721 0.3227 0.1526 0.1657 0.21422
3655.413 0.3444 0.3873 0.225 0.197548 0.2956 0.3029 0.3117 0.2604 0.3028 0.4929
3674.703 0.4993 0.3585 0.23639 0.23444 0.2613 0.3435 0.4963 0.3756 0.22836 0.2336
3693.993 0.19062 0.0999 0 0.1678 0.3241 0.21623 0.073 0.1809 0.3111 0.1508
3713.282 0.1341 0.22075 0.25145 0.27707 0.2977 0.197624 0.194989 0.3311 0.374 0.3894
3732.572 0.3235 0.21914 0.203162 0.2656 0.3206 0.26598 0.1778 0.23035 0.27835 0.3533
3751.862 0.4058 0.3834 0.3814 0.3842 0.3576 0.27092 0.23335 0.23063 0.28303 0.3909
3771.152 0.3223 0.2506 0.3098 0.4376 0.3876 0.3165 0.361 0.301 0.3628 0.4158
3790.441 0.27524 0.29007 0.2974 0.25826 0.4166 0.4762 0.4017 0.3485 0.3431 0.3657
3809.731 0.28694 0.22769 0.27253 0.3396 0.4461 0.3589 0.3506 0.3488 0.26868 0.29296
3829.021 0.3671 0.391 0.4094 0.4278 0.4093 0.3197 0.3647 0.5045 0.3694 0.3703
3848.311 0.4491 0.5204 0.4897 0.3119 0.25006 0.1772 0.256 0.426 0.406 0.4432
3867.601 0.4244 0.29086 0.3574 0.4586 0.4539 0.3933 0.4098 0.4341 0.4827 0.381
3886.890 0.24669 0.419 0.5485 0.5737 0.5362 0.5929 0.5209 0.346 0.4148 0.4399
3906.180 0.5785 0.6898 0.5469 0.4698 0.5515 0.5364 0.4561 0.4668 0.4056 0.4284
3925.470 0.5429 0.5121 0.5282 0.538 0.5656 0.5343 0.3969 0.3836 0.5106 0.6288
3944.760 0.5228 0.5117 0.4989 0.4923 0.5273 0.5734 0.6565 0.6628 0.6265 0.4477
3964.049 0.408 0.537 0.5906 0.5996 0.5273 0.5816 0.5458 0.4233 0.5003 0.5583
3983.339 0.5566 0.5284 0.5946 0.5933 0.5882 0.6238 0.5919 0.5664 0.6437 0.7109
##END=
