##TITLE=3,5-Difluorobenzophenone
##JCAMP-DX=4.24
##DATA TYPE=INFRARED SPECTRUM
##ORIGIN=EPA-IR VAPOR PHASE LIBRARY
##OWNER=SRD/NIST
Collection (C) 2018 copyright by the U.S. Secretary of Commerce
on behalf of the United States of America. All rights reserved.
##CAS REGISTRY NO=179-11-3
##MOLFORM=C 13 H 8 F 2 O
##$NIST SOURCE=MSDC-IR
##STATE=gas
##XUNITS=1/CM
##YUNITS=ABSORBANCE
##XFACTOR=1.
##YFACTOR=0.001
##DELTAX=1.92898
##FIRSTX=549.8
##LASTX=4000.7
##FIRSTY=2.601
##MAXX=4000.7
##MINX=549.759
##MAXY=0.651451
##MINY=0
##NPOINTS=1790
##XYDATA=(X++(Y..Y))
549.759 2.601 2.851 3.021 2.711 1.4322 1.5625 2.301 2.051 2.091 2.651
569.049 2.431 1.881 2.061 1.7771 1.7579 2.871 3.381 3.491 3.911 3.781
588.339 4.501 5.311 5.641 6.501 7.601 8.871 10.301 12.761 15.861 18.601
607.628 20.111 20.231 19.391 17.361 13.771 10.691 9.631 8.431 7.321 7.501
626.918 7.551 7.011 7.111 7.601 7.921 8.581 9.031 9.081 10.271 12.721
646.208 16.101 21.451 30.581 44.701 62.311 78.721 90.601 98.451 101.251 97.551
665.498 89.571 82.231 79.821 80.941 82.301 82.401 80.161 75.031 66.941 59.191
684.787 56.201 58.421 64.141 71.401 78.181 83.791 86.841 86.051 82.411 77.051
704.077 72.301 69.001 67.601 69.931 75.361 82.941 93.001 103.741 113.371 119.071
723.367 115.911 105.321 92.051 77.481 63.481 51.311 41.171 33.941 29.001 25.571
742.657 23.231 21.341 19.161 17.381 15.961 14.571 13.761 12.941 12.291 11.971
761.947 12.001 12.051 12.061 12.371 12.201 11.811 11.961 11.711 11.981 13.581
781.236 15.631 17.681 20.101 22.671 24.831 26.851 28.671 29.691 29.421 29.111
800.526 29.001 28.851 30.201 33.931 40.401 51.671 70.671 99.651 133.861 165.181
819.816 187.541 196.001 189.221 167.221 129.901 87.701 58.011 43.431 36.411 33.381
839.106 32.711 32.891 34.291 37.231 41.591 47.581 54.981 62.971 70.121 76.321
858.395 76.011 68.901 62.261 56.681 52.621 50.221 50.031 52.291 55.931 60.171
877.685 62.861 63.511 61.911 56.841 48.821 40.181 32.401 25.681 20.111 15.861
896.975 13.131 11.731 10.661 10.061 9.641 8.731 8.201 8.111 7.731 7.231
916.265 6.671 6.151 5.721 5.521 5.621 5.971 5.901 5.911 6.051 5.741
935.555 5.741 5.541 5.451 5.671 5.681 5.761 6.441 7.581 8.041 8.311
954.844 9.311 10.541 12.071 13.731 16.111 19.351 23.161 28.171 33.981 41.061
974.134 50.181 60.741 73.031 87.391 102.861 118.181 129.671 135.531 137.201 133.861
993.424 124.221 110.561 97.841 87.891 79.301 70.741 61.471 51.231 41.211 31.881
1012.714 24.671 19.511 15.601 13.851 13.811 14.561 14.621 14.791 14.981 13.521
1032.003 12.531 11.731 9.821 8.231 7.411 6.701 6.781 7.141 6.971 7.461
1051.293 8.011 7.731 7.831 8.871 9.711 10.241 10.881 11.641 12.861 13.631
1070.583 13.511 14.621 15.601 15.131 14.581 14.871 15.611 15.001 14.371 15.861
1089.873 18.161 19.881 21.681 24.171 27.491 32.291 36.721 40.141 46.721 54.631
1109.163 63.831 77.851 95.161 116.331 143.941 177.171 212.991 242.481 254.921 253.691
1128.452 246.811 225.251 184.341 139.471 102.241 73.191 52.471 38.631 28.491 23.511
1147.742 21.211 18.891 17.511 16.311 14.481 14.311 14.391 13.881 14.181 14.941
1167.032 16.341 17.921 21.251 27.991 36.161 44.181 49.941 51.321 49.671 45.721
1186.322 38.661 30.411 23.431 20.541 20.661 21.391 22.861 24.181 27.661 33.521
1205.611 38.441 44.111 51.331 56.801 60.301 63.621 67.371 70.311 73.421 80.051
1224.901 90.461 102.501 114.801 125.601 131.801 132.951 131.221 126.151 118.641 110.581
1244.191 101.051 91.361 82.941 74.091 64.751 55.321 46.081 38.821 32.741 27.551
1263.481 24.071 21.421 19.151 17.601 17.301 17.191 17.351 18.081 18.931 20.061
1282.771 21.941 24.271 26.881 30.681 35.861 42.081 49.311 58.401 69.331 81.691
1302.060 96.081 113.251 133.311 156.311 182.971 215.051 256.231 308.631 373.191 447.961
1321.350 525.671 595.111 640.741 651.451 622.441 557.721 468.381 368.961 276.131 201.461
1340.640 147.851 112.531 89.911 75.921 67.751 63.251 61.071 60.201 59.671 58.721
1359.930 56.991 54.521 51.391 47.921 44.321 40.721 37.291 33.901 30.631 27.681
1379.219 25.271 23.291 21.621 20.071 18.851 17.971 17.021 16.321 15.991 15.621
1398.509 15.491 15.761 16.341 17.271 18.511 20.291 22.881 26.341 30.681 36.211
1417.799 43.411 52.871 64.561 79.451 98.411 120.501 145.521 171.791 195.681 213.511
1437.089 223.811 224.391 215.741 200.171 179.201 155.881 134.091 116.501 102.311 89.971
1456.378 78.371 68.561 60.891 53.871 47.521 41.951 37.431 33.941 31.291 28.891
1475.668 26.851 25.011 23.381 21.731 20.411 19.551 19.011 18.811 19.101 19.581
1494.958 19.841 19.961 20.031 20.061 20.051 19.981 20.161 20.641 21.021 21.391
1514.248 21.841 22.071 21.831 21.551 21.251 21.141 21.121 21.311 21.701 22.111
1533.538 23.101 24.151 25.071 25.841 26.271 26.441 26.341 26.361 26.661 26.711
1552.827 26.801 27.471 28.351 29.791 32.091 34.821 38.361 43.171 49.211 57.141
1572.117 66.801 78.241 93.321 110.641 129.741 151.931 176.361 202.461 228.031 251.071
1591.407 269.531 281.141 284.441 279.581 266.141 246.221 222.651 199.661 181.511 169.771
1610.697 164.391 162.181 159.631 153.921 144.041 130.821 115.661 100.731 88.171 79.241
1629.986 73.381 69.381 65.931 62.271 58.801 55.511 52.211 49.471 47.591 46.521
1649.276 46.241 46.721 48.041 49.651 51.451 53.171 55.131 57.531 60.311 63.811
1668.566 69.001 77.391 89.731 106.631 129.181 154.971 182.801 208.561 229.161 242.481
1687.856 246.211 240.351 223.901 200.161 172.151 145.081 121.861 101.411 86.561 75.071
1707.146 66.381 59.531 54.021 48.851 44.171 39.651 35.431 32.141 29.441 27.011
1726.435 25.081 23.621 22.241 21.011 19.781 18.571 17.771 16.781 15.721 14.791
1745.725 14.181 14.051 13.971 13.691 13.421 13.071 12.591 12.161 11.621 11.051
1765.015 10.621 10.091 9.521 9.001 8.481 8.141 7.761 7.411 7.141 6.721
1784.305 6.421 6.331 6.241 6.101 6.211 6.471 6.651 6.861 7.161 7.621
1803.594 8.101 8.301 8.471 8.771 8.801 8.401 7.861 7.291 6.771 6.241
1822.884 5.681 5.301 4.951 4.651 4.381 4.181 3.971 3.731 3.671 3.591
1842.174 3.571 3.641 3.631 3.751 3.781 3.701 3.691 3.551 3.501 3.471
1861.464 3.391 3.351 3.301 3.331 3.291 3.291 3.271 3.131 3.201 3.531
1880.754 3.671 3.761 3.921 4.271 4.691 4.871 5.111 5.411 5.581 5.741
1900.043 5.861 5.951 6.131 6.011 5.731 5.701 5.701 5.471 5.141 4.631
1919.333 4.191 3.851 3.471 3.201 3.021 3.131 3.381 3.351 3.411 3.641
1938.623 3.861 4.171 4.591 5.111 5.581 5.971 6.321 6.681 6.901 6.801
1957.913 6.621 6.581 6.491 6.401 6.241 6.101 6.001 5.781 5.431 4.871
1977.202 4.331 3.911 3.561 3.331 3.281 3.341 3.231 3.221 3.221 3.111
1996.492 2.901 2.741 2.821 2.801 2.701 2.581 2.341 2.271 2.301 2.281
2015.782 2.231 2.151 2.161 2.041 1.921 1.971 2.071 2.181 2.231 2.181
2035.072 1.961 1.901 2.111 2.311 2.321 2.381 2.581 2.651 2.651 2.621
2054.362 2.571 2.641 2.831 2.921 2.911 2.691 2.371 2.291 2.361 2.281
2073.651 2.281 2.451 2.461 2.261 2.231 2.181 2.121 2.271 2.451 2.451
2092.941 2.621 2.821 3.061 3.431 3.531 3.581 3.731 3.961 4.211 4.431
2112.231 4.661 4.811 4.501 4.311 4.251 3.921 3.551 3.291 3.171 2.941
2131.521 2.821 2.681 2.491 2.311 1.941 1.7669 1.911 1.901 1.7083 1.7707
2150.810 1.7365 1.5524 1.61 1.6093 1.4719 1.4299 1.4917 1.5726 1.538 1.4247
2170.100 1.3468 1.3153 1.323 1.155 1.2445 1.4342 1.4037 1.5104 1.5427 1.5608
2189.390 1.5871 1.6425 1.5499 1.5295 1.7518 1.7079 1.6764 1.5857 1.7049 1.7932
2208.680 1.7533 2.011 2.051 2.111 2.291 2.311 2.261 2.351 2.421 2.501
2227.970 2.641 2.691 2.761 2.661 2.611 2.781 2.881 2.961 2.851 2.771
2247.259 2.731 2.631 2.671 2.731 2.591 2.521 2.551 2.321 2.121 2.181
2266.549 2.241 2.011 1.891 2.141 2.221 2.041 1.8261 2.081 2.301 2.051
2285.839 2.101 2.371 2.441 2.281 2.341 2.441 2.341 2.361 2.481 2.541
2305.129 2.501 2.601 2.971 3.101 2.981 3.251 3.541 3.641 3.861 3.761
2324.418 3.491 3.501 3.451 3.291 3.211 3.171 3.411 3.631 3.601 3.541
2343.708 3.311 3.051 2.961 2.991 2.701 2.581 2.701 2.531 2.451 2.541
2362.998 2.581 2.581 2.491 2.241 2.161 2.271 2.341 2.111 1.8357 1.7503
2382.288 1.7217 1.7049 1.7376 1.8494 1.7953 1.7638 1.713 1.8431 2.001 1.971
2401.578 2.271 2.391 2.291 2.201 2.361 2.601 2.601 2.791 3.141 3.421
2420.867 3.621 3.861 4.001 3.971 4.051 4.281 4.361 4.341 4.141 4.041
2440.157 4.271 4.241 4.261 4.221 4.071 3.941 3.851 3.711 3.351 3.141
2459.447 2.971 2.721 2.571 2.531 2.361 2.171 2.141 2.151 2.011 1.991
2478.737 1.881 1.7031 1.6866 1.6889 1.6784 1.8294 1.991 1.8623 1.5793 1.5153
2498.026 1.6954 1.7283 1.7777 1.8595 1.8228 1.826 1.8463 1.8083 1.8353 1.8432
2517.316 1.8425 1.6446 1.7228 1.8554 1.8024 1.8696 1.8011 1.7298 1.8001 1.8599
2536.606 1.961 2.101 2.291 2.231 2.111 2.391 2.551 2.461 2.601 2.761
2555.896 2.961 3.041 3.011 3.171 3.221 3.341 3.291 2.911 2.901 2.991
2575.186 2.901 2.971 3.051 3.161 3.191 3.291 3.291 3.201 3.211 3.211
2594.475 3.321 3.341 3.451 3.451 3.201 2.961 2.791 2.821 2.881 2.971
2613.765 3.101 3.111 2.961 2.741 2.731 2.661 2.551 2.531 2.511 2.481
2633.055 2.401 2.511 2.521 2.451 2.461 2.411 2.211 2.221 2.471 2.611
2652.345 2.611 2.311 2.031 2.061 2.161 1.871 1.7953 2.061 1.961 1.6805
2671.634 1.4987 1.4803 1.4103 1.5666 1.719 1.5429 1.403 1.257 1.387 1.7818
2690.924 1.7046 1.5238 1.7606 1.7471 1.5894 1.6098 1.7891 1.807 1.871 2.191
2710.214 2.301 2.331 2.241 2.161 2.161 1.951 1.911 2.061 1.951 1.951
2729.504 1.981 1.991 2.271 2.001 1.8358 2.051 2.061 2.071 1.7589 1.5416
2748.794 1.6572 1.6148 1.3713 1.392 1.6929 1.6215 1.4222 1.5062 1.7343 1.7053
2768.083 1.7703 2.081 2.051 2.051 1.941 1.7642 1.8224 1.6752 1.5735 1.4917
2787.373 1.3966 1.3789 1.3634 1.44 1.8672 1.8446 1.1794 1.1724 1.3483 1.2738
2806.663 1.2746 1.5166 1.4912 1.4128 1.6589 1.8036 2.031 2.191 2.011 1.931
2825.953 1.911 1.921 2.231 2.021 1.6909 1.845 1.931 1.717 1.6669 1.8421
2845.242 1.8647 1.7756 1.4916 1.2978 1.4291 1.6652 1.881 1.861 1.7224 1.7249
2864.532 1.7981 1.4143 1.1289 1.5114 1.73 1.6069 1.4691 1.3837 1.3861 1.5094
2883.822 1.484 1.4301 1.7022 1.951 2.061 1.8317 1.5043 2.041 2.331 1.941
2903.112 1.981 2.021 1.931 2.031 1.921 1.8249 1.865 1.951 2.041 2.121
2922.401 2.051 2.011 2.191 2.201 2.071 1.951 1.941 1.991 2.211 2.171
2941.691 1.951 1.961 1.911 1.8478 1.4519 1.2658 1.4789 1.2176 0.8046 1.3208
2960.981 1.5879 1.5519 1.7405 1.6517 1.881 1.8673 1.7855 1.871 1.6448 1.5203
2980.271 1.7587 1.7607 1.5224 1.6512 1.931 2.091 2.101 2.071 1.8276 2.001
2999.561 2.571 2.681 2.881 3.401 3.791 3.611 3.831 4.301 4.721 5.791
3018.850 7.101 8.041 9.001 10.621 11.871 13.091 14.411 15.681 17.001 17.781
3038.140 18.151 18.231 17.751 16.541 15.831 15.491 15.131 15.881 17.201 18.751
3057.430 20.961 23.951 27.511 31.381 36.021 40.851 45.061 47.731 48.541 47.971
3076.720 46.101 43.191 39.711 36.871 35.691 35.751 36.081 35.721 34.381 32.761
3096.009 30.551 27.931 25.541 22.901 19.861 16.951 14.451 12.241 9.861 8.091
3115.299 6.851 5.811 5.041 4.191 3.821 3.861 3.741 3.531 3.131 2.561
3134.589 2.661 2.731 2.541 2.511 2.841 3.081 2.771 2.821 2.881 2.731
3153.879 2.481 2.191 2.541 2.591 2.451 2.411 2.191 1.961 1.921 1.832
3173.169 1.0933 1.2306 1.8155 1.6865 1.7658 1.7371 1.4319 1.4741 1.7163 1.64
3192.458 1.4254 1.1523 0.90489 0.88567 1.133 1.3946 1.426 1.4607 1.414 1.3279
3211.748 1.2907 1.4557 1.537 1.4332 1.217 0.88894 0.96012 1.2878 1.3879 1.1778
3231.038 1.0137 1.106 1.3076 1.3726 1.3765 1.1459 0.9986 1.5818 1.3574 0.684
3250.328 0.8052 1.25 1.2668 0.671 1.1231 1.493 1.0148 1.0876 1.3746 1.4214
3269.617 1.3493 1.261 1.6038 1.5769 1.2284 1.514 1.5214 0.95949 0.643 0.761
3288.907 1.2742 1.4926 1.1437 1.177 1.3468 1.4496 1.8212 1.981 1.5286 1.2849
3308.197 1.6702 1.867 1.5647 1.4169 1.4988 1.881 1.921 1.5413 1.5873 1.7695
3327.487 2.041 2.141 1.8309 2.151 2.681 2.801 2.881 3.011 3.431 3.601
3346.777 3.751 4.231 4.581 4.431 4.501 4.491 4.561 4.961 4.511 4.041
3366.066 3.531 3.471 3.451 2.851 2.501 2.221 2.311 2.401 2.131 2.171
3385.356 2.051 1.6911 1.7035 1.6852 1.725 1.6536 1.6818 1.6726 1.5124 2.031
3404.646 1.961 1.4053 1.2844 1.2498 1.0662 1.3228 1.1755 0.732 1.0597 1.0522
3423.936 0.9634 1.4303 1.4599 1.1578 1.3548 1.0951 1.0621 1.5292 1.4178 1.1235
3443.225 1.1606 1.1641 1.0084 0.8512 0.95265 1.2081 1.0807 1.1331 1.3937 1.0632
3462.515 0.777 0.8295 0.678 0.431 0.871201 1.2236 0.7738 0.746 0.742 0.509
3481.805 0.504 0.594 1.031 0.761 0.584 0.8012 0.388 0.337 0.557 0.8515
3501.095 1.2672 1.489 1.1965 0.8517 0.71 0.577 0.96993 1.1083 0.8557 0.767
3520.385 0.7845 0.505 0.178 0.414 0.492 0.637 0.95935 1.0249 0.88435 0.697
3539.674 0.569 0.419 0.264 0.542 0.92477 0.9818 0.8027 0.773 0.95218 0.7851
3558.964 0.9829 1.4477 1.6151 1.4232 0.88778 0.91968 0.727 0.336 0.483 0.7905
3578.254 0.737 0.546 0.873551 1.1243 1.0991 1.0972 0.848 0.876639 0.9834 0.677
3597.544 0.88975 1.1069 0.90296 0.87775 1.0201 1.1165 0.879623 0.9301 0.856 0.564
3616.833 1.026 1.323 0.9519 1.1571 1.1176 0.704 1.1332 1.0543 0.727 0.88481
3636.123 1.0666 1.097 1.1138 1.2417 1.0707 1.1017 1.134 1.2542 1.4168 1.0506
3655.413 0.91239 0.8241 0.43 0.646 1.2538 1.0049 0.872733 1.2074 1.1932 1.0118
3674.703 1.0109 1.178 1.3499 1.141 0.90185 1.0637 0.97093 0.753 1.1138 1.6172
3693.993 1.627 1.5461 1.3855 1.4629 1.4833 1.2411 0.90162 0.608 0.681 0.733
3713.282 1.0202 1.2732 1.0691 1.2377 1.6597 1.3862 1.3919 1.5253 1.3553 1.3393
3732.572 1.2357 1.1884 1.1262 0.94523 0.874612 1.0429 1.3356 1.3217 1.2681 1.3561
3751.862 1.1755 0.747 0.762 1.2475 0.95974 0.8208 0.872055 0.583 0.717 1.0993
3771.152 1.2853 0.96395 0.89236 1.0382 0.769 0.94143 0.90192 0.7711 1.0464 0.7788
3790.441 0.615 0.398 0 0.111 0.668 0.8341 0.357 0.459 1.0188 0.91586
3809.731 0.9351 0.749 0.69 1.1247 1.0196 0.9986 0.7786 0.9099 1.1688 0.8149
3829.021 0.538 0.716 0.766 0.63 0.239 0.118 0.586 0.92144 0.93557 0.707
3848.311 0.523 0.714 1.1809 1.1484 0.86107 0.93976 0.95423 0.297 0.216 0.7
3867.601 0.699 0.9805 1.1949 1.2165 1.3362 1.4295 1.5722 1.146 0.8114 0.8486
3886.890 0.587 0.4 0.318 0.372 0.567 0.65 0.8395 0.8026 0.705 0.8026
3906.180 1.1385 1.244 1.0189 1.2871 1.3055 1.1648 1.1139 0.693 0.77 0.93254
3925.470 0.89965 1.2787 1.6363 1.6686 1.0762 0.605 0.57 0.504 0.42 0.514
3944.760 1.0456 1.0835 0.752 0.7959 0.8119 0.668 0.8326 0.9765 0.712 0.58
3964.049 0.855 0.615 0.282 0.729 0.94907 1.3257 1.3426 0.8531 1.1628 1.4603
3983.339 1.1503 0.93736 0.8038 0.711 0.678 0.7713 0.9749 0.734 0.496 0.648
##END=
