##TITLE=cis-1,2-Cyclohexanediol
##JCAMP-DX=4.24
##DATA TYPE=INFRARED SPECTRUM
##ORIGIN=EPA-IR VAPOR PHASE LIBRARY
##OWNER=SRD/NIST
Collection (C) 2018 copyright by the U.S. Secretary of Commerce
on behalf of the United States of America. All rights reserved.
##CAS REGISTRY NO=1792-81-0
##MOLFORM=C 6 H 12 O 2
##$NIST SOURCE=MSDC-IR
##STATE=gas
##XUNITS=1/CM
##YUNITS=ABSORBANCE
##XFACTOR=1.
##YFACTOR=0.001
##DELTAX=1.92898
##FIRSTX=549.8
##LASTX=4000.7
##FIRSTY=1.528
##MAXX=4000.7
##MINX=549.759
##MAXY=0.067968
##MINY=0
##NPOINTS=1790
##XYDATA=(X++(Y..Y))
549.759 1.528 1.548 1.658 1.848 1.848 1.818 1.748 1.578 1.518 1.648
569.049 2.038 2.198 2.338 2.528 2.558 2.678 2.718 2.798 2.928 3.078
588.339 3.408 3.628 3.338 3.218 3.408 3.288 3.238 3.028 2.768 2.528
607.628 2.168 1.988 1.648 1.288 1.248 1.308 1.588 1.768 1.548 1.298
626.918 1.218 1.328 1.378 1.358 1.618 1.738 1.678 1.828 1.898 1.888
646.208 2.058 2.198 2.368 2.588 2.648 2.698 2.628 2.558 2.628 2.608
665.498 2.408 2.428 2.438 2.278 2.188 2.148 1.928 1.448 1.298 1.448
684.787 1.478 1.198 0.9709 1.0391 0.9562 0.8116 0.839 1.0926 1.218 1.1076
704.077 0.9645 0.8596 1.0744 1.1114 0.9297 1.0363 1.1264 0.9663 0.8497 0.9234
723.367 0.9429 0.8545 0.8251 0.9452 0.9459 0.8356 0.716 0.6316 0.8633 1.1381
742.657 1.188 1.1371 0.8798 0.9933 1.398 1.398 1.368 1.388 1.338 1.398
761.947 1.488 1.508 1.538 1.648 1.668 1.798 1.698 1.468 1.528 1.428
781.236 1.498 1.708 1.598 1.508 1.538 1.578 1.628 1.668 1.778 1.888
800.526 1.988 2.168 2.448 2.588 2.538 2.508 2.788 3.058 3.268 3.248
819.816 2.888 2.798 2.858 2.788 2.688 2.818 2.918 2.698 2.678 2.818
839.106 2.808 2.758 2.698 2.728 2.598 2.558 2.658 2.678 2.588 2.428
858.395 2.368 2.298 2.168 2.288 2.628 2.968 3.048 2.998 3.148 3.378
877.685 3.758 3.828 3.578 3.528 3.708 3.878 3.698 3.668 3.568 3.408
896.975 3.568 3.758 3.578 3.258 3.318 3.348 3.198 3.078 3.128 3.128
916.265 2.878 2.858 2.918 2.658 2.538 2.478 2.598 2.448 2.288 2.578
935.555 2.768 2.878 2.968 3.138 3.408 3.688 3.908 4.128 4.578 4.838
954.844 5.288 5.988 6.268 6.728 7.188 7.648 8.658 9.878 11.118 12.268
974.134 13.548 14.528 15.628 16.938 18.118 19.538 20.238 19.558 18.488 17.648
993.424 16.528 15.558 14.648 13.478 12.328 11.058 9.708 8.548 7.938 7.298
1012.714 6.538 6.168 5.868 5.668 5.818 5.838 5.848 6.378 6.648 7.208
1032.003 7.968 8.478 9.208 10.038 11.038 12.078 13.098 14.538 16.418 17.898
1051.293 19.168 20.998 22.938 24.778 26.178 27.478 28.728 29.638 30.808 30.988
1070.583 30.308 29.958 29.088 27.188 24.988 22.458 19.638 17.318 15.628 13.798
1089.873 12.178 11.268 9.958 9.228 8.568 7.898 7.998 7.898 7.928 7.458
1109.163 7.218 7.318 7.238 7.078 6.758 6.758 6.838 6.658 6.528 6.428
1128.452 6.008 5.798 5.818 5.588 5.538 5.508 5.438 5.538 5.758 6.028
1147.742 5.738 5.678 6.218 6.378 6.098 6.428 6.918 7.098 7.408 7.588
1167.032 7.428 7.168 7.188 7.098 6.818 6.868 7.018 6.928 6.708 6.568
1186.322 6.668 6.718 6.828 6.708 6.798 6.708 6.108 5.738 5.748 6.028
1205.611 6.308 6.738 6.668 6.598 6.488 6.398 6.638 7.068 7.398 7.548
1224.901 7.658 7.738 8.238 8.748 8.898 8.968 9.068 9.008 8.788 8.658
1244.191 8.838 8.868 8.538 8.358 8.078 7.668 7.528 7.618 7.758 7.878
1263.481 7.728 7.368 7.318 7.248 7.048 6.978 6.778 6.478 6.388 6.318
1282.771 5.958 5.608 5.368 5.258 5.168 4.948 4.838 4.738 4.648 4.638
1302.060 4.658 4.718 4.778 4.838 4.938 5.028 5.198 5.378 5.518 5.638
1321.350 5.768 6.018 6.198 6.208 6.308 6.458 6.528 6.628 6.728 6.668
1340.640 6.608 6.668 6.628 6.588 6.528 6.458 6.448 6.378 6.228 6.128
1359.930 6.098 6.118 6.258 6.408 6.518 6.708 6.918 7.038 7.128 7.248
1379.219 7.368 7.448 7.498 7.518 7.468 7.328 7.228 7.128 6.898 6.578
1398.509 6.268 5.958 5.628 5.308 5.008 4.808 4.658 4.398 4.118 3.978
1417.799 3.898 3.858 3.858 3.888 3.948 4.168 4.428 4.608 4.928 5.408
1437.089 5.888 6.378 6.738 6.818 6.768 6.788 7.098 7.768 8.528 8.538
1456.378 7.608 6.748 6.278 5.968 5.888 5.698 5.148 4.488 3.958 3.578
1475.668 3.298 2.928 2.498 2.138 1.858 1.658 1.458 1.248 1.0956 1.0122
1494.958 0.9546 0.9249 0.8825 0.8232 0.7791 0.7684 0.7486 0.6517 0.6344 0.612
1514.248 0.5901 0.6414 0.6471 0.6736 0.654 0.5618 0.5288 0.4779 0.4188 0.4522
1533.538 0.5406 0.5509 0.6006 0.574 0.423 0.389 0.3782 0.4276 0.4711 0.3822
1552.827 0.3969 0.4542 0.4606 0.4667 0.4036 0.3644 0.3054 0.2629 0.2954 0.3401
1572.117 0.3518 0.4081 0.4536 0.3058 0.21234 0.23877 0.25673 0.2961 0.373 0.4251
1591.407 0.3777 0.24972 0.24724 0.3513 0.3239 0.3358 0.3905 0.3358 0.26127 0.3051
1610.697 0.2812 0.21712 0.2584 0.2835 0.21615 0.19189 0.26055 0.3861 0.3904 0.3678
1629.986 0.3809 0.286 0.25618 0.3214 0.2756 0.25434 0.3227 0.3204 0.271 0.2036
1649.276 0.17872 0.21038 0.19008 0.1549 0.177843 0.21972 0.25914 0.26078 0.22283 0.24428
1668.566 0.23404 0.20483 0.22066 0.23992 0.22613 0.17823 0.23366 0.2403 0.24109 0.21621
1687.856 0.1592 0.1916 0.17884 0.1333 0.1904 0.24527 0.3247 0.2957 0.174102 0.20662
1707.146 0.171592 0.1518 0.20039 0.19669 0.21399 0.24282 0.23817 0.23848 0.24365 0.23995
1726.435 0.24604 0.2282 0.1504 0.1243 0.16683 0.1563 0.15871 0.1273 0.1222 0.20424
1745.725 0.2769 0.2748 0.25851 0.24137 0.23329 0.21686 0.170094 0.21472 0.23157 0.141
1765.015 0.18775 0.19973 0.077 0.1281 0.2056 0.2008 0.21056 0.19717 0.1638 0.08
1784.305 0.1086 0.19001 0.22075 0.172885 0.16551 0.19185 0.18228 0.20466 0.20572 0.21086
1803.594 0.15896 0.1327 0.1315 0.16198 0.1579 0.1046 0.1215 0.14 0.172241 0.19009
1822.884 0.1435 0.158 0.20082 0.261 0.24524 0.1463 0.174168 0.22081 0.22831 0.19321
1842.174 0.16417 0.1637 0.16482 0.18992 0.21072 0.22072 0.177879 0.1316 0.1428 0.1208
1861.464 0.0781 0.1033 0.1242 0.1492 0.1307 0.1043 0.0833 0.0944 0.1371 0.1515
1880.754 0.17972 0.177191 0.1477 0.1171 0.1533 0.1569 0.1009 0.1192 0.17886 0.171931
1900.043 0.1782 0.18203 0.167706 0.21259 0.21035 0.19507 0.1599 0.1218 0.19815 0.22239
1919.333 0.168611 0.23678 0.22107 0.1064 0.1215 0.1432 0.2026 0.25519 0.19336 0.17893
1938.623 0.20794 0.172591 0.167709 0.2769 0.2883 0.21826 0.21636 0.21799 0.24172 0.2827
1957.913 0.22268 0.168492 0.18932 0.24338 0.24723 0.21837 0.24001 0.2341 0.19104 0.1229
1977.202 0.118 0.0911 0.125 0.177417 0.22818 0.24747 0.22231 0.19828 0.1254 0.1506
1996.492 0.22144 0.22919 0.17843 0.1382 0.1432 0.22643 0.2896 0.2913 0.23611 0.175921
2015.782 0.23903 0.2954 0.2933 0.26701 0.2685 0.24929 0.18673 0.17837 0.23529 0.2553
2035.072 0.21784 0.21354 0.1168 0.1206 0.21228 0.1522 0.1206 0.19527 0.25639 0.21493
2054.362 0.1278 0.1577 0.19775 0.19433 0.19103 0.21053 0.24637 0.22302 0.22278 0.2741
2073.651 0.2793 0.2818 0.24237 0.21041 0.18566 0.1416 0.16682 0.19784 0.22839 0.18511
2092.941 0.18935 0.21591 0.22677 0.26508 0.25567 0.2746 0.3078 0.3291 0.3358 0.3057
2112.231 0.2972 0.25858 0.26277 0.248 0.20565 0.26245 0.26542 0.2481 0.25322 0.18433
2131.521 0.16239 0.22552 0.21169 0.20341 0.21916 0.19623 0.19852 0.20663 0.21886 0.23555
2150.810 0.24545 0.26393 0.24952 0.25363 0.2553 0.25632 0.25638 0.24384 0.26192 0.22856
2170.100 0.17821 0.24576 0.3067 0.3179 0.2996 0.287 0.2809 0.2337 0.1988 0.19881
2189.390 0.22177 0.25163 0.22235 0.20761 0.2659 0.2778 0.26597 0.2719 0.296 0.3033
2208.680 0.3009 0.2686 0.23187 0.21537 0.22232 0.24953 0.23631 0.2506 0.20243 0.20541
2227.970 0.24436 0.20811 0.22464 0.170469 0.1474 0.22063 0.21643 0.148 0.2689 0.2784
2247.259 0.1372 0.21939 0.2696 0.18654 0.19444 0.26513 0.25102 0.26538 0.2728 0.20593
2266.549 0.18563 0.19545 0.2921 0.2951 0.22969 0.25749 0.26524 0.3276 0.287 0.16099
2285.839 0.21293 0.22517 0.20127 0.3225 0.2949 0.16641 0.19654 0.22936 0.21197 0.18826
2305.129 0.16153 0.16132 0.18139 0.20129 0.152 0.1213 0.1349 0.20529 0.20136 0.193
2324.418 0.2458 0.2708 0.22619 0.176876 0.3118 0.3 0.18781 0.19433 0.19849 0.2342
2343.708 0.2713 0.2823 0.3079 0.3231 0.3139 0.3108 0.3726 0.3664 0.344 0.3519
2362.998 0.24453 0.25428 0.309 0.3056 0.3648 0.357 0.289 0.2836 0.3123 0.3511
2382.288 0.3207 0.25008 0.342 0.3266 0.343 0.3826 0.2952 0.3578 0.407 0.3086
2401.578 0.19399 0.16065 0.18156 0.22986 0.174277 0.1869 0.26743 0.24173 0.287 0.2095
2420.867 0.1372 0.23643 0.26284 0.24791 0.25675 0.3111 0.3194 0.3266 0.2726 0.21592
2440.157 0.22204 0.25622 0.2914 0.2941 0.369 0.3724 0.3365 0.3326 0.3195 0.28
2459.447 0.2581 0.3214 0.3308 0.23026 0.20732 0.22871 0.26276 0.24371 0.18345 0.175771
2478.737 0.2395 0.3412 0.3407 0.25766 0.2808 0.2917 0.24696 0.3083 0.358 0.3881
2498.026 0.3894 0.3941 0.4142 0.455 0.3228 0.171094 0.20589 0.26238 0.3142 0.3173
2517.316 0.24179 0.177942 0.3083 0.3314 0.24443 0.2955 0.2887 0.3043 0.26498 0.20273
2536.606 0.22787 0.22839 0.26742 0.3167 0.26165 0.26056 0.24706 0.23736 0.3132 0.2826
2555.896 0.3109 0.3784 0.399 0.3872 0.3683 0.4057 0.467 0.5048 0.4938 0.4825
2575.186 0.5047 0.5158 0.4797 0.5139 0.4825 0.4166 0.4789 0.5806 0.6215 0.5874
2594.475 0.5174 0.4821 0.5352 0.5472 0.5264 0.5473 0.5387 0.5537 0.5501 0.4871
2613.765 0.5501 0.5641 0.6178 0.7568 0.7105 0.6577 0.7583 0.78 0.7733 0.7507
2633.055 0.7827 0.8931 0.8503 0.802 0.789 0.8697 0.8775 0.9539 1.1544 1.0458
2652.345 0.9609 1.0895 1.228 1.248 1.238 1.258 1.258 1.328 1.228 1.208
2671.634 1.298 1.248 1.1476 1.0839 1.188 1.228 1.198 1.198 1.198 1.1318
2690.924 1.0321 1.0538 1.0932 1.178 1.208 1.1642 1.0551 1.0123 1.0301 1.0311
2710.214 0.9113 0.8256 0.929 0.9926 0.9732 0.8776 0.9086 0.9394 0.8456 0.826
2729.504 0.8625 0.9751 1.1102 1.0893 1.0767 1.089 1.0387 1.0206 1.0533 1.1371
2748.794 1.1467 1.228 1.198 1.0755 1.0983 1.198 1.308 1.238 1.178 1.218
2768.083 1.218 1.168 1.278 1.418 1.468 1.528 1.428 1.348 1.408 1.438
2787.373 1.518 1.518 1.488 1.538 1.598 1.578 1.518 1.548 1.608 1.628
2806.663 1.728 1.778 1.718 1.818 1.908 1.988 2.088 2.088 2.168 2.368
2825.953 2.648 2.758 2.888 3.218 3.558 3.938 4.458 5.088 5.668 6.388
2845.242 7.328 8.418 9.598 11.018 12.518 13.978 15.398 16.798 18.248 19.658
2864.532 20.968 21.958 22.498 22.948 23.338 23.628 23.908 23.968 23.848 23.538
2883.822 23.138 23.098 23.138 22.968 22.998 23.018 22.888 22.828 22.748 22.738
2903.112 22.968 23.368 23.568 23.548 23.478 23.838 24.698 25.968 27.448 28.618
2922.401 29.978 32.198 35.288 39.028 43.088 47.238 51.218 54.568 57.148 59.108
2941.691 61.538 65.138 67.968 66.728 61.898 56.628 51.928 47.358 42.468 37.178
2960.981 31.648 26.168 21.068 16.708 13.018 9.928 7.568 5.728 4.538 3.588
2980.271 2.788 2.358 1.918 1.578 1.328 1.138 1.0353 0.9758 0.9642 0.8172
2999.561 0.67 0.768 0.8312 0.7224 0.6596 0.6157 0.5887 0.4853 0.4091 0.3534
3018.850 0.3077 0.367 0.4316 0.498 0.4992 0.4345 0.4156 0.3233 0.20091 0.2686
3038.140 0.3009 0.20624 0.2933 0.4399 0.4266 0.2855 0.2858 0.4665 0.3986 0.2961
3057.430 0.293 0.26449 0.2703 0.3138 0.3458 0.3649 0.3293 0.2908 0.3554 0.4936
3076.720 0.4736 0.2702 0.4052 0.5609 0.4705 0.3858 0.3425 0.3592 0.24759 0.20493
3096.009 0.3014 0.3237 0.3796 0.3273 0.23485 0.24517 0.4052 0.4805 0.4888 0.4495
3115.299 0.3794 0.3034 0.21292 0.2862 0.3033 0.294 0.2806 0.3391 0.3813 0.331
3134.589 0.3612 0.3178 0.19838 0.16039 0.1552 0.176246 0.21426 0.21849 0.1435 0.1514
3153.879 0.0868 0.1482 0.26637 0.2948 0.24103 0.065 0.1016 0.1013 0.1146 0.1188
3173.169 0.176745 0.25531 0.2828 0.3319 0.2762 0.3118 0.2728 0.18163 0.1189 0.0996
3192.458 0.1323 0.087 0 0.0829 0.20035 0.19344 0.24472 0.23779 0.18353 0.23989
3211.748 0.2258 0.24749 0.3236 0.2803 0.26475 0.26494 0.19568 0.2704 0.3155 0.24058
3231.038 0.3201 0.3019 0.22304 0.19323 0.3189 0.3929 0.2785 0.2726 0.4654 0.5499
3250.328 0.346 0.24089 0.3375 0.3035 0.314 0.4624 0.3915 0.3778 0.4508 0.3158
3269.617 0.20305 0.013 0.03 0.3729 0.3242 0.16009 0.1463 0.1485 0.2752 0.24282
3288.907 0.18375 0.3261 0.4532 0.5041 0.3562 0.3953 0.5138 0.3287 0.2916 0.2682
3308.197 0.2062 0.3099 0.26788 0.3226 0.3975 0.24387 0.2873 0.3143 0.25703 0.3469
3327.487 0.26045 0.19541 0.3828 0.4078 0.2934 0.20174 0.1307 0.3207 0.4244 0.2835
3346.777 0.20462 0.2889 0.25991 0.2896 0.534 0.3519 0.1222 0.2739 0.3659 0.4669
3366.066 0.3848 0.2754 0.3328 0.3083 0.3148 0.3093 0.3304 0.3094 0.3847 0.3819
3385.356 0.3294 0.4258 0.3558 0.23992 0.26134 0.473 0.45 0.369 0.4087 0.22598
3404.646 0.18683 0.3087 0.20536 0.18769 0.3211 0.3298 0.2909 0.24062 0.2689 0.2839
3423.936 0.20818 0.3345 0.4901 0.4665 0.4606 0.5536 0.4439 0.21684 0.23008 0.257
3443.225 0.3158 0.4121 0.3669 0.3975 0.6106 0.8041 0.7088 0.4293 0.3498 0.309
3462.515 0.3553 0.3698 0.5221 0.5997 0.6374 0.6837 0.5346 0.5108 0.491 0.6062
3481.805 0.5901 0.6108 0.593 0.4041 0.3755 0.3855 0.4463 0.3789 0.4351 0.5221
3501.095 0.4598 0.4347 0.427 0.5558 0.5842 0.5167 0.5715 0.5974 0.6612 0.6228
3520.385 0.5859 0.6713 0.6456 0.7543 0.7694 0.5615 0.5461 0.6959 0.7196 0.7763
3539.674 0.6822 0.5951 0.7004 0.8122 0.8373 0.7363 0.802 0.803 0.8125 0.9316
3558.964 0.957 0.9612 0.9929 1.112 1.178 1.278 1.318 1.308 1.468 1.668
3578.254 1.868 2.008 2.118 2.198 2.438 2.688 3.118 3.448 3.578 4.048
3597.544 4.398 4.538 4.928 5.608 6.358 6.668 6.798 7.048 7.298 7.558
3616.833 7.878 8.108 8.018 8.008 7.948 7.688 7.468 7.408 7.438 7.168
3636.123 6.788 6.618 6.198 6.018 6.018 5.898 5.818 5.498 5.188 5.058
3655.413 5.098 4.928 4.568 4.558 4.558 4.118 3.868 3.708 3.408 3.208
3674.703 2.928 2.658 2.478 2.278 2.028 1.818 1.748 1.918 1.878 1.348
3693.993 1.0949 1.1559 0.9965 0.9769 1.0719 0.9029 0.9574 1.0093 0.9574 0.9345
3713.282 0.8084 0.7577 0.6799 0.6913 0.6703 0.5869 0.7883 0.9061 0.7174 0.6076
3732.572 0.5802 0.5864 0.7161 0.8453 0.7656 0.6425 0.6419 0.7308 0.8135 0.8199
3751.862 0.7154 0.6178 0.519 0.4022 0.6225 0.6966 0.6068 0.5894 0.4546 0.6094
3771.152 0.7276 0.601 0.5787 0.5764 0.5594 0.5293 0.6448 0.6141 0.4532 0.3029
3790.441 0.25903 0.4714 0.5838 0.501 0.5672 0.5439 0.5026 0.6674 0.5591 0.4487
3809.731 0.3933 0.5164 0.7505 0.6653 0.4915 0.5737 0.4942 0.3668 0.5347 0.4891
3829.021 0.4944 0.6044 0.6047 0.7298 0.7705 0.6393 0.42 0.3078 0.3444 0.4422
3848.311 0.4128 0.3252 0.488 0.6483 0.67 0.7204 0.6954 0.6033 0.5454 0.5357
3867.601 0.5279 0.5624 0.6351 0.6177 0.5993 0.4501 0.4484 0.5067 0.4517 0.4689
3886.890 0.3786 0.3048 0.4179 0.4378 0.4247 0.4156 0.25827 0.3184 0.4702 0.5113
3906.180 0.3501 0.26017 0.3049 0.3064 0.2519 0.17974 0.2691 0.4723 0.4968 0.4589
3925.470 0.5151 0.4513 0.4584 0.346 0.2955 0.3691 0.3858 0.3985 0.3468 0.3889
3944.760 0.4397 0.352 0.19538 0.17979 0.3019 0.394 0.3529 0.23553 0.1548 0.3235
3964.049 0.4945 0.4921 0.5224 0.4216 0.3142 0.3444 0.32 0.25511 0.168697 0.171851
3983.339 0.176794 0.23973 0.4218 0.3811 0.2951 0.5155 0.712 0.7111 0.6086 0.2844
##END=
