##TITLE=2-Carbomethoxyphenyl isocyanate
##JCAMP-DX=4.24
##DATA TYPE=INFRARED SPECTRUM
##ORIGIN=EPA-IR VAPOR PHASE LIBRARY
##OWNER=SRD/NIST
Collection (C) 2018 copyright by the U.S. Secretary of Commerce
on behalf of the United States of America. All rights reserved.
##CAS REGISTRY NO=1793-07-3
##MOLFORM=C 9 H 7 N O 3
##$NIST SOURCE=MSDC-IR
##STATE=gas
##XUNITS=1/CM
##YUNITS=ABSORBANCE
##XFACTOR=1.
##YFACTOR=0.001
##DELTAX=3.85796
##FIRSTX=501.5
##LASTX=4000.7
##FIRSTY=0.5347
##MAXX=4000.7
##MINX=501.534
##MAXY=0.040074
##MINY=0
##NPOINTS=908
##XYDATA=(X++(Y..Y))
501.534 0.5347 0.6103 0.6923 0.7436 0.6929 0.645 0.5541 0.5274 0.7214 0.8371
540.114 0.7611 0.7546 0.857 0.9167 0.8693 0.8319 0.9217 1.005 1.0304 1.0709
578.693 1.1256 1.294 1.444 1.534 1.744 1.854 1.744 1.534 1.324 1.174
617.273 1.1179 1.022 0.942 1.013 0.9924 0.973 0.988 0.964 0.9182 0.8486
655.852 0.8877 0.9025 0.7822 0.6443 0.6028 0.6534 0.6978 0.7206 0.8593 1.0595
694.432 1.1621 1.214 1.194 1.0803 0.9289 0.8136 0.7589 0.7056 0.6859 0.7622
733.011 0.9904 1.444 2.204 3.124 4.344 5.724 5.574 4.264 3.234 2.274
771.591 1.534 1.1308 0.9622 0.8242 0.7251 0.6663 0.62 0.6686 0.6921 0.6497
810.170 0.6172 0.688 0.7945 0.8101 0.8673 0.9178 0.8519 0.7521 0.614 0.4684
848.750 0.4374 0.4743 0.4861 0.4754 0.4698 0.4622 0.4696 0.4506 0.4263 0.3951
887.330 0.3935 0.4293 0.3789 0.3483 0.3829 0.3741 0.3498 0.3602 0.4086 0.4455
925.909 0.4165 0.4098 0.4289 0.4375 0.5099 0.5771 0.6504 0.767 0.833 0.8722
964.489 0.8641 0.7863 0.6816 0.5629 0.4665 0.4069 0.4023 0.4261 0.4351 0.4551
1003.068 0.4629 0.4907 0.571 0.5714 0.6267 0.7756 0.9658 1.334 1.564 1.644
1041.648 1.644 1.524 1.434 1.574 1.924 2.624 3.614 4.624 5.284 5.174
1080.227 4.424 3.344 2.424 1.944 1.884 2.044 2.384 2.914 3.584 4.304
1118.807 4.864 5.254 5.284 4.854 4.304 3.804 3.414 3.124 2.884 2.794
1157.387 2.714 2.574 2.454 2.294 2.094 1.904 1.864 1.914 2.004 2.084
1195.966 2.034 1.964 1.864 1.814 1.884 1.944 2.074 2.334 2.684 3.194
1234.546 4.044 5.314 6.764 8.004 8.804 8.884 8.074 6.934 6.034 5.764
1273.125 6.204 7.224 8.514 9.864 10.874 11.074 10.184 8.324 6.144 4.314
1311.705 3.054 2.264 1.774 1.444 1.204 1.0414 0.9169 0.8296 0.7782 0.7408
1350.284 0.7117 0.6859 0.6647 0.6595 0.6635 0.6431 0.6373 0.6415 0.6331 0.6255
1388.864 0.6273 0.62 0.6195 0.6362 0.6686 0.7433 0.8601 1.0266 1.274 1.594
1427.443 2.024 2.534 2.874 2.894 2.634 2.124 1.634 1.454 1.484 1.544
1466.023 1.554 1.504 1.384 1.264 1.214 1.234 1.314 1.464 1.674 1.934
1504.603 2.244 2.634 3.014 3.294 3.374 3.224 2.884 2.434 1.974 1.574
1543.182 1.284 1.1094 1.0304 1.0366 1.0967 1.254 1.464 1.664 1.824 1.954
1581.762 2.064 2.234 2.544 3.024 3.504 3.714 3.534 3.054 2.424 1.814
1620.341 1.354 1.0692 0.9157 0.8168 0.7283 0.6522 0.5941 0.5789 0.5713 0.569
1658.921 0.5674 0.5639 0.575 0.5911 0.6141 0.6408 0.6859 0.7579 0.8553 0.9972
1697.500 1.204 1.414 1.644 1.914 2.234 2.684 3.334 4.294 5.754 7.734
1736.080 9.774 10.974 11.154 10.174 8.044 5.854 4.334 3.474 3.014 2.664
1774.659 2.274 1.854 1.474 1.164 0.9501 0.783 0.6907 0.6421 0.5949 0.5631
1813.239 0.5363 0.5207 0.5015 0.4679 0.4375 0.4164 0.399 0.3925 0.3945 0.3932
1851.819 0.3838 0.3637 0.3466 0.3508 0.3541 0.3441 0.3282 0.3326 0.37 0.3927
1890.398 0.3986 0.4164 0.4305 0.4186 0.4155 0.4374 0.4301 0.4512 0.4907 0.4864
1928.978 0.4884 0.4798 0.4564 0.4476 0.4407 0.4349 0.4397 0.4339 0.4173 0.3953
1967.557 0.3513 0.32 0.3122 0.3158 0.3095 0.3062 0.3066 0.2928 0.299 0.316
2006.137 0.3241 0.3073 0.2932 0.3201 0.3485 0.3565 0.353 0.349 0.3623 0.3659
2044.716 0.3489 0.3479 0.3747 0.395 0.3902 0.4011 0.4415 0.4669 0.487 0.5134
2083.296 0.533 0.5485 0.5381 0.5398 0.5496 0.5419 0.5628 0.6105 0.6479 0.6771
2121.875 0.7096 0.7459 0.7905 0.8272 0.8454 0.876 0.9204 0.9789 1.0494 1.1229
2160.455 1.224 1.324 1.434 1.544 1.684 1.844 1.974 2.104 2.244 2.384
2199.035 2.544 2.754 3.004 3.304 3.624 3.994 4.464 4.974 5.524 6.174
2237.614 7.034 8.204 9.844 12.144 15.334 19.504 24.444 29.614 34.244 37.674
2276.194 39.594 40.074 39.454 37.964 35.634 32.424 28.444 24.064 19.684 15.764
2314.773 12.514 9.964 8.094 6.754 5.774 5.024 4.454 3.994 3.614 3.314
2353.353 3.074 2.864 2.724 2.604 2.514 2.434 2.344 2.254 2.154 2.014
2391.932 1.914 1.784 1.614 1.464 1.304 1.184 1.0523 0.9403 0.851 0.7765
2430.512 0.7223 0.6579 0.6085 0.5794 0.5261 0.4697 0.4389 0.4141 0.3822 0.3474
2469.092 0.3314 0.3308 0.3257 0.3163 0.3191 0.3213 0.2994 0.2818 0.2822 0.2931
2507.671 0.2822 0.24695 0.2332 0.21511 0.2187 0.24475 0.24326 0.22379 0.21208 0.22025
2546.251 0.23404 0.25255 0.25404 0.22343 0.21757 0.23497 0.2678 0.275 0.20969 0.1802
2584.830 0.19767 0.22565 0.23148 0.2372 0.2563 0.24411 0.22037 0.19421 0.19019 0.1943
2623.410 0.19347 0.18424 0.17886 0.18713 0.1883 0.19461 0.1924 0.17463 0.171462 0.17065
2661.989 0.167775 0.1533 0.1374 0.1421 0.1464 0.167302 0.1629 0.1393 0.1383 0.1441
2700.569 0.1506 0.16576 0.16087 0.16269 0.170367 0.168817 0.18305 0.182 0.17882 0.165304
2739.148 0.15651 0.167487 0.163702 0.145 0.15646 0.1485 0.15582 0.18336 0.164452 0.1446
2777.728 0.1486 0.15777 0.15647 0.14 0.1479 0.1364 0.1488 0.17869 0.17588 0.149
2816.308 0.1014 0.0986 0.1042 0.169549 0.21724 0.24097 0.3121 0.357 0.4021 0.4567
2854.887 0.4272 0.3516 0.3161 0.2735 0.26364 0.279 0.2649 0.2707 0.284 0.3034
2893.467 0.3596 0.4126 0.4231 0.4269 0.4213 0.435 0.4456 0.4503 0.4625 0.4437
2932.046 0.4259 0.4464 0.5054 0.6028 0.7924 1.131 1.574 1.894 2.004 1.874
2970.626 1.484 0.9904 0.6594 0.5277 0.4628 0.4613 0.4891 0.5324 0.5955 0.6053
3009.205 0.587 0.5915 0.6217 0.6516 0.6557 0.6485 0.6511 0.6416 0.6214 0.634
3047.785 0.6643 0.6705 0.7365 0.809 0.8617 0.9119 0.9949 1.1218 1.184 1.164
3086.364 1.0356 0.8104 0.5982 0.4645 0.4011 0.3055 0.2861 0.241 0.18829 0.23159
3124.944 0.2057 0.17852 0.1627 0.1558 0.17908 0.139 0.094 0.0768 0.04 0.038
3163.524 0.031 0.054 0.1016 0.1128 0.1163 0.0914 0.096 0.062 0.047 0.0715
3202.103 0.057 0.0742 0.06 0.028 0.037 0.0812 0.1012 0.0729 0.012 0.021
3240.683 0.037 0.028 0.0644 0.0914 0.1161 0.066 0 0.007 0.036 0.042
3279.262 0.046 0.052 0.055 0.0866 0.1039 0.1068 0.0808 0.045 0.0874 0.1002
3317.842 0.0981 0.0907 0.0726 0.1179 0.1096 0.1093 0.15466 0.1482 0.1381 0.142
3356.421 0.149 0.168431 0.15894 0.20234 0.25346 0.19508 0.1686 0.1742 0.171875 0.21165
3395.001 0.3065 0.3257 0.2351 0.22808 0.26328 0.2819 0.3076 0.2831 0.2717 0.295
3433.580 0.2992 0.3042 0.2961 0.2949 0.3177 0.286 0.26351 0.2893 0.26033 0.2482
3472.160 0.23995 0.17986 0.16185 0.17664 0.18995 0.15956 0.1133 0.1416 0.173189 0.15714
3510.740 0.1057 0.0889 0.1187 0.1414 0.17435 0.18343 0.163967 0.1224 0.1013 0.0715
3549.319 0.05 0.0866 0.0672 0.064 0.1112 0.1423 0.164503 0.15819 0.1085 0.0843
3587.899 0.0889 0.1121 0.1033 0.1078 0.18059 0.16213 0.1356 0.1288 0.1398 0.1401
3626.478 0.1369 0.19461 0.17508 0.15572 0.17422 0.127 0.139 0.18813 0.1439 0.1528
3665.058 0.20374 0.18065 0.1473 0.15509 0.19108 0.22591 0.268 0.3109 0.2963 0.271
3703.637 0.2699 0.25865 0.22506 0.20365 0.20019 0.189 0.1805 0.2036 0.2365 0.23446
3742.217 0.21037 0.22815 0.22118 0.168354 0.19255 0.166634 0.1251 0.19987 0.22038 0.20214
3780.797 0.21714 0.23709 0.2688 0.2687 0.23504 0.19181 0.20337 0.21679 0.20504 0.172053
3819.376 0.146 0.17631 0.1528 0.1162 0.1331 0.123 0.1163 0.1196 0.077 0.0768
3857.956 0.1196 0.0959 0.0663 0.0751 0.0758 0.0653 0.0744 0.0678 0.0756 0.0759
3896.535 0.049 0.066 0.0924 0.0831 0.087 0.0714 0.019 0.041 0.046 0.025
3935.115 0.052 0.0692 0.084 0.0685 0.0726 0.0643 0.013 0.0713 0.098 0.055
3973.694 0.0682 0.059 0.06 0.0925 0.046 0.034 0.063 0.1007
##END=
