##TITLE=Decylcyclopentane
##JCAMP-DX=4.24
##DATA TYPE=INFRARED SPECTRUM
##ORIGIN=NIST Mass Spectrometry Data Center
##OWNER=NIST Standard Reference Data Program
Collection (C) 2018 copyright by the U.S. Secretary of Commerce
on behalf of the United States of America. All rights reserved.
##CAS REGISTRY NO=1795-21-7
##MOLFORM=C 15 H 30
##$NIST SOURCE=MSDC-IR
##SPECTROMETER/DATA SYSTEM=HP-GC/MS/IRD
##STATE=gas
##XUNITS=1/CM
##YUNITS=ABSORBANCE
##XFACTOR=1.0
##YFACTOR=0.000007300
##DELTAX=4.0
##FIRSTX=550.0
##LASTX=3846.0
##FIRSTY=0.000124
##MAXX=3846
##MINX=550
##MAXY=0.073
##MINY=0
##NPOINTS=825
##XYDATA=(X++(Y..Y))
550.0 17 26 23 25 27 18 12 21 16 15
590.0 26 24 28 31 29 26 22 23 23 23
630.0 25 24 32 33 26 19 8 7 17 28
670.0 26 24 27 34 44 45 51 62 67 83
710.0 101 119 126 123 125 118 107 106 102 90
750.0 85 79 72 72 70 64 63 56 47 47
790.0 49 52 54 48 45 43 42 43 41 47
830.0 45 37 38 43 45 47 48 44 43 45
870.0 46 52 57 60 69 77 80 76 73 69
910.0 65 65 66 67 66 64 62 65 62 55
950.0 51 50 48 43 39 38 41 43 38 31
990.0 30 30 29 31 34 36 34 32 30 32
1030.0 35 31 31 34 31 29 33 37 36 32
1070.0 32 36 38 37 35 30 28 27 23 22
1110.0 25 28 27 27 25 27 28 27 28 33
1150.0 33 33 37 41 45 45 46 48 47 49
1190.0 54 51 51 55 57 61 62 59 60 63
1230.0 64 68 71 75 77 77 83 86 86 88
1270.0 93 99 104 111 119 126 135 145 152 157
1310.0 158 153 147 145 151 164 179 200 220 238
1350.0 251 253 245 230 218 203 186 174 171 161
1390.0 138 120 110 107 107 109 115 123 133 155
1430.0 186 227 290 371 462 555 637 696 700 647
1470.0 555 454 367 291 227 180 143 120 100 84
1510.0 71 62 55 50 47 42 37 35 31 27
1550.0 27 28 27 23 22 22 22 23 19 15
1590.0 14 15 14 15 15 12 14 15 13 12
1630.0 11 12 12 11 12 11 11 9 7 9
1670.0 9 8 7 7 7 6 7 9 8 6
1710.0 5 6 7 7 6 7 7 6 6 7
1750.0 5 5 6 3 2 4 4 3 5 3
1790.0 2 2 2 3 2 3 3 2 2 3
1830.0 2 2 3 2 1 2 3 3 4 5
1870.0 4 3 4 3 4 4 2 0 1 3
1910.0 2 1 2 1 0 1 2 2 2 1
1950.0 1 3 1 0 0 0 1 1 0 0
1990.0 1 0 1 2 1 4 8 7 8 13
2030.0 13 11 10 9 8 7 8 10 10 8
2070.0 7 9 8 7 9 11 10 8 6 4
2110.0 5 5 6 6 4 4 3 4 6 8
2150.0 8 9 10 9 8 8 9 11 10 12
2190.0 13 11 10 8 10 9 7 8 9 8
2230.0 8 9 8 8 10 9 8 7 10 10
2270.0 10 12 11 12 13 12 14 15 14 14
2310.0 14 14 15 16 15 15 18 19 17 17
2350.0 16 16 15 13 13 12 12 14 13 12
2390.0 12 13 13 10 10 13 13 12 14 14
2430.0 12 11 14 16 14 14 13 13 14 13
2470.0 12 12 13 14 14 14 15 17 17 17
2510.0 19 22 23 24 24 27 29 30 28 30
2550.0 32 30 34 36 37 37 39 42 46 50
2590.0 52 52 55 57 56 56 58 61 65 67
2630.0 68 69 71 72 75 79 81 85 86 91
2670.0 95 96 96 99 100 97 97 97 93 93
2710.0 92 93 97 100 102 107 110 113 118 121
2750.0 124 129 134 139 144 151 162 172 186 198
2790.0 218 240 261 289 316 348 388 436 493 561
2830.0 650 769 939 1190 1561 2089 2754 3414 3856 3963
2870.0 3813 3583 3375 3187 2987 2850 2859 3041 3388 3877
2910.0 4491 5262 6292 7632 9038 9958 10000 9306 8301 7362
2950.0 6719 6387 6145 5707 5038 4245 3400 2623 2019 1583
2990.0 1270 1039 864 728 622 538 465 408 360 320
3030.0 289 261 236 216 200 183 170 158 145 135
3070.0 129 123 115 106 104 102 94 88 83 78
3110.0 75 73 71 68 67 64 59 57 55 51
3150.0 51 54 49 47 46 44 41 40 39 38
3190.0 37 36 36 33 32 30 28 23 23 24
3230.0 22 19 18 19 18 15 15 17 18 19
3270.0 19 17 16 18 17 15 16 16 17 18
3310.0 14 12 15 14 15 18 17 15 16 16
3350.0 15 12 11 17 16 15 14 10 9 11
3390.0 12 13 13 12 11 13 18 18 13 13
3430.0 17 14 8 10 11 9 7 9 9 9
3470.0 10 10 10 11 11 11 13 12 11 11
3510.0 10 11 11 8 8 11 12 10 8 9
3550.0 10 8 7 12 14 12 12 14 16 15
3590.0 17 19 15 13 17 19 17 16 16 14
3630.0 18 20 20 24 22 24 22 24 25 22
3670.0 24 25 25 26 26 27 25 23 23 24
3710.0 25 26 26 25 26 25 26 27 27 28
3750.0 26 22 21 26 27 25 26 28 31 31
3790.0 30 30 31 31 34 31 27 32 33 33
3830.0 30 28 33 34 32
##END=
