##TITLE=Decylcyclohexane
##JCAMP-DX=4.24
##DATA TYPE=INFRARED SPECTRUM
##ORIGIN=NIST Mass Spectrometry Data Center
##OWNER=NIST Standard Reference Data Program
Collection (C) 2018 copyright by the U.S. Secretary of Commerce
on behalf of the United States of America. All rights reserved.
##CAS REGISTRY NO=1795-16-0
##MOLFORM=C 16 H 32
##$NIST SOURCE=MSDC-IR
##SPECTROMETER/DATA SYSTEM=HP-GC/MS/IRD
##STATE=gas
##XUNITS=1/CM
##YUNITS=ABSORBANCE
##XFACTOR=1.0
##YFACTOR=0.000013800
##DELTAX=4.0
##FIRSTX=550.0
##LASTX=3846.0
##FIRSTY=0.000028
##MAXX=3846
##MINX=550
##MAXY=0.138
##MINY=0
##NPOINTS=825
##XYDATA=(X++(Y..Y))
550.0 2 5 2 2 7 2 0 2 3 3
590.0 2 3 3 2 7 10 12 10 3 3
630.0 2 1 2 2 4 7 5 3 3 6
670.0 7 7 8 9 10 18 25 29 40 51
710.0 66 68 70 78 76 68 60 56 50 47
750.0 44 40 39 35 29 27 26 25 22 21
790.0 19 19 20 20 19 16 20 19 16 20
830.0 26 37 47 50 43 31 26 26 28 31
870.0 36 39 45 52 58 60 54 49 44 41
910.0 36 33 29 27 27 25 25 27 27 25
950.0 24 25 29 34 35 35 33 27 23 22
990.0 20 17 16 16 19 21 23 27 28 28
1030.0 28 30 28 26 24 26 26 24 25 26
1070.0 28 26 24 26 29 27 25 23 22 22
1110.0 21 21 19 18 15 13 13 15 18 18
1150.0 16 15 17 20 19 20 22 21 20 20
1190.0 23 25 25 26 27 26 26 27 29 30
1230.0 31 35 39 43 47 55 69 83 98 101
1270.0 97 89 84 82 79 79 80 83 87 90
1310.0 92 90 89 89 92 104 119 137 163 184
1350.0 192 183 171 159 152 142 131 123 117 106
1390.0 90 77 71 70 68 69 75 82 93 111
1430.0 141 186 260 363 489 604 669 664 610 525
1470.0 423 315 228 166 124 97 76 61 52 47
1510.0 41 34 31 28 25 23 21 21 20 17
1550.0 16 15 16 15 14 14 13 11 11 9
1590.0 8 8 9 9 8 9 9 8 6 7
1630.0 7 6 5 5 6 7 6 5 6 5
1670.0 6 5 4 5 4 5 6 8 6 5
1710.0 4 4 5 5 4 3 4 3 4 3
1750.0 4 5 4 4 5 4 4 4 3 4
1790.0 5 2 3 4 3 3 4 4 2 1
1830.0 2 1 2 3 3 2 1 2 2 2
1870.0 3 2 2 3 4 4 3 3 2 1
1910.0 2 3 3 3 1 0 2 1 1 2
1950.0 2 3 3 2 1 1 2 1 2 3
1990.0 4 3 2 3 4 5 5 7 6 6
2030.0 7 8 8 7 7 5 5 6 5 4
2070.0 4 3 2 3 3 2 3 2 3 1
2110.0 1 2 3 3 4 2 3 6 6 5
2150.0 4 4 5 5 5 6 6 7 8 6
2190.0 6 7 6 5 4 5 6 5 4 5
2230.0 5 4 5 4 4 6 4 3 4 4
2270.0 3 5 5 3 4 3 4 4 3 4
2310.0 3 2 4 5 5 4 5 4 5 6
2350.0 5 5 6 5 4 5 4 4 5 4
2390.0 3 4 4 3 4 5 6 4 3 4
2430.0 4 4 3 1 2 0 0 2 1 2
2470.0 3 3 4 5 7 6 5 6 7 8
2510.0 7 8 11 12 12 13 14 13 14 15
2550.0 15 18 17 19 20 22 25 27 29 31
2590.0 34 37 40 43 45 45 46 48 50 51
2630.0 53 56 59 66 71 77 84 89 93 95
2670.0 98 95 92 88 86 84 79 77 75 73
2710.0 72 72 73 72 71 71 73 75 76 77
2750.0 79 83 87 89 94 104 113 124 138 155
2790.0 174 193 209 223 239 258 285 321 365 423
2830.0 499 612 788 1056 1461 2024 2713 3378 3672 3414
2870.0 2871 2377 2053 1881 1814 1840 1983 2260 2661 3172
2910.0 3807 4599 5639 7071 8757 9976 10000 8872 7128 5300
2950.0 3820 2864 2337 2060 1870 1639 1328 1012 772 608
2990.0 497 416 354 303 264 234 210 191 174 157
3030.0 142 130 123 116 106 97 90 86 80 74
3070.0 69 66 62 61 58 55 53 51 47 42
3110.0 42 41 39 38 39 38 37 38 40 40
3150.0 39 35 31 31 30 26 24 23 22 22
3190.0 20 19 18 16 13 16 16 13 13 15
3230.0 15 14 13 13 12 11 10 9 8 9
3270.0 8 6 4 5 5 5 7 6 4 5
3310.0 7 5 6 7 7 6 7 9 12 11
3350.0 10 12 11 11 11 11 13 13 9 9
3390.0 10 9 10 11 9 7 6 8 5 6
3430.0 6 6 5 5 6 7 6 3 4 3
3470.0 4 6 4 5 8 9 7 5 7 8
3510.0 5 3 3 4 1 0 2 3 2 2
3550.0 3 2 0 2 2 2 4 5 6 8
3590.0 8 5 5 7 11 12 12 13 11 13
3630.0 16 13 11 14 15 14 12 12 14 16
3670.0 15 14 13 14 13 12 10 10 12 14
3710.0 14 13 14 15 14 16 16 15 16 19
3750.0 18 19 18 18 19 18 20 22 20 20
3790.0 20 17 17 18 20 20 18 18 21 18
3830.0 15 17 18 19 20
##END=
