##TITLE=cis,cis,trans-1,3,5-trimethylcyclohexane
##JCAMP-DX=4.24
##DATA TYPE=INFRARED SPECTRUM
##ORIGIN=NIST Mass Spectrometry Data Center
##OWNER=NIST Standard Reference Data Program
Collection (C) 2018 copyright by the U.S. Secretary of Commerce
on behalf of the United States of America. All rights reserved.
##CAS REGISTRY NO=1795-26-2
##MOLFORM=C 9 H 18
##$NIST SOURCE=MSDC-IR
##SPECTROMETER/DATA SYSTEM=HP-GC/MS/IRD
##STATE=gas
##XUNITS=1/CM
##YUNITS=ABSORBANCE
##XFACTOR=1.0
##YFACTOR=0.000001000
##DELTAX=4.0
##FIRSTX=550.0
##LASTX=3846.0
##FIRSTY=0.000563
##MAXX=3846
##MINX=550
##MAXY=0.01
##MINY=0
##NPOINTS=825
##XYDATA=(X++(Y..Y))
550.0 563 501 431 426 442 492 462 418 470 407
590.0 298 302 264 195 241 333 316 216 206 245
630.0 248 288 333 281 227 248 290 285 222 146
670.0 121 141 171 163 105 68 122 177 130 92
710.0 114 84 53 47 55 120 112 94 98 78
750.0 62 88 103 48 32 77 105 135 96 110
790.0 116 94 113 105 86 74 113 120 88 72
830.0 84 81 138 170 175 181 163 155 126 110
870.0 77 64 122 132 119 104 86 61 18 24
910.0 72 80 61 82 126 158 179 130 119 125
950.0 128 143 104 84 86 80 95 129 108 88
990.0 104 123 119 90 89 101 115 148 152 128
1030.0 139 164 133 110 129 154 160 159 159 136
1070.0 147 157 166 177 170 139 125 145 158 155
1110.0 171 186 168 169 178 148 111 101 117 114
1150.0 117 158 185 226 224 199 194 159 127 105
1190.0 75 83 96 104 91 86 120 134 113 106
1230.0 94 94 145 160 171 202 211 197 158 123
1270.0 126 121 95 80 94 105 91 76 73 86
1310.0 114 143 178 217 246 280 295 309 317 310
1350.0 316 329 338 374 460 571 683 786 868 827
1390.0 680 543 381 263 212 176 171 152 159 233
1430.0 317 396 499 646 819 986 1078 1219 1328 1207
1470.0 1003 836 629 446 338 258 189 152 114 84
1510.0 78 84 82 75 69 74 64 52 64 86
1550.0 84 63 61 79 70 63 63 55 58 77
1590.0 95 87 89 87 93 98 80 65 74 76
1630.0 76 70 66 64 44 28 30 41 61 63
1670.0 51 50 41 31 36 36 20 7 7 24
1710.0 34 25 26 22 20 22 26 38 36 18
1750.0 21 38 36 26 29 50 40 20 30 32
1790.0 30 33 33 23 22 24 28 28 36 35
1830.0 22 28 34 26 37 41 32 39 39 32
1870.0 24 30 38 19 28 51 49 53 56 67
1910.0 68 53 37 43 44 38 44 51 55 43
1950.0 41 43 41 45 38 36 52 53 40 48
1990.0 41 31 33 25 13 28 55 65 57 51
2030.0 56 48 29 30 39 42 46 33 29 30
2070.0 26 34 38 38 47 52 36 41 63 52
2110.0 41 46 49 52 44 34 42 39 39 40
2150.0 29 41 54 54 55 63 54 46 51 48
2190.0 40 38 41 47 50 41 37 28 30 37
2230.0 46 52 55 65 60 53 46 39 21 32
2270.0 47 31 32 38 44 53 54 59 53 30
2310.0 38 59 61 49 44 45 41 47 46 29
2350.0 19 22 29 38 34 37 45 52 55 32
2390.0 39 55 49 46 49 66 72 62 43 55
2430.0 62 61 59 59 67 50 48 57 46 40
2470.0 58 70 63 46 33 31 34 22 13 42
2510.0 70 66 50 36 37 42 57 68 55 61
2550.0 61 43 55 79 70 75 81 84 96 95
2590.0 105 125 133 131 112 107 105 111 138 132
2630.0 121 138 147 145 145 135 115 117 132 117
2670.0 99 102 98 92 96 107 132 137 134 152
2710.0 158 163 176 188 186 203 223 225 226 197
2750.0 193 204 197 183 193 202 214 235 233 243
2790.0 285 304 307 326 350 407 489 560 645 809
2830.0 1071 1432 1844 2180 2419 2501 2324 2155 2123 2248
2870.0 2617 3119 3693 4311 4883 5387 6125 7080 7942 8760
2910.0 9548 10000 9563 8474 7305 6109 5161 4705 4730 5174
2950.0 6006 7320 7940 7365 6595 5590 4064 2560 1637 1077
2990.0 718 505 405 331 272 250 220 207 194 175
3030.0 192 212 183 167 170 174 209 223 203 176
3070.0 176 180 174 180 184 162 152 163 152 134
3110.0 128 121 110 99 107 109 106 124 121 106
3150.0 117 131 120 114 107 80 84 106 102 99
3190.0 91 87 82 55 65 83 60 41 36 29
3230.0 41 47 47 39 46 56 68 64 45 54
3270.0 65 61 52 66 70 49 19 29 38 50
3310.0 72 86 71 64 73 64 37 55 70 58
3350.0 80 51 0 14 41 38 43 37 43 46
3390.0 37 30 10 14 17 18 41 55 51 54
3430.0 57 69 49 38 59 51 35 56 75 54
3470.0 35 36 23 14 11 26 50 41 30 40
3510.0 40 46 48 47 32 24 16 30 62 56
3550.0 33 28 15 23 52 42 51 49 43 48
3590.0 51 77 78 60 93 108 67 38 50 52
3630.0 36 54 74 49 24 28 31 30 27 32
3670.0 46 51 61 52 45 51 60 73 79 48
3710.0 52 62 61 86 80 68 72 55 36 26
3750.0 31 23 46 50 30 33 47 81 104 91
3790.0 63 48 22 46 70 50 42 37 47 24
3830.0 16 45 44 42 69
##END=
