##TITLE=4-Iodophenylacetic acid
##JCAMP-DX=4.24
##DATA TYPE=INFRARED SPECTRUM
##ORIGIN=EPA-IR VAPOR PHASE LIBRARY
##OWNER=SRD/NIST
Collection (C) 2018 copyright by the U.S. Secretary of Commerce
on behalf of the United States of America. All rights reserved.
##CAS REGISTRY NO=1798-06-7
##MOLFORM=C 8 H 7 I O 2
##$NIST SOURCE=MSDC-IR
##STATE=gas
##XUNITS=1/CM
##YUNITS=ABSORBANCE
##XFACTOR=1.
##YFACTOR=0.001
##DELTAX=1.929
##FIRSTX=549.8
##LASTX=4000.8
##FIRSTY=2.333
##MAXX=4000.75
##MINX=549.766
##MAXY=0.044413
##MINY=0
##NPOINTS=1790
##XYDATA=(X++(Y..Y))
549.766 2.333 2.413 2.413 2.473 2.533 2.583 2.833 3.113 3.143 3.083
569.056 3.333 3.613 4.043 4.443 4.693 5.043 5.723 6.453 6.933 7.683
588.346 8.603 9.393 10.203 11.123 12.493 14.083 15.323 16.393 17.303 17.693
607.636 17.643 17.103 16.283 15.173 14.023 12.843 11.603 10.653 9.903 9.203
626.926 8.513 8.073 7.593 6.993 6.593 6.293 5.933 5.713 5.453 5.093
646.216 4.773 4.533 4.393 4.083 4.003 4.013 3.783 3.643 3.653 3.673
665.506 3.763 3.883 3.633 3.343 3.303 3.453 3.403 3.353 3.543 3.593
684.796 3.683 3.913 4.023 4.053 4.073 4.003 3.843 3.803 3.863 3.833
704.086 3.843 4.013 4.153 4.353 4.653 4.963 5.373 5.713 6.033 6.263
723.376 6.443 6.613 6.653 6.653 6.393 5.953 5.573 5.093 4.523 3.913
742.666 3.303 2.903 2.653 2.393 2.303 2.293 2.143 2.083 2.073 2.073
761.956 2.173 2.213 2.223 2.293 2.413 2.683 3.083 3.423 3.843 4.373
781.246 4.913 5.513 6.103 6.673 7.163 7.513 7.693 7.703 7.513 7.163
800.536 6.593 5.953 5.503 4.963 4.353 3.783 3.223 2.903 2.773 2.613
819.826 2.453 2.303 2.263 2.393 2.613 2.763 2.923 3.153 3.443 3.763
839.116 3.983 3.973 3.893 3.653 3.163 2.813 2.543 2.263 2.083 1.883
858.406 1.793 1.703 1.643 1.683 1.663 1.643 1.623 1.553 1.553 1.663
877.696 1.633 1.523 1.563 1.653 1.623 1.593 1.583 1.563 1.563 1.513
896.986 1.433 1.423 1.453 1.463 1.423 1.413 1.473 1.413 1.403 1.443
916.276 1.433 1.503 1.583 1.583 1.563 1.523 1.583 1.653 1.723 1.783
935.566 1.793 1.723 1.763 1.793 1.693 1.643 1.543 1.573 1.663 1.623
954.856 1.543 1.473 1.463 1.503 1.533 1.503 1.423 1.353 1.303 1.313
974.146 1.343 1.313 1.303 1.313 1.293 1.313 1.433 1.503 1.553 1.763
993.436 2.023 2.383 2.973 3.963 5.733 8.673 12.943 17.263 19.453 19.633
1012.726 18.793 15.533 10.113 5.713 3.483 2.483 1.923 1.623 1.493 1.413
1032.016 1.363 1.363 1.363 1.383 1.493 1.583 1.713 1.943 2.203 2.623
1051.306 3.243 4.173 5.603 7.263 8.683 9.453 9.693 9.493 8.543 7.273
1070.596 6.583 6.563 6.883 7.383 7.933 8.643 9.463 10.293 11.273 12.453
1089.886 13.683 15.063 16.633 18.433 20.513 22.803 25.353 28.233 31.383 34.503
1109.176 37.683 40.733 43.093 44.413 44.223 42.423 39.433 35.663 31.583 27.843
1128.467 24.903 22.603 20.563 18.843 17.413 16.133 14.963 13.883 12.913 12.043
1147.757 11.253 10.463 9.803 9.263 8.793 8.313 7.943 7.643 7.303 7.053
1167.047 6.923 6.783 6.653 6.643 6.593 6.653 6.843 7.003 7.223 7.403
1186.337 7.593 7.843 8.013 8.133 8.133 8.023 7.953 7.933 7.893 7.913
1205.627 8.043 8.103 8.093 8.073 8.113 8.123 7.943 7.743 7.713 7.513
1224.917 7.023 6.623 6.313 6.033 5.733 5.443 5.163 4.973 4.883 4.773
1244.207 4.613 4.393 4.223 4.123 3.993 3.873 3.773 3.653 3.553 3.483
1263.497 3.393 3.293 3.273 3.283 3.273 3.283 3.343 3.383 3.343 3.323
1282.787 3.353 3.363 3.413 3.483 3.603 3.743 3.773 3.823 3.943 4.043
1302.077 4.143 4.223 4.263 4.283 4.283 4.263 4.253 4.283 4.323 4.353
1321.367 4.393 4.493 4.633 4.773 4.913 5.063 5.223 5.403 5.523 5.623
1340.657 5.793 6.003 6.263 6.533 6.793 7.113 7.413 7.673 7.893 7.963
1359.947 7.973 7.903 7.743 7.553 7.273 6.893 6.463 6.023 5.653 5.333
1379.237 5.033 4.823 4.653 4.513 4.373 4.343 4.353 4.333 4.313 4.373
1398.527 4.403 4.413 4.443 4.413 4.353 4.323 4.303 4.273 4.213 4.103
1417.817 4.003 3.973 3.953 3.873 3.863 3.763 3.613 3.503 3.353 3.173
1437.107 3.003 2.973 2.903 2.733 2.533 2.323 2.183 2.083 1.993 1.843
1456.397 1.613 1.613 1.773 1.843 1.923 2.143 2.483 2.933 3.523 4.453
1475.687 5.873 7.813 10.223 13.063 15.753 17.543 17.983 17.103 15.103 12.243
1494.977 8.973 6.193 4.403 3.253 2.483 1.893 1.453 1.2292 1.0588 0.9678
1514.267 0.9036 0.786 0.7532 0.6786 0.615 0.6152 0.5779 0.5922 0.7016 0.7025
1533.557 0.6422 0.728 0.6734 0.5567 0.6442 0.7066 0.7684 0.8507 0.8585 0.8716
1552.847 0.8343 0.7835 0.7373 0.6056 0.6834 0.8227 0.8696 0.9068 0.8912 0.9225
1572.137 1.0059 1.0091 1.0723 1.2859 1.353 1.403 1.543 1.633 1.663 1.703
1591.427 1.733 1.703 1.723 1.663 1.553 1.483 1.403 1.2764 1.155 1.1079
1610.717 1.0912 1.0979 1.0245 0.933 0.985 0.9886 0.9079 0.8906 0.9338 0.8702
1630.007 0.8043 0.8107 0.7537 0.7403 0.8412 0.9365 0.9595 0.8977 0.7571 0.7499
1649.297 0.778 0.619 0.5403 0.664 0.7093 0.6956 0.6949 0.6947 0.7176 0.7105
1668.587 0.6204 0.5895 0.6813 0.7268 0.7732 0.7834 0.805 0.8358 0.8001 0.8835
1687.877 0.9614 1.0173 1.0836 1.096 1.1483 1.2047 1.1502 1.343 1.603 1.693
1707.167 1.883 2.063 2.213 2.373 2.543 2.773 3.133 3.513 3.893 4.283
1726.457 4.673 5.063 5.543 6.083 6.713 7.483 8.283 9.183 10.203 11.353
1745.747 12.603 13.963 15.383 17.053 18.813 20.423 22.153 23.863 25.543 27.293
1765.037 29.013 30.773 32.723 34.713 36.883 39.003 40.843 42.153 42.693 42.483
1784.327 41.553 39.953 37.973 35.743 33.413 31.133 28.883 26.523 24.183 21.903
1803.617 19.753 17.653 15.613 13.713 11.953 10.373 9.023 7.843 6.843 5.983
1822.907 5.203 4.533 4.013 3.573 3.163 2.783 2.483 2.233 2.003 1.773
1842.197 1.563 1.423 1.363 1.303 1.2 1.1305 1.0558 0.9815 0.962 0.9346
1861.487 0.9106 0.8724 0.8368 0.815 0.8195 0.8474 0.8485 0.9026 0.9176 0.8997
1880.777 0.9358 0.9708 0.9896 1.0195 1.0258 1.0381 1.0783 1.0817 1.083 1.0968
1900.067 1.0855 1.0308 0.9752 0.9078 0.8825 0.8505 0.7987 0.7809 0.7285 0.6854
1919.357 0.6531 0.5876 0.5614 0.5603 0.5436 0.5044 0.4956 0.501 0.4798 0.4932
1938.647 0.5164 0.4905 0.4518 0.4578 0.4448 0.4463 0.4773 0.4574 0.4476 0.471
1957.937 0.4775 0.4901 0.5148 0.5123 0.4965 0.4774 0.4689 0.4705 0.469 0.4477
1977.227 0.4543 0.4761 0.4582 0.4706 0.4752 0.4813 0.5147 0.5269 0.4958 0.4767
1996.517 0.5126 0.5153 0.4836 0.4448 0.4424 0.4519 0.4322 0.4019 0.4258 0.4567
2015.807 0.4781 0.4878 0.4567 0.4395 0.4537 0.4515 0.453 0.4671 0.4304 0.3942
2035.097 0.39083 0.415 0.399 0.4073 0.4163 0.4053 0.4234 0.38163 0.35387 0.37343
2054.387 0.35223 0.37355 0.4093 0.41 0.401 0.394 0.4602 0.4752 0.4095 0.38705
2073.677 0.38899 0.4001 0.4061 0.3859 0.37126 0.3786 0.3798 0.34341 0.32205 0.37327
2092.967 0.4329 0.4372 0.4039 0.4217 0.4645 0.4198 0.38579 0.4089 0.39018 0.407
2112.257 0.4459 0.4398 0.4704 0.4922 0.5059 0.5471 0.5826 0.5379 0.5259 0.5582
2131.547 0.518 0.5076 0.4699 0.4139 0.36492 0.34765 0.37736 0.4001 0.38877 0.3587
2150.837 0.35516 0.37484 0.35922 0.34192 0.36063 0.37413 0.3957 0.38387 0.37642 0.3952
2170.127 0.389 0.37416 0.4074 0.4565 0.4432 0.4158 0.4205 0.4343 0.437 0.4408
2189.417 0.4567 0.4797 0.4448 0.4011 0.4075 0.4309 0.471 0.4518 0.38246 0.3983
2208.707 0.4531 0.4457 0.4733 0.538 0.5511 0.5494 0.5419 0.5558 0.5463 0.4923
2227.997 0.5102 0.5194 0.467 0.4395 0.4605 0.4809 0.513 0.5535 0.5456 0.4907
2247.287 0.438 0.4026 0.4352 0.4829 0.447 0.4682 0.4697 0.4155 0.4172 0.4521
2266.577 0.4589 0.4813 0.5294 0.5009 0.5246 0.5442 0.498 0.4919 0.5291 0.5178
2285.868 0.5056 0.5577 0.5633 0.5709 0.5754 0.5668 0.5633 0.5897 0.6046 0.5991
2305.158 0.6116 0.6031 0.6217 0.6588 0.6703 0.7209 0.726 0.67 0.6483 0.5978
2324.448 0.5876 0.6182 0.5816 0.5713 0.6114 0.6065 0.5885 0.5904 0.5911 0.5286
2343.738 0.5315 0.5953 0.5947 0.5879 0.6361 0.6674 0.6827 0.698 0.65 0.6327
2363.028 0.661 0.6998 0.6935 0.6659 0.6484 0.6321 0.6279 0.606 0.6146 0.5927
2382.318 0.516 0.4872 0.4454 0.4302 0.4787 0.4982 0.483 0.4358 0.413 0.4462
2401.608 0.4916 0.4931 0.488 0.464 0.4639 0.4694 0.4513 0.4734 0.4757 0.4595
2420.898 0.4546 0.4797 0.4896 0.4646 0.4779 0.5226 0.4852 0.4616 0.4861 0.4984
2440.188 0.5052 0.4866 0.4748 0.5113 0.4783 0.3996 0.428 0.4755 0.445 0.4347
2459.478 0.5353 0.5499 0.4927 0.5219 0.5834 0.5711 0.5341 0.5192 0.4861 0.4876
2478.768 0.474 0.485 0.527 0.4987 0.4988 0.536 0.5633 0.5387 0.5011 0.5012
2498.058 0.5006 0.487 0.4505 0.4539 0.4994 0.5093 0.4608 0.4584 0.5168 0.4747
2517.348 0.4757 0.4824 0.4666 0.557 0.5689 0.5279 0.4943 0.4886 0.4857 0.485
2536.638 0.4912 0.4869 0.5029 0.5073 0.5148 0.4911 0.5128 0.5492 0.568 0.526
2555.928 0.4762 0.4921 0.4679 0.5029 0.5147 0.498 0.517 0.4857 0.478 0.4653
2575.218 0.4528 0.4478 0.4697 0.5067 0.4625 0.485 0.5754 0.5751 0.5733 0.5808
2594.508 0.5755 0.5625 0.5313 0.5608 0.5784 0.5603 0.5574 0.5582 0.5161 0.5034
2613.798 0.5017 0.4634 0.4942 0.5268 0.4928 0.5023 0.5103 0.4979 0.486 0.5229
2633.088 0.5383 0.5184 0.4671 0.4791 0.5523 0.5563 0.5237 0.4974 0.5156 0.5244
2652.378 0.5716 0.581 0.4989 0.4507 0.5317 0.5363 0.4892 0.5076 0.5347 0.5657
2671.668 0.5763 0.5548 0.4653 0.449 0.4748 0.4479 0.4211 0.4532 0.4931 0.496
2690.958 0.5431 0.5047 0.4693 0.5014 0.4912 0.4795 0.4722 0.5568 0.6114 0.579
2710.248 0.5418 0.5464 0.5415 0.5025 0.5336 0.5581 0.5272 0.4879 0.5254 0.5935
2729.538 0.5568 0.506 0.4726 0.4593 0.4599 0.4516 0.4492 0.4559 0.489 0.502
2748.828 0.5285 0.5512 0.56 0.5704 0.5167 0.4935 0.5237 0.5693 0.5516 0.5051
2768.118 0.5064 0.5444 0.5601 0.5306 0.5428 0.4901 0.4923 0.5097 0.4634 0.4907
2787.408 0.5839 0.6157 0.6232 0.6084 0.5738 0.6024 0.5427 0.4492 0.4611 0.548
2806.698 0.545 0.5012 0.5757 0.5877 0.5568 0.6174 0.6159 0.5708 0.5338 0.5204
2825.988 0.5526 0.5764 0.622 0.5884 0.5662 0.642 0.6487 0.7159 0.7451 0.7324
2845.278 0.7886 0.7419 0.6827 0.6954 0.6627 0.6524 0.7014 0.6434 0.6304 0.6978
2864.568 0.7423 0.7687 0.7304 0.7162 0.7669 0.7911 0.7267 0.6523 0.7027 0.7246
2883.858 0.6593 0.6452 0.6244 0.6304 0.7358 0.7185 0.6585 0.6355 0.6941 0.8354
2903.148 0.904 0.8872 0.9042 0.938 0.9903 1.083 1.1781 1.2332 1.363 1.533
2922.438 1.513 1.593 1.713 1.713 1.723 1.793 1.893 1.973 2.033 1.943
2941.728 1.953 2.073 2.033 2.063 1.973 1.903 1.873 1.713 1.633 1.613
2961.018 1.573 1.553 1.483 1.493 1.553 1.483 1.383 1.423 1.433 1.433
2980.308 1.413 1.363 1.373 1.433 1.443 1.313 1.313 1.333 1.303 1.2654
2999.598 1.2526 1.2238 1.1652 1.1525 1.1956 1.2054 1.2401 1.373 1.483 1.533
3018.888 1.633 1.763 1.943 2.113 2.253 2.413 2.483 2.463 2.433 2.333
3038.178 2.233 2.123 1.973 1.933 1.953 1.963 1.883 1.823 1.843 1.833
3057.468 1.823 1.893 1.853 1.863 1.913 1.873 1.933 1.923 1.933 1.863
3076.758 1.843 1.923 1.953 1.933 1.953 2.113 2.093 1.873 1.773 1.663
3096.048 1.383 1.2043 1.1488 0.9998 0.8838 0.813 0.6869 0.648 0.6706 0.5555
3115.338 0.4857 0.507 0.4938 0.4802 0.4162 0.3971 0.4195 0.4075 0.412 0.34797
3134.628 0.33954 0.3635 0.3953 0.5043 0.4813 0.445 0.4637 0.4676 0.4976 0.498
3153.918 0.5026 0.3935 0.31474 0.4048 0.458 0.4518 0.34896 0.2912 0.4176 0.444
3173.208 0.31926 0.33952 0.34616 0.31349 0.35387 0.35743 0.35574 0.32873 0.32607 0.30919
3192.498 0.223 0.2192 0.2203 0.2632 0.293132 0.168 0.1996 0.31712 0.28808 0.189
3211.788 0.158 0.2432 0.32942 0.30945 0.292765 0.30404 0.28302 0.294424 0.25 0.28427
3231.078 0.39143 0.38786 0.35437 0.3267 0.2331 0.175 0.31029 0.37591 0.31497 0.2736
3250.368 0.2055 0.2478 0.2807 0.2589 0.31662 0.3591 0.37126 0.33335 0.2551 0.28347
3269.658 0.292566 0.277 0.35757 0.34512 0.29039 0.297474 0.3102 0.293643 0.31943 0.2816
3288.948 0.2204 0.2387 0.2373 0.2302 0.2427 0.2692 0.2571 0.294299 0.2616 0.2661
3308.238 0.2783 0.2627 0.32067 0.36222 0.31772 0.2756 0.31546 0.136 0 0.082
3327.528 0.1974 0.2064 0.127 0.12 0.062 0.064 0.2162 0.2358 0.196 0.2428
3346.818 0.2145 0.137 0.2575 0.2761 0.2347 0.2668 0.2129 0.166 0.148 0.294672
3366.108 0.32279 0.2455 0.2619 0.272 0.2761 0.2191 0.2809 0.32776 0.29144 0.293835
3385.398 0.2607 0.2086 0.31756 0.37169 0.28384 0.33892 0.28328 0.2707 0.31299 0.256
3404.688 0.2807 0.28 0.2229 0.2248 0.2493 0.2054 0.114 0.1975 0.36449 0.30666
3423.978 0.2572 0.2491 0.2504 0.2685 0.149 0.2473 0.35299 0.31406 0.32143 0.2383
3443.269 0.2827 0.37443 0.35269 0.2332 0.2243 0.34526 0.34601 0.2532 0.19 0.2218
3462.559 0.3338 0.3932 0.1962 0.169 0.2784 0.2559 0.2599 0.30467 0.33356 0.2537
3481.849 0.28675 0.4376 0.4342 0.3927 0.4362 0.35491 0.35878 0.5465 0.6009 0.5538
3501.139 0.4395 0.4131 0.495 0.4671 0.4751 0.6393 0.6597 0.6481 0.7396 0.7353
3520.429 0.8134 0.8741 0.8101 0.8752 1.0184 1.0688 1.1158 1.1836 1.303 1.473
3539.719 1.533 1.613 1.793 2.033 2.323 2.613 2.963 3.433 4.103 4.893
3559.009 5.823 7.063 8.793 11.223 14.293 17.943 21.143 22.853 22.943 21.463
3578.299 18.523 14.803 11.423 8.993 7.273 5.863 4.793 3.983 3.253 2.673
3597.589 2.143 1.763 1.563 1.403 1.303 1.1967 1.0364 0.8396 0.8428 0.8334
3616.879 0.6502 0.6185 0.6755 0.853 0.8699 0.6787 0.4479 0.4077 0.5953 0.5678
3636.169 0.5226 0.6107 0.4873 0.37178 0.36006 0.2263 0.1947 0.2224 0.39258 0.4392
3655.459 0.4048 0.4702 0.432 0.39263 0.3171 0.2207 0.2731 0.35262 0.4229 0.37325
3674.749 0.2368 0.299794 0.4176 0.5148 0.4505 0.295694 0.2439 0.2209 0.31612 0.4339
3694.039 0.4502 0.4618 0.3936 0.31014 0.37398 0.5005 0.464 0.4146 0.4486 0.36369
3713.329 0.30924 0.35543 0.4564 0.557 0.549 0.34491 0.2787 0.31607 0.282 0.32072
3732.619 0.37296 0.39177 0.33754 0.34424 0.4003 0.37713 0.2269 0.2033 0.118 0.06
3751.909 0.2388 0.31448 0.32042 0.34039 0.32307 0.4198 0.4584 0.4539 0.5644 0.38395
3771.199 0.2745 0.39076 0.37873 0.3796 0.4125 0.402 0.35864 0.4214 0.4593 0.35454
3790.489 0.3917 0.4329 0.4164 0.4123 0.4265 0.4003 0.4183 0.452 0.38226 0.424
3809.779 0.36682 0.34526 0.3944 0.2731 0.268 0.4067 0.5145 0.6137 0.5713 0.476
3829.069 0.4483 0.3952 0.3425 0.4165 0.4521 0.4999 0.5639 0.5005 0.4687 0.5256
3848.359 0.4059 0.2515 0.28779 0.31311 0.39177 0.4625 0.4475 0.488 0.4755 0.28444
3867.649 0.2701 0.38899 0.4675 0.5138 0.4671 0.4528 0.5928 0.5218 0.4123 0.4869
3886.939 0.4448 0.35712 0.36556 0.4609 0.5138 0.5597 0.5496 0.4872 0.4751 0.4597
3906.229 0.4477 0.4457 0.5399 0.5928 0.4728 0.4965 0.5725 0.4853 0.35438 0.35375
3925.519 0.5196 0.605 0.5723 0.5252 0.5124 0.4991 0.5429 0.5336 0.5212 0.6162
3944.809 0.5456 0.5118 0.4908 0.4319 0.5512 0.5858 0.491 0.4524 0.5047 0.5376
3964.099 0.5365 0.5233 0.4937 0.4888 0.4525 0.5532 0.5061 0.4194 0.5709 0.4784
3983.389 0.4102 0.4644 0.4413 0.5062 0.4685 0.37087 0.5214 0.6022 0.4853 0.4902
##END=
