##TITLE=3,4-Dichlorobenzyl alcohol
##JCAMP-DX=4.24
##DATA TYPE=INFRARED SPECTRUM
##ORIGIN=EPA-IR VAPOR PHASE LIBRARY
##OWNER=SRD/NIST
Collection (C) 2018 copyright by the U.S. Secretary of Commerce
on behalf of the United States of America. All rights reserved.
##CAS REGISTRY NO=1805-32-9
##MOLFORM=C 7 H 6 Cl 2 O
##$NIST SOURCE=MSDC-IR
##STATE=gas
##XUNITS=1/CM
##YUNITS=ABSORBANCE
##XFACTOR=1.
##YFACTOR=0.001
##DELTAX=1.92934
##FIRSTX=549.9
##LASTX=3999.5
##FIRSTY=0.8144
##MAXX=3999.53
##MINX=549.863
##MAXY=0.010022
##MINY=0
##NPOINTS=1789
##XYDATA=(X++(Y..Y))
549.863 0.8144 0.8549 0.9038 0.8464 0.71584 0.68064 0.72391 0.73038 0.915 0.9268
569.156 0.8841 0.982 0.9422 0.9272 1.032 1.0046 0.9096 0.9577 0.9546 0.8781
588.450 0.9114 0.9539 0.8835 0.8783 0.8464 0.78193 0.8851 0.8502 0.75113 0.74505
607.743 0.691247 0.67654 0.69262 0.72553 0.71368 0.6455 0.6491 0.7125 0.685516 0.6311
627.037 0.67219 0.67411 0.6414 0.6612 0.67 0.663 0.690394 0.71321 0.71146 0.70963
646.330 0.70839 0.71485 0.8205 0.936 0.9723 0.989 1.0373 1.0968 1.0829 1.0584
665.624 1.0668 1.0763 1.1222 1.1647 1.2248 1.3438 1.459 1.5918 1.762 1.922
684.917 2.042 2.132 2.152 2.152 2.072 2.012 1.912 1.772 1.6451 1.4921
704.210 1.3966 1.3073 1.2305 1.2057 1.1878 1.1844 1.1538 1.1159 1.0927 1.013
723.504 0.9543 0.9422 0.9029 0.8982 0.8708 0.8199 0.8185 0.8052 0.7833 0.7926
742.797 0.7931 0.77696 0.76192 0.73072 0.71569 0.72399 0.73 0.72539 0.70642 0.67421
762.091 0.7031 0.72538 0.70774 0.72304 0.69438 0.67774 0.73601 0.7922 0.816 0.8159
781.384 0.8423 0.9055 0.9394 0.9843 1.0855 1.2387 1.4016 1.5411 1.752 2.072
800.678 2.402 2.712 3.122 3.512 3.882 4.242 4.532 4.682 4.502 4.152
819.971 3.782 3.412 3.082 2.722 2.382 2.112 1.822 1.5925 1.4861 1.4337
839.264 1.3854 1.4203 1.4457 1.4595 1.5304 1.6357 1.762 1.872 2.002 2.152
858.558 2.302 2.472 2.662 2.852 3.002 3.132 3.252 3.332 3.362 3.312
877.851 3.232 3.122 2.952 2.732 2.512 2.342 2.172 1.972 1.812 1.659
897.145 1.5335 1.4451 1.3437 1.2705 1.2211 1.184 1.1411 1.0937 1.0692 1.0715
916.438 1.0394 0.9949 1.0327 1.0456 1.0349 1.0646 1.0892 1.099 1.1201 1.1358
935.732 1.1609 1.2043 1.2267 1.272 1.3066 1.2968 1.3445 1.3708 1.3647 1.4672
955.025 1.5288 1.5417 1.5793 1.6498 1.742 1.812 1.842 1.862 1.882 1.922
974.318 2.012 2.042 2.032 2.022 2.042 2.102 2.152 2.192 2.232 2.332
993.612 2.432 2.522 2.682 2.842 2.982 3.152 3.382 3.602 3.832 4.112
1012.905 4.452 4.862 5.292 5.842 6.492 7.272 8.192 9.062 9.682 9.962
1032.199 10.022 9.962 9.822 9.472 8.742 7.782 6.802 5.992 5.372 4.882
1051.492 4.512 4.192 3.902 3.702 3.462 3.222 3.072 2.902 2.692 2.512
1070.786 2.342 2.182 2.032 1.872 1.752 1.702 1.6097 1.4749 1.4086 1.3778
1090.079 1.3558 1.3378 1.2964 1.2302 1.2015 1.2127 1.2496 1.3004 1.3715 1.4174
1109.372 1.4538 1.6434 1.852 2.012 2.292 2.662 3.062 3.522 3.952 4.242
1128.666 4.502 4.762 4.932 4.922 4.792 4.592 4.312 3.972 3.612 3.322
1147.959 3.092 2.842 2.562 2.312 2.182 2.052 1.912 1.852 1.792 1.832
1167.253 1.932 1.972 1.982 2.042 2.132 2.172 2.282 2.402 2.482 2.642
1186.546 2.792 2.892 3.082 3.262 3.402 3.572 3.722 3.852 3.912 3.862
1205.840 3.732 3.662 3.492 3.242 3.002 2.652 2.452 2.282 2.122 2.042
1225.133 1.902 1.792 1.722 1.732 1.742 1.6294 1.5101 1.5323 1.5764 1.5649
1244.426 1.6001 1.6493 1.6635 1.6413 1.6338 1.6733 1.732 1.772 1.782 1.772
1263.720 1.712 1.6792 1.682 1.636 1.5963 1.5634 1.5032 1.4842 1.4143 1.3021
1283.013 1.2824 1.319 1.3361 1.3304 1.3105 1.274 1.2572 1.2674 1.2878 1.3108
1302.307 1.2799 1.2507 1.2837 1.2742 1.27 1.3102 1.3242 1.3234 1.3229 1.3246
1321.600 1.3495 1.3797 1.3888 1.3993 1.4157 1.4437 1.467 1.5376 1.606 1.6726
1340.894 1.742 1.782 1.872 1.972 2.052 2.132 2.282 2.452 2.542 2.662
1360.187 2.812 2.962 3.112 3.282 3.442 3.572 3.652 3.752 3.872 3.982
1379.480 4.072 4.182 4.332 4.452 4.552 4.662 4.752 4.832 4.852 4.772
1398.774 4.662 4.522 4.342 4.072 3.762 3.472 3.182 2.892 2.632 2.412
1418.067 2.232 2.092 1.972 1.842 1.732 1.682 1.6514 1.649 1.6512 1.6447
1437.361 1.6657 1.712 1.782 1.852 1.942 2.042 2.212 2.442 2.702 3.052
1456.654 3.482 4.052 4.622 5.162 5.702 6.142 6.462 6.652 6.582 6.302
1475.948 5.872 5.282 4.702 4.082 3.392 2.712 2.152 1.772 1.4998 1.292
1495.241 1.1379 1.0568 0.9987 0.9458 0.9299 0.9199 0.9043 0.8431 0.8021 0.8268
1514.534 0.8356 0.8258 0.8098 0.7863 0.773 0.77837 0.8001 0.791 0.77381 0.8007
1533.828 0.8235 0.8404 0.8889 0.8874 0.8855 0.9529 1.0084 1.0652 1.1238 1.1598
1553.121 1.193 1.2631 1.3205 1.3519 1.3748 1.4085 1.4322 1.3719 1.3289 1.3289
1572.415 1.2588 1.1935 1.1707 1.1128 1.0759 1.0545 1.0387 1.0418 1.0843 1.116
1591.708 1.1085 1.0904 1.0657 1.0595 1.0619 1.0498 1.0413 1.0079 0.9528 0.9429
1611.002 0.905 0.867 0.8752 0.8494 0.7955 0.76683 0.75922 0.76775 0.7991 0.7921
1630.295 0.75555 0.74542 0.76539 0.7872 0.7867 0.75215 0.7289 0.71067 0.67933 0.681271
1649.588 0.6604 0.6197 0.625 0.6686 0.6632 0.6323 0.6388 0.6529 0.67313 0.691753
1668.882 0.68084 0.685593 0.71812 0.69733 0.6578 0.6454 0.6555 0.69801 0.71665 0.7287
1688.175 0.7293 0.73906 0.72413 0.69666 0.73284 0.73488 0.69744 0.68224 0.69245 0.70689
1707.469 0.70871 0.73861 0.73901 0.7358 0.76538 0.76651 0.75978 0.77457 0.7864 0.7913
1726.762 0.8282 0.8647 0.8534 0.7993 0.8068 0.8374 0.8346 0.8318 0.8284 0.8202
1746.056 0.8551 0.8644 0.8454 0.8515 0.8512 0.8321 0.8193 0.8385 0.8479 0.8658
1765.349 0.8197 0.802 0.8011 0.77015 0.78148 0.7938 0.8005 0.8051 0.8048 0.7887
1784.642 0.8036 0.78184 0.76231 0.7872 0.8052 0.8046 0.74833 0.74535 0.7993 0.7862
1803.936 0.785 0.7992 0.7994 0.8128 0.8309 0.8315 0.8293 0.8151 0.8452 0.886
1823.229 0.8403 0.8084 0.7844 0.73769 0.73908 0.74789 0.72327 0.71326 0.70127 0.71532
1842.523 0.73068 0.71241 0.69611 0.685848 0.69457 0.71098 0.70446 0.70767 0.7181 0.69806
1861.816 0.685339 0.70001 0.72018 0.73533 0.73078 0.71744 0.72801 0.77346 0.78074 0.786
1881.110 0.8098 0.8383 0.8646 0.859 0.8966 0.932 0.9276 0.9009 0.8857 0.8708
1900.403 0.8467 0.8318 0.7978 0.76953 0.76651 0.77068 0.7593 0.74264 0.73504 0.74201
1919.696 0.7361 0.74463 0.725 0.71139 0.71974 0.71234 0.69296 0.688492 0.71333 0.72471
1938.990 0.72011 0.71583 0.72096 0.70579 0.72022 0.73317 0.71181 0.7186 0.71624 0.686501
1958.283 0.69577 0.70079 0.69863 0.681006 0.67441 0.69559 0.69875 0.690466 0.71125 0.73109
1977.577 0.70099 0.690762 0.67946 0.690051 0.70051 0.67769 0.690926 0.71082 0.7033 0.71504
1996.870 0.70513 0.6687 0.70058 0.73348 0.74041 0.74052 0.75071 0.75743 0.75037 0.74547
2016.164 0.73804 0.73214 0.72328 0.74659 0.7702 0.75067 0.7467 0.78101 0.7822 0.76226
2035.457 0.76294 0.75292 0.7463 0.76438 0.75401 0.74434 0.76921 0.77041 0.74592 0.74616
2054.750 0.77893 0.7846 0.76598 0.75688 0.74502 0.75905 0.76989 0.75363 0.74788 0.74294
2074.044 0.76742 0.77975 0.76126 0.78132 0.8016 0.7921 0.7874 0.7964 0.8001 0.77319
2093.337 0.73644 0.74931 0.77653 0.77032 0.75396 0.7664 0.77576 0.76551 0.75526 0.76474
2112.631 0.7886 0.7699 0.75194 0.75712 0.76122 0.76132 0.73849 0.74633 0.75703 0.74546
2131.924 0.76621 0.7827 0.77395 0.76122 0.7408 0.74877 0.74833 0.74382 0.74842 0.7535
2151.218 0.75669 0.75284 0.75102 0.76453 0.7877 0.77908 0.75635 0.73856 0.74313 0.73877
2170.511 0.73343 0.74071 0.75663 0.75046 0.75324 0.76647 0.75096 0.75448 0.76703 0.76951
2189.804 0.77942 0.75612 0.74198 0.74683 0.72002 0.73048 0.74423 0.73901 0.75768 0.76535
2209.098 0.75674 0.75513 0.76881 0.77819 0.76621 0.77688 0.7905 0.76472 0.73749 0.74783
2228.391 0.76704 0.75838 0.77341 0.7896 0.77814 0.77492 0.76095 0.74981 0.77648 0.76973
2247.685 0.73634 0.76236 0.77464 0.73896 0.74218 0.75375 0.73427 0.75424 0.78092 0.76671
2266.978 0.76917 0.779 0.8001 0.8025 0.7914 0.7976 0.77643 0.77071 0.7821 0.7957
2286.272 0.77347 0.74852 0.77729 0.7916 0.8014 0.8247 0.8119 0.8115 0.8219 0.8054
2305.565 0.78157 0.76447 0.7682 0.76981 0.76107 0.7451 0.75017 0.78138 0.8227 0.8291
2324.858 0.8033 0.75292 0.77059 0.8218 0.7998 0.8015 0.8183 0.7854 0.76625 0.8222
2344.152 0.8106 0.77293 0.794 0.8285 0.8199 0.7943 0.7946 0.77817 0.76733 0.76864
2363.445 0.77561 0.77137 0.7941 0.8156 0.8069 0.7877 0.7964 0.8354 0.8276 0.8159
2382.739 0.8266 0.8506 0.8222 0.7897 0.8097 0.8227 0.7979 0.77307 0.78166 0.8037
2402.032 0.8091 0.77072 0.73991 0.77443 0.7998 0.77937 0.7967 0.77507 0.77402 0.7991
2421.326 0.7628 0.76559 0.77104 0.74795 0.75352 0.76621 0.77823 0.78169 0.7832 0.75595
2440.619 0.74881 0.7912 0.7916 0.77962 0.77403 0.7872 0.8118 0.8033 0.78158 0.75767
2459.912 0.77121 0.8122 0.7983 0.8099 0.8416 0.82 0.8158 0.8162 0.8178 0.8232
2479.206 0.8106 0.8043 0.791 0.7843 0.7835 0.77352 0.7917 0.8182 0.819 0.8104
2498.499 0.8118 0.8092 0.8113 0.8144 0.8419 0.8527 0.8244 0.77502 0.77165 0.8145
2517.793 0.815 0.7956 0.7935 0.8203 0.8241 0.8248 0.8197 0.8083 0.8215 0.8424
2537.086 0.8146 0.7959 0.8042 0.7925 0.7991 0.78073 0.7861 0.8101 0.8022 0.77603
2556.380 0.7965 0.8269 0.8029 0.7976 0.7944 0.7942 0.77281 0.76414 0.8029 0.8156
2575.673 0.815 0.8483 0.8661 0.8224 0.77472 0.76689 0.7868 0.8266 0.8358 0.77794
2594.966 0.76223 0.8151 0.8422 0.8467 0.8735 0.8681 0.8136 0.8113 0.8622 0.8772
2614.260 0.849 0.8318 0.8377 0.8377 0.7921 0.77214 0.8419 0.8941 0.8894 0.8801
2633.553 0.8603 0.8323 0.7951 0.7918 0.8205 0.8187 0.8108 0.8286 0.8198 0.8135
2652.847 0.8337 0.8592 0.8575 0.8502 0.8542 0.8255 0.839 0.8597 0.87 0.8749
2672.140 0.8607 0.8624 0.8577 0.8337 0.8135 0.8237 0.8181 0.8385 0.8671 0.811
2691.434 0.8005 0.8348 0.7896 0.8168 0.8877 0.8593 0.8275 0.8461 0.8738 0.8644
2710.727 0.8849 0.8815 0.837 0.8603 0.8833 0.8801 0.9077 0.9246 0.8798 0.8574
2730.020 0.8806 0.9039 0.9335 0.8999 0.8785 0.8616 0.8359 0.8776 0.8869 0.8879
2749.314 0.8353 0.8494 0.9239 0.898 0.8501 0.8939 0.9398 0.9247 0.9432 0.9484
2768.607 0.9052 0.8612 0.9153 0.9871 1.0167 0.9776 0.878 0.9415 1.088 1.0854
2787.901 1.0442 1.0263 1.001 0.9987 0.9618 1.0187 1.0271 0.9827 1.0085 1.0131
2807.194 1.0613 1.0914 1.1116 1.0466 1.0131 1.0583 1.0425 1.0787 1.1387 1.0974
2826.488 1.1117 1.1371 1.1686 1.2497 1.2978 1.324 1.3312 1.2835 1.2819 1.3494
2845.781 1.4181 1.5381 1.5586 1.5749 1.6779 1.702 1.712 1.802 1.922 1.982
2865.074 2.022 2.102 2.192 2.262 2.362 2.512 2.662 2.772 2.862 2.962
2884.368 2.922 2.912 2.952 2.862 2.792 2.722 2.722 2.662 2.572 2.562
2903.661 2.492 2.462 2.412 2.322 2.292 2.352 2.412 2.352 2.302 2.292
2922.955 2.332 2.372 2.332 2.362 2.342 2.402 2.442 2.452 2.432 2.302
2942.248 2.222 2.202 2.222 2.162 2.142 2.112 2.052 2.112 2.122 2.022
2961.542 1.932 1.832 1.712 1.6154 1.6112 1.5354 1.4355 1.4135 1.3339 1.2956
2980.835 1.2646 1.1999 1.1957 1.1809 1.15 1.12 1.1135 1.1053 1.013 0.9218
3000.128 0.97 1.014 0.988 0.959 0.8656 0.8162 0.8095 0.8447 0.8722 0.8294
3019.422 0.8806 0.7958 0.73065 0.8398 0.9638 1.0135 0.9808 0.9276 0.9317 0.9843
3038.715 1.0344 1.0289 1.0332 1.0735 1.0681 1.0345 1.0527 1.1018 1.0704 1.137
3058.009 1.1842 1.1668 1.1712 1.1551 1.1105 1.0424 1.0468 1.0603 1.0113 1.0063
3077.302 0.9809 0.9227 0.8963 0.8599 0.8815 0.8622 0.7895 0.7897 0.74595 0.5835
3096.596 0.6103 0.74134 0.75475 0.70418 0.6052 0.509 0.477 0.529 0.543 0.574
3115.889 0.561 0.491 0.519 0.541 0.492 0.467 0.451 0.47 0.488 0.522
3135.182 0.519 0.422 0.376 0.387 0.35 0.319 0.372 0.38 0.401 0.378
3154.476 0.35 0.36 0.342 0.408 0.397 0.431 0.492 0.451 0.368 0.391
3173.769 0.424 0.343 0.3 0.294 0.42 0.408 0.304 0.347 0.371 0.466
3193.063 0.506 0.41 0.333 0.348 0.435 0.401 0.332 0.313 0.314 0.295
3212.356 0.313 0.346 0.326 0.312 0.268 0.321 0.352 0.306 0.277 0.246
3231.650 0.258 0.288 0.306 0.206 0.135 0.23 0.314 0.202 0.131 0.239
3250.943 0.246 0.261 0.247 0.222 0.266 0.234 0.204 0.257 0.278 0.25
3270.236 0.291 0.224 0.168 0.144 0.134 0.26 0.378 0.315 0.209 0.263
3289.530 0.218 0.128 0.244 0.243 0.165 0.217 0.191 0.212 0.302 0.292
3308.823 0.291 0.331 0.269 0.212 0.182 0.15 0.252 0.276 0.267 0.299
3328.117 0.244 0.213 0.146 0.101 0.135 0.123 0.101 0.124 0.239 0.203
3347.410 0.145 0.286 0.239 0.152 0.163 0.135 0.114 0.178 0.281 0.245
3366.704 0.1 0 0.084 0.212 0.202 0.193 0.266 0.265 0.189 0.169
3385.997 0.231 0.227 0.106 0.122 0.152 0.143 0.167 0.063 0.077 0.139
3405.290 0.121 0.1 0.166 0.235 0.103 0.103 0.207 0.224 0.189 0.183
3424.584 0.188 0.18 0.159 0.158 0.236 0.268 0.325 0.289 0.146 0.14
3443.877 0.13 0.143 0.189 0.191 0.237 0.193 0.155 0.181 0.171 0.174
3463.171 0.279 0.31 0.211 0.193 0.244 0.19 0.23 0.32 0.273 0.267
3482.464 0.238 0.265 0.173 0.137 0.213 0.232 0.262 0.224 0.271 0.243
3501.758 0.182 0.29 0.278 0.232 0.285 0.323 0.329 0.205 0.174 0.23
3521.051 0.212 0.187 0.213 0.263 0.238 0.224 0.276 0.338 0.389 0.345
3540.344 0.257 0.254 0.245 0.241 0.269 0.318 0.256 0.168 0.26 0.339
3559.638 0.29 0.224 0.236 0.277 0.253 0.195 0.2 0.301 0.383 0.331
3578.931 0.313 0.356 0.336 0.354 0.416 0.384 0.31 0.386 0.381 0.346
3598.225 0.394 0.406 0.383 0.296 0.341 0.393 0.378 0.422 0.482 0.6253
3617.518 0.6661 0.569 0.6173 0.7083 0.72467 0.75383 0.8344 0.893 0.93 0.9934
3636.812 1.0349 1.0576 1.1615 1.2534 1.2822 1.3275 1.4168 1.6023 1.742 1.812
3656.105 1.812 1.742 1.812 1.922 1.942 1.872 1.832 1.782 1.6437 1.4879
3675.398 1.4138 1.4208 1.3464 1.2298 1.1238 1.0726 1.0418 0.9584 0.8402 0.8125
3694.692 0.8117 0.69846 0.6463 0.6429 0.5959 0.569 0.516 0.547 0.577 0.56
3713.985 0.547 0.488 0.498 0.485 0.5 0.556 0.56 0.537 0.445 0.444
3733.279 0.508 0.489 0.505 0.464 0.376 0.372 0.409 0.494 0.561 0.542
3752.572 0.576 0.5917 0.528 0.455 0.414 0.488 0.576 0.447 0.405 0.5
3771.866 0.482 0.519 0.553 0.527 0.469 0.42 0.49 0.503 0.424 0.475
3791.159 0.506 0.448 0.448 0.525 0.516 0.495 0.451 0.453 0.44 0.411
3810.452 0.46 0.468 0.465 0.485 0.538 0.508 0.501 0.51 0.51 0.55
3829.746 0.55 0.494 0.479 0.439 0.388 0.441 0.531 0.541 0.518 0.56
3849.039 0.546 0.493 0.448 0.34 0.373 0.535 0.501 0.425 0.451 0.46
3868.333 0.509 0.513 0.412 0.489 0.6433 0.6405 0.521 0.479 0.535 0.543
3887.626 0.559 0.565 0.54 0.489 0.475 0.515 0.539 0.544 0.553 0.561
3906.920 0.51 0.523 0.581 0.5835 0.5852 0.562 0.574 0.546 0.501 0.531
3926.213 0.527 0.518 0.532 0.493 0.506 0.6061 0.5986 0.54 0.479 0.425
3945.506 0.427 0.437 0.453 0.493 0.497 0.463 0.483 0.503 0.563 0.572
3964.800 0.565 0.525 0.485 0.503 0.518 0.563 0.54 0.527 0.504 0.56
3984.093 0.6476 0.581 0.557 0.545 0.535 0.537 0.478 0.524 0.5958
##END=
