##TITLE=4-Methoxycyclohexanol (c,t)
##JCAMP-DX=4.24
##DATA TYPE=INFRARED SPECTRUM
##ORIGIN=NIST Mass Spectrometry Data Center
##OWNER=NIST Standard Reference Data Program
Collection (C) 2018 copyright by the U.S. Secretary of Commerce
on behalf of the United States of America. All rights reserved.
##CAS REGISTRY NO=18068-06-9
##MOLFORM=C 7 H 14 O 2
##$NIST SOURCE=MSDC-IR
##SPECTROMETER/DATA SYSTEM=HP-GC/MS/IRD
##STATE=gas
##XUNITS=1/CM
##YUNITS=ABSORBANCE
##XFACTOR=1.0
##YFACTOR=0.000002300
##DELTAX=4.0
##FIRSTX=550.0
##LASTX=3846.0
##FIRSTY=0.000133
##MAXX=3846
##MINX=550
##MAXY=0.023
##MINY=0
##NPOINTS=825
##XYDATA=(X++(Y..Y))
550.0 58 18 25 67 31 20 85 170 198 213
590.0 258 255 240 205 135 81 69 75 52 34
630.0 34 37 26 15 31 36 67 84 78 107
670.0 121 130 128 92 84 94 79 56 33 26
710.0 23 11 21 30 22 3 13 28 15 10
750.0 3 11 22 20 24 26 38 50 43 49
790.0 52 44 45 46 61 66 70 55 47 75
830.0 95 104 111 109 114 129 136 142 163 179
870.0 183 198 227 269 309 362 456 547 640 757
910.0 851 919 986 1024 1020 993 959 896 851 906
950.0 1073 1349 1673 1965 2178 2194 2005 1705 1346 1028
990.0 827 721 676 684 706 739 785 844 899 939
1030.0 979 1041 1174 1391 1723 2221 2834 3471 4009 4351
1070.0 4446 4330 4195 4262 4608 5142 5781 6402 6821 6887
1110.0 6564 5993 5271 4442 3680 3126 2743 2478 2264 2061
1150.0 1869 1706 1564 1433 1346 1325 1353 1406 1474 1537
1190.0 1580 1570 1527 1454 1369 1309 1280 1291 1319 1334
1230.0 1326 1314 1275 1212 1145 1078 1037 988 943 887
1270.0 815 747 669 599 556 529 502 482 479 492
1310.0 517 544 576 613 646 701 776 850 912 993
1350.0 1094 1210 1360 1554 1725 1813 1814 1709 1522 1293
1390.0 1071 894 764 655 561 498 462 467 504 576
1430.0 696 849 1002 1156 1291 1355 1347 1312 1193 1026
1470.0 857 682 531 408 320 246 198 172 146 126
1510.0 107 100 104 98 85 83 83 85 79 68
1550.0 68 74 70 70 80 76 78 77 69 68
1590.0 66 59 49 44 47 40 35 41 37 29
1630.0 35 48 38 27 27 33 37 32 23 22
1670.0 25 27 24 27 26 17 20 20 13 11
1710.0 14 14 18 13 6 9 20 19 12 20
1750.0 23 11 13 21 23 24 20 18 15 14
1790.0 14 18 16 5 3 7 6 9 10 8
1830.0 11 8 6 9 10 12 12 8 4 3
1870.0 0 5 8 8 17 16 9 6 5 8
1910.0 11 18 24 18 19 16 20 26 21 13
1950.0 14 24 26 25 23 20 24 28 29 25
1990.0 26 38 45 48 51 48 50 59 62 65
2030.0 64 69 68 64 65 59 51 47 42 32
2070.0 33 41 42 40 37 37 42 43 44 54
2110.0 52 51 56 58 57 53 54 52 49 50
2150.0 46 35 34 43 40 38 54 56 38 36
2190.0 44 43 38 34 33 36 36 30 28 26
2230.0 25 25 20 19 16 17 19 13 15 20
2270.0 18 16 15 8 11 10 5 7 17 19
2310.0 13 12 10 16 16 10 17 18 18 24
2350.0 30 27 22 25 24 20 16 21 21 16
2390.0 16 18 20 21 30 34 27 29 28 26
2430.0 24 21 24 26 28 24 27 36 34 33
2470.0 38 36 29 29 34 31 34 37 35 31
2510.0 33 41 39 36 34 41 45 42 47 53
2550.0 54 58 65 62 65 68 67 73 79 85
2590.0 95 102 113 116 112 123 138 146 155 169
2630.0 183 198 217 222 224 235 241 239 236 237
2670.0 241 242 238 240 230 222 215 201 196 198
2710.0 200 201 193 190 203 209 208 215 227 237
2750.0 246 266 283 298 320 331 357 393 427 466
2790.0 524 594 664 768 919 1142 1454 1827 2170 2419
2830.0 2559 2567 2475 2383 2407 2592 2914 3322 3739 4103
2870.0 4348 4432 4356 4197 4040 3925 3862 3873 3953 4128
2910.0 4407 4762 5200 5745 6395 7181 8134 9111 9824 10000
2950.0 9583 8645 7228 5557 4043 2949 2290 1975 1856 1762
2990.0 1637 1452 1216 956 737 587 486 416 379 358
3030.0 327 306 284 268 256 231 216 213 209 202
3070.0 200 198 181 168 155 131 112 112 117 112
3110.0 108 102 93 93 93 90 79 76 77 74
3150.0 64 54 54 43 48 48 39 38 26 25
3190.0 34 43 45 40 41 42 29 24 26 23
3230.0 19 11 4 17 33 34 29 26 34 26
3270.0 18 27 29 26 23 27 42 55 53 38
3310.0 48 52 47 61 65 66 50 33 41 58
3350.0 62 54 53 54 43 31 53 65 60 59
3390.0 57 58 55 40 37 53 62 64 71 72
3430.0 77 78 62 55 55 65 79 62 47 65
3470.0 70 62 70 66 63 68 60 49 43 47
3510.0 44 52 74 76 70 73 91 84 64 65
3550.0 68 76 72 65 78 62 39 49 56 59
3590.0 51 44 58 71 83 97 104 107 126 170
3630.0 222 287 383 519 653 730 743 688 564 401
3670.0 281 207 144 110 97 90 91 89 72 56
3710.0 61 66 63 74 88 79 63 61 67 79
3750.0 77 81 82 74 78 68 59 70 68 67
3790.0 68 82 83 65 67 68 64 67 79 97
3830.0 89 78 80 85 97
##END=
