##TITLE=2,6-Difluorobenzamide
##JCAMP-DX=4.24
##DATA TYPE=INFRARED SPECTRUM
##ORIGIN=EPA-IR VAPOR PHASE LIBRARY
##OWNER=SRD/NIST
Collection (C) 2018 copyright by the U.S. Secretary of Commerce
on behalf of the United States of America. All rights reserved.
##CAS REGISTRY NO=18063-03-1
##MOLFORM=C 7 H 5 F 2 N O
##$NIST SOURCE=MSDC-IR
##STATE=gas
##XUNITS=1/CM
##YUNITS=ABSORBANCE
##XFACTOR=1.
##YFACTOR=0.001
##DELTAX=1.92898
##FIRSTX=549.8
##LASTX=4000.7
##FIRSTY=13.94
##MAXX=4000.7
##MINX=549.759
##MAXY=0.1887
##MINY=0
##NPOINTS=1790
##XYDATA=(X++(Y..Y))
549.759 13.94 11.68 9.32 7.46 6.15 5.17 4.8 4.87 4.71 4.17
569.049 3.83 4.17 4.38 4.43 4.6 5.09 5.5 5.96 7.39 9.18
588.339 11.7 15.69 21.59 28.72 35.71 41.65 46.06 50.89 54.19 52
607.628 48.34 45.37 40.11 32.81 25.68 19.82 15.83 13.42 11.83 10.85
626.918 10.24 9.66 9.15 8.74 8.12 7.27 6.52 6.02 5.75 5.48
646.208 5.04 4.74 4.63 4.93 5.53 6 6.75 7.5 7.68 7.7
665.498 7.81 7.82 7.95 8.2 8.27 8.13 7.84 7.72 7.58 7.22
684.787 7.01 6.81 6.51 6.35 6.36 6.69 7.15 7.71 8.56 9.79
704.077 11.56 14.05 17.05 20.46 24.37 28.38 32.02 35.06 37.8 40.39
723.367 41.68 39.62 35.22 31.27 28.05 24.92 21.97 19.85 19.07 19.38
742.657 19.83 19.87 19.82 20.01 19.7 18.5 17.69 16.48 14.09 11.55
761.947 9.48 8.32 8.02 8.38 9.51 11.85 15.55 20.47 25.99 31.7
781.236 36.97 41.7 48 58.78 72.36 73.39 59.36 48.6 43.98 39.93
800.526 34.75 28.81 23.27 18.36 14.82 12.46 10.79 9.71 9.14 8.73
819.816 8.4 8.46 8.44 8.2 8.08 8.2 8.6 8.99 9.54 10.28
839.106 11.1 12.32 14.08 16.24 19.14 23.06 28.13 34.49 42.31 51.24
858.395 61.86 74.09 87.1 101.31 115.91 130.07 143.86 156.95 168.37 177.43
877.685 184.07 188.39 188.7 183.84 175.5 164.07 148.54 130.95 113.46 95.71
896.975 78.27 62.52 49.19 38.82 31.34 25.79 21.8 19.04 16.9 15.15
916.265 13.87 12.95 12 11.19 10.67 10.16 9.64 9.35 9.16 9.19
935.555 9.34 9.64 10.06 10.45 10.66 10.8 11.22 11.39 11.37 11.35
954.844 11.01 10.47 9.87 9.4 8.92 8.24 7.41 6.72 6.33 6.01
974.134 5.85 5.71 5.82 6.01 6.3 6.63 7.03 7.7 8.34 9.37
993.424 10.91 12.77 15.39 19.4 24.75 31.92 40.98 51.7 63.92 76.19
1012.714 86.76 94.81 99.31 100.26 99.44 96.83 90.23 78.93 65.41 51.69
1032.003 39.04 28.66 20.61 15.03 11.49 8.99 7.42 6.36 5.73 5.59
1051.293 5.48 5.1 5.12 5.42 5.3 4.89 4.54 4.32 3.92 3.52
1070.583 3.4 3.41 3.14 2.98 3.14 2.97 2.62 2.27 2.16 2.18
1089.873 2.32 2.38 2.08 2.15 2.06 1.81 1.77 2.05 2.1 2.45
1109.163 2.68 2.05 2.09 2.43 2.42 2.55 2.57 2.52 2.49 2.79
1128.452 3.48 3.33 3.03 3.27 3.64 4.19 4.52 4.58 4.89 5.27
1147.742 5.53 6.08 6.74 6.91 7.24 7.98 9 10.39 11.68 12.68
1167.032 13.83 15.34 16.88 18.56 20.68 23.38 26.81 31.09 36.76 43.63
1186.322 51.32 59.53 67.18 73.38 77.6 79.92 79.64 75.79 69.22 61.16
1205.611 51.87 42.1 33.19 26.47 22.22 19.27 17.63 17.15 17.11 17.6
1224.901 19.32 22.08 25.41 30.14 36.22 43.5 51.07 57.68 62.38 64.07
1244.191 63.1 61.98 61.67 58.33 50.87 41.88 32.73 24.91 19.09 15.16
1263.481 12.74 11.43 11.05 11.36 12.2 13.39 15.32 18.15 21.85 26.14
1282.771 31.29 37.3 43.25 48.14 51.01 51.68 50.5 47.48 42.72 37.34
1302.060 31.64 25.33 18.91 13.52 9.78 7.54 6.36 5.67 5.3 5.07
1321.350 4.85 4.68 4.48 4.28 4.1 3.87 3.66 3.5 3.31 3.07
1340.640 2.98 2.94 2.87 2.78 2.76 2.81 2.88 2.99 3.03 3.1
1359.930 3.23 3.32 3.45 3.57 3.66 3.8 3.83 3.8 3.81 3.8
1379.219 3.73 3.62 3.41 3.11 2.91 2.78 2.67 2.55 2.49 2.49
1398.509 2.48 2.53 2.65 2.84 3.03 3.11 3.21 3.43 3.58 3.67
1417.799 3.86 4.12 4.29 4.4 4.56 4.66 4.9 5.35 5.8 6.37
1437.089 7.11 8.06 9.34 10.9 12.95 15.51 18.72 22.95 28.65 36.1
1456.378 45.83 58.21 72.76 89.26 106.66 123.46 137.5 147.09 150.84 149.72
1475.668 144.45 132.99 115.14 94.38 74.63 58.09 44.98 34.74 27.13 21.83
1494.958 18.27 15.87 14.15 12.87 11.79 10.75 9.86 9 8.22 7.59
1514.248 7.21 7.14 7.08 7.17 7.48 7.88 8.45 9.1 9.85 10.68
1533.538 11.48 12.26 13.09 14.04 14.89 15.58 16.15 16.61 17.02 17.5
1552.827 18.03 18.53 19.14 19.92 20.64 21.37 22.22 23.14 24.22 25.6
1572.117 27.18 29.15 31.71 34.73 38.26 42.5 47.24 51.96 56.19 59.71
1591.407 62.5 64.51 65.98 66.69 66.35 65.31 64.61 65.61 69.03 75.4
1610.697 84.19 93.67 101.95 107.84 110.16 108.89 104.64 97.32 87.16 75.15
1629.986 62.39 49.57 37.78 28.22 21.42 16.74 13.4 11 9.21 7.95
1649.276 7.05 6.54 6.27 5.96 5.73 5.62 5.45 5.28 5.16 5.02
1668.566 4.91 4.82 4.73 4.64 4.44 4.24 4.16 4.09 4.05 4.03
1687.856 4.06 4.13 4.23 4.47 4.66 4.9 5.36 5.78 6.19 6.74
1707.146 7.42 8.08 8.67 9.36 10.08 10.77 11.42 12.05 12.8 13.63
1726.435 14.53 15.58 16.89 18.4 20.11 21.95 23.94 26.1 28.38 30.67
1745.725 32.78 34.92 36.9 38.71 40.33 41.65 42.8 43.74 44.57 45.23
1765.015 45.73 46.16 46.45 46.78 47.32 48.14 49.4 51.37 54.46 58.98
1784.305 65.32 73.83 84.38 96.97 111.35 126.57 141.75 156.31 169.26 179.39
1803.594 184.23 180.82 169.28 153.84 138.07 122.55 106.89 91.24 76.34 63.35
1822.884 52.93 44.96 38.97 34.42 30.8 27.78 25.28 23.11 21.07 19.26
1842.174 17.7 16.14 14.65 13.3 12.01 10.76 9.66 8.72 7.79 7
1861.464 6.31 5.7 5.23 4.78 4.34 4.13 4.02 3.93 3.91 3.91
1880.754 4.03 4.14 4.14 4.16 4.13 4.05 3.94 3.71 3.5 3.29
1900.043 3.01 2.84 2.75 2.72 2.74 2.79 2.98 3.28 3.6 3.93
1919.333 4.36 4.73 4.89 4.96 4.92 4.73 4.4 4.08 3.73 3.21
1938.623 2.75 2.44 2.15 1.95 1.83 1.6968 1.648 1.6007 1.509 1.4681
1957.913 1.4946 1.491 1.4058 1.331 1.337 1.3706 1.3987 1.3934 1.3906 1.4441
1977.202 1.4512 1.4813 1.584 1.5925 1.5974 1.5537 1.5036 1.5432 1.5688 1.5146
1996.492 1.4269 1.408 1.3747 1.3127 1.28 1.2461 1.1668 1.1853 1.1907 1.1697
2015.782 1.1637 1.1469 1.2181 1.2579 1.2447 1.2578 1.3092 1.3793 1.3977 1.433
2035.072 1.4619 1.4191 1.3748 1.3756 1.4514 1.5291 1.5484 1.4753 1.421 1.3797
2054.362 1.3835 1.4734 1.5351 1.5876 1.6066 1.6084 1.6526 1.6483 1.6144 1.6698
2073.651 1.76 1.7187 1.6935 1.6956 1.639 1.5342 1.4279 1.3355 1.2435 1.2044
2092.941 1.0953 1.0157 1.0023 0.989 1.007 0.9562 0.8814 0.8471 0.8829 0.9122
2112.231 0.8855 0.9109 0.9553 0.9521 0.8871 0.897 0.9162 0.8722 0.8574 0.8838
2131.521 0.9043 0.8824 0.80599 0.8553 0.9077 0.8558 0.8891 0.8675 0.8629 0.8941
2150.810 0.8815 0.8719 0.8467 0.82765 0.82094 0.8583 0.9704 0.9759 0.9208 0.9095
2170.100 0.8834 0.83915 0.8951 0.9141 0.8963 0.9073 0.8835 0.8687 0.9027 1.0303
2189.390 1.0799 1.0611 1.0347 1.0192 1.1087 1.174 1.1337 1.1298 1.1518 1.1811
2208.680 1.1866 1.2219 1.332 1.4061 1.4237 1.3918 1.3863 1.4033 1.3397 1.2924
2227.970 1.3176 1.2307 1.2027 1.1838 1.0423 0.9842 1.0072 1.0343 1.0129 1.0075
2247.259 1.0194 1.0361 1.0562 1.0337 1.018 1.0552 1.0844 1.0804 1.0893 1.1048
2266.549 1.1026 1.0812 1.108 1.168 1.1618 1.1978 1.2212 1.2431 1.32 1.3707
2285.839 1.4288 1.5496 1.6612 1.83 2.02 2.12 2.26 2.4 2.55 2.65
2305.129 2.68 2.8 2.83 2.77 2.64 2.47 2.29 1.98 1.78 1.6412
2324.418 1.4788 1.4536 1.3851 1.3415 1.3704 1.3089 1.3151 1.3906 1.3546 1.3558
2343.708 1.4237 1.4072 1.3616 1.3386 1.3015 1.2484 1.2598 1.3202 1.2789 1.3015
2362.998 1.3878 1.4346 1.381 1.2913 1.3277 1.2686 1.2383 1.2919 1.3362 1.3477
2382.288 1.3444 1.3541 1.3202 1.3039 1.2776 1.2301 1.174 1.1277 1.1188 1.073
2401.578 0.9622 0.894 0.9079 0.8814 0.78499 0.77135 0.79841 0.7275 0.672 0.6967
2420.867 0.7249 0.76582 0.79293 0.75366 0.77611 0.83495 0.79935 0.8025 0.8701 0.8963
2440.157 0.9327 0.9303 0.78994 0.73645 0.8461 0.8281 0.77456 0.83569 0.9177 0.975
2459.447 0.9885 1.0437 1.0191 1.0027 1.0408 1.0723 1.1612 1.2156 1.2484 1.3861
2478.737 1.4792 1.4747 1.6305 1.6942 1.6908 1.81 1.79 1.7068 1.6328 1.5356
2498.026 1.4543 1.3101 1.2249 1.2073 1.1677 1.2062 1.3388 1.3709 1.3448 1.4146
2517.316 1.5597 1.666 1.6212 1.6493 1.74 1.79 1.83 1.91 1.95 1.85
2536.606 1.74 1.6435 1.6274 1.573 1.4254 1.2456 1.1608 1.2001 1.0375 0.9139
2555.896 0.9398 0.877 0.77317 0.73596 0.73327 0.6986 0.76248 0.8636 0.83216 0.76913
2575.186 0.80628 0.83732 0.9228 0.9777 0.9101 0.9085 0.9213 0.9035 0.8901 0.82825
2594.475 0.78412 0.78382 0.82415 0.81594 0.77595 0.75969 0.78418 0.80395 0.77851 0.80268
2613.765 0.76559 0.8963 0.9502 0.8434 0.9328 0.935 0.9175 0.9611 0.9794 1.0816
2633.055 1.0911 0.9859 0.9143 0.9106 1.0014 1.0106 0.9283 0.9141 0.82442 0.78837
2652.345 0.8603 0.9341 1.0042 0.9571 0.82577 0.78484 0.8599 0.9741 1.0007 0.9293
2671.634 0.9111 0.9083 0.9279 0.908 0.8666 0.9701 1.0578 0.9595 0.9292 0.9077
2690.924 0.9103 0.9956 0.9323 0.8782 0.9884 1.0467 1.0874 1.1415 1.0089 0.9598
2710.214 1.079 1.1499 1.1229 1.1011 1.0835 0.9884 1.0432 1.0486 0.9926 1.0261
2729.504 1.0068 1.0035 1.0084 1.1251 1.2564 1.2542 1.2744 1.2979 1.3815 1.4886
2748.794 1.5658 1.5376 1.575 1.6561 1.516 1.4013 1.4012 1.4221 1.3704 1.3169
2768.083 1.2685 1.2027 1.0584 0.9234 0.8902 0.903 0.8496 0.6966 0.639 0.7234
2787.373 0.8535 0.7926 0.59 0.53 0.602 0.629 0.599 0.582 0.574 0.663
2806.663 0.6778 0.629 0.622 0.611 0.6531 0.6486 0.6429 0.587 0.597 0.568
2825.953 0.518 0.612 0.632 0.604 0.599 0.456 0.475 0.597 0.56 0.53
2845.242 0.547 0.615 0.6434 0.618 0.593 0.6449 0.727 0.77277 0.7204 0.7041
2864.532 0.6604 0.547 0.635 0.78006 0.627 0.539 0.6989 0.7072 0.73759 0.8501
2883.822 0.77501 0.7205 0.83061 0.8828 0.81062 0.8302 0.743167 0.81091 0.8788 0.741724
2903.112 0.7066 0.6891 0.75661 0.78215 0.7228 0.568 0.585 0.6588 0.6429 0.6406
2922.401 0.569 0.6 0.588 0.465 0.597 0.6829 0.617 0.582 0.581 0.54
2941.691 0.443 0.437 0.529 0.611 0.513 0.443 0.501 0.472 0.524 0.552
2960.981 0.473 0.487 0.46 0.407 0.378 0.426 0.534 0.6511 0.556 0.445
2980.271 0.631 0.6924 0.622 0.595 0.6598 0.7112 0.6656 0.7194 0.7249 0.6915
2999.561 0.75212 0.73358 0.743656 0.77486 0.6864 0.725 0.77949 0.80929 0.8817 0.9552
3018.850 0.9249 0.9647 1.1689 1.2491 1.3542 1.3917 1.5324 1.77 1.77 1.88
3038.140 1.99 1.96 2 1.91 1.89 1.87 1.76 1.7009 1.4474 1.1812
3057.430 1.0552 1.0226 1.0753 1.0619 1.1334 1.2078 1.2383 1.3852 1.4798 1.5995
3076.720 1.86 2.05 2.35 2.69 2.78 2.78 2.77 2.77 2.61 2.39
3096.009 2.24 2.21 2.06 1.6617 1.4339 1.3935 1.2148 1.1377 1.0223 0.77635
3115.299 0.75216 0.75716 0.6816 0.78693 0.81215 0.7053 0.7221 0.76594 0.7116 0.6491
3134.589 0.6 0.594 0.6717 0.6736 0.6509 0.638 0.539 0.543 0.617 0.637
3153.879 0.6767 0.7166 0.7239 0.586 0.597 0.6492 0.615 0.75453 0.7002 0.532
3173.169 0.592 0.75131 0.77569 0.622 0.453 0.465 0.626 0.6995 0.6555 0.6857
3192.458 0.743776 0.7165 0.7134 0.7035 0.6997 0.6567 0.62 0.624 0.6806 0.691
3211.748 0.63 0.613 0.578 0.6502 0.6965 0.6438 0.6613 0.6706 0.6433 0.6674
3231.038 0.8711 0.9948 0.8715 0.79836 0.8456 0.8647 0.79826 0.75857 0.77752 0.6953
3250.328 0.57 0.614 0.541 0.447 0.76418 0.8693 0.6506 0.607 0.636 0.58
3269.617 0.6695 0.76105 0.526 0.401 0.53 0.564 0.621 0.596 0.596 0.7046
3288.907 0.7054 0.73636 0.551 0.38 0.434 0.518 0.6491 0.6801 0.601 0.553
3308.197 0.446 0.452 0.434 0.417 0.477 0.5 0.559 0.506 0.414 0.355
3327.487 0.435 0.555 0.549 0.6645 0.587 0.488 0.612 0.637 0.549 0.448
3346.777 0.396 0.396 0.402 0.428 0.546 0.461 0.164 0 0.117 0.354
3366.066 0.48 0.556 0.604 0.515 0.48 0.596 0.6541 0.555 0.488 0.544
3385.356 0.503 0.481 0.52 0.532 0.539 0.379 0.466 0.639 0.59 0.7033
3404.646 0.595 0.45 0.583 0.585 0.603 0.532 0.495 0.443 0.411 0.515
3423.936 0.6447 0.7251 0.551 0.552 0.6542 0.646 0.556 0.586 0.547 0.413
3443.225 0.398 0.437 0.597 0.64 0.613 0.78458 0.78639 0.554 0.627 0.648
3462.515 0.76932 0.80358 0.6732 0.76164 0.78262 0.8828 0.8578 0.7617 0.82066 0.9511
3481.805 1.0282 1.0442 1.0022 0.79239 0.7714 0.8712 0.948 1.0039 0.9383 0.9921
3501.095 1.091 1.1038 1.1429 1.2482 1.273 1.2483 1.1832 1.0477 1.1202 1.178
3520.385 1.1649 1.3022 1.3923 1.5643 1.6029 1.5843 1.6766 1.87 2.03 1.99
3539.674 2.06 2.08 2.15 2.24 2.33 2.46 2.45 2.59 2.67 2.69
3558.964 2.75 2.62 2.54 2.5 2.41 2.35 2.26 2.01 1.95 2.13
3578.254 2.12 1.95 1.91 1.97 1.92 1.7021 1.79 2.01 2.01 2.07
3597.544 2.09 2.06 2.14 2.14 2.03 2 1.96 1.85 1.74 1.6805
3616.833 1.6746 1.557 1.5003 1.4548 1.2703 1.1823 1.2155 1.1186 1.0906 1.2511
3636.123 1.1191 1.0106 1.145 1.0496 0.982 1.0803 0.9954 1.0228 1.0446 0.9375
3655.413 0.9216 0.6906 0.624 0.746685 0.7244 0.78897 0.8526 0.9181 0.8497 0.6488
3674.703 0.6642 0.6824 0.79157 0.81365 0.6967 0.7698 0.739495 0.7023 0.82381 0.78326
3693.993 0.6651 0.6435 0.534 0.53 0.676 0.79155 0.75926 0.6589 0.62 0.6521
3713.282 0.78925 0.7177 0.587 0.568 0.497 0.444 0.534 0.6929 0.6924 0.6782
3732.572 0.62 0.73799 0.6902 0.419 0.459 0.605 0.7274 0.638 0.531 0.536
3751.862 0.602 0.589 0.545 0.7201 0.6706 0.486 0.543 0.73177 0.77167 0.63
3771.152 0.6917 0.75974 0.603 0.688 0.81944 0.6961 0.6748 0.73598 0.79028 0.6876
3790.441 0.6481 0.6775 0.556 0.6462 0.739221 0.6687 0.8115 0.79424 0.6971 0.80538
3809.731 0.6813 0.589 0.6832 0.7185 0.752 0.77749 0.7272 0.727 0.77824 0.73267
3829.021 0.6491 0.605 0.6622 0.73416 0.78603 0.7282 0.73451 0.8993 0.8534 0.8333
3848.311 0.8554 0.81537 0.8769 0.75506 0.61 0.629 0.577 0.6716 0.78939 0.6
3867.601 0.505 0.78482 0.9008 0.77156 0.72 0.7705 0.77277 0.6623 0.7178 0.82518
3886.890 0.6533 0.6407 0.77043 0.79042 0.6422 0.578 0.6876 0.77883 0.75026 0.512
3906.180 0.401 0.589 0.746822 0.75529 0.79637 0.8445 0.8505 0.79835 0.81151 0.741526
3925.470 0.7219 0.561 0.483 0.622 0.6521 0.6815 0.7169 0.79773 0.6994 0.499
3944.760 0.582 0.59 0.605 0.75583 0.6971 0.81836 0.9411 0.81357 0.8711 0.80213
3964.049 0.634 0.7186 0.7232 0.75219 0.83453 0.80982 0.7084 0.591 0.565 0.522
3983.339 0.527 0.608 0.61 0.605 0.6511 0.6765 0.549 0.541 0.486 0.464
##END=
