##TITLE=2,6-Difluorobenzoyl chloride
##JCAMP-DX=4.24
##DATA TYPE=INFRARED SPECTRUM
##ORIGIN=EPA-IR VAPOR PHASE LIBRARY
##OWNER=SRD/NIST
Collection (C) 2018 copyright by the U.S. Secretary of Commerce
on behalf of the United States of America. All rights reserved.
##CAS REGISTRY NO=18063-02-0
##MOLFORM=C 7 H 3 Cl F 2 O
##SOURCE REFERENCE=No.306782 (NIST/EPA/NIH MS Database)
##$NIST SOURCE=MSDC-IR
##STATE=gas
##XUNITS=1/CM
##YUNITS=ABSORBANCE
##XFACTOR=1.
##YFACTOR=0.001
##DELTAX=1.92934
##FIRSTX=549.9
##LASTX=3999.5
##FIRSTY=5.083
##MAXX=3999.53
##MINX=549.863
##MAXY=0.060003
##MINY=0
##NPOINTS=1789
##XYDATA=(X++(Y..Y))
549.863 5.083 4.323 3.753 3.143 2.743 2.453 2.383 2.383 2.253 2.113
569.156 1.983 1.923 1.923 2.013 2.153 2.243 2.303 2.643 3.033 3.573
588.450 4.503 5.843 7.573 9.673 11.833 13.453 14.723 16.263 17.223 16.473
607.743 15.353 14.323 12.633 10.353 8.073 6.243 5.093 4.433 3.933 3.593
627.037 3.413 3.313 3.123 2.943 2.723 2.503 2.323 2.143 2.043 1.883
646.330 1.833 1.803 1.803 1.893 1.943 2.063 2.343 2.603 2.703 2.673
665.624 2.663 2.723 2.773 2.763 2.783 2.813 2.783 2.763 2.673 2.583
684.917 2.513 2.413 2.293 2.233 2.243 2.323 2.433 2.643 2.963 3.343
704.210 3.923 4.673 5.643 6.803 8.053 9.203 10.283 11.273 12.173 12.953
723.504 13.163 12.393 11.003 9.763 8.733 7.753 6.963 6.373 6.103 6.213
742.797 6.413 6.483 6.493 6.513 6.353 5.943 5.613 5.243 4.503 3.663
762.091 3.053 2.693 2.603 2.773 3.213 4.013 5.183 6.693 8.463 10.313
781.384 11.893 13.383 15.533 19.083 23.173 22.983 18.473 15.313 13.933 12.613
800.678 10.993 9.103 7.253 5.703 4.613 3.913 3.443 3.233 3.173 3.003
819.971 2.783 2.673 2.703 2.713 2.693 2.783 2.833 2.883 3.093 3.383
839.264 3.663 4.113 4.753 5.543 6.553 7.833 9.453 11.473 14.083 17.043
858.558 20.443 24.323 28.453 32.863 37.373 41.913 46.323 50.403 53.923 56.643
877.851 58.723 60.003 59.843 58.193 55.383 51.563 46.603 41.023 35.403 29.713
897.145 24.223 19.303 15.133 11.913 9.663 7.973 6.713 5.823 5.183 4.723
916.438 4.323 3.933 3.693 3.493 3.253 3.113 3.003 2.883 2.873 2.883
935.732 2.913 2.993 3.083 3.203 3.313 3.453 3.533 3.583 3.623 3.563
955.025 3.473 3.313 3.083 2.883 2.703 2.493 2.253 2.033 1.923 1.913
974.318 1.843 1.773 1.793 1.813 1.893 2.023 2.133 2.323 2.583 2.963
993.612 3.513 4.233 5.133 6.463 8.303 10.663 13.623 17.133 21.043 24.903
1012.905 28.183 30.513 31.753 31.983 31.653 30.763 28.533 24.853 20.473 16.063
1032.199 12.083 8.813 6.323 4.573 3.443 2.683 2.193 1.903 1.743 1.673
1051.492 1.633 1.533 1.523 1.633 1.633 1.513 1.3498 1.2633 1.2285 1.0935
1070.786 0.9897 0.9283 0.9002 0.8651 0.7842 0.7021 0.6715 0.618 0.5738 0.5602
1090.079 0.46211 0.4053 0.4183 0.3782 0.3463 0.339 0.306 0.3579 0.4083 0.3566
1109.372 0.3756 0.47951 0.4376 0.3921 0.451999 0.452154 0.4264 0.45755 0.447228 0.4134
1128.666 0.5522 0.6374 0.6514 0.8177 0.788 0.7592 0.9825 1.1772 1.3251 1.553
1147.959 1.623 1.583 1.593 1.723 2.113 2.503 2.793 3.033 3.303 3.733
1167.253 4.273 4.743 5.193 5.813 6.543 7.263 8.323 9.993 11.943 14.193
1186.546 16.673 19.363 21.783 23.833 25.383 26.023 25.733 24.343 22.153 19.413
1205.840 16.193 13.033 10.483 8.223 6.633 5.643 5.303 5.253 5.183 5.493
1225.133 5.983 6.733 7.963 9.623 11.633 14.013 16.613 18.753 19.953 20.393
1244.426 20.053 19.723 19.593 18.263 15.683 12.703 9.743 7.233 5.413 4.243
1263.720 3.573 3.243 3.183 3.283 3.573 4.043 4.693 5.613 6.833 8.283
1283.013 9.913 11.783 13.663 15.093 15.833 16.063 15.683 14.583 12.963 11.253
1302.307 9.543 7.573 5.543 3.863 2.763 2.163 1.823 1.613 1.493 1.402
1321.600 1.341 1.3135 1.2665 1.2349 1.1565 1.0481 0.9568 0.8808 0.8333 0.803
1340.894 0.7574 0.6972 0.6614 0.6575 0.7158 0.7622 0.7433 0.744 0.7921 0.8219
1360.187 0.8374 0.8739 0.8716 0.8583 0.9264 0.9739 0.9502 0.9621 0.9423 0.8908
1379.480 0.8422 0.8136 0.7923 0.7322 0.6684 0.6354 0.6156 0.5613 0.53162 0.52056
1398.774 0.51391 0.5543 0.6277 0.6586 0.6519 0.6727 0.762 0.7891 0.8193 0.927
1418.067 1.0004 1.0498 1.0816 1.1192 1.1679 1.256 1.3545 1.463 1.613 1.783
1437.361 2.003 2.323 2.753 3.283 3.933 4.743 5.843 7.273 9.143 11.593
1456.654 14.763 18.763 23.403 28.593 34.033 39.183 43.393 46.093 46.973 46.423
1475.948 44.533 40.623 34.853 28.353 22.293 17.263 13.293 10.173 7.843 6.313
1495.241 5.303 4.593 4.053 3.603 3.253 2.933 2.653 2.433 2.263 2.093
1514.534 1.943 1.883 1.913 1.953 2.053 2.193 2.323 2.513 2.763 3.033
1533.828 3.303 3.563 3.823 4.083 4.313 4.523 4.703 4.853 5.003 5.183
1553.121 5.333 5.483 5.653 5.863 6.143 6.403 6.653 6.973 7.333 7.763
1572.415 8.333 8.973 9.733 10.713 11.843 13.153 14.673 16.163 17.473 18.593
1591.708 19.403 19.973 20.393 20.533 20.423 20.173 20.003 20.353 21.613 23.813
1611.002 26.573 29.503 31.973 33.593 34.143 33.613 32.073 29.623 26.383 22.573
1630.295 18.563 14.583 11.003 8.123 6.123 4.783 3.813 3.093 2.533 2.123
1649.588 1.863 1.673 1.533 1.543 1.533 1.463 1.417 1.3567 1.3267 1.2828
1668.882 1.2206 1.2001 1.1462 1.0984 1.1102 1.1233 1.0664 0.9865 0.982 1.01
1688.175 1.0444 1.081 1.0703 1.0796 1.1324 1.195 1.3206 1.543 1.753 1.903
1707.469 2.073 2.283 2.513 2.703 2.913 3.143 3.353 3.523 3.723 4.003
1726.762 4.353 4.723 5.113 5.563 6.053 6.633 7.263 7.933 8.623 9.333
1746.056 10.023 10.683 11.293 11.893 12.403 12.823 13.223 13.503 13.773 13.993
1765.349 14.143 14.263 14.363 14.483 14.653 14.903 15.333 15.993 17.033 18.513
1784.642 20.563 23.313 26.723 30.723 35.213 40.003 44.733 49.193 53.133 56.053
1803.936 57.153 55.683 51.883 47.043 42.083 37.213 32.363 27.543 22.973 18.983
1823.229 15.833 13.443 11.673 10.333 9.223 8.283 7.493 6.823 6.273 5.703
1842.523 5.173 4.693 4.213 3.813 3.473 3.073 2.713 2.443 2.193 1.943
1861.816 1.663 1.4405 1.3419 1.2297 1.1179 1.0472 0.9917 0.9541 0.9787 1.0269
1881.110 0.9983 0.9709 0.9701 0.9752 0.9918 0.9899 0.9505 0.832 0.7082 0.6775
1900.403 0.6362 0.5822 0.5567 0.5528 0.5826 0.6198 0.6874 0.7734 0.8833 1.0328
1919.696 1.124 1.2077 1.2557 1.2692 1.2689 1.2005 1.1081 1.0029 0.8848 0.7324
1938.990 0.5512 0.448255 0.3986 0.316 0.265 0.252 0.23 0.23 0.243 0.198
1958.283 0.163 0.175 0.173 0.141 0.133 0.132 0.139 0.16 0.168 0.182
1977.577 0.198 0.194 0.195 0.222 0.222 0.207 0.216 0.217 0.193 0.167
1996.870 0.164 0.171 0.131 0.072 0.034 0 0.017 0.041 0.059 0.095
2016.164 0.09 0.081 0.051 0.067 0.089 0.068 0.118 0.162 0.167 0.199
2035.457 0.209 0.204 0.184 0.186 0.218 0.195 0.152 0.177 0.233 0.232
2054.750 0.189 0.201 0.244 0.249 0.257 0.259 0.245 0.245 0.28 0.322
2074.044 0.328 0.316 0.282 0.248 0.242 0.229 0.185 0.154 0.152 0.142
2093.337 0.133 0.112 0.107 0.092 0.082 0.095 0.092 0.083 0.101 0.081
2112.631 0.079 0.099 0.07 0.098 0.11 0.108 0.113 0.089 0.092 0.087
2131.924 0.056 0.056 0.045 0.043 0.068 0.094 0.104 0.091 0.099 0.089
2151.218 0.063 0.078 0.089 0.077 0.115 0.111 0.084 0.119 0.123 0.133
2170.511 0.153 0.128 0.122 0.139 0.116 0.105 0.127 0.129 0.133 0.154
2189.804 0.151 0.103 0.116 0.155 0.183 0.23 0.229 0.221 0.22 0.212
2209.098 0.222 0.224 0.216 0.211 0.23 0.3 0.304 0.271 0.269 0.258
2228.391 0.24 0.211 0.177 0.148 0.132 0.157 0.177 0.17 0.178 0.16
2247.685 0.123 0.121 0.151 0.205 0.217 0.172 0.152 0.171 0.194 0.185
2266.978 0.209 0.241 0.212 0.194 0.178 0.183 0.201 0.238 0.316 0.313
2286.272 0.269 0.314 0.3867 0.382 0.443706 0.53559 0.576 0.6339 0.6656 0.6941
2305.565 0.7267 0.7144 0.6704 0.627 0.5726 0.543 0.51546 0.47289 0.4328 0.3684
2324.858 0.318 0.287 0.248 0.219 0.221 0.249 0.257 0.245 0.241 0.218
2344.152 0.231 0.283 0.3 0.268 0.267 0.308 0.283 0.21 0.182 0.208
2363.445 0.232 0.252 0.261 0.27 0.262 0.236 0.251 0.24 0.21 0.223
2382.739 0.218 0.195 0.188 0.243 0.277 0.243 0.181 0.162 0.18 0.158
2402.032 0.135 0.096 0.106 0.124 0.056 0.038 0.073 0.058 0.054 0.05
2421.326 0.056 0.062 0.04 0.028 0.07 0.139 0.111 0.06 0.083 0.148
2440.619 0.192 0.169 0.122 0.125 0.1 0.086 0.111 0.125 0.113 0.126
2459.912 0.162 0.163 0.157 0.171 0.204 0.187 0.189 0.221 0.26 0.297
2479.206 0.289 0.248 0.25 0.319 0.3941 0.4128 0.3935 0.3552 0.31 0.277
2498.499 0.26 0.259 0.252 0.257 0.246 0.229 0.243 0.25 0.274 0.3684
2517.793 0.4106 0.3884 0.3936 0.3825 0.3951 0.45949 0.48721 0.45438 0.43492 0.4186
2537.086 0.3903 0.3697 0.337 0.309 0.275 0.234 0.234 0.227 0.193 0.16
2556.380 0.164 0.134 0.076 0.083 0.109 0.111 0.119 0.113 0.078 0.079
2575.673 0.128 0.16 0.12 0.073 0.115 0.149 0.12 0.116 0.142 0.16
2594.966 0.155 0.12 0.104 0.098 0.071 0.093 0.108 0.112 0.143 0.155
2614.260 0.168 0.204 0.226 0.208 0.15 0.122 0.137 0.133 0.097 0.165
2633.553 0.222 0.154 0.14 0.164 0.161 0.182 0.143 0.133 0.135 0.115
2652.847 0.15 0.169 0.168 0.125 0.094 0.122 0.149 0.215 0.233 0.204
2672.140 0.196 0.162 0.149 0.156 0.156 0.163 0.211 0.197 0.181 0.185
2691.434 0.224 0.251 0.187 0.179 0.22 0.223 0.176 0.196 0.255 0.249
2710.727 0.234 0.29 0.28 0.222 0.179 0.148 0.179 0.215 0.227 0.208
2730.020 0.233 0.281 0.277 0.292 0.3665 0.44048 0.3799 0.3438 0.43432 0.4298
2749.314 0.4295 0.44302 0.3551 0.317 0.3456 0.329 0.413 0.4288 0.32 0.316
2768.607 0.3563 0.349 0.3866 0.3475 0.248 0.265 0.247 0.234 0.268 0.224
2787.901 0.134 0.119 0.169 0.225 0.215 0.208 0.221 0.182 0.14 0.131
2807.194 0.111 0.127 0.161 0.143 0.142 0.099 0.089 0.129 0.16 0.096
2826.488 0.045 0.124 0.16 0.098 0.094 0.18 0.151 0.17 0.165 0.072
2845.781 0.14 0.122 0.092 0.163 0.162 0.119 0.097 0.062 0.112 0.219
2865.074 0.23 0.206 0.156 0.162 0.165 0.138 0.17 0.193 0.135 0.145
2884.368 0.221 0.166 0.097 0.16 0.244 0.239 0.218 0.182 0.153 0.225
2903.661 0.295 0.199 0.156 0.181 0.207 0.277 0.308 0.305 0.293 0.21
2922.955 0.145 0.188 0.169 0.158 0.189 0.225 0.131 0.141 0.212 0.248
2942.248 0.218 0.145 0.171 0.187 0.2 0.201 0.241 0.299 0.257 0.214
2961.542 0.283 0.316 0.272 0.194 0.076 0.098 0.215 0.276 0.3529 0.246
2980.835 0.228 0.257 0.19 0.149 0.141 0.18 0.3562 0.50485 0.3729 0.29
3000.128 0.255 0.28 0.309 0.343 0.4318 0.4119 0.4064 0.3979 0.337 0.301
3019.422 0.299 0.3524 0.46313 0.4823 0.4365 0.48826 0.5559 0.5851 0.5882 0.5514
3038.715 0.5712 0.6256 0.6353 0.6321 0.6073 0.51844 0.54015 0.5718 0.4289 0.46541
3058.009 0.53283 0.451684 0.4066 0.4134 0.49696 0.5789 0.51125 0.50922 0.6847 0.7371
3077.302 0.7211 0.7788 0.796 0.8857 0.9563 0.9467 0.9495 0.9297 0.9489 0.9427
3096.596 0.777 0.6664 0.7331 0.8064 0.6859 0.50729 0.49645 0.51725 0.4314 0.259
3115.889 0.173 0.083 0.068 0.069 0.044 0.121 0.14 0.152 0.229 0.319
3135.182 0.301 0.189 0.173 0.261 0.3534 0.3516 0.172 0.062 0.183 0.229
3154.476 0.307 0.259 0.154 0.229 0.172 0.193 0.34 0.3708 0.322 0.335
3173.769 0.321 0.332 0.355 0.332 0.243 0.071 0.111 0.212 0.239 0.265
3193.063 0.207 0.208 0.319 0.328 0.342 0.48566 0.48226 0.43684 0.316 0.155
3212.356 0.175 0.204 0.149 0.077 0.088 0.292 0.4082 0.43721 0.5476 0.4253
3231.650 0.242 0.115 0.179 0.266 0.283 0.303 0.25 0.304 0.3739 0.339
3250.943 0.3518 0.432 0.46079 0.4027 0.236 0.134 0.185 0.267 0.28 0.327
3270.236 0.24 0.203 0.165 0.203 0.4233 0.4115 0.283 0.197 0.287 0.234
3289.530 0.165 0.237 0.273 0.276 0.197 0.268 0.4025 0.3752 0.252 0.18
3308.823 0.276 0.3 0.279 0.138 0.121 0.248 0.261 0.34 0.308 0.268
3328.117 0.338 0.3911 0.3718 0.401 0.384 0.195 0.11 0.18 0.265 0.252
3347.410 0.253 0.3731 0.3784 0.298 0.278 0.334 0.341 0.328 0.238 0.248
3366.704 0.306 0.3657 0.44191 0.3831 0.325 0.282 0.317 0.3983 0.4062 0.339
3385.997 0.267 0.198 0.199 0.331 0.3638 0.184 0.099 0.17 0.258 0.267
3405.290 0.322 0.3555 0.209 0.09 0.153 0.288 0.305 0.304 0.341 0.297
3424.584 0.199 0.296 0.4163 0.3766 0.3921 0.3958 0.26 0.228 0.257 0.3823
3443.877 0.46128 0.377 0.415 0.3442 0.338 0.4231 0.48441 0.49034 0.3748 0.32
3463.171 0.289 0.47581 0.5431 0.43518 0.44774 0.5637 0.571 0.3984 0.317 0.221
3482.464 0.229 0.3654 0.51006 0.53392 0.3492 0.329 0.333 0.225 0.314 0.3723
3501.758 0.4258 0.48529 0.45551 0.6011 0.68 0.5971 0.5613 0.6329 0.75 0.6499
3521.051 0.54006 0.5764 0.6599 0.7297 0.7454 0.7297 0.7817 0.7886 0.7466 0.6771
3540.344 0.6772 0.7865 0.8548 0.8714 0.8909 0.9545 0.9798 1.0597 1.0141 0.9672
3559.638 0.9003 0.8495 0.8307 0.7699 0.8931 0.9613 0.849 0.8273 0.8308 0.7363
3578.931 0.7422 0.7504 0.693 0.7099 0.8243 0.8914 0.8409 0.756 0.8324 0.8459
3598.225 0.7476 0.7021 0.7273 0.8884 0.8848 0.7151 0.7195 0.782 0.6616 0.5558
3617.518 0.6596 0.6557 0.5525 0.51249 0.48165 0.5851 0.6465 0.51155 0.50301 0.6053
3636.812 0.6395 0.6042 0.44075 0.4045 0.51448 0.53111 0.393 0.3522 0.35 0.3689
3656.105 0.4019 0.315 0.319 0.4168 0.3968 0.334 0.339 0.261 0.319 0.387
3675.398 0.4164 0.53556 0.53905 0.3955 0.3676 0.3754 0.276 0.317 0.47576 0.51131
3694.692 0.44119 0.49974 0.577 0.46915 0.38 0.3884 0.3433 0.234 0.22 0.3618
3713.985 0.3836 0.3519 0.4014 0.3684 0.3952 0.5583 0.5738 0.4251 0.3956 0.4203
3733.279 0.4888 0.4635 0.3573 0.3791 0.3906 0.424 0.49187 0.51477 0.3782 0.3708
3752.572 0.4091 0.4063 0.4275 0.43378 0.52971 0.53931 0.51046 0.51469 0.5561 0.5659
3771.866 0.5555 0.49331 0.446209 0.47027 0.44693 0.4413 0.4328 0.4278 0.48254 0.45543
3791.159 0.298 0.333 0.49097 0.43689 0.306 0.289 0.3465 0.3819 0.46196 0.449682
3810.452 0.4191 0.4303 0.4179 0.44137 0.414 0.45988 0.394 0.318 0.3949 0.3959
3829.746 0.324 0.33 0.3584 0.3745 0.4202 0.451275 0.4064 0.338 0.402 0.3974
3849.039 0.4134 0.50997 0.52366 0.49543 0.4279 0.447354 0.50512 0.50666 0.4972 0.4327
3868.333 0.4978 0.47575 0.3649 0.341 0.4298 0.5866 0.52999 0.4419 0.3927 0.3445
3887.626 0.3502 0.4307 0.4262 0.45755 0.52562 0.48884 0.53294 0.54031 0.4969 0.5666
3906.920 0.5475 0.45944 0.49304 0.5473 0.46119 0.3451 0.3549 0.3805 0.4018 0.33
3926.213 0.4004 0.48004 0.3767 0.376 0.3845 0.382 0.4062 0.49076 0.5858 0.51666
3945.506 0.407 0.3686 0.43392 0.46313 0.47243 0.48285 0.3701 0.4355 0.48521 0.4863
3964.800 0.442875 0.4182 0.49432 0.448654 0.3925 0.4255 0.43957 0.3745 0.3524 0.348
3984.093 0.3538 0.3757 0.4039 0.4131 0.464 0.49475 0.5506 0.49741 0.339
##END=
