##TITLE=2,2'-Biphenol
##JCAMP-DX=4.24
##DATA TYPE=INFRARED SPECTRUM
##ORIGIN=NIST Mass Spectrometry Data Center
##OWNER=NIST Standard Reference Data Program
Collection (C) 2018 copyright by the U.S. Secretary of Commerce
on behalf of the United States of America. All rights reserved.
##CAS REGISTRY NO=1806-29-7
##MOLFORM=C 12 H 10 O 2
##$NIST SOURCE=MSDC-IR
##SPECTROMETER/DATA SYSTEM=HP-GC/MS/IRD
##STATE=gas
##XUNITS=1/CM
##YUNITS=ABSORBANCE
##XFACTOR=1.0
##YFACTOR=0.000002300
##DELTAX=4.0
##FIRSTX=550.0
##LASTX=3846.0
##FIRSTY=0.000918
##MAXX=3846
##MINX=550
##MAXY=0.023
##MINY=0
##NPOINTS=825
##XYDATA=(X++(Y..Y))
550.0 399 265 162 208 271 268 257 215 142 142
590.0 135 123 157 181 197 272 403 489 513 432
630.0 314 238 193 185 180 177 196 208 184 183
670.0 209 230 269 277 269 328 389 432 459 503
710.0 539 544 604 713 872 1137 1665 2612 4000 5610
750.0 6806 6851 5699 3996 2449 1412 882 649 541 485
790.0 448 448 478 566 741 931 1087 1131 1023 856
830.0 756 743 723 670 608 525 445 377 301 221
870.0 145 92 60 44 41 34 20 24 34 38
910.0 44 49 58 74 103 148 208 230 218 180
950.0 108 58 25 3 17 33 49 72 94 136
990.0 217 348 562 775 866 820 646 455 381 403
1030.0 471 547 583 528 436 319 227 180 167 166
1070.0 167 187 217 277 360 441 492 525 545 541
1110.0 527 522 507 499 527 599 749 1040 1460 1931
1150.0 2309 2487 2541 2661 2986 3502 4073 4576 5001 5320
1190.0 5491 5423 5049 4453 3817 3285 2989 3009 3263 3575
1230.0 3779 3778 3605 3284 2898 2539 2275 2153 2195 2395
1270.0 2731 3141 3495 3621 3420 2896 2192 1561 1158 991
1310.0 994 1090 1247 1467 1736 2005 2169 2100 1776 1306
1350.0 876 578 400 301 246 212 177 157 151 156
1390.0 160 175 208 232 261 305 361 442 540 658
1430.0 815 1021 1281 1598 1958 2309 2606 2878 3213 3801
1470.0 4619 5345 5567 5117 4239 3442 2937 2552 2137 1678
1510.0 1218 854 597 437 349 318 315 333 366 400
1550.0 460 563 723 957 1252 1583 1870 2030 2010 1840
1590.0 1603 1394 1279 1262 1241 1126 920 665 427 257
1630.0 157 103 73 57 52 55 55 54 51 53
1670.0 68 88 113 153 194 206 192 160 133 118
1710.0 115 119 111 99 88 57 35 33 23 15
1750.0 17 19 23 30 39 54 71 92 124 171
1790.0 207 214 201 169 127 99 95 96 96 97
1830.0 92 79 51 25 22 24 26 36 50 62
1870.0 76 83 80 86 98 120 160 210 248 263
1910.0 238 193 149 123 139 171 200 211 176 118
1950.0 69 35 25 22 19 17 21 29 29 27
1990.0 23 25 31 29 24 23 29 25 25 33
2030.0 31 31 39 41 42 45 43 43 36 33
2070.0 36 41 45 39 38 40 40 38 40 39
2110.0 27 23 25 25 19 17 24 20 12 9
2150.0 6 6 12 13 11 13 16 20 17 17
2190.0 21 23 23 19 18 17 15 15 14 19
2230.0 24 23 24 22 30 32 36 51 53 50
2270.0 51 50 44 48 57 63 61 59 57 59
2310.0 63 57 52 46 46 45 38 39 36 31
2350.0 25 19 17 22 22 28 41 43 45 49
2390.0 60 66 66 62 56 58 61 64 72 80
2430.0 85 86 86 89 89 87 80 82 86 91
2470.0 96 86 83 85 83 73 68 80 90 91
2510.0 87 83 84 82 69 55 51 46 41 36
2550.0 33 32 30 28 27 33 27 23 26 28
2590.0 22 12 18 22 26 30 32 34 35 35
2630.0 24 22 28 30 30 32 30 28 33 33
2670.0 32 27 18 11 7 18 22 18 20 22
2710.0 22 29 35 30 38 42 31 25 20 9
2750.0 15 18 13 11 9 15 11 12 11 5
2790.0 8 12 14 12 10 11 11 12 9 7
2830.0 7 1 0 1 1 1 7 15 13 10
2870.0 14 12 15 20 21 28 36 39 31 22
2910.0 17 26 21 4 8 17 20 16 16 20
2950.0 31 27 22 27 18 11 13 24 31 37
2990.0 50 63 77 101 137 185 247 323 435 587
3030.0 756 932 1087 1195 1230 1210 1183 1201 1374 1653
3070.0 1859 1897 1758 1509 1272 1077 868 665 507 383
3110.0 296 238 195 163 135 126 113 101 102 99
3150.0 91 88 86 73 59 54 41 34 35 31
3190.0 28 27 27 14 6 11 17 26 20 13
3230.0 10 7 15 25 24 21 28 31 31 38
3270.0 28 22 30 23 20 25 22 20 21 20
3310.0 22 36 47 46 41 37 38 41 50 47
3350.0 36 38 42 40 35 33 39 42 50 56
3390.0 55 55 44 33 30 38 48 54 55 51
3430.0 49 51 51 50 52 60 64 77 96 95
3470.0 88 98 129 164 196 228 247 248 229 225
3510.0 221 210 217 239 255 277 310 339 378 452
3550.0 556 716 949 1355 2248 4245 7196 9520 10000 8494
3590.0 5745 3374 2052 1353 949 698 514 405 349 316
3630.0 350 450 585 733 830 807 657 461 292 181
3670.0 125 105 80 51 37 36 31 28 24 11
3710.0 9 18 21 20 16 24 22 5 4 12
3750.0 18 18 19 13 12 23 30 23 17 15
3790.0 15 15 14 16 20 20 8 13 14 10
3830.0 17 13 17 26 14
##END=
