##TITLE=Di-n-propylaminoacetonitrile
##JCAMP-DX=4.24
##DATA TYPE=INFRARED SPECTRUM
##ORIGIN=EPA-IR VAPOR PHASE LIBRARY
##OWNER=SRD/NIST
Collection (C) 2018 copyright by the U.S. Secretary of Commerce
on behalf of the United States of America. All rights reserved.
##CAS REGISTRY NO=18071-35-7
##MOLFORM=C 8 H 16 N 2
##$NIST SOURCE=MSDC-IR
##STATE=gas
##XUNITS=1/CM
##YUNITS=ABSORBANCE
##XFACTOR=1.
##YFACTOR=0.001
##DELTAX=1.92934
##FIRSTX=549.9
##LASTX=3999.5
##FIRSTY=0.756
##MAXX=3999.53
##MINX=549.863
##MAXY=0.08282
##MINY=0
##NPOINTS=1789
##XYDATA=(X++(Y..Y))
549.863 0.756 0.946 0.791 0.672 0.786 0.675 0.629 0.72 0.802 0.8
569.156 0.573 0.475 0.455 0.611 0.804 0.823 0.818 0.814 0.811 0.88
588.450 0.924 0.94 0.993 0.942 0.819 0.868 0.97 0.895 0.871 0.897
607.743 0.835 0.915 0.982 0.979 1.036 1.028 1.032 1.071 1.024 0.904
627.037 0.863 0.933 0.91 0.822 0.743 0.641 0.641 0.747 0.776 0.737
646.330 0.656 0.604 0.632 0.66 0.697 0.649 0.63 0.598 0.582 0.637
665.624 0.638 0.61 0.636 0.664 0.689 0.728 0.692 0.687 0.738 0.801
684.917 0.916 0.946 0.897 0.894 0.977 1.002 0.96 1.076 1.1047 1.096
704.210 1.20257 1.26205 1.22865 1.26953 1.6606 1.8791 1.7057 1.61 1.5568 1.5702
723.504 1.6307 1.6114 1.6004 1.7346 1.8368 1.9075 2.0467 2.0676 2.1586 2.34
742.797 2.49 2.63 2.64 2.7 2.8 2.78 2.76 2.74 2.69 2.6
762.091 2.51 2.38 2.24 2.1069 1.9981 1.8717 1.7144 1.5953 1.5633 1.5086
781.384 1.427 1.4094 1.3391 1.3349 1.3006 1.23339 1.2908 1.3423 1.3738 1.369
800.678 1.371 1.4955 1.5743 1.6469 1.7709 1.83 1.9705 2.22 2.49 2.71
819.971 2.97 3.36 3.67 3.93 4.28 4.63 4.97 5.25 5.47 5.67
839.264 5.85 6.02 6.19 6.35 6.56 6.86 7.19 7.56 7.94 8.39
858.558 8.86 9.16 9.37 9.42 9.36 9.15 8.71 8.13 7.5 6.91
877.851 6.32 5.76 5.31 4.96 4.7 4.55 4.42 4.27 4.13 3.97
897.145 3.78 3.64 3.49 3.38 3.27 3.14 3.05 2.95 2.93 2.97
916.438 2.93 2.9 2.97 3.09 3.23 3.39 3.59 3.91 4.36 4.83
935.732 5.37 5.98 6.65 7.34 8.07 8.68 9.15 9.5 9.6 9.55
955.025 9.28 8.79 8.21 7.55 6.84 6.12 5.44 4.78 4.31 3.94
974.318 3.54 3.17 2.85 2.64 2.39 2.2 2.0765 1.9172 1.8025 1.7354
993.612 1.6886 1.6937 1.6492 1.6659 1.748 1.7969 1.8998 2.0227 2.19 2.4
1012.905 2.69 3.01 3.36 3.75 4.23 4.74 5.23 5.76 6.28 6.69
1032.199 6.93 7.09 7.17 7.12 6.99 6.81 6.63 6.47 6.38 6.43
1051.492 6.63 6.96 7.48 8.22 9.11 10.23 11.54 13.01 14.6 16.2
1070.786 17.79 19.29 20.67 21.8 22.63 23.17 23.37 23.32 22.89 22.18
1090.079 21.31 20.29 19.15 17.93 16.74 15.56 14.38 13.3 12.37 11.53
1109.372 10.73 10.03 9.4 8.8 8.31 7.91 7.56 7.22 6.89 6.64
1128.666 6.44 6.19 6.01 5.99 5.98 6.01 6.14 6.38 6.76 7.19
1147.959 7.64 8.1 8.56 9.06 9.42 9.61 9.75 9.72 9.58 9.44
1167.253 9.2 8.92 8.74 8.64 8.59 8.58 8.61 8.66 8.78 8.91
1186.546 8.94 8.86 8.61 8.25 7.8 7.2 6.55 5.89 5.23 4.68
1205.840 4.19 3.72 3.31 2.99 2.73 2.57 2.48 2.36 2.28 2.24
1225.133 2.1757 2.1562 2.1685 2.19 2.24 2.34 2.49 2.6 2.7 2.84
1244.426 2.98 3.09 3.24 3.42 3.59 3.78 4.02 4.19 4.36 4.57
1263.720 4.71 4.86 5.05 5.2 5.31 5.36 5.4 5.46 5.5 5.53
1283.013 5.57 5.66 5.78 5.91 6.13 6.38 6.64 6.93 7.25 7.59
1302.307 7.91 8.25 8.62 9.06 9.49 9.9 10.37 10.86 11.29 11.61
1321.600 11.79 11.87 11.85 11.68 11.46 11.23 10.96 10.64 10.36 10.11
1340.894 9.92 9.8 9.65 9.54 9.5 9.45 9.42 9.34 9.28 9.3
1360.187 9.24 9.2 9.23 9.19 9.1 9.1 9.16 9.27 9.5 9.74
1379.480 9.94 10.14 10.44 10.58 10.46 10.25 9.96 9.45 8.71 7.99
1398.774 7.23 6.49 5.89 5.43 5.12 4.94 4.87 4.86 5 5.27
1418.067 5.63 6.09 6.64 7.26 7.89 8.45 8.95 9.5 9.95 10.12
1437.361 10.12 10.09 10.13 10.28 10.42 10.65 11.05 11.52 12.08 12.69
1456.654 13.38 14.23 14.91 15.38 15.63 15.66 15.44 15 14.34 13.51
1475.948 12.44 11.16 9.85 8.57 7.45 6.42 5.48 4.7 4.17 3.71
1495.241 3.27 2.97 2.77 2.63 2.53 2.37 2.1195 2.0558 2.0104 1.9394
1514.534 1.9097 1.8126 1.7796 1.6889 1.5908 1.5809 1.5277 1.4895 1.4595 1.3909
1533.828 1.3901 1.3743 1.2974 1.22439 1.1604 1.1628 1.19057 1.18159 1.0948 1.052
1553.121 1.031 0.972 0.872 0.762 0.854 0.893 0.888 0.926 0.92 0.916
1572.415 0.9 0.864 0.851 0.918 0.925 0.875 0.872 0.854 0.826 0.85
1591.708 0.855 0.801 0.795 0.813 0.812 0.813 0.801 0.82 0.848 0.799
1611.002 0.821 0.867 0.839 0.814 0.852 0.869 0.811 0.815 0.776 0.73
1630.295 0.82 0.855 0.773 0.77 0.82 0.836 0.805 0.799 0.78 0.779
1649.588 0.83 0.743 0.683 0.779 0.837 0.866 0.89 0.878 0.919 0.881
1668.882 0.802 0.808 0.773 0.758 0.761 0.731 0.704 0.704 0.697 0.691
1688.175 0.735 0.763 0.773 0.737 0.648 0.636 0.624 0.652 0.667 0.635
1707.469 0.669 0.663 0.699 0.686 0.609 0.614 0.671 0.749 0.725 0.67
1726.762 0.641 0.548 0.536 0.521 0.482 0.606 0.641 0.606 0.622 0.583
1746.056 0.572 0.578 0.534 0.557 0.585 0.594 0.628 0.644 0.635 0.622
1765.349 0.633 0.686 0.712 0.657 0.631 0.681 0.769 0.799 0.784 0.732
1784.642 0.69 0.711 0.735 0.736 0.691 0.654 0.698 0.703 0.661 0.687
1803.936 0.684 0.678 0.681 0.682 0.685 0.676 0.634 0.661 0.716 0.718
1823.229 0.708 0.688 0.691 0.666 0.681 0.711 0.71 0.735 0.712 0.705
1842.523 0.711 0.683 0.706 0.76 0.772 0.729 0.714 0.749 0.783 0.787
1861.816 0.8 0.826 0.836 0.805 0.751 0.75 0.776 0.776 0.781 0.805
1881.110 0.79 0.816 0.843 0.823 0.851 0.866 0.843 0.863 0.895 0.839
1900.403 0.828 0.903 0.904 0.885 0.906 0.913 0.942 0.914 0.89 0.903
1919.696 0.876 0.902 0.911 0.901 0.908 0.881 0.861 0.9 0.904 0.867
1938.990 0.858 0.837 0.827 0.85 0.882 0.857 0.836 0.86 0.866 0.826
1958.283 0.812 0.879 0.857 0.798 0.822 0.839 0.84 0.815 0.814 0.823
1977.577 0.813 0.793 0.8 0.856 0.908 0.896 0.865 0.88 0.867 0.861
1996.870 0.871 0.872 0.875 0.882 0.855 0.87 0.875 0.85 0.903 0.919
2016.164 0.894 0.906 0.924 0.915 0.873 0.843 0.893 0.953 0.933 0.888
2035.457 0.91 0.918 0.897 0.897 0.902 0.922 0.895 0.858 0.863 0.927
2054.750 0.957 0.932 0.897 0.854 0.848 0.868 0.901 0.884 0.93 0.971
2074.044 0.936 0.893 0.858 0.901 0.938 0.929 0.942 0.948 0.902 0.886
2093.337 0.923 0.939 0.937 0.928 0.901 0.92 0.948 0.951 0.954 0.915
2112.631 0.897 0.89 0.865 0.887 0.924 0.949 0.968 1.004 0.996 0.977
2131.924 0.999 0.997 0.976 0.972 0.983 0.965 0.949 0.961 0.971 0.963
2151.218 0.953 0.992 1.05 1.057 1.047 1.04 0.989 0.995 1.054 1.058
2170.511 1.0901 1.1251 1.11 1.1011 1.0947 1.1175 1.1414 1.117 1.0841 1.077
2189.804 1.0816 1.0988 1.1194 1.1314 1.1368 1.1223 1.1175 1.122 1.1353 1.1579
2209.098 1.1395 1.1275 1.1415 1.1508 1.17351 1.17449 1.1676 1.19169 1.18625 1.18551
2228.391 1.1832 1.17166 1.1484 1.1257 1.1475 1.1395 1.1325 1.1498 1.1517 1.1353
2247.685 1.1421 1.1484 1.138 1.1344 1.112 1.0975 1.1208 1.1459 1.1109 1.076
2266.978 1.1253 1.1467 1.116 1.1052 1.1143 1.1367 1.1587 1.1181 1.1185 1.1424
2286.272 1.0881 1.0806 1.1068 1.1142 1.1229 1.1036 1.0951 1.116 1.1329 1.0963
2305.565 1.046 1.06 1.062 1.039 1.027 1.08 1.069 1.032 1.045 1
2324.858 1.015 1.06 1.049 1.054 1.0872 1.1344 1.1486 1.1309 1.1531 1.165
2344.152 1.1524 1.17849 1.20282 1.17421 1.1695 1.17888 1.18553 1.19849 1.18335 1.19287
2363.445 1.20268 1.19608 1.21343 1.23311 1.25739 1.2927 1.2861 1.24581 1.2821 1.3234
2382.739 1.3682 1.4067 1.3557 1.3427 1.3505 1.3564 1.3584 1.3466 1.3542 1.339
2402.032 1.3432 1.3473 1.3396 1.339 1.3228 1.298 1.2807 1.2886 1.26986 1.26302
2421.326 1.27187 1.2496 1.2242 1.1701 1.134 1.1168 1.1067 1.1491 1.1671 1.17039
2440.619 1.17167 1.1616 1.159 1.17224 1.17344 1.1565 1.18073 1.1754 1.1655 1.17737
2459.912 1.20078 1.22824 1.20458 1.18566 1.17853 1.19468 1.1839 1.1584 1.1528 1.18244
2479.206 1.25553 1.25717 1.2265 1.19706 1.20086 1.22531 1.27263 1.3031 1.27479 1.25352
2498.499 1.1911 1.1511 1.19356 1.23097 1.22973 1.25442 1.24914 1.23374 1.296 1.3072
2517.793 1.27397 1.26038 1.2867 1.3402 1.3347 1.309 1.3005 1.3203 1.3545 1.3478
2537.086 1.3458 1.376 1.3859 1.4163 1.4113 1.439 1.4918 1.4595 1.4236 1.409
2556.380 1.4345 1.4955 1.5321 1.5309 1.5495 1.5292 1.529 1.5874 1.579 1.5573
2575.673 1.5919 1.611 1.6079 1.6414 1.6839 1.7211 1.7474 1.733 1.7277 1.7441
2594.966 1.8058 1.8225 1.8064 1.8199 1.8285 1.8665 1.8625 1.907 2.001 1.9964
2614.260 1.9481 1.9435 1.9869 2.0141 2.0555 2.0936 2.1179 2.1605 2.18 2.19
2633.553 2.19 2.1642 2.1748 2.22 2.24 2.26 2.28 2.3 2.35 2.4
2652.847 2.45 2.51 2.5 2.49 2.51 2.57 2.69 2.75 2.77 2.81
2672.140 2.84 2.85 2.91 2.92 2.92 3.02 3.12 3.16 3.14 3.16
2691.434 3.27 3.37 3.37 3.41 3.55 3.58 3.64 3.71 3.77 3.9
2710.727 3.96 4.05 4.18 4.3 4.45 4.63 4.72 4.81 4.99 5.16
2730.020 5.3 5.51 5.72 5.81 5.93 5.99 6.12 6.34 6.44 6.5
2749.314 6.59 6.73 6.86 6.91 6.96 6.99 7.04 7.19 7.35 7.4
2768.607 7.46 7.7 7.88 8.05 8.26 8.44 8.68 8.95 9.24 9.65
2787.901 10.11 10.61 11.2 11.82 12.49 13.21 14.03 14.96 15.83 16.77
2807.194 17.75 18.59 19.38 20.26 21.21 22 22.74 23.63 24.51 25.23
2826.488 25.95 26.6 27.01 27.24 27.26 27.01 26.59 26 25.15 24.13
2845.781 23.12 22.17 21.17 20.23 19.56 19.05 18.74 18.69 18.88 19.36
2865.074 20.08 21.15 22.45 24 25.85 27.77 29.77 31.71 33.17 34.19
2884.368 34.75 34.87 34.64 34.11 33.22 32.12 31.09 30.02 29.19 28.71
2903.661 28.58 28.72 29 29.43 30.12 30.95 31.7 32.63 33.82 35.2
2922.955 36.85 38.73 40.91 43.53 46.45 49.65 52.99 56.13 58.94 61.28
2942.248 63.03 64.18 64.63 64.33 63.71 63.16 62.8 63.17 64.31 66.39
2961.542 69.45 73.04 76.82 80.31 82.58 82.82 81.28 78.22 73.7 67.58
2980.835 60.21 52.66 45.44 38.66 32.54 27.24 22.89 19.51 16.91 14.85
3000.128 13.3 12.14 11.23 10.35 9.77 9.47 8.94 8.46 8.1 7.75
3019.422 7.35 6.96 6.77 6.59 6.44 6.29 5.99 5.72 5.54 5.37
3038.715 5.23 5.15 4.97 4.69 4.46 4.3 4.19 4.07 3.89 3.81
3058.009 3.8 3.68 3.51 3.41 3.32 3.26 3.24 3.2 3.19 3.12
3077.302 3.1 3.1 3.08 3.13 3.06 2.99 2.94 2.86 2.88 2.9
3096.596 2.76 2.71 2.82 2.82 2.66 2.62 2.66 2.66 2.55 2.42
3115.889 2.43 2.45 2.47 2.38 2.28 2.26 2.26 2.175 2.1166 2.1175
3135.182 2.1184 2.0854 1.9879 1.8366 1.8118 1.8179 1.8426 1.853 1.8112 1.7941
3154.476 1.7385 1.8495 1.8887 1.806 1.7642 1.6249 1.5319 1.6663 1.7515 1.7189
3173.769 1.6573 1.5688 1.5602 1.5311 1.5811 1.5917 1.4591 1.3708 1.4972 1.5727
3193.063 1.4347 1.4218 1.3962 1.4202 1.3929 1.27399 1.2628 1.24485 1.27658 1.21746
3212.356 1.1049 1.1687 1.114 1.073 1.14 1.105 0.947 0.93 1.003 1.005
3231.650 1.001 0.905 0.791 0.718 0.703 0.764 0.807 0.93 1.022 0.888
3250.943 0.822 0.804 0.73 0.766 0.817 0.797 0.858 0.939 0.909 0.908
3270.236 0.829 0.73 0.778 0.74 0.659 0.699 0.722 0.652 0.663 0.588
3289.530 0.593 0.755 0.752 0.588 0.616 0.586 0.547 0.748 0.664 0.338
3308.823 0.421 0.682 0.58 0.452 0.459 0.492 0.505 0.454 0.413 0.467
3328.117 0.547 0.645 0.557 0.411 0.354 0.411 0.459 0.443 0.475 0.383
3347.410 0.46 0.637 0.598 0.567 0.629 0.518 0.301 0.295 0.444 0.413
3366.704 0.393 0.414 0.434 0.538 0.505 0.455 0.332 0.297 0.46 0.484
3385.997 0.348 0.354 0.441 0.454 0.443 0.285 0.194 0.246 0.316 0.345
3405.290 0.423 0.463 0.315 0.295 0.192 0.11 0.274 0.358 0.302 0.222
3424.584 0.198 0.18 0.254 0.27 0.197 0.217 0.249 0.302 0.302 0.238
3443.877 0.182 0.223 0.234 0.235 0.268 0.336 0.363 0.283 0.253 0.16
3463.171 0.203 0.279 0.217 0.216 0.18 0.22 0.264 0.225 0.215 0.247
3482.464 0.224 0.14 0.183 0.222 0.277 0.241 0.14 0.195 0.263 0.238
3501.758 0.11 0 0.09 0.247 0.225 0.222 0.332 0.376 0.302 0.212
3521.051 0.244 0.349 0.307 0.279 0.341 0.275 0.19 0.228 0.363 0.378
3540.344 0.298 0.222 0.14 0.12 0.12 0.212 0.254 0.254 0.221 0.274
3559.638 0.309 0.255 0.346 0.336 0.274 0.248 0.203 0.208 0.307 0.271
3578.931 0.18 0.247 0.279 0.293 0.254 0.17 0.11 0.14 0.257 0.18
3598.225 0.15 0.253 0.269 0.251 0.281 0.345 0.403 0.334 0.244 0.313
3617.518 0.397 0.451 0.32 0.25 0.296 0.234 0.219 0.311 0.287 0.236
3636.812 0.375 0.448 0.453 0.477 0.408 0.35 0.429 0.429 0.432 0.456
3656.105 0.459 0.508 0.481 0.502 0.498 0.491 0.451 0.353 0.389 0.462
3675.398 0.443 0.439 0.422 0.462 0.484 0.448 0.549 0.519 0.514 0.535
3694.692 0.45 0.467 0.513 0.461 0.412 0.436 0.487 0.54 0.537 0.528
3713.985 0.48 0.524 0.604 0.571 0.574 0.523 0.52 0.558 0.552 0.489
3733.279 0.364 0.334 0.386 0.421 0.354 0.327 0.353 0.383 0.45 0.445
3752.572 0.491 0.536 0.554 0.589 0.635 0.683 0.618 0.493 0.565 0.648
3771.866 0.588 0.639 0.612 0.525 0.571 0.69 0.723 0.646 0.595 0.583
3791.159 0.602 0.614 0.575 0.577 0.649 0.652 0.637 0.593 0.547 0.698
3810.452 0.709 0.599 0.619 0.673 0.692 0.64 0.577 0.643 0.642 0.554
3829.746 0.625 0.7 0.668 0.633 0.641 0.661 0.628 0.647 0.689 0.717
3849.039 0.675 0.545 0.545 0.57 0.591 0.685 0.702 0.686 0.7 0.78
3868.333 0.72 0.549 0.605 0.705 0.741 0.664 0.613 0.619 0.665 0.684
3887.626 0.648 0.697 0.721 0.651 0.641 0.713 0.747 0.722 0.741 0.799
3906.920 0.772 0.726 0.769 0.845 0.736 0.703 0.828 0.836 0.85 0.897
3926.213 0.858 0.867 0.904 0.802 0.803 0.864 0.852 0.912 0.929 0.807
3945.506 0.785 0.831 0.83 0.831 0.805 0.852 0.898 0.905 0.894 0.893
3964.800 0.899 0.857 0.849 0.957 1.003 0.961 0.893 0.821 0.909 0.975
3984.093 1.019 1.0803 0.974 1.009 1.1304 1.1324 1.1619 1.1124 1.025
##END=
