##TITLE=2,5-Dimethoxyphenylacetonitrile
##JCAMP-DX=4.24
##DATA TYPE=INFRARED SPECTRUM
##ORIGIN=EPA-IR VAPOR PHASE LIBRARY
##OWNER=SRD/NIST
Collection (C) 2018 copyright by the U.S. Secretary of Commerce
on behalf of the United States of America. All rights reserved.
##CAS REGISTRY NO=18086-24-3
##MOLFORM=C 10 H 11 N O 2
##$NIST SOURCE=MSDC-IR
##STATE=gas
##XUNITS=1/CM
##YUNITS=ABSORBANCE
##XFACTOR=1.
##YFACTOR=0.001
##DELTAX=1.92898
##FIRSTX=549.8
##LASTX=4000.7
##FIRSTY=14.381
##MAXX=4000.7
##MINX=549.759
##MAXY=0.418751
##MINY=0
##NPOINTS=1790
##XYDATA=(X++(Y..Y))
549.759 14.381 14.471 14.291 14.091 13.911 13.861 13.721 13.441 13.421 13.421
569.049 13.491 13.741 13.651 13.201 13.091 12.641 11.671 10.671 9.751 9.311
588.339 8.951 8.671 8.771 8.831 8.861 9.141 9.421 10.141 11.251 12.021
607.628 12.391 12.161 11.391 10.401 9.431 8.601 8.061 7.851 7.521 7.351
626.918 7.531 7.921 8.311 8.751 9.231 9.941 10.901 11.841 12.671 13.211
646.208 13.601 13.601 13.221 12.851 12.401 11.901 11.451 11.191 11.221 11.181
665.498 11.131 11.141 11.081 10.901 10.741 10.721 10.361 10.021 10.031 9.961
684.787 9.911 9.821 9.631 9.631 9.661 9.651 9.721 9.701 9.891 10.291
704.077 10.651 11.371 12.201 13.191 14.591 16.101 17.681 19.531 21.661 23.561
723.367 25.141 26.191 26.511 25.851 24.261 22.051 19.351 16.721 14.321 12.391
742.657 11.001 10.031 9.581 9.581 10.371 11.301 12.111 13.731 15.971 18.231
761.947 21.061 23.951 26.311 28.291 29.101 29.091 28.071 25.651 22.461 19.201
781.236 16.201 13.791 11.921 10.411 9.491 8.861 8.351 8.301 8.691 9.021
800.526 9.901 11.681 13.961 16.991 21.491 27.371 34.641 43.591 52.911 61.411
819.816 67.941 71.041 69.931 64.551 56.731 48.371 40.831 35.191 31.511 29.281
839.106 28.001 27.371 27.291 27.521 27.721 27.541 26.611 25.171 23.351 21.201
858.395 18.731 16.181 13.891 12.101 10.791 9.611 8.711 8.121 7.611 7.421
877.685 7.271 6.961 6.951 6.871 6.671 6.851 7.051 7.141 7.401 7.631
896.975 8.041 8.311 8.411 8.811 9.181 9.411 9.711 10.021 10.441 10.931
916.265 11.351 11.881 12.331 12.831 13.531 13.941 14.101 14.151 13.971 13.591
935.555 13.051 12.401 11.721 10.971 10.241 9.811 9.631 9.481 9.371 9.441
954.844 9.361 9.411 9.651 9.971 10.361 10.781 11.351 11.951 12.851 13.971
974.134 15.161 16.601 18.431 20.421 22.951 26.161 29.441 32.761 36.531 40.371
993.424 44.071 47.821 51.301 54.961 58.591 61.761 64.971 68.381 71.301 73.731
1012.714 75.041 73.731 69.801 64.031 56.731 48.921 42.051 36.141 31.371 28.111
1032.003 26.011 25.241 25.721 26.931 29.451 32.531 35.711 38.311 39.771 40.031
1051.293 38.671 36.111 32.921 29.791 27.691 26.871 26.271 26.511 27.701 29.161
1070.583 31.401 34.061 36.881 40.311 44.451 48.561 52.881 57.781 62.431 67.441
1089.873 72.721 78.161 83.911 90.211 97.141 104.691 112.361 120.511 129.821 139.151
1109.163 148.441 157.521 165.001 171.121 175.501 177.431 177.111 174.561 171.131 167.391
1128.452 162.321 156.951 151.061 144.021 136.841 128.651 119.081 109.081 98.591 87.931
1147.742 77.511 68.221 60.281 53.771 49.231 46.051 43.121 40.861 39.651 38.381
1167.032 37.491 37.551 38.091 39.211 40.931 42.511 44.441 46.821 48.741 50.091
1186.322 50.911 51.281 51.711 52.681 53.841 55.181 56.911 60.031 64.371 69.611
1205.611 76.871 85.481 94.931 105.881 117.731 129.191 139.271 147.641 153.711 156.561
1224.901 156.971 154.991 151.561 147.691 142.981 138.001 133.241 128.671 124.221 119.301
1244.191 113.781 107.581 100.281 92.601 85.121 77.861 70.501 63.671 57.291 51.151
1263.481 45.781 41.021 37.111 33.951 31.041 28.421 26.201 24.191 22.331 20.721
1282.771 19.471 18.461 17.391 16.461 15.751 15.121 14.641 14.251 13.981 13.761
1302.060 13.641 13.601 13.661 13.881 14.311 14.961 15.741 16.831 18.331 20.241
1321.350 22.671 25.911 30.041 35.211 41.741 49.751 59.141 69.501 80.061 89.501
1340.640 96.371 99.351 97.661 91.391 81.591 69.741 57.551 46.571 37.651 30.931
1359.930 26.051 22.581 20.171 18.451 17.151 16.171 15.591 15.251 15.091 15.201
1379.219 15.511 16.011 16.731 17.771 19.141 20.911 23.181 26.041 29.761 34.581
1398.509 40.611 48.121 57.061 67.211 78.061 88.781 98.161 105.421 110.371 113.011
1417.799 113.491 112.691 111.711 111.211 111.511 112.271 112.221 109.921 104.561 96.561
1437.089 86.611 76.331 67.501 61.531 59.251 60.291 63.681 68.431 73.841 79.121
1456.378 83.871 88.061 91.541 94.431 96.841 98.891 100.141 100.861 102.021 103.961
1475.668 107.291 113.611 124.201 140.101 161.151 186.191 213.051 237.931 257.031 266.771
1494.958 264.461 249.971 225.691 194.901 161.931 130.951 103.651 81.921 65.951 54.291
1514.248 46.181 40.621 36.641 33.781 31.741 30.241 29.051 28.141 27.501 27.081
1533.538 26.831 26.791 26.971 27.321 27.911 28.691 29.711 31.031 32.751 34.951
1552.827 37.651 40.971 44.931 49.911 56.121 63.291 71.951 82.141 93.731 106.961
1572.117 121.291 135.871 150.451 164.041 175.181 183.371 187.951 188.951 186.601 181.301
1591.407 173.961 165.171 155.201 144.271 132.381 119.471 106.051 92.801 80.261 68.791
1610.697 59.071 51.121 44.481 39.041 34.671 31.021 28.161 25.851 23.741 21.921
1629.986 20.301 18.861 17.701 16.681 15.801 14.981 14.211 13.581 12.951 12.381
1649.276 12.021 11.621 11.181 10.851 10.521 10.231 9.951 9.761 9.551 9.291
1668.566 9.051 8.891 8.821 8.641 8.421 8.341 8.251 8.111 8.031 7.931
1687.856 7.801 7.651 7.521 7.411 7.371 7.281 7.131 6.981 6.841 6.761
1707.146 6.751 6.621 6.481 6.391 6.271 6.131 6.011 5.961 5.851 5.791
1726.435 5.751 5.671 5.631 5.661 5.611 5.621 5.611 5.551 5.551 5.531
1745.725 5.561 5.521 5.381 5.271 5.241 5.231 5.141 5.061 5.031 4.971
1765.015 4.841 4.801 4.851 4.801 4.711 4.671 4.651 4.681 4.701 4.611
1784.305 4.511 4.471 4.461 4.411 4.391 4.451 4.471 4.411 4.371 4.381
1803.594 4.431 4.491 4.521 4.581 4.641 4.681 4.751 4.811 4.891 4.981
1822.884 5.101 5.201 5.261 5.321 5.401 5.501 5.541 5.601 5.591 5.461
1842.174 5.421 5.411 5.381 5.331 5.301 5.281 5.311 5.391 5.481 5.611
1861.464 5.751 5.901 6.061 6.231 6.351 6.491 6.701 6.851 6.951 7.101
1880.754 7.271 7.481 7.751 7.971 8.251 8.661 9.061 9.391 9.901 10.411
1900.043 10.881 11.431 12.001 12.621 13.291 14.081 14.891 15.771 16.701 17.671
1919.333 18.771 19.921 21.111 22.381 23.711 25.281 26.951 28.651 30.531 32.521
1938.623 34.641 37.001 39.531 42.161 45.071 48.151 51.331 54.811 58.571 62.571
1957.913 66.821 71.351 76.161 81.211 86.571 92.331 98.291 104.451 110.831 117.461
1977.202 124.201 130.901 137.771 144.811 152.071 159.691 167.611 175.901 184.701 193.911
1996.492 203.581 213.761 224.221 234.871 245.721 256.681 267.651 278.471 289.041 299.241
2015.782 309.031 318.221 326.691 334.611 342.051 349.131 355.721 362.561 369.881 377.381
2035.072 385.331 393.731 401.821 409.231 415.391 418.751 418.071 412.661 402.071 386.381
2054.362 366.931 345.341 323.241 302.451 284.501 270.271 260.261 254.821 253.651 256.401
2073.651 262.691 271.871 283.271 296.321 310.061 323.591 336.361 347.361 355.591 360.291
2092.941 360.911 356.981 348.421 335.551 318.871 299.471 278.551 257.261 236.721 217.601
2112.231 200.361 185.311 172.481 161.851 153.311 146.661 141.681 137.991 135.151 133.111
2131.521 131.611 130.181 128.581 126.591 124.071 120.681 116.451 111.691 106.401 100.711
2150.810 94.811 88.971 83.351 77.961 72.861 68.141 63.841 59.851 56.131 52.651
2170.100 49.361 46.321 43.611 41.141 38.851 36.791 34.901 33.201 31.641 30.281
2189.390 29.151 27.951 26.831 25.851 24.921 24.111 23.311 22.581 21.921 21.221
2208.680 20.541 19.731 18.821 18.041 17.191 16.171 15.261 14.411 13.561 12.751
2227.970 12.091 11.531 10.911 10.371 9.941 9.521 9.141 8.831 8.571 8.231
2247.259 7.901 7.701 7.561 7.441 7.311 7.111 6.991 7.001 6.921 6.761
2266.549 6.631 6.491 6.381 6.201 5.901 5.661 5.451 5.241 5.031 4.851
2285.839 4.761 4.651 4.531 4.521 4.501 4.491 4.541 4.621 4.691 4.741
2305.129 4.931 5.121 5.261 5.471 5.681 5.861 5.971 6.091 6.221 6.231
2324.418 6.251 6.331 6.341 6.351 6.361 6.321 6.361 6.351 6.311 6.231
2343.708 6.201 6.241 6.201 6.231 6.221 6.111 6.071 5.921 5.711 5.681
2362.998 5.651 5.581 5.541 5.551 5.621 5.641 5.711 5.791 5.771 5.831
2382.288 5.891 6.001 6.121 6.031 5.941 5.981 6.011 5.961 5.931 5.901
2401.578 5.881 5.871 5.741 5.601 5.621 5.681 5.631 5.511 5.411 5.441
2420.867 5.471 5.421 5.341 5.311 5.221 5.141 5.151 5.071 4.991 4.921
2440.157 4.851 4.861 4.911 4.791 4.761 4.731 4.681 4.691 4.651 4.611
2459.447 4.601 4.601 4.651 4.661 4.531 4.471 4.481 4.451 4.481 4.521
2478.737 4.481 4.521 4.581 4.591 4.661 4.691 4.781 4.851 4.891 5.051
2498.026 5.151 5.221 5.281 5.301 5.281 5.261 5.201 5.181 5.151 5.141
2517.316 5.251 5.331 5.261 5.241 5.321 5.371 5.531 5.661 5.791 5.961
2536.606 6.051 6.141 6.281 6.471 6.581 6.581 6.711 6.881 7.011 7.141
2555.896 7.331 7.501 7.611 7.731 7.981 8.171 8.191 8.281 8.401 8.361
2575.186 8.341 8.411 8.481 8.541 8.561 8.531 8.501 8.431 8.251 8.131
2594.475 8.111 7.901 7.641 7.441 7.201 6.941 6.671 6.451 6.211 5.901
2613.765 5.661 5.481 5.231 5.001 4.851 4.791 4.641 4.391 4.211 4.141
2633.055 4.111 4.081 4.021 3.981 3.971 3.871 3.861 3.961 3.951 3.861
2652.345 3.731 3.641 3.591 3.531 3.511 3.401 3.441 3.481 3.351 3.301
2671.634 3.301 3.281 3.261 3.271 3.271 3.221 3.261 3.211 3.121 3.211
2690.924 3.311 3.301 3.171 3.071 3.171 3.251 3.201 3.211 3.241 3.291
2710.214 3.451 3.491 3.451 3.451 3.371 3.401 3.521 3.571 3.741 3.811
2729.504 3.771 3.801 3.931 4.081 4.001 3.981 4.031 4.041 4.141 4.251
2748.794 4.351 4.471 4.481 4.521 4.661 4.681 4.751 4.841 4.901 5.031
2768.083 5.121 5.131 5.191 5.341 5.471 5.521 5.531 5.611 5.671 5.811
2787.373 6.101 6.301 6.471 6.681 6.971 7.351 7.671 7.931 8.301 8.731
2806.663 9.201 9.821 10.501 11.111 11.751 12.671 13.731 14.991 16.591 18.461
2825.953 20.831 23.681 27.131 31.191 35.451 39.481 42.621 44.521 45.201 44.911
2845.242 43.711 41.801 39.751 37.461 34.951 32.731 30.811 29.251 28.301 27.891
2864.532 27.711 27.861 28.271 28.771 29.191 29.531 29.851 30.121 30.391 30.501
2883.822 30.551 30.751 30.861 30.771 30.861 30.971 30.951 31.021 30.971 30.841
2903.112 30.841 30.991 31.301 31.811 32.661 33.701 34.811 36.081 37.401 38.561
2922.401 39.801 41.371 43.211 45.421 48.291 52.071 56.951 63.121 70.401 78.461
2941.691 86.701 93.511 97.951 99.471 97.861 93.511 87.181 80.211 73.631 68.251
2960.981 64.201 61.121 58.681 56.311 53.801 51.371 48.971 46.691 44.631 42.801
2980.271 41.271 40.171 39.271 38.721 38.811 39.271 40.131 41.721 43.861 46.151
2999.561 48.771 51.591 54.051 55.891 56.851 56.391 54.241 50.811 46.381 41.231
3018.850 35.931 31.021 26.951 23.761 21.221 19.281 17.741 16.451 15.441 14.771
3038.140 14.021 13.271 12.681 12.211 11.931 11.521 11.131 10.791 10.501 10.121
3057.430 9.701 9.461 9.341 9.041 8.711 8.621 8.571 8.481 8.351 8.171
3076.720 7.971 7.741 7.661 7.601 7.441 7.381 7.301 7.081 6.921 6.821
3096.009 6.501 6.121 5.841 5.631 5.411 5.291 5.111 4.881 4.571 4.341
3115.299 4.201 3.901 3.741 3.641 3.431 3.301 3.331 3.251 2.991 2.881
3134.589 2.861 2.841 2.901 2.781 2.531 2.461 2.521 2.371 2.131 2.181
3153.879 2.191 2.071 2.081 2.091 1.981 1.841 1.871 1.911 1.891 1.851
3173.169 1.831 1.751 1.661 1.741 1.631 1.4662 1.4648 1.4219 1.3881 1.3959
3192.458 1.3105 1.1273 1.0694 1.1666 1.1443 1.0128 1.0098 0.9874 0.9195 0.8101
3211.748 0.6648 0.7136 0.8319 0.6892 0.6179 0.6725 0.632 0.61389 0.6555 0.6489
3231.038 0.6338 0.58605 0.54173 0.59001 0.6844 0.8052 0.7989 0.6767 0.427 0.4859
3250.328 0.4998 0.349 0.385 0.407 0.294 0.175 0.334 0.367 0.342 0.4833
3269.617 0.409 0.303 0.216 0.253 0.409 0.411 0.4992 0.5008 0.278 0.188
3288.907 0.171 0.238 0.4532 0.4507 0.184 0.092 0.234 0.356 0.263 0.273
3308.197 0.409 0.392 0.236 0 0.007 0.156 0.225 0.198 0.156 0.175
3327.487 0.212 0.244 0.351 0.4462 0.363 0.377 0.349 0.304 0.26 0.148
3346.777 0.197 0.266 0.3 0.215 0.252 0.352 0.254 0.211 0.184 0.138
3366.066 0.207 0.293 0.395 0.366 0.242 0.263 0.334 0.227 0.2 0.242
3385.356 0.175 0.119 0.214 0.417 0.417 0.404 0.424 0.308 0.226 0.367
3404.646 0.4644 0.377 0.316 0.264 0.29 0.283 0.331 0.5067 0.6324 0.538687
3423.936 0.406 0.363 0.164 0.263 0.378 0.375 0.414 0.401 0.364 0.277
3443.225 0.225 0.216 0.276 0.204 0.17 0.194 0.387 0.382 0.179 0.211
3462.515 0.319 0.333 0.251 0.311 0.389 0.358 0.377 0.355 0.307 0.398
3481.805 0.334 0.378 0.4315 0.292 0.397 0.5126 0.4434 0.351 0.328 0.193
3501.095 0.074 0.205 0.274 0.252 0.337 0.272 0.164 0.265 0.323 0.269
3520.385 0.253 0.302 0.37 0.407 0.279 0.241 0.279 0.242 0.216 0.202
3539.674 0.129 0.15 0.274 0.358 0.422 0.314 0.117 0.153 0.408 0.425
3558.964 0.171 0.126 0.222 0.313 0.258 0.17 0.354 0.4438 0.377 0.25
3578.254 0.203 0.192 0.168 0.333 0.351 0.294 0.197 0.176 0.257 0.291
3597.544 0.333 0.362 0.286 0.301 0.29 0.196 0.331 0.307 0.291 0.327
3616.833 0.217 0.226 0.389 0.352 0.321 0.317 0.376 0.291 0.127 0.27
3636.123 0.418 0.4951 0.403 0.287 0.189 0.15 0.196 0.179 0.327 0.4557
3655.413 0.5104 0.4342 0.209 0.166 0.255 0.366 0.4475 0.312 0.168 0.3
3674.703 0.304 0.302 0.356 0.422 0.4539 0.531859 0.52961 0.303 0.282 0.397
3693.993 0.387 0.271 0.411 0.58407 0.5036 0.5164 0.52345 0.5121 0.52111 0.531296
3713.282 0.4993 0.271 0.306 0.324 0.259 0.4465 0.5112 0.4959 0.4466 0.4716
3732.572 0.385 0.331 0.5032 0.5173 0.399 0.305 0.276 0.374 0.33 0.262
3751.862 0.4432 0.5164 0.5187 0.58249 0.5935 0.61406 0.5122 0.374 0.57095 0.62487
3771.152 0.59514 0.4434 0.297 0.307 0.4389 0.7427 0.6886 0.43 0.37 0.398
3790.441 0.4798 0.5412 0.404 0.5177 0.6575 0.55537 0.54714 0.5205 0.52602 0.60165
3809.731 0.62889 0.7647 0.794 0.6144 0.532439 0.5645 0.60607 0.59478 0.61195 0.715
3829.021 0.7809 0.8106 0.7214 0.7504 0.7736 0.7209 0.7111 0.6674 0.7421 0.9256
3848.311 0.9966 1.0088 1.0682 0.9062 0.7262 0.8491 0.8803 0.8203 0.9027 0.8853
3867.601 0.9907 1.193 1.1588 1.1132 1.1284 1.0371 0.9196 0.8904 1.0237 0.9827
3886.890 0.9065 1.0533 1.1687 1.3743 1.425 1.2712 1.3104 1.2808 1.1959 1.2816
3906.180 1.3473 1.5173 1.551 1.2877 1.3179 1.581 1.571 1.581 1.631 1.581
3925.470 1.591 1.541 1.541 1.551 1.541 1.651 1.721 1.691 1.671 1.721
3944.760 1.901 2.031 1.971 2.001 2.121 2.101 1.971 2.001 2.101 2.161
3964.049 2.191 2.341 2.291 2.201 2.321 2.201 2.041 2.181 2.141 2.051
3983.339 2.271 2.391 2.531 2.651 2.561 2.591 2.541 2.441 2.541 2.631
##END=
