##TITLE=4-Phenylbutyric acid
##JCAMP-DX=4.24
##DATA TYPE=INFRARED SPECTRUM
##ORIGIN=EPA-IR VAPOR PHASE LIBRARY
##OWNER=SRD/NIST
Collection (C) 2018 copyright by the U.S. Secretary of Commerce
on behalf of the United States of America. All rights reserved.
##CAS REGISTRY NO=1821-12-1
##MOLFORM=C 10 H 12 O 2
##$NIST SOURCE=MSDC-IR
##STATE=gas
##XUNITS=1/CM
##YUNITS=ABSORBANCE
##XFACTOR=1.
##YFACTOR=0.001
##DELTAX=1.92898
##FIRSTX=549.8
##LASTX=4000.7
##FIRSTY=19.415
##MAXX=4000.7
##MINX=549.759
##MAXY=0.126905
##MINY=0
##NPOINTS=1790
##XYDATA=(X++(Y..Y))
549.759 19.415 19.675 19.865 19.555 19.675 19.665 19.075 18.325 17.585 17.045
569.049 16.555 16.405 16.355 16.295 16.325 16.485 16.925 17.275 17.685 18.445
588.339 19.155 19.775 20.245 20.605 20.855 21.205 21.375 21.655 22.105 22.215
607.628 22.145 21.975 21.685 21.535 21.475 21.205 20.955 20.875 20.675 20.245
626.918 20.005 19.705 19.235 18.655 17.985 17.195 16.385 15.575 14.855 13.965
646.208 12.925 12.295 11.795 11.365 11.045 10.805 10.685 10.565 10.555 10.575
665.498 10.775 11.115 11.405 11.975 12.645 13.125 13.585 14.405 15.345 16.635
684.787 18.305 20.215 22.715 25.355 27.665 29.685 31.305 31.785 31.255 30.145
704.077 28.125 25.715 23.465 21.285 19.395 18.055 16.965 16.215 16.085 16.135
723.367 16.405 17.245 18.365 19.705 21.155 22.645 24.055 25.295 26.455 27.315
742.657 27.565 27.165 26.195 24.775 22.935 21.035 19.205 17.015 14.895 12.965
761.947 11.395 10.175 9.015 7.985 7.155 6.585 5.985 5.435 4.895 4.525
781.236 4.345 4.055 3.875 3.785 3.785 3.735 3.595 3.615 3.725 3.775
800.526 3.745 3.695 3.725 3.825 3.655 3.385 3.285 3.145 2.895 2.835
819.816 2.795 2.645 2.655 2.675 2.635 2.635 2.515 2.405 2.435 2.555
839.106 2.765 2.935 3.025 2.895 2.845 2.955 3.075 3.175 3.145 3.075
858.395 3.045 3.075 3.205 3.175 3.135 3.255 3.165 3.145 3.315 3.395
877.685 3.495 3.655 3.535 3.205 3.265 3.465 3.355 3.135 3.075 3.135
896.975 3.165 3.265 3.395 3.535 3.595 3.695 3.905 3.905 3.775 3.605
916.265 3.345 3.105 2.925 2.785 2.755 2.475 2.205 2.195 2.175 2.225
935.555 2.335 2.435 2.415 2.475 2.595 2.555 2.475 2.525 2.705 2.885
954.844 2.925 3.025 3.475 3.755 3.875 4.265 4.725 5.105 5.385 5.585
974.134 5.765 6.015 6.155 6.295 6.435 6.255 6.145 6.025 5.945 6.185
993.424 6.355 6.535 6.815 7.065 7.445 7.795 8.135 8.495 9.035 9.725
1012.714 10.315 10.935 11.875 12.825 13.405 14.465 15.495 16.075 16.245 16.195
1032.003 16.225 15.945 15.335 14.425 13.555 12.785 12.225 12.155 12.215 12.155
1051.293 12.255 12.565 12.955 13.195 13.445 14.005 14.665 15.205 15.965 16.715
1070.583 17.455 18.405 19.325 20.495 21.795 22.775 23.505 24.515 25.915 27.495
1089.873 29.495 31.635 34.295 37.435 40.845 44.715 49.245 54.745 60.285 66.035
1109.163 73.305 80.965 87.675 93.125 96.965 98.345 96.915 93.865 88.695 81.735
1128.452 74.465 67.415 61.365 56.315 52.005 48.225 44.655 42.015 40.005 37.835
1147.742 35.585 33.655 32.215 30.665 29.235 28.255 27.275 26.475 25.995 25.815
1167.032 26.065 26.325 26.405 26.275 26.115 26.105 25.875 25.715 25.545 24.995
1186.322 24.415 23.795 23.375 23.055 22.415 21.675 20.985 20.475 20.065 19.645
1205.611 19.015 18.215 17.785 17.285 16.745 16.225 15.565 14.875 14.065 13.635
1224.901 13.545 12.995 12.375 11.955 11.725 11.605 11.365 11.145 10.925 10.885
1244.191 11.075 11.045 10.925 10.965 11.095 11.055 10.975 11.015 11.075 11.115
1263.481 10.975 10.815 10.675 10.695 10.765 10.605 10.445 10.285 10.165 10.055
1282.771 9.965 9.845 9.725 9.685 9.625 9.455 9.345 9.235 9.115 9.085
1302.060 8.965 8.845 8.835 8.775 8.675 8.685 8.685 8.705 8.755 8.815
1321.350 8.915 9.075 9.325 9.535 9.745 10.095 10.485 10.865 11.305 11.795
1340.640 12.355 12.885 13.355 13.795 14.195 14.545 14.805 15.075 15.355 15.585
1359.930 15.825 16.125 16.485 16.875 17.335 17.835 18.375 18.835 19.305 19.695
1379.219 19.885 19.895 19.645 19.255 18.665 17.755 16.645 15.415 14.125 12.905
1398.509 11.745 10.635 9.765 9.025 8.465 8.115 7.885 7.825 7.815 7.845
1417.799 7.975 8.185 8.395 8.565 8.785 9.055 9.265 9.425 9.565 9.785
1437.089 10.145 10.485 10.855 11.375 11.965 12.525 13.025 13.445 13.775 13.855
1456.378 13.635 13.175 12.515 11.605 10.585 9.555 8.545 7.585 6.785 6.205
1475.668 5.755 5.445 5.365 5.495 5.905 6.635 7.795 9.255 10.875 12.295
1494.958 13.045 13.165 12.745 11.935 10.635 8.715 6.495 4.795 3.795 3.075
1514.248 2.605 2.355 2.165 2.085 2.025 1.955 1.945 1.855 1.845 1.865
1533.538 1.755 1.775 1.805 1.725 1.705 1.715 1.625 1.565 1.535 1.565
1552.827 1.615 1.595 1.595 1.555 1.605 1.735 1.825 1.855 1.895 2.045
1572.117 2.205 2.305 2.445 2.665 2.835 3.065 3.385 3.735 4.095 4.515
1591.407 5.005 5.445 5.915 6.455 6.915 7.115 7.025 6.765 6.365 5.765
1610.697 5.015 4.215 3.515 2.925 2.525 2.245 2.015 1.885 1.825 1.785
1629.986 1.705 1.665 1.665 1.625 1.625 1.675 1.745 1.755 1.685 1.685
1649.276 1.745 1.795 1.805 1.795 1.795 1.825 1.845 1.875 1.895 1.905
1668.566 1.955 2.005 2.065 2.095 2.125 2.165 2.255 2.325 2.445 2.605
1687.856 2.725 2.835 3.015 3.195 3.365 3.605 3.865 4.155 4.425 4.745
1707.146 5.135 5.585 6.085 6.595 7.215 7.965 8.845 9.705 10.705 11.895
1726.435 13.205 14.635 16.215 17.975 20.055 22.285 24.545 27.175 30.005 33.015
1745.725 36.305 39.845 43.645 47.755 52.155 56.965 62.435 68.465 75.285 82.905
1765.015 91.005 99.565 108.145 115.705 121.765 125.605 126.905 125.625 121.905 116.005
1784.305 108.305 99.815 91.345 83.295 75.845 69.085 63.005 57.345 52.195 47.415
1803.594 43.005 38.925 35.115 31.585 28.315 25.305 22.555 20.075 17.815 15.675
1822.884 13.785 12.045 10.485 9.185 8.095 7.195 6.515 5.915 5.375 4.995
1842.174 4.705 4.405 4.115 3.975 3.875 3.745 3.615 3.485 3.395 3.365
1861.464 3.355 3.275 3.255 3.265 3.195 3.135 3.115 3.055 2.965 2.895
1880.754 2.725 2.595 2.495 2.275 2.105 2.035 1.955 1.855 1.795 1.705
1900.043 1.635 1.625 1.625 1.615 1.585 1.545 1.595 1.655 1.655 1.675
1919.333 1.755 1.905 2.025 2.055 2.115 2.255 2.375 2.455 2.505 2.525
1938.623 2.595 2.655 2.735 2.755 2.735 2.735 2.665 2.555 2.395 2.245
1957.913 2.075 1.875 1.685 1.495 1.335 1.205 1.155 1.155 1.135 1.0793
1977.202 1.0331 1.0562 1.0773 1.0826 1.0378 1.0147 1.0054 0.9642 0.9228 0.9191
1996.492 0.9198 0.9375 0.955 0.9089 0.8579 0.8279 0.8354 0.8265 0.8233 0.8093
2015.782 0.7335 0.6785 0.6929 0.7522 0.8009 0.7734 0.757 0.7734 0.7654 0.7264
2035.072 0.6766 0.6579 0.6598 0.6718 0.6339 0.6295 0.6527 0.6431 0.5743 0.5547
2054.362 0.6054 0.6085 0.6469 0.6 0.5754 0.5962 0.565 0.5714 0.599 0.6052
2073.651 0.5759 0.539 0.6029 0.6346 0.6347 0.6478 0.6467 0.6387 0.5491 0.4921
2092.941 0.5459 0.6207 0.6311 0.6431 0.6856 0.6968 0.6959 0.704 0.6811 0.6628
2112.231 0.7118 0.7588 0.7383 0.6857 0.6631 0.715 0.7331 0.7312 0.7129 0.6998
2131.521 0.662 0.6507 0.7015 0.7198 0.6944 0.6914 0.6925 0.6581 0.6657 0.6879
2150.810 0.6975 0.7063 0.6552 0.6138 0.6624 0.6964 0.7384 0.7445 0.7689 0.7792
2170.100 0.8078 0.8252 0.7806 0.8291 0.8319 0.8032 0.8264 0.8437 0.8349 0.8196
2189.390 0.8269 0.8116 0.8082 0.8344 0.811 0.8241 0.8655 0.9084 0.858 0.8037
2208.680 0.8368 0.8881 0.911 0.8839 0.8785 0.8498 0.7774 0.7833 0.8661 0.8962
2227.970 0.9034 0.9302 0.9631 0.9285 0.8967 0.8897 0.846 0.8415 0.8669 0.8421
2247.259 0.8375 0.8618 0.9014 0.921 0.9045 0.8992 0.855 0.7821 0.7672 0.8302
2266.549 0.8715 0.7898 0.7397 0.7594 0.7268 0.6978 0.7297 0.7845 0.8087 0.8268
2285.839 0.7975 0.8044 0.84 0.8323 0.7957 0.7567 0.7054 0.6843 0.7633 0.8071
2305.129 0.8274 0.8936 0.9078 0.8646 0.8375 0.8806 0.9143 0.8761 0.8636 0.8629
2324.418 0.8367 0.8513 0.8489 0.8513 0.8677 0.8683 0.8818 0.8242 0.8214 0.87
2343.708 0.873 0.8748 0.8651 0.8866 0.8199 0.7776 0.8471 0.8416 0.7961 0.7153
2362.998 0.6847 0.6897 0.6808 0.7111 0.7017 0.7399 0.7877 0.7432 0.6794 0.605
2382.288 0.6721 0.7489 0.7375 0.7017 0.6563 0.7152 0.7274 0.6721 0.6843 0.6571
2401.578 0.6607 0.6583 0.6393 0.6334 0.5883 0.6737 0.7221 0.7283 0.7016 0.6653
2420.867 0.7389 0.722 0.6605 0.6541 0.6759 0.6968 0.6944 0.6702 0.6612 0.6605
2440.157 0.6949 0.6545 0.6179 0.6579 0.6869 0.6825 0.6481 0.6376 0.6122 0.6306
2459.447 0.6085 0.6035 0.6218 0.6074 0.6428 0.6257 0.6095 0.6085 0.5891 0.6424
2478.737 0.6422 0.6087 0.5952 0.5851 0.569 0.5439 0.55 0.5748 0.5343 0.481
2498.026 0.5397 0.5901 0.5857 0.5546 0.5498 0.5687 0.5375 0.5086 0.5037 0.4957
2517.316 0.4893 0.4692 0.553 0.6379 0.6379 0.6125 0.5506 0.4347 0.4532 0.4995
2536.606 0.4641 0.5334 0.5595 0.5194 0.4826 0.5105 0.5311 0.4806 0.4651 0.5281
2555.896 0.5275 0.4763 0.498 0.4817 0.4522 0.5316 0.5934 0.595 0.5524 0.4689
2575.186 0.4432 0.4896 0.5232 0.5369 0.5474 0.5353 0.4616 0.4918 0.5751 0.5489
2594.475 0.5645 0.6572 0.7102 0.7028 0.6754 0.6539 0.5908 0.5783 0.6655 0.6858
2613.765 0.6552 0.5633 0.513 0.5523 0.6094 0.6859 0.6787 0.6776 0.646 0.6969
2633.055 0.7129 0.6422 0.6729 0.6455 0.6744 0.6681 0.6249 0.6708 0.7022 0.6851
2652.345 0.6959 0.6753 0.6139 0.5715 0.6121 0.7467 0.7816 0.713 0.69 0.6911
2671.634 0.6762 0.6985 0.6982 0.6779 0.6807 0.6556 0.6203 0.6615 0.6542 0.6196
2690.924 0.6323 0.651 0.5841 0.5299 0.5713 0.5349 0.5658 0.5645 0.5201 0.5916
2710.214 0.6056 0.6324 0.6542 0.5437 0.5868 0.6069 0.5547 0.5715 0.612 0.65
2729.504 0.5943 0.5613 0.5594 0.5658 0.6152 0.6643 0.6526 0.6684 0.7178 0.6237
2748.794 0.55 0.6339 0.6856 0.7046 0.7111 0.7275 0.7405 0.73 0.6965 0.6936
2768.083 0.7234 0.7849 0.7979 0.776 0.7655 0.7874 0.8747 0.8945 0.9084 0.9162
2787.373 0.9618 1.0288 1.0925 1.185 1.165 1.195 1.265 1.235 1.235 1.285
2806.663 1.305 1.345 1.345 1.305 1.365 1.485 1.565 1.665 1.745 1.785
2825.953 1.915 2.005 2.115 2.265 2.425 2.675 2.805 2.945 3.235 3.555
2845.242 3.985 4.385 4.735 5.175 5.795 6.425 7.005 7.585 8.165 8.675
2864.532 9.025 9.425 9.775 9.875 9.965 10.005 9.825 9.605 9.375 9.145
2883.822 8.865 8.555 8.235 8.025 7.885 7.775 7.815 7.845 7.975 8.305
2903.112 8.665 9.125 9.705 10.385 11.165 12.085 13.175 14.455 15.825 17.135
2922.401 18.495 19.895 21.065 22.085 22.935 23.575 24.105 24.585 24.975 25.355
2941.691 25.655 25.975 26.315 26.565 26.705 26.695 26.545 26.045 25.335 24.405
2960.981 23.185 21.745 20.245 18.785 17.255 15.775 14.405 13.165 12.035 10.975
2980.271 10.135 9.375 8.545 7.945 7.455 7.005 6.685 6.375 6.215 6.145
2999.561 6.195 6.405 6.615 6.875 7.245 7.655 8.075 8.815 9.835 10.815
3018.850 12.115 13.745 15.545 17.405 19.395 21.235 22.525 23.225 23.325 22.855
3038.140 21.695 19.985 17.815 15.625 13.905 12.565 11.625 11.195 11.305 11.735
3057.430 12.465 13.675 15.255 17.185 19.215 20.625 21.495 21.815 21.475 20.735
3076.720 19.455 17.725 15.815 14.315 13.375 12.505 11.695 11.055 10.425 9.715
3096.009 8.985 8.335 7.715 7.095 6.575 6.085 5.555 5.035 4.535 4.075
3115.299 3.675 3.375 2.865 2.375 2.125 1.865 1.605 1.385 1.255 1.215
3134.589 1.091 0.9368 0.8591 0.8255 0.8623 0.8254 0.864 0.8706 0.7334 0.7157
3153.879 0.6847 0.5937 0.6213 0.6707 0.6873 0.7166 0.7179 0.6327 0.556 0.5159
3173.169 0.5066 0.5045 0.5082 0.5587 0.5234 0.4198 0.3995 0.4515 0.4571 0.3528
3192.458 0.2809 0.274 0.2942 0.3026 0.2927 0.3811 0.339 0.2858 0.3224 0.3287
3211.748 0.3845 0.353 0.3056 0.3401 0.3078 0.2476 0.2475 0.2629 0.3055 0.3696
3231.038 0.4775 0.4208 0.4023 0.4929 0.4015 0.277 0.3062 0.4793 0.4231 0.3215
3250.328 0.3812 0.3337 0.3609 0.3545 0.3193 0.2848 0.1613 0.0389 0.12573 0.272
3269.617 0.2724 0.3776 0.4274 0.3451 0.3492 0.3451 0.2686 0.2825 0.3089 0.32
3288.907 0.3111 0.2439 0.1868 0.1885 0.2623 0.2692 0.2707 0.3761 0.2473 0.012
3308.197 0.1348 0.2899 0.2794 0.2549 0.1595 0.14368 0.2243 0.18675 0.0825 0.16308
3327.487 0.2239 0.057 0.034 0.2229 0.2398 0.2371 0.2504 0.2401 0.2774 0.3217
3346.777 0.2998 0.18926 0.13437 0.13472 0.1984 0.2793 0.2225 0.2336 0.17466 0.0587
3366.066 0.10791 0.14376 0.14548 0.1968 0.3074 0.2232 0.0719 0.072 0.16856 0.267
3385.356 0.20462 0.18504 0.2553 0.3248 0.3382 0.265 0.2366 0.2294 0.21125 0.116078
3404.646 0.2228 0.2256 0 0.11199 0.263 0.2474 0.15633 0.13793 0.2917 0.3613
3423.936 0.291 0.3094 0.3151 0.2533 0.2884 0.3982 0.3743 0.19701 0.20819 0.2694
3443.225 0.2725 0.2583 0.16655 0.118355 0.19314 0.2639 0.2698 0.18606 0.16422 0.3279
3462.515 0.4735 0.3483 0.2846 0.2951 0.2157 0.2154 0.2514 0.2892 0.4372 0.5813
3481.805 0.6128 0.5557 0.5676 0.6681 0.6866 0.69 0.6584 0.7317 0.9065 0.9652
3501.095 0.8714 0.8611 0.9508 1.0055 1.0992 1.215 1.305 1.425 1.515 1.565
3520.385 1.595 1.585 1.715 1.955 2.065 2.265 2.365 2.445 2.645 2.785
3539.674 3.025 3.425 3.775 4.145 4.655 5.135 5.655 6.625 7.855 9.275
3558.964 11.265 14.035 18.185 24.045 31.835 40.575 47.685 51.525 52.405 51.615
3578.254 49.085 43.595 35.095 26.005 18.805 14.005 10.985 8.875 7.175 5.905
3597.544 4.975 4.235 3.715 3.235 2.905 2.655 2.315 2.085 1.895 1.855
3616.833 1.785 1.605 1.365 1.275 1.285 1.0243 0.9167 1.1069 1.195 1.0655
3636.123 1.0234 1.076 1.0199 0.914 0.8363 0.79 0.888 0.961 0.844 0.8131
3655.413 0.7226 0.7117 0.7678 0.6478 0.6011 0.6416 0.595 0.4687 0.3933 0.36
3674.703 0.4076 0.406 0.3301 0.3731 0.4859 0.4467 0.4035 0.491 0.4596 0.2973
3693.993 0.3377 0.3626 0.4048 0.4434 0.4063 0.3065 0.2396 0.3662 0.3785 0.3358
3713.282 0.244 0.122518 0.0778 0.0683 0.20558 0.292 0.3248 0.3602 0.2317 0.20059
3732.572 0.229 0.2581 0.229 0.20707 0.3463 0.2779 0.18709 0.2703 0.271 0.18767
3751.862 0.18499 0.2406 0.2673 0.3596 0.4064 0.3604 0.3459 0.20603 0.17339 0.2633
3771.152 0.20527 0.19634 0.14495 0.16898 0.15275 0.2205 0.3536 0.2619 0.2949 0.2752
3790.441 0.15257 0.2336 0.377 0.4377 0.5353 0.5659 0.4665 0.4304 0.3879 0.2739
3809.731 0.2491 0.322 0.3038 0.235 0.21286 0.2764 0.2431 0.0818 0.127 0.3117
3829.021 0.3742 0.4025 0.3579 0.1755 0.115909 0.3094 0.2758 0.0986 0.2803 0.3716
3848.311 0.3753 0.385 0.3308 0.2887 0.21185 0.2928 0.3205 0.2903 0.3419 0.3112
3867.601 0.3547 0.3468 0.2401 0.2781 0.3541 0.3924 0.3311 0.3364 0.4939 0.4301
3886.890 0.3405 0.2809 0.2204 0.3458 0.3546 0.3478 0.3954 0.3956 0.3657 0.4358
3906.180 0.4306 0.3691 0.2957 0.2407 0.3229 0.4892 0.4656 0.2551 0.2975 0.2805
3925.470 0.3158 0.3282 0.16509 0.17592 0.2718 0.2614 0.3302 0.3855 0.2483 0.3491
3944.760 0.4167 0.4493 0.4465 0.2603 0.17495 0.17204 0.1819 0.20178 0.389 0.4016
3964.049 0.2518 0.091 0.0541 0.3138 0.417 0.3899 0.4181 0.489 0.4765 0.3657
3983.339 0.3838 0.3536 0.3359 0.2854 0.333 0.4142 0.3376 0.3548 0.3473 0.4143
##END=
