##TITLE=5-Methyl-2-heptanone
##JCAMP-DX=4.24
##DATA TYPE=INFRARED SPECTRUM
##ORIGIN=NIST Mass Spectrometry Data Center
##OWNER=NIST Standard Reference Data Program
Collection (C) 2018 copyright by the U.S. Secretary of Commerce
on behalf of the United States of America. All rights reserved.
##CAS REGISTRY NO=18217-12-4
##MOLFORM=C 8 H 16 O
##$NIST SOURCE=MSDC-IR
##SPECTROMETER/DATA SYSTEM=HP-GC/MS/IRD
##STATE=gas
##XUNITS=1/CM
##YUNITS=ABSORBANCE
##XFACTOR=1.0
##YFACTOR=0.000001200
##DELTAX=4.0
##FIRSTX=550.0
##LASTX=3846.0
##FIRSTY=0.000563
##MAXX=3846
##MINX=550
##MAXY=0.012
##MINY=0
##NPOINTS=825
##XYDATA=(X++(Y..Y))
550.0 469 538 497 373 338 349 342 267 264 367
590.0 439 398 334 315 296 240 216 110 98 155
630.0 120 118 71 58 103 110 104 95 163 180
670.0 99 83 40 0 51 69 46 28 72 128
710.0 159 182 195 204 212 215 189 215 215 168
750.0 161 168 162 153 131 131 172 197 182 198
790.0 190 179 179 153 161 182 152 113 124 149
830.0 165 147 139 140 126 147 153 144 160 170
870.0 202 235 215 203 223 257 289 324 360 384
910.0 395 381 382 367 369 403 441 484 474 499
950.0 558 581 581 602 619 631 638 636 634 647
990.0 652 643 639 641 653 640 595 550 535 522
1030.0 477 451 484 477 415 387 401 418 403 375
1070.0 351 343 368 385 417 456 485 539 620 655
1110.0 700 784 799 802 837 900 1047 1218 1458 1809
1150.0 2188 2633 2964 3132 3090 2809 2428 2016 1678 1461
1190.0 1315 1207 1137 1147 1206 1261 1314 1396 1461 1472
1230.0 1444 1379 1309 1265 1206 1154 1120 1092 1040 1002
1270.0 1007 1008 967 927 910 889 876 901 913 928
1310.0 959 983 1017 1074 1166 1289 1434 1639 1939 2331
1350.0 2804 3287 3619 3710 3562 3225 2863 2574 2333 2110
1390.0 1869 1603 1387 1253 1179 1169 1213 1254 1261 1270
1430.0 1288 1320 1377 1446 1569 1740 1867 1958 1988 1931
1470.0 1750 1501 1261 1026 855 707 596 527 492 418
1510.0 348 339 325 327 339 349 350 332 301 301
1550.0 311 292 285 305 301 296 288 264 256 239
1590.0 235 251 233 212 230 245 242 228 233 233
1630.0 238 236 227 255 285 320 334 335 395 448
1670.0 514 589 670 820 1031 1252 1513 1830 2255 2804
1710.0 3512 4392 5472 6537 7342 7723 7543 6865 5778 4541
1750.0 3434 2562 1923 1460 1128 907 722 580 474 383
1790.0 329 286 262 223 174 156 157 139 122 132
1830.0 126 98 94 105 109 102 87 71 76 93
1870.0 70 67 70 68 79 74 62 60 60 65
1910.0 83 69 59 59 62 68 68 75 71 71
1950.0 74 73 65 58 60 59 56 59 55 57
1990.0 52 44 49 45 38 36 42 59 64 51
2030.0 48 63 60 49 58 80 83 67 52 43
2070.0 56 66 53 48 54 45 48 52 45 46
2110.0 42 51 47 46 58 53 50 59 71 62
2150.0 66 67 57 64 62 43 38 46 52 53
2190.0 47 44 41 30 31 41 53 58 56 48
2230.0 46 39 47 50 39 37 28 26 45 48
2270.0 29 29 49 53 42 36 29 33 43 52
2310.0 54 42 33 53 62 57 60 68 77 81
2350.0 86 77 58 35 39 41 28 54 66 56
2390.0 53 45 33 30 51 54 26 10 4 12
2430.0 18 24 39 35 19 28 25 21 28 20
2470.0 23 32 43 37 34 35 32 39 50 37
2510.0 35 45 38 27 30 47 54 57 47 35
2550.0 47 47 56 63 73 92 78 58 47 47
2590.0 59 68 58 48 62 93 106 91 78 75
2630.0 79 82 98 111 93 84 107 115 112 110
2670.0 119 122 116 128 125 125 127 111 107 120
2710.0 120 147 166 165 186 213 215 216 227 237
2750.0 243 251 237 224 245 249 241 274 287 278
2790.0 306 371 408 404 446 494 533 594 649 674
2830.0 710 815 952 1095 1286 1553 1898 2291 2743 3215
2870.0 3680 4105 4451 4716 4822 4798 4701 4626 4692 4956
2910.0 5399 5967 6596 7181 7607 7828 7853 7752 7578 7419
2950.0 7420 7727 8443 9344 10000 9988 9147 7657 5921 4314
2990.0 3119 2341 1869 1618 1453 1311 1184 1048 898 806
3030.0 743 669 612 595 585 548 529 507 497 508
3070.0 472 430 402 383 397 384 366 360 354 319
3110.0 265 276 269 212 216 232 213 214 199 169
3150.0 148 140 163 180 175 169 146 128 117 130
3190.0 117 122 132 124 128 103 83 79 103 87
3230.0 64 75 69 67 79 66 40 48 76 111
3270.0 78 37 53 63 77 67 64 51 21 27
3310.0 73 115 93 72 86 78 43 60 115 86
3350.0 35 53 71 67 82 100 101 126 152 119
3390.0 79 83 108 150 161 152 149 162 178 166
3430.0 202 215 209 213 210 196 196 199 175 162
3470.0 143 113 119 115 114 123 113 126 111 106
3510.0 120 98 75 79 90 100 88 78 60 32
3550.0 30 23 15 19 49 84 62 58 73 28
3590.0 0 28 39 52 55 40 50 69 100 112
3630.0 126 106 66 43 48 59 96 129 97 99
3670.0 109 105 115 140 145 102 89 104 77 67
3710.0 92 129 147 113 100 120 95 80 110 107
3750.0 124 106 104 121 95 99 101 127 162 169
3790.0 151 123 117 132 146 136 140 132 155 160
3830.0 107 81 91 130 132
##END=
