##TITLE=2-(2-Thiazolylazo)-p-cresol
##JCAMP-DX=4.24
##DATA TYPE=INFRARED SPECTRUM
##ORIGIN=EPA-IR VAPOR PHASE LIBRARY
##OWNER=SRD/NIST
Collection (C) 2018 copyright by the U.S. Secretary of Commerce
on behalf of the United States of America. All rights reserved.
##CAS REGISTRY NO=1823-44-5
##MOLFORM=C 10 H 9 N 3 O S
##$NIST SOURCE=MSDC-IR
##STATE=gas
##XUNITS=1/CM
##YUNITS=ABSORBANCE
##XFACTOR=1.
##YFACTOR=0.001
##DELTAX=1.92898
##FIRSTX=549.8
##LASTX=4000.7
##FIRSTY=3.66
##MAXX=4000.7
##MINX=549.759
##MAXY=0.08159
##MINY=0
##NPOINTS=1790
##XYDATA=(X++(Y..Y))
549.759 3.66 3.11 3.2 4.53 5.67 5.91 6.14 5.92 6.61 7.21
569.049 7.4 8.47 9.49 10.77 14.03 17.05 18.03 18.55 18.69 16.85
588.339 13.98 11.2 8.71 7.53 7.75 7.61 6.26 5.79 6.24 5.47
607.628 4.51 5.37 5.76 5.49 5.61 5.95 6.91 7.53 8.12 9.02
626.918 10.74 12.34 11.52 10.54 9.94 8.65 8.21 7.68 7.18 6.96
646.208 6.55 6.66 7.38 7.72 7.72 8.58 10.15 11.41 11.79 12.43
665.498 13.19 12.87 11.86 10.95 9.68 8.59 8.11 7.5 7.91 8.55
684.787 8.51 9.37 10.05 10.56 11.48 11.36 11.53 12.52 13.46 14.56
704.077 16.19 18.27 20.27 23.06 25.9 29.12 32.57 35.99 39.47 42.77
723.367 44.2 38.96 32.87 29.6 26.28 22.95 20.12 17.67 15.4 14.28
742.657 13.62 13 12.27 10.92 9.73 9.39 9.17 8.3 7.39 7.21
761.947 6.92 6.28 6.31 6.59 6.34 6.3 6.99 7.84 8.71 9.73
781.236 10.64 11.8 12.34 12.48 12.93 12.52 12.04 11.68 10.45 9
800.526 8.13 8.02 8.49 9.12 10.56 12.27 15 18.57 19.77 20.86
819.816 23.53 27.15 27.27 23.88 22.43 21.35 20.34 20.06 19.21 17.93
839.106 17.49 16.57 14 12.08 10.69 8.86 7.2 5.91 5.62 5.49
858.395 4.42 3.88 4.08 4.03 4.34 5.22 6.24 7.73 9.67 11.96
877.685 13.99 14.12 13.97 13.92 12.8 10.48 8.44 7.63 6.44 5.14
896.975 3.99 2.99 2.49 2.32 2.54 2.78 3.08 3.5 2.71 1.79
916.265 2.07 2.37 2.51 2.46 1.96 2.19 2.17 2.02 2.14 2.32
935.555 2.68 2.5 2.95 3.48 4.11 4.06 4.19 4.27 3.92 4.36
954.844 3.96 3.13 2.77 2.76 2.8 2.75 2.36 2.54 2.74 2.57
974.134 2.54 2.66 2.57 2.02 1.6 2.25 3.03 3.09 3.25 3.53
993.424 3.82 4.25 5.02 5.01 4.23 4.15 4.68 4.59 4.25 4.69
1012.714 4.65 4.03 3.14 3.19 3.42 3.09 3.49 3.36 2.57 2.67
1032.003 3.16 2.93 3.52 3.69 3.39 3.18 3.82 5.31 5.63 4.64
1051.293 4.13 5.91 7.23 8.29 8.46 7.54 8.59 8.41 7.04 6.38
1070.583 6.22 5.63 5.14 5.4 5.44 5.32 6.48 8.01 7.66 8.24
1089.873 9.53 8.71 7.13 8.04 9.53 8.41 8.02 8.8 9.57 11.45
1109.163 12.47 11.88 10.94 11.87 13.8 14.94 16.93 18.3 21.92 27.78
1128.452 32.69 37.76 42.71 48.77 53.26 55.94 56.27 53.68 50.24 46.09
1147.742 43.97 45.2 49.65 52.76 51.83 49.84 46.42 40.53 33.59 28.35
1167.032 25.75 24.45 23.45 23.47 23.78 24.86 26.23 26.56 27.04 27.8
1186.322 29.47 31.25 33.41 36.76 40.83 45.75 50.34 53.2 56.85 62.32
1205.611 64.87 66.45 68.31 68.02 66.51 62.76 57.28 49.75 42.32 37.02
1224.901 33.47 30.95 29.42 30.08 31.92 33.14 34.04 35.64 37.23 38.28
1244.191 38.46 37.36 34.89 32.53 30.92 29.81 28.99 27.73 26.71 27.07
1263.481 27.74 28.49 30.84 34.69 39.81 45.42 50.65 56.24 61.22 63.96
1282.771 64.45 62.28 57.54 51.09 43.44 35.84 29.09 23.8 19.83 17.13
1302.060 15.66 14.51 13.84 13.52 13.01 12.95 13.17 12.75 12.49 12.49
1321.350 12.09 11.44 10.81 10.52 10.44 10.51 10.9 11.57 12.27 12.91
1340.640 13.44 13.86 14.3 14.74 15.27 15.62 15.67 15.61 15.49 15.16
1359.930 14.74 14.39 14.14 13.92 13.83 13.75 13.92 14.18 14.25 14.46
1379.219 14.7 14.89 15.13 15.1 15.04 15.07 14.9 14.73 14.83 15.21
1398.509 15.58 16.46 17.93 19.56 21.83 24.66 27.97 31.45 34.89 38.3
1417.799 41.43 44.47 46.61 47.6 47.7 47.28 46.39 44.96 43.28 41.94
1437.089 40.79 39.95 39.35 38.5 37.25 35.77 34.15 32.19 29.92 27.82
1456.378 25.94 24.34 22.58 20.61 19.42 18.85 18.66 18.93 19.64 21.15
1475.668 23.52 26.64 30.69 35.98 42.32 49.06 55.99 63.01 69.72 75.49
1494.958 79.58 81.59 80.71 76.8 70.83 63.8 55.49 46.33 37.94 30.52
1514.248 24.55 20.3 16.92 14.64 13.3 12.1 10.91 10.35 9.92 9.2
1533.538 8.7 8.47 8.06 7.75 7.68 7.56 7.94 8.18 8.07 8
1552.827 8.35 9.09 9.7 10.24 11.29 12.48 13.8 15.95 18.74 22
1572.117 25.89 30.08 33.97 37.39 39.36 40.09 39.58 37.06 33.38 29.37
1591.407 25.66 22.55 20.08 18.22 16.93 16.16 15.77 15.49 15.12 15.05
1610.697 15.58 16.09 16.31 16.73 17.3 17.33 16.91 16.49 15.79 14.85
1629.986 13.84 12.35 10.96 9.8 8.95 8.33 7.45 6.62 6.14 5.72
1649.276 5.04 4.5 4.04 3.85 3.53 3.23 3.21 3.05 3.15 3.29
1668.566 3.05 2.87 2.51 2.11 2.26 2.45 2.58 2.43 2.19 2.36
1687.856 2.43 2.36 2.48 2.72 2.81 2.84 2.62 2.56 2.58 2.34
1707.146 2.35 2.41 2.47 2.41 2.25 2.18 2.22 2.37 2.21 2.06
1726.435 2.2 2.02 2.06 2.18 2.02 1.93 2.18 2.41 2.27 2.49
1745.725 2.73 2.82 3.01 3.38 3.94 4.48 5.1 5.8 6.45 7.27
1765.015 7.72 7.6 7.37 6.7 5.77 4.56 3.58 2.85 2.3 2.24
1784.305 2.22 2.12 2.09 1.9 1.78 1.93 1.91 1.91 1.97 1.97
1803.594 2.02 2.04 1.92 1.71 1.83 1.76 1.65 2.02 2.07 2.03
1822.884 2.17 2.18 2.22 2.32 2.48 2.82 2.76 2.49 2.41 2.42
1842.174 2.24 1.98 1.93 1.77 1.78 1.85 1.76 1.75 1.64 1.57
1861.464 1.63 1.7 1.7 1.65 1.6 1.85 1.94 1.77 1.6 1.52
1880.754 1.82 1.84 1.94 2.23 2.46 2.8 3.18 3.63 3.88 4.07
1900.043 4.32 4.4 4.1 3.69 3.28 2.59 2.13 2.12 1.95 1.66
1919.333 1.6 1.61 1.68 1.77 1.7 1.65 1.65 1.56 1.44 1.55
1938.623 1.57 1.47 1.55 1.66 1.69 1.52 1.35 1.37 1.48 1.56
1957.913 1.72 1.73 1.48 1.65 1.66 1.58 1.57 1.59 1.62 1.51
1977.202 1.59 1.51 1.45 1.43 1.37 1.45 1.57 1.67 1.62 1.48
1996.492 1.58 1.59 1.43 1.47 1.64 1.72 1.58 1.45 1.42 1.5
2015.782 1.58 1.56 1.4 1.38 1.67 1.86 1.61 1.26 1.27 1.18
2035.072 1.21 1.22 1.12 1.32 1.45 1.42 1.23 1.0843 1.15 1.12
2054.362 1.26 1.35 1.19 1.21 1.23 1.1039 1.21 1.41 1.55 1.52
2073.651 1.63 1.65 1.28 1.43 1.53 1.35 1.28 1.26 1.42 1.3
2092.941 1.19 1.56 1.55 1.53 1.62 1.24 1.0213 1.17 1.29 1.36
2112.231 1.21 1.28 1.31 1.3 1.29 1.23 1.28 1.13 1.46 1.57
2131.521 1.35 1.26 1.26 1.26 1.0658 1.19 1.35 1.43 1.37 1.25
2150.810 1.19 1.0267 1.0495 0.9555 0.8925 0.92 1.037 1.19 1.0525 0.9074
2170.100 1.0148 1.043 1.0186 1.12 1.11 1.0075 1.0623 1.0987 1.0518 1.14
2189.390 1.23 1.34 1.28 1.26 1.45 1.46 1.33 1.33 1.51 1.57
2208.680 1.46 1.43 1.37 1.56 1.64 1.54 1.61 1.73 1.64 1.48
2227.970 1.53 1.33 1.25 1.78 1.73 1.42 1.47 1.57 1.79 1.85
2247.259 1.92 2.1 2.01 2.04 2.1 2.14 2.24 2.2 2.12 2.1
2266.549 2.07 2.26 2.24 1.96 2 1.73 1.53 1.56 1.79 1.73
2285.839 1.61 1.79 1.7 1.68 1.66 1.42 1.26 1.38 1.17 1.0196
2305.129 1.16 0.9488 0.9666 1.0898 1.0759 1.37 1.42 1.19 1.25 1.58
2324.418 1.67 1.56 1.38 1.38 1.41 1.21 1.26 1.57 1.63 1.47
2343.708 1.52 1.77 1.9 1.9 2.1 2.25 2.2 2.18 2.22 2.12
2362.998 1.99 1.99 1.93 2.16 2.3 2.11 1.94 1.95 2.23 2.23
2382.288 2.01 1.98 1.91 1.88 2.19 2.23 2.1 1.9 1.96 2.29
2401.578 2.16 1.8 2.08 2.17 1.91 1.9 1.94 1.85 1.81 2.16
2420.867 2.14 1.98 1.84 1.91 1.8 1.82 1.92 1.98 2.31 2.16
2440.157 2.18 2.54 2.42 2.1 2.03 2.16 1.98 1.86 2.09 2.03
2459.447 2.15 2.31 2.2 1.71 1.5 1.83 1.96 1.88 1.9 2.16
2478.737 2.39 2.4 2.28 2.58 2.51 2.03 2.06 2.27 2.41 2.46
2498.026 2.54 2.68 2.73 2.6 2.68 2.94 3.12 3.33 3.55 3.55
2517.316 3.49 3.41 3.42 3.72 3.76 3.89 3.89 3.77 3.79 3.79
2536.606 3.87 3.86 3.65 3.2 3.17 3.34 3.17 2.98 3.05 3.06
2555.896 2.84 3.08 3.33 3.06 2.94 2.69 2.56 2.71 2.97 3.08
2575.186 3.02 2.86 2.72 3.04 3.11 2.66 2.45 2.59 2.55 2.58
2594.475 2.7 2.81 2.8 3.01 2.97 2.74 3.09 3.04 2.69 2.82
2613.765 2.84 2.72 2.67 2.79 3.07 3.36 3.31 2.82 2.9 3.55
2633.055 3.69 3.41 3.53 3.58 3.5 3.6 3.4 2.99 2.88 2.99
2652.345 3.14 3.35 3.25 2.96 2.99 3.02 3.24 3.42 3.05 2.82
2671.634 2.75 2.65 2.64 2.55 2.48 2.27 2.7 3.22 3.08 2.76
2690.924 2.83 3.3 3.5 3.58 3.66 3.6 3.44 3.48 3.67 3.44
2710.214 3.16 3 2.7 2.71 2.67 2.79 2.97 2.82 2.71 2.69
2729.504 2.87 3.07 3.2 3.11 3.3 3.52 3.55 3.78 3.65 3.75
2748.794 4.06 4.3 4.32 4.25 4.25 3.96 3.75 3.85 4.03 4.07
2768.083 4.21 4.36 4.39 3.8 3.22 3.29 3.19 3.2 3.73 3.64
2787.373 3.51 3.48 3.13 3.21 3.01 3.04 2.93 3.07 3.13 2.48
2806.663 2.76 3.36 3.3 2.6 2.47 2.62 2.75 3.12 3.06 3.18
2825.953 3.23 3.19 3.32 3.17 2.95 3.07 3.46 3.65 3.47 3.39
2845.242 3.67 3.81 3.85 3.77 4.03 4.43 5.3 6 5.99 6.39
2864.532 6.99 8.11 9.08 9.23 9.51 10.16 10.67 11 11.09 10.62
2883.822 10.21 10.25 9.85 9.3 8.99 8.83 8.52 8.21 7.79 7.84
2903.112 8.12 8.03 8.08 8.15 8.31 8.95 9.45 9.91 10.82 11.96
2922.401 13.24 14.32 15.84 17.55 18.85 19.85 20.49 20.16 19.22 17.84
2941.691 15.87 14.04 12.36 10.62 9.31 8.9 8.37 7.81 7.84 7.46
2960.981 7.33 7.24 6.94 7.46 7.11 6.55 6.76 6.19 6.07 6.63
2980.271 6.99 7.19 7.02 6.52 6.33 6.43 6.31 6.69 6.84 6.93
2999.561 7.15 6.8 7.02 7.58 7.69 7.91 8.32 8.52 8.97 9.22
3018.850 9.24 9.44 9.36 10.13 11.65 13.22 14.25 14.29 14.25 14.39
3038.140 14.09 13.32 12.89 12.03 10.7 10.38 10.15 9.22 9.03 9.14
3057.430 9.08 9.57 10.26 10.48 10.5 10.28 9.73 10.31 10.73 10.09
3076.720 9.73 9.41 9.13 8.77 8.22 8.41 9.47 10.5 12.01 13.63
3096.009 14.27 14.24 13.45 12.16 9.82 7.27 6.29 5.96 5.95 5.84
3115.299 5.72 6.09 6.32 6.23 6.01 5.74 5.46 5.44 5.35 4.97
3134.589 5.02 5.2 5.19 5.17 5.01 5.29 5.54 4.93 4.75 4.8
3153.879 4.62 5 4.92 4.5 4.52 4.75 5.1 5.17 5.17 5.23
3173.169 4.87 4.31 4.92 5.3 4.98 5.14 4.76 4.79 4.85 4.64
3192.458 5.11 5.17 4.79 5 5.34 5.36 5.54 5.88 5.66 5.66
3211.748 5.91 5.84 5.33 5.11 5.37 5.35 5.16 4.94 4.85 5.22
3231.038 5.61 5.08 4.75 4.72 5.04 5.36 5.41 5.59 5.39 5.02
3250.328 5.04 5.22 5.44 5.82 5.83 5.23 4.76 4.94 5.39 5.19
3269.617 4.53 5.18 5.9 5.61 5.55 5.26 4.82 4.56 4.83 5.5
3288.907 5.1 4.35 4.48 4.45 4.07 4.18 4.43 4.91 4.99 5.07
3308.197 4.91 4.59 4.43 3.94 4 4.67 4.52 4.1 4.02 3.52
3327.487 3.47 3.96 4.12 4.05 3.91 3.93 4.15 3.58 3.77 3.96
3346.777 4.05 4.39 3.94 4.1 4.01 3.23 3.03 3.42 3.91 3.83
3366.066 3.5 3.61 3.64 3.3 3.11 3.34 3.79 3.76 3.67 3.54
3385.356 3.22 3.04 2.85 2.74 2.63 2.63 2.65 2.41 2.75 3.31
3404.646 3.16 3.13 3.34 3.41 3.59 3.53 3.28 3.13 3.34 3.3
3423.936 2.4 2.19 2.48 2.5 2.53 2.39 2.16 2.08 2.02 2.45
3443.225 2.86 2.68 2.4 2.41 2.47 2.31 2.79 2.84 2.6 2.67
3462.515 2.48 2.22 2.22 2.84 3.14 2.82 2.44 2.53 2.88 2.89
3481.805 2.43 2.45 3.23 3.22 3 2.92 2.2 2.41 2.9 2.6
3501.095 2.46 2.33 2.65 3.07 3.49 4.4 5.43 6.16 6.45 6.81
3520.385 7.5 7.68 7.05 6.51 5.4 4.23 3.62 3.82 4.05 3.72
3539.674 3.67 3.5 3.24 2.92 3.03 3.21 2.83 2.45 2 1.75
3558.964 2.18 2.2 1.32 1.31 1.52 1.93 2.23 1.54 1.59 1.9
3578.254 1.89 2.1 2.36 1.83 1.0067 1.38 1.65 1.51 1.98 1.77
3597.544 1.24 1.42 1.7 1.43 1.31 1.22 1 1.32 1.38 1.44
3616.833 1.74 1.54 1.28 1.44 1.18 0.692 0.6861 1.1053 1.37 1.0737
3636.123 0.7871 0.7893 0.9625 1.0877 1.066 1.19 1.2 0.8939 1.19 1.51
3655.413 1.32 0.9606 0.8071 1.0012 1.0084 0.8597 0.7353 0.8887 0.789 0.5974
3674.703 0.7728 1.28 1.34 0.7276 0.8245 1.14 0.6185 0.3773 0.775 0.9145
3693.993 1.0538 1.59 1.75 1.31 1.16 1.3 0.9842 0.9942 1.66 1.76
3713.282 1.54 0.987 0.9106 0.9069 0.4146 0.4208 1.35 1.63 0.9936 0.8536
3732.572 0.7326 1.12 0.9241 0.683 1.0465 0.6942 0.7369 1.0064 0.7416 0.7603
3751.862 0.9254 1.13 0.7412 0.3801 0.7437 0.9767 0.9633 0.9565 1.0824 1.0919
3771.152 1.0667 0.9791 0.9453 0.9402 0.9895 1.36 1.22 0.9393 0.8314 0.9387
3790.441 1.0034 1.16 1.25 0.829 1.0584 1.42 1.39 0.8717 0.5358 0.7059
3809.731 0.6115 0.5525 1.0156 1.16 0.8526 0.4546 0.6448 0.7845 0.6639 1.32
3829.021 1.26 0.4986 0.7872 1.17 0.8689 0.8405 1.25 1.77 1.55 1.44
3848.311 1.49 1.18 1.0319 1.21 1.27 0.751 1.0148 0.9166 0.2616 0.566
3867.601 0.8791 0.7082 0.2151 0.6844 1.69 1.53 0.8751 0.8675 1.18 0.9655
3886.890 0.8835 0.9465 0.4006 0.7086 0.8048 0.6673 1.0657 1.22 1.0693 1.34
3906.180 1.31 0.5658 0.6772 0.7067 0.9714 1.47 1.0164 0.6805 0.6493 0.7988
3925.470 1.34 1.95 1.51 0.9155 1.35 1.34 1.3 1.17 0.862 0.4031
3944.760 0.4785 0.8794 0.463 0 0.228 0.8943 1.23 1.25 1.53 1.23
3964.049 0.6149 0.4891 0.6202 1.32 1.92 1.75 1.55 1.65 0.8668 0.9673
3983.339 1.33 0.7588 1.1017 1.42 1.56 2.1 1.54 0.8252 1.0049 0.9516
##END=
