##TITLE=2-Heptyn-1-al-diethyl acetal
##JCAMP-DX=4.24
##DATA TYPE=INFRARED SPECTRUM
##ORIGIN=EPA-IR VAPOR PHASE LIBRARY
##OWNER=SRD/NIST
Collection (C) 2018 copyright by the U.S. Secretary of Commerce
on behalf of the United States of America. All rights reserved.
##CAS REGISTRY NO=18232-30-9
##MOLFORM=C 11 H 20 O 2
##$NIST SOURCE=MSDC-IR
##STATE=gas
##XUNITS=1/CM
##YUNITS=ABSORBANCE
##XFACTOR=1.
##YFACTOR=0.001
##DELTAX=1.92934
##FIRSTX=549.9
##LASTX=3999.5
##FIRSTY=4.13
##MAXX=3999.53
##MINX=549.863
##MAXY=0.28086
##MINY=0
##NPOINTS=1789
##XYDATA=(X++(Y..Y))
549.863 4.13 3.94 3.8479 3.8245 3.7211 3.6008 3.5306 3.5998 3.5112 3.3025
569.156 3.2187 3.2328 3.02288 2.8457 2.8921 2.916 2.8322 2.722 2.747 2.742
588.450 2.646 2.658 2.67 2.647 2.612 2.604 2.656 2.706 2.75 2.713
607.743 2.772 2.799 2.642 2.574 2.636 2.611 2.562 2.609 2.579 2.525
627.037 2.586 2.649 2.608 2.571 2.67 2.748 2.71 2.724 2.748 2.696
646.330 2.689 2.716 2.749 2.794 2.8811 2.9047 2.8783 2.9165 2.89 2.9445
665.624 2.92009 2.8402 2.99487 3.0731 3.0832 3.0953 3.1229 3.2427 3.2876 3.2154
684.917 3.1405 3.1719 3.209 3.1515 3.0951 3.0496 3.105 3.161 3.1215 3.0964
704.210 3.0735 3.0942 3.187 3.2355 3.2993 3.3803 3.4031 3.5227 3.6384 3.7289
723.504 3.8703 4.05 4.35 4.77 5.27 5.82 6.48 7.1 7.58 7.96
742.797 8.09 7.98 7.7 7.26 6.76 6.26 5.85 5.48 5.24 5.04
762.091 4.86 4.82 4.79 4.79 4.87 4.98 5.09 5.25 5.43 5.6
781.384 5.79 5.93 6.08 6.28 6.52 6.75 6.96 7.13 7.34 7.55
800.678 7.8 8.06 8.22 8.36 8.55 8.77 8.86 8.94 9.08 9.09
819.971 9.12 9.24 9.28 9.32 9.4 9.46 9.42 9.4 9.42 9.41
839.264 9.36 9.2 9.04 8.82 8.61 8.46 8.26 8.12 8.05 7.94
858.558 7.81 7.8 7.79 7.77 7.81 7.91 8.05 8.23 8.5 8.8
877.851 9.07 9.39 9.72 10.08 10.48 10.92 11.46 12.04 12.65 13.31
897.145 14.11 14.9 15.77 16.71 17.54 18.3 18.87 19.1 19.11 18.82
916.438 18.19 17.36 16.41 15.5 14.69 14.03 13.48 13.1 12.86 12.61
935.732 12.51 12.5 12.63 12.9 13.26 13.85 14.62 15.6 16.85 18.23
955.025 19.79 21.49 23.33 25.3 27.33 29.53 31.91 34.6 37.65 41.06
974.318 44.88 49.04 53.5 58.2 63.05 67.89 72.59 77.12 81.36 85.18
993.612 88.42 91.06 93.03 94.24 94.7 94.31 93.11 91.18 88.58 85.34
1012.905 81.7 77.94 74.22 70.94 68.37 66.71 66.16 66.96 69.35 73.45
1032.199 79.32 87.08 96.94 108.99 123.28 139.77 158.1 177.91 198.51 218.8
1051.492 237.82 254.55 267.69 276.54 280.86 280.6 276.38 268.96 259.37 248.98
1070.786 238.56 228.7 219.79 211.7 204.25 197.29 190.59 184.08 177.88 172.11
1090.079 167.08 163 160.04 158.07 157.02 156.75 156.83 156.54 155.39 152.95
1109.372 148.7 142.89 135.65 127.3 118.64 110.35 103.14 97.47 93.43 90.9
1128.666 89.63 89.89 91.63 94.8 99.71 106.29 114.93 125.34 136.81 148.56
1147.959 159.09 166.71 170.29 168.88 162.63 152.51 139.67 125.82 112.41 100.5
1167.253 90.19 81.31 73.96 67.68 62.25 57.71 53.62 49.88 46.58 43.43
1186.546 40.55 37.9 35.33 32.93 30.83 28.72 26.43 24.51 22.92 21.29
1205.840 19.6 18.41 17.38 16.2 15.16 14.16 13.31 12.76 12.14 11.32
1225.133 11.01 10.93 10.5 10.23 10.14 10.11 10.22 10.17 10.2 10.26
1244.426 10.43 10.95 11.31 11.48 11.66 11.78 11.72 11.64 11.51 11.31
1263.720 11.29 11.34 11.56 11.89 12.29 12.87 13.41 13.92 14.47 15.11
1283.013 15.85 16.64 17.51 18.5 19.6 20.74 21.89 23.06 24.19 25.24
1302.307 26.2 27.08 28.01 29.2 30.85 33.1 36.21 40.31 45.45 51.63
1321.600 58.71 66.36 73.88 80.45 85.47 88.67 90.17 90.21 89.02 87.31
1340.894 85.84 85.13 85.57 87.32 89.82 91.98 92.37 90.14 85.54 79.05
1360.187 71.42 63.79 57.44 53.21 50.57 48.54 46.68 44.62 42.24 39.69
1379.480 37.26 35.43 34.3 33.73 33.38 33.02 32.49 31.78 30.91 29.9
1398.774 28.66 27.21 25.71 24.12 22.6 21.23 19.96 18.83 17.91 17.22
1418.067 16.75 16.45 16.34 16.48 16.83 17.28 17.85 18.52 19.22 19.95
1437.361 20.73 21.49 22.2 22.81 23.27 23.63 23.88 23.93 23.9 23.82
1456.654 23.61 23.36 23.1 22.74 22.26 21.68 21.08 20.37 19.52 18.6
1475.948 17.73 16.85 15.96 15.07 14.18 13.26 12.37 11.51 10.64 9.86
1495.241 9.2 8.59 8.06 7.57 7.17 6.91 6.64 6.33 6.1 5.91
1514.534 5.71 5.58 5.45 5.32 5.16 4.99 4.88 4.75 4.59 4.47
1533.828 4.38 4.29 4.26 4.22 4.14 4 3.886 3.832 3.7392 3.6501
1553.121 3.5934 3.5329 3.5107 3.5616 3.4484 3.3221 3.2694 3.2497 3.2988 3.2931
1572.415 3.1999 3.2324 3.2791 3.1454 3.0863 3.1105 3.1196 3.1041 3.0755 3.101
1591.708 3.0961 3.0532 3.0558 3.1026 3.1007 3.0727 3.0976 3.1242 3.1664 3.2394
1611.002 3.2737 3.3332 3.4808 3.5648 3.5086 3.5127 3.5632 3.5327 3.513 3.51
1630.295 3.5146 3.4824 3.4616 3.4683 3.3816 3.3289 3.2989 3.2284 3.2102 3.1633
1649.588 3.1101 3.1087 3.0274 2.9585 2.9149 2.8452 2.8713 2.8855 2.8335 2.828
1668.882 2.8557 2.8501 2.816 2.784 2.733 2.671 2.605 2.637 2.702 2.617
1688.175 2.557 2.572 2.562 2.518 2.52 2.559 2.555 2.534 2.496 2.455
1707.469 2.439 2.465 2.456 2.444 2.461 2.454 2.395 2.355 2.362 2.319
1726.762 2.326 2.374 2.368 2.324 2.301 2.259 2.249 2.236 2.168 2.174
1746.056 2.174 2.173 2.181 2.163 2.13 2.134 2.156 2.189 2.165 2.119
1765.349 2.143 2.135 2.119 2.142 2.154 2.14 2.131 2.111 2.094 2.061
1784.642 2.022 2.036 2.068 2.106 2.122 2.054 2.053 2.076 2.045 2.033
1803.936 2.083 2.107 2.107 2.164 2.149 2.151 2.183 2.166 2.18 2.152
1823.229 2.1 2.098 2.149 2.194 2.188 2.227 2.272 2.279 2.279 2.276
1842.523 2.288 2.292 2.312 2.383 2.431 2.42 2.417 2.472 2.512 2.51
1861.816 2.545 2.635 2.706 2.777 2.8507 2.8833 2.92397 2.98519 3.0666 3.1168
1881.110 3.1391 3.1991 3.2591 3.286 3.3219 3.3187 3.3412 3.357 3.2981 3.2953
1900.403 3.3112 3.315 3.3457 3.3621 3.3461 3.3356 3.3348 3.3411 3.3467 3.3447
1919.696 3.3334 3.3382 3.3648 3.3861 3.4161 3.4434 3.4586 3.4998 3.5319 3.5157
1938.990 3.5437 3.5631 3.551 3.5514 3.5441 3.601 3.6548 3.6419 3.6646 3.6745
1958.283 3.6603 3.6715 3.6882 3.7351 3.7687 3.7767 3.8046 3.8402 3.8521 3.8256
1977.577 3.8166 3.825 3.8088 3.7922 3.7646 3.7331 3.7357 3.7334 3.7344 3.6607
1996.870 3.5567 3.56 3.5478 3.5123 3.4955 3.448 3.3907 3.3708 3.3258 3.2796
2016.164 3.259 3.2163 3.171 3.1681 3.1535 3.1376 3.128 3.1015 3.1094 3.0857
2035.457 3.0564 3.0589 3.0639 3.0804 3.0655 3.02509 2.99075 2.96136 2.97836 2.9645
2054.750 2.9192 2.92012 2.8629 2.818 2.8484 2.818 2.775 2.794 2.782 2.756
2074.044 2.716 2.685 2.702 2.699 2.687 2.666 2.65 2.65 2.632 2.597
2093.337 2.617 2.626 2.588 2.579 2.602 2.584 2.561 2.596 2.588 2.58
2112.631 2.618 2.64 2.654 2.659 2.684 2.71 2.744 2.785 2.8526 2.93868
2131.924 2.97385 2.99172 3.00952 3.0486 3.0745 3.1034 3.1522 3.212 3.2475 3.2701
2151.218 3.3269 3.3846 3.4483 3.5359 3.5833 3.6263 3.7112 3.7697 3.8165 3.9063
2170.511 4.03 4.14 4.29 4.46 4.63 4.82 5.02 5.24 5.48 5.73
2189.804 6.02 6.32 6.63 7 7.39 7.8 8.29 8.83 9.41 10.04
2209.098 10.75 11.49 12.26 13.13 14.03 14.88 15.72 16.54 17.29 17.88
2228.391 18.31 18.61 18.75 18.73 18.56 18.16 17.62 17.04 16.35 15.61
2247.685 14.87 14.12 13.39 12.67 12.04 11.4 10.74 10.18 9.64 9.12
2266.978 8.66 8.21 7.82 7.49 7.14 6.84 6.63 6.43 6.29 6.14
2286.272 6.05 6.03 6.01 5.98 5.92 5.89 5.87 5.87 5.89 5.8
2305.565 5.67 5.49 5.29 5.06 4.77 4.49 4.2 3.95 3.697 3.4144
2324.858 3.1971 3.0402 2.92354 2.82 2.728 2.655 2.578 2.515 2.479 2.458
2344.152 2.409 2.356 2.334 2.32 2.358 2.363 2.311 2.334 2.349 2.339
2363.445 2.337 2.312 2.31 2.299 2.274 2.271 2.304 2.321 2.304 2.31
2382.739 2.319 2.299 2.31 2.347 2.368 2.352 2.33 2.343 2.397 2.396
2402.032 2.333 2.333 2.364 2.42 2.411 2.398 2.468 2.487 2.456 2.464
2421.326 2.457 2.46 2.475 2.45 2.4 2.37 2.383 2.384 2.361 2.305
2440.619 2.29 2.282 2.256 2.298 2.303 2.242 2.194 2.179 2.189 2.188
2459.912 2.138 2.093 2.088 2.076 2.08 2.099 2.079 2.042 2.036 2.042
2479.206 2.025 2.033 2.065 2.051 2.024 2.003 2.003 2.009 2.002 1.968
2498.499 1.943 1.963 1.95 1.945 1.962 1.89 1.86 1.9 1.9 1.91
2517.793 1.935 1.92 1.88 1.9 1.93 1.91 1.946 1.992 1.966 1.959
2537.086 2.023 2.029 2.004 2.065 2.125 2.129 2.077 2.072 2.105 2.16
2556.380 2.189 2.129 2.13 2.2 2.218 2.233 2.27 2.295 2.326 2.331
2575.673 2.336 2.377 2.424 2.428 2.412 2.461 2.555 2.596 2.616 2.649
2594.966 2.743 2.8751 2.93927 2.97804 3.01152 3.0452 3.0997 3.1974 3.2538 3.2806
2614.260 3.3411 3.4628 3.6203 3.7406 3.8213 3.8071 3.8567 3.96 4 4.01
2633.553 4.01 4.02 4.01 4 3.99 4 3.95 3.9244 3.93 3.93
2652.847 3.93 3.8883 3.8746 3.8894 3.8766 3.9026 3.94 3.95 4 4.04
2672.140 4.07 4.08 4.11 4.15 4.21 4.26 4.25 4.18 4.21 4.24
2691.434 4.19 4.16 4.17 4.19 4.23 4.24 4.25 4.3 4.34 4.4
2710.727 4.52 4.61 4.7 4.88 5.03 5.16 5.32 5.49 5.67 5.81
2730.020 5.9 5.99 6.16 6.35 6.49 6.61 6.77 6.94 7.08 7.25
2749.314 7.39 7.54 7.73 7.81 7.87 7.99 8.09 8.2 8.24 8.26
2768.607 8.39 8.53 8.58 8.68 8.84 8.99 9.15 9.32 9.43 9.62
2787.901 9.92 10.06 10.16 10.37 10.51 10.7 10.96 11.23 11.62 11.99
2807.194 12.3 12.73 13.18 13.65 14.24 14.84 15.46 16.16 16.92 17.87
2826.488 18.79 19.75 20.87 21.99 23.2 24.44 25.85 27.41 29.08 30.93
2845.781 32.96 35.15 37.39 39.86 42.64 45.56 48.85 52.76 57.13 62.02
2865.074 67.26 72.45 77.43 82.03 86.23 89.93 93.09 95.87 98.15 99.68
2884.368 100.9 101.88 102.56 103.28 103.87 104.56 105.51 106.54 107.61 108.46
2903.661 108.91 108.89 108.71 108.76 109.06 109.98 111.59 113.89 117.1 121.39
2922.955 126.7 133.15 140.85 149.54 158.62 167.59 175.94 182.78 187.03 187.87
2942.248 185.18 179.44 171.45 162.18 152.75 144.18 137.73 134.13 133.13 134.32
2961.542 137.21 141.05 145.27 149.42 153.1 155.73 157.24 158.19 158.13 156.53
2980.835 153.26 147.99 140.42 130.38 118.27 105.06 91.82 79.49 68.65 59.68
3000.128 52.49 46.74 42.18 38.55 35.67 33.18 30.95 28.98 27.1 25.36
3019.422 23.73 22.26 20.93 19.66 18.46 17.28 16.19 15.17 14.35 13.64
3038.715 12.95 12.3 11.6 11 10.47 9.88 9.36 8.92 8.53 8.21
3058.009 7.92 7.67 7.34 7.01 6.81 6.52 6.35 6.17 5.89 5.65
3077.302 5.43 5.29 5.08 4.85 4.7 4.57 4.5 4.46 4.42 4.28
3096.596 4.13 4.04 3.96 3.9201 3.8157 3.7151 3.619 3.5823 3.457 3.402
3115.889 3.4231 3.2854 3.1239 3.1241 3.1857 3.0664 2.97462 3.00688 2.98713 2.8742
3135.182 2.798 2.782 2.682 2.531 2.506 2.515 2.548 2.522 2.428 2.307
3154.476 2.321 2.328 2.115 2.18 2.311 2.207 2.145 2.115 2.053 2.066
3173.769 2.059 2.031 2.018 1.965 1.949 1.989 2.022 1.932 1.91 1.938
3193.063 1.958 1.951 1.86 1.74 1.75 1.76 1.66 1.68 1.72 1.68
3212.356 1.58 1.53 1.53 1.42 1.23 1.16 1.17 1.05 0.95 1.01
3231.650 1.03 0.95 0.9 0.82 0.68 0.59 0.65 0.72 0.62 0.47
3250.943 0.5 0.53 0.5 0.4 0.31 0.35 0.36 0.36 0.4 0.49
3270.236 0.53 0.38 0.26 0.27 0.32 0.27 0.27 0.28 0.12 0.18
3289.530 0.27 0.29 0.36 0.33 0.43 0.5 0.28 0.24 0.28 0.34
3308.823 0.51 0.47 0.34 0.35 0.31 0.3 0.33 0.38 0.43 0.48
3328.117 0.53 0.47 0.45 0.44 0.29 0.28 0.34 0.26 0.31 0.35
3347.410 0.31 0.26 0.23 0.29 0.4 0.48 0.38 0.23 0.15 0.38
3366.704 0.44 0.37 0.46 0.4 0.27 0.23 0.36 0.44 0.48 0.45
3385.997 0.32 0.28 0.29 0.3 0.25 0.02 0 0.22 0.25 0.22
3405.290 0.37 0.43 0.29 0.27 0.3 0.34 0.33 0.3 0.34 0.28
3424.584 0.24 0.25 0.27 0.31 0.26 0.16 0.21 0.29 0.31 0.38
3443.877 0.29 0.34 0.43 0.35 0.33 0.29 0.17 0.18 0.27 0.25
3463.171 0.23 0.27 0.17 0.15 0.22 0.14 0.21 0.25 0.18 0.19
3482.464 0.24 0.28 0.27 0.26 0.29 0.2 0.16 0.32 0.38 0.29
3501.758 0.34 0.33 0.19 0.23 0.29 0.26 0.27 0.32 0.27 0.17
3521.051 0.29 0.4 0.47 0.41 0.24 0.29 0.35 0.39 0.51 0.53
3540.344 0.45 0.43 0.45 0.52 0.43 0.47 0.64 0.61 0.59 0.52
3559.638 0.49 0.5 0.46 0.51 0.57 0.52 0.47 0.46 0.52 0.53
3578.931 0.47 0.46 0.55 0.59 0.57 0.54 0.49 0.47 0.55 0.55
3598.225 0.49 0.47 0.44 0.46 0.4 0.36 0.38 0.42 0.49 0.51
3617.518 0.55 0.56 0.62 0.7 0.7 0.7 0.78 0.81 0.74 0.69
3636.812 0.61 0.52 0.67 0.8 0.74 0.72 0.72 0.72 0.69 0.55
3656.105 0.56 0.65 0.71 0.71 0.67 0.74 0.81 0.86 0.9 0.85
3675.398 0.82 0.87 0.93 0.92 0.92 0.85 0.81 0.87 0.89 0.89
3694.692 0.92 1 1.03 0.97 0.91 0.95 0.9 0.95 0.99 0.94
3713.985 1.02 0.9 0.87 1.04 1.11 1.08 1.07 1.08 1.1 1.06
3733.279 1.03 1.11 1.11 1.13 1.12 1.07 1.1 1.11 1.14 1.1
3752.572 1.01 1.09 1.21 1.11 1.05 1.08 1.03 0.92 1.01 1.12
3771.866 1.07 1.01 0.91 0.99 1.08 1.11 1.13 1.08 1.1 1.12
3791.159 1.12 1.17 1.23 1.21 1.13 1.17 1.26 1.33 1.29 1.24
3810.452 1.26 1.26 1.31 1.37 1.31 1.19 1.23 1.26 1.17 1.12
3829.746 1.19 1.27 1.24 1.17 1.2 1.23 1.2 1.2 1.21 1.23
3849.039 1.2 1.17 1.17 1.12 1.13 1.19 1.19 1.18 1.2 1.21
3868.333 1.13 1.07 1.1 1.16 1.1 1.1 1.16 1.1 1.1 1.16
3887.626 1.19 1.22 1.23 1.16 1.22 1.27 1.28 1.35 1.37 1.33
3906.920 1.24 1.25 1.31 1.24 1.26 1.33 1.27 1.27 1.29 1.31
3926.213 1.36 1.39 1.43 1.41 1.43 1.49 1.57 1.55 1.49 1.36
3945.506 1.3 1.42 1.54 1.54 1.57 1.77 1.76 1.65 1.69 1.62
3964.800 1.72 1.91 1.89 1.85 1.85 1.88 1.9 1.92 1.942 1.939
3984.093 1.953 2.097 2.139 2.034 2.085 2.222 2.197 2.043 2.035
##END=
