##TITLE=Salicylidene 2-aminopyridene
##JCAMP-DX=4.24
##DATA TYPE=INFRARED SPECTRUM
##ORIGIN=EPA-IR VAPOR PHASE LIBRARY
##OWNER=SRD/NIST
Collection (C) 2018 copyright by the U.S. Secretary of Commerce
on behalf of the United States of America. All rights reserved.
##CAS REGISTRY NO=1823-47-8
##MOLFORM=C 12 H 10 N 2 O
##$NIST SOURCE=MSDC-IR
##STATE=gas
##XUNITS=1/CM
##YUNITS=ABSORBANCE
##XFACTOR=1.
##YFACTOR=0.001
##DELTAX=1.92898
##FIRSTX=549.8
##LASTX=4000.7
##FIRSTY=3.5
##MAXX=4000.7
##MINX=549.759
##MAXY=0.14036
##MINY=0.0001267
##NPOINTS=1790
##XYDATA=(X++(Y..Y))
549.759 3.5 4.29 5.93 7.55 8.62 8.66 8.42 8.21 7.13 6.02
569.049 5.69 6.7 8.71 10.48 11.39 11.54 11.5 10.47 7.92 5.29
588.339 3.41 2.42 1.87 1.53 1.53 1.44 1.59 1.66 1.67 1.65
607.628 1.67 1.97 2.14 2.19 2.3 2.51 2.64 2.56 2.24 2.14
626.918 2.37 2.37 2.05 1.77 1.64 1.54 1.48 1.44 1.49 1.52
646.208 1.42 1.68 1.92 1.86 1.83 2.06 2.17 2.18 2.37 2.56
665.498 2.77 2.82 3.08 3.58 4 4.32 4.46 4.5 4.49 4.38
684.787 4.31 4.23 4.06 3.94 4.18 4.46 4.53 4.48 4.73 5.17
704.077 5.34 5.6 5.92 6.36 6.88 7.42 8.2 8.93 9.74 10.78
723.367 11.83 13.09 14.54 16.11 17.83 19.1 20.65 23.02 25.92 29.17
742.657 32.56 35.92 39.08 42.1 46.01 48.94 46.12 41.53 38.74 35.77
761.947 32.49 29.25 26.53 24.78 23.96 23.86 24.61 25.93 27.15 28.29
781.236 29.49 30.54 31.12 30.75 29.09 26.88 24.7 22.43 20.22 18.29
800.526 16.56 14.9 13.61 12.48 11.58 10.67 9.53 8.49 7.51 6.63
819.816 5.98 5.38 4.95 4.63 4.4 4.29 4.18 4.24 4.31 4.57
839.106 4.78 4.88 5.4 6.07 6.69 7.24 7.86 8.61 9.07 8.99
858.395 8.86 8.68 8.25 7.75 7.11 6.47 5.88 5.45 5.29 5.14
877.685 4.96 4.8 4.64 4.34 4.11 4.23 4.4 4.7 4.96 5.45
896.975 6.42 7.64 9.4 12.15 16.11 21.87 29.25 36.66 41.47 42.11
916.265 40 35.25 26.92 17.19 10 6.38 4.79 3.96 3.7 3.66
935.555 3.42 3.09 2.93 2.94 2.79 2.71 2.78 2.88 2.92 3.01
954.844 3.31 3.59 3.53 3.44 3.49 3.42 3.28 3.12 3.13 3.3
974.134 3.37 3.42 3.74 4.08 4.4 4.92 5.55 6.35 6.61 6.31
993.424 6.02 5.85 5.72 5.29 4.49 3.71 3.28 2.99 2.67 2.54
1012.714 2.52 2.71 2.9 3.08 3.49 3.89 4.19 4.51 4.82 4.99
1032.003 5.3 5.93 6.16 5.94 6.07 6.19 5.89 5.61 5.1 4.35
1051.293 4.18 4.01 3.65 3.41 2.92 2.5 2.44 2.28 1.94 1.84
1070.583 1.95 1.79 1.62 1.72 1.56 1.65 2.26 2.31 2.08 2.61
1089.873 3.04 3.28 3.68 3.73 3.84 4.43 4.95 5.1 5.74 6.7
1109.163 8.21 10.36 12.3 13.24 13.28 12.93 11.88 10.26 8.94 8.22
1128.452 8.43 9.54 11.08 14.23 19.11 24.87 30.7 35.93 42.32 47.8
1147.742 47.14 42.53 39.1 34.46 26.6 19.15 14.66 12.67 12.17 12.69
1167.032 14.1 16.37 19.23 22.87 27.49 33.12 39.51 46.03 51.71 55.55
1186.322 57.46 57.65 56.71 55.86 55.39 55.37 55.33 53.99 50.61 44.54
1205.611 37.14 29.81 23.72 20.25 18.21 16.91 16.55 16.5 16.89 17.47
1224.901 17.86 18.03 17.84 17.6 17.36 17.29 17.27 17.26 17.85 19.2
1244.191 21.18 23.66 25.79 27.28 27.98 27.38 25.65 23.19 20.47 18.38
1263.481 17.63 17.92 19.04 21.05 23.5 26.2 29.06 31.67 34.03 35.87
1282.771 36.96 36.96 35.73 33.79 31.5 28.82 25.69 22.48 19.59 17.01
1302.060 14.77 13.05 11.68 10.57 9.68 8.94 8.31 7.78 7.31 6.81
1321.350 6.36 5.91 5.41 4.93 4.46 4.13 3.98 3.96 3.96 4.04
1340.640 4.24 4.45 4.81 5.33 5.93 6.69 7.64 8.67 9.62 10.41
1359.930 11.03 11.45 11.65 11.65 11.45 11.21 10.94 10.66 10.51 10.36
1379.219 10.28 10.3 10.38 10.48 10.66 10.93 11.26 11.64 11.96 12.31
1398.509 12.7 13.09 13.53 14.08 14.69 15.42 16.36 17.62 19.36 21.66
1417.799 24.84 29.46 35.52 43.33 52.85 62.87 72.07 78.29 79.89 76.88
1437.089 69.86 60.41 50.22 41.84 37.6 37.25 40.16 45.76 54.35 65.92
1456.378 80.68 96.23 106.31 109.25 106.33 98.63 84.76 67.28 52.58 43.12
1475.668 38.02 35.05 33.23 32.06 31.34 30.83 30.36 29.96 29.54 29.02
1494.958 28.35 27.3 25.99 24.45 22.85 21.32 19.83 18.52 17.5 16.89
1514.248 16.57 16.4 16.42 16.53 16.71 17.01 17.37 17.98 18.81 19.77
1533.538 21.05 22.68 24.51 26.72 29.4 32.75 37.05 42.75 50.22 60.23
1552.827 72.35 86.78 100.52 111.75 118.21 118.49 113.35 104.37 94.21 86.22
1572.117 83.75 86.23 91.75 98.39 104.83 110.44 114.09 115.34 113.43 108
1591.407 99.37 88.34 76.29 65.88 59.52 58.51 62.28 69.61 79.88 92.75
1610.697 106.73 119.92 130.12 137.18 140.36 137.92 130 118.32 104.99 90.55
1629.986 76.01 62.12 49.67 38.62 29.79 23.38 18.71 15.49 13.02 11.19
1649.276 9.78 8.81 8.03 7.42 7 6.76 6.59 6.49 6.47 6.37
1668.566 6.25 6.14 6.03 5.97 5.87 5.75 5.66 5.58 5.46 5.36
1687.856 5.32 5.28 5.2 5.1 5.01 4.95 4.88 4.82 4.78 4.67
1707.146 4.56 4.54 4.38 4.16 4.04 3.82 3.59 3.51 3.49 3.44
1726.435 3.32 3.24 3.22 3.11 3.02 3 2.91 2.89 2.88 2.78
1745.725 2.76 2.79 2.76 2.73 2.68 2.56 2.57 2.59 2.54 2.59
1765.015 2.57 2.53 2.55 2.55 2.55 2.61 2.73 2.77 2.81 2.91
1784.305 2.95 2.92 2.84 2.71 2.56 2.41 2.25 2.09 2 1.92
1803.594 1.91 1.9 1.91 2.01 2.2 2.33 2.47 2.67 2.81 2.95
1822.884 3.05 3.06 3.02 2.93 2.78 2.59 2.46 2.37 2.26 2.19
1842.174 2.21 2.26 2.25 2.3 2.42 2.47 2.61 2.8 2.88 2.89
1861.464 2.88 2.89 2.8 2.67 2.56 2.45 2.29 2.14 2.05 1.93
1880.754 1.84 1.87 1.82 1.79 1.86 1.9 1.96 2.06 2.2 2.36
1900.043 2.54 2.74 2.86 2.86 2.81 2.78 2.73 2.6 2.44 2.3
1919.333 2.17 2.04 2.04 2.16 2.36 2.59 2.89 3.31 3.62 3.81
1938.623 3.87 3.66 3.3 2.91 2.48 2.06 1.8 1.69 1.71 1.71
1957.913 1.8 1.94 2.01 2.14 2.16 2.14 2.07 1.91 1.69 1.53
1977.202 1.44 1.28 1.23 1.22 1.16 1.12 1.1 1.01 0.9611 0.9988
1996.492 1.04 1.02 0.9537 0.9437 0.9492 0.9084 0.9086 0.8924 0.8909 0.9106
2015.782 0.8576 0.8159 0.8245 0.863 0.8794 0.9014 0.8803 0.8569 0.8706 0.8825
2035.072 0.9302 0.968 0.9483 0.9387 0.9441 0.9715 1.07 1.15 1.13 1.17
2054.362 1.29 1.39 1.39 1.4 1.35 1.25 1.24 1.23 1.22 1.25
2073.651 1.3 1.31 1.32 1.37 1.39 1.37 1.46 1.56 1.56 1.58
2092.941 1.55 1.48 1.49 1.53 1.5 1.54 1.58 1.55 1.62 1.59
2112.231 1.56 1.49 1.34 1.31 1.29 1.22 1.15 1.11 1.1 1.11
2131.521 1.1 1.08 1.14 1.17 1.13 1.16 1.15 1.06 1.05 1.11
2150.810 1.15 1.16 1.12 1.12 1.16 1.11 1.12 1.17 1.16 1.18
2170.100 1.18 1.18 1.17 1.19 1.29 1.34 1.36 1.43 1.45 1.46
2189.390 1.49 1.46 1.42 1.43 1.44 1.42 1.38 1.42 1.42 1.41
2208.680 1.39 1.37 1.4 1.4 1.41 1.48 1.44 1.38 1.43 1.5
2227.970 1.57 1.6 1.59 1.57 1.61 1.61 1.53 1.51 1.47 1.42
2247.259 1.38 1.4 1.44 1.48 1.51 1.51 1.57 1.65 1.74 1.82
2266.549 1.87 1.83 1.77 1.73 1.64 1.63 1.64 1.69 1.74 1.73
2285.839 1.78 1.82 1.85 1.84 1.81 1.84 1.87 1.83 1.78 1.74
2305.129 1.72 1.69 1.66 1.65 1.68 1.75 1.78 1.78 1.81 1.87
2324.418 1.85 1.83 1.94 2 1.98 2.02 2.08 2.13 2.15 2.13
2343.708 2.11 2.1 2.12 2.13 2.11 2.08 2.01 1.98 2.03 2.05
2362.998 2.06 2.06 2 2.09 2.19 2.21 2.21 2.27 2.31 2.29
2382.288 2.33 2.38 2.4 2.41 2.41 2.43 2.46 2.44 2.47 2.43
2401.578 2.32 2.29 2.35 2.39 2.39 2.32 2.23 2.21 2.18 2.17
2420.867 2.25 2.3 2.28 2.32 2.31 2.23 2.25 2.32 2.36 2.37
2440.157 2.41 2.41 2.37 2.44 2.49 2.51 2.56 2.58 2.54 2.52
2459.447 2.59 2.68 2.75 2.81 2.81 2.82 2.92 2.97 2.94 2.96
2478.737 3.05 3.04 2.96 2.96 2.96 2.94 2.91 2.92 2.9 2.89
2498.026 2.9 2.93 2.97 3.01 3.09 3.17 3.15 3.18 3.3 3.32
2517.316 3.3 3.37 3.41 3.33 3.32 3.39 3.42 3.44 3.49 3.46
2536.606 3.43 3.46 3.52 3.59 3.6 3.58 3.68 3.84 3.82 3.71
2555.896 3.78 3.89 3.9 3.91 3.87 3.89 3.94 4.01 4.06 4.01
2575.186 4.01 4.02 4.08 4.18 4.19 4.23 4.3 4.34 4.42 4.53
2594.475 4.61 4.68 4.82 4.9 4.9 5 5.18 5.29 5.29 5.25
2613.765 5.24 5.24 5.23 5.23 5.24 5.26 5.32 5.29 5.31 5.43
2633.055 5.5 5.53 5.49 5.45 5.38 5.37 5.35 5.27 5.24 5.18
2652.345 5.17 5.2 5.15 5.15 5.14 5.13 5.11 5.08 5.08 5.06
2671.634 5.11 5.1 5.06 5.05 4.94 4.9 4.95 4.99 5.05 5.14
2690.924 5.22 5.27 5.29 5.38 5.47 5.57 5.68 5.79 5.83 5.85
2710.214 6 6.1 6.21 6.34 6.4 6.42 6.51 6.52 6.45 6.51
2729.504 6.59 6.62 6.66 6.73 6.81 6.92 7.04 7.11 7.13 7.2
2748.794 7.32 7.42 7.53 7.55 7.57 7.66 7.68 7.66 7.71 7.7
2768.083 7.71 7.74 7.74 7.71 7.65 7.61 7.49 7.32 7.32 7.37
2787.373 7.32 7.21 7.17 7.19 7.14 7.14 7.18 7.2 7.22 7.15
2806.663 7.11 7.11 7.08 7.16 7.26 7.3 7.33 7.26 7.28 7.31
2825.953 7.3 7.32 7.42 7.53 7.6 7.71 7.72 7.73 7.95 8.22
2845.242 8.34 8.32 8.4 8.65 8.73 8.7 8.72 8.68 8.67 8.65
2864.532 8.73 8.83 8.82 8.88 8.86 8.8 8.76 8.81 8.98 8.94
2883.822 8.94 9.09 9.07 9.14 9.28 9.21 9.21 9.35 9.41 9.49
2903.112 9.55 9.52 9.68 9.8 9.72 9.77 9.91 10 10.09 10.21
2922.401 10.15 10.03 10.06 10.3 10.46 10.47 10.45 10.37 10.22 10.23
2941.691 10.29 10.09 9.98 9.86 9.71 9.62 9.53 9.48 9.5 9.53
2960.981 9.54 9.57 9.75 9.88 10.02 10.28 10.46 10.83 11.18 11.41
2980.271 11.77 12.23 12.59 12.95 13.26 13.5 13.87 14.06 14.34 14.78
2999.561 15.16 15.64 16.07 16.45 16.78 17 17.16 17.08 16.86 16.65
3018.850 16.32 16.01 15.82 15.76 15.69 15.62 15.67 15.87 16.07 16.25
3038.140 16.57 16.99 17.69 18.61 19.69 20.91 22.21 23.59 25.03 26.28
3057.430 27.29 28.19 28.86 29.26 29.63 30.2 30.9 31.6 32.41 33.13
3076.720 33.28 32.9 31.96 30.41 28.68 26.59 24.3 22.19 20.24 18.7
3096.009 17.36 16.19 15.32 14.59 13.94 13.42 13.09 12.91 12.73 12.51
3115.299 12.4 12.27 12.03 12.05 11.9 11.62 11.36 11.21 11.28 11.21
3134.589 11.17 11.08 10.93 10.89 10.83 10.79 10.74 10.7 10.56 10.46
3153.879 10.52 10.58 10.59 10.61 10.56 10.49 10.46 10.45 10.41 10.3
3173.169 10.12 10.04 10 9.84 9.77 9.73 9.71 9.67 9.59 9.31
3192.458 9.11 9.13 9.17 9.11 9.03 9.15 9.15 9.09 9.12 9.15
3211.748 9.23 9.25 9.25 9.36 9.37 9.33 9.46 9.51 9.36 9.2
3231.038 9.11 9.05 8.89 8.79 8.67 8.6 8.55 8.56 8.5 8.27
3250.328 8.25 8.1 7.87 7.84 7.83 7.66 7.59 7.65 7.53 7.37
3269.617 7.18 7.18 7.28 7.11 6.86 6.64 6.46 6.5 6.56 6.49
3288.907 6.4 6.39 6.38 6.24 6.16 6.14 6.14 6.17 6.01 5.83
3308.197 5.78 5.74 5.62 5.44 5.43 5.5 5.38 5.16 5.1 5.09
3327.487 5.04 5.01 4.89 4.83 4.95 4.82 4.59 4.66 4.62 4.49
3346.777 4.41 4.39 4.27 4.04 4 4.02 3.95 3.85 3.77 3.74
3366.066 3.66 3.54 3.56 3.52 3.41 3.31 3.26 3.34 3.31 3.16
3385.356 3.03 2.98 3.08 2.97 2.9 3.01 2.85 2.68 2.65 2.71
3404.646 2.64 2.42 2.43 2.56 2.5 2.37 2.33 2.19 2.1 2.13
3423.936 2.08 1.99 1.89 1.89 1.86 1.89 1.89 1.84 1.88 1.84
3443.225 1.72 1.71 1.73 1.57 1.53 1.68 1.69 1.58 1.55 1.45
3462.515 1.38 1.42 1.39 1.32 1.38 1.52 1.49 1.25 1.19 1.27
3481.805 1.09 0.9536 0.9961 1.14 1.21 1.17 1.13 1.01 1.01 0.9919
3501.095 0.9307 0.9037 0.9008 0.9065 0.8991 0.9437 0.8765 0.7735 0.8592 0.881
3520.385 0.9125 0.9127 0.782 0.8029 0.8694 0.8811 0.8772 0.8801 0.8539 0.7411
3539.674 0.7143 0.7341 0.6816 0.6196 0.6783 0.6945 0.6753 0.6268 0.5824 0.6152
3558.964 0.5383 0.4605 0.3655 0.3695 0.5063 0.5878 0.5834 0.5109 0.4963 0.511
3578.254 0.4881 0.4405 0.5268 0.6496 0.5594 0.3975 0.4403 0.5219 0.4663 0.4273
3597.544 0.4044 0.419 0.5655 0.6026 0.4929 0.5348 0.5369 0.4456 0.4445 0.459
3616.833 0.4537 0.4427 0.4523 0.4385 0.3132 0.3364 0.4825 0.557 0.4999 0.451
3636.123 0.4902 0.5536 0.558 0.4705 0.4898 0.5745 0.5842 0.4981 0.3631 0.3823
3655.413 0.4698 0.4312 0.3766 0.526 0.6567 0.573 0.4687 0.3837 0.3355 0.2499
3674.703 0.2374 0.3168 0.4357 0.4537 0.501 0.5196 0.4985 0.572 0.5429 0.5101
3693.993 0.4496 0.3461 0.3608 0.3451 0.2933 0.2816 0.284 0.3676 0.3282 0.3681
3713.282 0.4145 0.2595 0.1267 0.2732 0.3104 0.3142 0.2835 0.1626 0.258 0.3138
3732.572 0.3643 0.4408 0.4526 0.4375 0.4143 0.309 0.2969 0.2835 0.1861 0.2854
3751.862 0.4617 0.431 0.3706 0.3471 0.2993 0.2724 0.3861 0.3565 0.2894 0.388
3771.152 0.429 0.4572 0.4148 0.3269 0.2864 0.2711 0.2718 0.2526 0.2929 0.3197
3790.441 0.2321 0.148 0.2343 0.3654 0.3793 0.4369 0.4572 0.3718 0.2616 0.3569
3809.731 0.4468 0.3618 0.2502 0.3164 0.4116 0.3669 0.4479 0.4189 0.3508 0.3664
3829.021 0.2975 0.4451 0.4932 0.4455 0.5354 0.3519 0.213 0.3665 0.4229 0.3215
3848.311 0.3678 0.4321 0.4414 0.3944 0.3824 0.2988 0.2401 0.2885 0.358 0.4123
3867.601 0.4249 0.5008 0.363 0.2695 0.4577 0.4906 0.4784 0.4819 0.4245 0.3761
3886.890 0.4473 0.4299 0.2585 0.193 0.2356 0.4406 0.5849 0.4048 0.2917 0.4871
3906.180 0.6106 0.5989 0.6116 0.6188 0.5782 0.6821 0.8825 0.7454 0.4638 0.4181
3925.470 0.4253 0.4113 0.4091 0.4548 0.4609 0.448 0.5496 0.5195 0.4099 0.2857
3944.760 0.3114 0.3786 0.3553 0.3507 0.3781 0.5116 0.4599 0.3984 0.4067 0.4199
3964.049 0.4648 0.4767 0.4547 0.4817 0.492 0.4723 0.5786 0.5819 0.4063 0.4602
3983.339 0.6228 0.6312 0.391 0.2714 0.4591 0.3237 0.3445 0.5108 0.406 0.4052
##END=
