##TITLE=PCP, Methyl ether
##JCAMP-DX=4.24
##DATA TYPE=INFRARED SPECTRUM
##ORIGIN=NIST Mass Spectrometry Data Center
##OWNER=NIST Standard Reference Data Program
Collection (C) 2018 copyright by the U.S. Secretary of Commerce
on behalf of the United States of America. All rights reserved.
##CAS REGISTRY NO=1825-21-4
##MOLFORM=C 7 H 3 Cl 5 O
##$NIST SOURCE=MSDC-IR
##SPECTROMETER/DATA SYSTEM=HP-GC/MS/IRD
##STATE=gas
##XUNITS=1/CM
##YUNITS=ABSORBANCE
##XFACTOR=1.0
##YFACTOR=0.000005400
##DELTAX=4.0
##FIRSTX=550.0
##LASTX=3846.0
##FIRSTY=0.000340
##MAXX=3846
##MINX=550
##MAXY=0.054
##MINY=0
##NPOINTS=825
##XYDATA=(X++(Y..Y))
550.0 63 74 56 48 15 9 43 67 59 55
590.0 54 44 48 52 42 27 48 58 49 59
630.0 58 78 123 189 209 174 146 155 173 165
670.0 157 154 187 236 293 402 559 775 1092 1510
710.0 1957 2237 2188 1874 1552 1332 1128 903 745 749
750.0 981 1392 1742 1762 1403 895 529 360 288 240
790.0 186 170 185 184 165 145 136 118 80 79
830.0 92 90 95 93 76 74 79 77 75 68
870.0 59 63 85 85 77 87 99 115 147 208
910.0 308 437 556 620 595 505 404 312 236 194
950.0 182 169 151 154 165 169 179 186 172 159
990.0 160 174 194 239 331 493 753 1174 1756 2416
1030.0 2983 3230 3036 2495 1862 1316 898 618 440 328
1070.0 263 213 171 150 160 156 148 138 130 127
1110.0 135 140 144 165 203 247 264 252 217 191
1150.0 165 143 145 153 157 162 162 168 186 206
1190.0 224 232 235 243 249 244 234 215 204 208
1230.0 212 226 249 270 265 249 242 237 228 226
1270.0 218 204 204 219 249 294 349 418 499 588
1310.0 691 845 1057 1260 1369 1391 1421 1591 1986 2546
1350.0 3187 3944 4937 6269 7943 9521 10000 8715 6189 3756
1390.0 2230 1398 912 655 520 448 397 352 326 310
1430.0 314 354 455 651 931 1130 1085 817 570 442
1470.0 372 333 307 288 279 273 266 265 271 277
1510.0 290 310 330 356 384 414 459 496 488 423
1550.0 328 240 179 153 137 123 118 121 118 116
1590.0 108 105 107 101 95 90 83 77 76 72
1630.0 68 66 62 57 58 57 55 59 59 59
1670.0 56 55 57 56 53 53 50 49 52 54
1710.0 56 56 58 64 69 70 72 78 79 73
1750.0 70 71 67 61 60 61 59 59 59 67
1790.0 66 58 62 60 54 52 53 48 48 50
1830.0 50 56 62 66 70 68 62 59 52 46
1870.0 45 45 46 44 43 39 39 39 36 44
1910.0 46 48 55 56 54 56 63 72 80 86
1950.0 91 91 89 83 75 68 61 60 59 58
1990.0 57 56 55 56 62 68 67 61 59 59
2030.0 56 52 53 50 49 56 59 59 59 57
2070.0 54 52 49 41 39 39 43 44 37 36
2110.0 37 41 44 46 45 42 38 41 44 44
2150.0 40 38 37 36 36 37 38 44 40 36
2190.0 38 42 38 36 38 36 32 30 29 34
2230.0 40 43 40 41 46 44 38 36 40 43
2270.0 41 43 51 59 61 60 61 58 52 47
2310.0 42 42 37 36 31 27 23 21 26 27
2350.0 27 25 25 26 26 31 37 32 29 32
2390.0 30 30 34 31 32 31 30 35 33 33
2430.0 36 32 26 22 24 32 32 30 26 27
2470.0 28 23 21 27 24 23 31 31 28 31
2510.0 29 19 19 24 21 21 26 28 26 26
2550.0 25 21 21 22 27 32 31 27 30 36
2590.0 29 24 25 28 30 29 29 31 35 39
2630.0 43 39 32 31 30 28 25 27 20 16
2670.0 24 27 20 11 11 17 14 10 24 28
2710.0 24 21 26 29 35 38 32 33 33 19
2750.0 22 28 25 22 24 31 30 21 18 22
2790.0 27 28 33 45 49 49 59 65 73 70
2830.0 63 71 84 109 143 191 264 357 427 425
2870.0 363 281 209 162 142 135 134 137 147 160
2910.0 166 175 184 194 215 248 323 474 681 869
2950.0 905 790 621 471 388 353 346 327 297 272
2990.0 247 222 213 216 224 249 284 306 296 274
3030.0 247 217 189 171 157 141 128 119 120 122
3070.0 111 106 106 95 87 73 67 67 56 49
3110.0 48 49 55 53 44 39 30 35 37 32
3150.0 32 34 30 23 18 13 19 24 24 29
3190.0 13 1 10 15 22 28 25 19 22 27
3230.0 19 15 19 21 15 5 4 5 0 5
3270.0 13 7 1 7 20 13 17 36 29 16
3310.0 14 17 20 21 27 25 26 34 29 17
3350.0 19 17 14 22 25 23 8 6 13 13
3390.0 18 24 21 21 24 22 16 20 25 24
3430.0 31 33 21 11 17 17 17 29 35 25
3470.0 20 21 28 34 27 18 19 21 20 32
3510.0 35 32 27 21 27 38 41 39 32 20
3550.0 11 18 24 19 28 28 33 38 31 27
3590.0 25 21 20 26 18 9 24 41 33 19
3630.0 13 26 34 18 14 23 22 16 26 31
3670.0 25 33 32 21 19 11 11 17 16 26
3710.0 33 22 22 24 14 10 17 31 32 22
3750.0 14 9 8 13 30 37 28 16 22 26
3790.0 24 24 26 18 10 32 33 26 35 38
3830.0 36 28 21 25 23
##END=
