##TITLE=4-Fluoro-.alpha.-methylbenzyl isothiocyanate
##JCAMP-DX=4.24
##DATA TYPE=INFRARED SPECTRUM
##ORIGIN=EPA-IR VAPOR PHASE LIBRARY
##OWNER=SRD/NIST
Collection (C) 2018 copyright by the U.S. Secretary of Commerce
on behalf of the United States of America. All rights reserved.
##CAS REGISTRY NO=182565-27-1
##MOLFORM=C 9 H 8 F N S
##$NIST SOURCE=MSDC-IR
##STATE=gas
##XUNITS=1/CM
##YUNITS=ABSORBANCE
##XFACTOR=1.
##YFACTOR=0.001
##DELTAX=1.92898
##FIRSTX=549.8
##LASTX=4000.7
##FIRSTY=19.55
##MAXX=4000.7
##MINX=549.759
##MAXY=0.227
##MINY=0
##NPOINTS=1790
##XYDATA=(X++(Y..Y))
549.759 19.55 17.92 16.24 14.83 13.7 12.97 12.49 11.99 11.49 11.32
569.049 11.33 11.06 10.83 10.72 10.31 9.98 9.65 9.17 8.76 8.45
588.339 8 7.54 7.15 6.7 6.17 5.75 5.62 5.26 4.82 4.65
607.628 4.36 4.18 4.17 4.04 3.72 3.64 3.71 3.66 3.68 3.65
626.918 3.64 3.63 3.54 3.31 3.23 3.2 3 2.89 2.92 3.01
646.208 3.11 3.04 2.98 3.18 3.31 3.29 3.41 3.55 3.63 3.78
665.498 4.05 4.31 4.48 4.83 5.15 5.32 5.61 5.79 5.84 5.89
684.787 5.82 5.85 5.9 5.75 5.48 5.2 5.07 4.9 4.67 4.44
704.077 4.27 4.24 4.26 4.4 4.58 4.79 5.03 5.33 5.69 6.13
723.367 6.53 7 7.41 7.89 8.36 8.51 8.51 8.24 7.91 7.54
742.657 7 6.33 5.65 4.96 4.44 3.97 3.54 3.23 2.89 2.55
761.947 2.35 2.34 2.31 2.18 2.14 2.16 2.1 2.03 1.99 1.92
781.236 1.8 1.87 2.02 2.07 2.05 2.07 2.27 2.57 3.18 3.63
800.526 4.14 4.96 5.87 7.12 8.44 9.6 10.84 12.15 13.47 14.93
819.816 16.73 18.97 21.75 25.22 29.29 33.68 37.91 41.5 43.36 42.54
839.106 40.15 36.8 32.78 28.37 23.73 19.44 15.66 12.77 10.68 8.83
858.395 7.3 6.22 5.35 4.63 3.99 3.46 2.96 2.6 2.31 2.09
877.685 1.96 1.85 1.8 1.69 1.68 1.7 1.68 1.58 1.55 1.59
896.975 1.54 1.57 1.56 1.61 1.67 1.67 1.6 1.55 1.56 1.62
916.265 1.83 1.84 1.71 1.85 1.97 2.09 2.42 2.73 3.03 3.14
935.555 3.34 3.86 4.28 4.74 5.26 5.75 6.21 6.63 6.94 7.03
954.844 7.05 6.96 6.76 6.4 6 5.53 5.01 4.76 4.51 4.17
974.134 3.76 3.42 3.18 3.07 2.98 2.82 2.6 2.43 2.37 2.26
993.424 2.39 2.61 2.8 3 3.29 3.84 4.88 6.51 8.47 9.99
1012.714 10.6 10.77 11.04 11.54 11.47 10.81 10.76 11.61 12.46 12.56
1032.003 12.46 12.03 10.97 9.65 8 6.58 5.58 4.85 4.45 4.25
1051.293 4.29 4.49 4.49 4.42 4.43 4.42 4.5 4.83 5.33 5.74
1070.583 5.79 5.75 6 6.26 6.22 6.22 6.52 6.72 6.73 6.75
1089.873 7.14 7.8 8.35 8.63 9.09 9.71 9.57 9.23 9.15 8.79
1109.163 8.31 8.35 8.5 8.38 7.89 7.51 7.31 6.82 6.51 6.14
1128.452 5.67 5.45 5 4.46 4.21 4.02 4 4.06 4.19 4.7
1147.742 5.58 7.21 10.24 14.89 20.23 24.22 25.9 26.28 26.06 24.49
1167.032 20.46 14.83 10.16 7.13 5.42 4.53 4.04 3.98 3.93 3.98
1186.322 4.38 4.62 4.92 5.32 5.51 6.08 6.7 7.2 7.7 7.96
1205.611 8.58 9.68 10.8 11.8 12.96 14.69 16.61 18.46 20.83 24.12
1224.901 28.65 35.09 44.27 56.35 70.71 85.29 96.97 103.9 105.76 102.65
1244.191 93.77 78.97 61.1 44.68 33.01 25.59 20.96 18.44 16.99 16.01
1263.481 15.56 15.57 15.73 15.91 16.11 16.26 16.14 15.89 15.55 15.2
1282.771 15.03 15.04 15.35 16.11 17.25 18.72 20.31 21.83 23.36 24.85
1302.060 26.14 27.28 28.53 29.97 31.5 33.05 34.59 36 37.33 38.43
1321.350 39.03 39.21 38.87 37.76 35.94 33.57 30.88 28.12 25.42 22.85
1340.640 20.47 18.38 16.57 15 13.68 12.44 11.22 10.2 9.29 8.48
1359.930 7.9 7.45 7.11 6.93 6.93 7.08 7.35 7.7 8.14 8.57
1379.219 8.92 9.11 9.07 8.91 8.58 8.14 7.64 7.1 6.63 6.29
1398.509 6.04 5.93 5.95 6.02 6.15 6.38 6.59 6.77 6.89 6.95
1417.799 6.89 6.73 6.53 6.21 5.89 5.55 5.19 4.94 4.8 4.77
1437.089 4.85 4.99 5.2 5.45 5.74 6.1 6.44 6.76 6.99 7.07
1456.378 7.04 6.95 6.82 6.58 6.39 6.26 6.2 6.16 6.16 6.26
1475.668 6.4 6.53 6.69 6.99 7.41 7.97 8.75 9.88 11.52 13.67
1494.958 16.56 20.53 25.87 32.81 41.55 52.06 63.94 75.42 84.21 88.71
1514.248 88.25 83.44 74.98 63.52 49.81 36.53 25.71 18.18 13.48 10.43
1533.538 8.36 6.97 6.07 5.33 4.73 4.33 4.02 3.69 3.43 3.28
1552.827 3.19 3.11 3.02 3.02 3.02 3.01 3.11 3.25 3.33 3.47
1572.117 3.73 4.03 4.41 4.92 5.54 6.3 7.22 8.36 9.64 11.21
1591.407 13.16 15.4 17.93 20.59 22.92 24.78 26.04 26.41 25.77 24.07
1610.697 21.66 19.1 16.62 14.37 12.53 10.97 9.56 8.36 7.41 6.62
1629.986 5.93 5.38 5 4.75 4.57 4.43 4.31 4.18 3.96 3.75
1649.276 3.53 3.21 2.96 2.8 2.61 2.42 2.3 2.15 2.01 1.95
1668.566 1.92 1.89 1.83 1.79 1.73 1.69 1.71 1.68 1.64 1.65
1687.856 1.71 1.69 1.62 1.59 1.57 1.524 1.4712 1.4526 1.425 1.4534
1707.146 1.4863 1.4648 1.4484 1.4074 1.3594 1.3372 1.3193 1.3648 1.388 1.3623
1726.435 1.3795 1.4146 1.436 1.4606 1.536 1.6 1.65 1.75 1.91 2.06
1745.725 2.2 2.39 2.64 2.88 3.07 3.16 3.15 3.05 2.91 2.73
1765.015 2.48 2.24 2.04 1.84 1.69 1.6 1.5354 1.4776 1.4512 1.4399
1784.305 1.4114 1.4064 1.3972 1.3855 1.3925 1.4057 1.4024 1.3945 1.3894 1.3854
1803.594 1.3851 1.37 1.3831 1.4115 1.395 1.4044 1.4353 1.4632 1.4512 1.4202
1822.884 1.4626 1.4741 1.5238 1.58 1.57 1.6 1.69 1.76 1.79 1.85
1842.174 1.94 1.99 2.03 2.15 2.29 2.43 2.6 2.79 2.97 3.15
1861.464 3.4 3.61 3.78 4.02 4.28 4.61 4.93 5.22 5.51 5.73
1880.754 5.94 6.13 6.31 6.42 6.5 6.6 6.71 6.78 6.88 7.06
1900.043 7.29 7.54 7.77 8.02 8.32 8.68 9.08 9.48 9.97 10.45
1919.333 10.96 11.55 12.16 12.86 13.65 14.46 15.3 16.17 17.08 18.12
1938.623 19.24 20.38 21.62 22.99 24.44 25.99 27.65 29.38 31.27 33.29
1957.913 35.37 37.61 39.98 42.37 44.87 47.5 50.29 53.11 55.88 58.75
1977.202 61.71 64.78 67.86 71.01 74.34 77.83 81.64 85.8 90.31 95.15
1996.492 100.36 106.05 112.04 118.33 124.95 131.9 139.13 146.47 153.91 161.44
2015.782 168.94 176.42 183.66 190.62 197.28 203.51 209.26 214.34 218.74 222.37
2035.072 225 226.56 227 226.32 224.5 221.74 218.19 213.96 209.42 204.85
2054.362 200.45 196.34 192.53 188.94 185.62 182.44 179.15 175.62 171.56 166.84
2073.651 161.49 155.55 148.97 141.8 134.17 126.23 118.15 110.28 102.73 95.61
2092.941 89.15 83.34 78.28 73.87 70.09 66.95 64.43 62.43 60.78 59.55
2112.231 58.74 58.23 57.94 57.89 57.96 58.09 58.34 58.55 58.66 58.62
2131.521 58.39 57.92 57.26 56.46 55.5 54.5 53.43 52.36 51.17 49.86
2150.810 48.48 47.01 45.32 43.34 41.23 39 36.71 34.4 32.03 29.78
2170.100 27.7 25.78 24.11 22.59 21.12 19.84 18.73 17.79 16.96 16.2
2189.390 15.57 14.99 14.51 14.12 13.75 13.4 13.08 12.8 12.62 12.4
2208.680 12.18 12.03 11.92 11.8 11.63 11.49 11.29 11.06 10.82 10.59
2227.970 10.38 10.1 9.78 9.51 9.24 8.96 8.71 8.39 8.09 7.79
2247.259 7.48 7.17 6.86 6.53 6.2 5.87 5.58 5.32 5.03 4.74
2266.549 4.5 4.26 4.02 3.88 3.7 3.48 3.34 3.19 3.01 2.89
2285.839 2.77 2.64 2.52 2.43 2.4 2.38 2.34 2.29 2.24 2.25
2305.129 2.27 2.21 2.17 2.13 2.08 2.07 2.11 2.1 2.08 2.08
2324.418 2.04 2 1.9 1.89 1.91 1.84 1.81 1.81 1.77 1.74
2343.708 1.72 1.69 1.64 1.61 1.61 1.62 1.58 1.54 1.5011 1.445
2362.998 1.4178 1.4048 1.359 1.3048 1.3271 1.339 1.337 1.3487 1.2919 1.2723
2382.288 1.3016 1.3522 1.368 1.3606 1.3989 1.4363 1.5112 1.59 1.63 1.66
2401.578 1.66 1.63 1.6 1.57 1.5116 1.5292 1.5374 1.4908 1.4849 1.4875
2420.867 1.4538 1.4446 1.5018 1.5176 1.5031 1.5005 1.5158 1.54 1.6 1.65
2440.157 1.64 1.66 1.65 1.64 1.62 1.64 1.71 1.66 1.61 1.7
2459.447 1.76 1.76 1.79 1.78 1.79 1.86 1.83 1.77 1.81 1.84
2478.737 1.83 1.73 1.66 1.57 1.476 1.5009 1.4948 1.4518 1.4094 1.4015
2498.026 1.4037 1.3801 1.3587 1.3647 1.3872 1.4085 1.4194 1.4252 1.4842 1.4897
2517.316 1.4808 1.522 1.5155 1.54 1.522 1.5314 1.62 1.65 1.71 1.76
2536.606 1.74 1.73 1.76 1.76 1.7 1.66 1.76 1.82 1.83 1.93
2555.896 2.04 2.05 1.99 1.99 2.09 2.17 2.21 2.17 2.12 2.14
2575.186 2.14 2.09 2.12 2.15 2.14 2.13 2.15 2.15 2.12 2.08
2594.475 2.09 2.08 2.05 2.02 1.99 1.96 1.96 1.96 1.92 1.93
2613.765 1.88 1.87 1.85 1.85 1.82 1.72 1.72 1.7 1.7 1.68
2633.055 1.62 1.6 1.57 1.59 1.56 1.55 1.5342 1.5071 1.5186 1.4238
2652.345 1.3447 1.3803 1.3833 1.3698 1.3742 1.3306 1.2928 1.3495 1.4235 1.4516
2671.634 1.5255 1.5386 1.4143 1.439 1.4701 1.44 1.5186 1.59 1.56 1.4667
2690.924 1.5241 1.64 1.63 1.62 1.71 1.76 1.74 1.71 1.76 1.81
2710.214 1.91 1.97 1.95 1.95 1.89 1.89 1.92 1.92 1.92 1.98
2729.504 2.05 2.05 2.07 2.12 2.19 2.24 2.32 2.37 2.4 2.43
2748.794 2.47 2.5 2.41 2.43 2.57 2.57 2.49 2.5 2.51 2.5
2768.083 2.51 2.45 2.43 2.46 2.38 2.33 2.37 2.41 2.39 2.27
2787.373 2.24 2.22 2.16 2.11 2.08 2 1.91 1.94 1.97 1.87
2806.663 1.8 1.76 1.64 1.59 1.55 1.5123 1.54 1.56 1.52 1.4204
2825.953 1.3671 1.3798 1.324 1.3374 1.357 1.2981 1.2352 1.1694 1.1307 1.2037
2845.242 1.2687 1.1913 1.0904 1.1354 1.1915 1.2697 1.3973 1.4818 1.6 1.73
2864.532 1.79 1.95 2.19 2.32 2.53 2.77 2.96 3.26 3.5 3.54
2883.822 3.61 3.69 3.71 3.72 3.75 3.87 4 4.17 4.37 4.59
2903.112 4.96 5.46 6.02 6.56 7.12 7.58 7.93 8.24 8.42 8.54
2922.401 8.52 8.31 8.14 8.03 8.04 8.14 8.23 8.37 8.49 8.56
2941.691 8.53 8.32 8.04 7.67 7.1 6.43 5.81 5.19 4.57 4.09
2960.981 3.74 3.49 3.37 3.41 3.57 3.87 4.4 5.22 6.44 8.11
2980.271 10.34 13.47 17.74 22.72 26.81 28.67 29.31 29.18 27.25 23.04
2999.561 17.52 12.72 9.44 7.28 5.88 5.01 4.35 3.89 3.57 3.3
3018.850 3.16 3.11 3.08 3.02 2.91 3.04 3.39 3.67 3.92 4.26
3038.140 4.65 5.09 5.51 5.64 5.88 6.02 5.86 5.65 5.34 4.98
3057.430 4.75 4.48 4.16 3.83 3.46 3.27 3.19 3.17 3.21 3.27
3076.720 3.38 3.34 3.33 3.33 3.12 2.9 2.7 2.41 2.18 2.05
3096.009 1.91 1.86 1.82 1.76 1.72 1.65 1.64 1.7 1.73 1.72
3115.299 1.74 1.74 1.72 1.66 1.5158 1.4364 1.3441 1.261 1.165 1.1622
3134.589 1.1338 1.0413 0.9641 0.8826 0.7856 0.71 0.6422 0.58255 0.61991 0.57185
3153.879 0.58179 0.5906 0.4681 0.5127 0.5231 0.4 0.383 0.41 0.439 0.433
3173.169 0.4525 0.429 0.4984 0.60619 0.53468 0.4727 0.4599 0.4788 0.5132 0.546965
3192.458 0.60178 0.57792 0.56512 0.53383 0.476 0.497 0.4457 0.333 0.323 0.411
3211.748 0.425 0.402 0.381 0.341 0.318 0.326 0.397 0.4624 0.43 0.4907
3231.038 0.545874 0.4703 0.4971 0.4587 0.344 0.345 0.385 0.292 0.32 0.304
3250.328 0.191 0.263 0.277 0.312 0.297 0.301 0.367 0.35 0.31 0.226
3269.617 0.231 0.284 0.211 0.167 0.196 0.174 0.177 0.266 0.296 0.149
3288.907 0.066 0.088 0.062 0.079 0.063 0.041 0.088 0.074 0.153 0.191
3308.197 0.102 0.123 0.103 0.082 0.148 0.137 0.121 0.179 0.084 0.062
3327.487 0.257 0.352 0.277 0.162 0.14 0.178 0.22 0.272 0.284 0.212
3346.777 0.16 0.216 0.202 0.208 0.252 0.203 0.175 0.218 0.281 0.297
3366.066 0.22 0.25 0.267 0.165 0.175 0.155 0.173 0.144 0.023 0
3385.356 0.161 0.373 0.351 0.206 0.161 0.225 0.239 0.187 0.181 0.191
3404.646 0.122 0.081 0.141 0.211 0.255 0.249 0.259 0.247 0.24 0.26
3423.936 0.291 0.229 0.174 0.143 0.162 0.261 0.174 0.118 0.186 0.277
3443.225 0.392 0.318 0.258 0.328 0.382 0.361 0.334 0.392 0.309 0.306
3462.515 0.359 0.221 0.183 0.24 0.258 0.269 0.283 0.267 0.384 0.429
3481.805 0.218 0.219 0.294 0.23 0.266 0.408 0.4478 0.306 0.174 0.19
3501.095 0.322 0.285 0.216 0.22 0.251 0.404 0.369 0.29 0.32 0.408
3520.385 0.438 0.294 0.299 0.288 0.208 0.289 0.359 0.382 0.403 0.391
3539.674 0.3 0.167 0.236 0.335 0.282 0.285 0.264 0.26 0.249 0.238
3558.964 0.256 0.285 0.236 0.203 0.219 0.188 0.299 0.291 0.25 0.274
3578.254 0.251 0.336 0.288 0.17 0.19 0.137 0.094 0.204 0.234 0.181
3597.544 0.21 0.231 0.252 0.234 0.154 0.267 0.371 0.305 0.367 0.359
3616.833 0.291 0.419 0.414 0.369 0.386 0.333 0.312 0.301 0.223 0.186
3636.123 0.275 0.345 0.332 0.229 0.162 0.193 0.221 0.133 0.141 0.207
3655.413 0.177 0.262 0.265 0.256 0.284 0.287 0.301 0.395 0.423 0.331
3674.703 0.43 0.405 0.342 0.381 0.315 0.314 0.305 0.266 0.289 0.364
3693.993 0.4576 0.4692 0.4902 0.439 0.316 0.33 0.37 0.336 0.407 0.416
3713.282 0.361 0.378 0.36 0.39 0.417 0.403 0.363 0.325 0.386 0.39
3732.572 0.417 0.4685 0.334 0.394 0.436 0.407 0.432 0.368 0.367 0.365
3751.862 0.365 0.267 0.295 0.357 0.343 0.269 0.202 0.253 0.296 0.318
3771.152 0.295 0.264 0.303 0.337 0.204 0.146 0.213 0.255 0.241 0.221
3790.441 0.197 0.248 0.387 0.357 0.313 0.321 0.364 0.358 0.398 0.425
3809.731 0.303 0.299 0.307 0.282 0.283 0.33 0.329 0.265 0.282 0.311
3829.021 0.36 0.4701 0.4579 0.396 0.34 0.249 0.298 0.4923 0.541418 0.4813
3848.311 0.4652 0.4546 0.493 0.5177 0.56315 0.60968 0.4584 0.39 0.4882 0.4845
3867.601 0.4404 0.5224 0.59778 0.63701 0.62499 0.55008 0.4947 0.4502 0.55419 0.59758
3886.890 0.545992 0.59818 0.7076 0.7407 0.6634 0.62838 0.6599 0.7958 0.7727 0.6406
3906.180 0.7405 0.7393 0.6723 0.6718 0.60233 0.57543 0.63056 0.703 0.7301 0.7813
3925.470 0.7315 0.7219 0.7913 0.7869 0.7614 0.7954 0.8177 0.7711 0.7209 0.7506
3944.760 0.8365 0.8542 0.9021 1.0171 1.0683 1.0205 0.986 0.8993 1.0385 1.2379
3964.049 1.1166 0.9219 0.8597 0.9396 1.021 1.0361 1.1369 1.3248 1.2805 1.1683
3983.339 1.159 1.0438 1.1076 1.2436 1.2761 1.2843 1.1959 1.2355 1.3702 1.3577
##END=
