##TITLE=2,3-Difluorobenzamide
##JCAMP-DX=4.24
##DATA TYPE=INFRARED SPECTRUM
##ORIGIN=EPA-IR VAPOR PHASE LIBRARY
##OWNER=SRD/NIST
Collection (C) 2018 copyright by the U.S. Secretary of Commerce
on behalf of the United States of America. All rights reserved.
##CAS REGISTRY NO=18355-75-4
##MOLFORM=C 7 H 5 F 2 N O
##$NIST SOURCE=MSDC-IR
##STATE=gas
##XUNITS=1/CM
##YUNITS=ABSORBANCE
##XFACTOR=1.
##YFACTOR=0.001
##DELTAX=1.92934
##FIRSTX=549.9
##LASTX=3999.5
##FIRSTY=1.4554
##MAXX=3999.53
##MINX=549.863
##MAXY=0.033138
##MINY=0
##NPOINTS=1789
##XYDATA=(X++(Y..Y))
549.863 1.4554 1.478 1.518 1.518 1.708 1.828 1.888 2.098 2.238 2.448
569.156 2.658 2.728 2.698 2.658 2.628 2.608 2.648 2.588 2.428 2.448
588.450 2.478 2.428 2.508 2.628 2.588 2.388 2.218 2.178 2.038 1.848
607.743 1.708 1.488 1.3083 1.1707 1.0684 0.9597 0.8444 0.7894 0.7476 0.668
627.037 0.6119 0.6277 0.5918 0.56062 0.54733 0.55179 0.5866 0.56598 0.573 0.5834
646.330 0.55735 0.5694 0.6577 0.7881 0.905 1.0166 1.1712 1.3326 1.3779 1.4122
665.624 1.528 1.708 1.948 2.188 2.478 2.738 2.898 2.948 2.928 2.938
684.917 2.918 2.888 2.798 2.548 2.188 1.808 1.538 1.3447 1.2819 1.3115
704.210 1.316 1.317 1.3411 1.4428 1.528 1.568 1.608 1.728 1.848 1.958
723.504 2.078 2.188 2.298 2.498 2.858 3.258 3.738 4.198 4.738 5.358
742.797 5.858 6.358 7.068 8.478 10.438 10.478 8.368 6.948 6.488 6.038
762.091 5.578 5.078 4.388 3.708 3.188 2.818 2.588 2.388 2.258 2.228
781.384 2.248 2.298 2.408 2.488 2.608 2.758 2.838 2.978 3.058 3.168
800.678 3.338 3.498 3.698 3.798 3.728 3.648 3.708 3.878 4.008 4.048
819.971 4.048 4.028 3.988 3.958 3.978 3.908 3.708 3.428 3.138 2.928
839.264 2.748 2.598 2.448 2.328 2.248 2.188 2.138 2.118 2.118 2.128
858.558 2.128 2.118 2.128 2.118 2.068 2.038 1.998 1.978 1.928 1.878
877.851 1.838 1.798 1.748 1.748 1.748 1.748 1.808 1.838 1.838 1.878
897.145 1.948 1.958 1.968 2.028 2.068 2.098 2.118 2.218 2.388 2.588
916.438 2.838 3.168 3.538 3.838 4.058 4.208 4.288 4.268 4.198 4.058
935.732 3.758 3.388 3.018 2.628 2.278 1.978 1.728 1.588 1.538 1.468
955.025 1.4354 1.3879 1.3733 1.3894 1.3464 1.3348 1.3071 1.2637 1.2556 1.2208
974.318 1.1806 1.1437 1.1168 1.1026 1.0836 1.0159 0.9987 1.0496 1.0429 1.0437
993.612 1.087 1.0849 1.0622 1.0461 1.0198 1.0603 1.0751 1.0514 1.063 1.0509
1012.905 1.022 0.9897 0.959 0.9303 0.9516 0.9524 0.8752 0.8807 0.9315 0.9349
1032.199 0.9593 0.9892 1.0276 1.1025 1.2217 1.3347 1.478 1.678 1.918 2.228
1051.492 2.548 2.788 2.918 2.898 2.768 2.708 2.728 2.698 2.468 2.098
1070.786 1.738 1.464 1.224 1.0282 0.913 0.8035 0.7419 0.7692 0.7759 0.735
1090.079 0.7604 0.8011 0.8068 0.7827 0.7909 0.8361 0.8729 0.9099 0.9012 0.8822
1109.372 0.8582 0.8155 0.8156 0.8161 0.7944 0.7377 0.6616 0.6086 0.55293 0.52712
1128.666 0.53735 0.55113 0.49477 0.4038 0.349 0.354 0.4484 0.4489 0.48036 0.6418
1147.959 0.5729 0.51522 0.54857 0.52953 0.667 0.7297 0.7274 0.6713 0.6306 0.614
1167.253 0.7011 0.8234 0.7983 0.9189 1.1118 1.2507 1.306 1.4192 1.488 1.578
1186.546 1.608 1.538 1.518 1.4516 1.3444 1.152 0.9719 0.9764 1.2229 1.508
1205.840 1.648 1.818 2.128 2.508 2.758 2.978 3.058 3.048 3.108 3.128
1225.133 3.158 3.068 2.808 2.408 2.028 1.898 1.748 1.538 1.518 1.478
1244.426 1.518 1.668 1.848 2.058 2.378 2.908 3.568 4.328 5.378 6.828
1263.720 8.448 10.028 11.348 12.258 12.618 12.638 12.718 12.888 12.698 11.748
1283.013 10.168 8.318 6.668 5.448 4.638 4.028 3.558 3.248 3.018 2.868
1302.307 2.788 2.688 2.598 2.588 2.598 2.638 2.738 2.928 3.078 3.218
1321.600 3.408 3.568 3.738 3.948 4.308 4.768 5.318 6.028 6.968 8.208
1340.894 9.678 11.458 13.618 16.058 18.598 20.968 22.968 24.388 25.068 25.088
1360.187 24.548 23.408 21.688 19.358 16.398 13.198 10.258 7.818 5.998 4.748
1379.480 3.888 3.298 2.848 2.498 2.268 2.088 1.898 1.728 1.608 1.518
1398.774 1.4384 1.344 1.2453 1.1862 1.1072 0.9945 0.9376 0.9401 0.9232 0.9158
1418.067 0.901 0.8462 0.845 0.8516 0.8546 0.8499 0.8662 0.8773 0.8794 0.9438
1437.361 1.011 1.071 1.1657 1.2768 1.4358 1.638 1.918 2.278 2.698 3.198
1456.654 3.868 4.668 5.568 6.598 7.768 9.198 10.878 12.878 15.158 17.348
1475.948 18.958 19.748 19.678 19.128 18.588 18.178 17.528 16.138 14.048 11.758
1495.241 9.548 7.648 6.188 5.058 4.198 3.608 3.168 2.808 2.558 2.328
1514.534 2.128 1.978 1.848 1.718 1.588 1.498 1.3828 1.2687 1.2341 1.2041
1533.828 1.1544 1.088 1.0673 1.0578 1.0845 1.1435 1.1734 1.2376 1.313 1.4068
1553.121 1.548 1.688 1.818 1.998 2.278 2.588 2.938 3.408 3.978 4.668
1572.415 5.578 6.718 8.128 9.698 11.338 12.938 14.318 15.428 16.248 16.638
1591.708 16.628 16.328 15.568 14.408 13.058 11.608 10.128 8.738 7.458 6.378
1611.002 5.528 4.818 4.248 3.818 3.508 3.248 2.988 2.808 2.688 2.558
1630.295 2.478 2.338 2.118 1.928 1.808 1.698 1.608 1.558 1.528 1.508
1649.588 1.498 1.518 1.548 1.608 1.688 1.758 1.858 1.998 2.138 2.328
1668.882 2.548 2.748 2.998 3.248 3.498 3.798 4.158 4.398 4.538 4.638
1688.175 4.698 4.788 4.958 5.188 5.548 6.118 6.868 7.998 9.608 11.838
1707.469 14.828 18.598 22.898 27.088 30.288 31.968 32.378 32.528 32.998 33.138
1726.762 31.658 28.168 23.398 18.598 14.398 11.248 9.038 7.448 6.418 5.798
1746.056 5.418 5.168 5.028 4.958 4.908 4.868 4.878 4.858 4.688 4.378
1765.349 3.958 3.468 3.038 2.688 2.348 2.058 1.808 1.578 1.3676 1.2147
1784.642 1.0938 1.0102 0.9273 0.8747 0.8404 0.8029 0.7822 0.7379 0.7172 0.7087
1803.936 0.703 0.6773 0.6496 0.632 0.6234 0.6102 0.5986 0.631 0.6212 0.5868
1823.229 0.5891 0.5887 0.5801 0.54336 0.52821 0.52714 0.49884 0.48967 0.473423 0.49117
1842.523 0.51891 0.54156 0.55653 0.54951 0.54121 0.5507 0.5755 0.5854 0.6129 0.6582
1861.816 0.6618 0.6383 0.6409 0.6376 0.6206 0.6261 0.6406 0.624 0.6151 0.64
1881.110 0.6624 0.6324 0.56094 0.51881 0.50071 0.46441 0.4321 0.4172 0.4191 0.4193
1900.403 0.3791 0.36 0.4094 0.4297 0.3988 0.4062 0.4133 0.4207 0.467691 0.46204
1919.696 0.4543 0.468535 0.475528 0.48818 0.50856 0.53696 0.54106 0.53611 0.53628 0.54693
1938.990 0.53852 0.54856 0.55679 0.5407 0.53351 0.5371 0.50843 0.49044 0.48329 0.46681
1958.283 0.4531 0.4325 0.4243 0.3993 0.36 0.322 0.321 0.331 0.341 0.335
1977.577 0.331 0.341 0.323 0.324 0.324 0.331 0.3708 0.361 0.349 0.367
1996.870 0.361 0.348 0.365 0.4029 0.394 0.3696 0.3837 0.3946 0.3812 0.365
2016.164 0.3843 0.3889 0.3867 0.4222 0.4163 0.3711 0.3875 0.4338 0.4425 0.4401
2035.457 0.4461 0.46054 0.4405 0.428 0.4199 0.4109 0.4275 0.4298 0.4307 0.4195
2054.750 0.4014 0.3799 0.361 0.335 0.316 0.332 0.346 0.342 0.337 0.353
2074.044 0.365 0.359 0.358 0.366 0.349 0.348 0.3809 0.3981 0.3906 0.355
2093.337 0.342 0.348 0.3782 0.366 0.34 0.348 0.337 0.3751 0.3862 0.3703
2112.631 0.364 0.337 0.347 0.3801 0.3709 0.346 0.358 0.3684 0.3684 0.354
2131.924 0.3721 0.3941 0.3851 0.3868 0.3951 0.3917 0.3729 0.3701 0.4014 0.4132
2151.218 0.4081 0.3947 0.396 0.4014 0.398 0.404 0.4015 0.4159 0.4194 0.4159
2170.511 0.4086 0.3785 0.3943 0.4216 0.411 0.4231 0.4362 0.4233 0.42 0.4323
2189.804 0.4311 0.4362 0.4298 0.4191 0.46069 0.469353 0.4543 0.475704 0.48902 0.48236
2209.098 0.45861 0.4241 0.4148 0.4069 0.3869 0.3828 0.3729 0.3909 0.4035 0.4069
2228.391 0.4129 0.3939 0.3841 0.4194 0.4456 0.4352 0.427 0.4192 0.4224 0.4079
2247.685 0.4046 0.4381 0.4481 0.4424 0.46057 0.4496 0.4128 0.4067 0.4372 0.434
2266.978 0.4235 0.4371 0.4516 0.4491 0.4541 0.50161 0.50363 0.49346 0.50056 0.48995
2286.272 0.48563 0.48541 0.50162 0.4928 0.48247 0.50782 0.50388 0.49266 0.50232 0.5079
2305.565 0.48571 0.474764 0.48453 0.46293 0.4388 0.4515 0.468046 0.444 0.4373 0.4216
2324.858 0.4017 0.415 0.393 0.3888 0.3959 0.3767 0.3715 0.408 0.4171 0.3856
2344.152 0.3945 0.4096 0.4248 0.4401 0.407 0.3781 0.3998 0.4337 0.4417 0.4262
2363.445 0.4282 0.4345 0.4308 0.4463 0.45974 0.4406 0.4442 0.4566 0.4348 0.4349
2382.739 0.4373 0.4411 0.46664 0.46438 0.46173 0.48692 0.48566 0.46582 0.49095 0.48905
2402.032 0.47712 0.48917 0.49152 0.51615 0.54939 0.53727 0.50193 0.52668 0.53657 0.54974
2421.326 0.55536 0.54986 0.56771 0.52926 0.51658 0.54693 0.53268 0.52711 0.53553 0.52625
2440.619 0.5718 0.5734 0.55563 0.5637 0.51672 0.536 0.56177 0.54678 0.53588 0.51018
2459.912 0.51695 0.52738 0.52649 0.55681 0.5664 0.53254 0.52701 0.48732 0.46272 0.49215
2479.206 0.48929 0.49069 0.472464 0.46254 0.48739 0.49092 0.48637 0.48432 0.475754 0.47904
2498.499 0.49257 0.49762 0.48095 0.4662 0.476739 0.50547 0.49832 0.473162 0.5055 0.52353
2517.793 0.51133 0.5339 0.5274 0.51069 0.54502 0.5692 0.55839 0.55708 0.5691 0.55432
2537.086 0.5618 0.5767 0.54847 0.56351 0.5854 0.5681 0.5732 0.5944 0.6205 0.6221
2556.380 0.6045 0.5868 0.5974 0.6133 0.6147 0.5971 0.5808 0.5894 0.5766 0.5731
2575.673 0.5846 0.5949 0.5809 0.5667 0.5835 0.5934 0.6046 0.5862 0.55453 0.5756
2594.966 0.5967 0.56523 0.52801 0.54227 0.52357 0.51293 0.53709 0.54335 0.5713 0.56755
2614.260 0.5081 0.47443 0.49413 0.51134 0.50921 0.51083 0.49886 0.50003 0.56649 0.56088
2633.553 0.51208 0.50952 0.52415 0.5722 0.5761 0.53387 0.49036 0.49174 0.53135 0.52635
2652.847 0.51933 0.50834 0.49647 0.52657 0.54848 0.55911 0.5814 0.5976 0.55081 0.49054
2672.140 0.51746 0.55299 0.54305 0.55717 0.5889 0.5833 0.5366 0.53919 0.53609 0.51719
2691.434 0.55124 0.574 0.5813 0.5809 0.5927 0.53881 0.50396 0.54429 0.52388 0.55057
2710.727 0.607 0.56054 0.5268 0.5951 0.569 0.53442 0.5774 0.54665 0.5693 0.6036
2730.020 0.56358 0.52053 0.53574 0.5762 0.5689 0.54804 0.5814 0.6499 0.6345 0.6057
2749.314 0.5961 0.608 0.5794 0.53608 0.53428 0.5518 0.59 0.6203 0.6629 0.6785
2768.607 0.6453 0.6504 0.6793 0.6411 0.5945 0.56636 0.56438 0.56546 0.6017 0.6103
2787.901 0.6079 0.6015 0.5967 0.6472 0.6624 0.671 0.6748 0.7005 0.7116 0.6802
2807.194 0.6545 0.6647 0.6617 0.7015 0.6971 0.6089 0.6912 0.7796 0.7128 0.6012
2826.488 0.53567 0.55696 0.5934 0.6103 0.6168 0.5869 0.5761 0.5992 0.6258 0.6148
2845.781 0.6102 0.63 0.5879 0.56455 0.584 0.584 0.5924 0.6065 0.5764 0.5816
2865.074 0.6098 0.6024 0.5938 0.5884 0.5868 0.56353 0.5729 0.6062 0.6225 0.5842
2884.368 0.56698 0.5859 0.6155 0.5967 0.55212 0.52819 0.54282 0.5935 0.5759 0.6232
2903.661 0.6757 0.6102 0.55822 0.5882 0.5908 0.5784 0.634 0.6728 0.54532 0.4236
2922.955 0.53716 0.6258 0.5782 0.53876 0.50703 0.54316 0.5875 0.54037 0.5651 0.5895
2942.248 0.53993 0.5909 0.6913 0.6666 0.6109 0.5928 0.55556 0.6116 0.6851 0.5959
2961.542 0.55016 0.6084 0.569 0.48916 0.52015 0.56451 0.56267 0.5881 0.5817 0.55693
2980.835 0.49599 0.46718 0.53941 0.56273 0.50232 0.4417 0.4571 0.5133 0.49181 0.48623
3000.128 0.53846 0.49938 0.5023 0.53122 0.54804 0.49173 0.4266 0.4465 0.46588 0.48172
3019.422 0.46564 0.4223 0.362 0.4362 0.50764 0.49953 0.5733 0.6428 0.6593 0.6934
3038.715 0.6789 0.7203 0.7539 0.6927 0.7124 0.6858 0.6796 0.7862 0.8524 0.877
3058.009 0.8575 0.8186 0.6881 0.6597 0.8059 0.8322 0.7515 0.7215 0.7862 0.8681
3077.302 0.9628 0.9789 0.9532 1.0015 1.0935 1.1037 1.0002 1.0351 1.0867 0.9519
3096.596 0.8869 0.9423 0.8801 0.78 0.7917 0.8184 0.7932 0.729 0.687 0.6922
3115.889 0.6789 0.6216 0.49954 0.469848 0.5887 0.6452 0.5668 0.49241 0.458 0.3873
3135.182 0.4109 0.4275 0.4401 0.4286 0.4069 0.4549 0.470848 0.4351 0.349 0.353
3154.476 0.3866 0.3893 0.3856 0.4354 0.49871 0.4323 0.3874 0.361 0.31 0.336
3173.769 0.264 0.272 0.364 0.3873 0.3819 0.325 0.261 0.27 0.265 0.252
3193.063 0.311 0.376 0.3726 0.365 0.352 0.331 0.328 0.3969 0.4555 0.4379
3212.356 0.45937 0.323 0.269 0.3811 0.4001 0.283 0.225 0.274 0.345 0.289
3231.650 0.233 0.358 0.368 0.312 0.363 0.3903 0.3 0.208 0.268 0.256
3250.943 0.233 0.36 0.394 0.329 0.274 0.16 0.062 0.129 0.216 0.218
3270.236 0.143 0.118 0.216 0.178 0.147 0.257 0.287 0.241 0.293 0.318
3289.530 0.269 0.294 0.328 0.3939 0.392 0.358 0.358 0.311 0.274 0.19
3308.823 0.18 0.254 0.23 0.208 0.224 0.256 0.305 0.258 0.194 0.058
3328.117 0 0.07 0.119 0.294 0.315 0.177 0.19 0.26 0.227 0.176
3347.410 0.238 0.257 0.195 0.207 0.348 0.4007 0.325 0.298 0.188 0.175
3366.704 0.276 0.345 0.288 0.295 0.3952 0.3682 0.367 0.3734 0.3907 0.4204
3385.997 0.4356 0.4821 0.55583 0.5861 0.53069 0.52622 0.6453 0.7531 0.8288 0.917
3405.290 0.9906 1.1388 1.3119 1.4129 1.588 1.848 1.858 1.878 2.038 2.258
3424.584 2.498 2.628 2.798 2.978 3.108 3.288 3.568 3.748 3.748 3.758
3443.877 3.678 3.458 3.288 3.128 2.788 2.478 2.268 1.818 1.3914 1.1346
3463.171 0.8929 0.7559 0.651 0.53538 0.477837 0.471473 0.4215 0.355 0.3939 0.4404
3482.464 0.4378 0.3981 0.4483 0.48518 0.4441 0.4131 0.4141 0.47816 0.52277 0.5918
3501.758 0.6494 0.5751 0.55845 0.7124 0.9086 0.9145 0.9342 1.038 1.088 1.142
3521.051 1.2111 1.2755 1.3212 1.3811 1.498 1.708 1.888 1.988 2.058 2.118
3540.344 2.198 2.278 2.388 2.578 2.658 2.808 3.028 3.278 3.638 3.998
3559.638 4.338 4.598 4.848 4.928 4.788 4.628 4.278 3.768 3.338 2.848
3578.931 2.278 1.728 1.3115 0.9048 0.6375 0.6354 0.56491 0.471238 0.3881 0.343
3598.225 0.3826 0.397 0.3999 0.385 0.388 0.4362 0.351 0.236 0.22 0.241
3617.518 0.284 0.275 0.214 0.235 0.295 0.315 0.306 0.316 0.361 0.286
3636.812 0.261 0.334 0.327 0.326 0.343 0.295 0.272 0.267 0.23 0.236
3656.105 0.192 0.273 0.332 0.336 0.3849 0.343 0.261 0.207 0.247 0.293
3675.398 0.283 0.305 0.303 0.295 0.297 0.24 0.286 0.321 0.278 0.276
3694.692 0.255 0.248 0.273 0.217 0.194 0.243 0.27 0.252 0.195 0.248
3713.985 0.322 0.273 0.268 0.262 0.218 0.248 0.328 0.339 0.322 0.298
3733.279 0.239 0.228 0.222 0.199 0.24 0.26 0.281 0.3799 0.3956 0.365
3752.572 0.324 0.306 0.314 0.368 0.4231 0.4095 0.3928 0.367 0.354 0.329
3771.866 0.343 0.3917 0.351 0.341 0.3731 0.358 0.311 0.336 0.4064 0.357
3791.159 0.332 0.357 0.3686 0.3754 0.3743 0.349 0.321 0.391 0.3753 0.273
3810.452 0.239 0.306 0.3804 0.345 0.265 0.295 0.3932 0.3927 0.361 0.356
3829.746 0.3804 0.3995 0.341 0.308 0.357 0.3788 0.3844 0.4021 0.4263 0.4467
3849.039 0.4036 0.359 0.367 0.36 0.327 0.364 0.3943 0.4429 0.4548 0.3796
3868.333 0.37 0.4025 0.3977 0.4182 0.4319 0.3823 0.4005 0.3858 0.327 0.356
3887.626 0.4054 0.353 0.362 0.4266 0.3775 0.3885 0.46188 0.477921 0.474556 0.4185
3906.920 0.34 0.319 0.3806 0.4554 0.45907 0.427 0.4198 0.4464 0.4253 0.355
3926.213 0.36 0.4138 0.4352 0.4419 0.4207 0.4254 0.4436 0.51219 0.50872 0.4181
3945.506 0.4202 0.38 0.361 0.4431 0.48203 0.50178 0.50537 0.4328 0.4431 0.50092
3964.800 0.46235 0.4344 0.4545 0.4523 0.4424 0.4414 0.4503 0.4495 0.4514 0.4383
3984.093 0.4543 0.54638 0.444 0.363 0.4397 0.4972 0.52873 0.52049 0.52404
##END=
