##TITLE=2,3-Difluoroacetophenone
##JCAMP-DX=4.24
##DATA TYPE=INFRARED SPECTRUM
##ORIGIN=EPA-IR VAPOR PHASE LIBRARY
##OWNER=SRD/NIST
Collection (C) 2018 copyright by the U.S. Secretary of Commerce
on behalf of the United States of America. All rights reserved.
##CAS REGISTRY NO=18355-80-1
##MOLFORM=C 8 H 6 F 2 O
##$NIST SOURCE=MSDC-IR
##STATE=gas
##XUNITS=1/CM
##YUNITS=ABSORBANCE
##XFACTOR=1.
##YFACTOR=0.001
##DELTAX=1.92898
##FIRSTX=549.8
##LASTX=4000.7
##FIRSTY=16.996
##MAXX=4000.7
##MINX=549.759
##MAXY=0.218456
##MINY=0
##NPOINTS=1790
##XYDATA=(X++(Y..Y))
549.759 16.996 16.646 15.996 16.536 16.536 16.226 15.066 13.326 13.186 11.926
569.049 8.866 7.366 6.826 6.656 6.626 6.026 5.786 6.616 7.026 7.626
588.339 8.456 9.026 11.076 12.996 13.626 14.236 15.096 15.476 15.656 15.056
607.628 14.346 13.436 11.836 10.406 9.206 8.136 7.086 6.366 5.406 4.626
626.918 4.136 3.896 3.796 4.176 4.476 4.846 6.126 7.196 8.806 11.656
646.208 14.646 17.586 20.046 20.906 20.796 20.876 20.926 20.116 18.546 15.916
665.498 12.346 9.316 6.986 4.916 3.346 2.696 2.516 2.106 1.7657 2.116
684.787 2.616 1.976 1.956 2.336 2.486 2.896 3.236 3.966 4.506 5.976
704.077 8.316 10.146 12.146 14.846 17.546 19.656 22.536 27.966 35.986 38.236
723.367 31.816 27.356 25.476 22.636 19.866 17.336 14.996 12.336 9.726 8.056
742.657 6.576 4.866 3.706 3.786 4.396 4.286 4.076 4.256 4.246 4.686
761.947 5.576 6.946 8.666 10.776 13.506 17.306 21.176 24.876 29.106 33.306
781.236 38.456 43.936 49.946 54.466 51.386 42.986 36.286 32.356 29.356 26.216
800.526 23.286 20.056 17.076 15.406 14.736 14.836 16.286 18.496 20.276 21.526
819.816 21.486 20.676 19.916 20.576 20.896 19.176 17.346 15.186 12.666 10.486
839.106 8.776 7.376 6.006 5.036 4.386 3.836 3.616 3.486 3.206 3.166
858.395 2.796 2.486 2.706 2.596 2.716 2.876 3.336 4.046 4.476 5.266
877.685 6.776 7.896 8.496 9.656 11.176 12.486 13.826 15.426 17.776 20.246
896.975 22.226 24.786 28.376 31.946 34.746 37.216 38.216 38.066 37.496 35.756
916.265 33.446 30.436 25.686 20.386 15.766 12.816 11.276 9.346 8.116 8.206
935.555 7.536 7.006 6.736 6.216 5.936 5.526 5.646 6.046 6.316 6.826
954.844 7.856 8.806 9.336 10.476 11.736 12.246 12.986 13.436 13.306 13.336
974.134 12.926 12.686 12.496 11.166 9.946 8.966 7.986 7.576 7.196 6.936
993.424 6.616 5.906 5.486 5.686 5.976 5.796 5.826 6.156 5.836 5.416
1012.714 5.746 5.826 5.306 4.946 5.186 5.546 5.346 5.236 4.846 4.466
1032.003 5.346 6.196 6.076 5.646 6.046 6.276 6.026 6.366 6.946 8.146
1051.293 9.416 10.416 11.576 12.706 14.166 15.866 16.376 15.766 14.306 13.446
1070.583 13.376 13.196 12.626 11.656 10.426 8.026 6.466 5.356 4.176 4.766
1089.873 4.596 3.826 4.036 4.556 5.176 4.316 4.576 6.306 6.186 5.776
1109.163 7.836 10.796 12.146 13.946 16.516 17.156 15.776 14.816 13.806 13.456
1128.452 13.146 11.866 10.596 9.216 8.096 6.276 4.686 5.306 5.876 4.876
1147.742 4.626 5.266 5.396 5.436 5.806 6.346 6.706 7.386 8.006 6.476
1167.032 5.866 6.476 7.266 7.176 6.696 6.236 5.936 7.066 7.266 6.206
1186.322 6.336 7.066 6.876 7.286 8.176 8.696 9.726 11.696 13.246 14.586
1205.611 17.516 21.236 23.836 28.366 32.616 35.596 38.296 40.096 40.876 42.846
1224.901 45.776 46.956 48.446 48.466 48.466 48.826 50.316 54.526 59.406 65.486
1244.191 72.256 79.516 87.466 96.266 105.886 116.216 128.216 140.516 152.196 165.146
1263.481 178.746 189.826 198.676 207.546 214.936 218.456 215.886 208.086 197.486 184.606
1282.771 169.846 152.456 133.026 116.146 104.526 96.686 90.436 84.786 78.776 72.276
1302.060 65.196 57.346 49.346 41.006 32.966 26.226 21.336 18.156 16.316 15.196
1321.350 14.126 13.796 13.726 13.676 13.946 13.926 13.956 14.146 14.236 14.466
1340.640 14.736 15.066 15.646 16.696 18.166 20.256 23.326 27.136 31.676 37.166
1359.930 42.696 47.146 50.046 51.136 50.916 50.196 49.096 46.466 41.446 34.816
1379.219 28.066 22.516 18.466 15.786 13.826 12.456 11.556 10.926 10.666 10.546
1398.509 10.386 10.226 10.256 10.266 10.206 10.246 10.426 10.796 11.246 11.616
1417.799 12.286 12.996 13.426 13.776 14.286 14.886 15.346 15.826 16.426 17.156
1437.089 17.746 18.126 18.936 20.276 21.896 23.866 26.186 29.166 32.996 37.576
1456.378 43.466 50.506 58.786 68.846 80.826 95.306 112.156 131.076 150.936 170.406
1475.668 185.986 195.886 198.956 196.586 191.146 184.666 176.176 162.826 143.056 119.986
1494.958 97.216 76.866 60.766 48.616 39.596 33.196 28.126 24.046 21.286 18.976
1514.248 17.176 15.856 14.466 13.106 11.966 10.886 9.546 8.476 7.766 7.206
1533.538 7.036 6.776 6.476 6.316 6.266 6.106 5.956 6.296 6.576 6.806
1552.827 7.316 7.636 7.926 8.396 9.156 10.006 11.116 12.276 13.146 14.696
1572.117 16.466 18.586 21.406 23.996 27.196 30.806 33.526 35.496 36.826 37.686
1591.407 37.686 36.706 35.246 33.446 31.166 28.456 25.266 23.036 22.356 21.856
1610.697 21.796 22.356 22.796 23.196 23.036 22.606 22.396 21.126 19.166 17.216
1629.986 15.066 12.916 11.406 10.216 9.306 8.756 8.206 7.996 8.116 8.276
1649.276 8.266 8.266 8.516 8.866 9.296 9.696 10.306 11.106 11.866 12.816
1668.566 13.796 14.796 15.826 16.966 18.806 20.596 22.086 23.956 26.206 28.236
1687.856 30.546 33.736 38.026 44.256 53.476 65.676 80.776 98.406 113.836 126.266
1707.146 134.536 140.646 145.056 147.196 146.026 139.026 124.406 106.306 88.196 73.016
1726.435 61.466 52.526 45.386 39.866 35.086 31.526 29.126 27.156 25.616 24.136
1745.725 22.746 21.076 19.116 17.326 15.686 14.116 12.606 11.306 9.946 8.546
1765.015 7.576 6.626 5.926 5.736 5.436 5.076 4.766 4.536 4.456 4.366
1784.305 4.146 4.006 3.966 3.916 3.876 3.936 4.026 4.036 3.956 3.836
1803.594 3.826 3.906 4.166 4.126 3.916 3.826 3.586 3.526 3.536 3.326
1822.884 3.126 2.896 2.856 2.946 2.986 2.906 2.676 2.616 2.626 2.706
1842.174 2.756 2.726 2.856 2.936 3.046 3.126 3.096 3.166 3.316 3.376
1861.464 3.406 3.526 3.456 3.516 3.666 3.576 3.376 3.316 3.246 3.066
1880.754 2.836 2.576 2.416 2.356 2.266 2.176 2.046 2.016 2.066 2.056
1900.043 2.246 2.286 2.146 2.186 2.376 2.416 2.496 2.596 2.636 2.816
1919.333 2.846 3.056 3.256 3.226 3.196 3.286 3.496 3.576 3.376 3.166
1938.623 3.076 2.896 2.696 2.546 2.596 2.616 2.366 1.986 1.916 1.886
1957.913 1.7608 1.7086 1.6177 1.5913 1.3867 1.2233 1.3133 1.5747 1.5959 1.355
1977.202 1.1723 1.1254 1.2934 1.3722 1.3143 1.2513 1.214 1.2814 1.3003 1.1174
1996.492 0.9724 0.9763 1.188 1.3903 1.3194 1.3466 1.3744 1.2006 1.1636 1.2327
2015.782 1.3484 1.4933 1.6118 1.6223 1.4871 1.4588 1.5783 1.6722 1.5797 1.5809
2035.072 1.896 1.936 1.7699 1.7786 1.8152 1.7301 1.5751 1.5407 1.5943 1.4666
2054.362 1.3749 1.4379 1.4114 1.3987 1.3503 1.1837 1.1392 1.3554 1.4452 1.4918
2073.651 1.4568 1.4182 1.3557 1.2348 1.333 1.4634 1.5454 1.6093 1.6013 1.3983
2092.941 1.3053 1.3689 1.4136 1.5266 1.5907 1.3977 1.2154 1.1858 1.3 1.502
2112.231 1.531 1.422 1.3564 1.3562 1.3361 1.3827 1.5104 1.46 1.3664 1.462
2131.521 1.6607 1.6443 1.4443 1.4923 1.5984 1.5994 1.3389 1.1477 1.2436 1.2919
2150.810 1.4331 1.6228 1.6467 1.5299 1.5454 1.5341 1.4784 1.5907 1.7066 1.5413
2170.100 1.5114 1.6502 1.7406 1.7041 1.6105 1.7247 1.5785 1.5224 1.5527 1.4619
2189.390 1.5805 1.6684 1.6302 1.4512 1.2399 0.97 0.89792 1.0859 1.133 1.2151
2208.680 1.2604 1.1262 0.9179 0.8204 1.0107 1.2518 1.2416 1.2814 1.3943 1.3685
2227.970 1.1313 1.1081 1.4791 1.4989 1.3382 1.2078 1.1336 1.1874 1.1104 1.1822
2247.259 1.2826 1.2705 1.2666 1.2305 1.2708 1.2145 1.165 1.2758 1.2462 1.2703
2266.549 1.266 1.1906 1.2078 1.2277 1.3363 1.473 1.5397 1.6076 1.6127 1.6058
2285.839 1.6526 1.7595 1.7593 1.6059 1.6838 1.886 1.7037 1.4444 1.6496 1.7736
2305.129 1.4785 1.2783 1.4419 1.628 1.5692 1.6155 1.5961 1.5239 1.621 1.4937
2324.418 1.3686 1.455 1.5992 1.51 1.2608 1.4179 1.7052 1.4965 1.3341 1.5115
2343.708 1.5705 1.4001 1.3132 1.3642 1.3458 1.1888 1.0182 1.0316 1.1607 1.289
2362.998 1.5051 1.5645 1.3735 1.198 1.2087 1.3866 1.4248 1.3415 1.3759 1.4649
2382.288 1.493 1.5889 1.7768 1.876 1.5817 1.3215 1.3791 1.362 1.1003 0.9749
2401.578 0.977 1.1075 1.3156 1.2531 1.2285 1.2674 1.326 1.3784 1.1443 1.221
2420.867 1.4795 1.4988 1.5773 1.6324 1.5989 1.6143 1.709 1.8356 1.976 2.016
2440.157 2.196 2.226 2.096 2.036 1.8326 1.7588 1.7912 1.966 1.767 1.2148
2459.447 1.3173 1.4192 1.4304 1.4439 1.4892 1.5435 1.4941 1.7008 1.6638 1.4134
2478.737 1.221 1.3766 1.52 1.4585 1.5359 1.5621 1.6239 1.5341 1.4097 1.0674
2498.026 0.9828 1.3016 1.3132 1.4398 1.5458 1.5619 1.6327 1.5724 1.4008 1.4862
2517.316 1.4985 1.3095 1.4056 1.6056 1.6913 1.856 1.986 1.8127 1.7234 1.996
2536.606 2.126 1.8133 1.7124 1.8105 1.866 1.6676 1.7014 2.166 2.096 1.8241
2555.896 1.6949 1.8328 1.7602 1.7332 2.296 2.306 2.096 2.296 2.446 2.206
2575.186 2.076 1.946 1.906 1.946 1.6842 1.4916 1.7815 2.056 1.916 1.8158
2594.475 2.046 2.136 1.836 1.5172 1.3398 1.3796 1.3199 1.4479 1.3682 1.3289
2613.765 1.333 1.4777 1.5563 1.2944 1.2852 1.4042 1.2437 0.9746 1.1649 1.2401
2633.055 1.2449 1.2068 0.7754 0.91994 1.1048 0.9717 1.1052 1.2502 1.3466 1.2016
2652.345 1.1768 0.9896 0.9649 1.0981 1.0884 1.2759 1.3785 1.501 1.6203 1.6033
2671.634 1.5147 1.2963 1.1215 1.3271 1.4634 1.3279 1.2888 1.5152 1.6008 1.2896
2690.924 1.275 1.3359 1.1876 1.1214 1.0124 1.0293 1.2326 1.1376 1.1233 1.3127
2710.214 1.2586 1.3897 1.3244 1.1094 0.89356 0.92268 1.0141 1.0622 1.4097 1.4991
2729.504 1.4867 1.0775 0.92552 1.3482 1.5326 1.7006 1.5551 1.2594 1.4322 1.7818
2748.794 1.7716 1.5364 1.7023 1.986 1.5024 0.91255 1.3158 1.5018 1.2478 1.1993
2768.083 1.0745 1.0149 0.9382 0.85138 1.0787 1.1929 1.2597 1.4397 1.3951 1.1926
2787.373 1.1227 1.3371 1.1716 0.9658 1.1107 1.2405 1.0509 0.92317 1.4243 1.5703
2806.663 1.3406 1.1701 1.1571 1.3298 1.4266 0.9827 0.87394 0.87176 0.7757 1.0882
2825.953 1.0804 1.0932 0.9377 1.2084 1.836 1.7232 1.4237 1.4409 1.5996 1.5157
2845.242 1.2692 1.1729 1.0634 1.0851 1.3029 1.4748 1.3993 1.4638 1.6541 1.4923
2864.532 1.377 1.5928 1.345 1.1727 1.4835 1.6551 1.8147 1.866 1.886 2.016
2883.822 2.046 1.966 2.226 1.906 1.5251 1.7262 1.5361 1.3121 1.5469 2.066
2903.112 2.106 2.076 2.076 1.896 2.036 2.156 1.996 1.6982 1.0116 1.0769
2922.401 1.956 2.396 2.186 1.896 2.056 2.206 2.236 2.176 2.126 2.476
2941.691 2.746 2.976 3.066 3.156 3.346 3.126 3.206 3.276 3.056 2.746
2960.981 2.846 3.196 3.246 3.076 2.936 3.216 3.566 3.526 3.686 4.006
2980.271 3.926 3.856 4.196 4.166 3.846 3.616 3.776 4.146 4.286 4.386
2999.561 4.246 4.576 5.376 5.956 6.176 6.366 6.696 6.546 6.356 6.366
3018.850 6.406 6.766 6.476 6.046 5.736 5.186 5.136 5.146 5.106 5.196
3038.140 4.746 4.396 4.406 4.786 5.126 5.246 5.426 5.316 5.106 4.826
3057.430 4.936 4.986 5.116 5.356 5.156 5.436 5.936 5.896 5.836 6.186
3076.720 6.606 7.116 7.526 7.416 7.556 7.296 6.926 6.986 6.746 6.576
3096.009 6.236 5.946 5.576 4.856 4.486 4.146 3.706 3.586 3.406 2.986
3115.299 2.736 2.286 2.016 2.126 1.4618 1.4971 2.206 1.976 1.222 1.0728
3134.589 2.076 2.246 1.6555 1.3646 1.2046 1.3176 1.2382 1.0428 0.925 0.8794
3153.879 0.92076 1.1156 1.2152 1.0456 1.0074 1.0973 1.3806 1.3309 1.1896 1.1424
3173.169 1.4653 1.886 1.6275 1.1831 1.2333 1.2055 1.317 1.5863 1.0599 0.89404
3192.458 1.1048 1.0303 0.90941 0.822 1.1698 1.2451 0.7926 0.671 0.491 0.566
3211.748 0.7828 0.9778 0.9725 0.607 0.721 1.1073 0.9653 0.225 0.506 1.2962
3231.038 0.715 0.696 1.3517 1.0226 0.717 1.1594 1.1998 0.90834 0.84789 1.0627
3250.328 1.223 1.1854 1.0339 0.85268 1.1081 1.0894 0.9401 1.218 1.3475 1.1791
3269.617 0.8248 0.463 0.462 0.556 0.614 0.621 0.9349 0.89236 0.598 0.633
3288.907 0.295 0.364 0.987 1.3181 1.2273 1.0153 0.583 0.445 0.7743 0.7753
3308.197 0.573 0.549 0.548 0.616 0.539 0.588 0.685 1.1387 1.5757 1.3466
3327.487 1.2216 0.87413 0.88695 1.2039 0.84857 0.558 0.8185 1.1052 1.1369 1.0171
3346.777 0.89961 0.7617 0.8843 0.712 0.605 0.548 0.493 0.7498 0.91698 1.2482
3366.066 1.3471 0.9921 0.84626 1.154 1.6627 1.7591 1.6776 1.6675 1.6404 1.7736
3385.356 1.996 2.396 2.556 2.606 2.826 3.016 3.206 3.306 3.376 3.276
3404.646 3.116 2.766 2.716 2.936 2.736 2.376 2.036 1.896 2.006 1.966
3423.936 1.896 1.846 1.4832 1.7061 1.5823 1.3818 1.4571 1.1317 1.1523 0.9222
3443.225 0.694 1.1016 1.0619 1.0472 1.0538 1.1627 1.0229 0.585 0.9947 0.9747
3462.515 1.0077 1.3076 1.3172 1.3276 1.1984 1.3684 1.3257 0.552 0.403 0.7598
3481.805 0.8107 0.728 0.8135 0.555 0.368 0.574 0.41 0.635 0.9937 0.9707
3501.095 0.8061 0.468 0.323 0.378 0.413 0.7873 0.93144 1.1095 0.88782 0.696
3520.385 1.083 1.2052 0.7475 0.419 1.0135 1.5033 1.3967 1.0052 0.468 0.427
3539.674 0.9776 1.1097 0.89762 0.88135 1.1393 0.971 0.9498 1.1822 0.593 0.348
3558.964 0.633 0.7 0.637 0.835333 0.844097 0.467 0.806 0.92382 0.82699 0.9916
3578.254 0.87653 0.8964 1.2079 1.2515 0.666 0.366 0.58 0.7969 1.1573 0.9498
3597.544 0.69 0.9373 0.9427 0.595 0.44 0.8145 1.0548 0.744 0.493 0.666
3616.833 1.0659 0.621 0.384 0.7555 0.45 0.532 0.9394 0.945 1.1372 1.3486
3636.123 1.0852 0.335 0.2 0.537 0.513 0.32 0.603 1.1274 0.9366 0.435
3655.413 0.7845 1.2309 0.8162 0.668 0.675 0.351 0.062 0.165 0.658 0.606
3674.703 0.7859 1.4291 1.551 0.9916 0.639 0.9861 1.1451 1.2678 0.8169 0.544
3693.993 1.1638 1.3001 0.9496 0.9505 0.88965 0.7673 0.551 0.709 0.9646 1.058
3713.282 1.1215 0.8049 0.8593 0.9925 0.673 0.492 0.517 0.662 0.612 0.332
3732.572 0 0.164 0.531 0.431 0.619 0.7766 0.607 0.318 0.634 1.0495
3751.862 0.532 0.26 0.317 0.225 0.556 0.92258 0.583 0.614 0.585 0.495
3771.152 0.90998 1.1102 1.385 1.3971 1.1708 1.031 0.682 0.516 0.557 0.682
3790.441 1.0391 1.2524 1.2162 1.051 0.9383 0.387 0.373 1.0592 1.3932 1.3095
3809.731 0.88053 0.7881 0.7946 0.711 1.1231 1.5504 0.724 0.198 0.657 0.432
3829.021 0.328 0.597 0.672 0.86913 0.7891 0.9765 0.9403 1.0001 1.2281 1.1663
3848.311 1.2153 0.90366 0.548 0.085 0.453 1.0363 0.8178 0.61 0.72 0.785
3867.601 1.0624 0.87056 0.224 0.162 0.648 0.9683 0.698 0.9968 1.4593 1.1025
3886.890 1.3096 2.076 2.066 1.7213 1.1393 0.158 0.177 0.90096 0.9321 1.2597
3906.180 1.836 1.5935 1.3551 1.3196 0.658 0.57 0.9846 0.87763 0.9095 1.0331
3925.470 1.2731 1.4808 1.7085 1.2031 1.0034 1.1152 0.572 0.644 1.1228 1.4485
3944.760 1.3367 1.0186 0.49 0.495 1.0449 1.3557 1.4655 1.5335 1.272 0.8694
3964.049 1.1679 1.0868 0.657 0.85564 1.0658 0.89856 1.0526 1.714 1.2668 0.618
3983.339 0.92749 0.8208 0.647 0.667 0.9932 1.1989 1.0123 1.3873 1.0685 0.682
##END=
