##TITLE=2,3-Difluorobenzoylchloride
##JCAMP-DX=4.24
##DATA TYPE=INFRARED SPECTRUM
##ORIGIN=EPA-IR VAPOR PHASE LIBRARY
##OWNER=SRD/NIST
Collection (C) 2018 copyright by the U.S. Secretary of Commerce
on behalf of the United States of America. All rights reserved.
##CAS REGISTRY NO=18355-73-2
##MOLFORM=C 7 H 3 Cl F 2 O
##$NIST SOURCE=MSDC-IR
##STATE=gas
##XUNITS=1/CM
##YUNITS=ABSORBANCE
##XFACTOR=1.
##YFACTOR=0.001
##DELTAX=1.92898
##FIRSTX=549.8
##LASTX=4000.7
##FIRSTY=3.494
##MAXX=4000.7
##MINX=549.759
##MAXY=0.115284
##MINY=0
##NPOINTS=1790
##XYDATA=(X++(Y..Y))
549.759 3.494 4.064 4.564 5.804 7.084 7.784 8.734 9.934 10.374 10.724
569.049 11.324 10.824 9.134 8.514 8.414 7.464 6.384 5.704 4.894 3.524
588.339 2.344 1.684 1.884 2.244 2.344 2.014 1.974 1.844 2.194 2.874
607.628 3.014 3.164 3.994 5.474 6.404 7.624 8.984 9.524 10.074 10.864
626.918 11.554 11.864 11.354 10.904 10.624 9.704 8.724 7.554 6.794 6.584
646.208 6.424 6.064 5.134 5.084 5.024 4.594 4.744 4.654 5.014 5.354
665.498 4.844 4.194 4.144 4.204 3.714 3.744 3.774 3.724 3.504 3.054
684.787 3.014 3.334 3.774 3.824 3.544 3.524 4.094 4.104 4.184 4.864
704.077 5.424 6.424 7.864 9.544 11.314 13.104 15.424 17.964 20.764 24.634
723.367 29.254 32.414 32.434 32.494 34.624 37.394 39.974 41.854 43.574 46.064
742.657 50.054 55.064 59.924 64.114 67.844 70.594 71.954 71.794 69.784 66.444
761.947 61.894 57.294 52.414 47.084 43.044 40.374 38.714 37.454 36.684 36.224
781.236 35.014 33.394 32.454 31.584 29.504 28.124 27.084 24.004 20.624 18.244
800.526 16.714 15.604 14.994 15.344 15.644 15.854 16.224 16.334 16.594 17.234
819.816 18.744 19.904 20.634 21.124 21.754 23.944 26.884 31.044 35.904 40.864
839.106 45.604 49.434 52.004 53.224 53.324 51.564 48.194 44.124 38.404 31.664
858.395 25.984 21.044 16.854 13.574 10.314 7.864 6.374 5.214 4.524 4.244
877.685 3.834 3.524 3.444 2.894 2.624 2.754 3.294 3.474 3.154 3.364
896.975 3.354 3.194 2.914 2.984 3.434 3.234 3.084 2.884 2.724 2.954
916.265 3.074 3.034 2.944 2.554 2.124 1.994 2.024 2.274 2.104 2.164
935.555 2.414 2.724 2.914 2.694 2.904 3.014 2.854 2.964 3.094 3.384
954.844 3.524 3.664 4.144 4.424 4.564 4.784 5.234 5.494 5.814 6.584
974.134 7.444 8.514 9.634 10.424 11.504 13.914 16.004 17.734 19.594 21.264
993.424 23.014 24.244 25.584 26.294 26.734 27.124 27.174 27.394 27.004 25.984
1012.714 25.184 24.814 23.524 22.604 21.854 20.064 18.264 16.464 15.234 14.114
1032.003 12.374 11.164 10.334 9.114 8.124 7.384 7.084 6.734 6.294 6.254
1051.293 6.064 5.474 5.774 6.274 6.544 7.314 8.234 8.364 8.544 9.274
1070.583 9.224 9.694 10.184 9.534 8.854 8.014 6.674 6.134 6.924 6.494
1089.873 4.704 3.884 4.434 4.164 3.574 3.944 3.454 2.104 2.444 5.194
1109.163 5.404 3.034 1.884 2.674 3.304 2.494 1.984 1.4624 0.9421 1.714
1128.452 2.454 2.104 2.344 2.914 2.494 2.284 2.294 2.514 3.264 3.614
1147.742 3.304 2.994 2.884 3.294 3.344 3.174 3.604 4.244 4.354 4.234
1167.032 4.264 4.134 3.904 3.804 3.854 3.884 4.744 4.814 4.524 4.784
1186.322 4.244 4.384 5.294 5.234 5.804 6.244 5.624 5.744 5.554 6.084
1205.611 7.604 8.114 8.434 9.224 11.514 14.924 17.754 21.474 26.814 33.964
1224.901 43.104 52.644 59.934 66.204 72.224 76.364 78.254 77.774 74.714 67.024
1244.191 57.804 50.404 43.354 37.214 31.754 26.554 22.784 21.144 21.714 23.624
1263.481 26.784 31.264 36.314 42.194 48.144 52.934 56.334 58.734 60.504 60.864
1282.771 59.084 55.254 50.294 44.904 39.814 35.194 31.224 27.874 24.814 21.614
1302.060 18.354 15.744 13.154 10.824 9.064 7.264 5.904 5.304 4.854 4.304
1321.350 4.064 4.134 4.024 4.074 4.104 4.024 4.204 4.214 4.104 4.084
1340.640 3.924 3.834 3.704 3.394 3.204 2.934 2.584 2.334 2.244 2.064
1359.930 1.874 1.784 1.694 1.5892 1.654 1.784 1.744 1.714 1.844 1.724
1379.219 1.595 1.714 1.754 1.924 2.044 1.994 1.934 1.874 1.944 1.974
1398.509 1.924 2.004 2.074 2.074 1.974 1.914 1.924 1.914 2.094 2.274
1417.799 2.284 2.224 2.384 2.614 2.794 2.874 3.004 3.104 3.154 3.444
1437.089 3.664 3.894 4.394 5.064 5.734 6.474 7.434 8.424 9.524 11.034
1456.378 12.894 14.884 17.284 20.274 23.664 27.454 32.114 38.024 45.614 55.364
1475.668 66.814 79.504 91.814 102.844 110.634 114.594 115.284 113.464 109.344 102.534
1494.958 91.824 77.964 63.654 50.424 39.704 31.944 25.794 21.034 17.754 15.414
1514.248 13.704 12.184 11.074 10.154 9.264 8.454 7.694 7.144 6.724 6.244
1533.538 5.794 5.434 5.164 5.034 4.844 4.614 4.314 4.274 4.214 3.834
1552.827 3.854 3.864 3.734 3.864 4.044 4.174 4.384 4.664 4.924 5.084
1572.117 5.374 6.084 6.904 7.614 8.454 9.494 10.354 11.414 12.564 13.354
1591.407 13.844 13.954 13.904 13.694 13.324 12.674 11.824 11.074 10.724 10.554
1610.697 10.404 10.564 10.534 10.624 10.694 10.434 10.034 9.414 8.444 7.414
1629.986 6.524 5.714 5.074 4.344 3.694 3.294 2.784 2.404 2.274 2.144
1649.276 2.114 2.024 1.954 1.784 1.5661 1.6261 1.834 1.794 1.824 1.944
1668.566 1.954 1.964 1.964 1.984 1.994 2.264 2.494 2.524 2.664 2.804
1687.856 2.984 3.124 3.154 3.244 3.184 3.224 3.404 3.234 3.114 3.074
1707.146 3.014 2.964 3.294 3.604 3.834 4.024 4.204 4.724 5.254 5.974
1726.435 6.844 7.534 8.524 9.464 10.174 11.204 12.314 13.574 14.984 16.634
1745.725 18.574 20.614 23.044 26.094 29.624 33.404 37.254 40.824 44.024 46.754
1765.015 48.914 50.454 51.344 51.454 50.464 48.954 47.654 46.804 46.474 46.954
1784.305 48.204 50.254 53.414 57.584 62.244 66.634 69.814 71.144 71.004 70.084
1803.594 68.944 66.904 62.744 56.584 49.374 42.284 36.204 31.284 27.254 23.944
1822.884 21.344 19.244 17.334 15.694 14.244 12.954 11.704 10.534 9.434 8.404
1842.174 7.544 6.864 6.414 6.024 5.674 5.674 5.654 5.454 5.404 5.234
1861.464 5.114 5.104 4.994 4.904 4.634 4.214 3.944 3.704 3.364 2.954
1880.754 2.624 2.494 2.264 2.084 2.064 1.994 2.014 1.994 1.824 1.684
1900.043 1.734 1.714 1.744 1.924 1.884 1.724 1.744 1.744 1.864 2.184
1919.333 2.264 2.194 2.204 2.264 2.184 2.144 2.004 1.974 1.934 1.904
1938.623 1.934 1.704 1.4969 1.3938 1.5281 1.4541 1.1725 1.2235 1.3113 1.1728
1957.913 0.9864 1.0081 1.0392 0.9872 1.0334 1.1422 1.226 1.3189 1.3457 1.3762
1977.202 1.3523 1.2756 1.3817 1.4179 1.3263 1.2519 1.2265 1.2932 1.3045 1.3005
1996.492 1.3384 1.4237 1.3996 1.2873 1.1822 1.1297 1.2079 1.2725 1.3 1.2206
2015.782 1.2285 1.3245 1.2924 1.1885 1.2417 1.3125 1.2866 1.2628 1.3007 1.34
2035.072 1.3049 1.2986 1.2442 1.2435 1.3094 1.1469 1.0669 1.182 1.2757 1.1827
2054.362 1.0437 1.1102 1.1681 1.1765 1.0891 1.1832 1.2519 1.119 1.0899 1.1067
2073.651 1.2193 1.2854 1.257 1.2247 1.2916 1.4133 1.3377 1.3094 1.3496 1.257
2092.941 1.204 1.1411 0.915 0.9224 1.0115 0.9942 0.9646 0.9237 0.9395 1.0165
2112.231 1.0625 1.014 0.9697 0.9893 1.1332 1.2256 1.1201 1.0853 1.0494 0.9337
2131.521 0.999 1.0551 0.9394 0.8761 0.7915 0.74242 0.8427 0.9325 0.9661 0.9416
2150.810 0.9343 0.9257 0.981 1.0181 0.9418 0.8502 0.73605 0.75046 0.811 0.74285
2170.100 0.9868 1.2071 1.1233 0.8919 0.8244 0.9715 1.0498 1.1379 1.1434 1.022
2189.390 0.9592 0.9191 0.9564 0.9489 0.8026 0.898 1.0285 0.9441 0.9843 0.9975
2208.680 1.0189 1.059 0.9757 0.9874 0.9464 0.9734 1.0706 1.0963 1.057 1.0064
2227.970 1.0687 1.1961 1.1679 1.1659 1.2082 1.1872 1.2622 1.331 1.4421 1.3866
2247.259 1.16 1.0971 1.0958 1.0489 1.0767 1.181 1.213 1.2418 1.1604 1.0605
2266.549 0.9392 0.9103 0.9749 0.9837 0.9745 0.9824 0.928 0.74689 0.9835 1.2016
2285.839 1.1879 1.1515 1.1385 1.1929 1.067 1.1014 1.2573 1.1441 1.1318 1.2018
2305.129 1.1582 1.1122 1.2294 1.1821 1.0895 1.1517 1.2057 1.2168 1.1817 1.2533
2324.418 1.1464 1.1205 1.2214 1.1539 1.1553 1.1245 1.0096 1.115 1.0643 1.0198
2343.708 1.0896 0.991 0.7862 0.8337 1.063 0.74654 0.6014 0.8886 0.7908 0.7852
2362.998 0.8545 0.7583 0.8464 0.8981 0.8478 0.8959 0.941 1.0053 1.0719 0.9367
2382.288 0.70211 0.7795 0.8064 0.8115 0.8294 0.72111 0.67212 0.6322 0.75001 0.73328
2401.578 0.506 0.412 0.5933 0.5926 0.5922 0.812 0.917 0.8513 0.8534 1.0066
2420.867 0.9165 0.8169 0.74581 0.8001 0.8629 0.8876 1.0115 1.0964 1.1382 1.0476
2440.157 1.1291 1.2026 1.0523 0.9171 1.0501 1.2279 1.3553 1.3197 1.1791 1.1695
2459.447 1.2074 1.288 1.2865 1.2426 1.3651 1.3165 1.1448 1.2326 1.3478 1.2583
2478.737 1.2202 1.1381 1.0419 1.0882 1.2202 1.3382 1.3004 1.3754 1.2601 1.1657
2498.026 1.1446 1.1644 1.1684 0.9518 1.0011 1.1968 1.1293 0.9823 1.0584 1.1722
2517.316 1.1757 1.0198 1.0581 1.3351 1.4462 1.2491 1.1801 1.255 1.1343 1.0179
2536.606 1.1337 1.3875 1.3398 1.3273 1.4218 1.4841 1.3194 1.0691 1.0926 1.1083
2555.896 1.2289 1.3253 1.4685 1.5538 1.3182 1.2714 1.4231 1.4466 1.6071 1.6299
2575.186 1.4498 1.5102 1.5397 1.4188 1.3849 1.5014 1.3802 1.1463 1.0676 1.2108
2594.475 1.094 0.8857 0.9799 1.109 1.3173 1.247 1.1079 1.1364 1.2163 1.1163
2613.765 1.1143 1.2778 1.0691 0.919 0.9837 0.8331 0.6185 0.7545 0.8885 0.9365
2633.055 1.1236 1.1085 1.0753 1.0583 1.0477 0.9647 0.7507 0.7953 0.8875 1.0983
2652.345 1.1641 0.71596 0.748 0.8789 0.5858 0.603 0.55 0.6348 0.9987 0.9046
2671.634 0.71888 0.6165 0.471 0.5567 0.802 0.9394 0.8337 0.9672 1.1627 1.0033
2690.924 0.68841 0.7702 1.0754 1.1037 0.9673 0.9087 0.8222 0.8156 1.0414 1.0847
2710.214 1.0431 1.0593 0.9175 0.8707 1.0697 1.0581 1.0532 1.0739 1.0512 1.2408
2729.504 1.1884 0.917 0.8024 0.8906 1.0644 0.9533 0.9259 1.0192 0.9622 0.8918
2748.794 0.867 0.9389 1.1622 1.3769 1.4899 1.468 1.1171 1.0055 1.1228 0.9119
2768.083 0.8236 0.7777 0.509 0.9018 1.0208 0.67105 0.8927 0.75297 0.8956 1.02
2787.373 0.8415 0.9617 0.9953 1.0256 0.9161 0.9289 1.0545 1.0681 0.955 0.9353
2806.663 1.3192 1.4708 1.1419 1.0322 1.059 1.006 1.1821 1.2222 1.0351 0.9471
2825.953 1.147 1.1881 1.0655 1.2436 1.1665 1.0754 1.1502 1.1749 1.0759 1.0763
2845.242 1.2481 1.106 0.9182 0.9208 0.9626 0.9721 0.8875 0.909 0.8941 1.0079
2864.532 1.0529 0.7737 0.539 0.6273 1.0248 0.9191 1.0042 1.0615 1.0884 1.0618
2883.822 0.8337 0.73239 0.482 0.67515 0.8868 0.8978 1.025 1.0903 1.0003 0.8509
2903.112 0.6176 0.826 1.0805 0.9394 0.8106 0.7631 0.8055 0.9142 0.832 0.72536
2922.401 0.71418 0.8584 1.0354 0.9137 0.75127 1.0208 1.2608 1.0596 0.8952 0.6253
2941.691 0.515 0.5895 0.7581 0.70433 0.65097 0.67581 0.641 0.8005 0.5815 0.463
2960.981 0.533 0.66707 0.7289 0.70825 0.6025 0.374 0.472 0.415 0.5651 0.5936
2980.271 0.303 0.253 0.294 0.383 0.327 0.492 0.519 0.445 0.5675 0.656695
2999.561 0.6428 0.68826 0.9339 0.74872 0.494 0.66668 0.8455 0.7917 0.70594 0.5709
3018.850 0.7655 1.0091 1.0259 0.8375 0.7661 1.0429 1.0206 1.2113 1.1915 0.9394
3038.140 1.1946 1.5134 1.3516 1.1206 1.3429 1.4172 1.704 2.114 1.894 1.4495
3057.430 1.5898 1.674 1.4338 1.714 1.844 1.954 1.864 1.5329 1.5343 1.814
3076.720 2.094 1.964 1.764 2.024 2.214 2.204 2.214 2.164 2.224 2.194
3096.009 2.134 2.084 1.984 1.884 1.804 1.864 1.684 1.3438 1.2398 1.3008
3115.299 1.018 0.67575 0.9254 1.0301 1.0457 1.1692 0.9007 0.5943 0.556 0.541
3134.589 0.73361 0.799 0.8083 1.0731 1.1444 0.9251 0.67943 0.7733 0.68062 0.70692
3153.879 1.1905 0.9766 0.72472 0.8167 0.8227 0.8928 0.8307 0.67772 0.444 0.492
3173.169 0.502 0.6291 0.74468 0.498 0.513 0.532 0.6351 0.64522 0.5733 0.505
3192.458 0.6418 1.0129 0.74884 0.71092 0.9801 0.548 0.341 0.399 0.64577 0.8495
3211.748 0.5553 0.6313 0.533 0.179 0.543 0.8316 0.428 0.344 0.75237 0.67279
3231.038 0.43 0.485 0.73321 1.0262 1.1532 0.9232 0.75072 0.8271 0.7574 0.7951
3250.328 0.70014 0.512 0.348 0.032 0.214 0.6169 0.5739 0.398 0.748 1.1114
3269.617 0.953 0.9359 0.7693 0.409 0.507 0.71815 0.74135 0.73543 0.7615 0.70454
3288.907 0.654029 0.415 0.264 0.465 0.71565 0.7574 0.642 0.9392 0.9565 0.64445
3308.197 0.543 0.9686 1.0679 0.74269 0.482 0.198 0.403 0.456 0.455 0.68221
3327.487 0.7274 0.7924 0.6261 0.7839 1.0214 0.8367 0.72604 0.519 0.486 0.67747
3346.777 0.70143 0.67003 0.73965 0.467 0.353 0.42 0.6344 0.6976 0.448 0.657708
3366.066 1.025 1.1203 0.7812 0.38 0.527 0.6095 0.477 0.5978 0.5965 0.316
3385.356 0.075 0.308 0.70048 0.537 0.374 0.6155 0.5785 0.538 1.042 1.1176
3404.646 1.0923 1.1394 0.5559 0.346 0.6324 0.146 0 0.6409 0.288 0.042
3423.936 0.173 0.288 0.8145 0.5674 0.273 0.381 0.519 0.5935 0.754 1.3406
3443.225 1.1639 0.8531 0.64803 0.394 0.551 0.5551 0.7778 1.0443 0.8356 0.68952
3462.515 0.74285 0.8799 0.832 0.877 1.0196 0.8388 0.511 0.7899 0.7729 0.68248
3481.805 0.9199 1.0049 1.2769 1.2509 1.3475 1.1375 0.8199 0.9643 1.1599 1.4393
3501.095 1.704 1.684 1.2595 1.2038 1.0698 0.8784 1.4744 1.5471 1.1831 0.9305
3520.385 1.1012 1.3858 1.2235 1.0678 1.0708 1.2536 1.1664 1.1531 1.3076 1.187
3539.674 1.1449 1.3681 1.6129 1.904 1.984 1.914 1.664 1.794 2.084 1.804
3558.964 1.794 1.834 1.834 1.5349 1.4535 1.5405 1.4311 1.754 1.714 1.3835
3578.254 1.3897 1.457 1.3043 0.9172 0.9565 1.5595 1.754 1.5208 1.5427 1.638
3597.544 1.4063 1.229 1.3468 1.605 1.4842 1.0674 0.8756 1.1674 1.3713 1.2701
3616.833 1.2002 1.1514 1.1904 1.132 0.8757 0.926 1.1802 1.3573 1.0022 0.68531
3636.123 0.75329 0.7963 0.8826 0.8751 0.9978 0.8104 0.6992 0.73017 0.5913 0.6235
3655.413 0.423 0.411 0.442 0.361 0.8338 1.4343 0.9386 0.259 0.9653 1.3877
3674.703 1.3382 1.266 1.0209 0.9017 0.6404 0.74374 0.9696 0.8535 0.891 0.8058
3693.993 0.5684 0.433 0.457 0.7698 1.0275 0.8608 0.538 0.6196 1.108 1.4263
3713.282 0.8048 0.384 0.5567 0.67838 0.578 0.53 0.6087 0.278 0.14 0.487
3732.572 0.72404 0.398 0.397 1.2322 1.5488 1.0004 0.8923 0.5916 0.306 0.6024
3751.862 0.6361 0.517 0.5649 0.67 0.73712 0.908 1.389 1.5691 1.3174 1.3135
3771.152 1.0913 0.556 0.6072 1.0061 0.7981 0.7621 0.66635 0.53 0.7877 0.67268
3790.441 0.72961 0.482 0.52 1.013 0.72252 0.6431 0.9769 0.74991 0.116 0.226
3809.731 0.5624 0.549 1.0063 1.091 1.0105 1.1423 0.9682 1.0688 0.9617 0.568
3829.021 0.5839 0.7933 0.9623 0.9401 0.8354 0.9693 0.9026 0.9161 1.2686 1.3224
3848.311 0.9976 0.8277 1.1032 0.8011 0.5682 0.74564 0.69061 0.8762 1.0425 0.72563
3867.601 0.6247 0.5562 0.542 0.74975 0.8785 1.3425 1.2379 0.69156 0.572 0.326
3886.890 0.008 0.426 0.8498 0.7448 0.8251 0.7558 0.6165 0.9915 0.8965 0.8085
3906.180 0.75166 0.6743 1.0851 0.9868 1.1157 1.223 0.9544 0.864 1.1095 0.8713
3925.470 0.462 0.7228 0.8343 0.7834 0.8035 1.1138 0.9841 0.6094 0.499 0.485
3944.760 0.7998 1.1253 0.9018 0.5824 0.5952 0.506 0.7582 1.2073 1.1358 1.038
3964.049 1.0787 0.944 0.8145 0.851 0.7677 0.8234 0.8394 0.502 0.69719 0.72
3983.339 0.524 0.7911 0.446 0.363 0.73541 0.9388 0.8973 0.6369 0.65267 0.8383
##END=
