##TITLE=4-Benzyloxy-3-methoxyacetophenone
##JCAMP-DX=4.24
##DATA TYPE=INFRARED SPECTRUM
##ORIGIN=EPA-IR VAPOR PHASE LIBRARY
##OWNER=SRD/NIST
Collection (C) 2018 copyright by the U.S. Secretary of Commerce
on behalf of the United States of America. All rights reserved.
##CAS REGISTRY NO=1835-11-6
##MOLFORM=C 16 H 16 O 3
##$NIST SOURCE=MSDC-IR
##STATE=gas
##XUNITS=1/CM
##YUNITS=ABSORBANCE
##XFACTOR=1.
##YFACTOR=0.001
##DELTAX=1.92898
##FIRSTX=549.8
##LASTX=4000.7
##FIRSTY=4.811
##MAXX=4000.7
##MINX=549.759
##MAXY=0.175101
##MINY=0
##NPOINTS=1790
##XYDATA=(X++(Y..Y))
549.759 4.811 5.521 6.371 7.191 7.961 9.211 10.741 11.681 12.931 13.491
569.049 13.031 12.691 12.061 11.201 10.671 10.181 9.811 9.591 9.091 9.161
588.339 9.571 9.921 10.391 11.031 11.801 12.141 12.161 12.241 12.031 11.481
607.628 10.681 9.841 9.141 8.361 7.441 6.611 6.111 5.651 5.281 5.111
626.918 4.711 4.391 4.441 5.031 5.591 5.781 6.151 6.531 7.071 7.411
646.208 7.481 7.631 7.431 6.921 6.371 5.861 5.561 5.341 5.411 5.441
665.498 5.421 5.731 6.161 6.871 7.781 8.601 9.431 10.281 11.281 12.231
684.787 13.111 14.281 15.841 17.541 19.131 20.101 20.001 19.111 17.901 16.521
704.077 15.201 14.091 13.211 12.561 12.141 12.021 12.021 12.551 13.171 13.951
723.367 15.161 16.081 16.821 17.401 17.591 17.351 16.991 16.641 16.161 15.421
742.657 14.691 14.381 14.191 13.891 13.551 13.321 13.211 13.101 12.851 12.811
761.947 12.661 12.341 12.051 11.401 10.931 10.461 9.911 9.701 9.531 9.191
781.236 8.871 8.631 8.411 8.171 8.051 8.371 9.101 10.011 10.811 11.511
800.526 11.931 12.161 12.211 12.231 12.411 12.501 12.441 12.211 12.091 11.901
819.816 11.671 11.471 10.921 10.121 9.581 9.571 9.301 9.001 9.151 9.451
839.106 9.711 9.851 10.011 9.991 9.891 9.531 9.071 8.741 8.421 8.331
858.395 8.081 7.931 8.201 8.841 9.721 10.761 11.901 12.961 13.831 14.331
877.685 14.441 14.061 13.281 12.581 12.051 11.411 10.691 10.181 9.801 9.281
896.975 8.911 8.671 8.501 8.551 8.431 8.171 7.921 7.661 7.281 6.951
916.265 6.571 6.231 6.101 5.791 5.651 5.611 5.711 5.791 5.841 6.161
935.555 6.451 6.741 7.211 7.781 8.541 9.321 10.421 12.051 13.611 14.951
954.844 16.041 16.701 17.041 17.501 18.141 18.881 19.961 21.111 22.261 23.211
974.134 24.101 25.101 25.821 26.331 26.791 27.021 27.421 28.041 28.701 29.471
993.424 30.351 31.421 32.541 33.701 34.681 35.851 37.071 38.261 39.651 40.881
1012.714 42.101 43.481 44.871 46.121 47.351 47.771 47.721 47.161 45.821 44.361
1032.003 42.001 39.091 36.311 33.381 30.091 26.631 23.221 20.461 18.341 15.761
1051.293 13.441 12.031 11.221 10.781 10.141 9.821 10.151 10.791 11.781 12.691
1070.583 13.541 14.501 14.811 14.571 14.341 13.621 12.451 11.641 10.621 9.821
1089.873 9.471 8.561 8.321 8.421 8.571 8.901 9.371 10.121 10.251 11.371
1109.163 13.631 15.801 17.841 20.541 24.641 28.761 32.661 37.371 42.261 46.081
1128.452 48.581 50.161 49.951 48.121 46.061 43.901 41.581 39.041 36.541 33.991
1147.742 31.311 28.361 25.281 23.081 21.491 20.731 21.421 23.031 25.421 28.661
1167.032 32.801 37.951 43.211 47.451 50.151 50.951 50.211 47.721 44.181 41.281
1186.322 39.611 39.441 40.491 43.281 47.151 51.661 57.091 63.041 69.031 74.801
1205.611 79.541 82.581 84.541 84.641 82.401 78.201 72.981 67.431 61.251 55.081
1224.901 49.711 45.171 41.991 40.441 39.831 39.611 40.271 42.041 44.261 47.101
1244.191 50.271 54.181 59.251 65.021 72.051 80.551 90.361 101.871 114.891 128.431
1263.481 141.581 153.141 161.981 167.651 170.761 172.731 174.251 175.101 174.761 171.951
1282.771 165.681 156.281 143.941 130.011 116.051 102.621 90.251 79.211 69.821 62.121
1302.060 55.711 50.171 45.591 41.751 38.461 35.711 33.391 31.421 29.601 27.931
1321.350 26.381 24.891 23.591 22.551 21.561 20.651 19.981 19.481 19.081 18.831
1340.640 18.861 19.321 20.181 21.611 23.791 26.991 31.061 35.561 39.731 42.501
1359.930 43.131 41.501 38.211 34.091 30.111 26.961 24.771 23.451 22.721 22.181
1379.219 21.611 20.941 20.201 19.541 19.201 19.561 20.661 22.361 24.791 27.941
1398.509 31.561 35.751 40.251 44.731 48.941 52.241 54.091 54.161 52.171 48.341
1417.799 43.181 37.431 32.151 27.621 24.081 21.511 19.631 18.371 17.531 16.961
1437.089 16.621 16.611 16.831 17.321 18.041 18.971 20.211 21.571 22.971 24.231
1456.378 25.301 26.441 27.551 28.561 29.301 29.531 29.081 27.911 26.091 24.181
1475.668 22.611 21.601 21.321 21.751 23.061 25.311 28.711 33.351 39.611 47.451
1494.958 56.571 66.801 76.811 84.971 89.791 90.071 85.651 77.691 67.731 57.121
1514.248 47.221 38.791 32.191 27.171 23.221 20.301 18.011 16.321 14.961 13.751
1533.538 12.791 12.121 11.541 11.161 11.061 11.011 11.141 11.421 11.741 12.241
1552.827 12.821 13.511 14.461 15.551 17.051 18.771 20.541 22.631 24.851 27.101
1572.117 29.411 31.391 33.141 34.871 36.561 38.541 40.901 43.821 47.271 50.741
1591.407 53.861 56.021 56.461 54.981 51.721 46.781 40.891 34.821 29.171 24.301
1610.697 20.321 17.231 14.771 12.821 11.371 10.201 9.271 8.591 8.121 7.731
1629.986 7.381 7.141 6.951 6.791 6.761 6.771 6.831 6.931 7.121 7.331
1649.276 7.671 8.101 8.521 8.921 9.331 9.661 9.711 9.711 9.871 9.941
1668.566 10.101 10.471 11.061 11.771 13.021 14.691 16.951 20.031 24.451 30.951
1687.856 39.781 51.851 67.231 83.911 99.361 110.131 112.641 106.651 93.991 76.991
1707.146 59.581 44.711 33.421 25.261 19.521 15.551 12.871 11.111 9.911 9.041
1726.435 8.481 8.161 8.031 7.971 8.061 8.351 8.531 8.601 8.631 8.521
1745.725 8.201 7.681 7.021 6.321 5.701 5.161 4.651 4.241 3.901 3.601
1765.015 3.351 3.171 3.081 3.001 2.951 2.921 2.931 2.891 2.811 2.861
1784.305 2.911 2.921 2.951 2.991 3.081 3.261 3.361 3.391 3.401 3.261
1803.594 3.091 2.921 2.721 2.511 2.391 2.351 2.291 2.281 2.311 2.301
1822.884 2.241 2.111 2.131 2.171 2.201 2.271 2.191 2.191 2.241 2.211
1842.174 2.161 2.141 2.171 2.221 2.301 2.341 2.351 2.411 2.541 2.541
1861.464 2.561 2.631 2.671 2.671 2.661 2.721 2.781 2.791 2.721 2.601
1880.754 2.571 2.611 2.571 2.481 2.361 2.281 2.231 2.231 2.231 2.141
1900.043 2.101 2.101 2.151 2.141 2.011 1.981 2.031 2.051 2.021 2.061
1919.333 2.081 2.061 2.071 2.101 2.161 2.241 2.301 2.311 2.381 2.481
1938.623 2.601 2.761 2.901 2.971 2.991 3.031 3.081 3.051 3.051 3.141
1957.913 3.101 3.001 2.881 2.711 2.481 2.341 2.211 2.061 2.041 2.021
1977.202 2.001 2.001 1.971 1.961 2.031 2.041 1.981 2.011 2.061 2.071
1996.492 2.131 2.151 2.141 2.121 2.081 2.191 2.261 2.281 2.281 2.301
2015.782 2.321 2.321 2.271 2.231 2.251 2.341 2.431 2.431 2.391 2.401
2035.072 2.481 2.491 2.451 2.431 2.381 2.361 2.401 2.421 2.381 2.361
2054.362 2.351 2.251 2.171 2.161 2.121 2.041 2.021 2.001 1.931 1.851
2073.651 1.791 1.861 1.841 1.721 1.701 1.721 1.691 1.631 1.551 1.581
2092.941 1.561 1.511 1.461 1.461 1.461 1.331 1.2541 1.2437 1.1916 1.1297
2112.231 1.0594 1.0513 1.051 1.0156 0.9719 0.9208 0.9194 0.946 0.932 0.935
2131.521 1.0123 1.0575 1.0361 0.988 0.9882 0.9579 0.925 0.9816 1.01 1.0336
2150.810 1.0639 1.0801 1.0445 1.0585 1.0737 1.0411 1.0679 1.0787 1.0983 1.0393
2170.100 0.9832 1.0194 0.9861 1.0077 1.101 1.0788 1.0469 1.0021 1.0003 0.9987
2189.390 0.9457 0.979 1.0097 0.9692 0.9022 0.8584 0.9467 1.0125 0.9028 0.88
2208.680 0.8931 0.8653 0.9369 0.9521 0.9398 0.9638 1.0039 0.9916 0.9687 0.9978
2227.970 1.0449 1.1224 1.1661 1.172 1.1746 1.1836 1.2369 1.191 1.1359 1.1504
2247.259 1.0898 1.1051 1.1633 1.2089 1.2525 1.2601 1.271 1.331 1.301 1.2478
2266.549 1.281 1.291 1.271 1.2083 1.1878 1.1806 1.1364 1.1518 1.1864 1.2338
2285.839 1.2199 1.1512 1.1094 1.1422 1.1244 1.0513 1.0753 1.112 1.153 1.1102
2305.129 1.0788 1.0695 1.0613 1.117 1.1424 1.1586 1.1395 1.0834 1.0077 0.9782
2324.418 1.0015 0.9524 0.9103 0.9361 0.8969 0.8757 0.9019 0.9367 1.0727 1.1743
2343.708 1.1261 1.0147 0.9317 0.9309 0.998 0.9957 0.9625 0.9845 0.9265 0.8934
2362.998 0.9299 0.9203 0.9177 0.8994 0.874 0.8646 0.8247 0.8231 0.8336 0.8765
2382.288 0.9275 0.9871 0.9623 0.8769 0.8582 0.8579 0.8702 0.8069 0.846 0.9075
2401.578 0.8624 0.874 0.8959 0.9114 0.927 1.0051 1.008 0.9133 0.997 0.9943
2420.867 0.9144 1.0143 0.9945 0.9699 1.0387 0.9999 0.9638 0.9762 1.061 1.1303
2440.157 1.0843 1.0316 1.099 1.2255 1.2178 1.1672 1.2312 1.1749 1.1599 1.2485
2459.447 1.331 1.371 1.291 1.301 1.381 1.421 1.421 1.471 1.411 1.361
2478.737 1.401 1.441 1.471 1.411 1.331 1.341 1.381 1.361 1.381 1.321
2498.026 1.2583 1.311 1.371 1.371 1.361 1.361 1.291 1.321 1.381 1.361
2517.316 1.351 1.281 1.301 1.381 1.431 1.491 1.491 1.521 1.541 1.451
2536.606 1.401 1.491 1.581 1.631 1.671 1.731 1.751 1.641 1.651 1.811
2555.896 1.871 1.931 2.001 1.961 1.981 2.081 2.141 2.221 2.301 2.351
2575.186 2.381 2.351 2.321 2.261 2.271 2.411 2.381 2.381 2.381 2.281
2594.475 2.171 2.091 2.071 2.061 2.031 2.001 1.911 1.921 1.891 1.871
2613.765 1.801 1.741 1.771 1.661 1.561 1.531 1.421 1.411 1.481 1.521
2633.055 1.501 1.371 1.2422 1.281 1.311 1.245 1.2024 1.1674 1.1471 1.164
2652.345 1.1266 1.0328 1.0791 1.2504 1.2307 1.1352 1.0912 1.0624 1.0583 1.059
2671.634 1.0703 1.063 1.0983 1.0976 1.0822 1.0629 0.9922 0.9777 0.9959 0.8968
2690.924 0.8575 0.9098 0.9498 0.9321 0.9391 0.9855 0.9405 0.9424 0.955 0.9577
2710.214 1.0222 1.091 1.1053 1.0073 0.9785 1.0734 1.1638 1.271 1.341 1.261
2729.504 1.2073 1.2256 1.1652 1.1112 1.1191 1.1789 1.1818 1.1055 1.1603 1.2492
2748.794 1.2267 1.2126 1.2123 1.1741 1.1862 1.1561 1.1073 1.2346 1.321 1.271
2768.083 1.291 1.341 1.451 1.541 1.471 1.481 1.541 1.601 1.661 1.671
2787.373 1.641 1.611 1.721 1.751 1.731 1.821 1.971 2.111 2.301 2.461
2806.663 2.521 2.681 2.881 3.111 3.411 3.601 3.761 4.011 4.331 4.711
2825.953 5.151 5.711 6.171 6.721 7.351 7.871 8.351 8.741 9.071 9.231
2845.242 9.221 9.221 9.211 9.101 8.901 8.881 8.911 8.961 9.281 9.581
2864.532 9.891 10.221 10.621 11.001 11.141 11.241 11.311 11.441 11.681 11.741
2883.822 11.611 11.531 11.591 11.581 11.481 11.301 11.231 11.101 11.001 11.061
2903.112 11.071 11.141 11.261 11.441 11.851 12.271 12.611 13.081 13.521 13.871
2922.401 14.241 14.791 15.431 16.151 17.021 17.941 18.991 20.161 21.281 22.291
2941.691 23.151 23.731 23.941 23.791 23.431 22.941 22.331 21.711 21.101 20.591
2960.981 20.101 19.551 19.091 18.471 17.631 16.801 15.861 14.961 14.211 13.391
2980.271 12.531 11.801 11.341 11.101 10.911 10.901 11.131 11.441 11.861 12.581
2999.561 13.551 14.491 15.521 16.521 17.271 17.701 17.661 17.271 16.561 15.671
3018.850 14.831 14.191 13.881 14.001 14.451 15.001 15.691 16.411 17.031 17.421
3038.140 17.541 17.241 16.601 15.851 15.071 14.421 14.091 13.891 13.611 13.501
3057.430 13.681 14.081 14.941 16.321 18.051 19.841 21.561 22.941 23.401 22.981
3076.720 21.521 19.421 17.371 15.711 14.481 13.461 12.621 11.881 11.041 10.071
3096.009 9.351 8.871 8.251 7.651 7.281 6.831 6.301 5.901 5.521 5.211
3115.299 4.731 4.191 3.781 3.311 2.871 2.531 2.351 2.231 2.021 1.851
3134.589 1.761 1.741 1.631 1.471 1.481 1.381 1.233 1.2253 1.1547 1.2391
3153.879 1.1761 1.039 1.1903 1.2175 1.1604 1.361 1.421 1.331 1.301 1.1671
3173.169 1.132 1.1732 1.0425 0.8655 0.8255 0.8645 0.8892 0.7874 0.8016 0.8432
3192.458 0.7942 0.7696 0.7029 0.7573 0.8333 0.7268 0.661 0.6486 0.6452 0.5972
3211.748 0.4941 0.5127 0.5684 0.5111 0.4484 0.3935 0.32141 0.3434 0.3845 0.4157
3231.038 0.3914 0.32453 0.2454 0.266786 0.29942 0.33072 0.4775 0.4346 0.28951 0.34688
3250.328 0.34096 0.33972 0.3964 0.28012 0.33065 0.30965 0.105 0.1844 0.2231 0.1852
3269.617 0.155 0.2407 0.28275 0.267381 0.33545 0.2838 0.34628 0.3879 0.34792 0.33222
3288.907 0.260776 0.3983 0.5569 0.4581 0.3895 0.3457 0.33094 0.234 0.2023 0.35416
3308.197 0.4516 0.3681 0.2308 0.2494 0.3653 0.3845 0.34289 0.267832 0.25476 0.34813
3327.487 0.2288 0.2213 0.32337 0.3797 0.4134 0.30484 0.3984 0.5923 0.5642 0.465
3346.777 0.32641 0.34206 0.4686 0.5396 0.6662 0.7535 0.7817 0.9258 1.0429 1.0297
3366.066 1.0731 1.1572 1.291 1.401 1.551 1.761 1.841 1.821 1.841 1.741
3385.356 1.661 1.551 1.281 1.1525 1.0759 1.097 1.0463 0.8504 0.7031 0.5905
3404.646 0.5382 0.561 0.5371 0.3839 0.35063 0.4751 0.5117 0.30616 0.139 0.2335
3423.936 0.27099 0.1878 0.123 0.1969 0.28274 0.33937 0.27652 0.30745 0.3656 0.216
3443.225 0.1915 0.2328 0.2032 0.2298 0.28256 0.32426 0.31422 0.27254 0.2159 0.09
3462.515 0.075 0.196 0.25547 0.116 0.119 0.2495 0.2571 0.2377 0.2164 0.13
3481.805 0.1901 0.31754 0.28883 0.2247 0.112 0.096 0.1849 0.2176 0.33711 0.4232
3501.095 0.2907 0.202 0.29854 0.2558 0.129 0.1718 0.1952 0.3268 0.35156 0.086
3520.385 0.127 0.2095 0.094 0.122 0.079 0.066 0.032 0.01 0.089 0.112
3539.674 0.1946 0.28663 0.31309 0.092 0.008 0.2062 0.29012 0.31559 0.2331 0.15
3558.964 0.28048 0.4084 0.4482 0.4037 0.33852 0.4773 0.6524 0.599 0.4133 0.34685
3578.254 0.4412 0.4068 0.35707 0.3634 0.28318 0.1982 0.158 0.25189 0.2478 0.123
3597.544 0.2392 0.28395 0.2196 0.102 0.045 0.1851 0.1705 0.088 0.122 0.2398
3616.833 0.2282 0.1808 0.1654 0.1854 0.144 0.146 0.27798 0.127 0.036 0.32064
3636.123 0.5068 0.5681 0.5392 0.2468 0.1678 0.2234 0.041 0.109 0.2389 0.2254
3655.413 0.2487 0.122 0.104 0.30779 0.32358 0.34471 0.2162 0.107 0.1895 0.2244
3674.703 0.2348 0.2079 0.29917 0.270368 0.1646 0.131 0.113 0.033 0 0.088
3693.993 0.2264 0.3592 0.28232 0.1882 0.2159 0.2218 0.35492 0.381 0.227 0.151
3713.282 0.2174 0.1947 0.2432 0.29536 0.153 0.121 0.2176 0.2093 0.29254 0.4497
3732.572 0.4396 0.266374 0.2001 0.2128 0.25115 0.3435 0.1988 0.1646 0.2215 0.064
3751.862 0.097 0.263701 0.31034 0.31021 0.28062 0.151 0.047 0.155 0.2093 0.1995
3771.152 0.2106 0.25726 0.27855 0.25944 0.31411 0.33797 0.30447 0.119 0.013 0.2291
3790.441 0.4523 0.35061 0.26569 0.27306 0.186 0.264967 0.2449 0.1846 0.2289 0.1957
3809.731 0.117 0.2084 0.1894 0.115 0.2104 0.151 0.1877 0.3753 0.44 0.4919
3829.021 0.4738 0.29077 0.14 0.147 0.25516 0.1882 0.1863 0.2322 0.1652 0.25399
3848.311 0.28976 0.34548 0.3787 0.27993 0.1671 0.27286 0.429 0.3778 0.3449 0.31078
3867.601 0.27943 0.1907 0.32077 0.4873 0.5159 0.5919 0.5045 0.33657 0.1824 0.106
3886.890 0.260051 0.4484 0.4648 0.2254 0.11 0.3619 0.3812 0.3835 0.4304 0.32306
3906.180 0.33163 0.4952 0.53 0.4547 0.5543 0.5557 0.32755 0.28679 0.4549 0.4163
3925.470 0.4253 0.4106 0.1927 0.132 0.25775 0.4713 0.6753 0.6595 0.5037 0.4473
3944.760 0.33832 0.32958 0.4975 0.469 0.5799 0.6422 0.4823 0.4924 0.35467 0.3824
3964.049 0.621 0.7271 0.5164 0.3683 0.5531 0.5691 0.4982 0.4681 0.5641 0.5857
3983.339 0.5028 0.5919 0.5051 0.4006 0.5111 0.5576 0.5455 0.5856 0.5143 0.31113
##END=
