##TITLE=.alpha.-Chlorocinnamaldehyde
##JCAMP-DX=4.24
##DATA TYPE=INFRARED SPECTRUM
##ORIGIN=EPA-IR VAPOR PHASE LIBRARY
##OWNER=SRD/NIST
Collection (C) 2018 copyright by the U.S. Secretary of Commerce
on behalf of the United States of America. All rights reserved.
##CAS REGISTRY NO=18365-42-9
##MOLFORM=C 9 H 7 Cl O
##$NIST SOURCE=MSDC-IR
##STATE=gas
##XUNITS=1/CM
##YUNITS=ABSORBANCE
##XFACTOR=1.
##YFACTOR=0.001
##DELTAX=1.92934
##FIRSTX=549.9
##LASTX=3999.5
##FIRSTY=7.86
##MAXX=3999.53
##MINX=549.863
##MAXY=0.46223
##MINY=0
##NPOINTS=1789
##XYDATA=(X++(Y..Y))
549.863 7.86 7.27 6.8 6.31 6.14 5.91 5.52 5.18 4.95 4.77
569.156 4.63 4.54 4.39 4.38 4.54 4.71 4.82 5.01 5.33 5.74
588.450 6.39 7.26 8.24 9.34 10.64 11.95 12.99 13.97 14.92 15.55
607.743 15.96 15.99 15.49 14.58 13.9 13.93 14.07 14.17 14.31 14.45
627.037 14.98 16.02 17.4 19.31 21.84 24.81 28.26 32.15 36.17 40.19
646.330 44.13 47.63 50.31 51.93 52.33 52.04 51.71 51.14 49.71 47.47
665.624 45.3 44.03 44.21 45.81 48.61 52.43 56.83 61.45 66.24 71.3
684.917 77.59 84.7 87.65 84.23 79.46 75.98 72.8 69.25 65.29 61.2
704.210 57 52.86 48.95 45.4 42.32 39.82 38.14 37.2 36.84 36.94
723.504 37.18 37.42 37.72 38.47 39.62 40.44 40.73 40.77 40.98 41.77
742.797 43.02 44.39 45.63 46.42 46.63 47.06 47.97 47.05 42.98 38.29
762.091 34.53 31.05 27.51 24.1 20.84 17.91 15.51 13.52 11.87 10.51
781.384 9.43 8.65 8.04 7.44 6.94 6.61 6.35 6.1 5.89 5.7
800.678 5.53 5.36 5.19 5.1 5.03 5.03 5.09 5.1 5.36 5.86
819.971 6.25 6.78 7.39 8.03 8.9 9.81 10.67 11.48 12.22 12.96
839.264 13.72 14.46 15.13 15.75 16.32 16.98 17.76 18.67 19.72 20.81
858.558 21.95 23.24 24.71 26.37 28.16 29.75 31.11 32.44 33.62 34.47
877.851 34.78 34.43 33.5 32.05 30.16 27.81 25.03 22.38 20.18 18.35
897.145 16.83 15.68 14.89 14.47 14.34 14.4 14.56 14.81 15.21 15.69
916.438 16.31 17.12 17.77 17.68 16.75 15.38 14.05 13.01 11.99 11.02
935.732 10.08 9.19 8.41 7.82 7.39 7.06 6.87 6.68 6.57 6.46
955.025 6.35 6.31 6.29 6.3 6.23 6.15 6.15 6.2 6.26 6.39
974.318 6.51 6.7 7.02 7.41 7.66 7.83 8.09 8.55 9.22 10.13
993.612 11.37 12.62 13.43 13.76 14.03 14.3 14.63 14.57 13.95 13.57
1012.905 13.92 15.02 16.84 19.43 22.84 27.06 31.96 37.06 42.31 48.03
1032.199 54.49 61.84 69.76 78.18 87.57 97.82 107.83 115.91 120.6 121.3
1051.492 118.38 112.49 104.03 93.45 81.64 70.68 62.72 58.34 56.55 55.81
1070.786 55.08 53.88 52.1 49.84 47.48 45.37 44.04 44.1 46.43 51.56
1090.079 59.05 67.67 75.87 83.43 91.4 100.89 112.23 124.89 138.32 151.58
1109.372 162.07 167.23 166.52 160.92 150.13 132.08 105.86 75.85 50.59 34.34
1128.666 25.3 20.21 17.02 14.95 13.66 12.98 12.81 12.73 12.63 12.62
1147.959 12.52 12.63 13.02 13.3 13.26 12.91 12.52 12.24 11.89 11.24
1167.253 10.26 9.32 8.7 8.46 8.77 9.66 10.57 11.17 11.36 11.01
1186.546 10.64 10.46 9.98 9.08 7.86 6.68 6.14 6.26 6.38 6.2
1205.840 6.39 6.67 6.55 6.49 6.56 6.27 5.95 6.06 6.1 6.11
1225.133 6.21 6.22 6.3 6.61 6.89 7.1 7.39 7.68 8.02 8.51
1244.426 9.19 9.86 10.75 11.85 13.03 14.4 15.74 17.19 18.82 20.53
1263.720 22.49 24.45 26.41 28.51 30.61 32.66 34.47 36.13 37.63 38.62
1283.013 38.85 38.3 37.03 35.37 33.49 31.3 29.22 27.47 26.21 25.74
1302.307 26.09 26.95 27.95 28.84 29.52 29.96 30.05 29.8 29.23 28.36
1321.600 27.28 26.13 25.24 24.63 24.18 23.71 23.07 22.19 21.02 19.74
1340.894 18.55 17.33 15.9 14.26 12.63 11.3 10.34 9.68 9.31 9.15
1360.187 9.15 9.33 9.6 10.09 10.93 12.25 14.14 16.78 20.14 23.48
1379.480 25.66 26.36 26.27 25.81 25.04 23.3 20.23 16.74 13.63 11.33
1398.774 9.8 8.72 7.98 7.41 6.99 6.7 6.53 6.53 6.64 6.79
1418.067 7.02 7.39 7.83 8.32 8.96 9.78 10.83 12.13 13.75 15.84
1437.361 18.52 21.52 24.65 27.28 28.61 28.69 28.39 28.31 27.64 25.5
1456.654 22.04 18.5 15.63 13.29 11.48 10.11 9.18 8.62 8.47 8.84
1475.948 9.7 11.13 13.24 16.17 19.79 23.62 27.01 29.34 30.4 30.49
1495.241 29.78 27.99 24.95 20.97 17.1 14.13 11.94 10.43 9.35 8.47
1514.534 7.71 7.14 6.74 6.39 6.12 5.92 5.79 5.74 5.69 5.64
1533.828 5.61 5.59 5.67 5.81 5.99 6.21 6.49 6.84 7.2 7.54
1553.121 7.99 8.58 9.3 10.26 11.47 12.94 14.72 16.83 19.13 21.41
1572.415 23.39 24.95 26.25 27.41 28.51 29.78 31.45 33.92 37.9 43.9
1591.708 52.07 62.51 75.23 90.37 107.59 126.12 144.41 160.61 172.97 180.23
1611.002 181.64 176.77 165.57 147.85 126.05 103.08 80.99 62 47.05 35.95
1630.295 28.2 23.02 19.41 16.94 15.15 13.89 13.04 12.38 11.89 11.56
1649.588 11.36 11.16 10.97 10.87 10.79 10.75 10.77 10.87 11.15 11.54
1668.882 12.12 12.87 13.87 15.16 16.59 17.93 19.04 19.92 20.92 22.12
1688.175 23.43 25 27.19 30.47 35.58 42.58 52.02 65.29 82.6 107.64
1707.469 142.29 188.59 246.34 310.58 371.43 418.87 448.61 462.23 459.57 435.14
1726.762 384.56 315.98 244.16 182.64 133.54 99.58 77.13 61.7 51.98 45.79
1746.056 41.86 39.32 37.57 36.21 35.13 34.2 33.39 32.59 31.74 30.83
1765.349 29.77 28.51 27.01 25.28 23.29 21.25 19.26 17.43 15.91 14.79
1784.642 14.08 13.74 13.6 13.51 13.45 13.31 12.95 12.42 11.71 10.85
1803.936 9.96 9.01 8.15 7.44 6.89 6.53 6.23 6.05 5.94 5.76
1823.229 5.62 5.48 5.36 5.33 5.32 5.32 5.35 5.37 5.38 5.37
1842.523 5.32 5.27 5.21 5.13 5.08 5.02 4.92 4.81 4.7 4.61
1861.816 4.53 4.47 4.44 4.45 4.53 4.63 4.75 4.83 4.97 5.16
1881.110 5.27 5.35 5.45 5.55 5.7 5.81 5.91 6.02 6.08 6.1
1900.403 6.02 5.88 5.68 5.43 5.15 4.84 4.54 4.31 4.19 4.17
1919.696 4.26 4.48 4.71 4.92 5.24 5.61 5.95 6.32 6.7 7.08
1938.990 7.42 7.7 7.91 8.01 8.04 8.04 8.04 8.07 8.06 7.95
1958.283 7.78 7.59 7.33 7.01 6.59 6.07 5.53 4.98 4.38 3.83
1977.577 3.3821 3.0285 2.8176 2.6491 2.5878 2.5904 2.52273 2.47285 2.3866 2.335
1996.870 2.353 2.341 2.34 2.343 2.278 2.244 2.211 2.169 2.192 2.141
2016.164 2.089 2.073 2.05 2.037 2.036 2.046 2.065 2.073 2.035 2.022
2035.457 2.058 2.088 2.111 2.14 2.176 2.193 2.189 2.183 2.214 2.261
2054.750 2.253 2.269 2.296 2.294 2.319 2.3823 2.4511 2.4551 2.49181 2.55794
2074.044 2.6494 2.7242 2.7624 2.8176 2.8694 2.9309 2.9744 2.9858 3.0113 3.0443
2093.337 3.0544 3.0484 3.0022 2.9367 2.8879 2.8256 2.7607 2.6874 2.55879 2.47613
2112.631 2.4053 2.358 2.347 2.287 2.24 2.236 2.205 2.127 2.088 2.058
2131.924 1.993 1.962 1.943 1.901 1.889 1.872 1.832 1.851 1.851 1.811
2151.218 1.804 1.814 1.786 1.735 1.762 1.799 1.806 1.805 1.804 1.838
2170.511 1.89 1.949 2.002 2.065 2.106 2.139 2.194 2.231 2.315 2.3866
2189.804 2.3924 2.4398 2.49992 2.5881 2.7169 2.808 2.8794 2.981 3.0852 3.1578
2209.098 3.2036 3.2332 3.2554 3.2246 3.1568 3.0897 2.9987 2.8778 2.7814 2.6983
2228.391 2.56567 2.4158 2.244 2.064 1.925 1.837 1.756 1.672 1.607 1.542
2247.685 1.531 1.55 1.598 1.629 1.623 1.655 1.648 1.618 1.605 1.588
2266.978 1.581 1.567 1.52 1.493 1.495 1.526 1.516 1.485 1.496 1.496
2286.272 1.482 1.47 1.494 1.5 1.46 1.42 1.42 1.44 1.44 1.44
2305.565 1.46 1.534 1.658 1.842 2.032 2.207 2.281 2.289 2.309 2.272
2324.858 2.206 2.1 1.962 1.842 1.776 1.735 1.756 1.789 1.812 1.883
2344.152 1.89 1.836 1.824 1.817 1.815 1.822 1.745 1.631 1.615 1.629
2363.445 1.559 1.546 1.583 1.569 1.603 1.626 1.631 1.65 1.613 1.587
2382.739 1.581 1.551 1.527 1.532 1.526 1.514 1.495 1.486 1.44 1.36
2402.032 1.37 1.38 1.38 1.38 1.34 1.31 1.3 1.25 1.24 1.26
2421.326 1.25 1.22 1.19 1.19 1.19 1.17 1.14 1.15 1.12 1.03
2440.619 1.05 1.09 1.09 1.07 1.06 1.07 1.05 1.02 1.1 1.1
2459.912 1.03 1.06 1.06 1.03 1.07 1.1 1.09 1.08 1.05 1.08
2479.206 1.16 1.15 1.12 1.12 1.14 1.15 1.16 1.2 1.18 1.15
2498.499 1.17 1.18 1.19 1.17 1.16 1.21 1.2 1.18 1.27 1.28
2517.793 1.22 1.2 1.18 1.22 1.27 1.28 1.29 1.3 1.29 1.26
2537.086 1.28 1.3 1.3 1.29 1.34 1.34 1.33 1.4 1.45 1.48
2556.380 1.43 1.47 1.493 1.46 1.45 1.4 1.44 1.47 1.44 1.45
2575.673 1.47 1.47 1.46 1.504 1.525 1.571 1.694 1.768 1.814 1.889
2594.966 1.924 1.906 1.898 1.921 1.956 1.971 1.948 1.966 1.992 1.965
2614.260 1.937 1.976 2.054 2.094 2.164 2.249 2.311 2.372 2.4365 2.53105
2633.553 2.6538 2.7809 2.904 3.047 3.2091 3.3802 3.54 3.7 3.9 4.04
2652.847 4.19 4.42 4.66 4.92 5.1 5.21 5.3 5.37 5.53 5.7
2672.140 5.79 5.97 6.21 6.43 6.76 7.17 7.58 8 8.48 8.97
2691.434 9.52 10.06 10.59 11.18 11.68 12.12 12.58 12.93 13.24 13.5
2710.727 13.66 13.89 14.15 14.38 14.74 15.14 15.67 16.42 17.45 18.72
2730.020 20.15 21.8 23.44 24.69 25.49 25.87 25.66 24.83 23.49 21.83
2749.314 19.92 17.8 15.8 14.2 12.8 11.55 10.55 9.78 9.11 8.65
2768.607 8.31 8.06 7.94 7.98 8.18 8.37 8.7 9.17 9.86 10.73
2787.901 11.68 12.91 14.35 16.01 18.07 20.42 23.02 25.84 28.78 31.71
2807.194 34.62 37.44 39.88 41.8 43.23 44.17 44.94 45.85 47.15 49.27
2826.488 52.73 58.13 65.83 74.97 82.97 87.22 87.56 85.42 81.16 74.39
2845.781 64.31 51.21 38.02 27.59 20.42 15.55 12.29 10.16 8.58 7.42
2865.074 6.62 5.93 5.39 5.12 4.85 4.57 4.37 4.24 4.03 3.85
2884.368 3.79 3.63 3.52 3.3991 3.2533 3.1484 3.0481 3.0486 3.0118 2.8066
2903.661 2.6286 2.6584 2.6798 2.53489 2.4453 2.48462 2.4546 2.438 2.4335 2.3805
2922.955 2.3837 2.4047 2.304 2.321 2.403 2.4442 2.55071 2.56424 2.641 2.6844
2942.248 2.55763 2.57004 2.6488 2.6667 2.7516 2.8495 2.9902 3.0413 3.1739 3.389
2961.542 3.62 3.94 4.21 4.47 4.66 4.94 5.31 5.55 5.72 5.82
2980.835 6.01 6.27 6.32 6.37 6.39 6.28 6.24 6.29 6.32 6.41
3000.128 6.7 7.19 7.91 8.7 9.59 10.7 11.87 13.14 14.55 16.02
3019.422 17.76 19.61 21.47 23.41 25.26 26.63 27.49 27.89 27.69 27.07
3038.715 26.01 24.51 22.78 21.06 19.75 19.24 19.65 20.89 22.86 25.65
3058.009 29.27 33.56 38.34 43.21 47.58 50.82 52.79 53.72 53.08 50.98
3077.302 47.85 43.93 39.89 36.08 32.63 29.72 27.55 26.04 25.04 24.15
3096.596 23.23 22.28 21.1 19.76 18.25 16.59 14.85 13.23 11.62 10.07
3115.889 8.66 7.4 6.21 5.15 4.43 3.7 3.0421 2.5954 2.326 2.224
3135.182 2.103 2.127 2.155 2.133 2.109 2.024 2.08 2.201 2.172 2.065
3154.476 1.925 1.75 1.494 1.28 1.14 1.03 0.86 0.78 0.78 0.7
3173.769 0.61 0.51 0.59 0.68 0.8 0.72 0.61 0.57 0.62 0.75
3193.063 0.74 0.83 0.79 0.71 0.78 0.84 0.94 1 0.94 0.97
3212.356 1.07 1.11 1.02 0.78 0.71 0.76 0.6 0.43 0.3 0.26
3231.650 0.36 0.39 0.34 0.18 0.12 0.21 0.18 0.08 0.06 0.14
3250.943 0.17 0.25 0.26 0.13 0.11 0.07 0 0.02 0.05 0.06
3270.236 0.04 0.11 0.21 0.19 0.1 0.12 0.22 0.1 0.17 0.31
3289.530 0.15 0.12 0.18 0.28 0.28 0.26 0.38 0.34 0.3 0.37
3308.823 0.35 0.31 0.35 0.48 0.59 0.57 0.53 0.48 0.53 0.65
3328.117 0.66 0.53 0.5 0.58 0.64 0.73 0.73 0.75 0.62 0.57
3347.410 0.6 0.58 0.65 0.61 0.56 0.58 0.65 0.68 0.59 0.5
3366.704 0.65 0.88 0.81 0.67 0.69 0.83 0.91 0.99 1.01 1.07
3385.997 1.3 1.47 1.46 1.525 1.734 1.882 2.113 2.4664 2.8554 3.2686
3405.290 3.86 4.66 5.55 6.4 7.37 8.43 9.5 10.32 10.83 11.08
3424.584 10.91 10.42 9.64 8.51 7.14 5.8 4.6 3.68 3.186 2.8381
3443.877 2.3957 2.056 1.96 1.921 1.863 1.807 1.582 1.43 1.44 1.42
3463.171 1.3 1.24 1.25 1.1 1.13 1.26 1.26 1.13 1.08 1.14
3482.464 1.15 1.11 1.11 1.13 1.13 1.2 1.12 1.09 1.1 1.06
3501.758 1.02 0.91 0.88 0.85 0.83 0.91 1.02 1.08 1.06 0.99
3521.051 0.95 0.98 0.99 0.97 1 1.05 1.03 0.91 0.78 0.94
3540.344 1.04 0.97 1.01 1.05 1 0.9 0.88 0.83 0.75 0.76
3559.638 0.92 0.97 0.99 1.04 0.97 0.92 0.98 1.05 1.07 0.95
3578.931 0.91 0.92 0.84 0.88 0.92 0.82 0.93 1.07 0.98 0.96
3598.225 1.04 1.17 1.2 1.13 1.08 1.05 1.08 1.09 1.06 1.08
3617.518 1.17 1.14 1.03 1.1 1.21 1.26 1.24 1.25 1.28 1.35
3636.812 1.42 1.44 1.552 1.535 1.504 1.595 1.527 1.508 1.59 1.485
3656.105 1.39 1.42 1.46 1.532 1.551 1.43 1.38 1.37 1.39 1.47
3675.398 1.507 1.542 1.46 1.481 1.43 1.35 1.42 1.35 1.38 1.488
3694.692 1.516 1.588 1.649 1.639 1.675 1.662 1.638 1.672 1.678 1.625
3713.985 1.567 1.508 1.51 1.57 1.551 1.537 1.504 1.48 1.47 1.4
3733.279 1.33 1.28 1.3 1.3 1.28 1.3 1.21 1.15 1.17 1.17
3752.572 1.25 1.36 1.34 1.27 1.29 1.35 1.36 1.34 1.38 1.35
3771.866 1.24 1.27 1.27 1.14 1.15 1.3 1.36 1.36 1.3 1.22
3791.159 1.29 1.27 1.19 1.27 1.34 1.25 1.24 1.24 1.08 1.12
3810.452 1.27 1.2 1.22 1.28 1.25 1.24 1.17 1.2 1.34 1.31
3829.746 1.22 1.28 1.22 1.19 1.28 1.3 1.3 1.29 1.25 1.23
3849.039 1.19 1.16 1.14 1.13 1.16 1.1 1.12 1.23 1.23 1.24
3868.333 1.36 1.25 1.25 1.4 1.28 1.29 1.38 1.43 1.38 1.25
3887.626 1.33 1.516 1.498 1.516 1.644 1.601 1.559 1.587 1.581 1.586
3906.920 1.558 1.49 1.507 1.56 1.531 1.44 1.39 1.4 1.45 1.45
3926.213 1.47 1.505 1.483 1.45 1.39 1.36 1.36 1.35 1.43 1.45
3945.506 1.38 1.38 1.44 1.489 1.483 1.41 1.35 1.42 1.45 1.35
3964.800 1.37 1.41 1.35 1.41 1.45 1.44 1.44 1.39 1.38 1.35
3984.093 1.31 1.34 1.31 1.28 1.36 1.44 1.45 1.4 1.45
##END=
