##TITLE=Octadecylamine hydrochloride
##JCAMP-DX=4.24
##DATA TYPE=INFRARED SPECTRUM
##ORIGIN=EPA-IR VAPOR PHASE LIBRARY
##OWNER=SRD/NIST
Collection (C) 2018 copyright by the U.S. Secretary of Commerce
on behalf of the United States of America. All rights reserved.
##CAS REGISTRY NO=1838-08-0
##MOLFORM=C18 H40 Cl N
##$NIST SOURCE=MSDC-IR
##STATE=gas
##XUNITS=1/CM
##YUNITS=ABSORBANCE
##XFACTOR=1.
##YFACTOR=0.001
##DELTAX=1.92898
##FIRSTX=549.8
##LASTX=4000.7
##FIRSTY=0.364441
##MAXX=4000.7
##MINX=549.759
##MAXY=0.054593
##MINY=0
##NPOINTS=1790
##XYDATA=(X++(Y..Y))
549.759 0.364441 0.377 0.5792 0.687 0.6524 0.45489 0.6351 0.8276 0.704 0.6335
569.049 0.46197 0.2741 0.249 0.41275 0.653 0.5343 0.5057 0.473 0.42367 0.5239
588.339 0.7849 1.0217 0.7957 0.5139 0.41949 0.6753 0.5887 0.349 0.5223 0.45981
607.628 0.39683 0.5757 0.6377 0.4747 0.46093 0.6575 0.77 0.8236 0.6643 0.6203
626.918 0.6934 0.7095 0.777 0.8637 0.7801 0.8101 0.8591 0.5968 0.4932 0.6458
646.208 0.6449 0.6053 0.6321 0.6794 0.815 0.6966 0.7324 0.8217 0.7837 0.9898
665.498 1.0563 0.7792 0.5456 0.7125 1.0455 1.0141 0.9621 1.0851 1.0652 0.9291
684.787 0.9218 0.9781 0.9755 1.1143 1.136 1.1125 1.2776 1.3497 1.403 1.473
704.077 1.473 1.483 1.433 1.553 1.623 1.563 1.763 1.993 1.903 1.783
723.367 2.043 2.343 2.273 2.053 1.923 2.133 2.423 2.453 2.423 2.323
742.657 2.473 2.903 2.883 2.733 2.663 2.753 2.853 2.913 3.063 3.003
761.947 3.083 3.073 3.173 3.353 3.063 2.923 3.063 2.933 2.953 2.893
781.236 2.753 2.773 2.723 2.673 2.443 2.553 2.503 2.173 1.983 1.633
800.526 1.603 1.723 1.813 1.793 1.433 1.423 1.633 1.483 1.2249 1.1854
819.816 1.2392 1.2722 1.25 1.3573 1.423 1.3134 1.3587 1.2661 1.1669 1.3329
839.106 1.2007 0.9186 0.7416 0.7506 0.9418 0.883 0.8627 0.8946 0.8926 0.9499
858.395 1.0239 1.0109 0.7667 0.5643 0.39234 0.43255 0.786 0.8726 0.6948 0.5621
877.685 0.41189 0.3096 0.5313 0.5907 0.5814 0.6241 0.6545 0.7359 0.7268 0.6943
896.975 0.5879 0.5702 0.7184 0.8477 0.7099 0.5639 0.5339 0.5362 0.7367 0.909
916.265 0.7185 0.6639 0.7347 0.6103 0.7286 0.8004 0.7011 0.7321 0.7182 0.7183
935.555 0.6241 0.5745 0.6475 0.7457 0.7159 0.7089 0.8305 0.7845 0.4768 0.44593
954.844 0.6135 0.585 0.5912 0.5021 0.4725 0.45237 0.38797 0.41748 0.46257 0.4804
974.134 0.6163 0.8134 0.7119 0.44172 0.4903 0.6176 0.5816 0.5284 0.4753 0.40555
993.424 0.3889 0.40257 0.363859 0.2778 0.4704 0.7423 0.8771 1.0754 0.7526 0.6365
1012.714 0.8499 0.6717 0.6507 0.7035 0.5522 0.43128 0.6047 0.6129 0.5467 0.7177
1032.003 0.8477 0.7528 0.5095 0.42548 0.4736 0.5261 0.44081 0.5731 0.6375 0.633
1051.293 0.6088 0.5875 0.8013 0.8385 1.0918 1.095 0.7715 1.0413 1.0311 0.8838
1070.583 0.9488 0.9959 1.1553 1.0627 1.1678 1.0032 0.7104 0.6575 0.8676 0.7455
1089.873 0.5111 1.0952 1.0804 0.8257 0.5576 0.5058 0.9802 0.9321 0.8272 1.0716
1109.163 0.7715 0.3408 0.236 0.2668 0.6879 0.599 0.38502 0.3333 0.123 0.17
1128.452 0.155 0.22 0.117 0.102 0.41299 0.276 0.193 0.3101 0.3159 0.262
1147.742 0.2799 0.41704 0.2993 0.42053 0.508 0.2823 0.6006 0.8894 0.6088 0.2816
1167.032 0.243 0.2868 0.262 0.311 0.6208 0.9793 0.9143 0.5895 0.2955 0.39946
1186.322 0.4959 0.5057 0.5038 0.3884 0.517 0.7063 0.5083 0.205 0.39269 0.5335
1205.611 0.5625 0.6808 0.6965 0.7445 0.7333 0.7846 1.0535 1.0394 0.6349 0.5083
1224.901 0.8959 0.8262 0.5398 0.6925 0.7827 0.8131 0.7237 0.6358 0.8077 0.8733
1244.191 0.8951 0.9086 0.7821 0.7962 0.807 0.8123 0.8831 0.6157 0.44097 0.7332
1263.481 0.7913 0.5623 0.5396 0.5887 0.7616 1.0895 1.1206 1.0124 0.9546 0.9417
1282.771 0.9974 1.102 1.1384 1.0865 1.092 1.1847 1.2486 1.1366 1.1193 1.1524
1302.060 1.1286 1.1011 1.1098 1.2163 1.2487 1.1902 1.1671 1.1575 1.141 1.1404
1321.350 1.1807 1.1446 1.1336 1.1799 1.1823 1.1606 1.2003 1.3013 1.3082 1.3397
1340.640 1.453 1.553 1.663 1.763 1.803 1.833 1.883 1.943 1.923 1.883
1359.930 1.883 1.863 1.753 1.693 1.723 1.643 1.563 1.533 1.493 1.493
1379.219 1.503 1.473 1.423 1.423 1.3557 1.2602 1.18 1.1403 1.1458 1.15
1398.509 1.1082 0.9938 0.8809 0.882 0.9273 0.9186 0.9157 0.8838 0.8664 0.8559
1417.799 0.903 0.9664 0.9666 0.936 0.9551 1.0124 1.0721 1.1536 1.1946 1.2977
1437.089 1.503 1.673 1.823 2.023 2.243 2.413 2.593 2.773 2.943 3.163
1456.378 3.313 3.443 3.553 3.563 3.533 3.393 3.153 2.903 2.613 2.323
1475.668 2.093 1.823 1.633 1.463 1.2787 1.1476 1.0159 0.9492 0.8901 0.8009
1494.958 0.7752 0.6983 0.6739 0.6991 0.6947 0.6556 0.6013 0.5819 0.5709 0.5589
1514.248 0.5598 0.5624 0.5855 0.6446 0.6107 0.5524 0.5237 0.4716 0.43924 0.4945
1533.538 0.5677 0.5388 0.5074 0.4992 0.41632 0.39641 0.43422 0.42623 0.43164 0.44609
1552.827 0.43832 0.39235 0.38679 0.45347 0.5015 0.5064 0.5144 0.5023 0.45572 0.4978
1572.117 0.5665 0.5361 0.41299 0.44435 0.5623 0.5573 0.5213 0.5172 0.6306 0.7286
1591.407 0.714 0.665 0.6806 0.7379 0.7553 0.8096 0.8472 0.8788 0.8127 0.8429
1610.697 1.0155 1.0665 1.0957 1.207 1.2203 1.1643 1.1566 1.248 1.2585 1.1153
1629.986 1.0473 0.9362 0.9046 0.9204 0.8999 0.9164 0.9173 0.8095 0.6907 0.6623
1649.276 0.622 0.5848 0.5563 0.5697 0.596 0.5927 0.5808 0.538 0.5244 0.5293
1668.566 0.4908 0.496 0.5563 0.5357 0.5593 0.6046 0.6057 0.5687 0.4765 0.5724
1687.856 0.6087 0.5317 0.4832 0.4681 0.5436 0.5856 0.4806 0.4857 0.5633 0.4947
1707.146 0.4632 0.4817 0.45771 0.515 0.5429 0.43762 0.4683 0.4677 0.4706 0.4537
1726.435 0.3414 0.372388 0.49 0.4804 0.41824 0.496 0.5533 0.5427 0.5035 0.5034
1745.725 0.5071 0.4894 0.5116 0.4739 0.4884 0.4844 0.4965 0.5638 0.5524 0.5141
1765.015 0.4525 0.4707 0.44714 0.39977 0.46058 0.45583 0.44217 0.42408 0.4071 0.41596
1784.305 0.40494 0.42575 0.44354 0.4375 0.45101 0.4821 0.4823 0.4726 0.45773 0.41305
1803.594 0.36712 0.4096 0.3598 0.2948 0.42122 0.4633 0.43789 0.43025 0.44491 0.4637
1822.884 0.4785 0.4809 0.41207 0.40418 0.369358 0.38641 0.4747 0.43968 0.43486 0.4765
1842.174 0.4139 0.38019 0.38609 0.368611 0.40745 0.43861 0.42668 0.45912 0.4835 0.4815
1861.464 0.4742 0.4288 0.40402 0.42177 0.43152 0.366917 0.3305 0.371041 0.41396 0.38837
1880.754 0.369693 0.44105 0.4917 0.4689 0.39459 0.38821 0.37553 0.371796 0.365884 0.35713
1900.043 0.370911 0.41136 0.42728 0.3513 0.372909 0.38373 0.35955 0.36117 0.39552 0.46073
1919.333 0.42945 0.3525 0.3474 0.3519 0.362548 0.372031 0.35458 0.3116 0.3399 0.365935
1938.623 0.372785 0.37804 0.3296 0.2945 0.2696 0.3513 0.39235 0.367804 0.3313 0.2981
1957.913 0.362509 0.38662 0.40131 0.41507 0.37971 0.42684 0.43069 0.3435 0.37528 0.43791
1977.202 0.45292 0.4752 0.45912 0.40098 0.38242 0.3935 0.4125 0.43077 0.39838 0.42652
1996.492 0.4811 0.45392 0.38914 0.44341 0.46189 0.43267 0.4277 0.40431 0.40054 0.42527
2015.782 0.43685 0.40063 0.44967 0.39306 0.3358 0.37744 0.40736 0.4283 0.411 0.38847
2035.072 0.40632 0.45774 0.5048 0.5164 0.4951 0.5013 0.43928 0.38744 0.46092 0.4293
2054.362 0.38248 0.43191 0.43705 0.4881 0.4064 0.3235 0.42715 0.4978 0.4958 0.43021
2073.651 0.40819 0.39741 0.36185 0.39064 0.44813 0.41784 0.35402 0.3298 0.37306 0.46274
2092.941 0.4767 0.41921 0.42247 0.38519 0.3609 0.40144 0.362054 0.3388 0.40007 0.41187
2112.231 0.36498 0.39008 0.43169 0.45794 0.4677 0.41943 0.37637 0.36068 0.372667 0.43757
2131.521 0.40988 0.4069 0.45963 0.468 0.45665 0.41537 0.40053 0.40144 0.46173 0.5009
2150.810 0.44361 0.38859 0.40634 0.41886 0.41415 0.39949 0.37804 0.38626 0.38233 0.40454
2170.100 0.38935 0.370903 0.40896 0.44564 0.4652 0.46274 0.4339 0.38959 0.4153 0.46004
2189.390 0.44244 0.37768 0.3158 0.38542 0.43673 0.35905 0.37642 0.4944 0.5117 0.4874
2208.680 0.494 0.4824 0.4604 0.37807 0.40404 0.464 0.40286 0.39752 0.372868 0.369859
2227.970 0.46026 0.4916 0.43712 0.39755 0.44297 0.44566 0.365251 0.38307 0.40705 0.43027
2247.259 0.4682 0.39513 0.41002 0.4653 0.44743 0.42684 0.38593 0.37728 0.40769 0.4255
2266.549 0.45212 0.4525 0.42628 0.39748 0.35957 0.37903 0.368893 0.364722 0.4077 0.44497
2285.839 0.38912 0.35589 0.407 0.4834 0.5589 0.6047 0.5931 0.5294 0.5171 0.44892
2305.129 0.4743 0.4896 0.4872 0.5574 0.5691 0.484 0.38624 0.38717 0.4639 0.4943
2324.418 0.41845 0.41656 0.4735 0.5308 0.5463 0.515 0.5172 0.5015 0.43729 0.367138
2343.708 0.3482 0.329 0.4176 0.5044 0.43674 0.43123 0.4729 0.492 0.44502 0.38946
2362.998 0.41882 0.36005 0.364693 0.4739 0.46021 0.4734 0.4785 0.5014 0.4808 0.36007
2382.288 0.3223 0.370508 0.4005 0.38993 0.41306 0.45742 0.5253 0.5125 0.44683 0.46019
2401.578 0.41178 0.38416 0.39265 0.40172 0.4645 0.4938 0.41095 0.3511 0.44161 0.4643
2420.867 0.4665 0.4958 0.5162 0.5429 0.44669 0.35675 0.42676 0.45248 0.40368 0.41373
2440.157 0.42004 0.45787 0.45361 0.36146 0.3414 0.40431 0.41024 0.365245 0.41848 0.45217
2459.447 0.40047 0.38397 0.39704 0.40138 0.44327 0.5155 0.4817 0.37693 0.40771 0.4159
2478.737 0.40225 0.40299 0.35856 0.366601 0.42509 0.42054 0.42156 0.5227 0.5601 0.5027
2498.026 0.479 0.5203 0.49 0.5295 0.556 0.4647 0.4942 0.5575 0.4832 0.41049
2517.316 0.5051 0.5521 0.4872 0.4729 0.4695 0.4547 0.43673 0.5005 0.5195 0.5132
2536.606 0.5302 0.4871 0.5195 0.488 0.5172 0.5927 0.53 0.5042 0.5405 0.5504
2555.896 0.5399 0.5867 0.5967 0.6546 0.706 0.6263 0.6276 0.5569 0.4683 0.488
2575.186 0.5916 0.6996 0.7137 0.7234 0.648 0.5466 0.5558 0.5457 0.5267 0.5869
2594.475 0.6188 0.5281 0.5267 0.616 0.6644 0.6553 0.5462 0.5862 0.6465 0.6516
2613.765 0.663 0.6885 0.7179 0.7466 0.6893 0.6498 0.7257 0.7496 0.7607 0.7484
2633.055 0.7704 0.8611 0.8322 0.6982 0.6754 0.7356 0.8 0.8662 0.851 0.8192
2652.345 0.8123 0.8655 0.8609 0.8074 0.812 0.8648 0.8411 0.8239 0.9067 0.8955
2671.634 0.9516 0.9668 0.7848 0.734 0.888 0.8244 0.8567 0.9167 0.8559 0.8942
2690.924 1.0092 0.9578 0.7785 0.8245 0.9291 0.9957 0.9536 0.9771 1.0041 0.8893
2710.214 0.8255 0.852 0.8918 0.8725 0.8459 0.8731 0.9218 0.98 0.9774 0.862
2729.504 0.8968 1.0454 1.0988 1.0154 0.9561 1.0821 1.1691 1.1592 1.0667 0.9681
2748.794 0.9727 1.0271 1.1032 1.1331 1.0859 1.1289 1.1538 1.1174 1.1607 1.1677
2768.083 1.217 1.2952 1.2977 1.3624 1.363 1.2926 1.3533 1.383 1.3461 1.383
2787.373 1.463 1.543 1.633 1.693 1.613 1.573 1.613 1.653 1.723 1.903
2806.663 2.043 1.993 2.043 2.123 2.193 2.413 2.603 2.753 2.913 2.953
2825.953 3.033 3.293 3.523 3.733 3.963 4.323 4.773 5.093 5.633 6.453
2845.242 7.223 8.193 9.453 11.023 12.873 14.953 17.013 18.873 20.443 20.923
2864.532 20.323 19.343 18.063 16.603 15.223 13.873 12.793 11.973 11.273 10.753
2883.822 10.353 10.073 10.053 9.983 10.083 10.323 10.573 11.213 11.953 12.833
2903.112 13.893 15.033 16.463 18.053 19.583 21.353 23.373 25.793 28.793 32.443
2922.401 36.583 41.093 45.973 50.313 53.343 54.593 53.603 50.953 47.303 43.063
2941.691 38.333 33.563 29.373 25.603 22.173 19.343 17.123 15.403 14.183 13.133
2960.981 12.373 11.883 11.453 11.073 10.473 9.663 8.763 7.753 6.923 6.163
2980.271 5.403 4.783 4.323 3.923 3.593 3.273 3.153 3.013 2.713 2.583
2999.561 2.433 2.263 2.263 2.193 2.063 1.883 1.753 1.803 1.743 1.663
3018.850 1.543 1.3563 1.3208 1.3456 1.403 1.533 1.513 1.3142 1.2389 1.2712
3038.140 1.2177 1.1487 1.0918 0.9801 1.0034 1.0538 0.9527 1.0623 1.1456 1.0393
3057.430 0.8815 0.8126 0.9354 1.0046 0.8629 0.6143 0.5999 0.8638 0.8714 0.7819
3076.720 0.8428 0.7986 0.7354 0.7329 0.8379 0.8555 0.7214 0.6054 0.6235 0.819
3096.009 0.8166 0.6901 0.5811 0.6278 0.732 0.7185 0.7431 0.6064 0.5621 0.6051
3115.299 0.713 0.7478 0.7284 0.6806 0.5281 0.538 0.5201 0.4817 0.5034 0.5987
3134.589 0.6689 0.6739 0.5431 0.5532 0.5531 0.45105 0.5818 0.6368 0.5614 0.4718
3153.879 0.4843 0.5466 0.5892 0.5599 0.6116 0.766 0.6686 0.5588 0.6061 0.7787
3173.169 0.7319 0.6291 0.6695 0.5243 0.5261 0.6426 0.5775 0.43759 0.40255 0.5778
3192.458 0.6977 0.4784 0.3155 0.3033 0.3291 0.2842 0.3245 0.38983 0.2955 0.43421
3211.748 0.4751 0.44879 0.40204 0.3399 0.46166 0.524 0.5321 0.5419 0.5089 0.4741
3231.038 0.5286 0.43844 0.38517 0.3183 0.155 0.2929 0.4702 0.37543 0.39881 0.616
3250.328 0.5789 0.5754 0.6195 0.5534 0.6139 0.5299 0.371638 0.215 0.2693 0.43927
3269.617 0.4349 0.42668 0.371107 0.43267 0.4647 0.4364 0.5686 0.4981 0.44329 0.43082
3288.907 0.3393 0.42164 0.3582 0.214 0.223 0.226 0.237 0.5362 0.7308 0.7194
3308.197 0.7693 0.6624 0.343 0.256 0.38648 0.5025 0.5314 0.370202 0.43985 0.6407
3327.487 0.6885 0.7235 0.545 0.576 0.7126 0.584 0.5402 0.518 0.4446 0.3351
3346.777 0.42066 0.57 0.6946 0.5997 0.38584 0.3419 0.33 0.43455 0.5419 0.4723
3366.066 0.4887 0.5807 0.7184 0.7277 0.372779 0.175 0.303 0.4625 0.66 0.5017
3385.356 0.2936 0.39361 0.368952 0.5094 0.6316 0.44471 0.417 0.42217 0.366867 0.39488
3404.646 0.3317 0.3426 0.38314 0.303 0.367753 0.5541 0.39157 0.2815 0.5375 0.5517
3423.936 0.3376 0.38886 0.42266 0.37307 0.38931 0.372815 0.4914 0.5859 0.5216 0.4891
3443.225 0.48 0.37002 0.37154 0.40795 0.40017 0.4986 0.44338 0.3211 0.44765 0.2958
3462.515 0.253 0.40503 0.40069 0.45689 0.2853 0.369984 0.4645 0.4065 0.4833 0.5324
3481.805 0.4735 0.36023 0.39988 0.45507 0.4926 0.519 0.5438 0.43987 0.38832 0.41969
3501.095 0.4684 0.42517 0.40628 0.3252 0.225 0.3003 0.2881 0.3314 0.4721 0.5462
3520.385 0.506 0.38381 0.37707 0.40091 0.41286 0.3146 0.205 0.232 0.2 0.329
3539.674 0.255 0.095 0.26 0.256 0.22 0.2685 0.147 0.095 0.189 0.3554
3558.964 0.2684 0.2998 0.4928 0.4965 0.35373 0.3076 0.4427 0.42779 0.44029 0.511
3578.254 0.6487 0.4873 0.3439 0.37414 0.22 0.262 0.45971 0.6395 0.3095 0.151
3597.544 0.37619 0.2728 0.239 0.318 0.38923 0.257 0.247 0.35356 0.3358 0.38276
3616.833 0.3 0.3233 0.3127 0.3293 0.5393 0.6092 0.6241 0.5194 0.41059 0.4795
3636.123 0.43918 0.36004 0.5245 0.6485 0.5731 0.43267 0.3303 0.40889 0.4006 0.5626
3655.413 0.5464 0.4898 0.662 0.614 0.4798 0.41745 0.561 0.46173 0.148 0.028
3674.703 0 0.368797 0.6243 0.3333 0.2913 0.41998 0.41363 0.2935 0.3446 0.476
3693.993 0.4206 0.4498 0.2863 0.247 0.4681 0.43945 0.293 0.42629 0.5592 0.477
3713.282 0.5683 0.556 0.43821 0.4813 0.44565 0.3181 0.40859 0.4759 0.505 0.5408
3732.572 0.45792 0.362943 0.2878 0.262 0.207 0.365783 0.6791 0.7268 0.518 0.333
3751.862 0.46298 0.6059 0.5772 0.5993 0.40696 0.3266 0.43395 0.5982 0.595 0.5282
3771.152 0.44132 0.3529 0.38749 0.39076 0.45035 0.23 0.2691 0.38387 0.36094 0.41721
3790.441 0.475 0.6225 0.7091 0.5739 0.41212 0.2706 0.3192 0.5865 0.4683 0.195
3809.731 0.344 0.43714 0.364488 0.44364 0.43182 0.44801 0.5498 0.371405 0.3209 0.42195
3829.021 0.42537 0.4657 0.43245 0.41587 0.42931 0.3375 0.37422 0.5064 0.44753 0.365219
3848.311 0.196 0.18 0.2795 0.3345 0.2963 0.17 0.174 0.195 0.5038 0.7886
3867.601 0.6676 0.5611 0.5673 0.39215 0.3227 0.364064 0.2855 0.185 0.166 0.144
3886.890 0.165 0.2646 0.191 0.242 0.218 0.195 0.45948 0.6355 0.7162 0.687
3906.180 0.5793 0.4713 0.299 0.2732 0.476 0.5279 0.2804 0.213 0.2683 0.2767
3925.470 0.3212 0.197 0.25 0.40871 0.42464 0.35584 0.4033 0.2723 0.226 0.326
3944.760 0.364717 0.4712 0.294 0.131 0.144 0.209 0.096 0.35544 0.5427 0.40922
3964.049 0.3503 0.39664 0.5415 0.44137 0.226 0.5683 0.7176 0.5882 0.5223 0.259
3983.339 0.3387 0.6405 0.6496 0.4194 0.5809 0.6692 0.40892 0.4666 0.6034 0.36817
##END=
