##TITLE=3-Methyl-4-heptanol
##JCAMP-DX=4.24
##DATA TYPE=INFRARED SPECTRUM
##ORIGIN=NIST Mass Spectrometry Data Center
##OWNER=NIST Standard Reference Data Program
Collection (C) 2018 copyright by the U.S. Secretary of Commerce
on behalf of the United States of America. All rights reserved.
##CAS REGISTRY NO=1838-73-9
##MOLFORM=C 8 H 18 O
##$NIST SOURCE=MSDC-IR
##SPECTROMETER/DATA SYSTEM=HP-GC/MS/IRD
##STATE=gas
##XUNITS=1/CM
##YUNITS=ABSORBANCE
##XFACTOR=1.0
##YFACTOR=0.000001700
##DELTAX=4.0
##FIRSTX=550.0
##LASTX=3846.0
##FIRSTY=0.000498
##MAXX=3846
##MINX=550
##MAXY=0.017
##MINY=0
##NPOINTS=825
##XYDATA=(X++(Y..Y))
550.0 293 110 55 136 127 118 106 59 64 64
590.0 30 61 78 98 62 39 81 84 64 43
630.0 78 76 19 25 42 68 83 92 75 42
670.0 13 17 59 63 64 64 50 46 59 77
710.0 69 63 64 51 68 84 58 64 108 136
750.0 145 156 180 175 184 221 246 262 258 246
790.0 243 220 208 215 198 193 219 233 228 234
830.0 255 290 350 382 382 381 367 341 306 288
870.0 275 273 288 274 264 312 356 364 348 338
910.0 319 294 301 275 274 304 326 409 514 600
950.0 702 791 855 921 984 1058 1155 1277 1425 1566
990.0 1667 1729 1743 1694 1603 1491 1345 1185 1028 887
1030.0 782 722 657 632 637 673 718 746 759 768
1070.0 785 811 841 848 865 894 916 918 924 939
1110.0 947 945 933 920 922 937 920 912 929 898
1150.0 845 800 699 608 555 537 523 490 486 513
1190.0 530 558 616 678 732 769 789 804 805 781
1230.0 774 757 744 743 754 766 766 766 778 782
1270.0 775 760 728 699 667 633 608 579 558 555
1310.0 536 524 527 524 535 551 546 545 577 615
1350.0 647 692 747 818 934 1080 1216 1352 1451 1456
1390.0 1372 1210 1018 826 684 599 532 487 474 481
1430.0 514 567 640 741 876 1043 1209 1375 1471 1474
1470.0 1389 1207 1003 794 610 462 371 314 265 208
1510.0 184 186 179 174 161 154 142 116 108 117
1550.0 116 116 91 96 101 89 97 101 107 101
1590.0 77 77 89 77 84 89 69 64 79 81
1630.0 83 77 73 73 65 48 49 71 70 60
1670.0 56 52 64 63 47 55 50 37 55 64
1710.0 53 44 35 56 71 52 42 55 54 42
1750.0 33 40 40 29 30 38 41 45 41 30
1790.0 27 40 44 44 39 26 31 42 38 32
1830.0 29 23 27 30 31 39 44 41 33 39
1870.0 41 35 35 38 43 38 37 37 27 29
1910.0 28 26 24 33 37 25 39 35 17 18
1950.0 25 38 48 47 34 27 31 28 33 32
1990.0 29 29 27 30 33 41 46 42 40 33
2030.0 30 32 24 22 27 35 32 35 35 29
2070.0 27 27 34 39 36 32 25 28 36 28
2110.0 15 9 19 24 21 21 25 30 10 4
2150.0 27 28 31 39 36 43 41 28 29 30
2190.0 26 18 15 27 27 16 22 21 16 22
2230.0 19 20 24 26 16 10 9 20 21 15
2270.0 24 28 28 30 31 32 36 39 30 32
2310.0 39 46 52 50 48 52 53 41 42 53
2350.0 57 53 54 62 63 53 39 40 54 56
2390.0 52 45 42 53 59 52 50 51 56 66
2430.0 63 46 37 51 72 66 58 73 68 52
2470.0 64 68 58 57 61 61 56 56 64 63
2510.0 52 47 42 49 58 62 55 57 65 71
2550.0 78 71 72 86 89 90 102 119 116 109
2590.0 105 106 125 133 136 140 131 125 134 136
2630.0 132 129 128 134 135 132 136 156 164 168
2670.0 179 170 166 172 176 178 171 181 199 207
2710.0 200 210 211 209 236 252 264 283 291 294
2750.0 307 314 304 294 292 289 302 308 331 352
2790.0 363 384 402 437 462 488 527 571 626 684
2830.0 785 907 1042 1214 1428 1681 1977 2338 2758 3244
2870.0 3806 4416 4960 5292 5398 5275 4984 4660 4458 4451
2910.0 4615 4900 5273 5724 6209 6707 7149 7419 7469 7391
2950.0 7361 7575 8207 9145 9893 10000 9319 7912 6160 4537
2990.0 3275 2393 1804 1421 1172 999 847 759 704 649
3030.0 588 551 540 520 474 428 394 377 354 316
3070.0 302 311 304 286 281 275 257 241 241 240
3110.0 234 220 198 197 181 163 170 164 153 145
3150.0 141 144 154 143 140 142 135 144 122 109
3190.0 112 95 100 99 94 66 32 39 42 48
3230.0 50 44 44 35 31 28 22 17 18 27
3270.0 38 19 26 59 50 15 8 28 32 31
3310.0 20 28 53 42 11 11 23 22 40 30
3350.0 4 0 2 9 11 17 17 16 41 61
3390.0 56 51 42 30 31 44 30 42 52 49
3430.0 71 65 42 31 37 65 81 71 49 38
3470.0 58 77 76 78 61 42 68 80 47 31
3510.0 41 40 38 23 7 33 32 45 46 32
3550.0 52 54 54 41 31 66 83 76 80 70
3590.0 55 61 71 64 51 75 97 104 145 164
3630.0 182 231 297 379 440 503 561 575 531 452
3670.0 378 299 216 165 135 114 113 101 87 85
3710.0 74 47 58 63 39 48 34 43 41 12
3750.0 27 35 27 31 22 34 54 43 63 80
3790.0 62 60 62 56 55 71 70 41 58 53
3830.0 30 31 11 10 66
##END=
