##TITLE=cis,cis,cis-1,2,3-Trimethylcyclohexane
##JCAMP-DX=4.24
##DATA TYPE=INFRARED SPECTRUM
##ORIGIN=NIST Mass Spectrometry Data Center
##OWNER=NIST Standard Reference Data Program
Collection (C) 2018 copyright by the U.S. Secretary of Commerce
on behalf of the United States of America. All rights reserved.
##CAS REGISTRY NO=1839-88-9
##MOLFORM=C 9 H 18
##$NIST SOURCE=MSDC-IR
##SPECTROMETER/DATA SYSTEM=HP-GC/MS/IRD
##STATE=gas
##XUNITS=1/CM
##YUNITS=ABSORBANCE
##XFACTOR=1.0
##YFACTOR=0.000005400
##DELTAX=4.0
##FIRSTX=550.0
##LASTX=3846.0
##FIRSTY=0.000302
##MAXX=3846
##MINX=550
##MAXY=0.054
##MINY=0
##NPOINTS=825
##XYDATA=(X++(Y..Y))
550.0 56 32 30 28 29 35 50 83 90 90
590.0 76 54 48 29 26 36 33 24 18 14
630.0 4 5 15 19 19 13 6 9 3 6
670.0 17 22 23 20 34 33 26 27 27 20
710.0 14 18 26 36 38 33 37 29 16 16
750.0 23 20 11 12 24 24 18 17 16 16
790.0 16 20 19 27 35 32 37 49 56 71
830.0 80 78 75 66 57 53 44 36 34 35
870.0 34 43 49 46 46 42 40 39 42 42
910.0 47 53 62 78 88 92 103 116 128 131
950.0 134 136 135 138 141 143 140 134 126 115
990.0 109 110 108 106 111 130 153 165 174 175
1030.0 172 179 203 228 243 251 238 210 170 119
1070.0 83 64 49 37 35 40 39 40 45 49
1110.0 57 64 59 55 53 51 53 58 82 122
1150.0 162 191 205 199 178 149 107 76 61 55
1190.0 56 50 42 42 40 42 46 50 53 54
1230.0 58 64 72 75 71 72 80 75 64 56
1270.0 47 45 48 51 56 65 70 78 94 101
1310.0 102 110 114 114 116 121 124 127 136 158
1350.0 195 240 293 367 482 622 766 897 953 970
1390.0 873 645 468 336 231 174 156 166 195 243
1430.0 323 435 578 729 878 1026 1169 1245 1182 1065
1470.0 953 791 613 452 321 226 163 124 101 87
1510.0 76 67 56 47 41 39 38 38 36 33
1550.0 31 31 31 32 37 40 41 42 41 41
1590.0 43 45 44 45 46 45 44 42 39 36
1630.0 38 40 36 32 30 30 26 27 32 30
1670.0 28 31 27 25 26 28 27 26 23 19
1710.0 19 18 19 19 15 13 17 17 17 17
1750.0 15 13 13 12 9 13 14 11 13 12
1790.0 10 9 10 8 8 9 8 8 7 6
1830.0 8 8 10 12 13 12 10 7 5 5
1870.0 6 7 9 9 6 5 5 4 5 7
1910.0 7 5 3 3 4 6 7 6 4 3
1950.0 4 4 3 3 4 4 3 4 1 2
1990.0 4 5 4 5 6 6 3 3 2 4
2030.0 6 4 3 2 2 3 2 3 3 0
2070.0 0 2 4 3 2 4 5 6 6 5
2110.0 3 4 7 4 4 5 8 7 5 5
2150.0 3 5 6 7 6 6 8 6 6 9
2190.0 9 7 3 1 3 4 3 6 7 2
2230.0 1 4 6 6 7 6 4 6 9 9
2270.0 11 11 12 14 14 12 13 18 20 17
2310.0 15 17 19 22 20 20 22 22 19 16
2350.0 19 20 20 22 26 29 28 27 27 27
2390.0 27 29 26 23 23 19 19 20 19 18
2430.0 20 23 26 28 26 28 27 27 28 32
2470.0 32 30 31 32 33 35 36 33 30 30
2510.0 32 32 31 33 33 31 34 40 42 41
2550.0 43 43 45 46 46 49 54 61 71 80
2590.0 85 92 99 103 109 115 122 125 126 131
2630.0 135 136 138 142 147 153 158 161 166 170
2670.0 166 160 154 148 144 140 137 139 143 150
2710.0 158 168 177 187 194 195 192 185 179 174
2750.0 174 172 167 167 174 181 186 191 199 207
2790.0 213 222 236 254 278 307 340 377 421 468
2830.0 530 626 785 1045 1481 2145 2953 3770 4544 5207
2870.0 5665 5859 5981 5714 4956 4328 3838 3488 3518 4035
2910.0 4971 6154 7309 8569 9976 10000 9003 8227 7397 6695
2950.0 6391 6336 6431 6857 6838 5882 4813 3836 2948 2230
2990.0 1643 1187 866 659 521 438 376 328 297 276
3030.0 256 240 235 227 222 221 217 216 213 213
3070.0 213 210 206 211 217 214 215 213 202 194
3110.0 187 173 162 156 149 135 126 119 110 111
3150.0 114 112 110 111 110 110 108 108 103 93
3190.0 87 82 78 73 67 58 48 48 49 49
3230.0 50 50 48 45 41 38 34 33 33 27
3270.0 25 28 34 32 31 32 25 25 28 24
3310.0 23 27 24 24 26 25 22 22 22 17
3350.0 15 16 18 18 14 13 14 17 16 14
3390.0 15 12 11 6 5 10 12 9 4 11
3430.0 6 4 12 16 16 17 19 23 26 27
3470.0 23 16 17 19 16 13 14 12 12 12
3510.0 8 10 11 7 6 11 13 11 7 5
3550.0 4 1 6 7 4 0 4 12 14 12
3590.0 12 13 11 7 4 6 7 9 10 8
3630.0 9 8 8 13 11 10 11 11 12 15
3670.0 14 8 5 10 13 14 12 5 5 12
3710.0 13 14 16 14 12 10 12 16 18 15
3750.0 18 14 12 16 20 19 12 10 10 14
3790.0 14 16 20 17 20 26 26 26 20 18
3830.0 23 23 23 23 16
##END=
