##TITLE=Di-tert-butyldichlorosilane
##JCAMP-DX=4.24
##DATA TYPE=INFRARED SPECTRUM
##ORIGIN=EPA-IR VAPOR PHASE LIBRARY
##OWNER=SRD/NIST
Collection (C) 2018 copyright by the U.S. Secretary of Commerce
on behalf of the United States of America. All rights reserved.
##CAS REGISTRY NO=18395-90-9
##MOLFORM=C 8 H 18 Cl 2 Si
##$NIST SOURCE=MSDC-IR
##STATE=gas
##XUNITS=1/CM
##YUNITS=ABSORBANCE
##XFACTOR=1.
##YFACTOR=0.001
##DELTAX=1.92898
##FIRSTX=549.8
##LASTX=4000.7
##FIRSTY=31.109
##MAXX=4000.7
##MINX=549.759
##MAXY=0.300259
##MINY=0
##NPOINTS=1790
##XYDATA=(X++(Y..Y))
549.759 31.109 39.289 49.159 62.159 79.409 99.469 125.409 155.519 186.709 219.799
569.049 251.339 279.069 297.939 300.259 280.539 246.199 210.529 174.729 136.639 101.109
588.339 76.769 65.199 63.479 68.749 77.359 87.599 98.009 105.929 110.319 110.779
607.628 106.939 98.659 87.759 77.009 67.119 57.849 50.739 47.569 46.829 48.489
626.918 52.719 57.879 63.539 67.669 69.149 68.969 66.679 61.389 53.729 45.149
646.208 37.339 29.959 22.819 17.499 13.659 11.179 9.439 7.889 6.359 5.459
665.498 5.209 4.799 4.389 4.189 4.179 3.969 3.399 3.239 3.439 3.349
684.787 3.159 2.899 2.649 2.739 2.919 2.759 2.669 3.029 2.999 2.679
704.077 2.889 3.039 2.839 2.529 2.489 2.549 2.649 2.449 2.259 2.019
723.367 1.949 1.939 1.4204 1.3591 1.639 1.809 1.919 2.029 2.029 1.909
742.657 1.669 1.759 1.969 2.119 2.059 1.869 2.199 2.409 2.229 2.179
761.947 2.489 2.569 2.239 2.259 2.509 2.789 2.959 2.999 3.539 4.049
781.236 4.489 4.949 5.029 5.499 6.579 8.169 9.949 12.219 15.179 18.739
800.526 22.809 28.189 35.489 43.309 52.199 61.549 70.329 77.699 81.599 82.419
819.816 80.209 73.599 63.879 53.439 42.709 32.329 23.379 16.459 12.219 9.589
839.106 7.819 6.699 5.769 5.239 4.119 3.429 3.689 3.529 3.539 3.399
858.395 2.879 2.949 3.089 3.039 3.259 3.409 3.489 3.619 3.749 3.729
877.685 3.739 3.899 3.999 3.699 3.529 3.899 4.339 4.549 4.139 3.849
896.975 3.819 3.999 4.299 4.089 3.969 4.329 4.649 5.069 5.769 6.219
916.265 6.689 7.179 8.299 9.739 11.089 12.879 14.719 16.379 17.729 18.649
935.555 18.739 18.499 17.329 15.609 13.979 11.729 10.029 8.489 7.149 6.159
954.844 5.089 4.639 4.429 3.959 3.609 3.519 3.279 2.979 2.699 2.679
974.134 2.739 2.689 2.739 2.799 2.699 2.739 3.089 3.299 3.679 4.319
993.424 4.519 5.359 6.559 7.899 9.749 10.939 12.049 13.269 13.969 13.989
1012.714 14.039 13.299 11.109 9.199 7.539 5.759 4.709 3.649 3.069 3.249
1032.003 2.419 2.059 2.139 1.989 2.009 1.5523 1.1199 1.3629 2.329 2.869
1051.293 1.769 0.8048 0.9838 1.699 2.039 1.659 1.779 1.5484 1.3557 1.629
1070.583 1.4799 1.0686 0.8331 0.9172 1.3178 2.299 2.009 1.2397 1.839 2.249
1089.873 1.0847 0.64684 1.4162 0.7064 0.7991 1.559 1.659 1.879 1.2925 0.64048
1109.163 1.4127 1.899 1.389 1.2667 0.5317 0.245 0.4936 0.5421 1.1459 1.5357
1128.452 1.2818 0.5404 0.63645 1.2343 1.889 1.5226 0.9218 1.659 1.589 0.8171
1147.742 1.1623 1.759 1.799 1.869 1.3531 1.3432 2.139 2.089 1.719 1.609
1167.032 1.4478 1.4873 1.799 1.5349 1.4344 1.0765 1.1092 2.089 2.079 1.819
1186.322 1.639 1.909 2.329 2.939 4.069 4.109 4.329 4.819 4.639 4.519
1205.611 4.479 4.939 5.289 4.309 3.369 3.559 2.529 1.1028 1.739 2.349
1224.901 1.3962 0.832 0.6471 0 0.4864 1.559 1.579 1.0099 0.55528 1.1035
1244.191 1.3732 0.8273 0.8514 0.9839 1.058 1.0523 1.2929 1.1582 0.5317 0.5407
1263.481 0.8962 1.1822 1.0508 0.8245 0.7201 0.7377 0.8255 0.8444 0.5167 0.4659
1282.771 0.8888 1.2794 1.4907 1.377 1.4067 1.3458 1.2498 1.2236 1.2384 1.3011
1302.060 1.2978 1.4913 1.5439 1.529 1.679 1.839 1.889 1.919 1.979 1.859
1321.350 1.869 1.979 1.949 1.999 2.069 2.109 2.249 2.199 2.229 2.519
1340.640 2.629 2.609 2.839 3.279 3.879 4.549 5.389 6.649 8.369 11.029
1359.930 14.539 18.849 23.549 27.769 31.359 36.029 41.209 39.799 34.029 30.989
1379.219 28.599 25.249 21.979 20.439 20.999 22.899 25.289 27.519 29.699 30.569
1398.509 29.389 27.669 25.519 22.139 18.269 14.919 12.449 10.509 9.049 8.219
1417.799 7.649 7.349 7.189 6.979 7.009 7.079 7.079 7.299 7.479 7.629
1437.089 7.959 8.429 9.129 10.019 10.989 12.229 13.809 15.579 17.879 21.069
1456.378 25.479 31.329 38.329 46.049 54.059 62.739 71.429 78.549 82.549 83.879
1475.668 81.989 76.059 68.609 60.709 51.539 41.919 32.809 24.939 18.879 14.689
1494.958 11.979 10.229 8.919 7.949 7.209 6.699 6.319 5.909 5.469 5.019
1514.248 4.709 4.469 4.069 3.749 3.759 3.589 3.259 3.039 2.819 2.659
1533.538 2.679 2.589 2.289 2.129 2.119 2.219 2.039 1.819 1.969 1.959
1552.827 1.929 1.939 1.779 1.679 1.629 1.789 1.869 1.829 1.879 1.729
1572.117 1.649 1.679 1.619 1.649 1.629 1.599 1.629 1.719 1.679 1.629
1591.407 1.569 1.3985 1.35 1.4757 1.599 1.5304 1.4763 1.649 1.659 1.5235
1610.697 1.4509 1.433 1.4866 1.5586 1.548 1.639 1.669 1.4333 1.4664 1.649
1629.986 1.719 1.639 1.5479 1.689 1.729 1.569 1.639 1.649 1.579 1.579
1649.276 1.569 1.544 1.4304 1.5257 1.599 1.3699 1.334 1.44 1.3812 1.439
1668.566 1.5213 1.5362 1.49 1.5294 1.589 1.4436 1.3857 1.5232 1.669 1.809
1687.856 1.799 1.779 1.799 1.729 1.799 1.929 1.959 1.769 1.639 1.749
1707.146 1.759 1.659 1.659 1.5224 1.2894 1.1802 1.2517 1.2638 1.1534 1.0331
1726.435 0.9704 0.9539 1.0027 1.0411 1.0033 0.9806 0.9419 0.9275 1.007 0.9959
1745.725 1.0081 0.9898 0.9654 1.1215 1.1614 1.0195 0.9382 1.0654 1.1003 0.9583
1765.015 0.8652 1.0127 1.0668 1.0453 1.1264 1.2145 1.2486 1.2453 1.3108 1.3773
1784.305 1.3739 1.32 1.346 1.3421 1.3539 1.4877 1.579 1.629 1.669 1.599
1803.594 1.599 1.739 1.849 1.859 1.759 1.739 1.809 1.829 1.779 1.709
1822.884 1.589 1.5483 1.589 1.569 1.569 1.5196 1.4378 1.3134 1.2616 1.3093
1842.174 1.3044 1.2251 1.1937 1.2335 1.2059 1.1586 1.1654 1.0908 0.89 0.8984
1861.464 1.0204 0.9435 0.9255 0.9148 0.8292 0.8123 0.7155 0.7048 0.8801 0.9545
1880.754 0.8429 0.8021 0.8003 0.7908 0.8044 0.8698 0.9453 0.9355 0.8587 0.8066
1900.043 0.8099 0.7691 0.8175 0.836 0.8366 0.7497 0.6604 0.7171 0.64041 0.65542
1919.333 0.755 0.7965 0.7525 0.7146 0.7033 0.6862 0.7615 0.7435 0.741 0.854
1938.623 0.9543 0.9484 0.9713 0.9556 0.8299 0.8315 0.8756 0.9037 0.9247 0.8549
1957.913 0.7998 0.8508 0.782 0.685 0.7321 0.9085 0.914 0.7463 0.7027 0.79
1977.202 0.922 0.8865 0.7651 0.825 0.9402 0.8777 0.8061 0.7913 0.8791 0.9109
1996.492 0.7615 0.803 0.9009 0.9574 1.0514 0.8991 0.8163 0.8997 0.8449 0.8709
2015.782 0.9267 0.8664 0.9906 1.0036 0.8321 0.6755 0.6961 0.8134 0.8266 0.8115
2035.072 0.715 0.6872 0.7603 0.7205 0.6859 0.824 0.872 0.7847 0.59732 0.55224
2054.362 0.6788 0.7179 0.6629 0.58988 0.55691 0.60169 0.6627 0.688 0.7937 0.7912
2073.651 0.62443 0.65484 0.60791 0.59593 0.55564 0.45 0.60352 0.6946 0.6684 0.7038
2092.941 0.6972 0.7088 0.7441 0.6606 0.7005 0.6978 0.63801 0.6748 0.6842 0.7434
2112.231 0.7277 0.7213 0.7404 0.7227 0.7429 0.7445 0.7681 0.7655 0.7814 0.8532
2131.521 0.8156 0.7845 0.777 0.735 0.7284 0.7549 0.7041 0.6634 0.7264 0.64673
2150.810 0.64686 0.8362 1.0268 1.051 1.0081 1.0442 1.0769 1.0074 1.0356 1.0767
2170.100 1.0693 1.2572 1.2762 1.173 1.3179 1.3111 1.2806 1.3954 1.4083 1.3696
2189.390 1.2999 1.2438 1.2064 1.1782 1.0012 0.792 0.7319 0.6605 0.65776 0.63949
2208.680 0.64181 0.755 0.7842 0.6948 0.6785 0.7167 0.6683 0.6608 0.5515 0.59232
2227.970 0.836 0.7913 0.63792 0.64626 0.7197 0.7643 0.63537 0.57028 0.64968 0.60323
2247.259 0.59604 0.61167 0.7425 0.7709 0.60345 0.5324 0.64829 0.7449 0.7316 0.57919
2266.549 0.5441 0.59901 0.6722 0.6786 0.63458 0.7673 0.7336 0.6958 0.7368 0.8121
2285.839 0.9178 1.0325 1.2149 1.2136 1.0842 1.1924 1.2376 1.3027 1.2793 1.1636
2305.129 1.1646 1.1501 1.1282 1.0507 1.0282 0.9818 0.8588 0.816 0.9575 1.012
2324.418 0.8732 0.8776 0.9179 0.7943 0.6869 0.6617 0.7684 0.8828 0.9446 0.8643
2343.708 0.8087 0.9368 0.9572 0.9171 0.9251 0.9054 0.9676 0.9791 0.8527 0.9647
2362.998 1.1257 1.0336 0.8542 1.0026 1.2052 1.2453 1.2327 1.1694 1.1398 1.2096
2382.288 1.316 1.2581 1.1533 1.1905 1.3524 1.3791 1.2659 1.2496 1.2008 1.0949
2401.578 1.1374 1.3872 1.4794 1.3869 1.2762 1.2705 1.3101 1.2261 1.2868 1.3223
2420.867 1.2553 1.1677 1.0712 1.0655 1.0394 1.0567 1.0666 0.9723 0.9511 0.9531
2440.157 1.0599 1.1805 1.1266 1.0554 1.1237 0.9962 0.7739 0.8469 0.9542 0.9811
2459.447 1.0216 1.0055 0.9135 0.9041 1.0301 1.072 1.0376 0.9607 0.9245 1.0656
2478.737 1.1529 1.1179 1.1278 0.9772 0.9001 1.069 1.0097 0.9513 0.8871 0.7375
2498.026 0.8464 1.0818 1.0703 0.9057 0.8337 0.9932 1.2224 1.1775 1.0213 0.9974
2517.316 1.0202 1.0215 1.1039 1.0544 1.0191 1.105 1.1947 1.157 1.0436 1.0399
2536.606 1.0829 1.1939 1.2287 1.184 1.2704 1.3624 1.3791 1.3384 1.3198 1.3738
2555.896 1.4226 1.3891 1.4015 1.1838 1.1964 1.4864 1.4008 1.4255 1.3801 1.2879
2575.186 1.5488 1.491 1.1822 1.2489 1.3063 1.3946 1.4633 1.2832 1.1809 1.3209
2594.475 1.333 1.3335 1.3393 1.2895 1.3814 1.3601 1.359 1.3185 1.2183 1.2228
2613.765 1.2437 1.3043 1.437 1.4712 1.5236 1.729 1.729 1.729 1.829 1.889
2633.055 2.049 2.069 1.979 2.089 2.189 2.269 2.269 2.229 2.239 2.219
2652.345 2.159 2.159 2.069 1.789 1.749 1.869 1.989 2.049 1.989 1.919
2671.634 1.899 1.869 1.769 1.739 1.879 1.939 1.999 2.109 1.949 1.769
2690.924 1.859 2.009 2.059 2.099 2.239 2.329 2.349 2.489 2.589 2.779
2710.214 3.099 3.299 3.599 4.169 4.529 4.879 5.459 5.899 6.269 6.339
2729.504 6.149 5.889 5.479 5.229 4.989 4.479 4.299 4.169 4.019 4.219
2748.794 4.309 4.379 4.629 4.739 4.679 4.709 4.849 4.939 4.789 4.579
2768.083 4.539 4.479 4.309 4.619 5.049 5.209 5.519 5.769 6.059 6.469
2787.373 6.739 6.939 7.099 7.219 7.319 7.429 7.339 7.269 7.309 7.459
2806.663 7.759 7.899 7.979 8.189 8.559 8.769 9.109 9.439 9.639 9.859
2825.953 10.039 10.549 11.089 11.539 12.219 12.939 13.409 14.199 15.339 16.449
2845.242 18.039 19.829 22.149 25.269 28.999 33.579 39.419 46.709 55.609 66.099
2864.532 77.589 89.949 102.459 114.389 125.289 133.739 139.019 140.639 139.139 135.669
2883.822 130.559 124.909 119.369 114.699 111.259 109.439 109.789 111.519 114.109 116.949
2903.112 119.159 120.349 120.399 118.809 115.449 111.319 106.649 101.439 96.989 93.689
2922.401 91.419 90.939 92.549 95.979 101.439 108.809 118.099 128.839 140.179 150.639
2941.691 159.119 165.989 170.699 172.229 171.289 169.779 167.439 164.679 162.519 159.839
2960.981 155.459 151.339 148.519 146.409 145.549 146.449 148.109 148.939 149.799 150.939
2980.271 145.539 130.389 113.419 98.659 83.659 68.329 54.339 42.799 34.559 28.929
2999.561 24.829 21.649 19.399 17.509 15.659 14.469 13.819 12.859 11.969 11.549
3018.850 10.999 10.369 9.699 9.219 8.519 7.749 7.419 6.949 6.559 6.359
3038.140 6.139 5.869 5.469 5.169 4.759 4.639 4.609 4.469 4.309 4.069
3057.430 4.069 4.229 4.179 3.999 4.019 4.019 3.979 3.839 3.809 3.829
3076.720 3.729 3.699 3.769 3.619 3.649 3.749 3.809 4.019 3.999 3.789
3096.009 3.779 3.879 4.089 4.189 4.069 4.139 4.229 4.009 3.889 3.999
3115.299 4.029 4.219 4.489 4.439 4.249 4.109 3.829 3.989 4.209 3.909
3134.589 3.909 3.919 3.859 3.939 3.759 3.589 3.569 3.579 3.709 3.999
3153.879 4.189 4.129 3.919 3.919 4.259 4.219 4.079 4.119 4.019 4.259
3173.169 4.409 4.299 4.329 4.509 4.659 4.439 4.309 4.349 4.179 4.139
3192.458 4.229 4.059 3.679 3.649 3.709 3.599 3.609 3.549 3.359 3.389
3211.748 3.559 3.369 3.249 3.209 3.099 2.969 3.019 3.209 3.259 3.149
3231.038 2.879 2.779 2.999 2.859 2.649 2.669 2.509 2.229 2.119 2.369
3250.328 2.459 2.249 2.189 2.229 2.109 2.009 1.949 1.789 1.759 1.869
3269.617 1.819 1.829 1.719 1.5404 1.4716 1.4034 1.5174 1.579 1.4553 1.3902
3288.907 1.3111 1.2582 1.3648 1.3929 1.4012 1.3714 1.2149 1.1624 1.2248 1.1515
3308.197 1.181 1.2615 0.8963 0.60796 0.7002 1.0024 1.2725 1.4586 1.4768 1.2642
3327.487 1.3689 1.5259 1.553 1.5587 1.5225 1.3041 1.1724 1.4871 1.3215 1.2514
3346.777 1.5385 1.599 1.559 1.769 2.019 1.809 1.739 1.879 2.139 2.189
3366.066 2.119 2.089 1.839 1.839 1.869 1.939 2.129 2.099 1.919 1.639
3385.356 1.589 1.569 1.5321 1.569 1.629 1.5384 1.4624 1.3625 1.1906 1.1625
3404.646 1.3573 1.3735 1.0244 0.9074 0.7642 0.837 0.948 1.0608 1.1337 0.9656
3423.936 0.9316 1.0312 1.1378 1.1034 0.8013 0.9269 1.2811 1.1676 0.9834 0.8183
3443.225 0.8694 0.9305 0.9016 0.9333 1.0417 1.2238 1.2111 1.0975 0.7498 0.7056
3462.515 0.8924 0.7189 0.62306 0.7931 1.024 0.8437 0.7761 0.8846 0.7838 0.6952
3481.805 0.7841 0.9114 1.0392 1.1252 0.9729 0.8481 0.9006 0.9038 0.7867 0.8279
3501.095 0.8114 0.8152 0.885 0.8586 0.9873 0.7973 0.7193 0.9276 0.7693 0.8229
3520.385 0.8345 0.4843 0.668 0.9804 0.7121 0.65627 0.8936 0.9864 1.0876 0.9444
3539.674 0.6473 0.5876 0.8631 1.0163 0.8792 0.7566 0.9005 1.0005 0.8794 0.8388
3558.964 0.7582 0.5379 0.562763 0.8589 0.8459 0.7443 0.8429 0.8347 0.8523 0.9629
3578.254 0.8021 0.831 1.0577 0.8161 0.57342 0.7683 0.6905 0.4664 0.5286 0.55732
3597.544 0.439 0.415 0.4897 0.7131 0.9029 0.8356 0.8117 0.6959 0.5029 0.59462
3616.833 0.64132 0.61858 0.63267 0.299 0.25 0.5002 0.419 0.369 0.304 0.378
3636.123 0.4814 0.373 0.387 0.55265 0.711 0.7738 1.017 1.1739 0.9011 0.7798
3655.413 0.8897 0.58074 0.235 0.506 0.888 0.889 0.62776 0.57661 0.7088 0.62173
3674.703 0.6886 0.6796 0.5344 0.5287 0.6015 0.59624 0.58852 0.7512 0.63528 0.385
3693.993 0.62684 0.6981 0.561019 0.6705 0.8408 0.8369 0.8643 0.9043 0.5417 0.5282
3713.282 0.662 0.7447 1.0058 1.1092 1.0673 1.0922 1.1406 0.9647 1.0554 0.9423
3732.572 0.6404 0.61531 0.6844 0.8853 0.985 0.8512 0.65712 0.8109 0.8827 0.8499
3751.862 0.9661 1.0553 1.0094 1.1291 0.8367 0.63464 0.9033 0.9694 0.9621 0.9144
3771.152 1.1611 1.3892 1.1447 0.8358 0.9924 1.0373 0.9053 1.1559 1.3128 1.1105
3790.441 1.0559 1.1657 1.3337 1.3603 1.1335 1.1451 1.1773 1.1072 1.164 1.1092
3809.731 1.286 1.3444 1.1665 1.1968 0.9736 0.9492 1.1995 1.3336 1.32 1.2434
3829.021 1.4495 1.4849 1.0152 0.9278 1.2316 1.1836 0.9905 0.9211 1.08 1.3006
3848.311 1.3891 1.2224 1.0904 1.2502 1.1525 1.0109 0.8664 0.7748 1.2295 1.2988
3867.601 1.1322 1.3432 1.2174 1.1939 1.294 1.1133 1.1883 1.342 1.2366 1.1123
3886.890 1.1629 1.3177 1.4416 1.4023 1.341 1.2019 1.2078 1.3186 1.1695 1.2471
3906.180 1.1542 0.7008 0.8091 1.149 1.1642 0.9879 1.17 1.2985 1.2239 1.3246
3925.470 1.1664 0.8764 0.4625 0.363 0.408 0.7325 1.0305 0.9589 1.1884 1.1263
3944.760 0.708 0.8133 1.0341 1.2197 1.1242 0.9299 1.0295 0.8284 0.7813 0.7506
3964.049 0.8277 0.8808 0.7694 1.0659 1.134 0.8921 0.9121 0.8254 0.7567 0.7773
3983.339 0.7599 0.9701 0.9827 0.8911 0.7955 0.458 0.516 0.733 0.9213 0.7744
##END=
