##TITLE=1,3,5,-Trimethylcyclohexane
##JCAMP-DX=4.24
##DATA TYPE=INFRARED SPECTRUM
##ORIGIN=NIST Mass Spectrometry Data Center
##OWNER=NIST Standard Reference Data Program
Collection (C) 2018 copyright by the U.S. Secretary of Commerce
on behalf of the United States of America. All rights reserved.
##CAS REGISTRY NO=1839-63-0
##MOLFORM=C 9 H 18
##$NIST SOURCE=MSDC-IR
##SPECTROMETER/DATA SYSTEM=HP-GC/MS/IRD
##STATE=gas
##XUNITS=1/CM
##YUNITS=ABSORBANCE
##XFACTOR=1.0
##YFACTOR=0.000004000
##DELTAX=4.0
##FIRSTX=550.0
##LASTX=3846.0
##FIRSTY=0.000108
##MAXX=3846
##MINX=550
##MAXY=0.04
##MINY=0
##NPOINTS=825
##XYDATA=(X++(Y..Y))
550.0 27 48 62 62 57 49 44 36 31 26
590.0 3 7 37 34 28 31 38 45 46 43
630.0 38 35 32 27 23 22 34 40 35 21
670.0 3 12 36 47 37 33 38 30 24 36
710.0 39 30 36 44 51 43 29 27 38 46
750.0 35 35 38 39 39 23 30 34 28 47
790.0 54 42 29 26 41 34 34 42 46 73
830.0 88 111 147 181 191 172 163 134 94 77
870.0 57 42 42 40 32 33 39 40 36 32
910.0 35 38 44 59 74 93 120 134 141 135
950.0 110 77 59 54 47 38 38 44 42 45
990.0 54 65 77 79 74 63 53 46 47 46
1030.0 38 38 41 38 36 44 46 35 31 32
1070.0 26 26 27 26 30 39 52 58 61 66
1110.0 64 60 70 81 78 73 55 38 39 46
1150.0 47 58 64 76 123 163 185 167 119 81
1190.0 59 52 50 43 44 47 41 46 50 47
1230.0 57 67 66 91 127 157 194 218 226 233
1270.0 218 181 146 120 96 79 75 74 73 77
1310.0 92 109 126 151 186 222 251 284 341 424
1350.0 519 592 646 693 728 729 695 683 648 537
1390.0 420 310 211 155 130 123 126 135 151 187
1430.0 252 345 480 652 873 1067 1295 1542 1420 1248
1470.0 1106 841 601 408 276 195 147 116 96 76
1510.0 64 60 52 37 37 38 36 34 31 30
1550.0 33 33 31 31 33 33 35 42 43 43
1590.0 47 49 53 55 56 54 51 49 47 46
1630.0 42 36 31 31 38 37 33 34 36 41
1670.0 46 42 40 42 42 37 36 38 32 30
1710.0 29 22 18 19 20 17 18 20 15 14
1750.0 15 13 11 14 18 22 25 25 26 26
1790.0 25 27 24 21 19 20 20 18 16 17
1830.0 18 17 18 19 19 16 14 11 7 8
1870.0 10 13 18 16 14 16 13 12 14 12
1910.0 12 14 12 11 7 6 6 6 11 10
1950.0 6 4 5 4 2 6 7 10 11 9
1990.0 9 5 3 3 7 9 4 7 13 14
2030.0 11 10 5 8 7 1 2 3 2 0
2070.0 0 4 6 6 9 13 12 8 7 9
2110.0 11 9 9 8 11 13 6 3 8 9
2150.0 6 10 12 14 15 9 8 13 19 23
2190.0 24 25 24 23 23 20 21 17 13 16
2230.0 17 13 12 12 6 4 4 5 4 1
2270.0 4 12 15 17 20 18 14 13 21 23
2310.0 27 31 24 21 26 24 21 13 13 17
2350.0 15 18 19 15 14 17 17 21 26 28
2390.0 29 35 39 34 35 43 47 45 49 51
2430.0 48 47 43 33 37 42 37 33 32 31
2470.0 25 20 22 23 29 33 30 30 39 41
2510.0 36 33 34 36 32 30 33 36 33 31
2550.0 29 28 32 28 27 28 29 39 53 64
2590.0 81 98 112 127 138 143 144 145 142 132
2630.0 123 114 105 100 104 109 107 104 100 94
2670.0 99 99 91 92 101 115 128 135 140 149
2710.0 170 192 209 228 243 243 244 239 225 211
2750.0 197 190 181 173 178 195 209 226 253 284
2790.0 324 362 394 438 470 497 543 623 769 1048
2830.0 1500 2011 2456 2789 2826 2639 2452 2362 2491 3066
2870.0 3928 4520 4960 5367 5857 6434 6577 6831 7803 9020
2910.0 9865 10000 9394 8443 7292 6006 5117 4847 5129 5900
2950.0 7034 8984 9958 8704 7354 5781 3657 1959 1077 683
2990.0 500 384 301 259 232 213 202 193 200 209
3030.0 206 206 212 221 224 225 227 226 232 236
3070.0 229 223 223 223 225 227 224 212 210 203
3110.0 184 168 151 143 137 134 125 111 112 114
3150.0 119 124 127 125 124 121 118 127 127 120
3190.0 108 96 91 90 87 79 74 54 38 36
3230.0 32 39 38 29 31 32 27 24 27 34
3270.0 37 40 35 28 33 38 37 39 43 48
3310.0 52 44 44 52 47 48 48 47 49 51
3350.0 51 50 47 50 55 49 44 42 47 41
3390.0 26 32 34 40 55 54 50 41 35 43
3430.0 40 34 25 19 14 15 21 15 0 7
3470.0 11 3 14 22 16 13 11 14 10 3
3510.0 13 19 15 15 21 22 15 23 34 25
3550.0 21 20 19 19 24 21 14 11 11 17
3590.0 16 9 8 10 19 31 29 23 25 20
3630.0 20 20 18 12 7 8 19 13 2 14
3670.0 21 27 30 19 18 27 28 26 23 36
3710.0 40 29 31 33 33 31 30 34 27 26
3750.0 38 37 33 34 40 46 43 44 49 51
3790.0 47 46 38 28 32 43 46 49 48 46
3830.0 41 39 48 47 46
##END=
