##TITLE=1-Nonadecene
##JCAMP-DX=4.24
##DATA TYPE=INFRARED SPECTRUM
##ORIGIN=NIST Mass Spectrometry Data Center
##OWNER=NIST Standard Reference Data Program
Collection (C) 2018 copyright by the U.S. Secretary of Commerce
on behalf of the United States of America. All rights reserved.
##CAS REGISTRY NO=18435-45-5
##MOLFORM=C 19 H 38
##$NIST SOURCE=MSDC-IR
##SPECTROMETER/DATA SYSTEM=HP-GC/MS/IRD
##STATE=gas
##XUNITS=1/CM
##YUNITS=ABSORBANCE
##XFACTOR=1.0
##YFACTOR=0.000008300
##DELTAX=4.0
##FIRSTX=550.0
##LASTX=3846.0
##FIRSTY=0.000125
##MAXX=3846
##MINX=550
##MAXY=0.083
##MINY=0
##NPOINTS=825
##XYDATA=(X++(Y..Y))
550.0 15 14 15 9 9 12 12 5 3 16
590.0 21 21 24 17 24 40 44 48 53 58
630.0 69 62 53 50 48 43 38 33 28 32
670.0 36 34 33 34 35 49 66 76 86 100
710.0 124 144 153 149 139 130 116 106 96 85
750.0 75 71 70 63 60 60 56 55 54 48
790.0 42 43 47 44 39 39 40 43 48 46
830.0 46 48 52 55 57 59 63 68 73 74
870.0 80 89 99 112 129 151 184 226 292 383
910.0 467 489 427 336 263 211 179 156 140 128
950.0 122 116 113 111 112 119 129 143 167 196
990.0 215 217 201 173 151 131 110 99 90 82
1030.0 78 75 70 62 64 64 59 60 55 51
1070.0 53 52 50 48 46 42 38 39 42 40
1110.0 39 40 37 35 34 32 32 34 32 31
1150.0 31 32 33 32 30 30 33 37 40 39
1190.0 37 38 39 41 42 42 44 50 51 51
1230.0 55 56 57 59 60 62 66 71 76 78
1270.0 81 87 94 103 111 122 134 146 155 157
1310.0 154 147 141 141 143 150 165 188 218 249
1350.0 268 271 255 234 214 191 168 155 146 133
1390.0 117 106 101 101 104 110 120 128 143 160
1430.0 186 226 290 377 462 535 597 647 664 612
1470.0 506 381 279 206 154 118 96 80 68 54
1510.0 43 42 37 35 34 33 33 27 24 26
1550.0 26 24 20 22 25 23 21 24 25 24
1590.0 25 26 30 33 38 46 53 64 79 99
1630.0 125 161 195 200 163 113 74 54 42 32
1670.0 24 18 14 9 8 10 9 6 6 7
1710.0 7 3 2 4 6 2 0 1 4 2
1750.0 1 3 3 2 1 2 4 5 3 3
1790.0 4 7 8 9 14 19 26 33 41 46
1830.0 46 41 33 22 17 16 14 11 9 6
1870.0 3 5 5 6 5 4 3 4 5 4
1910.0 3 2 0 0 2 3 2 1 0 0
1950.0 1 4 5 6 6 5 6 6 7 7
1990.0 6 6 6 4 4 6 9 10 11 14
2030.0 15 13 11 11 10 11 11 10 10 9
2070.0 9 8 7 8 6 5 5 6 6 7
2110.0 5 4 4 4 5 5 5 6 6 7
2150.0 8 9 9 8 8 9 8 6 7 8
2190.0 9 9 8 6 8 10 9 8 6 5
2230.0 7 6 6 5 4 9 7 6 7 6
2270.0 7 7 6 7 9 10 11 10 8 7
2310.0 7 6 6 8 9 8 8 8 9 9
2350.0 7 8 8 9 9 8 9 8 9 11
2390.0 10 10 11 10 9 10 9 11 11 10
2430.0 10 11 12 12 12 11 12 11 12 13
2470.0 14 12 9 11 11 12 14 15 16 17
2510.0 16 17 21 23 23 24 25 26 28 29
2550.0 29 28 27 29 31 33 33 32 33 34
2590.0 37 41 43 43 44 47 49 51 53 57
2630.0 60 63 66 68 69 72 76 80 82 84
2670.0 91 95 94 96 100 97 91 87 84 84
2710.0 84 82 82 83 86 87 89 93 97 102
2750.0 103 106 111 118 124 129 137 147 159 171
2790.0 188 207 223 245 270 297 333 377 427 484
2830.0 557 653 790 995 1316 1812 2516 3274 3694 3562
2870.0 3084 2579 2208 1990 1882 1861 1952 2170 2525 3000
2910.0 3587 4330 5354 6795 8523 9857 10000 8904 7201 5503
2950.0 4149 3225 2675 2378 2185 1957 1644 1333 1093 921
2990.0 792 692 620 569 521 466 410 359 318 286
3030.0 262 243 231 218 212 212 212 217 224 234
3070.0 249 276 313 357 372 327 253 190 150 123
3110.0 106 94 85 79 72 66 64 62 60 59
3150.0 56 49 48 49 48 48 44 39 38 34
3190.0 33 33 30 27 27 24 22 23 22 20
3230.0 16 19 20 19 19 17 15 15 14 15
3270.0 16 16 14 13 13 13 14 13 13 14
3310.0 11 10 13 11 13 14 13 12 13 13
3350.0 11 14 15 11 13 14 13 15 16 15
3390.0 11 12 12 13 12 10 12 13 12 13
3430.0 12 10 10 11 12 11 10 10 9 9
3470.0 11 10 7 5 4 5 4 4 3 6
3510.0 8 6 6 5 3 6 7 8 7 4
3550.0 5 8 10 9 5 6 10 11 9 6
3590.0 8 11 9 9 11 14 17 14 13 13
3630.0 12 18 21 17 12 14 18 22 21 18
3670.0 16 15 17 19 21 23 18 16 16 20
3710.0 21 19 18 19 17 17 15 16 17 15
3750.0 15 16 20 22 22 23 26 28 27 23
3790.0 23 22 20 21 24 23 21 23 23 23
3830.0 22 18 19 22 24
##END=
