##TITLE=Spiro[2.5]octane
##JCAMP-DX=4.24
##DATA TYPE=INFRARED SPECTRUM
##ORIGIN=NIST Mass Spectrometry Data Center
##OWNER=NIST Standard Reference Data Program
Collection (C) 2018 copyright by the U.S. Secretary of Commerce
on behalf of the United States of America. All rights reserved.
##CAS REGISTRY NO=185-65-9
##MOLFORM=C 8 H 14
##$NIST SOURCE=MSDC-IR
##SPECTROMETER/DATA SYSTEM=HP-GC/MS/IRD
##STATE=gas
##XUNITS=1/CM
##YUNITS=ABSORBANCE
##XFACTOR=1.0
##YFACTOR=0.000005700
##DELTAX=4.0
##FIRSTX=550.0
##LASTX=3846.0
##FIRSTY=0.000182
##MAXX=3846
##MINX=550
##MAXY=0.057
##MINY=0
##NPOINTS=825
##XYDATA=(X++(Y..Y))
550.0 32 43 47 29 25 26 20 15 8 24
590.0 23 10 7 1 4 13 15 16 8 0
630.0 0 1 6 8 8 7 13 28 41 51
670.0 71 84 94 97 70 65 60 37 25 20
710.0 22 16 11 10 1 5 14 8 7 7
750.0 2 2 6 12 15 11 12 13 13 18
790.0 25 23 30 42 51 60 70 86 106 132
830.0 174 195 224 232 184 165 139 101 88 86
870.0 102 126 144 164 179 199 219 232 231 239
910.0 273 322 370 410 431 409 368 308 228 174
950.0 139 112 99 96 96 87 75 68 70 88
990.0 134 216 321 416 462 508 501 440 386 291
1030.0 208 150 122 111 79 52 44 35 30 28
1070.0 20 18 20 18 13 14 25 33 46 60
1110.0 69 73 67 62 60 52 44 40 42 38
1150.0 35 34 29 30 30 27 22 17 18 15
1190.0 13 17 19 16 11 12 15 16 19 23
1230.0 32 47 66 81 87 101 116 109 98 87
1270.0 79 73 64 60 60 65 72 85 95 102
1310.0 108 107 102 93 77 58 45 39 35 34
1350.0 39 43 49 58 67 73 77 76 70 64
1390.0 58 57 60 75 96 125 166 216 286 388
1430.0 485 568 669 745 785 842 840 744 641 527
1470.0 411 308 208 127 78 52 38 27 19 15
1510.0 13 12 10 8 8 6 6 10 12 12
1550.0 13 13 17 19 18 17 17 17 15 14
1590.0 11 9 7 6 5 4 5 4 3 2
1630.0 3 3 2 4 5 5 5 3 1 5
1670.0 10 10 10 9 8 9 11 14 11 10
1710.0 11 10 10 11 11 9 8 10 13 11
1750.0 7 5 5 6 7 9 13 14 16 22
1790.0 25 27 27 26 25 25 23 18 20 22
1830.0 20 22 22 17 15 14 12 9 9 8
1870.0 7 8 7 8 10 9 10 14 18 22
1910.0 25 28 31 33 33 33 32 29 27 28
1950.0 26 22 19 17 16 17 15 14 12 10
1990.0 11 13 14 18 23 26 28 31 34 39
2030.0 41 48 53 54 60 59 48 41 35 30
2070.0 29 28 26 23 23 20 16 13 11 8
2110.0 7 11 12 10 9 9 7 9 11 11
2150.0 12 11 10 9 10 10 8 8 9 8
2190.0 7 7 8 7 7 8 8 7 5 6
2230.0 6 5 7 7 6 7 6 4 4 3
2270.0 3 3 2 3 5 6 7 6 6 5
2310.0 5 7 8 10 7 4 4 5 6 5
2350.0 3 5 8 8 9 11 11 12 14 15
2390.0 13 11 10 9 9 10 9 8 5 4
2430.0 5 6 5 7 11 10 12 16 19 18
2470.0 17 15 14 16 14 12 13 12 7 4
2510.0 5 4 2 0 1 2 3 7 11 10
2550.0 7 8 11 15 14 15 19 18 22 26
2590.0 25 26 25 27 30 32 31 33 37 39
2630.0 43 49 53 60 70 80 87 92 96 97
2670.0 96 92 83 73 64 59 56 55 56 55
2710.0 52 51 52 49 44 43 39 37 38 41
2750.0 44 45 51 65 79 91 106 120 134 143
2790.0 152 157 159 161 168 181 202 237 293 390
2830.0 555 805 1134 1549 2041 2594 3035 3172 3092 2817
2870.0 2495 2150 1774 1517 1412 1457 1659 2009 2422 2943
2910.0 3717 4788 6073 7423 8717 9962 10000 8876 7888 6476
2950.0 4762 3218 1945 1125 707 530 488 523 622 770
2990.0 918 1035 1131 1220 1226 1080 893 718 548 403
3030.0 289 218 193 200 247 345 493 678 870 1009
3070.0 992 966 970 811 593 400 246 144 91 64
3110.0 49 45 47 48 44 36 31 25 19 17
3150.0 13 11 8 7 10 10 11 12 8 6
3190.0 10 10 8 13 20 20 23 24 20 23
3230.0 20 11 12 13 11 9 4 4 6 7
3270.0 11 12 11 11 10 11 17 17 13 15
3310.0 13 8 9 10 11 9 6 8 14 20
3350.0 22 24 31 34 33 30 26 20 16 15
3390.0 12 8 7 7 5 3 6 8 8 11
3430.0 14 12 11 12 14 17 17 16 16 18
3470.0 18 17 17 19 18 13 10 12 12 10
3510.0 8 9 8 5 5 4 3 2 0 0
3550.0 6 10 9 4 1 4 7 7 6 10
3590.0 11 8 8 11 12 11 11 12 9 8
3630.0 6 8 11 16 14 11 10 8 8 11
3670.0 8 9 13 11 10 17 17 18 19 17
3710.0 19 19 22 17 17 18 17 16 17 22
3750.0 25 28 27 26 28 28 24 20 22 22
3790.0 23 25 26 28 29 28 25 25 29 30
3830.0 31 32 30 30 30
##END=
