##TITLE=Tetramethyl orthocarbonate
##JCAMP-DX=4.24
##DATA TYPE=INFRARED SPECTRUM
##ORIGIN=EPA-IR VAPOR PHASE LIBRARY
##OWNER=SRD/NIST
Collection (C) 2018 copyright by the U.S. Secretary of Commerce
on behalf of the United States of America. All rights reserved.
##CAS REGISTRY NO=1850-14-2
##MOLFORM=C 5 H 12 O 4
##$NIST SOURCE=MSDC-IR
##STATE=gas
##XUNITS=1/CM
##YUNITS=ABSORBANCE
##XFACTOR=1.
##YFACTOR=0.001
##DELTAX=1.92898
##FIRSTX=549.8
##LASTX=4000.7
##FIRSTY=2.7077
##MAXX=4000.7
##MINX=549.759
##MAXY=0.766868
##MINY=0
##NPOINTS=1790
##XYDATA=(X++(Y..Y))
549.759 2.7077 2.8577 3.3777 3.6977 4.0177 4.5277 5.2477 5.9077 6.5877 7.4577
569.049 8.1077 9.0077 9.8477 10.4677 10.9677 11.4877 11.9677 12.0377 11.8177 11.1177
588.339 10.3177 9.6577 8.9477 8.3177 7.0277 5.8877 5.2477 4.4477 3.6777 3.1877
607.628 2.7977 2.2977 1.8377 1.4677 1.3777 1.3677 1.2177 1.2177 1.2977 1.2077
626.918 1.2677 1.3177 1.1677 1.002 0.8769 0.9154 1.0477 1.0577 0.9983 1.1477
646.208 1.2877 1.3677 1.4477 1.2777 1.2977 1.4777 1.5177 1.5877 1.5877 1.5577
665.498 1.6477 1.7577 1.6877 1.5477 1.5577 1.5677 1.3477 1.2277 1.2077 1.1177
684.787 1.0777 1.016 0.923 0.7474 0.6383 0.6854 0.6909 0.5999 0.6236 0.7762
704.077 0.7853 0.7612 0.6343 0.452 0.4564 0.4452 0.3855 0.3801 0.493 0.4423
723.367 0.3866 0.5294 0.4709 0.4069 0.3613 0.2651 0.3115 0.3475 0.4629 0.5754
742.657 0.5263 0.4695 0.4504 0.4386 0.4096 0.3514 0.38 0.4026 0.4394 0.4023
761.947 0.3612 0.3848 0.4029 0.5069 0.5639 0.5479 0.4687 0.4745 0.6313 0.603
781.236 0.5685 0.5396 0.4542 0.3567 0.3437 0.5065 0.5149 0.4899 0.5667 0.5967
800.526 0.5542 0.4117 0.3635 0.3805 0.4141 0.4923 0.4939 0.4808 0.5392 0.7131
819.816 0.799 0.643 0.6039 0.6538 0.6426 0.7456 0.5495 0.5348 0.6099 0.5713
839.106 0.6888 0.6527 0.6106 0.71 0.8282 0.843 0.8094 0.7411 0.5936 0.6781
858.395 0.8148 0.7714 0.8867 0.8367 0.8619 1.0877 1.0477 1.0577 1.2077 1.1077
877.685 0.8962 1.0013 1.2877 1.3677 1.4377 1.5177 1.5577 1.6177 1.5777 1.6177
896.975 1.6577 1.5877 1.6577 1.7677 1.8077 2.0677 2.2577 2.0977 2.1277 2.1677
916.265 2.1677 2.3277 2.3877 2.3177 2.2677 2.3877 2.5977 2.6677 2.6177 2.5277
935.555 2.5677 2.7077 2.6677 2.5777 2.7077 2.8377 2.9477 3.0077 3.0077 3.0877
954.844 3.0177 3.1277 3.3477 3.4977 3.7777 3.9577 4.1377 4.5577 5.0077 5.2077
974.134 5.5777 6.1877 6.8077 7.3777 7.9877 8.8677 9.9177 10.9977 11.7977 12.3777
993.424 13.1677 14.0077 14.7677 15.4277 16.2577 16.8877 17.2477 17.8277 18.4377 19.0077
1012.714 19.7177 20.5377 21.5477 22.6577 23.7577 25.1677 26.4277 27.5377 28.7477 29.6077
1032.003 30.4077 31.6277 32.4877 32.9877 33.3377 33.5377 33.9777 34.5577 34.9977 35.5177
1051.293 36.5177 37.5177 38.6977 40.0477 41.5877 43.8077 46.5377 49.6677 52.7477 56.0277
1070.583 59.7977 63.9177 68.5777 73.7777 79.6077 86.2077 93.6577 101.838 110.988 121.618
1089.873 133.538 147.448 163.908 182.558 203.878 228.538 256.798 288.688 324.448 364.948
1109.163 410.188 460.828 514.368 567.558 621.728 672.878 714.498 745.778 763.918 766.868
1128.452 752.478 724.538 685.888 637.618 583.438 527.158 473.868 425.268 381.948 343.218
1147.742 308.728 278.818 253.828 233.668 217.278 203.638 192.258 182.928 174.568 166.678
1167.032 159.298 151.818 144.438 137.218 129.998 123.218 116.968 111.448 106.968 103.538
1186.322 100.938 99.6577 99.6177 101.028 104.248 108.318 113.418 119.178 124.558 129.448
1205.611 133.808 137.348 139.428 140.218 139.168 135.448 129.708 122.608 115.118 107.938
1224.901 100.518 93.0377 85.8677 79.2877 73.3777 67.9477 63.3877 59.5877 56.3977 53.6177
1244.191 51.1977 49.0777 46.9677 44.9977 43.1377 41.1077 39.0077 36.9777 34.9077 32.5977
1263.481 30.1477 28.0877 26.0577 23.9977 22.0977 20.5477 19.2577 17.7877 16.6277 15.8477
1282.771 14.9677 14.1777 13.5277 12.9177 12.4477 12.0177 11.6477 11.3477 11.1077 10.9777
1302.060 10.8777 10.7877 10.7977 10.7877 10.8877 11.0977 11.2777 11.4677 11.6877 11.8577
1321.350 12.0077 12.1177 12.1477 12.1077 12.0177 11.8977 11.6077 11.2377 10.8477 10.3577
1340.640 9.8977 9.4877 9.0077 8.5377 8.1277 7.7377 7.3877 7.0477 6.7477 6.5377
1359.930 6.3577 6.1877 6.0577 5.9777 5.9277 5.8777 5.8277 5.8077 5.8377 5.8677
1379.219 5.8777 5.8977 5.9077 5.9077 5.9977 6.0577 6.0977 6.2077 6.2777 6.4177
1398.509 6.5477 6.6377 6.7977 6.8777 6.9977 7.1577 7.2877 7.4677 7.6077 7.7977
1417.799 8.1177 8.4677 8.9977 9.7977 10.8877 12.3777 14.4477 17.0677 20.1877 23.5377
1437.089 26.9777 30.0677 32.9177 35.7377 38.0677 39.6577 40.9077 41.1277 39.0277 36.1377
1456.378 33.7177 31.3577 28.8277 26.1177 23.6077 21.4177 19.7377 18.5477 17.6977 16.9777
1475.668 16.3677 15.7277 15.0577 14.3477 13.6177 12.9077 12.2077 11.5277 10.8077 10.0977
1494.958 9.4877 8.9177 8.3777 7.8577 7.3877 7.0477 6.7877 6.4677 6.1477 5.9377
1514.248 5.8277 5.6577 5.4577 5.3177 5.1777 5.1377 5.1177 5.0177 4.9577 4.9277
1533.538 4.9477 4.8877 4.8677 4.8777 4.8677 4.8477 4.7877 4.7577 4.7177 4.6577
1552.827 4.5877 4.5577 4.4777 4.3877 4.2477 4.1477 4.0677 3.9377 3.8377 3.6977
1572.117 3.6077 3.5177 3.4177 3.3077 3.2077 3.2077 3.1577 3.0677 3.0277 2.9977
1591.407 2.9277 2.8277 2.7677 2.7077 2.7277 2.7477 2.6577 2.6577 2.6777 2.6777
1610.697 2.6177 2.5677 2.6077 2.6177 2.5377 2.4977 2.4877 2.4277 2.3677 2.2877
1629.986 2.2077 2.1577 2.1177 2.0977 2.0577 2.0577 1.9977 1.9377 1.9177 1.8877
1649.276 1.9077 1.9477 1.9777 1.9877 2.0177 2.0577 2.1277 2.1777 2.2377 2.2777
1668.566 2.3377 2.4477 2.4777 2.5577 2.6277 2.6777 2.7677 2.7977 2.8477 2.9177
1687.856 3.0077 3.0977 3.1777 3.2177 3.2677 3.3177 3.3277 3.4177 3.3977 3.3477
1707.146 3.2877 3.2177 3.1877 3.1377 3.0477 2.9577 2.8477 2.7177 2.6377 2.5177
1726.435 2.4477 2.4077 2.3077 2.2777 2.2177 2.1577 2.1477 2.1577 2.1677 2.1377
1745.725 2.1877 2.2877 2.3377 2.3477 2.3977 2.4777 2.5677 2.6477 2.7177 2.7377
1765.015 2.8077 2.9077 2.9577 2.9677 2.9877 2.9677 2.9377 3.0177 3.0777 3.0177
1784.305 2.8877 2.8377 2.8377 2.7977 2.7177 2.6677 2.5877 2.4277 2.3577 2.3277
1803.594 2.1977 2.0477 1.9677 1.9177 1.8577 1.7977 1.7477 1.7277 1.7677 1.7177
1822.884 1.7277 1.7777 1.7677 1.8177 1.8777 1.9177 1.9477 2.0677 2.1177 2.1677
1842.174 2.2977 2.4577 2.5677 2.6577 2.8477 3.0577 3.1777 3.3477 3.5477 3.6977
1861.464 3.8677 4.0377 4.1077 4.1977 4.2577 4.2477 4.2277 4.1577 4.0077 3.8277
1880.754 3.6377 3.4577 3.2377 2.9477 2.7277 2.5977 2.4677 2.3677 2.1977 2.0577
1900.043 1.9577 1.8877 1.8777 1.8277 1.7477 1.6777 1.5877 1.4977 1.4677 1.4577
1919.333 1.4377 1.3377 1.2877 1.2677 1.1977 1.1177 1.1277 1.1477 1.1177 1.1277
1938.623 1.0977 1.0777 1.0777 1.0677 1.0377 1.0277 1.0577 1.0977 1.1277 1.1377
1957.913 1.1277 1.0977 1.0977 1.1177 1.0777 1.0119 0.9913 0.9357 0.8821 0.8435
1977.202 0.8281 0.8525 0.8474 0.8246 0.8062 0.7846 0.7682 0.79 0.7789 0.7919
1996.492 0.8188 0.8315 0.8568 0.8386 0.8569 0.9555 0.9899 0.994 1.0777 1.1077
2015.782 1.1477 1.2177 1.2577 1.3277 1.4177 1.5077 1.5777 1.6577 1.7977 1.8977
2035.072 2.0177 2.1877 2.2477 2.2677 2.2977 2.4477 2.6077 2.6777 2.7177 2.7977
2054.362 2.8477 2.8777 2.8777 2.9277 3.0177 2.9977 2.9877 3.0177 3.0477 3.0677
2073.651 2.9777 2.8977 2.9077 2.9077 2.8477 2.8277 2.8077 2.8377 2.8977 2.8677
2092.941 2.8877 2.9277 2.9377 2.9977 3.0977 3.1677 3.2077 3.3177 3.4377 3.4877
2112.231 3.5277 3.5377 3.5277 3.5677 3.5677 3.4677 3.3577 3.2977 3.1777 3.0577
2131.521 2.9477 2.7677 2.6377 2.5377 2.3977 2.2977 2.1877 2.0677 2.0177 1.9577
2150.810 1.8377 1.7577 1.7377 1.6977 1.6277 1.5977 1.5577 1.5377 1.5377 1.5277
2170.100 1.4877 1.4477 1.4377 1.4277 1.4477 1.3877 1.3877 1.4577 1.4477 1.4177
2189.390 1.4077 1.4477 1.4777 1.4577 1.5277 1.5977 1.5977 1.6177 1.7077 1.7177
2208.680 1.6677 1.6877 1.7577 1.7777 1.7777 1.7777 1.8077 1.8877 1.9277 1.9577
2227.970 1.9977 2.0077 2.0277 2.0977 2.1477 2.1477 2.1477 2.1977 2.1277 2.0277
2247.259 2.0177 1.9777 1.9677 2.0177 1.9677 1.8277 1.7677 1.7077 1.6777 1.7777
2266.549 1.7477 1.6277 1.6277 1.6177 1.5377 1.4877 1.4377 1.3877 1.3877 1.3977
2285.839 1.3777 1.3477 1.3677 1.3777 1.4177 1.4577 1.4377 1.4777 1.5277 1.5777
2305.129 1.5477 1.4977 1.5177 1.5177 1.5577 1.5577 1.5277 1.5377 1.5377 1.5577
2324.418 1.5577 1.4677 1.4477 1.4477 1.4077 1.4477 1.4577 1.3977 1.4277 1.4177
2343.708 1.3777 1.4077 1.3777 1.3177 1.2777 1.2577 1.2177 1.1077 1.0277 1.0277
2362.998 1.0877 1.1577 1.0977 1.0377 1.0277 0.9874 0.957 0.9248 0.9052 0.8789
2382.288 0.8619 0.8785 0.9452 0.9305 0.8696 0.8322 0.781 0.7795 0.7938 0.76
2401.578 0.6677 0.6489 0.7673 0.7723 0.6979 0.7072 0.6698 0.6219 0.6425 0.627
2420.867 0.5591 0.5532 0.537 0.496 0.5128 0.544 0.5722 0.5735 0.5338 0.5281
2440.157 0.5305 0.5221 0.4843 0.4652 0.4904 0.4995 0.4884 0.4588 0.4507 0.4614
2459.447 0.4848 0.4805 0.4314 0.4521 0.4486 0.4291 0.4427 0.4039 0.3337 0.3005
2478.737 0.2898 0.3493 0.3973 0.2855 0.2539 0.2998 0.3149 0.3039 0.2546 0.231
2498.026 0.3105 0.2927 0.2061 0.2357 0.2475 0.2077 0.2068 0.2771 0.3389 0.2907
2517.316 0.278 0.3456 0.3378 0.2964 0.2819 0.3069 0.3206 0.3404 0.3757 0.4155
2536.606 0.4471 0.427 0.4485 0.4729 0.4915 0.5345 0.5299 0.4947 0.4696 0.4649
2555.896 0.5399 0.6026 0.6316 0.7055 0.7834 0.7239 0.6378 0.7275 0.8313 0.9208
2575.186 0.9603 0.902 0.9307 1.0377 1.0977 1.0677 1.0577 1.0877 1.1177 1.1977
2594.475 1.2777 1.2877 1.3277 1.3577 1.3377 1.3677 1.3677 1.3577 1.3577 1.3377
2613.765 1.2877 1.2577 1.2877 1.2077 1.1377 1.1477 1.1077 1.0877 1.0877 1.0877
2633.055 1.0277 0.9683 0.9771 0.9736 0.9414 0.963 0.9617 0.9509 1.0032 0.9731
2652.345 0.9143 1.0057 1.1077 1.0577 0.9676 1.0777 1.1577 1.0777 1.1177 1.1677
2671.634 1.0977 1.0277 1.0138 1.0877 1.0777 1.0477 1.1277 1.0677 1.0477 1.0877
2690.924 1.1177 1.1577 1.0777 0.967 0.8859 0.8743 0.8712 0.8706 0.8349 0.791
2710.214 0.8903 0.9678 0.9382 0.8629 0.8141 0.8646 0.9014 0.9374 0.8997 0.8959
2729.504 0.9777 0.9899 1.0054 1.0977 1.1377 1.1277 1.1477 1.2277 1.2977 1.3377
2748.794 1.3277 1.3177 1.4377 1.5277 1.4677 1.4477 1.5377 1.5877 1.5777 1.7177
2768.083 1.8577 1.8577 1.8977 1.8977 1.9977 2.2177 2.3577 2.3377 2.3977 2.5777
2787.373 2.7977 2.9577 3.0977 3.2577 3.5177 3.8677 4.0977 4.3377 4.7177 5.0577
2806.663 5.4177 5.8777 6.3377 6.9377 7.6277 8.3277 9.0377 9.8277 10.9177 12.2677
2825.953 13.8277 15.7677 18.3477 21.5277 25.2177 29.5277 34.0977 38.4777 42.3277 45.4577
2845.242 48.2977 51.8577 56.3177 59.1377 57.0477 52.0677 48.3177 45.9177 43.1277 39.1677
2864.532 34.5177 29.8577 25.6177 22.3477 20.0777 18.6277 17.8877 17.6677 17.8377 18.0477
2883.822 18.4677 19.1877 19.9077 20.6877 21.6677 22.6477 23.5177 24.3177 25.3177 26.5377
2903.112 27.8477 29.1777 30.5677 32.1577 33.7277 35.3677 37.0477 38.6777 40.3477 41.9677
2922.401 43.5177 45.0477 46.7677 48.6677 50.9877 54.1077 58.1377 63.1477 69.0977 76.2277
2941.691 84.4077 92.7677 100.588 107.618 113.838 119.858 126.318 131.948 133.308 128.678
2960.981 121.518 115.448 110.608 105.468 99.1077 92.2377 85.6177 79.6877 75.1277 72.1077
2980.271 70.4977 69.7477 69.3677 68.6877 67.7777 66.9177 66.0577 65.2377 64.0477 62.4877
2999.561 60.7177 58.7877 56.8177 54.9277 52.7177 49.8177 46.7277 43.8577 41.2477 38.5377
3018.850 35.6477 33.0477 30.5677 28.1877 26.0777 24.1577 22.5577 21.3377 20.1777 19.0277
3038.140 18.0277 17.2477 16.5977 15.9777 15.5077 15.1077 14.7077 14.3877 14.1377 13.9377
3057.430 13.8577 13.6877 13.5577 13.4377 13.2577 13.2477 13.2277 13.2377 13.1977 13.0077
3076.720 12.9677 12.7377 12.2777 12.0077 11.8077 11.4577 11.0777 10.7877 10.4977 10.1277
3096.009 9.7477 9.2777 8.7077 8.2677 8.0077 7.6777 7.3177 6.9577 6.6277 6.3277
3115.299 5.9677 5.7677 5.4977 5.2277 4.9977 4.6877 4.5877 4.3277 4.0077 3.7577
3134.589 3.4377 3.2377 3.0677 2.9177 2.9077 2.8577 2.6177 2.3777 2.1477 2.0477
3153.879 2.0677 2.0277 1.8777 1.8077 1.7377 1.5777 1.4677 1.3277 1.2777 1.2177
3173.169 1.2577 1.2077 1.0477 1.1177 1.1377 1.1877 1.0877 0.8338 0.8385 0.8754
3192.458 0.9089 0.7767 0.6644 0.6306 0.5886 0.6709 0.6849 0.5811 0.5876 0.6433
3211.748 0.669 0.6974 0.4753 0.3127 0.4603 0.6367 0.6834 0.5978 0.5031 0.5519
3231.038 0.53 0.4549 0.394 0.3508 0.4597 0.4846 0.3365 0.3229 0.3335 0.3135
3250.328 0.3785 0.4304 0.4869 0.5217 0.5275 0.4934 0.4413 0.423 0.3564 0.228
3269.617 0.181 0.3182 0.5567 0.5767 0.5315 0.5675 0.5719 0.5705 0.4618 0.4113
3288.907 0.4494 0.4324 0.4667 0.464 0.5145 0.4027 0.3634 0.4572 0.381 0.4253
3308.197 0.4274 0.2693 0.22 0.1975 0.1587 0.2288 0.2765 0.3276 0.3432 0.3189
3327.487 0.2713 0.1666 0.1286 0.24 0.2789 0.1992 0.2536 0.3155 0.2798 0.3247
3346.777 0.3825 0.4402 0.3755 0.4045 0.4998 0.4204 0.3679 0.4021 0.4519 0.3319
3366.066 0.1967 0.2399 0.2987 0.2395 0.1261 0.261 0.2608 0.2026 0.2653 0.3015
3385.356 0.3885 0.3372 0.2783 0.2303 0.2981 0.3124 0.296 0.2679 0.2132 0.2862
3404.646 0.3567 0.5366 0.4934 0.3833 0.4819 0.2938 0.1521 0.2683 0.302 0.4045
3423.936 0.3896 0.3308 0.3141 0.2695 0.3556 0.333 0.2357 0.21 0.3056 0.5063
3443.225 0.5234 0.4514 0.3876 0.2399 0.1691 0.3516 0.3694 0.2789 0.4461 0.4393
3462.515 0.3432 0.4247 0.506 0.4041 0.3081 0.3428 0.4547 0.53 0.4244 0.4474
3481.805 0.4183 0.2773 0.2975 0.3077 0.2562 0.4323 0.5041 0.2475 0.2068 0.3515
3501.095 0.3542 0.4065 0.3696 0.2778 0.2317 0.2565 0.3883 0.2774 0.271 0.3099
3520.385 0.2629 0.2708 0.29 0.2071 0.2508 0.4258 0.5322 0.3976 0.2394 0.2118
3539.674 0.2986 0.4524 0.418 0.4589 0.4309 0.2829 0.2569 0.4039 0.3956 0.2703
3558.964 0.3215 0.3579 0.2365 0.2922 0.3849 0.2758 0.3387 0.3803 0.3284 0.2882
3578.254 0.1708 0.2507 0.3782 0.4354 0.4345 0.4809 0.4546 0.3178 0.3361 0.3385
3597.544 0.32 0.4001 0.3091 0.2088 0.2437 0.2142 0.2545 0.3747 0.4096 0.3024
3616.833 0.3451 0.3595 0.2755 0.1744 0.0034 0 0.1611 0.1305 0.1211 0.2286
3636.123 0.1945 0.09283 0.01016 0.07235 0.235 0.3066 0.298 0.2719 0.06623 0.06445
3655.413 0.3227 0.4155 0.3886 0.3294 0.4149 0.4652 0.4553 0.4035 0.3642 0.4162
3674.703 0.2634 0.1443 0.3473 0.3695 0.2616 0.2727 0.2323 0.2195 0.2784 0.2679
3693.993 0.2898 0.2681 0.1824 0.2274 0.223 0.2309 0.227 0.07104 0.1551 0.3037
3713.282 0.3018 0.2821 0.3353 0.3735 0.2942 0.2175 0.3033 0.4238 0.3702 0.3164
3732.572 0.4126 0.5331 0.4592 0.4568 0.4447 0.495 0.4511 0.4124 0.3955 0.3637
3751.862 0.4433 0.4487 0.4903 0.409 0.3955 0.5283 0.4034 0.1531 0.1189 0.2388
3771.152 0.3954 0.3462 0.2089 0.3547 0.5366 0.4666 0.3653 0.2412 0.239 0.3146
3790.441 0.3001 0.3479 0.2451 0.2451 0.2876 0.3517 0.42 0.3863 0.4113 0.2347
3809.731 0.2438 0.2799 0.2123 0.3289 0.3529 0.2117 0.2445 0.4475 0.4029 0.2456
3829.021 0.4654 0.6638 0.4293 0.343 0.4476 0.2289 0.10681 0.3225 0.3656 0.3805
3848.311 0.469 0.3717 0.2869 0.2983 0.2563 0.3322 0.2207 0.267 0.4256 0.4365
3867.601 0.5897 0.7491 0.6895 0.5129 0.623 0.6188 0.5774 0.5805 0.4475 0.5762
3886.890 0.7475 0.7513 0.6999 0.718 0.7517 0.6168 0.4891 0.5183 0.3841 0.3932
3906.180 0.4942 0.3826 0.3006 0.3653 0.4239 0.5038 0.5847 0.4013 0.5277 0.6925
3925.470 0.458 0.3909 0.4958 0.7294 0.9214 0.7686 0.7499 0.7219 0.7082 0.706
3944.760 0.5894 0.6532 0.8581 0.9098 0.7565 0.8469 0.9043 0.8138 0.9901 1.1577
3964.049 0.9816 0.9062 1.0109 1.0977 1.2377 1.3177 1.2877 1.3477 1.3077 1.2977
3983.339 1.4277 1.5477 1.4377 1.2977 1.3377 1.2377 1.3077 1.3977 1.3377 1.2377
##END=
