##TITLE=3-Bromophenacyl bromide
##JCAMP-DX=4.24
##DATA TYPE=INFRARED SPECTRUM
##ORIGIN=EPA-IR VAPOR PHASE LIBRARY
##OWNER=SRD/NIST
Collection (C) 2018 copyright by the U.S. Secretary of Commerce
on behalf of the United States of America. All rights reserved.
##CAS REGISTRY NO=18523-22-3
##MOLFORM=C 8 H 6 Br 2 O
##$NIST SOURCE=MSDC-IR
##STATE=gas
##XUNITS=1/CM
##YUNITS=ABSORBANCE
##XFACTOR=1.
##YFACTOR=0.001
##DELTAX=1.92898
##FIRSTX=549.8
##LASTX=4000.7
##FIRSTY=2.88
##MAXX=4000.7
##MINX=549.759
##MAXY=0.09381
##MINY=0
##NPOINTS=1790
##XYDATA=(X++(Y..Y))
549.759 2.88 3.22 3.09 3.36 3.3 3.15 3.3 3.23 3.42 3.7
569.049 3.64 2.66 2.39 3.7 3.84 2.85 2.77 3.15 3.07 3.15
588.339 3.45 4.18 4.5 4.21 4.78 5.02 5.39 6.47 7.25 9.07
607.628 12.24 15.85 19.31 22.14 24.08 25.45 25.36 23.51 21.34 18.27
626.918 15.15 13.31 11.55 10.3 10.12 9.14 7.74 7.1 6.29 5.66
646.208 6.51 7.66 8.94 11.54 14.92 19.21 23.98 27.56 29.91 31.15
665.498 30.15 28.38 26.82 25.39 23.8 21.71 19.96 18.15 16.05 13.79
684.787 11.99 10.81 9.5 8.2 7.55 7.35 6.74 6.34 6.23 5.36
704.077 4.85 5 5.41 5.15 4.4 4.66 4.86 4.74 5.03 5.19
723.367 5.55 6.61 6.65 6.48 7.46 7.99 8.2 9.23 9.51 8.98
742.657 8.66 8.6 8.54 7.9 7.19 6.93 7.07 7.17 7.53 8.36
761.947 8.92 9.74 10.76 11.94 13.8 15.36 16.75 17.81 18.89 19.21
781.236 19.02 18.52 18.21 18.41 18.19 18.24 17.65 16.63 15.41 14.37
800.526 13.08 11.54 9.58 7.43 6.52 5.27 4.31 3.77 3.16 3.01
819.816 2.94 3.89 4.39 2.89 2.43 3.02 3.11 3.16 3.04 3.09
839.106 2.84 2.57 2.58 2.26 2.0688 2.43 2.4 2.0563 2.37 2.17
858.395 2.1327 2.87 2.99 2.76 2.93 4.01 4.73 4.19 3.91 4.6
877.685 5.14 4.92 4.71 4.88 4.89 4.43 3.95 4.21 4.51 4.31
896.975 3.99 4.24 4.57 4.45 4.34 4.02 4.07 4.18 3.95 3.86
916.265 3.74 3.23 2.93 3.23 3.43 2.98 2.31 2.1376 1.9941 2.0059
935.555 2.35 2.0167 1.9883 2.37 2.23 2.27 2.41 2.62 2.67 2.32
954.844 1.9551 1.947 2.1156 2.28 2.74 3.34 3.46 3.3 3.48 3.56
974.134 3.57 3.42 4.17 5.3 5.37 6.31 7.43 7.62 8.35 9.65
993.424 10.53 11.16 11.76 12.32 12.76 13.15 13.19 13.25 15.06 16.54
1012.714 16.91 16.82 16.52 16.66 17.1 16.78 15.42 14.09 12.77 10.67
1032.003 8.79 8.56 8.66 7.56 7.17 7.45 7.08 6.26 5.12 5.71
1051.293 6.73 6.78 6.33 6.96 9.06 10.55 10.87 10.84 10.97 11.2
1070.583 11.44 11.91 12.26 11.11 9.91 9.5 9.34 10.02 10.82 10.23
1089.873 9.61 9.12 8.4 7.65 6.76 7.61 8.74 8.2 8.02 8.85
1109.163 9.59 10.23 11.14 12.45 14.09 13.49 12.07 12.67 12.14 10.71
1128.452 8.73 7.16 6.6 4.91 4.78 5.79 5.73 6.54 6.69 5.45
1147.742 5.44 6.72 6.75 5.89 6.22 7.09 7.54 7.94 8.69 10.27
1167.032 11.75 13.01 13.73 14.58 16.32 16.73 17.04 19.04 21.65 23.49
1186.322 24.52 24.08 23.4 24.33 25.09 24.12 24.44 24.88 24.1 23.39
1205.611 21.45 19.6 18.84 16.9 13.69 11.99 11.82 12.68 13.49 14.78
1224.901 15.08 15.08 16.31 17.58 19.05 21.16 23.82 26.81 31.24 37.35
1244.191 44.36 52.44 61.92 71.69 79.41 85.82 90.36 91.04 87.65 79.85
1263.481 70.89 62.82 56.23 52.2 50.52 50.07 49.55 48.7 47.84 45.1
1282.771 41.04 36.98 32.07 27.63 23.65 20.31 18.21 16.66 15.39 14.23
1302.060 13.22 12.23 10.81 9.27 8.14 7.22 6.15 5.32 4.98 4.54
1321.350 4.07 3.8 3.42 3.25 3.07 2.91 2.83 2.75 2.72 2.69
1340.640 2.64 2.59 2.43 2.16 2.31 2.56 2.52 2.37 2.39 2.5
1359.930 2.6 2.68 2.72 2.74 2.82 2.93 3.03 3.04 3.23 3.53
1379.219 3.66 3.8 4.11 4.39 4.59 4.86 5.19 5.57 6.16 7.01
1398.509 7.89 8.93 10.02 11.35 13 14.76 16.69 18.7 20.34 21.42
1417.799 22.37 23.32 24.12 25.21 26.9 28.65 29.53 28.74 26.1 22.46
1437.089 17.96 13.48 9.93 7.72 6.63 5.75 4.94 4.74 4.78 4.73
1456.378 4.74 4.84 5.15 5.69 6.44 7.45 8.51 9.3 9.76 9.89
1475.668 9.53 8.8 7.88 6.6 5.45 4.68 3.95 3.28 2.84 2.52
1494.958 2.44 2.4 2.35 2.21 2.0903 2.46 2.59 2.61 2.64 2.61
1514.248 2.65 2.62 2.84 3.06 3.24 3.48 3.48 3.71 4.09 4.17
1533.538 4.46 4.67 4.89 5.32 5.74 6.37 7.14 7.82 8.78 10.16
1552.827 11.78 13.96 15.89 18.33 21.13 23.43 25.6 27.09 27.8 27.23
1572.117 25.59 23 19.54 16.2 13.59 11.39 9.56 8.06 7.13 6.75
1591.407 6.26 5.77 5.45 5.06 4.64 4.21 3.41 2.8 2.9 3.09
1610.697 3.07 2.78 2.7 2.9 2.68 2.56 2.55 2.5 2.55 2.75
1629.986 2.83 2.69 2.74 2.68 2.71 2.89 2.97 3.13 3.3 3.41
1649.276 3.5 3.56 3.95 4.11 4.28 4.87 5.23 5.4 5.92 6.59
1668.566 6.82 7.4 8.34 9.05 10.01 11.26 12.55 14.22 16.84 20.14
1687.856 24.59 30.74 38.51 47.87 59.28 71.15 81.67 90.1 93.81 93.17
1707.146 87.98 78.85 67.54 56.92 48.19 41.22 35.15 30.78 27.58 24.7
1726.435 22.23 19.94 17.7 15.67 13.34 11.42 10.03 8.82 8 7.2
1745.725 6.7 6.39 6.02 5.55 5.21 5.11 4.88 4.51 4.23 3.84
1765.015 3.64 3.51 3.36 3.47 3.24 2.99 2.91 2.83 2.77 2.69
1784.305 2.64 2.82 3.07 2.9 2.71 2.64 2.75 2.84 2.87 2.74
1803.594 2.7 2.8 2.75 2.73 2.71 2.64 2.53 2.61 2.57 2.29
1822.884 2.1446 2.16 2.0872 2.0029 1.9342 1.8919 1.8967 1.8054 1.9832 1.9563
1842.174 1.8484 1.8945 1.8143 1.7625 1.7769 1.7937 1.8288 2.0155 1.8304 1.7939
1861.464 2.1212 2.19 2.38 2.42 2.39 2.48 2.54 2.55 2.44 2.27
1880.754 2.1151 2.18 2.1466 2.17 2.3 2.29 2.1439 2.0807 2.19 2.18
1900.043 2.1312 2.0664 1.8736 1.6901 1.744 1.81 1.6285 1.4705 1.6702 1.8932
1919.333 1.6741 1.4788 1.4474 1.5495 1.7131 1.7932 1.8622 1.9249 1.9423 2.001
1938.623 1.9368 1.8526 1.9264 1.8499 1.8262 1.9191 1.9558 1.8991 1.9024 1.7817
1957.913 1.6207 1.5941 1.6406 1.491 1.409 1.4834 1.3794 1.4609 1.5252 1.3656
1977.202 1.18398 1.16778 1.2107 1.313 1.2815 1.21284 1.3421 1.4282 1.329 1.20934
1996.492 1.2975 1.3679 1.4652 1.5035 1.3988 1.1396 1.0784 1.3605 1.3169 1.1414
2015.782 1.3051 1.4951 1.3245 1.16542 1.3278 1.3133 1.2969 1.4539 1.3289 1.20139
2035.072 1.3707 1.4717 1.3873 1.3928 1.4855 1.5241 1.397 1.3858 1.3596 1.1078
2054.362 1.016 1.1207 1.2784 1.25984 1.2967 1.303 1.20666 1.1136 1.042 0.966
2073.651 0.927 1.0813 1.21126 1.21185 1.0691 0.966 0.937 0.992 1.048 1.0674
2092.941 1.0915 1.1193 1.23112 1.3877 1.2984 1.18039 1.1014 1.017 0.936 0.754
2112.231 0.841 1.15867 1.3414 1.3006 1.20541 1.013 0.841 0.87 1.0928 1.19775
2131.521 0.982 1.041 1.19086 0.919 0.945 1.1038 1.1106 1.0858 0.976 1.019
2150.810 1.3526 1.4488 1.1289 0.809 0.771 0.947 0.867 0.914 1.16876 1.15694
2170.100 1.1854 1.2863 1.17605 1.05 0.984 1.0888 1.1328 1.1493 1.15017 0.867
2189.390 0.738 0.865 0.78 0.826 1.1018 1.2025 1.1273 0.978 1.024 1.108
2208.680 1.132 1.1252 1.04 1.1261 1.1243 1.15887 1.3428 1.25914 1.16173 0.995
2227.970 0.946 1.035 0.921 0.84 1.015 1.05 0.938 1.17267 1.3031 1.20907
2247.259 1.1373 0.997 1.017 1.0697 1.027 1.377 1.4747 1.1213 1.1473 1.22415
2266.549 0.954 0.878 1.025 0.994 0.879 0.962 0.954 0.78 1.042 1.039
2285.839 0.861 1.18337 1.3406 1.359 1.25119 1.2931 1.444 1.3167 1.134 1.21708
2305.129 1.3651 1.2875 1.25082 1.1328 1.1446 1.5255 1.5715 1.25099 1.17287 1.4688
2324.418 1.3487 1.011 1.0899 1.2919 1.19466 1.021 1.0874 1.1227 1.3219 1.24585
2343.708 1.23114 1.5161 1.4014 1.18353 1.2652 1.25234 1.20533 1.1339 0.799 0.844
2362.998 1.3375 1.3706 1.141 0.976 0.994 1.17026 1.2601 1.1323 1.003 0.99
2382.288 1.1341 1.20992 1.1053 1.19436 1.3492 1.3061 1.1296 1.328 1.3318 1.0872
2401.578 1.045 1.012 1.008 1.1454 1.19379 0.996 0.939 1.0971 0.86 0.524
2420.867 0.749 1.0702 1.2623 1.2984 1.16813 1.1121 1.22015 1.20174 1.0903 1.17369
2440.157 0.969 0.803 1.0757 1.18395 1.16332 1.23085 1.4042 1.16245 0.806 0.714
2459.447 0.813 1.24854 1.1361 1.026 1.25905 1.17734 0.941 0.732 0.996 1.18189
2478.737 1.002 1.16703 1.111 0.938 1.059 1.1041 1.026 0.982 1.004 1.1066
2498.026 1.2711 1.1905 1.038 1.0872 1.19351 1.17256 1.25728 1.15766 0.891 1.15606
2517.316 1.3989 1.1457 1.3878 1.5511 1.3283 1.3588 1.2847 1.24282 1.5984 1.4445
2536.606 1.22234 1.4941 1.4285 0.969 0.671 0.665 0.82 1.047 1.044 1.0889
2555.896 1.0747 1.18805 1.366 1.4089 1.20995 1.0693 1.1032 1.1405 1.101 1.019
2575.186 1.1347 1.0784 0.896 0.82 0.922 1.02 1.0929 0.842 0.632 0.993
2594.475 1.051 0.734 0.826 0.921 0.777 0.814 0.908 0.757 0.726 0.913
2613.765 0.901 0.746 0.76 0.94 0.812 0.683 0.734 1.1377 1.0834 0.826
2633.055 1.051 0.972 0.589 0.547 0.793 1.1463 1.2632 0.787 0.739 0.619
2652.345 0.377 0.593 0.709 1.033 1.0651 1.3653 1.3522 0.83 1.011 0.794
2671.634 0.819 1.16752 1.1234 0.991 1.006 0.945 0.934 0.967 0.943 1.1428
2690.924 0.888 0.85 1.053 1.1086 1.1413 1.24048 1.31 0.802 1.007 1.009
2710.214 0.803 1.011 0.785 0.895 1.18131 1.1199 1.055 1.20043 1.25166 1.17895
2729.504 0.907 0.721 1.1373 1.1353 0.949 0.959 0.956 1.0943 0.901 0.896
2748.794 0.95 0.942 1.1424 1.33 1.0785 0.97 1.18127 1.18371 0.914 0.661
2768.083 0.553 0.716 0.938 0.975 1.1272 1.3082 1.5035 1.0803 0.934 0.981
2787.373 0.619 0.539 0.909 1.1432 1.1196 1.0896 0.556 0.289 0.609 0.964
2806.663 0.818 0.621 0.729 0.665 0.839 0.984 1.028 1.141 1.04 1.035
2825.953 1.1095 1.1112 0.945 1.002 1.2037 1.24289 1.363 1.21121 1.177 1.17229
2845.242 0.868 0.97 1.073 1.3149 1.3326 1.1239 1.3902 1.5443 1.4278 1.1101
2864.532 1.1393 1.3994 0.978 0.86 1.1342 0.835 0.484 0.545 0.824 0.951
2883.822 0.848 0.654 0.72 0.913 0.946 1.1088 1.0871 0.493 0.226 0.287
2903.112 0.296 0.602 0.801 0.815 1.03 1.1062 0.995 0.756 0.852 1.022
2922.401 0.804 0.587 0.797 1.0868 1.017 1.024 1.17006 1.5467 1.8185 1.7029
2941.691 2.0733 2.27 2.3 2.43 2.67 3.11 2.87 2.74 3.02 3.36
2960.981 3.26 3.04 2.87 2.6 2.99 2.92 2.83 3.33 3.48 3.67
2980.271 3.68 4.03 3.82 3.15 3.22 2.84 2.17 1.8274 1.81 1.6063
2999.561 1.25418 1.23955 1.24908 1.17893 1.4415 1.9022 1.7704 1.818 1.8779 1.6493
3018.850 1.5848 1.0676 0.902 1.4886 1.8381 1.9876 1.6555 1.4333 1.9431 2.2
3038.140 1.9883 2.32 2.56 2.41 2.17 2.4 2.62 2.1145 2.28 2.54
3057.430 2.59 3.07 3.86 4.38 5.07 5.58 6.23 7.03 7.35 7.99
3076.720 8.02 7.6 7.45 7.07 6.08 5.38 5.02 4.13 3.54 3.24
3096.009 3.1 3.09 2.54 2.19 2.41 1.9879 1.474 1.4216 1.3615 1.4254
3115.299 1.7921 1.5866 1.058 0.85 0.964 1.4428 1.6128 1.3739 0.904 0.854
3134.589 0.768 0.747 1.20143 1.1815 0.992 1.1262 1.5053 1.3366 1.0939 1.038
3153.879 1.0944 1.1405 0.552 0.446 0.969 1.015 0.703 0.738 0.923 0.791
3173.169 0.589 0.88 0.904 0.597 0.734 1.088 0.968 0.538 0.401 0.52
3192.458 0.732 0.533 0.552 1.023 0.584 0.254 0.2 0.312 0.468 0.716
3211.748 1.012 1.001 0.9 0.485 0.554 0.677 0.487 0.681 0.772 0.467
3231.038 0.702 1.16044 1.0989 0.593 0.418 0.71 0.952 1.24022 1.4186 1.5576
3250.328 1.4047 1.24053 1.012 0.628 0.714 0.711 0.437 0.552 0.741 0.508
3269.617 0.522 0.441 0.515 0.828 1.18622 0.876 0.645 0.498 0 0.578
3288.907 1.19247 1.0729 0.94 1.0981 1.0843 0.854 0.816 1.3217 1.012 0.607
3308.197 1.048 1.051 0.933 0.936 0.504 0.201 0.346 0.16 0.11 0.377
3327.487 1.03 1.2772 1.057 1.23313 0.661 0.28 0.393 0.928 1.2877 1.1175
3346.777 1.2897 1.15087 1.18265 1.16758 1.1099 1.4457 1.21696 1.3255 1.5049 1.2885
3366.066 1.037 0.614 1.16105 1.9163 1.819 1.9117 2.39 2.63 2.67 2.42
3385.356 2.63 2.73 2.39 2.41 2.26 1.8941 1.7323 1.7261 1.5374 1.20633
3404.646 1.2658 1.7766 1.9107 1.8364 1.4404 1.16036 1.4914 1.3375 1.2789 1.6772
3423.936 1.7649 1.7246 1.5524 0.665 0.64 1.69 1.6433 0.953 0.709 0.648
3443.225 1.056 1.047 0.797 0.711 0.663 0.436 0.369 0.707 1.1436 1.2987
3462.515 0.867 0.876 1.2695 1.1491 0.904 0.792 1.03 1.18784 0.854 0.581
3481.805 0.319 0.871 1.1121 0.927 1.24998 1.24439 0.977 0.572 0.938 1.7523
3501.095 1.6143 1.5651 1.3409 1.0815 1.1299 0.996 0.92 1.021 0.817 0.603
3520.385 0.615 0.513 0.77 1.14 1.23675 1.5327 1.6949 1.049 0.526 0.431
3539.674 0.948 1.128 0.663 0.493 0.815 0.885 0.447 0.532 0.667 0.832
3558.964 1.18767 1.3314 0.796 0.696 1.22394 0.725 0.619 1 0.506 0.519
3578.254 0.928 0.808 0.868 0.925 0.815 0.685 0.78 0.907 0.876 0.853
3597.544 0.711 0.674 0.739 1.053 0.906 0.739 1.23673 1.6227 1.8767 1.647
3616.833 1.3034 0.634 0.15 0.599 0.973 0.571 0.448 1.1317 1.16593 0.986
3636.123 1.3094 1.3784 1.106 0.544 0.194 0.291 0.956 1.3319 1.024 1.15168
3655.413 1.18117 1.13 0.957 0.491 0.264 0.692 0.969 0.722 0.512 0.299
3674.703 0.501 0.841 0.761 0.64 0.231 0.34 0.697 0.538 0.588 0.836
3693.993 1.23648 1.3306 0.901 1.18942 1.3295 1.4378 1.6168 0.999 0.907 1.2786
3713.282 1.5141 1.6369 1.4668 1.23892 1.3453 1.3508 0.919 0.979 1.3734 1.3939
3732.572 1.3497 1.22884 0.649 0.455 1.20685 1.19568 1.1109 1.2951 1.16728 1.3655
3751.862 1.6045 1.6101 1.2651 1.3815 1.3038 0.726 0.748 0.778 0.641 0.776
3771.152 1.0881 0.878 0.811 0.844 0.821 1.2906 1.2504 1.4229 1.8251 1.4994
3790.441 0.852 0.932 1.0966 0.991 1.288 1.5203 1.5287 1.4235 1.0621 0.471
3809.731 0.54 0.554 0.541 0.981 1.3134 1.4224 1.5128 1.2955 0.684 0.392
3829.021 0.278 0.668 1.21982 1.022 1.0793 1.345 0.826 0.381 0.55 0.716
3848.311 0.315 0.853 1.6453 1.3464 1.22954 1.16388 0.992 0.839 0.717 0.818
3867.601 1.4552 1.513 1.007 1.15565 1.2937 1.264 0.951 0.871 1.5767 1.5295
3886.890 1.4557 1.5749 1.4285 1.4724 1.273 0.927 0.946 1.18824 1.22465 0.684
3906.180 0.58 0.871 0.942 0.635 0.422 0.79 0.898 0.843 0.637 0.657
3925.470 0.956 0.695 0.741 1.4286 2.0376 1.9111 0.975 0.919 1.051 0.779
3944.760 0.815 1.24155 1.3944 1.24646 1.3948 1.19587 1.21102 1.4093 1.335 1.001
3964.049 0.407 0.484 0.941 1.3201 1.2652 0.907 0.728 0.962 1.3099 1.054
3983.339 0.941 0.655 0.15 0.254 0.503 0.376 0.13 0.366 0.584 1.057
##END=
