##TITLE=exo-2-Norbornyl isothiocyanate
##JCAMP-DX=4.24
##DATA TYPE=INFRARED SPECTRUM
##ORIGIN=EPA-IR VAPOR PHASE LIBRARY
##OWNER=SRD/NIST
Collection (C) 2018 copyright by the U.S. Secretary of Commerce
on behalf of the United States of America. All rights reserved.
##CAS REGISTRY NO=18530-33-1
##MOLFORM=C 8 H 11 N S
##$NIST SOURCE=MSDC-IR
##STATE=gas
##XUNITS=1/CM
##YUNITS=ABSORBANCE
##XFACTOR=1.
##YFACTOR=0.001
##DELTAX=1.92898
##FIRSTX=549.8
##LASTX=4000.7
##FIRSTY=7.905
##MAXX=4000.7
##MINX=549.759
##MAXY=0.261365
##MINY=0
##NPOINTS=1790
##XYDATA=(X++(Y..Y))
549.759 7.905 7.165 6.705 6.245 5.795 5.335 5.045 4.645 4.495 4.505
569.049 3.935 3.445 3.425 3.085 2.975 3.265 2.975 2.395 2.365 2.385
588.339 2.395 2.595 2.785 2.955 3.035 2.895 2.745 2.675 2.785 2.735
607.628 2.815 3.055 2.885 2.725 2.705 2.835 3.105 3.235 3.055 2.985
626.918 2.915 2.825 2.995 2.925 2.745 2.505 2.415 2.235 2.335 2.465
646.208 2.185 2.125 2.135 2.355 2.795 3.045 3.125 3.235 3.595 3.955
665.498 4.025 4.245 4.365 4.795 5.555 6.015 6.635 7.355 8.075 8.605
684.787 8.795 9.085 9.135 8.725 8.255 7.795 7.175 6.295 5.465 4.695
704.077 4.045 3.555 3.175 2.675 2.305 2.305 2.225 2.165 2.325 2.345
723.367 2.135 2.105 2.265 2.485 2.445 2.385 2.505 2.385 2.455 2.745
742.657 2.775 2.835 3.305 3.795 4.095 4.505 4.945 5.405 5.905 6.495
761.947 6.815 6.565 6.125 5.695 5.055 4.465 4.025 3.425 2.755 2.545
781.236 2.605 2.475 2.645 2.885 3.055 3.205 3.565 4.075 4.425 4.965
800.526 5.545 5.725 5.595 5.635 5.465 5.115 4.745 4.225 3.725 3.405
819.816 3.185 3.085 3.225 3.235 3.085 3.185 3.565 3.805 3.845 3.785
839.106 3.705 3.715 3.995 4.035 3.745 3.505 3.515 3.635 3.515 3.985
858.395 4.975 5.605 6.145 6.625 6.705 6.995 7.245 7.215 6.885 6.295
877.685 5.645 5.105 4.965 4.975 4.675 4.345 4.095 3.885 3.685 3.625
896.975 3.625 3.525 3.395 3.315 3.465 3.555 3.885 4.135 4.025 4.465
916.265 4.855 4.785 4.845 5.015 5.325 5.485 5.645 5.935 6.485 7.635
935.555 8.975 10.375 11.635 12.365 12.585 12.665 12.825 12.335 10.785 8.765
954.844 6.935 5.665 4.805 4.275 3.955 3.545 3.275 3.035 2.795 2.765
974.134 2.825 2.845 2.825 2.805 2.725 2.545 2.655 2.895 2.955 2.915
993.424 2.725 2.895 3.035 2.915 3.175 3.195 2.935 2.835 2.865 2.685
1012.714 2.515 2.605 2.615 2.835 3.445 3.805 3.795 4.085 4.185 4.055
1032.003 4.315 4.535 4.485 4.025 3.785 3.565 2.985 2.765 2.605 2.515
1051.293 2.455 2.335 2.245 2.295 2.185 1.955 2.175 2.475 2.465 2.255
1070.583 2.095 2.145 2.245 2.305 2.355 2.485 2.575 2.895 3.025 2.895
1089.873 3.375 3.585 3.655 3.725 3.995 4.345 4.545 4.465 4.415 4.705
1109.163 4.795 5.035 5.055 4.635 4.375 4.545 4.745 4.655 4.365 4.125
1128.452 3.925 3.755 3.485 3.095 2.755 2.875 2.795 2.765 2.935 2.765
1147.742 2.835 3.015 3.055 3.185 3.085 2.575 2.395 2.415 2.355 2.385
1167.032 2.515 2.405 2.575 2.805 2.665 2.615 2.555 2.515 2.435 2.245
1186.322 2.145 2.115 1.885 2.005 2.505 2.845 2.715 2.495 2.705 3.235
1205.611 3.375 3.335 4.035 4.395 4.095 3.995 4.255 3.845 3.215 3.145
1224.901 2.715 2.345 2.315 2.135 2.125 2.405 2.755 2.595 2.325 2.535
1244.191 2.625 2.705 2.965 3.105 3.135 3.245 3.215 3.165 3.565 3.965
1263.481 4.145 4.315 4.275 4.475 4.815 4.985 5.315 5.695 6.135 6.655
1282.771 7.025 7.465 8.045 8.725 9.745 10.995 12.385 13.905 15.675 17.245
1302.060 18.115 18.425 18.495 18.385 17.725 16.645 15.215 13.665 12.435 11.745
1321.350 11.665 12.045 13.015 14.745 17.375 21.135 26.115 32.275 39.155 45.575
1340.640 50.375 52.675 53.025 52.155 49.855 45.815 39.815 32.655 25.645 19.755
1359.930 15.295 12.145 9.905 8.305 7.175 6.335 5.625 5.105 4.755 4.445
1379.219 4.155 3.875 3.635 3.405 3.195 3.015 2.815 2.645 2.515 2.355
1398.509 2.165 1.985 1.945 1.915 1.825 1.745 1.735 1.765 1.755 1.755
1417.799 1.845 1.965 1.965 2.065 2.205 2.375 2.655 2.985 3.325 3.765
1437.089 4.255 4.825 5.465 6.095 6.855 7.535 8.185 8.885 9.375 9.565
1456.378 9.605 9.515 9.385 9.065 8.475 7.845 7.235 6.805 6.615 6.575
1475.668 6.635 6.635 6.415 6.085 5.815 5.585 5.195 4.595 3.925 3.255
1494.958 2.705 2.275 1.945 1.835 1.725 1.5385 1.3894 1.2756 1.2157 1.2343
1514.248 1.1747 1.1369 1.1484 1.0756 0.9966 0.9443 0.9614 1.0085 0.9971 0.8817
1533.538 0.8701 0.9383 0.9375 0.924 0.9165 0.9784 0.9497 0.9353 1.0247 1.0918
1552.827 1.0863 1.0337 1.1053 1.1666 1.0768 1.0895 1.0864 1.0285 1.1856 1.2457
1572.117 1.0722 1.0939 1.1855 1.1337 1.1419 1.1656 1.1022 1.0853 1.1561 1.1879
1591.407 1.2055 1.1671 1.1739 1.1659 1.1423 1.1078 1.0328 1.0771 1.1038 1.0138
1610.697 1.0321 1.0253 0.9929 0.9907 0.8586 0.8315 0.8546 0.8348 0.8939 1.0055
1629.986 1.0586 1.0274 0.9857 1.0686 1.0963 1.039 1.0537 1.0627 0.9913 0.9133
1649.276 0.8631 0.8349 0.914 0.9378 0.8531 0.8356 0.8985 0.9571 1.027 1.0358
1668.566 0.9948 1.026 1.0425 1.0332 1.0273 1.0097 1.0603 1.099 1.1092 1.1378
1687.856 1.2084 1.2598 1.2169 1.2288 1.3561 1.3789 1.4326 1.4165 1.3231 1.3472
1707.146 1.387 1.3728 1.3605 1.391 1.3661 1.3743 1.3983 1.3997 1.3619 1.3348
1726.435 1.2972 1.2515 1.2532 1.2807 1.2513 1.2432 1.2766 1.3011 1.2919 1.2423
1745.725 1.2504 1.2355 1.2441 1.2304 1.1876 1.2456 1.3252 1.2719 1.2245 1.2657
1765.015 1.3006 1.3081 1.2832 1.3279 1.3951 1.4183 1.4337 1.4534 1.4541 1.3864
1784.305 1.414 1.4794 1.4554 1.501 1.512 1.5083 1.575 1.5596 1.585 1.625
1803.594 1.5024 1.4908 1.5255 1.5207 1.5257 1.5059 1.5164 1.484 1.4751 1.5219
1822.884 1.4884 1.4541 1.4782 1.5003 1.4928 1.4834 1.5375 1.575 1.5634 1.605
1842.174 1.715 1.735 1.665 1.675 1.765 1.815 1.815 1.805 1.885 1.985
1861.464 2.075 2.105 2.185 2.325 2.405 2.465 2.555 2.685 2.785 2.895
1880.754 3.055 3.215 3.415 3.665 3.895 4.095 4.285 4.525 4.775 5.035
1900.043 5.235 5.445 5.645 5.805 5.995 6.195 6.605 6.985 7.285 7.715
1919.333 8.105 8.525 9.035 9.535 10.045 10.685 11.375 12.065 12.785 13.605
1938.623 14.545 15.465 16.465 17.575 18.665 19.935 21.335 22.665 24.135 25.715
1957.913 27.235 28.845 30.525 32.155 33.735 35.285 36.825 38.345 39.815 41.335
1977.202 42.985 44.805 46.865 49.095 51.555 54.355 57.585 61.115 64.865 69.025
1996.492 73.645 78.645 83.975 89.695 95.915 102.635 109.875 117.435 125.275 133.495
2015.782 142.075 150.885 159.675 168.365 176.915 185.235 193.155 200.465 207.225 213.595
2035.072 219.485 225.045 230.505 235.795 240.845 245.425 249.565 253.185 256.055 258.225
2054.362 259.885 260.845 261.265 261.365 261.125 260.795 260.045 258.505 255.435 249.705
2073.651 240.655 228.415 213.975 198.515 182.745 166.975 151.625 137.325 124.565 113.435
2092.941 104.045 96.515 90.455 85.695 82.265 79.905 78.435 77.765 77.625 77.955
2112.231 78.745 79.775 81.125 82.715 84.295 85.865 87.395 88.895 90.265 91.495
2131.521 92.605 93.325 93.325 92.455 90.525 87.655 84.005 79.645 74.585 68.735
2150.810 62.615 56.665 51.205 46.235 41.795 37.985 34.655 31.845 29.725 27.975
2170.100 26.645 25.745 24.895 24.285 23.875 23.455 23.155 22.975 22.825 22.665
2189.390 22.615 22.665 22.645 22.655 22.735 22.885 23.135 23.415 23.505 23.315
2208.680 22.985 22.565 21.805 20.925 19.925 18.615 17.135 15.555 14.095 12.785
2227.970 11.425 10.275 9.375 8.545 7.895 7.305 6.815 6.535 6.335 6.105
2247.259 5.995 5.885 5.805 5.905 5.955 5.955 5.915 5.905 5.905 5.755
2266.549 5.665 5.605 5.555 5.435 5.205 5.065 5.005 4.825 4.595 4.405
2285.839 4.155 3.935 3.655 3.335 3.065 2.835 2.745 2.635 2.465 2.375
2305.129 2.345 2.365 2.385 2.365 2.335 2.235 2.135 2.155 2.165 2.165
2324.418 2.245 2.265 2.195 2.115 2.055 1.985 1.935 1.915 1.905 1.845
2343.708 1.745 1.715 1.695 1.685 1.665 1.685 1.705 1.735 1.735 1.625
2362.998 1.595 1.655 1.735 1.775 1.785 1.855 1.915 1.995 2.105 2.055
2382.288 2.035 2.065 2.125 2.135 2.065 2.035 2.115 2.165 2.055 1.955
2401.578 2.045 2.095 2.135 2.205 2.125 2.095 2.105 2.105 2.065 2.035
2420.867 2.075 1.985 1.945 1.975 1.915 1.865 1.885 1.895 1.795 1.655
2440.157 1.5508 1.4799 1.595 1.605 1.4501 1.4315 1.4099 1.4634 1.4283 1.3496
2459.447 1.3513 1.3349 1.4192 1.4778 1.444 1.4723 1.5102 1.595 1.655 1.605
2478.737 1.551 1.5512 1.665 1.725 1.605 1.595 1.645 1.635 1.685 1.725
2498.026 1.725 1.735 1.725 1.705 1.725 1.695 1.745 1.755 1.715 1.715
2517.316 1.705 1.755 1.785 1.705 1.705 1.765 1.725 1.725 1.745 1.755
2536.606 1.875 1.915 1.905 2.005 2.055 2.045 2.035 2.065 2.095 2.155
2555.896 2.275 2.195 2.195 2.325 2.335 2.265 2.225 2.305 2.385 2.375
2575.186 2.335 2.305 2.205 2.145 2.035 1.995 2.035 1.905 1.775 1.775
2594.475 1.745 1.615 1.4652 1.4443 1.4121 1.3419 1.2846 1.2765 1.3457 1.3144
2613.765 1.2838 1.2795 1.3437 1.3 1.2579 1.3365 1.3729 1.4433 1.4045 1.3477
2633.055 1.4176 1.4312 1.3996 1.3623 1.3795 1.5393 1.615 1.4971 1.4125 1.5297
2652.345 1.4883 1.4696 1.564 1.5497 1.5541 1.565 1.605 1.585 1.5309 1.5279
2671.634 1.5038 1.4705 1.4499 1.4856 1.5263 1.4716 1.5103 1.675 1.5507 1.4502
2690.924 1.595 1.655 1.655 1.655 1.675 1.705 1.715 1.835 1.895 1.965
2710.214 2.085 2.055 1.995 2.025 2.155 2.235 2.265 2.345 2.475 2.555
2729.504 2.515 2.505 2.645 2.745 2.695 2.675 2.765 2.795 2.705 2.745
2748.794 2.875 2.975 3.005 2.955 2.865 2.885 2.905 2.775 2.725 2.675
2768.083 2.575 2.465 2.335 2.345 2.275 2.145 2.175 2.165 2.095 2.045
2787.373 1.925 1.975 2.035 1.915 1.905 1.965 1.905 1.725 1.755 1.905
2806.663 1.905 1.945 1.965 1.965 2.035 2.055 2.025 2.085 2.075 2.065
2825.953 2.015 2.095 2.275 2.315 2.425 2.465 2.525 2.605 2.715 2.835
2845.242 2.875 3.005 3.235 3.465 3.735 4.155 4.775 5.475 6.245 7.315
2864.532 8.665 10.195 12.135 14.535 17.425 21.035 24.945 28.605 31.575 33.305
2883.822 34.045 34.255 33.645 32.115 29.455 25.955 22.675 19.865 17.705 16.285
2903.112 15.215 14.535 14.295 14.415 14.905 15.555 16.495 17.615 18.805 20.325
2922.401 21.925 23.545 25.375 27.445 29.685 32.275 35.045 37.705 40.115 42.435
2941.691 44.965 47.625 50.605 53.865 57.335 61.835 67.525 74.435 83.175 94.165
2960.981 107.165 121.565 134.355 141.335 142.925 142.225 139.015 132.985 123.135 107.695
2980.271 89.545 73.065 59.975 49.535 40.835 33.465 27.265 22.085 17.815 14.575
2999.561 11.925 9.835 8.395 7.395 6.505 5.625 5.105 4.655 4.255 3.835
3018.850 3.355 3.005 2.725 2.475 2.275 1.995 1.685 1.575 1.5499 1.595
3038.140 1.4773 1.2989 1.2141 1.1823 1.3158 1.1936 1.0809 1.21 1.1187 1.0748
3057.430 1.0934 1.1955 1.3219 1.3724 1.4159 1.3165 1.3261 1.3277 1.4193 1.4703
3076.720 1.2893 1.2498 1.3959 1.4738 1.5047 1.4252 1.3355 1.4375 1.3652 1.261
3096.009 1.2407 1.1428 1.0026 0.8432 0.9136 0.9801 0.8592 0.7721 0.6882 0.6501
3115.299 0.7009 0.63375 0.58719 0.4909 0.4843 0.65823 0.57578 0.389 0.377 0.307
3134.589 0.218 0.307 0.397 0.401 0.41 0.5082 0.484 0.5102 0.55556 0.541
3153.879 0.4981 0.401 0.446 0.448 0.389 0.439 0.63477 0.5145 0.269 0.331
3173.169 0.419 0.368 0.338 0.4804 0.5159 0.5282 0.5368 0.434 0.332 0.356
3192.458 0.423 0.435 0.446 0.4802 0.5369 0.567557 0.5413 0.58104 0.5177 0.416
3211.748 0.419 0.439 0.44 0.346 0.272 0.36 0.454 0.4866 0.5374 0.448
3231.038 0.326 0.326 0.382 0.407 0.389 0.351 0.382 0.361 0.339 0.428
3250.328 0.358 0.287 0.245 0.226 0.368 0.4771 0.4776 0.4793 0.42 0.263
3269.617 0.35 0.55823 0.434 0.321 0.271 0 0.057 0.304 0.328 0.195
3288.907 0.234 0.35 0.358 0.272 0.159 0.229 0.359 0.296 0.372 0.412
3308.197 0.335 0.461 0.303 0.197 0.294 0.425 0.428 0.163 0.275 0.444
3327.487 0.342 0.376 0.389 0.278 0.146 0.262 0.296 0.177 0.199 0.223
3346.777 0.227 0.298 0.341 0.433 0.396 0.258 0.288 0.4 0.432 0.407
3366.066 0.5017 0.5264 0.402 0.246 0.287 0.568984 0.7672 0.60858 0.405 0.3
3385.356 0.294 0.347 0.328 0.4671 0.4973 0.372 0.365 0.376 0.5088 0.5377
3404.646 0.4787 0.412 0.262 0.309 0.4717 0.4837 0.399 0.5293 0.63564 0.5395
3423.936 0.55634 0.456 0.28 0.352 0.461 0.5322 0.5173 0.4653 0.407 0.4711
3443.225 0.5547 0.479 0.4966 0.375 0.303 0.437 0.421 0.4712 0.5518 0.5156
3462.515 0.5128 0.5321 0.4886 0.446 0.37 0.265 0.204 0.232 0.318 0.375
3481.805 0.254 0.116 0.241 0.404 0.347 0.238 0.338 0.5222 0.4758 0.256
3501.095 0.184 0.272 0.318 0.281 0.304 0.308 0.313 0.426 0.387 0.381
3520.385 0.411 0.384 0.446 0.385 0.35 0.354 0.339 0.346 0.311 0.374
3539.674 0.463 0.346 0.422 0.5308 0.426 0.387 0.416 0.5075 0.414 0.237
3558.964 0.403 0.46 0.4978 0.5481 0.306 0.337 0.445 0.383 0.339 0.309
3578.254 0.302 0.34 0.398 0.417 0.346 0.159 0.106 0.153 0.28 0.4867
3597.544 0.458 0.386 0.409 0.5403 0.4917 0.257 0.267 0.445 0.45 0.289
3616.833 0.308 0.349 0.339 0.421 0.366 0.438 0.442 0.437 0.4702 0.272
3636.123 0.318 0.445 0.5193 0.5164 0.414 0.279 0.399 0.44 0.442 0.5366
3655.413 0.375 0.386 0.446 0.4676 0.403 0.389 0.58866 0.55676 0.5368 0.5306
3674.703 0.545 0.56151 0.4794 0.505 0.5206 0.5148 0.5148 0.55897 0.4854 0.366
3693.993 0.264 0.262 0.387 0.4783 0.389 0.338 0.458 0.7217 0.8198 0.5488
3713.282 0.62595 0.9097 0.8168 0.7779 0.8248 0.8455 0.8063 0.8422 0.9875 0.8096
3732.572 0.7996 0.9609 0.8693 0.8278 0.8171 0.8758 0.8954 0.7146 0.58654 0.61657
3751.862 0.7067 0.7358 0.6856 0.6888 0.572853 0.353 0.5251 0.6732 0.5409 0.5284
3771.152 0.574091 0.59349 0.61449 0.59743 0.6717 0.7289 0.7761 0.71 0.56201 0.5267
3790.441 0.5115 0.57925 0.4769 0.397 0.5386 0.68 0.7419 0.5496 0.415 0.5539
3809.731 0.57894 0.6774 0.7988 0.7168 0.5229 0.566593 0.8877 0.8781 0.7736 0.7864
3829.021 0.8576 0.8842 0.9613 0.8789 0.7975 0.8724 0.8517 0.7347 0.569764 0.4678
3848.311 0.59021 0.6987 0.61115 0.6869 0.59915 0.5496 0.853 0.8019 0.7126 0.829
3867.601 0.7787 0.8199 0.7481 0.59659 0.8421 0.9526 0.7781 0.9508 0.9543 0.8921
3886.890 1.0002 1.0497 1.1471 1.143 1.0773 1.1606 1.1919 1.0798 1.0929 1.0971
3906.180 0.9491 0.9698 1.2572 1.1768 1.0703 1.1571 1.0191 1.0383 1.0336 1.0592
3925.470 1.0362 0.8949 0.8855 0.9367 0.759 0.63522 0.8125 0.9791 1.0478 1.0575
3944.760 1.2228 1.1072 0.8182 0.8083 0.9418 1.0527 1.035 1.0387 1.0355 0.9037
3964.049 0.8928 0.7402 0.9054 1.2571 1.2013 1.008 1.1289 1.3109 1.2252 1.2061
3983.339 1.2623 1.4422 1.4888 1.4971 1.2785 1.0991 1.2383 1.4401 1.3956 1.3042
##END=
