##TITLE=Methyl m-trifluoromethylcarbanilate
##JCAMP-DX=4.24
##DATA TYPE=INFRARED SPECTRUM
##ORIGIN=EPA-IR VAPOR PHASE LIBRARY
##OWNER=SRD/NIST
Collection (C) 2018 copyright by the U.S. Secretary of Commerce
on behalf of the United States of America. All rights reserved.
##CAS REGISTRY NO=18584-93-5
##MOLFORM=C 9 H 8 F 3 N O 2
##$NIST SOURCE=MSDC-IR
##STATE=gas
##XUNITS=1/CM
##YUNITS=ABSORBANCE
##XFACTOR=1.
##YFACTOR=0.001
##DELTAX=3.85796
##FIRSTX=551.7
##LASTX=4000.7
##FIRSTY=9.397
##MAXX=4000.7
##MINX=551.688
##MAXY=0.416707
##MINY=0
##NPOINTS=895
##XYDATA=(X++(Y..Y))
551.688 9.397 8.377 7.647 7.177 6.747 6.287 5.797 5.367 5.057 4.657
590.268 4.257 3.877 3.517 3.467 3.587 3.827 4.347 5.137 5.937 6.187
628.847 5.957 5.227 4.677 4.787 5.667 7.947 12.927 20.197 25.567 25.557
667.427 20.647 14.767 10.767 9.277 11.147 16.327 23.857 32.257 34.477 29.097
706.006 22.037 15.347 10.757 8.877 8.997 10.027 10.437 9.887 8.827 8.037
744.586 8.097 9.007 10.747 13.207 16.087 19.147 21.767 22.827 23.417 25.607
783.165 29.607 33.897 35.777 32.957 26.077 18.577 12.487 8.467 6.267 5.267
821.745 4.897 4.547 4.227 4.077 4.217 4.617 5.047 5.487 5.967 6.827
860.324 8.277 10.207 12.727 15.587 18.647 22.747 27.967 31.977 32.837 31.227
898.904 29.997 29.877 29.007 25.967 20.847 15.657 12.357 10.987 10.727 11.287
937.484 12.647 14.967 17.767 19.757 19.617 17.147 13.627 10.597 8.717 7.497
976.063 6.587 6.017 5.747 5.757 6.647 8.427 9.837 9.857 8.277 6.927
1014.643 6.827 6.957 7.337 7.847 8.617 9.897 11.607 14.427 18.797 25.407
1053.222 35.547 49.537 65.487 80.867 93.257 98.727 94.167 81.027 66.007 55.977
1091.802 53.477 56.107 57.177 52.647 44.287 38.067 36.917 40.007 48.147 63.217
1130.381 87.477 123.097 169.277 218.897 256.567 258.257 222.837 177.507 148.287 149.267
1168.961 173.607 207.827 242.037 261.577 262.007 255.307 264.197 306.217 370.637 416.707
1207.540 402.807 328.357 235.977 170.717 142.247 136.617 138.027 133.897 120.257 101.247
1246.120 83.407 69.207 58.827 52.557 49.807 49.927 52.337 56.437 61.667 66.847
1284.699 70.947 73.807 76.407 80.537 86.597 93.977 101.767 110.517 125.057 154.437
1323.279 207.357 279.517 337.467 335.327 260.967 161.557 92.997 59.667 42.957 33.177
1361.859 26.737 22.047 18.707 16.527 15.267 14.757 14.757 15.077 15.757 16.997
1400.438 18.957 22.017 26.657 32.847 39.337 45.477 52.377 62.017 72.097 80.457
1439.018 91.947 110.597 131.247 135.897 117.367 84.827 59.507 49.017 47.607 50.897
1477.597 57.887 68.917 82.557 94.657 101.317 102.837 103.677 108.367 118.657 133.567
1516.177 153.947 179.827 207.387 224.787 219.777 189.187 143.367 99.587 70.827 54.227
1554.756 44.807 38.367 33.457 29.837 27.327 26.037 26.107 27.597 30.497 34.957
1593.336 40.917 46.897 50.177 49.327 46.117 43.947 43.347 40.947 34.777 26.377
1631.915 19.077 14.107 11.137 9.527 8.697 8.367 8.307 8.417 8.627 8.847
1670.495 9.107 9.377 9.687 9.957 10.087 10.207 10.537 10.967 11.377 11.897
1709.075 12.717 13.997 15.817 18.007 20.727 24.377 29.247 35.297 42.147 51.267
1747.654 66.227 93.497 134.697 183.097 226.437 241.067 220.067 175.097 119.897 77.957
1786.234 55.987 45.767 40.377 35.387 29.627 23.807 18.847 15.117 12.707 11.237
1824.813 10.327 9.587 8.717 7.827 7.067 6.467 6.007 5.617 5.377 5.167
1863.393 4.967 4.867 4.837 4.817 4.717 4.397 3.957 3.567 3.317 3.207
1901.972 3.207 3.247 3.317 3.377 3.477 3.647 3.857 4.027 4.057 3.957
1940.552 3.717 3.427 3.177 2.887 2.647 2.457 2.297 2.157 2.057 1.977
1979.131 1.857 1.687 1.607 1.547 1.507 1.507 1.467 1.427 1.417 1.437
2017.711 1.437 1.447 1.457 1.457 1.417 1.377 1.367 1.347 1.327 1.327
2056.291 1.337 1.397 1.437 1.467 1.527 1.607 1.707 1.857 2.057 2.177
2094.870 2.197 2.217 2.207 2.177 2.197 2.307 2.457 2.627 2.777 2.917
2133.450 3.077 3.297 3.517 3.717 3.847 3.877 3.767 3.497 3.197 2.897
2172.029 2.627 2.427 2.327 2.277 2.217 2.167 2.117 2.077 2.037 2.027
2210.609 2.067 2.117 2.177 2.267 2.347 2.517 2.737 3.027 3.387 3.797
2249.188 4.227 4.707 5.307 6.067 7.017 8.007 8.747 9.017 8.567 7.467
2287.768 6.037 4.657 3.647 3.007 2.627 2.387 2.257 2.197 2.177 2.167
2326.347 2.137 2.137 2.117 2.107 2.107 2.067 2.027 1.987 1.967 1.927
2364.927 1.897 1.867 1.817 1.777 1.777 1.797 1.807 1.847 1.867 1.817
2403.507 1.777 1.727 1.617 1.567 1.517 1.457 1.407 1.357 1.297 1.217
2442.086 1.1412 1.1148 1.1148 1.1055 1.105 1.1364 1.187 1.277 1.387 1.517
2480.666 1.567 1.557 1.557 1.517 1.467 1.397 1.327 1.287 1.277 1.277
2519.245 1.217 1.1366 1.1057 1.1043 1.0908 1.0464 0.9897 0.9344 0.9089 0.8866
2557.825 0.8619 0.9115 0.9521 0.9447 0.9708 0.9821 0.9729 1.0075 1.0896 1.187
2596.404 1.277 1.347 1.397 1.367 1.347 1.327 1.277 1.247 1.187 1.1175
2634.984 1.0502 1.0571 1.0906 1.1325 1.187 1.247 1.337 1.347 1.247 1.126
2673.563 1.0248 0.9131 0.7962 0.7755 0.7846 0.7922 0.8135 0.8328 0.8938 0.9672
2712.143 1.0437 1.1043 1.1317 1.1371 1.0785 1.0171 1.0227 0.9968 0.9411 0.8696
2750.722 0.7904 0.8024 0.8148 0.7761 0.7574 0.7581 0.714 0.7034 0.7431 0.7298
2789.302 0.7233 0.7266 0.7739 0.8132 0.8591 0.9496 1.0132 1.0899 1.287 1.547
2827.882 1.817 2.207 2.787 3.627 4.637 5.387 5.487 4.987 4.337 3.937
2866.461 3.737 3.657 3.647 3.607 3.557 3.577 3.787 4.227 4.677 5.157
2905.041 5.587 5.877 6.227 6.577 6.887 7.117 7.177 7.297 7.747 8.537
2943.620 9.877 12.057 15.567 20.857 27.127 31.257 30.727 26.177 20.227 15.367
2982.200 12.097 9.977 8.877 8.447 8.407 8.557 8.727 8.667 8.497 8.407
3020.779 8.557 9.127 9.777 10.087 9.887 9.457 9.067 8.877 8.757 8.607
3059.359 8.467 8.197 7.877 7.527 7.157 7.037 7.137 7.247 7.307 7.067
3097.938 6.637 6.067 5.347 4.697 4.177 3.697 3.277 2.907 2.567 2.277
3136.518 2.057 1.797 1.577 1.427 1.257 1.197 1.1371 0.9811 0.8851 0.8745
3175.098 0.845 0.7838 0.7392 0.7445 0.7496 0.6976 0.6131 0.605 0.5826 0.5689
3213.677 0.5671 0.547 0.5465 0.487 0.4908 0.4612 0.3462 0.25178 0.21443 0.24009
3252.257 0.2308 0.21207 0.2115 0.2265 0.20799 0.22869 0.21795 0.146 0.1397 0.1723
3290.836 0.2813 0.21884 0.1422 0.22859 0.24569 0.20761 0.17734 0.1493 0.0788 0.0801
3329.416 0.1221 0.16027 0.19122 0.1252 0.1272 0.18382 0.166527 0.1227 0.23969 0.3608
3367.995 0.2814 0.22399 0.3016 0.3843 0.3527 0.3896 0.4866 0.5587 0.6117 0.7282
3406.575 0.9077 1.0934 1.357 1.697 2.197 2.907 3.867 4.997 6.277 7.907
3445.154 9.857 12.297 15.467 19.057 22.497 24.867 24.937 22.347 17.657 12.177
3483.734 7.907 5.527 4.297 3.667 3.277 2.907 2.677 2.567 2.397 2.307
3522.314 2.267 2.007 1.677 1.347 1.0782 0.8442 0.673 0.5736 0.48 0.4437
3560.893 0.334 0.26033 0.2106 0.181 0.225 0.18161 0.1059 0.046 0.022 0.0749
3599.473 0.1272 0.0872 0.012 0.024 0.065 0.1039 0.1333 0.1345 0.1048 0.039
3638.052 0.003 0.029 0.049 0.1428 0.18876 0.111 0.1424 0.2355 0.21898 0.1333
3676.632 0.0835 0.1135 0.18399 0.19061 0.1489 0.1459 0.22346 0.283 0.19621 0.1472
3715.211 0.175247 0.154 0.19523 0.21331 0.166814 0.1475 0.1482 0.1198 0.103 0.18269
3753.791 0.175574 0.1073 0.1082 0.037 0 0.025 0.0953 0.170327 0.1348 0.054
3792.370 0.039 0.0902 0.0764 0.018 0.057 0.064 0.022 0.046 0.0926 0.0799
3830.950 0.0691 0.1074 0.1262 0.1182 0.091 0.06 0.076 0.031 0.029 0.0809
3869.530 0.0865 0.034 0.018 0.055 0.019 0.041 0.11 0.144 0.102 0.1192
3908.109 0.19556 0.20227 0.23683 0.2712 0.20084 0.17582 0.24673 0.22375 0.1547 0.17909
3946.689 0.114 0.0882 0.1308 0.169192 0.24233 0.2938 0.3534 0.3409 0.3195 0.353
3985.268 0.3737 0.3264 0.26004 0.24787 0.23806
##END=
