##TITLE=Benfluralin
##JCAMP-DX=4.24
##DATA TYPE=INFRARED SPECTRUM
##ORIGIN=NIST Mass Spectrometry Data Center
##OWNER=NIST Standard Reference Data Program
Collection (C) 2018 copyright by the U.S. Secretary of Commerce
on behalf of the United States of America. All rights reserved.
##CAS REGISTRY NO=1861-40-1
##MOLFORM=C 13 H 16 F 3 N 3 O 4
##$NIST SOURCE=MSDC-IR
##SPECTROMETER/DATA SYSTEM=HP-GC/MS/IRD
##STATE=gas
##XUNITS=1/CM
##YUNITS=ABSORBANCE
##XFACTOR=1.0
##YFACTOR=0.000013900
##DELTAX=4.0
##FIRSTX=550.0
##LASTX=3846.0
##FIRSTY=0.000626
##MAXX=3846
##MINX=550
##MAXY=0.139
##MINY=0
##NPOINTS=825
##XYDATA=(X++(Y..Y))
550.0 45 18 0 16 11 8 21 29 33 39
590.0 47 57 60 59 62 65 64 65 65 69
630.0 76 84 95 113 132 149 166 188 211 214
670.0 191 153 114 97 101 118 153 222 358 634
710.0 1050 1369 1338 1022 692 460 323 262 231 203
750.0 174 142 118 101 98 114 138 157 170 206
790.0 267 288 235 165 125 97 69 48 37 29
830.0 23 18 15 15 20 23 27 40 63 99
870.0 151 214 276 304 301 326 441 630 740 661
910.0 487 352 258 179 116 78 59 54 50 50
950.0 57 68 80 89 100 110 115 117 113 110
990.0 107 107 118 135 147 157 160 159 149 130
1030.0 117 114 121 137 161 185 206 238 268 288
1070.0 299 304 317 341 379 420 459 494 532 577
1110.0 636 747 961 1336 1940 2664 3142 3129 2992 3337
1150.0 4364 5646 6149 5189 3629 2730 2769 3354 3771 3400
1190.0 2431 1534 1009 761 651 614 605 604 601 587
1230.0 578 583 607 644 687 748 840 964 1110 1240
1270.0 1315 1318 1285 1285 1378 1614 2068 2916 4482 6945
1310.0 9434 10000 8077 5511 3821 2969 2578 2486 2628 2917
1350.0 3184 3207 2877 2338 1824 1465 1260 1165 1126 1097
1390.0 1046 977 899 811 706 593 491 415 369 344
1430.0 338 347 368 398 438 482 527 571 612 631
1470.0 611 560 509 487 500 545 613 696 771 834
1510.0 887 943 1011 1103 1244 1474 1868 2530 3532 4768
1550.0 5846 6269 5785 4625 3344 2341 1696 1307 1061 892
1590.0 775 696 650 642 681 783 973 1251 1536 1655
1630.0 1498 1150 788 523 359 262 203 165 140 120
1670.0 104 93 82 75 68 63 57 53 49 45
1710.0 42 37 33 29 26 23 21 20 18 17
1750.0 18 19 20 21 21 20 22 24 28 33
1790.0 40 51 64 75 83 84 79 68 57 47
1830.0 39 33 28 24 21 21 19 18 17 16
1870.0 15 16 16 15 14 13 12 14 13 11
1910.0 11 12 13 13 13 12 11 12 12 11
1950.0 10 10 9 8 8 9 10 9 10 9
1990.0 9 8 7 6 7 8 9 10 10 11
2030.0 13 15 15 14 13 14 13 13 14 13
2070.0 14 12 11 12 10 11 13 14 15 16
2110.0 18 15 12 10 10 8 5 6 7 8
2150.0 7 6 6 7 6 6 7 6 7 9
2190.0 9 8 8 8 7 7 5 8 9 10
2230.0 11 10 9 9 7 8 10 12 12 13
2270.0 16 18 19 20 22 23 25 28 26 24
2310.0 23 22 20 18 19 19 18 19 18 20
2350.0 20 19 18 17 16 14 15 14 11 8
2390.0 10 14 15 16 17 17 16 15 16 17
2430.0 18 17 16 16 18 19 20 21 21 22
2470.0 21 20 21 20 19 17 17 18 16 15
2510.0 16 17 16 16 19 23 23 24 24 25
2550.0 26 26 23 20 22 22 21 21 21 21
2590.0 22 24 24 23 23 26 28 29 29 27
2630.0 27 26 26 27 26 27 30 31 31 34
2670.0 37 39 39 42 45 48 50 53 55 58
2710.0 61 63 63 66 66 67 69 71 71 72
2750.0 72 73 74 73 72 74 77 76 77 80
2790.0 84 90 97 100 106 115 124 134 145 160
2830.0 174 193 217 243 277 323 379 446 528 621
2870.0 725 819 882 919 922 876 803 752 733 741
2910.0 764 792 825 858 897 963 1068 1206 1338 1377
2950.0 1305 1208 1175 1242 1394 1550 1565 1404 1181 982
2990.0 813 673 545 428 335 271 228 194 168 151
3030.0 134 120 109 100 91 82 77 73 70 74
3070.0 81 86 98 111 126 141 136 114 93 75
3110.0 64 58 52 48 45 39 38 36 35 37
3150.0 35 31 26 28 30 22 18 18 19 21
3190.0 22 21 20 21 21 18 16 18 18 17
3230.0 15 12 13 15 17 16 13 12 10 8
3270.0 12 12 8 8 13 15 12 7 4 2
3310.0 5 8 5 5 7 11 7 5 8 8
3350.0 7 5 8 10 10 11 8 5 2 6
3390.0 10 6 8 10 7 5 6 8 9 9
3430.0 8 7 9 8 3 3 5 8 12 13
3470.0 6 6 9 6 9 11 5 4 7 10
3510.0 15 11 6 5 5 11 15 14 12 13
3550.0 16 13 9 6 8 13 15 16 15 12
3590.0 10 11 15 11 8 9 6 8 12 11
3630.0 10 8 7 11 13 16 14 9 8 12
3670.0 9 8 12 15 14 14 13 14 13 15
3710.0 17 16 14 13 14 16 17 18 17 14
3750.0 13 15 15 17 15 17 18 16 18 19
3790.0 15 17 17 13 15 20 21 20 16 13
3830.0 18 17 17 20 21
##END=
