##TITLE=Dimethyl bromoterephthalate
##JCAMP-DX=4.24
##DATA TYPE=INFRARED SPECTRUM
##ORIGIN=EPA-IR VAPOR PHASE LIBRARY
##OWNER=SRD/NIST
Collection (C) 2018 copyright by the U.S. Secretary of Commerce
on behalf of the United States of America. All rights reserved.
##CAS REGISTRY NO=18643-86-2
##MOLFORM=C 10 H 9 Br O 4
##$NIST SOURCE=MSDC-IR
##STATE=gas
##XUNITS=1/CM
##YUNITS=ABSORBANCE
##XFACTOR=1.
##YFACTOR=0.001
##DELTAX=1.92898
##FIRSTX=549.8
##LASTX=4000.7
##FIRSTY=1.947
##MAXX=4000.7
##MINX=549.759
##MAXY=0.414997
##MINY=0
##NPOINTS=1790
##XYDATA=(X++(Y..Y))
549.759 1.947 1.487 1.437 1.997 2.237 1.927 1.907 1.927 1.627 1.727
569.049 1.857 1.767 1.467 1.227 1.287 1.1252 0.8886 0.6632 0.7249 0.7931
588.339 0.6507 0.781 0.9192 0.8455 0.8558 0.7451 0.7263 0.7568 0.6986 0.7902
607.628 0.8299 0.8758 0.7916 0.6606 0.6646 0.5856 0.5737 0.678 0.6595 0.6658
626.918 0.6159 0.6624 0.7591 0.6218 0.7422 1.0707 1.1205 1.2054 1.437 1.567
646.208 1.587 1.767 2.357 3.217 4.477 6.297 8.287 9.367 9.417 9.327
665.498 8.667 6.607 4.497 3.087 2.277 2.117 1.917 1.767 1.837 1.927
684.787 1.877 1.897 2.047 2.267 2.607 2.767 2.757 2.737 2.657 2.607
704.077 2.707 2.737 2.787 3.047 3.327 3.957 4.737 5.467 6.717 8.677
723.367 11.047 14.087 18.137 22.487 25.837 27.607 28.697 28.987 28.117 27.547
742.657 28.407 30.967 34.887 39.397 43.807 46.437 45.917 42.947 38.837 34.047
761.947 29.167 24.877 21.227 18.237 16.097 14.507 13.357 12.617 11.897 11.307
781.236 10.967 10.677 10.177 9.737 9.627 9.527 9.477 9.757 10.447 12.037
800.526 14.537 17.927 22.617 27.467 30.787 31.777 30.507 27.367 22.627 17.217
819.816 13.067 10.357 8.807 8.257 7.967 8.007 8.507 9.497 10.857 12.927
839.106 15.427 17.917 20.407 22.437 23.337 23.027 21.567 19.057 15.937 12.857
858.395 10.397 8.317 6.877 5.877 4.967 4.567 4.257 3.947 3.807 3.617
877.685 3.457 3.247 3.177 3.337 3.717 4.127 4.417 4.747 5.487 6.317
896.975 7.057 7.837 8.447 9.047 9.277 9.027 8.657 8.047 7.127 6.167
916.265 5.327 4.547 3.927 3.457 3.187 3.057 2.987 2.957 2.907 3.077
935.555 3.237 3.397 3.677 4.047 4.727 5.537 6.497 7.707 9.127 10.677
954.844 12.547 14.547 16.307 18.047 19.587 20.617 21.297 21.827 22.087 22.167
974.134 21.977 21.357 20.207 18.427 16.017 13.467 10.907 8.607 7.007 5.917
993.424 5.387 5.227 5.227 5.217 5.277 5.217 5.277 5.517 5.767 6.367
1012.714 6.827 7.117 7.707 8.447 9.617 11.237 13.117 15.927 20.397 26.877
1032.003 35.527 46.667 59.667 71.927 80.197 82.587 79.477 71.457 59.377 46.157
1051.293 34.897 26.857 21.737 18.667 16.887 15.947 15.567 15.737 16.327 16.837
1070.583 17.707 18.847 19.827 21.597 23.757 25.767 28.507 31.957 36.167 41.497
1089.873 48.207 55.707 64.627 76.187 89.737 105.777 124.447 144.317 165.047 185.077
1109.163 201.847 214.677 222.027 222.547 216.607 204.497 187.497 168.897 149.397 130.157
1128.452 113.707 100.617 90.457 83.377 78.797 75.237 72.007 68.427 64.207 59.247
1147.742 54.197 49.517 45.077 41.047 37.937 35.937 34.407 33.157 31.857 30.637
1167.032 29.697 29.097 28.757 28.567 28.897 29.327 29.997 31.397 33.447 35.707
1186.322 38.107 40.327 41.947 43.627 44.767 44.727 44.007 43.477 43.097 43.027
1205.611 44.077 45.927 48.537 52.067 56.297 61.847 68.867 76.877 86.817 99.077
1224.901 114.307 134.087 159.097 189.887 226.547 267.617 309.517 346.667 374.057 385.977
1244.191 378.597 353.187 314.577 268.497 221.927 182.037 153.427 136.747 129.647 130.157
1263.481 137.217 150.857 171.087 197.917 231.057 269.497 310.737 350.597 383.887 406.307
1282.771 414.997 407.877 385.607 351.657 310.577 266.597 223.367 183.837 149.687 121.837
1302.060 100.217 83.827 71.367 61.757 54.157 48.037 43.017 38.917 35.407 32.287
1321.350 29.587 27.277 25.287 23.627 22.327 21.237 20.407 19.797 19.367 19.027
1340.640 18.837 18.827 18.917 19.137 19.527 20.087 20.807 21.787 23.037 24.527
1359.930 26.267 28.217 30.457 32.997 35.817 38.807 42.017 45.317 48.427 51.027
1379.219 52.827 53.457 52.517 50.027 46.137 41.227 35.947 30.967 26.667 23.257
1398.509 20.677 18.727 17.367 16.427 15.827 15.507 15.337 15.247 15.177 15.057
1417.799 15.037 15.317 16.237 18.067 21.347 26.597 34.747 46.277 59.777 71.457
1437.089 78.317 79.017 73.037 61.037 46.887 35.227 27.707 23.597 21.377 20.107
1456.378 19.397 19.047 18.927 18.967 19.147 19.477 19.927 20.347 20.817 21.397
1475.668 22.057 22.727 23.237 23.367 22.997 22.127 20.777 19.067 17.167 15.417
1494.958 13.957 12.807 11.897 11.197 10.657 10.197 9.837 9.577 9.397 9.287
1514.248 9.187 9.147 9.107 9.097 9.227 9.417 9.627 9.807 10.197 10.777
1533.538 11.377 12.137 13.037 14.077 15.277 16.727 18.397 20.237 22.147 23.907
1552.827 25.167 25.707 25.267 23.887 21.787 19.267 16.627 14.177 12.237 10.787
1572.117 9.667 8.887 8.337 7.927 7.607 7.347 7.287 7.357 7.407 7.577
1591.407 7.787 8.107 8.507 8.837 9.147 9.337 9.277 9.037 8.587 7.847
1610.697 6.977 6.247 5.757 5.367 5.187 5.117 5.057 5.007 4.977 4.967
1629.986 4.987 5.087 5.147 5.217 5.217 5.307 5.387 5.327 5.397 5.497
1649.276 5.607 5.727 5.767 5.877 6.017 6.097 6.197 6.207 6.227 6.357
1668.566 6.467 6.577 6.727 6.897 7.207 7.547 8.077 8.787 9.507 10.357
1687.856 11.257 12.187 13.097 14.077 15.257 16.597 18.177 20.167 22.377 24.947
1707.146 27.797 30.907 34.157 37.277 40.167 42.947 45.787 48.947 52.677 57.097
1726.435 62.417 69.097 77.647 88.777 104.377 125.857 155.137 196.197 247.947 305.927
1745.725 357.527 390.577 402.257 394.087 361.497 307.527 249.497 202.297 166.327 139.087
1765.015 118.287 102.017 89.137 79.197 71.227 64.817 59.487 54.897 50.857 47.087
1784.305 43.337 39.477 35.367 31.127 27.087 23.487 20.487 18.157 16.377 14.987
1803.594 13.887 12.947 12.097 11.267 10.367 9.477 8.757 8.067 7.387 6.797
1822.884 6.297 5.867 5.517 5.247 5.017 4.787 4.607 4.447 4.267 4.087
1842.174 3.937 3.837 3.687 3.537 3.427 3.337 3.227 3.057 2.877 2.717
1861.464 2.567 2.517 2.507 2.367 2.237 2.197 2.177 2.157 2.107 2.067
1880.754 2.087 2.047 1.967 1.997 2.047 2.067 2.117 2.167 2.287 2.377
1900.043 2.437 2.557 2.667 2.797 3.007 3.267 3.487 3.707 3.967 4.227
1919.333 4.447 4.667 4.917 5.127 5.247 5.357 5.337 5.207 5.087 4.927
1938.623 4.717 4.487 4.297 4.137 3.937 3.747 3.547 3.387 3.217 3.027
1957.913 2.917 2.817 2.677 2.567 2.477 2.327 2.227 2.117 2.007 1.927
1977.202 1.827 1.747 1.667 1.617 1.607 1.547 1.527 1.637 1.717 1.707
1996.492 1.707 1.717 1.727 1.797 1.847 1.787 1.737 1.717 1.627 1.547
2015.782 1.497 1.467 1.417 1.327 1.317 1.347 1.277 1.317 1.417 1.417
2035.072 1.467 1.547 1.607 1.677 1.797 1.897 1.897 1.937 2.017 2.097
2054.362 2.217 2.297 2.427 2.577 2.697 2.877 3.087 3.237 3.467 3.737
2073.651 3.917 4.117 4.347 4.517 4.587 4.657 4.627 4.557 4.457 4.257
2092.941 4.017 3.837 3.667 3.467 3.207 2.937 2.727 2.547 2.417 2.267
2112.231 2.137 2.047 1.957 1.967 2.027 1.977 1.907 1.897 1.887 1.857
2131.521 1.817 1.767 1.697 1.597 1.537 1.497 1.447 1.387 1.247 1.1203
2150.810 1.0315 0.9887 0.9937 0.972 0.9149 0.8213 0.7681 0.7945 0.759 0.7487
2170.100 0.7366 0.6528 0.5973 0.5699 0.6024 0.5779 0.5597 0.6428 0.655 0.6725
2189.390 0.6936 0.6934 0.69 0.6588 0.6514 0.6766 0.7086 0.7497 0.8253 0.8885
2208.680 0.893 0.9234 0.9062 0.8176 0.8157 0.8664 0.91 0.9177 0.9194 0.9088
2227.970 0.8966 0.9441 0.9932 0.9871 0.9787 1.0066 1.0131 0.9855 1.0244 1.0123
2247.259 1.0137 1.0674 1.0848 1.0866 1.0159 0.947 0.8822 0.8386 0.817 0.7771
2266.549 0.7389 0.7635 0.776 0.7151 0.739 0.7692 0.7869 0.8419 0.8986 0.9213
2285.839 0.8446 0.8257 0.8192 0.7974 0.8113 0.8393 0.8305 0.8195 0.8023 0.7233
2305.129 0.7229 0.7273 0.6503 0.6097 0.6695 0.7435 0.7048 0.6782 0.7069 0.7344
2324.418 0.6944 0.6239 0.6151 0.6313 0.7416 0.735 0.6612 0.7617 0.7133 0.6628
2343.708 0.7412 0.7468 0.7704 0.8175 0.8128 0.8407 0.8478 0.8187 0.8099 0.8331
2362.998 0.9101 0.8963 0.9116 0.9776 0.9753 0.9936 1.0475 1.075 1.0823 1.035
2382.288 1.0689 1.1416 1.1725 1.1855 1.1682 1.227 1.217 1.1856 1.247 1.217
2401.578 1.178 1.1847 1.1033 1.0189 1.0265 0.9856 0.928 0.918 0.8419 0.7364
2420.867 0.6509 0.6484 0.6722 0.6601 0.6643 0.6619 0.6168 0.5649 0.506 0.4663
2440.157 0.4597 0.4712 0.5046 0.4974 0.4308 0.4555 0.4818 0.4845 0.5409 0.5152
2459.447 0.478 0.5085 0.5483 0.5244 0.5389 0.6383 0.7574 0.7605 0.6882 0.7055
2478.737 0.6305 0.5904 0.6828 0.7209 0.6776 0.6321 0.6509 0.6366 0.6574 0.6819
2498.026 0.6715 0.6802 0.6902 0.6929 0.7051 0.7564 0.7976 0.705 0.6562 0.7136
2517.316 0.7994 0.832 0.7552 0.8256 0.8778 0.8328 0.798 0.7308 0.7127 0.7561
2536.606 0.8952 0.9813 0.9121 0.9374 0.9591 0.9268 0.9932 1.0236 1.0514 1.0346
2555.896 1.0634 1.1603 1.257 1.207 1.0948 1.1088 1.0902 1.0383 0.9964 1.0422
2575.186 1.02 0.9654 0.9443 0.8737 0.903 0.9297 0.875 0.8836 0.9552 1.0106
2594.475 0.9994 1.022 1.0418 1.0394 1.0864 1.0024 0.917 0.8937 0.8621 0.8264
2613.765 0.7444 0.7412 0.6773 0.5181 0.4802 0.5212 0.5604 0.6109 0.6281 0.625
2633.055 0.6428 0.6593 0.6845 0.6374 0.6473 0.7081 0.6569 0.6694 0.6652 0.6591
2652.345 0.702 0.6902 0.685 0.7009 0.6487 0.5214 0.4942 0.552 0.4983 0.4467
2671.634 0.4717 0.4758 0.5053 0.5195 0.5111 0.4413 0.4155 0.4055 0.3667 0.4405
2690.924 0.3788 0.21952 0.28883 0.3575 0.3741 0.4163 0.3623 0.26593 0.3272 0.4091
2710.214 0.392 0.419 0.424 0.4102 0.4668 0.5284 0.4987 0.4092 0.3856 0.4599
2729.504 0.5402 0.5122 0.5341 0.5525 0.5075 0.4689 0.5073 0.5218 0.5117 0.4817
2748.794 0.3664 0.4428 0.4986 0.4306 0.4381 0.5321 0.4848 0.3906 0.4616 0.4794
2768.083 0.5101 0.5229 0.5568 0.6113 0.5518 0.5865 0.5905 0.5471 0.6137 0.7442
2787.373 0.6969 0.5785 0.6057 0.6673 0.6822 0.6635 0.7046 0.7698 0.8263 0.9325
2806.663 1.0097 1.0986 1.1499 1.1783 1.347 1.467 1.587 1.767 1.937 2.117
2825.953 2.227 2.327 2.557 2.937 3.337 3.767 4.397 5.177 6.297 7.727
2845.242 9.427 11.177 12.437 13.067 12.877 11.937 10.397 8.537 6.897 5.717
2864.532 4.977 4.507 4.257 4.067 3.997 4.097 4.147 4.337 4.597 4.697
2883.822 4.967 5.377 5.757 6.217 6.767 7.417 8.017 8.577 8.997 9.217
2903.112 9.447 9.657 9.807 9.917 9.957 10.057 10.217 10.287 10.277 10.197
2922.401 9.967 9.717 9.467 9.237 9.187 9.337 9.597 9.887 10.407 11.277
2941.691 12.287 13.757 15.827 18.527 22.487 28.177 36.117 47.047 60.407 73.247
2960.981 81.217 82.437 77.427 66.827 52.187 37.727 27.077 20.277 16.277 14.047
2980.271 12.577 11.687 11.287 11.027 11.107 11.447 11.897 12.497 13.117 13.787
2999.561 14.467 15.007 15.327 15.527 15.477 14.937 14.277 13.797 13.257 12.747
3018.850 12.437 12.277 12.217 12.087 12.197 12.457 12.487 12.437 12.097 11.637
3038.140 11.167 10.447 9.617 8.777 8.207 7.687 7.127 6.807 6.467 6.157
3057.430 5.967 5.697 5.447 5.417 5.437 5.527 5.787 5.907 6.067 6.357
3076.720 6.547 6.567 6.477 6.317 5.947 5.607 5.417 5.157 4.807 4.447
3096.009 4.217 4.057 3.867 3.677 3.537 3.437 3.267 3.007 2.807 2.747
3115.299 2.697 2.547 2.487 2.467 2.347 2.297 2.267 2.157 2.027 1.917
3134.589 1.787 1.677 1.607 1.517 1.397 1.397 1.427 1.297 1.247 1.277
3153.879 1.287 1.297 1.1743 1.0978 1.036 0.9188 0.9191 1.0777 1.1005 0.986
3173.169 0.9597 0.9657 0.9769 0.9422 1.07 1.0186 0.9234 0.9861 0.8692 0.769
3192.458 0.7442 0.7972 0.7364 0.5853 0.558 0.5886 0.5275 0.6159 0.6716 0.4472
3211.748 0.3381 0.3827 0.29958 0.30096 0.3882 0.3931 0.4318 0.3953 0.3618 0.3477
3231.038 0.30597 0.27239 0.25713 0.23251 0.19922 0.2694 0.3002 0.3195 0.27655 0.094
3250.328 0.1321 0.26183 0.29437 0.2958 0.28196 0.1694 0.1575 0.24823 0.21778 0.1687
3269.617 0.216517 0.29292 0.3082 0.26195 0.1213 0.1275 0.1934 0.22609 0.1872 0.062
3288.907 0.041 0.067 0.078 0.2053 0.3141 0.1517 0.1279 0.28615 0.24871 0.1659
3308.197 0.206796 0.28601 0.3676 0.30377 0.1689 0.1397 0.106 0.082 0.043 0.14
3327.487 0.1901 0.20421 0.3153 0.26603 0.26162 0.24099 0.1803 0.25604 0.3765 0.4489
3346.777 0.3577 0.29037 0.4115 0.47 0.4795 0.3522 0.25624 0.3343 0.3712 0.25058
3366.066 0.164 0.21849 0.1271 0.111 0.1322 0.1648 0.21847 0.19726 0.1349 0.036
3385.356 0.042 0.1661 0.19763 0.1357 0.22343 0.30536 0.1695 0.1094 0.1865 0.3701
3404.646 0.4963 0.4197 0.3349 0.3118 0.25323 0.29166 0.4466 0.3967 0.27989 0.3705
3423.936 0.30405 0.323 0.4741 0.4007 0.5126 0.7343 0.7297 0.6797 0.7052 0.6712
3443.225 0.7506 0.7778 0.8289 0.874 0.9298 0.9968 1.0905 1.237 1.2058 1.367
3462.515 1.637 1.727 1.797 1.967 2.377 2.807 3.207 3.567 3.647 3.567
3481.805 3.547 3.507 3.247 2.927 2.707 2.527 2.397 2.237 2.017 1.907
3501.095 1.927 1.737 1.667 1.687 1.537 1.317 1.1628 1.1715 1.1141 1.02
3520.385 0.9249 0.8248 0.7574 0.6424 0.6102 0.6507 0.6025 0.5639 0.4603 0.4354
3539.674 0.5557 0.5396 0.4412 0.3373 0.4157 0.4545 0.3599 0.323 0.26877 0.3126
3558.964 0.418 0.4729 0.4897 0.4931 0.38 0.4577 0.4791 0.345 0.23459 0.27703
3578.254 0.4439 0.355 0.22596 0.26235 0.28755 0.23529 0.2204 0.189 0.25309 0.25425
3597.544 0.20588 0.299 0.3757 0.406 0.22865 0.1363 0.1853 0.053 0.09 0.1325
3616.833 0.1421 0.212705 0.134 0.053 0.1124 0.22809 0.1139 0 0.02 0.085
3636.123 0.1392 0.1074 0.127 0.104 0.1197 0.1093 0.028 0.021 0.1255 0.149
3655.413 0.1794 0.24302 0.1168 0.093 0.1339 0.072 0.035 0.19866 0.2863 0.22162
3674.703 0.23297 0.1434 0.086 0.102 0.1669 0.26892 0.20044 0.1342 0.1785 0.211914
3693.993 0.137 0.1298 0.19984 0.211136 0.27464 0.20231 0.1778 0.22087 0.1778 0.1329
3713.282 0.1682 0.1209 0.097 0.3394 0.3929 0.1881 0.1544 0.25242 0.20586 0.1722
3732.572 0.28372 0.3176 0.27955 0.29497 0.28368 0.22385 0.1303 0.1536 0.206146 0.22063
3751.862 0.28674 0.29106 0.208765 0.1874 0.24827 0.1823 0.1786 0.22607 0.26187 0.30653
3771.152 0.1581 0.1417 0.1454 0.072 0.1214 0.19 0.22315 0.1579 0.078 0.106
3790.441 0.20188 0.26487 0.232 0.088 0.089 0.1959 0.164 0.1632 0.1869 0.1759
3809.731 0.1492 0.24653 0.3151 0.23313 0.005 0.022 0.26661 0.2781 0.1209 0.127
3829.021 0.2722 0.30525 0.3248 0.086 0.075 0.2363 0.1874 0.20287 0.1107 0.011
3848.311 0.1431 0.1645 0.1367 0.29441 0.331 0.20505 0.072 0.083 0.1614 0.23575
3867.601 0.1615 0.1564 0.23536 0.1948 0.24364 0.27437 0.3572 0.3231 0.181 0.20276
3886.890 0.27951 0.26835 0.2004 0.23661 0.3307 0.4407 0.27282 0.1147 0.19894 0.1641
3906.180 0.084 0.1667 0.206462 0.19838 0.1665 0.27951 0.3954 0.4637 0.5162 0.5466
3925.470 0.5355 0.4529 0.4499 0.4796 0.5308 0.6282 0.7001 0.5876 0.433 0.4439
3944.760 0.4976 0.5082 0.6634 0.5288 0.3478 0.26333 0.25021 0.4066 0.4248 0.30106
3964.049 0.29786 0.3091 0.22051 0.3706 0.3494 0.26917 0.3558 0.4027 0.3273 0.3782
3983.339 0.4635 0.457 0.3369 0.213495 0.3583 0.3086 0.1903 0.26839 0.398 0.4285
##END=
