##TITLE=Dimethyl chloroterephthalate
##JCAMP-DX=4.24
##DATA TYPE=INFRARED SPECTRUM
##ORIGIN=EPA-IR VAPOR PHASE LIBRARY
##OWNER=SRD/NIST
Collection (C) 2018 copyright by the U.S. Secretary of Commerce
on behalf of the United States of America. All rights reserved.
##CAS REGISTRY NO=18643-84-0
##MOLFORM=C 10 H 9 Cl O 4
##$NIST SOURCE=MSDC-IR
##STATE=gas
##XUNITS=1/CM
##YUNITS=ABSORBANCE
##XFACTOR=1.
##YFACTOR=0.001
##DELTAX=1.92898
##FIRSTX=549.8
##LASTX=4000.7
##FIRSTY=2.466
##MAXX=4000.7
##MINX=549.759
##MAXY=0.434156
##MINY=0
##NPOINTS=1790
##XYDATA=(X++(Y..Y))
549.759 2.466 2.316 1.946 1.956 2.086 1.856 1.886 2.186 2.406 2.436
569.049 2.386 2.036 1.726 1.526 1.2077 1.246 1.256 1.1243 1.0219 0.7419
588.339 0.7657 1.0975 1.0232 0.8305 0.7947 0.6951 0.6682 0.5672 0.8213 1.0039
607.628 0.772 0.6958 0.6505 0.7682 0.8634 0.7927 0.8278 0.6858 0.4922 0.5055
626.918 0.5197 0.7024 1.0305 0.9922 0.8222 0.7641 0.9274 1.0975 1.0616 1.1107
646.208 1.1236 0.9902 1.0908 1.276 1.496 2.026 2.406 2.956 3.806 5.076
665.498 6.376 7.066 7.246 7.506 7.426 6.166 4.536 3.426 2.666 2.346
684.787 2.276 2.166 2.306 2.546 2.576 2.636 2.786 2.666 2.636 2.516
704.077 2.546 2.816 2.836 2.856 3.096 3.206 3.206 3.286 3.786 4.446
723.367 4.996 5.676 6.426 7.406 8.836 10.776 13.356 16.996 21.856 28.076
742.657 36.076 45.156 53.896 61.036 66.106 68.916 67.656 61.816 53.926 46.226
761.947 39.266 32.826 27.046 22.436 18.686 15.866 13.896 12.356 11.276 10.556
781.236 10.126 9.926 9.856 9.736 9.606 9.506 9.716 10.176 10.836 12.146
800.526 14.086 16.926 21.136 25.736 29.506 31.566 31.096 28.626 24.596 19.656
819.816 15.326 11.806 9.546 8.556 7.896 7.586 7.786 8.296 8.976 10.136
839.106 11.646 13.336 15.306 17.396 19.366 21.096 22.526 23.146 22.966 22.196
858.395 20.856 19.046 16.936 14.826 12.786 10.926 9.476 8.086 6.876 6.126
877.685 5.786 5.396 5.056 5.016 5.056 5.406 6.006 6.586 7.226 8.176
896.975 9.156 9.986 10.596 10.866 10.756 10.266 9.706 9.036 8.076 7.046
916.265 6.186 5.336 4.586 4.066 3.746 3.506 3.246 3.296 3.256 3.116
935.555 3.466 3.846 4.206 4.576 5.126 5.876 6.486 7.546 8.906 10.336
954.844 12.086 13.836 15.626 17.346 18.816 20.046 20.836 21.186 21.486 22.226
974.134 23.156 23.916 24.376 24.436 23.886 22.546 20.656 18.256 15.436 12.786
993.424 10.506 8.706 7.646 6.916 6.476 6.246 6.296 6.286 5.966 5.856
1012.714 6.066 6.416 6.386 6.606 7.246 7.766 8.316 9.046 9.946 11.356
1032.003 13.266 16.136 20.066 25.346 32.666 42.076 53.506 65.406 75.026 80.736
1051.293 81.866 78.076 69.766 58.576 47.006 37.656 31.396 27.316 24.626 23.276
1070.583 23.006 23.126 24.066 25.606 27.556 29.916 33.516 37.936 42.636 48.886
1089.873 56.686 65.636 76.516 89.896 105.936 124.266 143.606 163.226 181.696 196.756
1109.163 207.666 213.486 213.486 208.576 199.036 186.686 173.286 159.406 145.636 132.706
1128.452 120.646 109.486 100.036 92.386 86.666 82.406 79.516 77.266 74.406 70.976
1147.742 66.326 60.836 54.986 49.206 44.286 40.326 37.126 35.096 33.536 32.366
1167.032 31.646 31.076 31.206 31.426 32.036 33.296 34.386 36.006 37.876 39.946
1186.322 42.336 44.306 46.096 47.516 48.026 47.466 46.866 46.036 45.156 44.696
1205.611 44.896 46.706 49.286 52.966 58.136 64.576 72.506 82.816 95.776 111.966
1224.901 132.306 157.036 187.426 223.576 263.626 303.626 339.136 365.386 376.226 369.266
1244.191 345.536 309.516 267.226 224.176 186.896 159.316 141.556 132.306 129.836 132.386
1263.481 139.866 153.226 172.406 197.276 228.406 264.956 304.846 345.036 381.476 410.946
1282.771 429.226 434.156 424.546 400.266 363.886 319.076 270.216 222.256 179.086 143.016
1302.060 114.506 92.856 76.676 64.646 55.746 48.846 43.286 38.866 35.276 32.246
1321.350 29.716 27.546 25.636 23.936 22.496 21.286 20.266 19.446 18.816 18.306
1340.640 17.886 17.596 17.446 17.366 17.456 17.616 17.906 18.456 19.176 20.176
1359.930 21.466 23.156 25.366 28.056 31.316 35.286 39.786 44.646 49.886 54.826
1379.219 59.096 62.226 63.646 63.256 61.026 57.236 52.206 46.546 40.916 35.706
1398.509 31.266 27.546 24.706 22.536 20.916 19.706 18.826 18.116 17.496 17.016
1417.799 16.776 16.886 17.646 19.416 22.666 28.036 36.736 49.026 63.286 75.246
1437.089 82.176 83.276 78.046 66.286 51.256 38.436 30.146 25.526 22.936 21.416
1456.378 20.496 19.906 19.656 19.646 19.706 19.776 20.056 20.476 20.956 21.506
1475.668 22.176 22.956 23.756 24.496 24.936 24.986 24.656 23.856 22.626 21.006
1494.958 19.276 17.446 15.756 14.396 13.186 12.206 11.436 10.796 10.306 9.916
1514.248 9.646 9.396 9.276 9.356 9.446 9.636 9.856 9.966 10.236 10.676
1533.538 11.156 11.646 12.126 12.726 13.566 14.436 15.446 16.656 18.026 19.686
1552.827 21.326 22.816 23.976 24.486 24.166 23.266 21.696 19.596 17.276 14.976
1572.117 12.916 11.266 10.016 9.056 8.326 7.846 7.586 7.466 7.506 7.616
1591.407 7.786 8.046 8.336 8.756 9.206 9.576 9.756 9.836 9.726 9.346
1610.697 8.846 8.226 7.646 7.206 6.866 6.486 6.256 6.096 5.986 6.056
1629.986 6.066 5.976 5.926 5.966 5.986 5.956 5.946 5.936 5.956 5.956
1649.276 5.946 6.046 6.146 6.176 6.316 6.526 6.646 6.796 6.996 7.186
1668.566 7.316 7.446 7.666 7.936 8.256 8.636 9.186 9.766 10.416 11.196
1687.856 12.016 12.976 13.986 15.086 16.436 17.946 19.656 21.696 23.816 26.296
1707.146 29.006 31.986 35.016 37.906 40.796 43.876 47.266 51.076 55.556 60.926
1726.435 67.626 76.126 87.046 101.126 120.526 145.296 175.716 215.696 262.276 312.246
1745.725 355.726 383.316 392.556 387.066 365.076 324.186 272.376 225.926 188.196 158.266
1765.015 134.696 115.356 99.536 87.396 77.356 69.276 62.576 56.766 51.736 47.296
1784.305 43.366 39.716 36.246 32.826 29.536 26.376 23.486 21.016 18.926 17.096
1803.594 15.626 14.476 13.336 12.246 11.286 10.396 9.546 8.716 7.976 7.236
1822.884 6.546 6.056 5.656 5.276 4.986 4.666 4.436 4.306 4.126 3.936
1842.174 3.776 3.626 3.466 3.346 3.266 3.156 3.066 3.026 3.006 2.916
1861.464 2.846 2.816 2.786 2.766 2.696 2.596 2.516 2.476 2.426 2.316
1880.754 2.276 2.256 2.226 2.186 2.116 2.146 2.206 2.206 2.236 2.286
1900.043 2.326 2.416 2.586 2.746 2.906 3.116 3.326 3.556 3.736 3.936
1919.333 4.186 4.386 4.556 4.746 4.886 4.926 4.986 4.966 4.856 4.816
1938.623 4.716 4.586 4.476 4.276 4.026 3.866 3.706 3.576 3.446 3.316
1957.913 3.226 3.096 2.966 2.866 2.786 2.746 2.746 2.676 2.556 2.456
1977.202 2.306 2.156 2.176 2.176 2.116 2.096 2.076 2.076 2.066 2.036
1996.492 2.066 2.116 2.136 2.086 2.046 2.066 2.076 2.106 2.106 2.066
2015.782 1.966 1.916 1.826 1.736 1.686 1.586 1.556 1.556 1.516 1.536
2035.072 1.556 1.526 1.536 1.656 1.706 1.696 1.816 1.876 1.896 2.026
2054.362 2.076 2.146 2.266 2.376 2.516 2.616 2.736 2.896 3.046 3.216
2073.651 3.366 3.556 3.736 3.886 4.066 4.146 4.186 4.216 4.266 4.276
2092.941 4.216 4.206 4.106 3.896 3.696 3.516 3.386 3.206 2.956 2.736
2112.231 2.606 2.526 2.306 2.126 2.066 1.936 1.906 1.906 1.836 1.846
2131.521 1.846 1.846 1.826 1.766 1.736 1.786 1.796 1.676 1.626 1.666
2150.810 1.606 1.506 1.446 1.366 1.276 1.1989 1.1342 1.098 1.0612 1.0535
2170.100 1.0071 0.938 0.9323 0.8781 0.7754 0.7071 0.756 0.8067 0.7376 0.758
2189.390 0.8477 0.8239 0.728 0.6486 0.678 0.738 0.7287 0.7974 0.8055 0.7874
2208.680 0.7972 0.8127 0.9167 0.8897 0.8255 0.767 0.7711 0.9219 1.024 1.0242
2227.970 0.9596 0.9912 0.9963 0.965 0.9867 1.0203 1.0984 1.1043 1.0727 1.0684
2247.259 1.1479 1.183 1.1133 1.1292 1.1332 1.0691 0.988 0.9532 0.9662 0.9136
2266.549 0.8323 0.7897 0.806 0.8202 0.7639 0.7075 0.7039 0.6882 0.7504 0.7705
2285.839 0.7699 0.8603 0.8731 0.831 0.8227 0.8551 0.8736 0.8868 0.862 0.8507
2305.129 0.8109 0.7623 0.8597 0.9157 0.862 0.8041 0.7735 0.7913 0.7871 0.7944
2324.418 0.8223 0.8307 0.8427 0.8456 0.8204 0.8327 0.8607 0.9055 0.9075 0.8755
2343.708 0.9055 0.8655 0.8742 0.9302 0.9739 1.0121 1.0232 1.021 0.9418 0.8934
2362.998 1.0269 1.0748 1.0523 1.0686 1.077 1.091 1.0062 1.0327 1.1388 1.1472
2382.288 1.1712 1.2398 1.2275 1.2407 1.306 1.256 1.2288 1.246 1.22 1.1989
2401.578 1.2005 1.1747 1.0657 0.9614 0.911 0.9298 0.9894 0.962 0.9058 0.9273
2420.867 0.9026 0.8851 0.8549 0.7444 0.6964 0.7055 0.6564 0.669 0.7524 0.6875
2440.157 0.6019 0.6235 0.6926 0.7119 0.6552 0.6132 0.6223 0.5575 0.5 0.5558
2459.447 0.6113 0.594 0.5959 0.5763 0.575 0.6372 0.681 0.6765 0.6667 0.6958
2478.737 0.6873 0.6463 0.6582 0.6882 0.6676 0.675 0.6968 0.6687 0.6941 0.6683
2498.026 0.6825 0.7579 0.7481 0.7629 0.7915 0.8066 0.6919 0.6529 0.6898 0.7686
2517.316 0.8109 0.7495 0.7407 0.7627 0.8354 0.9048 0.8742 0.9032 0.9737 0.961
2536.606 1.0141 1.05 1.024 0.9252 0.8999 1.0122 1.0567 1.0638 1.1204 1.0795
2555.896 1.083 1.1859 1.2228 1.2204 1.2307 1.256 1.1804 1.2009 1.2181 1.1142
2575.186 1.107 1.0587 0.9777 1.0158 0.9393 0.8377 0.9358 1.016 0.9963 0.9944
2594.475 0.9758 0.9928 1.008 1.0912 1.1084 0.9253 0.8638 0.8888 0.8614 0.7676
2613.765 0.7921 0.8988 0.826 0.716 0.7591 0.8327 0.7528 0.6435 0.6356 0.6102
2633.055 0.5615 0.6191 0.6746 0.6701 0.7124 0.6987 0.6579 0.6642 0.6471 0.6743
2652.345 0.7786 0.7425 0.6958 0.8442 0.7597 0.6347 0.6672 0.5673 0.5107 0.4939
2671.634 0.5281 0.5073 0.4059 0.4594 0.462 0.3883 0.4313 0.463 0.3887 0.34428
2690.924 0.3639 0.3508 0.32812 0.33136 0.32026 0.30064 0.252189 0.254173 0.31763 0.4132
2710.214 0.4336 0.4424 0.4706 0.4532 0.4904 0.5256 0.543 0.6089 0.645 0.5109
2729.504 0.4896 0.5254 0.5428 0.5653 0.5806 0.6178 0.5781 0.5522 0.5269 0.6381
2748.794 0.6516 0.565 0.6005 0.659 0.6433 0.6208 0.6875 0.603 0.5665 0.6814
2768.083 0.6731 0.5628 0.6188 0.6446 0.5792 0.5667 0.5696 0.5966 0.6028 0.7108
2787.373 0.8029 0.7581 0.6727 0.6872 0.7517 0.7695 0.8543 0.8682 0.9508 0.9941
2806.663 1.038 1.198 1.1975 1.2041 1.286 1.486 1.716 1.886 1.946 2.086
2825.953 2.376 2.576 2.826 3.276 3.656 4.106 4.766 5.636 6.816 8.216
2845.242 9.856 11.496 12.756 13.426 13.306 12.406 10.796 8.956 7.336 5.956
2864.532 5.056 4.596 4.356 4.266 4.266 4.286 4.316 4.426 4.646 4.926
2883.822 5.296 5.646 6.056 6.546 7.186 7.896 8.456 9.016 9.586 10.006
2903.112 10.206 10.206 10.426 10.556 10.666 10.786 10.716 10.756 10.736 10.566
2922.401 10.416 10.096 9.676 9.546 9.636 9.836 10.036 10.376 10.996 11.746
2941.691 12.926 14.576 16.696 19.706 23.916 29.756 38.066 49.396 62.896 75.366
2960.981 82.626 83.466 78.896 68.976 54.716 40.166 29.016 21.966 17.696 15.046
2980.271 13.416 12.466 12.076 11.926 11.946 12.196 12.636 13.056 13.606 14.406
2999.561 15.106 15.546 15.766 15.956 15.926 15.686 15.256 14.556 14.026 13.676
3018.850 13.296 13.046 12.906 12.936 12.976 12.936 13.026 12.886 12.556 12.156
3038.140 11.676 11.036 10.246 9.526 8.846 8.226 7.746 7.386 7.006 6.676
3057.430 6.426 6.186 5.876 5.556 5.436 5.386 5.386 5.486 5.806 6.176
3076.720 6.346 6.376 6.446 6.536 6.386 6.116 5.876 5.496 5.056 4.776
3096.009 4.466 4.246 4.116 3.956 3.876 3.676 3.416 3.296 3.186 3.116
3115.299 2.876 2.726 2.656 2.376 2.356 2.406 2.326 2.206 2.096 1.996
3134.589 1.816 1.766 1.736 1.666 1.556 1.386 1.326 1.356 1.336 1.266
3153.879 1.336 1.246 1.1307 1.1867 1.1541 1.0571 0.9545 0.9216 0.8987 0.8256
3173.169 1.015 1.0195 0.829 0.8781 0.9572 1.0481 1.0989 1.1533 1.024 0.9331
3192.458 0.9214 0.8273 0.7477 0.6769 0.7351 0.7908 0.6859 0.6655 0.6387 0.5611
3211.748 0.6185 0.6453 0.6153 0.6016 0.4212 0.254221 0.25987 0.26299 0.30245 0.31033
3231.038 0.27095 0.2145 0.27437 0.2991 0.1625 0.114 0.2169 0.33512 0.3826 0.3541
3250.328 0.33975 0.3619 0.2708 0.2214 0.105 0.116 0.23888 0.26906 0.23618 0.1528
3269.617 0.128 0.125 0.231 0.28546 0.2221 0.1945 0.23694 0.250692 0.30338 0.32221
3288.907 0.1777 0.116 0.1689 0.2192 0.250457 0.33322 0.4495 0.4191 0.3635 0.3709
3308.197 0.33413 0.245427 0.25462 0.33627 0.3639 0.4058 0.3694 0.32449 0.3087 0.2342
3327.487 0.122 0.084 0.087 0.1611 0.2124 0.2575 0.27515 0.2787 0.4161 0.5947
3346.777 0.5397 0.3701 0.4882 0.4246 0.31662 0.3186 0.3597 0.4343 0.4146 0.4038
3366.066 0.3894 0.31841 0.30746 0.254296 0.1623 0.26465 0.2355 0.1471 0.28301 0.3969
3385.356 0.32619 0.3543 0.29314 0.228 0.4067 0.3851 0.2126 0.119 0.2302 0.3618
3404.646 0.30429 0.29733 0.3462 0.4627 0.4926 0.26996 0.30734 0.4934 0.4952 0.4193
3423.936 0.4736 0.6742 0.7221 0.5509 0.5278 0.6428 0.7411 0.7966 0.8519 0.8315
3443.225 0.7337 0.7296 0.9025 1.0576 1.0204 0.9955 1.0316 1.1616 1.306 1.526
3462.515 1.686 1.836 2.166 2.376 2.596 2.766 3.006 3.306 3.456 3.576
3481.805 3.696 3.676 3.386 3.016 2.736 2.636 2.536 2.316 2.176 2.206
3501.095 2.136 2.036 1.996 1.886 1.686 1.386 1.231 1.1917 1.2018 1.286
3520.385 1.1766 0.8698 0.6389 0.6324 0.7164 0.7973 0.8124 0.7138 0.5738 0.5531
3539.674 0.5561 0.6161 0.5897 0.4293 0.3617 0.3456 0.32787 0.4133 0.33061 0.29439
3558.964 0.1898 0.26077 0.4402 0.27748 0.249986 0.2352 0.221 0.31358 0.4151 0.3909
3578.254 0.26895 0.246669 0.27562 0.1724 0.118 0.25696 0.3508 0.3327 0.28598 0.25811
3597.544 0.24272 0.2132 0.250115 0.25663 0.229 0.14 0.017 0.038 0.145 0.107
3616.833 0.101 0.1811 0.127 0.1859 0.2247 0.2147 0.37 0.3921 0.4099 0.3626
3636.123 0.29614 0.33342 0.3599 0.30768 0.2606 0.30518 0.1754 0.1721 0.2243 0.1737
3655.413 0.2056 0.26257 0.24213 0.1766 0.078 0.1673 0.2228 0.128 0.01 0
3674.703 0.2301 0.139 0.111 0.253796 0.26561 0.26203 0.3452 0.27067 0.016 0.185
3693.993 0.3728 0.32906 0.31656 0.2154 0.2398 0.2129 0.2045 0.28878 0.2668 0.3505
3713.282 0.3671 0.4304 0.3917 0.32638 0.31563 0.25631 0.33952 0.4213 0.33265 0.24235
3732.572 0.2069 0.2262 0.29262 0.247801 0.25743 0.33372 0.29774 0.126 0.1531 0.1899
3751.862 0.1471 0.2169 0.28808 0.26542 0.30337 0.26459 0.2328 0.250978 0.30896 0.4689
3771.152 0.486 0.4849 0.4145 0.4134 0.4725 0.521 0.4787 0.3792 0.3854 0.4772
3790.441 0.4459 0.23773 0.1891 0.1568 0.138 0.29915 0.3811 0.26864 0.1959 0.33731
3809.731 0.4439 0.3526 0.32836 0.5645 0.6031 0.3999 0.4193 0.5776 0.513 0.364
3829.021 0.3486 0.33276 0.28297 0.3671 0.4135 0.3256 0.32723 0.4099 0.4694 0.27207
3848.311 0.1934 0.2276 0.1655 0.32533 0.29862 0.229 0.1891 0.136 0.226 0.2756
3867.601 0.3909 0.4456 0.3799 0.2089 0.1554 0.28333 0.137 0.135 0.3875 0.4527
3886.890 0.4161 0.5514 0.6522 0.5121 0.5075 0.4474 0.33476 0.377 0.4578 0.5486
3906.180 0.3981 0.2144 0.3723 0.5137 0.4669 0.5256 0.6036 0.5717 0.6335 0.6759
3925.470 0.5188 0.541 0.7115 0.7601 0.7157 0.6519 0.671 0.7927 0.6886 0.5406
3944.760 0.5347 0.5708 0.5589 0.4357 0.4751 0.45 0.4645 0.6209 0.4627 0.3636
3964.049 0.539 0.7281 0.7261 0.6388 0.6675 0.5332 0.4851 0.4859 0.4904 0.474
3983.339 0.32933 0.424 0.5744 0.4079 0.31983 0.3913 0.5736 0.611 0.4636 0.5681
##END=
