##TITLE=2,4-Dimethyl-3-hexanone
##JCAMP-DX=4.24
##DATA TYPE=INFRARED SPECTRUM
##ORIGIN=NIST Mass Spectrometry Data Center
##OWNER=NIST Standard Reference Data Program
Collection (C) 2018 copyright by the U.S. Secretary of Commerce
on behalf of the United States of America. All rights reserved.
##CAS REGISTRY NO=18641-70-8
##MOLFORM=C 8 H 16 O
##$NIST SOURCE=MSDC-IR
##SPECTROMETER/DATA SYSTEM=HP-GC/MS/IRD
##STATE=gas
##XUNITS=1/CM
##YUNITS=ABSORBANCE
##XFACTOR=1.0
##YFACTOR=0.000000800
##DELTAX=4.0
##FIRSTX=550.0
##LASTX=3846.0
##FIRSTY=0.000204
##MAXX=3846
##MINX=550
##MAXY=0.008
##MINY=0
##NPOINTS=825
##XYDATA=(X++(Y..Y))
550.0 255 240 253 283 339 273 223 219 162 205
590.0 267 182 164 150 154 167 173 241 223 212
630.0 180 163 147 96 57 43 143 278 285 129
670.0 35 166 179 130 73 9 25 102 131 117
710.0 170 163 120 101 128 171 161 137 155 153
750.0 167 167 146 151 179 202 167 124 143 144
790.0 88 86 167 212 228 238 264 236 195 231
830.0 231 174 152 146 135 125 115 144 155 159
870.0 164 152 154 140 106 119 135 122 111 110
910.0 166 177 174 159 161 220 267 318 376 432
950.0 509 591 667 768 868 954 1065 1218 1375 1516
990.0 1643 1776 1885 1946 1972 1994 2018 2033 2041 2077
1030.0 2079 2019 1839 1590 1370 1161 945 838 816 782
1070.0 779 823 866 870 858 862 845 790 695 648
1110.0 649 605 581 538 515 513 476 460 466 460
1150.0 473 509 518 553 630 660 637 632 616 540
1190.0 446 377 336 284 233 188 161 194 196 158
1230.0 165 177 194 232 273 277 301 318 332 372
1270.0 356 344 366 391 430 438 399 393 403 393
1310.0 378 362 375 428 460 516 597 650 726 801
1350.0 887 1005 1099 1160 1252 1363 1520 1681 1767 1745
1390.0 1616 1363 1064 766 555 480 446 431 452 499
1430.0 560 608 726 915 1128 1392 1663 1957 2190 2256
1470.0 2160 1919 1632 1311 990 732 565 445 364 294
1510.0 218 189 182 168 159 147 134 156 147 117
1550.0 120 119 107 107 117 131 151 145 115 117
1590.0 136 119 128 159 163 138 153 166 144 164
1630.0 186 192 177 180 193 213 232 227 262 320
1670.0 379 446 511 611 769 990 1313 1806 2488 3304
1710.0 4197 4965 5547 5658 5057 4056 3017 2078 1348 875
1750.0 616 495 426 343 262 226 199 172 138 119
1790.0 106 91 101 83 60 56 74 80 64 52
1830.0 63 70 59 54 68 60 47 46 42 40
1870.0 47 52 51 64 64 40 31 40 50 56
1910.0 54 46 28 21 26 25 23 30 35 42
1950.0 47 28 24 34 32 29 35 47 51 30
1990.0 10 15 30 51 42 29 26 20 37 46
2030.0 42 35 24 40 54 43 25 30 27 20
2070.0 18 21 47 50 47 47 51 39 32 39
2110.0 29 21 25 22 22 28 34 34 26 14
2150.0 0 1 3 6 14 16 32 31 13 16
2190.0 29 42 44 40 27 30 49 49 60 62
2230.0 55 62 51 41 51 32 16 34 50 53
2270.0 47 29 27 33 30 31 19 5 12 39
2310.0 32 18 6 0 8 34 44 44 48 48
2350.0 51 44 34 37 34 12 18 52 67 62
2390.0 74 90 79 71 65 52 67 83 78 68
2430.0 62 51 47 53 53 70 79 71 48 31
2470.0 60 64 60 80 74 72 83 82 90 94
2510.0 68 41 55 79 67 74 84 57 54 68
2550.0 65 69 67 61 66 76 100 103 86 75
2590.0 91 97 88 97 124 122 97 99 107 120
2630.0 116 92 91 99 116 112 114 129 106 109
2670.0 124 134 127 111 108 109 132 148 131 135
2710.0 159 170 179 183 171 191 220 213 219 233
2750.0 229 238 262 247 226 228 232 225 231 276
2790.0 292 316 337 325 342 365 380 412 437 459
2830.0 502 539 565 617 697 810 981 1182 1418 1743
2870.0 2196 2658 3098 3429 3638 3711 3666 3552 3434 3434
2910.0 3504 3640 3877 4174 4569 4998 5356 5631 5781 5735
2950.0 5624 5693 6171 7149 8418 9508 10000 9693 8604 6931
2990.0 5205 3773 2712 2019 1533 1202 973 813 717 619
3030.0 544 505 446 420 424 387 364 343 340 361
3070.0 331 324 319 306 316 311 302 296 290 280
3110.0 274 261 249 249 250 278 278 247 237 217
3150.0 228 225 203 219 209 190 196 205 210 178
3190.0 180 196 169 157 126 122 135 91 113 157
3230.0 149 125 119 88 78 94 115 121 98 88
3270.0 93 83 67 70 57 36 85 105 66 83
3310.0 105 71 44 61 60 50 62 75 95 84
3350.0 48 68 97 112 85 47 62 96 88 78
3390.0 121 139 136 136 123 151 189 178 166 163
3430.0 172 182 141 121 163 152 111 120 107 80
3470.0 107 101 69 87 78 84 120 112 78 55
3510.0 84 111 80 36 31 60 77 51 21 41
3550.0 75 88 56 37 30 37 61 37 31 27
3590.0 24 63 104 104 50 7 20 77 105 108
3630.0 102 64 66 90 75 46 39 58 76 89
3670.0 118 125 106 94 93 122 147 131 101 93
3710.0 81 69 94 75 47 93 69 39 79 133
3750.0 147 83 62 100 138 127 129 95 69 101
3790.0 120 106 104 128 130 125 129 145 158 130
3830.0 106 110 113 116 119
##END=
