##TITLE=4-Bromo-3-nitroacetophenone
##JCAMP-DX=4.24
##DATA TYPE=INFRARED SPECTRUM
##ORIGIN=EPA-IR VAPOR PHASE LIBRARY
##OWNER=SRD/NIST
Collection (C) 2018 copyright by the U.S. Secretary of Commerce
on behalf of the United States of America. All rights reserved.
##CAS REGISTRY NO=18640-58-9
##MOLFORM=C 8 H 6 Br N O 3
##$NIST SOURCE=MSDC-IR
##STATE=gas
##XUNITS=1/CM
##YUNITS=ABSORBANCE
##XFACTOR=1.
##YFACTOR=0.001
##DELTAX=1.92934
##FIRSTX=549.9
##LASTX=3999.5
##FIRSTY=0.57024
##MAXX=3999.53
##MINX=549.863
##MAXY=0.024935
##MINY=0
##NPOINTS=1789
##XYDATA=(X++(Y..Y))
549.863 0.57024 0.52829 0.50641 0.6585 0.772 0.7412 0.57875 0.6452 0.7219 0.6374
569.156 0.58379 0.7533 0.8357 0.8371 0.8379 0.8708 0.8613 0.8331 1.0496 1.1299
588.450 1.0646 1.1254 1.4309 1.835 2.035 2.105 2.245 2.495 2.625 2.445
607.743 2.305 2.255 2.005 1.665 1.525 1.3152 1.0417 0.9637 0.9681 1.0309
627.037 1.0365 0.9206 0.8298 0.8809 0.9049 0.9243 0.9916 1.0554 1.1187 1.0719
646.330 1.0356 1.1309 1.1558 1.2014 1.4413 1.765 2.125 2.575 3.125 3.475
665.624 3.615 3.595 3.315 2.745 2.115 1.585 1.1855 0.9693 0.9545 0.8937
684.917 0.6773 0.6055 0.6192 0.56034 0.55411 0.6083 0.6263 0.6325 0.7295 0.7747
704.210 0.7519 0.6886 0.6674 0.6529 0.5753 0.5933 0.6098 0.51672 0.53365 0.6044
723.504 0.55861 0.51463 0.6127 0.7432 0.722 0.7719 0.8527 0.9101 0.9808 1.0232
742.797 1.0844 1.1516 1.2197 1.2495 1.3026 1.3521 1.3988 1.495 1.645 1.985
762.091 2.445 2.925 3.425 3.845 4.105 4.295 4.315 4.155 3.825 3.305
781.384 2.755 2.215 1.835 1.555 1.2804 1.1493 1.1349 1.0698 0.9451 0.942
800.678 0.9526 0.9714 1.12 1.2334 1.3722 1.665 1.995 2.255 2.545 2.915
819.971 3.165 3.205 3.165 3.165 3.225 3.335 3.345 3.255 3.045 2.755
839.264 2.415 2.035 1.735 1.575 1.3795 1.1178 0.9736 0.9073 0.9292 0.9498
858.558 0.884 0.9199 1.0307 1.0491 1.1354 1.2248 1.367 1.575 1.745 1.955
877.851 2.175 2.405 2.675 2.915 3.075 3.165 3.155 3.075 2.875 2.505
897.145 2.175 1.885 1.705 1.625 1.585 1.525 1.4825 1.4668 1.4418 1.395
916.438 1.3074 1.2165 1.1651 1.0877 0.9872 0.9676 0.9727 0.9013 0.8169 0.8478
935.732 0.9413 1.0554 1.1533 1.2621 1.4219 1.675 2.055 2.475 2.805 3.085
955.025 3.295 3.365 3.305 3.155 2.985 2.805 2.675 2.595 2.525 2.375
974.318 2.165 1.945 1.725 1.595 1.459 1.3206 1.2466 1.1998 1.1448 1.1157
993.612 1.1841 1.1828 1.1405 1.1525 1.1495 1.2314 1.3414 1.4533 1.575 1.705
1012.905 1.915 2.085 2.325 2.705 3.205 3.935 4.885 6.145 7.575 8.815
1032.199 9.545 9.715 9.355 8.475 7.125 5.475 3.995 2.975 2.375 2.045
1051.492 1.805 1.645 1.565 1.515 1.4793 1.4655 1.4797 1.565 1.675 1.805
1070.786 2.025 2.245 2.535 2.905 3.195 3.495 3.675 3.625 3.485 3.295
1090.079 2.945 2.495 2.125 1.955 1.765 1.495 1.4496 1.4202 1.2286 1.1392
1109.372 1.1056 1.0216 0.9472 1.0076 1.0115 0.8881 0.9111 1.0081 1.0027 1.0063
1128.666 0.9939 1.0097 0.959 0.8873 0.9148 0.8796 0.9085 0.8837 0.9691 1.1578
1147.959 1.1692 1.1759 1.2129 1.2387 1.3045 1.4001 1.3118 1.133 1.0615 1.0673
1167.253 1.0754 1.0165 0.9136 0.8646 0.8626 0.8633 0.8709 0.9336 1.086 1.1509
1186.546 1.1745 1.0341 1.1 1.4454 1.515 1.525 1.595 1.615 1.725 2.175
1205.840 2.245 2.235 2.685 3.075 3.305 3.645 4.005 4.995 6.405 7.935
1225.133 9.775 11.665 13.905 16.085 17.745 19.095 19.905 19.795 18.995 17.655
1244.426 16.115 14.255 12.155 10.115 8.495 7.455 6.825 6.815 7.345 7.965
1263.720 8.615 9.495 10.205 10.685 10.825 10.545 10.005 9.185 8.265 7.285
1283.013 6.425 5.595 4.845 4.275 3.845 3.425 3.015 2.855 2.695 2.525
1302.307 2.455 2.455 2.505 2.465 2.495 2.555 2.575 2.675 2.775 2.855
1321.600 2.945 3.145 3.315 3.465 3.765 4.175 4.695 5.305 6.025 6.875
1340.894 7.865 8.965 10.225 11.505 12.745 13.995 15.095 15.995 16.645 16.935
1360.187 16.775 16.105 14.955 13.595 12.105 10.515 9.085 7.855 6.815 6.145
1379.480 5.755 5.495 5.265 5.165 5.165 5.075 4.905 4.755 4.575 4.275
1398.774 3.985 3.655 3.355 3.125 2.905 2.725 2.555 2.425 2.345 2.335
1418.067 2.415 2.465 2.415 2.435 2.495 2.525 2.515 2.475 2.425 2.435
1437.361 2.395 2.205 2.095 2.005 1.935 1.895 1.845 1.775 1.755 1.855
1456.654 2.005 1.975 1.925 2.045 2.185 2.255 2.305 2.405 2.535 2.495
1475.948 2.365 2.255 2.115 2.065 1.975 1.965 2.065 2.145 2.165 2.135
1495.241 2.185 2.315 2.405 2.515 2.615 2.815 3.175 3.355 3.485 3.695
1514.534 3.965 4.305 4.615 5.035 5.435 5.745 6.215 6.705 7.185 7.735
1533.828 8.325 8.955 9.865 11.065 12.305 13.735 15.425 17.185 19.015 20.775
1553.121 22.015 22.665 22.535 21.615 19.965 18.105 16.265 14.545 13.065 11.815
1572.415 10.775 10.065 9.625 9.425 9.425 9.535 9.865 10.445 11.195 12.095
1591.708 13.015 13.825 14.415 14.515 14.125 13.255 11.925 10.345 8.645 7.015
1611.002 5.635 4.585 3.855 3.275 2.785 2.505 2.335 2.115 2.015 1.985
1630.295 1.875 1.825 1.835 1.795 1.735 1.715 1.615 1.565 1.595 1.565
1649.588 1.4771 1.535 1.605 1.585 1.625 1.665 1.745 1.855 1.975 2.135
1668.882 2.345 2.495 2.645 2.775 2.805 2.815 2.805 2.805 2.865 2.865
1688.175 2.905 3.155 3.555 4.105 4.955 6.135 7.845 10.215 13.105 16.715
1707.469 20.245 23.055 24.575 24.935 24.085 21.795 18.075 13.895 10.115 7.285
1726.762 5.365 4.135 3.345 2.915 2.615 2.355 2.265 2.305 2.355 2.485
1746.056 2.615 2.705 2.805 2.795 2.655 2.475 2.265 2.025 1.825 1.625
1765.349 1.4443 1.4003 1.3192 1.2673 1.2645 1.2316 1.1731 1.1003 1.0895 1.0901
1784.642 1.0655 1.0157 0.9642 0.964 1.005 0.965 0.9035 0.9052 0.9283 0.943
1803.936 0.9268 0.8985 0.8682 0.8476 0.8169 0.8142 0.8342 0.8255 0.8541 0.8143
1823.229 0.7853 0.8353 0.7996 0.7416 0.7568 0.7629 0.7313 0.7333 0.7711 0.7905
1842.523 0.8318 0.8809 0.8798 0.8579 0.7948 0.7278 0.7181 0.7357 0.7229 0.7379
1861.816 0.7529 0.7426 0.7362 0.7603 0.7808 0.7371 0.6782 0.6523 0.7069 0.7229
1881.110 0.677 0.6575 0.6647 0.682 0.7226 0.7263 0.6677 0.6799 0.7305 0.7193
1900.403 0.6963 0.6904 0.6803 0.682 0.7035 0.7155 0.7037 0.7257 0.7637 0.7455
1919.696 0.7072 0.7125 0.7024 0.6865 0.6937 0.6731 0.7171 0.7399 0.7076 0.7145
1938.990 0.7269 0.762 0.756 0.7065 0.7033 0.6951 0.6662 0.6525 0.6529 0.6548
1958.283 0.6735 0.6828 0.6665 0.6599 0.6953 0.6961 0.6679 0.6348 0.6167 0.6028
1977.577 0.5893 0.6073 0.6286 0.6302 0.6216 0.6655 0.6832 0.6683 0.6361 0.6014
1996.870 0.6113 0.6345 0.6438 0.6563 0.6773 0.6623 0.632 0.6385 0.6363 0.5932
2016.164 0.6051 0.6572 0.6309 0.6114 0.6234 0.6255 0.6453 0.6333 0.6162 0.6147
2035.457 0.6025 0.5957 0.6104 0.6502 0.6739 0.654 0.6264 0.6174 0.6101 0.6063
2054.750 0.6329 0.6391 0.6272 0.6156 0.6255 0.677 0.6769 0.6615 0.6154 0.58161
2074.044 0.6006 0.627 0.6409 0.6381 0.62 0.57694 0.57267 0.6141 0.637 0.6142
2093.337 0.5942 0.6042 0.6301 0.6403 0.6275 0.6052 0.57076 0.57494 0.6068 0.6297
2112.631 0.624 0.6463 0.6639 0.6269 0.6191 0.6325 0.6547 0.65 0.6499 0.651
2131.924 0.6475 0.6806 0.6964 0.6896 0.6832 0.6704 0.6542 0.6298 0.5941 0.58323
2151.218 0.6096 0.6336 0.6445 0.6277 0.5906 0.5995 0.58135 0.56484 0.5706 0.55862
2170.511 0.57399 0.56431 0.5959 0.6036 0.57461 0.56602 0.5695 0.5893 0.6372 0.6452
2189.804 0.6131 0.6443 0.6073 0.55739 0.5858 0.5882 0.5768 0.6 0.56246 0.53958
2209.098 0.57742 0.5823 0.56765 0.56943 0.58067 0.6142 0.6052 0.57819 0.588 0.6191
2228.391 0.6269 0.57944 0.57335 0.57729 0.57661 0.57911 0.55299 0.53332 0.52568 0.54161
2247.685 0.5634 0.55795 0.54928 0.54876 0.5977 0.6518 0.6276 0.58206 0.56794 0.54472
2266.978 0.54584 0.55605 0.561 0.5868 0.57183 0.5761 0.6017 0.6024 0.6181 0.5906
2286.272 0.5897 0.6178 0.5956 0.604 0.6092 0.5971 0.56489 0.57413 0.6378 0.6376
2305.565 0.6473 0.6591 0.6501 0.672 0.6618 0.6607 0.6721 0.6733 0.6857 0.6811
2324.858 0.6728 0.6596 0.6514 0.6489 0.6379 0.6248 0.6225 0.6248 0.6065 0.56883
2344.152 0.56719 0.5924 0.5857 0.57817 0.5994 0.6194 0.6785 0.7076 0.6719 0.6695
2363.445 0.6798 0.6638 0.6429 0.6415 0.664 0.6837 0.6673 0.6139 0.5992 0.6379
2382.739 0.5964 0.53891 0.54993 0.5941 0.6529 0.6514 0.6021 0.58232 0.5982 0.5991
2402.032 0.55978 0.58196 0.6027 0.58258 0.57721 0.6044 0.6401 0.6215 0.6095 0.6071
2421.326 0.605 0.5447 0.51504 0.55941 0.6036 0.6431 0.6782 0.6675 0.6233 0.6401
2440.619 0.6356 0.6367 0.693 0.6708 0.5768 0.58294 0.6274 0.6239 0.596 0.56729
2459.912 0.5897 0.55577 0.5323 0.55464 0.55668 0.57049 0.53931 0.54266 0.56773 0.58432
2479.206 0.5992 0.55329 0.53814 0.55382 0.53432 0.55185 0.56957 0.57967 0.6076 0.5909
2498.499 0.58332 0.54947 0.5524 0.58175 0.5859 0.5856 0.6046 0.6294 0.5996 0.55034
2517.793 0.55498 0.5969 0.56645 0.53784 0.54525 0.55455 0.56332 0.5564 0.56805 0.57429
2537.086 0.55722 0.57134 0.6034 0.6415 0.6528 0.659 0.6416 0.6331 0.6612 0.6177
2556.380 0.636 0.6377 0.5961 0.58107 0.5913 0.6704 0.6697 0.6396 0.595 0.57674
2575.673 0.5898 0.6079 0.6044 0.5945 0.6215 0.6176 0.615 0.6042 0.57519 0.52581
2594.966 0.50264 0.54903 0.6276 0.6343 0.57256 0.5467 0.5908 0.6092 0.6104 0.53535
2614.260 0.5315 0.6035 0.6024 0.57901 0.55769 0.56784 0.57759 0.6175 0.55955 0.51429
2633.553 0.57445 0.601 0.6063 0.5869 0.53149 0.55846 0.56525 0.53586 0.5092 0.54822
2652.847 0.56871 0.54557 0.54899 0.493231 0.5424 0.5678 0.51573 0.5703 0.6016 0.6018
2672.140 0.6086 0.6062 0.602 0.5926 0.6508 0.6624 0.6311 0.6395 0.7099 0.7033
2691.434 0.6006 0.5935 0.5918 0.58348 0.6138 0.6164 0.6107 0.6099 0.5873 0.56307
2710.727 0.58311 0.6449 0.57922 0.50249 0.58445 0.6031 0.55867 0.55634 0.57338 0.52728
2730.020 0.485281 0.51544 0.51424 0.51567 0.51504 0.51232 0.57048 0.56424 0.52061 0.52682
2749.314 0.5062 0.4648 0.4218 0.3966 0.4139 0.47774 0.4518 0.48201 0.56088 0.494001
2768.607 0.4439 0.4663 0.53246 0.50117 0.4347 0.4397 0.4541 0.52676 0.49661 0.4597
2787.901 0.53905 0.57223 0.49699 0.3925 0.4103 0.45 0.492728 0.494286 0.4233 0.47976
2807.194 0.52677 0.48173 0.49737 0.52775 0.55604 0.52784 0.4692 0.55159 0.6168 0.57308
2826.488 0.53054 0.51044 0.487175 0.52136 0.5437 0.50274 0.53726 0.6214 0.57644 0.55892
2845.781 0.5969 0.5897 0.6458 0.58478 0.6078 0.6642 0.6215 0.6612 0.6759 0.6596
2865.074 0.6513 0.6965 0.6738 0.5946 0.6952 0.7432 0.7133 0.648 0.6483 0.7664
2884.368 0.7207 0.6679 0.682 0.7271 0.8117 0.839 0.8338 0.7664 0.7023 0.8387
2903.661 0.8293 0.7318 0.7508 0.7936 0.8135 0.735 0.7553 0.7128 0.68 0.7864
2922.955 0.7264 0.6029 0.6324 0.6832 0.7323 0.8809 0.9372 0.8462 0.6544 0.55886
2942.248 0.54271 0.513 0.5948 0.6444 0.6529 0.6338 0.595 0.50283 0.489564 0.6356
2961.542 0.7057 0.7204 0.7531 0.7337 0.7329 0.7103 0.6117 0.6696 0.7425 0.7774
2980.835 0.8177 0.7461 0.6638 0.6745 0.6058 0.56313 0.6947 0.666 0.492331 0.4281
3000.128 0.4357 0.4669 0.608 0.5967 0.6517 0.8833 1.0297 1.1321 1.1665 1.1585
3019.422 1.1391 1.1423 0.9869 0.7669 0.776 0.7827 0.7083 0.6672 0.5852 0.50118
3038.715 0.4374 0.4493 0.50295 0.4398 0.4479 0.4731 0.48394 0.4429 0.303 0.347
3058.009 0.4322 0.54639 0.6524 0.644 0.6723 0.7759 0.839 0.8097 0.874 1.0219
3077.302 1.0745 1.0254 1.0363 1.0247 0.9603 0.9154 0.8394 0.7073 0.52955 0.5336
3096.596 0.56156 0.492652 0.50891 0.54801 0.5213 0.4254 0.342 0.364 0.4043 0.50188
3115.889 0.4336 0.142 0.096 0.15 0.179 0.285 0.354 0.371 0.373 0.382
3135.182 0.26 0.241 0.281 0.232 0.279 0.385 0.39 0.352 0.309 0.15
3154.476 0.156 0.347 0.3999 0.287 0.235 0.36 0.3855 0.378 0.333 0.247
3173.769 0.221 0.207 0.372 0.384 0.322 0.243 0.215 0.378 0.28 0.224
3193.063 0.359 0.262 0.155 0.152 0.053 0 0.096 0.158 0.182 0.068
3212.356 0.038 0.105 0.057 0.157 0.294 0.239 0.16 0.13 0.15 0.201
3231.650 0.114 0.084 0.222 0.364 0.27 0.128 0.037 0.072 0.198 0.289
3250.943 0.353 0.242 0.209 0.242 0.262 0.27 0.175 0.134 0.217 0.314
3270.236 0.287 0.302 0.314 0.309 0.359 0.288 0.249 0.359 0.372 0.192
3289.530 0.106 0.078 0.109 0.274 0.197 0.067 0.202 0.276 0.168 0.144
3308.823 0.293 0.308 0.245 0.2 0.188 0.184 0.298 0.264 0.086 0.161
3328.117 0.294 0.338 0.354 0.489862 0.51384 0.37 0.318 0.233 0.21 0.292
3347.410 0.257 0.131 0.132 0.282 0.348 0.353 0.19 0.146 0.345 0.4279
3366.704 0.4058 0.283 0.105 0.124 0.248 0.312 0.363 0.314 0.302 0.353
3385.997 0.334 0.4632 0.53907 0.50135 0.4835 0.4645 0.57054 0.7128 0.7378 0.7715
3405.290 0.8824 0.8375 0.8265 0.8973 0.7457 0.6094 0.6914 0.7243 0.489668 0.331
3424.584 0.36 0.377 0.382 0.485155 0.54982 0.51033 0.55685 0.4721 0.383 0.327
3443.877 0.367 0.56241 0.47763 0.336 0.313 0.269 0.275 0.3992 0.4597 0.4309
3463.171 0.50224 0.56882 0.56396 0.4556 0.318 0.255 0.314 0.4643 0.4716 0.3927
3482.464 0.4224 0.50035 0.4618 0.3896 0.4325 0.385 0.4394 0.4266 0.312 0.4404
3501.758 0.50724 0.4377 0.322 0.347 0.54343 0.596 0.4346 0.372 0.353 0.4005
3521.051 0.4662 0.378 0.3991 0.51127 0.56486 0.54864 0.4633 0.305 0.359 0.354
3540.344 0.298 0.3859 0.326 0.341 0.381 0.308 0.4141 0.4205 0.353 0.384
3559.638 0.3986 0.372 0.47748 0.5907 0.52462 0.50513 0.4028 0.377 0.4201 0.355
3578.931 0.348 0.4605 0.5226 0.56797 0.6525 0.56483 0.382 0.34 0.4375 0.47853
3598.225 0.50424 0.54374 0.4363 0.3863 0.4019 0.4623 0.4058 0.322 0.4053 0.52431
3617.518 0.52865 0.4505 0.4527 0.4466 0.52222 0.53473 0.4559 0.4064 0.373 0.4594
3636.812 0.53439 0.51003 0.48086 0.4484 0.49859 0.490809 0.50708 0.486694 0.367 0.493565
3656.105 0.6188 0.487023 0.4271 0.4746 0.384 0.334 0.4745 0.4619 0.4143 0.442
3675.398 0.4167 0.4301 0.4222 0.4586 0.4702 0.4564 0.55771 0.601 0.4495 0.456
3694.692 0.4154 0.353 0.4517 0.486677 0.49682 0.491677 0.54687 0.52331 0.4397 0.4593
3713.985 0.4233 0.3915 0.51486 0.6011 0.5569 0.57132 0.56831 0.53168 0.52057 0.56216
3733.279 0.51395 0.5062 0.6002 0.51085 0.4207 0.49501 0.54639 0.5964 0.6529 0.5875
3752.572 0.50733 0.52166 0.52405 0.48059 0.50854 0.553 0.51209 0.3943 0.4719 0.55364
3771.866 0.457 0.51263 0.53302 0.4527 0.4061 0.4507 0.4509 0.456 0.481 0.4329
3791.159 0.4464 0.4638 0.52474 0.52181 0.415 0.4151 0.484044 0.4067 0.369 0.4136
3810.452 0.4218 0.4677 0.54033 0.6443 0.5907 0.432 0.4473 0.4348 0.4629 0.485067
3829.746 0.372 0.36 0.55131 0.6307 0.5899 0.56935 0.49579 0.490112 0.4409 0.494665
3849.039 0.6254 0.58402 0.51847 0.51398 0.48024 0.53618 0.55499 0.493196 0.52042 0.484017
3868.333 0.4735 0.5344 0.51118 0.4673 0.52103 0.52369 0.49964 0.6597 0.6492 0.56061
3887.626 0.6284 0.6075 0.5967 0.5976 0.48591 0.50453 0.6123 0.5566 0.50424 0.50663
3906.920 0.53197 0.52673 0.50663 0.4506 0.4491 0.57662 0.6245 0.55766 0.50013 0.50297
3926.213 0.4655 0.53709 0.57475 0.492737 0.52901 0.56964 0.53015 0.4415 0.4118 0.485576
3945.506 0.48136 0.52798 0.6671 0.5951 0.4801 0.56504 0.57782 0.53708 0.51542 0.47861
3964.800 0.50543 0.50454 0.51639 0.5734 0.54973 0.56174 0.6563 0.6526 0.6959 0.7033
3984.093 0.5885 0.54345 0.55518 0.54159 0.55117 0.51869 0.51138 0.54584 0.56471
##END=
