##TITLE=Phenyl formate
##JCAMP-DX=4.24
##DATA TYPE=INFRARED SPECTRUM
##ORIGIN=EPA-IR VAPOR PHASE LIBRARY
##OWNER=SRD/NIST
Collection (C) 2018 copyright by the U.S. Secretary of Commerce
on behalf of the United States of America. All rights reserved.
##CAS REGISTRY NO=1864-94-4
##MOLFORM=C 7 H 6 O 2
##$NIST SOURCE=MSDC-IR
##STATE=gas
##XUNITS=1/CM
##YUNITS=ABSORBANCE
##XFACTOR=1.
##YFACTOR=0.001
##DELTAX=1.929
##FIRSTX=549.8
##LASTX=4000.8
##FIRSTY=0.3
##MAXX=4000.75
##MINX=549.766
##MAXY=0.01722
##MINY=0
##NPOINTS=1790
##XYDATA=(X++(Y..Y))
549.766 0.3 0.32 0.48 0.37 0.24 0.39 0.34 0.16 0.15 0.34
569.056 0.4 0.22 0 0.18 0.46 0.48 0.52 0.42 0.55 0.53
588.346 0.35 0.47 0.45 0.52 0.75 0.75 0.64 0.8 0.87 0.76
607.636 0.89 0.93 0.84 0.83 0.84 0.82 0.79 0.82 0.9 0.969
626.926 0.961 1.025 0.93 0.86 0.84 0.73 0.63 0.56 0.75 0.92
646.216 0.93 0.87 1.009 1.018 0.967 1.068 1.074 1.091 1.134 1.216
665.506 1.19 1.289 1.476 1.765 1.9466 1.8881 1.831 1.9072 2.0824 2.1498
684.796 2.3631 2.4249 2.2609 2.2562 2.284 2.2266 2.0892 2.1063 2.1406 2.02555
704.086 1.9011 1.8952 2.02297 2.1104 2.02782 2.0053 2.1172 2.2101 2.4042 2.5947
723.376 2.7728 2.776 2.7468 2.9025 2.98 2.98 2.7911 2.5537 2.6003 2.6736
742.666 2.6098 2.4274 2.3797 2.3292 2.1548 2.1847 2.2641 2.1726 2.074 2.0551
761.956 1.93585 1.8874 1.95724 1.909 1.8806 1.9184 1.816 1.662 1.584 1.597
781.246 1.644 1.617 1.599 1.558 1.505 1.514 1.575 1.514 1.565 1.724
800.536 1.727 1.665 1.672 1.659 1.751 1.749 1.728 2.0571 2.1509 2.0941
819.826 1.9014 1.747 1.78 1.788 1.8725 1.8962 1.813 1.755 1.67 1.654
839.116 1.678 1.631 1.503 1.437 1.475 1.47 1.443 1.496 1.481 1.388
858.406 1.376 1.433 1.437 1.452 1.59 1.585 1.548 1.528 1.503 1.538
877.696 1.541 1.515 1.455 1.514 1.563 1.537 1.573 1.524 1.504 1.646
896.986 1.711 1.659 1.639 1.712 1.705 1.747 1.726 1.604 1.574 1.557
916.276 1.549 1.483 1.477 1.415 1.362 1.421 1.4 1.362 1.374 1.386
935.566 1.361 1.365 1.374 1.386 1.309 1.247 1.307 1.289 1.291 1.291
954.856 1.27 1.372 1.419 1.36 1.369 1.387 1.437 1.453 1.408 1.412
974.146 1.4 1.42 1.48 1.484 1.487 1.471 1.51 1.612 1.662 1.701
993.436 1.748 1.757 1.781 1.8523 1.8644 1.8531 1.8767 1.834 1.805 1.834
1012.726 1.822 1.826 1.8411 1.8593 1.853 1.8493 1.803 1.791 1.797 1.805
1032.016 1.784 1.696 1.718 1.767 1.765 1.781 1.785 1.793 1.825 1.832
1051.306 1.93464 2.03466 2.03187 2.1072 2.2426 2.3373 2.5233 2.7514 2.9128 3.09
1070.596 3.25 3.45 3.77 4.13 4.48 4.95 5.61 6.32 7.1 8.03
1089.886 8.99 10.04 11.18 12.08 12.82 13.47 13.88 13.89 13.62 13.2
1109.176 12.57 11.59 10.51 9.66 8.57 7.11 5.73 4.49 3.67 3.17
1128.467 2.7825 2.5344 2.4333 2.4216 2.3518 2.264 2.2991 2.4149 2.5482 2.7443
1147.757 3.12 3.73 4.44 5.25 6.07 6.76 7.1 7.26 7.61 7.93
1167.047 8.01 8.18 8.65 9.03 9.11 9.34 10.04 11.03 12.13 13.46
1186.337 14.71 15.62 16.39 16.94 17.19 17.22 16.98 16.55 15.55 14.16
1205.627 12.65 11.01 9.48 8.07 6.8 5.96 5.39 4.87 4.46 4
1224.917 3.64 3.36 3.12 3.01 2.8043 2.7387 2.7178 2.6247 2.6205 2.5271
1244.207 2.3596 2.3483 2.3683 2.3362 2.396 2.4353 2.4273 2.4753 2.5595 2.5688
1263.497 2.5526 2.5319 2.4881 2.4598 2.3163 2.2207 2.1834 2.0977 2.0643 2.01231
1282.787 1.97364 1.9117 1.8995 1.8453 1.797 1.82 1.793 1.828 1.832 1.826
1302.077 1.788 1.721 1.724 1.764 1.754 1.728 1.78 1.792 1.752 1.747
1321.367 1.709 1.649 1.629 1.658 1.7 1.688 1.635 1.581 1.572 1.615
1340.657 1.608 1.596 1.616 1.624 1.668 1.691 1.672 1.689 1.674 1.668
1359.947 1.738 1.785 1.755 1.724 1.782 1.802 1.797 1.771 1.714 1.713
1379.237 1.688 1.669 1.729 1.726 1.69 1.7 1.664 1.659 1.688 1.693
1398.527 1.681 1.659 1.653 1.605 1.597 1.649 1.642 1.654 1.676 1.653
1417.817 1.717 1.747 1.658 1.655 1.679 1.663 1.676 1.692 1.706 1.771
1437.107 1.814 1.793 1.792 1.806 1.804 1.8563 1.904 1.8971 1.9006 1.93513
1456.397 2.051 2.0801 2.101 2.1699 2.2565 2.3551 2.4771 2.6644 2.9122 3.2
1475.687 3.51 3.96 4.46 4.96 5.41 5.76 6.01 6.13 6.09 6.01
1494.977 5.84 5.59 5.31 4.89 4.42 3.97 3.55 3.03 2.6413 2.4454
1514.267 2.264 2.1131 2.0581 2.0843 2.0588 1.97458 1.94974 1.9151 1.8499 1.86
1533.557 1.8891 1.8444 1.8863 1.95952 1.9123 1.9135 1.9213 1.8695 1.8683 1.8555
1552.847 1.8817 1.8699 1.9024 2.0546 2.02659 1.97206 1.98612 2.00536 2.0721 2.1768
1572.137 2.2926 2.4694 2.6541 2.8259 3.01 3.2 3.4 3.71 4.03 4.21
1591.427 4.32 4.35 4.3 4.2 4.04 3.82 3.57 3.2 2.8433 2.5481
1610.717 2.3222 2.1741 2.1391 2.151 2.0485 1.94229 1.94864 1.95003 1.8582 1.807
1630.007 1.785 1.799 1.8436 1.8714 1.8544 1.8435 1.814 1.784 1.788 1.8591
1649.297 1.8818 1.892 1.95651 1.8995 1.826 1.826 1.822 1.8434 1.8622 1.819
1668.587 1.799 1.808 1.8483 1.9063 1.8492 1.809 1.8675 1.9202 1.94799 1.8882
1687.877 1.8472 1.8594 1.9137 1.94933 1.98614 1.9971 2.03591 2.01549 1.99577 2.00694
1707.167 2.03745 2.1576 2.2067 2.2193 2.3603 2.5628 2.6067 2.6727 2.8101 2.9315
1726.457 3.04 3.23 3.44 3.66 3.94 4.12 4.33 4.67 5.09 5.6
1745.747 6.23 6.96 7.81 8.72 9.52 10.2 10.78 11.2 11.61 12.04
1765.037 12.5 12.58 12 11.55 11.24 10.74 10.29 10.07 10.09 10.18
1784.327 10.25 10.21 9.98 9.65 9.38 9.19 8.91 8.46 7.81 6.66
1803.617 5.19 3.92 3.1 2.638 2.4091 2.3004 2.1996 2.1 2.0692 2.0187
1822.907 1.94965 1.96615 1.95823 1.9556 1.97475 1.96736 1.9518 1.94317 1.96345 1.93875
1842.197 1.9028 1.9083 1.8913 1.8919 1.9096 1.8898 1.9255 1.93702 1.9155 1.95689
1861.487 1.98186 1.9913 1.97977 2.01902 2.097 2.0543 2.00552 2.03381 2.0609 2.02241
1880.777 2.01397 2.03314 1.9931 1.97427 1.98749 2.02442 2.0065 1.95182 1.9385 1.9154
1900.067 1.8654 1.86 1.8859 1.9175 1.93721 1.96038 1.97873 1.98557 2.01741 2.0479
1919.357 2.0664 2.0776 2.0557 2.0536 2.1004 2.0494 2.01525 2.01845 2.01371 2.02135
1938.647 2.00553 2.02711 2.0548 2.03996 2.00586 2.01508 2.02988 2.02455 2.01151 1.98988
1957.937 1.98254 1.97427 1.98955 2.0018 1.9435 1.9136 1.9098 1.9075 1.9123 1.8901
1977.227 1.8989 1.8975 1.8812 1.8815 1.8919 1.9036 1.9137 1.9161 1.8785 1.8474
1996.517 1.8976 1.9322 1.93013 1.9236 1.9137 1.9113 1.8846 1.8741 1.8752 1.8846
2015.807 1.9059 1.93097 1.9132 1.8949 1.876 1.872 1.8907 1.8645 1.835 1.8626
2035.097 1.891 1.857 1.869 1.8833 1.8655 1.833 1.792 1.801 1.798 1.809
2054.387 1.826 1.813 1.82 1.839 1.8558 1.8722 1.8542 1.872 1.9267 1.8944
2073.677 1.8609 1.8696 1.861 1.8836 1.9177 1.9232 1.96654 1.94252 1.842 1.823
2092.967 1.8853 1.9589 1.9572 1.972 1.97802 1.94778 1.8934 1.8987 1.93417 1.8782
2112.257 1.8596 1.892 1.93614 1.9037 1.8665 1.8601 1.836 1.8769 1.8679 1.859
2131.547 1.8899 1.9022 1.9192 1.902 1.8865 1.8754 1.8905 1.93691 1.99094 1.99915
2150.837 1.97971 1.97551 1.914 1.9292 2.02134 2.0508 2.0669 2.03916 2.01589 2.00461
2170.127 2.01378 2.03794 2.03417 2.02246 2.02822 2.0464 2.048 2.0551 2.0926 2.105
2189.417 2.0903 2.0927 2.1145 2.1449 2.1279 2.0756 2.0543 2.0936 2.1302 2.109
2208.707 2.0811 2.0443 2.0481 2.074 2.0412 2.00904 2.0129 2.00567 1.97968 1.96089
2227.997 1.94234 1.95489 1.95893 1.95896 1.95928 1.93496 1.9636 1.95429 1.95517 1.94234
2247.287 1.8558 1.887 1.93252 1.9114 1.9127 1.95003 1.97981 1.94599 1.96478 2.03573
2266.577 1.99587 1.95039 1.9649 1.95565 1.96293 1.95376 1.93615 1.9296 1.97972 2.03154
2285.868 2.00646 2.045 2.0775 2.0462 2.02768 2.03822 2.0493 2.0405 2.0559 2.0816
2305.158 2.03533 2.00656 2.00903 2.028 2.0624 2.0125 1.96242 2.01642 2.0546 2.0484
2324.448 2.0536 2.0688 2.0824 2.124 2.1282 2.1602 2.1838 2.1232 2.0646 2.02752
2343.738 2.0701 2.0899 2.067 2.0527 2.0812 2.0965 2.0882 2.1478 2.1576 2.1521
2363.028 2.1385 2.0937 2.02527 1.97559 2.0413 2.03549 2.00928 2.0496 2.03754 2.00349
2382.318 1.98541 2.02235 2.0463 2.02426 2.0784 2.0639 1.98275 1.94465 1.9947 2.0459
2401.608 1.98408 1.97402 1.98915 1.98824 2.03499 1.9817 1.98709 2.0367 2.00854 1.98608
2420.898 1.98599 1.97305 1.93736 1.96983 1.99868 2.03018 2.01739 1.97247 1.99724 2.0006
2440.188 1.97127 1.98686 2.00438 1.99892 2.0059 2.00378 2.0042 1.99473 1.98521 2.00633
2459.478 2.03001 2.0595 2.0831 2.01713 1.968 2.02599 2.0448 2.03843 2.0605 2.06
2478.768 1.98008 1.95595 1.94965 1.97398 2.03301 2.0457 2.0482 2.0448 2.1232 2.1229
2498.058 2.00203 1.99344 2.00733 1.95253 1.99039 2.03437 2.02035 2.00736 2.0481 2.00949
2517.348 1.96936 1.98426 1.98001 2.01884 1.98234 1.9581 2.03833 2.0452 2.00089 2.00008
2536.638 2.03914 2.074 2.02719 1.96599 1.96154 1.98126 1.99896 1.96426 1.9266 1.94334
2555.928 1.9962 2.01445 2.02279 2.0671 2.058 2.02216 2.02965 2.0649 2.0551 2.0576
2575.218 2.0348 2.0606 2.0902 2.1085 2.0986 2.0681 2.03061 1.96325 2.0102 2.0668
2594.508 2.0698 2.00549 1.97761 2.01123 2.03573 2.02456 1.99145 2.03625 2.03639 2.03074
2613.798 2.0566 2.03245 2.01683 1.99253 1.95415 1.96045 1.94242 1.899 1.93809 1.96789
2633.088 2.01505 2.0413 2.01579 2.0117 1.99146 1.98433 1.99601 2.01798 2.02993 2.0684
2652.378 2.03197 1.97338 1.98921 2.03399 2.0092 1.94735 1.98118 1.99692 1.99698 2.00066
2671.668 1.96935 1.94936 1.96944 1.99399 2.03356 2.0686 2.0669 2.0482 2.02064 1.99792
2690.958 1.99695 2.02533 2.0442 2.01635 2.01871 2.02768 2.01316 2.02739 2.03448 2.0491
2710.248 2.0905 2.067 1.96869 2.03538 2.1259 2.0919 2.1626 2.1485 2.093 2.1363
2729.538 2.1864 2.1597 2.0965 2.0813 2.0801 2.1221 2.1416 2.0831 2.0697 2.098
2748.828 2.0004 1.99671 2.1029 2.0735 2.01014 1.95735 1.96506 2.041 2.0675 2.0548
2768.118 2.0807 2.0625 2.00768 2.03933 2.0789 2.0792 2.0579 2.0419 2.0781 2.0976
2787.408 2.01453 1.9938 2.02539 2.02162 1.99791 1.98381 1.9935 1.99417 1.94524 1.93683
2806.698 1.98489 2.00343 1.96642 1.96536 2.0551 2.0706 2.01702 1.97544 1.94745 1.94368
2825.988 2.00879 2.0114 1.97056 1.97154 1.94798 1.97425 2.00097 1.98997 2.0657 2.1543
2845.278 2.1068 2.03169 2.0935 2.1001 2.03326 1.9858 2.00836 2.1094 2.1811 2.1237
2864.568 2.03052 2.1106 2.1662 2.1714 2.221 2.2265 2.2103 2.2189 2.1813 2.1899
2883.858 2.2104 2.2111 2.2153 2.2093 2.1382 2.1655 2.2316 2.2794 2.3656 2.4127
2903.148 2.4297 2.4166 2.5487 2.6284 2.6466 2.7852 2.848 2.95 3.24 3.42
2922.438 3.57 3.78 3.91 3.99 4 3.92 3.93 3.94 3.76 3.57
2941.728 3.48 3.34 3.16 2.8851 2.6311 2.579 2.5747 2.5288 2.4318 2.3851
2961.018 2.3528 2.3194 2.2729 2.2209 2.2154 2.2197 2.2173 2.1253 2.01203 1.95939
2980.308 1.8431 1.828 1.9077 1.8659 1.9233 1.96098 1.829 1.8402 1.9168 1.924
2999.598 1.8844 1.821 1.798 1.775 1.789 1.827 1.93068 1.97579 1.8947 1.93265
3018.888 2.0401 2.0631 1.99737 1.96761 2.0409 2.1269 2.1198 2.109 2.1711 2.2576
3038.178 2.2811 2.3154 2.4594 2.467 2.4275 2.4666 2.5142 2.5024 2.4698 2.4299
3057.468 2.4856 2.5632 2.6073 2.6393 2.6215 2.6386 2.6145 2.5978 2.7048 2.7801
3076.758 2.687 2.702 2.7515 2.7056 2.775 2.8488 2.7815 2.653 2.545 2.4873
3096.048 2.4909 2.4938 2.318 2.1139 2.087 2.02211 2.02216 2.1645 2.1007 1.94687
3115.338 1.97128 1.8623 1.719 1.788 1.771 1.778 1.789 1.813 1.84 1.77
3134.628 1.743 1.686 1.673 1.617 1.595 1.628 1.653 1.689 1.624 1.645
3153.918 1.662 1.594 1.488 1.448 1.61 1.685 1.657 1.65 1.511 1.5
3173.208 1.668 1.638 1.628 1.601 1.585 1.738 1.662 1.574 1.615 1.697
3192.498 1.696 1.606 1.644 1.655 1.566 1.548 1.62 1.528 1.437 1.63
3211.788 1.613 1.552 1.624 1.527 1.484 1.515 1.501 1.486 1.472 1.33
3231.078 1.331 1.551 1.585 1.536 1.523 1.45 1.447 1.556 1.607 1.58
3250.368 1.534 1.554 1.556 1.52 1.513 1.55 1.524 1.317 1.304 1.415
3269.658 1.398 1.383 1.364 1.44 1.473 1.343 1.404 1.419 1.318 1.34
3288.948 1.291 1.334 1.432 1.362 1.318 1.395 1.391 1.399 1.387 1.301
3308.238 1.381 1.368 1.303 1.295 1.33 1.364 1.323 1.338 1.376 1.483
3327.528 1.494 1.488 1.536 1.381 1.316 1.361 1.364 1.308 1.246 1.305
3346.818 1.354 1.307 1.205 1.267 1.321 1.293 1.323 1.217 1.329 1.463
3366.108 1.3 1.252 1.294 1.298 1.358 1.366 1.337 1.394 1.385 1.274
3385.398 1.203 1.306 1.326 1.316 1.378 1.398 1.41 1.326 1.248 1.318
3404.688 1.375 1.237 1.244 1.297 1.207 1.254 1.344 1.293 1.283 1.283
3423.978 1.266 1.23 1.161 1.198 1.318 1.339 1.317 1.33 1.357 1.328
3443.269 1.273 1.257 1.275 1.294 1.269 1.325 1.396 1.45 1.428 1.356
3462.559 1.303 1.225 1.18 1.169 1.196 1.243 1.31 1.343 1.344 1.425
3481.849 1.406 1.269 1.345 1.489 1.418 1.325 1.357 1.445 1.487 1.429
3501.139 1.322 1.324 1.379 1.311 1.367 1.512 1.517 1.447 1.264 1.237
3520.429 1.394 1.458 1.466 1.396 1.272 1.335 1.361 1.303 1.235 1.166
3539.719 1.205 1.343 1.387 1.403 1.376 1.276 1.308 1.337 1.29 1.297
3559.009 1.329 1.274 1.275 1.318 1.381 1.357 1.338 1.456 1.365 1.252
3578.299 1.271 1.249 1.344 1.367 1.455 1.426 1.25 1.319 1.32 1.211
3597.589 1.265 1.332 1.35 1.309 1.184 1.277 1.426 1.411 1.436 1.402
3616.879 1.288 1.329 1.409 1.351 1.345 1.374 1.456 1.562 1.467 1.449
3636.169 1.464 1.444 1.476 1.408 1.405 1.374 1.343 1.404 1.334 1.292
3655.459 1.411 1.373 1.244 1.24 1.284 1.401 1.474 1.483 1.409 1.355
3674.749 1.303 1.354 1.458 1.41 1.334 1.298 1.3 1.395 1.397 1.393
3694.039 1.329 1.301 1.416 1.474 1.456 1.354 1.408 1.52 1.441 1.396
3713.329 1.529 1.492 1.386 1.461 1.536 1.501 1.405 1.422 1.47 1.466
3732.619 1.455 1.463 1.479 1.482 1.511 1.536 1.572 1.473 1.47 1.387
3751.909 1.307 1.396 1.412 1.481 1.489 1.399 1.367 1.315 1.226 1.303
3771.199 1.391 1.37 1.388 1.369 1.455 1.419 1.241 1.43 1.523 1.393
3790.489 1.325 1.385 1.519 1.478 1.395 1.371 1.278 1.309 1.488 1.546
3809.779 1.517 1.406 1.411 1.477 1.438 1.469 1.454 1.391 1.322 1.315
3829.069 1.349 1.338 1.362 1.468 1.288 1.274 1.497 1.422 1.347 1.403
3848.359 1.44 1.391 1.502 1.64 1.563 1.433 1.485 1.6 1.517 1.558
3867.649 1.599 1.605 1.488 1.368 1.379 1.311 1.429 1.652 1.7 1.627
3886.939 1.513 1.47 1.441 1.37 1.426 1.465 1.446 1.527 1.529 1.508
3906.229 1.495 1.442 1.495 1.532 1.406 1.31 1.399 1.503 1.524 1.527
3925.519 1.449 1.38 1.409 1.297 1.249 1.377 1.552 1.597 1.482 1.476
3944.809 1.442 1.363 1.411 1.396 1.424 1.534 1.526 1.496 1.531 1.491
3964.099 1.377 1.35 1.356 1.366 1.514 1.713 1.667 1.507 1.518 1.598
3983.389 1.599 1.546 1.53 1.48 1.525 1.523 1.425 1.504 1.555 1.41
##END=
