##TITLE=2,4-Dimethyl-3-heptanone
##JCAMP-DX=4.24
##DATA TYPE=INFRARED SPECTRUM
##ORIGIN=NIST Mass Spectrometry Data Center
##OWNER=NIST Standard Reference Data Program
Collection (C) 2018 copyright by the U.S. Secretary of Commerce
on behalf of the United States of America. All rights reserved.
##CAS REGISTRY NO=18641-71-9
##MOLFORM=C 9 H 18 O
##$NIST SOURCE=MSDC-IR
##SPECTROMETER/DATA SYSTEM=HP-GC/MS/IRD
##STATE=gas
##XUNITS=1/CM
##YUNITS=ABSORBANCE
##XFACTOR=1.0
##YFACTOR=0.000003300
##DELTAX=4.0
##FIRSTX=550.0
##LASTX=3846.0
##FIRSTY=0.000330
##MAXX=3846
##MINX=550
##MAXY=0.033
##MINY=0
##NPOINTS=825
##XYDATA=(X++(Y..Y))
550.0 100 75 68 47 29 47 29 5 3 15
590.0 38 61 81 85 75 90 112 126 124 116
630.0 117 105 89 87 77 63 61 53 38 34
670.0 38 55 61 64 59 62 106 129 117 108
710.0 112 116 128 156 174 166 172 183 182 183
750.0 176 175 179 188 192 172 161 147 129 118
790.0 112 99 80 80 94 94 86 81 95 105
830.0 91 108 134 132 134 139 136 144 147 157
870.0 170 164 161 160 160 157 148 163 190 201
910.0 220 241 253 259 261 253 241 243 269 296
950.0 335 396 485 599 718 837 949 1055 1192 1375
990.0 1592 1809 2017 2154 2188 2148 2036 1889 1745 1626
1030.0 1557 1503 1425 1299 1150 1021 899 802 733 677
1070.0 657 678 719 771 823 863 871 839 779 729
1110.0 693 648 605 571 537 498 461 429 422 431
1150.0 436 429 420 429 442 445 454 458 442 412
1190.0 375 330 282 245 213 201 205 206 222 253
1230.0 283 293 288 271 263 265 267 281 298 297
1270.0 296 302 305 303 316 337 357 370 374 372
1310.0 380 395 418 453 504 574 652 727 790 847
1350.0 896 931 968 1019 1096 1213 1371 1552 1686 1682
1390.0 1525 1251 925 666 520 445 417 419 438 466
1430.0 523 612 731 890 1093 1335 1607 1860 2053 2141
1470.0 2076 1855 1535 1182 873 652 505 411 346 298
1510.0 264 237 214 192 170 156 147 143 134 126
1550.0 119 111 113 111 104 104 112 111 96 95
1590.0 109 118 115 119 120 116 119 125 129 133
1630.0 137 144 154 162 166 179 199 214 247 289
1670.0 337 406 486 588 707 869 1131 1534 2122 2904
1710.0 3803 4644 5235 5305 4682 3663 2616 1719 1099 743
1750.0 552 441 364 300 248 205 167 137 129 121
1790.0 109 98 90 83 74 65 62 61 52 44
1830.0 47 51 49 46 48 49 47 46 43 38
1870.0 37 37 33 35 37 38 36 31 28 28
1910.0 28 33 35 29 29 29 21 18 25 26
1950.0 22 17 16 17 21 21 18 20 16 11
1990.0 13 14 14 14 11 15 17 18 23 18
2030.0 13 16 16 17 20 19 19 18 15 12
2070.0 9 4 7 13 13 9 6 6 5 5
2110.0 9 12 5 0 7 11 9 5 4 3
2150.0 4 11 10 4 7 7 10 11 3 5
2190.0 5 5 8 8 9 8 11 11 8 16
2230.0 26 23 12 9 11 8 12 15 9 3
2270.0 7 8 11 15 16 14 12 15 16 17
2310.0 21 23 18 14 18 14 23 33 27 28
2350.0 31 35 36 37 39 34 32 35 33 36
2390.0 36 31 27 26 26 26 25 19 22 25
2430.0 19 18 17 14 22 28 27 28 28 23
2470.0 21 25 22 20 18 18 26 27 25 28
2510.0 26 18 18 26 32 36 36 34 30 32
2550.0 36 31 31 38 42 43 42 45 46 46
2590.0 48 47 47 46 48 55 63 59 56 55
2630.0 54 62 65 61 60 65 68 65 70 81
2670.0 85 85 79 73 75 91 92 93 99 97
2710.0 103 108 115 124 133 149 164 176 177 178
2750.0 176 171 182 184 179 183 196 203 204 209
2790.0 232 256 266 290 321 339 365 403 439 476
2830.0 526 584 651 745 876 1057 1281 1530 1816 2159
2870.0 2585 3080 3528 3829 3946 3894 3727 3586 3566 3647
2910.0 3799 4010 4265 4613 5084 5662 6258 6688 6824 6677
2950.0 6409 6322 6750 7768 9007 9886 10000 9230 7711 5902
2990.0 4314 3118 2273 1712 1337 1086 904 766 666 595
3030.0 537 484 438 402 365 336 321 309 298 274
3070.0 265 255 243 247 241 233 228 231 237 226
3110.0 210 203 196 188 186 180 166 164 176 170
3150.0 156 153 159 166 166 157 151 147 140 142
3190.0 131 117 119 114 107 96 92 89 69 66
3230.0 69 61 53 55 59 44 33 30 25 34
3270.0 32 30 30 33 42 38 32 31 25 30
3310.0 39 42 53 46 27 19 22 19 17 27
3350.0 37 38 36 41 42 38 36 40 44 43
3390.0 51 61 57 70 95 105 115 113 114 111
3430.0 98 82 76 68 56 45 28 35 43 31
3470.0 30 35 26 13 12 15 20 22 16 13
3510.0 16 10 10 15 9 12 24 19 22 34
3550.0 26 15 25 27 11 10 16 19 10 5
3590.0 11 12 15 16 19 16 20 31 18 19
3630.0 23 24 29 26 31 29 22 13 11 17
3670.0 21 27 30 23 20 23 19 17 12 13
3710.0 22 22 21 21 22 16 24 22 9 20
3750.0 28 16 6 7 16 30 28 22 19 13
3790.0 24 27 25 29 38 38 38 41 39 31
3830.0 31 38 41 49 48
##END=
