##TITLE=m-Chlorocinnamic acid
##JCAMP-DX=4.24
##DATA TYPE=INFRARED SPECTRUM
##ORIGIN=NIST Mass Spectrometry Data Center
##OWNER=NIST Standard Reference Data Program
Collection (C) 2018 copyright by the U.S. Secretary of Commerce
on behalf of the United States of America. All rights reserved.
##CAS REGISTRY NO=1866-38-2
##MOLFORM=C 9 H 7 Cl O 2
##$NIST SOURCE=MSDC-IR
##SPECTROMETER/DATA SYSTEM=HP-GC/MS/IRD
##STATE=gas
##XUNITS=1/CM
##YUNITS=ABSORBANCE
##XFACTOR=1.0
##YFACTOR=0.000003000
##DELTAX=4.0
##FIRSTX=550.0
##LASTX=3846.0
##FIRSTY=0.001911
##MAXX=3846
##MINX=550
##MAXY=0.03
##MINY=0
##NPOINTS=825
##XYDATA=(X++(Y..Y))
550.0 637 1355 1640 2237 2753 2955 2692 2172 1611 1070
590.0 730 557 421 304 249 214 189 159 134 181
630.0 263 383 504 625 743 868 951 956 892 870
670.0 973 1078 1046 899 691 469 368 356 382 430
710.0 450 404 282 158 105 84 86 123 129 122
750.0 124 132 160 202 325 552 849 1191 1467 1397
790.0 1060 702 399 188 88 60 20 0 20 57
830.0 62 70 76 115 202 303 429 570 646 611
870.0 541 510 564 679 772 812 781 692 613 588
910.0 565 497 397 310 251 224 231 284 340 371
950.0 367 367 404 526 727 930 1127 1237 1147 922
990.0 679 479 348 262 189 144 116 97 51 42
1030.0 77 105 114 133 157 183 223 284 379 483
1070.0 648 862 1046 1219 1416 1656 1910 2224 2830 3923
1110.0 5581 7523 8758 8558 7051 5039 3603 2969 2900 3267
1150.0 3859 4284 4140 3423 2446 1656 1229 1019 967 1025
1190.0 1210 1423 1469 1266 920 680 604 569 547 558
1230.0 584 623 669 717 775 838 879 877 852 838
1270.0 840 852 870 888 916 967 1049 1133 1169 1125
1310.0 1005 871 775 710 689 731 855 1076 1382 1745
1350.0 2126 2386 2383 2120 1697 1262 899 632 471 404
1390.0 386 396 414 440 488 564 665 774 854 868
1430.0 795 636 454 335 274 264 281 320 422 597
1470.0 813 965 961 790 564 394 304 251 207 177
1510.0 149 132 129 129 143 166 203 252 319 408
1550.0 519 672 902 1175 1352 1360 1200 959 837 899
1590.0 1038 1079 938 672 458 369 363 411 505 678
1630.0 1009 1526 2155 2613 2586 2041 1231 652 405 300
1670.0 272 292 331 353 335 310 303 327 382 481
1710.0 620 803 1029 1274 1543 1859 2285 2966 4184 6081
1750.0 8294 9945 10000 8572 6575 4651 3413 2780 2407 2115
1790.0 1817 1486 1180 910 693 541 436 371 336 317
1830.0 304 291 259 219 189 167 153 154 159 155
1870.0 140 120 99 82 76 70 62 53 45 41
1910.0 44 50 57 62 76 91 89 85 81 63
1950.0 48 39 30 26 27 25 23 21 23 20
1990.0 24 30 21 23 35 42 44 40 35 34
2030.0 31 31 36 37 40 46 48 43 45 46
2070.0 42 31 17 11 12 17 16 13 13 13
2110.0 11 10 9 9 7 0 0 9 15 14
2150.0 16 14 12 19 18 10 8 9 16 17
2190.0 19 20 18 18 21 25 23 23 23 27
2230.0 32 32 26 19 21 20 9 10 11 10
2270.0 12 7 6 4 0 5 14 12 11 9
2310.0 14 16 19 20 20 25 29 33 30 29
2350.0 29 19 12 15 23 21 17 20 22 19
2390.0 15 6 3 6 4 3 10 19 14 12
2430.0 16 16 16 15 14 19 23 26 34 23
2470.0 18 25 20 15 21 24 21 25 33 25
2510.0 16 16 15 13 16 17 18 11 9 18
2550.0 18 21 21 18 25 33 23 24 33 30
2590.0 35 41 41 29 18 21 21 17 11 16
2630.0 26 22 18 27 34 31 20 20 23 26
2670.0 26 33 35 33 35 30 20 31 37 32
2710.0 32 25 16 20 36 41 43 47 45 37
2750.0 37 41 40 39 37 44 47 48 53 53
2790.0 60 64 53 42 41 39 36 33 39 47
2830.0 44 39 38 45 41 37 40 48 55 52
2870.0 54 59 65 66 63 59 51 56 60 58
2910.0 54 56 58 51 46 50 52 57 62 62
2950.0 70 77 66 57 57 59 59 48 55 59
2990.0 62 79 93 97 97 100 106 116 131 141
3030.0 137 152 166 170 169 179 211 260 330 390
3070.0 425 433 423 394 350 313 254 177 145 115
3110.0 94 82 59 65 75 70 52 49 57 42
3150.0 46 49 45 51 39 42 62 68 56 34
3190.0 27 48 42 20 20 22 19 26 34 33
3230.0 25 31 45 47 44 30 20 27 30 27
3270.0 37 47 48 46 32 13 0 14 24 17
3310.0 18 13 17 12 17 20 10 2 12 32
3350.0 29 17 21 19 20 35 43 30 13 14
3390.0 37 45 41 52 53 45 33 34 35 37
3430.0 34 33 27 23 36 35 26 18 22 39
3470.0 52 52 51 71 76 84 103 126 140 141
3510.0 120 97 85 68 48 51 66 68 81 85
3550.0 106 137 198 294 479 953 1994 3365 4201 3900
3590.0 2638 1336 579 266 168 120 80 82 68 31
3630.0 18 32 35 25 35 38 43 62 48 39
3670.0 43 41 37 13 6 9 13 15 12 10
3710.0 10 21 38 36 19 9 10 39 60 35
3750.0 23 44 56 45 24 13 10 18 27 30
3790.0 36 25 17 23 26 17 7 13 17 2
3830.0 5 35 39 10 13
##END=
