##TITLE=3-Methylquinoline-1-oxide
##JCAMP-DX=4.24
##DATA TYPE=INFRARED SPECTRUM
##ORIGIN=EPA-IR VAPOR PHASE LIBRARY
##OWNER=SRD/NIST
Collection (C) 2018 copyright by the U.S. Secretary of Commerce
on behalf of the United States of America. All rights reserved.
##CAS REGISTRY NO=1873-55-8
##MOLFORM=C 10 H 9 N O
##$NIST SOURCE=MSDC-IR
##STATE=gas
##XUNITS=1/CM
##YUNITS=ABSORBANCE
##XFACTOR=1.
##YFACTOR=0.001
##DELTAX=1.92898
##FIRSTX=549.8
##LASTX=4000.7
##FIRSTY=3.17
##MAXX=4000.7
##MINX=549.759
##MAXY=0.03856
##MINY=0
##NPOINTS=1790
##XYDATA=(X++(Y..Y))
549.759 3.17 3.21 3.74 4.37 4.38 3.93 4.8 6.51 7.26 6.54
569.049 5.56 6.16 7.5 8.06 10.25 12.02 10.05 8.37 8.11 6.79
588.339 6.4 5.99 3.87 2.92 3.1 2.53 1.5239 1.3513 1.1687 1.4171
607.628 1.8232 1.2344 1.1741 1.4393 1.13497 0.376 0.627 1.4922 2.19 2.62
626.918 2.75 3.04 3.57 4.17 4.79 5.66 6.17 6.53 6.75 6.03
646.208 5.56 6.03 5.3 4.21 3.77 2.6 1.2429 0.9789 1.2005 0.869
665.498 0.833 1.188 1.1622 0.585 0.261 0.725 0.672 0.389 0.126 0.123
684.787 0.734 0.9932 1.04886 0.841 0.783 1.3647 1.7742 1.3734 0.923 1.1785
704.077 0.946 0.739 1.2049 1.1792 0.64 1.11291 1.6735 1.4969 1.6559 2.38
723.367 3.16 3.59 4.07 4.73 5.17 5.89 6.57 6.81 8.34 10.6
742.657 10.31 9.25 9.74 10.38 11.23 12.03 13.14 14.16 13.81 13.98
761.947 16.92 21.43 20.65 15.14 12.1 11 9.8 8.79 7.97 6.94
781.236 5.03 3.37 3.07 2.81 2.2 2.11 2.16 2.09 2.0342 2.0046
800.526 2.0152 2.37 2.89 3.07 3.84 5.4 7.06 8.48 10.5 12.65
819.816 14.5 16.65 21.01 27.05 25.33 17.57 14.06 13.26 12.43 10.97
839.106 9.15 7.56 5.75 4.07 3.21 3.05 2.95 2.74 2.0363 1.9509
858.395 1.9647 1.9327 2.27 2.62 2.55 2.39 2.74 2.4 1.9618 1.7126
877.685 1.6323 1.7448 2.2 2.37 1.4403 1.4542 2.07 1.6068 1.4097 1.2593
896.975 1.4505 1.6697 1.1631 1.357 1.13237 0.654 1.14044 1.7135 2.22 1.9489
916.265 1.4719 1.5604 1.845 1.856 1.431 1.1907 1.4239 1.6699 1.592 1.5121
935.555 1.8488 2.06 1.6153 1.4177 1.9059 2.65 2.66 2.2 1.9836 2.31
954.844 2.77 2.45 2.2 2.16 2.45 3.06 3.4 3.85 4.82 5.31
974.134 5.72 7.62 9.65 10.9 10.89 10.33 10.45 11.09 10.82 9.63
993.424 8.46 6.69 5.83 5.17 4.11 3.67 3.25 3.03 3.22 3.2
1012.714 3.01 3.67 4.35 4.37 4.53 4.45 4.36 4.05 3.66 2.83
1032.003 1.8102 2.06 1.8394 1.4432 1.7586 2.05 2.06 1.2163 0.917 1.6587
1051.293 1.8427 1.4607 0.307 0.715 1.6638 1.8115 2.28 1.5541 1.181 1.4417
1070.583 0.737 0.234 0.9771 1.5771 2.1 1.7488 1.337 2.65 3.86 2.12
1089.873 1.6115 2.82 2.98 3.5 2.87 2.5 2.0401 2.45 2.72 1.9549
1109.163 1.7695 0.892 0.866 0.656 1.2642 2.99 4.02 4.47 4.87 5.07
1128.452 4.5 4.62 5.16 6.07 6.91 7.66 8.71 8.68 8.46 8.68
1147.742 8.6 8.03 8.09 7.78 6.76 6.34 5.89 5.47 4.87 3.99
1167.032 3.92 4.99 5.35 4.31 3.66 2.74 1.7123 1.10228 1.019 1.7835
1186.322 1.5713 0.9599 0.77 1.0265 0.643 0.471 1.3457 0.9853 0.219 1.6248
1205.611 2.32 2.42 5.91 9.76 12.41 16.2 19.97 23.78 26.78 26.51
1224.901 25.18 26.36 29.39 30.09 26.25 21.04 17.23 13.76 10.62 8.29
1244.191 7.19 6.37 5.67 5.76 5.72 5.54 4.92 4.48 4.51 4.62
1263.481 5.44 5.44 4.6 4.55 4.98 4.87 4.41 3.64 2.95 2.83
1282.771 2.77 2.71 2.49 2.59 2.7 2.27 2.08 2.48 3.13 3.51
1302.060 3.96 4.75 5.62 6.88 8.44 10.55 13.11 15.63 18.08 20.22
1321.350 21.72 22.17 21.79 21.15 21.13 20.76 18.82 16.08 13.22 10.92
1340.640 9.55 8.88 8.81 9.15 9.94 11.08 12.56 14.28 15.86 17.7
1359.930 20.12 23.19 26.74 30.33 33.75 36.69 38.41 38.56 37.93 37.81
1379.219 38.27 37.73 35.33 31.75 27.87 24.28 21.63 19.57 17.64 16.15
1398.509 15.02 13.96 12.83 11.82 10.87 10.31 10.05 9.71 9.7 10.05
1417.799 10.18 10.02 9.67 9.4 9.14 8.68 8.05 7.1 6.11 5.34
1437.089 4.78 4.43 4.26 4.12 4 4.02 4.39 4.68 4.86 5.18
1456.378 5.23 5.14 5.33 5.41 5.37 5.29 5.3 5.45 5.42 5.58
1475.668 5.91 6.17 6.37 6.75 7.39 7.99 8.96 9.88 10.7 11.58
1494.958 12.12 12.25 12.17 11.92 11.39 10.63 9.25 7.66 6.56 5.65
1514.248 4.9 4.4 3.92 3.8 3.85 3.42 3.02 3.09 3.28 3.29
1533.538 3.18 3.06 2.93 3.06 3.08 3.1 3.53 3.84 4.48 5.53
1552.827 6.59 7.94 9.48 11.14 13.41 15.77 17.83 19.92 21.78 23.17
1572.117 23.71 23.43 23.19 22.79 21.49 19.53 17.25 14.6 12.34 10.63
1591.407 9.02 7.67 6.36 5.7 5.2 4.6 4.65 4.59 4.26 4.48
1610.697 4.69 4.6 4.71 4.44 4.33 4.44 4.21 3.98 3.85 3.8
1629.986 3.55 3.28 3.02 2.77 2.72 2.76 2.69 2.44 2.06 1.8804
1649.276 1.9642 2.12 2.21 1.9596 1.7059 1.8509 2.0073 2.17 2.26 2.31
1668.566 2.54 2.57 2.6 2.74 2.73 2.53 2.42 2.34 2.53 2.78
1687.856 2.67 2.59 2.83 2.97 3.14 3.22 3.12 2.86 2.79 2.94
1707.146 2.75 2.77 2.92 2.9 2.94 2.89 2.88 2.75 2.69 2.68
1726.435 2.39 2.41 2.0301 1.6489 1.6738 1.4186 1.4578 1.6036 1.7349 1.7885
1745.725 1.6329 1.43 1.2269 1.1774 1.2057 1.2647 1.3386 1.4564 1.3908 1.2089
1765.015 1.2185 1.334 1.3944 1.3931 1.378 1.3244 1.2503 1.2544 1.4132 1.6297
1784.305 1.7026 1.4639 1.4434 1.6288 1.7273 1.9853 2.11 1.933 1.9152 1.9246
1803.594 1.8493 1.9178 2.0004 2.09 2.0128 2.09 2.22 2.09 2.07 2.08
1822.884 2.13 2.23 2.22 2.11 2.0204 1.9335 1.9572 2.09 1.9073 1.6472
1842.174 1.7178 1.7639 1.8297 1.7776 1.5775 1.5407 1.5979 1.7448 1.6777 1.5511
1861.464 1.5221 1.4377 1.3535 1.3854 1.327 1.217 1.2493 1.3696 1.4971 1.6585
1880.754 1.5732 1.4182 1.4612 1.4757 1.5399 1.4544 1.3609 1.3952 1.5248 1.6017
1900.043 1.6054 1.4974 1.5827 1.8238 1.9981 2.0349 1.9402 1.8676 1.7302 1.9219
1919.333 2.11 2.2 2.22 2.11 2.07 2.2 2.29 2.13 2.1 2.16
1938.623 2.22 2.24 2.24 2.19 1.9777 1.9698 2.11 2.38 2.51 2.2
1957.913 2.09 2.05 1.9257 1.9307 1.9042 1.9295 1.9053 1.7879 1.7152 1.7344
1977.202 1.6266 1.5035 1.5756 1.6646 1.7034 1.7169 1.6471 1.5562 1.3916 1.4042
1996.492 1.573 1.4438 1.3432 1.4328 1.4751 1.2762 1.206 1.186 1.1653 1.4365
2015.782 1.4928 1.3848 1.3622 1.341 1.6097 1.7062 1.6644 1.8534 1.7359 1.5391
2035.072 1.4955 1.5907 1.6345 1.4202 1.192 1.12838 1.3113 1.3334 1.3867 1.4472
2054.362 1.3575 1.2887 1.3008 1.4907 1.5275 1.4337 1.3499 1.3737 1.3166 1.1774
2073.651 1.1888 1.3418 1.3358 1.527 1.7594 1.6343 1.4378 1.4225 1.391 1.3639
2092.941 1.6379 1.5044 1.1818 1.2854 1.3867 1.3129 1.403 1.4873 1.5519 1.5122
2112.231 1.436 1.5296 1.5139 1.3514 1.2966 1.3232 1.3595 1.3643 1.3456 1.3482
2131.521 1.3417 1.4391 1.3404 1.3639 1.4194 1.3655 1.4938 1.6492 1.7592 1.6096
2150.810 1.5214 1.5614 1.5004 1.4833 1.4449 1.5078 1.695 1.5329 1.3658 1.4453
2170.100 1.4909 1.3857 1.4036 1.4669 1.4912 1.5557 1.3963 1.3236 1.3922 1.5006
2189.390 1.5569 1.6607 1.6564 1.6181 1.6996 1.5909 1.5513 1.6228 1.6012 1.5523
2208.680 1.5551 1.6755 1.8852 1.8582 1.7811 1.6825 1.794 1.8604 1.7491 1.7996
2227.970 1.5954 1.6592 1.5698 1.2389 1.5344 1.7144 1.847 1.9246 1.9017 2.07
2247.259 2.11 1.9129 1.7635 1.6806 1.7043 1.7084 1.6637 1.954 1.807 1.6959
2266.549 1.7153 1.5977 1.846 1.8161 1.5776 1.644 1.5073 1.4135 1.7136 1.758
2285.839 1.5979 1.6182 1.7516 1.9131 1.8977 1.8206 2.07 2.23 1.9945 1.6656
2305.129 1.5944 1.9327 2.09 2.0192 2.06 2.06 1.8615 1.6444 1.8217 2.22
2324.418 2.18 2.21 2.1 1.6754 1.7778 1.9389 1.9964 2.0285 1.8504 1.7782
2343.708 1.7608 1.8599 2.23 2.29 2.31 2.31 2.28 2.23 1.7841 1.8207
2362.998 2.0274 2.06 2.15 2.05 2.0194 1.9132 1.7661 1.6779 1.7111 1.7177
2382.288 1.7042 1.6612 1.5634 1.54 1.7124 1.7259 1.5953 1.5906 1.7325 1.9416
2401.578 1.8748 1.7977 1.915 1.9212 1.8037 1.7215 1.5326 1.3499 1.3134 1.5484
2420.867 1.7911 1.7159 1.6951 1.7964 1.9735 2.1 1.9708 1.9668 2.06 2.0439
2440.157 1.9959 1.9073 2.13 2.17 1.8932 1.9325 2.0241 1.9926 2.36 2.32
2459.447 1.9924 2.14 2.24 2.17 2.0273 2.0112 2.15 2.28 2.28 1.9689
2478.737 1.658 1.8386 1.9014 1.9159 2.08 2.0016 1.9344 1.955 1.8308 1.637
2498.026 1.7542 1.7899 1.8153 1.9811 1.7778 1.8982 2.11 2.09 2.06 1.9931
2517.316 2.0006 1.9808 2.17 2.28 2.28 2.06 1.682 1.7378 2.0174 2.07
2536.606 2.09 2.15 2.19 2.23 1.9821 1.9052 1.876 1.8582 1.9979 1.7704
2555.896 1.7492 2.0066 2.07 1.8929 1.6666 1.8467 2.3 2.21 2.1 2.27
2575.186 2.0087 1.8286 1.9213 2.0453 2.05 2.15 2.3 2.34 2.6 2.55
2594.475 2.23 2.3 2.28 2.0252 1.9643 2.28 2.0215 1.7282 1.8646 1.8776
2613.765 1.9213 1.8562 1.8317 1.8376 1.6402 1.4122 1.7032 1.8315 1.7494 1.9826
2633.055 1.8202 1.781 1.9579 1.8041 1.6025 1.335 1.6158 2.14 1.7765 1.1993
2652.345 1.4929 1.5834 1.3884 1.2245 1.178 1.6067 1.8295 1.6914 1.4889 1.4065
2671.634 1.4375 1.585 1.7414 1.7195 1.767 1.979 1.7575 1.5594 1.5728 1.7214
2690.924 1.7824 1.5248 1.5515 1.9726 1.9784 1.911 1.7662 1.6524 2.0021 1.8973
2710.214 1.6278 2.13 2.57 2.19 2.1 1.7954 1.5489 1.7761 1.8053 1.9074
2729.504 2.24 2.18 1.8661 1.8693 1.6845 1.7945 2.11 2.2 2.22 1.8667
2748.794 1.9685 1.9542 1.8646 1.9046 1.7919 1.8161 1.8454 2.0338 1.8562 1.8759
2768.083 1.7225 1.4619 1.5595 1.4919 1.6185 1.9624 1.9978 1.7384 1.8786 2.16
2787.373 2.08 1.7733 1.4872 1.4535 1.6331 1.8023 2.11 1.9578 1.7119 1.9231
2806.663 1.8301 1.9309 2.08 1.851 1.8703 2.07 1.8602 1.8366 1.8779 1.702
2825.953 1.5851 1.6417 1.7897 1.7469 1.8721 1.8919 1.8878 2.18 2.15 2.15
2845.242 2.39 2.58 2.37 2.17 2.42 2.59 2.65 2.78 3.28 3.93
2864.532 4.1 4.17 4.46 4.28 4.17 4.15 3.97 3.93 3.77 3.76
2883.822 4.15 4.07 3.94 4.05 3.58 3.41 3.81 3.93 3.73 3.52
2903.112 3.71 4.21 4.36 4.17 4.18 4.12 4.13 4.48 4.98 5.45
2922.401 5.54 6.1 6.88 7.91 8.92 9.14 9.11 9.09 9.09 8.73
2941.691 8.16 7.73 7.02 6.47 6.31 5.91 5.1 4.39 4.5 4.5
2960.981 4.4 4.81 4.48 4.18 4.36 3.97 3.73 3.88 3.65 3.68
2980.271 4 3.96 3.99 3.62 3.37 4.06 4.26 3.92 3.6 3.43
2999.561 3.76 3.8 3.58 3.64 3.64 3.67 3.49 3.33 3.7 4.07
3018.850 3.9 3.75 4.17 4.57 4.46 4.47 4.97 5.1 4.95 4.82
3038.140 5.02 5.95 6.62 7.18 7.93 8.25 8.85 9.47 9.63 10.27
3057.430 11.29 11.86 12.1 11.86 11.85 11.69 11.65 11.72 11.52 11.32
3076.720 10.61 9.98 9.48 8.55 7.4 6.89 6.96 6.8 6.16 5.62
3096.009 5.2 4.54 3.88 3.83 3.55 2.77 2.94 3.1 2.4 2.35
3115.299 2.48 2.06 2.003 1.777 1.638 1.8632 1.4369 1.277 1.5577 1.7283
3134.589 1.9441 2.11 2.08 1.7311 1.3438 1.4918 1.8776 2.0277 2.17 2.34
3153.879 2.12 1.8502 1.4863 1.1097 1.5416 1.8014 1.5398 1.8693 1.6485 1.1703
3173.169 1.3387 1.7263 2.0491 1.836 1.7603 1.10758 1.2605 1.477 1.1928 2.09
3192.458 2.2 1.4796 1.3467 1.3076 1.2889 1.3683 1.6463 1.7366 1.5404 1.5093
3211.748 1.4145 1.5381 1.814 1.9089 1.4918 1.11888 1.2554 1.10341 0.811 1.1631
3231.038 1.181 1.04432 1.4045 1.4866 1.1905 1.1848 0.906 0.849 1.3688 1.4757
3250.328 1.391 1.4449 1.598 1.434 1.592 1.4755 1.4348 1.7363 1.7009 1.3661
3269.617 0.763 1.1684 1.7883 1.6432 1.6219 2.0416 1.8589 1.5506 1.5314 1.3635
3288.907 1.4554 1.5282 1.4085 1.4349 1.6997 1.7613 1.7023 1.8691 1.6611 1.3349
3308.197 1.2853 1.4086 1.173 1.04278 1.2887 0.9847 1.0108 1.2149 1.1718 1.6223
3327.487 1.4822 1.2909 1.4105 1.3898 1.8512 1.5974 1.5417 1.9376 1.4534 0.543
3346.777 0.498 0.9813 1.4259 1.5934 1.357 1.3105 1.1663 1.12877 1.2544 1.4133
3366.066 1.3329 1.13129 1.3755 1.4985 1.5313 1.1829 1.2214 1.3556 1.1836 1.3291
3385.356 1.3563 1.3986 1.4145 1.4385 1.1614 1.0801 1.6035 1.4658 1.2222 1.4056
3404.646 1.5254 1.8205 1.8797 1.6897 1.3926 1.4565 1.315 0.9605 1.13403 0.814
3423.936 0.671 1.0046 1.5069 1.2719 0.575 0.721 0.9943 1.07421 1.4921 1.5535
3443.225 1.415 1.6682 1.5451 1.1841 1.07865 1.2101 1.1991 1.2518 1.453 1.4078
3462.515 1.1847 1.5094 1.5213 1.223 1.14481 1.3987 1.5534 1.4424 1.4168 1.4613
3481.805 1.6417 1.2034 0.9608 1.0943 1.08008 1.2787 1.4705 1.4858 1.1992 1.2615
3501.095 1.3649 1.19 1.5388 1.5759 1.3477 1.342 1.236 0.908 0.902 1.281
3520.385 1.2972 1.3143 1.8533 2.16 1.2991 0.9814 0.9791 0.36 0.752 1.3362
3539.674 1.3509 1.1979 1.1712 1.4488 1.3337 1.0094 1.1202 1.562 1.6266 1.363
3558.964 1.08576 0.755 0.95 1.2006 1.2383 1.3822 1.4592 1.06126 0.836 0.716
3578.254 0.502 0.855 0.564 0 0.665 1.369 1.151 1.0098 1.1604 1.1775
3597.544 1.10489 1.3242 1.2713 1.374 1.491 1.09926 0.756 0.157 0.191 0.911
3616.833 1.2216 1.3715 1.5162 1.13262 0.89 0.93 0.857 1.2396 1.3784 1.5889
3636.123 1.3498 0.9833 0.929 1.0117 1.2383 1.1969 1.4472 1.6146 1.679 1.1661
3655.413 0.747 0.922 1.0088 0.9766 1.06412 0.61 0.507 1.11137 1.04493 1.2239
3674.703 1.3589 1.05179 0.678 0.909 1.4573 1.4087 1.13136 1.3484 1.283 0.9513
3693.993 0.932 0.856 1.3744 1.3853 1.3002 1.4203 1.153 1.0288 1.2266 1.4747
3713.282 1.3657 1.5552 2.0494 2.23 1.886 1.5373 1.4855 1.4793 1.353 1.11465
3732.572 1.3494 1.792 1.5295 1.5215 1.8303 1.8188 1.8361 1.9148 1.7122 1.3748
3751.862 1.3373 1.4955 1.2766 1.2055 1.0831 0.91 1.2674 1.6123 1.7534 1.8641
3771.152 1.3896 1.3939 1.5767 1.2685 1.5221 1.8804 1.8362 1.6133 1.5718 1.4173
3790.441 1.5237 1.5816 1.4818 1.4795 1.4395 1.329 1.4118 1.299 1.0385 1.2196
3809.731 1.4451 1.5056 0.9875 0.639 0.868 0.936 1.09931 1.2788 1.5617 1.7622
3829.021 1.5571 1.0043 1.12455 1.7231 1.4212 1.0376 1.1765 1.3605 1.3478 1.2978
3848.311 1.496 1.6859 1.7881 1.8314 1.5157 1.5011 1.2024 1.1909 1.4581 1.12133
3867.601 1.4757 1.5445 1.2777 1.6106 1.9052 1.7007 1.12226 1.0066 1.3234 1.7705
3886.890 2.049 2.16 1.9192 1.7843 1.5702 0.9831 1.2449 1.7845 1.4865 1.0396
3906.180 0.72 0.231 0.601 1.12228 1.1998 1.2637 1.3234 1.6932 1.8617 1.5784
3925.470 1.4048 1.062 1.0379 1.5556 1.5018 1.2085 1.2496 1.3971 1.2835 1.5166
3944.760 1.4558 1.1519 1.3753 1.09563 1.3993 1.7402 1.1668 1.4578 2.13 1.8669
3964.049 1.5385 1.4489 1.5524 1.787 2.19 2.019 1.3234 1.2826 1.5986 2.06
3983.339 1.9202 1.5878 1.5912 2.11 2.31 1.6 1.3197 1.4619 1.7203 2.0156
##END=
