##TITLE=4-Chlorophenyl methyl carbinol
##JCAMP-DX=4.24
##DATA TYPE=INFRARED SPECTRUM
##ORIGIN=EPA-IR VAPOR PHASE LIBRARY
##OWNER=SRD/NIST
Collection (C) 2018 copyright by the U.S. Secretary of Commerce
on behalf of the United States of America. All rights reserved.
##CAS REGISTRY NO=1875-88-3
##MOLFORM=C 8 H 9 Cl O
##$NIST SOURCE=MSDC-IR
##STATE=gas
##XUNITS=1/CM
##YUNITS=ABSORBANCE
##XFACTOR=1.
##YFACTOR=0.001
##DELTAX=1.92934
##FIRSTX=549.9
##LASTX=3999.5
##FIRSTY=3.845
##MAXX=3999.53
##MINX=549.863
##MAXY=0.024555
##MINY=0
##NPOINTS=1789
##XYDATA=(X++(Y..Y))
549.863 3.845 3.535 3.215 3.015 2.965 2.655 2.335 2.175 1.845 1.695
569.156 1.605 1.525 1.465 1.335 1.2825 1.1291 0.9787 1.1288 1.2425 1.1488
588.450 1.0585 1.0358 0.92 0.8643 0.9468 1.0224 1.0223 0.8984 0.873 0.8673
607.743 0.8544 0.9952 1.0284 1.0745 1.0614 1.1696 1.2554 1.1304 1.173 1.2343
627.037 1.185 1.1574 1.2113 1.2658 1.415 1.475 1.505 1.525 1.475 1.455
646.330 1.495 1.535 1.515 1.565 1.565 1.465 1.365 1.1872 1.102 1.1221
665.624 1.1265 1.0205 0.8932 0.89 0.7819 0.7345 0.7574 0.7325 0.73 0.664
684.917 0.7027 0.7223 0.6514 0.7179 0.7428 0.7753 0.7804 0.6093 0.6457 0.8886
704.210 0.9668 0.9161 0.9665 1.0589 1.0518 1.0821 1.1527 1.244 1.325 1.365
723.504 1.365 1.315 1.2774 1.2508 1.2549 1.2686 1.2293 1.2309 1.1812 1.1473
742.797 1.1388 1.0985 1.0845 1.0596 0.9832 0.973 1.0724 1.184 1.375 1.565
762.091 1.875 2.225 2.615 3.095 3.445 3.645 3.745 3.845 3.805 3.575
781.384 3.255 2.945 2.675 2.435 2.265 2.245 2.335 2.365 2.455 2.655
800.678 2.875 3.135 3.545 3.985 4.395 5.045 5.745 6.475 7.255 7.935
819.971 8.695 9.445 10.035 10.495 10.775 10.615 9.885 9.065 8.275 7.465
839.264 6.675 5.865 5.095 4.365 3.685 3.125 2.665 2.275 1.945 1.805
858.558 1.765 1.645 1.535 1.595 1.655 1.575 1.655 1.815 1.935 2.085
877.851 2.265 2.505 2.825 3.165 3.505 3.915 4.375 4.775 5.115 5.315
897.145 5.405 5.485 5.385 5.055 4.735 4.355 3.885 3.485 3.155 2.835
916.438 2.505 2.255 2.075 1.885 1.685 1.545 1.445 1.365 1.365 1.335
935.732 1.305 1.285 1.2003 1.1725 1.1542 1.104 1.1087 1.1172 1.1159 1.1284
955.025 1.2 1.1703 1.1921 1.2558 1.2724 1.285 1.325 1.385 1.435 1.585
974.318 1.675 1.805 1.985 2.145 2.365 2.555 2.735 2.925 3.255 3.595
993.612 3.915 4.315 4.725 5.255 5.945 6.915 8.305 9.995 11.445 12.105
1012.905 11.945 11.575 11.275 10.725 9.445 7.395 5.435 4.165 3.485 3.135
1032.199 2.955 2.925 2.975 3.095 3.295 3.565 3.855 4.185 4.505 4.865
1051.492 5.215 5.565 5.925 6.355 6.855 7.355 7.875 8.515 9.175 9.845
1070.786 10.675 11.625 12.545 13.535 14.625 15.815 16.955 18.145 19.475 20.935
1090.079 22.525 23.895 24.555 24.425 23.605 22.305 20.745 18.615 15.855 12.795
1109.372 10.055 7.955 6.575 5.655 4.805 4.175 3.795 3.345 2.895 2.635
1128.666 2.375 2.085 1.955 1.885 1.795 1.745 1.705 1.665 1.775 1.855
1147.959 1.775 1.805 1.865 1.995 2.105 2.155 2.255 2.295 2.385 2.445
1167.253 2.565 2.715 2.705 2.795 2.865 2.865 2.865 2.845 2.825 2.935
1186.546 3.005 2.865 2.885 3.075 3.045 3.135 3.185 3.205 3.035 2.925
1205.840 2.985 2.665 2.655 2.725 2.655 2.625 2.665 2.825 2.895 2.985
1225.133 3.095 3.155 3.295 3.375 3.405 3.425 3.515 3.765 3.975 4.215
1244.426 4.585 4.785 4.915 5.085 5.145 5.325 5.465 5.385 5.145 4.935
1263.720 4.865 4.915 4.795 4.425 4.135 3.975 3.785 3.615 3.545 3.535
1283.013 3.515 3.575 3.695 3.775 3.815 3.815 3.835 3.855 3.765 3.635
1302.307 3.515 3.345 3.225 3.145 3.035 3.015 3.045 3.085 3.135 3.275
1321.600 3.375 3.455 3.625 3.755 3.905 4.045 4.175 4.335 4.455 4.555
1340.894 4.715 4.825 4.895 5.005 5.095 5.115 5.155 5.175 5.155 5.165
1360.187 5.125 5.065 5.015 4.975 4.975 4.985 5.015 5.105 5.195 5.265
1379.480 5.255 5.205 5.155 5.085 4.975 4.835 4.675 4.585 4.505 4.385
1398.774 4.275 4.195 4.165 4.125 4.035 3.925 3.825 3.665 3.515 3.365
1418.067 3.175 2.955 2.745 2.615 2.455 2.315 2.275 2.255 2.195 2.205
1437.361 2.245 2.195 2.165 2.235 2.345 2.425 2.445 2.495 2.555 2.645
1456.654 2.765 2.805 2.915 3.025 3.165 3.365 3.555 3.775 4.115 4.525
1475.948 5.005 5.615 6.435 7.585 8.955 10.525 11.985 13.055 13.575 13.565
1495.241 13.085 12.225 10.985 9.245 7.215 5.355 3.925 2.885 2.205 1.785
1514.534 1.505 1.335 1.1748 1.0916 1.0063 0.923 0.8699 0.8266 0.8088 0.7415
1533.828 0.7013 0.6882 0.6717 0.6875 0.6299 0.591 0.5966 0.6029 0.6169 0.5741
1553.121 0.6101 0.6568 0.6478 0.6665 0.6127 0.5884 0.691 0.8149 0.8448 0.8768
1572.415 0.9864 1.0815 1.1699 1.2732 1.375 1.455 1.565 1.715 1.825 1.975
1591.708 2.135 2.305 2.505 2.565 2.535 2.445 2.365 2.255 2.025 1.725
1611.002 1.425 1.1931 1.0279 0.9251 0.8725 0.8023 0.7176 0.7085 0.7835 0.8267
1630.295 0.8407 0.8106 0.8125 0.8524 0.9077 0.9707 0.9897 1.0106 1.0078 1.0226
1649.588 1.0213 0.9444 0.885 0.8505 0.8007 0.7092 0.6094 0.6127 0.6121 0.5418
1668.882 0.5077 0.4714 0.4174 0.4305 0.4302 0.4221 0.3853 0.38275 0.4383 0.4212
1688.175 0.4058 0.3994 0.32054 0.293264 0.36186 0.4195 0.4862 0.5023 0.502 0.5268
1707.469 0.4833 0.4358 0.4218 0.4002 0.4119 0.4113 0.35658 0.31251 0.286437 0.30566
1726.762 0.34116 0.35411 0.3395 0.3854 0.36477 0.292232 0.284688 0.2965 0.36098 0.37597
1746.056 0.3951 0.37763 0.38212 0.4475 0.4941 0.5535 0.5943 0.5767 0.5375 0.6017
1765.349 0.6607 0.6955 0.6996 0.6867 0.6849 0.631 0.6293 0.603 0.5394 0.4859
1784.642 0.4456 0.4175 0.35868 0.33641 0.36479 0.32614 0.185 0.144 0.171 0.2022
1803.936 0.179 0.162 0.2223 0.1999 0.158 0.144 0.174 0.2112 0.2477 0.2291
1823.229 0.186 0.154 0.15 0.204 0.1969 0.153 0.118 0.102 0.104 0.132
1842.523 0.193 0.1944 0.153 0.171 0.1944 0.2076 0.2075 0.2378 0.30679 0.31066
1861.816 0.31918 0.3895 0.3897 0.3973 0.4847 0.522 0.5462 0.5796 0.6305 0.676
1881.110 0.7054 0.7431 0.7883 0.816 0.9011 0.9221 0.9019 0.9218 0.8856 0.8424
1900.403 0.788 0.7656 0.7533 0.6903 0.6565 0.6426 0.6045 0.5491 0.4752 0.4337
1919.696 0.3924 0.35215 0.31474 0.27934 0.2217 0.2086 0.2627 0.2521 0.2134 0.2332
1938.990 0.2336 0.1882 0.1961 0.2283 0.2624 0.2565 0.2134 0.2218 0.1977 0.169
1958.283 0.183 0.2198 0.2387 0.175 0.135 0.177 0.2395 0.2572 0.2302 0.2344
1977.577 0.2474 0.2188 0.2192 0.2514 0.28026 0.290731 0.2673 0.2715 0.2404 0.1912
1996.870 0.2064 0.2149 0.2142 0.159 0.124 0.164 0.2116 0.1946 0.144 0.146
2016.164 0.174 0.2017 0.199 0.161 0.141 0.148 0.134 0.147 0.1943 0.1938
2035.457 0.151 0.132 0.145 0.173 0.158 0.151 0.1868 0.18 0.143 0.109
2054.750 0.144 0.138 0.121 0.141 0.118 0.145 0.177 0.168 0.173 0.158
2074.044 0.137 0.147 0.1957 0.2199 0.184 0.154 0.161 0.164 0.1851 0.167
2093.337 0.119 0.146 0.144 0.165 0.17 0.155 0.1965 0.174 0.135 0.152
2112.631 0.161 0.158 0.159 0.174 0.166 0.139 0.134 0.13 0.134 0.138
2131.924 0.147 0.136 0.123 0.144 0.114 0.093 0.127 0.144 0.13 0.151
2151.218 0.134 0.123 0.13 0.125 0.138 0.133 0.12 0.13 0.132 0.155
2170.511 0.1938 0.172 0.116 0.086 0.11 0.162 0.2048 0.161 0.145 0.176
2189.804 0.154 0.138 0.13 0.107 0.117 0.158 0.175 0.155 0.158 0.163
2209.098 0.159 0.141 0.096 0.098 0.088 0.092 0.139 0.165 0.152 0.11
2228.391 0.158 0.2022 0.2098 0.2284 0.1928 0.161 0.154 0.1882 0.2053 0.1884
2247.685 0.173 0.198 0.2237 0.2499 0.2729 0.2704 0.2737 0.293986 0.293684 0.2493
2266.978 0.2318 0.2625 0.32838 0.32975 0.29696 0.2694 0.31044 0.325 0.31058 0.3464
2286.272 0.2922 0.2593 0.30233 0.30598 0.293844 0.2687 0.288679 0.32144 0.33352 0.37714
2305.565 0.34057 0.27761 0.2487 0.2172 0.2442 0.293899 0.248 0.2133 0.2526 0.2608
2324.858 0.2614 0.2317 0.1892 0.191 0.1916 0.197 0.1951 0.1961 0.2045 0.1941
2344.152 0.179 0.202 0.2032 0.1881 0.1957 0.216 0.2389 0.2059 0.2436 0.2346
2363.445 0.2301 0.2708 0.2022 0.1955 0.2718 0.2269 0.2055 0.2543 0.2216 0.2121
2382.739 0.2168 0.2127 0.2434 0.2592 0.2554 0.29572 0.292221 0.2332 0.1942 0.2246
2402.032 0.288841 0.29911 0.28156 0.2413 0.2121 0.2164 0.1984 0.2337 0.27581 0.2592
2421.326 0.27715 0.2524 0.244 0.294846 0.29868 0.27954 0.2608 0.2592 0.2527 0.2287
2440.619 0.2534 0.2602 0.2569 0.289259 0.27524 0.2397 0.2341 0.2652 0.261 0.27965
2459.912 0.33587 0.32116 0.3192 0.31874 0.27864 0.2718 0.29943 0.2664 0.1887 0.2203
2479.206 0.2691 0.2739 0.2166 0.2019 0.2199 0.2398 0.37394 0.37169 0.29892 0.30377
2498.499 0.3133 0.31225 0.27884 0.2312 0.2174 0.2059 0.2029 0.2428 0.31345 0.29956
2517.793 0.287521 0.32829 0.31305 0.287026 0.28112 0.2613 0.285692 0.31427 0.30658 0.2634
2537.086 0.1851 0.2183 0.2605 0.2827 0.36533 0.37063 0.285645 0.2547 0.2592 0.2538
2556.380 0.27602 0.32501 0.35486 0.33479 0.31194 0.348 0.36268 0.31486 0.33279 0.36534
2575.673 0.35622 0.3921 0.4248 0.4363 0.4085 0.4401 0.499 0.47 0.4246 0.402
2594.966 0.4115 0.4403 0.4223 0.36732 0.38144 0.36929 0.32637 0.36749 0.36559 0.31195
2614.260 0.35885 0.4149 0.4072 0.4001 0.35795 0.38216 0.4617 0.4203 0.32702 0.31514
2633.553 0.3737 0.3767 0.29496 0.2966 0.3773 0.38425 0.31038 0.31066 0.35847 0.32122
2652.847 0.32413 0.4166 0.4078 0.35363 0.32493 0.34728 0.388 0.36099 0.37855 0.37936
2672.140 0.33504 0.284152 0.27719 0.33678 0.33367 0.33766 0.3894 0.397 0.4001 0.37996
2691.434 0.34676 0.37252 0.4294 0.34616 0.30531 0.38467 0.34032 0.2625 0.27926 0.27765
2710.727 0.2706 0.35255 0.4229 0.4431 0.4383 0.4547 0.4509 0.4172 0.35883 0.37757
2730.020 0.4427 0.4297 0.38063 0.4169 0.4655 0.4343 0.4347 0.5555 0.591 0.4516
2749.314 0.4794 0.4585 0.4486 0.4911 0.4429 0.4604 0.4438 0.36784 0.3462 0.4381
2768.607 0.5372 0.5293 0.5266 0.4937 0.4712 0.5218 0.493 0.5029 0.5379 0.4929
2787.901 0.5365 0.5814 0.4841 0.4835 0.5302 0.5296 0.5474 0.6364 0.7069 0.6469
2807.194 0.6628 0.6476 0.574 0.5764 0.6499 0.6504 0.6184 0.7805 0.8919 0.8978
2826.488 0.881 0.8579 0.8524 0.8371 0.8266 0.8383 0.9405 0.9915 1.0491 1.1785
2845.781 1.2126 1.2731 1.355 1.385 1.535 1.725 1.875 1.995 2.095 2.335
2865.074 2.585 2.785 3.025 3.265 3.495 3.715 3.985 4.245 4.455 4.515
2884.368 4.525 4.725 4.795 4.775 4.815 4.735 4.635 4.575 4.415 4.165
2903.661 3.975 3.835 3.725 3.705 3.625 3.415 3.345 3.295 3.245 3.235
2922.955 3.165 3.195 3.375 3.505 3.515 3.625 3.735 3.685 3.625 3.585
2942.248 3.495 3.275 3.045 2.885 2.755 2.675 2.735 2.885 2.985 3.205
2961.542 3.575 4.015 4.515 4.995 5.675 6.605 7.535 8.265 9.015 9.705
2980.835 10.225 10.535 10.415 10.115 9.575 8.795 7.835 6.635 5.455 4.405
3000.128 3.615 3.075 2.665 2.395 2.245 2.075 1.835 1.755 1.915 1.995
3019.422 1.935 2.015 2.105 2.065 2.105 2.275 2.475 2.455 2.325 2.335
3038.715 2.275 2.155 2.145 2.185 2.025 1.825 1.855 1.715 1.535 1.555
3058.009 1.555 1.525 1.425 1.465 1.425 1.335 1.335 1.435 1.505 1.445
3077.302 1.545 1.625 1.725 1.755 1.875 2.105 2.045 2.045 2.105 1.995
3096.596 1.835 1.875 1.815 1.675 1.495 1.2461 1.0583 0.9877 0.9449 0.823
3115.889 0.7744 0.8729 0.8721 0.7269 0.5738 0.4932 0.5566 0.5812 0.4099 0.2728
3135.182 0.4058 0.4347 0.31123 0.36785 0.4182 0.27993 0.152 0.2496 0.3487 0.238
3154.476 0.1867 0.31649 0.4055 0.4061 0.4146 0.442 0.4494 0.3917 0.33406 0.2655
3173.769 0.31332 0.3737 0.4238 0.4952 0.5441 0.4574 0.31816 0.2607 0.2133 0.2485
3193.063 0.3905 0.4497 0.34456 0.30779 0.291392 0.37368 0.422 0.2272 0.167 0.28063
3212.356 0.33036 0.2395 0.2311 0.34354 0.4345 0.33441 0.2282 0.2548 0.2454 0.149
3231.650 0.098 0.2608 0.2437 0.32484 0.32603 0.2446 0.163 0.18 0.2842 0.163
3250.943 0.118 0.009 0 0.2304 0.2433 0.109 0.059 0.088 0.1961 0.167
3270.236 0.2044 0.245 0.2072 0.1996 0.156 0.2327 0.37247 0.36515 0.2038 0.135
3289.530 0.059 0.056 0.286301 0.4439 0.4081 0.123 0.005 0.2325 0.294095 0.2732
3308.823 0.2526 0.181 0.122 0.057 0.032 0.04 0.078 0.119 0.184 0.2343
3328.117 0.2289 0.178 0.2611 0.2628 0.2586 0.31477 0.27683 0.2096 0.052 0.041
3347.410 0.152 0.31025 0.38157 0.2086 0.166 0.1991 0.098 0.085 0.17 0.17
3366.704 0.1982 0.1871 0.184 0.226 0.2441 0.232 0.144 0.133 0.172 0.287341
3385.997 0.35784 0.287065 0.163 0.006 0.067 0.2599 0.159 0.17 0.33388 0.32237
3405.290 0.134 0.066 0.131 0.1955 0.229 0.2453 0.2055 0.1973 0.171 0.116
3424.584 0.127 0.053 0.102 0.161 0.169 0.32849 0.4546 0.2574 0.2014 0.33121
3443.877 0.3454 0.285307 0.1953 0.11 0.184 0.30718 0.2027 0.2255 0.33133 0.36482
3463.171 0.30544 0.29653 0.2614 0.28298 0.30967 0.165 0.242 0.2405 0.101 0.2074
3482.464 0.29872 0.1919 0.092 0.062 0.154 0.269 0.35886 0.176 0.063 0.2003
3501.758 0.148 0.077 0.136 0.148 0.15 0.2072 0.29502 0.2576 0.1933 0.2059
3521.051 0.102 0.123 0.2441 0.2521 0.129 0.071 0.064 0.022 0.077 0.182
3540.344 0.27802 0.2734 0.179 0.2271 0.32182 0.1875 0.072 0.138 0.137 0.094
3559.638 0.165 0.2536 0.32446 0.3975 0.3957 0.2387 0.2169 0.30004 0.2221 0.155
3578.931 0.2566 0.2476 0.14 0.145 0.2355 0.4282 0.5752 0.4814 0.2714 0.134
3598.225 0.125 0.2567 0.27718 0.31078 0.4085 0.33646 0.4427 0.6284 0.4989 0.4368
3617.518 0.7076 0.9553 0.956 0.903 0.9883 1.1309 1.335 1.375 1.455 1.895
3636.812 2.235 2.345 2.515 2.925 3.265 3.405 3.455 3.425 3.575 3.535
3656.105 3.235 3.015 2.755 2.385 2.115 1.875 1.565 1.355 1.295 1.1634
3675.398 0.9465 0.881 0.776 0.7708 0.7851 0.5737 0.4633 0.3904 0.33277 0.33684
3694.692 0.30295 0.33817 0.4507 0.4008 0.2547 0.184 0.179 0.163 0.1933 0.2445
3713.985 0.35694 0.4729 0.3968 0.4307 0.37572 0.3061 0.4232 0.284646 0.2293 0.34069
3733.279 0.33566 0.34765 0.4315 0.32998 0.1933 0.2686 0.32592 0.31706 0.2053 0.121
3752.572 0.161 0.161 0.166 0.2481 0.2056 0.122 0.2147 0.167 0.1996 0.32789
3771.866 0.2577 0.1954 0.147 0.2378 0.31413 0.2622 0.2546 0.2387 0.181 0.2482
3791.159 0.2596 0.193 0.2221 0.30624 0.37394 0.36531 0.33261 0.31175 0.32879 0.3392
3810.452 0.31091 0.32644 0.31154 0.2478 0.2955 0.29998 0.36554 0.5023 0.3975 0.31117
3829.746 0.32926 0.34563 0.36546 0.267 0.2101 0.2203 0.2555 0.289986 0.2702 0.32435
3849.039 0.2225 0.2117 0.4239 0.4558 0.35854 0.2421 0.1973 0.30049 0.33119 0.3641
3868.333 0.42 0.4218 0.3664 0.3409 0.33685 0.2337 0.2197 0.2714 0.408 0.35286
3887.626 0.2209 0.1951 0.162 0.2619 0.3894 0.33868 0.209 0.28396 0.35058 0.434
3906.920 0.4529 0.38358 0.3884 0.34625 0.3971 0.5072 0.5024 0.4295 0.4115 0.32739
3926.213 0.2219 0.2349 0.2609 0.2736 0.30649 0.2051 0.1894 0.2605 0.22 0.225
3945.506 0.2302 0.2066 0.1912 0.22 0.18 0.161 0.27844 0.36488 0.33947 0.32143
3964.800 0.33022 0.36706 0.32513 0.1976 0.2811 0.3195 0.2676 0.2124 0.2682 0.2494
3984.093 0.118 0.1964 0.2515 0.1864 0.106 0.1877 0.1966 0.1872 0.244
##END=
