##TITLE=3-Aminobenzyl alcohol
##JCAMP-DX=4.24
##DATA TYPE=INFRARED SPECTRUM
##ORIGIN=NIST Mass Spectrometry Data Center
##OWNER=NIST Standard Reference Data Program
Collection (C) 2018 copyright by the U.S. Secretary of Commerce
on behalf of the United States of America. All rights reserved.
##CAS REGISTRY NO=1877-77-6
##MOLFORM=C 7 H 9 N O
##$NIST SOURCE=MSDC-IR
##SPECTROMETER/DATA SYSTEM=HP-GC/MS/IRD
##STATE=gas
##XUNITS=1/CM
##YUNITS=ABSORBANCE
##XFACTOR=1.0
##YFACTOR=0.000001400
##DELTAX=4.0
##FIRSTX=550.0
##LASTX=3846.0
##FIRSTY=0.001627
##MAXX=3846
##MINX=550
##MAXY=0.014
##MINY=0
##NPOINTS=825
##XYDATA=(X++(Y..Y))
550.0 1162 489 79 188 124 106 186 235 228 186
590.0 172 173 183 208 234 283 361 479 534 642
630.0 796 909 1090 1350 1708 2208 2762 3247 3630 3931
670.0 4108 4092 3974 3807 3686 3678 3388 2840 2435 2108
710.0 1797 1555 1371 1307 1345 1417 1585 1731 1852 1939
750.0 2008 2123 2351 2649 2967 3201 3313 3206 2790 2288
790.0 1833 1402 1031 740 517 413 393 336 303 258
830.0 226 344 479 591 809 1019 1197 1345 1319 1181
870.0 1032 865 687 520 428 418 421 444 495 562
910.0 652 738 803 821 810 752 680 606 522 519
950.0 595 703 818 979 1156 1288 1383 1517 1734 2009
990.0 2302 2583 2867 3195 3481 3780 4147 4452 4611 4649
1030.0 4482 4129 3755 3293 2752 2323 2002 1800 1625 1441
1070.0 1304 1187 1115 1037 923 834 758 647 523 457
1110.0 399 332 283 265 284 311 326 429 580 772
1150.0 1039 1377 1675 1805 1889 1927 1772 1463 1185 1010
1190.0 870 757 715 681 640 587 579 615 620 618
1230.0 626 649 687 727 787 899 1082 1304 1593 1998
1270.0 2478 2989 3534 4020 4336 4461 4382 4112 3652 3106
1310.0 2597 2201 1879 1612 1405 1235 1103 985 884 846
1350.0 866 954 1104 1325 1598 1894 2183 2397 2511 2491
1390.0 2343 2097 1808 1527 1288 1102 964 859 779 751
1430.0 807 936 1147 1444 1875 2391 2880 3259 3454 3476
1470.0 3315 3008 2717 2548 2514 2521 2458 2269 1954 1541
1510.0 1127 838 693 609 555 536 527 533 544 556
1550.0 590 647 740 865 1025 1276 1646 2164 2783 3477
1590.0 4218 5032 5878 6586 7213 8013 9016 9801 10000 9650
1630.0 8788 7354 5508 3785 2564 1789 1275 927 707 556
1670.0 458 409 367 344 344 335 344 368 381 384
1710.0 394 415 423 399 374 337 297 236 174 141
1750.0 108 70 59 36 5 2 4 3 0 0
1790.0 4 15 29 43 70 93 111 136 155 159
1830.0 148 119 110 102 74 54 33 23 15 9
1870.0 14 19 39 69 72 85 108 143 186 208
1910.0 217 217 220 212 172 141 125 110 94 92
1950.0 101 104 101 108 111 105 103 102 101 115
1990.0 116 106 109 116 129 121 119 139 142 146
2030.0 170 182 169 169 171 167 165 165 157 146
2070.0 144 147 144 135 120 121 138 134 118 108
2110.0 116 114 115 139 142 122 120 143 147 126
2150.0 136 146 144 141 139 139 134 140 147 144
2190.0 133 132 150 150 140 131 138 152 147 154
2230.0 139 139 144 143 156 155 154 146 133 136
2270.0 146 150 143 136 139 147 140 155 170 162
2310.0 170 175 153 163 197 190 178 176 177 192
2350.0 200 197 194 195 183 189 185 158 143 149
2390.0 162 164 165 166 156 160 148 129 140 138
2430.0 121 118 138 144 137 147 158 153 161 166
2470.0 151 146 155 158 154 144 141 140 129 116
2510.0 115 126 124 120 128 140 143 145 164 178
2550.0 166 157 161 172 182 182 180 183 191 190
2590.0 194 208 206 198 189 174 171 185 188 180
2630.0 180 178 183 171 168 190 184 169 168 186
2670.0 206 206 183 179 190 185 194 218 222 227
2710.0 252 257 262 262 268 280 284 279 276 293
2750.0 306 319 325 298 302 317 318 321 331 354
2790.0 356 349 375 401 399 411 451 499 545 598
2830.0 655 727 796 888 991 1082 1176 1291 1427 1619
2870.0 1840 2008 2194 2358 2407 2381 2296 2205 2128 2081
2910.0 2037 2025 2070 2084 2053 1992 1944 1902 1842 1762
2950.0 1663 1582 1498 1365 1225 1108 1006 893 814 774
2990.0 778 833 875 957 1130 1346 1580 1807 2028 2269
3030.0 2503 2714 2825 2834 2778 2659 2457 2229 2043 1893
3070.0 1765 1617 1435 1247 1066 896 743 643 576 507
3110.0 457 406 387 371 304 254 225 190 193 223
3150.0 188 158 156 147 150 186 209 202 191 204
3190.0 242 245 221 221 275 291 273 294 296 300
3230.0 276 275 263 215 226 226 207 198 182 154
3270.0 142 140 159 172 173 152 128 117 113 128
3310.0 144 160 167 154 154 176 175 161 157 166
3350.0 165 172 207 227 228 262 299 339 429 526
3390.0 597 710 843 951 1059 1116 1085 1034 921 780
3430.0 676 567 500 422 386 371 359 403 428 457
3470.0 522 599 705 804 856 923 966 937 882 814
3510.0 710 618 502 420 399 358 323 304 289 284
3550.0 284 297 298 262 244 242 225 270 299 288
3590.0 260 252 251 274 341 369 368 386 476 545
3630.0 619 757 914 1016 1183 1307 1260 1195 1156 1103
3670.0 961 830 747 658 612 571 518 463 400 376
3710.0 347 305 259 222 237 256 264 259 242 224
3750.0 235 238 236 248 275 270 274 281 252 264
3790.0 267 237 234 257 278 252 211 250 297 310
3830.0 300 276 293 316 312
##END=
