##TITLE=(p-Methoxyphenoxy)acetic acid
##JCAMP-DX=4.24
##DATA TYPE=INFRARED SPECTRUM
##ORIGIN=EPA-IR VAPOR PHASE LIBRARY
##OWNER=SRD/NIST
Collection (C) 2018 copyright by the U.S. Secretary of Commerce
on behalf of the United States of America. All rights reserved.
##CAS REGISTRY NO=1877-75-4
##MOLFORM=C 9 H 10 O 4
##$NIST SOURCE=MSDC-IR
##STATE=gas
##XUNITS=1/CM
##YUNITS=ABSORBANCE
##XFACTOR=1.
##YFACTOR=0.001
##DELTAX=1.92898
##FIRSTX=549.8
##LASTX=4000.7
##FIRSTY=15.472
##MAXX=4000.7
##MINX=549.759
##MAXY=0.199942
##MINY=0
##NPOINTS=1790
##XYDATA=(X++(Y..Y))
549.759 15.472 15.622 15.452 15.182 15.122 15.072 15.042 14.922 14.442 14.272
569.049 14.472 14.262 14.292 14.342 13.942 13.892 13.782 13.882 14.262 14.332
588.339 14.462 14.672 14.842 15.102 15.352 15.602 15.912 16.282 16.662 17.182
607.628 17.602 17.752 17.802 17.892 17.902 17.662 17.632 17.442 16.982 16.652
626.918 16.262 15.842 15.312 14.732 14.182 13.552 12.952 12.212 11.682 11.512
646.208 11.332 10.822 10.402 10.142 9.892 9.742 9.522 9.352 9.092 8.792
665.498 8.632 8.902 8.672 7.872 7.482 7.272 6.982 6.802 6.722 6.372
684.787 6.122 6.212 6.052 5.742 5.822 5.842 5.912 6.152 6.402 6.712
704.077 7.122 7.632 8.462 9.462 10.742 12.222 13.472 14.572 15.432 15.992
723.367 16.252 16.222 15.802 15.032 14.352 13.872 13.192 12.362 11.842 11.592
742.657 11.382 11.532 11.682 11.822 12.122 12.312 12.422 12.102 11.552 11.112
761.947 10.322 8.982 7.932 7.052 6.112 5.612 5.272 4.892 4.692 4.582
781.236 4.412 4.352 4.422 4.302 4.312 4.502 4.552 4.702 4.952 5.212
800.526 5.642 6.122 6.702 7.522 8.502 9.842 11.402 13.012 14.962 16.862
819.816 18.772 20.762 22.502 23.972 24.732 25.152 25.092 24.392 23.552 22.452
839.106 21.122 19.782 18.502 17.152 15.882 14.682 13.202 12.112 11.402 10.412
858.395 9.562 8.942 8.412 7.912 7.402 6.972 6.832 6.652 6.362 6.242
877.685 6.022 5.722 5.532 5.342 4.992 4.732 4.552 4.372 4.362 4.142
896.975 3.902 3.632 3.372 3.432 3.292 2.932 2.742 2.762 2.702 2.622
916.265 2.562 2.512 2.502 2.432 2.312 2.222 2.342 2.442 2.532 2.672
935.555 2.492 2.402 2.482 2.522 2.532 2.512 2.642 2.722 2.712 2.812
954.844 3.012 3.072 2.972 2.992 3.242 3.302 3.472 3.692 3.842 4.072
974.134 4.322 4.562 4.762 5.032 5.252 5.482 5.822 6.202 6.592 6.912
993.424 7.212 7.682 8.122 8.682 9.352 10.062 10.792 11.312 11.932 12.482
1012.714 13.252 14.402 15.412 16.552 17.932 19.612 21.562 23.542 25.542 27.852
1032.003 30.292 33.032 35.792 37.902 40.052 42.592 45.022 47.272 49.102 50.802
1051.293 52.462 53.502 54.252 54.832 55.152 55.272 55.482 56.012 56.572 57.152
1070.583 57.772 57.832 57.152 56.372 54.752 51.872 48.502 45.242 41.842 37.772
1089.873 34.142 31.682 29.512 27.772 26.632 26.162 26.302 26.522 27.002 27.722
1109.163 28.942 30.642 32.642 35.092 37.322 39.582 41.602 42.592 42.872 42.892
1128.452 42.332 40.752 38.882 37.202 35.872 34.612 33.912 33.572 33.312 33.192
1147.742 33.172 33.462 33.902 34.202 34.302 34.772 35.222 35.472 35.622 35.812
1167.032 36.132 36.922 38.052 39.242 40.782 42.372 43.682 44.672 45.652 46.632
1186.322 47.602 49.222 51.372 54.062 57.842 62.582 67.532 72.302 76.722 81.242
1205.611 85.842 91.102 97.052 103.342 110.182 117.252 124.182 129.252 132.472 133.982
1224.901 132.772 129.252 124.192 118.292 112.192 106.632 101.222 96.352 91.882 87.022
1244.191 81.962 76.612 71.212 65.752 60.332 55.332 50.942 47.292 44.402 41.932
1263.481 39.722 38.052 36.522 34.862 33.262 31.952 30.882 29.922 28.902 27.982
1282.771 27.292 26.472 25.822 25.272 24.562 23.962 23.282 22.632 22.092 21.512
1302.060 20.952 20.552 20.232 19.932 19.762 19.832 20.072 20.322 20.772 21.432
1321.350 22.152 22.902 23.802 24.812 25.882 26.982 27.942 28.692 29.282 29.612
1340.640 29.602 29.332 28.752 27.912 26.982 26.062 25.172 24.292 23.462 22.692
1359.930 21.882 21.012 20.142 19.332 18.502 17.722 16.942 16.072 15.212 14.442
1379.219 13.752 13.162 12.652 12.192 11.812 11.502 11.202 10.942 10.752 10.512
1398.509 10.262 10.062 9.902 9.712 9.522 9.382 9.222 9.092 9.032 9.022
1417.799 9.142 9.322 9.512 9.792 10.192 10.692 11.352 12.182 13.182 14.502
1437.089 16.182 17.942 19.722 21.262 22.252 22.692 22.612 22.002 20.882 19.672
1456.378 18.712 18.042 17.732 17.852 18.272 18.702 18.952 18.882 18.722 18.532
1475.668 18.212 17.882 17.832 18.412 19.702 21.772 24.962 29.632 36.452 46.072
1494.958 59.852 79.272 104.192 133.762 163.952 187.552 199.942 199.732 188.402 166.842
1514.248 136.282 101.252 69.732 48.202 34.232 26.102 21.052 17.462 14.772 12.842
1533.538 11.392 10.112 9.082 8.232 7.532 6.902 6.282 5.762 5.432 5.182
1552.827 5.002 4.742 4.492 4.422 4.432 4.372 4.322 4.352 4.382 4.372
1572.117 4.362 4.362 4.372 4.462 4.502 4.592 4.732 4.902 5.142 5.252
1591.407 5.312 5.372 5.332 5.232 5.162 5.062 4.912 4.852 4.822 4.872
1610.697 4.902 4.822 4.772 4.742 4.532 4.312 4.252 4.142 3.912 3.702
1629.986 3.582 3.422 3.302 3.212 3.112 2.932 2.792 2.692 2.552 2.482
1649.276 2.442 2.462 2.472 2.382 2.312 2.312 2.292 2.302 2.292 2.252
1668.566 2.282 2.272 2.242 2.282 2.392 2.392 2.362 2.462 2.532 2.582
1687.856 2.672 2.712 2.772 2.882 2.972 3.062 3.222 3.322 3.382 3.572
1707.146 3.782 3.872 3.972 4.162 4.422 4.702 4.932 5.232 5.642 5.972
1726.435 6.342 6.852 7.322 7.792 8.402 8.982 9.612 10.302 11.052 11.902
1745.725 12.882 13.952 15.082 16.392 17.782 19.242 20.882 22.692 24.692 26.932
1765.015 29.692 32.982 36.972 41.412 46.382 51.182 55.022 57.822 59.652 60.302
1784.305 59.582 57.952 56.312 55.492 55.792 57.242 59.752 63.172 67.152 71.322
1803.594 74.972 77.722 79.142 78.742 76.472 72.392 66.842 60.182 53.012 45.882
1822.884 39.442 33.852 29.162 25.492 22.442 19.932 17.892 16.202 14.792 13.572
1842.174 12.462 11.452 10.572 9.782 9.032 8.392 7.762 7.182 6.712 6.272
1861.464 5.832 5.442 5.142 4.862 4.542 4.252 4.042 3.832 3.702 3.612
1880.754 3.412 3.182 2.982 2.872 2.802 2.742 2.642 2.522 2.432 2.302
1900.043 2.162 2.082 2.052 2.042 2.012 1.932 1.872 1.832 1.862 1.852
1919.333 1.782 1.692 1.682 1.672 1.662 1.702 1.732 1.722 1.712 1.752
1938.623 1.742 1.702 1.712 1.732 1.782 1.762 1.752 1.802 1.822 1.852
1957.913 1.882 1.872 1.882 1.922 1.922 1.922 1.982 1.982 1.992 1.982
1977.202 1.992 2.012 1.962 2.012 2.062 2.112 2.142 2.112 2.092 2.072
1996.492 2.072 2.102 2.122 2.122 2.102 2.142 2.152 2.132 2.162 2.182
2015.782 2.212 2.232 2.282 2.292 2.262 2.312 2.392 2.412 2.452 2.532
2035.072 2.542 2.612 2.662 2.702 2.782 2.752 2.702 2.752 2.762 2.762
2054.362 2.782 2.822 2.892 2.862 2.782 2.702 2.642 2.692 2.672 2.632
2073.651 2.602 2.562 2.522 2.472 2.422 2.332 2.242 2.172 2.102 2.002
2092.941 1.872 1.822 1.842 1.752 1.642 1.642 1.602 1.542 1.482 1.452
2112.231 1.392 1.282 1.242 1.282 1.262 1.2022 1.208 1.242 1.2297 1.1948
2131.521 1.2255 1.272 1.2266 1.1662 1.2064 1.1758 1.1842 1.1968 1.1474 1.1613
2150.810 1.1954 1.1858 1.187 1.1659 1.0764 1.0563 1.0676 1.044 1.1184 1.1429
2170.100 1.0835 1.109 1.0827 1.0682 1.1188 1.1055 1.1118 1.0222 0.9739 1.1387
2189.390 1.1936 1.1675 1.1757 1.1595 1.1485 1.1574 1.1439 1.1226 1.1217 1.0893
2208.680 1.0631 1.0423 1.0423 1.0541 1.0101 0.9984 1.016 1.0069 1.061 1.0944
2227.970 1.0506 1.045 1.1227 1.1628 1.2079 1.252 1.2256 1.2134 1.1843 1.1848
2247.259 1.242 1.262 1.242 1.2165 1.2046 1.262 1.362 1.392 1.322 1.262
2266.549 1.312 1.412 1.442 1.512 1.512 1.502 1.612 1.622 1.572 1.572
2285.839 1.622 1.692 1.762 1.852 1.932 1.912 1.922 2.012 2.092 2.152
2305.129 2.192 2.312 2.402 2.412 2.482 2.602 2.672 2.752 2.822 2.842
2324.418 2.892 2.942 2.922 2.872 2.802 2.722 2.672 2.672 2.692 2.622
2343.708 2.492 2.452 2.422 2.382 2.472 2.622 2.742 2.812 2.792 2.762
2362.998 2.752 2.722 2.712 2.682 2.532 2.392 2.292 2.112 1.892 1.762
2382.288 1.632 1.492 1.392 1.332 1.252 1.095 1.0645 1.11 1.1098 1.1082
2401.578 1.0686 1.063 1.0443 1.0679 1.1546 1.1801 1.228 1.2151 1.1472 1.1461
2420.867 1.1614 1.1346 1.1066 1.0795 1.1271 1.1476 1.1288 1.168 1.2263 1.1893
2440.157 1.1933 1.292 1.252 1.2092 1.232 1.292 1.312 1.332 1.332 1.312
2459.447 1.352 1.372 1.332 1.372 1.412 1.402 1.482 1.502 1.522 1.612
2478.737 1.612 1.572 1.522 1.572 1.632 1.512 1.472 1.522 1.442 1.382
2498.026 1.412 1.492 1.552 1.482 1.482 1.462 1.392 1.332 1.302 1.342
2517.316 1.402 1.442 1.362 1.332 1.392 1.372 1.392 1.362 1.362 1.392
2536.606 1.372 1.432 1.472 1.392 1.392 1.412 1.362 1.312 1.252 1.1648
2555.896 1.081 1.0672 1.0887 1.0298 1.0545 1.0717 1.0726 1.0796 0.9228 0.9062
2575.186 1.0228 1.0466 1.0827 1.1186 1.0811 1.0349 0.9835 1.0749 1.1087 1.0397
2594.475 1.0408 1.076 0.9602 0.898 0.9877 1.0327 1.0798 1.0264 1.0014 1.0331
2613.765 1.0679 1.0787 1.0352 0.9644 0.9226 0.9758 0.9536 0.878 0.8367 0.7612
2633.055 0.7459 0.8424 0.9201 0.9723 0.963 0.9087 0.9241 0.9124 0.88 0.8766
2652.345 0.8027 0.777 0.7472 0.7535 0.8648 0.8607 0.7984 0.7826 0.816 0.8467
2671.634 0.8718 0.9469 0.9514 0.8465 0.8457 0.9044 0.8703 0.8532 0.8636 0.8698
2690.924 0.7966 0.7858 0.8442 0.827 0.8768 0.9018 0.8879 0.894 0.9489 0.9792
2710.214 0.9407 0.9893 0.9841 0.912 0.9439 1.0141 1.0085 0.9492 0.9584 1.0155
2729.504 1.0424 1.0198 1.0246 1.0444 1.0713 1.1395 1.1413 1.0175 1.0188 1.0879
2748.794 1.1213 1.1364 1.1201 1.1286 1.0834 1.1475 1.282 1.1944 1.1197 1.272
2768.083 1.272 1.332 1.322 1.322 1.522 1.542 1.612 1.712 1.752 1.682
2787.373 1.702 1.852 1.982 2.062 2.062 2.232 2.382 2.402 2.522 2.672
2806.663 2.822 2.852 2.812 3.032 3.402 3.702 3.922 4.102 4.362 4.712
2825.953 5.082 5.622 6.252 6.932 7.792 8.922 10.122 11.062 11.812 12.272
2845.242 12.352 11.942 11.112 10.152 9.262 8.452 7.682 7.242 7.052 6.832
2864.532 6.782 6.642 6.492 6.452 6.262 6.212 6.262 6.252 6.242 6.192
2883.822 6.242 6.312 6.452 6.722 6.962 7.242 7.672 8.192 8.602 9.052
2903.112 9.682 10.352 11.022 11.782 12.612 13.262 13.852 14.422 14.932 15.382
2922.401 15.692 16.042 16.522 16.832 17.302 17.892 18.472 19.182 19.862 20.512
2941.691 20.892 21.082 21.122 20.912 20.542 20.002 19.422 18.922 18.342 17.642
2960.981 16.832 15.952 15.112 14.272 13.402 12.612 11.802 11.032 10.482 9.902
2980.271 9.352 9.102 8.942 8.802 8.782 8.992 9.462 9.922 10.642 11.622
2999.561 12.672 13.932 14.992 15.512 15.702 15.322 14.232 12.782 11.122 9.452
3018.850 8.032 6.862 6.032 5.642 5.482 5.352 5.232 5.302 5.242 5.302
3038.140 5.762 6.192 6.522 6.892 7.452 7.912 8.252 8.452 8.352 8.272
3057.430 8.132 7.602 7.032 6.682 6.222 5.742 5.552 5.402 5.162 5.042
3076.720 4.822 4.592 4.582 4.412 4.192 4.092 3.722 3.602 3.582 3.402
3096.009 3.472 3.512 3.502 3.482 3.322 3.172 3.252 3.322 3.252 3.142
3115.299 3.112 2.882 2.682 2.652 2.532 2.462 2.262 1.912 1.782 1.732
3134.589 1.662 1.612 1.452 1.402 1.392 1.412 1.322 1.1432 1.173 1.1936
3153.879 1.0351 0.9865 1.0715 1.1128 1.0158 0.8511 0.7745 0.8659 0.9995 1.0168
3173.169 0.8425 0.8027 0.8982 0.7669 0.6428 0.6596 0.6906 0.7694 0.7539 0.7318
3192.458 0.7753 0.7251 0.7549 0.7951 0.74 0.795 0.7787 0.591 0.6314 0.697
3211.748 0.7166 0.621 0.5522 0.6383 0.6999 0.7638 0.7561 0.7122 0.6513 0.6219
3231.038 0.5534 0.5402 0.5508 0.5374 0.5834 0.6343 0.6156 0.6047 0.6391 0.5268
3250.328 0.5454 0.665 0.7609 0.6855 0.5806 0.668 0.6918 0.6692 0.6725 0.5919
3269.617 0.5526 0.5855 0.4975 0.5529 0.5936 0.5748 0.5979 0.609 0.6842 0.7514
3288.907 0.6863 0.5675 0.6536 0.6603 0.5649 0.5922 0.5611 0.4763 0.4473 0.5313
3308.197 0.5821 0.4832 0.5411 0.7419 0.8541 0.688 0.4541 0.4303 0.3903 0.4179
3327.487 0.5364 0.5861 0.4522 0.5096 0.5856 0.4037 0.3352 0.3984 0.4421 0.4127
3346.777 0.4041 0.4419 0.4776 0.30356 0.1921 0.2699 0.3721 0.3624 0.396 0.5675
3366.066 0.5713 0.4695 0.3784 0.402 0.4575 0.4174 0.4122 0.337 0.27845 0.3815
3385.356 0.4501 0.4541 0.455 0.4179 0.338 0.4415 0.5128 0.3754 0.4763 0.5748
3404.646 0.359 0.4305 0.6111 0.5394 0.4474 0.5031 0.4468 0.4481 0.6431 0.6923
3423.936 0.7772 0.802 0.724 0.7087 0.6404 0.6316 0.6342 0.7398 0.8571 0.7639
3443.225 0.7927 0.8657 0.8089 0.8108 0.841 0.6725 0.6975 0.8546 0.8428 0.9592
3462.515 1.1089 1.0455 1.0815 1.322 1.422 1.452 1.402 1.422 1.602 1.762
3481.805 2.042 2.302 2.602 2.802 2.912 3.242 3.662 4.282 4.742 5.222
3501.095 5.862 6.282 6.802 7.482 8.272 9.182 10.412 11.552 12.522 13.532
3520.385 14.162 14.382 14.142 13.532 12.792 11.862 10.822 9.942 9.122 8.302
3539.674 7.572 7.192 6.892 6.492 6.382 6.462 6.682 7.112 7.652 8.252
3558.964 9.062 10.372 12.072 14.242 17.192 21.112 24.912 27.992 30.412 31.512
3578.254 31.032 28.952 25.672 21.892 18.172 14.752 11.782 9.352 7.392 6.002
3597.544 5.172 4.632 4.132 3.672 3.242 2.782 2.352 2.212 2.212 1.892
3616.833 1.522 1.652 1.762 1.602 1.342 1.1748 1.272 1.232 1.0387 0.9979
3636.123 0.876 0.7715 0.9624 0.9946 0.8807 0.728 0.6621 0.6338 0.4915 0.6017
3655.413 0.732 0.6261 0.4652 0.4304 0.5255 0.4534 0.272 0.29502 0.4967 0.681
3674.703 0.6043 0.4269 0.4226 0.5032 0.6095 0.677 0.5778 0.5542 0.6522 0.3869
3693.993 0.1756 0.364 0.487 0.4151 0.5023 0.622 0.4285 0.3627 0.4395 0.4976
3713.282 0.3415 0.26051 0.3442 0.3533 0.3513 0.1453 0.1861 0.3917 0.367 0.4187
3732.572 0.5275 0.5306 0.5583 0.3586 0.118 0.169 0.32516 0.30001 0.4377 0.5961
3751.862 0.4972 0.3745 0.28964 0.3658 0.29642 0.32027 0.4172 0.3378 0.26264 0.11
3771.152 0.105 0.26319 0.194 0.123 0.1364 0.065 0.1388 0.1416 0.181 0.2224
3790.441 0.30231 0.4596 0.4624 0.26506 0.1726 0.29082 0.32409 0.27868 0.25491 0.240291
3809.731 0.26674 0.28339 0.22615 0.28472 0.3924 0.26107 0.085 0.28736 0.3327 0.034
3829.021 0.053 0.154 0.103 0.26809 0.28192 0.27028 0.4843 0.3549 0.2027 0.235973
3848.311 0.26296 0.1704 0.083 0.2137 0.1988 0.232172 0.28102 0.082 0.231723 0.422
3867.601 0.1368 0.2061 0.3883 0.3386 0.30393 0.3471 0.4826 0.3773 0.27167 0.28637
3886.890 0.26926 0.3381 0.25703 0.1642 0.26561 0.3389 0.28723 0.29561 0.30839 0.27796
3906.180 0.401 0.4113 0.28659 0.32022 0.3571 0.27221 0.2254 0.1393 0.1765 0.3517
3925.470 0.5212 0.6384 0.3609 0.191 0.1845 0.1799 0.3773 0.4055 0.26283 0.4111
3944.760 0.4301 0.30886 0.094 0 0.3057 0.4189 0.3634 0.31137 0.3618 0.4459
3964.049 0.3897 0.3818 0.5176 0.3724 0.231974 0.4404 0.5965 0.5103 0.3448 0.29668
3983.339 0.3432 0.3578 0.5963 0.7961 0.5992 0.447 0.4884 0.5599 0.552 0.6015
##END=
