##TITLE=2-Methoxyphenoxyacetic acid
##JCAMP-DX=4.24
##DATA TYPE=INFRARED SPECTRUM
##ORIGIN=EPA-IR VAPOR PHASE LIBRARY
##OWNER=SRD/NIST
Collection (C) 2018 copyright by the U.S. Secretary of Commerce
on behalf of the United States of America. All rights reserved.
##CAS REGISTRY NO=1878-85-9
##MOLFORM=C 9 H 10 O 4
##$NIST SOURCE=MSDC-IR
##STATE=gas
##XUNITS=1/CM
##YUNITS=ABSORBANCE
##XFACTOR=1.
##YFACTOR=0.001
##DELTAX=1.929
##FIRSTX=549.8
##LASTX=4000.8
##FIRSTY=16.035
##MAXX=4000.75
##MINX=549.766
##MAXY=0.156675
##MINY=0
##NPOINTS=1790
##XYDATA=(X++(Y..Y))
549.766 16.035 16.215 16.335 16.945 17.435 17.845 18.415 18.635 18.975 19.635
569.056 20.205 20.715 21.215 21.575 21.575 21.655 21.815 21.785 21.725 21.685
588.346 21.995 22.115 22.065 22.265 22.355 22.365 22.515 22.745 23.005 23.345
607.636 23.595 23.795 24.175 24.445 24.615 24.685 24.465 24.375 24.425 24.145
626.926 23.665 23.205 22.825 22.485 22.045 21.565 21.055 20.405 19.775 19.345
646.216 18.825 18.165 17.445 16.725 16.075 15.665 15.315 14.815 14.275 13.785
665.506 13.435 13.285 12.895 12.315 11.875 11.515 11.075 10.655 10.385 10.065
684.796 9.695 9.325 9.015 8.885 8.695 8.395 8.305 8.235 8.075 7.905
704.086 7.865 7.935 7.945 8.115 8.305 8.515 8.905 9.645 10.645 11.765
723.376 13.395 15.645 18.505 22.215 26.925 32.435 38.615 45.355 52.315 59.105
742.666 65.655 70.885 73.155 71.915 68.155 63.255 57.685 51.775 45.705 39.695
761.956 34.195 29.335 25.015 21.355 18.265 15.725 13.645 11.745 10.095 8.735
781.246 7.615 6.745 6.135 5.625 5.195 4.885 4.565 4.395 4.295 4.085
800.536 4.015 4.125 4.185 4.245 4.455 4.705 5.125 5.705 6.135 6.625
819.826 7.305 7.905 8.485 9.125 9.695 10.175 10.585 10.925 11.305 11.545
839.116 11.655 11.675 11.485 11.395 11.405 11.325 11.085 10.865 10.825 10.775
858.406 10.725 10.605 10.475 10.325 10.145 9.935 9.615 9.335 9.005 8.555
877.696 8.115 7.685 7.315 6.875 6.415 6.035 5.675 5.395 5.185 4.935
896.986 4.725 4.555 4.405 4.315 4.235 4.235 4.265 4.325 4.505 4.665
916.276 4.845 5.025 5.165 5.285 5.365 5.275 5.115 4.935 4.655 4.445
935.566 4.315 4.195 4.055 3.885 3.835 3.815 3.815 3.915 4.075 4.235
954.856 4.385 4.575 4.745 4.935 5.175 5.405 5.655 5.995 6.365 6.665
974.146 6.985 7.395 7.895 8.395 8.895 9.505 10.175 10.935 11.825 12.795
993.436 13.825 15.015 16.455 18.035 19.865 21.885 24.075 26.495 28.945 31.485
1012.726 34.015 36.555 39.185 41.845 44.505 47.195 50.135 53.255 56.515 59.835
1032.016 63.125 66.325 69.145 71.375 72.885 73.555 73.515 72.795 71.605 70.215
1051.306 68.665 66.935 65.355 64.055 62.925 61.895 60.695 59.205 57.265 54.855
1070.596 52.025 48.695 45.095 41.485 37.995 34.795 32.075 29.995 28.735 28.225
1089.886 28.595 29.895 32.205 35.645 40.355 46.505 53.935 62.435 71.595 80.725
1109.176 88.815 95.035 98.965 100.465 99.615 96.635 91.745 85.575 79.045 72.655
1128.467 66.955 61.985 57.535 53.735 50.645 48.145 46.195 44.875 44.145 43.995
1147.757 44.215 44.635 45.275 45.895 46.395 46.865 47.325 47.915 48.595 49.485
1167.047 50.615 51.905 53.335 54.675 55.555 55.955 55.935 55.525 54.845 53.975
1186.337 53.245 52.885 53.185 54.475 56.715 59.555 62.675 65.825 68.875 71.505
1205.627 73.415 74.595 75.015 74.885 74.085 72.795 71.395 69.855 68.405 67.195
1224.917 66.335 65.915 66.105 67.085 68.895 71.735 75.575 80.435 86.265 92.725
1244.207 99.785 107.125 114.355 121.115 127.245 132.515 136.735 139.555 140.765 140.545
1263.497 138.805 135.575 131.165 125.815 119.775 113.335 106.715 100.175 93.865 87.815
1282.787 82.055 76.645 71.695 67.165 63.105 59.565 56.405 53.575 51.115 48.965
1302.077 47.135 45.575 44.235 43.145 42.255 41.625 41.245 41.115 41.315 41.695
1321.367 42.355 43.335 44.595 46.125 47.815 49.625 51.485 53.305 54.885 56.265
1340.657 57.495 58.565 59.565 60.295 60.835 61.295 61.605 61.715 61.565 60.935
1359.947 59.825 58.235 56.095 53.585 50.715 47.625 44.485 41.345 38.305 35.525
1379.237 32.975 30.695 28.725 27.045 25.575 24.255 23.045 21.985 20.985 20.015
1398.527 19.175 18.355 17.565 16.905 16.285 15.695 15.295 14.985 14.755 14.605
1417.817 14.635 14.845 15.205 15.845 16.785 18.015 19.575 21.385 23.475 25.635
1437.107 27.665 29.305 30.635 31.695 32.605 33.525 34.525 35.665 36.995 38.285
1456.397 39.345 39.895 40.035 39.795 38.825 37.045 34.905 33.045 32.115 32.195
1475.687 33.245 35.395 38.915 44.245 51.825 61.825 74.435 89.255 105.615 121.225
1494.977 134.275 143.725 147.885 146.755 140.545 129.695 113.865 95.855 78.425 62.385
1514.267 49.485 39.685 32.415 27.215 23.025 19.955 17.535 15.525 13.935 12.625
1533.557 11.515 10.535 9.815 9.185 8.605 8.105 7.705 7.445 7.275 7.125
1552.847 7.115 7.165 7.335 7.665 7.945 8.285 8.865 9.625 10.575 11.705
1572.137 12.995 14.465 16.185 17.945 19.705 21.525 23.275 24.895 26.345 27.535
1591.427 28.345 28.685 28.535 27.835 26.605 24.935 22.915 20.635 18.205 15.715
1610.717 13.405 11.335 9.605 8.215 7.075 6.245 5.635 5.115 4.695 4.385
1630.007 4.115 3.915 3.805 3.695 3.535 3.435 3.365 3.275 3.225 3.165
1649.297 3.115 3.165 3.225 3.185 3.165 3.155 3.195 3.275 3.325 3.355
1668.587 3.445 3.485 3.525 3.585 3.565 3.585 3.655 3.745 3.845 3.825
1687.877 3.835 3.885 3.945 4.065 4.175 4.275 4.455 4.545 4.595 4.745
1707.167 4.915 5.115 5.305 5.545 5.825 6.165 6.525 6.845 7.235 7.715
1726.457 8.245 8.845 9.525 10.295 11.195 12.065 12.955 14.005 15.135 16.335
1745.747 17.615 18.975 20.525 22.245 23.985 25.875 28.035 30.485 33.475 37.085
1765.037 41.375 46.595 52.835 59.535 66.545 72.885 78.195 82.535 85.725 87.835
1784.327 89.085 89.895 91.195 94.185 99.785 107.965 117.885 128.915 139.585 148.615
1803.617 154.635 156.675 154.315 147.855 137.885 125.205 110.905 96.145 82.145 69.685
1822.907 59.045 50.135 42.885 37.095 32.305 28.425 25.225 22.645 20.465 18.615
1842.197 17.095 15.695 14.385 13.235 12.235 11.355 10.555 9.825 9.195 8.605
1861.487 8.075 7.635 7.255 6.935 6.605 6.305 6.045 5.785 5.545 5.345
1880.777 5.155 4.945 4.685 4.415 4.195 3.925 3.665 3.445 3.205 3.035
1900.067 2.875 2.755 2.695 2.685 2.685 2.695 2.745 2.805 2.855 2.885
1919.357 2.875 2.855 2.765 2.615 2.475 2.305 2.145 1.975 1.825 1.715
1938.647 1.6207 1.5592 1.4945 1.434 1.4028 1.387 1.3793 1.3829 1.3611 1.297
1957.937 1.2784 1.3087 1.3235 1.3391 1.334 1.3605 1.3856 1.3813 1.4125 1.4612
1977.227 1.5315 1.5959 1.6247 1.6588 1.715 1.775 1.845 1.925 1.985 2.045
1996.517 2.145 2.215 2.235 2.315 2.395 2.435 2.495 2.555 2.595 2.655
2015.807 2.775 2.865 2.855 2.885 2.965 2.975 2.965 2.995 2.975 2.955
2035.097 2.955 2.925 2.885 2.855 2.815 2.795 2.725 2.665 2.635 2.585
2054.387 2.535 2.475 2.455 2.455 2.425 2.375 2.315 2.245 2.195 2.125
2073.677 2.035 1.995 1.965 1.885 1.825 1.765 1.695 1.6773 1.6689 1.6739
2092.967 1.6876 1.676 1.6545 1.6544 1.6417 1.5916 1.5303 1.4597 1.4061 1.3722
2112.257 1.3301 1.294 1.2636 1.2053 1.0989 1.0495 1.0281 0.988 0.9728 0.9321
2131.547 0.8906 0.8594 0.8647 0.8686 0.8494 0.8436 0.8381 0.8022 0.74766 0.73799
2150.837 0.76495 0.76598 0.72889 0.70717 0.695577 0.6817 0.6763 0.6686 0.6799 0.701781
2170.127 0.68868 0.6847 0.684 0.69842 0.7194 0.73881 0.76818 0.75644 0.73437 0.7202
2189.417 0.69948 0.69429 0.7292 0.76102 0.74942 0.7066 0.697015 0.72796 0.73296 0.71929
2208.707 0.71248 0.69451 0.70675 0.76443 0.8198 0.8621 0.8814 0.8377 0.8327 0.8745
2227.997 0.881 0.9036 0.9435 0.9448 0.9329 0.9809 1.0071 1.0162 1.0644 1.1017
2247.287 1.1113 1.0731 1.0566 1.1013 1.1139 1.1111 1.1187 1.1531 1.1385 1.0768
2266.577 1.0487 1.0458 1.0479 1.0014 0.9724 0.941 0.9312 0.9899 0.9988 0.9674
2285.868 0.9564 0.9518 0.913 0.8872 0.9305 0.9766 0.9732 0.9397 0.9196 0.9805
2305.158 1.044 1.0387 1.0343 1.0631 1.1212 1.1678 1.2027 1.2186 1.1916 1.1942
2324.448 1.1909 1.1461 1.1199 1.0854 1.0825 1.0738 1.0051 0.9747 0.979 0.9706
2343.738 0.8685 0.8045 0.7988 0.76458 0.8027 0.8203 0.835 0.861 0.8503 0.8343
2363.028 0.8142 0.8121 0.82 0.77656 0.74007 0.72188 0.6755 0.655 0.6634 0.6358
2382.318 0.562 0.507 0.494 0.464 0.459 0.476 0.522 0.55 0.505 0.521
2401.608 0.543 0.594 0.698788 0.73669 0.74242 0.8002 0.8272 0.78694 0.77282 0.79223
2420.898 0.8472 0.8778 0.8531 0.8463 0.8215 0.75915 0.77011 0.8043 0.79073 0.76316
2440.188 0.71478 0.695092 0.6763 0.6388 0.697215 0.72865 0.69197 0.72685 0.71737 0.68857
2459.478 0.71461 0.74449 0.73191 0.71245 0.73344 0.75125 0.74604 0.7424 0.76108 0.75966
2478.768 0.75324 0.78719 0.8154 0.8081 0.7991 0.8252 0.8224 0.8135 0.8932 0.9466
2498.058 0.965 0.9772 0.9803 1.0224 1.0527 1.0335 1.0658 1.1195 1.1195 1.1261
2517.348 1.1729 1.1966 1.236 1.2678 1.2627 1.2783 1.2552 1.3173 1.3966 1.362
2536.638 1.3879 1.4598 1.4957 1.4977 1.4711 1.4695 1.4967 1.5042 1.4738 1.4685
2555.928 1.4514 1.4566 1.4786 1.4246 1.3433 1.3041 1.3161 1.3032 1.2277 1.1853
2575.218 1.1886 1.0967 0.9963 0.9836 0.9441 0.8623 0.79089 0.71619 0.69373 0.699594
2594.508 0.6644 0.569 0.546 0.565 0.509 0.486 0.451 0.444 0.442 0.409
2613.798 0.37 0.326 0.274 0.258 0.226 0.165 0.206 0.216 0.176 0.15
2633.088 0.18 0.186 0.168 0.183 0.135 0.125 0.122 0.072 0.062 0.078
2652.378 0.066 0.045 0.045 0.046 0.037 0.031 0.083 0.098 0.108 0.164
2671.668 0.146 0.114 0.084 0.076 0.095 0.09 0.105 0.091 0.097 0.106
2690.958 0.066 0.073 0.064 0.133 0.206 0.19 0.153 0.112 0.094 0.124
2710.248 0.137 0.086 0.136 0.192 0.158 0.189 0.164 0.135 0.159 0.184
2729.538 0.226 0.204 0.194 0.248 0.23 0.222 0.317 0.38 0.362 0.327
2748.828 0.315 0.324 0.398 0.415 0.444 0.506 0.51 0.518 0.6047 0.6383
2768.118 0.6087 0.6217 0.6601 0.74233 0.79363 0.7697 0.78174 0.8022 0.814 0.8287
2787.408 0.8128 0.8811 0.9436 1.0386 1.1647 1.1756 1.2617 1.3431 1.452 1.6362
2806.698 1.765 1.935 2.095 2.255 2.455 2.695 3.025 3.385 3.795 4.285
2825.988 4.895 5.615 6.455 7.465 8.615 9.855 11.115 12.215 13.095 13.815
2845.278 14.205 14.285 14.045 13.415 12.565 11.515 10.535 9.685 8.865 8.295
2864.568 7.875 7.505 7.195 6.965 6.925 6.945 6.935 6.955 7.045 7.195
2883.858 7.315 7.575 7.895 8.135 8.405 8.735 9.115 9.415 9.785 10.325
2903.148 10.855 11.435 12.035 12.635 13.335 14.035 14.865 15.745 16.505 17.325
2922.438 18.245 19.135 20.065 21.095 22.295 23.695 25.145 26.765 28.415 29.865
2941.728 31.165 32.135 32.625 32.675 32.345 31.815 30.835 29.575 28.195 26.675
2961.018 25.155 23.715 22.375 21.015 19.695 18.455 17.385 16.405 15.405 14.515
2980.308 13.765 13.155 12.605 12.175 11.855 11.785 11.895 12.115 12.475 12.875
2999.598 13.335 13.925 14.425 14.715 14.985 14.965 14.585 14.085 13.515 12.735
3018.888 11.835 10.995 10.215 9.695 9.415 9.195 9.105 9.235 9.445 9.715
3038.178 9.965 10.205 10.495 10.695 10.885 11.025 11.015 11.115 11.245 11.455
3057.468 11.725 12.135 12.765 13.435 14.185 14.905 15.605 16.305 16.815 16.965
3076.758 16.995 16.685 15.985 15.155 14.185 13.055 11.715 10.345 8.975 7.655
3096.048 6.605 5.825 5.165 4.735 4.405 3.955 3.555 3.205 3.005 2.845
3115.338 2.615 2.375 2.185 1.965 1.6793 1.4739 1.313 1.1668 1.0124 0.8567
3134.628 0.7959 0.7974 0.6187 0.55 0.6616 0.704422 0.69031 0.6138 0.57 0.522
3153.918 0.489 0.427 0.424 0.449 0.442 0.415 0.402 0.426 0.423 0.455
3173.208 0.411 0.379 0.363 0.303 0.273 0.347 0.417 0.303 0.239 0.226
3192.498 0.22 0.283 0.258 0.265 0.21 0.132 0.204 0.23 0.25 0.327
3211.788 0.285 0.196 0.227 0.274 0.192 0.207 0.291 0.232 0.311 0.406
3231.078 0.293 0.268 0.379 0.417 0.352 0.385 0.444 0.413 0.395 0.398
3250.368 0.439 0.479 0.558 0.593 0.564 0.5961 0.6279 0.6691 0.72985 0.71401
3269.658 0.70986 0.6915 0.69052 0.8156 0.897 0.9231 0.9378 0.9743 1.0589 1.1462
3288.948 1.175 1.1901 1.1685 1.1142 1.22 1.343 1.386 1.4059 1.3781 1.3751
3308.238 1.4792 1.6693 1.755 1.6631 1.775 1.975 1.995 2.035 2.165 2.215
3327.528 2.245 2.215 2.185 2.315 2.385 2.485 2.575 2.575 2.635 2.665
3346.818 2.675 2.735 2.825 2.925 2.935 2.975 3.035 3.045 3.125 3.275
3366.108 3.465 3.585 3.635 3.675 3.805 4.055 4.325 4.425 4.535 4.855
3385.398 5.155 5.385 5.775 6.145 6.515 6.965 7.365 7.805 8.275 8.725
3404.688 9.135 9.525 9.885 10.115 10.345 10.435 10.565 10.655 10.605 10.685
3423.978 10.565 10.375 10.275 10.145 10.065 9.905 9.775 9.625 9.485 9.395
3443.269 9.215 9.075 9.025 8.905 8.945 9.085 9.025 9.015 9.095 9.165
3462.559 9.235 9.385 9.645 9.845 10.085 10.435 10.695 10.965 11.235 11.645
3481.849 12.175 12.725 13.225 13.865 14.675 15.385 16.135 17.065 18.125 19.075
3501.139 20.055 21.075 21.845 22.325 22.685 22.775 22.435 21.745 20.795 19.745
3520.429 18.475 17.065 15.735 14.475 13.265 12.055 11.025 10.275 9.515 8.905
3539.719 8.395 7.965 7.645 7.325 7.305 7.425 7.595 7.955 8.535 9.305
3559.009 10.655 12.775 15.615 19.315 23.875 28.635 32.805 36.255 38.755 39.565
3578.299 38.505 35.905 32.005 27.375 22.735 18.285 14.295 11.195 8.885 7.185
3597.589 6.035 5.235 4.555 3.975 3.545 3.215 2.935 2.695 2.435 2.215
3616.879 2.065 1.885 1.6869 1.6075 1.583 1.5508 1.4144 1.2264 1.1473 1.0701
3636.169 0.9104 0.8408 0.8293 0.75568 0.7625 0.7629 0.76879 0.7267 0.6113 0.522
3655.459 0.58 0.604 0.461 0.42 0.358 0.313 0.416 0.495 0.421 0.363
3674.749 0.342 0.265 0.297 0.335 0.192 0.14 0.289 0.3 0.278 0.272
3694.039 0.242 0.337 0.414 0.347 0.279 0.295 0.255 0.273 0.337 0.245
3713.329 0.209 0.291 0.319 0.348 0.347 0.366 0.384 0.3 0.287 0.286
3732.619 0.261 0.268 0.283 0.256 0.208 0.33 0.392 0.357 0.375 0.325
3751.909 0.24 0.27 0.32 0.279 0.175 0.104 0.086 0.088 0.17 0.297
3771.199 0.341 0.326 0.27 0.316 0.302 0.061 0 0.152 0.15 0.117
3790.489 0.206 0.214 0.268 0.269 0.19 0.258 0.264 0.223 0.307 0.265
3809.779 0.194 0.246 0.295 0.331 0.349 0.306 0.238 0.238 0.273 0.269
3829.069 0.324 0.37 0.317 0.376 0.445 0.417 0.404 0.411 0.387 0.345
3848.359 0.321 0.323 0.465 0.526 0.472 0.475 0.425 0.348 0.367 0.413
3867.649 0.314 0.221 0.232 0.282 0.346 0.375 0.375 0.401 0.339 0.283
3886.939 0.428 0.554 0.561 0.483 0.476 0.561 0.539 0.551 0.554 0.552
3906.229 0.6366 0.521 0.388 0.448 0.517 0.536 0.488 0.421 0.46 0.425
3925.519 0.219 0.264 0.35 0.249 0.346 0.436 0.364 0.213 0.232 0.334
3944.809 0.286 0.344 0.409 0.33 0.214 0.167 0.334 0.429 0.344 0.36
3964.099 0.427 0.483 0.463 0.389 0.308 0.379 0.586 0.457 0.317 0.427
3983.389 0.482 0.562 0.563 0.557 0.539 0.434 0.472 0.546 0.509 0.467
##END=
