##TITLE=3-Bromothiophene-2-carbonitrile
##JCAMP-DX=4.24
##DATA TYPE=INFRARED SPECTRUM
##ORIGIN=EPA-IR VAPOR PHASE LIBRARY
##OWNER=SRD/NIST
Collection (C) 2018 copyright by the U.S. Secretary of Commerce
on behalf of the United States of America. All rights reserved.
##CAS REGISTRY NO=18791-98-5
##MOLFORM=C 5 H 2 Br N S
##$NIST SOURCE=MSDC-IR
##STATE=gas
##XUNITS=1/CM
##YUNITS=ABSORBANCE
##XFACTOR=1.
##YFACTOR=0.001
##DELTAX=1.92898
##FIRSTX=549.8
##LASTX=4000.7
##FIRSTY=3.84
##MAXX=4000.7
##MINX=549.759
##MAXY=0.10827
##MINY=0
##NPOINTS=1790
##XYDATA=(X++(Y..Y))
549.759 3.84 3.59 3.15 3.18 3.66 2.664 1.28 1.6784 2.4891 2.1079
569.049 1.481 1.555 1.72905 2.1426 2.99 3.62 2.5296 1.273 1.8097 2.92
588.339 3.79 4.22 5.15 5.71 6 6.85 7.84 8.41 8.9 9.76
607.628 12 13.61 12.17 9.92 8.23 7.11 7.58 7.39 5.95 5.42
626.918 4.67 4.74 4.99 4.29 3.79 3.43 3.21 3.06 3.49 3.28
646.208 2.75 2.6791 2.78 2.3103 2.1397 2.5281 2.2781 1.7834 1.8 2.0519
665.498 1.7844 1.5996 1.8545 2.1106 2.5959 3.22 2.97 2.92 3.25 3.24
684.787 3.65 3.94 4.39 4.73 5.07 5.68 6.69 8.33 11.6 15.94
704.077 20.45 26.62 33.44 38.81 43.93 47.71 54.47 70.31 104.41 108.27
723.367 66.26 49.72 49.58 46.08 41.56 34.56 27.04 20.31 14.98 10.42
742.657 7.54 6.26 5.5 4.25 3.48 3.18 2.77 2.5405 2.6163 2.5733
761.947 2.5281 2.2669 2.0752 2.6411 2.92 2.6277 2.4175 2.2142 2.1985 1.9641
781.236 2.5203 3.03 2.4819 2.6143 2.87 2.76 3.13 3.31 3.24 3.51
800.526 3.65 4.6 5.72 5.64 5.39 5.36 5.91 6.63 6.66 6.57
819.816 6.23 5.57 5.3 5.34 5.11 4.35 3.68 3.96 4.11 4.68
839.106 5.74 5.35 5.29 5.72 6.06 6.34 6.86 8.23 10.68 13.62
858.395 17.43 24.39 34.59 47.45 60.61 71.56 79.44 83.57 85.64 86.91
877.685 84.25 78.07 69.9 55.45 36.74 21.85 13.06 8.29 6.09 5.14
896.975 4.56 4.04 4.42 5.01 4.49 4.46 5.24 5.4 4.51 4.35
916.265 5.16 5.04 4.67 4.31 4.03 4.36 4.71 4.53 3.97 3.51
935.555 3.22 2.98 2.83 2.82 2.72 2.5612 2.164 1.969 1.55 1.042
954.844 1.544 2.4178 2.498 2.0843 2.3952 2.89 3.49 3.57 2.6335 2.6256
974.134 3.18 3.12 2.4801 1.527 2.1101 2.2958 1.8063 2.5483 3.46 2.72
993.424 1.513 1.5854 1.71937 1.9117 1.6564 1.502 2.0786 2.3629 2.031 1.452
1012.714 1.458 1.311 0.62 1.436 2.4756 1.9033 1.27 1.206 1.087 1.55
1032.003 2.1123 2.2349 2.2726 2.6025 2.5024 2.5826 3.11 2.75 2.0306 1.8786
1051.293 2.2327 2.3114 2.71 2.79 2.8 2.88 2.4364 2.7 3.21 2.69
1070.583 2.82 3.62 4.04 4.92 7.07 7.21 5.98 5.22 4.11 3.71
1089.873 3.74 3.6 3.29 3.21 3.03 3.26 3.42 3.41 3.27 2.97
1109.163 4.09 4.78 4.86 3.93 2.5886 3.95 3.87 4.38 5.55 3.74
1128.452 1.9707 2.5737 4.2 5.68 5.72 6.08 6.7 7.06 7.39 6.38
1147.742 7.07 11.09 15.18 16.71 18.08 19.68 19.8 19.79 20.06 20.05
1167.032 18.91 18.56 17.83 14.2 11.22 9.63 7.51 7.67 7.72 5.55
1186.322 5.57 6.36 6.38 6.46 6.44 5.57 5.07 6.13 7.39 6.72
1205.611 5.01 5.59 6.72 4.37 4.1 4.83 4.34 6.97 8.21 6
1224.901 5.99 7.99 6.98 6.32 6.52 6.34 5.77 4.5 3.72 4.03
1244.191 4.12 3.49 3.19 2.94 3.85 4.76 4.17 3.24 2.99 3.45
1263.481 4.52 4.98 4.51 3.79 2.91 2.9 3.47 3.58 4.09 4.02
1282.771 3.63 3.8 3.28 3.18 3.77 3.73 3.65 3.61 3.28 3.14
1302.060 3.1 2.99 3.16 3.32 3.08 3.08 3.16 3.42 3.84 4.04
1321.350 4.55 5.27 5.73 6.26 6.75 7.2 7.96 9.01 10.35 11.81
1340.640 13.64 16.03 18.37 20.19 21.11 21.12 21.12 20.89 19.42 17.54
1359.930 15.71 12.84 9.1 6.15 4.64 3.97 3.75 3.89 4.18 4.75
1379.219 5.49 6.15 6.84 7.43 7.98 8.59 9.26 10.11 10.85 11.62
1398.509 12.62 13.81 15.32 17.68 20.77 23.76 25.87 26.74 26.7 26.41
1417.799 25.63 24.17 22.92 20.88 17.43 14.18 12.36 12.03 12.24 12.49
1437.089 12.53 12.2 11.74 11.52 11.46 10.85 9.26 7.4 5.82 4.92
1456.378 4.34 3.99 3.7 3.52 3.57 3.44 3.63 3.85 4.23 4.65
1475.668 4.98 5.53 6.2 7.13 8.07 9.23 10.92 12.85 15.53 18.69
1494.958 21.82 24.8 26.75 27.49 27.37 26.77 25.4 23.48 21.15 17.77
1514.248 13.31 8.71 5.65 4.15 3.18 2.97 2.94 2.76 2.5635 2.26
1533.538 2.2082 2.2319 2.3572 2.4932 2.4237 2.1163 1.9432 2.0667 2.0626 2.0252
1552.827 1.7985 1.9408 2.2298 2.1044 1.9323 2.1192 2.5297 2.5542 2.3981 2.6675
1572.117 2.92 2.5124 2.3933 2.99 3.31 3.47 3.91 4.75 5.64 6.21
1591.407 6.24 6.26 6.48 6.38 5.92 5.74 5.19 4.07 3.56 3.15
1610.697 2.69 2.2758 2.3044 2.9 2.6433 2.4557 2.498 2.1767 2.0959 2.1915
1629.986 2.1821 2.0305 2.2662 2.332 2.2016 2.4353 2.7 2.5937 2.515 2.3836
1649.276 2.2863 2.2468 2.2827 2.584 2.6107 2.7 3.05 2.88 2.7 2.5092
1668.566 2.333 2.5495 2.4157 2.2857 2.63 2.81 2.73 2.92 3.04 2.96
1687.856 2.76 2.7 2.71 2.4627 2.3906 2.6585 2.87 2.4431 2.2224 2.4722
1707.146 2.3484 2.2244 2.2815 2.3221 2.3695 2.2683 2.3182 2.6602 2.6521 2.4247
1726.435 2.4506 2.6261 2.88 3.14 3.41 3.67 4 4.39 4.73 5.09
1745.725 5.42 5.66 5.8 5.41 4.97 5.03 4.96 4.85 4.46 3.74
1765.015 3.32 2.86 2.73 2.6469 2.5591 2.5233 2.3469 2.2385 2.2072 2.284
1784.305 2.1646 2.1862 2.3054 2.2692 1.9724 1.8011 1.9612 1.9429 1.9777 2.1178
1803.594 1.9153 1.9912 2.1865 2.1021 2.1492 2.1017 1.9837 1.999 2.1442 2.2144
1822.884 2.0985 2.0307 2.1122 2.3363 2.2026 1.9486 2.0168 1.89 2.0766 2.2871
1842.174 2.151 2.0534 1.936 1.952 2.0602 2.0687 1.9904 1.9867 1.938 1.8048
1861.464 1.74206 1.6937 1.8594 1.9378 1.9451 2.0778 1.9317 1.7216 1.6419 1.8249
1880.754 1.9864 2.0583 2.0945 2.0522 1.8108 1.6632 1.8312 2.2102 2.366 2.1488
1900.043 2.0716 2.1751 2.1551 2.1675 2.0457 1.76576 1.8812 2.0101 1.8785 1.73036
1919.333 1.8516 1.9864 1.8782 1.8393 1.8632 1.8558 2.0043 1.922 1.8868 1.9174
1938.623 1.8223 1.8241 1.8462 1.786 1.8229 1.9819 2.0215 2.0686 2.047 2.0982
1957.913 1.993 2.017 2.1957 2.2186 2.2207 2.1767 2.2454 2.2273 1.9454 1.9073
1977.202 1.9837 1.9338 1.9503 2.1219 2.1446 1.8776 1.856 1.8338 1.9021 1.7961
1996.492 1.71443 1.882 1.9281 1.9688 1.962 2.0085 1.9848 1.9376 1.7871 1.8195
2015.782 2.1679 2.1956 2.1702 2.1807 2.0745 2.1433 2.0674 2.0017 2.0428 1.9615
2035.072 1.8664 1.67989 1.5802 1.456 1.6356 1.8352 1.67278 1.68956 1.70799 1.76359
2054.362 1.7943 1.6689 1.73093 1.7555 1.8115 1.9349 1.7949 1.561 1.535 1.518
2073.651 1.519 1.494 1.76741 2.0157 1.8725 1.8197 1.8462 1.9117 2.0251 2.043
2092.941 1.9464 1.9365 1.9111 1.9939 1.9183 1.6526 1.563 1.6089 1.69609 1.76158
2112.231 1.7583 1.781 1.8297 1.9144 1.8584 1.6379 1.555 1.75467 1.7934 1.6285
2131.521 1.7447 1.882 1.72017 1.6566 1.636 1.73407 1.9011 1.9946 1.9329 1.941
2150.810 2.0496 1.9539 1.9516 1.9706 2.0761 2.1135 2.1454 2.1316 1.9705 2.0957
2170.100 2.3101 2.1912 2.2548 2.3514 2.2532 2.0777 2.0317 2.1143 2.004 1.8621
2189.390 1.9263 2.1655 2.2758 2.4524 2.3846 2.4899 3.19 3.65 3.98 4.46
2208.680 5.4 6.58 7.64 9.01 10.49 12 13.4 14.44 15 15.57
2227.970 15.88 15.86 15.65 14.85 13.56 11.65 9.86 8.42 6.97 5.6
2247.259 4.18 3.28 2.85 2.3118 1.9924 2.1645 2.2372 2.0092 1.8559 1.8421
2266.549 1.75146 1.521 1.6038 1.9019 1.9204 1.7917 1.868 2.0354 1.9487 1.70021
2285.839 1.492 1.5 1.8379 1.9555 1.9313 2.0035 1.9872 1.8712 1.6763 1.5951
2305.129 1.70969 1.5867 1.75085 1.9513 1.7964 1.7127 1.7314 1.9072 1.9598 1.6652
2324.418 1.513 1.6079 1.71217 1.69693 1.5875 1.459 1.426 1.537 1.6299 1.72012
2343.708 1.71441 1.501 1.386 1.273 1.306 1.6032 1.355 1.342 1.6021 1.527
2362.998 1.67056 1.67783 1.495 1.373 1.459 1.339 1.266 1.43 1.295 1.515
2382.288 1.5844 1.6285 1.54 1.428 1.6369 1.534 1.4 1.414 1.452 1.402
2401.578 1.477 1.559 1.6408 1.6258 1.323 1.427 1.76416 1.77177 1.7855 1.8235
2420.867 1.7954 1.77897 1.9687 2.1253 2.0848 1.8195 1.6297 1.72332 1.72099 1.466
2440.157 1.423 1.6716 1.256 0.959 1.288 1.499 1.28 1.376 1.486 1.6122
2459.447 1.8643 1.577 1.436 1.533 1.6566 2.003 1.8645 1.389 1.444 1.566
2478.737 1.531 1.6159 1.67765 1.553 1.652 1.71074 1.475 1.5912 2.006 1.9134
2498.026 1.549 1.6122 1.6092 1.6696 1.8726 2.0003 2.0259 1.8881 1.8527 1.67992
2517.316 1.563 1.461 1.6183 1.6382 1.413 1.313 1.5945 1.7802 1.477 1.407
2536.606 1.474 1.6118 1.9469 1.8773 1.8604 2.0635 2.2325 2.3874 2.0864 1.892
2555.896 1.7812 1.75833 2.0352 2.112 2.0115 1.8538 1.8601 1.9798 1.69046 2.0651
2575.186 2.5093 2.1523 1.74052 1.6378 1.6533 1.479 1.478 1.6575 1.70567 1.67065
2594.475 1.562 1.179 1.164 1.6065 1.8695 1.8053 1.73412 1.5921 1.397 1.397
2613.765 1.471 1.558 1.578 1.6046 1.546 1.6551 1.6533 1.443 1.70285 1.72847
2633.055 1.308 1.448 1.588 2.0119 2.2665 1.548 1.427 1.5942 1.371 1.326
2652.345 1.5867 1.9789 2.2074 1.9576 1.504 1.407 1.349 1.458 1.501 1.458
2671.634 1.508 1.32 1.234 1.568 1.549 1.219 1.363 1.102 0.872 1.139
2690.924 0.863 0.711 1.26 1.412 1.06 1.022 1.358 1.77197 1.70595 1.5851
2710.214 1.6643 1.788 1.76552 1.6582 1.9433 2.1717 2.0642 1.7995 1.8735 2.1348
2729.504 1.8213 1.8024 2.2433 2.1759 1.8243 1.6265 1.67355 1.8104 2.0277 1.8684
2748.794 2.0821 2.2569 2.0754 2.0696 1.8883 2.1143 1.94 1.63 1.8183 1.68831
2768.083 1.6333 1.445 1.155 1.424 1.6104 1.6374 1.76279 1.438 1.419 1.6374
2787.373 1.71447 1.58 1.085 1.164 1.71186 1.77375 1.565 1.506 1.6038 1.7388
2806.663 1.329 0.951 0.926 1.217 1.473 1.7145 1.554 1.204 1.321 1.519
2825.953 1.431 1.12 1.162 1.572 1.468 0.835 0.942 1.248 1.6247 1.8533
2845.242 1.425 1.392 1.9236 1.73574 1.231 1.23 1.43 1.288 1.155 1.262
2864.532 1.451 1.7591 1.69462 1.76705 1.8214 1.466 1.372 1.016 0.83 1.205
2883.822 1.148 1.128 1.379 1.197 1.144 1.69915 1.7923 1.364 1.366 1.502
2903.112 1.165 0.938 1.354 1.376 1.197 1.229 1.415 1.504 1.348 1.8063
2922.401 1.6537 1.364 1.463 0.922 0.61 0.89 0.904 0.843 1.104 1.237
2941.691 1.504 2.0834 1.6619 1.085 1.6504 1.8612 1.459 1.264 1.194 1.243
2960.981 1.003 0.908 1.318 1.285 0.91 0.742 0.929 0.931 0.706 0.776
2980.271 1.024 1.006 1.028 1.295 1.548 1.8783 1.463 1.06 1.135 1.391
2999.561 1.46 0.811 0.933 1.437 1.237 1.069 1.226 0.974 0.932 1.342
3018.850 1.318 1.258 1.294 1.562 1.26 0.791 0.769 0.915 1.204 1.245
3038.140 1.5903 1.6099 1.171 1.239 1.321 1.026 1.228 1.334 1.065 1.094
3057.430 1.188 1.544 1.6187 1.459 1.554 1.186 1.08 1.071 1.364 1.8054
3076.720 1.216 0.954 1.338 1.439 0.937 0.871 1.67443 1.71716 1.342 1.8991
3096.009 2.5754 2.4446 2.5675 2.91 2.88 2.89 2.79 3.13 3.48 3.12
3115.299 2.89 2.83 2.529 2.1107 2.13 2.1396 2.3458 2.3928 1.6116 1.5971
3134.589 1.70768 1.574 1.243 1.025 1.305 1.534 1.525 1.499 1.413 0.951
3153.879 0.969 1.8669 1.8404 1.107 1.215 1.564 1.8711 1.992 1.381 1.093
3173.169 1.17 0.948 0.67 0.797 1.016 0.749 0.751 1.44 1.5825 1.513
3192.458 1.9173 1.367 1.031 1.085 1.156 1.243 1.208 1.249 1.33 1.6181
3211.748 1.172 0.27 0.3 0.44 0.65 1.551 1.536 1.006 1.524 1.9279
3231.038 1.363 0.948 1.242 1.401 1.336 1.052 0.913 1.331 1.8005 1.68413
3250.328 1.175 0.54 0.47 1.166 1.369 1.351 1.003 0.61 0.41 0.6
3269.617 1.491 1.794 1.485 0.841 0.59 1.055 1.24 0.994 1.439 1.9882
3288.907 1.77864 1.375 1.174 1.207 0.929 1.038 1.251 1.412 1.395 1.348
3308.197 1.6519 1.281 1.173 1.815 2.0956 1.74941 1.69123 1.72917 1.7556 1.495
3327.487 1.355 1.70729 1.224 0.956 0.997 1.521 1.577 1.074 1.158 1.142
3346.777 1.386 0.912 0.58 1.407 1.6114 1.507 1.6048 1.6691 1.482 1.396
3366.066 1.67222 1.6348 1.787 1.9269 2.2083 2.3035 1.8803 1.75774 1.8559 1.7937
3385.356 1.532 1.316 1.42 1.451 1.095 1.074 1.169 1.573 1.9998 1.5
3404.646 1.347 1.8406 1.841 1.68589 1.366 1.307 1.222 1.319 1.504 1.574
3423.936 1.9505 1.6093 1.29 1.75264 1.9749 1.561 1.214 1.166 1.9368 2.0255
3443.225 1.328 1.118 1.242 1.381 1.415 1.191 0.929 0.837 1.033 1.254
3462.515 1.311 1.6009 1.563 1.72113 1.67304 1.265 1.477 1.8281 1.67628 1.223
3481.805 1.227 1.425 1.342 1.154 0.59 1.059 2.115 2.2713 2.0476 2.0198
3501.095 1.6397 1.063 1.534 1.339 0.61 0.939 1.225 1.554 1.468 1.162
3520.385 1.393 1.209 1.122 1.507 1.5821 1.568 1.463 0.947 1.125 1.012
3539.674 0.36 0.753 1.253 1.69332 2.0069 1.505 0.885 0.703 1.401 1.9351
3558.964 1.6505 1.387 1.242 0.892 1.274 2.1483 2.1262 1.474 1.017 1.145
3578.254 1.419 1.546 1.524 1.205 1.179 1.464 1.464 1.575 1.167 0.744
3597.544 1.034 1.356 1.484 1.289 1.7302 1.71707 1.07 1.49 1.829 1.9462
3616.833 1.9468 1.9772 1.9679 1.8883 1.9805 2.1386 2.0214 1.8219 2.2085 2.2513
3636.123 2.0389 1.9466 2.1203 2.2056 2.2265 2.1688 1.72639 1.446 1.456 1.547
3655.413 1.552 1.77558 1.5935 1.516 1.9969 1.58 1.293 1.483 2.0004 2.0565
3674.703 1.6688 1.8676 1.497 1.502 1.57 1.073 0.67 1.039 1.398 1.7378
3693.993 1.475 0.861 0.76 0.918 1.391 1.284 1.166 1.057 0.929 0.939
3713.282 1.285 1.414 1.325 1.75574 2.164 2.1416 1.72296 1.6059 1.68636 1.291
3732.572 0.87 0.722 0.933 0.824 0.994 1.452 1.499 1.408 0.916 0.815
3751.862 1.032 0.829 0.858 1.74491 1.8737 1.093 0.959 0.33 0.48 1.185
3771.152 0.57 0.78 1.568 1.19 1.163 1.7844 1.562 1.7846 2.0291 1.9352
3790.441 1.888 2.1827 2.5363 1.9574 1.8064 2.5772 2.601 1.8188 1.312 1.393
3809.731 1.5 1.193 0.781 0.885 0.956 0.802 1.087 1.486 1.7928 1.6299
3829.021 1.8282 1.529 1.245 1.538 1.558 1.6002 1.359 1.089 1.427 1.7743
3848.311 1.328 0.902 0.823 0.849 1.5974 2.3656 2.0211 2.1169 2.1071 1.48
3867.601 1.336 1.70454 1.515 0.827 0.968 1.368 1.338 1.05 0.904 0.65
3886.890 0.958 0.922 0.914 0.64 0 0.66 0.723 0.53 0.56 1.016
3906.180 1.6379 1.263 1.55 1.7983 1.545 1.43 1.68085 2.3262 1.9677 1.23
3925.470 1.53 1.6019 0.697 0.756 1.275 1.049 1.263 1.73994 1.8372 1.068
3944.760 0.54 0.84 1.261 1.159 0.953 1.311 1.426 1.551 1.5921 1.9591
3964.049 2.5473 2.3174 1.9029 1.468 1.516 2.0548 1.9062 1.77308 2.1048 2.5958
3983.339 2.71 2.1662 1.485 0.849 0.744 1.1 1.508 2.0223 1.6134 0.84
##END=
