##TITLE=Diethyl propanephosphonate
##JCAMP-DX=4.24
##DATA TYPE=INFRARED SPECTRUM
##ORIGIN=EPA-IR VAPOR PHASE LIBRARY
##OWNER=SRD/NIST
Collection (C) 2018 copyright by the U.S. Secretary of Commerce
on behalf of the United States of America. All rights reserved.
##CAS REGISTRY NO=18812-51-6
##MOLFORM=C 7 H 17 O 3 P
##$NIST SOURCE=MSDC-IR
##STATE=gas
##XUNITS=1/CM
##YUNITS=ABSORBANCE
##XFACTOR=1.
##YFACTOR=0.001
##DELTAX=1.92934
##FIRSTX=549.9
##LASTX=3999.5
##FIRSTY=32.92
##MAXX=3999.53
##MINX=549.863
##MAXY=0.40037
##MINY=0
##NPOINTS=1789
##XYDATA=(X++(Y..Y))
549.863 32.92 29.61 26.41 23.21 20.26 17.83 15.91 14.12 12.52 11.23
569.156 10.32 9.46 8.61 8.1 7.68 7.23 6.8 6.41 6.06 5.84
588.450 5.73 5.54 5.4 5.28 5.14 5.18 5.13 4.96 4.96 4.98
607.743 4.89 4.72 4.6548 4.76 4.82 4.83 4.86 4.88 4.94 4.94
627.037 4.96 5.07 5.1 5.12 5.16 5.24 5.41 5.51 5.57 5.71
646.330 5.93 6.08 6.18 6.48 6.84 7.11 7.35 7.79 8.31 8.77
665.624 9.35 10.06 10.86 11.75 12.73 13.83 14.93 15.97 16.94 17.89
684.917 18.78 19.54 20.27 20.8 20.95 20.91 20.75 20.48 20.03 19.45
704.210 18.89 18.34 17.79 17.28 16.87 16.56 16.4 16.39 16.49 16.74
723.504 17.19 17.81 18.63 19.6 20.75 22.07 23.45 24.92 26.59 28.38
742.797 30.33 32.5 34.86 37.39 40.02 42.76 45.5 48.25 50.99 53.64
762.091 56.32 58.93 61.44 64.02 66.58 68.95 71.06 72.74 73.94 74.43
781.384 74.22 73.44 72.14 70.56 68.82 67.16 65.73 64.47 63.32 62.32
800.678 61.36 60.3 59.14 57.82 56.33 54.7 52.89 50.95 49 47.12
819.971 45.25 43.48 41.88 40.46 39.29 38.35 37.65 37.13 36.55 35.91
839.264 35.09 33.99 32.62 30.99 29.05 26.97 24.91 22.87 20.95 19.27
858.558 17.85 16.67 15.82 15.19 14.75 14.54 14.51 14.68 14.95 15.36
877.851 15.93 16.59 17.4 18.21 19 19.9 20.84 21.69 22.57 23.54
897.145 24.5 25.5 26.65 27.9 29.32 30.97 32.84 35.11 37.9 41.31
916.438 45.46 50.37 56.36 63.65 72.3 82.65 94.87 109.1 125.36 143.2
935.732 162 180.97 198.87 214.44 226.57 234.37 237.48 235.8 229.59 219.47
955.025 206.43 191.48 175.54 159.49 143.95 129.34 115.87 103.69 92.82 83.23
974.318 74.96 67.98 62.25 57.66 54.02 51.31 49.43 48.32 47.98 48.37
993.612 49.43 51.21 53.89 57.54 62.21 68.09 75.53 84.85 96.32 110.42
1012.905 127.58 148.02 171.93 199.16 228.91 260.23 291.67 321.57 348.36 370.51
1032.199 386.94 396.99 400.37 397.41 389.18 377.3 363.45 349.21 335.83 324.08
1051.492 314.26 306.5 300.48 295.34 290.14 283.98 276.01 265.56 252.54 237.25
1070.786 220.09 201.9 183.75 166.6 151.05 137.92 127.54 119.81 114.6 111.61
1090.079 110.37 110.06 110.02 109.77 108.72 106.62 103.2 98.5 92.82 86.41
1109.372 79.55 72.95 67.21 62.31 58.18 54.76 51.89 49.48 47.55 45.85
1128.666 44.3 42.91 41.72 40.8 40.03 39.37 38.79 38.25 37.64 37.17
1147.959 36.78 36.4 36 35.52 35.14 34.72 34.3 33.85 33.32 32.84
1167.253 32.3 31.58 30.83 30.09 29.17 28.1 27.07 26 24.72 23.45
1186.546 22.3 21.13 19.97 19.15 18.6 18.06 17.52 17.15 17.02 16.9
1205.840 16.79 17.23 17.92 18.62 19.81 21.39 23.29 25.65 28.49 31.82
1225.133 35.66 39.65 43.74 47.82 51.29 54.3 57.02 59.04 60.5 61.81
1244.426 63.51 66.24 70.35 76.3 84.3 93.93 105.12 117.4 130.08 142.6
1263.720 153.47 160.78 163.46 161.59 156.3 148.99 140.46 131.04 121.02 110.58
1283.013 99.95 89.67 80.17 71.59 64.05 57.53 51.92 47.19 43.38 40.34
1302.307 37.95 35.93 34.08 32.42 30.8 29.19 27.63 26 24.36 22.76
1321.600 21.24 19.92 18.74 17.75 17.04 16.56 16.31 16.28 16.41 16.63
1340.894 16.88 17.08 17.19 17.18 17 16.73 16.4 16.04 15.78 15.71
1360.187 15.86 16.24 16.76 17.44 18.43 19.91 21.1 21.4 21.95 23.35
1379.480 25.16 27.17 29.49 32.13 34.78 37.11 38.78 39.73 39.9 39.32
1398.774 38.07 36.23 33.95 31.38 28.9 26.86 25.28 23.95 22.62 21.39
1418.067 20.28 19.26 18.36 17.55 16.91 16.39 16.03 15.81 15.69 15.68
1437.361 15.77 15.99 16.29 16.56 16.84 17.19 17.51 17.76 18.05 18.32
1456.654 18.51 18.77 18.99 19.08 19.03 18.76 18.32 17.83 17.15 16.26
1475.948 15.36 14.46 13.6 12.82 12.08 11.37 10.73 10.14 9.63 9.22
1495.241 8.8 8.37 8.01 7.68 7.38 7.16 6.91 6.66 6.42 6.2
1514.534 6.03 5.84 5.65 5.51 5.33 5.16 5.06 4.97 4.86 4.72
1533.828 4.5675 4.4353 4.3061 4.1805 4.0964 4.0461 3.9704 3.9057 3.833 3.74546
1553.121 3.6588 3.533 3.451 3.402 3.33 3.28 3.26 3.248 3.228 3.23
1572.415 3.194 3.112 3.103 3.125 3.109 3.089 3.1 3.072 3.063 3.052
1591.708 3.004 3.037 3.014 2.996 3.015 3.006 3.051 3.086 3.135 3.165
1611.002 3.168 3.222 3.266 3.284 3.306 3.275 3.312 3.416 3.453 3.472
1630.295 3.486 3.482 3.481 3.537 3.6016 3.585 3.553 3.5932 3.6347 3.6534
1649.588 3.6752 3.6249 3.5959 3.596 3.6368 3.69948 3.6716 3.6423 3.6461 3.6449
1668.882 3.6698 3.72206 3.72908 3.69779 3.68163 3.73585 3.837 3.8738 3.8922 3.9203
1688.175 3.9594 4.0358 4.0878 4.1304 4.1533 4.174 4.2332 4.2984 4.3787 4.4359
1707.469 4.4521 4.4857 4.5772 4.6422 4.6731 4.71 4.7 4.73 4.81 4.86
1726.762 4.87 4.88 4.91 4.95 4.94 4.94 4.98 4.98 4.96 4.96
1746.056 4.94 4.92 4.92 4.94 4.94 4.92 4.89 4.87 4.85 4.86
1765.349 4.84 4.77 4.76 4.77 4.77 4.78 4.76 4.72 4.71 4.73
1784.642 4.76 4.79 4.8 4.78 4.78 4.82 4.88 4.91 4.92 4.95
1803.936 4.98 5 5.02 5.04 5.07 5.09 5.1 5.12 5.14 5.13
1823.229 5.1 5.12 5.15 5.15 5.15 5.16 5.19 5.18 5.15 5.14
1842.523 5.1 5.05 5 4.94 4.93 4.89 4.8 4.76 4.75 4.7
1861.816 4.6408 4.5926 4.528 4.438 4.3734 4.3389 4.2911 4.2204 4.1471 4.0511
1881.110 3.9615 3.8911 3.8097 3.72699 3.6063 3.537 3.513 3.453 3.384 3.332
1900.403 3.281 3.178 3.095 3.063 3.024 2.964 2.911 2.843 2.786 2.752
1919.696 2.703 2.66 2.63 2.6 2.58 2.54 2.51 2.49 2.44 2.39
1938.990 2.4 2.4 2.34 2.29 2.32 2.32 2.32 2.29 2.25 2.28
1958.283 2.28 2.29 2.31 2.3 2.28 2.28 2.3 2.35 2.37 2.38
1977.577 2.39 2.39 2.35 2.36 2.38 2.36 2.37 2.37 2.34 2.35
1996.870 2.36 2.37 2.38 2.36 2.33 2.32 2.34 2.32 2.3 2.29
2016.164 2.27 2.25 2.24 2.24 2.21 2.2 2.23 2.24 2.22 2.23
2035.457 2.25 2.25 2.23 2.27 2.3 2.29 2.29 2.3 2.33 2.3
2054.750 2.29 2.28 2.28 2.31 2.3 2.27 2.29 2.31 2.3 2.3
2074.044 2.33 2.35 2.36 2.39 2.4 2.37 2.37 2.4 2.42 2.43
2093.337 2.45 2.46 2.46 2.45 2.46 2.48 2.45 2.43 2.43 2.44
2112.631 2.48 2.5 2.48 2.46 2.47 2.51 2.49 2.45 2.43 2.41
2131.924 2.42 2.45 2.45 2.45 2.48 2.47 2.47 2.49 2.48 2.49
2151.218 2.5 2.48 2.46 2.45 2.45 2.48 2.52 2.53 2.51 2.49
2170.511 2.45 2.41 2.39 2.38 2.4 2.42 2.38 2.38 2.43 2.4
2189.804 2.38 2.37 2.34 2.34 2.35 2.36 2.34 2.32 2.31 2.31
2209.098 2.32 2.3 2.3 2.3 2.29 2.29 2.28 2.3 2.3 2.29
2228.391 2.32 2.3 2.27 2.28 2.31 2.32 2.3 2.27 2.26 2.29
2247.685 2.32 2.32 2.31 2.33 2.36 2.39 2.39 2.4 2.42 2.43
2266.978 2.38 2.37 2.38 2.35 2.37 2.38 2.35 2.35 2.35 2.34
2286.272 2.37 2.37 2.36 2.36 2.36 2.39 2.4 2.4 2.4 2.4
2305.565 2.43 2.43 2.43 2.45 2.47 2.47 2.44 2.41 2.4 2.46
2324.858 2.5 2.49 2.47 2.5 2.51 2.48 2.48 2.47 2.45 2.44
2344.152 2.44 2.44 2.43 2.41 2.33 2.29 2.3 2.28 2.24 2.25
2363.445 2.26 2.23 2.18 2.17 2.17 2.14 2.16 2.16 2.13 2.14
2382.739 2.14 2.13 2.17 2.15 2.12 2.13 2.18 2.23 2.26 2.29
2402.032 2.34 2.38 2.4 2.4 2.4 2.4 2.43 2.44 2.43 2.46
2421.326 2.47 2.46 2.45 2.47 2.46 2.47 2.49 2.47 2.5 2.51
2440.619 2.51 2.52 2.51 2.5 2.52 2.58 2.58 2.59 2.61 2.64
2459.912 2.62 2.58 2.53 2.49 2.5 2.48 2.46 2.45 2.44 2.44
2479.206 2.43 2.41 2.41 2.4 2.41 2.44 2.4 2.38 2.43 2.45
2498.499 2.44 2.42 2.42 2.42 2.38 2.36 2.36 2.37 2.43 2.45
2517.793 2.38 2.34 2.35 2.34 2.32 2.27 2.26 2.28 2.28 2.29
2537.086 2.3 2.24 2.2 2.19 2.19 2.17 2.16 2.18 2.18 2.19
2556.380 2.18 2.18 2.15 2.13 2.1 2.11 2.18 2.16 2.12 2.12
2575.673 2.11 2.09 2.09 2.1 2.11 2.12 2.13 2.13 2.1 2.12
2594.966 2.13 2.14 2.17 2.21 2.24 2.23 2.24 2.24 2.24 2.28
2614.260 2.29 2.27 2.27 2.28 2.3 2.33 2.35 2.38 2.42 2.43
2633.553 2.39 2.4 2.44 2.47 2.5 2.53 2.53 2.53 2.55 2.54
2652.847 2.56 2.63 2.65 2.61 2.56 2.58 2.6 2.54 2.51 2.57
2672.140 2.64 2.63 2.56 2.54 2.58 2.61 2.59 2.5 2.49 2.54
2691.434 2.57 2.62 2.61 2.64 2.66 2.63 2.66 2.703 2.731 2.784
2710.727 2.89 2.957 3.062 3.138 3.194 3.326 3.483 3.5984 3.74847 3.8895
2730.020 4.016 4.167 4.2258 4.2706 4.3806 4.4604 4.5134 4.6042 4.6669 4.77
2749.314 4.86 4.9 4.93 4.94 4.93 4.97 5.04 5.08 5.15 5.19
2768.607 5.2 5.32 5.4 5.44 5.47 5.5 5.5 5.44 5.45 5.52
2787.901 5.58 5.63 5.66 5.67 5.8 5.92 6.02 6.15 6.25 6.31
2807.194 6.41 6.55 6.72 6.91 6.98 7.06 7.18 7.34 7.52 7.66
2826.488 7.83 7.99 8.16 8.42 8.64 8.84 9.16 9.55 9.93 10.3
2845.781 10.73 11.26 11.78 12.33 13.07 13.87 14.72 15.7 16.88 18.29
2865.074 20 22.2 24.71 27.67 31.15 35.12 39.37 43.35 46.88 49.82
2884.368 52.06 53.47 54.04 53.91 53.36 52.53 51.8 51.65 51.96 52.88
2903.661 54.53 56.52 58.65 60.9 62.96 64.59 65.85 66.68 67.22 67.72
2922.955 68.57 70.08 72.47 75.95 80.52 85.81 91.5 96.98 101.48 104.68
2942.248 106.53 107.06 106.23 104.32 101.77 99.22 97.27 96.42 97.38 100.37
2961.542 105.01 110.92 117.46 124.07 130.21 135.19 138.63 140.16 140.18 139.22
2980.835 137.05 133.67 129.27 123.8 117.55 110.78 103.15 95.01 86.74 78.59
3000.128 71.19 64.76 59.13 53.96 49.21 45.17 41.71 38.49 35.49 32.8
3019.422 30.31 28.01 25.92 23.95 22.1 20.41 18.94 17.62 16.45 15.32
3038.715 14.17 13.13 12.25 11.46 10.58 9.86 9.25 8.59 8.11 7.69
3058.009 7.24 6.76 6.4 6.15 5.89 5.65 5.43 5.18 5.03 4.9
3077.302 4.6342 4.4781 4.4319 4.2882 4.0941 3.9824 3.9265 3.7956 3.68368 3.678
3096.596 3.638 3.5974 3.6222 3.525 3.374 3.446 3.485 3.345 3.224 3.071
3115.889 3.01 3.034 3.053 3.047 2.991 2.93 2.81 2.693 2.66 2.756
3135.182 2.719 2.59 2.44 2.42 2.54 2.55 2.44 2.27 2.25 2.3
3154.476 2.16 2.2 2.26 2.15 2.19 2.1 2 2.1 2.06 1.96
3173.769 2.04 1.99 1.89 1.91 1.89 1.87 1.84 1.84 1.81 1.73
3193.063 1.76 1.73 1.62 1.64 1.67 1.67 1.63 1.62 1.62 1.51
3212.356 1.48 1.49 1.34 1.34 1.5 1.48 1.2 1.13 1.21 1.09
3231.650 1.02 0.99 1.04 1.1 1.06 0.97 0.89 0.81 0.79 0.89
3250.943 0.81 0.64 0.63 0.54 0.48 0.51 0.51 0.58 0.65 0.59
3270.236 0.42 0.29 0.27 0.31 0.27 0.25 0.34 0.4 0.26 0.21
3289.530 0.36 0.37 0.25 0.13 0.12 0.11 0.06 0.09 0.21 0.33
3308.823 0.28 0.26 0.33 0.17 0.18 0.25 0.19 0.2 0.09 0.07
3328.117 0.1 0.17 0.27 0.25 0.22 0.22 0.21 0.04 0 0.16
3347.410 0.24 0.31 0.25 0.22 0.25 0.15 0.01 0.03 0.11 0.08
3366.704 0.05 0.04 0.12 0.16 0.2 0.24 0.31 0.37 0.19 0.19
3385.997 0.28 0.22 0.16 0.14 0.26 0.21 0.08 0.09 0.17 0.21
3405.290 0.25 0.29 0.24 0.18 0.14 0.1 0.05 0.09 0.19 0.29
3424.584 0.28 0.2 0.2 0.16 0.14 0.25 0.24 0.13 0.21 0.38
3443.877 0.4 0.26 0.29 0.35 0.3 0.22 0.22 0.3 0.26 0.24
3463.171 0.28 0.35 0.42 0.29 0.26 0.27 0.24 0.31 0.36 0.3
3482.464 0.34 0.41 0.42 0.38 0.32 0.36 0.5 0.54 0.51 0.5
3501.758 0.41 0.37 0.44 0.52 0.56 0.48 0.39 0.37 0.36 0.25
3521.051 0.3 0.42 0.49 0.59 0.46 0.38 0.32 0.36 0.52 0.55
3540.344 0.55 0.54 0.46 0.48 0.45 0.43 0.51 0.51 0.53 0.55
3559.638 0.59 0.46 0.37 0.42 0.43 0.59 0.67 0.62 0.63 0.55
3578.931 0.54 0.62 0.58 0.56 0.61 0.62 0.62 0.63 0.62 0.64
3598.225 0.6 0.61 0.76 0.77 0.66 0.71 0.73 0.73 0.76 0.75
3617.518 0.7 0.65 0.72 0.77 0.76 0.7 0.69 0.77 0.82 0.81
3636.812 0.81 0.82 0.85 0.9 0.89 0.88 0.94 0.96 0.92 0.97
3656.105 0.99 1.03 1.01 0.91 0.95 1 0.98 1.01 1.13 1.18
3675.398 1.07 1.01 1.03 1.09 1.15 1.09 1.05 1.15 1.2 1.25
3694.692 1.28 1.22 1.13 1.02 1.08 1.07 1.11 1.23 1.26 1.19
3713.985 1.14 1.19 1.24 1.2 1.1 1.21 1.26 1.2 1.25 1.27
3733.279 1.24 1.16 1.2 1.28 1.24 1.22 1.27 1.3 1.39 1.41
3752.572 1.36 1.32 1.36 1.44 1.44 1.52 1.58 1.54 1.51 1.54
3771.866 1.6 1.6 1.62 1.61 1.54 1.52 1.5 1.57 1.61 1.54
3791.159 1.53 1.5 1.5 1.54 1.51 1.38 1.35 1.42 1.46 1.49
3810.452 1.46 1.46 1.51 1.5 1.47 1.44 1.4 1.39 1.42 1.53
3829.746 1.52 1.49 1.48 1.42 1.39 1.37 1.39 1.38 1.43 1.48
3849.039 1.51 1.56 1.55 1.53 1.56 1.64 1.67 1.6 1.59 1.65
3868.333 1.67 1.71 1.71 1.58 1.52 1.57 1.63 1.66 1.66 1.7
3887.626 1.73 1.76 1.72 1.76 1.82 1.73 1.65 1.7 1.74 1.7
3906.920 1.78 1.85 1.83 1.79 1.77 1.83 1.9 1.9 1.89 1.89
3926.213 1.93 1.93 1.93 1.96 2.03 2.12 2.09 2 1.97 2.01
3945.506 2.07 2.14 2.14 2.1 2.12 2.15 2.13 2.17 2.2 2.21
3964.800 2.29 2.25 2.22 2.27 2.29 2.32 2.36 2.39 2.35 2.32
3984.093 2.36 2.38 2.38 2.29 2.28 2.41 2.4 2.38 2.39
##END=
