##TITLE=4-Ethylphenyl isothiocyanate
##JCAMP-DX=4.24
##DATA TYPE=INFRARED SPECTRUM
##ORIGIN=EPA-IR VAPOR PHASE LIBRARY
##OWNER=SRD/NIST
Collection (C) 2018 copyright by the U.S. Secretary of Commerce
on behalf of the United States of America. All rights reserved.
##CAS REGISTRY NO=18856-63-8
##MOLFORM=C 9 H 9 N S
##$NIST SOURCE=MSDC-IR
##STATE=gas
##XUNITS=1/CM
##YUNITS=ABSORBANCE
##XFACTOR=1.
##YFACTOR=0.001
##DELTAX=1.92898
##FIRSTX=549.8
##LASTX=4000.7
##FIRSTY=14.44
##MAXX=4000.7
##MINX=549.759
##MAXY=0.45212
##MINY=0
##NPOINTS=1790
##XYDATA=(X++(Y..Y))
549.759 14.44 13.29 12.58 11.8 10.92 10.41 10.12 10.05 9.75 9.25
569.049 8.71 8.36 8.14 7.67 7.21 7.03 6.69 6.3 6.14 5.78
588.339 5.24 4.89 4.57 4.2 4.07 3.91 3.67 3.61 3.51 3.51
607.628 3.4 3.31 3.57 3.74 3.54 3.39 3.53 3.24 2.83 2.97
626.918 2.92 2.54 2.26 2.07 1.95 1.99 2.07 1.85 1.74 1.82
646.208 1.77 1.63 1.45 1.51 1.77 1.76 1.75 1.92 1.91 1.83
665.498 1.97 2.16 2.3 2.26 1.98 1.95 2.04 2.04 2.16 2.1
684.787 1.96 1.91 1.86 1.77 1.74 1.84 1.81 1.74 1.73 1.8
704.077 1.87 1.8 1.68 1.9 2.05 2.11 2.21 2.07 2.06 2.01
723.367 1.94 1.98 1.85 1.86 2.02 2.13 2.21 2.31 2.39 2.47
742.657 2.61 2.91 3.23 3.55 3.82 3.84 3.99 4.37 4.72 5.43
761.947 6.39 7.51 9.01 10.73 12.61 14.12 14.79 14.94 14.61 13.42
781.236 11.58 9.41 7.6 6.83 6.53 6.24 6.24 6.66 7.06 7.7
800.526 8.46 9.2 10.37 11.78 13.27 15.07 16.77 18.51 20.78 23
819.816 25.09 27.2 29.1 30.93 32.48 33.8 34.84 34.56 32.99 30.96
839.106 28.96 26.63 23.86 21.19 18.68 16.18 13.75 11.6 9.72 8.3
858.395 7.18 6.18 5.4 4.8 4.32 3.99 3.75 3.51 3.42 3.36
877.685 3.45 3.48 3.42 3.38 3.37 3.65 4.08 4.58 5.24 6.11
896.975 6.96 7.7 8.47 9.05 9.82 10.61 10.97 11.28 11.54 11.85
916.265 12.43 12.95 13.53 14.25 15.21 16.53 18.22 20.15 22.02 23.87
935.555 25.34 26.48 27.29 27.3 26.52 25.1 23.26 21.35 19.31 17.4
954.844 15.99 14.78 14.01 13.83 13.82 13.57 13.18 12.8 12.23 11.22
974.134 9.99 8.82 7.65 6.59 5.68 5.05 4.43 3.97 3.74 3.45
993.424 3.07 2.85 2.81 2.63 2.56 2.55 2.43 2.57 3.14 3.51
1012.714 4.02 5.05 5.24 5.05 4.94 4.69 4.18 3.55 3.09 2.54
1032.003 2.36 2.45 2.69 3.04 3.33 3.53 3.69 4.14 4.47 4.67
1051.293 5.01 5.39 6.1 6.63 6.98 7.05 6.58 6.12 5.63 5.07
1070.583 4.32 3.55 2.96 2.56 2.44 1.99 1.79 1.81 1.69 1.9
1089.873 2.22 2.36 1.95 1.99 2.5 2.8 3.19 3.6 4.08 4.31
1109.163 4.3 4.57 4.98 4.83 4.73 4.72 4.11 3.65 3.55 3.41
1128.452 3.23 2.94 2.63 2.36 2.03 1.7 1.5 1.48 1.2713 1.2028
1147.742 1.5 1.55 1.67 1.56 1.316 1.3077 1.1844 1.3351 1.47 1.48
1167.032 1.56 1.47 1.3404 1.2561 1.52 1.71 1.83 2.12 1.95 2
1186.322 2.27 2.46 2.95 3.25 3.4 3.92 4.18 4.05 3.86 3.78
1205.611 3.58 3.12 2.72 2.75 2.96 2.8 2.85 3.2 3.55 3.69
1224.901 3.6 3.83 4.5 5.11 5.3 6.09 7.24 8.14 9.2 10.22
1244.191 11.38 12.23 12.79 13.07 12.83 12.29 11.62 10.74 9.63 8.66
1263.481 7.93 7.31 6.79 6.38 6.09 5.97 5.72 5.37 5.24 5.07
1282.771 4.97 4.79 4.54 4.51 4.4 4.16 4.07 4.15 4.21 4.22
1302.060 4.29 4.54 4.73 4.88 5.2 5.61 6.08 6.57 7.15 7.71
1321.350 8.07 8.23 8.18 7.85 7.35 6.72 5.96 5.22 4.58 4.06
1340.640 3.69 3.42 3.15 2.95 2.84 2.71 2.64 2.6 2.51 2.44
1359.930 2.37 2.4 2.45 2.49 2.5 2.54 2.6 2.64 2.71 2.8
1379.219 2.93 3.03 3.09 3.21 3.31 3.36 3.38 3.41 3.44 3.46
1398.509 3.54 3.64 3.69 3.81 3.92 3.96 4.15 4.37 4.51 4.64
1417.799 4.68 4.79 4.92 4.98 5.06 5.07 5.13 5.25 5.38 5.52
1437.089 5.7 5.98 6.29 6.62 6.92 7.29 7.72 8.08 8.36 8.6
1456.378 8.86 9.13 9.34 9.55 9.72 9.77 9.72 9.58 9.39 9.23
1475.668 9 8.81 8.82 9.09 9.75 10.88 12.74 15.58 19.84 26.01
1494.958 34.63 46.12 59.76 73.8 85.01 90.03 88.86 83.58 74.38 60.31
1514.248 43.54 28.97 19.32 13.9 10.86 8.94 7.73 7.01 6.49 6.12
1533.538 5.87 5.72 5.64 5.61 5.53 5.48 5.43 5.47 5.54 5.53
1552.827 5.6 5.69 5.89 6.07 6.25 6.5 6.7 6.95 7.25 7.42
1572.117 7.57 7.69 7.78 7.92 7.95 7.96 8.06 8.27 8.67 9.18
1591.407 9.73 10.53 11.61 12.82 14.11 15.35 16.35 16.97 16.98 16.45
1610.697 15.41 13.89 12.14 10.34 8.7 7.35 6.41 5.77 5.3 5
1629.986 4.78 4.6 4.53 4.55 4.59 4.57 4.49 4.44 4.36 4.2
1649.276 4.12 4.04 3.93 3.86 3.74 3.58 3.41 3.21 3.05 2.91
1668.566 2.74 2.66 2.59 2.5 2.42 2.39 2.31 2.25 2.2 2.09
1687.856 2.03 2.06 2.03 1.96 2.04 2.05 2.04 2.08 2.12 2.11
1707.146 2.06 2.11 2.13 2.14 2.17 2.13 2.13 2.22 2.31 2.34
1726.435 2.31 2.26 2.3 2.3 2.3 2.34 2.33 2.43 2.5 2.48
1745.725 2.52 2.54 2.61 2.72 2.85 2.99 3.13 3.28 3.45 3.63
1765.015 3.78 3.96 4.05 4 3.89 3.82 3.7 3.59 3.54 3.38
1784.305 3.31 3.28 3.17 3.1 3.11 3.14 3.17 3.13 3.05 3.06
1803.594 3.06 3.09 3.12 3.08 3.06 3.04 3.07 3.14 3.13 3.14
1822.884 3.23 3.27 3.31 3.39 3.49 3.58 3.71 3.83 3.95 4.09
1842.174 4.25 4.46 4.72 4.96 5.18 5.41 5.63 5.86 6.12 6.38
1861.464 6.71 7.04 7.3 7.59 7.91 8.35 8.83 9.24 9.67 10.05
1880.754 10.35 10.66 10.98 11.23 11.43 11.51 11.52 11.52 11.56 11.6
1900.043 11.56 11.53 11.58 11.66 11.81 12 12.2 12.53 12.92 13.35
1919.333 13.9 14.6 15.4 16.24 17.15 18.22 19.37 20.63 22.03 23.48
1938.623 25.06 26.82 28.7 30.65 32.68 34.85 37.09 39.43 41.88 44.43
1957.913 47.15 49.99 52.94 56.03 59.3 62.75 66.33 70.21 74.34 78.62
1977.202 83.12 87.86 92.97 98.36 103.99 109.95 116.19 122.95 130.19 137.77
1996.492 145.83 154.48 163.55 172.97 182.98 193.52 204.41 215.74 227.38 239.17
2015.782 251.12 263.21 275.6 287.96 300.04 311.94 323.61 335.33 347.14 358.96
2035.072 370.93 383.16 395.7 408.41 420.88 432.67 442.82 449.96 452.12 447.1
2054.362 434.09 413.95 388.23 358.89 328.33 298.51 271 246.94 226.85 211.11
2073.651 199.63 191.89 187.45 185.88 186.62 189.38 193.86 199.73 206.86 215.04
2092.941 224.16 233.97 244.02 253.69 262.4 269.07 272.34 271.24 265.3 254.76
2112.231 240.21 222.93 204.34 185.61 167.76 151.42 137.08 124.95 114.82 106.4
2131.521 99.49 93.95 89.59 85.98 82.91 80.56 78.75 77.4 76.48 75.85
2150.810 75.4 75.09 74.72 74.17 73.42 72.29 70.63 68.64 66.39 63.86
2170.100 61.12 58.35 55.72 53.24 50.99 48.92 46.9 45.05 43.28 41.62
2189.390 39.95 38.12 36.25 34.32 32.39 30.4 28.36 26.43 24.57 22.87
2208.680 21.32 19.87 18.49 17.26 16.18 15.16 14.2 13.3 12.52 11.83
2227.970 11.15 10.47 9.89 9.41 8.84 8.3 7.86 7.41 6.95 6.53
2247.259 6.21 5.88 5.47 5.14 4.93 4.69 4.44 4.26 4.05 3.91
2266.549 3.78 3.67 3.55 3.38 3.28 3.22 3.14 2.98 2.85 2.8
2285.839 2.69 2.56 2.43 2.39 2.32 2.2 2.1 2.04 2.02 1.96
2305.129 1.91 1.84 1.83 1.83 1.78 1.69 1.63 1.61 1.6 1.64
2324.418 1.65 1.68 1.74 1.8 1.77 1.71 1.72 1.81 1.83 1.79
2343.708 1.87 1.93 1.96 2.01 2.02 1.96 1.95 1.99 2.03 2.11
2362.998 2.2 2.29 2.34 2.33 2.39 2.5 2.6 2.61 2.65 2.75
2382.288 2.86 2.99 3.05 3.1 3.16 3.29 3.42 3.53 3.57 3.55
2401.578 3.57 3.66 3.74 3.63 3.49 3.5 3.54 3.53 3.51 3.51
2420.867 3.53 3.44 3.36 3.41 3.4 3.29 3.31 3.35 3.22 3.1
2440.157 3.11 3.18 3.18 3.12 3.12 3.13 3.09 3.08 3.13 3.09
2459.447 3.07 3.11 3.18 3.17 3.16 3.19 3.21 3.26 3.24 3.28
2478.737 3.35 3.38 3.48 3.56 3.69 3.79 3.78 3.84 3.93 4.02
2498.026 4.03 4.06 4.04 3.92 3.86 3.85 3.8 3.81 3.82 3.71
2517.316 3.73 3.77 3.74 3.75 3.76 3.78 3.77 3.75 3.73 3.79
2536.606 3.87 3.8 3.74 3.82 3.9 3.95 4.01 4.04 4.07 4.14
2555.896 4.22 4.22 4.19 4.19 4.16 4.1 4.06 4.1 4.01 3.83
2575.186 3.71 3.65 3.57 3.49 3.41 3.32 3.23 3.09 3.02 2.96
2594.475 2.84 2.68 2.5 2.46 2.47 2.39 2.35 2.37 2.32 2.34
2613.765 2.43 2.44 2.49 2.51 2.52 2.61 2.67 2.65 2.76 2.83
2633.055 2.89 2.95 3.01 3.1 3.13 3.16 3.18 3.24 3.26 3.29
2652.345 3.38 3.52 3.57 3.59 3.7 3.74 3.83 4.09 4.33 4.49
2671.634 4.71 4.86 5.04 5.34 5.54 5.6 5.66 5.73 5.81 5.9
2690.924 5.94 5.85 5.73 5.74 5.67 5.52 5.31 5.15 4.99 4.67
2710.214 4.32 4 3.71 3.52 3.27 3.1 2.9 2.59 2.55 2.42
2729.504 2.29 2.35 2.4 2.3 2.19 2.33 2.39 2.38 2.44 2.44
2748.794 2.36 2.28 2.3 2.38 2.4 2.39 2.4 2.4 2.36 2.38
2768.083 2.37 2.25 2.26 2.34 2.45 2.42 2.31 2.3 2.33 2.32
2787.373 2.37 2.42 2.31 2.31 2.5 2.56 2.51 2.54 2.55 2.61
2806.663 2.6 2.59 2.78 2.89 2.97 3 3.09 3.27 3.28 3.33
2825.953 3.52 3.66 3.75 3.79 3.9 4.01 4.1 4.25 4.32 4.44
2845.242 4.64 4.91 5.24 5.55 5.87 6.35 6.88 7.46 8.22 9.11
2864.532 10.09 10.95 11.73 12.45 13.08 13.66 14.13 14.58 15.14 15.71
2883.822 16.24 16.62 16.76 16.73 16.59 16.32 15.87 15.37 15.07 14.97
2903.112 15.03 15.27 15.45 15.43 15.45 15.58 15.67 15.64 15.59 15.81
2922.401 16.4 17.02 17.72 18.66 19.63 20.92 22.46 24 25.64 27.14
2941.691 28.44 29.29 29.62 29.53 28.83 27.85 26.78 25.68 25 24.99
2960.981 25.61 26.97 29.36 33.26 39.1 46.65 53.74 57.12 56.93 55.63
2980.271 52.88 46.42 37.61 29.94 24.7 21.33 19.08 17.36 15.99 14.89
2999.561 13.87 13.13 12.41 11.76 11.25 10.75 10.42 10.23 9.99 9.91
3018.850 10.09 10.35 10.77 11.44 12.45 13.87 15.44 16.89 17.96 18.44
3038.140 18.3 17.5 16.32 14.83 13.09 11.49 10.24 9.45 8.94 8.51
3057.430 8 7.49 7.2 7.04 6.82 6.61 6.66 6.46 6.25 6.39
3076.720 6.34 6.22 6.3 6.37 6.25 6.14 6.05 6 5.88 5.63
3096.009 5.57 5.5 5.26 5.12 4.97 4.72 4.46 4.22 4.01 3.93
3115.299 3.71 3.48 3.37 3.04 2.89 2.83 2.51 2.16 1.91 1.85
3134.589 1.78 1.64 1.54 1.3446 1.1803 1.2111 1.2447 1.2185 1.2169 1.0695
3153.879 0.9377 1.0238 1.0316 1.0311 1.1695 1.2322 1.2321 1.1488 1.0909 1.1912
3173.169 1.1369 1.0096 1.0234 0.904 0.8321 0.9361 0.8853 0.8267 0.6905 0.6189
3192.458 0.7365 0.7424 0.7077 0.6759 0.5292 0.42198 0.42724 0.5147 0.5224 0.3669
3211.748 0.3436 0.40601 0.42959 0.43809 0.264 0.092 0.187 0.3012 0.41573 0.44014
3231.038 0.41305 0.43817 0.2961 0.2962 0.3361 0.257 0.247 0.136 0.1 0.156
3250.328 0.191 0.237 0.163 0 0.007 0.015 0.022 0.114 0.157 0.23
3269.617 0.149 0.155 0.249 0.209 0.253 0.2976 0.3222 0.3305 0.154 0.11
3288.907 0.273 0.245 0.249 0.3379 0.2984 0.098 0.13 0.277 0.2863 0.234
3308.197 0.241 0.215 0.04 0.139 0.185 0.122 0.149 0.21 0.3375 0.251
3327.487 0.202 0.2895 0.219 0.183 0.3217 0.39358 0.229 0.227 0.3251 0.2807
3346.777 0.202 0.203 0.196 0.187 0.3037 0.3307 0.296 0.247 0.262 0.39015
3366.066 0.3624 0.3312 0.3341 0.2973 0.192 0.164 0.273 0.3416 0.37469 0.3049
3385.356 0.3579 0.46901 0.4855 0.5421 0.5151 0.43013 0.506 0.5228 0.3584 0.242
3404.646 0.3548 0.3675 0.3429 0.41687 0.3092 0.3102 0.3017 0.3463 0.40957 0.3011
3423.936 0.3203 0.264 0.24 0.3187 0.3531 0.2967 0.255 0.3414 0.357 0.3417
3443.225 0.206 0.2888 0.383479 0.4147 0.6235 0.553 0.3304 0.3392 0.41347 0.3497
3462.515 0.3465 0.307 0.191 0.104 0.3445 0.47663 0.23 0.071 0.143 0.261
3481.805 0.237 0.266 0.3249 0.3624 0.39318 0.363 0.3122 0.3272 0.40363 0.44644
3501.095 0.3582 0.381847 0.5177 0.5614 0.46882 0.43409 0.3649 0.4021 0.4867 0.43203
3520.385 0.3691 0.319 0.4439 0.39235 0.234 0.254 0.3095 0.3471 0.45294 0.382105
3539.674 0.222 0.40399 0.5225 0.44601 0.41768 0.5001 0.5092 0.25 0.219 0.248
3558.964 0.3081 0.47344 0.5498 0.5436 0.2939 0.135 0.25 0.5107 0.5148 0.33
3578.254 0.312 0.3964 0.47643 0.46637 0.4936 0.2872 0.162 0.2834 0.279 0.3379
3597.544 0.3605 0.345 0.44599 0.37108 0.2907 0.3592 0.41048 0.44037 0.3433 0.319
3616.833 0.3112 0.253 0.2904 0.3006 0.386859 0.47864 0.41065 0.2915 0.382061 0.5281
3636.123 0.46699 0.45226 0.42028 0.5008 0.46336 0.3652 0.387308 0.3564 0.4944 0.5926
3655.413 0.6245 0.6 0.5851 0.5221 0.42166 0.4903 0.4916 0.45347 0.4886 0.5612
3674.703 0.6141 0.5561 0.5834 0.5793 0.534 0.574 0.5556 0.5654 0.5485 0.5791
3693.993 0.7396 0.6866 0.4996 0.4811 0.5316 0.6329 0.6471 0.46616 0.5845 0.7866
3713.282 0.7139 0.6412 0.6521 0.6263 0.6625 0.6766 0.5672 0.5191 0.4904 0.42535
3732.572 0.4975 0.5171 0.45057 0.5194 0.5848 0.5647 0.5352 0.5161 0.5446 0.4838
3751.862 0.46621 0.4763 0.47782 0.6886 0.6912 0.6033 0.5569 0.4895 0.4988 0.5174
3771.152 0.45283 0.46353 0.5476 0.5949 0.5637 0.5234 0.44489 0.381516 0.43963 0.5147
3790.441 0.7069 0.6964 0.5199 0.5299 0.5519 0.5144 0.46972 0.5134 0.5259 0.614
3809.731 0.6833 0.596 0.6415 0.7208 0.5425 0.517 0.5443 0.45931 0.5551 0.6394
3829.021 0.6892 0.6115 0.5038 0.4922 0.5869 0.5719 0.5154 0.6436 0.795 0.7907
3848.311 0.7124 0.7548 0.7804 0.6856 0.6074 0.6568 0.8618 0.9546 0.8623 0.8341
3867.601 0.9975 0.9418 0.6376 0.6514 0.8488 0.8596 0.8674 0.8263 0.7627 0.7888
3886.890 0.784 0.8527 0.8684 0.8005 0.7956 0.9196 0.9535 0.9028 0.9206 0.8922
3906.180 0.9013 0.8458 0.7545 0.8735 0.978 1.0206 1.0101 1.1194 1.2244 1.2012
3925.470 1.2 1.1315 1.1242 1.2611 1.2554 1.3369 1.3345 1.188 1.3234 1.3054
3944.760 1.2236 1.41 1.62 1.46 1.3525 1.46 1.3436 1.191 1.346 1.53
3964.049 1.44 1.43 1.52 1.48 1.47 1.6 1.73 1.7 1.56 1.6
3983.339 1.76 1.69 1.76 1.9 1.76 1.79 1.94 1.88 1.79 2.03
##END=
