##TITLE=2,5-Dimethyl-3-hexanone
##JCAMP-DX=4.24
##DATA TYPE=INFRARED SPECTRUM
##ORIGIN=NIST Mass Spectrometry Data Center
##OWNER=NIST Standard Reference Data Program
Collection (C) 2018 copyright by the U.S. Secretary of Commerce
on behalf of the United States of America. All rights reserved.
##CAS REGISTRY NO=1888-57-9
##MOLFORM=C 8 H 16 O
##$NIST SOURCE=MSDC-IR
##SPECTROMETER/DATA SYSTEM=HP-GC/MS/IRD
##STATE=gas
##XUNITS=1/CM
##YUNITS=ABSORBANCE
##XFACTOR=1.0
##YFACTOR=0.000000800
##DELTAX=4.0
##FIRSTX=550.0
##LASTX=3846.0
##FIRSTY=0.000314
##MAXX=3846
##MINX=550
##MAXY=0.008
##MINY=0
##NPOINTS=825
##XYDATA=(X++(Y..Y))
550.0 393 158 6 32 56 117 169 86 79 106
590.0 123 178 217 226 191 147 132 91 143 206
630.0 211 171 107 120 193 247 184 88 75 20
670.0 97 177 112 179 187 145 131 135 137 112
710.0 155 206 119 100 144 196 234 179 167 191
750.0 177 167 193 233 226 194 250 324 307 315
790.0 360 336 316 333 285 191 229 271 304 305
830.0 271 270 262 212 192 234 257 271 263 253
870.0 287 332 386 386 341 332 326 340 372 346
910.0 343 369 393 445 534 583 616 660 741 839
950.0 803 727 693 611 517 461 446 455 445 492
990.0 543 583 671 740 780 872 988 1183 1471 1765
1030.0 2061 2209 2165 2010 1760 1459 1200 1029 886 806
1070.0 780 721 711 734 731 742 815 865 922 998
1110.0 1032 1003 914 864 890 937 951 1011 1034 995
1150.0 969 947 971 984 1012 1022 999 906 766 692
1190.0 620 526 431 410 394 337 327 350 385 398
1230.0 363 344 337 333 324 322 336 363 373 419
1270.0 504 569 686 749 739 744 748 723 684 660
1310.0 650 647 663 722 813 916 1036 1170 1369 1585
1350.0 1736 1867 2003 2068 2065 1977 1878 1871 1868 1824
1390.0 1703 1512 1224 985 868 815 786 762 752 740
1430.0 769 841 913 980 1089 1249 1440 1671 1887 2025
1470.0 2011 1886 1663 1368 1066 811 639 509 436 374
1510.0 308 278 235 212 230 213 185 148 137 157
1550.0 168 165 150 155 163 169 172 164 186 165
1590.0 147 160 148 149 163 190 204 185 161 172
1630.0 208 215 214 241 264 266 251 256 283 328
1670.0 397 473 569 694 847 1039 1346 1790 2389 3152
1710.0 3998 4772 5349 5589 5354 4647 3713 2795 1989 1365
1750.0 963 728 581 449 351 294 264 230 196 193
1790.0 185 163 162 167 143 121 120 142 144 134
1830.0 130 135 125 113 97 103 133 109 83 87
1870.0 106 102 82 90 86 82 95 82 73 66
1910.0 65 64 61 85 80 56 63 72 64 62
1950.0 62 41 45 61 49 53 64 57 53 66
1990.0 67 69 64 41 44 62 49 54 68 50
2030.0 44 55 56 51 43 58 59 60 63 53
2070.0 38 35 45 48 59 61 44 47 52 56
2110.0 57 48 52 43 26 32 33 37 50 53
2150.0 23 0 31 45 49 58 46 37 25 44
2190.0 59 46 56 72 84 51 42 52 30 35
2230.0 38 52 56 63 82 68 63 57 36 55
2270.0 68 51 59 51 43 50 35 22 15 24
2310.0 45 42 20 41 69 48 30 34 54 68
2350.0 51 66 86 75 62 64 78 69 64 49
2390.0 46 71 85 75 75 83 82 83 93 96
2430.0 76 86 73 50 57 47 68 80 62 67
2470.0 60 66 61 56 90 81 53 66 82 74
2510.0 79 92 117 126 106 94 92 74 71 94
2550.0 80 83 101 95 102 99 81 104 104 80
2590.0 111 131 122 132 128 92 81 83 84 106
2630.0 128 142 143 136 138 150 147 155 141 121
2670.0 113 103 155 175 129 125 146 145 135 117
2710.0 123 181 212 224 246 276 292 289 271 261
2750.0 261 248 252 265 271 272 272 269 290 292
2790.0 276 281 316 366 397 433 472 480 472 504
2830.0 552 590 649 717 802 875 966 1151 1432 1827
2870.0 2367 2897 3341 3691 3915 3938 3818 3773 3745 3724
2910.0 3726 3754 3858 4028 4238 4541 4926 5266 5572 5915
2950.0 6348 7028 8014 9005 9718 10000 9600 8536 7093 5538
2990.0 4103 3013 2211 1658 1304 1039 840 722 629 556
3030.0 471 398 383 363 355 327 307 307 307 296
3070.0 269 283 282 284 320 312 289 285 285 274
3110.0 276 263 260 266 261 253 232 252 273 260
3150.0 242 245 275 232 208 247 254 272 286 256
3190.0 266 268 252 261 242 206 188 172 161 160
3230.0 163 151 116 134 156 121 103 119 97 83
3270.0 117 153 139 98 86 123 138 126 102 58
3310.0 67 112 135 136 119 142 128 106 101 117
3350.0 147 134 118 128 162 137 88 94 121 139
3390.0 143 144 177 210 190 155 149 150 158 153
3430.0 169 201 198 185 182 182 209 177 122 134
3470.0 139 126 176 221 165 118 92 76 90 49
3510.0 52 93 63 101 107 87 102 135 116 86
3550.0 99 94 84 69 104 138 132 126 116 75
3590.0 76 120 87 68 74 67 44 46 79 63
3630.0 73 58 54 106 127 138 87 25 23 39
3670.0 29 16 58 75 49 78 79 73 80 89
3710.0 75 40 53 84 67 52 84 98 94 78
3750.0 102 114 83 103 113 68 67 99 87 62
3790.0 61 83 111 111 114 112 135 142 120 126
3830.0 98 62 103 141 99
##END=
