##TITLE=N-Ethyl-N'-(3-diemthylaminopropyl)carbodiimide
##JCAMP-DX=4.24
##DATA TYPE=INFRARED SPECTRUM
##ORIGIN=EPA-IR VAPOR PHASE LIBRARY
##OWNER=SRD/NIST
Collection (C) 2018 copyright by the U.S. Secretary of Commerce
on behalf of the United States of America. All rights reserved.
##CAS REGISTRY NO=1892-57-5
##MOLFORM=C 8 H 17 N 3
##$NIST SOURCE=MSDC-IR
##STATE=gas
##XUNITS=1/CM
##YUNITS=ABSORBANCE
##XFACTOR=1.
##YFACTOR=0.001
##DELTAX=3.85796
##FIRSTX=501.5
##LASTX=4000.7
##FIRSTY=0.3142
##MAXX=4000.7
##MINX=501.534
##MAXY=0.489484
##MINY=0
##NPOINTS=908
##XYDATA=(X++(Y..Y))
501.534 0.3142 0.4676 0.5951 0.6884 0.7467 0.8711 1.0004 1.0089 0.877 0.912
540.114 0.8077 0.6621 0.6851 0.5792 0.5405 0.5701 0.6461 0.9034 1.1442 1.6242
578.693 2.2742 2.8742 3.6642 4.9042 6.6742 8.8042 11.4442 14.6042 17.5442 19.4142
617.273 19.9942 19.2542 17.3842 15.0042 12.6442 10.4342 8.3142 6.4642 5.0442 3.9242
655.852 3.0642 2.3642 1.8542 1.4742 1.2142 1.0034 0.849 0.7689 0.7105 0.6401
694.432 0.5898 0.5635 0.5503 0.5571 0.5588 0.5963 0.6431 0.788 0.9935 1.2142
733.011 1.5542 1.7942 1.9842 2.1742 2.2242 2.2642 2.3042 2.3742 2.4942 2.6842
771.591 2.9442 3.1942 3.5342 3.7342 3.8542 3.9742 3.9342 3.8042 3.7642 3.6842
810.170 3.6342 3.6142 3.5942 3.6942 3.7842 3.7842 3.7042 3.5842 3.4242 3.2442
848.750 3.0542 2.8842 2.8142 2.8542 2.9742 3.2042 3.4242 3.6042 3.7642 3.8242
887.330 3.8442 3.8842 3.9442 4.1042 4.3642 4.6642 4.8642 4.8742 4.8442 4.9742
925.909 5.1742 5.0742 4.6342 4.0142 3.2942 2.7142 2.4042 2.2642 2.3042 2.5142
964.489 2.7842 3.1542 3.5942 3.9142 4.2042 4.6342 5.0842 5.6742 6.5842 7.6542
1003.068 8.8942 10.2942 11.6642 12.9842 14.3742 15.7242 17.0042 18.5342 20.4142 22.0842
1041.648 23.0242 22.9742 22.0642 20.9242 20.0142 19.4042 19.0742 18.8342 18.4242 17.9242
1080.227 17.4342 16.8542 15.9042 14.4342 12.7042 11.1342 9.9642 9.0342 8.3442 7.8142
1118.807 7.4442 7.1542 7.0442 7.2342 7.6042 8.1742 8.9142 9.8742 10.8842 11.6542
1157.387 11.8742 11.6142 11.0642 10.2442 9.3042 8.3742 7.3142 6.2642 5.4342 4.8542
1195.966 4.5842 4.4942 4.4942 4.7942 5.3342 5.8442 6.1742 6.4142 6.6442 6.7042
1234.546 6.6042 6.6142 6.7842 7.2542 8.0242 9.0042 10.1542 11.2742 12.0842 12.1742
1273.125 11.7442 11.1842 10.6342 10.3642 10.4442 10.9142 11.7142 12.8742 14.4742 16.2042
1311.705 17.8342 19.7242 22.5542 27.4242 35.1042 44.4142 51.5142 52.9742 48.0842 38.6542
1350.284 28.9142 22.3742 18.7942 16.7242 15.5142 14.9942 14.8942 14.7842 14.3042 13.4342
1388.864 12.0942 10.5042 9.0742 7.9842 7.2542 6.8242 6.6342 6.6442 6.8842 7.3142
1427.443 7.9842 8.9742 10.3242 12.0342 13.9642 16.1542 18.5942 20.9542 22.8842 23.5342
1466.023 22.5442 20.1442 16.7742 13.4542 10.5642 8.2042 6.4742 5.2242 4.3342 3.6542
1504.603 3.1442 2.6742 2.3442 2.0942 1.8942 1.7042 1.5442 1.4242 1.3342 1.2442
1543.182 1.1342 1.0442 0.9757 0.9116 0.9057 0.8705 0.8324 0.8053 0.7784 0.7593
1581.762 0.747 0.7582 0.7225 0.7014 0.7024 0.6567 0.6502 0.6675 0.6446 0.6724
1620.341 0.6852 0.664 0.6779 0.6876 0.6852 0.6415 0.6369 0.643 0.6499 0.638
1658.921 0.622 0.612 0.5913 0.6042 0.5933 0.5782 0.5687 0.5415 0.5178 0.5391
1697.500 0.5736 0.5753 0.5695 0.5616 0.5731 0.6151 0.6055 0.5889 0.5799 0.575
1736.080 0.5662 0.5219 0.5104 0.5126 0.5082 0.503 0.4886 0.4766 0.4701 0.4785
1774.659 0.4817 0.4772 0.4798 0.4891 0.4934 0.4956 0.5067 0.5075 0.5109 0.5231
1813.239 0.5221 0.5271 0.5469 0.5419 0.5432 0.5623 0.5756 0.5945 0.6214 0.6378
1851.819 0.6613 0.6922 0.7005 0.7284 0.7621 0.7636 0.7788 0.8005 0.8255 0.8601
1890.398 0.878 0.8964 0.9137 0.9393 0.9642 0.9785 1.015 1.0742 1.1442 1.2242
1928.978 1.2742 1.3042 1.3342 1.3742 1.4142 1.4542 1.5042 1.5742 1.6642 1.7842
1967.557 1.8842 2.0042 2.1942 2.3942 2.6142 2.8442 3.1142 3.4642 3.8742 4.3942
2006.137 5.0442 5.8242 6.7842 7.9042 9.1842 10.5542 11.9342 13.2242 14.3542 15.2542
2044.716 15.9242 16.4442 16.8642 17.2542 17.7442 18.4542 19.4642 20.9342 23.0042 25.5442
2083.296 28.2842 31.1842 34.4542 38.5642 44.2742 52.3442 63.5942 79.2742 101.424 133.214
2121.875 179.184 244.804 332.174 426.894 489.484 488.764 425.674 321.074 219.094 146.764
2160.455 101.304 73.1542 55.4442 43.8142 35.7342 29.8442 25.3642 21.8842 19.1942 17.0642
2199.035 15.3642 14.0542 13.0342 12.2442 11.5842 11.0342 10.5942 10.2142 9.8942 9.6042
2237.614 9.3042 9.0142 8.7142 8.3842 8.0342 7.6542 7.2942 6.9642 6.7042 6.4642
2276.194 6.2342 6.0142 5.7742 5.5342 5.3142 5.0642 4.7942 4.5142 4.2342 3.9742
2314.773 3.7242 3.5442 3.3942 3.2342 3.1142 3.0042 2.8642 2.7342 2.6042 2.4742
2353.353 2.3442 2.1942 2.0542 1.9142 1.7842 1.7042 1.6542 1.5942 1.5742 1.5542
2391.932 1.5542 1.5542 1.5542 1.5642 1.5842 1.5942 1.6042 1.6542 1.6742 1.6742
2430.512 1.6742 1.6842 1.6742 1.6242 1.5742 1.5242 1.4542 1.3942 1.3342 1.2642
2469.092 1.2042 1.1742 1.1742 1.1842 1.1842 1.1942 1.2642 1.3042 1.3042 1.3042
2507.671 1.3042 1.3342 1.3242 1.2942 1.2842 1.2642 1.2642 1.2542 1.2142 1.2142
2546.251 1.2042 1.1742 1.1342 1.1042 1.0942 1.0942 1.1042 1.0942 1.1142 1.1342
2584.830 1.1442 1.1742 1.2142 1.2342 1.2242 1.2442 1.2642 1.3142 1.3342 1.3342
2623.410 1.4042 1.4442 1.4542 1.5342 1.6442 1.7242 1.8042 1.9442 2.1342 2.3442
2661.989 2.5442 2.7442 2.9342 3.1342 3.2942 3.4142 3.5442 3.7042 3.9742 4.3642
2700.569 4.7942 5.3142 5.9142 6.5842 7.3342 8.0942 8.8242 9.5542 10.2842 11.0242
2739.148 11.8442 12.8442 14.1942 15.9942 18.5242 22.0142 26.6042 32.2042 37.7342 41.6842
2777.728 43.1642 42.1742 39.8342 37.5442 35.7042 33.9842 32.2142 30.6242 29.5742 29.4442
2816.308 30.1042 30.8942 30.8242 29.3942 26.8542 24.0242 21.8942 20.8142 20.6742 21.3842
2854.887 22.9342 25.1242 27.6842 30.2542 32.5042 34.2242 35.3942 36.0042 35.9942 35.5442
2893.467 34.9442 34.4442 34.2442 34.4042 34.9442 35.9242 37.4742 39.6642 42.5942 46.1742
2932.046 50.3442 54.9942 59.5542 63.4942 66.4142 67.7142 66.9642 64.5542 61.4642 59.0042
2970.626 58.1642 58.2242 56.5942 51.9042 44.1842 35.0242 27.0242 21.1642 17.0242 13.9942
3009.205 11.7042 9.8542 8.3642 7.1342 6.1342 5.3542 4.7542 4.2542 3.8442 3.5642
3047.785 3.3442 3.1542 3.0142 2.9142 2.7642 2.6142 2.5042 2.3442 2.2042 2.0842
3086.364 1.9842 1.8742 1.7642 1.7442 1.7142 1.6442 1.6242 1.6242 1.5642 1.4742
3124.944 1.4842 1.4242 1.3142 1.2642 1.1942 1.1842 1.1642 1.1142 1.0442 0.9985
3163.524 0.9149 0.8344 0.8593 0.8514 0.7788 0.7602 0.7727 0.7415 0.7176 0.6702
3202.103 0.6426 0.5981 0.5524 0.5475 0.5198 0.4885 0.4217 0.3566 0.3419 0.3283
3240.683 0.2938 0.2393 0.1819 0.12701 0.08216 0.07901 0.0343714 0.0207 0.07106 0.07834
3279.262 0.05921 0.0067 0 0.04018 0.05426 0.038445 0.0322 0.0148 0.013 0.04602
3317.842 0.07084 0.04575 0.02888 0.040727 0.05991 0.0639 0.03248 0.08284 0.10687 0.07755
3356.421 0.09454 0.11772 0.10572 0.08833 0.11371 0.2038 0.2416 0.2894 0.3379 0.3182
3395.001 0.3237 0.2969 0.2848 0.3193 0.3583 0.3935 0.4231 0.4204 0.4686 0.5108
3433.580 0.5392 0.5825 0.6025 0.6233 0.7044 0.8333 0.9117 0.906 0.8806 0.9235
3472.160 0.9778 1.0442 1.1042 1.1642 1.2042 1.2242 1.3042 1.4342 1.5642 1.7342
3510.740 1.8642 2.0142 2.2142 2.5042 2.7942 3.0342 3.2742 3.4642 3.5542 3.4842
3549.319 3.2642 2.9042 2.5342 2.2342 1.9342 1.5842 1.2942 1.1042 0.9654 0.8489
3587.899 0.772 0.6937 0.6746 0.6911 0.6787 0.6432 0.6075 0.5788 0.5146 0.453
3626.478 0.4124 0.3927 0.3524 0.3317 0.2862 0.249 0.2739 0.2609 0.2284 0.1908
3665.058 0.1838 0.1645 0.1778 0.1933 0.1404 0.12793 0.1868 0.1562 0.09514 0.098
3703.637 0.04996 0.05952 0.05073 0.0099 0.05482 0.07457 0.10459 0.146 0.09961 0.03221
3742.217 0.08554 0.1408 0.13029 0.0863 0.041319 0.04265 0.0117 0.0156 0.05578 0.05694
3780.797 0.08959 0.11592 0.1127 0.10998 0.07198 0.04689 0.11138 0.1719 0.13128 0.1507
3819.376 0.1827 0.1578 0.1647 0.1172 0.10241 0.12721 0.1495 0.1457 0.1367 0.1728
3857.956 0.11315 0.11119 0.151 0.1474 0.1612 0.169 0.12251 0.09856 0.1539 0.1406
3896.535 0.0927 0.06123 0.05176 0.10826 0.11386 0.11699 0.1493 0.2108 0.2471 0.2302
3935.115 0.2524 0.2473 0.2613 0.217 0.1906 0.2598 0.3027 0.3441 0.4022 0.3846
3973.694 0.2996 0.2499 0.3097 0.3428 0.304 0.2565 0.2989 0.383
##END=
