##TITLE=Methyl 2-hexynoate
##JCAMP-DX=4.24
##DATA TYPE=INFRARED SPECTRUM
##ORIGIN=EPA-IR VAPOR PHASE LIBRARY
##OWNER=SRD/NIST
Collection (C) 2018 copyright by the U.S. Secretary of Commerce
on behalf of the United States of America. All rights reserved.
##CAS REGISTRY NO=18937-79-6
##MOLFORM=C 7 H 10 O 2
##$NIST SOURCE=MSDC-IR
##STATE=gas
##XUNITS=1/CM
##YUNITS=ABSORBANCE
##XFACTOR=1.
##YFACTOR=0.001
##DELTAX=1.92934
##FIRSTX=549.9
##LASTX=3999.5
##FIRSTY=3.26
##MAXX=3999.53
##MINX=549.863
##MAXY=0.34799
##MINY=0
##NPOINTS=1789
##XYDATA=(X++(Y..Y))
549.863 3.26 3.23 3.14 3.05 3.21 3.26 3.22 3.25 3.16 3.17
569.156 3.25 3.17 3.01 3.1 3.1 2.9396 2.8854 2.8977 2.9321 2.8053
588.450 2.4628 2.243 2.2847 2.3769 2.2654 2.04821 1.9697 1.9449 1.9724 2.0412
607.743 1.9592 1.9525 2.00109 1.9168 1.898 1.828 1.825 1.9534 1.99382 1.99068
627.037 1.9556 1.9348 1.9831 2.0191 1.9408 1.885 1.9232 1.9734 1.955 1.871
646.330 1.918 1.9646 2.0065 2.04447 1.9481 1.9845 2.00923 1.895 1.9167 1.9405
665.624 1.887 1.876 1.867 1.881 1.9291 1.9416 1.9054 1.9621 1.9823 1.9609
684.917 1.9539 1.9 1.838 1.861 1.873 1.847 1.809 1.76 1.782 1.808
704.210 1.864 1.89 1.9266 1.9426 2.02054 2.1927 2.2774 2.442 2.6592 2.886
723.504 3.2 3.48 3.83 4.33 4.85 5.38 5.92 6.52 7.13 7.79
742.797 8.42 9.08 9.88 10.73 11.7 12.74 13.59 14.11 14.44 14.72
762.091 14.92 14.98 14.83 14.39 13.68 12.7 11.59 10.39 9.17 8.05
781.384 7.16 6.45 5.86 5.46 5.2 5.06 5.07 5.13 5.24 5.43
800.678 5.69 6.03 6.46 6.88 7.28 7.5 7.49 7.41 7.3 7.14
819.971 6.82 6.39 5.98 5.56 5.17 4.82 4.63 4.5 4.38 4.24
839.264 4.06 3.95 3.86 3.78 3.7 3.59 3.52 3.41 3.3 3.28
858.558 3.26 3.23 3.14 3.13 3.17 3.18 3.18 3.16 3.14 3.17
877.851 3.15 3.06 2.9803 2.9321 2.906 2.85 2.7977 2.7368 2.6681 2.5697
897.145 2.5177 2.5135 2.502 2.4139 2.3229 2.3367 2.3835 2.4128 2.476 2.5512
916.438 2.6515 2.7873 2.9399 3.1 3.23 3.46 3.72 3.98 4.18 4.33
935.732 4.59 4.76 4.9 5.05 5.13 5.21 5.23 5.23 5.18 5.11
955.025 5.03 4.86 4.69 4.56 4.38 4.19 4.01 3.82 3.66 3.51
974.318 3.37 3.24 3.11 2.978 2.8991 2.8465 2.822 2.8324 2.8186 2.8085
993.612 2.8291 2.8805 2.9314 3.04 3.16 3.29 3.45 3.72 4.06 4.48
1012.905 4.98 5.5 6.09 6.73 7.41 8.08 8.62 9.03 9.42 9.68
1032.199 9.86 10.04 10.06 10.06 10.14 10.38 10.82 11.49 12.4 13.65
1051.492 15.25 17.22 19.61 22.47 25.87 29.66 33.78 38.24 43.01 48.15
1070.786 53.48 58.68 63.53 67.54 70.38 71.68 70.86 67.96 63.57 58.41
1090.079 52.78 46.58 39.9 33.33 27.76 23.51 20.38 18.04 16.21 14.74
1109.372 13.49 12.42 11.45 10.63 10 9.51 9.06 8.67 8.36 8.08
1128.666 7.83 7.63 7.49 7.35 7.18 7.12 7.09 7.04 7.03 7.06
1147.959 7.1 7.17 7.28 7.43 7.57 7.7 7.85 8.05 8.29 8.43
1167.253 8.59 8.84 9.14 9.43 9.68 9.98 10.33 10.75 11.28 11.88
1186.546 12.49 13.15 13.77 14.54 15.47 16.44 17.61 19.06 20.79 22.87
1205.840 25.28 28.13 31.73 36.11 41.43 47.82 55.35 64.04 73.83 84.89
1225.133 97.57 112.44 129.9 149.86 172.23 196.76 223.24 250.94 278.46 303.96
1244.426 325.38 340.69 347.99 346.86 337.48 320.49 297.13 269.01 237.88 205.71
1263.720 175.04 148.01 125.48 107.44 93.52 82.8 74.21 66.74 60.02 54.27
1283.013 49.28 44.46 39.49 34.7 30.62 27.39 24.81 22.75 21.1 19.74
1302.307 18.6 17.7 16.96 16.38 15.99 15.82 15.85 16.13 16.73 17.66
1321.600 18.79 19.95 20.78 21.13 21.21 21.15 21.03 20.64 19.65 18.1
1340.894 16.29 14.65 13.37 12.29 11.2 10 8.91 8.05 7.44 7.08
1360.187 6.8 6.57 6.44 6.33 6.28 6.37 6.49 6.54 6.73 6.98
1379.480 7.21 7.43 7.62 7.81 7.92 7.95 7.94 7.96 7.94 7.83
1398.774 7.76 7.72 7.7 7.82 7.98 8.11 8.28 8.47 8.71 9.09
1418.067 9.66 10.51 11.72 13.65 16.54 20.54 25.57 30.67 34.51 36.28
1437.361 36.78 37.05 37.17 35.08 29.56 23.24 18.58 16.01 14.69 13.97
1456.654 13.48 13.09 12.8 12.48 12.09 11.67 11.28 10.86 10.41 9.92
1475.948 9.36 8.82 8.36 8.01 7.68 7.28 6.96 6.68 6.39 6.17
1495.241 6.05 5.92 5.76 5.59 5.43 5.28 5.12 4.95 4.77 4.62
1514.534 4.48 4.34 4.19 4.05 3.97 3.92 3.8 3.68 3.63 3.57
1533.828 3.51 3.48 3.45 3.4 3.36 3.32 3.33 3.36 3.4 3.39
1553.121 3.36 3.37 3.35 3.36 3.38 3.36 3.33 3.35 3.36 3.36
1572.415 3.36 3.38 3.4 3.35 3.38 3.4 3.41 3.4 3.34 3.33
1591.708 3.34 3.33 3.29 3.29 3.24 3.13 3.11 3.16 3.18 3.17
1611.002 3.18 3.12 3.07 3.11 3.15 3.17 3.16 3.17 3.24 3.3
1630.295 3.32 3.28 3.28 3.31 3.35 3.46 3.51 3.49 3.59 3.73
1649.588 3.81 3.94 4.11 4.25 4.38 4.57 4.75 4.97 5.19 5.39
1668.882 5.69 5.97 6.22 6.5 6.81 7.13 7.49 7.87 8.27 8.78
1688.175 9.41 10.12 10.96 12.02 13.36 14.96 16.94 19.41 22.2 25.55
1707.469 29.43 33.97 39.17 45.04 51.6 58.96 67.22 76.26 86.68 98.75
1726.762 112.7 128.15 143.73 156.49 164.23 166.54 166.4 166.82 167.44 164.28
1746.056 152.76 134.64 116.17 100.69 88.54 78.49 69.41 61.05 53.02 45.42
1765.349 38.55 32.35 26.91 22.37 18.48 15.33 12.77 10.75 9.25 8.08
1784.642 7.16 6.5 5.97 5.57 5.24 4.9 4.65 4.45 4.21 4
1803.936 3.81 3.64 3.48 3.36 3.22 3.06 2.9494 2.8461 2.7265 2.6555
1823.229 2.5596 2.4459 2.3822 2.2994 2.2398 2.199 2.1519 2.1145 2.06231 1.99333
1842.523 1.9625 1.9623 1.9558 1.9369 1.9028 1.9067 1.9155 1.884 1.846 1.849
1861.816 1.863 1.881 1.9201 1.9345 1.899 1.891 1.954 1.9697 1.9641 1.982
1881.110 1.9797 1.9636 1.9611 1.9841 2.01844 2.0337 1.9821 1.9692 2.01237 2.01227
1900.403 1.99069 1.9696 1.9362 1.9082 1.879 1.845 1.827 1.794 1.737 1.68
1919.696 1.654 1.645 1.603 1.581 1.59 1.582 1.586 1.587 1.582 1.589
1938.990 1.603 1.599 1.631 1.675 1.685 1.739 1.799 1.828 1.89 1.9507
1958.283 1.9851 2.02133 2.06591 2.1004 2.09222 2.06033 2.05383 2.08784 2.1095 2.06799
1977.577 1.99615 1.9788 1.9851 1.9691 1.9467 1.9376 1.9831 2.01667 2.00891 2.07676
1996.870 2.1598 2.1975 2.2392 2.3152 2.4105 2.5034 2.559 2.6109 2.7064 2.7617
2016.164 2.7808 2.805 2.8401 2.8449 2.8034 2.8314 2.8482 2.7996 2.7435 2.663
2035.457 2.6009 2.5478 2.5017 2.4847 2.4439 2.3779 2.3329 2.333 2.3493 2.356
2054.750 2.3475 2.3538 2.359 2.3706 2.3649 2.3034 2.2451 2.2063 2.1719 2.1328
2074.044 2.06085 1.9721 1.894 1.851 1.822 1.784 1.744 1.71 1.681 1.622
2093.337 1.597 1.559 1.558 1.554 1.503 1.506 1.533 1.525 1.498 1.473
2112.631 1.479 1.46 1.447 1.49 1.523 1.534 1.569 1.641 1.65 1.657
2131.924 1.729 1.77 1.809 1.894 1.9886 2.06887 2.1227 2.1833 2.2914 2.3501
2151.218 2.3823 2.4841 2.5662 2.6508 2.7755 2.9383 3.1 3.21 3.37 3.58
2170.511 3.81 4.05 4.3 4.57 4.89 5.27 5.67 6.11 6.59 7.12
2189.804 7.67 8.27 9.01 9.83 10.74 11.77 12.98 14.39 16.05 18
2209.098 20.27 22.9 25.92 29.3 33.09 37.25 41.62 46.07 50.46 54.58
2228.391 58.24 61.15 63.11 63.92 63.44 61.7 58.78 54.77 49.86 44.37
2247.685 38.67 33.02 27.75 23.11 19.26 16.22 13.9 12.25 11.04 10.2
2266.978 9.67 9.27 8.91 8.6 8.32 8.02 7.69 7.33 6.93 6.58
2286.272 6.28 5.96 5.65 5.37 5.18 5.03 4.89 4.8 4.73 4.67
2305.565 4.64 4.64 4.69 4.75 4.74 4.75 4.76 4.74 4.72 4.67
2324.858 4.59 4.5 4.38 4.22 4.04 3.87 3.68 3.48 3.28 3.05
2344.152 2.8587 2.7171 2.6429 2.5552 2.3913 2.2656 2.2192 2.193 2.118 2.03066
2363.445 1.9455 1.9187 1.915 1.85 1.807 1.804 1.787 1.8 1.755 1.715
2382.739 1.73 1.698 1.67 1.642 1.6 1.587 1.58 1.544 1.499 1.454
2402.032 1.423 1.459 1.526 1.524 1.507 1.543 1.549 1.538 1.516 1.502
2421.326 1.485 1.452 1.459 1.44 1.435 1.484 1.507 1.512 1.497 1.485
2440.619 1.486 1.493 1.505 1.487 1.501 1.521 1.488 1.457 1.44 1.422
2459.912 1.426 1.439 1.441 1.472 1.487 1.465 1.463 1.463 1.507 1.572
2479.206 1.57 1.569 1.549 1.529 1.556 1.523 1.516 1.558 1.557 1.522
2498.499 1.495 1.482 1.484 1.449 1.416 1.375 1.327 1.329 1.288 1.245
2517.793 1.221 1.205 1.221 1.232 1.219 1.188 1.193 1.216 1.147 1.104
2537.086 1.126 1.147 1.136 1.132 1.16 1.187 1.216 1.168 1.15 1.159
2556.380 1.111 1.129 1.13 1.095 1.06 1.014 1.026 1.042 1.032 1.011
2575.673 1.005 1.073 1.091 1.058 1 0.97 1.031 1.041 1.033 1.012
2594.966 0.99 0.99 1.02 0.98 0.93 0.95 0.92 0.88 0.88 0.92
2614.260 0.94 0.92 0.93 0.97 0.94 0.9 0.96 1.006 1.037 1.058
2633.553 1.054 1.112 1.135 1.086 1.173 1.263 1.277 1.281 1.32 1.349
2652.847 1.341 1.375 1.413 1.388 1.359 1.413 1.395 1.342 1.353 1.412
2672.140 1.397 1.353 1.378 1.383 1.334 1.268 1.261 1.288 1.244 1.127
2691.434 1.08 1.11 1.081 1.03 1.029 1.012 0.99 0.94 0.9 0.93
2710.727 0.99 0.99 0.89 0.85 0.88 0.9 0.84 0.85 0.91 0.86
2730.020 0.88 0.99 0.96 0.87 0.92 0.98 0.99 1.024 1.08 1.085
2749.314 1.055 1.066 1.094 1.125 1.222 1.244 1.249 1.269 1.182 1.123
2768.607 1.135 1.143 1.14 1.162 1.162 1.124 1.171 1.248 1.27 1.276
2787.901 1.281 1.302 1.394 1.472 1.499 1.504 1.573 1.58 1.577 1.764
2807.194 1.85 1.9332 2.1114 2.1744 2.2868 2.4638 2.5641 2.7406 2.9461 3.17
2826.488 3.39 3.63 3.98 4.37 4.74 5.18 5.78 6.6 7.39 7.94
2845.781 8.39 8.64 8.74 8.86 8.84 8.55 8.15 7.85 7.6 7.64
2865.074 7.97 8.41 9.04 9.97 11.12 12.41 13.82 15.12 16.22 17.15
2884.368 17.88 18.29 18.54 18.53 18.13 17.63 17.27 17.03 16.83 16.77
2903.661 16.87 17.15 17.58 18.08 18.62 19.24 19.83 20.34 20.82 21.31
2922.955 21.98 22.65 23.38 24.35 25.64 27.48 29.77 32.47 35.45 38.39
2942.248 41.19 43.75 46.01 48.15 50.36 52.72 55.01 56.87 57.8 57.6
2961.542 57.12 56.82 56.37 55.57 54 51.97 50.15 48.59 46.92 44.93
2980.835 42.96 41.21 39.06 36.12 32.44 28.5 25.08 22.47 20.46 18.89
3000.128 17.46 16.18 15.14 14.22 13.29 12.43 11.69 11.04 10.57 10.19
3019.422 9.85 9.48 9.25 9.09 8.78 8.45 8.22 7.96 7.6 7.36
3038.715 7.06 6.67 6.51 6.19 5.71 5.35 5.12 4.95 4.63 4.31
3058.009 3.96 3.55 3.24 3.07 2.9163 2.8901 2.9411 2.8183 2.7481 2.7212
3077.302 2.4999 2.4458 2.5974 2.5529 2.4488 2.3159 2.3495 2.4247 2.3351 2.2369
3096.596 2.07508 1.99289 1.99874 1.9886 1.9405 1.842 1.824 1.729 1.719 1.715
3115.889 1.718 1.673 1.567 1.584 1.525 1.418 1.382 1.353 1.223 1.141
3135.182 1.108 0.96 0.86 0.96 1 0.95 0.94 0.84 0.78 0.83
3154.476 0.81 0.83 0.94 0.95 0.84 0.86 0.9 0.79 0.77 0.81
3173.769 0.76 0.65 0.61 0.68 0.73 0.73 0.82 0.83 0.69 0.57
3193.063 0.54 0.65 0.64 0.57 0.55 0.56 0.53 0.51 0.39 0.23
3212.356 0.36 0.41 0.32 0.33 0.36 0.32 0.34 0.35 0.29 0.15
3231.650 0 0.15 0.36 0.39 0.32 0.3 0.24 0.09 0.19 0.37
3250.943 0.44 0.34 0.14 0.21 0.32 0.29 0.23 0.25 0.22 0.15
3270.236 0.25 0.32 0.26 0.31 0.4 0.36 0.3 0.2 0.29 0.44
3289.530 0.39 0.42 0.49 0.59 0.61 0.57 0.47 0.35 0.41 0.43
3308.823 0.45 0.54 0.56 0.61 0.6 0.51 0.61 0.73 0.64 0.55
3328.117 0.54 0.57 0.54 0.45 0.49 0.45 0.28 0.28 0.46 0.58
3347.410 0.54 0.52 0.6 0.55 0.37 0.41 0.44 0.4 0.48 0.55
3366.704 0.57 0.6 0.55 0.54 0.59 0.52 0.57 0.63 0.59 0.56
3385.997 0.55 0.57 0.61 0.65 0.56 0.55 0.57 0.63 0.65 0.62
3405.290 0.67 0.68 0.64 0.68 0.75 0.81 0.93 0.96 0.97 1.047
3424.584 1.173 1.249 1.255 1.256 1.341 1.471 1.497 1.621 1.749 1.819
3443.877 1.9786 2.1636 2.2538 2.3787 2.596 2.6666 2.6928 2.7604 2.7923 2.6911
3463.171 2.6018 2.4945 2.4516 2.4555 2.3192 2.2743 2.1839 2.09323 1.832 1.587
3482.464 1.613 1.558 1.481 1.497 1.332 1.145 1.242 1.103 0.95 1.064
3501.758 1.088 1.058 1 0.97 0.99 0.95 0.92 0.92 0.95 0.95
3521.051 0.97 1.103 0.98 0.91 0.95 0.89 0.92 0.84 0.89 0.91
3540.344 0.81 0.82 0.86 0.91 0.85 0.85 0.79 0.75 0.82 0.81
3559.638 0.86 0.76 0.69 0.75 0.8 0.87 0.86 0.77 0.8 0.88
3578.931 0.82 0.77 0.78 0.78 0.74 0.74 0.72 0.71 0.76 0.8
3598.225 0.84 0.85 0.87 0.82 0.91 0.93 0.84 0.85 0.88 0.95
3617.518 0.9 0.82 0.84 0.82 0.83 0.87 0.82 0.73 0.76 0.88
3636.812 0.93 0.96 0.94 0.89 0.92 0.94 0.88 0.79 0.87 0.98
3656.105 0.92 0.87 0.87 0.94 0.92 0.88 0.91 0.89 0.87 0.88
3675.398 0.85 0.83 0.91 1.035 1.039 1.028 0.91 0.87 0.99 1.049
3694.692 1.035 0.95 0.91 0.9 0.82 0.82 0.86 0.87 0.99 1.012
3713.985 0.95 0.89 0.98 1.039 1.012 1.014 1.009 0.95 0.88 0.96
3733.279 0.97 1.022 1.035 0.98 1.05 1.139 1.1 1.067 1.124 1.065
3752.572 1.006 1.019 1.003 1.031 1.02 0.94 0.95 1.019 1.081 1.096
3771.866 1.06 1.012 1.055 1.11 1.199 1.235 1.113 1 1.063 1.157
3791.159 1.134 1.115 1.074 1.074 1.06 1.063 1.036 1.01 0.99 1.029
3810.452 1.062 0.98 1.045 1.096 1.055 1.086 1.045 0.98 1.025 1.058
3829.746 1.044 1.009 1.008 0.99 1.013 1.009 0.93 0.95 0.95 0.91
3849.039 0.96 1.042 1.05 1.063 1.023 1.004 1.058 1.04 1.033 0.98
3868.333 0.97 1.08 1.09 1.023 1.002 0.95 0.91 0.96 0.93 0.89
3887.626 0.9 0.97 1.077 1.096 1.1 1.099 1.078 1.067 1.122 1.182
3906.920 1.106 1.059 1.043 1.03 1.082 1.091 1.063 1.078 1.099 1.061
3926.213 1.099 1.123 1.132 1.148 1.169 1.166 1.128 1.134 1.076 1.089
3945.506 1.126 1.209 1.268 1.167 1.187 1.235 1.247 1.268 1.194 1.16
3964.800 1.229 1.299 1.255 1.189 1.179 1.189 1.235 1.262 1.22 1.197
3984.093 1.203 1.232 1.302 1.345 1.262 1.138 1.163 1.231 1.29
##END=
