##TITLE=Methyl-2-heptynoate
##JCAMP-DX=4.24
##DATA TYPE=INFRARED SPECTRUM
##ORIGIN=NIST Mass Spectrometry Data Center
##OWNER=NIST Standard Reference Data Program
Collection (C) 2018 copyright by the U.S. Secretary of Commerce
on behalf of the United States of America. All rights reserved.
##CAS REGISTRY NO=18937-78-5
##MOLFORM=C 8 H 12 O 2
##$NIST SOURCE=MSDC-IR
##SPECTROMETER/DATA SYSTEM=HP-GC/MS/IRD
##STATE=gas
##XUNITS=1/CM
##YUNITS=ABSORBANCE
##XFACTOR=1.0
##YFACTOR=0.000008400
##DELTAX=4.0
##FIRSTX=550.0
##LASTX=3846.0
##FIRSTY=0.000470
##MAXX=3846
##MINX=550
##MAXY=0.084
##MINY=0
##NPOINTS=825
##XYDATA=(X++(Y..Y))
550.0 56 54 52 52 48 35 33 44 48 37
590.0 23 17 12 9 8 6 7 4 3 6
630.0 5 11 17 17 9 5 1 0 2 8
670.0 9 11 14 15 13 10 12 14 22 26
710.0 30 37 46 63 86 125 182 237 280 314
750.0 341 349 335 312 294 270 236 206 187 176
790.0 177 188 204 208 199 189 173 142 112 95
830.0 80 69 66 62 61 62 65 70 75 76
870.0 80 80 72 63 56 51 50 48 47 47
910.0 53 59 69 82 94 104 112 119 120 117
950.0 109 99 89 82 77 71 67 63 60 60
990.0 63 67 69 72 75 82 91 109 139 180
1030.0 238 323 421 517 605 685 769 881 1065 1331
1070.0 1639 1876 1916 1737 1425 1104 869 710 576 467
1110.0 390 332 284 248 225 211 202 198 202 209
1150.0 213 223 236 248 261 277 294 313 341 382
1190.0 435 499 582 692 840 1041 1314 1689 2213 2955
1230.0 3980 5328 6945 8552 9698 10000 9329 7867 6055 4379
1270.0 3116 2275 1721 1351 1101 931 814 726 661 612
1310.0 581 577 597 625 625 574 494 408 343 303
1350.0 281 271 259 247 234 219 210 207 209 213
1390.0 213 202 194 198 208 222 246 282 354 508
1430.0 782 1042 1146 1053 766 535 459 429 408 383
1470.0 353 314 275 237 205 178 158 144 136 127
1510.0 117 106 99 91 84 80 75 71 68 65
1550.0 62 62 64 65 63 62 62 62 63 64
1590.0 63 62 64 63 59 60 59 60 60 62
1630.0 65 70 72 73 75 79 83 90 101 113
1670.0 131 152 179 212 261 319 395 495 632 826
1710.0 1094 1444 1884 2418 3099 3959 4711 5028 4917 4264
1750.0 3305 2557 1998 1505 1081 750 509 351 252 190
1790.0 149 121 102 87 73 63 56 48 43 39
1830.0 35 32 31 27 25 25 23 22 22 20
1870.0 21 22 22 21 20 19 20 20 18 17
1910.0 15 13 12 11 12 12 11 12 13 13
1950.0 14 14 14 15 17 20 21 23 26 29
1990.0 30 33 36 38 41 43 44 43 45 47
2030.0 45 45 47 46 45 44 43 40 36 34
2070.0 30 25 21 17 14 12 11 11 10 9
2110.0 12 15 17 17 18 21 22 24 26 28
2150.0 33 40 47 56 68 83 100 121 146 176
2190.0 212 256 314 390 493 638 837 1094 1391 1688
2230.0 1917 2009 1920 1658 1292 917 620 428 319 258
2270.0 220 191 169 152 143 138 135 134 134 130
2310.0 125 123 122 117 109 97 86 74 62 50
2350.0 40 34 32 32 32 27 24 23 19 17
2390.0 15 14 16 17 18 17 12 11 11 13
2430.0 14 13 14 16 13 11 10 11 11 9
2470.0 11 15 14 15 15 13 11 11 10 7
2510.0 5 4 4 1 0 2 3 2 3 1
2550.0 4 4 2 1 1 2 3 3 4 6
2590.0 7 6 7 8 8 5 4 4 3 5
2630.0 8 10 13 15 12 13 17 20 20 17
2670.0 19 19 20 22 20 16 16 15 14 12
2710.0 9 7 8 12 15 17 19 19 21 23
2750.0 24 24 23 25 23 23 25 25 26 29
2790.0 34 40 46 51 59 66 77 88 100 116
2830.0 138 164 203 255 303 339 363 384 430 506
2870.0 586 653 701 719 713 695 665 639 639 664
2910.0 707 774 864 975 1114 1291 1501 1722 1900 1988
2950.0 2020 2084 2176 2219 2169 1973 1669 1369 1081 841
2990.0 673 556 476 423 389 364 340 323 307 288
3030.0 269 247 223 199 172 149 132 115 102 93
3070.0 86 83 81 79 75 74 72 67 63 57
3110.0 53 49 43 39 37 33 31 30 31 34
3150.0 32 26 24 25 28 28 25 23 24 20
3190.0 16 19 14 11 13 10 12 12 8 9
3230.0 8 7 3 3 2 1 0 2 2 1
3270.0 3 3 5 7 8 5 6 8 5 5
3310.0 7 8 8 5 5 6 6 8 7 6
3350.0 6 5 4 3 4 6 6 4 4 5
3390.0 7 5 6 8 8 6 11 14 17 20
3430.0 24 31 36 43 56 64 69 70 69 64
3470.0 57 51 43 34 26 29 29 22 20 18
3510.0 16 13 9 7 7 9 7 10 7 5
3550.0 6 4 6 7 3 0 3 5 4 2
3590.0 3 4 3 4 6 5 7 9 8 8
3630.0 5 0 2 6 3 1 2 5 3 1
3670.0 4 4 6 6 5 5 3 0 0 3
3710.0 5 5 7 6 1 6 7 5 7 9
3750.0 10 8 6 6 8 7 6 5 3 3
3790.0 4 5 7 13 12 9 10 10 8 8
3830.0 9 7 4 7 13
##END=
