##TITLE=Phenothiazine-10-carbonylchloride
##JCAMP-DX=4.24
##DATA TYPE=INFRARED SPECTRUM
##ORIGIN=EPA-IR VAPOR PHASE LIBRARY
##OWNER=SRD/NIST
Collection (C) 2018 copyright by the U.S. Secretary of Commerce
on behalf of the United States of America. All rights reserved.
##CAS REGISTRY NO=18956-87-1
##MOLFORM=C 13 H 8 Cl N O S
##$NIST SOURCE=MSDC-IR
##STATE=gas
##XUNITS=1/CM
##YUNITS=ABSORBANCE
##XFACTOR=1.
##YFACTOR=0.001
##DELTAX=1.92898
##FIRSTX=549.8
##LASTX=4000.7
##FIRSTY=6.962
##MAXX=4000.7
##MINX=549.759
##MAXY=0.310052
##MINY=0
##NPOINTS=1790
##XYDATA=(X++(Y..Y))
549.759 6.962 6.542 5.682 4.712 3.992 3.242 2.432 1.702 1.442 1.2661
569.049 1.0869 1.0167 0.9703 0.9202 0.7846 0.9451 0.9481 1.1349 1.402 1.3567
588.339 1.392 1.412 1.542 1.992 2.752 3.512 3.962 4.732 5.922 7.332
607.628 9.322 12.662 17.532 23.412 28.702 32.152 33.652 31.652 27.262 21.332
626.918 14.542 9.172 5.962 4.392 3.712 3.262 3.112 3.122 2.992 3.212
646.208 3.752 4.902 6.642 8.812 11.942 16.212 21.012 24.452 26.542 27.512
665.498 26.242 23.432 19.652 15.502 11.792 9.292 7.892 7.362 7.452 7.892
684.787 8.652 9.562 10.402 10.942 11.132 11.162 11.112 12.072 14.992 19.912
704.077 25.862 31.002 34.992 36.652 35.092 31.702 26.732 22.042 20.052 20.682
723.367 23.032 26.372 29.522 30.932 30.582 29.452 27.522 25.532 25.792 28.552
742.657 33.862 42.002 53.162 66.452 78.142 89.152 104.092 106.482 86.282 67.852
761.947 54.882 39.502 25.522 15.912 10.682 7.942 6.272 5.192 4.712 4.452
781.236 4.132 3.762 3.582 3.622 3.612 3.572 3.802 4.022 4.522 5.382
800.526 6.322 7.552 9.312 11.772 14.962 19.522 26.182 35.082 45.732 56.372
819.816 64.962 70.492 71.722 67.722 59.822 49.382 38.332 29.112 22.272 17.402
839.106 13.802 10.982 8.912 7.592 7.042 7.322 8.742 11.252 13.802 15.512
858.395 16.352 16.132 14.762 12.522 9.782 7.292 5.822 4.952 4.342 4.142
877.685 4.052 3.922 3.662 3.532 3.552 3.322 3.142 3.022 2.762 2.572
896.975 2.542 2.352 2.482 2.522 2.482 2.672 2.592 2.582 2.622 2.672
916.265 2.662 2.662 2.792 3.062 3.702 4.582 5.472 6.482 7.452 8.272
935.555 8.842 8.832 8.382 7.962 8.042 9.112 11.562 15.642 21.292 27.192
954.844 31.742 34.122 33.882 30.952 26.062 19.722 13.552 9.012 6.252 4.862
974.134 4.222 3.762 3.162 2.822 2.632 2.442 2.372 2.212 2.102 2.162
993.424 2.032 2.002 2.122 2.252 2.472 2.702 2.952 3.212 3.462 3.582
1012.714 3.952 4.552 5.102 5.692 6.592 8.242 10.472 12.962 15.062 16.132
1032.003 16.092 14.842 13.062 10.572 7.692 5.902 4.842 4.502 4.702 4.552
1051.293 4.732 5.702 7.132 8.822 10.902 13.382 16.132 18.952 21.042 22.312
1070.583 23.322 23.362 21.982 19.622 16.772 14.052 11.892 10.322 9.472 9.282
1089.873 9.542 9.872 10.102 10.372 10.622 11.332 12.582 14.162 16.012 18.202
1109.163 21.142 25.002 30.052 36.722 45.322 55.062 65.092 73.562 77.672 76.792
1128.452 71.422 62.502 51.632 41.412 34.432 32.772 36.312 44.062 55.112 66.752
1147.742 76.342 81.992 83.382 81.072 75.122 65.942 55.932 46.612 38.752 32.332
1167.032 25.962 19.822 15.102 12.052 9.772 8.302 7.812 7.372 6.872 6.432
1186.322 6.252 6.422 6.582 6.802 7.092 7.192 7.652 8.422 8.772 9.352
1205.611 9.982 10.672 11.182 11.302 12.002 13.272 14.902 17.362 20.732 24.852
1224.901 30.412 37.712 46.032 54.792 62.392 67.902 71.502 73.302 74.482 76.132
1244.191 80.192 88.442 100.362 113.892 126.942 136.692 140.762 138.122 129.502 117.312
1263.481 103.202 89.802 79.302 72.492 68.702 66.432 64.402 61.852 59.112 56.492
1282.771 54.682 54.012 54.302 54.872 54.842 53.972 52.172 49.562 46.422 43.162
1302.060 40.322 37.922 35.542 32.922 29.992 27.112 24.622 22.652 21.232 20.222
1321.350 19.422 18.452 17.242 15.892 14.482 13.132 11.852 10.652 9.612 8.772
1340.640 8.102 7.612 7.252 6.942 6.642 6.322 6.042 5.762 5.462 5.232
1359.930 4.942 4.772 4.752 4.742 4.792 4.922 5.062 5.242 5.512 5.682
1379.219 5.732 5.622 5.392 5.032 4.622 4.302 4.172 4.212 4.372 4.642
1398.509 5.002 5.372 5.622 5.702 5.682 5.582 5.382 5.192 5.102 5.012
1417.799 4.962 4.972 5.092 5.292 5.592 6.022 6.732 7.792 9.342 11.532
1437.089 14.802 19.132 24.392 29.882 35.062 40.092 45.422 50.832 57.162 65.562
1456.378 76.112 87.822 97.732 104.572 106.892 104.642 98.272 89.122 78.662 68.002
1475.668 58.512 50.072 42.722 36.072 30.222 25.112 20.822 17.572 15.282 13.752
1494.958 12.612 11.592 10.662 9.752 8.882 8.062 7.342 6.912 6.612 6.372
1514.248 6.172 5.902 5.592 5.192 4.792 4.422 4.032 3.772 3.542 3.262
1533.538 3.102 3.002 2.832 2.752 2.782 2.742 2.762 2.892 2.972 3.102
1552.827 3.342 3.642 4.002 4.582 5.512 6.502 7.382 8.062 8.632 8.942
1572.117 9.082 9.172 9.232 9.452 9.902 10.482 11.002 11.382 11.492 11.272
1591.407 10.782 10.022 9.052 8.042 7.072 6.102 5.262 4.752 4.412 4.152
1610.697 3.972 3.872 3.872 3.772 3.562 3.382 3.232 3.122 3.052 2.982
1629.986 2.962 3.012 3.072 3.212 3.352 3.492 3.642 3.772 3.912 3.952
1649.276 3.922 3.792 3.622 3.562 3.542 3.512 3.542 3.602 3.782 3.962
1668.566 4.102 4.272 4.522 4.842 5.162 5.522 5.882 6.152 6.322 6.412
1687.856 6.452 6.482 6.522 6.602 6.822 7.142 7.592 8.292 9.112 9.982
1707.146 10.872 11.652 12.222 12.702 13.022 13.162 13.362 13.562 13.772 14.082
1726.435 14.402 14.652 15.032 15.612 16.542 17.982 19.962 22.702 26.222 30.782
1745.725 36.902 45.272 56.822 73.232 95.652 124.792 161.792 202.352 242.322 277.232
1765.015 301.032 310.052 301.872 277.782 241.082 202.022 166.182 135.292 110.262 90.622
1784.305 75.142 62.002 50.802 41.032 32.932 26.582 22.022 18.752 16.462 14.812
1803.594 13.792 13.182 13.002 13.152 13.532 14.042 14.652 15.182 15.552 15.642
1822.884 15.312 14.632 13.652 12.462 11.122 9.772 8.592 7.532 6.682 5.982
1842.174 5.362 4.872 4.522 4.332 4.242 4.182 4.152 4.122 4.152 4.242
1861.464 4.292 4.332 4.412 4.462 4.402 4.272 4.122 3.912 3.642 3.342
1880.754 3.122 2.952 2.892 2.922 3.052 3.192 3.372 3.732 4.162 4.612
1900.043 5.022 5.372 5.672 5.762 5.632 5.312 4.802 4.252 3.692 3.222
1919.333 2.912 2.712 2.642 2.652 2.742 2.902 3.222 3.692 4.232 4.782
1938.623 5.232 5.462 5.492 5.252 4.712 4.032 3.302 2.662 2.152 1.792
1957.913 1.672 1.612 1.582 1.592 1.562 1.552 1.632 1.692 1.672 1.682
1977.202 1.702 1.592 1.512 1.472 1.402 1.3519 1.2854 1.1484 1.075 1.0768
1996.492 1.0122 0.9451 0.9306 0.9507 0.9615 0.967 0.9654 0.9504 0.9922 0.9916
2015.782 0.8977 0.8632 0.8861 0.8608 0.7917 0.7925 0.8254 0.781 0.8118 0.8058
2035.072 0.7512 0.7118 0.6556 0.6753 0.719 0.7099 0.6461 0.6266 0.6656 0.6983
2054.362 0.6569 0.6062 0.6267 0.6257 0.6185 0.6273 0.6074 0.5626 0.5426 0.5583
2073.651 0.592 0.6132 0.6157 0.6282 0.6226 0.6182 0.6369 0.6231 0.6464 0.6553
2092.941 0.6127 0.5882 0.5557 0.5654 0.596 0.6453 0.6245 0.5641 0.5719 0.5645
2112.231 0.5707 0.616 0.6671 0.6996 0.724 0.7855 0.8466 0.8625 0.828 0.7854
2131.521 0.7538 0.7161 0.7013 0.7025 0.6836 0.6121 0.6289 0.6572 0.6367 0.6505
2150.810 0.6531 0.6197 0.6056 0.662 0.6641 0.6145 0.5908 0.6125 0.6091 0.6154
2170.100 0.6617 0.6709 0.7253 0.7449 0.6858 0.6674 0.6793 0.681 0.6697 0.6711
2189.390 0.7218 0.7169 0.7184 0.817 0.8576 0.7712 0.7372 0.7621 0.705 0.6549
2208.680 0.6807 0.758 0.8728 0.9165 0.8868 0.9018 0.927 0.9373 0.9686 0.9154
2227.970 0.8116 0.839 0.9283 0.8481 0.7768 0.8202 0.795 0.7994 0.8808 0.9181
2247.259 0.837 0.8236 0.9126 0.9388 0.901 0.8597 0.9352 1.0762 1.0701 1.0543
2266.549 1.1325 1.1932 1.2153 1.1981 1.2021 1.1976 1.1289 1.1631 1.2313 1.2519
2285.839 1.2624 1.237 1.2031 1.1793 1.1375 1.1012 1.1589 1.2317 1.2741 1.392
2305.129 1.522 1.562 1.632 1.792 1.932 2.042 2.122 2.162 2.192 2.122
2324.418 1.982 1.832 1.702 1.582 1.482 1.402 1.2935 1.2036 1.184 1.2259
2343.708 1.2204 1.1561 1.1164 1.1205 1.158 1.2174 1.2949 1.372 1.492 1.612
2362.998 1.582 1.522 1.542 1.492 1.562 1.642 1.532 1.482 1.402 1.3603
2382.288 1.372 1.3075 1.2933 1.3057 1.2472 1.2318 1.2663 1.2941 1.392 1.482
2401.578 1.482 1.452 1.482 1.412 1.3488 1.372 1.3281 1.3437 1.3487 1.3512
2420.867 1.3353 1.2785 1.2838 1.3326 1.3251 1.2514 1.2461 1.2556 1.1918 1.1594
2440.157 1.1613 1.1521 1.0657 0.9834 0.9898 0.9191 0.8078 0.7682 0.7823 0.8364
2459.447 0.8349 0.7884 0.8187 0.843 0.7968 0.8077 0.8153 0.8067 0.8071 0.7618
2478.737 0.7302 0.7383 0.7189 0.7004 0.7232 0.6895 0.6189 0.6074 0.6579 0.6998
2498.026 0.7385 0.7351 0.7782 0.8096 0.7745 0.8058 0.8322 0.8596 0.8894 0.9542
2517.316 0.9841 0.9787 0.9824 1.0183 1.1101 1.1455 1.098 1.1131 1.2276 1.2606
2536.606 1.2957 1.3374 1.372 1.372 1.402 1.412 1.372 1.3599 1.362 1.3257
2555.896 1.2926 1.2541 1.2131 1.2186 1.1308 1.1402 1.1949 1.14 1.1175 1.1557
2575.186 1.2113 1.1507 1.0865 0.9909 0.8943 0.9164 0.9024 0.8738 0.9384 0.9657
2594.475 0.9489 0.9568 0.9047 0.7658 0.7086 0.7631 0.7505 0.6261 0.6143 0.748
2613.765 0.7097 0.6339 0.6722 0.688 0.669 0.6618 0.595 0.5242 0.5231 0.5521
2633.055 0.589 0.6189 0.6199 0.6481 0.6103 0.5869 0.6084 0.582 0.5608 0.5458
2652.345 0.5628 0.5607 0.45157 0.4268 0.45087 0.44488 0.43378 0.35965 0.3302 0.37971
2671.634 0.42147 0.2968 0.252 0.3108 0.2759 0.255 0.236 0.2723 0.38032 0.37898
2690.924 0.3242 0.35633 0.3488 0.3362 0.331 0.3162 0.38263 0.4646 0.44752 0.362358
2710.214 0.3258 0.38052 0.45388 0.4814 0.5551 0.5527 0.4655 0.485 0.5007 0.4787
2729.504 0.4793 0.45561 0.5174 0.4985 0.4324 0.40805 0.366206 0.43104 0.43024 0.42231
2748.794 0.4629 0.4909 0.469 0.42465 0.44385 0.45922 0.518 0.5487 0.5637 0.5085
2768.083 0.39659 0.42402 0.4232 0.3414 0.367894 0.40559 0.364227 0.3374 0.3127 0.3355
2787.373 0.3488 0.35582 0.35803 0.31 0.3196 0.2927 0.259 0.319 0.40028 0.3315
2806.663 0.18 0.202 0.2719 0.363905 0.4804 0.44908 0.368174 0.3167 0.39754 0.4674
2825.953 0.38712 0.3359 0.36 0.41256 0.5206 0.5334 0.4535 0.42122 0.44958 0.4624
2845.242 0.40944 0.42429 0.477 0.4798 0.41682 0.38905 0.3379 0.351 0.42256 0.40779
2864.532 0.43218 0.5033 0.5205 0.44823 0.4621 0.5047 0.575 0.7872 0.8194 0.7393
2883.822 0.6964 0.6954 0.7699 0.817 0.7602 0.7305 0.8029 0.7535 0.6655 0.6257
2903.112 0.7102 0.8227 0.7028 0.5975 0.6713 0.6719 0.6743 0.6796 0.6302 0.6398
2922.401 0.6946 0.6954 0.7194 0.628 0.514 0.6463 0.6569 0.5703 0.42982 0.35716
2941.691 0.4773 0.5318 0.5107 0.40565 0.3172 0.391 0.3166 0.2823 0.37853 0.41441
2960.981 0.38193 0.35425 0.35795 0.367055 0.5577 0.6004 0.5093 0.6211 0.7105 0.7304
2980.271 0.7099 0.7632 0.8929 0.9035 0.9544 1.0831 1.2115 1.2813 1.372 1.542
2999.561 1.822 2.042 2.162 2.362 2.552 2.762 3.082 3.462 3.842 4.242
3018.850 4.652 4.902 5.032 5.032 4.892 4.762 4.652 4.382 4.052 3.822
3038.140 3.632 3.632 3.622 3.642 3.742 3.842 4.102 4.552 5.212 5.922
3057.430 7.132 8.862 10.872 13.482 16.982 21.362 26.412 32.002 37.032 40.342
3076.720 41.362 39.712 35.672 29.942 23.762 18.022 13.402 10.442 8.532 7.182
3096.009 6.152 5.152 4.292 3.502 2.712 2.232 1.972 1.672 1.372 1.0814
3115.299 1.0685 1.2225 1.2451 1.2169 1.2455 1.2883 1.2808 1.2227 1.174 1.245
3134.589 1.2959 1.402 1.402 1.502 1.622 1.572 1.512 1.532 1.582 1.512
3153.879 1.402 1.234 1.1748 1.0635 0.942 0.9581 0.9522 0.775 0.7624 0.752
3173.169 0.5549 0.44243 0.40319 0.5457 0.43691 0.2659 0.38281 0.45252 0.36691 0.207
3192.458 0.26 0.45206 0.4765 0.45093 0.4784 0.38379 0.246 0.41037 0.4981 0.35702
3211.748 0.2641 0.35836 0.40867 0.3188 0.43599 0.367113 0.197 0.2935 0.2834 0.242
3231.038 0.2677 0.241 0.254 0.207 0.21 0.163 0.196 0.36098 0.38343 0.3056
3250.328 0.223 0.255 0.24 0.202 0.253 0.3115 0.37675 0.44208 0.40349 0.363332
3269.617 0.2947 0.3208 0.43426 0.44644 0.38757 0.2732 0.3293 0.3327 0.3441 0.469
3288.907 0.37362 0.2995 0.245 0.204 0.249 0.41723 0.43573 0.242 0.203 0.202
3308.197 0.217 0.3249 0.2972 0.2658 0.3078 0.2922 0.3331 0.37134 0.3025 0.196
3327.487 0.248 0.43521 0.4667 0.38111 0.2684 0.2647 0.3043 0.2762 0.39813 0.5022
3346.777 0.471 0.45424 0.3082 0.18 0.243 0.3167 0.3161 0.314 0.3389 0.3005
3366.066 0.244 0.2957 0.42908 0.3362 0.3426 0.43781 0.332 0.227 0.2651 0.35624
3385.356 0.363172 0.40866 0.364363 0.40501 0.4802 0.38185 0.3256 0.2647 0.313 0.42274
3404.646 0.45035 0.5809 0.6021 0.4825 0.35485 0.43829 0.5337 0.36442 0.204 0.218
3423.936 0.341 0.3179 0.2688 0.3384 0.5107 0.5547 0.38104 0.2714 0.3191 0.43046
3443.225 0.4674 0.40262 0.35713 0.35386 0.37961 0.43126 0.370761 0.2876 0.39186 0.6053
3462.515 0.7381 0.5881 0.44345 0.38862 0.2767 0.182 0.36283 0.6284 0.5993 0.5685
3481.805 0.513 0.5588 0.6501 0.6848 0.6731 0.7699 0.8948 0.9997 1.1382 1.2608
3501.095 1.412 1.672 2.102 2.432 2.572 2.662 2.722 2.702 2.692 2.532
3520.385 2.332 2.062 1.692 1.502 1.402 1.333 1.296 1.2197 1.107 0.9615
3539.674 0.9017 0.9042 0.8762 0.823 0.8893 0.8264 0.5927 0.6379 0.6807 0.6198
3558.964 0.5151 0.3152 0.41726 0.4661 0.38763 0.4238 0.5206 0.7047 0.6589 0.5273
3578.254 0.43318 0.3121 0.184 0.370473 0.42789 0.143 0.2 0.2888 0.2995 0.41168
3597.544 0.39801 0.39849 0.5379 0.45288 0.41898 0.45416 0.41211 0.259 0.181 0.23
3616.833 0.228 0.3496 0.3562 0.39283 0.4789 0.3392 0.146 0.17 0.259 0.522
3636.123 0.6677 0.42537 0.37773 0.3437 0.236 0.172 0.238 0.3231 0.2702 0.2881
3655.413 0.3245 0.43482 0.40161 0.3441 0.45349 0.41386 0.3004 0.3299 0.40361 0.5845
3674.703 0.5483 0.2818 0.36383 0.3007 0.262 0.3093 0.189 0.35612 0.4986 0.41792
3693.993 0.4721 0.5644 0.6227 0.5159 0.4701 0.5946 0.6079 0.45946 0.35942 0.39537
3713.282 0.35932 0.5036 0.5121 0.2814 0.198 0.2842 0.35886 0.228 0.2765 0.6118
3732.572 0.7778 0.5723 0.493 0.4989 0.39976 0.4695 0.4973 0.537 0.45094 0.2837
3751.862 0.45399 0.6764 0.5614 0.3339 0.3291 0.5508 0.5944 0.618 0.7057 0.5603
3771.152 0.45665 0.4737 0.5305 0.6614 0.7155 0.5787 0.5101 0.6182 0.5286 0.4657
3790.441 0.5593 0.4681 0.5032 0.653 0.562 0.474 0.4815 0.5022 0.4638 0.5375
3809.731 0.6545 0.5822 0.44817 0.4116 0.4683 0.45113 0.4834 0.44752 0.35615 0.3276
3829.021 0.3329 0.43389 0.35597 0.2727 0.36029 0.38849 0.42391 0.318 0.248 0.198
3848.311 0.179 0.293 0.3069 0.143 0 0.122 0.2797 0.232 0.142 0.262
3867.601 0.3501 0.40342 0.5459 0.486 0.259 0.2711 0.42917 0.45634 0.36229 0.3737
3886.890 0.38004 0.2868 0.3493 0.4762 0.36577 0.218 0.326 0.5098 0.44437 0.256
3906.180 0.3113 0.3505 0.3564 0.364104 0.41898 0.42233 0.35975 0.3319 0.256 0.233
3925.470 0.249 0.189 0.2958 0.35656 0.046 0.063 0.3242 0.364066 0.311 0.222
3944.760 0.202 0.172 0.179 0.3208 0.41911 0.3187 0.206 0.40217 0.5398 0.5462
3964.049 0.4048 0.179 0.186 0.38544 0.369945 0.246 0.3232 0.3439 0.3025 0.3516
3983.339 0.337 0.38679 0.5344 0.5023 0.4806 0.6139 0.7598 0.4876 0.3316 0.46176
##END=
