##TITLE=trans-9-Styrylanthracene
##JCAMP-DX=4.24
##DATA TYPE=INFRARED SPECTRUM
##ORIGIN=EPA-IR VAPOR PHASE LIBRARY
##OWNER=SRD/NIST
Collection (C) 2018 copyright by the U.S. Secretary of Commerce
on behalf of the United States of America. All rights reserved.
##CAS REGISTRY NO=1895-98-3
##MOLFORM=C 22 H 16
##$NIST SOURCE=MSDC-IR
##STATE=gas
##XUNITS=1/CM
##YUNITS=ABSORBANCE
##XFACTOR=1.
##YFACTOR=0.001
##DELTAX=1.92898
##FIRSTX=549.8
##LASTX=4000.7
##FIRSTY=2.37
##MAXX=4000.7
##MINX=549.759
##MAXY=0.02614
##MINY=0
##NPOINTS=1790
##XYDATA=(X++(Y..Y))
549.759 2.37 2.38 2.06 1.66 1.66 1.72 1.4519 1.2973 1.5241 1.4204
569.049 1.3365 1.3447 1.65 1.5437 1.407 1.68 1.4762 1.1753 1.1683 1.5853
588.339 1.78 1.66 1.98 1.89 1.73 2.01 2.06 1.95 1.71 1.5374
607.628 1.7 1.74 1.76 1.94 1.64 1.3167 1.0742 0.8656 1.0056 1.0479
626.918 1.049 1.0121 1.0578 1.1245 1.0786 1.1033 1.4316 1.7 1.68 1.3106
646.208 1.2416 1.4596 1.4388 1.66 1.67 1.72 2.03 1.95 1.73 1.95
665.498 2.07 2.04 2.04 2.29 2.37 2.4 2.68 2.96 3.22 3.75
684.787 4.6 5.19 5.25 5.1 4.91 4.44 4.3 4.14 4.2 4.52
704.077 4.33 4.24 4.59 4.99 5.47 6.06 6.63 7.5 8.39 9.69
723.367 11.99 15.3 19.07 23.78 26.14 23.09 19.16 16.21 13.17 10.6
742.657 9.01 8.04 6.98 5.77 5 4.4 3.88 3.5 3.2 3.11
761.947 2.96 2.51 2.28 2.18 2.03 2.37 2.56 2.67 3.05 3.52
781.236 3.74 3.19 2.45 2.06 1.74 1.5618 1.0036 0.67818 1.129 1.4158
800.526 1.0749 0.7149 1.1344 1.2291 0.9885 1.1438 1.3299 1.4434 1.4701 1.4017
819.816 1.4268 1.63 2 2.34 2.77 3.53 4.05 4.11 3.72 3.08
839.106 2.76 2.68 2.71 2.6 2.71 3.27 3.51 3.3 2.64 2.28
858.395 2.22 1.91 1.82 1.86 1.93 2.25 2.86 3.86 5.02 6.22
877.685 7.24 7.58 6.92 5.53 4.36 3.29 2.57 1.97 1.4517 1.3503
896.975 1.2243 1.0532 1.2228 1.43 1.159 1.1168 1.3293 1.293 1.2142 0.9626
916.265 0.8164 1.1726 1.2224 1.1101 1.2122 1.2599 1.3739 1.5088 1.2366 1.1218
935.555 1.5144 1.5991 1.4519 1.61 1.88 2.18 2.39 2.59 3.07 3.33
954.844 3.36 3.9 4.4 4.74 5.38 5.82 6.13 6.08 5.27 4.45
974.134 3.96 3.64 3.35 2.93 2.55 2.4 2.36 1.95 1.66 1.87
993.424 1.9 1.5271 1.415 1.78 1.72 1.76 2.08 2.23 2.83 3.49
1012.714 3.66 3.79 3.57 3.15 2.8 2.29 2.16 2.36 2.29 2
1032.003 1.8 1.5074 1.65 1.3391 0.8994 1.1172 1.2509 1.2799 1.1215 0.7366
1051.293 0.9843 1.0669 0.9747 1.0801 0.7349 0.8184 1.2748 1.4786 1.3452 1.2148
1070.583 1.3021 1.0117 0.9078 1.0954 1.3645 1.86 1.5265 1.133 1.4733 1.1413
1089.873 1.4364 1.56 1.0342 1.326 1.4238 1.68 1.5565 1.0816 1.4484 1.9
1109.163 1.0591 0.5326 0.8936 0.5022 0.61659 0.9375 1.5418 1.75 0.8173 0.5857
1128.452 0.5016 1.2961 2.06 1.5386 1.3585 1.1163 0.63667 0.61779 0 0.204
1147.742 0.8924 1.2005 1.5724 1.4093 1.3655 1.65 1.85 1.77 1.5817 1.5283
1167.032 1.2603 1.2944 1.66 1.223 1.1062 1.64 1.8 1.1928 0.7296 0.9255
1186.322 1.0176 0.404 0.034 0.743 0.8856 0.24 0.7384 0.9302 0.097 0.65211
1205.611 1.65 1.7 1.5449 1.0382 0.9415 1.1766 0.17 0.15 1.1831 1.4123
1224.901 1.2001 0.411 0.7927 1.62 1.1711 0.9159 1.1025 1.1109 0.9694 1.5276
1244.191 1.75 1.4603 1.64 1.3026 0.8132 0.8488 0.7784 1.0075 1.335 0.9973
1263.481 0.67883 0.484 0.5621 0.8228 1.0195 1.1451 1.0042 0.9924 0.8948 0.7087
1282.771 0.8301 0.9234 0.8476 1.0914 1.1321 0.8253 0.7727 0.8594 0.9325 0.9911
1302.060 1.1326 1.1787 1.0968 1.0946 1.1126 0.9943 1.0052 1.0634 1.0894 1.1466
1321.350 1.1877 1.2707 1.2279 1.2371 1.2823 1.2598 1.3531 1.5018 1.5329 1.68
1340.640 1.94 2.24 2.49 2.67 2.87 3.07 3.01 2.71 2.42 2.16
1359.930 1.83 1.4488 1.2761 1.2606 1.2074 1.2002 1.3221 1.434 1.5487 1.65
1379.219 1.69 1.68 1.65 1.6 1.5368 1.4123 1.2998 1.3044 1.3847 1.5942
1398.509 1.84 2.13 2.55 2.78 2.78 2.63 2.26 1.88 1.6 1.4543
1417.799 1.3911 1.2965 1.3284 1.424 1.4518 1.4865 1.5922 1.75 1.91 2.19
1437.089 2.43 2.57 2.61 2.64 2.83 2.95 2.96 2.85 2.6 2.24
1456.378 1.91 1.73 1.68 1.62 1.6 1.5718 1.5724 1.5918 1.59 1.5541
1475.668 1.525 1.5885 1.72 1.88 2.06 2.31 2.66 3.16 3.85 4.52
1494.958 4.74 4.56 4.04 3.33 2.67 2.11 1.98 2.08 2.13 2.25
1514.248 2.26 2.2 2.06 1.87 1.68 1.4922 1.3367 1.1638 1.0853 1.0814
1533.538 1.0494 1.0489 1.1122 1.118 1.0545 1.1066 1.2509 1.2271 1.1776 1.2076
1552.827 1.3748 1.67 1.5946 1.5298 1.63 1.66 1.63 1.5533 1.5332 1.5753
1572.117 1.5579 1.63 1.87 1.81 1.68 1.87 2.01 1.95 2.06 2.37
1591.407 2.73 2.94 3.02 3.15 3.21 3.07 2.87 2.63 2.13 1.77
1610.697 1.5364 1.2781 1.2978 1.42 1.52 1.5553 1.5305 1.4787 1.3126 1.2086
1629.986 1.2272 1.1054 0.9613 0.9493 0.9957 0.9448 1.0551 1.1703 1.0529 1.0585
1649.276 1.0411 0.9922 1.0403 1.0109 0.9076 0.9863 1.0901 1.197 1.2471 1.131
1668.566 1.1779 1.3331 1.3946 1.4582 1.61 1.66 1.69 1.67 1.5543 1.5539
1687.856 1.5351 1.4 1.3438 1.4004 1.5408 1.72 1.88 1.98 1.88 1.86
1707.146 1.92 1.84 1.76 1.65 1.534 1.4579 1.317 1.3263 1.3668 1.3482
1726.435 1.3896 1.3765 1.4113 1.4298 1.2975 1.2021 1.1879 1.2981 1.358 1.2836
1745.725 1.2819 1.3561 1.497 1.64 1.63 1.61 1.6 1.5363 1.3916 1.4297
1765.015 1.4751 1.3538 1.3319 1.3287 1.4546 1.5686 1.5563 1.5716 1.68 1.87
1784.305 2.03 2.09 2.13 2.19 2.22 2.3 2.31 2.2 2.06 1.89
1803.594 1.85 1.87 1.96 1.97 1.89 1.75 1.64 1.67 1.64 1.552
1822.884 1.4986 1.5462 1.5575 1.4308 1.3755 1.357 1.257 1.1829 1.1935 1.2399
1842.174 1.2505 1.2614 1.2492 1.2274 1.1733 1.0954 1.0604 1.1025 1.0765 1.0179
1861.464 1.056 1.0969 1.1302 1.1615 1.243 1.2486 1.1663 1.1191 1.1795 1.1959
1880.754 1.1841 1.2004 1.2092 1.2592 1.3534 1.4206 1.3048 1.315 1.4385 1.4758
1900.043 1.5424 1.575 1.4961 1.4194 1.3758 1.455 1.5511 1.5246 1.5474 1.66
1919.333 1.68 1.61 1.64 1.5724 1.5196 1.63 1.81 1.94 2.05 2.15
1938.623 2.16 1.97 1.73 1.66 1.5371 1.3319 1.2246 1.2801 1.2698 1.226
1957.913 1.2318 1.1561 1.015 0.8477 0.8458 0.9111 0.8136 0.8006 0.8396 0.8282
1977.202 0.8091 0.7887 0.8409 0.8352 0.7694 0.7169 0.7301 0.7373 0.63862 0.65159
1996.492 0.69841 0.69377 0.7615 0.7345 0.7584 0.8668 0.8721 0.8211 0.7922 0.8408
2015.782 0.8043 0.729 0.7605 0.7991 0.828 0.8033 0.7662 0.7105 0.7086 0.7951
2035.072 0.7807 0.68221 0.66328 0.7035 0.736 0.7591 0.7344 0.7223 0.708 0.7565
2054.362 0.7187 0.7169 0.8029 0.7341 0.7503 0.7462 0.7528 0.8131 0.7722 0.7844
2073.651 0.7538 0.7055 0.7236 0.69423 0.7401 0.7833 0.7669 0.7017 0.7167 0.7535
2092.941 0.7691 0.7894 0.67835 0.65259 0.725 0.761 0.7137 0.7137 0.72 0.67422
2112.231 0.67015 0.5784 0.5092 0.66531 0.69489 0.62521 0.7095 0.8257 0.8279 0.7756
2131.521 0.7904 0.7641 0.7935 0.8696 0.8441 0.8014 0.823 0.8137 0.7566 0.67929
2150.810 0.7215 0.807 0.8047 0.7678 0.7406 0.7649 0.7155 0.69695 0.8111 0.8057
2170.100 0.712 0.7033 0.62688 0.64643 0.7271 0.7412 0.8177 0.7857 0.702 0.7613
2189.390 0.7759 0.7204 0.7025 0.65382 0.7 0.773 0.7504 0.69773 0.65233 0.6519
2208.680 0.67093 0.66674 0.67555 0.69924 0.6356 0.5508 0.62086 0.7039 0.7626 0.8128
2227.970 0.7681 0.7255 0.7132 0.63953 0.64453 0.7345 0.66372 0.5956 0.7022 0.69924
2247.259 0.61306 0.68751 0.7842 0.7932 0.7584 0.7041 0.68148 0.8221 0.7986 0.68263
2266.549 0.68239 0.7254 0.8115 0.7959 0.7798 0.7428 0.7285 0.7598 0.7997 0.8398
2285.839 0.8228 0.7273 0.64659 0.67629 0.7647 0.798 0.7781 0.7586 0.7933 0.8117
2305.129 0.7995 0.8663 0.8993 0.7709 0.6735 0.67931 0.7167 0.7745 0.8352 0.8376
2324.418 0.7276 0.7467 0.7996 0.8815 0.8926 0.8628 0.77 0.61581 0.7469 0.7842
2343.708 0.7057 0.7866 0.7931 0.7782 0.7973 0.8877 0.9844 0.8193 0.751 0.8037
2362.998 0.8222 0.7955 0.7129 0.7943 0.8364 0.8096 0.8225 0.852 0.731 0.7195
2382.288 0.7854 0.66206 0.67404 0.7894 0.841 0.8596 0.7918 0.7227 0.69001 0.7169
2401.578 0.7703 0.8049 0.809 0.774 0.7667 0.67529 0.66951 0.8053 0.8306 0.7565
2420.867 0.737 0.8298 0.8816 0.68827 0.65722 0.755 0.64821 0.69795 0.7713 0.68536
2440.157 0.69514 0.717 0.728 0.8328 0.8356 0.8043 0.8459 0.8101 0.7253 0.7093
2459.447 0.63771 0.66537 0.7151 0.794 0.8849 0.7397 0.67364 0.63525 0.64379 0.69938
2478.737 0.7086 0.7778 0.7445 0.7844 0.8855 0.7325 0.68064 0.7395 0.69423 0.7109
2498.026 0.693 0.5775 0.61625 0.7326 0.7301 0.7415 0.773 0.7254 0.64263 0.63333
2517.316 0.63052 0.7058 0.7739 0.5965 0.504 0.605056 0.67332 0.65568 0.7364 0.7581
2536.606 0.67691 0.69811 0.7093 0.7392 0.8186 0.9033 0.8763 0.7829 0.8341 0.8433
2555.896 0.67307 0.69747 0.8038 0.7158 0.5687 0.487 0.5257 0.65471 0.66501 0.65062
2575.186 0.68172 0.68467 0.743 0.72 0.63195 0.6807 0.7527 0.7271 0.7639 0.7883
2594.475 0.67354 0.63378 0.7586 0.7746 0.7182 0.68879 0.7193 0.67212 0.495 0.5176
2613.765 0.65252 0.7096 0.68281 0.5676 0.59239 0.603556 0.5897 0.68419 0.65425 0.63801
2633.055 0.8078 0.8334 0.64623 0.5699 0.67666 0.7272 0.69838 0.7384 0.7159 0.7115
2652.345 0.7527 0.8674 0.9032 0.66152 0.5367 0.607052 0.64329 0.59413 0.499 0.5556
2671.634 0.67603 0.601981 0.61418 0.7676 0.67693 0.61275 0.7394 0.69102 0.69408 0.7026
2690.924 0.60041 0.68891 0.7849 0.7322 0.69132 0.7529 0.68114 0.61214 0.66615 0.66571
2710.214 0.68287 0.7188 0.8231 0.8316 0.599133 0.5253 0.60787 0.601156 0.5449 0.5552
2729.504 0.66339 0.66359 0.6967 0.7167 0.68377 0.7212 0.66689 0.5019 0.591 0.8055
2748.794 0.8475 0.7439 0.7574 0.7703 0.64059 0.63316 0.5539 0.59309 0.8121 0.8233
2768.083 0.7626 0.7774 0.7829 0.8293 0.7704 0.606734 0.482 0.5039 0.62716 0.65338
2787.373 0.61061 0.67506 0.8207 0.7745 0.63702 0.603475 0.62424 0.69075 0.7147 0.7368
2806.663 0.8221 0.817 0.6085 0.5385 0.69019 0.775 0.8553 0.875 0.69622 0.7225
2825.953 0.7698 0.8132 0.9917 0.8196 0.7195 0.8483 0.9729 0.9575 0.7426 0.7485
2845.242 0.7582 0.5657 0.59076 0.8252 0.8439 0.784 0.7765 0.794 0.925 0.9871
2864.532 0.8993 0.8181 0.8731 0.8948 0.9838 1.0508 1.0522 0.9782 0.7435 0.7736
2883.822 0.9641 1.0079 0.9808 1.0388 1.0378 0.9328 0.9974 0.9288 0.9685 1.1006
2903.112 0.9631 0.8781 0.8299 0.8767 0.8186 0.9521 1.1533 1.1364 1.1978 1.1877
2922.401 1.1939 1.0863 0.9369 0.9431 1.0743 1.1626 1.173 1.166 1.174 1.1758
2941.691 1.2286 1.2133 1.0004 0.9425 1.1336 1.2663 1.2775 1.1044 0.7974 0.818
2960.981 0.9458 1.0016 1.0905 1.1864 1.2964 1.3433 1.3236 1.3658 1.321 1.5022
2980.271 1.84 1.88 1.81 1.99 2.21 2.28 2.43 2.44 2.6 2.87
2999.561 2.95 3.05 3.28 3.54 3.84 4.08 4.37 4.75 5.23 5.94
3018.850 6.61 7.33 8.23 8.83 9.26 9.88 10.45 10.83 10.67 10.12
3038.140 9.44 8.98 8.86 8.76 9.27 10.36 11.56 12.79 13.76 14.31
3057.430 14.55 14.55 14.56 14.65 14.78 14.92 14.79 13.96 13.01 12.24
3076.720 11.84 12.05 12.23 12.21 11.87 11 9.76 8.5 7.25 6.33
3096.009 5.42 4.52 4.01 3.64 3.35 3.08 2.96 2.61 2.18 1.96
3115.299 1.72 1.4266 1.336 1.366 1.2802 1.2968 1.243 0.9609 0.9259 1.0734
3134.589 1.0303 1.0158 1.0407 1.0458 0.8564 0.8556 1.0326 0.957 0.9903 0.9544
3153.879 0.8968 0.9014 0.69884 0.61641 0.7715 0.9305 0.9075 0.7895 0.8468 0.8483
3173.169 0.702 0.7386 1.0199 1.07 0.9352 0.8947 0.8957 0.8988 0.7993 0.8343
3192.458 0.8491 0.8078 0.7365 0.61317 0.63411 0.7029 0.61187 0.63277 0.8422 0.7243
3211.748 0.6507 0.826 0.9253 0.8308 0.7684 0.8059 0.7066 0.7739 0.7933 0.68389
3231.038 0.7594 0.716 0.7987 0.8182 0.67831 0.7355 0.608859 0.5216 0.509 0.391
3250.328 0.478 0.7924 0.9618 0.8495 0.68189 0.68262 0.7575 0.7623 0.6878 0.5846
3269.617 0.5841 0.59506 0.5696 0.497 0.5804 0.7088 0.62809 0.7553 0.7647 0.7404
3288.907 0.9917 0.9151 0.7465 0.7121 0.62494 0.5828 0.68104 0.8251 0.7732 0.65973
3308.197 0.64867 0.67733 0.7385 0.62949 0.5683 0.7616 0.7545 0.59203 0.62215 0.67139
3327.487 0.605321 0.64998 0.7419 0.5929 0.5461 0.45 0.374 0.405 0.394 0.5802
3346.777 0.61127 0.7855 0.7397 0.429 0.496 0.63784 0.8236 0.66002 0.4 0.5405
3366.066 0.65399 0.62184 0.5453 0.406 0.5743 0.5868 0.391 0.446 0.49 0.453
3385.356 0.435 0.426 0.351 0.325 0.424 0.599198 0.5003 0.45 0.5234 0.43
3404.646 0.475 0.63134 0.5836 0.398 0.447 0.5609 0.489 0.478 0.411 0.402
3423.936 0.5196 0.506 0.7098 0.7654 0.5558 0.456 0.458 0.5595 0.5895 0.67092
3443.225 0.63185 0.61312 0.59852 0.499 0.5894 0.5807 0.59806 0.7432 0.68623 0.5617
3462.515 0.458 0.5465 0.7289 0.599403 0.7078 0.7499 0.5537 0.65562 0.9161 0.8628
3481.805 0.7655 0.7867 0.7548 0.8173 0.7692 0.7288 0.5583 0.263 0.5362 0.8618
3501.095 0.7836 0.5 0.443 0.7196 0.63138 0.455 0.185 0.223 0.5142 0.68245
3520.385 0.8086 0.65204 0.62231 0.7195 0.65032 0.499 0.479 0.571 0.477 0.27
3539.674 0.246 0.291 0.338 0.5486 0.67538 0.63386 0.422 0.5038 0.7547 0.7598
3558.964 0.59131 0.428 0.397 0.5159 0.64361 0.5568 0.458 0.398 0.484 0.7301
3578.254 0.886 0.66985 0.63713 0.67254 0.481 0.456 0.5007 0.5647 0.66655 0.8508
3597.544 0.66776 0.444 0.5051 0.5158 0.5364 0.5302 0.38 0.402 0.5566 0.602948
3616.833 0.8204 0.7525 0.5401 0.67723 0.9173 0.9226 0.68332 0.64067 0.6557 0.5859
3636.123 0.601971 0.606877 0.5875 0.5639 0.62447 0.7611 0.8639 0.7869 0.7145 0.62864
3655.413 0.48 0.59662 0.65826 0.59654 0.59784 0.417 0.264 0.336 0.41 0.432
3674.703 0.395 0.467 0.62299 0.5818 0.478 0.486 0.7798 0.7488 0.471 0.445
3693.993 0.68914 0.8102 0.65418 0.5547 0.5045 0.5014 0.407 0.5064 0.5519 0.488
3713.282 0.59767 0.63485 0.601072 0.451 0.45 0.9085 1.005 0.7386 0.42 0.445
3732.572 0.65937 0.5427 0.487 0.62899 0.61661 0.376 0.416 0.5251 0.64955 0.7089
3751.862 0.497 0.5122 0.68974 0.62481 0.492 0.64546 0.7016 0.368 0.331 0.397
3771.152 0.282 0.5207 0.7442 0.7135 0.7346 0.63865 0.61349 0.7374 0.8381 0.7853
3790.441 0.63609 0.463 0.213 0.407 0.7294 0.72 0.5342 0.36 0.309 0.208
3809.731 0.221 0.5366 0.6315 0.63358 0.71 0.7377 0.5356 0.398 0.441 0.235
3829.021 0.311 0.454 0.608302 0.459 0.5002 0.8101 0.68902 0.64332 0.7319 0.7384
3848.311 0.69556 0.64486 0.343 0.277 0.5203 0.5427 0.533 0.5743 0.63082 0.5097
3867.601 0.5381 0.7936 0.5553 0.291 0.425 0.319 0.229 0.5118 0.59753 0.6497
3886.890 0.61366 0.5832 0.7855 0.8209 0.63491 0.7129 0.69455 0.415 0.362 0.425
3906.180 0.465 0.481 0.63257 0.8373 0.8422 0.9191 0.8501 0.5684 0.5817 0.524
3925.470 0.63847 0.8367 0.7552 0.605266 0.5085 0.68961 0.7097 0.66033 0.62141 0.486
3944.760 0.68069 0.7954 0.8392 0.704 0.607118 0.5725 0.5345 0.69962 0.5782 0.432
3964.049 0.5569 0.6592 0.6236 0.59039 0.612 0.5455 0.65989 0.8047 0.495 0.414
3983.339 0.5432 0.68384 0.66022 0.5703 0.66061 0.5765 0.5451 0.468 0.211 0.325
##END=
