##TITLE=2,4-Dichlorobenzyl isothiocyanate
##JCAMP-DX=4.24
##DATA TYPE=INFRARED SPECTRUM
##ORIGIN=EPA-IR VAPOR PHASE LIBRARY
##OWNER=SRD/NIST
Collection (C) 2018 copyright by the U.S. Secretary of Commerce
on behalf of the United States of America. All rights reserved.
##CAS REGISTRY NO=18967-41-4
##MOLFORM=C 8 H 5 Cl 2 N S
##$NIST SOURCE=MSDC-IR
##STATE=gas
##XUNITS=1/CM
##YUNITS=ABSORBANCE
##XFACTOR=1.
##YFACTOR=0.001
##DELTAX=1.92898
##FIRSTX=549.8
##LASTX=4000.7
##FIRSTY=8.842
##MAXX=4000.7
##MINX=549.759
##MAXY=0.340382
##MINY=0
##NPOINTS=1790
##XYDATA=(X++(Y..Y))
549.759 8.842 8.962 9.192 9.352 9.532 9.692 10.242 10.512 10.572 10.892
569.049 10.732 10.912 11.052 10.722 10.332 9.592 9.112 8.982 8.392 7.922
588.339 7.292 6.622 6.292 5.922 5.502 5.062 4.422 3.982 3.892 3.662
607.628 3.412 3.262 2.982 2.832 2.702 2.572 2.282 2.192 2.412 2.132
626.918 2.162 2.392 2.722 3.052 3.082 3.072 3.092 3.332 3.522 3.922
646.208 4.012 4.452 4.922 5.092 5.482 5.552 5.842 5.932 5.932 6.012
665.498 6.092 6.482 7.052 7.632 8.422 9.262 9.822 10.392 10.802 10.942
684.787 10.542 9.582 8.632 7.712 7.042 6.632 6.272 6.142 6.112 6.252
704.077 6.842 8.042 9.092 10.252 11.792 13.142 14.722 16.222 17.142 17.862
723.367 18.142 17.712 17.142 16.532 15.502 14.472 13.702 12.932 12.532 12.302
742.657 12.092 12.362 12.522 12.532 12.362 11.822 11.652 11.242 10.452 9.482
761.947 8.542 7.722 6.932 6.132 5.382 5.052 4.802 4.512 4.572 4.632
781.236 4.352 4.152 4.182 4.252 4.572 5.112 5.642 6.482 7.582 8.882
800.526 10.452 12.312 14.462 16.802 19.412 22.142 24.102 25.292 26.082 26.462
819.816 26.892 27.242 27.682 28.522 30.312 33.092 35.782 38.492 41.542 44.592
839.106 47.012 48.402 48.332 46.612 43.882 40.162 35.882 31.632 27.412 24.222
858.395 22.312 21.252 21.122 21.642 22.332 23.362 23.802 21.742 18.862 16.222
877.685 13.282 10.712 8.612 6.972 5.872 5.092 4.512 4.162 3.932 3.622
896.975 3.422 3.372 3.332 3.352 3.382 3.312 3.132 2.972 3.012 3.082
916.265 3.012 2.862 2.812 2.992 2.932 2.852 2.872 2.772 2.702 2.782
935.555 3.042 3.132 3.132 3.182 3.112 3.322 3.272 3.022 3.132 2.982
954.844 2.782 2.552 2.342 2.292 2.442 2.542 2.542 2.372 2.132 2.342
974.134 2.342 2.172 2.482 2.442 2.072 2.022 2.082 2.312 2.392 2.292
993.424 2.192 2.192 2.532 2.722 2.402 2.202 2.202 2.132 2.132 2.242
1012.714 2.312 2.382 2.692 2.762 2.442 2.382 2.772 3.222 3.732 4.552
1032.003 5.492 6.632 8.222 10.192 12.482 15.292 18.372 20.922 22.552 23.202
1051.293 23.122 22.422 20.622 17.302 13.812 11.482 9.922 8.482 7.392 6.512
1070.583 5.742 5.732 5.952 6.482 7.462 7.572 8.232 9.092 10.382 12.482
1089.873 14.102 16.702 19.892 22.972 25.862 28.722 31.462 32.942 33.542 33.502
1109.163 31.982 30.242 28.132 25.202 22.612 20.282 17.942 15.862 14.072 11.992
1128.452 10.532 9.942 9.352 8.772 8.402 8.752 9.222 9.742 10.632 11.262
1147.742 11.702 11.302 10.872 10.472 9.372 8.142 6.832 6.172 5.942 5.492
1167.032 4.922 4.722 4.832 5.082 4.922 4.872 5.222 5.242 5.282 5.272
1186.322 5.212 5.642 6.042 6.202 6.612 6.292 6.512 6.942 6.972 7.252
1205.611 7.062 6.722 6.662 6.992 6.772 6.202 6.102 6.222 6.342 6.482
1224.901 6.472 6.362 6.252 6.022 5.822 5.692 5.872 6.052 5.642 5.342
1244.191 5.242 5.252 5.472 5.592 5.722 5.892 5.872 5.702 5.692 5.702
1263.481 5.792 6.072 6.522 6.792 6.852 6.982 7.222 7.202 7.082 7.132
1282.771 7.462 7.842 7.822 8.072 8.562 9.012 9.332 9.552 9.842 10.132
1302.060 10.482 10.892 11.362 11.852 12.352 13.052 13.882 14.902 16.132 17.442
1321.350 19.032 20.992 23.512 26.872 31.252 37.262 45.212 54.882 65.292 73.822
1340.640 77.852 76.982 72.262 64.892 55.182 44.532 35.912 30.292 27.142 25.542
1359.930 24.742 24.482 24.502 24.752 25.132 25.692 26.522 27.512 28.612 29.722
1379.219 30.672 31.142 30.852 29.932 28.422 26.342 23.772 20.862 18.032 15.392
1398.509 13.162 11.442 10.052 8.932 8.292 7.962 7.712 7.722 7.882 8.072
1417.799 8.282 8.532 8.872 9.102 9.402 9.782 10.122 10.772 11.762 13.012
1437.089 14.732 16.822 19.222 21.922 24.822 27.722 30.272 31.972 32.672 32.742
1456.378 32.252 31.062 29.522 28.552 29.392 32.392 36.962 42.152 46.692 49.352
1475.668 49.552 47.602 43.502 37.392 30.722 24.742 20.132 17.002 14.642 12.932
1494.958 11.772 10.732 9.902 9.212 8.402 7.702 7.112 6.572 6.112 5.672
1514.248 5.292 4.922 4.652 4.512 4.322 4.112 4.062 4.012 3.982 4.112
1533.538 4.222 4.512 4.922 5.312 5.882 6.762 7.972 9.452 11.082 13.002
1552.827 15.062 17.432 19.712 21.712 23.482 24.592 24.962 24.802 24.172 23.192
1572.117 22.422 22.092 22.542 23.892 25.892 28.502 31.212 33.782 35.902 37.062
1591.407 36.892 35.542 32.922 29.192 24.862 20.432 16.442 12.932 10.112 8.092
1610.697 6.642 5.652 4.932 4.492 4.192 3.932 3.782 3.532 3.302 3.112
1629.986 2.942 2.772 2.622 2.592 2.452 2.282 2.202 2.162 2.122 2.032
1649.276 1.962 1.942 1.872 1.832 1.762 1.672 1.772 1.752 1.732 1.762
1668.566 1.622 1.5513 1.563 1.474 1.518 1.5211 1.3944 1.3545 1.3999 1.4918
1687.856 1.4177 1.4303 1.4876 1.4926 1.5643 1.526 1.4844 1.4208 1.4732 1.6064
1707.146 1.622 1.622 1.5988 1.5521 1.662 1.722 1.732 1.852 2.062 2.362
1726.435 2.592 2.842 3.012 3.192 3.372 3.462 3.422 3.302 3.182 3.052
1745.725 2.842 2.732 2.722 2.612 2.502 2.432 2.352 2.272 2.242 2.212
1765.015 2.082 1.972 1.912 1.842 1.782 1.752 1.802 1.752 1.762 1.882
1784.305 1.902 1.872 1.822 1.822 1.842 1.822 1.792 1.812 1.882 1.962
1803.594 1.912 1.872 1.852 1.912 2.032 2.052 2.072 2.112 2.062 2.032
1822.884 2.112 2.172 2.192 2.232 2.222 2.222 2.262 2.302 2.332 2.422
1842.174 2.512 2.532 2.662 2.772 2.802 2.872 2.982 2.992 3.092 3.272
1861.464 3.452 3.632 3.842 4.042 4.242 4.562 4.882 5.212 5.532 5.842
1880.754 6.142 6.452 6.712 6.902 7.102 7.332 7.512 7.612 7.592 7.652
1900.043 7.922 8.152 8.342 8.712 9.092 9.372 9.722 10.142 10.552 10.972
1919.333 11.502 12.082 12.532 13.032 13.632 14.222 14.952 15.732 16.522 17.312
1938.623 18.172 19.082 19.962 21.022 22.212 23.372 24.592 25.912 27.352 28.892
1957.913 30.522 32.412 34.412 36.482 38.782 41.362 44.072 46.842 50.042 53.552
1977.202 57.332 61.442 65.762 70.462 75.472 80.742 86.472 92.672 99.172 106.022
1996.492 113.322 121.112 129.362 138.002 147.072 156.592 166.562 176.982 187.732 198.722
2015.782 210.002 221.472 232.862 244.132 255.402 266.692 277.792 288.722 299.332 309.312
2035.072 318.602 326.722 333.142 337.562 339.922 340.382 338.712 334.982 329.872 323.772
2054.362 316.612 308.622 299.902 289.902 278.622 266.452 253.402 239.522 225.402 211.682
2073.651 198.852 187.312 176.862 167.432 158.932 151.122 143.942 137.262 130.762 124.382
2092.941 118.102 112.022 106.242 100.642 95.232 90.072 85.122 80.372 75.892 71.592
2112.231 67.462 63.672 60.202 57.042 54.252 51.752 49.612 47.902 46.432 45.212
2131.521 44.302 43.472 42.752 42.312 41.992 41.692 41.482 41.242 41.012 40.762
2150.810 40.582 40.452 40.202 39.942 39.692 39.342 38.972 38.782 38.612 38.462
2170.100 38.402 38.232 38.232 38.312 38.292 38.462 38.692 38.702 38.602 38.452
2189.390 38.132 37.712 37.152 36.442 35.552 34.662 33.662 32.452 31.362 30.172
2208.680 28.942 27.892 26.852 25.842 24.792 23.822 22.962 21.992 21.092 20.212
2227.970 19.282 18.542 17.842 17.112 16.412 15.782 15.222 14.582 14.032 13.592
2247.259 13.102 12.572 12.122 11.632 11.042 10.482 9.972 9.612 9.272 8.842
2266.549 8.392 8.042 7.752 7.402 7.182 6.892 6.662 6.582 6.402 6.212
2285.839 6.042 5.842 5.632 5.532 5.462 5.392 5.202 4.982 4.772 4.622
2305.129 4.522 4.362 4.202 4.032 3.872 3.752 3.662 3.492 3.322 3.222
2324.418 3.122 3.062 2.922 2.842 2.832 2.662 2.622 2.682 2.592 2.542
2343.708 2.582 2.612 2.612 2.492 2.412 2.322 2.202 2.182 2.122 2.002
2362.998 2.002 2.112 2.062 1.992 1.922 1.852 1.872 1.932 1.862 1.802
2382.288 1.822 1.782 1.672 1.5844 1.622 1.612 1.612 1.652 1.5934 1.5098
2401.578 1.3987 1.384 1.4609 1.4389 1.4956 1.5353 1.4597 1.4216 1.3456 1.3595
2420.867 1.2807 1.2327 1.3748 1.3471 1.2684 1.2886 1.306 1.248 1.2218 1.2721
2440.157 1.3129 1.3263 1.2983 1.2106 1.2159 1.2559 1.2889 1.2357 1.1526 1.1145
2459.447 1.0341 1.136 1.2659 1.2448 1.2662 1.312 1.3632 1.4456 1.4034 1.3441
2478.737 1.3637 1.37 1.437 1.4549 1.4993 1.447 1.4168 1.4915 1.4991 1.5619
2498.026 1.622 1.672 1.642 1.722 1.742 1.632 1.692 1.812 1.772 1.672
2517.316 1.692 1.712 1.752 1.822 1.922 2.022 1.982 1.872 1.882 1.992
2536.606 2.072 2.102 2.102 2.122 2.092 2.102 2.132 2.072 2.142 2.122
2555.896 2.132 2.172 2.112 2.172 2.182 2.212 2.242 2.202 2.262 2.372
2575.186 2.402 2.312 2.272 2.442 2.442 2.372 2.422 2.342 2.292 2.292
2594.475 2.372 2.432 2.452 2.452 2.432 2.352 2.132 2.042 2.062 1.912
2613.765 1.832 1.842 1.822 1.802 1.822 1.822 1.732 1.5654 1.4899 1.4954
2633.055 1.4519 1.381 1.2422 1.1931 1.2418 1.2478 1.3105 1.3598 1.3714 1.3445
2652.345 1.1654 1.1535 1.3086 1.3236 1.3044 1.2477 1.3207 1.4183 1.503 1.5158
2671.634 1.4457 1.632 1.682 1.702 1.702 1.5049 1.5646 1.702 1.852 1.902
2690.924 1.902 1.972 1.932 2.062 2.232 2.172 2.172 2.342 2.532 2.692
2710.214 2.622 2.562 2.792 2.862 2.762 2.732 2.802 2.882 2.892 3.022
2729.504 3.182 3.122 3.172 3.232 3.222 3.252 3.212 3.152 3.092 3.032
2748.794 3.122 3.182 3.102 3.182 3.162 3.112 3.172 3.132 3.122 3.182
2768.083 3.252 3.342 3.322 3.362 3.522 3.542 3.472 3.532 3.702 3.772
2787.373 3.912 3.952 3.892 3.842 3.782 3.842 3.862 3.862 3.842 3.712
2806.663 3.582 3.612 3.562 3.432 3.302 3.252 3.192 2.992 2.982 2.872
2825.953 2.612 2.452 2.532 2.522 2.332 2.422 2.432 2.302 2.302 2.252
2845.242 2.352 2.372 2.232 2.222 2.372 2.452 2.622 2.812 2.922 2.962
2864.532 3.092 3.242 3.222 3.402 3.592 3.642 3.662 3.712 3.992 4.212
2883.822 4.212 4.212 4.302 4.412 4.312 4.252 4.132 3.822 3.522 3.372
2903.112 3.272 3.112 3.122 3.132 3.172 3.242 3.292 3.452 3.642 4.052
2922.401 4.612 5.082 5.522 5.942 6.372 6.872 7.142 7.572 8.152 8.462
2941.691 8.782 8.872 8.772 8.692 8.532 8.152 7.772 7.622 7.162 6.692
2960.981 6.322 5.752 5.262 4.842 4.342 3.922 3.632 3.412 3.132 2.832
2980.271 2.642 2.382 2.232 1.902 1.672 1.5418 1.3229 1.3442 1.4379 1.4309
2999.561 1.1823 1.0966 1.1843 1.1615 1.3491 1.3083 1.0661 1.2479 1.4291 1.3286
3018.850 1.4517 1.5787 1.4418 1.4395 1.4755 1.632 1.772 1.632 1.5726 1.622
3038.140 1.5932 1.5721 1.652 1.632 1.5106 1.4832 1.5539 1.692 1.702 1.782
3057.430 1.962 2.122 2.172 2.292 2.382 2.342 2.392 2.432 2.502 2.402
3076.720 2.212 1.892 1.5867 1.672 1.822 1.862 1.702 1.642 1.632 1.3649
3096.009 1.076 1.0021 1.0667 0.8743 0.7665 0.70214 0.5399 0.7842 0.69263 0.416
3115.299 0.60706 0.6006 0.5223 0.5668 0.66758 0.6452 0.537 0.5609 0.5616 0.503
3134.589 0.483 0.448 0.5455 0.65991 0.5727 0.511 0.5128 0.475 0.434 0.481
3153.879 0.484 0.362 0.189 0.163 0.407 0.611048 0.5483 0.431 0.417 0.48
3173.169 0.444 0.121 0.013 0.155 0.114 0.242 0.294 0.216 0.185 0.306
3192.458 0.491 0.342 0.303 0.444 0.311 0.19 0.216 0.305 0.396 0.395
3211.748 0.415 0.27 0.14 0.074 0.021 0.298 0.341 0.287 0.333 0.401
3231.038 0.446 0.226 0.204 0.317 0.36 0.4 0.263 0.077 0.138 0.232
3250.328 0.213 0.209 0.156 0.15 0.265 0.395 0.236 0.227 0.447 0.362
3269.617 0.372 0.385 0.318 0.337 0.312 0.216 0.243 0.331 0.379 0.321
3288.907 0.305 0.485 0.511 0.461 0.278 0.19 0.302 0.256 0.311 0.367
3308.197 0.245 0.204 0.211 0.467 0.5601 0.306 0.193 0.255 0.346 0.326
3327.487 0.474 0.327 0.249 0.393 0.285 0.108 0.209 0.325 0.136 0.41
3346.777 0.461 0.115 0.159 0.394 0.425 0.273 0.04 0.11 0.145 0.083
3366.066 0.314 0.311 0.096 0.254 0.438 0.324 0.138 0 0.114 0.308
3385.356 0.302 0.266 0.27 0.141 0.152 0.346 0.381 0.241 0.281 0.402
3404.646 0.474 0.329 0.316 0.408 0.371 0.47 0.597 0.7568 0.620358 0.245
3423.936 0.375 0.5781 0.421 0.435 0.60342 0.5423 0.5441 0.6425 0.426 0.276
3443.225 0.271 0.254 0.225 0.196 0.14 0.306 0.313 0.23 0.444 0.426
3462.515 0.423 0.444 0.502 0.461 0.386 0.365 0.466 0.65468 0.39 0.303
3481.805 0.6293 0.5695 0.479 0.586 0.70707 0.62325 0.5237 0.495 0.439 0.5322
3501.095 0.486 0.5397 0.62408 0.5909 0.5767 0.3 0.248 0.434 0.37 0.303
3520.385 0.222 0.268 0.328 0.354 0.381 0.423 0.403 0.439 0.5133 0.427
3539.674 0.428 0.425 0.312 0.215 0.244 0.511 0.59 0.402 0.314 0.217
3558.964 0.364 0.5524 0.63666 0.63132 0.5282 0.68311 0.60802 0.351 0.209 0.251
3578.254 0.337 0.309 0.333 0.445 0.5295 0.415 0.369 0.364 0.381 0.543
3597.544 0.5521 0.423 0.343 0.363 0.392 0.477 0.5449 0.419 0.205 0.174
3616.833 0.415 0.293 0.303 0.5713 0.5247 0.491 0.431 0.459 0.5132 0.5823
3636.123 0.408 0.106 0.089 0.252 0.335 0.318 0.426 0.402 0.5225 0.5847
3655.413 0.407 0.363 0.308 0.321 0.477 0.395 0.249 0.43 0.556 0.5223
3674.703 0.5915 0.5325 0.5565 0.63316 0.5414 0.60758 0.5868 0.501 0.60508 0.52
3693.993 0.342 0.5342 0.7815 0.6028 0.466 0.438 0.46 0.493 0.464 0.503
3713.282 0.5757 0.7311 0.482 0.357 0.445 0.287 0.345 0.45 0.5149 0.5996
3732.572 0.5161 0.271 0.403 0.7341 0.71016 0.439 0.331 0.491 0.5729 0.482
3751.862 0.445 0.5809 0.504 0.505 0.617512 0.6003 0.5221 0.5159 0.5325 0.483
3771.152 0.5769 0.63199 0.67876 0.7412 0.60704 0.581 0.5162 0.397 0.5377 0.556
3790.441 0.464 0.5729 0.402 0.406 0.5503 0.502 0.444 0.339 0.45 0.620943
3809.731 0.8282 0.68828 0.51 0.439 0.508 0.7613 0.70018 0.7154 0.64984 0.758
3829.021 0.7529 0.517 0.5227 0.391 0.47 0.464 0.465 0.7208 0.69228 0.6337
3848.311 0.67719 0.63178 0.442 0.44 0.429 0.105 0.22 0.5337 0.612897 0.7317
3867.601 0.793 0.8132 0.7771 0.5439 0.498 0.7528 0.836 0.8148 0.8497 0.7427
3886.890 0.7911 0.7698 0.69475 0.86 1.0008 0.9894 0.7293 0.5404 0.5648 0.7644
3906.180 0.9665 0.799 0.7266 1.062 1.1166 0.9962 0.9066 1.0795 1.2723 1.1459
3925.470 0.9036 0.7064 0.8589 1.0985 1.1612 1.1514 1.043 1.0319 1.0479 1.008
3944.760 1.1197 0.8774 0.9092 1.3477 1.2964 1.0706 1.0977 1.18 1.1496 1.2044
3964.049 1.1927 1.1356 1.2486 1.403 1.3106 1.1282 1.2082 1.2105 1.1364 1.0999
3983.339 1.2501 1.5155 1.692 1.632 1.5655 1.5863 1.4038 1.216 1.3231 1.632
##END=
