##TITLE=Methyl 3-isothiocyanatopropionate
##JCAMP-DX=4.24
##DATA TYPE=INFRARED SPECTRUM
##ORIGIN=EPA-IR VAPOR PHASE LIBRARY
##OWNER=SRD/NIST
Collection (C) 2018 copyright by the U.S. Secretary of Commerce
on behalf of the United States of America. All rights reserved.
##CAS REGISTRY NO=18967-35-6
##MOLFORM=C 5 H 7 N O 2 S
##$NIST SOURCE=MSDC-IR
##STATE=gas
##XUNITS=1/CM
##YUNITS=ABSORBANCE
##XFACTOR=1.
##YFACTOR=0.001
##DELTAX=1.92898
##FIRSTX=549.8
##LASTX=4000.7
##FIRSTY=14.77
##MAXX=4000.7
##MINX=549.759
##MAXY=0.48919
##MINY=0
##NPOINTS=1790
##XYDATA=(X++(Y..Y))
549.759 14.77 14.71 14.58 14.46 14.76 14.36 13.88 14.22 13.9 12.87
569.049 12.5 12.56 12.05 11.61 11.61 11.29 10.62 10.31 10.04 9.46
588.339 9.06 9.02 8.65 8.15 8.15 7.81 7.38 7.3 7.08 6.84
607.628 6.69 6.71 6.7 6.48 6.17 6.06 6.08 6.11 6.23 6.25
626.918 6.06 5.92 6.04 6.21 6.38 6.37 6.18 6.4 6.81 7.25
646.208 7.46 7.62 7.91 8.1 8.43 8.8 9.14 9.39 9.84 10.27
665.498 10.7 11.27 11.68 11.71 11.6 11.34 11.06 10.69 9.66 8.71
684.787 7.96 7.09 6.42 5.82 5.13 4.57 3.97 3.5 3.14 2.96
704.077 2.93 2.78 2.64 2.47 2.34 2.26 2.07 2.18 2.44 2.33
723.367 2.27 2.27 2.3 2.43 2.61 2.59 2.62 2.49 2.33 2.49
742.657 2.53 2.5 2.5 2.5 2.49 2.35 2.29 2.25 2.22 2.28
761.947 2.07 2.03 2.08 2.22 2.16 2 2 2.11 2.1 1.95
781.236 2.15 2.18 2.03 2.15 2.29 2.32 2.26 2.13 2.32 2.48
800.526 2.62 2.87 2.93 3.07 3.42 3.6 3.7 3.92 4.24 4.59
819.816 5 5.61 6.07 6.34 6.72 7.21 7.74 8.19 8.39 8.61
839.106 8.77 8.72 8.62 8.37 8.03 7.66 7.19 6.81 6.55 6.25
858.395 5.72 5.22 5.02 5 4.91 4.97 5.23 5.2 5.18 5.32
877.685 5.53 5.81 6.23 6.46 6.41 6.61 6.82 7.01 7.35 7.47
896.975 7.75 8.06 8.18 8.58 8.79 9.06 9.63 10.09 10.74 11.23
916.265 11.59 12 12.43 12.68 12.75 12.81 12.68 12.68 12.75 12.57
935.555 12.38 12.32 12.11 11.8 11.57 11.3 11.1 11.25 11.37 11.2
954.844 11.01 10.77 10.57 10.47 10.4 10.1 9.92 10.03 10.22 10.34
974.134 10.46 10.9 11.44 12.29 13.2 13.86 14.39 15.04 15.84 16.09
993.424 16.05 16.25 16.62 17.16 17.66 18.26 19.01 19.69 20.1 20.54
1012.714 20.98 21.19 21.07 20.9 20.88 20.72 20.53 20.07 19.79 19.94
1032.003 19.88 20.14 20.75 21.17 21.59 22.39 23.37 24.27 25.07 25.59
1051.293 25.86 25.7 25.71 25.95 25.3 24.44 23.71 22.47 21.21 20.14
1070.583 19.09 18.31 17.64 16.93 16.2 16.12 16.23 15.7 15.38 15.38
1089.873 15.54 15.49 15.48 15.69 16.17 16.66 16.63 16.71 17.08 17.48
1109.163 17.97 18.12 18.47 18.61 18.25 18.57 19.15 19.59 20.5 21.84
1128.452 22.99 23.8 24.89 26.24 27.69 29.42 31.05 33 35.6 38.46
1147.742 41.83 45.95 50.41 54.92 60.26 66.75 73.66 81.11 88.98 97.3
1167.032 106.55 115.91 125.04 133.59 141.11 147.74 153.13 156.12 157.27 157.62
1186.322 156.46 153.61 150.04 146.34 142.67 138.93 135.23 131.14 126.57 122.08
1205.611 116.65 110.2 104.19 99.25 94.88 91.36 88.32 85.99 84.6 83.82
1224.901 83.78 83.85 84.21 84.9 85.71 87.05 88.18 89.12 90.63 92.55
1244.191 94.51 95.92 97 98 98 97.11 95.55 92.56 88.48 84.09
1263.481 79.33 74.37 69.29 64.02 58.89 54.07 49.71 45.89 42.56 39.7
1282.771 37.38 35.84 34.71 33.55 32.92 32.61 32.37 32.37 32.47 32.67
1302.060 32.94 33.23 33.46 33.6 33.74 33.82 33.96 34.02 33.99 33.96
1321.350 34.02 34.32 34.78 35.59 36.79 38.45 40.68 43.55 47.15 51.47
1340.640 56.49 62.13 68.44 75.3 82.27 88.97 95.1 100.33 104.51 107.7
1359.930 109.53 109.82 108.69 106.38 102.93 98.59 93.64 87.95 81.68 75.12
1379.219 68.36 61.68 55.3 49.38 43.93 38.93 34.66 31.03 27.92 25.37
1398.509 23.38 21.82 20.67 19.93 19.55 19.42 19.64 20.08 20.62 21.37
1417.799 22.29 23.37 24.73 26.25 28.12 30.49 33.5 37.31 41.86 46.54
1437.089 50.69 53.52 55.1 56.22 56.79 55.45 51.96 48.08 45.16 43.26
1456.378 41.96 40.96 39.73 37.79 35.09 31.88 28.4 24.83 21.38 18.24
1475.668 15.78 13.86 12.39 11.32 10.53 9.9 9.4 8.98 8.58 8.26
1494.958 7.99 7.69 7.38 7.16 6.88 6.51 6.26 6.12 5.96 5.74
1514.248 5.58 5.49 5.35 5.17 5.07 4.99 4.9 4.79 4.7 4.67
1533.538 4.58 4.49 4.47 4.46 4.39 4.33 4.28 4.28 4.35 4.31
1552.827 4.24 4.3 4.31 4.22 4.2 4.16 4.13 4.2 4.2 4.11
1572.117 4.09 4.07 3.94 3.87 3.91 3.89 3.87 3.87 3.81 3.71
1591.407 3.57 3.54 3.56 3.55 3.55 3.53 3.51 3.53 3.49 3.52
1610.697 3.58 3.53 3.43 3.41 3.43 3.53 3.57 3.5 3.5 3.52
1629.986 3.51 3.47 3.41 3.41 3.53 3.59 3.56 3.54 3.58 3.57
1649.276 3.55 3.53 3.51 3.6 3.7 3.7 3.68 3.74 3.8 3.76
1668.566 3.81 3.89 3.96 3.91 3.99 4.12 4.19 4.4 4.63 4.86
1687.856 5.11 5.37 5.72 6.1 6.51 7.05 7.57 8.22 9.07 10.02
1707.146 11.09 12.28 13.64 15.12 16.88 18.9 21.2 23.82 26.69 29.97
1726.435 33.68 37.79 42.47 47.7 53.64 60.23 67.54 75.93 84.96 94.72
1745.725 105.29 116.62 128.49 140.57 152.53 163.81 174.42 184.14 192.37 197.79
1765.015 198.12 193.01 184.47 173.63 160.25 145.47 129.74 113.75 98.85 85.68
1784.305 74.22 64.28 55.83 48.59 42.31 36.78 31.93 27.59 23.65 20.25
1803.594 17.45 15.12 13.25 11.76 10.52 9.49 8.69 8.05 7.47 6.96
1822.884 6.53 6.22 5.98 5.75 5.6 5.55 5.48 5.33 5.24 5.23
1842.174 5.26 5.24 5.21 5.29 5.33 5.35 5.38 5.5 5.53 5.47
1861.464 5.58 5.7 5.79 5.94 6.11 6.24 6.41 6.58 6.76 6.94
1880.754 7.08 7.23 7.49 7.77 7.99 8.3 8.6 8.9 9.27 9.58
1900.043 9.94 10.36 10.74 11.19 11.64 12.12 12.67 13.19 13.68 14.21
1919.333 14.86 15.56 16.24 16.93 17.71 18.51 19.29 20.19 21.13 22.07
1938.623 23.11 24.18 25.28 26.55 27.88 29.25 30.67 32.22 33.84 35.58
1957.913 37.43 39.34 41.47 43.74 46.13 48.7 51.5 54.54 57.77 61.19
1977.202 64.89 68.96 73.3 78 83.09 88.53 94.31 100.54 107.14 113.96
1996.492 121.23 129.04 137.19 145.66 154.67 164.15 174.06 184.45 195.25 206.59
2015.782 218.5 230.91 243.89 257.34 271.26 285.65 300.34 315.37 330.62 345.97
2035.072 361.23 376.42 391.56 406.21 420.28 433.75 446.28 457.76 468 476.41
2054.362 483.03 487.53 489.19 487.67 482.7 474.19 462.04 446.14 426.92 404.79
2073.651 380.63 355.55 330 304.9 280.83 258.26 237.63 219.11 202.86 188.88
2092.941 176.94 166.68 157.96 150.62 144.21 138.45 133.3 128.61 124.31 120.17
2112.231 116.16 112.26 108.37 104.51 100.77 97.14 93.59 90.12 86.84 83.86
2131.521 81.15 78.65 76.32 74.15 72.21 70.54 69.08 67.72 66.42 65.22
2150.810 64.11 62.99 61.92 60.98 59.98 58.93 58.01 57.11 56.04 55.06
2170.100 54.11 53.12 52.26 51.39 50.52 49.66 48.89 48.25 47.63 47.12
2189.390 46.68 46.34 46.03 45.83 45.79 45.73 45.84 46.04 46.17 46.3
2208.680 46.42 46.4 46.22 45.83 45.24 44.39 43.27 41.84 40.11 38.19
2227.970 36.13 33.94 31.61 29.45 27.4 25.37 23.56 21.92 20.41 19.14
2247.259 18.01 17 16.11 15.37 14.6 13.87 13.34 12.84 12.33 11.81
2266.549 11.29 10.86 10.46 10.04 9.63 9.22 8.89 8.6 8.29 7.99
2285.839 7.7 7.37 7.12 6.94 6.71 6.51 6.33 6.18 5.98 5.77
2305.129 5.58 5.39 5.28 5.2 5.02 4.83 4.69 4.49 4.43 4.38
2324.418 4.31 4.23 4.16 4.1 3.95 3.92 3.91 3.81 3.73 3.7
2343.708 3.67 3.59 3.51 3.46 3.44 3.34 3.21 3.17 3.21 3.21
2362.998 3.16 3.05 2.97 2.95 2.93 2.83 2.75 2.75 2.75 2.7
2382.288 2.58 2.48 2.42 2.38 2.3 2.24 2.24 2.25 2.22 2.22
2401.578 2.16 2.08 2.03 1.97 1.92 1.92 1.94 1.8 1.75 1.79
2420.867 1.79 1.8 1.82 1.82 1.76 1.66 1.66 1.67 1.68 1.69
2440.157 1.64 1.67 1.64 1.62 1.65 1.66 1.71 1.68 1.6 1.59
2459.447 1.68 1.72 1.72 1.68 1.71 1.79 1.77 1.78 1.77 1.74
2478.737 1.72 1.74 1.76 1.84 1.9 1.93 1.88 1.84 1.86 1.88
2498.026 1.89 1.92 2 2 1.97 1.93 2 1.99 1.93 1.98
2517.316 1.98 2.03 2.08 2.07 2.13 2.11 2.08 2.15 2.23 2.18
2536.606 2.21 2.32 2.3 2.25 2.22 2.14 2.2 2.32 2.27 2.28
2555.896 2.4 2.54 2.54 2.49 2.53 2.58 2.56 2.47 2.38 2.32
2575.186 2.25 2.17 2.19 2.28 2.25 2.18 2.09 1.97 1.92 1.85
2594.475 1.81 1.78 1.77 1.84 1.8 1.77 1.8 1.82 1.82 1.7
2613.765 1.62 1.65 1.67 1.57 1.57 1.58 1.56 1.54 1.5 1.59
2633.055 1.6 1.62 1.68 1.69 1.67 1.6 1.61 1.73 1.81 1.79
2652.345 1.79 1.82 1.81 1.78 1.84 1.92 1.96 2.05 2.12 2.18
2671.634 2.24 2.37 2.43 2.49 2.64 2.75 2.83 2.96 3.13 3.31
2690.924 3.49 3.64 3.79 4.04 4.26 4.41 4.63 4.81 5.04 5.31
2710.214 5.56 5.78 5.94 6.16 6.39 6.64 6.87 7.15 7.53 7.86
2729.504 8.09 8.21 8.33 8.6 8.74 8.75 8.75 8.68 8.51 8.27
2748.794 7.99 7.74 7.35 6.98 6.69 6.31 5.94 5.6 5.35 5.07
2768.083 4.71 4.53 4.33 4.2 4.13 3.92 3.72 3.6 3.53 3.38
2787.373 3.32 3.28 3.25 3.2 3.12 3.08 3.03 3.06 3.11 3.23
2806.663 3.21 3.04 3.1 3.14 3.07 3.09 3.11 3.21 3.32 3.47
2825.953 3.66 3.8 3.94 4.09 4.31 4.51 4.77 5.17 5.58 6.03
2845.242 6.62 7.24 7.83 8.24 8.38 8.45 8.45 8.3 8.11 7.79
2864.532 7.37 7.03 6.85 6.78 6.93 7.17 7.48 7.99 8.54 9.22
2883.822 9.88 10.43 11.02 11.64 12.14 12.64 13.02 13.32 13.46 13.37
2903.112 13.38 13.32 13.1 13.03 12.91 12.72 12.53 12.29 12.23 12.28
2922.401 12.38 12.75 13.32 14.05 14.94 15.93 17.31 19.07 21.05 23.34
2941.691 25.7 28.31 31.13 34.09 37.28 40.65 44.6 49 53.2 56.29
2960.981 57.46 57 55.74 53.92 51.06 46.6 40.97 35.51 31.06 27.67
2980.271 25.1 23.07 21.62 20.4 19.18 18.28 17.6 17.06 16.53 16.14
2999.561 15.8 15.43 15.16 14.95 14.58 14.15 13.62 13.16 12.85 12.5
3018.850 12.01 11.61 11.43 11.16 10.82 10.56 10.27 10 9.69 9.37
3038.140 9.04 8.61 8.21 7.65 7.24 6.9 6.46 6.08 5.71 5.21
3057.430 4.89 4.75 4.47 4.14 3.99 3.78 3.67 3.66 3.58 3.48
3076.720 3.35 3.29 3.25 3.23 3.18 3.13 2.99 2.77 2.8 2.88
3096.009 2.72 2.6 2.72 2.67 2.57 2.5 2.27 2.35 2.28 2.23
3115.299 2.24 2.15 2.18 2.03 1.93 1.88 1.77 1.74 1.71 1.64
3134.589 1.51 1.42 1.41 1.3893 1.48 1.49 1.367 1.2516 1.1034 1.0056
3153.879 1.0987 1.2134 1.2496 1.1396 0.9943 1.0074 0.9614 0.8576 0.9302 0.9607
3173.169 0.8942 0.9649 1.0611 1.0699 0.8573 0.7425 0.8012 0.8219 0.8478 0.7843
3192.458 0.7123 0.5303 0.3447 0.5218 0.6244 0.6214 0.6507 0.5214 0.5245 0.5263
3211.748 0.5175 0.43168 0.4361 0.48535 0.45113 0.3774 0.3464 0.5257 0.5068 0.41796
3231.038 0.2963 0.244 0.3219 0.38103 0.3347 0.223 0.229 0.156 0.239 0.3333
3250.328 0.235 0.118 0.176 0.31 0.266 0.3226 0.3348 0.206 0.194 0.231
3269.617 0.278 0.224 0.221 0.284 0.197 0.111 0.198 0.2911 0.276 0.201
3288.907 0.133 0.077 0.187 0.43843 0.38273 0.216 0.072 0 0.128 0.228
3308.197 0.224 0.29 0.3044 0.23 0.111 0.046 0.127 0.3284 0.3119 0.152
3327.487 0.113 0.205 0.341 0.2914 0.21 0.238 0.22 0.215 0.3168 0.275
3346.777 0.14 0.146 0.2 0.094 0.182 0.3662 0.3222 0.271 0.246 0.398663
3366.066 0.4975 0.43239 0.3744 0.2983 0.3413 0.284 0.204 0.242 0.284 0.3198
3385.356 0.3406 0.46454 0.5071 0.47935 0.5652 0.43787 0.305 0.40633 0.48453 0.46779
3404.646 0.5069 0.5067 0.3778 0.44976 0.47213 0.41352 0.48 0.6523 0.5896 0.4919
3423.936 0.44382 0.391111 0.6218 0.7324 0.5959 0.4985 0.44114 0.42307 0.5168 0.5966
3443.225 0.5376 0.47751 0.42622 0.5586 0.6835 0.6198 0.7517 0.8686 0.8191 0.7502
3462.515 0.8362 0.7333 0.7901 1.0163 1.0337 1.0049 0.9436 1.0989 1.41 1.4
3481.805 1.3143 1.57 1.7 1.69 1.74 1.81 1.92 2.05 2.23 2.28
3501.095 2.27 2.41 2.36 2.32 2.43 2.44 2.41 2.27 2.14 2.14
3520.385 2.07 1.87 1.71 1.53 1.53 1.51 1.3547 1.377 1.3778 1.238
3539.674 1.1003 1.1237 1.1466 0.9897 0.8213 0.8209 0.8673 0.7427 0.6782 0.8179
3558.964 0.7553 0.48628 0.42695 0.5442 0.42076 0.3265 0.4182 0.5285 0.5657 0.5399
3578.254 0.5046 0.5267 0.6345 0.6625 0.5897 0.47259 0.43375 0.5057 0.6017 0.598
3597.544 0.6653 0.7452 0.6364 0.5921 0.6337 0.5733 0.4949 0.46449 0.4708 0.3727
3616.833 0.328 0.3773 0.391614 0.3126 0.40594 0.44803 0.3522 0.48826 0.4938 0.3174
3636.123 0.28 0.319 0.3691 0.42693 0.3519 0.311 0.45059 0.5794 0.5507 0.5012
3655.413 0.47619 0.41184 0.40415 0.3051 0.224 0.278 0.3528 0.3793 0.271 0.4482
3674.703 0.5989 0.48131 0.40694 0.392158 0.3436 0.3067 0.39077 0.42272 0.5542 0.46712
3693.993 0.3167 0.3266 0.396289 0.48406 0.5015 0.4926 0.44593 0.47758 0.353 0.41138
3713.282 0.5262 0.5295 0.5756 0.6003 0.546 0.46045 0.44418 0.276 0.248 0.42716
3732.572 0.4951 0.3534 0.221 0.247 0.225 0.277 0.47889 0.6465 0.5663 0.3763
3751.862 0.334 0.3652 0.44674 0.47372 0.46877 0.5391 0.5121 0.48768 0.5101 0.5364
3771.152 0.5521 0.5777 0.5072 0.5674 0.6992 0.6703 0.5913 0.5115 0.5728 0.6487
3790.441 0.5227 0.508 0.47187 0.46477 0.632 0.5327 0.41962 0.389205 0.5138 0.5786
3809.731 0.44831 0.5324 0.6579 0.5509 0.45669 0.5816 0.7593 0.6897 0.6421 0.6614
3829.021 0.7069 0.6757 0.6003 0.5369 0.4839 0.5716 0.5666 0.5335 0.6982 0.6256
3848.311 0.5413 0.7026 0.8464 0.8936 0.8564 0.914 0.8494 0.8233 0.7661 0.671
3867.601 0.6582 0.7066 0.6748 0.7206 0.8927 0.8804 0.7846 0.8418 0.9226 0.9434
3886.890 0.8449 0.6524 0.722 0.9104 0.9847 0.8638 0.9627 0.9233 0.7729 0.8853
3906.180 0.9632 0.9293 0.9562 1.0465 1.0615 1.0413 0.9128 0.8925 0.9559 0.94
3925.470 1.0064 1.1339 1.1949 1.2529 1.1531 1.2126 1.265 1.234 1.2889 1.2037
3944.760 1.2573 1.3714 1.3057 1.3058 1.2725 1.2393 1.3659 1.43 1.42 1.49
3964.049 1.53 1.53 1.56 1.61 1.62 1.6 1.72 1.81 1.77 1.7
3983.339 1.7 1.63 1.51 1.59 1.82 1.89 1.97 2.1 2.18 2.24
##END=
