##TITLE=2-Chlorobenzyl isothiocyanate
##JCAMP-DX=4.24
##DATA TYPE=INFRARED SPECTRUM
##ORIGIN=EPA-IR VAPOR PHASE LIBRARY
##OWNER=SRD/NIST
Collection (C) 2018 copyright by the U.S. Secretary of Commerce
on behalf of the United States of America. All rights reserved.
##CAS REGISTRY NO=18967-44-7
##MOLFORM=C 8 H 6 Cl N S
##$NIST SOURCE=MSDC-IR
##STATE=gas
##XUNITS=1/CM
##YUNITS=ABSORBANCE
##XFACTOR=1.
##YFACTOR=0.001
##DELTAX=1.92898
##FIRSTX=549.8
##LASTX=4000.7
##FIRSTY=11.897
##MAXX=4000.7
##MINX=549.759
##MAXY=0.440447
##MINY=0
##NPOINTS=1790
##XYDATA=(X++(Y..Y))
549.759 11.897 12.417 12.447 12.467 12.897 13.167 13.107 13.097 13.177 13.247
569.049 13.357 13.287 13.357 13.437 13.367 13.227 12.897 12.917 12.697 12.517
588.339 12.617 12.497 12.307 11.997 11.627 11.577 11.487 11.057 10.767 10.567
607.628 10.447 10.217 9.997 9.587 9.097 8.977 8.527 8.047 7.827 7.347
626.918 6.927 6.747 6.327 5.717 5.527 5.307 5.107 4.997 4.657 4.567
646.208 4.597 4.447 4.377 4.577 4.827 5.097 5.327 5.797 6.567 7.417
665.498 8.547 9.907 11.397 13.027 14.707 16.197 17.667 19.367 20.847 22.397
684.787 24.197 25.947 27.587 28.697 29.407 29.547 28.887 27.407 25.357 22.727
704.077 19.997 17.837 16.157 14.927 14.017 13.537 13.477 13.907 14.817 16.577
723.367 19.307 23.137 28.127 33.867 40.427 47.207 53.757 59.827 64.707 68.037
742.657 70.417 72.347 72.497 67.447 58.057 50.007 43.677 37.077 30.487 24.507
761.947 19.467 15.377 12.447 10.307 8.637 7.497 6.497 5.827 5.517 4.997
781.236 4.657 4.467 4.337 4.287 4.167 4.287 4.657 5.047 5.447 6.077
800.526 6.597 6.907 7.277 7.887 8.587 9.187 9.557 9.817 10.317 10.497
819.816 10.257 9.857 9.457 8.717 7.747 7.027 6.187 5.467 4.907 4.517
839.106 4.187 3.997 3.977 3.657 3.467 3.417 3.277 3.317 3.227 2.977
858.395 3.007 3.177 3.137 2.987 2.817 2.767 2.927 2.857 2.667 2.657
877.685 2.627 2.497 2.387 2.217 2.307 2.527 2.587 2.597 2.527 2.457
896.975 2.567 2.617 2.587 2.807 2.847 2.857 3.107 3.147 3.247 3.397
916.265 3.437 3.557 3.517 3.567 3.727 3.877 3.977 4.077 4.177 4.297
935.555 4.417 4.437 4.467 4.427 4.107 3.917 3.837 3.767 3.607 3.407
954.844 3.437 3.347 3.127 2.917 2.917 2.897 2.777 2.707 2.567 2.597
974.134 2.687 2.807 2.937 2.887 2.887 2.957 3.157 3.377 3.437 3.547
993.424 3.717 3.807 4.047 4.457 4.547 4.447 4.527 4.397 4.507 4.757
1012.714 4.937 5.097 5.427 6.217 6.867 7.687 8.877 10.417 12.467 14.947
1032.003 17.917 21.147 24.017 26.577 29.287 32.277 35.817 38.577 39.747 39.937
1051.293 39.337 38.567 37.027 34.287 30.657 26.757 22.687 18.697 15.467 12.807
1070.583 10.667 9.037 8.037 7.227 6.567 6.447 6.417 6.147 6.037 6.157
1089.873 5.897 6.037 6.437 6.867 7.517 7.967 8.237 8.407 8.367 8.447
1109.163 8.957 8.967 8.937 9.247 9.527 9.577 9.747 10.337 11.207 11.677
1128.452 11.967 12.397 12.897 13.087 12.627 12.267 11.627 10.677 9.757 8.657
1147.742 7.667 6.817 6.137 6.067 6.147 6.057 6.017 6.097 6.187 6.117
1167.032 5.877 5.637 5.627 5.607 5.507 5.317 5.197 5.277 5.297 5.357
1186.322 5.777 6.097 6.017 6.077 6.517 6.967 7.077 7.347 7.707 7.707
1205.611 7.867 8.057 7.917 7.627 7.737 8.027 7.977 7.987 7.727 7.347
1224.901 7.267 7.117 6.727 6.477 6.367 6.277 6.307 6.277 6.137 5.917
1244.191 6.037 5.937 5.697 5.487 5.427 5.677 5.557 5.797 6.117 6.327
1263.481 6.867 7.467 8.157 8.887 9.787 10.507 10.937 11.297 11.507 11.487
1282.771 11.097 10.567 10.307 9.997 9.807 9.897 10.207 10.797 11.467 12.207
1302.060 13.067 13.987 14.977 16.067 17.257 18.597 20.127 21.737 23.447 25.447
1321.350 27.777 30.577 33.937 37.897 42.747 48.777 56.127 64.887 74.497 83.297
1340.640 89.317 91.357 89.747 85.507 79.157 70.837 60.507 49.377 39.637 32.307
1359.930 27.147 23.567 20.967 18.927 17.167 15.667 14.277 12.947 11.777 10.667
1379.219 9.717 8.877 8.107 7.467 6.977 6.577 6.247 6.037 5.867 5.777
1398.509 5.797 5.827 5.877 5.947 6.087 6.277 6.557 6.877 7.277 7.777
1417.799 8.437 9.367 10.507 11.987 13.867 16.227 19.337 23.107 27.547 32.407
1437.089 37.477 42.137 46.277 49.857 52.157 52.767 51.977 50.297 47.757 44.257
1456.378 39.657 34.487 29.717 25.817 23.397 22.297 22.117 22.477 23.127 23.787
1475.668 24.257 24.447 24.187 23.397 22.187 20.587 18.767 16.797 14.647 12.647
1494.958 10.747 8.947 7.527 6.427 5.577 4.867 4.247 3.807 3.447 3.137
1514.248 2.957 2.737 2.537 2.477 2.367 2.237 2.127 2.087 2.157 2.167
1533.538 2.157 2.157 2.177 2.217 2.347 2.507 2.547 2.707 2.917 3.097
1552.827 3.377 3.677 4.047 4.497 5.257 6.147 7.167 8.317 9.417 10.727
1572.117 12.047 13.027 13.757 14.237 14.287 14.027 13.577 12.647 11.627 11.007
1591.407 10.617 10.267 9.757 9.207 8.727 8.107 7.257 6.347 5.507 4.817
1610.697 4.257 3.767 3.527 3.327 3.177 3.057 2.837 2.687 2.557 2.427
1629.986 2.357 2.287 2.137 2.027 1.947 1.857 1.847 1.857 1.857 1.827
1649.276 1.757 1.677 1.6754 1.737 1.817 1.837 1.797 1.827 1.917 1.987
1668.566 2.027 2.107 2.267 2.357 2.387 2.457 2.527 2.527 2.537 2.597
1687.856 2.607 2.517 2.427 2.337 2.197 2.137 2.087 2.047 2.047 2.057
1707.146 2.087 2.097 2.077 2.067 2.057 2.047 2.017 1.997 2.027 1.977
1726.435 1.937 1.967 1.957 1.887 1.847 1.887 1.857 1.907 1.897 1.807
1745.725 1.817 1.757 1.747 1.747 1.6891 1.697 1.717 1.737 1.777 1.727
1765.015 1.807 1.927 1.917 1.897 1.917 2.027 2.237 2.477 2.647 2.827
1784.305 3.017 3.167 3.307 3.397 3.437 3.507 3.557 3.547 3.447 3.337
1803.594 3.307 3.307 3.247 3.177 3.127 3.107 3.147 3.167 3.247 3.407
1822.884 3.547 3.667 3.817 3.887 3.927 3.957 3.947 3.897 3.777 3.697
1842.174 3.697 3.657 3.617 3.607 3.697 3.817 3.907 4.027 4.187 4.347
1861.464 4.497 4.677 4.857 5.027 5.287 5.627 5.877 6.107 6.337 6.627
1880.754 6.927 7.167 7.407 7.687 7.997 8.267 8.587 9.007 9.407 9.817
1900.043 10.357 10.917 11.497 12.077 12.607 13.087 13.527 13.907 14.267 14.667
1919.333 15.067 15.547 16.057 16.577 17.177 17.907 18.757 19.707 20.727 21.777
1938.623 22.987 24.237 25.507 26.917 28.307 29.687 31.127 32.657 34.197 35.787
1957.913 37.617 39.547 41.567 43.897 46.477 49.237 52.277 55.497 58.887 62.727
1977.202 66.757 71.087 75.847 80.907 86.327 92.157 98.427 105.097 112.217 119.757
1996.492 127.937 136.647 145.867 155.777 166.197 177.237 188.947 201.267 214.117 227.427
2015.782 241.207 255.287 269.547 284.097 298.667 313.047 327.237 341.177 354.747 367.777
2035.072 380.397 392.597 404.107 414.577 423.827 431.557 437.147 440.077 440.447 438.067
2054.362 433.307 426.837 418.657 409.207 398.537 386.697 373.547 358.987 343.357 326.897
2073.651 309.717 292.247 275.147 258.697 243.237 228.997 216.107 204.357 193.667 183.957
2092.941 174.937 166.527 158.617 151.037 143.737 136.747 130.087 123.727 117.487 111.427
2112.231 105.767 100.307 95.027 90.057 85.267 80.827 76.907 73.317 70.037 67.147
2131.521 64.687 62.637 60.947 59.557 58.367 57.447 56.727 56.067 55.577 55.277
2150.810 54.987 54.727 54.597 54.597 54.687 54.827 55.037 55.317 55.677 56.157
2170.100 56.717 57.257 57.787 58.387 58.907 59.217 59.337 59.257 58.957 58.417
2189.390 57.577 56.437 55.087 53.497 51.717 49.727 47.817 45.967 44.067 42.337
2208.680 40.677 39.087 37.617 36.167 34.807 33.527 32.187 30.877 29.607 28.287
2227.970 26.997 25.847 24.827 23.877 22.987 22.127 21.327 20.507 19.737 18.967
2247.259 18.137 17.297 16.427 15.647 14.947 14.287 13.657 13.047 12.527 12.037
2266.549 11.537 11.117 10.637 10.147 9.807 9.467 9.077 8.787 8.487 8.237
2285.839 8.027 7.767 7.497 7.247 7.107 6.947 6.817 6.687 6.427 6.197
2305.129 5.977 5.767 5.617 5.417 5.307 5.187 5.087 4.977 4.827 4.747
2324.418 4.597 4.407 4.317 4.177 3.997 3.837 3.687 3.607 3.497 3.427
2343.708 3.307 3.187 3.137 3.057 2.967 2.917 2.827 2.767 2.707 2.587
2362.998 2.527 2.477 2.437 2.447 2.397 2.317 2.277 2.207 2.217 2.267
2382.288 2.217 2.127 2.167 2.137 2.077 2.077 2.077 2.067 1.987 1.977
2401.578 1.947 1.867 1.907 1.967 1.917 1.877 1.867 1.857 1.867 1.837
2420.867 1.817 1.837 1.917 1.917 1.867 1.907 1.867 1.837 1.877 1.827
2440.157 1.827 1.867 1.847 1.827 1.807 1.797 1.807 1.837 1.917 1.977
2459.447 1.927 1.827 1.877 1.967 1.907 1.877 1.957 1.947 1.957 2.017
2478.737 2.067 2.127 2.097 2.097 2.147 2.117 2.167 2.257 2.187 2.147
2498.026 2.207 2.197 2.227 2.317 2.337 2.277 2.237 2.257 2.327 2.377
2517.316 2.357 2.337 2.387 2.467 2.517 2.517 2.547 2.617 2.667 2.667
2536.606 2.667 2.737 2.767 2.737 2.807 2.957 2.947 2.877 2.857 2.937
2555.896 3.087 3.037 2.957 3.017 3.127 3.177 3.167 3.177 3.177 3.097
2575.186 3.017 3.007 2.977 2.917 2.847 2.737 2.627 2.547 2.527 2.447
2594.475 2.357 2.367 2.357 2.287 2.187 2.197 2.227 2.157 2.117 2.127
2613.765 2.117 2.127 2.117 2.077 2.077 2.037 2.057 2.127 2.097 2.087
2633.055 2.027 1.967 2.067 2.137 2.117 2.147 2.177 2.177 2.257 2.247
2652.345 2.167 2.077 2.047 1.967 1.837 1.947 2.007 1.997 2.007 2.027
2671.634 2.067 2.027 2.027 2.057 2.137 2.237 2.307 2.257 2.197 2.307
2690.924 2.397 2.377 2.447 2.507 2.557 2.657 2.727 2.847 2.957 3.017
2710.214 3.087 3.157 3.277 3.527 3.747 3.787 3.797 3.887 4.007 4.007
2729.504 3.987 4.157 4.217 4.307 4.407 4.367 4.287 4.157 4.087 4.117
2748.794 4.097 4.027 4.097 4.047 4.007 4.017 3.957 3.957 3.997 3.977
2768.083 3.997 4.047 4.007 4.027 4.117 4.197 4.287 4.387 4.427 4.507
2787.373 4.597 4.567 4.617 4.707 4.747 4.707 4.657 4.667 4.597 4.467
2806.663 4.407 4.427 4.387 4.257 4.217 4.127 4.017 3.947 3.817 3.797
2825.953 3.767 3.627 3.567 3.487 3.407 3.347 3.317 3.417 3.347 3.177
2845.242 3.177 3.287 3.417 3.507 3.567 3.717 3.857 3.917 3.967 4.117
2864.532 4.257 4.427 4.517 4.587 4.797 5.037 5.207 5.397 5.607 5.687
2883.822 5.697 5.857 5.867 5.697 5.507 5.287 5.087 4.917 4.767 4.637
2903.112 4.527 4.477 4.477 4.467 4.477 4.607 4.907 5.247 5.517 5.937
2922.401 6.457 6.937 7.667 8.407 9.027 9.697 10.317 10.757 11.327 11.877
2941.691 12.137 12.317 12.307 12.027 11.637 11.317 10.877 10.237 9.547 8.887
2960.981 8.357 7.857 7.197 6.637 6.087 5.517 5.127 4.767 4.367 3.957
2980.271 3.597 3.297 3.077 2.957 2.797 2.547 2.497 2.567 2.477 2.307
2999.561 2.327 2.317 2.327 2.427 2.537 2.567 2.597 2.887 3.267 3.617
3018.850 3.867 4.257 4.597 4.777 4.867 5.017 5.087 4.887 4.727 4.497
3038.140 4.337 4.267 4.097 3.917 3.917 4.167 4.347 4.557 5.077 5.697
3057.430 6.417 7.367 8.487 9.857 11.517 13.457 15.317 16.967 18.307 19.207
3076.720 19.567 19.307 18.457 17.187 15.667 14.107 12.457 10.747 9.327 7.877
3096.009 6.577 5.617 4.827 4.167 3.487 2.847 2.467 2.087 1.807 1.727
3115.299 1.5814 1.5152 1.3687 1.2638 1.2524 1.2 1.0694 1.0454 1.1069 1.0351
3134.589 1.1118 1.2493 1.2854 1.3491 1.3543 1.3187 1.3426 1.4211 1.3114 1.1631
3153.879 1.2405 1.2869 1.1176 0.9525 1.0034 0.8938 0.6692 0.471 0.404 0.514
3173.169 0.595 0.62 0.477 0.394 0.572 0.6737 0.516 0.381 0.431 0.56
3192.458 0.519 0.398 0.311 0.285 0.425 0.427 0.418 0.429 0.375 0.397
3211.748 0.494 0.53 0.434 0.328 0.248 0.266 0.336 0.319 0.359 0.453
3231.038 0.431 0.484 0.53 0.434 0.469 0.47 0.311 0.347 0.394 0.218
3250.328 0.273 0.342 0.116 0.176 0.337 0.387 0.273 0.212 0.344 0.322
3269.617 0.31 0.252 0.267 0.447 0.474 0.342 0.389 0.463 0.322 0.29
3288.907 0.354 0.309 0.223 0.284 0.219 0.122 0.263 0.323 0.302 0.326
3308.197 0.339 0.214 0.131 0.147 0 0.106 0.283 0.22 0.177 0.261
3327.487 0.315 0.218 0.274 0.405 0.485 0.536 0.409 0.38 0.282 0.145
3346.777 0.159 0.179 0.245 0.287 0.427 0.414 0.319 0.394 0.413 0.355
3366.066 0.479 0.498 0.348 0.396 0.497 0.323 0.237 0.378 0.336 0.373
3385.356 0.535 0.507 0.39 0.383 0.366 0.364 0.268 0.254 0.295 0.218
3404.646 0.371 0.358 0.246 0.316 0.341 0.379 0.248 0.314 0.397 0.308
3423.936 0.418 0.427 0.346 0.398 0.36 0.382 0.389 0.279 0.279 0.218
3443.225 0.35 0.5 0.437 0.311 0.367 0.375 0.336 0.422 0.362 0.33
3462.515 0.341 0.438 0.546 0.479 0.452 0.541 0.5978 0.561 0.506 0.459
3481.805 0.425 0.292 0.246 0.353 0.427 0.357 0.322 0.387 0.457 0.464
3501.095 0.464 0.524 0.448 0.302 0.339 0.467 0.495 0.43 0.346 0.399
3520.385 0.504 0.429 0.44 0.508 0.476 0.457 0.396 0.542 0.503 0.423
3539.674 0.508 0.591 0.567 0.436 0.414 0.392 0.535 0.6101 0.6514 0.6097
3558.964 0.471 0.517 0.539 0.421 0.384 0.447 0.524 0.647 0.519 0.324
3578.254 0.241 0.319 0.402 0.437 0.504 0.514 0.6136 0.638 0.476 0.467
3597.544 0.537 0.431 0.369 0.376 0.388 0.498 0.537 0.426 0.377 0.382
3616.833 0.523 0.522 0.354 0.372 0.523 0.54 0.411 0.454 0.491 0.463
3636.123 0.576 0.69014 0.6119 0.463 0.479 0.459 0.525 0.6187 0.591 0.464
3655.413 0.306 0.418 0.531 0.441 0.519 0.6257 0.502 0.434 0.479 0.485
3674.703 0.448 0.468 0.592 0.6435 0.514 0.478 0.505 0.589 0.6403 0.71907
3693.993 0.7551 0.597 0.585 0.569 0.496 0.567 0.698071 0.73517 0.583 0.491
3713.282 0.49 0.451 0.574 0.589 0.549 0.531 0.561 0.6373 0.6048 0.434
3732.572 0.319 0.512 0.716 0.75144 0.661 0.578 0.54 0.543 0.47 0.533
3751.862 0.643 0.551 0.6047 0.73333 0.6433 0.6393 0.6513 0.532 0.513 0.539
3771.152 0.6531 0.68714 0.6294 0.71933 0.8114 0.8535 0.8048 0.8291 0.8417 0.6191
3790.441 0.57 0.6809 0.6643 0.586 0.6375 0.596 0.534 0.699409 0.79141 0.73536
3809.731 0.71391 0.6869 0.6494 0.69254 0.6631 0.6769 0.6763 0.648 0.71235 0.69274
3829.021 0.599 0.6645 0.8229 0.8327 0.8074 0.8898 0.77644 0.582 0.6632 0.88
3848.311 0.8601 0.74323 0.69496 0.71431 0.72529 0.6739 0.75172 0.8871 1.0036 0.916
3867.601 0.8667 1.1486 1.1096 1.0011 1.265 1.3387 1.2143 1.1963 1.3338 1.3061
3886.890 1.1039 1.1267 1.1714 1.1085 1.2001 1.1249 1.0514 1.0809 1.1631 1.1739
3906.180 1.0532 1.106 1.1007 1.1215 1.217 1.1387 1.0373 1.0189 1.04 1.1535
3925.470 1.1117 0.9011 0.8985 0.9074 0.9966 1.1144 1.0821 1.0684 1.1175 1.2651
3944.760 1.2192 1.2494 1.3497 1.1994 1.2662 1.4531 1.4052 1.3411 1.2088 1.0696
3964.049 1.1394 1.3288 1.4298 1.4299 1.4808 1.664 1.6659 1.4583 1.4213 1.5392
3983.339 1.5764 1.613 1.6876 1.707 1.777 1.717 1.707 1.857 1.797 1.837
##END=
