##TITLE=4-n-Propylresorcinol
##JCAMP-DX=4.24
##DATA TYPE=INFRARED SPECTRUM
##ORIGIN=NIST Mass Spectrometry Data Center
##OWNER=NIST Standard Reference Data Program
Collection (C) 2018 copyright by the U.S. Secretary of Commerce
on behalf of the United States of America. All rights reserved.
##CAS REGISTRY NO=18979-60-7
##MOLFORM=C 9 H 12 O 2
##$NIST SOURCE=MSDC-IR
##SPECTROMETER/DATA SYSTEM=HP-GC/MS/IRD
##STATE=gas
##XUNITS=1/CM
##YUNITS=ABSORBANCE
##XFACTOR=1.0
##YFACTOR=0.000001400
##DELTAX=4.0
##FIRSTX=550.0
##LASTX=3846.0
##FIRSTY=0.000841
##MAXX=3846
##MINX=550
##MAXY=0.014
##MINY=0
##NPOINTS=825
##XYDATA=(X++(Y..Y))
550.0 601 579 587 688 752 758 733 630 532 474
590.0 441 414 403 506 632 798 911 872 713 532
630.0 410 290 184 81 0 34 67 66 48 25
670.0 41 44 28 42 81 148 246 344 453 504
710.0 522 511 409 328 371 433 460 457 442 424
750.0 390 355 374 486 643 836 1034 1193 1287 1276
790.0 1224 1182 1136 1164 1291 1452 1657 1826 1980 2084
830.0 2152 2122 1867 1591 1364 1153 1043 916 751 616
870.0 516 428 386 387 368 366 381 367 344 332
910.0 334 332 341 362 346 341 357 391 481 646
950.0 967 1621 2808 4307 5234 5337 4746 3315 1789 960
990.0 617 451 364 314 278 272 293 312 311 333
1030.0 381 421 455 519 595 668 752 838 931 1032
1070.0 1133 1258 1420 1652 2008 2500 3219 4250 5478 6589
1110.0 7234 7262 6731 6067 5750 5890 6318 6906 7563 8045
1150.0 8245 8239 7858 7310 7173 7647 8573 9286 9286 8607
1190.0 7413 6204 5617 5741 6217 6599 6611 6240 5545 4638
1230.0 3815 3174 2660 2261 1966 1787 1748 1847 2076 2437
1270.0 2891 3415 3956 4494 4959 5264 5362 5248 4918 4424
1310.0 3918 3549 3365 3304 3247 3060 2714 2234 1693 1221
1350.0 875 662 514 442 428 451 513 584 659 700
1390.0 682 636 603 603 623 683 794 962 1192 1516
1430.0 1946 2458 2987 3448 3756 3870 3776 3527 3185 2791
1470.0 2403 2080 1841 1757 1912 2408 3362 4738 6220 7363
1510.0 7886 7546 6422 5014 3709 2682 2045 1726 1547 1402
1550.0 1276 1182 1128 1101 1143 1243 1472 1832 2312 2981
1590.0 3799 4651 5440 6107 6597 6860 6916 6731 6260 5544
1630.0 4697 3844 3068 2430 1927 1554 1286 1080 938 844
1670.0 754 660 564 470 393 338 303 286 292 283
1710.0 248 218 190 176 164 151 134 115 104 92
1750.0 76 71 66 66 65 66 67 58 49 46
1790.0 51 56 55 50 56 68 63 64 69 74
1830.0 96 113 133 150 166 187 202 196 184 180
1870.0 174 161 142 111 89 89 88 82 74 67
1910.0 64 59 53 51 42 41 45 50 48 45
1950.0 39 31 35 37 24 10 7 13 20 21
1990.0 27 27 23 28 29 45 48 37 39 51
2030.0 61 57 53 56 56 39 29 33 36 31
2070.0 26 36 49 48 33 38 45 39 40 37
2110.0 22 20 25 35 33 34 37 39 43 44
2150.0 43 42 41 44 41 40 53 59 46 38
2190.0 39 39 32 20 17 23 13 8 24 29
2230.0 40 59 73 77 87 103 90 88 96 93
2270.0 86 79 69 54 45 45 47 55 56 62
2310.0 69 71 80 95 110 126 145 160 144 127
2350.0 136 145 136 127 122 106 91 90 99 109
2390.0 126 141 154 165 178 185 180 171 159 152
2430.0 147 142 147 152 137 118 106 112 130 130
2470.0 120 123 123 120 110 101 113 116 110 103
2510.0 93 91 90 84 73 66 65 63 63 74
2550.0 82 70 70 83 76 63 66 71 59 57
2590.0 64 66 64 48 32 43 54 56 59 59
2630.0 74 83 79 81 75 72 85 89 91 105
2670.0 110 99 85 86 73 68 72 67 75 64
2710.0 60 77 82 99 104 104 121 132 149 164
2750.0 166 150 137 143 134 137 146 148 165 179
2790.0 189 197 222 246 253 269 309 346 373 406
2830.0 463 554 677 844 1035 1222 1440 1667 1894 2124
2870.0 2406 2744 3017 3103 2984 2728 2404 2180 2138 2222
2910.0 2392 2663 3027 3451 3927 4427 4880 5154 5156 4943
2950.0 4666 4542 4708 5144 5628 5720 5247 4348 3288 2352
2990.0 1685 1309 1114 1029 1007 1029 1106 1249 1448 1654
3030.0 1767 1771 1643 1429 1214 1028 898 796 704 634
3070.0 602 562 502 446 394 360 306 249 229 219
3110.0 197 178 178 167 159 155 129 108 137 153
3150.0 110 98 109 94 75 69 69 65 70 69
3190.0 83 96 66 54 61 56 52 53 39 37
3230.0 32 14 21 31 34 33 34 26 11 14
3270.0 18 9 12 28 25 18 19 14 9 27
3310.0 31 30 43 55 51 49 63 84 96 112
3350.0 133 131 135 132 124 119 119 125 116 110
3390.0 114 122 117 112 102 85 83 87 105 98
3430.0 87 106 102 84 95 83 62 60 57 48
3470.0 55 51 41 33 31 46 49 43 31 23
3510.0 26 23 18 24 40 54 47 38 43 39
3550.0 37 49 37 38 50 57 82 89 91 104
3590.0 127 143 181 219 254 300 384 526 741 1104
3630.0 1758 2898 4680 6911 9006 10000 9430 7801 5420 3046
3670.0 1545 842 519 349 256 207 177 156 142 126
3710.0 102 109 112 90 78 76 72 73 94 96
3750.0 88 81 78 65 54 53 67 86 75 60
3790.0 74 86 107 117 103 96 90 102 123 116
3830.0 113 134 142 130 116
##END=
