##TITLE=3,4-Dichloro-.omega.-nitrostyrene
##JCAMP-DX=4.24
##DATA TYPE=INFRARED SPECTRUM
##ORIGIN=EPA-IR VAPOR PHASE LIBRARY
##OWNER=SRD/NIST
Collection (C) 2018 copyright by the U.S. Secretary of Commerce
on behalf of the United States of America. All rights reserved.
##CAS REGISTRY NO=18984-16-2
##MOLFORM=C 8 H 5 Cl 2 N O 2
##$NIST SOURCE=MSDC-IR
##STATE=gas
##XUNITS=1/CM
##YUNITS=ABSORBANCE
##XFACTOR=1.
##YFACTOR=0.001
##DELTAX=1.92898
##FIRSTX=549.8
##LASTX=4000.7
##FIRSTY=4.12
##MAXX=4000.7
##MINX=549.759
##MAXY=0.21212
##MINY=0
##NPOINTS=1790
##XYDATA=(X++(Y..Y))
549.759 4.12 4.36 4.84 4.05 4.51 5.46 3.89 4.21 5.42 5.24
569.049 6.15 7.16 6.91 6.39 6.02 5.64 4.58 4.02 4.23 3.42
588.339 3.11 2.91 2.68 3.08 3.13 3.04 2.01 1.9174 2.16 1.5731
607.628 1.571 1.5133 1.2506 1.5533 1.4869 1.3351 1.8281 1.8282 1.4583 1.4571
626.918 1.8537 1.5959 1.7498 2.06 1.6309 1.3689 1.3736 1.7811 1.2951 0.49
646.208 0.77 1.4043 1.8452 1.8297 1.8256 2.08 2.45 2.62 2.38 2.39
665.498 2.76 3.08 3.26 3.97 4.83 5.7 7.68 9.8 12.37 16.48
684.787 21.89 27.51 32.43 35.34 35.37 32.95 27.98 22.31 17.09 12.8
704.077 10.3 8.78 7.47 6.01 5.19 4.8 4.48 4.38 4.38 4.51
723.367 4.33 4.03 4.07 5.03 5.77 5.73 5.61 5.54 5.53 5.45
742.657 5.27 4.85 4.91 4.91 5.07 5.98 6.55 7.8 9.74 11.08
761.947 12.34 13.88 15.22 16.02 16.62 16.95 16.23 14.86 13.45 12.28
781.236 11.04 10.2 9.22 8.87 9.24 9.09 9.36 9.93 10.46 11.04
800.526 12.57 15.17 18.07 21.52 25.54 29.49 33.79 37.55 38.93 36.04
819.816 32.12 29.85 27.25 22.25 17.68 15.15 12.4 11.21 11.27 11.27
839.106 11.74 11.55 10.82 10.65 10.39 9.72 9.17 9.02 8.93 8.28
858.395 7.69 7.37 7.59 7.97 7.76 7.92 8.35 8.74 8.68 9.01
877.685 9.25 9.43 10.07 10.06 9.54 9.64 9.69 9.9 10.29 10.27
896.975 11.02 11.38 11.51 12.33 13.09 13.71 14.47 15.2 15.53 16.31
916.265 17.48 17.92 18.62 19.03 18.31 17.9 17.74 17.78 18.31 19.11
935.555 20.25 21.81 23.65 25.77 28.71 31.73 34.92 38.1 40.37 43.09
954.844 46.22 49.21 51.97 53.96 54.81 53.83 51.83 47.83 41.71 35.6
974.134 29.06 22.5 16.74 12.9 10.59 8.96 8.07 7.38 6.63 5.88
993.424 5.57 5.31 5.01 4.71 4.71 5.01 4.2 3.88 4.6 4.82
1012.714 5.49 6.14 7.02 8.51 11.25 14.16 17.96 23.89 29.82 35.5
1032.003 40.27 42.37 41.07 38.39 33.03 25.95 20.25 15.76 12.63 9.71
1051.293 7.3 6.18 5.36 3.76 3.67 4.23 2.93 2.6 3.19 3.4
1070.583 4.11 3.2 2.71 3.58 3.47 2.09 1.4511 2.96 4.13 4.12
1089.873 3.19 3.3 3.82 3.7 3.58 3.14 2.72 2.77 2.87 4.02
1109.163 5.07 6.85 8.79 10.23 11.55 14.43 19.33 24.08 29.06 35.58
1128.452 42.36 47.06 48.72 46.75 41.78 35.82 31.32 28.13 26.61 25.15
1147.742 23.38 22.72 21.92 19.74 17.66 16.42 14.17 11.86 10.17 8.8
1167.032 8.26 7.87 7.21 7.37 8.07 9.16 11.39 13.51 16.89 21.81
1186.322 25.75 28.94 33.5 36.16 35.83 33.9 29.95 25.73 21.55 17.27
1205.611 12.74 9.17 7.81 7.57 7.85 8.16 6.41 6.19 8 9.5
1224.901 9.96 9.73 10.52 10.76 12.47 15.27 16.58 17.68 19.97 22.01
1244.191 21.97 21.01 19.55 17.37 15.33 13.51 12.36 11.81 11.81 13.78
1263.481 16.03 17.76 19.72 20.54 20.3 19.47 17.9 15.75 14.11 12.59
1282.771 10.85 9.73 8.99 8.55 8.35 7.99 7.75 8.17 8.13 8.04
1302.060 8.53 8.92 9.49 10.43 11.29 12.51 14.38 16.54 19.12 22.01
1321.350 25.16 29.13 34.09 40.09 47.93 58.09 70.91 87.31 108.11 132.91
1340.640 160.19 186.09 204.95 212.12 205.84 186.59 157.13 123.61 94.02 73.25
1359.930 60.5 52.7 47.96 45.16 43.16 41.77 40.73 39.52 38.24 37.17
1379.219 36.37 35.57 34.82 34.27 33.67 33.03 32.33 31.24 29.79 27.92
1398.509 25.66 22.94 20.15 17.65 15.29 13.36 11.98 10.79 9.98 9.57
1417.799 9.14 8.82 8.72 8.75 8.77 8.89 9.23 9.42 9.52 9.86
1437.089 10.47 10.62 10.92 11.83 12.78 14.04 15.7 17.69 19.86 21.99
1456.378 24.75 28.16 32.13 37.49 44.81 54.01 64.29 74.06 80.57 82.34
1475.668 78.4 69.77 57.98 45.13 34.22 26.8 22.47 20.28 19.36 19.08
1494.958 19.1 19.27 19.99 21.04 22.36 23.86 25.82 27.95 30.26 33.16
1514.248 36.03 39.13 42.44 45.31 47.94 50.59 53.93 58.32 64.01 71.15
1533.538 80 91.19 103.62 117.01 130.87 143.07 151.82 157.21 159.19 156.5
1552.827 148.71 136.86 124.28 111.14 97.5 86.04 76.79 69.37 63.56 58.82
1572.117 54.74 50.72 46.66 42.77 38.85 35.56 32.83 30.4 28.16 26.23
1591.407 24.48 22.43 20.34 18.18 16.37 14.92 13.38 12.15 11.45 11.05
1610.697 10.66 10.54 10.7 10.76 10.85 11.07 11.42 11.86 12.5 13.43
1629.986 14.73 16.34 18.37 21.21 24.79 28.54 31.98 34.33 35.03 34.13
1649.276 31.76 28.27 23.31 18.27 14.75 12.11 10.26 8.93 7.59 6.81
1668.566 6.4 5.84 5.39 5.03 4.69 4.32 4.22 4.23 3.82 3.61
1687.856 3.61 3.49 3.44 3.35 3.17 2.95 2.93 2.89 2.82 2.74
1707.146 2.57 2.65 2.73 2.75 2.83 2.74 2.88 2.88 2.57 2.76
1726.435 2.88 2.62 2.77 2.94 2.96 2.86 2.75 2.81 2.87 2.92
1745.725 2.85 2.94 3.23 3.45 3.66 3.69 3.78 3.94 3.74 3.69
1765.015 3.52 3.14 2.99 2.96 3.04 2.89 2.76 2.79 2.51 2.48
1784.305 2.68 2.64 2.66 2.87 2.87 2.71 2.62 2.61 2.66 2.5
1803.594 2.46 2.57 2.33 2.11 2.08 2.11 2.14 2.11 2.05 1.97
1822.884 1.9061 1.8461 1.769 1.7653 1.8886 1.95 1.8796 1.6228 1.4674 1.5101
1842.174 1.6626 1.7142 1.7319 1.6872 1.6166 1.6741 1.703 1.6209 1.4512 1.4353
1861.464 1.5348 1.5214 1.5166 1.5837 1.7142 1.8524 1.9344 1.9063 1.8708 2.12
1880.754 2.31 2.55 2.87 2.97 3.09 3.26 3.35 3.24 3.08 3
1900.043 3.02 3 2.69 2.59 2.53 2.37 2.37 2.5 2.52 2.36
1919.333 2.4 2.41 2.28 2.17 2.21 2.27 2.19 2.05 1.97 1.8642
1938.623 1.5733 1.5332 1.7209 1.4348 1.3205 1.4718 1.38 1.231 1.0565 1.1228
1957.913 1.1075 1.03603 1.1991 1.1408 0.98762 1.0899 1.1677 0.9217 0.785 0.96756
1977.202 0.944051 0.96801 1.0808 1.1103 1.0627 0.93196 0.97626 1.05 1.2718 1.2506
1996.492 1.1039 1.0483 0.9119 0.9086 0.9159 0.831 0.839 0.8636 0.98388 1.0705
2015.782 1.0469 1.0965 1.03696 0.9224 0.8427 0.8998 0.853 0.8519 0.96782 0.9117
2035.072 1.0707 1.2039 1.0643 1.0698 1.1679 1.1689 1.1681 1.1335 0.9226 0.827
2054.362 0.8952 0.9142 0.96603 0.8914 0.856 0.97315 0.9298 1.048 1.1998 1.0715
2073.651 0.97329 0.8948 0.799 0.818 0.97956 1.1048 0.99612 0.838 0.8456 1.0872
2092.941 1.1151 1.00251 0.8607 0.611 0.673 0.629 0.721 0.8679 0.8671 0.96409
2112.231 1.02299 1.1456 1.0604 0.9232 1.0682 1.1246 0.8581 0.8603 1.1686 1.0905
2131.521 0.98684 0.99474 0.99778 1.219 1.174 1.1894 1.3116 1.1313 1.0721 1.2113
2150.810 1.2036 1.0658 0.94131 0.98257 1.00689 0.8432 0.946601 1.0584 0.99112 0.9029
2170.100 0.8588 0.8939 0.942453 1.1089 1.1347 0.8692 0.828 1.00173 0.8926 0.812
2189.390 0.8547 0.79 0.8556 0.8727 0.748 0.635 0.793 0.912 0.93101 1.079
2208.680 0.97015 0.95342 1.0354 0.904 0.8832 1.02136 1.0559 1.1223 0.97802 0.921
2227.970 1.0484 0.8607 0.76 1.0477 1.1746 1.1151 1.03847 1.00894 1.03845 0.97249
2247.259 0.9213 1.01641 1.19 1.1641 1.0698 1.1044 1.0796 0.939003 0.8479 0.9001
2266.549 0.95417 0.97053 0.9228 0.8732 1.0561 1.2384 1.3844 1.3294 1.1283 1.2063
2285.839 1.2031 1.1455 1.2085 1.3374 1.5643 1.6097 1.4857 1.4015 1.3438 1.3293
2305.129 1.5591 1.6353 1.5476 1.5888 1.5388 1.4431 1.3084 1.1182 1.0574 1.1792
2324.418 1.2066 1.1212 1.0982 0.8859 0.98465 1.2321 1.141 0.9879 0.97732 1.1061
2343.708 1.1127 0.98636 0.8 0.719 0.721 0.819 0.819 0.8692 0.8987 0.8954
2362.998 1.2303 1.1716 0.95449 1.0588 0.8804 0.911 0.98335 0.9012 1.03092 1.1853
2382.288 1.0967 1.0869 1.082 0.93253 1.0827 1.2294 1.2136 0.942242 0.9201 1.2421
2401.578 1.1437 0.93782 1.00392 1.02304 1.146 1.1433 1.219 1.3551 0.97058 0.8912
2420.867 1.0515 1.1874 1.3675 1.2973 1.0482 0.8479 0.789 0.808 0.9643 1.0751
2440.157 1.2279 1.0655 0.95444 1.0458 1.1442 1.2657 1.2749 1.3683 1.4493 1.3112
2459.447 1.0873 1.249 1.3356 1.406 1.3638 1.1125 1.2309 1.2676 1.1903 1.1923
2478.737 1.33 1.5089 1.4999 1.499 1.5037 1.5056 1.3441 0.96426 1.1253 1.5113
2498.026 1.5676 1.7112 1.8214 1.8583 1.7054 1.5911 1.6787 1.6421 1.4973 1.4773
2517.316 1.7085 1.94 1.96 1.8027 1.8356 1.7852 1.98 2.36 2.37 2.27
2536.606 1.94 1.8579 1.7852 1.7487 1.643 1.4207 1.504 1.5935 1.4187 1.2593
2555.896 1.4588 1.3945 1.2038 1.2703 1.3082 1.3423 1.4076 1.2011 1.1887 1.3013
2575.186 1.1321 1.3103 1.5643 1.5979 1.641 1.5715 1.5744 1.5125 1.7063 1.7707
2594.475 1.7174 1.8046 1.5822 1.7118 1.7117 1.6843 1.8449 1.743 1.7392 1.703
2613.765 1.477 1.4613 1.6498 1.5739 1.5006 1.5771 1.6239 1.371 1.2253 1.1905
2633.055 0.818 0.8585 1.03784 0.9875 1.03325 0.8989 0.73 0.744 1.0838 1.1054
2652.345 0.835 1.1393 1.2892 1.1518 1.2006 1.2875 1.4368 1.17 0.8902 1.107
2671.634 1.2699 1.5797 1.5661 1.4879 1.6813 1.675 1.6543 1.5817 1.7953 2.03
2690.924 1.9294 1.6635 1.6477 1.8145 1.6108 1.3529 1.2379 1.2444 1.2219 1.408
2710.214 1.4817 1.1265 0.806 0.8724 0.94759 0.713 0.96477 1.2075 1.1605 1.318
2729.504 1.1791 1.1362 1.2838 0.837 0.503 0.577 0.57 0.728 0.99834 0.96191
2748.794 0.8457 0.98236 1.0812 1.2817 1.1451 0.8889 0.9625 1.01894 1.1394 1.00487
2768.083 1.1596 1.3577 1.2771 1.4277 1.6005 1.3802 1.1781 1.0857 1.1158 1.2797
2787.373 1.277 1.3068 1.3147 1.1644 0.99456 0.8864 1.03923 1.5059 1.5536 1.4645
2806.663 1.4223 1.3193 1.3015 1.2128 1.0985 0.97852 1.1876 1.3531 1.2751 1.2343
2825.953 1.1491 1.481 1.97 1.888 1.5382 1.6734 1.7087 1.7116 2.03 2.2
2845.242 2.35 2.28 2.17 2.62 2.64 2.73 2.92 2.69 2.94 3.16
2864.532 3.12 3.03 2.97 3.61 3.97 3.81 3.97 4.16 4.16 3.91
2883.822 3.54 3.62 3.7 3.43 3.62 3.48 3.38 3.51 3.29 3.64
2903.112 3.42 2.97 3.01 2.78 2.84 2.61 2.14 2.24 2.4 2.56
2922.401 2.68 2.45 2.57 2.32 2.14 2.27 2.17 2.01 1.8381 1.5532
2941.691 1.0557 1.1339 1.163 1.3772 1.5811 1.1849 0.97312 0.8636 0.706 1.1338
2960.981 1.5819 1.4816 1.2957 1.6237 1.5471 1.2369 1.6758 1.608 1.5762 1.7637
2980.271 1.7486 1.6004 1.4931 1.9336 2.17 2.31 2.72 2.67 2.23 2.05
2999.561 2.06 1.7305 1.727 1.5985 1.4556 1.6492 1.7186 1.3601 1.2667 1.7939
3018.850 1.8073 1.6018 1.3905 1.329 1.5642 1.8875 2.1 2.22 2.14 2.21
3038.140 2.04 1.9047 2.32 2.48 2.51 2.4 2.44 2.68 2.86 3.13
3057.430 3.06 2.95 3.38 3.59 3.75 4.19 3.91 3.06 2.84 3.03
3076.720 2.84 2.71 2.55 2.31 2.34 2.38 2.33 2.46 3.09 3.55
3096.009 3.31 3.21 3.47 3.83 4.58 5.53 6.82 7.8 8.61 9.22
3115.299 8.85 7.75 6.39 5.28 4.1 2.96 2.4 2.26 2.06 1.931
3134.589 1.6562 1.3174 1.1055 1.1792 1.2793 1.393 1.03109 1.01 1.4756 1.2659
3153.879 1.2126 1.1745 0.725 0.725 1.0545 0.636 0.541 0.738 0.578 0.592
3173.169 0.495 0.865 1.1105 0.98948 0.943372 1.076 1.2231 0.8405 1.058 1.3459
3192.458 1.0504 0.761 0.8944 0.824 0.8431 0.8948 0.95761 1.1493 0.943698 0.518
3211.748 0.428 0.792 0.940804 0.761 0.947897 0.688 0.444 0.7 0.808 0.7
3231.038 0.332 0.495 0.8666 0.97068 0.8926 0.452 0.43 1.0876 1.0583 1.3137
3250.328 1.6178 1.1521 1.03398 0.96885 0.97552 0.8578 0.707 1.01478 0.734 0.742
3269.617 0.93366 1.1045 1.2845 0.95103 0.9032 1.2721 1.1786 0.731 0.47 0.545
3288.907 0.506 0.346 0.781 0.95478 0.737 0.833 1.1906 1.4424 1.3204 1.1442
3308.197 0.9891 1.0546 1.2075 0.8553 0.573 0.567 0.801 1.0478 0.833 0.39
3327.487 0.439 0.835 0.377 0.138 0.133 0.373 0.811 0.8575 0.97774 1.1426
3346.777 0.816 0.451 0.8868 0.946447 0.704 0.342 0 0.39 1.0863 1.0319
3366.066 0.581 0.519 0.689 0.509 0.415 0.833 1.1046 1.3117 1.0758 0.9667
3385.356 0.9256 0.939609 1.234 1.1086 0.672 0.303 0.777 0.95107 0.679 0.672
3404.646 0.781 0.809 0.495 0.524 0.424 0.312 0.93082 1.426 1.01275 0.657
3423.936 0.8807 1.00542 0.825 0.459 0.645 1.02117 0.941902 1.1176 1.3242 1.03539
3443.225 0.855 1.00275 0.8834 0.59 0.8974 1.3191 1.4357 1.0603 1.03709 1.2523
3462.515 1.01486 1.00602 0.683 0.393 0.806 1.1845 1.0844 0.8507 0.9153 1.2163
3481.805 0.97052 0.9064 1.4006 1.0182 0.546 0.577 0.692 0.729 0.8593 0.93861
3501.095 1.3918 1.7503 1.4256 1.3061 0.8875 0.693 0.8724 0.65 0.873 1.4061
3520.385 1.00889 0.481 0.663 0.533 0.602 0.615 0.809 0.9328 0.688 0.96035
3539.674 0.9283 0.943632 0.8986 0.8959 0.8592 0.751 1.1017 0.97962 0.533 0.489
3558.964 0.55 0.63 0.716 0.83 0.693 0.799 0.808 0.772 1.0295 0.9069
3578.254 0.794 0.772 0.786 0.857 1.1203 1.2923 0.9178 0.608 0.798 0.799
3597.544 0.846 1.1183 0.926 0.9279 1.2954 1.5849 1.3096 0.661 0.369 0.72
3616.833 1.2381 0.9219 0.8572 0.832 0.587 0.84 0.8971 0.576 0.426 0.607
3636.123 0.51 0.596 0.728 1.1481 1.2789 0.9283 1.1244 1.1428 0.9218 0.659
3655.413 0.8752 1.1187 0.733 0.304 0.573 0.495 0.308 0.569 0.577 0.711
3674.703 1.0957 1.2641 1.00738 1.2742 1.5627 1.5205 1.5124 0.99342 0.666 1.0596
3693.993 1.00081 0.566 0.663 0.9182 0.99917 1.3835 1.7476 1.6088 1.0754 1.2273
3713.282 1.3194 1.02087 1.1639 1.1656 1.2912 1.02764 0.557 1.03024 1.3229 1.1024
3732.572 0.894 0.9079 1.0679 1.03285 0.8989 0.97522 1.2377 1.2925 1.67 1.5971
3751.862 1.1313 0.797 0.554 0.692 1.0429 1.2614 1.0557 0.941846 1.2109 1.1178
3771.152 1.1127 1.0716 0.95555 1.3791 1.245 0.97422 1.4239 1.3695 0.96537 1.1224
3790.441 0.8474 0.463 1.3102 1.7414 1.189 1.01077 1.02484 1.209 1.3714 0.99491
3809.731 0.685 0.774 1.0539 1.3473 1.5015 1.4324 1.03487 0.67 0.53 1.0595
3829.021 1.2728 0.96038 1.1282 1.3997 1.1513 0.9182 1.0682 0.859 0.940989 1.02763
3848.311 0.888 0.679 0.685 0.93984 0.638 0.567 0.761 0.9011 0.99118 1.1865
3867.601 1.3384 1.4131 0.8996 0.492 0.8891 0.8646 0.462 0.799 1.4474 1.3667
3886.890 1.3871 1.4824 1.1155 0.8855 0.99579 1.1087 1.03766 1.2541 1.1888 1.2605
3906.180 1.161 0.681 0.8549 1.0604 1.2592 1.0839 0.913 0.9169 0.477 0.835
3925.470 1.1309 0.808 1.1029 1.6518 1.3019 0.802 1.3922 1.2471 0.45 0.807
3944.760 1.2811 1.0646 0.834 0.325 0.586 1.0589 0.735 0.611 0.708 1.052
3964.049 1.01554 0.547 0.375 0.631 0.97714 0.726 0.695 0.838 0.59 0.799
3983.339 0.9524 0.756 0.774 1.0749 1.2378 0.966 1.01059 0.9012 1.1768 1.8156
##END=
