##TITLE=Undecyl isothiocyanate
##JCAMP-DX=4.24
##DATA TYPE=INFRARED SPECTRUM
##ORIGIN=EPA-IR VAPOR PHASE LIBRARY
##OWNER=SRD/NIST
Collection (C) 2018 copyright by the U.S. Secretary of Commerce
on behalf of the United States of America. All rights reserved.
##CAS REGISTRY NO=19010-96-9
##MOLFORM=C 12 H 23 N S
##$NIST SOURCE=MSDC-IR
##STATE=gas
##XUNITS=1/CM
##YUNITS=ABSORBANCE
##XFACTOR=1.
##YFACTOR=0.001
##DELTAX=1.92898
##FIRSTX=549.8
##LASTX=4000.7
##FIRSTY=8.402
##MAXX=4000.7
##MINX=549.759
##MAXY=0.315252
##MINY=0
##NPOINTS=1790
##XYDATA=(X++(Y..Y))
549.759 8.402 8.432 8.442 8.402 8.312 7.902 7.402 7.532 7.712 7.492
569.049 6.982 6.722 6.702 6.432 5.922 5.642 5.552 5.362 5.322 5.162
588.339 4.802 4.692 4.602 4.272 4.022 3.752 3.432 3.482 3.372 3.092
607.628 2.982 2.882 2.982 2.932 2.832 2.822 2.492 2.202 1.992 1.822
626.918 1.932 2.092 2.272 2.182 2.002 2.182 2.382 2.312 2.302 2.392
646.208 2.542 2.652 2.872 3.142 2.842 2.912 3.182 3.222 3.202 3.182
665.498 3.172 3.052 3.012 2.872 2.772 2.892 3.032 2.962 2.832 2.882
684.787 3.132 3.352 3.532 3.942 4.302 4.622 5.122 5.592 5.982 6.302
704.077 6.572 6.782 6.992 7.262 7.462 7.562 7.532 7.442 7.402 7.342
723.367 7.222 7.122 6.842 6.542 6.372 6.172 6.122 5.982 5.692 5.402
742.657 5.262 5.302 5.032 4.612 4.382 4.202 4.072 4.112 4.062 3.832
761.947 3.922 3.872 3.732 3.812 3.662 3.472 3.322 3.122 3.042 2.912
781.236 2.792 2.752 2.532 2.462 2.462 2.452 2.422 2.352 2.432 2.382
800.526 2.402 2.252 2.172 2.272 2.272 2.252 2.172 2.252 2.492 2.312
819.816 2.042 2.092 2.032 2.002 2.122 2.092 2.052 1.992 1.872 1.752
839.106 1.742 1.862 1.812 1.642 1.622 1.742 1.752 1.622 1.612 1.932
858.395 2.052 2.082 1.972 1.792 1.782 1.752 1.822 1.802 1.702 1.722
877.685 1.822 1.922 1.992 1.982 2.052 2.112 2.252 2.292 2.152 2.102
896.975 2.092 2.242 2.422 2.422 2.292 2.422 2.612 2.632 2.782 2.892
916.265 2.792 2.762 2.822 2.842 2.892 2.972 3.062 3.042 3.062 2.952
935.555 2.802 2.852 2.992 3.172 3.182 3.062 2.902 2.822 2.962 3.022
954.844 2.992 2.992 2.872 2.722 2.572 2.472 2.522 2.562 2.522 2.412
974.134 2.412 2.552 2.562 2.542 2.472 2.542 2.502 2.392 2.322 2.242
993.424 2.582 2.732 2.632 2.702 2.632 2.642 2.762 2.682 2.692 2.762
1012.714 2.802 2.742 2.612 2.622 2.872 2.922 2.812 2.712 2.682 2.782
1032.003 2.752 2.952 3.162 3.132 2.992 2.792 2.922 3.082 2.992 3.092
1051.293 3.122 3.172 3.392 3.602 3.792 3.902 3.852 4.022 4.002 3.902
1070.583 3.702 3.492 3.882 3.922 3.532 3.322 3.372 3.292 3.012 2.942
1089.873 2.992 3.232 3.372 3.212 3.252 3.102 2.972 2.942 3.152 3.422
1109.163 3.192 3.332 3.472 3.532 3.672 3.762 3.452 3.202 3.402 3.402
1128.452 3.192 3.182 3.042 2.602 2.832 3.032 2.812 2.962 2.922 3.002
1147.742 3.282 3.122 2.592 2.562 2.892 2.552 2.782 3.212 3.062 2.782
1167.032 2.742 2.932 2.982 3.002 3.082 2.992 2.902 2.892 2.522 2.402
1186.322 2.882 3.262 3.362 3.292 3.012 2.972 3.252 3.342 3.202 3.012
1205.611 2.742 2.752 3.062 3.042 3.092 3.372 3.472 3.762 3.932 3.912
1224.901 3.892 3.952 4.132 4.132 4.312 4.382 4.092 4.342 4.622 4.642
1244.191 4.682 4.672 4.712 4.942 5.292 5.242 5.102 5.292 5.492 5.612
1263.481 5.832 5.982 5.942 6.122 6.422 6.642 6.852 7.142 7.512 7.632
1282.771 7.892 8.352 8.742 9.082 9.442 9.792 10.422 11.122 11.672 12.252
1302.060 12.872 13.512 14.062 14.532 15.082 15.492 15.882 16.352 16.762 17.262
1321.350 17.932 18.782 19.802 21.172 23.022 25.282 27.932 30.992 34.462 38.162
1340.640 41.932 45.512 48.552 50.792 51.952 51.802 50.372 47.942 44.822 41.532
1359.930 38.352 35.462 32.872 30.532 28.252 25.832 23.372 21.062 18.912 17.022
1379.219 15.422 14.062 12.842 11.662 10.612 9.632 8.722 7.942 7.292 6.782
1398.509 6.312 5.962 5.722 5.552 5.402 5.292 5.282 5.292 5.242 5.272
1417.799 5.492 5.682 5.892 6.252 6.632 7.112 7.732 8.472 9.432 10.602
1437.089 12.082 13.852 15.852 17.982 20.262 22.842 25.642 28.492 31.632 35.062
1456.378 38.372 41.062 42.652 42.902 41.362 38.232 34.282 30.012 25.742 21.672
1475.668 18.122 15.192 12.802 10.802 9.252 8.072 7.152 6.402 5.722 5.132
1494.958 4.732 4.342 3.952 3.682 3.462 3.252 3.142 3.002 2.812 2.632
1514.248 2.492 2.382 2.262 2.122 2.072 2.062 2.052 2.002 1.882 1.812
1533.538 1.782 1.732 1.632 1.652 1.602 1.522 1.482 1.412 1.432 1.442
1552.827 1.362 1.2421 1.2266 1.2513 1.2245 1.1875 1.1475 1.2059 1.2336 1.1545
1572.117 1.1208 1.1178 1.1227 1.1067 1.1507 1.2047 1.1352 1.0554 1.098 1.127
1591.407 1.0622 1.044 0.9501 0.8955 0.9436 0.9529 1.0096 1.0049 0.9477 0.9755
1610.697 0.9689 0.9416 0.9964 1.021 0.9694 0.9783 1.0143 0.9652 0.9497 0.9698
1629.986 0.9512 0.9221 0.9406 1.0089 0.9942 0.9531 0.9015 0.9004 0.9713 0.9684
1649.276 0.9542 0.9615 0.9853 0.9314 0.8511 0.7993 0.7795 0.8182 0.852 0.87
1668.566 0.814 0.7914 0.8625 0.8236 0.7646 0.7359 0.755 0.8116 0.8496 0.8421
1687.856 0.7733 0.7848 0.8553 0.9049 0.9016 0.8071 0.7649 0.7849 0.7994 0.8222
1707.146 0.801 0.7969 0.81 0.8021 0.7875 0.7934 0.7763 0.7552 0.7865 0.8271
1726.435 0.8199 0.7689 0.7938 0.8898 0.8939 0.8592 0.865 0.8593 0.8282 0.7625
1745.725 0.7694 0.8198 0.8153 0.7977 0.8225 0.7982 0.7366 0.7732 0.8793 0.8849
1765.015 0.8738 0.9073 0.8929 0.927 0.9556 0.9569 0.9506 0.9234 0.9182 0.8979
1784.305 0.8285 0.8125 0.8423 0.8884 0.9214 0.8991 0.8976 0.9529 1.0019 1.0173
1803.594 1.008 1.0198 1.0451 1.0119 0.9978 0.9974 0.9897 1.0312 1.0604 1.0857
1822.884 1.1087 1.1538 1.2143 1.2369 1.2526 1.232 1.2786 1.352 1.452 1.512
1842.174 1.492 1.562 1.612 1.642 1.732 1.812 1.892 1.942 1.952 2.032
1861.464 2.162 2.232 2.312 2.422 2.502 2.622 2.762 2.862 3.012 3.142
1880.754 3.282 3.452 3.582 3.732 3.922 4.092 4.272 4.472 4.682 4.902
1900.043 5.132 5.382 5.632 5.882 6.172 6.462 6.722 7.062 7.412 7.792
1919.333 8.152 8.472 8.832 9.282 9.712 10.112 10.592 11.132 11.602 12.142
1938.623 12.752 13.322 13.952 14.612 15.292 16.002 16.852 17.722 18.512 19.452
1957.913 20.442 21.542 22.662 23.792 25.122 26.502 27.932 29.462 31.092 32.852
1977.202 34.742 36.732 38.852 41.182 43.742 46.412 49.202 52.242 55.542 58.972
1996.492 62.642 66.562 70.672 75.132 79.882 84.922 90.292 95.942 101.932 108.372
2015.782 115.142 122.332 130.062 138.102 146.622 155.692 165.202 175.082 185.502 196.302
2035.072 207.332 218.782 230.342 241.802 253.032 264.002 274.542 284.302 293.022 300.422
2054.362 306.522 311.192 314.132 315.252 314.792 312.562 308.522 302.972 295.992 287.632
2073.651 278.112 267.672 256.462 244.732 232.782 220.772 208.862 197.382 186.302 175.742
2092.941 165.922 156.802 148.262 140.252 132.942 126.312 120.152 114.462 109.282 104.522
2112.231 100.142 96.162 92.492 88.982 85.702 82.712 79.932 77.342 75.002 72.802
2131.521 70.612 68.542 66.722 65.012 63.362 61.822 60.392 59.072 57.752 56.542
2150.810 55.472 54.472 53.452 52.582 51.762 50.932 50.202 49.542 49.002 48.512
2170.100 48.022 47.532 47.112 46.792 46.472 46.152 45.832 45.492 45.152 44.742
2189.390 44.322 43.732 43.042 42.402 41.582 40.612 39.532 38.372 37.112 35.722
2208.680 34.352 32.972 31.482 30.042 28.682 27.282 25.932 24.652 23.382 22.162
2227.970 21.012 19.872 18.812 17.832 16.862 15.932 15.062 14.202 13.442 12.732
2247.259 12.092 11.492 10.932 10.412 9.922 9.452 8.992 8.612 8.242 7.872
2266.549 7.552 7.292 7.022 6.702 6.422 6.122 5.872 5.682 5.532 5.362
2285.839 5.182 4.982 4.782 4.612 4.412 4.262 4.152 4.022 3.922 3.802
2305.129 3.702 3.562 3.422 3.322 3.252 3.102 2.942 2.822 2.802 2.772
2324.418 2.652 2.632 2.612 2.502 2.372 2.292 2.332 2.272 2.122 2.072
2343.708 2.072 2.102 2.102 2.012 1.932 1.872 1.842 1.792 1.802 1.822
2362.998 1.772 1.762 1.722 1.652 1.602 1.632 1.622 1.562 1.522 1.542
2382.288 1.542 1.582 1.552 1.442 1.452 1.432 1.422 1.392 1.352 1.342
2401.578 1.352 1.412 1.392 1.352 1.382 1.372 1.304 1.2769 1.2394 1.2085
2420.867 1.2505 1.312 1.2979 1.2335 1.282 1.332 1.2787 1.2564 1.2091 1.1664
2440.157 1.1667 1.222 1.227 1.1816 1.1695 1.2176 1.2895 1.2086 1.2444 1.2598
2459.447 1.2364 1.322 1.342 1.402 1.372 1.352 1.372 1.2955 1.3077 1.342
2478.737 1.322 1.2972 1.322 1.342 1.312 1.2991 1.332 1.442 1.462 1.422
2498.026 1.472 1.462 1.442 1.442 1.462 1.482 1.512 1.542 1.532 1.622
2517.316 1.702 1.692 1.732 1.752 1.782 1.782 1.792 1.882 1.922 1.942
2536.606 1.962 1.972 2.032 2.062 2.042 2.062 2.112 2.122 2.112 2.132
2555.896 2.082 2.072 2.232 2.332 2.312 2.302 2.292 2.312 2.372 2.432
2575.186 2.442 2.412 2.412 2.442 2.542 2.672 2.672 2.592 2.512 2.502
2594.475 2.532 2.422 2.342 2.432 2.522 2.502 2.482 2.452 2.462 2.502
2613.765 2.472 2.442 2.392 2.362 2.472 2.512 2.442 2.502 2.552 2.542
2633.055 2.592 2.612 2.652 2.672 2.692 2.722 2.732 2.832 2.912 2.942
2652.345 2.972 3.042 3.172 3.282 3.332 3.402 3.522 3.682 3.752 3.802
2671.634 3.892 4.012 4.172 4.262 4.402 4.552 4.702 4.772 4.792 4.852
2690.924 4.802 4.742 4.882 5.102 5.192 5.142 5.182 5.352 5.382 5.352
2710.214 5.522 5.702 5.752 5.952 6.192 6.302 6.442 6.602 6.772 6.992
2729.504 7.052 7.072 7.262 7.312 7.322 7.402 7.382 7.382 7.362 7.252
2748.794 7.172 7.122 6.942 6.872 6.832 6.692 6.632 6.552 6.512 6.482
2768.083 6.442 6.352 6.342 6.422 6.492 6.532 6.612 6.812 6.962 6.972
2787.373 7.022 7.312 7.612 7.712 7.832 8.112 8.352 8.552 8.832 9.082
2806.663 9.312 9.482 9.762 10.222 10.702 11.152 11.512 11.982 12.592 13.232
2825.953 13.922 14.632 15.432 16.432 17.522 18.742 20.322 22.302 24.572 27.442
2845.242 31.082 35.602 41.292 48.312 56.782 66.252 76.182 85.912 94.012 99.532
2864.532 102.162 101.782 98.972 94.692 89.702 84.772 80.602 77.352 74.952 73.192
2883.822 71.522 69.982 68.302 66.492 64.962 64.082 64.112 64.892 66.632 69.462
2903.112 73.262 78.092 83.772 90.382 98.312 107.392 117.922 130.282 144.522 161.152
2922.401 179.942 200.262 221.052 240.372 256.062 266.102 269.892 268.342 262.092 251.952
2941.691 239.402 225.432 211.012 196.732 183.032 170.592 159.192 148.802 139.532 131.012
2960.981 123.462 116.612 110.272 104.192 97.222 89.302 80.512 70.802 61.302 52.882
2980.271 45.892 40.052 35.062 31.022 27.842 25.332 23.012 20.982 19.322 17.742
2999.561 16.462 15.392 14.372 13.422 12.622 11.962 11.322 10.712 10.082 9.442
3018.850 8.982 8.672 8.312 7.962 7.652 7.332 7.002 6.732 6.512 6.142
3038.140 5.792 5.552 5.302 5.172 5.042 4.882 4.722 4.582 4.432 4.152
3057.430 4.022 3.942 3.752 3.592 3.592 3.622 3.442 3.192 3.152 3.092
3076.720 2.902 2.862 2.902 2.882 2.772 2.642 2.552 2.592 2.612 2.572
3096.009 2.612 2.552 2.392 2.162 2.122 2.122 2.032 2.082 2.142 2.002
3115.299 1.962 2.122 2.022 1.872 1.952 1.932 1.832 1.832 1.872 1.832
3134.589 1.772 1.742 1.722 1.712 1.782 1.832 1.712 1.612 1.552 1.502
3153.879 1.402 1.412 1.502 1.562 1.512 1.462 1.492 1.422 1.342 1.342
3173.169 1.332 1.3118 1.2302 1.1924 1.2313 1.134 1.1819 1.2576 1.053 1.0297
3192.458 1.034 1.0377 1.1007 0.9741 1.0126 1.1204 1.0763 1.0024 0.9649 0.8978
3211.748 0.8087 0.8485 0.9101 0.8571 0.7896 0.7051 0.7543 0.828 0.7473 0.6704
3231.038 0.5592 0.5835 0.6247 0.6113 0.6764 0.6729 0.6618 0.6273 0.4984 0.4655
3250.328 0.4918 0.5208 0.5195 0.4784 0.459 0.432 0.37034 0.30675 0.37702 0.4622
3269.617 0.4771 0.4356 0.5143 0.4507 0.201 0.2835 0.4156 0.37506 0.37346 0.36314
3288.907 0.4783 0.4581 0.2594 0.218 0.2347 0.288 0.30843 0.4536 0.4208 0.32403
3308.197 0.41105 0.4981 0.446 0.34247 0.4449 0.5942 0.4796 0.3074 0.312584 0.3245
3327.487 0.33123 0.4497 0.5544 0.4306 0.39694 0.41167 0.2806 0.2243 0.209 0.2398
3346.777 0.207 0.152 0.062 0 0.129 0.2486 0.2269 0.34835 0.5326 0.313386
3366.066 0.2849 0.454 0.4347 0.41011 0.4296 0.4582 0.38225 0.38467 0.41036 0.2473
3385.356 0.2848 0.4362 0.4282 0.36472 0.33139 0.4203 0.38629 0.39342 0.4342 0.40316
3404.646 0.4593 0.5342 0.5125 0.35616 0.33802 0.2828 0.2283 0.33757 0.35275 0.32615
3423.936 0.4325 0.4628 0.317561 0.4636 0.5219 0.3756 0.39749 0.4957 0.5002 0.39987
3443.225 0.30593 0.2699 0.34189 0.4138 0.37705 0.32355 0.30451 0.2908 0.279 0.055
3462.515 0.137 0.38313 0.32727 0.2914 0.34228 0.32107 0.36744 0.34214 0.311506 0.4295
3481.805 0.4351 0.35541 0.37456 0.30219 0.2298 0.2424 0.138 0.2211 0.35663 0.35763
3501.095 0.43 0.4419 0.38656 0.36902 0.33312 0.33675 0.2604 0.2269 0.2301 0.159
3520.385 0.178 0.2372 0.2799 0.2238 0.187 0.320476 0.2449 0.2751 0.33674 0.2822
3539.674 0.36348 0.35359 0.2929 0.172 0.174 0.2652 0.131 0.087 0.202 0.287
3558.964 0.2586 0.30892 0.4412 0.419 0.287 0.145 0.163 0.2387 0.38629 0.4409
3578.254 0.4852 0.4134 0.36685 0.4994 0.4529 0.4455 0.4638 0.35383 0.4363 0.5692
3597.544 0.4273 0.37406 0.5036 0.34394 0.296 0.5336 0.4927 0.4689 0.548 0.5197
3616.833 0.4698 0.6178 0.6907 0.5945 0.5573 0.6479 0.787 0.76 0.6129 0.6408
3636.123 0.7978 0.6631 0.4944 0.6548 0.7227 0.6465 0.7025 0.7002 0.6285 0.7259
3655.413 0.7794 0.6514 0.6099 0.5696 0.6043 0.6432 0.5402 0.6112 0.7966 0.6396
3674.703 0.5652 0.6874 0.7649 0.675 0.571 0.5235 0.5346 0.6325 0.6432 0.7464
3693.993 0.681 0.5513 0.6212 0.7075 0.729 0.6931 0.708 0.753 0.7023 0.5643
3713.282 0.5042 0.604 0.6017 0.5808 0.6166 0.7023 0.6854 0.4875 0.37455 0.4387
3732.572 0.5051 0.5194 0.6267 0.7592 0.5996 0.4623 0.58 0.7647 0.8195 0.7139
3751.862 0.5837 0.6274 0.8044 0.798 0.7666 0.8097 0.7719 0.7017 0.6466 0.6712
3771.152 0.7469 0.774 0.7586 0.6839 0.6183 0.5984 0.6471 0.7265 0.6796 0.6311
3790.441 0.7222 0.867 0.8458 0.7312 0.7165 0.7325 0.6993 0.828 0.9066 0.7661
3809.731 0.7542 0.7842 0.8156 0.8667 0.8973 0.8514 0.8036 0.8208 0.8661 0.9064
3829.021 0.9076 0.8123 0.8633 0.8606 0.8104 0.8575 0.764 0.8686 0.8734 0.8823
3848.311 0.9421 0.7621 0.6926 0.6251 0.7571 0.862 0.9242 0.9938 0.9552 0.8609
3867.601 0.7641 0.8741 0.9689 0.9903 0.9541 0.8456 0.798 0.9227 0.8868 0.928
3886.890 0.9615 0.8809 0.9274 0.8065 0.7158 0.7398 0.7589 0.8621 0.9267 0.9129
3906.180 0.8153 0.7782 0.8494 0.9042 0.9072 0.9125 0.9359 0.8844 0.9585 1.2127
3925.470 1.1957 1.0172 1.0943 1.1785 1.1153 1.0584 1.1253 1.1674 1.1355 1.2066
3944.760 1.146 0.9912 1.1177 1.1997 1.1468 1.1978 1.2304 1.2162 1.254 1.2379
3964.049 1.2008 1.3057 1.342 1.2651 1.2339 1.2836 1.352 1.492 1.632 1.512
3983.339 1.492 1.622 1.602 1.572 1.652 1.792 1.672 1.642 1.842 1.982
##END=
