##TITLE=2,6-Difluorobenzyl alcohol
##JCAMP-DX=4.24
##DATA TYPE=INFRARED SPECTRUM
##ORIGIN=EPA-IR VAPOR PHASE LIBRARY
##OWNER=SRD/NIST
Collection (C) 2018 copyright by the U.S. Secretary of Commerce
on behalf of the United States of America. All rights reserved.
##CAS REGISTRY NO=19064-18-7
##MOLFORM=C 7 H 6 F 2 O
##$NIST SOURCE=MSDC-IR
##STATE=gas
##XUNITS=1/CM
##YUNITS=ABSORBANCE
##XFACTOR=1.
##YFACTOR=0.001
##DELTAX=1.92898
##FIRSTX=549.8
##LASTX=4000.7
##FIRSTY=5.23
##MAXX=4000.7
##MINX=549.759
##MAXY=0.06522
##MINY=0
##NPOINTS=1790
##XYDATA=(X++(Y..Y))
549.759 5.23 5.56 5.73 5.51 5.55 6.28 6.34 5.71 5.66 6.01
569.049 4.76 3.01 3.1 3.26 2.86 2.66 2.56 2.86 2.94 2.69
588.339 2.54 2.2 1.5981 1.4783 1.4913 1.3523 1.401 1.4127 1.6887 1.7828
607.628 1.9198 1.8463 1.4373 1.3515 1.4614 1.7451 1.6115 1.03369 1.3003 1.6251
626.918 1.4655 1.1969 0.9487 1.7479 2.0087 1.5201 1.10286 1.2034 1.4456 0.9844
646.208 0.876 1.06822 1.3421 1.4649 1.278 0.99 1.1712 1.2319 1.05013 1.5331
665.498 2.09 2.62 3.2 3.63 3.83 3.53 3.48 4.76 5.32 4.01
684.787 2.84 2.93 3.36 3.11 2.95 2.84 2.67 2.59 2.52 2.21
704.077 1.976 2.6 3.28 3.79 5.11 5.86 6.54 7.93 8.78 9.12
723.367 10 11.15 12.46 14.36 14.75 12.13 9.46 8.48 7.99 7.66
742.657 6.82 5.7 4.94 4.34 3.72 3.49 3.59 3.76 4.22 5.08
761.947 6.34 8.19 9.97 11.57 13.66 15.52 17.13 19.2 22.32 27.25
781.236 33.07 34.56 28.08 20.97 18.51 17.42 16.31 14.61 12 9.51
800.526 7.47 5.64 4.27 3.51 3.17 3.59 3.91 3.97 4.17 4
819.816 4.48 5.17 5.96 6.38 6.07 6.02 5.42 5.05 5.21 4.71
839.106 3.93 3.37 2.99 2.79 2.54 2.39 2.54 2.57 2.18 2.05
858.395 2.34 2.39 2.22 2.71 2.93 2.63 2.36 2.04 2.34 3.11
877.685 3.41 3.18 3.1 3.09 3.28 4.08 4.6 4.97 5.69 6.76
896.975 7.73 8.52 9.73 10.39 11.43 13.09 13.63 13.54 14.03 14.36
916.265 14.18 13.79 13.03 12.03 10.96 10.25 9.54 8.68 8.2 7.97
935.555 7.46 6.54 5.96 5.85 6.05 5.96 5.71 5.87 5.8 5.84
954.844 6.52 6.87 6.65 6.23 6.32 6.81 6.86 7.01 7.03 7.13
974.134 7.83 7.92 8.45 9.4 9.57 10.34 11.57 12.04 12.18 13.24
993.424 15.01 16.32 17.74 20.16 22.98 26.03 29.49 33.23 36.91 41
1012.714 45.17 48.79 52.63 56.95 60.83 62.13 60.98 59.8 59.56 59.73
1032.003 58.63 56.66 54.89 52.8 50.71 48.43 45.03 42.24 40.04 36.96
1051.293 32.23 27.53 23.81 20.5 18.23 17.07 15.74 13.71 12.14 11.28
1070.583 10.32 8.91 8.07 8.15 8.1 7.18 6.57 6.83 7.13 5.46
1089.873 4.65 5.8 5.22 4.86 4.84 4.87 5.11 3.7 3.86 4.17
1109.163 3.39 4.42 5.38 5.22 4.7 4.11 3.4 3.83 4.84 4.8
1128.452 3.98 3.44 3.91 4.27 4.48 5.39 5.84 5.35 5.37 6.3
1147.742 6.17 6.13 7.02 7.11 7.39 7.01 6.96 7.91 8.65 8.8
1167.032 9.34 11 12.74 14.6 15.72 17.26 18.81 20.32 22.26 23.83
1186.322 25.3 25.99 26.26 26.93 27.51 26.65 26.05 25.33 22.96 22.03
1205.611 21.71 20.09 18.52 16.28 15.24 16.44 16.73 17.69 19.19 21.13
1224.901 23.78 24.61 25.07 25.94 26.44 26.39 25.31 24.6 24.28 23.13
1244.191 21.47 18.96 16.89 15.46 14.38 14.48 15.26 16.82 19.16 21.8
1263.481 23.55 24.7 26.04 26.13 26.31 26.24 24.86 23.26 21.32 18.68
1282.771 15.83 12.52 10.03 8.49 6.91 6.41 5.99 5.47 5.66 5.77
1302.060 5.39 5.13 5.33 5.41 5.35 5.37 5.34 5.33 5.24 5.22
1321.350 5.23 5.11 5.14 5.3 5.15 5.01 5.11 5.28 5.56 5.61
1340.640 5.6 5.71 5.88 6.06 6.23 6.21 6.17 6.32 6.59 6.83
1359.930 7.11 7.63 8.19 8.74 9.29 10.12 11.13 12.04 12.92 13.7
1379.219 14.47 15.12 15.54 15.85 16.09 16.06 15.7 15.17 14.52 13.74
1398.509 12.85 11.9 11.02 10.09 9.3 8.58 7.86 7.35 6.99 6.59
1417.799 6.32 6.19 5.83 5.68 5.62 5.38 5.36 5.44 5.72 6.07
1437.089 6.16 6.58 7.44 8.42 9.66 11.41 13.76 16.64 20.06 24.11
1456.378 29.35 35.33 41.41 48.12 54.47 59.67 63.41 65.22 64.83 63
1475.668 60.78 57.98 53.32 46.82 39.23 31.19 23.96 18.38 14.38 11.67
1494.958 9.81 8.23 6.86 5.85 5.07 4.58 4.06 3.67 3.69 3.63
1514.248 3.43 3.34 3.15 3.11 3.17 3.12 3.3 3.61 3.87 3.95
1533.538 4.21 4.72 5.43 6.21 6.42 6.68 7.33 7.9 8.41 9.16
1552.827 9.78 10.39 11.05 11.61 11.92 12.15 12.66 13.28 14.12 14.95
1572.117 15.91 17.02 18.82 20.94 22.82 24.74 26.58 28.28 29.28 30.04
1591.407 30.64 30.72 30.31 29.62 28.28 26.65 25.23 24.42 24.79 25.99
1610.697 27.85 30.54 33.7 36.74 38.47 38.96 38.87 37.82 35.73 32.95
1629.986 29.69 25.93 21.95 17.71 13.84 10.73 8.36 6.73 5.72 4.97
1649.276 4.3 4.08 3.95 3.51 3.09 2.83 2.64 2.45 2.27 2.24
1668.566 1.9274 1.6989 1.6822 1.6784 1.7454 1.7448 1.6244 1.4431 1.4605 1.6015
1687.856 1.6882 1.5873 1.3614 1.3827 1.5887 1.5408 1.543 1.4016 1.2204 1.2851
1707.146 1.2555 1.2847 1.3503 1.3437 1.3038 1.2956 1.4131 1.3083 1.3548 1.4907
1726.435 1.3695 1.5009 1.7919 1.888 2.16 2.25 2.16 2.18 2.03 2.03
1745.725 1.949 1.8992 1.7884 1.6476 1.6247 1.3821 1.149 1.03027 0.9769 1.01123
1765.015 1.0307 1.04905 0.92 0.795 0.859 0.9485 0.9788 0.889 0.787 0.9954
1784.305 1.07307 0.9711 0.9646 0.9211 0.853 0.739 0.735 0.732 0.711 0.72
1803.594 0.831 0.9438 1.0066 0.9782 0.9609 1.1721 1.4718 1.5508 1.5775 1.6731
1822.884 1.6987 1.7035 1.672 1.6225 1.6309 1.6699 1.551 1.3676 1.2507 1.1815
1842.174 1.0614 1.02128 0.9752 0.88 0.75 0.729 0.911 0.89 0.816 0.736
1861.464 0.734 0.88 0.768 0.688 0.791 0.748 0.742 0.733 0.614 0.658
1880.754 0.687 0.705 0.894 0.9495 0.908 1.04472 1.1707 1.10428 1.2109 1.4956
1900.043 1.7 1.8279 1.9258 2.16 2.33 2.36 2.34 2.35 2.34 2.2
1919.333 1.9445 1.8208 1.7488 1.4462 1.11787 0.792 0.769 0.854 0.86 0.9827
1938.623 0.909 0.685 0.79 0.9634 0.9809 0.9593 0.9959 1.03919 0.906 0.832
1957.913 0.861 0.911 0.822 0.788 0.775 0.784 0.899 0.873 0.871 0.908
1977.202 0.9414 0.9539 0.854 0.827 0.907 0.9727 0.9613 0.914 0.846 0.813
1996.492 0.879 0.9406 0.9345 1.02369 1.1984 1.07218 0.876 0.9341 1.06124 1.11418
2015.782 1.11182 1.2301 1.2434 1.10809 1.1924 1.3246 1.2834 1.2416 1.2044 1.2349
2035.072 1.1881 1.1408 1.1265 1.01452 1.07873 1.06678 1.004 0.866 0.834 0.857
2054.362 0.737 0.771 0.912 1.0346 0.9631 0.751 0.869 0.9934 0.9865 1.07597
2073.651 1.02315 0.819 0.658 0.802 0.796 0.628 0.69 0.85 0.784 0.733
2092.941 0.851 0.859 0.885 0.9994 0.9803 1.04288 1.01426 0.887 0.677 0.553
2112.231 0.785 0.813 0.728 0.86 0.784 0.799 0.9712 0.859 0.796 0.744
2131.521 0.721 0.765 0.768 0.803 0.874 0.88 0.885 0.889 0.828 0.581
2150.810 0.652 0.9755 0.9694 0.9342 1.01253 0.9726 0.804 0.795 0.9727 1.1627
2170.100 0.9924 0.698 0.808 0.916 0.788 0.732 0.9299 0.9502 0.9635 0.9649
2189.390 0.917 0.9615 0.908 0.746 0.84 0.9305 0.625 0.595 0.819 0.89
2208.680 0.726 0.864 1.01472 0.873 0.9237 1.05796 0.9989 0.887 0.709 0.783
2227.970 0.855 0.716 0.723 0.767 0.788 0.758 0.794 0.795 0.765 0.674
2247.259 0.809 0.9231 0.823 0.885 0.81 0.602 0.623 0.873 1.03092 0.9257
2266.549 1.07733 1.1604 0.9867 1.0023 0.9654 1.0005 1.1625 1.1749 1.1803 1.1872
2285.839 1.2082 1.2988 1.3543 1.311 1.1945 1.2984 1.5283 1.593 1.512 1.5519
2305.129 1.5468 1.5462 1.4784 1.1928 1.11619 1.2319 1.1676 1.06917 0.923 0.789
2324.418 0.762 0.724 0.82 0.912 0.9218 1.09229 1.07551 0.77 0.758 0.9
2343.708 0.9658 1.06066 1.07457 1.05517 1.0386 0.899 0.9812 1.1433 1.02776 0.866
2362.998 0.773 0.9748 1.1355 0.9571 0.9365 0.846 0.893 0.851 0.867 1.06155
2382.288 0.9239 0.9369 1.07845 1.1315 1.1229 1.11049 1.1876 1.05887 1.0026 1.10579
2401.578 1.03128 1.01334 1.02267 0.9781 0.9529 0.9941 0.9326 0.876 1.09303 1.1902
2420.867 1.1325 1.01882 0.847 0.894 1.03187 1.0392 0.92 1.0012 1.0105 0.993
2440.157 1.05521 1.11955 1.1226 1.0081 0.898 0.809 0.737 0.73 0.865 1.05852
2459.447 1.2113 1.1382 1.1608 1.1903 1.07782 1.01231 0.909 0.812 0.689 0.781
2478.737 0.81 0.75 0.887 0.835 0.855 0.9752 0.9928 1.10236 1.2448 1.2299
2498.026 1.1603 1.2562 1.3977 1.3659 1.1939 1.2488 1.4827 1.3636 1.07307 1.145
2517.316 1.2581 1.3284 1.5144 1.4706 1.3325 1.08222 0.818 0.87 1.1491 1.193
2536.606 1.0701 1.03116 1.09544 1.09694 1.0028 1.07621 1.08821 0.9921 0.997 1.06777
2555.896 1.11326 1.135 1.2264 1.07345 0.621 0.449 0.55 0.598 0.776 0.883
2575.186 0.771 0.67 0.774 0.748 0.566 0.66 0.734 0.872 0.776 0.743
2594.475 0.852 0.708 0.677 0.648 0.653 0.841 1.0076 0.768 0.604 0.698
2613.765 0.61 0.724 0.87 0.864 0.72 0.768 0.754 0.621 0.72 0.762
2633.055 0.894 1.06686 1.0004 0.716 0.682 0.724 0.716 1.11235 1.2359 0.9488
2652.345 1.03716 1.1427 0.867 0.597 0.819 1.0021 0.842 0.849 0.9292 0.85
2671.634 0.703 0.658 0.893 1.0007 0.689 0.709 0.84 0.877 0.699 0.561
2690.924 0.706 0.709 0.67 0.617 1.02896 1.2708 1.08178 0.9209 0.682 0.616
2710.214 0.789 0.859 0.892 0.881 0.604 0.525 0.598 1.04867 1.3294 1.1865
2729.504 1.1554 1.2006 1.2504 1.11898 0.9328 0.819 0.822 1.08816 1.18 1.11483
2748.794 1.10522 0.782 0.897 1.07547 1.002 0.9222 0.719 0.774 0.9688 1.10899
2768.083 1.1323 1.08591 0.982 1.02475 0.9761 0.9417 1.10776 1.02611 0.765 0.783
2787.373 1.0062 1.0059 1.1798 1.3586 1.4018 1.3166 1.09585 1.0048 0.9355 1.05145
2806.663 1.10277 0.903 1.1823 1.2719 1.2562 1.3268 1.05672 1.1534 1.3265 1.1437
2825.953 1.2797 1.4115 1.3037 1.3772 1.2974 1.1898 1.583 1.6693 1.6701 1.719
2845.242 1.5879 1.8709 1.9257 1.9598 2.11 2.09 2.1 2.32 2.43 2.46
2864.532 2.42 2.08 2.36 3.04 3.39 3.61 3.86 4 4.25 4.75
2883.822 5.2 5.72 6.44 6.97 7.21 7.83 8.51 8.78 8.52 8.17
2903.112 8.03 7.61 7.01 6.75 6.3 6.09 5.63 5.07 5.06 4.71
2922.401 4.08 3.95 4.21 4.17 4.21 4.34 4.45 4.37 4.4 4.56
2941.691 4.72 4.9 4.83 4.97 5.15 5.2 5.33 5.68 5.88 5.71
2960.981 5.8 5.66 5.46 5.57 5.46 5.37 5.45 5.77 5.46 5.07
2980.271 5.33 5.42 5.14 4.75 4.55 4.55 4.6 4.38 4.11 3.82
2999.561 3.88 3.73 3.33 3.25 3.06 2.81 2.7 2.52 2.26 2.37
3018.850 2.14 1.8233 2.08 2.27 2.1 1.7549 1.7564 1.8464 1.9038 2.17
3038.140 2.13 2.22 2.16 1.8474 1.8525 1.792 1.6085 1.5798 1.6559 1.5084
3057.430 1.529 1.6522 1.9628 2.25 2.47 2.36 2.21 2.54 2.73 2.73
3076.720 3 3.22 2.97 3 2.9 3.19 3.56 3.4 3.26 3.02
3096.009 2.9 2.86 2.8 2.34 1.9668 1.8326 1.8896 1.9009 1.529 1.4296
3115.299 1.352 1.0901 0.847 0.677 0.605 0.504 0.575 0.8 0.654 0.662
3134.589 0.579 0.321 0.491 0.553 0.688 0.752 0.457 0.383 0.622 0.795
3153.879 0.706 0.684 0.638 0.72 0.874 0.9993 1.08877 1.2767 0.9239 0.399
3173.169 0.871 1.219 0.797 0.62 0.825 0.9626 0.773 0.289 0.486 0.9419
3192.458 0.693 0.765 0.85 0.476 0.751 0.787 0.5 0.577 0.659 0.38
3211.748 0.307 0.373 0.447 0.362 0.565 0.857 0.669 0.608 0.445 0.9257
3231.038 1.1477 0.851 0.604 0.456 0.784 0.704 0.69 1.2849 1.4317 1.09058
3250.328 0.691 0.509 0.467 0.468 0.402 0.53 0.9303 0.681 0.365 0.565
3269.617 0.562 0.592 0.724 0.508 0.554 0.9207 0.72 0.41 0.455 0.62
3288.907 0.738 0.631 1.0039 1.0053 0.747 1.02449 0.999 0.848 0.9648 1.1744
3308.197 1.2014 1.09717 0.9249 0.725 0.62 0.688 1.03604 1.08288 0.9765 0.547
3327.487 0.358 1.04008 1.2519 1.1621 1.2115 1.2113 0.9216 0.531 0.488 0.826
3346.777 0.454 0.215 0.431 0.362 0.501 0.67 0.497 0.086 0.338 0.754
3366.066 0.542 0.724 0.97 0.765 0.697 0.817 1.08913 0.9269 0.9574 1.11069
3385.356 1.0065 0.9231 0.9634 1.09743 0.926 0.727 0.9646 0.598 0.593 0.9439
3404.646 0.9248 0.9436 0.772 1.11942 1.3331 0.901 0.762 0.798 1.0028 1.1869
3423.936 1.09015 1.2395 0.9962 0.602 0.528 0.699 0.84 0.73 0.643 0.68
3443.225 0.9647 1.08793 0.764 0.72 0.493 0 0.111 0.663 0.429 0.301
3462.515 1.03664 0.895 0.689 0.861 0.68 0.9215 1.08783 0.878 0.937 0.906
3481.805 0.753 0.723 0.752 0.9967 0.9815 0.628 0.537 0.636 0.633 0.674
3501.095 1.1781 1.2342 0.446 0.416 0.908 0.667 0.546 0.76 1.08337 1.06259
3520.385 0.97 1.01375 0.87 0.94 0.857 0.801 0.824 1.04403 1.1859 0.849
3539.674 0.593 0.697 0.548 0.532 0.9651 1.10504 1.1588 1.3518 1.2767 0.909
3558.964 0.57 0.827 1.1778 1.08269 1.3048 1.4495 1.02777 0.634 1.0035 1.11336
3578.254 0.789 0.761 0.689 0.9548 1.2695 1.03593 1.0402 1.05847 1.02412 1.1264
3597.544 1.2483 1.6865 1.7595 1.6016 1.4053 1.8645 2.53 1.949 1.6768 2.11
3616.833 1.9909 1.658 1.8458 2.07 2.1 2.61 3 2.91 2.52 2.29
3636.123 2.71 3.59 4.46 5.1 5.58 6.67 8.15 9.06 9.77 9.99
3655.413 10.59 11.54 11.97 11.2 10.07 9.51 8.94 8.18 7.03 6.04
3674.703 5.25 4.75 4.22 3.19 3.18 2.96 2.008 2.31 2.72 2.37
3693.993 2.42 2.71 3.01 2.85 2.53 2.35 2.47 2.56 2.32 2.38
3713.282 2.11 1.8091 1.7916 2.05 1.9421 1.7761 1.5859 0.908 0.9263 1.4404
3732.572 1.3907 1.31 1.4057 0.949 1.01376 1.6297 1.5102 0.814 0.559 0.569
3751.862 0.582 0.802 1.01231 1.01974 1.08841 1.06775 1.03101 1.4251 1.656 1.6227
3771.152 1.2806 0.894 1.2597 1.3304 0.752 0.409 0.503 0.666 0.667 0.724
3790.441 0.9766 1.1848 1.4668 1.5825 1.03729 1.1301 1.03946 0.717 0.838 0.877
3809.731 0.863 1.06224 1.5562 1.5783 1.3241 1.1628 0.9888 1.1303 1.08341 0.9606
3829.021 1.3618 1.4359 1.09403 0.9457 0.767 0.423 0.9903 1.4222 1.072 1.1576
3848.311 1.2188 1.09105 1.2909 1.8298 1.831 1.3743 1.5372 1.6543 1.2832 1.2931
3867.601 0.968 0.666 1.2577 1.2601 0.855 1.2135 1.4757 0.9286 0.137 0.465
3886.890 1.3624 0.9588 0.736 0.9489 0.725 0.578 0.752 1.1541 1.4188 1.4001
3906.180 1.2465 1.05878 0.842 1.1713 1.4041 1.406 1.2396 1.2624 1.2478 0.799
3925.470 0.577 0.572 0.583 0.908 1.4606 1.4026 1.1996 1.3039 0.9788 0.647
3944.760 0.622 0.387 0.557 1.0833 1.3206 0.911 0.706 1.03523 1.06568 0.9525
3964.049 1.01176 0.787 0.627 0.432 0.641 0.921 0.792 0.822 0.756 0.58
3983.339 0.354 0.73 1.1771 1.09727 0.782 0.634 0.742 0.744 0.638 0.592
##END=
