##TITLE=2-Chloro-5-iodobenzoic acid
##JCAMP-DX=4.24
##DATA TYPE=INFRARED SPECTRUM
##ORIGIN=EPA-IR VAPOR PHASE LIBRARY
##OWNER=SRD/NIST
Collection (C) 2018 copyright by the U.S. Secretary of Commerce
on behalf of the United States of America. All rights reserved.
##CAS REGISTRY NO=19094-56-5
##MOLFORM=C 7 H 4 Cl I O 2
##$NIST SOURCE=MSDC-IR
##STATE=gas
##XUNITS=1/CM
##YUNITS=ABSORBANCE
##XFACTOR=1.
##YFACTOR=0.001
##DELTAX=1.92898
##FIRSTX=549.8
##LASTX=4000.7
##FIRSTY=19.871
##MAXX=4000.7
##MINX=549.759
##MAXY=0.166761
##MINY=0
##NPOINTS=1790
##XYDATA=(X++(Y..Y))
549.759 19.871 20.971 22.751 24.731 26.491 28.701 31.111 33.861 36.921 39.641
569.049 42.021 43.461 44.271 44.161 43.011 41.671 40.261 38.741 37.051 34.811
588.339 32.071 29.641 27.301 24.841 22.401 20.091 18.061 16.041 14.241 12.841
607.628 11.751 10.911 10.071 9.361 9.191 9.221 9.541 10.701 12.721 16.561
626.918 22.751 30.171 36.521 40.491 43.171 43.041 38.461 32.511 26.861 21.001
646.208 15.691 11.681 9.191 7.641 6.351 5.241 4.541 4.441 4.431 4.271
665.498 4.311 4.321 4.341 4.621 5.011 5.631 6.321 7.211 8.651 10.101
684.787 12.091 14.521 16.631 18.341 19.511 20.321 20.261 19.141 17.401 15.121
704.077 12.511 10.111 8.021 6.321 5.011 4.051 3.371 2.801 2.271 2.021
723.367 1.881 1.781 1.891 1.871 1.951 1.831 1.651 1.901 2.241 2.321
742.657 2.121 2.211 2.501 2.761 3.071 3.441 3.881 4.211 4.581 5.091
761.947 5.431 5.871 6.561 7.431 8.381 9.221 10.371 11.591 12.461 13.081
781.236 12.931 12.091 11.311 10.731 10.011 9.251 8.651 8.611 8.951 9.311
800.526 10.511 12.391 14.651 17.541 20.601 23.711 26.971 30.041 31.921 30.571
819.816 26.181 21.771 18.271 14.681 11.241 8.431 6.371 4.951 3.911 3.511
839.106 3.311 2.861 2.381 2.271 2.141 1.841 1.751 1.691 1.541 1.401
858.395 1.391 1.361 1.2394 1.0786 1.1749 1.341 1.391 1.461 1.801 2.001
877.685 2.091 2.361 2.601 3.161 4.141 4.901 5.481 6.121 6.731 7.031
896.975 7.011 6.711 6.131 5.461 4.641 4.011 3.591 3.131 2.621 2.421
916.265 2.201 1.831 1.601 1.511 1.471 1.361 1.2605 1.222 1.2399 1.2092
935.555 1.251 1.263 1.321 1.521 1.541 1.551 1.691 1.651 1.561 1.661
954.844 1.681 1.621 1.641 1.591 1.571 1.661 1.751 1.711 1.571 1.591
974.134 1.671 1.621 1.761 2.021 2.081 2.011 2.181 2.371 2.331 2.451
993.424 2.741 3.031 3.411 3.821 4.151 4.711 5.621 6.901 8.511 10.291
1012.714 12.041 13.541 14.911 16.161 17.561 19.061 21.161 24.881 30.221 36.711
1032.003 43.981 51.881 59.871 66.841 71.901 73.961 72.551 68.591 62.401 54.521
1051.293 46.491 39.291 33.461 29.071 25.881 23.781 22.611 21.901 21.841 22.391
1070.583 23.221 24.541 25.851 27.201 29.131 30.681 32.001 33.271 33.861 35.171
1089.873 37.281 40.291 45.251 51.501 58.031 64.831 71.281 77.061 82.251 85.831
1109.163 87.441 88.511 88.851 86.451 80.371 72.041 62.901 53.381 44.611 38.321
1128.452 35.221 34.391 34.191 33.961 33.751 33.181 33.001 32.951 32.851 33.421
1147.742 33.921 34.561 35.461 36.021 36.491 37.411 38.961 41.011 43.691 46.991
1167.032 51.151 55.861 60.671 66.291 72.151 77.731 83.031 87.021 88.541 86.931
1186.322 82.011 73.781 63.731 53.491 43.881 36.071 30.091 25.771 22.741 20.421
1205.611 18.791 17.361 16.101 14.941 14.171 13.401 12.321 11.561 11.191 10.581
1224.901 9.891 9.721 9.481 9.311 9.341 9.431 9.391 9.131 9.271 9.621
1244.191 10.091 10.881 11.771 12.731 13.891 15.541 17.351 18.971 20.031 20.501
1263.481 20.851 20.891 20.501 20.431 20.731 20.621 20.581 20.821 20.981 21.021
1282.771 21.111 21.311 21.731 22.081 22.511 23.031 23.601 24.381 25.271 26.521
1302.060 27.911 29.411 31.201 33.221 35.591 38.171 40.821 43.431 45.921 48.101
1321.350 49.641 50.301 49.701 47.821 44.861 40.991 36.531 31.921 27.581 23.911
1340.640 20.981 18.701 16.951 15.611 14.691 14.091 13.691 13.531 13.581 13.761
1359.930 14.121 14.651 15.381 16.321 17.391 18.671 20.221 21.901 23.531 25.051
1379.219 26.411 27.581 28.711 29.921 31.301 32.881 34.361 35.301 35.371 34.411
1398.509 32.211 28.951 25.181 21.221 17.501 14.411 12.111 10.431 9.161 8.231
1417.799 7.531 6.981 6.621 6.371 6.211 6.151 6.241 6.451 6.801 7.361
1437.089 8.151 9.111 10.371 12.001 14.041 16.571 19.521 22.711 26.111 29.381
1456.378 32.371 35.001 36.651 37.181 36.361 34.111 30.771 26.661 22.161 17.691
1475.668 13.921 10.921 8.701 7.081 5.841 5.011 4.371 3.821 3.331 2.941
1494.958 2.681 2.491 2.391 2.261 2.201 2.181 2.161 2.091 2.051 2.011
1514.248 1.971 2.011 2.051 2.041 2.061 2.101 2.131 2.271 2.421 2.621
1533.538 2.961 3.291 3.691 4.171 4.631 5.121 5.631 5.991 6.221 6.241
1552.827 6.061 5.891 5.631 5.401 5.311 5.271 5.341 5.491 5.671 5.771
1572.117 5.821 5.761 5.711 5.541 5.081 4.611 4.191 3.731 3.291 2.861
1591.407 2.601 2.451 2.301 2.141 1.971 1.991 2.031 2.001 2.031 2.041
1610.697 2.031 2.111 2.211 2.391 2.521 2.581 2.811 3.021 3.231 3.401
1629.986 3.471 3.401 3.341 3.251 2.951 2.711 2.501 2.371 2.281 2.201
1649.276 2.111 2.051 2.081 2.061 2.071 2.071 2.011 1.931 1.911 1.941
1668.566 2.021 2.101 2.041 2.111 2.221 2.221 2.341 2.431 2.571 2.731
1687.856 2.861 3.021 3.081 3.201 3.401 3.631 3.971 4.241 4.571 5.071
1707.146 5.601 6.151 6.811 7.691 8.671 9.751 11.081 12.601 14.351 16.351
1726.435 18.571 20.971 23.491 25.981 28.651 31.401 34.321 37.691 41.591 46.381
1745.725 52.091 58.901 66.701 75.501 84.551 92.991 100.611 107.301 114.091 121.461
1765.015 129.531 139.371 151.341 162.071 166.761 162.951 151.401 132.881 108.821 85.351
1784.305 69.151 60.311 55.731 52.861 50.521 48.111 45.301 41.711 37.491 33.041
1803.594 28.681 24.541 20.771 17.431 14.601 12.361 10.581 9.041 7.791 6.811
1822.884 5.991 5.301 4.731 4.281 3.931 3.621 3.331 3.131 3.001 2.841
1842.174 2.741 2.681 2.621 2.551 2.441 2.301 2.181 2.101 2.051 1.961
1861.464 1.861 1.801 1.731 1.681 1.681 1.721 1.771 1.821 1.851 1.901
1880.754 1.921 1.981 2.071 2.191 2.301 2.361 2.481 2.571 2.641 2.731
1900.043 2.781 2.751 2.661 2.521 2.371 2.181 1.981 1.761 1.561 1.411
1919.333 1.281 1.197 1.1612 1.0722 0.9978 0.994 0.9577 0.9223 0.9033 0.8638
1938.623 0.8338 0.7929 0.7972 0.8333 0.8239 0.8318 0.8407 0.8269 0.7956 0.8153
1957.913 0.8102 0.7433 0.7492 0.7854 0.8054 0.8063 0.805 0.8297 0.872 0.9025
1977.202 0.9069 0.9347 0.9794 0.9417 0.9258 0.984 1.0318 1.0122 0.9149 0.9173
1996.492 0.9698 0.9061 0.8397 0.799 0.7769 0.7397 0.6906 0.6512 0.6076 0.6402
2015.782 0.6691 0.6592 0.6114 0.6032 0.5937 0.5499 0.4972 0.4516 0.4751 0.4886
2035.072 0.4712 0.4378 0.4706 0.4445 0.4018 0.4204 0.4341 0.43 0.4282 0.4557
2054.362 0.4439 0.4353 0.4334 0.4276 0.3822 0.3757 0.3774 0.36058 0.4273 0.4832
2073.651 0.4908 0.4773 0.485 0.5145 0.5075 0.4798 0.5037 0.5348 0.498 0.5306
2092.941 0.6109 0.5965 0.5703 0.5536 0.5419 0.5548 0.5494 0.5505 0.6048 0.6328
2112.231 0.5957 0.5661 0.6094 0.7135 0.7624 0.7529 0.7231 0.7225 0.74 0.7285
2131.521 0.7366 0.7366 0.755 0.7648 0.7238 0.7276 0.7887 0.7595 0.7455 0.8022
2150.810 0.8044 0.7495 0.6874 0.6663 0.6022 0.5549 0.6228 0.6727 0.6718 0.6591
2170.100 0.6434 0.6633 0.6641 0.6458 0.6371 0.6577 0.6269 0.5647 0.5858 0.6605
2189.390 0.7011 0.7107 0.7057 0.6579 0.6446 0.6467 0.6034 0.6089 0.6686 0.7051
2208.680 0.6907 0.6569 0.6781 0.6434 0.5356 0.5508 0.6541 0.649 0.6682 0.6762
2227.970 0.6277 0.5458 0.5671 0.6471 0.5879 0.5357 0.5225 0.5374 0.5622 0.5894
2247.259 0.5803 0.5494 0.5869 0.6641 0.6748 0.5844 0.5824 0.613 0.5651 0.5708
2266.549 0.5664 0.5587 0.6103 0.6389 0.6396 0.5991 0.5856 0.6812 0.674 0.6477
2285.839 0.6905 0.6785 0.685 0.6699 0.6586 0.6522 0.693 0.7629 0.7247 0.7677
2305.129 0.7897 0.753 0.7792 0.763 0.7058 0.6563 0.6512 0.706 0.7408 0.7409
2324.418 0.7561 0.7101 0.7179 0.7603 0.7298 0.7546 0.742 0.7434 0.7634 0.7709
2343.708 0.7732 0.7916 0.845 0.8201 0.8146 0.8114 0.8553 0.9085 0.8959 0.9131
2362.998 0.891 0.871 0.8041 0.7469 0.7881 0.7741 0.7463 0.7008 0.6518 0.5897
2382.288 0.5845 0.6976 0.7731 0.7752 0.6849 0.6043 0.618 0.6103 0.634 0.6439
2401.578 0.6097 0.6304 0.6195 0.6137 0.5919 0.622 0.6736 0.6344 0.6041 0.6451
2420.867 0.6726 0.7071 0.6652 0.6238 0.7314 0.7244 0.7119 0.7545 0.7014 0.7596
2440.157 0.784 0.7076 0.7193 0.7097 0.7022 0.6859 0.6613 0.6369 0.618 0.5686
2459.447 0.5158 0.5464 0.5722 0.5916 0.613 0.6266 0.5541 0.5307 0.5527 0.4923
2478.737 0.5009 0.4887 0.4004 0.431 0.4967 0.5418 0.634 0.5827 0.5457 0.61
2498.026 0.5558 0.5369 0.607 0.5729 0.5295 0.5624 0.59 0.5807 0.6064 0.6449
2517.316 0.624 0.6553 0.6783 0.5576 0.5312 0.6814 0.7001 0.6244 0.6031 0.5203
2536.606 0.5029 0.5646 0.5377 0.5038 0.4659 0.4848 0.5896 0.5376 0.5076 0.5348
2555.896 0.5046 0.4588 0.4589 0.5303 0.505 0.4947 0.5502 0.5277 0.5512 0.6022
2575.186 0.5705 0.5504 0.6003 0.634 0.571 0.5861 0.5838 0.5579 0.569 0.5369
2594.475 0.5788 0.5658 0.5539 0.5608 0.5529 0.5696 0.5753 0.5521 0.5573 0.5593
2613.765 0.5176 0.5413 0.6027 0.5355 0.4628 0.4847 0.4244 0.4668 0.5548 0.5464
2633.055 0.4856 0.411 0.34939 0.35351 0.4145 0.4095 0.3733 0.4798 0.564 0.4659
2652.345 0.3961 0.4456 0.445 0.36078 0.34101 0.4343 0.4097 0.31427 0.35483 0.34974
2671.634 0.3794 0.4105 0.34704 0.32238 0.3346 0.381 0.455 0.4374 0.3797 0.4196
2690.924 0.4746 0.4965 0.568 0.6424 0.5405 0.3905 0.34328 0.36093 0.4642 0.4971
2710.214 0.4419 0.4172 0.4262 0.5204 0.5507 0.4874 0.4695 0.5214 0.5086 0.4388
2729.504 0.423 0.4393 0.445 0.4148 0.4275 0.393 0.35994 0.424 0.4025 0.34834
2748.794 0.34264 0.3935 0.4455 0.3813 0.34308 0.4274 0.3957 0.30689 0.35356 0.4165
2768.083 0.4346 0.4449 0.4666 0.4046 0.4053 0.4603 0.4883 0.5671 0.6403 0.6429
2787.373 0.618 0.6053 0.5614 0.606 0.6807 0.7588 0.78 0.8003 0.7647 0.6727
2806.663 0.7199 0.6666 0.72 0.8441 0.87 0.8671 0.76 0.727 0.7619 0.8116
2825.953 0.6956 0.6078 0.6416 0.5544 0.5205 0.5333 0.5174 0.5322 0.5701 0.5578
2845.242 0.5387 0.4917 0.36025 0.3913 0.5949 0.589 0.5244 0.4799 0.4714 0.4619
2864.532 0.4875 0.571 0.5435 0.453 0.3911 0.4221 0.4673 0.4813 0.5001 0.5916
2883.822 0.5769 0.472 0.4054 0.4558 0.4496 0.4075 0.4956 0.4662 0.4859 0.4799
2903.112 0.4232 0.4685 0.4868 0.4541 0.35974 0.32493 0.30133 0.30461 0.35558 0.34884
2922.401 0.35867 0.4424 0.5493 0.4851 0.3822 0.4583 0.3999 0.35892 0.4406 0.4618
2941.691 0.3898 0.28465 0.4203 0.5644 0.5516 0.5124 0.4562 0.4886 0.5166 0.465
2960.981 0.4777 0.4842 0.4851 0.4875 0.5075 0.5476 0.489 0.4478 0.4985 0.6247
2980.271 0.726 0.5875 0.5587 0.6077 0.6287 0.621 0.52 0.5801 0.6707 0.6548
2999.561 0.56 0.5074 0.5795 0.563 0.5683 0.5855 0.6082 0.6674 0.612 0.4948
3018.850 0.278614 0.33281 0.4341 0.3888 0.3889 0.29948 0.3841 0.467 0.4961 0.5386
3038.140 0.4526 0.5061 0.4417 0.4113 0.6281 0.5358 0.3901 0.5531 0.7144 0.7135
3057.430 0.7195 0.8091 0.919 1.1871 1.391 1.411 1.631 1.871 1.921 1.971
3076.720 1.951 1.871 1.741 1.611 1.511 1.271 1.1497 1.1506 1.0325 0.9737
3096.009 0.9114 0.7791 0.7765 0.7033 0.5734 0.5398 0.6285 0.8199 0.8146 0.678
3115.299 0.6564 0.7197 0.7318 0.6905 0.5559 0.4278 0.4371 0.4773 0.54 0.5982
3134.589 0.6074 0.5368 0.4918 0.4642 0.4227 0.46 0.5052 0.58 0.5475 0.4187
3153.879 0.4315 0.4474 0.4296 0.4569 0.4164 0.28774 0.2336 0.26796 0.161 0.118
3173.169 0.1853 0.153 0.15 0.189 0.247 0.2381 0.2226 0.1765 0.097 0.025
3192.458 0.019 0.165 0.2515 0.1759 0.161 0.276738 0.29451 0.2008 0.3188 0.4257
3211.748 0.29253 0.2389 0.26718 0.28514 0.2044 0.1858 0.1902 0.159 0.2066 0.2202
3231.038 0.2098 0.2464 0.30946 0.32186 0.2569 0.31227 0.36803 0.2551 0.2483 0.24
3250.328 0.121 0.14 0.21 0.164 0.14 0.116 0.113 0.2244 0.26593 0.1993
3269.617 0.141 0.169 0.2241 0.1922 0.041 0.104 0.1752 0.136 0.2143 0.2524
3288.907 0.29591 0.3072 0.28974 0.2187 0.1842 0.3508 0.31039 0.166 0.154 0.2425
3308.197 0.270835 0.26117 0.28684 0.2381 0.26533 0.30465 0.4003 0.4412 0.34153 0.3056
3327.487 0.1781 0.082 0.15 0.1978 0.36575 0.3863 0.26439 0.26102 0.26149 0.30642
3346.777 0.28633 0.2159 0.243 0.2309 0.32084 0.34197 0.2234 0.26684 0.2028 0.087
3366.066 0.2021 0.2415 0.2481 0.32039 0.26701 0.2455 0.31724 0.2191 0.119 0.1729
3385.356 0.1759 0.2303 0.2607 0.26116 0.123 0.11 0.2954 0.272632 0.26 0.2247
3404.646 0.2166 0.2298 0.30862 0.3769 0.35642 0.2556 0.149 0.1865 0.239 0.2599
3423.936 0.31261 0.4507 0.4374 0.3897 0.31818 0.31632 0.4394 0.434 0.5915 0.6305
3443.225 0.528 0.6053 0.7096 0.7329 0.7362 0.7609 0.6871 0.6162 0.6596 0.7903
3462.515 0.7742 0.7407 0.8353 0.8742 0.8145 0.8007 0.8067 0.7955 0.8 0.8579
3481.805 0.9838 0.9573 1.0726 1.1725 1.0896 1.2247 1.391 1.551 1.741 1.811
3501.095 1.781 1.891 1.941 1.901 1.901 2.041 2.341 2.551 2.671 2.801
3520.385 3.071 3.271 3.441 3.781 4.051 4.261 4.491 4.601 4.721 4.921
3539.674 5.161 5.371 5.571 6.131 6.911 7.901 9.471 11.771 15.251 20.521
3558.964 28.291 38.821 51.141 62.731 70.561 74.421 75.741 73.311 66.321 57.161
3578.254 48.591 41.351 35.031 29.071 22.851 17.011 12.541 9.161 6.571 5.031
3597.544 4.251 3.571 3.011 2.741 2.531 2.591 2.541 2.301 2.051 1.951
3616.833 1.921 1.681 1.491 1.301 1.1351 1.0598 1.142 1.0883 0.8573 0.6875
3636.123 0.7127 0.7488 0.787 0.7085 0.4928 0.6735 0.726 0.5387 0.5534 0.4841
3655.413 0.5129 0.5393 0.34584 0.32815 0.4353 0.4468 0.4112 0.4398 0.477 0.4348
3674.703 0.4039 0.4577 0.4706 0.5138 0.6345 0.6194 0.4915 0.4538 0.6509 0.6794
3693.993 0.5678 0.6488 0.6855 0.603 0.5623 0.4999 0.379 0.37056 0.4502 0.4608
3713.282 0.3472 0.36642 0.4026 0.388 0.36626 0.28353 0.2172 0.1842 0.113 0.1934
3732.572 0.3795 0.31328 0.275663 0.26539 0.2596 0.31885 0.36682 0.4696 0.4009 0.35859
3751.862 0.5291 0.3761 0.2093 0.1874 0.2503 0.3926 0.3761 0.2095 0.1824 0.2537
3771.152 0.2204 0.1903 0.1814 0.277721 0.30145 0.34983 0.31236 0.2397 0.26222 0.253
3790.441 0.33651 0.29854 0.28381 0.4058 0.4258 0.29651 0.2474 0.277513 0.33544 0.3751
3809.731 0.2377 0.2064 0.1726 0.2244 0.32114 0.2155 0.165 0.1814 0.2498 0.2395
3829.021 0.30361 0.2593 0.148 0.30716 0.29395 0.1996 0.121 0.072 0.1977 0.28966
3848.311 0.26263 0.2256 0.2944 0.2425 0.1833 0.29177 0.32432 0.4084 0.4201 0.33988
3867.601 0.33249 0.3884 0.5181 0.4851 0.3759 0.4459 0.4478 0.32269 0.29733 0.2093
3886.890 0.2591 0.53 0.5009 0.31505 0.2532 0.143 0.2249 0.31216 0.29779 0.2469
3906.180 0.1723 0.279519 0.28595 0.33054 0.33419 0.151 0.115 0.30704 0.4197 0.34669
3925.470 0.2363 0.2202 0.4631 0.5502 0.4141 0.31033 0.232 0.2377 0.279322 0.2233
3944.760 0.141 0.085 0.2084 0.31554 0.2402 0.2394 0.1989 0.141 0.1865 0.2426
3964.049 0.31499 0.3742 0.2905 0.2225 0.2402 0.31444 0.29234 0.126 0 0.041
3983.339 0.111 0.157 0.272967 0.30089 0.28309 0.2211 0.125 0.126 0.2384 0.35835
##END=
