##TITLE=(Z-Styrylthio)acetic acid
##JCAMP-DX=4.24
##DATA TYPE=INFRARED SPECTRUM
##ORIGIN=EPA-IR VAPOR PHASE LIBRARY
##OWNER=SRD/NIST
Collection (C) 2018 copyright by the U.S. Secretary of Commerce
on behalf of the United States of America. All rights reserved.
##CAS REGISTRY NO=1914-61-0
##MOLFORM=C 10 H 10 O 2 S
##$NIST SOURCE=MSDC-IR
##STATE=gas
##XUNITS=1/CM
##YUNITS=ABSORBANCE
##XFACTOR=1.
##YFACTOR=0.001
##DELTAX=1.92898
##FIRSTX=549.8
##LASTX=4000.7
##FIRSTY=25.65
##MAXX=4000.7
##MINX=549.759
##MAXY=0.2546
##MINY=0.00008342
##NPOINTS=1790
##XYDATA=(X++(Y..Y))
549.759 25.65 25.19 25.08 24.51 24.69 25.69 26.56 27.97 29.4 30.89
569.049 32.72 34.35 36.47 39.08 41.57 44.38 47.59 50.36 52.47 53.87
588.339 54.26 54.07 53.23 51.58 49.69 48.07 46.54 45.46 44.67 44.13
607.628 43.68 43.48 43.59 43.45 43.41 43.26 42.34 41.65 41.32 40.53
626.918 40 39.76 39.64 39.17 38.46 37.89 37.73 37.41 36.78 36.57
646.208 36.65 36.89 36.85 37.42 38.78 40.39 42.41 44.62 46.63 48.65
665.498 51.28 54.69 56.71 57.69 59.51 61.48 63.04 64.44 65.93 67.16
684.787 68.04 68.77 68.98 68.2 67.07 65.29 62.57 59.51 56.54 53.28
704.077 49.86 46.45 43.71 41.58 39.63 38.36 37.95 38.2 39.24 41.27
723.367 43.35 45.19 47.03 48.6 49.06 48.85 48.02 46.35 44.62 43.16
742.657 41.87 40.39 38.94 37.77 37.04 36.92 37.08 37.63 38.4 39.2
761.947 40.25 41.21 41.41 41.07 39.94 37.75 35.52 33.31 30.75 27.98
781.236 25.29 23.33 22.05 20.83 19.7 18.94 18.11 17.45 16.87 16.24
800.526 15.85 15.6 15.76 16.02 16 15.67 15.27 14.91 14.48 13.6
819.816 13.2 13.33 13.33 13.73 14.4 15.42 17.13 19.21 21.29 23.2
839.106 24.46 24.73 24.29 23.22 21.62 19.67 17.81 16.69 15.84 15
858.395 14.23 13.8 13.63 13.36 13.12 13.07 12.67 12.46 12.34 11.85
877.685 11.79 11.86 11.61 11.57 11.92 12.42 12.93 13.28 13.53 13.94
896.975 15.06 16.38 17.23 17.79 18.22 18.76 19.29 19.57 19.74 19.92
916.265 20.12 20.54 20.85 20.83 21.43 22.31 22.97 23.86 24.76 25.08
935.555 25.55 26.21 26.32 26.06 25.55 24.75 23.35 21.75 20.17 18.54
954.844 17.05 15.56 13.97 12.57 11.3 10.26 9.63 8.87 7.93 7.43
974.134 7.25 7.19 7.04 6.73 6.65 6.61 6.28 5.82 5.73 5.85
993.424 6.14 6.28 6.54 6.85 6.95 6.96 6.55 6.44 6.66 6.7
1012.714 7.2 7.79 8.08 8.59 9.48 11.21 12.96 13.85 14.18 13.89
1032.003 13.39 12.67 11.76 11.41 11.61 11.92 12.62 13.96 15.56 17.21
1051.293 18.68 20.17 22.56 25.25 28.33 31.49 34.64 38.24 42.11 46.59
1070.583 51.65 57.53 63.17 69.41 77.13 85.44 94.06 103.48 113.97 126.01
1089.873 139.17 152.87 167.31 181.45 194.41 203.52 206.96 205.55 200.14 190.34
1109.163 177.29 161.41 144.65 129.36 115.84 104.15 93.98 85.91 78.69 72.08
1128.452 66.27 62.01 58.06 54.44 51.13 47.95 45.85 43.68 41.79 40.09
1147.742 39.29 38.01 36.65 35.65 35.05 35.34 35.35 34.98 35.22 36.44
1167.032 37.29 38.69 40.65 41.94 43.62 45.62 47.59 50.35 52.95 55.45
1186.322 58 60.23 62.61 64.2 64.61 64.83 64.61 63.77 62.06 59.36
1205.611 56.79 54.29 52.21 51.2 49.05 46.46 44.62 43.62 43.13 42.41
1224.901 41.87 41.21 40.26 38.81 36.88 35.22 34.28 33.2 32.32 31.29
1244.191 30.53 30.26 29.67 29.24 29.74 29.76 29.32 29.46 29.55 29.1
1263.481 28.36 27.71 27.61 27.54 27.16 27.07 26.51 26.2 26.19 25.86
1282.771 25.67 25.68 25.99 26.46 27.04 27.64 28.28 29.05 30.14 31.63
1302.060 33.01 34.59 36.34 38.04 39.88 41.68 43.49 45.21 46.71 48.11
1321.350 49.46 50.61 51.55 52.41 53.07 53.56 53.93 54.21 54.48 54.72
1340.640 55.14 55.75 56.34 56.74 56.93 56.83 56.25 54.95 52.84 50.05
1359.930 46.73 43.09 39.45 35.88 32.56 29.67 27 24.62 22.77 21.08
1379.219 19.53 18.3 17.26 16.46 15.89 15.64 15.49 15.42 15.58 15.96
1398.509 16.51 17.2 17.86 18.52 19.26 20.02 20.71 21.33 21.83 22.1
1417.799 22.2 22.21 22.07 21.59 20.83 19.85 18.94 18.23 17.55 16.95
1437.089 16.84 17.02 17.02 16.96 16.52 15.9 15.26 14.34 13.2 11.98
1456.378 10.73 9.87 9.29 8.84 8.41 8.03 7.84 7.8 7.91 8.12
1475.668 8.44 8.98 9.84 11.1 12.77 14.81 17.13 19.48 21.64 22.82
1494.958 22.59 21.26 19.18 16.28 13.04 10.21 7.99 6.58 5.72 5.21
1514.248 4.86 4.43 4.24 4.13 4.06 4.13 4.15 4.24 4.32 4.31
1533.538 4.33 4.41 4.33 4.16 4.31 4.48 4.55 4.68 4.87 5.25
1552.827 5.42 5.65 6.16 6.49 7.06 7.85 8.48 8.95 9.37 9.98
1572.117 10.66 11.05 11.39 12.06 12.9 13.74 14.86 16.36 17.89 19.58
1591.407 21.67 23.99 26.36 28.44 29.86 30.58 30.06 28.12 25.44 22.34
1610.697 18.98 15.88 13.43 11.64 10.44 9.52 8.8 8.31 7.99 7.49
1629.986 7.05 6.8 6.4 6.18 6.11 5.84 5.79 5.76 5.56 5.56
1649.276 5.53 5.38 5.35 5.47 5.68 5.91 6.16 6.33 6.54 6.75
1668.566 6.96 7.36 7.75 7.97 8.26 8.55 8.65 8.72 8.93 9.35
1687.856 9.65 10 10.48 10.98 11.57 12.22 12.87 13.82 14.92 16.03
1707.146 17.26 18.55 19.85 21.15 22.37 23.6 24.91 26.34 28.03 29.94
1726.435 31.95 34.16 36.78 39.49 42.57 46.05 49.72 53.85 58.27 63.17
1745.725 68.62 74.61 81.16 88.48 96.45 104.95 114.43 124.53 135.55 147.46
1765.015 160.02 173.18 187.2 201.27 215.52 228.87 240.4 249.17 254.07 254.6
1784.305 250.28 242.26 231.31 217.84 203.11 188.53 174.9 161.95 149.52 136.65
1803.594 123.63 110.8 98.33 86.71 76.18 66.83 58.36 50.75 44.3 38.72
1822.884 33.89 29.73 26.25 23.22 20.48 18.17 16.22 14.5 12.97 11.66
1842.174 10.52 9.58 8.96 8.34 7.73 7.39 7.11 6.82 6.6 6.34
1861.464 6.15 6.03 5.95 5.81 5.65 5.59 5.59 5.61 5.56 5.48
1880.754 5.51 5.43 5.24 5.09 4.86 4.5 4.24 3.99 3.71 3.55
1900.043 3.45 3.38 3.3 3.28 3.27 3.25 3.28 3.39 3.5 3.67
1919.333 3.87 4.01 4.15 4.35 4.56 4.71 4.88 5.1 5.32 5.49
1938.623 5.75 5.83 5.85 6.15 6.32 6.34 6.39 6.53 6.51 6.36
1957.913 6.01 5.53 5.07 4.56 4.11 3.79 3.66 3.46 3.19 3.04
1977.202 2.92 2.76 2.68 2.63 2.49 2.31 2.16 2.14 2.15 2.08
1996.492 2.03 1.93 1.89 1.9 1.84 1.76 1.73 1.7 1.68 1.63
2015.782 1.59 1.58 1.5 1.47 1.52 1.51 1.42 1.32 1.38 1.4
2035.072 1.34 1.36 1.27 1.26 1.39 1.4 1.36 1.34 1.39 1.44
2054.362 1.4 1.44 1.45 1.32 1.16 1.06 1.11 1.21 1.29 1.3
2073.651 1.25 1.31 1.36 1.26 1.22 1.22 1.19 1.2 1.22 1.22
2092.941 1.27 1.31 1.27 1.28 1.3 1.32 1.24 1.14 1.13 1.16
2112.231 1.16 1.13 1.07 1.03 1.09 1.09 1.09 1.07 1 1.08
2131.521 1.07 1.08 1.1 1.07 1.13 1.11 1.06 1.04 1.07 1.11
2150.810 1.11 1.09 1.13 1.16 1.2 1.26 1.32 1.4 1.36 1.34
2170.100 1.41 1.41 1.44 1.53 1.58 1.68 1.77 1.75 1.68 1.71
2189.390 1.76 1.72 1.69 1.63 1.71 1.75 1.66 1.67 1.71 1.69
2208.680 1.63 1.56 1.36 1.25 1.26 1.27 1.29 1.3 1.24 1.15
2227.970 1.1 1.11 1.13 1.06 1.01 1.02 1.08 1.12 1.13 1.2
2247.259 1.23 1.26 1.26 1.15 1.19 1.35 1.4 1.39 1.39 1.34
2266.549 1.35 1.46 1.47 1.47 1.48 1.48 1.56 1.64 1.65 1.78
2285.839 1.93 1.94 1.99 2.13 2.22 2.26 2.39 2.51 2.6 2.63
2305.129 2.69 2.89 3.07 3.36 3.58 3.61 3.62 3.6 3.53 3.5
2324.418 3.52 3.46 3.48 3.51 3.47 3.35 3.15 3.13 3.12 3.11
2343.708 3.14 2.92 2.64 2.7 2.89 3.03 3.29 3.43 3.53 3.66
2362.998 3.69 3.66 3.63 3.43 3.19 3.14 3.01 2.65 2.34 2.17
2382.288 1.87 1.56 1.41 1.2 1.08 1.11 1.13 1.26 1.38 1.31
2401.578 1.2 1.2 1.28 1.33 1.26 1.22 1.25 1.26 1.26 1.38
2420.867 1.48 1.48 1.4 1.4 1.52 1.61 1.67 1.65 1.67 1.7
2440.157 1.74 1.77 1.79 1.72 1.61 1.65 1.73 1.62 1.48 1.42
2459.447 1.43 1.38 1.31 1.36 1.29 1.18 1.11 1.07 1.12 1.11
2478.737 1.06 1.01 0.9946 1.05 1.03 1.07 1.05 0.9935 0.9821 0.9267
2498.026 0.8983 0.8824 0.938 0.8749 0.8355 0.8976 0.9013 0.884 0.8267 0.8647
2517.316 0.9994 1.05 1.01 1 1.03 1.05 1.03 0.9224 0.9028 0.9151
2536.606 0.8665 0.846 0.8736 0.8989 0.8793 0.8912 0.9606 0.936 0.8023 0.7599
2555.896 0.7238 0.7479 0.7954 0.8172 0.8156 0.7605 0.692 0.6935 0.7053 0.6254
2575.186 0.6948 0.7765 0.7566 0.8099 0.8088 0.8072 0.8401 0.8121 0.864 0.8933
2594.475 0.8912 0.9236 0.9847 0.9658 0.9266 0.9909 0.9558 0.752 0.7004 0.752
2613.765 0.6867 0.6002 0.6394 0.658 0.6989 0.8363 0.8728 0.8419 0.8391 0.8211
2633.055 0.8029 0.9351 1.03 1.02 1.01 1.02 1.03 0.9455 0.9474 1.04
2652.345 1.02 0.9961 1.02 0.8864 0.7555 0.8338 0.82 0.8063 0.7723 0.6962
2671.634 0.7225 0.7164 0.6363 0.5314 0.5385 0.514 0.4654 0.5922 0.6356 0.6199
2690.924 0.6447 0.6235 0.6564 0.6724 0.7382 0.7317 0.6588 0.582 0.5507 0.6122
2710.214 0.6317 0.653 0.6305 0.614 0.4478 0.4311 0.5174 0.5126 0.4778 0.3353
2729.504 0.4308 0.5305 0.443 0.3268 0.4226 0.4875 0.4111 0.4728 0.4613 0.3919
2748.794 0.3812 0.4574 0.548 0.4564 0.3688 0.428 0.5758 0.6135 0.5639 0.6203
2768.083 0.6601 0.7012 0.7941 0.853 0.9813 0.9716 0.8212 0.6982 0.7462 0.9347
2787.373 0.9927 0.8704 0.7471 0.9287 1.1 1.01 1.05 1.09 1.06 1.08
2806.663 1.15 1.29 1.33 1.39 1.33 1.31 1.4 1.4 1.31 1.35
2825.953 1.46 1.37 1.29 1.23 1.19 1.21 1.26 1.38 1.33 1.23
2845.242 1.2 1.19 1.17 1.23 1.33 1.22 1.12 1.27 1.51 1.62
2864.532 1.73 1.74 1.61 1.65 1.76 1.86 2.03 2.07 2.03 2.16
2883.822 2.21 2.19 2.31 2.45 2.48 2.44 2.47 2.59 2.55 2.49
2903.112 2.58 2.72 2.92 3.08 3.26 3.5 3.8 4.09 4.39 4.76
2922.401 5.28 5.82 6.48 7.09 7.65 8.32 9 9.62 10.13 10.6
2941.691 11.06 11.23 11.11 11.05 10.73 10.26 9.56 8.76 8 7.13
2960.981 6.47 5.9 5.34 5.14 4.99 4.68 4.58 4.67 4.75 4.7
2980.271 5.05 5.27 5.27 5.53 5.73 6.07 6.73 7.49 8.15 8.96
2999.561 10.06 11.2 12.49 14.13 15.8 17.51 19.48 21.72 24.03 26.47
3018.850 29.06 31.73 34.64 37.47 39.86 41.65 42.59 42.6 41.43 39.46
3038.140 36.87 33.98 31.26 28.97 27.25 26.1 25.76 26.05 26.74 28.46
3057.430 31.3 35.06 39.71 44.64 49.03 51.49 51.9 50.68 47.87 43.7
3076.720 38.89 34.82 32.3 30.6 29.21 28.08 26.56 24.86 23.35 21.88
3096.009 20.31 18.74 17.11 15.65 14.59 13.27 11.67 10.4 9.16 7.94
3115.299 6.75 5.52 4.68 4.04 3.35 2.75 2.49 2.55 2.57 2.37
3134.589 2.24 2.2 2.2 2.21 2.14 2.01 1.86 1.91 2.06 2.02
3153.879 1.7 1.53 1.71 1.65 1.47 1.55 1.58 1.51 1.37 1.25
3173.169 1.22 1.15 1.26 1.21 0.9969 1 1.01 0.9707 0.8962 0.8879
3192.458 0.8348 0.7507 0.7441 0.8489 0.9644 0.9805 0.9481 0.7443 0.6931 0.7314
3211.748 0.7219 0.5649 0.4742 0.8035 0.8309 0.6643 0.6488 0.6354 0.6548 0.6453
3231.038 0.5792 0.4195 0.4478 0.6174 0.6732 0.6398 0.5367 0.4799 0.5429 0.5707
3250.328 0.4393 0.3329 0.5021 0.5709 0.5149 0.5436 0.4069 0.4484 0.5125 0.5546
3269.617 0.6144 0.4062 0.3291 0.3065 0.3565 0.4757 0.5043 0.3504 0.2716 0.3382
3288.907 0.3072 0.4043 0.3659 0.3101 0.5054 0.464 0.293 0.3882 0.5332 0.478
3308.197 0.3675 0.3947 0.5334 0.4934 0.3859 0.5723 0.7744 0.6412 0.377 0.4374
3327.487 0.3682 0.2615 0.3155 0.3085 0.3353 0.3492 0.3385 0.3743 0.4742 0.4407
3346.777 0.3716 0.5473 0.6086 0.4321 0.5068 0.679 0.7257 0.7319 0.7379 0.6176
3366.066 0.5771 0.7082 0.6635 0.6329 0.7573 0.8549 0.797 0.8422 0.975 0.981
3385.356 0.9589 1.08 1.3 1.31 1.26 1.2 1.27 1.45 1.57 1.59
3404.646 1.57 1.76 2.07 2.1 2.2 2.52 2.63 2.74 2.91 3
3423.936 3.21 3.41 3.46 3.72 3.86 4.07 4.44 4.53 4.63 4.91
3443.225 5.07 5.12 5.24 5.36 5.5 5.62 5.76 5.87 5.8 5.75
3462.515 5.86 5.95 5.84 5.66 5.43 5.22 5.14 5.15 5.1 4.81
3481.805 4.74 4.76 4.82 4.7 4.4 4.55 4.55 4.31 4.18 4.14
3501.095 4.17 4 4.17 4.37 4.19 4.08 4.25 4.41 4.44 4.34
3520.385 4.23 4.48 4.63 4.55 4.75 5.18 5.43 5.78 6.35 6.96
3539.674 7.52 8.12 9.01 10.17 11.66 13.37 15.23 17.95 21.95 26.57
3558.964 31.97 39.09 48.07 58.84 72.18 87.67 102.12 112.01 115.58 113.99
3578.254 107.85 96.32 80.53 64.2 50.44 40 32.25 25.87 20.56 16.54
3597.544 13.56 11.26 9.5 8.21 7.02 6 5.23 4.72 4.16 3.74
3616.833 3.39 3.05 2.83 2.59 2.41 2.12 1.92 2.01 1.95 1.77
3636.123 1.74 1.56 1.41 1.53 1.57 1.41 1.2 1.26 1.34 1.32
3655.413 1.23 1.05 1.05 1.04 0.9767 0.9294 0.6985 0.5981 0.7553 0.6734
3674.703 0.3646 0.3254 0.4519 0.5853 0.7444 0.8182 0.8299 0.7931 0.7103 0.8751
3693.993 1.09 1.06 1.02 0.941 0.7855 0.8419 0.7952 0.6677 0.5832 0.6023
3713.282 0.5538 0.442 0.5843 0.6752 0.6918 0.4797 0.5295 0.5292 0.5747 0.7315
3732.572 0.5077 0.4082 0.3361 0.387 0.5181 0.4953 0.2412 0.1745 0.3208 0.3791
3751.862 0.5258 0.4618 0.376 0.4221 0.4453 0.4358 0.4507 0.4367 0.4506 0.3364
3771.152 0.2554 0.346 0.4629 0.4842 0.4057 0.5644 0.6227 0.4384 0.3915 0.5222
3790.441 0.6477 0.6824 0.5564 0.3632 0.3033 0.2256 0.2432 0.2403 0.1548 0.3983
3809.731 0.5448 0.2964 0.1346 0.2591 0.226 0.0995 0.08394 0.1306 0.328 0.4775
3829.021 0.4122 0.3377 0.3072 0.4385 0.4836 0.3476 0.4941 0.733 0.6675 0.4072
3848.311 0.1208 0.3725 0.6095 0.1664 0.2031 0.5463 0.4637 0.4178 0.4693 0.6046
3867.601 0.6617 0.4648 0.4727 0.4876 0.596 0.7532 0.5855 0.5467 0.5635 0.5144
3886.890 0.3059 0.1255 0.2537 0.2605 0.2984 0.4195 0.3819 0.339 0.4526 0.357
3906.180 0.3433 0.5991 0.4632 0.3374 0.4368 0.3571 0.2281 0.219 0.3132 0.3608
3925.470 0.5292 0.4121 0.1666 0.3319 0.3358 0.2586 0.1727 0.1868 0.2177 0.2664
3944.760 0.3237 0.2658 0.3091 0.2909 0.2648 0.2976 0.2437 0.3416 0.5423 0.4599
3964.049 0.3415 0.2839 0.2466 0.2157 0.08342 0.1266 0.2823 0.2988 0.2166 0.2111
3983.339 0.4076 0.3412 0.3051 0.4355 0.5354 0.7063 0.4738 0.345 0.4359 0.3237
##END=
