##TITLE=trans-3-Decene
##JCAMP-DX=4.24
##DATA TYPE=INFRARED SPECTRUM
##ORIGIN=NIST Mass Spectrometry Data Center
##OWNER=NIST Standard Reference Data Program
Collection (C) 2018 copyright by the U.S. Secretary of Commerce
on behalf of the United States of America. All rights reserved.
##CAS REGISTRY NO=19150-21-1
##MOLFORM=C 10 H 20
##$NIST SOURCE=MSDC-IR
##SPECTROMETER/DATA SYSTEM=HP-GC/MS/IRD
##STATE=gas
##XUNITS=1/CM
##YUNITS=ABSORBANCE
##XFACTOR=1.0
##YFACTOR=0.000004700
##DELTAX=4.0
##FIRSTX=550.0
##LASTX=3846.0
##FIRSTY=0.000179
##MAXX=3846
##MINX=550
##MAXY=0.047
##MINY=0
##NPOINTS=825
##XYDATA=(X++(Y..Y))
550.0 38 32 39 52 36 32 23 15 27 35
590.0 32 15 19 31 31 23 17 27 14 4
630.0 16 28 29 23 29 31 26 26 31 33
670.0 24 15 30 46 46 41 48 62 71 89
710.0 104 113 137 149 152 155 156 143 128 119
750.0 112 113 109 109 109 111 115 109 97 94
790.0 102 108 105 102 100 97 90 83 87 83
830.0 84 91 91 90 91 95 102 104 107 112
870.0 117 122 127 138 153 164 170 181 199 208
910.0 205 211 223 229 241 270 316 376 456 576
950.0 744 954 1177 1335 1368 1254 1051 837 656 518
990.0 421 352 299 263 236 215 202 193 184 175
1030.0 168 171 167 171 186 194 207 215 214 211
1070.0 204 200 196 185 169 159 154 141 132 127
1110.0 120 106 89 84 82 75 72 71 75 71
1150.0 66 63 65 70 73 80 85 82 81 83
1190.0 81 84 83 84 87 83 87 93 93 96
1230.0 99 101 106 111 117 129 141 144 156 176
1270.0 189 207 221 244 276 307 331 349 350 342
1310.0 335 329 322 322 337 361 381 389 400 406
1350.0 392 369 347 326 313 316 330 357 373 370
1390.0 344 304 275 259 249 248 257 277 308 350
1430.0 412 499 610 719 815 899 965 1012 1022 976
1470.0 882 745 595 461 360 293 244 204 172 150
1510.0 133 118 107 99 84 76 75 71 66 62
1550.0 57 56 53 48 46 48 47 44 44 43
1590.0 42 42 43 42 37 37 38 40 37 35
1630.0 40 43 45 44 43 46 53 52 50 49
1670.0 48 51 51 49 52 50 51 50 49 48
1710.0 49 50 52 52 47 44 44 43 44 44
1750.0 45 49 53 56 54 58 56 52 53 50
1790.0 49 46 42 37 32 30 30 32 33 32
1830.0 30 26 24 29 29 27 25 22 20 17
1870.0 19 19 17 16 14 13 15 11 8 9
1910.0 6 5 7 5 7 10 10 7 7 6
1950.0 6 7 4 5 6 6 7 10 6 4
1990.0 4 0 5 9 10 10 15 18 21 21
2030.0 20 17 17 19 20 18 17 18 17 14
2070.0 11 9 11 14 16 12 10 8 5 5
2110.0 3 3 9 10 9 10 10 9 7 8
2150.0 7 4 6 9 11 8 10 13 12 13
2190.0 12 10 13 14 9 9 12 11 12 14
2230.0 12 7 4 9 10 10 9 10 11 10
2270.0 13 11 6 7 8 5 7 8 7 6
2310.0 7 10 7 8 12 13 13 13 15 16
2350.0 13 9 12 16 17 16 14 13 18 26
2390.0 26 19 20 22 22 20 17 16 16 13
2430.0 13 19 20 18 15 16 22 20 15 13
2470.0 9 13 16 14 16 17 16 14 14 17
2510.0 21 20 19 20 24 34 38 38 39 39
2550.0 37 36 39 40 40 40 39 40 44 45
2590.0 43 48 53 53 57 58 60 65 67 66
2630.0 69 71 69 71 78 82 86 91 96 102
2670.0 106 104 106 107 104 102 103 107 110 110
2710.0 108 110 115 122 129 138 150 160 163 164
2750.0 165 171 177 178 188 201 216 227 241 260
2790.0 281 305 326 354 389 431 483 543 613 706
2830.0 827 989 1212 1521 1927 2422 2971 3482 3838 3983
2870.0 3942 3846 3795 3757 3708 3657 3651 3791 4093 4537
2910.0 5117 5866 6821 7930 8998 9753 10000 9672 8863 7842
2950.0 6898 6287 6171 6499 6985 7085 6542 5456 4214 3274
2990.0 2655 2221 1911 1677 1497 1363 1259 1179 1095 1010
3030.0 923 824 727 644 566 492 439 398 361 332
3070.0 306 286 265 249 238 233 229 216 199 189
3110.0 184 176 165 156 152 148 139 133 128 122
3150.0 120 122 119 109 106 105 101 96 88 85
3190.0 81 78 73 64 60 56 53 48 44 45
3230.0 42 41 37 34 34 34 25 22 24 22
3270.0 26 26 20 18 17 18 17 16 22 19
3310.0 16 20 16 16 23 23 19 22 20 17
3350.0 12 9 13 13 14 18 20 20 17 18
3390.0 22 18 16 19 20 17 16 17 15 14
3430.0 16 19 16 14 12 5 4 9 14 19
3470.0 13 10 18 14 13 14 12 12 10 10
3510.0 15 15 6 7 11 12 8 10 11 8
3550.0 12 13 10 8 6 9 10 11 16 12
3590.0 10 15 15 17 21 14 14 19 21 22
3630.0 22 25 22 19 25 28 30 32 28 22
3670.0 21 23 25 31 31 26 30 29 24 26
3710.0 29 23 24 19 16 31 31 26 31 33
3750.0 29 31 33 33 31 31 44 43 36 35
3790.0 32 33 37 38 37 33 37 43 41 37
3830.0 39 42 37 36 34
##END=
