##TITLE=Picloram
##JCAMP-DX=4.24
##DATA TYPE=INFRARED SPECTRUM
##ORIGIN=NIST Mass Spectrometry Data Center
##OWNER=NIST Standard Reference Data Program
Collection (C) 2018 copyright by the U.S. Secretary of Commerce
on behalf of the United States of America. All rights reserved.
##CAS REGISTRY NO=1918-02-1
##MOLFORM=C 6 H 3 Cl 3 N 2 O 2
##$NIST SOURCE=MSDC-IR
##SPECTROMETER/DATA SYSTEM=HP-GC/MS/IRD
##STATE=gas
##XUNITS=1/CM
##YUNITS=ABSORBANCE
##XFACTOR=1.0
##YFACTOR=0.000002900
##DELTAX=4.0
##FIRSTX=550.0
##LASTX=3846.0
##FIRSTY=0.000832
##MAXX=3846
##MINX=550
##MAXY=0.029
##MINY=0
##NPOINTS=825
##XYDATA=(X++(Y..Y))
550.0 287 383 393 537 558 539 479 361 290 228
590.0 242 348 460 625 750 785 738 660 578 453
630.0 325 246 197 189 199 214 219 181 153 138
670.0 112 99 115 128 132 164 215 255 280 305
710.0 291 285 320 385 516 687 928 1250 1458 1511
750.0 1476 1318 1073 862 708 576 492 432 366 347
790.0 383 457 558 729 974 1209 1359 1336 1105 875
830.0 775 710 702 739 763 762 732 675 608 549
870.0 501 467 425 397 423 471 522 618 775 975
910.0 1207 1522 1789 2093 2552 2897 2938 2667 2086 1350
950.0 771 443 252 142 96 40 14 16 30 65
990.0 79 67 66 64 62 63 79 102 135 156
1030.0 168 211 244 294 374 471 595 674 738 810
1070.0 839 901 1121 1625 2529 3623 4503 4803 4348 3397
1110.0 2394 1559 968 623 439 345 300 272 251 220
1150.0 201 179 143 122 114 103 101 108 173 296
1190.0 548 1039 1591 1886 1815 1360 685 236 91 46
1230.0 67 106 112 123 165 266 469 734 931 942
1270.0 763 463 189 67 71 140 198 196 142 64
1310.0 16 4 5 28 73 112 164 244 356 568
1350.0 965 1511 2139 3082 4635 6398 7301 6805 5078 2729
1390.0 1109 589 440 373 334 313 334 395 469 584
1430.0 768 1042 1450 2051 2889 3769 4294 4202 3534 2434
1470.0 1379 726 419 266 189 163 149 143 151 175
1510.0 203 242 315 449 642 903 1244 1670 2174 2576
1550.0 2658 2341 1759 1164 791 624 607 711 925 1332
1590.0 2034 3134 4738 6889 8997 10000 9860 8602 6355 4294
1630.0 2911 2018 1437 1073 839 676 559 473 408 348
1670.0 300 262 230 190 154 134 111 100 103 99
1710.0 95 83 68 50 33 26 16 8 5 8
1750.0 15 20 27 25 11 1 4 5 2 4
1790.0 4 14 21 29 46 70 104 141 171 169
1830.0 134 95 57 28 20 22 18 17 19 25
1870.0 34 37 31 28 27 21 18 10 7 12
1910.0 9 6 3 1 0 1 8 13 10 7
1950.0 11 24 33 35 31 25 24 26 16 9
1990.0 19 17 16 13 13 16 15 18 22 26
2030.0 27 20 23 27 29 25 19 18 16 14
2070.0 21 28 24 20 21 24 22 19 23 22
2110.0 16 25 30 34 39 41 40 43 40 34
2150.0 41 46 41 31 35 35 34 43 60 68
2190.0 63 68 68 60 53 43 41 38 41 37
2230.0 26 32 42 37 33 28 27 27 27 27
2270.0 31 40 37 31 35 39 48 61 63 60
2310.0 54 48 47 38 35 41 44 58 72 79
2350.0 90 93 77 69 81 87 71 56 65 72
2390.0 65 53 43 44 34 30 37 42 48 48
2430.0 45 44 45 45 48 53 62 65 77 81
2470.0 80 68 55 49 45 45 55 58 51 61
2510.0 83 88 92 105 111 105 104 103 93 77
2550.0 63 59 48 53 58 51 40 43 49 43
2590.0 34 27 22 13 21 32 31 45 49 34
2630.0 34 40 43 45 37 36 40 42 51 49
2670.0 40 43 45 46 49 68 91 93 102 114
2710.0 116 128 136 114 93 95 93 91 79 78
2750.0 85 60 42 42 33 37 52 57 58 47
2790.0 54 65 66 80 79 61 62 66 59 53
2830.0 53 49 45 52 59 58 54 52 57 60
2870.0 53 49 54 67 66 53 56 74 65 62
2910.0 69 57 50 52 45 34 34 45 56 52
2950.0 55 63 54 43 37 27 36 51 39 44
2990.0 58 54 61 55 42 57 63 58 58 65
3030.0 63 60 78 107 121 143 211 265 289 289
3070.0 248 203 177 141 125 139 144 139 124 111
3110.0 102 103 104 79 66 66 74 92 100 94
3150.0 93 94 93 96 80 71 68 49 39 44
3190.0 53 70 88 65 70 94 87 91 97 88
3230.0 86 88 75 62 54 50 34 35 44 47
3270.0 61 62 58 51 63 78 66 68 86 73
3310.0 64 60 47 25 23 48 72 67 55 61
3350.0 55 67 87 95 111 111 141 187 215 266
3390.0 348 440 547 726 961 1129 1232 1324 1399 1523
3430.0 1677 1674 1508 1247 858 516 345 271 240 239
3470.0 244 281 332 352 388 453 521 625 778 944
3510.0 1105 1190 1175 1085 1020 1084 1259 1477 1601 1499
3550.0 1183 772 437 225 136 115 79 66 53 45
3590.0 50 40 41 59 57 49 52 27 33 67
3630.0 55 29 17 27 37 35 21 29 27 19
3670.0 33 36 36 26 23 37 38 21 13 33
3710.0 57 68 57 47 56 63 67 70 69 50
3750.0 38 44 48 58 66 76 50 64 86 45
3790.0 37 61 55 43 37 41 44 42 65 67
3830.0 51 39 30 44 32
##END=
