##TITLE=N-Carboethoxyimidazole
##JCAMP-DX=4.24
##DATA TYPE=INFRARED SPECTRUM
##ORIGIN=EPA-IR VAPOR PHASE LIBRARY
##OWNER=SRD/NIST
Collection (C) 2018 copyright by the U.S. Secretary of Commerce
on behalf of the United States of America. All rights reserved.
##CAS REGISTRY NO=19213-72-0
##MOLFORM=C 6 H 8 N 2 O 2
##$NIST SOURCE=MSDC-IR
##STATE=gas
##XUNITS=1/CM
##YUNITS=ABSORBANCE
##XFACTOR=1.
##YFACTOR=0.001
##DELTAX=1.929
##FIRSTX=549.8
##LASTX=4000.8
##FIRSTY=0.5401
##MAXX=4000.75
##MINX=549.766
##MAXY=0.023987
##MINY=0
##NPOINTS=1790
##XYDATA=(X++(Y..Y))
549.766 0.5401 0.4316 0.38 0.34742 0.2395 0.084 0.3922 0.6016 0.35831 0.506
569.056 0.6848 0.8344 0.9029 0.8885 0.7946 0.5346 0.5653 0.6691 0.5835 0.6585
588.346 0.7955 0.5911 0.6269 0.6445 0.5285 0.6641 0.6509 0.6476 0.6801 0.658
607.636 0.6772 0.7355 0.6709 0.6292 0.6373 0.5844 0.5768 0.6584 0.6992 0.6653
626.926 0.5555 0.6554 0.962 1.0741 1.2164 1.307 1.417 1.517 1.477 1.637
646.216 1.847 1.787 1.607 1.527 1.517 1.407 1.1988 1.1735 1.1377 0.9973
665.506 0.7825 0.6515 0.6719 0.6762 0.6736 0.6655 0.6232 0.6175 0.6232 0.626
684.796 0.5671 0.5351 0.5215 0.5102 0.5043 0.5085 0.6343 0.836 0.8966 0.7111
704.086 0.7434 0.7719 0.715 0.7996 0.8408 0.8111 0.9987 1.1594 1.2458 1.367
723.376 1.447 1.637 1.807 2.067 2.297 2.317 2.297 2.217 2.117 2.107
742.666 2.397 2.617 2.457 2.237 2.077 1.887 1.797 1.857 1.917 1.957
761.956 1.857 1.807 1.927 2.037 2.217 2.447 2.597 2.597 2.477 2.317
781.246 2.187 2.167 2.117 1.847 1.687 1.697 1.567 1.497 1.327 1.1532
800.536 1.1312 1.1176 1.277 1.417 1.447 1.437 1.527 1.817 1.927 1.977
819.826 2.107 2.257 2.517 2.577 2.357 2.287 2.357 2.357 2.307 2.117
839.116 1.807 1.697 1.727 1.637 1.387 1.297 1.1819 1.0825 1.0981 1.0475
858.406 1.0413 1.0598 1.0392 1.0955 1.1839 1.1023 1.0043 1.0421 0.9906 0.9669
877.696 0.8803 0.8072 0.9182 0.9588 0.996 1.0564 1.1103 1.0873 1.0447 1.0395
896.986 1.0304 1.0232 0.9956 0.9482 0.919 0.8844 0.8314 0.7565 0.6706 0.6583
916.276 0.6982 0.7696 0.7473 0.6759 0.637 0.5854 0.6168 0.7211 0.752 0.7344
935.566 0.7662 0.8564 0.8072 0.7044 0.7547 0.7907 0.7627 0.7661 0.7554 0.8045
954.856 0.8627 0.8421 0.77 0.7538 0.8987 0.9945 1.0081 1.0299 1.1732 1.427
974.146 1.707 2.137 2.687 3.247 3.887 4.567 5.117 5.517 5.957 6.297
993.436 6.457 6.527 6.467 6.267 6.087 6.047 6.117 6.327 6.677 7.297
1012.726 8.007 8.687 9.327 9.907 10.267 10.377 10.307 9.957 9.387 8.727
1032.016 7.807 6.627 5.517 4.607 3.867 3.237 2.777 2.507 2.307 2.167
1051.306 2.067 1.947 1.837 1.737 1.627 1.617 1.527 1.467 1.557 1.527
1070.596 1.517 1.487 1.477 1.627 1.817 2.017 2.417 2.997 3.657 4.167
1089.886 4.377 4.327 4.287 4.237 4.197 4.237 3.947 3.307 2.677 2.167
1109.176 1.857 1.687 1.517 1.437 1.397 1.2242 1.1159 1.1819 1.2393 1.2257
1128.467 1.287 1.437 1.567 1.757 1.907 2.117 2.577 3.017 3.397 4.017
1147.757 4.747 5.397 6.107 6.747 7.407 7.987 8.397 8.797 9.057 9.187
1167.047 9.117 8.897 8.627 8.337 7.987 7.507 6.997 6.467 5.857 5.147
1186.337 4.497 4.087 3.747 3.357 2.987 2.727 2.417 2.137 1.977 1.827
1205.627 1.737 1.677 1.667 1.767 1.917 2.107 2.527 3.077 3.617 4.537
1224.917 5.797 7.307 9.257 11.707 14.497 17.147 18.907 19.417 19.187 18.797
1244.207 18.037 16.937 15.377 12.677 9.257 6.197 4.137 3.177 2.887 2.957
1263.497 3.397 4.217 5.457 7.007 8.867 10.897 12.967 15.137 17.537 19.917
1282.787 21.887 23.307 23.987 23.877 23.277 22.637 22.027 21.127 19.917 18.597
1302.077 17.507 16.887 16.557 16.197 15.657 14.887 13.837 12.577 11.097 9.467
1321.367 7.817 6.207 4.827 3.757 3.007 2.507 2.117 1.807 1.627 1.567
1340.657 1.527 1.447 1.447 1.547 1.657 1.847 2.067 2.357 2.697 2.917
1359.947 3.117 3.387 3.687 4.087 4.557 5.117 5.927 7.017 8.437 10.077
1379.237 11.717 13.047 14.137 15.007 15.627 16.067 16.247 15.957 15.047 13.867
1398.527 12.727 11.707 10.867 10.147 9.587 8.977 8.307 7.627 6.767 5.857
1417.817 4.937 4.127 3.647 3.277 3.027 2.907 2.807 2.697 2.647 2.617
1437.107 2.657 2.757 2.827 2.927 3.077 3.227 3.437 3.707 4.007 4.267
1456.397 4.547 4.847 5.057 5.267 5.457 5.697 5.947 6.107 6.177 6.177
1475.687 6.277 6.487 6.687 6.837 6.797 6.587 6.227 5.767 5.327 4.977
1494.977 4.467 3.867 3.347 2.787 2.327 2.027 1.797 1.637 1.517 1.477
1514.267 1.477 1.427 1.427 1.447 1.477 1.497 1.437 1.387 1.367 1.347
1533.557 1.277 1.2119 1.0818 0.8943 0.8578 0.9062 0.9176 0.9118 0.8802 0.8405
1552.847 0.8712 0.859 0.7969 0.8011 0.8467 0.8884 0.9 0.885 0.8775 0.8464
1572.137 0.8581 0.8271 0.7711 0.798 0.7891 0.7978 0.7909 0.7983 0.876 0.9591
1591.427 1.0159 1.0116 1.0565 1.0707 1.0989 1.1994 1.1949 1.1877 1.2098 1.1528
1610.717 1.1205 1.1042 1.004 0.9252 0.9333 0.917 0.8855 0.8481 0.8231 0.8172
1630.007 0.8294 0.8544 0.8507 0.8229 0.8667 0.9382 0.9327 0.9046 0.8892 0.9374
1649.297 1.0221 0.9412 0.8571 0.9441 0.9059 0.8523 0.9084 0.9441 0.971 0.9563
1668.587 0.9214 0.9481 0.9446 0.9162 0.9463 0.9903 1.0399 1.0563 1.0426 1.0637
1687.877 1.1098 1.1486 1.1544 1.1549 1.1018 1.1366 1.1154 1.0773 1.1315 1.1037
1707.167 1.0899 1.0576 1.0419 1.0824 1.0919 1.0771 1.1471 1.2191 1.307 1.407
1726.457 1.467 1.517 1.587 1.667 1.637 1.697 1.877 1.987 2.127 2.347
1745.747 2.587 2.847 3.257 3.887 4.627 5.447 6.487 7.797 9.347 11.197
1765.037 13.317 15.587 17.987 20.127 21.737 22.547 22.597 22.317 22.377 22.667
1784.327 22.247 20.617 17.887 14.727 11.857 9.517 7.657 6.097 4.877 3.887
1803.617 3.107 2.497 2.077 1.807 1.607 1.467 1.387 1.2484 1.1322 1.0744
1822.907 1.0209 0.9863 0.9844 0.9679 0.8894 0.8849 0.8854 0.8659 0.8722 0.8666
1842.197 0.8692 0.8337 0.835 0.8519 0.8282 0.8209 0.8145 0.8379 0.8451 0.8339
1861.487 0.7896 0.7191 0.7111 0.6991 0.6903 0.7119 0.7129 0.7328 0.7338 0.6633
1880.777 0.612 0.6144 0.6459 0.6674 0.6189 0.5661 0.6101 0.6004 0.5506 0.5648
1900.067 0.5766 0.5609 0.5781 0.5888 0.5657 0.5739 0.5754 0.5909 0.5948 0.5602
1919.357 0.5392 0.529 0.5216 0.5543 0.5966 0.5866 0.519 0.5411 0.5916 0.5508
1938.647 0.5456 0.5839 0.5802 0.5552 0.5369 0.5052 0.5076 0.4979 0.4997 0.5202
1957.937 0.511 0.4926 0.4832 0.4745 0.4589 0.4599 0.4656 0.4988 0.5052 0.5145
1977.227 0.518 0.5091 0.5151 0.51 0.5046 0.4913 0.4776 0.4657 0.4988 0.5397
1996.517 0.5044 0.4199 0.4586 0.4859 0.4654 0.4996 0.4944 0.496 0.549 0.5421
2015.807 0.4981 0.4664 0.4455 0.47 0.4771 0.4769 0.4951 0.5367 0.5419 0.5304
2035.097 0.5107 0.5034 0.5017 0.5119 0.4958 0.4668 0.4842 0.5105 0.5235 0.4871
2054.387 0.4986 0.5149 0.4906 0.4712 0.4657 0.4532 0.4373 0.4279 0.4513 0.4677
2073.677 0.4983 0.5207 0.4813 0.478 0.5008 0.509 0.4755 0.4933 0.5028 0.4601
2092.967 0.4567 0.4663 0.4723 0.5028 0.5302 0.517 0.4771 0.4464 0.4523 0.4679
2112.257 0.4821 0.4859 0.5118 0.5203 0.491 0.4705 0.4672 0.465 0.5061 0.5294
2131.547 0.4726 0.4609 0.4708 0.4539 0.456 0.4499 0.4618 0.463 0.448 0.4536
2150.837 0.4825 0.5021 0.492 0.4661 0.4301 0.4559 0.4839 0.4738 0.487 0.4581
2170.127 0.4288 0.4484 0.4504 0.429 0.4436 0.4696 0.4452 0.4146 0.4184 0.3952
2189.417 0.36795 0.404 0.4731 0.4644 0.4268 0.4428 0.3994 0.3698 0.3925 0.4117
2208.707 0.3897 0.3902 0.4165 0.3991 0.4276 0.4772 0.4446 0.4334 0.4267 0.4116
2227.997 0.4321 0.4269 0.4416 0.4731 0.4873 0.4647 0.4314 0.4167 0.4521 0.4688
2247.287 0.4413 0.4431 0.4455 0.4026 0.4332 0.4647 0.4477 0.4527 0.4323 0.4382
2266.577 0.4289 0.427 0.4552 0.4507 0.4641 0.465 0.4553 0.4998 0.4769 0.4463
2285.868 0.4377 0.4153 0.4407 0.476 0.5027 0.4958 0.4847 0.4621 0.4335 0.4576
2305.158 0.5172 0.5382 0.5039 0.5078 0.5356 0.5346 0.5366 0.5357 0.5311 0.5286
2324.448 0.4503 0.3849 0.4546 0.4932 0.4464 0.4617 0.5041 0.4777 0.4522 0.5022
2343.738 0.5165 0.4725 0.4985 0.5103 0.4906 0.4631 0.4338 0.4813 0.4889 0.486
2363.028 0.5481 0.5351 0.5392 0.5343 0.4927 0.5217 0.4885 0.4538 0.4563 0.4371
2382.318 0.421 0.4654 0.4945 0.5107 0.4918 0.415 0.4229 0.4818 0.4772 0.4484
2401.608 0.4161 0.4083 0.4707 0.4439 0.4388 0.4836 0.4391 0.4084 0.3781 0.3977
2420.898 0.4154 0.4105 0.4476 0.4327 0.4443 0.434 0.3991 0.393 0.37264 0.36771
2440.188 0.3945 0.406 0.33893 0.36337 0.4225 0.4058 0.4412 0.4414 0.4156 0.4548
2459.478 0.5232 0.4605 0.3882 0.4172 0.455 0.4518 0.4 0.3923 0.4098 0.4687
2478.768 0.4578 0.4028 0.3994 0.3902 0.3776 0.4408 0.4699 0.4132 0.4618 0.477
2498.058 0.4526 0.428 0.3838 0.3845 0.417 0.4255 0.4385 0.4396 0.4248 0.471
2517.348 0.4484 0.4066 0.41 0.443 0.4508 0.3779 0.36453 0.3827 0.37159 0.4145
2536.638 0.4691 0.5009 0.4953 0.4766 0.4732 0.4731 0.4953 0.4667 0.4446 0.4049
2555.928 0.4414 0.5351 0.5306 0.4879 0.4553 0.4741 0.5401 0.5979 0.5659 0.6007
2575.218 0.6562 0.5977 0.5927 0.5475 0.5007 0.5301 0.5185 0.5048 0.4884 0.512
2594.508 0.5239 0.496 0.4591 0.4644 0.4825 0.4459 0.4664 0.4843 0.4448 0.4816
2613.798 0.467 0.4644 0.4725 0.3839 0.34927 0.3919 0.4232 0.4055 0.402 0.35437
2633.088 0.30633 0.35457 0.36609 0.35238 0.4074 0.4493 0.4536 0.4522 0.4118 0.4048
2652.378 0.4251 0.435 0.4629 0.4168 0.4085 0.4398 0.4434 0.3943 0.32082 0.35683
2671.668 0.4273 0.4096 0.3841 0.4438 0.4557 0.4284 0.4236 0.3873 0.4015 0.4424
2690.958 0.4175 0.4289 0.4406 0.37086 0.3089 0.33996 0.36377 0.35984 0.4074 0.3868
2710.248 0.36306 0.3836 0.3825 0.3859 0.4276 0.4755 0.4482 0.4079 0.4594 0.4133
2729.538 0.33522 0.381 0.381 0.3943 0.4074 0.4144 0.4403 0.4236 0.3973 0.4168
2748.828 0.434 0.3614 0.33526 0.3877 0.4329 0.4108 0.4314 0.4608 0.4566 0.51
2768.118 0.5041 0.4488 0.4663 0.4597 0.426 0.4111 0.3894 0.4329 0.37121 0.30896
2787.408 0.34612 0.36499 0.4022 0.4565 0.4045 0.3933 0.4949 0.4467 0.3879 0.3853
2806.698 0.3794 0.36214 0.34905 0.35277 0.33901 0.36995 0.353 0.36472 0.4305 0.4786
2825.988 0.4928 0.4063 0.36417 0.4028 0.4039 0.4357 0.495 0.4828 0.4491 0.4589
2845.278 0.4502 0.4033 0.34952 0.3156 0.393 0.5298 0.5175 0.5072 0.5218 0.4914
2864.568 0.4917 0.5211 0.5203 0.5411 0.6031 0.572 0.5918 0.6421 0.6349 0.5721
2883.858 0.6137 0.7285 0.7131 0.6952 0.7413 0.7523 0.7721 0.7677 0.7594 0.7753
2903.148 0.7468 0.8332 0.8838 0.8659 0.8887 0.8705 0.829 0.8682 0.9102 0.9175
2922.438 0.9369 0.9039 0.8984 0.9578 1.0039 1.002 1.0457 1.1206 1.287 1.337
2941.728 1.317 1.417 1.467 1.527 1.517 1.497 1.407 1.2439 1.2575 1.327
2961.018 1.307 1.367 1.397 1.337 1.417 1.507 1.557 1.637 1.797 2.027
2980.308 2.197 2.337 2.627 2.847 2.837 2.797 2.777 2.707 2.597 2.537
2999.598 2.417 2.197 1.977 1.837 1.757 1.727 1.607 1.447 1.327 1.179
3018.888 1.2076 1.2358 1.1497 1.0707 0.9249 0.78 0.638 0.6024 0.6792 0.6634
3038.178 0.5748 0.5659 0.5677 0.518 0.5467 0.5293 0.5435 0.6297 0.6178 0.5169
3057.468 0.5254 0.5443 0.4824 0.4417 0.4086 0.3807 0.4416 0.4859 0.4309 0.4507
3076.758 0.4514 0.3898 0.4113 0.4804 0.4498 0.4277 0.4674 0.37684 0.26 0.27598
3096.048 0.36739 0.3934 0.30104 0.35868 0.37512 0.33742 0.4567 0.4138 0.404 0.4838
3115.338 0.4746 0.4873 0.5907 0.6799 0.7193 0.676 0.6323 0.6883 0.7016 0.6819
3134.628 0.71 0.745 0.7199 0.6095 0.5917 0.5534 0.5482 0.6053 0.5608 0.5233
3153.918 0.5269 0.5627 0.5644 0.5609 0.5736 0.6057 0.6421 0.5808 0.4905 0.5393
3173.208 0.6084 0.5788 0.4994 0.5125 0.5161 0.4524 0.392 0.33137 0.32263 0.36988
3192.498 0.29225 0.2574 0.36832 0.4204 0.31636 0.1982 0.2406 0.27333 0.29269 0.29994
3211.788 0.242 0.282378 0.30977 0.27209 0.3143 0.384 0.4119 0.3805 0.31542 0.26867
3231.078 0.2524 0.2424 0.2613 0.26843 0.3808 0.4191 0.34999 0.3949 0.33209 0.2308
3250.368 0.30803 0.285304 0.282242 0.30378 0.2819 0.3065 0.35872 0.36046 0.215 0.257
3269.658 0.28709 0.2435 0.122 0 0.129 0.147 0.124 0.2619 0.36698 0.33579
3288.948 0.36852 0.32485 0.2457 0.34094 0.33184 0.41 0.4927 0.34239 0.28969 0.32261
3308.238 0.30702 0.28619 0.2158 0.31128 0.3911 0.34464 0.35417 0.3869 0.3518 0.280324
3327.528 0.28973 0.26993 0.30223 0.277235 0.1823 0.165 0.26876 0.35978 0.2353 0.2018
3346.818 0.32514 0.280043 0.2205 0.29288 0.36069 0.33039 0.2423 0.2373 0.32913 0.411
3366.108 0.3924 0.37133 0.35862 0.3802 0.4526 0.451 0.4086 0.4366 0.3865 0.2622
3385.398 0.2659 0.33243 0.32614 0.29711 0.31606 0.36966 0.4832 0.4723 0.4028 0.401
3404.688 0.3899 0.3936 0.4096 0.31123 0.2621 0.36507 0.4359 0.37541 0.31353 0.30174
3423.978 0.30662 0.3782 0.37312 0.34221 0.4541 0.4854 0.37441 0.34271 0.29519 0.33929
3443.269 0.4083 0.31484 0.28991 0.3823 0.33729 0.2667 0.32243 0.32421 0.32052 0.31067
3462.559 0.30507 0.29803 0.32293 0.3845 0.31895 0.285112 0.35601 0.3823 0.29628 0.2169
3481.849 0.1786 0.2055 0.28289 0.2659 0.282308 0.3137 0.2623 0.2627 0.36107 0.4648
3501.139 0.4087 0.3832 0.3831 0.30299 0.37422 0.5111 0.5375 0.501 0.4603 0.3785
3520.429 0.36555 0.4132 0.4459 0.5773 0.6265 0.5396 0.5427 0.5566 0.54 0.5754
3539.719 0.5467 0.4764 0.3981 0.3866 0.5068 0.4512 0.4342 0.5105 0.5325 0.4678
3559.009 0.4158 0.4779 0.37662 0.30856 0.4171 0.3895 0.34113 0.455 0.4079 0.29016
3578.299 0.3834 0.34895 0.205 0.104 0.074 0.083 0.129 0.282662 0.2274 0.1892
3597.589 0.285489 0.32216 0.35009 0.29243 0.284673 0.3839 0.33001 0.2538 0.34095 0.4206
3616.879 0.35263 0.281478 0.34072 0.31252 0.2317 0.146 0.098 0.1787 0.282012 0.4185
3636.169 0.4976 0.4535 0.3957 0.3898 0.37302 0.34209 0.34437 0.280026 0.276989 0.2579
3655.459 0.141 0.30964 0.433 0.412 0.3794 0.35868 0.31593 0.2457 0.31951 0.28772
3674.749 0.2615 0.2668 0.214 0.31903 0.4963 0.5121 0.37603 0.32535 0.29975 0.28735
3694.039 0.3298 0.36863 0.3773 0.33843 0.32203 0.2499 0.283095 0.27467 0.2602 0.3985
3713.329 0.466 0.4574 0.3949 0.30393 0.2502 0.2117 0.29612 0.37671 0.4167 0.4375
3732.619 0.31325 0.2239 0.143 0.121 0.1913 0.281621 0.2637 0.2574 0.30652 0.33058
3751.909 0.34068 0.30695 0.37376 0.32847 0.29368 0.3987 0.4807 0.4398 0.280155 0.277885
3771.199 0.4849 0.5506 0.3928 0.29826 0.29617 0.31721 0.38 0.35881 0.27131 0.285988
3790.489 0.2444 0.2428 0.32103 0.35388 0.27318 0.2074 0.34546 0.36944 0.2668 0.2255
3809.779 0.27926 0.3927 0.37624 0.29714 0.279687 0.286899 0.27224 0.2582 0.2662 0.153
3829.069 0.08 0.2003 0.35036 0.4181 0.30396 0.29797 0.35099 0.28733 0.30485 0.32535
3848.359 0.29254 0.277402 0.2131 0.2118 0.2489 0.2039 0.2344 0.2328 0.2078 0.2661
3867.649 0.29693 0.276043 0.31576 0.4949 0.5859 0.431 0.32271 0.2383 0.1778 0.30108
3886.939 0.36691 0.37625 0.30963 0.2167 0.2651 0.28912 0.1944 0.163 0.26994 0.33732
3906.229 0.4031 0.4553 0.3912 0.27361 0.279618 0.3892 0.4088 0.35719 0.36214 0.29776
3925.519 0.1837 0.1 0.1862 0.34902 0.3781 0.3182 0.2719 0.29566 0.4095 0.4861
3944.809 0.34629 0.31846 0.30093 0.32997 0.4184 0.4482 0.5093 0.3961 0.35681 0.36815
3964.099 0.3831 0.27461 0.1989 0.31002 0.30648 0.339 0.3875 0.31766 0.31974 0.4607
3983.389 0.4392 0.3819 0.35477 0.30669 0.3664 0.33133 0.3071 0.3612 0.3396 0.37091
##END=
