##TITLE=2,6-Dichloroiodobenzene
##JCAMP-DX=4.24
##DATA TYPE=INFRARED SPECTRUM
##ORIGIN=EPA-IR VAPOR PHASE LIBRARY
##OWNER=SRD/NIST
Collection (C) 2018 copyright by the U.S. Secretary of Commerce
on behalf of the United States of America. All rights reserved.
##CAS REGISTRY NO=19230-28-5
##MOLFORM=C 6 H 3 Cl 2 I
##$NIST SOURCE=MSDC-IR
##STATE=gas
##XUNITS=1/CM
##YUNITS=ABSORBANCE
##XFACTOR=1.
##YFACTOR=0.001
##DELTAX=1.92898
##FIRSTX=549.8
##LASTX=4000.7
##FIRSTY=0.6157
##MAXX=4000.7
##MINX=549.759
##MAXY=0.164715
##MINY=0
##NPOINTS=1790
##XYDATA=(X++(Y..Y))
549.759 0.6157 0.41298 0.39397 0.5235 0.35032 0.2299 0.6167 0.7408 0.5994 0.38809
569.049 0.154 0 0.205 0.484 0.7432 0.7756 0.6429 0.704 0.7572 0.4712
588.339 0.4567 0.5516 0.6399 0.5665 0.2379 0.34557 0.40772 0.6316 0.8673 0.8676
607.628 1.0063 1.0937 1.0618 1.0574 1.3232 1.435 1.455 1.545 1.705 1.765
626.918 1.565 1.495 1.2939 1.0597 1.0008 1.1874 1.0924 0.6258 0.5695 0.8133
646.208 0.819 0.8019 0.9769 0.9556 0.9288 1.0551 1.0703 1.1321 1.2309 1.3056
665.498 1.2606 1.435 1.755 2.025 2.725 3.845 5.335 7.345 9.555 11.345
684.787 13.475 18.075 23.495 22.265 17.055 14.995 13.965 12.085 9.795 7.645
704.077 5.965 4.745 4.155 3.855 3.655 3.545 3.255 3.165 3.195 3.275
723.367 3.245 3.275 3.455 3.495 3.605 3.835 4.145 4.315 4.415 4.915
742.657 5.545 6.295 7.055 7.845 8.805 10.275 12.845 16.915 23.135 31.805
761.947 42.325 53.945 66.035 83.105 113.105 151.405 156.925 136.885 144.285 162.955
781.236 164.715 151.415 132.255 116.995 103.805 84.795 60.005 36.825 20.585 11.785
800.526 7.375 5.215 4.195 3.455 2.975 2.985 2.905 2.595 2.595 2.725
819.816 2.755 2.645 2.425 2.355 2.205 2.115 2.255 2.195 1.965 1.885
839.106 1.845 1.775 1.755 1.695 1.415 1.1723 1.0737 1.0478 1.1307 1.1013
858.395 1.1058 1.0881 0.9884 1.0002 1.0299 1.212 1.555 1.865 1.885 1.935
877.685 2.135 2.155 2.285 2.345 2.115 1.825 1.595 1.395 1.2919 1.385
896.975 1.3233 1.335 1.2725 1.1986 1.1456 0.9309 1 1.1409 1.0312 0.938
916.265 0.8569 0.9513 1.1042 1.1321 1.0302 0.9595 1.0713 1.0786 0.8977 0.9566
935.555 1.0861 1.0248 1.0482 1.1018 1.18 1.425 1.585 1.645 1.945 2.455
954.844 2.935 3.125 3.385 3.815 4.225 4.575 4.545 4.305 4.135 3.775
974.134 3.595 3.215 2.695 2.265 1.965 1.945 1.885 1.825 1.985 2.385
993.424 2.855 3.385 4.115 5.045 6.255 8.265 11.095 14.565 18.365 21.045
1012.714 22.375 22.745 22.645 21.845 19.845 16.335 10.965 6.305 4.015 2.905
1032.003 2.145 1.715 1.505 1.415 1.1676 1.1682 1.1729 0.7473 0.7373 0.8898
1051.293 1.0087 0.9592 0.7335 0.5847 0.7132 1.1488 1.2568 1.321 1.505 1.445
1070.583 1.625 2.015 1.765 2.035 2.915 3.035 2.775 2.395 2.325 2.295
1089.873 1.775 1.335 1.465 1.665 1.3011 0.6357 0.9177 1.2242 1.1018 1.395
1109.163 1.645 2.155 3.025 3.855 4.935 6.115 7.645 10.075 11.845 13.035
1128.452 13.665 13.865 14.345 14.545 14.435 15.075 16.365 17.585 18.585 19.745
1147.742 21.275 23.005 24.655 25.715 25.375 23.695 22.095 20.675 19.155 17.525
1167.032 15.925 14.965 15.255 17.025 20.545 26.425 33.795 40.295 43.995 44.445
1186.322 42.715 40.975 38.005 31.585 23.045 14.805 9.425 6.805 5.295 4.315
1205.611 4.105 3.975 3.515 3.325 3.245 3.105 2.935 2.785 2.745 3.065
1224.901 3.545 3.955 4.315 5.005 5.975 6.905 7.795 8.045 8.035 8.125
1244.191 7.805 7.215 6.355 5.055 3.815 3.195 2.705 2.255 1.925 1.495
1263.481 1.1373 0.8398 0.789 0.8053 0.7756 0.507 0.331304 0.331962 0.332229 0.4542
1282.771 0.7284 0.8034 0.7061 0.7521 0.8765 0.9759 0.98 1.0424 1.0631 1.1346
1302.060 1.132 1.0897 1.0139 0.9146 0.9682 1.0077 0.9367 0.8223 0.7561 0.7053
1321.350 0.6227 0.5432 0.5451 0.5631 0.6021 0.6576 0.6628 0.692 0.7324 0.7278
1340.640 0.7345 0.8384 0.9363 1.0388 1.2681 1.495 1.775 2.255 2.775 3.285
1359.930 3.965 4.805 5.835 7.015 8.255 9.565 10.935 12.285 13.735 15.455
1379.219 17.565 20.185 23.465 27.395 31.625 35.505 38.425 40.055 40.275 39.205
1398.509 36.995 33.905 30.475 27.645 26.395 27.375 30.895 37.385 47.245 60.975
1417.799 78.175 97.805 115.115 125.755 127.525 122.355 115.645 107.285 90.835 67.205
1437.089 42.175 23.905 13.645 8.385 5.805 4.515 3.945 3.655 3.515 3.525
1456.378 3.655 3.715 3.835 4.145 4.485 4.885 5.375 5.785 6.185 6.555
1475.668 6.825 7.005 7.055 6.945 6.675 6.295 5.765 5.355 5.005 4.585
1494.958 4.235 3.975 3.775 3.505 3.255 3.095 2.845 2.545 2.345 2.145
1514.248 2.055 2.075 2.065 2.165 2.395 2.665 3.025 3.565 4.315 5.315
1533.538 6.635 8.195 9.965 12.355 15.285 18.745 22.985 28.245 34.345 41.105
1552.827 47.435 52.505 54.755 53.465 49.365 44.075 37.145 28.665 20.265 13.195
1572.117 8.315 5.465 3.825 2.895 2.405 2.105 1.815 1.615 1.525 1.405
1591.407 1.395 1.355 1.3117 1.385 1.415 1.425 1.415 1.445 1.525 1.525
1610.697 1.515 1.535 1.545 1.645 1.675 1.725 1.705 1.575 1.455 1.405
1629.986 1.375 1.2546 1.259 1.365 1.465 1.565 1.705 1.895 2.125 2.445
1649.276 2.825 3.185 3.645 4.005 4.145 4.115 3.965 3.665 3.275 2.815
1668.566 2.275 1.705 1.3058 1.1126 0.8757 0.7554 0.7253 0.6469 0.5963 0.5587
1687.856 0.5401 0.5808 0.5484 0.4566 0.4552 0.5082 0.5673 0.5268 0.4822 0.5206
1707.146 0.4732 0.4593 0.4837 0.5844 0.6304 0.5504 0.6783 0.7903 0.8142 0.8876
1726.435 0.9613 1.0967 1.1891 1.1736 1.1589 1.0749 0.964 0.8824 0.7999 0.7076
1745.725 0.6206 0.6713 0.7509 0.6788 0.6664 0.7265 0.8673 1.0479 1.1878 1.375
1765.015 1.635 1.865 2.105 2.345 2.475 2.565 2.515 2.375 2.165 1.935
1784.305 1.685 1.365 1.0347 0.7576 0.5945 0.5171 0.4853 0.4684 0.4313 0.41849
1803.594 0.39668 0.41687 0.4381 0.4657 0.4748 0.4625 0.5514 0.6305 0.67 0.6686
1822.884 0.6953 0.7377 0.7675 0.9875 1.2043 1.375 1.695 2.025 2.335 2.655
1842.174 2.985 3.335 3.575 3.705 3.685 3.535 3.245 2.885 2.565 2.185
1861.464 1.805 1.495 1.2284 1.0509 0.8599 0.7464 0.7288 0.7056 0.7139 0.7304
1880.754 0.7254 0.657 0.6312 0.6824 0.7559 0.7808 0.8141 0.915 0.9635 1.1049
1900.043 1.2899 1.435 1.675 1.975 2.335 2.755 3.085 3.505 3.975 4.345
1919.333 4.695 4.965 4.995 4.815 4.485 4.025 3.525 3.015 2.405 1.775
1938.623 1.299 0.9719 0.8043 0.7757 0.7381 0.6178 0.5848 0.5879 0.5263 0.4856
1957.913 0.4818 0.5319 0.5777 0.5829 0.5218 0.5076 0.5289 0.5391 0.5098 0.484
1977.202 0.5516 0.5811 0.5826 0.5523 0.5069 0.5392 0.5445 0.5423 0.5326 0.42408
1996.492 0.41955 0.5113 0.455 0.37335 0.4264 0.4592 0.467 0.517 0.5658 0.5564
2015.782 0.5558 0.5981 0.6117 0.6594 0.7323 0.7705 0.7839 0.7889 0.7289 0.6165
2035.072 0.6123 0.6214 0.5634 0.5003 0.41783 0.39263 0.4311 0.4453 0.4291 0.40836
2054.362 0.35183 0.3443 0.39568 0.36046 0.3048 0.37069 0.4204 0.39039 0.38391 0.39709
2073.651 0.39321 0.434 0.41299 0.37688 0.4265 0.4744 0.4991 0.4926 0.4631 0.4869
2092.941 0.5602 0.6042 0.5843 0.6217 0.6102 0.5102 0.5055 0.5072 0.4509 0.42358
2112.231 0.4859 0.5338 0.5321 0.5103 0.4469 0.3771 0.4428 0.4892 0.4495 0.34988
2131.521 0.328082 0.38188 0.37343 0.31872 0.327645 0.32186 0.2895 0.33819 0.3832 0.31938
2150.810 0.2779 0.333286 0.33702 0.35879 0.39218 0.4011 0.4438 0.4741 0.4689 0.4988
2170.100 0.4613 0.4378 0.4744 0.5253 0.5045 0.4427 0.4501 0.5046 0.5239 0.5111
2189.390 0.5254 0.5397 0.5581 0.522 0.5256 0.5138 0.4575 0.469 0.4985 0.4669
2208.680 0.4681 0.4822 0.4522 0.5117 0.5216 0.5134 0.5153 0.4341 0.4287 0.4343
2227.970 0.36804 0.34799 0.36182 0.38847 0.4368 0.42043 0.35376 0.36302 0.41709 0.41904
2247.259 0.41318 0.4565 0.539 0.6138 0.5527 0.4787 0.5687 0.6337 0.629 0.6386
2266.549 0.639 0.682 0.6572 0.5782 0.5477 0.5123 0.5587 0.5692 0.5648 0.6241
2285.839 0.6696 0.75 0.774 0.7115 0.6814 0.7991 0.9081 0.8938 0.8992 0.8428
2305.129 0.7796 0.804 0.7742 0.7359 0.7961 0.7869 0.7244 0.8274 0.8005 0.6729
2324.418 0.703 0.6399 0.5461 0.5847 0.5959 0.6167 0.5704 0.4744 0.536 0.5522
2343.708 0.5047 0.5761 0.5772 0.5534 0.605 0.6106 0.6505 0.6244 0.5555 0.5983
2362.998 0.6405 0.6413 0.7068 0.6311 0.5264 0.5575 0.5168 0.5398 0.5999 0.5247
2382.288 0.4995 0.4904 0.4429 0.4611 0.4598 0.5086 0.4774 0.4619 0.4401 0.36662
2401.578 0.36735 0.36281 0.4368 0.523 0.6271 0.6663 0.64 0.6823 0.8051 0.7949
2420.867 0.8082 0.8179 0.8132 0.8111 0.6632 0.6154 0.5973 0.6502 0.693 0.6253
2440.157 0.5371 0.4459 0.4595 0.5534 0.5738 0.5574 0.6083 0.6634 0.6482 0.6296
2459.447 0.6564 0.7313 0.7703 0.7438 0.695 0.7196 0.8803 0.9554 0.935 1.0013
2478.737 1.0449 1.0227 0.9832 0.9706 0.9653 0.9152 0.8869 0.8317 0.8485 0.8643
2498.026 0.7775 0.6518 0.5382 0.5132 0.5492 0.5243 0.5153 0.5117 0.41362 0.41383
2517.316 0.4875 0.4622 0.4597 0.38367 0.3084 0.42161 0.4588 0.4548 0.4816 0.4658
2536.606 0.4625 0.5048 0.4874 0.4907 0.5387 0.5992 0.5674 0.5266 0.5978 0.6879
2555.896 0.8025 0.8611 0.8506 0.8632 0.9284 1.01 1.019 1.0086 1.0551 1.0111
2575.186 0.8379 0.8015 0.8412 0.7139 0.6344 0.5898 0.5717 0.6134 0.6163 0.5713
2594.475 0.4979 0.4491 0.4427 0.4734 0.5838 0.6781 0.6469 0.6018 0.6533 0.7125
2613.765 0.7123 0.6769 0.6433 0.6426 0.7142 0.8488 0.8463 0.7991 0.7926 0.8005
2633.055 0.7989 0.7658 0.7877 0.8053 0.7955 0.7543 0.6643 0.5967 0.5412 0.527
2652.345 0.5524 0.5493 0.5162 0.4951 0.4951 0.4872 0.4515 0.4835 0.449 0.40114
2671.634 0.4305 0.4423 0.499 0.5468 0.4956 0.4456 0.4643 0.5218 0.561 0.5471
2690.924 0.4566 0.4844 0.4966 0.4646 0.5626 0.496 0.4501 0.515 0.5868 0.53
2710.214 0.4341 0.4781 0.4876 0.466 0.449 0.42328 0.4272 0.4273 0.36038 0.39523
2729.504 0.449 0.313 0.2602 0.2732 0.38854 0.4523 0.40532 0.4282 0.39228 0.37862
2748.794 0.39938 0.439 0.34851 0.205 0.2798 0.39458 0.38967 0.35035 0.36306 0.4538
2768.083 0.4674 0.3829 0.4322 0.5181 0.5696 0.5997 0.5638 0.5501 0.5433 0.5604
2787.373 0.5701 0.5338 0.5847 0.5963 0.4913 0.4533 0.42199 0.39228 0.4152 0.42223
2806.663 0.4307 0.36932 0.3628 0.4087 0.37728 0.32163 0.2775 0.2923 0.35081 0.4491
2825.953 0.4495 0.35085 0.3382 0.2925 0.2312 0.2504 0.2 0.2661 0.4302 0.36398
2845.242 0.2352 0.2455 0.238 0.3002 0.331759 0.2982 0.2591 0.182 0.153 0.152
2864.532 0.156 0.249 0.37445 0.34276 0.2559 0.33599 0.39978 0.37783 0.37962 0.33604
2883.822 0.2783 0.3035 0.40839 0.40477 0.42314 0.4974 0.37515 0.2613 0.33912 0.33296
2903.112 0.32285 0.4329 0.473 0.33974 0.182 0.148 0.3063 0.32022 0.168 0.2758
2922.401 0.4759 0.4336 0.3018 0.3068 0.40783 0.40043 0.40674 0.4388 0.3662 0.39277
2941.691 0.32148 0.32534 0.35125 0.331284 0.4787 0.5764 0.6052 0.6078 0.5388 0.5618
2960.981 0.5827 0.6209 0.817 0.868 0.8755 0.8071 0.6555 0.615 0.628 0.6052
2980.271 0.6494 0.5645 0.34925 0.2925 0.38412 0.39201 0.2657 0.36015 0.493 0.4705
2999.561 0.4572 0.41822 0.2835 0.2284 0.215 0.2406 0.35151 0.4535 0.4053 0.39388
3018.850 0.4332 0.39216 0.37819 0.42153 0.4613 0.511 0.5731 0.5636 0.7309 0.8854
3038.140 0.9388 1.1709 1.345 1.545 1.975 2.365 2.695 3.175 3.965 4.785
3057.430 5.365 5.985 6.555 7.055 7.495 7.765 7.905 7.655 7.175 6.655
3076.720 6.025 5.425 4.775 3.995 3.275 2.785 2.355 1.995 1.775 1.535
3096.009 1.625 1.815 1.705 1.705 1.865 2.075 2.225 2.355 2.615 2.885
3115.299 3.105 3.185 3.135 3.075 3.035 2.755 2.225 1.855 1.665 1.2802
3134.589 0.8602 0.7054 0.7234 0.7612 0.7836 0.6283 0.39021 0.331182 0.3549 0.2487
3153.879 0.2745 0.34119 0.34151 0.38439 0.332885 0.2904 0.2835 0.229 0.2363 0.2542
3173.169 0.217 0.2295 0.2276 0.2293 0.33689 0.3103 0.3068 0.4595 0.4549 0.37528
3192.458 0.333174 0.34812 0.37946 0.32377 0.32256 0.41734 0.39122 0.36657 0.40201 0.4259
3211.748 0.2956 0.154 0.136 0.2477 0.3514 0.39667 0.36919 0.4269 0.4426 0.2964
3231.038 0.3717 0.5172 0.4531 0.35322 0.331148 0.2718 0.2362 0.149 0.21 0.3065
3250.328 0.2776 0.2465 0.2765 0.248 0.2405 0.345 0.32877 0.35478 0.4286 0.4028
3269.617 0.4412 0.5165 0.4881 0.37344 0.4327 0.4736 0.289 0.33674 0.504 0.4545
3288.907 0.40174 0.33958 0.2829 0.2271 0.135 0.2604 0.36132 0.165 0.111 0.21
3308.197 0.207 0.3077 0.327221 0.271 0.37235 0.38336 0.268 0.184 0.164 0.31806
3327.487 0.5074 0.42086 0.36357 0.39416 0.33644 0.208 0.107 0.2294 0.38164 0.4251
3346.777 0.42282 0.39488 0.2855 0.35772 0.42089 0.32073 0.2373 0.178 0.2407 0.205
3366.066 0.145 0.36145 0.39365 0.17 0.218 0.4555 0.4736 0.324663 0.2946 0.223
3385.356 0.214 0.3037 0.2791 0.198 0.223 0.2987 0.3521 0.3844 0.325318 0.3109
3404.646 0.38146 0.34407 0.2599 0.2 0.119 0.3009 0.41683 0.2434 0.2354 0.2719
3423.936 0.2812 0.328615 0.31991 0.3092 0.2828 0.211 0.047 0.126 0.37808 0.35055
3443.225 0.2937 0.2331 0.188 0.175 0.203 0.2451 0.2493 0.3982 0.3148 0.2968
3462.515 0.39112 0.33598 0.334644 0.3455 0.34069 0.34278 0.40342 0.324972 0.306 0.36848
3481.805 0.37437 0.36427 0.37271 0.2553 0.138 0.174 0.2547 0.37412 0.3692 0.2928
3501.095 0.216 0.12 0.2327 0.31662 0.2782 0.2497 0.2433 0.2571 0.2489 0.155
3520.385 0.084 0.125 0.173 0.2283 0.173 0.2341 0.4489 0.334712 0.154 0.327815
3539.674 0.37374 0.326666 0.34587 0.38842 0.4513 0.4883 0.41525 0.33661 0.334148 0.37054
3558.964 0.40893 0.34192 0.37981 0.4422 0.40555 0.31926 0.236 0.19 0.2635 0.326118
3578.254 0.2617 0.36839 0.5434 0.559 0.4681 0.40876 0.2944 0.216 0.31533 0.40911
3597.544 0.33555 0.34938 0.2415 0.201 0.35391 0.31995 0.329404 0.3178 0.287 0.33825
3616.833 0.166 0.086 0.2252 0.196 0.224 0.36913 0.41351 0.4358 0.4607 0.2411
3636.123 0.2948 0.34542 0.2332 0.2608 0.2579 0.205 0.113 0.217 0.221 0.128
3655.413 0.059 0.1 0.221 0.201 0.151 0.156 0.2434 0.096 0.146 0.37026
3674.703 0.34347 0.2565 0.2778 0.39647 0.31792 0.31885 0.40535 0.447 0.40741 0.2408
3693.993 0.148 0.2662 0.3101 0.2999 0.37997 0.3068 0.36496 0.4452 0.35567 0.39429
3713.282 0.3848 0.176 0.132 0.3153 0.41752 0.39849 0.40282 0.35841 0.31691 0.333157
3732.572 0.334992 0.4265 0.5039 0.4517 0.4768 0.5319 0.4872 0.5595 0.6681 0.7769
3751.862 0.9345 0.8486 0.7558 0.8066 0.7553 0.6825 0.6323 0.5756 0.5724 0.5984
3771.152 0.6102 0.5692 0.5009 0.5965 0.6256 0.5615 0.4939 0.41077 0.5598 0.7289
3790.441 0.6091 0.36714 0.4548 0.5871 0.4783 0.4373 0.4693 0.4778 0.4531 0.41253
3809.731 0.329258 0.2598 0.36786 0.40047 0.325802 0.5277 0.5436 0.4627 0.4902 0.39511
3829.021 0.42233 0.34511 0.3111 0.37357 0.283 0.39833 0.5176 0.4358 0.39583 0.457
3848.311 0.4715 0.4898 0.5642 0.4972 0.5705 0.5839 0.5293 0.5729 0.6084 0.6325
3867.601 0.5193 0.5056 0.4391 0.40193 0.38462 0.386 0.4696 0.3927 0.39434 0.36732
3886.890 0.3146 0.38796 0.37352 0.39601 0.2735 0.3133 0.5326 0.4563 0.39057 0.37056
3906.180 0.35146 0.2979 0.223 0.191 0.2928 0.31513 0.39287 0.4642 0.40805 0.37362
3925.470 0.35326 0.244 0.31753 0.497 0.36985 0.35239 0.40299 0.3039 0.156 0.29
3944.760 0.41204 0.325076 0.4269 0.40303 0.324044 0.2928 0.116 0.096 0.255 0.39842
3964.049 0.4303 0.35162 0.36526 0.37305 0.40511 0.38201 0.35034 0.34389 0.34532 0.34713
3983.339 0.2277 0.2748 0.243 0.2321 0.328064 0.2647 0.33636 0.31896 0.2684 0.34479
##END=
