##TITLE=2,4,5-Trimethylphenyl isothiocyanate
##JCAMP-DX=4.24
##DATA TYPE=INFRARED SPECTRUM
##ORIGIN=EPA-IR VAPOR PHASE LIBRARY
##OWNER=SRD/NIST
Collection (C) 2018 copyright by the U.S. Secretary of Commerce
on behalf of the United States of America. All rights reserved.
##CAS REGISTRY NO=19241-18-0
##MOLFORM=C 10 H 11 N S
##$NIST SOURCE=MSDC-IR
##STATE=gas
##XUNITS=1/CM
##YUNITS=ABSORBANCE
##XFACTOR=1.
##YFACTOR=0.001
##DELTAX=1.92898
##FIRSTX=549.8
##LASTX=4000.7
##FIRSTY=16.304
##MAXX=4000.7
##MINX=549.759
##MAXY=0.511464
##MINY=0
##NPOINTS=1790
##XYDATA=(X++(Y..Y))
549.759 16.304 16.814 17.024 16.944 17.044 16.564 16.044 15.984 15.924 15.654
569.049 15.194 14.904 14.534 14.024 13.174 12.424 11.764 10.874 10.054 9.204
588.339 8.654 8.124 7.224 6.754 6.384 5.804 5.674 5.494 5.064 4.574
607.628 4.284 4.414 4.254 3.824 3.404 3.164 3.044 2.714 2.534 2.414
626.918 2.244 2.314 2.594 3.124 3.574 4.094 4.654 4.614 4.694 4.904
646.208 4.644 4.334 4.084 3.744 3.744 3.904 3.794 3.644 3.584 3.494
665.498 3.284 2.914 2.394 1.934 1.914 1.954 1.794 1.764 1.884 1.984
684.787 2.074 2.184 2.194 2.434 2.604 2.414 2.634 2.994 3.034 2.914
704.077 3.054 3.384 3.734 4.614 5.584 6.574 7.844 9.344 11.204 12.534
723.367 12.844 12.504 11.714 10.494 9.024 7.154 5.574 4.914 4.654 4.664
742.657 4.864 5.184 5.384 5.664 5.964 6.374 7.344 8.534 9.754 10.924
761.947 11.734 12.044 12.174 11.714 10.614 9.264 7.694 6.304 4.984 3.764
781.236 3.084 2.644 2.454 2.444 2.474 2.584 2.824 2.924 2.974 3.204
800.526 3.474 3.714 3.864 3.784 3.534 3.484 3.394 3.194 2.944 2.964
819.816 3.264 3.444 3.614 3.784 4.014 4.074 4.264 4.524 4.444 4.394
839.106 4.674 5.074 5.464 6.334 7.354 8.354 9.674 11.314 13.144 15.224
858.395 18.044 21.604 25.284 29.624 34.594 40.114 46.814 53.724 57.244 56.144
877.685 54.154 52.564 50.164 46.454 42.034 37.904 34.144 31.124 28.834 27.244
896.975 26.344 25.784 25.524 25.744 26.244 26.694 26.954 27.154 27.394 27.154
916.265 26.584 25.894 24.924 23.684 22.224 20.734 19.394 18.024 16.784 15.514
935.555 14.274 13.254 12.204 11.194 10.184 9.274 8.464 7.864 7.364 6.664
954.844 5.994 5.524 5.164 4.914 4.794 4.524 4.084 3.874 3.604 3.434
974.134 3.384 3.154 3.164 3.294 3.364 3.574 3.904 4.324 4.664 5.084
993.424 5.834 6.544 7.094 7.534 8.044 8.314 8.444 8.484 8.424 8.244
1012.714 8.144 8.274 8.374 8.594 8.514 8.214 8.014 7.704 7.484 7.054
1032.003 6.384 6.024 5.674 5.334 4.904 4.274 3.904 3.684 3.484 3.194
1051.293 3.144 3.354 3.214 3.034 2.874 2.924 2.784 2.184 1.974 2.314
1070.583 2.304 2.174 2.274 1.974 1.654 1.764 2.164 2.204 2.344 2.844
1089.873 3.154 3.524 3.864 4.214 4.144 3.654 3.174 2.824 2.454 1.764
1109.163 1.4705 1.604 1.854 1.804 1.754 1.544 1.1318 1.3391 2.014 2.154
1128.452 1.884 2.014 2.214 2.264 2.084 2.094 2.194 2.244 2.224 1.864
1147.742 2.084 2.314 2.294 2.324 2.214 2.194 2.094 2.384 2.564 2.594
1167.032 2.694 2.904 2.954 2.954 3.324 3.724 4.024 3.884 4.174 4.714
1186.322 5.324 6.184 7.034 8.334 9.854 11.354 13.204 15.274 16.904 17.914
1205.611 18.514 18.354 17.114 15.294 13.144 10.594 8.594 7.374 6.374 5.764
1224.901 5.834 5.824 5.534 5.524 5.624 5.664 5.534 5.234 5.254 4.864
1244.191 4.214 4.024 3.894 3.744 3.684 3.844 4.044 4.404 4.544 4.604
1263.481 5.144 5.344 5.364 5.394 5.424 5.674 5.494 5.304 5.344 5.354
1282.771 5.374 5.274 5.214 5.134 5.034 4.904 4.714 4.444 4.334 4.414
1302.060 4.344 4.204 4.194 4.094 3.984 3.944 3.904 3.844 3.704 3.704
1321.350 3.744 3.724 3.704 3.724 3.784 3.774 3.814 3.864 3.844 3.854
1340.640 3.894 3.944 4.004 4.054 4.104 4.174 4.274 4.344 4.424 4.584
1359.930 4.764 5.064 5.444 5.864 6.334 6.814 7.284 7.754 8.224 8.734
1379.219 8.984 9.014 9.104 9.264 9.644 10.064 10.614 11.414 12.294 13.034
1398.509 13.504 13.734 13.524 12.964 12.154 11.174 10.274 9.444 8.824 8.454
1417.799 8.244 8.234 8.324 8.514 8.814 9.214 9.844 10.534 11.374 12.434
1437.089 13.694 15.094 16.634 18.424 20.384 22.394 24.554 26.764 28.864 30.814
1456.378 32.594 33.964 34.734 35.024 34.684 33.654 32.004 29.934 27.544 25.114
1475.668 22.994 21.164 20.004 19.654 20.164 21.634 24.354 28.474 34.254 41.634
1494.958 50.294 59.574 67.664 73.024 74.784 73.194 68.374 60.544 50.504 39.824
1514.248 30.954 24.654 20.404 17.614 15.674 14.394 13.424 12.744 12.244 11.904
1533.538 11.704 11.564 11.664 11.854 11.984 12.044 12.254 12.474 12.674 12.954
1552.827 13.184 13.424 13.664 13.884 14.034 14.204 14.334 14.284 14.204 14.154
1572.117 14.134 14.014 13.704 13.304 12.884 12.424 11.874 11.374 10.924 10.544
1591.407 10.184 9.884 9.744 9.674 9.694 9.934 10.494 11.184 12.044 13.004
1610.697 14.074 15.074 15.554 15.564 15.134 14.224 12.824 11.124 9.484 8.054
1629.986 6.914 6.164 5.664 5.274 4.964 4.734 4.604 4.594 4.454 4.244
1649.276 4.124 4.024 3.904 3.744 3.554 3.384 3.224 3.064 2.934 2.774
1668.566 2.684 2.644 2.494 2.424 2.404 2.424 2.444 2.424 2.454 2.404
1687.856 2.384 2.474 2.504 2.484 2.514 2.524 2.574 2.664 2.644 2.704
1707.146 2.844 2.954 3.084 3.204 3.384 3.634 3.844 4.104 4.454 4.804
1726.435 5.164 5.494 5.794 6.094 6.324 6.374 6.264 6.034 5.824 5.564
1745.725 5.194 4.794 4.474 4.214 3.944 3.804 3.744 3.564 3.464 3.484
1765.015 3.534 3.594 3.634 3.654 3.684 3.684 3.714 3.784 3.864 3.994
1784.305 4.074 4.114 4.154 4.224 4.274 4.264 4.224 4.244 4.324 4.364
1803.594 4.344 4.324 4.294 4.294 4.234 4.224 4.314 4.244 4.184 4.224
1822.884 4.194 4.174 4.174 4.144 4.114 4.124 4.074 4.034 4.034 4.014
1842.174 4.044 3.984 3.904 3.954 3.934 3.914 3.964 3.954 3.934 3.934
1861.464 3.954 4.024 4.084 4.114 4.144 4.194 4.274 4.384 4.464 4.564
1880.754 4.754 4.994 5.164 5.324 5.494 5.774 6.124 6.464 6.804 7.114
1900.043 7.434 7.784 8.114 8.524 8.994 9.384 9.764 10.234 10.744 11.264
1919.333 11.894 12.554 13.254 14.024 14.834 15.734 16.704 17.724 18.944 20.284
1938.623 21.684 23.184 24.874 26.684 28.694 30.974 33.404 36.014 38.904 42.044
1957.913 45.404 48.964 52.694 56.494 60.224 63.924 67.564 71.094 74.444 77.694
1977.202 81.014 84.414 87.964 91.754 95.894 100.324 105.154 110.354 115.754 121.434
1996.492 127.354 133.474 139.854 146.384 153.144 160.224 167.664 175.434 183.514 192.124
2015.782 201.064 210.484 220.444 230.804 241.484 252.454 263.974 275.834 288.104 300.814
2035.072 313.854 327.594 342.004 357.164 373.044 389.624 406.834 424.284 441.614 458.554
2054.362 474.764 489.024 500.324 508.004 511.464 511.074 507.594 502.144 495.264 487.904
2073.651 480.874 474.484 469.144 464.724 461.034 458.014 455.144 452.204 448.794 444.644
2092.941 439.404 432.514 423.904 413.754 402.104 389.124 374.894 359.774 343.844 327.054
2112.231 310.054 292.994 276.144 259.934 244.734 230.764 218.024 206.694 196.774 188.354
2131.521 181.404 175.864 171.534 168.374 166.234 164.614 163.234 161.784 159.844 157.074
2150.810 153.404 148.844 143.124 136.374 128.744 120.424 111.704 102.864 94.254 86.064
2170.100 78.314 71.334 65.314 60.184 55.894 52.334 49.544 47.334 45.424 43.674
2189.390 42.014 40.224 38.094 35.744 33.294 30.774 28.214 25.774 23.584 21.614
2208.680 19.984 18.704 17.654 16.724 15.884 15.184 14.484 13.774 13.124 12.504
2227.970 11.904 11.284 10.654 10.034 9.444 8.914 8.424 7.914 7.464 7.034
2247.259 6.564 6.214 5.964 5.674 5.444 5.284 5.174 5.074 4.984 4.954
2266.549 4.894 4.874 4.964 5.044 5.184 5.314 5.454 5.564 5.684 5.954
2285.839 6.174 6.334 6.674 6.974 7.174 7.284 7.354 7.464 7.454 7.234
2305.129 6.874 6.344 5.754 5.164 4.604 4.244 3.924 3.664 3.584 3.474
2324.418 3.424 3.374 3.384 3.494 3.494 3.474 3.594 3.634 3.654 3.784
2343.708 3.974 4.244 4.374 4.514 4.774 4.984 5.144 5.214 5.344 5.444
2362.998 5.484 5.544 5.574 5.584 5.594 5.634 5.564 5.524 5.484 5.364
2382.288 5.214 5.044 4.764 4.574 4.484 4.294 4.194 4.154 4.074 3.994
2401.578 4.004 4.034 4.144 4.304 4.364 4.384 4.464 4.594 4.594 4.494
2420.867 4.524 4.494 4.394 4.354 4.374 4.404 4.394 4.454 4.504 4.614
2440.157 4.674 4.574 4.564 4.634 4.644 4.714 4.704 4.664 4.734 4.684
2459.447 4.584 4.604 4.734 4.844 4.864 4.914 4.974 5.064 5.134 5.104
2478.737 5.014 5.034 5.124 5.054 5.034 5.134 5.154 5.074 4.904 4.744
2498.026 4.644 4.544 4.484 4.364 4.254 4.234 4.214 4.294 4.304 4.264
2517.316 4.354 4.384 4.344 4.444 4.544 4.554 4.594 4.694 4.764 4.734
2536.606 4.764 4.854 4.914 4.964 5.064 5.144 5.154 5.234 5.314 5.384
2555.896 5.464 5.494 5.484 5.574 5.654 5.574 5.504 5.404 5.274 5.194
2575.186 4.994 4.814 4.644 4.414 4.254 4.144 3.984 3.744 3.614 3.574
2594.475 3.434 3.324 3.294 3.274 3.234 3.164 3.154 3.134 3.044 2.934
2613.765 2.964 2.894 2.764 2.864 2.974 2.964 2.864 2.914 3.004 2.964
2633.055 2.954 2.974 3.044 3.014 3.004 3.134 3.234 3.224 3.144 3.144
2652.345 3.244 3.294 3.334 3.374 3.434 3.554 3.724 3.864 3.934 3.994
2671.634 4.134 4.334 4.514 4.584 4.644 4.864 4.934 5.014 5.004 4.974
2690.924 4.994 4.884 4.824 4.814 4.824 4.804 4.754 4.774 4.704 4.664
2710.214 4.724 4.634 4.604 4.604 4.524 4.534 4.524 4.404 4.404 4.354
2729.504 4.364 4.424 4.414 4.464 4.514 4.534 4.584 4.594 4.524 4.344
2748.794 4.154 4.064 4.004 3.954 3.914 3.884 3.904 4.004 4.014 3.974
2768.083 3.924 3.954 3.954 3.804 3.644 3.584 3.564 3.524 3.454 3.304
2787.373 3.154 3.164 3.264 3.314 3.284 3.274 3.334 3.364 3.394 3.524
2806.663 3.604 3.634 3.744 3.914 4.134 4.274 4.434 4.584 4.724 4.894
2825.953 5.224 5.494 5.574 5.874 6.204 6.444 6.804 7.094 7.484 8.124
2845.242 8.524 8.954 9.594 10.274 10.904 11.654 12.574 13.714 15.124 16.694
2864.532 18.454 20.504 22.734 24.994 27.174 28.874 30.144 30.944 31.194 30.844
2883.822 30.034 29.044 27.944 26.964 26.214 25.524 24.914 24.504 24.094 23.684
2903.112 23.534 23.524 23.484 23.644 24.164 25.014 26.204 28.154 30.734 33.914
2922.401 38.104 43.224 49.014 54.884 60.064 63.974 66.024 66.224 64.864 61.964
2941.691 57.734 52.864 48.314 44.724 42.164 40.364 38.924 37.574 36.344 35.364
2960.981 34.404 33.384 32.444 31.974 31.924 32.114 32.764 33.504 34.234 34.864
2980.271 35.124 34.964 34.304 33.154 31.494 29.364 27.264 25.404 23.624 22.144
2999.561 21.314 20.884 20.814 21.154 21.824 23.074 24.764 26.704 28.774 30.794
3018.850 32.484 33.254 33.034 32.184 30.804 28.754 26.054 23.084 20.314 18.164
3038.140 16.604 15.354 14.454 13.794 13.294 13.084 12.854 12.594 12.424 12.194
3057.430 11.874 11.594 11.184 10.704 10.414 9.944 9.364 9.004 8.694 8.294
3076.720 7.914 7.594 7.154 6.814 6.594 6.204 5.884 5.604 5.254 4.994
3096.009 4.834 4.824 4.754 4.724 4.634 4.504 4.474 4.404 4.324 4.214
3115.299 4.164 4.134 4.044 3.984 3.714 3.514 3.504 3.424 3.134 2.754
3134.589 2.524 2.344 2.094 1.944 1.974 1.854 1.694 1.594 1.3424 1.1103
3153.879 1.2043 1.2593 1.1304 1.0526 1.0498 1.0161 0.8678 0.783 0.7357 0.8368
3173.169 0.8671 0.6887 0.6775 0.6711 0.6791 0.7617 0.7675 0.58555 0.502647 0.51366
3192.458 0.52789 0.55287 0.58527 0.6466 0.54169 0.4576 0.4589 0.377 0.363 0.4146
3211.748 0.4124 0.4291 0.53085 0.6114 0.4689 0.391 0.3959 0.4462 0.5063 0.295
3231.038 0.298 0.4244 0.59295 0.6384 0.4149 0.332 0.349 0.255 0.295 0.4349
3250.328 0.29 0.325 0.4364 0.4244 0.305 0.183 0.254 0.375 0.382 0.362
3269.617 0.324 0.207 0.282 0.4595 0.52169 0.51597 0.4224 0.245 0.03 0.023
3288.907 0.176 0.183 0.248 0.172 0 0.172 0.301 0.273 0.248 0.203
3308.197 0.299 0.4431 0.4133 0.222 0.172 0.374 0.392 0.369 0.3967 0.307
3327.487 0.166 0.105 0.308 0.365 0.324 0.324 0.276 0.244 0.262 0.238
3346.777 0.206 0.272 0.236 0.221 0.281 0.227 0.219 0.211 0.216 0.247
3366.066 0.246 0.253 0.318 0.265 0.116 0.174 0.284 0.284 0.253 0.257
3385.356 0.188 0.119 0.233 0.4604 0.48415 0.4311 0.333 0.172 0.272 0.357
3404.646 0.245 0.192 0.352 0.37 0.226 0.231 0.36 0.333 0.238 0.331
3423.936 0.50446 0.498422 0.333 0.299 0.329 0.4428 0.497822 0.383 0.331 0.337
3443.225 0.284 0.341 0.4856 0.54118 0.6065 0.4378 0.3 0.4176 0.52592 0.4418
3462.515 0.295 0.4128 0.4625 0.4013 0.4503 0.53558 0.52969 0.428 0.4007 0.4243
3481.805 0.311 0.219 0.234 0.361 0.4481 0.329 0.303 0.352 0.4319 0.344
3501.095 0.298 0.267 0.153 0.32 0.51295 0.48958 0.4428 0.51916 0.4661 0.325
3520.385 0.234 0.316 0.414 0.4421 0.51305 0.48575 0.48908 0.6208 0.55518 0.385
3539.674 0.344 0.336 0.4691 0.59329 0.58362 0.52675 0.4672 0.4343 0.51306 0.6135
3558.964 0.4702 0.236 0.156 0.203 0.287 0.4814 0.53529 0.4187 0.54442 0.6587
3578.254 0.4724 0.3992 0.38 0.27 0.38 0.54044 0.51193 0.4501 0.53926 0.52165
3597.544 0.4759 0.57326 0.53101 0.4201 0.49292 0.55536 0.327 0.205 0.251 0.388
3616.833 0.4612 0.383 0.33 0.329 0.378 0.329 0.373 0.51732 0.4123 0.378
3636.123 0.51188 0.55853 0.56946 0.52568 0.51373 0.51465 0.4631 0.4301 0.4077 0.4385
3655.413 0.48563 0.4681 0.4016 0.336 0.39 0.4213 0.4063 0.48914 0.55086 0.56761
3674.703 0.503687 0.439 0.354 0.238 0.192 0.318 0.50724 0.4389 0.4715 0.52685
3693.993 0.369 0.333 0.349 0.52664 0.498847 0.294 0.34 0.416 0.4326 0.4647
3713.282 0.58509 0.4663 0.354 0.4589 0.4404 0.4633 0.48686 0.4818 0.57657 0.6624
3732.572 0.6267 0.6156 0.6051 0.55845 0.596 0.4669 0.4789 0.5855 0.6312 0.694
3751.862 0.59159 0.7349 0.7852 0.6524 0.6155 0.64 0.6473 0.6091 0.54426 0.4784
3771.152 0.6426 0.7663 0.6392 0.6169 0.6861 0.6362 0.53673 0.5943 0.6622 0.6308
3790.441 0.621 0.4618 0.4313 0.56479 0.6131 0.6268 0.7315 0.6799 0.6316 0.6133
3809.731 0.4931 0.56866 0.6426 0.57951 0.6972 0.9475 0.8858 0.6629 0.6145 0.6823
3829.021 0.8709 0.9746 0.8953 0.7552 0.6265 0.7362 0.7855 0.7361 0.6588 0.6805
3848.311 0.7453 0.6886 0.7311 0.7927 0.8272 0.8855 0.9138 0.8424 0.6486 0.6978
3867.601 0.7977 0.8831 0.9982 0.9071 0.916 0.8199 0.9311 1.2054 1.0986 0.9881
3886.890 1.0469 1.1744 1.2253 1.1017 1.126 1.1707 1.1234 1.1058 1.0838 1.1697
3906.180 1.1794 1.0372 0.9319 0.9313 1.0278 1.0974 1.0238 1.0216 1.0957 1.2478
3925.470 1.3615 1.3708 1.3129 1.2114 1.2786 1.1995 1.1407 1.2703 1.289 1.348
3944.760 1.3745 1.2271 1.2908 1.3795 1.31 1.3791 1.494 1.714 1.634 1.3743
3964.049 1.3992 1.4494 1.4236 1.504 1.554 1.574 1.624 1.684 1.834 1.764
3983.339 1.604 1.664 1.784 1.754 1.824 1.774 1.904 1.944 1.784 1.814
##END=
