##TITLE=2-Bromo-4-methylphenyl isothiocyanate
##JCAMP-DX=4.24
##DATA TYPE=INFRARED SPECTRUM
##ORIGIN=EPA-IR VAPOR PHASE LIBRARY
##OWNER=SRD/NIST
Collection (C) 2018 copyright by the U.S. Secretary of Commerce
on behalf of the United States of America. All rights reserved.
##CAS REGISTRY NO=19241-39-5
##MOLFORM=C 8 H 6 Br N S
##$NIST SOURCE=MSDC-IR
##STATE=gas
##XUNITS=1/CM
##YUNITS=ABSORBANCE
##XFACTOR=1.
##YFACTOR=0.001
##DELTAX=1.92898
##FIRSTX=549.8
##LASTX=4000.7
##FIRSTY=12.535
##MAXX=4000.7
##MINX=549.759
##MAXY=0.510915
##MINY=0
##NPOINTS=1790
##XYDATA=(X++(Y..Y))
549.759 12.535 10.965 9.805 8.995 8.085 7.235 6.575 5.715 4.955 4.605
569.049 4.475 3.975 3.885 4.305 4.495 4.975 5.225 5.165 5.705 6.015
588.339 5.825 5.515 4.915 4.495 4.175 3.695 3.425 3.315 3.115 2.905
607.628 2.815 2.715 2.755 2.855 2.705 2.625 2.605 2.555 2.435 2.335
626.918 2.185 2.285 2.525 2.455 2.595 2.715 2.385 2.255 2.385 2.245
646.208 2.105 2.275 2.615 3.095 3.515 3.885 4.335 4.755 5.115 5.475
665.498 6.035 6.785 7.425 7.775 7.795 7.485 6.995 6.285 5.355 4.295
684.787 3.215 2.625 2.345 2.165 2.235 2.215 2.335 2.625 2.715 2.755
704.077 2.625 2.315 2.095 1.955 1.695 1.3351 1.0157 0.7821 0.7249 0.7118
723.367 0.8729 1.3202 1.705 2.235 2.595 2.705 2.875 2.825 2.635 2.335
742.657 2.005 1.725 1.276 1.0012 0.7441 0.5209 0.5605 0.6945 0.9268 1.1543
761.947 1.525 1.875 2.095 2.225 2.465 2.725 2.795 2.895 2.965 2.975
781.236 2.935 3.025 3.215 3.215 3.445 4.205 5.165 6.605 9.005 12.265
800.526 16.145 20.735 25.695 30.735 36.155 42.235 47.115 44.995 37.625 31.935
819.816 28.215 25.095 22.495 21.535 22.935 25.905 29.135 31.485 32.395 32.055
839.106 30.895 28.415 24.435 19.545 14.915 11.335 9.115 7.755 6.875 6.475
858.395 6.425 6.765 7.355 7.935 8.365 9.105 9.915 10.085 9.085 7.945
877.685 7.195 6.315 5.515 4.735 3.925 3.365 2.955 2.695 2.755 2.785
896.975 2.735 2.765 2.925 3.205 3.345 3.635 4.065 4.385 4.795 5.425
916.265 6.115 6.935 7.785 8.645 9.865 11.335 13.035 15.295 18.125 21.335
935.555 24.715 28.145 31.295 33.945 35.785 36.315 35.805 34.285 31.755 28.695
954.844 25.415 22.275 19.575 17.145 15.055 13.235 11.565 10.475 9.505 8.625
974.134 8.045 7.535 7.055 6.475 6.195 6.045 5.585 5.045 4.815 4.715
993.424 4.435 4.005 3.765 3.615 3.335 3.085 2.825 2.635 2.535 2.375
1012.714 2.145 2.185 2.265 2.175 2.235 2.225 2.035 2.155 2.475 2.975
1032.003 3.825 4.415 5.265 6.645 8.275 10.375 13.175 16.535 19.715 21.945
1051.293 22.845 22.955 22.415 20.495 17.445 13.835 10.545 7.995 6.225 4.925
1070.583 4.115 3.645 3.225 2.795 2.395 2.455 2.165 1.785 2.125 2.055
1089.873 1.565 1.465 1.385 1.213 1.2756 1.615 1.3448 1.0907 1.2018 1.2125
1109.163 1.1906 1.1805 1.0592 1.425 1.495 1.1343 1.0636 1.0658 1.1462 1.255
1128.452 1.3498 1.3601 1.645 2.115 2.695 3.305 3.465 3.565 3.815 3.855
1147.742 3.595 2.945 2.165 1.765 1.465 1.188 1.385 1.1372 0.5051 0.8303
1167.032 1.2422 1.0978 1.1947 1.0589 1.1099 1.365 1.2757 1.2578 1.635 1.575
1186.322 1.745 2.255 2.345 3.015 3.715 4.305 5.065 6.075 6.965 7.735
1205.611 8.025 8.165 8.025 7.215 6.795 5.905 4.745 4.145 3.375 2.535
1224.901 2.065 1.745 1.675 1.775 1.905 2.055 2.325 2.545 2.635 2.855
1244.191 3.185 3.505 3.725 3.875 3.995 4.255 4.385 4.465 4.685 4.805
1263.481 4.795 4.945 5.285 5.805 6.455 7.005 7.365 7.655 7.745 7.475
1282.771 7.065 6.315 5.375 4.695 4.055 3.455 3.025 2.795 2.585 2.305
1302.060 2.145 1.985 1.845 1.805 1.785 1.695 1.625 1.575 1.545 1.615
1321.350 1.615 1.555 1.485 1.405 1.425 1.425 1.435 1.475 1.475 1.465
1340.640 1.525 1.585 1.665 1.715 1.765 1.875 2.055 2.275 2.355 2.385
1359.930 2.495 2.575 2.615 2.725 2.935 3.165 3.485 3.865 4.215 4.615
1379.219 5.075 5.615 6.245 6.935 7.695 8.445 9.085 9.565 9.825 9.795
1398.509 9.595 9.225 8.725 8.225 7.825 7.615 7.555 7.595 7.685 7.745
1417.799 7.735 7.615 7.335 6.945 6.475 5.975 5.645 5.445 5.275 5.205
1437.089 5.205 5.185 5.235 5.305 5.405 5.515 5.675 5.915 6.145 6.345
1456.378 6.595 7.045 7.725 8.735 10.155 12.055 14.695 18.525 23.945 31.655
1475.668 41.855 54.055 66.935 78.615 87.125 92.185 94.095 92.175 85.615 75.125
1494.958 62.865 51.475 41.975 33.635 25.985 19.825 15.885 13.615 12.265 11.315
1514.248 10.555 10.005 9.505 9.035 8.615 8.295 7.945 7.665 7.505 7.355
1533.538 7.125 7.005 6.925 6.855 6.855 6.955 7.115 7.235 7.265 7.215
1552.827 7.135 7.085 6.965 6.635 6.295 5.965 5.615 5.275 4.955 4.725
1572.117 4.635 4.595 4.645 4.755 4.955 5.295 5.715 6.135 6.685 7.275
1591.407 7.765 8.235 8.535 8.565 8.345 7.935 7.405 6.705 5.845 5.035
1610.697 4.425 3.965 3.635 3.465 3.385 3.275 3.275 3.255 3.185 3.105
1629.986 2.975 2.835 2.665 2.495 2.265 2.135 2.085 2.045 1.905 1.735
1649.276 1.675 1.585 1.565 1.595 1.605 1.555 1.565 1.605 1.625 1.665
1668.566 1.705 1.655 1.625 1.695 1.715 1.715 1.705 1.745 1.765 1.755
1687.856 1.775 1.725 1.725 1.735 1.665 1.615 1.585 1.665 1.725 1.755
1707.146 1.865 1.865 1.905 1.995 2.075 2.205 2.315 2.475 2.625 2.815
1726.435 2.995 3.145 3.395 3.675 3.855 4.045 4.155 4.205 4.195 4.115
1745.725 4.015 3.855 3.695 3.545 3.405 3.295 3.205 3.095 2.975 2.895
1765.015 2.855 2.835 2.935 2.985 2.965 3.075 3.195 3.305 3.375 3.385
1784.305 3.365 3.405 3.445 3.355 3.275 3.275 3.255 3.225 3.265 3.295
1803.594 3.355 3.435 3.465 3.455 3.455 3.485 3.495 3.425 3.295 3.225
1822.884 3.115 3.005 2.905 2.795 2.705 2.715 2.795 2.845 2.865 2.865
1842.174 2.925 3.075 3.265 3.395 3.505 3.705 3.885 4.095 4.315 4.545
1861.464 4.925 5.375 5.735 6.175 6.645 7.105 7.655 8.215 8.815 9.415
1880.754 10.025 10.605 11.055 11.445 11.645 11.725 11.725 11.595 11.455 11.405
1900.043 11.355 11.325 11.485 11.765 12.045 12.375 12.785 13.145 13.545 14.025
1919.333 14.525 15.035 15.595 16.195 16.815 17.465 18.185 19.055 19.945 20.865
1938.623 21.985 23.285 24.755 26.325 28.035 29.995 32.085 34.335 36.755 39.285
1957.913 42.045 44.965 47.945 51.065 54.425 58.005 61.695 65.535 69.585 73.925
1977.202 78.565 83.405 88.475 93.905 99.595 105.475 111.645 118.135 124.955 132.035
1996.492 139.435 146.985 154.835 163.165 171.795 180.805 190.155 200.025 210.235 220.575
2015.782 231.345 242.415 253.665 265.105 277.085 289.465 302.285 315.985 330.545 346.095
2035.072 362.735 380.495 399.035 418.605 438.895 458.775 477.325 493.065 504.665 510.915
2054.362 510.905 503.965 490.385 471.015 447.525 421.915 395.255 368.835 343.725 320.845
2073.651 300.925 284.405 271.435 261.825 255.395 251.745 250.395 250.665 251.865 253.425
2092.941 254.605 254.775 253.665 251.025 246.895 241.385 234.915 227.975 220.915 214.185
2112.231 207.735 201.405 195.195 189.045 182.915 176.715 170.495 164.255 157.895 151.465
2131.521 145.095 138.695 132.155 125.435 118.395 111.015 103.385 95.565 87.655 79.885
2150.810 72.465 65.615 59.445 54.085 49.485 45.635 42.525 40.075 38.165 36.645
2170.100 35.445 34.495 33.735 33.025 32.445 31.955 31.485 31.075 30.725 30.305
2189.390 29.865 29.435 28.935 28.365 27.695 26.945 26.105 25.185 24.225 23.335
2208.680 22.595 21.965 21.475 21.075 20.775 20.545 20.295 20.045 19.745 19.235
2227.970 18.575 17.865 17.005 16.035 14.905 13.645 12.535 11.565 10.605 9.605
2247.259 8.775 8.035 7.395 6.925 6.425 5.845 5.425 5.175 4.865 4.555
2266.549 4.325 4.095 3.885 3.725 3.645 3.555 3.445 3.455 3.455 3.465
2285.839 3.435 3.375 3.385 3.435 3.495 3.505 3.575 3.635 3.635 3.625
2305.129 3.605 3.565 3.475 3.385 3.225 3.085 3.055 3.015 3.025 3.045
2324.418 3.145 3.215 3.235 3.225 3.195 3.215 3.115 2.975 2.835 2.685
2343.708 2.625 2.555 2.425 2.305 2.255 2.215 2.175 2.125 2.135 2.255
2362.998 2.295 2.275 2.365 2.405 2.405 2.495 2.545 2.595 2.755 2.825
2382.288 2.795 2.845 2.815 2.835 2.945 2.965 2.985 3.005 3.035 3.065
2401.578 3.135 3.205 3.185 3.245 3.335 3.435 3.525 3.575 3.705 3.765
2420.867 3.785 3.835 3.895 3.975 4.055 4.075 3.985 3.945 3.905 3.825
2440.157 3.765 3.805 3.805 3.725 3.665 3.565 3.475 3.395 3.395 3.365
2459.447 3.315 3.315 3.285 3.295 3.265 3.285 3.305 3.255 3.235 3.295
2478.737 3.395 3.495 3.585 3.615 3.655 3.735 3.885 4.055 4.115 4.235
2498.026 4.445 4.565 4.625 4.705 4.725 4.695 4.625 4.565 4.565 4.595
2517.316 4.595 4.635 4.775 4.945 5.045 5.165 5.315 5.365 5.375 5.415
2536.606 5.445 5.415 5.345 5.325 5.225 5.135 5.055 4.985 5.055 5.035
2555.896 4.965 4.895 4.795 4.755 4.615 4.445 4.315 4.185 4.015 3.805
2575.186 3.525 3.225 2.965 2.755 2.575 2.445 2.325 2.205 2.125 2.065
2594.475 2.015 2.025 2.065 2.065 2.085 2.005 1.895 1.875 1.855 1.855
2613.765 1.855 1.865 1.925 1.935 1.875 1.805 1.825 1.965 1.985 1.975
2633.055 1.975 1.975 2.065 2.145 2.205 2.215 2.265 2.335 2.415 2.585
2652.345 2.735 2.775 2.885 3.035 3.105 3.215 3.405 3.625 3.815 4.055
2671.634 4.375 4.645 4.985 5.365 5.755 6.205 6.665 7.105 7.605 8.115
2690.924 8.475 8.885 9.325 9.565 9.645 9.625 9.515 9.285 8.845 8.245
2710.214 7.735 7.115 6.395 5.865 5.325 4.795 4.395 4.015 3.645 3.485
2729.504 3.355 3.095 2.885 2.805 2.905 2.995 2.965 2.955 2.915 2.955
2748.794 2.975 2.875 2.745 2.515 2.365 2.215 2.015 1.955 1.835 1.685
2768.083 1.655 1.555 1.425 1.2702 1.212 1.2807 1.2494 1.1775 1.1872 1.1895
2787.373 1.1293 1.1011 1.1245 1.1052 1.128 1.2204 1.2666 1.234 1.2044 1.2111
2806.663 1.2323 1.2892 1.259 1.221 1.2744 1.415 1.495 1.485 1.465 1.455
2825.953 1.545 1.695 1.735 1.775 1.805 1.885 1.995 2.175 2.415 2.545
2845.242 2.725 2.985 3.085 3.325 3.715 4.025 4.365 4.855 5.275 5.665
2864.532 6.095 6.385 6.815 7.275 7.555 7.765 7.925 8.065 8.105 8.245
2883.822 8.315 8.225 8.175 8.065 7.955 7.835 7.705 7.555 7.475 7.445
2903.112 7.275 7.165 7.195 7.335 7.635 7.925 8.255 8.665 9.225 10.135
2922.401 11.245 12.465 14.095 15.915 17.605 19.005 19.785 20.005 19.765 18.845
2941.691 17.485 15.715 13.695 12.055 10.745 9.645 8.765 8.155 7.865 7.535
2960.981 7.115 6.865 6.715 6.445 6.295 6.065 5.825 5.675 5.495 5.445
2980.271 5.485 5.525 5.645 5.885 6.145 6.345 6.405 6.705 7.015 7.045
2999.561 6.965 6.845 6.965 7.205 7.345 7.415 7.585 7.785 7.905 8.245
3018.850 8.595 8.795 9.065 9.205 9.385 9.735 10.185 10.765 11.305 11.725
3038.140 12.045 12.025 11.525 11.065 10.515 9.695 8.875 8.085 7.665 7.595
3057.430 7.625 7.835 8.065 8.255 8.435 8.545 8.615 8.455 8.095 7.685
3076.720 7.175 6.505 5.745 5.105 4.565 4.185 3.805 3.655 3.565 3.255
3096.009 3.015 2.935 2.835 2.535 2.225 2.015 1.785 1.535 1.415 1.3227
3115.299 1.228 1.1252 1.1779 1.0871 0.8147 0.8536 0.9594 0.8917 0.759 0.6645
3134.589 0.6839 0.7237 0.6904 0.5745 0.5593 0.681 0.6974 0.5658 0.45204 0.5337
3153.879 0.5606 0.5197 0.5301 0.5752 0.5009 0.2901 0.367781 0.5107 0.45608 0.35523
3173.169 0.256 0.374091 0.373559 0.367149 0.41716 0.2837 0.3382 0.43825 0.43975 0.42481
3192.458 0.3532 0.256 0.3358 0.39963 0.2751 0.175 0.224 0.2787 0.249 0.171
3211.748 0.111 0.11 0.139 0.134 0.159 0.185 0.185 0.177 0.187 0.25
3231.038 0.16 0.122 0.136 0.112 0.222 0.197 0.08 0.101 0.129 0.182
3250.328 0.19 0.138 0.142 0.075 0 0.06 0.136 0.054 0.11 0.217
3269.617 0.146 0.143 0.085 0.037 0.09 0.013 0.166 0.41341 0.40382 0.3061
3288.907 0.2678 0.281 0.255 0.196 0.201 0.143 0.058 0.088 0.219 0.374943
3308.197 0.37593 0.3368 0.257 0.2867 0.3263 0.202 0.214 0.3329 0.3443 0.251
3327.487 0.218 0.245 0.3174 0.3323 0.3368 0.2815 0.257 0.3155 0.3253 0.2894
3346.777 0.2779 0.321 0.272 0.3342 0.4821 0.4987 0.2916 0.2807 0.38922 0.4814
3366.066 0.4964 0.43215 0.373524 0.3086 0.3437 0.3388 0.3281 0.253 0.3517 0.35786
3385.356 0.187 0.141 0.2764 0.3138 0.181 0.257 0.3016 0.231 0.2858 0.26
3404.646 0.178 0.133 0.14 0.25 0.37642 0.4799 0.5156 0.38028 0.38382 0.38551
3423.936 0.186 0.197 0.3229 0.36207 0.4116 0.46476 0.4699 0.38446 0.3537 0.3009
3443.225 0.216 0.161 0.194 0.3444 0.44865 0.45877 0.3405 0.241 0.264 0.39139
3462.515 0.38389 0.24 0.237 0.2689 0.14 0.2933 0.5481 0.514 0.3535 0.217
3481.805 0.3471 0.40256 0.2961 0.46052 0.5438 0.38157 0.244 0.248 0.227 0.3097
3501.095 0.38487 0.3425 0.3457 0.253 0.281 0.3234 0.41138 0.4936 0.40361 0.4621
3520.385 0.5165 0.45941 0.3384 0.2749 0.2788 0.2988 0.3201 0.5049 0.5237 0.45524
3539.674 0.4964 0.4909 0.4862 0.466 0.374776 0.199 0.213 0.226 0.3345 0.5226
3558.964 0.5206 0.40819 0.3276 0.39514 0.5062 0.43221 0.2814 0.218 0.22 0.3285
3578.254 0.3288 0.3027 0.4163 0.2898 0.232 0.3538 0.3181 0.2819 0.2819 0.2903
3597.544 0.38323 0.369467 0.255 0.2796 0.373093 0.40636 0.495 0.4906 0.41306 0.39068
3616.833 0.306 0.3033 0.2982 0.2842 0.39693 0.2882 0.162 0.3111 0.3198 0.3089
3636.123 0.3534 0.3161 0.35534 0.486 0.44671 0.37131 0.41842 0.372175 0.3923 0.42669
3655.413 0.4825 0.46318 0.3044 0.238 0.2985 0.319 0.35649 0.28 0.2716 0.3283
3674.703 0.2729 0.3324 0.2782 0.2696 0.40655 0.4876 0.41806 0.3523 0.38408 0.5043
3693.993 0.6659 0.5555 0.349 0.3373 0.41091 0.5101 0.6192 0.5808 0.5354 0.7067
3713.282 0.7701 0.5504 0.5971 0.7476 0.6142 0.5284 0.5638 0.44787 0.2988 0.35639
3732.572 0.42528 0.559 0.5355 0.4958 0.5932 0.5678 0.40211 0.3253 0.45311 0.5559
3751.862 0.6099 0.6217 0.5794 0.5754 0.5185 0.62 0.748 0.5915 0.44599 0.43116
3771.152 0.43664 0.3343 0.4956 0.613 0.44377 0.5245 0.5439 0.456 0.36058 0.38072
3790.441 0.5976 0.6116 0.5335 0.5103 0.5424 0.5592 0.5015 0.4933 0.4701 0.6139
3809.731 0.5981 0.42731 0.4389 0.5337 0.6413 0.6501 0.6476 0.5814 0.6343 0.7992
3829.021 0.6651 0.5819 0.6524 0.6453 0.5792 0.42396 0.40846 0.4613 0.5703 0.7282
3848.311 0.7963 0.7656 0.6205 0.6503 0.7176 0.5933 0.5977 0.6754 0.7876 0.7697
3867.601 0.5682 0.6463 0.7482 0.7611 0.8446 0.8067 0.752 0.6887 0.6979 0.8547
3886.890 0.818 0.8882 0.9087 0.8432 0.9453 0.9886 0.9405 0.7229 0.7851 1.102
3906.180 1.024 0.9257 1.0055 0.8147 0.7966 0.9538 1.0735 1.2823 1.1446 0.9769
3925.470 1.1044 1.0927 0.875 0.8326 1.0673 1.1488 1.2187 1.2628 1.1204 1.1146
3944.760 1.2586 1.1628 1.1441 1.2929 1.395 1.405 1.2384 1.1058 1.1618 1.2835
3964.049 1.3236 1.1599 0.9775 0.9969 1.2184 1.425 1.375 1.3587 1.515 1.695
3983.339 1.745 1.625 1.635 1.715 1.665 1.775 1.755 1.615 1.785 1.955
##END=
