##TITLE=2,5-Dimethylphenyl isothiocyanate
##JCAMP-DX=4.24
##DATA TYPE=INFRARED SPECTRUM
##ORIGIN=EPA-IR VAPOR PHASE LIBRARY
##OWNER=SRD/NIST
Collection (C) 2018 copyright by the U.S. Secretary of Commerce
on behalf of the United States of America. All rights reserved.
##CAS REGISTRY NO=19241-15-7
##MOLFORM=C 9 H 9 N S
##$NIST SOURCE=MSDC-IR
##STATE=gas
##XUNITS=1/CM
##YUNITS=ABSORBANCE
##XFACTOR=1.
##YFACTOR=0.001
##DELTAX=1.92898
##FIRSTX=549.8
##LASTX=4000.7
##FIRSTY=13.855
##MAXX=4000.7
##MINX=549.759
##MAXY=0.393135
##MINY=0
##NPOINTS=1790
##XYDATA=(X++(Y..Y))
549.759 13.855 14.325 14.955 15.105 15.335 16.045 16.565 17.045 17.215 16.525
569.049 15.445 14.215 13.125 12.255 10.975 9.745 8.925 7.875 6.935 6.275
588.339 5.875 5.445 5.075 4.815 4.695 4.865 5.105 5.225 5.375 5.595
607.628 6.075 6.505 6.695 6.855 6.605 6.375 5.995 5.315 4.495 3.895
626.918 3.335 2.915 2.595 2.125 1.765 1.755 1.895 1.755 1.735 1.705
646.208 1.825 2.205 2.365 2.325 2.305 2.415 2.565 2.565 2.685 2.905
665.498 3.315 3.795 4.325 5.135 6.125 7.445 9.045 10.845 12.435 13.485
684.787 13.865 13.515 12.975 11.975 9.915 7.175 4.815 3.335 2.495 2.085
704.077 1.885 1.665 1.4925 1.4402 1.5318 1.5599 1.3836 1.5493 1.925 1.925
723.367 1.985 2.205 2.535 3.005 3.405 3.785 4.005 4.145 4.135 4.155
742.657 4.235 4.095 4.025 3.935 3.635 3.615 3.685 3.685 3.635 3.275
761.947 2.825 2.595 2.525 2.455 2.535 2.675 2.745 2.675 2.855 3.205
781.236 3.565 4.065 4.665 5.815 7.525 9.725 12.325 15.455 18.805 21.865
800.526 25.025 29.015 34.095 38.165 36.875 32.575 31.145 31.655 32.155 32.825
819.816 33.655 34.765 36.095 36.845 36.755 35.725 33.785 30.935 27.025 22.495
839.106 17.855 13.555 10.205 7.905 6.465 5.575 5.215 5.215 5.535 5.935
858.395 6.405 7.025 7.645 8.445 9.255 10.275 11.385 11.105 9.625 8.635
877.685 7.925 7.175 6.725 6.195 5.625 5.105 4.825 4.735 4.715 4.715
896.975 4.595 4.505 4.395 4.165 3.995 3.925 3.835 3.835 3.755 3.765
916.265 3.705 3.615 3.635 3.665 3.925 4.185 4.235 4.375 4.615 4.965
935.555 5.405 5.945 6.515 7.235 8.455 10.025 11.655 13.375 15.065 16.375
954.844 17.275 17.515 17.295 16.565 15.295 13.605 11.815 10.145 8.415 7.385
974.134 6.645 5.935 5.535 5.325 5.465 5.745 6.025 6.325 6.685 7.175
993.424 7.555 7.775 8.105 8.155 7.995 7.875 7.635 7.375 6.975 6.445
1012.714 5.955 5.405 5.055 4.635 3.925 3.435 3.145 3.065 2.845 2.595
1032.003 2.645 2.625 2.895 2.965 2.695 2.815 3.025 3.055 2.925 3.015
1051.293 3.135 3.085 3.015 2.665 2.455 2.485 2.105 2.015 2.305 2.035
1070.583 1.845 2.055 2.025 1.795 1.6036 1.695 1.825 1.645 1.2616 1.1539
1089.873 1.527 1.775 1.4576 1.5538 1.805 1.5984 1.5813 1.695 1.795 1.825
1109.163 1.845 2.035 2.325 2.755 3.565 4.045 4.225 4.585 4.845 5.155
1128.452 5.255 5.115 5.095 4.715 4.495 4.555 4.495 4.465 4.585 4.625
1147.742 4.355 4.225 4.475 4.465 4.125 3.675 3.235 2.995 2.885 2.525
1167.032 2.235 2.025 1.765 1.805 1.3865 0.9931 1.0454 0.9895 0.9914 0.9944
1186.322 1.1454 1.2985 1.2307 1.4247 1.4786 1.3833 1.633 1.6306 1.685 2.115
1205.611 2.295 2.385 2.415 2.325 2.525 2.445 2.005 1.995 1.915 1.795
1224.901 1.755 1.2823 1.1987 1.4881 1.3226 1.1647 1.3849 1.695 1.885 2.145
1244.191 2.225 2.255 2.515 2.755 3.055 3.315 3.355 3.665 4.275 4.885
1263.481 5.495 6.085 6.655 7.065 7.285 7.415 7.345 7.005 6.485 6.005
1282.771 5.645 5.315 5.195 5.005 4.755 4.685 4.575 4.335 3.955 3.575
1302.060 3.245 3.005 2.845 2.675 2.545 2.425 2.325 2.235 2.195 2.225
1321.350 2.265 2.235 2.195 2.205 2.235 2.235 2.245 2.325 2.395 2.425
1340.640 2.425 2.405 2.445 2.445 2.415 2.455 2.555 2.615 2.565 2.625
1359.930 2.665 2.635 2.675 2.795 2.945 3.115 3.325 3.605 3.935 4.395
1379.219 4.905 5.345 5.685 5.925 6.105 6.315 6.525 6.575 6.635 6.865
1398.509 7.355 8.095 8.955 9.835 10.735 11.535 12.115 12.465 12.605 12.535
1417.799 12.295 11.945 11.485 11.105 10.845 10.635 10.455 10.315 10.265 10.195
1437.089 10.165 10.195 10.205 10.285 10.455 10.605 10.785 10.955 11.085 11.165
1456.378 11.135 11.025 10.885 10.725 10.525 10.375 10.265 10.105 9.905 9.765
1475.668 9.735 9.875 10.185 10.805 11.805 13.285 15.215 17.805 21.245 25.315
1494.958 29.725 33.955 37.345 39.715 41.035 41.215 40.065 37.265 33.145 28.555
1514.248 24.255 20.645 17.755 15.425 13.505 12.125 11.135 10.415 9.975 9.745
1533.538 9.645 9.595 9.665 9.715 9.695 9.785 9.965 10.225 10.615 11.115
1552.827 11.695 12.295 13.035 13.935 14.845 15.845 16.945 18.015 19.125 20.195
1572.117 21.105 21.785 22.105 22.175 21.855 21.135 20.165 19.065 17.905 16.785
1591.407 16.105 15.835 16.115 17.095 18.725 20.945 23.495 26.115 28.495 30.255
1610.697 31.135 30.955 29.755 27.495 24.375 20.905 17.315 13.765 10.645 8.175
1629.986 6.455 5.375 4.755 4.335 4.055 3.875 3.665 3.535 3.445 3.315
1649.276 3.195 3.165 3.075 2.955 2.905 2.845 2.745 2.645 2.575 2.535
1668.566 2.565 2.575 2.605 2.665 2.595 2.525 2.445 2.415 2.405 2.285
1687.856 2.165 2.125 2.105 2.105 2.135 2.125 2.115 2.095 2.085 2.105
1707.146 2.035 2.035 2.085 2.075 2.095 2.235 2.315 2.315 2.405 2.565
1726.435 2.695 2.875 3.095 3.255 3.425 3.565 3.725 3.855 3.915 3.965
1745.725 3.965 3.825 3.655 3.565 3.395 3.165 3.055 2.915 2.795 2.805
1765.015 2.755 2.655 2.675 2.775 2.905 2.935 2.945 3.025 3.065 3.075
1784.305 3.155 3.245 3.225 3.235 3.255 3.255 3.245 3.305 3.405 3.435
1803.594 3.445 3.485 3.555 3.645 3.715 3.785 3.825 3.845 3.885 3.855
1822.884 3.835 3.825 3.815 3.835 3.875 3.835 3.785 3.805 3.785 3.745
1842.174 3.695 3.675 3.585 3.435 3.425 3.475 3.445 3.375 3.245 3.265
1861.464 3.305 3.325 3.435 3.605 3.805 3.985 4.255 4.575 4.915 5.285
1880.754 5.685 6.045 6.315 6.515 6.605 6.595 6.605 6.555 6.465 6.405
1900.043 6.415 6.525 6.735 7.025 7.365 7.705 8.065 8.495 9.015 9.495
1919.333 9.995 10.595 11.325 12.065 12.825 13.745 14.735 15.785 16.955 18.175
1938.623 19.535 21.055 22.575 24.135 25.815 27.535 29.275 31.015 32.785 34.625
1957.913 36.505 38.365 40.295 42.355 44.405 46.605 48.965 51.335 53.815 56.505
1977.202 59.335 62.275 65.345 68.565 71.925 75.365 78.995 82.855 86.815 90.975
1996.492 95.295 100.005 105.125 110.455 116.145 122.255 128.745 135.655 142.825 150.305
2015.782 158.155 166.295 174.685 183.415 192.535 201.935 211.755 221.965 232.515 243.555
2035.072 255.145 267.185 279.765 292.965 306.555 320.375 334.455 348.565 362.075 374.225
2054.362 384.135 390.615 393.135 392.185 388.325 382.245 374.715 366.515 358.305 350.435
2073.651 343.035 336.335 330.475 325.435 321.205 317.575 314.435 311.755 309.365 306.895
2092.941 303.895 300.175 295.555 289.565 282.185 273.585 263.725 252.835 241.395 229.645
2112.231 217.725 206.035 194.785 184.015 173.875 164.495 156.005 148.335 141.385 135.295
2131.521 130.145 125.855 122.415 119.745 117.755 116.245 114.985 113.805 112.505 110.935
2150.810 108.885 106.245 102.865 98.625 93.825 88.445 82.515 76.405 70.115 63.905
2170.100 57.945 52.175 46.725 41.825 37.345 33.345 29.925 26.905 24.225 21.935
2189.390 20.075 18.525 17.275 16.295 15.445 14.735 14.185 13.705 13.325 12.965
2208.680 12.645 12.385 12.165 11.965 11.715 11.485 11.325 11.075 10.735 10.445
2227.970 10.235 10.055 9.775 9.485 9.135 8.795 8.635 8.405 8.245 8.095
2247.259 7.845 7.615 7.465 7.345 7.205 7.095 6.925 6.785 6.695 6.595
2266.549 6.465 6.295 6.105 5.985 5.875 5.655 5.505 5.355 5.145 4.985
2285.839 4.845 4.625 4.415 4.275 4.015 3.765 3.675 3.575 3.435 3.305
2305.129 3.245 3.275 3.275 3.255 3.285 3.315 3.335 3.425 3.415 3.325
2324.418 3.295 3.175 2.995 2.895 2.825 2.735 2.675 2.645 2.565 2.575
2343.708 2.605 2.545 2.515 2.555 2.595 2.635 2.675 2.715 2.745 2.815
2362.998 2.885 2.845 2.885 2.975 3.045 3.125 3.225 3.275 3.335 3.365
2382.288 3.345 3.375 3.385 3.455 3.555 3.565 3.475 3.485 3.565 3.525
2401.578 3.505 3.525 3.565 3.605 3.615 3.735 3.855 3.915 3.955 3.945
2420.867 3.965 3.885 3.825 3.815 3.735 3.625 3.525 3.435 3.365 3.345
2440.157 3.295 3.235 3.215 3.195 3.185 3.235 3.275 3.275 3.235 3.215
2459.447 3.185 3.195 3.135 3.105 3.195 3.195 3.155 3.125 3.165 3.165
2478.737 3.105 3.135 3.165 3.205 3.195 3.085 3.105 3.175 3.275 3.405
2498.026 3.475 3.495 3.545 3.595 3.695 3.775 3.805 3.835 3.905 3.985
2517.316 4.015 4.105 4.135 4.225 4.365 4.355 4.335 4.355 4.405 4.475
2536.606 4.445 4.415 4.445 4.455 4.435 4.435 4.415 4.325 4.325 4.365
2555.896 4.415 4.425 4.395 4.525 4.635 4.525 4.515 4.585 4.585 4.675
2575.186 4.775 4.885 4.945 4.975 5.065 5.165 5.225 5.295 5.305 5.215
2594.475 5.195 5.165 5.065 4.965 4.815 4.675 4.525 4.335 4.145 3.975
2613.765 3.775 3.675 3.635 3.465 3.325 3.285 3.165 2.995 2.845 2.745
2633.055 2.635 2.455 2.275 2.275 2.305 2.145 1.995 1.905 1.865 1.815
2652.345 1.735 1.6239 1.5057 1.4966 1.5392 1.4929 1.43 1.4692 1.4235 1.4742
2671.634 1.4834 1.3657 1.3841 1.3856 1.3864 1.3722 1.3507 1.4338 1.4487 1.3674
2690.924 1.3892 1.4347 1.4621 1.5256 1.5079 1.503 1.5439 1.5408 1.5294 1.5606
2710.214 1.665 1.655 1.645 1.735 1.735 1.775 1.955 2.085 2.065 2.145
2729.504 2.315 2.455 2.595 2.695 2.875 3.095 3.175 3.255 3.455 3.545
2748.794 3.455 3.435 3.385 3.265 3.115 2.975 2.895 2.775 2.655 2.625
2768.083 2.605 2.495 2.375 2.385 2.475 2.495 2.415 2.315 2.295 2.355
2787.373 2.415 2.355 2.295 2.245 2.205 2.165 2.145 2.255 2.235 2.095
2806.663 2.085 2.245 2.315 2.225 2.275 2.395 2.385 2.415 2.505 2.635
2825.953 2.795 2.905 2.975 3.115 3.255 3.335 3.555 3.805 4.005 4.325
2845.242 4.655 4.855 5.205 5.685 6.205 6.725 7.165 7.915 8.725 9.325
2864.532 10.075 10.995 11.925 12.775 13.465 13.845 14.095 14.365 14.415 14.365
2883.822 14.225 13.875 13.515 13.215 12.985 12.795 12.745 12.745 12.535 12.425
2903.112 12.455 12.545 12.715 12.915 13.235 13.765 14.575 15.565 16.785 18.275
2922.401 20.045 22.195 24.525 26.795 28.835 30.165 30.885 31.175 30.675 29.595
2941.691 27.915 25.745 23.545 21.305 19.375 17.865 16.595 15.585 14.855 14.395
2960.981 14.045 13.695 13.285 12.875 12.405 12.095 12.025 11.975 12.095 12.355
2980.271 12.745 13.215 13.725 14.115 14.275 14.425 14.475 14.345 14.055 13.715
2999.561 13.525 13.395 13.195 13.025 13.125 13.255 13.475 13.685 13.835 14.125
3018.850 14.425 14.975 15.635 16.105 16.425 16.735 16.905 17.125 17.415 17.515
3038.140 17.535 17.425 17.345 17.445 17.495 17.785 18.265 18.585 18.575 18.325
3057.430 17.935 17.395 16.645 15.555 14.395 13.345 12.205 11.205 10.385 9.565
3076.720 8.695 7.885 7.295 6.595 5.965 5.545 5.055 4.585 4.255 3.995
3096.009 3.725 3.405 3.145 3.105 3.115 2.985 2.895 2.835 2.695 2.625
3115.299 2.435 2.295 2.395 2.315 1.985 1.815 1.785 1.6002 1.513 1.4758
3134.589 1.345 1.2444 1.149 1.1857 1.0291 0.7753 0.7479 0.8575 0.8576 0.7613
3153.879 0.8037 0.7747 0.71428 0.7696 0.8172 0.7558 0.652143 0.6288 0.6272 0.501
3173.169 0.352 0.397 0.486 0.441 0.456 0.473 0.457 0.536 0.5623 0.522
3192.458 0.466 0.341 0.308 0.3 0.305 0.298 0.226 0.258 0.386 0.376
3211.748 0.227 0.167 0.317 0.406 0.387 0.446 0.416 0.406 0.365 0.397
3231.038 0.367 0.325 0.385 0.351 0.334 0.357 0.393 0.264 0.292 0.341
3250.328 0.386 0.399 0.415 0.315 0.255 0.315 0.277 0.429 0.306 0.119
3269.617 0.231 0.372 0.399 0.446 0.427 0.416 0.284 0.224 0.386 0.414
3288.907 0.356 0.373 0.452 0.484 0.434 0.275 0.183 0.103 0.158 0.286
3308.197 0.292 0.351 0.348 0.362 0.358 0.129 0 0.123 0.386 0.44
3327.487 0.254 0.282 0.276 0.182 0.298 0.448 0.414 0.27 0.165 0.181
3346.777 0.286 0.398 0.357 0.334 0.431 0.438 0.435 0.337 0.319 0.364
3366.066 0.219 0.232 0.304 0.275 0.26 0.315 0.281 0.205 0.272 0.343
3385.356 0.325 0.241 0.371 0.453 0.344 0.232 0.234 0.356 0.37 0.355
3404.646 0.478 0.5477 0.459 0.522 0.6268 0.525 0.427 0.291 0.248 0.305
3423.936 0.214 0.236 0.368 0.423 0.388 0.314 0.235 0.125 0.116 0.22
3443.225 0.384 0.357 0.201 0.158 0.261 0.407 0.476 0.453 0.417 0.366
3462.515 0.225 0.141 0.187 0.339 0.337 0.407 0.6031 0.53 0.478 0.403
3481.805 0.276 0.279 0.192 0.177 0.282 0.282 0.411 0.385 0.288 0.295
3501.095 0.235 0.304 0.39 0.369 0.365 0.397 0.418 0.442 0.498 0.503
3520.385 0.422 0.349 0.277 0.329 0.376 0.369 0.467 0.491 0.405 0.311
3539.674 0.365 0.474 0.374 0.219 0.281 0.427 0.378 0.373 0.425 0.376
3558.964 0.252 0.227 0.314 0.398 0.335 0.282 0.275 0.198 0.347 0.414
3578.254 0.451 0.485 0.3 0.248 0.342 0.34 0.407 0.4 0.256 0.356
3597.544 0.541 0.492 0.353 0.34 0.282 0.253 0.264 0.202 0.218 0.358
3616.833 0.5 0.519 0.491 0.444 0.417 0.447 0.517 0.511 0.319 0.328
3636.123 0.397 0.406 0.391 0.355 0.272 0.274 0.405 0.483 0.532 0.412
3655.413 0.363 0.431 0.421 0.396 0.368 0.429 0.535 0.457 0.417 0.436
3674.703 0.488 0.512 0.481 0.5823 0.525 0.507 0.63696 0.6349 0.526 0.431
3693.993 0.413 0.481 0.47 0.394 0.489 0.6149 0.6167 0.533 0.645218 0.7527
3713.282 0.6937 0.7753 0.8589 0.8008 0.70933 0.5709 0.514 0.647242 0.68742 0.6098
3732.572 0.66595 0.7847 0.7503 0.6408 0.587 0.6241 0.472 0.492 0.66801 0.6176
3751.862 0.71791 0.73383 0.6178 0.5876 0.6339 0.70616 0.633 0.645847 0.73967 0.72894
3771.152 0.7748 0.69936 0.6108 0.6048 0.653685 0.6961 0.69847 0.70685 0.594 0.533
3790.441 0.68497 0.8291 0.7952 0.71773 0.74316 0.74359 0.72355 0.645159 0.71201 0.8036
3809.731 0.8044 0.8041 0.70777 0.63793 0.647564 0.5618 0.483 0.498 0.5633 0.68481
3829.021 0.72285 0.7833 0.7981 0.69784 0.67479 0.69038 0.69616 0.7898 0.8493 0.8341
3848.311 0.8368 0.7594 0.72521 0.8772 0.8797 0.8325 0.67463 0.64325 0.7573 0.68318
3867.601 0.7539 0.8527 0.7813 0.8148 0.7504 0.6115 0.67258 0.74012 0.67335 0.5618
3886.890 0.7652 0.916 0.7985 0.8191 0.8598 0.7724 0.7662 0.9036 0.9718 0.9582
3906.180 1.0402 1.0587 0.989 0.9152 0.9232 1.054 1.0427 1.0818 1.0225 1.009
3925.470 1.0347 0.8985 0.8973 1.1025 1.1821 1.0728 0.9987 1.1004 1.3001 1.1682
3944.760 1.1124 1.1414 1.0742 0.9687 1.0604 1.1695 1.1414 1.3249 1.259 1.1908
3964.049 1.3561 1.3043 1.2298 1.2192 1.1176 1.1562 1.1872 1.142 1.186 1.2704
3983.339 1.4295 1.3765 1.2723 1.4931 1.765 1.815 1.685 1.536 1.5134 1.705
##END=
