##TITLE=3-Chloro-4-methylphenyl isothiocyanate
##JCAMP-DX=4.24
##DATA TYPE=INFRARED SPECTRUM
##ORIGIN=EPA-IR VAPOR PHASE LIBRARY
##OWNER=SRD/NIST
Collection (C) 2018 copyright by the U.S. Secretary of Commerce
on behalf of the United States of America. All rights reserved.
##CAS REGISTRY NO=19241-37-3
##MOLFORM=C 8 H 6 Cl N S
##$NIST SOURCE=MSDC-IR
##STATE=gas
##XUNITS=1/CM
##YUNITS=ABSORBANCE
##XFACTOR=1.
##YFACTOR=0.001
##DELTAX=1.92898
##FIRSTX=549.8
##LASTX=4000.7
##FIRSTY=30.834
##MAXX=4000.7
##MINX=549.759
##MAXY=0.884404
##MINY=0
##NPOINTS=1790
##XYDATA=(X++(Y..Y))
549.759 30.834 29.804 28.574 26.794 24.884 22.814 21.464 20.564 19.524 18.694
569.049 17.304 15.804 14.374 13.294 12.414 11.914 11.474 10.594 10.244 10.304
588.339 10.094 9.744 9.604 9.664 9.724 9.964 10.344 10.654 11.254 11.804
607.628 11.884 11.964 11.794 10.874 9.924 9.094 7.804 6.874 6.304 5.784
626.918 5.584 5.414 5.184 5.144 5.274 5.394 5.364 5.144 4.954 5.044
646.208 5.034 4.884 4.864 4.924 4.884 4.704 4.224 3.674 3.284 2.824
665.498 2.544 2.484 2.594 2.814 3.274 3.884 4.684 5.854 7.234 8.614
684.787 10.324 12.234 14.174 16.564 18.854 21.474 25.214 29.464 33.594 37.224
704.077 40.354 42.544 42.834 40.944 37.854 34.354 29.994 24.504 18.604 13.914
723.367 10.904 8.754 7.334 6.454 6.024 5.594 4.904 4.504 4.204 3.874
742.657 3.514 3.344 3.254 3.084 3.184 3.374 3.384 3.594 4.314 5.104
761.947 5.834 6.484 6.784 7.144 7.394 7.384 7.254 7.084 6.834 6.774
781.236 7.054 7.494 8.034 8.894 10.184 11.994 14.914 18.984 24.464 31.904
800.526 41.704 53.894 69.044 87.754 108.674 128.034 138.764 139.774 136.274 128.064
819.816 113.664 94.914 75.404 58.304 45.174 36.474 30.924 26.684 23.084 20.234
839.106 17.674 15.004 12.854 11.364 10.454 10.274 10.814 12.184 14.074 16.504
858.395 19.884 23.764 27.474 31.514 35.514 38.724 41.344 41.814 38.734 33.944
877.685 29.484 25.394 21.504 17.584 13.784 10.954 8.914 7.354 6.434 6.054
896.975 6.064 6.284 6.514 6.944 7.644 8.304 8.594 8.594 8.534 8.424
916.265 8.044 7.524 7.184 6.894 6.694 6.524 6.464 6.574 6.654 6.834
935.555 7.084 7.414 7.994 8.634 9.204 9.774 10.554 11.624 13.054 14.804
954.844 17.034 19.614 22.194 24.764 27.094 28.734 29.744 30.084 29.644 28.584
974.134 26.994 24.994 22.844 20.814 19.264 17.994 16.844 16.134 15.584 15.354
993.424 15.264 14.984 14.834 14.614 14.224 13.744 12.974 12.024 11.184 10.004
1012.714 8.754 8.054 7.294 6.554 6.144 6.134 6.254 6.254 6.544 7.254
1032.003 8.634 10.714 13.854 18.234 23.194 28.854 35.724 42.694 48.234 51.054
1051.293 51.834 52.114 50.674 45.464 37.184 29.184 22.824 17.624 13.584 10.714
1070.583 8.544 7.084 6.164 5.544 4.994 4.344 3.664 3.304 2.974 2.384
1089.873 2.274 2.104 2.074 2.164 2.064 1.964 1.834 1.874 1.854 1.784
1109.163 1.794 1.345 1.3188 2.004 2.554 2.754 2.534 2.444 2.724 2.944
1128.452 3.124 3.214 3.504 3.824 3.654 3.734 4.304 4.584 4.414 4.194
1147.742 4.214 4.334 4.074 3.504 2.914 2.724 2.534 2.514 2.444 2.344
1167.032 2.294 2.104 2.364 2.324 2.164 2.384 2.514 2.654 2.944 2.974
1186.322 3.074 3.624 4.144 4.914 5.894 6.994 7.984 8.424 8.394 8.334
1205.611 8.064 7.224 6.034 4.534 3.634 3.424 3.264 3.154 3.184 3.374
1224.901 4.114 4.894 5.204 6.154 7.074 7.564 8.744 10.224 11.234 12.034
1244.191 12.514 12.744 12.744 12.394 11.954 11.454 11.104 11.014 11.074 11.154
1263.481 11.394 12.104 12.784 13.234 14.044 15.224 16.484 17.384 17.764 17.464
1282.771 16.804 15.784 14.144 12.274 10.174 8.134 6.754 5.864 5.124 4.554
1302.060 4.254 4.034 3.854 3.844 3.814 3.764 3.704 3.554 3.424 3.344
1321.350 3.254 3.114 2.984 2.954 2.934 2.834 2.774 2.724 2.714 2.724
1340.640 2.734 2.754 2.784 2.854 2.894 2.924 3.114 3.354 3.574 3.874
1359.930 4.294 4.754 5.294 5.904 6.544 7.294 8.074 8.734 9.324 9.984
1379.219 10.804 11.734 12.574 13.244 14.044 15.014 15.824 16.144 15.844 15.204
1398.509 14.644 14.074 13.094 11.694 10.294 9.224 8.544 8.174 8.014 8.024
1417.799 8.294 8.814 9.564 10.574 12.074 13.944 16.224 18.944 21.804 24.594
1437.089 26.924 28.544 29.324 29.274 28.554 27.244 25.514 23.884 22.704 22.104
1456.378 22.074 22.654 23.694 25.034 26.784 28.954 31.684 35.474 40.764 48.414
1475.668 59.654 75.484 96.804 123.374 152.014 176.614 190.754 192.074 182.844 165.334
1494.958 139.324 106.844 76.264 55.194 43.614 37.634 34.184 31.804 29.884 27.944
1514.248 26.064 24.224 22.344 20.494 18.874 17.754 17.034 16.724 16.684 16.884
1533.538 17.404 18.154 19.174 20.554 22.354 24.524 27.114 30.164 33.604 37.374
1552.827 41.214 44.724 47.734 50.084 51.494 51.874 51.094 49.364 46.894 43.864
1572.117 40.744 37.924 35.534 33.874 33.194 33.714 35.744 39.544 45.614 54.274
1591.407 65.534 79.304 94.694 109.454 120.574 125.424 123.044 114.284 100.654 83.354
1610.697 64.444 47.574 35.394 27.714 23.204 20.234 17.884 16.004 14.284 12.794
1629.986 11.364 10.034 8.954 8.154 7.444 6.714 6.184 5.824 5.444 5.094
1649.276 4.884 4.744 4.644 4.524 4.414 4.444 4.454 4.414 4.524 4.564
1668.566 4.534 4.614 4.754 4.864 4.914 4.984 5.024 4.954 4.854 4.894
1687.856 4.894 4.704 4.484 4.284 4.124 4.154 4.134 4.014 4.014 4.074
1707.146 4.204 4.304 4.394 4.484 4.614 4.754 4.954 5.274 5.554 5.844
1726.435 6.164 6.434 6.684 6.894 7.064 7.204 7.254 7.244 7.184 7.134
1745.725 7.004 6.724 6.394 6.124 5.834 5.564 5.354 5.194 5.154 5.184
1765.015 5.264 5.374 5.514 5.654 5.854 6.084 6.204 6.384 6.654 6.804
1784.305 6.914 6.944 6.914 6.934 6.864 6.744 6.654 6.554 6.454 6.344
1803.594 6.284 6.254 6.174 6.094 6.064 5.974 5.914 5.854 5.764 5.624
1822.884 5.494 5.444 5.374 5.274 5.284 5.354 5.384 5.474 5.584 5.634
1842.174 5.674 5.834 6.034 6.194 6.324 6.494 6.724 6.884 7.084 7.374
1861.464 7.654 8.024 8.454 8.834 9.374 10.024 10.704 11.354 11.944 12.504
1880.754 13.024 13.564 14.184 14.894 15.634 16.344 17.074 17.984 19.044 20.294
1900.043 21.624 23.024 24.634 26.294 28.044 29.964 32.074 34.424 37.034 39.774
1919.333 42.754 45.964 49.334 52.774 56.274 59.824 63.364 66.904 70.494 74.074
1938.623 77.584 81.074 84.804 88.804 93.004 97.494 102.294 107.594 113.324 119.304
1957.913 125.554 132.144 138.974 145.904 153.044 160.514 168.174 176.174 184.724 193.614
1977.202 202.964 213.254 224.424 236.604 249.854 264.364 280.444 297.794 316.264 335.654
1996.492 355.274 374.914 394.504 413.604 431.814 448.714 464.594 479.874 494.404 508.374
2015.782 522.514 537.374 553.364 571.174 591.694 615.594 643.634 676.454 713.794 754.774
2035.072 797.444 838.174 869.984 884.404 877.224 850.134 805.164 746.244 679.994 612.884
2054.362 549.404 492.334 443.624 403.934 373.194 350.694 336.144 329.284 329.334 335.764
2073.651 347.914 364.764 385.434 408.914 434.254 460.644 486.994 511.894 533.324 548.914
2092.941 556.904 556.334 546.704 528.444 502.844 471.704 437.194 401.144 365.324 331.174
2112.231 299.594 271.204 246.424 225.344 207.804 193.634 182.404 173.684 167.054 162.084
2131.521 158.314 155.324 152.814 150.604 148.494 146.064 143.124 139.714 135.654 130.884
2150.810 125.294 119.084 112.454 105.454 98.404 91.464 84.794 78.544 72.824 67.574
2170.100 62.694 58.364 54.534 51.184 48.344 45.914 43.794 42.104 40.794 39.624
2189.390 38.744 38.074 37.504 37.154 36.894 36.624 36.504 36.464 36.444 36.484
2208.680 36.414 36.124 35.594 34.834 33.814 32.534 31.024 29.364 27.814 26.354
2227.970 25.024 23.834 22.824 22.114 21.484 20.984 20.574 20.134 19.764 19.364
2247.259 18.834 18.184 17.464 16.664 15.714 14.634 13.604 12.614 11.624 10.774
2266.549 10.024 9.404 8.834 8.274 7.804 7.384 6.984 6.624 6.404 6.184
2285.839 5.914 5.644 5.334 5.054 4.824 4.634 4.484 4.314 4.174 4.004
2305.129 3.804 3.684 3.624 3.514 3.454 3.434 3.344 3.274 3.314 3.364
2324.418 3.314 3.244 3.204 3.204 3.214 3.164 3.124 3.074 2.994 2.924
2343.708 2.904 2.924 2.854 2.804 2.774 2.814 2.854 2.894 3.024 3.174
2362.998 3.304 3.334 3.384 3.474 3.494 3.614 3.734 3.864 4.054 4.204
2382.288 4.404 4.654 4.914 5.174 5.514 5.914 6.274 6.584 6.894 7.224
2401.578 7.524 7.744 7.964 8.234 8.514 8.704 8.704 8.604 8.564 8.464
2420.867 8.254 7.924 7.564 7.254 7.004 6.874 6.754 6.614 6.534 6.514
2440.157 6.614 6.654 6.614 6.584 6.694 6.834 6.814 6.874 7.024 7.054
2459.447 7.084 7.274 7.404 7.414 7.394 7.424 7.414 7.394 7.414 7.334
2478.737 7.204 7.114 7.014 6.924 6.894 6.784 6.684 6.674 6.654 6.724
2498.026 6.804 6.904 7.044 7.214 7.434 7.484 7.514 7.664 7.734 7.714
2517.316 7.764 7.814 7.824 7.924 8.024 8.044 7.974 7.914 7.934 7.924
2536.606 7.894 7.944 7.954 8.014 8.124 8.264 8.444 8.584 8.704 8.724
2555.896 8.794 8.944 8.974 9.034 9.094 9.094 9.064 8.764 8.414 8.084
2575.186 7.674 7.264 6.774 6.244 5.814 5.354 4.934 4.604 4.404 4.264
2594.475 4.084 3.894 3.674 3.564 3.554 3.474 3.474 3.494 3.514 3.624
2613.765 3.674 3.644 3.604 3.644 3.664 3.624 3.584 3.614 3.704 3.734
2633.055 3.784 3.754 3.694 3.824 3.914 3.924 3.964 4.044 4.124 4.174
2652.345 4.244 4.354 4.524 4.634 4.674 4.714 4.954 5.204 5.284 5.414
2671.634 5.674 6.024 6.344 6.664 6.984 7.334 7.674 8.134 8.624 8.934
2690.924 9.214 9.344 9.444 9.594 9.654 9.664 9.684 9.734 9.724 9.614
2710.214 9.524 9.464 9.204 8.754 8.464 8.184 7.834 7.494 7.074 6.864
2729.504 6.714 6.504 6.344 6.214 6.214 6.204 6.094 5.974 5.864 5.754
2748.794 5.764 5.784 5.724 5.584 5.354 5.084 4.794 4.504 4.234 3.974
2768.083 3.814 3.704 3.534 3.384 3.324 3.234 3.144 3.124 3.064 2.944
2787.373 2.964 3.024 2.974 2.914 2.824 2.954 3.124 3.124 3.204 3.354
2806.663 3.524 3.524 3.484 3.634 3.744 3.774 3.794 3.884 4.034 4.014
2825.953 4.064 4.264 4.514 4.734 4.724 4.714 4.874 5.094 5.244 5.494
2845.242 5.894 6.194 6.354 6.654 7.124 7.544 7.934 8.404 8.834 9.244
2864.532 9.714 10.234 10.664 10.914 11.024 11.064 10.934 10.674 10.364 9.904
2883.822 9.354 9.004 8.744 8.474 8.364 8.274 8.224 8.254 8.384 8.524
2903.112 8.694 8.784 8.934 9.154 9.384 9.704 10.114 10.444 10.894 11.714
2922.401 12.614 13.664 15.144 17.084 19.284 21.684 24.084 25.934 26.974 27.004
2941.691 26.094 24.474 22.144 19.564 17.144 15.264 14.104 13.414 13.144 13.134
2960.981 13.204 13.334 13.654 13.914 13.884 13.894 13.994 14.054 14.104 14.214
2980.271 14.384 14.504 14.664 14.884 14.804 14.634 14.354 13.754 13.174 12.554
2999.561 11.834 11.184 10.544 9.904 9.474 9.194 9.124 9.184 9.124 9.154
3018.850 9.364 9.804 10.444 11.054 11.734 12.434 13.094 13.674 13.944 13.934
3038.140 13.834 13.474 12.974 12.384 11.564 10.974 10.454 10.094 9.834 9.564
3057.430 9.474 9.424 9.464 9.664 10.004 10.224 10.364 10.414 10.214 9.944
3076.720 9.784 9.444 8.834 8.234 7.634 7.144 6.434 5.714 5.394 5.164
3096.009 4.994 4.734 4.464 4.234 3.924 3.644 3.364 3.124 2.954 2.774
3115.299 2.434 2.164 2.044 1.914 1.734 1.468 1.3409 1.2674 1.1577 1.2722
3134.589 1.1878 1.0451 1.0548 0.8662 0.8984 1.0049 1.0279 1.0097 0.9335 0.9286
3153.879 0.8819 0.8818 0.8424 0.9255 0.9854 0.7604 0.69518 0.7914 0.7334 0.69474
3173.169 0.7087 0.63873 0.65322 0.64552 0.63155 0.5901 0.456 0.5626 0.61632 0.59777
3192.458 0.7059 0.59641 0.434 0.43 0.455 0.49 0.408 0.344 0.377 0.34
3211.748 0.28 0.251 0.339 0.38 0.236 0.178 0.225 0.258 0.338 0.424
3231.038 0.348 0.286 0.39 0.321 0.272 0.376 0.444 0.391 0.221 0.155
3250.328 0.207 0.275 0.273 0.231 0.245 0.311 0.326 0.311 0.319 0.209
3269.617 0.162 0.214 0.351 0.475 0.337 0.175 0.119 0.126 0.167 0.116
3288.907 0 0.035 0.186 0.358 0.338 0.216 0.312 0.329 0.272 0.267
3308.197 0.339 0.326 0.197 0.153 0.289 0.364 0.291 0.363 0.425 0.418
3327.487 0.407 0.393 0.356 0.338 0.379 0.297 0.339 0.498 0.498 0.372
3346.777 0.245 0.241 0.312 0.303 0.231 0.315 0.389 0.245 0.184 0.249
3366.066 0.326 0.245 0.254 0.429 0.347 0.411 0.455 0.241 0.148 0.241
3385.356 0.324 0.338 0.322 0.312 0.341 0.286 0.275 0.414 0.5686 0.62869
3404.646 0.408 0.266 0.273 0.203 0.258 0.342 0.397 0.414 0.451 0.446
3423.936 0.425 0.471 0.5277 0.514 0.477 0.334 0.265 0.382 0.333 0.348
3443.225 0.323 0.293 0.336 0.419 0.476 0.489 0.411 0.365 0.47 0.284
3462.515 0.192 0.185 0.165 0.22 0.227 0.272 0.287 0.227 0.334 0.501
3481.805 0.372 0.278 0.264 0.275 0.213 0.27 0.459 0.389 0.448 0.474
3501.095 0.406 0.473 0.383 0.259 0.194 0.265 0.457 0.483 0.423 0.418
3520.385 0.407 0.388 0.36 0.355 0.487 0.462 0.379 0.342 0.379 0.455
3539.674 0.554 0.5619 0.5155 0.5477 0.5577 0.60141 0.413 0.314 0.381 0.355
3558.964 0.251 0.19 0.168 0.181 0.265 0.26 0.389 0.434 0.359 0.285
3578.254 0.15 0.115 0.285 0.484 0.5076 0.5166 0.5905 0.414 0.274 0.361
3597.544 0.345 0.273 0.276 0.41 0.39 0.343 0.377 0.274 0.286 0.365
3616.833 0.357 0.367 0.398 0.371 0.376 0.413 0.397 0.426 0.393 0.256
3636.123 0.256 0.437 0.499 0.49 0.441 0.43 0.439 0.404 0.35 0.414
3655.413 0.443 0.355 0.405 0.474 0.463 0.479 0.5606 0.60263 0.472 0.3
3674.703 0.283 0.341 0.482 0.7067 0.66124 0.5249 0.467 0.543 0.66124 0.562
3693.993 0.5858 0.604605 0.446 0.372 0.417 0.5464 0.5908 0.453 0.453 0.5585
3713.282 0.67492 0.69167 0.67109 0.62759 0.59879 0.64473 0.62207 0.7064 0.65574 0.5739
3732.572 0.5608 0.458 0.5402 0.67945 0.7496 0.61625 0.447 0.462 0.5424 0.67316
3751.862 0.63788 0.67089 0.7147 0.64329 0.5939 0.5242 0.5284 0.69086 0.7502 0.7255
3771.152 0.6256 0.61932 0.62466 0.5566 0.60205 0.5701 0.65918 0.67422 0.5312 0.47
3790.441 0.51 0.5363 0.68745 0.8676 0.8005 0.70185 0.7936 0.7518 0.68081 0.69118
3809.731 0.7359 0.7903 0.8608 0.8605 0.70057 0.7171 0.747 0.7942 0.9103 0.859
3829.021 0.922 0.9692 0.8398 0.8067 0.9739 1.0991 1.0428 0.9115 0.7683 0.7071
3848.311 0.7555 0.9291 0.9177 0.9875 1.1307 0.9667 0.8446 0.9661 1.1167 1.2529
3867.601 1.2843 1.1972 1.3214 1.4541 1.4381 1.3177 1.2744 1.4418 1.4412 1.4684
3886.890 1.614 1.674 1.794 1.764 1.664 1.704 1.684 1.664 1.634 1.734
3906.180 1.754 1.734 1.914 1.984 1.814 1.774 1.834 1.854 1.954 1.974
3925.470 1.894 1.924 1.984 1.914 1.854 1.924 1.864 1.684 1.794 2.094
3944.760 2.204 2.254 2.264 2.274 2.444 2.444 2.534 2.584 2.424 2.264
3964.049 2.294 2.454 2.494 2.504 2.594 2.604 2.584 2.514 2.444 2.634
3983.339 2.764 2.744 2.754 2.694 2.734 2.884 3.024 3.004 2.974 2.824
##END=
