##TITLE=4-Bromo-2-methylphenyl isothiocyanate
##JCAMP-DX=4.24
##DATA TYPE=INFRARED SPECTRUM
##ORIGIN=EPA-IR VAPOR PHASE LIBRARY
##OWNER=SRD/NIST
Collection (C) 2018 copyright by the U.S. Secretary of Commerce
on behalf of the United States of America. All rights reserved.
##CAS REGISTRY NO=19241-38-4
##MOLFORM=C 8 H 6 Br N S
##$NIST SOURCE=MSDC-IR
##STATE=gas
##XUNITS=1/CM
##YUNITS=ABSORBANCE
##XFACTOR=1.
##YFACTOR=0.001
##DELTAX=1.92898
##FIRSTX=549.8
##LASTX=4000.7
##FIRSTY=16.983
##MAXX=4000.7
##MINX=549.759
##MAXY=1.01706
##MINY=0
##NPOINTS=1790
##XYDATA=(X++(Y..Y))
549.759 16.983 17.873 18.383 19.023 19.183 18.423 17.083 15.253 13.353 11.843
569.049 10.503 9.883 9.963 9.993 10.023 9.973 9.763 9.593 9.503 9.343
588.339 8.913 8.723 8.473 7.883 7.793 7.993 8.103 8.363 8.523 8.343
607.628 8.053 7.883 7.793 7.573 7.293 7.153 7.003 6.793 6.523 6.183
626.918 6.003 5.783 5.473 5.403 5.493 5.383 5.353 5.673 5.793 5.793
646.208 6.133 6.643 7.203 7.783 8.323 8.573 8.863 9.033 9.123 9.503
665.498 9.713 9.743 9.533 8.923 8.173 7.243 6.213 5.503 4.993 4.463
684.787 4.063 3.993 4.203 4.423 4.613 4.833 4.733 4.493 4.323 3.943
704.077 3.563 3.323 3.093 2.963 2.843 2.713 2.743 2.973 3.343 3.613
723.367 3.733 4.023 4.473 5.243 5.913 6.373 6.683 6.653 6.263 5.543
742.657 4.893 4.233 3.703 3.243 2.873 2.833 3.003 3.093 3.103 3.153
761.947 3.293 3.593 4.013 4.503 4.883 5.393 6.053 6.453 6.783 7.113
781.236 7.233 7.163 7.293 7.743 8.743 10.713 13.523 17.433 22.813 29.553
800.526 37.243 45.303 53.093 60.163 66.633 73.903 80.713 79.533 71.033 63.883
819.816 58.053 50.783 42.213 33.493 26.083 20.463 16.423 13.703 12.083 11.253
839.106 10.913 10.953 11.153 11.303 11.293 11.333 11.553 11.933 12.803 14.513
858.395 17.253 20.813 24.843 28.773 32.093 34.793 36.893 38.803 37.993 33.803
877.685 30.383 28.363 26.323 24.323 23.183 22.993 23.693 25.393 27.673 30.343
896.975 33.463 36.633 39.283 41.243 42.963 44.313 45.203 46.343 47.953 49.963
916.265 52.533 56.193 61.383 67.883 75.983 86.623 100.383 117.663 138.423 160.843
935.555 182.063 197.993 205.543 203.753 191.273 170.393 145.853 121.093 98.423 79.113
954.844 63.643 51.613 42.153 34.723 28.963 24.663 21.263 18.623 16.723 15.053
974.134 13.623 12.623 11.973 11.483 11.133 10.803 10.483 10.263 10.323 10.563
993.424 10.433 10.093 9.793 9.283 8.553 7.773 7.183 6.663 6.133 5.813
1012.714 5.733 5.293 4.803 4.813 4.793 4.853 4.763 4.953 5.243 5.153
1032.003 5.213 5.393 5.253 5.243 5.623 5.573 5.743 6.183 6.563 7.103
1051.293 7.783 8.643 9.343 10.773 12.513 14.253 16.863 19.863 23.553 28.083
1070.583 32.763 37.303 41.263 43.713 43.903 42.163 39.323 36.333 34.313 34.333
1089.873 36.193 37.993 38.483 37.653 34.793 29.653 23.783 18.883 15.503 13.603
1109.163 13.253 14.233 15.953 18.533 21.623 24.383 25.883 26.563 26.403 24.773
1128.452 22.773 21.193 20.373 20.133 20.083 19.543 18.323 16.693 14.473 12.123
1147.742 10.293 8.813 7.703 7.083 6.613 6.293 6.173 6.183 6.313 6.623
1167.032 7.193 8.083 9.893 12.283 15.663 21.743 31.353 45.323 62.943 80.103
1186.322 91.413 94.073 88.173 74.953 56.163 36.743 23.233 16.203 12.393 10.033
1205.611 8.393 7.153 6.283 6.113 6.303 5.983 5.583 5.893 6.103 6.053
1224.901 5.943 6.033 6.513 6.883 7.353 8.283 9.423 10.633 12.123 13.823
1244.191 15.873 17.743 19.133 20.003 20.163 19.933 19.033 18.063 18.023 19.063
1263.481 20.743 22.503 23.813 23.893 22.633 20.393 17.373 14.303 11.723 9.653
1282.771 8.093 7.013 6.413 6.043 5.743 5.533 5.363 5.183 5.023 4.973
1302.060 4.853 4.713 4.633 4.633 4.653 4.553 4.393 4.163 3.903 3.643
1321.350 3.383 3.253 3.213 3.173 3.163 3.123 3.133 3.183 3.163 3.203
1340.640 3.313 3.413 3.543 3.753 3.913 4.083 4.323 4.553 4.823 5.163
1359.930 5.593 6.163 6.913 7.793 8.893 10.133 11.293 12.233 12.913 13.493
1379.219 14.033 14.723 15.793 17.253 19.163 21.543 24.063 26.473 28.633 30.283
1398.509 31.143 31.063 30.243 28.813 27.003 25.263 23.933 22.983 22.243 21.433
1417.799 20.373 19.163 17.823 16.533 15.693 15.303 15.313 15.683 16.353 17.223
1437.089 18.283 19.553 20.913 22.333 23.893 25.503 27.183 29.013 31.333 34.543
1456.378 39.183 45.643 54.303 66.253 82.243 102.683 126.763 152.763 176.833 195.043
1475.668 203.733 203.013 195.383 183.703 170.423 157.193 143.723 129.173 112.793 94.073
1494.958 74.483 57.513 45.323 36.983 31.193 27.153 24.153 21.773 19.943 18.523
1514.248 17.403 16.433 15.633 14.933 14.343 13.843 13.393 13.113 12.933 12.853
1533.538 12.743 12.553 12.423 12.283 12.203 12.153 12.093 12.113 12.173 12.283
1552.827 12.393 12.543 12.843 13.173 13.493 13.893 14.403 14.973 15.603 16.373
1572.117 17.183 17.943 18.733 19.493 20.153 20.713 21.093 21.143 20.823 20.273
1591.407 19.433 18.383 17.263 16.033 14.883 13.823 12.843 12.003 11.343 10.863
1610.697 10.533 10.403 10.333 10.283 10.293 10.293 10.043 9.633 9.113 8.513
1629.986 7.923 7.323 6.573 5.873 5.423 4.953 4.523 4.243 4.093 3.973
1649.276 3.883 3.863 3.813 3.783 3.793 3.803 3.823 3.803 3.783 3.803
1668.566 3.793 3.773 3.773 3.793 3.843 3.813 3.743 3.713 3.633 3.553
1687.856 3.463 3.393 3.293 3.173 3.123 3.103 3.073 3.063 3.053 3.143
1707.146 3.253 3.313 3.403 3.473 3.643 3.823 3.993 4.253 4.523 4.883
1726.435 5.343 5.803 6.303 6.893 7.533 8.193 8.803 9.143 9.353 9.523
1745.725 9.453 9.163 8.743 8.353 8.043 7.683 7.363 7.213 7.143 7.143
1765.015 7.193 7.373 7.643 7.883 8.083 8.193 8.213 8.243 8.233 8.193
1784.305 8.083 7.953 7.833 7.733 7.703 7.703 7.753 7.673 7.663 7.813
1803.594 7.963 8.043 8.143 8.293 8.473 8.603 8.713 8.923 9.123 9.243
1822.884 9.383 9.573 9.753 9.903 10.113 10.373 10.673 10.973 11.303 11.673
1842.174 12.013 12.393 12.863 13.323 13.813 14.383 14.953 15.553 16.243 16.933
1861.464 17.693 18.543 19.393 20.213 21.023 21.793 22.423 22.873 23.133 23.103
1880.754 22.793 22.413 21.943 21.303 20.643 20.043 19.633 19.393 19.253 19.323
1900.043 19.513 19.943 20.473 21.023 21.703 22.463 23.323 24.293 25.353 26.463
1919.333 27.733 29.153 30.803 32.743 34.873 37.163 39.743 42.543 45.523 48.763
1938.623 52.193 55.793 59.493 63.283 67.223 71.223 75.303 79.563 84.183 89.293
1957.913 94.963 101.133 107.773 114.993 122.663 130.753 139.363 148.573 158.243 168.353
1977.202 178.893 189.963 201.583 213.713 226.513 240.073 254.333 269.323 285.283 302.153
1996.492 320.023 338.843 358.523 379.183 400.843 423.203 446.083 469.733 493.843 517.973
2015.782 542.313 566.933 591.933 617.373 643.333 670.053 698.233 728.163 759.383 792.563
2035.072 827.473 863.993 901.393 937.553 970.413 996.833 1012.92 1017.06 1010.44 994.453
2054.362 972.123 946.903 921.903 899.763 882.233 870.643 865.603 866.273 870.383 874.973
2073.651 876.873 874.293 866.983 855.403 840.903 825.103 809.713 795.523 782.063 768.513
2092.941 752.743 733.033 708.023 677.083 640.873 600.843 559.403 518.603 480.273 445.913
2112.231 416.173 391.313 371.433 356.363 345.473 338.143 333.753 331.563 330.833 330.903
2131.521 331.323 331.363 330.253 327.313 321.603 312.583 300.103 284.293 265.853 245.653
2150.810 224.723 204.063 184.463 166.573 150.663 137.013 125.693 116.463 109.123 103.303
2170.100 98.693 95.253 92.773 91.073 90.123 89.783 89.923 90.523 91.403 92.413
2189.390 93.163 93.203 92.233 90.053 86.553 81.723 75.923 69.803 63.753 58.023
2208.680 52.873 48.223 43.953 40.033 36.483 33.263 30.333 27.783 25.583 23.623
2227.970 21.923 20.433 19.143 18.043 17.103 16.283 15.523 14.793 14.103 13.553
2247.259 13.033 12.513 12.093 11.743 11.473 11.193 10.963 10.753 10.473 10.283
2266.549 10.143 9.963 9.863 9.803 9.713 9.633 9.583 9.483 9.443 9.433
2285.839 9.443 9.533 9.573 9.553 9.603 9.693 9.713 9.773 9.873 9.863
2305.129 9.913 9.903 9.843 9.793 9.633 9.453 9.303 9.133 8.953 8.883
2324.418 8.703 8.533 8.483 8.363 8.273 8.213 8.183 8.153 8.103 8.113
2343.708 8.193 8.223 8.273 8.313 8.333 8.463 8.573 8.573 8.613 8.663
2362.998 8.823 8.913 8.923 8.903 8.883 8.853 8.683 8.483 8.243 7.983
2382.288 7.643 7.353 7.093 6.823 6.633 6.383 6.153 5.923 5.673 5.523
2401.578 5.403 5.263 5.183 5.123 5.083 5.073 5.123 5.223 5.253 5.273
2420.867 5.373 5.463 5.613 5.743 5.873 5.983 6.033 6.143 6.213 6.253
2440.157 6.193 6.153 6.203 6.143 6.053 6.053 5.953 5.883 5.963 6.013
2459.447 6.043 6.033 5.973 6.003 6.183 6.343 6.533 6.763 7.003 7.243
2478.737 7.503 7.923 8.323 8.623 8.903 9.163 9.383 9.643 9.843 10.033
2498.026 10.243 10.333 10.353 10.323 10.303 10.223 10.093 9.973 9.743 9.413
2517.316 9.143 8.963 8.823 8.633 8.503 8.463 8.383 8.273 8.283 8.323
2536.606 8.273 8.153 8.133 8.193 8.283 8.383 8.523 8.703 8.733 8.653
2555.896 8.663 8.703 8.633 8.423 8.323 8.293 8.163 8.023 7.903 7.823
2575.186 7.783 7.703 7.743 7.863 7.993 8.163 8.383 8.603 8.953 9.423
2594.475 9.813 10.263 10.783 11.333 11.893 12.443 13.033 13.523 13.973 14.413
2613.765 14.723 14.993 15.213 15.343 15.503 15.553 15.423 15.323 15.223 15.053
2633.055 14.843 14.543 14.223 13.933 13.553 13.143 12.683 12.183 11.623 11.083
2652.345 10.623 10.133 9.613 9.063 8.503 8.043 7.533 7.093 6.783 6.483
2671.634 6.273 6.123 5.993 5.943 5.943 5.923 5.973 5.993 5.923 6.003
2690.924 6.013 6.053 6.123 6.013 5.953 5.943 5.933 5.843 5.703 5.573
2710.214 5.503 5.563 5.583 5.503 5.513 5.553 5.663 5.813 5.933 6.053
2729.504 6.153 6.293 6.463 6.643 6.773 6.803 6.923 7.043 7.063 7.063
2748.794 7.003 6.793 6.653 6.523 6.323 6.073 5.743 5.493 5.373 5.163
2768.083 5.013 5.033 4.863 4.623 4.583 4.543 4.393 4.363 4.333 4.223
2787.373 4.103 4.033 4.023 3.943 3.873 3.843 3.793 3.663 3.593 3.633
2806.663 3.613 3.573 3.633 3.713 3.563 3.463 3.643 3.783 3.863 3.993
2825.953 4.003 3.983 4.083 4.253 4.333 4.323 4.463 4.663 4.843 5.053
2845.242 5.223 5.413 5.633 5.853 6.103 6.383 6.623 6.973 7.393 7.803
2864.532 8.203 8.613 9.003 9.303 9.683 9.983 10.123 10.153 10.213 10.173
2883.822 10.043 9.853 9.653 9.583 9.513 9.393 9.343 9.343 9.323 9.483
2903.112 9.603 9.633 9.833 10.243 10.623 10.983 11.493 12.173 13.083 14.183
2922.401 15.243 16.433 17.833 19.253 20.753 22.033 22.883 23.373 23.473 23.183
2941.691 22.513 21.663 20.593 19.343 18.183 17.303 16.733 16.343 16.063 15.983
2960.981 15.943 15.983 16.143 16.203 16.183 16.223 16.323 16.433 16.493 16.723
2980.271 17.163 17.533 17.903 18.373 18.943 19.363 19.503 19.253 18.523 17.643
2999.561 16.543 15.253 14.163 13.213 12.333 11.703 11.173 10.763 10.563 10.493
3018.850 10.413 10.373 10.413 10.693 11.033 11.193 11.293 11.333 11.393 11.483
3038.140 11.433 11.203 10.943 10.573 10.203 9.993 9.863 9.573 9.253 9.173
3057.430 8.923 8.623 8.433 8.373 8.233 8.093 8.093 8.013 8.013 8.063
3076.720 8.153 8.103 8.263 8.673 8.833 8.943 8.893 8.723 8.423 7.843
3096.009 7.343 6.733 5.843 5.143 4.603 4.093 3.523 3.103 2.903 2.693
3115.299 2.523 2.333 2.183 2.123 2.103 2.013 1.853 1.793 1.703 1.6896
3134.589 1.6251 1.4931 1.5139 1.4715 1.411 1.2589 1.0432 0.9907 0.9676 0.9545
3153.879 1.0247 1.0371 0.9555 0.80869 0.80172 0.8948 0.8758 0.771352 0.7259 0.637
3173.169 0.556 0.581 0.574 0.585 0.607 0.653 0.596 0.544 0.521 0.452
3192.458 0.408 0.5 0.451 0.318 0.366 0.398 0.465 0.441 0.365 0.322
3211.748 0.279 0.318 0.334 0.381 0.381 0.259 0.279 0.321 0.196 0.194
3231.038 0.121 0.163 0.36 0.318 0.325 0.307 0.222 0.132 0.124 0.164
3250.328 0.252 0.326 0.34 0.302 0.201 0.162 0.182 0.258 0.281 0.22
3269.617 0.222 0.305 0.398 0.411 0.5 0.454 0.297 0.308 0.344 0.482
3288.907 0.472 0.374 0.254 0.169 0.223 0.289 0.37 0.344 0.281 0.351
3308.197 0.345 0.257 0.353 0.411 0.383 0.299 0.185 0.17 0.189 0.08
3327.487 0.144 0.232 0.192 0.192 0.31 0.398 0.386 0.348 0.181 0
3346.777 0.061 0.253 0.22 0.253 0.394 0.413 0.328 0.236 0.203 0.179
3366.066 0.244 0.41 0.442 0.402 0.436 0.373 0.319 0.436 0.248 0.197
3385.356 0.303 0.187 0.256 0.374 0.357 0.3 0.372 0.407 0.353 0.357
3404.646 0.299 0.34 0.475 0.473 0.306 0.167 0.229 0.311 0.378 0.424
3423.936 0.428 0.405 0.388 0.503 0.607 0.458 0.362 0.417 0.482 0.438
3443.225 0.381 0.562 0.6768 0.54 0.579 0.556 0.386 0.39 0.384 0.456
3462.515 0.57 0.444 0.296 0.377 0.41 0.388 0.474 0.561 0.562 0.63
3481.805 0.573 0.487 0.568 0.658 0.627 0.507 0.535 0.486 0.511 0.647
3501.095 0.6992 0.624 0.463 0.484 0.479 0.463 0.658 0.6687 0.466 0.397
3520.385 0.396 0.468 0.544 0.61 0.62 0.603 0.529 0.417 0.347 0.317
3539.674 0.437 0.563 0.642 0.58 0.593 0.704 0.624 0.52 0.587 0.568
3558.964 0.539 0.466 0.315 0.375 0.51 0.592 0.672 0.6917 0.59 0.571
3578.254 0.572 0.6721 0.642 0.455 0.513 0.622 0.606 0.55 0.576 0.669
3597.544 0.643 0.54 0.485 0.368 0.331 0.373 0.487 0.516 0.545 0.544
3616.833 0.302 0.392 0.6908 0.80045 0.697 0.542 0.528 0.61 0.635 0.476
3636.123 0.439 0.49 0.493 0.461 0.541 0.685 0.641 0.6904 0.678 0.588
3655.413 0.654 0.659 0.56 0.518 0.472 0.601 0.80042 0.6834 0.603 0.6772
3674.703 0.634 0.525 0.618 0.611 0.419 0.492 0.627 0.617 0.633 0.648
3693.993 0.641 0.628 0.7344 0.6754 0.604 0.7276 0.7418 0.77682 0.76824 0.633
3713.282 0.661 0.7875 0.7461 0.7171 0.9113 0.9758 0.81283 0.6673 0.643 0.77434
3732.572 0.84013 0.79068 0.6834 0.75824 0.8125 0.645 0.6818 0.79852 0.78082 0.8071
3751.862 0.78852 0.85565 0.84074 0.703 0.624 0.654 0.75782 0.84775 0.81351 0.82857
3771.152 1.0828 1.1759 0.8874 0.81072 0.9484 0.8669 0.8805 0.9905 1.0152 1.0537
3790.441 0.9853 0.9095 0.8926 0.8713 0.8946 0.8652 0.8689 0.8974 0.8874 0.85638
3809.731 0.82917 0.7449 0.711 0.79852 0.80241 0.634 0.626 0.84941 0.9797 0.9343
3829.021 0.86174 0.82394 0.8724 0.9234 0.8518 0.8938 0.9737 0.9487 1.0155 0.9558
3848.311 0.8634 0.9352 0.9539 0.9931 1.1175 1.1032 1.0256 1.0354 1.1549 1.285
3867.601 1.2135 1.1402 1.2864 1.3409 1.2999 1.3097 1.2994 1.3082 1.3073 1.3485
3886.890 1.4613 1.58 1.5777 1.4463 1.5361 1.6597 1.6616 1.7114 1.7073 1.7269
3906.180 1.803 1.873 1.873 1.913 1.933 1.903 1.943 1.933 2.023 2.093
3925.470 2.093 2.193 2.183 2.233 2.243 2.093 2.083 2.083 2.053 2.133
3944.760 2.313 2.423 2.493 2.483 2.413 2.443 2.403 2.513 2.613 2.603
3964.049 2.583 2.593 2.713 2.813 2.803 2.833 2.903 2.913 3.003 3.173
3983.339 3.353 3.433 3.363 3.323 3.443 3.543 3.413 3.403 3.453 3.453
##END=
