##TITLE=2,4-D Methyl ester
##JCAMP-DX=4.24
##DATA TYPE=INFRARED SPECTRUM
##ORIGIN=NIST Mass Spectrometry Data Center
##OWNER=NIST Standard Reference Data Program
Collection (C) 2018 copyright by the U.S. Secretary of Commerce
on behalf of the United States of America. All rights reserved.
##CAS REGISTRY NO=1928-38-7
##MOLFORM=C 9 H 8 Cl 2 O 3
##$NIST SOURCE=MSDC-IR
##SPECTROMETER/DATA SYSTEM=HP-GC/MS/IRD
##STATE=gas
##XUNITS=1/CM
##YUNITS=ABSORBANCE
##XFACTOR=1.0
##YFACTOR=0.000009900
##DELTAX=4.0
##FIRSTX=550.0
##LASTX=3846.0
##FIRSTY=0.000861
##MAXX=3846
##MINX=550
##MAXY=0.099
##MINY=0
##NPOINTS=825
##XYDATA=(X++(Y..Y))
550.0 87 126 153 210 231 221 182 149 125 108
590.0 97 93 89 77 82 85 76 85 92 107
630.0 162 264 470 749 902 778 475 245 154 120
670.0 113 123 150 198 268 361 469 588 709 810
710.0 874 899 899 903 906 848 743 637 564 543
750.0 558 587 625 657 663 643 601 557 539 583
790.0 696 851 1014 1108 1094 1030 998 1021 1091 1184
830.0 1301 1427 1497 1443 1254 1005 813 766 858 1016
870.0 1074 911 649 428 284 198 141 101 74 57
910.0 43 30 21 20 16 13 17 21 28 37
950.0 52 76 97 130 187 253 326 402 470 531
990.0 590 652 741 863 1009 1176 1366 1563 1762 1943
1030.0 2082 2169 2200 2189 2166 2162 2224 2430 2831 3344
1070.0 3825 4171 4281 4086 3703 3394 3414 3740 3993 3801
1110.0 3175 2456 1887 1501 1257 1118 1053 1029 1026 1052
1150.0 1138 1298 1557 1946 2509 3308 4344 5474 6440 7042
1190.0 7322 7459 7471 7224 6693 6070 5595 5321 5124 4887
1230.0 4598 4315 4159 4189 4318 4397 4369 4283 4202 4165
1270.0 4177 4250 4359 4447 4476 4417 4241 3934 3498 2962
1310.0 2407 1911 1524 1236 1022 865 753 676 631 622
1350.0 640 675 709 740 791 867 969 1075 1157 1177
1390.0 1103 933 744 615 565 582 656 794 1012 1292
1430.0 1600 1912 2185 2335 2316 2216 2207 2456 3120 4466
1470.0 6537 8825 10000 9301 7373 5404 3973 2922 2140 1562
1510.0 1129 845 651 520 431 368 325 295 280 279
1550.0 293 324 377 452 535 626 705 757 759 700
1590.0 594 463 341 250 193 158 134 120 109 102
1630.0 97 90 88 87 84 80 77 78 80 83
1670.0 87 93 101 109 122 136 155 180 214 261
1710.0 327 410 520 659 825 1024 1260 1530 1844 2277
1750.0 2967 4021 5201 5861 5590 4800 4342 4469 4728 4593
1790.0 3927 3038 2274 1702 1284 976 745 573 449 362
1830.0 304 262 232 208 187 167 151 135 125 118
1870.0 114 113 110 105 97 88 81 74 66 57
1910.0 55 53 51 52 55 56 61 63 64 66
1950.0 66 66 61 57 53 50 46 43 43 41
1990.0 38 37 38 37 38 40 42 45 51 52
2030.0 53 55 54 55 54 57 62 66 70 73
2070.0 76 78 79 79 77 77 79 77 76 75
2110.0 76 80 81 78 78 75 72 69 61 55
2150.0 49 46 42 36 32 30 29 27 21 17
2190.0 16 13 12 9 7 7 9 11 9 7
2230.0 7 6 5 3 0 0 1 3 4 5
2270.0 8 10 11 13 16 19 20 21 23 25
2310.0 29 31 32 33 32 33 27 23 21 18
2350.0 15 11 8 6 5 6 8 9 10 9
2390.0 9 11 11 11 13 15 17 15 15 16
2430.0 17 19 16 14 19 18 16 16 17 20
2470.0 20 18 20 23 22 24 28 29 33 36
2510.0 39 43 46 47 47 47 49 45 44 43
2550.0 38 33 28 28 27 27 23 21 21 18
2590.0 20 24 25 24 23 25 25 23 21 19
2630.0 18 15 12 16 22 24 23 21 22 27
2670.0 25 25 24 24 25 24 21 21 25 25
2710.0 26 30 34 39 41 40 43 41 39 38
2750.0 37 37 38 39 40 41 41 41 42 46
2790.0 49 56 64 73 79 82 91 96 99 106
2830.0 113 122 139 170 215 265 311 325 302 268
2870.0 245 230 224 224 224 232 251 279 311 347
2910.0 383 425 475 525 584 658 743 823 884 939
2950.0 1025 1205 1512 1755 1706 1380 1011 785 654 560
2990.0 499 469 457 452 453 438 411 383 363 354
3030.0 353 352 338 309 272 246 224 205 199 204
3070.0 219 232 236 227 204 176 156 142 128 117
3110.0 106 92 84 80 71 65 61 59 59 55
3150.0 48 44 43 41 41 35 29 31 27 20
3190.0 22 27 29 30 25 23 24 22 16 12
3230.0 14 16 18 19 16 12 14 17 14 11
3270.0 14 15 12 12 13 11 15 13 10 11
3310.0 11 12 11 9 11 18 19 15 16 19
3350.0 18 10 7 13 14 12 12 9 7 9
3390.0 12 13 12 12 14 15 20 19 16 15
3430.0 12 13 20 19 16 18 20 27 26 26
3470.0 28 28 27 31 42 47 52 63 72 77
3510.0 72 64 62 62 61 62 58 60 58 57
3550.0 59 57 51 43 43 41 37 39 37 30
3590.0 29 25 20 19 22 22 14 12 19 18
3630.0 17 17 20 19 20 23 22 21 20 20
3670.0 17 15 17 18 15 12 15 20 21 18
3710.0 18 24 27 24 23 24 23 24 27 25
3750.0 23 24 23 22 19 19 23 28 29 22
3790.0 17 19 26 27 25 28 23 18 24 22
3830.0 20 22 23 22 25
##END=
