##TITLE=Vernolate
##JCAMP-DX=4.24
##DATA TYPE=INFRARED SPECTRUM
##ORIGIN=NIST Mass Spectrometry Data Center
##OWNER=NIST Standard Reference Data Program
Collection (C) 2018 copyright by the U.S. Secretary of Commerce
on behalf of the United States of America. All rights reserved.
##CAS REGISTRY NO=1929-77-7
##MOLFORM=C 10 H 21 N O S
##$NIST SOURCE=MSDC-IR
##SPECTROMETER/DATA SYSTEM=HP-GC/MS/IRD
##STATE=gas
##XUNITS=1/CM
##YUNITS=ABSORBANCE
##XFACTOR=1.0
##YFACTOR=0.000004800
##DELTAX=4.0
##FIRSTX=550.0
##LASTX=3846.0
##FIRSTY=0.000533
##MAXX=3846
##MINX=550
##MAXY=0.048
##MINY=0
##NPOINTS=825
##XYDATA=(X++(Y..Y))
550.0 111 98 75 31 11 25 28 14 0 27
590.0 39 21 25 44 36 22 30 56 75 66
630.0 52 57 88 127 149 204 282 347 416 437
670.0 389 310 230 161 134 142 145 161 217 264
710.0 313 363 357 311 266 254 240 253 297 328
750.0 353 371 382 399 391 374 357 336 329 316
790.0 290 234 180 142 106 84 86 100 102 115
830.0 135 169 195 211 227 223 215 217 216 231
870.0 271 319 374 447 512 556 569 532 446 350
910.0 277 234 217 237 280 321 367 411 463 475
950.0 432 367 276 199 143 98 75 67 66 68
990.0 78 82 84 88 91 103 118 141 165 173
1030.0 204 239 263 296 334 355 365 413 482 576
1070.0 704 858 1021 1192 1392 1670 2045 2453 2896 3360
1110.0 3806 4155 4178 3701 2849 1948 1274 883 663 531
1150.0 438 389 363 362 389 431 487 564 682 864
1190.0 1130 1479 1930 2485 3138 3867 4471 4608 4131 3233
1230.0 2296 1604 1190 963 830 741 712 734 812 949
1270.0 1098 1233 1331 1387 1432 1455 1427 1338 1217 1115
1310.0 1039 969 894 830 799 822 899 989 1055 1082
1350.0 1092 1134 1225 1357 1522 1702 1891 2095 2314 2537
1390.0 2733 2841 2790 2551 2172 1770 1422 1158 976 871
1430.0 838 869 940 1023 1106 1205 1331 1461 1530 1497
1470.0 1341 1089 827 615 466 373 315 273 244 220
1510.0 203 185 167 155 146 137 130 123 119 115
1550.0 109 108 107 111 114 117 123 126 131 144
1590.0 151 157 168 184 206 231 260 303 367 436
1630.0 512 599 710 885 1187 1697 2653 4260 6602 8947
1670.0 10000 9032 6443 3776 2040 1206 804 590 457 371
1710.0 307 260 231 209 184 168 156 149 142 131
1750.0 120 113 105 97 94 87 75 70 64 56
1790.0 49 46 44 40 37 33 34 34 30 32
1830.0 33 30 28 27 22 21 23 24 22 19
1870.0 18 24 23 19 21 21 24 20 14 16
1910.0 12 12 15 15 12 10 12 12 10 6
1950.0 3 4 6 7 7 7 8 5 6 10
1990.0 7 5 2 1 7 5 1 5 7 12
2030.0 13 11 10 9 12 15 17 20 21 20
2070.0 16 13 15 17 18 17 14 9 7 4
2110.0 10 15 14 11 9 10 9 7 6 9
2150.0 8 3 1 1 8 13 10 8 9 10
2190.0 8 5 1 6 13 11 8 10 11 11
2230.0 7 8 14 12 1 1 6 8 9 4
2270.0 5 9 7 5 5 8 16 16 13 15
2310.0 17 19 17 16 21 22 17 20 24 19
2350.0 21 21 15 13 15 15 13 14 21 21
2390.0 19 20 26 35 34 30 29 27 26 26
2430.0 17 10 12 13 12 12 10 10 14 11
2470.0 7 14 22 24 24 22 23 24 28 29
2510.0 26 18 8 10 16 12 10 13 16 18
2550.0 19 21 21 13 9 11 12 18 19 9
2590.0 11 19 13 9 14 17 18 17 19 16
2630.0 18 23 23 28 35 38 46 47 47 53
2670.0 52 52 44 42 43 40 45 52 52 49
2710.0 54 63 65 65 69 78 85 95 105 106
2750.0 111 111 110 116 114 116 128 127 126 132
2790.0 141 157 168 178 191 197 214 231 249 275
2830.0 302 326 356 397 445 514 611 752 951 1199
2870.0 1483 1801 2143 2423 2497 2341 2067 1837 1732 1747
2910.0 1867 2074 2371 2755 3152 3482 3714 3840 3842 3684
2950.0 3426 3244 3365 3916 4799 5627 5855 5232 4031 2813
2990.0 1936 1387 1054 852 718 617 549 488 435 398
3030.0 367 349 322 288 262 240 220 209 199 185
3070.0 170 150 146 146 134 132 122 106 101 107
3110.0 110 106 94 85 84 73 63 70 76 79
3150.0 76 73 72 63 62 64 51 53 55 50
3190.0 54 43 47 52 44 40 30 20 26 29
3230.0 30 29 35 31 22 23 23 23 24 26
3270.0 24 18 26 33 31 30 35 49 47 45
3310.0 63 73 70 66 66 60 49 47 49 46
3350.0 38 21 19 29 25 17 22 27 16 11
3390.0 22 24 9 7 13 10 8 8 11 14
3430.0 14 8 5 16 18 15 10 7 17 19
3470.0 21 17 8 8 8 10 6 1 5 4
3510.0 1 5 5 7 10 10 13 11 5 11
3550.0 22 25 30 24 7 10 9 9 12 13
3590.0 18 15 14 18 19 22 27 22 14 20
3630.0 26 34 21 14 20 19 21 24 18 20
3670.0 23 10 10 14 19 28 14 7 17 26
3710.0 19 26 34 28 32 37 27 19 33 29
3750.0 21 28 29 26 21 18 11 8 12 20
3790.0 28 22 23 24 15 12 21 26 22 23
3830.0 24 24 25 20 23
##END=
