##TITLE=6-Chlorohexanoyl chloride
##JCAMP-DX=4.24
##DATA TYPE=INFRARED SPECTRUM
##ORIGIN=EPA-IR VAPOR PHASE LIBRARY
##OWNER=SRD/NIST
Collection (C) 2018 copyright by the U.S. Secretary of Commerce
on behalf of the United States of America. All rights reserved.
##CAS REGISTRY NO=19347-73-0
##MOLFORM=C 6 H 10 Cl 2 O
##$NIST SOURCE=MSDC-IR
##STATE=gas
##XUNITS=1/CM
##YUNITS=ABSORBANCE
##XFACTOR=1.
##YFACTOR=0.001
##DELTAX=1.92898
##FIRSTX=549.8
##LASTX=4000.7
##FIRSTY=13.513
##MAXX=4000.7
##MINX=549.759
##MAXY=0.185853
##MINY=0
##NPOINTS=1790
##XYDATA=(X++(Y..Y))
549.759 13.513 14.203 15.073 15.803 17.953 20.423 21.603 22.783 24.913 27.043
569.049 28.193 28.603 29.183 29.253 29.293 28.983 28.773 28.753 28.303 27.843
588.339 27.233 26.683 25.463 24.593 23.713 21.993 20.623 19.553 18.033 16.903
607.628 15.473 13.533 12.193 11.173 11.133 10.623 9.243 8.793 8.593 8.573
626.918 8.073 8.433 9.273 9.083 9.063 9.343 9.573 9.973 10.983 11.943
646.208 12.663 13.493 14.673 15.963 17.043 18.213 19.773 20.703 21.263 21.953
665.498 22.673 23.093 23.153 23.773 25.003 26.453 27.943 29.253 30.083 30.063
684.787 29.743 29.393 28.113 26.313 24.483 23.223 22.333 21.233 20.063 19.853
704.077 20.833 21.363 21.613 22.213 23.073 24.543 26.433 28.213 30.233 32.303
723.367 33.913 35.543 36.713 37.003 37.243 37.733 37.683 37.403 37.693 38.093
742.657 38.603 38.553 38.553 39.083 38.573 37.683 36.883 35.443 33.543 31.313
761.947 28.803 26.283 23.943 21.673 20.333 19.363 17.813 17.003 16.593 15.553
781.236 15.023 15.123 14.623 13.783 13.373 13.763 13.893 13.043 12.173 11.383
800.526 11.063 10.903 10.353 10.123 9.953 9.593 9.223 8.703 8.783 8.923
819.816 9.393 11.013 11.943 11.083 9.693 9.773 10.313 10.523 10.863 11.033
839.106 10.973 11.163 11.753 12.313 12.493 12.613 12.763 12.873 13.163 13.653
858.395 14.153 14.363 14.433 14.333 14.413 15.013 15.433 15.403 15.553 16.263
877.685 16.423 16.183 16.893 17.573 18.003 18.923 19.283 19.343 19.583 20.233
896.975 21.103 21.263 21.643 22.583 23.143 23.613 24.323 25.033 25.373 25.593
916.265 26.333 27.133 27.993 29.213 30.763 31.993 33.373 35.173 36.673 38.333
935.555 40.183 42.043 43.853 46.033 47.663 48.393 48.823 49.013 49.523 50.053
954.844 50.173 50.213 50.113 49.973 50.143 50.313 50.393 50.303 50.403 51.103
974.134 51.343 51.113 51.173 51.423 51.133 50.913 51.043 50.453 49.463 48.153
993.424 46.853 45.553 44.043 42.623 41.373 40.033 38.013 36.353 35.493 34.613
1012.714 34.343 33.513 32.483 32.263 31.433 30.623 29.703 27.833 26.243 25.603
1032.003 24.913 23.643 21.833 20.223 19.643 18.993 17.893 17.933 17.743 17.403
1051.293 17.403 16.733 16.323 16.613 17.503 17.613 17.693 17.953 17.873 18.243
1070.583 18.513 17.563 17.833 19.083 18.603 18.063 18.133 18.363 18.943 19.103
1089.873 18.603 17.843 16.543 15.223 14.783 14.703 13.443 11.913 11.693 10.003
1109.163 8.203 8.783 9.023 8.963 8.703 7.953 7.263 6.803 7.003 6.963
1128.452 7.103 7.453 8.243 8.813 8.603 9.223 9.693 8.883 9.073 9.153
1147.742 9.083 9.433 9.453 9.773 10.403 10.843 10.013 9.413 9.013 8.903
1167.032 9.183 9.563 9.613 9.173 9.083 9.293 9.773 8.903 8.183 7.933
1186.322 7.913 8.683 8.383 8.013 8.343 8.563 8.793 8.603 9.713 9.843
1205.611 6.873 6.323 7.583 7.983 8.313 8.353 7.923 8.343 9.403 9.923
1224.901 8.913 8.323 9.813 9.413 8.663 9.313 9.023 8.883 9.443 10.013
1244.191 9.823 9.013 9.223 10.043 10.513 11.173 11.523 11.333 11.293 12.113
1263.481 12.133 12.013 12.613 12.643 13.143 13.683 14.323 14.623 14.853 15.283
1282.771 16.223 17.313 18.343 18.993 19.603 20.613 20.773 20.823 20.803 20.653
1302.060 20.493 20.153 19.743 19.103 18.463 18.183 17.623 16.763 16.143 15.453
1321.350 14.793 14.293 13.543 12.823 12.313 11.953 11.673 11.353 11.193 11.303
1340.640 11.323 11.313 11.373 11.463 11.643 11.563 11.483 11.453 11.293 11.163
1359.930 10.733 10.103 9.423 8.823 8.253 7.683 7.133 6.563 6.173 5.893
1379.219 5.713 5.543 5.403 5.303 5.213 5.123 5.093 5.113 5.233 5.603
1398.509 6.103 6.643 7.133 7.793 8.573 9.203 9.653 10.173 10.643 10.953
1417.799 11.353 11.693 11.823 11.923 12.253 12.493 12.543 12.843 13.173 13.353
1437.089 13.633 14.033 14.743 15.653 16.693 17.963 19.023 19.683 20.213 20.583
1456.378 20.213 19.393 18.453 17.283 15.993 14.603 13.053 11.633 10.453 9.313
1475.668 8.283 7.083 6.123 5.513 4.743 4.103 3.673 3.343 3.163 3.013
1494.958 2.803 2.493 2.403 2.313 2.263 2.173 2.083 2.023 1.873 1.863
1514.248 1.813 1.723 1.703 1.583 1.633 1.823 1.643 1.453 1.4784 1.583
1533.538 1.583 1.4737 1.4098 1.513 1.4928 1.4317 1.4309 1.3408 1.3504 1.2725
1552.827 1.3142 1.0873 0.9713 1.4444 1.713 1.693 1.4406 1.3938 1.573 1.4491
1572.117 1.1954 1.2428 1.3698 1.4815 1.3521 1.2477 1.4209 1.4439 1.2579 1.1799
1591.407 1.2166 1.3354 1.4607 1.3654 1.3147 1.3039 1.32 1.2375 1.1353 1.1659
1610.697 1.1843 1.223 1.2933 1.3762 1.3849 1.4564 1.4542 1.4681 1.593 1.673
1629.986 1.4975 1.3491 1.4527 1.4617 1.3987 1.3946 1.464 1.543 1.623 1.683
1649.276 1.4705 1.3187 1.533 1.643 1.643 1.4898 1.3644 1.553 1.643 1.503
1668.566 1.563 1.703 1.643 1.4237 1.523 1.693 1.703 1.783 1.763 1.723
1687.856 1.783 1.893 2.123 2.093 2.003 2.163 2.243 2.233 2.283 2.473
1707.146 2.733 2.923 2.843 2.863 3.153 3.193 3.353 3.663 3.713 3.733
1726.435 3.923 4.163 4.423 4.793 5.123 5.403 5.873 6.523 7.053 7.463
1745.725 8.143 8.893 9.703 11.043 12.103 12.973 14.293 15.813 17.563 19.583
1765.015 21.763 24.033 26.803 30.013 33.513 37.593 42.453 47.793 53.843 60.913
1784.305 68.913 77.853 87.783 98.763 110.613 123.373 136.193 148.703 160.413 170.563
1803.594 178.563 183.833 185.853 184.423 179.913 172.693 163.043 151.413 138.203 124.663
1822.884 111.643 99.163 87.323 76.723 67.393 59.143 52.123 45.963 40.583 36.053
1842.174 32.193 28.833 25.763 23.313 21.343 19.523 17.813 16.313 14.903 13.803
1861.464 13.083 12.193 11.323 10.593 9.983 9.363 8.913 8.683 8.383 8.003
1880.754 7.463 7.043 6.883 6.713 6.483 6.333 6.123 5.903 5.643 5.353
1900.043 5.413 5.423 5.233 5.073 4.833 4.613 4.463 4.393 4.473 4.453
1919.333 4.173 3.933 3.813 3.833 3.663 3.563 3.683 3.653 3.573 3.423
1938.623 3.173 3.093 3.283 3.223 3.033 2.923 2.923 2.993 2.883 2.563
1957.913 2.233 2.383 2.643 2.543 2.503 2.503 2.353 2.353 2.303 2.283
1977.202 2.343 2.223 2.123 2.163 2.043 1.863 1.873 1.873 1.833 1.853
1996.492 1.893 1.783 1.673 1.703 1.763 1.793 2.013 2.053 1.893 1.823
2015.782 1.743 1.613 1.643 1.783 1.673 1.633 1.763 1.683 1.563 1.643
2035.072 1.743 1.793 1.803 1.863 1.813 1.783 1.903 1.973 2.043 2.123
2054.362 2.103 2.003 2.053 2.133 2.303 2.363 2.443 2.703 2.733 2.883
2073.651 3.223 3.463 3.573 3.773 4.153 4.513 4.893 5.243 5.743 6.233
2092.941 6.803 7.483 8.363 9.303 10.273 11.623 13.153 14.663 16.403 18.373
2112.231 20.343 22.543 24.673 26.613 28.243 29.473 30.263 30.313 29.673 28.483
2131.521 26.823 24.623 22.183 19.593 16.863 14.333 12.283 10.593 9.083 7.803
2150.810 6.873 6.123 5.463 4.963 4.293 3.733 3.503 3.113 2.823 2.683
2170.100 2.533 2.363 2.303 2.353 2.093 1.973 1.923 1.863 1.793 1.663
2189.390 1.673 1.803 1.753 1.683 1.683 1.4244 1.3888 1.4821 1.4121 1.2462
2208.680 1.3029 1.523 1.583 1.3733 1.1974 1.1703 1.2406 1.4989 1.543 1.3989
2227.970 1.3159 1.3444 1.4061 1.4191 1.553 1.4952 1.4083 1.593 1.703 1.693
2247.259 1.593 1.733 1.763 1.613 1.663 1.593 1.5027 1.4617 1.4316 1.4081
2266.549 1.358 1.2648 1.226 1.3688 1.4784 1.4977 1.414 1.2896 1.4086 1.3766
2285.839 1.1463 1.1746 1.2692 1.3276 1.2599 1.3928 1.455 1.3191 1.351 1.3597
2305.129 1.2993 1.2646 1.3813 1.4212 1.2008 0.9565 1.1572 1.2239 1.2093 1.2893
2324.418 1.3031 1.4553 1.2981 1.1427 1.2079 1.1571 1.1942 1.2695 1.1437 1.2917
2343.708 1.4116 1.3311 1.3282 1.2421 1.1729 1.2627 1.3697 1.2003 1.0429 1.2509
2362.998 1.402 1.2515 1.2592 1.2919 1.1914 1.0686 1.0558 1.096 0.9569 0.7465
2382.288 0.9154 1.0703 0.9213 0.9772 1.1383 1.0806 0.9905 0.9545 0.9355 0.9254
2401.578 1.0164 1.046 0.921 0.9893 0.8655 0.8835 1.0805 0.7934 0.7113 0.9228
2420.867 0.7941 0.7672 0.9321 0.9775 1.0623 1.0845 0.8752 0.7463 0.8858 0.9055
2440.157 0.9354 1.0271 0.8518 0.6653 0.52345 0.58661 0.7158 0.7594 0.9162 0.7892
2459.447 0.7222 0.9924 1.1576 1.0383 0.9316 1.0862 0.9093 0.7414 0.8958 1.0591
2478.737 1.0904 0.8342 0.6936 0.7153 0.6484 0.6598 0.725 0.6624 0.7045 0.7916
2498.026 0.7866 0.6766 0.696 1.1241 1.2296 0.9421 0.9065 0.8388 0.8528 1.0044
2517.316 1.0115 1.1356 1.1265 0.772 0.8192 1.0316 0.8185 0.8434 0.9814 1.085
2536.606 1.1181 1.0409 0.9646 0.86 1.1178 1.0774 0.8496 0.8117 0.7839 0.924
2555.896 0.8406 0.6663 0.673 0.7293 0.57669 0.49892 0.7552 0.7897 0.6093 0.59145
2575.186 0.59785 0.58334 0.52143 0.49624 0.6805 0.8112 0.7603 0.8386 0.9365 0.8921
2594.475 1.0448 1.1274 1.2904 1.1487 0.7694 0.9457 1.0113 0.9502 1.0357 1.022
2613.765 1.0375 1.1423 1.1177 1.1979 1.1423 1.0823 1.1239 1.066 1.1581 1.0933
2633.055 0.898 0.9705 1.0847 1.0982 1.1025 1.0273 1.0867 1.0125 0.8807 1.2396
2652.345 1.3701 1.2373 1.4883 1.643 1.643 1.553 1.523 1.3741 1.1919 1.3238
2671.634 1.3139 1.4803 1.673 1.683 1.683 1.843 1.703 1.4005 1.359 1.309
2690.924 1.573 1.973 2.063 1.883 1.502 1.663 2.083 1.943 1.833 1.633
2710.214 1.643 1.553 1.4882 1.623 1.593 1.653 1.703 1.643 1.843 2.113
2729.504 1.763 1.4771 1.4872 1.4009 1.3854 1.593 1.813 2.043 1.873 1.733
2748.794 2.213 2.463 2.243 2.073 1.913 1.983 2.133 1.873 1.643 1.653
2768.083 1.773 1.823 1.983 2.313 2.423 2.043 1.643 1.613 1.643 1.633
2787.373 1.903 1.933 2.003 2.493 2.593 2.723 2.943 2.613 2.453 2.673
2806.663 2.763 3.103 3.163 2.983 2.993 2.923 3.193 3.793 4.033 3.683
2825.953 3.573 3.693 4.033 4.323 4.803 5.263 5.693 6.383 7.053 7.573
2845.242 7.983 9.003 9.703 10.453 11.393 12.253 13.293 14.533 15.933 17.123
2864.532 18.483 19.753 20.793 21.893 22.573 22.843 23.393 23.563 23.323 22.963
2883.822 22.113 21.073 20.533 19.943 19.183 18.803 18.503 18.533 18.753 19.313
2903.112 20.463 21.213 21.653 22.633 23.903 25.383 26.603 27.823 29.193 30.573
2922.401 32.543 34.653 36.543 38.503 40.583 42.723 45.003 47.703 50.273 53.033
2941.691 55.683 57.993 60.533 62.853 64.413 65.303 65.833 65.533 64.943 64.493
2960.981 63.293 60.593 57.073 53.843 50.173 46.123 42.263 38.583 35.193 32.103
2980.271 29.403 26.913 24.833 23.273 22.163 21.433 21.183 21.323 21.653 21.383
2999.561 20.503 19.443 17.963 15.973 13.943 12.033 10.383 9.263 7.783 6.623
3018.850 5.933 5.123 4.773 4.813 4.683 4.253 4.033 3.443 3.193 3.633
3038.140 3.363 3.033 2.953 2.983 2.783 2.343 2.223 2.163 2.243 2.423
3057.430 2.603 2.453 2.343 2.483 2.433 2.263 1.923 1.843 1.933 1.723
3076.720 1.563 1.603 1.4735 1.4839 1.633 1.773 1.773 1.633 1.673 1.633
3096.009 1.773 1.923 1.683 1.643 1.4146 1.0437 1.2672 1.523 1.0452 0.9301
3115.299 1.3899 1.2246 0.8793 1.0753 1.3496 1.2235 0.9281 0.7171 0.7249 0.7366
3134.589 0.89 0.9066 0.7334 1.1895 1.4014 0.977 0.6816 0.6652 0.7247 0.9222
3153.879 0.8825 0.7958 0.9641 0.9628 1.1829 1.0939 0.59638 0.7897 1.091 1.1163
3173.169 1.0018 0.53419 0.48 0.9189 0.9838 0.6607 0.7708 1.0337 0.8594 0.9341
3192.458 1.4274 1.4315 0.8767 0.53772 0.8182 0.8375 0.417 0.4128 1.039 1.653
3211.748 1.491 0.732 0.8534 1.3775 1.2131 1.0683 1.0488 1.1182 0.8101 0.399
3231.038 0.39 0.7898 0.8461 0.239 0.239 0.51534 0.7191 1.0091 1.2591 0.9993
3250.328 0.776 0.9364 0.9286 0.9682 0.9573 0.339 0.211 0.4064 0.19 0.387
3269.617 0.4673 0.56119 0.6878 0.4718 0.4143 0.6116 0.8396 0.908 0.8089 0.8694
3288.907 0.55591 0.027 0.046 0.092 0.297 0.9264 1.0162 0.6616 0.421 0.365
3308.197 0.52664 0.6811 0.8898 0.7486 0.4578 0.386 0.4047 0.53628 0.57802 0.6688
3327.487 1.1035 1.264 0.510097 0.16 0.367 0.55508 0.8306 1.2527 1.3053 0.9334
3346.777 0.8022 0.59108 0.6195 0.9772 0.7959 0.4075 0.244 0.6866 0.8667 0.728
3366.066 0.714 0.57876 0.745 0.6838 0.372 0.4906 0.7378 0.54809 0.4643 0.6577
3385.356 0.7128 0.4845 0.167 0.308 0.6685 0.6785 0.6572 0.52823 0 0.184
3404.646 0.9441 1.1096 0.9264 0.9049 0.9082 0.825 0.6935 0.393 0.595 0.8431
3423.936 0.955 0.6117 0.4 0.57738 0.8427 0.7896 0.4285 0.9313 0.8465 0.8921
3443.225 1.1491 0.9103 0.8704 0.6696 0.231 0.251 0.56962 0.59539 0.56421 0.49452
3462.515 0.344 0.55295 0.7899 0.6614 0.59244 0.9298 1.4443 1.3019 0.7687 0.51078
3481.805 1.0116 1.1865 0.8345 0.9098 0.6432 0.222 0.208 0.4407 0.8205 1.2245
3501.095 1.0193 0.695 0.8956 1.0778 1.1342 0.6607 0.6826 1.1589 1.2442 0.8504
3520.385 0.55937 0.7314 1.135 0.9644 0.9175 0.9473 0.58814 0.999 1.1145 1.26
3539.674 1.4185 1.3708 1.2832 1.3432 1.2958 1.0068 1.503 1.573 1.3926 1.783
3558.964 1.683 1.723 1.923 2.183 2.433 2.463 2.863 2.953 3.103 3.163
3578.254 2.693 3.233 3.943 3.753 3.503 3.773 4.053 4.023 4.233 4.053
3597.544 3.903 3.943 3.693 3.393 3.413 3.373 3.073 2.913 2.963 2.673
3616.833 2.283 2.213 2.423 2.623 2.223 2.123 1.773 1.0199 1.2134 1.563
3636.123 1.2433 1.061 1.0007 1.1199 1.2028 0.8558 1.1693 1.623 1.4031 1.0747
3655.413 1.2652 1.444 1.2689 1.1475 1.1984 1.2162 0.9924 0.6819 0.7172 0.7994
3674.703 0.9354 1.3424 1.3917 1.0883 0.894 1.0528 1.1634 1.4175 1.0519 0.7646
3693.993 1.0356 0.9831 0.973 1.0373 1.1764 1.0943 0.9847 0.9476 0.9732 1.0081
3713.282 1.0004 1.0237 0.8151 0.711 0.6889 0.8701 0.913 0.8387 1.2176 1.2571
3732.572 1.0825 1.1724 1.5008 1.3025 0.9193 0.54941 0.396 0.4424 0.6182 1.0554
3751.862 0.9162 1.0757 1.0845 0.66 0.9313 1.3581 1.3128 1.0873 0.9376 0.7572
3771.152 0.7372 0.9479 0.6869 1.0719 1.2755 1.1603 0.7455 0.061 0.4175 0.6726
3790.441 1.012 1.2496 1.0437 0.7998 1.0037 1.1759 1.0134 0.6211 0.4207 0.8852
3809.731 0.8218 0.385 0.4675 1.0497 0.9558 0.6647 0.7469 0.7154 0.6496 0.56183
3829.021 0.8117 0.9901 1.2108 1.0819 0.896 0.7987 0.8741 0.53745 0.085 0.53041
3848.311 0.76 0.65 0.792 0.6986 0.4071 0.216 0.172 0.485 0.7514 0.6791
3867.601 0.59203 0.8776 0.968 0.9288 1.006 0.7732 0.7996 0.6764 0.56604 1.0314
3886.890 0.8362 0.8753 1.288 1.2175 0.8519 0.8525 1.145 1.0543 1.1704 1.4667
3906.180 1.0489 0.618 0.8309 0.56614 0.434 0.7234 0.53108 0.375 0.066 0.7167
3925.470 1.3964 1.0324 0.9559 0.7833 0.7832 0.7773 0.9009 0.7394 0.369 0.367
3944.760 0.7003 1.0539 1.0578 0.9518 0.9663 1.1829 0.9638 0.9172 0.6911 0.757
3964.049 1.0273 0.6793 0.4308 0.7 1.653 1.903 1.2748 1.0542 1.1378 0.9582
3983.339 0.8586 1.0036 0.9954 0.9201 1.0724 0.6875 0.4 0.8904 0.9136 1.0427
##END=
