##TITLE=2,2-Dimethylthiazolidine
##JCAMP-DX=4.24
##DATA TYPE=INFRARED SPECTRUM
##ORIGIN=EPA-IR VAPOR PHASE LIBRARY
##OWNER=SRD/NIST
Collection (C) 2018 copyright by the U.S. Secretary of Commerce
on behalf of the United States of America. All rights reserved.
##CAS REGISTRY NO=19351-18-9
##MOLFORM=C 5 H 11 N S
##$NIST SOURCE=MSDC-IR
##STATE=gas
##XUNITS=1/CM
##YUNITS=ABSORBANCE
##XFACTOR=1.
##YFACTOR=0.001
##DELTAX=1.92898
##FIRSTX=549.8
##LASTX=4000.7
##FIRSTY=4.456
##MAXX=4000.7
##MINX=549.759
##MAXY=0.063136
##MINY=0
##NPOINTS=1790
##XYDATA=(X++(Y..Y))
549.759 4.456 4.166 4.176 4.376 3.926 3.386 3.116 2.856 2.896 2.846
569.049 2.666 2.516 2.376 2.116 1.996 1.886 1.996 2.206 2.276 2.256
588.339 2.246 2.186 2.256 2.626 2.736 2.866 2.736 2.316 2.206 2.266
607.628 2.276 2.036 1.916 1.906 1.656 1.476 1.296 1.186 1.146 1.0623
626.918 1.096 1.116 1.0699 1.076 1.096 1.0251 0.9878 1.166 1.276 1.226
646.208 1.286 1.366 1.456 1.516 1.536 1.556 1.596 1.696 1.966 2.106
665.498 2.146 2.146 2.136 2.326 2.516 2.506 2.446 2.556 2.696 2.616
684.787 2.836 3.136 3.156 3.296 3.446 3.616 3.706 3.796 3.986 4.276
704.077 4.436 4.526 4.776 4.936 5.166 5.616 5.946 5.896 5.986 6.216
723.367 6.366 6.716 6.926 7.056 7.426 7.826 8.276 8.776 9.376 9.876
742.657 10.536 11.486 12.466 13.616 15.046 16.706 18.596 20.676 22.676 24.846
761.947 27.366 29.686 31.766 33.876 35.566 36.926 38.226 39.306 39.986 40.156
781.236 39.786 38.716 36.936 34.676 32.066 29.496 27.026 24.506 21.786 19.116
800.526 16.646 14.416 12.596 10.976 9.856 9.156 8.516 7.976 7.666 7.476
819.816 7.206 6.866 6.386 6.016 5.746 5.326 5.136 4.966 4.586 4.126
839.106 3.916 3.796 3.546 3.396 3.326 3.236 3.026 2.796 2.696 2.596
858.395 2.486 2.476 2.646 2.686 2.506 2.526 2.466 2.456 2.426 2.386
877.685 2.466 2.416 2.306 2.296 2.316 2.296 2.496 2.556 2.546 2.666
896.975 2.786 2.996 2.976 3.136 3.546 3.766 3.886 3.996 4.216 4.336
916.265 4.386 4.416 4.316 4.276 4.226 4.056 3.936 3.736 3.616 3.516
935.555 3.326 3.156 2.966 2.896 2.646 2.346 2.116 2.066 2.186 2.036
954.844 1.976 2.086 2.046 1.936 1.786 1.736 1.766 1.836 2.046 1.996
974.134 1.766 1.606 1.646 1.856 1.926 1.966 1.906 1.836 1.916 2.166
993.424 2.356 2.296 2.326 2.236 2.196 2.216 2.236 2.396 2.556 2.496
1012.714 2.336 2.326 2.446 2.466 2.696 2.926 2.686 2.546 2.816 2.836
1032.003 2.796 3.016 3.166 3.216 3.586 4.036 4.486 5.076 5.686 6.096
1051.293 6.296 6.936 7.566 7.966 8.196 8.576 8.836 8.736 8.426 8.016
1070.583 7.906 7.596 7.306 7.176 6.666 6.616 6.536 5.896 5.976 6.416
1089.873 6.566 6.596 6.646 7.306 8.216 9.266 9.946 10.976 13.096 14.476
1109.163 15.576 16.946 18.316 19.946 21.256 21.966 22.436 22.986 22.716 22.226
1128.452 22.026 21.406 20.086 18.586 17.096 15.356 13.906 12.776 11.286 10.036
1147.742 9.346 8.406 7.786 7.476 7.046 6.786 6.666 6.516 6.426 6.386
1167.032 6.426 6.416 6.286 5.966 5.986 6.086 5.836 5.846 6.116 5.936
1186.322 5.846 6.056 6.096 6.606 7.136 7.386 7.926 8.766 9.256 9.596
1205.611 10.386 11.276 12.016 12.446 13.016 13.526 13.746 13.776 13.676 13.376
1224.901 13.026 12.816 12.416 11.856 11.036 10.206 9.296 8.456 7.876 7.376
1244.191 6.796 5.986 5.226 4.706 4.446 4.276 4.156 3.976 3.906 3.926
1263.481 3.986 4.006 3.966 4.086 4.236 4.396 4.526 4.616 4.666 4.786
1282.771 4.746 4.596 4.516 4.416 4.296 4.056 3.906 3.836 3.696 3.536
1302.060 3.446 3.456 3.506 3.506 3.576 3.656 3.716 3.836 3.996 4.136
1321.350 4.226 4.306 4.426 4.466 4.416 4.496 4.626 4.706 4.796 4.946
1340.640 5.046 5.226 5.546 5.906 6.366 6.936 7.546 8.166 8.766 9.256
1359.930 9.796 10.506 11.566 13.346 16.166 18.566 17.896 15.906 15.136 15.056
1379.219 15.286 15.626 15.726 14.926 13.016 11.266 10.236 9.456 8.586 7.556
1398.509 6.546 5.616 4.886 4.366 4.136 4.156 4.246 4.446 4.806 5.236
1417.799 5.706 6.296 6.986 7.656 8.416 9.226 10.006 10.736 11.466 12.206
1437.089 12.956 13.516 13.926 14.266 14.586 14.926 15.036 14.936 14.606 14.066
1456.378 13.476 12.846 12.216 11.436 10.536 9.726 9.006 8.236 7.386 6.456
1475.668 5.676 5.076 4.526 4.106 3.746 3.346 3.046 2.796 2.546 2.376
1494.958 2.196 2.006 1.926 1.866 1.776 1.706 1.676 1.696 1.686 1.576
1514.248 1.476 1.446 1.406 1.376 1.386 1.416 1.356 1.246 1.236 1.226
1533.538 1.196 1.176 1.156 1.116 1.136 1.136 1.096 1.176 1.216 1.126
1552.827 1.096 1.146 1.156 1.156 1.156 1.166 1.166 1.176 1.186 1.226
1572.117 1.256 1.236 1.176 1.146 1.096 1.0334 1.07 1.0738 1.076 1.126
1591.407 1.086 1.0346 1.0208 1.0097 0.9993 1.0303 1.0493 1.0097 0.9616 0.9144
1610.697 0.9145 0.963 1.0166 1.055 1.0429 1.106 1.136 1.166 1.276 1.396
1629.986 1.486 1.456 1.566 1.746 1.866 2.066 2.286 2.456 2.806 3.266
1649.276 3.746 4.296 5.066 6.016 6.976 8.096 9.216 10.216 11.036 11.556
1668.566 11.646 11.536 11.316 10.826 10.076 9.116 7.806 6.376 5.036 3.876
1687.856 3.056 2.526 2.136 1.886 1.706 1.516 1.376 1.246 1.196 1.136
1707.146 0.994 0.9148 0.9071 0.9075 0.8586 0.8474 0.7982 0.7173 0.7475 0.7283
1726.435 0.7179 0.7384 0.7143 0.6785 0.6702 0.633 0.5537 0.4935 0.5108 0.5457
1745.725 0.5169 0.4876 0.4712 0.4955 0.4715 0.4487 0.5301 0.55 0.5157 0.524
1765.015 0.5073 0.4992 0.4932 0.4098 0.3556 0.3681 0.435 0.4667 0.4503 0.4534
1784.305 0.4442 0.4419 0.4791 0.469 0.4424 0.4704 0.4883 0.5397 0.526 0.4799
1803.594 0.5021 0.5249 0.5495 0.5355 0.5423 0.5631 0.5603 0.5364 0.5213 0.5712
1822.884 0.6132 0.6471 0.6488 0.5969 0.5329 0.5923 0.6751 0.6414 0.6121 0.6281
1842.174 0.6108 0.5636 0.5339 0.5614 0.6078 0.6047 0.5787 0.5253 0.5495 0.5956
1861.464 0.5184 0.4414 0.4218 0.4368 0.4785 0.4774 0.4886 0.4879 0.4406 0.407
1880.754 0.4112 0.4731 0.4857 0.4517 0.5061 0.5217 0.4581 0.4082 0.3882 0.4463
1900.043 0.4659 0.4906 0.4925 0.4277 0.3969 0.3561 0.3632 0.4205 0.4184 0.4025
1919.333 0.4037 0.4186 0.4434 0.4016 0.3638 0.3484 0.3063 0.2929 0.3315 0.3657
1938.623 0.3944 0.4162 0.4225 0.4137 0.3586 0.3405 0.3734 0.3759 0.3881 0.4071
1957.913 0.4203 0.4307 0.4313 0.411 0.3889 0.417 0.4122 0.4342 0.4868 0.4446
1977.202 0.3819 0.3859 0.4792 0.4825 0.4224 0.4316 0.4158 0.4417 0.4597 0.4113
1996.492 0.4189 0.4012 0.3636 0.3775 0.4088 0.4077 0.3764 0.3889 0.4586 0.4544
2015.782 0.4008 0.4189 0.4368 0.3698 0.3622 0.4174 0.3997 0.3769 0.396 0.4449
2035.072 0.4545 0.4312 0.38 0.3343 0.372 0.409 0.3895 0.4162 0.464 0.4188
2054.362 0.4114 0.4285 0.393 0.3935 0.4026 0.4156 0.4437 0.3882 0.3435 0.3906
2073.651 0.4024 0.3843 0.4012 0.4486 0.4501 0.3686 0.3265 0.3328 0.3158 0.3526
2092.941 0.3601 0.3448 0.3764 0.3784 0.3584 0.3971 0.4524 0.4343 0.3906 0.3849
2112.231 0.4237 0.4353 0.4479 0.48 0.4444 0.4479 0.4784 0.4101 0.3768 0.3865
2131.521 0.376 0.3657 0.3768 0.4514 0.3943 0.353 0.4457 0.4585 0.4623 0.4773
2150.810 0.4804 0.4352 0.3925 0.4071 0.3923 0.371 0.3878 0.4078 0.4158 0.4127
2170.100 0.3882 0.4047 0.3672 0.3354 0.3896 0.394 0.4028 0.4262 0.4095 0.3993
2189.390 0.4412 0.4661 0.383 0.3499 0.4055 0.4379 0.433 0.3792 0.3752 0.4012
2208.680 0.4114 0.3899 0.3667 0.4056 0.4258 0.3803 0.3941 0.4458 0.4031 0.3674
2227.970 0.3991 0.4304 0.4627 0.4558 0.3905 0.3742 0.4087 0.39 0.4038 0.4238
2247.259 0.3943 0.3738 0.3441 0.3754 0.4073 0.3458 0.3151 0.3467 0.3768 0.393
2266.549 0.3735 0.3412 0.2847 0.3151 0.3772 0.3284 0.3215 0.3739 0.3807 0.3232
2285.839 0.3433 0.4039 0.3274 0.3276 0.3647 0.3511 0.3875 0.4398 0.446 0.3867
2305.129 0.395 0.4576 0.4685 0.4974 0.4593 0.3936 0.4005 0.4102 0.4845 0.4968
2324.418 0.4285 0.4697 0.5456 0.5206 0.455 0.4044 0.3792 0.3732 0.3837 0.4507
2343.708 0.4622 0.4112 0.4164 0.3935 0.3822 0.4139 0.3945 0.4041 0.4555 0.4869
2362.998 0.4772 0.4266 0.3689 0.3815 0.4722 0.5004 0.5149 0.4844 0.422 0.4635
2382.288 0.481 0.4825 0.5303 0.4792 0.4268 0.4343 0.4383 0.4103 0.4115 0.4487
2401.578 0.4597 0.4754 0.4423 0.4014 0.4281 0.4511 0.404 0.3868 0.4089 0.3332
2420.867 0.3116 0.3667 0.4052 0.4091 0.3396 0.3336 0.3819 0.3684 0.3718 0.3942
2440.157 0.3316 0.2902 0.3008 0.3985 0.4645 0.4127 0.3632 0.3721 0.3963 0.3728
2459.447 0.3174 0.3121 0.3816 0.3666 0.3483 0.3716 0.3299 0.3166 0.3006 0.2887
2478.737 0.3234 0.3424 0.3209 0.2734 0.3319 0.4251 0.4743 0.4613 0.3834 0.3633
2498.026 0.4438 0.4609 0.4716 0.4602 0.4027 0.4801 0.5079 0.4065 0.4164 0.4604
2517.316 0.457 0.445 0.4429 0.4916 0.4699 0.4341 0.4263 0.3986 0.4044 0.4174
2536.606 0.3504 0.3005 0.318 0.462 0.5278 0.4838 0.4535 0.4817 0.4536 0.3542
2555.896 0.4288 0.4819 0.4335 0.4387 0.5137 0.5909 0.6289 0.5867 0.5499 0.529
2575.186 0.5663 0.606 0.6711 0.7725 0.7707 0.789 0.8507 0.8207 0.7564 0.7609
2594.475 0.8265 0.8143 0.7692 0.8243 0.7736 0.6902 0.6668 0.7127 0.7558 0.7276
2613.765 0.7131 0.7121 0.6459 0.6181 0.7265 0.7989 0.8007 0.7809 0.7829 0.8064
2633.055 0.7302 0.7323 0.8095 0.7487 0.7402 0.8275 0.7813 0.7218 0.8022 0.8121
2652.345 0.7509 0.7358 0.7936 0.7907 0.7172 0.6995 0.7 0.6886 0.7764 0.8294
2671.634 0.7946 0.7946 0.8236 0.7588 0.6772 0.7102 0.6275 0.5716 0.6489 0.64
2690.924 0.6548 0.7349 0.758 0.7559 0.7167 0.6991 0.7212 0.6837 0.695 0.7522
2710.214 0.7838 0.8217 0.8219 0.8651 0.9683 1.0086 0.9996 0.9941 1.096 1.186
2729.504 1.126 1.068 1.0713 1.086 1.0557 1.0012 0.9736 1.0322 1.0445 0.9449
2748.794 0.8982 0.972 1.0257 0.9923 0.9657 1.086 1.116 1.0645 1.076 1.0565
2768.083 1.0694 1.096 1.136 1.086 1.116 1.256 1.306 1.286 1.326 1.326
2787.373 1.376 1.566 1.656 1.606 1.656 1.816 1.876 1.876 2.006 2.116
2806.663 2.176 2.376 2.476 2.536 2.746 2.846 2.946 3.166 3.316 3.536
2825.953 3.816 3.966 4.116 4.346 4.646 4.896 5.136 5.596 6.096 6.436
2845.242 6.916 7.526 8.316 9.286 10.136 11.046 11.936 12.856 13.806 14.616
2864.532 15.526 16.586 17.546 18.366 18.896 19.276 19.736 20.216 20.546 20.826
2883.822 20.946 21.006 21.186 21.236 21.126 21.066 21.126 21.286 21.526 21.846
2903.112 22.186 22.646 23.196 23.736 24.526 25.606 26.856 28.226 29.646 31.186
2922.401 32.716 34.286 35.986 37.576 38.736 39.436 39.866 39.956 40.136 40.636
2941.691 41.126 41.516 41.916 42.606 43.656 44.776 45.776 46.576 47.476 48.706
2960.981 50.246 51.846 53.206 54.376 56.586 60.386 63.136 61.806 57.726 54.456
2980.271 52.586 51.166 48.846 45.456 42.406 38.006 32.416 28.256 25.196 22.326
2999.561 19.506 16.656 13.856 11.506 9.566 7.896 6.776 5.986 5.346 4.916
3018.850 4.466 4.146 3.986 3.636 3.406 3.346 3.266 3.126 2.946 2.846
3038.140 2.736 2.636 2.486 2.436 2.356 2.326 2.256 2.006 1.816 1.846
3057.430 1.816 1.656 1.666 1.646 1.496 1.516 1.546 1.526 1.476 1.336
3076.720 1.316 1.356 1.286 1.406 1.456 1.276 1.236 1.196 1.136 1.186
3096.009 1.196 1.146 1.076 1.0155 1.076 1.126 1.206 1.096 0.9855 1.0351
3115.299 1.0373 1.0308 0.9619 0.7926 0.7039 0.8278 0.806 0.6803 0.7495 0.8488
3134.589 0.7695 0.6635 0.6643 0.7975 0.9832 0.9831 0.8356 0.7821 0.7631 0.7577
3153.879 0.7264 0.6708 0.7137 0.6817 0.6773 0.7316 0.7622 0.8055 0.8378 0.7937
3173.169 0.7979 0.8391 0.8783 0.9021 0.8393 0.9576 1.0611 0.8635 0.6859 0.7961
3192.458 0.9477 0.9243 0.9841 1.0629 1.0436 1.022 0.9707 0.9016 0.7867 0.8532
3211.748 1.0059 0.9778 0.9322 0.896 0.8283 0.8123 0.807 0.7867 0.8686 0.9873
3231.038 1.0014 0.8928 0.7471 0.669 0.5784 0.6063 0.7011 0.7315 0.7514 0.7747
3250.328 0.7004 0.544 0.5939 0.5488 0.4724 0.5816 0.5886 0.526 0.4712 0.4075
3269.617 0.357 0.3698 0.4432 0.3886 0.3568 0.3736 0.3592 0.4476 0.5367 0.4765
3288.907 0.4784 0.5242 0.4601 0.4139 0.3571 0.3843 0.4208 0.3974 0.4442 0.4903
3308.197 0.4892 0.5282 0.6513 0.7034 0.7447 0.8838 0.9282 0.9722 1.07 1.0596
3327.487 1.0745 1.176 1.246 1.336 1.256 1.096 1.0715 1.096 1.096 1.076
3346.777 1.0464 0.7728 0.6394 0.6753 0.6158 0.6372 0.5994 0.5363 0.5508 0.4978
3366.066 0.4841 0.415 0.2979 0.2917 0.2175 0.1988 0.2546 0.2665 0.2742 0.2313
3385.356 0.16305 0.1974 0.3101 0.3064 0.2482 0.3086 0.3652 0.3892 0.3747 0.3257
3404.646 0.3345 0.2532 0.2197 0.3462 0.3271 0.3229 0.3431 0.2384 0.2481 0.261
3423.936 0.2594 0.3856 0.3585 0.2847 0.3301 0.2884 0.318 0.2729 0.17428 0.409
3443.225 0.5064 0.371 0.3136 0.243 0.1843 0.283 0.4154 0.3572 0.281 0.285
3462.515 0.2136 0.2298 0.2929 0.2407 0.11695 0.08704 0.2064 0.1831 0.0565 0.10814
3481.805 0.2545 0.315 0.3088 0.2988 0.2381 0.16562 0.09149 0.0208 0.13975 0.10751
3501.095 0.11162 0.3336 0.3236 0.12568 0.10695 0.12979 0.0651 0.11968 0.1947 0.207
3520.385 0.10862 0.1978 0.3905 0.3014 0.1855 0.10655 0.1867 0.2203 0.1585 0.2266
3539.674 0.2129 0.211 0.14057 0.085598 0.201 0.17508 0.16707 0.2918 0.3551 0.3446
3558.964 0.2543 0.2649 0.202 0.2324 0.3139 0.2044 0.2456 0.3261 0.2812 0.3285
3578.254 0.3842 0.17254 0.10865 0.2338 0.2972 0.422 0.2456 0.12081 0.2815 0.2414
3597.544 0.10752 0.0321 0.08948 0.2201 0.2369 0.2988 0.2677 0.12155 0.0573 0.13845
3616.833 0.1761 0.1946 0.3402 0.2353 0.13294 0.1715 0.221 0.1953 0.2476 0.2919
3636.123 0.2003 0.2224 0.3178 0.2664 0.13368 0.2012 0.2866 0.2503 0.11959 0.084885
3655.413 0.1803 0.2312 0.2104 0.2065 0.2952 0.3048 0.2274 0.2211 0.3072 0.2802
3674.703 0.2298 0.17316 0.1944 0.24 0.1961 0.16932 0 0.0212 0.1812 0.15929
3693.993 0.16988 0.1847 0.10376 0.1841 0.3372 0.2739 0.11018 0.1824 0.3515 0.3212
3713.282 0.2292 0.1983 0.2127 0.2064 0.2039 0.2338 0.17094 0.10161 0.11731 0.12999
3732.572 0.1681 0.2471 0.3794 0.4117 0.289 0.2046 0.14816 0.16935 0.2397 0.12794
3751.862 0.09773 0.2484 0.3268 0.3553 0.3385 0.2569 0.3439 0.3855 0.3335 0.3636
3771.152 0.4187 0.3922 0.2797 0.2969 0.32 0.3503 0.3953 0.3033 0.2165 0.3041
3790.441 0.3748 0.2779 0.1302 0.16137 0.16572 0.13671 0.2912 0.3122 0.3761 0.3744
3809.731 0.1781 0.11214 0.1993 0.3503 0.3632 0.275 0.2633 0.2288 0.14453 0.13548
3829.021 0.1717 0.154 0.12884 0.10963 0.09772 0.1788 0.3012 0.3805 0.3387 0.2523
3848.311 0.2862 0.2989 0.2098 0.2989 0.4208 0.4064 0.3825 0.3686 0.2894 0.277
3867.601 0.246 0.25 0.3824 0.4834 0.3571 0.15297 0.16286 0.1823 0.1931 0.1952
3886.890 0.2415 0.339 0.3569 0.2613 0.2887 0.2433 0.09338 0.10083 0.08908 0.2326
3906.180 0.3249 0.2624 0.3075 0.2894 0.2635 0.332 0.5395 0.6682 0.5161 0.3191
3925.470 0.3215 0.3617 0.275 0.2627 0.3121 0.3923 0.4796 0.4926 0.4476 0.4293
3944.760 0.3723 0.3892 0.3797 0.3638 0.3894 0.3792 0.4856 0.4069 0.2857 0.2764
3964.049 0.3398 0.3796 0.3873 0.413 0.3415 0.2829 0.3762 0.464 0.3759 0.3292
3983.339 0.4779 0.566 0.4257 0.3325 0.3809 0.2201 0.0601 0.2085 0.3736 0.3968
##END=
