##TITLE=4-Dimethylaminobenzhydrazide
##JCAMP-DX=4.24
##DATA TYPE=INFRARED SPECTRUM
##ORIGIN=EPA-IR VAPOR PHASE LIBRARY
##OWNER=SRD/NIST
Collection (C) 2018 copyright by the U.S. Secretary of Commerce
on behalf of the United States of America. All rights reserved.
##CAS REGISTRY NO=19353-92-5
##MOLFORM=C 9 H 13 N 3 O
##$NIST SOURCE=MSDC-IR
##STATE=gas
##XUNITS=1/CM
##YUNITS=ABSORBANCE
##XFACTOR=1.
##YFACTOR=0.001
##DELTAX=1.92898
##FIRSTX=549.8
##LASTX=4000.7
##FIRSTY=0.5203
##MAXX=4000.7
##MINX=549.759
##MAXY=0.016569
##MINY=0
##NPOINTS=1790
##XYDATA=(X++(Y..Y))
549.759 0.5203 0.5404 0.8428 1.1384 1.5149 1.5128 0.9589 0.8815 0.7208 0.5302
569.049 0.7914 0.9962 0.9693 1.05 1.3828 1.2302 0.9289 1.0709 1.3097 1.4543
588.339 1.5008 1.639 1.579 1.3426 1.1878 1.2305 1.18 1.0528 1.2599 1.0235
607.628 0.7522 0.9295 1.0432 0.6755 0.4613 0.7277 0.8793 1.0498 0.8337 0.7015
626.918 0.7408 0.8322 1.0706 1.0116 0.9949 1.0434 0.9429 0.9152 1.0251 0.8828
646.208 0.7783 0.8572 0.9356 1.028 1.0095 0.9068 0.7344 0.8396 0.9253 0.8504
665.498 0.9586 0.9364 1.0044 1.0049 0.9217 0.8296 0.8113 1.0922 1.1867 1.1334
684.787 1.1017 0.9034 0.84 0.9088 0.9532 1.0881 0.9824 1.0678 1.2231 1.1058
704.077 0.9708 1.0548 1.0686 0.9621 0.9879 0.8789 0.7848 0.8669 0.9548 0.9001
723.367 0.8151 0.8504 0.867 0.8306 1.005 1.05 0.852 0.7528 0.7554 0.8689
742.657 1.0907 1.0093 0.9961 1.0719 1.2488 1.629 1.659 1.599 1.859 1.949
761.947 1.709 1.5244 1.5259 1.599 1.5172 1.5378 1.3106 1.1973 1.2322 1.1635
781.236 1.1996 1.0762 1.2499 1.4245 1.2481 1.1303 1.0955 1.1854 1.2643 1.0428
800.526 1.0284 1.2215 1.2138 1.4052 1.639 1.559 1.4485 1.599 1.869 1.959
819.816 2.039 2.529 2.649 2.559 2.699 2.629 2.639 2.539 2.379 2.239
839.106 2.189 2.079 1.719 1.4936 1.4111 1.3554 1.141 0.9665 0.9463 0.9806
858.395 0.9279 0.7876 0.8246 0.7154 0.7309 0.9365 0.9522 0.9124 0.9243 1.0463
877.685 1.0826 1.0885 1.1049 1.0238 0.9326 1.1028 1.4027 1.579 1.2503 0.8806
896.975 1.1605 1.4848 1.4844 1.559 1.819 1.879 1.959 2.149 2.289 2.649
916.265 2.949 3.049 3.369 3.679 4.019 4.369 4.729 5.239 5.719 6.209
935.555 6.599 6.719 6.799 6.649 6.219 5.619 4.959 4.289 3.579 3.089
954.844 2.769 2.319 2.099 1.929 1.739 1.5333 1.2197 1.3405 1.3735 1.268
974.134 1.1607 1.1009 0.9804 0.9416 0.9419 0.8158 0.9093 0.9235 0.9761 1.0124
993.424 0.9675 0.9925 0.9836 1.0312 0.9542 0.9936 1.1293 0.9684 0.9415 0.9017
1012.714 0.8466 0.8395 0.61148 0.459 0.57597 0.57068 0.366 0.60793 0.9316 1.01
1032.003 1.1098 1.0042 0.8865 0.8026 1.1274 1.4834 1.4704 1.466 1.4929 1.1429
1051.293 1.1557 1.4893 1.1937 1.0638 1.669 1.909 0.9227 0.7844 1.3063 1.3612
1070.583 1.659 1.859 1.779 1.859 1.859 1.689 1.709 1.5584 1.3707 1.659
1089.873 1.839 1.554 0.9494 0.8077 1.3058 1.2529 1.2377 1.4434 1.4963 1.361
1109.163 1.1521 1.0895 1.3476 1.949 1.939 1.2677 1.4633 2.069 1.809 1.789
1128.452 1.4915 1.649 2.039 2.099 2.479 2.359 2.349 2.379 2.699 3.299
1147.742 3.439 3.519 3.819 4.459 4.849 4.769 4.789 4.939 4.949 5.119
1167.032 5.249 4.889 4.679 3.969 3.509 3.799 3.489 3.119 3.059 3.319
1186.322 3.209 3.309 4.009 4.569 4.839 5.079 5.469 5.709 5.439 4.909
1205.611 4.589 4.239 4.229 4.249 3.359 2.979 3.099 2.879 3.169 3.009
1224.901 2.869 3.049 2.769 2.439 2.369 2.489 2.269 2.139 2.089 1.969
1244.191 2.119 2.229 2.239 2.329 2.609 2.769 2.839 2.979 3.129 3.399
1263.481 3.869 4.149 4.589 5.459 6.259 7.119 7.889 8.639 9.329 9.619
1282.771 9.669 9.629 9.239 8.569 7.809 7.009 6.329 5.689 5.199 4.879
1302.060 4.549 4.099 3.769 3.509 3.229 3.119 2.999 2.839 2.749 2.809
1321.350 2.859 2.849 2.919 3.029 3.179 3.349 3.529 3.729 4.069 4.379
1340.640 4.689 5.089 5.469 5.899 6.369 6.719 6.949 7.079 7.029 6.789
1359.930 6.399 5.809 5.279 4.799 4.219 3.749 3.359 3.009 2.709 2.579
1379.219 2.439 2.289 2.209 2.159 2.089 2.079 2.079 2.069 2.129 2.179
1398.509 2.289 2.429 2.569 2.699 2.789 2.929 3.089 3.229 3.489 3.719
1417.799 3.879 4.139 4.489 4.849 5.229 5.729 6.369 7.109 7.889 8.819
1437.089 9.929 10.909 11.609 12.029 12.079 11.829 11.299 10.519 9.679 8.859
1456.378 8.059 7.439 6.959 6.529 6.169 5.859 5.699 5.569 5.439 5.269
1475.668 4.969 4.849 4.879 4.749 4.589 4.449 4.299 4.129 3.889 3.769
1494.958 3.689 3.589 3.559 3.589 3.669 3.749 4.029 4.329 4.579 4.959
1514.248 5.389 5.849 6.249 6.499 6.569 6.529 6.319 5.929 5.409 4.869
1533.538 4.469 4.089 3.599 3.249 3.019 2.799 2.749 2.739 2.639 2.479
1552.827 2.499 2.549 2.419 2.289 2.359 2.449 2.509 2.469 2.289 2.149
1572.117 2.179 2.319 2.449 2.539 2.689 2.929 3.249 3.589 4.019 4.699
1591.407 5.339 6.019 7.079 8.219 9.419 10.849 12.289 13.929 15.359 16.239
1610.697 16.569 16.099 15.069 13.399 11.399 9.539 7.929 6.639 5.849 5.469
1629.986 5.169 4.909 4.679 4.489 4.289 4.109 3.829 3.539 3.319 3.109
1649.276 2.949 2.909 2.749 2.539 2.499 2.559 2.599 2.649 2.749 2.799
1668.566 2.869 3.039 3.209 3.459 3.919 4.429 5.089 5.889 6.889 8.239
1687.856 9.559 10.769 11.669 12.169 12.369 12.319 11.839 10.659 9.229 7.839
1707.146 6.619 5.559 4.799 4.239 3.649 3.149 2.879 2.719 2.439 2.179
1726.435 2.069 1.959 1.869 1.709 1.639 1.579 1.4362 1.3392 1.2622 1.2314
1745.725 1.1745 1.1059 1.0491 1.066 1.1259 1.1108 1.1046 1.0451 0.9571 0.9312
1765.015 0.8965 0.8907 0.9128 0.8533 0.8262 0.8011 0.7443 0.764 0.7794 0.7643
1784.305 0.7428 0.7259 0.7513 0.7144 0.7551 0.8222 0.7501 0.7136 0.7326 0.7567
1803.594 0.7707 0.7331 0.7243 0.758 0.7632 0.7173 0.6617 0.6669 0.6819 0.6822
1822.884 0.6729 0.64965 0.60938 0.60773 0.6432 0.65729 0.6716 0.6726 0.64482 0.65022
1842.174 0.6695 0.6688 0.6731 0.6855 0.62573 0.61444 0.62044 0.61159 0.64506 0.6623
1861.464 0.6461 0.6269 0.6812 0.7016 0.64872 0.59919 0.6895 0.7415 0.678 0.6902
1880.754 0.7771 0.8081 0.7476 0.7252 0.6976 0.6723 0.7075 0.723 0.6645 0.64509
1900.043 0.6929 0.6684 0.7075 0.747 0.6861 0.7035 0.7106 0.6773 0.6817 0.6703
1919.333 0.7002 0.7348 0.7083 0.7204 0.6633 0.6675 0.7031 0.6737 0.7311 0.7256
1938.623 0.60773 0.60534 0.6746 0.63298 0.6057 0.61858 0.57609 0.5925 0.64818 0.612
1957.913 0.55619 0.5453 0.5301 0.59468 0.63197 0.558384 0.55527 0.5576 0.5122 0.5323
1977.202 0.57151 0.5307 0.54995 0.5314 0.5149 0.58686 0.5464 0.544 0.62414 0.57459
1996.492 0.55093 0.5064 0.44 0.5279 0.516 0.459 0.55702 0.57575 0.5354 0.558458
2015.782 0.5409 0.5261 0.561098 0.5878 0.59974 0.567871 0.5034 0.5194 0.55221 0.5711
2035.072 0.61671 0.5443 0.4791 0.5328 0.561559 0.57282 0.483 0.4685 0.58118 0.5358
2054.362 0.5114 0.55269 0.5361 0.5234 0.566361 0.567977 0.57115 0.543 0.4976 0.5165
2073.651 0.5308 0.5315 0.5485 0.58227 0.57391 0.562134 0.58474 0.5153 0.399 0.4724
2092.941 0.5239 0.62017 0.7465 0.6958 0.62742 0.6668 0.6828 0.64782 0.674 0.64635
2112.231 0.61817 0.564074 0.5312 0.55218 0.4713 0.47 0.558184 0.57135 0.4972 0.441
2131.521 0.464 0.4767 0.391 0.371 0.506 0.455 0.435 0.5425 0.5322 0.5092
2150.810 0.5128 0.4714 0.448 0.4723 0.566372 0.62335 0.54921 0.5358 0.58344 0.5383
2170.100 0.4751 0.452 0.454 0.443 0.454 0.5126 0.4913 0.458 0.5233 0.5147
2189.390 0.4626 0.457 0.399 0.37 0.424 0.5131 0.562417 0.5007 0.5017 0.5479
2208.680 0.5472 0.57648 0.55335 0.5029 0.4803 0.4793 0.419 0.379 0.405 0.5126
2227.970 0.59585 0.6085 0.59027 0.54939 0.4925 0.439 0.457 0.4658 0.502 0.59163
2247.259 0.59368 0.5468 0.55015 0.4985 0.5115 0.5146 0.443 0.426 0.446 0.55352
2266.549 0.58984 0.57878 0.568962 0.4753 0.4707 0.59164 0.565949 0.5127 0.56015 0.5261
2285.839 0.511 0.5355 0.5066 0.432 0.4906 0.59312 0.57589 0.4886 0.448 0.5253
2305.129 0.57047 0.5311 0.439 0.4863 0.4787 0.4595 0.5155 0.4983 0.448 0.442
2324.418 0.4672 0.4935 0.5409 0.5394 0.57332 0.5436 0.429 0.404 0.432 0.436
2343.708 0.5137 0.55089 0.56952 0.61358 0.55392 0.549 0.57776 0.4983 0.432 0.4597
2362.998 0.497 0.5282 0.564294 0.558358 0.5212 0.4693 0.433 0.463 0.5364 0.4788
2382.288 0.4604 0.537 0.4815 0.426 0.5022 0.5431 0.5541 0.5314 0.4623 0.5421
2401.578 0.559098 0.57071 0.60122 0.5354 0.55358 0.5037 0.4619 0.5189 0.5315 0.4766
2420.867 0.451 0.5091 0.4815 0.4936 0.59015 0.56948 0.55115 0.57564 0.558554 0.61396
2440.157 0.60078 0.5239 0.57548 0.6897 0.65118 0.4893 0.385 0.457 0.57847 0.563287
2459.447 0.4923 0.5384 0.5828 0.4873 0.4738 0.562976 0.65709 0.7017 0.7104 0.63687
2478.737 0.61882 0.59808 0.5181 0.5302 0.58925 0.58539 0.5217 0.60101 0.6889 0.65033
2498.026 0.560316 0.5691 0.63482 0.63576 0.61475 0.566977 0.59827 0.65182 0.7233 0.7984
2517.316 0.7155 0.62053 0.7052 0.8365 0.7413 0.64795 0.6913 0.57313 0.44 0.4831
2536.606 0.58089 0.55922 0.513 0.57111 0.6852 0.64169 0.57285 0.62287 0.61874 0.60777
2555.896 0.560744 0.5961 0.6982 0.6623 0.62606 0.64976 0.63076 0.58296 0.6885 0.7691
2575.186 0.6595 0.65362 0.7425 0.7879 0.764 0.6785 0.7221 0.7245 0.62004 0.61105
2594.475 0.6612 0.7751 0.8812 0.89 0.7178 0.63724 0.7051 0.6846 0.65133 0.7486
2613.765 0.7134 0.6008 0.59359 0.6943 0.7682 0.6633 0.60567 0.58101 0.5478 0.5396
2633.055 0.60648 0.65405 0.63603 0.64322 0.62439 0.63961 0.62871 0.563172 0.6138 0.7236
2652.345 0.7732 0.7014 0.63695 0.6675 0.7028 0.6693 0.6755 0.7124 0.7188 0.62796
2671.634 0.5104 0.59421 0.7287 0.6822 0.64574 0.65458 0.7005 0.65536 0.5066 0.5058
2690.924 0.4651 0.5027 0.61186 0.7051 0.8061 0.8146 0.8246 0.9088 0.869 0.7348
2710.214 0.6682 0.7069 0.766 0.8086 0.8203 0.729 0.7362 0.8283 0.8028 0.7053
2729.504 0.735 0.7484 0.7267 0.8012 0.7709 0.7684 0.8521 0.7953 0.7796 0.7701
2748.794 0.7598 0.7687 0.7079 0.7926 0.8798 0.8469 0.9699 1.1465 1.1584 1.0526
2768.083 1.0076 1.0468 1.0433 1.1986 1.3653 1.3447 1.2935 1.2978 1.4573 1.609
2787.373 1.699 1.849 1.969 2.109 2.259 2.329 2.399 2.509 2.669 2.729
2806.663 2.659 2.839 2.899 2.709 2.619 2.639 2.669 2.709 2.679 2.469
2825.953 2.389 2.339 2.259 2.119 2.099 2.149 2.199 2.279 2.299 2.289
2845.242 2.339 2.409 2.469 2.559 2.589 2.589 2.599 2.669 2.629 2.639
2864.532 2.779 2.759 2.679 2.619 2.709 2.819 2.719 2.559 2.649 2.879
2883.822 2.879 2.679 2.619 2.619 2.609 2.699 2.739 2.729 2.709 2.789
2903.112 2.679 2.649 2.679 2.599 2.559 2.599 2.609 2.489 2.579 2.689
2922.401 2.719 2.719 2.639 2.729 2.849 2.739 2.569 2.659 2.759 2.809
2941.691 2.879 2.859 2.789 2.809 2.889 2.869 2.799 2.739 2.769 2.699
2960.981 2.629 2.549 2.529 2.589 2.479 2.339 2.289 2.279 2.219 2.149
2980.271 2.179 2.129 2.039 2.069 2.049 1.939 1.919 1.989 1.939 1.999
2999.561 1.979 1.819 1.659 1.609 1.599 1.3826 1.4072 1.5267 1.466 1.3339
3018.850 1.3441 1.363 1.2725 1.2199 1.3278 1.4387 1.4025 1.414 1.472 1.5345
3038.140 1.569 1.5234 1.4841 1.5348 1.5303 1.53 1.4917 1.3473 1.1379 1.0789
3057.430 1.0498 0.9523 0.8404 0.8044 0.9563 1.0469 1.122 1.1435 1.2515 1.3657
3076.720 1.1591 1.0269 1.1899 1.1402 1.1055 1.2417 1.1425 1.1975 1.1814 1.0304
3096.009 1.0274 1.0851 1.1455 1.0356 0.9585 0.9128 0.9602 1.0826 0.9946 0.9398
3115.299 1.0297 1.0031 0.7206 0.62933 0.7791 0.7526 0.7098 0.8116 0.8649 0.7472
3134.589 0.58312 0.5389 0.6608 0.60783 0.425 0.5105 0.455 0.211 0.306 0.401
3153.879 0.289 0.382 0.5247 0.38 0.422 0.4822 0.382 0.411 0.5058 0.558537
3173.169 0.416 0.459 0.55093 0.4991 0.456 0.387 0.5246 0.55383 0.391 0.4597
3192.458 0.475 0.4823 0.448 0.403 0.54976 0.55714 0.60267 0.6879 0.57409 0.5182
3211.748 0.55079 0.4742 0.57112 0.65378 0.7411 0.6789 0.384 0.377 0.455 0.4614
3231.038 0.355 0.279 0.324 0.439 0.454 0.442 0.43 0.409 0.351 0.274
3250.328 0.428 0.561419 0.59769 0.558001 0.5147 0.4633 0.363 0.278 0.356 0.55278
3269.617 0.45 0.36 0.378 0.43 0.388 0.361 0.421 0.365 0.298 0.332
3288.907 0.565465 0.6832 0.57274 0.5431 0.57757 0.5057 0.5159 0.424 0.28 0.225
3308.197 0.397 0.5227 0.459 0.58563 0.7249 0.7411 0.5378 0.432 0.58333 0.5424
3327.487 0.52 0.59121 0.448 0.4925 0.63342 0.454 0.262 0.373 0.44 0.298
3346.777 0.215 0.382 0.5184 0.447 0.382 0.5091 0.4882 0.375 0.437 0.4982
3366.066 0.4965 0.55364 0.56991 0.5031 0.421 0.433 0.57137 0.455 0.356 0.391
3385.356 0.5227 0.5214 0.4602 0.55654 0.5141 0.4823 0.4772 0.378 0.448 0.454
3404.646 0.199 0.119 0.219 0.335 0.536 0.59322 0.385 0.427 0.59055 0.58175
3423.936 0.55221 0.445 0.5471 0.63742 0.6925 0.7964 0.7477 0.6825 0.723 0.7745
3443.225 0.8914 0.9994 1.031 1.035 0.8838 0.8364 0.9335 0.999 1.1048 1.2876
3462.515 1.3357 1.3476 1.3557 1.4438 1.569 1.609 1.619 1.569 1.5096 1.649
3481.805 1.579 1.2563 1.1161 0.9945 0.8592 0.7733 0.8153 0.8564 0.8421 0.6866
3501.095 0.427 0.5472 0.65371 0.561231 0.6874 0.792 0.7071 0.58813 0.5443 0.5017
3520.385 0.559124 0.377 0.306 0.4965 0.375 0.366 0.4661 0.4591 0.424 0.304
3539.674 0.342 0.325 0.395 0.346 0.3 0.232 0.04 0.246 0.428 0.393
3558.964 0.265 0.388 0.5014 0.41 0.251 0.319 0.496 0.57053 0.5397 0.447
3578.254 0.4633 0.408 0.375 0.448 0.355 0.325 0.436 0.374 0.299 0.257
3597.544 0.334 0.419 0.5485 0.59547 0.459 0.379 0.246 0.355 0.57273 0.4671
3616.833 0.418 0.377 0.308 0.39 0.277 0.109 0.087 0.125 0.366 0.65464
3636.123 0.61249 0.419 0.285 0.304 0.406 0.365 0.263 0.365 0.5396 0.559643
3655.413 0.504 0.38 0.313 0.318 0.33 0.326 0.433 0.4651 0.318 0.4831
3674.703 0.5424 0.487 0.4883 0.455 0.39 0.372 0.406 0.401 0.437 0.434
3693.993 0.325 0.26 0.212 0.087 0.269 0.293 0.277 0.289 0.123 0.234
3713.282 0.419 0.4696 0.4795 0.4952 0.5236 0.448 0.4961 0.5272 0.331 0.275
3732.572 0.301 0.231 0.116 0.119 0.329 0.5095 0.5127 0.426 0.5414 0.7322
3751.862 0.59758 0.456 0.361 0.52 0.5198 0.425 0.424 0.38 0.4966 0.4665
3771.152 0.317 0.356 0.4778 0.438 0.5215 0.5326 0.45 0.393 0.22 0.182
3790.441 0.344 0.4859 0.449 0.307 0.166 0.194 0.379 0.446 0.5034 0.55192
3809.731 0.433 0.349 0.341 0.477 0.449 0.26 0.26 0.344 0.434 0.458
3829.021 0.453 0.407 0.405 0.387 0.293 0.279 0.351 0.252 0.08 0.181
3848.311 0.383 0.4728 0.431 0.4896 0.63381 0.64619 0.65449 0.55478 0.433 0.292
3867.601 0.267 0.382 0.398 0.334 0.362 0.375 0.423 0.54976 0.384 0.344
3886.890 0.4979 0.452 0.418 0.444 0.365 0.406 0.4806 0.36 0.345 0.57232
3906.180 0.5031 0.55196 0.64797 0.402 0.392 0.4779 0.333 0.152 0.215 0.359
3925.470 0.391 0.356 0.265 0.093 0 0.185 0.362 0.4647 0.5064 0.4851
3944.760 0.5195 0.421 0.321 0.338 0.4744 0.56193 0.4939 0.476 0.437 0.44
3964.049 0.5369 0.422 0.5129 0.58455 0.357 0.238 0.4682 0.65121 0.564861 0.4955
3983.339 0.326 0.311 0.55346 0.64448 0.445 0.371 0.359 0.181 0.134 0.223
##END=
