##TITLE=2-Biphenylisothiocyanate
##JCAMP-DX=4.24
##DATA TYPE=INFRARED SPECTRUM
##ORIGIN=EPA-IR VAPOR PHASE LIBRARY
##OWNER=SRD/NIST
Collection (C) 2018 copyright by the U.S. Secretary of Commerce
on behalf of the United States of America. All rights reserved.
##CAS REGISTRY NO=19394-61-7
##MOLFORM=C 13 H 9 N S
##$NIST SOURCE=MSDC-IR
##STATE=gas
##XUNITS=1/CM
##YUNITS=ABSORBANCE
##XFACTOR=1.
##YFACTOR=0.001
##DELTAX=3.85796
##FIRSTX=551.7
##LASTX=4000.7
##FIRSTY=22.905
##MAXX=4000.7
##MINX=551.688
##MAXY=0.378225
##MINY=0
##NPOINTS=895
##XYDATA=(X++(Y..Y))
551.688 22.905 20.235 17.505 15.695 13.995 12.415 11.005 9.695 8.745 7.845
590.268 6.985 6.215 5.705 5.455 5.635 6.605 7.575 7.745 6.725 5.065
628.847 4.075 3.995 4.235 4.495 5.085 5.815 6.795 8.095 9.465 11.445
667.427 14.415 18.145 22.125 25.175 27.025 29.815 37.055 45.895 49.585 44.635
706.006 32.615 21.955 16.375 14.355 14.455 15.945 18.195 21.735 30.175 49.475
744.586 76.775 105.655 112.115 86.415 57.795 36.505 23.085 15.855 11.315 8.585
783.165 7.115 6.585 6.115 5.635 5.025 4.375 3.685 3.095 2.585 2.345
821.745 2.465 2.515 2.505 2.765 3.205 3.545 3.685 3.665 3.395 3.055
860.324 2.825 2.585 2.435 2.335 2.265 2.405 2.625 2.985 3.505 4.395
898.904 5.425 6.585 8.285 10.595 13.215 16.165 19.505 22.865 26.115 28.865
937.484 30.525 30.685 28.745 25.435 21.925 18.525 15.295 12.215 9.635 7.755
976.063 6.485 5.545 4.975 4.805 4.885 5.385 6.985 10.525 13.545 13.765
1014.643 11.365 6.945 3.935 3.185 2.825 2.655 2.615 2.905 3.535 3.815
1053.222 3.635 3.395 3.705 4.435 4.985 5.145 4.285 2.985 2.285 1.925
1091.802 1.805 1.985 2.345 3.095 3.955 4.565 4.475 3.565 2.355 1.595
1130.381 1.3007 1.1767 1.1601 1.206 1.2744 1.2515 1.243 1.1888 1.1435 1.128
1168.961 1.1737 1.335 1.845 2.385 2.455 2.195 1.815 1.835 1.995 1.935
1207.540 2.005 2.275 2.415 2.605 3.215 3.875 4.445 5.105 5.505 5.625
1246.120 5.795 6.205 7.005 7.695 8.135 8.555 8.705 8.525 7.845 6.675
1284.699 5.375 4.345 3.675 3.265 2.965 2.665 2.345 2.125 2.055 2.025
1323.279 2.035 2.085 2.055 1.845 1.595 1.435 1.385 1.365 1.375 1.385
1361.859 1.435 1.625 1.845 2.035 2.185 2.325 2.415 2.555 2.755 3.025
1400.438 3.465 4.155 5.125 6.215 7.335 8.835 11.115 14.235 17.645 20.395
1439.018 21.665 20.995 18.795 16.255 14.655 14.985 18.425 26.745 39.345 50.285
1477.597 52.415 43.695 29.145 18.125 14.155 13.545 12.965 11.495 9.175 7.055
1516.177 5.735 5.115 4.925 4.895 4.865 4.815 4.725 4.705 4.995 5.695
1554.756 6.985 9.225 12.305 15.525 17.925 18.635 18.055 17.455 18.285 20.415
1593.336 22.215 22.265 19.985 16.285 12.565 9.635 7.615 6.215 5.085 4.225
1631.915 3.655 3.255 2.995 2.855 2.785 2.785 2.815 2.855 2.995 3.165
1670.495 3.305 3.435 3.645 3.965 4.255 4.355 4.245 3.965 3.565 3.275
1709.075 3.205 3.305 3.595 3.865 3.935 3.805 3.535 3.355 3.375 3.455
1747.654 3.455 3.335 3.185 3.085 3.135 3.265 3.465 3.675 3.855 4.135
1786.234 4.645 5.465 6.395 6.985 7.005 6.455 5.775 5.365 5.255 5.285
1824.813 5.435 5.675 5.825 5.815 5.715 5.565 5.575 5.815 6.195 6.635
1863.393 7.165 7.825 8.515 9.115 9.615 9.935 10.035 9.945 9.835 9.975
1901.972 10.605 11.695 12.915 13.945 14.645 15.155 15.935 17.405 19.655 22.625
1940.552 25.965 28.955 31.345 33.595 36.115 39.285 43.185 47.785 53.265 59.805
1979.131 67.395 75.955 85.575 96.415 108.515 121.905 136.785 152.945 170.385 189.305
2017.711 209.625 231.245 253.945 277.265 300.495 322.685 342.715 359.135 370.775 377.255
2056.291 378.225 373.425 362.915 347.585 330.465 316.595 309.165 307.905 310.375 312.585
2094.870 310.445 300.975 282.825 257.445 228.735 201.155 178.185 161.065 148.735 139.115
2133.450 130.065 120.555 110.575 100.715 91.725 83.945 77.385 71.935 67.265 63.025
2172.029 59.005 55.035 51.055 47.085 43.195 39.435 35.845 32.525 29.425 26.405
2210.609 23.405 20.525 17.835 15.295 13.015 11.105 9.525 8.305 7.365 6.575
2249.188 5.975 5.425 4.925 4.555 4.275 4.045 3.865 3.635 3.425 3.275
2287.768 3.085 2.955 2.905 2.835 2.855 3.055 3.335 3.565 3.675 3.595
2326.347 3.435 3.355 3.405 3.475 3.485 3.455 3.345 3.215 3.115 3.075
2364.927 3.115 3.175 3.125 3.025 2.915 2.775 2.675 2.535 2.415 2.385
2403.507 2.375 2.405 2.455 2.505 2.495 2.535 2.605 2.645 2.745 2.865
2442.086 3.105 3.315 3.495 3.735 3.935 4.005 4.065 4.165 4.195 4.175
2480.666 4.165 4.235 4.335 4.455 4.615 4.665 4.635 4.585 4.545 4.545
2519.245 4.525 4.545 4.565 4.565 4.595 4.645 4.695 4.725 4.735 4.745
2557.825 4.815 4.915 5.025 5.085 5.105 5.195 5.255 5.275 5.195 5.015
2596.404 4.705 4.335 3.915 3.415 3.025 2.705 2.355 2.115 1.945 1.785
2634.984 1.705 1.635 1.545 1.415 1.315 1.2992 1.2818 1.238 1.2337 1.2557
2673.563 1.289 1.325 1.355 1.385 1.455 1.585 1.705 1.845 1.945 2.055
2712.143 2.225 2.365 2.525 2.735 2.915 3.175 3.365 3.395 3.465 3.475
2750.722 3.405 3.335 3.185 2.985 2.905 2.845 2.775 2.705 2.595 2.515
2789.302 2.395 2.265 2.145 2.005 1.825 1.715 1.705 1.655 1.545 1.445
2827.882 1.405 1.445 1.475 1.505 1.465 1.375 1.365 1.395 1.405 1.375
2866.461 1.405 1.435 1.435 1.455 1.475 1.475 1.405 1.305 1.2925 1.267
2905.041 1.2104 1.1989 1.2231 1.1928 1.1557 1.2072 1.2546 1.345 1.425 1.575
2943.620 1.655 1.645 1.725 1.875 1.985 2.065 2.205 2.305 2.355 2.545
2982.200 2.815 3.005 3.165 3.415 3.815 4.155 4.615 5.485 6.835 8.905
3020.779 11.625 14.915 18.405 20.995 21.895 20.935 18.885 17.405 17.725 20.455
3059.359 26.045 34.135 42.385 47.145 46.555 41.145 34.135 28.045 22.665 17.895
3097.938 14.075 11.225 9.115 7.455 6.095 5.145 4.425 3.795 3.285 2.925
3136.518 2.705 2.455 2.205 1.935 1.645 1.405 1.1858 0.9297 0.7359 0.6899
3175.098 0.5906 0.497 0.4433 0.34243 0.301 0.32963 0.34996 0.3407 0.2787 0.2565
3213.677 0.2206 0.185 0.145 0.081 0.167 0.2384 0.143 0.101 0.101 0.076
3252.257 0.14 0.166 0.158 0.191 0.132 0.088 0.111 0.089 0.067 0.079
3290.836 0.047 0 0.032 0.093 0.115 0.121 0.12 0.139 0.077 0.043
3329.416 0.117 0.178 0.141 0.139 0.2115 0.202 0.207 0.165 0.107 0.107
3367.995 0.124 0.212 0.2459 0.2256 0.2352 0.3669 0.306833 0.124 0.174 0.2106
3406.575 0.195 0.145 0.179 0.295 0.38675 0.3567 0.30022 0.35789 0.35799 0.36012
3445.154 0.2911 0.2447 0.2852 0.31793 0.4219 0.33242 0.2734 0.4136 0.4598 0.4648
3483.734 0.4567 0.494 0.5117 0.4793 0.4287 0.32301 0.32108 0.35374 0.31884 0.36752
3522.314 0.29802 0.2417 0.34175 0.4537 0.4416 0.4334 0.4821 0.5664 0.6144 0.4688
3560.893 0.4248 0.33876 0.2245 0.218 0.2545 0.38132 0.33697 0.2479 0.34403 0.36527
3599.473 0.479 0.5743 0.405 0.4194 0.5363 0.5625 0.5652 0.5706 0.6505 0.6195
3638.052 0.6983 0.6936 0.6366 0.6727 0.7001 0.6989 0.6717 0.723 0.6494 0.678
3676.632 0.7641 0.7646 0.7427 0.7936 0.7668 0.7962 0.918 0.8539 0.7891 0.735
3715.211 0.6556 0.6823 0.6912 0.5081 0.4711 0.5575 0.6511 0.7443 0.6439 0.5712
3753.791 0.6358 0.7094 0.6628 0.6032 0.5571 0.5458 0.6504 0.7026 0.7028 0.7742
3792.370 0.7929 0.7651 0.9292 0.9402 0.8184 0.8711 1.0282 1.1152 1.0562 0.9749
3830.950 0.9244 0.9501 0.8722 0.6797 0.6357 0.7849 0.8235 0.7224 0.7622 0.7991
3869.530 0.728 0.6845 0.7103 0.8237 0.9976 0.9137 0.8075 0.8405 0.8626 0.8336
3908.109 0.7326 0.7528 1.018 1.2224 1.1829 1.0681 0.9741 1.0304 1.0935 1.1074
3946.689 1.0448 1.0355 1.1553 1.1229 1.0461 1.1333 1.365 1.405 1.3008 1.325
3985.268 1.425 1.485 1.525 1.635 1.605
##END=
