##TITLE=2'-Trifluoromethylbenzanilide
##JCAMP-DX=4.24
##DATA TYPE=INFRARED SPECTRUM
##ORIGIN=EPA-IR VAPOR PHASE LIBRARY
##OWNER=SRD/NIST
Collection (C) 2018 copyright by the U.S. Secretary of Commerce
on behalf of the United States of America. All rights reserved.
##CAS REGISTRY NO=1939-24-8
##MOLFORM=C 14 H 10 F 3 N O
##$NIST SOURCE=MSDC-IR
##STATE=gas
##XUNITS=1/CM
##YUNITS=ABSORBANCE
##XFACTOR=1.
##YFACTOR=0.001
##DELTAX=1.92898
##FIRSTX=549.8
##LASTX=4000.7
##FIRSTY=2.924
##MAXX=4000.7
##MINX=549.759
##MAXY=0.095444
##MINY=0
##NPOINTS=1790
##XYDATA=(X++(Y..Y))
549.759 2.924 2.734 3.064 2.714 2.384 2.504 2.544 2.534 2.564 2.454
569.049 2.514 2.684 2.764 3.074 3.284 3.564 3.844 4.084 4.554 5.174
588.339 5.804 6.204 6.074 5.894 5.404 4.394 3.594 3.014 2.564 2.474
607.628 2.374 2.154 1.994 1.984 2.034 1.754 1.494 1.434 1.284 1.1744
626.918 1.274 1.314 1.384 1.534 1.724 2.134 2.484 3.074 4.024 5.364
646.208 7.194 8.754 9.334 9.494 9.314 8.234 6.534 5.044 4.304 3.874
665.498 3.724 4.084 4.614 4.864 5.214 6.064 7.104 8.254 9.434 10.274
684.787 11.084 11.774 11.684 11.614 12.034 12.774 13.854 15.084 16.384 17.794
704.077 18.694 18.364 17.254 15.794 14.214 12.664 11.044 9.724 8.624 7.524
723.367 6.664 5.964 5.374 4.904 4.604 4.624 4.744 5.224 6.054 6.744
742.657 7.454 8.474 10.004 12.124 15.254 18.904 22.754 26.594 29.984 29.714
761.947 25.084 20.464 16.334 12.064 8.684 6.364 4.764 3.904 3.354 2.954
781.236 2.914 2.814 2.634 2.604 2.474 2.374 2.394 2.364 2.264 2.084
800.526 2.044 1.994 2.024 1.924 1.624 1.454 1.384 1.294 1.304 1.574
819.816 1.554 1.2146 1.068 1.0631 1.0849 1.215 1.364 1.424 1.334 1.334
839.106 1.504 1.514 1.434 1.404 1.2297 1.1561 1.264 1.414 1.564 1.534
858.395 1.304 1.274 1.474 1.504 1.584 1.844 1.964 1.814 1.934 2.154
877.685 2.234 2.504 2.674 2.854 3.204 3.204 3.074 3.174 3.274 3.114
896.975 2.864 2.794 2.684 2.574 2.464 2.154 1.794 1.814 1.854 1.724
916.265 1.654 1.644 1.584 1.554 1.554 1.714 1.874 1.604 1.604 1.724
935.555 1.814 2.004 2.074 2.414 2.604 2.584 2.874 3.164 3.224 2.854
954.844 2.354 2.124 1.914 1.724 1.534 1.434 1.434 1.314 1.304 1.384
974.134 1.374 1.564 1.724 1.964 1.874 1.574 1.744 1.964 1.884 1.894
993.424 2.014 2.144 2.524 2.754 2.914 2.954 2.964 3.044 2.964 3.264
1012.714 3.784 4.454 5.504 6.844 8.604 11.164 14.434 17.384 20.404 23.304
1032.003 24.934 25.384 25.024 23.974 22.014 18.574 15.424 13.414 12.034 11.414
1051.293 11.794 12.974 14.034 15.484 17.274 18.564 19.024 18.774 17.854 16.904
1070.583 15.524 14.294 13.604 13.284 13.604 14.154 14.714 14.854 15.784 17.024
1089.873 17.004 16.714 16.964 17.594 18.484 19.834 21.904 24.224 26.584 29.354
1109.163 32.724 36.874 41.544 47.574 55.214 63.194 71.284 77.664 80.924 80.954
1128.452 76.764 69.624 61.994 54.544 47.634 41.904 37.724 34.144 31.184 28.924
1147.742 26.814 25.504 24.974 24.324 24.194 24.624 25.844 27.584 29.684 33.214
1167.032 37.424 42.314 46.914 50.324 52.704 52.294 49.064 43.764 36.724 29.664
1186.322 23.604 18.584 14.714 12.044 10.304 9.404 8.574 8.054 8.234 8.474
1205.611 8.524 8.704 9.024 9.444 10.284 11.154 11.864 13.244 14.594 15.894
1224.901 18.044 20.204 22.184 24.024 26.144 28.364 30.714 33.374 35.994 38.934
1244.191 41.724 43.484 44.184 43.654 41.794 39.084 36.134 33.624 32.214 32.094
1263.481 33.424 36.584 41.124 46.624 52.934 59.664 66.484 72.884 78.584 82.824
1282.771 85.244 85.894 84.524 81.194 76.394 70.644 64.714 59.154 54.414 51.234
1302.060 49.894 50.474 52.824 56.844 62.654 70.284 79.224 87.844 93.934 95.444
1321.350 91.584 83.044 70.884 56.884 43.814 33.424 25.884 20.614 16.874 14.124
1340.640 12.144 10.634 9.484 8.614 7.924 7.404 6.954 6.494 6.054 5.624
1359.930 5.204 4.824 4.514 4.234 3.984 3.844 3.744 3.694 3.634 3.574
1379.219 3.534 3.494 3.504 3.484 3.504 3.514 3.494 3.524 3.594 3.674
1398.509 3.774 3.854 4.014 4.214 4.444 4.754 5.054 5.344 5.624 5.914
1417.799 6.324 6.824 7.474 8.284 9.274 10.534 12.244 14.484 17.284 20.734
1437.089 25.264 30.414 36.014 41.914 47.894 53.734 59.114 63.134 64.834 63.704
1456.378 59.094 51.424 42.644 33.714 26.024 20.284 16.524 14.144 12.854 12.214
1475.668 12.024 12.174 12.684 13.384 14.374 15.664 17.264 19.194 21.264 23.124
1494.958 24.554 25.524 26.174 26.634 27.214 28.384 30.484 33.374 37.004 41.314
1514.248 46.054 51.154 56.094 60.204 63.544 65.464 65.724 64.204 61.044 56.494
1533.538 50.824 44.754 39.154 33.814 28.994 24.914 21.654 19.024 16.844 15.144
1552.827 13.784 12.604 11.804 11.224 10.694 10.394 10.404 10.764 11.364 12.204
1572.117 13.444 15.164 17.444 20.254 23.894 28.514 33.784 39.354 44.344 47.574
1591.407 48.174 46.154 41.854 36.364 30.944 26.494 23.404 21.344 19.824 18.564
1610.697 17.284 15.934 14.684 13.254 11.874 10.734 9.704 8.764 7.914 7.234
1629.986 6.634 6.054 5.484 4.994 4.674 4.384 4.174 4.004 3.794 3.664
1649.276 3.594 3.564 3.564 3.474 3.464 3.524 3.624 3.774 3.884 4.054
1668.566 4.354 4.574 4.774 5.154 5.504 5.744 6.054 6.394 6.834 7.314
1687.856 7.874 8.654 9.544 10.604 12.174 14.234 16.714 19.994 23.804 28.484
1707.146 33.704 39.014 43.624 46.944 48.444 47.824 45.054 40.764 35.344 29.814
1726.435 24.964 21.154 18.054 15.664 13.764 12.164 10.904 9.784 8.914 8.154
1745.725 7.514 6.964 6.484 6.064 5.594 5.204 4.874 4.544 4.314 4.064
1765.015 3.714 3.454 3.234 3.094 2.974 2.654 2.474 2.384 2.194 2.054
1784.305 1.974 1.934 1.884 1.884 1.894 1.894 1.984 2.104 2.254 2.324
1803.594 2.344 2.384 2.414 2.304 2.154 2.064 1.984 1.914 1.794 1.664
1822.884 1.554 1.434 1.374 1.284 1.1411 1.0838 1.0674 1.045 1.06 1.0919
1842.174 1.102 1.071 1.1046 1.0869 0.9805 0.934 0.9522 0.9754 0.9703 0.9287
1861.464 0.8691 0.8909 0.9354 0.9556 0.9358 0.8797 0.8878 0.9612 1.0126 1.0581
1880.754 1.1515 1.254 1.314 1.334 1.414 1.454 1.464 1.504 1.544 1.574
1900.043 1.534 1.434 1.454 1.444 1.304 1.194 1.1194 1.0908 1.0996 1.1277
1919.333 1.1446 1.1992 1.264 1.384 1.434 1.404 1.364 1.304 1.304 1.2164
1938.623 1.1657 1.1198 1.0767 1.1493 1.2309 1.284 1.334 1.464 1.604 1.614
1957.913 1.574 1.644 1.634 1.564 1.534 1.444 1.324 1.2257 1.1754 1.0723
1977.202 0.9416 0.8525 0.7799 0.7211 0.605 0.5566 0.6011 0.5905 0.6265 0.6569
1996.492 0.6287 0.6441 0.6246 0.5874 0.5985 0.6133 0.6467 0.6242 0.5229 0.4939
2015.782 0.5671 0.6257 0.5776 0.5465 0.5753 0.5455 0.5064 0.5045 0.517 0.5064
2035.072 0.4831 0.4793 0.4548 0.4261 0.4496 0.4999 0.5013 0.4914 0.4913 0.4805
2054.362 0.4689 0.4732 0.5251 0.5709 0.5885 0.5894 0.5881 0.6245 0.7235 0.7841
2073.651 0.7702 0.795 0.8156 0.759 0.7938 0.8105 0.7901 0.8385 0.7695 0.6516
2092.941 0.5934 0.5951 0.6234 0.6278 0.5937 0.5829 0.6088 0.5567 0.549 0.5786
2112.231 0.5815 0.6049 0.6487 0.7032 0.6785 0.6098 0.5857 0.6004 0.6023 0.6543
2131.521 0.6244 0.6001 0.5972 0.6187 0.6084 0.5722 0.6453 0.6308 0.6168 0.6361
2150.810 0.6361 0.6221 0.6715 0.748 0.7402 0.7527 0.732 0.6863 0.7259 0.7239
2170.100 0.6111 0.6019 0.6353 0.6104 0.6159 0.6173 0.6873 0.6899 0.6839 0.6867
2189.390 0.5315 0.4676 0.5189 0.5553 0.5938 0.6451 0.6508 0.6087 0.5989 0.5883
2208.680 0.6224 0.6665 0.6612 0.6184 0.6289 0.6501 0.6246 0.674 0.6427 0.6104
2227.970 0.655 0.6571 0.6334 0.6617 0.7139 0.6856 0.6502 0.5855 0.5532 0.5629
2247.259 0.5428 0.501 0.4963 0.5017 0.5091 0.5923 0.5593 0.4558 0.4332 0.4589
2266.549 0.4289 0.4559 0.5514 0.5619 0.5308 0.4867 0.4455 0.5038 0.5702 0.5919
2285.839 0.598 0.5655 0.6307 0.6528 0.5929 0.5961 0.6034 0.5862 0.6017 0.6399
2305.129 0.6083 0.5964 0.6337 0.6257 0.6581 0.7419 0.7373 0.7585 0.8259 0.8446
2324.418 0.7956 0.6713 0.6943 0.7915 0.8209 0.8238 0.8296 0.8947 0.9227 0.8844
2343.708 0.7843 0.7366 0.8024 0.768 0.7103 0.6813 0.6416 0.6623 0.6545 0.6338
2362.998 0.6224 0.6061 0.6323 0.6283 0.6062 0.627 0.569 0.5529 0.5952 0.5862
2382.288 0.5059 0.4725 0.5063 0.4863 0.4735 0.473 0.511 0.4892 0.3632 0.4074
2401.578 0.5156 0.5367 0.5651 0.5074 0.4724 0.4834 0.5233 0.5908 0.6923 0.7033
2420.867 0.5487 0.5047 0.5423 0.5588 0.5299 0.4847 0.5149 0.5497 0.5436 0.5479
2440.157 0.5817 0.5972 0.5865 0.5996 0.5606 0.5177 0.5393 0.4973 0.5499 0.6006
2459.447 0.5766 0.5501 0.4526 0.4204 0.4633 0.5209 0.545 0.4959 0.503 0.5767
2478.737 0.5788 0.5429 0.5553 0.5934 0.5875 0.5453 0.479 0.4511 0.4652 0.4346
2498.026 0.4173 0.4767 0.4944 0.4768 0.4495 0.3651 0.4642 0.4607 0.34437 0.4479
2517.316 0.5233 0.4619 0.35085 0.35197 0.4094 0.4637 0.4956 0.4947 0.4761 0.4049
2536.606 0.3922 0.4579 0.5075 0.5307 0.5211 0.4481 0.458 0.4922 0.4884 0.5284
2555.896 0.5421 0.5258 0.5392 0.4933 0.4542 0.5059 0.5421 0.5442 0.5624 0.5344
2575.186 0.5238 0.544 0.5311 0.5662 0.5567 0.5281 0.5766 0.6392 0.6221 0.6245
2594.475 0.6534 0.5923 0.5718 0.6785 0.6801 0.619 0.6384 0.6101 0.5805 0.671
2613.765 0.7223 0.7106 0.6384 0.5461 0.5118 0.5127 0.5601 0.5464 0.4837 0.4358
2633.055 0.4263 0.3989 0.3817 0.34884 0.32653 0.33299 0.2753 0.33324 0.33215 0.31427
2652.345 0.3651 0.2352 0.1963 0.2819 0.33434 0.26487 0.146 0.25124 0.30058 0.28862
2671.634 0.28002 0.30322 0.38 0.3269 0.24679 0.2322 0.24966 0.27175 0.34459 0.34313
2690.924 0.3249 0.31649 0.32517 0.35258 0.3461 0.3764 0.31306 0.2894 0.33961 0.31532
2710.214 0.2284 0.24795 0.28939 0.2408 0.27158 0.256137 0.2073 0.1761 0.221 0.30917
2729.504 0.25229 0.2085 0.27248 0.32549 0.4218 0.473 0.4156 0.4475 0.4613 0.399
2748.794 0.4474 0.4652 0.4072 0.3866 0.3939 0.4508 0.517 0.4339 0.3013 0.4623
2768.083 0.5257 0.34473 0.3732 0.4041 0.3739 0.435 0.4258 0.259207 0.28943 0.31945
2787.373 0.26729 0.2664 0.194 0.219 0.31172 0.3112 0.26261 0.29079 0.29209 0.34522
2806.663 0.32398 0.242 0.256461 0.2315 0.27907 0.3734 0.34866 0.3906 0.4271 0.30556
2825.953 0.28014 0.30069 0.28881 0.35392 0.4078 0.4675 0.4977 0.5008 0.5055 0.5438
2845.242 0.5107 0.4186 0.4453 0.3665 0.34766 0.4565 0.3864 0.3621 0.4238 0.4424
2864.532 0.5148 0.4565 0.424 0.5017 0.443 0.3486 0.35254 0.3977 0.4577 0.475
2883.822 0.4269 0.4017 0.4149 0.4262 0.4594 0.4319 0.32169 0.27964 0.27032 0.25265
2903.112 0.2133 0.24454 0.26848 0.2203 0.234 0.3691 0.4751 0.4442 0.3798 0.3899
2922.401 0.4228 0.4179 0.4044 0.5036 0.4478 0.33789 0.3128 0.261302 0.4317 0.4372
2941.691 0.434 0.4251 0.33935 0.4185 0.4284 0.445 0.4228 0.365 0.4275 0.5305
2960.981 0.5162 0.35157 0.3632 0.35356 0.24682 0.3789 0.4513 0.3589 0.28711 0.29721
2980.271 0.3996 0.4396 0.3438 0.35332 0.4076 0.4684 0.4593 0.3759 0.3853 0.421
2999.561 0.5277 0.5899 0.6279 0.7116 0.8282 0.9188 1.0973 1.304 1.384 1.524
3018.850 1.704 1.904 2.144 2.454 2.844 3.244 3.714 4.154 4.474 4.704
3038.140 4.734 4.654 4.454 4.194 3.924 3.804 3.884 3.864 4.084 4.524
3057.430 4.774 5.214 5.844 6.474 7.344 8.554 9.734 10.614 11.204 11.224
3076.720 10.904 10.124 8.944 7.994 7.464 7.034 6.744 6.564 6.174 5.994
3096.009 5.914 5.604 5.104 4.574 4.194 3.824 3.464 3.004 2.574 2.334
3115.299 2.084 1.744 1.554 1.494 1.354 1.294 1.21 1.0275 0.9291 0.9074
3134.589 0.9246 0.8879 0.8048 0.8239 0.9143 0.8376 0.7755 0.7346 0.6216 0.5675
3153.879 0.5978 0.5923 0.4785 0.5961 0.7384 0.6897 0.6078 0.6201 0.6893 0.6901
3173.169 0.6532 0.5672 0.5014 0.4075 0.3715 0.4347 0.4765 0.5003 0.5691 0.5383
3192.458 0.413 0.4855 0.4541 0.3613 0.4246 0.4152 0.4481 0.5261 0.5749 0.5033
3211.748 0.3596 0.3566 0.3668 0.31979 0.2 0.2082 0.255651 0.1951 0.1836 0.094
3231.038 0.108 0.32445 0.34554 0.254667 0.2368 0.146 0.055 0.068 0.1838 0.32397
3250.328 0.3769 0.3574 0.32686 0.26441 0.1798 0.128 0.1812 0.2259 0.255396 0.27735
3269.617 0.25049 0.136 0.145 0.26667 0.31556 0.4235 0.3867 0.25792 0.2205 0.1729
3288.907 0.092 0.25081 0.4091 0.28848 0.14 0 0.068 0.1962 0.226 0.29942
3308.197 0.33067 0.226 0.111 0.2296 0.30709 0.2159 0.34127 0.4631 0.4086 0.31921
3327.487 0.28305 0.33067 0.29692 0.33019 0.4302 0.3685 0.1934 0.2424 0.28094 0.1775
3346.777 0.3256 0.34219 0.148 0.143 0.24519 0.3668 0.3739 0.4003 0.37 0.2325
3366.066 0.257192 0.26921 0.29034 0.3608 0.33283 0.26984 0.27719 0.119 0.132 0.469
3385.356 0.5512 0.5811 0.5506 0.3729 0.5309 0.8048 0.5966 0.6213 0.8457 0.8298
3404.646 0.857 0.8572 1.1302 1.274 1.1368 1.274 1.474 1.394 1.354 1.494
3423.936 1.444 1.454 1.444 1.304 1.2327 1.213 1.2523 1.304 1.264 1.1458
3443.225 1.1143 1.226 1.434 1.574 1.624 1.774 2.044 2.304 2.624 2.854
3462.515 3.044 3.494 3.754 4.144 4.724 5.234 5.974 6.634 7.214 7.774
3481.805 8.384 8.844 9.164 9.234 8.794 8.204 7.674 7.134 6.374 5.624
3501.095 4.864 4.144 3.544 3.034 2.684 2.374 2.094 1.854 1.734 1.544
3520.385 1.354 1.304 1.2264 1.1925 1.0633 0.9346 0.8848 0.66 0.608 0.7328
3539.674 0.696 0.6636 0.7255 0.7448 0.6102 0.6056 0.5967 0.513 0.4905 0.5474
3558.964 0.5087 0.31056 0.29648 0.4078 0.35139 0.27202 0.4477 0.5738 0.4056 0.4653
3578.254 0.5018 0.26447 0.27508 0.3856 0.4065 0.28278 0.25114 0.3285 0.3687 0.29826
3597.544 0.253807 0.29465 0.4382 0.4656 0.32046 0.30424 0.34745 0.3811 0.30835 0.32126
3616.833 0.3954 0.3769 0.27407 0.27347 0.30555 0.4719 0.5884 0.4634 0.3574 0.32671
3636.123 0.4423 0.498 0.5134 0.4791 0.4149 0.3987 0.4134 0.419 0.31473 0.29144
3655.413 0.33466 0.35387 0.35378 0.3487 0.3761 0.3926 0.4589 0.4891 0.469 0.5812
3674.703 0.6407 0.5449 0.3921 0.25244 0.26585 0.3917 0.5449 0.5877 0.4363 0.3639
3693.993 0.34476 0.3747 0.4716 0.4388 0.4464 0.34702 0.26424 0.30639 0.32565 0.27942
3713.282 0.24488 0.32218 0.3721 0.31723 0.1963 0.217 0.29761 0.2305 0.183 0.28682
3732.572 0.262612 0.143 0.28953 0.3627 0.32697 0.306 0.2866 0.33132 0.32167 0.30832
3751.862 0.29125 0.1628 0.074 0.1932 0.28981 0.28208 0.27815 0.34384 0.3731 0.35341
3771.152 0.3204 0.3623 0.34354 0.30772 0.253582 0.1688 0.151 0.25002 0.3883 0.30254
3790.441 0.24697 0.29434 0.30902 0.2498 0.28751 0.32024 0.24432 0.1817 0.075 0.113
3809.731 0.2287 0.153 0.30786 0.3952 0.2316 0.34874 0.4569 0.2795 0.2073 0.33243
3829.021 0.34558 0.4164 0.52 0.379 0.1988 0.1813 0.125 0.073 0.067 0.242
3848.311 0.34981 0.28615 0.2078 0.059 0.099 0.2148 0.29816 0.33637 0.2129 0.041
3867.601 0.054 0.1541 0.1915 0.24748 0.28707 0.33212 0.34462 0.3358 0.31384 0.34422
3886.890 0.5642 0.4883 0.3948 0.4538 0.26799 0.121 0.1986 0.1896 0.244 0.4554
3906.180 0.3749 0.24595 0.28739 0.28238 0.4139 0.3638 0.1884 0.4452 0.709 0.6463
3925.470 0.4985 0.4623 0.3882 0.31819 0.3888 0.3915 0.3638 0.32685 0.1584 0.103
3944.760 0.079 0.09 0.2037 0.25199 0.241 0.3225 0.4719 0.4748 0.24636 0.115
3964.049 0.27527 0.33096 0.29411 0.4247 0.5526 0.3998 0.222 0.27045 0.29214 0.28227
3983.339 0.2819 0.34335 0.417 0.3849 0.4325 0.4674 0.4173 0.3937 0.497 0.5294
##END=
