##TITLE=cis-3-Decene
##JCAMP-DX=4.24
##DATA TYPE=INFRARED SPECTRUM
##ORIGIN=NIST Mass Spectrometry Data Center
##OWNER=NIST Standard Reference Data Program
Collection (C) 2018 copyright by the U.S. Secretary of Commerce
on behalf of the United States of America. All rights reserved.
##CAS REGISTRY NO=19398-86-8
##MOLFORM=C 10 H 20
##$NIST SOURCE=MSDC-IR
##SPECTROMETER/DATA SYSTEM=HP-GC/MS/IRD
##STATE=gas
##XUNITS=1/CM
##YUNITS=ABSORBANCE
##XFACTOR=1.0
##YFACTOR=0.000003600
##DELTAX=4.0
##FIRSTX=550.0
##LASTX=3846.0
##FIRSTY=0.000346
##MAXX=3846
##MINX=550
##MAXY=0.036
##MINY=0
##NPOINTS=825
##XYDATA=(X++(Y..Y))
550.0 96 34 0 12 17 18 32 52 77 98
590.0 79 63 65 62 36 21 18 25 35 31
630.0 30 29 48 75 82 100 127 143 183 224
670.0 247 275 329 369 405 479 543 591 637 670
710.0 699 675 654 628 575 523 464 408 341 298
750.0 273 238 215 195 172 154 144 138 122 108
790.0 108 104 101 100 92 80 71 76 66 59
830.0 43 35 44 45 56 76 84 87 95 89
870.0 88 92 83 84 88 81 65 53 54 60
910.0 60 58 64 69 62 63 66 61 54 51
950.0 54 60 74 78 72 71 63 57 57 59
990.0 55 54 62 67 66 75 88 95 103 101
1030.0 95 98 95 95 99 105 107 117 137 156
1070.0 161 153 139 130 121 102 93 81 63 61
1110.0 66 62 54 48 41 40 44 36 26 26
1150.0 15 11 10 6 14 20 22 19 24 33
1190.0 31 27 28 31 29 27 29 36 37 35
1230.0 37 40 47 62 75 80 86 102 117 135
1270.0 157 164 171 180 198 235 285 332 370 379
1310.0 347 295 247 213 198 197 202 211 236 260
1350.0 266 260 249 236 233 241 266 297 320 324
1390.0 315 313 336 363 368 354 309 268 272 299
1430.0 349 410 496 613 720 830 924 998 1034 1000
1470.0 902 767 632 504 387 302 245 199 158 114
1510.0 96 92 74 65 58 47 42 34 24 24
1550.0 28 22 5 15 28 27 28 31 39 33
1590.0 33 40 40 44 51 53 52 54 60 68
1630.0 79 84 97 120 129 127 126 126 117 109
1670.0 102 97 89 81 73 71 55 44 44 42
1710.0 41 33 22 27 31 19 11 17 22 17
1750.0 11 16 18 23 23 15 13 19 19 14
1790.0 9 10 14 12 15 16 15 18 15 9
1830.0 7 11 11 7 9 15 16 12 11 9
1870.0 7 11 5 7 11 11 11 14 17 14
1910.0 11 10 7 13 15 13 11 12 15 17
1950.0 16 14 10 10 15 16 14 14 16 16
1990.0 14 13 14 15 15 14 17 16 18 22
2030.0 30 34 32 30 28 22 20 23 21 21
2070.0 24 20 19 15 8 8 14 12 11 9
2110.0 7 8 9 12 10 8 9 11 14 13
2150.0 8 8 11 10 10 11 12 15 16 13
2190.0 15 15 11 8 11 11 11 10 10 8
2230.0 7 13 15 13 15 17 16 12 14 17
2270.0 19 22 18 16 19 19 17 17 15 15
2310.0 20 21 21 20 23 24 27 29 25 20
2350.0 21 21 25 29 27 27 25 23 21 19
2390.0 20 19 18 25 24 17 17 17 15 18
2430.0 20 21 23 22 23 24 16 14 20 26
2470.0 26 21 19 20 23 20 16 20 24 26
2510.0 24 24 29 29 26 33 38 35 35 35
2550.0 38 41 47 50 46 44 54 54 49 49
2590.0 48 47 52 57 57 54 52 57 62 64
2630.0 70 76 80 82 81 85 90 96 101 104
2670.0 109 114 113 108 103 103 107 105 106 111
2710.0 118 124 130 135 143 157 167 177 191 191
2750.0 184 188 193 195 202 210 222 238 253 266
2790.0 288 313 342 371 407 449 497 554 627 719
2830.0 831 972 1168 1444 1813 2286 2832 3372 3808 4077
2870.0 4175 4185 4194 4169 4091 3973 3861 3874 4075 4440
2910.0 4980 5717 6667 7769 8835 9633 10000 9843 9208 8334
2950.0 7489 6923 6785 7008 7252 7133 6519 5502 4390 3486
2990.0 2874 2532 2420 2473 2620 2724 2653 2394 1996 1567
3030.0 1220 953 753 620 535 474 437 408 377 359
3070.0 336 300 282 270 251 238 220 204 198 188
3110.0 184 184 175 156 150 156 145 131 123 126
3150.0 128 113 108 109 107 107 106 103 101 93
3190.0 86 78 67 62 64 67 60 53 51 52
3230.0 51 44 44 42 34 28 31 36 35 34
3270.0 31 34 35 27 34 46 38 31 31 32
3310.0 27 25 34 42 37 27 22 18 21 23
3350.0 25 30 30 23 20 23 23 21 21 25
3390.0 20 23 28 19 17 19 18 21 24 25
3430.0 27 30 26 19 13 13 17 23 23 26
3470.0 32 25 20 23 21 24 24 28 29 25
3510.0 30 30 26 12 11 20 25 30 39 30
3550.0 18 26 23 18 22 28 34 32 20 6
3590.0 13 28 31 37 31 20 27 31 43 41
3630.0 25 36 45 45 35 36 42 40 47 50
3670.0 44 39 39 45 44 44 40 38 42 38
3710.0 29 32 41 38 35 30 24 36 36 30
3750.0 43 50 49 50 50 51 51 51 52 49
3790.0 49 48 45 47 51 51 44 48 52 53
3830.0 55 52 47 45 49
##END=
