##TITLE=3'-Trifluoromethyl-1,2-methylvaleranilide
##JCAMP-DX=4.24
##DATA TYPE=INFRARED SPECTRUM
##ORIGIN=EPA-IR VAPOR PHASE LIBRARY
##OWNER=SRD/NIST
Collection (C) 2018 copyright by the U.S. Secretary of Commerce
on behalf of the United States of America. All rights reserved.
##CAS REGISTRY NO=1939-26-0
##MOLFORM=C 13 H 16 F 3 N O
##$NIST SOURCE=MSDC-IR
##STATE=gas
##XUNITS=1/CM
##YUNITS=ABSORBANCE
##XFACTOR=1.
##YFACTOR=0.001
##DELTAX=1.92898
##FIRSTX=549.8
##LASTX=4000.7
##FIRSTY=7.482
##MAXX=4000.7
##MINX=549.759
##MAXY=0.325392
##MINY=0
##NPOINTS=1790
##XYDATA=(X++(Y..Y))
549.759 7.482 6.942 6.352 5.842 5.362 5.272 5.002 4.302 4.032 3.922
569.049 3.742 3.422 3.222 3.482 3.582 3.252 3.112 3.382 3.872 4.132
588.339 4.542 4.932 4.972 5.382 5.512 5.442 5.142 4.592 4.002 3.292
607.628 2.772 2.442 2.042 1.782 1.802 1.732 1.552 1.392 1.592 1.812
626.918 1.822 1.902 2.022 2.112 2.182 2.282 2.662 2.942 3.082 3.682
646.208 4.552 5.592 6.762 8.282 9.942 11.682 13.342 14.502 14.902 14.332
665.498 12.822 10.802 8.962 7.332 6.222 5.672 5.252 5.372 5.842 6.752
684.787 8.502 11.002 14.512 18.682 22.922 26.532 27.982 26.972 24.092 20.162
704.077 16.172 12.432 9.562 7.482 5.952 4.972 4.362 3.962 3.602 3.472
723.367 3.512 3.432 3.422 3.582 3.682 3.752 3.972 4.102 4.122 4.282
742.657 4.602 4.962 5.262 5.612 5.772 5.882 6.002 5.732 5.442 5.222
761.947 5.042 4.932 4.992 5.092 5.362 5.882 6.562 7.492 8.912 11.172
781.236 13.952 17.092 20.282 23.062 25.092 25.672 24.872 22.912 19.982 16.692
800.526 13.302 10.372 8.032 6.172 4.822 3.862 3.382 3.142 2.892 2.672
819.816 2.602 2.632 2.512 2.462 2.482 2.422 2.542 2.642 2.762 2.982
839.106 3.142 3.142 3.142 3.262 3.372 3.522 3.562 3.842 4.392 4.992
858.395 5.722 6.512 7.572 8.842 10.222 11.592 12.592 13.282 13.712 13.832
877.685 13.592 13.052 12.602 12.242 11.742 11.502 11.712 12.122 12.872 13.682
896.975 14.382 15.112 15.692 16.002 15.932 15.452 14.662 13.692 12.862 12.022
916.265 11.062 10.042 9.112 8.342 7.702 7.232 6.772 6.522 6.562 6.562
935.555 6.732 6.932 6.952 6.952 7.042 7.022 6.802 6.412 5.952 5.512
954.844 5.082 4.852 4.822 4.562 4.252 4.162 3.922 3.922 4.132 4.022
974.134 3.972 4.122 4.342 4.432 4.282 4.242 4.462 4.622 4.762 5.292
993.424 5.782 6.312 7.062 7.682 7.922 8.232 8.492 8.222 7.882 7.522
1012.714 7.402 7.362 7.312 7.402 7.202 7.252 7.612 8.052 8.232 8.622
1032.003 9.212 9.422 9.662 9.882 10.412 11.082 11.622 12.452 13.762 14.882
1051.293 16.132 17.762 19.802 22.532 25.932 30.512 36.202 42.432 48.652 53.332
1070.583 55.432 55.312 52.852 48.342 43.112 38.662 35.572 33.342 32.312 32.762
1089.873 34.752 37.372 40.572 44.942 48.052 48.632 47.402 45.062 42.022 39.052
1109.163 37.522 37.262 37.272 38.442 40.982 43.392 46.752 52.092 59.092 67.932
1128.452 79.222 93.062 109.222 127.512 147.752 168.692 188.192 205.332 217.372 222.482
1147.742 219.382 207.042 187.882 165.632 144.332 127.322 116.322 111.292 112.102 117.832
1167.032 126.412 135.252 141.812 145.812 147.702 146.762 142.762 134.952 122.742 107.632
1186.322 91.192 75.452 62.052 51.462 43.732 38.202 34.232 31.692 29.982 28.532
1205.611 27.342 26.772 26.602 26.892 27.762 28.982 31.012 33.652 35.982 37.532
1224.901 39.322 40.502 40.592 40.672 40.232 38.842 36.842 34.862 32.972 30.952
1244.191 29.002 27.162 25.432 23.862 22.492 21.502 20.922 20.742 20.982 21.572
1263.481 22.322 23.042 24.042 25.312 26.682 27.762 28.402 28.892 29.182 29.382
1282.771 29.712 30.272 31.352 32.972 35.022 37.282 39.612 41.872 44.162 46.762
1302.060 49.722 52.832 55.792 58.212 60.272 62.792 67.002 74.422 86.752 105.912
1321.350 133.802 171.622 217.912 266.662 306.722 325.392 315.042 276.432 218.642 157.762
1340.640 108.372 75.302 54.732 41.812 33.462 27.802 23.892 21.112 19.042 17.562
1359.930 16.492 15.712 15.172 14.692 14.352 14.162 14.102 14.262 14.632 15.162
1379.219 15.852 16.572 17.092 17.302 17.252 16.942 16.532 16.272 16.232 16.402
1398.509 16.912 17.752 18.962 20.642 22.802 25.382 28.392 31.752 35.332 39.102
1417.799 43.132 47.852 53.532 60.652 69.682 80.292 91.622 101.702 108.332 109.532
1437.089 104.612 94.792 81.762 68.172 56.572 47.932 42.022 38.362 36.352 35.482
1456.378 35.482 36.082 37.012 38.122 39.332 40.482 41.592 42.852 44.702 47.512
1475.668 51.562 57.302 64.782 73.932 83.992 93.512 100.552 103.332 101.212 95.182
1494.958 86.832 78.392 72.322 69.062 68.282 69.432 72.252 76.282 81.302 87.292
1514.248 93.872 100.802 107.312 112.182 114.662 113.802 109.232 101.302 91.192 80.342
1533.538 69.622 59.832 51.742 44.752 38.882 34.172 30.362 27.262 24.712 22.452
1552.827 20.652 19.072 17.722 16.602 15.602 14.842 14.272 13.922 13.682 13.562
1572.117 13.592 13.892 14.492 15.232 16.202 17.402 18.672 20.022 21.402 22.702
1591.407 23.952 25.022 25.822 26.442 26.832 26.832 26.502 25.992 25.462 25.282
1610.697 25.582 26.102 26.492 26.272 25.102 22.812 19.692 16.412 13.512 11.212
1629.986 9.582 8.442 7.622 7.102 6.672 6.352 6.132 5.962 5.892 5.862
1649.276 5.832 5.842 5.902 5.962 6.072 6.202 6.342 6.452 6.612 6.972
1668.566 7.332 7.642 8.012 8.472 9.032 9.482 9.972 10.592 11.282 11.982
1687.856 12.722 13.622 14.732 16.062 17.642 19.552 21.792 24.482 27.442 31.212
1707.146 35.842 41.432 48.172 56.012 64.792 74.142 83.542 91.302 95.992 96.472
1726.435 92.182 83.622 71.982 59.552 47.632 37.922 30.782 25.342 21.502 18.842
1745.725 16.842 15.162 13.812 12.582 11.482 10.582 9.642 8.812 8.152 7.552
1765.015 7.062 6.622 6.312 6.012 5.662 5.362 5.102 4.872 4.622 4.382
1784.305 4.202 4.002 3.782 3.612 3.472 3.342 3.192 3.072 3.022 2.942
1803.594 2.792 2.722 2.702 2.642 2.652 2.592 2.462 2.402 2.342 2.222
1822.884 2.112 2.052 2.002 1.882 1.752 1.712 1.692 1.662 1.652 1.632
1842.174 1.692 1.732 1.742 1.792 1.842 1.892 1.912 1.872 1.832 1.832
1861.464 1.812 1.752 1.682 1.642 1.622 1.602 1.632 1.702 1.772 1.882
1880.754 1.912 1.932 1.962 1.932 1.852 1.712 1.602 1.512 1.422 1.362
1900.043 1.282 1.252 1.252 1.242 1.292 1.312 1.322 1.342 1.342 1.362
1919.333 1.442 1.532 1.602 1.672 1.732 1.732 1.742 1.752 1.712 1.662
1938.623 1.582 1.552 1.552 1.522 1.512 1.512 1.472 1.422 1.432 1.372
1957.913 1.282 1.222 1.1284 1.0648 1.0167 0.967 0.9413 0.9439 0.9513 0.8679
1977.202 0.8218 0.9066 0.915 0.8656 0.8222 0.877 0.8638 0.8407 0.8932 0.8802
1996.492 0.8757 0.8594 0.8405 0.8479 0.8541 0.8306 0.7993 0.8113 0.8224 0.7912
2015.782 0.7927 0.8045 0.8253 0.8654 0.8386 0.7923 0.8589 0.8733 0.8719 0.8924
2035.072 0.8405 0.8761 0.9583 0.9896 0.9633 1.001 1.0478 1.0053 0.9602 0.8962
2054.362 0.8905 0.964 0.9869 1.0224 0.9962 0.9711 0.9846 0.9913 1.0255 1.0555
2073.651 1.1552 1.242 1.292 1.322 1.352 1.362 1.362 1.332 1.262 1.272
2092.941 1.252 1.252 1.202 1.1283 1.1069 1.0655 1.0521 1.0381 0.9975 0.9709
2112.231 1.002 0.9665 0.9657 0.9348 0.8574 0.8855 0.9578 0.9439 0.8931 0.8613
2131.521 0.8568 0.8992 0.868 0.8626 0.8943 0.9153 0.9257 0.8914 0.8458 0.8619
2150.810 0.8669 0.8822 0.9231 0.885 0.8746 0.9124 0.8825 0.8683 0.9271 0.9551
2170.100 0.964 0.9701 0.9622 0.9725 1.02 1.0094 0.9661 1.001 1.0357 1.037
2189.390 1.0464 1.0423 0.9499 0.9383 0.9983 0.9787 0.9905 0.9833 0.8984 0.9077
2208.680 0.9215 0.9587 1.0403 1.0888 1.0928 1.022 1.0585 1.0875 1.0359 1.0206
2227.970 1.0488 1.0093 1.0081 1.0851 1.0935 1.1429 1.162 1.1214 1.0932 1.0955
2247.259 1.1137 1.135 1.1374 1.1388 1.1549 1.1488 1.1393 1.202 1.282 1.312
2266.549 1.242 1.155 1.232 1.332 1.342 1.322 1.292 1.302 1.292 1.262
2285.839 1.302 1.272 1.162 1.0662 1.1011 1.1242 1.0798 1.1111 1.0818 1.0992
2305.129 1.114 1.041 1.0531 1.0604 1.0328 1.0996 1.1333 1.0717 1.0481 1.1136
2324.418 1.149 1.1358 1.172 1.202 1.1604 1.172 1.222 1.232 1.282 1.342
2343.708 1.362 1.432 1.492 1.432 1.372 1.332 1.312 1.272 1.222 1.232
2362.998 1.292 1.302 1.222 1.1548 1.1586 1.1107 1.0379 1.0743 1.1198 1.0783
2382.288 1.0265 1.0582 1.1108 1.102 1.0719 1.096 1.088 1.1382 1.172 1.1354
2401.578 1.1385 1.0749 1.1138 1.182 1.1222 1.0637 1.06 1.0384 1.0492 0.9957
2420.867 0.9872 1.0104 0.9416 0.9496 0.9455 0.92 0.925 0.904 0.8321 0.7948
2440.157 0.8442 0.9208 0.9625 0.8764 0.7938 0.8276 0.847 0.834 0.8812 0.9213
2459.447 0.8742 0.8793 0.8796 0.8343 0.9218 1.0194 0.9902 0.9566 0.9174 0.8684
2478.737 0.9209 0.9833 1.0293 1.0667 1.0549 0.9754 0.9766 1.0728 1.0668 1.0845
2498.026 1.1488 1.0951 1.0779 1.0901 1.0911 1.058 1.1171 1.202 1.202 1.202
2517.316 1.192 1.162 1.1108 1.1278 1.1308 1.0769 1.0638 1.0393 1.0065 0.9958
2536.606 0.921 0.9501 0.9866 0.9441 0.9202 0.9513 0.9861 0.9626 0.9018 0.8943
2555.896 0.9062 0.8713 0.8963 0.9483 0.9736 0.8904 0.8514 0.8713 0.8591 0.875
2575.186 0.9403 0.9057 0.8536 0.9114 0.9046 0.9056 0.8994 0.9422 1.0563 1.0789
2594.475 1.0403 1.0481 1.033 1.0405 1.0851 1.0645 1.0551 1.0466 1.0362 1.0462
2613.765 1.0663 1.022 0.9537 0.9815 0.9171 0.8468 0.8793 0.931 1.0216 1.0655
2633.055 1.0471 0.9932 0.9881 1.02 1.0239 1.0165 1.1025 1.212 1.232 1.292
2652.345 1.332 1.362 1.442 1.452 1.392 1.352 1.322 1.332 1.282 1.1475
2671.634 1.0766 1.0323 0.9532 0.9426 0.947 0.9863 1.0722 1.0181 0.913 0.8864
2690.924 0.9547 1.007 1.0317 1.072 1.049 1.0592 1.1043 1.162 1.1435 1.0697
2710.214 1.0356 1.0183 1.068 1.1412 1.1409 1.1536 1.222 1.1554 1.192 1.272
2729.504 1.232 1.222 1.312 1.452 1.522 1.512 1.582 1.662 1.662 1.712
2748.794 1.732 1.652 1.602 1.672 1.692 1.622 1.592 1.672 1.662 1.532
2768.083 1.492 1.512 1.542 1.472 1.482 1.522 1.562 1.592 1.582 1.612
2787.373 1.672 1.682 1.752 1.852 1.902 2.042 2.062 1.942 2.012 2.132
2806.663 2.152 2.252 2.362 2.462 2.612 2.702 2.872 3.082 3.202 3.352
2825.953 3.402 3.492 3.762 3.932 4.142 4.402 4.632 4.912 5.282 5.702
2845.242 6.132 6.662 7.402 8.302 9.152 10.222 11.352 12.412 13.412 14.312
2864.532 15.182 15.972 16.762 17.572 18.652 20.072 21.642 23.202 24.832 26.482
2883.822 27.642 28.152 28.122 27.632 26.822 26.052 25.292 24.662 24.192 23.882
2903.112 23.952 24.272 24.652 25.132 25.622 26.142 26.742 27.412 28.212 29.142
2922.401 30.232 31.432 32.812 34.372 36.242 38.372 40.572 42.912 45.142 46.792
2941.691 47.532 47.202 45.872 43.872 41.592 39.572 38.332 38.022 38.972 41.212
2960.981 44.582 48.702 52.962 56.942 60.332 62.302 61.962 59.642 55.542 49.862
2980.271 43.742 38.002 32.942 28.492 24.532 21.012 17.962 15.362 13.182 11.602
2999.561 10.332 9.282 8.372 7.492 6.922 6.602 6.272 5.922 5.782 5.772
3018.850 5.752 5.802 5.852 5.962 6.002 6.092 6.152 6.042 5.972 5.872
3038.140 5.922 6.012 6.052 6.162 6.192 6.192 6.172 6.082 5.862 5.762
3057.430 5.742 5.692 5.582 5.462 5.422 5.332 5.242 5.122 5.032 4.872
3076.720 4.832 4.952 5.042 5.212 5.322 5.292 5.302 5.262 5.182 5.172
3096.009 5.142 4.952 4.782 4.602 4.252 4.022 3.922 3.642 3.552 3.572
3115.299 3.442 3.302 3.122 3.002 2.922 2.712 2.502 2.402 2.322 2.252
3134.589 2.162 2.022 1.922 1.872 1.832 1.752 1.672 1.622 1.542 1.512
3153.879 1.432 1.342 1.312 1.312 1.252 1.192 1.232 1.242 1.232 1.182
3173.169 1.202 1.222 1.202 1.222 1.242 1.172 1.1197 1.1398 1.1219 1.1395
3192.458 1.1544 0.991 0.9411 0.9515 0.9687 1.018 1.0236 1.0063 0.9751 0.8642
3211.748 0.7691 0.799 0.842 0.7694 0.5876 0.525 0.5961 0.6837 0.6999 0.6608
3231.038 0.6383 0.6622 0.5964 0.5642 0.5887 0.5108 0.4147 0.3628 0.3805 0.3873
3250.328 0.3848 0.3347 0.3865 0.3972 0.3593 0.3719 0.25318 0.162126 0.2388 0.3574
3269.617 0.3345 0.2788 0.19848 0.24659 0.3157 0.22692 0.3041 0.4604 0.4353 0.3903
3288.907 0.4505 0.4701 0.32 0.3084 0.4176 0.5055 0.5233 0.374 0.3119 0.3303
3308.197 0.23725 0.25646 0.3536 0.3 0.2614 0.3326 0.3657 0.2776 0.4525 0.5336
3327.487 0.4041 0.3584 0.3267 0.3759 0.3381 0.3413 0.25622 0.24075 0.4229 0.39
3346.777 0.3863 0.4127 0.3277 0.4445 0.484 0.4113 0.3671 0.3627 0.3694 0.3189
3366.066 0.3914 0.3718 0.20292 0.3527 0.5539 0.5565 0.5587 0.6397 0.7092 0.6647
3385.356 0.7267 0.7759 0.8011 0.9622 1.0882 1.182 1.452 1.552 1.432 1.402
3404.646 1.572 1.742 1.822 1.812 1.902 2.042 2.142 2.202 2.192 2.332
3423.936 2.442 2.502 2.712 2.942 3.212 3.452 3.682 3.912 4.172 4.572
3443.225 5.042 5.722 6.312 7.022 8.072 9.162 10.222 11.022 11.592 11.792
3462.515 11.382 10.532 9.262 7.852 6.502 5.372 4.482 3.652 3.082 2.582
3481.805 2.162 1.922 1.732 1.712 1.682 1.562 1.352 1.202 1.1326 1.0652
3501.095 1.0214 0.9445 0.7931 0.7261 0.6822 0.6427 0.7413 0.7618 0.6452 0.5387
3520.385 0.4349 0.4082 0.4755 0.4191 0.2986 0.3896 0.4005 0.3533 0.4883 0.5293
3539.674 0.4138 0.3383 0.2956 0.3375 0.3525 0.2736 0.21125 0.17904 0.2661 0.20134
3558.964 0.20093 0.3492 0.2791 0.1412 0.18932 0.3342 0.4215 0.3606 0.3294 0.3762
3578.254 0.2696 0.19235 0.17888 0.20509 0.21558 0.163519 0.18902 0.24481 0.3125 0.2723
3597.544 0.24167 0.16044 0.046 0 0.027 0.0641 0.21206 0.2928 0.18597 0.18
3616.833 0.18179 0.20863 0.3699 0.3796 0.2919 0.22796 0.21638 0.1413 0.1343 0.2601
3636.123 0.171322 0.1234 0.18078 0.3269 0.303 0.22593 0.3214 0.38 0.3571 0.2819
3655.413 0.3037 0.3252 0.24475 0.3276 0.3402 0.2768 0.3017 0.405 0.3321 0.20716
3674.703 0.22291 0.17544 0.19204 0.25713 0.2809 0.3347 0.3487 0.344 0.4066 0.3869
3693.993 0.4153 0.4422 0.479 0.4342 0.3695 0.3943 0.4552 0.3804 0.3134 0.3759
3713.282 0.3512 0.282 0.25603 0.21167 0.267 0.3769 0.3753 0.3772 0.25867 0.1202
3732.572 0.14 0.3243 0.2929 0.18841 0.2763 0.2878 0.2831 0.2786 0.24518 0.21255
3751.862 0.2934 0.3767 0.2767 0.2822 0.3656 0.408 0.3843 0.3562 0.2965 0.163049
3771.152 0.21088 0.26024 0.24895 0.15732 0.1045 0.20494 0.3526 0.4573 0.3266 0.25695
3790.441 0.2947 0.3411 0.2699 0.17649 0.3162 0.3857 0.2903 0.169715 0.15688 0.1179
3809.731 0.0992 0.24475 0.3259 0.3188 0.21386 0.167822 0.25033 0.3172 0.3573 0.336
3829.021 0.2649 0.1876 0.22625 0.3084 0.2732 0.2827 0.2971 0.3127 0.25658 0.0959
3848.311 0.2222 0.3387 0.24421 0.22904 0.21057 0.23656 0.20757 0.1251 0.21099 0.3703
3867.601 0.3803 0.2865 0.25306 0.0889 0.029 0.2041 0.3233 0.2857 0.23926 0.3518
3886.890 0.3632 0.3709 0.317 0.21509 0.3016 0.3141 0.3043 0.3117 0.25551 0.2968
3906.180 0.2986 0.22318 0.25557 0.2718 0.279 0.2983 0.25064 0.3013 0.3447 0.3692
3925.470 0.4023 0.4118 0.3217 0.3695 0.4829 0.4032 0.3914 0.3665 0.3539 0.3764
3944.760 0.301 0.3047 0.3047 0.2762 0.3369 0.2845 0.317 0.381 0.4358 0.5426
3964.049 0.5139 0.6259 0.6452 0.4396 0.417 0.3685 0.3011 0.5173 0.6453 0.4696
3983.339 0.4251 0.421 0.4201 0.5045 0.4038 0.3949 0.494 0.396 0.3268 0.3883
##END=
