##TITLE=trans,trans-2,8-Decadiene
##JCAMP-DX=4.24
##DATA TYPE=INFRARED SPECTRUM
##ORIGIN=NIST Mass Spectrometry Data Center
##OWNER=NIST Standard Reference Data Program
Collection (C) 2018 copyright by the U.S. Secretary of Commerce
on behalf of the United States of America. All rights reserved.
##CAS REGISTRY NO=19398-85-7
##MOLFORM=C 10 H 18
##$NIST SOURCE=MSDC-IR
##SPECTROMETER/DATA SYSTEM=HP-GC/MS/IRD
##STATE=gas
##XUNITS=1/CM
##YUNITS=ABSORBANCE
##XFACTOR=1.0
##YFACTOR=0.000003800
##DELTAX=4.0
##FIRSTX=550.0
##LASTX=3846.0
##FIRSTY=0.000152
##MAXX=3846
##MINX=550
##MAXY=0.038
##MINY=0
##NPOINTS=825
##XYDATA=(X++(Y..Y))
550.0 40 27 0 0 4 22 33 8 11 26
590.0 35 45 43 36 36 36 43 65 72 64
630.0 54 54 55 44 49 50 43 46 58 48
670.0 45 68 63 49 60 66 69 88 99 105
710.0 120 127 131 148 142 148 171 163 152 153
750.0 148 142 153 157 150 150 145 141 137 123
790.0 126 122 117 106 110 125 113 110 114 124
830.0 140 140 146 148 149 155 168 176 177 194
870.0 214 220 224 235 262 298 328 359 396 431
910.0 480 538 593 656 731 814 930 1082 1281 1557
950.0 1933 2428 2936 3235 3190 2814 2286 1803 1441 1183
990.0 994 861 762 688 638 593 556 522 484 455
1030.0 428 409 402 387 382 392 409 437 461 476
1070.0 480 449 385 322 279 250 216 189 180 172
1110.0 166 163 158 150 134 124 123 133 127 119
1150.0 122 121 126 129 121 124 139 135 134 146
1190.0 145 145 153 170 179 168 164 172 177 175
1230.0 178 176 170 173 179 193 207 217 236 250
1270.0 258 270 285 302 328 350 368 384 392 392
1310.0 382 371 359 349 349 354 368 394 425 444
1350.0 452 441 425 400 398 415 434 456 477 475
1390.0 454 423 398 386 389 402 421 451 497 574
1430.0 680 815 978 1115 1198 1225 1193 1124 1024 891
1470.0 756 631 525 441 382 345 315 288 263 242
1510.0 227 218 203 185 174 165 155 143 135 127
1550.0 122 122 116 109 108 108 107 104 100 93
1590.0 88 88 88 87 88 85 78 79 83 80
1630.0 78 79 83 84 81 83 88 90 97 109
1670.0 112 116 112 112 121 121 124 126 133 144
1710.0 146 150 150 145 140 137 129 116 108 100
1750.0 95 93 87 86 86 81 79 81 82 81
1790.0 81 80 77 75 74 73 69 64 60 54
1830.0 49 47 48 48 44 41 41 43 42 39
1870.0 35 35 38 34 31 27 25 24 24 25
1910.0 22 23 28 29 28 27 24 22 24 27
1950.0 25 29 28 23 26 29 28 32 37 39
1990.0 46 51 52 50 44 33 30 34 33 29
2030.0 21 17 19 20 18 17 17 15 14 14
2070.0 13 9 9 10 11 13 12 3 4 8
2110.0 10 13 13 7 2 5 6 4 0 2
2150.0 8 6 3 6 11 13 8 2 7 7
2190.0 4 6 7 7 6 0 3 7 7 5
2230.0 1 3 5 6 8 10 13 11 14 17
2270.0 16 17 15 15 17 15 15 19 19 22
2310.0 22 18 19 19 16 15 18 26 29 27
2350.0 25 21 21 24 24 30 35 34 35 36
2390.0 39 39 34 35 37 36 37 38 35 34
2430.0 32 34 36 34 35 36 35 36 37 40
2470.0 41 39 40 44 44 38 36 34 34 42
2510.0 46 45 44 44 46 47 46 47 48 45
2550.0 43 44 43 40 41 47 45 44 51 54
2590.0 55 54 57 61 63 62 63 67 71 75
2630.0 78 82 86 87 86 88 96 98 97 101
2670.0 107 110 114 116 120 125 121 123 124 119
2710.0 123 126 134 146 160 184 214 246 259 258
2750.0 242 215 202 195 192 199 207 226 245 260
2790.0 276 292 313 340 373 413 461 515 587 684
2830.0 815 1005 1265 1602 2015 2472 2933 3365 3735 3950
2870.0 3925 3677 3329 3060 2966 3056 3292 3615 4006 4485
2910.0 5084 5856 6860 8089 9271 9988 10000 9273 8088 6827
2950.0 5667 4719 4040 3594 3303 3091 2903 2717 2537 2399
2990.0 2305 2242 2207 2187 2188 2204 2226 2242 2218 2119
3030.0 1955 1755 1533 1323 1146 1004 890 797 717 649
3070.0 591 541 495 459 424 395 368 335 316 296
3110.0 277 261 248 236 222 208 191 184 172 153
3150.0 139 128 118 104 95 90 82 84 87 79
3190.0 74 78 81 71 62 69 62 51 59 55
3230.0 43 41 38 42 48 44 38 39 40 35
3270.0 31 29 25 25 27 26 24 21 21 21
3310.0 19 22 27 29 23 24 22 21 25 14
3350.0 14 24 26 25 22 26 32 28 18 11
3390.0 15 23 23 23 21 21 26 18 15 16
3430.0 19 18 23 27 24 26 24 19 13 15
3470.0 16 12 9 8 11 11 7 13 13 9
3510.0 9 8 7 5 1 0 4 3 5 10
3550.0 11 9 6 2 4 9 9 8 7 7
3590.0 9 6 0 1 9 11 15 19 14 21
3630.0 20 19 19 13 12 13 19 20 19 16
3670.0 14 14 8 5 5 7 8 10 14 15
3710.0 14 15 13 12 11 10 10 10 14 15
3750.0 12 15 17 17 26 37 28 22 23 23
3790.0 20 22 23 26 26 24 24 25 26 28
3830.0 24 24 27 29 25
##END=
