##TITLE=N-(3-Trifluoromethylphenyl)-2-methylbenzamide
##JCAMP-DX=4.24
##DATA TYPE=INFRARED SPECTRUM
##ORIGIN=EPA-IR VAPOR PHASE LIBRARY
##OWNER=SRD/NIST
Collection (C) 2018 copyright by the U.S. Secretary of Commerce
on behalf of the United States of America. All rights reserved.
##CAS REGISTRY NO=1939-22-6
##MOLFORM=C 15 H 12 F 3 N O
##$NIST SOURCE=MSDC-IR
##STATE=gas
##XUNITS=1/CM
##YUNITS=ABSORBANCE
##XFACTOR=1.
##YFACTOR=0.001
##DELTAX=3.85796
##FIRSTX=551.7
##LASTX=4000.7
##FIRSTY=7.65
##MAXX=4000.7
##MINX=551.688
##MAXY=0.23211
##MINY=0.0001206
##NPOINTS=895
##XYDATA=(X++(Y..Y))
551.688 7.65 7.52 7.19 6.5 5.79 5.26 4.83 4.82 5.36 6.89
590.268 10.56 14.96 15.58 11.27 6.65 4.53 3.72 3.26 3.14 3.18
628.847 3.3 3.38 3.45 3.74 4.77 7.26 11.08 14.39 14.2 10.26
667.427 6.64 5.41 4.98 5.07 6.22 9.36 14.79 19.9 20.2 15.8
706.006 10.92 8.11 7.56 8.58 10.96 14.79 20.03 25.14 27.07 24.73
744.586 20.23 15.6 11.64 8.8 7.34 6.91 7.18 8.29 10.28 13.22
783.165 16.91 20.11 20.92 18.42 13.57 8.73 5.42 3.83 3.16 2.73
821.745 2.5 2.43 2.42 2.41 2.5 2.57 2.55 2.67 2.97 3.57
860.324 4.59 5.97 7.68 9.5 10.59 10.59 9.98 9.5 9.66 10.38
898.904 11.32 11.9 11.95 11.48 10.66 9.58 8.13 6.74 5.85 5.46
937.484 5.42 5.48 5.2 4.46 3.74 3.37 3.23 3.23 3.33 3.31
976.063 3.31 3.25 3.23 3.34 3.42 3.65 3.98 4.22 4.21 4.15
1014.643 4.32 4.78 5.35 6.05 7.02 8.45 10.55 13.29 15.81 17.49
1053.222 19.71 25.21 35.89 49.74 58.99 58.29 52.52 47.77 43.64 39.07
1091.802 35.88 33.91 30.61 25.91 22.04 20.29 21.13 24.26 30.19 40.5
1130.381 55.38 73.84 95.71 119.55 136.33 132.34 107.13 78.66 63 64.34
1168.961 76.26 88.54 96.89 95.9 79.98 56.81 38.76 28.82 24.01 21.96
1207.540 22.39 25.61 31.12 37.85 44.44 50.69 57.03 61.57 60.08 51.4
1246.120 40.13 31.17 25.42 22.48 21.76 22.24 23.87 26.32 29.23 33.31
1284.699 39.15 45.4 50.89 56.48 63.2 69.92 72.95 71.92 75.99 97.05
1323.279 142.05 201.4 232.11 192.43 115.37 59.57 34.07 22.76 17.04 13.77
1361.859 11.77 10.47 9.63 9.2 9.14 9.45 10.11 10.93 11.81 13.05
1400.438 15.13 18.66 24.17 31.48 39.08 46.84 57.3 72.07 86.46 89.91
1439.018 77.44 57.57 41.2 31.98 27.94 26.65 27.02 29.11 33.27 40.46
1477.597 51.05 64.86 78.22 82.78 75.71 65.18 60.07 62.03 69.86 81.13
1516.177 92.8 99.58 95.19 79.3 59.88 44.72 34.73 27.64 22.7 19.12
1554.756 16.55 14.66 13.41 12.81 12.72 13.15 14.19 15.86 18.13 20.49
1593.336 22.52 24.09 24.62 23.44 21.58 20.72 20.01 17.41 13.32 9.76
1631.915 7.66 6.51 5.9 5.64 5.59 5.7 6.01 6.42 7.01 7.76
1670.495 8.68 9.76 11.05 12.68 15.16 18.82 24.62 34.12 48.25 65.5
1709.075 81.46 88.04 79.41 59.7 40.41 27.57 20.61 16.54 13.87 11.77
1747.654 10.16 8.84 7.74 6.77 5.95 5.34 4.84 4.41 4.08 3.82
1786.234 3.65 3.51 3.38 3.29 3.21 3.05 2.79 2.49 2.27 2.1
1824.813 1.98 1.9 1.88 1.89 1.81 1.68 1.61 1.57 1.53 1.48
1863.393 1.42 1.42 1.5 1.59 1.7 1.82 1.83 1.71 1.54 1.43
1901.972 1.41 1.52 1.75 2.01 2.18 2.15 2.06 1.97 1.92 1.9
1940.552 1.91 2.01 2.14 2.12 1.84 1.47 1.19 0.9946 0.8856 0.8705
1979.131 0.8265 0.7823 0.7731 0.7453 0.7251 0.6777 0.6315 0.604 0.6094 0.6319
2017.711 0.6145 0.5891 0.6018 0.6381 0.636 0.6157 0.5956 0.606 0.6094 0.5949
2056.291 0.6037 0.6191 0.7018 0.7898 0.8498 0.9234 0.9631 0.9234 0.8603 0.8124
2094.870 0.7847 0.8029 0.8354 0.8472 0.8309 0.8243 0.8184 0.801 0.7839 0.7704
2133.450 0.773 0.7553 0.7479 0.7398 0.6987 0.6961 0.7052 0.7121 0.7331 0.7187
2172.029 0.7523 0.806 0.8045 0.8186 0.8362 0.8358 0.8273 0.7929 0.7625 0.7853
2210.609 0.8008 0.7829 0.7751 0.7301 0.7109 0.7055 0.6904 0.7091 0.6921 0.6919
2249.188 0.7097 0.7276 0.7937 0.8413 0.8708 0.9027 0.9483 0.9915 0.9583 0.923
2287.768 0.9263 0.9387 0.9086 0.8622 0.8316 0.8151 0.8334 0.8469 0.8932 0.9798
2326.347 0.999 0.9472 0.9478 0.9964 1.03 1.08 1.09 1.06 0.998 0.9229
2364.927 0.922 0.8885 0.8389 0.8401 0.8162 0.7852 0.8095 0.8187 0.79 0.8044
2403.507 0.7799 0.7362 0.7481 0.7732 0.7513 0.7144 0.6929 0.7076 0.717 0.6993
2442.086 0.7015 0.6748 0.6476 0.6361 0.6333 0.6537 0.6284 0.6064 0.669 0.696
2480.666 0.6975 0.7158 0.7233 0.7473 0.7533 0.7507 0.7802 0.8373 0.8512 0.8454
2519.245 0.8421 0.8428 0.7926 0.676 0.6165 0.571 0.6011 0.6674 0.6746 0.6727
2557.825 0.6571 0.6393 0.6707 0.6571 0.6559 0.681 0.6578 0.656 0.668 0.6714
2596.404 0.6256 0.6224 0.6478 0.6346 0.6227 0.61 0.5807 0.5466 0.5429 0.557
2634.984 0.6091 0.6287 0.6129 0.705 0.7641 0.7925 0.8428 0.8033 0.7018 0.538
2673.563 0.4495 0.4533 0.442 0.4189 0.4124 0.4051 0.4039 0.4791 0.5189 0.5139
2712.143 0.5269 0.5408 0.5673 0.5497 0.522 0.5554 0.6166 0.6419 0.6749 0.719
2750.722 0.7412 0.7561 0.7492 0.6637 0.6088 0.6245 0.6005 0.5742 0.5164 0.4814
2789.302 0.5486 0.552 0.5187 0.5379 0.5469 0.5611 0.5611 0.6254 0.6892 0.6967
2827.882 0.7784 0.8617 0.925 1 1.09 1.21 1.35 1.54 1.77 2.02
2866.461 2.22 2.43 2.69 2.87 2.9 2.86 2.83 2.77 2.77 2.83
2905.041 2.93 3.07 3.27 3.58 3.92 4.37 4.95 5.55 5.98 6.14
2943.620 5.96 5.56 5.16 4.78 4.54 4.43 4.37 4.39 4.36 4.34
2982.200 4.38 4.32 4.19 4.05 3.95 3.94 4.09 4.65 5.64 6.83
3020.779 8.2 9.44 9.87 9.32 8.42 7.73 7.56 7.79 8.17 8.72
3059.359 9.78 11.56 13.55 14.71 14.38 12.93 10.97 9.1 7.75 6.85
3097.938 6.1 5.29 4.54 3.85 3.31 2.87 2.43 2.06 1.81 1.65
3136.518 1.49 1.35 1.21 1.11 1.02 0.9272 0.8389 0.7449 0.703 0.6522
3175.098 0.6387 0.6459 0.5862 0.4783 0.3639 0.3778 0.4147 0.3767 0.3797 0.3884
3213.677 0.3604 0.3694 0.3525 0.3184 0.2816 0.2723 0.339 0.2997 0.215 0.2493
3252.257 0.2555 0.233 0.1867 0.1487 0.2134 0.3083 0.2555 0.171 0.2239 0.262
3290.836 0.2879 0.3046 0.2894 0.2513 0.2542 0.2917 0.3242 0.3554 0.3108 0.2884
3329.416 0.2695 0.2289 0.2173 0.2729 0.3179 0.3028 0.3196 0.3378 0.3668 0.4013
3367.995 0.4356 0.4963 0.5801 0.6468 0.8224 1.05 1.24 1.48 1.8 2.24
3406.575 2.66 2.88 2.8 2.55 2.32 2.25 2.38 2.69 3.3 4.2
3445.154 5.45 7 8.24 8.29 6.98 4.97 3.23 2.25 1.65 1.28
3483.734 0.9777 0.7723 0.8098 0.8524 0.7775 0.616 0.5217 0.5162 0.4871 0.4152
3522.314 0.4153 0.3981 0.2988 0.2718 0.1904 0.1334 0.1835 0.2068 0.2957 0.3221
3560.893 0.2937 0.2837 0.2726 0.2823 0.2354 0.1733 0.2077 0.2515 0.214 0.2006
3599.473 0.2152 0.1572 0.1293 0.1921 0.1879 0.1456 0.179 0.1829 0.1917 0.2111
3638.052 0.2299 0.199 0.1206 0.1367 0.2094 0.2397 0.2294 0.2355 0.2396 0.2306
3676.632 0.2421 0.2806 0.2941 0.2408 0.1792 0.2081 0.2568 0.2934 0.2454 0.1992
3715.211 0.1926 0.2176 0.274 0.2286 0.1957 0.1626 0.1293 0.1769 0.1694 0.2372
3753.791 0.2929 0.2603 0.2999 0.2774 0.2496 0.1977 0.2103 0.2147 0.226 0.2645
3792.370 0.1953 0.1644 0.1752 0.1729 0.2481 0.2864 0.1979 0.1269 0.1453 0.2402
3830.950 0.2123 0.1385 0.1482 0.2274 0.3042 0.2987 0.2881 0.3285 0.348 0.3227
3869.530 0.301 0.3196 0.3411 0.3248 0.2644 0.3015 0.2701 0.1642 0.2395 0.3856
3908.109 0.4348 0.3259 0.1993 0.1907 0.2413 0.3547 0.4635 0.412 0.2671 0.2852
3946.689 0.3823 0.3112 0.2316 0.2275 0.3228 0.4113 0.3828 0.3868 0.3776 0.3073
3985.268 0.2742 0.3189 0.4467 0.4285 0.3689
##END=
