##TITLE=2,2,2-Trichloro-3'-trifluoromethylacetanilide
##JCAMP-DX=4.24
##DATA TYPE=INFRARED SPECTRUM
##ORIGIN=EPA-IR VAPOR PHASE LIBRARY
##OWNER=SRD/NIST
Collection (C) 2018 copyright by the U.S. Secretary of Commerce
on behalf of the United States of America. All rights reserved.
##CAS REGISTRY NO=1939-29-3
##MOLFORM=C 9 H 5 Cl 3 F 3 N O
##$NIST SOURCE=MSDC-IR
##STATE=gas
##XUNITS=1/CM
##YUNITS=ABSORBANCE
##XFACTOR=1.
##YFACTOR=0.001
##DELTAX=1.92898
##FIRSTX=549.8
##LASTX=4000.7
##FIRSTY=13.746
##MAXX=4000.7
##MINX=549.759
##MAXY=0.431806
##MINY=0
##NPOINTS=1790
##XYDATA=(X++(Y..Y))
549.759 13.746 14.576 16.096 18.936 23.386 29.806 37.696 44.606 49.046 49.176
569.049 45.086 38.316 30.046 22.686 17.766 14.956 13.446 12.746 11.916 10.526
588.339 9.166 7.856 6.406 5.446 4.876 4.316 3.856 3.666 3.606 3.426
607.628 3.316 3.326 3.576 3.586 3.386 3.426 3.336 3.456 3.886 4.196
626.918 4.576 4.996 5.406 5.776 6.166 6.806 7.336 7.756 8.496 9.836
646.208 11.706 14.416 18.786 25.106 32.796 40.066 44.776 45.776 43.666 40.126
665.498 37.206 35.976 36.126 36.366 36.006 34.896 33.056 31.156 29.526 28.716
684.787 29.316 31.676 35.546 40.336 45.546 49.356 49.896 46.866 41.186 34.616
704.077 28.056 21.836 16.736 13.056 10.356 8.426 7.236 6.546 6.116 5.876
723.367 5.776 5.976 6.486 7.306 8.636 10.356 12.036 13.286 13.866 13.806
742.657 13.246 12.126 10.696 9.256 8.256 7.666 7.286 7.576 8.256 9.006
761.947 9.976 11.116 12.456 14.136 16.016 18.266 21.116 24.366 28.186 32.406
781.236 36.716 40.816 44.556 48.346 52.276 56.116 59.736 62.616 64.546 65.416
800.526 65.826 66.306 67.366 69.766 73.516 78.356 83.456 87.536 89.506 88.806
819.816 85.546 81.156 77.016 73.896 72.146 71.366 71.196 71.026 69.956 67.406
839.106 63.566 58.846 53.496 48.036 42.746 37.606 33.226 29.726 26.616 24.176
858.395 22.226 20.776 20.046 19.766 19.976 20.676 21.646 22.646 23.716 24.436
877.685 24.756 24.816 24.986 25.446 26.376 27.816 29.696 32.006 34.396 36.376
896.975 37.436 37.416 36.456 34.906 33.116 31.476 30.246 29.236 28.626 28.826
916.265 29.606 30.906 32.626 34.266 34.916 33.906 31.326 27.386 23.176 19.676
935.555 17.036 15.126 13.676 12.736 12.226 11.866 11.566 11.516 11.736 12.096
954.844 12.546 13.076 13.706 14.216 14.796 15.496 15.886 15.666 14.976 13.906
974.134 12.386 10.916 9.586 8.386 7.366 6.656 6.116 5.746 5.576 5.456
993.424 5.486 5.816 6.696 7.436 7.766 7.926 7.516 6.826 6.236 5.706
1012.714 5.326 5.066 4.936 4.846 4.896 4.806 4.636 4.736 4.776 4.946
1032.003 5.076 5.336 5.386 5.246 5.646 5.946 6.156 6.566 7.046 7.756
1051.293 8.686 9.956 11.826 14.596 18.496 23.086 28.216 34.586 41.656 47.806
1070.583 52.326 54.346 53.766 51.406 47.436 42.906 39.246 36.666 35.226 34.416
1089.873 34.456 36.506 39.816 43.076 45.156 44.666 41.686 37.066 31.686 26.196
1109.163 22.526 21.836 21.466 21.226 21.956 23.536 25.736 28.446 32.196 37.096
1128.452 43.706 53.186 65.076 79.426 97.126 118.296 143.226 171.316 200.946 229.646
1147.742 253.886 269.316 272.636 262.296 240.786 213.316 186.246 165.136 153.326 152.876
1167.032 164.566 186.186 211.736 234.966 252.346 262.226 262.796 252.916 232.476 203.826
1186.322 170.886 137.856 108.836 85.366 67.626 54.206 43.956 37.056 32.256 28.686
1205.611 26.096 24.536 23.776 23.936 24.626 26.086 28.436 31.046 34.586 37.936
1224.901 40.806 43.606 45.606 46.626 46.616 45.356 43.116 40.276 37.156 34.126
1244.191 31.576 29.216 26.816 24.846 22.966 21.266 20.216 19.386 18.736 18.266
1263.481 18.306 18.786 19.276 20.276 21.716 23.276 24.846 26.626 28.406 29.916
1282.771 31.456 33.176 34.996 36.916 39.306 42.356 45.936 49.906 54.336 59.146
1302.060 64.376 69.976 75.596 81.036 86.236 91.536 98.456 109.396 127.176 154.806
1321.350 194.416 246.286 307.146 368.236 415.076 431.806 409.376 351.136 272.116 193.056
1340.640 130.086 87.876 61.516 44.976 34.366 27.386 22.646 19.276 16.896 15.166
1359.930 13.846 12.886 12.166 11.566 11.046 10.636 10.316 10.016 9.776 9.516
1379.219 9.306 9.156 9.096 9.226 9.386 9.566 9.706 9.786 9.866 9.906
1398.509 9.916 10.066 10.436 11.006 11.806 12.906 14.416 16.196 18.196 20.376
1417.799 22.596 24.876 27.236 29.936 33.186 37.306 42.616 48.956 56.596 65.756
1437.089 77.216 90.786 105.726 120.046 129.716 131.056 122.546 106.186 85.746 66.906
1456.378 52.846 43.666 38.336 35.206 33.626 33.156 33.446 34.426 36.026 38.076
1475.668 40.876 44.756 49.926 56.796 65.626 76.216 87.786 98.646 106.656 109.886
1494.958 107.746 100.986 91.866 83.076 76.746 73.546 73.216 75.296 78.886 83.386
1514.248 88.486 94.186 100.926 108.916 118.706 129.736 141.836 154.236 165.956 175.936
1533.538 183.126 186.326 184.066 175.816 162.066 144.316 124.486 105.006 87.886 73.656
1552.827 62.576 53.746 46.916 41.426 37.056 33.766 31.066 28.836 26.846 25.046
1572.117 23.686 22.706 22.116 21.966 22.336 23.206 24.416 25.986 27.816 29.806
1591.407 31.796 33.726 35.586 37.196 38.456 39.206 39.436 39.236 38.776 38.366
1610.697 38.116 38.096 37.876 36.946 35.026 31.896 27.596 22.766 18.396 14.956
1629.986 12.466 10.766 9.656 8.876 8.236 7.776 7.386 7.016 6.676 6.386
1649.276 6.156 6.036 5.966 5.906 5.806 5.776 5.836 5.786 5.766 5.726
1668.566 5.646 5.656 5.596 5.566 5.596 5.556 5.596 5.776 6.006 6.166
1687.856 6.286 6.486 6.676 6.956 7.356 7.776 8.286 8.966 9.666 10.426
1707.146 11.226 12.006 12.766 13.616 14.696 16.186 17.976 20.046 22.586 25.556
1726.435 29.106 33.206 37.956 43.486 50.176 57.996 66.866 77.226 88.516 100.436
1745.725 112.206 123.046 131.966 138.106 140.236 137.566 129.676 117.496 102.186 86.016
1765.015 71.246 58.706 48.616 40.836 34.676 29.876 25.996 22.806 20.106 17.816
1784.305 15.866 14.226 12.976 11.916 11.016 10.216 9.466 8.726 8.046 7.486
1803.594 6.896 6.256 5.806 5.436 5.046 4.756 4.536 4.296 4.056 3.856
1822.884 3.716 3.536 3.286 3.096 2.956 2.786 2.576 2.426 2.346 2.276
1842.174 2.146 2.046 1.956 1.936 1.956 1.926 1.956 2.036 2.086 2.186
1861.464 2.256 2.286 2.386 2.466 2.456 2.386 2.366 2.426 2.546 2.626
1880.754 2.706 2.826 2.916 2.916 2.866 2.756 2.546 2.286 2.096 1.936
1900.043 1.796 1.746 1.666 1.606 1.616 1.636 1.626 1.616 1.616 1.586
1919.333 1.566 1.596 1.656 1.636 1.646 1.726 1.796 1.846 1.896 1.966
1938.623 1.976 1.956 1.906 1.896 1.866 1.826 1.806 1.816 1.766 1.696
1957.913 1.636 1.526 1.416 1.326 1.236 1.1815 1.1107 0.9986 0.9585 0.9603
1977.202 0.9048 0.8394 0.8326 0.8022 0.7699 0.7511 0.7153 0.697 0.6851 0.709
1996.492 0.7237 0.6564 0.6245 0.6645 0.6719 0.6608 0.6589 0.6992 0.6994 0.6494
2015.782 0.6966 0.7186 0.6775 0.6867 0.7022 0.706 0.7278 0.7305 0.7054 0.7212
2035.072 0.7161 0.7377 0.8093 0.8851 0.9178 0.9063 0.8927 0.8375 0.8486 0.9336
2054.362 1.0454 1.0959 1.142 1.1584 1.226 1.366 1.396 1.386 1.356 1.306
2073.651 1.196 1.1064 1.0594 0.9667 0.9203 0.8836 0.7976 0.7651 0.7854 0.8122
2092.941 0.7759 0.7325 0.7337 0.7882 0.8344 0.7909 0.7866 0.8913 0.9144 0.8723
2112.231 0.908 0.9134 0.893 0.9458 0.9854 0.9623 0.9606 1.0085 1.0129 0.9785
2131.521 0.9806 0.9738 0.9474 0.9903 0.9919 0.9618 1.0233 0.9929 0.937 0.943
2150.810 0.9634 0.9788 0.9325 0.8974 0.8849 0.7806 0.7892 0.8554 0.8249 0.7839
2170.100 0.7675 0.7797 0.7553 0.7823 0.8289 0.8395 0.8593 0.8832 0.8494 0.8007
2189.390 0.8208 0.8719 0.9002 0.8772 0.8488 0.8575 0.8898 0.9304 0.9908 0.9706
2208.680 0.8824 0.8895 0.8893 0.8857 0.9366 0.9488 0.8772 0.8419 0.8769 0.8956
2227.970 0.8943 0.9254 0.9436 0.9329 0.9239 0.9118 0.9572 1.0031 0.9859 1.0475
2247.259 1.1144 1.1335 1.1654 1.216 1.256 1.306 1.366 1.386 1.456 1.536
2266.549 1.586 1.626 1.706 1.756 1.756 1.756 1.746 1.706 1.726 1.716
2285.839 1.606 1.506 1.446 1.356 1.306 1.276 1.1548 1.0463 1.0097 1.0123
2305.129 1.0211 1.0301 1.016 0.9954 1.0225 1.0572 1.0807 1.0813 1.0615 1.069
2324.418 1.1393 1.206 1.226 1.236 1.226 1.286 1.366 1.436 1.506 1.556
2343.708 1.606 1.656 1.676 1.666 1.626 1.626 1.586 1.556 1.516 1.516
2362.998 1.446 1.396 1.386 1.326 1.316 1.236 1.1714 1.1329 1.0647 1.1012
2382.288 1.0919 1.083 1.1587 1.1654 1.196 1.236 1.266 1.306 1.266 1.286
2401.578 1.336 1.376 1.346 1.296 1.266 1.216 1.1833 1.1099 1.0207 1.005
2420.867 1.0025 0.9504 0.8995 0.8464 0.8218 0.8543 0.8772 0.8724 0.8377 0.7327
2440.157 0.6928 0.7808 0.7887 0.7064 0.7197 0.7081 0.6859 0.7254 0.7547 0.7532
2459.447 0.7365 0.8063 0.8009 0.7691 0.7922 0.7802 0.7362 0.7362 0.8027 0.8127
2478.737 0.8418 0.8901 0.8836 0.879 0.8497 0.8371 0.8378 0.7841 0.786 0.8243
2498.026 0.8533 0.8454 0.7955 0.8491 0.8784 0.8592 0.8932 0.9247 0.8846 0.7909
2517.316 0.7443 0.7644 0.788 0.7638 0.7221 0.7186 0.7518 0.7315 0.7053 0.7326
2536.606 0.6911 0.6545 0.6722 0.652 0.6513 0.6089 0.5808 0.5702 0.5162 0.5259
2555.896 0.5223 0.4816 0.502 0.5045 0.528 0.5705 0.5132 0.4559 0.4945 0.488
2575.186 0.4336 0.3795 0.3741 0.4806 0.5226 0.5129 0.5178 0.5263 0.5732 0.5921
2594.475 0.6333 0.7323 0.7289 0.6758 0.6633 0.7142 0.7853 0.7122 0.6545 0.7515
2613.765 0.8465 0.8257 0.7748 0.7793 0.7624 0.7776 0.7478 0.6485 0.6266 0.6422
2633.055 0.6517 0.6767 0.6945 0.6523 0.6939 0.8437 0.9348 0.9519 1.0134 0.9916
2652.345 1.0338 1.1224 1.1288 1.1285 1.1085 1.0921 1.0543 0.9473 0.8156 0.7632
2671.634 0.7397 0.6807 0.5936 0.6422 0.6778 0.7054 0.7198 0.7114 0.7696 0.7804
2690.924 0.8255 0.9096 0.9213 0.9703 1.0393 1.0521 1.0392 1.0732 1.1558 1.236
2710.214 1.296 1.276 1.206 1.1438 1.1021 1.0765 0.9822 0.8622 0.8144 0.6951
2729.504 0.5987 0.5907 0.5669 0.5263 0.4591 0.4525 0.4722 0.4779 0.4418 0.445
2748.794 0.4905 0.483 0.4558 0.4233 0.439 0.4377 0.4545 0.5014 0.5098 0.4489
2768.083 0.463 0.4651 0.3932 0.399 0.3315 0.28529 0.26679 0.24474 0.315 0.3523
2787.373 0.355 0.3373 0.2871 0.2996 0.308 0.21443 0.1649 0.27388 0.294 0.1985
2806.663 0.1563 0.192832 0.26578 0.23961 0.1672 0.20536 0.21569 0.1411 0.21943 0.2894
2825.953 0.21238 0.17891 0.20613 0.2663 0.3217 0.3073 0.3098 0.3469 0.3109 0.23621
2845.242 0.23245 0.28323 0.3178 0.3985 0.4412 0.3888 0.3968 0.4605 0.4407 0.3603
2864.532 0.3733 0.4418 0.4381 0.4679 0.4801 0.4787 0.4367 0.4223 0.5519 0.5728
2883.822 0.5138 0.5117 0.522 0.5636 0.6658 0.7315 0.7191 0.652 0.623 0.6551
2903.112 0.7061 0.6973 0.7788 0.8914 0.9258 0.9816 0.9835 1.0163 1.0984 1.1186
2922.401 1.1387 1.186 1.1593 1.216 1.266 1.216 1.246 1.366 1.336 1.296
2941.691 1.336 1.276 1.1788 1.196 1.246 1.226 1.1224 1.0198 0.9821 1.04
2960.981 1.0619 0.9293 0.8807 0.916 0.9182 0.8875 0.8453 0.892 0.9038 0.7916
2980.271 0.761 0.8257 0.8705 0.8866 0.8432 0.7761 0.7454 0.6552 0.6175 0.6438
2999.561 0.6915 0.6925 0.6398 0.7081 0.7023 0.69 0.731 0.8568 0.9276 0.9403
3018.850 1.1762 1.436 1.486 1.656 1.976 2.216 2.516 2.756 2.866 2.996
3038.140 3.136 3.236 3.396 3.596 3.816 4.026 4.276 4.386 4.366 4.356
3057.430 4.336 4.346 4.366 4.386 4.376 4.446 4.536 4.456 4.316 4.296
3076.720 4.276 4.196 4.186 4.226 4.326 4.416 4.466 4.556 4.636 4.466
3096.009 4.286 4.176 3.996 3.736 3.426 3.206 2.956 2.796 2.756 2.606
3115.299 2.446 2.336 2.176 1.976 1.796 1.606 1.516 1.426 1.356 1.326
3134.589 1.206 1.1175 1.0854 0.9839 0.9748 0.9311 0.8794 0.9534 0.8511 0.7597
3153.879 0.7607 0.7229 0.6734 0.7026 0.7672 0.6768 0.551 0.4667 0.4873 0.6109
3173.169 0.6028 0.5249 0.5716 0.5661 0.5759 0.6514 0.638 0.6475 0.4881 0.4531
3192.458 0.597 0.559 0.5481 0.5195 0.4924 0.4316 0.4348 0.4748 0.4704 0.5322
3211.748 0.4414 0.428 0.47 0.4892 0.4806 0.3351 0.3045 0.3683 0.3034 0.26407
3231.038 0.3787 0.4026 0.3178 0.25517 0.22977 0.20272 0.24076 0.24666 0.24136 0.22978
3250.328 0.1714 0.20541 0.2978 0.344 0.3573 0.26977 0.2895 0.3862 0.4126 0.4237
3269.617 0.3565 0.3123 0.3434 0.3425 0.22409 0.26672 0.3974 0.3168 0.26483 0.3285
3288.907 0.3364 0.3509 0.35 0.4017 0.4118 0.3091 0.23361 0.3249 0.4303 0.24891
3308.197 0.1088 0.1488 0.1712 0.191581 0.2964 0.4109 0.3324 0.26149 0.2892 0.25939
3327.487 0.305 0.3857 0.4139 0.3696 0.3274 0.346 0.3964 0.3917 0.455 0.4884
3346.777 0.4712 0.5429 0.5823 0.6566 0.66 0.6006 0.5509 0.628 0.6789 0.5869
3366.066 0.6471 0.8353 0.9775 0.9801 0.8938 0.9653 1.1131 1.1794 1.256 1.356
3385.356 1.536 1.756 1.996 2.126 2.276 2.646 3.016 3.346 3.706 4.106
3404.646 4.496 5.046 5.836 6.676 7.536 8.506 9.796 11.236 12.786 14.486
3423.936 16.326 18.516 21.096 24.086 27.436 31.346 35.786 40.386 44.316 46.336
3443.225 45.336 41.206 34.626 26.996 20.266 15.306 11.826 9.536 8.036 6.886
3462.515 6.126 5.556 5.086 4.676 4.356 4.076 3.806 3.696 3.536 3.286
3481.805 3.156 3.096 2.986 2.686 2.456 2.396 2.246 2.066 1.896 1.606
3501.095 1.366 1.296 1.246 1.196 1.1181 1.0152 0.9487 0.869 0.8087 0.711
3520.385 0.6853 0.5912 0.5031 0.6516 0.6651 0.5257 0.4289 0.3042 0.2909 0.3595
3539.674 0.5176 0.683 0.4272 0.24508 0.3418 0.3574 0.3429 0.27856 0.25322 0.4341
3558.964 0.5068 0.3363 0.3346 0.4255 0.3578 0.26222 0.21635 0.2877 0.3912 0.4307
3578.254 0.4386 0.5276 0.5507 0.4637 0.4724 0.3432 0.26342 0.3508 0.4443 0.4408
3597.544 0.3502 0.3251 0.28111 0.28236 0.3825 0.3137 0.23754 0.2954 0.3242 0.4514
3616.833 0.4948 0.3215 0.25894 0.3746 0.383 0.3032 0.3038 0.291 0.286 0.353
3636.123 0.3034 0.3588 0.4559 0.3679 0.3129 0.28286 0.3378 0.3655 0.3169 0.3401
3655.413 0.4264 0.4485 0.3632 0.3671 0.4424 0.4316 0.26231 0.25241 0.2945 0.23065
3674.703 0.1146 0 0.02 0.1189 0.3765 0.3631 0.1666 0.19925 0.27678 0.3268
3693.993 0.25757 0.25657 0.3824 0.3587 0.21344 0.24738 0.28494 0.2459 0.26439 0.24873
3713.282 0.21722 0.1639 0.2546 0.304 0.24962 0.19772 0.1443 0.17735 0.1583 0.19499
3732.572 0.28385 0.2862 0.27532 0.23564 0.3474 0.4438 0.3511 0.27223 0.25308 0.3204
3751.862 0.3991 0.4397 0.3228 0.24477 0.2816 0.25936 0.2904 0.3522 0.2968 0.1662
3771.152 0.1302 0.26739 0.3515 0.27033 0.26366 0.28159 0.3205 0.28441 0.2073 0.20895
3790.441 0.23045 0.1615 0.1595 0.25094 0.20102 0.064 0.084 0.27133 0.3372 0.3108
3809.731 0.313 0.4371 0.4527 0.27427 0.20233 0.26943 0.4249 0.4335 0.419 0.4512
3829.021 0.3817 0.3014 0.3113 0.4577 0.4085 0.23757 0.168 0.1007 0.1142 0.19788
3848.311 0.3039 0.3062 0.2918 0.4034 0.3116 0.25049 0.3307 0.21959 0.18471 0.24653
3867.601 0.24394 0.2873 0.2864 0.22949 0.25823 0.3268 0.386 0.3617 0.3048 0.28342
3886.890 0.27911 0.3182 0.27318 0.22524 0.24409 0.3741 0.4918 0.4725 0.3763 0.24866
3906.180 0.1689 0.157 0.23514 0.27914 0.3114 0.3026 0.24217 0.191437 0.25008 0.298
3925.470 0.24123 0.23386 0.3534 0.452 0.4891 0.6012 0.4768 0.3387 0.4218 0.5316
3944.760 0.4271 0.22661 0.3837 0.456 0.4086 0.4736 0.4494 0.436 0.3803 0.3381
3964.049 0.3691 0.3897 0.3326 0.363 0.4377 0.4749 0.3528 0.20302 0.3427 0.4994
3983.339 0.5035 0.3291 0.3373 0.4986 0.5057 0.4496 0.4004 0.3645 0.4503 0.5017
##END=
