##TITLE=3'-Trifluoromethylisobutyranilide
##JCAMP-DX=4.24
##DATA TYPE=INFRARED SPECTRUM
##ORIGIN=EPA-IR VAPOR PHASE LIBRARY
##OWNER=SRD/NIST
Collection (C) 2018 copyright by the U.S. Secretary of Commerce
on behalf of the United States of America. All rights reserved.
##CAS REGISTRY NO=1939-27-1
##MOLFORM=C 11 H 12 F 3 N O
##$NIST SOURCE=MSDC-IR
##STATE=gas
##XUNITS=1/CM
##YUNITS=ABSORBANCE
##XFACTOR=1.
##YFACTOR=0.001
##DELTAX=1.92898
##FIRSTX=549.8
##LASTX=4000.7
##FIRSTY=4.876
##MAXX=4000.7
##MINX=549.759
##MAXY=0.269226
##MINY=0
##NPOINTS=1790
##XYDATA=(X++(Y..Y))
549.759 4.876 4.366 3.966 4.006 3.466 3.026 3.066 2.796 2.876 2.686
569.049 2.236 2.426 2.546 2.696 2.746 2.526 2.556 2.776 2.896 3.176
588.339 3.606 4.106 4.606 4.566 4.196 4.026 3.676 3.216 2.806 2.316
607.628 2.086 1.736 1.436 1.516 1.536 1.386 1.236 1.206 1.1014 1.216
626.918 1.456 1.406 1.376 1.496 1.716 1.836 1.956 2.246 2.846 3.426
646.208 3.716 4.236 5.246 6.466 7.746 9.166 10.636 11.796 12.506 12.416
665.498 11.596 10.196 8.406 6.806 5.546 4.696 4.336 4.286 4.846 6.086
684.787 7.746 10.076 12.756 15.556 18.806 21.836 22.926 21.826 19.546 16.776
704.077 13.916 11.316 8.996 7.066 5.336 4.226 3.596 3.156 2.836 2.506
723.367 2.566 2.456 2.356 2.256 2.116 2.216 2.216 2.176 2.306 2.496
742.657 2.806 3.266 3.956 4.486 4.716 4.836 4.746 4.516 3.926 3.416
761.947 3.096 2.766 2.766 3.026 3.466 4.096 5.026 6.286 7.856 10.006
781.236 12.336 14.656 17.156 19.316 20.826 21.256 20.686 19.256 16.686 13.936
800.526 11.446 9.266 7.496 5.786 4.486 3.616 2.936 2.486 2.096 2.046
819.816 2.076 1.726 1.506 1.506 1.646 1.846 1.946 1.836 1.746 2.006
839.106 2.116 2.226 2.466 2.706 2.706 2.736 3.196 3.606 3.906 4.326
858.395 4.946 5.576 6.176 7.386 8.806 9.756 10.616 11.486 11.966 11.956
877.685 11.766 11.356 10.646 9.966 9.406 8.876 8.686 8.816 9.156 9.836
896.975 10.736 11.526 12.296 12.776 12.956 13.056 12.886 12.246 11.146 10.056
916.265 9.046 8.036 7.336 6.586 6.026 5.996 5.916 5.776 5.916 6.266
935.555 6.306 6.206 6.156 6.046 5.816 5.526 5.246 4.976 4.696 4.496
954.844 4.286 3.946 3.536 3.456 3.536 3.286 3.296 3.336 3.076 3.076
974.134 3.186 3.266 3.236 3.136 3.166 3.226 3.126 3.116 3.346 3.496
993.424 3.636 3.916 4.266 4.436 4.656 4.836 4.566 4.296 4.026 3.596
1012.714 3.636 3.966 4.106 4.336 4.596 4.726 4.816 5.216 5.446 5.776
1032.003 6.476 6.816 7.366 8.226 9.286 10.486 11.626 12.886 14.436 16.306
1051.293 18.306 20.316 22.276 24.546 27.726 31.606 35.846 39.946 43.696 46.606
1070.583 47.806 47.496 45.046 41.116 37.146 33.266 30.606 28.696 27.526 28.106
1089.873 29.536 32.056 35.396 38.066 40.356 41.136 40.066 38.366 35.846 33.086
1109.163 31.176 30.626 31.356 33.176 35.236 37.196 39.966 44.546 50.126 56.806
1128.452 65.096 75.256 88.136 104.266 122.606 142.286 162.966 182.306 198.456 208.536
1147.742 209.256 198.986 180.006 156.466 132.886 112.116 95.496 85.276 81.636 83.496
1167.032 88.956 95.866 103.686 111.836 119.146 124.086 125.376 122.296 114.476 102.736
1186.322 88.766 74.516 61.226 50.036 41.326 34.966 30.756 27.426 24.916 23.546
1205.611 22.736 22.266 22.376 23.166 24.356 25.776 27.586 29.226 30.606 31.996
1224.901 33.176 34.196 34.476 33.846 33.296 32.456 30.846 29.156 27.546 25.656
1244.191 23.756 22.166 20.646 19.186 17.916 16.986 16.526 16.236 16.206 16.666
1263.481 17.456 18.356 19.286 20.376 21.466 22.486 23.176 23.636 23.926 24.156
1282.771 24.406 24.766 25.516 26.656 28.106 29.736 31.566 33.496 35.426 37.306
1302.060 39.386 41.626 43.876 46.116 48.356 51.166 55.476 62.446 73.536 90.576
1321.350 115.146 147.696 186.116 224.756 255.146 269.226 262.556 235.256 191.726 141.656
1340.640 97.486 66.636 47.676 36.126 28.836 24.036 20.666 18.196 16.376 15.036
1359.930 13.946 13.076 12.426 11.956 11.576 11.256 11.056 10.956 10.866 10.866
1379.219 11.026 11.386 12.046 12.946 13.916 14.746 15.356 15.636 15.656 15.516
1398.509 15.456 15.716 16.356 17.476 18.966 20.836 23.126 25.716 28.616 31.756
1417.799 35.196 39.286 44.086 50.076 57.536 66.046 75.076 83.076 88.366 89.716
1437.089 86.676 79.836 69.956 58.686 48.186 39.696 33.606 29.586 27.076 25.686
1456.378 25.126 25.146 25.736 26.806 28.316 30.226 32.356 34.726 37.256 40.176
1475.668 43.606 47.816 53.246 60.116 67.886 75.546 81.866 85.546 85.756 82.876
1494.958 77.676 71.346 65.766 62.016 60.306 60.336 61.836 64.376 67.596 71.636
1514.248 76.186 80.936 85.736 89.806 92.636 93.536 91.916 87.756 81.456 73.606
1533.538 65.086 56.796 49.246 42.306 36.556 31.716 27.666 24.576 22.056 19.956
1552.827 18.276 16.816 15.706 14.716 13.906 13.356 12.896 12.506 12.266 12.166
1572.117 12.236 12.576 13.016 13.546 14.236 15.026 15.996 16.966 17.906 18.876
1591.407 19.716 20.516 21.176 21.676 21.986 21.926 21.656 21.366 21.016 20.786
1610.697 20.916 21.266 21.536 21.386 20.526 18.936 16.756 14.186 11.766 9.736
1629.986 8.166 7.146 6.456 5.856 5.406 5.106 4.866 4.786 4.746 4.686
1649.276 4.586 4.556 4.606 4.636 4.696 4.806 4.946 5.056 5.196 5.436
1668.566 5.626 5.836 6.176 6.496 6.976 7.576 8.166 8.816 9.716 10.656
1687.856 11.596 12.716 13.986 15.306 16.786 18.276 19.646 21.116 22.626 24.496
1707.146 26.956 30.226 34.516 40.146 46.956 54.626 63.016 71.036 77.606 81.306
1726.435 81.506 78.646 72.886 64.526 54.246 44.496 36.596 30.116 25.416 22.086
1745.725 19.666 17.886 16.376 15.056 13.896 12.736 11.566 10.406 9.236 8.226
1765.015 7.326 6.506 5.866 5.306 4.866 4.536 4.186 3.946 3.746 3.496
1784.305 3.326 3.156 3.026 2.836 2.666 2.576 2.476 2.386 2.366 2.316
1803.594 2.286 2.216 2.146 2.176 2.146 2.116 2.086 1.956 1.836 1.786
1822.884 1.736 1.646 1.496 1.466 1.466 1.416 1.396 1.366 1.306 1.286
1842.174 1.336 1.386 1.506 1.546 1.516 1.496 1.516 1.556 1.526 1.496
1861.464 1.466 1.416 1.366 1.286 1.266 1.296 1.316 1.386 1.476 1.526
1880.754 1.576 1.586 1.536 1.476 1.446 1.386 1.266 1.176 1.1168 1.0299
1900.043 1.0207 1.0587 1.0539 1.0259 0.9561 0.8758 0.8871 1.0071 1.0888 1.0647
1919.333 1.1157 1.276 1.346 1.366 1.426 1.436 1.436 1.436 1.396 1.346
1938.623 1.326 1.346 1.286 1.276 1.256 1.216 1.196 1.163 1.1126 1.0533
1957.913 1.0153 0.9243 0.8083 0.7612 0.7771 0.723 0.7069 0.6996 0.6777 0.7117
1977.202 0.7377 0.7685 0.7163 0.6625 0.6741 0.6518 0.6069 0.5751 0.544 0.5362
1996.492 0.649 0.6684 0.6144 0.6077 0.5927 0.6356 0.6355 0.6797 0.697 0.6018
2015.782 0.598 0.6422 0.632 0.6127 0.5857 0.5231 0.4998 0.5634 0.5721 0.5996
2035.072 0.6788 0.6283 0.6346 0.6619 0.6281 0.6529 0.6681 0.687 0.7368 0.6641
2054.362 0.6124 0.6231 0.6828 0.7433 0.7132 0.7215 0.7623 0.7874 0.7827 0.7512
2073.651 0.7705 0.8531 0.9956 1.1162 1.1063 1.1591 1.186 1.1386 1.1118 1.0618
2092.941 1.0245 0.9566 0.9054 0.8882 0.857 0.8274 0.7579 0.7321 0.7072 0.6301
2112.231 0.6335 0.6376 0.6118 0.6092 0.5845 0.5439 0.5246 0.5411 0.5509 0.5559
2131.521 0.6209 0.6906 0.6552 0.669 0.6911 0.6796 0.6858 0.7307 0.7225 0.5982
2150.810 0.6011 0.6255 0.5605 0.5516 0.5494 0.5751 0.5872 0.5908 0.6823 0.6911
2170.100 0.6698 0.6292 0.6099 0.6441 0.6131 0.6513 0.7605 0.7568 0.728 0.7074
2189.390 0.6284 0.5633 0.6588 0.6831 0.5958 0.6367 0.6359 0.5646 0.5687 0.661
2208.680 0.7115 0.7075 0.7404 0.7194 0.6731 0.648 0.6927 0.7514 0.7617 0.7517
2227.970 0.7573 0.7732 0.7883 0.7623 0.7699 0.8548 0.7907 0.7432 0.8459 0.9156
2247.259 0.8842 0.869 0.8397 0.8329 0.9204 0.916 0.8406 0.8534 0.9133 0.919
2266.549 0.8856 0.8428 0.9596 1.0605 1.0349 1.0399 1.0258 0.9814 0.9619 1.0188
2285.839 0.9343 0.8604 0.9302 0.8985 0.8944 0.9324 0.8674 0.7866 0.7796 0.8254
2305.129 0.8328 0.8104 0.8017 0.8394 0.7999 0.7856 0.8415 0.812 0.7389 0.7478
2324.418 0.7732 0.7748 0.8183 0.876 0.9289 0.9219 0.8981 0.9114 0.925 0.9697
2343.708 1.0035 0.9793 0.9703 0.9655 0.9693 0.9333 0.915 0.9388 0.9123 0.8824
2362.998 0.8819 0.9377 0.9633 0.9431 0.9164 0.8435 0.8251 0.8826 0.9435 0.9708
2382.288 0.8851 0.8064 0.7654 0.7776 0.8221 0.8175 0.9146 0.9705 0.8714 0.8409
2401.578 0.8099 0.804 0.8843 0.8415 0.7469 0.6958 0.681 0.7104 0.7198 0.6878
2420.867 0.6793 0.6687 0.6285 0.6634 0.6693 0.6134 0.6607 0.6803 0.656 0.6667
2440.157 0.6092 0.5798 0.5951 0.5941 0.6193 0.704 0.7077 0.7036 0.7327 0.5952
2459.447 0.5939 0.7328 0.6897 0.5713 0.5468 0.5885 0.6445 0.6921 0.6882 0.6767
2478.737 0.7145 0.7318 0.7282 0.7252 0.6661 0.6285 0.6408 0.7156 0.742 0.6601
2498.026 0.6342 0.7145 0.7935 0.7134 0.7967 0.8475 0.7766 0.8434 0.8896 0.8886
2517.316 0.7985 0.7171 0.7323 0.7312 0.7259 0.7198 0.6965 0.7054 0.6769 0.6814
2536.606 0.7281 0.7062 0.6303 0.6324 0.6128 0.5252 0.5468 0.6509 0.6601 0.6154
2555.896 0.613 0.5955 0.6802 0.658 0.5753 0.6137 0.5902 0.6292 0.654 0.6438
2575.186 0.6594 0.6103 0.648 0.6696 0.5733 0.6237 0.6618 0.6072 0.5945 0.6255
2594.475 0.6164 0.5369 0.5977 0.6254 0.5849 0.6473 0.7281 0.7264 0.7042 0.5547
2613.765 0.4309 0.461 0.4716 0.532 0.5627 0.5204 0.5147 0.5538 0.6759 0.6633
2633.055 0.5384 0.5174 0.5292 0.5477 0.6154 0.6539 0.6419 0.7025 0.7395 0.7499
2652.345 0.8538 0.9152 0.9156 0.9714 0.9444 0.942 0.9463 0.7424 0.6447 0.7119
2671.634 0.7385 0.6709 0.5117 0.4599 0.5246 0.5777 0.4813 0.4155 0.4887 0.4688
2690.924 0.4026 0.4414 0.4418 0.402 0.4973 0.5407 0.4962 0.4452 0.4393 0.4431
2710.214 0.4478 0.4878 0.4534 0.4432 0.4924 0.5998 0.6535 0.6486 0.6873 0.6873
2729.504 0.6289 0.6223 0.7271 0.8158 0.8893 0.9069 0.8039 0.7626 0.83 0.8653
2748.794 0.8314 0.8544 0.9139 0.8535 0.8143 0.8103 0.81 0.7849 0.8082 0.8187
2768.083 0.8291 0.8596 0.8102 0.848 0.7979 0.7738 0.7103 0.6668 0.7549 0.7566
2787.373 0.7458 0.7517 0.7891 0.7676 0.7337 0.7044 0.7159 0.7762 0.7717 0.8149
2806.663 0.8463 0.9072 0.9578 0.973 1.0178 1.018 1.0719 1.1627 1.226 1.196
2825.953 1.256 1.396 1.406 1.476 1.496 1.386 1.386 1.566 1.696 1.706
2845.242 1.736 1.806 1.916 2.066 2.276 2.476 2.656 2.946 3.266 3.476
2864.532 3.756 4.176 4.696 5.266 5.876 6.506 7.306 8.326 9.156 9.816
2883.822 10.346 10.616 10.766 10.976 11.236 11.436 11.676 11.926 12.146 12.306
2903.112 12.286 12.106 11.876 11.686 11.526 11.286 11.056 10.886 10.966 11.056
2922.401 11.116 11.246 11.516 11.886 12.196 12.656 13.086 13.546 14.126 14.666
2941.691 15.206 15.796 16.236 16.406 16.506 16.666 16.876 17.236 17.836 18.816
2960.981 20.206 21.926 24.006 26.476 29.276 32.266 35.226 37.586 38.456 37.596
2980.271 35.366 32.046 28.096 24.176 20.656 17.706 15.256 13.076 11.246 9.836
2999.561 8.686 7.636 6.736 6.056 5.506 5.056 4.656 4.316 4.036 3.846
3018.850 3.736 3.756 3.836 3.886 3.706 3.576 3.676 3.826 3.916 3.756
3038.140 3.686 3.786 3.916 4.066 4.166 4.246 4.236 4.086 4.016 3.986
3057.430 3.906 3.896 3.886 3.796 3.826 3.816 3.786 3.846 3.696 3.486
3076.720 3.526 3.676 3.706 3.806 3.876 3.766 3.886 4.026 3.856 3.716
3096.009 3.616 3.576 3.566 3.396 3.226 3.106 2.926 2.806 2.686 2.526
3115.299 2.436 2.456 2.466 2.386 2.196 2.016 1.856 1.726 1.796 1.756
3134.589 1.536 1.566 1.556 1.486 1.466 1.286 1.1343 1.216 1.206 1.1184
3153.879 1.166 1.0288 0.7847 0.864 1.0747 1.0754 0.976 0.9695 1.004 1.0428
3173.169 0.9735 0.8111 0.906 1.0625 1.0358 0.911 0.8339 0.9043 0.9568 0.8585
3192.458 0.797 0.8329 0.8824 0.8479 0.8014 0.8154 0.8648 0.8548 0.8371 0.7861
3211.748 0.6714 0.5788 0.5574 0.5118 0.3855 0.4153 0.5073 0.5212 0.4377 0.4373
3231.038 0.5456 0.6146 0.5265 0.3647 0.3492 0.4527 0.497 0.4418 0.4243 0.306
3250.328 0.25768 0.36 0.3042 0.21613 0.1428 0.1105 0.1384 0.22512 0.3212 0.2744
3269.617 0.24437 0.3293 0.2785 0.22036 0.328 0.3408 0.3427 0.18397 0.0829 0.24853
3288.907 0.22868 0.18654 0.25832 0.2708 0.23458 0.169199 0.1252 0.26357 0.3654 0.2944
3308.197 0.20278 0.16007 0.26595 0.19968 0 0.0871 0.24157 0.2873 0.3682 0.274
3327.487 0.19562 0.313 0.4045 0.4264 0.3437 0.3484 0.347 0.2829 0.1209 0.1351
3346.777 0.2892 0.1 0.1124 0.25712 0.3885 0.426 0.3668 0.375 0.3322 0.2944
3366.066 0.24276 0.3401 0.3762 0.3515 0.4311 0.5358 0.4075 0.23639 0.3416 0.4465
3385.356 0.4808 0.5941 0.7213 0.8676 0.9291 0.8799 0.9638 0.964 0.9613 1.1419
3404.646 1.326 1.486 1.666 1.746 1.656 1.626 1.736 1.836 1.906 1.936
3423.936 1.846 2.106 2.476 2.646 2.826 2.936 3.126 3.296 3.546 4.086
3443.225 4.426 4.706 5.046 5.536 6.226 6.716 7.446 8.266 8.936 9.266
3462.515 9.376 9.466 9.126 8.446 7.346 6.236 5.376 4.536 3.846 3.206
3481.805 2.726 2.386 2.086 1.826 1.546 1.516 1.546 1.406 1.206 1.0703
3501.095 0.9069 0.8347 0.8583 0.8036 0.6552 0.6739 0.6942 0.4743 0.4137 0.5328
3520.385 0.4455 0.3246 0.3316 0.3109 0.3885 0.3582 0.2667 0.3421 0.382 0.3917
3539.674 0.2212 0.1206 0.1458 0.16227 0.2846 0.306 0.3765 0.3397 0.16219 0.18424
3558.964 0.3044 0.1323 0.0784 0.2887 0.25075 0.18248 0.165051 0.1317 0.18645 0.21456
3578.254 0.20462 0.118 0.1071 0.2979 0.26392 0.1537 0.20027 0.20647 0.25547 0.24612
3597.544 0.165426 0.3325 0.3206 0.17624 0.2661 0.23341 0.26038 0.26079 0.081 0.0756
3616.833 0.061 0.1534 0.285 0.2295 0.25967 0.24895 0.16008 0.172081 0.2684 0.3347
3636.123 0.2773 0.168992 0.2664 0.25419 0.22247 0.2888 0.175251 0.2857 0.4259 0.4686
3655.413 0.4332 0.3449 0.3203 0.2672 0.2726 0.2769 0.3025 0.3431 0.3296 0.25608
3674.703 0.18866 0.18357 0.3206 0.3072 0.17998 0.3318 0.4202 0.22271 0.173142 0.16399
3693.993 0.1288 0.3026 0.3667 0.20127 0.145 0.1544 0.124 0.2745 0.3159 0.3469
3713.282 0.4118 0.3328 0.33 0.24247 0.2841 0.4969 0.3962 0.18469 0.1039 0.0663
3732.572 0.1275 0.2972 0.4179 0.1946 0.016 0.2266 0.3815 0.22822 0.25605 0.3964
3751.862 0.3856 0.3675 0.22367 0.21799 0.196 0.24891 0.2931 0.169736 0.2275 0.3118
3771.152 0.3452 0.18858 0.17721 0.3081 0.3013 0.3654 0.20911 0.046 0.034 0.1073
3790.441 0.3382 0.3527 0.3288 0.2979 0.21397 0.21838 0.22675 0.1489 0.19971 0.20164
3809.731 0.22649 0.383 0.4312 0.3865 0.2724 0.3243 0.3877 0.26017 0.17814 0.3889
3829.021 0.4795 0.3088 0.19983 0.24111 0.3164 0.4308 0.3151 0.24677 0.3082 0.22481
3848.311 0.169046 0.15641 0.18496 0.19946 0.3374 0.4188 0.354 0.3044 0.3768 0.3456
3867.601 0.3658 0.4332 0.342 0.2805 0.23518 0.2713 0.19785 0.2785 0.3176 0.1494
3886.890 0.17815 0.2999 0.4516 0.4547 0.4164 0.3649 0.3213 0.3621 0.3076 0.1245
3906.180 0.1243 0.19389 0.25717 0.21991 0.20394 0.18943 0.1428 0.24278 0.3072 0.3818
3925.470 0.4578 0.4068 0.3487 0.4152 0.3572 0.25292 0.3819 0.3986 0.2858 0.24012
3944.760 0.20971 0.20307 0.21311 0.4083 0.5041 0.3986 0.3651 0.3508 0.3546 0.4505
3964.049 0.4045 0.326 0.3688 0.2819 0.3031 0.3413 0.19127 0.21539 0.2685 0.366
3983.339 0.4356 0.3256 0.2755 0.3224 0.3641 0.3405 0.3757 0.3356 0.3461 0.3801
##END=
