##TITLE=9-Bromofluorene
##JCAMP-DX=4.24
##DATA TYPE=INFRARED SPECTRUM
##ORIGIN=NIST Mass Spectrometry Data Center
##OWNER=NIST Standard Reference Data Program
Collection (C) 2018 copyright by the U.S. Secretary of Commerce
on behalf of the United States of America. All rights reserved.
##CAS REGISTRY NO=1940-57-4
##MOLFORM=C 13 H 9 Br
##$NIST SOURCE=MSDC-IR
##SPECTROMETER/DATA SYSTEM=HP-GC/MS/IRD
##STATE=gas
##XUNITS=1/CM
##YUNITS=ABSORBANCE
##XFACTOR=1.0
##YFACTOR=0.000003300
##DELTAX=4.0
##FIRSTX=550.0
##LASTX=3846.0
##FIRSTY=0.000300
##MAXX=3846
##MINX=550
##MAXY=0.033
##MINY=0
##NPOINTS=825
##XYDATA=(X++(Y..Y))
550.0 91 29 4 19 21 24 24 43 75 76
590.0 88 84 66 74 81 151 345 544 664 692
630.0 694 916 1455 1855 2194 2707 2967 2694 1917 1100
670.0 618 445 391 346 291 228 175 165 165 242
710.0 367 646 1435 3377 6117 9524 10000 6922 4259 2197
750.0 1166 752 529 500 625 860 1183 1365 1048 651
790.0 371 192 141 114 90 75 71 104 176 267
830.0 332 336 344 412 586 859 1068 1066 886 654
870.0 497 396 300 204 138 100 76 60 39 30
910.0 26 32 53 67 97 138 194 236 173 113
950.0 67 38 46 43 36 38 53 80 114 175
990.0 252 302 313 291 272 273 281 272 244 251
1030.0 267 243 183 128 106 82 57 59 81 69
1070.0 72 83 81 78 92 106 94 99 120 164
1110.0 229 267 308 414 617 977 1567 2140 2285 1956
1150.0 1381 906 597 406 303 289 414 714 1028 1135
1190.0 978 645 421 387 379 331 254 175 129 112
1230.0 96 85 79 74 64 54 45 39 40 48
1270.0 64 87 115 147 173 194 236 331 424 448
1310.0 391 289 206 155 116 83 71 79 84 83
1350.0 76 64 48 32 31 31 40 58 67 61
1390.0 60 62 64 89 133 186 234 260 271 285
1430.0 330 447 748 1284 2004 2607 2643 2107 1287 634
1470.0 446 436 420 346 235 145 96 90 105 103
1510.0 99 93 73 55 47 44 40 38 43 62
1550.0 76 76 76 90 117 160 222 298 367 404
1590.0 412 437 494 554 577 532 418 280 166 110
1630.0 102 99 106 108 94 76 59 72 102 143
1670.0 160 137 104 59 38 50 51 60 87 116
1710.0 140 148 137 128 109 85 78 82 84 85
1750.0 80 77 67 56 52 53 64 79 93 116
1790.0 155 199 234 239 215 171 122 92 89 107
1830.0 133 151 156 141 111 83 69 74 97 137
1870.0 177 195 179 137 96 94 130 197 291 350
1910.0 335 260 163 94 88 123 205 319 390 367
1950.0 271 153 73 49 46 46 46 44 40 36
1990.0 37 35 31 29 30 32 39 44 36 37
2030.0 37 37 37 38 40 35 37 39 37 29
2070.0 26 28 29 28 18 13 21 25 20 29
2110.0 40 35 28 27 25 22 15 20 28 27
2150.0 25 26 29 32 35 32 29 33 31 30
2190.0 37 33 31 36 36 32 27 27 32 34
2230.0 30 27 29 38 51 61 67 73 71 64
2270.0 55 46 39 40 44 41 44 57 66 74
2310.0 83 95 103 95 93 93 82 67 59 52
2350.0 43 32 25 21 19 22 26 33 34 28
2390.0 28 35 38 44 44 36 36 39 35 32
2430.0 39 37 33 40 44 44 39 39 41 35
2470.0 38 37 43 46 37 39 43 34 28 25
2510.0 24 27 30 30 31 27 27 29 27 21
2550.0 18 18 19 22 24 26 28 30 39 49
2590.0 48 48 56 55 54 57 58 57 58 55
2630.0 48 50 50 50 44 35 34 38 40 35
2670.0 38 39 33 18 19 34 35 25 26 28
2710.0 27 30 21 19 28 26 24 28 28 30
2750.0 29 16 24 34 33 32 36 37 44 49
2790.0 53 56 49 43 41 43 35 27 26 31
2830.0 27 18 24 27 31 37 30 29 31 39
2870.0 52 56 61 73 78 91 92 88 93 96
2910.0 97 102 106 96 85 81 81 84 84 81
2950.0 82 104 139 187 223 204 162 120 89 93
2990.0 103 107 129 160 213 308 449 647 876 1087
3030.0 1229 1261 1278 1351 1446 1527 1614 1799 2220 2860
3070.0 3484 3728 3377 2650 1961 1479 1125 837 577 358
3110.0 213 150 115 90 97 87 77 80 87 95
3150.0 108 113 110 117 114 96 86 67 55 50
3190.0 37 38 44 39 33 30 19 25 46 37
3230.0 31 45 48 37 37 38 45 41 22 7
3270.0 0 9 22 31 29 24 27 35 33 20
3310.0 26 37 33 34 26 29 23 12 26 35
3350.0 51 47 30 36 50 40 32 29 19 23
3390.0 27 29 39 30 28 32 34 46 49 38
3430.0 40 55 44 32 37 41 45 26 20 34
3470.0 41 37 28 23 35 51 57 48 50 44
3510.0 27 29 35 37 41 51 48 43 32 41
3550.0 50 33 40 55 29 17 33 40 47 49
3590.0 37 36 53 67 57 48 49 54 68 65
3630.0 62 54 50 66 54 45 56 61 53 53
3670.0 52 51 50 49 38 31 51 53 47 45
3710.0 44 52 68 61 51 53 48 58 73 76
3750.0 58 59 61 48 56 69 73 57 68 81
3790.0 65 68 67 56 63 75 65 59 75 73
3830.0 77 77 52 50 77
##END=
