##TITLE=2-Acetamido-6-chlorobenzoic acid
##JCAMP-DX=4.24
##DATA TYPE=INFRARED SPECTRUM
##ORIGIN=EPA-IR VAPOR PHASE LIBRARY
##OWNER=SRD/NIST
Collection (C) 2018 copyright by the U.S. Secretary of Commerce
on behalf of the United States of America. All rights reserved.
##CAS REGISTRY NO=19407-42-2
##MOLFORM=C 9 H 8 Cl N O 3
##$NIST SOURCE=MSDC-IR
##STATE=gas
##XUNITS=1/CM
##YUNITS=ABSORBANCE
##XFACTOR=1.
##YFACTOR=0.001
##DELTAX=1.92898
##FIRSTX=549.8
##LASTX=4000.7
##FIRSTY=0
##MAXX=4000.7
##MINX=549.759
##MAXY=0.347356
##MINY=0
##NPOINTS=1790
##XYDATA=(X++(Y..Y))
549.759 0 0.395 1.0255 0.82662 0.585 1.192 1.836 1.6872 1.886 2.776
569.049 3.106 3.476 4.286 4.506 4.176 4.636 4.886 4.596 5.076 5.506
588.339 6.526 8.986 10.386 10.726 11.066 11.186 10.826 10.156 9.206 7.076
607.628 4.976 3.706 2.916 2.596 2.476 2.146 2.076 2.436 2.766 3.286
626.918 3.636 3.786 4.196 4.126 4.336 4.936 4.836 4.756 4.716 4.396
646.208 4.186 3.996 3.616 3.396 2.986 2.586 2.446 2.326 2.676 2.826
665.498 2.646 3.306 4.246 5.516 7.246 9.356 12.066 14.476 16.516 20.346
684.787 26.336 28.326 23.566 18.846 16.916 14.896 12.316 9.806 7.476 5.796
704.077 4.446 3.466 2.706 2.226 2.026 1.956 1.906 1.604 1.428 1.5956
723.367 2.056 2.206 2.286 2.196 2.256 2.536 2.916 3.276 3.636 4.066
742.657 4.226 4.876 6.046 6.686 7.636 8.976 10.026 11.366 13.066 15.106
761.947 17.646 20.416 23.136 25.696 27.766 29.326 31.276 32.236 28.116 22.116
781.236 18.306 15.036 12.186 10.096 8.126 6.896 6.986 8.046 10.326 13.536
800.526 17.626 22.426 27.146 31.516 37.816 48.496 57.396 50.716 36.846 30.996
819.816 28.156 23.886 18.906 13.626 9.206 6.776 4.916 3.796 3.656 3.176
839.106 2.596 2.666 2.786 2.536 2.866 2.886 2.506 2.556 2.486 2.186
858.395 2.246 2.576 2.856 2.846 2.706 2.936 3.126 2.956 3.176 3.626
877.685 3.886 4.566 5.096 5.246 5.756 6.686 7.366 7.576 7.946 8.396
896.975 8.896 9.806 10.796 11.496 12.366 14.136 16.596 19.886 23.896 27.716
916.265 32.016 37.596 43.476 48.996 54.876 61.156 66.576 71.766 76.756 80.926
935.555 83.866 85.876 87.146 87.446 88.126 89.256 91.216 94.336 98.196 101.626
954.844 103.916 105.096 103.626 99.706 94.546 88.166 82.266 78.566 75.866 73.266
974.134 70.496 67.486 64.366 59.856 53.766 46.786 38.676 30.656 24.326 19.696
993.424 16.426 14.406 12.966 11.526 10.966 10.776 10.536 10.116 9.726 10.006
1012.714 10.196 10.386 10.726 11.736 13.146 14.536 16.426 18.416 20.436 23.006
1032.003 25.126 26.556 27.276 25.916 24.126 22.236 18.756 14.796 11.496 9.266
1051.293 8.526 8.216 6.846 6.356 6.756 7.546 9.666 11.646 13.416 15.706
1070.583 17.396 18.206 18.596 18.326 17.226 14.966 12.646 10.886 9.706 8.766
1089.873 7.326 6.456 6.256 5.926 5.026 4.686 4.386 3.866 4.086 3.866
1109.163 3.756 3.916 3.986 3.406 3.856 4.806 4.756 4.896 4.516 3.756
1128.452 3.966 4.266 4.436 5.216 5.426 6.196 8.376 9.786 10.306 10.646
1147.742 10.586 10.036 10.516 10.706 9.636 9.086 8.266 8.036 8.986 10.116
1167.032 11.626 13.516 15.656 18.176 20.696 23.136 26.066 30.136 35.006 41.896
1186.322 49.366 57.756 69.176 81.006 91.366 99.226 101.716 99.276 93.846 83.926
1205.611 72.746 58.566 41.836 27.776 18.616 13.716 9.816 8.136 8.056 7.926
1224.901 7.436 7.586 8.266 8.486 10.146 12.276 14.166 16.486 18.986 22.876
1244.191 28.456 35.426 43.556 51.136 58.316 64.746 69.756 74.016 78.496 83.186
1263.481 85.636 86.106 85.416 83.696 80.856 77.126 72.556 66.146 57.966 48.196
1282.771 38.886 31.636 26.226 22.446 19.676 17.806 15.846 13.786 11.886 10.026
1302.060 8.796 7.886 7.146 6.756 6.226 5.706 5.446 5.176 4.886 4.546
1321.350 4.406 4.386 4.316 4.206 4.116 4.006 4.096 4.136 3.876 3.746
1340.640 3.816 3.766 3.796 3.916 3.966 4.076 4.296 4.636 5.036 5.466
1359.930 5.946 6.636 7.416 8.026 8.776 9.946 11.336 13.096 15.046 16.576
1379.219 17.416 17.746 17.706 17.356 16.476 14.746 12.636 10.536 8.986 8.156
1398.509 7.616 7.126 6.796 6.666 6.466 6.386 6.636 7.216 8.096 9.196
1417.799 10.736 12.946 15.666 18.726 21.876 24.956 28.006 30.876 33.706 36.406
1437.089 39.056 41.896 45.426 49.956 55.376 61.746 69.176 77.126 84.946 91.196
1456.378 94.346 94.046 90.336 83.686 75.016 64.716 53.066 41.026 30.566 22.626
1475.668 17.176 13.676 11.216 9.426 8.316 7.506 6.956 6.536 6.336 6.336
1494.958 6.336 6.196 6.086 6.136 6.226 6.026 5.756 5.746 5.876 6.026
1514.248 6.136 6.236 6.696 7.326 7.876 8.506 9.126 9.716 10.346 10.916
1533.538 11.506 12.316 13.276 14.446 15.986 18.266 21.376 25.356 30.476 36.896
1552.827 44.236 52.076 59.416 65.356 69.516 71.636 71.796 70.006 65.496 58.736
1572.117 52.336 48.446 47.876 50.256 54.956 61.646 69.946 79.586 89.876 99.406
1591.407 106.376 108.936 106.356 99.636 90.786 80.646 68.106 54.226 41.286 31.286
1610.697 25.036 21.476 19.766 19.446 19.766 20.496 21.726 23.286 25.156 27.356
1629.986 30.136 33.506 37.656 42.896 49.616 58.136 69.416 83.686 101.166 122.416
1649.276 146.276 170.686 195.146 216.226 230.076 235.666 232.116 219.556 199.466 173.566
1668.566 143.906 113.406 85.376 62.526 45.686 34.736 27.606 22.616 18.946 16.226
1687.856 14.446 13.026 11.816 11.026 10.536 9.956 9.406 9.166 9.056 8.816
1707.146 8.516 8.386 8.346 8.166 7.956 7.626 7.406 7.386 7.386 7.376
1726.435 7.486 7.796 8.136 8.596 9.286 10.316 11.536 12.826 14.316 15.906
1745.725 17.456 18.996 20.326 21.226 21.946 22.526 23.066 23.696 24.516 25.546
1765.015 26.936 29.116 32.146 36.256 41.746 48.776 57.936 69.926 85.926 106.826
1784.305 133.536 166.826 206.116 249.576 292.236 326.236 344.546 347.356 340.526 326.136
1803.594 299.016 255.106 199.846 145.556 100.816 68.156 46.126 32.026 23.226 17.856
1822.884 14.726 12.646 11.356 10.596 10.176 10.066 10.026 10.146 10.496 10.846
1842.174 11.116 11.586 12.226 12.596 12.656 12.496 12.156 11.636 11.056 10.606
1861.464 10.216 9.906 9.766 9.766 9.806 9.886 9.816 9.646 9.586 9.476
1880.754 9.246 8.996 8.766 8.546 8.356 8.166 8.076 8.106 8.066 8.016
1900.043 8.126 8.236 8.306 8.296 8.286 8.236 8.176 8.246 8.166 8.196
1919.333 8.276 8.306 8.416 8.436 8.546 8.676 8.626 8.546 8.386 8.256
1938.623 8.176 8.056 7.956 7.726 7.526 7.406 7.066 6.606 6.196 5.826
1957.913 5.406 4.906 4.356 3.986 3.656 3.366 3.226 3.216 3.076 2.956
1977.202 2.936 2.846 2.856 2.816 2.836 2.816 2.616 2.536 2.506 2.396
1996.492 2.346 2.336 2.206 2.186 2.246 2.326 2.426 2.516 2.596 2.466
2015.782 2.396 2.406 2.516 2.666 2.696 2.766 2.826 2.716 2.516 2.526
2035.072 2.496 2.386 2.326 2.206 2.096 1.976 1.966 2.076 2.056 1.946
2054.362 1.906 1.856 1.826 1.7368 1.7465 1.7825 1.7087 1.7732 1.856 1.7747
2073.651 1.6924 1.7488 1.7728 1.7797 1.846 1.7496 1.705 1.6721 1.5913 1.7231
2092.941 1.7172 1.5751 1.5921 1.5726 1.4873 1.5082 1.5459 1.59 1.5896 1.5266
2112.231 1.6049 1.7738 1.7378 1.5975 1.7018 1.7796 1.946 2.056 2.036 2.226
2131.521 2.216 2.176 2.186 2.146 2.176 2.186 2.076 1.956 1.986 1.976
2150.810 1.916 1.886 1.906 1.856 1.7757 1.866 1.936 1.886 1.866 1.906
2170.100 1.946 1.976 1.916 1.896 1.936 1.946 1.976 2.036 2.176 2.226
2189.390 2.166 2.206 2.336 2.466 2.416 2.616 2.656 2.656 2.866 2.856
2208.680 2.896 2.906 2.826 2.776 2.706 2.606 2.556 2.466 2.476 2.406
2227.970 2.386 2.346 2.276 2.346 2.306 2.336 2.426 2.436 2.316 2.176
2247.259 2.136 2.196 2.356 2.246 2.076 2.056 2.086 1.966 1.866 1.826
2266.549 1.7237 1.6524 1.5961 1.5363 1.4459 1.3366 1.3757 1.5668 1.5099 1.4705
2285.839 1.5115 1.4604 1.4949 1.5865 1.6573 1.6628 1.6175 1.5437 1.5599 1.6991
2305.129 1.6442 1.5434 1.5257 1.4309 1.3039 1.2154 1.2806 1.3326 1.264 1.2776
2324.418 1.3404 1.3636 1.3872 1.4054 1.4663 1.425 1.4665 1.4089 1.3255 1.4054
2343.708 1.4378 1.5537 1.6802 1.6224 1.5539 1.5189 1.5812 1.6276 1.5737 1.6809
2362.998 1.806 1.906 2.046 2.136 2.206 2.256 2.286 2.246 2.186 2.236
2382.288 2.316 2.316 2.196 2.176 2.276 2.386 2.396 2.106 1.916 1.906
2401.578 1.846 1.6774 1.5523 1.5684 1.597 1.5288 1.4359 1.4369 1.4483 1.4885
2420.867 1.4974 1.4828 1.3863 1.4345 1.4806 1.3474 1.3741 1.4804 1.4115 1.4522
2440.157 1.5662 1.5445 1.5545 1.6328 1.6219 1.5949 1.6788 1.806 1.876 1.966
2459.447 2.066 2.006 2.016 2.126 2.066 1.976 1.906 1.836 1.966 1.936
2478.737 1.926 1.806 1.5828 1.6462 1.6087 1.4918 1.3739 1.3875 1.4665 1.3941
2498.026 1.2534 1.2888 1.3237 1.3021 1.3472 1.321 1.4424 1.5311 1.5149 1.5341
2517.316 1.4498 1.5797 1.7094 1.6836 1.6999 1.7799 1.906 1.7618 1.7102 1.7434
2536.606 1.7064 1.7528 1.7325 1.6941 1.5479 1.6661 1.816 1.7654 1.7622 1.856
2555.896 1.946 1.866 1.7821 1.816 1.976 1.936 1.936 2.126 2.206 2.256
2575.186 2.286 2.226 2.126 2.136 2.136 2.036 2.176 2.276 2.196 2.226
2594.475 2.326 2.536 2.536 2.486 2.556 2.516 2.556 2.566 2.626 2.736
2613.765 2.646 2.706 2.636 2.376 2.216 2.146 2.256 2.196 2.136 2.136
2633.055 2.126 2.136 1.976 1.816 1.7 1.7417 1.6814 1.4151 1.3658 1.4815
2652.345 1.4179 1.3819 1.5863 1.5907 1.4301 1.3768 1.4629 1.5044 1.4931 1.482
2671.634 1.4147 1.4231 1.4087 1.3283 1.3841 1.492 1.4817 1.3768 1.3081 1.202
2690.924 1.452 1.7215 1.679 1.796 1.7526 1.6604 1.7108 1.6533 1.5415 1.5997
2710.214 1.6919 1.6932 1.6686 1.5487 1.4994 1.6513 1.6392 1.5818 1.6684 1.6375
2729.504 1.5828 1.5156 1.4816 1.4282 1.4489 1.5298 1.5215 1.559 1.6023 1.4962
2748.794 1.3122 1.2987 1.3644 1.2065 1.1901 1.3051 1.3528 1.3304 1.2293 1.255
2768.083 1.2483 1.1517 1.2076 1.2913 1.2382 1.1912 1.1615 1.1405 1.0765 1.0573
2787.373 1.0776 1.1298 1.1085 1.1142 1.1639 1.1115 1.1558 1.1827 1.0746 1.0978
2806.663 1.1644 1.1052 1.1944 1.3355 1.3982 1.3406 1.38 1.5143 1.4412 1.2236
2825.953 1.1658 1.4698 1.4861 1.3896 1.487 1.557 1.724 1.7255 1.6111 1.876
2845.242 1.956 1.7303 1.6964 1.976 2.136 2.016 2.156 2.326 2.326 2.286
2864.532 2.326 2.336 2.236 2.196 2.096 1.866 1.7449 1.65 1.5493 1.4469
2883.822 1.334 1.2897 1.2786 1.2469 1.331 1.3059 1.2687 1.3384 1.3608 1.3478
2903.112 1.258 1.3875 1.491 1.5358 1.3209 1.1657 1.5299 1.6769 1.7585 1.7004
2922.401 1.5796 1.816 1.796 1.976 2.366 2.606 3.036 3.646 4.476 5.116
2941.691 5.706 6.096 6.126 6.096 5.636 4.916 4.236 3.596 3.046 2.776
2960.981 2.596 2.286 2.446 2.736 2.666 2.956 3.226 3.256 3.446 3.626
2980.271 3.796 4.156 4.336 4.346 4.616 4.626 4.366 4.086 3.816 3.826
2999.561 3.916 3.576 3.226 3.216 3.226 2.966 2.836 2.786 2.726 2.516
3018.850 2.346 2.596 2.686 2.706 2.606 2.616 2.566 2.336 2.306 2.276
3038.140 2.206 2.396 2.376 2.216 2.176 2.216 2.556 2.736 3.116 3.676
3057.430 4.096 4.526 5.096 5.686 6.186 6.496 6.596 6.906 7.116 7.196
3076.720 7.246 7.186 7.176 7.066 6.816 6.626 6.336 5.846 5.126 4.476
3096.009 3.856 3.216 2.846 2.646 2.556 2.496 2.586 2.596 2.436 2.646
3115.299 2.796 2.736 2.346 2.296 2.306 2.156 2.226 2.026 1.966 1.946
3134.589 1.886 1.668 1.7158 1.7035 1.4705 1.6103 1.6495 1.4041 1.1238 1.2456
3153.879 1.3226 1.4869 1.5624 1.3924 1.3943 1.2952 1.2712 1.1926 1.0118 0.9394
3173.169 0.9628 0.8894 0.85652 1.041 1.0592 0.83545 0.9402 1.2367 1.1453 1.1285
3192.458 1.2118 0.933 0.8573 0.8904 1.086 1.4071 1.4631 1.3241 1.008 0.86038
3211.748 1.063 1.0632 0.916 1.1097 1.2162 1.2125 1.4201 1.447 1.2144 1.1295
3231.038 1.1431 1.229 1.2079 0.8951 1.0394 1.3135 1.2255 1.1506 0.9535 0.8812
3250.328 0.9928 1.1097 0.9889 0.88567 0.87261 0.83154 0.8897 1.0509 1.0608 1.0631
3269.617 1.1314 1.1501 1.3135 1.3795 1.5607 1.5428 1.4161 1.5748 1.6025 1.4676
3288.907 1.499 1.6512 1.936 2.036 2.086 2.196 1.836 1.6751 1.7711 1.826
3308.197 1.846 1.7757 1.7302 1.5846 1.4453 1.1373 0.9117 0.9201 1.0451 1.2453
3327.487 1.2335 1.1753 1.237 1.236 1.1786 1.1395 1.1496 0.86136 0.7014 0.9275
3346.777 1.1956 1.0346 0.9733 1.0859 0.85016 0.795978 0.80236 0.9223 0.9137 0.787719
3366.066 0.7532 0.7004 0.7619 0.9979 0.9518 0.9269 1.0615 1.0188 0.8894 0.8447
3385.356 0.9172 0.596 0.35 0.452 0.77706 0.83267 0.87328 0.84498 0.601 0.87074
3404.646 1.0266 0.917 0.7239 0.677 0.83913 0.9128 0.9079 0.7584 0.559 0.602
3423.936 0.694 0.7133 0.9687 0.942 0.677 0.732 0.7324 0.516 0.546 0.7615
3443.225 0.9038 0.9 0.7491 0.667 0.82306 0.9047 0.476 0.417 0.78129 0.9417
3462.515 1.0068 0.9128 0.676 0.627 0.738 0.87546 0.9685 0.9968 0.9436 0.80144
3481.805 1.0749 1.2852 0.9407 0.9233 1.0255 1.1336 1.2215 1.0205 0.86355 0.80973
3501.095 0.7491 0.87829 1.046 1.0201 1.0331 1.1483 1.0376 0.78111 0.9146 1.0079
3520.385 0.8916 0.79405 0.7217 0.8921 0.9026 0.9248 0.8957 1.0371 1.2876 1.162
3539.674 1.368 1.508 1.4179 1.5424 1.6402 1.6177 1.7375 2.136 2.636 2.696
3558.964 2.726 2.956 3.266 3.616 3.726 4.016 4.466 4.286 3.946 4.126
3578.254 4.156 4.066 3.906 3.466 2.946 2.716 2.586 2.496 2.246 2.096
3597.544 2.016 1.6695 1.5921 1.6801 1.5335 1.1929 0.9975 1.006 1.1308 1.0477
3616.833 0.88063 0.88338 0.80414 0.7654 0.78321 0.8919 0.7454 0.7642 1.0018 0.7642
3636.123 0.7272 0.618 0.468 0.77735 0.77707 0.576 0.614 0.546 0.518 0.656
3655.413 0.85807 0.9527 0.8457 0.8873 0.86092 0.594 0.518 0.441 0.7205 1.0963
3674.703 1.0232 0.7485 0.83766 1.0844 1.1025 1.0851 1.033 1.1313 1.0065 0.7497
3693.993 0.7277 0.82021 0.87513 0.81982 0.7751 0.7532 0.7629 0.649 0.545 0.374
3713.282 0.367 0.7085 0.7519 0.672 0.86182 0.86073 0.81362 1.0503 1.0231 0.9015
3732.572 0.6968 0.685 0.7273 0.467 0.404 0.547 0.79664 0.80503 0.432 0.422
3751.862 0.481 0.551 0.7205 0.7413 0.81094 1.0174 1.0875 0.87299 0.9132 0.81486
3771.152 0.599 0.7265 0.9585 1.0057 0.684 0.579 0.82401 0.85645 0.7026 0.9148
3790.441 1.1064 0.9775 0.9492 0.791717 0.683 0.7005 0.7561 0.6959 0.617 0.961
3809.731 1.0516 0.9759 1.013 0.791713 0.8971 0.9021 0.86218 0.951 0.8914 0.939
3829.021 0.789774 0.8042 0.79957 0.7297 0.8746 1.0307 1.1153 0.86455 0.83233 1.0051
3848.311 1.0838 1.0872 0.8868 0.7369 0.7651 0.9584 1.1899 1.2281 0.9051 0.614
3867.601 0.6875 0.601 0.6947 0.8697 0.666 0.605 0.593 0.551 0.9586 1.1431
3886.890 0.671 0.604 0.641 0.663 0.78092 0.7009 0.647 0.65 0.88471 0.9507
3906.180 0.69 0.64 0.8166 0.8582 0.729 0.658 0.528 0.496 0.549 0.725
3925.470 0.785636 0.85796 0.9519 0.569 0.66 0.9799 0.8992 0.8885 0.7178 0.468
3944.760 0.7105 1.1481 1.139 0.7427 0.534 0.501 0.639 0.904 0.9886 1.1283
3964.049 1.211 1.0298 0.85454 1.0438 1.0937 0.87518 0.85351 0.82063 0.687 0.81498
3983.339 0.904 0.629 0.668 1.0549 0.8848 0.7756 1.1143 1.0636 1.2101 1.355
##END=
