##TITLE=4-Octyne
##JCAMP-DX=4.24
##DATA TYPE=INFRARED SPECTRUM
##ORIGIN=NIST Mass Spectrometry Data Center
##OWNER=NIST Standard Reference Data Program
Collection (C) 2018 copyright by the U.S. Secretary of Commerce
on behalf of the United States of America. All rights reserved.
##CAS REGISTRY NO=1942-45-6
##MOLFORM=C 8 H 14
##$NIST SOURCE=MSDC-IR
##SPECTROMETER/DATA SYSTEM=HP-GC/MS/IRD
##STATE=gas
##XUNITS=1/CM
##YUNITS=ABSORBANCE
##XFACTOR=1.0
##YFACTOR=0.000003500
##DELTAX=4.0
##FIRSTX=550.0
##LASTX=3846.0
##FIRSTY=0.000522
##MAXX=3846
##MINX=550
##MAXY=0.035
##MINY=0
##NPOINTS=825
##XYDATA=(X++(Y..Y))
550.0 149 183 134 105 78 75 78 94 113 117
590.0 109 97 85 84 77 64 75 75 59 77
630.0 86 58 40 50 35 23 33 35 35 31
670.0 28 31 32 20 16 26 45 53 52 53
710.0 70 78 77 68 59 68 71 79 83 87
750.0 99 104 95 83 105 153 183 196 206 203
790.0 192 173 154 132 122 128 127 117 94 89
830.0 93 78 68 79 88 84 99 119 129 151
870.0 165 176 188 195 197 191 183 165 149 135
910.0 111 82 66 67 54 40 36 33 35 28
950.0 13 2 13 31 36 30 25 30 38 36
990.0 45 65 84 119 158 192 225 231 225 214
1030.0 186 149 116 104 106 102 108 147 180 177
1070.0 170 178 187 175 153 153 154 137 117 94
1110.0 72 59 42 29 41 59 58 41 40 48
1150.0 52 44 37 37 41 41 41 45 43 49
1190.0 53 52 59 67 62 68 86 116 157 179
1230.0 185 183 164 145 147 154 175 209 264 357
1270.0 501 646 705 695 623 470 344 300 306 332
1310.0 389 503 678 938 1261 1565 1757 1753 1564 1278
1350.0 934 641 481 425 420 460 543 628 673 687
1390.0 675 600 499 430 394 376 378 415 489 601
1430.0 741 870 976 1073 1143 1176 1197 1208 1192 1134
1470.0 1034 907 771 640 535 440 366 306 256 213
1510.0 189 166 138 123 118 113 104 88 78 87
1550.0 85 73 63 66 72 67 57 60 72 66
1590.0 66 69 66 59 57 59 54 49 46 42
1630.0 41 36 34 35 33 25 27 36 37 37
1670.0 32 31 34 26 27 35 27 17 19 23
1710.0 17 13 11 16 21 19 11 4 3 4
1750.0 5 9 12 14 16 10 7 10 11 10
1790.0 2 0 9 16 11 3 2 10 13 9
1830.0 6 3 5 10 12 7 3 4 4 5
1870.0 9 13 13 11 7 5 8 9 8 4
1910.0 4 8 10 10 6 5 11 14 18 20
1950.0 23 22 13 10 11 7 9 14 12 11
1990.0 12 14 18 12 6 9 6 10 18 17
2030.0 18 25 30 28 24 18 11 9 11 11
2070.0 7 9 13 16 10 3 5 8 12 20
2110.0 20 19 23 23 18 11 10 15 18 19
2150.0 24 28 30 30 28 28 28 27 27 24
2190.0 24 26 24 19 19 21 19 18 21 24
2230.0 21 21 17 14 21 17 9 10 15 16
2270.0 19 19 14 15 17 18 19 9 4 13
2310.0 16 12 15 17 10 8 7 11 15 15
2350.0 14 12 11 11 9 10 16 17 16 14
2390.0 12 14 23 27 27 23 19 24 26 24
2430.0 25 23 21 20 20 24 20 16 21 16
2470.0 15 10 2 7 16 17 14 16 16 13
2510.0 15 22 30 31 31 31 30 34 36 39
2550.0 40 42 44 44 37 41 51 57 61 52
2590.0 46 42 41 45 43 45 53 57 56 56
2630.0 63 66 69 84 99 106 108 112 112 113
2670.0 116 124 118 106 104 101 108 110 102 97
2710.0 107 116 121 124 125 131 141 154 167 180
2750.0 193 205 211 207 207 215 225 237 244 260
2790.0 288 311 327 345 377 412 455 515 585 670
2830.0 776 910 1097 1348 1633 1881 2093 2289 2480 2769
2870.0 3221 3728 4176 4450 4467 4338 4178 4107 4246 4563
2910.0 5000 5495 5982 6484 7131 8015 8955 9692 10000 9746
2950.0 9122 8438 7998 8009 8469 8961 8876 8313 7378 5876
2990.0 4318 3204 2434 1880 1475 1179 977 838 750 671
3030.0 615 572 530 496 474 437 399 377 352 321
3070.0 295 287 280 264 250 239 232 225 217 217
3110.0 218 201 174 163 156 152 156 152 136 133
3150.0 128 115 119 120 112 113 116 115 116 115
3190.0 103 91 83 76 72 71 78 75 67 58
3230.0 47 49 48 45 43 42 36 19 26 38
3270.0 39 46 50 41 36 40 33 32 35 37
3310.0 31 30 42 41 37 30 45 49 52 50
3350.0 37 44 52 41 34 41 35 30 25 22
3390.0 25 21 26 33 25 23 24 22 32 39
3430.0 38 46 54 50 52 60 45 42 34 31
3470.0 31 23 33 38 33 37 39 30 27 31
3510.0 16 3 9 18 23 20 23 27 18 20
3550.0 25 30 37 29 19 27 22 19 21 6
3590.0 16 28 15 17 20 12 20 30 34 12
3630.0 15 40 28 34 47 40 32 26 27 35
3670.0 35 21 24 37 22 22 31 24 37 37
3710.0 19 34 49 45 31 25 29 31 28 31
3750.0 38 33 30 34 41 54 54 40 39 42
3790.0 38 36 43 43 45 59 56 50 42 34
3830.0 25 25 39 40 30
##END=
