##TITLE=5-Decyne
##JCAMP-DX=4.24
##DATA TYPE=INFRARED SPECTRUM
##ORIGIN=NIST Mass Spectrometry Data Center
##OWNER=NIST Standard Reference Data Program
Collection (C) 2018 copyright by the U.S. Secretary of Commerce
on behalf of the United States of America. All rights reserved.
##CAS REGISTRY NO=1942-46-7
##MOLFORM=C 10 H 18
##$NIST SOURCE=MSDC-IR
##SPECTROMETER/DATA SYSTEM=HP-GC/MS/IRD
##STATE=gas
##XUNITS=1/CM
##YUNITS=ABSORBANCE
##XFACTOR=1.0
##YFACTOR=0.000004800
##DELTAX=4.0
##FIRSTX=550.0
##LASTX=3846.0
##FIRSTY=0.000336
##MAXX=3846
##MINX=550
##MAXY=0.048
##MINY=0
##NPOINTS=825
##XYDATA=(X++(Y..Y))
550.0 70 60 60 52 37 39 49 41 27 33
590.0 44 33 25 23 17 20 14 13 22 16
630.0 0 4 4 5 22 20 16 9 0 3
670.0 13 23 22 23 27 37 47 50 49 54
710.0 75 77 88 106 118 141 162 183 206 212
750.0 196 169 142 127 118 109 98 93 86 82
790.0 82 73 61 49 43 38 37 31 21 18
830.0 15 15 12 9 14 18 16 17 18 23
870.0 31 31 35 38 38 45 54 59 59 53
910.0 42 41 46 57 66 65 71 77 78 84
950.0 98 106 106 99 85 80 76 67 57 48
990.0 47 43 34 27 23 22 18 18 22 21
1030.0 25 28 29 29 25 32 38 38 42 48
1070.0 52 56 60 68 82 102 123 141 150 143
1110.0 119 91 75 60 44 33 29 34 34 33
1150.0 33 33 31 31 36 37 34 35 42 47
1190.0 55 72 82 90 94 95 94 95 94 90
1230.0 93 102 117 146 183 211 224 209 175 151
1270.0 146 153 168 193 229 277 336 389 419 442
1310.0 479 556 685 846 993 1055 997 868 724 627
1350.0 591 582 578 550 495 454 441 460 478 470
1390.0 425 364 314 280 263 260 272 307 371 464
1430.0 591 734 857 942 987 1009 1035 1051 1049 1003
1470.0 920 796 654 518 411 329 267 218 185 162
1510.0 141 126 115 107 103 95 87 85 78 69
1550.0 61 58 56 55 55 52 46 47 50 46
1590.0 42 42 39 36 36 35 32 32 34 33
1630.0 35 31 24 24 29 27 23 22 25 25
1670.0 22 21 18 17 20 18 18 19 19 16
1710.0 14 13 12 11 9 12 12 12 11 11
1750.0 10 9 6 5 5 8 7 4 3 8
1790.0 9 4 7 9 7 6 5 3 5 7
1830.0 4 5 9 6 5 5 3 5 6 8
1870.0 9 7 6 5 4 5 5 2 3 3
1910.0 1 2 1 0 2 4 2 3 9 7
1950.0 2 0 1 3 4 4 4 4 2 0
1990.0 1 6 8 11 14 10 10 13 16 21
2030.0 26 25 23 21 20 20 18 14 14 14
2070.0 11 9 8 8 8 9 9 7 6 7
2110.0 8 10 8 9 15 14 13 14 12 10
2150.0 9 11 11 9 7 8 13 12 9 12
2190.0 17 15 14 11 10 10 9 11 12 11
2230.0 11 10 11 12 11 5 5 6 8 8
2270.0 7 9 10 8 8 10 7 6 6 2
2310.0 0 4 4 3 5 5 7 5 3 1
2350.0 1 5 4 6 8 7 12 15 15 15
2390.0 14 15 19 21 21 18 19 18 16 17
2430.0 17 14 7 7 10 7 6 6 5 7
2470.0 7 6 5 4 6 10 8 5 4 5
2510.0 8 12 12 14 18 23 25 30 37 39
2550.0 34 31 32 39 43 45 52 53 49 48
2590.0 46 45 46 48 48 48 51 52 54 56
2630.0 62 77 89 92 96 102 108 111 113 111
2670.0 113 121 118 110 109 106 97 92 91 88
2710.0 88 91 95 98 105 114 127 140 155 170
2750.0 173 172 169 175 185 190 196 202 210 218
2790.0 233 260 284 311 339 363 400 443 492 570
2830.0 663 787 956 1181 1470 1802 2163 2569 2984 3347
2870.0 3612 3751 3798 3768 3664 3505 3332 3267 3381 3699
2910.0 4210 4903 5762 6753 7826 8845 9642 10000 9746 9055
2950.0 8224 7596 7402 7494 7533 7127 6206 4994 3772 2825
2990.0 2148 1666 1337 1105 937 823 733 658 599 549
3030.0 506 464 423 386 357 332 301 272 257 243
3070.0 227 219 209 197 190 181 176 167 154 146
3110.0 140 136 132 129 123 114 109 106 107 105
3150.0 100 96 91 86 89 94 91 86 83 85
3190.0 78 74 79 71 62 58 54 42 40 43
3230.0 37 34 31 30 32 25 23 29 32 33
3270.0 28 25 26 25 21 21 26 28 21 15
3310.0 26 31 22 26 27 25 30 29 34 40
3350.0 40 36 31 28 30 27 23 21 22 22
3390.0 18 15 14 18 18 17 18 18 21 24
3430.0 25 24 22 24 26 28 22 13 12 20
3470.0 26 24 18 18 21 23 20 7 5 12
3510.0 15 16 17 11 2 0 4 3 0 4
3550.0 5 6 14 10 6 14 18 13 7 9
3590.0 13 11 7 6 11 14 16 18 18 18
3630.0 16 12 15 27 25 18 14 14 16 17
3670.0 30 28 26 27 22 26 30 30 32 37
3710.0 33 18 13 17 19 28 31 28 20 16
3750.0 30 35 28 23 26 28 25 24 21 26
3790.0 37 36 36 39 35 35 43 43 42 38
3830.0 36 44 43 38 35
##END=
