##TITLE=2-n-Butylaminoethylamine
##JCAMP-DX=4.24
##DATA TYPE=INFRARED SPECTRUM
##ORIGIN=EPA-IR VAPOR PHASE LIBRARY
##OWNER=SRD/NIST
Collection (C) 2018 copyright by the U.S. Secretary of Commerce
on behalf of the United States of America. All rights reserved.
##CAS REGISTRY NO=19522-69-1
##MOLFORM=C 6 H 16 N 2
##$NIST SOURCE=MSDC-IR
##STATE=gas
##XUNITS=1/CM
##YUNITS=ABSORBANCE
##XFACTOR=1.
##YFACTOR=0.001
##DELTAX=1.92898
##FIRSTX=549.8
##LASTX=4000.7
##FIRSTY=1.888
##MAXX=4000.7
##MINX=549.759
##MAXY=0.028558
##MINY=0
##NPOINTS=1790
##XYDATA=(X++(Y..Y))
549.759 1.888 2.518 3.288 2.518 1.948 1.528 1.1683 0.2 0.22 1.628
569.049 2.098 1.638 1.778 0.7305 0.315 0.7509 0.6466 1.0124 1.1648 2.148
588.339 2.758 2.708 2.028 1.458 1.698 2.178 1.888 1.2597 1.628 1.528
607.628 1.678 2.448 2.898 3.778 3.848 3.098 2.338 1.688 1.898 1.758
626.918 1.698 2.058 2.098 2.328 2.268 2.258 2.278 2.038 2.758 2.888
646.208 2.458 3.088 3.718 3.488 3.498 4.118 4.598 4.098 3.888 4.468
665.498 4.498 3.968 3.348 3.648 4.208 4.578 4.828 5.158 5.348 5.248
684.787 5.528 5.178 5.038 5.378 5.368 5.238 5.148 5.308 5.438 6.048
704.077 6.578 6.078 5.228 5.308 5.848 6.138 5.718 5.378 5.778 6.088
723.367 6.368 6.138 5.838 5.998 6.678 6.988 6.948 7.178 7.288 7.298
742.657 7.328 7.768 7.738 7.428 7.538 7.938 7.808 7.558 8.178 8.948
761.947 8.698 8.308 7.958 7.688 7.928 7.498 7.388 7.908 7.988 7.418
781.236 6.858 6.358 6.078 6.248 6.098 6.218 6.208 5.898 6.058 6.118
800.526 5.998 5.818 5.928 6.128 5.298 4.908 5.538 5.148 4.688 4.598
819.816 4.308 3.988 4.058 4.208 4.018 3.708 3.328 3.138 3.338 3.888
839.106 4.118 3.678 3.698 3.988 3.228 3.638 3.888 3.298 3.838 4.118
858.395 3.698 3.508 3.408 2.598 2.368 3.048 2.978 2.798 2.908 3.378
877.685 3.858 3.528 3.268 2.908 2.958 2.638 1.988 1.718 2.118 2.838
896.975 2.928 2.778 1.838 1.638 2.698 3.358 2.778 1.948 1.598 1.2344
916.265 1.3486 1.728 2.268 2.578 2.478 2.278 2.218 1.978 1.698 1.778
935.555 2.058 2.318 2.548 2.638 2.328 2.208 2.398 2.368 2.408 2.758
954.844 2.468 1.918 2.438 2.728 2.228 2.298 2.958 2.878 2.538 2.588
974.134 2.678 3.028 3.098 2.738 2.668 2.848 2.678 2.578 3.118 3.438
993.424 2.428 1.528 1.688 2.078 2.688 2.678 2.028 2.258 2.728 2.438
1012.714 1.778 1.778 1.818 1.388 1.668 2.408 2.978 3.278 2.788 3.168
1032.003 3.808 4.108 4.048 2.118 2.268 4.108 4.058 3.678 3.958 3.888
1051.293 3.828 4.668 4.808 5.068 4.928 4.378 4.048 3.398 3.778 4.688
1070.583 5.628 4.468 4.638 5.148 3.948 4.268 3.398 2.548 3.978 5.218
1089.873 5.538 5.578 4.368 2.768 2.548 2.708 3.398 4.798 5.568 4.888
1109.163 4.038 3.048 2.108 4.048 5.398 6.258 7.228 6.428 4.658 3.518
1128.452 3.918 5.368 6.478 7.238 6.888 5.228 5.118 5.998 6.948 6.848
1147.742 5.448 4.988 5.508 4.918 4.428 4.098 3.188 2.218 2.118 2.498
1167.032 2.198 2.708 2.898 1.998 1.408 1.378 1.518 2.028 0.9483 0.586
1186.322 2.168 3.008 2.538 2.028 1.468 0.8681 1.358 1.628 2.288 2.918
1205.611 2.448 0.6568 1.1836 3.058 2.298 0.8969 0.233 1.0084 2.488 3.408
1224.901 2.438 0.6102 0.9832 2.188 1.378 0.9355 1.368 1.2812 0.9626 0.102
1244.191 0.6385 1.598 1.3188 1.1573 2.008 2.318 1.888 2.258 2.328 1.368
1263.481 1.418 1.808 1.568 1.888 1.2966 1.0986 1.788 1.838 1.798 1.588
1282.771 1.598 1.988 1.898 1.718 2.008 2.058 1.848 1.728 2.198 2.468
1302.060 2.108 1.998 2.168 2.508 2.558 2.438 2.428 2.468 2.598 2.838
1321.350 2.888 2.898 2.918 2.838 2.968 3.078 3.148 3.298 3.458 3.568
1340.640 3.578 3.708 3.938 4.078 4.248 4.328 4.348 4.298 4.068 3.998
1359.930 4.178 4.048 3.818 3.718 3.838 4.068 3.878 3.678 3.618 3.448
1379.219 3.378 3.168 3.188 3.138 2.988 2.808 2.648 2.818 2.718 2.588
1398.509 2.698 2.588 2.598 2.808 2.368 2.168 2.258 2.218 2.098 1.978
1417.799 2.328 2.628 2.648 2.668 2.808 3.148 3.078 3.008 3.348 3.808
1437.089 4.278 4.438 4.588 5.078 5.628 5.858 6.248 6.548 6.848 7.428
1456.378 7.958 8.158 8.008 7.918 7.718 7.468 7.468 7.178 6.618 6.098
1475.668 5.538 5.098 4.438 3.808 3.578 3.238 2.868 3.068 3.088 2.818
1494.958 2.828 2.538 2.028 1.848 1.788 1.558 1.458 1.648 1.858 1.908
1514.248 1.978 2.278 2.248 1.728 1.498 1.598 1.668 1.678 1.738 1.698
1533.538 1.748 1.688 1.2189 0.8453 1.1726 1.578 1.628 1.658 1.668 1.648
1552.827 1.628 1.478 1.1219 1.1124 1.408 1.438 1.408 1.708 1.718 1.738
1572.117 2.168 2.088 1.828 1.658 1.808 2.028 1.888 1.698 1.878 2.198
1591.407 2.198 2.628 2.778 2.648 2.898 2.798 2.828 2.888 2.698 3.008
1610.697 3.108 2.998 2.828 2.918 3.378 3.448 3.378 3.148 2.808 2.788
1629.986 2.908 2.668 2.498 2.248 2.238 2.568 2.398 1.808 1.818 2.028
1649.276 1.718 1.2854 1.0721 1.568 2.008 1.998 1.588 1.428 1.758 1.408
1668.566 1.334 1.558 1.448 1.708 1.518 1.1998 1.0951 1.1727 1.0631 1.1427
1687.856 1.3508 1.1864 1.398 1.528 1.438 1.418 1.1743 0.827 0.8526 0.7303
1707.146 0.5805 0.9263 1.0159 0.9461 0.9147 1.0081 1.3345 1.2436 1.0794 1.1067
1726.435 1.0957 1.1976 1.2188 1.1176 1.0285 1.0898 1.0093 0.8222 0.9247 0.9943
1745.725 1.2081 1.0798 0.8594 1.0883 1.1665 1.1995 1.1201 1.0703 1.0006 0.986
1765.015 1.1966 1.0947 0.9701 0.9097 0.8705 1.0746 1.0974 1.1493 1.1519 0.8698
1784.305 0.8355 1.0032 1.0405 0.8832 0.6632 0.6989 0.79 0.8344 0.7911 0.8629
1803.594 1.2377 1.0465 0.7744 0.9124 1.0514 1.2558 1.0899 0.934 1.1477 1.0511
1822.884 1.0179 1.15 1.2153 1.0739 0.7601 0.7651 0.8538 1.0765 1.2751 1.2346
1842.174 1.1849 1.1252 1.1585 0.9637 0.9084 0.9404 0.8927 1.0661 1.1376 1.2299
1861.464 1.0494 0.8972 1.1628 1.155 1.0159 1.0937 1.1677 0.9579 0.7048 0.8226
1880.754 0.9954 0.9803 0.9054 0.9935 1.1686 1.408 1.568 1.428 1.1966 1.1572
1900.043 1.025 1.0774 1.0921 0.8773 0.815 0.8134 0.9016 0.9562 1.0335 1.1761
1919.333 1.1806 0.9902 0.9091 1.0813 1.0455 0.8372 0.7893 0.9368 1.097 0.8804
1938.623 0.8816 1.027 1.2089 1.408 1.2965 1.0422 0.783 0.6536 0.6937 1.0962
1957.913 1.2864 0.8983 0.7065 1.1688 1.3 1.0176 0.7649 0.7356 0.9229 1.1209
1977.202 1.548 1.326 0.9248 0.9578 0.8777 1.038 1.09 1.1248 1.2616 1.1715
1996.492 0.9449 0.9398 0.9964 0.8105 0.9596 1.0702 0.9488 0.7543 1.0148 1.0871
2015.782 0.7897 1.0179 1.1018 0.991 0.9546 1.0578 1.2405 1.1735 0.8592 0.6527
2035.072 0.82 1.049 0.9751 0.8931 1.0199 1.1192 1.0471 0.8419 0.7324 0.7491
2054.362 0.8462 0.9934 0.896 0.8227 0.9141 0.8587 1.1007 1.2124 0.9351 0.8678
2073.651 0.8412 0.9111 0.9542 0.927 1.0743 1.2407 1.2139 1.1087 0.9831 0.9757
2092.941 1.1775 1.1508 1.0575 0.9855 0.9264 1.1327 1.2318 1.1158 1.0384 0.9195
2112.231 0.9996 1.0484 0.9706 1.0638 1.1101 1.0237 1.1401 1.388 1.2138 1.1
2131.521 1.1423 1.0487 0.9642 0.9088 0.9274 1.152 1.2874 1.2194 1.2242 0.9071
2150.810 0.6723 0.9516 0.9908 0.8343 0.7077 0.8811 1.1407 1.042 1.1211 1.2842
2170.100 1.3069 1.1125 1.1353 1.0845 0.8105 0.7099 0.7939 0.9776 1.0353 1.1387
2189.390 1.2007 1.2087 1.1415 0.9356 0.7448 0.9156 1.0022 0.919 0.8337 0.7389
2208.680 0.8093 0.947 0.7697 0.7334 0.7966 0.6558 0.7686 0.8973 0.9868 0.9386
2227.970 0.9205 0.8947 0.9993 1.0042 0.9562 1.0219 0.8796 0.9461 0.9657 0.7241
2247.259 0.8376 1.1352 0.8938 0.6947 0.9995 1.0093 0.8375 0.9886 1.0642 1.0625
2266.549 1.2145 1.0942 0.8136 0.8699 0.9551 0.7572 0.9062 1.0278 0.7727 0.745
2285.839 0.8348 0.9532 0.8841 0.9391 1.1226 1.2617 1.332 1.2771 1.2103 1.2728
2305.129 1.2513 1.265 1.3233 1.1292 1.0527 0.9765 1.024 0.9809 0.8716 1.0318
2324.418 1.1613 1.2418 1.3512 1.325 1.1214 1.1171 1.0422 0.9675 0.9473 1.0776
2343.708 1.2766 1.428 1.518 1.398 1.2828 1.2675 1.1774 1.179 1.157 0.909
2362.998 0.7546 0.6802 0.716 1.0008 1.1587 0.9962 1.0489 1.1785 1.1654 1.0863
2382.288 1.0589 1.0231 0.8707 0.7339 1.1097 1.498 1.2002 0.9459 1.1407 1.398
2401.578 1.155 0.864 0.7944 0.7283 1.1107 1.388 1.0419 0.9542 1.1022 1.1885
2420.867 1.2303 0.891 0.9148 1.092 1.1124 1.1391 0.8277 0.7276 0.9476 1.048
2440.157 1.1312 1.1348 0.9958 1.1137 1.488 1.2556 0.959 1.0321 1.1164 1.2032
2459.447 1.1357 1.0544 1.0188 0.9856 1.1245 1.3561 1.1386 0.6571 0.5946 0.9341
2478.737 1.0747 0.787 0.7755 1.0986 1.0086 0.8975 0.9484 0.8273 0.9685 1.1678
2498.026 1.1683 1.1695 1.1546 1.3195 1.378 1.2933 1.1008 1.1278 1.478 1.3348
2517.316 0.9158 0.5095 0.8534 1.478 1.458 1.468 1.3536 1.1649 1.291 1.428
2536.606 1.428 1.378 1.2447 1.0122 0.6598 0.7231 1.2381 1.2795 0.8904 1.0258
2555.896 1.186 1.1961 1.3379 0.8831 0.7622 1.2823 1.428 1.3049 1.358 1.2492
2575.186 1.1161 1.538 1.708 1.438 1.408 1.458 1.1269 0.7961 1.0338 1.608
2594.475 1.768 1.356 0.969 1.196 1.638 1.818 1.798 1.628 1.718 1.778
2613.765 1.998 2.208 1.768 1.368 1.1662 0.8026 0.8545 1.448 1.618 1.0811
2633.055 1.2102 1.638 1.668 1.448 1.458 2.088 2.238 2.108 1.918 1.508
2652.345 1.368 1.658 1.858 1.978 2.178 2.168 2.058 2.268 2.498 2.008
2671.634 1.738 2.048 2.218 2.118 1.798 1.998 2.108 1.948 2.198 2.208
2690.924 2.118 2.318 2.328 2.328 2.538 2.508 2.518 2.688 2.678 2.428
2710.214 2.258 2.728 3.308 3.198 3.038 3.278 3.298 3.038 3.158 3.408
2729.504 3.348 3.188 2.948 3.158 3.438 3.668 3.888 3.478 3.588 3.838
2748.794 3.648 3.608 3.838 4.038 4.268 3.928 3.448 3.808 3.998 3.798
2768.083 3.988 4.458 4.548 4.748 5.008 5.098 5.228 4.998 5.238 6.128
2787.373 6.378 6.798 7.318 7.718 8.068 7.928 8.348 9.068 9.448 9.788
2806.663 10.058 10.678 11.168 11.368 11.688 11.998 12.658 13.288 12.988 12.128
2825.953 11.958 12.348 12.748 12.458 11.868 11.818 11.798 11.988 12.248 12.118
2845.242 12.498 12.828 12.788 13.168 13.128 12.988 13.008 13.588 14.268 14.688
2864.532 15.198 15.198 15.438 15.568 15.448 15.698 16.348 16.738 16.658 16.608
2883.822 16.358 16.388 16.218 16.228 16.578 16.428 16.508 16.498 16.518 16.918
2903.112 17.318 18.028 18.548 19.008 20.028 20.998 21.848 22.788 23.628 24.648
2922.401 25.478 26.138 27.148 27.768 27.998 28.408 28.558 28.418 28.338 27.468
2941.691 26.338 25.978 25.328 24.438 23.688 22.558 21.318 20.958 20.798 20.298
2960.981 20.298 20.408 20.128 19.568 18.808 17.948 16.638 14.918 13.648 12.708
2980.271 11.798 10.338 8.668 7.448 6.568 5.988 5.178 4.988 5.138 4.498
2999.561 4.108 4.258 3.868 3.528 3.548 3.698 3.688 3.298 3.288 3.668
3018.850 3.308 2.798 2.708 2.488 2.818 2.818 2.058 1.928 1.848 1.778
3038.140 2.128 2.478 2.198 1.618 1.888 2.038 1.878 2.078 2.008 1.768
3057.430 1.918 1.948 1.878 2.398 2.728 2.438 1.558 1.0877 1.3209 1.368
3076.720 1.538 1.608 1.241 1.568 1.948 1.838 1.428 0.904 1.0699 1.174
3096.009 1.0406 1.3095 1.618 1.488 1.558 1.798 1.938 1.798 2.108 1.858
3115.299 1.3201 1.528 1.418 1.1717 1.0741 1.518 1.788 1.468 0.8493 1.0425
3134.589 1.538 1.1626 1.2658 1.678 1.498 1.0818 1.0373 1.2916 1.598 1.618
3153.879 1.408 1.3352 1.3538 1.608 1.648 1.408 1.2884 1.095 1.1565 1.0533
3173.169 1.2178 1.578 1.3224 1.0804 0.8739 0.7606 1.1105 1.358 1.568 1.668
3192.458 1.778 1.998 1.918 1.648 0.8762 0.4846 0.5676 0.653 0.7566 0.5405
3211.748 0.7106 0.696 0.8088 1.398 1.2758 1.398 1.1746 0.7771 1.0968 1.2823
3231.038 1.0937 1.1625 1.428 1.558 0.9659 0.7098 1.0124 0.9897 1.0167 0.8985
3250.328 0.907 0.9725 0.9835 0.8951 0.7873 1.1615 1.608 1.428 0.5957 0.7324
3269.617 1.968 1.798 1.1555 0.8605 0.8793 1.448 1.738 1.818 1.2922 0.5487
3288.907 0.5946 1.2582 1.3138 0.6591 0.35269 0.856 1.668 1.898 1.3377 0.9838
3308.197 1.638 1.958 1.898 1.838 1.0174 0.506 1.0826 1.538 1.1577 0.6002
3327.487 0.7934 1.3096 0.9368 0.8503 0.9654 1.0635 1.408 1.678 1.798 1.458
3346.777 1.2877 1.2569 1.3154 1.958 2.388 1.918 2.168 1.598 0.6286 1.408
3366.066 2.308 2.338 1.598 0.7685 0.7722 1.0825 1.788 1.618 1.1544 1.2901
3385.356 0.9135 0.815 1.368 1.768 1.668 1.538 1.898 1.718 1.3469 1.628
3404.646 1.828 1.748 1.3421 1.3308 1.568 1.368 1.638 1.698 1.1249 1.1575
3423.936 1.558 1.548 1.408 1.708 1.588 1.368 1.828 1.498 0.9062 1.928
3443.225 2.488 1.918 1.378 0.6833 0.7701 1.2096 0.8584 0.5496 0.7237 1.478
3462.515 1.548 1.0506 1.728 2.038 1.2565 1.243 1.418 0.7837 0.7256 1.3161
3481.805 1.488 1.1041 0.9546 1.558 1.0355 0.082 0.3203 0.6328 0.628 0.7907
3501.095 0.8332 0.6872 0.246 0.3279 0.44863 0.45373 0.5528 0.6415 0.5863 0.5246
3520.385 1.1095 1.1995 0.9469 1.378 1.578 1.3546 1.668 1.808 1.818 1.818
3539.674 1.878 1.788 1.868 2.398 2.018 1.688 1.968 1.938 1.548 0.8629
3558.964 1.2668 1.388 0.98 1.2746 1.678 1.578 1.518 1.998 2.108 1.538
3578.254 1.398 1.448 1.3347 1.428 1.282 1.0081 0.934 0.7712 0.7748 1.208
3597.544 1.256 1.2902 1.1817 1.1214 1.1422 0.8573 1.2425 1.668 1.488 0.6054
3616.833 0.4677 1.368 1.598 1.418 1.1584 0.885 0.9182 1.1084 1.1211 1.3429
3636.123 1.558 1.468 1.778 1.918 1.3476 1.0126 0.9398 0.5185 1.0148 1.428
3655.413 1.2696 1.1249 0.7339 0.43614 0.6115 1.2864 1.578 1.798 1.658 1.478
3674.703 1.2514 1.0526 0.9651 1.0089 1.1681 1.037 0.7508 0.6514 0.6898 0.7491
3693.993 1.2528 1.818 1.398 0.7706 1.1458 1.568 1.1663 1.2377 1.618 1.868
3713.282 1.0597 0 0.7316 1.488 1.3378 1.0749 0.8515 1.0484 1.438 0.6788
3732.572 0.5214 0.9548 1.339 1.2054 0.2733 0.7784 1.368 1.368 1.668 1.478
3751.862 0.9649 1.2653 1.368 1.2339 1.1742 1.0894 1.398 1.418 1.628 2.198
3771.152 2.158 1.448 1.29 1.648 2.028 2.078 1.478 1.2708 1.1241 1.468
3790.441 1.948 1.498 1.428 1.758 1.1722 0.198 0.5765 0.91 0.7335 0.7284
3809.731 0.7432 0.8306 0.8936 1.2602 1.3297 1.2325 1.1463 0.9157 1.3519 1.468
3829.021 1.1471 1.368 1.388 1.1471 0.8483 0.5725 1.1044 1.508 1.358 0.9891
3848.311 0.6525 0.7608 1.3412 1.2976 1.0817 1.678 1.438 1.628 1.578 1.2831
3867.601 2.058 2.188 1.938 1.398 1.0491 1.498 1.568 1.408 1.638 1.768
3886.890 1.478 1.698 2.178 2.188 2.208 1.818 1.1736 0.3411 0.4739 1.528
3906.180 1.638 1.678 1.858 1.498 1.1883 1.438 1.688 1.738 1.758 1.3391
3925.470 0.6532 0.7927 1.578 1.958 1.768 1.658 2.128 1.898 1.578 1.578
3944.760 1.2469 1.225 1.668 1.918 1.3084 0.8491 1.468 2.348 2.258 2.238
3964.049 1.608 1.0222 1.0349 1.408 1.818 1.2501 0.5458 0.977 1.2192 1.3349
3983.339 1.518 1.488 1.618 0.7111 0.9273 1.1347 0.8422 0.8519 1.1306 1.0204
##END=
