##TITLE=5-Hydroxyindole
##JCAMP-DX=4.24
##DATA TYPE=INFRARED SPECTRUM
##ORIGIN=EPA-IR VAPOR PHASE LIBRARY
##OWNER=SRD/NIST
Collection (C) 2018 copyright by the U.S. Secretary of Commerce
on behalf of the United States of America. All rights reserved.
##CAS REGISTRY NO=1953-54-4
##MOLFORM=C 8 H 7 N O
##$NIST SOURCE=MSDC-IR
##STATE=gas
##XUNITS=1/CM
##YUNITS=ABSORBANCE
##XFACTOR=1.
##YFACTOR=0.001
##DELTAX=3.85796
##FIRSTX=501.5
##LASTX=4000.7
##FIRSTY=1.62
##MAXX=4000.7
##MINX=501.534
##MAXY=0.0325
##MINY=0.00008351
##NPOINTS=908
##XYDATA=(X++(Y..Y))
501.534 1.62 1.55 1.22 1.19 1.33 1.18 1.08 1.09 1.07 1.08
540.114 1.07 1.05 1.07 0.9984 0.962 1.07 1.24 1.49 1.81 2.25
578.693 2.68 3.05 3.48 3.46 3.04 2.88 2.85 2.71 2.47 2.25
617.273 2.16 1.9 1.46 1.21 1.18 1.08 0.9634 0.9653 0.9906 0.9725
655.852 0.9147 0.8845 0.9223 0.9785 1.11 1.28 1.61 2.17 3.06 4.39
694.432 6.23 8.25 10.34 12.52 16.16 17.93 15.35 13.85 13.63 13.27
733.011 13.37 13.4 13.24 13.83 14.97 13.28 10.36 9.25 8.81 8.56
771.591 8.71 9.41 10.84 12.64 13.95 15.09 15.93 15.27 13.39 11.47
810.170 9.83 8.37 7.52 7.37 7.82 8.14 7.69 7.3 7.2 7.14
848.750 6.92 6.49 6.48 6.34 5.24 4.17 3.52 2.92 2.48 2.65
887.330 3.8 5.34 6.37 6.74 6.72 6.11 4.67 3.25 2.43 2.11
925.909 2.12 2.39 3.17 4.52 5.41 5.51 5.35 4.98 3.82 2.38
964.489 1.65 1.35 1.23 1.11 1.05 1.01 0.9895 1.03 1.03 1.04
1003.068 1.08 1.07 1.05 1.01 0.9807 1.01 1.06 1.21 1.42 1.55
1041.648 1.49 1.51 1.85 2.42 3.02 3.38 3.65 3.92 3.95 3.8
1080.227 3.73 3.79 3.96 4.09 4.23 4.57 5.06 5.81 7.21 9.38
1118.807 11.78 14.24 17.64 22.52 27.1 29.82 31.66 32.5 30.43 26.55
1157.387 24.04 22.75 21.55 21.21 21.59 21.31 19.41 16.64 14.48 13.07
1195.966 11.93 10.77 10.26 10.58 11.35 12.55 13.45 13.41 12.88 12.18
1234.546 10.92 9.12 7.73 7.27 6.87 5.82 4.77 4.28 4.26 4.78
1273.125 5.8 6.99 7.72 7.74 7.36 6.47 4.98 3.66 3.21 3.35
1311.705 3.71 4.39 5.5 7.27 9.81 12.51 14.28 14.7 13.94 11.97
1350.284 8.91 5.86 3.79 2.64 2.03 1.72 1.61 1.6 1.62 1.73
1388.864 2.03 2.49 3.03 3.52 3.89 4.11 4.26 4.21 3.88 3.53
1427.443 3.58 4.11 5.22 7.07 9.56 12.21 14.57 16.61 18.03 18.39
1466.023 18.23 18.5 18.8 18.5 17.66 16.22 14.06 11.44 8.95 7.02
1504.603 5.95 5.7 5.8 5.7 5.39 5.08 4.61 3.85 3.3 3.36
1543.182 3.95 4.72 5.29 5.55 5.68 5.71 5.56 5.51 5.93 6.7
1581.762 7.39 7.64 7.46 6.88 5.8 4.58 3.73 3.49 3.83 4.52
1620.341 5.24 5.66 5.6 5.13 4.35 3.42 2.62 2.18 2.09 2.15
1658.921 2.27 2.38 2.38 2.31 2.24 2.17 2.06 1.97 1.94 1.87
1697.500 1.74 1.64 1.52 1.39 1.26 1.08 0.9053 0.7516 0.6149 0.4821
1736.080 0.3817 0.3411 0.2927 0.2613 0.2367 0.2241 0.2311 0.2413 0.2444 0.2548
1774.659 0.2844 0.2987 0.3111 0.3486 0.383 0.4236 0.4661 0.484 0.5051 0.5087
1813.239 0.5186 0.5467 0.5744 0.6105 0.6405 0.6766 0.6779 0.6442 0.5766 0.485
1851.819 0.3963 0.3287 0.2991 0.2708 0.2438 0.2271 0.2364 0.2399 0.2524 0.2819
1890.398 0.2883 0.2667 0.2413 0.2123 0.1963 0.1859 0.1914 0.2078 0.2032 0.2085
1928.978 0.2119 0.2221 0.2281 0.2275 0.2261 0.2184 0.2181 0.2131 0.2094 0.2059
1967.557 0.1825 0.1515 0.1495 0.1535 0.1286 0.115 0.1133 0.09606 0.08351 0.08959
2006.137 0.1209 0.1423 0.1499 0.1671 0.181 0.174 0.181 0.1958 0.1878 0.178
2044.716 0.1599 0.1341 0.1368 0.1461 0.1492 0.1673 0.168 0.1779 0.188 0.1847
2083.296 0.184 0.181 0.1875 0.2037 0.211 0.2068 0.2148 0.2244 0.2291 0.2329
2121.875 0.2209 0.2115 0.2205 0.233 0.2177 0.2002 0.205 0.2044 0.216 0.2289
2160.455 0.2194 0.208 0.2078 0.2291 0.2315 0.225 0.2344 0.2385 0.2424 0.2391
2199.035 0.2378 0.2204 0.1997 0.2183 0.2377 0.2638 0.2939 0.2687 0.2647 0.2452
2237.614 0.2175 0.2362 0.2367 0.2128 0.1825 0.1963 0.2126 0.2086 0.2185 0.2307
2276.194 0.2536 0.2761 0.3014 0.3121 0.3201 0.3589 0.3783 0.3983 0.4152 0.4138
2314.773 0.3999 0.3763 0.3725 0.3855 0.4171 0.4471 0.4477 0.4425 0.4565 0.4592
2353.353 0.4361 0.441 0.4481 0.4461 0.4599 0.4564 0.4323 0.411 0.3896 0.3618
2391.932 0.3772 0.3954 0.4043 0.4168 0.4225 0.4347 0.4496 0.4679 0.4866 0.5028
2430.512 0.4824 0.4736 0.4681 0.4539 0.4786 0.5009 0.5292 0.5676 0.5869 0.6111
2469.092 0.6506 0.6802 0.6859 0.6523 0.605 0.5805 0.5654 0.5404 0.4819 0.4482
2507.671 0.473 0.4975 0.5144 0.501 0.4771 0.4775 0.4411 0.3935 0.3906 0.3686
2546.251 0.3365 0.3357 0.3291 0.3339 0.3538 0.4026 0.4345 0.411 0.415 0.3925
2584.830 0.368 0.3829 0.3659 0.3498 0.3432 0.3298 0.3072 0.3121 0.3488 0.3495
2623.410 0.3629 0.4322 0.4833 0.5003 0.5097 0.4986 0.4666 0.4497 0.4247 0.3786
2661.989 0.3277 0.3178 0.337 0.2954 0.2427 0.235 0.256 0.24 0.2297 0.2488
2700.569 0.2535 0.2558 0.2381 0.2137 0.1944 0.2018 0.2192 0.1986 0.1972 0.2107
2739.148 0.2194 0.2071 0.1925 0.1721 0.1657 0.1955 0.1855 0.1573 0.1578 0.1749
2777.728 0.1811 0.2259 0.2276 0.2004 0.2187 0.2326 0.2563 0.2596 0.2396 0.2435
2816.308 0.2311 0.2157 0.2115 0.2209 0.2652 0.2686 0.2372 0.258 0.2685 0.2573
2854.887 0.2793 0.2989 0.2889 0.2673 0.2339 0.2295 0.2421 0.2134 0.2104 0.248
2893.467 0.2678 0.2364 0.2564 0.3063 0.3074 0.3414 0.3777 0.3893 0.3879 0.3738
2932.046 0.4064 0.4552 0.4602 0.455 0.496 0.5294 0.523 0.5088 0.5492 0.5979
2970.626 0.5873 0.5569 0.5375 0.5517 0.6053 0.6783 0.7731 0.8713 1.03 1.32
3009.205 1.7 2.14 2.67 3.32 3.98 4.48 4.75 4.81 4.66 4.28
3047.785 3.79 3.44 3.23 3.04 2.83 2.62 2.45 2.28 2.1 1.97
3086.364 1.87 1.75 1.66 1.57 1.46 1.42 1.39 1.32 1.3 1.37
3124.944 1.54 1.73 1.79 1.7 1.63 1.49 1.16 0.8443 0.6626 0.5427
3163.524 0.4526 0.3756 0.3694 0.3693 0.3442 0.2951 0.2606 0.2883 0.2996 0.3003
3202.103 0.2704 0.2673 0.3492 0.3796 0.3262 0.311 0.2941 0.3006 0.3506 0.3589
3240.683 0.3454 0.3497 0.393 0.4037 0.4099 0.4326 0.4013 0.3744 0.3794 0.3767
3279.262 0.3416 0.3527 0.4205 0.3894 0.3813 0.4206 0.401 0.3825 0.3756 0.3569
3317.842 0.3896 0.4435 0.4314 0.4535 0.4854 0.4949 0.5414 0.5065 0.4547 0.4514
3356.421 0.4356 0.4781 0.5274 0.5532 0.5626 0.6419 0.6835 0.6505 0.6841 0.6855
3395.001 0.6693 0.6922 0.761 0.8102 0.8347 0.8789 0.9221 0.9231 0.9489 0.979
3433.580 0.9715 1.03 1.06 1.1 1.23 1.33 1.44 1.57 1.81 2.08
3472.160 2.35 2.74 3.29 3.98 4.71 5.34 5.75 6.36 7.33 8.46
3510.740 10 11.81 12.69 12.15 11.56 10.55 7.92 5.1 3.31 2.2
3549.319 1.46 1.01 0.7544 0.6588 0.6072 0.5724 0.5731 0.5217 0.4966 0.494
3587.899 0.4922 0.4869 0.4721 0.4893 0.5404 0.5806 0.6085 0.7152 0.8828 1.12
3626.478 1.48 2.02 2.81 4.11 6.16 8.9 11.81 13.49 13.54 12.87
3665.058 11.2 8.14 4.89 2.59 1.48 1.05 0.7777 0.6034 0.5331 0.4515
3703.637 0.3849 0.3574 0.3593 0.3883 0.321 0.3244 0.3341 0.2898 0.3062 0.2921
3742.217 0.2988 0.322 0.2911 0.2796 0.2573 0.272 0.3094 0.3265 0.3732 0.3974
3780.797 0.4233 0.4071 0.4048 0.4596 0.4649 0.4726 0.4838 0.4726 0.5188 0.4877
3819.376 0.4518 0.513 0.5217 0.5264 0.5843 0.5989 0.5909 0.5965 0.5542 0.5562
3857.956 0.6085 0.6198 0.6176 0.5659 0.5458 0.5602 0.5464 0.5758 0.5516 0.4861
3896.535 0.4629 0.4723 0.4938 0.5095 0.5269 0.4994 0.4835 0.4301 0.3752 0.3777
3935.115 0.3284 0.3191 0.3434 0.3173 0.3222 0.3325 0.2896 0.3196 0.3337 0.3412
3973.694 0.3575 0.3463 0.2915 0.3 0.3765 0.391 0.4189 0.4746
##END=
