##TITLE=3,5-Dimethyl-3-heptanol
##JCAMP-DX=4.24
##DATA TYPE=INFRARED SPECTRUM
##ORIGIN=NIST Mass Spectrometry Data Center
##OWNER=NIST Standard Reference Data Program
Collection (C) 2018 copyright by the U.S. Secretary of Commerce
on behalf of the United States of America. All rights reserved.
##CAS REGISTRY NO=19549-74-7
##MOLFORM=C 9 H 20 O
##$NIST SOURCE=MSDC-IR
##SPECTROMETER/DATA SYSTEM=HP-GC/MS/IRD
##STATE=gas
##XUNITS=1/CM
##YUNITS=ABSORBANCE
##XFACTOR=1.0
##YFACTOR=0.000004600
##DELTAX=4.0
##FIRSTX=550.0
##LASTX=3846.0
##FIRSTY=0.000584
##MAXX=3846
##MINX=550
##MAXY=0.046
##MINY=0
##NPOINTS=825
##XYDATA=(X++(Y..Y))
550.0 127 80 63 75 67 61 66 74 56 40
590.0 46 49 50 56 53 42 31 32 35 16
630.0 4 18 17 5 14 18 19 27 18 8
670.0 6 7 15 20 11 7 21 23 19 16
710.0 23 40 56 70 84 104 115 131 143 129
750.0 124 117 103 102 120 141 159 183 203 210
790.0 203 187 166 139 126 124 105 98 126 130
830.0 118 130 148 176 209 235 249 252 256 262
870.0 262 264 279 305 348 401 476 566 659 751
910.0 830 881 897 866 808 742 684 643 601 562
950.0 515 474 449 448 475 522 571 622 683 738
990.0 780 810 829 832 819 798 778 756 727 695
1030.0 661 647 635 615 581 538 502 476 470 483
1070.0 506 540 573 603 638 667 680 697 726 750
1110.0 775 815 866 928 1006 1093 1189 1290 1384 1468
1150.0 1548 1597 1616 1605 1557 1477 1375 1255 1120 996
1190.0 883 789 727 675 632 610 603 604 616 630
1230.0 643 662 678 694 710 722 736 749 758 765
1270.0 767 766 764 764 756 743 733 716 694 674
1310.0 662 657 654 654 661 675 699 730 762 809
1350.0 882 971 1081 1226 1401 1607 1818 1968 1990 1855
1390.0 1578 1246 935 709 568 486 443 429 431 455
1430.0 503 578 682 811 979 1179 1396 1579 1681 1674
1470.0 1550 1322 1053 803 604 462 359 289 246 221
1510.0 191 164 151 141 128 118 112 110 108 98
1550.0 92 94 100 91 84 82 83 78 72 68
1590.0 65 64 62 60 59 56 55 54 51 53
1630.0 52 54 54 51 52 53 51 46 44 43
1670.0 43 41 37 39 35 31 35 41 34 28
1710.0 26 27 29 24 18 22 24 18 15 16
1750.0 17 16 14 10 14 18 14 10 14 14
1790.0 13 17 17 15 9 10 12 15 15 15
1830.0 14 11 9 12 16 13 12 11 10 11
1870.0 12 9 9 10 10 13 13 11 11 10
1910.0 7 8 11 11 9 9 12 11 12 10
1950.0 6 4 2 2 5 7 8 5 3 6
1990.0 10 9 4 4 5 3 6 6 8 9
2030.0 5 7 10 9 8 8 6 7 10 10
2070.0 10 11 10 7 7 8 10 12 12 8
2110.0 7 8 9 7 4 5 7 6 4 3
2150.0 7 8 1 0 5 6 4 4 5 5
2190.0 4 3 5 4 5 8 8 7 6 4
2230.0 4 7 10 11 9 6 4 6 8 5
2270.0 4 5 6 8 9 5 5 8 8 4
2310.0 5 8 8 8 9 7 6 7 5 6
2350.0 8 7 7 8 11 16 16 17 18 17
2390.0 19 19 18 17 16 16 14 13 13 12
2430.0 11 14 15 13 15 13 9 10 10 7
2470.0 3 3 6 6 8 9 5 5 5 4
2510.0 3 2 3 5 9 9 10 9 7 14
2550.0 18 16 21 27 27 27 29 34 41 40
2590.0 40 41 45 47 47 46 48 51 52 52
2630.0 57 58 56 60 62 63 63 68 71 70
2670.0 72 73 76 80 83 83 85 91 101 108
2710.0 114 122 133 144 153 167 181 190 195 199
2750.0 194 188 187 186 186 190 202 215 231 246
2790.0 262 282 304 328 356 387 424 466 517 575
2830.0 645 733 839 978 1156 1388 1671 1969 2270 2557
2870.0 2852 3163 3492 3792 4005 4108 4128 4155 4271 4542
2910.0 4974 5518 6110 6674 7138 7436 7522 7410 7157 6883
2950.0 6751 6944 7556 8480 9424 10000 9910 9079 7686 6082
2990.0 4585 3366 2454 1815 1380 1085 881 746 649 581
3030.0 530 486 451 426 396 377 365 352 342 332
3070.0 328 318 311 297 279 266 256 244 231 217
3110.0 208 194 186 182 177 170 160 155 150 141
3150.0 136 132 131 129 127 124 119 115 114 111
3190.0 103 94 89 81 75 74 71 60 52 46
3230.0 42 39 40 38 37 37 34 29 26 28
3270.0 28 24 23 25 28 24 21 23 23 18
3310.0 15 17 22 20 19 16 16 18 21 23
3350.0 22 22 26 29 26 25 24 32 33 32
3390.0 34 38 34 30 28 30 32 29 28 27
3430.0 31 33 34 34 28 27 28 25 24 23
3470.0 21 23 23 16 18 20 18 23 27 19
3510.0 11 13 13 12 8 4 6 6 7 8
3550.0 7 9 11 11 18 18 11 9 10 17
3590.0 20 16 18 26 43 65 84 119 166 234
3630.0 322 400 456 461 419 342 258 185 128 95
3670.0 78 63 51 43 37 33 27 20 22 27
3710.0 32 25 12 13 17 19 27 29 25 25
3750.0 25 22 15 9 12 17 20 26 24 18
3790.0 18 22 25 19 15 17 23 27 23 24
3830.0 26 27 32 36 34
##END=
