##TITLE=2,6-Dimethyl-3-heptanol
##JCAMP-DX=4.24
##DATA TYPE=INFRARED SPECTRUM
##ORIGIN=NIST Mass Spectrometry Data Center
##OWNER=NIST Standard Reference Data Program
Collection (C) 2018 copyright by the U.S. Secretary of Commerce
on behalf of the United States of America. All rights reserved.
##CAS REGISTRY NO=19549-73-6
##MOLFORM=C 9 H 20 O
##$NIST SOURCE=MSDC-IR
##SPECTROMETER/DATA SYSTEM=HP-GC/MS/IRD
##STATE=gas
##XUNITS=1/CM
##YUNITS=ABSORBANCE
##XFACTOR=1.0
##YFACTOR=0.000005200
##DELTAX=4.0
##FIRSTX=550.0
##LASTX=3846.0
##FIRSTY=0.000224
##MAXX=3846
##MINX=550
##MAXY=0.052
##MINY=0
##NPOINTS=825
##XYDATA=(X++(Y..Y))
550.0 43 28 16 10 7 10 27 44 61 64
590.0 62 47 37 45 58 64 58 54 45 34
630.0 27 25 18 14 8 13 27 34 28 19
670.0 19 26 26 20 17 22 25 18 13 12
710.0 15 16 15 27 29 28 37 37 36 41
750.0 45 56 67 67 67 70 72 72 76 83
790.0 86 90 91 93 90 86 84 85 88 90
830.0 103 108 110 119 121 117 112 113 124 141
870.0 163 195 234 277 312 329 331 324 311 306
910.0 315 333 361 386 400 404 404 404 405 414
950.0 419 436 463 485 516 562 623 706 802 900
990.0 995 1075 1133 1169 1197 1232 1270 1317 1350 1339
1030.0 1277 1177 1061 960 879 818 773 716 661 613
1070.0 567 537 525 528 533 540 554 568 580 582
1110.0 576 560 552 546 547 557 572 586 605 609
1150.0 615 629 642 656 659 638 588 531 483 446
1190.0 431 435 447 464 487 512 528 545 559 570
1230.0 586 599 601 613 618 616 611 597 578 559
1270.0 529 506 485 469 460 453 449 451 451 450
1310.0 447 447 450 453 458 464 471 484 509 546
1350.0 605 687 801 942 1089 1220 1316 1383 1441 1464
1390.0 1417 1281 1056 819 638 514 437 390 366 361
1430.0 377 411 468 546 646 772 917 1071 1203 1288
1470.0 1298 1205 1028 816 620 460 353 280 231 200
1510.0 167 141 126 113 98 89 83 82 77 68
1550.0 60 59 68 62 49 45 49 47 38 38
1590.0 37 36 34 35 39 38 40 42 39 36
1630.0 35 39 39 35 35 41 42 35 32 31
1670.0 30 30 28 31 35 28 29 36 31 22
1710.0 20 23 22 16 12 12 13 11 10 10
1750.0 9 8 9 6 6 8 8 7 8 7
1790.0 6 8 5 3 2 3 2 0 2 3
1830.0 4 5 3 6 6 4 5 4 6 6
1870.0 2 2 2 5 5 3 4 5 8 7
1910.0 5 5 5 3 3 4 2 3 4 2
1950.0 3 3 2 1 3 3 2 2 3 3
1990.0 5 3 0 2 1 0 2 1 1 0
2030.0 0 2 2 1 2 7 9 6 5 6
2070.0 5 3 3 5 6 6 5 7 8 6
2110.0 8 6 5 4 5 5 3 1 2 6
2150.0 8 7 5 7 9 8 6 5 6 7
2190.0 9 12 10 7 7 9 10 9 9 10
2230.0 14 14 13 11 9 11 15 18 16 16
2270.0 18 22 20 19 20 19 20 20 21 20
2310.0 18 19 20 19 21 22 22 27 24 25
2350.0 25 27 32 32 29 27 27 29 33 33
2390.0 32 30 30 34 36 34 33 33 34 32
2430.0 32 29 28 32 36 38 37 36 35 33
2470.0 35 37 35 35 38 36 38 40 37 36
2510.0 35 35 36 39 41 41 39 44 51 50
2550.0 50 53 56 61 66 69 75 80 84 91
2590.0 95 98 102 106 108 111 116 120 121 120
2630.0 121 124 127 123 120 123 123 122 121 120
2670.0 125 131 133 137 141 140 148 154 154 158
2710.0 167 181 191 204 220 230 232 231 230 231
2750.0 228 227 227 232 243 249 250 256 265 278
2790.0 293 310 330 351 380 409 441 483 529 589
2830.0 666 768 905 1089 1315 1570 1845 2135 2443 2788
2870.0 3194 3605 3925 4105 4125 4035 3944 3927 3997 4138
2910.0 4303 4452 4598 4781 5025 5327 5647 5917 6112 6318
2950.0 6709 7485 8675 9737 10000 9272 7659 5676 3988 2808
2990.0 2017 1491 1139 891 717 600 515 450 396 354
3030.0 325 305 281 261 252 247 237 232 227 220
3070.0 213 209 206 203 200 196 189 180 174 169
3110.0 165 160 152 148 149 149 148 146 144 142
3150.0 144 143 137 140 144 146 144 138 131 124
3190.0 121 115 108 102 92 81 75 67 58 55
3230.0 48 43 42 37 31 28 30 31 29 27
3270.0 25 25 28 29 28 26 29 31 27 24
3310.0 22 23 26 32 34 32 35 38 35 31
3350.0 28 26 27 28 31 31 29 32 33 30
3390.0 30 27 25 24 22 23 29 31 28 27
3430.0 25 25 29 33 31 25 20 20 21 21
3470.0 20 19 19 15 15 21 22 19 16 12
3510.0 9 12 12 10 10 11 6 10 13 9
3550.0 9 9 7 9 10 7 7 8 6 11
3590.0 16 17 18 18 23 32 42 60 78 98
3630.0 128 160 204 253 306 364 402 411 387 340
3670.0 276 213 150 100 74 61 41 26 21 20
3710.0 24 25 20 16 15 21 20 13 17 20
3750.0 21 16 13 18 20 15 12 18 16 12
3790.0 20 28 32 36 37 33 33 37 42 42
3830.0 40 46 51 44 41
##END=
