##TITLE=4,6-Dimethyl-2-heptanone
##JCAMP-DX=4.24
##DATA TYPE=INFRARED SPECTRUM
##ORIGIN=NIST Mass Spectrometry Data Center
##OWNER=NIST Standard Reference Data Program
Collection (C) 2018 copyright by the U.S. Secretary of Commerce
on behalf of the United States of America. All rights reserved.
##CAS REGISTRY NO=19549-80-5
##MOLFORM=C 9 H 18 O
##$NIST SOURCE=MSDC-IR
##SPECTROMETER/DATA SYSTEM=HP-GC/MS/IRD
##STATE=gas
##XUNITS=1/CM
##YUNITS=ABSORBANCE
##XFACTOR=1.0
##YFACTOR=0.000003000
##DELTAX=4.0
##FIRSTX=550.0
##LASTX=3846.0
##FIRSTY=0.000618
##MAXX=3846
##MINX=550
##MAXY=0.03
##MINY=0
##NPOINTS=825
##XYDATA=(X++(Y..Y))
550.0 206 155 130 97 78 82 71 102 120 165
590.0 227 276 329 342 308 262 196 151 111 77
630.0 80 67 35 31 33 38 30 4 6 18
670.0 13 16 21 13 18 25 21 24 7 0
710.0 27 30 21 29 32 29 34 37 40 44
750.0 60 75 78 86 82 82 97 94 83 84
790.0 90 95 103 110 120 123 122 137 151 148
830.0 136 140 153 164 157 140 136 142 140 141
870.0 146 146 143 140 144 142 141 133 136 151
910.0 163 196 229 269 289 294 305 316 343 387
950.0 456 515 548 553 537 506 464 431 406 382
990.0 365 352 326 310 291 264 244 234 226 213
1030.0 197 183 191 193 182 189 210 205 190 199
1070.0 207 202 194 206 231 252 268 300 355 413
1110.0 471 533 604 676 743 811 900 1009 1161 1386
1150.0 1700 2050 2361 2564 2560 2359 2039 1681 1372 1143
1190.0 984 869 782 739 737 757 810 879 914 919
1230.0 920 909 897 884 866 834 794 745 713 704
1270.0 702 705 708 719 738 765 791 819 828 816
1310.0 795 776 783 820 889 991 1122 1303 1577 1965
1350.0 2456 2964 3349 3483 3327 2966 2543 2211 2012 1862
1390.0 1688 1493 1279 1097 997 963 967 971 962 954
1430.0 945 944 961 986 1048 1147 1262 1383 1472 1511
1470.0 1470 1336 1136 916 718 565 459 390 346 316
1510.0 287 266 255 241 228 226 223 225 223 209
1550.0 200 204 208 200 190 184 180 171 163 161
1590.0 155 156 155 151 146 148 155 155 156 160
1630.0 165 176 181 189 208 234 258 271 300 350
1670.0 408 471 555 667 803 949 1137 1369 1672 2092
1710.0 2681 3463 4385 5232 5779 5849 5321 4381 3348 2450
1750.0 1782 1334 1058 870 729 603 489 403 340 284
1790.0 239 206 179 156 141 119 104 95 84 79
1830.0 76 68 60 60 56 50 47 44 42 42
1870.0 38 33 34 33 32 29 25 26 29 30
1910.0 25 21 21 22 20 20 23 24 25 24
1950.0 18 21 24 21 19 17 15 11 13 11
1990.0 10 9 9 10 10 8 5 3 4 7
2030.0 7 6 5 1 3 4 0 2 5 5
2070.0 5 7 9 10 12 12 10 8 11 12
2110.0 10 16 17 11 14 20 24 21 16 16
2150.0 17 19 20 16 16 21 22 19 23 24
2190.0 16 15 17 17 17 16 11 11 12 10
2230.0 12 10 4 5 5 6 5 2 0 0
2270.0 0 1 6 10 6 3 5 8 6 2
2310.0 1 3 5 8 4 1 7 0 0 0
2350.0 3 0 0 0 0 2 7 10 11 12
2390.0 12 16 18 14 15 14 12 9 9 11
2430.0 10 14 18 16 19 23 18 20 21 15
2470.0 17 18 19 22 20 15 19 26 30 31
2510.0 30 33 35 38 34 31 36 40 41 34
2550.0 34 43 43 41 46 51 55 60 67 73
2590.0 69 73 78 70 64 72 77 72 72 72
2630.0 78 81 79 79 77 80 78 77 84 79
2670.0 76 83 86 89 96 104 108 113 119 123
2710.0 133 148 159 176 195 205 215 221 217 208
2750.0 200 199 197 194 201 211 215 220 235 250
2790.0 273 296 316 349 381 416 455 501 554 623
2830.0 723 843 984 1146 1304 1439 1546 1657 1835 2134
2870.0 2571 3073 3523 3855 4052 4166 4301 4488 4732 4996
2910.0 5197 5302 5323 5325 5371 5477 5598 5689 5782 6000
2950.0 6508 7441 8692 9740 10000 9271 7730 5827 4116 2877
2990.0 2087 1606 1312 1135 1020 927 835 733 634 551
3030.0 482 440 416 390 375 379 371 354 348 342
3070.0 331 328 324 306 294 284 257 232 231 223
3110.0 215 207 192 183 173 162 154 151 150 149
3150.0 154 150 143 141 139 143 149 149 148 138
3190.0 121 109 108 106 97 94 84 66 59 60
3230.0 54 50 43 40 46 48 49 45 39 34
3270.0 23 24 35 31 28 30 29 35 36 27
3310.0 38 41 37 38 38 46 48 44 34 40
3350.0 56 53 51 55 53 45 47 53 40 33
3390.0 46 57 57 64 69 76 82 94 112 109
3430.0 113 123 126 123 124 108 87 79 67 58
3470.0 54 44 34 37 42 35 35 37 25 9
3510.0 4 15 10 1 2 7 7 0 9 16
3550.0 8 7 10 13 11 7 11 12 7 1
3590.0 9 15 9 5 9 8 3 10 10 16
3630.0 15 5 10 23 26 21 23 26 27 19
3670.0 17 25 26 16 17 24 26 29 25 23
3710.0 34 36 21 15 28 25 30 30 21 34
3750.0 30 23 21 27 38 29 29 47 47 36
3790.0 33 31 29 39 46 47 49 54 58 49
3830.0 42 42 53 56 51
##END=
