##TITLE=2,6-Dimethyl-3-heptanone
##JCAMP-DX=4.24
##DATA TYPE=INFRARED SPECTRUM
##ORIGIN=NIST Mass Spectrometry Data Center
##OWNER=NIST Standard Reference Data Program
Collection (C) 2018 copyright by the U.S. Secretary of Commerce
on behalf of the United States of America. All rights reserved.
##CAS REGISTRY NO=19549-83-8
##MOLFORM=C 9 H 18 O
##$NIST SOURCE=MSDC-IR
##SPECTROMETER/DATA SYSTEM=HP-GC/MS/IRD
##STATE=gas
##XUNITS=1/CM
##YUNITS=ABSORBANCE
##XFACTOR=1.0
##YFACTOR=0.000003900
##DELTAX=4.0
##FIRSTX=550.0
##LASTX=3846.0
##FIRSTY=0.000324
##MAXX=3846
##MINX=550
##MAXY=0.039
##MINY=0
##NPOINTS=825
##XYDATA=(X++(Y..Y))
550.0 83 61 58 45 20 42 84 85 79 66
590.0 61 69 76 95 107 101 96 97 100 91
630.0 89 81 70 62 56 59 58 57 49 32
670.0 12 5 11 8 9 11 11 15 20 28
710.0 44 37 31 46 50 61 61 64 73 76
750.0 90 97 112 130 136 141 147 147 134 119
790.0 105 89 66 51 67 72 50 43 50 52
830.0 57 63 68 80 90 102 117 123 128 129
870.0 129 144 154 159 176 193 195 187 185 180
910.0 180 200 222 244 267 274 283 290 294 300
950.0 305 309 315 326 336 349 365 405 452 500
990.0 572 661 755 843 900 921 885 812 757 753
1030.0 796 896 1040 1205 1355 1457 1483 1415 1294 1144
1070.0 994 865 766 707 690 704 738 778 826 858
1110.0 867 876 874 871 861 839 804 763 715 680
1150.0 643 605 579 568 577 587 592 578 540 489
1190.0 446 425 414 409 411 410 396 376 364 356
1230.0 367 395 421 452 482 508 522 533 535 521
1270.0 504 486 473 456 436 425 421 419 428 463
1310.0 515 576 653 736 823 913 1005 1088 1137 1158
1350.0 1169 1193 1240 1289 1333 1376 1426 1517 1642 1687
1390.0 1605 1402 1101 839 709 656 633 625 622 629
1430.0 651 703 778 870 991 1137 1314 1513 1700 1830
1470.0 1834 1697 1437 1124 850 645 500 398 327 281
1510.0 233 191 168 153 133 113 104 105 101 88
1550.0 82 88 94 82 69 69 71 73 74 76
1590.0 73 72 79 79 76 79 88 92 101 109
1630.0 114 126 133 137 150 168 181 191 219 255
1670.0 299 354 420 513 636 794 1029 1369 1839 2446
1710.0 3182 3959 4624 4982 4897 4366 3516 2592 1801 1222
1750.0 847 610 461 366 294 239 198 166 146 126
1790.0 112 102 89 83 80 71 63 59 55 55
1830.0 53 44 42 42 39 34 31 29 24 22
1870.0 26 26 25 28 25 25 22 20 22 17
1910.0 18 19 21 19 16 17 18 15 14 17
1950.0 19 15 12 12 8 6 8 9 11 9
1990.0 7 7 10 12 12 11 12 9 10 10
2030.0 7 9 13 11 10 13 12 10 11 9
2070.0 5 8 9 6 7 9 7 7 8 5
2110.0 5 6 9 10 11 8 6 9 7 5
2150.0 1 0 5 7 5 7 6 6 7 7
2190.0 7 8 8 6 8 10 11 9 12 13
2230.0 13 12 12 14 14 13 11 11 15 15
2270.0 11 12 14 12 15 13 9 12 15 14
2310.0 15 14 11 14 18 17 15 19 20 18
2350.0 20 19 16 18 18 20 23 21 17 16
2390.0 18 22 19 20 24 23 26 21 18 19
2430.0 19 22 25 22 17 18 21 25 27 25
2470.0 21 17 17 22 24 26 25 23 23 26
2510.0 26 27 23 20 23 24 26 25 27 29
2550.0 29 35 40 38 37 39 43 40 44 49
2590.0 52 50 51 54 56 61 61 57 57 61
2630.0 68 71 70 68 70 76 74 74 75 69
2670.0 70 71 68 68 73 74 74 79 82 88
2710.0 96 106 119 132 151 164 171 172 163 164
2750.0 166 161 162 171 180 186 193 197 204 216
2790.0 228 240 256 274 294 328 359 380 410 447
2830.0 482 526 587 672 789 940 1126 1345 1626 1991
2870.0 2437 2927 3335 3604 3718 3711 3677 3676 3729 3822
2910.0 3955 4121 4313 4527 4782 5069 5369 5645 5872 6098
2950.0 6445 7087 8134 9296 10000 9965 9062 7505 5855 4387
2990.0 3215 2370 1777 1360 1058 840 686 563 477 413
3030.0 357 320 294 269 251 246 239 225 222 220
3070.0 212 208 207 208 203 202 201 194 185 177
3110.0 174 166 157 154 154 154 149 144 142 146
3150.0 153 154 153 155 161 167 164 159 153 147
3190.0 142 138 122 108 107 93 80 75 70 64
3230.0 55 43 37 40 41 38 35 32 25 25
3270.0 28 29 28 30 31 30 31 31 30 31
3310.0 33 33 41 36 26 31 37 45 45 39
3350.0 40 43 44 43 38 39 42 40 43 48
3390.0 51 54 60 63 76 87 87 95 106 112
3430.0 115 112 95 80 61 47 48 45 39 36
3470.0 27 22 22 26 25 23 23 23 21 17
3510.0 14 11 16 14 9 7 8 15 19 16
3550.0 18 18 11 8 10 9 15 20 17 22
3590.0 25 25 22 13 11 13 10 11 20 25
3630.0 16 11 15 15 17 20 11 14 25 26
3670.0 30 33 28 15 16 23 20 17 14 17
3710.0 23 23 20 21 22 20 23 23 17 27
3750.0 28 24 28 31 29 23 26 28 30 32
3790.0 32 33 34 35 38 38 38 39 38 41
3830.0 42 46 47 36 27
##END=
