##TITLE=2,4-Dimethyl-3-heptanol
##JCAMP-DX=4.24
##DATA TYPE=INFRARED SPECTRUM
##ORIGIN=NIST Mass Spectrometry Data Center
##OWNER=NIST Standard Reference Data Program
Collection (C) 2018 copyright by the U.S. Secretary of Commerce
on behalf of the United States of America. All rights reserved.
##CAS REGISTRY NO=19549-72-5
##MOLFORM=C 9 H 20 O
##$NIST SOURCE=MSDC-IR
##SPECTROMETER/DATA SYSTEM=HP-GC/MS/IRD
##STATE=gas
##XUNITS=1/CM
##YUNITS=ABSORBANCE
##XFACTOR=1.0
##YFACTOR=0.000003300
##DELTAX=4.0
##FIRSTX=550.0
##LASTX=3846.0
##FIRSTY=0.000383
##MAXX=3846
##MINX=550
##MAXY=0.033
##MINY=0
##NPOINTS=825
##XYDATA=(X++(Y..Y))
550.0 116 91 86 58 25 46 61 60 70 80
590.0 72 61 57 53 63 70 70 83 88 67
630.0 69 82 78 67 62 60 54 52 36 13
670.0 10 34 38 19 20 40 28 39 46 37
710.0 35 30 44 52 55 78 100 107 119 127
750.0 118 106 96 72 58 63 73 87 88 76
790.0 71 80 82 74 74 62 54 58 11 13
830.0 66 79 84 100 108 96 88 87 95 110
870.0 116 113 102 105 128 148 157 163 157 175
910.0 203 231 267 288 302 316 344 407 499 601
950.0 734 906 1091 1265 1434 1591 1714 1791 1813 1784
990.0 1706 1583 1439 1308 1196 1115 1071 1024 956 876
1030.0 788 692 607 557 525 507 495 489 501 511
1070.0 514 527 550 582 622 662 696 713 713 705
1110.0 678 636 595 568 553 559 589 633 674 701
1150.0 713 711 690 655 611 560 509 460 417 401
1190.0 391 401 424 452 485 515 547 572 591 608
1230.0 613 621 632 624 605 590 565 543 525 510
1270.0 495 480 471 457 441 432 425 419 405 398
1310.0 394 387 380 375 378 383 387 405 430 458
1350.0 509 573 661 776 909 1064 1215 1344 1450 1485
1390.0 1407 1244 1025 798 615 492 421 385 355 345
1430.0 365 404 465 554 690 852 1038 1231 1368 1436
1470.0 1419 1309 1113 883 672 501 381 301 254 226
1510.0 197 171 155 146 131 114 100 100 95 83
1550.0 78 77 84 77 64 64 67 63 58 56
1590.0 56 56 47 45 45 53 62 60 54 51
1630.0 51 57 52 47 53 62 56 41 39 46
1670.0 48 41 34 33 34 27 32 39 30 21
1710.0 19 20 21 16 8 11 14 9 7 10
1750.0 14 10 8 10 12 10 8 6 8 9
1790.0 12 13 6 7 8 6 7 6 7 7
1830.0 7 8 6 9 12 6 11 17 15 12
1870.0 12 10 9 12 13 17 17 11 8 11
1910.0 15 15 16 16 13 10 8 16 22 19
1950.0 15 14 17 19 17 12 13 15 11 11
1990.0 15 15 13 12 17 17 11 11 12 12
2030.0 10 11 12 10 5 5 12 12 5 0
2070.0 2 8 11 7 10 14 11 6 3 1
2110.0 3 7 8 11 11 14 10 4 5 12
2150.0 14 10 11 9 7 9 9 12 20 21
2190.0 18 14 8 8 13 13 11 14 18 20
2230.0 19 18 21 24 21 18 19 18 15 18
2270.0 25 27 28 30 30 32 27 24 22 19
2310.0 25 28 29 33 33 30 30 33 37 37
2350.0 37 44 45 36 33 37 40 43 41 44
2390.0 43 40 43 46 49 47 43 47 48 47
2430.0 43 40 44 50 46 44 43 39 42 41
2470.0 41 39 37 39 40 39 39 41 42 39
2510.0 41 45 48 49 51 49 49 54 58 64
2550.0 62 63 70 67 69 76 85 93 96 101
2590.0 110 116 120 125 123 128 132 126 123 127
2630.0 129 132 136 134 130 134 137 134 140 146
2670.0 147 151 149 151 159 162 161 162 167 178
2710.0 196 204 207 217 228 245 259 273 279 276
2750.0 274 270 272 271 280 287 285 296 310 318
2790.0 333 349 365 394 425 460 504 557 617 696
2830.0 790 907 1054 1238 1451 1692 1957 2226 2531 2878
2870.0 3296 3761 4154 4371 4381 4233 4041 3930 3973 4151
2910.0 4418 4736 5081 5440 5791 6121 6391 6528 6502 6420
2950.0 6499 6977 7940 9138 9976 10000 9109 7521 5748 4227
2990.0 3086 2284 1746 1379 1118 932 798 696 617 556
3030.0 513 471 430 403 369 343 322 303 289 274
3070.0 260 248 247 249 240 228 222 216 213 204
3110.0 201 202 195 189 182 172 170 164 161 160
3150.0 149 151 165 162 152 147 148 146 131 125
3190.0 121 109 104 98 88 83 78 68 59 61
3230.0 69 62 52 52 48 42 35 30 27 26
3270.0 23 28 36 33 24 20 20 18 20 23
3310.0 24 20 20 19 16 15 25 29 23 28
3350.0 28 26 31 30 29 30 31 31 28 31
3390.0 38 36 29 29 31 30 29 26 34 36
3430.0 24 25 38 46 37 26 25 27 36 35
3470.0 31 33 24 16 20 21 16 17 18 10
3510.0 14 17 11 11 15 14 21 20 14 23
3550.0 22 20 25 19 15 11 10 19 14 8
3590.0 14 24 32 39 42 45 51 64 79 114
3630.0 152 178 210 248 293 347 397 435 445 432
3670.0 402 345 264 188 138 99 72 66 51 29
3710.0 28 28 26 28 28 34 36 28 33 33
3750.0 20 22 33 35 35 36 37 39 31 28
3790.0 33 40 46 42 34 34 36 38 42 40
3830.0 47 61 53 44 39
##END=
