##TITLE=4,4-Dimethyl-3-hexanone
##JCAMP-DX=4.24
##DATA TYPE=INFRARED SPECTRUM
##ORIGIN=NIST Mass Spectrometry Data Center
##OWNER=NIST Standard Reference Data Program
Collection (C) 2018 copyright by the U.S. Secretary of Commerce
on behalf of the United States of America. All rights reserved.
##CAS REGISTRY NO=19550-14-2
##MOLFORM=C 8 H 16 O
##$NIST SOURCE=MSDC-IR
##SPECTROMETER/DATA SYSTEM=HP-GC/MS/IRD
##STATE=gas
##XUNITS=1/CM
##YUNITS=ABSORBANCE
##XFACTOR=1.0
##YFACTOR=0.000003100
##DELTAX=4.0
##FIRSTX=550.0
##LASTX=3846.0
##FIRSTY=0.000667
##MAXX=3846
##MINX=550
##MAXY=0.031
##MINY=0
##NPOINTS=825
##XYDATA=(X++(Y..Y))
550.0 215 201 198 179 135 117 82 38 5 4
590.0 30 40 36 43 41 44 38 48 52 46
630.0 44 39 50 49 31 13 2 8 10 0
670.0 9 18 24 39 39 30 20 33 59 68
710.0 78 79 63 57 67 53 43 44 40 55
750.0 70 87 114 152 200 240 272 290 282 265
790.0 262 249 228 230 243 252 263 263 246 219
830.0 184 144 110 102 93 79 67 71 76 76
870.0 78 84 100 111 123 146 182 218 245 273
910.0 284 293 301 310 337 384 477 624 821 1077
950.0 1388 1715 1978 2122 2110 1938 1649 1304 989 787
990.0 703 719 802 904 1007 1091 1137 1135 1075 973
1030.0 870 772 712 687 676 692 729 769 793 820
1070.0 839 881 989 1170 1411 1670 1906 2057 2086 1992
1110.0 1782 1510 1239 1021 849 709 613 525 440 383
1150.0 351 351 351 350 355 353 349 334 319 319
1190.0 316 318 333 346 360 376 396 410 414 415
1230.0 410 389 353 315 287 263 255 241 225 220
1270.0 214 213 222 234 253 284 313 348 384 425
1310.0 481 553 640 739 848 955 1047 1111 1140 1132
1350.0 1119 1130 1163 1242 1403 1555 1644 1769 1875 1892
1390.0 1809 1613 1377 1127 896 761 717 719 741 777
1430.0 829 899 998 1138 1324 1566 1852 2150 2415 2615
1470.0 2651 2508 2217 1821 1414 1039 748 551 433 357
1510.0 308 274 243 225 210 193 181 170 160 153
1550.0 149 150 144 141 143 138 134 133 138 139
1590.0 135 128 130 136 138 136 132 144 156 166
1630.0 182 193 205 221 243 262 289 338 395 468
1670.0 559 670 815 987 1231 1579 2100 2879 3914 5051
1710.0 6125 6984 7224 6555 5425 4140 2822 1803 1190 835
1750.0 622 477 372 299 243 200 172 150 127 112
1790.0 102 91 85 77 78 76 66 62 61 57
1830.0 51 52 51 51 49 45 42 38 39 40
1870.0 37 35 29 28 32 34 32 29 23 23
1910.0 27 26 25 26 27 29 30 29 27 26
1950.0 29 27 23 22 20 17 20 24 23 18
1990.0 16 19 21 17 14 19 19 17 19 20
2030.0 20 18 17 17 18 14 9 10 10 12
2070.0 17 13 6 6 7 6 8 8 5 7
2110.0 12 13 9 9 9 8 6 7 10 9
2150.0 9 8 8 7 8 10 11 8 3 7
2190.0 8 7 5 3 5 6 7 4 8 11
2230.0 11 8 11 10 5 8 10 7 6 13
2270.0 12 10 15 17 19 18 13 14 18 21
2310.0 23 24 24 26 33 34 27 30 34 33
2350.0 33 34 32 33 36 32 30 27 24 27
2390.0 33 32 28 30 27 23 22 21 21 14
2430.0 18 25 25 24 23 22 24 29 27 23
2470.0 20 15 14 15 19 17 12 14 12 16
2510.0 17 15 18 23 28 25 20 21 23 20
2550.0 19 21 26 28 21 18 25 31 29 29
2590.0 33 34 36 39 40 39 44 49 51 51
2630.0 54 63 69 72 68 68 68 73 77 74
2670.0 78 76 73 71 69 73 77 80 87 92
2710.0 91 96 106 116 124 136 153 168 180 188
2750.0 190 193 200 201 205 213 215 218 226 237
2790.0 247 263 279 292 311 341 373 401 427 460
2830.0 499 540 597 671 769 908 1091 1326 1601 1912
2870.0 2230 2566 2917 3249 3496 3643 3698 3699 3711 3790
2910.0 3982 4264 4602 4964 5301 5632 5984 6331 6593 6767
2950.0 6894 7063 7400 7957 8720 9496 10000 9946 9272 8108
2990.0 6714 5344 4118 3123 2381 1840 1458 1201 1012 873
3030.0 766 681 614 561 521 479 441 424 408 391
3070.0 377 367 357 346 326 307 298 289 273 267
3110.0 257 246 247 234 220 219 211 197 190 193
3150.0 197 194 191 188 185 179 169 158 149 146
3190.0 145 139 127 118 120 117 102 95 96 90
3230.0 86 80 73 68 63 66 63 58 51 50
3270.0 58 56 52 43 40 50 50 50 46 43
3310.0 44 36 37 40 43 38 45 53 48 45
3350.0 44 46 53 50 44 54 59 54 67 81
3390.0 90 103 120 140 151 151 157 151 137 132
3430.0 112 89 72 58 50 50 46 42 34 30
3470.0 37 34 27 29 28 29 31 32 34 27
3510.0 18 17 16 18 24 26 15 2 13 22
3550.0 17 7 8 20 24 19 9 11 20 23
3590.0 21 22 22 17 11 11 9 15 17 14
3630.0 16 22 22 11 10 12 18 25 27 29
3670.0 25 23 21 18 17 25 37 30 21 15
3710.0 12 23 25 21 23 24 30 31 25 22
3750.0 11 10 14 10 11 15 14 18 23 32
3790.0 28 19 18 18 21 23 23 18 15 23
3830.0 28 30 30 33 39
##END=
