##TITLE=2,2-Dimethyl-5-hexen-3-ol
##JCAMP-DX=4.24
##DATA TYPE=INFRARED SPECTRUM
##ORIGIN=NIST Mass Spectrometry Data Center
##OWNER=NIST Standard Reference Data Program
Collection (C) 2018 copyright by the U.S. Secretary of Commerce
on behalf of the United States of America. All rights reserved.
##CAS REGISTRY NO=19550-89-1
##MOLFORM=C 8 H 16 O
##$NIST SOURCE=MSDC-IR
##SPECTROMETER/DATA SYSTEM=HP-GC/MS/IRD
##STATE=gas
##XUNITS=1/CM
##YUNITS=ABSORBANCE
##XFACTOR=1.0
##YFACTOR=0.000003500
##DELTAX=4.0
##FIRSTX=550.0
##LASTX=3846.0
##FIRSTY=0.001197
##MAXX=3846
##MINX=550
##MAXY=0.035
##MINY=0
##NPOINTS=825
##XYDATA=(X++(Y..Y))
550.0 342 251 206 220 198 169 146 120 116 112
590.0 120 140 146 167 189 226 259 299 361 368
630.0 376 396 367 309 250 184 128 112 84 52
670.0 48 45 51 55 50 44 43 34 31 35
710.0 27 31 36 28 29 31 34 32 16 21
750.0 31 36 43 39 32 27 22 19 25 29
790.0 29 25 18 20 36 46 51 73 96 128
830.0 160 190 246 317 412 502 568 621 645 650
870.0 640 619 609 638 712 829 1004 1209 1442 1687
910.0 1900 2045 2048 1908 1690 1415 1148 956 817 723
950.0 675 662 672 725 831 992 1226 1529 1865 2205
990.0 2521 2783 2953 2988 2883 2676 2386 2040 1713 1459
1030.0 1298 1216 1222 1282 1382 1512 1665 1794 1892 1943
1070.0 1936 1868 1723 1540 1354 1179 1041 943 876 823
1110.0 785 751 709 648 596 563 532 508 502 504
1150.0 516 553 597 651 713 778 847 917 980 1041
1190.0 1095 1137 1166 1164 1150 1131 1125 1130 1135 1150
1230.0 1161 1146 1108 1049 983 930 892 879 881 886
1270.0 895 900 892 877 851 824 786 741 694 637
1310.0 579 526 484 458 450 466 504 560 658 800
1350.0 995 1253 1544 1831 2081 2175 2038 1778 1525 1346
1390.0 1299 1338 1369 1343 1260 1110 918 783 725 714
1430.0 730 751 762 764 766 782 827 902 998 1136
1470.0 1300 1435 1474 1419 1288 1080 815 566 394 296
1510.0 234 188 159 143 127 113 108 107 102 90
1550.0 83 81 77 72 67 67 70 60 58 67
1590.0 68 73 83 97 121 156 198 263 370 532
1630.0 728 880 952 934 817 612 373 215 139 98
1670.0 75 62 52 47 41 34 31 28 26 21
1710.0 18 15 10 6 7 7 5 1 0 6
1750.0 7 4 2 4 8 9 7 7 15 15
1790.0 14 20 21 23 31 46 67 92 129 161
1830.0 185 203 202 187 163 134 105 78 61 49
1870.0 33 23 22 18 15 12 12 16 17 20
1910.0 23 19 15 17 15 16 18 18 21 24
1950.0 26 25 27 28 30 31 30 30 35 34
1990.0 29 28 20 17 17 18 15 13 14 17
2030.0 19 19 19 15 14 15 15 18 19 18
2070.0 19 18 17 18 17 19 17 17 17 18
2110.0 22 21 22 26 23 24 27 26 25 21
2150.0 18 20 20 17 15 16 18 19 17 17
2190.0 19 17 16 17 16 21 24 23 20 19
2230.0 22 22 20 22 22 21 18 19 23 26
2270.0 29 27 29 29 31 35 37 36 34 35
2310.0 35 36 38 33 33 32 33 33 30 31
2350.0 30 28 32 36 36 32 36 34 33 36
2390.0 33 32 33 33 34 38 41 39 37 35
2430.0 33 35 32 29 24 23 27 26 26 25
2470.0 27 32 27 23 24 22 24 25 22 25
2510.0 27 25 28 31 33 37 38 43 46 45
2550.0 49 46 49 53 53 54 58 60 58 56
2590.0 55 58 58 59 62 64 65 68 71 75
2630.0 80 89 94 100 110 117 123 131 135 136
2670.0 135 132 135 132 129 135 136 135 138 145
2710.0 154 162 170 181 185 187 190 188 183 182
2750.0 187 188 192 194 192 196 202 206 210 218
2790.0 234 257 278 308 340 373 413 456 511 580
2830.0 672 785 917 1077 1270 1506 1791 2117 2495 2898
2870.0 3267 3541 3684 3681 3546 3360 3199 3103 3100 3189
2910.0 3339 3512 3686 3846 4002 4206 4493 4887 5406 6084
2950.0 6960 7986 9015 9782 10000 9616 8678 7288 5822 4559
2990.0 3555 2779 2190 1762 1459 1237 1060 911 775 659
3030.0 575 519 484 469 465 479 508 554 614 700
3070.0 831 1019 1244 1382 1398 1299 1094 801 518 358
3110.0 280 236 209 191 180 174 164 159 155 146
3150.0 141 141 142 135 128 128 127 117 118 125
3190.0 125 126 116 109 104 98 93 90 84 80
3230.0 73 64 54 46 49 57 58 47 43 39
3270.0 33 38 38 32 30 29 31 27 24 27
3310.0 33 26 25 22 16 21 24 24 29 31
3350.0 33 35 30 33 35 33 32 29 30 33
3390.0 30 27 26 21 24 38 37 36 33 26
3430.0 26 30 34 32 34 37 40 35 36 40
3470.0 36 33 30 24 26 27 30 32 36 41
3510.0 33 28 30 39 43 36 32 34 38 45
3550.0 51 54 63 60 57 61 69 80 82 85
3590.0 98 122 167 239 334 441 540 623 676 688
3630.0 665 633 607 577 563 566 556 535 511 466
3670.0 403 333 259 199 157 119 95 79 64 54
3710.0 56 55 42 31 40 39 31 32 26 26
3750.0 30 26 21 21 26 28 30 28 24 24
3790.0 22 21 22 24 31 34 28 29 34 32
3830.0 33 37 40 42 37
##END=
