##TITLE=2,5-Dimethyl-3-hexanol
##JCAMP-DX=4.24
##DATA TYPE=INFRARED SPECTRUM
##ORIGIN=NIST Mass Spectrometry Data Center
##OWNER=NIST Standard Reference Data Program
Collection (C) 2018 copyright by the U.S. Secretary of Commerce
on behalf of the United States of America. All rights reserved.
##CAS REGISTRY NO=19550-07-3
##MOLFORM=C 8 H 18 O
##$NIST SOURCE=MSDC-IR
##SPECTROMETER/DATA SYSTEM=HP-GC/MS/IRD
##STATE=gas
##XUNITS=1/CM
##YUNITS=ABSORBANCE
##XFACTOR=1.0
##YFACTOR=0.000003500
##DELTAX=4.0
##FIRSTX=550.0
##LASTX=3846.0
##FIRSTY=0.000392
##MAXX=3846
##MINX=550
##MAXY=0.035
##MINY=0
##NPOINTS=825
##XYDATA=(X++(Y..Y))
550.0 112 102 94 92 76 57 45 44 46 32
590.0 35 62 72 66 65 50 36 36 28 22
630.0 19 10 6 11 24 11 2 33 40 18
670.0 22 45 28 3 5 13 2 3 10 5
710.0 16 12 8 21 22 18 10 6 8 2
750.0 3 13 24 20 21 31 29 36 57 74
790.0 87 96 97 102 109 106 100 116 125 148
830.0 202 238 253 261 257 252 239 206 177 153
870.0 127 115 110 108 111 112 116 136 166 200
910.0 241 292 333 363 398 433 465 485 505 518
950.0 521 514 519 544 605 710 847 1004 1158 1275
990.0 1328 1318 1267 1197 1129 1067 1021 1000 989 976
1030.0 968 950 918 865 812 756 702 651 603 589
1070.0 585 583 590 604 631 650 674 692 703 710
1110.0 696 683 680 678 699 740 770 796 811 805
1150.0 799 797 796 787 772 734 678 605 530 473
1190.0 445 453 474 501 532 565 590 604 608 600
1230.0 589 577 570 572 573 570 570 579 591 601
1270.0 602 600 585 562 543 516 490 468 457 442
1310.0 426 416 411 414 424 439 468 503 539 590
1350.0 653 741 872 1035 1207 1364 1489 1565 1589 1547
1390.0 1442 1288 1085 867 678 539 454 409 387 386
1430.0 408 438 481 553 644 756 891 1047 1188 1292
1470.0 1311 1228 1078 885 679 505 375 292 238 192
1510.0 157 141 121 105 95 88 82 72 65 61
1550.0 54 47 46 47 43 46 49 44 38 38
1590.0 40 37 39 38 35 33 29 28 31 31
1630.0 32 33 36 34 30 26 23 27 29 31
1670.0 29 27 28 25 21 23 21 20 19 20
1710.0 23 25 23 19 11 7 12 12 10 9
1750.0 5 4 7 5 4 3 1 1 2 3
1790.0 3 4 3 7 5 5 8 9 6 3
1830.0 5 5 6 4 5 8 4 5 11 9
1870.0 6 10 11 8 6 6 8 9 10 16
1910.0 13 6 4 4 3 1 4 9 6 6
1950.0 5 6 10 7 1 2 6 7 9 9
1990.0 9 10 9 10 6 5 7 8 9 6
2030.0 4 3 6 7 4 3 1 2 3 3
2070.0 3 2 4 4 3 2 4 6 7 5
2110.0 4 6 7 10 9 9 4 6 7 7
2150.0 7 4 2 5 9 9 7 10 11 12
2190.0 12 8 8 9 8 7 3 2 1 4
2230.0 6 5 7 6 6 7 6 4 7 9
2270.0 9 9 8 10 11 10 8 7 8 11
2310.0 12 12 13 13 9 7 7 3 7 13
2350.0 12 11 12 15 16 21 24 25 27 28
2390.0 30 26 24 29 27 24 26 22 22 19
2430.0 16 19 19 21 25 23 23 27 27 24
2470.0 30 29 23 25 24 23 25 25 22 20
2510.0 24 25 29 30 25 27 28 29 32 33
2550.0 35 40 47 48 46 49 54 59 68 74
2590.0 79 81 87 99 98 92 90 92 91 89
2630.0 94 97 93 88 92 98 99 98 99 95
2670.0 96 103 105 103 113 115 113 118 125 136
2710.0 143 150 164 178 195 210 211 211 211 209
2750.0 207 206 203 202 210 217 219 225 238 247
2790.0 258 270 284 309 330 353 391 428 464 512
2830.0 580 656 745 855 978 1121 1304 1524 1819 2234
2870.0 2746 3255 3660 3918 4027 4007 3946 3925 3958 4042
2910.0 4156 4282 4439 4667 4948 5225 5451 5604 5717 5928
2950.0 6427 7386 8682 9720 10000 9433 8063 6187 4411 3099
2990.0 2201 1594 1182 914 726 592 497 430 379 331
3030.0 297 273 259 254 244 230 223 216 209 202
3070.0 195 191 192 187 180 178 181 173 164 164
3110.0 152 146 139 127 125 124 122 129 127 123
3150.0 130 126 125 130 127 127 127 122 123 122
3190.0 115 110 100 84 78 71 56 50 49 44
3230.0 37 33 30 24 19 21 19 12 13 11
3270.0 8 16 18 12 13 9 5 12 7 4
3310.0 14 15 11 14 16 14 11 10 13 18
3350.0 21 22 20 18 20 13 16 31 30 19
3390.0 23 24 20 24 25 22 22 25 21 18
3430.0 11 14 24 22 24 22 17 22 20 20
3470.0 25 21 19 23 20 18 19 13 8 9
3510.0 6 7 9 5 6 15 16 2 3 5
3550.0 2 3 1 5 9 12 10 0 6 15
3590.0 15 15 18 18 28 46 63 82 92 110
3630.0 145 192 234 284 341 391 424 433 406 357
3670.0 299 225 156 119 90 56 41 37 29 33
3710.0 38 39 32 24 17 20 22 18 15 12
3750.0 8 10 19 26 20 15 15 22 25 25
3790.0 27 30 25 25 34 39 35 35 42 51
3830.0 56 45 36 40 45
##END=
