##TITLE=trans-2,2-Dimethyl-3-heptene
##JCAMP-DX=4.24
##DATA TYPE=INFRARED SPECTRUM
##ORIGIN=NIST Mass Spectrometry Data Center
##OWNER=NIST Standard Reference Data Program
Collection (C) 2018 copyright by the U.S. Secretary of Commerce
on behalf of the United States of America. All rights reserved.
##CAS REGISTRY NO=19550-75-5
##MOLFORM=C 9 H 18
##$NIST SOURCE=MSDC-IR
##SPECTROMETER/DATA SYSTEM=HP-GC/MS/IRD
##STATE=gas
##XUNITS=1/CM
##YUNITS=ABSORBANCE
##XFACTOR=1.0
##YFACTOR=0.000002800
##DELTAX=4.0
##FIRSTX=550.0
##LASTX=3846.0
##FIRSTY=0.000160
##MAXX=3846
##MINX=550
##MAXY=0.028
##MINY=0
##NPOINTS=825
##XYDATA=(X++(Y..Y))
550.0 57 46 21 5 0 0 17 47 56 61
590.0 49 44 57 65 69 57 36 56 69 67
630.0 70 45 34 45 54 51 41 29 42 74
670.0 67 56 69 84 78 75 89 88 76 68
710.0 72 76 74 77 87 87 84 83 96 106
750.0 117 139 137 141 157 162 168 160 154 152
790.0 139 127 123 120 106 111 122 103 86 90
830.0 85 89 96 103 109 99 105 120 124 129
870.0 144 162 181 197 207 211 210 199 201 213
910.0 212 221 244 266 295 326 352 387 430 493
950.0 579 694 846 1010 1141 1194 1163 1066 904 724
990.0 563 452 371 309 278 255 231 210 200 202
1030.0 200 199 225 238 255 267 252 237 220 208
1070.0 208 200 186 172 167 152 136 128 114 103
1110.0 104 106 97 92 89 89 90 87 96 97
1150.0 89 92 100 123 143 152 170 203 234 266
1190.0 302 332 340 320 299 286 274 277 284 281
1230.0 272 263 262 274 290 308 354 396 418 417
1270.0 368 320 267 221 196 180 177 180 184 195
1310.0 202 204 211 223 256 312 370 416 463 509
1350.0 570 669 792 911 981 974 897 787 683 599
1390.0 530 463 402 339 280 239 218 223 250 284
1430.0 321 377 446 519 615 706 807 899 951 991
1470.0 1022 1012 947 838 697 527 383 284 225 190
1510.0 158 134 125 118 107 99 94 89 88 84
1550.0 79 75 69 75 79 74 77 74 66 73
1590.0 73 68 58 50 54 54 53 54 57 57
1630.0 50 52 51 46 49 57 60 56 57 52
1670.0 51 49 46 52 56 53 48 51 51 51
1710.0 54 50 48 50 51 53 60 60 60 68
1750.0 75 79 78 73 79 84 76 77 72 66
1790.0 68 59 55 51 47 47 44 43 46 50
1830.0 48 51 50 49 51 48 46 41 36 35
1870.0 36 35 30 34 34 28 28 23 22 25
1910.0 22 21 24 25 24 23 22 26 28 26
1950.0 21 20 18 17 21 20 19 21 21 18
1990.0 14 13 11 13 15 10 17 21 20 23
2030.0 29 29 16 9 13 17 15 19 19 11
2070.0 9 14 17 12 12 17 21 19 13 9
2110.0 9 12 13 7 5 10 13 12 13 17
2150.0 15 12 9 3 3 7 9 12 12 10
2190.0 13 14 13 16 16 13 10 6 3 7
2230.0 10 12 13 16 19 9 5 7 1 1
2270.0 6 5 6 11 12 16 22 21 14 10
2310.0 15 16 10 4 10 14 14 12 13 16
2350.0 21 22 21 22 24 26 29 26 21 19
2390.0 23 24 20 18 12 16 23 20 16 21
2430.0 21 20 21 15 10 7 9 16 22 19
2470.0 14 16 14 8 8 8 9 20 26 20
2510.0 17 15 18 25 29 26 25 32 37 40
2550.0 42 46 52 50 43 39 44 43 44 42
2590.0 44 43 38 41 52 56 50 47 51 57
2630.0 57 58 57 58 68 72 69 66 73 86
2670.0 85 77 82 88 90 86 90 96 102 109
2710.0 116 120 125 131 132 141 150 145 139 136
2750.0 136 140 146 148 151 149 159 168 172 190
2790.0 202 212 230 248 272 301 328 357 402 453
2830.0 522 624 750 897 1074 1277 1500 1763 2088 2445
2870.0 2763 3024 3185 3180 3099 3005 2951 3013 3189 3441
2910.0 3674 3885 4100 4339 4610 4916 5228 5513 5826 6326
2950.0 7088 8065 9139 9958 10000 9121 7591 5764 4103 2924
2990.0 2170 1681 1376 1183 1062 993 971 945 901 860
3030.0 808 730 648 575 504 436 388 351 315 290
3070.0 279 261 242 228 207 197 193 179 173 164
3110.0 153 151 145 146 145 135 138 145 141 139
3150.0 135 127 123 126 121 116 126 138 143 133
3190.0 123 118 116 110 101 104 105 103 106 108
3230.0 103 96 96 101 95 79 74 66 55 60
3270.0 58 51 59 57 40 44 51 53 56 47
3310.0 42 45 48 43 37 38 41 47 43 31
3350.0 28 23 17 23 30 38 45 44 42 34
3390.0 27 23 26 38 42 39 28 27 25 13
3430.0 12 18 24 30 35 22 21 28 23 19
3470.0 16 16 17 14 16 22 20 15 13 12
3510.0 13 7 5 17 18 13 15 11 10 14
3550.0 10 5 12 12 6 6 5 7 13 15
3590.0 11 2 0 2 3 8 11 9 12 15
3630.0 18 17 11 8 22 28 18 9 13 20
3670.0 15 15 14 13 17 11 16 38 39 25
3710.0 23 21 15 15 11 15 27 29 24 21
3750.0 15 13 20 17 18 18 21 28 33 36
3790.0 30 34 39 36 26 19 17 17 21 19
3830.0 28 38 28 21 23
##END=
