##TITLE=1,4-Dimethyl-2-(3,7-dimethyloctyl)benzene
##JCAMP-DX=4.24
##DATA TYPE=INFRARED SPECTRUM
##ORIGIN=NIST Mass Spectrometry Data Center
##OWNER=NIST Standard Reference Data Program
Collection (C) 2018 copyright by the U.S. Secretary of Commerce
on behalf of the United States of America. All rights reserved.
##CAS REGISTRY NO=19550-60-8
##MOLFORM=C 18 H 30
##$NIST SOURCE=MSDC-IR
##SPECTROMETER/DATA SYSTEM=HP-GC/MS/IRD
##STATE=gas
##XUNITS=1/CM
##YUNITS=ABSORBANCE
##XFACTOR=1.0
##YFACTOR=0.000004900
##DELTAX=4.0
##FIRSTX=550.0
##LASTX=3846.0
##FIRSTY=0.000466
##MAXX=3846
##MINX=550
##MAXY=0.049
##MINY=0
##NPOINTS=825
##XYDATA=(X++(Y..Y))
550.0 95 76 64 72 64 52 48 49 44 33
590.0 35 33 29 30 50 59 55 55 44 27
630.0 16 6 0 4 8 16 18 17 19 9
670.0 6 11 8 1 13 21 25 38 44 64
710.0 91 103 109 113 115 118 114 104 91 81
750.0 73 62 65 72 78 94 104 123 170 257
790.0 415 704 1134 1480 1403 978 576 341 223 165
830.0 132 117 111 102 94 98 102 111 126 151
870.0 193 241 266 238 176 121 91 74 72 82
910.0 81 84 105 132 145 139 135 130 118 111
950.0 107 102 104 106 108 120 134 150 166 173
990.0 179 184 181 172 165 162 153 142 140 135
1030.0 133 142 151 163 168 165 162 155 144 143
1070.0 143 130 122 122 124 127 133 137 142 141
1110.0 137 137 145 157 168 173 177 181 196 229
1150.0 279 335 371 369 353 320 276 230 195 176
1190.0 161 154 160 175 189 208 217 204 193 183
1230.0 179 184 190 191 191 187 179 178 176 178
1270.0 184 194 204 207 207 205 208 214 220 232
1310.0 243 261 288 317 344 372 396 414 437 466
1350.0 510 562 614 674 767 883 1011 1129 1194 1135
1390.0 942 694 508 426 397 393 402 419 442 478
1430.0 531 602 706 841 999 1179 1366 1559 1691 1701
1470.0 1575 1349 1123 976 927 982 1135 1329 1427 1302
1510.0 999 700 500 383 315 275 247 229 214 205
1550.0 196 192 193 198 209 212 214 210 203 197
1590.0 204 233 287 355 409 438 436 388 293 193
1630.0 130 96 79 68 60 56 53 47 46 48
1670.0 46 47 46 41 39 35 33 32 30 32
1710.0 34 31 31 38 50 59 64 75 82 79
1750.0 67 57 48 36 29 25 24 22 18 15
1790.0 11 16 18 18 24 28 29 32 33 32
1830.0 28 28 31 29 29 31 32 36 44 54
1870.0 69 86 96 96 77 50 33 22 16 12
1910.0 11 11 10 8 8 8 7 7 6 4
1950.0 4 3 3 4 5 5 4 4 3 2
1990.0 5 5 3 4 5 3 5 3 1 1
2030.0 0 1 3 1 0 0 1 2 2 2
2070.0 4 5 5 10 9 9 7 6 8 4
2110.0 1 2 2 2 1 0 1 4 2 1
2150.0 1 1 2 4 3 3 1 0 2 5
2190.0 3 1 0 2 3 3 5 6 5 4
2230.0 6 5 5 6 7 7 8 10 13 13
2270.0 13 11 9 12 14 15 15 12 11 12
2310.0 16 19 17 18 18 19 19 21 18 13
2350.0 12 15 17 20 18 16 16 18 22 24
2390.0 20 19 23 23 22 23 26 28 26 26
2430.0 29 31 31 29 28 31 34 30 27 29
2470.0 31 29 29 29 31 33 33 34 34 36
2510.0 39 37 37 38 39 38 41 42 44 49
2550.0 49 49 54 55 56 59 63 66 72 79
2590.0 84 86 86 89 93 96 98 96 95 97
2630.0 100 101 103 105 103 101 101 101 106 111
2670.0 109 109 113 117 123 132 140 143 145 152
2710.0 162 166 176 197 216 236 258 269 270 261
2750.0 242 224 217 215 218 226 233 245 265 289
2790.0 316 339 368 399 430 471 521 571 636 715
2830.0 808 932 1109 1374 1767 2266 2761 3162 3509 3895
2870.0 4386 4882 5159 5074 4787 4578 4594 4834 5267 5814
2910.0 6375 6910 7507 8229 9007 9628 9810 9460 8765 8107
2950.0 7868 8266 9204 10000 9730 8189 6127 4389 3282 2657
2990.0 2302 2127 2084 2096 2082 2004 1870 1716 1563 1424
3030.0 1314 1265 1289 1373 1443 1400 1238 1034 867 743
3070.0 650 576 512 454 403 358 330 308 290 282
3110.0 276 266 259 248 228 206 193 176 159 155
3150.0 148 138 134 131 124 122 116 111 112 107
3190.0 102 94 86 78 71 66 61 55 44 41
3230.0 39 36 32 25 23 21 19 21 25 24
3270.0 25 25 25 28 26 27 23 22 23 27
3310.0 34 34 30 30 29 24 25 31 33 39
3350.0 38 29 20 21 26 25 26 23 20 19
3390.0 18 21 21 19 19 15 15 14 13 15
3430.0 18 19 16 12 9 9 12 9 4 6
3470.0 6 5 5 5 7 9 7 6 8 6
3510.0 6 4 3 1 0 4 10 13 5 0
3550.0 3 6 4 2 0 1 5 7 7 7
3590.0 12 10 5 10 8 5 7 10 14 15
3630.0 14 12 13 15 11 5 10 14 12 11
3670.0 12 17 20 22 18 15 17 18 22 22
3710.0 20 20 24 25 23 25 20 25 31 23
3750.0 24 26 29 32 31 25 22 25 26 28
3790.0 31 33 40 42 34 30 35 40 43 44
3830.0 41 41 42 42 45
##END=
