##TITLE=1,3-Dimethyl cyclopentanol
##JCAMP-DX=4.24
##DATA TYPE=INFRARED SPECTRUM
##ORIGIN=NIST Mass Spectrometry Data Center
##OWNER=NIST Standard Reference Data Program
Collection (C) 2018 copyright by the U.S. Secretary of Commerce
on behalf of the United States of America. All rights reserved.
##CAS REGISTRY NO=19550-46-0
##MOLFORM=C 7 H 14 O
##$NIST SOURCE=MSDC-IR
##SPECTROMETER/DATA SYSTEM=HP-GC/MS/IRD
##STATE=gas
##XUNITS=1/CM
##YUNITS=ABSORBANCE
##XFACTOR=1.0
##YFACTOR=0.000001700
##DELTAX=4.0
##FIRSTX=550.0
##LASTX=3846.0
##FIRSTY=0.000228
##MAXX=3846
##MINX=550
##MAXY=0.017
##MINY=0
##NPOINTS=825
##XYDATA=(X++(Y..Y))
550.0 134 143 115 104 121 101 155 188 178 176
590.0 145 140 131 128 128 133 114 91 80 61
630.0 49 57 63 35 14 43 56 40 49 52
670.0 43 42 45 21 13 26 39 23 0 10
710.0 21 26 43 58 54 59 59 63 69 77
750.0 90 104 120 108 102 124 119 102 111 133
790.0 139 141 137 133 133 122 119 143 140 136
830.0 155 166 183 195 215 216 210 235 277 298
870.0 304 327 355 404 456 500 564 664 786 895
910.0 996 1091 1163 1211 1211 1179 1077 948 824 702
950.0 584 496 438 385 342 316 308 318 311 291
990.0 293 306 319 340 385 444 506 598 704 788
1030.0 865 906 916 885 832 772 718 691 655 641
1070.0 659 686 740 809 867 959 1052 1096 1114 1111
1110.0 1079 1024 998 992 995 1002 1011 1057 1076 1111
1150.0 1152 1175 1211 1244 1267 1283 1284 1268 1240 1229
1190.0 1236 1248 1278 1301 1296 1292 1304 1284 1257 1230
1230.0 1194 1171 1135 1126 1127 1116 1098 1099 1097 1072
1270.0 1049 1018 985 974 974 960 925 895 871 837
1310.0 805 777 769 771 772 794 850 930 1002 1024
1350.0 1041 1047 1053 1071 1113 1173 1244 1301 1264 1154
1390.0 1015 824 629 492 410 375 378 404 442 505
1430.0 596 699 802 888 957 1007 1041 1038 1000 907
1470.0 807 702 581 451 360 292 233 191 161 149
1510.0 123 105 99 85 71 64 54 45 50 51
1550.0 45 35 39 43 39 30 25 35 29 33
1590.0 27 20 21 17 28 35 39 44 37 36
1630.0 40 36 42 46 50 59 57 52 51 49
1670.0 50 47 44 49 60 52 47 53 52 42
1710.0 40 45 42 36 29 33 32 25 28 24
1750.0 28 29 21 18 25 19 15 26 20 17
1790.0 13 22 28 20 18 17 18 21 17 23
1830.0 28 25 20 25 35 30 23 19 19 17
1870.0 20 27 21 17 20 17 20 16 10 15
1910.0 16 13 11 8 10 10 10 17 21 17
1950.0 13 13 10 12 18 23 20 20 20 18
1990.0 22 25 18 14 14 14 13 7 7 14
2030.0 24 22 18 13 13 21 11 6 13 12
2070.0 16 20 19 24 20 7 0 5 13 14
2110.0 21 34 27 24 26 33 31 23 27 25
2150.0 24 22 9 7 14 16 18 17 18 17
2190.0 15 13 11 12 17 15 10 9 14 7
2230.0 0 3 7 14 15 9 1 10 25 28
2270.0 17 4 5 15 14 15 19 20 18 14
2310.0 18 21 14 9 9 18 27 24 18 19
2350.0 18 12 3 7 12 7 5 3 10 23
2390.0 20 13 17 16 14 15 16 13 8 12
2430.0 9 5 16 22 13 5 12 19 19 11
2470.0 7 5 8 9 6 12 17 12 20 21
2510.0 13 11 14 20 17 17 16 8 5 12
2550.0 30 38 33 33 44 26 14 25 27 27
2590.0 30 35 36 40 34 24 35 39 29 35
2630.0 43 36 36 41 38 34 35 35 39 46
2670.0 45 42 41 54 66 75 83 89 84 83
2710.0 89 79 77 92 115 125 122 132 144 134
2750.0 113 106 105 105 107 105 121 131 139 147
2790.0 144 149 174 200 236 273 300 341 381 420
2830.0 482 571 683 822 1004 1209 1451 1770 2130 2529
2870.0 2909 3139 3258 3276 3187 3044 2888 2810 2868 3047
2910.0 3342 3722 4170 4692 5263 5828 6415 7024 7663 8343
2950.0 8983 9538 9950 10000 9492 8527 7309 5890 4447 3256
2990.0 2298 1566 1093 800 593 457 372 310 269 231
3030.0 209 196 163 149 153 149 149 141 138 129
3070.0 122 119 114 109 102 95 95 98 93 83
3110.0 72 71 72 73 74 71 60 60 69 65
3150.0 75 85 73 74 78 74 66 78 81 75
3190.0 73 69 75 67 64 71 53 54 51 36
3230.0 24 14 13 17 27 26 20 17 8 13
3270.0 24 27 30 30 15 10 27 29 24 19
3310.0 3 26 39 7 2 17 33 42 42 46
3350.0 38 21 31 55 56 60 46 35 44 40
3390.0 49 56 35 13 28 40 39 39 31 44
3430.0 23 3 16 24 31 23 16 19 12 3
3470.0 10 8 6 18 28 29 20 8 0 8
3510.0 19 37 49 38 27 19 0 15 34 43
3550.0 46 27 28 38 39 32 12 13 8 5
3590.0 19 23 43 67 72 91 100 136 207 302
3630.0 403 440 491 524 486 433 358 262 200 146
3670.0 98 73 46 23 30 34 25 16 4 16
3710.0 41 47 15 6 35 50 21 26 44 36
3750.0 30 20 26 32 17 17 37 33 39 51
3790.0 41 30 31 44 49 27 21 38 54 74
3830.0 82 70 64 40 17
##END=
