##TITLE=2,3-Dimethyl-2-hexanol
##JCAMP-DX=4.24
##DATA TYPE=INFRARED SPECTRUM
##ORIGIN=NIST Mass Spectrometry Data Center
##OWNER=NIST Standard Reference Data Program
Collection (C) 2018 copyright by the U.S. Secretary of Commerce
on behalf of the United States of America. All rights reserved.
##CAS REGISTRY NO=19550-03-9
##MOLFORM=C 8 H 18 O
##$NIST SOURCE=MSDC-IR
##SPECTROMETER/DATA SYSTEM=HP-GC/MS/IRD
##STATE=gas
##XUNITS=1/CM
##YUNITS=ABSORBANCE
##XFACTOR=1.0
##YFACTOR=0.000003300
##DELTAX=4.0
##FIRSTX=550.0
##LASTX=3846.0
##FIRSTY=0.000290
##MAXX=3846
##MINX=550
##MAXY=0.033
##MINY=0
##NPOINTS=825
##XYDATA=(X++(Y..Y))
550.0 88 89 82 67 65 63 49 35 34 48
590.0 46 39 13 13 44 47 51 57 39 19
630.0 23 22 30 41 40 50 54 40 26 36
670.0 64 55 49 68 81 83 99 104 91 102
710.0 112 113 118 139 156 154 153 153 152 136
750.0 129 124 110 120 123 113 115 115 111 100
790.0 85 80 85 81 71 80 90 108 136 155
830.0 180 215 259 308 340 374 403 415 428 461
870.0 487 511 529 533 528 505 484 491 535 617
910.0 743 899 1060 1208 1310 1357 1340 1267 1161 1031
950.0 871 700 542 424 346 292 260 245 237 239
990.0 244 254 267 274 272 273 278 276 277 287
1030.0 313 345 374 410 448 493 543 602 681 768
1070.0 848 937 1020 1105 1186 1252 1298 1318 1330 1323
1110.0 1308 1315 1339 1385 1444 1493 1517 1518 1505 1512
1150.0 1532 1573 1634 1715 1798 1832 1809 1713 1558 1385
1190.0 1221 1080 977 918 880 857 838 824 808 788
1230.0 779 773 772 781 779 778 782 778 765 759
1270.0 755 748 749 753 769 789 798 804 810 816
1310.0 814 804 791 774 758 742 731 729 731 758
1350.0 834 963 1165 1445 1788 2117 2333 2422 2373 2174
1390.0 1864 1513 1172 880 673 548 481 447 438 448
1430.0 473 515 584 682 807 959 1113 1256 1347 1365
1470.0 1305 1174 1003 816 634 488 385 309 255 222
1510.0 198 178 159 140 136 134 122 116 110 100
1550.0 91 82 75 73 72 73 67 65 64 63
1590.0 59 55 53 50 52 56 56 53 54 56
1630.0 58 56 56 58 54 55 57 51 46 44
1670.0 40 36 34 31 33 36 36 40 38 33
1710.0 33 36 31 22 26 30 25 19 20 19
1750.0 15 16 20 23 27 25 20 22 25 23
1790.0 20 21 19 21 25 22 21 18 23 24
1830.0 20 20 20 16 15 14 16 18 17 17
1870.0 14 16 16 11 11 14 14 13 16 11
1910.0 7 9 7 7 6 7 8 10 5 0
1950.0 0 1 0 1 5 8 9 9 10 12
1990.0 11 10 7 10 14 14 11 10 15 11
2030.0 9 16 15 16 15 15 17 16 17 16
2070.0 14 16 19 17 15 15 13 12 13 14
2110.0 12 13 14 13 13 9 9 10 12 13
2150.0 14 16 20 19 14 12 9 12 18 17
2190.0 16 15 13 14 17 22 25 21 16 16
2230.0 15 15 19 26 21 20 25 19 14 18
2270.0 23 22 20 22 25 27 24 23 27 27
2310.0 25 19 21 23 23 24 27 26 23 20
2350.0 16 19 20 21 24 26 28 31 36 42
2390.0 42 36 35 36 34 32 29 27 28 25
2430.0 26 30 31 29 30 31 30 26 27 28
2470.0 26 28 26 26 33 31 26 30 39 40
2510.0 37 35 30 31 31 35 40 37 34 40
2550.0 44 45 50 54 59 60 59 60 63 66
2590.0 69 73 73 72 78 85 87 84 86 85
2630.0 80 80 79 79 81 84 85 88 91 85
2670.0 89 94 93 96 99 99 105 111 113 115
2710.0 122 128 135 144 157 171 186 193 193 196
2750.0 195 193 192 188 187 194 201 210 221 233
2790.0 251 274 292 313 340 369 394 423 457 496
2830.0 546 610 686 781 906 1066 1288 1575 1927 2345
2870.0 2831 3328 3730 3971 4042 3946 3752 3560 3447 3451
2910.0 3569 3776 4082 4475 4911 5374 5807 6129 6305 6386
2950.0 6507 6843 7537 8487 9387 9965 10000 9424 8348 7018
2990.0 5664 4407 3324 2467 1836 1399 1103 901 765 672
3030.0 595 535 488 444 412 376 340 322 309 291
3070.0 277 265 254 247 243 234 222 214 206 196
3110.0 197 195 186 185 184 181 178 169 166 170
3150.0 169 162 149 145 152 148 138 138 143 137
3190.0 132 134 136 132 123 114 107 97 82 73
3230.0 69 73 75 71 69 60 58 57 52 48
3270.0 45 43 45 42 30 27 26 30 32 27
3310.0 30 23 25 26 22 29 34 34 35 36
3350.0 34 36 40 40 41 43 39 33 35 43
3390.0 43 42 46 56 50 36 38 33 44 47
3430.0 43 48 45 45 47 44 45 46 42 36
3470.0 36 41 38 37 37 42 37 30 23 22
3510.0 30 30 23 18 19 18 19 26 21 13
3550.0 16 23 20 22 25 19 23 25 15 17
3590.0 32 33 29 34 51 70 88 111 149 218
3630.0 312 399 462 518 522 459 370 269 192 142
3670.0 102 75 62 52 44 41 40 38 37 28
3710.0 23 27 25 25 22 12 19 26 25 28
3750.0 35 32 26 19 24 34 40 44 33 28
3790.0 29 28 30 37 30 30 35 41 45 44
3830.0 45 47 50 44 42
##END=
