##TITLE=3,4-Dimethyl-2-hexanol
##JCAMP-DX=4.24
##DATA TYPE=INFRARED SPECTRUM
##ORIGIN=NIST Mass Spectrometry Data Center
##OWNER=NIST Standard Reference Data Program
Collection (C) 2018 copyright by the U.S. Secretary of Commerce
on behalf of the United States of America. All rights reserved.
##CAS REGISTRY NO=19550-05-1
##MOLFORM=C 8 H 18 O
##$NIST SOURCE=MSDC-IR
##SPECTROMETER/DATA SYSTEM=HP-GC/MS/IRD
##STATE=gas
##XUNITS=1/CM
##YUNITS=ABSORBANCE
##XFACTOR=1.0
##YFACTOR=0.000004600
##DELTAX=4.0
##FIRSTX=550.0
##LASTX=3846.0
##FIRSTY=0.000515
##MAXX=3846
##MINX=550
##MAXY=0.046
##MINY=0
##NPOINTS=825
##XYDATA=(X++(Y..Y))
550.0 112 43 13 28 28 28 30 22 22 25
590.0 28 27 18 31 44 49 43 47 53 56
630.0 60 52 54 53 32 22 24 11 2 12
670.0 20 10 1 0 6 15 15 10 5 10
710.0 11 14 21 27 30 27 30 32 39 58
750.0 70 74 79 87 89 87 97 107 109 110
790.0 112 110 101 96 99 103 102 101 99 94
830.0 86 89 89 80 83 93 107 129 166 219
870.0 275 332 374 397 402 403 426 490 602 740
910.0 864 934 935 861 730 582 458 380 345 340
950.0 373 419 467 517 573 633 699 766 844 925
990.0 992 1044 1078 1091 1092 1077 1057 1046 1041 1056
1030.0 1093 1143 1208 1280 1364 1451 1519 1578 1629 1660
1070.0 1665 1626 1560 1473 1369 1263 1178 1116 1067 1029
1110.0 1006 1001 1007 1018 1025 1034 1029 1021 1009 993
1150.0 971 937 877 808 733 661 603 549 503 470
1190.0 454 456 466 488 525 570 621 681 736 786
1230.0 836 878 906 913 897 869 823 773 719 662
1270.0 615 581 555 529 507 496 494 494 497 498
1310.0 494 493 500 511 526 544 560 578 618 664
1350.0 712 791 896 1056 1299 1585 1880 2120 2234 2180
1390.0 1970 1654 1311 1018 795 644 543 477 459 468
1430.0 494 539 625 764 922 1099 1246 1371 1457 1445
1470.0 1335 1152 966 774 587 444 351 288 241 186
1510.0 158 158 138 121 118 117 110 89 76 84
1550.0 89 79 57 71 84 79 72 76 87 86
1590.0 83 77 77 81 78 74 69 67 68 69
1630.0 70 55 54 59 53 39 32 49 56 53
1670.0 44 35 36 19 13 31 21 1 7 24
1710.0 25 12 3 16 25 11 0 11 16 11
1750.0 2 7 16 19 15 9 15 21 16 17
1790.0 16 15 15 14 23 24 23 20 18 17
1830.0 18 20 21 13 12 17 21 21 21 18
1870.0 18 22 23 20 19 20 21 21 22 22
1910.0 20 17 16 15 15 15 18 17 12 13
1950.0 16 16 18 17 14 16 15 13 14 14
1990.0 12 11 11 13 11 11 6 5 9 8
2030.0 10 9 7 7 8 10 9 10 9 8
2070.0 7 8 9 7 7 6 6 7 6 6
2110.0 5 7 9 8 9 9 8 7 5 6
2150.0 7 6 3 4 6 6 8 7 5 2
2190.0 4 4 2 5 4 0 2 5 3 5
2230.0 8 9 11 9 8 9 11 13 17 16
2270.0 15 17 14 12 14 16 17 15 15 17
2310.0 18 18 19 17 18 20 21 27 25 28
2350.0 29 24 23 22 22 26 28 29 28 29
2390.0 30 32 34 35 39 40 39 40 39 39
2430.0 40 41 39 37 35 33 32 30 28 28
2470.0 29 32 31 34 34 28 27 30 28 26
2510.0 25 27 29 34 35 33 36 40 43 47
2550.0 53 58 61 65 70 74 79 82 88 90
2590.0 95 101 104 107 109 111 114 118 123 124
2630.0 124 127 128 127 127 132 134 134 135 138
2670.0 142 144 145 148 150 151 152 151 154 159
2710.0 165 170 176 189 202 214 225 232 232 231
2750.0 233 232 226 224 227 231 237 244 254 270
2790.0 283 299 317 338 364 394 425 459 495 542
2830.0 594 650 718 801 912 1068 1292 1595 1989 2488
2870.0 3085 3727 4320 4772 5038 5089 4950 4720 4510 4385
2910.0 4362 4441 4606 4827 5080 5326 5519 5632 5663 5680
2950.0 5817 6253 7088 8211 9293 9957 10000 9328 8060 6545
2990.0 5057 3756 2737 1998 1495 1160 931 779 674 592
3030.0 537 492 453 421 394 372 350 333 315 299
3070.0 290 282 272 255 244 242 236 224 217 212
3110.0 206 196 192 190 180 173 170 166 161 161
3150.0 160 156 154 149 141 136 134 128 123 116
3190.0 112 100 89 83 71 64 59 50 45 45
3230.0 39 34 28 28 28 24 20 17 16 19
3270.0 19 14 10 8 8 8 10 11 14 11
3310.0 4 5 9 9 10 3 0 6 8 9
3350.0 8 5 3 5 8 9 15 22 22 19
3390.0 16 16 17 20 20 18 20 16 21 26
3430.0 27 27 22 22 26 29 27 25 22 22
3470.0 22 20 15 15 21 16 15 15 8 10
3510.0 10 7 10 8 2 4 5 7 4 0
3550.0 14 18 13 9 2 7 20 21 12 7
3590.0 12 16 18 30 29 29 44 59 92 113
3630.0 144 207 273 345 418 499 570 582 540 448
3670.0 331 233 166 129 90 62 60 54 45 38
3710.0 22 19 27 17 11 7 0 0 0 0
3750.0 0 4 10 10 10 14 21 19 20 20
3790.0 18 14 9 8 13 23 23 17 20 24
3830.0 28 22 19 29 37
##END=
