##TITLE=2-Bromothioanisole
##JCAMP-DX=4.24
##DATA TYPE=INFRARED SPECTRUM
##ORIGIN=EPA-IR VAPOR PHASE LIBRARY
##OWNER=SRD/NIST
Collection (C) 2018 copyright by the U.S. Secretary of Commerce
on behalf of the United States of America. All rights reserved.
##CAS REGISTRY NO=19614-16-5
##MOLFORM=C 7 H 7 Br S
##$NIST SOURCE=MSDC-IR
##STATE=gas
##XUNITS=1/CM
##YUNITS=ABSORBANCE
##XFACTOR=1.
##YFACTOR=0.001
##DELTAX=3.85796
##FIRSTX=501.5
##LASTX=4000.7
##FIRSTY=0.447
##MAXX=4000.7
##MINX=501.534
##MAXY=0.0346565
##MINY=0
##NPOINTS=908
##XYDATA=(X++(Y..Y))
501.534 0.447 0.4156 0.5057 0.6131 0.524 0.4635 0.3587 0.2787 0.3087 0.3402
540.114 0.3103 0.2993 0.2863 0.2721 0.3044 0.2674 0.3052 0.282 0.2527 0.347
578.693 0.4407 0.4586 0.4406 0.4002 0.3931 0.4056 0.3787 0.3449 0.3009 0.3236
617.273 0.3775 0.4309 0.5702 0.7503 1.1265 1.9565 3.1365 4.1865 4.6565 4.5365
655.852 3.7965 2.5265 1.3765 0.8596 0.7358 0.7332 0.8277 0.9653 1.2665 1.7165
694.432 2.2765 2.8965 3.3965 3.7665 4.0265 4.3465 5.2165 7.3365 11.2065 16.5065
733.011 23.5365 31.4765 34.6265 34.6565 30.1865 20.7465 13.7565 8.4865 4.4665 2.4265
771.591 1.4665 1.0147 0.8049 0.681 0.5745 0.5732 0.6626 0.7611 0.8116 0.8147
810.170 0.8163 0.8545 0.8027 0.7188 0.639 0.5742 0.5575 0.5396 0.5818 0.6575
848.750 0.6849 0.7238 0.7423 0.6708 0.5789 0.5339 0.5346 0.5075 0.5166 0.5278
887.330 0.5151 0.5238 0.5275 0.5441 0.5829 0.5975 0.6278 0.6961 0.7424 0.813
925.909 0.929 1.1065 1.2765 1.4965 1.7065 1.8065 1.9765 2.2065 2.4665 2.8265
964.489 3.1265 3.2665 3.1965 2.9965 2.7165 2.4465 2.3265 2.5065 2.9465 3.6565
1003.068 4.9365 7.0665 10.3665 14.5865 18.5865 20.7765 20.5565 17.8165 13.1765 8.7665
1041.648 5.8665 4.1865 3.0265 2.0665 1.3465 0.987 0.8391 0.7941 0.8082 0.8925
1080.227 1.1465 1.5465 2.0765 2.8165 3.7865 4.9865 6.0765 6.6865 6.6965 6.1565
1118.807 5.2265 4.1565 3.1965 2.4665 1.9465 1.5865 1.2865 1.0057 0.8768 0.8477
1157.387 0.8628 0.8549 0.8036 0.7503 0.6724 0.5712 0.5286 0.536 0.4689 0.4266
1195.966 0.4973 0.5126 0.4668 0.4443 0.4928 0.5679 0.6242 0.6973 0.8111 1.1265
1234.546 1.6665 2.5265 3.4965 4.2265 4.5565 4.2765 3.4665 2.5865 1.9665 1.5665
1273.125 1.2665 1.1265 1.0128 0.8681 0.806 0.7617 0.7774 0.8763 1.0365 1.2665
1311.705 1.6065 1.8665 1.9265 1.8565 1.6365 1.3265 1.0665 0.9449 0.9515 1.0086
1350.284 1.0565 1.0865 1.1065 1.1165 1.1265 1.1665 1.2365 1.3165 1.4365 1.6165
1388.864 1.8765 2.2165 2.6465 3.1965 3.9065 4.8365 6.2165 8.3065 11.1765 14.2065
1427.443 16.8965 19.6365 22.9665 26.3265 28.5065 28.8765 26.5665 21.4965 14.6265 8.7565
1466.023 5.4065 3.9565 3.2765 2.8265 2.4665 2.1565 1.8665 1.6065 1.3865 1.2165
1504.603 1.0765 0.9502 0.8552 0.7996 0.7951 0.8169 0.8627 0.9718 1.1565 1.4465
1543.182 1.9365 2.6465 3.4865 4.2565 4.8665 5.3565 5.7465 5.9065 5.7565 5.2765
1581.762 4.4365 3.2765 2.1965 1.5565 1.2665 1.1265 1.0103 0.9082 0.8017 0.6697
1620.341 0.5618 0.5252 0.5178 0.5129 0.5098 0.5085 0.5274 0.5471 0.5958 0.6583
1658.921 0.7285 0.8343 0.8991 0.9494 1.0119 1.0165 1.0111 0.9696 0.8771 0.7797
1697.500 0.6691 0.5686 0.5058 0.4706 0.4429 0.4109 0.3654 0.3177 0.2711 0.2485
1736.080 0.2348 0.2277 0.2383 0.2696 0.3135 0.3493 0.4205 0.4991 0.5235 0.5444
1774.659 0.5619 0.5593 0.5717 0.6162 0.6847 0.7457 0.7899 0.7884 0.7369 0.6737
1813.239 0.612 0.5593 0.5285 0.5091 0.4879 0.446 0.384 0.3496 0.3429 0.3464
1851.819 0.3647 0.3804 0.3979 0.4073 0.4056 0.4532 0.5187 0.6072 0.7359 0.8255
1890.398 0.8894 0.9317 0.9321 0.9485 0.9705 0.9667 0.953 0.9235 0.888 0.8747
1928.978 0.8771 0.8814 0.8735 0.8306 0.7629 0.6624 0.5363 0.4004 0.2892 0.2197
1967.557 0.1793 0.1665 0.1678 0.1663 0.1681 0.1759 0.1796 0.1797 0.173 0.1679
2006.137 0.1762 0.1833 0.1819 0.1867 0.1878 0.177 0.1734 0.1729 0.1684 0.1755
2044.716 0.1831 0.1625 0.148 0.1434 0.1219 0.11115 0.1097 0.10263 0.09403 0.08891
2083.296 0.10463 0.11348 0.1198 0.1223 0.11102 0.09855 0.09769 0.10533 0.0853 0.07845
2121.875 0.0832 0.08184 0.09392 0.123 0.1371 0.144 0.1346 0.10026 0.08105 0.06713
2160.455 0.06142 0.0741 0.09005 0.07869 0.05191 0.05104 0.07071 0.0854 0.08861 0.08593
2199.035 0.06961 0.07117 0.07634 0.07397 0.06939 0.06109 0.08513 0.09407 0.08726 0.10705
2237.614 0.1072 0.1188 0.1486 0.1495 0.1471 0.1612 0.2002 0.2321 0.2644 0.2809
2276.194 0.2757 0.2847 0.2891 0.2699 0.2451 0.2189 0.1815 0.1599 0.1529 0.1753
2314.773 0.2155 0.2487 0.2623 0.2511 0.2366 0.2199 0.2079 0.1923 0.1812 0.1884
2353.353 0.1907 0.2142 0.2164 0.1965 0.2052 0.2023 0.1925 0.1891 0.1855 0.1926
2391.932 0.2215 0.2315 0.2328 0.2539 0.247 0.2274 0.219 0.2208 0.2125 0.1818
2430.512 0.1654 0.1402 0.1246 0.1339 0.1342 0.1172 0.10863 0.10575 0.10599 0.11045
2469.092 0.07966 0.05517 0.06266 0.06408 0.08252 0.1209 0.1511 0.1736 0.198 0.24
2507.671 0.2758 0.3118 0.3381 0.3379 0.3362 0.2974 0.2594 0.2442 0.2233 0.2158
2546.251 0.2063 0.1961 0.1962 0.1831 0.186 0.2135 0.2306 0.244 0.2575 0.2667
2584.830 0.2542 0.2225 0.216 0.2179 0.1962 0.1541 0.1184 0.081 0.0573 0.06855
2623.410 0.06859 0.05522 0.03985 0.03283 0.03585 0.03853 0.017859 0.021735 0.017794 0
2661.989 0.03903 0.06864 0.07128 0.07939 0.08417 0.09139 0.09796 0.1194 0.1349 0.10632
2700.569 0.1003 0.09002 0.06944 0.04856 0.0321 0.05633 0.04486 0.04655 0.0826 0.09861
2739.148 0.09304 0.09085 0.08806 0.08333 0.10864 0.1126 0.08922 0.08475 0.07889 0.08683
2777.728 0.09889 0.11335 0.1434 0.1842 0.208 0.2041 0.2453 0.2991 0.3463 0.4244
2816.308 0.4899 0.5778 0.6972 0.8503 1.0665 1.2865 1.4865 1.6865 1.8865 1.9565
2854.887 1.9065 1.7765 1.6165 1.4365 1.3065 1.2265 1.2065 1.1865 1.1265 1.0965
2893.467 1.1365 1.2165 1.3665 1.6065 1.9865 2.6065 3.6065 5.2965 7.7365 10.1865
2932.046 11.4365 11.2365 9.8265 7.2865 4.6865 3.0865 2.2865 1.9065 1.7465 1.7065
2970.626 1.7965 2.0065 2.3265 2.8165 3.4465 4.1665 4.6165 4.5865 4.2265 3.6165
3009.205 2.8465 2.1665 1.7165 1.4465 1.2565 1.1465 1.1665 1.3065 1.5365 2.0165
3047.785 2.8865 4.2765 6.2265 8.4565 10.2365 10.9465 10.5865 9.4365 7.6465 5.9165
3086.364 4.8365 4.0565 3.1665 2.3965 1.9165 1.6965 1.6965 1.7665 1.7965 1.7365
3124.944 1.5965 1.3765 1.0765 0.7815 0.6406 0.5495 0.4433 0.3946 0.3865 0.3384
3163.524 0.2421 0.1883 0.2023 0.1899 0.1789 0.1661 0.128 0.1251 0.1197 0.1606
3202.103 0.1954 0.1714 0.1832 0.16 0.09358 0.08553 0.09834 0.08556 0.1271 0.1451
3240.683 0.10849 0.08035 0.0568 0.10437 0.10013 0.06796 0.06849 0.02718 0.03111 0.04553
3279.262 0.065 0.07485 0.06237 0.07918 0.04102 0.02739 0.05678 0.06037 0.09018 0.08499
3317.842 0.03556 0.04829 0.10264 0.1502 0.119 0.09297 0.10858 0.08473 0.10257 0.08867
3356.421 0.10509 0.10953 0.08655 0.10252 0.129 0.1224 0.05922 0.05402 0.05019 0.03205
3395.001 0.0316 0.05991 0.04349 0.03079 0.07748 0.1174 0.10409 0.07001 0.08195 0.07474
3433.580 0.04483 0.03873 0.05783 0.03982 0.033 0.0629 0.06406 0.08659 0.09612 0.05388
3472.160 0.01333 0.05808 0.10689 0.09238 0.05982 0.0352 0.05632 0.06207 0.06738 0.07053
3510.740 0.09659 0.08897 0.07209 0.09698 0.08908 0.051 0.03641 0.06041 0.08774 0.10003
3549.319 0.1231 0.10102 0.05946 0.09543 0.1329 0.1303 0.1223 0.1254 0.0769 0.0369
3587.899 0.05809 0.07786 0.10445 0.0777 0.04707 0.05922 0.09806 0.1426 0.1253 0.1367
3626.478 0.1472 0.133 0.1363 0.1425 0.1191 0.09338 0.1326 0.10873 0.07393 0.09786
3665.058 0.1296 0.145 0.1491 0.1651 0.1295 0.08335 0.1073 0.1469 0.1423 0.1606
3703.637 0.1804 0.1854 0.2224 0.2232 0.2145 0.2269 0.2272 0.2244 0.2383 0.3025
3742.217 0.2667 0.1972 0.1963 0.1653 0.1807 0.1847 0.166 0.1786 0.2003 0.2511
3780.797 0.2704 0.2899 0.3066 0.2609 0.2519 0.267 0.2302 0.1965 0.1736 0.1467
3819.376 0.1218 0.1274 0.1554 0.1211 0.098 0.1416 0.1426 0.08036 0.10036 0.1315
3857.956 0.08666 0.08467 0.1452 0.1691 0.1436 0.139 0.1703 0.1829 0.1227 0.10303
3896.535 0.1547 0.155 0.1246 0.1393 0.2055 0.2331 0.1899 0.2017 0.174 0.09244
3935.115 0.10774 0.1368 0.1514 0.1454 0.1442 0.1717 0.1587 0.1477 0.1371 0.1649
3973.694 0.1208 0.08751 0.09662 0.08157 0.07745 0.10429 0.1415 0.1871
##END=
