##TITLE=4-Methoxycinnamaldehyde
##JCAMP-DX=4.24
##DATA TYPE=INFRARED SPECTRUM
##ORIGIN=EPA-IR VAPOR PHASE LIBRARY
##OWNER=SRD/NIST
Collection (C) 2018 copyright by the U.S. Secretary of Commerce
on behalf of the United States of America. All rights reserved.
##CAS REGISTRY NO=1963-36-6
##MOLFORM=C 10 H 10 O 2
##$NIST SOURCE=MSDC-IR
##STATE=gas
##XUNITS=1/CM
##YUNITS=ABSORBANCE
##XFACTOR=1.
##YFACTOR=0.001
##DELTAX=1.92934
##FIRSTX=549.9
##LASTX=3999.5
##FIRSTY=34.53
##MAXX=3999.53
##MINX=549.863
##MAXY=0.69357
##MINY=0
##NPOINTS=1789
##XYDATA=(X++(Y..Y))
549.863 34.53 35.03 35.46 35.81 36.5 37.16 37.08 36.18 34.85 33.31
569.156 31.28 29.23 28.16 28.39 29.17 29.69 30.04 30.28 29.6 27.88
588.450 25.61 22.94 20.31 17.95 15.86 14.1 12.61 11.31 10.1 9.23
607.743 8.59 8.02 7.55 7.05 6.69 6.46 6.24 6.01 5.87 6.01
627.037 6.07 6.06 6.33 6.69 7.17 7.35 7.36 7.51 7.3 6.91
646.330 6.42 5.86 5.4186 5.0809 4.858 4.724 4.6973 4.7746 4.8077 4.9259
665.624 5.2036 5.6 6.14 6.89 7.73 8.19 8.35 8.44 8.28 7.67
684.917 6.83 5.99 5.2759 4.754 4.4891 4.31 4.196 4.168 4.151 4.236
704.210 4.263 4.236 4.346 4.435 4.5074 4.64451 4.687 4.6808 4.64427 4.58876
723.504 4.58185 4.58832 4.5389 4.4806 4.468 4.5462 4.64763 4.803 5.037 5.267
742.797 5.59 6.1 6.8 7.65 8.68 9.88 11.24 12.82 14.34 15.58
762.091 16.34 16.59 16.46 15.95 15.2 14.52 14.43 15.22 16.72 18.92
781.384 21.76 24.89 28.06 31.06 34 37.01 39.86 42.51 45.2 47.99
800.678 50.59 53.04 55.4 57.5 59.23 60.49 60.71 59.48 57.61 55.05
819.971 51.37 47.52 43.98 40.52 37.34 34.62 32.39 30.78 30.01 29.88
839.264 30.14 30.78 31.89 33.3 34.8 35.87 35.38 33.53 31.47 29.22
858.558 26.5 23.53 20.58 17.91 15.57 13.73 12.28 11.19 10.47 10.11
877.851 10 10 10.12 10.21 10.2 10.17 9.99 9.67 9.36 9.09
897.145 8.83 8.55 8.42 8.33 8.37 8.53 8.71 9.04 9.43 9.92
916.438 10.45 10.98 11.6 12.27 12.9 13.49 14.08 14.69 15.3 15.85
935.732 16.38 17.1 18.1 19.52 21.42 23.88 27.09 31.08 36.02 42.02
955.025 49.12 57.14 66 75.24 83.69 90.61 96 99.23 97.89 91.11
974.318 82.48 74.59 67.48 61.05 55.08 49.59 44.78 40.77 37.54 34.96
993.612 32.96 31.51 30.52 29.84 29.61 29.79 30.28 31.23 32.55 34.38
1012.905 37.02 40.47 44.89 50.44 57.2 65.24 74.45 84.55 95.01 105.18
1032.199 114.32 121.55 126.03 127.19 124.79 118.94 110.11 99.29 87.71 76.12
1051.492 64.92 55.06 47.29 41.57 37.51 34.6 32.48 31.21 30.72 31
1070.786 32.07 33.82 36.54 40.55 45.98 53.14 62.28 73.79 87.83 104.26
1090.079 122.82 142.46 161.5 178.08 190.85 199.01 202.67 203.15 202.42 202.61
1109.372 205.87 213.74 225.54 238.11 247.33 249.36 242.37 226.42 202.26 171.55
1128.666 138.44 108.59 84.69 66.64 53.66 44.29 37.73 33.45 30.65 29.06
1147.959 28.41 28.33 29.11 30.88 33.63 38.33 46.09 58.75 79.36 110.94
1167.253 152.16 192.36 216.87 224.09 223.5 214.06 185.91 143.12 103.61 77.49
1186.546 62.61 53.91 48.61 45.65 44.19 43.26 42.68 42.12 41.33 40.67
1205.840 40.28 40.28 40.59 41.99 44.45 47.37 51.18 55.95 61.7 68.81
1225.133 77.44 87.72 100.09 115.24 133.78 156.58 184.38 216.81 252.58 290.24
1244.426 328.33 366.15 402.47 433.37 453.78 460.88 453.15 430.04 393.28 345.37
1263.720 289.88 234.3 187.92 155.58 135.78 124.41 118.1 115.26 115.1 117.06
1283.013 121.04 126.86 133.68 140.59 146.34 149.62 150.38 148.72 143.87 135.31
1302.307 123.96 112.11 100.89 89.98 79.45 70.18 63.15 58.38 54.99 52.28
1321.600 49.7 46.8 43.61 40.31 36.91 33.64 30.58 27.84 25.47 23.42
1340.894 21.58 19.91 18.43 17.08 15.91 14.91 14.1 13.42 12.8 12.31
1360.187 11.9 11.52 11.15 10.85 10.59 10.36 10.24 10.28 10.46 10.76
1379.480 11.22 11.76 12.34 12.94 13.55 14.3 15.29 16.31 16.97 17.17
1398.774 17.35 17.91 18.44 18.87 19.77 21.53 24.23 27.94 32.45 37.25
1418.067 41.6 44.83 46.08 45.34 43.2 40 35.78 31.87 29.91 30.3
1437.361 32.76 36.47 40.54 43.66 45.11 45.65 46.02 45.53 43.99 42.97
1456.654 43.76 46.46 50.35 54.76 58.87 61.67 62.26 61.22 59.37 56.63
1475.948 52.77 48.57 45.27 43.22 42.58 43.28 45.45 49.32 55.49 64.26
1495.241 76.92 95.2 119.85 152.57 193.38 238.92 285.6 320.81 335.19 329.85
1514.534 308.53 271.64 221.29 167.85 120.66 90.03 70.47 57.95 49.48 43.38
1533.828 38.55 34.65 31.67 29.22 27.27 25.9 25.03 24.63 24.7 25.15
1553.121 26.08 27.63 29.82 32.98 37.05 41.92 47.9 54.64 61.62 68.27
1572.415 73.71 77.77 80.92 83.62 86.55 90.98 98.5 110.92 128.99 152.82
1591.708 182.13 216.54 254.87 294.78 332.53 363.91 384.68 392 384.68 363.02
1611.002 330.2 290.78 251.5 215.45 187.69 169.86 159.83 155.76 153.94 151.01
1630.295 144.83 134.96 121.15 103.11 84.32 67.79 55.14 47.11 42.38 39.75
1649.588 38.54 38.35 38.89 39.88 41.38 43.38 45.54 47.85 50.12 52.33
1668.882 54.78 57.32 60.19 63.64 68.13 73.47 80.38 88.7 99.96 114.11
1688.175 131.72 155.12 185.87 225.36 281.45 354.48 444.43 555.35 644.04 692.82
1707.469 693.57 667.76 613.14 510.41 373.98 249.43 161.71 111.89 82.23 63.33
1726.762 50.46 41.24 34.59 29.92 26.35 23.79 22.27 21.25 20.6 20.2
1746.056 20.02 19.87 19.63 19.21 18.57 17.73 16.84 15.94 14.98 14.09
1765.349 13.4 12.88 12.47 12.14 11.93 11.8 11.72 11.56 11.44 11.35
1784.642 11.23 11.1 11.01 10.91 10.76 10.62 10.42 10.15 9.85 9.46
1803.936 9.07 8.68 8.34 8.05 7.8 7.59 7.38 7.18 6.99 6.79
1823.229 6.6 6.4 6.28 6.15 6.06 6.04 6.07 6.13 6.2 6.31
1842.523 6.43 6.55 6.73 6.94 7.13 7.29 7.45 7.61 7.78 7.9
1861.816 8.04 8.18 8.24 8.32 8.45 8.59 8.72 8.86 9.01 9.09
1881.110 9.11 9.1 8.98 8.8 8.7 8.56 8.24 7.9 7.65 7.39
1900.403 7.14 6.92 6.73 6.65 6.61 6.51 6.44 6.46 6.53 6.64
1919.696 6.82 7.09 7.34 7.6 7.95 8.22 8.41 8.52 8.53 8.39
1938.990 8.16 7.89 7.51 7.13 6.83 6.61 6.46 6.44 6.45 6.44
1958.283 6.48 6.5 6.52 6.53 6.54 6.51 6.53 6.63 6.7 6.76
1977.577 6.85 6.93 7.05 7.23 7.32 7.36 7.39 7.43 7.45 7.52
1996.870 7.61 7.73 7.94 8.15 8.42 8.8 9.2 9.58 9.98 10.38
2016.164 10.7 10.86 10.84 10.66 10.36 9.93 9.44 8.98 8.63 8.34
2035.457 8.14 8.07 8.04 8.12 8.23 8.31 8.46 8.64 8.77 8.92
2054.750 9.07 9.2 9.3 9.36 9.37 9.28 9.12 8.94 8.77 8.53
2074.044 8.18 7.86 7.53 7.17 6.83 6.46 6.13 5.86 5.61 5.3471
2093.337 5.1579 5.0647 4.9236 4.733 4.6294 4.5183 4.336 4.189 4.07 3.939
2112.631 3.819 3.72 3.622 3.52 3.44 3.38 3.32 3.27 3.24 3.23
2131.924 3.24 3.24 3.25 3.29 3.32 3.36 3.4 3.44 3.49 3.5
2151.218 3.5 3.48 3.49 3.5 3.51 3.55 3.55 3.602 3.628 3.684
2170.511 3.788 3.884 3.988 4.095 4.292 4.454 4.55788 4.7577 4.9473 5.1036
2189.804 5.2795 5.4603 5.62 5.79 5.95 6.09 6.22 6.35 6.46 6.5
2209.098 6.59 6.66 6.66 6.6 6.5 6.39 6.22 6.01 5.81 5.61
2228.391 5.412 5.258 5.1049 4.9788 4.8726 4.746 4.64311 4.5487 4.425 4.294
2247.685 4.208 4.174 4.163 4.153 4.135 4.136 4.245 4.346 4.435 4.55337
2266.978 4.6952 4.8618 4.9412 5.0311 5.0973 5.0957 5.0761 5.043 4.98 4.8844
2286.272 4.819 4.7555 4.64857 4.59502 4.5221 4.382 4.261 4.11 3.927 3.794
2305.565 3.624 3.44 3.31 3.17 3.08 3.02 2.94 2.9 2.93 2.9
2324.858 2.86 2.89 2.9 2.88 2.93 2.98 2.95 2.97 3.1 3.23
2344.152 3.34 3.43 3.53 3.625 3.673 3.67 3.697 3.731 3.689 3.724
2363.445 3.765 3.742 3.708 3.669 3.621 3.51 3.4 3.34 3.31 3.27
2382.739 3.23 3.23 3.22 3.19 3.18 3.18 3.21 3.26 3.27 3.29
2402.032 3.32 3.36 3.48 3.572 3.607 3.677 3.794 3.89 3.948 4.006
2421.326 4.053 4.071 4.087 4.111 4.08 4 3.97 3.942 3.911 3.922
2440.619 3.904 3.91 3.983 4.044 4.127 4.257 4.384 4.4771 4.5197 4.56024
2459.912 4.58676 4.61102 4.65879 4.65184 4.60717 4.61808 4.6714 4.6861 4.6797 4.6707
2479.206 4.7039 4.7956 4.8438 4.8614 4.8843 4.9247 5.0183 5.0624 5.1423 5.2335
2498.499 5.2914 5.373 5.4979 5.5561 5.61 5.77 5.88 5.9 5.91 5.92
2517.793 5.97 6.03 6.02 6.08 6.12 6.19 6.3 6.42 6.64 6.94
2537.086 7.26 7.61 7.98 8.32 8.65 8.95 9.2 9.39 9.51 9.57
2556.380 9.48 9.31 9.07 8.74 8.36 7.99 7.61 7.17 6.85 6.61
2575.673 6.38 6.25 6.18 6.08 6 5.88 5.8 5.79 5.75 5.68
2594.966 5.6 5.64 5.68 5.67 5.75 5.85 5.92 5.97 5.98 6.01
2614.260 6.1 6.23 6.34 6.47 6.58 6.68 6.76 6.78 6.84 6.88
2633.553 6.85 6.83 6.74 6.65 6.62 6.6 6.54 6.45 6.39 6.4
2652.847 6.45 6.49 6.58 6.76 7.07 7.48 7.94 8.57 9.36 10.27
2672.140 11.34 12.59 13.98 15.55 17.3 19.09 20.9 22.77 24.74 26.77
2691.434 28.8 30.76 32.38 33.7 34.89 36.04 37.09 37.95 38.83 40.02
2710.727 41.62 43.68 46.14 49.05 52.19 55.15 57.78 60.12 62.04 63.46
2730.020 64.44 65.09 65.24 64.32 62.04 58.67 54.51 49.79 44.48 38.88
2749.314 33.69 29.4 26.17 23.75 21.97 20.77 19.98 19.46 19.15 19.21
2768.607 19.62 20.15 20.95 22.04 23.4 25.14 27.27 29.73 32.6 35.89
2787.901 39.5 43.29 46.98 50.37 53.32 55.62 57.27 58.31 58.62 58.34
2807.194 57.75 57.04 56.32 55.77 55.66 55.92 56.48 57.25 57.8 57.72
2826.488 56.8 55.15 53.12 50.8 48.53 46.97 46.77 48.39 51.17 53.69
2845.781 54.77 54.38 52.82 49.72 44.75 38.78 33.27 28.89 25.58 23.03
2865.074 21.09 19.73 18.72 17.83 17.15 16.74 16.57 16.45 16.34 16.47
2884.368 16.78 17.1 17.5 18.1 18.76 19.54 20.49 21.58 22.9 24.35
2903.661 25.92 27.65 29.53 31.28 32.95 34.34 35.25 35.81 36.01 35.85
2922.955 35.57 35.48 35.69 36.26 37.34 38.95 41.32 44.52 48.26 52.09
2942.248 55.42 57.82 59.21 59.72 59.49 58.45 56.78 55.21 53.84 52.49
2961.542 51.3 49.9 48.09 45.89 43.5 41.42 39.77 38.36 37.12 36.41
2980.835 36.1 36.14 36.68 37.4 38.18 38.9 39.6 40.35 41.27 42.41
3000.128 43.95 46.25 49.55 53.65 57.91 61.02 61.82 60.24 57.37 53.38
3019.422 47.81 41.73 36.76 33.78 32.55 32.58 33.51 34.96 36.74 38.29
3038.715 39.34 39.98 39.77 38.71 37.08 34.94 32.76 30.4 28.11 26.28
3058.009 24.42 22.7 21.36 20.34 19.74 19.69 20.07 20.62 21.09 21.52
3077.302 21.62 21.33 20.9 20.22 19.25 18.32 17.66 17.3 17.02 16.67
3096.596 16.38 15.93 15.28 14.74 14.12 13.32 12.43 11.55 10.65 9.77
3115.889 9.05 8.36 7.74 7.24 6.75 6.3 5.87 5.3663 4.8523 4.428
3135.182 4.106 3.756 3.42 3.18 2.92 2.66 2.55 2.52 2.45 2.36
3154.476 2.11 1.96 1.98 1.9 1.67 1.47 1.47 1.51 1.47 1.35
3173.769 1.35 1.45 1.59 1.54 1.45 1.32 1.34 1.5 1.49 1.54
3193.063 1.52 1.52 1.62 1.61 1.63 1.72 1.73 1.74 1.8 1.83
3212.356 1.65 1.51 1.6 1.48 1.43 1.5 1.33 1.11 0.96 0.83
3231.650 0.86 0.86 0.76 0.62 0.6 0.61 0.56 0.44 0.34 0.26
3250.943 0.2 0.22 0.05 0 0.08 0.24 0.33 0.25 0.12 0.06
3270.236 0.17 0.34 0.37 0.31 0.27 0.34 0.38 0.28 0.28 0.24
3289.530 0.22 0.24 0.32 0.42 0.45 0.58 0.74 0.65 0.59 0.75
3308.823 0.77 0.73 0.91 0.89 0.8 0.86 0.98 1.1 1.13 1.02
3328.117 1.14 1.39 1.4 1.44 1.43 1.41 1.37 1.35 1.33 1.32
3347.410 1.3 1.27 1.36 1.49 1.67 1.81 1.9 2.05 2.37 2.49
3366.704 2.64 3.03 3.29 3.621 4.202 4.8402 5.4811 6.15 6.92 7.71
3385.997 8.42 9.15 9.56 9.69 9.62 9.26 8.88 8.26 7.28 6.48
3405.290 5.88 5.1618 4.4895 4.087 3.48 2.83 2.49 2.14 1.8 1.59
3424.584 1.49 1.32 1.17 1.23 1.24 1.21 1.14 1 0.92 0.84
3443.877 0.83 0.89 1.02 1.05 1.09 0.99 0.81 0.69 0.72 0.86
3463.171 0.89 1.03 0.98 0.96 1.06 0.95 1.05 1.02 0.98 1.09
3482.464 1.08 1.09 1.08 1.08 1.02 0.9 1.01 1.09 1.05 1.11
3501.758 1.13 1.06 0.98 0.96 1 0.89 0.81 0.89 1.07 1.13
3521.051 1.04 1.01 0.96 1.04 1.13 1.03 1.01 1.12 1.17 1.12
3540.344 1.07 1.16 1.12 1.14 1.37 1.45 1.27 1.08 1.22 1.28
3559.638 1.26 1.28 1.36 1.42 1.33 1.27 1.31 1.51 1.48 1.26
3578.931 1.39 1.54 1.47 1.38 1.33 1.34 1.38 1.39 1.37 1.5
3598.225 1.58 1.53 1.52 1.51 1.43 1.49 1.64 1.63 1.58 1.57
3617.518 1.56 1.52 1.63 1.62 1.58 1.6 1.6 1.74 1.68 1.57
3636.812 1.62 1.61 1.55 1.58 1.64 1.68 1.69 1.7 1.78 1.71
3656.105 1.7 1.82 1.85 1.86 1.84 1.88 1.79 1.81 1.9 1.78
3675.398 1.74 1.87 1.9 1.82 1.98 2.09 2.04 1.96 1.9 1.93
3694.692 2.03 2.05 2.03 2.01 1.97 1.94 1.88 1.91 1.91 1.88
3713.985 1.84 1.78 1.87 1.89 1.91 1.89 1.86 1.96 1.9 1.84
3733.279 1.77 1.82 1.87 1.86 1.93 1.92 1.84 1.79 1.76 1.78
3752.572 1.8 1.76 1.78 1.76 1.78 1.88 1.93 1.98 1.94 1.83
3771.866 1.85 1.92 1.87 1.91 1.95 1.96 2.05 2.09 2.13 2.03
3791.159 1.89 1.96 2.06 2.1 2.04 2.02 2.18 2.24 2.18 2.23
3810.452 2.29 2.33 2.33 2.28 2.21 2.11 2.11 2.21 2.23 2.11
3829.746 2.09 2.11 2.12 2.14 2.11 2.19 2.2 2.14 2.16 2.23
3849.039 2.24 2.13 2.05 1.99 2.04 2.14 2.17 2.21 2.26 2.3
3868.333 2.4 2.5 2.51 2.45 2.49 2.6 2.67 2.59 2.52 2.55
3887.626 2.6 2.57 2.57 2.54 2.42 2.35 2.36 2.43 2.38 2.31
3906.920 2.4 2.41 2.38 2.42 2.34 2.34 2.37 2.44 2.47 2.51
3926.213 2.56 2.49 2.49 2.53 2.46 2.48 2.53 2.47 2.5 2.53
3945.506 2.52 2.55 2.42 2.43 2.59 2.5 2.47 2.54 2.6 2.65
3964.800 2.55 2.54 2.66 2.68 2.57 2.61 2.68 2.6 2.61 2.66
3984.093 2.64 2.59 2.66 2.69 2.69 2.66 2.57 2.63 2.58
##END=
