##TITLE=4,4'-Dihydroxydiphenyl ether
##JCAMP-DX=4.24
##DATA TYPE=INFRARED SPECTRUM
##ORIGIN=NIST Mass Spectrometry Data Center
##OWNER=NIST Standard Reference Data Program
Collection (C) 2018 copyright by the U.S. Secretary of Commerce
on behalf of the United States of America. All rights reserved.
##CAS REGISTRY NO=1965-09-9
##MOLFORM=C 12 H 10 O 3
##$NIST SOURCE=MSDC-IR
##SPECTROMETER/DATA SYSTEM=HP-GC/MS/IRD
##STATE=gas
##XUNITS=1/CM
##YUNITS=ABSORBANCE
##XFACTOR=1.0
##YFACTOR=0.000003900
##DELTAX=4.0
##FIRSTX=550.0
##LASTX=3846.0
##FIRSTY=0.000503
##MAXX=3846
##MINX=550
##MAXY=0.039
##MINY=0
##NPOINTS=825
##XYDATA=(X++(Y..Y))
550.0 129 236 218 240 272 306 315 319 285 246
590.0 231 195 163 136 122 111 99 92 92 108
630.0 132 137 115 99 82 78 87 97 113 100
670.0 84 96 110 113 115 132 143 126 111 109
710.0 102 97 93 95 100 98 94 90 97 127
750.0 141 142 153 162 185 223 291 434 813 1393
790.0 1732 1586 1091 732 665 733 892 1129 1360 1502
830.0 1524 1422 1238 1052 862 680 532 427 389 446
870.0 580 656 585 414 256 176 126 90 80 78
910.0 83 74 61 63 56 56 61 58 45 33
950.0 28 29 42 43 25 23 27 21 23 22
990.0 27 48 73 106 142 157 138 85 62 54
1030.0 57 63 84 105 117 127 125 138 143 159
1070.0 201 258 337 436 564 654 643 577 511 456
1110.0 433 420 414 433 462 513 582 638 736 900
1150.0 1156 1590 2271 3425 5034 6382 6781 6095 4908 3828
1190.0 3043 2648 2572 2683 2917 3255 3804 4777 6102 7143
1230.0 7201 6222 4795 3520 2539 1822 1361 1093 952 876
1270.0 826 792 748 702 654 603 567 558 575 636
1310.0 762 933 1053 1046 919 768 649 539 435 347
1350.0 286 248 217 187 169 156 136 129 125 118
1390.0 133 145 158 193 249 320 401 499 636 796
1430.0 928 958 851 673 496 375 304 283 307 356
1470.0 443 620 987 1702 3040 5271 8033 10000 9801 7510
1510.0 4721 2870 1921 1394 1054 804 599 442 323 254
1550.0 219 193 175 168 167 163 165 165 180 191
1590.0 203 220 234 245 248 244 238 223 214 208
1630.0 188 167 150 141 134 115 102 104 99 97
1670.0 95 89 91 79 81 88 83 73 65 74
1710.0 90 91 87 95 110 109 98 95 90 76
1750.0 70 75 72 63 61 62 63 60 56 52
1790.0 49 52 56 55 58 58 65 66 68 80
1830.0 91 101 106 108 116 131 139 139 138 137
1870.0 131 123 112 105 93 83 80 79 74 65
1910.0 61 62 61 63 63 64 70 72 72 78
1950.0 83 82 83 89 96 95 92 92 79 72
1990.0 72 77 84 89 91 96 92 87 85 85
2030.0 85 85 91 92 92 94 93 93 95 98
2070.0 94 90 85 81 75 69 57 50 54 55
2110.0 51 43 42 45 41 38 33 29 29 26
2150.0 32 35 30 31 32 29 28 29 31 28
2190.0 19 22 29 30 24 23 23 28 31 23
2230.0 21 28 27 30 35 38 44 45 44 39
2270.0 36 29 24 26 23 30 35 30 25 25
2310.0 28 32 29 23 29 35 36 41 37 37
2350.0 43 42 38 36 36 43 56 70 78 82
2390.0 86 93 91 90 101 107 108 115 123 115
2430.0 106 94 77 74 78 75 77 86 88 75
2470.0 67 71 75 73 68 62 60 64 65 57
2510.0 49 47 39 28 25 21 30 42 35 24
2550.0 24 32 35 35 31 26 34 39 32 32
2590.0 30 27 26 25 26 27 26 23 20 20
2630.0 25 33 36 32 27 28 26 22 26 30
2670.0 36 43 37 34 35 29 29 29 27 23
2710.0 25 27 25 20 16 15 13 11 19 27
2750.0 31 31 30 29 29 28 34 36 35 31
2790.0 18 13 13 7 0 5 17 20 17 22
2830.0 19 16 22 15 18 25 25 28 37 33
2870.0 25 27 25 30 35 22 18 31 30 23
2910.0 23 28 36 44 39 30 29 30 25 24
2950.0 26 29 27 35 44 38 49 53 56 64
2990.0 62 77 101 116 156 209 271 342 400 419
3030.0 423 436 465 478 441 371 298 250 224 207
3070.0 201 198 201 185 163 148 127 127 119 105
3110.0 89 86 88 76 70 68 65 58 39 27
3150.0 24 19 31 46 48 45 42 43 42 44
3190.0 34 37 41 33 49 47 38 55 55 46
3230.0 42 42 43 34 33 43 56 58 58 58
3270.0 64 70 52 31 31 39 50 52 51 55
3310.0 60 66 65 53 43 43 56 73 66 70
3350.0 77 62 60 72 83 84 84 79 79 84
3390.0 88 91 99 103 93 88 90 101 104 97
3430.0 107 111 105 100 105 117 116 104 89 90
3470.0 90 100 100 85 97 105 107 104 104 104
3510.0 105 113 109 102 93 97 97 98 95 88
3550.0 90 96 103 104 93 90 91 102 104 98
3590.0 107 109 127 146 150 146 138 170 195 218
3630.0 280 392 560 853 1278 1831 2278 2215 1656 962
3670.0 533 338 230 187 159 148 148 137 119 125
3710.0 118 91 95 104 74 76 84 85 93 89
3750.0 96 103 88 86 101 109 117 120 107 109
3790.0 116 116 120 113 100 95 94 96 112 125
3830.0 119 112 112 109 111
##END=
