##TITLE=3-Methyl-1-phenyl-1-pentyn-3-ol
##JCAMP-DX=4.24
##DATA TYPE=INFRARED SPECTRUM
##ORIGIN=NIST Mass Spectrometry Data Center
##OWNER=NIST Standard Reference Data Program
Collection (C) 2018 copyright by the U.S. Secretary of Commerce
on behalf of the United States of America. All rights reserved.
##CAS REGISTRY NO=1966-65-0
##MOLFORM=C 12 H 14 O
##$NIST SOURCE=MSDC-IR
##SPECTROMETER/DATA SYSTEM=HP-GC/MS/IRD
##STATE=gas
##XUNITS=1/CM
##YUNITS=ABSORBANCE
##XFACTOR=1.0
##YFACTOR=0.000001600
##DELTAX=4.0
##FIRSTX=550.0
##LASTX=3846.0
##FIRSTY=0.001576
##MAXX=3846
##MINX=550
##MAXY=0.016
##MINY=0
##NPOINTS=825
##XYDATA=(X++(Y..Y))
550.0 985 864 888 965 958 937 829 761 657 506
590.0 432 348 255 245 256 240 232 246 223 166
630.0 185 217 243 303 390 550 678 765 931 1150
670.0 1440 1834 2247 2646 3022 3104 2900 2646 2266 1828
710.0 1442 1136 915 820 962 1320 1867 2567 3250 3852
750.0 4555 4876 4311 3609 2979 2181 1441 909 577 400
790.0 326 283 298 331 335 340 263 148 80 57
830.0 36 26 47 60 101 131 117 134 154 173
870.0 217 298 418 569 823 1174 1583 2060 2572 3030
910.0 3409 3687 3846 3794 3415 2764 2078 1528 1100 809
950.0 659 568 538 559 627 759 970 1260 1600 1970
990.0 2327 2578 2686 2686 2585 2478 2415 2401 2433 2422
1030.0 2326 2227 2181 2195 2179 2086 1887 1644 1420 1257
1070.0 1173 1114 1078 1121 1217 1314 1429 1603 1816 2043
1110.0 2303 2604 2924 3251 3591 3876 4009 4024 4074 4144
1150.0 4266 4427 4538 4468 4116 3507 2785 2205 1817 1543
1190.0 1354 1218 1122 1057 1048 1086 1108 1116 1166 1272
1230.0 1373 1459 1577 1746 1938 2094 2197 2246 2265 2300
1270.0 2328 2330 2307 2271 2296 2411 2571 2801 3080 3371
1310.0 3675 3988 4334 4679 4928 5113 5342 5636 5856 5783
1350.0 5332 4624 3913 3387 3077 3003 3058 3066 2889 2490
1390.0 1983 1519 1177 945 811 742 716 742 798 894
1430.0 1022 1186 1356 1489 1594 1663 1693 1696 1674 1633
1470.0 1629 1788 2244 2982 3706 3968 3673 2998 2247 1643
1510.0 1138 780 581 456 383 347 308 287 261 230
1550.0 227 243 278 309 360 423 490 602 778 1073
1590.0 1497 1920 2094 1858 1302 737 357 188 143 110
1630.0 80 78 74 62 71 106 155 203 234 225
1670.0 169 107 70 59 46 24 18 23 21 28
1710.0 35 44 69 97 121 148 164 147 131 129
1750.0 124 112 97 76 62 71 84 92 124 170
1790.0 240 277 256 219 164 139 146 147 132 114
1830.0 93 65 46 50 61 76 98 114 124 151
1870.0 180 193 233 283 295 262 199 126 76 60
1910.0 71 95 118 145 172 194 218 239 256 279
1950.0 314 335 308 238 153 85 44 20 9 9
1990.0 18 16 13 5 0 7 4 3 8 9
2030.0 14 13 19 28 23 28 24 20 22 28
2070.0 34 37 30 19 20 19 21 32 33 21
2110.0 24 25 27 29 25 33 38 33 37 54
2150.0 65 62 64 73 66 69 81 85 88 96
2190.0 111 122 139 162 182 223 265 279 269 249
2230.0 215 189 156 124 112 100 86 76 79 86
2270.0 85 82 94 95 67 48 48 52 61 71
2310.0 99 118 109 99 84 84 97 88 70 62
2350.0 72 72 62 59 51 55 64 64 61 63
2390.0 66 68 67 63 61 63 57 45 50 57
2430.0 47 54 55 48 47 54 55 54 60 62
2470.0 54 48 50 43 38 36 30 38 52 62
2510.0 55 44 41 41 31 24 32 39 38 38
2550.0 34 34 33 39 50 49 45 55 60 61
2590.0 76 76 77 79 69 53 65 77 66 66
2630.0 67 62 59 66 64 60 60 60 64 64
2670.0 55 51 48 50 58 59 65 70 64 62
2710.0 69 69 79 100 122 139 150 153 159 169
2750.0 175 186 191 185 182 179 169 170 173 176
2790.0 189 205 214 227 247 265 287 311 332 361
2830.0 410 462 523 591 684 805 926 1065 1203 1347
2870.0 1524 1708 1899 2121 2353 2481 2467 2336 2158 2050
2910.0 2074 2267 2650 3248 4023 4872 5686 6302 6514 6141
2950.0 5355 4547 4040 4040 4684 6027 7722 9220 10000 9594
2990.0 8300 6474 4661 3262 2298 1740 1457 1371 1407 1533
3030.0 1747 1994 2125 2044 1834 1712 1919 2418 3049 3614
3070.0 3788 3546 3074 2654 2467 2344 2203 1995 1731 1432
3110.0 1112 829 604 454 373 325 312 294 278 276
3150.0 258 244 225 204 188 168 161 160 158 145
3190.0 123 146 152 129 118 121 124 128 134 121
3230.0 112 107 113 107 74 48 47 62 78 60
3270.0 31 40 54 42 43 35 41 59 39 40
3310.0 41 34 51 73 53 44 75 90 75 66
3350.0 83 91 68 62 67 68 74 78 75 61
3390.0 68 79 61 49 38 53 80 51 39 50
3430.0 58 43 40 50 50 54 52 60 67 72
3470.0 67 79 98 88 79 60 40 45 66 83
3510.0 87 76 49 52 60 50 64 63 43 44
3550.0 42 37 27 43 79 47 24 41 47 59
3590.0 73 79 70 73 99 133 197 319 486 734
3630.0 1080 1406 1652 1752 1672 1369 1008 643 367 235
3670.0 173 128 99 89 88 89 81 87 88 68
3710.0 47 53 60 67 60 42 53 79 94 75
3750.0 55 53 63 54 51 33 26 38 31 51
3790.0 51 24 28 35 26 28 32 36 31 23
3830.0 26 33 40 40 54
##END=
