##TITLE=Ethyl pent-4-enoate
##JCAMP-DX=4.24
##DATA TYPE=INFRARED SPECTRUM
##ORIGIN=EPA-IR VAPOR PHASE LIBRARY
##OWNER=SRD/NIST
Collection (C) 2018 copyright by the U.S. Secretary of Commerce
on behalf of the United States of America. All rights reserved.
##CAS REGISTRY NO=1968-40-7
##MOLFORM=C 7 H 12 O 2
##$NIST SOURCE=MSDC-IR
##STATE=gas
##XUNITS=1/CM
##YUNITS=ABSORBANCE
##XFACTOR=1.
##YFACTOR=0.001
##DELTAX=1.92898
##FIRSTX=549.8
##LASTX=4000.7
##FIRSTY=3.414
##MAXX=4000.7
##MINX=549.759
##MAXY=0.219044
##MINY=0
##NPOINTS=1790
##XYDATA=(X++(Y..Y))
549.759 3.414 3.084 3.104 3.454 3.744 3.824 3.794 3.864 4.034 4.204
569.049 4.534 4.534 4.364 4.584 4.834 4.904 5.214 5.274 5.274 5.784
588.339 5.944 5.854 6.034 5.974 5.684 5.644 5.794 5.934 6.014 5.904
607.628 5.874 5.954 5.854 5.914 6.034 5.954 6.084 6.184 6.424 6.934
626.918 7.114 7.294 7.444 7.654 7.924 8.254 8.264 7.854 7.654 7.614
646.208 7.344 6.884 6.724 6.574 6.464 6.224 5.894 5.824 5.694 5.464
665.498 5.374 5.414 5.444 5.404 5.174 5.004 4.924 4.774 4.734 4.794
684.787 4.654 4.584 4.604 4.444 4.074 3.844 3.864 3.784 3.804 3.804
704.077 3.804 3.654 3.254 3.054 3.274 3.334 3.244 3.354 3.224 2.884
723.367 2.844 2.994 2.874 2.724 2.474 2.504 2.694 2.774 2.804 2.814
742.657 2.824 2.664 2.744 2.934 2.854 2.814 2.884 2.944 3.064 3.064
761.947 3.124 3.434 3.684 3.724 3.914 4.004 4.204 4.514 4.544 4.674
781.236 4.844 5.114 5.274 5.354 5.384 5.394 5.624 5.704 5.524 5.584
800.526 5.704 5.934 5.864 5.604 5.744 5.834 5.824 5.654 5.554 5.754
819.816 6.104 6.384 6.344 6.444 6.754 6.974 7.494 8.004 8.454 9.084
839.106 9.774 10.234 10.684 11.424 11.914 12.344 12.794 12.724 12.524 12.594
858.395 12.604 12.274 12.024 11.794 11.384 11.144 10.814 10.564 10.524 10.444
877.685 10.564 10.984 11.384 11.834 12.304 12.834 13.504 14.334 15.114 16.164
896.975 17.534 18.864 20.584 22.634 24.994 27.384 29.894 32.414 34.464 36.284
916.265 37.624 38.214 38.384 37.904 36.674 35.234 33.284 31.074 28.854 26.784
935.555 25.364 24.044 22.794 21.804 20.964 20.074 19.044 18.304 17.564 16.934
954.844 16.594 16.084 15.774 15.624 15.394 15.304 15.374 15.424 15.604 15.974
974.134 16.214 16.794 17.644 18.464 19.514 20.564 21.354 21.924 22.604 23.134
993.424 23.404 23.854 24.124 24.304 24.474 24.584 24.894 25.584 26.624 27.674
1012.714 28.864 30.494 31.994 33.794 36.234 38.334 40.464 43.334 46.224 49.134
1032.003 52.114 54.594 56.624 58.264 59.654 59.914 58.944 57.654 55.724 52.954
1051.293 49.284 45.824 42.734 39.294 36.044 33.534 31.504 29.854 28.884 28.004
1070.583 27.594 27.814 28.294 28.694 29.384 30.664 31.914 33.664 36.274 38.604
1089.873 40.584 42.924 45.474 48.024 50.054 51.604 53.144 54.254 54.334 54.914
1109.163 55.404 54.884 54.934 55.004 55.354 56.154 56.634 57.124 58.504 60.004
1128.452 61.404 62.854 65.304 68.374 71.584 75.704 80.624 86.414 92.534 99.414
1147.742 107.164 115.624 125.544 135.394 143.974 152.554 161.444 170.354 177.884 183.344
1167.032 186.814 188.934 189.264 187.804 184.584 179.434 172.414 164.894 157.294 148.964
1186.322 141.124 133.704 126.914 120.444 114.754 110.054 105.684 101.624 98.204 95.574
1205.611 93.554 91.694 89.844 88.774 88.554 88.284 88.104 88.984 90.394 91.734
1224.901 93.774 96.154 98.264 100.164 102.074 104.064 105.504 106.294 106.904 106.524
1244.191 105.314 103.554 100.774 97.764 94.554 90.854 87.074 83.234 79.564 76.514
1263.481 73.674 70.884 68.614 66.804 64.954 63.304 61.784 60.274 58.574 56.754
1282.771 54.974 52.994 50.964 49.224 47.674 46.194 44.974 44.004 43.124 42.194
1302.060 41.334 40.304 39.174 38.054 36.634 35.154 33.844 32.584 31.574 30.854
1321.350 30.204 29.874 30.074 30.614 31.434 32.604 34.024 35.654 37.454 39.214
1340.640 40.854 42.044 42.564 42.504 41.974 41.114 40.054 38.794 37.534 36.724
1359.930 36.664 37.574 39.264 41.164 42.714 43.674 44.064 44.134 43.934 43.044
1379.219 40.924 37.414 33.114 29.074 25.774 23.304 21.554 20.324 19.504 18.904
1398.509 18.504 18.244 18.094 18.044 18.084 18.284 18.524 18.884 19.374 19.874
1417.799 20.484 21.234 22.114 23.004 23.834 24.664 25.564 26.474 27.294 28.014
1437.089 28.664 29.104 29.224 29.144 28.874 28.484 27.904 27.114 26.214 25.274
1456.378 24.294 23.374 22.674 22.034 21.544 21.114 20.504 19.834 19.124 18.314
1475.668 17.324 16.224 15.154 14.024 12.854 11.794 10.884 10.084 9.404 8.704
1494.958 8.074 7.554 7.014 6.624 6.274 5.814 5.444 5.244 5.114 4.974
1514.248 4.784 4.634 4.594 4.434 4.304 4.394 4.354 4.244 4.244 4.174
1533.538 4.124 4.034 3.894 3.874 3.954 3.934 3.854 3.794 3.824 3.814
1552.827 3.744 3.744 3.664 3.594 3.654 3.674 3.654 3.694 3.704 3.574
1572.117 3.504 3.604 3.644 3.624 3.584 3.554 3.594 3.614 3.704 3.844
1591.407 3.894 3.844 3.794 3.904 3.954 3.984 4.094 4.264 4.544 4.784
1610.697 4.984 5.234 5.554 5.944 6.394 6.994 7.594 8.304 9.064 9.984
1629.986 11.134 12.264 13.434 14.464 15.304 15.834 15.974 15.834 15.364 14.804
1649.276 13.934 12.614 11.114 9.714 8.584 7.864 7.334 6.914 6.734 6.584
1668.566 6.504 6.514 6.474 6.484 6.634 6.754 6.954 7.284 7.584 7.894
1687.856 8.334 8.834 9.384 9.984 10.664 11.444 12.264 13.294 14.384 15.534
1707.146 16.734 18.144 19.764 21.644 23.874 26.464 29.634 33.384 37.964 43.524
1726.435 50.314 58.434 67.964 79.174 92.314 106.734 122.104 138.664 155.304 171.514
1745.725 186.274 198.684 208.264 214.944 218.624 219.044 215.874 209.334 199.064 185.114
1765.015 168.204 149.524 130.394 111.924 94.374 78.894 65.544 54.264 44.994 37.534
1784.305 31.774 27.204 23.504 20.554 18.144 16.164 14.664 13.374 12.174 11.154
1803.594 10.374 9.714 9.104 8.584 8.204 7.864 7.604 7.424 7.314 7.234
1822.884 7.234 7.234 7.214 7.284 7.384 7.394 7.324 7.304 7.184 6.904
1842.174 6.694 6.474 6.084 5.704 5.354 5.024 4.734 4.414 4.214 4.064
1861.464 3.904 3.814 3.714 3.654 3.554 3.444 3.394 3.354 3.364 3.354
1880.754 3.294 3.254 3.314 3.334 3.224 3.194 3.144 3.074 3.104 3.134
1900.043 3.094 3.044 2.984 2.914 2.814 2.734 2.694 2.674 2.644 2.554
1919.333 2.534 2.564 2.534 2.474 2.474 2.514 2.484 2.414 2.434 2.464
1938.623 2.474 2.464 2.454 2.454 2.474 2.484 2.474 2.514 2.474 2.474
1957.913 2.564 2.614 2.624 2.604 2.634 2.634 2.654 2.684 2.664 2.674
1977.202 2.674 2.624 2.584 2.574 2.584 2.554 2.484 2.484 2.454 2.414
1996.492 2.364 2.354 2.474 2.544 2.504 2.484 2.504 2.504 2.484 2.474
2015.782 2.494 2.514 2.444 2.404 2.444 2.494 2.504 2.424 2.394 2.374
2035.072 2.324 2.284 2.284 2.234 2.164 2.114 2.024 1.944 1.954 2.024
2054.362 1.984 1.914 1.884 1.804 1.824 1.844 1.814 1.844 1.794 1.784
2073.651 1.824 1.834 1.884 1.854 1.844 1.914 1.904 1.844 1.804 1.824
2092.941 1.814 1.724 1.734 1.774 1.704 1.604 1.584 1.544 1.504 1.434
2112.231 1.404 1.424 1.344 1.314 1.304 1.374 1.394 1.294 1.244 1.234
2131.521 1.334 1.364 1.294 1.234 1.234 1.234 1.1965 1.1576 1.142 1.1233
2150.810 1.0616 1.0817 1.0765 1.0542 1.0723 1.1105 1.0709 0.985 1.0161 1.0223
2170.100 1.0372 1.0358 1.012 1.0008 0.9342 0.8549 0.8493 0.8908 0.8646 0.9191
2189.390 0.9894 0.942 0.932 0.944 0.9926 1.054 1.0271 0.9843 0.9627 0.9412
2208.680 0.9511 0.9993 1.0415 1.0404 1.0132 1.0094 1.0723 0.9892 0.7951 0.8425
2227.970 0.9585 0.9659 0.9449 0.9503 0.9502 0.9561 1.0083 0.9794 1.0055 0.9706
2247.259 0.9163 0.9939 1.0337 0.9932 0.9712 1.0418 0.9977 0.8987 0.904 0.9581
2266.549 1.0496 1.0844 1.1313 1.1802 1.1287 1.0939 1.0683 1.0216 1.0637 1.1227
2285.839 1.072 0.9959 1.0976 1.1552 1.1162 1.1323 1.0369 0.996 1.028 1.1067
2305.129 1.1312 1.0664 1.1003 1.1719 1.1931 1.1449 1.1192 1.0753 1.1 1.1305
2324.418 1.1042 1.1349 1.2 1.1713 0.9951 1.0306 1.0928 1.0435 0.9865 0.9765
2343.708 0.9571 0.909 1.0181 1.0565 1.0758 1.115 1.0511 1.0219 0.9622 0.9014
2362.998 0.9617 0.9545 0.8842 0.8936 0.926 0.9545 0.9471 0.9547 0.9585 0.9281
2382.288 0.9491 1.0615 1.0922 1.027 1.0334 0.9958 0.9566 0.9561 0.9247 0.9892
2401.578 1.0246 0.9423 0.9319 0.9388 0.8775 0.8345 0.8481 0.9697 0.9949 0.9296
2420.867 0.9621 0.9409 0.8866 1.0016 1.0812 0.9779 0.8951 0.8436 0.8257 0.8915
2440.157 0.9797 0.9881 0.8547 0.7487 0.806 0.796 0.7394 0.8029 0.8971 0.8991
2459.447 0.8983 0.9333 0.8907 0.8869 0.8614 0.7532 0.8032 0.8057 0.7455 0.7873
2478.737 0.801 0.7792 0.6909 0.6644 0.6511 0.6522 0.6746 0.5617 0.6101 0.6359
2498.026 0.5706 0.6173 0.6032 0.6026 0.5983 0.5148 0.4987 0.4212 0.4021 0.4654
2517.316 0.4301 0.4386 0.4379 0.5173 0.5548 0.4732 0.4485 0.4384 0.4631 0.5332
2536.606 0.5851 0.6011 0.5767 0.5472 0.6435 0.7032 0.6471 0.6087 0.5831 0.6102
2555.896 0.614 0.501 0.3639 0.388 0.4289 0.496 0.5709 0.5337 0.5553 0.5242
2575.186 0.4817 0.5492 0.6105 0.5708 0.5338 0.5827 0.6047 0.6167 0.683 0.6635
2594.475 0.568 0.5644 0.496 0.5437 0.6676 0.6787 0.7051 0.6352 0.6306 0.6804
2613.765 0.6765 0.6449 0.7088 0.7575 0.6543 0.7034 0.7086 0.6342 0.6831 0.6627
2633.055 0.584 0.6145 0.6467 0.5549 0.5148 0.4892 0.5345 0.6499 0.6656 0.6764
2652.345 0.6971 0.671 0.6444 0.7047 0.7096 0.636 0.5392 0.6059 0.6653 0.679
2671.634 0.7332 0.7876 0.7203 0.6289 0.7028 0.6974 0.669 0.7343 0.7957 0.796
2690.924 0.7337 0.7161 0.7925 0.7976 0.7655 0.7251 0.7897 0.7927 0.7779 0.8319
2710.214 0.8994 0.9764 0.9597 0.8895 0.9187 1.0441 1.0473 1.067 1.1053 1.0996
2729.504 1.1005 1.0773 1.1106 1.1474 1.1035 1.049 1.0054 1.0735 1.1642 1.1568
2748.794 1.234 1.334 1.404 1.434 1.414 1.514 1.604 1.534 1.514 1.604
2768.083 1.674 1.714 1.764 1.854 1.924 1.914 1.964 2.024 2.034 2.044
2787.373 2.034 2.054 2.064 2.124 2.044 2.014 2.084 2.114 2.144 2.184
2806.663 2.434 2.534 2.604 2.724 2.814 3.054 3.214 3.284 3.414 3.564
2825.953 3.784 4.034 4.284 4.564 4.914 5.224 5.554 5.844 6.084 6.454
2845.242 6.864 7.224 7.684 8.114 8.424 8.834 9.304 9.804 10.174 10.514
2864.532 10.884 11.204 11.664 12.134 12.584 12.994 13.394 14.004 14.614 15.114
2883.822 15.514 15.784 16.104 16.504 16.954 17.414 18.004 18.704 19.394 20.304
2903.112 21.494 22.904 24.354 25.894 27.474 29.144 30.804 32.474 34.204 35.894
2922.401 37.554 39.014 40.544 42.184 43.814 45.534 47.224 48.864 50.284 51.294
2941.691 51.974 52.274 52.124 51.814 51.204 50.304 49.324 48.144 47.114 46.654
2960.981 46.664 47.054 48.104 49.614 51.544 53.954 57.034 60.624 64.374 68.154
2980.271 71.014 72.864 74.044 74.564 74.164 72.594 70.354 67.064 62.784 58.384
2999.561 54.314 50.774 47.514 44.584 41.774 38.884 36.184 33.634 31.084 28.494
3018.850 25.904 23.404 21.194 19.314 17.534 15.944 14.544 13.374 12.444 11.674
3038.140 11.004 10.364 9.814 9.504 9.374 9.304 9.254 9.224 9.204 9.184
3057.430 9.154 9.444 10.094 10.504 10.844 11.374 12.094 12.924 13.704 14.544
3076.720 15.624 17.124 18.824 20.394 21.414 21.594 21.394 20.944 20.294 19.604
3096.009 18.364 16.154 13.694 11.484 9.674 8.374 7.364 6.474 5.774 5.094
3115.299 4.574 4.454 4.254 3.894 3.674 3.404 3.154 3.084 2.884 2.844
3134.589 2.814 2.774 2.674 2.454 2.394 2.424 2.424 2.274 2.204 2.124
3153.879 1.894 1.834 1.994 1.964 1.784 1.844 1.804 1.714 1.574 1.384
3173.169 1.374 1.384 1.274 1.224 1.334 1.264 1.0853 1.133 1.1795 1.1528
3192.458 1.0308 0.9858 0.9679 0.8637 0.9154 0.9034 1.0036 1.0942 0.9156 0.8023
3211.748 0.8428 0.8209 0.7683 0.7586 0.7892 0.7102 0.68 0.7737 0.5897 0.3999
3231.038 0.4725 0.5601 0.6553 0.6419 0.5821 0.594 0.4376 0.3739 0.5701 0.64
3250.328 0.479 0.4629 0.4594 0.3726 0.27711 0.1876 0.3285 0.3503 0.30527 0.3782
3269.617 0.4311 0.483 0.5566 0.5333 0.4333 0.3402 0.3276 0.31641 0.21 0.189
3288.907 0.2632 0.25211 0.29984 0.3546 0.22109 0.23588 0.24696 0.3261 0.3516 0.25396
3308.197 0.3363 0.3958 0.28001 0.1489 0.1569 0.24451 0.32282 0.3763 0.3463 0.3173
3327.487 0.3999 0.31783 0.1939 0.32081 0.4735 0.3669 0.32274 0.3924 0.4293 0.4578
3346.777 0.4015 0.3628 0.4151 0.4793 0.4363 0.28389 0.2007 0.3356 0.3721 0.27705
3366.066 0.31452 0.3506 0.3336 0.324 0.4239 0.4497 0.3304 0.3547 0.3561 0.3691
3385.356 0.421 0.5029 0.4994 0.3857 0.28968 0.27602 0.29196 0.1732 0.2023 0.4347
3404.646 0.4276 0.3699 0.4238 0.31206 0.27458 0.30578 0.3638 0.4864 0.416 0.4247
3423.936 0.4051 0.3903 0.4791 0.5508 0.6955 0.7121 0.6703 0.6485 0.6281 0.6451
3443.225 0.674 0.5682 0.478 0.5585 0.7026 0.8165 0.8716 0.8791 0.9611 1.0941
3462.515 1.1148 1.0921 1.2149 1.534 1.724 1.744 1.874 2.004 2.164 2.314
3481.805 2.354 2.464 2.614 2.554 2.514 2.514 2.524 2.504 2.304 2.134
3501.095 2.004 1.984 1.894 1.664 1.444 1.264 1.2195 1.2041 1.1072 0.978
3520.385 0.9698 0.9817 0.797 0.688 0.8435 0.727 0.647 0.7871 0.7664 0.6318
3539.674 0.5885 0.6203 0.4934 0.3938 0.30815 0.25046 0.31584 0.3375 0.23861 0.22289
3558.964 0.31125 0.3909 0.28042 0.1604 0.27244 0.4326 0.3268 0.087 0.042 0.1352
3578.254 0.089 0.058 0.082 0 0.082 0.096 0.1764 0.224203 0.1688 0.24633
3597.544 0.31249 0.3865 0.3961 0.2722 0.23477 0.21441 0.1259 0.12 0.1886 0.3855
3616.833 0.3756 0.415 0.4289 0.3541 0.30316 0.1667 0.1281 0.091 0.1451 0.26688
3636.123 0.23497 0.21415 0.24061 0.24343 0.25752 0.26718 0.295 0.27501 0.27863 0.26615
3655.413 0.25331 0.1655 0.078 0.27711 0.3365 0.199 0.1618 0.122 0.30223 0.377
3674.703 0.30557 0.3507 0.31104 0.28907 0.25714 0.26447 0.3278 0.30373 0.24189 0.24318
3693.993 0.153 0.1545 0.27444 0.25774 0.26099 0.3654 0.3014 0.27867 0.3777 0.3395
3713.282 0.3695 0.4582 0.5198 0.5463 0.4687 0.4255 0.5217 0.5636 0.4961 0.4346
3732.572 0.4686 0.28758 0.27773 0.3307 0.26174 0.332 0.4 0.3863 0.1407 0.1839
3751.862 0.3891 0.3358 0.25785 0.3396 0.5278 0.5372 0.5181 0.5696 0.5482 0.4325
3771.152 0.3303 0.4368 0.4199 0.3981 0.3532 0.232904 0.29033 0.3252 0.5217 0.5426
3790.441 0.356 0.3702 0.3642 0.3344 0.3805 0.3454 0.27899 0.30195 0.28595 0.28981
3809.731 0.3339 0.3492 0.3014 0.24115 0.3585 0.5121 0.4468 0.3294 0.3955 0.3946
3829.021 0.3322 0.31237 0.3521 0.38 0.4432 0.5008 0.3988 0.29722 0.4088 0.5265
3848.311 0.534 0.5535 0.3887 0.2533 0.324 0.518 0.4034 0.27238 0.3568 0.3415
3867.601 0.3864 0.27986 0.23601 0.1783 0.096 0.3804 0.4094 0.3786 0.6305 0.6015
3886.890 0.4207 0.3896 0.4963 0.6141 0.5662 0.397 0.3902 0.4144 0.29319 0.3658
3906.180 0.5071 0.5806 0.4567 0.5096 0.6514 0.4671 0.3448 0.31496 0.3991 0.447
3925.470 0.5323 0.6352 0.4884 0.3592 0.4604 0.5099 0.3813 0.3797 0.389 0.4909
3944.760 0.4303 0.30817 0.4583 0.4368 0.4414 0.5337 0.5716 0.5114 0.5256 0.5306
3964.049 0.4012 0.6113 0.6895 0.6294 0.5817 0.5583 0.6836 0.6117 0.598 0.6891
3983.339 0.6934 0.7451 0.7705 0.7437 0.6001 0.4856 0.6354 0.7739 0.8033 0.7612
##END=
