##TITLE=2,4-Dichlorophenylacetic acid
##JCAMP-DX=4.24
##DATA TYPE=INFRARED SPECTRUM
##ORIGIN=EPA-IR VAPOR PHASE LIBRARY
##OWNER=SRD/NIST
Collection (C) 2018 copyright by the U.S. Secretary of Commerce
on behalf of the United States of America. All rights reserved.
##CAS REGISTRY NO=19719-28-9
##MOLFORM=C 8 H 6 Cl 2 O 2
##$NIST SOURCE=MSDC-IR
##STATE=gas
##XUNITS=1/CM
##YUNITS=ABSORBANCE
##XFACTOR=1.
##YFACTOR=0.001
##DELTAX=1.92898
##FIRSTX=549.8
##LASTX=4000.7
##FIRSTY=51.917
##MAXX=4000.7
##MINX=549.759
##MAXY=0.410487
##MINY=0
##NPOINTS=1790
##XYDATA=(X++(Y..Y))
549.759 51.917 50.497 48.187 45.097 41.787 38.387 35.057 32.257 30.277 28.867
569.049 28.047 27.797 28.027 28.877 30.297 32.337 34.807 37.537 40.817 44.617
588.339 48.707 53.137 57.707 62.507 67.387 71.707 75.347 78.407 80.567 82.007
607.628 83.247 84.117 84.777 85.607 87.067 88.747 90.387 92.017 92.887 92.577
626.918 91.217 88.877 85.777 82.127 78.207 74.307 70.347 66.657 63.287 59.887
646.208 56.377 53.007 49.937 46.747 43.447 40.337 37.577 35.537 34.087 33.197
665.498 33.087 33.547 34.317 35.297 36.147 36.637 36.867 36.637 35.827 34.557
684.787 32.907 31.087 29.437 27.787 26.137 24.777 23.657 22.617 21.647 20.697
704.077 19.657 18.397 16.967 15.627 14.317 13.157 12.117 11.117 10.367 9.677
723.367 9.097 8.687 8.417 8.327 8.327 8.377 8.437 8.757 9.257 9.797
742.657 10.557 11.547 13.067 15.037 17.477 20.707 24.907 29.997 35.777 42.147
761.947 48.687 55.157 60.867 65.047 67.247 67.577 66.407 63.827 59.937 55.297
781.236 50.497 45.887 41.917 39.047 37.267 36.687 37.577 40.017 44.187 49.847
800.526 56.197 62.767 69.267 75.247 79.097 77.227 70.557 63.037 55.617 48.227
819.816 41.177 35.227 30.777 27.757 26.087 25.577 26.017 27.067 28.817 31.397
839.106 34.747 39.097 44.287 50.457 57.577 64.997 72.527 79.737 85.587 89.667
858.395 92.007 92.497 91.217 88.897 86.877 85.467 79.167 67.717 58.687 51.987
877.685 45.377 38.897 32.917 28.017 24.257 21.517 19.497 17.907 16.707 15.797
896.975 14.797 14.027 13.677 13.177 12.587 12.277 12.187 12.127 12.147 12.357
916.265 12.687 13.357 14.177 14.827 15.457 15.817 15.937 15.847 15.537 14.997
935.555 14.097 13.137 12.337 11.667 11.057 10.647 10.337 9.907 9.657 9.477
954.844 9.167 8.967 8.727 8.587 8.427 8.097 7.947 7.707 7.377 7.047
974.134 6.807 6.647 6.527 6.587 6.557 6.447 6.457 6.387 6.327 6.237
993.424 6.097 6.117 6.017 5.917 5.837 5.777 5.927 6.197 6.357 6.457
1012.714 6.717 6.717 6.947 7.497 7.907 8.137 8.587 9.467 10.407 11.647
1032.003 13.277 15.557 18.417 21.947 26.607 32.407 38.807 45.207 50.537 53.877
1051.293 55.897 57.677 58.677 57.057 53.217 48.907 45.697 44.117 44.087 45.767
1070.583 48.707 52.727 57.607 63.357 70.567 79.077 88.387 99.067 111.967 127.747
1089.873 147.117 169.507 193.897 219.127 244.207 268.557 291.797 311.977 327.757 340.387
1109.163 351.727 363.237 374.177 382.557 385.977 382.247 371.747 355.067 331.517 301.777
1128.452 268.817 238.637 215.277 197.787 184.347 173.207 163.177 154.087 145.337 136.827
1147.742 128.327 119.847 111.557 103.697 95.857 88.587 82.087 76.117 70.947 66.377
1167.032 62.207 58.687 55.707 53.187 51.437 49.887 48.507 47.607 47.197 47.067
1186.322 47.087 47.057 47.087 47.527 48.167 48.437 48.457 48.517 48.497 47.997
1205.611 47.017 46.257 45.317 44.227 43.267 42.407 41.837 41.287 40.507 39.897
1224.901 39.487 38.867 38.217 37.577 36.867 36.197 35.457 34.717 34.247 33.767
1244.191 33.277 32.917 32.627 32.527 32.217 31.937 31.657 31.327 31.017 30.567
1263.481 30.257 30.067 29.897 29.827 29.777 29.727 30.047 30.407 30.537 30.507
1282.771 30.247 29.837 29.357 28.837 28.197 27.467 26.897 26.367 25.797 25.317
1302.060 25.077 24.907 24.777 24.707 24.707 24.827 25.007 25.297 25.737 26.277
1321.350 26.947 27.717 28.517 29.457 30.487 31.617 32.947 34.457 36.177 38.157
1340.640 40.487 43.107 45.947 48.977 52.137 55.377 58.597 61.787 64.967 68.237
1359.930 71.627 74.967 78.107 80.697 82.417 83.157 82.867 81.597 79.347 76.417
1379.219 73.197 69.967 66.747 63.337 59.617 55.697 51.567 47.367 43.187 39.267
1398.509 35.867 33.047 31.057 29.937 29.697 30.397 32.017 34.457 37.367 40.307
1417.799 42.807 44.547 45.287 44.857 43.387 41.187 38.507 35.757 33.227 31.017
1437.089 29.127 27.587 26.467 25.777 25.487 25.577 26.127 27.177 28.857 31.457
1456.378 35.467 41.527 50.277 62.827 79.997 102.117 127.877 154.187 176.437 190.927
1475.668 195.257 189.817 175.147 152.277 124.427 97.347 75.787 61.147 51.937 46.317
1494.958 42.827 40.417 38.497 36.547 34.297 31.727 28.757 25.497 22.267 19.267
1514.248 16.687 14.527 12.747 11.417 10.407 9.657 9.227 9.057 9.017 9.117
1533.538 9.477 10.027 10.767 11.767 13.027 14.587 16.537 18.927 21.597 24.597
1552.827 27.727 30.797 33.517 35.727 37.237 38.027 38.097 37.567 36.587 35.437
1572.117 34.787 35.157 36.987 40.397 45.157 51.027 57.457 63.767 69.127 72.727
1591.407 73.637 71.437 66.487 59.387 50.817 41.757 33.247 26.047 20.587 16.777
1610.697 14.267 12.677 11.607 10.757 10.087 9.497 8.917 8.367 7.847 7.377
1629.986 6.997 6.667 6.397 6.117 5.867 5.697 5.467 5.317 5.197 5.017
1649.276 4.897 4.817 4.777 4.767 4.797 4.887 4.877 4.927 5.127 5.327
1668.566 5.507 5.707 5.937 6.197 6.407 6.627 6.877 7.157 7.457 7.727
1687.856 8.107 8.477 8.827 9.327 9.897 10.427 11.027 11.787 12.617 13.577
1707.146 14.647 15.867 17.207 18.747 20.557 22.587 24.967 27.657 30.697 34.087
1726.435 37.817 41.847 46.137 50.467 55.057 59.947 65.147 70.757 76.637 82.967
1745.725 89.827 97.217 104.997 113.097 121.627 130.747 140.787 151.807 164.417 178.857
1765.015 195.527 215.127 238.087 264.107 293.367 324.217 354.147 380.177 399.417 409.997
1784.305 410.487 400.177 378.597 347.227 309.987 272.397 237.827 206.797 179.777 156.557
1803.594 137.007 120.697 106.897 95.037 84.807 75.847 67.927 60.897 54.677 49.037
1822.884 43.927 39.237 34.967 31.107 27.627 24.567 21.917 19.677 17.777 16.147
1842.174 14.787 13.557 12.427 11.437 10.577 9.847 9.187 8.587 8.057 7.597
1861.464 7.247 7.007 6.807 6.637 6.517 6.497 6.527 6.597 6.727 6.897
1880.754 7.047 7.207 7.307 7.317 7.257 7.137 6.977 6.687 6.327 5.987
1900.043 5.647 5.267 4.967 4.707 4.447 4.257 4.077 3.917 3.847 3.827
1919.333 3.727 3.647 3.577 3.497 3.417 3.347 3.277 3.177 3.107 2.997
1938.623 2.877 2.767 2.687 2.617 2.567 2.507 2.467 2.487 2.467 2.437
1957.913 2.437 2.437 2.487 2.527 2.567 2.667 2.737 2.777 2.837 2.877
1977.202 2.867 2.917 2.957 2.977 3.007 3.027 3.077 3.087 3.007 2.967
1996.492 2.957 2.927 2.857 2.727 2.647 2.587 2.467 2.407 2.357 2.277
2015.782 2.207 2.137 2.057 1.987 1.957 1.947 1.877 1.817 1.787 1.737
2035.072 1.697 1.677 1.617 1.577 1.617 1.597 1.507 1.407 1.367 1.367
2054.362 1.2939 1.2579 1.2736 1.2781 1.2845 1.2891 1.2795 1.2745 1.2809 1.279
2073.651 1.2402 1.2154 1.2315 1.2302 1.1786 1.1389 1.1688 1.1552 1.1348 1.1382
2092.941 1.1396 1.1793 1.2003 1.1786 1.1826 1.2236 1.2282 1.2372 1.2813 1.317
2112.231 1.347 1.357 1.357 1.357 1.367 1.387 1.427 1.437 1.407 1.417
2131.521 1.407 1.307 1.2636 1.2735 1.2375 1.2216 1.2006 1.1585 1.1383 1.1523
2150.810 1.1948 1.1886 1.2201 1.2332 1.2443 1.317 1.307 1.2942 1.307 1.347
2170.100 1.387 1.377 1.377 1.397 1.457 1.467 1.477 1.507 1.517 1.537
2189.390 1.577 1.637 1.687 1.747 1.827 1.867 1.887 1.967 1.997 2.057
2208.680 2.147 2.227 2.267 2.287 2.357 2.427 2.477 2.527 2.567 2.597
2227.970 2.627 2.597 2.527 2.487 2.477 2.417 2.337 2.237 2.147 2.067
2247.259 1.967 1.927 1.877 1.787 1.767 1.737 1.737 1.737 1.697 1.657
2266.549 1.627 1.617 1.637 1.647 1.677 1.657 1.587 1.617 1.677 1.687
2285.839 1.687 1.707 1.757 1.807 1.817 1.777 1.767 1.777 1.787 1.767
2305.129 1.727 1.677 1.657 1.597 1.557 1.587 1.627 1.667 1.717 1.727
2324.418 1.777 1.827 1.827 1.857 1.837 1.857 1.847 1.777 1.767 1.767
2343.708 1.727 1.677 1.647 1.657 1.627 1.607 1.587 1.577 1.577 1.557
2362.998 1.567 1.557 1.537 1.557 1.557 1.507 1.517 1.537 1.507 1.517
2382.288 1.557 1.547 1.547 1.547 1.557 1.567 1.517 1.517 1.577 1.607
2401.578 1.587 1.587 1.617 1.577 1.557 1.557 1.507 1.527 1.597 1.617
2420.867 1.567 1.497 1.507 1.527 1.527 1.537 1.577 1.577 1.477 1.427
2440.157 1.507 1.527 1.497 1.507 1.497 1.507 1.527 1.547 1.527 1.517
2459.447 1.507 1.497 1.537 1.567 1.537 1.517 1.557 1.537 1.467 1.457
2478.737 1.437 1.397 1.377 1.387 1.327 1.2253 1.2188 1.2291 1.2314 1.2011
2498.026 1.1271 1.0821 1.0542 1.0945 1.1285 1.1219 1.1313 1.1057 1.1093 1.1361
2517.316 1.0871 1.0431 1.0585 1.0436 1.0371 1.0782 1.087 1.0657 1.1103 1.1488
2536.606 1.0927 1.0708 1.0411 0.9887 0.9644 0.9094 0.8552 0.8008 0.7714 0.8338
2555.896 0.807 0.7671 0.7718 0.7102 0.7085 0.7144 0.7302 0.7607 0.7421 0.7386
2575.186 0.734 0.69 0.662 0.6983 0.7362 0.7722 0.7624 0.6987 0.6399 0.6789
2594.475 0.7084 0.703 0.7318 0.7622 0.7659 0.8046 0.884 0.8895 0.8936 0.898
2613.765 0.8663 0.8617 0.9067 0.9495 0.9897 1.0627 1.1376 1.1232 1.0918 1.1124
2633.055 1.1616 1.2206 1.2834 1.2705 1.2416 1.2253 1.2262 1.248 1.2156 1.2264
2652.345 1.2664 1.2343 1.2074 1.2575 1.2255 1.2064 1.248 1.2482 1.2821 1.297
2671.634 1.2388 1.1776 1.1584 1.1633 1.1268 1.0902 1.0746 1.037 1.0491 1.045
2690.924 0.9778 0.9302 0.9284 0.9453 0.9227 0.8902 0.9182 0.9316 0.8484 0.8244
2710.214 0.8909 0.9185 0.9015 0.8482 0.8522 0.9145 1.0244 1.049 0.9963 1.0092
2729.504 1.0172 0.9727 0.9596 0.9325 0.8464 0.8058 0.8218 0.7855 0.7268 0.6882
2748.794 0.5914 0.5228 0.5378 0.4595 0.38319 0.4674 0.5143 0.5133 0.4715 0.4464
2768.083 0.4221 0.3903 0.38896 0.4153 0.4599 0.4558 0.4295 0.4144 0.4475 0.4681
2787.373 0.495 0.5311 0.515 0.5313 0.5519 0.5667 0.5392 0.5351 0.622 0.6831
2806.663 0.7188 0.6748 0.6536 0.7342 0.772 0.804 0.8147 0.803 0.8492 0.8942
2825.953 0.9089 0.9057 0.9584 1.0042 0.9919 1.0419 1.1423 1.2343 1.2181 1.1805
2845.242 1.2007 1.1948 1.1938 1.1782 1.2036 1.1667 1.0648 1.0269 0.9467 0.9227
2864.532 0.9651 0.9122 0.905 0.9504 0.9666 0.9562 1.026 1.0528 1.0403 1.0909
2883.822 1.1497 1.2037 1.2644 1.367 1.427 1.387 1.457 1.647 1.727 1.797
2903.112 1.917 1.997 2.167 2.327 2.487 2.757 3.037 3.397 3.817 4.327
2922.401 4.937 5.627 6.467 7.387 8.387 9.437 10.377 11.177 11.737 12.007
2941.691 12.057 11.897 11.547 10.977 10.297 9.657 8.997 8.257 7.617 7.037
2960.981 6.327 5.777 5.407 5.097 4.837 4.577 4.347 4.107 3.967 3.857
2980.271 3.647 3.477 3.357 3.227 3.137 3.127 3.127 3.037 3.007 2.987
2999.561 2.937 2.937 2.947 3.047 3.167 3.157 3.267 3.457 3.607 3.807
3018.850 4.087 4.357 4.577 4.687 4.857 5.107 5.177 5.207 5.127 4.907
3038.140 4.707 4.427 4.157 3.997 3.867 3.827 4.017 4.297 4.557 4.867
3057.430 5.297 5.787 6.337 6.907 7.287 7.437 7.537 7.487 7.257 7.077
3076.720 6.707 6.297 6.007 5.627 5.157 4.737 4.397 4.027 3.487 2.857
3096.009 2.447 2.057 1.767 1.607 1.407 1.367 1.2776 1.1679 1.1787 1.1393
3115.299 1.1035 1.137 1.0909 0.9763 0.9836 0.9907 0.8585 0.7396 0.7292 0.7938
3134.589 0.7846 0.6902 0.6445 0.7366 0.7406 0.6652 0.6328 0.6628 0.7482 0.6697
3153.879 0.586 0.6176 0.6555 0.6083 0.5761 0.6426 0.6459 0.6351 0.5688 0.518
3173.169 0.5154 0.4197 0.301367 0.32765 0.4231 0.4044 0.37175 0.35927 0.2488 0.2596
3192.458 0.2353 0.169 0.2525 0.31838 0.3814 0.32595 0.2754 0.2474 0.152 0.1995
3211.748 0.31545 0.38359 0.4088 0.31083 0.2569 0.2387 0.177 0.2042 0.2682 0.2684
3231.038 0.2549 0.2656 0.32317 0.36395 0.3154 0.278 0.2724 0.2669 0.2443 0.304303
3250.328 0.2817 0.148 0.122 0.084 0.111 0.193 0.2722 0.2376 0.164 0.2115
3269.617 0.2373 0.2045 0.15 0.16 0.1996 0.173 0.107 0.084 0.155 0.2204
3288.907 0.202 0.2504 0.2352 0.2087 0.191 0.13 0.2059 0.2532 0.196 0.189
3308.197 0.136 0.102 0.2176 0.263 0.2664 0.34284 0.2 0.107 0.19 0.137
3327.487 0.185 0.224 0.2494 0.2231 0.122 0.161 0.1977 0.189 0.187 0.103
3346.777 0.071 0.191 0.2583 0.2619 0.2418 0.164 0.134 0.081 0.009 0.058
3366.066 0.093 0.089 0.179 0.34861 0.301458 0.15 0.067 0 0.174 0.2702
3385.356 0.2375 0.2617 0.134 0.132 0.29131 0.29956 0.2182 0.153 0.2095 0.258
3404.646 0.249 0.2841 0.2864 0.305203 0.30838 0.298126 0.34865 0.37475 0.4127 0.4736
3423.936 0.4545 0.5233 0.5753 0.4973 0.4681 0.4207 0.4137 0.482 0.4377 0.36127
3443.225 0.4509 0.4578 0.3465 0.4223 0.4453 0.39692 0.4148 0.4151 0.4091 0.4107
3462.515 0.4148 0.5206 0.6965 0.8023 0.7455 0.7101 0.8233 0.8706 0.8812 0.9763
3481.805 1.0448 1.0685 1.1116 1.1893 1.297 1.347 1.397 1.507 1.667 1.847
3501.095 1.977 2.197 2.427 2.467 2.677 2.987 3.147 3.367 3.677 3.967
3520.385 4.267 4.737 5.137 5.457 5.897 6.437 7.047 7.657 8.377 9.177
3539.674 9.957 10.787 11.697 12.707 13.947 15.517 17.527 20.257 24.217 29.757
3558.964 37.577 48.907 64.927 87.137 115.787 146.997 173.477 190.307 196.997 193.527
3578.254 179.107 153.467 120.857 89.737 65.087 47.277 35.037 26.707 20.977 17.067
3597.544 14.207 12.137 10.677 9.547 8.607 7.777 7.117 6.517 6.037 5.557
3616.833 5.037 4.597 4.197 3.907 3.637 3.497 3.307 3.047 2.897 2.707
3636.123 2.467 2.277 2.177 1.977 1.737 1.487 1.387 1.367 1.2218 1.0808
3655.413 0.9937 0.8344 0.7604 0.7739 0.7822 0.8055 0.8174 0.8467 0.7546 0.7525
3674.703 0.6973 0.6021 0.6247 0.582 0.5789 0.6486 0.6691 0.6572 0.6703 0.7758
3693.993 0.7969 0.7482 0.7653 0.7349 0.7845 0.8091 0.8057 0.7711 0.5878 0.5906
3713.282 0.6268 0.6031 0.6278 0.6126 0.6333 0.5779 0.5794 0.6735 0.5567 0.4937
3732.572 0.4296 0.39101 0.4578 0.4653 0.5017 0.5748 0.5112 0.4479 0.492 0.35215
3751.862 0.4195 0.4973 0.478 0.5527 0.5696 0.522 0.4309 0.4421 0.38016 0.4357
3771.152 0.495 0.4611 0.5432 0.4516 0.39104 0.4193 0.4237 0.496 0.5138 0.452
3790.441 0.4663 0.5607 0.469 0.36558 0.34545 0.32752 0.34187 0.36298 0.30883 0.2407
3809.731 0.29067 0.275 0.29599 0.33965 0.2775 0.2605 0.2648 0.2479 0.2371 0.2235
3829.021 0.2757 0.31079 0.2454 0.162 0.175 0.2629 0.2298 0.144 0.2693 0.35287
3848.311 0.31152 0.38292 0.442 0.39553 0.34676 0.36017 0.4237 0.4744 0.36691 0.2738
3867.601 0.31032 0.34123 0.33873 0.3274 0.32166 0.3645 0.4315 0.4436 0.4834 0.5382
3886.890 0.5818 0.5134 0.39272 0.4188 0.4663 0.5096 0.522 0.454 0.37629 0.29223
3906.180 0.31347 0.38769 0.4356 0.4461 0.38587 0.3983 0.4223 0.33196 0.32491 0.498
3925.470 0.5698 0.5577 0.5687 0.5859 0.6205 0.6189 0.5094 0.4969 0.5906 0.6251
3944.760 0.5802 0.49 0.4313 0.33561 0.35472 0.515 0.524 0.4027 0.4 0.4965
3964.049 0.5343 0.4828 0.36119 0.2845 0.2709 0.2649 0.37038 0.36027 0.306429 0.3225
3983.339 0.31573 0.2612 0.156 0.2509 0.2498 0.176 0.2759 0.2597 0.2091 0.31264
##END=
