##TITLE=2-t-Butylthiophenol
##JCAMP-DX=4.24
##DATA TYPE=INFRARED SPECTRUM
##ORIGIN=EPA-IR VAPOR PHASE LIBRARY
##OWNER=SRD/NIST
Collection (C) 2018 copyright by the U.S. Secretary of Commerce
on behalf of the United States of America. All rights reserved.
##CAS REGISTRY NO=19728-41-7
##MOLFORM=C 10 H 14 S
##$NIST SOURCE=MSDC-IR
##STATE=gas
##XUNITS=1/CM
##YUNITS=ABSORBANCE
##XFACTOR=1.
##YFACTOR=0.001
##DELTAX=1.929
##FIRSTX=549.8
##LASTX=4000.8
##FIRSTY=4.427
##MAXX=4000.75
##MINX=549.766
##MAXY=0.089317
##MINY=0
##NPOINTS=1790
##XYDATA=(X++(Y..Y))
549.766 4.427 4.947 5.967 6.407 6.077 6.347 5.727 4.657 3.877 3.297
569.056 2.887 2.687 2.337 1.997 1.727 1.687 2.027 1.807 1.607 1.637
588.346 1.5266 1.2821 1.267 1.3881 1.3585 1.3279 1.547 1.587 1.1451 1.0473
607.636 1.1945 1.2424 1.1551 1.0771 1.2385 1.1882 1.2662 1.5097 1.4642 1.3941
626.926 1.3644 1.4288 1.4603 1.4299 1.3175 1.587 1.947 1.777 1.707 2.007
646.216 2.317 2.497 2.797 3.187 3.557 3.677 3.797 3.877 3.717 3.617
665.506 3.677 3.397 2.707 2.197 2.027 1.927 1.787 1.747 1.767 1.687
684.796 1.767 1.777 1.817 2.037 2.197 2.247 2.067 2.357 2.957 3.337
704.086 3.647 4.047 4.747 6.087 7.877 9.897 12.277 15.037 18.177 21.447
723.376 24.837 28.657 31.357 31.597 30.517 29.897 30.177 31.307 32.757 33.977
742.666 35.007 36.477 40.887 51.157 56.077 45.447 34.227 29.827 27.027 23.667
761.956 19.227 14.597 10.537 7.447 5.527 4.247 3.347 2.917 2.507 2.377
781.246 2.307 2.117 1.967 1.877 1.957 1.987 1.847 1.877 1.937 1.767
800.536 1.747 1.777 1.857 1.897 1.927 2.147 1.827 1.547 1.987 2.307
819.826 2.547 2.867 3.287 3.567 3.637 3.747 3.767 3.717 3.727 3.697
839.116 3.597 3.547 3.407 3.167 2.887 2.637 2.417 2.107 1.887 1.747
858.406 1.737 1.737 1.557 1.5281 1.537 1.4038 1.4099 1.3729 1.2775 1.3081
877.696 1.4179 1.3781 1.2697 1.3789 1.5032 1.4751 1.4466 1.5348 1.727 1.777
896.986 1.647 1.657 1.807 1.947 2.047 2.237 2.407 2.577 2.677 2.917
916.276 3.347 3.647 3.947 4.237 4.637 4.897 5.047 5.297 5.527 5.717
935.566 5.687 5.497 5.277 4.997 4.557 4.117 3.797 3.387 3.057 2.827
954.856 2.507 2.397 2.307 1.977 1.877 1.897 1.787 1.697 1.607 1.567
974.146 1.4864 1.3955 1.4657 1.517 1.4434 1.4777 1.5013 1.5006 1.5212 1.557
993.436 1.657 1.747 1.877 2.067 2.327 2.517 2.647 2.867 3.167 3.487
1012.726 3.827 3.927 3.977 4.227 4.527 4.797 5.167 5.777 6.477 7.407
1032.016 8.757 10.647 12.967 15.557 18.557 21.777 24.707 26.797 27.777 28.147
1051.306 27.937 26.587 23.917 20.447 16.647 12.957 9.877 7.457 5.627 4.447
1070.596 3.737 3.227 2.887 2.667 2.537 2.297 1.997 1.857 1.897 1.937
1089.886 1.847 1.827 1.867 2.037 2.277 2.467 2.747 3.097 3.377 3.807
1109.176 4.367 4.827 5.327 5.517 5.557 5.697 5.767 5.917 5.717 5.277
1128.467 4.877 4.497 4.317 4.197 4.017 3.707 3.407 3.177 2.877 2.737
1147.757 2.757 2.517 2.307 2.317 2.357 2.377 2.377 2.577 2.827 2.827
1167.047 2.867 3.187 3.537 3.617 3.797 4.267 4.717 4.817 4.897 5.547
1186.337 6.397 7.577 9.357 10.747 10.497 9.597 9.657 10.417 9.717 9.767
1205.627 9.167 7.907 7.537 6.787 6.397 5.947 5.687 5.587 5.267 5.327
1224.917 5.877 6.387 7.147 8.177 9.117 10.437 12.137 13.827 15.207 16.507
1244.207 17.707 18.477 18.627 18.237 17.627 16.587 15.197 13.747 12.317 11.177
1263.497 10.347 9.657 9.217 8.847 8.427 8.147 7.737 7.357 6.997 6.617
1282.787 6.187 5.667 5.207 4.727 4.267 3.817 3.267 2.907 2.677 2.487
1302.077 2.417 2.277 2.147 2.057 2.007 2.017 2.007 1.897 1.797 1.737
1321.367 1.727 1.767 1.737 1.707 1.717 1.727 1.787 1.847 1.997 2.127
1340.657 2.327 2.597 2.947 3.367 3.917 4.677 5.677 7.107 8.907 11.067
1359.947 13.347 15.467 17.207 18.807 20.847 23.087 22.937 19.967 17.267 15.487
1379.237 13.797 12.037 10.457 9.357 8.817 8.837 9.407 10.247 11.077 11.837
1398.527 12.487 12.877 12.977 13.107 13.207 13.037 12.737 12.577 12.747 13.257
1417.817 13.987 14.787 15.497 16.217 16.907 17.447 17.607 17.337 16.897 16.357
1437.107 15.697 15.197 14.837 14.597 14.567 14.827 15.637 16.887 18.487 20.387
1456.397 22.687 25.247 27.557 29.617 31.277 32.417 32.977 33.037 32.477 31.257
1475.687 29.487 27.317 24.797 22.007 19.367 17.047 14.987 13.267 11.667 10.137
1494.977 8.747 7.537 6.527 5.747 5.107 4.527 4.207 3.867 3.477 3.217
1514.267 3.037 2.887 2.737 2.667 2.567 2.387 2.317 2.257 2.117 2.027
1533.557 2.027 1.977 1.977 1.987 1.947 1.967 2.007 2.047 2.117 2.167
1552.847 2.247 2.417 2.567 2.747 2.877 3.047 3.187 3.257 3.517 3.817
1572.137 4.067 4.357 4.737 5.167 5.617 6.027 6.347 6.517 6.577 6.507
1591.427 6.257 5.977 5.537 4.987 4.507 3.937 3.397 2.957 2.577 2.327
1610.717 2.147 1.927 1.777 1.617 1.512 1.496 1.4247 1.3561 1.3171 1.3023
1630.007 1.2759 1.2502 1.2755 1.2657 1.2233 1.2378 1.2757 1.2595 1.2465 1.275
1649.297 1.2608 1.2612 1.357 1.4377 1.4873 1.5335 1.5289 1.5247 1.557 1.567
1668.587 1.637 1.717 1.727 1.787 1.877 1.947 2.047 2.147 2.177 2.197
1687.877 2.257 2.167 2.037 2.007 2.027 1.927 1.787 1.737 1.697 1.577
1707.167 1.4732 1.4887 1.4074 1.3117 1.3549 1.3552 1.2677 1.1909 1.1399 1.1151
1726.457 1.098 1.0535 0.9813 0.9451 0.9758 0.9832 0.9637 0.9737 1.0066 1.0141
1745.747 1.0003 1.0033 1.009 1.0533 1.0819 1.0988 1.0814 1.1099 1.1758 1.2117
1765.037 1.2734 1.3397 1.4336 1.5234 1.647 1.747 1.887 1.997 2.007 2.067
1784.327 2.107 2.097 2.017 1.997 2.007 1.897 1.817 1.727 1.617 1.607
1803.617 1.597 1.587 1.667 1.727 1.787 1.847 1.827 1.817 1.847 1.887
1822.907 1.867 1.787 1.657 1.4995 1.3822 1.3349 1.2021 1.0716 1.0377 0.9922
1842.197 0.9777 0.9613 0.9273 0.9644 1.0095 1.0034 0.9813 1.0432 1.1183 1.1431
1861.487 1.1793 1.2459 1.2767 1.2929 1.2707 1.2645 1.3002 1.3329 1.3792 1.3479
1880.777 1.3878 1.4818 1.537 1.647 1.757 1.897 2.077 2.217 2.317 2.427
1900.067 2.557 2.557 2.507 2.527 2.417 2.287 2.177 2.037 1.857 1.747
1919.357 1.767 1.717 1.697 1.757 1.877 2.027 2.067 2.137 2.207 2.277
1938.647 2.257 2.137 1.977 1.787 1.607 1.4742 1.2754 1.0332 0.8905 0.852
1957.937 0.8084 0.7447 0.6602 0.57456 0.57297 0.546063 0.5007 0.5069 0.4733 0.4587
1977.227 0.4772 0.4848 0.4901 0.4831 0.4838 0.429 0.42 0.394 0.378 0.4387
1996.517 0.4644 0.4939 0.4663 0.4454 0.4523 0.4379 0.4511 0.4797 0.5124 0.4987
2015.807 0.4715 0.467 0.46 0.4483 0.401 0.425 0.423 0.354 0.332 0.381
2035.097 0.415 0.348 0.354 0.399 0.35 0.311 0.329 0.333 0.324 0.338
2054.387 0.358 0.342 0.339 0.343 0.315 0.331 0.352 0.356 0.342 0.314
2073.677 0.344 0.357 0.342 0.327 0.312 0.323 0.334 0.299 0.318 0.342
2092.967 0.339 0.375 0.4395 0.4659 0.4516 0.4603 0.39 0.369 0.411 0.382
2112.257 0.332 0.348 0.381 0.357 0.336 0.363 0.355 0.344 0.385 0.332
2131.547 0.253 0.24 0.227 0.26 0.322 0.288 0.254 0.245 0.241 0.292
2150.837 0.334 0.278 0.26 0.313 0.293 0.306 0.301 0.228 0.221 0.265
2170.127 0.272 0.241 0.238 0.269 0.374 0.384 0.287 0.258 0.248 0.307
2189.417 0.364 0.377 0.39 0.386 0.388 0.391 0.383 0.411 0.4417 0.41
2208.707 0.415 0.427 0.431 0.49 0.4436 0.363 0.312 0.315 0.365 0.337
2227.997 0.33 0.346 0.325 0.368 0.429 0.376 0.306 0.292 0.271 0.268
2247.287 0.277 0.273 0.271 0.254 0.259 0.306 0.306 0.272 0.262 0.217
2266.577 0.199 0.202 0.273 0.322 0.304 0.309 0.303 0.31 0.358 0.417
2285.868 0.415 0.4644 0.55403 0.59066 0.61368 0.59746 0.5063 0.4558 0.5059 0.4902
2305.158 0.4821 0.5091 0.4968 0.4909 0.4466 0.423 0.417 0.391 0.357 0.336
2324.448 0.393 0.387 0.399 0.436 0.392 0.448 0.392 0.376 0.4587 0.4539
2343.738 0.4466 0.43 0.383 0.303 0.282 0.337 0.308 0.205 0.208 0.217
2363.028 0.201 0.246 0.282 0.214 0.184 0.267 0.284 0.268 0.326 0.402
2382.318 0.397 0.379 0.4535 0.449 0.409 0.427 0.42 0.405 0.369 0.337
2401.608 0.365 0.414 0.406 0.401 0.37 0.323 0.299 0.309 0.353 0.334
2420.898 0.312 0.304 0.284 0.279 0.374 0.375 0.278 0.298 0.382 0.426
2440.188 0.426 0.422 0.382 0.338 0.316 0.297 0.298 0.345 0.37 0.369
2459.478 0.359 0.274 0.315 0.4372 0.403 0.315 0.256 0.247 0.228 0.267
2478.768 0.38 0.386 0.383 0.395 0.407 0.436 0.42 0.366 0.333 0.373
2498.058 0.4384 0.39 0.335 0.376 0.35 0.378 0.4 0.385 0.412 0.409
2517.348 0.383 0.373 0.402 0.396 0.332 0.374 0.423 0.369 0.372 0.398
2536.638 0.395 0.405 0.398 0.389 0.394 0.438 0.5121 0.58589 0.6657 0.6398
2555.928 0.59711 0.63609 0.701 0.739 0.6721 0.6773 0.7705 0.8025 0.8174 0.8754
2575.218 0.9714 1.0844 1.2575 1.4977 1.817 2.147 2.417 2.557 2.687 2.737
2594.508 2.687 2.627 2.477 2.307 2.087 1.717 1.4413 1.2554 1.0924 0.9963
2613.798 0.7987 0.6525 0.6659 0.6731 0.6548 0.60385 0.60084 0.6625 0.62738 0.61784
2633.088 0.61662 0.57298 0.6697 0.6725 0.58251 0.539055 0.53448 0.57407 0.56332 0.5268
2652.378 0.4436 0.377 0.4372 0.4617 0.363 0.376 0.434 0.43 0.4978 0.512
2671.668 0.52817 0.5077 0.4542 0.388 0.303 0.38 0.4406 0.4789 0.52986 0.55578
2690.958 0.54969 0.466 0.394 0.433 0.5202 0.53258 0.5546 0.62046 0.651 0.6457
2710.248 0.6877 0.8181 0.9056 0.9615 0.9679 0.9324 1.0059 1.1312 1.2746 1.3846
2729.538 1.3758 1.3413 1.3411 1.236 1.0539 1.0204 1.0134 0.9159 0.8665 0.9382
2748.828 1.0248 1.1338 1.2686 1.2161 1.1583 1.151 1.1635 1.1819 1.1485 1.1263
2768.118 1.093 1.0934 1.1552 1.2243 1.2685 1.2971 1.2476 1.3785 1.4701 1.5035
2787.408 1.677 1.767 1.877 1.927 1.927 1.977 1.977 2.027 2.097 2.097
2806.698 2.177 2.217 2.167 2.147 2.157 2.337 2.427 2.407 2.387 2.517
2825.988 2.757 2.867 2.897 2.927 3.057 3.247 3.457 3.647 3.877 4.067
2845.278 4.337 4.787 5.177 5.517 6.027 6.747 7.657 8.687 9.987 11.397
2864.568 12.967 14.827 16.807 18.797 20.867 23.087 25.037 26.587 27.827 28.657
2883.858 28.917 28.807 28.627 28.397 27.987 27.467 27.037 26.747 26.647 26.827
2903.148 27.307 28.127 29.107 30.267 31.507 32.797 34.097 35.187 36.157 37.007
2922.438 37.947 38.787 39.357 39.817 40.237 40.747 41.177 41.347 41.647 42.167
2941.728 42.807 43.827 45.337 47.347 49.947 53.207 56.957 60.977 65.387 70.217
2961.018 75.127 79.737 83.637 86.767 88.757 89.317 88.557 86.357 82.527 76.347
2980.308 68.097 59.267 51.317 44.927 40.117 36.677 34.087 31.977 30.237 28.607
2999.598 27.007 25.467 23.687 21.547 19.207 17.067 15.297 13.717 12.237 11.037
3018.888 10.117 9.387 8.967 8.527 8.027 7.747 7.427 7.137 7.037 7.017
3038.178 7.167 7.417 7.887 8.707 9.877 11.627 13.727 16.227 19.057 21.767
3057.468 24.337 26.677 28.337 29.037 29.037 28.257 26.627 24.347 21.397 18.197
3076.758 15.257 12.717 10.757 9.217 8.357 8.247 8.397 8.657 9.137 9.717
3096.048 10.097 10.497 10.797 10.827 10.587 10.167 9.587 8.897 8.177 7.357
3115.338 6.547 5.917 5.547 5.337 5.207 5.057 4.937 4.767 4.457 4.257
3134.628 4.047 3.767 3.497 3.107 2.727 2.377 2.257 2.307 2.087 1.787
3153.918 1.737 1.757 1.767 1.827 1.807 1.817 1.887 1.757 1.667 1.687
3173.208 1.667 1.617 1.607 1.657 1.5231 1.2842 1.1808 1.3095 1.3654 1.2703
3192.498 1.2499 1.1585 1.1327 1.0843 1.0596 1.05 1.0445 1.0915 1.0251 1.0998
3211.788 1.1086 0.9176 0.8422 0.8234 0.857 0.8661 0.8125 0.8825 0.9936 1.0149
3231.078 1.0146 1.0164 0.8498 0.7817 0.7814 0.8737 0.9065 0.8414 0.8359 0.7657
3250.368 0.8551 0.754 0.53044 0.533 0.61755 0.693 0.7447 0.6932 0.60002 0.652
3269.658 0.7683 0.7435 0.62018 0.7487 0.7884 0.6721 0.6488 0.6897 0.7864 0.8215
3288.948 0.7454 0.7464 0.7168 0.61399 0.58313 0.4723 0.59063 0.8312 0.8676 0.767
3308.238 0.6693 0.7329 0.7782 0.8012 0.8414 0.8572 0.6502 0.59506 0.796 0.733
3327.528 0.7094 0.60763 0.5187 0.60465 0.7197 0.7623 0.6587 0.53119 0.61114 0.7402
3346.818 0.7728 0.7707 0.8284 0.8417 0.6907 0.6738 0.668 0.55563 0.5976 0.61866
3366.108 0.59496 0.6511 0.62527 0.7464 0.7681 0.61533 0.5143 0.5045 0.62187 0.6905
3385.398 0.7024 0.765 0.7287 0.6732 0.7275 0.58932 0.4702 0.59692 0.545832 0.4752
3404.688 0.59061 0.7631 0.7132 0.5266 0.5188 0.413 0.5257 0.7609 0.59997 0.56694
3423.978 0.6674 0.56598 0.56373 0.57194 0.375 0.301 0.333 0.335 0.418 0.5057
3443.269 0.544957 0.541067 0.53293 0.56578 0.4983 0.391 0.33 0.4748 0.60617 0.454
3462.559 0.47 0.397 0.334 0.451 0.427 0.4876 0.57975 0.58784 0.58666 0.5061
3481.849 0.57463 0.58487 0.4 0.36 0.377 0.4471 0.538837 0.394 0.4401 0.63415
3501.139 0.60817 0.6512 0.6912 0.57135 0.4903 0.497 0.62771 0.6907 0.56766 0.57563
3520.429 0.6838 0.53001 0.323 0.4791 0.56188 0.63265 0.6516 0.476 0.4698 0.5127
3539.719 0.55815 0.53295 0.5161 0.57998 0.4941 0.371 0.4968 0.4575 0.307 0.378
3559.009 0.4634 0.38 0.259 0.382 0.334 0.155 0.146 0.251 0.373 0.368
3578.299 0.2 0.177 0.217 0.246 0.336 0.323 0.347 0.41 0.387 0.31
3597.589 0.188 0.109 0.116 0.204 0.254 0.216 0.193 0.239 0.334 0.351
3616.879 0.333 0.154 0.014 0.167 0.326 0.381 0.305 0.189 0.125 0.163
3636.169 0.243 0.154 0.114 0.048 0.072 0.258 0.195 0.137 0.301 0.318
3655.459 0.249 0.123 0.119 0.241 0.205 0.042 0.022 0.089 0.079 0.174
3674.749 0.319 0.297 0.285 0.363 0.348 0.275 0.288 0.372 0.318 0.26
3694.039 0.24 0.327 0.4405 0.377 0.322 0.354 0.43 0.318 0.174 0.186
3713.329 0.241 0.357 0.244 0.163 0.394 0.424 0.269 0.322 0.41 0.403
3732.619 0.336 0.341 0.362 0.342 0.157 0.089 0.202 0.237 0.211 0.277
3751.909 0.378 0.361 0.326 0.364 0.351 0.236 0.288 0.36 0.4534 0.389
3771.199 0.426 0.425 0.33 0.362 0.346 0.57415 0.7219 0.5562 0.60602 0.63643
3790.489 0.5015 0.4745 0.60186 0.6242 0.4565 0.256 0.186 0.271 0.359 0.4762
3809.779 0.378 0.222 0.13 0.182 0.102 0.071 0.271 0.354 0.43 0.416
3829.069 0.418 0.369 0.242 0.194 0.083 0.144 0.41 0.402 0.228 0.179
3848.359 0.178 0.201 0.282 0.283 0.237 0.19 0.235 0.274 0.192 0.145
3867.649 0.232 0.201 0.222 0.356 0.271 0.421 0.52827 0.397 0.342 0.412
3886.939 0.4944 0.361 0.249 0.321 0.309 0.219 0.227 0.37 0.646 0.5689
3906.229 0.347 0.383 0.4822 0.5058 0.4979 0.492 0.301 0.11 0.038 0.084
3925.519 0.231 0.385 0.217 0.03 0.198 0.235 0.216 0.19 0.134 0.161
3944.809 0.222 0.249 0.075 0 0.21 0.21 0.151 0.241 0.191 0.245
3964.099 0.373 0.205 0.048 0.036 0.174 0.323 0.179 0.178 0.281 0.208
3983.389 0.178 0.239 0.069 0.037 0.069 0.144 0.287 0.286 0.372 0.338
##END=
