##TITLE=n-Decanenitrile
##JCAMP-DX=4.24
##DATA TYPE=INFRARED SPECTRUM
##ORIGIN=EPA-IR VAPOR PHASE LIBRARY
##OWNER=SRD/NIST
Collection (C) 2018 copyright by the U.S. Secretary of Commerce
on behalf of the United States of America. All rights reserved.
##CAS REGISTRY NO=1975-78-6
##MOLFORM=C 10 H 19 N
##$NIST SOURCE=MSDC-IR
##STATE=gas
##XUNITS=1/CM
##YUNITS=ABSORBANCE
##XFACTOR=1.
##YFACTOR=0.001
##DELTAX=3.85796
##FIRSTX=501.5
##LASTX=4000.7
##FIRSTY=0.3181
##MAXX=4000.7
##MINX=501.534
##MAXY=0.13706
##MINY=0.0001207
##NPOINTS=908
##XYDATA=(X++(Y..Y))
501.534 0.3181 0.2888 0.4102 0.3146 0.1888 0.2384 0.2403 0.2813 0.3069 0.3272
540.114 0.4119 0.4409 0.3698 0.3031 0.3762 0.4564 0.4749 0.4661 0.4317 0.3988
578.693 0.267 0.1565 0.2462 0.3277 0.2497 0.1364 0.1207 0.1911 0.2396 0.2421
617.273 0.2161 0.2206 0.2216 0.1916 0.3024 0.3781 0.4306 0.4688 0.355 0.3283
655.852 0.3441 0.3537 0.3621 0.376 0.4005 0.4238 0.5145 0.6384 0.7528 0.8572
694.432 0.9922 1.21 1.48 1.82 2.18 2.49 2.72 2.86 2.85 2.76
733.011 2.64 2.4 2.23 2.09 1.92 1.76 1.65 1.58 1.5 1.42
771.591 1.31 1.21 1.13 1.09 1.02 0.9236 0.8526 0.7896 0.7537 0.7594
810.170 0.8029 0.7999 0.7879 0.775 0.7595 0.8014 0.7918 0.8199 0.857 0.8566
848.750 0.8709 0.834 0.817 0.8282 0.807 0.7803 0.7876 0.8196 0.8228 0.8373
887.330 0.8892 0.9158 0.896 0.8887 0.8815 0.8575 0.8528 0.8808 0.8944 0.8515
925.909 0.8023 0.7706 0.7788 0.8221 0.7988 0.7394 0.7316 0.692 0.6564 0.6968
964.489 0.7388 0.6983 0.6134 0.5503 0.521 0.5381 0.4971 0.4788 0.512 0.5383
1003.068 0.5481 0.5204 0.4861 0.4993 0.5784 0.6126 0.6439 0.672 0.7508 0.818
1041.648 0.7987 0.7749 0.8289 0.7963 0.6875 0.7436 0.7835 0.7405 0.7307 0.7492
1080.227 0.6739 0.5584 0.5501 0.5652 0.5519 0.5851 0.5925 0.5731 0.6801 0.7698
1118.807 0.7663 0.7151 0.64 0.568 0.547 0.5514 0.5185 0.4439 0.4837 0.5825
1157.387 0.6585 0.6684 0.7373 0.8559 0.906 0.9582 0.9484 1.04 1.13 1.15
1195.966 1.24 1.31 1.3 1.33 1.42 1.48 1.55 1.61 1.67 1.69
1234.546 1.73 1.78 1.83 1.95 2.01 2.09 2.22 2.36 2.44 2.44
1273.125 2.45 2.43 2.45 2.52 2.59 2.66 2.77 2.93 3.06 3.14
1311.705 3.22 3.29 3.37 3.45 3.58 3.77 3.99 4.27 4.57 4.83
1350.284 5.02 5.04 4.89 4.66 4.4 4.21 4.13 4.17 4.18 4.05
1388.864 3.73 3.27 2.92 2.74 2.69 2.77 2.96 3.3 3.85 4.66
1427.443 5.86 7.4 8.8 9.75 10.31 10.91 11.96 13.2 14.15 14.38
1466.023 13.65 12.08 10.03 7.94 6.1 4.67 3.63 2.93 2.43 2.07
1504.603 1.81 1.58 1.4 1.26 1.14 1.06 0.9856 0.9178 0.8538 0.7955
1543.182 0.7608 0.7268 0.6929 0.6732 0.6478 0.6176 0.6011 0.5692 0.5538 0.5418
1581.762 0.5178 0.5229 0.5148 0.4922 0.5005 0.5087 0.4991 0.4768 0.468 0.4603
1620.341 0.4419 0.4289 0.4266 0.4447 0.4253 0.3947 0.4126 0.4148 0.3872 0.3941
1658.921 0.4077 0.396 0.389 0.3787 0.377 0.3802 0.3713 0.3682 0.3699 0.3551
1697.500 0.3395 0.3398 0.3485 0.3628 0.3522 0.329 0.3351 0.3375 0.3293 0.3105
1736.080 0.2781 0.2623 0.2799 0.2918 0.2921 0.2891 0.2786 0.2746 0.2721 0.2863
1774.659 0.2973 0.2862 0.2775 0.2797 0.2948 0.2889 0.2644 0.2736 0.2882 0.2969
1813.239 0.3051 0.2864 0.2722 0.2798 0.2849 0.2746 0.2623 0.2658 0.2804 0.2863
1851.819 0.2751 0.2698 0.2716 0.2605 0.2492 0.2417 0.253 0.2716 0.2682 0.2695
1890.398 0.2688 0.2626 0.2654 0.2517 0.2443 0.2507 0.243 0.2382 0.2307 0.2386
1928.978 0.2432 0.2265 0.2309 0.2326 0.2263 0.2352 0.223 0.2178 0.225 0.2332
1967.557 0.2419 0.244 0.2437 0.2486 0.2549 0.2558 0.2627 0.2762 0.2916 0.3058
2006.137 0.323 0.3381 0.366 0.3857 0.3865 0.3985 0.4096 0.4174 0.435 0.4284
2044.716 0.4333 0.4419 0.4154 0.3979 0.387 0.3804 0.3832 0.3778 0.3702 0.3606
2083.296 0.3521 0.341 0.3235 0.3291 0.3376 0.3235 0.3377 0.3677 0.3512 0.3306
2121.875 0.3434 0.3528 0.3507 0.339 0.3303 0.3568 0.3711 0.373 0.3979 0.4025
2160.455 0.3779 0.3901 0.402 0.3949 0.406 0.3902 0.3732 0.3843 0.4054 0.4021
2199.035 0.3907 0.4057 0.4132 0.4262 0.461 0.4805 0.5219 0.5986 0.6747 0.8061
2237.614 1.03 1.31 1.59 1.83 1.88 1.7 1.39 1.09 0.8745 0.7259
2276.194 0.6421 0.5811 0.5452 0.5249 0.5229 0.5129 0.4893 0.4825 0.4685 0.4442
2314.773 0.4382 0.4463 0.4378 0.4429 0.469 0.4654 0.4485 0.4599 0.4598 0.4474
2353.353 0.4347 0.4354 0.4407 0.4408 0.4359 0.4556 0.4634 0.4281 0.4333 0.4466
2391.932 0.4496 0.4474 0.4506 0.4645 0.4741 0.4662 0.4485 0.4588 0.4713 0.4527
2430.512 0.4348 0.4279 0.418 0.413 0.4022 0.402 0.3909 0.3635 0.3861 0.3914
2469.092 0.3673 0.3667 0.3784 0.392 0.4048 0.4134 0.4 0.4001 0.4306 0.4764
2507.671 0.4812 0.471 0.4718 0.4759 0.509 0.5292 0.5547 0.5855 0.579 0.5873
2546.251 0.601 0.592 0.5996 0.6132 0.6483 0.6754 0.6896 0.7131 0.7355 0.7799
2584.830 0.8171 0.822 0.8348 0.8746 0.8973 0.9098 0.9409 0.9816 1.01 1.03
2623.410 1.06 1.09 1.14 1.18 1.21 1.23 1.25 1.31 1.36 1.39
2661.989 1.42 1.47 1.53 1.57 1.6 1.63 1.66 1.65 1.62 1.59
2700.569 1.56 1.54 1.51 1.49 1.48 1.53 1.6 1.61 1.66 1.75
2739.148 1.85 1.92 1.94 1.97 2.03 2.07 2.1 2.14 2.22 2.35
2777.728 2.49 2.64 2.82 3.05 3.29 3.58 3.91 4.23 4.59 5.06
2816.308 5.6 6.26 7.02 7.91 9.06 10.55 12.58 15.61 20.04 26.16
2854.887 33.83 41.8 48.27 51.87 52.03 49.75 46.53 43.08 39.78 36.96
2893.467 35.19 35.32 37.64 42.03 48.65 57.8 70.08 85.75 103.63 120.68
2932.046 132.77 137.06 133.34 123.48 110.65 97.91 87.76 80.81 75.94 70.72
2970.626 62.58 51.65 39.81 29.64 22.48 17.66 14.36 12.02 10.22 8.84
3009.205 7.79 6.88 6.13 5.51 5.02 4.64 4.28 3.93 3.63 3.4
3047.785 3.18 2.94 2.74 2.59 2.48 2.31 2.21 2.14 2.02 1.93
3086.364 1.87 1.79 1.69 1.62 1.58 1.53 1.47 1.4 1.34 1.28
3124.944 1.23 1.19 1.19 1.19 1.17 1.15 1.12 1.11 1.08 1.05
3163.524 1.03 0.9868 0.9477 0.977 1.01 0.9422 0.8779 0.8588 0.8339 0.7869
3202.103 0.7612 0.7215 0.6972 0.6684 0.6634 0.6453 0.5328 0.4849 0.5041 0.5103
3240.683 0.472 0.4185 0.3966 0.4231 0.4696 0.4396 0.3627 0.3584 0.3872 0.3739
3279.262 0.3395 0.3227 0.3443 0.374 0.3538 0.3143 0.3464 0.3532 0.3492 0.3601
3317.842 0.355 0.3409 0.3034 0.2952 0.2837 0.2787 0.299 0.2999 0.2742 0.2357
3356.421 0.276 0.3466 0.3503 0.336 0.3205 0.3061 0.3404 0.349 0.3191 0.2961
3395.001 0.2779 0.2829 0.2485 0.2455 0.2615 0.2555 0.3302 0.3384 0.3083 0.3643
3433.580 0.3162 0.2656 0.2676 0.2495 0.2685 0.2846 0.262 0.2362 0.2339 0.2254
3472.160 0.2704 0.2688 0.2523 0.2323 0.1982 0.2215 0.2306 0.2406 0.2646 0.2612
3510.740 0.2426 0.2231 0.2302 0.2372 0.2456 0.2438 0.2291 0.2599 0.263 0.2592
3549.319 0.2792 0.2745 0.2194 0.214 0.2886 0.3361 0.2888 0.2654 0.2973 0.3217
3587.899 0.334 0.3158 0.3421 0.3488 0.3218 0.287 0.3119 0.3648 0.348 0.3773
3626.478 0.3881 0.3906 0.3601 0.3693 0.4283 0.3793 0.3726 0.4128 0.3923 0.3994
3665.058 0.4154 0.4327 0.4457 0.4007 0.3753 0.3889 0.4209 0.4119 0.384 0.3724
3703.637 0.3899 0.434 0.4019 0.378 0.4122 0.4237 0.383 0.3578 0.3969 0.4094
3742.217 0.4093 0.4183 0.4006 0.3821 0.3732 0.3594 0.372 0.401 0.3996 0.3596
3780.797 0.3732 0.4106 0.3921 0.3809 0.3602 0.3587 0.3787 0.3842 0.3594 0.3338
3819.376 0.3697 0.4055 0.4291 0.4843 0.519 0.4899 0.4177 0.4232 0.4093 0.4118
3857.956 0.4622 0.3901 0.4114 0.4061 0.3459 0.4123 0.4444 0.4559 0.463 0.4666
3896.535 0.5043 0.4469 0.398 0.4412 0.4557 0.4475 0.4718 0.4796 0.5074 0.4812
3935.115 0.4103 0.4328 0.4552 0.4325 0.4371 0.455 0.4442 0.501 0.5353 0.5474
3973.694 0.5579 0.5586 0.5772 0.6242 0.6414 0.607 0.6427 0.641
##END=
