##TITLE=2,3-Dimethyl-2-octene
##JCAMP-DX=4.24
##DATA TYPE=INFRARED SPECTRUM
##ORIGIN=NIST Mass Spectrometry Data Center
##OWNER=NIST Standard Reference Data Program
Collection (C) 2018 copyright by the U.S. Secretary of Commerce
on behalf of the United States of America. All rights reserved.
##CAS REGISTRY NO=19781-18-1
##MOLFORM=C 10 H 20
##$NIST SOURCE=MSDC-IR
##SPECTROMETER/DATA SYSTEM=HP-GC/MS/IRD
##STATE=gas
##XUNITS=1/CM
##YUNITS=ABSORBANCE
##XFACTOR=1.0
##YFACTOR=0.000002500
##DELTAX=4.0
##FIRSTX=550.0
##LASTX=3846.0
##FIRSTY=0.000058
##MAXX=3846
##MINX=550
##MAXY=0.025
##MINY=0
##NPOINTS=825
##XYDATA=(X++(Y..Y))
550.0 23 29 39 49 64 57 42 54 59 54
590.0 39 36 53 40 40 54 44 18 6 10
630.0 8 7 12 44 53 51 39 29 57 64
670.0 73 79 56 59 75 64 68 73 70 72
710.0 91 107 103 130 147 148 160 164 168 153
750.0 135 131 109 103 121 136 139 134 117 105
790.0 97 76 63 70 68 67 70 74 88 88
830.0 82 88 91 97 98 92 93 92 99 111
870.0 113 110 112 104 102 121 124 123 120 108
910.0 106 104 102 114 114 110 124 123 118 122
950.0 136 146 145 159 163 159 154 150 157 155
990.0 141 135 133 136 138 134 130 140 146 129
1030.0 117 112 107 110 120 113 120 131 132 143
1070.0 148 148 143 133 129 136 147 149 158 168
1110.0 169 169 176 197 218 250 309 392 505 635
1150.0 737 761 708 605 462 341 267 234 232 246
1190.0 252 257 259 250 236 218 192 171 165 159
1230.0 148 140 144 142 139 138 144 153 157 165
1270.0 163 166 180 193 198 196 199 207 214 221
1310.0 222 231 246 250 268 299 332 360 379 391
1350.0 400 416 451 516 601 712 823 894 912 866
1390.0 772 660 559 496 463 445 437 443 460 496
1430.0 539 589 659 750 842 944 1027 1097 1128 1101
1470.0 1021 899 767 647 549 478 424 383 356 335
1510.0 314 301 296 288 277 266 249 246 244 231
1550.0 227 227 213 196 183 174 172 164 155 146
1590.0 140 128 111 108 108 107 96 89 82 76
1630.0 76 76 69 65 66 63 64 60 54 56
1670.0 59 56 46 47 36 29 35 39 39 31
1710.0 27 28 28 23 24 21 22 26 25 25
1750.0 29 25 20 23 24 23 17 17 18 20
1790.0 17 14 16 14 9 8 13 16 17 11
1830.0 14 20 17 21 21 15 18 21 17 15
1870.0 15 17 17 12 14 17 22 22 18 15
1910.0 13 12 17 22 13 10 16 17 17 13
1950.0 15 17 14 11 6 2 10 15 14 11
1990.0 10 11 10 11 15 15 16 18 16 18
2030.0 19 22 22 24 26 23 17 18 15 17
2070.0 24 21 17 10 9 12 11 13 20 16
2110.0 9 10 12 12 10 11 12 6 0 7
2150.0 14 10 13 10 10 11 10 11 7 7
2190.0 11 14 9 5 13 16 11 10 17 21
2230.0 9 10 17 12 9 10 13 16 12 10
2270.0 14 15 13 9 15 21 13 9 13 16
2310.0 21 21 23 26 26 25 20 25 30 30
2350.0 23 20 32 37 26 22 26 28 30 26
2390.0 28 35 35 36 35 32 33 30 30 36
2430.0 38 31 35 39 32 32 32 35 37 35
2470.0 32 31 33 32 30 28 26 27 23 25
2510.0 36 38 42 46 40 45 51 48 51 48
2550.0 51 52 40 41 46 39 48 58 59 59
2590.0 57 65 68 65 64 65 75 77 72 79
2630.0 86 90 89 86 91 100 105 108 114 116
2670.0 117 122 120 131 137 134 131 131 140 151
2710.0 161 180 201 225 261 288 310 319 313 305
2750.0 294 277 269 270 275 291 304 310 324 346
2790.0 378 414 445 487 540 601 677 753 847 968
2830.0 1102 1276 1515 1840 2271 2838 3533 4284 4995 5525
2870.0 5813 5873 5747 5478 5179 4938 4807 4861 5102 5543
2910.0 6172 6976 7921 8859 9604 10000 9921 9400 8603 7733
2950.0 6987 6516 6372 6435 6375 5983 5286 4423 3655 3171
2990.0 2922 2783 2708 2620 2501 2363 2194 2023 1860 1691
3030.0 1543 1414 1286 1164 1049 943 846 751 665 590
3070.0 532 487 448 409 372 339 314 296 269 246
3110.0 240 222 197 182 174 171 160 151 149 144
3150.0 136 120 119 122 119 113 104 100 95 91
3190.0 91 87 80 75 71 75 72 53 44 52
3230.0 55 53 60 55 45 49 31 12 17 33
3270.0 36 32 43 42 37 42 34 29 28 31
3310.0 26 24 20 21 34 40 38 40 41 31
3350.0 31 49 58 58 53 40 36 35 36 41
3390.0 43 39 27 31 37 41 39 30 23 34
3430.0 36 30 40 45 29 19 23 34 32 21
3470.0 15 13 19 24 22 31 33 27 21 23
3510.0 23 16 19 7 8 30 35 33 31 32
3550.0 36 31 27 34 35 30 23 23 38 38
3590.0 33 38 35 40 42 36 35 18 14 28
3630.0 33 30 42 40 29 28 25 18 19 30
3670.0 27 16 16 24 30 30 31 42 44 35
3710.0 30 26 25 27 33 38 43 38 33 33
3750.0 36 42 43 47 48 34 30 35 48 53
3790.0 41 33 37 42 43 47 51 64 68 60
3830.0 52 48 53 58 52
##END=
