##TITLE=4-Heptyn-2-ol
##JCAMP-DX=4.24
##DATA TYPE=INFRARED SPECTRUM
##ORIGIN=NIST Mass Spectrometry Data Center
##OWNER=NIST Standard Reference Data Program
Collection (C) 2018 copyright by the U.S. Secretary of Commerce
on behalf of the United States of America. All rights reserved.
##CAS REGISTRY NO=19781-81-8
##MOLFORM=C 7 H 12 O
##$NIST SOURCE=MSDC-IR
##SPECTROMETER/DATA SYSTEM=HP-GC/MS/IRD
##STATE=gas
##XUNITS=1/CM
##YUNITS=ABSORBANCE
##XFACTOR=1.0
##YFACTOR=0.000001500
##DELTAX=4.0
##FIRSTX=550.0
##LASTX=3846.0
##FIRSTY=0.000408
##MAXX=3846
##MINX=550
##MAXY=0.015
##MINY=0
##NPOINTS=825
##XYDATA=(X++(Y..Y))
550.0 272 190 190 185 107 149 200 174 257 271
590.0 219 224 224 172 166 214 175 144 93 86
630.0 122 130 138 101 107 159 165 142 126 138
670.0 161 114 21 30 84 102 77 44 29 59
710.0 31 56 98 65 109 150 136 144 169 153
750.0 108 106 160 157 124 150 163 180 236 251
790.0 232 227 241 286 376 449 455 519 592 600
830.0 531 461 444 382 295 254 229 198 215 235
870.0 225 235 269 295 308 349 356 366 397 475
910.0 642 854 1081 1417 1809 2152 2336 2281 2058 1699
950.0 1331 1029 835 743 683 599 521 459 433 446
990.0 486 520 588 681 765 921 1122 1356 1610 1850
1030.0 2078 2304 2543 2741 2910 3015 3076 3104 3126 3172
1070.0 3242 3364 3594 3919 4248 4549 4751 4757 4571 4266
1110.0 3928 3572 3132 2727 2457 2186 1935 1741 1556 1389
1150.0 1221 1051 918 822 740 693 691 743 813 879
1190.0 1006 1197 1355 1513 1639 1673 1651 1635 1643 1621
1230.0 1581 1618 1721 1839 2008 2222 2366 2403 2395 2372
1270.0 2327 2240 2143 2054 1941 1824 1724 1680 1773 2016
1310.0 2426 2944 3292 3315 3171 2830 2323 2013 1950 1964
1350.0 2040 2108 2161 2248 2371 2556 2781 2968 3103 3145
1390.0 3090 2954 2745 2500 2266 2027 1809 1711 1725 1773
1430.0 1831 1882 1885 1842 1802 1747 1659 1566 1460 1334
1470.0 1201 1055 903 758 640 560 484 411 361 306
1510.0 264 247 222 197 193 199 188 163 141 129
1550.0 115 116 115 99 118 113 92 74 66 68
1590.0 61 61 75 83 65 67 81 79 82 94
1630.0 96 83 77 66 59 68 72 62 64 54
1670.0 47 56 48 34 43 47 36 39 40 38
1710.0 19 2 9 29 29 20 23 26 20 19
1750.0 15 20 51 53 37 31 19 20 17 11
1790.0 19 19 28 27 22 31 29 26 20 13
1830.0 16 31 28 37 58 53 55 61 64 75
1870.0 72 86 89 73 76 50 40 51 53 46
1910.0 44 51 43 35 35 22 9 19 21 32
1950.0 46 38 22 9 16 24 27 33 26 9
1990.0 5 11 15 20 16 14 18 29 36 32
2030.0 45 55 55 45 33 26 21 22 25 18
2070.0 7 17 25 10 0 3 18 22 18 15
2110.0 2 0 3 0 12 28 33 28 28 32
2150.0 23 16 17 22 22 34 48 45 37 33
2190.0 36 36 36 24 16 26 26 23 17 10
2230.0 20 45 52 39 34 24 17 26 21 19
2270.0 35 45 46 40 25 38 48 43 34 27
2310.0 36 44 39 32 32 32 38 36 33 26
2350.0 32 41 21 25 46 43 38 30 33 32
2390.0 36 59 60 47 46 45 44 47 46 43
2430.0 57 60 52 67 74 59 66 61 42 31
2470.0 28 35 39 42 58 63 62 66 64 68
2510.0 64 56 59 54 59 80 87 68 60 73
2550.0 89 90 81 102 111 99 101 108 115 106
2590.0 91 83 79 94 122 125 129 144 158 155
2630.0 168 175 161 172 167 154 148 124 142 169
2670.0 160 157 170 161 144 162 180 180 166 155
2710.0 167 186 196 197 204 230 247 255 265 261
2750.0 266 265 271 283 292 298 278 285 311 330
2790.0 359 373 394 460 488 515 591 653 724 841
2830.0 972 1107 1225 1345 1506 1662 1834 2057 2264 2453
2870.0 2700 2945 3273 3732 4209 4609 4941 5318 5688 6112
2910.0 6625 7045 7375 7616 7754 7856 7989 8125 8116 7815
2950.0 7353 6905 6485 6308 6621 7468 8754 9808 10000 9497
2990.0 8404 6639 4852 3582 2766 2207 1742 1410 1177 962
3030.0 780 650 569 520 471 424 410 392 345 329
3070.0 333 321 273 249 256 246 241 237 214 204
3110.0 222 226 233 261 245 229 226 219 243 239
3150.0 224 214 200 183 172 183 182 155 141 121
3190.0 115 150 143 133 132 109 109 109 122 124
3230.0 81 83 90 64 103 118 65 57 75 89
3270.0 92 78 50 53 80 63 59 94 91 59
3310.0 55 35 38 47 52 83 76 53 65 62
3350.0 49 67 106 111 90 59 39 71 68 36
3390.0 45 62 77 73 57 29 9 36 53 86
3430.0 105 98 96 107 140 149 117 83 40 19
3470.0 65 86 41 36 68 63 71 77 77 72
3510.0 84 106 102 104 112 109 119 143 170 188
3550.0 172 194 207 180 174 180 199 247 291 407
3590.0 625 843 1137 1549 1757 1682 1506 1232 887 655
3630.0 570 611 646 676 769 853 903 884 773 645
3670.0 505 343 243 186 152 123 96 104 92 64
3710.0 37 44 61 57 59 51 43 25 9 24
3750.0 35 47 42 50 67 72 92 66 60 69
3790.0 48 42 31 28 29 16 18 26 38 33
3830.0 20 30 49 30 36
##END=
