##TITLE=4-Ethyl-3-octanol
##JCAMP-DX=4.24
##DATA TYPE=INFRARED SPECTRUM
##ORIGIN=NIST Mass Spectrometry Data Center
##OWNER=NIST Standard Reference Data Program
Collection (C) 2018 copyright by the U.S. Secretary of Commerce
on behalf of the United States of America. All rights reserved.
##CAS REGISTRY NO=19781-26-1
##MOLFORM=C 10 H 22 O
##$NIST SOURCE=MSDC-IR
##SPECTROMETER/DATA SYSTEM=HP-GC/MS/IRD
##STATE=gas
##XUNITS=1/CM
##YUNITS=ABSORBANCE
##XFACTOR=1.0
##YFACTOR=0.000004800
##DELTAX=4.0
##FIRSTX=550.0
##LASTX=3846.0
##FIRSTY=0.000158
##MAXX=3846
##MINX=550
##MAXY=0.048
##MINY=0
##NPOINTS=825
##XYDATA=(X++(Y..Y))
550.0 33 39 48 24 6 20 31 25 38 48
590.0 46 45 43 49 55 62 68 69 62 68
630.0 72 59 55 56 53 55 55 43 32 41
670.0 43 44 52 43 46 51 46 52 59 68
710.0 82 90 100 122 132 139 149 147 139 132
750.0 136 147 158 174 196 225 247 265 283 278
790.0 262 242 228 218 205 188 173 169 180 173
830.0 156 164 169 171 180 191 195 200 216 231
870.0 237 241 244 238 237 246 256 266 289 314
910.0 341 376 417 460 498 537 588 643 718 813
950.0 919 1041 1171 1295 1392 1450 1442 1379 1288 1193
990.0 1117 1058 1016 966 898 826 751 699 673 663
1030.0 667 673 673 669 654 638 630 636 649 672
1070.0 700 729 770 809 834 857 864 847 822 790
1110.0 755 729 715 700 692 695 701 708 708 690
1150.0 643 581 511 451 410 383 370 371 384 411
1190.0 445 482 520 557 602 646 682 709 724 732
1230.0 735 719 701 682 653 632 610 596 588 583
1270.0 579 578 580 589 599 599 601 599 582 558
1310.0 532 514 498 485 480 481 496 515 533 546
1350.0 562 581 606 648 706 792 912 1040 1135 1147
1390.0 1056 899 737 611 522 462 426 404 395 401
1430.0 424 473 554 666 822 1018 1241 1463 1609 1623
1470.0 1502 1269 991 739 547 416 335 281 247 224
1510.0 199 177 163 154 142 131 123 119 114 106
1550.0 99 95 95 90 81 79 82 75 70 66
1590.0 64 66 62 56 55 56 57 54 51 49
1630.0 47 51 51 45 44 49 50 43 36 34
1670.0 33 31 28 25 23 21 20 20 21 19
1710.0 19 18 17 16 13 13 13 11 12 12
1750.0 9 9 7 4 3 4 4 3 5 5
1790.0 0 1 2 1 2 3 4 2 2 2
1830.0 2 2 3 5 4 2 1 2 3 3
1870.0 2 1 1 2 2 1 3 7 7 2
1910.0 3 2 3 4 6 6 5 6 6 3
1950.0 3 1 0 0 1 3 3 3 4 2
1990.0 4 4 2 3 4 3 1 1 5 8
2030.0 6 7 7 4 6 6 7 11 9 6
2070.0 6 5 6 6 5 2 0 2 3 2
2110.0 3 3 5 4 3 5 6 6 5 4
2150.0 3 3 4 5 7 7 6 7 5 5
2190.0 8 9 10 9 7 10 12 10 13 13
2230.0 12 16 17 14 11 14 17 17 16 15
2270.0 18 16 16 17 17 15 15 17 17 17
2310.0 16 20 23 24 25 27 27 31 31 27
2350.0 30 36 35 33 32 35 37 33 33 36
2390.0 37 37 36 38 41 44 43 42 43 40
2430.0 36 33 33 34 36 34 32 28 26 26
2470.0 27 30 27 26 28 30 33 35 35 35
2510.0 37 37 38 40 44 50 50 49 52 57
2550.0 58 59 64 67 71 80 84 85 93 101
2590.0 101 101 108 113 112 112 117 117 119 124
2630.0 128 131 132 132 135 139 144 150 155 159
2670.0 162 166 169 173 172 174 179 184 190 193
2710.0 196 202 210 217 232 246 260 280 291 295
2750.0 291 287 285 286 292 299 314 328 344 365
2790.0 387 411 441 470 499 534 574 624 685 760
2830.0 854 969 1112 1303 1560 1905 2353 2902 3513 4117
2870.0 4677 5195 5628 5860 5821 5519 5062 4660 4473 4537
2910.0 4851 5378 6095 6961 7891 8766 9418 9675 9460 8883
2950.0 8243 7953 8308 9196 10000 9997 8987 7252 5389 3904
2990.0 2889 2213 1752 1429 1201 1036 911 817 741 677
3030.0 620 570 520 481 452 425 402 381 357 338
3070.0 328 319 306 292 278 264 255 246 238 229
3110.0 218 208 196 192 186 175 168 165 161 156
3150.0 149 140 137 136 131 126 119 109 104 100
3190.0 91 85 81 74 68 64 59 55 50 44
3230.0 36 33 33 30 29 25 25 28 25 22
3270.0 22 25 24 19 17 16 14 16 16 14
3310.0 13 13 17 16 10 8 15 20 21 19
3350.0 13 9 11 14 19 22 21 21 24 26
3390.0 26 29 29 22 24 28 29 29 28 24
3430.0 20 24 31 29 23 23 22 23 23 19
3470.0 23 25 25 20 14 17 18 14 18 19
3510.0 14 14 14 10 13 11 11 18 18 14
3550.0 13 14 18 19 13 10 13 18 17 19
3590.0 23 25 27 32 38 48 62 76 93 119
3630.0 150 188 242 309 381 462 523 528 484 399
3670.0 303 222 153 106 88 78 66 53 44 44
3710.0 44 44 42 35 32 35 30 24 29 31
3750.0 28 24 25 27 25 24 26 26 29 29
3790.0 30 33 38 42 39 33 31 32 36 40
3830.0 40 41 43 41 39
##END=
