##TITLE=3-Ethyl-2-methyl-1-heptene
##JCAMP-DX=4.24
##DATA TYPE=INFRARED SPECTRUM
##ORIGIN=NIST Mass Spectrometry Data Center
##OWNER=NIST Standard Reference Data Program
Collection (C) 2018 copyright by the U.S. Secretary of Commerce
on behalf of the United States of America. All rights reserved.
##CAS REGISTRY NO=19780-60-0
##MOLFORM=C 10 H 20
##$NIST SOURCE=MSDC-IR
##SPECTROMETER/DATA SYSTEM=HP-GC/MS/IRD
##STATE=gas
##XUNITS=1/CM
##YUNITS=ABSORBANCE
##XFACTOR=1.0
##YFACTOR=0.000004300
##DELTAX=4.0
##FIRSTX=550.0
##LASTX=3846.0
##FIRSTY=0.000675
##MAXX=3846
##MINX=550
##MAXY=0.043
##MINY=0
##NPOINTS=825
##XYDATA=(X++(Y..Y))
550.0 157 220 255 240 239 210 170 171 147 105
590.0 63 40 39 45 40 30 26 13 20 22
630.0 4 9 25 25 23 17 8 8 9 15
670.0 33 47 51 51 57 76 90 100 113 130
710.0 142 152 150 146 148 152 149 137 140 149
750.0 147 134 128 128 136 143 147 152 155 146
790.0 136 124 114 107 97 98 104 109 105 116
830.0 133 129 121 125 145 166 174 199 246 309
870.0 415 614 1010 1638 2229 2508 2432 1988 1305 758
910.0 477 337 268 241 230 213 202 197 196 189
950.0 185 185 189 185 179 171 157 146 139 136
990.0 131 125 124 128 123 109 99 97 85 76
1030.0 78 81 83 84 77 80 88 87 90 102
1070.0 105 104 105 112 126 141 160 180 183 171
1110.0 152 134 116 97 80 78 86 93 93 84
1150.0 70 60 55 52 49 52 59 68 74 80
1190.0 82 85 89 102 104 104 122 132 141 155
1230.0 164 164 163 162 159 164 167 163 172 186
1270.0 195 205 202 200 204 203 204 203 199 194
1310.0 191 194 204 220 237 262 291 310 326 340
1350.0 352 370 416 503 637 810 991 1117 1142 1050
1390.0 879 694 545 454 405 385 390 404 435 478
1430.0 540 626 746 892 1058 1230 1382 1472 1473 1376
1470.0 1216 1012 792 601 461 363 298 257 229 208
1510.0 186 172 163 153 144 135 132 133 124 117
1550.0 119 121 131 128 125 127 135 143 146 152
1590.0 161 161 165 179 197 214 248 298 367 477
1630.0 611 750 857 894 828 680 498 341 229 156
1670.0 114 90 77 77 72 60 60 58 53 49
1710.0 43 39 35 33 30 30 33 33 30 29
1750.0 32 32 32 41 52 69 94 118 141 156
1790.0 160 142 115 90 68 51 38 30 19 15
1830.0 11 11 16 15 13 13 11 11 10 6
1870.0 6 7 7 5 4 5 4 1 5 6
1910.0 4 4 5 5 1 4 8 10 7 5
1950.0 2 2 3 4 4 3 2 4 4 3
1990.0 3 4 2 3 2 1 4 6 8 9
2030.0 6 6 8 10 17 16 12 10 8 7
2070.0 5 7 11 10 5 5 8 6 4 5
2110.0 7 8 8 4 4 5 3 1 0 2
2150.0 5 8 6 5 6 9 10 5 3 9
2190.0 10 7 9 9 4 4 7 10 12 13
2230.0 11 11 15 15 10 11 10 9 12 15
2270.0 15 16 15 13 17 19 18 14 13 13
2310.0 16 19 20 22 23 21 25 31 29 29
2350.0 28 28 30 30 29 26 26 24 22 29
2390.0 32 31 30 29 28 29 30 27 20 21
2430.0 27 25 23 22 24 22 23 26 26 23
2470.0 22 22 17 20 26 26 26 26 28 30
2510.0 30 33 37 38 35 36 38 39 45 45
2550.0 48 56 53 52 53 53 56 60 59 57
2590.0 61 67 66 66 72 75 73 72 69 70
2630.0 76 81 83 84 85 86 94 104 109 111
2670.0 112 113 110 113 115 113 110 114 120 125
2710.0 133 133 140 158 170 188 204 210 216 216
2750.0 216 208 198 202 209 216 237 251 261 286
2790.0 309 336 363 384 411 442 474 510 554 612
2830.0 687 781 903 1071 1313 1658 2125 2675 3244 3762
2870.0 4167 4470 4648 4641 4460 4146 3790 3552 3525 3728
2910.0 4195 4933 5939 7158 8431 9477 10000 9883 9210 8265
2950.0 7433 7061 7329 8062 8652 8550 7709 6360 4885 3670
2990.0 2823 2246 1830 1524 1289 1116 990 895 824 765
3030.0 714 674 635 614 617 633 669 740 866 1049
3070.0 1246 1380 1408 1311 1105 879 683 520 413 348
3110.0 300 270 255 234 220 203 186 175 173 170
3150.0 157 153 139 129 135 129 119 115 113 111
3190.0 103 97 97 92 76 63 68 67 64 56
3230.0 51 54 55 49 48 48 42 36 34 35
3270.0 34 38 46 43 36 31 28 30 32 26
3310.0 22 26 30 27 28 28 27 33 36 34
3350.0 33 32 23 17 18 24 28 28 31 30
3390.0 24 30 28 25 28 28 30 24 13 13
3430.0 26 27 24 25 22 22 16 15 20 15
3470.0 14 16 15 19 22 16 15 24 17 6
3510.0 12 14 16 13 12 13 8 9 10 17
3550.0 21 10 5 11 11 7 14 18 8 3
3590.0 8 12 11 12 19 19 24 28 28 27
3630.0 26 24 23 21 23 28 28 29 29 26
3670.0 31 31 28 27 23 19 16 18 19 22
3710.0 34 37 28 24 26 24 24 24 34 37
3750.0 26 27 20 20 21 20 26 32 29 20
3790.0 23 31 33 26 23 26 20 20 27 30
3830.0 36 35 29 26 16
##END=
