##TITLE=cis-1,3-Dimethyl-2-methylenecyclohexane
##JCAMP-DX=4.24
##DATA TYPE=INFRARED SPECTRUM
##ORIGIN=NIST Mass Spectrometry Data Center
##OWNER=NIST Standard Reference Data Program
Collection (C) 2018 copyright by the U.S. Secretary of Commerce
on behalf of the United States of America. All rights reserved.
##CAS REGISTRY NO=19781-47-6
##MOLFORM=C 9 H 16
##$NIST SOURCE=MSDC-IR
##SPECTROMETER/DATA SYSTEM=HP-GC/MS/IRD
##STATE=gas
##XUNITS=1/CM
##YUNITS=ABSORBANCE
##XFACTOR=1.0
##YFACTOR=0.000003800
##DELTAX=4.0
##FIRSTX=550.0
##LASTX=3846.0
##FIRSTY=0.000114
##MAXX=3846
##MINX=550
##MAXY=0.038
##MINY=0
##NPOINTS=825
##XYDATA=(X++(Y..Y))
550.0 30 32 34 20 13 42 59 35 13 8
590.0 2 12 22 32 58 108 139 165 206 234
630.0 232 200 176 139 94 75 59 51 45 43
670.0 34 26 18 23 42 44 35 29 28 35
710.0 48 57 55 56 70 76 84 92 89 89
750.0 80 66 54 47 34 20 16 26 31 27
790.0 28 41 47 56 69 75 75 75 85 108
830.0 133 120 94 98 102 106 115 118 137 192
870.0 296 483 741 992 1285 1761 1917 1575 1290 1026
910.0 711 441 264 174 162 182 208 244 268 282
950.0 274 252 220 185 163 150 148 153 155 148
990.0 135 126 117 108 91 65 56 58 61 63
1030.0 62 64 81 110 123 135 143 139 133 105
1070.0 79 70 71 75 90 114 142 173 196 189
1110.0 172 155 121 89 72 65 67 64 72 74
1150.0 69 73 82 81 81 100 131 155 165 175
1190.0 174 149 109 86 83 83 93 113 131 151
1230.0 172 197 206 196 182 171 158 130 101 90
1270.0 81 76 69 70 75 77 86 94 92 96
1310.0 103 109 123 143 157 155 152 154 157 161
1350.0 173 193 225 278 361 460 546 611 635 639
1390.0 587 499 446 409 374 352 329 324 351 405
1430.0 491 597 708 832 994 1109 1197 1321 1268 1071
1470.0 906 745 565 410 283 201 155 124 106 95
1510.0 86 77 70 69 66 60 61 59 54 55
1550.0 59 54 47 42 44 50 51 51 58 69
1590.0 76 89 111 135 162 203 260 337 429 537
1630.0 653 761 833 849 802 714 580 423 276 171
1670.0 114 82 64 59 53 47 43 42 44 48
1710.0 52 52 53 53 54 58 60 56 54 57
1750.0 55 49 46 44 47 54 64 75 92 112
1790.0 117 117 115 102 84 68 51 43 37 24
1830.0 17 18 16 12 13 16 15 14 12 12
1870.0 10 8 11 13 9 8 10 15 13 11
1910.0 11 11 15 9 4 9 8 9 11 5
1950.0 6 9 5 4 5 6 7 3 4 4
1990.0 1 3 5 6 1 3 7 8 9 9
2030.0 10 9 5 9 12 10 8 7 9 11
2070.0 7 2 2 3 3 4 5 4 6 9
2110.0 12 13 7 8 5 4 7 11 6 2
2150.0 3 2 7 11 13 13 5 6 7 5
2190.0 5 7 7 7 8 8 5 2 6 7
2230.0 7 10 7 4 6 8 9 13 18 22
2270.0 23 22 22 21 15 9 9 13 18 19
2310.0 17 17 17 15 16 17 16 14 10 13
2350.0 14 8 8 9 14 22 21 24 25 23
2390.0 25 29 33 30 27 29 33 28 22 23
2430.0 29 27 26 23 20 20 18 17 19 24
2470.0 28 28 26 25 29 32 29 27 30 31
2510.0 28 30 31 30 29 30 31 34 36 41
2550.0 46 48 54 62 62 70 71 68 72 73
2590.0 72 68 69 71 70 72 72 73 74 69
2630.0 69 73 76 79 79 78 83 97 114 123
2670.0 128 130 128 124 117 110 103 100 96 92
2710.0 99 106 112 118 121 122 119 113 105 98
2750.0 91 94 105 110 126 136 140 156 173 188
2790.0 199 205 216 220 225 245 270 298 338 394
2830.0 479 615 851 1255 1859 2567 3181 3857 4336 4101
2870.0 3721 3469 3145 2841 2639 2520 2464 2473 2661 3165
2910.0 4016 5217 6589 7857 9276 10000 9260 8255 7242 6134
2950.0 5205 4672 4505 4864 5305 5135 4724 3962 2981 2128
2990.0 1449 1005 754 618 536 476 435 415 383 340
3030.0 308 285 266 262 262 260 264 280 296 310
3070.0 316 314 324 355 417 541 632 670 663 585
3110.0 499 347 191 115 83 69 59 52 48 49
3150.0 48 48 47 48 58 63 57 59 59 55
3190.0 56 54 60 66 68 76 72 74 77 80
3230.0 77 75 75 64 52 37 31 35 30 31
3270.0 37 33 29 23 11 8 11 18 6 1
3310.0 17 15 9 13 19 27 29 20 14 16
3350.0 15 14 12 5 9 20 21 12 3 2
3390.0 5 8 11 18 16 4 6 6 0 2
3430.0 10 18 21 20 11 9 22 26 15 12
3470.0 15 22 25 18 14 21 16 4 8 7
3510.0 8 18 13 10 11 6 12 20 16 17
3550.0 14 17 19 12 13 19 14 7 9 13
3590.0 21 19 16 18 8 4 12 15 7 3
3630.0 10 16 12 11 17 8 10 13 19 17
3670.0 2 7 13 9 6 2 5 8 13 21
3710.0 24 26 27 17 9 9 6 11 14 15
3750.0 17 27 35 35 36 35 27 18 16 15
3790.0 21 31 37 34 34 47 39 26 31 33
3830.0 29 30 30 31 36
##END=
