##TITLE=2-Hexyl-1-octene
##JCAMP-DX=4.24
##DATA TYPE=INFRARED SPECTRUM
##ORIGIN=NIST Mass Spectrometry Data Center
##OWNER=NIST Standard Reference Data Program
Collection (C) 2018 copyright by the U.S. Secretary of Commerce
on behalf of the United States of America. All rights reserved.
##CAS REGISTRY NO=19780-80-4
##MOLFORM=C 14 H 28
##$NIST SOURCE=MSDC-IR
##SPECTROMETER/DATA SYSTEM=HP-GC/MS/IRD
##STATE=gas
##XUNITS=1/CM
##YUNITS=ABSORBANCE
##XFACTOR=1.0
##YFACTOR=0.000005800
##DELTAX=4.0
##FIRSTX=550.0
##LASTX=3846.0
##FIRSTY=0.000313
##MAXX=3846
##MINX=550
##MAXY=0.058
##MINY=0
##NPOINTS=825
##XYDATA=(X++(Y..Y))
550.0 54 36 22 20 31 38 34 41 48 51
590.0 54 45 48 57 63 75 63 43 48 54
630.0 49 43 38 24 23 29 16 3 10 30
670.0 36 38 39 45 64 69 64 76 86 95
710.0 119 139 160 181 190 183 178 167 150 145
750.0 140 128 119 117 113 104 101 92 92 92
790.0 87 85 81 77 73 71 65 73 68 66
830.0 85 91 102 109 121 134 138 151 179 217
870.0 275 381 566 836 1147 1373 1330 1017 651 393
910.0 249 179 147 136 123 104 99 98 86 83
950.0 83 81 80 83 90 94 98 103 109 114
990.0 120 124 128 129 125 122 118 111 107 106
1030.0 97 90 89 78 71 65 54 48 51 52
1070.0 47 40 38 40 43 46 46 55 68 75
1110.0 82 75 58 52 42 32 35 34 27 25
1150.0 30 35 39 48 52 54 60 65 64 68
1190.0 76 77 80 83 83 86 89 91 91 87
1230.0 88 89 92 101 105 105 112 116 122 134
1270.0 144 149 152 153 164 174 184 195 196 198
1310.0 200 201 201 198 200 211 239 273 283 284
1350.0 293 294 291 290 279 285 304 336 355 352
1390.0 312 272 251 232 229 232 251 287 310 342
1430.0 399 483 576 662 758 850 937 984 966 902
1470.0 800 657 498 378 302 246 200 172 151 154
1510.0 150 124 114 105 89 83 79 77 81 72
1550.0 63 64 74 64 50 51 51 47 42 46
1590.0 50 56 61 66 76 91 113 145 190 260
1630.0 360 485 583 612 550 429 292 183 125 99
1670.0 82 65 53 60 55 42 45 49 44 34
1710.0 28 35 39 25 20 32 39 30 26 29
1750.0 35 33 32 33 42 52 52 57 73 82
1790.0 87 81 69 57 40 30 27 24 21 23
1830.0 22 17 12 15 18 13 8 10 10 13
1870.0 12 6 6 6 7 10 7 4 3 3
1910.0 2 5 13 11 8 7 4 2 5 3
1950.0 0 0 1 1 3 5 3 2 3 2
1990.0 5 3 2 3 6 7 9 8 9 9
2030.0 10 14 15 13 13 12 13 14 13 11
2070.0 7 9 9 6 6 5 4 5 4 4
2110.0 3 2 3 7 7 4 7 7 6 7
2150.0 8 11 8 5 5 4 5 8 9 10
2190.0 8 6 8 9 6 7 7 7 9 7
2230.0 6 4 4 3 3 6 6 6 7 7
2270.0 7 9 10 10 12 13 11 12 16 16
2310.0 14 13 13 14 13 13 14 12 11 11
2350.0 10 10 9 6 10 16 18 17 17 16
2390.0 14 14 13 12 13 15 17 18 18 16
2430.0 16 20 21 20 19 16 16 17 19 17
2470.0 17 16 16 17 19 20 22 24 24 26
2510.0 27 26 27 29 33 35 35 38 39 38
2550.0 42 46 45 42 44 46 49 51 52 50
2590.0 51 52 56 59 61 61 66 68 69 70
2630.0 75 82 84 85 86 92 102 108 107 107
2670.0 112 114 115 120 120 116 114 113 114 114
2710.0 114 119 122 123 126 131 139 152 161 163
2750.0 160 162 163 165 175 186 198 208 219 237
2790.0 261 284 307 338 369 403 450 508 578 659
2830.0 762 896 1064 1286 1590 1993 2502 3037 3459 3670
2870.0 3661 3539 3430 3352 3256 3149 3107 3210 3466 3854
2910.0 4358 4992 5806 6864 8102 9274 10000 9940 9072 7745
2950.0 6437 5537 5166 5177 5204 4870 4103 3178 2435 1949
2990.0 1613 1354 1134 954 808 701 616 549 502 465
3030.0 426 393 367 345 335 336 343 363 405 485
3070.0 618 764 831 776 652 510 381 284 221 178
3110.0 161 150 140 131 116 112 115 115 111 105
3150.0 103 98 95 95 92 90 86 85 81 75
3190.0 74 71 72 73 67 63 56 50 49 50
3230.0 50 47 45 43 40 36 33 39 40 34
3270.0 32 34 36 35 34 34 35 37 34 31
3310.0 30 31 30 28 29 30 32 34 32 28
3350.0 24 22 27 32 33 33 31 29 30 28
3390.0 24 22 17 14 16 19 20 18 17 19
3430.0 15 8 10 16 21 20 14 16 14 12
3470.0 10 7 10 15 14 13 11 11 10 9
3510.0 6 5 11 18 24 15 10 7 10 23
3550.0 17 11 11 16 27 18 5 3 3 14
3590.0 21 17 11 9 19 22 20 21 19 27
3630.0 35 25 19 13 23 34 27 21 16 14
3670.0 22 26 18 12 19 22 15 14 16 18
3710.0 26 27 21 26 23 16 26 21 21 26
3750.0 16 16 20 19 15 13 7 5 6 7
3790.0 9 10 11 13 13 9 7 12 9 8
3830.0 16 20 21 12 10
##END=
