##TITLE=1-Ethyl-2-methylcyclopentene
##JCAMP-DX=4.24
##DATA TYPE=INFRARED SPECTRUM
##ORIGIN=NIST Mass Spectrometry Data Center
##OWNER=NIST Standard Reference Data Program
Collection (C) 2018 copyright by the U.S. Secretary of Commerce
on behalf of the United States of America. All rights reserved.
##CAS REGISTRY NO=19780-56-4
##MOLFORM=C 8 H 14
##$NIST SOURCE=MSDC-IR
##SPECTROMETER/DATA SYSTEM=HP-GC/MS/IRD
##STATE=gas
##XUNITS=1/CM
##YUNITS=ABSORBANCE
##XFACTOR=1.0
##YFACTOR=0.000002500
##DELTAX=4.0
##FIRSTX=550.0
##LASTX=3846.0
##FIRSTY=0.000190
##MAXX=3846
##MINX=550
##MAXY=0.025
##MINY=0
##NPOINTS=825
##XYDATA=(X++(Y..Y))
550.0 76 62 48 54 52 40 41 46 53 75
590.0 91 73 67 90 67 55 41 19 19 27
630.0 21 3 1 1 4 27 30 29 31 10
670.0 2 8 20 48 62 42 28 25 10 14
710.0 10 0 20 28 25 36 50 34 42 58
750.0 53 51 60 63 64 85 98 89 89 85
790.0 79 78 62 64 70 54 54 52 42 49
830.0 70 85 91 80 65 63 63 65 69 72
870.0 80 86 88 90 99 97 93 95 97 113
910.0 123 119 115 115 123 119 120 135 157 172
950.0 177 186 179 148 125 117 112 112 116 116
990.0 119 129 137 148 155 165 168 149 132 128
1030.0 131 138 151 174 206 224 247 284 295 305
1070.0 303 273 242 213 190 175 163 151 140 133
1110.0 121 110 107 104 94 98 108 99 102 113
1150.0 112 111 116 123 139 156 167 181 200 220
1190.0 245 273 298 326 346 326 282 249 216 196
1230.0 170 156 156 154 158 168 191 211 223 241
1270.0 265 277 277 293 320 345 374 409 455 493
1310.0 507 506 486 459 415 361 310 266 253 251
1350.0 240 243 271 306 346 412 504 570 558 553
1390.0 528 454 379 323 296 297 314 337 368 412
1430.0 473 547 634 724 826 932 1000 1019 994 941
1470.0 851 725 595 472 367 293 250 218 197 188
1510.0 175 166 162 157 149 152 157 153 149 147
1550.0 143 138 135 139 140 129 120 119 119 107
1590.0 99 103 106 101 88 79 70 66 65 63
1630.0 60 60 59 56 55 58 63 58 59 60
1670.0 62 63 54 54 51 44 33 27 30 28
1710.0 33 33 23 21 24 23 19 19 17 19
1750.0 21 14 16 22 21 14 17 16 13 13
1790.0 10 11 12 9 7 13 10 8 14 14
1830.0 15 13 13 20 20 21 24 25 24 21
1870.0 23 23 24 23 16 16 14 18 20 21
1910.0 19 12 5 4 8 13 12 9 7 2
1950.0 7 13 16 16 13 15 15 20 21 11
1990.0 2 2 3 4 8 16 17 13 12 11
2030.0 12 18 22 18 18 18 15 15 13 13
2070.0 8 7 10 8 9 12 8 6 9 10
2110.0 10 11 9 13 12 12 16 15 14 12
2150.0 10 6 4 11 12 11 9 6 5 8
2190.0 12 10 5 4 1 0 4 7 10 11
2230.0 13 11 11 13 17 17 20 19 17 17
2270.0 17 20 22 22 24 23 23 20 22 26
2310.0 30 34 26 31 36 32 29 27 27 24
2350.0 25 33 33 28 28 25 22 21 19 18
2390.0 17 16 16 14 17 25 30 27 29 27
2430.0 23 24 24 24 25 25 23 24 28 21
2470.0 24 27 19 20 22 30 33 24 19 27
2510.0 33 29 29 27 27 32 32 26 24 30
2550.0 33 37 45 40 38 47 55 54 50 54
2590.0 53 48 47 54 62 62 63 68 72 74
2630.0 75 75 78 90 90 81 82 82 84 79
2670.0 76 81 87 80 80 88 98 102 104 119
2710.0 131 145 165 196 225 246 271 303 320 335
2750.0 351 349 344 349 354 365 380 400 423 452
2790.0 502 544 594 676 777 887 1025 1210 1468 1866
2830.0 2484 3391 4489 5506 6275 6801 7137 7278 7087 6664
2870.0 6360 6286 6350 6513 6748 7015 7203 7263 7302 7429
2910.0 7639 7888 8123 8350 8560 8756 8938 9028 9026 8983
2950.0 9095 9697 10000 9506 9112 8736 7881 6823 5642 4312
2990.0 3190 2423 1947 1647 1450 1320 1231 1159 1106 1036
3030.0 967 915 855 787 728 672 623 573 530 484
3070.0 437 402 374 352 334 315 300 289 280 262
3110.0 248 241 218 198 184 176 168 154 143 144
3150.0 146 142 136 126 122 120 115 101 90 85
3190.0 81 67 50 48 53 62 61 43 35 40
3230.0 35 34 40 42 36 36 41 33 31 35
3270.0 24 10 26 29 23 20 14 23 30 32
3310.0 20 16 22 14 12 15 15 12 8 13
3350.0 18 19 16 12 16 12 10 16 24 25
3390.0 25 22 16 17 8 11 20 17 21 14
3430.0 9 22 22 15 14 15 17 13 14 9
3470.0 0 9 17 22 30 32 29 16 9 8
3510.0 8 7 11 14 15 12 12 19 23 21
3550.0 17 10 13 15 2 1 5 11 20 24
3590.0 23 19 20 21 17 9 14 25 23 19
3630.0 16 16 20 13 12 22 27 28 22 12
3670.0 30 33 23 27 23 21 24 20 15 23
3710.0 22 17 23 29 33 36 40 33 28 36
3750.0 45 39 32 27 25 29 34 41 46 41
3790.0 42 42 39 42 30 18 28 37 36 47
3830.0 44 37 37 32 38
##END=
