##TITLE=3-Ethyl-3-heptanol
##JCAMP-DX=4.24
##DATA TYPE=INFRARED SPECTRUM
##ORIGIN=NIST Mass Spectrometry Data Center
##OWNER=NIST Standard Reference Data Program
Collection (C) 2018 copyright by the U.S. Secretary of Commerce
on behalf of the United States of America. All rights reserved.
##CAS REGISTRY NO=19780-41-7
##MOLFORM=C 9 H 20 O
##$NIST SOURCE=MSDC-IR
##SPECTROMETER/DATA SYSTEM=HP-GC/MS/IRD
##STATE=gas
##XUNITS=1/CM
##YUNITS=ABSORBANCE
##XFACTOR=1.0
##YFACTOR=0.000004200
##DELTAX=4.0
##FIRSTX=550.0
##LASTX=3846.0
##FIRSTY=0.000491
##MAXX=3846
##MINX=550
##MAXY=0.042
##MINY=0
##NPOINTS=825
##XYDATA=(X++(Y..Y))
550.0 117 95 79 80 81 88 94 86 61 39
590.0 51 58 40 41 40 35 29 23 20 21
630.0 21 14 19 25 10 5 18 19 17 15
670.0 18 20 22 25 32 35 39 48 55 69
710.0 74 83 110 120 114 113 115 109 112 110
750.0 108 121 134 145 155 170 189 206 227 243
790.0 252 254 247 222 188 158 125 107 111 103
830.0 85 76 72 67 71 81 93 114 135 154
870.0 178 209 245 294 354 423 501 565 609 647
910.0 663 660 651 642 653 689 774 929 1121 1318
950.0 1476 1584 1659 1705 1706 1659 1540 1351 1144 945
990.0 774 655 574 518 486 472 477 489 497 502
1030.0 507 506 488 459 435 413 393 385 387 394
1070.0 402 423 447 474 492 509 526 534 539 554
1110.0 593 650 721 808 890 964 1029 1094 1160 1228
1150.0 1283 1299 1268 1186 1066 937 821 724 644 589
1190.0 556 536 529 528 533 550 570 587 605 627
1230.0 653 687 719 748 778 795 805 800 781 763
1270.0 752 743 735 722 715 711 699 686 677 668
1310.0 657 644 635 636 642 655 685 726 763 784
1350.0 806 822 829 848 874 926 1014 1104 1159 1153
1390.0 1059 893 726 600 511 451 427 424 427 448
1430.0 503 598 720 868 1054 1263 1475 1641 1712 1663
1470.0 1508 1279 1015 775 583 444 352 297 257 231
1510.0 210 189 171 155 145 139 134 127 125 118
1550.0 107 109 112 102 92 90 88 85 81 78
1590.0 77 74 69 66 64 61 59 57 52 52
1630.0 52 54 52 48 50 55 55 47 44 45
1670.0 44 45 43 42 42 37 35 32 30 24
1710.0 19 22 25 19 17 23 28 23 21 24
1750.0 23 20 19 15 14 13 11 13 14 12
1790.0 12 11 11 12 9 6 7 8 8 8
1830.0 6 9 12 16 17 9 4 9 11 11
1870.0 11 8 10 12 14 16 17 13 6 5
1910.0 7 7 10 8 5 2 2 8 7 5
1950.0 5 3 3 1 0 3 2 0 0 4
1990.0 6 5 6 3 3 6 5 7 8 5
2030.0 6 10 11 9 8 9 12 11 9 10
2070.0 9 8 5 3 6 8 6 6 5 2
2110.0 4 4 4 7 6 6 7 9 8 8
2150.0 7 8 10 10 7 5 5 4 6 7
2190.0 7 8 8 5 6 8 7 7 8 7
2230.0 5 2 4 6 4 5 9 7 7 7
2270.0 8 10 8 5 7 7 4 6 9 9
2310.0 8 7 8 13 13 11 13 15 16 14
2350.0 14 16 14 16 20 19 16 19 21 21
2390.0 21 22 21 22 21 20 21 19 16 12
2430.0 13 15 15 15 15 12 9 5 5 4
2470.0 3 3 4 4 4 7 8 4 3 6
2510.0 8 9 8 8 13 14 15 13 13 19
2550.0 21 20 20 23 26 27 31 32 35 38
2590.0 38 41 42 47 49 50 50 50 52 54
2630.0 52 56 64 63 65 69 70 71 75 82
2670.0 83 82 85 90 87 88 92 94 96 98
2710.0 103 114 118 126 137 149 163 175 189 198
2750.0 199 196 192 191 194 202 215 229 244 260
2790.0 280 300 326 352 373 400 433 468 516 577
2830.0 651 748 867 1014 1210 1463 1782 2165 2579 2980
2870.0 3335 3651 3926 4144 4257 4241 4127 3986 3907 3973
2910.0 4218 4636 5216 5961 6871 7884 8878 9657 10000 9839
2950.0 9336 8807 8625 8926 9438 9696 9346 8278 6722 5114
2990.0 3784 2808 2132 1667 1350 1129 969 850 761 694
3030.0 630 574 533 496 463 435 414 396 381 366
3070.0 353 341 333 326 313 298 284 271 259 240
3110.0 226 214 200 188 173 162 151 143 137 127
3150.0 119 118 121 116 109 102 95 94 93 88
3190.0 80 76 73 65 58 53 49 45 41 36
3230.0 30 22 18 15 16 17 15 18 19 18
3270.0 19 19 17 12 12 14 10 12 15 10
3310.0 8 9 9 10 2 4 8 8 11 11
3350.0 9 6 8 13 15 13 14 13 10 17
3390.0 21 25 28 24 21 23 22 20 23 23
3430.0 26 24 23 23 17 14 23 27 20 16
3470.0 14 12 14 18 15 12 13 21 21 11
3510.0 6 3 5 7 5 4 6 8 17 21
3550.0 14 5 5 9 14 10 7 14 16 19
3590.0 24 24 24 24 28 43 65 102 150 219
3630.0 306 393 459 481 449 366 265 179 111 71
3670.0 53 44 35 25 24 25 22 17 15 19
3710.0 23 20 18 19 19 21 25 22 21 24
3750.0 16 7 5 4 6 11 7 6 11 11
3790.0 12 17 19 21 24 25 25 26 24 26
3830.0 32 32 31 29 26
##END=
