##TITLE=Ethylidenecyclooctane
##JCAMP-DX=4.24
##DATA TYPE=INFRARED SPECTRUM
##ORIGIN=NIST Mass Spectrometry Data Center
##OWNER=NIST Standard Reference Data Program
Collection (C) 2018 copyright by the U.S. Secretary of Commerce
on behalf of the United States of America. All rights reserved.
##CAS REGISTRY NO=19780-51-9
##MOLFORM=C 10 H 18
##$NIST SOURCE=MSDC-IR
##SPECTROMETER/DATA SYSTEM=HP-GC/MS/IRD
##STATE=gas
##XUNITS=1/CM
##YUNITS=ABSORBANCE
##XFACTOR=1.0
##YFACTOR=0.000008200
##DELTAX=4.0
##FIRSTX=550.0
##LASTX=3846.0
##FIRSTY=0.000402
##MAXX=3846
##MINX=550
##MAXY=0.082
##MINY=0
##NPOINTS=825
##XYDATA=(X++(Y..Y))
550.0 49 43 39 47 53 57 72 66 58 60
590.0 54 51 49 43 36 33 27 19 8 4
630.0 4 5 0 3 10 4 1 3 1 3
670.0 11 7 9 27 34 28 33 40 36 42
710.0 46 46 55 63 69 81 90 96 91 81
750.0 75 73 72 74 83 100 126 154 186 215
790.0 235 235 229 237 239 241 248 259 272 256
830.0 218 189 162 136 118 110 104 104 109 118
870.0 122 112 100 87 76 68 64 67 69 67
910.0 67 69 66 63 66 64 55 47 45 44
950.0 45 54 68 84 105 131 153 165 173 175
990.0 170 161 148 138 134 138 146 158 168 166
1030.0 152 130 108 89 72 63 57 56 59 55
1070.0 54 54 54 59 61 65 76 88 100 110
1110.0 108 95 79 61 44 35 29 24 28 26
1150.0 24 27 34 39 39 40 40 37 32 34
1190.0 41 50 51 50 57 65 69 73 75 74
1230.0 74 71 65 66 68 66 68 69 72 76
1270.0 77 76 73 70 72 73 71 68 70 80
1310.0 93 111 126 135 140 152 176 208 230 249
1350.0 263 260 246 224 190 163 152 151 153 160
1390.0 159 156 147 132 129 135 155 192 230 286
1430.0 378 514 682 846 987 1071 1103 1065 963 838
1470.0 746 659 551 448 362 285 218 170 140 134
1510.0 124 106 100 96 87 79 76 78 81 74
1550.0 65 66 69 57 47 46 45 40 33 30
1590.0 32 31 30 30 29 30 33 35 37 37
1630.0 37 46 48 51 60 68 70 56 48 42
1670.0 37 34 28 30 28 19 21 28 24 19
1710.0 18 22 22 14 11 18 24 17 14 18
1750.0 23 19 17 17 19 23 19 14 18 19
1790.0 20 21 22 23 19 21 23 24 25 27
1830.0 28 23 21 28 30 23 19 20 20 20
1870.0 18 12 11 12 11 12 11 10 8 8
1910.0 9 10 9 7 4 3 0 3 6 4
1950.0 2 3 2 0 2 1 0 1 1 2
1990.0 3 3 1 0 0 2 4 4 3 2
2030.0 3 4 4 3 2 1 0 0 2 1
2070.0 1 3 4 2 2 4 5 5 3 1
2110.0 2 2 3 6 7 5 2 4 3 3
2150.0 4 3 1 2 3 2 2 3 2 0
2190.0 2 4 4 4 1 1 2 1 1 1
2230.0 0 4 1 2 5 6 5 5 5 6
2270.0 5 3 4 3 3 5 6 5 6 7
2310.0 8 9 8 7 7 8 9 6 6 7
2350.0 8 9 8 7 8 9 8 6 6 6
2390.0 3 3 5 5 4 5 7 9 11 10
2430.0 10 10 9 10 10 11 9 6 5 6
2470.0 7 9 9 8 8 8 8 10 10 8
2510.0 8 11 13 13 14 15 16 15 17 18
2550.0 16 17 18 19 20 19 19 20 20 19
2590.0 20 22 23 27 30 34 36 36 41 44
2630.0 46 50 54 58 62 66 73 80 89 103
2670.0 115 126 139 150 156 158 157 153 145 136
2710.0 128 121 111 107 105 102 99 97 95 93
2750.0 95 99 100 104 109 117 126 134 147 162
2790.0 180 200 217 236 261 288 320 360 416 491
2830.0 588 714 881 1122 1453 1850 2270 2633 2886 3015
2870.0 3008 2900 2747 2609 2546 2573 2719 3000 3427 4034
2910.0 4808 5853 7214 8597 9592 10000 9716 8754 7363 5924
2950.0 4711 3765 3023 2429 1954 1586 1316 1130 1009 926
2990.0 865 807 748 695 645 602 568 547 534 523
3030.0 511 493 467 432 388 340 291 245 206 175
3070.0 147 125 110 102 94 84 78 73 68 65
3110.0 60 55 54 53 51 46 44 43 42 42
3150.0 40 37 33 30 29 28 29 28 28 29
3190.0 30 29 27 28 27 23 25 26 30 27
3230.0 25 27 27 25 24 22 20 20 22 18
3270.0 16 17 17 17 14 9 11 14 16 15
3310.0 13 12 11 10 10 13 13 12 14 17
3350.0 19 16 14 14 15 18 20 16 13 13
3390.0 12 12 14 15 11 11 13 11 10 8
3430.0 6 8 6 5 5 5 7 4 3 3
3470.0 5 8 6 3 3 4 4 5 8 7
3510.0 6 3 6 10 6 1 0 0 5 10
3550.0 6 1 2 7 18 14 5 4 5 12
3590.0 12 9 7 5 12 17 17 16 9 14
3630.0 19 10 6 6 17 19 12 12 10 13
3670.0 18 18 14 9 10 17 14 10 12 12
3710.0 21 21 15 18 21 21 29 23 21 24
3750.0 20 21 19 17 16 15 11 12 12 14
3790.0 14 12 15 16 8 4 8 12 11 7
3830.0 10 17 19 12 12
##END=
