##TITLE=3-Ethyl-4-heptanol
##JCAMP-DX=4.24
##DATA TYPE=INFRARED SPECTRUM
##ORIGIN=NIST Mass Spectrometry Data Center
##OWNER=NIST Standard Reference Data Program
Collection (C) 2018 copyright by the U.S. Secretary of Commerce
on behalf of the United States of America. All rights reserved.
##CAS REGISTRY NO=19780-42-8
##MOLFORM=C 9 H 20 O
##$NIST SOURCE=MSDC-IR
##SPECTROMETER/DATA SYSTEM=HP-GC/MS/IRD
##STATE=gas
##XUNITS=1/CM
##YUNITS=ABSORBANCE
##XFACTOR=1.0
##YFACTOR=0.000004800
##DELTAX=4.0
##FIRSTX=550.0
##LASTX=3846.0
##FIRSTY=0.000413
##MAXX=3846
##MINX=550
##MAXY=0.048
##MINY=0
##NPOINTS=825
##XYDATA=(X++(Y..Y))
550.0 86 53 33 21 18 26 24 23 31 19
590.0 22 26 23 15 11 15 23 30 32 34
630.0 25 19 32 40 30 15 12 29 36 24
670.0 19 15 3 6 17 24 25 24 23 27
710.0 28 30 34 38 48 58 72 89 104 123
750.0 141 160 176 190 213 236 264 288 285 268
790.0 250 227 206 190 176 169 173 189 216 252
830.0 281 317 360 387 397 388 373 340 301 267
870.0 237 222 222 231 245 261 284 309 335 361
910.0 378 378 367 351 334 324 316 303 292 281
950.0 272 275 293 331 388 471 588 738 922 1130
990.0 1342 1519 1630 1656 1593 1460 1292 1109 937 789
1030.0 677 600 560 553 559 572 587 602 618 633
1070.0 636 637 653 668 689 716 746 775 793 809
1110.0 819 815 811 808 804 805 811 817 805 775
1150.0 721 659 585 514 454 410 390 388 394 411
1190.0 447 489 527 567 600 622 636 642 634 622
1230.0 617 612 609 618 626 642 653 664 681 686
1270.0 688 683 667 641 611 582 557 535 514 496
1310.0 482 474 462 454 450 455 474 493 505 516
1350.0 528 548 573 622 690 791 925 1063 1167 1195
1390.0 1117 969 801 656 548 475 428 404 397 403
1430.0 427 471 537 623 748 913 1109 1303 1424 1445
1470.0 1363 1183 954 731 549 416 329 270 232 210
1510.0 190 171 160 149 136 125 119 115 112 102
1550.0 91 87 89 81 74 75 70 66 61 57
1590.0 59 57 52 51 50 45 44 48 49 48
1630.0 45 45 43 41 40 40 40 35 33 32
1670.0 31 29 27 28 24 19 21 24 21 17
1710.0 17 16 16 13 10 11 13 9 4 4
1750.0 8 9 6 7 7 5 7 9 7 8
1790.0 8 5 5 5 7 9 7 6 8 11
1830.0 10 7 5 6 9 9 8 8 8 7
1870.0 7 6 8 9 10 7 4 4 6 8
1910.0 8 8 7 6 5 6 4 1 2 5
1950.0 7 4 3 4 5 6 7 7 8 9
1990.0 8 9 8 9 7 7 7 8 9 8
2030.0 5 5 6 8 8 8 10 10 8 8
2070.0 6 5 5 4 5 6 7 4 2 4
2110.0 2 0 3 4 2 2 4 6 5 2
2150.0 3 2 0 2 4 1 0 1 4 7
2190.0 5 6 6 4 4 6 7 6 4 4
2230.0 7 9 8 9 9 4 2 7 8 6
2270.0 5 6 7 10 11 11 14 14 14 15
2310.0 16 14 18 20 19 17 18 18 17 19
2350.0 24 24 24 28 29 30 34 34 33 33
2390.0 32 30 29 31 31 30 29 27 24 22
2430.0 22 24 21 20 20 22 22 20 18 16
2470.0 20 22 20 20 21 23 22 21 22 24
2510.0 26 26 27 26 25 26 27 30 34 36
2550.0 37 40 45 48 53 57 62 70 74 75
2590.0 76 80 86 91 91 91 94 95 93 92
2630.0 94 99 101 101 105 108 112 120 127 133
2670.0 136 136 138 143 150 153 152 159 164 164
2710.0 166 175 184 193 204 217 236 250 258 269
2750.0 272 263 258 258 260 267 280 288 300 314
2790.0 331 357 383 408 432 460 498 538 584 649
2830.0 729 827 955 1112 1300 1523 1798 2147 2589 3139
2870.0 3801 4528 5170 5553 5596 5340 4902 4468 4215 4195
2910.0 4382 4724 5165 5697 6309 6948 7529 7908 7983 7806
2950.0 7601 7676 8260 9226 10000 9980 8996 7312 5446 3904
2990.0 2844 2158 1704 1391 1168 1001 873 781 703 639
3030.0 584 535 499 466 435 408 380 357 339 319
3070.0 303 289 276 268 259 249 241 232 221 211
3110.0 200 192 183 174 166 155 147 143 141 135
3150.0 134 132 130 127 119 108 98 95 93 86
3190.0 75 72 64 57 52 47 44 41 38 38
3230.0 39 33 24 25 26 18 11 13 17 18
3270.0 17 14 11 10 7 6 5 6 10 9
3310.0 6 5 5 8 9 7 6 7 12 16
3350.0 11 6 4 4 6 5 3 7 10 11
3390.0 10 11 11 18 25 18 18 17 15 14
3430.0 18 18 18 20 19 22 25 23 20 22
3470.0 16 12 15 19 18 13 10 14 17 12
3510.0 9 7 9 8 8 5 2 5 5 8
3550.0 8 10 9 6 6 7 8 9 11 15
3590.0 16 16 20 26 33 38 52 72 94 121
3630.0 149 190 245 308 387 457 501 499 446 383
3670.0 303 222 159 110 83 70 56 49 45 43
3710.0 33 25 24 23 19 18 24 25 34 38
3750.0 26 20 21 22 17 15 17 22 24 22
3790.0 18 20 30 26 24 31 31 22 17 20
3830.0 24 29 32 32 33
##END=
