##TITLE=3-Ethyl-3-methyl-2-pentanone
##JCAMP-DX=4.24
##DATA TYPE=INFRARED SPECTRUM
##ORIGIN=NIST Mass Spectrometry Data Center
##OWNER=NIST Standard Reference Data Program
Collection (C) 2018 copyright by the U.S. Secretary of Commerce
on behalf of the United States of America. All rights reserved.
##CAS REGISTRY NO=19780-65-5
##MOLFORM=C 8 H 16 O
##$NIST SOURCE=MSDC-IR
##SPECTROMETER/DATA SYSTEM=HP-GC/MS/IRD
##STATE=gas
##XUNITS=1/CM
##YUNITS=ABSORBANCE
##XFACTOR=1.0
##YFACTOR=0.000002900
##DELTAX=4.0
##FIRSTX=550.0
##LASTX=3846.0
##FIRSTY=0.001119
##MAXX=3846
##MINX=550
##MAXY=0.029
##MINY=0
##NPOINTS=825
##XYDATA=(X++(Y..Y))
550.0 386 300 242 316 352 336 284 199 117 73
590.0 57 20 5 10 9 29 55 41 23 62
630.0 118 148 185 253 319 366 385 351 298 248
670.0 168 102 66 42 31 23 27 28 12 1
710.0 9 20 7 16 30 44 77 110 138 193
750.0 257 292 331 359 367 372 367 350 339 322
790.0 263 188 139 106 97 83 53 58 78 82
830.0 93 105 111 131 140 157 178 175 166 165
870.0 156 149 147 130 111 98 99 104 100 91
910.0 102 122 157 213 252 329 437 529 623 696
950.0 758 781 755 722 664 602 571 563 585 634
990.0 691 755 790 805 790 728 668 594 504 432
1030.0 387 361 340 322 305 311 324 338 355 368
1070.0 373 367 368 378 381 407 468 574 747 1002
1110.0 1345 1762 2184 2539 2779 2839 2665 2309 1900 1498
1150.0 1132 877 721 633 564 507 468 447 473 508
1190.0 554 621 710 827 986 1149 1299 1414 1458 1421
1230.0 1302 1127 939 749 590 469 370 306 271 256
1270.0 255 255 252 264 280 294 302 308 324 336
1310.0 363 414 461 517 605 738 929 1233 1655 2127
1350.0 2561 2945 3110 2972 2727 2429 2179 2105 2085 2077
1390.0 2005 1763 1482 1218 983 837 780 767 792 839
1430.0 903 994 1115 1288 1517 1787 2038 2264 2418 2437
1470.0 2299 2004 1671 1333 1030 795 634 530 457 412
1510.0 376 342 325 314 294 279 273 282 275 253
1550.0 248 256 267 259 246 238 246 250 234 226
1590.0 226 224 225 224 221 219 230 237 241 246
1630.0 246 260 270 289 326 375 428 484 573 667
1670.0 773 877 1009 1181 1422 1779 2411 3434 4802 6216
1710.0 7513 8762 9107 7882 6354 4828 3142 1879 1211 876
1750.0 693 573 494 433 373 333 292 245 213 185
1790.0 161 139 116 98 94 93 81 73 70 71
1830.0 71 64 58 61 58 53 50 46 51 49
1870.0 50 46 41 44 46 45 37 35 36 38
1910.0 36 28 26 28 27 23 25 29 28 28
1950.0 25 28 33 28 22 23 24 21 22 24
1990.0 28 34 38 39 39 40 35 29 29 25
2030.0 20 24 20 18 24 26 31 30 22 19
2070.0 24 20 16 13 15 19 18 12 10 7
2110.0 2 7 11 4 5 5 7 13 15 9
2150.0 9 14 14 14 13 13 16 16 14 6
2190.0 4 13 13 15 13 11 14 14 18 20
2230.0 11 9 15 9 9 14 5 2 10 9
2270.0 8 10 13 12 8 5 5 8 12 16
2310.0 20 23 23 23 34 36 33 36 37 35
2350.0 27 39 48 44 39 30 27 22 22 26
2390.0 29 35 38 37 42 42 30 20 18 19
2430.0 21 25 28 28 29 35 35 30 34 35
2470.0 31 37 46 41 40 41 30 24 27 30
2510.0 28 25 25 16 19 25 23 31 31 31
2550.0 38 39 32 25 30 43 42 36 39 46
2590.0 48 42 45 51 56 60 67 83 92 90
2630.0 87 88 92 87 93 100 99 104 106 109
2670.0 107 99 91 94 99 91 88 93 92 92
2710.0 101 105 108 115 115 124 150 171 184 204
2750.0 225 229 229 235 235 235 236 241 245 246
2790.0 264 282 294 306 323 345 367 395 426 463
2830.0 516 574 638 724 833 992 1203 1453 1729 2031
2870.0 2331 2635 2988 3334 3595 3775 3838 3793 3752 3763
2910.0 3865 4143 4577 5116 5688 6225 6686 6986 7058 6978
2950.0 6845 6780 6993 7538 8339 9328 10000 9964 9348 8137
2990.0 6590 5117 3881 2947 2295 1829 1499 1282 1136 1018
3030.0 924 857 792 734 705 679 644 626 622 607
3070.0 589 567 546 524 499 477 459 436 416 396
3110.0 375 359 336 309 293 281 276 267 260 254
3150.0 240 234 223 212 204 191 184 177 170 168
3190.0 159 152 152 136 114 110 113 112 103 104
3230.0 106 93 76 71 73 86 83 65 73 80
3270.0 81 84 76 70 72 67 60 56 58 65
3310.0 64 60 58 51 57 62 59 62 62 62
3350.0 55 51 61 62 63 66 77 93 98 108
3390.0 124 144 161 176 190 207 211 192 177 175
3430.0 150 110 94 76 62 47 37 44 49 48
3470.0 42 29 18 16 19 22 20 25 21 18
3510.0 29 26 17 27 45 35 20 26 28 23
3550.0 24 23 24 21 21 14 11 21 18 12
3590.0 17 16 26 35 23 15 19 17 15 17
3630.0 24 23 18 24 25 21 15 17 9 1
3670.0 15 38 32 14 18 18 17 21 19 17
3710.0 16 21 23 18 3 1 15 15 33 34
3750.0 16 25 28 27 33 27 23 28 18 7
3790.0 6 15 11 9 16 8 20 34 19 6
3830.0 16 32 20 2 0
##END=
