##TITLE=6-Hepten-3-ol
##JCAMP-DX=4.24
##DATA TYPE=INFRARED SPECTRUM
##ORIGIN=NIST Mass Spectrometry Data Center
##OWNER=NIST Standard Reference Data Program
Collection (C) 2018 copyright by the U.S. Secretary of Commerce
on behalf of the United States of America. All rights reserved.
##CAS REGISTRY NO=19781-77-2
##MOLFORM=C 7 H 14 O
##$NIST SOURCE=MSDC-IR
##SPECTROMETER/DATA SYSTEM=HP-GC/MS/IRD
##STATE=gas
##XUNITS=1/CM
##YUNITS=ABSORBANCE
##XFACTOR=1.0
##YFACTOR=0.000002700
##DELTAX=4.0
##FIRSTX=550.0
##LASTX=3846.0
##FIRSTY=0.000545
##MAXX=3846
##MINX=550
##MAXY=0.027
##MINY=0
##NPOINTS=825
##XYDATA=(X++(Y..Y))
550.0 202 155 112 105 111 122 117 84 95 115
590.0 111 139 151 171 159 178 251 298 350 397
630.0 436 458 444 439 412 358 308 248 208 181
670.0 147 122 114 103 81 72 58 33 44 37
710.0 3 3 10 4 8 8 1 6 14 28
750.0 45 63 83 98 129 165 172 174 175 156
790.0 145 127 108 109 115 109 121 144 150 172
830.0 203 246 285 322 378 445 495 539 583 606
870.0 645 702 761 858 1013 1226 1525 1932 2449 3022
910.0 3533 3893 4011 3876 3556 3146 2775 2483 2272 2144
950.0 2097 2143 2270 2449 2647 2817 2951 3068 3147 3188
990.0 3193 3150 3054 2907 2740 2567 2406 2289 2209 2132
1030.0 2065 1987 1904 1837 1768 1699 1654 1616 1601 1592
1070.0 1589 1600 1636 1683 1726 1789 1883 1977 2066 2143
1110.0 2188 2205 2192 2133 2021 1880 1722 1558 1392 1238
1150.0 1100 989 902 843 816 807 812 837 868 907
1190.0 961 1012 1059 1111 1152 1193 1245 1291 1315 1337
1230.0 1357 1368 1355 1336 1314 1278 1225 1184 1154 1121
1270.0 1082 1047 1035 1020 1015 1011 1008 1001 983 954
1310.0 920 885 843 811 796 792 803 834 873 937
1350.0 1019 1118 1227 1343 1459 1544 1606 1652 1667 1648
1390.0 1590 1498 1376 1238 1117 1029 974 950 944 975
1430.0 1061 1190 1342 1492 1625 1708 1739 1692 1572 1430
1470.0 1263 1068 872 690 546 431 348 287 244 227
1510.0 201 171 159 156 143 133 129 135 136 126
1550.0 121 122 125 121 111 104 103 107 112 114
1590.0 109 117 142 169 198 238 302 399 526 707
1630.0 939 1166 1295 1290 1185 976 659 402 259 181
1670.0 143 117 87 77 70 59 54 46 38 31
1710.0 25 26 25 13 15 22 20 16 10 0
1750.0 3 2 0 1 2 5 7 2 2 9
1790.0 18 25 29 39 63 95 132 180 230 265
1830.0 277 266 236 194 149 106 68 51 43 33
1870.0 25 21 20 21 19 14 13 14 14 17
1910.0 15 6 8 16 15 9 2 4 8 9
1950.0 14 19 20 24 29 35 39 35 27 24
1990.0 26 22 13 7 3 7 6 1 4 9
2030.0 8 8 12 13 10 5 6 8 8 11
2070.0 11 13 12 5 7 4 6 7 3 3
2110.0 6 6 7 8 8 4 2 8 12 13
2150.0 12 11 8 10 13 10 6 6 6 4
2190.0 3 7 9 5 1 8 17 18 13 9
2230.0 8 12 11 9 12 17 13 9 11 11
2270.0 19 24 21 20 23 26 25 24 20 22
2310.0 31 33 35 40 38 39 38 31 30 31
2350.0 34 41 46 50 50 45 40 32 28 32
2390.0 35 33 31 33 35 38 37 38 41 47
2430.0 46 41 33 29 36 37 32 26 26 28
2470.0 26 24 26 30 31 26 22 21 24 34
2510.0 39 40 42 40 41 42 41 42 48 60
2550.0 64 65 67 69 75 77 72 80 92 93
2590.0 100 99 98 100 102 106 107 107 115 125
2630.0 125 127 137 148 152 148 148 161 168 174
2670.0 172 177 188 191 195 196 202 202 206 216
2710.0 220 223 220 223 231 237 253 266 275 288
2750.0 301 309 315 322 333 341 350 362 372 390
2790.0 406 428 459 487 515 560 621 694 794 918
2830.0 1075 1279 1539 1846 2189 2558 2948 3318 3633 3892
2870.0 4100 4287 4439 4521 4522 4484 4439 4436 4560 4867
2910.0 5384 6085 6902 7782 8653 9388 9877 10000 9712 9109
2950.0 8333 7569 7038 6866 6994 7135 7019 6618 5932 5029
2990.0 4143 3437 2912 2516 2197 1941 1706 1461 1236 1075
3030.0 958 882 844 818 805 824 868 937 1042 1170
3070.0 1331 1573 1857 2045 2053 1937 1707 1321 928 675
3110.0 524 429 369 321 285 261 241 222 209 197
3150.0 182 167 164 154 137 127 116 110 112 104
3190.0 89 84 82 75 68 56 52 51 48 45
3230.0 42 42 36 36 41 40 38 34 32 28
3270.0 22 29 25 15 14 15 18 20 17 16
3310.0 20 14 10 14 23 22 14 20 16 4
3350.0 3 13 21 17 14 25 23 21 28 26
3390.0 27 30 34 37 34 42 44 35 38 44
3430.0 41 40 41 52 58 53 53 47 37 38
3470.0 33 19 17 16 18 21 16 12 22 35
3510.0 29 17 16 29 29 21 19 21 13 14
3550.0 28 37 43 37 33 26 22 32 45 51
3590.0 57 72 90 110 145 203 260 326 416 504
3630.0 583 655 730 827 932 1007 1025 992 907 766
3670.0 601 453 337 245 182 138 114 98 70 53
3710.0 53 47 42 39 37 42 41 22 17 18
3750.0 25 31 20 12 19 24 18 13 20 28
3790.0 13 4 12 22 27 27 29 29 32 37
3830.0 40 39 40 46 43
##END=
