##TITLE=4,7-Dimethyl-4-octanol
##JCAMP-DX=4.24
##DATA TYPE=INFRARED SPECTRUM
##ORIGIN=NIST Mass Spectrometry Data Center
##OWNER=NIST Standard Reference Data Program
Collection (C) 2018 copyright by the U.S. Secretary of Commerce
on behalf of the United States of America. All rights reserved.
##CAS REGISTRY NO=19781-13-6
##MOLFORM=C 10 H 22 O
##$NIST SOURCE=MSDC-IR
##SPECTROMETER/DATA SYSTEM=HP-GC/MS/IRD
##STATE=gas
##XUNITS=1/CM
##YUNITS=ABSORBANCE
##XFACTOR=1.0
##YFACTOR=0.000003100
##DELTAX=4.0
##FIRSTX=550.0
##LASTX=3846.0
##FIRSTY=0.000583
##MAXX=3846
##MINX=550
##MAXY=0.031
##MINY=0
##NPOINTS=825
##XYDATA=(X++(Y..Y))
550.0 188 141 51 23 22 38 43 40 25 18
590.0 38 22 19 28 33 30 4 4 3 5
630.0 42 43 10 14 42 38 32 42 22 4
670.0 3 23 43 34 23 20 26 35 43 53
710.0 54 47 54 61 62 75 89 102 134 156
750.0 163 165 158 152 155 166 157 141 140 129
790.0 113 98 90 95 96 95 96 93 98 98
830.0 106 111 119 130 136 152 178 192 202 234
870.0 257 272 308 352 393 429 450 451 450 452
910.0 469 507 554 591 606 611 594 570 534 485
950.0 423 362 313 271 227 191 179 170 162 163
990.0 178 190 220 277 325 365 396 437 467 474
1030.0 484 477 465 452 436 432 441 466 494 523
1070.0 548 568 585 590 594 618 629 623 635 648
1110.0 660 657 655 675 714 772 830 893 958 1029
1150.0 1091 1132 1173 1183 1154 1101 1012 912 823 739
1190.0 667 611 578 561 545 551 563 564 584 591
1230.0 588 598 602 605 609 619 626 637 656 668
1270.0 669 672 669 649 627 614 611 604 601 609
1310.0 615 637 672 708 745 768 770 754 724 713
1350.0 709 732 806 947 1133 1321 1474 1550 1528 1408
1390.0 1211 979 749 576 462 399 370 356 354 372
1430.0 401 449 512 590 699 826 962 1100 1213 1252
1470.0 1201 1059 858 647 474 367 292 237 203 179
1510.0 163 139 118 104 90 88 86 77 75 73
1550.0 66 62 63 64 61 54 52 50 40 36
1590.0 38 37 35 44 48 40 40 35 36 45
1630.0 36 32 37 43 37 29 29 32 33 29
1670.0 22 20 20 23 29 33 33 30 30 34
1710.0 24 20 27 26 21 20 19 16 9 11
1750.0 20 26 28 24 14 13 17 16 16 14
1790.0 11 18 24 16 7 11 14 19 15 13
1830.0 16 14 16 15 10 10 13 14 17 13
1870.0 8 10 14 11 9 13 17 14 14 18
1910.0 15 16 15 12 8 2 1 9 10 10
1950.0 4 4 6 2 7 16 12 7 7 6
1990.0 6 7 7 5 1 2 6 8 10 13
2030.0 15 12 8 6 4 8 15 14 8 6
2070.0 10 8 6 4 0 6 11 9 12 18
2110.0 14 10 12 7 10 16 15 14 10 0
2150.0 4 12 9 7 7 7 7 6 3 9
2190.0 12 10 8 5 0 1 6 3 2 6
2230.0 11 13 11 9 7 8 12 18 17 12
2270.0 9 11 13 12 9 11 15 13 11 8
2310.0 10 13 13 7 2 2 3 8 6 7
2350.0 11 13 14 10 9 12 14 14 17 18
2390.0 21 22 21 22 25 30 28 25 28 24
2430.0 25 25 20 20 14 12 19 20 20 25
2470.0 24 20 20 21 29 30 27 28 26 26
2510.0 26 20 18 30 36 33 36 38 31 27
2550.0 37 45 46 49 47 48 50 52 54 56
2590.0 66 65 55 61 62 57 66 81 89 81
2630.0 77 82 81 79 83 82 74 70 74 82
2670.0 82 81 81 87 90 88 99 107 105 108
2710.0 118 125 139 158 169 179 183 185 191 186
2750.0 186 188 181 179 180 173 188 209 216 217
2790.0 228 249 272 299 320 347 385 422 471 526
2830.0 580 653 749 883 1058 1251 1444 1644 1873 2162
2870.0 2558 3022 3430 3651 3638 3473 3286 3205 3280 3500
2910.0 3817 4154 4521 4930 5393 5919 6444 6800 6869 6763
2950.0 6775 7281 8375 9529 10000 9365 7798 5957 4392 3247
2990.0 2414 1793 1347 1052 844 699 599 531 492 451
3030.0 417 392 357 322 303 286 266 254 245 233
3070.0 216 203 207 204 197 182 174 180 180 174
3110.0 168 171 168 150 141 139 138 139 134 128
3150.0 133 135 131 129 129 131 128 134 136 122
3190.0 114 116 117 116 105 88 82 78 70 71
3230.0 75 70 66 51 46 42 42 45 49 46
3270.0 44 56 55 60 58 34 33 47 53 53
3310.0 40 23 23 32 31 28 46 61 45 32
3350.0 37 39 37 42 49 49 41 32 38 48
3390.0 52 45 48 50 44 44 43 38 42 36
3430.0 35 36 36 31 35 38 27 28 31 30
3470.0 31 31 25 27 32 27 21 25 29 10
3510.0 3 16 16 23 38 26 14 19 22 17
3550.0 16 14 13 6 0 4 22 28 24 28
3590.0 31 32 27 29 45 63 74 95 137 173
3630.0 245 310 349 362 326 256 187 133 94 70
3670.0 56 41 31 32 42 37 27 30 35 27
3710.0 12 12 18 25 25 19 22 23 25 20
3750.0 16 20 22 28 40 40 27 21 16 23
3790.0 36 42 45 54 58 39 39 44 45 57
3830.0 56 46 43 49 50
##END=
