##TITLE=8-Hexadecyne
##JCAMP-DX=4.24
##DATA TYPE=INFRARED SPECTRUM
##ORIGIN=NIST Mass Spectrometry Data Center
##OWNER=NIST Standard Reference Data Program
Collection (C) 2018 copyright by the U.S. Secretary of Commerce
on behalf of the United States of America. All rights reserved.
##CAS REGISTRY NO=19781-86-3
##MOLFORM=C 16 H 30
##$NIST SOURCE=MSDC-IR
##SPECTROMETER/DATA SYSTEM=HP-GC/MS/IRD
##STATE=gas
##XUNITS=1/CM
##YUNITS=ABSORBANCE
##XFACTOR=1.0
##YFACTOR=0.000005100
##DELTAX=4.0
##FIRSTX=550.0
##LASTX=3846.0
##FIRSTY=0.000250
##MAXX=3846
##MINX=550
##MAXY=0.051
##MINY=0
##NPOINTS=825
##XYDATA=(X++(Y..Y))
550.0 49 17 7 31 47 36 16 32 32 18
590.0 16 11 4 0 7 8 3 1 7 11
630.0 14 13 11 17 22 17 18 25 14 1
670.0 7 23 23 19 34 49 50 54 77 101
710.0 109 119 141 151 149 148 124 111 111 100
750.0 97 97 93 94 89 85 73 73 83 77
790.0 64 49 38 35 40 37 38 36 31 31
830.0 36 44 40 39 38 29 28 28 31 39
870.0 41 39 41 47 49 44 43 43 44 37
910.0 28 34 34 30 40 41 36 27 20 20
950.0 23 14 14 20 19 23 29 32 38 43
990.0 44 48 55 59 63 65 73 69 63 66
1030.0 58 53 60 61 50 44 46 46 42 40
1070.0 42 48 49 38 36 48 58 61 58 60
1110.0 65 65 59 54 56 49 46 44 41 38
1150.0 43 52 51 49 52 54 61 60 65 71
1190.0 68 72 74 74 82 83 80 84 85 85
1230.0 85 85 86 86 91 104 117 121 122 124
1270.0 130 140 158 178 199 219 232 244 256 269
1310.0 286 311 354 432 538 618 623 568 513 484
1350.0 460 431 389 353 320 292 280 282 288 269
1390.0 233 198 173 164 162 164 168 176 205 259
1430.0 350 473 601 686 708 728 761 796 810 766
1470.0 669 541 423 324 253 199 164 143 120 92
1510.0 81 77 61 53 55 54 46 36 32 36
1550.0 40 34 17 24 36 36 31 31 38 41
1590.0 39 36 35 33 35 35 30 23 22 25
1630.0 26 18 18 20 14 2 2 21 23 20
1670.0 20 16 18 10 5 16 8 0 0 12
1710.0 22 10 1 12 21 15 4 7 11 9
1750.0 9 12 14 14 12 7 8 15 17 16
1790.0 11 9 12 12 10 12 12 12 13 9
1830.0 7 12 12 8 8 10 8 10 12 7
1870.0 8 13 9 7 8 7 7 5 5 7
1910.0 5 3 0 2 4 6 5 3 6 6
1950.0 5 5 4 2 2 3 7 8 4 3
1990.0 5 7 4 2 7 10 12 11 12 15
2030.0 13 13 12 14 15 12 12 11 14 12
2070.0 8 11 15 9 6 8 11 7 4 3
2110.0 4 5 7 3 5 5 4 6 6 5
2150.0 4 4 7 7 7 6 6 7 6 7
2190.0 8 6 7 9 5 3 4 4 4 5
2230.0 4 6 5 1 1 8 11 6 0 2
2270.0 9 7 5 8 8 4 5 9 7 4
2310.0 6 8 8 9 6 8 10 5 6 7
2350.0 9 7 9 11 10 11 12 14 14 12
2390.0 7 7 12 11 12 13 9 12 14 11
2430.0 8 11 13 11 17 17 12 6 5 10
2470.0 9 7 9 13 17 17 19 18 14 15
2510.0 19 19 19 20 23 25 24 27 27 32
2550.0 35 36 42 44 41 42 46 43 45 47
2590.0 45 43 46 51 52 54 58 59 61 62
2630.0 62 64 73 81 89 92 91 96 101 101
2670.0 102 104 105 107 109 110 107 104 99 96
2710.0 93 95 99 102 103 112 119 124 129 129
2750.0 129 131 140 149 153 156 160 174 189 201
2790.0 213 231 253 280 310 339 372 418 471 531
2830.0 614 732 900 1136 1470 1916 2442 2991 3431 3615
2870.0 3505 3232 2978 2797 2651 2528 2505 2653 2971 3448
2910.0 4043 4744 5599 6656 7883 9098 9928 10000 9204 7810
2950.0 6330 5223 4646 4452 4326 3952 3266 2490 1858 1421
2990.0 1132 926 774 660 568 497 438 397 360 326
3030.0 302 279 263 245 224 205 195 191 177 164
3070.0 160 153 143 137 137 133 124 112 107 104
3110.0 100 100 96 88 85 87 89 82 83 88
3150.0 85 81 77 74 76 74 72 75 74 59
3190.0 51 55 54 52 54 52 49 48 46 45
3230.0 46 41 39 39 37 38 36 31 28 30
3270.0 32 37 38 35 34 37 42 36 25 24
3310.0 26 26 29 29 34 38 35 31 26 23
3350.0 25 24 26 33 33 30 25 26 27 31
3390.0 28 23 24 19 17 16 23 28 30 27
3430.0 21 25 26 22 21 17 16 12 11 17
3470.0 21 19 16 13 13 19 13 12 15 16
3510.0 13 13 16 7 0 8 16 13 8 8
3550.0 7 9 20 15 7 12 10 8 10 4
3590.0 7 16 23 27 18 14 17 12 16 16
3630.0 15 21 20 21 12 12 20 23 29 25
3670.0 16 6 10 20 16 16 23 22 26 24
3710.0 15 14 15 16 17 19 9 8 11 5
3750.0 3 16 32 29 31 29 27 26 25 29
3790.0 25 21 23 19 18 19 19 17 21 27
3830.0 27 25 19 23 24
##END=
