##TITLE=cis-1-Ethyl-2-methylcyclopropane
##JCAMP-DX=4.24
##DATA TYPE=INFRARED SPECTRUM
##ORIGIN=NIST Mass Spectrometry Data Center
##OWNER=NIST Standard Reference Data Program
Collection (C) 2018 copyright by the U.S. Secretary of Commerce
on behalf of the United States of America. All rights reserved.
##CAS REGISTRY NO=19781-68-1
##MOLFORM=C 6 H 12
##$NIST SOURCE=MSDC-IR
##SPECTROMETER/DATA SYSTEM=HP-GC/MS/IRD
##STATE=gas
##XUNITS=1/CM
##YUNITS=ABSORBANCE
##XFACTOR=1.0
##YFACTOR=0.000002700
##DELTAX=4.0
##FIRSTX=550.0
##LASTX=3846.0
##FIRSTY=0.000184
##MAXX=3846
##MINX=550
##MAXY=0.027
##MINY=0
##NPOINTS=825
##XYDATA=(X++(Y..Y))
550.0 68 50 43 62 35 10 51 86 52 30
590.0 85 63 2 51 53 12 39 50 20 23
630.0 27 33 25 45 49 37 27 17 20 14
670.0 37 37 33 55 22 4 66 110 155 202
710.0 244 287 364 498 593 646 691 704 722 741
750.0 673 605 577 529 480 460 484 481 448 450
790.0 435 389 370 365 347 343 311 252 215 244
830.0 309 364 420 447 473 508 517 493 441 385
870.0 330 278 247 239 243 234 215 217 216 200
910.0 207 225 232 227 209 198 166 143 160 150
950.0 147 152 164 191 183 188 208 219 226 213
990.0 221 269 340 418 541 701 808 860 890 875
1030.0 827 764 627 452 313 235 179 198 255 307
1070.0 341 370 399 418 431 417 382 332 274 235
1110.0 196 160 125 98 102 114 110 89 100 118
1150.0 135 172 196 207 231 257 270 270 242 210
1190.0 180 149 130 111 101 107 112 99 109 125
1230.0 107 116 124 111 105 102 118 131 127 136
1270.0 144 170 188 208 264 344 446 529 579 616
1310.0 631 617 599 553 458 346 277 256 260 277
1350.0 304 334 376 437 516 606 690 757 791 826
1390.0 848 811 745 668 591 527 476 462 501 573
1430.0 663 786 940 1130 1311 1468 1603 1682 1660 1582
1470.0 1499 1362 1174 993 811 643 520 417 331 262
1510.0 219 191 182 171 152 143 144 145 129 116
1550.0 121 119 108 107 103 95 94 96 100 107
1590.0 124 133 141 137 131 134 126 125 131 131
1630.0 125 113 110 114 118 112 107 107 100 98
1670.0 94 88 84 73 75 83 82 71 69 71
1710.0 59 58 69 71 62 59 58 64 76 82
1750.0 83 82 84 86 91 96 94 88 80 71
1790.0 63 56 49 50 66 70 59 67 73 68
1830.0 59 61 62 53 49 43 48 57 45 48
1870.0 64 65 61 51 49 55 68 68 66 75
1910.0 74 77 84 78 76 66 59 64 69 66
1950.0 60 78 88 84 88 86 75 64 62 60
1990.0 60 65 62 62 77 87 85 91 100 105
2030.0 117 111 107 115 115 112 98 84 73 65
2070.0 64 52 42 37 31 37 24 29 52 49
2110.0 50 54 50 48 53 54 47 38 44 53
2150.0 50 41 34 34 40 46 45 37 30 37
2190.0 35 26 30 36 38 29 20 23 39 45
2230.0 45 42 46 49 43 48 51 48 49 56
2270.0 57 57 49 46 44 39 40 34 17 16
2310.0 25 24 18 17 21 25 31 41 34 22
2350.0 23 37 44 36 32 38 36 30 26 28
2390.0 28 19 27 36 29 35 48 37 36 33
2430.0 32 34 26 36 52 44 32 35 38 44
2470.0 48 45 47 39 29 24 18 29 28 9
2510.0 2 13 30 35 22 25 30 28 35 28
2550.0 21 43 59 50 30 23 30 25 34 49
2590.0 50 45 44 49 53 45 46 64 66 58
2630.0 58 60 56 48 47 49 55 44 35 40
2670.0 47 43 39 51 59 56 56 68 77 78
2710.0 83 103 121 133 146 168 201 218 239 268
2750.0 283 290 288 294 290 275 278 284 273 267
2790.0 267 281 312 354 378 398 447 507 560 616
2830.0 699 794 907 1040 1195 1418 1705 2048 2501 3059
2870.0 3689 4272 4592 4754 4886 4934 4940 4878 4794 4765
2910.0 4848 5062 5367 5775 6264 6749 7135 7483 7882 8326
2950.0 8815 9342 9757 9942 10000 9910 9590 9005 8433 7874
2990.0 7350 7100 7030 6779 6457 6272 6008 5220 4272 3597
3030.0 3024 2538 2195 2022 1981 2084 2281 2482 2600 2698
3070.0 2666 2453 2210 1891 1552 1244 983 763 612 507
3110.0 430 407 380 336 309 288 268 271 258 222
3150.0 208 220 219 208 194 167 142 140 129 110
3190.0 106 113 114 98 82 64 64 51 35 51
3230.0 65 65 60 56 54 42 34 29 38 47
3270.0 40 40 43 53 52 42 42 30 34 46
3310.0 45 42 42 47 44 50 57 54 35 22
3350.0 27 39 62 55 22 21 17 0 15 27
3390.0 36 60 55 15 13 25 24 42 37 36
3430.0 42 22 29 32 12 10 20 19 29 47
3470.0 51 41 49 45 42 62 60 37 30 37
3510.0 38 42 34 27 21 26 36 33 32 29
3550.0 34 46 39 13 12 17 28 29 25 14
3590.0 15 44 43 30 38 32 32 30 16 20
3630.0 36 36 48 46 6 18 44 49 50 57
3670.0 59 34 20 42 38 33 46 44 57 66
3710.0 73 76 54 16 13 46 59 44 32 50
3750.0 50 42 33 36 51 42 34 36 40 39
3790.0 41 60 71 64 69 76 59 36 53 61
3830.0 53 78 66 51 68
##END=
