##TITLE=2,3-Dimethyl-3-octanol
##JCAMP-DX=4.24
##DATA TYPE=INFRARED SPECTRUM
##ORIGIN=NIST Mass Spectrometry Data Center
##OWNER=NIST Standard Reference Data Program
Collection (C) 2018 copyright by the U.S. Secretary of Commerce
on behalf of the United States of America. All rights reserved.
##CAS REGISTRY NO=19781-10-3
##MOLFORM=C 10 H 22 O
##$NIST SOURCE=MSDC-IR
##SPECTROMETER/DATA SYSTEM=HP-GC/MS/IRD
##STATE=gas
##XUNITS=1/CM
##YUNITS=ABSORBANCE
##XFACTOR=1.0
##YFACTOR=0.000003200
##DELTAX=4.0
##FIRSTX=550.0
##LASTX=3846.0
##FIRSTY=0.000400
##MAXX=3846
##MINX=550
##MAXY=0.032
##MINY=0
##NPOINTS=825
##XYDATA=(X++(Y..Y))
550.0 125 78 63 98 102 79 80 97 86 74
590.0 70 70 60 44 40 40 22 13 10 12
630.0 19 27 35 22 25 29 10 12 30 39
670.0 38 18 15 34 35 40 58 51 48 58
710.0 67 76 91 118 124 138 158 153 142 128
750.0 117 104 94 102 101 91 97 93 66 60
790.0 58 41 43 46 50 67 87 100 114 119
830.0 128 153 165 173 176 189 206 209 219 239
870.0 249 253 265 281 303 346 398 465 555 669
910.0 780 856 879 848 795 742 691 652 624 585
950.0 545 511 472 428 382 345 320 301 287 283
990.0 288 305 342 375 416 468 525 579 642 691
1030.0 717 726 714 709 713 721 757 816 860 919
1070.0 967 982 978 951 911 859 807 754 715 704
1110.0 714 754 813 886 978 1069 1145 1203 1261 1286
1150.0 1280 1261 1230 1172 1088 999 924 870 822 789
1190.0 772 761 754 745 732 716 693 665 649 635
1230.0 620 617 637 642 639 639 640 650 668 685
1270.0 707 725 739 757 758 751 743 729 713 696
1310.0 677 658 640 619 609 625 658 697 725 750
1350.0 775 815 912 1082 1307 1570 1814 1959 1972 1848
1390.0 1611 1311 1017 763 584 485 440 422 415 425
1430.0 461 526 612 717 851 1011 1177 1337 1441 1460
1470.0 1395 1232 1024 808 616 465 364 295 246 219
1510.0 202 176 158 145 126 115 109 96 93 88
1550.0 80 79 75 69 67 60 56 60 60 55
1590.0 55 56 51 47 45 45 47 47 48 49
1630.0 47 46 44 43 46 45 43 41 40 39
1670.0 36 36 38 38 34 29 28 28 23 22
1710.0 22 18 14 16 15 11 13 14 11 15
1750.0 20 16 15 16 13 11 9 7 8 13
1790.0 11 10 14 16 11 11 14 11 10 11
1830.0 8 9 9 10 11 8 7 12 12 7
1870.0 6 7 10 11 12 12 13 7 4 2
1910.0 6 7 7 8 4 5 5 2 0 0
1950.0 0 3 8 5 3 5 10 9 3 1
1990.0 4 1 3 8 8 5 11 12 11 13
2030.0 13 8 8 17 19 14 15 17 21 25
2070.0 23 17 13 14 14 12 14 14 11 11
2110.0 9 8 13 12 10 7 6 15 13 7
2150.0 9 10 12 12 13 14 10 9 12 12
2190.0 11 14 18 14 12 10 6 8 15 21
2230.0 22 18 11 11 17 15 14 9 7 12
2270.0 15 17 19 20 19 20 19 20 23 23
2310.0 21 20 21 18 18 21 19 18 19 22
2350.0 26 23 21 20 18 14 14 26 29 23
2390.0 21 21 21 20 21 22 20 19 16 13
2430.0 12 12 11 10 12 10 13 15 12 15
2470.0 15 14 14 15 15 9 12 17 13 15
2510.0 19 18 18 16 13 17 19 19 21 27
2550.0 31 30 30 31 32 44 50 44 48 54
2590.0 50 55 63 64 67 76 75 72 78 77
2630.0 68 70 70 69 71 70 71 73 82 91
2670.0 93 92 90 93 98 96 97 96 97 96
2710.0 98 108 119 130 139 150 163 174 182 183
2750.0 177 178 180 185 191 202 207 212 227 241
2790.0 261 281 298 320 350 391 431 472 519 579
2830.0 658 753 879 1053 1290 1604 1977 2368 2750 3090
2870.0 3385 3691 4008 4250 4361 4332 4228 4171 4239 4434
2910.0 4725 5100 5577 6151 6788 7441 8061 8534 8749 8694
2950.0 8478 8364 8621 9242 9850 10000 9511 8453 7149 5852
2990.0 4637 3568 2687 2007 1516 1182 960 816 716 636
3030.0 567 507 457 423 400 375 348 330 317 299
3070.0 283 265 249 232 228 228 220 208 193 188
3110.0 186 172 161 157 154 147 143 139 135 133
3150.0 134 134 131 134 139 132 123 120 116 109
3190.0 105 100 97 87 76 70 63 55 48 46
3230.0 44 46 43 41 32 29 25 19 16 8
3270.0 9 14 16 15 11 14 10 7 5 8
3310.0 9 7 11 8 10 16 16 14 19 23
3350.0 20 14 14 20 19 17 23 22 20 23
3390.0 21 22 29 27 26 31 28 26 28 30
3430.0 32 30 29 31 35 39 34 28 23 26
3470.0 27 21 21 20 23 21 14 15 20 15
3510.0 4 5 8 4 10 17 11 15 22 17
3550.0 15 18 17 14 13 13 12 8 9 21
3590.0 24 23 27 27 37 51 66 94 127 180
3630.0 254 326 396 439 437 385 300 223 150 106
3670.0 81 56 46 40 26 15 18 28 28 20
3710.0 16 12 15 20 18 15 7 7 10 18
3750.0 22 11 14 18 13 14 19 20 25 18
3790.0 11 15 14 14 22 31 36 26 29 38
3830.0 32 32 35 30 26
##END=
