##TITLE=5-Hexyn-3-ol
##JCAMP-DX=4.24
##DATA TYPE=INFRARED SPECTRUM
##ORIGIN=NIST Mass Spectrometry Data Center
##OWNER=NIST Standard Reference Data Program
Collection (C) 2018 copyright by the U.S. Secretary of Commerce
on behalf of the United States of America. All rights reserved.
##CAS REGISTRY NO=19780-84-8
##MOLFORM=C 6 H 10 O
##$NIST SOURCE=MSDC-IR
##SPECTROMETER/DATA SYSTEM=HP-GC/MS/IRD
##STATE=gas
##XUNITS=1/CM
##YUNITS=ABSORBANCE
##XFACTOR=1.0
##YFACTOR=0.000002200
##DELTAX=4.0
##FIRSTX=550.0
##LASTX=3846.0
##FIRSTY=0.001309
##MAXX=3846
##MINX=550
##MAXY=0.022
##MINY=0
##NPOINTS=825
##XYDATA=(X++(Y..Y))
550.0 595 449 366 365 313 283 279 251 243 281
590.0 287 342 454 573 795 1194 1769 2477 3457 4929
630.0 7114 9124 10000 9276 7064 4970 3572 2551 1763 1187
670.0 812 585 427 321 247 189 143 92 58 40
710.0 25 15 28 46 33 22 40 55 48 44
750.0 62 91 109 141 169 172 171 176 162 146
790.0 128 108 114 136 157 175 185 212 249 287
830.0 308 311 317 314 315 324 325 321 335 359
870.0 369 388 410 428 431 421 420 418 413 412
910.0 421 426 447 503 574 645 723 792 842 883
950.0 933 994 1082 1199 1346 1527 1705 1862 1996 2065
990.0 2070 2036 1989 1948 1907 1893 1893 1887 1865 1845
1030.0 1833 1818 1825 1829 1851 1884 1899 1886 1836 1760
1070.0 1640 1505 1429 1442 1501 1630 1813 1993 2143 2205
1110.0 2161 2047 1871 1668 1454 1250 1065 902 780 668
1150.0 574 527 504 485 502 536 580 638 696 773
1190.0 862 947 1036 1132 1218 1293 1371 1455 1560 1700
1230.0 1884 2122 2444 2814 3093 3191 3154 3057 2885 2573
1270.0 2162 1785 1540 1386 1284 1212 1162 1134 1097 1057
1310.0 1025 1002 970 943 932 929 940 955 987 1054
1350.0 1130 1199 1279 1378 1456 1501 1550 1589 1604 1600
1390.0 1575 1512 1417 1299 1173 1085 1043 1036 1054 1091
1430.0 1125 1134 1125 1096 1073 1061 1044 1020 1002 967
1470.0 893 799 687 576 467 369 286 228 193 158
1510.0 133 120 111 99 91 91 89 93 98 92
1550.0 81 73 65 69 71 65 62 57 58 56
1590.0 52 47 52 52 42 37 27 22 25 23
1630.0 28 29 28 27 24 17 6 14 27 22
1670.0 11 16 21 22 14 13 17 16 12 5
1710.0 2 6 10 10 7 9 8 9 10 10
1750.0 13 14 9 8 11 4 1 10 14 10
1790.0 8 8 10 14 18 12 4 5 10 15
1830.0 14 11 9 9 15 24 23 10 12 25
1870.0 22 18 25 28 29 26 28 34 35 29
1910.0 29 30 29 30 30 26 17 16 16 24
1950.0 29 28 27 24 26 32 32 28 29 27
1990.0 26 25 22 23 26 23 24 28 26 24
2030.0 20 18 15 18 19 19 28 42 51 48
2070.0 46 54 70 86 100 123 157 202 264 328
2110.0 382 416 426 412 366 301 227 154 93 53
2150.0 44 43 38 35 39 46 39 30 28 24
2190.0 15 22 31 26 33 37 30 28 30 28
2230.0 26 28 33 26 19 22 27 29 28 33
2270.0 29 28 31 29 28 27 22 15 23 29
2310.0 19 20 23 12 13 19 19 16 21 26
2350.0 20 17 24 28 26 27 28 33 33 29
2390.0 30 30 36 44 43 40 42 39 40 44
2430.0 41 37 41 47 38 29 24 21 18 12
2470.0 12 23 36 35 28 20 21 23 17 16
2510.0 18 24 34 32 26 23 26 30 37 43
2550.0 40 34 36 34 33 36 38 34 34 38
2590.0 48 48 42 52 51 52 55 52 52 54
2630.0 59 64 66 62 72 80 79 85 96 101
2670.0 104 114 115 121 152 162 153 143 133 134
2710.0 135 128 116 110 114 118 132 141 147 162
2750.0 173 175 177 181 183 183 175 176 188 181
2790.0 193 221 229 230 254 275 301 336 376 421
2830.0 481 555 634 724 823 934 1072 1230 1414 1646
2870.0 1911 2234 2571 2822 3006 3102 3130 3123 3086 3104
2910.0 3223 3441 3750 4137 4554 4945 5260 5450 5467 5334
2950.0 5135 4919 4751 4688 4731 4803 4704 4411 3974 3376
2990.0 2682 2032 1517 1138 862 667 530 439 372 327
3030.0 309 280 246 234 236 227 206 206 213 197
3070.0 186 188 175 167 170 154 146 148 140 141
3110.0 142 114 93 90 86 72 58 62 57 46
3150.0 43 38 43 54 58 58 60 49 45 61
3190.0 75 63 50 32 16 22 33 32 32 46
3230.0 51 50 64 80 88 96 111 141 177 218
3270.0 265 348 441 507 622 801 1099 1400 1591 1860
3310.0 2315 3107 3826 3857 3788 3627 3452 2946 1834 997
3350.0 604 421 332 274 221 184 149 109 94 82
3390.0 56 54 52 48 53 49 55 65 56 53
3430.0 42 37 29 34 46 36 47 51 36 35
3470.0 37 28 29 39 33 42 40 18 14 21
3510.0 25 38 40 32 47 55 42 51 48 44
3550.0 56 58 45 49 79 85 81 99 141 193
3590.0 256 326 412 537 732 922 1007 1046 1045 1022
3630.0 963 837 718 670 675 679 657 623 568 497
3670.0 418 311 219 161 129 116 93 60 51 55
3710.0 54 47 45 42 22 2 1 6 5 7
3750.0 17 8 1 1 6 16 12 10 0 2
3790.0 4 2 1 1 0 7 20 11 0 10
3830.0 20 12 3 2 2
##END=
