##TITLE=4-Cyano-4'-hydroxybiphenyl
##JCAMP-DX=4.24
##DATA TYPE=INFRARED SPECTRUM
##ORIGIN=EPA-IR VAPOR PHASE LIBRARY
##OWNER=SRD/NIST
Collection (C) 2018 copyright by the U.S. Secretary of Commerce
on behalf of the United States of America. All rights reserved.
##CAS REGISTRY NO=19812-93-2
##MOLFORM=C 13 H 9 N O
##$NIST SOURCE=MSDC-IR
##STATE=gas
##XUNITS=1/CM
##YUNITS=ABSORBANCE
##XFACTOR=1.
##YFACTOR=0.001
##DELTAX=1.92898
##FIRSTX=549.8
##LASTX=4000.7
##FIRSTY=6.87
##MAXX=4000.7
##MINX=549.759
##MAXY=0.09573
##MINY=0.000026
##NPOINTS=1790
##XYDATA=(X++(Y..Y))
549.759 6.87 7 6.99 6.98 6.55 6.23 5.93 5.46 4.76 4.23
569.049 3.72 3.09 2.8 2.69 2.51 2.15 2.01 1.95 1.81 1.75
588.339 1.86 2.05 2.15 2.25 2.45 2.43 2.47 2.48 2.27 1.92
607.628 1.52 1.42 1.68 1.67 1.43 1.37 1.41 1.78 2.01 2.18
626.918 2.43 2.94 3.55 3.86 4.02 4.01 3.81 3.72 3.4 2.82
646.208 2.55 2.39 2.11 1.78 1.59 1.41 1.31 1.09 0.8205 0.972
665.498 0.9719 0.7694 0.7897 0.8856 1.03 1.35 1.37 1.22 1.27 1.38
684.787 1.62 1.69 1.58 1.49 1.45 1.36 1.35 1.26 1.17 1.29
704.077 1.35 1.36 1.32 1.35 1.35 1.26 1.31 1.27 1.17 1.26
723.367 1.2 1.2 1.24 1.25 1.27 1.15 1.17 1.32 1.19 1.1
742.657 1.15 0.9938 1 1.22 1.17 1.07 1.12 1.15 1.29 1.4
761.947 1.55 1.94 2.11 2.24 2.64 2.75 2.84 3.02 3.24 3.45
781.236 3.46 3.51 3.64 3.9 4.21 4.78 5.47 6.01 6.82 8.02
800.526 9.27 10.56 11.95 13.38 15.16 17.35 19.74 22.29 24.68 26.81
819.816 28.89 30.87 32.21 30.98 29.02 28.05 26.68 24.72 22.15 19.65
839.106 17.25 14.86 12.72 11.15 10.03 8.91 8.07 7.28 6.44 5.63
858.395 4.75 4.05 3.48 2.99 2.61 2.28 1.9 1.61 1.45 1.38
877.685 1.35 1.27 1.26 1.22 1.25 1.27 1.26 1.47 1.61 1.58
896.975 1.42 1.26 1.17 1.23 1.21 1.02 0.9499 0.9715 1.03 1.06
916.265 0.9453 0.8151 0.8872 1.08 1.23 1.02 0.835 0.9063 0.8866 0.8553
935.555 0.7056 0.7441 0.8662 0.8892 0.9618 0.9527 1.02 1.2 1.42 1.41
954.844 1.24 1.21 1.04 0.9786 1.08 1.01 0.8674 0.8184 0.9119 0.8929
974.134 0.9124 0.8811 0.727 0.8008 0.8467 0.8999 0.9785 0.9895 1.1 1.26
993.424 1.38 1.5 1.81 2.46 3.49 4.13 4.23 4.17 3.93 3.27
1012.714 2.66 2.41 2.18 2.42 2.49 2.25 2.34 2.2 1.9 1.5
1032.003 1.53 1.77 1.62 1.62 1.36 1.3 1.57 1.64 1.52 1.28
1051.293 1.2 1.15 1.2 1.46 1.37 1.12 1.01 1.06 1.6 1.76
1070.583 1.41 1.19 1.23 1.8 2.13 1.84 2.16 2.77 3.42 4.07
1089.873 4.18 4.58 5.63 6.73 7.32 7.85 8.32 8.14 7.26 6.66
1109.163 6.18 5.73 5.34 5.19 5.3 5.15 5.01 5.06 5.39 5.84
1128.452 6.17 6.69 7.23 7.6 8.03 8.62 8.85 8.51 8.18 7.88
1147.742 7.76 8.17 9.18 10.73 12.88 16.03 19.62 23.88 30.09 38.72
1167.032 50.52 64.93 78.99 89.77 95.73 94.8 86.15 72.82 57.5 43.04
1186.322 32.21 25.24 20.72 17.11 14.31 12.1 10.29 8.85 7.82 7.2
1205.611 6.84 6.64 6.28 6.13 6.36 6.25 6.19 6.61 6.71 6.81
1224.901 7.28 7.46 7.56 7.69 7.9 8.27 8.83 9.4 10.39 11.87
1244.191 13.69 16.17 19.07 22.8 27.57 32.88 38.16 42.57 45.68 47.07
1263.481 46.16 43.14 38.65 33.41 27.97 22.95 18.54 14.68 11.69 9.74
1282.771 8.61 7.97 7.53 6.97 6.27 5.59 5.01 4.41 3.86 3.52
1302.060 3.34 3.24 3.19 3.19 3.29 3.51 3.93 4.73 5.81 7.01
1321.350 8.26 9.27 9.78 9.89 9.65 9.04 8.41 7.95 7.63 7.38
1340.640 7.08 6.68 6.12 5.41 4.65 4.04 3.56 3.18 2.92 2.7
1359.930 2.49 2.33 2.19 2.09 2.03 1.97 1.96 1.93 1.98 2.06
1379.219 2.09 2.18 2.18 2.16 2.21 2.29 2.44 2.52 2.58 2.74
1398.509 2.86 3.02 3.13 3.09 3.09 3.02 2.91 2.78 2.72 2.76
1417.799 2.9 3.29 3.93 4.71 5.61 6.58 7.39 7.87 7.88 7.33
1437.089 6.48 5.47 4.36 3.57 3.12 2.92 2.93 3.01 3.08 3.14
1456.378 3.07 3.12 3.27 3.31 3.24 3.19 3.31 3.55 3.87 4.36
1475.668 5.19 6.48 8.27 10.91 15.03 20.89 28.74 38.17 48.06 55.69
1494.958 58.7 57 51.91 44.58 36.23 29.25 25.1 23.42 22.47 21.27
1514.248 19.71 17.73 15.55 13.64 12.14 11.01 9.96 8.91 7.96 7.27
1533.538 6.77 6.53 6.28 5.95 5.73 5.46 5.1 4.72 4.3 3.96
1552.827 3.73 3.55 3.36 3.19 3.24 3.29 3.28 3.33 3.31 3.34
1572.117 3.65 3.9 4.25 4.98 5.88 7.01 8.37 10.01 11.56 12.83
1591.407 14.04 15.14 16.33 17.89 19.96 22.87 26.57 30.5 33.93 36.31
1610.697 37.19 36.18 33.13 28.42 23.23 18.19 13.37 9.48 6.84 5.23
1629.986 4.28 3.72 3.28 2.97 2.8 2.73 2.76 2.81 2.81 2.81
1649.276 2.79 2.6 2.45 2.56 2.62 2.64 2.63 2.62 2.69 2.72
1668.566 2.63 2.51 2.39 2.16 1.99 1.84 1.65 1.47 1.22 1.16
1687.856 1.15 1.07 1.07 0.9112 0.687 0.7296 0.64 0.5469 0.6078 0.6059
1707.146 0.7073 0.7091 0.6098 0.6048 0.5396 0.4622 0.5247 0.6704 0.7117 0.7593
1726.435 0.8625 0.8071 0.7414 0.7433 0.6854 0.7054 0.7687 0.8036 0.8464 0.8658
1745.725 0.9631 1.04 1.04 1.06 1.11 1.13 1.08 1.01 0.9286 0.9026
1765.015 0.8644 0.797 0.9034 0.9631 0.9068 0.9837 1.08 1.06 1.05 1.15
1784.305 1.19 1.23 1.28 1.24 1.2 1.22 1.18 1.07 0.9487 0.8446
1803.594 0.8067 0.7989 0.7088 0.6319 0.6337 0.6286 0.5638 0.4862 0.4967 0.497
1822.884 0.5139 0.4812 0.4581 0.4844 0.5074 0.5246 0.5173 0.5785 0.6655 0.6804
1842.174 0.6054 0.6034 0.7229 0.7606 0.7742 0.836 0.8824 0.966 1.02 0.9595
1861.464 0.9256 0.9679 1.09 1.16 1.17 1.24 1.27 1.3 1.33 1.37
1880.754 1.43 1.4 1.4 1.46 1.47 1.47 1.47 1.47 1.46 1.46
1900.043 1.54 1.61 1.62 1.66 1.69 1.68 1.66 1.66 1.64 1.55
1919.333 1.46 1.28 1.13 1.06 0.9495 0.8498 0.7686 0.6831 0.6045 0.5267
1938.623 0.4884 0.4878 0.4688 0.4906 0.4988 0.4865 0.4977 0.4587 0.436 0.4209
1957.913 0.3828 0.4116 0.4412 0.4262 0.4087 0.4283 0.4808 0.4921 0.506 0.4891
1977.202 0.4682 0.4662 0.4325 0.4137 0.4161 0.4685 0.4905 0.489 0.498 0.5163
1996.492 0.5349 0.5531 0.5816 0.6188 0.682 0.7341 0.7074 0.705 0.7383 0.6736
2015.782 0.6099 0.6073 0.6322 0.6326 0.5919 0.6011 0.5916 0.5802 0.5951 0.5872
2035.072 0.581 0.5484 0.5332 0.5748 0.5611 0.5535 0.5595 0.4704 0.4621 0.5124
2054.362 0.5591 0.5679 0.5335 0.4934 0.5024 0.5626 0.5835 0.6193 0.6259 0.5939
2073.651 0.6207 0.6926 0.6681 0.6655 0.7463 0.8261 0.8067 0.7648 0.7882 0.8147
2092.941 0.825 0.8306 0.8445 0.7894 0.7156 0.6874 0.6612 0.6054 0.5513 0.5028
2112.231 0.4552 0.4125 0.396 0.3731 0.3829 0.4215 0.3908 0.3891 0.3936 0.3239
2131.521 0.2918 0.2944 0.2778 0.294 0.353 0.3938 0.3798 0.3225 0.2988 0.3031
2150.810 0.2915 0.2692 0.2778 0.3024 0.337 0.347 0.3635 0.352 0.3311 0.3288
2170.100 0.3181 0.3544 0.3602 0.3935 0.3913 0.3676 0.4493 0.4696 0.4379 0.3883
2189.390 0.4056 0.4223 0.4071 0.4676 0.4842 0.4623 0.467 0.5398 0.6226 0.6822
2208.680 0.7943 0.9401 1.1 1.37 1.77 2.41 3.37 4.59 6.07 7.76
2227.970 9.37 10.59 11.05 10.52 9.21 7.29 5.2 3.36 2.06 1.34
2247.259 0.9864 0.7789 0.6987 0.6371 0.6161 0.6407 0.619 0.5987 0.6549 0.696
2266.549 0.7177 0.7123 0.7103 0.7522 0.669 0.6552 0.6959 0.7312 0.6915 0.6693
2285.839 0.6354 0.5752 0.6166 0.6768 0.644 0.5595 0.5817 0.6531 0.6391 0.5765
2305.129 0.6379 0.6237 0.5514 0.634 0.7109 0.6627 0.6094 0.5605 0.554 0.5971
2324.418 0.5967 0.5707 0.5666 0.5051 0.4969 0.6036 0.6218 0.5716 0.5654 0.5688
2343.708 0.5436 0.5967 0.7086 0.7993 0.8009 0.75 0.7783 0.7623 0.6847 0.6649
2362.998 0.6348 0.6245 0.6114 0.5635 0.55 0.5588 0.5456 0.504 0.493 0.5152
2382.288 0.586 0.6364 0.6251 0.6026 0.6368 0.6518 0.6371 0.6271 0.6694 0.7265
2401.578 0.6644 0.6988 0.7689 0.7162 0.681 0.7421 0.8709 0.9284 0.9159 0.9847
2420.867 1.08 1.14 1.16 1.25 1.41 1.49 1.49 1.47 1.45 1.44
2440.157 1.39 1.34 1.25 1.14 1.02 0.9502 0.888 0.8003 0.6995 0.6782
2459.447 0.6528 0.6028 0.621 0.5962 0.587 0.5613 0.5669 0.6109 0.5879 0.623
2478.737 0.6834 0.6889 0.7185 0.7066 0.6596 0.6007 0.5959 0.6968 0.7152 0.7416
2498.026 0.8342 0.8584 0.86 0.9363 0.9982 0.9788 1.02 1.07 1.09 1.04
2517.316 0.9961 0.9799 0.9639 0.9473 0.9274 0.9163 0.8215 0.7267 0.6831 0.6989
2536.606 0.7266 0.6473 0.5852 0.5912 0.6338 0.6329 0.5816 0.54 0.4867 0.4941
2555.896 0.5077 0.5353 0.5788 0.6113 0.6509 0.6513 0.6447 0.6442 0.5763 0.5377
2575.186 0.5522 0.5934 0.5435 0.5177 0.6195 0.6515 0.6297 0.614 0.5481 0.5288
2594.475 0.5551 0.5563 0.5527 0.5844 0.6813 0.692 0.6212 0.5608 0.5877 0.5727
2613.765 0.5765 0.6222 0.5844 0.6113 0.5711 0.4168 0.3479 0.3723 0.4422 0.4547
2633.055 0.3807 0.3918 0.422 0.4541 0.4611 0.3973 0.397 0.4434 0.4401 0.437
2652.345 0.4217 0.3511 0.3551 0.4013 0.409 0.4265 0.5116 0.5091 0.3909 0.394
2671.634 0.415 0.4771 0.477 0.3767 0.3634 0.3863 0.4294 0.4395 0.4696 0.4889
2690.924 0.4621 0.4029 0.4068 0.3555 0.3346 0.4184 0.4196 0.3671 0.348 0.4135
2710.214 0.4909 0.5308 0.5262 0.4724 0.4583 0.5335 0.5016 0.4152 0.4906 0.5299
2729.504 0.4176 0.3018 0.2923 0.352 0.3762 0.3556 0.3386 0.3235 0.3669 0.4249
2748.794 0.3912 0.3863 0.4042 0.4198 0.5136 0.5425 0.5111 0.5573 0.5414 0.5078
2768.083 0.5034 0.5055 0.5533 0.5795 0.5732 0.5403 0.5902 0.6871 0.6775 0.6335
2787.373 0.526 0.5072 0.5004 0.4838 0.5501 0.4823 0.3941 0.4198 0.4393 0.4179
2806.663 0.4755 0.504 0.4133 0.3107 0.2938 0.3069 0.2772 0.322 0.2946 0.2846
2825.953 0.3723 0.4178 0.3678 0.2821 0.3382 0.3649 0.3777 0.3265 0.241 0.3457
2845.242 0.411 0.3105 0.3013 0.346 0.3825 0.3898 0.4032 0.5455 0.5654 0.4925
2864.532 0.517 0.5186 0.5977 0.5984 0.5689 0.5723 0.5283 0.5144 0.4591 0.4858
2883.822 0.5628 0.6074 0.6045 0.5636 0.5268 0.5762 0.5596 0.4865 0.4657 0.4986
2903.112 0.5355 0.5995 0.5489 0.4591 0.5051 0.4601 0.4272 0.412 0.4372 0.4279
2922.401 0.3339 0.2975 0.3814 0.399 0.364 0.3755 0.4296 0.4396 0.3472 0.3576
2941.691 0.4852 0.5128 0.3864 0.373 0.395 0.3646 0.3646 0.4514 0.4752 0.3312
2960.981 0.2901 0.4042 0.5068 0.5154 0.476 0.5873 0.6421 0.6093 0.672 0.7098
2980.271 0.7507 0.8268 0.8376 0.8799 0.995 1.09 1.2 1.27 1.33 1.36
2999.561 1.45 1.71 1.98 2.25 2.54 2.71 2.9 3.18 3.47 3.74
3018.850 3.84 4.02 4.45 4.9 5.37 5.98 6.91 8.09 9.25 10.25
3038.140 10.86 10.95 10.58 9.7 8.56 7.41 6.36 5.63 5.02 4.53
3057.430 4.34 4.25 4.21 4.28 4.38 4.46 4.47 4.44 4.38 4.42
3076.720 4.5 4.34 4.24 4.2 4.13 4.09 3.98 3.8 3.66 3.58
3096.009 3.45 3.25 3.03 2.89 2.79 2.57 2.38 2.29 2.15 1.89
3115.299 1.63 1.51 1.48 1.4 1.29 1.21 1.14 1.14 1.04 0.9681
3134.589 0.9611 0.8829 0.8434 0.7733 0.6636 0.629 0.6845 0.7125 0.6398 0.5486
3153.879 0.5263 0.46 0.5239 0.636 0.5476 0.4766 0.463 0.4617 0.4608 0.4658
3173.169 0.4349 0.4261 0.4819 0.4314 0.3755 0.3875 0.3938 0.4441 0.465 0.447
3192.458 0.4135 0.3686 0.3703 0.4036 0.4736 0.5387 0.4741 0.4674 0.5402 0.5337
3211.748 0.5519 0.547 0.436 0.38 0.457 0.4507 0.3334 0.3896 0.4332 0.3707
3231.038 0.3315 0.2686 0.2321 0.1996 0.2657 0.2392 0.1691 0.212 0.2976 0.2972
3250.328 0.3143 0.3929 0.3435 0.2938 0.3712 0.391 0.2801 0.2087 0.1361 0.1971
3269.617 0.3094 0.2236 0.117 0.202 0.3346 0.2854 0.2946 0.3251 0.2253 0.2533
3288.907 0.351 0.3537 0.2843 0.233 0.2123 0.133 0.1942 0.2403 0.2376 0.2886
3308.197 0.2564 0.2615 0.2657 0.2465 0.2284 0.2341 0.3235 0.3221 0.3658 0.4525
3327.487 0.3342 0.3906 0.5747 0.644 0.5442 0.474 0.5206 0.5541 0.6476 0.5595
3346.777 0.544 0.5641 0.5392 0.6658 0.5156 0.3475 0.4114 0.5489 0.601 0.599
3366.066 0.5378 0.4646 0.4644 0.4919 0.6306 0.6106 0.4346 0.3908 0.3795 0.4788
3385.356 0.566 0.6292 0.6564 0.576 0.5657 0.6255 0.6942 0.8095 0.8136 0.6926
3404.646 0.6799 0.698 0.7443 0.714 0.7629 0.8835 0.8231 0.6781 0.596 0.5093
3423.936 0.6043 0.6682 0.5472 0.5493 0.4889 0.4736 0.5499 0.5299 0.4554 0.4156
3443.225 0.4376 0.533 0.5033 0.4192 0.4796 0.4716 0.5036 0.5198 0.4649 0.3702
3462.515 0.3567 0.4517 0.448 0.4967 0.443 0.27 0.2588 0.3933 0.411 0.3985
3481.805 0.4044 0.452 0.3587 0.1415 0.278 0.4096 0.4429 0.4297 0.3654 0.3819
3501.095 0.3553 0.3183 0.3487 0.3917 0.3604 0.3665 0.3105 0.2501 0.1765 0.1787
3520.385 0.3316 0.2763 0.2487 0.2693 0.2936 0.2793 0.2827 0.3603 0.2643 0.2416
3539.674 0.2427 0.2655 0.2483 0.1364 0.1626 0.2701 0.3389 0.3309 0.3288 0.3479
3558.964 0.4053 0.4724 0.4832 0.3737 0.2748 0.3323 0.3857 0.4063 0.482 0.5607
3578.254 0.645 0.617 0.4192 0.3183 0.4352 0.5835 0.6727 0.6721 0.6604 0.6652
3597.544 0.6947 0.7463 0.7988 0.8225 0.7525 0.6913 0.6686 0.7152 0.7974 0.895
3616.833 1.14 1.45 1.7 1.89 2.16 2.64 3.19 4.06 5.48 7.35
3636.123 9.73 12.79 16.86 22.07 28.2 34.82 40.24 41.99 39.8 35.7
3655.413 29.41 20.66 12.8 7.92 5.42 4.08 3.23 2.53 2.06 1.63
3674.703 1.18 1.03 1.03 0.9312 0.8756 0.9025 0.7993 0.6648 0.7688 0.7909
3693.993 0.691 0.6485 0.6469 0.6586 0.6099 0.5374 0.4979 0.463 0.4628 0.4716
3713.282 0.3692 0.3011 0.3751 0.5024 0.3838 0.3711 0.4531 0.357 0.3571 0.3873
3732.572 0.3046 0.1898 0.216 0.2502 0.3036 0.1979 0.026 0.1454 0.2457 0.1861
3751.862 0.2626 0.3219 0.2303 0.3041 0.2848 0.3211 0.4546 0.4024 0.298 0.3103
3771.152 0.4638 0.4229 0.3743 0.3416 0.259 0.3355 0.3906 0.4619 0.4537 0.3365
3790.441 0.2489 0.2063 0.1556 0.07745 0.1509 0.195 0.2772 0.4571 0.2624 0.08685
3809.731 0.1786 0.204 0.2849 0.2924 0.2465 0.2232 0.2606 0.4504 0.5249 0.4439
3829.021 0.4305 0.4771 0.4168 0.2957 0.2679 0.3114 0.3357 0.5064 0.6108 0.5791
3848.311 0.516 0.4113 0.3285 0.3325 0.4977 0.4771 0.377 0.4663 0.3776 0.374
3867.601 0.4575 0.2537 0.2353 0.3967 0.3933 0.2803 0.4172 0.541 0.4484 0.2956
3886.890 0.3652 0.4402 0.3623 0.3181 0.3303 0.425 0.3849 0.2171 0.06159 0.1231
3906.180 0.3016 0.3307 0.4062 0.4445 0.3737 0.3927 0.4305 0.3703 0.2877 0.3065
3925.470 0.3856 0.4679 0.4466 0.4261 0.4659 0.4417 0.4489 0.3701 0.2519 0.1686
3944.760 0.2577 0.4064 0.3821 0.3574 0.3726 0.4221 0.4091 0.4274 0.4519 0.4027
3964.049 0.3708 0.4322 0.4632 0.4852 0.3552 0.2002 0.2255 0.2555 0.2597 0.2381
3983.339 0.2307 0.2529 0.2453 0.1876 0.1657 0.1115 0.1422 0.2624 0.2783 0.3041
##END=
