##TITLE=1,1-Dimethyl(1,2,3,4-tetrahydronaphthalene)
##JCAMP-DX=4.24
##DATA TYPE=INFRARED SPECTRUM
##ORIGIN=NIST Mass Spectrometry Data Center
##OWNER=NIST Standard Reference Data Program
Collection (C) 2018 copyright by the U.S. Secretary of Commerce
on behalf of the United States of America. All rights reserved.
##CAS REGISTRY NO=1985-59-7
##MOLFORM=C 12 H 16
##$NIST SOURCE=MSDC-IR
##SPECTROMETER/DATA SYSTEM=HP-GC/MS/IRD
##STATE=gas
##XUNITS=1/CM
##YUNITS=ABSORBANCE
##XFACTOR=1.0
##YFACTOR=0.000002500
##DELTAX=4.0
##FIRSTX=550.0
##LASTX=3846.0
##FIRSTY=0.000633
##MAXX=3846
##MINX=550
##MAXY=0.025
##MINY=0
##NPOINTS=825
##XYDATA=(X++(Y..Y))
550.0 253 403 334 253 170 135 83 24 30 37
590.0 19 51 63 46 45 38 48 39 4 14
630.0 41 48 59 61 61 56 71 79 77 72
670.0 78 78 76 102 123 121 119 131 187 274
710.0 413 653 953 1287 1739 1815 1579 1576 1682 1864
750.0 2182 2667 2514 1786 1298 851 477 289 227 231
790.0 204 175 164 155 165 162 155 149 118 91
830.0 81 77 107 125 132 137 153 167 161 171
870.0 176 153 137 126 122 117 111 113 102 81
910.0 77 90 98 119 135 156 186 199 205 204
950.0 210 250 281 277 268 239 186 134 86 78
990.0 83 69 64 82 93 91 94 106 141 190
1030.0 271 374 467 553 607 609 527 426 352 284
1070.0 267 278 307 341 350 314 222 147 112 87
1110.0 88 91 106 139 157 160 149 130 87 66
1150.0 78 96 119 135 143 158 171 147 122 134
1190.0 145 161 191 198 190 190 181 165 161 173
1230.0 203 221 205 177 146 110 93 95 106 139
1270.0 209 314 432 535 576 538 429 287 183 131
1310.0 101 91 94 118 151 178 210 248 282 321
1350.0 378 475 582 716 882 823 691 667 645 615
1390.0 586 534 432 309 245 235 241 270 336 428
1430.0 564 755 991 1203 1356 1456 1519 1533 1486 1439
1470.0 1428 1463 1568 1729 1814 1736 1492 1121 738 470
1510.0 308 228 173 138 130 105 89 88 76 64
1550.0 65 76 98 124 144 157 163 174 169 160
1590.0 171 197 220 222 202 176 149 121 97 83
1630.0 74 70 63 54 49 58 57 51 61 62
1670.0 66 68 63 70 89 99 102 99 85 73
1710.0 63 57 55 53 48 38 37 42 47 43
1750.0 32 31 37 37 42 57 72 81 90 91
1790.0 94 92 84 85 99 105 95 89 87 79
1830.0 80 79 76 69 51 42 44 46 50 59
1870.0 64 67 73 73 78 90 100 123 147 156
1910.0 146 129 110 91 89 108 131 133 124 100
1950.0 68 39 27 32 29 26 24 24 20 14
1990.0 10 5 9 16 10 3 9 14 15 21
2030.0 24 16 9 5 9 11 16 25 16 7
2070.0 7 6 10 12 9 11 9 0 4 12
2110.0 2 2 8 4 8 11 13 17 11 7
2150.0 11 16 11 4 9 11 11 16 14 11
2190.0 12 14 12 11 10 13 18 18 15 12
2230.0 18 25 25 25 24 19 19 26 22 16
2270.0 22 21 23 39 43 34 32 27 23 30
2310.0 30 31 35 27 24 28 25 26 21 22
2350.0 21 17 27 33 16 17 27 25 28 35
2390.0 29 23 34 32 17 17 23 21 19 22
2430.0 24 19 18 21 19 14 10 9 14 23
2470.0 19 18 15 11 14 10 8 17 17 18
2510.0 21 19 18 19 32 33 14 13 28 34
2550.0 37 32 34 43 40 35 25 27 38 29
2590.0 32 38 29 29 43 65 67 55 48 58
2630.0 67 61 67 79 91 98 111 125 140 155
2670.0 146 148 149 125 104 102 92 81 88 89
2710.0 94 100 106 107 101 99 100 111 115 114
2750.0 120 119 121 135 145 149 166 179 189 191
2790.0 198 230 265 277 273 301 348 372 402 460
2830.0 550 703 934 1232 1588 1950 2283 2571 2811 3014
2870.0 3236 3407 3452 3408 3298 3176 3100 3117 3278 3618
2910.0 4131 4837 5722 6700 7665 8534 9279 10000 9924 8958
2950.0 8096 7430 7080 7084 7086 6813 5911 4549 3270 2223
2990.0 1485 1071 891 878 1017 1263 1531 1723 1815 1790
3030.0 1627 1407 1213 1082 1057 1163 1402 1732 2036 2228
3070.0 2262 2089 1756 1354 973 706 553 493 454 404
3110.0 336 274 231 206 193 178 167 175 195 186
3150.0 159 152 147 146 132 113 108 104 94 99
3190.0 106 107 106 108 106 96 91 101 110 113
3230.0 96 65 65 59 43 58 66 71 69 45
3270.0 48 59 49 49 44 39 55 65 67 63
3310.0 44 35 42 38 37 37 32 47 42 29
3350.0 27 33 44 27 3 10 29 32 38 35
3390.0 30 42 42 38 50 40 30 33 41 44
3430.0 28 23 29 38 29 23 34 39 31 31
3470.0 39 42 48 40 28 27 17 4 11 32
3510.0 25 14 19 37 55 47 25 15 23 38
3550.0 47 41 26 23 20 32 43 24 10 16
3590.0 39 47 38 29 27 23 34 44 27 31
3630.0 29 16 6 11 22 38 44 26 28 23
3670.0 16 11 9 28 45 46 39 33 35 37
3710.0 54 47 30 38 44 66 46 26 37 32
3750.0 55 62 52 56 49 30 16 37 70 73
3790.0 62 56 60 62 59 49 52 79 75 67
3830.0 63 49 55 60 67
##END=
