##TITLE=4-Hydroxy-9-fluorenone
##JCAMP-DX=4.24
##DATA TYPE=INFRARED SPECTRUM
##ORIGIN=NIST Mass Spectrometry Data Center
##OWNER=NIST Standard Reference Data Program
Collection (C) 2018 copyright by the U.S. Secretary of Commerce
on behalf of the United States of America. All rights reserved.
##CAS REGISTRY NO=1986-00-1
##MOLFORM=C 13 H 8 O 2
##$NIST SOURCE=MSDC-IR
##SPECTROMETER/DATA SYSTEM=HP-GC/MS/IRD
##STATE=gas
##XUNITS=1/CM
##YUNITS=ABSORBANCE
##XFACTOR=1.0
##YFACTOR=0.000000300
##DELTAX=4.0
##FIRSTX=550.0
##LASTX=3846.0
##FIRSTY=0.000145
##MAXX=3846
##MINX=550
##MAXY=0.003
##MINY=0
##NPOINTS=825
##XYDATA=(X++(Y..Y))
550.0 484 156 132 232 286 348 206 429 701 426
590.0 124 9 328 348 390 362 362 281 27 163
630.0 343 408 333 193 196 387 348 109 185 427
670.0 478 537 758 780 578 478 591 503 486 616
710.0 708 1201 2391 3608 5300 6708 5483 3607 2521 1309
750.0 739 832 748 549 738 1163 1331 1075 755 566
790.0 513 505 498 673 845 938 972 883 651 626
830.0 573 464 531 408 387 482 559 641 753 1321
870.0 2117 2506 2399 1900 1285 748 437 443 450 292
910.0 331 449 375 326 227 346 492 412 482 465
950.0 527 794 965 1157 1485 2029 2522 2674 2486 1950
990.0 1279 872 817 765 772 645 391 516 520 375
1030.0 487 383 281 243 140 318 577 668 617 538
1070.0 391 414 606 743 983 1039 863 633 506 465
1110.0 528 593 542 503 509 502 565 877 1304 1706
1150.0 2152 2598 2718 2759 2667 2322 2168 2115 1951 1671
1190.0 1520 1672 1915 2009 1939 1884 1754 1436 1201 1076
1230.0 1051 1316 1686 1954 2406 2930 3472 4132 4470 4365
1270.0 4041 3460 3017 2925 3002 3095 3119 3058 2812 2342
1310.0 1779 1257 907 757 651 529 405 257 259 371
1350.0 435 401 378 427 488 499 422 386 383 351
1390.0 340 277 267 321 342 382 450 494 628 886
1430.0 1162 1387 1514 1628 1762 1846 1775 1745 1761 1809
1470.0 1940 2019 2108 1975 1682 1395 1066 792 608 460
1510.0 408 428 352 284 281 296 271 258 277 323
1550.0 340 310 306 401 500 634 819 1018 1388 2032
1590.0 2844 3681 4363 4668 4335 3634 2957 2321 1803 1340
1630.0 959 669 548 527 499 429 354 383 346 292
1670.0 286 313 386 375 438 533 570 675 844 1120
1710.0 1614 2402 3951 6233 8600 10000 9896 8527 6164 4024
1750.0 2854 2185 1670 1254 816 500 475 403 343 359
1790.0 362 371 319 304 318 279 329 325 242 219
1830.0 268 322 343 357 387 390 262 185 202 205
1870.0 249 242 184 198 288 306 222 192 195 176
1910.0 274 344 345 342 340 348 324 307 305 281
1950.0 321 393 376 320 257 219 225 248 202 88
1990.0 124 231 220 188 199 159 175 176 111 51
2030.0 87 218 230 174 133 139 132 110 148 124
2070.0 152 207 139 121 146 158 179 208 173 160
2110.0 147 147 214 168 182 256 177 184 202 84
2150.0 99 149 133 159 232 231 200 211 192 197
2190.0 187 175 157 181 224 223 269 212 150 217
2230.0 245 199 238 235 160 129 100 139 226 205
2270.0 165 194 155 159 183 117 104 178 272 299
2310.0 230 187 128 43 47 150 133 96 124 193
2350.0 225 193 161 152 141 209 230 144 122 151
2390.0 238 228 128 112 116 185 212 117 108 122
2430.0 115 139 161 182 159 152 187 223 180 140
2470.0 147 148 126 90 116 139 136 190 203 206
2510.0 269 215 131 173 217 236 211 150 156 94
2550.0 15 14 79 132 192 176 161 252 268 187
2590.0 168 209 264 232 205 195 205 200 154 154
2630.0 176 190 143 160 178 179 174 88 104 225
2670.0 183 63 135 210 166 80 74 194 281 316
2710.0 273 218 273 310 306 230 174 189 116 39
2750.0 135 239 207 199 243 240 237 261 298 239
2790.0 180 205 246 251 192 142 97 27 65 227
2830.0 370 352 247 313 331 285 224 134 225 222
2870.0 137 253 343 273 181 115 118 118 146 189
2910.0 88 175 321 226 183 173 150 204 345 492
2950.0 407 211 177 286 332 210 143 98 252 312
2990.0 112 87 253 403 440 403 396 482 545 612
3030.0 572 587 622 581 621 846 1008 1072 1290 1567
3070.0 1639 1571 1545 1501 1339 1036 784 618 528 478
3110.0 383 249 182 155 253 408 410 198 185 291
3150.0 371 439 249 68 134 401 654 580 382 257
3190.0 207 176 174 188 272 300 129 131 193 252
3230.0 331 370 452 276 162 246 265 410 447 284
3270.0 186 95 214 375 322 217 180 274 219 149
3310.0 225 214 190 307 456 269 255 338 307 280
3350.0 120 39 89 164 87 0 96 142 113 85
3390.0 131 217 332 355 334 237 187 337 273 324
3430.0 449 305 190 291 407 429 431 447 435 509
3470.0 587 442 223 189 257 347 273 103 205 326
3510.0 216 165 187 39 111 245 177 146 202 208
3550.0 105 114 100 26 105 110 148 241 256 189
3590.0 159 309 395 295 227 325 324 401 694 921
3630.0 1180 1657 2516 2974 2963 2817 1993 1069 599 347
3670.0 285 340 173 170 309 258 211 277 288 335
3710.0 236 179 257 55 94 323 140 96 378 470
3750.0 289 167 343 288 309 387 234 196 233 364
3790.0 446 411 335 346 286 278 340 247 143 332
3830.0 486 383 211 151 352
##END=
