##TITLE=4-Isothiocyanato-4'-nitrodiphenyl ether
##JCAMP-DX=4.24
##DATA TYPE=INFRARED SPECTRUM
##ORIGIN=EPA-IR VAPOR PHASE LIBRARY
##OWNER=SRD/NIST
Collection (C) 2018 copyright by the U.S. Secretary of Commerce
on behalf of the United States of America. All rights reserved.
##CAS REGISTRY NO=19881-18-6
##MOLFORM=C 13 H 8 N 2 O 3 S
##$NIST SOURCE=MSDC-IR
##STATE=gas
##XUNITS=1/CM
##YUNITS=ABSORBANCE
##XFACTOR=1.
##YFACTOR=0.001
##DELTAX=1.92898
##FIRSTX=549.8
##LASTX=4000.7
##FIRSTY=7.634
##MAXX=4000.7
##MINX=549.759
##MAXY=0.222804
##MINY=0
##NPOINTS=1790
##XYDATA=(X++(Y..Y))
549.759 7.634 7.524 7.124 6.664 6.494 6.484 6.104 5.614 5.034 4.914
569.049 4.954 4.444 4.074 4.044 3.954 3.314 3.124 3.364 3.254 3.184
588.339 2.974 2.884 2.994 2.844 2.804 2.934 2.964 2.954 2.984 3.124
607.628 3.274 3.394 3.354 3.584 3.804 3.654 3.964 4.444 4.504 4.654
626.918 4.874 4.964 5.264 5.344 5.214 5.314 5.264 5.244 5.194 5.124
646.208 5.334 5.344 5.224 5.294 5.304 5.164 5.194 5.274 5.544 6.094
665.498 6.594 6.864 7.014 7.214 7.404 7.224 6.594 6.014 5.484 5.014
684.787 4.814 4.524 4.234 3.984 3.734 3.704 3.624 3.394 3.164 2.954
704.077 2.844 2.564 2.314 2.204 2.094 1.924 1.894 2.014 2.074 2.194
723.367 2.274 2.364 2.284 2.364 2.594 2.914 3.384 3.704 4.374 5.324
742.657 6.014 6.544 7.114 7.544 7.614 7.384 6.724 5.834 5.154 4.564
761.947 3.954 3.494 3.004 2.664 2.634 2.794 2.904 2.944 3.244 3.324
781.236 3.314 3.384 3.234 3.324 3.324 3.114 3.004 2.824 2.734 2.724
800.526 2.824 2.864 2.644 2.824 3.274 3.694 4.324 4.774 5.304 6.194
819.816 7.374 8.944 10.674 12.404 14.054 15.774 17.504 19.134 20.834 22.914
839.106 25.004 26.954 28.654 29.734 29.914 28.644 26.834 25.014 23.294 22.024
858.395 21.214 20.704 21.064 22.024 23.614 27.154 33.014 40.134 45.184 45.394
877.685 40.234 31.704 23.234 16.954 12.984 10.544 8.994 7.874 7.324 7.104
896.975 7.104 7.424 7.664 7.684 7.454 7.424 7.534 7.464 7.454 7.534
916.265 7.604 7.654 7.884 8.224 8.474 8.774 9.184 9.844 10.854 11.944
935.555 12.994 13.674 14.064 14.334 14.334 13.894 13.094 12.274 11.484 10.474
954.844 9.404 8.484 7.474 6.734 6.024 5.284 4.854 4.444 4.124 3.884
974.134 3.714 3.554 3.474 3.314 2.904 2.664 2.644 2.594 2.534 2.434
993.424 2.314 2.464 2.534 2.524 2.944 3.674 4.724 6.224 7.634 8.834
1012.714 8.854 7.574 5.904 3.824 2.504 2.084 1.894 1.824 1.794 1.624
1032.003 1.614 1.684 1.454 1.3736 1.4159 1.504 1.4065 1.2197 1.2621 1.3798
1051.293 1.494 1.321 1.1985 1.2828 1.2366 1.2754 1.0777 1.1916 1.3777 1.3563
1070.583 1.3649 1.444 1.674 1.574 1.964 2.444 2.844 3.694 4.444 4.974
1089.873 6.224 7.394 8.214 9.314 10.034 10.684 11.164 11.614 12.354 12.954
1109.163 13.284 13.404 12.744 11.124 9.194 7.314 5.874 4.844 4.044 3.424
1128.452 3.224 3.244 3.064 2.884 2.954 3.194 3.594 3.684 3.584 4.064
1147.742 4.964 6.194 7.774 9.894 13.514 19.224 25.664 30.314 31.994 29.624
1167.032 23.444 17.244 12.984 10.404 8.934 8.344 8.594 9.004 9.244 10.124
1186.322 11.664 13.274 15.864 19.444 22.634 24.734 25.494 24.634 23.014 21.474
1205.611 20.984 21.844 23.844 27.074 31.374 36.244 40.934 46.504 53.174 61.004
1224.901 71.304 84.604 101.294 122.134 147.134 174.434 199.904 217.914 222.804 212.184
1244.191 189.344 161.604 135.874 116.564 104.524 97.554 92.974 88.534 82.864 75.594
1263.481 67.574 59.544 51.894 45.014 39.304 35.024 31.824 29.574 27.864 26.404
1282.771 25.044 23.964 23.114 21.994 20.714 19.504 18.224 17.004 16.064 15.204
1302.060 14.514 14.034 13.644 13.394 13.384 13.514 13.764 14.224 14.844 15.524
1321.350 16.164 16.764 17.634 18.834 20.514 22.954 26.224 30.454 35.774 42.404
1340.640 50.554 60.214 71.074 81.524 88.904 90.694 85.814 75.564 63.004 51.324
1359.930 41.884 34.644 29.084 24.744 21.374 18.644 16.414 14.614 13.124 11.794
1379.219 10.684 9.814 9.014 8.384 7.844 7.264 6.794 6.414 6.084 5.804
1398.509 5.524 5.344 5.324 5.324 5.364 5.454 5.534 5.634 5.794 5.984
1417.799 6.164 6.244 6.204 6.144 6.214 6.354 6.564 6.944 7.374 7.904
1437.089 8.564 9.324 10.064 10.684 11.244 11.574 11.674 11.624 11.454 11.364
1456.378 11.444 11.594 11.914 12.444 13.204 14.294 15.904 18.114 21.204 25.734
1475.668 32.034 41.154 53.994 71.824 95.034 121.974 148.354 167.364 174.214 169.844
1494.958 159.964 151.664 147.314 141.474 128.234 107.574 82.714 61.524 48.044 39.954
1514.248 35.264 32.644 31.544 31.584 32.624 34.604 37.414 40.974 45.114 49.574
1533.538 53.954 57.684 60.054 60.594 59.274 56.294 52.174 47.584 42.964 38.504
1552.827 34.534 30.854 27.674 24.954 22.614 21.044 20.184 19.824 19.924 20.644
1572.117 22.014 23.684 25.934 29.004 32.694 37.054 41.824 46.744 50.884 53.254
1591.407 53.094 50.274 45.664 40.484 35.854 32.204 29.604 27.864 26.584 25.834
1610.697 25.204 24.264 23.014 21.384 19.394 17.314 15.244 13.334 11.724 10.234
1629.986 8.894 7.824 6.984 6.234 5.664 5.214 4.774 4.514 4.444 4.354
1649.276 4.244 4.174 4.074 3.944 3.854 3.704 3.524 3.344 3.104 2.964
1668.566 2.854 2.674 2.604 2.554 2.434 2.344 2.244 2.224 2.164 2.064
1687.856 2.014 2.004 1.934 1.894 1.924 1.874 1.734 1.634 1.674 1.734
1707.146 1.744 1.694 1.734 1.784 1.814 1.804 1.744 1.754 1.744 1.714
1726.435 1.754 1.794 1.794 1.784 1.774 1.794 1.864 1.924 1.974 2.034
1745.725 2.144 2.294 2.364 2.394 2.544 2.694 2.714 2.744 2.834 2.914
1765.015 3.074 3.144 3.124 3.144 3.074 2.984 2.904 2.724 2.584 2.494
1784.305 2.404 2.384 2.324 2.324 2.314 2.234 2.194 2.204 2.254 2.204
1803.594 2.154 2.224 2.234 2.234 2.304 2.324 2.314 2.334 2.374 2.474
1822.884 2.544 2.474 2.504 2.574 2.604 2.714 2.754 2.834 2.994 3.074
1842.174 3.144 3.334 3.544 3.744 3.954 4.084 4.234 4.374 4.524 4.734
1861.464 4.884 4.894 4.994 5.114 5.224 5.354 5.504 5.694 5.804 5.954
1880.754 6.154 6.274 6.284 6.334 6.394 6.394 6.454 6.484 6.544 6.694
1900.043 6.894 7.144 7.384 7.664 7.954 8.204 8.484 8.754 9.034 9.244
1919.333 9.464 9.804 10.134 10.454 10.854 11.304 11.764 12.304 12.994 13.724
1938.623 14.524 15.464 16.414 17.404 18.484 19.624 20.834 22.094 23.454 24.914
1957.913 26.514 28.214 29.974 31.864 33.904 36.004 38.194 40.544 42.994 45.564
1977.202 48.264 51.034 54.004 57.184 60.494 63.904 67.384 71.144 75.164 79.224
1996.492 83.484 87.964 92.584 97.454 102.684 108.174 113.834 119.854 126.364 133.024
2015.782 139.774 146.854 154.014 161.134 168.234 175.014 181.174 186.754 191.404 194.974
2035.072 197.284 197.724 195.994 191.894 185.164 176.214 166.044 155.324 144.554 134.484
2054.362 125.404 117.224 110.084 104.054 99.024 94.984 91.924 89.834 88.524 88.074
2073.651 88.424 89.494 91.344 94.004 97.274 100.914 104.864 108.564 111.614 113.714
2092.941 114.484 113.674 111.324 107.474 102.304 96.274 89.634 82.834 76.154 69.844
2112.231 64.104 58.944 54.424 50.434 46.994 44.114 41.634 39.554 37.864 36.464
2131.521 35.364 34.534 33.854 33.214 32.684 32.274 31.904 31.474 30.964 30.514
2150.810 29.944 29.254 28.384 27.254 26.114 24.934 23.784 22.574 21.294 20.184
2170.100 19.214 18.314 17.424 16.654 16.064 15.444 14.914 14.524 14.114 13.734
2189.390 13.394 12.964 12.624 12.374 11.964 11.474 10.944 10.554 10.184 9.704
2208.680 9.324 8.904 8.344 7.854 7.414 7.024 6.694 6.324 5.974 5.654
2227.970 5.324 4.964 4.644 4.394 4.134 3.954 3.824 3.574 3.374 3.264
2247.259 3.164 3.084 3.054 3.004 2.934 2.924 2.844 2.764 2.794 2.814
2266.549 2.734 2.654 2.584 2.494 2.494 2.464 2.394 2.324 2.174 2.074
2285.839 1.994 1.904 1.814 1.754 1.684 1.664 1.674 1.604 1.624 1.654
2305.129 1.554 1.474 1.454 1.464 1.514 1.464 1.474 1.544 1.514 1.484
2324.418 1.474 1.4179 1.4035 1.3873 1.3898 1.434 1.3547 1.3357 1.4023 1.424
2343.708 1.422 1.409 1.424 1.504 1.564 1.594 1.664 1.714 1.754 1.864
2362.998 1.804 1.704 1.824 1.844 1.824 1.944 1.984 1.974 2.014 2.034
2382.288 2.044 2.144 2.234 2.254 2.224 2.264 2.404 2.514 2.524 2.564
2401.578 2.564 2.504 2.464 2.404 2.384 2.384 2.394 2.424 2.524 2.654
2420.867 2.754 2.834 2.884 2.914 2.994 3.074 3.184 3.294 3.334 3.264
2440.157 3.244 3.304 3.344 3.374 3.364 3.384 3.454 3.524 3.484 3.394
2459.447 3.424 3.404 3.284 3.234 3.174 3.134 3.084 2.924 2.814 2.774
2478.737 2.754 2.734 2.644 2.554 2.544 2.504 2.454 2.424 2.364 2.304
2498.026 2.304 2.324 2.294 2.304 2.334 2.284 2.184 2.074 2.064 2.084
2517.316 2.034 2.004 2.074 2.164 2.164 2.194 2.224 2.194 2.144 2.184
2536.606 2.164 2.124 2.234 2.334 2.374 2.384 2.454 2.474 2.524 2.574
2555.896 2.634 2.714 2.804 2.834 2.824 2.894 2.974 3.104 3.204 3.144
2575.186 3.164 3.294 3.334 3.404 3.404 3.334 3.284 3.224 3.124 2.964
2594.475 2.764 2.684 2.624 2.464 2.344 2.324 2.274 2.174 1.994 1.964
2613.765 1.994 1.954 1.864 1.804 1.754 1.724 1.754 1.684 1.634 1.614
2633.055 1.604 1.634 1.714 1.724 1.734 1.704 1.644 1.684 1.724 1.744
2652.345 1.734 1.704 1.624 1.564 1.594 1.704 1.754 1.694 1.614 1.524
2671.634 1.524 1.614 1.684 1.844 1.884 1.894 2.034 2.064 2.054 2.164
2690.924 2.174 2.174 2.344 2.524 2.644 2.694 2.774 2.804 2.814 2.814
2710.214 2.794 2.834 2.894 2.914 2.854 2.724 2.674 2.684 2.554 2.444
2729.504 2.314 2.124 2.114 2.104 1.944 1.774 1.674 1.644 1.644 1.644
2748.794 1.514 1.3969 1.3892 1.3574 1.403 1.424 1.424 1.3519 1.3585 1.4175
2768.083 1.3188 1.2951 1.3105 1.2572 1.2036 1.1709 1.1789 1.1572 1.1325 1.1911
2787.373 1.2108 1.1662 1.0642 0.9091 0.883 1.0054 1.0032 1.0028 1.0368 0.969
2806.663 0.9924 1.0626 1.1599 1.1294 1.1239 1.1699 1.141 1.2006 1.219 1.2675
2825.953 1.434 1.474 1.418 1.434 1.4217 1.534 1.564 1.534 1.634 1.614
2845.242 1.544 1.554 1.524 1.574 1.584 1.514 1.544 1.594 1.694 1.664
2864.532 1.614 1.694 1.734 1.674 1.704 1.854 1.974 1.994 1.924 1.894
2883.822 1.774 1.574 1.594 1.624 1.594 1.464 1.454 1.514 1.3613 1.2816
2903.112 1.2741 1.296 1.2374 1.2058 1.3894 1.3748 1.2368 1.2238 1.2518 1.235
2922.401 1.1964 1.2248 1.2045 1.2126 1.3051 1.3405 1.3554 1.3657 1.3122 1.3355
2941.691 1.4227 1.444 1.4053 1.444 1.444 1.474 1.504 1.444 1.3821 1.3644
2960.981 1.454 1.624 1.634 1.504 1.484 1.504 1.544 1.604 1.614 1.614
2980.271 1.614 1.524 1.504 1.544 1.554 1.474 1.454 1.484 1.3649 1.2609
2999.561 1.1761 1.1404 1.174 1.1361 0.9843 0.989 1.043 1.0549 1.1154 1.0277
3018.850 1.0123 1.0666 1.0664 1.1168 1.2877 1.4217 1.3947 1.3999 1.494 1.764
3038.140 2.084 2.314 2.554 2.754 3.014 3.454 3.664 3.604 3.384 2.984
3057.430 2.534 2.184 1.984 1.874 1.944 1.944 1.904 2.074 2.294 2.504
3076.720 2.634 2.794 2.974 3.194 3.454 3.644 3.674 3.594 3.414 2.864
3096.009 2.264 1.974 1.804 1.674 1.564 1.3383 1.2232 1.3173 1.3254 1.2809
3115.299 1.2429 1.1176 0.9771 0.8863 0.8545 0.8535 0.6587 0.5325 0.6616 0.5593
3134.589 0.3882 0.3963 0.4009 0.3845 0.425846 0.50667 0.47413 0.3556 0.345 0.321
3153.879 0.3433 0.39 0.3844 0.42815 0.41851 0.42195 0.3265 0.257 0.269 0.339
3173.169 0.322 0.31 0.3874 0.32 0.3405 0.3761 0.46816 0.42276 0.275 0.283
3192.458 0.3673 0.424339 0.3297 0.3418 0.316 0.283 0.41439 0.48932 0.50063 0.44414
3211.748 0.52358 0.45473 0.3579 0.43991 0.3265 0.431549 0.5523 0.45303 0.45301 0.3496
3231.038 0.305 0.3561 0.122 0.073 0.3379 0.41535 0.256 0.092 0.053 0.055
3250.328 0.117 0.156 0.249 0.308 0.184 0.166 0.176 0.164 0.196 0.208
3269.617 0.201 0.086 0.088 0.046 0 0.163 0.24 0.25 0.182 0.172
3288.907 0.196 0.286 0.50139 0.3486 0.248 0.21 0.091 0.178 0.257 0.303
3308.197 0.239 0.156 0.28 0.3998 0.142 0.068 0.291 0.3253 0.126 0.036
3327.487 0.197 0.149 0.122 0.281 0.32 0.3637 0.426773 0.3985 0.3351 0.299
3346.777 0.272 0.277 0.3346 0.3274 0.256 0.183 0.147 0.233 0.4054 0.3667
3366.066 0.142 0.231 0.286 0.13 0.12 0.157 0.178 0.188 0.161 0.022
3385.356 0.106 0.298 0.201 0.11 0.259 0.293 0.212 0.212 0.295 0.3707
3404.646 0.185 0.168 0.238 0.265 0.314 0.179 0.197 0.387 0.3987 0.144
3423.936 0.25 0.41722 0.257 0.182 0.178 0.282 0.255 0.202 0.198 0.301
3443.225 0.351 0.289 0.21 0.167 0.237 0.266 0.251 0.233 0.303 0.3565
3462.515 0.304 0.216 0.261 0.258 0.265 0.45875 0.48696 0.3435 0.3773 0.297
3481.805 0.102 0.136 0.101 0.195 0.292 0.156 0.3284 0.3508 0.184 0.289
3501.095 0.288 0.159 0.175 0.263 0.255 0.206 0.134 0.096 0.227 0.31
3520.385 0.235 0.225 0.28 0.246 0.238 0.3407 0.392 0.3666 0.4139 0.319
3539.674 0.272 0.3511 0.3663 0.3242 0.3458 0.3872 0.288 0.292 0.3345 0.27
3558.964 0.3273 0.319 0.222 0.285 0.314 0.317 0.237 0.146 0.286 0.3815
3578.254 0.3473 0.311 0.195 0.239 0.266 0.293 0.273 0.228 0.41705 0.51483
3597.544 0.43546 0.27 0.155 0.142 0.241 0.3447 0.423727 0.48456 0.433868 0.3424
3616.833 0.3458 0.3686 0.3349 0.3621 0.3571 0.3284 0.43944 0.52196 0.47127 0.48004
3636.123 0.41837 0.265 0.304 0.3804 0.301 0.3244 0.337 0.3516 0.46388 0.4092
3655.413 0.296 0.185 0.168 0.3605 0.296 0.131 0.228 0.199 0.213 0.196
3674.703 0.117 0.3745 0.4129 0.241 0.165 0.187 0.298 0.3406 0.319 0.287
3693.993 0.4094 0.5983 0.5963 0.433043 0.3442 0.3816 0.3661 0.3794 0.428638 0.324
3713.282 0.28 0.41435 0.44663 0.3432 0.3603 0.432108 0.42093 0.42099 0.3845 0.45356
3732.572 0.427054 0.239 0.389 0.5342 0.3979 0.47404 0.52151 0.3764 0.274 0.316
3751.862 0.3915 0.3792 0.425665 0.428543 0.41684 0.43492 0.3927 0.424777 0.430638 0.379
3771.152 0.46919 0.3636 0.262 0.427356 0.3635 0.3433 0.47223 0.5601 0.4815 0.431462
3790.441 0.43503 0.431845 0.46812 0.328 0.3405 0.3261 0.3615 0.5787 0.6432 0.3521
3809.731 0.23 0.46672 0.49741 0.49539 0.48866 0.4 0.376 0.3719 0.266 0.197
3829.021 0.3562 0.3944 0.295 0.258 0.284 0.323 0.288 0.176 0.256 0.4036
3848.311 0.50413 0.612 0.5489 0.42041 0.49547 0.48374 0.281 0.238 0.3747 0.6225
3867.601 0.51455 0.3266 0.5439 0.6771 0.5651 0.5688 0.7651 0.6725 0.47765 0.5306
3886.890 0.6538 0.6689 0.5735 0.48077 0.5467 0.6317 0.6857 0.6744 0.7381 0.8428
3906.180 0.7019 0.6977 0.6445 0.51941 0.6325 0.6211 0.6275 0.6574 0.6217 0.7544
3925.470 0.9057 0.8185 0.6128 0.5679 0.7278 0.7589 0.7373 0.8671 0.889 0.8148
3944.760 0.7227 0.795 0.8477 0.8305 0.962 1.0204 0.9407 0.78 0.723 0.8619
3964.049 0.9674 0.8917 0.7241 0.7871 0.8754 0.8105 0.721 0.9385 1.1434 0.8939
3983.339 0.966 1.183 1.1877 1.1619 1.0834 1.1368 1.2553 1.26 1.1413 1.105
##END=
