##TITLE=3-Methoxyphenylacetonitrile
##JCAMP-DX=4.24
##DATA TYPE=INFRARED SPECTRUM
##ORIGIN=EPA-IR VAPOR PHASE LIBRARY
##OWNER=SRD/NIST
Collection (C) 2018 copyright by the U.S. Secretary of Commerce
on behalf of the United States of America. All rights reserved.
##CAS REGISTRY NO=19924-43-7
##MOLFORM=C 9 H 9 N O
##$NIST SOURCE=MSDC-IR
##STATE=gas
##XUNITS=1/CM
##YUNITS=ABSORBANCE
##XFACTOR=1.
##YFACTOR=0.001
##DELTAX=1.92898
##FIRSTX=549.8
##LASTX=4000.7
##FIRSTY=2.181
##MAXX=4000.7
##MINX=549.759
##MAXY=0.054051
##MINY=0
##NPOINTS=1790
##XYDATA=(X++(Y..Y))
549.759 2.181 2.021 2.201 2.461 2.551 2.571 2.461 2.311 2.161 1.851
569.049 1.481 1.501 1.521 1.07 0.9737 1.2381 1.1279 0.9046 0.9338 0.9611
588.339 0.7444 0.7059 0.7001 0.7782 0.7881 0.6755 0.5852 0.551 0.6224 0.6603
607.628 0.7993 0.5458 0.33605 0.5765 0.5714 0.3605 0.3957 0.5331 0.6332 0.7274
626.918 0.8531 0.8902 0.7462 0.5678 0.6002 0.7146 0.7314 0.9314 1.0043 0.7759
646.208 0.7264 0.8274 0.8282 0.8563 1.0298 0.9921 1.0058 1.1361 1.271 1.521
665.498 1.671 2.101 2.521 3.081 4.011 4.741 5.671 6.621 7.411 8.361
684.787 9.531 10.951 11.881 11.611 10.811 9.981 9.111 8.391 7.691 6.871
704.077 6.091 5.231 4.681 4.371 3.911 3.861 3.911 3.801 3.701 3.781
723.367 4.091 4.481 4.921 5.211 5.581 6.181 6.561 6.781 7.011 7.061
742.657 7.191 7.311 7.201 7.201 7.531 8.021 8.141 8.301 8.761 9.221
761.947 9.851 10.611 11.461 12.181 13.051 13.621 14.031 14.641 14.761 14.791
781.236 14.531 13.291 11.811 10.581 9.231 7.921 6.781 5.831 4.891 3.941
800.526 3.271 2.701 2.211 1.831 1.561 1.451 1.401 1.451 1.471 1.431
819.816 1.511 1.561 1.641 1.781 2.231 2.631 2.761 2.891 3.071 3.391
839.106 3.801 3.991 3.861 3.891 4.121 4.361 4.431 4.591 4.951 5.201
858.395 5.251 5.181 5.191 5.281 5.521 5.751 5.841 5.991 6.021 6.041
877.685 6.021 5.801 5.641 5.341 4.781 4.561 4.301 3.741 3.291 2.951
896.975 2.741 2.461 2.231 2.241 2.181 2.161 2.301 2.301 2.311 2.531
916.265 2.671 2.791 3.031 3.101 3.111 3.041 2.941 2.971 3.011 2.911
935.555 2.881 2.811 2.731 2.881 2.781 2.571 2.501 2.621 2.621 2.451
954.844 2.341 2.231 2.201 2.061 2.051 2.151 2.021 1.681 1.551 1.711
974.134 1.781 1.981 2.051 1.941 2.081 2.231 2.391 2.581 2.711 3.011
993.424 3.161 3.331 3.501 3.361 3.291 3.391 3.261 3.191 3.331 3.501
1012.714 3.741 4.101 4.641 5.291 6.021 6.811 7.801 9.011 10.721 12.541
1032.003 14.221 16.141 18.001 19.921 21.751 23.321 24.571 25.491 26.001 26.151
1051.293 25.861 25.061 24.041 22.451 20.291 18.141 15.851 13.471 11.211 9.441
1070.583 7.941 6.931 6.301 5.541 5.241 5.181 4.941 4.711 4.961 4.931
1089.873 4.491 4.271 4.051 3.571 2.961 2.721 2.621 2.611 2.781 2.581
1109.163 2.751 3.031 2.481 2.211 2.581 2.951 3.261 3.311 3.601 4.181
1128.452 4.851 5.721 6.711 8.231 9.961 11.851 14.301 16.791 19.041 20.941
1147.742 22.561 23.781 24.541 25.031 25.051 24.151 22.741 21.221 19.461 17.751
1167.032 16.331 15.161 13.701 12.041 10.721 9.281 7.691 6.711 6.141 5.771
1186.322 5.101 4.571 4.411 4.381 4.361 4.311 4.041 3.861 4.091 4.181
1205.611 4.401 4.901 5.161 5.361 5.541 5.831 6.461 7.191 7.871 8.371
1224.901 9.021 9.811 10.771 11.741 12.641 13.811 15.531 17.911 20.591 23.341
1244.191 26.431 29.891 33.751 37.801 41.801 45.641 49.131 51.891 53.401 54.041
1263.481 54.051 53.001 51.351 49.241 46.461 43.701 40.911 37.971 35.451 33.341
1282.771 31.441 29.861 28.561 27.321 26.161 25.091 24.081 23.271 22.561 21.881
1302.060 21.261 20.761 20.291 19.721 19.111 18.331 17.341 16.361 15.361 14.201
1321.350 13.051 12.041 11.211 10.491 9.881 9.421 8.951 8.451 7.871 7.221
1340.640 6.701 6.161 5.481 4.831 4.241 3.661 3.231 2.891 2.551 2.331
1359.930 2.181 2.021 1.931 1.881 1.811 1.771 1.801 1.851 1.921 1.921
1379.219 1.971 2.061 2.201 2.361 2.481 2.631 2.841 3.051 3.271 3.441
1398.509 3.651 3.931 4.211 4.501 4.801 5.121 5.531 6.031 6.641 7.501
1417.799 8.631 10.011 11.501 12.941 14.491 16.271 18.131 20.011 21.691 22.771
1437.089 23.321 23.511 23.431 23.161 22.721 22.101 21.421 20.671 19.991 19.661
1456.378 19.711 20.101 20.641 21.171 21.361 21.131 20.741 20.571 20.901 21.881
1475.668 23.401 25.321 27.591 30.211 33.001 35.461 36.991 37.501 37.201 36.081
1494.958 34.141 31.281 27.421 23.051 19.001 15.701 12.981 10.971 9.581 8.451
1514.248 7.571 6.921 6.471 6.131 5.741 5.361 5.081 4.891 4.721 4.601
1533.538 4.461 4.381 4.461 4.491 4.501 4.551 4.541 4.551 4.721 4.951
1552.827 5.151 5.321 5.581 5.941 6.411 6.891 7.501 8.231 9.131 10.381
1572.117 11.801 13.601 15.741 18.131 20.761 23.461 26.111 28.861 31.741 34.821
1591.407 38.041 41.161 44.131 46.851 49.021 50.361 50.801 50.281 48.581 45.611
1610.697 41.831 37.581 32.991 28.381 24.031 20.191 16.771 13.781 11.371 9.351
1629.986 7.681 6.481 5.601 4.841 4.251 3.751 3.371 3.071 2.791 2.631
1649.276 2.491 2.441 2.331 2.071 1.881 1.821 1.791 1.771 1.731 1.711
1668.566 1.621 1.581 1.551 1.501 1.511 1.431 1.401 1.401 1.401 1.361
1687.856 1.321 1.311 1.351 1.411 1.461 1.481 1.471 1.511 1.541 1.561
1707.146 1.571 1.541 1.581 1.721 1.741 1.701 1.731 1.771 1.781 1.791
1726.435 1.771 1.751 1.691 1.621 1.581 1.501 1.481 1.451 1.361 1.2548
1745.725 1.2396 1.281 1.2596 1.203 1.1287 1.0955 1.0506 1.0304 1.0164 0.9678
1765.015 0.9495 0.9612 0.9196 0.8718 0.872 0.8848 0.8638 0.8232 0.858 0.8708
1784.305 0.8348 0.8588 0.8653 0.8569 0.914 0.8945 0.8841 0.9577 0.9731 0.9766
1803.594 1.0103 1.0073 0.9893 1.0024 1.0449 1.0554 1.0464 1.069 1.0781 1.0786
1822.884 1.1045 1.1115 1.0983 1.1375 1.1928 1.1869 1.1716 1.1672 1.2436 1.2333
1842.174 1.2339 1.281 1.2035 1.1548 1.0971 1.0179 0.9472 0.9406 0.9763 0.925
1861.464 0.8462 0.8803 0.8427 0.7915 0.811 0.8721 0.8871 0.8377 0.8744 0.8778
1880.754 0.8538 0.9003 0.9479 0.9663 0.9921 1.0197 0.9861 0.966 1.0012 1.0257
1900.043 1.0291 1.0147 1.095 1.1648 1.1573 1.1995 1.2626 1.311 1.321 1.381
1919.333 1.421 1.391 1.371 1.351 1.371 1.351 1.2539 1.1668 1.1074 1.0481
1938.623 0.9826 0.8849 0.8017 0.7446 0.708 0.6799 0.6903 0.696 0.6791 0.6841
1957.913 0.6993 0.6485 0.6154 0.696 0.7454 0.7908 0.7671 0.7358 0.7775 0.8231
1977.202 0.8476 0.8668 0.8968 0.8956 0.9023 0.964 1.0538 1.0761 1.0785 1.0257
1996.492 0.9937 1.0286 0.9937 0.956 0.9613 0.9361 0.9384 0.9887 1.0126 0.9668
2015.782 0.9332 0.963 0.936 0.8897 0.9328 0.9592 0.9218 0.8628 0.8249 0.8552
2035.072 0.891 0.9272 0.9496 0.9562 0.937 0.9666 0.9633 0.8471 0.8526 0.9157
2054.362 0.9222 0.9507 0.9567 0.9229 0.9096 0.9118 0.9248 0.9195 0.8589 0.9
2073.651 0.9204 0.9273 0.9977 0.9853 0.9164 0.8631 0.8615 0.8692 0.9227 0.9677
2092.941 0.977 0.9881 0.9515 0.8691 0.8637 0.8737 0.8894 0.8704 0.7586 0.7509
2112.231 0.7565 0.7393 0.7289 0.6873 0.6729 0.7103 0.7467 0.7515 0.7271 0.685
2131.521 0.6577 0.6666 0.6879 0.7096 0.6776 0.6116 0.6525 0.6864 0.642 0.6576
2150.810 0.6295 0.5849 0.6152 0.63 0.6095 0.6047 0.6225 0.6571 0.6012 0.5918
2170.100 0.6473 0.6233 0.6656 0.6924 0.6931 0.7269 0.716 0.6833 0.7055 0.7869
2189.390 0.8003 0.6973 0.666 0.7442 0.7932 0.7876 0.7469 0.7339 0.7598 0.7669
2208.680 0.8004 0.7743 0.7272 0.7003 0.6414 0.6349 0.6104 0.6216 0.6486 0.623
2227.970 0.6438 0.6772 0.6846 0.6397 0.6593 0.6429 0.6519 0.7745 0.848 0.9413
2247.259 1.0742 1.1721 1.1707 1.1531 1.1456 1.158 1.2007 1.1485 1.0503 0.9937
2266.549 0.8757 0.817 0.7874 0.7472 0.7259 0.64 0.5602 0.4826 0.4419 0.4182
2285.839 0.4913 0.5712 0.5575 0.509 0.474 0.4678 0.4531 0.5034 0.5285 0.5144
2305.129 0.5456 0.5895 0.601 0.6788 0.6911 0.6543 0.7112 0.6994 0.7192 0.7731
2324.418 0.7713 0.7687 0.8135 0.809 0.7579 0.8444 0.9174 0.8514 0.7777 0.7625
2343.708 0.8199 0.8331 0.8307 0.825 0.8161 0.8202 0.739 0.6692 0.613 0.5738
2362.998 0.6179 0.6379 0.6568 0.5592 0.5013 0.5068 0.4686 0.522 0.5389 0.5204
2382.288 0.4749 0.5005 0.5495 0.5 0.4721 0.4705 0.5183 0.6121 0.6071 0.5832
2401.578 0.5979 0.5754 0.5374 0.5193 0.5049 0.5758 0.5721 0.5664 0.5963 0.5553
2420.867 0.6579 0.6854 0.5989 0.6229 0.6264 0.5942 0.5505 0.4965 0.4944 0.5115
2440.157 0.5211 0.5727 0.5723 0.5612 0.6076 0.5585 0.5095 0.5215 0.5796 0.5208
2459.447 0.4713 0.5884 0.5426 0.4491 0.5527 0.6166 0.6026 0.6483 0.6156 0.5621
2478.737 0.5344 0.5186 0.5679 0.5792 0.5632 0.5693 0.6238 0.6118 0.615 0.6794
2498.026 0.671 0.6007 0.6017 0.6376 0.6665 0.6886 0.7308 0.8035 0.8145 0.7635
2517.316 0.7381 0.7624 0.7555 0.8208 0.8501 0.8879 0.9175 0.8348 0.8102 0.8132
2536.606 0.8465 0.8479 0.8252 0.8209 0.8381 0.8581 0.8335 0.9496 0.9839 0.853
2555.896 0.7941 0.8177 0.8923 0.9365 0.8763 0.7873 0.7578 0.8468 0.8644 0.8023
2575.186 0.8087 0.8301 0.9287 0.9594 0.9565 0.8986 0.8456 0.8287 0.7815 0.8325
2594.475 0.847 0.8549 0.836 0.8061 0.779 0.7723 0.7293 0.6876 0.7144 0.6885
2613.765 0.6174 0.5995 0.63 0.5752 0.6576 0.6666 0.6164 0.6879 0.7142 0.7442
2633.055 0.7414 0.6516 0.6119 0.646 0.6895 0.615 0.5277 0.6069 0.5594 0.4787
2652.345 0.4952 0.5211 0.5633 0.5718 0.4437 0.4192 0.5243 0.5211 0.5146 0.4581
2671.634 0.3869 0.4623 0.5225 0.4908 0.4079 0.3792 0.4065 0.3889 0.4476 0.549
2690.924 0.5719 0.516 0.4995 0.4794 0.5053 0.6294 0.5997 0.5165 0.5563 0.5398
2710.214 0.5463 0.6258 0.6763 0.5994 0.5629 0.7326 0.771 0.6975 0.7637 0.7261
2729.504 0.6357 0.6697 0.6263 0.5931 0.6161 0.6935 0.7475 0.7607 0.7917 0.7753
2748.794 0.7514 0.7837 0.8886 0.841 0.7291 0.7884 0.8181 0.758 0.7223 0.6758
2768.083 0.6611 0.707 0.7956 0.8375 0.8261 0.8783 0.9128 0.9553 1.0388 1.0757
2787.373 1.0238 0.9886 1.014 1.027 1.053 1.1979 1.1223 1.0122 1.2634 1.471
2806.663 1.501 1.491 1.521 1.631 1.791 1.941 2.131 2.351 2.621 2.861
2825.953 3.091 3.431 3.951 4.591 5.181 5.971 6.911 7.761 8.421 8.851
2845.242 9.141 9.361 9.291 9.031 8.511 7.691 6.901 6.121 5.381 4.881
2864.532 4.501 4.231 4.051 3.861 3.761 3.691 3.691 3.781 3.781 3.831
2883.822 3.981 4.111 4.231 4.381 4.611 4.791 4.981 5.301 5.551 5.631
2903.112 5.911 6.351 6.681 6.991 7.251 7.621 8.121 8.421 8.791 9.221
2922.401 9.521 9.721 9.941 10.301 10.701 11.061 11.581 12.231 12.831 13.511
2941.691 14.191 14.791 15.351 15.701 15.791 15.681 15.511 15.221 14.671 14.121
2960.981 13.561 12.951 12.081 11.121 10.351 9.681 8.941 8.351 7.911 7.391
2980.271 6.871 6.441 6.221 6.061 6.021 6.041 6.181 6.551 6.971 7.541
2999.561 8.281 9.161 10.111 10.961 11.521 11.671 11.641 11.471 11.121 10.631
3018.850 9.911 9.001 7.971 7.201 6.641 6.191 6.111 6.221 6.071 6.031
3038.140 6.321 6.391 6.461 6.551 6.591 6.781 6.861 6.871 7.051 7.291
3057.430 7.381 7.221 7.151 7.171 7.111 7.071 6.941 6.811 6.731 6.661
3076.720 6.521 6.371 6.271 6.041 5.801 5.651 5.401 5.121 4.721 4.271
3096.009 3.931 3.511 3.201 3.021 2.831 2.701 2.531 2.401 2.321 2.131
3115.299 1.941 1.791 1.661 1.631 1.601 1.371 1.2676 1.2199 1.0414 1.0694
3134.589 1.0576 0.9694 0.9211 0.902 0.8775 0.8064 0.759 0.7893 0.8244 0.7371
3153.879 0.7035 0.5079 0.5148 0.7034 0.6647 0.6264 0.6154 0.7381 0.7676 0.7371
3173.169 0.7609 0.8185 0.8174 0.6898 0.6979 0.6778 0.5999 0.6968 0.7866 0.7519
3192.458 0.6286 0.5685 0.6545 0.657 0.6793 0.6175 0.563 0.6484 0.6951 0.6968
3211.748 0.614 0.5659 0.5208 0.4506 0.4456 0.4543 0.463 0.4378 0.4077 0.4243
3231.038 0.4278 0.32388 0.32697 0.4564 0.432 0.2334 0.29748 0.4162 0.34262 0.3095
3250.328 0.33459 0.33767 0.2891 0.32396 0.32429 0.4015 0.4819 0.379 0.28467 0.29856
3269.617 0.2511 0.32272 0.30448 0.136 0.2304 0.280416 0.2473 0.274997 0.276181 0.141
3288.907 0 0.1986 0.31784 0.169 0.2034 0.278807 0.2139 0.2243 0.1826 0.151
3308.197 0.30173 0.33302 0.3759 0.4046 0.2489 0.2166 0.25 0.16 0.2315 0.4058
3327.487 0.36415 0.3751 0.4363 0.2511 0.096 0.2365 0.34694 0.32384 0.2596 0.2553
3346.777 0.2581 0.2299 0.2348 0.30586 0.3842 0.3754 0.2279 0.247 0.36543 0.35056
3366.066 0.33139 0.26999 0.276169 0.36031 0.412 0.33672 0.28368 0.31893 0.31784 0.332
3385.356 0.3778 0.428 0.4295 0.4095 0.4047 0.3922 0.30411 0.2588 0.4248 0.33849
3404.646 0.275949 0.2477 0.1784 0.2076 0.237 0.2459 0.2464 0.33698 0.35384 0.29433
3423.936 0.2329 0.34914 0.4157 0.33194 0.30077 0.1749 0.1831 0.33881 0.28817 0.34992
3443.225 0.35468 0.33796 0.4111 0.45 0.6825 0.7065 0.5178 0.270506 0.2531 0.4328
3462.515 0.36966 0.32484 0.4338 0.28957 0.1851 0.4516 0.5463 0.32709 0.1928 0.2387
3481.805 0.1885 0.31569 0.404 0.202 0.2202 0.35709 0.228 0.2534 0.34369 0.2479
3501.095 0.36953 0.5274 0.3978 0.2434 0.33972 0.4202 0.4146 0.4437 0.36669 0.32341
3520.385 0.32274 0.33598 0.4997 0.5322 0.4122 0.33925 0.2402 0.3659 0.436 0.33272
3539.674 0.26903 0.30785 0.4666 0.34825 0.33086 0.4925 0.3929 0.35108 0.4249 0.34931
3558.964 0.31064 0.4048 0.4772 0.36321 0.35954 0.4021 0.2262 0.158 0.26996 0.4133
3578.254 0.3993 0.4428 0.4139 0.2341 0.2331 0.2472 0.29074 0.3765 0.2606 0.27872
3597.544 0.3905 0.5052 0.4285 0.2374 0.273732 0.26812 0.1795 0.1999 0.28906 0.2415
3616.833 0.276514 0.4465 0.4119 0.1989 0.2493 0.4146 0.3378 0.277035 0.33184 0.35229
3636.123 0.1822 0.29696 0.5414 0.4267 0.35204 0.4363 0.464 0.28637 0.34028 0.3732
3655.413 0.1751 0.29525 0.3811 0.35184 0.42 0.36668 0.36455 0.4334 0.31252 0.1912
3674.703 0.30449 0.34312 0.34965 0.35298 0.36203 0.4765 0.4472 0.3151 0.26644 0.2481
3693.993 0.26113 0.2335 0.31132 0.4358 0.4258 0.31082 0.158 0.1788 0.3773 0.4013
3713.282 0.3613 0.35139 0.35089 0.32547 0.35235 0.3462 0.2325 0.2359 0.2333 0.32222
3732.572 0.3821 0.3711 0.4277 0.5126 0.35375 0.146 0.33732 0.5495 0.3854 0.31898
3751.862 0.33911 0.2419 0.32507 0.3972 0.26289 0.271931 0.35969 0.36488 0.4124 0.3816
3771.152 0.3796 0.4001 0.377 0.3963 0.5162 0.4352 0.30168 0.274584 0.2311 0.188
3790.441 0.26256 0.4874 0.5357 0.35832 0.37076 0.5439 0.5318 0.489 0.586 0.684
3809.731 0.5435 0.4828 0.4669 0.30103 0.28519 0.399 0.3728 0.3771 0.4963 0.4345
3829.021 0.36184 0.3883 0.34978 0.4896 0.6316 0.4935 0.3168 0.32929 0.4452 0.4599
3848.311 0.3845 0.4655 0.612 0.5445 0.4411 0.34829 0.279516 0.2891 0.376 0.447
3867.601 0.4648 0.36431 0.2578 0.31238 0.4358 0.26981 0.1997 0.4147 0.4664 0.4421
3886.890 0.32114 0.34154 0.36289 0.2548 0.3877 0.4493 0.4866 0.6118 0.573 0.4998
3906.180 0.4328 0.29091 0.2454 0.26824 0.30086 0.3762 0.4751 0.6265 0.4999 0.4105
3925.470 0.4498 0.3904 0.32117 0.409 0.5308 0.4823 0.3748 0.26801 0.26567 0.32233
3944.760 0.29986 0.32084 0.3983 0.4838 0.5054 0.5018 0.5485 0.6576 0.6357 0.5613
3964.049 0.4488 0.34683 0.4371 0.4908 0.4345 0.3917 0.4213 0.3756 0.280614 0.30437
3983.339 0.2388 0.2597 0.36775 0.28536 0.4269 0.6025 0.5512 0.4713 0.4545 0.5636
##END=
