##TITLE=3-Phenyl-1-pentene
##JCAMP-DX=4.24
##DATA TYPE=INFRARED SPECTRUM
##ORIGIN=NIST Mass Spectrometry Data Center
##OWNER=NIST Standard Reference Data Program
Collection (C) 2018 copyright by the U.S. Secretary of Commerce
on behalf of the United States of America. All rights reserved.
##CAS REGISTRY NO=19947-22-9
##MOLFORM=C 11 H 14
##$NIST SOURCE=MSDC-IR
##SPECTROMETER/DATA SYSTEM=HP-GC/MS/IRD
##STATE=gas
##XUNITS=1/CM
##YUNITS=ABSORBANCE
##XFACTOR=1.0
##YFACTOR=0.000002100
##DELTAX=4.0
##FIRSTX=550.0
##LASTX=3846.0
##FIRSTY=0.001115
##MAXX=3846
##MINX=550
##MAXY=0.021
##MINY=0
##NPOINTS=825
##XYDATA=(X++(Y..Y))
550.0 531 389 290 232 257 242 203 179 174 186
590.0 159 155 218 268 299 331 321 305 290 258
630.0 224 201 220 247 271 310 406 558 684 808
670.0 1052 1414 1877 2561 3486 4592 5696 6488 6580 5928
710.0 4842 3642 2630 1913 1459 1188 1040 977 986 1050
750.0 1250 1616 2121 2732 3311 3685 3650 3160 2448 1773
790.0 1250 900 666 518 404 316 244 189 134 117
830.0 152 172 182 218 260 306 371 445 534 667
870.0 865 1150 1548 2085 2815 3657 4504 5136 5024 4244
910.0 3267 2281 1474 926 625 469 360 293 239 193
950.0 170 150 115 84 64 59 63 45 31 44
990.0 57 61 70 94 147 223 395 705 989 1094
1030.0 1047 855 560 367 327 356 435 522 590 641
1070.0 659 662 632 572 508 443 404 380 372 383
1110.0 390 394 392 363 297 215 137 76 37 24
1150.0 10 11 9 2 0 16 51 82 104 107
1190.0 102 77 41 42 68 94 125 150 179 197
1230.0 216 225 237 244 247 279 324 370 410 457
1270.0 508 542 602 668 726 793 859 892 871 835
1310.0 787 711 619 526 458 423 414 409 411 415
1350.0 417 429 464 514 582 677 795 922 1023 1051
1390.0 1024 957 887 856 852 871 895 928 1001 1101
1430.0 1220 1359 1523 1696 1833 1936 1983 1995 1970 1885
1470.0 1777 1673 1656 1795 2060 2258 2228 1963 1517 986
1510.0 632 491 404 373 368 367 356 324 315 322
1550.0 315 324 352 437 537 620 694 767 864 983
1590.0 1143 1313 1421 1449 1422 1409 1487 1694 1945 2107
1630.0 2103 1901 1551 1154 797 540 387 318 273 252
1670.0 243 250 259 243 212 185 148 103 84 91
1710.0 95 89 91 118 146 161 175 200 228 247
1750.0 231 212 195 178 176 185 226 293 381 498
1790.0 601 687 749 756 707 613 519 428 317 232
1830.0 184 148 128 113 117 139 158 191 225 244
1870.0 273 309 338 340 316 277 222 164 134 112
1910.0 103 117 143 186 233 283 324 357 372 382
1950.0 374 336 281 213 143 94 71 60 54 52
1990.0 49 47 48 47 41 46 50 51 54 46
2030.0 48 48 41 43 44 48 42 35 36 31
2070.0 33 38 37 36 38 39 37 36 38 36
2110.0 34 39 40 37 35 41 47 44 41 44
2150.0 46 43 41 44 48 51 54 54 46 44
2190.0 49 46 42 42 45 44 34 32 43 42
2230.0 38 35 36 46 51 53 48 59 68 62
2270.0 63 67 66 63 60 57 51 58 82 99
2310.0 99 96 93 87 80 74 77 87 86 83
2350.0 77 71 63 47 45 50 51 48 50 50
2390.0 59 61 57 56 59 66 68 69 66 57
2430.0 62 64 59 65 53 46 50 51 50 40
2470.0 34 40 43 36 43 51 44 49 58 49
2510.0 52 64 56 52 54 55 56 64 64 64
2550.0 70 69 72 76 79 89 92 87 81 87
2590.0 88 86 93 101 102 94 95 98 90 96
2630.0 100 94 80 79 104 106 105 117 122 128
2670.0 128 123 125 141 145 139 128 128 145 156
2710.0 165 172 176 177 179 190 207 216 231 239
2750.0 225 218 222 223 226 235 245 258 271 299
2790.0 327 336 351 381 417 451 488 535 590 650
2830.0 727 833 948 1094 1279 1479 1721 2015 2371 2808
2870.0 3356 3984 4552 4844 4829 4574 4190 3886 3776 3847
2910.0 4081 4450 4967 5625 6434 7425 8490 9263 9454 9142
2950.0 8601 8269 8583 9358 10000 9938 9015 7576 6034 4716
2990.0 3764 3142 2742 2493 2385 2393 2498 2684 2947 3243
3030.0 3491 3587 3529 3397 3280 3353 3747 4415 5092 5501
3070.0 5647 5647 5651 5761 5728 5368 4649 3626 2664 1991
3110.0 1504 1129 853 657 536 460 409 383 376 350
3150.0 310 284 261 229 207 204 195 181 184 190
3190.0 188 175 159 153 151 156 134 106 101 95
3230.0 86 91 89 77 79 73 73 83 86 68
3270.0 58 65 70 70 61 57 56 61 78 81
3310.0 60 53 66 55 55 62 61 60 46 53
3350.0 59 57 58 56 56 56 59 60 54 58
3390.0 62 53 64 58 59 67 72 64 51 62
3430.0 50 47 74 67 62 72 71 65 68 63
3470.0 56 72 56 53 74 65 55 60 65 59
3510.0 40 44 50 39 46 54 53 62 45 35
3550.0 41 37 38 46 44 42 51 49 58 66
3590.0 57 65 67 54 59 53 42 55 70 75
3630.0 62 67 77 71 75 87 100 104 96 73
3670.0 53 53 75 82 78 80 83 79 78 75
3710.0 59 56 58 58 71 72 63 72 60 40
3750.0 42 46 61 75 76 93 116 114 94 95
3790.0 103 97 83 73 80 94 91 75 73 83
3830.0 83 72 76 78 84
##END=
