##TITLE=1-Bromo-4-chloro-2-fluorobenzene
##JCAMP-DX=4.24
##DATA TYPE=INFRARED SPECTRUM
##ORIGIN=EPA-IR VAPOR PHASE LIBRARY
##OWNER=SRD/NIST
Collection (C) 2018 copyright by the U.S. Secretary of Commerce
on behalf of the United States of America. All rights reserved.
##CAS REGISTRY NO=1996-29-8
##MOLFORM=C 6 H 3 Br Cl F
##$NIST SOURCE=MSDC-IR
##STATE=gas
##XUNITS=1/CM
##YUNITS=ABSORBANCE
##XFACTOR=1.
##YFACTOR=0.001
##DELTAX=1.92898
##FIRSTX=549.8
##LASTX=4000.7
##FIRSTY=37.27
##MAXX=4000.7
##MINX=549.759
##MAXY=0.17935
##MINY=0
##NPOINTS=1790
##XYDATA=(X++(Y..Y))
549.759 37.27 34.98 33.99 29.45 18.66 10.47 7.52 6.35 5.93 6.55
569.049 6.87 7.31 8.86 9.59 10.32 11.87 14.16 13.73 10.89 9.96
588.339 9.43 8.8 7.52 5.49 5.18 5.41 5.1 4.31 3.23 3.01
607.628 3.39 3.26 2.45 1.8395 1.1875 0.977 0.93 0.947 0.824 0.4
626.918 0.771 1.7495 1.7828 0.943 0.485 0.701 1.115 1.5218 1.32198 1.2176
646.208 1.7121 2.058 2.1957 2.1999 1.9193 1.64 1.5351 1.5226 1.6486 1.7198
665.498 1.6665 1.9695 2.1617 2.0164 2.3 2.55 2.49 2.43 2.72 3.16
684.787 3.47 3.7 3.71 3.67 4.06 4.14 4.04 4.08 3.67 2.96
704.077 2.57 2.72 2.6 2.2383 1.9477 2.0227 2.0713 2.0706 2.34 2.67
723.367 2.56 2.0197 2.31 2.46 2.1793 1.9364 1.5088 1.7911 2.0675 1.6995
742.657 1.3169 1.30029 1.26187 1.31823 1.6152 1.8434 2.0433 1.9005 2.36 2.82
761.947 2.77 3.15 3.9 4.15 3.97 3.89 3.76 4.2 4.98 5.15
781.236 5.42 6.51 7.97 9.81 12.67 16.08 18.99 21.51 24.1 26.35
800.526 29.31 32.15 37.28 39.21 31.65 26.79 25.89 23.66 20.34 16.62
819.816 13.33 10.32 8.13 6.06 5.08 5.2 4.67 4.52 4.63 5.31
839.106 7.16 9.04 11.36 14.71 18.47 22.04 25.79 29.32 32.31 36.82
858.395 43.68 47.18 40.64 34.15 33.96 32.86 30.38 27.28 23.81 21.15
877.685 19.52 19.11 19.79 22.66 27.61 35.12 46.68 62.27 80.67 98.09
896.975 109.09 110.27 106.09 102.12 94.62 75.6 49.38 28.31 16.77 11.95
916.265 9.25 6.92 5.68 4.83 4.07 3.92 3.84 3.71 3.44 3.54
935.555 3.49 3.12 2.82 2.78 2.73 2.79 3.17 3.13 3.03 2.83
954.844 3.15 3.46 3.03 2.86 3.27 3.59 3.71 3.66 3.22 2.92
974.134 2.89 2.79 2.62 2.79 3.18 3.21 3.34 3.06 3 3.22
993.424 2.93 2.61 2.7 2.98 3.02 2.83 1.9707 1.8466 2.56 2.77
1012.714 3.25 4.06 4.92 5.33 6.24 7.18 7.56 8.31 9.78 12.2
1032.003 16.08 21.76 28.86 37.16 44.64 48.6 49.73 49.66 48 43.57
1051.293 34.35 23.71 15.83 11.78 10.37 10.5 11.28 12.56 15.35 19.78
1070.583 26.83 36.56 49.54 66.13 82.69 92.41 94.41 93.81 92.54 85.58
1089.873 70.15 51.24 38.27 30.56 24.71 20.58 17.03 15.09 10.64 7.94
1109.163 9.01 10.16 10.79 13.27 16.3 16.11 16.62 17.97 16.94 15.98
1128.452 15.92 14.64 12.39 10.6 10.64 11.45 11.46 12.15 13.12 12.32
1147.742 10.61 8.97 7.59 7.02 6.84 6.07 5.24 4.71 4.76 4.81
1167.032 5.11 5.66 5.53 5.04 4.35 3.81 3.66 2.47 1.773 2.85
1186.322 3.79 3.59 3.4 4.06 4.39 4.06 4.39 5.01 5.4 7.1
1205.611 8.54 9.61 12.4 15.58 17.66 20.65 23.45 25.46 27.6 29.07
1224.901 29.04 30.69 33.86 35.04 34.34 33.2 31.57 30.48 30.44 28.79
1244.191 26.26 23.88 22.33 21.62 19.98 17.81 17.06 17.28 16.87 17.05
1263.481 17.56 16.94 16.64 17.33 17.33 16.59 15.34 13.81 12.71 11.01
1282.771 9.05 7.92 6.72 5.48 4.57 3.35 2.78 2.66 2.2284 2.1805
1302.060 2.1573 2.01 1.9577 1.9366 1.9205 2.0369 2.1399 2.1136 2.2611 2.2118
1321.350 2.0344 2.1345 2.2634 2.4 2.58 2.58 2.59 2.67 2.85 3.01
1340.640 3.22 3.53 3.59 3.77 4.06 4.01 4.03 4.35 4.76 5.33
1359.930 5.97 6.7 7.64 8.7 9.97 11.34 12.79 14.41 16.1 17.8
1379.219 19.57 21.08 22.84 24.79 27.05 29.71 32.29 34.92 37.38 39.48
1398.509 40.88 41.68 41.85 41.4 40.5 38.95 36.49 33.52 30.19 26.65
1417.799 23.49 20.65 18.59 17.67 17.91 19.13 21.58 25.14 29.07 32.28
1437.089 33.87 33.79 32.96 31.56 29.38 26.33 23.3 21.67 22.23 25
1456.378 30.24 37.92 48.37 63.28 83.39 108.98 136.77 161.74 176.59 179.35
1475.668 174.07 165.51 151.39 125.11 91.02 63.02 45.7 35.89 29.62 24.92
1494.958 21.02 17.5 14.51 11.87 9.89 8.88 8.6 8.56 8.67 8.79
1514.248 8.93 9.14 9.34 9.05 8.47 8.09 7.72 7.28 6.69 6.23
1533.538 5.89 5.62 5.99 6.54 6.67 6.81 7.36 8.28 9.58 11.39
1552.827 13.54 16.27 19.81 24.1 29.49 35.17 41.11 47.54 54.02 60.26
1572.117 65.38 69.2 71.66 73.36 73.89 72.64 69.38 63.99 57.81 51.18
1591.407 44.53 38.03 31.59 25.64 20.88 17.63 14.7 11.88 9.93 8.36
1610.697 7.42 6.88 6.16 5.71 5.13 4.44 4.16 3.72 3.52 3.5
1629.986 3.18 3.02 3.02 2.9 2.76 2.66 2.41 2.35 2.47 2.57
1649.276 2.48 2.42 2.43 2.5 2.52 2.55 2.72 2.7 2.7 2.82
1668.566 2.78 2.73 2.88 2.88 2.8 2.8 2.6 2.42 2.49 2.42
1687.856 2.178 2.1274 2.1678 2.32 2.39 2.32 2.6 2.9 3.25 3.79
1707.146 4.21 4.48 4.76 4.92 5 5.08 4.82 4.76 4.68 4.28
1726.435 3.87 3.7 3.55 3.3 3.22 3.4 3.59 3.52 3.31 2.99
1745.725 2.87 2.73 2.43 2.29 2.0969 1.9113 1.9346 1.8938 2.0306 2.36
1765.015 2.53 2.62 2.68 2.77 2.7 2.52 2.55 2.62 2.58 2.48
1784.305 2.48 2.46 2.2408 2.2198 2.34 2.31 2.2278 2.1498 2.2163 2.1971
1803.594 2.0684 1.9512 1.7451 1.8096 1.9481 1.8405 1.8094 1.816 1.7198 1.6031
1822.884 1.6266 1.6368 1.6276 1.6897 1.6171 1.4128 1.4767 1.6014 1.5822 1.6368
1842.174 1.7966 1.9689 1.9546 1.8971 1.9357 2.1325 2.224 2.1705 2.2453 2.42
1861.464 2.74 3.17 3.4 3.44 3.48 3.59 3.82 3.8 3.7 3.57
1880.754 3.36 3.35 3.2 2.82 2.71 2.59 2.1829 1.9348 1.9221 1.9444
1900.043 1.9898 1.8882 1.6513 1.4568 1.35305 1.574 1.5365 1.4396 1.5713 1.4716
1919.333 1.5701 1.6213 1.4747 1.4925 1.5944 1.5381 1.4712 1.6019 1.666 1.711
1938.623 1.7441 1.7594 1.6331 1.4663 1.5198 1.4958 1.3722 1.2594 1.35087 1.4883
1957.913 1.4807 1.4706 1.3905 1.4332 1.4671 1.34041 1.32245 1.4188 1.3949 1.4271
1977.202 1.6155 1.541 1.167 1.045 1.1756 1.2853 1.4348 1.4365 1.1869 1.109
1996.492 1.095 1.057 1.2251 1.34055 1.2233 1.2596 1.33647 1.1965 1.3755 1.5076
2015.782 1.4003 1.34143 1.27912 1.2125 1.29305 1.35412 1.4598 1.5991 1.47 1.3126
2035.072 1.30641 1.4378 1.4111 1.28695 1.1845 1.2431 1.26767 1.2139 1.27224 1.31888
2054.362 1.36559 1.36222 1.33083 1.33399 1.2954 1.28335 1.29373 1.32853 1.2136 1.1776
2073.651 1.32291 1.29581 1.4489 1.4044 1.2391 1.33315 1.4015 1.30698 1.417 1.5602
2092.941 1.3958 1.33072 1.4068 1.26092 1.2336 1.4977 1.6162 1.7371 1.8575 1.7651
2112.231 1.6656 1.6444 1.6832 1.857 2.0763 2.1404 2.0291 1.9401 1.9069 1.9861
2131.521 1.9057 1.8176 1.8044 1.7352 1.6473 1.4942 1.5224 1.5529 1.5823 1.6292
2150.810 1.613 1.5919 1.6949 1.7675 1.8123 2.0999 2.1355 2.0008 2.1225 2.1577
2170.100 1.9167 1.7311 1.7226 1.8778 1.9159 1.692 1.553 1.4257 1.29891 1.375
2189.390 1.4636 1.3541 1.1922 1.126 1.102 1.042 1.1 1.2529 1.2649 1.2252
2208.680 1.141 1.1957 1.2214 1.1753 1.28738 1.1809 1.097 1.096 1.114 1.3877
2227.970 1.26528 0.852 0.939 1.2054 1.34064 1.4421 1.32206 1.2183 1.4216 1.3823
2247.259 1.3033 1.4679 1.5909 1.6054 1.7155 1.8208 1.6962 1.4877 1.446 1.6081
2266.549 1.654 1.8269 1.9007 1.9178 1.8811 1.8829 1.8831 1.7224 1.7579 1.9251
2285.839 1.7601 1.6777 1.791 1.5972 1.5363 1.5419 1.5185 1.514 1.4786 1.4998
2305.129 1.5214 1.4934 1.429 1.32829 1.4567 1.6573 1.7612 1.7646 1.6789 1.6474
2324.418 1.4669 1.5693 1.607 1.6487 1.9598 1.8308 1.5584 1.5962 1.6833 1.6665
2343.708 1.5632 1.4049 1.4926 1.5569 1.4507 1.4512 1.3802 1.3862 1.5891 1.4695
2362.998 1.36017 1.4946 1.5704 1.4259 1.151 1.083 1.06 1.2202 1.4053 1.5389
2382.288 1.6099 1.3861 1.131 1.162 1.31482 1.30658 1.30448 1.127 1.037 1.129
2401.578 1.2363 1.1929 1.071 1.135 1.2877 1.5353 1.5818 1.4382 1.3241 1.2409
2420.867 1.3801 1.35273 1.232 1.2672 1.30657 1.36986 1.28388 1.4356 1.4761 1.3895
2440.157 1.5806 1.6167 1.725 1.6188 1.5356 1.6468 1.4658 1.5866 1.8843 1.8324
2459.447 1.6035 1.5459 1.6582 1.6767 1.7415 1.9857 1.9726 2.0221 2.0769 1.8949
2478.737 1.8206 1.9452 1.9718 1.8012 1.9226 2.0703 2.1386 2.2152 2.31 2.199
2498.026 2.2057 2.2012 2.086 2.1827 2.1182 2.1264 2.0708 1.8674 1.6905 1.819
2517.316 2.0471 1.868 1.6753 1.6565 1.6112 1.5444 1.2514 1.086 1.2494 1.1824
2536.606 1.29522 1.5756 1.3866 1.30629 1.5555 1.4928 1.3975 1.33243 1.146 0.956
2555.896 0.935 1.1961 1.2491 1.1815 1.096 1.30151 1.4206 1.2069 1.007 0.978
2575.186 1.126 1.26616 1.4994 1.5427 1.5188 1.34978 1.059 0.917 1.005 1.2004
2594.475 1.2318 1.391 1.2191 0.994 1.091 1.012 1.044 1.1984 1.1939 1.043
2613.765 0.915 1.126 1.36136 1.4113 1.29239 1.1751 1.4839 1.5983 1.4468 1.29558
2633.055 1.5026 1.4584 1.1995 1.458 1.6453 1.8704 1.8408 1.7876 1.6563 1.829
2652.345 2.0133 1.6276 1.7326 1.8993 1.7131 1.7408 1.9549 1.8839 1.956 2.0233
2671.634 1.8635 1.7704 2.0272 2.1813 1.9471 1.8598 1.669 1.4948 1.4419 1.4606
2690.924 1.6884 1.7813 1.5895 1.4106 1.26767 1.4524 1.8957 1.9973 1.8338 1.8124
2710.214 1.6705 1.34602 1.5014 1.8316 1.7842 1.435 1.2881 1.169 1.30615 1.4088
2729.504 1.079 0.949 0.82 1.034 1.2012 0.716 0.628 0.901 1.1 1.108
2748.794 1.106 1.077 0.786 0.699 0.777 1.025 1.1822 1.33867 1.35828 1.1817
2768.083 0.974 0.905 1.2393 1.32788 1.34825 1.4396 1.4266 1.57 1.5314 1.35213
2787.373 1.506 1.6087 1.4609 1.4816 1.6447 1.9493 2.0237 1.8559 1.7648 1.5208
2806.663 1.599 1.762 1.5714 1.6113 1.6685 1.539 1.5693 1.5197 1.4078 1.28117
2825.953 0.893 0.778 1.006 1.1979 1.131 1.109 1.2337 1.1837 1.125 1.2349
2845.242 1.4504 1.152 1.161 1.31389 1.26255 1.3272 1.058 1.034 0.876 0.923
2864.532 1.118 1.1882 1.1929 1.044 1.079 0.666 0.527 0.74 1.025 1.1837
2883.822 1.078 1.07 1.085 1.049 0.995 1.149 0.887 0.762 1.059 0.86
2903.112 0.722 0.804 0.745 0.705 0.779 0.891 0.718 0.556 1.075 1.139
2922.401 0.974 1.006 0.735 0.599 0.441 0.805 1.097 0.977 1.2145 0.927
2941.691 0.578 0.921 1.165 1.086 1.001 0.968 0.794 0.748 0.909 1.073
2960.981 0.943 0.763 0.953 1.1804 0.857 0.669 0.974 1.242 1.087 0.843
2980.271 0.987 0.944 0.956 0.955 0.691 0.5 0.506 0.672 1.029 1.33013
2999.561 1.2278 0.863 0.753 0.948 0.941 0.917 1.2088 1.4147 1.4257 1.199
3018.850 1.1866 1.4345 1.2092 1.119 1.27945 1.3107 0.92 0.749 1.4251 1.346
3038.140 0.999 1.149 1.2117 1.1747 1.129 1.1891 1.078 1.079 1.028 0.983
3057.430 0.909 1.112 1.4682 1.5704 1.36132 1.36294 1.7626 2.108 2.39 2.5
3076.720 2.8 2.85 2.85 2.78 2.6 2.62 2.38 2.39 2.7 2.52
3096.009 2.28 2.0362 1.5913 1.5224 1.3295 1.132 1.009 1.133 1.5945 1.5543
3115.299 1.33426 1.001 0.804 0.957 1.11 0.952 0.704 0.725 1.051 0.885
3134.589 0.893 1.4929 1.4885 1.208 1.107 1.133 0.799 0.707 0.799 1.143
3153.879 1.7335 1.6644 1.7989 1.7352 1.30627 1.033 1.1747 1.4666 1.2499 1.177
3173.169 1.28716 1.139 0.83 0.851 1.153 1.007 0.6 0.747 1.023 1.022
3192.458 0.946 0.846 0.977 0.874 0.795 0.997 1.16 1.372 1.5205 1.15
3211.748 0.807 1.035 0.856 0.636 0.862 0.866 0.49 0.476 0.452 0.341
3231.038 0.303 0.651 1.058 1.016 1.2109 1.2074 1.017 0.875 0.859 1.028
3250.328 1.054 1.2267 1.3753 1.27934 1.1984 1.112 1.1977 1.097 1.085 1.26348
3269.617 0.973 0.924 0.987 1.004 1.068 1.006 1.169 0.917 0.774 1.077
3288.907 0.885 0.887 1.2539 1.2583 1.3966 1.36607 1.082 0.868 1.14 1.5901
3308.197 1.2807 1.008 1.218 1.30253 1.31427 1.163 1.109 1.5415 1.7518 1.459
3327.487 1.123 0.913 1.042 1.30766 1.061 1.104 1.3137 1.4694 1.1 0.549
3346.777 1.04 1.1748 1.128 1.145 0.68 0.891 1.178 0.995 1.32985 1.5144
3366.066 1.154 0.891 0.636 0.83 1.29437 1.3785 1.085 0.793 0.959 1.073
3385.356 1.016 0.992 0.896 0.814 0.738 1.13 1.6952 1.6072 1.4648 1.28561
3404.646 0.686 0.471 0.897 1.35034 1.153 0.303 0.271 0.603 0.639 0.983
3423.936 1.3826 1.30271 1.2187 1.4707 1.2559 1.124 1.032 1.26515 1.5608 1.6191
3443.225 1.4889 1.2415 1.4813 1.28906 1.109 1.33694 1.2039 1.045 1.037 0.927
3462.515 0.917 1.26491 1.2518 1.001 0.698 0.485 0.715 0.959 1.004 1.004
3481.805 0.874 0.918 0.823 0.538 0.695 1.001 1.2325 1.29665 1.29413 1.095
3501.095 0.724 0.799 1.132 1.019 1.164 1.2563 1.128 0.828 0.566 0.772
3520.385 0.9 0.948 1.161 1.2485 0.749 0.327 0.665 1.077 0.918 0.532
3539.674 1.048 1.3889 0.919 0.305 0 0.709 1.036 0.744 0.944 1.4339
3558.964 1.4328 0.909 1.1944 1.6617 1.561 1.415 1.161 0.865 0.911 1.205
3578.254 1.4124 1.31841 1.33716 1.667 1.4675 1.138 0.994 1.121 1.28193 0.667
3597.544 0.21 0.437 0.946 1.2466 0.923 0.788 1.08 1.33245 1.6156 1.6151
3616.833 1.2129 1.2402 1.6856 1.7916 1.7506 1.27517 0.893 1.31844 1.6039 1.6736
3636.123 1.3877 1.28469 1.28624 1.116 0.737 0.611 1.025 1.01 0.761 0.85
3655.413 1.4074 1.6778 1.5985 1.6732 1.5311 1.4262 1.4943 1.31855 1.258 1.8169
3674.703 1.7484 0.663 0.26 0.779 1.2103 1.28638 1.3772 1.4614 1.093 1.046
3693.993 1.26671 1.103 0.864 0.583 0.565 1.2201 1.763 1.9786 1.8331 1.33036
3713.282 0.87 0.776 1.11 0.771 0.634 0.567 0.689 1.35566 1.421 1.2355
3732.572 1.5357 1.5411 1.4052 1.7884 1.6854 1.2237 0.986 0.749 1.068 1.658
3751.862 2.1457 1.9143 1.36488 1.5001 1.5242 1.36709 1.4966 1.7842 1.5923 1.4822
3771.152 1.438 1.4301 1.134 0.988 1.2469 1.30672 1.3673 1.4995 1.6862 1.4457
3790.441 1.2074 1.5166 1.4114 1.485 2.1324 1.9468 1.32288 1.239 1.4224 1.171
3809.731 0.991 1.237 1.5666 1.6881 1.4278 1.30227 1.5039 1.34906 1.021 1.4596
3829.021 1.6872 1.31386 1.089 0.641 0.581 0.981 1.3948 1.4832 1.27475 1.761
3848.311 1.7389 1.131 0.717 1.30291 1.6394 1.027 0.85 0.946 1.128 1.5974
3867.601 1.5634 0.759 0.918 1.056 0.892 0.745 0.525 1.149 1.34272 0.412
3886.890 0.588 1.059 1.098 1.4074 1.5143 1.6027 1.36224 1.038 1.4107 1.8994
3906.180 1.7975 1.3724 1.29899 1.26382 0.861 0.703 1.033 1.33548 1.091 0.804
3925.470 0.979 0.996 1.2289 1.3799 1.129 1.4993 1.1965 0.791 1.28474 1.7854
3944.760 1.7101 1.35477 1.038 1.15 1.069 0.274 0.628 1.112 0.977 0.84
3964.049 0.977 1.28059 1.1772 1.27645 1.513 1.5979 1.6117 1.5671 1.26294 1.05
3983.339 1.038 1.3951 1.5526 1.7569 2.1921 1.9716 1.33027 1.07 1.32502 1.107
##END=
