##TITLE=Pentafluorophenylpropionic acid
##JCAMP-DX=4.24
##DATA TYPE=INFRARED SPECTRUM
##ORIGIN=EPA-IR VAPOR PHASE LIBRARY
##OWNER=SRD/NIST
Collection (C) 2018 copyright by the U.S. Secretary of Commerce
on behalf of the United States of America. All rights reserved.
##CAS REGISTRY NO=2002-94-0
##MOLFORM=C 9 H 5 F 5 O 2
##$NIST SOURCE=MSDC-IR
##STATE=gas
##XUNITS=1/CM
##YUNITS=ABSORBANCE
##XFACTOR=1.
##YFACTOR=0.001
##DELTAX=1.92898
##FIRSTX=549.8
##LASTX=4000.7
##FIRSTY=11.591
##MAXX=4000.7
##MINX=549.759
##MAXY=0.154841
##MINY=0
##NPOINTS=1790
##XYDATA=(X++(Y..Y))
549.759 11.591 13.011 13.991 14.701 15.211 15.611 16.951 16.511 14.421 13.961
569.049 13.481 11.831 11.201 10.761 10.121 10.891 11.081 11.211 12.121 13.111
588.339 14.581 16.621 18.711 20.491 21.351 20.941 19.471 17.621 15.821 13.541
607.628 12.401 12.181 11.591 11.001 10.661 10.631 10.901 10.801 10.101 9.871
626.918 10.071 9.821 9.671 9.171 8.541 8.501 8.021 7.901 7.581 6.791
646.208 6.721 6.531 6.051 6.061 5.881 5.341 5.001 4.801 5.011 5.091
665.498 4.581 4.561 4.601 3.941 3.711 3.501 3.271 3.181 3.141 3.251
684.787 3.591 3.651 3.441 3.421 3.201 3.051 3.141 2.991 2.881 3.271
704.077 3.351 2.891 2.781 3.101 2.881 2.701 2.971 2.951 3.111 3.441
723.367 3.291 3.421 3.661 3.561 3.481 3.121 2.941 2.861 2.691 2.181
742.657 1.77 1.911 1.951 1.7864 2.051 2.181 1.7394 1.6819 1.8237 1.5651
761.947 1.5004 1.7469 1.836 1.6765 1.5623 1.657 1.589 1.6472 1.911 1.7657
781.236 1.7393 1.586 1.2583 1.1924 0.89405 1.3859 2.011 1.8541 1.7549 1.7997
800.526 1.4748 1.57 2.031 1.8151 1.7157 1.971 1.931 1.7685 1.7285 1.4353
819.816 1.2043 0.758 0.49 1.4563 1.7456 1.3628 1.469 1.5928 1.5104 1.3954
839.106 1.1297 1.3242 1.5791 1.2982 1.5174 1.712 1.8529 1.7799 2.071 2.371
858.395 1.991 2.351 2.631 2.591 2.831 3.171 3.291 3.451 4.051 4.421
877.685 4.681 5.601 6.541 7.731 9.261 10.241 11.231 12.391 13.121 12.551
896.975 11.361 10.121 8.991 7.971 7.171 6.391 5.721 5.931 6.171 6.331
916.265 6.611 7.071 7.101 7.171 8.481 9.781 10.611 11.871 13.491 15.061
935.555 17.011 19.111 20.701 22.691 25.061 27.381 29.771 32.251 34.111 35.101
954.844 36.191 36.851 36.901 36.691 36.891 37.401 36.871 35.541 34.121 32.271
974.134 29.691 26.851 24.201 21.731 19.611 18.461 17.851 17.461 17.401 17.941
993.424 18.621 19.491 19.601 18.851 19.411 19.931 20.191 21.021 21.471 21.061
1012.714 20.841 21.131 21.731 22.591 23.341 25.041 26.871 28.651 30.981 34.111
1032.003 37.351 41.081 44.771 47.841 50.671 52.311 52.461 50.841 47.781 44.451
1051.293 39.691 33.991 29.021 24.811 20.611 16.921 14.901 13.131 12.321 11.321
1070.583 9.771 9.331 10.241 10.051 8.971 8.391 8.521 9.811 10.071 9.711
1089.873 10.771 12.091 12.281 13.431 16.121 17.601 18.321 20.261 23.741 26.031
1109.163 29.051 35.651 40.861 46.591 54.751 62.231 69.271 76.001 81.301 83.411
1128.452 82.671 80.681 75.511 67.481 60.371 54.691 49.271 43.941 39.401 34.941
1147.742 30.621 28.211 25.971 23.681 21.591 19.951 18.641 17.241 15.821 15.071
1167.032 14.631 13.221 12.891 13.211 13.381 13.521 13.171 12.731 12.661 12.131
1186.322 11.361 12.361 13.621 13.621 13.571 14.071 15.081 15.731 15.241 14.471
1205.611 14.031 11.851 10.331 11.011 10.321 8.751 8.231 9.381 9.601 8.461
1224.901 7.981 8.201 7.821 7.271 7.071 7.521 7.871 7.251 6.871 6.601
1244.191 6.701 7.091 7.271 6.921 6.961 7.371 7.571 7.931 8.401 8.521
1263.481 8.041 8.381 8.931 8.781 8.871 8.891 9.131 9.331 9.131 8.911
1282.771 8.661 8.741 9.031 8.981 9.111 10.001 10.631 11.231 11.951 12.761
1302.060 13.561 13.881 13.781 13.201 12.401 11.381 10.231 9.301 8.711 8.201
1321.350 7.901 7.751 7.621 7.591 7.711 7.701 7.811 8.181 8.391 8.611
1340.640 8.731 8.891 9.121 9.201 9.391 9.501 9.541 9.741 9.841 9.931
1359.930 10.061 10.241 10.581 11.051 11.391 11.951 12.661 13.221 13.811 14.671
1379.219 15.451 15.951 16.501 16.871 17.011 16.841 16.241 15.331 14.171 12.931
1398.509 11.711 10.591 9.731 9.101 8.631 8.251 8.081 8.171 8.431 8.651
1417.799 9.021 9.641 10.081 10.231 10.231 10.041 9.721 9.331 8.941 8.731
1437.089 8.461 8.291 8.281 8.171 7.901 7.821 8.011 8.121 8.271 8.381
1456.378 8.551 8.841 8.981 8.991 9.161 9.451 9.911 10.621 11.661 13.201
1475.668 15.161 17.821 21.231 26.091 32.851 41.501 52.211 65.141 80.471 97.191
1494.958 114.081 129.981 142.861 151.321 154.841 153.451 148.191 141.281 134.911 130.571
1514.248 129.021 128.911 127.371 122.131 111.551 96.401 77.701 58.601 42.341 30.261
1533.538 22.431 17.581 14.471 12.331 10.531 9.151 8.301 7.701 6.981 6.521
1552.827 6.301 6.021 5.891 5.691 5.511 5.281 5.131 4.921 4.791 4.931
1572.117 4.901 4.751 4.791 4.841 4.861 4.891 5.131 5.151 5.091 5.061
1591.407 4.811 4.521 4.261 4.151 3.951 3.661 3.161 2.921 3.091 2.911
1610.697 2.681 2.741 2.661 2.841 3.091 3.121 3.101 3.131 3.311 3.531
1629.986 3.731 3.961 4.301 4.511 4.901 5.601 6.311 7.101 8.141 9.041
1649.276 9.741 10.051 9.841 9.131 7.961 6.671 5.451 4.471 3.851 3.161
1668.566 2.631 2.521 2.331 2.041 2.001 2.071 2.021 1.981 2.051 2.091
1687.856 2.171 2.301 2.231 2.151 2.301 2.571 2.701 2.771 2.921 3.141
1707.146 3.391 3.581 3.961 4.361 4.541 4.761 5.171 5.781 6.481 7.081
1726.435 7.541 8.081 8.861 9.671 10.451 11.301 12.271 13.331 14.491 15.611
1745.725 16.811 18.231 19.691 21.391 23.321 25.381 27.621 30.111 32.821 35.911
1765.015 39.181 42.511 46.261 50.331 54.721 59.261 63.611 67.521 70.431 71.641
1784.305 70.961 68.441 64.031 58.091 51.711 45.701 40.341 35.701 32.001 28.781
1803.594 25.901 23.351 21.001 19.001 17.091 15.181 13.441 11.881 10.481 9.341
1822.884 8.411 7.481 6.591 5.961 5.391 4.811 4.461 4.211 3.901 3.601
1842.174 3.321 3.141 3.031 2.801 2.611 2.541 2.431 2.381 2.311 2.081
1861.464 1.921 1.8724 1.7924 1.7025 1.6237 1.6479 1.7113 1.6155 1.5509 1.5446
1880.754 1.5185 1.5073 1.4575 1.3816 1.4469 1.483 1.3817 1.3744 1.4994 1.4615
1900.043 1.3289 1.3803 1.3819 1.4463 1.4557 1.3618 1.3217 1.3427 1.3826 1.3166
1919.333 1.204 1.165 1.3136 1.3935 1.3607 1.3373 1.3445 1.333 1.3777 1.3959
1938.623 1.3208 1.2751 1.1656 1.1022 1.1343 1.0772 1.05 1.0424 1.2114 1.3992
1957.913 1.3045 1.1668 1.1392 1.2196 1.1894 1.2409 1.2435 1.2134 1.0791 0.88556
1977.202 1.0354 1.115 1.0462 1.1469 1.2821 1.2467 1.1152 0.97695 1.0244 1.09
1996.492 1.0846 1.1034 1.1315 1.3015 1.3909 1.2251 1.083 1.0504 1.1928 1.299
2015.782 1.2139 1.1597 1.1862 1.2211 1.1925 1.2559 1.3649 1.3483 1.2624 1.3542
2035.072 1.4878 1.5053 1.4134 1.3274 1.3407 1.3788 1.4376 1.3687 1.4534 1.6182
2054.362 1.5367 1.5306 1.706 1.7772 1.7396 1.6332 1.6765 1.7655 1.7134 1.6451
2073.651 1.7337 1.7631 1.5354 1.4801 1.5501 1.5065 1.5007 1.4591 1.3881 1.2458
2092.941 1.1473 1.2858 1.3012 1.1923 1.1486 1.0485 0.9987 1.1162 1.1614 1.1854
2112.231 1.1642 1.0251 1.1221 1.3556 1.4363 1.3956 1.2456 1.1515 1.1668 1.1147
2131.521 1.1129 1.1792 1.1465 1.1438 1.188 1.2031 1.237 1.1153 0.97009 1.0526
2150.810 1.0504 1.0381 1.1043 0.9965 1.0018 1.1772 1.3201 1.2627 1.1223 1.1565
2170.100 1.2952 1.3781 1.2808 1.3135 1.2685 1.2454 1.1817 1.0342 1.172 1.2591
2189.390 1.2417 1.2387 1.2706 1.3655 1.2147 1.0033 1.1115 1.1561 1.1418 1.2216
2208.680 1.2134 1.1284 1.1437 1.297 1.2026 1.012 1.2071 1.3117 1.2725 1.3205
2227.970 1.3584 1.3583 1.4574 1.4023 1.3944 1.5471 1.5929 1.5331 1.4743 1.5241
2247.259 1.5526 1.5268 1.352 1.2873 1.3511 1.4104 1.4597 1.4759 1.4301 1.3397
2266.549 1.1516 1.104 1.1746 1.1684 1.1018 1.1092 1.2686 1.2628 1.1179 1.1623
2285.839 1.1513 1.14 1.0618 0.89952 0.97002 1.0183 1.1268 1.147 1.0601 0.99073
2305.129 1.014 1.0407 0.92896 0.92156 0.95075 0.9652 1.1495 1.2093 1.128 1.1476
2324.418 1.0524 0.96741 1.0427 1.3218 1.2363 1.0627 1.2753 1.2527 1.1401 1.094
2343.708 1.0851 1.3104 1.4175 1.3095 1.1657 1.1431 1.3332 1.2942 1.2131 1.2715
2362.998 1.2484 1.3593 1.5058 1.5435 1.5448 1.4261 1.4741 1.6068 1.5792 1.6344
2382.288 1.683 1.7232 1.7915 1.7648 1.6983 1.6954 1.5635 1.3209 1.4571 1.6303
2401.578 1.6365 1.6311 1.5705 1.6751 1.5206 1.3903 1.6398 1.6259 1.5383 1.4714
2420.867 1.5144 1.7053 1.8302 1.8796 2.001 2.061 1.8782 1.8367 1.8521 1.8735
2440.157 1.8402 1.7053 1.7922 1.971 2.121 2.101 1.941 1.901 1.901 1.921
2459.447 1.7989 1.6429 1.629 1.5976 1.6049 1.6992 1.6673 1.6119 1.6912 1.6361
2478.737 1.4143 1.3929 1.4328 1.3486 1.4465 1.5098 1.4681 1.4235 1.4443 1.4007
2498.026 1.2287 1.1341 0.94969 0.98976 1.0286 1.0152 1.376 1.3471 1.1499 1.2686
2517.316 1.2432 1.1699 1.1981 1.0883 0.92779 0.97735 1.1114 1.138 1.0485 1.0067
2536.606 1.0566 1.1053 1.0551 1.136 1.2033 1.198 1.1902 1.0963 1.0093 1.1085
2555.896 1.1911 1.127 1.1747 1.1772 0.96638 0.899076 1.0414 1.0279 0.9936 1.0716
2575.186 1.0436 0.898331 1.0858 1.3081 1.2026 1.1337 1.1649 1.0817 0.94608 1.0997
2594.475 1.2144 1.0089 0.88982 1.2131 1.3328 1.1495 1.2804 1.295 1.4112 1.5242
2613.765 1.449 1.5246 1.3674 1.4074 1.6549 1.5257 1.3964 1.5846 1.8823 1.971
2633.055 1.8151 1.8903 2.011 1.961 2.031 1.941 1.911 1.951 1.784 1.6414
2652.345 1.6151 1.605 1.7883 1.7714 1.6351 1.7115 1.5364 1.248 1.063 1.1158
2671.634 0.9975 1.0917 1.291 1.3783 1.4336 1.1789 0.96144 1.0128 1.1419 1.1584
2690.924 1.1687 1.093 1.2084 1.2317 1.1552 0.9726 0.97702 1.2217 1.0944 1.0646
2710.214 1.0886 1.1201 1.2337 1.2205 1.1103 0.90575 0.764 0.795 1.0158 1.0099
2729.504 0.88827 0.898738 0.778 0.723 0.8184 1.1069 1.0512 1.0356 0.9409 0.7985
2748.794 0.8679 0.8499 0.96204 0.97061 0.98831 1.0859 0.96336 0.744 0.94676 1.04
2768.083 0.93847 0.98402 1.06 0.96439 1.0954 1.0412 0.897608 0.995 0.724 0.715
2787.373 0.9936 1.3035 1.2352 1.0673 1.3328 1.164 0.778 0.74 0.892158 1.0056
2806.663 1.118 1.2496 1.3499 1.3061 1.2485 1.2782 1.1986 1.3073 1.2719 1.1661
2825.953 1.1481 1.1066 0.98828 1.0785 1.4127 1.345 1.2506 1.3066 1.2852 1.271
2845.242 1.3941 1.3272 0.94389 0.8465 0.9984 1.1461 1.3417 1.0906 0.98264 1.354
2864.532 1.5072 1.2254 1.0249 0.9975 1.0726 1.1263 1.1368 1.5479 1.6679 1.42
2883.822 1.4653 1.6675 1.6581 1.6172 1.8317 1.7842 1.6879 1.7922 1.8209 1.867
2903.112 1.8544 1.8573 1.901 1.8588 1.911 2.011 2.101 2.231 2.041 1.931
2922.401 2.131 2.391 2.571 2.731 3.051 3.221 3.421 3.741 3.971 4.071
2941.691 4.081 4.221 4.471 4.781 4.791 4.681 4.491 4.351 4.301 4.421
2960.981 4.431 4.071 3.701 3.481 3.611 3.051 2.621 2.651 2.601 2.771
2980.271 2.951 2.711 2.101 2.071 2.461 2.651 2.411 2.331 2.421 2.341
2999.561 2.541 2.771 2.561 2.111 1.951 2.201 2.181 2.011 1.931 1.606
3018.850 1.4365 1.6457 1.4097 1.3418 1.6066 1.5148 1.5628 1.5058 1.4011 1.2241
3038.140 1.2599 1.3277 1.3564 1.2418 0.91034 1.274 1.4914 1.3793 1.1393 0.9199
3057.430 0.93707 0.95501 1.0299 1.1434 0.834 0.358 0.668 1.1323 1.1519 1.2626
3076.720 1.0344 0.91761 1.2112 1.0374 1.0869 1.0481 0.7917 1.2748 1.5151 1.0959
3096.009 0.9106 0.9299 1.1404 1.1096 0.894255 0.90646 0.845 0.8672 0.542 0.309
3115.299 0.502 0.88663 1.24 0.91982 0.898207 1.0222 0.677 0.622 0.8195 0.788
3134.589 0.97358 1.2458 1.0012 0.724 0.796 0.728 0.225 0.163 0.421 0.714
3153.879 1.1277 1.1738 0.8478 0.8054 0.93822 0.599 0.499 0.703 0.634 0.601
3173.169 0.656 0.88189 1.21 1.0601 0.75 0.437 0.722 1.0849 0.8126 0.557
3192.458 0.398 0.536 0.655 0.698 0.761 0.8415 1.0291 0.97812 0.748 0.8789
3211.748 0.8586 0.664 0.8323 0.95495 1.0598 0.90178 0.789 0.578 0.335 0.8064
3231.038 1.0752 0.8592 0.77 0.706 0.631 0.72 0.586 0.631 0.91334 0.543
3250.328 0.119 0.049 0.295 0.696 0.69 0.662 0.699 0.755 0.92449 0.834
3269.617 0.788 0.97419 1.0795 0.757 0.616 0.96358 1.0609 0.90244 0.896913 0.91367
3288.907 0.9961 1.1605 0.715 0.358 0.431 0.388 0.69 0.577 0.284 0.196
3308.197 0.368 0.8326 0.8141 0.664 0.618 0.676 0.683 0.7913 1.0347 1.1598
3327.487 1.1979 1.0674 0.708 0.8054 0.9689 0.9608 1.0921 1.0497 0.725 0.51
3346.777 0.8108 0.98655 0.92038 0.8466 0.665 0.495 0.499 0.52 0.559 0.508
3366.066 0.661 0.94135 0.755 0.892367 0.97934 0.655 0.733 0.8193 0.725 0.655
3385.356 0.629 0.8037 0.8181 0.484 0.353 0.619 0.8735 0.649 0.373 0.695
3404.646 0.709 0.669 0.662 0.359 0.526 0.361 0.23 0.508 0.605 0.358
3423.936 0.416 0.585 0.409 0.7954 1.2049 1.05 0.692 0.467 0.538 0.775
3443.225 0.697 0.8299 0.9962 1.1564 1.3361 1.2972 1.2096 1.1977 1.0647 0.94474
3462.515 1.1332 1.0177 0.8293 0.91981 0.9651 0.778 0.81 1.0797 1.0871 1.0117
3481.805 0.796 0.147 0.263 0.8763 1.0695 1.1375 1.194 0.92122 0.66 0.9485
3501.095 1.1971 1.3019 1.2853 1.4238 1.4971 1.471 1.536 1.6636 1.7889 1.8221
3520.385 1.941 1.5649 1.2726 1.633 1.7354 1.7406 2.061 2.211 2.111 2.601
3539.674 2.961 2.751 2.771 2.681 2.961 3.361 3.641 4.071 4.421 5.061
3558.964 6.251 8.151 11.061 14.831 20.001 26.061 32.131 36.511 37.581 35.831
3578.254 31.881 26.051 18.921 12.931 8.681 6.271 5.271 4.451 3.951 3.681
3597.544 3.151 2.541 2.531 2.571 2.411 2.271 2.131 1.891 1.5103 1.3912
3616.833 1.6225 1.6515 1.2574 1.1321 1.3194 1.2463 1.031 1.3201 1.4828 1.4244
3636.123 1.5363 1.2207 1.2705 1.6785 1.6138 1.2335 0.8702 0.733 0.8199 1.1247
3655.413 0.98461 0.85 0.742 0.557 0.757 0.515 0.573 0.91546 1.123 1.0935
3674.703 0.8603 0.93669 0.72 0.771 0.94897 1.1307 1.2234 0.93973 1.0934 0.96112
3693.993 0.553 0.62 0.57 0.405 0.343 0.481 0.605 0.746 0.8148 0.88422
3713.282 0.92812 0.777 0.9586 1.028 0.8164 0.583 0.702 0.8805 0.90457 1.0391
3732.572 0.759 0.375 0.744 0.8182 0.616 0.393 0 0.191 0.439 0.96602
3751.862 1.3072 0.8038 0.446 0.708 0.682 0.467 0.429 0.469 0.55 0.495
3771.152 0.8629 1.0902 0.407 0.246 0.482 0.548 0.749 0.747 0.696 0.95501
3790.441 1.147 0.8545 1.1571 1.2013 0.88515 0.578 0.614 0.9998 1.0523 1.2738
3809.731 1.1123 1.0125 1.2824 0.8484 0.593 0.66 0.746 0.561 0.449 0.536
3829.021 0.11 0.489 0.95018 0.8352 0.592 0.615 0.749 0.698 0.661 0.556
3848.311 0.278 0.294 0.784 0.8209 1.2432 1.4466 1.0111 1.0508 0.8212 0.68
3867.601 0.98204 0.94974 0.88196 0.727 0.67 0.585 0.691 0.96238 0.66 0.455
3886.890 0.579 0.662 0.436 0.731 0.96984 0.603 0.692 0.512 0.23 0.622
3906.180 1.0647 0.92332 0.456 0.423 0.654 0.778 0.744 0.506 0.573 0.8075
3925.470 0.605 0.8208 1.0624 0.98596 1.2791 1.3817 1.0678 0.8338 1.0871 0.92991
3944.760 0.59 0.775 1.1952 0.9958 0.558 0.515 0.623 0.97848 1.0733 0.8897
3964.049 0.558 0.64 0.535 0.373 0.769 1.1579 1.3229 0.8204 0.608 0.774
3983.339 0.90383 0.95735 0.733 0.90114 1.1378 0.91997 0.362 0.756 1.2762 1.1211
##END=
