##TITLE=2-Bromo-4-methyl-6-nitrophenol
##JCAMP-DX=4.24
##DATA TYPE=INFRARED SPECTRUM
##ORIGIN=EPA-IR VAPOR PHASE LIBRARY
##OWNER=SRD/NIST
Collection (C) 2018 copyright by the U.S. Secretary of Commerce
on behalf of the United States of America. All rights reserved.
##CAS REGISTRY NO=20039-91-2
##MOLFORM=C 7 H 6 Br N O 3
##$NIST SOURCE=MSDC-IR
##STATE=gas
##XUNITS=1/CM
##YUNITS=ABSORBANCE
##XFACTOR=1.
##YFACTOR=0.001
##DELTAX=1.92898
##FIRSTX=549.8
##LASTX=4000.7
##FIRSTY=1.772
##MAXX=4000.7
##MINX=549.759
##MAXY=0.042042
##MINY=0
##NPOINTS=1790
##XYDATA=(X++(Y..Y))
549.759 1.772 1.642 1.722 2.602 3.242 3.552 4.412 4.532 3.902 3.382
569.049 3.212 2.962 2.812 2.642 2.222 1.972 1.802 1.812 1.772 1.622
588.339 1.412 1.462 1.512 1.3288 1.2821 1.412 1.582 1.652 1.762 1.732
607.628 1.952 2.212 2.202 2.412 2.622 2.692 2.682 2.682 2.712 2.562
626.918 2.482 2.542 2.392 2.342 2.532 2.762 2.862 2.912 3.122 3.402
646.208 3.522 3.632 3.672 3.712 3.912 3.982 3.982 4.142 4.372 4.442
665.498 4.682 4.852 4.782 4.992 5.202 5.342 5.602 5.832 5.952 5.932
684.787 5.802 5.552 5.362 5.182 5.022 4.922 4.632 4.252 4.072 3.842
704.077 3.472 3.182 3.102 2.922 2.662 2.732 2.842 2.762 2.682 2.892
723.367 3.272 3.892 4.872 6.202 7.922 9.752 11.362 12.282 12.742 12.672
742.657 11.852 10.302 8.062 6.152 5.112 4.802 4.962 5.332 5.692 6.012
761.947 6.682 7.642 7.282 5.982 5.312 4.922 4.472 4.152 4.132 4.362
781.236 4.842 5.252 5.492 5.742 5.822 5.632 5.432 4.712 3.762 3.152
800.526 2.552 2.242 1.952 1.682 1.652 1.522 1.392 1.3269 1.1322 1.035
819.816 1.0419 0.8411 0.7631 0.9165 1.1624 1.2555 1.0782 1.0262 1.0726 1.0838
839.106 1.1752 1.372 1.412 1.382 1.602 1.802 2.042 2.392 2.632 2.982
858.395 3.252 3.662 4.312 4.782 5.182 5.182 4.602 4.052 3.512 2.942
877.685 2.552 2.052 1.642 1.382 1.1752 1.1472 1.1571 1.1454 1.1556 1.1642
896.975 1.1088 1.0961 1.0012 1.0598 1.422 1.592 1.472 1.492 1.572 1.722
916.265 1.992 2.212 2.562 3.012 3.482 4.012 4.782 5.512 5.962 6.362
935.555 6.572 6.492 6.102 5.322 4.582 3.912 3.072 2.432 2.112 1.812
954.844 1.582 1.642 1.412 1.1567 1.1953 1.0117 0.835 0.8956 0.9284 0.952
974.134 0.9995 1.0832 1.0828 0.9066 1.0122 1.077 1.2033 1.512 1.492 1.2931
993.424 1.1356 1.2495 1.572 1.712 1.682 1.662 1.812 1.892 1.782 1.572
1012.714 1.532 1.452 1.3113 1.267 1.3184 1.1415 1.2529 1.622 1.602 1.512
1032.003 1.2983 1.2515 1.2225 1.372 1.372 1.542 1.882 1.772 1.892 2.102
1051.293 2.122 1.932 2.032 2.302 2.232 2.292 2.282 2.252 2.482 2.752
1070.583 2.762 2.812 3.072 3.882 4.812 5.852 7.392 8.632 9.492 10.362
1089.873 10.782 10.902 10.472 9.192 7.962 6.672 5.192 4.132 3.752 3.192
1109.163 2.842 2.712 2.372 2.362 2.802 3.092 3.302 3.592 3.712 3.812
1128.452 3.782 3.802 3.842 3.852 3.992 4.412 4.572 4.662 5.262 5.872
1147.742 6.682 7.702 8.322 8.882 9.682 10.102 10.242 10.302 10.362 10.672
1167.032 10.652 10.642 10.612 9.972 9.472 9.342 8.952 8.302 7.772 7.292
1186.322 6.762 6.132 5.742 5.632 5.612 5.952 6.072 6.202 6.562 7.162
1205.611 7.822 8.512 9.482 10.332 11.072 11.632 12.222 12.542 12.492 12.312
1224.901 11.562 10.622 9.962 9.752 9.802 10.702 12.182 13.612 15.832 18.622
1244.191 21.322 23.772 25.912 27.332 28.052 28.152 27.602 26.682 25.372 23.702
1263.481 21.992 20.342 18.602 16.812 15.042 13.412 11.852 10.572 9.672 8.932
1282.771 8.452 8.112 7.712 7.472 7.472 7.852 8.442 9.222 10.362 11.742
1302.060 13.252 14.952 16.752 18.412 20.102 21.702 23.152 24.492 25.682 26.742
1321.350 27.572 28.142 28.322 28.112 27.502 26.532 25.372 24.192 23.152 22.232
1340.640 21.512 20.992 20.542 20.052 19.542 19.012 18.292 17.422 16.442 15.392
1359.930 14.442 13.462 12.422 11.532 10.792 10.112 9.452 8.922 8.402 7.952
1379.219 7.642 7.432 7.352 7.392 7.552 7.812 8.162 8.582 9.132 9.802
1398.509 10.502 11.362 12.392 13.352 14.262 15.182 15.912 16.492 16.922 17.112
1417.799 17.032 16.632 15.952 15.042 13.982 12.832 11.702 10.672 9.732 8.962
1437.089 8.382 8.002 7.762 7.712 7.872 8.072 8.332 8.812 9.462 10.172
1456.378 11.022 12.022 13.082 14.132 15.092 15.972 16.792 17.412 17.612 17.322
1475.668 16.672 15.792 14.622 13.132 11.502 9.902 8.422 7.322 6.552 5.952
1494.958 5.512 5.232 5.042 4.892 4.862 4.802 4.802 4.942 5.082 5.242
1514.248 5.512 5.852 6.222 6.642 7.222 7.912 8.722 9.762 11.062 12.732
1533.538 14.862 17.522 20.812 24.722 28.952 33.242 37.112 40.092 41.812 42.042
1552.827 40.782 38.062 34.302 29.872 25.312 21.212 17.742 15.002 12.782 11.012
1572.117 9.592 8.472 7.542 6.782 6.202 5.722 5.322 5.062 4.882 4.712
1591.407 4.602 4.632 4.692 4.742 4.772 4.792 4.912 5.002 5.102 5.262
1610.697 5.402 5.572 5.812 6.032 6.312 6.542 6.652 6.662 6.542 6.282
1629.986 5.852 5.362 4.802 4.122 3.442 2.932 2.472 2.122 1.882 1.702
1649.276 1.552 1.462 1.432 1.364 1.3251 1.372 1.3601 1.28 1.2666 1.3321
1668.566 1.382 1.442 1.452 1.422 1.412 1.3678 1.3439 1.3376 1.2678 1.1459
1687.856 1.0813 1.1273 1.1622 1.064 0.973 0.9189 0.921 0.8752 0.8419 0.9513
1707.146 0.9682 0.9191 0.9032 0.9068 0.9036 0.8324 0.8428 0.8869 0.8681 0.9139
1726.435 0.9389 0.9215 0.9774 0.9325 0.8531 0.9272 0.8849 0.7926 0.8268 0.8683
1745.725 0.9085 0.9094 0.9073 0.9466 1.0305 1.0818 1.1316 1.2802 1.422 1.542
1765.015 1.652 1.712 1.752 1.772 1.762 1.702 1.592 1.452 1.2725 1.1778
1784.305 1.0086 0.8619 0.8328 0.7728 0.7878 0.7961 0.7644 0.773 0.7572 0.7407
1803.594 0.7506 0.7828 0.8295 0.8311 0.8447 0.8792 0.8976 0.8767 0.831 0.8412
1822.884 0.8378 0.745 0.6915 0.7093 0.7338 0.7146 0.6828 0.7117 0.7111 0.6896
1842.174 0.6538 0.6481 0.6168 0.6265 0.6189 0.5674 0.6035 0.6324 0.6037 0.572
1861.464 0.5787 0.5708 0.5756 0.5946 0.5937 0.6093 0.6308 0.6001 0.5771 0.5909
1880.754 0.6039 0.5678 0.5076 0.5673 0.6009 0.5619 0.5781 0.6178 0.6002 0.4881
1900.043 0.4967 0.5714 0.5852 0.6089 0.6159 0.5539 0.5501 0.6004 0.5925 0.5746
1919.333 0.5638 0.5915 0.5919 0.5607 0.5594 0.5493 0.5865 0.5671 0.4808 0.4992
1938.623 0.5866 0.6103 0.6079 0.6124 0.5779 0.5858 0.5815 0.592 0.6026 0.5573
1957.913 0.579 0.5781 0.5559 0.5437 0.535 0.5456 0.5459 0.5737 0.5944 0.6017
1977.202 0.5512 0.5236 0.547 0.5852 0.596 0.5368 0.5161 0.529 0.489 0.4798
1996.492 0.5556 0.6212 0.6215 0.5785 0.5537 0.5424 0.5543 0.5673 0.5833 0.5795
2015.782 0.5514 0.5734 0.6232 0.6011 0.5702 0.5739 0.6017 0.608 0.5986 0.585
2035.072 0.5872 0.6343 0.6301 0.6108 0.6094 0.6189 0.6016 0.5375 0.5115 0.5454
2054.362 0.567 0.5675 0.5586 0.5215 0.479 0.5178 0.5642 0.5467 0.5052 0.487
2073.651 0.5219 0.5213 0.5348 0.5474 0.5158 0.5645 0.5897 0.5274 0.502 0.4956
2092.941 0.5198 0.5531 0.5889 0.5693 0.5353 0.5475 0.4999 0.4819 0.5237 0.5201
2112.231 0.43409 0.44605 0.4903 0.47048 0.45199 0.40921 0.37882 0.40691 0.4539 0.5074
2131.521 0.5657 0.5367 0.4824 0.45146 0.4927 0.5098 0.44699 0.4589 0.4781 0.4774
2150.810 0.4766 0.42982 0.45194 0.4854 0.4883 0.47155 0.46446 0.5133 0.4777 0.43603
2170.100 0.4964 0.5306 0.5495 0.6033 0.5364 0.46918 0.4849 0.4997 0.46782 0.46814
2189.390 0.46606 0.46683 0.46697 0.44273 0.4842 0.4798 0.45749 0.44409 0.4892 0.502
2208.680 0.4783 0.5787 0.6344 0.5681 0.5629 0.5486 0.5621 0.5972 0.5311 0.5035
2227.970 0.4895 0.4865 0.46758 0.46141 0.5083 0.5181 0.49 0.45911 0.5145 0.6042
2247.259 0.6231 0.6454 0.6187 0.5751 0.5521 0.5917 0.6363 0.6443 0.6685 0.642
2266.549 0.6522 0.666 0.6108 0.5635 0.5619 0.5463 0.6048 0.5938 0.5168 0.4957
2285.839 0.5354 0.5738 0.5118 0.4995 0.5176 0.481 0.4994 0.5391 0.5288 0.5102
2305.129 0.5258 0.5858 0.5822 0.5953 0.6359 0.6379 0.552 0.4926 0.45592 0.44025
2324.418 0.5731 0.6098 0.5513 0.5699 0.5812 0.5458 0.4799 0.40389 0.45628 0.5127
2343.708 0.4824 0.5071 0.544 0.5918 0.6205 0.5925 0.548 0.5319 0.604 0.5853
2362.998 0.5486 0.5595 0.53 0.5765 0.5757 0.5433 0.5011 0.5048 0.6006 0.6656
2382.288 0.661 0.6023 0.6334 0.6312 0.6524 0.6551 0.6369 0.6972 0.6754 0.6439
2401.578 0.6597 0.7216 0.6867 0.706 0.7753 0.7298 0.748 0.8061 0.7872 0.7159
2420.867 0.6308 0.6175 0.6501 0.657 0.673 0.6701 0.6901 0.7204 0.728 0.6357
2440.157 0.5938 0.6997 0.6959 0.6105 0.5746 0.589 0.6028 0.6076 0.5976 0.5392
2459.447 0.608 0.7045 0.6684 0.6504 0.689 0.6913 0.6588 0.6701 0.6192 0.559
2478.737 0.6322 0.6499 0.6015 0.6034 0.6151 0.5791 0.5854 0.7017 0.7381 0.6659
2498.026 0.6703 0.7205 0.7003 0.6857 0.642 0.5432 0.5701 0.6443 0.6948 0.7241
2517.316 0.6356 0.6616 0.7206 0.6294 0.6472 0.7287 0.6523 0.6561 0.697 0.707
2536.606 0.7952 0.7572 0.7488 0.8463 0.8337 0.7945 0.8213 0.8671 0.8387 0.7284
2555.896 0.6848 0.6933 0.7433 0.7515 0.7004 0.7055 0.6739 0.6498 0.7175 0.7619
2575.186 0.8004 0.8426 0.7979 0.7833 0.727 0.6787 0.7246 0.6953 0.7006 0.7204
2594.475 0.7092 0.7497 0.7335 0.6435 0.7098 0.8048 0.8358 0.7743 0.7515 0.8268
2613.765 0.804 0.8215 0.8759 0.8786 0.783 0.6721 0.6574 0.7613 0.8509 0.837
2633.055 0.7527 0.7292 0.7719 0.7267 0.6786 0.6486 0.6602 0.7475 0.759 0.7079
2652.345 0.7073 0.686 0.6853 0.7217 0.7052 0.6806 0.5886 0.6012 0.6283 0.5597
2671.634 0.5635 0.6342 0.6581 0.6286 0.6329 0.6134 0.7039 0.7168 0.6127 0.6206
2690.924 0.6471 0.6072 0.5561 0.5889 0.6715 0.6995 0.686 0.6913 0.6583 0.6811
2710.214 0.7345 0.7899 0.7944 0.7235 0.6305 0.5742 0.5863 0.6159 0.6763 0.7179
2729.504 0.7032 0.6519 0.7078 0.7498 0.7746 0.8702 0.869 0.8883 0.8139 0.7653
2748.794 0.8524 0.7848 0.8163 0.8483 0.7354 0.7428 0.8215 0.815 0.7939 0.7977
2768.083 0.79 0.8448 0.8753 0.801 0.7981 0.9073 0.9319 0.9005 0.9508 0.9284
2787.373 0.8005 0.8984 1.0729 0.9791 0.8938 0.9018 0.9508 1.0059 1.0366 1.0067
2806.663 0.9881 1.0577 1.0547 1.1013 1.2269 1.1618 1.1097 1.2217 1.2209 1.1197
2825.953 1.1291 1.1903 1.2194 1.1428 1.1259 1.1645 1.1476 1.1837 1.2451 1.2167
2845.242 1.1072 1.1699 1.402 1.522 1.382 1.432 1.632 1.732 1.772 1.892
2864.532 2.082 2.072 2.112 2.252 2.352 2.422 2.462 2.522 2.512 2.432
2883.822 2.402 2.372 2.272 2.182 2.262 2.322 2.192 2.152 2.342 2.342
2903.112 2.262 2.302 2.252 2.302 2.352 2.382 2.492 2.592 2.682 2.832
2922.401 3.072 3.252 3.412 3.632 3.852 4.142 4.412 4.452 4.452 4.502
2941.691 4.402 4.232 3.972 3.532 3.112 2.742 2.462 2.312 2.192 2.112
2960.981 2.082 2.122 2.082 1.912 1.802 1.832 1.762 1.742 1.772 1.662
2980.271 1.662 1.712 1.682 1.662 1.662 1.662 1.742 1.682 1.582 1.552
2999.561 1.512 1.522 1.462 1.402 1.572 1.652 1.632 1.792 1.922 1.912
3018.850 1.872 1.852 1.952 1.982 1.882 1.792 1.722 1.742 1.752 1.722
3038.140 1.662 1.722 1.822 1.732 1.672 1.642 1.512 1.552 1.722 1.692
3057.430 1.662 1.662 1.622 1.592 1.542 1.482 1.382 1.382 1.3307 1.1891
3076.720 1.3442 1.392 1.2902 1.392 1.492 1.412 1.3284 1.3515 1.369 1.2748
3096.009 1.0442 0.9972 1.046 1.1087 1.1737 1.1941 1.2492 1.1747 1.1125 1.1156
3115.299 1.0593 1.0376 1.0854 1.1837 1.2554 1.2793 1.2459 1.1267 1.1812 1.2718
3134.589 1.2811 1.3336 1.301 1.3226 1.472 1.552 1.382 1.482 1.672 1.592
3153.879 1.572 1.602 1.742 1.882 1.942 1.892 1.982 2.082 2.092 2.132
3173.169 2.262 2.502 2.622 2.652 2.782 2.982 2.992 3.022 3.232 3.412
3192.458 3.632 3.842 3.912 4.042 4.082 4.352 4.612 4.682 4.802 4.842
3211.748 5.012 5.162 5.192 5.212 5.272 5.462 5.682 5.792 5.852 5.982
3231.038 6.022 5.892 5.902 5.942 5.942 6.012 5.922 5.872 5.952 5.932
3250.328 5.882 5.782 5.772 5.692 5.692 5.762 5.642 5.522 5.532 5.442
3269.617 5.392 5.382 5.202 5.182 5.072 5.002 5.032 4.972 4.872 4.812
3288.907 4.892 4.772 4.592 4.602 4.492 4.462 4.472 4.272 4.152 4.212
3308.197 4.262 4.182 3.982 4.022 4.262 4.322 4.262 4.152 4.132 4.072
3327.487 3.972 3.922 4.022 4.072 3.912 3.912 3.952 3.842 3.742 3.602
3346.777 3.542 3.562 3.432 3.352 3.302 3.252 3.222 3.222 3.192 3.212
3366.066 3.182 3.152 3.172 3.132 3.012 2.942 2.922 2.882 2.862 2.842
3385.356 2.852 2.722 2.532 2.512 2.582 2.522 2.512 2.452 2.452 2.502
3404.646 2.462 2.302 2.262 2.362 2.252 2.202 2.202 2.162 2.082 2.052
3423.936 1.962 1.952 1.962 1.852 1.922 1.972 1.972 1.932 1.882 1.862
3443.225 1.802 1.862 1.852 1.882 1.962 1.922 1.842 1.732 1.742 1.682
3462.515 1.652 1.742 1.792 1.782 1.582 1.532 1.472 1.442 1.522 1.512
3481.805 1.522 1.622 1.692 1.512 1.3046 1.248 1.2971 1.432 1.572 1.602
3501.095 1.562 1.452 1.402 1.392 1.382 1.452 1.432 1.372 1.382 1.176
3520.385 1.0801 1.2606 1.3194 1.3392 1.462 1.532 1.482 1.672 1.962 1.942
3539.674 1.832 1.762 1.702 1.702 1.652 1.552 1.432 1.372 1.318 1.1707
3558.964 1.0383 0.9972 1.1916 1.2211 0.9881 0.9274 1.0508 1.1002 1.1223 1.067
3578.254 0.9662 1.0486 1.0176 1.0169 0.8987 0.6736 0.7 0.8229 0.8079 0.712
3597.544 0.7982 0.8037 0.7288 0.7813 0.7078 0.657 0.8027 0.8151 0.6446 0.7153
3616.833 0.688 0.5482 0.7233 0.6921 0.6123 0.6574 0.551 0.481 0.5504 0.5629
3636.123 0.5 0.5046 0.5296 0.44182 0.4769 0.6628 0.6211 0.44715 0.43319 0.4821
3655.413 0.52 0.5158 0.483 0.5346 0.4905 0.2884 0.3107 0.5416 0.44136 0.2903
3674.703 0.45985 0.39733 0.3609 0.5466 0.5125 0.38457 0.3354 0.2786 0.27 0.2988
3693.993 0.23 0.213 0.199 0.186 0.271 0.3221 0.3259 0.2992 0.2874 0.3329
3713.282 0.373879 0.2804 0.178 0.146 0.243 0.42974 0.36745 0.3434 0.42519 0.37452
3732.572 0.46454 0.6004 0.39602 0.198 0.196 0.262 0.221 0.269 0.3186 0.3062
3751.862 0.4733 0.46875 0.3084 0.187 0.186 0.102 0.129 0.2952 0.3289 0.3176
3771.152 0.242 0.167 0.268 0.41246 0.36632 0.39111 0.3378 0.2756 0.3492 0.2987
3790.441 0.132 0.026 0.195 0.3334 0.38278 0.40032 0.3486 0.245 0.08 0.156
3809.731 0.374108 0.36436 0.239 0.098 0 0.239 0.5077 0.44057 0.3479 0.2739
3829.021 0.158 0.23 0.3153 0.3479 0.39084 0.42554 0.47141 0.46522 0.4985 0.45176
3848.311 0.42137 0.3979 0.254 0.2802 0.3445 0.37694 0.3501 0.3123 0.3404 0.4081
3867.601 0.39865 0.3499 0.2953 0.148 0.179 0.23 0.192 0.196 0.191 0.182
3886.890 0.235 0.322 0.36433 0.5145 0.557 0.5135 0.4927 0.2757 0.077 0.023
3906.180 0.071 0.126 0.121 0.153 0.182 0.2848 0.373695 0.3516 0.3361 0.43732
3925.470 0.5977 0.4758 0.3072 0.269 0.3156 0.40212 0.44882 0.3131 0.135 0.1
3944.760 0.19 0.43088 0.3549 0.2807 0.42055 0.204 0.165 0.2784 0.196 0.145
3964.049 0.3476 0.3553 0.063 0.189 0.2946 0.25 0.167 0.117 0.143 0.111
3983.339 0.13 0.16 0.2805 0.169 0.157 0.199 0.171 0.253 0.224 0.251
##END=
