##TITLE=trans-3-Penten-1-yne
##JCAMP-DX=4.24
##DATA TYPE=INFRARED SPECTRUM
##ORIGIN=NIST Mass Spectrometry Data Center
##OWNER=NIST Standard Reference Data Program
Collection (C) 2018 copyright by the U.S. Secretary of Commerce
on behalf of the United States of America. All rights reserved.
##CAS REGISTRY NO=2004-69-5
##MOLFORM=C 5 H 6
##$NIST SOURCE=MSDC-IR
##SPECTROMETER/DATA SYSTEM=HP-GC/MS/IRD
##STATE=gas
##XUNITS=1/CM
##YUNITS=ABSORBANCE
##XFACTOR=1.0
##YFACTOR=0.000000400
##DELTAX=4.0
##FIRSTX=550.0
##LASTX=3846.0
##FIRSTY=0.000221
##MAXX=3846
##MINX=550
##MAXY=0.004
##MINY=0
##NPOINTS=825
##XYDATA=(X++(Y..Y))
550.0 553 1019 1118 1134 919 912 1135 1407 1303 1126
590.0 1298 1449 1554 1597 1492 1880 2362 2869 3964 5462
630.0 5805 5783 7312 8022 7916 8416 9538 10000 7595 4670
670.0 3488 2772 2342 1994 1539 1400 1200 975 845 678
710.0 566 499 305 283 277 296 226 141 310 430
750.0 332 190 131 209 275 271 300 327 356 423
790.0 236 178 328 393 296 123 158 161 165 176
830.0 174 237 347 404 346 502 600 601 718 775
870.0 733 783 916 1096 1234 1314 1332 1292 1218 1131
910.0 1247 1358 1331 1297 1240 1214 1103 972 978 1025
950.0 983 923 1027 1093 1076 1055 1142 1341 1603 1891
990.0 2283 2803 3496 4399 5525 6847 8073 9095 9773 9817
1030.0 9504 8986 8520 8323 8423 8124 6974 5438 4133 3044
1070.0 2280 1790 1498 1282 1122 1041 925 815 757 791
1110.0 838 820 771 745 823 936 829 724 749 713
1150.0 827 936 893 830 916 1009 1076 1229 1313 1250
1190.0 1248 1323 1364 1444 1481 1561 1829 2097 2233 2237
1230.0 2332 2468 2500 2542 2618 2571 2546 2618 2584 2574
1270.0 2639 2558 2416 2362 2336 2201 2063 2085 2000 1880
1310.0 1776 1648 1508 1464 1489 1512 1602 1689 1756 1851
1350.0 2052 2249 2469 2788 3032 3251 3448 3635 3674 3585
1390.0 3474 3324 3213 3097 2875 2515 2067 1676 1371 1122
1430.0 937 801 673 547 454 393 367 358 361 284
1470.0 225 219 180 170 151 140 173 135 91 76
1510.0 120 137 103 106 63 0 12 67 114 148
1550.0 164 130 41 68 133 207 177 95 178 184
1590.0 209 200 165 253 315 325 321 273 232 263
1630.0 302 205 114 197 281 206 113 175 204 220
1670.0 220 272 325 270 251 245 264 205 214 272
1710.0 264 267 260 214 187 220 304 277 240 284
1750.0 243 200 176 161 179 187 195 200 211 219
1790.0 214 189 200 231 190 188 204 205 236 267
1830.0 244 243 221 202 239 271 275 216 199 245
1870.0 233 211 204 155 153 210 242 261 209 112
1910.0 184 216 182 212 203 149 143 196 213 207
1950.0 201 196 242 229 157 200 196 132 168 209
1990.0 212 182 196 238 270 330 341 299 283 265
2030.0 251 291 323 329 323 325 354 330 321 373
2070.0 361 300 259 296 330 319 252 165 251 344
2110.0 357 352 365 350 281 241 206 210 270 289
2150.0 215 219 261 205 173 221 250 207 178 196
2190.0 157 122 147 162 149 130 153 148 120 128
2230.0 152 211 232 220 257 262 223 195 196 281
2270.0 318 274 254 243 248 235 206 209 251 294
2310.0 286 252 240 239 289 342 359 346 293 274
2350.0 269 288 256 345 387 326 349 329 306 265
2390.0 254 271 297 293 268 280 288 256 264 256
2430.0 228 236 248 234 187 205 235 271 223 172
2470.0 196 203 165 172 256 264 264 306 309 284
2510.0 213 211 266 245 275 308 302 278 274 250
2550.0 190 173 208 196 233 196 192 299 275 248
2590.0 275 295 269 239 233 233 263 276 275 232
2630.0 198 210 251 272 323 371 375 329 279 204
2670.0 224 300 304 307 292 244 226 192 214 269
2710.0 241 238 227 223 159 140 244 257 263 256
2750.0 286 321 231 201 305 348 316 340 345 300
2790.0 300 332 265 296 390 407 364 350 394 425
2830.0 564 664 639 651 761 889 940 981 1112 1190
2870.0 1248 1334 1447 1427 1423 1455 1540 1710 1809 1944
2910.0 2026 1961 2027 2127 2091 2168 2132 2010 1972 1834
2950.0 1765 1717 1653 1562 1451 1321 1187 1089 1028 968
2990.0 851 661 578 575 467 411 398 287 226 223
3030.0 196 266 264 261 293 222 228 365 347 237
3070.0 274 348 281 182 121 162 259 277 230 231
3110.0 242 280 382 337 271 220 140 213 354 331
3150.0 235 196 248 307 351 337 242 169 251 407
3190.0 397 244 178 235 352 416 320 240 254 339
3230.0 332 235 214 251 290 376 510 504 517 633
3270.0 705 776 876 1078 1374 1657 1954 2222 2592 3170
3310.0 3792 4217 4409 4080 3846 3590 3338 3808 3843 3227
3350.0 2403 1591 994 731 643 560 575 636 653 607
3390.0 575 567 623 570 395 419 359 351 448 425
3430.0 418 393 293 367 490 519 534 520 536 505
3470.0 516 592 512 421 475 562 601 583 665 648
3510.0 592 644 544 465 651 612 434 430 410 502
3550.0 536 440 489 514 431 376 445 594 567 459
3590.0 528 590 571 623 777 821 712 822 982 1113
3630.0 1220 1339 1625 1799 1773 1721 1621 1548 1458 1644
3670.0 2066 2048 1813 1693 1508 1327 1092 883 808 826
3710.0 843 702 596 611 678 647 458 481 567 455
3750.0 346 351 346 250 339 377 347 333 241 370
3790.0 473 494 616 617 585 626 686 654 666 646
3830.0 500 515 554 516 584
##END=
