##TITLE=trans-1,3-Pentadiene
##JCAMP-DX=4.24
##DATA TYPE=INFRARED SPECTRUM
##ORIGIN=NIST Mass Spectrometry Data Center
##OWNER=NIST Standard Reference Data Program
Collection (C) 2018 copyright by the U.S. Secretary of Commerce
on behalf of the United States of America. All rights reserved.
##CAS REGISTRY NO=2004-70-8
##MOLFORM=C 5 H 8
##$NIST SOURCE=MSDC-IR
##SPECTROMETER/DATA SYSTEM=HP-GC/MS/IRD
##STATE=gas
##XUNITS=1/CM
##YUNITS=ABSORBANCE
##XFACTOR=1.0
##YFACTOR=0.000001500
##DELTAX=4.0
##FIRSTX=550.0
##LASTX=3846.0
##FIRSTY=0.000663
##MAXX=3846
##MINX=550
##MAXY=0.015
##MINY=0
##NPOINTS=825
##XYDATA=(X++(Y..Y))
550.0 442 138 51 50 2 59 108 224 284 313
590.0 316 378 412 438 438 432 553 582 578 577
630.0 559 629 749 812 769 700 689 675 657 624
670.0 583 594 533 446 452 458 404 366 372 378
710.0 354 298 249 271 341 355 287 250 321 349
750.0 386 470 447 462 558 601 634 714 737 736
790.0 809 868 932 1001 1033 1152 1335 1361 1335 1392
830.0 1435 1469 1547 1666 1808 1974 2161 2406 2739 3113
870.0 3552 4144 4719 5194 5701 6104 6908 8420 8457 7792
910.0 7677 7491 7341 7190 7020 6717 6393 6191 6234 6504
950.0 6441 6312 6634 7103 7704 8335 8914 9416 9834 10000
990.0 9857 9851 9881 9116 7940 7269 6866 6384 5834 5194
1030.0 4554 3980 3416 2893 2491 2080 1716 1428 1153 968
1070.0 837 713 606 536 468 441 433 392 377 384
1110.0 389 421 423 386 383 412 426 430 437 499
1150.0 538 554 572 567 602 609 625 633 595 565
1190.0 577 589 587 576 538 519 493 479 509 521
1230.0 531 517 510 533 543 556 613 682 770 828
1270.0 871 969 1033 1035 1037 1012 989 962 874 804
1310.0 818 854 844 802 775 761 748 745 752 780
1350.0 808 838 887 969 1032 1076 1127 1170 1252 1365
1390.0 1498 1649 1819 2004 2138 2164 2116 2084 2135 2171
1430.0 2084 1979 1999 2070 2041 1919 1798 1711 1686 1659
1470.0 1562 1452 1342 1227 1134 1064 1019 971 913 897
1510.0 898 879 855 845 838 825 841 848 828 827
1550.0 840 851 905 997 1071 1150 1256 1418 1663 1956
1590.0 2250 2471 2564 2609 2725 2848 2827 2586 2323 2212
1630.0 2253 2384 2551 2735 2893 2973 2944 2858 2757 2501
1670.0 2031 1512 1061 751 541 395 330 312 302 306
1710.0 300 277 292 323 333 335 373 420 452 509
1750.0 575 595 579 595 640 665 721 881 1142 1509
1790.0 1839 2030 2074 2092 2199 2169 1913 1551 1219 986
1830.0 874 809 728 643 596 575 548 507 444 379
1870.0 334 288 256 229 214 221 203 186 176 160
1910.0 155 149 147 155 151 142 135 155 157 126
1950.0 120 119 119 128 153 183 187 184 182 193
1990.0 193 170 151 126 97 102 107 94 96 108
2030.0 103 88 85 79 75 67 60 68 71 64
2070.0 48 55 66 59 36 21 45 34 25 61
2110.0 78 81 75 60 57 39 26 35 26 21
2150.0 35 44 27 19 36 40 35 30 31 36
2190.0 28 28 31 18 8 21 17 18 38 44
2230.0 52 35 34 53 59 61 53 61 79 92
2270.0 101 103 105 88 82 84 73 68 68 73
2310.0 85 91 82 82 90 88 99 102 111 135
2350.0 154 154 161 165 155 152 132 133 140 141
2390.0 134 113 118 114 115 130 119 112 134 143
2430.0 135 135 134 155 183 179 175 184 179 182
2470.0 179 154 135 142 136 129 126 124 131 128
2510.0 148 158 156 155 154 166 161 172 175 194
2550.0 204 191 204 193 167 155 140 128 121 128
2590.0 145 140 120 106 104 112 114 133 141 131
2630.0 138 147 129 112 119 125 119 119 117 139
2670.0 153 148 159 167 189 220 228 242 259 266
2710.0 268 285 322 379 441 478 517 537 547 561
2750.0 570 564 523 453 401 395 374 364 379 410
2790.0 442 457 494 537 581 620 658 742 833 908
2830.0 966 1066 1263 1506 1830 2317 2901 3423 3759 3995
2870.0 4306 4630 4833 4881 4869 4941 5032 5073 5232 5631
2910.0 6246 7074 7878 8287 8266 8195 8333 8422 8125 7520
2950.0 6789 6304 6241 6422 6563 6634 6786 7025 7270 7538
2990.0 7899 8328 8796 9195 9361 9272 9125 9187 9336 9089
3030.0 8457 7810 7253 6802 6455 6162 5833 5479 5217 5038
3070.0 4930 4939 5087 5298 5321 4949 4448 4273 4371 4080
3110.0 3311 2557 2061 1746 1502 1299 1132 1011 894 782
3150.0 664 587 523 482 458 419 415 405 374 356
3190.0 352 291 264 296 272 237 217 185 204 182
3230.0 179 218 197 170 155 158 166 155 161 155
3270.0 139 116 125 151 155 160 150 136 150 158
3310.0 132 141 188 151 134 146 136 124 116 124
3350.0 125 123 97 86 108 143 150 138 125 84
3390.0 82 73 57 65 95 109 111 107 87 84
3430.0 86 77 112 103 55 65 87 97 94 70
3470.0 58 82 99 97 75 74 91 81 67 23
3510.0 21 30 28 36 38 105 108 66 39 5
3550.0 32 59 31 12 22 44 69 67 30 12
3590.0 47 60 30 46 65 61 51 65 80 76
3630.0 78 50 20 32 29 8 19 38 57 52
3670.0 31 47 50 44 80 60 44 79 81 56
3710.0 62 81 64 75 96 63 35 48 78 83
3750.0 73 66 79 86 56 54 119 124 123 148
3790.0 132 120 71 45 73 63 44 22 0 47
3830.0 78 81 109 134 138
##END=
