##TITLE=trans-3-Nonene
##JCAMP-DX=4.24
##DATA TYPE=INFRARED SPECTRUM
##ORIGIN=NIST Mass Spectrometry Data Center
##OWNER=NIST Standard Reference Data Program
Collection (C) 2018 copyright by the U.S. Secretary of Commerce
on behalf of the United States of America. All rights reserved.
##CAS REGISTRY NO=20063-92-7
##MOLFORM=C 9 H 18
##$NIST SOURCE=MSDC-IR
##SPECTROMETER/DATA SYSTEM=HP-GC/MS/IRD
##STATE=gas
##XUNITS=1/CM
##YUNITS=ABSORBANCE
##XFACTOR=1.0
##YFACTOR=0.000003100
##DELTAX=4.0
##FIRSTX=550.0
##LASTX=3846.0
##FIRSTY=0.000264
##MAXX=3846
##MINX=550
##MAXY=0.031
##MINY=0
##NPOINTS=825
##XYDATA=(X++(Y..Y))
550.0 85 65 67 80 84 61 38 39 20 16
590.0 30 34 20 18 32 27 7 12 16 11
630.0 14 12 16 8 13 25 39 60 55 29
670.0 27 7 1 27 35 36 44 51 49 77
710.0 105 107 120 140 142 144 159 160 148 149
750.0 138 114 107 107 101 90 89 98 97 93
790.0 94 81 84 102 102 96 88 85 84 63
830.0 56 76 85 85 86 85 83 96 119 130
870.0 129 138 148 164 190 214 240 256 272 275
910.0 282 282 269 262 281 318 365 443 570 730
950.0 915 1146 1377 1531 1578 1499 1314 1088 878 699
990.0 563 463 389 333 287 263 249 232 224 214
1030.0 197 203 220 218 224 244 242 233 239 239
1070.0 240 245 246 229 223 217 199 189 183 182
1110.0 172 147 121 105 97 91 91 86 73 66
1150.0 70 79 82 76 70 77 84 91 98 100
1190.0 101 102 95 85 84 82 96 106 102 109
1230.0 108 108 109 110 114 105 122 146 159 171
1270.0 188 223 262 296 330 358 380 386 380 376
1310.0 366 362 361 360 375 395 418 434 433 427
1350.0 408 382 363 343 338 352 380 411 428 431
1390.0 405 358 323 296 286 292 300 319 359 411
1430.0 487 585 701 813 907 988 1052 1103 1122 1076
1470.0 975 836 682 546 438 349 282 237 204 176
1510.0 158 139 124 107 97 95 84 75 72 73
1550.0 70 62 58 52 50 55 51 48 48 46
1590.0 45 45 45 42 40 46 46 43 42 40
1630.0 39 44 48 48 48 44 39 47 48 50
1670.0 55 54 54 52 51 53 54 62 59 52
1710.0 54 58 58 53 57 53 47 47 48 51
1750.0 50 48 55 60 60 61 56 58 61 55
1790.0 53 53 52 45 35 34 39 45 38 35
1830.0 35 26 22 23 22 22 19 16 17 18
1870.0 17 12 12 7 6 13 12 8 7 11
1910.0 9 4 5 10 12 7 9 16 15 11
1950.0 7 9 8 5 6 6 3 7 7 5
1990.0 9 8 3 2 10 16 10 12 14 19
2030.0 23 20 20 15 16 17 14 12 4 0
2070.0 1 6 13 9 7 14 12 6 7 7
2110.0 9 10 5 7 7 4 5 7 4 7
2150.0 14 11 5 6 7 6 7 10 8 3
2190.0 7 10 9 11 13 15 16 7 3 9
2230.0 9 6 3 0 4 16 15 14 16 16
2270.0 15 11 16 21 15 7 12 11 5 10
2310.0 15 13 15 15 14 14 11 14 18 17
2350.0 21 20 19 18 13 14 17 19 19 17
2390.0 21 21 18 18 17 17 18 17 16 18
2430.0 16 15 14 14 8 9 11 10 6 5
2470.0 13 8 8 10 2 0 3 6 10 10
2510.0 11 15 20 19 21 30 36 34 32 33
2550.0 34 34 36 38 36 37 41 43 40 39
2590.0 43 44 45 42 42 48 49 51 57 56
2630.0 58 64 64 71 77 71 71 73 83 91
2670.0 91 95 95 96 98 95 92 94 98 103
2710.0 109 112 112 118 129 136 156 171 173 176
2750.0 178 174 168 181 202 217 227 240 260 278
2790.0 302 333 358 387 422 459 513 577 659 759
2830.0 896 1082 1329 1648 2044 2518 3036 3508 3851 4053
2870.0 4121 4139 4194 4214 4188 4154 4126 4215 4481 4915
2910.0 5494 6235 7147 8147 9064 9719 10000 9821 9217 8428
2950.0 7689 7211 7201 7669 8251 8341 7755 6614 5192 4010
2990.0 3225 2674 2278 1994 1774 1610 1492 1392 1300 1203
3030.0 1099 984 869 759 656 572 506 445 402 369
3070.0 339 315 291 284 274 255 254 241 218 210
3110.0 198 186 183 173 161 151 151 154 144 135
3150.0 135 134 133 131 126 119 111 105 101 98
3190.0 92 80 74 75 60 54 50 38 36 31
3230.0 33 40 33 19 21 32 28 18 14 13
3270.0 21 28 23 15 17 25 23 11 12 11
3310.0 2 3 2 2 11 13 10 19 17 14
3350.0 14 13 26 32 29 28 26 21 19 20
3390.0 15 12 17 18 19 21 17 19 21 24
3430.0 20 11 12 19 16 21 29 31 25 18
3470.0 27 26 17 15 10 8 4 5 8 7
3510.0 7 3 0 0 6 11 16 14 6 6
3550.0 18 23 17 10 8 15 18 16 20 27
3590.0 25 22 27 26 21 23 24 27 23 19
3630.0 23 19 27 32 34 36 27 28 31 25
3670.0 26 23 26 30 30 34 35 32 31 20
3710.0 16 24 33 39 39 45 45 41 45 37
3750.0 37 44 32 27 34 42 44 38 36 36
3790.0 41 41 34 38 47 50 45 37 44 49
3830.0 41 44 44 35 39
##END=
