##TITLE=4-Cyanophenacyl bromide
##JCAMP-DX=4.24
##DATA TYPE=INFRARED SPECTRUM
##ORIGIN=EPA-IR VAPOR PHASE LIBRARY
##OWNER=SRD/NIST
Collection (C) 2018 copyright by the U.S. Secretary of Commerce
on behalf of the United States of America. All rights reserved.
##CAS REGISTRY NO=20099-89-2
##MOLFORM=C 9 H 6 Br N O
##$NIST SOURCE=MSDC-IR
##STATE=gas
##XUNITS=1/CM
##YUNITS=ABSORBANCE
##XFACTOR=1.
##YFACTOR=0.001
##DELTAX=1.92898
##FIRSTX=549.8
##LASTX=4000.7
##FIRSTY=9.115
##MAXX=4000.7
##MINX=549.759
##MAXY=0.081825
##MINY=0
##NPOINTS=1790
##XYDATA=(X++(Y..Y))
549.759 9.115 8.215 8.205 9.125 9.225 10.015 10.795 11.055 12.295 13.095
569.049 12.665 12.695 12.295 11.035 9.875 8.355 7.185 6.445 6.015 6.075
588.339 5.575 5.095 4.895 4.205 4.095 4.005 3.525 3.485 3.835 4.045
607.628 4.235 4.225 4.105 3.885 3.375 3.135 3.835 4.415 4.605 5.105
626.918 5.805 6.515 7.055 7.955 9.115 10.205 11.105 12.475 14.065 14.775
646.208 14.895 15.025 14.855 13.535 12.195 11.195 9.585 8.405 8.085 7.875
665.498 7.345 7.065 7.385 7.695 7.815 8.435 8.685 8.555 8.035 7.155
684.787 6.615 6.035 5.175 4.065 3.575 3.565 3.565 3.295 2.965 3.165
704.077 3.415 3.165 2.615 2.175 2.205 2.015 2.265 2.385 1.815 1.865
723.367 2.215 2.155 1.845 1.815 1.925 2.105 2.535 2.825 2.695 2.415
742.657 2.485 3.285 3.735 3.715 3.665 3.825 4.345 4.595 4.555 4.525
761.947 4.415 4.425 4.645 4.735 4.165 4.035 4.705 4.565 4.115 4.175
781.236 3.795 3.385 3.165 3.045 3.225 3.425 3.785 4.045 4.045 4.175
800.526 4.645 4.675 4.575 4.885 5.595 5.915 5.765 6.045 6.415 6.925
819.816 6.805 7.145 7.795 8.065 9.275 9.985 10.435 11.545 12.485 13.385
839.106 14.845 15.995 16.515 17.185 17.835 18.475 18.645 17.575 15.425 13.485
858.395 11.545 9.555 8.005 6.035 4.695 4.535 4.035 3.215 2.745 2.925
877.685 3.575 3.635 3.275 3.275 2.815 2.825 3.185 2.785 2.785 2.615
896.975 2.325 2.505 2.325 2.105 2.485 2.465 2.005 1.705 1.5642 1.4489
916.265 1.4439 1.6209 1.6167 1.765 2.165 2.075 1.5667 1.795 2.045 1.735
935.555 1.5835 1.534 1.735 1.765 1.661 1.975 2.265 1.895 1.5384 1.5109
954.844 1.745 1.915 2.185 2.455 2.255 2.845 3.335 3.615 3.915 3.785
974.134 4.265 5.255 5.675 6.175 7.395 8.175 8.665 9.785 10.745 11.325
993.424 12.195 13.275 14.325 15.535 17.395 19.985 23.495 27.735 31.335 32.315
1012.714 31.205 28.895 24.575 19.005 13.705 10.315 8.555 7.495 6.675 5.435
1032.003 4.935 4.235 3.095 2.315 2.035 2.375 1.855 2.175 3.145 3.175
1051.293 3.325 3.165 2.525 2.315 2.625 2.985 2.825 2.425 2.775 2.735
1070.583 1.875 1.1231 1.1499 2.075 2.915 2.295 2.165 2.455 2.095 2.335
1089.873 3.055 3.065 2.535 2.845 2.875 2.875 4.155 4.345 3.785 4.675
1109.163 5.605 6.035 5.265 5.135 4.135 2.845 3.135 4.135 4.635 3.795
1128.452 2.645 2.995 3.045 2.595 3.595 4.445 3.905 2.015 1.4673 2.145
1147.742 2.855 2.935 3.205 3.565 4.095 4.805 4.735 4.515 5.495 6.665
1167.032 7.775 9.415 10.665 11.575 11.805 12.675 13.035 12.825 12.725 12.415
1186.322 12.105 12.055 12.905 13.395 13.565 14.265 15.155 15.585 15.185 14.145
1205.611 14.545 14.285 13.665 13.095 12.535 11.645 10.525 10.665 9.985 9.275
1224.901 9.935 10.145 10.445 11.555 11.685 12.225 11.915 12.055 12.985 13.925
1244.191 16.015 18.085 19.935 22.855 25.985 30.005 36.015 42.635 50.455 59.685
1263.481 68.345 75.185 79.965 81.825 79.825 73.995 65.795 56.565 47.935 40.285
1282.771 33.735 28.965 24.575 20.415 17.215 14.275 11.755 9.875 8.775 7.795
1302.060 7.225 7.695 8.485 9.045 9.085 8.965 8.545 7.675 6.435 5.355
1321.350 4.625 4.125 3.955 3.895 3.675 3.365 3.395 3.385 3.245 3.285
1340.640 3.355 3.315 3.335 3.255 3.245 3.315 3.265 3.165 3.025 2.975
1359.930 2.835 2.775 2.855 2.895 2.825 2.755 2.825 3.005 3.155 3.175
1379.219 3.215 3.485 3.855 4.125 4.415 4.795 5.295 6.045 6.755 7.475
1398.509 8.245 8.795 9.165 9.335 9.385 9.255 9.065 9.025 9.115 9.535
1417.799 10.495 11.675 13.115 14.965 16.825 18.105 18.035 16.815 14.955 12.555
1437.089 9.855 7.425 5.625 4.495 3.705 3.155 2.755 2.545 2.445 2.225
1456.378 2.015 1.915 1.895 1.925 1.945 1.885 1.755 1.765 1.925 1.985
1475.668 1.855 1.905 1.865 1.625 1.6558 1.905 1.965 1.805 1.745 1.735
1494.958 1.825 1.945 2.075 1.995 1.865 1.715 1.745 1.925 1.805 1.566
1514.248 1.6525 1.875 1.785 1.775 1.935 1.805 1.795 1.885 1.775 1.845
1533.538 1.945 1.915 1.965 1.995 1.985 2.215 2.395 2.565 2.975 3.375
1552.827 3.625 3.715 3.955 4.305 4.735 5.215 5.355 5.265 5.015 4.565
1572.117 4.025 3.365 2.855 2.525 2.355 2.355 2.395 2.635 2.915 3.165
1591.407 3.615 4.225 4.835 5.515 6.605 7.645 8.685 9.385 9.375 8.955
1610.697 8.145 7.225 5.955 4.465 3.405 2.745 2.295 2.185 2.265 2.425
1629.986 2.365 2.355 2.275 2.065 2.055 2.225 2.355 2.125 2.205 2.775
1649.276 3.065 3.005 3.175 3.545 3.865 3.985 4.205 4.695 5.215 5.485
1668.566 5.655 6.095 6.695 7.215 7.735 8.565 9.825 11.265 13.235 16.015
1687.856 19.425 24.015 29.955 36.905 45.035 53.565 61.415 68.145 72.545 74.865
1707.146 74.655 71.785 66.345 59.225 51.615 44.275 37.705 32.135 27.555 23.665
1726.435 20.405 17.685 15.315 13.265 11.355 9.915 8.695 7.515 6.515 5.865
1745.725 5.275 4.665 4.315 3.795 3.385 3.175 3.005 2.985 2.935 2.905
1765.015 2.835 2.775 2.735 2.655 2.755 2.865 2.855 2.825 2.795 2.705
1784.305 2.535 2.465 2.415 2.245 2.295 2.495 2.525 2.475 2.485 2.585
1803.594 2.615 2.525 2.455 2.285 2.305 2.255 2.125 2.075 2.025 2.025
1822.884 2.075 2.055 1.845 1.895 1.835 1.6279 1.6299 1.6478 1.597 1.5485
1842.174 1.4475 1.3871 1.4861 1.4732 1.4098 1.4473 1.5634 1.5987 1.3964 1.2305
1861.464 1.3392 1.3607 1.4235 1.4925 1.4671 1.4079 1.2937 1.2769 1.3165 1.3541
1880.754 1.3532 1.4729 1.5004 1.5159 1.473 1.4359 1.61 1.815 1.965 2.005
1900.043 2.055 2.245 2.335 2.285 2.275 2.405 2.485 2.515 2.575 2.465
1919.333 2.245 2.175 2.305 2.315 2.115 2.045 2.195 2.025 1.705 1.755
1938.623 1.805 1.815 1.845 1.785 1.735 1.5827 1.4822 1.4841 1.5466 1.6088
1957.913 1.6804 1.4686 1.2553 1.2683 1.2448 1.265 1.106 1.0359 1.1499 1.1274
1977.202 1.1608 1.2453 1.1574 1.0871 1.0214 0.9853 1.0345 1.0667 1.0556 0.9992
1996.492 0.9076 0.8834 0.8908 0.9055 0.9022 0.876 0.9196 0.956 0.9721 0.9267
2015.782 1.0177 1.1452 1.0155 0.9267 0.8724 0.9948 1.1749 1.0632 1.0788 1.1831
2035.072 1.2491 1.3001 1.2044 1.0789 0.9669 0.9662 1.1029 1.2468 1.2813 1.1514
2054.362 1.0773 1.1526 0.9614 0.8734 0.938 0.8526 0.8412 0.8869 0.9535 0.997
2073.651 0.9647 0.9985 1.0444 1.0549 0.9215 0.8113 0.9496 0.9483 0.9862 0.9915
2092.941 0.972 1.0207 0.911 0.8342 0.9798 1.077 1.0624 1.2065 1.1544 0.9923
2112.231 1.0597 1.0652 0.9497 0.8044 0.71993 0.9301 0.9396 0.9766 1.0093 0.9361
2131.521 1.0617 0.9838 1.0362 1.0503 0.893 0.8823 0.8135 0.8309 0.9916 1.0581
2150.810 0.8744 0.721 0.8455 1.0627 1.0776 1.1102 1.0488 0.8727 0.8316 0.8197
2170.100 0.9895 1.0389 0.8318 0.6551 0.7428 0.688994 0.554 0.637 0.6302 0.73089
2189.390 1.0233 1.0507 1.063 1.0513 0.9424 0.8535 0.76622 0.8718 0.9235 1.017
2208.680 0.9806 1.0048 1.2719 1.3644 1.4123 1.5324 1.695 1.925 2.115 2.405
2227.970 2.925 3.355 3.715 3.925 3.805 3.515 3.315 2.805 2.165 1.795
2247.259 1.5238 1.3518 1.2802 1.2231 1.1028 1.0713 1.1462 1.2315 1.2612 1.1858
2266.549 1.0981 1.1226 1.2099 1.355 1.3689 1.305 1.203 0.9105 1.0395 1.396
2285.839 1.4237 1.3256 1.2384 1.2039 1.1516 1.2132 1.2976 1.4752 1.541 1.4532
2305.129 1.4333 1.1075 1.0264 1.0602 1.1707 1.3257 1.1002 1.0466 1.1366 1.1291
2324.418 1.0973 1.2933 1.2524 0.9634 1.0181 1.1027 1.0488 0.9926 0.9712 0.9719
2343.708 0.9815 0.8103 0.8502 1.0782 1.0884 1.0757 1.2047 1.2204 1.1239 1.0313
2362.998 1.0581 1.316 1.3904 1.3482 1.2408 1.1685 1.3358 1.535 1.2775 1.0527
2382.288 1.2503 1.18 1.0716 1.09 1.0941 1.3413 1.389 1.3514 1.2975 1.1871
2401.578 1.0915 0.9525 0.9763 1.1305 1.3057 1.1998 1.2211 1.2764 1.1438 1.0267
2420.867 0.9949 1.1752 1.2446 1.0111 1.0109 1.2498 1.2417 1.1384 1.2249 1.1985
2440.157 1.2267 1.4221 1.2368 1.1065 1.2456 1.2842 1.1305 0.8135 0.52 0.533
2459.447 0.8061 0.888 0.9096 0.9784 0.8345 1.0379 1.144 0.8687 0.9116 1.2254
2478.737 1.2253 0.8351 0.8185 0.9918 1.0115 1.0016 0.9616 0.8419 0.8107 0.8022
2498.026 0.8611 0.9286 0.9216 0.9314 0.8619 0.8872 1.0452 1.0632 0.8692 0.8012
2517.316 0.9569 1.0437 1.1099 1.2132 1.0872 0.9015 1.023 1.0754 1.0364 1.1506
2536.606 1.2177 1.1264 0.8635 0.68135 0.7891 0.8446 0.9164 1.116 1.074 0.9164
2555.896 0.9021 1.0146 0.948 0.864 0.8466 0.9507 0.8869 0.77587 0.8253 0.7923
2575.186 0.9042 0.9149 0.8003 0.9349 1.1107 1.0626 1.0252 1.0684 1.1586 1.2124
2594.475 1.1266 1.1307 1.1974 1.2727 1.1212 0.8371 0.71667 0.9021 1.0713 0.9506
2613.765 0.76638 0.9266 1.0768 0.8877 0.8792 0.9671 0.9007 0.9356 1.2256 1.0825
2633.055 0.74636 0.5874 0.6358 0.8436 0.73152 0.6555 0.77566 0.8177 0.8108 0.9105
2652.345 1.0281 0.9562 0.9781 1.3512 1.2634 0.8846 1.0319 1.1585 1.0447 1.0467
2671.634 1.0297 0.926 0.71992 0.8201 1.0191 0.72519 0.546 0.74486 1.0115 0.9066
2690.924 0.8329 0.8014 0.904 1.1683 1.1253 1.2235 1.2628 1.242 1.3219 1.0903
2710.214 1.0619 1.15 1.027 0.8121 0.73543 0.9518 0.9295 0.9239 0.9043 0.71449
2729.504 0.74846 0.8313 0.942 1.1209 1.1111 0.9756 0.72761 0.70694 1.0401 1.0824
2748.794 1.0169 1.1244 1.3173 1.2397 1.0151 1.2077 1.2574 1.1167 1.1568 1.1926
2768.083 1.1132 0.9328 0.982 1.1565 1.1862 1.1531 1.2802 1.3315 1.0112 1.0201
2787.373 1.1743 1.0782 1.0856 1.1849 1.3096 1.335 1.1884 0.9619 1.1519 1.4657
2806.663 1.5368 1.497 1.0273 1.0331 1.3394 1.2357 1.0984 0.9474 0.9868 0.9518
2825.953 0.9902 0.9533 0.8488 0.8944 0.8552 0.8733 1.0984 1.36 1.1348 0.9847
2845.242 1.3245 1.0961 0.739 1.152 1.0025 0.8086 1.1256 0.8654 0.51 0.9944
2864.532 1.3671 1.3729 1.487 1.5232 1.3999 1.2047 1.3083 1.3919 1.3989 1.4035
2883.822 1.3054 1.1624 1.1841 1.105 1.0034 0.8684 0.8933 1.1849 1.24 1.2031
2903.112 1.1346 0.979 0.9751 1.2122 1.3163 1.3926 1.0944 0.73914 0.9126 0.8936
2922.401 0.8152 1.0278 1.0832 1.1989 1.3337 1.5447 1.5745 1.2055 1.3296 1.5876
2941.691 1.885 2.155 2.005 2.035 2.315 2.615 2.675 2.845 2.615 2.115
2960.981 2.215 2.315 1.995 1.815 2.065 2.055 2.475 3.135 3.635 3.555
2980.271 3.335 3.855 3.605 3.055 2.685 2.185 2.085 2.195 1.835 1.715
2999.561 1.925 1.6684 1.4329 1.2889 1.0855 1.2341 1.2573 1.2911 1.5923 1.4182
3018.850 1.2643 1.1699 0.9509 0.9364 1.2721 1.5969 1.4027 1.4558 1.5845 1.3028
3038.140 1.1886 1.5209 2.135 2.545 2.085 1.995 2.215 1.735 1.845 1.925
3057.430 1.785 1.715 1.835 2.135 1.965 1.865 2.065 2.125 2.025 2.015
3076.720 2.165 2.095 1.875 1.915 2.475 2.775 2.695 3.045 3.355 3.165
3096.009 2.755 2.545 2.295 2.395 2.435 1.875 1.683 1.825 1.865 1.855
3115.299 1.795 1.4683 1.364 1.2204 1.399 1.555 1.3869 1.6503 1.6845 1.1376
3134.589 0.7933 0.8765 1.0766 1.0366 0.9005 0.6479 0.8401 1.0512 0.8204 1.0823
3153.879 1.1154 0.8411 0.8586 1.1653 1.0732 0.9599 0.9995 1.0526 0.7887 0.57
3173.169 0.9397 1.0455 0.76765 0.307 0.39 0.9167 1.116 0.9128 0.71623 0.689859
3192.458 0.8719 0.8558 0.6439 0.8426 0.983 0.635 0.405 0.5959 1.0132 1.0922
3211.748 0.74748 0.9752 1.016 0.978 1.3514 1.3165 1.0083 0.6762 0.6602 1.1651
3231.038 1.2351 1.0001 0.9403 0.8166 0.512 0.427 0.74858 1.0016 0.9264 0.6119
3250.328 0.52 1.0573 1.1994 0.6464 0.518 0.8423 1.0993 0.981 1.0322 1.1142
3269.617 0.9028 1.0403 1.1049 1.079 1.1705 0.8647 1.0296 1.0996 0.6178 0.564
3288.907 0.577 0.6009 0.565 0.8256 0.9197 0.8975 0.9631 0.9434 0.8968 0.547
3308.197 0.412 0.463 1.2718 1.66 1.4671 1.2994 0.9267 0.883 1.2445 1.5559
3327.487 1.2324 0.9374 0.9669 0.9412 0.8415 0.6226 0.275 0.287 0.6489 0.6375
3346.777 0.421 0.7772 1.0181 0.849 0.9 1.2109 1.1907 1.0275 1.2378 1.3771
3366.066 1.1849 1.4707 2.085 1.745 1.5556 1.6729 1.865 1.705 1.4165 1.6186
3385.356 1.755 1.995 2.095 2.115 2.145 2.065 2.145 2.065 1.5704 1.4201
3404.646 1.0926 1.1274 2.065 1.735 1.2301 1.775 1.5202 1.3894 1.4566 1.2613
3423.936 1.3606 1.4886 1.2 1.0438 1.3643 1.2274 0.9056 0.9669 1.128 1.3798
3443.225 1.725 1.6123 1.2881 1.2064 1.3625 1.2709 0.78437 0.447 0.8424 0.969
3462.515 0.8343 0.9049 0.8786 1.0664 1.2552 1.5154 1.3611 1.384 1.6418 1.2838
3481.805 1.4113 1.6123 1.059 0.9134 0.9416 0.7864 0.6198 0.58 0.6486 0.8436
3501.095 1.1371 0.68155 0.142 0.337 0.8321 1.0203 1.0046 1.3466 1.6558 1.5052
3520.385 1.2352 0.799 0.5991 1.075 1.1576 1.0029 1.0565 0.67958 0.5911 0.8931
3539.674 0.9841 0.8461 0.67527 0.6597 0.9978 1.1903 0.8629 0.75221 0.8095 0.9062
3558.964 1.2 1.0739 0.75379 0.498 0.561 0.8568 0.70251 0.8215 1.1302 1.3218
3578.254 1.2369 1.2995 1.4128 1.0489 1.1128 1.4513 1.3117 1.1531 0.985 1.1735
3597.544 1.4041 0.978 0.9224 1.4908 1.5578 0.922 0.8601 1.2196 1.1989 1.2579
3616.833 1.2698 1.1477 1.2368 1.1693 1.3627 1.2434 1.0275 1.0918 1.1558 0.9172
3636.123 0.7906 1.0984 0.74504 0.70078 0.9283 0.474 0.173 0.574 0.8685 0.8377
3655.413 1.0276 1.1066 0.8422 1.0885 1.1178 0.518 0.567 1.1113 1.1078 0.9682
3674.703 0.9839 1.2832 1.6673 1.4392 0.9167 0.552 0.202 0.6515 1.199 1.1175
3693.993 1.1376 1.3676 1.5525 1.371 0.851 0.8561 1.4356 0.8369 0.209 0.70057
3713.282 0.9449 0.967 1.0112 0.75639 0.76811 0.838 1.0214 1.1733 0.9525 0.8735
3732.572 1.1183 1.2691 1.1473 1.3162 1.2781 0.7899 0.9368 1.1432 0.9879 0.71122
3751.862 0.6028 1.1551 1.2864 0.9955 1.3588 1.2428 0.74325 0.9277 0.7246 0.70732
3771.152 0.8161 0.5937 1.0126 1.1997 0.75731 0.70888 0.8527 1.3987 1.825 1.4749
3790.441 1.1601 0.6526 0.585 0.9349 1.0863 1.2308 1.3904 1.0137 0.71994 0.9403
3809.731 0.8253 0.9575 1.0548 0.9143 1.242 1.2508 0.76737 0.9649 1.3091 1.2216
3829.021 1.0594 1.0058 0.9783 0.8771 1.0316 1.1954 1.0351 1.2112 1.205 0.8177
3848.311 0.5871 0.539 0.8828 1.0588 1.0613 1.0365 1.106 1.1911 1.1343 1.0076
3867.601 0.8009 0.6599 0.69973 1.1318 0.9646 0.493 0.662 0.7977 1.1189 1.3127
3886.890 1.0561 0.9574 0.9676 0.77723 0.8173 1.2588 1.6415 1.725 1.0259 0.75159
3906.180 1.0843 0.6719 0.493 0.271 0.184 0.638 0.75189 0.8177 1.24 1.279
3925.470 0.9987 1.4567 1.5137 1.1392 0.8916 0.74321 1.0945 0.9581 0.391 0.6728
3944.760 1.2228 0.77196 0.71656 1.2843 1.4295 1.2549 1.0365 0.75543 0.71501 0.511
3964.049 0 0.244 0.329 0.8053 1.0652 1.0118 0.8981 0.532 0.68749 0.689123
3983.339 0.185 0.21 0.81 0.8847 0.8437 1.0844 1.2108 1.1225 1.2181 1.2223
##END=
