##TITLE=2-Amino-4-phenylthiazole
##JCAMP-DX=4.24
##DATA TYPE=INFRARED SPECTRUM
##ORIGIN=EPA-IR VAPOR PHASE LIBRARY
##OWNER=SRD/NIST
Collection (C) 2018 copyright by the U.S. Secretary of Commerce
on behalf of the United States of America. All rights reserved.
##CAS REGISTRY NO=2010-06-2
##MOLFORM=C 9 H 8 N 2 S
##$NIST SOURCE=MSDC-IR
##STATE=gas
##XUNITS=1/CM
##YUNITS=ABSORBANCE
##XFACTOR=1.
##YFACTOR=0.001
##DELTAX=1.92898
##FIRSTX=549.8
##LASTX=4000.7
##FIRSTY=7.173
##MAXX=4000.7
##MINX=549.759
##MAXY=0.164003
##MINY=0
##NPOINTS=1790
##XYDATA=(X++(Y..Y))
549.759 7.173 7.443 7.833 8.103 7.593 8.043 9.473 9.853 9.393 9.483
569.049 9.703 10.283 11.053 10.503 9.133 8.493 8.323 7.873 8.313 9.793
588.339 9.773 9.333 9.553 9.093 9.083 9.543 10.383 11.363 11.963 12.333
607.628 12.523 12.493 12.693 13.793 14.733 15.083 15.963 16.653 16.983 17.713
626.918 18.543 19.273 20.123 20.923 21.603 21.473 20.823 20.943 21.783 22.333
646.208 23.653 26.413 29.143 31.663 32.743 32.363 31.293 29.743 26.913 23.043
665.498 20.263 18.633 18.693 19.043 19.633 20.603 21.393 22.823 24.723 27.303
684.787 30.493 34.003 39.183 45.423 51.843 58.573 64.623 70.153 78.223 89.343
704.077 92.433 84.133 74.863 68.703 63.303 56.423 48.613 41.753 35.593 30.163
723.367 26.063 22.883 21.113 20.263 19.803 19.173 18.593 19.293 20.223 20.593
742.657 21.233 21.543 21.363 21.273 21.243 21.053 20.953 21.113 21.233 21.483
761.947 22.013 23.023 24.113 24.813 24.703 23.063 21.203 19.713 18.683 17.633
781.236 16.203 15.233 14.173 13.493 13.043 12.643 12.483 12.043 11.623 10.953
800.526 10.553 10.153 9.403 8.983 9.053 8.243 8.103 7.873 6.683 8.143
819.816 8.053 8.163 9.603 9.993 11.323 13.093 15.223 17.583 19.053 19.693
839.106 20.303 20.693 19.983 18.553 16.583 13.523 11.733 10.563 8.993 7.583
858.395 7.063 7.373 6.403 5.533 5.183 5.313 5.813 5.643 5.733 5.683
877.685 5.383 5.373 5.303 5.423 5.553 5.483 5.423 5.883 6.573 6.973
896.975 6.973 6.793 7.093 7.573 7.693 7.493 6.833 6.793 7.153 6.903
916.265 6.163 5.323 5.393 5.493 5.493 5.573 5.193 5.143 5.273 4.763
935.555 4.813 4.993 4.833 5.023 4.703 4.543 4.993 4.843 4.363 4.253
954.844 4.053 3.963 4.193 4.413 4.303 4.153 4.613 4.943 4.743 4.673
974.134 4.783 4.773 4.603 4.323 4.833 4.633 3.963 4.373 4.823 5.453
993.424 5.773 5.533 5.733 5.713 5.763 6.253 6.883 7.493 7.853 8.233
1012.714 9.513 11.433 12.943 15.263 17.123 16.913 17.383 18.893 19.793 21.183
1032.003 22.273 22.123 21.803 21.263 20.033 18.953 19.253 18.723 16.503 14.553
1051.293 12.273 10.633 10.153 9.483 8.563 8.393 9.103 9.423 9.553 9.523
1070.583 8.933 7.413 6.073 5.753 4.963 5.193 4.933 4.213 4.863 5.203
1089.873 5.223 3.883 3.533 4.193 4.463 4.413 4.443 5.933 6.683 6.573
1109.163 7.223 7.813 8.073 8.753 8.973 8.133 7.473 5.943 5.393 6.903
1128.452 7.163 5.993 5.313 4.973 4.073 3.803 4.143 3.603 2.413 2.333
1147.742 2.433 2.653 2.943 2.683 3.713 4.413 3.883 3.243 3.063 3.273
1167.032 3.983 5.253 5.553 5.553 5.923 6.693 7.643 8.583 8.873 7.923
1186.322 7.483 7.763 8.473 7.983 8.293 9.543 8.453 7.943 7.723 6.213
1205.611 5.063 5.193 5.043 3.443 2.933 4.193 3.743 4.433 5.133 4.133
1224.901 4.913 5.633 4.743 5.283 6.313 6.533 7.673 8.073 8.173 8.013
1244.191 7.893 8.383 8.343 9.013 10.673 11.823 12.423 14.213 15.303 15.183
1263.481 15.543 16.023 16.773 17.873 18.893 20.153 21.323 22.233 23.833 24.573
1282.771 25.293 26.863 27.933 29.013 30.173 30.973 31.793 32.783 33.503 33.893
1302.060 33.763 33.653 34.193 34.503 34.463 34.483 35.203 36.623 38.313 40.453
1321.350 42.843 44.993 46.523 47.683 48.413 48.873 48.923 48.023 46.133 43.983
1340.640 41.673 38.853 35.563 31.943 28.643 25.243 22.263 20.033 18.133 16.943
1359.930 16.063 15.393 15.163 15.113 14.983 14.933 14.983 14.853 14.603 14.273
1379.219 13.853 13.343 12.473 11.323 10.293 9.363 8.593 7.933 7.353 6.883
1398.509 6.573 6.293 6.033 5.893 5.653 5.453 5.413 5.263 5.053 4.823
1417.799 4.723 4.553 4.473 4.733 4.913 5.263 5.853 6.453 7.383 8.753
1437.089 10.853 12.783 14.003 14.563 14.423 14.293 13.993 12.913 11.143 9.683
1456.378 9.063 8.903 8.883 9.473 10.563 11.763 12.913 14.343 16.283 18.193
1475.668 19.423 20.153 20.293 19.853 19.573 19.603 18.763 17.013 15.473 14.373
1494.958 13.913 13.783 13.803 14.523 15.723 17.523 20.443 24.483 29.923 37.673
1514.248 48.013 61.603 78.673 97.783 120.003 139.573 155.303 164.003 163.823 156.133
1533.538 141.993 122.273 99.203 73.913 52.723 38.263 28.773 23.223 19.963 17.643
1552.827 16.023 14.923 14.573 14.513 13.853 13.533 13.413 13.663 14.293 14.723
1572.117 15.293 16.423 18.373 19.723 21.293 23.583 26.153 29.193 32.893 37.393
1591.407 42.893 49.493 57.093 65.813 74.563 82.643 89.373 94.073 95.603 93.973
1610.697 89.923 83.043 74.143 63.803 54.023 45.693 38.093 31.473 26.413 22.583
1629.986 19.353 16.773 14.813 13.043 11.633 10.503 9.823 9.193 8.343 7.863
1649.276 7.483 7.323 6.803 6.483 6.293 5.633 5.123 5.213 5.303 5.163
1668.566 4.843 4.843 4.963 4.883 4.863 4.813 4.833 4.643 4.633 4.533
1687.856 4.133 3.933 3.813 3.793 3.583 3.263 3.183 2.813 2.483 2.543
1707.146 2.633 2.743 2.763 2.693 2.673 2.593 2.593 2.523 2.733 3.053
1726.435 2.883 2.743 2.813 2.863 3.063 2.903 2.853 3.243 3.273 3.223
1745.725 3.113 2.943 2.903 3.023 3.163 2.943 2.723 2.813 3.083 3.033
1765.015 2.763 2.723 2.743 2.823 2.913 2.793 2.783 2.733 2.743 2.883
1784.305 2.933 3.043 3.233 3.433 3.723 3.853 3.813 3.913 3.883 3.833
1803.594 3.703 3.413 3.203 2.983 2.913 2.683 2.553 2.693 2.753 2.723
1822.884 2.553 2.463 2.373 2.333 2.153 1.973 2.053 1.983 1.833 1.803
1842.174 1.7778 1.823 1.813 1.7332 1.6856 1.7493 1.883 1.873 1.833 1.843
1861.464 1.973 2.143 2.253 2.503 2.533 2.473 2.563 2.723 2.863 2.883
1880.754 3.103 3.233 3.283 3.553 3.423 3.093 3.003 2.913 2.593 2.313
1900.043 2.193 2.043 1.943 1.823 1.7744 1.7515 1.6991 1.813 2.093 2.173
1919.333 2.113 2.223 2.273 2.253 2.173 2.253 2.613 2.893 3.003 3.173
1938.623 3.313 3.373 3.473 3.683 3.923 4.123 4.103 4.003 3.923 3.683
1957.913 3.473 3.123 2.963 3.003 2.813 2.293 1.973 1.943 1.893 1.873
1977.202 1.7048 1.813 1.813 1.6598 1.853 1.833 1.6662 1.5792 1.5029 1.4404
1996.492 1.5246 1.7258 1.5196 1.3935 1.479 1.4893 1.5679 1.5388 1.5129 1.5653
2015.782 1.3905 1.3068 1.4914 1.4001 1.3825 1.5972 1.544 1.4003 1.4619 1.4788
2035.072 1.464 1.4774 1.466 1.4036 1.3846 1.329 1.2035 1.2658 1.2237 1.2114
2054.362 1.2195 1.2468 1.3783 1.3957 1.4377 1.5668 1.4821 1.431 1.4269 1.1636
2073.651 1.1718 1.3085 1.2811 1.2221 1.1984 1.365 1.5791 1.4698 1.3584 1.5331
2092.941 1.4459 1.1805 1.3631 1.6191 1.502 1.374 1.4458 1.4005 1.4352 1.5282
2112.231 1.3872 1.3958 1.3872 1.457 1.3688 1.1591 1.3469 1.3891 1.2731 1.2428
2131.521 1.1444 1.1253 1.2554 1.1596 1.2587 1.435 1.2803 1.3896 1.475 1.3797
2150.810 1.3103 1.33 1.2654 1.1924 1.3102 1.1779 1.0763 1.1927 1.4052 1.4795
2170.100 1.325 1.1384 1.0169 1.2055 1.1898 0.9895 1.0013 1.0648 1.1222 1.1348
2189.390 1.1096 1.2607 1.2056 0.9394 0.9264 0.9089 0.7495 0.685 1.0515 1.3283
2208.680 1.3141 1.3101 1.1189 0.87755 1.1196 1.2897 1.0737 1.1111 1.0694 1.0929
2227.970 1.0738 1.0717 1.1958 1.1939 1.2065 1.2699 1.3575 1.3167 1.3687 1.4386
2247.259 1.4157 1.3979 1.396 1.4255 1.5132 1.3874 1.203 1.224 1.1786 1.0034
2266.549 1.1495 1.4305 1.4312 1.3648 1.2284 1.0978 1.0984 1.1838 1.069 1.0931
2285.839 1.3242 1.2555 1.0764 1.1381 1.2473 1.2184 1.0342 0.9106 1.1532 1.2545
2305.129 1.4165 1.5605 1.6095 1.7539 1.4383 1.2982 1.5227 1.5599 1.4806 1.4645
2324.418 1.484 1.2763 1.2851 1.4844 1.4158 1.3505 1.3374 1.3219 1.4449 1.2955
2343.708 1.0312 1.1406 1.2867 1.2095 1.2585 1.304 1.3373 1.5321 1.4902 1.3744
2362.998 1.4615 1.6587 1.7547 1.5944 1.3704 1.1994 1.0611 1.2458 1.0666 1.0118
2382.288 1.3717 1.3381 1.2285 1.1687 1.1508 1.0993 0.9514 0.9156 0.9474 0.9284
2401.578 1.1543 1.2778 1.0375 0.88363 0.89137 0.904 0.86561 0.83919 0.9629 0.9327
2420.867 0.7103 0.626 0.647 0.56 0.585 0.577 0.527 0.69 0.665 0.643
2440.157 0.84469 0.7653 0.82049 0.9062 0.7728 0.9829 0.7364 0.266 0.37 0.7548
2459.447 0.9723 0.8984 0.9058 0.9023 0.641 0.585 0.558 0.431 0.7008 0.7284
2478.737 0.531 0.343 0.534 0.88492 0.83702 0.7618 0.7584 0.8128 0.797209 0.86363
2498.026 0.689 0.466 0.53 0.555 0.645 0.584 0.633 0.7524 0.7353 0.624
2517.316 0.496 0.7502 0.7678 0.621 0.6991 0.7447 0.686 0.7656 0.7668 0.689
2536.606 0.8525 0.93 0.86311 0.83373 0.9213 0.85867 0.63 0.7569 0.9575 0.7631
2555.896 0.87743 1.0744 0.7497 0.80932 1.0423 1.1417 0.9595 0.687 0.9088 1.0216
2575.186 0.9458 0.919 0.9797 1.0295 1.0895 1.1802 1.1205 0.9385 0.82588 0.6991
2594.475 0.747 1.0771 1.297 1.1508 1.118 1.3027 1.417 1.4299 1.2398 1.2755
2613.765 1.3245 1.1883 0.9382 1.0366 0.9725 0.7509 1.0954 1.244 1.37 1.5137
2633.055 1.3564 1.2848 1.5668 1.4404 1.2888 1.6212 1.6368 1.4957 1.3612 1.2392
2652.345 1.2811 1.4116 1.5879 1.4113 1.3493 1.3914 1.0342 0.954 0.472 0.324
2671.634 0.9715 1.2444 1.1783 0.799701 0.9953 1.1356 0.86344 0.86228 0.81801 1.1183
2690.924 1.2625 1.352 1.303 0.83435 0.7447 0.7361 1.109 1.5359 1.4071 1.2256
2710.214 1.0819 0.8585 0.7259 0.9375 1.2154 1.0885 1.0813 1.3396 1.3715 1.2307
2729.504 1.366 1.2366 0.9443 1.0082 0.9739 1.2168 1.1446 0.895 0.797071 0.624
2748.794 0.709 0.81552 0.707 0.794921 0.9736 1.1495 1.0968 0.8818 0.9655 0.9649
2768.083 0.81666 0.82408 1.0238 0.7499 0.7588 1.3572 1.5106 1.2242 1.1226 1.1666
2787.373 1.0894 1.1673 1.2732 1.2779 1.3595 1.7811 1.6515 1.383 1.4643 1.328
2806.663 1.3842 1.873 1.933 1.7705 1.6316 1.3846 1.2699 1.2699 0.9952 0.446
2825.953 0.425 0.662 0.9952 1.0053 0.88144 1.0142 0.9079 0.667 0.83218 1.3252
2845.242 1.3616 0.792422 0.361 0.69 0.9796 0.89217 0.80868 1.015 1.1761 1.0706
2864.532 1.1502 1.2172 1.2716 1.3804 1.4874 1.1579 0.9586 1.2885 1.4706 1.4003
2883.822 1.1679 1.2783 1.3387 1.2919 1.1409 0.88976 1.1773 1.3046 1.1846 1.1126
2903.112 1.1249 0.9419 1.0339 1.0943 0.9184 1.1461 1.1055 1.1956 1.3771 1.237
2922.401 1.2174 1.2776 1.2975 1.3083 1.5339 1.5026 0.9322 1.1023 1.3879 1.1202
2941.691 1.2704 1.6847 1.6082 1.5988 1.3166 0.7681 1.2165 1.5122 1.2009 1.2504
2960.981 1.1528 0.7251 0.7062 1.08 1.261 1.3564 1.6935 1.3266 0.484 1.0135
2980.271 1.5862 0.9792 1.1837 1.1375 0.9886 1.219 1.1797 1.5485 1.803 2.143
2999.561 2.683 3.043 2.853 2.773 3.323 3.343 3.573 4.133 4.343 4.853
3018.850 5.923 6.693 7.353 8.223 8.883 9.963 11.133 12.093 12.863 13.543
3038.140 14.093 14.413 14.333 14.013 13.813 13.453 13.193 13.253 14.093 15.213
3057.430 16.613 18.613 20.363 22.023 24.213 26.133 26.923 26.883 26.493 25.893
3076.720 24.573 22.683 20.343 18.373 16.713 14.943 13.183 11.643 10.483 9.493
3096.009 8.573 7.863 7.563 6.803 6.313 6.223 5.643 5.633 5.803 5.423
3115.299 5.243 4.723 4.603 4.663 4.653 4.803 4.353 4.293 4.113 3.543
3134.589 2.753 2.173 2.033 1.7668 1.893 1.5753 1.3836 1.873 1.7849 1.5279
3153.879 1.0107 0.792094 1.4459 1.863 1.6004 1.5841 1.823 1.3725 1.3282 1.3626
3173.169 0.9502 1.2847 1.4253 1.2391 1.233 1.6559 1.7122 0.609 0.402 0.9495
3192.458 1.3939 1.5867 1.3906 1.0243 0.86636 1.1346 1.1881 0.68 0.321 0.9891
3211.748 1.4565 1.3811 1.1151 0.659 1.035 1.7696 1.707 1.354 1.1159 1.353
3231.038 1.3313 0.7474 0.525 0.7351 1.0874 0.8949 0.9969 1.2612 1.1784 1.4033
3250.328 1.5346 1.137 0.692 1.0274 1.4439 1.6375 1.5925 1.803 2.333 1.4242
3269.617 0.605 1.262 1.3958 1.4077 1.2368 0.7149 0.662 0.491 0.273 0.189
3288.907 0.322 0.439 0.796772 1.1066 0.80345 0.81285 1.0688 0.6948 0.549 0.437
3308.197 0.376 0.669 0.663 0.471 0.506 0.476 0.328 0.588 1.5335 1.2214
3327.487 0.798695 1.1493 0.688 0.80503 0.8372 0.524 0.337 0.282 0.501 0.525
3346.777 0.628 0.82304 0.82935 0.453 0.405 0.83125 1.1304 1.2725 1.476 1.4453
3366.066 1.4731 1.963 2.443 2.323 2.103 2.733 3.133 3.313 3.613 4.513
3385.356 4.983 6.073 8.023 8.493 9.643 11.823 13.903 15.963 18.473 20.813
3404.646 22.333 23.763 24.293 24.063 23.383 22.303 20.603 18.493 16.813 14.703
3423.936 12.583 10.803 9.163 7.613 6.513 5.503 4.203 3.703 3.553 2.893
3443.225 2.613 2.493 2.403 2.343 1.903 1.803 1.803 2.083 1.993 1.5718
3462.515 1.883 2.483 2.553 2.293 2.353 2.823 3.273 3.223 3.223 3.703
3481.805 4.613 5.413 5.863 7.173 8.553 9.253 11.233 13.643 14.963 15.613
3501.095 16.303 16.713 16.263 15.443 14.653 13.543 12.203 10.753 9.893 9.283
3520.385 7.983 6.773 6.413 6.353 5.263 4.373 3.833 3.413 2.613 1.943
3539.674 2.023 1.6634 1.0722 1.397 1.923 1.7154 1.3143 0.9287 0.80586 0.9232
3558.964 1.0265 0.7087 0.269 0.482 0.798387 0.80601 0.78733 0.528 0.628 0.82035
3578.254 0.78518 0.895 0.88594 0.7718 0.665 0.568 0.554 0.484 0.287 0.034
3597.544 0.322 0.758 0.59 0.668 0.9637 1.0108 0.495 0 0.091 0.566
3616.833 0.7599 0.42 0.486 0.626 0.392 0.326 0.538 0.84644 0.656 0.383
3636.123 0.9074 1.2817 1.3771 1.3069 1.0943 0.801517 0.7473 1.3748 1.4561 1.4268
3655.413 1.0424 0.686 0.652 0.7593 1.0825 0.84513 1.152 1.389 0.804 0.632
3674.703 0.7176 0.657 0.82921 0.9828 0.9323 0.88754 0.88491 0.84831 0.445 0.548
3693.993 1.2454 0.9354 0.574 1.03 1.5704 1.394 0.9893 1.069 0.9242 0.902
3713.282 1.0266 0.7799 0.528 0.9846 1.219 1.2381 1.3661 1.3358 1.3864 1.2201
3732.572 0.7598 0.125 0.243 0.85428 0.7179 0.591 0.7595 0.86863 1.5351 1.2186
3751.862 0.82113 1.0928 0.7071 0.416 0.36 0.7281 1.313 1.1655 0.84486 1.1192
3771.152 0.89021 0.462 0.505 0.82003 1.2157 1.0698 0.612 0.82137 1.1468 0.535
3790.441 0.209 0.395 0.7633 0.564 0.506 1.1318 1.0626 0.7286 0.7499 0.519
3809.731 0.442 0.546 0.24 0.471 0.81337 0.52 0.279 0.448 0.258 0.303
3829.021 0.82138 1.2124 1.0435 1.068 1.1066 0.9678 1.4184 1.5925 1.2183 0.536
3848.311 0.638 1.2979 1.4127 0.86485 0.78725 1.0324 1.0875 1.1917 1.0334 0.82191
3867.601 0.9112 1.0864 1.5997 1.6926 0.7361 0.517 0.7297 0.393 0.72 1.283
3886.890 1.3175 1.1295 0.8996 1.0453 1.0465 0.9908 1.3526 1.3848 1.1269 1.2654
3906.180 1.0342 0.591 0.614 0.984 1.2706 1.0561 0.679 0.586 0.741 0.88979
3925.470 0.7683 0.165 0.109 0.7347 0.7101 0.403 0.425 0.633 1.156 0.7464
3944.760 0.306 0.85889 0.9408 0.338 0.546 0.601 0.345 1.1016 1.2482 0.9947
3964.049 1.1865 1.29 0.9518 0.9118 1.1164 1.4459 1.5612 1.5264 0.997 0.7328
3983.339 0.724 0.131 0.576 1.1019 0.86422 0.38 0.026 0.465 0.7729 1.008
##END=
