##TITLE=4-Chloro-(2-hydroxyhexafluoroisopropyl)benzene
##JCAMP-DX=4.24
##DATA TYPE=INFRARED SPECTRUM
##ORIGIN=EPA-IR VAPOR PHASE LIBRARY
##OWNER=SRD/NIST
Collection (C) 2018 copyright by the U.S. Secretary of Commerce
on behalf of the United States of America. All rights reserved.
##CAS REGISTRY NO=2010-63-1
##MOLFORM=C 9 H 5 Cl F 6 O
##$NIST SOURCE=MSDC-IR
##STATE=gas
##XUNITS=1/CM
##YUNITS=ABSORBANCE
##XFACTOR=1.
##YFACTOR=0.001
##DELTAX=1.92898
##FIRSTX=549.8
##LASTX=4000.7
##FIRSTY=8.431
##MAXX=4000.7
##MINX=549.759
##MAXY=0.367211
##MINY=0
##NPOINTS=1790
##XYDATA=(X++(Y..Y))
549.759 8.431 6.911 6.081 6.111 6.001 6.001 6.101 6.111 5.711 5.201
569.049 5.671 5.341 4.331 4.211 3.691 3.261 3.451 3.761 3.351 3.691
588.339 4.221 3.741 3.451 3.261 3.261 3.451 3.551 3.541 3.661 3.401
607.628 3.591 3.921 3.451 3.541 3.921 4.111 4.091 3.921 4.231 4.061
626.918 4.011 4.351 4.001 3.571 3.981 4.681 4.431 3.941 3.781 3.781
646.208 3.841 3.811 4.111 3.711 3.141 3.991 4.151 3.281 3.661 3.991
665.498 3.581 3.641 4.041 4.381 4.031 3.441 3.721 4.131 4.601 5.441
684.787 6.411 7.821 9.681 11.641 14.641 18.591 22.401 25.651 26.581 26.321
704.077 25.141 22.201 18.441 14.401 12.241 12.001 12.471 14.951 19.481 25.491
723.367 32.981 41.451 49.321 56.111 58.701 55.971 51.721 44.101 34.211 24.741
742.657 17.231 12.421 9.891 9.081 10.371 14.401 19.921 24.521 27.441 27.911
761.947 25.751 21.651 15.691 10.911 8.381 7.521 7.741 8.051 7.971 8.171
781.236 8.321 8.281 8.451 8.241 8.051 7.271 6.701 6.651 6.411 6.671
800.526 7.181 6.861 6.871 7.921 9.141 12.021 16.501 22.091 29.241 37.931
819.816 46.061 50.751 53.651 53.011 47.841 40.481 31.501 23.061 16.891 12.811
839.106 9.951 8.281 7.651 7.651 7.491 7.501 7.841 7.901 8.091 7.681
858.395 7.071 6.841 6.311 5.891 6.391 6.191 5.251 5.421 5.861 6.081
877.685 6.621 7.041 7.591 8.431 8.901 9.311 9.831 10.361 11.021 12.141
896.975 13.071 14.231 15.781 17.321 20.031 24.101 28.441 34.341 42.381 52.651
916.265 63.591 73.561 82.371 88.051 89.391 86.851 80.981 73.321 67.301 62.771
935.555 58.671 55.321 52.571 50.741 48.191 44.871 42.431 40.921 40.481 40.771
954.844 42.701 45.901 49.891 54.541 58.431 61.831 64.951 66.491 65.931 63.791
974.134 60.081 54.611 48.261 41.821 35.271 29.221 24.911 22.381 20.211 18.481
993.424 17.411 16.091 15.171 15.131 15.661 15.741 15.701 17.371 19.831 23.491
1012.714 29.281 35.261 38.091 37.801 36.081 30.871 23.881 18.951 15.941 14.601
1032.003 12.911 11.551 12.001 12.111 11.911 11.261 10.611 10.731 10.831 11.331
1051.293 11.551 11.531 11.831 12.001 12.941 13.511 13.951 14.421 14.901 17.101
1070.583 18.681 20.071 22.751 26.381 29.811 33.461 37.321 43.111 51.441 61.051
1089.873 74.551 92.171 112.771 132.441 148.181 156.141 151.391 137.721 117.261 93.471
1109.163 72.861 59.821 52.681 46.011 40.411 37.671 37.941 37.101 37.061 38.791
1128.452 39.781 41.681 42.501 41.581 41.301 40.891 40.601 42.451 46.181 50.281
1147.742 57.831 67.591 77.211 90.041 103.481 115.171 126.941 137.541 146.051 153.461
1167.032 158.051 159.181 157.591 153.671 147.971 141.281 134.241 128.671 124.651 121.931
1186.322 121.021 120.431 121.031 123.551 124.961 126.991 133.061 138.301 144.861 155.921
1205.611 167.861 184.211 206.091 232.571 262.601 294.141 323.051 348.021 362.661 367.211
1224.901 365.231 349.731 329.511 312.141 298.901 288.601 280.081 274.311 269.301 263.201
1244.191 257.581 252.391 249.871 251.121 256.331 265.201 273.451 279.131 281.991 278.921
1263.481 270.671 259.261 246.061 235.521 228.371 223.371 217.871 210.131 199.621 186.271
1282.771 170.921 154.791 139.031 125.011 112.751 102.251 93.341 85.551 78.741 72.691
1302.060 68.341 64.761 61.351 58.551 55.911 53.381 50.261 46.091 41.501 37.291
1321.350 32.991 29.041 25.821 23.251 21.181 19.471 18.241 17.431 16.901 16.441
1340.640 16.301 16.101 15.871 15.921 15.991 16.001 16.351 16.981 17.291 17.691
1359.930 18.251 18.861 19.301 19.511 19.611 19.171 18.461 17.361 15.891 14.561
1379.219 13.211 11.901 10.951 10.131 9.471 8.921 8.431 8.211 8.151 8.201
1398.509 8.411 8.911 9.651 10.481 11.261 12.031 12.711 12.911 12.391 11.751
1417.799 10.871 9.721 8.911 8.281 7.761 7.331 7.071 6.981 6.941 6.701
1437.089 6.421 6.371 6.391 6.491 6.611 6.631 6.661 6.831 7.031 7.301
1456.378 7.521 7.501 7.391 7.221 7.361 7.791 8.271 8.631 9.191 10.181
1475.668 10.931 12.121 13.931 15.871 18.271 21.651 26.321 32.731 41.341 50.731
1494.958 58.951 63.951 63.841 59.261 50.531 39.221 27.571 19.211 14.471 11.491
1514.248 9.681 8.481 7.661 7.051 6.401 5.921 5.511 5.151 4.841 4.781
1533.538 4.761 4.641 4.511 4.241 4.351 4.491 4.311 4.191 4.161 4.201
1552.827 4.341 4.621 4.961 5.111 5.141 5.191 5.571 5.961 6.101 6.561
1572.117 7.081 7.471 7.991 8.251 8.321 8.441 9.071 10.111 10.981 12.641
1591.407 15.151 17.511 19.831 21.701 22.371 21.651 19.661 16.501 12.981 9.801
1610.697 7.701 6.431 5.431 4.841 4.351 3.991 3.841 3.771 3.721 3.731
1629.986 3.811 4.011 4.211 4.371 4.771 5.331 5.681 5.621 5.581 5.291
1649.276 4.861 4.611 4.041 3.761 3.701 3.481 3.151 3.001 2.761 2.381
1668.566 2.531 2.651 2.521 2.401 2.271 2.211 2.201 2.121 2.061 2.441
1687.856 2.511 2.181 2.351 2.521 2.281 2.161 2.081 1.991 2.081 2.281
1707.146 2.331 2.301 2.481 2.411 2.201 2.311 2.531 2.571 2.531 2.561
1726.435 2.591 2.631 2.521 2.511 2.461 2.681 2.861 2.721 2.851 2.771
1745.725 2.621 2.741 2.701 2.631 2.641 2.631 2.641 2.661 2.711 2.821
1765.015 2.881 2.971 3.091 3.141 3.271 3.341 3.471 3.631 3.851 3.931
1784.305 4.001 3.941 3.531 3.061 2.811 2.691 2.601 2.451 2.411 2.371
1803.594 2.161 2.261 2.191 2.091 2.271 2.411 2.471 2.571 2.591 2.451
1822.884 2.391 2.421 2.221 2.141 2.071 1.891 1.921 1.911 1.891 1.871
1842.174 1.881 1.891 1.881 1.6547 1.5771 1.851 1.991 2.051 2.131 2.081
1861.464 2.081 1.951 1.901 1.961 1.991 2.191 2.301 2.491 2.511 2.401
1880.754 2.521 2.541 2.581 2.841 3.011 3.071 3.141 3.191 3.491 3.711
1900.043 3.791 3.851 3.981 4.151 3.921 3.801 3.691 3.321 2.991 2.891
1919.333 2.891 2.611 2.481 2.371 2.071 2.161 2.421 2.261 2.121 2.271
1938.623 2.171 1.871 1.981 2.191 1.921 1.5992 1.781 1.861 1.761 1.681
1957.913 1.6191 1.6499 1.681 1.781 1.741 1.5955 1.5906 1.6073 1.4793 1.6194
1977.202 1.831 1.901 1.801 1.5767 1.654 1.801 1.811 1.6437 1.6503 1.811
1996.492 1.6352 1.5745 1.5763 1.6177 1.751 1.6532 1.5962 1.649 1.553 1.3613
2015.782 1.4287 1.4897 1.5034 1.6402 1.4825 1.2782 1.3965 1.3657 1.4034 1.4768
2035.072 1.3986 1.413 1.4031 1.377 1.2993 1.4006 1.3429 1.1548 1.1355 1.2077
2054.362 1.5173 1.5681 1.4342 1.3012 1.1475 1.0468 0.9986 1.0421 0.9617 1.1789
2073.651 1.4681 1.3884 1.3685 1.3651 1.4059 1.4379 1.4352 1.5397 1.2877 1.1029
2092.941 1.2497 1.3859 1.4695 1.3622 1.344 1.4686 1.5804 1.6388 1.5642 1.6195
2112.231 1.701 1.731 1.6319 1.6012 1.801 1.811 1.741 1.841 1.761 1.6174
2131.521 1.731 1.841 1.981 1.971 1.921 1.851 1.921 2.071 1.841 1.761
2150.810 1.801 1.6272 1.6412 1.741 1.681 1.671 1.5938 1.5459 1.5589 1.731
2170.100 1.801 1.791 1.921 1.921 1.801 1.66 1.681 1.671 1.771 1.831
2189.390 1.6188 1.711 1.831 1.931 2.001 1.871 1.781 1.961 2.141 2.051
2208.680 1.751 1.4784 1.701 1.871 1.771 1.5968 1.4618 1.6265 1.761 1.6314
2227.970 1.5914 1.6597 1.6397 1.5469 1.4487 1.3774 1.3385 1.4086 1.5039 1.3884
2247.259 1.296 1.3234 1.4367 1.3444 1.1868 1.3564 1.5488 1.5301 1.5884 1.5944
2266.549 1.246 1.2916 1.3602 1.2091 1.0334 0.9859 1.177 1.2706 1.5842 1.671
2285.839 1.4261 1.3357 1.3821 1.5662 1.6091 1.4841 1.3525 1.5198 1.701 1.721
2305.129 1.721 1.6538 1.691 1.841 1.981 1.921 1.841 1.971 2.091 2.141
2324.418 2.191 2.301 2.171 2.111 2.261 2.181 2.131 2.221 2.211 2.241
2343.708 2.401 2.381 2.211 2.121 2.241 2.331 2.381 2.361 2.011 2.041
2362.998 2.301 2.341 2.231 2.221 2.321 2.381 2.291 2.301 2.571 2.421
2382.288 2.151 2.391 2.471 2.461 2.661 2.431 2.191 2.221 2.251 2.371
2401.578 2.361 2.461 2.381 1.951 1.741 1.731 1.781 1.691 1.811 2.131
2420.867 2.271 2.181 2.001 1.851 1.841 1.941 1.791 1.6233 1.6047 1.771
2440.157 1.771 1.661 1.941 2.301 2.171 1.981 2.141 2.111 1.961 1.831
2459.447 1.6364 1.691 1.821 1.761 1.771 1.5796 1.5606 1.941 1.951 1.811
2478.737 1.871 1.821 1.681 1.3703 1.1463 1.3156 1.5481 1.791 1.831 1.721
2498.026 1.6171 1.4647 1.3863 1.3038 1.3195 1.3983 1.3774 1.4337 1.4472 1.2268
2517.316 1.1347 1.205 1.3612 1.4546 1.5134 1.4653 1.4388 1.6138 1.6581 1.761
2536.606 1.6197 1.4039 1.4763 1.4152 1.542 1.821 1.881 1.731 1.5992 1.3033
2555.896 1.2231 1.1569 1.0386 1.199 1.2108 1.2191 1.1928 0.9973 1.118 1.2039
2575.186 1.1653 1.2649 0.9537 0.74387 0.8253 1.0186 1.1532 1.3265 1.2488 1.0893
2594.475 1.2278 1.1164 0.9358 0.8904 1.0827 1.2639 1.3527 1.341 1.3805 1.4512
2613.765 1.2265 1.1945 1.1964 1.0874 0.982 0.9504 0.9442 0.72302 0.7955 1.0135
2633.055 0.7913 0.9952 1.1719 0.9313 1.1464 1.3477 1.0564 0.8939 1.1309 1.0099
2652.345 0.6126 0.6027 0.8241 0.954 1.0587 1.2291 1.3541 1.1689 0.9671 0.9599
2671.634 0.7829 0.7886 0.8844 0.9653 0.8423 0.8597 1.1933 1.0222 1.0139 1.2041
2690.924 1.2302 1.1738 1.2037 1.4752 1.3386 1.1829 1.4384 1.361 1.2987 1.2616
2710.214 1.1488 1.1906 0.8846 0.9266 1.153 1.0731 0.9846 1.1839 1.1991 1.0927
2729.504 1.2966 0.9991 0.941 1.1818 1.2401 1.0347 0.8484 0.65511 0.6261 1.0719
2748.794 1.1078 0.8724 0.9619 0.7475 0.8988 1.1439 0.9316 1.0405 1.2436 1.0941
2768.083 0.75401 1.0939 1.2246 1.072 1.2961 1.4276 1.3293 1.0923 0.8163 0.8828
2787.373 0.8537 0.8374 1.1217 1.0572 0.8609 0.9394 1.0706 0.7854 0.314 0.6093
2806.663 0.8667 0.781 0.9176 1.0013 0.861 0.73808 0.7662 0.72708 0.8252 0.8693
2825.953 0.8615 1.0241 1.0881 0.8372 0.5793 0.448 0.5827 0.6313 0.68972 0.7914
2845.242 0.8625 0.65918 0.6081 0.7868 0.8693 1.0349 0.9361 0.70485 0.378 0.644
2864.532 0.9662 0.7744 0.70451 0.6124 0.667712 0.9116 0.8355 0.69565 0.491 0.253
2883.822 0.6073 1.0059 1.0471 1.054 0.70015 0.493 0.547 0.72517 0.519 0.665759
2903.112 0.7445 0.5729 0.8229 0.7816 0.74055 0.8205 0.8529 0.338 0 0.039
2922.401 0.287 0.863 0.8912 0.67169 1.1884 1.1866 0.9145 0.9275 0.7581 0.9125
2941.691 1.0415 0.9275 0.8136 0.623 0.411 0.70193 1.0938 1.2315 0.9355 0.6458
2960.981 0.9624 0.9386 0.75281 1.0342 0.9617 0.7425 0.73445 0.70792 0.67745 0.5826
2980.271 0.8988 1.0634 0.8732 0.6372 0.68013 0.7629 0.7921 0.9261 1.098 1.1544
2999.561 0.6481 0.9168 1.1767 0.6025 0.526 0.547 0.479 0.486 0.54 0.891
3018.850 1.2869 0.9792 0.67302 0.9569 1.1711 1.2712 1.2008 1.1176 0.7945 0.522
3038.140 0.8273 0.9028 0.9313 0.9422 0.9988 1.5328 1.4034 1.3258 1.3037 1.2762
3057.430 1.5376 1.5758 1.5482 1.4134 1.3108 1.5712 1.911 2.031 1.731 1.4875
3076.720 1.871 2.351 2.931 2.841 3.021 3.741 3.621 3.311 3.271 3.111
3096.009 2.731 2.451 2.281 2.121 2.131 1.721 1.6158 1.921 1.971 1.821
3115.299 1.6114 1.841 1.841 1.1429 0.8867 1.1224 0.8248 0.7924 1.3358 1.4173
3134.589 1.1147 1.1856 1.4463 1.325 0.9018 0.6039 0.65474 1.2324 1.5388 1.4104
3153.879 1.4853 1.2805 1.223 1.5186 1.1512 0.73485 0.9275 1.0851 0.9246 1.2612
3173.169 1.1212 0.347 0.168 0.227 0.7661 0.67715 0.374 0.6456 1.1975 1.4159
3192.458 1.0707 1.0288 1.2774 1.2896 1.0947 1.1663 1.3665 0.9255 0.68063 1.2671
3211.748 0.6733 0.117 0.18 0.533 1.0394 1.4066 1.1559 0.546 0.327 0.628
3231.038 0.43 0.6368 1.4697 1.0898 1.0889 1.1354 0.6033 0.71878 0.83 0.72628
3250.328 1.0631 0.9996 0.71645 0.9307 0.8675 0.6205 1.1211 1.2673 0.9303 1.0459
3269.617 1.5036 1.4934 1.373 1.2108 0.8068 1.2301 1.6402 1.5762 1.711 1.6393
3288.907 1.751 2.461 2.291 1.801 1.681 1.5679 1.791 1.5169 1.1845 1.2049
3308.197 1.3537 1.537 1.6514 1.4116 1.0188 1.5473 1.881 1.691 1.1189 1.3403
3327.487 1.961 1.6063 1.2592 1.4913 1.3229 0.8663 1.5972 1.991 1.901 1.681
3346.777 1.4176 1.6399 1.901 1.801 1.921 2.371 2.301 2.121 1.681 1.2531
3366.066 1.159 1.2824 1.1573 1.0934 1.3063 1.5662 1.771 1.4566 1.634 1.5502
3385.356 0.9749 0.8634 1.2542 1.3892 1.476 1.691 1.519 1.3067 1.1071 1.2598
3404.646 1.4722 1.5433 1.5632 1.2791 1.2488 1.1437 1.0141 1.1789 1.2638 1.1915
3423.936 1.0707 1.582 1.5919 0.939 0.9859 1.4859 1.771 1.3995 1.1059 1.5054
3443.225 1.971 1.961 1.841 1.4041 1.1388 1.661 1.5596 1.3426 1.3818 1.1826
3462.515 1.2219 1.2107 1.4069 1.6099 1.5275 1.4581 1.3973 1.2706 1.17 1.3748
3481.805 1.3729 1.0212 1.0059 1.2726 1.2599 1.2024 1.054 0.73144 0.72439 1.0256
3501.095 1.3979 1.2119 0.73358 1.0886 1.5957 1.629 1.3023 1.0637 1.4234 1.5926
3520.385 1.2865 0.662211 0.517 0.72811 0.513 0.9914 1.821 1.6377 1.464 1.2553
3539.674 1.701 2.031 1.4004 1.4374 1.3686 1.4662 1.3591 0.8538 0.6118 1.0024
3558.964 1.5482 1.1797 1.5034 1.871 1.4657 1.3654 1.791 2.021 2.331 2.371
3578.254 1.771 1.5304 1.6561 1.6215 1.831 2.831 3.051 2.681 2.751 3.311
3597.544 3.751 4.221 4.611 4.611 5.271 6.391 7.761 9.811 12.961 17.541
3616.833 24.361 35.281 49.251 63.051 73.851 79.561 78.731 71.801 60.571 47.111
3636.123 35.581 26.881 20.581 15.641 11.861 9.301 8.171 7.301 6.041 5.631
3655.413 4.811 4.021 3.801 3.211 3.181 3.651 3.111 2.591 2.561 2.591
3674.703 2.561 2.311 2.421 1.991 1.6311 1.991 2.311 2.851 2.481 1.711
3693.993 1.961 1.911 1.5636 1.671 1.851 2.161 2.431 1.771 0.9599 1.3192
3713.282 2.061 1.901 1.5517 1.4934 1.661 1.5303 1.771 2.321 1.911 1.5377
3732.572 1.0529 0.73542 1.0876 1.5746 1.4671 1.2611 1.2804 1.5583 1.6295 1.5709
3751.862 2.041 1.5683 0.9683 0.8614 1.0734 1.891 1.751 0.8085 1.1134 1.2703
3771.152 1.11 1.2878 1.2055 1.3003 1.4122 1.3893 1.6434 1.6375 1.4457 1.6054
3790.441 1.931 1.961 1.5584 1.1863 0.8426 1.1151 1.3797 1.4568 1.691 1.6041
3809.731 1.3446 1.6318 1.6403 1.701 1.961 1.5033 1.1848 1.2662 1.4616 1.701
3829.021 1.4322 1.1859 1.4816 1.5399 1.1495 0.8482 1.2849 1.6402 1.5394 1.691
3848.311 1.971 1.5025 0.547 0.8393 1.5229 1.5717 1.3723 1.491 1.6362 1.2924
3867.601 1.6192 1.911 2.191 2.171 1.4021 1.3578 1.3989 1.1725 1.561 1.801
3886.890 1.5947 1.831 2.301 2.241 1.661 1.338 1.2745 1.761 2.131 1.5537
3906.180 1.2005 1.5195 0.8614 0.86 1.5777 1.911 2.321 1.731 1.681 1.5436
3925.470 1.5753 2.081 2.051 2.021 2.121 2.161 1.5739 0.6387 0.7961 1.3784
3944.760 1.4211 1.6527 2.041 2.121 1.711 1.881 2.731 3.001 2.391 2.271
3964.049 2.321 2.061 1.671 1.3225 1.4131 1.4704 1.3245 1.5035 1.841 1.5619
3983.339 1.3537 1.741 1.921 1.911 1.771 1.4913 1.741 1.6251 1.0693 1.0746
##END=
