##TITLE=cis-3-Octen-1-ol
##JCAMP-DX=4.24
##DATA TYPE=INFRARED SPECTRUM
##ORIGIN=NIST Mass Spectrometry Data Center
##OWNER=NIST Standard Reference Data Program
Collection (C) 2018 copyright by the U.S. Secretary of Commerce
on behalf of the United States of America. All rights reserved.
##CAS REGISTRY NO=20125-84-2
##MOLFORM=C 8 H 16 O
##$NIST SOURCE=MSDC-IR
##SPECTROMETER/DATA SYSTEM=HP-GC/MS/IRD
##STATE=gas
##XUNITS=1/CM
##YUNITS=ABSORBANCE
##XFACTOR=1.0
##YFACTOR=0.000002900
##DELTAX=4.0
##FIRSTX=550.0
##LASTX=3846.0
##FIRSTY=0.000484
##MAXX=3846
##MINX=550
##MAXY=0.029
##MINY=0
##NPOINTS=825
##XYDATA=(X++(Y..Y))
550.0 167 77 5 44 79 105 127 170 218 242
590.0 249 247 239 217 174 117 101 118 99 94
630.0 85 92 130 139 150 161 166 206 265 311
670.0 364 424 491 572 675 789 883 991 1082 1119
710.0 1123 1109 1074 1004 912 832 750 666 601 535
750.0 473 416 357 312 286 251 216 203 206 218
790.0 223 220 219 213 217 226 232 246 260 278
830.0 290 309 330 355 379 394 429 460 502 550
870.0 566 559 546 511 466 420 373 320 279 257
910.0 245 244 249 249 257 268 276 288 300 311
950.0 336 368 398 444 490 548 612 683 774 879
990.0 999 1131 1275 1430 1592 1771 1946 2167 2473 2871
1030.0 3401 4035 4660 5133 5329 5196 4768 4149 3463 2819
1070.0 2250 1785 1436 1162 967 825 721 650 601 556
1110.0 514 474 433 409 404 401 401 395 395 412
1150.0 431 445 467 488 510 525 540 563 570 580
1190.0 586 585 588 590 587 577 558 548 545 541
1230.0 538 544 552 559 570 580 582 589 602 602
1270.0 603 607 617 628 637 649 673 688 695 700
1310.0 696 688 681 672 666 672 678 697 719 735
1350.0 743 759 801 872 990 1139 1298 1444 1517 1508
1390.0 1429 1294 1180 1081 973 864 768 695 669 684
1430.0 721 771 832 893 962 1035 1081 1109 1109 1073
1470.0 1021 932 822 693 556 437 344 275 226 187
1510.0 159 139 119 100 87 84 73 65 59 53
1550.0 53 47 38 36 33 31 29 33 33 29
1590.0 27 25 25 23 24 32 38 47 61 72
1630.0 81 99 125 144 162 181 185 179 168 156
1670.0 146 137 131 128 119 109 98 91 87 78
1710.0 67 63 55 44 41 37 38 33 25 18
1750.0 16 18 18 14 8 12 21 18 11 9
1790.0 9 9 8 4 5 8 10 8 4 1
1830.0 0 3 7 5 6 10 12 11 12 9
1870.0 2 5 13 14 16 27 28 26 26 21
1910.0 26 28 25 28 28 28 32 31 27 24
1950.0 21 17 9 4 8 8 5 9 12 8
1990.0 7 13 15 20 23 25 32 30 30 34
2030.0 39 51 59 54 50 54 56 50 48 52
2070.0 54 53 54 53 49 47 49 43 37 29
2110.0 26 28 29 28 26 28 29 28 33 29
2150.0 26 29 25 26 28 26 34 37 34 30
2190.0 23 20 19 23 23 25 31 29 28 30
2230.0 27 28 26 23 29 29 28 27 25 32
2270.0 42 45 40 38 41 42 40 42 38 36
2310.0 36 32 34 45 44 43 42 40 44 47
2350.0 42 42 41 37 39 46 50 50 46 44
2390.0 47 52 56 60 61 61 59 61 62 54
2430.0 56 57 54 60 63 60 56 52 54 55
2470.0 55 54 55 57 60 62 62 63 62 59
2510.0 59 59 58 58 60 61 63 66 66 65
2550.0 63 62 73 75 67 69 78 82 81 79
2590.0 81 85 86 85 86 89 92 94 99 106
2630.0 112 124 130 131 147 157 157 159 163 167
2670.0 172 181 183 186 191 188 189 199 202 205
2710.0 213 220 231 245 260 270 283 307 328 345
2750.0 348 349 358 361 364 374 392 410 430 448
2790.0 478 508 539 579 624 682 747 819 920 1038
2830.0 1175 1346 1562 1839 2188 2617 3131 3710 4294 4840
2870.0 5304 5689 5946 5974 5847 5674 5473 5397 5529 5825
2910.0 6266 6841 7558 8330 9055 9638 9985 10000 9686 9235
2950.0 8804 8508 8454 8598 8589 8138 7265 6060 4757 3712
2990.0 3031 2679 2598 2708 2923 3139 3226 3137 2874 2462
3030.0 1985 1540 1182 925 729 596 517 471 435 410
3070.0 389 361 331 307 280 258 235 216 215 207
3110.0 188 162 153 155 150 144 141 132 125 123
3150.0 118 113 100 94 95 102 103 94 91 81
3190.0 74 71 64 62 64 71 73 66 63 51
3230.0 41 43 49 52 48 46 50 48 49 48
3270.0 45 42 40 39 36 35 39 38 32 24
3310.0 19 25 24 32 31 32 42 37 35 36
3350.0 46 45 43 47 39 27 28 29 32 37
3390.0 27 32 36 35 41 42 46 51 50 44
3430.0 50 62 67 60 53 48 44 50 45 42
3470.0 59 56 48 53 54 57 62 65 57 60
3510.0 70 64 58 61 50 45 57 57 58 55
3550.0 50 54 60 61 58 65 71 66 65 76
3590.0 85 104 140 174 207 243 286 320 354 380
3630.0 378 390 418 453 496 560 640 723 808 852
3670.0 839 774 672 546 424 325 257 210 180 157
3710.0 136 114 91 85 83 76 74 78 78 72
3750.0 72 74 78 71 59 52 57 66 62 56
3790.0 62 56 57 58 55 71 75 67 72 80
3830.0 79 85 87 78 78
##END=
