##TITLE=Ethyl 3-morpholinopropionate
##JCAMP-DX=4.24
##DATA TYPE=INFRARED SPECTRUM
##ORIGIN=EPA-IR VAPOR PHASE LIBRARY
##OWNER=SRD/NIST
Collection (C) 2018 copyright by the U.S. Secretary of Commerce
on behalf of the United States of America. All rights reserved.
##CAS REGISTRY NO=20120-24-5
##MOLFORM=C 9 H 17 N O 3
##$NIST SOURCE=MSDC-IR
##STATE=gas
##XUNITS=1/CM
##YUNITS=ABSORBANCE
##XFACTOR=1.
##YFACTOR=0.001
##DELTAX=1.929
##FIRSTX=549.8
##LASTX=4000.8
##FIRSTY=0.843
##MAXX=4000.75
##MINX=549.766
##MAXY=0.107696
##MINY=0
##NPOINTS=1790
##XYDATA=(X++(Y..Y))
549.766 0.843 0.586 0.9208 1.1416 0.722 0.634 0.61 0.414 0.69 0.75
569.056 0.545 0.575 0.515 0.608 0.9229 0.9185 0.873 1.00799 1.1308 1.1156
588.346 1.1302 1.1927 1.433 1.5314 1.6219 1.82 1.9504 2.186 2.366 2.676
607.636 3.056 3.436 3.976 4.346 4.646 4.986 4.976 4.856 4.716 4.226
626.926 3.636 3.216 2.876 2.656 2.506 2.236 2.096 2.036 1.9242 1.9214
646.216 1.7676 1.6515 1.621 1.5265 1.5079 1.349 1.2795 1.4244 1.5285 1.5444
665.506 1.4672 1.3761 1.3232 1.2038 1.0994 1.1427 1.1962 1.1374 1.0987 1.1476
684.796 1.06616 1.099 1.2738 1.3078 1.2567 1.251 1.3263 1.2976 1.2624 1.3118
704.086 1.4411 1.4289 1.3723 1.3926 1.3927 1.4154 1.332 1.3239 1.3665 1.3822
723.376 1.4095 1.4455 1.5372 1.6136 1.5378 1.5246 1.7383 1.7952 1.8126 1.996
742.666 2.136 2.176 2.276 2.546 2.806 2.996 3.286 3.576 3.886 4.306
761.956 4.706 5.246 5.786 6.106 6.386 6.406 6.126 5.826 5.506 5.036
781.246 4.596 4.306 4.106 4.016 3.906 3.806 3.716 3.576 3.526 3.536
800.536 3.446 3.246 3.186 3.116 3.036 2.766 2.736 3.116 3.046 2.716
819.826 2.476 2.426 2.446 2.496 2.676 2.856 2.996 3.166 3.426 3.796
839.116 4.246 4.786 5.396 6.116 7.016 8.176 9.706 11.556 13.426 14.946
858.406 16.056 16.716 16.816 16.526 15.866 14.946 13.976 12.996 12.086 11.166
877.696 10.186 9.226 8.296 7.416 6.846 6.426 6.086 6.006 6.066 6.116
896.986 6.226 6.506 6.896 7.286 7.726 8.196 8.646 9.026 9.176 9.326
916.276 9.566 9.676 9.776 10.126 10.586 11.116 11.716 12.146 12.406 12.486
935.566 12.266 11.686 10.896 9.996 8.956 8.036 7.206 6.526 6.026 5.596
954.856 5.206 4.986 4.836 4.726 4.716 4.766 4.846 5.006 5.216 5.386
974.146 5.576 5.796 6.046 6.316 6.596 6.836 7.166 7.586 7.986 8.496
993.436 9.306 10.356 11.846 13.846 16.326 19.226 22.246 25.006 27.386 29.226
1012.726 30.386 30.816 30.796 30.756 30.856 31.176 31.696 32.366 33.206 33.746
1032.016 33.766 33.366 32.716 32.046 31.296 30.626 30.126 29.946 29.996 30.006
1051.306 29.916 29.596 29.046 28.106 26.876 25.506 24.006 22.536 21.146 19.956
1070.596 18.936 17.976 17.166 16.636 16.246 16.106 16.276 16.676 17.386 18.476
1089.886 19.846 21.606 23.616 25.826 28.366 31.006 33.946 37.256 40.916 45.166
1109.176 50.206 55.986 62.476 69.506 76.726 83.846 90.476 96.356 101.206 104.786
1128.467 106.996 107.696 106.926 104.776 101.566 97.396 92.296 86.956 81.456 76.096
1147.757 71.486 67.666 64.486 61.736 59.486 57.766 56.716 56.336 56.516 57.146
1167.047 58.286 59.896 61.686 63.796 66.096 68.376 70.416 72.216 73.656 74.496
1186.337 74.866 74.576 73.686 72.326 70.366 67.926 65.226 62.346 59.496 56.536
1205.627 53.506 50.726 48.116 45.666 43.556 41.626 40.086 39.056 38.546 38.516
1224.917 38.836 39.656 40.816 42.186 43.776 45.556 47.546 49.646 51.756 53.686
1244.207 55.126 56.216 56.826 56.586 55.546 53.856 51.496 48.696 45.616 42.456
1263.497 39.486 36.806 34.606 32.976 31.946 31.386 31.116 31.076 31.296 31.726
1282.787 32.256 32.926 33.846 34.856 35.866 36.846 37.656 38.086 38.236 38.086
1302.077 37.466 36.626 35.656 34.626 33.616 32.496 31.336 30.216 29.096 27.846
1321.367 26.626 25.496 24.476 23.756 23.276 23.016 22.796 22.566 22.466 22.376
1340.657 22.286 22.286 22.476 22.886 23.476 24.226 25.006 25.666 26.126 26.396
1359.947 26.686 27.116 27.766 28.606 29.406 29.896 29.936 29.346 27.966 25.966
1379.237 23.586 21.086 18.776 17.036 15.836 15.126 14.756 14.546 14.496 14.436
1398.527 14.316 14.096 13.726 13.186 12.546 11.956 11.406 10.876 10.426 10.096
1417.817 9.936 9.846 9.906 10.046 10.256 10.526 10.886 11.296 11.756 12.326
1437.107 12.906 13.506 14.256 15.086 15.966 16.866 17.676 18.416 19.026 19.406
1456.397 19.546 19.526 19.406 19.026 18.326 17.456 16.426 15.196 13.916 12.606
1475.687 11.326 10.026 8.876 7.926 7.066 6.296 5.656 5.096 4.576 4.176
1494.977 3.856 3.586 3.376 3.136 2.956 2.796 2.626 2.496 2.406 2.326
1514.267 2.236 2.156 2.096 2.036 1.9704 1.9344 1.8754 1.8467 1.8384 1.7878
1533.557 1.7767 1.7563 1.6736 1.6258 1.6443 1.6043 1.584 1.5812 1.5131 1.5088
1552.847 1.5045 1.4862 1.4641 1.4107 1.428 1.4571 1.4208 1.3878 1.3971 1.3453
1572.137 1.2985 1.3392 1.3754 1.383 1.3581 1.3555 1.3393 1.3133 1.3274 1.3135
1591.427 1.355 1.4157 1.412 1.3729 1.3414 1.3521 1.3923 1.4127 1.4242 1.4584
1610.717 1.4741 1.4675 1.4716 1.5151 1.5859 1.5848 1.5773 1.5989 1.6038 1.6316
1630.007 1.6739 1.6667 1.6542 1.7056 1.7333 1.7417 1.7322 1.7091 1.7269 1.7236
1649.297 1.7565 1.8211 1.8076 1.7922 1.8637 1.93 1.9489 2.016 2.066 2.116
1668.587 2.186 2.276 2.366 2.466 2.616 2.726 2.856 3.066 3.316 3.526
1687.877 3.746 3.986 4.296 4.676 5.076 5.546 6.026 6.546 7.096 7.726
1707.167 8.346 9.006 9.736 10.486 11.286 12.106 13.076 14.246 15.646 17.386
1726.457 19.496 22.166 25.556 29.646 34.866 40.956 47.836 55.926 64.656 73.986
1745.747 83.306 92.036 99.326 104.606 107.016 105.986 101.386 93.876 84.356 73.996
1765.037 63.666 53.766 44.796 37.316 31.016 25.976 22.026 18.866 16.296 14.206
1784.327 12.586 11.246 10.116 9.176 8.376 7.616 6.956 6.416 5.946 5.466
1803.617 5.056 4.696 4.336 4.016 3.746 3.546 3.266 3.026 2.916 2.786
1822.907 2.626 2.446 2.306 2.226 2.136 2.036 1.9401 1.8627 1.8591 1.8169
1842.197 1.7515 1.7102 1.6654 1.6473 1.6385 1.5915 1.5718 1.5579 1.5565 1.5641
1861.487 1.547 1.5598 1.5673 1.5645 1.6228 1.6429 1.6225 1.6521 1.6385 1.6556
1880.777 1.7137 1.7426 1.7838 1.8079 1.7927 1.8055 1.8176 1.8021 1.8154 1.8108
1900.067 1.8014 1.8398 1.8784 1.8417 1.8008 1.7988 1.8247 1.8502 1.8499 1.8635
1919.357 1.8541 1.8294 1.787 1.7266 1.7027 1.7171 1.6763 1.627 1.6548 1.6614
1938.647 1.6059 1.5701 1.6055 1.6097 1.5639 1.5767 1.592 1.6 1.6132 1.6072
1957.937 1.6481 1.6709 1.7284 1.8041 1.8127 1.8386 1.8979 1.955 1.996 2.056
1977.227 2.066 2.016 2.036 2.056 1.9818 1.8919 1.821 1.7726 1.7114 1.6955
1996.517 1.6655 1.6223 1.5913 1.5291 1.4644 1.4554 1.4716 1.4275 1.391 1.4156
2015.807 1.4052 1.3729 1.3941 1.3664 1.3458 1.4043 1.3895 1.3579 1.3586 1.3183
2035.097 1.3292 1.377 1.4216 1.4156 1.4058 1.4047 1.3567 1.3644 1.4059 1.4289
2054.387 1.3917 1.3639 1.3516 1.3505 1.374 1.3682 1.3666 1.3243 1.2831 1.3226
2073.677 1.3491 1.3032 1.2954 1.3189 1.3144 1.2591 1.2467 1.2726 1.2579 1.2495
2092.967 1.2234 1.2058 1.2301 1.2647 1.207 1.1698 1.1937 1.1639 1.1291 1.1096
2112.257 1.08386 1.07324 1.0983 1.0988 1.09107 1.08223 1.06392 1.07088 1.06001 1.04148
2131.547 1.05947 1.02918 0.9643 0.9505 0.9213 0.9187 0.9532 0.9638 0.9233 0.9031
2150.837 0.9396 0.897 0.884 0.905 0.9199 0.9576 0.9153 0.831 0.853 0.893
2170.127 0.879 0.872 0.875 0.877 0.835 0.809 0.811 0.805 0.814 0.822
2189.417 0.812 0.811 0.815 0.81 0.804 0.821 0.844 0.87 0.9089 0.9437
2208.707 0.9646 0.9231 0.872 0.9051 0.9303 0.9237 0.9826 1.00316 0.9798 0.995912
2227.997 1.03795 1.05796 1.05149 1.06378 1.08094 1.1108 1.09589 1.09577 1.1248 1.1233
2247.287 1.1076 1.1045 1.09545 1.06601 1.04648 1.01845 0.997861 1.04969 1.1045 1.07518
2266.577 1.05234 1.06464 1.05798 1.07008 1.07801 1.03936 0.9755 0.9689 1.05305 1.0857
2285.868 1.12 1.1182 1.0694 1.06226 1.05645 1.0977 1.1372 1.1385 1.1725 1.1819
2305.158 1.1609 1.1602 1.1958 1.1844 1.1122 1.1025 1.09497 1.05212 1.01934 0.98682
2324.448 0.98774 1.04511 1.0214 0.9736 0.9762 1.00702 1.02909 0.99477 0.9353 0.9513
2343.738 1.01719 0.98896 0.929 0.9353 0.9319 0.9253 0.999868 1.04507 0.998796 0.9782
2363.028 0.997159 0.9712 0.98722 0.9769 0.9415 0.9748 0.9673 0.9205 0.996648 1.04766
2382.318 1.00088 1.01219 1.0012 1.00303 1.02926 1.01354 0.9809 0.9714 0.9643 1.00155
2401.608 1.02283 0.98756 0.998187 0.966 0.9443 0.98638 0.9286 0.9257 0.99456 0.9727
2420.898 0.943 0.9118 0.9278 0.9462 0.9456 0.9373 0.9026 0.884 0.886 0.893
2440.188 0.845 0.855 0.897 0.872 0.851 0.9044 0.971 0.9469 0.9566 0.9514
2459.478 0.893 0.9216 0.9929 0.995175 0.9623 0.9588 0.9588 0.961 1.03303 1.07037
2478.768 1.06371 1.01486 0.9471 0.985 1.00551 0.99204 0.9473 0.9749 0.9711 0.9319
2498.058 0.9333 0.9447 0.9826 0.9685 1.026 0.99067 0.9522 0.9747 0.9243 0.877
2517.348 0.821 0.836 0.879 0.881 0.852 0.876 0.8999 0.884 0.9154 0.917
2536.638 0.883 0.872 0.9149 0.93 0.9257 0.9848 1.03935 1.01436 0.99101 1.02553
2555.928 1.09389 1.09081 1.1275 1.1949 1.1714 1.1253 1.1166 1.1976 1.2236 1.1893
2575.218 1.1458 1.1479 1.1551 1.1258 1.1253 1.0992 1.1299 1.1165 1.06873 1.143
2594.508 1.2049 1.2119 1.2161 1.3001 1.3603 1.3373 1.4035 1.4776 1.4455 1.466
2613.798 1.5408 1.5783 1.5466 1.5562 1.6242 1.6541 1.6934 1.7674 1.8646 1.977
2633.088 2.036 2.086 2.216 2.336 2.456 2.606 2.706 2.796 2.906 3.036
2652.378 3.226 3.406 3.536 3.576 3.636 3.696 3.836 3.996 4.076 4.216
2671.668 4.416 4.676 4.886 5.076 5.356 5.636 5.836 6.046 6.226 6.316
2690.958 6.446 6.506 6.436 6.366 6.306 6.246 6.166 6.086 6.096 6.126
2710.248 6.136 6.266 6.436 6.646 6.756 6.886 7.106 7.336 7.556 7.756
2729.538 7.986 8.246 8.486 8.686 8.836 8.996 9.316 9.746 10.046 10.406
2748.828 10.846 11.356 11.856 12.266 12.726 13.166 13.616 14.046 14.406 14.796
2768.118 15.196 15.546 15.876 16.276 16.746 17.176 17.716 18.486 19.396 20.486
2787.408 21.716 23.166 24.896 26.886 29.186 31.846 34.736 37.626 40.596 43.336
2806.698 45.456 47.046 47.946 47.986 47.466 46.456 45.046 43.386 41.626 39.826
2825.988 37.886 35.986 34.246 32.586 31.086 29.866 28.866 28.146 27.816 27.756
2845.278 28.296 29.626 31.546 34.146 37.506 41.266 44.976 48.066 49.966 50.436
2864.568 49.506 47.186 43.796 40.116 36.596 33.536 31.016 29.006 27.516 26.336
2883.858 25.456 24.956 24.796 25.006 25.416 26.026 26.656 27.336 28.036 28.556
2903.148 28.966 29.196 29.506 29.776 30.076 30.606 31.216 32.006 32.996 33.956
2922.438 34.856 35.936 37.226 38.556 39.866 41.206 42.606 43.996 45.376 46.656
2941.728 47.606 48.266 48.566 48.446 48.096 47.836 47.996 48.826 50.426 52.966
2961.018 56.626 61.366 66.736 71.696 74.536 74.676 72.976 69.936 65.476 59.486
2980.308 53.386 48.636 45.016 41.866 38.816 35.716 32.396 29.106 26.056 23.446
2999.598 21.216 19.126 17.246 15.576 14.156 12.796 11.536 10.506 9.386 8.376
3018.888 7.566 6.816 6.256 5.656 5.066 4.666 4.396 4.086 3.776 3.516
3038.178 3.246 2.936 2.716 2.656 2.576 2.506 2.316 2.146 2.036 1.9203
3057.468 1.9516 1.8814 1.7333 1.6501 1.6212 1.574 1.5982 1.5387 1.5122 1.4486
3076.758 1.2304 1.2584 1.2994 1.2549 1.2458 1.1244 1.04239 1.03322 1.03859 1.1082
3096.048 1.1063 1.133 1.1169 0.9807 0.9403 0.998054 1.07812 0.9697 0.868 1.00979
3115.338 1.06547 1.05498 1.02656 0.9465 1.01682 1.06067 0.891 0.872 0.9544 0.9349
3134.628 0.831 0.769 0.89 0.9261 0.847 0.871 0.888 0.849 0.822 0.839
3153.918 0.825 0.828 0.786 0.731 0.79 0.759 0.732 0.789 0.809 0.807
3173.208 0.802 0.742 0.7 0.681 0.619 0.538 0.593 0.653 0.621 0.628
3192.498 0.593 0.609 0.614 0.563 0.587 0.62 0.586 0.598 0.628 0.531
3211.788 0.418 0.505 0.603 0.515 0.431 0.406 0.266 0.249 0.411 0.541
3231.078 0.511 0.451 0.446 0.315 0.305 0.364 0.315 0.254 0.278 0.312
3250.368 0.294 0.194 0.196 0.269 0.278 0.312 0.239 0.281 0.295 0.226
3269.658 0.299 0.188 0.246 0.36 0.248 0.186 0.126 0.187 0.258 0.167
3288.948 0.152 0.221 0.275 0.393 0.34 0.22 0.305 0.341 0.349 0.414
3308.238 0.313 0.299 0.281 0.124 0.186 0.25 0.204 0.128 0.053 0.156
3327.528 0.187 0.152 0.214 0.193 0.145 0.151 0.237 0.175 0.097 0.218
3346.818 0.243 0.16 0.171 0.165 0.233 0.34 0.301 0.229 0.286 0.337
3366.108 0.248 0.214 0.288 0.231 0.19 0.256 0.156 0.119 0.186 0.14
3385.398 0.104 0.23 0.238 0.211 0.255 0.225 0.295 0.294 0.205 0.21
3404.688 0.134 0.062 0.224 0.371 0.282 0.184 0.117 0.133 0.178 0.176
3423.978 0.211 0.238 0.285 0.286 0.315 0.32 0.197 0.194 0.267 0.348
3443.269 0.319 0.312 0.321 0.292 0.302 0.264 0.222 0.356 0.453 0.32
3462.559 0.414 0.552 0.51 0.482 0.58 0.73 0.756 0.799 0.9826 1.1176
3481.849 1.0744 1.01164 1.00477 1.0373 1.07252 1.04916 0.9885 0.879 0.822 0.852
3501.139 0.841 0.822 0.714 0.506 0.425 0.568 0.601 0.37 0.086 0.111
3520.429 0.403 0.418 0.267 0.147 0.126 0.197 0.202 0.17 0.194 0.23
3539.719 0.228 0.248 0.182 0.199 0.243 0.27 0.325 0.195 0.134 0.18
3559.009 0.208 0.17 0.196 0.211 0.196 0.175 0.089 0.106 0.142 0.166
3578.299 0.242 0.127 0.004 0.128 0.229 0.238 0.087 0.062 0.128 0.116
3597.589 0.186 0.246 0.218 0.121 0.086 0.175 0.055 0.02 0.211 0.212
3616.879 0.142 0.082 0.148 0.221 0.1 0.017 0.07 0.105 0.098 0.073
3636.169 0.093 0.11 0.155 0.18 0.072 0.069 0.083 0 0.063 0.162
3655.459 0.206 0.086 0.017 0.105 0.064 0.125 0.172 0.146 0.155 0.152
3674.749 0.079 0 0.036 0.054 0.096 0.206 0.233 0.221 0.257 0.28
3694.039 0.275 0.229 0.252 0.175 0.194 0.38 0.407 0.328 0.245 0.199
3713.329 0.297 0.377 0.345 0.277 0.254 0.345 0.38 0.338 0.228 0.194
3732.619 0.343 0.373 0.334 0.374 0.31 0.31 0.245 0.259 0.352 0.291
3751.909 0.353 0.367 0.358 0.323 0.239 0.213 0.269 0.422 0.448 0.397
3771.199 0.399 0.36 0.387 0.305 0.185 0.237 0.297 0.387 0.384 0.37
3790.489 0.363 0.377 0.428 0.43 0.479 0.409 0.394 0.54 0.61 0.524
3809.779 0.402 0.442 0.391 0.389 0.509 0.477 0.436 0.436 0.491 0.386
3829.069 0.412 0.525 0.496 0.518 0.474 0.596 0.638 0.482 0.462 0.458
3848.359 0.394 0.436 0.543 0.628 0.612 0.457 0.392 0.382 0.384 0.409
3867.649 0.484 0.507 0.524 0.497 0.532 0.61 0.528 0.537 0.615 0.512
3886.939 0.306 0.331 0.494 0.503 0.473 0.352 0.339 0.317 0.272 0.408
3906.229 0.408 0.476 0.647 0.625 0.526 0.572 0.639 0.667 0.709 0.702
3925.519 0.742 0.68 0.543 0.628 0.646 0.637 0.595 0.563 0.661 0.684
3944.809 0.638 0.696 0.729 0.657 0.632 0.699 0.763 0.701 0.616 0.634
3964.099 0.746 0.834 0.791 0.792 0.983 0.977 0.9563 1.1066 1.128 1.07713
3983.389 1.01441 0.9233 0.836 0.885 0.9645 0.836 0.673 0.734 0.716 0.624
##END=
