##TITLE=1-Tetradecylamine
##JCAMP-DX=4.24
##DATA TYPE=INFRARED SPECTRUM
##ORIGIN=EPA-IR VAPOR PHASE LIBRARY
##OWNER=SRD/NIST
Collection (C) 2018 copyright by the U.S. Secretary of Commerce
on behalf of the United States of America. All rights reserved.
##CAS REGISTRY NO=2016-42-4
##MOLFORM=C 14 H 31 N
##$NIST SOURCE=MSDC-IR
##STATE=gas
##XUNITS=1/CM
##YUNITS=ABSORBANCE
##XFACTOR=1.
##YFACTOR=0.001
##DELTAX=1.92898
##FIRSTX=549.8
##LASTX=4000.7
##FIRSTY=2.28
##MAXX=4000.7
##MINX=549.759
##MAXY=0.46995
##MINY=0.0001557
##NPOINTS=1790
##XYDATA=(X++(Y..Y))
549.759 2.28 2.44 2.88 3.06 2.76 2.86 3.23 3.07 2.9 2.71
569.049 2.65 2.87 2.99 3.07 2.87 2.81 3.1 3.06 3.06 3.33
588.339 3.47 3.4 3.31 3.26 3.56 3.72 3.52 3.49 3.45 3.53
607.628 3.79 3.77 3.68 3.87 3.87 3.86 4.09 4.12 3.93 3.98
626.918 4.16 4.21 4.28 4.3 4.26 4.45 4.76 4.85 4.78 4.76
646.208 5 5.15 5.2 5.42 5.56 5.53 5.63 5.79 5.88 6.08
665.498 6.04 6.04 6.26 6.32 6.5 6.7 7.05 7.23 7.38 7.75
684.787 7.87 8.08 8.47 8.79 9.17 9.69 10.06 10.4 10.94 11.53
704.077 12.19 13.05 13.79 14.61 15.56 16.3 16.93 17.55 18.18 18.74
723.367 19.25 19.75 20.33 20.95 21.59 22.23 22.77 23.32 24.04 24.92
742.657 25.7 26.57 27.48 28.09 28.72 29.57 30.36 31.15 31.87 32.44
761.947 32.93 33.26 33.47 33.74 34.06 34.03 33.82 33.56 32.93 32
781.236 31.07 30.07 28.72 27.27 25.55 23.81 22.17 20.75 19.43 18.05
800.526 17.03 16.1 15.23 14.33 13.65 13.02 12.31 11.77 11.35 10.85
819.816 10.46 10.31 9.96 9.49 9.18 9.06 8.88 8.55 8.44 8.17
839.106 7.78 7.74 7.52 7.31 7.36 7.23 7.12 7.03 6.84 6.82
858.395 6.63 6.32 6.27 6.26 6.18 5.98 5.85 5.83 5.75 5.61
877.685 5.59 5.6 5.41 5.41 5.37 5.28 5.31 5.25 5.08 5.04
896.975 5.12 4.97 4.9 5.05 5.02 4.87 4.82 4.79 4.74 4.74
916.265 4.57 4.45 4.59 4.64 4.51 4.4 4.29 4.46 4.63 4.52
935.555 4.48 4.34 4.21 4.24 4.37 4.32 4.08 4.03 4.04 4.01
954.844 3.96 3.9 3.87 3.9 3.96 3.95 3.83 3.7 3.74 3.86
974.134 3.88 3.89 3.85 3.77 3.86 3.93 3.89 4.07 4.23 4.08
993.424 3.98 3.98 4.15 4.13 4.05 4.22 4.28 4.35 4.42 4.36
1012.714 4.21 4.39 4.64 4.65 4.9 5.06 5.06 5.26 5.54 5.88
1032.003 5.97 5.98 6.13 6.32 6.68 6.77 6.81 7.24 7.51 7.6
1051.293 7.7 8.04 8.54 8.81 9.08 9.31 9.42 9.99 10.68 10.73
1070.583 10.87 11.05 11.01 10.61 10.18 10.1 9.8 9.36 8.99 8.51
1089.873 8.11 8.01 7.61 6.83 6.41 6.2 5.94 5.56 5.22 4.75
1109.163 4.45 4.5 4.41 4.02 3.52 3.22 3.11 3.18 3.43 3.49
1128.452 3.19 2.93 2.8 2.86 2.92 2.63 2.42 2.28 2.23 2.46
1147.742 2.41 2.33 2.24 2.3 2.52 2.37 2.3 2.28 2.36 2.48
1167.032 2.42 2.56 2.52 2.68 2.89 2.66 2.39 2.54 2.85 2.86
1186.322 2.96 3.09 3.06 2.86 2.92 2.94 2.96 3 3.01 3.26
1205.611 3.19 2.95 3.12 3.29 3.22 3.32 3.47 3.4 3.35 3.56
1224.901 3.66 3.67 3.65 3.52 3.62 3.94 3.83 3.72 3.85 3.82
1244.191 3.68 3.69 3.89 3.94 4 4.1 4.28 4.32 4.46 4.73
1263.481 4.73 4.57 4.6 4.76 4.87 4.94 5.07 5.35 5.5 5.59
1282.771 5.64 5.7 6.06 6.39 6.66 6.92 7.07 7.28 7.52 7.75
1302.060 7.96 8.15 8.22 8.25 8.26 8.16 7.99 7.84 7.67 7.55
1321.350 7.51 7.48 7.51 7.67 7.93 8.24 8.65 9.14 9.72 10.4
1340.640 11.08 11.8 12.53 13.2 13.82 14.35 14.66 14.8 14.74 14.57
1359.930 14.36 14.09 13.84 13.63 13.42 13.14 12.86 12.64 12.51 12.51
1379.219 12.58 12.66 12.61 12.37 11.92 11.28 10.56 9.86 9.18 8.52
1398.509 7.92 7.37 6.95 6.62 6.33 6.1 5.96 5.9 5.94 5.93
1417.799 5.92 6.07 6.3 6.49 6.85 7.33 7.84 8.57 9.45 10.5
1437.089 11.8 13.28 14.89 16.66 18.44 20.17 22 23.83 25.6 27.23
1456.378 28.74 30.08 30.88 31.07 30.53 29.37 27.86 25.89 23.52 20.96
1475.668 18.56 16.25 14.15 12.37 10.83 9.53 8.46 7.61 6.91 6.34
1494.958 5.86 5.39 5.01 4.68 4.45 4.21 3.95 3.8 3.71 3.54
1514.248 3.44 3.37 3.22 3.11 3.05 2.96 2.82 2.74 2.74 2.73
1533.538 2.68 2.66 2.64 2.58 2.57 2.61 2.6 2.53 2.48 2.52
1552.827 2.58 2.57 2.58 2.61 2.63 2.63 2.66 2.72 2.74 2.87
1572.117 3 3.06 3.16 3.27 3.37 3.45 3.58 3.8 4.02 4.24
1591.407 4.41 4.56 4.83 5.16 5.45 5.88 6.34 6.71 7.11 7.67
1610.697 8.28 8.87 9.44 9.96 10.39 10.67 10.74 10.63 10.32 9.86
1629.986 9.33 8.67 7.96 7.26 6.63 6.09 5.59 5.1 4.7 4.41
1649.276 4.1 3.73 3.44 3.27 3.11 2.94 2.78 2.63 2.55 2.41
1668.566 2.21 2.11 2.02 1.95 1.85 1.82 1.8 1.72 1.67 1.64
1687.856 1.6 1.58 1.55 1.52 1.46 1.44 1.38 1.31 1.35 1.32
1707.146 1.29 1.27 1.28 1.33 1.25 1.17 1.14 1.17 1.22 1.19
1726.435 1.19 1.2 1.17 1.08 1.07 1.1 1.08 1.07 1.05 0.9955
1745.725 0.995 1.02 1.03 1 0.9372 0.946 1.01 1.04 1 0.9757
1765.015 0.9621 0.9958 1.04 0.9897 0.941 1.02 1.03 0.9953 0.9988 1.01
1784.305 0.9957 1.01 1.04 1.02 0.9428 0.9393 0.9647 0.9858 1.02 0.9737
1803.594 0.9431 0.9692 0.9948 0.9507 0.9245 0.9983 1.02 1 0.9394 0.9477
1822.884 1.02 0.9597 0.9024 0.9224 0.943 0.912 0.8856 0.9561 0.9796 0.9275
1842.174 0.8902 0.8948 0.9062 0.889 0.8948 0.8963 0.8938 0.8893 0.8414 0.8321
1861.464 0.8364 0.736 0.6834 0.6836 0.6623 0.6909 0.6676 0.6467 0.6126 0.5607
1880.754 0.5817 0.6039 0.59 0.5799 0.5366 0.5234 0.543 0.5724 0.5561 0.506
1900.043 0.492 0.4727 0.4968 0.4859 0.4713 0.4508 0.4174 0.405 0.422 0.4524
1919.333 0.4465 0.4417 0.433 0.4296 0.4056 0.3803 0.3894 0.4168 0.4057 0.4139
1938.623 0.3938 0.3335 0.3108 0.3488 0.3938 0.383 0.3685 0.332 0.3603 0.4363
1957.913 0.4616 0.463 0.4461 0.4359 0.4201 0.4054 0.4091 0.3936 0.3837 0.3959
1977.202 0.4635 0.5073 0.4948 0.4428 0.4248 0.4747 0.4696 0.4553 0.4375 0.4689
1996.492 0.4869 0.4268 0.4531 0.5095 0.5162 0.5493 0.58 0.6211 0.5912 0.5364
2015.782 0.5876 0.6751 0.7077 0.7443 0.8098 0.8381 0.8084 0.7903 0.7937 0.7754
2035.072 0.8118 0.8431 0.8385 0.8435 0.8418 0.8415 0.8416 0.8331 0.7811 0.7266
2054.362 0.7587 0.7453 0.723 0.7107 0.6637 0.6598 0.6547 0.6199 0.5982 0.6261
2073.651 0.6659 0.6651 0.6319 0.6565 0.6989 0.6302 0.6417 0.6972 0.6862 0.6463
2092.941 0.622 0.6045 0.588 0.5968 0.5938 0.599 0.5806 0.5611 0.5598 0.5837
2112.231 0.6066 0.5996 0.5875 0.5674 0.5787 0.5695 0.5964 0.6189 0.5891 0.6141
2131.521 0.6255 0.5953 0.5983 0.6203 0.5678 0.5491 0.5908 0.6206 0.607 0.5869
2150.810 0.5926 0.6102 0.608 0.6093 0.6334 0.6281 0.6301 0.6082 0.639 0.6155
2170.100 0.6022 0.6295 0.5588 0.5591 0.5638 0.5889 0.6151 0.5763 0.5667 0.5639
2189.390 0.5495 0.592 0.6147 0.5217 0.4923 0.5408 0.5368 0.5301 0.6113 0.6427
2208.680 0.6165 0.623 0.5814 0.5828 0.653 0.6572 0.589 0.543 0.523 0.556
2227.970 0.6569 0.6782 0.6099 0.5797 0.5877 0.626 0.6228 0.5834 0.6001 0.6718
2247.259 0.6892 0.6378 0.6079 0.6268 0.6268 0.6384 0.699 0.6783 0.635 0.6804
2266.549 0.6767 0.6155 0.5915 0.5994 0.6038 0.6003 0.6113 0.6204 0.6256 0.6479
2285.839 0.6855 0.6703 0.6336 0.6731 0.6827 0.7044 0.6983 0.6306 0.6067 0.6571
2305.129 0.7395 0.6947 0.6651 0.6914 0.6748 0.6877 0.6956 0.7013 0.6778 0.6846
2324.418 0.7207 0.7297 0.7334 0.7053 0.6737 0.6434 0.6352 0.6775 0.6449 0.6146
2343.708 0.6922 0.6907 0.6749 0.7229 0.7602 0.7253 0.7034 0.6479 0.5328 0.5588
2362.998 0.6591 0.6811 0.6589 0.6788 0.6566 0.6148 0.6767 0.7332 0.721 0.6934
2382.288 0.7462 0.7973 0.7247 0.6787 0.7092 0.6976 0.7001 0.7299 0.6925 0.671
2401.578 0.7215 0.7557 0.6856 0.7031 0.7433 0.6472 0.6703 0.7277 0.7504 0.763
2420.867 0.7234 0.7139 0.676 0.6599 0.7264 0.8005 0.781 0.7004 0.7089 0.7534
2440.157 0.7277 0.7456 0.7326 0.6863 0.6858 0.712 0.7464 0.7096 0.7011 0.7731
2459.447 0.7609 0.7099 0.7014 0.6837 0.7131 0.7192 0.757 0.7863 0.7916 0.7889
2478.737 0.7845 0.8053 0.8114 0.7789 0.7538 0.8084 0.8573 0.8316 0.8065 0.7843
2498.026 0.8176 0.8959 0.8955 0.96 1.09 1.08 1.02 1.14 1.15 1.02
2517.316 1.12 1.16 1.14 1.18 1.21 1.36 1.46 1.42 1.4 1.47
2536.606 1.45 1.42 1.43 1.46 1.54 1.53 1.51 1.54 1.52 1.52
2555.896 1.54 1.5 1.57 1.6 1.61 1.69 1.72 1.74 1.75 1.75
2575.186 1.82 1.98 2.02 1.93 1.96 2.06 2.05 2.04 2.11 2.18
2594.475 2.26 2.36 2.38 2.4 2.52 2.53 2.51 2.62 2.61 2.57
2613.765 2.64 2.73 2.84 2.9 2.87 2.94 3.11 3.15 3.22 3.32
2633.055 3.35 3.32 3.41 3.51 3.59 3.68 3.74 3.81 3.9 3.98
2652.345 4.06 4.18 4.29 4.37 4.5 4.66 4.78 4.87 4.94 4.98
2671.634 5.08 5.09 5.11 5.23 5.35 5.39 5.42 5.48 5.48 5.4
2690.924 5.3 5.32 5.38 5.31 5.22 5.19 5.19 5.13 5.08 5.13
2710.214 5.14 5.1 5.15 5.32 5.35 5.27 5.23 5.39 5.65 5.7
2729.504 5.74 5.87 6.04 6.16 6.26 6.4 6.6 6.71 6.74 6.76
2748.794 6.81 6.93 6.91 6.97 7.16 7.17 7.12 7.21 7.35 7.41
2768.083 7.49 7.72 7.89 7.96 8.14 8.36 8.56 8.71 9.09 9.59
2787.373 9.91 10.3 10.68 11.06 11.6 11.98 12.41 13.01 13.6 14.31
2806.663 15.03 15.72 16.52 17.43 18.4 19.56 20.74 21.91 23.46 25.01
2825.953 26.68 28.66 30.8 33.1 35.71 38.85 42.45 46.73 52.02 58.32
2845.242 65.94 75.31 86.68 100.33 116.17 133.35 150.18 164.79 175.35 180.15
2864.532 178.95 172.93 163.49 152.43 141.37 131.03 121.92 114.59 109 104.62
2883.822 101.05 98.16 96.04 94.95 95.07 96.47 99.58 104.34 110.66 118.39
2903.112 127.37 137.99 149.9 163.13 177.71 193.92 212.99 235.46 261.89 292.96
2922.401 328.27 366.56 404.73 437.48 460.23 469.95 465.16 447.74 420.49 386.27
2941.691 348.8 310.38 273.64 240.25 210.98 186.53 166.55 150.87 139.45 131.21
2960.981 125.12 120.64 116.82 112.55 106.94 99.45 90.35 80.42 70.54 61.57
2980.271 53.95 47.5 42.18 37.82 34.06 31.02 28.49 26.24 24.15 22.27
2999.561 20.83 19.47 18.15 16.99 15.92 15.05 14.31 13.54 12.92 12.32
3018.850 11.67 11.15 10.67 10.22 9.75 9.19 8.8 8.44 7.94 7.66
3038.140 7.47 7.11 6.96 6.72 6.29 6.19 6.04 5.89 5.72 5.42
3057.430 5.28 5.14 5.01 4.88 4.66 4.56 4.47 4.28 4.2 4.2
3076.720 4.06 3.86 3.7 3.54 3.5 3.49 3.36 3.26 3.28 3.25
3096.009 3.18 3.09 2.94 2.93 2.86 2.8 2.8 2.61 2.51 2.57
3115.299 2.47 2.49 2.49 2.36 2.32 2.3 2.28 2.26 2.31 2.24
3134.589 2.26 2.32 2.09 1.96 1.95 1.92 1.95 2.01 2.16 2.17
3153.879 1.94 1.95 1.95 1.79 1.72 1.71 1.69 1.65 1.84 1.88
3173.169 1.76 1.62 1.53 1.65 1.59 1.57 1.58 1.53 1.66 1.63
3192.458 1.49 1.47 1.5 1.47 1.48 1.38 1.24 1.31 1.34 1.32
3211.748 1.24 1.11 1.12 1.16 1 0.8884 0.9516 1.05 1.06 0.957
3231.038 0.886 0.7705 0.7928 0.8797 0.7137 0.7187 0.8642 0.8346 0.7769 0.7757
3250.328 0.5428 0.4831 0.6748 0.6645 0.5467 0.6532 0.8351 0.8432 0.7594 0.6906
3269.617 0.6704 0.6956 0.7992 0.8901 0.8505 0.75 0.6558 0.6074 0.7451 0.831
3288.907 0.6274 0.4033 0.5387 0.7357 0.7102 0.7505 0.7081 0.738 0.8387 0.7163
3308.197 0.5954 0.6793 0.8289 0.8301 0.8589 0.7341 0.4924 0.5399 0.572 0.5578
3327.487 0.7059 0.9263 1.08 1.16 1.29 1.45 1.62 1.57 1.6 1.69
3346.777 1.6 1.51 1.5 1.46 1.41 1.34 1.33 1.33 1.17 1.15
3366.066 1.17 1.11 1.09 0.9424 0.9235 0.8329 0.7336 0.8667 0.9261 0.8356
3385.356 0.8258 0.8799 0.7834 0.8215 0.8324 0.7209 0.5408 0.5393 0.58 0.7054
3404.646 0.9865 0.9477 0.9202 0.8877 0.8082 0.8381 0.8273 0.8958 0.8391 0.6386
3423.936 0.5898 0.7179 0.6842 0.6232 0.7987 0.8494 0.7393 0.5902 0.5014 0.5518
3443.225 0.6875 0.7059 0.5824 0.4923 0.5645 0.5936 0.387 0.3722 0.6444 0.6796
3462.515 0.5784 0.5615 0.5263 0.5314 0.4862 0.3418 0.3214 0.3957 0.3503 0.3063
3481.805 0.3429 0.4338 0.4371 0.4008 0.4852 0.5251 0.5405 0.5635 0.4506 0.3634
3501.095 0.5983 0.5609 0.4229 0.3705 0.256 0.293 0.1984 0.1557 0.2043 0.3836
3520.385 0.3831 0.2783 0.3238 0.336 0.271 0.2198 0.344 0.3743 0.3772 0.4126
3539.674 0.4468 0.5593 0.5567 0.4441 0.3039 0.2688 0.3253 0.2857 0.2893 0.4713
3558.964 0.5259 0.461 0.4349 0.4163 0.5218 0.5669 0.5463 0.6394 0.6055 0.4289
3578.254 0.5769 0.7164 0.6215 0.6948 0.7494 0.7382 0.663 0.7222 0.7815 0.5693
3597.544 0.5873 0.6035 0.5277 0.6148 0.6759 0.6699 0.7173 0.7586 0.7898 0.7785
3616.833 0.6087 0.5509 0.782 0.839 0.8384 0.8986 0.9225 0.8758 0.7728 0.7403
3636.123 0.8288 0.8685 0.8993 0.9519 0.9592 1.05 0.9664 0.8826 1.02 1.1
3655.413 1.03 0.8781 0.7968 0.8449 0.8398 0.8451 0.8118 0.8563 0.9642 0.8364
3674.703 0.6368 0.7293 0.9091 0.9068 0.8194 0.8328 0.7098 0.5801 0.8345 1.06
3693.993 0.961 0.6432 0.6636 0.8864 0.9679 0.9879 0.8496 0.7043 0.7364 0.8592
3713.282 0.6446 0.4998 0.6612 0.873 0.8784 0.7177 0.8846 0.9337 0.8075 0.7939
3732.572 0.7816 0.8275 0.7155 0.5951 0.6674 0.7181 0.7113 0.8045 0.8615 0.7594
3751.862 0.7087 0.7028 0.6835 0.6508 0.752 0.7432 0.6086 0.6861 0.7529 0.7253
3771.152 0.8245 0.8691 0.7249 0.7267 0.9121 1 0.9343 0.967 0.8843 0.7893
3790.441 0.8864 0.8321 0.9088 1.13 1.07 0.9387 0.9067 0.8798 0.9937 0.8797
3809.731 0.7148 0.8023 0.8109 0.7672 0.7154 0.6725 0.6254 0.6463 0.7558 0.7735
3829.021 0.8843 1.14 1.04 0.8354 0.9248 0.967 0.8645 0.833 0.8531 0.7989
3848.311 0.7456 0.6633 0.5039 0.5265 0.6979 0.8026 0.7938 0.7994 0.7679 0.9363
3867.601 1.04 0.8395 0.704 0.7733 1 0.9488 0.806 0.7899 0.8369 0.8826
3886.890 0.8378 0.796 0.7617 0.8513 0.8823 0.8776 0.978 1.01 1.01 0.9623
3906.180 0.8581 0.882 0.8159 0.7448 0.8754 0.8423 0.6903 0.8261 1.06 1.13
3925.470 0.954 0.8615 1.06 1.1 0.9995 0.9899 1.03 0.9414 0.7676 0.6897
3944.760 0.8628 0.9753 0.8907 0.7735 0.7352 1.07 1.26 1.01 0.9221 1.01
3964.049 1.18 1.14 0.9023 1.01 1.08 1.07 1.11 1.03 0.9723 0.9591
3983.339 1.04 1.08 1.11 1.16 1.19 1.18 1.13 1.17 1.15 1.02
##END=
