##TITLE=4-Nonyne
##JCAMP-DX=4.24
##DATA TYPE=INFRARED SPECTRUM
##ORIGIN=NIST Mass Spectrometry Data Center
##OWNER=NIST Standard Reference Data Program
Collection (C) 2018 copyright by the U.S. Secretary of Commerce
on behalf of the United States of America. All rights reserved.
##CAS REGISTRY NO=20184-91-2
##MOLFORM=C 9 H 16
##$NIST SOURCE=MSDC-IR
##SPECTROMETER/DATA SYSTEM=HP-GC/MS/IRD
##STATE=gas
##XUNITS=1/CM
##YUNITS=ABSORBANCE
##XFACTOR=1.0
##YFACTOR=0.000004300
##DELTAX=4.0
##FIRSTX=550.0
##LASTX=3846.0
##FIRSTY=0.000572
##MAXX=3846
##MINX=550
##MAXY=0.043
##MINY=0
##NPOINTS=825
##XYDATA=(X++(Y..Y))
550.0 133 97 84 79 89 91 76 93 101 91
590.0 75 39 38 48 40 31 27 33 38 37
630.0 30 35 30 25 38 42 24 9 3 0
670.0 12 26 20 15 16 19 34 45 38 46
710.0 61 68 76 78 87 96 114 141 164 184
750.0 186 174 163 154 139 118 103 101 100 86
790.0 74 73 77 86 87 81 81 67 53 55
830.0 53 52 47 37 38 41 46 60 70 77
870.0 85 84 94 100 95 97 97 95 85 72
910.0 63 65 59 52 43 43 48 47 51 51
950.0 57 73 85 84 76 74 64 62 66 52
990.0 44 41 33 25 26 34 39 50 70 74
1030.0 77 72 60 62 54 57 64 70 86 99
1070.0 111 108 96 103 120 127 132 138 140 137
1110.0 114 79 53 48 48 39 35 40 30 29
1150.0 30 30 36 38 39 48 52 46 48 59
1190.0 65 74 77 84 99 101 102 109 122 132
1230.0 135 139 138 147 170 194 209 205 210 238
1270.0 299 367 408 419 394 357 344 360 375 401
1310.0 460 550 685 876 1098 1266 1338 1283 1106 899
1350.0 719 599 541 499 466 459 485 532 567 574
1390.0 540 465 394 349 319 310 321 355 425 526
1430.0 653 793 917 1008 1057 1085 1113 1137 1128 1068
1470.0 970 844 705 573 460 375 308 256 213 181
1510.0 160 139 124 118 110 102 97 86 78 76
1550.0 78 78 65 62 64 60 56 56 57 56
1590.0 56 51 48 46 49 48 43 46 44 41
1630.0 39 38 38 35 35 36 35 35 34 37
1670.0 38 37 43 47 46 44 48 48 37 28
1710.0 23 21 22 24 21 16 17 19 19 19
1750.0 12 6 6 9 11 15 14 9 7 9
1790.0 9 10 11 10 9 8 9 10 8 8
1830.0 9 10 6 3 7 12 13 11 6 2
1870.0 7 17 6 1 4 7 5 1 1 2
1910.0 1 2 5 3 1 2 4 4 4 6
1950.0 4 4 4 2 5 8 7 5 5 3
1990.0 2 7 8 7 7 9 11 14 16 20
2030.0 18 15 18 20 17 14 13 11 7 6
2070.0 7 5 3 4 5 5 6 8 10 6
2110.0 8 13 13 14 15 14 10 12 13 11
2150.0 11 13 15 15 19 21 16 20 23 21
2190.0 23 22 18 17 16 15 12 16 18 16
2230.0 17 15 11 11 13 11 12 13 16 15
2270.0 12 14 13 14 13 16 14 6 4 3
2310.0 6 11 10 8 9 11 14 8 4 4
2350.0 6 11 11 9 13 16 10 5 10 15
2390.0 14 15 22 22 22 23 23 23 20 13
2430.0 18 19 14 14 13 12 12 14 14 7
2470.0 1 2 8 8 4 6 6 4 7 9
2510.0 10 14 18 23 24 21 19 23 29 33
2550.0 34 35 31 35 37 39 41 43 48 51
2590.0 47 41 41 39 36 38 40 39 44 49
2630.0 55 61 68 76 87 96 101 100 98 105
2670.0 111 111 111 108 100 98 97 93 85 86
2710.0 90 92 93 96 102 115 126 139 151 158
2750.0 166 170 171 170 176 184 190 199 216 232
2790.0 243 259 282 310 338 371 415 464 518 592
2830.0 696 831 1014 1254 1543 1852 2167 2487 2790 3109
2870.0 3466 3794 4029 4111 4035 3866 3693 3628 3759 4090
2910.0 4589 5216 5935 6733 7611 8554 9438 10000 9986 9447
2950.0 8690 8032 7730 7773 7953 7917 7387 6454 5267 4017
2990.0 2983 2258 1750 1390 1135 958 832 740 669 605
3030.0 557 520 480 435 399 370 339 318 309 294
3070.0 278 263 251 243 232 224 221 202 180 172
3110.0 163 154 144 132 122 118 114 110 111 105
3150.0 98 98 100 96 89 90 92 92 88 81
3190.0 77 75 76 70 62 62 56 49 46 38
3230.0 40 45 34 29 32 27 31 31 23 20
3270.0 18 19 20 19 17 13 19 23 23 25
3310.0 22 21 27 29 24 24 29 33 31 34
3350.0 35 33 35 28 22 16 13 16 16 13
3390.0 18 22 21 25 25 20 21 19 12 16
3430.0 19 31 36 27 26 26 17 12 18 15
3470.0 11 16 19 16 12 7 11 9 6 4
3510.0 1 4 4 2 9 13 9 6 4 1
3550.0 5 13 8 6 9 5 11 16 8 6
3590.0 6 10 12 8 5 1 7 9 14 17
3630.0 14 18 16 16 9 9 15 9 8 7
3670.0 8 11 11 12 14 16 15 20 15 8
3710.0 8 8 13 22 20 13 21 22 17 20
3750.0 17 15 16 11 14 12 15 18 15 22
3790.0 24 19 19 14 9 15 18 12 7 6
3830.0 4 5 5 4 23
##END=
