##TITLE=3-Nonyne
##JCAMP-DX=4.24
##DATA TYPE=INFRARED SPECTRUM
##ORIGIN=NIST Mass Spectrometry Data Center
##OWNER=NIST Standard Reference Data Program
Collection (C) 2018 copyright by the U.S. Secretary of Commerce
on behalf of the United States of America. All rights reserved.
##CAS REGISTRY NO=20184-89-8
##MOLFORM=C 9 H 16
##$NIST SOURCE=MSDC-IR
##SPECTROMETER/DATA SYSTEM=HP-GC/MS/IRD
##STATE=gas
##XUNITS=1/CM
##YUNITS=ABSORBANCE
##XFACTOR=1.0
##YFACTOR=0.000003700
##DELTAX=4.0
##FIRSTX=550.0
##LASTX=3846.0
##FIRSTY=0.000255
##MAXX=3846
##MINX=550
##MAXY=0.037
##MINY=0
##NPOINTS=825
##XYDATA=(X++(Y..Y))
550.0 69 50 34 22 42 68 40 22 36 34
590.0 48 52 44 49 40 37 44 27 28 40
630.0 42 47 41 35 30 9 3 29 39 31
670.0 22 8 14 30 31 38 31 29 32 38
710.0 49 52 71 94 105 122 141 141 129 127
750.0 120 105 94 91 97 88 68 63 63 64
790.0 58 39 37 42 32 16 12 18 27 33
830.0 20 20 28 22 20 22 13 11 15 11
870.0 18 32 34 33 40 51 49 41 42 49
910.0 44 38 32 31 33 28 25 25 30 36
950.0 46 56 61 62 72 74 81 88 86 81
990.0 69 57 49 47 43 37 35 32 31 31
1030.0 41 49 49 57 74 102 132 160 182 182
1070.0 173 166 153 135 117 110 106 107 109 103
1110.0 83 61 47 31 30 33 24 20 30 40
1150.0 37 34 31 34 35 36 42 45 49 58
1190.0 69 67 65 70 76 85 78 78 83 76
1230.0 86 98 106 110 108 107 112 117 125 139
1270.0 160 194 237 268 290 320 367 430 526 681
1310.0 910 1205 1479 1654 1679 1513 1255 1024 828 680
1350.0 580 511 464 434 406 389 391 401 406 400
1390.0 382 353 327 306 296 301 322 363 421 499
1430.0 615 752 880 976 1027 1047 1057 1069 1067 1021
1470.0 931 803 664 545 440 358 301 254 214 183
1510.0 165 147 128 119 112 102 89 79 70 59
1550.0 55 50 47 48 47 47 43 49 50 51
1590.0 51 48 47 44 42 35 29 34 34 31
1630.0 30 26 25 24 18 15 16 23 26 23
1670.0 17 18 22 20 15 19 16 9 9 9
1710.0 9 10 8 11 11 5 6 11 11 12
1750.0 13 13 9 2 1 1 5 8 10 12
1790.0 11 8 5 2 5 5 3 4 7 7
1830.0 7 11 13 11 13 14 13 15 14 18
1870.0 24 21 16 16 11 8 11 10 9 9
1910.0 5 5 4 0 4 7 7 4 2 0
1950.0 0 5 6 9 11 7 6 8 7 9
1990.0 12 8 5 3 2 5 4 0 4 10
2030.0 12 12 18 18 19 20 13 10 7 7
2070.0 11 9 7 11 13 8 2 3 5 6
2110.0 7 7 6 11 6 2 5 4 4 2
2150.0 1 6 7 6 4 3 0 2 3 1
2190.0 0 3 9 9 7 8 2 0 1 3
2230.0 8 8 5 8 9 7 8 7 6 5
2270.0 8 8 4 6 9 8 13 14 8 4
2310.0 5 10 6 0 0 5 8 4 6 2
2350.0 2 1 0 3 7 10 9 12 14 12
2390.0 8 11 16 17 17 15 13 9 13 17
2430.0 22 25 25 24 22 18 17 16 8 9
2470.0 12 14 11 9 15 16 14 15 17 18
2510.0 19 20 21 21 18 18 21 22 25 27
2550.0 27 28 28 28 31 38 41 40 41 42
2590.0 43 42 43 47 50 50 60 67 70 75
2630.0 81 87 91 88 85 86 89 87 79 81
2670.0 88 91 91 87 76 78 80 80 84 83
2710.0 90 98 105 117 123 129 140 150 159 165
2750.0 163 166 172 181 183 187 196 201 213 224
2790.0 241 264 286 310 342 383 424 472 535 616
2830.0 715 847 1018 1239 1531 1885 2305 2755 3165 3474
2870.0 3636 3690 3694 3688 3666 3614 3583 3627 3789 4109
2910.0 4570 5169 5914 6796 7763 8706 9506 10000 9978 9403
2950.0 8513 7605 6962 6693 6596 6448 6240 5788 5038 4225
2990.0 3339 2547 2036 1698 1443 1239 1059 909 787 681
3030.0 597 527 467 415 374 342 313 285 267 256
3070.0 243 232 221 208 197 194 195 197 191 178
3110.0 171 163 158 154 154 157 154 143 133 128
3150.0 120 115 124 122 112 113 113 100 90 88
3190.0 87 82 71 68 66 60 56 54 52 44
3230.0 40 34 32 30 32 33 27 28 31 32
3270.0 29 19 21 24 21 16 16 22 20 17
3310.0 19 19 17 19 21 23 23 21 23 25
3350.0 25 24 25 25 27 27 24 20 14 13
3390.0 16 16 12 7 11 19 18 8 8 25
3430.0 29 29 27 25 27 25 21 20 14 21
3470.0 22 16 16 15 16 16 17 23 15 2
3510.0 6 9 4 4 0 0 5 5 11 13
3550.0 13 11 13 13 8 6 16 18 13 14
3590.0 10 12 17 14 12 8 9 14 9 7
3630.0 8 13 17 14 7 13 21 22 23 21
3670.0 23 21 16 16 12 10 20 24 19 17
3710.0 23 32 26 15 15 18 19 21 25 23
3750.0 13 16 32 38 29 29 31 26 24 32
3790.0 34 34 33 21 23 33 37 38 34 35
3830.0 38 35 30 23 25
##END=
