##TITLE=3-(4-Chlorophenyl)propionic acid
##JCAMP-DX=4.24
##DATA TYPE=INFRARED SPECTRUM
##ORIGIN=EPA-IR VAPOR PHASE LIBRARY
##OWNER=SRD/NIST
Collection (C) 2018 copyright by the U.S. Secretary of Commerce
on behalf of the United States of America. All rights reserved.
##CAS REGISTRY NO=2019-34-3
##MOLFORM=C 9 H 9 Cl O 2
##$NIST SOURCE=MSDC-IR
##STATE=gas
##XUNITS=1/CM
##YUNITS=ABSORBANCE
##XFACTOR=1.
##YFACTOR=0.001
##DELTAX=1.92898
##FIRSTX=549.8
##LASTX=4000.7
##FIRSTY=17.332
##MAXX=4000.7
##MINX=549.759
##MAXY=0.086752
##MINY=0
##NPOINTS=1790
##XYDATA=(X++(Y..Y))
549.759 17.332 17.922 17.792 17.702 18.102 18.312 17.992 17.562 17.202 16.732
569.049 16.342 15.662 14.832 14.522 14.612 14.872 15.012 14.972 15.062 15.132
588.339 15.082 15.162 15.302 15.462 15.512 15.622 15.762 15.462 15.252 15.002
607.628 14.512 14.022 13.332 12.592 11.702 10.992 10.482 10.072 10.002 9.902
626.918 9.982 10.382 10.802 11.212 11.812 12.522 13.122 13.212 13.032 12.952
646.208 12.872 12.712 12.192 11.862 11.562 11.252 10.842 10.432 10.232 9.952
665.498 9.622 9.252 8.842 8.452 8.242 8.022 7.702 7.252 6.902 6.682
684.787 6.562 6.502 6.232 6.012 6.122 6.082 5.792 5.662 5.602 5.692
704.077 5.872 6.072 6.292 6.582 6.782 6.742 6.632 6.372 5.982 5.432
723.367 4.952 4.342 3.872 3.772 3.492 3.432 3.312 3.052 3.002 2.982
742.657 2.902 2.752 2.532 2.232 2.322 2.432 2.392 2.392 2.462 2.662
761.947 2.722 2.692 2.822 3.042 3.202 3.492 3.552 3.352 3.432 3.662
781.236 3.752 3.872 4.222 4.352 4.282 4.542 4.792 5.032 5.482 6.152
800.526 6.942 7.832 8.992 10.232 11.392 12.622 13.882 15.242 16.452 17.552
819.816 18.192 18.152 17.932 17.262 16.142 14.682 12.952 11.102 9.442 8.262
839.106 6.962 5.722 4.802 4.062 3.702 3.332 2.822 2.502 2.312 2.232
858.395 2.132 2.142 2.202 2.102 2.202 2.132 2.012 1.992 2.002 1.902
877.685 1.832 1.952 2.022 1.972 2.052 2.242 2.232 2.122 2.212 2.362
896.975 2.382 2.362 2.352 2.202 2.052 2.292 2.312 2.042 2.012 2.202
916.265 2.222 2.122 2.302 2.452 2.392 2.522 2.792 2.762 2.772 2.862
935.555 3.032 3.382 3.542 3.632 3.792 3.952 3.932 3.922 3.932 3.912
954.844 4.022 4.022 3.792 3.612 3.632 3.662 3.592 3.602 3.582 3.312
974.134 3.152 3.312 3.482 3.452 3.412 3.512 3.512 3.582 3.912 4.002
993.424 3.832 4.092 4.622 4.862 5.172 6.212 7.492 9.242 12.282 15.912
1012.714 18.932 20.072 20.062 19.782 18.392 15.042 11.472 9.432 8.302 7.852
1032.003 7.502 6.972 6.722 6.542 6.312 6.212 5.952 5.752 5.812 5.872
1051.293 6.032 6.312 6.342 6.422 6.642 7.072 7.722 8.162 8.922 9.832
1070.583 10.692 11.592 13.032 14.782 16.572 18.872 21.882 25.692 30.862 37.672
1089.873 45.222 52.722 58.162 61.822 64.652 65.062 62.582 58.582 55.282 53.762
1109.163 53.982 56.012 59.112 62.152 64.682 66.902 68.372 67.902 65.722 62.852
1128.452 58.702 53.642 48.612 43.882 39.402 35.922 33.092 30.582 28.412 26.132
1147.742 24.702 23.442 21.902 20.532 19.022 17.972 16.992 16.222 15.602 14.952
1167.032 15.012 14.622 14.302 14.672 14.992 15.062 15.332 15.612 15.752 15.922
1186.322 15.802 15.372 14.782 14.792 14.862 14.482 14.082 13.692 13.542 13.462
1205.611 12.892 12.432 11.772 10.942 10.682 10.442 10.482 10.092 9.712 9.612
1224.901 9.132 8.942 8.402 7.982 8.042 7.642 7.532 7.622 7.452 7.352
1244.191 7.132 7.252 7.142 6.972 7.232 7.392 7.382 7.312 7.182 7.262
1263.481 7.472 7.332 7.362 7.432 7.472 7.562 7.532 7.392 7.252 7.312
1282.771 7.312 7.052 6.912 6.902 6.822 6.732 6.722 6.602 6.342 6.222
1302.060 6.162 6.122 6.102 6.102 6.032 5.932 5.982 5.902 5.842 5.862
1321.350 5.882 5.952 5.972 6.012 6.122 6.272 6.392 6.492 6.592 6.762
1340.640 6.962 7.182 7.382 7.612 7.842 8.122 8.552 8.932 9.342 9.862
1359.930 10.352 10.842 11.352 11.892 12.452 13.002 13.572 14.092 14.532 14.822
1379.219 14.942 14.982 14.832 14.472 13.952 13.312 12.622 11.852 11.132 10.562
1398.509 10.072 9.692 9.392 9.062 8.832 8.652 8.452 8.272 8.112 7.972
1417.799 7.882 7.802 7.772 7.792 7.722 7.722 7.692 7.592 7.532 7.452
1437.089 7.352 7.252 7.142 7.032 6.982 6.972 6.992 7.122 7.172 7.092
1456.378 6.902 6.682 6.522 6.212 5.882 5.722 5.702 5.902 6.352 7.032
1475.668 7.922 9.162 10.942 13.572 17.062 21.512 26.702 31.822 35.632 37.212
1494.958 36.522 33.922 29.562 23.712 17.782 13.022 9.642 7.492 6.092 4.982
1514.248 4.152 3.632 3.252 2.892 2.532 2.292 2.182 2.012 1.882 1.792
1533.538 1.702 1.622 1.542 1.492 1.442 1.412 1.352 1.3214 1.2611 1.2997
1552.827 1.3088 1.2997 1.3095 1.2847 1.2752 1.2169 1.2464 1.3304 1.402 1.342
1572.117 1.342 1.542 1.572 1.492 1.512 1.652 1.802 1.922 2.092 2.252
1591.407 2.462 2.602 2.742 2.862 2.822 2.772 2.652 2.482 2.252 2.032
1610.697 1.872 1.712 1.622 1.542 1.482 1.592 1.612 1.582 1.632 1.642
1629.986 1.772 1.862 1.872 1.872 1.882 1.942 1.932 1.862 1.802 1.752
1649.276 1.722 1.692 1.582 1.502 1.362 1.2334 1.2459 1.2234 1.1784 1.2125
1668.566 1.3202 1.392 1.332 1.2517 1.2399 1.3276 1.442 1.552 1.692 1.742
1687.856 1.762 1.802 1.872 2.042 2.272 2.402 2.532 2.712 2.862 3.112
1707.146 3.472 3.762 4.042 4.432 4.792 5.222 5.792 6.392 6.992 7.642
1726.435 8.502 9.332 10.212 11.302 12.492 13.632 14.922 16.552 18.332 20.132
1745.725 21.962 23.892 25.912 28.302 30.822 33.602 36.942 40.622 45.012 50.102
1765.015 55.712 61.882 68.402 74.602 80.152 84.272 86.522 86.752 84.782 81.002
1784.305 75.872 70.012 63.902 57.812 51.902 46.422 41.562 37.262 33.482 30.152
1803.594 27.302 24.762 22.442 20.212 18.122 16.142 14.292 12.622 11.132 9.822
1822.884 8.692 7.692 6.812 6.092 5.432 4.872 4.412 4.062 3.702 3.372
1842.174 3.142 2.932 2.702 2.512 2.392 2.222 2.092 2.002 1.932 1.912
1861.464 1.952 1.962 1.862 1.862 1.882 1.872 1.992 2.082 2.162 2.272
1880.754 2.282 2.282 2.312 2.372 2.422 2.422 2.392 2.292 2.212 2.072
1900.043 1.962 1.852 1.692 1.642 1.592 1.472 1.372 1.306 1.1854 1.0897
1919.333 1.0623 1.0405 1.0157 1.023 1.0023 0.979 0.92 0.8971 0.8879 0.8363
1938.623 0.873 0.9273 0.9256 0.9052 0.8707 0.7914 0.7799 0.7852 0.7958 0.819
1957.913 0.7531 0.7248 0.7586 0.7547 0.7192 0.6871 0.6344 0.598 0.6799 0.7151
1977.202 0.692 0.6951 0.6802 0.6831 0.6388 0.566 0.5662 0.6303 0.6275 0.5952
1996.492 0.6337 0.6242 0.5799 0.5801 0.6029 0.5873 0.5976 0.6329 0.6396 0.6552
2015.782 0.6427 0.616 0.6661 0.7097 0.6097 0.5038 0.5643 0.6074 0.5663 0.596
2035.072 0.5687 0.5104 0.5147 0.5209 0.5422 0.4943 0.5002 0.5242 0.4437 0.467
2054.362 0.4793 0.42083 0.4261 0.495 0.5195 0.5235 0.5577 0.5493 0.5411 0.5446
2073.651 0.4866 0.4707 0.4658 0.4433 0.4611 0.42825 0.439 0.4533 0.4369 0.4892
2092.941 0.4867 0.4854 0.5081 0.4718 0.4784 0.4995 0.5179 0.5187 0.4945 0.4863
2112.231 0.4733 0.4982 0.5237 0.5122 0.4721 0.489 0.5535 0.6057 0.6745 0.6725
2131.521 0.5611 0.5446 0.5924 0.6138 0.5646 0.5593 0.6354 0.5841 0.5768 0.6311
2150.810 0.6088 0.5804 0.5582 0.5092 0.5251 0.5581 0.5407 0.5517 0.5926 0.5768
2170.100 0.4911 0.4762 0.5481 0.6087 0.6337 0.6085 0.5579 0.5043 0.5002 0.5486
2189.390 0.5691 0.6001 0.5609 0.5858 0.5865 0.5269 0.57 0.5262 0.5251 0.5723
2208.680 0.5849 0.6104 0.6539 0.7059 0.6753 0.6718 0.6274 0.6205 0.6396 0.6689
2227.970 0.6984 0.6659 0.6992 0.7216 0.7259 0.7219 0.7231 0.6821 0.5711 0.5732
2247.259 0.6514 0.6045 0.5723 0.5983 0.6018 0.6016 0.6432 0.648 0.6263 0.5848
2266.549 0.5532 0.5676 0.6178 0.6353 0.6217 0.5982 0.5757 0.6347 0.619 0.5997
2285.839 0.5818 0.5487 0.63 0.655 0.6373 0.5876 0.5267 0.5837 0.604 0.6192
2305.129 0.6821 0.6456 0.6019 0.588 0.614 0.5844 0.6147 0.6845 0.6199 0.5985
2324.418 0.5451 0.5486 0.5412 0.4918 0.5137 0.4953 0.4672 0.4834 0.5483 0.564
2343.708 0.5292 0.4636 0.3935 0.40674 0.4696 0.4732 0.4728 0.5404 0.5619 0.5025
2362.998 0.449 0.40785 0.4514 0.5314 0.4781 0.4763 0.5385 0.4903 0.4986 0.574
2382.288 0.5488 0.5538 0.5824 0.5102 0.5021 0.5203 0.5126 0.531 0.4806 0.5213
2401.578 0.5476 0.4716 0.538 0.5571 0.5421 0.6133 0.5758 0.541 0.5739 0.5861
2420.867 0.5864 0.5566 0.5292 0.523 0.5348 0.5236 0.5124 0.5748 0.5853 0.5827
2440.157 0.6468 0.5865 0.5 0.478 0.4932 0.5372 0.4857 0.4641 0.4936 0.4758
2459.447 0.4564 0.42858 0.4434 0.4372 0.42738 0.42538 0.38432 0.39614 0.40195 0.4401
2478.737 0.4689 0.4861 0.4816 0.4617 0.42202 0.4352 0.4738 0.4564 0.4513 0.4604
2498.026 0.5279 0.4478 0.35501 0.36434 0.34553 0.3784 0.42834 0.4847 0.5046 0.4342
2517.316 0.40318 0.36204 0.35384 0.41372 0.38662 0.39823 0.3786 0.37095 0.39127 0.38837
2536.606 0.5028 0.5776 0.5105 0.5158 0.476 0.43076 0.5058 0.4827 0.4524 0.4506
2555.896 0.4387 0.41192 0.34953 0.41011 0.4986 0.4387 0.4573 0.5325 0.4827 0.4391
2575.186 0.41945 0.4442 0.5137 0.4329 0.36974 0.40633 0.4567 0.5365 0.5176 0.4603
2594.475 0.4929 0.4427 0.4245 0.4645 0.4468 0.4854 0.4557 0.39025 0.42704 0.4987
2613.765 0.515 0.42621 0.3952 0.37305 0.32831 0.2695 0.191 0.2937 0.35614 0.2897
2633.055 0.336992 0.42057 0.43103 0.332379 0.36425 0.492 0.41341 0.3051 0.265 0.262
2652.345 0.39729 0.4479 0.4002 0.37752 0.35831 0.4721 0.5488 0.4683 0.38483 0.4758
2671.634 0.5402 0.5044 0.476 0.41429 0.4328 0.4482 0.37262 0.42943 0.5767 0.5537
2690.924 0.443 0.4466 0.5042 0.4326 0.4396 0.4328 0.339758 0.36295 0.40064 0.42101
2710.214 0.4348 0.34783 0.328 0.333323 0.3078 0.3726 0.334023 0.2712 0.205 0.31
2729.504 0.337188 0.2753 0.35261 0.337412 0.3892 0.36707 0.2732 0.333433 0.34316 0.37574
2748.794 0.4668 0.37824 0.39078 0.5008 0.4335 0.39106 0.334165 0.32753 0.438 0.4425
2768.083 0.37332 0.41014 0.5078 0.4376 0.36586 0.39291 0.5531 0.6379 0.626 0.5594
2787.373 0.4833 0.4602 0.511 0.5988 0.5142 0.5514 0.5255 0.4745 0.516 0.5422
2806.663 0.5918 0.6003 0.5588 0.495 0.4823 0.5734 0.6783 0.6464 0.6002 0.6821
2825.953 0.7232 0.7075 0.808 0.8443 0.8092 0.9063 0.9628 0.9877 1.066 1.0089
2845.242 1.1204 1.2404 1.2383 1.2931 1.402 1.622 1.732 1.712 1.812 2.042
2864.532 2.232 2.442 2.542 2.492 2.562 2.692 2.682 2.602 2.682 2.622
2883.822 2.422 2.392 2.332 2.172 2.052 2.092 2.232 2.242 2.172 2.162
2903.112 2.202 2.202 2.332 2.582 2.732 2.892 3.082 3.412 3.922 4.372
2922.401 4.792 5.342 5.932 6.602 7.282 7.862 8.282 8.502 8.812 9.082
2941.691 9.052 8.852 8.572 8.322 8.012 7.512 7.112 6.852 6.582 6.522
2960.981 6.382 6.262 6.242 5.982 5.882 5.812 5.622 5.532 5.322 5.032
2980.271 4.872 4.802 4.682 4.422 4.232 4.132 3.892 3.542 3.452 3.342
2999.561 3.142 2.972 2.822 2.682 2.452 2.492 2.632 2.682 2.772 2.892
3018.850 3.122 3.492 3.992 4.482 5.032 5.542 5.892 6.252 6.412 6.262
3038.140 5.912 5.562 5.182 4.712 4.242 3.972 3.912 3.642 3.352 3.282
3057.430 3.072 2.752 2.572 2.372 2.182 2.202 2.292 2.272 2.282 2.502
3076.720 2.772 2.802 2.922 3.132 3.142 3.042 3.092 3.232 3.222 3.322
3096.009 3.252 2.982 2.802 2.542 2.262 2.162 2.032 1.832 1.692 1.592
3115.299 1.362 0.9973 0.8344 0.8844 0.8118 0.6745 0.5513 0.5357 0.6175 0.5299
3134.589 0.39307 0.38023 0.42933 0.38461 0.39196 0.41318 0.38753 0.41991 0.3124 0.2797
3153.879 0.4741 0.4604 0.4346 0.5944 0.5952 0.4467 0.3915 0.33057 0.2811 0.34327
3173.169 0.333967 0.34449 0.4809 0.4807 0.2761 0.155 0.176 0.162 0.145 0.183
3192.458 0.2467 0.338035 0.3219 0.282 0.2748 0.204 0.198 0.2848 0.231 0.186
3211.748 0.3114 0.3248 0.35461 0.39208 0.32472 0.32683 0.2936 0.36678 0.3031 0.121
3231.038 0.183 0.2903 0.2791 0.2961 0.33496 0.36726 0.36241 0.35825 0.39437 0.3032
3250.328 0.3075 0.35802 0.35738 0.38206 0.35343 0.3393 0.40929 0.38927 0.35138 0.32271
3269.617 0.292 0.2817 0.209 0.138 0.088 0.211 0.37679 0.2749 0.185 0.21
3288.907 0.3232 0.333777 0.155 0.175 0.226 0.35307 0.41541 0.2688 0.198 0.197
3308.197 0.109 0.137 0.126 0.078 0.207 0.299 0.2975 0.2729 0.40245 0.4488
3327.487 0.31 0.339642 0.4467 0.37584 0.4472 0.5191 0.39531 0.35408 0.34248 0.32359
3346.777 0.2977 0.205 0.186 0.2578 0.2525 0.32702 0.40498 0.2966 0.32531 0.36364
3366.066 0.3647 0.38067 0.3176 0.2782 0.224 0.2477 0.2647 0.3093 0.3826 0.3
3385.356 0.3078 0.3 0.184 0.2 0.3156 0.204 0.169 0.248 0.33979 0.335723
3404.646 0.161 0.141 0.215 0.191 0 0.034 0.229 0.35312 0.2934 0.072
3423.936 0.078 0.2326 0.216 0.2649 0.3137 0.3962 0.4402 0.37279 0.3997 0.341875
3443.225 0.36983 0.39059 0.3018 0.3056 0.3031 0.4703 0.4702 0.3166 0.32327 0.33027
3462.515 0.41169 0.5497 0.6978 0.5792 0.4338 0.3078 0.2836 0.4375 0.2887 0.2874
3481.805 0.37381 0.42042 0.5918 0.5545 0.3897 0.3632 0.5409 0.7204 0.7066 0.6894
3501.095 0.7658 0.821 0.7995 0.8578 0.7983 0.6966 0.9589 1.1337 1.1648 1.2243
3520.385 1.342 1.512 1.522 1.562 1.822 2.042 1.962 1.952 1.982 2.022
3539.674 2.102 2.332 2.592 2.722 3.012 3.492 3.942 4.432 5.212 6.322
3558.964 7.802 9.692 12.532 16.672 22.382 29.522 36.062 39.802 40.622 39.652
3578.254 36.652 30.552 22.642 15.922 11.372 8.342 6.402 5.202 4.202 3.362
3597.544 3.122 2.802 2.432 2.332 2.052 1.762 1.732 1.632 1.512 1.452
3616.833 1.372 1.2186 1.0966 1.0603 0.9259 0.814 0.9263 1.0567 0.9862 0.8016
3636.123 0.7282 0.7816 0.784 0.8975 0.8909 0.6725 0.6551 0.7089 0.6489 0.571
3655.413 0.5551 0.664 0.608 0.5238 0.5783 0.5054 0.38328 0.35953 0.32256 0.5147
3674.703 0.6836 0.3218 0.3056 0.41171 0.2873 0.41964 0.6171 0.5219 0.5494 0.6384
3693.993 0.4489 0.3926 0.34888 0.195 0.2709 0.42315 0.3206 0.2918 0.4452 0.4706
3713.282 0.4335 0.4393 0.4534 0.6061 0.5929 0.4696 0.42073 0.4497 0.5713 0.5829
3732.572 0.5249 0.4318 0.38972 0.42879 0.4464 0.309 0.16 0.2 0.338009 0.4456
3751.862 0.5167 0.4657 0.39142 0.3735 0.40457 0.4701 0.34858 0.163 0.196 0.3189
3771.152 0.2544 0.214 0.2547 0.2406 0.2927 0.37305 0.3159 0.2922 0.3047 0.2442
3790.441 0.223 0.166 0.093 0.2762 0.4733 0.42693 0.182 0.007 0.18 0.41118
3809.731 0.3509 0.199 0.3043 0.42437 0.4472 0.4532 0.465 0.504 0.4766 0.42482
3829.021 0.4382 0.4336 0.37898 0.34986 0.32583 0.34411 0.4466 0.5301 0.4493 0.4664
3848.311 0.5228 0.4925 0.41894 0.22 0.2636 0.39112 0.34431 0.5207 0.6449 0.5544
3867.601 0.5133 0.42476 0.481 0.5466 0.5403 0.5576 0.5098 0.4591 0.5154 0.5071
3886.890 0.38408 0.39127 0.39696 0.2648 0.34798 0.38448 0.207 0.2816 0.40602 0.2539
3906.180 0.186 0.36462 0.37253 0.36391 0.39151 0.2547 0.2867 0.5609 0.5204 0.37079
3925.470 0.485 0.4541 0.5041 0.5904 0.5767 0.4861 0.2382 0.179 0.183 0.16
3944.760 0.17 0.219 0.3041 0.3725 0.4386 0.296 0.35402 0.52 0.38614 0.39084
3964.049 0.2986 0.225 0.2655 0.36132 0.4585 0.5631 0.5768 0.3121 0.226 0.31
3983.339 0.42066 0.4649 0.5142 0.5607 0.4351 0.2455 0.35975 0.5122 0.4939 0.5225
##END=
