##TITLE=Ethyl 2-bromo-3-methyl-4,4,4-trifluorobutyrate
##JCAMP-DX=4.24
##DATA TYPE=INFRARED SPECTRUM
##ORIGIN=EPA-IR VAPOR PHASE LIBRARY
##OWNER=SRD/NIST
Collection (C) 2018 copyright by the U.S. Secretary of Commerce
on behalf of the United States of America. All rights reserved.
##CAS REGISTRY NO=2024-54-6
##MOLFORM=C 7 H 10 Br F 3 O 2
##$NIST SOURCE=MSDC-IR
##STATE=gas
##XUNITS=1/CM
##YUNITS=ABSORBANCE
##XFACTOR=1.
##YFACTOR=0.001
##DELTAX=1.92898
##FIRSTX=549.8
##LASTX=4000.7
##FIRSTY=2.47
##MAXX=4000.7
##MINX=549.759
##MAXY=0.04605
##MINY=0
##NPOINTS=1790
##XYDATA=(X++(Y..Y))
549.759 2.47 2.45 2.67 3.07 2.76 3.2 3.61 3 3.1 3.05
569.049 2.51 2.64 3.35 2.97 1.6836 1.8134 2.48 3.13 2.92 2.1175
588.339 2.37 3.08 3.72 3.7 4.08 3.54 3.64 3.58 3.27 3.44
607.628 3.04 3.2 3.46 3.59 3.13 3.6 4.83 4.63 3.69 3.75
626.918 3.43 2.93 2.86 3.38 3.94 3.33 3.37 3.49 3.57 3.16
646.208 2.77 3.15 3 2.6 2.1965 2.55 2.8 2.64 3.07 3.41
665.498 2.7 2.1447 2.36 2.44 1.9274 1.26474 1.4884 1.5308 1.24268 1.647
684.787 2.51 2.46 2.78 2.98 2.0422 2.1285 2.2264 2.2108 2.5 2.2384
704.077 1.4819 1.5353 2.1342 2.33 2.3 1.8258 1.4341 1.6074 2.1471 2.35
723.367 2.0342 2.2471 2.0428 2.0945 2.1924 2.0435 2.0747 2.2292 2.36 1.8877
742.657 1.4204 1.014 1.106 1.27887 1.25936 1.4597 1.4552 1.4795 1.6606 1.6674
761.947 1.7052 1.8423 1.6399 1.4291 1.8872 1.9149 1.7521 1.718 1.3546 1.2121
781.236 1.4283 1.8219 1.9195 1.7882 2.1855 2.5 1.8517 1.7648 2.42 1.7341
800.526 1.4706 1.5291 1.5247 1.6489 1.7407 2.51 2.1725 1.3977 1.5971 2.84
819.816 4.09 2.1742 0.83 1.7313 1.5049 1.5902 2.44 2.4 1.9995 2.1692
839.106 2.41 2.0469 1.9947 2.66 2.84 2.58 2.0412 2.42 2.94 3.09
858.395 3.19 3.4 3.68 3.63 3.46 2.94 2.44 2.63 2.66 2.1312
877.685 1.6481 1.7558 2.41 2.2097 1.7565 1.8431 2.26 2.45 2.45 2.56
896.975 2.53 2.27 2.1678 2.29 1.757 1.5772 2.48 2.83 2.25 1.788
916.265 1.6715 2.0421 2.26 1.9567 2.0999 2.1634 1.9526 1.8362 1.7708 2.2403
935.555 2.45 2.31 2.36 2.68 2.89 2.9 3.08 3.18 2.95 2.85
954.844 3.19 3.47 3.35 2.82 2.55 2.68 2.51 2.6 2.47 2.246
974.134 2.62 2.83 2.81 3.03 3.58 3.86 4.13 4.06 4.1 4.26
993.424 3.6 3.43 4.04 3.66 3.58 4.74 5.84 6.53 7.3 8.03
1012.714 8.75 10.16 11.36 12.45 13.59 14.49 15.12 15.84 16.41 15.63
1032.003 15.29 14.63 14.04 13.81 12.11 10.87 10.62 10.61 9.52 8.18
1051.293 7.49 6.62 7.39 8.69 9.01 9.05 9.37 9.84 10.05 10.36
1070.583 9.23 8.36 9.93 10.09 8.43 8.25 9.53 9.19 7.66 8.67
1089.873 9.58 9.6 9.97 10.52 12.04 13.4 13.63 14.85 17.01 17.55
1109.163 17.39 18.54 18.96 18.39 19.06 19.63 20.58 21.56 21.31 23.85
1128.452 26.95 29.01 32.72 36.33 39.51 42.37 44.38 45.05 45.31 46.05
1147.742 44.8 43.22 41.33 39.85 38.71 36.23 33.89 32.24 31.24 30.37
1167.032 30.37 30.9 31.29 32.62 35.89 39.09 41.93 43.69 44.4 45.39
1186.322 44.43 41.88 40.06 37.59 33.8 29.83 26.37 23.32 20.76 19.23
1205.611 17.96 17.75 18.11 18.39 18.43 18.22 19.08 19.77 19.4 18.61
1224.901 19.18 20.1 19.66 21 23.01 23.62 24.25 26.06 26.95 27.41
1244.191 29.17 30.78 31.52 33.29 35.21 36.19 37.15 37.38 36.68 35.28
1263.481 34 33.43 32.48 31.18 30.07 28.49 27.42 26.61 25.44 24.31
1282.771 23 22.35 21.56 20.33 18.84 17.78 17.43 16.57 16 15.64
1302.060 15.58 15.51 15.14 14.93 14.54 14.25 13.86 13.19 12.5 11.77
1321.350 11.1 10.45 9.86 9.3 8.52 8.06 8.11 7.95 7.96 8.13
1340.640 8.1 8.09 8.26 8.52 8.79 9 9.25 9.69 10.08 10.26
1359.930 10.25 10.44 10.58 10.66 10.75 10.68 10.82 10.71 10.17 9.56
1379.219 8.78 8.31 7.91 7.21 7.02 7.04 6.77 6.53 6.65 6.57
1398.509 6.34 5.99 5.4 4.97 4.63 4.12 3.76 3.71 3.59 3.63
1417.799 3.68 3.52 3.36 3.29 3.51 3.7 3.5 3.28 3.24 3.41
1437.089 3.55 3.74 3.87 4.02 4.15 4.12 4.03 4.34 5.02 5.16
1456.378 5.23 5.67 6.35 7.11 7.43 7.3 7.13 6.62 6.2 6.06
1475.668 5.52 5.22 4.68 4.19 4.03 3.48 3.21 3.11 3.01 2.76
1494.958 2.47 2.39 2.58 2.64 2.3 2.1154 2.1859 2.2201 2.31 2.31
1514.248 2.1478 2.018 2.14 2.1504 1.735 1.89 2.0737 1.7614 1.4493 1.4689
1533.538 1.8064 1.993 1.83 1.7632 1.881 1.9321 1.7237 1.3747 1.5036 1.9567
1552.827 1.7152 1.536 1.7589 1.6445 1.5641 1.3662 1.124 1.075 1.24408 1.34941
1572.117 1.6307 1.7648 1.6108 1.3973 1.5598 1.7764 1.6493 1.6903 1.6456 1.6269
1591.407 1.793 1.8438 1.6169 1.356 1.30064 1.5401 1.7249 1.917 1.9228 1.9299
1610.697 2.144 2.2163 2.124 1.6442 1.5844 2.1942 1.9246 1.6553 1.9766 1.7947
1629.986 1.5821 1.8666 2.1728 2.2218 2.26 1.9347 1.6735 1.8504 2.1276 1.8767
1649.276 1.6321 1.8274 1.7298 1.5811 1.7635 1.7115 1.6009 1.7529 1.7454 1.895
1668.566 1.9785 1.8061 1.7302 1.7637 2.057 2.2131 2.1555 2.093 1.9278 1.9966
1687.856 2.27 2.33 2.1324 2.067 2.0833 2.26 2.45 2.45 2.54 2.78
1707.146 2.9 2.98 3.03 3.26 3.43 3.61 4.04 4.15 4.36 4.66
1726.435 5 5.63 6.45 7.27 7.84 8.82 10.37 11.92 13.48 15.07
1745.725 16.76 18.99 21.41 23.99 26.45 28.38 29.96 31.26 31.76 30.95
1765.015 28.4 24.54 20.79 17.77 14.7 11.94 9.88 8.11 6.92 6.17
1784.305 5.51 5.11 4.75 4.16 3.87 3.74 3.47 3.16 2.93 2.92
1803.594 2.91 2.65 2.44 2.37 2.35 2.43 2.36 2.1795 2.1576 2.2066
1822.884 2.0719 1.9319 1.8272 1.9525 1.9422 1.7483 1.7832 1.8816 1.886 1.7866
1842.174 1.7086 1.6889 1.848 1.8648 1.7317 1.6421 1.4832 1.5781 1.7776 1.7216
1861.464 1.8333 1.9057 1.8884 1.6755 1.6277 1.7971 1.7789 1.8923 1.8523 1.7003
1880.754 1.6553 1.64 1.6413 1.705 1.5833 1.3822 1.5497 1.417 1.31802 1.4921
1900.043 1.5985 1.8213 1.8118 1.466 1.3815 1.6024 1.5813 1.4478 1.5344 1.4268
1919.333 1.3873 1.5703 1.4648 1.4471 1.3567 1.3532 1.24658 1.1823 1.31397 1.31257
1938.623 1.4456 1.5278 1.3743 1.29481 1.4872 1.7292 1.7706 1.6382 1.562 1.4784
1957.913 1.4791 1.6461 1.413 1.136 1.26295 1.4215 1.4413 1.5157 1.4958 1.5557
1977.202 1.5143 1.3883 1.6774 1.7845 1.4936 1.32564 1.5878 1.6409 1.4953 1.33725
1996.492 1.33709 1.3915 1.30615 1.4159 1.4071 1.29246 1.28913 1.2037 1.28792 1.34974
2015.782 1.2066 1.27558 1.3807 1.4993 1.4842 1.3169 1.2268 1.2226 1.24524 1.4126
2035.072 1.6276 1.4416 1.28682 1.3586 1.4873 1.5228 1.3835 1.4124 1.3814 1.32805
2054.362 1.4725 1.7285 1.8047 1.6211 1.5464 1.5083 1.33747 1.1959 1.33812 1.4479
2073.651 1.2248 1.123 1.25843 1.2187 1.142 1.4327 1.5751 1.4653 1.26963 1.368
2092.941 1.7128 1.5868 1.3845 1.34303 1.386 1.26014 1.29697 1.434 1.101 1.033
2112.231 1.106 1.123 1.2224 1.2213 1.30744 1.32559 1.31662 1.28408 1.2464 1.25469
2131.521 1.2277 1.2311 1.3513 1.3337 1.054 0.881 0.769 0.903 1.131 1.149
2150.810 1.26583 1.2136 1.112 1.27477 1.5072 1.4492 1.32877 1.33889 1.1591 1.135
2170.100 1.26452 1.32596 1.3748 1.6245 1.5311 1.2084 1.28821 1.28557 0.971 0.951
2189.390 1.25713 1.4827 1.4369 1.2622 1.3735 1.4166 1.2145 0.935 0.833 1.116
2208.680 1.4184 1.3965 1.096 1.087 1.33323 1.2052 1.085 1.33186 1.39 1.3611
2227.970 1.4287 1.25081 1.28861 1.29232 1.101 1.28157 1.5221 1.4811 1.4188 1.136
2247.259 0.971 1.003 1.32509 1.4724 1.1798 1.27474 1.4609 1.5911 1.6588 1.4379
2266.549 1.28247 1.29678 1.43 1.4492 0.962 0.899 1.2191 1.26443 1.3527 1.6678
2285.839 1.7817 1.5762 1.412 1.3707 1.4488 1.24973 1.06 1.156 1.29108 1.2529
2305.129 1.198 1.083 1.2701 1.3948 1.1654 1.176 1.085 0.921 1.115 1.29856
2324.418 1.1516 1.1865 1.1703 1.1715 1.1759 1.111 1.082 1.169 1.09 0.962
2343.708 0.937 0.961 0.993 1.006 1.1648 1.075 1.029 1.31373 1.30888 1.27878
2362.998 1.4291 1.355 1.4056 1.292 1.132 1.37 1.6536 1.4488 1.2061 1.133
2382.288 1.2167 1.3584 1.119 1.035 1.30505 1.30973 1.31451 1.5086 1.3798 1.138
2401.578 1.1857 1.3401 1.2143 1.30383 1.4573 1.33479 1.32048 1.3901 1.076 0.783
2420.867 0.904 0.948 1.2141 1.3941 0.984 0.665 0.918 1.034 1.091 1.4469
2440.157 1.4184 1.3737 1.5572 1.4796 1.24094 1.122 1.1909 1.2194 1.4252 1.3837
2459.447 0.979 0.69 0.665 1.126 1.452 1.4154 1.007 0.753 0.928 1.30295
2478.737 1.24236 1.054 1.2392 1.1666 1.155 1.33659 1.29738 1.029 0.868 0.858
2498.026 1.051 1.1847 1.076 1.107 1.055 0.876 0.93 1.30047 1.24196 1.1987
2517.316 1.2177 0.967 0.854 1.032 0.98 1.051 1.496 1.28192 0.969 0.915
2536.606 0.979 1.1711 1.2095 1.123 1.1813 1.11 0.932 0.977 1.27712 1.4136
2555.896 1.1504 1.04 1.123 1.069 1.1943 1.25935 1.2261 1.24391 1.3697 1.34927
2575.186 0.914 0.673 0.992 1.1527 0.872 0.77 0.884 0.822 0.889 0.867
2594.475 0.795 0.892 0.758 0.936 1.2134 1.2256 1.2135 1.143 1.012 1.29869
2613.765 1.3935 1.03 1.1553 1.062 0.998 1.1871 0.867 0.859 1.29976 1.4575
2633.055 0.976 0.686 0.622 0.612 0.697 0.65 0.769 0.924 1.1674 1.3659
2652.345 1.3565 0.894 0.677 0.728 0.541 0.86 1.1722 1.012 1.048 0.951
2671.634 0.661 0.958 1.31395 1.04 0.969 0.874 0.474 0.662 1.06 1.034
2690.924 0.76 0.758 0.687 1.032 1.2158 0.99 1.05 1.019 1.036 0.923
2710.214 0.803 1.058 1.024 0.7 0.936 1.3962 1.29297 1.064 0.886 1.31165
2729.504 2.1304 1.8348 1.4154 1.1517 1.26258 1.3278 0.897 0.805 0.964 1.24614
2748.794 1.4118 1.053 0.638 0.913 1.24033 0.972 0.848 1.2156 1.5475 1.29581
2768.083 1.27915 1.144 0.781 0.912 0.94 1.32372 1.4381 1.111 1.065 0.746
2787.373 0.513 0.66 0.914 0.944 0.812 0.516 0.615 1.1713 1.1633 0.987
2806.663 1.2809 1.5111 1.1616 0.821 1.057 1.3762 1.135 1.1714 1.5184 1.5279
2825.953 1.26416 1.1629 1.2058 0.958 0.913 1.033 0.558 0.508 0.885 0.776
2845.242 0.679 0.727 1.137 1.6277 1.4701 1.09 1.3319 1.34083 1.5638 1.7295
2864.532 1.1917 1.1785 1.097 0.993 1.3594 1.473 1.33645 1.30109 1.3548 1.5061
2883.822 1.8128 1.6987 1.4961 1.6791 2.1955 2.2319 2.1153 2.0719 2.0464 2.54
2903.112 2.78 2.67 2.1645 2.53 2.7 2.56 2.82 2.87 3.23 3.26
2922.401 3.08 3.06 3.09 3.41 3.4 3.12 3.25 3.7 3.77 4.41
2941.691 4.7 4.37 4.57 4.68 4.76 4.8 4.72 4.83 4.87 4.73
2960.981 4.68 4.78 5.07 5.05 4.84 4.56 4.77 5.32 5.71 5.71
2980.271 6.17 6.93 6.99 7.4 8.06 7.99 7.91 8.05 7.69 7.27
2999.561 7.1 6.95 6.66 6.45 6.5 6.13 5.82 5.66 5.21 4.71
3018.850 3.93 3.5 3.53 3.07 2.56 2.74 2.55 2.1654 1.7839 1.3761
3038.140 1.1641 1.092 1.8224 2.1956 1.5424 0.891 0.879 1.33914 1.6792 1.6374
3057.430 1.4285 1.037 0.834 1.1533 1.25534 1.27077 1.6351 1.7497 1.4985 1.30669
3076.720 1.33674 1.1836 0.816 1.065 1.3951 1.30284 1.3507 1.29143 1.03 0.959
3096.009 1.046 1.114 1.27216 1.1832 1.199 1.34864 1.085 0.819 1.30219 1.4053
3115.299 0.913 1.2092 0.987 1.054 1.29585 1.109 1.3685 1.3522 1.6091 1.06
3134.589 0.659 1.6144 1.9641 1.5617 1.2006 0.948 0.469 0.298 1.045 1.8295
3153.879 1.4757 0.883 1.034 1.095 1.31253 1.4342 1.5366 1.4669 1.33323 1.31506
3173.169 1.27814 1.3551 0.713 0.473 0.584 0.922 1.218 1.1516 1.31205 0.779
3192.458 0.676 1.1771 1.1995 1.175 1.6598 1.4421 1.07 1.3928 1.3083 0.956
3211.748 0.948 1.2257 1.27805 1.4946 1.4875 1.1841 1.4306 1.4246 1.019 0.944
3231.038 1.04 0.938 0.677 0.474 0.757 1.5653 1.2123 0.833 0.947 0.894
3250.328 0.618 0.305 0.842 1.143 0.833 0.653 0.602 0.65 0.873 0.95
3269.617 0.941 1.143 1.2128 1.2252 1.588 1.3854 0.905 1.2002 1.2589 0.872
3288.907 0.965 0.972 0.91 1.3608 1.34899 0.797 0.835 0.991 1.085 1.2173
3308.197 1.1517 1.6108 1.46 1.382 1.3871 0.943 1.146 0.992 1.018 0.693
3327.487 0.759 1.5004 1.4371 0.781 0.316 0.445 0.389 0.464 0.751 1.098
3346.777 1.26939 1.5621 1.5901 0.795 0.88 1.3843 1.33867 1.086 1.093 1.177
3366.066 0.645 0.915 1.159 1.4701 1.4454 0.757 1.135 0.999 0.744 1.022
3385.356 1.26505 1.504 1.30787 1.098 1.5721 1.4297 1.068 0.944 0.596 0.825
3404.646 0.988 0.996 0.621 0.306 0.639 1.30282 1.109 0.742 0.913 0.663
3423.936 0.656 0.676 0.583 0.596 0.783 0.963 1.026 0.928 1.1575 1.5022
3443.225 1.5899 1.33228 0.949 0.688 0.24 0.566 1.5598 2.1348 1.8994 1.6125
3462.515 1.854 1.4351 0.678 0.858 1.5244 1.7154 1.2355 1.26561 0.981 0.403
3481.805 1.26059 1.9365 1.4364 1.4252 1.3997 1.6328 1.8411 1.1683 0.975 1.1891
3501.095 1.3842 1.8198 1.6543 1.4253 1.6624 1.5739 1.6698 2.0799 1.8232 1.075
3520.385 1.32831 1.471 1.6215 2.0164 1.553 1.2393 1.6587 1.5078 0.966 0.831
3539.674 1.175 1.3769 1.105 1.087 0.771 0.618 0.5 0.795 1.053 0.786
3558.964 1.052 1.2298 1.28235 0.762 0.674 1.1878 1.5817 1.7532 1.1722 0.535
3578.254 0.538 0.618 0.45 1.029 1.5681 1.6484 1.2085 0.448 0.273 0.844
3597.544 1.4652 1.3542 1.116 1.24281 1.599 1.493 1.101 0.824 1.073 1.3328
3616.833 1.5408 1.6206 1.004 0.449 0.473 1.32843 1.7048 1.26733 0.694 0.673
3636.123 1.024 1.483 1.9361 1.7852 1.6652 1.5175 1.396 1.31366 1.182 1.1788
3655.413 1.4108 1.3933 1.131 0.969 0.957 1.029 1.1522 1.4282 1.5697 1.5004
3674.703 1.1763 0.938 0.901 0.974 1.15 1.68 1.5433 1.143 1.28258 0.674
3693.993 0.867 1.4647 1.04 0.792 0.827 0.275 0.279 1.082 1.28605 0.721
3713.282 0.621 1.125 0.959 0.698 1.018 1.113 0.749 1.1588 1.24476 1.14
3732.572 0.763 0.305 0.72 0.839 1.069 0.72 0.841 1.7312 1.3881 0.635
3751.862 0.391 0.933 1.046 0.571 0.746 1.3699 1.5769 1.24951 1.5765 1.7262
3771.152 0.774 0.477 0.845 0.98 1.08 1.077 0.946 1.081 1.4046 1.5299
3790.441 1.6582 1.6189 1.127 1.096 1.3837 0.277 0 0.552 0.458 1.075
3809.731 1.32394 1.7757 1.674 0.77 0.652 0.773 0.369 0.17 0.409 0.72
3829.021 0.917 0.723 0.52 0.504 0.876 1.233 1.5462 1.213 0.86 1.4021
3848.311 1.1 0.543 1.002 0.82 1.012 1.5199 1.4812 1.6491 1.1832 1.052
3867.601 1.4669 1.3657 1.062 1.04 0.95 0.788 1.1697 1.8433 1.4498 0.72
3886.890 1.5316 1.6951 1.216 1.1744 0.918 0.594 0.743 1.195 0.595 0.04
3906.180 0.785 1.30272 1.7222 1.7451 1.3536 0.986 0.551 1.2205 1.029 0.528
3925.470 0.525 0.506 1.022 1.093 1.137 1.4924 1.5397 1.022 0.646 0.853
3944.760 0.745 1.2099 2.0108 1.5697 0.872 1.218 1.1681 0.71 0.924 0.864
3964.049 1.1795 1.105 0.947 1.8613 1.5342 0.468 0.806 1.5408 1.031 0.626
3983.339 0.759 0.654 0.877 0.829 0.953 1.035 0.914 1.1708 1.106 0.738
##END=
