##TITLE=2,4,4,6-Tetrabromo-2,5-cyclohexadienone
##JCAMP-DX=4.24
##DATA TYPE=INFRARED SPECTRUM
##ORIGIN=EPA-IR VAPOR PHASE LIBRARY
##OWNER=SRD/NIST
Collection (C) 2018 copyright by the U.S. Secretary of Commerce
on behalf of the United States of America. All rights reserved.
##CAS REGISTRY NO=20244-61-5
##MOLFORM=C 6 H 2 Br 4 O
##$NIST SOURCE=MSDC-IR
##STATE=gas
##XUNITS=1/CM
##YUNITS=ABSORBANCE
##XFACTOR=1.
##YFACTOR=0.001
##DELTAX=1.92934
##FIRSTX=549.9
##LASTX=3999.5
##FIRSTY=1.1689
##MAXX=3999.53
##MINX=549.863
##MAXY=0.016258
##MINY=0
##NPOINTS=1789
##XYDATA=(X++(Y..Y))
549.863 1.1689 1.0115 0.869 0.6243 0.488 0.37708 0.253 0.2288 0.2344 0.223
569.156 0.185 0.227 0.2839 0.31816 0.3528 0.3172 0.35232 0.40668 0.327652 0.167
588.450 0.106 0.149 0.237 0.2782 0.3165 0.335068 0.3141 0.3174 0.35591 0.38604
607.743 0.38667 0.4462 0.46 0.4363 0.4404 0.42285 0.40177 0.37694 0.3073 0.2392
627.037 0.278 0.2947 0.2949 0.2825 0.2577 0.3055 0.3133 0.37667 0.4748 0.5453
646.330 0.613 0.6459 0.7534 0.8617 0.9296 0.9658 0.9797 1.011 1.0727 1.1411
665.624 1.1569 1.338 1.778 2.378 3.158 4.078 4.868 5.238 5.168 4.518
684.917 3.538 2.538 1.708 1.1626 0.8482 0.698 0.668 0.7535 0.824 0.8657
704.210 0.9713 1.0519 0.9966 0.9122 0.8511 0.808 0.7288 0.7434 0.872 1.0051
723.504 1.291 1.608 2.028 2.598 3.128 3.558 3.858 3.988 3.838 3.408
742.797 2.898 2.408 1.928 1.468 1.0587 0.8616 0.7647 0.7719 0.7822 0.7536
762.091 0.8389 0.8914 0.9637 1.0545 1.1161 1.2253 1.2243 1.1387 1.0545 0.9478
781.384 0.794 0.6505 0.6018 0.5228 0.4507 0.39528 0.35762 0.3121 0.2667 0.2618
800.678 0.2542 0.2401 0.211 0.159 0.18 0.2502 0.2532 0.2453 0.2348 0.2323
819.971 0.2569 0.272 0.2455 0.2303 0.2522 0.3148 0.35056 0.40262 0.5031 0.5477
839.264 0.6056 0.6599 0.6723 0.7754 0.9728 1.2161 1.528 1.938 2.348 2.788
858.558 2.898 2.298 1.718 1.418 1.1338 0.8881 0.7078 0.7384 0.7621 0.6472
877.851 0.5569 0.5114 0.4683 0.4589 0.4549 0.4328 0.41781 0.4459 0.42725 0.39435
897.145 0.40399 0.35124 0.336643 0.32235 0.3116 0.33438 0.2986 0.2889 0.2996 0.304
916.438 0.2596 0.209 0.2361 0.2361 0.2577 0.3092 0.2889 0.2605 0.2747 0.2743
935.732 0.2459 0.2704 0.271 0.2503 0.2793 0.3055 0.2907 0.279 0.2899 0.2877
955.025 0.2806 0.32039 0.35191 0.2759 0.246 0.2815 0.2697 0.2438 0.2946 0.3102
974.318 0.2719 0.2787 0.2907 0.2798 0.265 0.267 0.2747 0.2821 0.2669 0.2447
993.612 0.2316 0.228 0.223 0.221 0.226 0.219 0.206 0.213 0.214 0.207
1012.905 0.216 0.212 0.2476 0.2529 0.227 0.225 0.2387 0.2362 0.2828 0.371
1032.199 0.4024 0.4391 0.4325 0.40226 0.4384 0.4754 0.4811 0.5242 0.5837 0.5952
1051.492 0.5807 0.6268 0.6647 0.714 0.7006 0.6442 0.6926 0.744 0.739 0.715
1070.786 0.69 0.6951 0.6963 0.6595 0.6546 0.6332 0.5624 0.5346 0.5595 0.5868
1090.079 0.6241 0.6375 0.6534 0.717 0.7711 0.8174 0.9165 0.9967 1.0187 1.004
1109.372 0.9655 0.9389 0.8538 0.7375 0.6595 0.5712 0.5149 0.4627 0.42497 0.4292
1128.666 0.4331 0.5205 0.5769 0.5893 0.6783 0.8315 1.0131 1.2606 1.538 1.898
1147.959 2.448 3.128 3.928 4.888 5.858 6.668 7.098 7.038 6.518 5.648
1167.253 4.548 3.478 2.688 2.218 1.938 1.758 1.668 1.648 1.638 1.598
1186.546 1.608 1.648 1.808 2.038 2.268 2.578 2.798 2.878 2.898 2.788
1205.840 2.568 2.408 2.158 1.918 1.838 1.858 2.118 2.538 3.078 3.508
1225.133 3.668 3.638 3.408 2.908 2.268 1.778 1.478 1.2803 1.1094 0.9786
1244.426 0.8926 0.9192 1.0471 1.1488 1.2992 1.538 1.828 2.158 2.438 2.608
1263.720 2.818 2.998 2.928 2.678 2.368 2.018 1.628 1.2887 1.0148 0.7886
1283.013 0.6631 0.5551 0.4733 0.41581 0.4302 0.5056 0.5996 0.7468 0.9765 1.319
1302.307 1.778 2.388 3.208 4.238 5.348 6.328 6.908 6.888 6.368 5.418
1321.600 4.188 2.988 2.068 1.538 1.2677 1.0833 0.9805 0.9818 1.0013 1.0794
1340.894 1.1863 1.2273 1.1702 1.1079 1.0657 0.944 0.8511 0.7942 0.7399 0.7321
1360.187 0.7352 0.8071 0.9497 1.0985 1.2882 1.548 1.918 2.328 2.738 3.208
1379.480 3.658 3.938 4.108 4.178 4.048 3.788 3.418 2.998 2.608 2.248
1398.774 1.948 1.748 1.718 1.698 1.718 1.768 1.778 1.728 1.638 1.578
1418.067 1.498 1.428 1.398 1.378 1.428 1.538 1.668 1.848 2.158 2.528
1437.361 2.968 3.498 4.208 5.078 6.188 7.648 9.568 11.808 14.018 15.648
1456.654 16.258 15.738 14.098 11.528 8.568 5.928 4.118 3.018 2.338 1.968
1475.948 1.758 1.588 1.468 1.3144 1.1624 1.0021 0.8431 0.7607 0.7485 0.6526
1495.241 0.5291 0.5208 0.532 0.5152 0.4973 0.4578 0.4628 0.4925 0.4991 0.529
1514.534 0.5722 0.5696 0.5581 0.5651 0.5819 0.5923 0.6207 0.6562 0.6188 0.5891
1533.828 0.6251 0.6375 0.6633 0.7846 0.9551 1.1231 1.348 1.638 1.938 2.158
1553.121 2.308 2.428 2.348 2.168 2.028 1.818 1.548 1.338 1.2116 1.1438
1572.415 1.1277 1.0982 1.0755 1.0999 1.0751 0.9754 0.9662 0.935 0.8034 0.697
1591.708 0.6255 0.5555 0.4945 0.4928 0.4878 0.4406 0.4345 0.4309 0.40828 0.37229
1611.002 0.35465 0.38803 0.34811 0.284 0.2815 0.2722 0.2605 0.3162 0.33857 0.315
1630.295 0.33801 0.3151 0.2509 0.2473 0.302 0.32442 0.3158 0.2845 0.2618 0.2699
1649.588 0.3092 0.2847 0.2306 0.2675 0.3105 0.33922 0.3114 0.3014 0.2707 0.2538
1668.882 0.2792 0.2608 0.2694 0.2737 0.2667 0.2913 0.3119 0.2939 0.2557 0.2893
1688.175 0.3037 0.2926 0.2932 0.2865 0.33846 0.345 0.3159 0.33892 0.3597 0.4088
1707.469 0.4664 0.488 0.5117 0.5099 0.4733 0.4675 0.4664 0.4666 0.484 0.5176
1726.762 0.5472 0.5458 0.521 0.4935 0.4821 0.479 0.4529 0.38997 0.38779 0.4392
1746.056 0.4452 0.41781 0.42223 0.41273 0.3814 0.3385 0.3046 0.2863 0.2405 0.2483
1765.349 0.2622 0.2925 0.327079 0.2858 0.2683 0.239 0.2576 0.2837 0.2872 0.2842
1784.642 0.284 0.3013 0.3083 0.32567 0.2803 0.2712 0.2977 0.2956 0.279 0.2713
1803.936 0.2605 0.277 0.3177 0.3098 0.3119 0.3166 0.2824 0.2745 0.2814 0.2782
1823.229 0.2857 0.3068 0.294 0.2821 0.2888 0.2713 0.2911 0.294 0.2514 0.2373
1842.523 0.2727 0.332181 0.333409 0.2768 0.2651 0.2801 0.2661 0.2653 0.2953 0.2957
1861.816 0.3154 0.332113 0.3023 0.2951 0.2816 0.268 0.279 0.2973 0.32036 0.2994
1881.110 0.2837 0.32151 0.329253 0.331146 0.3226 0.3122 0.3072 0.2884 0.2965 0.2918
1900.403 0.2977 0.31982 0.3059 0.2907 0.2866 0.3164 0.35666 0.35954 0.34849 0.332328
1919.696 0.314 0.34564 0.333417 0.3045 0.35106 0.33853 0.35647 0.39373 0.37816 0.34362
1938.990 0.3124 0.328095 0.36001 0.35036 0.32385 0.3037 0.2965 0.3048 0.3031 0.2903
1958.283 0.2952 0.3098 0.3133 0.33936 0.34466 0.311 0.3032 0.2729 0.2605 0.2962
1977.577 0.3164 0.2966 0.2656 0.2774 0.2809 0.3111 0.336147 0.35162 0.34809 0.327334
1996.870 0.33507 0.3088 0.3115 0.328499 0.331704 0.32491 0.2977 0.2986 0.3105 0.31854
2016.164 0.329091 0.31854 0.2771 0.2914 0.35965 0.34504 0.2907 0.3065 0.328322 0.327977
2035.457 0.31913 0.2964 0.294 0.2821 0.2845 0.3174 0.3059 0.2746 0.2895 0.2822
2054.750 0.2809 0.281 0.2778 0.2891 0.2867 0.3069 0.34517 0.36403 0.34255 0.33696
2074.044 0.35028 0.3449 0.34571 0.35318 0.331161 0.34511 0.35588 0.3076 0.2959 0.32382
2093.337 0.330896 0.3484 0.33882 0.32151 0.35169 0.3677 0.39023 0.40322 0.38985 0.36878
2112.631 0.35212 0.36983 0.37044 0.34701 0.34503 0.332178 0.318 0.331827 0.34746 0.34623
2131.924 0.32193 0.3056 0.3267 0.32415 0.3088 0.32357 0.335943 0.33928 0.34638 0.36411
2151.218 0.37068 0.36308 0.36835 0.35826 0.32036 0.294 0.3121 0.3179 0.3075 0.3162
2170.511 0.3093 0.32126 0.35513 0.34589 0.31865 0.32678 0.34376 0.34485 0.34823 0.337571
2189.804 0.3087 0.32585 0.35119 0.35099 0.337851 0.330896 0.3093 0.332371 0.39798 0.39547
2209.098 0.35737 0.35799 0.37444 0.36532 0.33869 0.31865 0.34573 0.40239 0.4283 0.42708
2228.391 0.41301 0.41266 0.40876 0.38659 0.38572 0.38022 0.35604 0.32623 0.3483 0.40336
2247.685 0.40387 0.36694 0.35304 0.37894 0.37544 0.37007 0.36643 0.34776 0.332901 0.34027
2266.978 0.38057 0.36062 0.335365 0.33812 0.36406 0.38313 0.38579 0.40775 0.39713 0.36122
2286.272 0.36973 0.40648 0.38447 0.36909 0.37263 0.39072 0.41417 0.41252 0.41812 0.37278
2305.565 0.33385 0.3177 0.3231 0.36199 0.39032 0.39749 0.372 0.35264 0.36388 0.3505
2324.858 0.35052 0.38459 0.37571 0.334289 0.34377 0.34477 0.35424 0.34635 0.3107 0.35107
2344.152 0.36573 0.35158 0.36321 0.38823 0.37378 0.33839 0.333766 0.3578 0.37005 0.3673
2363.445 0.37542 0.35951 0.33856 0.37031 0.39007 0.37533 0.39511 0.40157 0.40993 0.40723
2382.739 0.39713 0.41179 0.40127 0.4035 0.39988 0.3686 0.36115 0.37022 0.37442 0.38862
2402.032 0.3703 0.35437 0.39798 0.4284 0.42026 0.40689 0.41768 0.4349 0.4124 0.41169
2421.326 0.42612 0.41437 0.4203 0.4423 0.4507 0.4397 0.41928 0.37734 0.38205 0.38266
2440.619 0.36141 0.3749 0.40246 0.4395 0.42004 0.41367 0.4745 0.4631 0.41917 0.39545
2459.912 0.38865 0.38769 0.3679 0.42555 0.4601 0.4423 0.4625 0.4972 0.5054 0.4643
2479.206 0.4472 0.4397 0.41972 0.4312 0.4496 0.4504 0.41904 0.39728 0.39889 0.42393
2498.499 0.40815 0.39202 0.42398 0.4407 0.457 0.4596 0.4626 0.4433 0.4339 0.4336
2517.793 0.3937 0.39204 0.4098 0.42148 0.4398 0.4656 0.5066 0.5095 0.4722 0.42101
2537.086 0.41247 0.4548 0.463 0.4668 0.4446 0.39103 0.4265 0.4425 0.37954 0.37884
2556.380 0.39794 0.40225 0.39329 0.36395 0.37116 0.3896 0.39011 0.38644 0.37832 0.39127
2575.673 0.40663 0.4423 0.4743 0.4304 0.40819 0.4296 0.4827 0.4773 0.4415 0.4289
2594.966 0.4339 0.4285 0.414 0.4342 0.4518 0.4541 0.5011 0.5376 0.4811 0.4755
2614.260 0.42635 0.39484 0.4444 0.4475 0.40603 0.40992 0.4947 0.5108 0.4568 0.4267
2633.553 0.42382 0.38516 0.38027 0.40965 0.4023 0.4376 0.4427 0.4437 0.4734 0.4533
2652.847 0.41622 0.42672 0.4622 0.41766 0.40308 0.4556 0.4409 0.4577 0.458 0.4301
2672.140 0.42715 0.4474 0.4704 0.4645 0.4816 0.5019 0.4995 0.4517 0.40293 0.4559
2691.434 0.497 0.5054 0.5381 0.5107 0.5038 0.4891 0.42473 0.439 0.4765 0.4607
2710.727 0.4315 0.4638 0.5105 0.4879 0.5026 0.4922 0.4483 0.4924 0.5299 0.526
2730.020 0.5043 0.4865 0.5017 0.514 0.4839 0.42795 0.36398 0.39838 0.4542 0.42371
2749.314 0.4451 0.4925 0.5064 0.5217 0.4916 0.4668 0.5177 0.4815 0.4519 0.4636
2768.607 0.4663 0.4901 0.5012 0.5077 0.5325 0.5311 0.4812 0.5047 0.5428 0.5141
2787.901 0.444 0.4026 0.37795 0.36307 0.37584 0.38357 0.42145 0.40578 0.37082 0.4343
2807.194 0.5037 0.4758 0.5041 0.52 0.4869 0.4658 0.4728 0.5213 0.5339 0.5197
2826.488 0.5392 0.5143 0.5068 0.5067 0.4419 0.5095 0.5202 0.4796 0.509 0.5715
2845.781 0.6374 0.593 0.5144 0.4679 0.4698 0.5061 0.5292 0.5395 0.5642 0.5713
2865.074 0.5034 0.4797 0.5275 0.5603 0.548 0.4684 0.4525 0.4839 0.42526 0.40336
2884.368 0.4835 0.554 0.4492 0.32245 0.37591 0.4987 0.4966 0.4483 0.5045 0.5313
2903.661 0.5587 0.5171 0.4615 0.4741 0.4458 0.4831 0.5378 0.5199 0.4877 0.4499
2922.955 0.4676 0.5311 0.5119 0.4398 0.4386 0.4316 0.4719 0.5119 0.4689 0.4798
2942.248 0.4861 0.4861 0.5051 0.4789 0.4359 0.432 0.5007 0.5111 0.4689 0.42138
2961.542 0.40977 0.4666 0.5128 0.536 0.5358 0.5038 0.4532 0.4539 0.537 0.5567
2980.835 0.5248 0.5422 0.493 0.4324 0.4627 0.4434 0.37854 0.40535 0.36645 0.3162
3000.128 0.36973 0.4476 0.4366 0.4861 0.5729 0.6263 0.5244 0.37521 0.438 0.4414
3019.422 0.35227 0.35269 0.35839 0.33999 0.34931 0.42663 0.4704 0.39526 0.35275 0.34449
3038.715 0.4402 0.42336 0.38302 0.36945 0.34782 0.38835 0.41394 0.465 0.3861 0.35234
3058.009 0.38553 0.2968 0.213 0.2886 0.4449 0.4713 0.4715 0.475 0.4392 0.41396
3077.302 0.38352 0.4396 0.38407 0.40143 0.459 0.4354 0.4798 0.5191 0.5422 0.4442
3096.596 0.3074 0.2579 0.2502 0.2364 0.2912 0.39517 0.4533 0.4632 0.41856 0.34489
3115.889 0.4771 0.5829 0.4991 0.37492 0.219 0.222 0.3036 0.33913 0.4553 0.4389
3135.182 0.2783 0.36737 0.40184 0.32054 0.2836 0.3031 0.32328 0.32494 0.38772 0.35717
3154.476 0.336364 0.36052 0.3146 0.2537 0.2294 0.2292 0.2428 0.2535 0.2919 0.2894
3173.769 0.2343 0.2641 0.36835 0.37328 0.2425 0.2502 0.35827 0.330145 0.33996 0.41024
3193.063 0.36439 0.2724 0.2329 0.2662 0.3001 0.2326 0.161 0.224 0.34161 0.37539
3212.356 0.3023 0.217 0.2736 0.35202 0.3022 0.3038 0.3114 0.2359 0.133 0.011
3231.650 0.127 0.138 0.047 0.121 0.216 0.3088 0.40055 0.4488 0.32096 0.206
3250.943 0.077 0.07 0.163 0.2383 0.2477 0.218 0.2772 0.194 0.128 0.189
3270.236 0.2293 0.2761 0.2871 0.219 0.333742 0.2951 0.195 0.35291 0.3093 0.2795
3289.530 0.193 0.157 0.2891 0.2774 0.328531 0.2959 0.181 0.214 0.2995 0.3056
3308.823 0.2861 0.3099 0.2569 0.195 0.154 0.09 0.169 0.221 0.2342 0.2451
3328.117 0.2326 0.2773 0.35955 0.34367 0.178 0.16 0.2826 0.204 0.159 0.187
3347.410 0 0.029 0.206 0.186 0.213 0.2973 0.188 0.147 0.197 0.114
3366.704 0.12 0.183 0.225 0.212 0.141 0.156 0.123 0.116 0.062 0.061
3385.997 0.251 0.3154 0.2909 0.162 0.13 0.21 0.175 0.11 0.175 0.2515
3405.290 0.207 0.183 0.123 0.148 0.223 0.35719 0.4614 0.2761 0.101 0.093
3424.584 0.164 0.2696 0.2553 0.153 0.159 0.2736 0.36049 0.33924 0.226 0.143
3443.877 0.158 0.243 0.334063 0.3572 0.2989 0.158 0.074 0.108 0.186 0.272
3463.171 0.3432 0.32074 0.2367 0.156 0.143 0.141 0.14 0.177 0.2475 0.2845
3482.464 0.2476 0.262 0.202 0.19 0.2654 0.295 0.2337 0.194 0.2979 0.332785
3501.758 0.3405 0.2931 0.2412 0.282 0.333929 0.37638 0.40256 0.34915 0.2532 0.2884
3521.051 0.37147 0.4615 0.5367 0.6265 0.7456 0.987 1.398 1.848 2.738 4.308
3540.344 6.108 7.698 8.758 9.288 9.178 8.388 7.198 5.938 4.958 4.248
3559.638 3.518 2.718 2.218 1.858 1.418 1.0545 0.8377 0.6404 0.5761 0.6134
3578.931 0.5371 0.608 0.632 0.5279 0.38172 0.333338 0.3068 0.2609 0.2606 0.297
3598.225 0.38465 0.41398 0.37395 0.36203 0.3053 0.208 0.2706 0.306 0.191 0.138
3617.518 0.222 0.289 0.34855 0.3115 0.126 0.05 0.088 0.124 0.17 0.218
3636.812 0.2544 0.2802 0.2481 0.187 0.191 0.2518 0.2379 0.2322 0.215 0.1
3656.105 0.173 0.175 0.134 0.221 0.2411 0.2561 0.2781 0.35231 0.2783 0.202
3675.398 0.185 0.124 0.148 0.203 0.2844 0.31967 0.35316 0.37859 0.3146 0.2407
3694.692 0.207 0.147 0.117 0.141 0.133 0.167 0.2326 0.2406 0.262 0.2537
3713.985 0.2858 0.35078 0.3164 0.3149 0.3173 0.2928 0.3103 0.331907 0.31853 0.32258
3733.279 0.2418 0.138 0.07 0.145 0.32389 0.3042 0.196 0.212 0.2352 0.155
3752.572 0.151 0.179 0.2 0.219 0.2663 0.2889 0.213 0.186 0.182 0.202
3771.866 0.206 0.225 0.2867 0.36803 0.37952 0.2345 0.174 0.184 0.212 0.2856
3791.159 0.35117 0.32008 0.2592 0.2502 0.2372 0.168 0.2678 0.36097 0.2816 0.327016
3810.452 0.327058 0.2383 0.3035 0.36511 0.35401 0.37268 0.330825 0.2807 0.195 0.2349
3829.746 0.3055 0.2477 0.211 0.235 0.3177 0.35788 0.35673 0.2734 0.133 0.162
3849.039 0.303 0.2463 0.2399 0.34215 0.37983 0.38844 0.36793 0.32668 0.356 0.39828
3868.333 0.2932 0.2534 0.2804 0.2865 0.2519 0.2388 0.337835 0.2697 0.122 0.201
3887.626 0.2403 0.2515 0.2921 0.32123 0.2621 0.213 0.2627 0.256 0.2502 0.2421
3906.920 0.2519 0.286 0.3213 0.2846 0.2773 0.37203 0.41596 0.36323 0.329655 0.34161
3926.213 0.36492 0.4024 0.327699 0.32573 0.42293 0.37543 0.2869 0.2616 0.2719 0.2919
3945.506 0.35776 0.3833 0.36094 0.34168 0.35143 0.41399 0.409 0.35817 0.331529 0.2986
3964.800 0.334645 0.36486 0.3441 0.39014 0.39691 0.2492 0.2442 0.32494 0.281 0.2522
3984.093 0.3099 0.35619 0.2741 0.2999 0.34264 0.330535 0.35528 0.34847 0.34024
##END=
