##TITLE=4-Aminopyrazolo[3,4-d]pyrimidine
##JCAMP-DX=4.24
##DATA TYPE=INFRARED SPECTRUM
##ORIGIN=EPA-IR VAPOR PHASE LIBRARY
##OWNER=SRD/NIST
Collection (C) 2018 copyright by the U.S. Secretary of Commerce
on behalf of the United States of America. All rights reserved.
##CAS REGISTRY NO=20289-44-5
##MOLFORM=C 5 H 5 N 5
##$NIST SOURCE=MSDC-IR
##STATE=gas
##XUNITS=1/CM
##YUNITS=ABSORBANCE
##XFACTOR=1.
##YFACTOR=0.001
##DELTAX=1.92898
##FIRSTX=549.8
##LASTX=4000.7
##FIRSTY=12.93
##MAXX=4000.7
##MINX=549.759
##MAXY=0.0817
##MINY=0
##NPOINTS=1790
##XYDATA=(X++(Y..Y))
549.759 12.93 13.39 12.64 10.95 8.85 7.72 7.22 6.71 6.13 5.39
569.049 4.87 4.4 4.16 3.8 3.48 3.43 3.22 3.07 2.93 2.47
588.339 2.38 2.68 2.94 2.78 2.33 2.26 2.25 2.09 2.2 2.44
607.628 2.41 2.58 2.56 2.42 2.18 2.06 2.48 2.45 2.58 2.64
626.918 2.66 3.1 3.44 3.62 3.88 4.14 4.56 5.1 5.43 6.07
646.208 6.67 6.99 7.5 7.87 7.95 8.09 8.32 8.5 8.28 8
665.498 8.15 8.04 7.79 7.9 8 7.9 7.63 7.63 7.54 7.17
684.787 6.88 6.69 6.71 6.61 6.43 6.35 6.26 6.15 5.86 5.94
704.077 6.14 5.74 5.48 5.44 5.33 5.44 5.37 4.97 4.8 4.64
723.367 4.22 3.8 3.56 3.4 3.32 3.43 3.39 3.05 2.9 2.94
742.657 2.79 2.5 2.38 2.56 2.62 2.54 2.5 2.57 2.94 3.31
761.947 3.34 3.62 3.93 3.91 4.32 4.98 5.27 5.42 5.88 6.32
781.236 6.75 7.31 7.92 8.6 9.24 10.02 10.81 11.06 10.67 9.97
800.526 9.47 9.39 9.14 8.48 7.81 7.15 6.73 6.69 6.5 6.14
819.816 5.77 5.65 5.68 5.74 5.87 5.98 5.83 5.92 6.21 6.43
839.106 7.17 8.76 9.1 7.35 6.3 6.17 6.09 6.14 6.01 5.72
858.395 5.38 5.35 5.25 4.89 4.65 4.39 4.48 4.67 4.7 5
877.685 5.37 5.48 5.41 5.29 5.14 4.97 4.73 4.68 4.63 4.67
896.975 4.66 4.19 3.93 3.81 3.71 3.63 3.47 3.54 4.16 4.58
916.265 5.22 6.69 8.35 10.02 11.73 13 13.41 13.5 14.3 15.3
935.555 14.56 13.8 13.93 13.42 12.31 10.57 8.97 7.76 6.79 6.47
954.844 6.6 6.93 7.34 7.56 8.12 9.18 9.87 10.34 10.65 10.88
974.134 11.08 11.1 11.27 11.34 10.91 10.45 10.05 9.54 8.85 7.74
993.424 6.94 6.08 5.04 4.56 4.05 3.85 3.64 3.5 3.69 3.33
1012.714 3.25 3.53 3.24 2.69 2.8 3.36 3.69 3.49 3.34 3.34
1032.003 3.53 3.91 3.67 3.29 3.39 3.36 2.85 2.54 2.62 2.58
1051.293 2.33 2.23 2.3 2.09 1.8206 1.8845 1.9155 1.8147 1.9718 1.9868
1070.583 1.8007 2.0019 2.25 1.8191 1.3826 1.6873 1.2912 1.4393 1.3762 0.192
1089.873 0 0.478 0.9306 0.856 1.013 1.3703 1.8517 1.8758 1.2195 0.9579
1109.163 0.831 0.928 1.4472 1.8469 1.6054 1.4117 1.9274 2.28 1.9672 1.9126
1128.452 2.36 3.12 3.56 3.33 3.31 3.92 3.94 3.67 4.1 3.72
1147.742 3.46 3.51 2.98 2.54 2.16 2.33 2.61 2.53 2.46 2.16
1167.032 1.843 1.6969 1.6579 1.6954 1.9833 2.6 3.05 3.35 3.83 4.14
1186.322 4.24 4.52 3.82 3.03 3.1 4.12 4.52 3.62 3.04 2.68
1205.611 2.19 2.21 2.0058 2.23 2.63 1.9916 1.3186 1.5557 2.08 1.8187
1224.901 2.0175 1.9032 2.17 2.41 2.17 3.13 4.05 4.44 5.12 5.52
1244.191 5.95 6.29 6.63 7.31 7.65 7.69 7.98 8.15 8.19 8.24
1263.481 8.11 7.94 7.69 7.56 7.5 7.6 7.65 7.58 7.85 8.13
1282.771 8.26 8.47 8.59 8.82 9.22 9.41 9.42 9.46 9.33 8.9
1302.060 8.4 7.99 7.54 7.17 6.81 6.27 5.81 5.34 4.71 4.24
1321.350 4 3.88 3.91 4.18 4.58 5.17 5.93 6.62 7.26 7.93
1340.640 8.47 8.71 8.82 8.96 8.88 8.69 8.54 8.3 7.97 7.47
1359.930 6.81 6.19 5.7 5.22 4.87 4.73 4.62 4.48 4.38 4.12
1379.219 3.62 3.16 2.76 2.33 2.0218 1.8515 1.7142 1.5964 1.6033 1.6244
1398.509 1.5754 1.6955 1.7449 1.7496 1.8963 2.06 2.21 2.38 2.68 2.9
1417.799 3.1 3.41 3.8 4.1 4.55 5.06 5.48 5.91 6.28 6.65
1437.089 7.46 8.7 10.03 11.58 13.25 15 16.93 18.71 20.13 20.99
1456.378 21.12 21.01 20.98 21.45 22.29 22.44 21.33 19.34 16.9 14.49
1475.668 12.58 11.2 10.06 8.99 8.2 7.4 6.59 5.81 5.12 4.58
1494.958 4.08 3.72 3.45 3.29 3.26 3.07 2.79 2.75 2.79 2.88
1514.248 2.89 2.79 2.87 2.97 2.95 2.99 3.08 3.17 3.2 3.27
1533.538 3.41 3.52 3.64 3.83 3.96 4.13 4.56 5.07 5.65 6.4
1552.827 7.28 8.22 9.15 10.34 12.04 13.71 15.4 17.27 19.36 21.51
1572.117 23.7 25.85 28.15 30.72 33.28 36.02 38.7 41.14 43.13 45.19
1591.407 47.5 49.88 52.54 55.52 58.81 62.18 65.23 68.16 71.11 74.66
1610.697 78.33 80.9 81.7 80.95 79.05 76.5 73.61 70.43 66.71 62.01
1629.986 56.29 49.63 42.61 35.58 29.6 24.82 20.96 17.93 15.28 13.1
1649.276 11.52 10.3 9 8.04 7.29 6.54 5.89 5.38 4.92 4.52
1668.566 4.25 4.03 3.88 3.76 3.78 3.75 3.59 3.51 3.39 3.29
1687.856 3.24 3.25 3.12 2.77 2.59 2.51 2.21 2.19 2.3 2.26
1707.146 2.3 2.34 2.18 2.08 2.04 2.0027 2.04 2.0195 1.8969 1.8333
1726.435 1.8296 1.73 1.623 1.5359 1.5028 1.4732 1.4171 1.5054 1.5595 1.5196
1745.725 1.5647 1.6248 1.5891 1.5403 1.6253 1.6325 1.6661 1.7867 1.7331 1.6992
1765.015 1.6089 1.4699 1.4704 1.5171 1.5157 1.4437 1.4905 1.5555 1.5 1.5332
1784.305 1.4814 1.4802 1.5635 1.4461 1.4297 1.5758 1.5446 1.4826 1.4475 1.3657
1803.594 1.4085 1.465 1.507 1.4853 1.3795 1.3742 1.4069 1.4146 1.4463 1.462
1822.884 1.3695 1.2811 1.337 1.3777 1.3938 1.4546 1.4663 1.4291 1.3557 1.3125
1842.174 1.3664 1.3675 1.3605 1.3689 1.4426 1.5291 1.471 1.4328 1.4076 1.4202
1861.464 1.4447 1.3779 1.3938 1.4032 1.4355 1.4229 1.3058 1.3009 1.3922 1.3855
1880.754 1.312 1.3159 1.4034 1.4583 1.3651 1.3237 1.3449 1.3784 1.3903 1.3881
1900.043 1.4244 1.4557 1.5065 1.5469 1.6043 1.6732 1.6942 1.738 1.7947 1.7293
1919.333 1.7811 1.8065 1.8165 1.9098 1.8657 1.7906 1.6856 1.6977 1.7739 1.6625
1938.623 1.544 1.4784 1.4558 1.4337 1.3653 1.3867 1.4498 1.3618 1.3366 1.4472
1957.913 1.4204 1.3635 1.3613 1.3585 1.3628 1.3625 1.3224 1.2791 1.3025 1.3378
1977.202 1.3581 1.3837 1.3919 1.3785 1.3768 1.3188 1.3256 1.3683 1.2584 1.1977
1996.492 1.2838 1.4321 1.4227 1.3036 1.2982 1.3463 1.3251 1.2911 1.3126 1.3493
2015.782 1.3174 1.3022 1.389 1.3482 1.279 1.2918 1.3034 1.2655 1.2759 1.3788
2035.072 1.3736 1.3423 1.3434 1.3393 1.3162 1.3301 1.3373 1.3784 1.39 1.3876
2054.362 1.3839 1.3165 1.3101 1.3138 1.2577 1.288 1.3728 1.3244 1.3143 1.3458
2073.651 1.3045 1.266 1.2811 1.2961 1.242 1.2886 1.3303 1.2492 1.2153 1.2235
2092.941 1.232 1.2957 1.3802 1.3266 1.2458 1.2045 1.2079 1.2541 1.3243 1.3091
2112.231 1.2437 1.2585 1.3271 1.3852 1.4293 1.4863 1.4505 1.4165 1.4366 1.4394
2131.521 1.4531 1.4316 1.3884 1.3834 1.3522 1.3392 1.3625 1.4514 1.5016 1.4483
2150.810 1.3542 1.2893 1.3496 1.4077 1.439 1.389 1.3236 1.3707 1.4395 1.4888
2170.100 1.4035 1.3655 1.3882 1.4073 1.5025 1.477 1.4368 1.4393 1.4595 1.4216
2189.390 1.3274 1.3889 1.4345 1.4123 1.4203 1.4703 1.5856 1.6065 1.5166 1.58
2208.680 1.6362 1.5267 1.4683 1.4077 1.3804 1.4843 1.5097 1.4978 1.5722 1.5795
2227.970 1.5581 1.5416 1.5127 1.4823 1.4598 1.5042 1.5133 1.4707 1.4952 1.5394
2247.259 1.5692 1.5863 1.5737 1.5474 1.5673 1.5738 1.5497 1.5274 1.4939 1.547
2266.549 1.605 1.5888 1.5428 1.5824 1.6662 1.6338 1.5717 1.6431 1.6239 1.651
2285.839 1.7455 1.6753 1.6051 1.5762 1.5677 1.5397 1.5786 1.6548 1.6372 1.5963
2305.129 1.5313 1.4737 1.4116 1.434 1.5739 1.6021 1.5206 1.4618 1.4172 1.3876
2324.418 1.4516 1.4321 1.4182 1.4287 1.3682 1.3497 1.3524 1.3228 1.3243 1.2972
2343.708 1.2748 1.3062 1.3329 1.2904 1.2464 1.256 1.3139 1.3344 1.2151 1.1671
2362.998 1.328 1.415 1.3004 1.2396 1.1939 1.1631 1.1936 1.2634 1.2902 1.2358
2382.288 1.1666 1.1489 1.1711 1.1727 1.2663 1.28 1.2141 1.2255 1.2247 1.2854
2401.578 1.3131 1.2632 1.242 1.2319 1.1892 1.2075 1.2403 1.1668 1.09091 1.1932
2420.867 1.2132 1.174 1.2099 1.3164 1.4006 1.3766 1.4171 1.4602 1.4055 1.4073
2440.157 1.4092 1.2959 1.251 1.3032 1.3824 1.3621 1.3006 1.2852 1.2359 1.2351
2459.447 1.2968 1.3381 1.3795 1.3924 1.2885 1.2178 1.3486 1.4076 1.379 1.4494
2478.737 1.517 1.4296 1.3938 1.4634 1.4829 1.5003 1.496 1.412 1.4342 1.5375
2498.026 1.5863 1.4639 1.4229 1.5208 1.4638 1.4578 1.4541 1.4232 1.516 1.5172
2517.316 1.3829 1.3193 1.2838 1.2657 1.361 1.4329 1.4546 1.548 1.5353 1.4246
2536.606 1.4604 1.4891 1.489 1.5462 1.5755 1.5093 1.4354 1.3953 1.4227 1.4539
2555.896 1.4071 1.4683 1.528 1.5362 1.5067 1.435 1.3922 1.434 1.4992 1.53
2575.186 1.6153 1.6056 1.474 1.5168 1.4745 1.4546 1.5425 1.6144 1.6398 1.5336
2594.475 1.3846 1.3692 1.4964 1.5415 1.5538 1.4954 1.5077 1.5954 1.5839 1.5547
2613.765 1.576 1.6478 1.6363 1.508 1.5496 1.642 1.595 1.5079 1.4833 1.554
2633.055 1.5263 1.4403 1.4724 1.4986 1.5052 1.5767 1.7578 1.8081 1.6829 1.6031
2652.345 1.6991 1.7891 1.7439 1.6191 1.4837 1.5534 1.5687 1.5706 1.5511 1.4443
2671.634 1.5057 1.5057 1.3686 1.2824 1.3512 1.503 1.463 1.3693 1.3835 1.3268
2690.924 1.2059 1.11739 1.1839 1.3235 1.3093 1.1813 1.228 1.1979 1.03983 1.05899
2710.214 1.1526 1.1621 1.11966 1.2124 1.4226 1.3231 1.1624 1.21 1.237 1.3573
2729.504 1.4627 1.3881 1.3556 1.3704 1.2989 1.3939 1.462 1.4213 1.5499 1.6573
2748.794 1.5873 1.5918 1.5637 1.4246 1.5583 1.604 1.5467 1.6135 1.447 1.3686
2768.083 1.4674 1.4883 1.4069 1.3727 1.3485 1.262 1.1981 1.211 1.247 1.3177
2787.373 1.3891 1.3348 1.2453 1.3016 1.4954 1.492 1.5121 1.5554 1.5226 1.531
2806.663 1.4966 1.472 1.4854 1.5246 1.4463 1.3703 1.4396 1.4483 1.4172 1.4209
2825.953 1.3477 1.4318 1.5273 1.529 1.6169 1.5199 1.2934 1.2178 1.2855 1.3392
2845.242 1.2429 1.169 1.2547 1.291 1.2247 1.12556 1.1538 1.2771 1.3109 1.2812
2864.532 1.3072 1.3602 1.3391 1.3311 1.2454 1.1792 1.2886 1.3648 1.2813 1.2551
2883.822 1.2941 1.1926 1.2435 1.346 1.3231 1.4732 1.4617 1.2022 1.2694 1.4472
2903.112 1.4115 1.2886 1.23 1.2225 1.2952 1.2216 1.11499 1.3361 1.2889 1.2887
2922.401 1.2838 1.2619 1.2763 1.2725 1.5053 1.5155 1.2977 1.2355 1.3098 1.2154
2941.691 1.3202 1.5515 1.5675 1.4447 1.3432 1.4025 1.3291 1.2405 1.3132 1.3071
2960.981 1.3371 1.3834 1.326 1.3786 1.4041 1.4332 1.4891 1.4429 1.5191 1.4703
2980.271 1.2707 1.2314 1.2882 1.2797 1.2571 1.3393 1.3837 1.3743 1.3537 1.341
2999.561 1.4698 1.4575 1.4871 1.4615 1.3688 1.4445 1.6068 1.6746 1.5775 1.6751
3018.850 1.8568 1.8403 1.8121 1.9849 2.1 2.06 2.34 2.53 2.56 2.7
3038.140 2.91 3.08 3.01 3.18 3.41 3.5 3.47 3.53 3.83 3.96
3057.430 3.95 4 3.87 3.67 3.52 3.6 3.68 3.44 3.32 3.16
3076.720 2.89 2.77 2.58 2.36 2.11 1.9707 1.9156 1.6716 1.5022 1.5004
3096.009 1.6722 1.7619 1.7366 1.7653 1.6596 1.7115 1.9135 1.9246 1.8382 1.7507
3115.299 1.809 1.8669 1.695 1.6296 1.7593 1.7743 1.5844 1.4787 1.3906 1.4108
3134.589 1.383 1.3031 1.4658 1.3471 1.2751 1.4053 1.2947 1.3255 1.2812 1.3068
3153.879 1.5678 1.4587 1.2888 1.2178 1.1728 1.2403 1.3918 1.5851 1.6574 1.5986
3173.169 1.5574 1.7336 1.8787 1.58 1.3878 1.5092 1.631 1.6394 1.4411 1.3077
3192.458 1.4109 1.5379 1.3099 1.3308 1.5879 1.5136 1.4274 1.3399 1.1927 1.1433
3211.748 1.2799 1.4008 1.5193 1.6224 1.3938 1.2499 1.3654 1.3918 1.2955 1.189
3231.038 1.2779 1.442 1.3733 1.3456 1.5079 1.3857 1.2853 1.3498 1.2482 1.206
3250.328 1.4141 1.4627 1.4476 1.3953 1.3813 1.3999 1.263 1.2472 1.1786 1.1518
3269.617 1.2828 1.3045 1.1382 1.12564 1.2918 1.2593 1.333 1.5736 1.4476 1.24
3288.907 1.3166 1.4311 1.4529 1.274 1.12341 1.1801 1.3067 1.4069 1.4684 1.3138
3308.197 1.2156 1.4021 1.3134 1.1655 1.1751 1.04828 1.10023 1.3108 1.3788 1.3489
3327.487 1.2464 1.296 1.4133 1.3164 1.2341 1.2083 1.3543 1.4624 1.3736 1.3415
3346.777 1.2631 1.1973 1.3152 1.4238 1.3171 1.3672 1.5319 1.5943 1.5555 1.4302
3366.066 1.4844 1.4969 1.3964 1.5701 1.7629 1.6872 1.7789 1.8299 1.8484 1.9531
3385.356 2.0075 2.0296 2.12 2.35 2.37 2.54 2.79 3.07 3.22 3.4
3404.646 3.87 4.26 4.47 4.82 5.4 5.9 6.3 6.73 6.88 6.83
3423.936 6.98 7.36 7.84 8.05 8.18 8.31 8.44 8.65 8.49 8.07
3443.225 7.84 7.71 7.6 7.48 7.18 6.82 6.39 5.88 5.27 4.72
3462.515 4.39 4.07 3.92 3.82 3.85 3.89 4.04 4.42 4.83 5.11
3481.805 5.51 6.27 6.83 7.52 8.41 9.65 11.2 12.84 14.8 16.68
3501.095 18.59 20.74 22.19 22.49 22.3 21.97 21.48 20.8 19.8 18.86
3520.385 17.45 15.05 12.36 9.82 7.71 6.31 5.47 4.9 4.61 4.3
3539.674 4.01 3.73 3.75 3.74 3.66 3.75 3.81 4 4.07 3.98
3558.964 4.01 4 3.93 3.84 3.78 3.73 3.41 3.14 2.88 2.58
3578.254 2.44 2.32 2.22 2.15 1.8019 1.4241 1.4725 1.4314 1.2825 1.2311
3597.544 1.1395 1.10974 1.09965 1.02522 0.905 0.9852 1.2116 1.1559 0.9883 0.9514
3616.833 0.9619 1.11504 1.1697 1.06865 1.02302 1.0157 0.9889 0.9833 1.11409 1.08098
3636.123 0.9406 1.1318 1.2142 1.12668 1.10307 0.9606 0.917 0.918 0.9356 1.02622
3655.413 1.09721 1.08407 1.06726 1.2009 1.2008 0.9768 0.88 0.927 0.88 0.9428
3674.703 0.9914 0.844 0.846 1.0094 0.9354 0.9442 0.9752 0.919 0.9941 1.1674
3693.993 1.3772 1.08126 0.834 0.964 1.02839 0.898 0.735 0.904 1.05766 0.916
3713.282 0.9761 1.05006 0.937 1.03098 1.06207 1.02361 1.05153 0.93 0.878 1.0103
3732.572 1.062 1.05551 1.05483 1.0521 1.0041 1.03822 1.07048 1.09219 1.03106 0.82
3751.862 0.803 0.889 0.9795 0.984 0.9609 1.0043 1.12669 1.1787 1.05443 0.9975
3771.152 0.924 0.844 0.9725 1.06239 1.2553 1.3116 1.1506 1.04277 0.9848 1.12361
3790.441 1.185 1.1508 1.02091 0.777 0.753 0.9607 1.018 0.927 0.864 0.91
3809.731 0.913 0.75 0.761 0.923 0.9778 1.08285 1.2035 1.10225 1.06553 1.149
3829.021 1.07391 0.9914 0.9738 0.805 0.87 1.02643 1.05061 1.1369 1.2077 1.1627
3848.311 1.07695 1.0014 0.9379 0.898 0.913 0.943 0.788 0.808 0.9975 0.898
3867.601 0.9345 1.07444 1.02897 1.11658 1.1322 1.03518 1.05042 1.05244 0.874 0.792
3886.890 0.807 0.881 1.05715 0.9702 0.702 0.75 0.883 0.9666 1.1007 1.11457
3906.180 1.05341 1.07874 1.179 1.0052 0.898 0.9672 1.0766 1.2846 1.3112 1.2074
3925.470 1.11303 1.0145 0.9611 1.03597 1.09323 1.03542 1.235 1.2502 1.0062 1.1525
3944.760 1.1105 0.865 0.806 0.924 1.10557 1.1791 1.2006 1.3159 1.304 1.05171
3964.049 0.918 1.1698 1.4301 1.2829 1.2466 1.3167 1.2443 1.11836 0.9531 1.0024
3983.339 1.1019 1.06254 1.0056 1.0104 1.03575 1.07639 1.0162 1.03344 1.1534 1.03577
##END=
