##TITLE=3,4-Diethoxybenzaldehyde
##JCAMP-DX=4.24
##DATA TYPE=INFRARED SPECTRUM
##ORIGIN=EPA-IR VAPOR PHASE LIBRARY
##OWNER=SRD/NIST
Collection (C) 2018 copyright by the U.S. Secretary of Commerce
on behalf of the United States of America. All rights reserved.
##CAS REGISTRY NO=2029-94-9
##MOLFORM=C 11 H 14 O 3
##$NIST SOURCE=MSDC-IR
##STATE=gas
##XUNITS=1/CM
##YUNITS=ABSORBANCE
##XFACTOR=1.
##YFACTOR=0.001
##DELTAX=3.85796
##FIRSTX=501.5
##LASTX=4000.7
##FIRSTY=0.5203
##MAXX=4000.7
##MINX=501.534
##MAXY=0.146656
##MINY=0
##NPOINTS=908
##XYDATA=(X++(Y..Y))
501.534 0.5203 0.6385 0.8993 0.8133 0.9434 1.0634 1.0795 1.276 1.456 1.576
540.114 1.526 1.516 1.566 1.506 1.536 1.626 1.786 1.926 2.106 2.486
578.693 2.906 3.206 3.436 3.576 3.436 3.106 2.916 2.986 3.286 3.746
617.273 4.416 5.276 6.126 6.776 7.016 6.736 6.066 5.326 4.676 3.996
655.852 3.166 2.296 1.616 1.166 0.9568 0.8904 0.8522 0.821 0.7709 0.8075
694.432 0.9424 1.0825 1.316 1.756 2.436 3.456 4.806 6.296 7.636 8.636
733.011 9.336 9.766 9.886 9.546 8.856 8.206 7.896 8.006 8.386 8.956
771.591 9.506 9.886 10.026 9.926 9.836 9.886 10.346 11.036 11.326 11.186
810.170 10.686 9.866 8.956 8.216 7.686 7.226 6.626 5.876 5.186 4.796
848.750 4.736 5.086 5.806 6.746 7.806 8.736 9.316 9.526 9.466 9.436
887.330 9.636 9.866 9.916 9.726 9.186 8.286 7.246 6.286 5.516 4.976
925.909 4.536 4.126 3.936 3.836 3.836 4.016 4.316 4.716 5.076 5.376
964.489 5.616 5.836 5.966 6.016 6.016 6.066 6.246 6.606 7.156 7.756
1003.068 8.656 10.246 12.646 16.156 21.026 27.076 33.856 40.896 46.516 48.686
1041.648 46.576 41.106 33.996 26.906 20.946 16.676 13.946 12.416 11.966 12.286
1080.227 13.326 14.966 16.716 18.356 20.306 23.126 27.386 33.316 40.396 47.566
1118.807 53.536 56.906 56.656 53.016 47.086 40.636 35.426 32.466 31.276 30.316
1157.387 28.546 25.626 22.136 18.786 16.206 14.366 12.986 12.206 12.166 12.996
1195.966 14.596 16.966 20.046 23.516 26.996 30.146 32.776 34.846 36.536 38.076
1234.546 39.856 42.636 47.816 57.476 73.306 94.916 118.666 138.066 146.656 141.736
1273.125 125.986 105.476 85.606 69.356 57.376 49.136 43.486 39.136 35.186 31.256
1311.705 27.396 23.766 20.536 17.816 15.566 13.746 12.236 10.986 10.086 9.636
1350.284 9.796 10.636 11.936 13.376 14.936 17.046 20.206 24.786 30.096 34.186
1388.864 35.646 34.026 29.996 25.086 20.576 17.356 16.246 17.676 21.506 26.606
1427.443 30.696 31.566 28.506 22.866 17.486 14.106 12.456 11.806 11.856 12.556
1466.023 14.216 17.086 20.936 24.396 26.626 28.446 31.916 38.956 48.546 56.546
1504.603 58.726 53.666 43.546 32.396 23.356 17.296 13.636 11.376 9.926 9.006
1543.182 8.486 8.346 8.686 9.606 11.316 14.066 17.976 22.986 28.256 33.106
1581.762 37.216 41.086 44.806 47.016 45.806 40.316 31.676 22.596 15.516 10.976
1620.341 8.296 6.696 5.676 5.016 4.586 4.326 4.146 4.056 4.046 4.096
1658.921 4.266 4.656 5.306 6.106 6.896 7.696 8.716 10.476 13.606 19.336
1697.500 30.066 49.856 79.726 110.406 125.906 117.196 87.756 54.826 32.656 21.196
1736.080 14.816 10.966 8.416 6.706 5.466 4.586 3.946 3.456 3.086 2.826
1774.659 2.626 2.466 2.356 2.266 2.196 2.136 2.056 1.986 1.926 1.866
1813.239 1.826 1.796 1.756 1.736 1.716 1.706 1.676 1.636 1.606 1.606
1851.819 1.606 1.636 1.676 1.726 1.766 1.796 1.826 1.836 1.866 1.876
1890.398 1.906 1.926 1.926 1.936 1.906 1.846 1.806 1.766 1.716 1.676
1928.978 1.636 1.576 1.526 1.476 1.396 1.346 1.316 1.266 1.246 1.226
1967.557 1.216 1.236 1.266 1.296 1.326 1.336 1.346 1.336 1.326 1.326
2006.137 1.326 1.336 1.326 1.316 1.316 1.316 1.326 1.336 1.336 1.356
2044.716 1.356 1.326 1.306 1.276 1.236 1.176 1.106 1.0509 0.9894 0.9323
2083.296 0.8852 0.8532 0.8393 0.7978 0.7644 0.7714 0.7668 0.7657 0.7623 0.7683
2121.875 0.795 0.8088 0.7901 0.7748 0.7763 0.7803 0.7671 0.753 0.743 0.7317
2160.455 0.7199 0.6713 0.6385 0.6102 0.5624 0.5332 0.496 0.4486 0.4603 0.4868
2199.035 0.4868 0.4906 0.5032 0.5229 0.5354 0.5715 0.6117 0.6242 0.6353 0.6677
2237.614 0.7097 0.7353 0.7379 0.7685 0.7894 0.8015 0.8249 0.8252 0.8265 0.8157
2276.194 0.8141 0.8166 0.7977 0.7652 0.745 0.7201 0.6853 0.6521 0.6282 0.6135
2314.773 0.6102 0.5969 0.5666 0.5433 0.5019 0.4871 0.5003 0.5002 0.4918 0.4806
2353.353 0.4884 0.4817 0.4672 0.4914 0.5061 0.5105 0.5253 0.5367 0.5359 0.5601
2391.932 0.595 0.6051 0.6323 0.6691 0.7222 0.7756 0.7964 0.8204 0.8305 0.8313
2430.512 0.8025 0.7704 0.7751 0.7685 0.7533 0.7383 0.7519 0.767 0.7679 0.787
2469.092 0.7966 0.7906 0.7902 0.8018 0.808 0.807 0.8055 0.8348 0.8819 0.9156
2507.671 0.9426 0.982 1.0409 1.099 1.176 1.256 1.316 1.386 1.446 1.536
2546.251 1.596 1.656 1.726 1.786 1.846 1.916 1.986 2.026 2.076 2.096
2584.830 2.106 2.096 2.056 2.036 1.986 1.926 1.856 1.776 1.706 1.656
2623.410 1.626 1.606 1.636 1.676 1.706 1.746 1.836 1.916 1.946 1.976
2661.989 2.006 2.046 2.116 2.236 2.436 2.766 3.256 4.006 5.166 6.906
2700.569 9.286 12.116 14.946 17.306 18.796 19.046 18.086 16.136 13.586 11.156
2739.148 9.286 8.026 7.246 6.766 6.536 6.566 6.796 7.186 7.696 8.276
2777.728 8.796 9.216 9.626 10.316 11.586 13.456 15.496 17.096 17.746 17.416
2816.308 16.256 14.466 12.346 10.196 8.326 6.966 6.156 5.796 5.766 5.916
2854.887 6.176 6.626 7.266 8.126 9.296 10.786 12.516 14.196 15.616 16.496
2893.467 16.776 16.736 16.596 16.546 16.626 16.756 16.946 17.346 18.006 19.036
2932.046 20.616 22.456 23.796 23.946 22.616 20.336 18.236 17.116 17.296 18.636
2970.626 21.026 24.596 29.046 33.396 35.986 35.736 32.316 26.306 20.156 15.426
3009.205 12.146 10.026 8.576 7.526 6.826 6.396 6.196 6.116 6.006 5.866
3047.785 5.616 5.356 5.216 5.126 5.096 5.056 4.926 4.646 4.246 3.846
3086.364 3.426 3.036 2.716 2.466 2.246 2.046 1.856 1.616 1.406 1.266
3124.944 1.106 0.9952 0.9759 0.9324 0.8665 0.8262 0.7762 0.7617 0.7529 0.7418
3163.524 0.7554 0.7741 0.7681 0.7579 0.7619 0.7277 0.6791 0.6799 0.6624 0.6261
3202.103 0.5858 0.5 0.4741 0.4694 0.3843 0.3429 0.3373 0.2933 0.2602 0.2514
3240.683 0.2406 0.19293 0.14113 0.14041 0.16485 0.17351 0.13915 0.1193 0.1462 0.1293
3279.262 0.14811 0.1887 0.16675 0.17337 0.19896 0.2373 0.2195 0.16746 0.15509 0.14307
3317.842 0.14793 0.1244 0.12035 0.109702 0.075 0.0767 0.0618 0.112339 0.17512 0.16134
3356.421 0.20269 0.2281 0.2248 0.2455 0.259 0.2918 0.3341 0.4583 0.6601 0.7954
3395.001 1.0491 1.396 1.656 1.816 1.776 1.586 1.326 1.0732 0.8362 0.6159
3433.580 0.4948 0.4408 0.3505 0.2862 0.244 0.16277 0.13129 0.108769 0.10369 0.0773
3472.160 0.038 0.0598 0.0518 0.0627 0.0781 0.0453 0.0176 0.008 0.0678 0.113572
3510.740 0.0827 0.0649 0.0631 0.0596 0.0294 0.0299 0.0443 0.0153 0.0184 0.0307
3549.319 0.084 0.09793 0.076 0.0821 0.0305 0.0062 0.0691 0.0864 0.0678 0.066
3587.899 0.0468 0.0553 0.0743 0.0611 0.015 0 0.0257 0.0448 0.025 0.0169
3626.478 0.003 0.022 0.0713 0.054 0.0439 0.0276 0.0077 0.0064 0.0102 0.0696
3665.058 0.114037 0.0878 0.0894 0.115782 0.112603 0.0897 0.0761 0.0805 0.12781 0.20333
3703.637 0.16476 0.0506 0.0359 0.0941 0.16888 0.2215 0.18584 0.14151 0.15425 0.1387
3742.217 0.14761 0.2263 0.221 0.18289 0.207 0.17545 0.14241 0.16872 0.15658 0.14916
3780.797 0.14727 0.17182 0.2142 0.19522 0.2101 0.171 0.12749 0.14123 0.13978 0.18014
3819.376 0.16851 0.13337 0.18369 0.2339 0.18666 0.17548 0.2345 0.2552 0.2401 0.2073
3857.956 0.14031 0.114715 0.14074 0.14685 0.17692 0.16772 0.14186 0.13912 0.14736 0.17254
3896.535 0.14269 0.09803 0.1379 0.1582 0.09 0.10207 0.15972 0.16511 0.16994 0.16469
3935.115 0.14477 0.17922 0.2196 0.243 0.2382 0.18744 0.16773 0.2121 0.2586 0.2342
3973.694 0.2322 0.2813 0.3278 0.2918 0.2423 0.2768 0.3049 0.3123
##END=
