##TITLE=4H-Cyclopenta(def)phenanthrene
##JCAMP-DX=4.24
##DATA TYPE=INFRARED SPECTRUM
##ORIGIN=NIST Mass Spectrometry Data Center
##OWNER=NIST Standard Reference Data Program
Collection (C) 2018 copyright by the U.S. Secretary of Commerce
on behalf of the United States of America. All rights reserved.
##CAS REGISTRY NO=203-64-5
##MOLFORM=C 15 H 10
##$NIST SOURCE=MSDC-IR
##SPECTROMETER/DATA SYSTEM=HP-GC/MS/IRD
##STATE=gas
##XUNITS=1/CM
##YUNITS=ABSORBANCE
##XFACTOR=1.0
##YFACTOR=0.000004300
##DELTAX=4.0
##FIRSTX=550.0
##LASTX=3846.0
##FIRSTY=0.000176
##MAXX=3846
##MINX=550
##MAXY=0.043
##MINY=0
##NPOINTS=825
##XYDATA=(X++(Y..Y))
550.0 41 11 6 2 7 33 61 115 198 247
590.0 256 245 155 84 59 55 60 55 42 39
630.0 45 58 75 104 145 175 181 176 154 151
670.0 181 225 321 509 856 1190 1934 2195 1504 1064
710.0 691 406 371 488 822 1527 2673 3929 5685 6143
750.0 4408 3021 1982 1289 1163 1172 1124 922 648 573
790.0 732 1204 2162 3581 4931 7397 7913 5393 3743 2215
830.0 1063 561 334 247 211 236 251 250 257 305
870.0 383 508 622 536 391 290 186 120 86 68
910.0 60 58 72 83 94 125 158 178 179 186
950.0 212 231 266 273 237 213 185 159 137 120
990.0 114 122 135 167 258 376 454 485 430 313
1030.0 228 205 269 370 458 530 522 427 335 230
1070.0 120 74 67 62 48 31 31 37 36 33
1110.0 36 40 44 55 71 86 89 89 84 79
1150.0 96 116 110 107 80 49 50 60 70 87
1190.0 97 128 190 253 316 370 353 299 241 153
1230.0 87 58 50 45 34 30 29 24 23 13
1270.0 5 12 20 30 44 78 133 192 245 281
1310.0 284 245 196 149 108 105 139 187 220 234
1350.0 219 171 126 100 96 109 138 181 240 322
1390.0 422 527 633 729 841 1083 1430 1706 1798 1643
1430.0 1325 1110 1043 1016 991 816 576 389 252 167
1470.0 129 139 190 249 280 297 311 354 450 532
1510.0 540 472 338 198 120 87 71 74 84 99
1550.0 122 143 153 153 152 167 213 282 331 335
1590.0 305 252 196 162 143 135 147 171 194 210
1630.0 212 210 237 299 368 415 409 364 304 236
1670.0 185 172 179 190 213 244 283 327 332 299
1710.0 239 172 134 127 120 108 103 112 135 178
1750.0 258 372 500 599 625 546 404 255 153 104
1790.0 89 84 79 82 86 101 142 204 274 339
1830.0 387 395 370 337 297 243 190 145 102 73
1870.0 62 64 78 110 155 219 297 375 462 549
1910.0 623 677 657 555 406 239 124 71 50 39
1950.0 34 26 21 17 12 11 12 14 14 17
1990.0 22 18 16 17 13 16 22 17 14 13
2030.0 14 15 13 10 9 7 2 0 2 5
2070.0 6 9 11 11 12 11 8 5 4 1
2110.0 0 1 4 4 4 7 11 19 26 28
2150.0 30 28 21 18 17 16 19 21 17 14
2190.0 9 4 1 3 7 13 16 22 29 33
2230.0 37 39 37 34 33 29 31 39 47 48
2270.0 47 45 41 40 40 42 47 44 37 35
2310.0 41 55 64 65 61 51 43 34 27 27
2350.0 30 34 32 32 33 33 29 29 29 29
2390.0 33 35 35 32 27 21 16 13 11 14
2430.0 20 24 27 25 26 27 29 36 43 50
2470.0 58 58 55 48 43 41 41 43 44 42
2510.0 36 29 28 25 23 21 20 23 21 19
2550.0 20 19 26 26 27 35 42 47 47 47
2590.0 48 44 39 37 34 32 28 29 25 23
2630.0 33 40 40 40 46 44 44 43 33 33
2670.0 38 42 44 45 43 39 39 34 27 24
2710.0 20 22 25 24 21 23 27 25 29 32
2750.0 33 33 34 39 42 42 49 59 69 93
2790.0 117 144 182 214 226 219 201 174 149 131
2830.0 116 105 109 105 89 86 86 79 75 78
2870.0 89 98 112 128 153 184 239 354 581 970
2910.0 1540 1861 1920 1912 1527 1188 1152 911 619 470
2950.0 325 240 208 199 197 197 195 202 218 234
2990.0 265 315 381 455 562 717 892 1060 1236 1490
3030.0 1948 2760 4011 5538 7204 8938 10000 9740 8320 6117
3070.0 3941 2599 2010 1690 1408 1098 795 557 401 306
3110.0 241 200 178 181 192 183 168 154 137 120
3150.0 100 89 90 85 79 85 91 114 127 117
3190.0 105 87 66 47 41 47 44 47 47 41
3230.0 37 38 42 40 36 34 34 32 34 26
3270.0 17 24 31 26 22 14 14 21 20 19
3310.0 21 24 18 11 12 20 32 29 20 21
3350.0 22 26 26 28 31 25 25 23 21 30
3390.0 36 46 51 41 44 38 20 15 19 15
3430.0 12 7 2 8 12 12 7 17 19 13
3470.0 16 19 20 17 23 31 29 18 17 21
3510.0 27 32 24 22 33 42 34 32 40 38
3550.0 25 18 21 19 18 16 22 30 20 10
3590.0 14 16 18 20 18 27 36 22 13 16
3630.0 27 26 17 19 13 5 15 27 32 32
3670.0 20 14 15 15 16 19 30 35 30 29
3710.0 30 37 44 41 38 41 47 49 53 53
3750.0 46 44 50 44 38 46 36 33 44 53
3790.0 49 51 63 53 41 43 63 74 73 82
3830.0 87 82 77 80 89
##END=
