##TITLE=trans-1,1,3,4-Tetramethylcyclopentane
##JCAMP-DX=4.24
##DATA TYPE=INFRARED SPECTRUM
##ORIGIN=NIST Mass Spectrometry Data Center
##OWNER=NIST Standard Reference Data Program
Collection (C) 2018 copyright by the U.S. Secretary of Commerce
on behalf of the United States of America. All rights reserved.
##CAS REGISTRY NO=20309-77-7
##MOLFORM=C 9 H 18
##$NIST SOURCE=MSDC-IR
##SPECTROMETER/DATA SYSTEM=HP-GC/MS/IRD
##STATE=gas
##XUNITS=1/CM
##YUNITS=ABSORBANCE
##XFACTOR=1.0
##YFACTOR=0.000003600
##DELTAX=4.0
##FIRSTX=550.0
##LASTX=3846.0
##FIRSTY=0.000346
##MAXX=3846
##MINX=550
##MAXY=0.036
##MINY=0
##NPOINTS=825
##XYDATA=(X++(Y..Y))
550.0 96 69 101 122 105 100 73 64 108 92
590.0 62 63 71 80 68 57 50 52 27 22
630.0 40 27 42 71 50 26 25 27 32 34
670.0 40 39 26 26 29 20 20 34 29 11
710.0 4 6 19 30 25 26 24 19 18 23
750.0 14 17 30 25 18 26 32 34 42 23
790.0 16 30 26 11 7 12 8 0 47 49
830.0 16 26 36 28 22 29 21 23 27 25
870.0 29 36 45 44 42 37 31 32 34 42
910.0 39 33 33 36 44 35 20 23 32 40
950.0 45 57 73 73 66 78 80 71 71 66
990.0 56 52 54 57 52 41 33 42 42 40
1030.0 57 72 79 93 98 97 107 106 96 96
1070.0 82 66 60 51 39 38 43 40 44 52
1110.0 53 46 35 28 36 41 42 45 50 57
1150.0 54 59 73 79 81 85 87 101 127 154
1190.0 176 191 190 179 169 162 151 140 123 118
1230.0 116 106 105 99 97 103 105 113 122 123
1270.0 128 143 159 184 219 258 285 283 279 259
1310.0 223 192 159 140 133 129 143 159 191 247
1350.0 318 415 519 620 763 849 843 836 774 667
1390.0 535 400 279 192 158 147 145 154 172 208
1430.0 264 345 466 601 732 864 982 1045 1046 1003
1470.0 887 736 588 450 335 244 181 144 118 97
1510.0 81 70 57 48 44 42 43 42 35 30
1550.0 34 33 33 37 37 35 36 33 37 41
1590.0 40 44 48 48 42 41 42 42 45 45
1630.0 40 38 42 39 37 39 39 35 38 41
1670.0 41 43 42 36 34 38 41 37 33 28
1710.0 24 23 26 24 24 24 21 20 18 19
1750.0 19 17 17 14 12 13 10 17 17 13
1790.0 13 13 13 16 24 21 13 13 16 14
1830.0 12 11 15 19 20 18 18 19 18 15
1870.0 11 13 10 10 16 15 13 14 18 19
1910.0 16 13 8 11 13 8 10 11 10 11
1950.0 12 8 4 8 10 9 13 14 14 14
1990.0 9 9 11 8 12 15 10 11 11 13
2030.0 13 12 12 11 8 7 10 11 10 13
2070.0 12 7 0 3 12 14 15 11 10 10
2110.0 13 13 12 12 9 9 8 8 10 8
2150.0 10 9 5 9 9 10 10 8 5 6
2190.0 13 16 15 8 0 0 3 4 6 5
2230.0 0 3 6 6 7 6 2 5 7 8
2270.0 6 5 9 9 6 6 7 5 3 2
2310.0 3 0 0 2 3 0 0 10 14 7
2350.0 9 14 13 5 1 5 11 13 8 5
2390.0 10 16 15 9 11 12 12 16 14 13
2430.0 13 18 20 20 15 12 11 9 8 7
2470.0 9 14 14 11 10 4 0 1 5 9
2510.0 12 10 6 4 6 7 12 19 21 23
2550.0 23 20 32 40 38 36 33 30 25 26
2590.0 29 29 27 27 27 23 32 39 37 39
2630.0 43 54 56 47 48 45 37 42 44 39
2670.0 34 36 41 39 41 52 62 62 61 67
2710.0 80 92 107 125 139 147 148 149 138 121
2750.0 108 101 98 95 96 105 104 103 109 111
2790.0 121 131 157 193 220 250 288 334 390 446
2830.0 513 600 709 874 1103 1409 1794 2233 2739 3270
2870.0 3716 3998 4041 3912 3716 3464 3253 3177 3235 3440
2910.0 3779 4234 4828 5461 6004 6431 6680 6724 6885 7474
2950.0 8425 9439 10000 9556 8186 6329 4317 2635 1583 1004
2990.0 701 534 418 336 283 244 217 199 184 165
3030.0 142 131 134 125 116 119 112 113 128 134
3070.0 124 118 121 126 116 108 113 104 93 99
3110.0 99 85 83 90 89 79 84 97 96 92
3150.0 98 105 105 106 103 103 111 110 113 111
3190.0 104 102 94 82 80 64 50 49 43 28
3230.0 30 35 30 23 30 38 22 19 30 29
3270.0 9 10 28 34 34 28 22 20 16 13
3310.0 16 17 4 3 0 5 11 6 5 1
3350.0 14 17 7 13 16 20 18 11 9 13
3390.0 17 23 22 20 20 15 10 9 17 18
3430.0 14 13 18 18 17 27 39 36 25 21
3470.0 18 14 16 21 24 21 23 28 23 21
3510.0 27 22 15 18 9 7 19 20 14 18
3550.0 20 21 16 11 16 9 10 15 17 15
3590.0 5 5 9 14 16 19 28 28 22 23
3630.0 32 30 29 27 23 26 20 24 35 29
3670.0 15 23 26 20 22 19 24 18 16 32
3710.0 31 30 38 37 37 46 48 33 26 23
3750.0 29 37 33 18 18 31 36 38 43 40
3790.0 39 36 36 37 35 42 49 55 60 48
3830.0 37 34 31 34 44
##END=
