##TITLE=5-Methylbenzofurazan
##JCAMP-DX=4.24
##DATA TYPE=INFRARED SPECTRUM
##ORIGIN=EPA-IR VAPOR PHASE LIBRARY
##OWNER=SRD/NIST
Collection (C) 2018 copyright by the U.S. Secretary of Commerce
on behalf of the United States of America. All rights reserved.
##CAS REGISTRY NO=20304-86-3
##MOLFORM=C 7 H 6 N 2 O
##SOURCE REFERENCE=No.144394 (NIST/EPA/NIH MS Database)
##$NIST SOURCE=MSDC-IR
##STATE=gas
##XUNITS=1/CM
##YUNITS=ABSORBANCE
##XFACTOR=1.
##YFACTOR=0.001
##DELTAX=1.92898
##FIRSTX=549.8
##LASTX=4000.7
##FIRSTY=3.058
##MAXX=4000.7
##MINX=549.759
##MAXY=0.03816
##MINY=0
##NPOINTS=1790
##XYDATA=(X++(Y..Y))
549.759 3.058 3.182 3.8867 4.6235 4.7436 4.664 5.1 5.11 5.34 5.82
569.049 5.88 5.83 5.78 6.62 8.38 9.38 9.26 8.39 6.69 6.85
588.339 8.46 8.76 8.27 7.81 7.06 5.46 5.98 6.2 5.04 5.25
607.628 5.59 5.86 5.41 4.7843 5.11 4.7756 4.1616 4.5519 4.5385 4.5485
626.918 4.8304 4.9362 4.7993 4.6244 4.9403 4.1905 3.662 3.722 3.666 3.9568
646.208 3.862 3.788 3.98494 3.842 3.27 3.412 3.681 3.744 3.631 3.568
665.498 3.8847 4.0924 4.3298 3.9098 3.98246 4.1952 3.306 3.583 4.1973 3.661
684.787 3.521 3.465 3.136 3.521 3.379 3.285 3.584 3.696 4.203 4.5229
704.077 4.97 5.08 4.3278 4.4386 4.4597 3.941 4.6276 5.21 5.12 5.41
723.367 6.18 6.52 6.69 7.39 8.18 8.91 9.13 9.57 9.32 8.13
742.657 8.61 9.1 8.28 7.68 7.39 7.13 7.94 7.94 7.76 8
761.947 8.12 8.31 8.19 8.21 8.5 10.19 11.29 11.54 13.28 15.07
781.236 16.08 17.83 19.59 20.83 22.74 26.01 32.06 38.16 36.01 29.78
800.526 27.68 27.12 26.29 25.66 24.68 22.93 20.45 18.54 16.48 13.92
819.816 11.54 9.27 8.18 7.91 7.09 6.8 7.04 7.69 8.43 9.59
839.106 9.92 9.72 9.86 9.93 10.54 11.46 12.39 13.43 14.42 13.49
858.395 11.67 11.8 12.27 12 12.07 12.65 12.42 12.02 12.99 14.74
877.685 16.88 18.84 20.88 21.32 20.7 20.65 19.77 18.41 18.78 18.78
896.975 16 12.58 9.59 6.94 5.48 5.07 5.25 5.12 4.9237 5.14
916.265 5.08 5.46 5.75 5.45 5.6 5.73 5.6 5.33 4.7782 4.6557
935.555 4.7638 4.468 4.6616 4.9284 4.9444 5.01 4.7197 4.5988 4.6042 4.2652
954.844 4.0647 3.735 3.643 3.813 4.1395 3.9497 3.795 4.6569 5.16 5.07
974.134 4.2019 4.3806 5.46 6.24 6.59 6.66 6.78 7.11 7.97 9.45
993.424 11.73 13.97 16.05 16.72 17.45 19.14 20.86 22.55 23.04 23.07
1012.714 22.74 21.33 19.58 18.58 17.26 14.49 12.95 12.39 10.68 9.29
1032.003 7.84 5.97 5.59 6.91 7.81 7.73 6.65 5.88 6.07 6.1
1051.293 6.41 6.01 5.71 5.95 5.46 4.7017 4.9118 4.5626 3.9053 3.9585
1070.583 4.1232 4.533 4.6433 4.1946 4.6635 4.04374 2.86 4.7729 5.76 5.09
1089.873 4.5393 5.29 5.44 3.619 3.98975 5.21 5.18 3.401 1.73 3.737
1109.163 5.21 3.82 2.68 5.09 5.78 5.07 5.61 4.3992 3.772 4.8999
1128.452 5.42 5.07 5.36 5.2 5.47 6.46 7.33 8.02 8.43 7.91
1147.742 7.63 8.81 8.58 8.1 8.35 7.08 5.9 5.97 5.7 5.1
1167.032 5.25 5.26 4.8596 4.5804 3.564 1.97 1.84 3.441 3.623 3.183
1186.322 3.13 3.195 3.8647 3.628 1.86 0.82 1.55 1.83 1.69 2.6
1205.611 2.05 0 0.85 2.89 4.0431 4.5539 4.2983 3.55 4.14 4.05962
1224.901 3.57 3.78 2.66 1.71 2.85 2.81 2.1 3.291 3.517 3.119
1244.191 3.016 2.977 3.603 3.9427 3.458 3.677 4.1813 3.8699 3.809 4.3997
1263.481 5.07 4.638 4.4084 5.41 5 4.04965 4.02567 5.16 5.97 5.69
1282.771 5.76 5.56 5.22 5.52 5.6 5.28 5.53 5.81 5.92 6.13
1302.060 6.59 7.02 7.69 8.53 8.83 8.77 8.89 9.18 9.33 9.41
1321.350 9.35 8.96 8.3 7.55 6.98 6.55 6.13 5.84 5.69 5.55
1340.640 5.46 5.55 5.59 5.74 5.96 6.12 6.3 6.6 6.81 7.04
1359.930 7.37 7.47 7.37 7.4 7.63 7.62 7.47 7.23 6.99 6.65
1379.219 6.44 6.47 6.3 6.22 6.44 6.27 6.02 6.41 6.81 6.85
1398.509 6.69 6.56 6.67 6.95 7.08 7.11 7.03 6.87 6.86 6.81
1417.799 6.77 6.79 6.42 6.02 6.13 6.09 6.12 6.51 6.66 6.69
1437.089 6.71 6.82 7.02 7.22 7.72 8.09 8.03 7.99 8.02 8.03
1456.378 7.81 8.05 8.42 8.35 8.25 8.29 8.47 8.34 8.19 7.99
1475.668 7.69 7.46 7.33 7.06 6.72 6.22 5.62 5.56 5.74 5.62
1494.958 5.59 5.65 5.62 5.8 6.05 6.41 6.8 7.03 7.76 8.49
1514.248 8.69 9.15 9.55 9.78 10.36 11.26 12.31 13.3 14.04 14.88
1533.538 15.46 15.62 15.51 15.12 15.05 14.56 13.79 12.88 11.41 9.89
1552.827 8.23 6.79 6.22 6.25 6.1 5.58 5.4 5.7 5.68 5.68
1572.117 5.96 5.87 5.74 5.75 5.55 5.24 5.26 5.17 5.28 5.41
1591.407 5.56 6.04 5.96 5.6 5.49 5.59 5.76 5.55 5.58 5.96
1610.697 6.11 6.35 6.62 6.81 7.01 7.55 8.01 8.43 9.33 10.08
1629.986 10.66 11.3 11.63 11.7 11.71 11.76 11.76 11.48 11.03 10.3
1649.276 9.2 8.58 8.07 7.52 7.33 7.16 6.58 6.09 6.11 6.22
1668.566 6.5 6.47 6.25 6.23 6.2 6.3 6.58 6.37 6.1 6.42
1687.856 6.52 6.55 6.86 7.15 7.38 7.38 7.31 7.59 7.62 7.3
1707.146 7.12 7.15 7.09 7.07 6.76 6.16 5.92 5.54 5.44 5.52
1726.435 5.24 5.08 5.25 5.2 5.19 4.99 4.825 4.99 5.19 5.41
1745.725 5.55 5.68 5.55 5.47 5.25 5.19 5.25 5.27 5.29 4.97
1765.015 4.7658 4.8075 4.7824 4.3839 4.2308 4.2665 4.1664 4.1909 4.1982 4.1739
1784.305 4.1926 4.1525 4.03023 4.03302 4.03977 4.087 4.1582 4.0956 4.0952 4.3311
1803.594 4.377 4.2912 4.3972 4.4598 4.4083 4.2497 4.2737 4.3941 4.2331 4.1945
1822.884 4.4074 4.3746 4.2285 4.1343 4.04887 4.0282 4.1464 4.0967 4.0915 4.1937
1842.174 3.95623 3.9191 4.1037 4.1079 4.1086 4.0841 4.126 4.2518 4.218 4.1112
1861.464 4.01039 4.1 4.2979 4.2675 4.1837 4.1674 4.0719 3.95375 3.8964 4.01463
1880.754 4.1358 4.2126 4.2711 4.3099 4.3425 4.3128 4.3237 4.4514 4.5306 4.5538
1900.043 4.4767 4.2954 4.3591 4.5505 4.5587 4.5649 4.624 4.5476 4.5051 4.6493
1919.333 4.7114 4.6081 4.478 4.3368 4.465 4.5458 4.5843 4.5471 4.4524 4.1198
1938.623 3.83 3.9865 4.1505 4.02903 3.832 3.796 3.95393 4.3429 4.2607 3.99841
1957.913 4.01549 3.98549 3.98066 3.9118 3.8674 3.9112 4.05836 3.95751 3.86 4.128
1977.202 4.0793 3.8849 3.829 3.664 3.684 4.0261 3.96335 3.8619 3.95687 4.1217
1996.492 4.3107 4.2952 4.074 3.8784 3.9057 4.0721 4.2482 4.1376 4.05279 4.01876
2015.782 4.0935 4.2365 4.0867 3.8664 3.96764 4.04551 3.823 3.757 3.779 3.859
2035.072 4.0093 4.0771 4.0957 4.0935 3.9369 4.1601 4.3686 4.1773 3.9998 4.1162
2054.362 4.3986 4.3289 4.02182 3.9227 4.0325 4.1116 4.2716 4.3039 4.1265 3.9267
2073.651 3.836 3.824 3.837 3.97785 4.094 3.769 3.751 4.1246 4.1211 4.0774
2092.941 4.0612 4.0866 4.1565 4.1755 4.2813 4.1464 4.00967 3.9492 3.8799 4.05749
2112.231 4.1435 4.1252 3.95488 3.731 3.802 3.946 4.04997 4.1828 4.1916 4.2957
2131.521 4.3044 4.2246 4.01626 3.848 3.9384 4.136 4.3466 4.215 4.00392 4.03554
2150.810 3.9414 3.691 3.8715 3.9369 3.8993 3.99445 3.872 3.9089 4.0685 4.01311
2170.100 3.9221 4.092 4.212 4.1148 4.1087 4.03791 4.1516 4.01843 3.99842 4.3673
2189.390 4.4148 4.2198 4.144 4.2044 4.1554 4.2296 4.3527 4.4411 4.3552 4.1995
2208.680 4.1496 3.9353 3.8738 4.1638 4.2823 4.1174 4.00615 4.2465 4.3154 4.089
2227.970 4.1267 4.1542 4.1384 4.3095 4.2385 4.1041 4.1403 4.1703 4.2788 4.2147
2247.259 4.01335 4.01489 4.0705 3.9261 3.9243 4.156 4.05169 4.1948 4.4103 4.193
2266.549 4.2308 4.3022 4.3153 4.3974 4.296 4.2152 4.2667 4.2075 3.8716 3.9473
2285.839 4.2446 4.1783 4.153 4.0933 4.3388 4.4817 4.4609 4.3872 4.1142 4.05571
2305.129 4.1307 4.2057 4.1432 4.3174 4.4277 4.2735 4.0714 4.2291 4.2885 4.0738
2324.418 4.0987 4.085 3.99518 4.2097 4.3062 4.3376 4.313 4.05219 4.18 3.817
2343.708 3.616 3.8654 3.8915 3.778 3.825 4.00962 4.3804 4.547 4.3321 4.1735
2362.998 4.2057 4.1133 3.664 3.7 4.0626 4.1999 4.1576 4.1455 4.2823 4.4135
2382.288 4.2871 4.404 4.6126 4.4569 4.2235 4.01813 4.1412 4.562 4.5496 4.4447
2401.578 4.3017 4.0978 4.2433 4.5118 4.6984 4.6305 4.4024 4.2595 4.3457 4.0664
2420.867 3.805 4.04175 4.1937 4.2645 3.99577 3.758 4.04512 4.2202 4.1407 4.3416
2440.157 4.5365 4.1644 3.756 4.1574 4.3629 4.0784 4.1347 4.2453 4.2066 4.1333
2459.447 4.0832 4.2944 4.4853 4.4415 4.5432 4.6677 4.7062 4.6472 4.4582 4.2461
2478.737 4.5117 4.4033 4.2331 4.6 4.748 4.4574 4.1298 4.212 4.3904 4.434
2498.026 4.4375 4.4006 4.00628 4.00553 4.3167 3.9 4.04934 4.2013 4.09 4.2015
2517.316 4.0981 4.1272 4.1135 4.1977 4.1134 4.0774 4.04865 3.943 3.9068 3.816
2536.606 4.2538 4.4958 4.1168 3.827 3.8948 4.5425 4.7339 4.1927 4.1329 4.4967
2555.896 4.4226 3.96799 3.75 4.03767 4.3704 4.3127 3.9052 4.1399 4.4726 4.3771
2575.186 4.0825 4.0672 3.779 3.477 3.701 3.671 3.9255 4.01887 4.02616 3.98352
2594.475 3.859 3.9341 4.05176 4.2307 4.2204 4.3001 4.1776 4.01938 4.3637 4.5615
2613.765 4.3531 3.817 3.56 3.858 4.3499 4.3987 3.822 3.85 4.04761 3.789
2633.055 3.8988 3.9186 4.1994 4.3119 4.0222 3.9391 3.819 3.816 3.9107 4.04318
2652.345 3.97197 3.808 3.81 4.02483 3.801 3.669 4.2193 4.136 4.1681 4.2568
2671.634 3.9555 3.818 3.8759 4.2123 4.2585 4.02698 3.9825 4.2742 4.3605 4.03858
2690.924 3.86 4.1154 4.1099 3.705 4.0615 4.5488 4.4091 4.2477 4.03183 4.1262
2710.214 4.1981 4.4365 4.4148 4.3971 4.332 4.03169 4.1015 3.769 3.8776 4.4592
2729.504 4.4497 4.1354 3.9495 3.8768 4.2256 4.015 3.825 4.1852 4.2598 4.5016
2748.794 4.6926 4.8439 4.5264 4.1811 4.3719 4.02774 3.688 3.832 3.9214 3.9436
2768.083 4.0613 4.238 4.2187 4.2236 4.6591 4.4619 3.97661 4.3206 4.6585 4.4099
2787.373 3.9261 3.99289 4.0944 3.8616 3.95512 4.3573 4.2492 4.1038 4.23 4.4595
2806.663 4.2528 3.97571 4.02321 4.1224 4.5974 4.4875 4.4568 4.6981 4.4902 4.7067
2825.953 4.8751 4.8772 4.8814 4.4154 4.6063 5.12 5.02 4.8176 4.9309 5.14
2845.242 5.43 5.9 5.79 5.33 5.34 5.51 5.54 6.27 6.57 6.21
2864.532 6.78 7.42 7.3 7.27 7.97 8.22 7.82 7.77 8.4 8.74
2883.822 8.35 8.24 7.94 7.55 7.69 7.47 7.25 7.41 7.38 6.85
2903.112 6.66 6.68 6.49 6.89 7.15 7.16 7.75 8.2 8.68 9.48
2922.401 9.62 10.43 11.79 12.94 13.4 13.34 13.42 13.59 13.86 13.62
2941.691 12.62 11.64 11.11 10.44 9.77 9.26 9.27 9.28 9.12 9.42
2960.981 9.21 8.81 8.94 8.82 8.98 9.27 8.94 8.97 9.19 9.22
2980.271 9.27 9.31 9.35 8.87 8.98 9.27 8.75 8.63 8.56 8.41
2999.561 8.22 7.67 7.4 7.13 6.76 6.64 6.6 6.68 6.47 6.14
3018.850 6.31 6.41 6.4 6.69 7.13 7.34 7.36 8.17 8.86 8.88
3038.140 9.07 9.35 9.77 9.72 9.84 10 10.05 9.98 9.92 10.03
3057.430 9.75 9.71 9.17 8.75 9.17 9.24 8.77 8.37 8.75 8.93
3076.720 8.77 8.21 7.59 7.7 7.58 7.71 7.53 7.05 7 6.7
3096.009 6.53 6.25 5.56 5.14 5.4 5.95 6.01 5.4 5.1 5.65
3115.299 5.76 4.99 4.6217 4.4907 4.5761 5.56 5.17 4.2897 4.6251 4.4369
3134.589 4.7214 4.6566 4.3094 4.5766 4.3183 4.2836 4.3833 4.2281 4.5413 5.08
3153.879 4.8807 4.5578 4.5924 4.3461 4.0678 4.2596 4.2402 4.1553 4.1938 4.5924
3173.169 4.7047 4.4849 4.5637 4.3255 4.4854 4.3376 3.836 3.9355 4.1469 3.927
3192.458 3.672 3.754 4.2895 4.2597 3.9021 4.0178 3.914 3.705 3.743 3.9252
3211.748 3.607 3.502 3.767 3.524 3.533 3.792 3.97574 4.1714 4.1428 4.7802
3231.038 4.7518 4.2713 3.771 4.2386 4.99 4.3054 3.701 3.696 3.9322 4.5375
3250.328 4.5913 3.9317 3.96159 3.734 3.749 3.806 3.9236 4.1397 3.58 3.478
3269.617 3.8998 4.3113 4.2307 3.98276 3.849 3.8605 3.9217 3.721 4.2202 4.3945
3288.907 4.01083 3.9191 4.629 4.9015 4.0388 3.574 3.727 3.9158 3.8773 3.558
3308.197 3.46 4.1262 4.3846 4.113 4.2366 4.05987 3.761 3.9324 3.72 3.682
3327.487 3.851 3.554 3.519 3.731 3.9298 4.1178 4.00672 3.734 4.1405 4.5889
3346.777 4.5619 4.3749 3.78 3.487 3.787 4.5602 5.28 4.7634 4.7109 4.9374
3366.066 4.4659 4.5105 4.852 4.5879 3.36 2.91 3.38 3.742 3.95375 3.99196
3385.356 4.3511 5.13 5.47 4.532 3.803 3.9201 3.744 3.788 4.0922 4.1141
3404.646 4.04442 4.2596 4.6912 4.3447 3.934 4.2827 4.8032 5.26 4.5174 3.421
3423.936 3.18 3.351 3.9136 4.2572 4.2836 4.7567 4.7205 3.8847 3.461 3.95097
3443.225 4.01476 3.405 3.33 3.779 4.467 3.8628 3.37 3.654 3.385 3.146
3462.515 2.92 3.376 3.657 3.547 3.828 3.772 3.97081 4.5433 4.8679 4.7172
3481.805 4.4092 4.6811 4.3257 3.901 3.56 3.349 3.799 3.687 3.384 3.351
3501.095 3.668 3.9239 3.8648 4.2498 4.5727 4.515 4.2561 4.2183 4.5426 4.2546
3520.385 3.693 3.841 3.98369 3.776 4.2612 5.04 4.6547 3.97605 3.96035 3.8964
3539.674 4.0917 3.649 3.112 3.221 3.569 4.0853 3.529 3.514 4.3637 3.785
3558.964 3.698 3.9245 3.98587 4.2582 4.2408 4.1924 3.96167 4.2141 4.673 4.8769
3578.254 4.96 4.713 4.3649 4.0963 4.3991 4.803 4.6316 4.4651 4.1778 4.1462
3597.544 4.4219 4.5678 4.287 4.0113 4.1686 3.857 3.814 4.5534 4.6393 4.3164
3616.833 4.01856 3.95208 4.3409 4.3796 4.2406 4.378 4.376 4.1485 4.04243 3.813
3636.123 3.8928 4.4067 3.99371 3.828 4.2969 4.4469 4.5542 4.2773 4.1323 3.9392
3655.413 3.28 3.71 4.5233 4.1786 4.2115 4.5383 4.4475 4.458 4.3373 3.528
3674.703 3.43 3.783 3.5 3.699 4.3517 4.6044 4.0728 4.0808 4.1319 3.8871
3693.993 4.0397 4.5714 4.5313 3.646 3.45 4.0928 4.2876 3.835 3.646 4.2692
3713.282 4.4465 3.8652 3.8878 3.98631 3.831 4.4355 4.4675 4.1275 3.9084 3.882
3732.572 4.2183 3.9267 3.848 3.571 3.699 4.1777 4.4432 4.9053 4.7923 4.8058
3751.862 4.8002 4.3317 4.1954 4.0895 4.0785 4.0942 4.02386 4.3795 4.6766 4.6784
3771.152 4.5054 4.1566 4.3583 4.4188 3.593 2.93 3.797 4.2383 3.752 4.166
3790.441 4.58 4.5892 4.1944 3.848 4.04498 4.3486 3.9239 3.9312 4.4561 4.2098
3809.731 3.8952 4.0762 4.1979 4.0679 3.8698 3.807 3.9185 4.0213 4.00095 3.706
3829.021 3.586 3.813 4.1297 3.97872 3.663 3.503 3.8794 4.8896 5.13 4.2023
3848.311 3.76 3.727 3.706 4.7659 4.7139 3.96152 4.3008 4.2362 4.02425 4.194
3867.601 4.4747 4.04228 3.334 3.549 4.2078 4.3564 4.3396 4.4669 4.911 4.8906
3886.890 4.2739 4.8624 4.933 3.696 3.456 3.503 3.766 4.5398 4.4282 4.6182
3906.180 4.7034 4.2001 3.314 3.121 3.746 3.85 3.708 3.873 4.1368 4.00571
3925.470 3.9315 4.2016 4.1791 3.791 4.01193 4.3159 4.6865 4.7846 4.187 3.69
3944.760 3.698 3.677 3.98043 4.0668 3.8774 4.1473 4.307 4.3185 3.9291 4.2668
3964.049 4.7379 4.3648 4.0824 3.8698 3.837 4.298 4.4213 4.068 4.078 4.2617
3983.339 4.0784 3.8632 3.95783 4.3802 4.4396 4.3773 4.3011 4.0897 4.1438 4.4083
##END=
