##TITLE=Dipentyl fumarate
##JCAMP-DX=4.24
##DATA TYPE=INFRARED SPECTRUM
##ORIGIN=EPA-IR VAPOR PHASE LIBRARY
##OWNER=SRD/NIST
Collection (C) 2018 copyright by the U.S. Secretary of Commerce
on behalf of the United States of America. All rights reserved.
##CAS REGISTRY NO=20314-74-3
##MOLFORM=C14 H24 O4
##$NIST SOURCE=MSDC-IR
##STATE=gas
##XUNITS=1/CM
##YUNITS=ABSORBANCE
##XFACTOR=1.
##YFACTOR=0.001
##DELTAX=1.92898
##FIRSTX=549.8
##LASTX=4000.7
##FIRSTY=0.7768
##MAXX=4000.7
##MINX=549.759
##MAXY=0.148171
##MINY=0
##NPOINTS=1790
##XYDATA=(X++(Y..Y))
549.759 0.7768 0.7856 0.6702 0.3877 0.4193 0.4469 0.4378 0.5025 0.5787 0.33398
569.049 0.35082 0.6168 0.6214 0.33626 0 0.104 0.2351 0.38083 0.32795 0.2724
588.339 0.29939 0.176 0.33619 0.5004 0.34491 0.2679 0.35265 0.36696 0.2671 0.30428
607.628 0.3842 0.4184 0.5257 0.517 0.4034 0.4469 0.5541 0.5331 0.4689 0.5116
626.918 0.7429 0.9216 0.9954 0.9995 1.2058 1.511 1.791 2.021 2.071 2.401
646.208 2.981 3.521 3.981 4.411 4.941 5.431 5.861 6.441 6.641 6.691
665.498 6.821 6.591 6.121 5.221 4.171 3.441 2.751 2.201 1.991 1.791
684.787 1.621 1.621 1.441 1.2104 1.2166 1.301 1.1743 0.9321 0.9644 1.096
704.077 1.1789 1.0351 1.0837 1.341 1.341 1.431 1.531 1.511 1.651 1.881
723.367 1.981 2.041 2.081 2.041 2.071 2.351 2.641 2.691 2.631 2.671
742.657 2.701 2.551 2.591 2.671 2.381 2.341 2.761 3.111 3.211 3.431
761.947 3.731 4.041 4.371 4.711 4.851 5.041 5.341 5.301 5.141 5.001
781.236 4.831 4.491 4.191 3.951 3.611 3.271 3.101 2.931 2.801 2.791
800.526 2.481 2.231 2.341 2.291 2.171 2.181 2.051 2.011 1.951 2.071
819.816 2.191 2.071 2.021 2.031 2.151 2.311 2.401 2.551 2.761 2.691
839.106 2.701 2.751 2.751 2.741 2.881 3.041 3.051 3.151 3.101 3.131
858.395 3.341 3.341 3.481 3.721 3.911 4.041 4.001 4.011 4.051 4.111
877.685 4.091 3.871 3.881 3.841 3.691 3.661 3.501 3.401 3.391 3.371
896.975 3.371 3.511 3.681 3.691 3.691 3.761 3.721 3.721 3.721 3.781
916.265 3.831 3.791 3.701 3.621 3.731 3.891 3.971 3.951 4.061 4.381
935.555 4.641 4.721 4.581 4.671 4.911 5.231 5.481 5.611 5.941 6.421
954.844 6.881 7.581 8.281 9.041 10.241 11.741 13.471 15.381 17.721 20.371
974.134 23.161 25.931 28.411 30.441 32.071 33.191 33.941 34.671 35.221 35.261
993.424 34.881 34.191 33.261 32.201 30.991 29.891 28.811 27.671 26.581 25.721
1012.714 25.181 24.491 23.811 23.461 23.401 23.601 24.061 24.821 25.691 26.501
1032.003 27.031 27.461 27.901 27.971 27.851 27.521 27.011 26.341 25.011 23.401
1051.293 21.361 19.001 17.161 15.721 14.631 13.921 13.551 13.651 13.921 14.191
1070.583 14.411 14.511 14.221 13.721 13.261 12.601 11.671 10.651 9.951 9.461
1089.873 8.771 8.601 8.471 7.991 8.011 8.111 8.001 7.821 8.211 8.681
1109.163 8.451 8.711 9.151 9.421 10.171 11.231 11.871 12.421 13.281 14.301
1128.452 15.731 17.221 19.061 21.611 25.261 30.081 36.411 44.781 55.291 68.541
1147.742 82.841 95.491 103.951 105.721 100.161 90.681 81.821 75.941 73.861 74.321
1167.032 75.311 75.211 72.841 67.341 59.281 50.691 42.731 35.981 30.801 27.141
1186.322 24.681 22.921 21.891 21.501 21.301 21.521 22.161 22.811 24.101 25.991
1205.611 28.281 31.061 34.231 38.241 43.021 48.851 55.331 61.261 65.421 66.561
1224.901 64.791 61.211 57.071 54.111 53.171 54.451 58.181 64.181 71.871 80.811
1244.191 90.241 99.461 108.341 116.481 123.511 128.451 129.531 125.771 117.321 105.971
1263.481 94.131 83.361 74.771 68.421 63.781 61.191 60.931 62.861 67.101 73.681
1282.771 82.311 92.681 103.671 113.461 119.951 121.311 117.451 109.431 99.331 89.181
1302.060 79.521 70.381 61.711 53.631 46.441 40.361 35.431 31.461 28.271 25.721
1321.350 23.531 21.661 19.981 18.341 16.791 15.351 14.041 12.881 11.941 11.201
1340.640 10.611 10.181 9.871 9.601 9.361 9.161 8.991 8.871 8.771 8.621
1359.930 8.481 8.391 8.331 8.291 8.261 8.331 8.511 8.821 9.361 10.111
1379.219 11.141 12.401 13.661 14.631 14.991 14.671 13.831 12.631 11.301 10.051
1398.509 8.931 7.991 7.271 6.741 6.371 6.081 5.841 5.631 5.501 5.411
1417.799 5.301 5.231 5.261 5.271 5.331 5.441 5.581 5.741 5.991 6.281
1437.089 6.641 7.041 7.391 7.731 8.071 8.431 8.941 9.531 10.161 10.801
1456.378 11.451 12.151 12.751 13.171 13.501 13.711 13.641 13.251 12.621 11.741
1475.668 10.701 9.621 8.641 7.761 6.981 6.241 5.561 5.031 4.621 4.301
1494.958 3.991 3.761 3.601 3.501 3.361 3.151 3.011 2.941 2.871 2.771
1514.248 2.711 2.641 2.571 2.521 2.441 2.441 2.411 2.311 2.271 2.241
1533.538 2.191 2.181 2.241 2.181 2.081 1.971 1.911 2.001 1.951 1.841
1552.827 1.771 1.711 1.671 1.611 1.631 1.601 1.561 1.551 1.571 1.541
1572.117 1.531 1.571 1.561 1.571 1.591 1.611 1.661 1.601 1.551 1.591
1591.407 1.591 1.681 1.751 1.731 1.711 1.691 1.721 1.791 1.831 1.851
1610.697 1.961 2.091 2.151 2.271 2.431 2.551 2.721 2.951 3.241 3.631
1629.986 4.011 4.461 5.021 5.651 6.351 7.021 7.571 7.901 7.961 7.791
1649.276 7.331 6.771 6.181 5.661 5.231 4.911 4.751 4.591 4.471 4.401
1668.566 4.351 4.321 4.291 4.291 4.331 4.391 4.511 4.661 4.831 5.081
1687.856 5.381 5.811 6.381 6.981 7.601 8.321 9.101 10.001 10.891 11.791
1707.146 12.761 13.841 15.141 16.781 18.711 21.081 24.161 27.731 32.171 37.821
1726.435 45.161 54.391 66.251 80.541 98.071 116.791 132.901 144.471 148.171 143.461
1745.725 131.481 114.251 94.791 75.811 60.011 48.121 38.931 32.211 27.081 23.071
1765.015 20.021 17.621 15.671 14.161 12.831 11.801 10.871 10.001 9.321 8.701
1784.305 8.011 7.371 6.811 6.261 5.701 5.261 4.861 4.441 4.071 3.761
1803.594 3.531 3.331 3.081 2.871 2.751 2.631 2.551 2.441 2.361 2.291
1822.884 2.181 2.091 2.031 1.981 1.971 1.921 1.831 1.771 1.751 1.721
1842.174 1.731 1.741 1.651 1.611 1.661 1.681 1.681 1.701 1.721 1.721
1861.464 1.721 1.691 1.661 1.651 1.571 1.491 1.541 1.531 1.451 1.441
1880.754 1.441 1.411 1.371 1.411 1.421 1.381 1.361 1.331 1.341 1.361
1900.043 1.341 1.281 1.291 1.301 1.2585 1.2594 1.291 1.2434 1.217 1.2302
1919.333 1.187 1.1503 1.1428 1.1531 1.1635 1.138 1.1119 1.0373 1.002 1.0511
1938.623 1.0828 1.0545 0.9996 0.9916 1.0044 0.9974 0.9747 0.9691 1.0201 1.0242
1957.913 0.9532 0.9066 0.9015 0.9677 0.9992 0.9617 0.9437 0.9197 0.9677 1.0105
1977.202 0.9724 0.9371 0.9208 0.9416 0.9065 0.8558 0.8896 0.9298 0.8854 0.8707
1996.492 0.8796 0.857 0.9034 0.9183 0.9231 0.9015 0.871 0.9249 0.8912 0.8894
2015.782 0.8979 0.8806 0.9225 0.916 0.9357 0.9847 1.0011 1.0297 1.0712 1.0759
2035.072 1.033 1.0259 1.0886 1.1065 1.0753 1.1112 1.1242 1.0869 1.0975 1.0229
2054.362 0.9728 1.0533 1.06 1.0396 1.0539 1.0768 1.0906 1.0831 1.133 1.1361
2073.651 1.0417 1.0276 1.0863 1.1323 1.1492 1.1023 1.066 1.0481 1.0824 1.1825
2092.941 1.1474 1.0535 1.0888 1.1364 1.0938 1.0421 1.0449 1.0878 1.125 1.1197
2112.231 1.1118 1.1275 1.1036 1.0956 1.1524 1.1678 1.1586 1.135 1.1074 1.0997
2131.521 1.1026 1.095 1.0799 1.076 1.0308 1.0333 1.0522 1.0262 0.9745 0.9251
2150.810 0.9334 0.9659 0.9456 0.9405 0.9537 0.955 0.9757 0.9648 0.9134 0.8809
2170.100 0.9038 0.904 0.92 0.9208 0.8869 0.8506 0.8214 0.8546 0.8733 0.8766
2189.390 0.8744 0.8278 0.8017 0.7758 0.7858 0.8491 0.8121 0.766 0.7673 0.7551
2208.680 0.7852 0.8587 0.8443 0.8096 0.8714 0.8706 0.8435 0.8399 0.7688 0.7236
2227.970 0.7046 0.7499 0.7965 0.7959 0.7782 0.7326 0.7465 0.7877 0.8484 0.8356
2247.259 0.7803 0.7561 0.7296 0.7771 0.8247 0.8254 0.8589 0.8538 0.8573 0.8655
2266.549 0.7384 0.6712 0.7377 0.7654 0.7405 0.7396 0.7485 0.7344 0.7993 0.8102
2285.839 0.7699 0.7908 0.7719 0.7611 0.7613 0.7811 0.7847 0.7617 0.7798 0.7356
2305.129 0.7013 0.7077 0.7193 0.7367 0.7058 0.7021 0.7506 0.7912 0.8147 0.7792
2324.418 0.798 0.8447 0.8188 0.8436 0.84 0.846 0.8572 0.8754 0.9349 0.9345
2343.708 0.8941 0.8576 0.8467 0.8092 0.7513 0.6824 0.6824 0.6992 0.6661 0.5978
2362.998 0.5352 0.5596 0.5835 0.5654 0.5352 0.5731 0.5982 0.613 0.6221 0.6137
2382.288 0.6283 0.6233 0.6421 0.647 0.6927 0.7287 0.6356 0.5503 0.5527 0.5978
2401.578 0.5946 0.6047 0.6066 0.6095 0.6166 0.6297 0.5714 0.5301 0.5974 0.6363
2420.867 0.6727 0.6761 0.6544 0.5934 0.543 0.5697 0.6108 0.6295 0.6133 0.571
2440.157 0.5689 0.5792 0.6157 0.644 0.6412 0.6432 0.6174 0.6033 0.6043 0.5977
2459.447 0.5991 0.626 0.614 0.6162 0.6988 0.7338 0.7225 0.6609 0.582 0.6286
2478.737 0.7032 0.7102 0.6989 0.701 0.6688 0.6019 0.5888 0.6072 0.6873 0.7462
2498.026 0.7328 0.6713 0.6581 0.6795 0.6373 0.5736 0.6163 0.6808 0.6881 0.6848
2517.316 0.6018 0.5609 0.5536 0.5263 0.5924 0.6152 0.61 0.6304 0.6189 0.6118
2536.606 0.6096 0.5854 0.5851 0.6241 0.5834 0.5396 0.4734 0.5025 0.5973 0.5772
2555.896 0.5457 0.6258 0.6794 0.6135 0.6346 0.6627 0.6593 0.6309 0.6303 0.7
2575.186 0.7061 0.6777 0.7205 0.6886 0.6527 0.6938 0.6895 0.7265 0.7043 0.6381
2594.475 0.6012 0.6208 0.6923 0.7228 0.734 0.7902 0.7818 0.7224 0.7182 0.7182
2613.765 0.7614 0.7037 0.6631 0.6269 0.6063 0.6866 0.7587 0.8393 0.8119 0.8007
2633.055 0.7911 0.7691 0.746 0.735 0.7649 0.78 0.8373 0.8165 0.7318 0.733
2652.345 0.7812 0.8283 0.8561 0.8988 0.9599 0.9551 0.8952 0.9421 0.9692 0.9469
2671.634 0.9807 1.0866 1.1019 1.0397 1.0579 1.0505 1.0767 1.1229 1.0981 1.0691
2690.924 1.0965 1.1495 1.1698 1.1504 1.1463 1.1058 1.065 1.0897 1.1014 1.1341
2710.214 1.0787 0.9838 1.0329 1.0694 1.1059 1.1934 1.1963 1.179 1.2361 1.2671
2729.504 1.2396 1.201 1.2324 1.2451 1.331 1.441 1.451 1.571 1.561 1.511
2748.794 1.591 1.651 1.681 1.731 1.791 1.751 1.661 1.671 1.681 1.641
2768.083 1.681 1.671 1.561 1.651 1.741 1.801 1.831 1.781 1.851 1.881
2787.373 1.851 1.901 2.001 2.061 2.071 2.151 2.221 2.321 2.351 2.341
2806.663 2.391 2.461 2.651 2.811 2.861 2.971 3.161 3.321 3.471 3.711
2825.953 3.881 4.071 4.271 4.451 4.731 5.001 5.371 5.781 6.271 6.831
2845.242 7.431 8.071 8.881 9.881 10.901 12.061 13.411 14.831 16.381 17.871
2864.532 19.391 20.901 22.161 23.181 23.901 24.381 24.631 24.731 24.891 25.161
2883.822 25.181 24.821 24.301 23.581 22.771 22.231 21.951 22.031 22.361 22.791
2903.112 23.421 24.231 25.151 26.041 27.051 28.341 29.811 31.581 33.531 35.501
2922.401 37.781 40.341 42.961 45.791 48.811 51.771 54.671 57.241 59.281 60.811
2941.691 61.561 61.311 60.011 58.011 55.761 53.811 52.791 53.081 54.601 57.161
2960.981 60.381 63.471 65.911 67.331 67.271 65.401 61.721 56.671 50.781 44.611
2980.271 38.861 34.091 30.191 26.861 24.001 21.471 19.221 17.241 15.511 13.961
2999.561 12.541 11.331 10.261 9.281 8.431 7.681 7.061 6.581 6.141 5.721
3018.850 5.361 5.051 4.701 4.381 4.241 4.111 3.771 3.471 3.291 3.231
3038.140 3.201 2.991 2.751 2.671 2.641 2.601 2.481 2.311 2.211 2.191
3057.430 2.251 2.271 2.141 2.071 2.041 2.041 2.011 1.951 1.961 1.821
3076.720 1.741 1.781 1.731 1.651 1.591 1.671 1.671 1.621 1.611 1.451
3096.009 1.371 1.331 1.361 1.351 1.331 1.361 1.291 1.281 1.2647 1.225
3115.299 1.1982 1.2047 1.2355 1.1787 1.1079 1.0535 1.131 1.1328 1.0915 1.1119
3134.589 1.0575 1.0903 1.0204 0.9005 0.9542 1.0193 0.9732 0.8812 0.8567 0.8651
3153.879 0.8598 0.8095 0.7709 0.7443 0.8057 0.8326 0.8676 0.9549 0.917 0.8873
3173.169 0.9509 0.9734 0.9251 0.924 0.9461 0.9835 0.9319 0.8657 0.8503 0.8417
3192.458 0.8043 0.6956 0.5953 0.6211 0.741 0.78 0.7169 0.704 0.6995 0.681
3211.748 0.6906 0.5609 0.5556 0.6533 0.5481 0.5098 0.5291 0.4753 0.524 0.5483
3231.038 0.4876 0.4849 0.5129 0.4976 0.5549 0.5527 0.4405 0.3912 0.32869 0.36586
3250.328 0.35269 0.3259 0.4074 0.4611 0.4565 0.4241 0.4393 0.4417 0.4129 0.4675
3269.617 0.4851 0.3963 0.33099 0.30007 0.34315 0.36068 0.32277 0.34313 0.402 0.4137
3288.907 0.414 0.4046 0.3911 0.4094 0.3826 0.27553 0.27815 0.32386 0.3872 0.4847
3308.197 0.4753 0.4293 0.3822 0.37809 0.36349 0.35896 0.4398 0.4678 0.4013 0.4337
3327.487 0.4797 0.438 0.351 0.36314 0.4855 0.5043 0.596 0.7367 0.6445 0.5234
3346.777 0.3844 0.34333 0.517 0.5535 0.4786 0.457 0.4963 0.5014 0.4766 0.5385
3366.066 0.5194 0.5132 0.6103 0.5882 0.5813 0.6458 0.6425 0.6566 0.616 0.4904
3385.356 0.5104 0.5709 0.5376 0.5609 0.5936 0.6172 0.6335 0.5965 0.6137 0.4915
3404.646 0.37687 0.4709 0.4913 0.4175 0.37807 0.34958 0.3885 0.4748 0.4713 0.4181
3423.936 0.4655 0.6275 0.6804 0.6047 0.5508 0.653 0.7672 0.71 0.6676 0.6425
3443.225 0.668 0.7297 0.8974 1.0441 0.946 1.0434 1.2392 1.361 1.551 1.631
3462.515 1.671 1.761 1.811 1.811 1.851 1.881 1.851 1.731 1.571 1.401
3481.805 1.2093 0.968 0.887 0.9612 0.8219 0.824 0.9484 0.8526 0.7004 0.7165
3501.095 0.7106 0.6121 0.5558 0.5125 0.4356 0.4515 0.4056 0.3925 0.4342 0.36238
3520.385 0.4158 0.34958 0.29859 0.399 0.4453 0.5396 0.4309 0.4323 0.5932 0.4068
3539.674 0.2509 0.3438 0.37893 0.2313 0.27365 0.36075 0.35522 0.30797 0.34306 0.37244
3558.964 0.30449 0.30737 0.30533 0.2409 0.2097 0.2707 0.30918 0.3977 0.34704 0.36747
3578.254 0.4974 0.3893 0.35183 0.37513 0.259 0.2279 0.4044 0.4257 0.31232 0.287142
3597.544 0.27619 0.3557 0.4029 0.31146 0.30156 0.36651 0.34273 0.2481 0.23 0.35647
3616.833 0.4434 0.3986 0.33729 0.3966 0.4386 0.3864 0.32675 0.3993 0.3919 0.34899
3636.123 0.36234 0.37509 0.4694 0.4627 0.34299 0.3081 0.32091 0.29991 0.33422 0.35027
3655.413 0.2448 0.2503 0.383 0.37694 0.3868 0.4506 0.441 0.34508 0.3929 0.4629
3674.703 0.5117 0.5979 0.5252 0.36855 0.466 0.5749 0.387 0.28262 0.3942 0.5005
3693.993 0.3965 0.4071 0.4357 0.37558 0.457 0.4779 0.4993 0.5943 0.5138 0.35094
3713.282 0.4469 0.5586 0.3732 0.2622 0.34324 0.4254 0.4373 0.36107 0.34536 0.4377
3732.572 0.56 0.5506 0.33637 0.2265 0.34023 0.4515 0.4288 0.37643 0.4156 0.4558
3751.862 0.4454 0.525 0.4684 0.31652 0.36923 0.31181 0.32762 0.4199 0.4313 0.4671
3771.152 0.5018 0.4888 0.475 0.514 0.4669 0.4244 0.4701 0.5383 0.5775 0.5438
3790.441 0.4406 0.4385 0.509 0.6081 0.5378 0.4706 0.6516 0.6737 0.5678 0.6113
3809.731 0.6014 0.5034 0.4782 0.4331 0.4379 0.4901 0.5247 0.4945 0.5334 0.5996
3829.021 0.5519 0.4725 0.4374 0.4344 0.3976 0.4621 0.4627 0.4813 0.5873 0.4676
3848.311 0.436 0.4387 0.30258 0.18 0.288848 0.4638 0.3989 0.5243 0.5795 0.4811
3867.601 0.3836 0.2632 0.31741 0.31909 0.4118 0.5981 0.6071 0.551 0.5467 0.5684
3886.890 0.5955 0.5175 0.4117 0.31664 0.35129 0.37644 0.3858 0.4981 0.468 0.505
3906.180 0.448 0.31025 0.33753 0.37841 0.4709 0.4284 0.4092 0.512 0.6805 0.7566
3925.470 0.5251 0.5251 0.6243 0.5196 0.427 0.3909 0.4224 0.4045 0.31435 0.31762
3944.760 0.37861 0.6064 0.6785 0.5858 0.4812 0.4804 0.5589 0.6189 0.6086 0.5857
3964.049 0.6119 0.5316 0.5624 0.5092 0.5037 0.5819 0.6295 0.736 0.6963 0.6372
3983.339 0.5263 0.4469 0.6318 0.7707 0.7743 0.8277 0.7391 0.5249 0.5177 0.6568
##END=
