##TITLE=p-Pentylacetanilide
##JCAMP-DX=4.24
##DATA TYPE=INFRARED SPECTRUM
##ORIGIN=EPA-IR VAPOR PHASE LIBRARY
##OWNER=SRD/NIST
Collection (C) 2018 copyright by the U.S. Secretary of Commerce
on behalf of the United States of America. All rights reserved.
##CAS REGISTRY NO=20330-52-3
##MOLFORM=C 13 H 19 N O
##$NIST SOURCE=MSDC-IR
##STATE=gas
##XUNITS=1/CM
##YUNITS=ABSORBANCE
##XFACTOR=1.
##YFACTOR=0.001
##DELTAX=1.92898
##FIRSTX=549.8
##LASTX=4000.7
##FIRSTY=10.6471
##MAXX=4000.7
##MINX=549.759
##MAXY=0.137337
##MINY=0
##NPOINTS=1790
##XYDATA=(X++(Y..Y))
549.759 10.6471 10.1171 9.0271 7.8271 6.8671 5.9771 5.3171 4.7771 4.2171 3.7471
569.049 3.6171 3.4871 3.1071 2.8471 2.6571 2.2071 2.1771 2.2971 2.1971 2.1371
588.339 1.9471 2.1771 2.3671 2.4271 2.5071 2.6371 2.7771 2.7771 3.0671 3.4471
607.628 3.5371 3.7371 3.9071 3.8171 4.0371 4.0871 4.1171 4.1371 3.9471 3.8171
626.918 3.9071 4.0371 3.8771 3.8471 3.8671 3.8271 4.0171 4.0871 4.0271 4.0971
646.208 4.2371 4.0671 3.8871 3.6271 3.1871 2.7371 2.3371 2.2471 2.5071 2.2371
665.498 1.7371 1.7071 1.6071 1.7371 1.5671 1.4971 1.5971 1.5671 1.4671 1.2171
684.787 1.3071 1.2271 1.0471 1.2271 1.3871 1.3671 1.1871 1.0571 1.0871 1.0771
704.077 1.2771 1.4271 1.4771 1.6771 1.7371 1.7371 1.8271 1.9971 2.0571 1.9971
723.367 1.9771 2.1271 2.3071 2.3171 2.4271 2.4571 2.3271 2.0871 2.0871 2.2971
742.657 2.2271 2.1871 2.2771 2.3071 2.3771 2.6171 2.6771 2.6671 2.7671 2.9171
761.947 3.1071 3.1971 3.3071 3.3471 3.5171 3.7571 3.6471 3.6071 3.9471 4.2671
781.236 4.3571 4.6071 5.0771 5.3371 5.6271 5.9371 6.0271 6.2371 6.6071 6.6971
800.526 6.9271 7.2571 7.3971 7.6171 7.9971 8.1271 8.0771 8.3271 8.4471 8.5371
819.816 8.7271 8.7871 9.0471 9.4471 9.7971 10.2171 10.5771 10.8971 10.9171 10.6671
839.106 10.4371 10.0471 9.5371 8.8971 8.3071 7.7771 6.9971 6.1771 5.6571 5.2071
858.395 4.5471 4.0171 3.7271 3.4571 3.1471 2.8871 2.8471 2.7871 2.6171 2.4971
877.685 2.4671 2.5371 2.4871 2.4371 2.5671 2.5371 2.4071 2.5271 2.6871 2.6871
896.975 2.6171 2.6471 2.5971 2.5171 2.5871 2.7871 2.8171 2.6371 2.6671 2.6971
916.265 2.6471 2.5871 2.4071 2.3871 2.4971 2.3971 2.4771 2.5971 2.6671 2.8171
935.555 2.9771 3.0171 2.9071 2.8271 2.7471 2.8571 2.9371 2.9471 2.9871 2.9571
954.844 2.9971 3.2171 3.4671 3.6571 3.8471 4.1771 4.6171 4.9171 5.3071 5.7071
974.134 6.2271 6.8171 7.2871 7.8071 8.2771 8.7371 9.0971 9.4871 9.6471 9.2871
993.424 8.8771 8.3371 7.7571 7.3271 6.7971 6.4171 6.3071 6.2271 6.2271 6.5271
1012.714 6.8271 7.2671 7.7771 7.8471 7.5671 7.1171 6.3571 5.5271 4.9071 4.6571
1032.003 4.5971 4.3771 4.1671 4.0271 4.3171 4.4271 4.3571 4.3971 4.4271 4.8371
1051.293 4.6271 4.0871 4.2471 4.6371 4.7571 4.6271 4.5071 4.5771 4.5171 4.4071
1070.583 4.2671 3.9671 4.0771 3.7471 3.5071 3.5571 3.4971 3.3471 3.0871 3.2371
1089.873 3.1571 3.2771 3.1371 3.0371 3.1571 3.1971 3.4071 3.3571 3.4871 3.6671
1109.163 3.7471 4.4371 4.6271 4.1671 4.5571 4.8371 4.8771 4.6471 4.2171 4.0571
1128.452 3.8871 3.6971 3.5171 3.0171 2.4571 2.3771 2.3771 2.0671 1.9771 2.1271
1147.742 2.0671 2.1171 2.1871 2.1571 2.2471 2.2971 2.4371 2.6571 2.6671 2.4871
1167.032 2.5471 3.1571 3.6671 3.9171 4.4471 4.9871 5.4171 6.2171 7.0171 7.7071
1186.322 8.3271 8.8871 9.6171 10.3471 11.5471 12.7871 13.9771 15.6371 16.7971 17.1471
1205.611 17.9271 19.1071 20.1071 21.1571 22.4071 23.7971 25.1171 26.5471 27.9071 28.9771
1224.901 29.7871 30.8371 31.6671 33.0671 35.6071 38.3771 41.1671 43.0671 43.2371 41.5871
1244.191 38.4171 34.2271 29.8471 26.2271 23.4771 21.4271 20.2571 19.5871 19.2671 19.2671
1263.481 19.1771 19.3471 19.6171 20.0771 20.7171 21.3871 22.2871 23.3671 24.6971 26.2771
1282.771 28.1171 30.1971 32.4171 34.7071 36.9771 39.1371 41.1771 42.9571 44.4971 45.6671
1302.060 46.4671 46.8471 46.7871 45.9871 44.2971 41.8071 38.5971 34.7971 30.7371 26.8771
1321.350 23.4471 20.6671 18.5271 16.8571 15.5771 14.6071 13.9571 13.3871 12.8571 12.5071
1340.640 12.2371 12.1071 12.1571 12.3771 12.7171 13.2971 14.1171 15.2271 16.8171 18.9571
1359.930 21.5871 24.4271 27.1271 29.2871 30.6271 31.0671 30.6671 29.5671 28.1971 26.7071
1379.219 25.2371 24.0171 22.9771 22.1871 21.7771 21.8971 22.5571 23.7471 25.6871 28.3571
1398.509 31.7171 35.6071 39.3971 42.4571 44.0071 43.5671 41.2471 37.3271 32.5871 28.0171
1417.799 24.2171 21.3071 19.2371 17.6371 16.4871 15.7971 15.3471 15.0171 14.8971 14.9071
1437.089 15.0571 15.4671 15.9871 16.5171 17.1071 17.7671 18.4871 19.2971 20.1071 20.8971
1456.378 21.8571 23.0171 24.2171 25.5071 26.8171 28.1871 29.7571 31.4271 33.2671 35.5071
1475.668 38.1071 41.1671 44.5871 48.4471 52.6271 57.0371 61.5871 65.9771 70.0171 73.3371
1494.958 75.8371 77.6571 79.0571 80.7971 83.9171 89.3371 98.1071 109.997 122.697 133.027
1514.248 137.337 133.797 122.467 105.337 85.0071 66.8471 52.4871 42.2171 35.0371 29.8871
1533.538 26.0571 23.0171 20.6171 18.6171 16.9171 15.5671 14.4771 13.5871 12.7371 11.8371
1552.827 11.1871 10.6571 10.1871 9.7371 9.3571 9.1771 9.0571 8.8871 8.8271 8.8571
1572.117 9.0271 9.3671 9.8671 10.5671 11.4271 12.4171 13.6571 15.1171 16.3871 17.4171
1591.407 18.1271 18.2771 17.9571 17.3971 16.6771 16.0071 15.5271 15.2971 15.1871 15.0471
1610.697 14.8871 14.5171 13.8671 12.9571 11.7471 10.4571 9.3171 8.2671 7.4671 6.8771
1629.986 6.4071 5.9471 5.5971 5.3571 5.1371 5.0371 4.9871 4.9371 4.8371 4.7571
1649.276 4.7971 4.8571 4.9371 5.0471 5.1771 5.3971 5.6271 5.8371 6.0271 6.2971
1668.566 6.6271 7.0071 7.5171 8.0071 8.5171 9.1171 9.7571 10.4571 11.2771 12.1971
1687.856 13.2371 14.5171 16.0771 17.7771 19.8571 22.3671 25.1671 28.6671 32.6171 37.5871
1707.146 43.7971 51.6771 61.7971 73.7271 86.3771 97.8771 106.257 110.017 108.947 103.617
1726.435 95.5271 86.9171 78.7271 71.0671 63.4371 56.2471 49.5671 43.2671 37.8271 33.0771
1745.725 29.0871 25.6571 22.7371 20.1971 18.0071 16.1071 14.4271 13.0771 11.9071 10.8171
1765.015 9.9071 9.1371 8.4571 7.8671 7.1971 6.6271 6.1871 5.7571 5.3071 4.9071
1784.305 4.5371 4.1371 3.8871 3.6471 3.3371 3.1071 2.9871 2.7871 2.5771 2.3971
1803.594 2.2671 2.2671 2.2071 2.0671 2.0071 1.9371 1.8471 1.8071 1.7571 1.7271
1822.884 1.7271 1.6971 1.6671 1.6471 1.6371 1.6871 1.6971 1.6271 1.6671 1.7471
1842.174 1.7071 1.6571 1.6971 1.7371 1.7271 1.7471 1.8171 1.8071 1.8071 1.8271
1861.464 1.8371 1.9071 1.8971 1.8571 1.8771 1.9071 1.9071 1.8771 1.9271 1.9571
1880.754 1.9571 2.0171 2.0271 1.9671 1.9271 1.9071 1.8471 1.7871 1.7271 1.6471
1900.043 1.5671 1.4971 1.4471 1.4371 1.4071 1.3371 1.2671 1.2671 1.2371 1.1771
1919.333 1.2071 1.1471 1.0571 1.0771 1.0671 1.0133 0.9366 0.8559 0.8068 0.8663
1938.623 0.8504 0.7622 0.7535 0.7539 0.7223 0.6681 0.6652 0.6954 0.6941 0.687
1957.913 0.648 0.662 0.6609 0.6448 0.717 0.6651 0.5976 0.6094 0.6085 0.5716
1977.202 0.5593 0.561 0.5424 0.5517 0.5955 0.6089 0.5521 0.5739 0.5869 0.559
1996.492 0.5794 0.58 0.5565 0.5845 0.5928 0.5964 0.62 0.607 0.6616 0.6825
2015.782 0.6608 0.7254 0.7269 0.6833 0.6909 0.6603 0.6463 0.6242 0.6151 0.5933
2035.072 0.5831 0.604 0.5857 0.5992 0.5669 0.5629 0.6195 0.6614 0.633 0.5754
2054.362 0.5412 0.5874 0.6372 0.6262 0.646 0.6674 0.6444 0.5824 0.5983 0.6204
2073.651 0.6278 0.5936 0.5355 0.5281 0.5549 0.6074 0.6627 0.6905 0.6522 0.6137
2092.941 0.5773 0.5331 0.5414 0.5371 0.5418 0.5424 0.5181 0.5591 0.5337 0.4535
2112.231 0.4925 0.5626 0.5666 0.5608 0.6047 0.651 0.6101 0.6327 0.6961 0.695
2131.521 0.7475 0.7581 0.7153 0.7056 0.7248 0.6929 0.6898 0.7354 0.7595 0.7661
2150.810 0.7158 0.6565 0.6756 0.7484 0.7317 0.7245 0.7622 0.7398 0.7562 0.7381
2170.100 0.6766 0.6402 0.6245 0.6093 0.5552 0.4974 0.4541 0.44 0.4536 0.4842
2189.390 0.509 0.5643 0.5781 0.5528 0.5397 0.5359 0.5141 0.5172 0.5242 0.4636
2208.680 0.4939 0.5616 0.5332 0.4647 0.4629 0.5306 0.4904 0.4385 0.5185 0.5162
2227.970 0.5083 0.502 0.5189 0.5439 0.4756 0.4746 0.4364 0.423 0.5159 0.5128
2247.259 0.4658 0.4729 0.4278 0.3021 0.3492 0.4116 0.3163 0.3386 0.4299 0.4421
2266.549 0.3564 0.3152 0.3743 0.4494 0.4638 0.4753 0.4593 0.4305 0.4735 0.5203
2285.839 0.5339 0.536 0.5582 0.5645 0.5667 0.5797 0.6614 0.769 0.7685 0.7379
2305.129 0.7625 0.7444 0.7175 0.6885 0.6446 0.6544 0.6733 0.6489 0.6766 0.7088
2324.418 0.6218 0.5975 0.6029 0.5955 0.6316 0.6298 0.6238 0.6738 0.6796 0.611
2343.708 0.6116 0.6937 0.7077 0.6569 0.6291 0.6378 0.6641 0.6306 0.5977 0.6295
2362.998 0.6349 0.5979 0.5669 0.5485 0.4751 0.4818 0.5214 0.4861 0.5083 0.4286
2382.288 0.3551 0.4457 0.4785 0.401 0.3786 0.435 0.4843 0.4993 0.5298 0.5141
2401.578 0.4626 0.4544 0.5345 0.6163 0.5855 0.596 0.6771 0.6718 0.5551 0.5189
2420.867 0.5953 0.6738 0.7234 0.7341 0.7428 0.7247 0.6302 0.637 0.7313 0.7145
2440.157 0.7653 0.7737 0.7298 0.7894 0.6901 0.6222 0.6763 0.683 0.6997 0.7413
2459.447 0.7112 0.6732 0.709 0.6638 0.6146 0.6419 0.6244 0.5634 0.5399 0.5364
2478.737 0.4934 0.5022 0.5416 0.5711 0.5517 0.4989 0.4651 0.4497 0.5472 0.5938
2498.026 0.4932 0.4351 0.5254 0.5332 0.4522 0.5022 0.5984 0.6192 0.6422 0.6328
2517.316 0.59 0.5994 0.6676 0.6133 0.522 0.562 0.6079 0.6453 0.6249 0.5363
2536.606 0.5641 0.7058 0.8213 0.7717 0.6365 0.6359 0.6648 0.6064 0.5397 0.5875
2555.896 0.632 0.5393 0.5063 0.5868 0.6785 0.6944 0.6179 0.6066 0.6801 0.6472
2575.186 0.625 0.6316 0.5689 0.6191 0.7283 0.682 0.5931 0.6702 0.7341 0.6801
2594.475 0.6233 0.6265 0.6365 0.678 0.6941 0.6804 0.7043 0.6859 0.7419 0.7785
2613.765 0.7246 0.7252 0.7646 0.7685 0.7908 0.8102 0.8075 0.8647 0.9071 0.9691
2633.055 1.0471 0.9825 0.9303 1.012 1.0075 0.9454 0.933 0.9661 0.9746 0.943
2652.345 0.9151 0.8893 0.929 0.9983 1.0231 1.0571 1.1271 1.1171 1.029 1.0471
2671.634 1.1571 1.2271 1.2071 1.2071 1.1571 1.1271 1.1171 1.1471 1.2071 1.1371
2690.924 1.0571 1.0871 1.1571 1.1871 1.1371 1.1871 1.3071 1.2371 1.1971 1.2171
2710.214 1.1671 1.1771 1.2071 1.2371 1.2071 1.3071 1.4371 1.3571 1.3971 1.4771
2729.504 1.4071 1.4571 1.4771 1.4071 1.4371 1.5271 1.4771 1.4271 1.5071 1.5071
2748.794 1.4171 1.3771 1.3271 1.3671 1.4271 1.3571 1.2971 1.2671 1.3671 1.4671
2768.083 1.4371 1.4171 1.4371 1.5171 1.5671 1.4971 1.6171 1.8271 1.8271 1.8771
2787.373 1.8871 1.8371 1.8871 2.0071 2.1171 2.2371 2.2771 2.3371 2.4271 2.5171
2806.663 2.6671 2.8071 2.9671 3.0371 3.1471 3.3971 3.5471 3.6771 3.8771 4.0571
2825.953 4.3371 4.5271 4.7171 5.0071 5.3471 5.8571 6.2871 6.7171 7.4271 8.2671
2845.242 9.2271 10.4071 11.7571 13.4371 15.4171 17.4871 19.7971 22.1771 24.2471 25.9571
2864.532 27.2671 28.0171 28.0671 27.6271 27.0271 26.1771 25.2871 24.6971 24.2471 23.8071
2883.822 23.3071 22.6471 21.9171 21.1071 20.2871 19.8171 19.6871 19.8771 20.3771 21.1171
2903.112 22.1371 23.3671 24.7771 26.4471 28.3871 30.7671 33.6271 36.8471 40.3771 44.3971
2922.401 48.9871 53.9771 59.2071 64.2371 68.6971 72.2471 74.6571 75.6971 75.0371 72.6771
2941.691 68.9171 64.0671 58.6471 53.1871 48.2271 44.3271 41.4671 39.6171 38.8671 39.0671
2960.981 39.8371 41.1271 42.3571 42.9171 42.5871 40.8771 38.0071 34.4071 30.1571 26.1571
2980.271 22.7371 19.7771 17.5971 15.9271 14.5871 13.5471 12.8271 12.2771 11.7671 11.4471
2999.561 11.1871 10.9571 10.7271 10.5671 10.6271 10.7871 10.9571 11.2571 11.8971 12.7271
3018.850 13.5971 14.7071 15.8771 16.7171 17.2071 17.1971 16.5971 15.7371 14.6771 13.6371
3038.140 12.9471 12.2871 11.8271 11.6371 11.4571 11.1671 10.8471 10.5071 10.0871 9.6171
3057.430 9.0371 8.5071 7.8671 7.2171 6.7771 6.3171 5.8071 5.4071 5.0671 4.7671
3076.720 4.4971 4.1971 4.0171 3.9571 3.9871 3.9471 3.7271 3.6171 3.6071 3.6471
3096.009 3.6471 3.5571 3.4671 3.3671 3.3771 3.4171 3.3471 3.2371 3.0471 2.8971
3115.299 2.8771 2.7671 2.5771 2.4571 2.3471 2.2671 2.1571 1.9871 1.8371 1.7571
3134.589 1.6271 1.4771 1.4871 1.5271 1.3771 1.1671 1.1671 1.0871 1.0571 1.1571
3153.879 1.0971 1.0238 0.9809 0.9415 0.8938 0.857 0.8517 0.8742 0.8984 0.8065
3173.169 0.7667 0.7806 0.6369 0.6877 0.7805 0.7041 0.6528 0.6824 0.7029 0.6633
3192.458 0.6975 0.7276 0.6948 0.6879 0.7272 0.6126 0.5189 0.5242 0.557 0.4928
3211.748 0.4959 0.5355 0.3699 0.3236 0.4427 0.4635 0.4187 0.448 0.4812 0.4696
3231.038 0.3644 0.3172 0.3352 0.3927 0.3654 0.3129 0.4231 0.4872 0.3945 0.3129
3250.328 0.3781 0.32 0.2235 0.3315 0.3115 0.3012 0.4259 0.4091 0.4126 0.5075
3269.617 0.4933 0.3778 0.2878 0.2476 0.2024 0.1637 0.1969 0.2254 0.2805 0.3866
3288.907 0.3713 0.2887 0.1896 0.1979 0.3457 0.266 0.2195 0.1827 0.1134 0.1622
3308.197 0.2361 0.3234 0.2987 0.2601 0.324 0.417 0.3166 0.3225 0.4157 0.3703
3327.487 0.3895 0.2852 0.1777 0.2086 0.2301 0.3068 0.4201 0.4786 0.4591 0.3771
3346.777 0.3031 0.4548 0.4493 0.2858 0.3071 0.4111 0.4939 0.5228 0.4394 0.4438
3366.066 0.5475 0.4689 0.4186 0.4048 0.4181 0.4996 0.5804 0.7026 0.6421 0.6423
3385.356 0.811 0.9026 0.9192 0.8799 1.008 1.1871 1.3271 1.4671 1.5471 1.6471
3404.646 1.8871 2.1371 2.4171 2.6071 2.8071 3.0471 3.1071 3.1271 3.1971 3.3371
3423.936 3.4771 3.4871 3.4571 3.4071 3.3171 3.3771 3.4371 3.4771 3.2971 3.2771
3443.225 3.6471 3.9471 4.1371 4.2471 4.3671 4.4871 4.7671 5.1871 5.5571 5.8471
3462.515 5.9171 5.8471 5.7971 5.6671 5.2871 4.8171 4.2471 3.6671 3.2771 2.8871
3481.805 2.4471 2.1271 1.9271 1.7171 1.5371 1.3271 1.1071 1.0253 0.8733 0.8608
3501.095 0.7719 0.4871 0.4908 0.5748 0.5751 0.6054 0.5811 0.501 0.4673 0.4103
3520.385 0.37 0.2857 0.2578 0.2343 0.1522 0.2642 0.2817 0.10523 0.09379 0.1861
3539.674 0.2433 0.3183 0.3039 0.1774 0.13175 0.1859 0.23 0.1654 0.1574 0.13193
3558.964 0.11313 0.11144 0.1861 0.2277 0.12893 0.2371 0.3051 0.3202 0.1551 0.06226
3578.254 0.05958 0 0.13195 0.2535 0.2397 0.226 0.2522 0.2463 0.2818 0.2466
3597.544 0.07179 0.1713 0.2694 0.283 0.3626 0.2709 0.2215 0.1925 0.2157 0.2132
3616.833 0.12707 0.195 0.2685 0.2302 0.14338 0.07215 0.06569 0.08463 0.2469 0.2449
3636.123 0.1186 0.2009 0.2574 0.2055 0.1917 0.11839 0.04341 0.12304 0.14648 0.11534
3655.413 0.1057 0.13089 0.2705 0.2757 0.1879 0.2152 0.3541 0.4368 0.318 0.2486
3674.703 0.08851 0.13659 0.3423 0.2445 0.1782 0.2086 0.2512 0.2233 0.2256 0.3389
3693.993 0.423 0.3787 0.2929 0.3105 0.317 0.2231 0.13481 0.2338 0.3507 0.392
3713.282 0.326 0.2975 0.27 0.1948 0.1901 0.13451 0.13882 0.09244 0.07496 0.0314
3732.572 0.05406 0.08002 0.0087 0.1851 0.3171 0.14392 0.13582 0.2387 0.15 0.1804
3751.862 0.1582 0.08565 0.2846 0.3722 0.1734 0.1942 0.2849 0.4104 0.5007 0.3839
3771.152 0.281 0.2143 0.14467 0.12928 0.2315 0.2704 0.287 0.3133 0.3093 0.2995
3790.441 0.3259 0.339 0.3626 0.2902 0.2867 0.4801 0.3104 0.1531 0.3678 0.4237
3809.731 0.3822 0.405 0.4209 0.274 0.07783 0.2295 0.4108 0.3846 0.3468 0.2715
3829.021 0.13876 0.213 0.358 0.3451 0.4338 0.3826 0.2471 0.3344 0.46 0.4458
3848.311 0.3688 0.4116 0.3983 0.2947 0.2427 0.5025 0.4771 0.2498 0.3376 0.3512
3867.601 0.367 0.2738 0.2578 0.4276 0.4258 0.2511 0.10933 0.1833 0.3323 0.2724
3886.890 0.2118 0.3766 0.4339 0.4202 0.4981 0.5311 0.4492 0.3709 0.3264 0.3995
3906.180 0.4877 0.4528 0.4674 0.476 0.489 0.5314 0.435 0.308 0.4912 0.5687
3925.470 0.4445 0.4086 0.2689 0.2398 0.3527 0.43 0.4424 0.3422 0.2397 0.3109
3944.760 0.4271 0.3672 0.3193 0.3618 0.4711 0.4443 0.3967 0.5183 0.6096 0.6924
3964.049 0.5919 0.4182 0.328 0.3856 0.5154 0.4122 0.3538 0.2513 0.2905 0.4019
3983.339 0.3747 0.3643 0.4026 0.4286 0.2987 0.3185 0.3766 0.394 0.5185 0.5394
##END=
