##TITLE=6-Nitroveratraldehyde
##JCAMP-DX=4.24
##DATA TYPE=INFRARED SPECTRUM
##ORIGIN=EPA-IR VAPOR PHASE LIBRARY
##OWNER=SRD/NIST
Collection (C) 2018 copyright by the U.S. Secretary of Commerce
on behalf of the United States of America. All rights reserved.
##CAS REGISTRY NO=20357-25-9
##MOLFORM=C 9 H 9 N O 5
##$NIST SOURCE=MSDC-IR
##STATE=gas
##XUNITS=1/CM
##YUNITS=ABSORBANCE
##XFACTOR=1.
##YFACTOR=0.001
##DELTAX=1.92898
##FIRSTX=549.8
##LASTX=4000.7
##FIRSTY=1.97303
##MAXX=4000.7
##MINX=549.759
##MAXY=0.077483
##MINY=0
##NPOINTS=1790
##XYDATA=(X++(Y..Y))
549.759 1.97303 1.80303 2.09303 1.98303 1.79303 1.98303 1.97303 2.17303 2.40303 2.30303
569.049 2.39303 2.63303 2.64303 2.71303 2.91303 2.95303 2.85303 3.14303 3.12303 3.05303
588.339 3.39303 3.67303 4.06303 4.37303 4.27303 4.17303 4.34303 4.38303 4.51303 4.48303
607.628 4.43303 4.32303 4.18303 4.16303 3.83303 3.50303 3.27303 3.13303 3.09303 2.88303
626.918 2.51303 2.27303 2.18303 1.99303 1.75303 1.75303 1.82303 1.61303 1.38303 1.32303
646.208 1.46303 1.45303 1.32303 1.40303 1.33303 1.08303 1.03303 1.13303 1.27303 1.32303
665.498 1.15303 1.23303 1.27303 1.11303 0.99893 0.98033 1.14303 1.24303 1.17303 1.03303
684.787 1.07303 1.23303 1.31303 1.20303 1.12303 1.11303 1.08303 1.08303 1.08303 1.08303
704.077 1.29303 1.54303 1.63303 1.94303 2.22303 2.47303 2.95303 3.25303 3.64303 4.36303
723.367 4.94303 5.33303 5.94303 6.48303 6.77303 6.91303 6.81303 6.76303 6.56303 6.25303
742.657 6.07303 5.67303 5.33303 5.02303 4.58303 4.34303 4.17303 4.05303 3.85303 3.69303
761.947 3.59303 3.58303 3.63303 3.39303 3.33303 3.52303 3.76303 4.26303 4.81303 5.60303
781.236 6.68303 7.55303 8.28303 9.00303 9.43303 9.49303 9.24303 8.53303 7.66303 6.77303
800.526 5.71303 4.73303 4.04303 3.49303 3.11303 2.78303 2.51303 2.37303 2.22303 2.05303
819.816 1.91303 1.89303 1.75303 1.63303 1.62303 1.70303 1.67303 1.52303 1.35303 1.35303
839.106 1.56303 1.78303 1.92303 2.04303 2.24303 2.48303 2.83303 3.14303 3.43303 3.83303
858.395 4.50303 5.04303 5.48303 5.90303 6.22303 6.78303 7.23303 7.47303 7.59303 7.59303
877.685 7.63303 7.35303 6.98303 6.61303 6.18303 5.76303 5.32303 5.06303 4.83303 4.64303
896.975 4.43303 4.12303 3.72303 3.52303 3.30303 2.88303 2.61303 2.36303 2.05303 1.71303
916.265 1.59303 1.46303 1.33303 1.30303 1.22303 1.30303 1.35303 1.30303 1.18303 1.18303
935.555 1.29303 1.38303 1.43303 1.39303 1.45303 1.54303 1.56303 1.80303 1.89303 1.92303
954.844 2.05303 2.14303 2.32303 2.44303 2.53303 2.69303 2.96303 3.27303 3.55303 3.91303
974.134 4.10303 4.08303 4.26303 4.32303 4.27303 4.26303 4.32303 4.49303 4.62303 4.64303
993.424 4.61303 4.45303 4.41303 4.57303 4.64303 4.78303 5.09303 5.34303 5.64303 6.11303
1012.714 6.59303 7.33303 8.07303 8.72303 9.70303 10.413 10.943 11.623 11.963 11.793
1032.003 11.503 11.203 10.613 10.283 10.013 9.52303 9.33303 9.74303 10.373 11.593
1051.293 13.153 15.283 18.193 20.973 24.143 26.923 28.723 29.663 29.273 27.893
1070.583 25.523 21.953 18.093 14.643 11.763 9.38303 7.70303 6.47303 5.30303 4.37303
1089.873 3.72303 3.44303 3.35303 3.27303 2.68303 2.14303 2.33303 2.49303 2.25303 2.31303
1109.163 2.63303 2.22303 2.19303 2.37303 2.19303 1.97303 1.94303 2.15303 2.46303 2.65303
1128.452 2.51303 2.83303 3.24303 3.55303 4.10303 4.91303 5.74303 6.81303 8.02303 9.07303
1147.742 10.433 11.923 13.203 13.903 14.233 14.303 13.833 13.073 12.343 11.523
1167.032 10.573 9.57303 8.80303 8.71303 8.73303 8.45303 8.36303 8.42303 8.44303 8.55303
1186.322 8.82303 9.10303 9.32303 9.49303 9.71303 10.173 10.953 12.003 12.943 14.143
1205.611 16.293 18.733 21.133 23.913 26.963 30.243 33.483 36.353 38.633 39.793
1224.901 39.423 38.093 35.923 32.663 29.033 25.533 21.973 18.963 16.973 15.613
1244.191 15.143 15.153 15.353 15.773 16.403 17.263 18.313 19.463 20.873 22.853
1263.481 25.323 28.623 33.073 38.543 44.803 51.683 58.933 65.713 71.403 75.443
1282.771 77.483 77.153 74.213 69.333 62.993 55.933 48.843 42.143 36.223 31.133
1302.060 26.983 23.773 21.433 19.913 18.903 18.293 18.183 18.453 18.933 19.733
1321.350 20.873 22.353 24.253 26.543 29.103 31.893 34.843 37.793 40.433 42.583
1340.640 44.093 44.693 44.353 43.053 40.943 38.273 35.183 31.883 28.633 25.603
1359.930 22.853 20.493 18.573 17.233 16.343 15.783 15.673 15.963 16.613 17.613
1379.219 18.823 20.163 21.443 22.413 22.893 22.783 22.073 20.833 19.133 17.113
1398.509 15.063 13.183 11.573 10.213 9.10303 8.12303 7.34303 6.78303 6.39303 6.08303
1417.799 5.92303 5.88303 5.81303 5.88303 6.12303 6.45303 6.90303 7.49303 8.28303 9.22303
1437.089 10.333 11.313 12.143 12.763 13.003 13.003 12.783 12.363 11.923 11.673
1456.378 11.783 12.253 12.893 13.733 14.533 15.063 15.253 15.213 15.003 14.733
1475.668 14.413 14.153 14.243 14.763 15.653 16.973 18.833 21.233 24.153 27.393
1494.958 30.963 34.823 38.573 42.033 44.903 47.023 48.273 48.563 47.963 46.473
1514.248 44.433 42.103 39.773 37.893 36.553 36.143 36.883 38.793 41.803 45.683
1533.538 49.973 54.033 56.973 58.553 58.383 56.573 53.323 48.773 43.613 38.413
1552.827 34.173 31.013 29.033 28.063 27.793 28.063 28.813 29.933 31.073 32.023
1572.117 32.633 32.713 32.073 30.823 29.103 26.843 24.363 21.933 19.843 18.143
1591.407 16.923 16.203 15.953 15.983 16.243 16.593 16.833 16.933 16.683 16.133
1610.697 15.263 14.033 12.733 11.203 9.63303 8.39303 7.38303 6.50303 5.76303 5.17303
1629.986 4.81303 4.57303 4.29303 4.03303 3.91303 3.83303 3.75303 3.64303 3.58303 3.56303
1649.276 3.53303 3.52303 3.52303 3.57303 3.59303 3.66303 3.74303 3.80303 3.90303 3.97303
1668.566 4.02303 4.09303 4.21303 4.30303 4.42303 4.60303 4.83303 5.24303 5.95303 6.89303
1687.856 8.03303 9.80303 12.313 15.663 20.413 26.273 32.353 38.543 42.663 45.143
1707.146 46.113 45.033 41.333 35.713 29.243 23.163 18.043 14.343 11.683 9.84303
1726.435 8.55303 7.65303 6.94303 6.34303 5.82303 5.32303 4.90303 4.46303 4.05303 3.73303
1745.725 3.47303 3.27303 3.16303 3.02303 2.85303 2.74303 2.60303 2.52303 2.41303 2.25303
1765.015 2.20303 2.18303 2.08303 1.94303 1.85303 1.80303 1.74303 1.67303 1.59303 1.53303
1784.305 1.52303 1.52303 1.49303 1.41303 1.36303 1.36303 1.36303 1.29303 1.25303 1.28303
1803.594 1.27303 1.29303 1.26303 1.21303 1.22303 1.14303 1.06303 1.06303 1.09303 1.08303
1822.884 1.08303 1.08303 1.10303 1.04303 0.97673 0.96043 0.89713 0.89123 0.93893 0.98103
1842.174 0.94833 0.85323 0.84833 0.84443 0.80763 0.83443 0.86493 0.84983 0.82573 0.76473
1861.464 0.72313 0.77563 0.73953 0.68063 0.69363 0.69193 0.70183 0.71773 0.73663 0.70473
1880.754 0.66453 0.69383 0.72193 0.68973 0.67403 0.67233 0.66073 0.63523 0.62543 0.63263
1900.043 0.61663 0.60713 0.59093 0.61573 0.59843 0.55993 0.54743 0.55813 0.52543 0.53023
1919.333 0.54423 0.49893 0.50443 0.52713 0.53543 0.53933 0.50573 0.45223 0.47953 0.49793
1938.623 0.51453 0.55353 0.58643 0.59003 0.59763 0.58173 0.57433 0.61323 0.65463 0.67653
1957.913 0.65513 0.61883 0.61423 0.64023 0.64203 0.65433 0.65043 0.64453 0.71623 0.77113
1977.202 0.79543 0.82263 0.80373 0.78233 0.77223 0.80043 0.89163 0.93263 0.89993 0.92063
1996.492 0.95603 0.95093 0.95403 1.03303 1.16303 1.19303 1.18303 1.18303 1.17303 1.21303
2015.782 1.24303 1.26303 1.25303 1.26303 1.28303 1.29303 1.24303 1.17303 1.16303 1.21303
2035.072 1.25303 1.24303 1.20303 1.17303 1.16303 1.09303 1.05303 1.01303 1.01303 1.00293
2054.362 1.00303 1.02303 0.98963 0.97483 0.92323 0.90573 0.92223 0.85783 0.82323 0.84403
2073.651 0.83043 0.78323 0.72933 0.71793 0.70253 0.63663 0.62833 0.69043 0.64743 0.58993
2092.941 0.56053 0.52653 0.53413 0.56143 0.56313 0.53203 0.49703 0.45843 0.48063 0.50563
2112.231 0.49513 0.46473 0.41933 0.41853 0.43253 0.44563 0.44583 0.44233 0.45913 0.45663
2131.521 0.40913 0.38523 0.40803 0.39573 0.35903 0.33663 0.31243 0.34373 0.40383 0.37763
2150.810 0.35663 0.35693 0.33523 0.41173 0.46473 0.40003 0.38323 0.39913 0.41503 0.43313
2170.100 0.43343 0.44703 0.40393 0.39143 0.38683 0.36093 0.38283 0.39923 0.41353 0.42103
2189.390 0.39933 0.36643 0.40893 0.43163 0.44653 0.45153 0.40203 0.33733 0.26833 0.31493
2208.680 0.41253 0.43783 0.45063 0.49093 0.48373 0.43663 0.41663 0.37073 0.35843 0.41693
2227.970 0.40113 0.41593 0.43893 0.34363 0.30643 0.35453 0.41383 0.43653 0.44513 0.39843
2247.259 0.37713 0.41113 0.41193 0.44583 0.46963 0.46833 0.46773 0.57363 0.61173 0.48553
2266.549 0.48063 0.54873 0.54973 0.52683 0.50123 0.50453 0.55203 0.57733 0.53763 0.45543
2285.839 0.41323 0.45403 0.52253 0.54673 0.53123 0.46023 0.46783 0.45993 0.46383 0.48573
2305.129 0.39343 0.40033 0.39453 0.41433 0.45963 0.42493 0.37343 0.32153 0.36583 0.34753
2324.418 0.32383 0.37623 0.37013 0.37683 0.41113 0.37783 0.24943 0.23303 0.30153 0.29833
2343.708 0.29583 0.31273 0.35663 0.42623 0.38273 0.28513 0.30353 0.36423 0.38783 0.33633
2362.998 0.29263 0.30063 0.33333 0.33383 0.31803 0.32313 0.35553 0.40973 0.41103 0.40793
2382.288 0.38013 0.37323 0.42533 0.48223 0.46283 0.39973 0.36843 0.41533 0.51243 0.52523
2401.578 0.46963 0.41123 0.36593 0.38493 0.38433 0.35233 0.35023 0.33173 0.38913 0.49883
2420.867 0.44963 0.37433 0.39743 0.35663 0.35893 0.38923 0.43703 0.44973 0.40983 0.44973
2440.157 0.45583 0.40523 0.40413 0.41043 0.38683 0.31983 0.31793 0.37063 0.39173 0.38623
2459.447 0.35603 0.31363 0.36743 0.42043 0.31243 0.30103 0.32803 0.31383 0.31893 0.32913
2478.737 0.34413 0.33093 0.33643 0.33653 0.36693 0.38773 0.39413 0.41143 0.32853 0.28993
2498.026 0.31953 0.30663 0.32983 0.33903 0.31743 0.29113 0.28643 0.27983 0.32723 0.35533
2517.316 0.31553 0.32513 0.36343 0.36683 0.33553 0.28913 0.34743 0.41673 0.40333 0.46283
2536.606 0.45683 0.45793 0.46653 0.49763 0.59453 0.59793 0.56513 0.56213 0.61763 0.61613
2555.896 0.60613 0.64413 0.64383 0.65853 0.69833 0.68133 0.61603 0.63933 0.68423 0.74143
2575.186 0.77123 0.76693 0.79913 0.87793 0.87773 0.82153 0.84853 0.88613 0.92293 0.89393
2594.475 0.93313 1.07303 1.12303 1.16303 1.23303 1.21303 1.21303 1.25303 1.28303 1.24303
2613.765 1.32303 1.43303 1.37303 1.36303 1.35303 1.31303 1.26303 1.27303 1.27303 1.23303
2633.055 1.22303 1.30303 1.25303 1.11303 1.09303 1.02303 1.00303 1.07303 1.06303 1.04303
2652.345 1.03303 0.97543 0.93373 0.96483 0.98433 0.96873 0.94173 0.91823 0.92703 0.88003
2671.634 0.86573 0.99143 1.06303 1.00303 1.06303 0.97183 0.78873 0.88333 0.96953 0.89383
2690.924 0.79653 0.74483 0.65443 0.71633 0.81813 0.73853 0.73773 0.80513 0.90353 0.87713
2710.214 0.76623 0.82223 0.84563 0.82393 0.89243 0.94453 0.97643 1.02303 1.00273 0.98023
2729.504 1.00303 1.01303 1.07303 1.14303 1.09303 1.13303 1.25303 1.26303 1.25303 1.29303
2748.794 1.34303 1.43303 1.49303 1.55303 1.55303 1.48303 1.47303 1.56303 1.67303 1.58303
2768.083 1.56303 1.61303 1.62303 1.57303 1.53303 1.61303 1.69303 1.57303 1.49303 1.59303
2787.373 1.69303 1.73303 1.63303 1.56303 1.50303 1.51303 1.59303 1.50303 1.46303 1.62303
2806.663 1.69303 1.63303 1.67303 1.92303 2.12303 2.06303 2.20303 2.43303 2.61303 2.73303
2825.953 2.86303 3.13303 3.33303 3.55303 3.85303 4.10303 4.36303 4.67303 4.93303 5.26303
2845.242 5.66303 6.09303 6.47303 6.87303 7.39303 7.68303 7.85303 8.05303 8.18303 7.97303
2864.532 7.52303 7.17303 6.84303 6.49303 6.14303 5.95303 5.96303 6.02303 6.11303 6.25303
2883.822 6.42303 6.61303 6.74303 6.84303 7.11303 7.41303 7.57303 7.59303 7.53303 7.51303
2903.112 7.54303 7.33303 7.14303 7.04303 6.80303 6.83303 6.98303 6.81303 6.68303 6.69303
2922.401 6.71303 6.57303 6.53303 6.58303 6.61303 6.83303 7.29303 7.88303 8.56303 9.35303
2941.691 10.223 11.113 11.913 12.403 12.493 12.513 12.333 11.813 11.103 10.393
2960.981 10.003 9.72303 9.47303 9.48303 9.44303 9.28303 9.08303 8.82303 8.35303 7.82303
2980.271 7.37303 6.77303 6.15303 5.68303 5.32303 5.00303 4.79303 4.66303 4.59303 4.63303
2999.561 4.76303 4.95303 5.12303 5.39303 5.72303 6.26303 6.93303 7.57303 8.07303 8.25303
3018.850 8.24303 8.07303 7.56303 6.83303 6.07303 5.20303 4.27303 3.59303 3.20303 2.88303
3038.140 2.55303 2.31303 2.23303 2.18303 2.10303 1.88303 1.78303 1.80303 1.63303 1.55303
3057.430 1.61303 1.64303 1.66303 1.60303 1.67303 1.77303 1.72303 1.68303 1.73303 1.67303
3076.720 1.65303 1.78303 1.79303 1.85303 2.01303 1.99303 1.98303 1.99303 1.95303 1.97303
3096.009 1.98303 1.99303 1.89303 1.77303 1.68303 1.51303 1.40303 1.34303 1.20303 1.08303
3115.299 0.99453 0.96663 0.95713 0.87953 0.87203 0.84193 0.82043 0.82673 0.76643 0.74463
3134.589 0.66813 0.62073 0.64313 0.67233 0.80313 0.83983 0.71713 0.60883 0.57133 0.60113
3153.879 0.61183 0.81393 0.85643 0.52483 0.45253 0.43573 0.26813 0.38123 0.58063 0.48093
3173.169 0.41363 0.53123 0.59933 0.52883 0.46033 0.50173 0.47553 0.46903 0.38503 0.24583
3192.458 0.32553 0.40123 0.33143 0.33903 0.29653 0.26903 0.45813 0.51873 0.43993 0.36073
3211.748 0.40863 0.43003 0.38663 0.40353 0.43913 0.37463 0.21153 0.22593 0.27273 0.34663
3231.038 0.32833 0.29713 0.45783 0.50073 0.41203 0.30403 0.30353 0.31273 0.34713 0.25393
3250.328 0.31393 0.36173 0.07288 0.11533 0.27923 0.31313 0.20523 0.16153 0.0667 0.06191
3269.617 0.13303 0.08405 0.01797 0.03656 0.12733 0.16173 0.19763 0.13683 0.19343 0.33823
3288.907 0.38993 0.45033 0.41423 0.25583 0.20673 0.28293 0.29313 0.21883 0.30653 0.32563
3308.197 0.13703 0.24673 0.33203 0.20243 0.18863 0.20063 0.39403 0.26203 0.011092 0.07862
3327.487 0.04507 0.09907 0.19363 0.11983 0.14583 0.17673 0.22813 0.29663 0.34103 0.23513
3346.777 0.05473 0.19513 0.35033 0.29833 0.26293 0.25283 0.24513 0.32763 0.34643 0.30223
3366.066 0.35753 0.40733 0.44293 0.51023 0.47813 0.53093 0.52893 0.52663 0.77163 0.99763
3385.356 1.07303 1.14303 1.25303 1.22303 1.14303 1.21303 1.26303 1.06303 0.91033 0.88153
3404.646 0.80983 0.65693 0.64053 0.68383 0.60073 0.44263 0.33853 0.38823 0.40453 0.35163
3423.936 0.25063 0.27823 0.42883 0.41023 0.24793 0.23543 0.29353 0.33653 0.33103 0.35453
3443.225 0.40363 0.29373 0.33713 0.51743 0.54603 0.45963 0.39573 0.31313 0.30013 0.33383
3462.515 0.27663 0.31733 0.22993 0.12763 0.21943 0.27833 0.27773 0.19623 0.24963 0.28723
3481.805 0.44193 0.43873 0.24633 0.17163 0.21873 0.39043 0.30583 0.18023 0.15813 0.24613
3501.095 0.39073 0.39893 0.36373 0.36403 0.34013 0.33543 0.21513 0.28353 0.46503 0.34423
3520.385 0.35063 0.30493 0.20853 0.32103 0.34983 0.28103 0.27253 0.25763 0.20873 0.26963
3539.674 0.23893 0.14183 0.18703 0.25723 0.25093 0.28623 0.30693 0.21273 0.19323 0.41043
3558.964 0.36143 0.19503 0.21683 0.24253 0.19573 0.08761 0.08944 0.18083 0.34683 0.45133
3578.254 0.34833 0.30623 0.38073 0.29253 0.24243 0.18993 0.36063 0.49293 0.37523 0.35223
3597.544 0.20983 0.12033 0.25453 0.32703 0.37823 0.46303 0.43473 0.27333 0.32703 0.47103
3616.833 0.32333 0.15283 0.28883 0.47183 0.37283 0.23293 0.24343 0.31043 0.31803 0.22103
3636.123 0.15063 0.18463 0.11503 0.19533 0.22153 0.15943 0.37803 0.47263 0.40253 0.28413
3655.413 0.25933 0.36713 0.35613 0.34873 0.46063 0.42143 0.36353 0.47343 0.50103 0.37403
3674.703 0.30483 0.27533 0.29753 0.31943 0.21973 0.31983 0.46893 0.28423 0.13303 0.26043
3693.993 0.38213 0.38103 0.29363 0.19183 0.25423 0.39743 0.35903 0.32143 0.25703 0.15503
3713.282 0.13563 0.24023 0.29193 0.26083 0.39703 0.45973 0.37683 0.23403 0.21703 0.19483
3732.572 0.15953 0.22423 0.32373 0.47513 0.36133 0.14173 0.13793 0.24653 0.33583 0.39523
3751.862 0.36953 0.31903 0.38793 0.39863 0.47963 0.47273 0.12273 0.0854 0.19333 0.26453
3771.152 0.23263 0.24973 0.26413 0.17883 0.19143 0.068 0.10693 0.11013 0.11793 0.21203
3790.441 0.11213 0.17893 0.14153 0 0.20663 0.21903 0.08312 0.16253 0.20693 0.20673
3809.731 0.27253 0.24363 0.18403 0.18073 0.07067 0.01522 0.16873 0.28013 0.24513 0.20103
3829.021 0.15113 0.08499 0.15003 0.35493 0.39983 0.23983 0.26903 0.27193 0.32183 0.39633
3848.311 0.17603 0.06679 0.35673 0.60383 0.31263 0.19673 0.31743 0.48213 0.39333 0.26733
3867.601 0.32833 0.36743 0.44973 0.32343 0.25203 0.38363 0.19923 0.03902 0.16493 0.28713
3886.890 0.30383 0.31643 0.41183 0.35423 0.22253 0.19083 0.19323 0.11123 0.19683 0.40403
3906.180 0.32103 0.24723 0.31453 0.26093 0.16623 0.20873 0.32513 0.46833 0.54203 0.35073
3925.470 0.31523 0.36263 0.27293 0.15943 0.11843 0.14633 0.14413 0.19993 0.28343 0.36333
3944.760 0.48513 0.60453 0.53543 0.37723 0.20713 0.13583 0.37023 0.28143 0.10913 0.28423
3964.049 0.31463 0.25523 0.13733 0.01949 0.15513 0.46763 0.53073 0.39193 0.25463 0.37423
3983.339 0.44003 0.52033 0.51763 0.35393 0.33313 0.34423 0.51243 0.50773 0.49683 0.64663
##END=
