##TITLE=2,3,4,5,6-Pentamethylbenzophenone
##JCAMP-DX=4.24
##DATA TYPE=INFRARED SPECTRUM
##ORIGIN=EPA-IR VAPOR PHASE LIBRARY
##OWNER=SRD/NIST
Collection (C) 2018 copyright by the U.S. Secretary of Commerce
on behalf of the United States of America. All rights reserved.
##CAS REGISTRY NO=20386-33-8
##MOLFORM=C 18 H 20 O
##$NIST SOURCE=MSDC-IR
##STATE=gas
##XUNITS=1/CM
##YUNITS=ABSORBANCE
##XFACTOR=1.
##YFACTOR=0.001
##DELTAX=1.92898
##FIRSTX=549.8
##LASTX=4000.7
##FIRSTY=5.949
##MAXX=4000.7
##MINX=549.759
##MAXY=0.180699
##MINY=0
##NPOINTS=1790
##XYDATA=(X++(Y..Y))
549.759 5.949 6.729 7.149 7.109 6.829 5.839 5.189 4.379 3.579 3.709
569.049 3.409 2.469 1.999 2.059 1.879 1.1662 1.0455 1.569 1.579 1.909
588.339 1.639 1.3246 1.559 1.4122 0.9275 1.289 1.779 1.589 1.799 1.849
607.628 1.4374 1.729 2.419 3.069 3.669 3.949 4.439 4.909 5.989 7.589
626.918 8.879 10.059 10.439 9.929 8.869 7.389 5.669 4.429 4.349 4.539
646.208 4.779 5.159 5.659 6.779 8.949 12.669 18.109 25.959 35.099 41.629
665.498 44.869 44.559 39.939 31.909 22.849 16.239 13.379 12.999 13.779 15.569
684.787 18.049 20.429 22.769 25.869 30.249 37.239 46.809 57.199 67.189 73.529
704.077 76.039 74.219 66.539 56.279 45.469 35.859 28.009 21.459 16.779 13.729
723.367 12.209 12.219 12.519 12.529 12.709 12.269 11.009 9.899 9.029 8.549
742.657 8.379 8.239 7.879 7.389 6.999 6.859 6.979 7.049 7.529 8.649
761.947 10.029 11.359 12.989 15.109 17.349 19.109 19.639 19.029 17.099 13.849
781.236 10.619 7.939 6.029 4.819 4.189 3.809 3.789 4.329 4.379 3.999
800.526 4.259 4.429 4.119 3.759 3.549 3.449 3.289 3.349 3.449 3.639
819.816 3.659 3.479 2.879 2.659 2.969 2.959 3.009 3.169 3.389 3.419
839.106 3.469 3.799 4.209 4.459 4.829 4.939 5.049 5.479 5.899 6.419
858.395 7.009 8.409 10.189 11.559 13.159 15.699 18.669 21.789 25.809 31.899
877.685 40.839 52.089 65.319 78.639 88.899 93.299 90.729 81.159 66.479 50.409
896.975 36.529 26.629 19.969 15.769 13.069 11.109 9.399 8.349 7.649 6.869
916.265 6.379 5.999 5.529 5.449 5.469 5.239 5.309 5.199 4.889 5.059
935.555 5.359 5.049 4.739 4.679 4.519 4.779 5.269 5.489 5.529 5.889
954.844 6.279 6.819 7.499 7.799 8.049 8.489 9.399 10.009 10.389 11.009
974.134 11.409 11.339 11.189 11.079 10.499 10.049 9.669 9.179 8.769 8.789
993.424 8.829 9.089 9.679 9.659 9.699 10.289 10.399 9.939 9.799 9.959
1012.714 11.069 12.229 13.429 15.129 16.979 18.839 19.699 19.119 17.009 14.629
1032.003 11.739 9.039 7.959 7.909 8.169 8.249 8.649 9.639 10.289 10.909
1051.293 12.439 13.219 14.069 16.179 17.679 18.869 20.119 20.559 21.149 21.799
1070.583 21.709 20.799 18.539 16.619 14.929 12.759 10.979 10.059 9.209 8.229
1089.873 7.599 6.639 6.769 7.279 6.349 6.589 7.119 5.949 5.929 6.929
1109.163 7.209 6.239 4.699 5.089 5.849 5.729 6.159 6.199 6.169 6.469
1128.452 6.229 5.589 4.659 4.929 5.879 6.129 6.259 6.139 6.089 6.909
1147.742 8.309 9.129 9.199 9.019 10.599 12.179 12.929 14.849 17.939 22.349
1167.032 29.429 40.359 53.429 66.329 74.689 75.839 71.399 59.569 43.439 31.399
1186.322 26.119 25.979 29.429 36.919 49.969 66.509 84.289 102.009 111.759 110.509
1205.611 102.579 86.719 66.349 47.759 33.679 25.299 20.309 17.399 16.369 15.199
1224.901 13.659 12.999 11.549 10.519 10.539 10.409 10.309 10.889 11.559 11.849
1244.191 12.999 15.109 17.719 21.259 26.629 34.019 43.659 56.039 69.629 80.829
1263.481 86.679 85.399 77.569 65.139 50.559 37.439 27.829 22.309 20.169 20.549
1282.771 22.789 26.089 30.579 36.729 43.549 50.049 55.539 59.319 60.899 60.409
1302.060 58.989 57.769 58.219 61.169 65.909 70.529 72.619 71.049 65.519 56.519
1321.350 45.579 34.969 26.669 21.049 17.469 14.929 13.299 12.389 11.679 11.049
1340.640 10.479 10.059 9.699 9.369 9.029 8.769 8.739 8.779 8.809 8.889
1359.930 9.029 9.209 9.459 9.809 10.139 10.559 11.159 11.899 12.849 13.959
1379.219 15.199 16.539 17.859 19.289 20.559 21.459 22.129 22.519 22.709 22.849
1398.509 22.809 22.769 22.819 22.909 23.229 23.789 24.529 25.399 26.359 27.069
1417.799 27.529 27.809 27.799 27.489 26.989 26.449 26.029 25.739 25.869 26.419
1437.089 27.589 30.089 34.219 39.599 44.869 48.349 49.289 47.739 43.789 38.059
1456.378 31.959 27.519 24.969 23.429 22.259 21.199 20.489 19.829 19.339 18.979
1475.668 18.389 17.959 17.629 17.259 16.739 16.269 16.029 15.539 15.189 15.099
1494.958 14.699 14.309 14.099 13.769 13.399 13.109 12.809 12.429 12.169 11.999
1514.248 11.779 11.529 11.569 11.539 11.349 11.439 11.369 11.299 11.489 11.689
1533.538 11.799 12.019 12.289 12.479 12.789 13.209 13.589 13.799 13.899 14.219
1552.827 14.509 14.499 14.679 15.099 15.399 15.929 16.619 17.249 18.009 19.049
1572.117 20.339 21.759 23.319 24.679 25.389 25.469 24.789 23.749 22.979 22.559
1591.407 23.069 23.999 24.749 24.959 24.309 22.419 19.709 16.999 14.559 12.719
1610.697 11.639 11.059 10.769 10.579 10.329 9.989 9.879 9.789 9.479 9.389
1629.986 9.729 10.069 10.239 10.689 11.239 11.829 12.189 12.389 12.779 13.279
1649.276 13.669 14.119 14.759 15.509 16.659 18.139 19.879 22.199 25.369 29.709
1668.566 35.739 43.749 54.629 69.509 88.409 110.289 133.859 156.139 173.129 180.699
1687.856 176.029 160.499 137.929 112.469 87.739 66.429 49.899 37.949 29.939 24.499
1707.146 20.799 18.239 16.349 14.809 13.479 12.389 11.629 11.109 10.609 10.229
1726.435 9.819 9.189 8.389 7.429 6.549 5.869 5.199 4.669 4.359 4.019
1745.725 3.769 3.669 3.519 3.409 3.359 3.299 3.389 3.559 3.649 3.829
1765.015 4.029 4.059 4.289 4.549 4.669 4.619 4.439 4.189 3.849 3.509
1784.305 3.329 3.269 3.119 2.949 2.859 2.879 2.939 3.219 3.439 3.649
1803.594 4.079 4.579 4.929 5.219 5.489 5.529 5.539 5.379 4.879 4.409
1822.884 3.969 3.459 3.179 2.849 2.569 2.399 2.199 2.059 1.979 1.949
1842.174 1.789 1.569 1.4818 1.3807 1.4012 1.549 1.499 1.489 1.549 1.509
1861.464 1.3804 1.3772 1.404 1.4182 1.509 1.509 1.599 1.559 1.4372 1.529
1880.754 1.669 1.769 1.819 1.839 1.899 2.129 2.379 2.669 3.009 3.139
1900.043 3.359 3.639 3.729 3.889 3.919 3.719 3.639 3.609 3.459 3.289
1919.333 3.129 2.979 2.689 2.359 2.139 2.069 2.049 2.049 2.109 2.029
1938.623 2.099 2.199 2.279 2.569 2.859 3.139 3.399 3.619 3.839 3.989
1957.913 3.969 3.969 3.949 3.769 3.649 3.559 3.419 3.129 2.809 2.469
1977.202 2.169 1.999 1.849 1.589 1.4034 1.4576 1.4678 1.4409 1.4414 1.4611
1996.492 1.45 1.3837 1.3174 1.2887 1.284 1.2785 1.191 1.1984 1.3096 1.2694
2015.782 1.1685 1.2139 1.3156 1.2192 1.1617 1.224 1.1896 1.1648 1.1136 1.2061
2035.072 1.2296 1.1088 1.1059 1.1767 1.2606 1.2319 1.1264 1.1185 1.1832 1.1459
2054.362 1.1787 1.1567 1.0919 1.1268 1.1216 1.0629 1.0016 1.0135 1.004 1.0431
2073.651 1.1257 1.0767 0.99 1.0683 1.1044 1.0822 1.1347 1.2542 1.2373 1.1315
2092.941 1.1101 1.0347 1.1556 1.2743 1.1982 1.1398 1.0542 1.0328 1.07 0.923
2112.231 0.9117 1.0268 1.0153 0.9788 1.0391 1.0375 0.9814 1.0927 1.0877 1.0317
2131.521 1.1586 1.2334 1.163 1.1804 1.0575 1.0017 1.126 1.0604 1.0392 1.0575
2150.810 1.0861 1.18 1.2234 1.1541 0.9897 0.9098 1.0131 1.1427 0.9746 0.7678
2170.100 0.8227 0.9572 0.9105 0.8969 0.9765 0.9021 0.9477 0.8949 0.794 0.8243
2189.390 0.839 0.8948 0.8661 0.811 0.8646 0.8799 0.8108 0.8631 0.9077 0.8017
2208.680 0.7333 0.7465 0.8438 0.9155 0.8747 0.924 0.9279 0.8704 0.8904 0.8662
2227.970 0.8675 0.8353 0.7366 0.8196 0.9698 0.9796 0.9346 0.8708 0.7052 0.7767
2247.259 1.0221 1.0714 0.9721 0.8556 0.7753 0.8321 0.9036 0.9708 1.055 0.9504
2266.549 0.9138 0.9792 0.9578 1.0203 1.1013 0.9992 0.9408 0.9961 0.9177 0.814
2285.839 0.9316 0.9736 0.972 0.8354 0.7242 0.8492 0.9037 0.8769 1.0497 1.1469
2305.129 1.0704 1.2097 1.346 1.4126 1.559 1.669 1.589 1.579 1.679 1.659
2324.418 1.569 1.447 1.559 1.739 1.749 1.749 1.679 1.589 1.529 1.4395
2343.708 1.3206 1.2207 1.1058 1.0198 1.0276 1.0546 1.0202 1.0614 1.1655 1.1771
2362.998 1.153 1.2772 1.3924 1.2902 1.2521 1.2893 1.3034 1.3977 1.539 1.559
2382.288 1.4807 1.4348 1.4374 1.559 1.629 1.539 1.4663 1.509 1.609 1.609
2401.578 1.589 1.659 1.579 1.3272 1.3881 1.569 1.4717 1.3651 1.4492 1.4378
2420.867 1.3598 1.2938 1.262 1.3578 1.3657 1.3727 1.328 1.2462 1.1952 1.2089
2440.157 1.3861 1.4324 1.3388 1.4312 1.4425 1.4093 1.4248 1.519 1.639 1.609
2459.447 1.599 1.529 1.539 1.489 1.4807 1.509 1.489 1.599 1.629 1.539
2478.737 1.4493 1.519 1.609 1.609 1.559 1.4673 1.3409 1.2412 1.2998 1.3392
2498.026 1.2962 1.2975 1.3449 1.3447 1.2887 1.241 1.3125 1.4662 1.4719 1.4505
2517.316 1.509 1.453 1.4395 1.2919 1.0312 1.0556 1.0884 1.1024 1.1629 1.1724
2536.606 1.2585 1.19 1.1033 1.1417 1.0534 0.9994 1.0249 1.1863 1.2125 1.1459
2555.896 1.0616 0.9453 0.9846 1.1103 1.1996 1.2764 1.1637 1.1344 1.2566 1.2075
2575.186 1.2627 1.3343 1.3559 1.4226 1.2874 1.2147 1.2845 1.2908 1.3916 1.4225
2594.475 1.3479 1.489 1.659 1.529 1.4476 1.3703 1.1354 1.195 1.3703 1.489
2613.765 1.4136 1.2692 1.3278 1.3439 1.4148 1.539 1.699 1.427 1.2434 1.3194
2633.055 1.1195 1.0937 1.3649 1.499 1.452 1.4889 1.4065 1.3085 1.2526 1.2109
2652.345 1.1316 1.117 1.2941 1.3241 1.2881 1.2193 1.1484 1.2389 1.2681 1.3533
2671.634 1.3904 1.2357 1.2602 1.4753 1.629 1.689 1.749 1.599 1.689 1.889
2690.924 1.719 1.669 1.829 1.809 1.689 1.729 1.779 1.819 1.729 1.599
2710.214 1.709 2.029 2.099 2.079 2.209 2.189 2.189 2.299 2.599 2.909
2729.504 3.079 3.469 3.939 4.079 4.399 4.809 4.799 4.809 4.719 4.459
2748.794 4.429 4.309 4.129 4.109 4.009 3.899 3.669 3.679 3.749 3.599
2768.083 3.669 3.759 3.749 3.789 3.769 3.839 3.909 4.009 4.199 4.179
2787.373 4.329 4.299 4.199 4.399 4.509 4.659 4.709 4.709 4.949 4.989
2806.663 4.999 5.019 5.039 5.379 5.629 5.719 5.929 6.149 6.549 6.989
2825.953 6.989 7.269 7.849 8.139 8.629 9.329 9.829 10.229 10.769 11.519
2845.242 12.509 13.519 14.379 15.449 16.749 18.209 19.849 21.439 23.559 25.859
2864.532 27.949 30.369 33.109 35.719 38.039 40.029 41.709 43.219 44.319 44.889
2883.822 45.219 45.429 45.589 45.569 45.399 45.229 44.989 45.099 45.499 46.079
2903.112 46.959 47.769 48.689 49.819 51.079 52.489 53.849 55.619 57.789 59.699
2922.401 61.699 64.209 66.749 69.219 71.939 74.249 76.009 77.509 78.439 78.579
2941.691 77.819 76.649 74.889 72.319 69.589 66.739 63.729 60.259 57.039 54.129
2960.981 50.909 47.889 45.139 42.839 40.579 38.529 37.099 35.829 34.819 34.129
2980.271 33.429 32.859 33.039 33.319 33.199 33.329 33.629 33.869 34.019 34.089
2999.561 33.959 33.829 33.569 33.299 32.909 32.639 32.889 32.799 32.759 33.029
3018.850 33.359 33.959 34.669 35.569 36.449 37.129 37.529 37.589 37.519 36.649
3038.140 35.349 34.129 32.699 31.449 30.409 29.599 29.279 29.399 30.169 31.469
3057.430 33.129 35.369 38.499 42.359 46.469 50.059 51.599 50.729 47.719 43.369
3076.720 38.869 35.239 33.049 32.079 31.439 29.979 27.749 25.009 21.979 19.049
3096.009 16.689 15.049 13.689 12.249 10.819 9.669 8.719 7.959 7.199 6.619
3115.299 6.339 5.989 5.869 5.839 5.559 5.119 4.779 4.789 4.589 4.389
3134.589 4.319 4.099 3.879 3.699 3.659 3.719 3.579 3.339 3.589 3.639
3153.879 3.589 3.819 3.759 3.519 3.369 3.219 3.059 2.949 2.699 2.329
3173.169 2.159 2.149 1.869 1.739 1.839 1.829 1.659 1.468 1.659 1.659
3192.458 1.589 1.679 1.476 1.3537 1.4565 1.3553 1.1526 1.157 1.2817 1.2445
3211.748 0.902 0.8693 0.9841 0.9769 1.107 1.1317 1.0699 0.9236 1.043 1.1029
3231.038 0.9163 1.0991 1.2077 1.1095 1.2256 1.0954 1.0918 1.1968 1.0404 0.9555
3250.328 1.0122 1.2151 1.1236 1.17 1.0517 0.6978 0.7785 0.9638 1.2219 1.4479
3269.617 1.3645 1.2192 0.7695 0.50941 0.595 0.7911 0.8206 0.7278 0.9345 1.0947
3288.907 1.2088 1.1654 0.8757 0.8482 1.104 1.2111 1.1038 0.9266 0.7757 0.57714
3308.197 0.7408 0.9856 0.8987 0.8036 0.8572 1.0986 1.3742 1.342 1.3017 1.4324
3327.487 1.549 1.4504 1.4403 1.619 1.619 1.879 2.129 2.179 2.459 2.849
3346.777 2.949 2.899 3.079 3.079 2.979 3.009 2.799 2.359 2.029 1.749
3366.066 1.619 1.629 1.669 1.599 1.376 1.1298 1.2818 1.292 1.2659 1.2726
3385.356 0.9316 0.8785 0.9132 0.9378 1.0946 1.1781 0.9635 0.8573 0.771 0.7536
3404.646 0.8445 0.9679 1.1011 0.9076 0.8784 0.8966 0.8377 0.8056 0.9305 0.8857
3423.936 0.7686 0.8833 0.8031 0.6957 0.6086 0.6221 0.445 0.4482 0.9289 0.7856
3443.225 0.51991 0.6748 0.6442 0.51502 0.6908 0.7381 0.588 0.38 0.3 0.4476
3462.515 0.489354 0.7166 0.8914 0.6616 0.6531 0.8388 0.6905 0.7318 0.7564 0.7376
3481.805 0.56082 0.352 0.329 0.54829 0.58067 0.498106 0.862 0.9134 0.51927 0.356
3501.095 0.6491 0.7878 0.5933 0.6334 0.7966 0.761 0.6157 0.58399 0.51161 0.233
3520.385 0.5187 0.8012 0.6178 0.481 0.54254 0.5921 0.285 0.368 0.51512 0.493998
3539.674 0.53767 0.3963 0.490433 0.4278 0.336 0.36 0.51663 0.7357 0.6797 0.6289
3558.964 0.7389 0.6682 0.285 0.279 0.288 0.28 0.50202 0.4476 0.4351 0.53787
3578.254 0.51443 0.346 0.334 0.278 0.161 0.113 0.358 0.7327 0.495747 0.204
3597.544 0.4625 0.52696 0.326 0.297 0.372 0.4579 0.3968 0.625 0.6353 0.439
3616.833 0.4287 0.4375 0.53816 0.7601 0.7748 0.5433 0.4411 0.343 0.136 0
3636.123 0.27 0.4779 0.6018 0.7285 0.7937 0.7694 0.52179 0.41 0.4696 0.50926
3655.413 0.6369 0.8448 0.9371 0.8486 0.52196 0.498794 0.56804 0.36 0.31 0.371
3674.703 0.311 0.52812 0.53344 0.4047 0.4382 0.4295 0.498542 0.4756 0.7569 0.7312
3693.993 0.4236 0.6941 0.7647 0.54277 0.6302 0.8847 0.9628 0.8205 0.7246 0.5936
3713.282 0.495927 0.7466 0.8894 0.7639 0.7887 0.8321 0.7879 0.7327 0.50344 0.394
3732.572 0.4526 0.6964 0.6556 0.4384 0.6905 0.6553 0.50076 0.6592 0.68 0.48546
3751.862 0.306 0.268 0.52111 0.58319 0.6008 0.7458 0.6805 0.6415 0.6231 0.373
3771.152 0.50371 0.8791 0.6319 0.4399 0.367 0.4486 0.7655 0.7348 0.48382 0.38
3790.441 0.328 0.216 0.378 0.316 0.255 0.6506 0.7355 0.57424 0.50887 0.442
3809.731 0.53082 0.53589 0.4608 0.37 0.3942 0.54834 0.50723 0.54367 0.57356 0.50547
3829.021 0.329 0.241 0.316 0.339 0.55569 0.5327 0.4316 0.4282 0.6387 0.9712
3848.311 0.9576 0.7882 0.54715 0.56672 0.7326 0.6253 0.5696 0.6705 0.605 0.50386
3867.601 0.6645 0.6711 0.6004 0.7202 0.6464 0.663 0.6783 0.57055 0.5972 0.58688
3886.890 0.3969 0.3929 0.54222 0.7014 0.7725 0.8008 0.7164 0.47977 0.3894 0.7078
3906.180 0.9431 0.7829 0.8893 1.0507 0.6791 0.334 0.53928 0.6158 0.7334 0.7563
3925.470 0.726 0.7769 0.6876 0.7706 0.7347 0.8875 0.9642 1.1444 1.0927 0.7122
3944.760 0.9637 1.0474 0.7 0.6663 0.8877 0.9766 0.818 0.7822 1.0327 0.9219
3964.049 0.6408 0.8697 0.8708 0.7863 1.0719 0.8421 0.6827 1.174 1.0592 0.7366
3983.339 0.6519 0.497163 0.9772 1.1651 0.8125 0.8977 0.684 0.298 0.52295 0.8585
##END=
