##TITLE=4-Chlorobenzyl benzoate
##JCAMP-DX=4.24
##DATA TYPE=INFRARED SPECTRUM
##ORIGIN=EPA-IR VAPOR PHASE LIBRARY
##OWNER=SRD/NIST
Collection (C) 2018 copyright by the U.S. Secretary of Commerce
on behalf of the United States of America. All rights reserved.
##CAS REGISTRY NO=20386-93-0
##MOLFORM=C 14 H 11 Cl O 2
##$NIST SOURCE=MSDC-IR
##STATE=gas
##XUNITS=1/CM
##YUNITS=ABSORBANCE
##XFACTOR=1.
##YFACTOR=0.001
##DELTAX=1.92934
##FIRSTX=549.9
##LASTX=3999.5
##FIRSTY=13.45
##MAXX=3999.53
##MINX=549.863
##MAXY=0.45446
##MINY=0
##NPOINTS=1789
##XYDATA=(X++(Y..Y))
549.863 13.45 12.74 11.66 10.16 8.78 7.76 6.86 6.19 5.49 4.83
569.156 4.39 4.12 3.89 3.61 3.3825 3.2503 3.2244 2.9727 2.8039 2.7921
588.450 2.54735 2.54353 2.6788 2.7026 2.7937 2.8067 2.692 2.7013 2.8023 2.8301
607.743 2.9158 3.1208 3.3446 3.63 3.79 3.86 3.88 3.71 3.442 3.3561
627.037 3.3272 3.3449 3.55 3.72 3.94 4.21 4.54 4.96 5.33 5.73
646.330 6.26 6.74 7.25 7.84 8.28 8.84 9.51 10.07 10.63 11.31
665.624 12 12.61 13.38 14.41 15.53 16.69 18 19.5 20.98 22.27
684.917 23.52 24.89 26.33 28.18 30.83 34.52 39.25 44.97 51.55 58.61
704.210 65.5 71.5 75.33 75.22 71.31 65.23 58.07 50.67 43.58 37.17
723.504 31.5 26.7 22.69 19.2 16.33 13.91 11.9 10.45 9.31 8.32
742.797 7.67 7.14 6.64 6.29 6.09 5.96 5.83 5.78 5.81 5.87
762.091 5.91 6 6.1 6.28 6.55 6.88 7.47 8.21 9.05 10.09
781.384 11.36 12.93 14.7 16.77 19.1 21.54 23.93 25.98 27.65 29.08
800.678 30.38 31.59 32.86 34.24 35.63 36.97 38.05 38.69 38.71 38.01
819.971 36.7 34.84 32.58 30.34 28.26 26.53 25.15 24.04 23.26 22.63
839.264 22.06 21.47 20.68 19.55 18.2 16.75 15.27 13.93 12.84 11.98
858.558 11.25 10.65 10.25 10.03 9.85 9.69 9.62 9.63 9.65 9.71
877.851 9.81 9.82 9.79 9.8 9.72 9.61 9.4 9.06 8.69 8.27
897.145 7.95 7.7 7.41 7.18 7.02 6.9 6.89 6.97 7.02 7.08
916.438 7.27 7.54 7.84 8.26 8.84 9.54 10.32 11.21 12.19 12.99
935.732 13.59 13.84 13.82 13.62 13.32 13.26 13.5 13.89 14.43 14.98
955.025 15.47 15.87 16.08 16.15 16.06 15.81 15.53 15.15 14.68 14.19
974.318 13.63 13 12.34 11.8 11.28 10.81 10.5 10.29 10.21 10.29
993.612 10.5 10.87 11.51 12.37 13.53 15.23 17.87 22.16 29.59 41.72
1012.905 56.49 67.19 71.04 70.76 66.44 61.14 58.96 56.83 52.26 44.42
1032.199 33.22 23.34 17.94 15.6 14.63 14.5 15.01 15.98 17.56 19.81
1051.492 22.9 27.07 32.46 39.17 46.92 55.12 62.71 68.47 71.34 71.15
1070.786 69.43 68.07 68.85 73.87 84.38 100.94 123.8 152.71 186.25 220.52
1090.079 249.07 265.09 266.08 254.3 235.23 216.45 202.83 193.87 185.76 174.61
1109.372 158.72 138.78 117.3 96.79 79.06 64.94 54.29 46.38 40.21 35.47
1128.666 31.73 28.49 25.83 23.56 21.67 20.19 18.83 17.51 16.52 15.72
1147.959 14.9 14.37 14.11 13.73 13.56 13.7 13.79 14.16 15 16.34
1167.253 18.71 22.74 29.46 39.18 49.17 55.64 56.92 52.64 43.39 32.79
1186.546 24.53 19.28 16.44 15.11 14.7 15.02 15.89 17.11 18.44 19.67
1205.840 20.8 21.8 22.53 23.05 23.76 24.86 26.27 28.78 32.51 36.82
1225.133 42.27 49.36 57.88 67.69 78.44 89.18 99.14 107.6 113.91 118.96
1244.426 124.34 132.22 144.93 164.41 192.62 230.57 277.8 331.59 385.96 430.99
1263.720 454.46 448.4 413.06 355.89 289.63 227.13 176.02 137.8 110.26 90.09
1283.013 74.97 63.45 54.42 47.48 42.02 37.81 34.58 32.09 30.29 28.98
1302.307 28.31 28.36 29.09 30.74 33.06 34.86 34.98 33.04 29.34 24.59
1321.600 20.02 16.72 14.67 13.4 12.58 12.07 11.72 11.44 11.27 11.23
1340.894 11.31 11.42 11.59 11.82 12.12 12.6 13.19 13.94 14.87 15.92
1360.187 17.23 18.77 20.43 22.07 23.48 24.39 24.56 23.99 22.65 20.69
1379.480 18.48 16.28 14.32 12.72 11.55 10.7 10.04 9.66 9.46 9.35
1398.774 9.35 9.46 9.63 9.79 9.97 10.15 10.23 10.21 10.1 9.94
1418.067 9.74 9.57 9.47 9.38 9.36 9.51 9.76 10.14 10.68 11.38
1437.361 12.33 13.59 15.25 17.46 20.24 23.56 26.95 29.45 30.42 29.67
1456.654 27.41 24.44 21.81 19.91 18.67 17.92 17.5 17.35 17.47 17.93
1475.948 18.87 20.43 22.75 26.05 30.41 36.02 42.85 50.42 57.6 62.39
1495.241 62.9 58.76 50.85 40.8 30.96 23.19 17.85 14.36 12.07 10.48
1514.534 9.28 8.43 7.77 7.17 6.72 6.39 6.16 5.95 5.8 5.67
1533.828 5.58 5.56 5.51 5.53 5.61 5.65 5.68 5.75 5.82 5.94
1553.121 6.04 6.11 6.22 6.3 6.52 6.74 7 7.38 7.74 8.14
1572.415 8.68 9.28 9.87 10.52 11.22 11.91 12.6 13.44 14.44 15.64
1591.708 17.07 18.67 20.34 21.87 22.89 22.98 21.96 20.05 17.57 15.01
1611.002 12.76 11.01 9.86 9.12 8.55 8.19 7.92 7.64 7.46 7.38
1630.295 7.37 7.41 7.48 7.59 7.73 7.83 7.81 7.75 7.61 7.33
1649.588 6.99 6.63 6.28 6.01 5.77 5.56 5.41 5.26 5.15 5.12
1668.882 5.14 5.21 5.36 5.54 5.76 6.1 6.5 6.92 7.32 7.8
1688.175 8.35 8.87 9.41 9.98 10.52 11.07 11.61 12.15 12.69 13.28
1707.469 14.07 15.17 16.68 18.7 21.3 24.6 28.85 34.29 41.27 50.36
1726.762 62.18 77.31 96.28 118.91 144.23 169.84 191.91 206.47 211.5 207.01
1746.056 193.01 170.58 143.69 116.72 92.75 73.09 57.85 46.54 38.26 32.24
1765.349 27.83 24.55 22.12 20.23 18.76 17.58 16.44 15.34 14.29 13.33
1784.642 12.5 11.8 11.32 10.96 10.63 10.32 10.01 9.76 9.53 9.24
1803.936 8.92 8.67 8.45 8.21 7.89 7.5 7.04 6.49 5.98 5.5
1823.229 5.09 4.78 4.53 4.32 4.18 4.05 3.92 3.8 3.7 3.6
1842.523 3.51 3.4466 3.449 3.47 3.48 3.4589 3.4543 3.49 3.54 3.62
1861.816 3.7 3.83 3.98 4.15 4.36 4.52 4.66 4.88 5.12 5.38
1881.110 5.59 5.81 6.05 6.18 6.36 6.6 6.74 6.79 6.83 6.88
1900.403 6.84 6.76 6.71 6.6 6.46 6.29 6.11 5.96 5.8 5.62
1919.696 5.4 5.17 4.88 4.53 4.23 4.02 3.82 3.7 3.66 3.61
1938.990 3.61 3.62 3.67 3.81 3.95 4.08 4.21 4.35 4.49 4.57
1958.283 4.59 4.61 4.64 4.65 4.58 4.49 4.4 4.26 4.03 3.78
1977.577 3.54 3.2647 3.0635 2.9184 2.7719 2.7136 2.6981 2.6531 2.5893 2.54536
1996.870 2.5064 2.51154 2.49763 2.46197 2.45405 2.387 2.342 2.3653 2.3896 2.415
2016.164 2.4411 2.4456 2.46412 2.50634 2.5837 2.6179 2.6198 2.6394 2.7004 2.7653
2035.457 2.8081 2.914 2.9549 2.9515 2.9949 3.0967 3.1772 3.2046 3.2233 3.2503
2054.750 3.3246 3.3855 3.4194 3.4381 3.47 3.46 3.4401 3.439 3.4514 3.4446
2074.044 3.3722 3.2874 3.2559 3.2251 3.1899 3.113 3.0276 2.9824 2.9272 2.8842
2093.337 2.8219 2.7374 2.6521 2.6315 2.6164 2.55874 2.51225 2.4903 2.46852 2.4263
2112.631 2.4212 2.4419 2.4227 2.3709 2.349 2.337 2.3683 2.3716 2.34 2.354
2131.924 2.341 2.276 2.235 2.237 2.261 2.301 2.314 2.272 2.229 2.229
2151.218 2.238 2.236 2.225 2.198 2.218 2.237 2.216 2.236 2.222 2.17
2170.511 2.211 2.27 2.259 2.266 2.265 2.224 2.215 2.22 2.238 2.24
2189.804 2.225 2.24 2.27 2.237 2.2 2.169 2.165 2.194 2.179 2.175
2209.098 2.169 2.145 2.141 2.153 2.167 2.154 2.155 2.14 2.105 2.117
2228.391 2.124 2.111 2.152 2.193 2.187 2.205 2.198 2.171 2.157 2.141
2247.685 2.124 2.124 2.149 2.149 2.096 2.104 2.141 2.173 2.203 2.217
2266.978 2.193 2.221 2.275 2.268 2.358 2.4195 2.4111 2.4448 2.4374 2.46161
2286.272 2.47557 2.4184 2.4153 2.4369 2.418 2.3995 2.4059 2.3965 2.3711 2.327
2305.565 2.305 2.321 2.3636 2.4054 2.4597 2.54211 2.5972 2.6805 2.7649 2.7718
2324.858 2.7116 2.5855 2.4937 2.49894 2.52747 2.5681 2.6094 2.617 2.6299 2.6292
2344.152 2.6081 2.5851 2.564 2.5674 2.5747 2.5737 2.5766 2.54021 2.5259 2.49054
2363.445 2.4156 2.4497 2.4467 2.3629 2.329 2.291 2.258 2.246 2.192 2.14
2382.739 2.121 2.106 2.077 2.064 2.061 2.011 2.03 2.05 1.992 1.963
2402.032 1.963 1.97 1.954 1.973 2.002 1.997 1.999 1.991 1.944 1.93
2421.326 1.936 1.93 1.931 1.883 1.892 1.897 1.867 1.891 1.881 1.876
2440.619 1.902 1.872 1.869 1.894 1.901 1.891 1.851 1.832 1.828 1.85
2459.912 1.862 1.821 1.797 1.838 1.882 1.864 1.883 1.89 1.833 1.771
2479.206 1.748 1.76 1.777 1.781 1.796 1.842 1.867 1.862 1.859 1.875
2498.499 1.874 1.867 1.895 1.945 1.965 1.986 2.006 2.02 1.993 2.049
2517.793 2.111 2.082 2.055 2.055 2.054 2.059 2.061 2.047 2.03 2.029
2537.086 2.101 2.074 1.985 1.933 1.944 1.956 1.918 1.915 1.937 1.965
2556.380 1.946 1.89 1.868 1.921 1.968 1.968 1.964 1.935 1.908 1.894
2575.673 1.864 1.908 1.92 1.889 1.93 1.961 1.985 1.976 1.967 1.996
2594.966 2.011 2.029 2.055 2.007 1.972 1.965 1.952 1.92 1.926 1.917
2614.260 1.87 1.865 1.846 1.798 1.724 1.734 1.804 1.765 1.721 1.698
2633.553 1.638 1.555 1.521 1.541 1.488 1.43 1.42 1.42 1.42 1.462
2652.847 1.498 1.481 1.472 1.479 1.473 1.43 1.45 1.497 1.45 1.38
2672.140 1.42 1.44 1.39 1.42 1.46 1.501 1.515 1.471 1.472 1.463
2691.434 1.461 1.477 1.477 1.491 1.516 1.512 1.501 1.529 1.555 1.48
2710.727 1.42 1.475 1.507 1.493 1.511 1.491 1.45 1.44 1.47 1.43
2730.020 1.41 1.38 1.42 1.529 1.472 1.463 1.478 1.498 1.558 1.53
2749.314 1.5 1.535 1.53 1.523 1.603 1.646 1.616 1.568 1.601 1.596
2768.607 1.536 1.52 1.48 1.46 1.44 1.42 1.37 1.39 1.465 1.41
2787.901 1.39 1.41 1.42 1.44 1.558 1.626 1.59 1.554 1.644 1.684
2807.194 1.646 1.624 1.677 1.719 1.707 1.8 1.878 1.892 1.945 2.045
2826.488 2.159 2.219 2.191 2.228 2.289 2.317 2.322 2.249 2.222 2.249
2845.781 2.206 2.331 2.54466 2.51123 2.45509 2.53707 2.6014 2.6652 2.7432 2.7171
2865.074 2.8162 2.9169 2.9291 3.0218 3.1681 3.352 3.5 3.67 3.94 4.33
2884.368 4.68 4.94 5.17 5.37 5.66 5.9 5.96 5.92 5.88 5.73
2903.661 5.47 5.32 5.14 4.87 4.57 4.42 4.31 4.26 4.2 4.07
2922.955 4.03 4.09 4.27 4.59 4.86 5 5.33 5.83 6.35 7
2942.248 7.67 8.46 9.52 10.64 11.79 13.02 14.22 15.14 15.92 16.48
2961.542 16.5 16.09 15.57 14.8 13.83 12.9 11.89 10.9 10.03 9.43
2980.835 8.89 8.41 7.87 7.32 6.99 6.66 6.21 5.92 5.75 5.43
3000.128 5.27 5.19 5.17 5.2 5.18 5.15 5.19 5.35 5.43 5.55
3019.422 5.69 5.87 6.38 7.14 8.03 9 10.03 11.05 12.14 13.14
3038.715 13.85 14.38 14.83 14.99 14.82 14.64 14.38 14.01 13.77 13.74
3058.009 13.99 14.64 15.6 16.96 18.42 19.96 21.84 23.68 25.22 26.27
3077.302 26.01 24.38 21.98 19.25 16.84 15.2 14.42 14.22 14.19 14
3096.596 13.68 13.12 12.22 11.2 10.16 9.18 8.19 7.2 6.24 5.31
3115.889 4.36 3.65 3.018 2.318 2.103 1.903 1.568 1.42 1.27 1.05
3135.182 0.99 0.93 0.86 0.83 0.84 0.9 0.9 0.92 0.93 0.95
3154.476 0.96 0.93 0.8 0.76 0.92 0.97 0.78 0.78 0.86 0.76
3173.769 0.73 0.71 0.66 0.58 0.51 0.46 0.36 0.27 0.28 0.32
3193.063 0.31 0.25 0.23 0.25 0.28 0.47 0.49 0.32 0.18 0.03
3212.356 0.13 0.21 0.15 0.16 0.15 0.14 0.11 0.14 0.22 0.19
3231.650 0.17 0.17 0.2 0.26 0.2 0.14 0.11 0.09 0.09 0.11
3250.943 0.1 0.19 0.1 0.12 0.23 0.23 0.17 0.07 0.05 0
3270.236 0.1 0.14 0.05 0.06 0.1 0.07 0.04 0.1 0.04 0.13
3289.530 0.22 0.16 0.18 0.17 0.19 0.13 0.2 0.29 0.2 0.16
3308.823 0.2 0.34 0.41 0.23 0.24 0.34 0.31 0.26 0.3 0.42
3328.117 0.46 0.48 0.57 0.6 0.5 0.46 0.5 0.54 0.55 0.51
3347.410 0.41 0.43 0.52 0.5 0.48 0.49 0.43 0.42 0.37 0.27
3366.704 0.34 0.43 0.39 0.5 0.51 0.44 0.49 0.5 0.57 0.52
3385.997 0.41 0.38 0.41 0.51 0.44 0.28 0.37 0.51 0.49 0.41
3405.290 0.48 0.54 0.6 0.57 0.53 0.62 0.56 0.46 0.5 0.55
3424.584 0.53 0.56 0.62 0.59 0.64 0.68 0.69 0.68 0.6 0.78
3443.877 1.21 1.28 1.32 1.498 1.481 1.552 1.753 1.856 2.044 2.267
3463.171 2.4074 2.335 2.175 2.11 2.058 1.914 1.806 1.68 1.493 1.41
3482.464 1.24 1.14 1.19 1.15 1.06 0.96 0.85 0.92 0.88 0.84
3501.758 0.89 0.77 0.78 0.88 0.72 0.69 0.77 0.77 0.84 0.88
3521.051 0.92 0.92 0.81 0.83 0.92 0.84 0.87 0.95 0.94 0.93
3540.344 0.82 0.74 0.86 0.8 0.67 0.87 1 0.92 0.89 0.92
3559.638 0.89 0.96 1 0.88 0.79 0.7 0.68 0.81 0.82 0.78
3578.931 0.82 0.91 0.93 0.89 0.8 0.84 0.96 0.9 0.86 0.96
3598.225 1 0.93 1.08 1.14 0.91 0.89 1.02 0.95 0.93 1.06
3617.518 1.07 1 1.03 1.09 1.03 0.99 1.08 1.04 1.01 1.13
3636.812 1.1 1.09 1.25 1.26 1.24 1.22 1.15 1.31 1.26 1.21
3656.105 1.3 1.32 1.3 1.2 1.24 1.31 1.37 1.34 1.32 1.52
3675.398 1.521 1.32 1.33 1.29 1.26 1.36 1.34 1.37 1.38 1.37
3694.692 1.42 1.37 1.28 1.32 1.31 1.32 1.44 1.494 1.45 1.511
3713.985 1.55 1.467 1.585 1.704 1.639 1.45 1.42 1.561 1.578 1.515
3733.279 1.43 1.41 1.46 1.45 1.45 1.46 1.34 1.34 1.46 1.3
3752.572 1.22 1.465 1.479 1.27 1.3 1.43 1.42 1.32 1.29 1.28
3771.866 1.33 1.46 1.39 1.32 1.36 1.38 1.44 1.47 1.41 1.35
3791.159 1.37 1.36 1.27 1.23 1.29 1.34 1.35 1.37 1.4 1.33
3810.452 1.29 1.37 1.4 1.37 1.31 1.29 1.42 1.481 1.39 1.33
3829.746 1.28 1.24 1.37 1.36 1.21 1.22 1.26 1.33 1.39 1.38
3849.039 1.44 1.474 1.46 1.44 1.43 1.43 1.528 1.491 1.36 1.34
3868.333 1.33 1.505 1.485 1.4 1.49 1.481 1.462 1.541 1.582 1.509
3887.626 1.48 1.517 1.548 1.586 1.552 1.44 1.45 1.45 1.4 1.476
3906.920 1.576 1.568 1.582 1.654 1.604 1.541 1.49 1.48 1.512 1.514
3926.213 1.465 1.38 1.44 1.507 1.56 1.589 1.469 1.522 1.606 1.524
3945.506 1.531 1.541 1.516 1.509 1.513 1.539 1.596 1.593 1.496 1.37
3964.800 1.41 1.582 1.585 1.567 1.611 1.61 1.597 1.569 1.506 1.517
3984.093 1.566 1.597 1.559 1.489 1.504 1.567 1.623 1.535 1.51
##END=
