##TITLE=2-Phenyl-1-butene
##JCAMP-DX=4.24
##DATA TYPE=INFRARED SPECTRUM
##ORIGIN=NIST Mass Spectrometry Data Center
##OWNER=NIST Standard Reference Data Program
Collection (C) 2018 copyright by the U.S. Secretary of Commerce
on behalf of the United States of America. All rights reserved.
##CAS REGISTRY NO=2039-93-2
##MOLFORM=C 10 H 12
##$NIST SOURCE=MSDC-IR
##SPECTROMETER/DATA SYSTEM=HP-GC/MS/IRD
##STATE=gas
##XUNITS=1/CM
##YUNITS=ABSORBANCE
##XFACTOR=1.0
##YFACTOR=0.000001200
##DELTAX=4.0
##FIRSTX=550.0
##LASTX=3846.0
##FIRSTY=0.000325
##MAXX=3846
##MINX=550
##MAXY=0.012
##MINY=0
##NPOINTS=825
##XYDATA=(X++(Y..Y))
550.0 271 372 369 315 212 273 326 279 204 228
590.0 271 218 216 247 265 274 353 385 381 344
630.0 323 428 446 448 508 525 613 781 949 1227
670.0 1549 1968 2659 3629 4795 6052 7194 7983 8077 7348
710.0 6175 4903 3770 2893 2233 1818 1561 1414 1426 1603
750.0 1947 2451 3132 3886 4525 4966 4854 4115 3229 2439
790.0 1781 1294 1006 802 622 518 421 360 321 315
830.0 313 292 285 318 361 421 498 621 803 1003
870.0 1258 1610 2090 2756 3696 4756 5908 6841 6620 5620
910.0 4578 3444 2346 1534 1017 734 556 430 357 284
950.0 234 255 263 253 254 255 243 245 285 299
990.0 347 433 510 590 700 826 1014 1303 1505 1509
1030.0 1433 1279 980 749 705 763 843 917 989 1054
1070.0 1085 1114 1090 1006 876 750 683 649 628 616
1110.0 552 455 395 324 240 193 166 115 89 99
1150.0 115 76 41 39 56 59 76 94 100 103
1190.0 60 59 81 50 23 27 51 84 124 182
1230.0 232 240 242 246 269 297 344 417 493 552
1270.0 598 666 744 846 980 1080 1117 1086 995 854
1310.0 693 577 530 507 476 448 430 432 433 437
1350.0 469 526 592 701 838 982 1110 1200 1247 1216
1390.0 1158 1090 1046 1031 1038 1085 1155 1233 1345 1462
1430.0 1606 1755 1908 2045 2164 2286 2361 2415 2418 2368
1470.0 2272 2205 2231 2405 2710 2906 2874 2618 2144 1529
1510.0 1011 754 644 599 571 558 542 512 497 492
1550.0 497 531 580 660 775 898 1001 1079 1209 1374
1590.0 1586 1801 1916 1924 1894 1874 1924 2090 2319 2504
1630.0 2545 2408 2107 1697 1270 930 664 508 429 376
1670.0 369 390 383 340 317 278 221 191 183 171
1710.0 156 169 186 204 221 255 306 330 342 349
1750.0 339 309 268 255 258 260 288 365 505 666
1790.0 824 966 1014 1011 935 799 660 524 405 305
1830.0 222 175 152 153 174 189 212 248 290 326
1870.0 372 421 449 450 419 362 283 221 187 155
1910.0 148 152 178 245 322 391 429 449 485 512
1950.0 499 447 370 274 179 128 111 85 68 62
1990.0 68 73 68 59 54 54 39 36 40 45
2030.0 45 38 23 17 15 19 32 23 17 23
2070.0 20 25 30 29 31 33 27 12 10 22
2110.0 8 0 11 25 39 31 25 30 23 12
2150.0 25 29 26 25 33 42 35 50 64 43
2190.0 26 27 39 54 47 41 34 38 34 22
2230.0 41 45 42 51 55 45 40 42 46 50
2270.0 49 52 59 73 69 59 47 40 62 92
2310.0 115 113 110 116 112 119 112 106 118 113
2350.0 111 99 88 93 89 84 82 90 102 92
2390.0 68 66 72 73 61 64 86 84 63 54
2430.0 75 74 62 76 71 62 67 60 58 68
2470.0 58 55 74 76 70 79 80 88 95 83
2510.0 77 90 89 84 82 75 90 86 70 80
2550.0 100 103 90 73 84 91 66 59 86 97
2590.0 105 122 126 115 101 97 93 91 122 142
2630.0 118 109 119 135 123 104 131 131 118 134
2670.0 138 121 139 169 147 133 154 174 177 178
2710.0 179 184 222 226 213 248 251 257 284 279
2750.0 257 231 236 251 277 272 249 269 289 303
2790.0 310 315 357 389 404 446 505 545 569 633
2830.0 708 780 889 1011 1137 1277 1442 1634 1859 2108
2870.0 2377 2710 3012 3322 3603 3740 3787 3805 3753 3693
2910.0 3665 3728 3886 4132 4515 5027 5624 6282 6750 6848
2950.0 6715 6544 6486 6847 7828 9062 9857 10000 9338 7884
2990.0 6191 4826 3933 3375 3091 3038 3121 3312 3629 4000
3030.0 4284 4431 4437 4353 4286 4411 4894 5648 6406 6916
3070.0 7175 7313 7364 7257 7053 6717 6099 5072 3906 2973
3110.0 2230 1647 1218 942 754 640 576 543 543 502
3150.0 443 409 366 330 325 315 283 231 211 234
3190.0 240 214 196 196 202 183 195 203 210 222
3230.0 189 165 136 135 171 147 120 119 123 149
3270.0 149 135 142 131 128 132 137 125 111 102
3310.0 117 117 113 129 102 80 69 87 144 147
3350.0 136 149 146 147 125 95 87 95 93 72
3390.0 93 135 147 106 84 112 141 155 126 84
3430.0 116 154 149 155 137 92 75 90 132 150
3470.0 116 83 75 99 117 110 99 71 57 77
3510.0 98 78 50 45 48 83 82 82 123 94
3550.0 74 70 96 120 89 46 21 58 67 56
3590.0 92 93 91 101 105 117 105 103 129 147
3630.0 164 146 110 97 123 171 158 124 136 144
3670.0 109 137 167 131 97 118 186 186 150 128
3710.0 101 101 132 158 146 141 165 150 148 167
3750.0 138 134 159 135 134 152 166 191 193 171
3790.0 159 179 172 171 201 178 137 150 184 164
3830.0 169 158 136 140 119
##END=
