##TITLE=3-Methoxyphenethylamine
##JCAMP-DX=4.24
##DATA TYPE=INFRARED SPECTRUM
##ORIGIN=EPA-IR VAPOR PHASE LIBRARY
##OWNER=SRD/NIST
Collection (C) 2018 copyright by the U.S. Secretary of Commerce
on behalf of the United States of America. All rights reserved.
##CAS REGISTRY NO=2039-67-0
##MOLFORM=C 9 H 13 N O
##$NIST SOURCE=MSDC-IR
##STATE=gas
##XUNITS=1/CM
##YUNITS=ABSORBANCE
##XFACTOR=1.
##YFACTOR=0.001
##DELTAX=1.92898
##FIRSTX=549.8
##LASTX=4000.7
##FIRSTY=5.03
##MAXX=4000.7
##MINX=549.759
##MAXY=0.07545
##MINY=0.00007252
##NPOINTS=1790
##XYDATA=(X++(Y..Y))
549.759 5.03 5.16 5.34 5.31 5.29 5.29 5.07 5.15 5.08 4.97
569.049 5.09 4.63 4.52 4.68 4.49 4.51 4.61 4.51 4.31 4.03
588.339 3.8 3.81 3.61 3.78 3.88 3.72 3.89 3.65 3.36 3.54
607.628 3.66 3.63 3.58 3.71 4.09 4.02 3.89 4.01 3.93 4.01
626.918 4.14 4.06 4.03 4.14 4.32 4.28 4.45 4.54 4.45 4.54
646.208 4.57 4.47 4.52 4.79 4.84 5 5.12 5.22 5.4 5.58
665.498 5.84 6.11 6.57 7.1 7.49 8.26 9.48 10.88 12.59 14.29
684.787 15.93 17.64 19.62 21.71 23.56 24.5 23.63 22.18 21.01 19.77
704.077 18.53 17.39 16.38 15.46 14.91 14.82 14.72 14.67 14.97 15.35
723.367 15.76 16.19 16.65 17.26 18.08 18.89 19.47 20.08 20.66 20.99
742.657 21.38 21.74 22.04 22.42 23.01 24.04 25.32 26.88 28.85 30.89
761.947 33.17 35.8 38.43 40.92 43.08 44.69 45.84 46.46 46.49 45.77
781.236 44.14 41.78 38.85 35.84 32.93 29.99 27.13 24.35 21.93 19.81
800.526 17.69 16.01 14.6 13.36 12.31 11.22 10.42 9.95 9.49 9.07
819.816 8.76 8.38 8.17 8.21 8.14 8.09 8.21 8.37 8.47 8.64
839.106 8.86 8.95 9.29 9.77 9.91 9.97 10.13 10.22 10.45 10.59
858.395 10.63 10.81 11.1 11.11 10.96 10.87 10.66 10.61 10.59 10.32
877.685 10 9.53 9.04 8.8 8.34 7.85 7.3 6.68 6.25 5.79
896.975 5.5 5.41 5.38 5.29 5.23 5.25 5.06 4.85 4.92 4.9
916.265 4.85 4.8 4.79 4.85 4.74 4.61 4.53 4.47 4.37 4.31
935.555 4.19 4.05 4.06 4.14 4.1 4.02 4.03 4.15 4.07 3.87
954.844 3.95 4.15 4.18 4.11 4.22 4.36 4.3 4.23 4.48 4.79
974.134 4.85 5.02 5.42 5.75 5.97 6.04 6.14 6.61 7.04 7.13
993.424 7.23 7.42 7.57 7.46 7.3 7.42 7.59 7.71 7.92 8.22
1012.714 8.45 8.62 8.89 9.54 10.41 11.28 12.55 13.89 15.34 17.28
1032.003 19.38 21.79 24.32 26.9 29.28 31.59 34.25 36.45 37.63 38.44
1051.293 39.23 39.24 38.7 37.39 35.51 33.57 31.29 28.82 26.47 24.33
1070.583 22.34 21.12 20.33 18.94 17.8 17.11 15.97 14.91 14.15 13.16
1089.873 11.99 11.13 10.26 9.56 9.14 8.16 7.28 6.97 6.43 6.17
1109.163 6 5.93 6.17 6.27 6.53 6.38 6.69 7.12 7.25 7.97
1128.452 8.82 9.58 10.82 12.37 14 16.35 19.14 22.58 26.52 30.48
1147.742 34.56 37.9 40.6 42.81 43.88 43.88 42.44 39.65 36.06 32.21
1167.032 28.87 25.74 22.77 20.13 17.81 15.55 13.64 12.3 11.34 10.33
1186.322 9.58 9.05 8.6 8.59 8.4 8.19 7.87 7.49 6.96 6.67
1205.611 6.94 7.28 7.72 7.94 8.16 8.7 9.39 9.9 10.43 11.41
1224.901 12.28 13.29 14.6 15.84 17.65 19.66 22.29 25.6 28.94 33
1244.191 38.1 43.72 49.46 55.43 61.46 66.81 71.05 74.06 75.45 75.25
1263.481 73.22 69.77 65.26 59.87 54.37 49.05 44.23 40.36 37.34 35.1
1282.771 33.62 32.63 31.83 31.06 30.31 29.64 28.87 27.94 26.79 25.65
1302.060 24.52 23.23 21.94 20.79 19.82 18.87 17.99 17.14 16.3 15.57
1321.350 14.89 14.23 13.71 13.24 12.79 12.3 11.79 11.39 10.96 10.59
1340.640 10.27 9.86 9.46 9.14 8.89 8.65 8.36 8.08 7.87 7.76
1359.930 7.64 7.46 7.33 7.25 7.25 7.22 7.21 7.29 7.4 7.51
1379.219 7.59 7.59 7.55 7.49 7.36 7.2 7 6.83 6.71 6.56
1398.509 6.48 6.52 6.58 6.76 7.03 7.26 7.57 8 8.56 9.25
1417.799 10.08 11.15 12.61 14.38 16.39 18.63 20.96 23.17 25.15 26.71
1437.089 27.72 28.12 28.07 27.65 26.95 26.14 25.28 24.52 24.08 24.05
1456.378 24.36 24.97 25.63 26.26 26.86 27.54 28.22 29.05 30.37 32.22
1475.668 34.58 37.2 39.83 42.28 44.22 45.32 45.45 44.54 42.64 39.82
1494.958 35.95 31.37 26.55 22.03 18.18 15.09 12.7 10.88 9.56 8.63
1514.248 7.94 7.47 7.21 6.96 6.72 6.6 6.57 6.59 6.58 6.58
1533.538 6.57 6.55 6.62 6.72 6.84 7.01 7.25 7.5 7.85 8.22
1552.827 8.63 9.21 9.94 10.9 12.17 13.56 15.18 17.2 19.58 22.4
1572.117 25.57 29.07 32.79 36.55 40.29 43.73 46.78 49.72 52.58 55.19
1591.407 57.52 59.65 61.4 62.64 63.29 62.99 61.61 59.15 55.89 52.11
1610.697 47.82 43.17 38.59 34.31 30.42 26.95 23.83 21.04 18.71 16.75
1629.986 15.03 13.45 12.09 10.9 9.8 8.84 8.02 7.36 6.7 6.15
1649.276 5.76 5.35 4.89 4.56 4.32 4.05 3.84 3.65 3.49 3.32
1668.566 3.15 3.07 2.98 2.83 2.73 2.68 2.65 2.58 2.52 2.53
1687.856 2.51 2.46 2.43 2.43 2.39 2.36 2.39 2.38 2.35 2.42
1707.146 2.49 2.48 2.5 2.54 2.55 2.58 2.58 2.55 2.54 2.58
1726.435 2.64 2.66 2.64 2.55 2.43 2.42 2.33 2.22 2.26 2.29
1745.725 2.27 2.26 2.21 2.25 2.19 2.02 2.01 2.01 1.95 1.91
1765.015 1.85 1.79 1.76 1.69 1.65 1.63 1.6 1.56 1.48 1.45
1784.305 1.5 1.55 1.5 1.5 1.55 1.56 1.52 1.51 1.6 1.63
1803.594 1.63 1.64 1.63 1.66 1.67 1.7 1.72 1.73 1.83 1.87
1822.884 1.86 1.93 1.98 2.01 2.03 2.09 2.13 2.11 2.09 2.04
1842.174 2.05 2.02 1.94 1.91 1.82 1.76 1.72 1.6 1.55 1.56
1861.464 1.57 1.57 1.45 1.42 1.43 1.43 1.45 1.41 1.38 1.38
1880.754 1.35 1.37 1.39 1.37 1.36 1.41 1.45 1.47 1.54 1.59
1900.043 1.62 1.73 1.83 1.89 1.97 2 2.04 2.08 2.09 2.1
1919.333 2.04 1.97 1.91 1.79 1.68 1.54 1.36 1.22 1.15 1.12
1938.623 1.08 1.02 0.9503 0.9515 0.9663 0.9656 0.9857 1.02 1.04 1.03
1957.913 1.01 1.02 1.08 1.09 1.11 1.16 1.16 1.16 1.17 1.17
1977.202 1.19 1.21 1.22 1.22 1.2 1.18 1.19 1.19 1.2 1.26
1996.492 1.27 1.22 1.17 1.22 1.23 1.19 1.19 1.16 1.19 1.2
2015.782 1.18 1.19 1.18 1.19 1.18 1.19 1.19 1.14 1.12 1.18
2035.072 1.22 1.21 1.23 1.2 1.2 1.26 1.26 1.25 1.27 1.3
2054.362 1.27 1.21 1.21 1.23 1.29 1.3 1.28 1.33 1.37 1.39
2073.651 1.4 1.41 1.35 1.31 1.35 1.39 1.44 1.47 1.39 1.38
2092.941 1.41 1.41 1.41 1.4 1.39 1.4 1.41 1.38 1.32 1.32
2112.231 1.39 1.27 1.16 1.12 1.08 1.05 0.9836 0.9293 0.9396 0.9702
2131.521 0.9878 0.9552 0.8758 0.8751 0.9438 0.943 0.9521 0.9596 0.8874 0.8546
2150.810 0.8597 0.8654 0.8594 0.8471 0.8509 0.8466 0.8836 0.8221 0.819 0.9076
2170.100 0.8824 0.8844 0.9181 0.9299 0.8929 0.8744 0.9221 0.9669 0.9377 0.9798
2189.390 1.01 1 0.9857 0.9244 0.9351 0.9505 0.995 1.04 1.04 1.03
2208.680 0.9619 0.9572 0.9587 0.9164 0.8881 0.8132 0.7947 0.7868 0.7394 0.6985
2227.970 0.6336 0.6067 0.5636 0.5361 0.5491 0.5431 0.5427 0.5532 0.5226 0.492
2247.259 0.4932 0.5106 0.5058 0.5052 0.512 0.4488 0.4638 0.5107 0.4802 0.479
2266.549 0.4751 0.5071 0.5492 0.4693 0.4386 0.5135 0.5826 0.5399 0.51 0.5981
2285.839 0.6333 0.5551 0.5784 0.6425 0.6506 0.6945 0.7134 0.7306 0.7478 0.7414
2305.129 0.7291 0.7572 0.7509 0.7339 0.7821 0.8009 0.8339 0.846 0.8532 0.8617
2324.418 0.8857 0.8687 0.7932 0.8229 0.8547 0.8564 0.8263 0.7514 0.7707 0.7346
2343.708 0.6526 0.6658 0.688 0.6534 0.6387 0.6919 0.691 0.6834 0.6267 0.53
2362.998 0.514 0.612 0.6431 0.59 0.5939 0.6058 0.6167 0.6444 0.6664 0.6697
2382.288 0.6256 0.6075 0.6349 0.7143 0.7143 0.709 0.7904 0.7525 0.6851 0.6301
2401.578 0.6312 0.7047 0.7404 0.7268 0.7712 0.8015 0.8132 0.804 0.798 0.8406
2420.867 0.8578 0.8713 0.7868 0.7555 0.7387 0.7152 0.7608 0.7905 0.7528 0.7221
2440.157 0.726 0.7368 0.8196 0.8297 0.7582 0.7218 0.745 0.7533 0.7075 0.6984
2459.447 0.6976 0.7388 0.6978 0.6598 0.7091 0.7105 0.7335 0.6858 0.6752 0.7047
2478.737 0.6793 0.6995 0.7581 0.752 0.7063 0.7105 0.7684 0.7493 0.7075 0.7675
2498.026 0.7877 0.7794 0.7406 0.7308 0.7667 0.7532 0.7501 0.8371 0.8928 0.8534
2517.316 0.8966 0.9615 0.9146 0.859 0.8611 0.9113 0.9718 0.9989 0.966 0.9106
2536.606 0.9487 0.9194 0.9333 1.01 1.01 1.03 1.05 1.01 1.01 1.09
2555.896 1.05 0.9516 1.01 1.08 1.05 1.07 1.03 0.9352 0.9289 0.9497
2575.186 1.01 0.9759 0.9366 1 0.9676 0.9819 1.03 0.9852 0.9624 1.04
2594.475 1.06 0.9737 0.9922 0.9699 1.02 1.15 1.03 0.9294 1.05 1
2613.765 0.9963 1.06 0.9761 1.02 1.06 1.03 1.03 1.03 1.04 1.06
2633.055 1.06 1.08 1.11 1.04 1.06 1.15 1.12 1.06 1.03 1.02
2652.345 1.04 1.09 1.12 1.13 1.17 1.15 1.09 1.14 1.21 1.17
2671.634 1.07 1.05 1.14 1.19 1.19 1.26 1.33 1.33 1.34 1.3
2690.924 1.3 1.42 1.44 1.4 1.38 1.4 1.43 1.46 1.54 1.6
2710.214 1.68 1.61 1.55 1.63 1.62 1.66 1.72 1.8 1.98 2.03
2729.504 2.04 2.05 2.09 2.15 2.12 2.14 2.22 2.27 2.22 2.21
2748.794 2.19 2.19 2.23 2.29 2.34 2.27 2.27 2.32 2.33 2.39
2768.083 2.4 2.37 2.43 2.53 2.57 2.56 2.55 2.6 2.68 2.76
2787.373 2.85 2.97 3.05 2.95 3.08 3.35 3.45 3.57 3.74 3.98
2806.663 4.21 4.46 4.75 5.1 5.41 5.76 6.21 6.69 7.39 8.23
2825.953 9.23 10.33 11.58 13.05 14.77 16.78 18.72 20.43 21.87 23.02
2845.242 24.07 24.98 25.41 25.45 25.18 24.69 24.2 23.63 23.11 22.53
2864.532 21.96 21.51 21.08 20.69 20.28 19.87 19.63 19.49 19.34 19.13
2883.822 18.88 18.69 18.45 18.43 18.58 18.78 19.09 19.6 20.23 21.1
2903.112 22.29 23.63 25.15 26.8 28.57 30.41 32.27 33.98 35.48 36.87
2922.401 38 38.92 39.87 40.86 42.01 43.36 44.83 46.37 47.93 49.35
2941.691 50.4 50.79 50.43 49.55 48.15 45.97 43.14 40.12 36.83 33.29
2960.981 29.96 26.99 24.12 21.67 19.67 17.82 16.28 14.96 13.96 13.11
2980.271 12.46 12.02 11.74 11.77 12.05 12.59 13.29 14.13 15.36 16.74
2999.561 17.92 18.77 19.11 19.16 19.02 18.44 17.59 16.58 15.3 14.01
3018.850 12.82 12.11 11.89 11.86 12.03 12.16 12.42 12.69 12.84 12.94
3038.140 13.03 13.19 13.22 13.18 13.17 13.3 13.39 13.42 13.45 13.35
3057.430 13.32 13.35 13.21 13.07 13.01 12.84 12.55 12.37 12.25 11.98
3076.720 11.74 11.48 10.94 10.35 9.62 8.8 8.23 7.64 6.86 6.23
3096.009 5.8 5.44 5.02 4.56 4.2 3.92 3.81 3.58 3.34 3.17
3115.299 2.77 2.55 2.44 2.17 1.99 1.86 1.7 1.56 1.5 1.35
3134.589 1.19 1.25 1.27 1.24 1.18 1.17 1.16 1.12 1.1 1
3153.879 0.9654 0.9165 0.8405 0.9249 0.9126 0.8306 0.8382 0.8923 0.9877 0.9925
3173.169 0.8966 0.7922 0.8738 0.9032 0.7269 0.6344 0.6866 0.7641 0.6781 0.6646
3192.458 0.6905 0.7004 0.7374 0.7288 0.5648 0.5172 0.6819 0.7547 0.7743 0.7835
3211.748 0.7677 0.6398 0.5929 0.5681 0.5159 0.5409 0.4419 0.3035 0.3024 0.5001
3231.038 0.6969 0.6073 0.4878 0.4484 0.4754 0.462 0.4527 0.5128 0.6226 0.6263
3250.328 0.4518 0.4227 0.4383 0.4109 0.4064 0.4167 0.443 0.504 0.5137 0.4751
3269.617 0.5048 0.4727 0.5168 0.4328 0.3744 0.478 0.4561 0.3979 0.4529 0.4197
3288.907 0.3629 0.4445 0.4796 0.5367 0.4301 0.3826 0.4085 0.4124 0.3755 0.3295
3308.197 0.4314 0.5219 0.4555 0.3877 0.3848 0.4622 0.5441 0.4854 0.4257 0.4381
3327.487 0.452 0.5613 0.7517 0.7784 0.8357 0.8386 0.7843 0.9106 0.8933 0.7964
3346.777 0.8606 0.8662 0.7817 0.8926 0.8903 0.7502 0.7521 0.6512 0.5801 0.7058
3366.066 0.5699 0.4028 0.4537 0.5122 0.5826 0.5662 0.4586 0.4406 0.5901 0.6375
3385.356 0.613 0.6225 0.5344 0.4275 0.5765 0.684 0.6788 0.6952 0.7419 0.6763
3404.646 0.6166 0.6877 0.7647 0.8391 0.9244 0.9317 0.8095 0.7666 0.8551 0.8926
3423.936 0.8072 0.6034 0.6303 0.7858 0.5802 0.5507 0.6216 0.5476 0.5781 0.6099
3443.225 0.5676 0.5716 0.5846 0.6069 0.58 0.4854 0.5121 0.5306 0.6374 0.5884
3462.515 0.442 0.508 0.4076 0.2771 0.4171 0.4916 0.4354 0.3891 0.4734 0.4997
3481.805 0.4027 0.3972 0.1931 0.07252 0.295 0.4036 0.3753 0.4287 0.4004 0.4939
3501.095 0.4611 0.3507 0.3729 0.4198 0.4403 0.4125 0.39 0.3887 0.4575 0.4501
3520.385 0.4958 0.6826 0.6463 0.4759 0.5067 0.4989 0.4599 0.5182 0.5807 0.4589
3539.674 0.3934 0.4578 0.4632 0.438 0.4678 0.4868 0.5014 0.4948 0.4443 0.5934
3558.964 0.6622 0.5713 0.4882 0.3734 0.2995 0.3231 0.3492 0.3346 0.419 0.4257
3578.254 0.252 0.2527 0.3978 0.4221 0.3817 0.4035 0.529 0.5649 0.4378 0.4483
3597.544 0.4981 0.6275 0.6642 0.6406 0.5933 0.4419 0.4561 0.5348 0.6379 0.6192
3616.833 0.5429 0.6443 0.6884 0.5432 0.4181 0.3364 0.3993 0.3941 0.3855 0.5633
3636.123 0.6082 0.4784 0.4027 0.3173 0.3741 0.4303 0.3509 0.5022 0.642 0.4388
3655.413 0.289 0.3694 0.3412 0.4224 0.4972 0.3656 0.3823 0.3758 0.3522 0.3889
3674.703 0.3881 0.3663 0.3392 0.3867 0.3566 0.3452 0.3128 0.3079 0.4273 0.5316
3693.993 0.5691 0.498 0.3792 0.3724 0.448 0.4535 0.5081 0.5392 0.499 0.4728
3713.282 0.4136 0.3283 0.3453 0.5201 0.5797 0.4734 0.5392 0.5114 0.4364 0.5656
3732.572 0.5892 0.4971 0.4953 0.5184 0.5045 0.5604 0.5381 0.5667 0.5489 0.4674
3751.862 0.446 0.4535 0.6157 0.6259 0.5402 0.559 0.5694 0.448 0.3416 0.4553
3771.152 0.5074 0.5342 0.5982 0.527 0.5785 0.5813 0.4081 0.3309 0.442 0.5544
3790.441 0.4058 0.3987 0.4816 0.4749 0.4411 0.3802 0.4015 0.4883 0.5541 0.4885
3809.731 0.5478 0.6335 0.4669 0.2993 0.2526 0.3322 0.4202 0.3127 0.353 0.5123
3829.021 0.4408 0.392 0.4363 0.4821 0.2857 0.1521 0.3466 0.5876 0.5402 0.3354
3848.311 0.3342 0.2881 0.3347 0.4931 0.5141 0.4548 0.4986 0.5455 0.3926 0.4161
3867.601 0.582 0.5204 0.541 0.5891 0.6102 0.5656 0.5355 0.6013 0.5721 0.5226
3886.890 0.3876 0.5288 0.6924 0.5974 0.6322 0.6841 0.6348 0.6386 0.5736 0.561
3906.180 0.7323 0.6643 0.4763 0.5204 0.6013 0.7232 0.6965 0.4745 0.4412 0.5237
3925.470 0.612 0.5948 0.524 0.5337 0.6202 0.592 0.5966 0.683 0.7075 0.6767
3944.760 0.6171 0.5425 0.4799 0.4942 0.5024 0.4875 0.4536 0.4643 0.5649 0.6704
3964.049 0.7556 0.7314 0.6422 0.6682 0.7036 0.7971 0.658 0.3454 0.3547 0.5374
3983.339 0.6219 0.6741 0.6543 0.6826 0.7823 0.7172 0.7838 0.6669 0.6152 0.7413
##END=
