##TITLE=m-Bromostyrene
##JCAMP-DX=4.24
##DATA TYPE=INFRARED SPECTRUM
##ORIGIN=EPA-IR VAPOR PHASE LIBRARY
##OWNER=SRD/NIST
Collection (C) 2018 copyright by the U.S. Secretary of Commerce
on behalf of the United States of America. All rights reserved.
##CAS REGISTRY NO=2039-86-3
##MOLFORM=C 8 H 7 Br
##$NIST SOURCE=MSDC-IR
##STATE=gas
##XUNITS=1/CM
##YUNITS=ABSORBANCE
##XFACTOR=1.
##YFACTOR=0.001
##DELTAX=1.92898
##FIRSTX=549.8
##LASTX=4000.7
##FIRSTY=1.46
##MAXX=4000.7
##MINX=549.759
##MAXY=0.04174
##MINY=0
##NPOINTS=1790
##XYDATA=(X++(Y..Y))
549.759 1.46 1.3 1.55 1.87 1.68 1.96 2.14 2.12 1.9 1.61
569.049 1.43 1.58 1.8 1.6 1.43 0.92 0.46 0.41 0.2 0
588.339 0.22 0.78 1.11 1.25 1.29 1.28 1.3 1.46 1.62 1.58
607.628 1.64 1.82 2.04 2.21 2.37 2.46 2.53 2.75 2.88 3.04
626.918 3.31 3.54 3.79 4.11 4.79 5.432 5.977 6.51607 7.0694 7.53
646.208 8.1 8.85 9.16 9.48 9.94 10.66 12.21 14.29 15.93 17.37
665.498 18.47 18.3 17.92 17.44 16.08 13.87 10.91 8.25 6.43589 5.757
684.787 5.867 6.076 6.7405 7.8 8.78 9.82 10.83 11.77 12.8 14.07
704.077 15.64 15.95 14.19 12.48 11.25 9.96 8.77 7.74 6.7947 5.721
723.367 4.72 4.1 3.76 3.31 2.94 2.67 2.58 2.68 2.55 2.43
742.657 2.6 2.65 2.68 2.93 3.14 3.33 3.48 3.85 4.64 5.457
761.947 6.327 7.52 9.13 11.12 13.38 15.71 18.21 20.77 23.1 25.6
781.236 28.45 31.7 33.46 31.66 28.11 25.02 22.79 20.76 18.68 16.84
800.526 14.88 13.48 12.95 13 13.96 15.74 18.09 20.83 23.73 26.05
819.816 27.3 27.72 27.34 25.8 23.3 20.68 17.62 13.99 10.56 8.05
839.106 6.5483 5.731 5.36 4.93 4.64 4.62 4.57 4.45 4.46 4.73
858.395 5.09 5.4 5.827 6.6045 7.3896 8.13 8.94 9.78 10.45 10.81
877.685 11.64 13.11 14.28 13.66 11.87 10.88 10.63 10.56 10.6 10.7
896.975 11 11.87 13.19 14.71 16.62 18.55 20.18 22.2 25.49 29.78
916.265 31.22 28.17 24.34 21.98 20.34 18.34 16.03 13.61 11.39 9.48
935.555 7.75 6.5608 5.656 5.06 4.6 4.49 4.51 4.24 4.38 4.75
954.844 5.07 5.66 6.3575 6.9502 7.67 8.56 9.42 10.3 11.32 12.42
974.134 13.34 14.06 15.05 15.86 16.15 16.47 17.49 18.73 18.87 18.34
993.424 17.77 16.62 15.39 14.3 13.08 11.56 9.61 7.63 6.196 5.22
1012.714 4.7 4.72 4.91 5.04 5.18 5.475 5.785 6.05 6.4022 7.0644
1032.003 7.296 7.2678 7.1403 6.8352 6.9509 6.9211 6.43588 6.166 6.079 5.762
1051.293 5.644 5.961 6.5493 7.3174 8.42 10.28 12.63 15.18 17.38 18.71
1070.583 19.31 19.72 20.16 19.39 17.91 15.5 11.91 9.04 7.1928 6.163
1089.873 5.32 4.68 4.31 3.85 4.07 4.16 3.92 3.61 3.46 3.3
1109.163 2.78 3.05 3.31 3.28 3.09 2.8 2.89 2.92 3.08 3.13
1128.452 2.7 2.53 2.77 3.12 2.65 2.28 2.22 1.87 2.18 2.23
1147.742 2.31 2.52 2.14 2.01 2.24 2.3 2.04 2.09 2.3 2.31
1167.032 2.07 2.15 2.37 2.09 2.24 2.55 2.73 3.6 4.32 4.99
1186.322 6.3366 8.29 10.54 12.37 14.18 15.43 16.28 16.74 16.56 15.77
1205.611 13.49 11.17 9.34 7.44 6.3776 5.643 4.4 3.64 3.49 3.19
1224.901 2.86 2.81 2.95 2.95 2.58 2.52 2.35 2.47 2.76 2.87
1244.191 3.06 3.03 3.32 3.55 3.47 3.68 3.95 3.84 3.96 4.25
1263.481 4.19 4.27 4.22 4.19 4.24 4.29 4.22 4.04 4.12 3.81
1282.771 3.57 3.64 3.62 3.61 3.5 3.42 3.5 3.5 3.4 3.3
1302.060 3.18 3.08 2.94 2.83 2.78 2.72 2.61 2.56 2.55 2.51
1321.350 2.45 2.4 2.34 2.24 2.2 2.14 2.01 1.93 1.93 1.94
1340.640 1.94 1.99 2.08 2.11 2.21 2.3 2.33 2.35 2.36 2.45
1359.930 2.56 2.68 2.77 2.88 3.04 3.27 3.57 3.86 4.21 4.58
1379.219 4.95 5.28 5.72 6.145 6.52936 6.9368 7.3527 7.8 8.2 8.63
1398.509 9.19 9.92 10.8 11.72 12.62 13.49 14.13 14.31 14.09 13.69
1417.799 13.08 12.22 11.07 9.55 7.87 6.50432 5.564 4.9 4.37 3.91
1437.089 3.57 3.31 3.19 3.19 3.19 3.31 3.56 3.91 4.38 5.04
1456.378 5.924 7.2237 8.9 11.13 14.13 17.56 20.86 23.78 25.93 27.18
1475.668 27.42 26.57 24.66 21.73 18.17 14.52 11.13 8.39 6.47329 5.18
1494.958 4.37 3.85 3.41 3.13 2.95 2.76 2.72 2.66 2.55 2.6
1514.248 2.67 2.64 2.66 2.76 2.94 3.13 3.32 3.53 3.85 4.39
1533.538 5.07 5.849 6.7922 8.07 9.66 11.62 13.99 16.8 20.05 23.7
1552.827 27.69 31.78 35.44 38.55 40.74 41.74 41.43 39.94 37.44 34.04
1572.117 30.13 26.25 22.99 20.96 20.14 20.16 20.88 21.91 22.85 23.26
1591.407 22.96 22.05 20.53 18.63 16.41 13.82 11.21 8.97 7.4088 6.579
1610.697 6.072 5.706 5.601 5.627 5.692 5.835 5.996 6.147 6.232 6.199
1629.986 6.032 5.924 5.896 5.774 5.504 5.13 4.66 4.16 3.67 3.29
1649.276 3.04 2.89 2.78 2.55 2.42 2.35 2.29 2.29 2.33 2.39
1668.566 2.49 2.78 3.03 3.24 3.45 3.56 3.62 3.66 3.66 3.6
1687.856 3.42 3.08 2.76 2.58 2.43 2.24 2.04 1.83 1.7 1.7
1707.146 1.71 1.64 1.55 1.52 1.49 1.49 1.54 1.5 1.53 1.61
1726.435 1.59 1.61 1.65 1.73 1.88 1.95 2.02 2.08 2.18 2.38
1745.725 2.52 2.55 2.65 2.76 2.86 2.95 2.94 2.92 2.87 2.86
1765.015 2.91 2.77 2.58 2.51 2.52 2.45 2.35 2.33 2.39 2.42
1784.305 2.44 2.48 2.46 2.37 2.39 2.45 2.37 2.31 2.23 2.17
1803.594 2.09 2 1.95 1.96 1.94 1.94 2.05 2.27 2.55 2.89
1822.884 3.41 4 4.56 5.2 5.763 6.113 6.3657 6.4585 6.3591 6.12
1842.174 5.722 5.25 4.75 4.24 3.88 3.74 3.71 3.65 3.57 3.52
1861.464 3.36 3.17 3.03 2.83 2.64 2.37 2.08 1.79 1.6 1.54
1880.754 1.49 1.45 1.42 1.38 1.4 1.39 1.32 1.31 1.34 1.32
1900.043 1.31 1.36 1.38 1.44 1.54 1.54 1.59 1.68 1.78 1.9
1919.333 2.06 2.17 2.21 2.3 2.41 2.42 2.31 2.28 2.24 2.16
1938.623 2.11 1.96 1.78 1.64 1.54 1.53 1.49 1.39 1.35 1.34
1957.913 1.3 1.3 1.33 1.32 1.31 1.27 1.16 1.13 1.04 0.97
1977.202 0.97 0.9 0.93 0.98 1.03 1.02 0.94 0.9 0.85 0.86
1996.492 0.94 0.9 0.86 0.91 0.91 0.86 0.83 0.81 0.85 0.83
2015.782 0.85 0.91 0.87 0.83 0.84 0.82 0.83 0.86 0.82 0.79
2035.072 0.83 0.81 0.8 0.88 0.83 0.75 0.78 0.84 0.82 0.76
2054.362 0.81 0.81 0.83 0.88 0.88 0.88 0.89 0.83 0.8 0.83
2073.651 0.81 0.83 0.89 0.9 0.77 0.7 0.72 0.68 0.72 0.76
2092.941 0.78 0.76 0.68 0.65 0.71 0.77 0.75 0.75 0.8 0.8
2112.231 0.75 0.72 0.73 0.78 0.76 0.71 0.73 0.71 0.65 0.69
2131.521 0.73 0.74 0.77 0.75 0.76 0.75 0.67 0.65 0.62 0.61
2150.810 0.72 0.76 0.77 0.76 0.71 0.73 0.77 0.77 0.75 0.78
2170.100 0.8 0.79 0.79 0.8 0.82 0.81 0.8 0.75 0.74 0.79
2189.390 0.78 0.73 0.76 0.75 0.69 0.76 0.82 0.76 0.68 0.65
2208.680 0.61 0.58 0.65 0.73 0.75 0.75 0.77 0.72 0.68 0.68
2227.970 0.73 0.76 0.76 0.74 0.72 0.75 0.75 0.82 0.77 0.71
2247.259 0.73 0.72 0.74 0.74 0.72 0.74 0.73 0.73 0.75 0.73
2266.549 0.71 0.73 0.81 0.78 0.78 0.83 0.78 0.79 0.79 0.71
2285.839 0.62 0.61 0.72 0.74 0.66 0.63 0.61 0.58 0.64 0.7
2305.129 0.71 0.65 0.62 0.61 0.56 0.61 0.71 0.82 0.79 0.79
2324.418 0.94 0.95 0.86 0.84 0.92 0.97 0.92 0.86 0.95 0.99
2343.708 0.92 0.89 0.9 0.86 0.83 0.87 0.84 0.83 0.9 0.99
2362.998 0.93 0.88 0.92 0.82 0.82 0.85 0.76 0.75 0.81 0.83
2382.288 0.84 0.84 0.76 0.73 0.72 0.68 0.66 0.68 0.7 0.72
2401.578 0.68 0.64 0.62 0.58 0.62 0.65 0.66 0.71 0.72 0.7
2420.867 0.66 0.63 0.6 0.61 0.62 0.62 0.74 0.72 0.54 0.53
2440.157 0.55 0.56 0.62 0.65 0.68 0.69 0.63 0.63 0.63 0.61
2459.447 0.64 0.56 0.58 0.64 0.72 0.7 0.68 0.72 0.71 0.7
2478.737 0.62 0.69 0.79 0.76 0.69 0.72 0.8 0.73 0.69 0.71
2498.026 0.73 0.7 0.7 0.7 0.72 0.71 0.73 0.77 0.74 0.71
2517.316 0.67 0.72 0.68 0.51 0.38 0.45 0.55 0.59 0.52 0.37
2536.606 0.48 0.62 0.6 0.64 0.68 0.66 0.58 0.53 0.54 0.54
2555.896 0.52 0.5 0.48 0.57 0.6 0.58 0.57 0.57 0.63 0.7
2575.186 0.68 0.61 0.74 0.71 0.56 0.62 0.64 0.61 0.64 0.62
2594.475 0.57 0.53 0.51 0.52 0.52 0.51 0.55 0.66 0.67 0.63
2613.765 0.64 0.61 0.56 0.59 0.64 0.6 0.61 0.58 0.57 0.57
2633.055 0.55 0.6 0.66 0.68 0.51 0.5 0.63 0.6 0.59 0.58
2652.345 0.43 0.33 0.38 0.41 0.45 0.4 0.41 0.45 0.45 0.45
2671.634 0.5 0.59 0.54 0.41 0.41 0.49 0.48 0.45 0.53 0.55
2690.924 0.47 0.47 0.55 0.56 0.54 0.47 0.5 0.56 0.45 0.43
2710.214 0.53 0.54 0.46 0.51 0.59 0.58 0.56 0.51 0.47 0.39
2729.504 0.5 0.67 0.48 0.43 0.5 0.48 0.55 0.57 0.5 0.45
2748.794 0.58 0.56 0.45 0.56 0.65 0.57 0.52 0.48 0.47 0.57
2768.083 0.58 0.48 0.51 0.56 0.6 0.56 0.52 0.66 0.69 0.65
2787.373 0.6 0.55 0.63 0.66 0.59 0.61 0.63 0.59 0.58 0.66
2806.663 0.57 0.45 0.48 0.47 0.47 0.47 0.56 0.5 0.48 0.57
2825.953 0.59 0.62 0.55 0.5 0.55 0.59 0.65 0.58 0.41 0.36
2845.242 0.42 0.52 0.61 0.6 0.57 0.51 0.48 0.43 0.35 0.36
2864.532 0.43 0.57 0.46 0.38 0.39 0.36 0.47 0.53 0.53 0.6
2883.822 0.61 0.69 0.7 0.59 0.54 0.59 0.72 0.69 0.53 0.64
2903.112 0.71 0.68 0.71 0.75 0.84 0.8 0.77 0.76 0.7 0.84
2922.401 1 0.89 0.88 0.97 0.93 1.01 1.18 1.13 1.03 1.12
2941.691 1.23 1.31 1.29 1.23 1.15 1.15 1.31 1.43 1.47 1.37
2960.981 1.2 1.2 1.42 1.45 1.48 1.76 1.91 2.11 2.35 2.54
2980.271 2.96 3.25 3.58 3.97 4.17 4.38 4.49 4.69 4.97 5.1
2999.561 5.33 5.738 6.21 6.6587 7.3955 8.45 9.54 10.58 11.32 11.56
3018.850 11.48 11.26 10.88 10.49 9.57 8.33 7.222 6.625 6.3 6.1
3038.140 6.018 5.892 6.019 6.296 6.5442 6.9147 7.59 8.09 8.75 9.85
3057.430 10.93 12.1 13.16 14.02 14.71 15.18 15.48 15.51 15.28 14.81
3076.720 14.41 14.01 13.47 13.27 13.47 14.05 14.78 15.92 17.13 17.47
3096.009 17.03 16.1 15.07 14.15 12.86 10.57 7.97 5.978 4.51 3.51
3115.299 2.75 2.21 2.02 1.76 1.52 1.47 1.43 1.36 1.24 1.19
3134.589 1.28 1.15 1.13 1.17 1.11 1.05 1.02 1.21 1.14 0.79
3153.879 0.67 0.72 0.78 0.88 0.88 0.75 0.59 0.61 0.72 0.64
3173.169 0.61 0.65 0.65 0.53 0.31 0.38 0.52 0.38 0.36 0.44
3192.458 0.38 0.34 0.36 0.48 0.53 0.53 0.53 0.48 0.43 0.35
3211.748 0.39 0.53 0.57 0.48 0.47 0.49 0.52 0.54 0.38 0.45
3231.038 0.67 0.54 0.47 0.51 0.4 0.44 0.37 0.52 0.66 0.48
3250.328 0.56 0.65 0.49 0.45 0.54 0.62 0.65 0.5 0.51 0.55
3269.617 0.56 0.54 0.47 0.37 0.31 0.44 0.46 0.45 0.52 0.56
3288.907 0.57 0.65 0.63 0.48 0.41 0.45 0.61 0.67 0.59 0.43
3308.197 0.4 0.4 0.23 0.14 0.19 0.29 0.31 0.32 0.31 0.34
3327.487 0.37 0.32 0.25 0.22 0.24 0.27 0.39 0.32 0.25 0.27
3346.777 0.32 0.41 0.39 0.39 0.41 0.52 0.55 0.54 0.5 0.32
3366.066 0.46 0.37 0.14 0.28 0.41 0.28 0.17 0.47 0.42 0.28
3385.356 0.41 0.35 0.33 0.43 0.41 0.36 0.37 0.36 0.4 0.37
3404.646 0.18 0.2 0.21 0.19 0.41 0.56 0.54 0.46 0.44 0.27
3423.936 0.22 0.27 0.15 0.3 0.49 0.44 0.5 0.53 0.37 0.43
3443.225 0.46 0.41 0.47 0.48 0.37 0.36 0.41 0.4 0.35 0.34
3462.515 0.34 0.32 0.48 0.54 0.45 0.46 0.45 0.52 0.59 0.41
3481.805 0.44 0.47 0.36 0.3 0.22 0.32 0.39 0.31 0.31 0.29
3501.095 0.22 0.26 0.41 0.46 0.49 0.51 0.34 0.46 0.51 0.25
3520.385 0.32 0.45 0.41 0.34 0.35 0.45 0.41 0.33 0.36 0.49
3539.674 0.58 0.52 0.46 0.4 0.42 0.46 0.58 0.68 0.56 0.49
3558.964 0.53 0.55 0.64 0.61 0.55 0.54 0.52 0.49 0.48 0.55
3578.254 0.54 0.48 0.41 0.42 0.47 0.52 0.45 0.44 0.4 0.35
3597.544 0.5 0.53 0.37 0.39 0.67 0.6 0.47 0.51 0.41 0.41
3616.833 0.49 0.65 0.73 0.53 0.4 0.31 0.3 0.34 0.4 0.5
3636.123 0.41 0.2 0.31 0.34 0.3 0.37 0.32 0.41 0.49 0.44
3655.413 0.48 0.5 0.51 0.53 0.4 0.37 0.46 0.6 0.74 0.64
3674.703 0.52 0.64 0.69 0.63 0.67 0.67 0.53 0.6 0.58 0.36
3693.993 0.52 0.64 0.46 0.55 0.47 0.31 0.51 0.48 0.35 0.43
3713.282 0.54 0.46 0.47 0.59 0.58 0.56 0.56 0.59 0.57 0.61
3732.572 0.56 0.56 0.6 0.59 0.56 0.47 0.49 0.52 0.59 0.59
3751.862 0.63 0.58 0.43 0.44 0.45 0.4 0.4 0.47 0.51 0.48
3771.152 0.46 0.47 0.49 0.31 0.09 0.18 0.31 0.33 0.35 0.42
3790.441 0.36 0.32 0.21 0.18 0.47 0.63 0.56 0.58 0.54 0.28
3809.731 0.2 0.34 0.41 0.23 0.17 0.42 0.45 0.39 0.49 0.38
3829.021 0.37 0.4 0.28 0.37 0.5 0.55 0.49 0.4 0.37 0.37
3848.311 0.48 0.6 0.56 0.55 0.34 0.08 0.21 0.41 0.55 0.57
3867.601 0.53 0.43 0.26 0.21 0.19 0.23 0.28 0.33 0.42 0.56
3886.890 0.73 0.52 0.47 0.51 0.35 0.39 0.46 0.64 0.65 0.53
3906.180 0.41 0.27 0.41 0.59 0.55 0.44 0.38 0.44 0.47 0.48
3925.470 0.44 0.36 0.43 0.61 0.47 0.29 0.39 0.42 0.39 0.39
3944.760 0.4 0.48 0.37 0.4 0.46 0.31 0.32 0.33 0.46 0.43
3964.049 0.31 0.45 0.49 0.55 0.49 0.25 0.32 0.3 0.22 0.11
3983.339 0.21 0.5 0.62 0.4 0.42 0.57 0.53 0.64 0.63 0.39
##END=
