##TITLE=3-Acetylphenanthrene
##JCAMP-DX=4.24
##DATA TYPE=INFRARED SPECTRUM
##ORIGIN=NIST Mass Spectrometry Data Center
##OWNER=NIST Standard Reference Data Program
Collection (C) 2018 copyright by the U.S. Secretary of Commerce
on behalf of the United States of America. All rights reserved.
##CAS REGISTRY NO=2039-76-1
##MOLFORM=C 16 H 12 O
##$NIST SOURCE=MSDC-IR
##SPECTROMETER/DATA SYSTEM=HP-GC/MS/IRD
##STATE=gas
##XUNITS=1/CM
##YUNITS=ABSORBANCE
##XFACTOR=1.0
##YFACTOR=0.000001800
##DELTAX=4.0
##FIRSTX=550.0
##LASTX=3846.0
##FIRSTY=0.000340
##MAXX=3846
##MINX=550
##MAXY=0.018
##MINY=0
##NPOINTS=825
##XYDATA=(X++(Y..Y))
550.0 189 550 750 833 820 670 620 674 666 571
590.0 431 282 203 199 187 203 217 396 655 867
630.0 1008 1077 1035 875 709 625 671 685 573 377
670.0 232 191 197 156 93 56 43 60 78 112
710.0 188 246 240 249 400 802 1463 2261 2927 2592
750.0 1644 921 419 200 158 140 113 130 186 251
790.0 354 496 567 539 434 332 293 360 552 943
830.0 1555 2421 3106 3209 2828 2056 1437 1110 892 678
870.0 558 566 580 561 437 315 278 250 256 278
910.0 255 217 167 141 158 173 238 357 528 706
950.0 842 932 940 872 758 578 398 252 169 151
990.0 122 114 120 126 158 175 193 249 281 298
1030.0 374 483 507 420 268 145 98 116 128 133
1070.0 158 172 147 117 153 226 345 478 537 445
1110.0 280 191 158 147 173 227 253 317 430 501
1150.0 529 486 423 428 451 448 448 505 576 665
1190.0 798 922 1002 1101 1304 1607 1971 2443 3145 4156
1230.0 5394 6585 7251 7288 7037 6600 5795 4331 2740 1795
1270.0 1407 1336 1395 1417 1398 1473 1696 1828 1637 1200
1310.0 810 617 545 539 565 595 635 749 908 1161
1350.0 1595 2166 2596 2591 2135 1516 1030 760 660 704
1390.0 867 1122 1479 1750 1720 1358 957 850 916 943
1430.0 837 674 541 457 426 392 354 306 261 243
1470.0 230 212 221 238 268 316 385 517 654 759
1510.0 774 701 600 477 355 306 292 300 289 254
1550.0 242 256 317 344 367 384 368 326 304 342
1590.0 390 447 549 721 941 1129 1195 1087 863 673
1630.0 553 477 418 396 408 474 595 726 869 949
1670.0 973 1033 1202 1561 2358 3972 6724 9390 10000 8174
1710.0 5266 3080 1886 1270 1001 925 930 929 881 772
1750.0 655 546 459 391 350 324 292 277 277 262
1790.0 253 260 275 289 285 282 282 274 261 253
1830.0 225 190 161 145 124 111 109 113 115 118
1870.0 117 108 132 164 194 219 237 245 260 267
1910.0 275 295 285 254 238 229 226 246 268 259
1950.0 206 148 114 92 79 75 78 72 71 81
1990.0 80 79 83 67 59 77 78 77 72 67
2030.0 70 77 75 74 75 64 59 55 58 56
2070.0 52 54 56 58 62 67 72 75 69 64
2110.0 57 61 60 53 54 44 44 50 57 70
2150.0 71 64 52 48 62 70 60 49 47 50
2190.0 66 77 73 68 66 64 63 58 55 61
2230.0 56 50 51 47 43 48 56 62 66 66
2270.0 59 58 66 64 70 80 77 77 82 85
2310.0 85 76 77 84 78 71 73 77 76 76
2350.0 71 67 69 67 64 62 68 68 55 56
2390.0 66 67 66 68 57 42 37 55 53 47
2430.0 62 56 59 70 63 58 52 56 70 73
2470.0 61 70 80 80 71 57 58 53 37 45
2510.0 54 49 36 31 43 40 40 52 47 47
2550.0 47 46 40 34 35 43 43 34 51 55
2590.0 51 53 41 37 40 47 46 43 45 47
2630.0 45 46 64 63 48 55 62 53 42 45
2670.0 33 33 46 41 44 44 34 37 33 14
2710.0 9 12 12 3 0 13 23 14 1 4
2750.0 20 29 29 10 8 28 14 14 28 31
2790.0 28 26 21 24 18 8 22 37 41 43
2830.0 51 55 53 47 59 84 97 73 50 59
2870.0 58 63 88 94 84 80 80 86 92 91
2910.0 96 115 138 155 188 229 262 272 242 226
2950.0 222 201 202 229 266 300 311 294 268 282
2990.0 297 308 385 509 668 830 942 1016 1055 1074
3030.0 1129 1193 1229 1268 1366 1601 1957 2303 2486 2477
3070.0 2323 2105 1843 1585 1343 1118 896 687 520 424
3110.0 372 334 324 280 235 214 181 138 118 104
3150.0 93 83 77 78 59 51 67 68 63 78
3190.0 94 96 94 111 116 100 97 103 87 50
3230.0 45 57 58 57 57 59 55 68 68 44
3270.0 49 46 40 52 57 58 61 68 78 82
3310.0 76 57 52 67 70 77 71 74 57 62
3350.0 60 50 84 78 76 126 168 189 190 203
3390.0 209 190 165 155 148 125 117 125 125 118
3430.0 99 94 97 84 109 120 100 93 85 78
3470.0 85 122 133 118 115 115 101 87 91 108
3510.0 120 143 151 145 129 103 86 98 110 92
3550.0 74 57 64 87 103 94 90 119 134 114
3590.0 100 98 112 116 98 101 91 86 96 106
3630.0 128 138 115 107 120 127 127 133 125 120
3670.0 149 160 122 109 124 111 107 123 113 109
3710.0 111 113 113 124 122 108 127 123 149 142
3750.0 112 115 95 97 117 121 115 105 83 85
3790.0 112 128 143 138 108 124 149 116 89 106
3830.0 116 119 126 115 86
##END=
