##TITLE=2',6'-Dimethoxyacetophenone
##JCAMP-DX=4.24
##DATA TYPE=INFRARED SPECTRUM
##ORIGIN=EPA-IR VAPOR PHASE LIBRARY
##OWNER=SRD/NIST
Collection (C) 2018 copyright by the U.S. Secretary of Commerce
on behalf of the United States of America. All rights reserved.
##CAS REGISTRY NO=2040-04-2
##MOLFORM=C 10 H 12 O 3
##$NIST SOURCE=MSDC-IR
##STATE=gas
##XUNITS=1/CM
##YUNITS=ABSORBANCE
##XFACTOR=1.
##YFACTOR=0.001
##DELTAX=1.92898
##FIRSTX=549.8
##LASTX=4000.7
##FIRSTY=1.731
##MAXX=4000.7
##MINX=549.759
##MAXY=0.076341
##MINY=0
##NPOINTS=1790
##XYDATA=(X++(Y..Y))
549.759 1.731 1.801 1.901 1.861 1.831 1.901 1.991 1.791 1.901 2.361
569.049 2.571 2.921 3.431 3.841 4.391 4.891 5.321 5.831 6.161 6.221
588.339 6.051 5.601 5.131 4.471 3.801 3.501 3.071 2.661 2.541 2.411
607.628 2.171 1.841 1.731 1.861 1.841 1.771 1.751 1.841 1.751 1.591
626.918 1.611 1.771 1.961 1.871 1.811 1.771 1.591 1.491 1.501 1.401
646.208 1.361 1.381 1.1566 0.9457 0.9417 1.0686 1.0808 0.9399 0.8142 0.8939
665.498 1.0621 1.1088 1.0224 0.9216 0.8139 0.7438 0.9165 0.983 0.6558 0.5421
684.787 0.7596 0.7871 0.8231 1.001 1.0997 1.0783 1.0539 1.0686 1.1788 1.421
704.077 1.611 1.851 2.351 3.021 3.831 4.891 6.211 7.771 9.381 10.771
723.367 12.161 13.901 15.311 15.381 14.001 12.201 10.701 9.261 7.811 6.421
742.657 5.261 4.301 3.581 3.101 2.751 2.761 3.031 3.001 2.771 2.951
761.947 3.121 2.941 2.731 2.651 2.771 2.931 3.111 3.421 3.851 4.471
781.236 5.171 5.671 6.091 6.481 6.771 6.831 6.661 6.201 5.651 5.051
800.526 4.421 3.921 3.341 2.781 2.351 2.061 1.751 1.501 1.431 1.271
819.816 1.0151 1.0182 0.9845 0.7957 0.8983 0.7816 0.6811 0.7377 0.6859 0.7771
839.106 0.7526 0.6006 0.6215 0.7295 0.7815 0.6961 0.7514 0.8312 0.8125 0.9063
858.395 1.0012 1.125 0.9618 0.7686 0.7115 0.774 0.9592 1.0478 1.1927 1.271
877.685 1.271 1.1195 1.0353 1.154 1.0879 1.1045 1.2587 1.301 1.411 1.601
896.975 1.651 1.671 1.861 2.081 2.251 2.221 2.121 2.021 1.981 1.891
916.265 1.791 1.741 1.671 1.631 1.601 1.731 1.721 1.841 2.241 2.241
935.555 2.351 2.471 2.561 2.871 3.191 3.461 3.701 4.101 4.611 5.261
954.844 5.701 6.001 6.431 6.651 6.841 7.181 7.341 7.281 7.081 6.861
974.134 6.581 6.301 6.081 5.901 5.781 5.851 5.871 5.831 6.121 6.491
993.424 6.981 7.481 7.881 8.211 8.701 9.171 9.551 9.781 9.821 10.051
1012.714 10.401 10.341 10.081 10.021 9.881 9.561 9.061 8.891 9.041 9.001
1032.003 8.811 8.581 8.491 8.681 8.801 8.851 9.261 9.851 10.171 10.461
1051.293 11.171 11.371 11.311 11.531 11.701 11.981 12.441 12.521 12.301 12.821
1070.583 13.731 14.621 15.581 17.081 19.201 21.211 23.941 27.301 30.171 33.051
1089.873 36.491 40.581 44.581 48.671 53.071 57.391 61.241 64.801 67.951 70.211
1109.163 71.671 71.661 70.591 68.501 64.591 59.481 54.421 48.821 42.601 36.941
1128.452 31.671 26.791 22.191 18.261 15.411 13.001 11.031 9.411 8.091 7.071
1147.742 6.091 5.521 5.451 5.241 4.901 4.911 5.251 5.461 5.791 6.121
1167.032 6.141 6.351 6.441 6.231 6.001 5.811 5.621 5.581 5.151 4.791
1186.322 4.881 4.601 4.361 4.441 4.601 4.761 4.771 4.981 5.541 5.701
1205.611 5.991 6.741 7.251 8.071 9.611 11.091 12.501 14.701 17.211 20.191
1224.901 23.971 28.141 33.361 39.151 45.331 52.171 58.751 65.041 70.631 74.381
1244.191 76.291 76.341 74.481 71.121 66.561 60.951 54.651 48.191 42.231 37.461
1263.481 33.901 31.251 29.351 28.101 27.371 27.121 26.941 26.871 26.471 25.671
1282.771 24.781 23.611 22.201 20.621 19.201 17.761 16.271 15.051 13.911 12.871
1302.060 11.991 11.101 10.261 9.461 8.691 7.931 7.271 6.711 6.271 5.961
1321.350 5.741 5.581 5.401 5.411 5.501 5.651 5.911 6.251 6.771 7.501
1340.640 8.471 9.631 10.921 12.311 13.701 15.091 16.281 17.031 17.151 16.581
1359.930 15.481 14.031 12.411 10.811 9.261 7.901 6.851 6.041 5.451 5.101
1379.219 4.841 4.611 4.521 4.551 4.571 4.621 4.731 4.801 4.911 5.121
1398.509 5.421 5.751 6.141 6.571 7.121 7.801 8.651 9.661 10.801 12.211
1417.799 13.941 16.011 18.421 21.181 24.121 27.081 29.801 31.811 32.911 33.041
1437.089 32.321 30.861 28.721 26.161 23.431 20.961 19.241 18.581 18.961 20.461
1456.378 23.141 27.071 32.351 38.871 46.081 53.221 58.951 62.221 62.881 60.901
1475.668 56.181 49.471 41.631 33.111 25.101 18.861 14.491 11.591 9.671 8.331
1494.958 7.391 6.681 6.121 5.711 5.461 5.301 5.111 4.971 4.901 4.791
1514.248 4.681 4.611 4.571 4.511 4.571 4.651 4.631 4.701 4.911 4.981
1533.538 5.161 5.401 5.581 5.821 6.151 6.521 7.001 7.521 8.121 8.831
1552.827 9.641 10.681 11.831 13.171 14.601 16.171 17.961 19.921 22.121 24.391
1572.117 26.821 29.511 32.401 35.571 38.781 42.091 45.381 48.401 50.911 52.311
1591.407 52.221 50.441 47.111 42.631 37.431 32.011 26.731 21.741 17.601 14.401
1610.697 12.041 10.301 8.951 7.911 7.131 6.521 5.951 5.551 5.211 4.891
1629.986 4.711 4.491 4.281 4.121 3.971 3.821 3.761 3.721 3.621 3.571
1649.276 3.601 3.721 3.811 3.931 4.081 4.191 4.371 4.611 4.841 5.131
1668.566 5.461 5.731 5.991 6.211 6.431 6.641 6.801 6.901 6.971 7.101
1687.856 7.291 7.451 7.731 8.231 8.871 9.801 11.201 13.121 15.661 18.941
1707.146 22.961 27.641 32.731 38.021 43.141 47.671 51.291 53.091 52.291 49.021
1726.435 44.151 38.721 33.081 27.571 22.371 17.931 14.441 11.811 9.951 8.751
1745.725 8.031 7.441 7.041 6.781 6.551 6.301 5.971 5.711 5.421 4.961
1765.015 4.541 4.221 3.891 3.571 3.281 3.041 2.871 2.651 2.441 2.331
1784.305 2.251 2.161 2.091 2.081 2.061 1.991 1.951 1.941 1.881 1.811
1803.594 1.781 1.761 1.751 1.711 1.671 1.581 1.461 1.341 1.311 1.291
1822.884 1.232 1.1887 1.1347 1.0498 0.9573 0.925 0.886 0.8819 0.9582 0.9334
1842.174 0.8165 0.7988 0.7984 0.7736 0.775 0.7941 0.8582 0.9061 0.873 0.8452
1861.464 0.8491 0.8495 0.8023 0.7933 0.8907 0.8881 0.8962 0.9729 1.0542 1.0737
1880.754 1.1098 1.2172 1.271 1.331 1.401 1.491 1.611 1.701 1.761 1.791
1900.043 1.801 1.771 1.721 1.711 1.691 1.601 1.591 1.571 1.511 1.501
1919.333 1.491 1.501 1.521 1.501 1.471 1.461 1.401 1.371 1.391 1.361
1938.623 1.291 1.2234 1.1642 1.0933 0.9997 0.923 0.8866 0.9079 0.9314 0.8713
1957.913 0.7994 0.7668 0.7375 0.7055 0.7107 0.7196 0.6823 0.6637 0.6563 0.6823
1977.202 0.7619 0.7842 0.7598 0.7091 0.7395 0.8498 0.8589 0.8329 0.9378 1.0142
1996.492 1.0156 1.0034 0.9973 1.0291 1.0522 1.0461 0.9713 0.9671 0.9198 0.8349
2015.782 0.8319 0.7916 0.7595 0.7345 0.7277 0.7328 0.7052 0.6816 0.6504 0.6326
2035.072 0.6501 0.6796 0.6733 0.6658 0.6859 0.6592 0.643 0.6431 0.5958 0.5644
2054.362 0.5832 0.5641 0.6057 0.5961 0.5148 0.5429 0.5549 0.5953 0.5981 0.554
2073.651 0.5545 0.563 0.5605 0.5885 0.5955 0.5707 0.5743 0.5938 0.658 0.668
2092.941 0.6817 0.7251 0.7837 0.8385 0.7997 0.7869 0.7879 0.8293 0.9133 0.9079
2112.231 0.9481 0.9724 0.9377 0.9858 1.0465 1.0639 1.0897 1.0814 1.0979 1.142
2131.521 1.1379 1.1557 1.1864 1.2045 1.1929 1.1874 1.271 1.361 1.331 1.2432
2150.810 1.2118 1.2579 1.2396 1.256 1.291 1.281 1.321 1.281 1.281 1.331
2170.100 1.361 1.391 1.451 1.441 1.481 1.551 1.471 1.461 1.491 1.381
2189.390 1.281 1.2576 1.2516 1.1362 1.0777 1.0749 0.9941 0.959 0.9355 0.9436
2208.680 0.9255 0.8442 0.7413 0.7606 0.7692 0.7388 0.7335 0.6943 0.673 0.6776
2227.970 0.6295 0.6074 0.6677 0.6315 0.5561 0.5467 0.5667 0.5684 0.5271 0.4801
2247.259 0.4933 0.4803 0.4982 0.5313 0.5155 0.5569 0.5452 0.4639 0.4827 0.4555
2266.549 0.4126 0.4643 0.4129 0.3879 0.4093 0.4075 0.3883 0.3914 0.3874 0.35937
2285.839 0.3917 0.5037 0.5053 0.481 0.5376 0.5325 0.5202 0.4694 0.4362 0.4947
2305.129 0.5026 0.497 0.5734 0.531 0.4514 0.4957 0.5041 0.4685 0.5265 0.5681
2324.418 0.5492 0.5414 0.5472 0.5736 0.5886 0.5966 0.5532 0.5598 0.6788 0.6799
2343.708 0.5916 0.5478 0.6143 0.7146 0.6753 0.6549 0.6405 0.6695 0.69 0.618
2362.998 0.7035 0.744 0.7038 0.7527 0.7745 0.7554 0.7355 0.6854 0.6484 0.5892
2382.288 0.5133 0.5101 0.4487 0.4396 0.544 0.54 0.4225 0.4125 0.4475 0.34177
2401.578 0.30696 0.4006 0.3869 0.3856 0.4189 0.415 0.3914 0.34992 0.3755 0.3902
2420.867 0.30654 0.31341 0.3969 0.3699 0.33027 0.30084 0.3434 0.35499 0.28909 0.25817
2440.157 0.33757 0.3748 0.35666 0.377 0.3917 0.4473 0.4314 0.35852 0.3643 0.4746
2459.447 0.5465 0.5554 0.5419 0.4995 0.4064 0.3765 0.4801 0.5564 0.5582 0.5384
2478.737 0.5687 0.5939 0.6063 0.5833 0.5929 0.668 0.7166 0.7231 0.7508 0.7588
2498.026 0.7053 0.7073 0.7961 0.7784 0.76 0.8584 0.8734 0.8671 0.9221 0.9688
2517.316 1.0296 1.0267 0.9704 0.963 0.9559 0.9601 0.9582 1.0295 1.0233 0.9668
2536.606 0.9533 0.9061 0.8602 0.8638 0.8956 0.8291 0.7049 0.685 0.7537 0.7545
2555.896 0.7637 0.7585 0.6834 0.6548 0.7077 0.7069 0.6619 0.6329 0.644 0.6754
2575.186 0.6445 0.6373 0.6264 0.595 0.588 0.5833 0.5485 0.5279 0.6484 0.7065
2594.475 0.6259 0.5792 0.6352 0.6854 0.6006 0.5017 0.5197 0.6382 0.6164 0.5672
2613.765 0.5839 0.5006 0.4768 0.4763 0.4304 0.4241 0.4552 0.5468 0.6037 0.5964
2633.055 0.5602 0.5256 0.5361 0.5831 0.6228 0.6307 0.6197 0.6043 0.5795 0.5545
2652.345 0.5279 0.4656 0.4448 0.4714 0.4721 0.4236 0.4221 0.4487 0.4164 0.4087
2671.634 0.4393 0.4771 0.5076 0.4503 0.5143 0.6175 0.5339 0.5312 0.4978 0.5319
2690.924 0.5936 0.5924 0.7058 0.6845 0.6703 0.7148 0.6409 0.6091 0.6335 0.6028
2710.214 0.563 0.6588 0.7342 0.6588 0.6319 0.7101 0.7209 0.6893 0.6533 0.6803
2729.504 0.7647 0.7614 0.7645 0.8012 0.8225 0.8283 0.818 0.754 0.816 0.9272
2748.794 0.8905 0.8857 0.8911 0.9216 0.9371 0.9356 0.9864 0.9986 0.9934 0.966
2768.083 0.9892 0.9588 0.9005 0.9486 0.9473 0.9496 1.0259 1.1146 1.1363 1.1029
2787.373 1.0614 1.0984 1.1935 1.2222 1.311 1.371 1.371 1.411 1.451 1.551
2806.663 1.701 1.821 2.031 2.301 2.511 2.681 2.831 2.991 3.291 3.721
2825.953 4.141 4.591 5.251 6.141 7.231 8.491 9.781 11.041 12.111 12.791
2845.242 13.171 13.151 12.721 12.011 10.991 9.811 8.631 7.571 6.841 6.381
2864.532 6.041 5.811 5.621 5.451 5.331 5.321 5.331 5.391 5.591 5.681
2883.822 5.851 6.101 6.281 6.501 6.701 6.881 7.041 7.261 7.551 7.841
2903.112 8.041 8.211 8.391 8.621 9.061 9.381 9.581 9.851 10.141 10.461
2922.401 10.691 11.001 11.391 11.811 12.441 13.241 14.191 15.391 16.761 18.261
2941.691 19.731 20.881 21.701 22.141 22.101 21.681 21.011 20.051 18.801 17.581
2960.981 16.451 15.471 14.851 14.151 13.191 12.351 11.661 10.951 10.411 9.971
2980.271 9.441 9.111 8.951 8.851 8.951 9.221 9.601 10.121 10.931 11.881
2999.561 12.901 13.931 14.821 15.551 15.941 15.891 15.401 14.721 13.821 12.501
3018.850 11.191 9.881 8.571 7.561 6.791 6.281 5.951 5.541 5.201 4.981
3038.140 4.761 4.531 4.341 4.221 4.171 4.071 3.941 4.041 4.101 4.101
3057.430 4.211 4.341 4.511 4.611 4.741 5.001 5.211 5.271 5.461 5.741
3076.720 5.881 6.071 6.351 6.611 6.601 6.451 6.301 6.151 5.951 5.631
3096.009 5.171 4.651 4.181 3.611 3.091 2.741 2.391 2.071 1.971 1.891
3115.299 1.661 1.461 1.501 1.561 1.331 1.1775 1.1236 1.0689 1.0483 1.0104
3134.589 1.0522 1.0513 1.0548 1.0586 1.0442 1.0002 0.9825 0.9712 0.8829 0.7557
3153.879 0.6972 0.7282 0.7592 0.7436 0.6361 0.593 0.6644 0.7964 0.7778 0.7118
3173.169 0.6995 0.768 0.8203 0.7134 0.6419 0.6087 0.6126 0.5243 0.4506 0.5234
3192.458 0.5717 0.5336 0.402 0.29573 0.30572 0.3661 0.3823 0.4743 0.4802 0.3944
3211.748 0.479 0.5579 0.4752 0.3662 0.28688 0.3992 0.4119 0.26232 0.2287 0.122
3231.038 0.1756 0.32619 0.33166 0.27682 0.25156 0.28015 0.33386 0.385 0.3667 0.34439
3250.328 0.262495 0.2329 0.2239 0.25974 0.28127 0.30135 0.32223 0.2189 0.32287 0.35247
3269.617 0.28062 0.323 0.4322 0.4291 0.2358 0.2156 0.33448 0.2124 0.2054 0.33853
3288.907 0.34725 0.2103 0.152 0.31076 0.2217 0.141 0.2042 0.25568 0.35199 0.29276
3308.197 0.263556 0.213 0.132 0.1814 0.2073 0.2066 0.1976 0.32693 0.158 0
3327.487 0.1645 0.149 0.092 0.121 0.2161 0.2477 0.27339 0.30932 0.2163 0.043
3346.777 0.106 0.178 0.136 0.2146 0.32564 0.33254 0.262632 0.102 0.043 0.1992
3366.066 0.2234 0.2308 0.28187 0.157 0.2142 0.28881 0.25591 0.34033 0.4078 0.4495
3385.356 0.5158 0.5775 0.5614 0.5892 0.569 0.4138 0.3958 0.5351 0.571 0.6846
3404.646 0.7774 0.6361 0.8517 0.9913 0.7904 0.8935 0.9675 0.9298 1.028 1.1063
3423.936 1.1702 1.2417 1.1171 1.0206 1.0601 0.9248 0.6367 0.5742 0.6446 0.6622
3443.225 0.6564 0.5654 0.4368 0.3991 0.398 0.31364 0.3842 0.5782 0.6561 0.5302
3462.515 0.4337 0.4856 0.3988 0.33588 0.2403 0.2322 0.33427 0.25903 0.153 0.115
3481.805 0.2244 0.3916 0.4727 0.4239 0.2007 0.153 0.1952 0.137 0.159 0.143
3501.095 0.1778 0.3175 0.3692 0.33782 0.31034 0.28265 0.25516 0.2461 0.2463 0.223
3520.385 0.25107 0.2486 0.1998 0.267287 0.3744 0.29073 0.2079 0.2237 0.4074 0.461
3539.674 0.2364 0.126 0.2152 0.3722 0.34724 0.27692 0.4108 0.4052 0.2793 0.3634
3558.964 0.35383 0.30018 0.2489 0.2356 0.238 0.29193 0.29456 0.1929 0.25993 0.29089
3578.254 0.25182 0.27701 0.1945 0.13 0.28699 0.33286 0.2459 0.159 0.081 0.1908
3597.544 0.30561 0.263244 0.249 0.2119 0.2037 0.235 0.158 0.146 0.134 0.04
3616.833 0.098 0.1902 0.2055 0.084 0.017 0.126 0.2145 0.189 0.25876 0.3612
3636.123 0.30271 0.28203 0.34975 0.4319 0.34311 0.3378 0.27545 0.2232 0.27955 0.28692
3655.413 0.35814 0.33959 0.3757 0.33876 0.1972 0.27774 0.31811 0.269639 0.35231 0.30543
3674.703 0.262431 0.29029 0.2557 0.2116 0.1764 0.238 0.29329 0.25201 0.268807 0.25571
3693.993 0.114 0.078 0.118 0.1729 0.266472 0.267467 0.31714 0.2233 0.1944 0.32099
3713.282 0.121 0.086 0.2377 0.2928 0.25226 0.123 0.081 0.115 0.2381 0.3733
3732.572 0.4235 0.35972 0.25265 0.2255 0.16 0.1806 0.35971 0.4941 0.3752 0.27602
3751.862 0.262085 0.27218 0.3733 0.4387 0.35846 0.27643 0.29833 0.29729 0.191 0.27571
3771.152 0.4131 0.2464 0.171 0.3066 0.4694 0.3406 0.134 0.128 0.2249 0.31488
3790.441 0.28234 0.3938 0.5208 0.4008 0.1725 0.084 0.2278 0.35938 0.30079 0.2145
3809.731 0.3868 0.4348 0.2788 0.31878 0.29342 0.28847 0.4243 0.5277 0.5627 0.4761
3829.021 0.414 0.519 0.5337 0.3771 0.4156 0.4608 0.4185 0.4538 0.5567 0.34194
3848.311 0.1902 0.33543 0.4005 0.32403 0.2256 0.34048 0.3732 0.3909 0.378 0.32297
3867.601 0.3626 0.29719 0.262076 0.3694 0.4001 0.30255 0.3945 0.31957 0.2337 0.4004
3886.890 0.34619 0.30528 0.4086 0.404 0.27454 0.27186 0.3253 0.35114 0.35942 0.33635
3906.180 0.1834 0.126 0.25959 0.2165 0.145 0.1715 0.269251 0.28176 0.264455 0.2445
3925.470 0.26188 0.359 0.3877 0.412 0.4601 0.459 0.32276 0.364 0.4031 0.4134
3944.760 0.4683 0.385 0.377 0.4263 0.5424 0.5263 0.4192 0.4003 0.4358 0.5462
3964.049 0.553 0.5249 0.3648 0.1759 0.28953 0.4318 0.3615 0.31438 0.5054 0.7137
3983.339 0.7402 0.561 0.4496 0.32168 0.25855 0.396 0.381 0.27108 0.29391 0.4322
##END=
