##TITLE=2,6-Dichloroacetophenone
##JCAMP-DX=4.24
##DATA TYPE=INFRARED SPECTRUM
##ORIGIN=EPA-IR VAPOR PHASE LIBRARY
##OWNER=SRD/NIST
Collection (C) 2018 copyright by the U.S. Secretary of Commerce
on behalf of the United States of America. All rights reserved.
##CAS REGISTRY NO=2040-05-3
##MOLFORM=C 8 H 6 Cl 2 O
##$NIST SOURCE=MSDC-IR
##STATE=gas
##XUNITS=1/CM
##YUNITS=ABSORBANCE
##XFACTOR=1.
##YFACTOR=0.001
##DELTAX=1.92898
##FIRSTX=549.8
##LASTX=4000.7
##FIRSTY=1.315
##MAXX=4000.7
##MINX=549.759
##MAXY=0.182651
##MINY=0
##NPOINTS=1790
##XYDATA=(X++(Y..Y))
549.759 1.315 1.711 1.861 1.781 2.171 2.731 2.671 2.231 1.991 2.461
569.049 2.671 2.821 3.371 3.261 3.571 4.211 4.641 6.101 8.401 11.031
588.339 14.091 17.111 20.381 23.631 26.241 27.851 28.501 27.571 24.981 21.771
607.628 18.371 14.891 11.651 8.701 6.981 6.091 4.621 3.511 3.121 2.891
626.918 2.501 2.551 2.421 2.171 1.981 1.871 2.141 1.961 1.791 2.061
646.208 2.051 2.131 1.981 2.071 2.581 2.451 2.361 1.981 1.971 2.331
665.498 2.231 2.201 2.071 2.041 1.991 1.801 1.861 1.791 1.981 2.091
684.787 1.731 1.691 1.741 1.661 1.891 2.331 2.781 2.971 2.671 2.801
704.077 3.061 3.271 4.211 5.041 5.871 6.851 7.991 9.871 12.491 14.911
723.367 17.301 20.671 23.461 26.101 29.021 30.361 29.011 26.231 23.461 20.711
742.657 18.071 15.671 13.341 11.261 9.621 8.851 8.971 9.351 10.421 13.341
761.947 18.401 25.481 34.471 45.451 58.281 75.321 102.391 140.131 158.671 147.621
781.236 145.831 153.851 152.941 141.831 124.601 106.161 89.681 75.661 62.061 48.881
800.526 37.251 27.541 20.501 16.171 13.091 11.031 9.481 7.911 6.481 5.441
819.816 5.091 4.801 4.531 4.121 3.111 2.741 2.881 2.831 2.311 2.001
839.106 2.021 1.861 1.761 1.671 1.3002 1.1027 1.561 1.801 1.841 1.821
858.395 1.781 2.011 2.061 2.171 2.331 2.271 2.231 2.481 2.761 2.761
877.685 2.851 3.001 2.781 2.781 3.071 3.361 3.561 3.491 3.391 3.081
896.975 2.941 2.951 2.481 2.011 2.051 2.311 2.461 2.321 1.971 1.811
916.265 1.981 2.381 2.651 2.461 2.471 2.861 3.161 2.961 2.831 3.421
935.555 3.911 4.381 5.161 5.991 7.121 8.481 9.911 11.801 13.491 14.411
954.844 15.301 15.871 15.771 15.921 16.021 15.411 14.431 13.421 12.341 11.231
974.134 10.661 10.121 8.791 7.801 7.601 7.101 6.721 6.311 5.891 5.951
993.424 5.731 5.581 5.851 6.161 6.131 6.121 6.551 6.671 6.381 6.371
1012.714 5.991 6.021 6.221 5.621 5.141 5.141 5.551 5.791 5.381 4.591
1032.003 4.531 4.621 4.971 5.421 5.241 5.291 4.791 4.471 4.931 4.151
1051.293 3.051 2.771 2.841 2.851 2.761 2.871 2.761 2.971 3.731 3.911
1070.583 4.181 5.291 5.611 6.271 7.001 6.951 6.991 7.681 7.751 6.861
1089.873 6.041 6.101 6.751 6.691 7.861 10.371 12.691 16.361 21.061 25.461
1109.163 31.961 38.551 43.761 49.701 53.961 55.211 55.171 53.651 50.481 45.341
1128.452 37.781 30.001 23.361 18.551 14.581 11.641 11.031 10.231 9.871 10.211
1147.742 10.751 11.961 12.411 13.041 13.651 13.911 13.741 13.201 12.661 11.151
1167.032 10.351 10.451 9.711 9.241 9.691 10.831 12.801 15.941 21.841 29.161
1186.322 36.441 42.591 45.221 47.641 49.611 47.461 44.501 40.221 33.151 26.981
1205.611 22.611 19.991 19.991 21.901 24.291 28.091 33.391 40.531 49.811 60.451
1224.901 73.351 87.451 100.041 111.221 120.371 126.281 128.841 126.951 119.631 108.541
1244.191 93.661 75.701 59.211 45.621 34.801 27.521 22.291 18.411 15.841 13.961
1263.481 12.771 11.841 10.991 10.471 10.301 10.261 9.721 9.081 8.781 8.411
1282.771 8.371 8.371 8.381 8.071 7.691 7.851 7.781 7.721 7.581 7.161
1302.060 6.981 6.961 6.911 6.731 6.531 6.241 6.061 6.131 6.211 6.461
1321.350 6.891 7.421 8.081 8.821 9.691 10.681 11.821 13.211 14.751 16.591
1340.640 18.951 22.051 25.741 30.091 35.211 40.801 46.391 51.521 56.071 59.951
1359.930 61.561 59.221 54.291 48.691 42.541 35.891 29.421 23.811 19.421 16.171
1379.219 13.881 12.421 11.231 10.421 9.991 9.771 9.671 9.531 9.691 10.161
1398.509 10.791 11.541 12.851 14.861 17.531 21.151 26.131 32.931 41.771 53.101
1417.799 66.211 80.961 95.051 106.791 114.721 118.221 116.851 110.351 99.551 85.471
1437.089 68.711 52.831 40.011 30.651 24.241 20.031 17.081 14.941 13.421 12.251
1456.378 11.231 10.651 10.171 9.481 9.011 8.611 8.291 8.091 8.001 7.881
1475.668 7.831 7.951 8.051 8.031 8.171 8.191 7.941 7.791 7.871 7.901
1494.958 7.821 7.831 7.781 7.721 7.671 7.611 7.581 7.621 7.551 7.411
1514.248 7.201 6.831 6.581 6.591 6.491 6.341 6.511 6.761 7.061 7.291
1533.538 7.691 8.541 9.511 10.781 12.561 14.851 18.171 22.771 28.371 35.551
1552.827 43.601 52.641 61.131 68.641 74.401 77.501 77.871 75.321 70.151 62.761
1572.117 55.001 48.911 45.541 43.991 42.571 40.381 37.641 34.441 30.731 26.401
1591.407 22.081 18.131 14.241 10.941 8.521 7.141 6.411 6.031 5.951 5.741
1610.697 5.891 6.211 6.201 6.331 6.491 6.521 6.631 6.671 6.331 6.111
1629.986 6.191 5.951 5.681 5.481 5.341 5.221 5.131 5.041 5.051 5.211
1649.276 5.281 5.611 6.321 7.081 8.011 9.021 9.741 10.461 11.131 11.691
1668.566 12.251 12.461 12.531 12.651 12.711 12.571 12.451 12.411 12.481 12.561
1687.856 12.651 12.951 13.321 13.661 14.061 14.651 15.681 17.181 18.991 21.621
1707.146 25.171 29.871 36.291 44.761 55.721 69.281 85.591 103.091 121.511 139.901
1726.435 157.151 171.551 181.031 182.651 174.751 159.721 140.341 118.181 97.231 77.881
1745.725 60.161 44.861 32.961 24.221 18.261 14.401 11.941 10.481 9.841 9.501
1765.015 9.421 9.711 10.251 10.711 11.301 12.071 12.661 13.001 13.181 13.101
1784.305 12.751 12.371 11.421 10.211 9.321 8.371 7.421 6.581 5.941 5.461
1803.594 4.961 4.601 4.181 3.751 3.431 3.111 2.961 2.921 2.911 2.861
1822.884 2.871 2.691 2.761 3.131 3.081 3.181 3.481 3.741 3.851 3.951
1842.174 4.021 4.151 4.451 4.531 4.561 4.561 4.521 4.431 4.301 4.011
1861.464 3.601 3.271 2.961 2.721 2.531 2.401 2.311 2.151 2.031 2.061
1880.754 1.951 1.871 1.941 2.031 2.201 2.331 2.411 2.411 2.491 2.711
1900.043 2.851 2.811 2.891 3.001 3.141 3.301 3.271 3.451 3.661 3.891
1919.333 4.221 4.411 4.351 4.451 4.601 4.451 4.401 4.141 3.721 3.401
1938.623 2.991 2.581 2.331 2.151 1.931 1.781 1.741 1.691 1.551 1.491
1957.913 1.511 1.4195 1.471 1.701 1.691 1.621 1.531 1.521 1.561 1.4127
1977.202 1.3128 1.3379 1.3572 1.4109 1.441 1.3776 1.2961 1.1372 1.1437 1.1077
1996.492 0.9949 1.0489 1.0599 0.9762 0.9559 1.1569 1.143 1.125 1.3459 1.3223
2015.782 1.1066 1.1321 1.2184 1.2418 1.2024 1.1716 1.2314 1.194 1.1918 1.1773
2035.072 1.1372 1.0848 1.1015 0.9518 0.8595 0.9466 0.9233 0.9966 0.8531 0.6998
2054.362 0.8694 0.9324 0.7657 0.7221 0.8445 0.8887 0.9281 0.9216 0.8911 0.9743
2073.651 0.9833 1.0421 1.1539 1.0905 1.0656 1.1337 1.1852 1.1238 1.0281 1.1548
2092.941 1.3422 1.2254 1.1963 1.2692 1.2492 1.198 1.0414 0.9562 0.889 0.7824
2112.231 0.7116 0.8818 0.9513 0.8545 0.9448 0.938 0.9538 0.9568 0.8543 0.6972
2131.521 0.6886 0.8492 0.8339 0.8375 0.9123 0.8409 0.6627 0.52814 0.5489 0.5931
2150.810 0.7751 0.7932 0.6572 0.7343 0.8341 0.943 0.8987 0.7549 0.7285 0.8012
2170.100 0.7965 0.7919 0.8307 0.7709 0.8035 0.9167 1.0683 1.037 0.9246 0.9468
2189.390 0.7899 0.8261 0.9732 0.8968 0.8612 0.9973 1.0603 0.9818 0.8298 0.8508
2208.680 0.9459 0.9211 0.8291 0.8271 0.9328 0.8896 0.9441 0.934 0.7976 0.8753
2227.970 0.8789 0.7371 0.7425 0.8895 0.8851 0.7047 0.6524 0.6515 0.6627 0.7783
2247.259 0.7002 0.631 0.7619 0.8518 0.8848 0.9099 0.842 0.7069 0.8129 0.9836
2266.549 1.0344 0.8116 0.6462 0.8538 0.9921 1.0653 1.2233 1.1668 1.0984 1.1004
2285.839 1.0771 1.1961 1.2217 1.1557 1.2149 1.3168 1.3353 1.451 1.701 1.851
2305.129 1.821 1.851 1.881 1.791 1.821 1.961 1.801 1.691 1.551 1.2928
2324.418 1.1942 1.1449 1.1599 1.2406 1.1647 0.9091 1.0656 1.17 1.0106 0.9586
2343.708 0.9385 1.0608 1.0567 0.9636 1.0743 1.0259 0.8868 0.7434 0.7493 0.8416
2362.998 0.8528 0.9605 0.9179 0.9106 0.9083 0.7494 0.7353 0.7559 0.8899 0.9693
2382.288 0.9119 1.0024 1.0018 0.9169 0.9674 1.0545 1.0568 1.0167 0.8461 0.6615
2401.578 0.8862 0.8878 0.6134 0.634 0.7273 0.7556 0.6977 0.6897 0.7248 0.8223
2420.867 0.9654 1.0586 0.9604 0.8791 1.0468 1.1375 0.9998 0.9848 1.1215 1.153
2440.157 1.1573 1.1326 1.1137 1.1804 1.3378 1.4216 1.3193 1.3988 1.3396 1.2869
2459.447 1.3581 1.2025 1.2276 1.1161 1.1666 1.3765 1.2111 1.2045 1.1458 0.9266
2478.737 0.9613 0.9708 0.9388 0.9735 0.8847 0.8353 0.8745 0.8467 0.9094 1.0036
2498.026 0.9701 0.9706 0.9766 0.9967 1.0665 1.0919 1.0444 0.9744 0.9074 0.9378
2517.316 0.822 0.7503 0.8719 0.7639 0.44974 0.318 0.43581 0.6161 0.6902 0.8736
2536.606 1.1187 1.0103 0.8878 0.8659 0.6738 0.5472 0.821 0.8847 0.6637 0.7182
2555.896 0.7347 0.6117 0.6678 0.7894 0.8955 0.8285 0.6876 0.7856 0.8462 0.7744
2575.186 0.7392 0.767 0.9086 0.9988 1.1777 1.3515 1.226 1.1132 1.0833 0.969
2594.475 0.9177 0.9436 1.0118 1.1441 1.3108 1.2146 0.9771 0.853 0.803 0.7614
2613.765 0.7233 0.785 0.7782 0.8929 0.9008 0.9162 0.9955 1.0068 1.1592 1.192
2633.055 1.1095 1.0848 1.084 1.1936 1.3079 1.2979 1.2396 1.1914 1.1447 1.0946
2652.345 1.108 1.2016 1.2564 1.1689 1.0863 1.1862 1.109 1.0107 1.1713 1.431
2671.634 1.521 1.481 1.551 1.511 1.491 1.641 1.651 1.641 1.721 1.571
2690.924 1.561 1.651 1.461 1.481 1.461 1.3402 1.2149 1.1396 1.1377 1.0645
2710.214 0.9465 0.7358 0.71 0.52707 0.47931 0.6576 0.9262 1.0307 0.7651 0.49451
2729.504 0.45644 0.6116 0.6021 0.6715 0.6779 0.5601 0.6025 0.6974 0.6744 0.3885
2748.794 0.279 0.532 0.6907 0.5082 0.267 0.256 0.3341 0.6757 0.7622 0.382
2768.083 0.61 0.7507 0.3866 0.50189 0.8032 0.9741 0.9338 0.6794 0.668 0.7895
2787.373 0.8512 0.8944 0.7147 0.52668 0.7514 0.8603 0.9695 1.0289 0.9294 0.8296
2806.663 0.9392 1.2556 1.1451 0.9008 0.9181 1.0928 1.17 1.1932 1.177 1.2163
2825.953 1.471 1.561 1.521 1.591 1.471 1.1989 1.2607 1.2648 0.9522 1.0472
2845.242 1.0972 1.0259 1.0864 1.0308 0.9244 1.0798 1.2922 1.3338 1.1477 0.9196
2864.532 0.8451 0.8918 0.9171 0.9847 1.0882 1.1297 1.1602 1.0669 0.9184 1.1054
2883.822 1.2382 1.039 1.1869 1.2843 1.354 1.4155 1.4066 1.3514 1.0244 1.0708
2903.112 1.2716 1.1729 1.3587 1.631 1.731 1.721 1.921 2.021 2.111 2.361
2922.401 2.371 2.401 2.681 2.851 3.381 3.631 3.251 3.091 2.891 3.041
2941.691 2.901 2.331 2.341 2.391 2.101 2.161 2.231 2.361 2.701 2.821
2960.981 3.091 3.251 3.371 3.741 4.021 4.141 3.941 3.681 3.701 3.401
2980.271 3.431 3.601 3.391 3.241 3.201 3.451 3.521 3.471 3.701 4.101
2999.561 4.561 5.051 5.341 5.601 5.771 5.991 6.071 5.791 5.831 5.861
3018.850 5.371 4.771 4.241 4.251 4.091 3.391 2.931 3.091 3.241 3.291
3038.140 3.611 3.781 3.721 3.681 3.841 4.301 4.661 5.391 5.871 6.201
3057.430 7.111 7.891 8.401 8.381 8.511 8.641 8.591 8.741 8.441 8.261
3076.720 8.301 7.911 7.801 7.631 7.121 6.921 6.591 5.971 5.411 4.761
3096.009 3.831 3.251 2.881 2.711 2.831 2.681 2.661 2.921 2.851 3.131
3115.299 3.651 3.751 3.771 3.561 3.301 3.291 3.351 3.221 3.051 2.781
3134.589 2.421 2.071 2.021 1.861 1.651 1.461 0.8617 1.0706 1.621 1.4242
3153.879 1.1024 0.7348 0.5758 0.5866 0.8726 1.2734 1.1821 0.914 0.7855 1.0038
3173.169 1.2552 1.0151 0.8664 0.8022 0.7969 0.7467 0.47052 0.5734 0.6027 0.5236
3192.458 0.5827 0.5752 0.794 1.0973 1.1444 0.9325 0.5726 0.41 0.5361 0.5846
3211.748 0.42696 0.7295 1.0688 0.9683 1.0585 0.8711 0.45395 0.311 0.51786 0.49751
3231.038 0.44392 0.5744 0.7493 0.6706 0.4778 0.5396 0.46546 0.44301 0.6602 0.9416
3250.328 0.6513 0.5501 0.6771 0.6048 0.593 0.66 0.7286 0.6956 0.6259 0.6133
3269.617 0.4165 0.4489 0.3421 0.052 0.277 0.5675 0.6291 0.47997 0.5589 0.3409
3288.907 0.433704 1.1025 0.7457 0.268 0.403 0.571 0.9823 1.0416 0.7511 0.5448
3308.197 0.5475 0.3885 0.413 0.6113 0.7457 0.6879 0.3821 0.3722 0.6808 0.7663
3327.487 0.5326 0.6066 1.0936 0.8422 0.7086 0.9662 0.7113 0.6261 0.52789 0.229
3346.777 0.247 0.7625 1.1474 0.9727 0.7156 0.7018 0.7536 0.8344 0.5393 0.47787
3366.066 0.6212 1.0127 1.1981 0.8976 0.9666 0.9035 0.7457 0.9188 0.8368 0.8341
3385.356 0.9657 0.699 0.693 0.9183 0.7687 0.6853 1.0308 1.0536 1.1426 1.491
3404.646 1.1575 1.025 1.1955 1.1804 1.3367 1.691 2.051 2.241 2.321 2.401
3423.936 2.531 2.681 2.841 3.091 3.341 3.501 3.661 3.871 4.121 3.891
3443.225 3.821 3.911 3.931 4.271 4.031 3.231 3.031 2.971 2.541 2.321
3462.515 2.311 1.981 1.541 1.1369 1.3044 1.671 1.2244 0.7985 1.0268 1.0274
3481.805 1.1135 1.3218 1.3249 1.3857 1.1185 1.0259 1.0095 0.9209 0.9932 1.0055
3501.095 1.1316 0.9281 0.546 0.5452 1.1914 1.3419 0.7655 0.9529 1.1078 0.6146
3520.385 0.192 0.45662 0.7328 0.7996 0.6294 0.5933 0.8627 0.8941 0.894 0.944
3539.674 0.8773 1.0142 1.0359 0.883 0.8528 0.8361 0.7644 0.7242 0.7926 0.8331
3558.964 0.7515 0.9183 1.0545 1.0253 1.1992 1.0895 0.9386 0.8661 0.7032 0.3529
3578.254 0.303 0.282 0.24 0.4029 0.6181 0.5525 0.7147 1.0432 1.0017 1.0366
3597.544 0.9322 0.9405 0.9661 0.6519 0.3425 0.4065 0.48943 0.45495 0.52553 0.32
3616.833 0.4152 0.6702 0.50366 0.48598 0.4063 0.3706 0.5951 0.6669 0.5966 0.6141
3636.123 0.7165 0.7374 0.50153 0.50313 0.45136 0.377 0.5952 0.6589 0.6005 0.6151
3655.413 0.8527 0.85 0.6378 0.307 0.3512 0.5965 0.312 0.31 0.45527 0.5595
3674.703 0.6817 0.7414 0.7296 0.8865 1.0781 0.9864 0.8171 0.773 0.9647 0.9479
3693.993 0.7245 0.7151 0.6801 0.24 0.3709 0.6248 0.6786 0.672 0.6529 0.626
3713.282 0.285 0.7074 1.0435 0.6219 0.6341 0.9348 0.7858 0.7173 0.9702 0.7515
3732.572 0.3348 0.3459 0.51333 0.316 0.177 0.47842 0.251 0 0.201 0.3948
3751.862 0.3766 0.297 0.24 0.47489 0.6889 0.324 0.6176 0.9027 0.9635 1.2658
3771.152 0.9006 0.7108 0.7329 0.8263 0.9952 0.748 0.722 0.8786 0.8323 0.8174
3790.441 0.8899 0.6807 0.5708 0.6594 0.6218 0.28 0.558 1.0158 0.9828 0.9166
3809.731 0.6821 0.3539 0.7548 1.2473 1.0455 0.9088 0.7652 0.6487 0.7526 0.9997
3829.021 0.9385 0.8261 0.9099 0.9542 0.8597 0.6139 0.7049 0.9865 0.9163 0.6794
3848.311 0.6197 0.6534 0.269 0.47712 0.8181 0.6874 0.5703 0.5893 0.7591 1.335
3867.601 1.691 1.3898 1.1496 1.0409 1.021 1.0522 1.0001 0.6525 0.8013 0.7271
3886.890 0.3951 0.42952 0.6506 1.0455 0.9542 0.6979 0.9614 0.9357 0.5677 0.7817
3906.180 1.2395 1.0491 0.596 0.5728 0.7751 0.6935 0.6719 0.8915 0.596 0.4011
3925.470 0.45983 0.6244 0.5515 0.5431 0.6557 0.298 0.324 0.6671 0.7981 1.3519
3944.760 1.3449 0.6081 0.222 0.4054 0.7758 0.5434 0.8143 1.4261 1.2563 0.8094
3964.049 0.5388 0.3345 0.42403 0.7103 0.6608 0.6622 0.8393 0.5754 0.292 0.27
3983.339 0.45512 0.6464 0.46512 0.5511 0.6706 0.7038 0.8551 0.8545 0.9102 0.9611
##END=
