##TITLE=R-(-)-N,S-Dimethyl-S-phenylsulphoximine
##JCAMP-DX=4.24
##DATA TYPE=INFRARED SPECTRUM
##ORIGIN=EPA-IR VAPOR PHASE LIBRARY
##OWNER=SRD/NIST
Collection (C) 2018 copyright by the U.S. Secretary of Commerce
on behalf of the United States of America. All rights reserved.
##CAS REGISTRY NO=20414-85-1
##MOLFORM=C 8 H 11 N O S
##$NIST SOURCE=MSDC-IR
##STATE=gas
##XUNITS=1/CM
##YUNITS=ABSORBANCE
##XFACTOR=1.
##YFACTOR=0.001
##DELTAX=1.92898
##FIRSTX=549.8
##LASTX=4000.7
##FIRSTY=18.711
##MAXX=4000.7
##MINX=549.759
##MAXY=0.208961
##MINY=0
##NPOINTS=1790
##XYDATA=(X++(Y..Y))
549.759 18.711 17.141 15.651 14.001 12.301 10.561 9.291 8.391 7.471 6.401
569.049 5.561 4.611 3.731 3.501 3.081 2.821 2.261 2.041 2.101 1.841
588.339 2.051 2.181 2.551 2.241 2.081 2.481 2.391 2.401 2.171 2.021
607.628 2.231 2.231 2.121 1.991 1.681 1.3575 1.471 1.4065 1.3917 1.841
626.918 2.181 2.031 1.691 1.911 2.401 2.441 2.241 2.581 2.961 3.151
646.208 3.601 4.091 4.401 4.651 5.301 6.021 6.741 7.521 7.901 8.451
665.498 9.341 10.381 11.431 12.871 14.541 15.921 17.891 20.581 23.491 26.261
684.787 28.841 31.191 32.971 33.171 31.451 29.321 27.051 24.551 22.021 19.601
704.077 17.981 16.941 16.361 16.731 17.921 20.021 23.171 27.311 32.001 37.221
723.367 43.251 49.401 55.191 60.611 65.461 69.171 71.901 72.821 70.711 65.231
742.657 58.381 51.471 44.111 37.491 32.161 28.151 25.451 24.601 25.351 27.261
761.947 30.251 33.401 36.231 38.051 38.821 39.021 38.161 35.691 32.771 29.231
781.236 24.921 20.451 16.101 12.721 10.061 8.141 6.671 5.681 5.401 4.991
800.526 4.271 4.261 4.461 4.011 3.841 3.931 3.551 3.581 4.201 4.441
819.816 4.641 4.811 5.161 5.801 6.691 8.001 9.401 10.981 12.911 15.131
839.106 17.381 19.621 21.571 22.831 23.691 24.261 23.951 22.961 21.611 19.731
858.395 17.341 15.071 12.631 10.491 9.191 8.061 6.991 5.951 5.201 5.021
877.685 4.691 4.501 4.161 3.931 4.251 4.511 4.471 4.331 4.551 4.781
896.975 4.951 4.881 4.851 5.091 5.121 5.091 5.301 5.501 5.641 6.021
916.265 6.221 6.371 6.911 7.181 7.661 8.581 9.291 10.021 11.001 12.461
935.555 14.131 15.851 17.731 19.961 22.001 23.731 25.611 26.691 26.861 27.001
954.844 27.041 26.851 27.091 27.741 28.871 30.761 33.411 36.871 39.791 41.331
974.134 42.131 42.341 41.111 38.451 35.361 31.261 26.361 21.691 17.231 13.961
993.424 12.131 10.751 9.451 8.491 7.891 7.271 6.791 6.751 6.561 6.511
1012.714 6.481 6.381 6.721 7.001 7.491 7.951 7.971 7.721 7.771 7.621
1032.003 7.001 6.881 6.361 5.791 5.891 5.941 6.201 7.031 7.391 7.951
1051.293 9.461 10.471 11.361 12.381 13.601 14.911 16.291 17.311 18.791 20.741
1070.583 22.291 24.981 27.941 30.761 34.661 37.881 40.141 41.851 42.941 43.911
1089.873 43.411 41.711 39.281 35.201 30.911 27.771 25.841 24.931 25.081 25.321
1109.163 25.681 25.901 25.591 25.371 24.701 24.241 23.981 23.471 23.431 24.001
1128.452 24.311 25.191 27.411 30.241 32.971 36.581 41.341 47.071 53.411 60.871
1147.742 69.761 77.981 86.091 95.541 105.241 114.021 122.291 129.821 134.901 136.941
1167.032 137.021 134.171 128.271 120.191 110.281 99.621 88.681 77.441 66.871 57.081
1186.322 48.231 40.961 35.061 30.521 26.891 24.091 21.631 18.811 16.701 15.541
1205.611 14.561 13.871 13.301 12.561 12.081 11.471 10.901 11.501 12.391 12.961
1224.901 13.711 14.331 15.311 16.501 17.831 20.121 22.801 25.691 29.801 34.951
1244.191 40.981 48.221 57.151 67.911 80.411 95.241 111.131 127.361 144.361 161.331
1263.481 176.781 189.811 199.841 206.651 208.961 206.451 200.061 189.851 177.211 162.281
1282.771 145.711 129.041 112.841 98.081 84.851 73.451 64.111 56.641 50.981 46.781
1302.060 43.591 40.861 38.761 37.311 36.091 34.801 33.491 32.131 30.481 28.401
1321.350 25.851 23.391 21.141 18.981 17.141 15.571 14.111 12.941 12.001 11.301
1340.640 10.801 10.451 10.251 9.901 9.621 9.411 9.151 8.851 8.561 8.301
1359.930 8.081 7.921 7.661 7.471 7.391 7.371 7.371 7.311 7.251 7.331
1379.219 7.551 7.651 7.781 7.861 7.861 7.851 7.901 8.101 8.301 8.501
1398.509 8.801 9.131 9.591 10.221 10.721 11.201 11.621 11.931 12.221 12.331
1417.799 12.281 12.131 11.931 11.761 11.721 11.961 12.541 13.451 14.621 15.991
1437.089 17.441 18.861 20.201 21.201 21.481 21.271 20.841 19.871 18.351 16.721
1456.378 15.121 13.681 12.611 11.841 11.531 11.571 11.811 12.211 12.571 12.671
1475.668 12.541 12.331 12.001 11.441 10.581 9.521 8.271 6.901 5.901 5.361
1494.958 4.821 4.271 4.121 4.051 3.941 3.881 3.791 3.681 3.531 3.351
1514.248 3.311 3.301 3.151 3.111 3.281 3.351 3.301 3.291 3.271 3.141
1533.538 3.191 3.341 3.451 3.481 3.321 3.231 3.271 3.331 3.211 3.081
1552.827 3.091 3.141 3.211 3.151 3.011 3.051 3.061 3.121 3.281 3.401
1572.117 3.341 3.261 3.371 3.411 3.481 3.491 3.371 3.321 3.251 3.131
1591.407 2.871 2.761 2.631 2.441 2.431 2.231 2.131 2.111 2.101 2.151
1610.697 2.021 1.881 1.911 1.821 1.691 1.791 1.861 1.901 1.741 1.501
1629.986 1.4063 1.4011 1.521 1.521 1.491 1.4017 1.3246 1.3593 1.3267 1.3847
1649.276 1.3975 1.2801 1.3756 1.551 1.681 1.881 1.991 1.991 1.981 1.881
1668.566 1.911 1.941 1.801 1.711 1.751 1.741 1.711 1.701 1.651 1.551
1687.856 1.431 1.4157 1.431 1.511 1.521 1.481 1.34 1.1821 1.1791 1.1743
1707.146 1.1579 1.1699 1.14 1.0592 0.9891 0.9665 1.0032 0.9829 0.9548 0.8529
1726.435 0.7804 0.8052 0.8219 0.7931 0.8483 0.9704 0.9611 0.9874 1.0284 1.0303
1745.725 1.0819 1.2018 1.2976 1.318 1.441 1.591 1.611 1.651 1.711 1.791
1765.015 1.921 2.011 2.021 2.041 2.111 2.061 1.981 1.931 1.921 1.831
1784.305 1.681 1.711 1.741 1.731 1.871 2.041 2.131 2.321 2.531 2.701
1803.594 2.941 3.251 3.421 3.451 3.351 3.261 3.231 3.101 3.001 2.911
1822.884 2.611 2.311 2.201 2.121 1.951 1.801 1.761 1.811 1.791 1.771
1842.174 1.791 1.681 1.571 1.561 1.431 1.3716 1.421 1.511 1.461 1.3316
1861.464 1.2186 1.2835 1.471 1.3815 1.2339 1.2934 1.3844 1.491 1.651 1.751
1880.754 1.901 2.021 2.141 2.331 2.441 2.521 2.701 2.801 2.851 2.921
1900.043 2.991 3.011 2.991 3.001 2.951 2.901 2.811 2.731 2.661 2.491
1919.333 2.341 2.201 2.101 2.111 2.061 1.921 1.941 2.121 2.261 2.331
1938.623 2.341 2.521 2.791 2.901 3.071 3.251 3.361 3.481 3.671 3.801
1957.913 3.841 3.901 3.891 3.751 3.681 3.571 3.371 3.241 3.151 2.961
1977.202 2.721 2.621 2.441 2.321 2.331 2.291 2.271 2.261 2.311 2.371
1996.492 2.401 2.441 2.561 2.671 2.641 2.581 2.641 2.671 2.671 2.631
2015.782 2.581 2.541 2.481 2.501 2.341 2.171 2.191 2.171 2.051 1.941
2035.072 1.911 1.881 1.821 1.621 1.571 1.621 1.621 1.641 1.571 1.631
2054.362 1.631 1.521 1.481 1.451 1.4154 1.3624 1.2407 1.233 1.3321 1.3388
2073.651 1.3483 1.3961 1.3122 1.3402 1.461 1.481 1.601 1.721 1.721 1.751
2092.941 1.821 1.921 2.051 2.121 2.191 2.341 2.491 2.491 2.511 2.541
2112.231 2.511 2.641 2.731 2.691 2.671 2.631 2.531 2.361 2.211 2.041
2131.521 2.021 1.981 1.731 1.661 1.521 1.441 1.441 1.431 1.451 1.3405
2150.810 1.1556 1.1708 1.3258 1.3746 1.2475 1.2117 1.2515 1.2132 1.174 1.1874
2170.100 1.1685 1.0456 1.0663 1.0549 1.0033 1.055 0.9754 0.7946 0.8095 0.8742
2189.390 0.7826 0.8271 0.9172 0.8956 0.7963 0.726 0.7639 0.7354 0.788 0.9
2208.680 0.8626 0.7929 0.8318 0.9377 0.9709 0.9133 0.8767 0.9332 0.9665 0.9035
2227.970 0.9377 1.0316 1.0341 1.0085 1.0518 1.0889 1.118 1.1143 1.1023 1.1953
2247.259 1.1901 1.1564 1.2442 1.2002 1.1401 1.1388 1.0913 1.1075 1.167 1.2207
2266.549 1.2298 1.2761 1.3844 1.3087 1.2108 1.1757 1.1253 1.112 1.0759 1.0607
2285.839 0.9291 0.7956 0.7706 0.7034 0.7519 0.8561 0.787 0.794 0.8127 0.7796
2305.129 0.7653 0.8053 1.0568 1.1946 1.1967 1.2834 1.3684 1.461 1.451 1.461
2324.418 1.471 1.461 1.451 1.3303 1.2742 1.3297 1.2803 1.2875 1.2544 1.1024
2343.708 1.1017 1.0792 1.0554 1.175 1.1385 1.045 1.0181 1.034 1.0862 1.0269
2362.998 0.9989 1.0393 0.9616 0.797 0.7606 0.7504 0.8338 0.9661 1.0429 0.9931
2382.288 0.8792 0.817 0.8707 0.8967 0.8438 0.8936 0.9066 0.8861 0.8566 0.8121
2401.578 0.9274 1.0228 0.9757 0.9766 0.9517 0.9004 0.98 1.0101 0.9051 0.9494
2420.867 0.9828 1.0088 0.9998 0.9293 0.9345 1.0122 1.0178 0.9763 1.0055 0.8632
2440.157 0.7213 0.8366 0.9279 0.9542 0.8274 0.6864 0.7721 0.7581 0.7456 0.838
2459.447 0.8128 0.6947 0.6023 0.5914 0.6491 0.5948 0.6097 0.677 0.5607 0.5275
2478.737 0.51368 0.5629 0.6473 0.5639 0.4014 0.41277 0.5641 0.5772 0.6327 0.663
2498.026 0.6659 0.6287 0.6118 0.6337 0.6084 0.7826 0.909 0.8545 0.8252 0.8456
2517.316 0.8223 0.7892 0.839 0.8976 0.9347 0.9144 0.8415 0.9 1.0215 0.9449
2536.606 0.916 0.9503 1.0302 1.1611 1.0556 1.0137 1.0878 1.1007 0.9145 0.9206
2555.896 1.1803 1.1522 1.2126 1.3054 1.2365 1.1902 1.1275 1.1401 1.2505 1.2267
2575.186 1.2441 1.1455 1.0473 1.1326 1.2062 1.2843 1.2444 1.2004 1.1531 1.1299
2594.475 1.1193 0.9719 0.8416 0.9694 1.1535 1.1201 1.1015 1.0946 1.1218 1.1663
2613.765 1.0563 1.0227 1.0194 0.9017 0.8561 0.8902 0.9264 0.8735 0.7803 0.7148
2633.055 0.6917 0.7393 0.6749 0.6825 0.7293 0.729 0.7211 0.7703 0.8305 0.8267
2652.345 0.8583 0.8062 0.7371 0.7458 0.9244 1.1231 1.2513 1.1711 1.1058 1.194
2671.634 1.0926 1.0279 1.0297 0.8631 0.8604 0.9433 0.8813 0.9929 0.9648 0.8142
2690.924 0.8504 0.8669 0.8519 0.7899 0.7397 0.7309 0.7527 0.8227 0.8672 0.8248
2710.214 0.7551 0.9361 1.0428 1.0423 1.0291 0.8946 0.8533 1.0849 1.2678 1.247
2729.504 1.203 1.0944 1.2616 1.581 1.571 1.421 1.4054 1.3747 1.471 1.441
2748.794 1.3007 1.3792 1.4106 1.3767 1.541 1.741 1.741 1.871 2.081 2.221
2768.083 2.291 2.271 2.331 2.511 2.831 3.021 3.201 3.571 3.971 4.301
2787.373 4.781 5.301 5.921 6.731 7.571 8.701 9.931 11.511 13.371 15.311
2806.663 17.501 19.441 20.931 22.121 22.961 23.071 22.361 21.191 19.681 17.821
2825.953 15.851 13.971 12.461 11.181 9.891 9.061 8.501 8.111 8.091 8.141
2845.242 8.241 8.411 8.531 8.671 9.111 9.631 9.901 10.411 11.301 12.381
2864.532 13.541 14.821 16.251 17.821 19.391 20.971 22.411 23.621 24.981 25.991
2883.822 26.411 26.881 27.061 26.981 26.861 26.511 26.161 26.031 26.041 26.041
2903.112 26.111 26.031 26.001 26.111 26.341 26.351 26.281 26.531 26.571 26.471
2922.401 26.581 26.501 26.241 25.891 25.461 24.981 24.261 23.341 22.731 22.191
2941.691 21.731 21.511 21.021 20.481 19.881 19.141 18.231 17.391 16.811 16.251
2960.981 15.511 14.901 14.831 15.071 15.531 16.081 16.691 17.291 17.661 17.911
2980.271 17.841 17.321 16.781 16.181 15.301 14.421 13.411 12.451 11.751 11.241
2999.561 10.901 10.701 10.661 10.641 10.701 10.791 10.751 10.601 10.811 10.991
3018.850 10.821 10.751 10.531 10.321 10.351 10.061 9.701 9.521 9.271 9.001
3038.140 8.721 8.501 8.491 8.671 8.741 9.041 9.711 10.581 11.921 13.261
3057.430 14.971 17.301 19.831 22.781 26.021 28.701 30.401 31.371 31.741 31.271
3076.720 30.061 28.501 26.171 22.831 19.091 15.951 13.631 11.631 10.011 8.521
3096.009 7.481 6.501 5.381 4.681 3.811 3.131 2.831 2.521 2.291 2.061
3115.299 1.901 2.001 2.011 1.831 1.731 1.701 1.651 1.631 1.801 1.881
3134.589 1.821 1.641 1.621 1.611 1.591 1.561 1.501 1.481 1.491 1.731
3153.879 1.741 1.711 1.691 1.691 1.681 1.631 1.791 1.541 1.1393 1.2253
3173.169 1.421 1.3895 1.1675 1.0741 1.0062 0.7922 0.7275 0.7369 0.7326 0.7905
3192.458 0.8444 0.9339 0.7971 0.8133 0.8145 0.5271 0.48362 0.6114 0.6823 0.8031
3211.748 0.8619 0.7139 0.5517 0.6349 0.6728 0.51788 0.6436 0.6094 0.5642 0.7343
3231.038 0.7956 0.7881 0.594 0.6194 0.6473 0.4605 0.315 0.48144 0.7136 0.6565
3250.328 0.6012 0.5748 0.7297 0.6556 0.49869 0.5692 0.6224 0.7575 0.678 0.6131
3269.617 0.6263 0.42123 0.45215 0.6265 0.5843 0.50766 0.6804 0.7755 0.6036 0.45985
3288.907 0.652 0.6335 0.48987 0.52018 0.45801 0.3964 0.3271 0.3334 0.41902 0.6296
3308.197 0.7112 0.6013 0.258 0.129 0.288 0.3836 0.5615 0.5887 0.3504 0.296
3327.487 0.46408 0.5396 0.6764 0.6928 0.6842 0.8018 0.8123 0.6264 0.5812 0.6284
3346.777 0.574 0.4944 0.46599 0.51397 0.5267 0.5223 0.52065 0.639 0.48124 0.43608
3366.066 0.5947 0.6441 0.5427 0.3568 0.235 0.268 0.6 0.8072 0.5858 0.51879
3385.356 0.6929 0.6244 0.459 0.3218 0.3439 0.47967 0.52055 0.395 0.367 0.7037
3404.646 0.6963 0.43685 0.3741 0.3533 0.228 0.225 0.6405 0.7999 0.6396 0.45599
3423.936 0.152 0.292 0.5276 0.4653 0.722 0.7018 0.204 0.213 0.41461 0.51745
3443.225 0.46229 0.3293 0.5395 0.46214 0.3861 0.5344 0.421945 0.44491 0.41726 0.3246
3462.515 0.5456 0.6018 0.5948 0.51918 0.41706 0.41195 0.41135 0.6045 0.5358 0.3734
3481.805 0.3376 0.27 0.345 0.46304 0.43402 0.3535 0.43868 0.5658 0.5459 0.3911
3501.095 0.4082 0.6186 0.6977 0.6822 0.49372 0.112 0.069 0.11 0.268 0.51213
3520.385 0.3215 0.14 0.309 0.51796 0.8106 0.8679 0.6108 0.49598 0.5315 0.50549
3539.674 0.235 0.137 0.221 0.138 0.175 0.44775 0.41557 0.308 0.4583 0.41792
3558.964 0.49618 0.44174 0 0.04 0.3362 0.3807 0.271 0.277 0.50777 0.531
3578.254 0.5829 0.6839 0.51313 0.423617 0.424263 0.50721 0.6325 0.5581 0.5211 0.48867
3597.544 0.3943 0.41803 0.3702 0.162 0.306 0.5485 0.7205 0.7498 0.6835 0.7758
3616.833 0.6752 0.5413 0.50303 0.4591 0.3741 0.49419 0.6432 0.5471 0.49618 0.5439
3636.123 0.7297 0.6077 0.4327 0.6091 0.6912 0.832 0.8874 0.8349 0.8504 0.8505
3655.413 0.6189 0.141 0.168 0.5238 0.50009 0.51207 0.44399 0.3422 0.5752 0.7147
3674.703 0.6536 0.50907 0.5272 0.7485 0.7725 0.6051 0.6161 0.8156 0.9157 0.7647
3693.993 0.7032 0.7885 0.9704 0.8563 0.6724 0.7422 0.7064 0.8072 0.8685 0.8574
3713.282 0.7691 0.6018 0.7431 0.7186 0.7183 1.1155 0.9718 0.7376 0.7503 0.6728
3732.572 0.43248 0.294 0.46872 0.7237 0.7774 0.7082 0.9013 1.007 0.8202 0.8068
3751.862 0.9327 0.7778 0.6873 0.8253 0.7848 0.617 0.6141 0.8257 0.773 0.7122
3771.152 0.7807 0.5641 0.5953 0.74 0.8097 0.7778 0.7103 0.51889 0.47017 0.430461
3790.441 0.3799 0.5445 0.5847 0.5464 0.5249 0.6299 0.6166 0.5425 0.6252 0.6555
3809.731 0.5737 0.5801 0.6405 0.5829 0.5919 0.6581 0.47447 0.423807 0.6147 0.6441
3829.021 0.423456 0.297 0.4008 0.3776 0.47734 0.534 0.535 0.615 0.48441 0.3456
3848.311 0.49249 0.8041 0.8199 0.917 0.9088 0.6892 0.5252 0.46887 0.6003 0.687
3867.601 0.5714 0.5804 0.7659 0.8758 0.8578 0.674 0.784 0.8395 0.6978 0.5716
3886.890 0.6205 0.9563 0.7979 0.372 0.3923 0.5985 0.5868 0.6637 0.8673 0.953
3906.180 0.8985 0.9145 0.9723 0.992 0.9078 0.5872 0.7333 1.105 0.9789 0.7439
3925.470 0.6971 0.6654 0.6977 0.8021 0.9622 0.9098 0.7571 0.795 1.0704 1.1642
3944.760 0.7629 0.5558 0.8412 1.0776 0.9154 0.8287 0.8614 0.6321 0.49723 0.843
3964.049 0.9323 0.8171 0.9415 0.9499 0.9366 1.0401 1.0038 1.1114 1.3247 1.3431
3983.339 1.208 1.1772 1.2389 1.2459 1.4075 1.4069 1.3817 1.421 1.2617 0.9901
##END=
