##TITLE=2,3,5-Trimethylanisole
##JCAMP-DX=4.24
##DATA TYPE=INFRARED SPECTRUM
##ORIGIN=EPA-IR VAPOR PHASE LIBRARY
##OWNER=SRD/NIST
Collection (C) 2018 copyright by the U.S. Secretary of Commerce
on behalf of the United States of America. All rights reserved.
##CAS REGISTRY NO=20469-61-8
##MOLFORM=C 10 H 14 O
##$NIST SOURCE=MSDC-IR
##STATE=gas
##XUNITS=1/CM
##YUNITS=ABSORBANCE
##XFACTOR=1.
##YFACTOR=0.001
##DELTAX=1.92898
##FIRSTX=549.8
##LASTX=4000.7
##FIRSTY=2.21
##MAXX=4000.7
##MINX=549.759
##MAXY=0.02404
##MINY=0
##NPOINTS=1790
##XYDATA=(X++(Y..Y))
549.759 2.21 1.073 0.977 1.9396 1.98 1.5533 1.778 2.1717 2.41 2.26
569.049 1.7392 1.6667 1.8384 1.7142 1.8719 2.54 2.87 2.71 3.31 3.95
588.339 3.9 3.65 2.76 2.77 3.09 3.58 3.34 3.02 2.55 1.5807
607.628 1.9262 2.0695 1.9841 1.6474 1.03 1.062 1.26006 1.595 1.4201 0.844
626.918 0.85 1.3819 1.8991 1.8895 1.3105 0.908 1.3079 1.6462 1.7392 1.9207
646.208 1.5119 1.6848 2.0343 1.2675 0.88 1.141 1.6495 1.5777 1.23007 1.4929
665.498 1.6766 1.4224 1.329 1.1129 1.4093 2.0767 1.9812 1.8118 1.4959 1.19597
684.787 1.4066 1.6142 1.5763 1.1765 1.3982 1.563 1.22071 1.1128 1.082 1.27274
704.077 1.5213 1.8421 1.3207 0.966 1.3655 1.9659 1.9767 1.7223 1.9286 1.5935
723.367 1.23566 1.3546 1.4768 1.6159 1.6864 1.5129 1.4368 1.6584 1.5242 1.2939
742.657 1.5336 1.1776 1.3423 1.8276 1.5934 1.18856 1.5137 1.8462 1.6293 1.8119
761.947 0.958 0.17 1.21785 1.5821 1.1267 1.387 1.6094 1.6468 1.27782 1.26326
781.236 1.5273 1.5981 1.1568 0.835 1.3837 1.6472 1.9949 2.26 2.1331 1.668
800.526 1.908 2.21 1.9181 1.9373 2.0276 2.56 3.15 3.01 3.05 4.24
819.816 5.37 4.84 5.45 6.74 6.47 6.53 6.67 6.16 5.92 6.29
839.106 6.16 5.7 5.13 4.47 4.36 3.87 3.13 3 2.7 2.39
858.395 2.1045 1.9459 1.3407 0.843 1.4744 1.8067 1.6265 1.4574 1.7672 2.0057
877.685 1.9399 1.9659 2.1253 2.43 2.1425 1.8584 2.1679 2.175 2.24 2.27
896.975 2.1609 2.1642 2.1291 1.8667 1.5591 1.564 1.4727 1.5435 1.5529 1.7004
916.265 1.9613 1.8811 1.6688 1.6783 1.27989 1.1433 1.6604 1.5053 1.5007 2.1752
935.555 2.37 2.0292 1.9124 2.1154 2.1456 1.8872 1.8288 2.24 2.56 2.81
954.844 3.19 3.04 3.17 3.59 3.78 3.72 3.64 3.72 3.44 3.18
974.134 3.2 2.93 2.49 2.55 2.91 3.28 3.3 3.49 4.16 3.99
993.424 3.32 3.23 4.12 4.45 3.93 3.95 4.13 3.99 3.75 3.7
1012.714 4.41 5.18 4.68 4.34 3.74 4.07 4.85 4.11 3.57 4
1032.003 4.61 4.07 2.87 3.15 3.02 2.68 3.48 3.78 3.53 3.41
1051.293 4.02 4.66 4.19 3.31 3.07 4.05 4.87 5.2 4.77 4.02
1070.583 4.59 3.94 3.33 5.09 6.42 4.95 4.31 5.38 5.69 6.94
1089.873 8.37 7.91 8.34 11.64 12.96 15.22 16.23 15.32 17.13 19.33
1109.163 21.54 21.72 21.83 22.08 21.71 22.06 21.58 20.14 19.87 19.95
1128.452 17.66 15.92 15.95 15.78 16.31 16.75 16.83 16.7 17.89 18.64
1147.742 17.63 16.82 16.4 14.33 12.42 11.29 9.96 8.84 7.93 6.49
1167.032 5.8 6.08 5.33 5.79 5.92 4.99 5.56 6.9 6.65 6.22
1186.322 5.86 6.28 6.8 5.64 5.81 7.1 6.13 5.09 6.4 5.12
1205.611 5.1 5.42 5.17 5.93 4.31 5.12 3.84 1.4331 2.28 3.87
1224.901 4.66 3.79 4.05 4.95 5.06 4.92 4.82 4.74 4.4 4.64
1244.191 4.97 4.5 4.13 4.33 4.89 5.58 5.54 5.04 5.36 5.5
1263.481 6.02 7.26 8.04 8.6 8.8 9.41 11.08 12.14 12.25 12.39
1282.771 12.98 13.69 14.09 14.28 14.88 15.45 15.57 16.16 16.88 17.1
1302.060 17.49 17.71 17.59 17.26 16.74 15.95 14.91 13.81 12.45 11.26
1321.350 10.08 8.75 7.42 6.13 5.09 4.55 4.19 3.89 3.53 3.16
1340.640 3.05 2.86 2.67 2.65 2.59 2.55 2.41 2.4 2.52 2.67
1359.930 2.68 2.47 2.5 2.48 2.66 2.86 2.9 3.12 3.43 3.71
1379.219 3.82 3.91 4.15 4.3 4.42 4.62 4.73 4.91 5.23 5.64
1398.509 6.14 6.62 7.21 7.73 8.16 8.65 9.09 9.37 9.65 10.11
1417.799 10.24 10.1 9.98 9.82 9.76 9.51 9.16 8.92 8.41 8.06
1437.089 7.83 7.52 7.18 7.17 7.56 7.97 8.39 8.83 9.42 9.87
1456.378 10.42 11.21 11.9 12.28 12.54 12.73 12.77 12.96 13.2 13.3
1475.668 13.24 13.35 13.5 13.2 12.85 12.85 12.43 12.02 11.68 10.87
1494.958 10.35 9.95 9.11 8.3 7.66 7.09 6.8 6.45 6.04 5.9
1514.248 6.01 5.74 5.27 5.36 5.33 5.01 4.92 5.05 5.03 5.01
1533.538 5.08 5.15 5.28 5.43 5.73 6.01 5.98 6.14 6.52 6.61
1552.827 6.68 7.16 7.64 8.02 8.61 9 9.38 10.08 10.59 10.93
1572.117 11.47 12.09 12.64 12.75 12.58 12.65 12.69 12.82 12.53 12.11
1591.407 11.82 11.07 10.96 10.53 9.48 9.24 9.35 9.51 9.75 9.65
1610.697 9.5 9.43 9.2 8.9 8.36 7.81 7.06 6.01 5.2 4.61
1629.986 3.85 3.36 3.42 3.25 2.91 2.8 2.71 2.77 2.72 2.69
1649.276 2.87 2.75 2.77 2.64 2.27 2.49 2.51 2.24 2.1065 2.0666
1668.566 2.1366 1.989 2.0455 2.0668 2.0073 1.8124 1.6998 1.6766 1.8923 2.21
1687.856 2.0871 2.1361 2.22 2.34 2.45 2.42 2.48 2.45 2.23 2.0207
1707.146 1.9312 1.9601 1.8941 1.9374 1.9862 1.9889 2.0735 1.9407 1.5861 1.3741
1726.435 1.6085 1.813 1.858 1.9558 1.9396 1.7194 1.6194 1.6414 1.6461 1.6927
1745.725 1.7211 1.8123 1.7356 1.5744 1.4927 1.5214 1.6108 1.7621 1.781 1.7164
1765.015 1.6832 1.5004 1.5715 1.6904 1.6704 1.4598 1.3653 1.4689 1.3221 1.3441
1784.305 1.7052 1.7046 1.7802 1.7959 1.5955 1.659 1.5722 1.5135 1.5094 1.5476
1803.594 1.6701 1.6798 1.5802 1.3791 1.3422 1.4277 1.3626 1.3052 1.2995 1.1404
1822.884 1.25428 1.5056 1.5478 1.4095 1.4129 1.7174 1.6622 1.5827 1.5062 1.3099
1842.174 1.324 1.4478 1.6087 1.6946 1.5562 1.4618 1.3717 1.22142 1.377 1.5245
1861.464 1.5566 1.5554 1.4589 1.4222 1.4745 1.6082 1.5634 1.4905 1.4379 1.4774
1880.754 1.5769 1.3373 1.3401 1.4571 1.5811 1.6846 1.4522 1.5346 1.5693 1.4391
1900.043 1.53 1.7141 1.6476 1.3092 1.2922 1.3071 1.3365 1.5178 1.5597 1.3589
1919.333 1.27515 1.4812 1.4262 1.4571 1.5157 1.3149 1.1122 1.088 1.21098 1.3228
1938.623 1.4047 1.24595 1.21686 1.4389 1.5023 1.3348 1.24738 1.2988 1.21916 1.27865
1957.913 1.5176 1.3639 1.1477 1.3205 1.4518 1.2575 1.066 1.21417 1.2989 1.3425
1977.202 1.4198 1.5627 1.6718 1.6785 1.7268 1.609 1.4795 1.3174 1.3185 1.5706
1996.492 1.6408 1.4496 1.2929 1.3469 1.481 1.5611 1.521 1.4863 1.5638 1.3497
2015.782 1.1446 1.3764 1.7048 1.7454 1.5033 1.4999 1.4833 1.4575 1.6844 1.6617
2035.072 1.5372 1.4062 1.3636 1.4294 1.3787 1.3154 1.25221 1.23775 1.3932 1.6943
2054.362 1.7548 1.5905 1.4268 1.3681 1.3077 1.4117 1.455 1.4328 1.5103 1.662
2073.651 1.6436 1.5975 1.4797 1.3965 1.5513 1.5394 1.4823 1.4513 1.4568 1.28051
2092.941 1.21239 1.4265 1.5397 1.6237 1.6646 1.711 1.7066 1.5633 1.5934 1.5008
2112.231 1.3815 1.4081 1.3627 1.3819 1.4683 1.26858 1.1599 1.3671 1.5527 1.6635
2131.521 1.6998 1.5648 1.4893 1.3703 1.3688 1.3473 1.1316 1.23019 1.38 1.4141
2150.810 1.3944 1.3783 1.3676 1.20272 1.23612 1.3656 1.2334 1.3667 1.5841 1.6086
2170.100 1.7017 1.7393 1.6565 1.6124 1.5965 1.4177 1.4547 1.6908 1.6566 1.4778
2189.390 1.3965 1.21641 1.1539 1.22425 1.24974 1.4142 1.5186 1.67 1.5043 1.28068
2208.680 1.25356 1.25365 1.4671 1.4134 1.1712 1.27527 1.3768 1.22651 1.052 1.1102
2227.970 1.249 1.28529 1.3198 1.3114 1.415 1.4121 1.26441 1.19474 1.23751 1.086
2247.259 0.993 1.09 1.1644 1.403 1.3541 1.066 1.1073 1.309 1.4836 1.5698
2266.549 1.343 1.20576 1.3033 1.345 1.3312 1.24444 1.1587 1.114 1.2444 1.3004
2285.839 1.25457 1.3798 1.4549 1.2399 1.25648 1.3955 1.2944 1.4404 1.23095 1.077
2305.129 1.3073 1.24762 1.1556 1.24453 1.22261 1.24174 1.4722 1.4969 1.2946 1.21584
2324.418 1.4428 1.4507 1.398 1.5439 1.5022 1.5131 1.6233 1.3714 1.1409 1.26653
2343.708 1.5014 1.4734 1.3771 1.25676 0.895 0.983 1.083 1.1594 1.5832 1.4524
2362.998 1.1188 1.1444 1.3577 1.24123 1.1763 1.4841 1.3853 1.1448 1.3549 1.6865
2382.288 1.5673 1.4652 1.5313 1.3978 1.5486 1.6388 1.4314 1.26192 1.1515 1.4525
2401.578 1.3305 1.19404 1.35 1.26602 1.0956 1.036 1.3567 1.4911 1.1405 1.1029
2420.867 1.3479 1.086 1.046 1.26251 1.23786 1.02 0.846 0.944 1.055 0.992
2440.157 1.24279 1.5113 1.3077 1.1582 1.4727 1.7435 1.4882 1.1474 0.868 1.2508
2459.447 1.5204 1.3635 1.3963 1.3306 1.4588 1.5153 1.21778 1.1051 1.3306 1.3288
2478.737 1.3418 1.1007 1.23891 1.6055 1.3802 1.3098 1.4162 1.24951 0.926 0.902
2498.026 1.038 1.082 0.998 1.033 1.3336 1.5423 1.27686 1.2417 1.524 1.3796
2517.316 1.2462 1.3667 1.25429 1.03 0.875 1.012 1.1554 1.24365 1.27942 0.969
2536.606 1.064 1.4047 1.3709 1.22984 1.09 1.3608 1.5363 1.3532 1.356 1.23753
2555.896 1.1357 1.067 1.1769 1.3948 1.487 1.4823 1.7723 2.0041 1.4678 1.373
2575.186 1.3881 1.3074 1.3473 1.28314 1.5126 1.4073 1.5312 1.4113 1.1116 1.3724
2594.475 1.6344 1.8257 1.7012 1.4207 1.3793 1.1649 1.24021 1.427 1.5107 1.5137
2613.765 1.3779 1.3074 1.1246 1.1431 1.1602 1.4424 1.4917 1.25321 0.715 0.665
2633.055 1.1598 1.018 0.807 1.20768 1.5675 1.28926 1.0974 1.1093 1.146 1.3627
2652.345 1.26303 1.085 1.21265 1.4289 1.3356 1.1169 1.052 1.3757 1.4738 1.1535
2671.634 1.3173 1.6702 1.7984 1.6693 1.6664 1.3334 1.1783 1.27334 1.20334 1.5534
2690.924 1.5762 1.4423 1.6501 1.6951 1.5512 1.041 0.811 1.1602 1.4401 1.5925
2710.214 1.7429 1.738 1.7402 1.7127 1.5449 1.5021 1.5421 1.5656 1.4056 1.4505
2729.504 1.8033 1.6699 1.457 1.462 1.4529 2.1343 2.32 1.8947 1.8592 1.833
2748.794 1.9632 1.8454 1.6486 1.7928 2.0459 2.1033 1.6751 1.5196 1.8166 1.6382
2768.083 1.5043 1.5412 1.3527 1.7184 2.19 2.0484 1.9459 1.9219 1.9329 2.0184
2787.373 2.1708 2.1362 2.0103 1.8626 1.758 2.0321 2.36 2.65 2.74 2.93
2806.663 2.79 2.92 2.83 2.66 3.2 3.45 3.51 3.43 3.55 3.96
2825.953 4.19 4.69 5.38 5.8 6.12 6.45 6.87 7.18 7.47 8.01
2845.242 8.35 8.19 8 7.89 8.03 8.19 8.23 8.83 9.35 9.3
2864.532 9.91 10.49 10.76 11.26 11.32 11.3 11.32 11.12 10.97 10.95
2883.822 11.02 10.67 9.94 9.7 9.66 9.44 9.6 9.7 9.89 10.32
2903.112 10.57 10.86 11.75 12.51 13.1 14.07 15.13 16.27 17.54 18.37
2922.401 19.2 20.46 21.32 22.18 23.15 23.96 24.04 23.96 23.92 23.62
2941.691 23.29 22.5 21.76 20.8 19.72 19 17.76 16.83 16.09 14.95
2960.981 14.18 13.32 12.02 11.22 11.03 10.9 10.56 10.29 10.3 10.12
2980.271 10.08 10.23 10.64 11.12 11.1 11.02 11.6 12.23 12.38 12.67
2999.561 12.88 13.02 13.28 13.05 12.43 12.15 12 11.68 10.9 10
3018.850 9.66 9.58 9.46 8.97 8.37 7.94 7.58 7.45 7.18 6.99
3038.140 6.99 7.06 6.59 6.41 6.61 6.51 6.53 6.47 6.5 7.02
3057.430 6.96 6.24 5.89 5.64 5.7 5.65 5.25 4.9 4.69 4.09
3076.720 3.48 3.42 3.27 3.26 3.59 3.32 2.91 2.9 2.95 2.61
3096.009 2.1767 2.47 2.67 2.89 2.55 1.8548 1.9556 2.23 2.1339 2.0951
3115.299 2.0739 2.1363 2.1725 1.9833 2.0093 1.9258 1.9325 1.7781 1.7195 2.0573
3134.589 1.5712 1.0984 1.7864 2.1157 1.8646 1.8731 2.004 1.8768 1.7065 1.8667
3153.879 2.0129 2.0587 1.9515 1.6351 1.5245 1.4707 1.3799 1.28848 1.3733 1.3354
3173.169 1.3173 1.3716 1.4442 1.464 1.6427 1.9092 1.6843 1.6212 1.9432 1.4167
3192.458 1.02 1.1172 0.989 1.325 1.477 1.5033 1.3511 1.1066 1.2902 1.6204
3211.748 1.6932 1.5304 1.035 1.23534 1.5102 1.26478 0.862 0.311 0.775 1.19706
3231.038 1.012 1 1.1373 1.1606 1.3069 1.8131 1.5052 1.1013 1.3654 1.21232
3250.328 1.1226 0.873 0.568 0.505 0.658 1.1268 1.1549 0.89 0.73 0.328
3269.617 0.498 1.20709 1.3165 1.24435 0.709 0.193 0.68 1.18195 1.3778 1.4377
3288.907 1.3453 1.4232 1.26247 0.744 0.991 1.3658 1.1171 1.3076 1.3672 1.4094
3308.197 1.7166 1.5493 0.783 0.891 1.1344 0.912 1.24641 1.3495 1.4386 1.1799
3327.487 0.842 1.3045 1.5571 1.158 0.584 0.18 0.328 0.798 0.777 0.876
3346.777 1.2935 0.98 0.688 0.775 1.3621 1.4588 1.022 0.965 0.734 0.73
3366.066 1.3341 1.585 1.22137 1.083 1.055 0.655 0.63 0.758 0.79 1.3142
3385.356 1.4038 1.23716 1.427 1.18378 0.731 0.805 0.734 0.833 1.18003 1.5769
3404.646 1.6369 1.007 1.046 1.1368 0.794 1.01 1.1435 1.054 0.776 0.894
3423.936 1.4209 1.3205 1.3081 1.4917 1.27668 0.787 0.781 1.04 0.756 0.406
3443.225 0.473 0.645 0.734 0.738 0.697 0.938 0.892 0.594 0.519 0.774
3462.515 0.985 0.788 0.662 1.20298 1.6868 1.28412 0.491 0.08 0.696 1.5085
3481.805 1.7203 1.3781 1.22699 1.3034 1.4535 1.5945 1.1361 0.984 1.4599 1.8361
3501.095 1.9362 1.5092 1.027 1.18149 1.08 1.027 1.062 1.1038 1.21362 1.22283
3520.385 1.075 0.981 1.23099 0.913 1.081 1.6119 1.6402 1.6366 1.5861 1.083
3539.674 0.918 1.18168 1.3382 1.20148 0.674 0.938 1.18869 0.977 1.039 0.899
3558.964 1.0917 1.3314 1.2309 1.3123 1.5686 1.8514 1.47 1.4594 1.7573 1.618
3578.254 1.6945 1.6927 1.1388 0.452 0.979 1.3072 0.624 0.693 0.95 0.807
3597.544 1.26542 1.805 1.8156 2.1037 1.7044 1.05 1.5745 1.9438 1.526 1.26539
3616.833 1.4769 1.7808 1.5077 1.049 1.3573 1.4198 1.4245 1.1392 0.803 1.6654
3636.123 1.2941 0.502 0.947 1.1324 1.164 1.4865 1.3883 1.2699 1.1517 1.041
3655.413 1.1535 0.919 1.22827 1.7873 1.4883 1.26995 1.3249 1.4511 1.2758 1.22577
3674.703 1.6294 1.25724 0.908 1.1093 1.24746 1.3902 1.3264 1.336 1.4474 1.28822
3693.993 1.20776 1.032 1.3253 1.1618 1.22369 1.8714 1.3385 0.85 0.335 0.599
3713.282 1.21806 0.967 0.895 0.905 1.057 1.038 0.968 1.4696 1.1507 0.685
3732.572 0.702 0 0.14 0.472 0.16 0.09 0.403 0.924 1.22647 1.482
3751.862 1.886 1.7584 1.3359 1.4578 1.2868 0.947 1.20927 1.5589 1.5366 1.3563
3771.152 1.3398 1.025 0.903 1.4309 1.3574 0.997 0.965 0.938 0.906 1.2907
3790.441 1.6411 1.5776 1.5445 1.5762 1.6881 1.153 0.829 0.855 0.698 0.261
3809.731 0.244 1.051 1.056 0.838 1.26212 1.5261 1.27318 0.977 1.24593 1.4525
3829.021 0.872 0.536 1.1392 1.6293 1.1639 0.475 0.366 1.074 1.298 0.714
3848.311 0.945 1.3584 1.1278 1.4263 1.2906 0.782 0.689 1.018 1.073 0.814
3867.601 1.4706 1.6276 1.3903 1.1352 0.956 1.3997 1.6204 1.3812 1.27584 1.4596
3886.890 1.5064 1.706 1.681 1.0917 0.832 0.944 1.5716 1.6896 1.28968 1.456
3906.180 1.607 1.6459 1.1638 0.69 0.869 1.048 0.725 0.973 1.3459 1.054
3925.470 1.7588 1.6367 1.22092 1.3459 1.22417 1.1258 1.3176 1.6757 1.7793 1.5533
3944.760 1.045 0.781 0.845 1.3982 1.3959 1.3512 1.7973 1.9937 1.487 1.065
3964.049 1.18933 1.4002 1.072 1.25276 1.5571 1.22246 1.1123 1.1053 0.911 1.06
3983.339 1.926 1.7258 1.22065 1.2969 1.1841 1.002 0.992 1.25401 1.26783 1.3959
##END=
