##TITLE=2-Carboethoxy-1,3-dithiane
##JCAMP-DX=4.24
##DATA TYPE=INFRARED SPECTRUM
##ORIGIN=EPA-IR VAPOR PHASE LIBRARY
##OWNER=SRD/NIST
Collection (C) 2018 copyright by the U.S. Secretary of Commerce
on behalf of the United States of America. All rights reserved.
##CAS REGISTRY NO=20462-00-4
##MOLFORM=C 7 H 12 O 2 S 2
##$NIST SOURCE=MSDC-IR
##STATE=gas
##XUNITS=1/CM
##YUNITS=ABSORBANCE
##XFACTOR=1.
##YFACTOR=0.001
##DELTAX=1.929
##FIRSTX=549.8
##LASTX=4000.8
##FIRSTY=0.9885
##MAXX=4000.75
##MINX=549.766
##MAXY=0.103701
##MINY=0
##NPOINTS=1790
##XYDATA=(X++(Y..Y))
549.766 0.9885 0.9179 0.9589 0.8962 0.8247 0.7223 0.7054 0.7111 0.5681 0.8606
569.056 0.8933 0.6091 0.6562 0.9237 0.7872 0.4075 0.5643 0.9251 0.8571 0.7992
588.346 0.8388 0.7884 0.7804 0.808 0.7188 0.7003 0.8416 0.9455 1.0739 1.1173
607.636 1.0155 0.9433 0.949 1.0687 1.271 1.351 1.251 1.241 1.281 1.271
626.926 1.271 1.471 1.641 1.641 1.861 2.081 2.111 2.151 2.361 2.481
646.216 2.611 2.811 2.981 3.221 3.461 3.671 3.771 3.701 3.521 3.471
665.506 3.281 2.991 2.921 2.691 2.331 2.111 1.871 1.701 1.691 1.711
684.796 1.641 1.751 1.991 2.091 2.131 2.161 2.341 2.561 2.811 2.921
704.086 3.071 3.381 3.731 4.021 4.221 4.521 4.721 4.751 4.841 4.881
723.376 4.761 4.571 4.161 3.841 3.631 3.411 3.261 3.081 2.811 2.521
742.666 2.401 2.291 2.241 2.161 2.041 2.061 2.001 1.981 2.031 1.941
761.956 1.921 1.871 1.821 1.821 1.881 1.931 1.891 1.881 1.831 1.891
781.246 2.011 2.131 2.181 2.201 2.251 2.311 2.441 2.601 2.781 2.941
800.536 3.091 3.221 3.271 3.291 3.461 3.571 3.291 3.061 3.141 3.181
819.826 3.181 3.171 3.111 2.871 2.641 2.561 2.451 2.351 2.301 2.321
839.116 2.351 2.521 2.711 2.721 2.731 2.761 2.951 3.241 3.291 3.341
858.406 3.551 3.541 3.381 3.381 3.351 3.251 3.221 3.151 3.271 3.541
877.696 3.781 3.981 4.121 4.241 4.191 4.041 3.811 3.471 3.101 2.841
896.986 2.811 2.821 3.041 3.461 3.901 4.351 4.751 5.201 5.631 5.961
916.276 5.941 5.701 5.521 5.351 5.241 5.161 5.041 4.991 5.011 5.011
935.566 5.011 4.921 4.721 4.501 4.271 3.991 3.591 3.271 3.071 2.871
954.856 2.621 2.461 2.361 2.221 2.031 1.941 1.951 1.901 1.861 1.871
974.146 1.911 1.981 2.041 2.111 2.181 2.211 2.311 2.501 2.741 3.051
993.436 3.481 3.981 4.601 5.391 6.171 7.061 8.081 9.031 9.911 10.901
1012.726 12.041 13.241 14.541 15.941 17.501 19.231 20.911 22.491 23.711 24.451
1032.016 24.691 24.391 23.591 22.321 20.621 18.701 16.741 14.771 12.921 11.301
1051.306 9.981 8.911 8.091 7.511 7.121 6.791 6.561 6.401 6.331 6.331
1070.596 6.411 6.471 6.491 6.661 6.931 7.231 7.641 8.171 8.641 9.281
1089.886 10.021 10.671 11.461 12.161 12.601 13.141 13.651 14.091 14.671 15.331
1109.176 16.221 17.521 19.291 21.731 25.011 29.271 34.891 42.181 51.091 61.541
1128.467 72.881 83.771 93.091 99.881 103.511 103.701 100.541 94.261 84.931 73.741
1147.757 62.731 53.111 45.421 39.561 34.971 31.321 28.471 26.111 24.251 22.881
1167.047 21.721 20.831 20.231 19.731 19.371 19.141 18.881 18.741 18.771 18.881
1186.337 19.031 19.391 19.861 20.261 20.611 20.681 20.561 20.241 19.561 18.851
1205.627 18.031 17.151 16.441 15.901 15.611 15.611 15.791 16.151 16.651 17.481
1224.917 18.591 19.781 21.391 23.401 25.631 27.971 30.301 32.501 34.291 35.641
1244.207 36.551 37.021 37.161 37.021 36.781 36.751 37.101 38.081 39.861 42.401
1263.497 45.521 49.151 53.081 57.091 61.021 64.531 67.211 68.871 69.231 68.051
1282.787 65.531 61.831 57.121 51.791 46.071 40.391 35.171 30.591 26.691 23.431
1302.077 20.731 18.471 16.501 14.741 13.131 11.641 10.341 9.211 8.231 7.461
1321.367 6.781 6.181 5.681 5.271 4.951 4.701 4.551 4.451 4.361 4.291
1340.657 4.231 4.181 4.151 4.161 4.131 4.101 4.161 4.261 4.441 4.751
1359.947 5.351 6.131 6.821 7.391 7.811 7.971 7.931 7.811 7.451 6.781
1379.237 6.051 5.481 5.061 4.801 4.631 4.561 4.551 4.481 4.481 4.591
1398.527 4.671 4.751 4.931 5.131 5.361 5.731 6.181 6.681 7.241 7.891
1417.817 8.591 9.211 9.811 10.521 11.041 11.351 11.511 11.411 11.041 10.531
1437.107 10.091 9.471 8.561 7.781 7.141 6.551 6.021 5.631 5.371 5.161
1456.397 5.031 5.021 5.051 5.101 5.181 5.281 5.391 5.411 5.321 5.161
1475.687 5.001 4.741 4.411 4.121 3.841 3.491 3.171 2.921 2.691 2.511
1494.977 2.281 2.121 2.071 2.011 1.911 1.761 1.621 1.671 1.721 1.621
1514.267 1.531 1.491 1.441 1.361 1.271 1.201 1.181 1.211 1.191 1.0958
1533.557 0.9904 1.019 0.9708 0.8971 0.9303 0.946 0.9482 0.9405 0.9293 0.9182
1552.847 0.8776 0.8422 0.8201 0.6936 0.6902 0.8405 0.8901 0.8813 0.877 0.87
1572.137 0.891 0.8632 0.8082 0.8934 0.9423 0.9319 0.9493 0.9601 0.9418 0.9602
1591.427 0.9982 0.9851 0.934 0.8882 0.9095 0.9476 1.0091 1.0262 1.0228 1.0795
1610.717 1.0658 1.003 0.9874 0.936 0.9455 1.0191 1.0466 1.0408 1.0619 1.0867
1630.007 1.1132 1.161 1.1381 1.151 1.261 1.341 1.391 1.351 1.281 1.321
1649.297 1.381 1.331 1.241 1.301 1.341 1.321 1.371 1.441 1.431 1.371
1668.587 1.331 1.361 1.421 1.461 1.461 1.521 1.671 1.751 1.731 1.831
1687.877 2.031 2.241 2.471 2.651 2.871 3.191 3.491 3.891 4.281 4.701
1707.167 5.151 5.621 6.151 6.711 7.381 8.241 9.311 10.521 12.091 14.191
1726.457 16.991 20.691 25.411 31.031 38.131 45.921 53.551 61.431 68.591 74.281
1745.747 76.751 75.601 71.961 66.491 60.051 53.141 45.431 37.991 31.291 25.871
1765.037 21.831 18.581 15.831 13.591 11.611 10.031 8.721 7.541 6.521 5.711
1784.327 5.021 4.371 3.871 3.431 3.021 2.701 2.541 2.341 2.151 2.001
1803.617 1.871 1.811 1.731 1.651 1.551 1.441 1.421 1.391 1.371 1.331
1822.907 1.281 1.281 1.251 1.211 1.191 1.221 1.241 1.211 1.151 1.1029
1842.197 1.0563 1.0276 1.0742 1.0785 1.0074 0.9597 0.9358 0.9316 0.9245 0.8568
1861.487 0.8514 0.9166 0.9565 0.9505 0.9255 0.9206 0.9573 0.9756 0.9205 0.9336
1880.777 0.9715 0.9453 0.9304 0.88 0.8376 0.8512 0.8384 0.8465 0.8435 0.8311
1900.067 0.8339 0.7975 0.7727 0.7396 0.7153 0.6755 0.6877 0.6872 0.6544 0.6728
1919.357 0.654 0.6393 0.6097 0.5709 0.5334 0.5416 0.5552 0.5802 0.5835 0.5477
1938.647 0.5544 0.5637 0.56 0.5788 0.6003 0.5882 0.5909 0.6054 0.5988 0.5983
1957.937 0.646 0.6551 0.6126 0.6253 0.6235 0.595 0.6322 0.6916 0.714 0.6762
1977.227 0.6619 0.7332 0.7823 0.8185 0.879 0.9042 0.8977 0.9098 0.9614 0.9625
1996.517 0.9601 0.9239 0.8666 0.8371 0.7884 0.7441 0.7491 0.7328 0.6789 0.628
2015.807 0.6075 0.6506 0.6307 0.6196 0.6137 0.5723 0.556 0.533 0.5356 0.5439
2035.097 0.5495 0.4801 0.4454 0.4857 0.5176 0.5404 0.5374 0.5239 0.4518 0.4543
2054.387 0.5196 0.5351 0.5247 0.5537 0.5776 0.5307 0.5294 0.562 0.5709 0.6068
2073.677 0.6069 0.5817 0.615 0.6351 0.5619 0.5236 0.5612 0.578 0.5646 0.5697
2092.967 0.5351 0.5089 0.538 0.5192 0.4743 0.4932 0.5354 0.5139 0.4925 0.4886
2112.257 0.4859 0.4849 0.4529 0.4242 0.4399 0.4299 0.423 0.4406 0.4253 0.4464
2131.547 0.4615 0.4541 0.4778 0.463 0.4738 0.4771 0.4445 0.4446 0.4402 0.4203
2150.837 0.4507 0.4484 0.4248 0.4693 0.4334 0.4331 0.4797 0.4617 0.4435 0.4189
2170.127 0.4186 0.4292 0.42 0.4246 0.4309 0.42 0.4005 0.4225 0.4803 0.4917
2189.417 0.4702 0.4546 0.4483 0.5004 0.528 0.5154 0.4979 0.4801 0.5086 0.5085
2208.707 0.4674 0.452 0.4808 0.459 0.4251 0.4427 0.4739 0.4995 0.4568 0.4489
2227.997 0.4644 0.4864 0.5599 0.5538 0.5152 0.4957 0.4571 0.4417 0.5015 0.4886
2247.287 0.4337 0.5123 0.5766 0.5985 0.57 0.4791 0.4833 0.5145 0.5141 0.5217
2266.577 0.5186 0.4974 0.4771 0.4641 0.4711 0.4693 0.4616 0.4314 0.3979 0.4395
2285.868 0.4826 0.4609 0.4079 0.4149 0.4242 0.3589 0.3649 0.4153 0.457 0.4473
2305.158 0.4042 0.4345 0.4495 0.4456 0.4201 0.3657 0.346 0.3379 0.3446 0.3611
2324.448 0.3573 0.389 0.365 0.306 0.3089 0.3929 0.4153 0.4086 0.4267 0.3935
2343.738 0.4047 0.4145 0.395 0.3828 0.3195 0.3093 0.3569 0.3092 0.2975 0.3255
2363.028 0.3092 0.2416 0.20018 0.2605 0.3043 0.303 0.3329 0.397 0.3908 0.389
2382.318 0.3829 0.3497 0.3806 0.4268 0.3997 0.3953 0.4595 0.4354 0.4396 0.4563
2401.608 0.457 0.4006 0.3585 0.4243 0.4273 0.4013 0.4183 0.4004 0.408 0.4372
2420.898 0.4168 0.386 0.3941 0.4048 0.396 0.385 0.4067 0.4423 0.4391 0.4142
2440.188 0.3732 0.3624 0.3158 0.2474 0.249 0.2591 0.2783 0.3128 0.2911 0.2603
2459.478 0.2542 0.2708 0.3016 0.2867 0.3002 0.3057 0.3225 0.3569 0.3146 0.3076
2478.768 0.3105 0.2994 0.2601 0.2761 0.2911 0.1786 0.13965 0.16685 0.18554 0.21944
2498.058 0.22383 0.17137 0.17153 0.19983 0.16296 0.18304 0.23373 0.17772 0.1164 0.13133
2517.348 0.147722 0.1184 0.1074 0.1197 0.1295 0.0713 0.0492 0.1228 0.13995 0.1052
2536.638 0.0867 0.0908 0.0504 0.1038 0.16898 0.141067 0.13691 0.13699 0.1018 0.057
2555.928 0.0487 0.067 0.0812 0.0693 0.0643 0.0943 0.0945 0.0595 0.0989 0.19039
2575.218 0.17361 0.0913 0 0 0.1271 0.19397 0.15277 0.0731 0.0944 0.17063
2594.508 0.18387 0.16644 0.13347 0.1245 0.0975 0.1042 0.1135 0.13363 0.22859 0.2735
2613.798 0.2756 0.2556 0.23404 0.16888 0.1304 0.19015 0.15848 0.13231 0.15174 0.15918
2633.088 0.18269 0.17573 0.20033 0.2157 0.23001 0.2942 0.2655 0.21373 0.20734 0.19276
2652.378 0.18208 0.20411 0.21248 0.2178 0.20711 0.163 0.2466 0.2712 0.21238 0.2761
2671.668 0.3633 0.3545 0.3615 0.3553 0.3291 0.3027 0.2734 0.2807 0.20373 0.1207
2690.958 0.0988 0.0965 0.1266 0.20449 0.21666 0.21157 0.2743 0.2763 0.2818 0.3793
2710.248 0.3721 0.2691 0.2858 0.2845 0.22689 0.21857 0.2868 0.24079 0.2418 0.3431
2729.538 0.2923 0.2718 0.3377 0.3612 0.3036 0.2953 0.3978 0.4307 0.3803 0.3324
2748.828 0.2938 0.4136 0.4526 0.4129 0.4198 0.4739 0.4982 0.4592 0.5102 0.5446
2768.118 0.6085 0.5846 0.5436 0.6627 0.6797 0.6022 0.6806 0.6911 0.6065 0.6139
2787.408 0.5993 0.5718 0.577 0.5646 0.6156 0.7128 0.7741 0.818 0.8602 0.9496
2806.698 1.0326 1.0893 1.221 1.371 1.501 1.591 1.781 2.051 2.321 2.591
2825.988 2.951 3.401 3.731 4.101 4.561 4.971 5.211 5.341 5.361 5.211
2845.278 5.071 4.741 4.271 3.851 3.641 3.581 3.371 3.321 3.431 3.541
2864.568 3.651 3.701 3.741 3.841 4.081 4.321 4.501 4.711 5.051 5.331
2883.858 5.611 6.051 6.711 7.571 8.631 10.091 11.821 13.851 16.191 18.221
2903.148 19.781 20.951 21.431 21.161 20.381 19.271 17.951 16.761 15.951 15.731
2922.438 16.201 17.251 18.561 19.991 21.511 22.881 24.001 24.861 25.531 26.001
2941.728 26.081 25.361 23.861 22.311 20.951 19.601 18.311 17.281 16.681 16.531
2961.018 16.781 17.191 17.561 17.801 17.941 18.031 17.971 17.901 17.951 18.191
2980.308 18.481 18.731 18.901 18.701 18.231 17.561 16.671 15.411 14.011 12.701
2999.598 11.501 10.551 9.591 8.691 8.011 7.401 6.821 6.271 5.641 5.091
3018.888 4.641 4.211 3.811 3.341 2.931 2.651 2.461 2.241 2.011 1.911
3038.178 1.821 1.691 1.621 1.491 1.361 1.321 1.311 1.201 1.0782 1.0646
3057.468 1.0424 0.9652 0.7686 0.6602 0.727 0.7554 0.7606 0.7475 0.7079 0.7046
3076.758 0.6649 0.7219 0.6696 0.5475 0.5962 0.6909 0.7014 0.5744 0.5624 0.588
3096.048 0.6316 0.6802 0.5886 0.6233 0.6969 0.6555 0.5367 0.5522 0.6969 0.6859
3115.338 0.6053 0.4986 0.4487 0.4749 0.4218 0.539 0.6798 0.5808 0.4386 0.3107
3134.628 0.3337 0.5142 0.6283 0.6455 0.5954 0.5574 0.5722 0.5473 0.4102 0.3316
3153.918 0.5081 0.6433 0.6087 0.496 0.4743 0.5433 0.5866 0.6102 0.5996 0.5275
3173.208 0.514 0.3867 0.268 0.3877 0.3855 0.4118 0.4292 0.3588 0.3481 0.3631
3192.498 0.3832 0.3799 0.3975 0.3929 0.3598 0.3949 0.3982 0.3399 0.389 0.2911
3211.788 0.1091 0.15996 0.2714 0.394 0.407 0.3389 0.4334 0.3622 0.2949 0.395
3231.078 0.3545 0.2846 0.3446 0.346 0.264 0.2599 0.21643 0.16884 0.1263 0.19205
3250.368 0.3423 0.3787 0.2637 0.20165 0.3969 0.4202 0.3101 0.2868 0.21489 0.17992
3269.658 0.2488 0.3125 0.2825 0.2855 0.2759 0.283 0.3045 0.3565 0.3852 0.2999
3288.948 0.3257 0.3333 0.3082 0.2926 0.23786 0.3229 0.3057 0.2531 0.3436 0.2131
3308.238 0.2005 0.2748 0.2128 0.20847 0.22131 0.2683 0.2708 0.3314 0.2963 0.2807
3327.528 0.4116 0.3703 0.3436 0.2858 0.298 0.2596 0.0975 0.21916 0.2422 0.20088
3346.818 0.2852 0.2799 0.2482 0.3014 0.3514 0.2495 0.21204 0.1913 0.1274 0.1249
3366.108 0.149295 0.2557 0.3037 0.4059 0.4201 0.3508 0.4977 0.4959 0.3275 0.3341
3385.398 0.4132 0.4124 0.2649 0.19577 0.2469 0.3129 0.4096 0.34 0.22427 0.2904
3404.688 0.3624 0.2563 0.294 0.43 0.3821 0.457 0.4318 0.3494 0.4496 0.4522
3423.978 0.4586 0.5041 0.533 0.599 0.5923 0.4686 0.3617 0.3428 0.4144 0.5019
3443.269 0.5263 0.5908 0.719 0.6551 0.5243 0.3921 0.4074 0.6271 0.5793 0.4789
3462.559 0.6554 0.7465 0.7237 0.8157 0.8988 0.9051 0.8842 0.9218 0.9015 0.8979
3481.849 0.9469 0.9634 0.9204 0.7258 0.6 0.6165 0.5572 0.596 0.5953 0.5905
3501.139 0.6746 0.6354 0.6438 0.52 0.4054 0.4299 0.3441 0.3575 0.3777 0.2607
3520.429 0.3118 0.3669 0.4124 0.4279 0.3216 0.3809 0.4035 0.3086 0.2647 0.2589
3539.719 0.3261 0.3678 0.3151 0.2694 0.2997 0.23016 0.3126 0.4613 0.4177 0.3755
3559.009 0.3522 0.2826 0.285 0.2893 0.2984 0.4028 0.3278 0.2664 0.2619 0.2653
3578.299 0.3801 0.4074 0.2996 0.2805 0.3083 0.3049 0.22703 0.15894 0.2421 0.2552
3597.589 0.19159 0.2449 0.3584 0.3439 0.3523 0.3373 0.2773 0.3889 0.4197 0.4102
3616.879 0.473 0.4467 0.45 0.4497 0.4069 0.4618 0.5018 0.3894 0.3101 0.3704
3636.169 0.3859 0.3448 0.4092 0.4775 0.4115 0.2496 0.2389 0.2657 0.2444 0.2911
3655.459 0.3247 0.3971 0.3975 0.426 0.3956 0.4272 0.464 0.2487 0.20226 0.2546
3674.749 0.3 0.3233 0.3048 0.3229 0.2961 0.3204 0.3389 0.3722 0.4262 0.3663
3694.039 0.3106 0.3035 0.3564 0.4153 0.3877 0.436 0.4693 0.3687 0.3377 0.4099
3713.329 0.3698 0.4104 0.4404 0.4104 0.4506 0.4895 0.3967 0.3239 0.3779 0.3378
3732.619 0.3887 0.4483 0.3569 0.2669 0.3676 0.3956 0.3419 0.3789 0.302 0.2742
3751.909 0.2899 0.21851 0.23234 0.3261 0.4267 0.5097 0.4567 0.3855 0.3994 0.3294
3771.199 0.3788 0.4976 0.4604 0.4455 0.4324 0.4014 0.4281 0.4305 0.3834 0.3339
3790.489 0.3128 0.4072 0.5322 0.4737 0.4308 0.4309 0.3541 0.3926 0.4164 0.412
3809.779 0.4751 0.4315 0.3957 0.3999 0.4386 0.4625 0.4213 0.3742 0.3608 0.4231
3829.069 0.4258 0.4976 0.5649 0.548 0.5197 0.4513 0.3388 0.22582 0.3386 0.4672
3848.359 0.5806 0.6623 0.4879 0.4065 0.4165 0.368 0.3396 0.277 0.2521 0.21698
3867.649 0.21079 0.3967 0.5182 0.4836 0.3571 0.3438 0.3117 0.3546 0.3193 0.20856
3886.939 0.338 0.4121 0.3967 0.353 0.3667 0.2818 0.2555 0.3294 0.2649 0.3773
3906.229 0.5609 0.483 0.428 0.5402 0.5446 0.4913 0.5943 0.7055 0.6243 0.5524
3925.519 0.4865 0.3435 0.344 0.4153 0.4425 0.4992 0.4744 0.4383 0.5252 0.5842
3944.809 0.5626 0.5836 0.6081 0.5613 0.5291 0.4372 0.4176 0.3724 0.3741 0.5506
3964.099 0.5994 0.533 0.3846 0.3479 0.3883 0.3684 0.4297 0.4653 0.4447 0.4749
3983.389 0.5391 0.5883 0.4585 0.3151 0.4638 0.5791 0.5503 0.5576 0.5936 0.574
##END=
