##TITLE=2,4-Dimethoxyiodobenzene
##JCAMP-DX=4.24
##DATA TYPE=INFRARED SPECTRUM
##ORIGIN=EPA-IR VAPOR PHASE LIBRARY
##OWNER=SRD/NIST
Collection (C) 2018 copyright by the U.S. Secretary of Commerce
on behalf of the United States of America. All rights reserved.
##CAS REGISTRY NO=20469-63-0
##MOLFORM=C 8 H 9 I O 2
##$NIST SOURCE=MSDC-IR
##STATE=gas
##XUNITS=1/CM
##YUNITS=ABSORBANCE
##XFACTOR=1.
##YFACTOR=0.001
##DELTAX=1.92898
##FIRSTX=549.8
##LASTX=4000.7
##FIRSTY=1.964
##MAXX=4000.7
##MINX=549.759
##MAXY=0.094824
##MINY=0
##NPOINTS=1790
##XYDATA=(X++(Y..Y))
549.759 1.964 1.794 1.834 2.304 2.404 2.434 2.504 2.744 3.234 3.324
569.049 3.454 4.144 4.814 5.234 5.764 6.354 7.114 8.044 9.054 9.934
588.339 10.444 10.774 10.824 10.514 9.984 9.364 8.744 8.184 8.014 7.934
607.628 7.574 7.234 6.944 6.584 6.254 6.074 5.634 4.884 4.384 4.294
626.918 4.184 3.874 3.504 3.424 3.474 3.294 3.184 3.034 2.754 2.644
646.208 2.664 2.534 2.234 2.194 2.244 2.134 2.034 1.824 1.694 1.564
665.498 1.484 1.484 1.544 1.554 1.364 1.284 1.294 1.314 1.374 1.464
684.787 1.414 1.314 1.226 1.244 1.394 1.514 1.534 1.504 1.514 1.424
704.077 1.454 1.674 1.704 1.714 1.814 1.824 1.644 1.434 1.614 1.664
723.367 1.484 1.394 1.294 1.274 1.274 1.304 1.394 1.314 1.2229 1.284
742.657 1.2265 1.1356 1.0708 1.0611 1.0092 0.8806 0.8922 0.9593 1.043 1.404
761.947 1.604 1.714 2.034 2.244 2.694 3.294 3.854 4.584 5.484 6.314
781.236 7.034 7.764 8.104 8.184 8.004 7.854 7.814 7.744 7.624 7.364
800.526 7.294 7.184 6.914 6.834 6.834 6.794 6.914 7.304 7.884 8.374
819.816 8.794 9.354 10.104 11.044 11.974 12.784 13.644 14.434 14.864 14.814
839.106 14.274 13.674 13.254 12.414 11.334 10.314 9.374 8.524 7.634 6.834
858.395 6.124 5.384 4.684 4.074 3.614 3.234 2.774 2.604 2.574 2.244
877.685 2.194 2.274 2.154 2.024 1.904 1.944 2.004 2.054 2.164 2.254
896.975 2.304 2.424 2.664 2.904 3.274 3.714 4.104 4.674 5.114 5.514
916.265 6.094 6.414 6.624 6.864 6.874 6.584 6.274 5.974 5.444 5.034
935.555 4.574 3.964 3.524 3.244 3.054 2.914 2.814 2.584 2.344 2.344
954.844 2.424 2.344 2.474 2.644 2.754 2.844 2.914 3.064 3.144 3.244
974.134 3.434 3.514 3.624 4.004 4.404 4.714 5.024 5.394 6.054 6.904
993.424 7.634 8.584 9.834 11.224 13.134 16.164 20.604 26.184 32.504 38.424
1012.714 42.754 45.134 46.164 45.744 43.024 38.964 36.074 36.024 37.304 38.834
1032.003 40.724 42.594 44.114 44.814 44.974 44.864 44.664 44.244 43.254 42.424
1051.293 41.374 40.154 39.154 37.194 34.674 32.074 29.164 26.224 23.184 20.004
1070.583 17.284 15.184 13.054 11.264 10.354 9.374 8.514 8.154 7.864 7.634
1089.873 7.174 6.844 7.004 7.314 7.584 7.934 8.404 9.154 9.894 11.174
1109.163 12.894 14.574 16.544 18.474 20.204 21.914 22.674 22.984 23.554 23.454
1128.452 23.004 22.444 22.294 22.624 22.964 23.494 24.474 26.224 29.134 32.714
1147.742 37.184 42.884 49.444 56.854 64.354 71.124 76.214 78.994 79.564 77.564
1167.032 72.944 66.664 59.264 51.874 45.804 40.934 37.154 34.484 32.874 32.364
1186.322 32.634 33.644 35.754 39.084 43.684 49.754 56.984 65.174 73.764 82.134
1205.611 88.994 92.664 92.784 89.334 82.794 73.804 63.364 52.984 44.154 37.504
1224.901 32.874 29.654 27.574 26.344 25.424 25.054 25.394 26.314 27.534 28.504
1244.191 29.744 31.364 32.924 34.164 35.074 35.934 36.604 37.144 37.424 37.724
1263.481 38.204 38.974 40.154 41.874 44.154 46.724 49.764 53.314 57.104 61.204
1282.771 65.554 70.194 74.824 78.984 82.554 85.554 87.554 87.964 86.864 84.154
1302.060 79.824 74.154 67.374 59.844 52.034 44.304 36.944 30.374 24.884 20.574
1321.350 17.194 14.494 12.404 10.874 9.644 8.654 7.914 7.264 6.704 6.274
1340.640 5.954 5.704 5.534 5.314 5.064 4.984 4.974 4.914 4.914 5.014
1359.930 5.214 5.504 5.854 6.274 6.844 7.524 8.324 9.244 10.294 11.504
1379.219 12.814 14.154 15.574 17.214 18.924 20.624 22.344 24.034 25.484 26.664
1398.509 27.574 28.154 28.354 28.074 27.404 26.384 25.004 23.484 21.954 20.504
1417.799 19.264 18.364 17.984 18.064 18.814 20.284 22.584 25.774 29.734 34.194
1437.089 38.614 41.974 43.894 44.584 44.394 43.374 42.054 41.784 43.434 46.874
1456.378 51.674 57.424 63.494 69.554 75.014 79.974 84.664 89.034 92.684 94.824
1475.668 94.604 92.044 87.094 80.124 71.684 62.204 52.424 43.224 34.944 28.004
1494.958 22.504 18.354 15.464 13.294 11.624 10.384 9.454 8.754 8.224 7.754
1514.248 7.424 7.274 7.114 7.004 6.994 7.084 7.234 7.424 7.704 8.124
1533.538 8.654 9.124 9.694 10.414 11.214 12.214 13.324 14.604 16.204 17.984
1552.827 20.034 22.634 25.734 29.474 33.914 38.934 44.574 50.704 57.304 64.154
1572.117 70.864 76.914 82.384 87.014 90.104 91.604 91.224 89.034 85.264 79.874
1591.407 73.164 65.544 57.414 49.484 42.164 35.474 29.594 24.734 20.834 17.704
1610.697 15.204 13.064 11.374 9.994 8.864 8.014 7.234 6.554 6.034 5.614
1629.986 5.184 4.824 4.554 4.304 4.154 3.964 3.694 3.494 3.314 3.254
1649.276 3.234 3.084 2.984 2.954 2.924 2.844 2.804 2.774 2.794 2.774
1668.566 2.664 2.654 2.604 2.514 2.494 2.464 2.434 2.344 2.244 2.174
1687.856 2.144 2.164 2.164 2.134 2.094 2.064 2.054 2.054 2.094 2.154
1707.146 2.164 2.134 2.114 2.054 2.004 2.014 2.094 2.174 2.164 2.174
1726.435 2.194 2.144 2.094 2.024 1.994 1.914 1.754 1.684 1.624 1.614
1745.725 1.584 1.494 1.384 1.274 1.284 1.274 1.179 1.1086 1.0993 1.1463
1765.015 1.1351 1.0702 1.0517 1.0508 1.0733 1.0839 1.0829 1.0592 1.0235 1.0053
1784.305 1.0843 1.1412 1.1097 1.16 1.2055 1.199 1.1928 1.2305 1.264 1.244
1803.594 1.264 1.284 1.274 1.244 1.1891 1.1333 1.0893 1.0885 1.1128 1.1259
1822.884 1.1587 1.164 1.1985 1.2195 1.234 1.344 1.404 1.444 1.444 1.444
1842.174 1.534 1.584 1.594 1.574 1.584 1.574 1.544 1.544 1.574 1.614
1861.464 1.654 1.734 1.734 1.764 1.824 1.814 1.784 1.744 1.764 1.814
1880.754 1.744 1.614 1.554 1.534 1.504 1.424 1.294 1.2301 1.2111 1.1823
1900.043 1.1836 1.1755 1.1452 1.1476 1.2055 1.1969 1.2208 1.334 1.424 1.424
1919.333 1.424 1.464 1.534 1.614 1.604 1.624 1.674 1.704 1.714 1.644
1938.623 1.564 1.534 1.484 1.434 1.404 1.364 1.344 1.324 1.304 1.294
1957.913 1.294 1.284 1.254 1.274 1.254 1.294 1.314 1.2222 1.1627 1.2137
1977.202 1.2165 1.1397 1.1186 1.0857 0.9964 0.9764 0.986 0.9638 0.9523 0.9288
1996.492 0.9578 1.0181 1.0473 1.0757 1.1249 1.089 1.1543 1.1833 1.1604 1.244
2015.782 1.254 1.217 1.178 1.218 1.244 1.2212 1.2109 1.254 1.294 1.284
2035.072 1.294 1.324 1.334 1.414 1.494 1.554 1.614 1.664 1.694 1.744
2054.362 1.814 1.884 1.994 2.034 2.124 2.134 2.104 2.174 2.254 2.264
2073.651 2.204 2.124 2.044 1.984 1.924 1.884 1.874 1.874 1.754 1.644
2092.941 1.584 1.534 1.474 1.454 1.424 1.364 1.364 1.344 1.304 1.264
2112.231 1.2105 1.1437 1.1009 1.1067 1.0932 1.0464 1.0041 0.9674 0.9814 1.032
2131.521 0.9901 0.9247 0.948 0.936 0.8877 0.8188 0.7604 0.7706 0.7851 0.7831
2150.810 0.7961 0.7783 0.7802 0.773 0.7344 0.8084 0.8403 0.8527 0.8829 0.8951
2170.100 0.926 0.9832 1.0512 1.0951 1.171 1.1863 1.1241 1.1693 1.244 1.264
2189.390 1.264 1.304 1.384 1.464 1.444 1.364 1.284 1.284 1.294 1.264
2208.680 1.294 1.274 1.1884 1.155 1.1209 1.1246 1.1081 1.037 1.0523 1.0224
2227.970 0.9007 0.8308 0.7737 0.7303 0.71 0.6311 0.5722 0.5267 0.4893 0.5189
2247.259 0.498 0.4509 0.4596 0.4388 0.4282 0.4465 0.4472 0.437 0.4046 0.4049
2266.549 0.4595 0.4723 0.5248 0.5626 0.5713 0.5827 0.5553 0.604 0.6609 0.7368
2285.839 0.8304 0.8211 0.8237 0.9422 0.9601 0.9102 0.9227 1.0206 1.0675 1.037
2305.129 1.0157 0.976 0.9982 0.9944 0.9896 0.9483 0.9226 0.9071 0.7917 0.7644
2324.418 0.8007 0.7847 0.6898 0.6469 0.5709 0.4635 0.5071 0.5464 0.5298 0.5114
2343.708 0.4523 0.4629 0.5476 0.5824 0.5798 0.5924 0.5642 0.5479 0.5679 0.5624
2362.998 0.592 0.5841 0.6215 0.6859 0.6799 0.7108 0.7145 0.7548 0.7929 0.7995
2382.288 0.8119 0.776 0.8038 0.7725 0.7583 0.7778 0.7609 0.7429 0.7135 0.6996
2401.578 0.7254 0.7624 0.7592 0.704 0.7388 0.7905 0.7323 0.719 0.7966 0.856
2420.867 0.8041 0.7948 0.8574 0.826 0.7626 0.7803 0.7915 0.7841 0.8529 0.951
2440.157 0.9572 0.9551 0.9656 0.9252 0.8676 0.8556 0.8752 0.9127 0.9481 0.9141
2459.447 0.8773 0.8678 0.8739 0.897 0.9594 0.9306 0.8848 0.9847 1.0172 1.02
2478.737 1.1046 1.1099 1.0647 1.1563 1.264 1.294 1.254 1.1953 1.1878 1.244
2498.026 1.274 1.244 1.2243 1.1892 1.2153 1.234 1.2032 1.1339 1.0485 1.0189
2517.316 0.9638 0.9193 0.9209 0.8764 0.7879 0.7679 0.7822 0.8101 0.8044 0.7061
2536.606 0.6907 0.726 0.7584 0.7687 0.7253 0.6738 0.7639 0.8715 0.878 0.8777
2555.896 0.8585 0.8935 0.9294 0.9407 0.9529 1.008 0.978 0.9242 0.9467 0.9359
2575.186 0.9057 0.8792 0.8966 0.9538 1.0051 0.9662 0.917 0.923 0.921 0.9232
2594.475 0.9472 0.9448 0.996 1.0236 0.9707 0.9103 0.9291 0.9798 1.0366 1.0042
2613.765 0.9347 0.8961 0.8998 0.9603 1.038 1.0641 0.9827 0.9105 0.9072 0.9393
2633.055 0.91 0.9223 0.9607 0.9331 0.9142 0.9179 0.8722 0.8232 0.8358 0.8326
2652.345 0.7943 0.7982 0.7833 0.7603 0.8332 0.9548 0.9237 0.8952 0.9139 0.8835
2671.634 0.8502 0.941 0.9512 0.7476 0.705 0.781 0.7745 0.7215 0.7364 0.7497
2690.924 0.757 0.7359 0.641 0.7192 0.7696 0.6389 0.5682 0.597 0.6693 0.7061
2710.214 0.6686 0.6855 0.7359 0.6985 0.709 0.7083 0.7569 0.7595 0.722 0.7367
2729.504 0.7645 0.7759 0.7818 0.7982 0.8595 0.9409 0.8991 0.8987 0.9394 0.9518
2748.794 0.9912 0.9928 0.966 0.9418 0.9963 1.0735 1.1045 1.1429 1.092 1.1129
2768.083 1.2267 1.254 1.324 1.414 1.424 1.504 1.634 1.614 1.524 1.614
2787.373 1.804 1.934 1.974 2.054 2.244 2.484 2.634 2.674 2.834 3.084
2806.663 3.264 3.484 3.744 4.064 4.494 4.854 5.144 5.624 6.184 6.884
2825.953 7.714 8.594 9.634 10.894 12.324 13.924 15.644 17.204 18.624 19.754
2845.242 20.234 20.274 19.914 19.214 18.184 16.934 15.864 14.904 14.094 13.284
2864.532 12.634 12.224 11.864 11.514 11.244 10.994 10.824 10.824 10.784 10.714
2883.822 10.784 10.954 11.084 11.224 11.374 11.604 11.934 12.154 12.334 12.584
2903.112 13.074 13.624 14.144 14.804 15.514 16.244 16.754 17.174 17.584 17.964
2922.401 18.294 18.544 18.904 19.454 20.304 21.634 23.484 25.664 28.344 31.414
2941.691 34.384 36.814 38.484 39.344 39.394 38.644 37.174 35.194 33.134 31.294
2960.981 29.644 28.104 26.424 24.614 22.724 20.804 19.064 17.494 15.974 14.774
2980.271 13.844 13.074 12.524 12.254 12.334 12.514 12.944 13.684 14.774 16.364
2999.561 18.424 21.074 23.874 26.684 28.844 29.594 29.264 27.814 25.354 22.144
3018.850 18.434 15.104 12.514 10.514 9.004 7.904 7.084 6.404 5.804 5.324
3038.140 5.024 4.784 4.634 4.454 4.224 4.144 3.894 3.704 3.694 3.724
3057.430 3.764 3.714 3.784 3.924 4.034 4.234 4.514 4.854 5.154 5.494
3076.720 5.954 6.204 6.464 6.624 6.544 6.484 6.384 6.054 5.694 5.394
3096.009 4.974 4.504 4.074 3.564 3.204 2.984 2.704 2.514 2.374 2.184
3115.299 2.014 1.814 1.714 1.674 1.714 1.724 1.594 1.584 1.514 1.444
3134.589 1.424 1.554 1.594 1.484 1.454 1.344 1.2117 1.294 1.344 1.2304
3153.879 1.2002 1.1223 1.0636 1.1095 1.0758 1.0292 0.9801 0.8889 0.8391 0.8514
3173.169 0.8746 0.9094 0.8326 0.7165 0.7207 0.7068 0.6365 0.6157 0.6493 0.6972
3192.458 0.6772 0.6006 0.5927 0.6125 0.6005 0.4601 0.4386 0.6143 0.6232 0.509
3211.748 0.5482 0.4909 0.4267 0.4969 0.5451 0.51 0.482 0.5429 0.4628 0.3982
3231.038 0.4063 0.4015 0.27092 0.1563 0.28339 0.28937 0.1843 0.25038 0.1939 0.103
3250.328 0.2133 0.32582 0.4353 0.4126 0.3502 0.28335 0.2084 0.114 0.1684 0.3775
3269.617 0.28919 0.131 0.1809 0.3772 0.355 0.126 0.108 0.1625 0.1887 0.2017
3288.907 0.1822 0.1936 0.1952 0.2117 0.3609 0.3073 0.1346 0.106 0.236114 0.30628
3308.197 0.26267 0.2121 0.1806 0.2141 0.2186 0.25276 0.2003 0.115 0.045 0.09
3327.487 0.1644 0.126 0.036 0.025 0.28253 0.4174 0.30262 0.25721 0.235299 0.25392
3346.777 0.24597 0.108 0.103 0.28287 0.27372 0.148 0.1852 0.28924 0.31008 0.31997
3366.066 0.3539 0.2233 0.102 0.123 0.1422 0.1412 0.113 0.2138 0.31736 0.3546
3385.356 0.2744 0.187 0.22631 0.1869 0.077 0.098 0.1817 0.123 0 0.064
3404.646 0.2217 0.28782 0.334 0.26526 0.22527 0.118 0.065 0.098 0.131 0.4148
3423.936 0.4514 0.30588 0.27867 0.1905 0.1614 0.1877 0.24649 0.32783 0.29241 0.2169
3443.225 0.2158 0.3178 0.32238 0.26512 0.25646 0.25275 0.24659 0.25043 0.240941 0.2052
3462.515 0.1935 0.1615 0.1838 0.29476 0.3651 0.30405 0.25115 0.24105 0.243192 0.27966
3481.805 0.236555 0.2127 0.27027 0.28009 0.30973 0.26044 0.32359 0.3358 0.1929 0.22759
3501.095 0.28571 0.28714 0.31608 0.3847 0.4155 0.4787 0.4293 0.27378 0.2153 0.1861
3520.385 0.2098 0.235443 0.3357 0.3752 0.28065 0.26285 0.2446 0.2175 0.25726 0.3516
3539.674 0.2143 0.1476 0.28223 0.214 0.1829 0.2091 0.2122 0.243169 0.30369 0.27886
3558.964 0.098 0.015 0.061 0.132 0.2179 0.214 0.2582 0.29195 0.2553 0.26631
3578.254 0.4106 0.4637 0.31449 0.2015 0.17 0.233975 0.23093 0.33156 0.4729 0.4694
3597.544 0.27148 0.126 0.189 0.1472 0.08 0.086 0.237204 0.3391 0.24475 0.1779
3616.833 0.181 0.3382 0.3922 0.3394 0.25459 0.1604 0.1413 0.183 0.25568 0.2712
3636.123 0.26048 0.29331 0.3591 0.4019 0.3813 0.2164 0.1457 0.28457 0.25758 0.1915
3655.413 0.3621 0.3672 0.30078 0.3566 0.26488 0.27554 0.23241 0.111 0.112 0.1482
3674.703 0.1574 0.058 0.23626 0.3623 0.24723 0.2102 0.32078 0.3895 0.2122 0.1656
3693.993 0.29739 0.27673 0.30755 0.29 0.123 0.039 0.07 0.1582 0.28921 0.3429
3713.282 0.31649 0.2193 0.078 0.1763 0.27001 0.132 0.118 0.26952 0.31448 0.27448
3732.572 0.30444 0.3789 0.3788 0.2181 0.1621 0.27054 0.3747 0.3498 0.2861 0.2045
3751.862 0.1965 0.236035 0.1648 0.26494 0.3775 0.4046 0.25113 0.204 0.25593 0.32047
3771.152 0.4051 0.3822 0.27373 0.24709 0.3622 0.3415 0.29119 0.1864 0.154 0.1943
3790.441 0.091 0.081 0.2071 0.26852 0.27303 0.1614 0.11 0.25938 0.4275 0.4256
3809.731 0.4459 0.3597 0.31995 0.3593 0.28572 0.3244 0.4026 0.3628 0.26241 0.1869
3829.021 0.127 0.237518 0.32202 0.3518 0.3621 0.22988 0.112 0.127 0.211 0.3193
3848.311 0.2506 0.2035 0.3634 0.27868 0.24504 0.31668 0.3304 0.4276 0.496 0.4251
3867.601 0.4511 0.4357 0.32289 0.3997 0.4259 0.493 0.4994 0.4403 0.5999 0.6714
3886.890 0.4966 0.4453 0.3687 0.3642 0.445 0.3423 0.3866 0.4449 0.3805 0.32324
3906.180 0.3376 0.4647 0.5236 0.4662 0.4352 0.4334 0.4891 0.4668 0.5048 0.6055
3925.470 0.5285 0.4226 0.4903 0.5817 0.4026 0.3373 0.3985 0.4617 0.4749 0.4106
3944.760 0.3668 0.32822 0.354 0.3901 0.4382 0.5806 0.5132 0.32423 0.29597 0.326
3964.049 0.381 0.3119 0.31127 0.32825 0.3982 0.5363 0.5532 0.6266 0.6475 0.4976
3983.339 0.5004 0.6426 0.6135 0.4209 0.4039 0.5203 0.5353 0.5888 0.6586 0.6157
##END=
