##TITLE=(3-Methylbutyl)benzene
##JCAMP-DX=4.24
##DATA TYPE=INFRARED SPECTRUM
##ORIGIN=NIST Mass Spectrometry Data Center
##OWNER=NIST Standard Reference Data Program
Collection (C) 2018 copyright by the U.S. Secretary of Commerce
on behalf of the United States of America. All rights reserved.
##CAS REGISTRY NO=2049-94-7
##MOLFORM=C 11 H 16
##$NIST SOURCE=MSDC-IR
##SPECTROMETER/DATA SYSTEM=HP-GC/MS/IRD
##STATE=gas
##XUNITS=1/CM
##YUNITS=ABSORBANCE
##XFACTOR=1.0
##YFACTOR=0.000005600
##DELTAX=4.0
##FIRSTX=550.0
##LASTX=3846.0
##FIRSTY=0.000879
##MAXX=3846
##MINX=550
##MAXY=0.056
##MINY=0
##NPOINTS=825
##XYDATA=(X++(Y..Y))
550.0 157 144 131 201 277 312 322 299 262 217
590.0 166 111 84 74 36 7 4 3 4 13
630.0 46 67 59 88 123 119 165 229 278 368
670.0 441 557 783 1142 1687 2319 2871 3033 2790 2363
710.0 1943 1682 1577 1609 1743 1912 2053 2079 1986 1776
750.0 1491 1227 1015 825 668 559 447 352 269 194
790.0 155 122 99 101 85 64 59 61 61 57
830.0 54 49 43 45 49 49 40 34 31 29
870.0 41 57 72 90 114 136 152 176 192 193
910.0 191 179 159 154 140 130 121 107 97 87
950.0 79 72 70 67 61 60 59 55 59 71
990.0 74 74 73 77 90 113 145 204 337 504
1030.0 568 529 404 250 203 223 263 320 349 341
1070.0 315 276 225 178 153 144 135 142 156 156
1110.0 161 172 169 149 134 133 124 116 123 146
1150.0 175 230 301 365 410 407 359 284 218 189
1190.0 197 218 219 205 183 148 121 106 103 109
1230.0 125 145 141 133 125 111 99 96 106 120
1270.0 125 117 114 117 123 132 140 154 177 200
1310.0 227 256 281 311 340 364 391 418 429 443
1350.0 486 541 612 707 811 885 932 972 1020 1030
1390.0 945 783 569 395 306 266 251 256 272 302
1430.0 364 476 633 820 1028 1215 1367 1475 1511 1494
1470.0 1434 1313 1174 1096 1144 1332 1518 1509 1302 914
1510.0 501 290 209 171 148 138 129 118 110 100
1550.0 99 99 111 127 144 172 213 269 325 398
1590.0 494 626 779 873 844 701 498 315 202 138
1630.0 104 94 82 75 77 75 64 51 50 46
1670.0 42 45 41 41 41 36 43 51 44 44
1710.0 53 52 49 53 62 77 84 77 70 67
1750.0 63 52 47 46 51 58 67 86 118 154
1790.0 190 207 192 159 115 83 64 56 55 51
1830.0 51 57 62 76 86 89 96 104 115 128
1870.0 131 120 109 95 79 60 46 39 35 42
1910.0 47 59 77 97 123 149 164 170 184 191
1950.0 178 152 117 67 34 27 21 12 12 15
1990.0 14 13 4 1 4 3 5 6 3 10
2030.0 12 8 8 4 5 5 3 3 2 0
2070.0 0 0 2 4 2 3 6 3 4 8
2110.0 9 7 6 3 0 1 0 1 3 8
2150.0 9 8 6 3 8 11 8 7 7 4
2190.0 8 11 9 6 7 13 13 13 12 11
2230.0 8 7 10 12 10 10 14 13 8 4
2270.0 6 13 14 11 12 21 26 26 36 46
2310.0 52 68 82 95 115 131 146 148 135 99
2350.0 82 125 172 185 169 130 90 60 42 29
2390.0 23 24 28 30 27 23 22 25 26 23
2430.0 21 21 21 18 24 24 24 27 29 29
2470.0 27 32 35 31 28 26 26 28 32 34
2510.0 34 31 29 31 33 37 37 40 42 43
2550.0 46 48 47 50 56 57 58 66 74 79
2590.0 77 84 93 93 94 97 96 94 93 93
2630.0 98 103 105 109 109 105 103 99 94 96
2670.0 95 92 93 96 98 95 106 110 110 119
2710.0 126 129 136 148 160 168 172 172 164 159
2750.0 162 163 161 166 181 196 207 213 219 234
2790.0 251 267 275 282 303 330 361 389 426 476
2830.0 525 598 711 879 1118 1423 1755 2096 2430 2765
2870.0 3139 3482 3694 3730 3595 3404 3296 3342 3590 4056
2910.0 4644 5236 5738 6099 6366 6603 6815 6932 6910 6863
2950.0 7004 7589 8737 9852 10000 8876 6795 4602 3001 2063
2990.0 1545 1262 1121 1078 1103 1184 1330 1580 1981 2465
3030.0 2850 2966 2764 2311 1819 1529 1489 1653 2021 2425
3070.0 2614 2562 2273 1878 1592 1414 1254 1098 939 794
3110.0 679 565 457 362 281 231 208 198 186 176
3150.0 169 176 192 189 181 177 167 155 148 133
3190.0 129 133 119 116 117 104 90 81 78 74
3230.0 65 54 49 47 45 50 57 56 46 37
3270.0 44 52 49 41 39 38 35 39 41 39
3310.0 40 30 34 38 37 41 44 47 47 56
3350.0 63 55 51 52 46 42 40 39 36 43
3390.0 40 30 31 32 31 22 19 25 17 17
3430.0 32 35 24 21 28 27 22 23 26 18
3470.0 9 20 29 25 16 16 21 23 24 24
3510.0 19 14 18 22 15 8 3 6 18 22
3550.0 16 15 13 19 31 25 10 12 16 17
3590.0 14 13 19 20 17 23 26 22 18 29
3630.0 40 29 24 29 30 31 31 26 20 26
3670.0 33 32 21 20 24 25 23 21 23 25
3710.0 28 25 17 19 22 29 33 25 25 25
3750.0 25 26 25 28 26 25 30 30 35 40
3790.0 33 32 41 42 40 40 42 43 36 42
3830.0 47 35 30 33 29
##END=
