##TITLE=m-Diethoxybenzene
##JCAMP-DX=4.24
##DATA TYPE=INFRARED SPECTRUM
##ORIGIN=EPA-IR VAPOR PHASE LIBRARY
##OWNER=SRD/NIST
Collection (C) 2018 copyright by the U.S. Secretary of Commerce
on behalf of the United States of America. All rights reserved.
##CAS REGISTRY NO=2049-73-2
##MOLFORM=C 10 H 14 O 2
##$NIST SOURCE=MSDC-IR
##STATE=gas
##XUNITS=1/CM
##YUNITS=ABSORBANCE
##XFACTOR=1.
##YFACTOR=0.001
##DELTAX=3.85796
##FIRSTX=501.5
##LASTX=4000.7
##FIRSTY=0.192
##MAXX=4000.7
##MINX=501.534
##MAXY=0.115282
##MINY=0
##NPOINTS=908
##XYDATA=(X++(Y..Y))
501.534 0.192 0.03 0 0.29 0.47352 0.6174 0.6396 0.6311 0.7999 0.9984
540.114 1.1817 1.2514 1.1891 1.3199 1.3544 1.3051 1.542 1.632 1.492 1.592
578.693 1.852 1.932 1.862 1.792 1.722 1.672 1.682 1.642 1.492 1.3401
617.273 1.1799 1.0009 0.8807 0.8217 0.8642 0.8908 0.8821 0.9553 1.0945 1.2368
655.852 1.412 1.762 2.372 3.462 5.292 7.692 10.262 12.742 13.502 11.832
694.432 9.322 6.832 4.752 3.392 2.682 2.402 2.422 2.672 2.942 3.242
733.011 3.682 4.352 5.372 6.822 8.572 10.502 12.312 13.202 12.962 11.822
771.591 9.792 7.532 5.602 4.062 3.032 2.472 2.322 2.442 2.692 3.112
810.170 3.612 4.162 4.662 5.192 5.742 6.312 7.042 7.842 8.562 8.962
848.750 9.132 9.162 8.932 8.492 7.912 7.172 6.392 5.752 5.282 4.882
887.330 4.622 4.552 4.642 4.752 4.802 4.832 4.782 4.612 4.422 4.172
925.909 3.912 3.752 3.692 3.742 3.982 4.522 5.382 6.452 7.742 9.142
964.489 10.522 11.692 12.302 12.272 11.662 10.652 9.562 8.672 8.022 7.552
1003.068 7.372 7.702 8.702 10.262 12.542 15.822 20.482 26.962 34.752 42.552
1041.648 48.692 51.372 49.462 43.642 36.012 28.802 23.552 20.402 18.802 18.232
1080.227 18.402 18.862 19.282 19.622 19.742 19.822 20.302 21.572 23.622 25.962
1118.807 28.212 31.062 35.792 44.762 60.132 80.662 101.202 114.732 115.282 102.862
1157.387 84.522 69.632 65.022 71.582 84.932 97.612 102.462 96.022 79.992 60.002
1195.966 41.822 28.802 20.952 16.472 13.792 12.182 11.082 10.382 10.172 10.392
1234.546 11.332 13.182 16.222 21.122 27.872 35.432 42.402 47.702 50.912 52.052
1273.125 52.162 51.982 51.002 48.692 45.102 40.882 36.722 32.872 29.252 25.802
1311.705 22.622 20.052 18.172 16.672 15.252 13.682 12.012 10.362 8.972 8.072
1350.284 7.762 8.132 9.212 10.562 11.532 12.142 12.882 14.652 18.272 22.982
1388.864 27.202 29.122 27.862 24.142 19.392 15.152 12.222 10.462 9.602 9.532
1427.443 10.242 11.702 13.702 15.872 17.902 19.552 20.812 22.032 24.112 27.922
1466.023 34.522 43.842 53.702 60.822 64.272 63.892 59.462 52.242 42.292 30.672
1504.603 20.852 14.482 11.192 9.532 8.702 8.332 8.282 8.462 8.822 9.382
1543.182 10.122 11.102 12.452 14.282 16.772 20.182 24.802 31.182 39.612 50.452
1581.762 63.142 76.832 89.562 98.312 100.082 94.082 82.812 69.632 56.772 45.072
1620.341 34.852 26.372 19.952 15.512 12.322 9.952 8.172 6.802 5.792 4.992
1658.921 4.382 3.932 3.562 3.282 3.062 2.892 2.742 2.602 2.462 2.372
1697.500 2.322 2.292 2.242 2.202 2.192 2.142 2.062 2.002 1.932 1.832
1736.080 1.742 1.672 1.612 1.562 1.522 1.482 1.422 1.402 1.3615 1.3216
1774.659 1.293 1.269 1.256 1.2763 1.3095 1.3366 1.3693 1.3788 1.3478 1.3125
1813.239 1.2705 1.2418 1.214 1.1514 1.1038 1.0999 1.1033 1.1193 1.1688 1.2314
1851.819 1.331 1.462 1.572 1.672 1.772 1.882 2.022 2.202 2.372 2.562
1890.398 2.792 2.972 3.122 3.222 3.212 3.082 2.822 2.562 2.302 2.082
1928.978 1.942 1.842 1.762 1.712 1.662 1.622 1.562 1.512 1.452 1.402
1967.557 1.3709 1.3431 1.3181 1.2852 1.2454 1.2228 1.1985 1.1873 1.1916 1.2012
2006.137 1.204 1.1978 1.1982 1.2025 1.2045 1.2046 1.1848 1.1373 1.1232 1.1074
2044.716 1.058 0.9997 0.9609 0.95 0.9513 0.9647 0.9686 0.9623 0.9608 0.9642
2083.296 0.9828 0.9865 0.9945 1.0357 1.0759 1.0984 1.1313 1.1824 1.2271 1.2729
2121.875 1.3137 1.3366 1.3251 1.3134 1.3097 1.276 1.2461 1.2304 1.209 1.2031
2160.455 1.191 1.1543 1.1108 1.0411 0.9936 0.9696 0.9545 0.9323 0.8859 0.8868
2199.035 0.8895 0.882 0.8951 0.8854 0.8774 0.8859 0.8902 0.8775 0.853 0.8291
2237.614 0.8082 0.8058 0.801 0.8052 0.8111 0.811 0.8121 0.8269 0.8589 0.8684
2276.194 0.8569 0.8599 0.9086 0.9732 1.0039 1.0185 1.05 1.0767 1.0971 1.1038
2314.773 1.0917 1.0709 1.0674 1.1036 1.0753 1.03 1.0438 1.0343 1.0124 1.0003
2353.353 0.9905 0.9985 0.9926 0.9713 0.9738 0.9814 0.9875 1.003 1.0389 1.1024
2391.932 1.1814 1.26 1.3547 1.462 1.552 1.632 1.692 1.752 1.842 1.892
2430.512 1.932 1.972 1.972 1.952 1.862 1.742 1.642 1.542 1.442 1.3621
2469.092 1.2764 1.2001 1.1466 1.1008 1.0447 0.9974 0.9499 0.9206 0.8782 0.8707
2507.671 0.9096 0.8961 0.8962 0.9173 0.9068 0.8815 0.902 0.9427 0.9851 1.0173
2546.251 1.0241 1.042 1.071 1.0929 1.1263 1.1583 1.1739 1.1565 1.1405 1.139
2584.830 1.1024 1.0954 1.0899 1.0584 1.0273 0.9773 0.9399 0.9391 0.9373 0.913
2623.410 0.9154 0.9179 0.9013 0.9096 0.8865 0.826 0.8285 0.828 0.8027 0.8325
2661.989 0.8716 0.8908 0.9045 0.8825 0.8559 0.8718 0.9241 0.9655 0.9919 1.0479
2700.569 1.1541 1.2518 1.2809 1.3504 1.462 1.572 1.702 1.822 1.922 1.982
2739.148 1.982 2.042 2.142 2.172 2.182 2.222 2.252 2.252 2.282 2.312
2777.728 2.282 2.242 2.272 2.242 2.242 2.282 2.352 2.492 2.642 2.812
2816.308 2.982 3.142 3.342 3.602 3.852 4.142 4.532 4.972 5.452 6.022
2854.887 6.712 7.592 8.652 10.012 11.752 13.832 16.162 18.362 19.972 20.822
2893.467 21.172 21.402 21.852 22.522 23.182 23.662 23.772 23.392 23.012 23.222
2932.046 24.422 26.422 28.182 28.762 27.742 25.382 22.902 21.422 21.252 22.432
2970.626 24.982 29.132 34.452 39.242 41.522 40.852 36.432 29.182 22.522 17.372
3009.205 13.622 11.242 9.802 8.992 8.592 8.452 8.442 8.342 8.062 7.662
3047.785 7.132 6.562 6.132 5.962 6.092 6.532 7.152 7.872 8.542 8.912
3086.364 8.922 8.482 7.592 6.472 5.342 4.342 3.552 2.992 2.632 2.292
3124.944 1.952 1.732 1.532 1.3561 1.292 1.2468 1.163 1.1045 1.0762 1.0125
3163.524 1.0141 1.0491 1.004 0.9387 0.9372 0.9298 0.9014 0.9084 0.9237 0.9433
3202.103 0.9394 0.9091 0.8911 0.8584 0.8133 0.7526 0.6581 0.6485 0.652 0.5819
3240.683 0.5395 0.5353 0.5365 0.47535 0.42351 0.44393 0.46277 0.46687 0.42932 0.40496
3279.262 0.43013 0.41217 0.3747 0.3461 0.3287 0.3556 0.3467 0.3657 0.3662 0.3107
3317.842 0.3271 0.3371 0.3427 0.3662 0.3768 0.3595 0.3288 0.3257 0.3227 0.3402
3356.421 0.3518 0.3446 0.3554 0.3609 0.3546 0.3274 0.289 0.284 0.3176 0.3299
3395.001 0.314 0.31 0.3615 0.3759 0.3638 0.38975 0.3749 0.3514 0.3534 0.38787
3433.580 0.38358 0.3638 0.3171 0.221 0.224 0.24 0.238 0.223 0.263 0.3233
3472.160 0.285 0.3149 0.3566 0.3518 0.3434 0.3075 0.2938 0.3141 0.3322 0.3168
3510.740 0.3121 0.3465 0.3192 0.248 0.252 0.2955 0.272 0.226 0.259 0.2973
3549.319 0.289 0.289 0.278 0.257 0.288 0.3532 0.3499 0.33 0.3538 0.3498
3587.899 0.3234 0.3252 0.3003 0.3097 0.3561 0.3458 0.3437 0.3597 0.3326 0.314
3626.478 0.3242 0.3144 0.314 0.3558 0.3799 0.3711 0.3507 0.3386 0.3337 0.3224
3665.058 0.343 0.3352 0.3143 0.3407 0.3604 0.3336 0.3564 0.3773 0.3729 0.40336
3703.637 0.41353 0.42966 0.42183 0.396049 0.4074 0.40757 0.393798 0.396638 0.42337 0.45767
3742.217 0.47073 0.47347 0.466 0.4793 0.45696 0.43594 0.46607 0.48068 0.47726 0.4828
3780.797 0.5194 0.5028 0.44929 0.49089 0.46902 0.41962 0.46161 0.4927 0.48682 0.4122
3819.376 0.399401 0.46938 0.5099 0.47925 0.4367 0.46484 0.46657 0.43907 0.46186 0.48402
3857.956 0.48507 0.48945 0.47536 0.4566 0.41977 0.43805 0.45632 0.4819 0.4812 0.40921
3896.535 0.401447 0.42227 0.42613 0.43816 0.42562 0.396568 0.41499 0.46088 0.47211 0.49017
3935.115 0.5096 0.45613 0.42441 0.46229 0.48657 0.4829 0.5296 0.5485 0.5177 0.5184
3973.694 0.5479 0.5678 0.5827 0.6159 0.6465 0.6543 0.6299 0.5953
##END=
