##TITLE=Benzo[b]fluoranthene
##JCAMP-DX=4.24
##DATA TYPE=INFRARED SPECTRUM
##ORIGIN=NIST Mass Spectrometry Data Center
##OWNER=NIST Standard Reference Data Program
Collection (C) 2018 copyright by the U.S. Secretary of Commerce
on behalf of the United States of America. All rights reserved.
##CAS REGISTRY NO=205-99-2
##MOLFORM=C 20 H 12
##$NIST SOURCE=MSDC-IR
##SPECTROMETER/DATA SYSTEM=HP-GC/MS/IRD
##STATE=gas
##XUNITS=1/CM
##YUNITS=ABSORBANCE
##XFACTOR=1.0
##YFACTOR=0.000000500
##DELTAX=4.0
##FIRSTX=550.0
##LASTX=3846.0
##FIRSTY=0.000162
##MAXX=3846
##MINX=550
##MAXY=0.005
##MINY=0
##NPOINTS=825
##XYDATA=(X++(Y..Y))
550.0 323 278 216 208 180 97 83 25 0 119
590.0 155 150 185 173 114 334 815 1124 1039 617
630.0 375 278 209 240 313 278 207 282 311 208
670.0 162 220 221 254 273 324 376 345 342 391
710.0 377 467 760 1472 2744 5024 7489 9753 10000 6934
750.0 4053 2445 1895 2165 2921 4323 5294 4350 2664 1427
790.0 756 533 499 512 442 374 362 319 302 284
830.0 295 293 324 334 406 593 625 528 471 470
870.0 408 429 682 1062 1509 1550 1135 689 391 282
910.0 243 228 255 283 306 328 391 464 484 441
950.0 356 327 290 256 252 263 278 273 226 228
990.0 288 391 532 616 622 547 440 362 336 399
1030.0 557 686 629 423 254 201 179 109 73 86
1070.0 54 47 75 95 52 47 108 156 227 241
1110.0 172 134 129 87 85 210 354 484 624 695
1150.0 756 669 466 316 205 156 186 212 194 203
1190.0 263 296 253 219 220 257 310 353 388 419
1230.0 449 466 401 323 305 256 201 199 231 252
1270.0 290 309 268 213 210 252 262 251 242 239
1310.0 245 232 219 218 249 252 246 276 276 281
1350.0 329 447 590 801 1071 1248 1195 964 724 552
1390.0 448 370 338 335 374 567 817 983 1077 1131
1430.0 1352 1944 2579 2701 2425 2238 2214 2099 1866 1546
1470.0 1157 860 741 746 701 577 455 381 354 329
1510.0 404 553 717 917 1106 1117 905 593 373 320
1550.0 312 281 246 291 332 308 348 427 534 767
1590.0 1108 1472 1706 1598 1238 859 562 392 334 319
1630.0 318 305 293 297 270 206 180 217 245 241
1670.0 256 275 308 334 339 340 304 294 288 306
1710.0 322 298 289 307 308 291 294 291 268 238
1750.0 220 226 234 256 302 347 409 484 525 521
1790.0 499 475 397 304 251 229 257 301 351 364
1830.0 323 279 260 237 253 304 336 358 370 328
1870.0 275 240 228 276 314 360 402 425 438 409
1910.0 437 478 488 476 434 490 598 625 537 375
1950.0 241 176 171 169 155 137 123 113 97 79
1990.0 75 92 103 109 123 131 116 107 98 90
2030.0 105 105 98 92 78 100 127 109 105 119
2070.0 100 76 97 116 113 123 125 95 57 72
2110.0 105 114 128 128 115 103 105 99 100 108
2150.0 97 103 122 101 72 82 93 99 114 118
2190.0 109 95 100 107 99 99 126 126 118 124
2230.0 112 115 134 119 114 125 108 113 112 94
2270.0 108 129 114 96 106 126 124 120 135 149
2310.0 149 142 124 99 87 62 50 58 72 78
2350.0 79 93 88 44 44 84 113 125 96 81
2390.0 77 86 109 110 94 94 90 84 81 89
2430.0 99 121 124 86 88 129 134 124 110 105
2470.0 107 110 122 112 87 83 68 67 78 76
2510.0 87 90 67 58 74 82 81 82 97 109
2550.0 100 102 107 121 113 63 71 102 133 152
2590.0 125 99 98 114 129 121 126 118 97 93
2630.0 102 85 61 80 100 102 104 92 95 85
2670.0 49 70 87 59 36 40 50 54 58 52
2710.0 23 9 48 79 72 77 95 88 78 82
2750.0 67 73 104 121 103 81 59 60 59 51
2790.0 59 75 82 53 47 79 88 81 98 70
2830.0 21 34 69 99 136 133 98 85 121 142
2870.0 132 127 130 157 162 172 167 166 174 199
2910.0 207 181 194 163 157 195 205 184 186 198
2950.0 173 159 194 249 232 232 286 319 334 351
2990.0 325 361 460 586 736 906 1126 1316 1519 1757
3030.0 1973 2156 2281 2403 2586 2858 3315 4084 5035 5860
3070.0 6228 6090 5518 4599 3487 2329 1461 949 622 423
3110.0 344 281 256 282 254 263 268 240 211 223
3150.0 213 177 176 168 129 104 81 38 77 145
3190.0 154 140 126 148 150 138 149 99 62 103
3230.0 109 95 101 75 25 75 98 89 135 136
3270.0 100 51 86 136 121 112 80 51 51 84
3310.0 100 89 110 131 97 82 69 45 73 73
3350.0 73 92 66 70 102 72 18 32 55 23
3390.0 27 69 109 97 54 56 69 69 84 132
3430.0 129 56 30 46 33 12 51 59 27 44
3470.0 72 80 99 104 93 61 76 85 96 99
3510.0 82 101 106 114 134 152 109 69 79 82
3550.0 28 63 86 42 43 66 106 133 85 81
3590.0 96 60 64 55 44 109 119 47 62 95
3630.0 51 77 130 86 66 71 61 131 114 37
3670.0 11 18 57 80 99 100 110 136 105 67
3710.0 73 48 68 116 100 76 63 57 35 22
3750.0 71 107 80 51 59 75 67 37 57 129
3790.0 122 106 101 84 83 48 38 74 87 104
3830.0 115 116 140 154 133
##END=
