##TITLE=2',4'-Acetoxylidide
##JCAMP-DX=4.24
##DATA TYPE=INFRARED SPECTRUM
##ORIGIN=NIST Mass Spectrometry Data Center
##OWNER=NIST Standard Reference Data Program
Collection (C) 2018 copyright by the U.S. Secretary of Commerce
on behalf of the United States of America. All rights reserved.
##CAS REGISTRY NO=2050-43-3
##MOLFORM=C 10 H 13 N O
##$NIST SOURCE=MSDC-IR
##SPECTROMETER/DATA SYSTEM=HP-GC/MS/IRD
##STATE=gas
##XUNITS=1/CM
##YUNITS=ABSORBANCE
##XFACTOR=1.0
##YFACTOR=0.000003200
##DELTAX=4.0
##FIRSTX=550.0
##LASTX=3846.0
##FIRSTY=0.000848
##MAXX=3846
##MINX=550
##MAXY=0.032
##MINY=0
##NPOINTS=825
##XYDATA=(X++(Y..Y))
550.0 265 425 272 214 140 112 120 88 51 70
590.0 100 116 167 226 257 300 364 453 564 600
630.0 555 468 351 233 157 111 91 93 83 76
670.0 68 43 41 42 29 34 39 45 72 79
710.0 64 66 47 13 6 0 10 20 23 25
750.0 15 14 37 63 89 129 165 194 224 255
790.0 299 351 418 513 625 759 903 988 957 823
830.0 638 454 312 214 160 153 169 199 250 294
870.0 309 295 270 246 212 178 165 160 147 134
910.0 137 140 149 163 176 200 227 236 244 256
950.0 269 274 276 283 307 341 402 487 564 628
990.0 662 662 623 566 536 498 441 392 355 339
1030.0 343 339 356 364 350 338 343 334 321 308
1070.0 287 253 222 196 172 167 165 151 149 166
1110.0 205 268 347 403 391 331 270 208 183 196
1150.0 215 220 223 235 222 202 206 233 266 309
1190.0 391 526 746 1043 1415 1847 2316 2756 3024 3048
1230.0 2812 2371 1918 1611 1487 1507 1616 1757 1881 1970
1270.0 2007 2024 2084 2239 2541 2933 3268 3485 3536 3362
1310.0 3023 2584 2070 1570 1173 902 739 661 657 724
1350.0 882 1159 1561 2000 2366 2562 2555 2415 2217 2006
1390.0 1818 1690 1656 1690 1748 1798 1829 1856 1899 1982
1430.0 2121 2305 2531 2778 3029 3259 3463 3631 3741 3782
1470.0 3754 3652 3522 3419 3421 3615 4046 4717 5470 6007
1510.0 6095 5631 4761 3762 2903 2269 1814 1492 1262 1102
1550.0 989 904 829 765 713 676 671 694 734 790
1590.0 833 845 817 749 664 589 535 489 451 411
1630.0 382 366 367 384 415 457 495 515 528 543
1670.0 570 616 692 795 952 1200 1603 2258 3292 4817
1710.0 6815 8731 9909 10000 8916 7197 5654 4399 3295 2431
1750.0 1824 1398 1101 889 734 618 531 471 420 365
1790.0 312 270 246 216 191 174 151 133 122 108
1830.0 96 89 83 79 77 78 77 76 77 80
1870.0 88 93 103 115 119 116 115 115 108 94
1910.0 81 68 58 52 42 33 27 24 25 23
1950.0 13 11 15 9 6 11 13 14 14 18
1990.0 21 20 17 16 17 15 10 14 12 6
2030.0 7 6 5 7 6 7 8 4 5 7
2070.0 8 11 13 9 8 12 11 10 10 11
2110.0 9 11 5 0 4 11 10 8 6 4
2150.0 8 8 8 10 13 14 14 19 16 16
2190.0 19 19 14 17 22 15 13 15 13 12
2230.0 11 7 0 4 11 11 9 5 5 5
2270.0 6 9 12 11 6 8 16 19 22 24
2310.0 21 25 29 27 31 33 26 27 25 21
2350.0 17 15 18 19 21 23 19 19 20 18
2390.0 21 27 28 28 36 41 37 40 39 33
2430.0 28 30 30 24 21 18 21 26 25 20
2470.0 14 17 25 24 23 21 19 20 18 14
2510.0 14 16 16 15 19 22 21 17 18 14
2550.0 13 22 20 13 12 12 11 19 21 15
2590.0 15 19 16 11 12 14 15 16 24 24
2630.0 15 13 15 22 24 28 31 29 35 36
2670.0 37 39 40 44 42 39 38 46 51 50
2710.0 47 46 54 55 58 68 83 108 121 117
2750.0 103 79 66 51 50 61 60 60 63 60
2790.0 68 79 78 83 95 99 106 116 130 145
2830.0 163 193 218 253 307 368 444 540 643 757
2870.0 858 926 954 928 889 860 839 843 873 929
2910.0 1018 1146 1326 1543 1768 1932 1971 1880 1685 1440
2950.0 1216 1042 926 861 821 808 834 864 887 903
2990.0 917 933 957 1010 1090 1174 1257 1342 1369 1345
3030.0 1283 1190 1113 1047 982 911 819 729 656 579
3070.0 509 454 411 363 322 298 272 251 241 231
3110.0 216 204 183 156 133 116 97 80 70 56
3150.0 56 53 41 30 27 36 33 26 25 19
3190.0 22 28 23 18 17 23 32 28 16 20
3230.0 18 13 20 24 20 29 39 29 21 22
3270.0 15 10 9 9 15 24 22 15 12 15
3310.0 21 13 13 21 10 6 20 27 28 30
3350.0 30 36 39 39 53 58 56 61 68 82
3390.0 109 151 189 228 275 317 341 355 353 335
3430.0 309 296 308 324 345 371 384 390 386 372
3470.0 372 370 358 319 270 222 178 139 115 92
3510.0 76 62 47 47 40 25 19 17 9 18
3550.0 28 16 5 10 25 30 24 23 29 33
3590.0 29 22 27 25 24 30 15 3 8 6
3630.0 14 32 28 17 19 14 8 16 21 7
3670.0 0 7 15 17 20 26 29 19 6 13
3710.0 30 32 21 23 26 20 28 26 20 25
3750.0 32 34 17 17 27 23 25 27 27 28
3790.0 24 24 24 26 43 44 36 36 33 36
3830.0 33 31 42 43 38
##END=
