##TITLE=Di-(4-bromophenyl) ether
##JCAMP-DX=4.24
##DATA TYPE=INFRARED SPECTRUM
##ORIGIN=NIST Mass Spectrometry Data Center
##OWNER=NIST Standard Reference Data Program
Collection (C) 2018 copyright by the U.S. Secretary of Commerce
on behalf of the United States of America. All rights reserved.
##CAS REGISTRY NO=2050-47-7
##MOLFORM=C 12 H 8 Br 2 O
##$NIST SOURCE=MSDC-IR
##SPECTROMETER/DATA SYSTEM=HP-GC/MS/IRD
##STATE=gas
##XUNITS=1/CM
##YUNITS=ABSORBANCE
##XFACTOR=1.0
##YFACTOR=0.000022300
##DELTAX=4.0
##FIRSTX=550.0
##LASTX=3846.0
##FIRSTY=0.001271
##MAXX=3846
##MINX=550
##MAXY=0.223
##MINY=0
##NPOINTS=825
##XYDATA=(X++(Y..Y))
550.0 57 35 3 4 6 9 8 11 15 21
590.0 26 30 31 37 52 77 122 201 293 333
630.0 332 384 476 529 476 324 176 93 49 26
670.0 25 24 20 18 19 27 31 34 35 38
710.0 35 29 28 26 24 28 27 27 29 30
750.0 29 33 43 60 86 121 155 179 186 177
790.0 169 179 216 288 413 611 877 1126 1200 1054
830.0 823 691 711 791 799 697 541 430 471 604
870.0 552 315 154 98 72 56 44 34 28 20
910.0 16 14 11 12 13 10 10 12 12 11
950.0 11 11 8 6 13 19 24 32 43 62
990.0 98 174 330 715 1654 2259 1453 505 217 133
1030.0 100 94 107 131 180 275 445 732 1160 1709
1070.0 2173 2085 1431 838 568 460 404 359 313 272
1110.0 244 221 199 173 150 135 130 131 140 158
1150.0 201 280 463 847 1018 689 399 338 347 398
1190.0 472 559 652 761 915 1153 1496 1986 2780 4028
1230.0 5616 7208 8336 8285 6792 4879 3564 2865 2466 2184
1270.0 1929 1648 1350 1119 976 860 724 598 500 414
1310.0 334 268 216 178 152 135 123 115 109 107
1350.0 107 111 114 115 113 108 103 102 107 122
1390.0 141 160 172 178 183 195 231 313 446 560
1430.0 547 426 323 284 293 341 436 610 922 1571
1470.0 2909 5401 8540 10000 8211 5244 3168 1922 1189 813
1510.0 605 466 356 269 207 168 144 130 129 140
1550.0 163 202 265 373 544 793 1069 1214 1062 737
1590.0 466 305 215 166 143 133 130 128 127 128
1630.0 127 122 121 124 125 122 114 106 95 83
1670.0 69 58 52 48 43 40 37 34 37 41
1710.0 47 53 57 56 57 60 64 69 76 86
1750.0 96 96 79 55 39 32 29 26 24 23
1790.0 22 18 18 18 17 18 18 19 22 25
1830.0 29 33 37 43 49 57 66 77 91 110
1870.0 133 154 162 155 135 108 84 63 47 35
1910.0 28 24 21 19 19 20 22 26 28 25
1950.0 19 15 14 14 15 17 19 22 24 27
1990.0 31 37 46 57 72 84 94 98 95 89
2030.0 81 66 52 45 43 44 47 53 57 58
2070.0 51 44 40 41 41 38 31 25 23 19
2110.0 15 14 13 11 10 8 8 10 8 7
2150.0 5 6 5 4 5 6 5 3 3 3
2190.0 4 6 5 6 8 5 4 3 3 4
2230.0 9 11 12 13 17 24 32 36 35 29
2270.0 24 21 18 15 13 12 11 11 12 10
2310.0 9 9 12 18 21 22 20 20 22 27
2350.0 33 39 39 35 30 28 29 31 35 42
2390.0 51 60 67 70 68 65 65 70 76 81
2430.0 84 83 75 66 57 51 45 42 38 34
2470.0 32 28 26 25 25 24 22 22 17 14
2510.0 13 12 13 14 14 13 13 15 16 18
2550.0 18 19 18 15 13 11 10 9 8 8
2590.0 7 5 5 4 3 3 2 4 5 3
2630.0 3 5 9 11 13 15 13 9 6 8
2670.0 8 9 11 10 9 8 9 8 5 5
2710.0 6 4 5 6 6 6 5 4 5 4
2750.0 3 3 2 4 5 7 7 8 10 10
2790.0 11 12 16 19 20 25 30 32 33 36
2830.0 37 36 33 27 21 17 16 16 15 13
2870.0 12 11 10 6 7 5 5 6 4 3
2910.0 3 2 2 3 0 0 0 1 1 2
2950.0 2 2 5 7 7 8 9 9 9 8
2990.0 7 10 9 8 10 14 17 23 31 46
3030.0 70 96 116 111 90 72 67 70 77 87
3070.0 103 117 122 124 136 154 158 139 105 72
3110.0 45 25 15 12 10 7 8 7 3 3
3150.0 6 7 7 8 5 2 6 8 8 6
3190.0 5 4 3 2 2 6 4 5 6 4
3230.0 2 1 2 3 5 7 8 7 7 7
3270.0 4 3 3 5 7 5 4 3 3 4
3310.0 5 4 7 7 7 7 5 7 10 9
3350.0 9 8 5 5 6 6 4 2 4 5
3390.0 8 9 8 8 6 6 9 9 7 5
3430.0 6 9 10 9 8 9 11 14 12 10
3470.0 11 10 9 10 10 11 11 9 10 12
3510.0 14 12 12 10 7 10 10 9 11 9
3550.0 9 10 12 12 8 11 13 14 13 11
3590.0 11 11 8 12 14 11 13 14 13 11
3630.0 11 13 11 15 15 16 17 18 16 15
3670.0 15 12 13 16 16 15 16 17 18 21
3710.0 21 22 21 19 18 15 15 17 16 14
3750.0 16 16 15 16 15 13 14 14 13 12
3790.0 11 13 14 16 17 11 13 14 11 12
3830.0 14 15 15 15 17
##END=
