##TITLE=m-Chlorobiphenyl
##JCAMP-DX=4.24
##DATA TYPE=INFRARED SPECTRUM
##ORIGIN=NIST Mass Spectrometry Data Center
##OWNER=NIST Standard Reference Data Program
Collection (C) 2018 copyright by the U.S. Secretary of Commerce
on behalf of the United States of America. All rights reserved.
##CAS REGISTRY NO=2051-61-8
##MOLFORM=C 12 H 9 Cl
##$NIST SOURCE=MSDC-IR
##SPECTROMETER/DATA SYSTEM=HP-GC/MS/IRD
##STATE=gas
##XUNITS=1/CM
##YUNITS=ABSORBANCE
##XFACTOR=1.0
##YFACTOR=0.000003800
##DELTAX=4.0
##FIRSTX=550.0
##LASTX=3846.0
##FIRSTY=0.000874
##MAXX=3846
##MINX=550
##MAXY=0.038
##MINY=0
##NPOINTS=825
##XYDATA=(X++(Y..Y))
550.0 230 184 135 185 233 314 395 465 468 367
590.0 258 171 131 166 470 985 1299 1198 710 312
630.0 177 120 122 142 187 278 409 581 801 1123
670.0 1649 2619 4258 5905 7301 8328 8739 8485 7296 5584
710.0 3884 2648 1946 1585 1485 1629 2083 3027 4671 6773
750.0 9023 10000 8644 6645 4914 3706 3326 3603 4306 5041
790.0 5458 5503 5079 4187 3002 1907 1119 673 465 377
830.0 356 327 276 215 156 132 142 198 345 563
870.0 853 1193 1521 1666 1451 1084 743 453 276 191
910.0 146 125 115 92 65 36 11 10 4 1
950.0 20 45 96 139 157 174 174 153 128 140
990.0 215 367 505 582 604 591 667 780 839 858
1030.0 879 1017 1404 1850 1998 1800 1361 1065 1095 1273
1070.0 1555 1925 2299 2625 2990 3317 3494 3459 3148 2577
1110.0 1903 1268 760 458 292 200 155 123 104 74
1150.0 54 43 36 50 70 88 138 215 260 257
1190.0 203 138 108 107 105 104 124 149 173 191
1230.0 206 246 315 431 590 707 711 624 564 649
1270.0 847 1059 1146 1026 752 473 313 252 230 214
1310.0 203 205 208 213 228 244 254 264 240 199
1350.0 184 175 169 182 203 246 303 366 479 664
1390.0 939 1329 1739 1987 2062 1945 1659 1364 1084 854
1430.0 735 743 869 1164 1759 2665 3697 4452 4780 5231
1470.0 5958 6310 5625 3960 2394 1619 1334 1234 1106 948
1510.0 731 565 549 597 662 776 931 1155 1463 1830
1550.0 2376 3101 3984 4753 5096 5051 4811 4845 5607 6998
1590.0 8075 7796 6095 3852 2157 1316 964 749 554 393
1630.0 290 245 204 182 188 227 260 262 306 359
1670.0 402 447 463 454 370 232 176 167 134 104
1710.0 101 116 136 129 137 180 228 252 287 340
1750.0 398 419 427 418 388 374 360 372 431 507
1790.0 601 643 594 489 363 276 225 191 169 155
1830.0 144 133 140 185 245 307 397 479 510 489
1870.0 433 381 360 361 363 343 298 239 188 158
1910.0 163 193 255 322 394 462 510 521 495 449
1950.0 412 398 368 298 204 126 87 66 53 44
1990.0 45 45 35 35 33 25 22 21 23 29
2030.0 23 22 26 26 33 33 22 19 28 31
2070.0 28 23 17 12 7 5 3 3 3 2
2110.0 6 6 4 0 4 7 5 12 17 12
2150.0 8 20 27 21 27 28 23 29 31 27
2190.0 25 21 20 20 15 17 16 12 18 20
2230.0 18 22 30 34 35 38 40 32 31 36
2270.0 30 34 34 28 25 26 26 18 20 33
2310.0 55 75 79 66 49 50 63 69 75 64
2350.0 42 34 34 32 28 29 35 40 45 45
2390.0 36 35 35 36 41 32 28 31 29 30
2430.0 25 23 24 18 18 20 19 20 21 24
2470.0 21 17 20 24 22 19 28 35 27 25
2510.0 21 16 16 17 17 17 16 5 7 14
2550.0 20 21 14 21 30 29 30 41 39 35
2590.0 41 47 48 50 53 51 50 52 50 54
2630.0 51 46 47 44 38 29 28 25 23 23
2670.0 20 17 8 10 16 11 11 13 11 8
2710.0 11 19 16 8 5 5 6 7 1 0
2750.0 6 6 8 7 14 19 23 26 23 17
2790.0 24 27 20 20 25 35 40 43 45 43
2830.0 35 33 40 53 69 83 90 94 108 116
2870.0 119 114 103 101 92 95 107 104 88 78
2910.0 85 95 102 108 115 118 121 121 122 125
2950.0 131 140 140 139 145 153 157 172 185 209
2990.0 244 278 327 393 486 638 859 1146 1546 2061
3030.0 2623 3085 3263 3101 2751 2517 2660 3235 4218 5362
3070.0 6106 6095 5371 4402 3652 3129 2686 2241 1808 1420
3110.0 1096 838 653 505 390 307 248 215 201 190
3150.0 177 162 147 126 104 97 87 78 76 65
3190.0 71 68 38 40 44 33 40 33 24 17
3230.0 20 26 29 29 22 19 21 30 28 15
3270.0 17 28 28 11 0 9 13 15 21 19
3310.0 14 14 17 15 19 26 24 22 20 21
3350.0 23 18 19 17 14 14 10 22 25 24
3390.0 20 18 14 14 9 9 18 16 19 25
3430.0 18 17 12 31 43 31 25 20 21 16
3470.0 11 18 23 21 24 21 26 37 37 35
3510.0 23 13 23 36 33 18 6 7 24 31
3550.0 23 24 21 22 34 16 0 12 19 27
3590.0 22 20 22 10 18 37 40 46 27 35
3630.0 49 36 37 40 63 82 74 53 33 46
3670.0 76 90 74 61 91 107 85 83 80 72
3710.0 89 83 69 58 48 56 72 67 79 99
3750.0 91 73 57 68 69 58 46 62 66 41
3790.0 35 45 58 63 53 48 57 60 58 44
3830.0 35 53 65 62 49
##END=
