##TITLE=n-Caproic anhydride
##JCAMP-DX=4.24
##DATA TYPE=INFRARED SPECTRUM
##ORIGIN=NIST Mass Spectrometry Data Center
##OWNER=NIST Standard Reference Data Program
Collection (C) 2018 copyright by the U.S. Secretary of Commerce
on behalf of the United States of America. All rights reserved.
##CAS REGISTRY NO=2051-49-2
##MOLFORM=C 12 H 22 O 3
##$NIST SOURCE=MSDC-IR
##SPECTROMETER/DATA SYSTEM=HP-GC/MS/IRD
##STATE=gas
##XUNITS=1/CM
##YUNITS=ABSORBANCE
##XFACTOR=1.0
##YFACTOR=0.000021700
##DELTAX=4.0
##FIRSTX=550.0
##LASTX=3846.0
##FIRSTY=0.003472
##MAXX=3846
##MINX=550
##MAXY=0.217
##MINY=0
##NPOINTS=825
##XYDATA=(X++(Y..Y))
550.0 160 218 142 163 154 147 140 127 119 110
590.0 97 85 72 59 49 43 41 34 27 24
630.0 20 18 15 10 10 9 8 9 9 12
670.0 17 20 21 24 29 36 45 51 60 73
710.0 85 102 125 148 174 202 225 240 249 256
750.0 262 271 281 290 305 324 337 345 353 357
790.0 363 372 383 392 406 423 439 457 474 494
830.0 520 549 577 607 643 680 714 743 764 780
870.0 791 803 822 844 866 886 909 943 989 1046
910.0 1104 1166 1232 1302 1383 1482 1601 1729 1839 1883
950.0 1829 1691 1518 1365 1275 1253 1287 1372 1498 1657
990.0 1858 2111 2430 2863 3432 4129 4921 5759 6602 7444
1030.0 8323 9205 9876 10000 9382 8205 6873 5707 4829 4198
1070.0 3740 3384 3092 2845 2652 2519 2433 2380 2348 2340
1110.0 2369 2430 2492 2516 2467 2366 2238 2092 1942 1801
1150.0 1665 1534 1406 1282 1173 1079 1005 952 920 916
1190.0 945 999 1065 1121 1148 1151 1139 1114 1075 1018
1230.0 950 885 824 765 707 651 605 578 568 574
1270.0 587 597 607 626 652 672 680 681 682 683
1310.0 683 675 659 648 655 692 752 822 882 917
1350.0 934 938 925 886 823 754 689 641 603 557
1390.0 496 435 393 377 386 416 461 511 555 588
1430.0 608 616 617 628 656 707 767 816 834 802
1470.0 722 604 477 369 288 226 180 149 126 107
1510.0 91 80 70 63 57 51 47 42 38 36
1550.0 34 32 30 29 30 29 29 29 30 31
1590.0 30 31 32 34 35 36 37 37 38 39
1630.0 40 41 44 45 47 49 53 57 61 66
1670.0 71 76 83 92 103 116 130 148 170 199
1710.0 235 280 335 405 491 601 749 954 1237 1626
1750.0 2146 2773 3379 3773 3802 3487 3003 2542 2195 1979
1790.0 1883 1895 2023 2282 2690 3231 3837 4371 4668 4614
1830.0 4205 3547 2812 2141 1599 1202 920 719 574 464
1870.0 380 317 267 227 194 168 145 126 111 96
1910.0 85 74 65 57 52 46 40 36 34 31
1950.0 27 25 24 22 19 18 18 16 15 15
1990.0 14 14 15 14 13 16 17 18 19 20
2030.0 23 25 26 27 29 29 31 33 35 38
2070.0 42 48 56 65 75 90 114 141 180 231
2110.0 289 347 390 410 404 374 320 246 172 120
2150.0 85 63 47 37 31 25 20 17 15 12
2190.0 10 8 7 8 6 5 4 3 4 3
2230.0 4 3 2 0 2 3 3 2 1 2
2270.0 3 3 1 2 2 1 2 2 1 3
2310.0 4 3 4 5 4 5 6 6 7 5
2350.0 4 5 6 5 5 6 7 6 7 6
2390.0 7 8 7 8 9 9 9 8 7 8
2430.0 9 9 7 7 6 6 7 8 8 8
2470.0 6 5 7 6 7 8 7 7 9 8
2510.0 7 9 11 12 11 12 12 13 14 14
2550.0 15 16 18 20 21 21 22 23 23 23
2590.0 23 22 22 25 26 25 26 27 29 32
2630.0 33 34 36 39 41 43 46 48 50 52
2670.0 57 58 60 63 63 62 60 59 58 58
2710.0 58 60 63 65 68 72 78 85 92 97
2750.0 98 99 98 99 101 105 112 118 125 135
2790.0 147 161 175 190 208 227 249 276 309 346
2830.0 388 437 502 585 691 837 1031 1275 1558 1840
2870.0 2074 2221 2290 2297 2226 2087 1939 1861 1888 2013
2910.0 2224 2510 2862 3274 3735 4214 4658 4992 5143 5088
2950.0 4875 4636 4531 4608 4759 4720 4295 3545 2740 2093
2990.0 1616 1266 1006 816 675 566 484 422 374 335
3030.0 302 271 247 226 205 186 171 158 150 141
3070.0 133 124 118 114 111 106 100 94 91 88
3110.0 85 80 75 73 69 66 63 60 62 61
3150.0 56 56 55 53 53 50 48 47 46 46
3190.0 44 41 39 37 35 34 31 29 25 23
3230.0 23 21 20 18 17 18 19 17 15 13
3270.0 12 13 12 12 14 12 11 12 13 10
3310.0 8 8 11 12 10 10 11 11 13 12
3350.0 11 8 8 9 11 14 15 14 13 13
3390.0 14 12 12 13 12 14 12 11 13 14
3430.0 13 14 15 17 16 14 14 17 18 18
3470.0 21 22 24 28 32 34 37 41 46 51
3510.0 53 54 53 51 50 49 48 46 43 43
3550.0 46 50 57 68 84 103 112 114 109 91
3590.0 72 62 59 56 53 54 56 58 57 55
3630.0 54 55 54 54 52 48 47 45 43 42
3670.0 37 33 31 29 27 27 26 25 25 24
3710.0 23 23 22 21 22 21 22 19 17 18
3750.0 21 19 20 23 22 21 19 20 19 20
3790.0 21 20 21 22 20 19 19 20 20 22
3830.0 23 20 20 24 25
##END=
