##TITLE=2-Bromobiphenyl
##JCAMP-DX=4.24
##DATA TYPE=INFRARED SPECTRUM
##ORIGIN=NIST Mass Spectrometry Data Center
##OWNER=NIST Standard Reference Data Program
Collection (C) 2018 copyright by the U.S. Secretary of Commerce
on behalf of the United States of America. All rights reserved.
##CAS REGISTRY NO=2052-07-5
##MOLFORM=C 12 H 9 Br
##$NIST SOURCE=MSDC-IR
##SPECTROMETER/DATA SYSTEM=HP-GC/MS/IRD
##STATE=gas
##XUNITS=1/CM
##YUNITS=ABSORBANCE
##XFACTOR=1.0
##YFACTOR=0.000001500
##DELTAX=4.0
##FIRSTX=550.0
##LASTX=3846.0
##FIRSTY=0.001019
##MAXX=3846
##MINX=550
##MAXY=0.015
##MINY=0
##NPOINTS=825
##XYDATA=(X++(Y..Y))
550.0 679 389 169 212 274 141 80 121 132 28
590.0 17 67 139 133 403 701 926 842 401 171
630.0 92 52 78 150 364 728 1315 1989 2490 2348
670.0 1806 1345 900 989 1852 3460 5021 5758 5361 3838
710.0 2391 1621 1509 1846 2458 3361 4575 6046 7891 9484
750.0 10000 9025 7095 5171 3487 2109 1099 586 458 322
790.0 222 220 137 124 172 225 296 275 271 308
830.0 352 313 254 204 151 98 50 36 38 81
870.0 60 8 42 112 116 122 151 167 230 276
910.0 255 236 222 195 186 217 245 317 331 296
950.0 254 229 229 200 152 95 43 65 151 273
990.0 485 795 1376 2152 2663 2846 2723 2636 3045 3606
1030.0 3729 3226 2244 1247 679 530 644 976 1409 1724
1070.0 1793 1527 1061 668 444 377 345 319 313 361
1110.0 426 523 578 536 455 338 217 149 104 64
1150.0 90 84 57 90 114 120 183 279 314 305
1190.0 289 212 141 148 154 151 171 182 151 135
1230.0 162 251 328 352 415 445 429 387 343 292
1270.0 217 181 183 202 227 239 217 165 105 69
1310.0 106 125 122 136 146 154 161 186 166 118
1350.0 100 89 87 108 109 143 200 200 242 313
1390.0 376 478 632 824 1052 1252 1404 1554 1718 1999
1430.0 2315 2490 2400 2161 1985 2044 2707 4125 5372 5633
1470.0 4783 3067 1635 1024 856 803 785 749 641 565
1510.0 466 343 315 295 238 234 239 270 279 274
1550.0 372 547 728 738 707 700 688 819 982 1086
1590.0 1119 1074 985 907 782 612 468 363 261 203
1630.0 158 143 127 126 118 140 179 144 130 136
1670.0 181 237 251 269 253 197 206 211 159 138
1710.0 142 180 201 169 176 210 226 204 232 269
1750.0 244 163 117 131 163 180 183 186 225 314
1790.0 456 572 597 555 430 312 272 272 277 288
1830.0 262 231 211 189 144 118 141 186 255 314
1870.0 355 388 402 416 424 385 314 294 327 361
1910.0 405 441 410 341 302 331 405 505 598 573
1950.0 513 456 387 299 201 133 107 95 84 75
1990.0 64 49 59 83 78 77 88 79 73 94
2030.0 82 70 67 63 87 72 38 39 62 59
2070.0 45 56 65 80 97 103 101 69 38 62
2110.0 90 83 67 73 70 70 64 53 32 34
2150.0 60 87 81 54 59 60 48 53 75 66
2190.0 72 80 77 89 100 107 101 108 120 89
2230.0 73 79 93 106 99 85 109 103 70 74
2270.0 80 96 118 122 90 76 93 80 85 107
2310.0 111 129 147 144 117 112 109 73 75 84
2350.0 66 34 27 32 16 34 47 44 55 60
2390.0 76 87 73 82 82 82 97 79 79 91
2430.0 95 90 45 63 76 62 77 76 62 73
2470.0 68 42 60 79 61 61 75 89 89 95
2510.0 118 113 98 94 115 128 125 124 103 79
2550.0 68 74 63 51 57 68 93 91 83 87
2590.0 87 89 80 81 94 93 96 95 84 80
2630.0 94 107 80 79 92 66 59 88 103 74
2670.0 49 52 45 56 55 66 73 69 104 82
2710.0 25 28 65 73 56 49 51 69 82 59
2750.0 37 70 81 68 74 65 62 99 112 97
2790.0 116 125 107 101 82 81 115 109 84 103
2830.0 105 83 98 120 143 174 160 136 128 137
2870.0 138 149 156 134 148 167 155 150 155 149
2910.0 126 171 237 253 230 207 204 160 136 148
2950.0 161 186 218 243 242 217 183 205 244 285
2990.0 321 328 373 471 585 710 926 1205 1534 1892
3030.0 2165 2336 2372 2251 2248 2639 3410 4434 5494 6181
3070.0 6182 5569 4678 3885 3286 2760 2165 1671 1330 1090
3110.0 946 839 794 702 607 492 376 324 304 278
3150.0 256 250 223 187 188 167 126 97 119 102
3190.0 100 134 87 129 184 176 153 105 97 134
3230.0 158 140 99 100 115 103 96 116 112 84
3270.0 74 110 118 68 50 44 62 56 80 94
3310.0 67 91 112 98 75 77 95 103 81 116
3350.0 140 89 97 102 68 88 90 94 70 39
3390.0 50 55 49 71 73 73 78 60 75 81
3430.0 64 73 58 68 91 59 47 67 74 73
3470.0 57 67 113 105 85 87 109 129 121 85
3510.0 56 70 69 83 79 69 71 93 111 85
3550.0 70 60 67 89 96 72 17 0 38 106
3590.0 116 117 112 91 91 78 98 119 85 105
3630.0 108 71 36 36 130 156 77 58 37 32
3670.0 140 202 190 148 143 151 122 117 100 95
3710.0 114 80 111 141 88 86 148 146 134 147
3750.0 170 120 47 64 107 96 55 61 105 137
3790.0 142 151 151 139 130 169 193 155 163 175
3830.0 127 90 104 88 83
##END=
