##TITLE=Methyl acetopyruvate
##JCAMP-DX=4.24
##DATA TYPE=INFRARED SPECTRUM
##ORIGIN=EPA-IR VAPOR PHASE LIBRARY
##OWNER=SRD/NIST
Collection (C) 2018 copyright by the U.S. Secretary of Commerce
on behalf of the United States of America. All rights reserved.
##CAS REGISTRY NO=20577-61-1
##MOLFORM=C 6 H 8 O 4
##$NIST SOURCE=MSDC-IR
##STATE=gas
##XUNITS=1/CM
##YUNITS=ABSORBANCE
##XFACTOR=1.
##YFACTOR=0.001
##DELTAX=1.92898
##FIRSTX=549.8
##LASTX=4000.7
##FIRSTY=9.58
##MAXX=4000.7
##MINX=549.759
##MAXY=0.24069
##MINY=0.00004725
##NPOINTS=1790
##XYDATA=(X++(Y..Y))
549.759 9.58 10.25 10.89 11.5 11.87 12.41 12.89 13.59 14.46 15.01
569.049 15.15 15.08 14.99 14.69 13.99 13.3 12.61 11.6 10.39 9.5
588.339 8.89 8.2 7.36 6.67 6.34 6.07 5.75 5.4 5.06 5.01
607.628 4.96 4.68 4.42 4.33 4.28 4.23 4.24 4.16 4.38 4.57
626.918 4.42 4.27 4.13 3.92 3.91 3.82 3.52 3.55 3.6 3.48
646.208 3.48 3.43 3.32 3.36 3.36 3.2 3.27 3.33 3.26 3.15
665.498 3.17 3.67 3.77 3.48 3.27 3.24 3.16 3.07 3.19 3.3
684.787 3.33 3.29 3.39 3.52 3.49 3.46 3.38 3.3 3.5 3.68
704.077 3.79 3.92 3.95 4.19 4.44 4.55 4.68 4.93 5.22 5.25
723.367 5.29 5.58 5.94 6.13 6.49 7.06 7.79 8.49 9.03 9.88
742.657 10.95 12.08 13.54 15.23 17 18.99 21.26 23.61 25.89 28.06
761.947 30.11 31.95 33.51 34.74 35.38 35.33 34.71 33.66 32.16 30.11
781.236 27.82 25.64 23.54 21.35 19.27 17.65 16.26 15.03 13.93 13.13
800.526 12.61 12 11.7 11.69 11.69 11.65 11.76 11.98 12 11.98
819.816 12.04 11.9 11.72 11.62 11.46 11.38 11.35 11.36 11.46 11.65
839.106 11.8 11.99 12.24 12.64 13.1 13.46 13.96 14.43 14.88 15.52
858.395 15.94 16.28 16.61 16.89 17.24 17.31 17.16 17.03 17.04 16.88
877.685 16.56 16.39 16.2 16.1 15.95 15.73 15.33 14.98 14.8 14.66
896.975 14.49 14.21 13.98 13.79 13.58 13.31 13.1 12.8 12.47 12.27
916.265 11.93 11.52 11.14 10.63 10.24 9.98 9.67 9.6 9.68 9.45
935.555 9.36 9.54 9.8 10.06 10.24 10.43 10.76 11.41 11.98 12.49
954.844 13.22 14.06 15.16 16.53 18.06 19.71 21.48 23.25 24.92 26.59
974.134 27.75 28.52 28.92 28.8 28.52 27.48 26.05 24.55 22.73 21.15
993.424 19.76 18.54 17.56 16.41 15.66 15.42 15.2 14.85 14.49 14.32
1012.714 14.21 14.21 14.26 14.51 14.58 14.54 14.6 14.73 15.03 15.15
1032.003 15.52 15.4 14.92 15.54 16.01 16.16 16.67 17.37 18.35 19.41
1051.293 20.77 22.16 23.16 24.23 25.84 27.5 28.6 29.84 30.84 31.82
1070.583 33 33.93 35.11 36.38 37.7 39.41 41.47 43.45 45.2 47.62
1089.873 50.42 52.98 56.03 58.98 62.28 66.08 69.61 73.88 78.41 82.94
1109.163 87.24 90.41 92.4 92.95 91.86 89.28 85.49 80.87 75.47 69.19
1128.452 63.17 57.71 52.71 48.78 45.49 43.1 41.44 40.03 38.91 38.22
1147.742 37.67 37.53 38 37.95 37.74 37.68 38.05 38.62 39.26 40.07
1167.032 40.71 41.49 42.49 43.93 45.8 47.71 49.93 52.56 55.11 58.24
1186.322 61.6 64.99 68.93 72.55 75.73 78.5 81.2 83.26 84.49 85.47
1205.611 85.51 85.3 85.04 84.14 82.57 81.05 79.9 79.19 79.17 79.4
1224.901 80.21 81.86 83.84 86.46 89.8 93.29 97.71 102.64 108.3 114.64
1244.191 121.51 129.55 138.16 147.3 157.21 167.31 177.43 187.73 197.72 207.48
1263.481 216.75 225.47 232.7 237.96 240.69 240.49 237.4 231.06 221.75 210.05
1282.771 195.85 179.89 163.12 146.51 131.5 118.11 106.57 96.9 88.73 81.93
1302.060 76.27 71.49 67.28 63.67 60.66 58.05 55.63 53.51 51.68 49.89
1321.350 48.13 46.54 45.02 43.6 42.31 41.12 40.13 39.34 38.74 38.34
1340.640 38.14 38.2 38.48 38.96 39.74 40.8 42.08 43.53 45.11 46.69
1359.930 48.07 49.21 50.09 50.57 50.6 50.08 49 47.53 45.89 44.07
1379.219 42.2 40.58 39.21 38.1 37.26 36.74 36.47 36.37 36.35 36.48
1398.509 36.69 36.93 37.27 37.69 38.16 38.6 39.09 39.61 40.13 40.66
1417.799 41.23 41.89 42.66 43.68 45.03 46.8 49.1 51.77 54.34 56.22
1437.089 57.33 57.65 57.15 55.94 53.82 50.56 46.38 42.21 38.69 35.97
1456.378 33.91 32.29 31.01 29.91 28.98 28.13 27.35 26.62 25.9 25.18
1475.668 24.47 23.85 23.28 22.71 22.15 21.63 21.25 20.88 20.51 20.2
1494.958 19.98 19.83 19.64 19.48 19.41 19.35 19.26 19.29 19.39 19.44
1514.248 19.54 19.67 19.95 20.26 20.52 20.88 21.3 21.7 22.19 22.72
1533.538 23.28 23.89 24.62 25.38 26.16 27.12 28.12 29.11 30.19 31.38
1552.827 32.66 34.12 35.65 37.31 39.22 41.22 43.41 45.88 48.54 51.45
1572.117 54.66 58.18 62.09 66.27 70.7 75.58 80.63 85.93 91.49 97.12
1591.407 102.61 107.91 112.91 117.35 121.16 124.19 126.26 127.25 127.17 126.04
1610.697 124 121.28 117.85 113.77 109.7 105.65 101.48 97.73 94.4 91.43
1629.986 88.87 86.76 85.07 83.65 82.53 81.69 80.99 80.33 79.69 78.97
1649.276 78.07 77.11 75.83 74.15 72.24 70.16 67.84 65.19 62.32 59.39
1668.566 56.42 53.42 50.51 47.7 45.08 42.81 40.75 38.94 37.39 36.04
1687.856 34.99 34.24 33.85 33.71 33.77 34.05 34.6 35.48 36.64 38.16
1707.146 40.03 42.35 45.07 48.19 51.86 55.99 60.5 65.26 70.27 75.61
1726.435 81.39 87.68 94.5 101.56 109.18 117.06 124.58 131.77 138.17 143.39
1745.725 146.5 146.99 145.11 141.95 138.6 135.07 130.34 124.03 116.74 109.75
1765.015 103.78 98.95 94.91 90.99 86.75 82.61 79.23 76.77 74.24 70.22
1784.305 64.26 57.31 50.46 44.29 38.87 33.97 29.68 25.87 22.65 19.92
1803.594 17.62 15.74 14.17 12.82 11.68 10.73 9.95 9.24 8.6 8.09
1822.884 7.65 7.28 6.92 6.61 6.36 6.09 5.88 5.67 5.54 5.44
1842.174 5.32 5.18 5.07 4.98 4.94 4.88 4.79 4.74 4.66 4.62
1861.464 4.56 4.52 4.51 4.49 4.51 4.49 4.44 4.44 4.4 4.38
1880.754 4.37 4.33 4.31 4.28 4.27 4.25 4.27 4.21 4.14 4.07
1900.043 4.01 4.01 4.02 4.03 3.98 3.95 3.9 3.84 3.79 3.78
1919.333 3.76 3.76 3.79 3.77 3.77 3.77 3.75 3.79 3.85 3.87
1938.623 3.9 3.92 3.98 4.03 4.01 3.98 4.01 4.03 4.08 4.12
1957.913 4.12 4.04 3.97 3.98 3.94 3.91 3.89 3.87 3.83 3.78
1977.202 3.72 3.71 3.7 3.68 3.66 3.62 3.54 3.46 3.41 3.35
1996.492 3.34 3.32 3.22 3.17 3.13 3.12 3.1 3.05 3.06 3.04
2015.782 3 2.99 2.96 2.93 2.92 2.9 2.88 2.87 2.9 2.93
2035.072 2.96 2.97 2.92 2.98 3.04 3.04 3.02 2.99 3.05 3.07
2054.362 3.16 3.21 3.22 3.25 3.24 3.32 3.27 3.28 3.26 3.23
2073.651 3.25 3.21 3.29 3.26 3.24 3.16 3.18 3.22 3.27 3.32
2092.941 3.36 3.48 3.43 3.53 3.53 3.67 3.79 3.85 3.91 4.06
2112.231 4.23 4.38 4.54 4.66 4.89 5.07 5.27 5.44 5.65 5.77
2131.521 5.85 5.91 5.98 5.95 5.83 5.77 5.6 5.45 5.36 5.21
2150.810 4.99 4.8 4.66 4.45 4.15 3.83 3.57 3.33 3.13 2.99
2170.100 2.95 2.95 3.01 3 2.89 2.88 2.85 2.79 2.8 2.83
2189.390 2.8 2.78 2.71 2.66 2.69 2.69 2.65 2.68 2.63 2.57
2208.680 2.62 2.61 2.54 2.49 2.51 2.54 2.56 2.55 2.59 2.64
2227.970 2.6 2.58 2.61 2.64 2.62 2.61 2.59 2.55 2.58 2.65
2247.259 2.64 2.63 2.67 2.66 2.64 2.61 2.59 2.61 2.63 2.6
2266.549 2.55 2.6 2.7 2.67 2.58 2.66 2.77 2.76 2.71 2.72
2285.839 2.79 2.86 2.81 2.82 2.94 2.99 3 3.02 3.11 3.21
2305.129 3.34 3.39 3.37 3.45 3.55 3.52 3.57 3.66 3.74 3.79
2324.418 3.76 3.72 3.69 3.67 3.67 3.69 3.66 3.68 3.71 3.64
2343.708 3.58 3.52 3.4 3.4 3.57 3.71 3.76 3.87 4.09 4.18
2362.998 4.15 4.17 4.13 4.11 4.06 3.94 3.84 3.71 3.54 3.36
2382.288 3.23 3.15 3.03 3.01 2.97 2.93 2.98 2.98 2.95 2.89
2401.578 2.88 2.96 3.01 2.99 3.03 3.07 3.08 3.11 3.09 3.03
2420.867 3.04 3.09 3.03 2.98 3.06 3.09 3.09 3.09 3.02 3.01
2440.157 3.04 3.01 3.03 3.03 3.1 3.09 3.02 3.06 3.09 3.13
2459.447 3.16 3.23 3.26 3.26 3.32 3.33 3.37 3.35 3.28 3.32
2478.737 3.34 3.44 3.51 3.53 3.57 3.54 3.54 3.64 3.63 3.58
2498.026 3.63 3.62 3.62 3.68 3.75 3.8 3.8 3.76 3.81 3.88
2517.316 3.81 3.88 3.93 3.89 3.94 3.89 3.83 3.83 3.8 3.77
2536.606 3.8 3.79 3.74 3.68 3.68 3.78 3.77 3.63 3.57 3.61
2555.896 3.62 3.58 3.6 3.64 3.61 3.61 3.56 3.49 3.48 3.44
2575.186 3.42 3.42 3.4 3.44 3.44 3.39 3.31 3.29 3.32 3.35
2594.475 3.39 3.38 3.44 3.46 3.44 3.43 3.44 3.43 3.41 3.41
2613.765 3.36 3.39 3.48 3.47 3.44 3.42 3.43 3.47 3.46 3.38
2633.055 3.39 3.51 3.55 3.48 3.44 3.48 3.53 3.58 3.68 3.67
2652.345 3.59 3.62 3.69 3.65 3.63 3.71 3.77 3.71 3.64 3.74
2671.634 3.84 3.86 3.94 3.9 3.89 3.97 3.96 3.89 3.91 4.04
2690.924 4.09 4.12 4.14 4.14 4.18 4.24 4.34 4.33 4.28 4.3
2710.214 4.26 4.26 4.32 4.28 4.23 4.34 4.39 4.4 4.38 4.34
2729.504 4.4 4.42 4.38 4.41 4.43 4.41 4.35 4.32 4.35 4.39
2748.794 4.4 4.43 4.47 4.54 4.49 4.46 4.57 4.64 4.63 4.54
2768.083 4.66 4.73 4.73 4.86 4.92 4.9 4.87 4.84 4.89 4.94
2787.373 4.9 4.95 5.01 5.06 4.99 5.03 5.13 5.16 5.27 5.28
2806.663 5.27 5.37 5.47 5.47 5.47 5.55 5.73 5.83 5.86 5.97
2825.953 6.17 6.33 6.4 6.48 6.65 6.93 7.27 7.6 8.03 8.68
2845.242 9.16 9.52 9.85 10.07 10.19 10.12 9.99 9.77 9.38 8.96
2864.532 8.59 8.36 8.11 7.84 7.7 7.68 7.62 7.54 7.59 7.65
2883.822 7.68 7.79 8.04 8.13 8.24 8.52 8.78 9.08 9.27 9.46
2903.112 9.77 9.91 9.94 10.07 10.23 10.28 10.38 10.52 10.52 10.57
2922.401 10.68 10.82 10.98 11.26 11.45 11.51 11.8 12.09 12.42 12.86
2941.691 13.4 14.09 15.03 16.45 18.38 21.19 25.16 29.54 33.49 36.17
2960.981 37.14 37.31 37.14 36.36 34.77 31.71 27.34 22.83 19.13 16.48
2980.271 14.8 13.82 13.21 12.9 12.77 12.7 12.74 12.85 13.03 13.29
2999.561 13.53 13.77 14.04 14.3 14.48 14.67 14.75 14.68 14.56 14.4
3018.850 14.19 14.04 13.95 13.64 13.36 13.28 13.15 12.99 12.88 12.73
3038.140 12.4 12.07 11.86 11.51 11.17 10.88 10.5 10.17 9.87 9.49
3057.430 9.18 8.98 8.75 8.53 8.39 8.31 8.18 8.06 7.94 7.8
3076.720 7.76 7.69 7.62 7.53 7.52 7.49 7.39 7.39 7.35 7.27
3096.009 7.25 7.15 7.03 7.01 7.03 6.98 6.87 6.8 6.68 6.51
3115.299 6.34 6.31 6.27 6.08 5.98 5.91 5.64 5.53 5.5 5.33
3134.589 5.18 4.99 4.85 4.75 4.74 4.74 4.82 4.8 4.76 4.74
3153.879 4.56 4.44 4.48 4.55 4.45 4.41 4.4 4.32 4.33 4.3
3173.169 4.24 4.17 4.19 4.11 4.08 4.18 4.22 4.23 4.18 4.17
3192.458 4.07 3.99 4.02 4.07 4.07 4.03 3.96 3.86 3.99 4.01
3211.748 3.88 3.89 3.85 3.79 3.81 3.79 3.82 3.79 3.77 3.73
3231.038 3.57 3.64 3.63 3.62 3.66 3.62 3.54 3.49 3.49 3.49
3250.328 3.49 3.42 3.31 3.38 3.47 3.41 3.28 3.19 3.17 3.27
3269.617 3.42 3.4 3.28 3.15 3.16 3.14 3.11 3.15 3.08 2.98
3288.907 3.04 3.08 3.07 3.04 2.96 2.81 2.71 2.79 2.85 2.83
3308.197 2.69 2.53 2.58 2.68 2.61 2.61 2.65 2.53 2.4 2.31
3327.487 2.28 2.33 2.24 2.19 2.2 2.28 2.15 2.03 2.13 2.08
3346.777 2.03 2.01 2 2.04 2 1.97 2.1 2.05 1.9 1.84
3366.066 1.84 1.97 1.93 1.76 1.75 1.82 1.74 1.7 1.78 1.76
3385.356 1.67 1.6 1.63 1.72 1.85 1.75 1.68 1.71 1.55 1.54
3404.646 1.73 1.65 1.56 1.65 1.63 1.68 1.8 1.76 1.71 1.77
3423.936 1.81 1.8 1.64 1.72 1.94 1.94 1.93 1.96 2.04 2.25
3443.225 2.31 2.29 2.35 2.38 2.37 2.45 2.64 2.67 2.71 2.86
3462.515 2.87 2.81 2.86 2.93 3.04 3.09 3.21 3.31 3.21 3.22
3481.805 3.27 3.28 3.25 3.19 3.17 2.98 2.88 2.82 2.65 2.53
3501.095 2.34 2.29 2.2 2.19 2.03 1.84 2.01 2.11 1.92 1.81
3520.385 1.78 1.58 1.69 1.86 1.74 1.68 1.7 1.63 1.58 1.51
3539.674 1.48 1.52 1.41 1.18 1.03 1.05 1.09 0.8878 0.833 0.9013
3558.964 0.8171 0.7681 0.8235 0.7797 0.7038 0.6611 0.6544 0.6485 0.6048 0.7109
3578.254 0.742 0.6721 0.7324 0.7958 0.7476 0.7486 0.7503 0.769 0.8262 0.7732
3597.544 0.6878 0.6759 0.6569 0.6547 0.7134 0.7072 0.6707 0.5391 0.4344 0.4755
3616.833 0.4924 0.4053 0.3486 0.407 0.3654 0.3337 0.3727 0.468 0.5327 0.5608
3636.123 0.5044 0.3807 0.2516 0.2779 0.3577 0.3622 0.4668 0.5349 0.5174 0.3914
3655.413 0.3176 0.3872 0.3516 0.3469 0.3176 0.1528 0.1743 0.2607 0.3252 0.3367
3674.703 0.2882 0.2736 0.374 0.4814 0.4798 0.4108 0.3788 0.4233 0.4255 0.5391
3693.993 0.5706 0.4132 0.3136 0.3086 0.3066 0.33 0.4218 0.3475 0.3088 0.3268
3713.282 0.3188 0.4843 0.5214 0.4456 0.3734 0.3265 0.3696 0.3688 0.2675 0.2642
3732.572 0.3522 0.3146 0.3342 0.3757 0.3558 0.3263 0.2511 0.2268 0.2913 0.3021
3751.862 0.1697 0.2112 0.3074 0.2934 0.2974 0.2993 0.4043 0.3139 0.1678 0.3145
3771.152 0.3563 0.3122 0.3381 0.3132 0.3333 0.3509 0.3233 0.2918 0.357 0.445
3790.441 0.333 0.2428 0.2669 0.3082 0.3253 0.3293 0.3509 0.3915 0.3747 0.293
3809.731 0.2239 0.175 0.2524 0.3967 0.4303 0.3358 0.2673 0.3391 0.4021 0.3742
3829.021 0.3901 0.3308 0.3093 0.3685 0.1667 0.08187 0.1802 0.2023 0.1944 0.2123
3848.311 0.2254 0.2599 0.4074 0.3611 0.182 0.2269 0.326 0.3925 0.3986 0.3722
3867.601 0.326 0.3646 0.4585 0.4277 0.3924 0.2929 0.2355 0.255 0.2141 0.1431
3886.890 0.2414 0.3553 0.2144 0.04725 0.1525 0.3461 0.3338 0.3657 0.3562 0.3387
3906.180 0.3394 0.2864 0.3133 0.3996 0.4579 0.4626 0.5359 0.5471 0.5101 0.4534
3925.470 0.4048 0.4518 0.4131 0.3716 0.3495 0.3339 0.4883 0.4864 0.4223 0.4461
3944.760 0.442 0.4659 0.5788 0.5976 0.4907 0.3907 0.4098 0.4922 0.4734 0.4875
3964.049 0.5287 0.4783 0.5464 0.5943 0.6076 0.5468 0.5474 0.5438 0.4445 0.4817
3983.339 0.5089 0.4781 0.5396 0.6341 0.5472 0.5322 0.46 0.33 0.3583 0.3869
##END=
