##TITLE=4-(Methylthio)butanol
##JCAMP-DX=4.24
##DATA TYPE=INFRARED SPECTRUM
##ORIGIN=EPA-IR VAPOR PHASE LIBRARY
##OWNER=SRD/NIST
Collection (C) 2018 copyright by the U.S. Secretary of Commerce
on behalf of the United States of America. All rights reserved.
##CAS REGISTRY NO=20582-85-8
##MOLFORM=C 5 H 12 O S
##$NIST SOURCE=MSDC-IR
##STATE=gas
##XUNITS=1/CM
##YUNITS=ABSORBANCE
##XFACTOR=1.
##YFACTOR=0.001
##DELTAX=1.92898
##FIRSTX=549.8
##LASTX=4000.7
##FIRSTY=1.6443
##MAXX=4000.7
##MINX=549.759
##MAXY=0.06196
##MINY=0
##NPOINTS=1790
##XYDATA=(X++(Y..Y))
549.759 1.6443 0.898 0 0.483 1.9558 1.4404 1.3464 1.6245 1.9299 2.44
569.049 2.0404 1.8551 1.237 0.545 1.10843 1.384 1.15541 1.5034 1.402 0.951
588.339 0.946 1.3928 1.8738 1.9638 1.2728 1.1948 1.9562 1.5496 0.917 0.789
607.628 1.1694 1.12331 0.46 0.9848 1.4514 1.4398 1.6272 1.4556 1.4839 1.10269
626.918 0.526 0.654 1.10284 1.2805 1.3554 0.963 0.667 0.828 1.4338 1.8556
646.208 1.4492 1.10919 1.0694 1.4853 1.9852 2.13 1.9877 1.8141 2.0412 1.9978
665.498 1.2824 0.846 1.3378 1.3481 1.2496 1.4249 1.7682 1.8722 1.4748 1.4123
684.787 1.4314 1.8856 1.6893 1.2783 1.4048 1.7876 1.883 1.6178 1.9431 1.8834
704.077 1.9069 2.19 1.8501 1.8613 2.4 2.12 1.8758 2.09 1.7057 1.2026
723.367 1.259 2.12 2.39 2.25 2.2 1.7185 1.1294 1.13723 1.718 2.14
742.657 2.39 2.21 2.0084 2.6 2.71 2.53 2.47 2.6 2.76 2.44
761.947 2.12 2.0277 2.58 2.77 2.35 2.22 2.19 2.2 2.0073 1.5805
781.236 1.476 1.3154 1.8073 2.62 2.6 2.34 2.32 2.47 2.72 2.53
800.526 2.17 2.0552 2.54 3.12 2.39 2.0457 2.36 2.26 2.3 2.43
819.816 2.23 1.9263 1.7934 1.715 1.9845 2.51 2.6 2.31 2.1 2.0442
839.106 2.0398 1.9548 2.21 2.0559 1.7921 2.58 2.74 2.4 2.12 1.995
858.395 2.4 2.51 2.13 1.8945 2.43 2.75 2.86 3.2 3.34 3.1
877.685 2.92 2.78 2.89 3.86 3.84 3.49 3.45 3.22 3.25 3.63
896.975 4.19 4.53 4.67 4.86 5.15 5.07 5.07 5.72 6.24 6.19
916.265 6.05 5.93 5.85 6.07 6.29 6.25 6.03 5.94 6.02 5.87
935.555 5.99 6.01 5.4 5.8 6.77 6.98 6.65 6.65 7.03 7.08
954.844 7.15 7.38 7.54 7.83 8.15 7.8 7.53 7.52 7.82 7.89
974.134 7.71 7.73 7.27 7.63 7.95 7.49 8.12 8.54 7.93 8.02
993.424 8.06 8.08 8.28 8.5 8.9 8.71 9.2 10.19 11.8 13.12
1012.714 13.21 13.48 14.61 16.12 17.66 18.67 19.94 21.7 22.85 23.35
1032.003 23.96 24.4 24.8 25.71 26.11 26.47 26.87 27.54 28.47 28.97
1051.293 29.22 29.34 29.59 29.46 28.79 28.68 27.43 26.15 24.81 22.98
1070.583 21.84 21.14 19.42 17.52 16.33 14.76 12.52 10.65 11.16 11.2
1089.873 9.38 7.11 6.48 7.58 7.19 6.56 6.47 4.86 4.05 5.42
1109.163 5.66 4.89 4.93 5.63 6.06 6.49 5.61 4.9 5.56 5.48
1128.452 4.32 2.97 3.2 4.46 4.49 4.76 4.51 2.87 2.68 3.17
1147.742 3.33 3.61 4.34 4.61 4.4 4.21 3.75 3.38 3.78 3.98
1167.032 3.81 3.9 3.6 3.85 4.6 3.76 4.33 5.12 4.15 4.67
1186.322 5.18 4.67 4.76 5.11 5.57 5.66 4.64 4.72 6.08 4.97
1205.611 3.73 4.9 5.52 5.75 5.87 5.87 5.74 6.34 7.83 7.94
1224.901 6 6.02 7.92 8.82 8.27 7.33 7.36 8.34 8.2 7.54
1244.191 7.68 7.55 7.35 7.67 8.23 8.55 9.02 9.27 8.94 8.56
1263.481 8.67 9.05 9.51 10.35 10.03 9.4 9.4 9.72 10.04 10.29
1282.771 9.84 9.37 10.06 10.03 9.67 9.72 9.84 9.58 9.29 9.06
1302.060 8.62 8.31 8.08 7.91 7.79 7.65 7.26 6.94 6.71 6.32
1321.350 6.17 6.21 6.09 6.07 6.1 5.99 6.01 5.88 5.75 5.92
1340.640 6.04 6.09 6.11 6.09 6.14 6.29 6.39 6.41 6.45 6.36
1359.930 6.35 6.53 6.79 7.02 7 7.02 7.25 7.4 7.66 7.9
1379.219 7.88 8.05 8.33 8.39 8.47 8.54 8.44 8.29 8.06 7.89
1398.509 7.74 7.52 7.27 6.92 6.77 6.85 6.83 6.82 6.92 6.91
1417.799 7.18 7.59 7.93 8.33 8.76 9.4 9.89 10.25 10.77 11.17
1437.089 11.53 11.84 11.93 12.06 11.87 11.33 11.09 10.72 9.98 9.38
1456.378 8.79 8.22 7.84 7.28 6.73 6.41 6.41 6.4 5.89 5.37
1475.668 5.18 4.91 4.65 4.59 4.41 4.14 3.99 3.86 3.64 3.08
1494.958 2.85 2.96 2.77 2.72 2.59 2.38 2.27 2.18 2.11 2.0038
1514.248 2.0747 2.16 2.11 2.13 2.1 2.13 1.9356 1.7595 1.9391 2.09
1533.538 1.8521 1.7389 1.7926 1.757 2.0066 1.894 1.5651 1.5781 1.4669 1.3635
1552.827 1.6664 1.8054 1.8279 1.93 1.5871 1.3846 1.7984 1.8923 1.4874 1.3547
1572.117 1.6303 1.8222 1.8518 1.4669 1.4299 1.5539 1.396 1.5414 1.5705 1.5133
1591.407 1.4172 1.4551 1.38 1.2122 1.2184 1.17944 1.3141 1.5747 1.517 1.2206
1610.697 1.07737 1.2476 1.4361 1.3301 1.09885 1.16108 1.189 1.09347 1.0055 1.13546
1629.986 1.3675 1.4209 1.4798 1.3215 1.13979 1.0151 1.17172 1.2507 1.2179 1.2813
1649.276 1.3316 1.5307 1.4405 1.1911 1.2685 1.4241 1.3146 1.2054 1.0246 0.858
1668.566 0.965 1.13364 1.07205 0.97 1.0536 1.2363 1.3374 1.16732 1.07427 1.0687
1687.856 0.971 0.881 0.694 0.749 0.963 0.838 0.922 1.2189 1.1862 1.0227
1707.146 0.9964 1.216 1.207 1.0687 0.884 0.919 1.0335 0.854 1.09455 1.08573
1726.435 0.803 0.891 1.0363 1.07707 1.13795 1.10991 0.9881 1.09044 1.2265 1.07245
1745.725 0.9976 1.10423 1.12044 1.08981 1.0089 1.09089 1.2418 1.2138 1.16912 1.1971
1765.015 1.2011 1.1215 1.01 0.9827 1.12594 0.937 0.816 0.9838 1.07245 1.2194
1784.305 1.17708 0.9869 0.843 0.941 1.10206 1.14058 1.08164 1.12168 1.13228 1.11331
1803.594 1.045 0.944 0.963 1.0402 1.2562 1.2078 1.016 0.977 1.0575 0.9934
1822.884 1.0269 1.2273 1.2473 1.238 1.15097 0.967 0.9937 1.0242 0.997 1.07916
1842.174 1.09371 1.061 1.09471 1.1822 1.2642 1.2641 1.2887 1.15823 1.0472 1.15808
1861.464 1.2909 1.195 0.843 0.797 0.885 1.0276 1.0269 1.0272 1.15898 1.3432
1880.754 1.3654 1.0303 1.2952 1.4949 1.2477 1.2542 1.1817 1.1996 1.2641 1.1938
1900.043 1.12568 1.10166 1.0543 1.0341 1.17664 1.1893 1.13431 1.227 1.14542 1.1119
1919.333 1.2272 1.2978 1.2723 1.2787 1.3722 1.1993 1.2294 1.2771 1.2576 1.4012
1938.623 1.3124 1.17829 1.13166 1.261 1.2941 1.16617 1.2276 1.375 1.471 1.4792
1957.913 1.4465 1.3272 1.3195 1.2369 1.1796 1.2974 1.2687 1.3027 1.2189 1.09342
1977.202 1.2507 1.3878 1.3312 1.2293 1.13808 1.0134 1.0165 1.15224 1.3947 1.3631
1996.492 1.12869 1.12972 1.2553 1.3221 1.2807 1.2377 1.3122 1.3355 1.2563 1.3159
2015.782 1.3916 1.4717 1.5207 1.5956 1.5382 1.3742 1.2785 1.2056 1.1972 1.15027
2035.072 1.2703 1.3555 1.2984 1.4203 1.4618 1.3565 1.3351 1.3831 1.4006 1.3285
2054.362 1.3715 1.4684 1.4915 1.4571 1.4886 1.4897 1.4683 1.5669 1.5766 1.5037
2073.651 1.3323 1.2789 1.4621 1.5527 1.4627 1.2263 1.2865 1.3073 1.15668 1.2257
2092.941 1.2776 1.16455 1.11362 1.2516 1.327 1.34 1.3337 1.328 1.3729 1.5421
2112.231 1.4716 1.2966 1.219 1.2871 1.302 1.3178 1.3868 1.453 1.4112 1.3868
2131.521 1.5208 1.3719 1.2318 1.2806 1.3529 1.4848 1.6855 1.4423 1.019 1.12482
2150.810 1.3878 1.3352 1.2875 1.4148 1.4375 1.2927 1.2026 1.4252 1.489 1.3951
2170.100 1.4073 1.188 1.11333 1.1934 1.2067 1.3627 1.3963 1.3023 1.3371 1.3951
2189.390 1.4091 1.3489 1.3268 1.4445 1.5267 1.4789 1.2862 1.12195 1.1896 1.24
2208.680 1.2516 1.212 1.08439 1.15184 1.2931 1.3406 1.2396 1.2191 1.4384 1.2845
2227.970 1.17198 1.429 1.3942 1.136 1.2552 1.5765 1.5171 1.5451 1.7919 1.6349
2247.259 1.3614 1.2293 1.1688 1.15239 1.2147 1.3766 1.4075 1.4587 1.3855 1.1938
2266.549 1.3792 1.4012 1.3088 1.3358 1.3368 1.4695 1.545 1.3184 1.3753 1.51
2285.839 1.4181 1.3445 1.2831 1.3663 1.3084 1.3797 1.5066 1.5684 1.6454 1.5695
2305.129 1.4988 1.5438 1.4972 1.3872 1.5377 1.6509 1.4383 1.4247 1.3117 1.2836
2324.418 1.5278 1.5209 1.5615 1.4629 1.4368 1.7914 1.7584 1.503 1.5349 1.4759
2343.708 1.3392 1.5074 1.5195 1.4144 1.3527 1.3965 1.4536 1.5207 1.7642 1.7409
2362.998 1.5979 1.6467 1.6863 1.564 1.38 1.3827 1.5583 1.7024 1.5625 1.3595
2382.288 1.5853 1.5845 1.5158 1.6033 1.6728 1.67 1.4387 1.4681 1.5917 1.6381
2401.578 1.5405 1.2911 1.2486 1.3553 1.4766 1.5591 1.3716 1.0696 1.08889 1.3954
2420.867 1.4596 1.499 1.5343 1.5243 1.4334 1.2923 1.3404 1.6513 1.7405 1.3455
2440.157 1.3474 1.4735 1.3331 1.13765 1.13887 1.3072 1.6102 1.6121 1.368 1.345
2459.447 1.271 1.2009 1.1865 1.3289 1.4561 1.4714 1.5401 1.4885 1.3466 1.0454
2478.737 0.9833 1.3147 1.4712 1.3751 1.4602 1.4939 1.5463 1.7247 1.548 1.3923
2498.026 1.5338 1.7163 1.6312 1.5009 1.3401 1.3871 1.4034 1.3611 1.4446 1.4768
2517.316 1.3486 1.3687 1.6454 1.5153 1.345 1.3774 1.5978 1.7913 1.7008 1.6622
2536.606 1.7414 1.5864 1.4146 1.4319 1.5876 1.5288 1.297 1.1886 1.2234 1.4993
2555.896 1.4603 1.3793 1.4914 1.13052 1.2633 1.657 1.544 1.3774 1.277 1.3899
2575.186 1.2733 1.3975 1.5963 1.3424 1.4085 1.6425 1.5488 1.3275 1.2938 1.357
2594.475 1.3802 1.2775 1.1973 1.1309 1.3196 1.548 1.3509 1.3103 1.5001 1.6604
2613.765 1.8316 1.8462 1.5344 1.569 1.8561 1.9065 1.8919 1.8021 1.699 1.7985
2633.055 1.7265 1.507 1.6397 1.5934 1.6941 1.8707 1.86 1.8256 1.6838 1.7215
2652.345 1.6538 1.8216 2.0549 2.11 2.22 2.17 1.8907 1.8087 1.8937 2.0743
2671.634 2.0393 2.0335 2.21 2.16 2.09 1.9738 2.0317 2.47 2.72 2.52
2690.924 2.17 2.0519 2.24 2.047 1.9667 2.37 2.5 2.31 2.08 2.25
2710.214 2.68 2.9 3.14 2.81 2.15 2.29 2.6 2.73 2.75 3.07
2729.504 3.11 2.69 2.55 2.57 2.87 2.85 2.78 2.76 2.61 2.88
2748.794 3.03 3.19 3.21 2.8 2.66 2.77 3.12 3.28 3.37 3.29
2768.083 3.06 3.11 3.4 3.33 3.45 3.44 2.98 3.25 3.53 3.46
2787.373 3.55 4.13 4.76 4.69 4.61 4.75 4.87 4.78 4.62 4.42
2806.663 4.65 5.31 5.66 5.92 5.81 5.92 6.29 6.29 6.74 7.35
2825.953 7.58 8.12 8.67 9.06 9.71 10.33 11.56 12.54 13.06 14.27
2845.242 15.15 16.02 17.04 17.27 17.79 19.04 19.77 20.37 21.01 21.55
2864.532 22.15 22.67 23.38 23.92 24.52 25.16 25.35 25.53 26.42 26.54
2883.822 26.35 26.85 27.12 27.47 27.53 27.34 27.74 28.56 29.66 30.47
2903.112 31.3 33.08 35.38 37.6 39.49 42.23 45.39 48.32 51 53.77
2922.401 56.24 57.25 58.37 59.61 60.37 61.4 61.96 61.01 59.74 59.22
2941.691 58.15 56.54 54.97 53.33 51.15 48.2 45.33 42.4 39.91 37.79
2960.981 35.21 32.61 30.22 27.73 25.37 23.41 21.79 20.24 18.68 17.36
2980.271 16.11 15.1 14.55 14 13.22 12.18 11.4 10.9 10.32 9.62
2999.561 8.97 8.39 7.68 6.69 5.89 5.9 5.89 5.5 4.74 4.47
3018.850 4.6 4.31 3.84 3.47 3.78 3.64 3.07 3.22 2.96 2.99
3038.140 3.4 3.24 3.31 3.29 2.78 2.76 2.7 2.65 2.87 2.61
3057.430 2.56 2.35 2.27 2.7 2.84 2.89 2.56 2.0193 2.0022 2.0495
3076.720 2.0662 2.08 2.29 2.69 2.5 2.0728 2.12 2.17 2.09 2.38
3096.009 2.56 2.29 2.36 2.67 2.67 2.25 2.026 2.08 2.26 2.51
3115.299 2.34 2.44 2.56 2.56 2.5 2.23 2.0391 1.8448 1.7932 1.6311
3134.589 1.8017 2.0698 1.83 1.7627 1.7884 1.737 1.6141 1.5066 1.5898 1.526
3153.879 1.7416 1.7355 1.8283 1.9141 1.7838 1.4603 1.4879 1.7314 1.4969 1.663
3173.169 1.2438 1.3038 1.8471 1.6496 1.6418 1.7943 1.6261 1.4698 1.7013 1.5115
3192.458 1.5468 1.8697 1.6363 1.698 1.626 1.0384 1.2649 1.3529 1.3008 1.4923
3211.748 1.17735 1.3854 1.5568 1.4557 1.569 1.5792 1.276 1.2917 1.5885 1.2616
3231.038 1.2955 1.3634 1.4085 1.3758 1.0668 1.6071 1.7475 1.7261 1.9591 1.6358
3250.328 1.2525 1.12938 1.3756 1.761 1.72 1.7677 1.7577 1.6646 1.848 1.6618
3269.617 1.3867 1.8247 2.0566 1.7381 1.4606 1.7555 2.18 1.8075 1.2892 1.0047
3288.907 1.11342 0.9 0.788 0.928 1.13605 1.4446 1.08625 1.4061 2.0555 1.4565
3308.197 1.3344 1.7635 1.7135 1.9616 1.9952 1.7156 1.8926 1.7422 1.6305 1.8572
3327.487 1.4903 1.4095 1.8131 1.5285 1.13647 1.2808 1.4481 0.9871 0.746 1.2145
3346.777 1.3203 1.3202 1.15355 0.9924 1.0077 1.16027 1.4371 1.5386 1.6309 1.5881
3366.066 1.4908 1.4997 1.6043 2.0236 2.0764 1.7519 2.0015 1.8258 1.5345 1.2727
3385.356 0.476 0.328 0.855 1.2442 1.11078 1.17537 1.09911 1.0039 1.6219 1.9192
3404.646 1.7602 1.1808 0.9802 1.6492 1.6467 1.3917 1.5556 1.3909 0.88 1.0667
3423.936 1.4638 1.07376 0.972 1.416 1.397 1.08925 1.01 1.14946 1.6041 1.9621
3443.225 1.9816 1.7481 1.7317 1.8592 2.0461 2.12 1.5331 1.6285 1.9348 1.8028
3462.515 1.9613 1.8903 1.6291 1.7634 2.23 2.14 1.7473 1.646 1.9857 2.66
3481.805 2.57 1.9223 1.8073 2.0611 1.9981 1.7324 2.21 2.48 2.29 1.7184
3501.095 1.2265 1.4848 1.9315 2.37 2.12 1.9454 2.0644 1.6983 1.7322 2.2
3520.385 2.63 2.95 2.32 1.9394 2.47 2.3 1.8423 1.914 1.9308 1.8434
3539.674 1.7818 1.7544 1.5869 1.6548 1.9635 2.33 2.31 2.14 1.6027 1.3736
3558.964 2.0244 2.18 1.9205 1.9381 1.8484 1.5919 1.9897 2.12 2.0372 2.27
3578.254 2.49 2.46 1.9828 1.92 2.19 2.0757 1.9439 2.0631 2.09 1.7459
3597.544 1.5007 1.809 1.9338 1.6464 1.905 1.776 1.5629 1.7278 1.7474 2.12
3616.833 2.38 1.9301 1.987 2.34 2.31 2.5 2.75 2.72 2.49 2.52
3636.123 2.78 3.36 3.7 3.96 4.3 4.83 5.38 5.46 5.79 6.11
3655.413 6.57 7.2 7.72 8.29 8.61 9 8.86 8.41 8.67 8.72
3674.703 8.5 8.01 7.56 7.27 6.55 5.63 5.07 4.71 4.09 3.61
3693.993 2.86 2.4 2.87 3 2.55 2.31 1.8831 1.8154 2.47 2.38
3713.282 2.13 2.42 2.32 2.18 2.49 2.38 2.18 2.12 1.8745 2.29
3732.572 2.39 1.5075 1.0179 1.501 1.7582 1.2783 1.4069 1.7813 1.8956 1.9799
3751.862 1.4137 1.11589 1.9286 2.26 2.15 2.54 2.44 2.18 2.33 2.19
3771.152 1.7758 1.7984 2.32 2.39 1.7331 1.4339 1.9008 2.19 2.36 2.35
3790.441 2.09 1.983 1.6875 1.5526 1.524 1.2797 1.8354 2.0589 1.5697 1.4527
3809.731 1.6189 1.7002 1.689 1.5786 1.6817 1.5024 1.6883 2.33 1.6156 1.5953
3829.021 2.36 2.26 2.0409 1.8918 1.8761 1.938 1.486 1.13708 1.2985 1.8692
3848.311 2.13 2.2 2.31 2.12 2.22 2.1 1.8603 1.7295 1.5642 1.6003
3867.601 1.6762 1.9559 1.4993 1.4682 2.16 2.13 1.7656 0.943 1.0411 1.5007
3886.890 1.4938 1.4757 1.8296 2.0031 1.12803 1.12977 1.8397 1.6471 1.8238 2.61
3906.180 2.26 1.4788 1.5476 1.8128 2.17 2.11 2.17 2.4 2.4 2.64
3925.470 2.47 2.12 1.6553 1.2771 1.5263 1.5811 1.5401 1.5721 0.973 1.3318
3944.760 1.5692 1.2292 1.0672 1.13338 1.5601 1.4218 1.3778 1.3412 1.15144 1.2994
3964.049 1.7416 2.0799 1.8121 1.238 0.92 0.595 0.963 1.3985 0.9983 1.7106
3983.339 2.22 2.09 1.989 1.5371 1.0164 1.2597 1.5349 1.4653 1.6982 1.7203
##END=
