##TITLE=1,1,1,5,5,6,6,7,7,7-Decafluoro-2,4-heptanedione
##JCAMP-DX=4.24
##DATA TYPE=INFRARED SPECTRUM
##ORIGIN=EPA-IR VAPOR PHASE LIBRARY
##OWNER=SRD/NIST
Collection (C) 2018 copyright by the U.S. Secretary of Commerce
on behalf of the United States of America. All rights reserved.
##CAS REGISTRY NO=20583-66-8
##MOLFORM=C 7 H 2 F 10 O 2
##$NIST SOURCE=MSDC-IR
##STATE=gas
##XUNITS=1/CM
##YUNITS=ABSORBANCE
##XFACTOR=1.
##YFACTOR=0.001
##DELTAX=1.92898
##FIRSTX=549.8
##LASTX=4000.7
##FIRSTY=18.976
##MAXX=4000.7
##MINX=549.759
##MAXY=0.992316
##MINY=0
##NPOINTS=1790
##XYDATA=(X++(Y..Y))
549.759 18.976 18.256 18.426 18.976 20.036 21.746 23.626 26.706 30.506 34.916
569.049 39.196 44.156 49.346 52.666 53.206 51.686 49.126 45.606 42.076 39.376
588.339 37.286 34.656 33.406 33.006 32.226 31.416 30.706 31.166 31.736 31.906
607.628 32.396 33.316 34.496 35.916 38.406 39.506 40.016 41.736 43.296 44.966
626.918 46.506 48.616 50.656 51.646 51.976 51.826 50.846 49.286 47.166 45.406
646.208 43.906 42.916 42.986 43.426 45.176 47.076 49.766 54.016 57.976 60.676
665.498 62.226 61.866 59.266 55.856 52.066 47.346 42.346 38.306 34.316 30.986
684.787 28.936 28.166 27.906 27.536 26.826 26.366 26.116 26.116 26.736 27.406
704.077 28.426 29.126 30.056 31.226 32.316 33.516 34.536 35.446 35.276 34.596
723.367 34.326 33.986 33.786 34.396 35.706 38.196 42.416 48.606 56.856 67.526
742.657 80.896 94.566 104.956 109.506 106.956 97.416 82.896 65.656 49.796 38.446
761.947 30.556 25.806 22.946 20.716 20.306 21.686 23.256 25.246 27.906 30.306
781.236 32.536 34.306 35.266 35.246 34.816 34.246 34.286 34.386 34.756 36.236
800.526 38.386 42.076 47.456 55.176 64.116 73.076 82.406 88.736 90.506 88.146
819.816 80.516 69.906 59.726 50.306 42.606 36.836 33.116 30.126 27.596 26.416
839.106 25.496 24.396 23.536 22.626 21.506 21.276 21.196 20.596 20.296 20.636
858.395 21.086 21.556 21.786 22.426 23.916 25.496 27.236 30.046 33.386 36.986
877.685 42.326 48.666 55.966 63.766 69.656 72.946 73.626 71.906 67.496 62.416
896.975 58.436 55.396 52.626 49.776 47.316 44.786 41.376 38.676 37.456 36.706
916.265 37.036 38.816 41.696 45.926 51.976 59.516 67.776 76.896 86.136 92.706
935.555 95.396 94.786 92.126 89.116 87.536 88.106 90.786 94.846 99.626 105.076
954.844 110.316 113.546 113.726 109.996 103.186 93.446 81.646 69.706 58.126 48.666
974.134 41.346 35.666 31.336 28.246 26.106 24.956 24.536 23.696 22.906 22.356
993.424 22.426 23.126 24.146 25.306 26.686 28.546 31.256 34.976 38.346 41.396
1012.714 44.746 48.136 50.806 52.006 52.666 52.926 53.516 54.746 54.826 55.986
1032.003 59.136 62.196 65.526 69.766 73.916 78.876 85.286 91.676 98.366 106.856
1051.293 114.306 120.656 127.356 132.706 135.326 136.376 136.166 134.656 133.556 133.766
1070.583 135.756 139.386 145.026 150.086 154.036 157.016 158.286 157.156 155.616 153.056
1089.873 150.306 149.296 148.556 150.426 153.566 154.576 154.466 153.796 150.816 147.806
1109.163 146.406 146.446 148.956 154.346 166.056 183.066 203.506 227.276 254.596 280.166
1128.452 298.316 308.796 306.656 293.916 275.306 250.496 226.726 208.806 196.896 190.776
1147.742 188.886 191.496 198.496 208.866 221.486 237.916 257.466 279.396 304.166 331.546
1167.032 359.706 388.736 419.946 452.306 485.616 514.346 537.966 557.806 569.536 573.556
1186.322 567.986 558.576 546.326 531.356 519.806 511.616 507.466 510.846 521.946 541.426
1205.611 567.926 600.236 636.296 678.376 727.796 775.016 810.016 841.696 865.216 876.846
1224.901 884.466 898.766 921.706 947.436 969.676 985.786 992.316 979.796 943.646 891.016
1244.191 823.226 736.686 641.406 558.386 491.136 441.866 409.886 388.086 373.126 363.046
1263.481 356.696 352.786 348.396 343.076 337.836 333.366 328.406 322.616 316.056 308.396
1282.771 300.306 291.306 280.416 269.536 258.476 246.426 234.736 223.696 213.486 204.446
1302.060 196.666 190.156 184.636 180.046 176.626 174.196 172.586 171.776 171.836 172.586
1321.350 174.006 175.776 177.636 179.496 180.776 181.046 180.116 178.266 174.846 170.046
1340.640 164.066 157.036 149.226 140.226 130.036 119.176 108.456 97.906 87.986 79.496
1359.930 72.286 66.226 61.136 56.806 53.296 50.566 48.266 46.326 44.796 43.216
1379.219 41.806 40.816 39.956 39.166 38.536 38.176 37.886 37.546 37.686 38.066
1398.509 38.336 38.846 39.496 40.106 40.776 41.436 42.126 43.216 44.556 45.746
1417.799 47.036 48.706 50.476 52.296 54.106 56.046 58.096 59.876 61.106 61.736
1437.089 61.876 61.596 60.636 59.046 56.876 54.446 51.806 49.366 46.876 44.166
1456.378 41.596 39.346 37.386 35.506 33.876 32.506 31.286 30.006 29.066 28.196
1475.668 27.416 26.826 26.106 25.606 25.296 24.956 24.736 24.376 23.996 23.866
1494.958 23.926 23.756 23.516 23.486 23.496 23.956 24.096 23.926 24.296 24.606
1514.248 24.566 24.806 25.176 25.466 25.726 25.746 26.236 26.626 26.606 26.756
1533.538 26.936 27.146 27.266 27.266 27.476 27.686 27.476 27.526 27.716 27.946
1552.827 28.326 28.786 29.976 30.946 31.716 32.656 33.786 35.286 37.156 38.976
1572.117 40.556 42.536 45.026 47.726 50.616 53.716 57.156 61.856 66.486 71.536
1591.407 77.616 83.996 90.946 98.536 106.906 116.566 126.776 137.926 149.846 162.316
1610.697 174.866 186.286 195.866 204.516 210.576 212.596 210.696 205.746 198.156 188.206
1629.986 176.976 164.556 151.886 138.636 125.846 114.656 104.056 95.096 87.716 81.286
1649.276 76.146 72.506 69.276 66.946 65.936 65.536 66.156 67.746 69.976 72.926
1668.566 76.526 81.226 86.346 91.166 95.926 100.276 103.666 106.036 107.116 106.036
1687.856 103.656 100.186 95.246 89.716 82.956 75.966 69.686 62.446 56.286 50.586
1707.146 45.746 41.296 37.436 34.146 31.346 29.126 27.026 25.356 24.066 22.836
1726.435 21.826 20.896 20.206 19.856 19.476 19.166 19.016 18.966 19.306 19.816
1745.725 20.526 21.596 22.686 24.226 26.486 28.736 30.946 32.876 34.276 34.826
1765.015 34.536 33.496 32.106 30.906 30.056 30.066 30.906 32.116 33.636 35.206
1784.305 36.046 36.146 35.116 32.726 29.866 26.546 23.096 20.226 17.726 15.536
1803.594 13.936 12.686 11.706 10.996 10.346 9.606 9.036 8.746 8.436 8.186
1822.884 8.146 7.906 7.606 7.466 7.306 7.146 7.036 6.926 7.006 6.986
1842.174 6.966 7.016 6.966 6.906 6.756 6.856 6.736 6.536 6.546 6.446
1861.464 6.346 6.306 6.356 6.326 6.136 5.996 5.866 5.706 5.666 5.596
1880.754 5.526 5.466 5.326 5.216 5.086 4.936 4.886 4.826 4.776 4.696
1900.043 4.506 4.416 4.436 4.396 4.386 4.506 4.516 4.346 4.326 4.276
1919.333 4.186 4.146 4.176 4.226 4.036 3.946 4.016 3.886 3.776 3.876
1938.623 4.006 4.056 4.056 4.176 4.166 4.076 4.186 4.316 4.506 4.496
1957.913 4.366 4.406 4.456 4.666 4.706 4.776 4.906 4.956 5.076 4.956
1977.202 4.816 4.836 4.796 4.706 4.646 4.596 4.536 4.366 4.316 4.306
1996.492 4.296 4.316 4.316 4.326 4.046 3.936 4.026 3.856 3.796 3.766
2015.782 3.566 3.536 3.726 3.766 3.726 3.606 3.346 3.326 3.466 3.436
2035.072 3.256 3.216 3.286 3.176 3.066 3.016 3.106 3.186 3.036 2.976
2054.362 2.986 2.986 2.986 3.076 3.276 3.356 3.326 3.246 3.176 3.106
2073.651 3.106 3.206 3.356 3.196 3.186 3.376 3.176 3.056 3.066 3.076
2092.941 3.236 3.166 2.946 2.936 3.076 3.096 3.146 3.276 3.176 3.186
2112.231 3.286 3.316 3.326 3.276 3.226 3.246 3.286 3.156 3.206 3.336
2131.521 3.356 3.226 3.096 3.306 3.366 3.136 3.126 3.076 2.896 3.036
2150.810 3.146 3.076 3.246 3.356 3.176 3.036 3.096 3.146 3.096 3.176
2170.100 3.246 3.166 3.156 3.256 3.186 3.026 3.106 3.266 3.386 3.346
2189.390 3.066 3.046 3.386 3.366 3.196 3.256 3.316 3.386 3.306 3.226
2208.680 3.386 3.446 3.506 3.476 3.346 3.346 3.366 3.546 3.646 3.566
2227.970 3.536 3.616 3.546 3.516 3.576 3.516 3.696 3.656 3.366 3.416
2247.259 3.506 3.526 3.656 3.786 3.876 3.966 3.936 3.966 4.136 4.146
2266.549 3.866 3.986 4.196 4.056 4.056 4.286 4.556 4.556 4.626 4.866
2285.839 4.816 4.736 4.766 4.826 4.836 5.056 5.226 5.176 5.236 5.296
2305.129 5.236 5.116 5.026 5.126 5.316 5.436 5.506 5.406 5.446 5.846
2324.418 6.086 5.936 5.946 5.906 5.856 5.816 5.746 5.846 5.986 5.866
2343.708 5.836 5.966 5.946 5.916 5.966 6.156 6.186 6.386 6.466 6.456
2362.998 6.686 6.616 6.686 6.886 6.706 6.616 6.766 6.936 7.076 7.056
2382.288 7.016 7.066 6.956 6.906 7.286 7.286 6.926 7.066 7.356 7.286
2401.578 7.146 7.016 6.966 6.996 7.016 6.976 6.936 6.986 7.086 6.906
2420.867 6.736 6.696 6.586 6.696 6.746 6.756 6.986 6.986 6.436 6.346
2440.157 6.576 6.516 6.536 6.516 6.556 6.716 6.666 6.626 6.886 6.746
2459.447 6.286 6.576 6.886 6.646 6.376 6.436 6.666 6.676 6.666 6.596
2478.737 6.376 6.266 6.386 6.476 6.156 6.016 6.116 6.206 6.226 6.056
2498.026 5.996 6.026 5.956 5.996 6.106 6.126 6.326 6.446 6.416 6.436
2517.316 6.556 6.716 6.626 6.506 6.566 6.746 6.766 6.596 6.636 6.686
2536.606 6.726 6.896 6.776 6.706 6.666 6.446 6.436 6.436 6.416 6.386
2555.896 6.356 6.486 6.596 6.456 6.366 6.476 6.336 6.436 6.496 6.046
2575.186 5.916 6.186 5.926 5.616 5.616 5.556 5.476 5.336 5.416 5.316
2594.475 5.276 5.216 5.096 5.036 4.906 5.046 5.136 4.946 4.966 5.006
2613.765 4.996 4.986 4.946 5.076 4.976 5.106 5.116 5.026 5.306 5.166
2633.055 4.916 4.936 4.916 4.936 4.776 4.796 4.886 5.106 5.196 5.036
2652.345 5.156 5.216 5.236 5.266 5.326 5.466 5.466 5.216 5.286 5.556
2671.634 5.486 5.496 5.526 5.406 5.446 5.646 5.756 5.736 5.696 5.596
2690.924 5.776 6.026 6.006 5.946 5.916 5.976 6.006 5.956 5.976 6.126
2710.214 6.166 5.986 5.796 6.146 6.346 6.026 5.756 5.676 5.766 5.926
2729.504 6.036 5.866 5.916 6.136 6.246 6.186 6.006 5.946 5.936 6.036
2748.794 6.056 6.156 6.286 6.116 6.116 6.076 6.006 6.356 6.406 5.956
2768.083 5.826 5.946 5.976 6.176 6.376 6.236 6.106 6.196 6.116 5.996
2787.373 6.216 6.606 6.726 6.606 6.596 6.866 6.786 6.756 6.836 6.936
2806.663 6.956 6.526 6.336 6.386 6.546 6.486 6.616 6.946 6.966 6.786
2825.953 6.566 6.706 7.096 7.246 7.146 7.076 7.076 7.056 7.226 7.196
2845.242 7.206 7.556 7.776 7.776 7.526 7.536 7.966 8.186 7.866 7.696
2864.532 7.586 7.516 7.786 8.066 7.946 7.596 7.516 7.766 7.896 7.786
2883.822 7.796 7.836 7.686 7.636 7.736 7.656 7.796 7.706 7.586 7.646
2903.112 7.416 7.646 7.676 7.436 7.666 7.486 7.216 7.296 7.196 7.346
2922.401 7.896 7.606 7.416 7.886 7.916 7.906 7.926 7.786 7.746 8.126
2941.691 8.556 8.366 7.786 7.676 8.126 8.216 7.966 7.926 7.806 7.826
2960.981 8.036 8.116 8.306 8.316 8.466 8.786 8.376 7.876 7.726 8.156
2980.271 8.406 8.146 8.326 8.676 8.916 8.646 8.476 8.296 8.226 8.676
2999.561 8.376 8.036 8.456 8.476 8.336 8.246 8.006 8.056 8.256 8.476
3018.850 8.606 8.626 8.396 8.386 8.446 8.786 8.786 8.256 7.716 7.706
3038.140 8.186 8.226 8.236 8.186 8.266 8.396 8.176 8.276 8.206 7.976
3057.430 8.436 8.506 8.216 8.316 8.376 8.436 8.526 8.136 8.046 8.176
3076.720 8.256 8.686 8.906 8.896 8.576 8.646 8.836 8.796 8.926 8.916
3096.009 9.156 9.486 9.606 9.406 9.426 9.556 9.626 10.126 10.046 10.256
3115.299 11.006 11.376 11.766 12.056 12.346 12.646 13.286 14.376 14.836 14.886
3134.589 15.026 15.166 15.056 14.486 13.596 12.756 12.426 12.116 11.596 10.706
3153.879 10.226 10.136 9.836 9.936 10.106 9.756 9.436 9.236 8.986 8.976
3173.169 8.806 8.436 8.426 8.736 8.756 8.646 8.626 8.526 8.796 8.866
3192.458 8.406 8.146 8.596 8.716 8.346 8.226 8.326 8.626 8.376 7.876
3211.748 7.836 8.076 8.056 7.956 8.116 8.126 7.736 7.956 8.496 8.126
3231.038 7.976 8.306 7.886 7.756 8.096 8.096 8.146 8.026 8.156 8.476
3250.328 8.326 8.246 8.076 8.066 8.006 7.956 8.046 7.566 7.296 7.696
3269.617 8.046 7.846 7.856 7.876 7.476 7.426 7.496 7.556 7.206 7.046
3288.907 7.216 6.986 7.216 7.596 7.756 7.596 7.506 7.596 7.336 7.126
3308.197 7.136 7.346 7.256 6.866 6.936 7.056 6.906 6.716 6.546 6.756
3327.487 7.266 6.956 6.626 6.986 6.776 6.646 6.786 6.516 6.346 6.606
3346.777 6.956 6.956 6.906 6.596 6.406 6.616 6.596 6.136 5.876 5.786
3366.066 6.006 6.206 5.966 5.856 5.626 5.386 5.576 5.506 5.106 5.086
3385.356 4.996 5.026 5.476 5.366 5.086 4.716 4.366 4.366 4.696 5.006
3404.646 4.586 4.346 4.526 4.346 4.276 4.286 4.126 4.376 4.476 4.126
3423.936 3.516 3.666 3.876 3.396 3.146 3.446 3.846 3.686 3.526 3.576
3443.225 3.206 3.116 3.176 3.386 3.796 3.406 3.226 3.506 3.176 2.626
3462.515 2.796 3.146 3.176 3.056 2.736 2.256 2.136 2.666 2.986 2.826
3481.805 2.706 2.556 2.636 2.726 2.806 2.676 2.446 2.476 2.346 2.376
3501.095 2.686 2.906 2.946 2.656 2.726 2.496 2.326 2.706 2.486 2.916
3520.385 3.146 2.706 2.756 2.646 2.516 2.666 2.606 2.536 2.686 2.486
3539.674 2.676 2.896 2.376 1.9298 1.8016 1.7316 1.5838 1.6196 1.7102 1.6329
3558.964 1.707 2.016 2.316 2.146 1.913 1.6603 1.4385 1.7266 1.7488 1.976
3578.254 2.026 1.7683 1.8352 1.7683 1.7503 1.6684 1.298 1.0909 1.4295 1.4182
3597.544 0.99624 1.4924 1.7363 1.328 1.05066 0.758 1.01708 1.3576 1.6204 1.9464
3616.833 1.3991 1.081 1.4706 1.3099 1.1296 1.321 1.6132 1.5416 1.4303 1.5701
3636.123 1.2902 0.793 1.1215 1.4664 1.2848 1.01987 0.802 0.652 0.415 0.163
3655.413 0.325 0.581 0.725 0.667 1.1105 1.7512 1.1277 0.678 0.9431 1.1168
3674.703 1.2266 0.73 0.59 0.99389 0.8695 0.645 0.444 0.516 0.686 0.678
3693.993 0.9259 0.99172 0.785 1.04942 0.9359 0.567 0.764 0.59 0.8849 1.1808
3713.282 1.318 1.2283 0.8697 1.01663 0.703 0.401 0.59 0.8867 1.0992 0.975888
3732.572 0.639 0.548 0.8908 1.2406 1.3089 1.2977 1.0871 1.2564 1.0903 0.828
3751.862 1.1332 1.1275 0.953 1.00537 0.98985 1.2399 1.3689 1.1354 0.769 0.57
3771.152 0.9285 0.722 0.328 0.392 0.533 0.312 0.252 0.667 0.457 0.375
3790.441 0.572 0.389 0.54 0.814 0.8775 0.676 0.485 0.637 0.8 0.807
3809.731 0.326 0.404 0.8992 0.9123 1.1949 1.06459 0.601 0.419 0.413 0.753
3829.021 0.787 0.527 0.485 0.68 0.9132 0.731 0.759 0.616 0.562 0.816
3848.311 0.639 0.9189 1.01355 0.768 0.8788 0.8807 0.8 0.702 0.829 1.2836
3867.601 1.1802 1.065 0.9396 0.495 0.663 0.454 0 0.105 0.233 0.253
3886.890 0.783 1.3561 1.03614 0.348 0.419 0.8946 0.8955 0.708 0.489 1.1314
3906.180 1.7531 1.1576 0.749 0.703 0.487 0.503 0.9072 0.859 0.859 1.1724
3925.470 1.021 1.1636 1.1173 0.368 0.295 1.01238 1.0675 0.9201 0.778 0.504
3944.760 0.565 0.677 0.616 1.2659 1.8113 1.3545 1.1166 1.1743 0.743 0.479
3964.049 0.9345 1.03089 0.541 0.234 0.756 1.1257 1.228 1.1166 0.83 0.565
3983.339 0.695 0.9103 0.9228 0.838 0.194 0.319 0.762 1.1542 1.3338 0.636
##END=
