##TITLE=N-(.beta.-Hydroxyethyl)hexamethyleneimine
##JCAMP-DX=4.24
##DATA TYPE=INFRARED SPECTRUM
##ORIGIN=EPA-IR VAPOR PHASE LIBRARY
##OWNER=SRD/NIST
Collection (C) 2018 copyright by the U.S. Secretary of Commerce
on behalf of the United States of America. All rights reserved.
##CAS REGISTRY NO=20603-00-3
##MOLFORM=C 8 H 17 N O
##$NIST SOURCE=MSDC-IR
##STATE=gas
##XUNITS=1/CM
##YUNITS=ABSORBANCE
##XFACTOR=1.
##YFACTOR=0.001
##DELTAX=1.92934
##FIRSTX=549.9
##LASTX=3999.5
##FIRSTY=0.3927
##MAXX=3999.53
##MINX=549.863
##MAXY=0.012621
##MINY=0
##NPOINTS=1789
##XYDATA=(X++(Y..Y))
549.863 0.3927 0.3563 0.25876 0.3615 0.3354 0.4229 0.5803 0.4913 0.5397 0.5837
569.156 0.4591 0.4247 0.4319 0.4588 0.4726 0.4546 0.4314 0.4308 0.4328 0.4409
588.450 0.4876 0.4625 0.4377 0.3647 0.3559 0.4136 0.4321 0.4966 0.5249 0.4464
607.743 0.3956 0.369 0.3487 0.3991 0.4063 0.357 0.3776 0.3528 0.25498 0.2885
627.037 0.3371 0.3255 0.3142 0.2923 0.26962 0.3204 0.3855 0.4227 0.3848 0.3148
646.330 0.3336 0.3006 0.3056 0.3656 0.359 0.3413 0.3024 0.321 0.3772 0.3459
665.624 0.3711 0.403 0.3115 0.26062 0.26769 0.2905 0.3564 0.3955 0.3479 0.3536
684.917 0.4017 0.423 0.3898 0.3197 0.284 0.2936 0.3489 0.3803 0.3823 0.3878
704.210 0.4114 0.3664 0.3558 0.4066 0.4032 0.4192 0.4506 0.4299 0.485 0.4992
723.504 0.4525 0.4817 0.4436 0.3547 0.3963 0.4407 0.3784 0.3948 0.3989 0.365
742.797 0.4103 0.4531 0.3786 0.308 0.3515 0.4127 0.3768 0.322 0.3352 0.3573
762.091 0.331 0.3362 0.3631 0.3858 0.4463 0.4428 0.4458 0.4413 0.4123 0.4352
781.384 0.4463 0.4285 0.3992 0.3812 0.3717 0.4037 0.4318 0.4267 0.4517 0.426
800.678 0.3997 0.4408 0.4376 0.385 0.3898 0.3924 0.3802 0.4051 0.3464 0.3248
819.971 0.3775 0.3796 0.3782 0.4163 0.4272 0.4292 0.4502 0.4452 0.4568 0.4336
839.264 0.4483 0.5267 0.5521 0.5243 0.5325 0.5308 0.4902 0.5204 0.5401 0.5549
858.558 0.5754 0.6338 0.6632 0.6694 0.7108 0.7115 0.6439 0.6342 0.7298 0.7575
877.851 0.7189 0.7118 0.7422 0.7631 0.7672 0.8217 0.8632 0.8337 0.8537 0.8811
897.145 0.8989 0.9162 0.9051 0.8858 0.8821 0.8579 0.8008 0.7876 0.7734 0.7781
916.438 0.7918 0.7414 0.7035 0.6804 0.676 0.6866 0.6721 0.6401 0.618 0.6654
935.732 0.6948 0.6891 0.6909 0.6761 0.6697 0.6534 0.6788 0.6974 0.7111 0.7558
955.025 0.7937 0.8124 0.807 0.8654 0.9187 0.8592 0.8649 0.8972 0.8537 0.867
974.318 0.8829 0.842 0.7944 0.8027 0.8238 0.8483 0.834 0.8051 0.8386 0.8848
993.612 0.9083 0.9611 1.0259 1.0764 1.1646 1.201 1.231 1.321 1.411 1.471
1012.905 1.501 1.561 1.611 1.651 1.711 1.711 1.761 1.861 1.911 1.961
1032.199 2.031 2.111 2.121 2.121 2.171 2.181 2.221 2.241 2.271 2.301
1051.492 2.341 2.411 2.451 2.551 2.641 2.671 2.731 2.741 2.641 2.571
1070.786 2.471 2.341 2.251 2.151 2.091 2.051 1.951 1.931 1.891 1.821
1090.079 1.791 1.761 1.701 1.621 1.591 1.571 1.521 1.461 1.371 1.251
1109.372 1.251 1.311 1.331 1.291 1.251 1.291 1.391 1.461 1.501 1.571
1128.666 1.681 1.801 1.761 1.711 1.751 1.731 1.681 1.611 1.491 1.401
1147.959 1.281 1.231 1.211 1.1698 1.1141 1.0997 1.1759 1.1334 1.0178 1.0489
1167.253 1.1398 1.191 1.1091 1.1278 1.1595 1.0522 1.0298 1.054 1.0807 1.1124
1186.546 1.1571 1.191 1.201 1.1411 1.0721 1.1206 1.231 1.291 1.321 1.481
1205.840 1.391 1.331 1.541 1.411 1.361 1.351 1.251 1.281 1.371 1.401
1225.133 1.371 1.391 1.321 1.201 1.1588 1.211 1.321 1.311 1.1789 1.1327
1244.426 1.1123 1.0204 1.0705 1.0723 1.0918 0.99 0.8615 0.9511 0.9334 0.9291
1263.720 0.8545 0.831 0.9823 0.9945 0.9769 0.9704 0.9354 0.9518 1.0248 1.1145
1283.013 1.1044 1.0291 0.9858 1.022 1.0698 1.068 1.1045 1.0844 1.0756 1.1272
1302.307 1.1325 1.1147 1.1057 1.1434 1.1243 1.1101 1.1439 1.1786 1.201 1.231
1321.600 1.251 1.231 1.241 1.271 1.281 1.261 1.271 1.311 1.361 1.421
1340.894 1.491 1.541 1.591 1.631 1.701 1.731 1.771 1.811 1.791 1.761
1360.187 1.721 1.671 1.611 1.561 1.531 1.441 1.371 1.341 1.291 1.291
1379.480 1.251 1.221 1.271 1.291 1.291 1.341 1.361 1.381 1.431 1.411
1398.774 1.371 1.351 1.351 1.351 1.281 1.221 1.1704 1.1239 1.1 1.046
1418.067 0.9629 0.9258 0.9032 0.8715 0.8662 0.8779 0.8967 0.9315 0.9962 1.045
1437.361 1.0836 1.1211 1.181 1.301 1.401 1.461 1.491 1.521 1.581 1.571
1456.654 1.571 1.591 1.581 1.551 1.551 1.471 1.351 1.281 1.191 1.1443
1475.948 1.0825 1.0233 0.968 0.8611 0.7863 0.7342 0.668 0.624 0.5799 0.5652
1495.241 0.5337 0.5255 0.5146 0.4759 0.4746 0.425 0.3968 0.3995 0.4158 0.424
1514.534 0.3713 0.3436 0.3597 0.3595 0.3637 0.3835 0.3716 0.3272 0.3004 0.3112
1533.828 0.337 0.3488 0.3137 0.3001 0.3489 0.3571 0.3207 0.2958 0.27467 0.3038
1553.121 0.3067 0.2984 0.3251 0.292 0.27388 0.2971 0.3059 0.3038 0.2852 0.2853
1572.415 0.286 0.2871 0.27054 0.27831 0.3395 0.3208 0.2722 0.26036 0.2849 0.2882
1591.708 0.2991 0.3037 0.26379 0.2852 0.3071 0.285 0.27319 0.26016 0.25213 0.2801
1611.002 0.3098 0.2837 0.24643 0.2582 0.3189 0.3083 0.26259 0.25779 0.27523 0.2863
1630.295 0.2983 0.3226 0.318 0.3105 0.28052 0.2819 0.2836 0.26912 0.25675 0.25179
1649.588 0.26444 0.25627 0.3024 0.3352 0.3072 0.3145 0.3222 0.3172 0.3057 0.304
1668.882 0.2906 0.27856 0.304 0.27429 0.25181 0.27657 0.3081 0.2877 0.23559 0.2818
1688.175 0.3247 0.2961 0.27151 0.3011 0.302 0.26534 0.27083 0.2836 0.25213 0.27596
1707.469 0.3122 0.2577 0.27082 0.3141 0.3054 0.2873 0.27233 0.26519 0.26465 0.297
1726.762 0.3166 0.3014 0.2827 0.27021 0.2839 0.335 0.3427 0.311 0.3083 0.3326
1746.056 0.3096 0.2931 0.2909 0.2827 0.2841 0.26538 0.27512 0.26545 0.25062 0.273
1765.349 0.2815 0.26173 0.25144 0.25352 0.25451 0.25363 0.27403 0.26026 0.25759 0.27962
1784.642 0.2853 0.27673 0.294 0.3148 0.27617 0.27017 0.2987 0.2845 0.27837 0.2835
1803.936 0.2794 0.27928 0.26233 0.27518 0.3041 0.319 0.2898 0.24318 0.24244 0.24377
1823.229 0.25394 0.26577 0.26932 0.26494 0.26012 0.26533 0.24688 0.22201 0.23659 0.25678
1842.523 0.26302 0.27405 0.26894 0.25721 0.2975 0.3171 0.27002 0.23731 0.25048 0.27514
1861.816 0.27055 0.2825 0.3111 0.2983 0.27108 0.24832 0.23963 0.25037 0.27988 0.2839
1881.110 0.24563 0.24278 0.22826 0.22416 0.27236 0.2856 0.27322 0.25521 0.24473 0.25753
1900.403 0.27155 0.27663 0.2518 0.23004 0.26518 0.26207 0.2266 0.2497 0.23555 0.20802
1919.696 0.24895 0.2958 0.2788 0.25476 0.24593 0.23158 0.24179 0.26165 0.26963 0.24566
1938.990 0.22395 0.23274 0.26783 0.2682 0.23658 0.23767 0.25686 0.25787 0.24632 0.26942
1958.283 0.26047 0.24412 0.2823 0.26457 0.24844 0.26413 0.25533 0.27055 0.26737 0.24979
1977.577 0.24277 0.22815 0.23347 0.23385 0.21373 0.22593 0.23865 0.249 0.25316 0.24054
1996.870 0.26503 0.26387 0.24621 0.2413 0.22105 0.22606 0.25288 0.23184 0.21847 0.24764
2016.164 0.2515 0.22561 0.1976 0.19812 0.21674 0.25398 0.24209 0.23081 0.25405 0.23172
2035.457 0.22971 0.24046 0.26031 0.26897 0.24768 0.25017 0.20776 0.20028 0.22854 0.22053
2054.750 0.21946 0.23382 0.24264 0.25481 0.26566 0.2504 0.26549 0.27317 0.2353 0.23029
2074.044 0.23325 0.19569 0.1582 0.1571 0.19136 0.19047 0.22596 0.22926 0.19507 0.20795
2093.337 0.19989 0.20361 0.20901 0.19326 0.19603 0.188568 0.19593 0.22752 0.24127 0.27498
2112.631 0.25648 0.22814 0.22582 0.22172 0.22413 0.21674 0.24354 0.2619 0.24464 0.25958
2131.924 0.26868 0.25391 0.23022 0.21289 0.23789 0.23968 0.20958 0.19367 0.20054 0.22765
2151.218 0.25179 0.24264 0.21204 0.20352 0.19898 0.21367 0.25409 0.24003 0.20999 0.20551
2170.511 0.22807 0.22921 0.20074 0.19425 0.20654 0.22326 0.2194 0.227 0.23437 0.23427
2189.804 0.24167 0.23099 0.2198 0.22125 0.190434 0.17771 0.23039 0.24277 0.23088 0.21846
2209.098 0.19787 0.21345 0.21745 0.22546 0.2181 0.20988 0.20369 0.20412 0.2268 0.21254
2228.391 0.188619 0.19112 0.190811 0.182096 0.19808 0.20639 0.21837 0.22157 0.2069 0.20182
2247.685 0.20844 0.21979 0.22605 0.20304 0.17659 0.17851 0.1644 0.1607 0.17376 0.1695
2266.978 0.17949 0.19348 0.18451 0.20151 0.19406 0.17542 0.186887 0.20377 0.19496 0.189472
2286.272 0.21935 0.22005 0.21198 0.21729 0.21506 0.20726 0.23037 0.24968 0.2334 0.22115
2305.565 0.22288 0.23089 0.23768 0.23882 0.24971 0.24096 0.21954 0.23167 0.23616 0.23172
2324.858 0.25118 0.23469 0.19585 0.22348 0.26635 0.25731 0.23754 0.22065 0.22533 0.23012
2344.152 0.21017 0.19975 0.20832 0.22479 0.22083 0.21646 0.20424 0.23124 0.25916 0.23317
2363.445 0.23702 0.25913 0.22734 0.21607 0.24488 0.25237 0.23198 0.20153 0.20555 0.19656
2382.739 0.1944 0.21803 0.21006 0.17589 0.19332 0.209 0.182717 0.17203 0.19761 0.21267
2402.032 0.2231 0.23474 0.21422 0.20189 0.21373 0.22269 0.20387 0.19243 0.20962 0.189496
2421.326 0.1384 0.159 0.1934 0.149 0.1658 0.214 0.21104 0.21796 0.20123 0.20432
2440.619 0.22335 0.20296 0.189629 0.23905 0.24716 0.19733 0.22047 0.2227 0.21036 0.21708
2459.912 0.19625 0.20746 0.23713 0.22288 0.19563 0.186092 0.20254 0.19324 0.1421 0.1442
2479.206 0.1605 0.187181 0.22541 0.21817 0.21585 0.21797 0.19602 0.20788 0.23013 0.182598
2498.499 0.1605 0.1594 0.161 0.17782 0.17867 0.1824 0.183857 0.17715 0.17352 0.20494
2517.793 0.24773 0.23602 0.20478 0.2069 0.21396 0.21471 0.23387 0.24704 0.180326 0.1622
2537.086 0.190145 0.19873 0.21497 0.18423 0.1562 0.1705 0.2161 0.22349 0.22369 0.22267
2556.380 0.20977 0.24651 0.26335 0.23017 0.23715 0.26021 0.23958 0.22238 0.23685 0.23488
2575.673 0.20615 0.184561 0.17375 0.1931 0.19834 0.2298 0.25885 0.24976 0.2181 0.25191
2594.966 0.26358 0.21678 0.22432 0.25853 0.2915 0.26959 0.22721 0.23928 0.23405 0.26368
2614.260 0.3353 0.3316 0.2888 0.2839 0.3202 0.3001 0.2965 0.3422 0.3281 0.304
2633.553 0.3071 0.2979 0.3308 0.3579 0.3549 0.4008 0.4132 0.4233 0.428 0.3734
2652.847 0.364 0.4071 0.4449 0.4897 0.5051 0.5033 0.5304 0.5214 0.5361 0.5724
2672.140 0.5686 0.5447 0.5354 0.5813 0.6224 0.5798 0.5748 0.6093 0.643 0.7049
2691.434 0.6989 0.659 0.6642 0.6967 0.7337 0.7621 0.7575 0.7181 0.7382 0.7705
2710.727 0.7848 0.8096 0.8102 0.7708 0.77 0.782 0.777 0.8502 0.8311 0.7631
2730.020 0.8299 0.8683 0.8488 0.8973 0.9399 0.9826 1.0292 1.0442 1.0381 1.0636
2749.314 1.1217 1.1586 1.1756 1.1553 1.1741 1.241 1.281 1.361 1.391 1.391
2768.607 1.441 1.481 1.501 1.541 1.581 1.601 1.641 1.711 1.801 1.841
2787.901 1.871 1.921 2.051 2.231 2.391 2.531 2.631 2.721 2.781 2.901
2807.194 3.081 3.211 3.271 3.301 3.301 3.331 3.311 3.281 3.341 3.341
2826.488 3.201 3.091 3.031 2.961 2.851 2.811 2.751 2.701 2.691 2.681
2845.781 2.731 2.761 2.821 2.921 3.061 3.291 3.451 3.591 3.781 3.951
2865.074 4.001 4.041 4.111 4.081 4.061 4.031 3.921 3.821 3.721 3.611
2884.368 3.561 3.521 3.451 3.441 3.491 3.491 3.521 3.571 3.741 3.991
2903.661 4.141 4.341 4.711 5.081 5.501 5.961 6.481 7.151 7.931 8.721
2922.955 9.571 10.391 11.071 11.721 12.281 12.571 12.621 12.511 12.211 11.631
2942.248 10.861 10.091 9.341 8.501 7.631 6.911 6.321 5.711 5.111 4.601
2961.542 4.051 3.591 3.181 2.811 2.501 2.211 1.961 1.691 1.511 1.401
2980.835 1.1549 1.0544 1.0667 0.9327 0.8283 0.7777 0.759 0.622 0.4772 0.5191
3000.128 0.5757 0.5843 0.579 0.4774 0.3451 0.3333 0.3515 0.26359 0.21599 0.25265
3019.422 0.19948 0.1596 0.22984 0.2835 0.25232 0.24708 0.2453 0.189644 0.198 0.28044
3038.715 0.27621 0.187345 0.2348 0.27077 0.24758 0.27728 0.2852 0.2949 0.2997 0.2878
3058.009 0.20412 0.1582 0.17281 0.187964 0.27375 0.24399 0.21652 0.24631 0.21958 0.23622
3077.302 0.22402 0.1555 0.1033 0.1272 0.18183 0.1232 0.1392 0.21697 0.2107 0.20826
3096.596 0.21143 0.190312 0.1201 0.1708 0.1339 0.1446 0.19584 0.044 0.047 0.1244
3115.889 0.180656 0.1363 0.124 0.1404 0.1389 0.188909 0.21628 0.23632 0.25864 0.3097
3135.182 0.21693 0.1282 0.189168 0.20846 0.137 0.1572 0.26087 0.284 0.2834 0.19125
3154.476 0.182478 0.20361 0.0942 0.1137 0.13 0.1505 0.24489 0.20313 0.19692 0.27652
3173.769 0.3635 0.27187 0.23511 0.2956 0.21974 0.2546 0.3144 0.3227 0.3976 0.3728
3193.063 0.21593 0.1445 0.1565 0.1411 0.015 0 0.1675 0.23246 0.19936 0.22127
3212.356 0.2184 0.22272 0.3024 0.27931 0.23222 0.23082 0.1623 0.19528 0.2907 0.3371
3231.650 0.303 0.318 0.3414 0.3083 0.21673 0.1208 0.19189 0.22043 0.17442 0.19919
3250.943 0.25211 0.27395 0.24105 0.19358 0.187498 0.21155 0.22336 0.1573 0.1285 0.22358
3270.236 0.2938 0.3603 0.2821 0.2053 0.23164 0.2162 0.189434 0.1506 0.20362 0.25313
3289.530 0.2914 0.3382 0.311 0.3122 0.27164 0.19739 0.21959 0.25035 0.184933 0.21674
3308.823 0.3512 0.28024 0.20532 0.22958 0.3174 0.383 0.2987 0.26942 0.3578 0.409
3328.117 0.3504 0.2932 0.3426 0.3888 0.3941 0.3158 0.26021 0.26985 0.2965 0.3553
3347.410 0.3531 0.3464 0.4186 0.4135 0.3817 0.39 0.408 0.5092 0.5 0.3992
3366.704 0.357 0.3182 0.24786 0.22362 0.27134 0.24835 0.307 0.3477 0.3082 0.332
3385.997 0.4306 0.4545 0.2836 0.24121 0.25513 0.26157 0.3778 0.4314 0.3114 0.2564
3405.290 0.3285 0.3916 0.3968 0.369 0.3632 0.3755 0.3906 0.4397 0.4196 0.2961
3424.584 0.27981 0.26115 0.2647 0.3133 0.3217 0.3385 0.3158 0.2983 0.3905 0.4471
3443.877 0.477 0.4633 0.4121 0.4123 0.3885 0.3924 0.3482 0.322 0.27168 0.3185
3463.171 0.3705 0.3332 0.3752 0.3709 0.3343 0.3843 0.4362 0.4469 0.4165 0.3358
3482.464 0.3736 0.4482 0.4329 0.3714 0.4098 0.4837 0.4126 0.3816 0.4147 0.3638
3501.758 0.3796 0.4251 0.4273 0.4124 0.4245 0.5258 0.5274 0.4891 0.5607 0.6349
3521.051 0.6714 0.6593 0.6912 0.6983 0.6283 0.7369 0.8317 0.8 0.7826 0.8276
3540.344 0.819 0.7091 0.5819 0.5314 0.5654 0.5258 0.4745 0.5103 0.5417 0.4941
3559.638 0.5518 0.5587 0.5105 0.4411 0.4073 0.546 0.5177 0.4482 0.4256 0.3447
3578.931 0.3456 0.3943 0.4242 0.3984 0.3839 0.4416 0.3992 0.3859 0.337 0.3048
3598.225 0.3446 0.3934 0.403 0.3545 0.318 0.3102 0.3772 0.3965 0.39 0.3765
3617.518 0.3472 0.3764 0.4201 0.3324 0.26797 0.3352 0.3759 0.25227 0.22211 0.3509
3636.812 0.3924 0.2887 0.17944 0.23469 0.3407 0.362 0.3701 0.3972 0.4497 0.4258
3656.105 0.3932 0.5302 0.5651 0.4572 0.4498 0.4481 0.4602 0.4906 0.5268 0.5119
3675.398 0.4707 0.4591 0.4092 0.45 0.4644 0.4154 0.3997 0.3028 0.25347 0.3003
3694.692 0.3055 0.24381 0.2327 0.3063 0.3165 0.2978 0.25514 0.2961 0.3614 0.3084
3713.985 0.21812 0.20449 0.19295 0.186364 0.26824 0.26534 0.20994 0.2835 0.2818 0.2492
3733.279 0.24098 0.1455 0.1594 0.2299 0.26991 0.26673 0.27756 0.24529 0.1682 0.25961
3752.572 0.2882 0.22273 0.22909 0.17424 0.1318 0.1247 0.20906 0.296 0.2889 0.2868
3771.866 0.3009 0.3079 0.25617 0.26041 0.26538 0.17655 0.1703 0.21003 0.22566 0.23908
3791.159 0.23439 0.2111 0.21009 0.19983 0.1696 0.17245 0.1696 0.1687 0.1428 0.181247
3810.452 0.27795 0.27129 0.2883 0.27972 0.25487 0.26385 0.22892 0.19485 0.28059 0.3435
3829.746 0.2876 0.26155 0.21631 0.1708 0.21315 0.26095 0.25702 0.21315 0.190943 0.19705
3849.039 0.21925 0.20489 0.23467 0.25854 0.22915 0.2998 0.26166 0.164 0.1445 0.19752
3868.333 0.25077 0.20177 0.1702 0.20477 0.20654 0.21589 0.2445 0.2531 0.24519 0.27918
3887.626 0.22362 0.1293 0.08 0.1111 0.1479 0.1455 0.21959 0.24403 0.1721 0.1707
3906.920 0.27131 0.24723 0.17393 0.1488 0.137 0.1453 0.19679 0.24384 0.1528 0.1431
3926.213 0.26091 0.3309 0.3084 0.22961 0.22452 0.22172 0.245 0.23476 0.20609 0.20367
3945.506 0.21437 0.24353 0.1612 0.1012 0.1409 0.22369 0.19662 0.186096 0.17926 0.0957
3964.800 0.1414 0.1386 0.1683 0.19601 0.1446 0.20654 0.2819 0.26602 0.20346 0.19593
3984.093 0.24177 0.21978 0.23159 0.2343 0.1304 0.1355 0.182463 0.093 0.058
##END=
