##TITLE=1-(3-Chlorophenyl)-3-methyl-5-pyrazolone
##JCAMP-DX=4.24
##DATA TYPE=INFRARED SPECTRUM
##ORIGIN=EPA-IR VAPOR PHASE LIBRARY
##OWNER=SRD/NIST
Collection (C) 2018 copyright by the U.S. Secretary of Commerce
on behalf of the United States of America. All rights reserved.
##CAS REGISTRY NO=20629-90-7
##MOLFORM=C 10 H 9 Cl N 2 O
##$NIST SOURCE=MSDC-IR
##STATE=gas
##XUNITS=1/CM
##YUNITS=ABSORBANCE
##XFACTOR=1.
##YFACTOR=0.001
##DELTAX=1.92934
##FIRSTX=549.9
##LASTX=3999.5
##FIRSTY=1.3945
##MAXX=3999.53
##MINX=549.863
##MAXY=0.033335
##MINY=0
##NPOINTS=1789
##XYDATA=(X++(Y..Y))
549.863 1.3945 1.5325 1.725 1.945 2.035 2.175 2.215 2.115 2.105 1.975
569.156 1.805 1.735 1.765 1.715 1.705 1.825 1.775 1.735 1.685 1.725
588.450 1.765 1.6691 1.6682 1.6688 1.5851 1.453 1.3077 1.1819 1.0897 0.9612
607.743 0.8912 0.846 0.7773 0.70639 0.634 0.6548 0.6604 0.6186 0.6534 0.6527
627.037 0.6404 0.6448 0.6141 0.6286 0.6535 0.675307 0.68915 0.70742 0.75985 0.7934
646.330 0.8302 0.8747 0.9211 0.9425 0.9659 1.0369 1.0496 1.0954 1.1814 1.2516
665.624 1.3299 1.4979 1.785 2.055 2.315 2.665 3.035 3.305 3.185 2.795
684.917 2.535 2.305 2.025 1.685 1.4558 1.3061 1.1516 1.059 1.0245 1.0191
704.210 1.008 1.0258 1.0669 1.1829 1.3545 1.4896 1.745 2.245 2.935 3.745
723.504 4.565 5.265 5.795 6.215 6.515 6.635 6.595 6.435 6.145 5.765
742.797 5.295 4.595 3.635 2.785 2.285 2.025 1.945 1.915 1.945 2.105
762.091 2.405 2.885 3.455 4.105 4.785 5.415 6.115 6.795 6.775 5.945
781.384 5.025 4.325 3.645 2.985 2.405 1.955 1.705 1.5706 1.4523 1.4035
800.678 1.3755 1.3565 1.3442 1.3332 1.3346 1.2934 1.2009 1.0759 0.9996 0.9377
819.971 0.9011 0.8898 0.8157 0.7725 0.7723 0.73087 0.6465 0.6361 0.6564 0.6444
839.264 0.67961 0.71887 0.74837 0.75665 0.73892 0.73578 0.7785 0.8296 0.8876 0.9845
858.558 1.1156 1.303 1.5271 1.795 2.105 2.475 2.835 3.165 3.415 3.455
877.851 3.325 3.145 2.995 2.785 2.565 2.385 2.235 2.135 2.075 1.995
897.145 1.895 1.825 1.785 1.685 1.5397 1.4383 1.353 1.2384 1.1265 1.0259
916.438 0.9436 0.8832 0.8328 0.799 0.7854 0.7688 0.74602 0.74013 0.72605 0.75491
935.732 0.7867 0.7771 0.75523 0.75247 0.76367 0.71862 0.7063 0.75673 0.799 0.825
955.025 0.8454 0.8967 0.9572 1.0268 1.1258 1.2522 1.3973 1.582 1.835 2.055
974.318 2.215 2.315 2.355 2.395 2.365 2.295 2.245 2.325 2.485 2.725
993.612 3.015 3.155 3.145 3.115 2.955 2.645 2.235 1.855 1.6254 1.4917
1012.905 1.4198 1.3694 1.315 1.3143 1.3428 1.3751 1.4126 1.4085 1.3803 1.392
1032.199 1.4167 1.4056 1.3608 1.3436 1.3399 1.3138 1.3059 1.3248 1.335 1.3459
1051.492 1.3495 1.3485 1.4148 1.5171 1.6113 1.735 1.905 2.155 2.455 2.755
1070.786 3.105 3.545 4.065 4.645 5.225 5.765 6.295 6.785 7.125 7.305
1090.079 7.225 6.965 6.605 6.155 5.695 5.365 5.185 5.055 4.935 4.725
1109.372 4.425 4.085 3.705 3.225 2.775 2.475 2.285 2.155 1.955 1.765
1128.666 1.755 1.695 1.5841 1.4764 1.3381 1.2843 1.2913 1.3499 1.4222 1.5664
1147.959 1.715 1.885 2.265 2.665 2.985 3.385 3.835 4.225 4.595 4.955
1167.253 5.245 5.425 5.495 5.585 5.635 5.615 5.655 5.605 5.445 5.085
1186.546 4.605 4.035 3.235 2.575 2.185 1.735 1.3311 1.1726 0.9953 0.8441
1205.840 0.8001 0.9071 0.8267 0.5987 0.5997 0.6296 0.536 0.6084 0.8181 0.75452
1225.133 0.68366 0.68082 0.77256 0.8556 0.8288 0.8398 0.9296 1.0242 1.1214 1.2335
1244.426 1.3125 1.4306 1.5425 1.6598 1.775 1.875 2.015 2.165 2.295 2.415
1263.720 2.485 2.515 2.545 2.525 2.485 2.485 2.555 2.735 2.995 3.345
1283.013 3.745 4.165 4.555 4.915 5.235 5.625 6.155 6.845 7.765 8.925
1302.307 10.285 11.655 12.905 13.815 14.175 13.885 13.045 11.745 10.105 8.425
1321.600 6.935 5.725 4.825 4.225 3.845 3.615 3.515 3.565 3.785 4.225
1340.894 4.915 5.875 7.165 8.745 10.455 12.045 13.315 14.145 14.375 13.975
1360.187 12.975 11.505 9.885 8.345 6.895 5.605 4.625 3.905 3.455 3.275
1379.480 3.315 3.565 3.965 4.335 4.535 4.565 4.545 4.415 4.075 3.665
1398.774 3.355 3.195 3.075 2.935 2.775 2.595 2.475 2.395 2.365 2.415
1418.067 2.545 2.745 2.995 3.285 3.605 3.965 4.315 4.595 4.885 5.185
1437.361 5.365 5.415 5.355 5.235 5.145 5.065 5.035 5.145 5.375 5.635
1456.654 5.915 6.155 6.375 6.585 6.805 7.085 7.585 8.455 9.785 11.625
1475.948 13.895 16.265 18.195 19.315 19.475 18.555 16.615 13.945 11.045 8.535
1495.241 6.635 5.285 4.395 3.805 3.445 3.235 3.085 2.995 2.945 2.835
1514.534 2.655 2.495 2.365 2.245 2.105 1.975 1.895 1.825 1.805 1.735
1533.828 1.695 1.725 1.745 1.755 1.805 1.905 2.035 2.125 2.255 2.405
1553.121 2.565 2.705 2.845 3.025 3.255 3.555 3.915 4.325 4.805 5.385
1572.415 5.985 6.685 7.525 8.435 9.545 10.935 12.575 14.455 16.645 18.965
1591.708 21.065 22.375 22.375 21.075 18.695 15.655 12.305 9.035 6.465 4.855
1611.002 3.955 3.485 3.245 3.095 2.975 2.855 2.715 2.565 2.385 2.155
1630.295 1.945 1.745 1.6301 1.5269 1.4099 1.3581 1.3394 1.3346 1.3527 1.3281
1649.588 1.3019 1.2929 1.305 1.3441 1.3622 1.3399 1.3173 1.328 1.312 1.281
1668.882 1.2704 1.2656 1.2616 1.2817 1.3308 1.3885 1.4388 1.4849 1.517 1.5627
1688.175 1.592 1.6471 1.735 1.835 1.985 2.095 2.255 2.475 2.635 2.875
1707.469 3.115 3.355 3.645 3.965 4.305 4.725 5.245 5.825 6.515 7.325
1726.762 8.365 9.725 11.445 13.565 16.235 19.325 22.715 26.245 29.355 31.715
1746.056 33.045 33.335 32.555 30.585 27.585 24.045 20.445 17.225 14.505 12.335
1765.349 10.615 9.215 8.085 7.155 6.315 5.565 4.875 4.295 3.775 3.285
1784.642 2.885 2.535 2.245 2.005 1.825 1.6644 1.5234 1.3836 1.2722 1.1908
1803.936 1.1093 1.0665 1.0245 0.9934 0.9784 0.9394 0.9125 0.9164 0.9118 0.905
1823.229 0.8995 0.915 0.9317 0.9001 0.8767 0.8939 0.9156 0.9048 0.9041 0.935
1842.523 0.951 0.9752 0.9976 1.0183 1.0489 1.0533 1.0468 1.0185 1.0063 0.9708
1861.816 0.9026 0.8778 0.8567 0.8405 0.8497 0.8533 0.8607 0.8585 0.8438 0.851
1881.110 0.8273 0.7894 0.7744 0.76337 0.74332 0.74874 0.75585 0.73707 0.70938 0.68784
1900.403 0.678448 0.70181 0.74803 0.73984 0.68948 0.69465 0.73109 0.76721 0.8029 0.8102
1919.696 0.8406 0.8668 0.8602 0.8556 0.8787 0.8885 0.8771 0.8549 0.8093 0.76735
1938.990 0.73449 0.71898 0.7131 0.72974 0.7307 0.698 0.69572 0.69099 0.66792 0.6492
1958.283 0.66535 0.682187 0.6649 0.6574 0.659 0.6367 0.6453 0.6596 0.6233 0.6347
1977.577 0.6425 0.6264 0.6151 0.5867 0.6091 0.6248 0.6053 0.589 0.5839 0.6089
1996.870 0.6202 0.5865 0.539 0.56 0.6058 0.5856 0.559 0.571 0.564 0.573
2016.164 0.5836 0.5843 0.612 0.6123 0.6011 0.5975 0.5952 0.6109 0.6195 0.6136
2035.457 0.6062 0.599 0.6212 0.6397 0.6317 0.6378 0.6364 0.6412 0.6634 0.6491
2054.750 0.651 0.67292 0.6592 0.636 0.6233 0.6166 0.6229 0.6224 0.6104 0.6211
2074.044 0.6257 0.6143 0.6075 0.6097 0.6172 0.6181 0.6148 0.6067 0.6261 0.6588
2093.337 0.66522 0.6574 0.6523 0.6269 0.6014 0.6098 0.6108 0.6368 0.6633 0.6442
2112.631 0.627 0.6185 0.6179 0.6251 0.6467 0.6546 0.6491 0.6442 0.6214 0.633
2131.924 0.662 0.66522 0.657 0.6582 0.66647 0.678182 0.7001 0.69687 0.68845 0.69684
2151.218 0.71985 0.73141 0.70986 0.70532 0.72351 0.71224 0.6982 0.6981 0.70811 0.72311
2170.511 0.70363 0.71185 0.74019 0.7215 0.73609 0.71949 0.69502 0.71124 0.71838 0.72753
2189.804 0.72917 0.70528 0.68708 0.69333 0.67181 0.682893 0.69606 0.66783 0.6522 0.6647
2209.098 0.6592 0.6373 0.6352 0.6413 0.657 0.6399 0.6359 0.6417 0.6305 0.6646
2228.391 0.67079 0.642 0.6272 0.6251 0.6289 0.6506 0.677244 0.674881 0.676415 0.67178
2247.685 0.6641 0.67866 0.676183 0.6648 0.680952 0.6971 0.69048 0.68709 0.70038 0.682112
2266.978 0.66639 0.70646 0.72951 0.72682 0.71765 0.71474 0.71241 0.69792 0.680473 0.6588
2286.272 0.6626 0.68019 0.6598 0.639 0.6566 0.66936 0.6613 0.6516 0.67813 0.69301
2305.565 0.67144 0.677482 0.693 0.675108 0.6616 0.69526 0.71676 0.68677 0.6601 0.66524
2324.858 0.677662 0.683842 0.69087 0.68584 0.681626 0.69288 0.71033 0.7047 0.69074 0.70502
2344.152 0.72002 0.70008 0.66746 0.66865 0.67111 0.66925 0.69798 0.70455 0.69407 0.7091
2363.445 0.70988 0.69974 0.68831 0.66947 0.67039 0.6538 0.6423 0.6479 0.6349 0.6307
2382.739 0.6116 0.58 0.5781 0.5966 0.5892 0.5768 0.5837 0.5791 0.57 0.5762
2402.032 0.5921 0.5931 0.5803 0.572 0.565 0.5889 0.6189 0.6131 0.6036 0.5953
2421.326 0.6286 0.6562 0.639 0.6301 0.6218 0.6108 0.6303 0.6182 0.5942 0.6075
2440.619 0.6159 0.6073 0.6058 0.5985 0.6209 0.6584 0.653 0.6304 0.6156 0.6367
2459.912 0.6467 0.6372 0.6342 0.6444 0.6498 0.647 0.6388 0.6381 0.6465 0.6613
2479.206 0.6463 0.6197 0.6264 0.6094 0.6153 0.6395 0.6049 0.573 0.5896 0.5956
2498.499 0.5823 0.5776 0.572 0.5813 0.579 0.568 0.571 0.5799 0.566 0.547
2517.793 0.56 0.556 0.57 0.5962 0.606 0.6285 0.6295 0.6146 0.6211 0.6277
2537.086 0.6034 0.6046 0.6475 0.644 0.6185 0.6035 0.6211 0.6569 0.67086 0.69165
2556.380 0.66842 0.675001 0.67372 0.6571 0.6467 0.6232 0.619 0.5846 0.5914 0.593
2575.673 0.5834 0.6208 0.6197 0.562 0.526 0.537 0.556 0.563 0.565 0.55
2594.966 0.55 0.57 0.564 0.56 0.541 0.548 0.574 0.555 0.5768 0.5829
2614.260 0.556 0.574 0.582 0.572 0.5775 0.555 0.534 0.544 0.533 0.54
2633.553 0.55 0.56 0.5773 0.521 0.526 0.5775 0.574 0.57 0.5988 0.6367
2652.847 0.6149 0.588 0.561 0.559 0.5865 0.593 0.5849 0.5972 0.6031 0.556
2672.140 0.546 0.521 0.494 0.536 0.57 0.553 0.552 0.533 0.514 0.538
2691.434 0.523 0.554 0.5768 0.555 0.555 0.573 0.572 0.556 0.558 0.507
2710.727 0.492 0.523 0.5784 0.5919 0.546 0.527 0.508 0.53 0.5799 0.5753
2730.020 0.534 0.539 0.544 0.533 0.516 0.496 0.497 0.503 0.505 0.476
2749.314 0.467 0.501 0.505 0.528 0.566 0.551 0.563 0.5935 0.544 0.508
2768.607 0.55 0.6003 0.5884 0.5858 0.6388 0.67388 0.6483 0.566 0.604 0.5996
2787.901 0.502 0.467 0.486 0.537 0.56 0.574 0.531 0.518 0.535 0.521
2807.194 0.522 0.542 0.52 0.523 0.553 0.564 0.5851 0.5774 0.562 0.551
2826.488 0.535 0.552 0.612 0.6365 0.6465 0.67062 0.6622 0.6238 0.6346 0.6277
2845.781 0.6499 0.71353 0.74904 0.76282 0.7759 0.8186 0.8348 0.8581 0.9637 1.0565
2865.074 1.1158 1.1578 1.1353 1.0834 1.0277 0.949 0.8594 0.7931 0.71097 0.7055
2884.368 0.723 0.72238 0.69532 0.6385 0.6411 0.66786 0.6658 0.6616 0.6643 0.6446
2903.661 0.6065 0.6185 0.6677 0.71515 0.72212 0.77126 0.8974 1.0069 1.0761 1.2487
2922.955 1.5633 1.895 2.275 2.555 2.725 2.815 2.755 2.555 2.295 2.025
2942.248 1.745 1.5037 1.3215 1.2755 1.2609 1.2342 1.2782 1.3241 1.3519 1.4114
2961.542 1.437 1.3474 1.2436 1.1623 1.0456 0.9477 0.8525 0.8227 0.7864 0.6522
2980.835 0.6563 0.674217 0.68627 0.71194 0.6792 0.75575 0.7847 0.7834 0.8557 0.8529
3000.128 0.8118 0.8012 0.8551 0.8856 0.8516 0.7757 0.69737 0.6417 0.67311 0.76063
3019.422 0.7758 0.72624 0.68789 0.681326 0.75646 0.8343 0.8316 0.8241 0.8248 0.8524
3038.715 0.8203 0.8175 0.8154 0.819 0.8758 0.7803 0.71943 0.7363 0.70848 0.75488
3058.009 0.7914 0.76976 0.7596 0.7992 0.9264 1.0186 1.0822 1.1696 1.308 1.4762
3077.302 1.5527 1.6625 1.805 1.825 1.735 1.6424 1.5404 1.3718 1.168 1.0507
3096.596 0.9776 0.8132 0.67135 0.68001 0.677512 0.5967 0.6011 0.5946 0.537 0.556
3115.889 0.615 0.6362 0.5833 0.466 0.37 0.335 0.294 0.24 0.301 0.285
3135.182 0.204 0.259 0.31 0.312 0.271 0.211 0.244 0.294 0.288 0.279
3154.476 0.25 0.232 0.255 0.354 0.378 0.251 0.201 0.227 0.212 0.136
3173.769 0.123 0.186 0.224 0.298 0.33 0.295 0.224 0.149 0.164 0.223
3193.063 0.269 0.272 0.232 0.202 0.192 0.233 0.22 0.152 0.184 0.204
3212.356 0.227 0.233 0.183 0.207 0.273 0.288 0.258 0.178 0.14 0.177
3231.650 0.183 0.133 0.083 0.147 0.229 0.225 0.186 0.11 0.072 0.13
3250.943 0.204 0.159 0.167 0.253 0.247 0.261 0.184 0.131 0.116 0.074
3270.236 0.101 0.2 0.265 0.158 0.154 0.161 0.113 0.14 0.128 0.099
3289.530 0.043 0.054 0.107 0.1 0.087 0.041 0.024 0.082 0.017 0
3308.823 0.169 0.194 0.128 0.057 0.046 0.143 0.201 0.153 0.036 0.087
3328.117 0.172 0.144 0.08 0.077 0.09 0.1 0.145 0.124 0.208 0.222
3347.410 0.144 0.091 0.09 0.155 0.172 0.172 0.14 0.107 0.06 0.036
3366.704 0.082 0.062 0.008 0.056 0.091 0.11 0.129 0.076 0.112 0.12
3385.997 0.109 0.19 0.167 0.199 0.188 0.136 0.14 0.119 0.098 0.11
3405.290 0.108 0.089 0.161 0.268 0.302 0.215 0.157 0.233 0.223 0.233
3424.584 0.25 0.2 0.224 0.199 0.108 0.123 0.205 0.143 0.139 0.177
3443.877 0.209 0.319 0.355 0.258 0.192 0.264 0.296 0.235 0.184 0.259
3463.171 0.354 0.398 0.445 0.458 0.46 0.492 0.522 0.499 0.464 0.473
3482.464 0.501 0.468 0.431 0.445 0.456 0.391 0.374 0.364 0.301 0.357
3501.758 0.391 0.362 0.332 0.306 0.318 0.295 0.231 0.163 0.171 0.274
3521.051 0.29 0.215 0.277 0.272 0.154 0.186 0.184 0.173 0.197 0.197
3540.344 0.268 0.204 0.19 0.219 0.261 0.313 0.245 0.274 0.271 0.211
3559.638 0.208 0.202 0.264 0.364 0.413 0.404 0.331 0.242 0.288 0.34
3578.931 0.355 0.433 0.464 0.468 0.442 0.449 0.407 0.313 0.225 0.206
3598.225 0.201 0.206 0.299 0.306 0.245 0.232 0.282 0.303 0.264 0.31
3617.518 0.327 0.225 0.182 0.22 0.244 0.239 0.267 0.349 0.38 0.301
3636.812 0.271 0.352 0.368 0.302 0.269 0.235 0.267 0.338 0.358 0.429
3656.105 0.433 0.429 0.464 0.402 0.391 0.432 0.427 0.346 0.328 0.283
3675.398 0.189 0.238 0.303 0.359 0.311 0.252 0.296 0.306 0.278 0.245
3694.692 0.275 0.319 0.346 0.367 0.286 0.228 0.27 0.301 0.317 0.332
3713.985 0.317 0.32 0.336 0.285 0.255 0.308 0.359 0.299 0.281 0.309
3733.279 0.296 0.273 0.258 0.255 0.318 0.403 0.375 0.315 0.269 0.263
3752.572 0.352 0.427 0.37 0.312 0.367 0.364 0.288 0.268 0.256 0.231
3771.866 0.271 0.386 0.391 0.367 0.329 0.296 0.345 0.333 0.328 0.356
3791.159 0.377 0.364 0.316 0.269 0.349 0.383 0.33 0.362 0.365 0.377
3810.452 0.407 0.379 0.34 0.32 0.308 0.315 0.303 0.304 0.307 0.321
3829.746 0.342 0.399 0.413 0.321 0.338 0.334 0.349 0.358 0.31 0.346
3849.039 0.361 0.311 0.331 0.38 0.353 0.377 0.419 0.389 0.358 0.319
3868.333 0.352 0.385 0.362 0.35 0.328 0.31 0.373 0.418 0.399 0.426
3887.626 0.408 0.395 0.411 0.394 0.34 0.387 0.416 0.381 0.404 0.399
3906.920 0.346 0.326 0.362 0.404 0.425 0.419 0.383 0.382 0.38 0.36
3926.213 0.357 0.379 0.457 0.436 0.354 0.322 0.352 0.413 0.412 0.384
3945.506 0.4 0.416 0.398 0.425 0.413 0.39 0.41 0.394 0.408 0.425
3964.800 0.42 0.419 0.401 0.368 0.363 0.36 0.352 0.382 0.37 0.328
3984.093 0.329 0.36 0.424 0.444 0.4 0.363 0.327 0.308 0.348
##END=
