##TITLE=trans-3-Methyl-2-hexene
##JCAMP-DX=4.24
##DATA TYPE=INFRARED SPECTRUM
##ORIGIN=NIST Mass Spectrometry Data Center
##OWNER=NIST Standard Reference Data Program
Collection (C) 2018 copyright by the U.S. Secretary of Commerce
on behalf of the United States of America. All rights reserved.
##CAS REGISTRY NO=20710-38-7
##MOLFORM=C 7 H 14
##$NIST SOURCE=MSDC-IR
##SPECTROMETER/DATA SYSTEM=HP-GC/MS/IRD
##STATE=gas
##XUNITS=1/CM
##YUNITS=ABSORBANCE
##XFACTOR=1.0
##YFACTOR=0.000001100
##DELTAX=4.0
##FIRSTX=550.0
##LASTX=3846.0
##FIRSTY=0.000348
##MAXX=3846
##MINX=550
##MAXY=0.011
##MINY=0
##NPOINTS=825
##XYDATA=(X++(Y..Y))
550.0 316 344 408 416 319 216 37 31 156 265
590.0 276 161 96 86 116 84 117 233 256 156
630.0 47 108 158 165 235 222 125 51 113 214
670.0 205 146 135 132 205 290 238 151 110 105
710.0 29 26 135 235 194 172 264 323 369 344
750.0 335 416 439 421 485 538 543 585 629 745
790.0 833 846 841 697 729 875 860 863 995 956
830.0 728 633 544 472 455 389 358 421 430 383
870.0 361 362 356 367 353 358 345 259 245 232
910.0 242 270 267 315 290 266 320 333 413 498
950.0 490 417 348 331 350 390 380 425 473 468
990.0 485 489 460 434 431 426 400 367 376 430
1030.0 419 352 348 337 298 345 333 300 283 266
1070.0 304 321 342 383 412 443 442 452 494 572
1110.0 650 647 618 564 509 437 359 333 273 176
1150.0 158 183 190 189 191 213 226 220 264 323
1190.0 358 429 496 456 435 473 447 399 348 281
1230.0 232 267 291 230 230 251 229 251 278 300
1270.0 262 258 282 265 283 315 337 335 295 318
1310.0 340 307 343 381 400 439 496 556 605 616
1350.0 604 649 691 743 848 986 1120 1272 1385 1415
1390.0 1432 1351 1179 1000 864 789 761 742 742 780
1430.0 891 1004 1082 1194 1315 1377 1432 1459 1414 1350
1470.0 1265 1160 1030 952 860 743 639 569 550 514
1510.0 505 496 485 479 479 501 487 447 435 446
1550.0 430 400 380 366 330 289 290 306 311 296
1590.0 248 232 260 274 252 236 242 237 239 206
1630.0 185 201 216 247 262 239 250 294 281 283
1670.0 283 241 220 190 147 151 163 141 153 158
1710.0 126 105 110 126 105 81 84 102 109 101
1750.0 102 103 95 86 104 97 92 122 90 90
1790.0 117 122 113 105 116 128 154 146 142 155
1830.0 131 142 155 160 169 151 123 109 96 100
1870.0 120 106 110 110 96 106 94 87 113 119
1910.0 93 83 97 86 80 68 62 55 44 68
1950.0 55 34 50 63 63 69 65 57 57 66
1990.0 69 51 48 42 46 62 52 57 77 76
2030.0 61 77 99 84 67 67 70 75 65 63
2070.0 63 56 72 45 38 94 77 65 90 71
2110.0 64 81 71 62 86 66 59 62 38 25
2150.0 37 59 75 83 83 66 69 77 62 58
2190.0 34 14 35 40 45 45 41 59 63 64
2230.0 51 61 59 48 51 27 26 39 38 51
2270.0 47 30 25 27 24 45 89 95 73 67
2310.0 45 45 45 53 61 74 73 43 44 33
2350.0 49 65 38 57 65 65 70 62 69 72
2390.0 49 21 32 59 67 53 30 10 31 39
2430.0 33 61 86 83 70 73 68 80 79 54
2470.0 51 87 91 49 20 61 77 44 30 48
2510.0 62 63 65 39 25 51 87 89 71 68
2550.0 53 68 88 46 46 87 111 121 125 104
2590.0 80 80 69 70 82 99 121 116 127 121
2630.0 79 105 135 114 112 92 76 124 134 129
2670.0 174 187 165 143 168 171 123 167 213 205
2710.0 212 234 265 282 274 325 349 325 340 355
2750.0 381 399 371 338 339 396 392 385 431 429
2790.0 443 507 525 549 615 702 799 902 1015 1173
2830.0 1403 1673 1978 2304 2639 2974 3337 3751 4262 4813
2870.0 5390 5927 6190 6314 6347 6255 6120 6092 6210 6456
2910.0 6843 7378 8063 8773 9409 9871 10000 9837 9468 8953
2950.0 8534 8329 8323 8509 8586 8404 7989 7262 6371 5443
2990.0 4674 4126 3744 3497 3251 3020 2880 2806 2729 2616
3030.0 2513 2363 2149 1953 1805 1622 1427 1264 1119 1027
3070.0 915 783 710 638 558 508 442 400 417 446
3110.0 424 383 348 313 300 271 243 246 217 208
3150.0 240 214 185 150 184 214 160 129 128 153
3190.0 183 195 176 148 119 99 63 35 90 142
3230.0 103 106 127 125 99 61 53 58 92 104
3270.0 89 88 83 95 107 53 15 74 114 120
3310.0 111 104 97 84 90 97 113 82 64 83
3350.0 113 120 100 68 44 113 116 30 0 20
3390.0 30 42 57 50 68 83 72 59 49 63
3430.0 110 109 54 55 68 58 82 122 97 42
3470.0 53 63 29 19 56 65 8 10 84 73
3510.0 64 117 130 104 45 22 31 68 91 140
3550.0 162 122 96 43 38 60 96 119 122 144
3590.0 122 106 106 98 99 61 17 48 40 8
3630.0 19 54 106 109 68 88 120 103 49 69
3670.0 97 41 7 30 52 53 61 62 74 117
3710.0 108 60 47 49 43 75 107 103 148 158
3750.0 135 106 51 50 100 121 91 62 102 133
3790.0 96 86 91 110 125 99 114 119 129 187
3830.0 185 173 178 193 167
##END=
