##TITLE=3-Methyl-4-octanone
##JCAMP-DX=4.24
##DATA TYPE=INFRARED SPECTRUM
##ORIGIN=NIST Mass Spectrometry Data Center
##OWNER=NIST Standard Reference Data Program
Collection (C) 2018 copyright by the U.S. Secretary of Commerce
on behalf of the United States of America. All rights reserved.
##CAS REGISTRY NO=20754-04-5
##MOLFORM=C 9 H 18 O
##$NIST SOURCE=MSDC-IR
##SPECTROMETER/DATA SYSTEM=HP-GC/MS/IRD
##STATE=gas
##XUNITS=1/CM
##YUNITS=ABSORBANCE
##XFACTOR=1.0
##YFACTOR=0.000003300
##DELTAX=4.0
##FIRSTX=550.0
##LASTX=3846.0
##FIRSTY=0.000234
##MAXX=3846
##MINX=550
##MAXY=0.033
##MINY=0
##NPOINTS=825
##XYDATA=(X++(Y..Y))
550.0 71 53 25 24 27 18 41 44 9 18
590.0 23 23 41 54 59 46 39 39 43 25
630.0 10 25 30 11 9 26 24 20 36 44
670.0 24 25 31 31 31 38 45 37 52 55
710.0 66 77 76 85 89 104 124 141 158 184
750.0 225 266 288 310 330 341 328 308 285 258
790.0 228 186 169 152 111 105 106 82 76 76
830.0 72 75 79 78 74 73 72 67 70 71
870.0 75 94 100 102 106 102 112 124 126 129
910.0 129 144 158 170 195 221 245 268 307 354
950.0 393 424 457 489 525 564 610 655 694 716
990.0 719 734 778 843 917 990 1049 1087 1130 1186
1030.0 1272 1358 1432 1435 1352 1217 1062 929 825 740
1070.0 676 639 620 610 619 637 643 673 728 783
1110.0 845 893 903 870 810 734 651 587 541 514
1150.0 516 556 616 689 747 761 728 675 613 540
1190.0 477 440 411 393 389 381 362 349 344 353
1230.0 373 410 452 485 529 568 602 620 615 595
1270.0 563 534 520 528 546 568 582 590 591 590
1310.0 586 584 600 628 671 732 809 900 997 1109
1350.0 1222 1319 1385 1397 1368 1342 1339 1363 1380 1346
1390.0 1230 1052 887 776 725 711 710 715 711 706
1430.0 727 784 878 1003 1189 1419 1676 1894 1970 1908
1470.0 1728 1452 1131 858 661 523 415 344 297 278
1510.0 241 205 199 182 158 147 144 157 153 130
1550.0 120 128 149 121 99 102 109 109 91 87
1590.0 81 79 85 92 92 92 103 113 113 117
1630.0 125 143 147 153 174 207 228 225 247 291
1670.0 356 416 490 607 753 932 1231 1676 2274 3044
1710.0 3950 4845 5515 5721 5353 4501 3423 2393 1590 1055
1750.0 739 537 406 321 261 226 189 153 130 114
1790.0 106 97 86 80 70 62 60 57 52 52
1830.0 48 43 43 45 40 30 24 23 25 28
1870.0 29 26 17 14 18 19 19 18 16 12
1910.0 13 13 14 14 10 10 9 8 8 9
1950.0 9 8 6 8 10 9 9 7 4 4
1990.0 7 10 8 8 9 9 6 5 9 8
2030.0 8 10 8 11 15 9 4 8 12 10
2070.0 6 6 9 6 3 4 3 1 0 4
2110.0 6 8 9 11 9 8 10 6 6 6
2150.0 8 6 5 11 7 3 9 11 7 5
2190.0 4 5 8 11 11 9 7 9 12 13
2230.0 10 12 10 10 10 4 9 8 6 8
2270.0 7 8 8 9 11 11 12 13 14 16
2310.0 19 21 21 19 21 24 29 29 26 27
2350.0 24 25 30 31 25 20 22 25 28 28
2390.0 25 25 27 24 21 22 21 21 23 19
2430.0 16 19 16 14 16 13 15 18 17 13
2470.0 11 11 12 11 8 14 18 14 15 19
2510.0 18 14 9 9 12 15 18 20 22 25
2550.0 23 24 34 31 27 30 30 30 34 41
2590.0 41 36 32 35 35 36 42 44 44 46
2630.0 47 49 51 54 64 64 62 72 76 77
2670.0 80 87 89 82 83 88 89 91 89 91
2710.0 96 98 105 115 127 144 161 175 187 191
2750.0 192 193 194 193 195 200 209 220 238 251
2790.0 262 287 316 342 368 395 433 475 521 577
2830.0 632 695 787 898 1035 1221 1481 1825 2233 2685
2870.0 3151 3629 4085 4419 4582 4575 4413 4204 4089 4097
2910.0 4235 4506 4904 5414 5986 6576 7133 7536 7693 7654
2950.0 7521 7486 7815 8600 9524 10000 9719 8643 7017 5355
2990.0 3984 2952 2219 1715 1356 1103 929 797 692 611
3030.0 557 512 470 442 418 394 374 357 341 330
3070.0 322 303 288 288 279 264 257 244 225 219
3110.0 212 199 191 189 184 176 168 168 166 154
3150.0 152 149 142 143 144 136 126 128 124 114
3190.0 111 104 98 96 91 79 67 58 53 54
3230.0 49 44 39 34 31 32 35 32 28 26
3270.0 26 30 36 34 27 30 36 32 23 24
3310.0 28 21 14 18 19 15 17 23 24 21
3350.0 24 30 25 28 36 34 29 42 56 56
3390.0 55 61 70 77 82 90 101 114 118 113
3430.0 112 101 87 76 60 50 48 35 30 32
3470.0 24 26 30 25 26 21 18 27 28 16
3510.0 17 20 21 14 4 13 14 9 9 12
3550.0 18 17 18 22 25 20 15 14 13 21
3590.0 21 15 14 15 22 26 23 25 21 32
3630.0 39 29 27 25 36 49 37 29 21 27
3670.0 48 55 39 27 30 27 18 21 24 23
3710.0 34 40 33 36 37 38 46 44 59 75
3750.0 74 60 38 29 26 27 17 18 24 22
3790.0 24 23 28 36 31 31 48 49 34 30
3830.0 27 33 45 40 29
##END=
