##TITLE=2,6-Dimethoxybenzylamine
##JCAMP-DX=4.24
##DATA TYPE=INFRARED SPECTRUM
##ORIGIN=EPA-IR VAPOR PHASE LIBRARY
##OWNER=SRD/NIST
Collection (C) 2018 copyright by the U.S. Secretary of Commerce
on behalf of the United States of America. All rights reserved.
##CAS REGISTRY NO=20781-22-0
##MOLFORM=C 9 H 13 N O 2
##$NIST SOURCE=MSDC-IR
##STATE=gas
##XUNITS=1/CM
##YUNITS=ABSORBANCE
##XFACTOR=1.
##YFACTOR=0.001
##DELTAX=1.92898
##FIRSTX=549.8
##LASTX=4000.7
##FIRSTY=7.762
##MAXX=4000.7
##MINX=549.759
##MAXY=0.225872
##MINY=0
##NPOINTS=1790
##XYDATA=(X++(Y..Y))
549.759 7.762 7.802 9.402 10.282 9.842 9.372 10.112 11.322 12.002 12.212
569.049 12.112 11.982 11.882 11.522 11.542 12.302 12.092 11.942 12.042 11.612
588.339 11.052 10.822 10.782 10.652 10.742 9.522 8.502 8.892 8.992 8.662
607.628 8.132 8.002 8.512 8.732 8.582 9.092 8.842 7.842 8.212 8.662
626.918 8.442 8.422 8.882 9.022 9.262 9.522 9.372 9.712 10.052 10.092
646.208 10.472 11.532 11.362 10.782 11.232 11.482 11.812 12.742 12.992 12.942
665.498 13.762 14.922 16.162 16.592 17.042 17.572 18.652 20.002 19.882 19.722
684.787 20.232 20.462 20.032 19.792 19.672 19.412 19.262 19.202 19.882 20.452
704.077 21.762 23.792 26.562 30.132 33.872 38.242 43.062 47.882 52.022 57.002
723.367 62.102 64.372 62.192 57.002 51.652 47.792 43.702 38.872 34.762 31.152
742.657 28.132 25.582 24.132 23.472 23.352 23.552 23.922 25.442 27.042 28.502
761.947 30.852 33.262 36.212 38.992 41.622 45.682 49.612 53.292 56.722 59.732
781.236 62.022 62.852 63.692 63.622 62.242 60.102 57.742 55.072 51.702 48.192
800.526 45.132 42.342 39.572 37.632 36.092 34.592 33.032 31.762 31.562 31.572
819.816 31.122 30.342 29.592 29.892 30.132 30.302 31.212 32.122 33.202 34.822
839.106 35.952 37.022 39.392 42.362 45.062 48.002 50.572 52.132 53.932 55.432
858.395 56.312 56.802 56.462 55.742 54.162 51.762 48.672 45.572 42.642 39.262
877.685 35.902 33.242 31.262 29.062 26.912 25.022 23.182 21.372 20.242 19.162
896.975 17.782 16.802 15.842 15.042 14.472 14.222 13.912 13.742 13.192 12.342
916.265 12.372 12.162 11.602 11.292 11.042 11.272 11.342 11.362 11.352 10.792
935.555 11.012 10.522 9.852 10.312 9.992 9.502 9.882 9.962 10.112 10.702
954.844 10.622 10.722 10.982 11.072 11.582 11.992 12.352 12.762 13.052 13.392
974.134 13.972 14.452 14.182 14.552 15.812 16.352 16.862 16.932 17.392 18.612
993.424 19.032 19.862 20.912 21.362 22.202 23.292 24.242 25.732 26.632 26.782
1012.714 27.062 28.402 29.142 28.962 29.772 29.532 28.932 29.212 29.232 29.792
1032.003 30.592 31.042 31.232 31.072 30.882 31.702 33.522 35.112 37.242 39.842
1051.293 41.062 42.532 44.382 45.942 48.042 50.702 54.552 58.352 61.702 66.232
1070.583 72.892 80.572 87.892 95.552 104.662 115.602 125.082 135.162 145.772 150.782
1089.873 155.622 162.432 167.052 166.982 164.502 163.232 159.392 152.222 145.092 137.942
1109.163 130.692 123.272 114.622 106.882 99.872 93.932 89.432 86.292 84.142 82.352
1128.452 82.092 83.202 85.222 88.802 94.432 102.222 112.502 123.962 135.642 146.462
1147.742 155.502 163.792 169.202 169.072 164.132 156.462 147.972 139.162 130.712 121.982
1167.032 114.332 109.592 106.532 104.352 102.982 101.372 98.372 93.322 88.812 86.022
1186.322 82.372 78.032 72.642 67.812 63.482 58.872 54.282 50.592 47.272 43.462
1205.611 42.352 42.362 42.092 40.672 38.622 38.832 41.282 42.532 43.632 46.082
1224.901 49.582 54.042 59.032 66.972 76.492 87.982 101.222 114.292 127.602 140.632
1244.191 155.662 170.562 179.382 183.382 185.412 182.072 173.612 163.632 150.912 136.752
1263.481 121.592 107.162 95.232 84.422 76.092 69.782 63.962 58.002 52.252 47.412
1282.771 42.832 38.462 34.622 31.512 29.362 27.522 26.732 26.622 26.612 27.332
1302.060 28.532 29.742 30.622 31.072 31.572 31.752 31.502 31.112 30.302 29.292
1321.350 28.132 27.062 26.292 25.572 25.002 24.472 23.942 23.922 23.982 23.702
1340.640 23.612 23.592 23.742 23.682 23.522 23.502 23.272 23.012 22.732 22.372
1359.930 21.952 21.622 21.172 20.702 20.202 19.672 19.392 19.302 19.142 18.972
1379.219 19.062 19.182 19.212 19.372 19.762 19.562 19.352 19.232 19.092 19.042
1398.509 18.652 18.122 17.892 18.142 18.722 19.092 19.492 20.432 21.792 23.442
1417.799 25.562 28.052 31.062 35.322 40.692 46.492 54.382 63.022 71.132 76.692
1437.089 80.942 83.752 84.652 83.832 82.122 79.632 76.542 74.142 74.292 77.532
1456.378 86.282 101.492 118.342 138.782 162.392 189.042 208.932 221.832 225.872 224.232
1475.668 212.882 192.752 168.542 136.692 105.832 80.742 61.582 48.892 39.262 32.862
1494.958 28.702 25.152 22.872 21.212 19.672 18.462 18.302 17.392 16.572 16.282
1514.248 16.012 15.942 15.462 15.312 15.412 15.042 15.472 15.932 16.332 16.782
1533.538 17.162 17.852 18.552 19.432 20.742 21.612 22.762 23.962 25.542 27.752
1552.827 29.332 31.932 34.632 38.542 42.842 45.922 50.912 56.372 62.132 70.022
1572.117 78.492 87.402 98.142 110.612 122.862 136.722 150.862 164.502 175.702 183.372
1591.407 185.582 181.842 171.572 155.542 136.172 115.602 96.082 79.302 66.112 55.402
1610.697 47.542 41.862 37.972 34.212 31.202 29.392 27.642 26.122 24.582 23.122
1629.986 22.102 21.062 19.912 18.832 17.682 16.572 16.042 15.452 14.712 13.542
1649.276 12.562 12.832 12.492 11.302 11.302 10.992 10.442 10.602 9.922 9.202
1668.566 9.062 8.952 8.942 8.892 8.422 7.972 7.652 7.422 7.072 6.782
1687.856 6.592 6.332 6.262 6.042 5.882 5.782 5.142 5.282 5.512 5.222
1707.146 5.252 5.262 4.812 4.672 4.672 4.492 4.722 4.242 3.952 3.912
1726.435 3.762 3.942 4.212 3.982 4.132 3.952 3.532 3.792 3.902 3.712
1745.725 3.572 3.662 3.752 3.882 3.672 3.352 3.492 3.752 3.762 3.782
1765.015 3.942 4.212 4.342 4.022 4.242 4.582 4.592 4.732 4.872 4.912
1784.305 5.132 5.332 5.282 5.392 5.512 5.172 5.192 5.332 5.282 5.392
1803.594 5.082 4.952 4.872 4.662 4.562 4.412 4.552 4.542 4.502 4.432
1822.884 4.362 4.332 4.242 4.152 4.182 4.112 4.102 4.172 4.142 4.152
1842.174 4.042 4.002 3.932 3.882 3.972 3.892 3.632 3.632 3.772 3.752
1861.464 3.772 3.842 3.912 4.012 4.182 4.392 4.732 5.002 5.502 5.932
1880.754 5.862 5.852 6.302 6.742 6.722 6.712 6.402 6.032 5.782 5.562
1900.043 5.382 5.182 4.952 4.542 4.442 4.402 4.302 4.382 4.132 4.002
1919.333 4.082 4.042 4.162 4.202 4.252 4.322 4.512 4.572 4.582 4.612
1938.623 4.602 4.722 4.832 4.802 4.742 4.752 4.782 4.892 4.622 4.502
1957.913 4.542 4.612 4.632 4.522 4.422 4.242 4.142 4.162 4.022 3.742
1977.202 3.832 3.792 3.662 3.532 3.262 3.272 3.272 3.282 3.152 2.912
1996.492 2.932 2.912 2.812 2.912 2.782 2.842 3.112 2.892 2.752 2.682
2015.782 2.742 2.952 2.892 2.752 2.802 2.782 2.652 2.642 2.692 3.012
2035.072 3.142 3.042 3.032 3.012 2.862 2.672 2.672 2.742 2.782 2.602
2054.362 2.472 2.632 2.642 2.462 2.672 2.802 2.672 2.822 2.772 2.622
2073.651 2.672 2.782 2.952 3.012 3.002 3.062 3.232 3.242 3.242 3.462
2092.941 3.722 3.942 3.722 3.672 3.932 4.192 4.282 4.242 4.582 4.952
2112.231 5.172 5.042 5.072 5.332 5.332 5.382 5.452 5.592 5.632 5.552
2131.521 5.662 5.682 5.672 5.852 5.742 5.572 5.492 5.472 5.612 5.502
2150.810 5.232 5.162 5.302 5.262 5.042 4.842 4.802 4.632 4.402 4.462
2170.100 4.282 4.112 4.132 4.082 4.142 4.142 4.192 4.162 3.992 4.072
2189.390 4.362 4.382 4.432 4.602 4.352 4.122 4.052 3.922 3.622 3.542
2208.680 3.532 3.282 3.162 3.122 2.922 2.852 2.992 2.792 2.782 2.902
2227.970 2.742 2.732 2.572 2.412 2.632 2.742 2.732 2.612 2.662 2.742
2247.259 2.572 2.592 2.712 2.882 2.782 2.642 2.722 2.602 2.682 2.942
2266.549 2.922 2.912 3.022 2.782 2.582 2.362 2.412 2.662 2.622 2.722
2285.839 2.802 2.572 2.312 2.402 2.452 2.482 2.502 2.492 2.512 2.372
2305.129 2.252 2.182 2.352 2.262 2.152 2.342 2.202 2.272 2.322 2.212
2324.418 2.212 2.162 2.152 2.302 2.342 2.222 2.172 2.042 2.032 2.142
2343.708 2.382 2.492 2.362 2.222 2.352 2.442 2.462 2.502 2.272 2.262
2362.998 2.242 2.382 2.442 2.492 2.532 2.562 2.572 2.522 2.682 2.392
2382.288 2.282 2.372 2.312 2.352 2.682 2.892 2.602 2.672 2.972 2.672
2401.578 2.282 2.722 2.832 2.542 2.592 2.442 2.102 2.312 2.712 2.492
2420.867 2.442 2.632 2.432 2.302 2.572 2.492 2.142 2.292 2.432 2.372
2440.157 2.392 2.502 2.462 2.112 2.042 2.292 2.432 2.472 2.472 2.552
2459.447 2.272 1.992 2.122 2.282 2.282 2.022 2.012 2.282 2.442 2.382
2478.737 2.322 2.632 2.742 2.672 2.622 2.602 2.512 2.592 2.912 3.132
2498.026 3.112 3.172 3.432 3.612 3.812 3.852 3.982 4.102 4.142 4.202
2517.316 4.392 4.402 4.272 4.412 4.402 4.362 4.272 4.032 3.942 3.822
2536.606 3.682 3.612 3.532 3.302 3.152 2.912 2.912 3.102 2.912 2.762
2555.896 2.872 3.042 2.912 2.872 2.682 2.342 2.302 2.352 2.492 2.722
2575.186 2.802 2.712 2.912 3.132 2.832 2.692 2.662 2.552 2.712 2.932
2594.475 2.882 2.632 2.542 2.792 3.052 3.072 3.032 2.992 3.242 3.222
2613.765 2.992 3.122 3.262 3.142 3.012 2.992 3.122 3.092 2.832 2.912
2633.055 3.232 3.292 3.182 3.332 3.322 3.182 2.952 2.652 2.872 2.992
2652.345 2.772 2.752 2.832 2.942 3.122 2.982 2.682 2.852 2.812 2.602
2671.634 2.862 3.162 2.862 2.192 2.222 2.692 2.872 2.752 2.682 2.522
2690.924 2.362 2.322 2.442 2.772 2.732 2.782 2.952 3.022 3.222 3.042
2710.214 2.842 3.252 3.432 3.292 3.312 3.172 3.152 3.532 3.622 3.532
2729.504 3.512 3.532 3.672 3.812 3.682 4.022 4.322 4.172 4.492 4.622
2748.794 4.402 4.452 4.572 4.532 4.682 4.662 4.982 5.092 4.892 5.242
2768.083 5.592 5.532 5.272 5.442 5.682 5.662 6.112 6.472 6.372 6.262
2787.373 6.122 6.472 7.012 7.102 7.312 7.772 8.212 8.572 9.132 9.842
2806.663 10.282 10.852 11.522 12.432 13.392 13.972 14.742 15.922 17.412 19.162
2825.953 21.472 24.512 28.352 33.002 38.352 44.162 49.962 54.882 58.232 60.382
2845.242 60.892 59.612 57.132 53.442 48.952 44.372 39.942 36.342 33.932 32.222
2864.532 31.152 30.932 30.922 30.822 31.262 32.152 32.722 32.982 33.762 34.712
2883.822 35.142 35.722 36.632 37.342 38.052 38.832 39.492 40.332 41.502 42.492
2903.112 43.122 43.892 45.162 45.952 46.212 47.422 48.702 49.172 49.622 50.262
2922.401 50.392 50.852 52.432 54.542 56.992 60.392 65.082 70.672 77.292 83.622
2941.691 89.482 94.712 98.452 101.272 102.002 100.612 98.522 95.272 91.022 86.552
2960.981 82.032 76.832 71.602 67.182 62.632 58.312 54.352 51.382 48.872 46.652
2980.271 45.312 44.352 44.042 44.532 45.222 46.962 49.812 53.022 56.682 60.152
2999.561 62.482 63.372 63.272 61.912 59.042 54.922 50.212 44.962 39.542 34.662
3018.850 30.702 27.522 25.062 23.392 22.102 21.072 20.382 19.792 18.692 17.622
3038.140 17.552 17.442 16.692 16.052 15.782 15.652 15.402 15.382 15.772 15.832
3057.430 15.522 16.072 16.922 17.802 18.332 18.532 19.382 20.282 21.522 22.872
3076.720 23.672 24.432 25.102 25.642 26.102 26.222 26.252 25.792 24.452 22.582
3096.009 20.742 18.672 16.572 14.642 12.932 11.402 9.972 8.502 7.602 7.052
3115.299 6.282 5.972 5.582 5.142 4.532 4.452 4.262 3.772 3.542 3.482
3134.589 3.932 4.122 3.992 3.772 3.662 3.552 3.512 3.402 3.382 3.552
3153.879 3.212 2.932 3.342 3.372 3.092 3.062 3.472 3.722 3.232 3.222
3173.169 3.202 2.822 2.902 3.382 3.662 3.312 3.092 3.092 2.612 2.422
3192.458 2.572 2.712 2.622 2.162 1.822 2.002 2.832 2.632 1.952 2.032
3211.748 1.692 1.6369 2.112 2.192 2.212 2.062 1.812 2.042 2.032 1.702
3231.038 1.722 1.942 1.732 1.5815 1.852 1.812 1.732 1.812 2.012 2.082
3250.328 1.992 1.6177 1.4572 1.922 1.882 1.5117 1.3673 1.3754 1.792 2.082
3269.617 2.012 2.062 1.458 1.0346 1.2553 1.4844 1.842 1.4452 1.2242 1.762
3288.907 1.4447 1.1904 1.1801 1.3059 1.682 1.4989 1.5928 2.112 1.872 1.3492
3308.197 1.752 1.982 1.6072 1.56 1.6163 1.3334 1.4385 1.672 1.812 2.042
3327.487 2.282 2.742 2.742 2.982 3.512 3.892 4.322 4.002 3.932 3.802
3346.777 2.802 2.452 2.982 3.282 2.942 2.702 2.522 2.402 2.432 2.212
3366.066 1.992 1.752 2.012 2.402 2.542 2.462 2.332 2.002 1.6172 1.4963
3385.356 1.3868 1.4213 1.5938 1.752 2.382 2.522 2.142 2.512 2.312 1.6483
3404.646 2.132 2.792 3.092 3.382 3.072 3.082 3.342 2.872 2.632 2.752
3423.936 2.322 1.702 1.641 1.832 2.312 2.492 2.052 1.772 1.6346 1.982
3443.225 1.852 1.3377 1.4376 1.902 2.032 1.942 2.052 1.712 1.6235 1.672
3462.515 0.9726 0.8421 1.268 1.427 1.772 1.5978 1.3118 1.4561 1.4283 1.4188
3481.805 1.4319 1.5472 1.742 1.722 1.702 1.4188 1.0606 1.0401 1.1441 1.2358
3501.095 0.9815 0.9987 1.4551 1.5493 1.4082 1.3567 1.5797 1.902 1.812 1.2492
3520.385 0.8615 1.3665 1.822 1.5587 1.6305 1.6051 1.2338 1.2547 1.6051 1.712
3539.674 1.3364 1.0972 1.2008 1.3728 1.722 1.0078 0.171 0.72278 1.0608 1.3433
3558.964 1.6219 1.1898 0.478 0.324 0.8888 0.8804 0.482 0.322 0.66269 0.9446
3578.254 0.8527 1.5465 1.802 1.3386 1.2084 1.5434 1.6402 1.1602 0.8907 0.9014
3597.544 1.1971 1.5381 1.922 2.062 1.672 0.9808 0.72721 0.991 1.0712 0.7582
3616.833 0.6193 1.2046 1.4376 1.6004 1.3594 1.0434 1.682 1.882 1.5504 1.2633
3636.123 1.3449 1.1539 0.8456 0.8896 0.9507 0.7524 0.501 0.9347 1.0467 0.8581
3655.413 0.9277 0.70498 0.8734 1.3547 1.2408 0.9886 1.0491 1.662 1.992 1.6378
3674.703 1.4284 1.1747 0.9428 1.4698 1.962 1.6265 0.66915 0.47 1.0714 0.66572
3693.993 0.5838 0.8145 0.7754 0.8858 1.148 1.702 1.5667 0.9709 0.9707 1.1907
3713.282 1.0684 0.7814 0.446 0.554 1.2218 1.802 1.2757 0.366 0.443 0.453
3732.572 0.69352 0.373 0.336 1.0367 0.8719 1.007 1.201 1.4756 1.6056 1.2181
3751.862 1.2302 1.3536 1.5038 1.4185 1.6242 1.5516 1.112 1.5079 1.972 1.672
3771.152 1.1673 1.0532 1.1726 1.702 1.862 0.7858 0.7707 1.2367 0.9393 1.3739
3790.441 1.6177 1.652 1.6329 1.0227 1.0796 1.456 1.3951 1.4939 1.3447 1.2804
3809.731 1.702 1.732 1.992 1.792 0.8945 0.71552 1.0545 1.0718 1.1419 1.3605
3829.021 0.9756 1.3849 1.692 1.2924 1.3714 0.9957 1.3603 1.852 1.2012 0.941
3848.311 1.2769 0.68348 0 1.2575 1.962 1.792 1.5198 1.5682 1.872 1.792
3867.601 1.822 1.762 2.022 2.412 1.942 1.912 1.702 1.6411 2.212 2.052
3886.890 2.112 1.942 1.6068 1.822 1.862 1.902 1.762 1.4084 1.4502 1.742
3906.180 1.5272 1.782 2.062 1.882 1.792 1.4544 1.1088 1.407 1.4877 1.2953
3925.470 1.5995 1.2841 0.9952 1.448 1.4758 0.8941 1.4192 2.192 1.1611 0.68186
3944.760 1.4407 1.4828 1.213 1.2178 1.4884 1.662 1.902 1.942 1.5733 1.1901
3964.049 1.0431 1.3266 1.712 1.892 2.212 2.482 2.432 1.912 1.672 1.732
3983.339 1.682 2.052 2.062 1.772 1.872 1.882 1.3929 1.842 2.132 1.902
##END=
