##TITLE=1,1,1,5,5,6,6,6-Octafluoro-2,4-hexanedione
##JCAMP-DX=4.24
##DATA TYPE=INFRARED SPECTRUM
##ORIGIN=EPA-IR VAPOR PHASE LIBRARY
##OWNER=SRD/NIST
Collection (C) 2018 copyright by the U.S. Secretary of Commerce
on behalf of the United States of America. All rights reserved.
##CAS REGISTRY NO=20825-07-4
##MOLFORM=C 6 H 2 F 8 O 2
##$NIST SOURCE=MSDC-IR
##STATE=gas
##XUNITS=1/CM
##YUNITS=ABSORBANCE
##XFACTOR=1.
##YFACTOR=0.001
##DELTAX=1.92898
##FIRSTX=549.8
##LASTX=4000.7
##FIRSTY=24.096
##MAXX=4000.7
##MINX=549.759
##MAXY=1.28122
##MINY=0
##NPOINTS=1790
##XYDATA=(X++(Y..Y))
549.759 24.096 22.676 22.086 21.366 22.066 22.186 21.316 21.316 22.456 23.906
569.049 26.326 30.606 34.926 38.936 42.926 46.496 48.546 48.266 46.686 45.116
588.339 43.436 39.986 37.426 34.936 32.396 31.676 30.906 30.426 31.636 33.526
607.628 35.026 37.056 39.096 40.876 42.036 43.196 45.596 48.726 50.986 53.336
626.918 55.936 57.626 59.256 61.256 64.046 67.676 71.256 75.026 80.606 87.446
646.208 95.536 106.746 119.776 131.856 141.476 146.406 145.036 136.206 121.136 102.826
665.498 85.466 71.956 61.536 54.116 49.036 45.256 41.976 39.466 37.586 36.486
684.787 36.256 36.106 36.266 35.786 35.636 36.686 36.856 37.126 37.926 38.846
704.077 40.076 42.046 44.066 45.916 47.896 48.986 49.406 49.356 49.076 48.256
723.367 46.506 44.906 44.126 44.346 45.846 47.746 50.316 54.756 61.416 70.556
742.657 79.966 87.336 92.906 94.806 91.596 84.536 74.706 63.346 53.176 44.596
761.947 37.796 32.566 28.116 25.436 23.636 21.546 20.056 20.516 21.576 22.496
781.236 24.436 27.356 30.176 32.946 36.546 39.946 42.796 45.696 47.956 51.406
800.526 55.796 61.046 68.596 78.466 90.156 101.096 111.356 119.916 123.046 118.746
819.816 109.686 100.496 89.986 77.426 66.136 56.996 49.346 43.306 38.896 35.436
839.106 32.726 30.926 29.536 28.406 27.566 26.296 25.196 24.436 23.846 22.336
858.395 21.076 20.736 20.256 20.176 19.886 19.666 19.066 19.176 20.266 21.196
877.685 21.996 22.626 23.546 24.766 25.856 26.686 28.186 30.716 33.676 36.866
896.975 40.576 44.426 47.726 50.586 52.796 53.476 52.346 49.646 45.256 41.066
916.265 37.586 34.236 31.106 28.226 26.616 25.576 25.016 24.746 24.326 24.406
935.555 24.996 25.666 26.826 28.416 29.426 30.486 32.586 35.406 37.826 40.366
954.844 43.136 46.436 51.116 55.946 60.756 66.446 72.186 77.806 83.246 88.866
974.134 94.086 98.616 102.936 106.436 109.316 112.046 114.786 117.746 121.556 126.346
993.424 133.736 143.476 154.306 165.386 176.746 187.076 194.136 199.036 199.886 196.336
1012.714 190.936 182.816 173.166 162.376 150.256 138.326 127.316 117.116 108.046 102.056
1032.003 96.166 91.376 88.426 85.406 83.446 81.386 80.736 80.626 80.526 80.886
1051.293 81.726 82.186 82.606 84.166 85.996 89.786 95.086 100.426 106.266 113.376
1070.583 124.076 137.386 151.306 167.726 188.676 213.496 237.906 261.936 286.696 308.836
1089.873 324.226 334.286 335.576 329.206 320.226 305.986 292.606 284.736 276.136 273.486
1109.163 275.626 280.286 288.266 300.576 314.326 324.416 334.826 340.996 341.206 335.666
1128.452 328.326 317.246 302.596 289.006 278.026 270.196 264.786 262.146 264.156 269.936
1147.742 277.636 290.396 308.276 329.936 352.756 377.186 409.276 444.476 481.406 522.226
1167.032 562.876 607.386 650.876 691.806 729.216 755.996 779.886 801.016 805.356 797.966
1186.322 793.226 790.076 784.516 783.186 794.136 822.936 861.546 905.576 963.266 1043.17
1205.611 1089.91 1136.1 1188.48 1205.36 1243.93 1281.22 1265.41 1254.57 1247.01 1195.17
1224.901 1155.14 1114.47 1071.82 1006.97 927.596 848.076 768.946 699.516 636.636 581.766
1244.191 530.436 484.856 447.106 412.816 381.676 355.286 333.836 318.486 308.726 303.666
1263.481 305.416 311.486 321.166 333.946 347.246 361.156 373.246 382.056 388.996 393.116
1282.771 392.116 386.206 377.266 366.716 355.196 343.106 331.096 319.806 310.116 302.966
1302.060 296.996 292.366 289.076 286.856 285.456 284.736 285.306 286.306 287.766 289.566
1321.350 290.696 290.386 288.016 283.176 275.216 264.726 251.976 237.736 223.116 209.046
1340.640 195.586 183.336 173.106 164.126 155.966 148.996 142.856 137.046 131.306 125.636
1359.930 119.856 113.766 107.716 101.736 95.676 89.916 84.916 80.296 75.706 71.566
1379.219 67.896 65.176 63.016 61.126 59.686 58.656 57.996 57.666 57.716 57.906
1398.509 58.516 59.356 60.116 61.226 62.566 64.076 65.586 67.106 68.966 70.896
1417.799 73.266 75.846 78.286 80.966 83.406 85.896 88.436 90.346 91.676 92.586
1437.089 92.916 92.436 91.246 89.526 86.896 83.696 80.116 76.246 72.126 68.066
1456.378 63.936 60.226 57.366 54.606 51.816 48.996 46.896 45.236 43.556 41.916
1475.668 40.626 39.576 38.696 37.886 37.286 36.806 36.386 36.126 35.806 35.306
1494.958 35.196 35.396 35.546 35.676 35.816 35.916 36.106 36.196 36.116 36.736
1514.248 37.276 37.356 37.686 37.996 38.376 38.996 39.306 39.506 39.726 39.896
1533.538 40.226 40.376 40.416 40.456 40.206 40.206 40.366 40.586 41.116 41.806
1552.827 42.426 43.316 44.166 44.896 46.236 47.646 49.156 50.876 52.986 55.466
1572.117 57.436 59.846 63.406 67.166 71.416 76.616 81.786 87.466 94.126 101.676
1591.407 109.716 118.726 128.616 139.516 151.836 165.136 179.846 195.916 212.416 230.476
1610.697 248.936 266.476 281.586 295.036 306.346 313.086 314.146 309.786 300.386 286.506
1629.986 269.436 250.626 230.996 210.066 190.666 173.436 157.616 144.106 133.166 123.896
1649.276 116.176 110.876 106.566 103.586 102.006 101.906 103.406 105.656 108.696 113.156
1668.566 118.966 125.316 131.886 138.676 145.346 151.166 155.906 159.316 160.746 159.996
1687.856 157.256 152.596 145.686 137.236 127.526 117.606 107.716 96.666 87.356 78.526
1707.146 70.616 63.756 57.796 52.476 48.166 44.806 41.826 39.276 37.256 35.626
1726.435 34.506 33.726 33.086 32.586 32.706 33.216 33.526 33.966 34.716 36.026
1745.725 37.476 39.056 41.096 43.126 45.796 48.446 50.766 52.756 54.126 54.286
1765.015 53.266 51.776 49.966 48.236 47.126 47.136 47.906 49.426 51.226 52.626
1784.305 53.096 52.286 50.336 47.236 43.066 38.276 33.766 29.416 25.656 22.696
1803.594 20.216 18.166 16.686 15.446 14.316 13.436 12.786 12.346 11.986 11.526
1822.884 11.136 11.016 10.916 10.756 10.506 10.346 10.236 9.916 9.746 9.616
1842.174 9.526 9.656 9.756 9.556 9.376 9.346 9.166 8.986 8.966 8.886
1861.464 8.806 8.696 8.566 8.666 8.726 8.596 8.446 8.186 7.976 7.746
1880.754 7.646 7.746 7.826 7.686 7.376 7.186 7.006 7.126 7.276 7.116
1900.043 6.996 6.886 6.816 6.786 6.646 6.526 6.596 6.626 6.536 6.496
1919.333 6.446 6.266 6.426 6.476 6.216 6.186 6.156 6.146 6.216 6.046
1938.623 5.916 6.066 6.186 6.256 6.056 5.886 6.146 6.346 6.526 6.756
1957.913 6.796 6.906 6.976 7.046 7.146 7.066 7.006 6.776 6.616 6.646
1977.202 6.736 6.726 6.566 6.356 6.326 6.516 6.516 6.116 6.076 6.006
1996.492 5.966 6.326 6.376 6.136 6.096 6.176 5.876 5.756 5.686 5.556
2015.782 5.416 5.336 5.356 5.206 5.216 5.266 5.096 4.906 4.896 4.946
2035.072 4.826 4.706 4.826 4.646 4.416 4.486 4.486 4.396 4.316 4.336
2054.362 4.306 4.286 4.446 4.366 4.306 4.596 4.776 4.646 4.506 4.456
2073.651 4.156 4.216 4.566 4.556 4.466 4.566 4.776 4.656 4.576 4.606
2092.941 4.566 4.526 4.416 4.486 4.686 4.766 4.766 4.806 4.786 4.926
2112.231 5.016 4.916 4.946 4.826 4.776 4.736 4.656 4.606 4.436 4.546
2131.521 4.596 4.676 4.706 4.356 4.256 4.086 3.986 4.086 4.136 4.336
2150.810 4.286 4.116 3.966 4.016 4.036 4.076 4.126 4.146 4.286 4.146
2170.100 4.206 4.356 4.206 4.226 4.416 4.426 4.556 4.426 4.446 4.566
2189.390 4.656 4.686 4.486 4.726 4.866 4.806 5.026 5.266 5.026 4.966
2208.680 4.946 4.836 4.936 5.046 5.126 5.256 5.336 5.186 5.396 5.646
2227.970 5.726 5.926 5.836 5.686 5.706 5.886 5.906 5.806 5.946 5.936
2247.259 5.736 5.576 5.566 5.726 5.816 5.636 5.556 5.566 5.666 5.796
2266.549 5.946 6.006 6.136 6.086 6.306 6.346 6.416 6.546 6.276 6.406
2285.839 6.576 6.506 6.406 6.776 7.086 7.076 7.046 7.186 7.456 7.416
2305.129 7.316 7.296 7.286 7.416 7.436 7.586 7.746 7.846 7.846 7.666
2324.418 7.686 7.996 8.376 8.416 8.336 8.276 8.376 8.436 8.296 8.536
2343.708 8.846 9.036 9.006 8.936 9.016 9.056 8.916 9.066 9.236 9.106
2362.998 9.276 8.986 8.896 9.176 9.286 9.356 9.256 9.176 8.816 8.616
2382.288 8.786 8.816 8.616 8.656 8.856 8.976 8.906 8.836 9.066 9.106
2401.578 8.966 8.756 8.686 8.736 8.936 8.936 8.926 9.106 8.996 8.796
2420.867 8.906 8.856 8.686 8.826 8.936 8.906 8.776 8.866 8.876 9.016
2440.157 9.446 9.396 9.186 9.326 9.196 8.966 8.946 8.676 8.906 9.116
2459.447 8.936 8.786 8.786 8.716 8.636 8.856 8.876 8.726 8.666 8.656
2478.737 8.666 8.796 8.816 8.566 8.476 8.716 8.666 8.466 8.356 8.426
2498.026 8.766 8.906 8.866 8.976 8.916 8.796 9.006 9.166 9.406 9.506
2517.316 9.416 9.386 9.526 9.556 9.626 9.646 9.706 9.946 10.166 10.216
2536.606 9.876 9.786 9.786 9.726 9.896 10.006 9.826 9.686 9.586 9.236
2555.896 8.846 8.696 8.636 8.796 8.636 8.476 8.586 8.266 7.946 7.786
2575.186 7.856 8.046 7.996 7.786 7.736 7.676 7.726 7.616 7.266 7.386
2594.475 7.376 7.416 7.656 7.706 7.566 7.416 7.606 7.816 7.666 7.416
2613.765 7.556 7.626 7.606 7.896 7.756 7.496 7.606 7.716 7.786 7.556
2633.055 7.546 7.836 7.576 7.606 7.756 7.576 7.616 7.596 7.686 7.916
2652.345 8.036 8.086 8.066 7.826 7.756 7.946 7.966 8.266 8.066 7.826
2671.634 7.806 8.006 8.286 7.866 7.896 8.166 8.286 8.376 7.966 7.786
2690.924 8.266 8.456 8.196 8.236 8.466 8.526 8.396 8.806 9.366 9.146
2710.214 9.176 9.076 9.106 9.176 8.986 9.156 9.026 8.986 9.006 9.236
2729.504 9.276 9.106 9.366 9.096 8.566 8.516 9.016 9.166 9.166 9.246
2748.794 9.156 9.326 9.306 9.466 9.426 8.906 8.896 9.026 8.906 9.046
2768.083 9.106 9.376 9.626 9.506 9.326 9.476 9.586 9.186 9.216 9.656
2787.373 9.796 10.136 10.386 10.186 10.126 9.886 9.906 10.156 10.276 10.296
2806.663 10.126 9.946 9.566 9.546 10.156 10.336 10.436 10.566 10.386 10.596
2825.953 10.606 10.616 10.856 11.006 11.246 10.966 10.746 10.866 11.096 11.096
2845.242 10.886 11.106 11.166 11.196 11.476 11.536 11.656 12.116 11.956 11.556
2864.532 11.656 11.656 11.776 11.976 11.916 11.656 11.646 11.976 11.866 11.536
2883.822 11.806 12.076 11.856 11.436 11.656 11.816 11.296 11.006 11.046 11.416
2903.112 11.426 11.406 11.696 11.966 12.366 12.326 11.836 11.686 11.786 11.356
2922.401 11.326 11.756 11.776 11.946 11.856 11.366 11.636 12.006 11.956 12.196
2941.691 12.356 12.146 12.386 12.286 12.156 12.386 12.466 12.506 12.676 12.476
2960.981 11.716 11.736 11.886 11.916 12.046 12.166 12.666 12.416 12.046 12.396
2980.271 12.206 11.966 12.026 12.226 12.616 12.476 12.226 12.276 12.626 12.846
2999.561 12.716 12.716 13.016 12.936 12.666 12.976 12.966 12.516 12.006 12.376
3018.850 12.626 12.516 12.436 12.446 12.456 12.426 12.726 12.096 12.166 12.456
3038.140 12.446 12.716 12.306 12.236 12.096 11.116 11.026 11.386 11.386 11.896
3057.430 12.286 12.236 11.746 11.826 11.936 11.456 11.516 11.796 12.166 12.086
3076.720 11.786 12.366 12.866 12.466 12.196 12.276 12.386 12.766 13.306 13.626
3096.009 13.746 13.366 13.336 13.906 14.346 14.716 14.926 15.316 15.376 16.036
3115.299 16.766 17.266 17.986 18.716 19.526 20.176 21.046 21.496 21.976 22.186
3134.589 21.976 22.266 21.866 20.826 19.956 19.226 18.666 17.376 16.346 15.946
3153.879 14.876 14.206 14.326 14.496 14.276 13.536 13.906 14.146 13.356 12.886
3173.169 13.056 13.006 12.256 12.186 12.536 12.866 12.906 12.166 11.946 12.336
3192.458 12.626 12.636 12.496 12.436 12.466 12.476 12.856 12.776 12.176 12.416
3211.748 12.406 11.686 11.206 11.616 12.156 12.646 12.796 12.716 12.886 12.866
3231.038 12.266 12.186 12.396 12.426 12.526 12.386 12.376 12.496 12.096 12.296
3250.328 12.556 12.366 11.886 11.656 12.186 12.346 12.476 12.186 11.776 11.596
3269.617 11.926 12.176 12.086 12.176 11.826 11.546 11.846 12.016 11.366 10.946
3288.907 11.036 10.856 10.816 11.316 11.426 11.256 10.816 10.296 10.836 10.946
3308.197 10.846 10.726 9.996 9.606 10.106 10.686 10.736 10.596 10.146 9.556
3327.487 9.546 10.026 9.986 10.016 10.456 10.436 10.076 9.956 9.736 9.686
3346.777 10.196 10.106 9.656 9.636 9.296 9.156 9.486 9.616 9.616 9.886
3366.066 9.506 8.826 8.816 8.586 8.316 8.156 8.286 8.506 7.996 7.996
3385.356 7.526 6.896 7.276 7.286 7.086 7.276 7.266 6.936 6.366 6.426
3404.646 6.846 6.436 6.526 6.426 5.876 6.046 6.116 5.606 5.836 6.166
3423.936 6.066 5.846 5.716 6.026 5.856 5.586 5.046 4.556 4.846 4.886
3443.225 4.686 4.646 4.816 5.126 4.786 4.256 4.426 4.976 5.006 4.436
3462.515 4.366 4.366 4.116 3.806 3.896 4.706 5.206 4.776 4.416 4.266
3481.805 3.686 4.116 4.266 3.906 4.066 3.766 3.576 3.866 3.996 3.666
3501.095 3.466 3.286 3.596 4.366 4.216 4.246 4.486 4.546 4.236 3.856
3520.385 3.916 4.126 4.206 3.466 3.726 4.026 3.576 3.916 3.826 3.136
3539.674 3.436 3.646 2.916 3.226 3.466 3.036 2.536 2.246 2.886 2.936
3558.964 2.316 2.196 2.356 2.616 2.456 1.976 1.8028 1.966 1.7591 1.3736
3578.254 2.066 2.166 1.6058 1.926 1.956 1.826 2.266 2.426 2.516 2.176
3597.544 1.966 1.856 1.484 2.016 2.186 1.7688 1.936 2.166 2.366 2.956
3616.833 2.846 2.226 2.096 2.186 2.466 2.166 1.5568 1.5867 1.4413 1.2697
3636.123 1.5736 1.4652 1.3352 1.5214 1.6561 1.806 1.5364 1.3405 1.5921 1.4693
3655.413 1.5776 1.7473 1.816 1.6626 0.673 0.696 1.3597 1.0153 1.0105 0.9336
3674.703 0.682 0.704 0.82349 1.4407 1.7202 1.7571 2.126 1.7717 1.1149 1.1083
3693.993 0.9827 1.2221 1.7788 1.4001 1.0764 1.0301 0.9243 0.9794 1.2 1.5366
3713.282 1.2166 0.7481 0.57 0.705 0.8558 1.3513 1.4095 1.0186 1.0087 1.3881
3732.572 1.4964 1.2114 0.87059 0.83746 1.2648 1.2195 1.4539 1.6922 1.0828 0.704
3751.862 0.466 0.234 0.54 0.9236 0.9701 0.9461 1.3334 1.4204 1.4937 1.028
3771.152 0.87077 1.3479 1.0661 0.706 0.88461 1.0043 0.647 0.7759 1.0804 1.1904
3790.441 1.3499 1.5843 1.131 0.478 0.646 0.9738 1.3781 1.1425 0.7617 0.686
3809.731 0.474 0.495 1.0307 1.7045 1.7553 1.0088 0.7732 0.80073 0.89509 1.3217
3829.021 1.3181 1.249 0.613 0.474 0.9933 0.86938 0.431 0.51 1.0663 1.1632
3848.311 1.1258 1.1442 1.1283 1.3206 1.3005 0.80334 0.292 0.496 0.89671 0.83537
3867.601 0.625 0.262 0.394 0.316 0.478 0.89178 0.468 1.4169 1.5735 1.3499
3886.890 1.51 0.9695 0.88631 0.64 0.9325 1.1352 1.1572 1.3182 1.5728 1.2963
3906.180 0.5 0 0.417 0.8405 0.85422 1.0799 0.641 0.637 1.3077 1.2129
3925.470 0.80494 0.581 0.211 0.528 0.646 0.685 0.7198 0.609 1.0873 1.0469
3944.760 0.7489 1.0422 1.3971 0.8756 0.237 0.62 0.673 0.655 1.6049 1.1996
3964.049 0.583 0.4 0.463 0.8926 1.3318 1.0989 0.7561 1.1163 0.7691 1.0909
3983.339 1.4014 1.0008 0.627 0.7657 1.2379 1.1599 1.3487 1.5299 1.1344 0.7876
##END=
