##TITLE=3-Methoxyphenoxyacetic acid
##JCAMP-DX=4.24
##DATA TYPE=INFRARED SPECTRUM
##ORIGIN=EPA-IR VAPOR PHASE LIBRARY
##OWNER=SRD/NIST
Collection (C) 2018 copyright by the U.S. Secretary of Commerce
on behalf of the United States of America. All rights reserved.
##CAS REGISTRY NO=2088-24-6
##MOLFORM=C 9 H 10 O 4
##$NIST SOURCE=MSDC-IR
##STATE=gas
##XUNITS=1/CM
##YUNITS=ABSORBANCE
##XFACTOR=1.
##YFACTOR=0.001
##DELTAX=1.929
##FIRSTX=549.8
##LASTX=4000.8
##FIRSTY=6.652
##MAXX=4000.75
##MINX=549.766
##MAXY=0.060992
##MINY=0
##NPOINTS=1790
##XYDATA=(X++(Y..Y))
549.766 6.652 6.742 6.692 6.722 6.752 6.902 7.072 7.212 7.012 6.902
569.056 7.352 7.552 7.572 7.642 7.642 7.552 7.402 7.452 7.382 7.322
588.346 7.482 7.672 7.782 7.782 7.782 7.822 7.962 8.222 8.322 8.462
607.636 8.742 8.842 8.822 8.852 9.062 9.172 9.082 9.002 8.892 8.802
626.926 8.742 8.612 8.552 8.432 8.052 7.802 7.792 7.702 7.482 7.242
646.216 7.192 7.082 6.882 6.752 6.642 6.562 6.532 6.432 6.342 6.462
665.506 6.742 7.072 7.332 7.632 8.032 8.522 8.982 9.382 9.762 10.022
684.796 9.892 9.372 8.672 7.822 7.032 6.312 5.552 4.812 4.202 3.772
704.086 3.412 3.052 2.812 2.672 2.562 2.512 2.482 2.492 2.552 2.642
723.376 2.662 2.722 2.812 2.822 2.882 3.082 3.222 3.342 3.492 3.642
742.666 3.882 4.172 4.672 5.222 5.682 6.172 6.582 6.972 7.312 7.582
761.956 7.702 7.592 7.372 7.062 6.642 6.122 5.502 4.792 4.102 3.562
781.246 3.102 2.652 2.252 2.032 1.832 1.592 1.5171 1.4265 1.3767 1.3705
800.536 1.3654 1.4102 1.3656 1.4162 1.622 1.752 1.932 2.072 2.162 2.482
819.826 2.782 2.982 3.262 3.522 3.862 4.352 4.742 5.112 5.492 5.732
839.116 5.842 6.012 6.142 6.162 6.162 6.132 6.112 5.992 5.802 5.722
858.406 5.592 5.432 5.262 4.982 4.732 4.512 4.242 3.862 3.562 3.362
877.696 3.132 2.972 2.812 2.692 2.672 2.692 2.652 2.662 2.842 3.042
896.986 3.302 3.552 3.832 4.122 4.382 4.712 5.132 5.502 5.802 6.062
916.276 6.282 6.382 6.402 6.392 6.222 5.882 5.502 5.122 4.662 4.302
935.566 4.042 3.692 3.402 3.212 3.002 2.812 2.622 2.482 2.362 2.222
954.856 2.132 2.102 2.042 1.972 2.002 1.982 2.002 2.082 2.132 2.242
974.146 2.312 2.392 2.482 2.542 2.682 2.822 2.942 3.082 3.242 3.452
993.436 3.562 3.632 3.732 3.822 3.912 3.962 3.932 4.012 4.212 4.422
1012.726 4.622 4.932 5.352 5.842 6.422 7.062 7.882 8.812 9.782 10.942
1032.016 12.152 13.512 15.052 16.462 17.862 19.142 20.252 21.252 21.992 22.442
1051.306 22.602 22.462 22.132 21.662 21.172 20.752 20.372 20.122 20.092 20.242
1070.596 20.492 20.902 21.362 21.782 22.092 22.182 21.962 21.422 20.602 19.472
1089.886 18.152 16.792 15.602 14.622 13.962 13.802 14.152 14.992 16.372 18.232
1109.176 20.412 22.892 25.542 28.052 30.152 31.702 32.732 33.142 32.952 32.432
1128.467 31.942 31.772 32.132 33.272 35.322 38.322 42.022 46.352 50.852 54.832
1147.757 58.222 60.392 60.992 60.022 57.572 54.182 50.482 47.062 44.122 41.782
1167.047 39.812 38.102 36.462 34.622 32.792 30.942 29.232 28.042 27.522 27.832
1186.337 28.762 30.032 31.372 32.442 33.032 32.892 31.982 30.352 28.192 25.662
1205.627 23.022 20.402 17.962 15.732 13.742 12.202 11.032 10.132 9.432 9.012
1224.917 8.692 8.422 8.312 8.392 8.552 8.812 9.202 9.652 10.222 10.992
1244.207 11.922 12.922 14.132 15.462 16.842 18.312 19.762 21.052 22.212 23.222
1263.497 23.992 24.542 25.042 25.492 25.812 26.142 26.542 27.022 27.482 27.842
1282.787 27.972 27.852 27.442 26.662 25.592 24.312 22.932 21.512 20.142 18.792
1302.077 17.622 16.632 15.802 15.212 14.732 14.412 14.342 14.422 14.582 14.822
1321.367 15.162 15.592 16.062 16.452 16.782 17.052 17.252 17.392 17.342 17.132
1340.657 16.782 16.272 15.652 15.002 14.332 13.632 13.052 12.522 11.982 11.492
1359.947 11.032 10.572 10.072 9.542 9.002 8.462 7.952 7.482 7.032 6.662
1379.237 6.312 6.062 5.892 5.732 5.592 5.482 5.402 5.312 5.262 5.222
1398.527 5.202 5.172 5.112 5.072 4.982 4.922 4.952 4.982 5.032 5.082
1417.817 5.222 5.462 5.792 6.242 6.762 7.362 8.062 8.902 9.782 10.692
1437.107 11.762 12.782 13.642 14.372 14.902 15.262 15.452 15.472 15.402 15.262
1456.397 15.092 14.952 14.942 14.922 14.882 14.902 15.052 15.422 16.072 17.142
1475.687 18.682 20.762 23.322 26.322 29.562 32.662 35.022 36.182 35.882 34.132
1494.977 31.102 27.032 22.532 18.032 14.022 10.942 8.622 7.002 5.942 5.212
1514.267 4.712 4.342 4.072 3.852 3.702 3.612 3.582 3.552 3.552 3.592
1533.557 3.632 3.672 3.732 3.812 3.912 3.982 4.122 4.312 4.462 4.622
1552.847 4.822 5.062 5.352 5.752 6.202 6.712 7.362 8.132 9.072 10.222
1572.137 11.642 13.412 15.642 18.242 21.202 24.622 28.432 32.482 36.632 40.712
1591.427 44.382 47.342 49.322 50.132 49.612 47.852 45.152 41.942 38.582 35.262
1610.717 32.142 29.212 26.472 23.762 21.132 18.642 16.282 14.062 11.972 10.162
1630.007 8.682 7.472 6.462 5.642 5.002 4.452 3.992 3.602 3.282 3.022
1649.297 2.742 2.572 2.432 2.312 2.202 2.092 2.002 1.942 1.862 1.792
1668.587 1.742 1.702 1.692 1.692 1.702 1.722 1.672 1.652 1.692 1.702
1687.877 1.712 1.712 1.722 1.712 1.752 1.812 1.862 1.932 2.002 2.072
1707.167 2.112 2.152 2.172 2.222 2.322 2.392 2.512 2.632 2.772 2.952
1726.457 3.132 3.312 3.552 3.812 4.062 4.382 4.722 5.092 5.522 5.932
1745.747 6.362 6.832 7.292 7.792 8.332 8.932 9.642 10.382 11.282 12.422
1765.037 13.782 15.502 17.652 20.152 22.922 25.522 27.662 29.202 30.142 30.442
1784.327 29.872 28.672 27.352 26.372 26.072 26.522 27.672 29.422 31.562 33.802
1803.617 35.902 37.592 38.512 38.502 37.502 35.552 32.852 29.602 26.002 22.342
1822.907 18.922 15.912 13.452 11.522 9.962 8.712 7.742 6.912 6.222 5.672
1842.197 5.172 4.712 4.292 3.922 3.612 3.342 3.072 2.862 2.672 2.462
1861.487 2.302 2.172 2.102 2.042 1.922 1.822 1.752 1.662 1.602 1.562
1880.777 1.5158 1.4575 1.417 1.3914 1.3544 1.3368 1.3501 1.3534 1.3288 1.3365
1900.067 1.3367 1.3167 1.3293 1.3356 1.3103 1.2767 1.2404 1.2001 1.1441 1.0977
1919.357 1.0295 0.9915 0.9767 0.9043 0.8298 0.7767 0.7512 0.7462 0.7053 0.6628
1938.647 0.6732 0.6682 0.6659 0.62923 0.60161 0.62632 0.62309 0.64565 0.64647 0.61187
1957.937 0.58091 0.58226 0.61233 0.60706 0.59147 0.59588 0.60934 0.60308 0.57826 0.57395
1977.227 0.57707 0.56556 0.57861 0.557265 0.5332 0.55222 0.559479 0.57442 0.59105 0.59077
1996.517 0.58202 0.56212 0.555604 0.54575 0.5407 0.57439 0.58396 0.552817 0.54728 0.552987
2015.807 0.54418 0.5722 0.54859 0.4993 0.54446 0.59888 0.6078 0.58248 0.555485 0.557149
2035.097 0.59302 0.61897 0.61237 0.60439 0.57201 0.551643 0.58379 0.59822 0.59968 0.5991
2054.387 0.62427 0.62966 0.61971 0.63064 0.60008 0.551671 0.58257 0.62359 0.62654 0.6644
2073.677 0.6664 0.6538 0.64206 0.5845 0.58934 0.61551 0.60521 0.61259 0.62029 0.60768
2092.967 0.58946 0.56575 0.5082 0.4983 0.5028 0.4869 0.4786 0.5013 0.5054 0.4859
2112.257 0.487 0.489 0.4693 0.451 0.4652 0.4676 0.4818 0.4687 0.4625 0.494
2131.547 0.5013 0.4875 0.4995 0.5377 0.54737 0.5289 0.5001 0.5259 0.54855 0.544
2150.837 0.56101 0.58338 0.58387 0.54359 0.560195 0.60854 0.61164 0.61585 0.60083 0.6353
2170.127 0.6797 0.7277 0.7577 0.7061 0.7021 0.7128 0.74 0.7609 0.7561 0.7878
2189.417 0.8003 0.7532 0.7109 0.7327 0.7181 0.6849 0.706 0.6974 0.702 0.6843
2208.707 0.6716 0.7045 0.673 0.64602 0.63598 0.60778 0.61089 0.60697 0.59098 0.57265
2227.997 0.557035 0.5252 0.4998 0.5345 0.554354 0.54911 0.5206 0.5101 0.5151 0.49
2247.287 0.4666 0.431 0.399 0.401 0.372 0.38 0.406 0.394 0.376 0.335
2266.577 0.326 0.305 0.293 0.311 0.329 0.332 0.291 0.263 0.274 0.292
2285.868 0.334 0.356 0.363 0.373 0.384 0.403 0.427 0.451 0.444 0.4613
2305.158 0.488 0.5077 0.54815 0.59058 0.59957 0.62961 0.6636 0.6759 0.6941 0.7176
2324.448 0.7527 0.7485 0.7162 0.6933 0.6837 0.7194 0.7454 0.7333 0.7063 0.6898
2343.738 0.6644 0.64105 0.6268 0.60132 0.63586 0.7128 0.8108 0.8299 0.8193 0.8285
2363.028 0.7903 0.7642 0.7778 0.7977 0.7797 0.7517 0.6907 0.6534 0.6591 0.62635
2382.318 0.57425 0.4943 0.447 0.45 0.444 0.4715 0.522 0.4924 0.427 0.4
2401.608 0.389 0.414 0.429 0.441 0.435 0.423 0.43 0.418 0.443 0.4558
2420.898 0.451 0.4875 0.5356 0.5252 0.5076 0.4598 0.446 0.5001 0.4894 0.4674
2440.188 0.459 0.446 0.401 0.406 0.41 0.402 0.425 0.407 0.396 0.386
2459.478 0.423 0.4656 0.4641 0.437 0.421 0.428 0.413 0.42 0.4631 0.4643
2478.768 0.4567 0.424 0.358 0.378 0.422 0.4538 0.443 0.443 0.421 0.376
2498.058 0.376 0.366 0.37 0.32 0.31 0.356 0.367 0.35 0.319 0.347
2517.348 0.371 0.347 0.326 0.282 0.291 0.318 0.324 0.354 0.341 0.328
2536.638 0.319 0.319 0.296 0.286 0.304 0.32 0.323 0.274 0.285 0.318
2555.928 0.312 0.338 0.351 0.345 0.383 0.349 0.298 0.304 0.301 0.305
2575.218 0.299 0.286 0.31 0.334 0.323 0.291 0.308 0.35 0.363 0.336
2594.508 0.294 0.29 0.302 0.287 0.26 0.263 0.292 0.295 0.267 0.229
2613.798 0.262 0.264 0.215 0.225 0.239 0.253 0.26 0.261 0.255 0.257
2633.088 0.232 0.19 0.182 0.147 0.187 0.213 0.173 0.128 0.129 0.208
2652.378 0.167 0.151 0.173 0.157 0.191 0.205 0.196 0.205 0.204 0.196
2671.668 0.186 0.175 0.192 0.222 0.229 0.181 0.176 0.214 0.219 0.216
2690.958 0.194 0.177 0.226 0.242 0.227 0.204 0.206 0.252 0.251 0.273
2710.248 0.277 0.235 0.248 0.259 0.252 0.267 0.193 0.166 0.213 0.226
2729.538 0.258 0.28 0.289 0.315 0.291 0.266 0.279 0.243 0.233 0.232
2748.828 0.247 0.292 0.313 0.336 0.339 0.296 0.324 0.443 0.5098 0.4685
2768.118 0.43 0.421 0.45 0.4775 0.498 0.5142 0.448 0.413 0.4552 0.5138
2787.408 0.5995 0.60502 0.553934 0.58422 0.64488 0.62727 0.5352 0.55021 0.60584 0.6555
2806.698 0.6839 0.7082 0.7392 0.8011 0.9347 1.0367 1.0988 1.1151 1.2044 1.4212
2825.988 1.652 1.862 2.072 2.312 2.692 3.202 3.682 4.072 4.392 4.622
2845.278 4.782 4.802 4.702 4.412 4.012 3.572 3.212 2.992 2.792 2.622
2864.568 2.562 2.482 2.412 2.402 2.382 2.402 2.492 2.492 2.412 2.392
2883.858 2.412 2.522 2.682 2.832 2.942 3.052 3.202 3.322 3.452 3.602
2903.148 3.792 3.992 4.222 4.402 4.602 4.892 5.152 5.392 5.702 5.962
2922.438 6.152 6.392 6.572 6.792 7.052 7.272 7.612 8.002 8.442 8.852
2941.728 9.232 9.632 9.892 10.082 10.102 10.032 9.922 9.512 9.092 8.742
2961.018 8.262 7.812 7.322 6.762 6.302 5.892 5.402 5.002 4.712 4.352
2980.308 4.032 3.832 3.712 3.612 3.582 3.632 3.712 3.912 4.132 4.452
2999.598 4.852 5.272 5.742 6.042 6.212 6.162 5.962 5.632 5.172 4.702
3018.888 4.142 3.592 3.122 2.762 2.622 2.612 2.522 2.472 2.462 2.492
3038.178 2.532 2.532 2.542 2.522 2.492 2.412 2.232 2.092 2.082 2.102
3057.468 2.102 2.082 2.072 2.172 2.252 2.302 2.332 2.392 2.562 2.682
3076.758 2.762 2.862 2.892 2.992 3.052 3.042 3.072 3.042 2.992 2.772
3096.048 2.552 2.432 2.182 2.002 1.832 1.612 1.4364 1.2364 1.0433 0.9071
3115.338 0.8466 0.7783 0.7258 0.63336 0.61442 0.58016 0.4647 0.426 0.387 0.353
3134.628 0.397 0.389 0.315 0.324 0.322 0.246 0.223 0.261 0.251 0.246
3153.918 0.257 0.171 0.116 0.225 0.294 0.3 0.279 0.264 0.297 0.229
3173.208 0.108 0.04 0.098 0.143 0.115 0.078 0.111 0.108 0.105 0.127
3192.498 0.084 0.122 0.137 0.136 0.15 0.126 0.09 0.075 0.127 0.15
3211.788 0.146 0.138 0.114 0.135 0.141 0.088 0.083 0.166 0.124 0
3231.078 0.065 0.155 0.102 0.028 0.078 0.124 0.121 0.101 0.074 0.118
3250.368 0.143 0.135 0.096 0.088 0.172 0.187 0.12 0.058 0.08 0.057
3269.658 0.062 0.107 0.052 0.048 0.078 0.067 0.089 0.118 0.113 0.109
3288.948 0.121 0.142 0.143 0.118 0.064 0.059 0.115 0.128 0.173 0.207
3308.238 0.153 0.16 0.139 0.109 0.109 0.141 0.137 0.103 0.068 0.044
3327.528 0.088 0.092 0.098 0.143 0.144 0.062 0.068 0.103 0.007 0.028
3346.818 0.072 0.015 0.034 0.065 0.079 0.164 0.176 0.108 0.072 0.109
3366.108 0.113 0.071 0.039 0.078 0.152 0.162 0.205 0.173 0.087 0.079
3385.398 0.057 0.043 0.136 0.222 0.19 0.115 0.106 0.124 0.11 0.16
3404.688 0.193 0.179 0.177 0.198 0.221 0.275 0.276 0.183 0.222 0.332
3423.978 0.299 0.199 0.203 0.271 0.309 0.313 0.301 0.258 0.293 0.345
3443.269 0.254 0.29 0.337 0.261 0.336 0.377 0.397 0.4963 0.4988 0.407
3462.559 0.334 0.339 0.411 0.407 0.416 0.4634 0.4742 0.54678 0.6659 0.6993
3481.849 0.7325 0.8342 0.8722 0.8934 0.9901 1.0899 1.2222 1.4497 1.612 1.782
3501.139 1.932 2.092 2.352 2.662 2.962 3.322 3.732 4.222 4.862 5.482
3520.429 6.022 6.492 6.822 6.962 6.852 6.472 6.172 5.792 5.332 4.832
3539.719 4.472 4.212 3.952 3.772 3.592 3.522 3.522 3.622 3.812 4.082
3559.009 4.612 5.412 6.332 7.682 9.532 11.502 13.362 14.832 15.852 16.192
3578.299 15.672 14.352 12.582 10.632 8.582 6.772 5.342 4.172 3.352 2.842
3597.589 2.382 2.022 1.792 1.582 1.3144 1.2294 1.2816 1.1401 0.9775 0.8916
3616.879 0.8007 0.7651 0.7456 0.7352 0.7135 0.64369 0.56268 0.5227 0.5078 0.4626
3636.169 0.43 0.401 0.4531 0.4832 0.438 0.402 0.307 0.248 0.201 0.178
3655.459 0.295 0.397 0.369 0.347 0.329 0.318 0.331 0.316 0.231 0.156
3674.749 0.125 0.195 0.218 0.203 0.255 0.282 0.259 0.229 0.256 0.259
3694.039 0.215 0.195 0.238 0.289 0.253 0.232 0.217 0.229 0.253 0.23
3713.329 0.262 0.251 0.294 0.347 0.286 0.164 0.251 0.376 0.313 0.276
3732.619 0.248 0.219 0.214 0.301 0.362 0.295 0.291 0.238 0.118 0.134
3751.909 0.244 0.256 0.241 0.272 0.3 0.316 0.309 0.252 0.191 0.185
3771.199 0.209 0.235 0.22 0.225 0.268 0.335 0.295 0.216 0.194 0.242
3790.489 0.222 0.145 0.177 0.265 0.337 0.21 0.101 0.187 0.213 0.268
3809.779 0.295 0.155 0.096 0.122 0.106 0.127 0.199 0.26 0.211 0.24
3829.069 0.3 0.242 0.259 0.261 0.26 0.284 0.153 0.058 0.08 0.112
3848.359 0.152 0.134 0.181 0.316 0.288 0.227 0.241 0.289 0.352 0.282
3867.649 0.236 0.247 0.282 0.311 0.221 0.192 0.217 0.187 0.178 0.096
3886.939 0.127 0.233 0.165 0.074 0.14 0.263 0.235 0.132 0.061 0.155
3906.229 0.26 0.199 0.102 0.177 0.288 0.185 0.166 0.199 0.177 0.262
3925.519 0.219 0.132 0.247 0.307 0.183 0.247 0.3 0.207 0.277 0.295
3944.809 0.276 0.249 0.221 0.296 0.301 0.2 0.187 0.263 0.257 0.205
3964.099 0.273 0.341 0.314 0.296 0.161 0.072 0.215 0.32 0.331 0.307
3983.389 0.29 0.334 0.337 0.341 0.372 0.333 0.301 0.293 0.26 0.251
##END=
