##TITLE=1-(2-Naphthyl)-3-(2-thienyl)-prop-2-en-1-one
##JCAMP-DX=4.24
##DATA TYPE=INFRARED SPECTRUM
##ORIGIN=EPA-IR VAPOR PHASE LIBRARY
##OWNER=SRD/NIST
Collection (C) 2018 copyright by the U.S. Secretary of Commerce
on behalf of the United States of America. All rights reserved.
##CAS REGISTRY NO=20894-63-7
##MOLFORM=C 17 H 12 O S
##$NIST SOURCE=MSDC-IR
##STATE=gas
##XUNITS=1/CM
##YUNITS=ABSORBANCE
##XFACTOR=1.
##YFACTOR=0.001
##DELTAX=1.92898
##FIRSTX=549.8
##LASTX=4000.7
##FIRSTY=1.701
##MAXX=4000.7
##MINX=549.759
##MAXY=0.058371
##MINY=0
##NPOINTS=1790
##XYDATA=(X++(Y..Y))
549.759 1.701 2.371 3.601 4.391 5.391 6.581 7.011 7.001 6.761 6.681
569.049 6.711 6.601 6.391 6.191 5.291 4.121 3.751 3.101 2.171 1.671
588.339 1.351 1.1962 1.401 1.1984 1.0136 0.9318 1.1232 1.721 1.561 1.1985
607.628 1.301 1.391 1.0949 0.5116 0.6695 1.0746 0.7146 0.7464 1.1971 1.0986
626.918 0.4738 0.006 0.083 0.5517 0.8715 1.0094 0.9638 0.85 0.5875 0.7229
646.208 0.9563 0.5132 0.36684 0.7558 0.8544 0.7149 0.8811 0.9963 0.968 1.401
665.498 1.751 2.001 2.661 3.361 4.011 4.771 5.311 5.101 4.891 5.091
684.787 5.731 6.911 8.661 11.161 14.151 16.881 19.251 20.461 19.131 17.041
704.077 15.051 12.321 10.161 8.601 7.321 6.821 6.511 6.061 5.451 4.681
723.367 4.111 3.791 3.851 3.991 3.871 3.821 4.411 5.741 7.401 8.991
742.657 10.351 11.561 11.851 10.601 8.671 6.961 5.361 4.251 3.821 3.531
761.947 3.111 2.831 2.741 2.481 2.281 2.221 2.231 2.341 2.111 2.121
781.236 2.181 2.021 2.521 2.741 2.881 3.351 3.771 4.021 4.661 5.981
800.526 7.041 8.331 10.411 12.291 13.561 14.591 15.551 15.431 14.391 12.701
819.816 10.881 9.331 7.271 6.201 5.511 4.571 4.031 3.591 3.461 3.641
839.106 3.921 4.311 4.811 5.581 6.451 7.081 7.511 8.241 8.891 8.821
858.395 8.221 6.951 5.711 4.831 4.001 3.241 2.921 2.731 2.411 2.451
877.685 2.371 1.901 1.791 1.731 1.741 2.071 2.271 2.341 2.161 2.241
896.975 2.491 2.491 2.241 2.031 2.101 2.131 2.311 2.491 2.331 2.021
916.265 1.911 1.801 1.941 2.051 1.981 1.851 1.891 2.531 2.911 3.111
935.555 3.221 3.731 4.741 5.511 6.561 7.581 8.071 8.471 8.501 7.851
954.844 7.151 6.831 7.121 7.701 8.161 8.281 8.441 8.261 7.511 7.011
974.134 6.281 5.261 4.601 4.401 4.471 4.281 3.871 3.841 4.191 4.151
993.424 3.961 4.081 4.901 6.121 6.571 7.071 7.941 9.001 10.031 10.531
1012.714 10.041 8.661 7.431 7.121 7.491 7.471 7.001 6.751 6.531 6.351
1032.003 6.721 7.831 9.111 10.061 10.861 11.291 10.251 8.321 6.551 5.191
1051.293 4.251 3.571 3.471 3.551 3.481 3.441 3.531 3.131 2.821 3.271
1070.583 3.031 2.391 1.821 1.571 2.271 2.411 2.041 1.2309 0.9417 1.481
1089.873 1.286 0.6664 1.581 2.561 2.151 1.541 2.171 3.001 1.961 2.151
1109.163 2.631 2.301 3.271 4.411 5.421 7.121 10.231 13.931 16.881 19.041
1128.452 19.071 15.841 11.801 8.601 6.071 5.201 4.691 3.791 4.341 4.881
1147.742 4.251 4.421 5.721 6.441 6.761 7.191 7.701 8.501 9.931 12.261
1167.032 14.641 17.861 20.651 21.561 22.131 22.961 23.031 21.541 19.551 17.821
1186.322 15.201 13.351 12.371 11.181 11.201 11.611 11.601 11.781 11.731 12.061
1205.611 12.211 11.461 11.091 10.071 10.011 10.751 10.561 10.571 10.451 10.471
1224.901 11.181 11.091 10.311 10.081 9.021 7.741 7.631 7.651 7.241 6.271
1244.191 6.181 6.331 5.921 5.391 4.991 5.451 6.091 6.591 6.901 7.531
1263.481 8.591 9.601 10.481 11.241 12.611 14.321 16.261 18.681 22.381 26.971
1282.771 31.031 33.711 33.721 30.691 25.981 21.491 18.101 16.211 15.561 15.631
1302.060 16.311 17.191 17.611 17.431 16.641 15.091 12.971 10.821 8.681 6.831
1321.350 5.721 4.841 4.171 3.701 3.411 3.331 3.191 3.231 3.381 3.411
1340.640 3.601 4.101 4.751 5.591 6.481 7.221 7.961 8.711 9.681 10.681
1359.930 11.581 12.391 12.791 12.571 11.661 10.281 8.741 7.361 6.471 6.061
1379.219 5.741 5.491 5.291 4.961 4.661 4.481 4.301 4.101 3.911 3.641
1398.509 3.301 2.921 2.661 2.531 2.461 2.561 2.811 2.971 3.091 3.241
1417.799 3.421 3.571 3.551 3.531 3.461 3.471 3.491 3.461 3.421 3.311
1437.089 3.161 2.891 2.691 2.601 2.311 2.091 2.071 2.021 2.151 2.461
1456.378 2.761 3.021 3.441 4.091 4.711 5.161 5.351 5.201 4.771 4.081
1475.668 3.291 2.721 2.291 1.971 1.841 1.841 1.781 1.781 1.771 1.811
1494.958 2.131 2.261 2.361 2.721 3.021 3.221 3.491 3.661 3.981 4.511
1514.248 4.801 4.821 4.521 4.001 3.321 2.711 2.351 2.181 2.051 1.921
1533.538 1.961 1.991 1.971 1.961 1.961 2.031 2.151 2.111 2.151 2.251
1552.827 2.341 2.511 2.771 3.041 3.211 3.471 3.911 4.381 4.841 5.371
1572.117 5.781 6.371 7.141 7.881 8.681 9.691 10.941 12.541 14.821 17.561
1591.407 21.051 25.571 30.991 37.731 45.091 52.161 57.371 58.371 54.801 47.331
1610.697 38.361 30.321 24.321 20.061 17.031 15.141 13.961 13.341 13.021 12.641
1629.986 11.941 10.871 9.641 8.401 7.461 6.931 6.721 6.641 6.691 6.741
1649.276 6.881 7.561 8.471 9.531 11.201 13.411 15.971 18.911 21.991 25.191
1668.566 28.401 31.401 33.611 34.441 33.721 31.431 27.521 23.151 18.941 15.041
1687.856 12.141 9.931 8.181 6.811 5.871 5.091 4.591 4.211 3.751 3.501
1707.146 3.371 3.171 2.921 2.721 2.551 2.411 2.271 2.051 1.891 1.791
1726.435 1.631 1.611 1.581 1.441 1.351 1.331 1.471 1.501 1.351 1.2588
1745.725 1.351 1.471 1.481 1.491 1.511 1.441 1.461 1.571 1.591 1.491
1765.015 1.411 1.431 1.421 1.421 1.501 1.551 1.541 1.681 1.801 1.951
1784.305 2.101 2.241 2.431 2.481 2.461 2.341 2.081 1.871 1.731 1.561
1803.594 1.591 1.681 1.631 1.591 1.581 1.591 1.501 1.441 1.421 1.411
1822.884 1.491 1.521 1.401 1.321 1.411 1.421 1.2758 1.1149 1.1404 1.1012
1842.174 1.0184 1.0082 0.9568 0.944 0.829 0.7349 0.7688 0.8347 0.8514 0.8976
1861.464 0.9575 0.8986 0.8859 0.8839 0.941 0.9993 0.9148 0.8497 0.8829 0.8929
1880.754 0.898 0.8934 0.8154 0.8413 0.9749 1.0406 1.1033 1.1981 1.2321 1.2271
1900.043 1.1595 1.0534 1.0785 1.1594 1.1453 1.2597 1.2626 1.1595 1.1849 1.2113
1919.333 1.1959 1.1881 1.128 1.0452 1.0278 1.0768 1.2106 1.311 1.2992 1.2535
1938.623 1.1826 1.301 1.411 1.351 1.401 1.321 1.1119 1.0111 0.8625 0.6454
1957.913 0.5763 0.6225 0.5941 0.5602 0.5564 0.5036 0.5238 0.5967 0.5845 0.5239
1977.202 0.5739 0.6919 0.6294 0.4646 0.5613 0.62 0.5401 0.5934 0.5988 0.6092
1996.492 0.7253 0.7358 0.6285 0.571 0.5636 0.5962 0.546 0.531 0.615 0.5854
2015.782 0.5499 0.5962 0.6319 0.6309 0.5649 0.5304 0.5841 0.5144 0.5543 0.6645
2035.072 0.5679 0.4915 0.4912 0.5589 0.5439 0.4632 0.4501 0.4834 0.5344 0.6086
2054.362 0.4865 0.4125 0.5462 0.5629 0.5219 0.5207 0.4456 0.4438 0.5083 0.4712
2073.651 0.5551 0.6549 0.6408 0.6504 0.591 0.5138 0.6615 0.662 0.5472 0.5893
2092.941 0.5831 0.5928 0.5975 0.4976 0.5279 0.6044 0.5937 0.6277 0.6111 0.593
2112.231 0.6268 0.6132 0.5384 0.6049 0.6678 0.5828 0.5678 0.5879 0.55 0.5287
2131.521 0.6288 0.6117 0.538 0.5641 0.5111 0.5337 0.6955 0.6515 0.5768 0.6304
2150.810 0.5349 0.5327 0.61 0.473 0.5284 0.5937 0.583 0.6367 0.6223 0.6009
2170.100 0.5317 0.5737 0.6795 0.633 0.5486 0.5852 0.487 0.36018 0.4468 0.51
2189.390 0.4641 0.4566 0.5418 0.5508 0.5476 0.4984 0.5254 0.5348 0.4589 0.4744
2208.680 0.34493 0.36891 0.5189 0.4349 0.34353 0.3939 0.4223 0.5046 0.5607 0.5219
2227.970 0.4697 0.4976 0.5291 0.4624 0.5581 0.6433 0.5662 0.5516 0.5464 0.4787
2247.259 0.5209 0.5522 0.6473 0.7314 0.6293 0.5114 0.4801 0.5036 0.5583 0.6141
2266.549 0.5223 0.5466 0.617 0.5748 0.6901 0.7648 0.7426 0.7844 0.8425 0.7959
2285.839 0.7807 0.7265 0.6274 0.6859 0.7959 0.7547 0.6793 0.6933 0.6834 0.7225
2305.129 0.7019 0.6221 0.6198 0.6132 0.6013 0.6405 0.6694 0.6703 0.667 0.6653
2324.418 0.5382 0.5261 0.6449 0.5861 0.5726 0.6041 0.6758 0.731 0.6153 0.6343
2343.708 0.5846 0.5198 0.5746 0.5029 0.5396 0.6301 0.6097 0.6475 0.6309 0.6645
2362.998 0.803 0.6815 0.4594 0.4063 0.495 0.4771 0.5404 0.6001 0.5436 0.5953
2382.288 0.5274 0.5309 0.575 0.5236 0.4908 0.5172 0.4735 0.5366 0.6387 0.6344
2401.578 0.5984 0.4995 0.4929 0.5272 0.522 0.5126 0.6026 0.5986 0.4703 0.491
2420.867 0.6036 0.5714 0.519 0.5321 0.5408 0.5926 0.6041 0.5146 0.4859 0.5915
2440.157 0.6042 0.5255 0.5632 0.6535 0.6705 0.6335 0.6486 0.6356 0.6235 0.5818
2459.447 0.6888 0.8305 0.699 0.5806 0.5764 0.6681 0.7755 0.7184 0.6043 0.6182
2478.737 0.5613 0.5528 0.5903 0.5588 0.5899 0.4864 0.5536 0.7333 0.5982 0.4278
2498.026 0.31278 0.34943 0.38207 0.4255 0.4583 0.5257 0.5157 0.39562 0.4154 0.34496
2517.316 0.37239 0.4821 0.4871 0.4877 0.4836 0.4826 0.4548 0.4366 0.4992 0.4594
2536.606 0.4412 0.4575 0.4687 0.4586 0.4918 0.5345 0.5696 0.5746 0.5266 0.6017
2555.896 0.6493 0.4963 0.4322 0.5363 0.5489 0.5754 0.6414 0.5646 0.4566 0.4401
2575.186 0.36703 0.31348 0.2978 0.38027 0.5508 0.6905 0.7004 0.6561 0.5035 0.3391
2594.475 0.39698 0.5264 0.5101 0.5227 0.6708 0.6803 0.7209 0.7312 0.693 0.628
2613.765 0.672 0.7648 0.618 0.6568 0.7753 0.6874 0.7012 0.6827 0.5664 0.5434
2633.055 0.5485 0.5241 0.5322 0.5906 0.5688 0.5819 0.735 0.6517 0.5055 0.5151
2652.345 0.5066 0.6237 0.69 0.6228 0.4906 0.4985 0.6414 0.5573 0.4832 0.6738
2671.634 0.7778 0.6623 0.4514 0.4256 0.6318 0.7094 0.5853 0.5459 0.5774 0.4495
2690.924 0.406 0.5144 0.6328 0.597 0.6342 0.6092 0.4297 0.4247 0.4316 0.4601
2710.214 0.4376 0.39242 0.4941 0.4357 0.38318 0.4475 0.4532 0.448 0.4744 0.5457
2729.504 0.546 0.4602 0.4598 0.5686 0.5289 0.4646 0.4441 0.3539 0.303539 0.4942
2748.794 0.4957 0.4295 0.5254 0.5108 0.5607 0.619 0.6586 0.6855 0.7391 0.6986
2768.083 0.5801 0.5899 0.5657 0.5193 0.5007 0.5765 0.551 0.529 0.6438 0.6915
2787.373 0.588 0.5841 0.5778 0.5128 0.5741 0.5198 0.5674 0.6136 0.5671 0.5451
2806.663 0.685 0.6359 0.4885 0.427 0.4842 0.617 0.6692 0.6585 0.37186 0.33287
2825.953 0.5576 0.6718 0.6646 0.6547 0.6276 0.5631 0.5602 0.6975 0.8269 0.7558
2845.242 0.6992 0.5832 0.4349 0.3311 0.4306 0.6643 0.6821 0.5447 0.4288 0.42
2864.532 0.5186 0.5944 0.602 0.6867 0.8275 0.7959 0.6938 0.6949 0.7012 0.602
2883.822 0.4558 0.5754 0.6526 0.4697 0.5109 0.6985 0.8188 0.9262 0.9977 0.8363
2903.112 0.7545 0.6951 0.5949 0.6544 0.6373 0.6191 0.6455 0.7626 0.8473 0.7957
2922.401 0.7031 0.7755 0.9386 0.9495 0.885 0.847 0.8505 0.7112 0.616 0.6584
2941.691 0.6663 0.6084 0.7655 0.9887 0.8032 0.8493 0.8867 0.7354 0.6808 0.6616
2960.981 0.7778 0.7702 0.9486 1.1919 1.1565 1.1385 1.0606 1.015 1.0555 1.0193
2980.271 0.9834 0.8769 0.8008 0.8435 0.9386 1.0004 1.0055 1.1136 1.1941 1.244
2999.561 1.2618 1.1358 1.2 1.371 1.421 1.481 1.671 1.741 1.641 1.991
3018.850 2.171 2.211 2.591 2.721 2.861 3.021 3.121 3.251 3.341 3.411
3038.140 3.511 3.571 3.761 3.931 3.971 4.211 4.791 5.531 6.141 7.121
3057.430 8.461 10.061 11.521 12.281 12.541 12.111 11.061 10.061 9.501 8.921
3076.720 8.241 7.831 7.421 6.791 5.961 5.251 4.751 4.481 4.391 4.021
3096.009 3.281 2.791 2.271 1.501 1.391 1.391 1.2834 1.2795 1.2583 1.2132
3115.299 1.0938 1.0261 1.0125 0.9513 0.7476 0.6297 0.4163 0.35972 0.5344 0.6287
3134.589 0.5526 0.4634 0.5045 0.609 0.5231 0.35389 0.4607 0.5337 0.4076 0.31787
3153.879 0.33002 0.38549 0.4809 0.5808 0.6924 0.5714 0.33087 0.4029 0.6329 0.6995
3173.169 0.5758 0.3549 0.34182 0.4635 0.509 0.39801 0.36695 0.4411 0.39834 0.4036
3192.458 0.4948 0.4644 0.2031 0.181 0.301584 0.489 0.5866 0.5116 0.566 0.4434
3211.748 0.4613 0.4745 0.4864 0.4985 0.4301 0.5884 0.7368 0.8173 0.7453 0.7393
3231.038 0.775 0.5363 0.29116 0.179 0.2867 0.4993 0.4462 0.4953 0.4663 0.33655
3250.328 0.2119 0.2061 0.35965 0.4456 0.5334 0.4544 0.4943 0.511 0.5117 0.5127
3269.617 0.4469 0.4337 0.534 0.6828 0.6525 0.4462 0.433 0.5908 0.6434 0.8608
3288.907 0.7174 0.4934 0.5371 0.4889 0.5113 0.6299 0.604 0.4551 0.34935 0.32943
3308.197 0.34036 0.5282 0.5921 0.4777 0.5103 0.5343 0.5398 0.4817 0.5062 0.8244
3327.487 0.9602 0.6526 0.5698 0.6706 0.6201 0.6566 0.6865 0.4861 0.5428 0.6442
3346.777 0.5541 0.642 0.6256 0.5646 0.4403 0.4414 0.4852 0.4947 0.3924 0.38758
3366.066 0.7177 0.6271 0.4084 0.2618 0.057 0.195 0.2225 0.143 0.2794 0.436
3385.356 0.6078 0.5638 0.5217 0.6247 0.5268 0.4892 0.5168 0.31892 0.38665 0.4527
3404.646 0.2739 0.38363 0.5315 0.4641 0.29144 0.31818 0.2669 0.29629 0.4564 0.4608
3423.936 0.447 0.287 0.2702 0.36513 0.6082 0.6151 0.6351 0.6903 0.4774 0.34517
3443.225 0.29187 0.307047 0.2897 0.5965 0.6742 0.36093 0.2567 0.193 0.4085 0.4842
3462.515 0.32955 0.35511 0.2563 0.192 0.2403 0.102 0.085 0.189 0 0.13
3481.805 0.407 0.4756 0.36522 0.194 0.2344 0.27 0.2268 0.197 0.2687 0.3338
3501.095 0.4092 0.29348 0.2684 0.3514 0.2039 0.107 0.14 0.144 0.142 0.136
3520.385 0.128 0.081 0.132 0.2614 0.192 0.138 0.147 0.097 0.277 0.2677
3539.674 0.117 0.179 0.29186 0.3709 0.36045 0.067 0.072 0.36266 0.4498 0.514
3558.964 0.34794 0.307989 0.4584 0.4104 0.37223 0.35131 0.2835 0.2566 0.38261 0.34703
3578.254 0.2154 0.2046 0.061 0.058 0.052 0.32558 0.5821 0.4013 0.2684 0.2829
3597.544 0.38868 0.4707 0.29175 0.128 0.095 0.34358 0.4837 0.38578 0.31397 0.2708
3616.833 0.2671 0.36458 0.6464 0.4526 0.2456 0.2615 0.32962 0.4111 0.249 0.095
3636.123 0.2848 0.5907 0.627 0.4683 0.37239 0.39445 0.284 0.2497 0.2459 0.2875
3655.413 0.4196 0.6118 0.4539 0.2408 0.5316 0.6997 0.6624 0.4123 0.108 0.197
3674.703 0.38278 0.4094 0.35398 0.4192 0.4985 0.4276 0.2451 0.32603 0.6284 0.5886
3693.993 0.4994 0.4416 0.35038 0.40027 0.5236 0.6469 0.6266 0.4392 0.5609 0.5346
3713.282 0.2864 0.38032 0.3967 0.15 0.29107 0.35601 0.2534 0.34618 0.2611 0.2612
3732.572 0.33198 0.196 0.2794 0.36749 0.081 0.084 0.34644 0.5024 0.6995 0.814
3751.862 0.5853 0.37715 0.2501 0.16 0.2641 0.115 0.016 0.2185 0.2428 0.191
3771.152 0.4025 0.37879 0.2123 0.4048 0.34721 0.2623 0.2632 0.35263 0.36018 0.197
3790.441 0.33999 0.4836 0.5572 0.6719 0.4825 0.34825 0.4389 0.35936 0.241 0.4294
3809.731 0.6514 0.5077 0.6448 0.7254 0.4201 0.4723 0.6342 0.6556 0.6902 0.6179
3829.021 0.5275 0.4862 0.5389 0.6852 0.7451 0.6953 0.6168 0.38283 0.310152 0.5419
3848.311 0.608 0.6611 0.6273 0.37103 0.304838 0.31308 0.2807 0.33743 0.37969 0.176
3867.601 0.2138 0.5445 0.4658 0.4508 0.5613 0.386 0.4173 0.5288 0.37853 0.149
3886.890 0.12 0.4036 0.5033 0.34093 0.4013 0.6705 0.6391 0.4937 0.4024 0.5634
3906.180 0.4769 0.133 0.098 0.097 0.127 0.54 0.8712 0.6247 0.4081 0.4485
3925.470 0.4294 0.6659 0.7626 0.4858 0.4954 0.5119 0.5489 0.6361 0.6612 0.5631
3944.760 0.5818 0.6152 0.5419 0.5827 0.563 0.4562 0.4279 0.491 0.5792 0.6113
3964.049 0.4627 0.2265 0.106 0.39458 0.6867 0.6403 0.39933 0.4783 0.7667 0.8183
3983.339 0.7188 0.4432 0.3254 0.4669 0.4878 0.5322 0.4943 0.155 0.33594 0.6721
##END=
