##TITLE=Butethamine
##JCAMP-DX=4.24
##DATA TYPE=INFRARED SPECTRUM
##ORIGIN=NIST Mass Spectrometry Data Center
##OWNER=NIST Standard Reference Data Program
Collection (C) 2018 copyright by the U.S. Secretary of Commerce
on behalf of the United States of America. All rights reserved.
##CAS REGISTRY NO=2090-89-3
##MOLFORM=C 13 H 20 N 2 O 2
##$NIST SOURCE=MSDC-IR
##SPECTROMETER/DATA SYSTEM=HP-GC/MS/IRD
##STATE=gas
##XUNITS=1/CM
##YUNITS=ABSORBANCE
##XFACTOR=1.0
##YFACTOR=0.000002800
##DELTAX=4.0
##FIRSTX=550.0
##LASTX=3846.0
##FIRSTY=0.001481
##MAXX=3846
##MINX=550
##MAXY=0.028
##MINY=0
##NPOINTS=825
##XYDATA=(X++(Y..Y))
550.0 529 336 214 242 207 230 258 314 351 298
590.0 278 282 281 315 383 481 570 569 451 326
630.0 262 252 252 269 307 341 400 493 540 589
670.0 665 701 703 686 684 694 677 649 600 538
710.0 487 449 421 386 340 294 272 266 267 295
750.0 345 414 496 586 660 661 606 510 405 322
790.0 252 216 190 172 186 180 186 207 224 286
830.0 362 441 499 465 385 307 221 158 133 117
870.0 97 72 63 63 43 22 8 9 7 6
910.0 15 17 17 18 17 32 47 47 54 64
950.0 71 76 90 113 125 124 120 118 120 128
990.0 143 158 178 202 270 388 462 426 322 249
1030.0 224 213 214 235 287 353 414 462 518 598
1070.0 710 870 1072 1312 1645 2097 2671 3318 3870 4077
1110.0 3761 3026 2245 1675 1324 1122 992 908 835 767
1150.0 713 698 752 975 1771 3132 3739 2779 1405 757
1190.0 545 424 359 332 341 374 432 487 530 588
1230.0 673 798 978 1265 1698 2416 3645 5645 8211 10000
1270.0 9467 6926 4335 2766 1935 1466 1187 1007 878 777
1310.0 720 679 612 528 456 404 359 329 311 309
1350.0 331 354 373 399 434 459 464 461 464 466
1390.0 442 370 280 215 173 147 144 164 203 270
1430.0 353 425 447 441 463 525 599 667 708 707
1470.0 665 584 475 375 298 254 244 275 357 501
1510.0 678 768 671 457 282 184 144 126 108 99
1550.0 105 115 133 163 195 241 292 360 430 521
1590.0 658 900 1239 1587 1835 1971 2136 2476 2863 2928
1630.0 2548 1931 1325 869 586 421 327 267 230 208
1670.0 206 217 224 233 248 271 305 348 415 528
1710.0 707 991 1436 2108 3007 3888 4275 3877 2909 1894
1750.0 1164 724 479 329 230 174 139 115 103 92
1790.0 79 66 53 41 32 30 29 21 20 14
1830.0 3 5 11 10 7 6 10 8 5 8
1870.0 14 15 11 20 31 37 47 61 62 57
1910.0 55 46 36 31 27 22 14 10 14 17
1950.0 15 9 6 8 5 2 2 8 9 1
1990.0 0 2 3 3 5 8 6 8 14 16
2030.0 17 17 16 15 17 21 19 18 18 16
2070.0 16 17 18 22 19 15 25 26 27 29
2110.0 29 32 31 24 20 19 18 13 8 8
2150.0 8 4 4 8 4 5 8 9 9 11
2190.0 11 7 10 16 16 15 15 10 7 11
2230.0 10 5 8 7 8 9 9 8 8 13
2270.0 16 16 17 18 17 15 20 24 26 26
2310.0 19 15 20 20 17 15 16 15 11 12
2350.0 19 27 31 35 32 31 32 25 23 23
2390.0 19 20 22 23 20 14 12 14 17 19
2430.0 23 23 22 18 14 18 22 22 19 16
2470.0 9 8 12 14 19 11 7 9 7 12
2510.0 23 25 21 27 28 21 19 22 25 24
2550.0 19 24 30 24 24 30 34 34 27 22
2590.0 24 33 38 38 41 49 50 49 52 52
2630.0 54 54 53 57 56 49 45 41 40 40
2670.0 41 45 49 54 56 63 69 69 70 75
2710.0 85 89 92 97 101 101 105 114 117 116
2750.0 117 124 137 145 155 164 175 194 217 252
2790.0 284 309 352 404 445 487 529 559 574 586
2830.0 585 574 563 555 545 538 539 548 574 618
2870.0 695 802 913 993 1032 1039 1042 1035 1022 1019
2910.0 1020 1031 1051 1059 1069 1104 1150 1198 1260 1354
2950.0 1504 1709 1910 2029 1992 1764 1430 1121 878 689
2990.0 538 428 358 302 272 256 246 239 232 231
3030.0 240 269 317 353 330 262 205 178 165 174
3070.0 184 171 147 125 112 101 94 89 85 76
3110.0 68 66 63 58 48 40 36 32 31 22
3150.0 25 40 42 38 39 45 39 32 27 27
3190.0 29 35 43 47 48 50 55 47 40 32
3230.0 20 24 27 21 22 15 12 14 9 8
3270.0 8 6 11 20 18 19 21 20 20 15
3310.0 10 17 24 27 27 30 29 29 35 40
3350.0 36 36 35 42 54 58 68 74 72 68
3390.0 85 113 135 161 199 257 324 350 332 324
3430.0 324 308 255 191 143 115 108 95 90 81
3470.0 79 91 97 101 106 113 124 132 139 150
3510.0 152 140 133 130 124 113 99 84 79 70
3550.0 54 41 38 46 42 38 41 40 47 57
3590.0 49 45 46 36 35 36 29 31 26 37
3630.0 44 42 38 38 44 42 38 38 37 31
3670.0 43 45 36 39 40 46 43 30 31 36
3710.0 35 35 36 35 35 51 59 57 57 41
3750.0 39 38 38 42 41 38 42 40 35 48
3790.0 51 44 41 39 40 41 50 46 40 44
3830.0 57 65 65 63 53
##END=
