##TITLE=2,3,5,6-Tetrafluorophenyl isothiocyanate
##JCAMP-DX=4.24
##DATA TYPE=INFRARED SPECTRUM
##ORIGIN=EPA-IR VAPOR PHASE LIBRARY
##OWNER=SRD/NIST
Collection (C) 2018 copyright by the U.S. Secretary of Commerce
on behalf of the United States of America. All rights reserved.
##CAS REGISTRY NO=20925-31-9
##MOLFORM=C 7 H F 4 N S
##$NIST SOURCE=MSDC-IR
##STATE=gas
##XUNITS=1/CM
##YUNITS=ABSORBANCE
##XFACTOR=1.
##YFACTOR=0.001
##DELTAX=1.92898
##FIRSTX=549.8
##LASTX=4000.7
##FIRSTY=22.495
##MAXX=4000.7
##MINX=549.759
##MAXY=0.926455
##MINY=0
##NPOINTS=1790
##XYDATA=(X++(Y..Y))
549.759 22.495 22.815 22.545 21.795 20.535 18.555 16.395 14.195 12.385 11.125
569.049 10.165 9.735 9.645 9.645 9.805 10.075 10.275 10.465 10.485 10.305
588.339 10.165 9.615 8.815 8.145 7.495 7.075 6.565 6.065 5.735 5.645
607.628 5.775 5.585 5.205 4.825 4.505 4.405 4.125 3.655 3.265 2.785
626.918 2.295 2.085 2.085 2.095 2.205 2.195 1.965 1.985 2.115 2.155
646.208 1.965 2.035 2.245 2.445 2.755 2.935 3.395 4.055 4.505 4.895
665.498 5.475 6.205 6.805 7.345 8.035 8.655 9.235 9.985 11.125 12.565
684.787 13.325 13.465 13.605 13.585 13.005 11.435 9.745 9.055 9.255 10.615
704.077 14.445 21.895 32.625 41.655 45.135 47.075 46.435 42.935 37.185 26.095
723.367 15.115 8.615 5.635 4.585 4.215 3.865 3.655 3.605 3.745 4.245
742.657 4.645 5.135 5.985 7.145 8.095 8.565 8.925 9.125 9.015 8.575
761.947 8.015 7.425 6.895 6.615 6.455 6.125 5.835 5.745 5.975 6.715
781.236 7.565 8.515 9.845 11.425 13.465 15.945 19.175 23.485 28.765 35.695
800.526 44.565 55.475 67.925 81.005 93.565 104.125 110.995 112.775 109.145 100.695
819.816 88.455 74.445 61.775 52.135 46.475 45.455 46.635 50.045 58.655 71.195
839.106 68.935 52.165 42.675 37.675 31.545 24.865 18.565 13.875 10.805 9.005
858.395 7.935 7.315 6.965 6.695 6.355 6.125 5.905 5.695 5.545 5.485
877.685 5.285 5.025 5.005 4.945 5.045 5.615 6.165 6.715 7.425 8.165
896.975 9.175 10.365 11.705 13.065 14.435 15.825 17.335 19.205 21.335 23.935
916.265 27.355 31.995 38.265 46.695 57.805 71.615 87.425 103.805 118.605 130.905
935.555 141.665 152.025 162.145 170.235 174.985 176.525 175.195 171.945 166.585 157.595
954.844 144.625 128.305 110.165 92.455 76.765 64.015 54.385 47.715 43.665 42.015
974.134 41.415 40.095 38.285 36.735 34.965 31.975 27.915 23.735 19.855 16.585
993.424 13.835 11.545 9.635 8.005 7.105 6.385 5.695 5.385 5.335 5.125
1012.714 4.785 4.655 4.455 4.365 4.045 3.655 3.955 4.055 3.725 3.665
1032.003 3.885 4.095 4.305 4.155 3.915 3.885 3.745 3.665 3.485 3.405
1051.293 3.275 3.175 3.355 3.245 3.235 3.645 3.615 3.805 4.325 4.765
1070.583 5.545 5.755 5.765 6.235 6.595 6.435 6.115 5.945 5.705 5.305
1089.873 5.615 5.845 5.685 6.225 6.805 7.885 9.745 11.745 14.305 17.845
1109.163 22.095 27.185 33.615 40.475 46.465 50.365 51.435 50.455 47.725 44.365
1128.452 41.075 37.475 35.055 34.225 33.295 32.235 32.015 31.505 28.185 22.295
1147.742 17.035 13.935 12.185 11.135 10.715 11.115 11.965 13.925 17.915 24.085
1167.032 33.405 46.235 61.825 77.575 88.055 89.295 86.225 86.695 84.385 71.135
1186.322 52.805 36.645 25.275 17.425 12.215 9.265 7.215 6.345 6.015 5.755
1205.611 5.955 6.175 6.235 6.495 6.935 7.335 8.115 9.595 11.235 12.875
1224.901 14.725 16.935 18.925 20.255 21.065 21.015 20.555 19.915 18.755 17.005
1244.191 15.345 14.345 13.815 13.915 14.485 15.445 16.485 17.305 18.095 18.595
1263.481 18.695 18.275 17.505 16.045 14.335 12.955 11.955 11.325 11.285 12.355
1282.771 14.415 17.505 21.505 25.765 29.055 30.685 30.435 28.535 25.365 21.205
1302.060 16.525 12.165 9.075 7.385 6.585 6.255 6.125 6.095 6.075 6.055
1321.350 5.995 5.805 5.615 5.275 4.775 4.235 3.685 3.245 2.895 2.645
1340.640 2.435 2.345 2.355 2.295 2.345 2.535 2.785 3.135 3.615 4.205
1359.930 4.925 5.895 7.145 8.605 10.225 11.795 13.055 13.745 14.205 14.725
1379.219 15.085 15.115 15.235 16.145 18.435 22.715 29.335 38.445 49.825 62.125
1398.509 73.055 80.305 82.215 78.805 71.035 60.015 46.795 32.855 20.965 13.285
1417.799 9.625 8.185 7.825 8.005 8.305 8.575 8.835 9.075 9.185 9.175
1437.089 9.125 9.055 8.975 8.955 8.945 8.885 8.955 9.295 9.885 10.775
1456.378 12.165 14.135 16.855 20.575 25.585 32.205 40.255 49.605 59.745 69.815
1475.668 78.635 85.245 88.915 90.295 90.745 91.825 94.655 99.455 105.715 111.995
1494.958 118.125 127.655 143.655 163.365 185.565 215.055 256.615 309.135 367.305 424.295
1514.248 469.675 496.255 501.495 487.215 454.735 404.085 334.985 257.795 186.905 131.005
1533.538 91.385 65.765 50.815 42.385 37.895 35.785 34.805 34.265 33.935 33.345
1552.827 32.335 30.865 29.175 27.385 25.355 23.405 21.815 20.505 19.595 18.855
1572.117 18.045 17.265 16.535 15.775 15.085 14.595 14.335 14.315 14.535 14.975
1591.407 15.645 16.575 17.765 19.245 21.205 23.635 26.475 29.885 33.915 38.785
1610.697 44.605 51.495 59.505 68.835 79.495 91.645 105.625 121.655 139.125 157.105
1629.986 173.595 185.735 190.705 186.855 174.405 154.925 130.585 104.255 78.375 55.615
1649.276 38.415 27.225 20.285 16.225 13.855 12.305 11.385 10.995 10.965 11.145
1668.566 11.405 11.545 11.485 11.225 10.755 10.155 9.385 8.515 7.705 7.075
1687.856 6.625 6.365 6.225 6.205 6.265 6.345 6.395 6.395 6.315 6.165
1707.146 5.905 5.535 5.155 4.765 4.415 4.315 4.285 4.195 4.155 4.165
1726.435 4.085 4.005 3.935 3.825 3.715 3.615 3.515 3.405 3.345 3.355
1745.725 3.385 3.375 3.385 3.395 3.385 3.345 3.395 3.455 3.495 3.545
1765.015 3.615 3.675 3.715 3.735 3.805 3.905 3.915 3.895 3.915 3.885
1784.305 3.815 3.765 3.705 3.645 3.535 3.425 3.395 3.385 3.385 3.385
1803.594 3.395 3.365 3.375 3.455 3.525 3.685 3.845 3.975 4.085 4.235
1822.884 4.395 4.525 4.715 4.965 5.235 5.595 6.105 6.545 6.975 7.535
1842.174 8.115 8.655 9.115 9.455 9.675 9.725 9.635 9.485 9.215 8.845
1861.464 8.575 8.405 8.375 8.525 8.775 9.045 9.385 9.825 10.345 10.885
1880.754 11.535 12.285 13.015 13.845 14.795 15.745 16.785 17.975 19.215 20.585
1900.043 22.195 24.005 26.005 28.305 30.925 33.825 37.045 40.695 44.775 49.115
1919.333 53.715 58.555 63.535 68.395 73.035 77.265 80.975 84.095 86.695 88.945
1938.623 90.995 93.085 95.585 98.775 102.755 107.465 113.025 119.615 127.035 135.385
1957.913 144.875 155.605 167.525 180.595 194.665 209.475 224.835 240.265 255.255 269.835
1977.202 283.855 296.915 308.925 319.795 329.755 339.345 348.655 358.235 369.175 382.145
1996.492 397.905 417.575 442.395 473.555 512.195 559.285 614.795 677.555 745.015 811.695
2015.782 868.865 907.965 926.455 924.945 901.925 859.605 804.045 742.055 679.225 617.935
2035.072 558.815 502.655 449.965 401.385 357.865 320.435 289.695 265.675 248.265 236.905
2054.362 230.745 229.135 231.305 236.725 245.245 256.825 271.335 288.505 307.755 328.195
2073.651 348.595 367.585 384.115 397.115 405.735 409.645 408.545 402.835 392.975 379.625
2092.941 363.595 345.255 324.995 303.465 281.425 259.205 237.425 216.505 196.755 178.425
2112.231 161.495 146.095 132.365 120.435 110.355 102.185 95.845 91.295 88.195 86.175
2131.521 85.035 84.465 84.215 83.935 83.575 83.015 82.025 80.685 78.865 76.485
2150.810 73.675 70.295 66.475 62.395 58.145 53.865 49.655 45.755 42.125 38.835
2170.100 35.825 33.085 30.685 28.445 26.335 24.465 22.855 21.385 20.085 18.945
2189.390 17.855 16.935 16.175 15.395 14.685 14.055 13.525 13.065 12.715 12.455
2208.680 12.245 12.175 12.225 12.355 12.535 12.875 13.355 13.945 14.685 15.535
2227.970 16.485 17.545 18.645 19.745 20.825 21.665 22.135 22.175 21.705 20.735
2247.259 19.225 17.395 15.405 13.265 11.365 9.835 8.675 7.865 7.315 6.935
2266.549 6.685 6.475 6.375 6.255 6.025 5.815 5.555 5.395 5.275 5.025
2285.839 4.875 4.765 4.645 4.555 4.385 4.285 4.215 4.155 4.085 4.005
2305.129 3.995 3.995 4.025 4.065 4.095 4.225 4.455 4.705 4.935 5.195
2324.418 5.485 5.815 6.175 6.505 6.785 7.095 7.265 7.295 7.345 7.295
2343.708 7.145 7.055 6.875 6.545 6.295 6.035 5.755 5.455 5.125 4.795
2362.998 4.565 4.425 4.225 4.085 4.115 4.165 4.235 4.435 4.565 4.715
2382.288 4.965 5.265 5.575 5.835 6.195 6.625 6.995 7.355 7.855 8.385
2401.578 8.875 9.355 9.815 10.145 10.295 10.355 10.315 10.005 9.385 8.705
2420.867 7.955 7.235 6.555 5.945 5.415 5.055 4.825 4.545 4.355 4.175
2440.157 3.895 3.705 3.505 3.295 3.185 3.115 3.085 3.095 2.995 2.915
2459.447 2.905 2.885 2.905 2.935 2.885 2.835 2.855 2.875 2.865 2.825
2478.737 2.805 2.835 2.935 3.055 3.175 3.305 3.485 3.685 3.915 4.175
2498.026 4.495 4.785 5.015 5.315 5.575 5.925 6.305 6.555 6.875 7.235
2517.316 7.525 7.795 8.065 8.235 8.425 8.695 8.905 8.975 9.055 9.155
2536.606 9.325 9.455 9.445 9.545 9.745 9.845 9.995 10.245 10.565 11.065
2555.896 11.605 12.225 12.965 13.715 14.605 15.535 16.415 17.345 18.145 18.715
2575.186 19.125 19.355 19.455 19.275 18.755 18.035 17.235 16.245 15.025 13.875
2594.475 12.775 11.695 10.635 9.665 8.875 8.165 7.645 7.115 6.695 6.325
2613.765 5.945 5.705 5.495 5.315 5.185 5.085 4.935 4.795 4.665 4.535
2633.055 4.435 4.395 4.385 4.315 4.285 4.295 4.355 4.405 4.395 4.465
2652.345 4.435 4.275 4.145 4.005 3.725 3.375 3.085 2.835 2.525 2.235
2671.634 2.065 1.935 1.875 1.735 1.525 1.445 1.395 1.365 1.375 1.335
2690.924 1.3086 1.2056 1.1622 1.2137 1.2168 1.1916 1.1028 1.0158 0.964 0.9509
2710.214 1.0342 1.174 1.2106 1.101 1.0981 1.143 1.2422 1.365 1.2868 1.325
2729.504 1.455 1.545 1.585 1.595 1.685 1.815 1.905 1.935 1.995 2.135
2748.794 2.155 2.095 2.145 2.345 2.435 2.515 2.655 2.755 2.925 3.095
2768.083 3.205 3.185 3.165 3.295 3.355 3.325 3.385 3.415 3.505 3.715
2787.373 3.835 3.905 4.025 4.225 4.445 4.595 4.755 4.975 5.135 5.155
2806.663 5.285 5.415 5.445 5.625 5.925 6.185 6.395 6.495 6.645 6.935
2825.953 7.285 7.695 8.005 8.285 8.585 8.785 8.945 8.885 8.665 8.365
2845.242 7.995 7.575 7.035 6.465 5.915 5.495 5.065 4.605 4.165 3.845
2864.532 3.675 3.625 3.625 3.475 3.335 3.225 3.295 3.385 3.405 3.545
2883.822 3.625 3.675 3.845 4.065 4.135 4.225 4.345 4.515 4.755 4.925
2903.112 5.065 5.155 5.325 5.525 5.655 5.665 5.815 6.005 6.115 6.125
2922.401 6.015 5.865 5.655 5.385 4.965 4.605 4.285 3.975 3.625 3.365
2941.691 3.145 3.005 2.965 2.775 2.565 2.475 2.375 2.345 2.365 2.305
2960.981 2.245 2.215 2.215 2.105 2.155 2.245 2.175 2.195 2.135 2.095
2980.271 2.165 2.175 2.095 2.035 2.045 2.005 1.935 1.935 2.015 1.995
2999.561 1.805 1.635 1.545 1.535 1.485 1.365 1.355 1.1993 0.9919 0.9473
3018.850 0.9164 0.8592 0.7691 0.7054 0.6618 0.6429 0.6586 0.6403 0.7188 0.8096
3038.140 0.7427 0.7175 0.71 0.6381 0.621 0.6837 0.6124 0.4965 0.5753 0.7014
3057.430 0.7155 0.6507 0.7839 0.9177 0.9475 1.1343 1.365 1.515 1.745 2.105
3076.720 2.575 3.085 3.705 4.515 5.455 6.565 7.545 8.085 8.215 7.985
3096.009 7.455 6.665 5.605 4.395 3.315 2.535 1.975 1.655 1.335 1.2528
3115.299 1.315 1.1106 1.0926 1.1461 1.0872 1.0796 0.9713 0.8961 0.8976 0.9487
3134.589 0.9903 1.0104 0.9433 0.8181 0.7215 0.5863 0.5319 0.5802 0.5779 0.5885
3153.879 0.6282 0.4609 0.34416 0.36996 0.3038 0.165 0.162 0.192 0.141 0.203
3173.169 0.2675 0.2196 0.111 0.116 0.2259 0.2243 0.2443 0.26 0.2292 0.2638
3192.458 0.32954 0.2845 0.2552 0.2604 0.2441 0.324819 0.2477 0.228 0.308 0.2516
3211.748 0.324809 0.39197 0.34862 0.2521 0.2778 0.39828 0.295 0.2682 0.32789 0.39913
3231.038 0.38618 0.32516 0.317959 0.2728 0.277 0.32953 0.36206 0.320761 0.3434 0.40338
3250.328 0.4329 0.38513 0.39004 0.41076 0.34883 0.3036 0.2204 0.149 0.34908 0.4749
3269.617 0.41436 0.39741 0.4545 0.4511 0.35325 0.2776 0.161 0.15 0.166 0.189
3288.907 0.209 0.202 0.192 0.2319 0.2553 0.135 0.019 0 0.038 0.091
3308.197 0.134 0.101 0.066 0.083 0.116 0.126 0.103 0.101 0.093 0.137
3327.487 0.207 0.2227 0.2665 0.21 0.132 0.147 0.2373 0.2205 0.044 0.043
3346.777 0.086 0.118 0.142 0.164 0.117 0.057 0.012 0.121 0.2423 0.165
3366.066 0.059 0.052 0.212 0.35368 0.32693 0.188 0.164 0.2339 0.2157 0.155
3385.356 0.214 0.2832 0.323372 0.38375 0.39791 0.2782 0.2667 0.3044 0.3472 0.2195
3404.646 0.165 0.37373 0.40213 0.38088 0.33723 0.32515 0.40817 0.40699 0.317694 0.179
3423.936 0.19 0.2537 0.151 0.086 0.151 0.2364 0.2722 0.2254 0.30924 0.37575
3443.225 0.31174 0.27 0.247 0.2855 0.2151 0.197 0.2402 0.2571 0.2538 0.169
3462.515 0.119 0.196 0.2523 0.2338 0.261 0.2909 0.4747 0.5051 0.38568 0.4352
3481.805 0.5395 0.5006 0.507 0.5378 0.4837 0.4859 0.4195 0.4272 0.5244 0.5464
3501.095 0.4543 0.37911 0.30819 0.2959 0.37449 0.33627 0.2251 0.2558 0.3772 0.33998
3520.385 0.35708 0.37706 0.2509 0.3005 0.2823 0.129 0.096 0.126 0.272 0.39338
3539.674 0.30519 0.3041 0.32736 0.2464 0.2476 0.153 0.11 0.184 0.175 0.2917
3558.964 0.37412 0.296 0.34057 0.39826 0.34864 0.2565 0.30904 0.41211 0.4203 0.4631
3578.254 0.4488 0.38854 0.36854 0.34318 0.322056 0.37547 0.40024 0.32966 0.2703 0.31206
3597.544 0.2626 0.34226 0.4974 0.2917 0.2529 0.3442 0.2981 0.2627 0.2927 0.35856
3616.833 0.39373 0.33365 0.2256 0.213 0.33437 0.38927 0.4757 0.5686 0.4787 0.4829
3636.123 0.4925 0.35643 0.2733 0.488 0.6088 0.5567 0.513 0.439 0.4818 0.5832
3655.413 0.5192 0.4398 0.5173 0.4684 0.36762 0.5041 0.4368 0.34908 0.47 0.5233
3674.703 0.497 0.5005 0.5633 0.6561 0.6271 0.37105 0.37066 0.5065 0.493 0.5216
3693.993 0.5329 0.39865 0.3041 0.37409 0.2786 0.2812 0.39825 0.4465 0.523 0.5497
3713.282 0.533 0.5281 0.491 0.5199 0.6611 0.5691 0.4567 0.4342 0.4839 0.6061
3732.572 0.5038 0.40097 0.5225 0.4934 0.33678 0.4164 0.4579 0.38955 0.40718 0.439
3751.862 0.36908 0.31361 0.4651 0.6376 0.6343 0.5109 0.38243 0.35304 0.4433 0.4744
3771.152 0.40832 0.40334 0.5266 0.5648 0.5386 0.5512 0.5251 0.57 0.5463 0.5202
3790.441 0.5869 0.6516 0.7757 0.8935 0.8894 0.7876 0.8231 1.0375 1.2588 1.1928
3809.731 1.1021 1.1266 1.0005 0.8801 0.8351 0.8287 0.8773 0.8348 0.8087 0.8272
3829.021 0.8471 0.8716 0.8972 0.8678 0.907 0.968 0.893 0.966 0.9365 0.866
3848.311 0.9795 1.1099 1.0811 1.0467 1.0363 0.8775 0.908 1.0199 1.1572 1.122
3867.601 1.0084 1.0354 1.1264 1.278 1.415 1.2316 0.9751 1.0691 1.1143 1.1599
3886.890 1.2532 1.2718 1.2337 1.302 1.315 1.365 1.535 1.505 1.365 1.268
3906.180 1.455 1.545 1.475 1.615 1.705 1.615 1.575 1.525 1.785 2.055
3925.470 1.955 1.905 1.915 1.985 2.075 2.105 1.995 1.855 1.965 2.085
3944.760 2.095 2.215 2.365 2.325 2.155 2.165 2.275 2.195 2.115 2.145
3964.049 2.285 2.375 2.445 2.455 2.335 2.375 2.405 2.355 2.395 2.495
3983.339 2.565 2.475 2.565 2.595 2.435 2.435 2.555 2.615 2.615 2.605
##END=
