##TITLE=3-Methoxy-2[1H]pyridone
##JCAMP-DX=4.24
##DATA TYPE=INFRARED SPECTRUM
##ORIGIN=EPA-IR VAPOR PHASE LIBRARY
##OWNER=SRD/NIST
Collection (C) 2018 copyright by the U.S. Secretary of Commerce
on behalf of the United States of America. All rights reserved.
##CAS REGISTRY NO=20928-63-6
##MOLFORM=C 6 H 7 N O 2
##$NIST SOURCE=MSDC-IR
##STATE=gas
##XUNITS=1/CM
##YUNITS=ABSORBANCE
##XFACTOR=1.
##YFACTOR=0.001
##DELTAX=1.92898
##FIRSTX=549.8
##LASTX=4000.7
##FIRSTY=1.638
##MAXX=4000.7
##MINX=549.759
##MAXY=0.034778
##MINY=0
##NPOINTS=1790
##XYDATA=(X++(Y..Y))
549.759 1.638 2.068 2.318 1.888 1.818 2.298 1.948 1.485 1.5248 1.2383
569.049 1.0896 1.4091 1.778 1.4129 0.8145 1.276 1.578 1.3852 0.9462 0.4969
588.339 0.8906 1.598 1.4718 1.598 1.4196 0.8689 0.8736 0.6824 0.681 0.982
607.628 0.9707 0.5611 0.60761 0.8925 0.8147 0.464 0.357 0.64279 0.255 0.4936
626.918 0.9566 0.86 0.8382 0.8007 0.429 0.4906 0.8997 1.1152 1.4688 1.4255
646.208 1.708 1.858 1.858 2.258 2.428 2.368 2.778 3.128 3.358 3.418
665.498 3.268 3.508 3.488 3.468 3.738 3.488 3.158 2.838 2.248 2.448
684.787 2.568 2.098 1.668 1.4769 1.431 1.3687 1.4032 1.3118 1.2651 1.2921
704.077 1.608 1.828 1.798 2.058 2.298 2.578 3.168 3.528 3.728 4.018
723.367 4.688 5.788 6.248 6.388 6.478 6.648 7.798 8.848 8.358 7.198
742.657 6.268 5.958 5.908 5.608 5.108 4.858 4.888 4.808 4.558 4.038
761.947 3.528 3.328 3.318 3.088 3.128 3.518 3.718 3.958 4.168 4.038
781.236 3.408 2.778 2.808 3.028 2.928 3.168 2.838 1.798 1.608 1.5087
800.526 1.3098 1.688 1.628 1.2723 1.4318 1.353 0.7337 0.59802 0.77 0.9246
819.816 0.57053 0.179 0 0.021 0.7884 1.1626 1.2064 1.1321 1.2741 1.628
839.106 1.688 1.3918 1.0867 1.0414 1.3533 1.608 1.5617 1.1409 1.0659 1.3527
858.395 1.3091 1.397 1.878 2.308 2.198 2.078 2.418 2.498 2.288 2.468
877.685 2.658 2.838 2.808 2.498 2.478 2.878 3.208 3.188 3.118 2.938
896.975 2.608 2.788 2.568 1.938 1.546 1.382 1.4084 1.738 2.018 1.798
916.265 1.588 1.3015 1.2204 1.3424 1.3823 1.3313 1.4347 1.2145 0.948 1.0021
935.555 1.1085 1.1948 1.2203 1.1736 1.2529 1.323 1.016 1.0683 1.2036 1.0617
954.844 1.1769 1.1042 1.0752 1.3388 1.5559 1.4068 1.2784 1.3318 1.0133 1.044
974.134 1.1905 1.4695 1.608 1.858 1.888 1.778 2.298 2.418 2.478 2.868
993.424 2.778 2.658 2.998 3.388 4.288 4.778 4.778 4.918 4.868 4.728
1012.714 4.428 4.488 4.028 3.748 3.988 4.158 4.118 4.568 4.948 4.478
1032.003 4.648 4.818 4.908 4.758 4.148 3.648 3.638 3.668 3.418 3.278
1051.293 3.198 3.168 3.288 2.908 2.288 1.988 2.248 2.728 3.048 3.038
1070.583 2.978 3.768 4.428 5.428 5.988 5.988 6.708 7.138 7.278 7.578
1089.873 8.718 9.318 9.468 9.628 8.618 7.618 7.428 7.028 7.078 6.408
1109.163 5.108 5.348 4.468 3.338 3.428 2.908 2.678 2.318 1.5223 1.738
1128.452 2.208 2.048 1.928 2.388 3.298 3.368 3.458 3.748 4.338 5.118
1147.742 5.648 5.858 6.288 7.168 7.648 7.798 8.048 8.518 7.638 6.918
1167.032 7.138 7.138 7.038 6.508 5.508 5.078 5.318 5.628 5.318 4.338
1186.322 3.898 3.648 3.928 4.368 3.978 3.818 4.388 5.018 5.308 5.618
1205.611 5.618 4.918 5.338 7.228 7.508 7.188 7.728 8.408 8.298 9.038
1224.901 10.008 9.688 10.308 11.218 10.948 10.848 10.938 10.338 10.378 11.208
1244.191 12.278 13.798 14.558 15.078 16.168 17.018 17.628 17.928 18.218 17.758
1263.481 17.118 17.058 16.898 16.338 15.118 13.958 13.008 11.968 11.178 10.108
1282.771 8.958 8.088 7.358 7.008 6.588 6.188 5.688 5.058 4.678 4.298
1302.060 3.788 3.408 3.108 2.978 2.878 2.868 2.968 3.048 3.178 3.438
1321.350 3.868 4.208 4.298 4.398 4.768 4.988 5.068 5.098 5.018 4.928
1340.640 4.858 4.778 4.518 4.278 4.188 3.978 3.768 3.538 3.358 3.268
1359.930 3.098 2.918 2.708 2.598 2.488 2.308 2.078 1.958 1.918 1.838
1379.219 1.668 1.5104 1.608 1.5431 1.4557 1.5036 1.608 1.708 1.648 1.608
1398.509 1.648 1.768 1.808 1.788 1.888 1.948 1.908 1.958 2.028 2.138
1417.799 2.278 2.438 2.578 2.838 3.248 3.588 4.018 4.588 5.078 5.518
1437.089 6.028 6.418 6.798 7.278 7.848 8.448 9.008 9.548 9.938 10.188
1456.378 10.528 10.988 11.438 11.958 12.578 13.188 13.618 13.698 13.628 13.458
1475.668 13.158 12.738 12.118 11.558 10.848 10.018 9.088 8.088 7.028 5.898
1494.958 4.808 4.018 3.428 2.938 2.688 2.328 2.038 2.028 1.968 1.858
1514.248 1.938 1.918 1.828 1.968 1.898 1.728 1.758 1.848 1.938 1.988
1533.538 1.948 1.878 1.838 1.928 2.148 2.418 2.618 2.868 2.998 3.138
1552.827 3.428 3.568 3.738 3.708 3.808 3.928 3.738 3.768 3.768 3.738
1572.117 3.918 3.918 3.868 4.028 4.018 3.788 3.808 4.018 3.998 4.088
1591.407 4.308 4.398 4.438 4.378 4.278 4.238 4.348 4.638 5.178 5.828
1610.697 6.348 6.978 7.808 8.598 9.128 9.488 9.748 9.868 9.918 9.848
1629.986 9.678 9.188 8.558 7.908 7.078 6.198 5.378 4.828 4.478 4.168
1649.276 4.118 4.058 4.048 4.228 4.218 4.348 4.758 5.158 5.688 6.248
1668.566 7.038 8.248 9.558 11.328 13.648 15.838 18.368 21.098 23.648 26.048
1687.856 28.188 29.918 31.308 32.678 33.778 34.588 34.778 34.208 32.898 30.708
1707.146 28.178 25.578 23.178 21.218 19.548 17.888 16.008 14.158 12.498 10.948
1726.435 9.578 8.418 7.418 6.658 5.988 5.458 4.898 4.488 4.158 3.608
1745.725 3.228 3.008 2.728 2.568 2.398 2.168 2.018 1.808 1.788 1.798
1765.015 1.728 1.628 1.608 1.588 1.5138 1.3932 1.3628 1.4045 1.3885 1.3962
1784.305 1.371 1.3097 1.3876 1.435 1.5058 1.598 1.4934 1.399 1.3736 1.3287
1803.594 1.2851 1.3633 1.4753 1.5411 1.402 1.3595 1.444 1.3689 1.2751 1.2557
1822.884 1.282 1.287 1.3663 1.3689 1.3355 1.2891 1.21 1.2474 1.2151 1.0958
1842.174 1.1119 1.1647 1.2728 1.2906 1.2472 1.2367 1.1597 1.1683 1.135 1.1155
1861.464 1.0836 1.0786 1.1802 1.2104 1.0927 0.9542 1.0017 1.152 1.3335 1.3077
1880.754 1.1593 1.1697 1.294 1.314 1.2508 1.2132 1.1542 1.2465 1.2561 1.087
1900.043 1.0939 1.2598 1.1719 1.066 1.1253 0.9781 0.9871 1.1133 1.1296 1.0713
1919.333 1.0538 1.1739 1.1587 1.0739 1.076 1.1077 1.0065 1.0365 1.044 1.0252
1938.623 1.0933 1.0438 1.0578 0.9978 0.9077 0.9711 1.0982 1.1245 1.0327 1.0983
1957.913 1.201 1.1727 1.1595 1.2473 1.3486 1.2846 1.1804 1.1457 1.2281 1.3518
1977.202 1.3416 1.2612 1.2144 1.124 1.1013 1.1077 1.1571 1.208 1.1455 1.1991
1996.492 1.1821 1.2408 1.2604 1.1945 1.1472 1.0582 1.0688 1.1479 1.2618 1.2513
2015.782 1.2125 1.1831 1.1913 1.1562 1.1846 1.1763 1.0276 1.0371 1.1306 1.1452
2035.072 1.1312 1.0197 0.9446 1.0041 1.0478 1.1029 1.1044 1.069 0.9947 1.0081
2054.362 1.0553 1.0893 1.0619 0.9491 0.9147 0.9775 0.9619 0.9204 0.9453 0.9754
2073.651 1.0443 1.0716 1.0745 0.957 0.9509 0.928 0.8377 0.8592 0.8795 0.8802
2092.941 0.9201 0.8267 0.7221 0.7783 0.8242 0.9263 1.0022 1.0699 1.0552 1.091
2112.231 1.0998 0.985 0.9728 0.9633 0.9766 1.0467 1.0751 1.1077 1.1317 1.0557
2131.521 0.9701 0.8646 0.8171 0.9916 1.0602 0.994 1.0778 1.09 1.0111 0.9718
2150.810 0.9717 1.0024 1.1021 1.2026 1.1342 1.0527 0.8532 0.7745 0.9456 1.0724
2170.100 1.0021 0.8971 0.8925 0.9304 1.0291 1.0313 0.9254 0.9392 1.0955 0.9606
2189.390 0.8438 0.9196 0.9147 1.0261 1.0476 0.8743 1.0313 1.1456 0.9678 0.938
2208.680 1.0686 1.089 0.9875 0.8946 0.8515 0.9278 0.9116 0.9269 0.9628 0.9471
2227.970 0.9942 0.8925 0.797 1.0075 0.9708 0.9022 1.0208 0.9593 0.9023 0.8271
2247.259 0.9149 1.0173 1.0221 1.0077 0.8927 0.8236 0.9376 1.1125 1.2025 1.1724
2266.549 1.1734 1.1641 1.0648 1.0043 0.9103 0.8476 0.8857 0.8724 0.7721 0.8507
2285.839 1.0178 1.0532 1.0965 1.0833 1.0231 1.0427 1.0685 1.1215 1.0718 1.027
2305.129 1.0438 1.0476 0.9882 0.9493 0.9482 0.8357 0.9413 0.9531 0.938 1.1778
2324.418 1.1413 1.0269 1.1938 1.1779 1.0283 1.1057 0.9775 0.9523 1.0079 0.9188
2343.708 0.9777 1.0538 1.021 0.9248 0.9109 1.0542 1.0431 0.8309 0.7942 0.8698
2362.998 1.0919 1.1615 1.0335 0.948 1.1097 1.3027 1.2359 1.21 1.2045 1.1185
2382.288 1.0793 1.1688 1.1455 0.9125 1.0026 1.2036 1.1769 1.2278 1.2549 1.1257
2401.578 0.9871 1.0483 1.1183 1.1116 0.9705 1.079 1.2172 1.1354 1.0014 0.9437
2420.867 1.1076 1.1985 1.1469 1.0325 1.1095 1.1863 1.0264 0.8833 0.8587 0.9672
2440.157 1.1669 1.1876 1.137 1.0741 1.0438 1.1434 1.0715 0.9642 1.0018 1.0637
2459.447 1.0517 1.0683 1.0713 1.0798 1.0627 1.0758 1.0405 1.0261 1.112 1.1304
2478.737 1.2515 1.219 1.1817 1.1547 1.0751 1.0714 1.1276 1.0695 1.0588 1.0543
2498.026 1.1674 1.1919 1.0894 1.208 1.1502 1.0151 0.9276 1.1678 1.4584 1.3132
2517.316 1.1516 1.0975 1.0634 1.0654 1.1571 1.3357 1.1547 1.0747 1.2565 1.1315
2536.606 1.1898 1.2074 1.1185 1.2128 1.2434 1.2051 1.1732 1.2157 1.2769 1.3305
2555.896 1.2558 1.1677 1.4008 1.588 1.4562 1.3592 1.4751 1.4377 1.2217 1.136
2575.186 1.1224 1.2207 1.1988 1.1345 1.2202 1.245 1.2326 1.1996 1.1231 1.1149
2594.475 1.0551 1.0701 1.0948 1.1545 1.2097 1.2795 1.269 1.2543 1.2172 0.9014
2613.765 0.7213 0.9292 1.1763 1.1905 1.2574 1.1765 0.9768 0.9728 1.1573 1.1022
2633.055 1.0426 1.0934 0.98 0.8528 0.8559 0.9191 0.9868 1.2724 1.4025 1.1088
2652.345 1.1152 1.2226 1.0766 1.0335 1.1326 1.1225 1.0782 1.211 1.1278 1.055
2671.634 1.1883 1.2348 1.0654 0.9577 0.9801 1.0749 1.2364 1.249 1.1494 1.1616
2690.924 1.1299 0.991 1.0604 1.1571 1.1189 1.0761 1.0836 1.2812 1.3038 1.178
2710.214 1.1516 1.0844 1.2358 1.1367 1.1368 1.3477 0.9494 0.8674 0.8286 0.7238
2729.504 0.9175 1.0164 1.0831 0.9164 0.8105 0.9814 1.1385 1.0809 0.8923 0.9851
2748.794 1.1664 1.2435 1.1499 1.0737 1.1082 1.1036 1.3151 1.3791 1.0453 0.8215
2768.083 0.8765 1.017 1.2356 1.37 1.3548 1.2476 1.0927 1.2945 1.4618 1.221
2787.373 1.2265 1.3183 1.3655 1.4314 1.3692 1.198 1.1929 1.2187 1.2842 1.3735
2806.663 1.3677 1.5126 1.5146 1.578 1.738 1.718 1.668 1.598 1.658 1.688
2825.953 1.788 2.348 2.488 2.228 2.318 2.618 2.978 3.018 2.848 2.878
2845.242 2.868 2.928 2.818 2.718 3.208 3.228 2.808 2.808 2.768 2.548
2864.532 2.618 2.468 2.058 1.938 1.988 2.008 2.008 2.138 2.238 2.268
2883.822 2.158 2.048 2.068 2.198 2.258 2.348 2.518 2.278 2.338 2.698
2903.112 2.788 2.828 2.688 2.558 2.638 2.868 3.078 2.928 2.778 2.878
2922.401 3.068 3.238 3.438 3.458 3.718 4.118 4.208 4.348 4.478 4.458
2941.691 4.698 4.858 4.848 5.118 5.078 4.778 4.448 4.448 4.528 4.238
2960.981 3.798 3.678 3.718 3.688 3.768 3.348 2.918 2.988 3.058 3.018
2980.271 3.098 2.988 3.048 3.088 2.948 3.068 3.108 3.168 3.258 3.308
2999.561 3.308 3.278 3.168 3.188 3.438 3.598 3.578 3.398 3.128 2.978
3018.850 3.128 2.978 2.658 2.718 2.708 2.548 2.228 2.008 1.968 2.178
3038.140 2.318 2.368 2.508 2.368 2.288 2.348 2.588 2.438 2.318 2.418
3057.430 2.668 2.868 2.928 2.928 2.918 2.878 2.698 2.648 2.638 2.768
3076.720 2.728 2.508 2.608 2.908 2.718 2.448 2.308 2.358 2.418 2.188
3096.009 2.148 2.088 1.998 1.898 1.748 1.768 1.658 1.289 1.4154 1.628
3115.299 1.4633 1.121 0.9418 0.9455 1.084 1.232 0.9953 1.1258 1.3893 1.4858
3134.589 1.1288 0.6962 1.1535 1.3848 1.2116 1.3138 1.3343 1.2952 1.3126 1.1711
3153.879 1.1733 1.4089 1.3607 0.9597 0.66918 0.8865 1.25 1.1963 0.8159 0.7139
3173.169 0.8858 1.0938 1.2044 0.9346 0.8284 1.1759 1.3625 1.0984 0.7013 0.9539
3192.458 1.305 1.0825 1.1578 1.0503 0.6973 1.068 1.1429 0.9646 1.1758 1.0625
3211.748 0.979 0.8978 0.7147 0.8334 0.862 1.1242 1.3349 1.0913 1.1263 1.4163
3231.038 1.3261 0.9545 0.9671 1.0704 0.9201 0.7883 0.7318 0.65262 0.9514 1.2432
3250.328 1.142 1.1614 1.0682 0.879 0.7597 0.7435 0.9067 1.0016 0.7729 0.6838
3269.617 1.0069 0.9861 0.9468 1.0065 1.0439 1.0505 0.9473 1.049 1.1957 1.263
3288.907 1.0277 1.0911 1.0716 0.7799 0.8216 0.7126 0.463 0.474 0.63963 0.886
3308.197 1.1594 1.3315 1.1798 0.824 0.9582 1.0052 0.7247 0.58927 0.6787 0.9369
3327.487 1.0956 1.232 1.1639 1.0517 1.0293 0.7883 0.7588 1.1146 1.1806 1.144
3346.777 1.0996 0.8264 0.8309 0.92 0.8789 0.7547 0.8199 0.9398 1.1561 1.35
3366.066 1.2525 1.1298 1.1004 1.0279 0.7267 0.7059 0.8678 0.8915 0.785 0.7483
3385.356 1.0229 0.8997 0.894 1.1142 1.0946 1.2587 1.1621 1.2295 1.2324 1.0209
3404.646 1.0034 0.9616 1.2303 1.728 1.928 2.118 2.298 2.238 2.748 3.588
3423.936 4.008 4.448 4.758 4.708 5.298 5.868 5.858 5.608 5.428 5.488
3443.225 4.968 4.458 4.158 3.698 3.378 2.888 2.398 2.038 1.618 1.2213
3462.515 1.3356 1.3505 0.9868 0.9166 1.0539 1.1409 0.9708 0.64989 0.64669 0.8249
3481.805 0.717 0.7984 0.8464 0.8083 0.9527 0.9202 0.7756 0.7261 0.7654 0.7894
3501.095 0.9093 0.8168 0.6951 0.736 0.5155 0.5434 0.8995 0.8421 0.766 0.7777
3520.385 0.6684 0.66184 0.56989 0.7614 0.8647 0.9076 0.833 0.5493 0.5225 0.543
3539.674 0.8262 0.9531 0.65692 0.7976 1.2367 1.3369 1.2576 1.1296 0.8754 0.8451
3558.964 1.1317 1.1142 0.9315 0.9264 1.2064 1.5615 1.898 2.338 2.998 3.468
3578.254 3.818 4.058 4.268 4.638 4.448 4.158 4.128 4.218 4.398 4.638
3597.544 4.318 3.908 3.468 2.758 2.408 1.978 1.748 1.5082 1.01 0.7819
3616.833 0.752 0.7166 0.65067 0.8557 1.0783 1.101 1.0472 0.7712 0.8174 0.7714
3636.123 0.8061 0.67213 0.5034 0.5325 0.476 0.7704 0.9382 0.8836 0.7084 0.5037
3655.413 0.67579 0.894 0.7612 0.7391 0.64939 0.6888 1.1687 0.9494 0.435 0.7348
3674.703 0.8181 0.5581 0.845 0.9545 0.7127 0.8612 0.8749 0.5528 0.60198 1.007
3693.993 1.018 0.62913 0.217 0.389 0.6649 0.8953 1.1897 0.8118 0.9155 1.0601
3713.282 0.7757 0.7268 0.64059 0.56 0.466 0.805 0.8804 0.5085 0.7013 1.0484
3732.572 1.0533 0.939 0.7489 0.5023 0.7307 0.713 0.5607 1.0683 1.0958 1.1841
3751.862 1.182 1.0945 1.1666 0.9353 1.1264 1.2082 0.8982 0.5903 0.583661 0.5172
3771.152 0.421 0.7334 1.0673 1.1972 1.1603 0.59795 0.47 0.7295 0.64716 0.7101
3790.441 0.7771 0.62222 0.59612 0.586211 0.478 0.7733 0.7881 0.8221 1.0432 0.8563
3809.731 1.0716 1.1185 0.7212 0.815 0.7317 0.57051 0.8498 1.0002 1.0888 1.1375
3829.021 0.8983 0.9453 1.2234 0.9555 0.8344 0.7991 0.317 0.5092 0.66851 0.482
3848.311 0.7454 1.0292 1.0084 0.9429 0.9787 0.9737 0.8909 1.0261 0.8385 0.66179
3867.601 1.0949 1.1636 0.8721 1.0019 0.9844 0.8237 1.0315 1.1722 1.2146 1.036
3886.890 0.7727 0.7268 0.7142 0.8516 0.7865 0.9963 1.1319 0.9515 1.0494 0.7731
3906.180 0.902 1.131 1.0975 0.9686 0.5456 0.443 0.8399 1.0443 1.0564 1.2077
3925.470 1.2786 1.0876 0.995 1.2722 1.3204 1.1105 0.9844 0.7539 0.66057 0.65862
3944.760 0.65569 0.580387 0.8259 1.1922 0.9057 0.64041 0.7161 0.62778 0.382 0.7982
3964.049 0.8787 0.5565 0.7462 0.6826 0.8889 1.1063 1.1327 1.1434 0.8614 1.0733
3983.339 1.1727 1.0745 0.9964 1.0914 1.1138 1.0985 0.9596 0.4854 0.379 0.371
##END=
