##TITLE=6-Methyl-6-hepten-4-yn-2-ol
##JCAMP-DX=4.24
##DATA TYPE=INFRARED SPECTRUM
##ORIGIN=NIST Mass Spectrometry Data Center
##OWNER=NIST Standard Reference Data Program
Collection (C) 2018 copyright by the U.S. Secretary of Commerce
on behalf of the United States of America. All rights reserved.
##CAS REGISTRY NO=20937-57-9
##MOLFORM=C 8 H 12 O
##$NIST SOURCE=MSDC-IR
##SPECTROMETER/DATA SYSTEM=HP-GC/MS/IRD
##STATE=gas
##XUNITS=1/CM
##YUNITS=ABSORBANCE
##XFACTOR=1.0
##YFACTOR=0.000000700
##DELTAX=4.0
##FIRSTX=550.0
##LASTX=3846.0
##FIRSTY=0.000986
##MAXX=3846
##MINX=550
##MAXY=0.007
##MINY=0
##NPOINTS=825
##XYDATA=(X++(Y..Y))
550.0 1409 1057 765 692 672 419 191 142 25 11
590.0 216 258 209 132 155 267 325 224 129 84
630.0 99 166 200 270 278 217 207 296 318 255
670.0 231 220 226 294 357 353 292 322 302 236
710.0 244 186 170 182 200 158 133 254 308 228
750.0 84 28 133 132 90 144 170 157 231 318
790.0 369 436 449 472 533 614 648 724 619 486
830.0 699 733 661 686 648 646 809 950 1152 1546
870.0 2049 2579 3133 3763 4316 4780 5272 5363 4988 4635
910.0 4345 4112 3872 3614 3557 3673 3769 3753 3533 3020
950.0 2283 1660 1307 1079 921 813 709 651 671 761
990.0 911 1017 1117 1322 1536 1724 1909 2108 2300 2407
1030.0 2572 2929 3252 3467 3700 3902 3984 4013 4104 4237
1070.0 4404 4690 5055 5497 6035 6487 6763 6821 6628 6370
1110.0 5992 5514 4986 4422 3939 3459 2982 2554 2152 1885
1150.0 1696 1424 1231 1142 1125 1129 1151 1180 1240 1358
1190.0 1539 1808 2064 2260 2413 2477 2428 2422 2417 2334
1230.0 2303 2349 2470 2650 2905 3165 3405 3543 3601 3671
1270.0 3692 3727 4000 4526 5058 5473 5569 5185 4410 3484
1310.0 2688 2223 1982 1841 1833 1917 2077 2368 2718 2988
1350.0 3181 3313 3428 3646 4008 4442 4895 5210 5291 5127
1390.0 4798 4446 4092 3701 3318 2975 2765 2750 2855 2957
1430.0 3028 3026 2892 2756 2720 2774 2774 2683 2519 2223
1470.0 1808 1385 1109 924 777 652 586 527 449 403
1510.0 370 364 357 370 397 397 374 381 363 361
1550.0 431 462 530 591 621 689 786 918 1096 1318
1590.0 1601 1951 2278 2537 2848 3090 3145 3048 2795 2426
1630.0 1900 1435 1080 831 682 524 367 264 227 235
1670.0 224 170 169 174 179 213 193 155 190 235
1710.0 201 163 154 144 125 130 160 159 140 136
1750.0 158 194 233 254 270 321 369 456 569 661
1790.0 742 766 752 677 557 462 367 281 223 178
1830.0 144 122 96 76 69 66 64 49 42 37
1870.0 47 53 59 93 91 67 61 27 39 59
1910.0 31 47 67 60 75 93 93 80 79 76
1950.0 59 65 52 50 65 60 81 83 52 42
1990.0 21 10 17 50 53 37 56 61 50 68
2030.0 85 70 84 98 62 18 22 50 76 60
2070.0 36 54 64 28 27 42 67 107 62 36
2110.0 77 67 43 69 49 26 65 112 90 58
2150.0 56 37 53 87 111 122 125 135 136 152
2190.0 191 212 245 312 407 515 596 618 643 615
2230.0 503 386 296 211 123 104 85 75 71 63
2270.0 88 96 104 112 134 158 144 117 115 134
2310.0 132 92 41 32 68 85 114 135 110 103
2350.0 118 117 109 80 76 73 57 53 57 63
2390.0 40 51 80 70 88 116 100 115 131 111
2430.0 101 133 147 105 38 10 29 61 67 58
2470.0 48 81 138 137 97 107 130 113 130 121
2510.0 90 101 111 86 80 82 62 57 69 91
2550.0 103 85 108 102 76 57 77 110 119 133
2590.0 132 148 126 116 138 145 163 204 201 190
2630.0 209 194 198 200 183 207 210 172 177 210
2670.0 230 236 237 274 304 277 229 184 200 216
2710.0 253 268 209 204 289 315 288 311 331 314
2750.0 278 265 307 314 299 287 317 345 347 370
2790.0 385 406 454 514 575 630 719 772 824 994
2830.0 1173 1297 1394 1481 1568 1632 1707 1828 1978 2195
2870.0 2502 2858 3205 3534 3950 4287 4597 5023 5538 6241
2910.0 6945 7526 7965 8126 8174 8226 8219 7961 7483 6887
2950.0 6208 5791 5856 6261 6825 7637 8745 9746 10000 9528
2990.0 8418 6709 5011 3695 2807 2263 1878 1635 1457 1347
3030.0 1244 1076 944 838 769 745 748 763 716 666
3070.0 696 757 819 940 1066 1322 1876 2311 2290 2151
3110.0 1906 1303 806 641 542 418 332 336 337 272
3150.0 204 193 196 187 192 243 290 263 196 181
3190.0 195 192 153 170 195 128 75 84 72 83
3230.0 122 115 138 140 94 64 114 191 158 126
3270.0 143 159 199 189 154 112 108 131 97 78
3310.0 38 41 101 85 43 58 82 124 130 65
3350.0 0 74 179 183 179 98 66 113 130 130
3390.0 114 122 132 82 111 239 156 89 194 172
3430.0 154 144 77 84 125 150 116 65 70 87
3470.0 121 129 86 85 85 131 160 120 128 154
3510.0 190 195 170 120 155 251 261 246 266 309
3550.0 306 294 302 318 338 285 283 311 338 420
3590.0 578 816 1097 1566 2155 2381 2194 1984 1613 1179
3630.0 982 898 927 1119 1248 1372 1472 1489 1358 1055
3670.0 834 663 472 330 307 253 127 118 109 82
3710.0 156 212 149 122 121 61 107 145 198 252
3750.0 162 147 160 210 234 201 186 174 138 144
3790.0 154 110 111 191 190 46 24 105 131 138
3830.0 63 11 22 78 50
##END=
