##TITLE=3-Benzyloxyphenylacetonitrile
##JCAMP-DX=4.24
##DATA TYPE=INFRARED SPECTRUM
##ORIGIN=EPA-IR VAPOR PHASE LIBRARY
##OWNER=SRD/NIST
Collection (C) 2018 copyright by the U.S. Secretary of Commerce
on behalf of the United States of America. All rights reserved.
##CAS REGISTRY NO=20967-96-8
##MOLFORM=C 15 H 13 N O
##$NIST SOURCE=MSDC-IR
##STATE=gas
##XUNITS=1/CM
##YUNITS=ABSORBANCE
##XFACTOR=1.
##YFACTOR=0.001
##DELTAX=3.85796
##FIRSTX=551.7
##LASTX=4000.7
##FIRSTY=1.85
##MAXX=4000.7
##MINX=551.688
##MAXY=0.05938
##MINY=0.000521
##NPOINTS=895
##XYDATA=(X++(Y..Y))
551.688 1.85 1.75 1.85 1.86 1.76 1.85 1.95 2.05 2.14 2.23
590.268 2.42 2.62 2.93 3.25 3.48 3.79 4.13 4.29 4.36 4.37
628.847 4.2 3.92 3.6 3.32 3.16 3.1 3.19 3.47 3.96 4.74
667.427 5.94 7.65 10.23 13.94 18.62 23.61 27.24 27.77 25.19 21.3
706.006 17.95 15.81 14.83 14.9 15.88 17.33 18.79 20.22 21.64 22.63
744.586 22.58 21.56 20.39 19.51 18.99 18.8 18.71 18.6 18.15 16.87
783.165 14.49 11.53 8.85 6.85 5.55 4.74 4.26 4.01 3.9 3.85
821.745 3.89 4.14 4.59 5.24 5.82 6.06 6.03 5.81 5.63 5.65
860.324 5.76 5.96 6.34 6.73 6.91 6.94 6.84 6.74 6.75 6.82
898.904 6.96 6.98 6.77 6.43 6.13 5.94 5.84 5.77 5.62 5.47
937.484 5.33 5.16 5.09 5.09 5.12 5.18 5.25 5.38 5.6 6.03
976.063 6.77 7.88 9.37 11.17 13.12 14.74 16.08 17.72 20.14 23.43
1014.643 27.53 32.45 36.81 38.35 36.8 34.19 32.21 29.69 25.52 20.57
1053.222 15.86 12.12 9.64 8.26 7.66 7.62 7.76 7.67 7.15 6.28
1091.802 5.63 5.17 4.65 4.3 4.05 3.94 4.07 4.43 5.17 6.48
1130.381 8.5 11.87 17.31 24.93 33.25 38.57 38.6 34.51 28.88 22.95
1168.961 17.27 12.94 10.43 9.12 8.33 7.9 8.07 8.78 9.67 10.7
1207.540 11.99 13.64 15.86 19 23.26 28.66 34.79 40.37 44.31 46.89
1246.120 49.69 53.68 57.68 59.38 57.35 52.4 46.71 41.58 37.68 35.01
1284.699 33.04 31.17 29.12 27.21 25.95 25.49 25.36 24.62 22.6 19.62
1323.279 16.76 14.93 13.87 12.75 11.11 9.23 7.7 6.82 6.59 6.95
1361.859 7.97 9.68 11.67 13.58 14.75 14.2 11.9 9.06 7.15 6.34
1400.438 6.16 6.29 6.6 7.16 8.12 9.82 12.15 14.39 16.46 19.5
1439.018 24.93 31.43 35.47 34.18 28.87 23.15 19.94 18.87 18.77 19.79
1477.597 23.63 31.81 41.48 46.01 42.12 32.88 23.94 17.52 12.92 10.32
1516.177 8.77 7.75 7 6.53 6.2 5.97 5.86 5.92 6.2 6.74
1554.756 7.49 8.51 9.9 11.92 15.12 19.84 26.76 35.05 43 48.58
1593.336 51.69 53.85 54.99 53.15 47.15 38.08 27.84 18.93 12.84 9.14
1631.915 7 5.56 4.61 3.97 3.54 3.27 3.06 2.9 2.77 2.68
1670.495 2.56 2.47 2.43 2.4 2.35 2.29 2.24 2.22 2.22 2.24
1709.075 2.27 2.29 2.33 2.41 2.48 2.53 2.54 2.54 2.51 2.45
1747.654 2.38 2.31 2.23 2.15 2.08 2.03 2.04 2.09 2.14 2.21
1786.234 2.32 2.54 2.81 2.98 2.94 2.73 2.49 2.31 2.23 2.17
1824.813 2.12 2.12 2.16 2.22 2.26 2.27 2.28 2.3 2.32 2.35
1863.393 2.37 2.41 2.44 2.48 2.48 2.44 2.36 2.23 2.12 2.07
1901.972 2.08 2.15 2.26 2.38 2.55 2.7 2.79 2.79 2.72 2.64
1940.552 2.64 2.62 2.6 2.62 2.63 2.54 2.33 2.07 1.88 1.8
1979.131 1.76 1.74 1.73 1.71 1.7 1.66 1.64 1.62 1.61 1.6
2017.711 1.57 1.57 1.58 1.55 1.54 1.53 1.49 1.46 1.44 1.41
2056.291 1.4 1.39 1.37 1.33 1.31 1.27 1.24 1.19 1.18 1.18
2094.870 1.15 1.12 1.1 1.06 1.05 1.08 1.07 1.04 1.05 1.07
2133.450 1.06 1.06 1.06 1.04 1.02 1.04 1.04 1.03 1.05 1.06
2172.029 1.07 1.07 1.05 1.06 1.09 1.08 1.08 1.1 1.1 1.1
2210.609 1.12 1.14 1.15 1.15 1.14 1.16 1.22 1.3 1.4 1.51
2249.188 1.65 1.77 1.79 1.69 1.52 1.39 1.3 1.2 1.11 1.06
2287.768 1.06 1.05 1.06 1.08 1.09 1.14 1.25 1.33 1.34 1.33
2326.347 1.32 1.33 1.33 1.34 1.34 1.33 1.31 1.25 1.19 1.16
2364.927 1.14 1.13 1.14 1.13 1.13 1.13 1.15 1.16 1.17 1.17
2403.507 1.18 1.18 1.18 1.16 1.15 1.15 1.16 1.16 1.12 1.12
2442.086 1.13 1.09 1.07 1.06 1.08 1.09 1.07 1.09 1.12 1.13
2480.666 1.16 1.17 1.16 1.16 1.17 1.19 1.2 1.2 1.19 1.19
2519.245 1.21 1.24 1.22 1.17 1.13 1.13 1.15 1.15 1.15 1.16
2557.825 1.19 1.2 1.21 1.22 1.24 1.25 1.25 1.27 1.25 1.19
2596.404 1.2 1.23 1.22 1.18 1.16 1.11 1.04 1.02 1 0.9774
2634.984 0.97 0.9545 0.9203 0.8754 0.8838 0.8681 0.8311 0.8382 0.8398 0.8333
2673.563 0.8507 0.8641 0.8886 0.8957 0.8924 0.9287 0.9638 1.01 1.04 1.06
2712.143 1.09 1.11 1.16 1.22 1.26 1.3 1.35 1.34 1.25 1.21
2750.722 1.16 1.12 1.1 1.08 1.07 1.05 1.06 1.1 1.1 1.12
2789.302 1.18 1.18 1.17 1.24 1.33 1.44 1.56 1.64 1.78 1.93
2827.882 2.08 2.25 2.37 2.46 2.58 2.7 2.87 3.11 3.46 3.94
2866.461 4.58 5.35 6.15 6.92 7.59 7.96 7.87 7.56 7.22 6.96
2905.041 6.9 6.99 7.16 7.39 7.7 8.11 8.59 8.95 9.11 9.03
2943.620 8.78 8.65 8.72 8.67 8.27 7.49 6.55 5.68 4.89 4.17
2982.200 3.55 3.08 2.81 2.67 2.7 2.94 3.35 3.92 4.65 5.75
3020.779 7.32 9.35 11.82 14.34 16.3 17.11 16.77 15.76 14.86 14.57
3059.359 15.04 16.33 18.33 20.14 20.24 18.23 15.34 12.97 11.3 9.93
3097.938 8.66 7.51 6.54 5.71 4.9 4.03 3.2 2.52 1.98 1.61
3136.518 1.41 1.29 1.18 1.1 1.05 1.04 1.06 1.07 1.07 1.04
3175.098 0.9996 0.9522 0.9532 0.9919 0.9958 0.9442 0.9281 0.9351 0.9192 0.8834
3213.677 0.8524 0.821 0.7867 0.7184 0.6611 0.6676 0.6633 0.6481 0.6477 0.633
3252.257 0.64 0.6385 0.6425 0.6587 0.6491 0.6865 0.6803 0.6451 0.6674 0.6903
3290.836 0.679 0.6272 0.6055 0.6519 0.6721 0.6351 0.6216 0.6041 0.5794 0.6129
3329.416 0.6448 0.6673 0.6595 0.6537 0.6494 0.6332 0.6084 0.5948 0.62 0.6074
3367.995 0.6065 0.6355 0.6335 0.6114 0.5874 0.5895 0.5818 0.5979 0.6287 0.5855
3406.575 0.5884 0.5777 0.521 0.5579 0.5869 0.5801 0.5888 0.5981 0.6154 0.6169
3445.154 0.627 0.6444 0.666 0.6981 0.6302 0.6071 0.6002 0.6129 0.6197 0.6098
3483.734 0.6967 0.7221 0.7042 0.688 0.6723 0.6137 0.5963 0.6349 0.6216 0.6518
3522.314 0.6588 0.615 0.5801 0.5735 0.6277 0.6966 0.7084 0.6568 0.5844 0.5937
3560.893 0.7115 0.7461 0.6965 0.6938 0.6688 0.6349 0.6583 0.6982 0.6787 0.6165
3599.473 0.6538 0.7033 0.6877 0.6789 0.6957 0.7284 0.7267 0.7324 0.7268 0.7153
3638.052 0.7193 0.7109 0.7304 0.7226 0.7578 0.771 0.7932 0.8198 0.7924 0.8026
3676.632 0.7911 0.7821 0.8013 0.8194 0.8196 0.7729 0.7586 0.7899 0.7485 0.6768
3715.211 0.6781 0.6799 0.68 0.6717 0.7038 0.7044 0.654 0.66 0.647 0.6606
3753.791 0.6219 0.5915 0.5861 0.5481 0.6188 0.691 0.6982 0.7216 0.6799 0.6454
3792.370 0.6602 0.6759 0.7335 0.7204 0.6409 0.6353 0.6738 0.6779 0.6691 0.7117
3830.950 0.7813 0.7526 0.6916 0.7288 0.7481 0.7252 0.707 0.7327 0.7497 0.7385
3869.530 0.7522 0.775 0.7702 0.7779 0.7951 0.781 0.7996 0.781 0.7738 0.7869
3908.109 0.7763 0.7815 0.7927 0.7695 0.7381 0.7371 0.7504 0.765 0.7454 0.7607
3946.689 0.7497 0.7295 0.7941 0.7839 0.7283 0.6952 0.7049 0.8235 0.8767 0.7945
3985.268 0.771 0.8451 0.8545 0.7991 0.7939
##END=
