##TITLE=7-Bromoheptanonitrile
##JCAMP-DX=4.24
##DATA TYPE=INFRARED SPECTRUM
##ORIGIN=EPA-IR VAPOR PHASE LIBRARY
##OWNER=SRD/NIST
Collection (C) 2018 copyright by the U.S. Secretary of Commerce
on behalf of the United States of America. All rights reserved.
##CAS REGISTRY NO=20965-27-9
##MOLFORM=C 7 H 12 Br N
##$NIST SOURCE=MSDC-IR
##STATE=gas
##XUNITS=1/CM
##YUNITS=ABSORBANCE
##XFACTOR=1.
##YFACTOR=0.001
##DELTAX=1.92934
##FIRSTX=549.9
##LASTX=3999.5
##FIRSTY=2.959
##MAXX=3999.53
##MINX=549.863
##MAXY=0.095879
##MINY=0
##NPOINTS=1789
##XYDATA=(X++(Y..Y))
549.863 2.959 3.379 3.759 4.189 4.849 5.669 6.379 6.819 7.249 7.789
569.156 8.139 8.209 8.109 7.769 7.159 6.369 5.479 4.589 3.969 3.469
588.450 2.939 2.519 2.189 2.009 1.809 1.589 1.421 1.3725 1.426 1.4042
607.743 1.3194 1.2941 1.3383 1.3597 1.4197 1.529 1.569 1.579 1.759 1.979
627.037 2.169 2.459 2.779 3.049 3.449 3.939 4.489 5.019 5.559 6.229
646.330 6.969 7.599 8.059 8.409 8.439 8.129 7.559 6.749 5.859 5.009
665.624 4.269 3.639 3.019 2.559 2.349 2.219 2.109 1.919 1.789 1.799
684.917 1.799 1.859 1.939 1.929 1.949 2.089 2.199 2.269 2.339 2.449
704.210 2.689 2.969 3.239 3.509 3.819 4.259 4.629 4.969 5.379 5.699
723.504 5.949 6.139 6.259 6.249 6.269 6.149 5.819 5.579 5.309 4.999
742.797 4.689 4.459 4.279 4.059 3.909 3.819 3.689 3.609 3.509 3.399
762.091 3.319 3.129 3.009 2.929 2.899 2.809 2.669 2.639 2.569 2.479
781.384 2.469 2.459 2.419 2.429 2.369 2.269 2.289 2.329 2.379 2.369
800.678 2.369 2.399 2.379 2.399 2.439 2.479 2.459 2.389 2.399 2.459
819.971 2.459 2.479 2.569 2.639 2.619 2.569 2.589 2.559 2.479 2.459
839.264 2.459 2.439 2.399 2.379 2.419 2.419 2.369 2.349 2.359 2.389
858.558 2.439 2.439 2.389 2.369 2.379 2.349 2.289 2.279 2.219 2.189
877.851 2.219 2.189 2.119 2.019 1.949 1.889 1.869 1.819 1.789 1.779
897.145 1.829 1.919 1.969 1.919 1.899 1.969 2.099 2.169 2.219 2.289
916.438 2.419 2.529 2.599 2.749 2.899 2.999 3.089 3.179 3.249 3.249
935.732 3.159 3.049 2.949 2.849 2.739 2.609 2.459 2.349 2.239 2.129
955.025 2.019 1.999 1.919 1.829 1.829 1.809 1.809 1.819 1.789 1.759
974.318 1.719 1.659 1.559 1.4967 1.4718 1.4189 1.4034 1.4192 1.4531 1.3906
993.612 1.369 1.4152 1.4119 1.4642 1.519 1.5047 1.47 1.5166 1.599 1.569
1012.905 1.569 1.609 1.589 1.579 1.619 1.729 1.819 1.849 1.899 1.959
1032.199 1.989 2.039 2.109 2.139 2.099 2.049 2.029 1.979 1.919 1.839
1051.492 1.779 1.739 1.659 1.629 1.609 1.549 1.559 1.559 1.5156 1.5027
1070.786 1.4579 1.3902 1.4111 1.4074 1.4062 1.4166 1.3329 1.369 1.4517 1.3744
1090.079 1.3119 1.245 1.1368 1.0643 0.9586 0.928 0.9127 0.8637 0.8338 0.7642
1109.372 0.7586 0.7719 0.7457 0.7289 0.6873 0.6832 0.7024 0.8239 0.8932 0.8839
1128.666 0.965 0.9451 0.9294 0.9144 0.9219 1.0048 1.047 1.1142 1.1274 1.1468
1147.959 1.1885 1.1725 1.0902 1.1573 1.3076 1.2605 1.2392 1.344 1.423 1.4885
1167.253 1.579 1.689 1.749 1.819 1.899 2.059 2.159 2.169 2.299 2.459
1186.546 2.629 2.819 3.009 3.279 3.579 3.849 4.229 4.759 5.309 5.899
1205.840 6.499 7.309 8.259 9.449 10.649 11.599 12.669 13.619 14.309 14.809
1225.133 15.199 15.579 15.639 15.379 15.159 14.949 14.709 14.559 14.459 14.349
1244.426 14.499 14.949 15.399 16.149 17.229 18.179 19.079 19.969 20.629 21.039
1263.720 21.119 20.749 19.979 19.009 18.049 16.999 15.909 14.959 14.199 13.559
1283.013 13.009 12.539 12.049 11.549 11.109 10.689 10.339 10.039 9.769 9.469
1302.307 9.119 8.759 8.329 7.969 7.679 7.289 6.979 6.779 6.549 6.389
1321.600 6.299 6.209 6.129 6.019 5.989 6.049 6.009 5.969 6.009 6.169
1340.894 6.339 6.479 6.719 6.969 7.159 7.299 7.319 7.229 7.039 6.809
1360.187 6.549 6.199 5.819 5.429 5.079 4.789 4.519 4.269 3.979 3.679
1379.480 3.389 3.159 2.909 2.719 2.599 2.469 2.389 2.339 2.329 2.359
1398.774 2.399 2.449 2.569 2.719 2.909 3.159 3.439 3.769 4.239 4.769
1418.067 5.359 6.119 6.999 8.019 9.309 10.839 12.629 14.529 16.319 17.909
1437.361 19.289 20.299 20.759 20.669 20.249 19.769 19.329 18.849 18.469 18.229
1456.654 18.029 17.739 17.239 16.479 15.529 14.359 13.059 11.699 10.359 9.109
1475.948 7.959 6.869 5.939 5.159 4.469 3.879 3.409 3.039 2.709 2.449
1495.241 2.279 2.099 1.949 1.829 1.689 1.549 1.4613 1.4475 1.3979 1.2965
1514.534 1.2431 1.1798 1.132 1.1497 1.0959 1.0152 1.0685 1.0953 1.0117 0.9349
1533.828 0.8771 0.8788 0.8189 0.6924 0.7151 0.748 0.7496 0.759 0.7532 0.7234
1553.121 0.6745 0.6894 0.6669 0.61031 0.60289 0.6264 0.662 0.6548 0.6488 0.6643
1572.415 0.6527 0.6371 0.6446 0.633 0.58783 0.57939 0.60162 0.5688 0.56027 0.57297
1591.708 0.54928 0.5084 0.4963 0.518883 0.51468 0.5045 0.4563 0.4373 0.4244 0.407
1611.002 0.4737 0.4762 0.4676 0.5074 0.51655 0.55852 0.59364 0.57445 0.51809 0.518736
1630.295 0.56121 0.522821 0.5015 0.508 0.5048 0.53705 0.57418 0.58835 0.57736 0.56138
1649.588 0.5575 0.520237 0.4812 0.53446 0.56792 0.54267 0.53525 0.521188 0.4846 0.4694
1668.882 0.4714 0.4694 0.4746 0.4565 0.475 0.498 0.5029 0.50974 0.4694 0.4598
1688.175 0.4646 0.4612 0.4354 0.418 0.4664 0.4944 0.494 0.48 0.4579 0.4491
1707.469 0.4472 0.4601 0.4915 0.5011 0.4924 0.4991 0.4973 0.4884 0.4763 0.4464
1726.762 0.4425 0.4791 0.4721 0.4652 0.5003 0.4765 0.4523 0.4872 0.526717 0.5004
1746.056 0.4803 0.4933 0.51663 0.51089 0.4275 0.4234 0.4542 0.451 0.4727 0.4841
1765.349 0.4858 0.4503 0.4414 0.4332 0.415 0.4206 0.4303 0.486 0.5022 0.4693
1784.642 0.4815 0.466 0.4292 0.4721 0.474 0.4268 0.4539 0.4736 0.449 0.482
1803.936 0.488 0.463 0.491 0.4848 0.4546 0.4554 0.4312 0.418 0.4385 0.4515
1823.229 0.458 0.4448 0.4514 0.4759 0.469 0.4568 0.4517 0.426 0.393 0.382
1842.523 0.406 0.4492 0.442 0.4499 0.461 0.4482 0.4351 0.41 0.416 0.4453
1861.816 0.4363 0.413 0.423 0.458 0.4716 0.434 0.4656 0.4927 0.4907 0.502
1881.110 0.5109 0.52205 0.4749 0.4745 0.4856 0.4452 0.412 0.428 0.4597 0.4501
1900.403 0.4214 0.4296 0.4569 0.4345 0.418 0.4536 0.4801 0.4705 0.4774 0.4831
1919.696 0.4496 0.4384 0.4296 0.4329 0.4333 0.4457 0.4728 0.456 0.4201 0.409
1938.990 0.4252 0.4344 0.402 0.393 0.414 0.401 0.412 0.416 0.4203 0.4292
1958.283 0.405 0.406 0.4327 0.42 0.4259 0.4548 0.4578 0.4445 0.4374 0.404
1977.577 0.366 0.373 0.416 0.404 0.392 0.4531 0.4831 0.4793 0.4706 0.4664
1996.870 0.4582 0.449 0.4836 0.4982 0.4995 0.519135 0.52852 0.53969 0.51699 0.4958
2016.164 0.5161 0.55896 0.55991 0.53838 0.56015 0.57394 0.58308 0.60552 0.6037 0.6212
2035.457 0.6338 0.60927 0.60771 0.60057 0.59205 0.61176 0.6234 0.633 0.6359 0.60237
2054.750 0.56631 0.58846 0.58298 0.51791 0.4976 0.54418 0.56801 0.56584 0.525786 0.484
2074.044 0.5533 0.59308 0.55127 0.5038 0.4803 0.4575 0.4677 0.4867 0.4786 0.4651
2093.337 0.476 0.4657 0.4368 0.464 0.4911 0.4895 0.5058 0.51151 0.518047 0.5065
2112.631 0.4422 0.4533 0.4893 0.462 0.411 0.4213 0.4812 0.4621 0.4497 0.4812
2131.924 0.498 0.4696 0.4489 0.4804 0.4888 0.5035 0.4982 0.4914 0.51519 0.56817
2151.218 0.58385 0.56268 0.54207 0.51069 0.5088 0.55789 0.56597 0.56465 0.58493 0.55864
2170.511 0.54454 0.53335 0.53902 0.5318 0.51844 0.54056 0.55554 0.57778 0.56813 0.53435
2189.804 0.56147 0.55917 0.56499 0.59239 0.57029 0.58955 0.61225 0.58207 0.54697 0.53574
2209.098 0.58752 0.60441 0.6042 0.6544 0.6557 0.6775 0.7036 0.7113 0.757 0.8173
2228.391 0.9117 0.9838 1.0831 1.2063 1.3388 1.519 1.739 2.009 2.269 2.509
2247.685 2.719 2.849 2.899 2.869 2.729 2.519 2.279 2.049 1.819 1.579
2266.978 1.3901 1.2371 1.1212 1.0314 0.9403 0.915 0.8647 0.8262 0.8049 0.7672
2286.272 0.7464 0.7318 0.7195 0.7124 0.6553 0.61274 0.624 0.6204 0.6238 0.60804
2305.565 0.57891 0.53375 0.528405 0.55572 0.53104 0.528757 0.56865 0.55961 0.54522 0.54352
2324.858 0.526859 0.5 0.4986 0.519557 0.51113 0.4846 0.4584 0.4618 0.4511 0.4194
2344.152 0.4272 0.4915 0.48 0.4425 0.4795 0.4902 0.4821 0.4893 0.49 0.4861
2363.445 0.4867 0.5024 0.520165 0.51019 0.4812 0.4854 0.51597 0.54139 0.51574 0.4951
2382.739 0.525306 0.54249 0.523413 0.5084 0.53858 0.50946 0.4876 0.5062 0.5003 0.488
2402.032 0.5062 0.56468 0.55937 0.53558 0.54582 0.522561 0.51606 0.51797 0.4547 0.4636
2421.326 0.521607 0.4856 0.4489 0.4655 0.4881 0.4772 0.4566 0.4612 0.4709 0.4483
2440.619 0.4346 0.4709 0.51382 0.4998 0.448 0.4303 0.4631 0.4499 0.4444 0.4441
2459.912 0.379 0.376 0.374 0.326 0.283 0.297 0.336 0.315 0.318 0.345
2479.206 0.359 0.357 0.336 0.346 0.376 0.4216 0.408 0.375 0.412 0.4425
2498.499 0.4345 0.4308 0.416 0.4198 0.4647 0.4866 0.4544 0.4369 0.4579 0.4735
2517.793 0.4414 0.409 0.409 0.389 0.393 0.437 0.4514 0.398 0.38 0.362
2537.086 0.353 0.364 0.326 0.324 0.346 0.365 0.347 0.299 0.293 0.304
2556.380 0.342 0.413 0.4394 0.351 0.278 0.31 0.337 0.351 0.373 0.357
2575.673 0.35 0.382 0.418 0.409 0.475 0.51342 0.4338 0.4294 0.4373 0.51028
2594.966 0.60909 0.61204 0.61576 0.58658 0.53297 0.55464 0.55461 0.56383 0.6236 0.6354
2614.260 0.6307 0.6425 0.6546 0.6568 0.6302 0.6259 0.6722 0.6948 0.6516 0.6404
2633.553 0.704 0.7147 0.7144 0.7176 0.7341 0.7617 0.7807 0.8028 0.8231 0.8486
2652.847 0.8586 0.8702 0.8672 0.9331 1.0005 1.0133 0.9623 0.9395 0.9549 0.9501
2672.140 1.0096 1.0447 1.0527 1.1098 1.0992 1.087 1.1105 1.1348 1.1365 1.1155
2691.434 1.1651 1.152 1.0694 1.0807 1.1128 1.0867 1.0446 1.0172 1.0215 0.946
2710.727 0.8921 0.9371 0.9213 0.8805 0.8832 0.8103 0.8071 0.8594 0.8052 0.7744
2730.020 0.7622 0.7408 0.7196 0.742 0.7938 0.7498 0.7627 0.8108 0.7783 0.771
2749.314 0.7791 0.8112 0.8786 0.9054 0.9505 0.9918 0.9677 0.9575 0.9829 0.9804
2768.607 0.9783 1.0651 1.1024 1.1267 1.207 1.2526 1.2553 1.244 1.3048 1.3661
2787.901 1.3765 1.44 1.529 1.589 1.669 1.759 1.859 1.969 1.969 2.069
2807.194 2.239 2.369 2.459 2.529 2.699 2.859 3.059 3.299 3.499 3.749
2826.488 4.099 4.489 4.889 5.379 5.959 6.609 7.389 8.299 9.329 10.409
2845.781 11.559 12.899 14.389 15.879 17.449 19.239 21.179 23.109 25.009 26.919
2865.074 28.659 30.159 31.389 32.189 32.389 32.089 31.499 30.569 29.219 27.839
2884.368 26.509 25.219 24.199 23.449 22.979 22.679 22.569 22.799 23.199 23.679
2903.661 24.379 25.209 26.149 27.209 28.509 29.969 31.679 33.729 36.139 38.939
2922.955 42.019 45.339 49.199 53.599 58.319 63.489 68.859 74.249 79.699 84.699
2942.248 88.839 92.319 94.779 95.879 95.469 93.609 90.609 86.919 82.769 78.079
2961.542 73.279 68.419 63.329 58.169 52.909 47.629 42.629 37.989 33.749 29.729
2980.835 25.779 22.419 19.709 17.199 15.149 13.489 11.969 10.879 10.199 9.689
3000.128 9.409 9.379 9.449 9.719 10.229 10.699 10.909 10.819 10.569 10.099
3019.422 9.229 8.099 6.919 5.929 5.039 4.389 3.969 3.439 2.919 2.529
3038.715 2.319 2.139 1.959 1.819 1.749 1.709 1.569 1.4239 1.2311 1.1151
3058.009 1.1638 1.0911 1.0258 1.086 0.954 0.9208 0.949 0.8512 0.7713 0.6627
3077.302 0.6776 0.7215 0.7255 0.7365 0.6636 0.7231 0.7131 0.58762 0.56431 0.56654
3096.596 0.4993 0.521834 0.5006 0.401 0.51003 0.55139 0.4581 0.37 0.382 0.386
3115.889 0.369 0.4579 0.52909 0.461 0.51146 0.54522 0.416 0.417 0.396 0.347
3135.182 0.382 0.417 0.4554 0.5317 0.53855 0.347 0.281 0.383 0.4468 0.456
3154.476 0.4272 0.386 0.396 0.4325 0.4225 0.4748 0.4727 0.482 0.53257 0.521409
3173.769 0.4577 0.39 0.4779 0.4593 0.345 0.378 0.4589 0.5102 0.4442 0.414
3193.063 0.392 0.358 0.356 0.315 0.415 0.367 0.263 0.386 0.4249 0.327
3212.356 0.228 0.269 0.314 0.307 0.184 0.177 0.218 0.171 0.208 0.179
3231.650 0.153 0.209 0.293 0.263 0.238 0.297 0.257 0.189 0.309 0.318
3250.943 0.285 0.338 0.233 0.162 0.223 0.315 0.264 0.262 0.316 0.223
3270.236 0.189 0.327 0.278 0.187 0.141 0 0.11 0.247 0.215 0.134
3289.530 0.121 0.165 0.239 0.284 0.359 0.358 0.28 0.35 0.284 0.147
3308.823 0.175 0.159 0.165 0.238 0.317 0.266 0.196 0.288 0.243 0.211
3328.117 0.268 0.295 0.222 0.168 0.198 0.293 0.348 0.341 0.302 0.236
3347.410 0.271 0.205 0.072 0.012 0.162 0.261 0.21 0.136 0.106 0.114
3366.704 0.04 0.123 0.3 0.237 0.173 0.254 0.296 0.294 0.252 0.194
3385.997 0.092 0.105 0.213 0.169 0.14 0.152 0.207 0.237 0.213 0.35
3405.290 0.4347 0.387 0.341 0.341 0.4329 0.335 0.307 0.394 0.308 0.244
3424.584 0.206 0.299 0.297 0.173 0.198 0.22 0.249 0.251 0.234 0.138
3443.877 0.126 0.219 0.244 0.172 0.065 0.156 0.269 0.295 0.315 0.246
3463.171 0.07 0.058 0.262 0.37 0.173 0.154 0.312 0.343 0.331 0.363
3482.464 0.379 0.331 0.336 0.337 0.233 0.134 0.152 0.288 0.382 0.263
3501.758 0.267 0.4555 0.4 0.191 0.305 0.419 0.382 0.257 0.21 0.316
3521.051 0.381 0.413 0.405 0.411 0.394 0.403 0.353 0.168 0.182 0.284
3540.344 0.26 0.266 0.259 0.301 0.317 0.228 0.156 0.305 0.38 0.199
3559.638 0.23 0.215 0.137 0.22 0.272 0.251 0.209 0.278 0.342 0.376
3578.931 0.363 0.232 0.22 0.233 0.155 0.182 0.345 0.29 0.175 0.239
3598.225 0.301 0.298 0.33 0.409 0.381 0.338 0.404 0.5016 0.4683 0.37
3617.518 0.32 0.333 0.317 0.398 0.54201 0.4888 0.264 0.234 0.361 0.292
3636.812 0.214 0.318 0.336 0.217 0.242 0.216 0.126 0.292 0.4373 0.394
3656.105 0.446 0.4434 0.382 0.37 0.31 0.278 0.238 0.268 0.227 0.21
3675.398 0.31 0.26 0.123 0.179 0.332 0.416 0.4274 0.294 0.249 0.284
3694.692 0.337 0.328 0.246 0.22 0.299 0.286 0.245 0.288 0.291 0.32
3713.985 0.353 0.4206 0.412 0.344 0.385 0.253 0.118 0.149 0.256 0.357
3733.279 0.296 0.25 0.242 0.253 0.298 0.234 0.224 0.262 0.188 0.193
3752.572 0.279 0.326 0.277 0.183 0.132 0.142 0.209 0.305 0.251 0.192
3771.866 0.258 0.221 0.194 0.249 0.269 0.273 0.31 0.275 0.135 0.16
3791.159 0.232 0.252 0.306 0.271 0.23 0.245 0.224 0.277 0.219 0.176
3810.452 0.213 0.179 0.267 0.352 0.228 0.179 0.198 0.141 0.172 0.189
3829.746 0.21 0.257 0.218 0.242 0.247 0.221 0.269 0.243 0.215 0.206
3849.039 0.207 0.083 0.034 0.153 0.223 0.232 0.237 0.244 0.207 0.316
3868.333 0.408 0.337 0.318 0.264 0.267 0.265 0.261 0.269 0.232 0.273
3887.626 0.176 0.154 0.259 0.227 0.196 0.258 0.321 0.356 0.346 0.312
3906.920 0.218 0.177 0.148 0.128 0.246 0.284 0.219 0.215 0.243 0.265
3926.213 0.226 0.134 0.158 0.238 0.263 0.176 0.165 0.218 0.247 0.262
3945.506 0.317 0.336 0.238 0.327 0.418 0.367 0.338 0.336 0.341 0.33
3964.800 0.263 0.207 0.237 0.235 0.225 0.269 0.314 0.353 0.287 0.171
3984.093 0.193 0.268 0.311 0.322 0.277 0.317 0.343 0.292 0.3
##END=
