##TITLE=Ethyl 5-bromonicotinate
##JCAMP-DX=4.24
##DATA TYPE=INFRARED SPECTRUM
##ORIGIN=EPA-IR VAPOR PHASE LIBRARY
##OWNER=SRD/NIST
Collection (C) 2018 copyright by the U.S. Secretary of Commerce
on behalf of the United States of America. All rights reserved.
##CAS REGISTRY NO=20986-40-7
##MOLFORM=C 8 H 8 Br N O 2
##$NIST SOURCE=MSDC-IR
##STATE=gas
##XUNITS=1/CM
##YUNITS=ABSORBANCE
##XFACTOR=1.
##YFACTOR=0.001
##DELTAX=1.92898
##FIRSTX=549.8
##LASTX=4000.7
##FIRSTY=1.6588
##MAXX=4000.7
##MINX=549.759
##MAXY=0.49571
##MINY=0
##NPOINTS=1790
##XYDATA=(X++(Y..Y))
549.759 1.6588 1.6017 1.5064 1.19563 1.0823 0.651 0.604 0.605 1.0724 0.777
569.049 0.367 0.531 0.747 0.846 0.13 0.07 0.472 0.617 0.757 1.3168
588.339 1.5735 1.5631 1.4995 1.26058 0.859 1.013 1.2865 1 1.1283 1.3973
607.628 1.17123 1.1679 1.23537 0.918 0.873 1.0784 1.713 1.9907 1.6759 1.3443
626.918 1.6464 2.23 2.97 3.99 4.73 5.4 4.98 4.84 5.48 5.42
646.208 4.89 3.78 3.44 3.73 3.15 2.41 2.0703 2.0777 2.1391 2.37
665.498 3.25 3.27 3.16 4.01 5.35 7.16 8.9 11.18 13.6 16.16
684.787 18.5 20.84 22.72 21.95 19.45 17.12 15.35 13.34 11.11 8.97
704.077 7.4 6.44 5.78 5.63 5.84 6.08 6.38 7.11 8.43 9.9
723.367 11.81 14.79 19.3 25.06 31.67 38.36 44.16 48.8 50.73 49.49
742.657 45.7 39.99 33.63 29 26.62 25.97 26.56 27.94 29.91 32.08
761.947 34.39 35.2 33.45 30.85 28.13 24.9 21.62 18.94 16.79 14.65
781.236 12.97 11.47 10.6 10.65 10.59 10.32 9.63 9.13 8.9 8.35
800.526 8.14 7.97 7.37 6.95 6.62 6.02 5.29 5.24 4.71 4.16
819.816 3.79 3.59 4.74 5.12 4.82 4.89 5.25 5.22 5.12 5.65
839.106 6.16 6.43 6.63 7.26 8 8.59 9.23 9.6 10.08 10.19
858.395 10.64 11.89 12.42 12.49 12.42 12.35 13.09 14.92 17.4 20.59
877.685 24.28 27.86 31.33 34.17 35.19 34.62 33.16 30.88 28.43 26.21
896.975 24.44 23.09 21.42 19.29 17.2 14.72 12.54 11.02 9.36 8.03
916.265 7.16 6.42 5.78 5.58 5.74 5.89 5.98 5.82 5.98 5.66
935.555 5.47 5.28 4.62 4.81 4.86 4.61 4.69 4.96 5 4.8
954.844 4.32 4.35 4.46 4.2 4.49 4.99 4.92 4.91 5.48 5.1
974.134 4.98 5.94 6.04 5.8 6.62 7.06 7.35 8.23 8.99 10.4
993.424 12.03 13.37 14.86 17.4 21.18 25.49 30.13 36.22 43.75 51.6
1012.714 60.92 69.51 76.35 81.16 81.09 77.98 75.16 70.91 61.77 49.78
1032.003 39 30.95 25.02 20.48 16.67 14.36 12.62 11.6 11.14 10.39
1051.293 9.94 9.43 9.19 9.34 10.39 11.99 12.64 12.6 13.71 15.81
1070.583 18.62 21.75 24.87 28.29 31.81 37.3 45.88 53.88 61.31 72.06
1089.873 85.63 99.59 112.73 126.44 138.59 146.91 153.53 156.71 155.47 150.71
1109.163 142.96 132.55 121.74 110.36 99.51 88.89 78.92 71.55 64.19 57.57
1128.452 52.47 48.29 44.73 41.11 38.4 36.52 33.11 31.13 30.92 30.08
1147.742 28.81 28.3 29.14 31.13 34.39 38.88 46.09 53.7 60.31 64.84
1167.032 65.26 64.54 61.45 55.43 50.13 45.61 42.21 39.77 37.19 34.38
1186.322 31.34 28.93 26.66 24.64 23.83 23.87 23.53 22.74 22.39 23.15
1205.611 26.49 27.91 27.76 28.38 29.3 30.61 30.91 31.96 32.93 34.06
1224.901 36.31 38.54 40.1 44.41 51.67 58.63 66.91 78.67 93.71 111.67
1244.191 133.35 160.46 194.33 232.95 275.67 322.15 368.88 411.26 444.88 471.86
1263.481 489.65 495.71 486.99 461.44 423.67 374.27 316.16 253.56 194.15 146.47
1282.771 112.5 89.37 74.24 64.53 58.68 57.2 60.02 67.59 79.35 91.7
1302.060 100.55 104.27 102.8 95.68 84.3 71.07 58.56 48.56 40.91 35.34
1321.350 31.39 28.41 25.9 23.77 22.19 20.83 19.69 18.7 17.88 17.13
1340.640 16.28 15.53 15.04 14.63 14.32 14.3 14.43 14.94 16.08 17.79
1359.930 20.2 24.2 29.55 35.01 39.1 40.75 40.51 38.73 34.59 28.92
1379.219 23.88 20.6 18.88 18.08 17.91 18.01 18.42 19.14 19.8 20.48
1398.509 21.45 22.75 24.5 27 30.62 35.39 41.32 47.85 53.21 56.25
1417.799 57.06 56.06 53.54 50.34 47.98 47.48 48.43 49.27 48.67 46.7
1437.089 43.16 38.36 32.61 27.24 23.34 20.83 19.29 18.37 17.63 16.91
1456.378 16.56 16.51 16.58 16.55 16.76 17.25 17.6 17.76 17.92 17.59
1475.668 16.72 15.79 14.59 13.23 11.87 10.69 9.87 9.15 8.49 7.92
1494.958 7.44 6.95 6.51 6.34 6.22 6.13 6.13 6.12 6.34 6.37
1514.248 6.38 6.95 7.43 7.66 7.9 8.09 8.15 8.48 8.72 8.67
1533.538 8.75 9.14 9.72 10.26 10.68 11.07 11.72 12.64 13.42 14.19
1552.827 14.81 14.96 14.82 14.5 14.14 13.55 13.03 13.24 14.44 16.3
1572.117 18.55 20.7 23.03 25.13 25.9 25.83 25.16 23.51 20.83 17.82
1591.407 15.16 13.04 11.07 9.35 8.03 6.99 6.45 6.01 5.58 5.18
1610.697 5.02 5.16 4.97 4.82 4.69 4.48 4.46 4.25 4.14 4.4
1629.986 4.65 4.77 4.86 5.07 4.97 4.87 5.02 4.97 5.04 5.08
1649.276 5.12 5.29 5.33 5.26 5.26 5.4 5.57 5.58 5.53 5.79
1668.566 6 5.94 5.88 5.83 5.99 6.38 6.68 6.83 7.27 8.08
1687.856 8.84 9.53 10.33 11.5 12.72 13.81 15.07 16.45 17.61 18.82
1707.146 19.93 20.81 21.82 22.82 24.25 26.58 29.54 33.23 38.32 45.25
1726.435 54.65 66.96 83.14 103.72 129.93 161 194.7 228.24 254.9 271.63
1745.725 278.2 273.99 255.14 220.69 178.41 138.46 105.78 81.37 63.12 49.72
1765.015 40.29 33.65 28.89 25.66 23.32 21.55 20.21 19.01 18.01 17.3
1784.305 16.4 15.34 14.23 13.15 12.2 11.32 10.42 9.66 9.06 8.44
1803.594 7.78 7.25 6.81 6.49 6.34 6.17 6.02 5.94 5.86 5.69
1822.884 5.76 5.98 6.06 6.02 5.97 5.82 5.69 5.54 5.34 5.41
1842.174 5.61 5.72 5.78 6.01 6.4 6.81 7.07 7.17 7.15 6.93
1861.464 6.57 6.16 5.57 4.99 4.71 4.5 4.24 4.09 4.01 3.86
1880.754 3.97 4.08 4.09 4.3 4.55 4.53 4.5 4.44 4.17 3.99
1900.043 3.93 3.74 3.45 3.35 3.2 3.01 3.06 3.06 3.07 3.11
1919.333 3.1 3.06 2.96 2.85 2.69 2.66 2.58 2.51 2.54 2.37
1938.623 2.2 2.25 2.45 2.58 2.56 2.64 2.68 2.73 2.78 2.92
1957.913 2.86 2.7 2.82 2.81 2.85 2.95 2.84 2.65 2.62 2.63
1977.202 2.58 2.53 2.43 2.29 2.24 2.24 2.1652 2.1633 2.1681 2.22
1996.492 2.25 1.9933 1.8456 1.8516 1.7793 1.8082 1.8335 1.832 1.8096 1.8384
2015.782 1.9426 1.9496 2.041 2.0046 1.854 1.8681 1.9416 2.045 2.1551 2.26
2035.072 2.21 2.0014 1.9149 1.9795 2.0209 1.9863 1.9326 1.8466 1.8577 1.9133
2054.362 1.8175 1.8723 1.9401 1.8687 1.8926 1.9028 1.7535 1.6665 1.8541 2.0087
2073.651 1.9789 1.8597 1.7427 1.7712 1.8496 1.9146 1.8755 1.8618 1.944 1.8595
2092.941 2.0014 2.1355 2.18 2.1309 2.0706 2.31 2.46 2.45 2.39 2.35
2112.231 2.34 2.38 2.53 2.55 2.53 2.44 2.4 2.5 2.43 2.48
2131.521 2.36 2.1374 2.27 2.18 2.007 1.9928 1.9947 1.9507 1.9853 1.8975
2150.810 1.7197 1.7662 1.849 1.9275 1.9756 1.7714 1.5762 1.6544 1.5792 1.6595
2170.100 1.8394 1.7374 1.6353 1.7038 1.604 1.3755 1.4747 1.5526 1.5512 1.7005
2189.390 1.5907 1.4439 1.6017 1.5902 1.523 1.6003 1.5525 1.4829 1.3142 1.2967
2208.680 1.5575 1.649 1.6809 1.6574 1.5582 1.548 1.4507 1.4439 1.6476 1.5078
2227.970 1.4394 1.4403 1.3096 1.3521 1.6008 1.5332 1.3437 1.4389 1.2978 1.25737
2247.259 1.3452 1.4075 1.4945 1.3823 1.3757 1.6184 1.7825 1.7903 1.5261 1.2943
2266.549 1.4408 1.6577 1.7692 1.7361 1.8644 1.9768 1.8406 1.739 1.5897 1.4415
2285.839 1.4446 1.6594 1.7997 1.661 1.5747 1.5096 1.3895 1.24274 1.19914 1.1192
2305.129 1.1024 1.3368 1.281 1.2721 1.3996 1.4827 1.6415 1.4883 1.4043 1.4458
2324.418 1.4514 1.624 1.6237 1.5334 1.5074 1.4758 1.4459 1.349 1.4794 1.579
2343.708 1.6163 1.6816 1.6482 1.6337 1.5184 1.6173 1.6295 1.7384 1.9705 1.8038
2362.998 1.654 1.6097 1.7819 1.9296 1.9232 1.9349 2.0374 2.18 1.9566 1.8762
2382.288 2.0308 1.9704 2.0389 2.073 2.0395 2.1485 2.1582 2.1248 2.1158 2.1237
2401.578 2.0589 1.7945 1.8361 1.9821 1.9767 1.9219 1.7824 1.7851 2.0509 2.18
2420.867 2.1469 2.0931 2.19 2.37 2.27 2.0615 2.069 2.1503 2.071 2.0779
2440.157 2.18 2.32 2.0932 1.982 1.9272 1.6341 1.6299 1.6982 1.6549 1.6063
2459.447 1.5486 1.4087 1.3223 1.3709 1.3205 1.3788 1.5294 1.4251 1.3564 1.4792
2478.737 1.3196 1.037 1.18431 1.3355 1.2747 1.4369 1.5728 1.2668 1.1132 1.3178
2498.026 1.3811 1.4432 1.363 1.3471 1.6412 1.6679 1.6035 1.5515 1.4548 1.4326
2517.316 1.4253 1.4117 1.3886 1.4132 1.4186 1.4488 1.5153 1.3681 1.3133 1.4563
2536.606 1.3967 1.464 1.4577 1.2827 1.20007 1.2773 1.3146 1.2749 1.17288 1.16687
2555.896 1.4427 1.3205 1.2662 1.4589 1.4046 1.2882 1.3326 1.3549 1.3909 1.4171
2575.186 1.5422 1.4959 1.3188 1.19553 1.1211 1.0779 1.1474 1.5212 1.5487 1.356
2594.475 1.5382 1.5943 1.4364 1.6804 1.9089 1.6336 1.5611 1.6481 1.6875 1.9537
2613.765 1.7345 1.4103 1.2965 1.1446 1.259 1.416 1.3821 1.3325 1.3253 1.414
2633.055 1.4391 1.3775 1.3101 1.2784 1.3081 1.1591 0.982 1.1257 1.345 1.4593
2652.345 1.305 1.19929 1.2936 1.2912 1.20231 1.19577 1.0911 1.022 1.25169 1.3499
2671.634 1.23214 1.1318 1.17626 1.23137 1.22248 1.377 1.6488 1.4871 1.19045 1.012
2690.924 0.785 0.901 0.882 0.861 0.961 1.031 1.056 1.24448 1.3192 1.041
2710.214 1.23848 1.20284 1.1337 1.3061 1.3237 1.26676 1.3005 1.359 1.5049 1.4833
2729.504 1.3106 1.364 1.6618 1.7841 1.5156 1.646 1.9044 1.809 1.649 1.7117
2748.794 1.6966 1.6424 1.8307 1.7996 1.6602 1.7509 1.6592 1.6537 2.0442 2.26
2768.083 1.9713 1.7766 2.0329 2.0582 1.9799 2.1523 2.19 1.9547 2.0214 1.9299
2787.373 1.7994 1.793 1.5322 1.8203 1.8576 1.8941 2.1375 2.1103 2.1019 1.8025
2806.663 1.8106 2.1536 2.19 2.19 2.3 2.34 2.54 2.71 2.88 3.02
2825.953 2.9 3.01 3.06 3.06 3.23 2.8 2.82 3.23 3.18 3.31
2845.242 3.48 3.27 2.97 3.32 3.45 3.22 3.54 3.87 3.91 3.78
2864.532 3.96 4.31 4.47 4.72 5.04 5.33 5.79 6.38 6.84 7.38
2883.822 8.1 8.88 9.04 8.85 8.59 8.31 8.46 8.59 8.58 8.82
2903.112 9.25 9.85 10.27 10.53 10.82 10.95 11.38 11.78 11.64 11.38
2922.401 11.26 11.28 11.47 11.71 12.55 13.29 13.9 15.04 16.44 18.01
2941.691 19.5 21.06 21.56 21.44 21.36 20.63 19.15 17.72 17.09 17.3
2960.981 17.79 18.35 19.32 20.74 22.47 24.12 25.93 27.62 29.79 32.89
2980.271 36.67 40.84 44.25 46.63 47.57 46.27 43.52 39.76 35.76 32.33
2999.561 29.25 26.59 24.63 23.16 21.44 19.55 17.96 16.5 15.18 13.79
3018.850 12.09 11.12 10.4 9.41 8.45 7.68 6.88 6.49 6.4 5.89
3038.140 5.6 5.61 5.53 5.96 6.97 8.01 8.62 9.44 10.01 9.98
3057.430 10.33 10.19 9.64 8.88 8.54 8.59 8.44 8.16 7.81 7.51
3076.720 6.7 5.8 5.06 4.35 4.06 4.09 3.87 3.4 3.17 3.1
3096.009 3 3.02 3.04 3 3.13 3.1 2.88 2.97 3.11 3.08
3115.299 2.95 2.76 2.57 2.3 2.0306 1.823 1.8162 2.22 2.3 2.21
3134.589 1.9712 1.7707 1.9114 1.8355 1.8001 1.809 2.2 2.0414 1.6401 1.6552
3153.879 1.7161 1.6932 1.4599 1.7006 2.1319 2.26 2.19 1.8711 1.6403 1.8017
3173.169 1.8664 1.7984 1.8277 1.814 2.0457 2.1606 1.5762 1.2769 1.2312 1.158
3192.458 1.3948 1.2751 1.2128 1.3154 1.4371 1.24349 1.26555 1.5908 0.92 0.704
3211.748 1.3693 1.6978 1.6277 1.4218 1.26508 1.25676 0.995 0.972 1.1476 1.1082
3231.038 0.949 1.1103 0.958 0.782 1.16367 1.22133 0.897 0.718 0.816 0.961
3250.328 1.1818 1.012 0.841 0.712 0.719 0.869 0.985 0.777 0.609 0.913
3269.617 0.899 0.907 0.774 0.676 0.923 1.0982 1.18098 0.899 0.747 1.012
3288.907 1.067 0.841 0.552 0.652 0.743 0.664 0.839 1.0848 1.20001 0.733
3308.197 0.844 1.1246 0.873 0.906 1.3544 1.4482 0.829 0.417 0.442 0.585
3327.487 0.847 0.997 0.889 0.765 0.519 0.852 1.0785 0.824 0.763 0.846
3346.777 1.039 1.0997 1.1363 1.3437 1.26717 0.926 0.785 0.939 0.816 0.885
3366.066 1.22736 0.988 1.041 1.26502 1.5116 1.7238 1.2497 1.034 1 0.724
3385.356 0.974 0.915 0.609 0.614 0.951 1.307 1.3804 1.25722 0.76 0.364
3404.646 0.641 0.94 0.848 1.23613 1.5941 1.6423 1.5396 1.5018 1.5836 1.5105
3423.936 1.7059 1.5858 1.5881 1.8702 1.3578 1.035 1.4599 1.3377 1.0755 1.5582
3443.225 1.9024 1.9567 1.9253 1.8528 1.7374 1.6569 1.6835 1.9076 2.24 2.42
3462.515 2.5 2.53 2.7 2.91 3.03 3.26 3.06 2.96 3.13 2.92
3481.805 2.86 2.73 2.0428 1.7342 1.8638 1.6094 1.6143 1.3989 1.1268 1.2992
3501.095 1.9341 2.2 1.4034 1.151 1.1416 0.907 0.929 0.995 1.2793 1.3757
3520.385 1.067 1.006 0.912 0.789 0.919 1.3008 1.2723 1.034 1.1485 1.352
3539.674 1.3283 1.014 1.05 1.0855 0.849 0.835 0.699 0.695 1.1629 0.607
3558.964 0 0.827 0.981 0.571 0.985 0.954 0.581 0.646 0.753 1.0823
3578.254 1.5128 1.24423 0.861 1.014 1.19532 0.961 1.022 1.028 0.784 0.883
3597.544 1.037 1.061 1.01 0.983 0.921 1.1596 1.26702 1.1427 1.041 0.796
3616.833 0.897 0.839 0.72 0.747 0.614 0.922 1.005 0.759 0.564 0.5
3636.123 0.71 0.598 0.603 0.927 0.988 1.07 1.047 0.727 0.767 0.811
3655.413 0.501 0.44 1.19579 1.3542 0.938 0.851 0.612 0.297 0.441 0.735
3674.703 1.0824 1.4206 1.3062 1.064 0.777 0.534 0.597 0.709 0.483 0.752
3693.993 0.876 0.62 0.676 0.76 0.794 0.855 1.1035 1.1028 0.966 1.16177
3713.282 0.831 0.504 0.762 1.041 0.993 0.759 0.87 1.023 1.0942 1.049
3732.572 0.91 1.034 1.2076 1.16536 0.674 0.395 0.606 0.811 0.938 1.1087
3751.862 1.0727 1.052 1.16309 1.023 1.0701 0.969 0.821 1.20427 1.4336 1.18047
3771.152 0.976 0.938 0.834 1.20824 1.17759 0.608 0.902 1.1001 0.933 1.22403
3790.441 1.24619 0.93 1.1107 1.007 0.419 0.422 1.024 1.16495 0.89 0.931
3809.731 1.1574 0.833 0.64 1.1458 1.3165 0.965 0.871 0.691 0.341 0.401
3829.021 0.946 1.3195 1.0929 0.941 0.934 0.666 0.322 0.463 0.937 0.938
3848.311 0.663 0.611 0.568 0.716 0.835 0.801 0.845 0.773 0.344 0.499
3867.601 0.686 0.676 1.1133 1.1501 1.0909 0.938 0.85 0.754 0.954 0.895
3886.890 0.754 1.25181 1.22567 1.18111 1.0801 1.015 0.831 0.701 1.047 0.767
3906.180 0.746 1.1225 0.955 0.929 0.872 0.922 1.20317 1.2723 1.16439 0.925
3925.470 0.987 0.919 0.682 1.1435 1.3897 1.26363 1.4692 1.273 0.848 1.0746
3944.760 0.925 0.451 0.408 0.517 0.804 1.16541 1.04 0.813 1.0949 0.947
3964.049 0.807 1.1307 1.5202 1.4234 0.873 0.769 0.633 0.725 0.939 0.801
3983.339 0.618 0.706 1.006 1.1882 1.317 1.16724 1.20297 1.069 0.946 0.93
##END=
