##TITLE=2-Ethoxybenzhydrazide
##JCAMP-DX=4.24
##DATA TYPE=INFRARED SPECTRUM
##ORIGIN=EPA-IR VAPOR PHASE LIBRARY
##OWNER=SRD/NIST
Collection (C) 2018 copyright by the U.S. Secretary of Commerce
on behalf of the United States of America. All rights reserved.
##CAS REGISTRY NO=21018-13-3
##MOLFORM=C9 H12 N2 O2
##$NIST SOURCE=MSDC-IR
##STATE=gas
##XUNITS=1/CM
##YUNITS=ABSORBANCE
##XFACTOR=1.
##YFACTOR=0.001
##DELTAX=1.92898
##FIRSTX=549.8
##LASTX=4000.7
##FIRSTY=6.991
##MAXX=4000.7
##MINX=549.759
##MAXY=0.071981
##MINY=0
##NPOINTS=1790
##XYDATA=(X++(Y..Y))
549.759 6.991 7.101 7.161 7.121 6.911 6.661 6.531 6.321 6.271 6.491
569.049 6.311 5.901 5.681 5.661 5.671 5.601 5.331 5.021 5.041 5.091
588.339 4.991 4.901 4.851 4.741 4.821 5.051 4.901 4.641 4.551 4.421
607.628 4.271 4.111 4.051 3.931 3.601 3.391 3.311 3.371 3.331 3.001
626.918 2.831 2.811 2.841 2.971 2.901 2.791 2.691 2.731 2.871 2.931
646.208 3.181 3.541 3.771 3.951 4.211 4.471 4.731 5.061 5.461 5.441
665.498 5.311 5.051 4.751 4.511 4.191 4.121 4.161 4.251 4.251 4.171
684.787 4.221 4.311 4.531 4.751 4.861 5.091 5.281 5.351 5.541 5.601
704.077 5.461 5.401 5.301 5.141 4.881 4.631 4.541 4.461 4.511 4.471
723.367 4.291 4.231 4.431 4.671 4.801 5.271 5.951 6.711 7.961 9.571
742.657 11.431 13.531 15.591 17.701 20.301 23.211 24.331 22.651 20.101 18.131
761.947 16.621 14.571 12.411 10.641 9.161 7.971 7.001 6.411 5.971 5.601
781.236 5.241 4.791 4.491 4.321 4.121 4.051 3.811 3.601 3.571 3.431
800.526 3.181 3.131 3.061 2.971 2.841 2.641 2.721 2.661 2.571 2.631
819.816 2.321 2.211 2.241 2.201 2.381 2.461 2.471 2.251 2.111 2.201
839.106 2.301 2.411 2.611 2.801 2.701 2.541 2.671 2.751 2.851 3.131
858.395 3.321 3.501 3.821 3.811 3.881 4.211 4.361 4.431 4.501 4.531
877.685 4.431 4.481 4.731 4.641 4.701 5.001 5.141 5.371 5.591 6.131
896.975 6.851 7.321 7.761 8.231 8.741 9.251 9.841 10.311 10.841 11.611
916.265 12.351 13.171 14.011 15.101 16.351 17.761 19.471 21.321 23.341 25.341
935.555 27.291 29.051 30.061 30.601 30.541 29.481 27.741 25.481 22.751 19.761
954.844 16.751 14.091 11.771 9.861 8.561 7.581 6.691 6.181 5.961 5.321
974.134 4.691 4.541 4.541 4.351 4.211 4.081 4.021 4.061 4.261 4.361
993.424 4.321 4.531 4.501 4.891 5.271 5.171 5.511 6.321 6.951 7.441
1012.714 8.221 8.921 9.911 11.051 12.161 13.511 14.701 15.911 17.401 18.571
1032.003 19.331 20.361 20.981 21.141 21.171 20.681 19.731 18.481 17.101 15.341
1051.293 13.591 11.891 10.251 9.101 8.251 7.401 6.801 6.511 6.241 6.011
1070.583 6.011 6.411 6.941 7.081 7.231 8.011 8.511 9.261 10.371 11.261
1089.873 12.561 13.441 13.691 14.201 14.791 14.921 14.981 15.391 15.721 15.491
1109.163 15.531 15.021 13.641 13.221 13.041 12.571 11.861 10.681 9.461 8.641
1128.452 7.811 6.691 5.681 5.091 4.841 4.551 4.431 4.691 4.731 4.831
1147.742 5.461 6.261 6.991 7.501 8.111 8.701 8.811 8.611 8.561 8.271
1167.032 7.601 6.901 6.241 5.791 5.511 5.481 5.391 5.221 5.291 5.541
1186.322 5.781 5.751 6.131 6.701 7.391 8.621 9.881 10.841 12.381 14.401
1205.611 16.481 19.351 22.801 26.631 29.781 32.811 36.551 39.731 41.861 43.591
1224.901 44.921 45.551 45.161 43.791 41.741 39.161 36.591 33.921 31.321 28.921
1244.191 26.701 24.781 23.081 21.481 20.141 18.851 17.581 16.491 15.371 14.511
1263.481 13.571 12.961 12.711 12.691 12.971 13.531 14.661 16.051 17.701 20.111
1282.771 23.011 26.061 29.291 32.351 34.911 36.651 37.511 37.411 36.081 33.741
1302.060 30.801 27.371 23.771 20.431 17.511 15.111 13.121 11.471 10.231 9.181
1321.350 8.311 7.661 7.131 6.701 6.321 5.971 5.631 5.421 5.221 5.021
1340.640 4.871 4.731 4.691 4.661 4.581 4.591 4.601 4.561 4.531 4.591
1359.930 4.691 4.821 4.911 4.951 5.001 5.181 5.441 5.641 5.871 6.191
1379.219 6.621 7.211 7.911 8.601 9.311 9.941 10.401 10.651 10.751 10.571
1398.509 10.171 9.701 9.181 8.661 8.171 7.761 7.481 7.471 7.611 7.841
1417.799 8.131 8.481 8.971 9.601 10.371 11.221 12.161 13.251 14.541 16.121
1437.089 17.961 19.861 21.891 24.171 26.701 29.271 31.751 34.041 36.121 37.951
1456.378 39.441 40.561 41.441 42.161 42.831 43.651 44.691 45.791 46.791 47.401
1475.668 47.421 46.971 46.071 44.541 42.381 39.771 36.961 34.281 31.861 29.801
1494.958 28.041 26.511 25.221 24.211 23.321 22.521 21.721 20.781 19.901 19.051
1514.248 18.111 17.091 16.081 15.071 14.101 13.091 12.151 11.271 10.331 9.631
1533.538 8.971 8.271 7.751 7.281 6.821 6.511 6.201 5.941 5.791 5.661
1552.827 5.561 5.471 5.411 5.481 5.591 5.651 5.821 6.121 6.371 6.661
1572.117 7.031 7.491 8.101 8.521 8.941 9.501 10.231 11.161 12.151 13.321
1591.407 14.701 16.291 17.951 19.381 20.401 20.861 20.921 20.681 20.091 19.211
1610.697 18.141 17.181 16.471 16.151 16.281 16.671 17.191 17.911 18.811 19.691
1629.986 20.321 20.521 20.541 20.251 19.661 18.961 17.961 16.901 15.881 14.981
1649.276 14.381 14.041 13.941 14.081 14.481 15.001 15.731 16.901 18.381 20.241
1668.566 22.781 26.031 30.251 35.831 42.801 50.471 58.181 64.591 69.051 71.501
1687.856 71.981 70.591 66.741 60.481 52.211 43.691 36.611 30.861 26.941 24.241
1707.146 22.291 20.631 19.221 17.831 16.441 15.061 13.701 12.391 11.161 10.071
1726.435 9.061 8.201 7.411 6.681 6.041 5.471 4.991 4.581 4.201 3.791
1745.725 3.501 3.251 2.941 2.741 2.641 2.521 2.441 2.381 2.291 2.161
1765.015 2.101 2.051 1.961 1.891 1.871 1.801 1.751 1.691 1.661 1.691
1784.305 1.691 1.711 1.731 1.711 1.731 1.751 1.771 1.861 1.901 1.871
1803.594 1.821 1.791 1.831 1.801 1.731 1.701 1.691 1.691 1.691 1.641
1822.884 1.561 1.511 1.421 1.441 1.501 1.451 1.371 1.261 1.211 1.221
1842.174 1.201 1.151 1.0855 1.0883 1.0688 1.0249 1.0059 1.024 1.0349 1.0009
1861.464 1.0081 0.9887 0.9907 0.9802 0.9616 0.9882 1.0163 1.0715 1.0495 1.0696
1880.754 1.151 1.141 1.161 1.191 1.181 1.251 1.371 1.391 1.381 1.391
1900.043 1.411 1.421 1.401 1.431 1.511 1.541 1.551 1.581 1.581 1.541
1919.333 1.611 1.701 1.721 1.681 1.651 1.651 1.571 1.511 1.441 1.381
1938.623 1.401 1.351 1.301 1.281 1.291 1.331 1.281 1.241 1.251 1.151
1957.913 1.097 1.0523 1.0132 1.0144 0.9409 0.9119 0.8698 0.8165 0.8191 0.8418
1977.202 0.863 0.8258 0.8105 0.8594 0.905 0.8566 0.7695 0.7546 0.7892 0.8282
1996.492 0.8312 0.8045 0.7942 0.7965 0.8142 0.8327 0.8437 0.8626 0.8749 0.8766
2015.782 0.9029 0.8675 0.8205 0.8375 0.9334 0.9816 0.9719 0.9723 0.8788 0.8798
2035.072 0.9187 0.8715 0.8692 0.8519 0.8276 0.789 0.7108 0.7283 0.7556 0.7784
2054.362 0.8001 0.7849 0.7572 0.7126 0.6825 0.6891 0.6493 0.6078 0.5792 0.5816
2073.651 0.5783 0.523 0.5565 0.5307 0.5259 0.5497 0.544 0.5117 0.483 0.512
2092.941 0.5094 0.5062 0.5192 0.5122 0.4229 0.4061 0.4595 0.4502 0.4881 0.4608
2112.231 0.4397 0.4512 0.4327 0.4478 0.4225 0.4228 0.4197 0.3568 0.4025 0.4922
2131.521 0.5021 0.4584 0.5046 0.5517 0.4844 0.4326 0.4598 0.4772 0.4148 0.4638
2150.810 0.4954 0.4562 0.4249 0.4203 0.4391 0.4178 0.4346 0.4557 0.3924 0.3683
2170.100 0.4124 0.4022 0.3424 0.3391 0.3586 0.3363 0.3585 0.3931 0.4025 0.4263
2189.390 0.4087 0.3892 0.392 0.3685 0.3528 0.389 0.3778 0.3818 0.4686 0.4536
2208.680 0.4478 0.4497 0.3841 0.3226 0.2906 0.3362 0.3791 0.3683 0.3555 0.3344
2227.970 0.3753 0.4391 0.4311 0.4039 0.3948 0.3832 0.4037 0.4271 0.4586 0.5523
2247.259 0.5812 0.5351 0.4881 0.4766 0.5041 0.4726 0.4481 0.4963 0.4984 0.5009
2266.549 0.5406 0.5747 0.5727 0.4908 0.4861 0.5131 0.5127 0.5088 0.5435 0.5638
2285.839 0.4761 0.4581 0.4462 0.4517 0.5299 0.5012 0.4524 0.5118 0.5419 0.4761
2305.129 0.3695 0.3553 0.4137 0.4384 0.4576 0.5167 0.5703 0.5383 0.4709 0.5253
2324.418 0.6011 0.5332 0.5279 0.56 0.5455 0.5647 0.5728 0.5235 0.5286 0.6082
2343.708 0.5637 0.5098 0.5366 0.5235 0.4598 0.5007 0.6017 0.5051 0.4415 0.4809
2362.998 0.4951 0.5 0.4799 0.5021 0.5154 0.5149 0.5351 0.5767 0.5509 0.5697
2382.288 0.6462 0.6223 0.5966 0.5789 0.5145 0.5894 0.666 0.6191 0.5364 0.5438
2401.578 0.5729 0.5846 0.5849 0.5029 0.499 0.5243 0.6032 0.6528 0.6368 0.6015
2420.867 0.5981 0.6133 0.6161 0.6836 0.7112 0.6658 0.7151 0.7604 0.75 0.7822
2440.157 0.744 0.7498 0.7024 0.6223 0.6581 0.631 0.6318 0.6764 0.6845 0.6253
2459.447 0.6232 0.6851 0.5768 0.4617 0.5288 0.5704 0.5364 0.5217 0.5287 0.5432
2478.737 0.5441 0.5239 0.4893 0.4574 0.4867 0.4882 0.4667 0.5023 0.5079 0.5354
2498.026 0.5205 0.4871 0.4687 0.5207 0.5452 0.4934 0.5573 0.5856 0.6148 0.6443
2517.316 0.6118 0.5911 0.4843 0.4602 0.6488 0.7398 0.6145 0.5545 0.64 0.6112
2536.606 0.5804 0.64 0.621 0.5621 0.5008 0.4164 0.4518 0.5718 0.5254 0.4943
2555.896 0.5198 0.6038 0.6289 0.5487 0.511 0.6023 0.6621 0.5785 0.5619 0.5733
2575.186 0.6324 0.6236 0.565 0.5543 0.5002 0.4775 0.4796 0.4809 0.5327 0.5333
2594.475 0.5129 0.5836 0.5943 0.5701 0.4832 0.3704 0.3406 0.3513 0.3476 0.326
2613.765 0.381 0.3843 0.3694 0.3698 0.3997 0.3796 0.3115 0.2354 0.2725 0.3778
2633.055 0.3598 0.3467 0.3234 0.3166 0.3372 0.39 0.4426 0.3668 0.3415 0.3456
2652.345 0.3055 0.3449 0.4237 0.4178 0.3887 0.3876 0.3691 0.3302 0.3279 0.3846
2671.634 0.378 0.4253 0.4156 0.3477 0.4352 0.4235 0.393 0.384 0.372 0.4502
2690.924 0.4928 0.421 0.35 0.3945 0.3619 0.4207 0.5398 0.5471 0.5441 0.4891
2710.214 0.4183 0.4479 0.577 0.6519 0.6655 0.6685 0.6738 0.7462 0.7485 0.7486
2729.504 0.6656 0.5621 0.6203 0.7026 0.7882 0.8065 0.8442 0.8278 0.7662 0.771
2748.794 0.8752 0.915 0.7938 0.738 0.7009 0.7929 0.9058 0.8362 0.774 0.8263
2768.083 0.8259 0.8053 0.8595 0.8184 0.735 0.7028 0.7705 0.8401 0.8058 0.819
2787.373 0.7958 0.7297 0.7233 0.7407 0.7459 0.8449 0.9066 0.8562 0.8653 0.9916
2806.663 1.0347 0.8782 0.8287 0.8878 0.973 1.076 1.151 1.121 1.121 1.161
2825.953 1.111 1.181 1.161 1.131 1.211 1.201 1.201 1.261 1.321 1.331
2845.242 1.371 1.511 1.631 1.681 1.701 1.751 1.771 1.871 1.981 2.141
2864.532 2.351 2.521 2.781 2.971 3.161 3.341 3.541 3.841 4.221 4.551
2883.822 4.831 5.111 5.551 6.051 6.211 6.281 6.321 6.331 6.451 6.491
2903.112 6.381 6.311 6.241 6.131 6.031 6.051 6.101 6.151 6.151 6.111
2922.401 6.171 6.321 6.651 7.031 7.321 7.631 8.071 8.491 8.831 8.981
2941.691 8.981 8.871 8.741 8.491 8.021 7.681 7.131 6.671 6.591 6.361
2960.981 6.241 6.231 6.291 6.591 6.951 7.341 7.881 8.551 9.421 10.511
2980.271 11.661 12.691 13.381 13.911 14.271 14.391 14.161 13.031 11.551 10.211
2999.561 8.881 7.681 6.721 5.991 5.311 4.681 4.281 4.011 3.571 3.261
3018.850 3.161 3.201 3.281 3.251 3.161 3.201 3.431 3.501 3.441 3.411
3038.140 3.461 3.471 3.451 3.481 3.581 3.591 3.431 3.411 3.441 3.651
3057.430 4.001 4.121 4.451 4.901 5.321 5.851 6.541 7.131 7.731 8.341
3076.720 8.601 8.771 8.771 8.291 7.661 6.981 6.211 5.251 4.161 3.421
3096.009 2.861 2.431 2.211 2.131 2.151 1.911 1.541 1.511 1.491 1.241
3115.299 1.151 1.121 1.0732 1.0086 0.8688 0.8906 0.7505 0.6509 0.7273 0.7869
3134.589 0.8286 0.7876 0.8496 0.8971 0.8472 0.8233 0.9511 1.0293 0.9734 0.9778
3153.879 0.9748 0.9609 1.0831 1.0967 0.918 0.8315 0.842 0.7621 0.789 0.7823
3173.169 0.7578 0.8957 0.8611 0.7389 0.7038 0.7946 0.8653 0.8974 0.9274 1.0457
3192.458 1.1051 1.0212 0.8463 0.7869 0.9187 0.7942 0.855 1.0163 1.067 1.0991
3211.748 0.7755 0.618 0.8464 1.0246 0.9386 0.731 0.7564 0.7353 0.6818 0.732
3231.038 0.8072 0.9891 1.0307 0.7438 0.5411 0.7219 0.8152 0.6702 0.5868 0.6026
3250.328 0.7547 0.8122 0.6426 0.7113 0.7561 0.6062 0.6179 0.7061 0.8302 0.8167
3269.617 0.8071 0.8399 0.7631 0.7557 0.7368 0.7671 0.7514 0.7786 0.6699 0.5458
3288.907 0.6852 0.7445 0.7004 0.8338 0.9817 0.9303 0.9854 0.9862 0.8769 0.7331
3308.197 0.7857 0.8732 0.836 0.755 0.7803 0.9205 0.9209 0.9075 0.8827 0.8939
3327.487 0.8902 0.9364 1.0234 1.0194 0.9982 1.0878 1.271 1.311 1.331 1.221
3346.777 1.141 1.291 1.321 1.251 1.291 1.451 1.521 1.431 1.221 1.0934
3366.066 1.161 1.251 1.301 1.211 1.1107 1.141 1.151 1.241 1.391 1.411
3385.356 1.591 1.631 1.531 1.561 1.701 1.921 1.861 1.791 1.921 2.111
3404.646 2.181 2.191 2.391 2.741 2.871 2.981 3.321 3.571 3.961 4.441
3423.936 4.941 5.591 6.261 7.161 8.061 9.071 10.381 11.841 13.201 14.661
3443.225 16.401 18.041 19.521 20.821 21.871 22.471 22.621 22.131 21.161 19.961
3462.515 18.521 16.831 14.821 12.861 11.161 9.691 8.431 7.301 6.221 5.361
3481.805 4.651 4.111 3.871 3.571 3.121 2.661 2.331 2.201 1.941 1.811
3501.095 1.791 1.531 1.411 1.371 1.0951 0.8655 0.7971 0.8216 0.8857 0.8024
3520.385 0.8834 0.9637 0.7028 0.5561 0.5695 0.5256 0.6118 0.6675 0.6634 0.6219
3539.674 0.4933 0.4971 0.497 0.4742 0.4732 0.4558 0.528 0.4704 0.4143 0.3503
3558.964 0.378 0.4708 0.5366 0.5368 0.5137 0.5946 0.57 0.4436 0.4234 0.5632
3578.254 0.549 0.4361 0.4659 0.5091 0.4228 0.4916 0.5057 0.6065 0.6705 0.4865
3597.544 0.4057 0.2726 0.19769 0.3888 0.5146 0.4358 0.3498 0.2552 0.2688 0.3809
3616.833 0.3365 0.3281 0.4137 0.3308 0.2938 0.2823 0.19537 0.21025 0.2249 0.19863
3636.123 0.2345 0.14118 0.15815 0.2835 0.4004 0.413 0.2187 0.16462 0.13841 0.20708
3655.413 0.23 0.2652 0.357 0.13468 0.0491 0.20079 0.20135 0.293 0.3658 0.2866
3674.703 0.2982 0.2925 0.15144 0.0887 0.16105 0.2903 0.3642 0.3116 0.2442 0.284
3693.993 0.3506 0.3923 0.3203 0.20336 0.2832 0.3845 0.3322 0.2677 0.2473 0.12989
3713.282 0.20222 0.2196 0.1596 0.2683 0.2075 0.2291 0.2261 0.0854 0.18605 0.2548
3732.572 0.2636 0.2302 0.0117 0.0419 0.3017 0.277 0.2262 0.3418 0.3681 0.21063
3751.862 0.2463 0.3232 0.3735 0.564 0.3367 0.117505 0.2727 0.3782 0.4271 0.3971
3771.152 0.2326 0.057 0.0989 0.3006 0.4252 0.4582 0.3914 0.3162 0.2637 0.2485
3790.441 0.1531 0.15877 0.2598 0.248 0.13713 0.0981 0.19578 0.2335 0.2379 0.13172
3809.731 0.16753 0.2793 0.2998 0.3399 0.2206 0.2319 0.256 0.288 0.3307 0.3295
3829.021 0.3405 0.2929 0.16875 0.16961 0.2329 0.19706 0.2343 0.2167 0.265 0.3771
3848.311 0.2678 0.1361 0.224 0.2118 0.13423 0.2253 0.3119 0.3211 0.17814 0.13638
3867.601 0.2675 0.2748 0.2813 0.2814 0.3259 0.18156 0.10974 0.2435 0.20878 0.2265
3886.890 0.2893 0.2752 0.2222 0.17138 0.245 0.4174 0.3779 0.16522 0.13678 0.2134
3906.180 0.2942 0.16711 0.0368 0.2915 0.3532 0.15633 0.2444 0.28 0.2157 0.14483
3925.470 0.15245 0.20353 0.0777 0.0641 0 0.0482 0.2353 0.2773 0.2242 0.20985
3944.760 0.3134 0.2417 0.18616 0.3058 0.2843 0.15381 0.18639 0.16315 0.13007 0.14784
3964.049 0.17619 0.3224 0.2813 0.3574 0.3927 0.3412 0.4819 0.5548 0.4519 0.3477
3983.339 0.374 0.1496 0.12521 0.311 0.3783 0.3805 0.2793 0.19307 0.2034 0.3865
##END=
