##TITLE=Methyl 2-isothiocyanato-4-methylvalerate
##JCAMP-DX=4.24
##DATA TYPE=INFRARED SPECTRUM
##ORIGIN=EPA-IR VAPOR PHASE LIBRARY
##OWNER=SRD/NIST
Collection (C) 2018 copyright by the U.S. Secretary of Commerce
on behalf of the United States of America. All rights reserved.
##CAS REGISTRY NO=21055-43-6
##MOLFORM=C 8 H 13 N O 2 S
##$NIST SOURCE=MSDC-IR
##STATE=gas
##XUNITS=1/CM
##YUNITS=ABSORBANCE
##XFACTOR=1.
##YFACTOR=0.001
##DELTAX=1.92898
##FIRSTX=549.8
##LASTX=4000.7
##FIRSTY=10.336
##MAXX=4000.7
##MINX=549.759
##MAXY=0.279836
##MINY=0
##NPOINTS=1790
##XYDATA=(X++(Y..Y))
549.759 10.336 10.186 9.716 9.326 9.106 8.846 8.766 8.686 8.276 7.636
569.049 7.356 7.106 6.696 6.126 5.746 5.736 5.586 5.286 5.246 5.216
588.339 5.126 4.986 4.616 4.516 4.266 4.206 4.326 4.166 4.276 4.356
607.628 4.036 3.956 4.056 3.986 3.976 3.866 3.776 3.866 3.986 4.136
626.918 4.396 4.496 4.596 4.566 4.586 4.846 4.726 4.606 4.786 4.846
646.208 5.066 5.206 5.106 5.206 5.306 5.386 5.516 5.796 5.936 6.076
665.498 6.166 6.056 6.076 6.026 6.116 6.296 6.456 6.726 7.016 7.396
684.787 7.666 7.926 8.286 8.746 9.086 9.346 9.676 10.136 10.606 10.936
704.077 11.276 11.616 11.816 12.106 12.346 12.146 11.886 11.706 11.506 11.216
723.367 10.596 9.896 9.456 9.156 8.686 8.236 7.716 7.286 7.246 6.966
742.657 6.526 6.386 6.186 5.826 5.586 5.316 4.986 4.876 4.716 4.466
761.947 4.336 4.306 4.386 4.336 4.166 4.066 4.176 4.286 4.156 4.146
781.236 4.296 4.446 4.416 4.176 4.076 3.986 3.986 3.986 3.786 3.636
800.526 3.616 3.696 3.586 3.646 3.796 3.816 3.846 3.886 4.196 4.646
819.816 4.936 5.106 5.296 5.456 5.486 5.426 5.436 5.306 5.126 5.106
839.106 4.936 4.846 4.826 4.906 4.846 4.816 4.876 4.836 4.866 4.806
858.395 4.766 4.736 4.816 5.086 5.376 5.586 5.966 6.286 6.566 7.116
877.685 7.416 7.696 7.936 7.866 7.926 7.856 7.676 7.556 7.376 7.176
896.975 6.896 6.666 6.306 5.956 5.676 5.446 5.246 5.156 5.136 5.126
916.265 5.116 5.146 5.286 5.196 5.006 4.936 4.826 4.576 4.536 4.586
935.555 4.426 4.306 4.066 4.076 4.156 4.006 3.856 3.856 4.046 4.226
954.844 4.516 4.846 5.136 5.396 5.656 6.166 6.866 7.516 8.526 9.846
974.134 11.126 12.466 14.256 16.016 17.256 18.226 19.066 19.746 19.686 19.006
993.424 18.326 17.476 16.406 15.296 14.276 13.486 13.106 13.186 13.606 14.196
1012.714 14.836 15.756 17.016 18.626 19.956 20.986 21.926 22.276 22.276 21.976
1032.003 21.416 20.196 18.506 16.986 15.326 13.906 12.766 11.386 10.126 9.226
1051.293 8.416 7.806 7.456 7.056 6.626 6.446 6.406 6.006 5.866 5.826
1070.583 5.516 5.496 5.706 6.176 6.216 6.246 6.666 6.916 7.036 7.106
1089.873 7.516 7.956 8.406 9.386 10.036 10.636 11.166 11.556 12.566 13.466
1109.163 14.266 14.906 15.126 15.836 16.696 17.336 17.906 18.586 19.226 19.976
1128.452 21.436 22.886 24.416 26.356 28.856 31.556 34.046 36.796 39.626 42.146
1147.742 44.596 46.516 48.146 49.696 50.536 51.366 51.856 52.466 53.696 55.136
1167.032 56.976 59.056 61.046 63.256 65.356 67.126 68.286 68.436 68.556 68.366
1186.322 67.926 67.336 66.046 65.056 64.516 63.036 61.486 60.156 57.906 55.526
1205.611 53.436 51.586 49.696 48.036 46.956 46.076 45.196 44.976 45.696 46.406
1224.901 47.546 49.216 50.736 52.176 53.336 53.856 54.146 54.806 54.946 54.476
1244.191 54.416 54.316 53.856 53.856 54.136 54.476 54.906 55.346 55.706 55.856
1263.481 56.036 56.316 56.586 56.526 56.276 55.736 54.746 53.416 51.656 49.456
1282.771 46.906 44.186 41.406 38.656 36.196 33.996 31.876 30.076 28.676 27.836
1302.060 27.486 27.436 28.006 29.116 30.476 31.986 33.546 34.906 35.836 36.276
1321.350 36.116 35.396 34.286 32.826 31.146 29.406 27.786 26.356 25.206 24.386
1340.640 23.686 23.096 22.476 21.816 21.166 20.446 19.646 18.866 18.116 17.456
1359.930 16.946 16.486 16.156 15.966 15.806 15.656 15.536 15.516 15.316 14.546
1379.219 13.566 12.866 12.416 12.166 12.026 11.886 11.746 11.596 11.186 10.576
1398.509 9.876 8.956 8.036 7.246 6.706 6.416 6.206 6.156 6.206 6.276
1417.799 6.426 6.666 7.076 7.616 8.446 9.776 11.676 14.146 16.986 19.746
1437.089 22.086 23.886 24.886 24.786 23.616 21.706 19.466 17.436 15.966 15.106
1456.378 14.686 14.636 14.866 15.206 15.526 15.806 16.056 16.106 15.866 15.266
1475.668 14.246 13.076 11.866 10.486 9.276 8.236 7.266 6.616 6.106 5.596
1494.958 5.246 4.886 4.576 4.386 4.226 4.076 3.846 3.666 3.536 3.416
1514.248 3.346 3.296 3.156 3.086 3.046 2.936 2.916 2.926 2.826 2.786
1533.538 2.776 2.726 2.716 2.696 2.726 2.696 2.636 2.556 2.526 2.586
1552.827 2.616 2.666 2.656 2.586 2.556 2.556 2.576 2.506 2.436 2.426
1572.117 2.436 2.446 2.436 2.336 2.306 2.396 2.426 2.386 2.356 2.346
1591.407 2.356 2.316 2.266 2.316 2.326 2.226 2.126 2.126 2.166 2.126
1610.697 2.106 2.096 2.106 2.106 2.066 2.116 2.116 2.026 2.046 2.086
1629.986 2.046 2.056 2.046 2.036 2.056 2.046 1.966 1.956 2.036 2.066
1649.276 2.116 2.106 2.116 2.186 2.166 2.146 2.186 2.266 2.296 2.356
1668.566 2.426 2.436 2.416 2.486 2.546 2.596 2.666 2.706 2.806 2.956
1687.856 3.056 3.056 3.206 3.446 3.566 3.736 3.966 4.136 4.456 4.836
1707.146 5.216 5.626 6.036 6.566 7.136 7.846 8.656 9.396 10.346 11.466
1726.435 12.746 14.176 15.746 17.516 19.516 21.746 24.206 27.116 30.636 34.996
1745.725 40.406 47.256 55.636 65.446 75.836 85.806 94.516 100.636 103.286 102.616
1765.015 99.536 94.566 88.556 82.766 77.876 73.996 70.396 66.126 60.796 54.806
1784.305 48.526 42.186 36.246 30.986 26.586 23.026 20.166 17.796 15.846 14.236
1803.594 12.836 11.536 10.406 9.496 8.686 7.886 7.146 6.506 5.976 5.516
1822.884 5.126 4.806 4.486 4.206 4.016 3.816 3.636 3.526 3.446 3.366
1842.174 3.306 3.256 3.256 3.276 3.256 3.226 3.276 3.356 3.386 3.446
1861.464 3.556 3.626 3.696 3.796 3.886 3.926 3.946 4.056 4.166 4.256
1880.754 4.396 4.506 4.666 4.836 4.936 5.086 5.276 5.466 5.726 5.996
1900.043 6.286 6.606 6.906 7.216 7.566 7.966 8.336 8.776 9.316 9.866
1919.333 10.396 10.926 11.556 12.236 12.946 13.766 14.596 15.366 16.296 17.356
1938.623 18.376 19.496 20.706 21.896 23.256 24.756 26.306 27.986 29.736 31.556
1957.913 33.506 35.576 37.796 40.146 42.566 45.166 47.936 50.896 53.936 57.116
1977.202 60.526 64.086 67.856 71.756 75.966 80.436 85.126 89.996 95.176 100.746
1996.492 106.626 112.816 119.346 126.296 133.576 141.046 148.886 157.146 165.736 174.566
2015.782 183.556 192.726 201.976 211.216 220.466 229.626 238.506 247.036 254.966 261.936
2035.072 267.986 273.066 276.746 279.066 279.836 278.746 276.176 272.016 266.246 259.386
2054.362 251.666 243.126 234.006 224.536 214.806 204.956 195.086 185.426 176.026 167.026
2073.651 158.466 150.406 143.056 136.326 130.306 125.066 120.476 116.536 113.146 110.286
2092.941 107.896 105.806 103.936 102.116 100.326 98.596 96.756 94.816 92.826 90.666
2112.231 88.426 86.166 83.886 81.556 79.166 76.806 74.436 72.046 69.636 67.156
2131.521 64.746 62.446 60.106 57.736 55.336 53.066 50.866 48.676 46.646 44.686
2150.810 42.766 41.016 39.386 37.746 36.206 34.866 33.566 32.266 31.106 29.966
2170.100 28.876 27.866 26.926 25.966 25.036 24.266 23.506 22.736 21.946 21.226
2189.390 20.556 19.906 19.346 18.706 18.116 17.586 16.996 16.446 15.956 15.446
2208.680 14.956 14.496 14.016 13.586 13.166 12.746 12.406 12.156 11.866 11.576
2227.970 11.326 11.076 10.856 10.696 10.526 10.296 10.156 10.006 9.816 9.596
2247.259 9.346 9.126 8.866 8.546 8.226 7.956 7.746 7.486 7.216 6.946
2266.549 6.626 6.386 6.176 5.886 5.636 5.476 5.356 5.216 5.046 4.836
2285.839 4.706 4.616 4.496 4.386 4.246 4.156 4.066 3.976 3.906 3.846
2305.129 3.716 3.546 3.446 3.306 3.186 3.126 3.006 2.896 2.866 2.846
2324.418 2.756 2.676 2.596 2.546 2.596 2.546 2.456 2.396 2.286 2.176
2343.708 2.116 2.106 2.136 2.106 2.006 2.046 2.046 2.006 1.956 1.876
2362.998 1.856 1.816 1.806 1.846 1.856 1.826 1.746 1.716 1.706 1.726
2382.288 1.776 1.706 1.606 1.566 1.646 1.586 1.486 1.526 1.466 1.386
2401.578 1.426 1.466 1.436 1.386 1.396 1.466 1.506 1.556 1.556 1.476
2420.867 1.476 1.506 1.486 1.516 1.566 1.516 1.446 1.446 1.476 1.466
2440.157 1.406 1.366 1.3211 1.3413 1.416 1.356 1.366 1.436 1.396 1.376
2459.447 1.426 1.466 1.446 1.436 1.506 1.536 1.506 1.416 1.376 1.436
2478.737 1.506 1.516 1.496 1.466 1.576 1.696 1.686 1.626 1.526 1.506
2498.026 1.616 1.676 1.626 1.586 1.616 1.706 1.756 1.746 1.686 1.746
2517.316 1.816 1.806 1.776 1.746 1.786 1.846 1.936 2.016 2.016 2.056
2536.606 2.146 2.166 2.166 2.226 2.266 2.296 2.396 2.446 2.446 2.506
2555.896 2.536 2.586 2.706 2.786 2.726 2.746 2.886 2.916 2.956 2.986
2575.186 3.006 3.006 2.996 3.046 3.056 3.046 3.066 3.026 3.006 3.096
2594.475 3.076 2.936 2.836 2.776 2.776 2.746 2.726 2.636 2.496 2.496
2613.765 2.566 2.506 2.336 2.156 2.126 2.106 2.086 2.076 2.056 2.036
2633.055 1.946 1.946 1.926 1.856 1.876 1.906 1.866 1.866 1.946 1.966
2652.345 1.896 1.926 1.946 1.896 1.876 1.866 1.886 1.866 1.906 2.046
2671.634 2.076 2.106 2.096 2.096 2.076 1.986 2.026 2.106 2.106 2.196
2690.924 2.246 2.216 2.276 2.316 2.346 2.366 2.376 2.496 2.576 2.626
2710.214 2.666 2.666 2.656 2.736 2.866 2.936 2.956 3.036 3.096 3.236
2729.504 3.486 3.596 3.636 3.686 3.696 3.756 3.786 3.856 3.926 3.956
2748.794 3.986 3.956 3.926 3.816 3.716 3.706 3.736 3.706 3.646 3.566
2768.083 3.546 3.656 3.696 3.546 3.486 3.476 3.406 3.326 3.236 3.146
2787.373 3.146 3.196 3.166 3.166 3.226 3.326 3.256 3.186 3.276 3.226
2806.663 3.176 3.336 3.366 3.336 3.476 3.546 3.606 3.726 3.896 4.076
2825.953 4.146 4.326 4.526 4.626 4.796 5.056 5.386 5.786 6.266 6.806
2845.242 7.526 8.196 8.736 9.286 9.896 10.416 10.766 10.856 10.886 11.006
2864.532 11.256 11.736 12.556 13.986 15.726 17.446 19.316 21.146 22.566 23.536
2883.822 23.906 23.646 23.196 22.616 21.976 21.266 20.656 20.526 20.716 21.026
2903.112 21.546 22.276 22.926 23.636 24.536 25.476 26.426 27.396 28.446 29.406
2922.401 30.426 31.696 33.096 34.516 35.976 37.356 38.626 39.946 41.086 42.276
2941.691 43.496 44.546 45.696 47.266 49.546 52.666 57.356 63.616 70.916 78.816
2960.981 87.056 95.066 101.236 104.256 103.406 98.646 90.086 78.846 66.996 55.356
2980.271 44.386 35.306 28.656 24.066 20.906 18.696 17.076 15.716 14.646 13.796
2999.561 13.146 12.586 11.956 11.516 11.086 10.636 10.066 9.496 9.156 8.686
3018.850 8.176 7.756 7.376 7.226 7.096 6.936 6.856 6.646 6.446 6.216
3038.140 5.866 5.686 5.516 5.316 5.146 4.806 4.606 4.376 4.086 3.896
3057.430 3.756 3.666 3.546 3.486 3.416 3.336 3.296 3.196 3.066 2.996
3076.720 2.946 2.936 2.946 2.826 2.776 2.766 2.696 2.656 2.556 2.496
3096.009 2.486 2.426 2.296 2.226 2.326 2.326 2.266 2.266 2.276 2.156
3115.299 2.086 2.156 2.076 1.916 1.906 1.896 1.786 1.796 1.816 1.776
3134.589 1.676 1.536 1.476 1.466 1.606 1.646 1.566 1.446 1.3016 1.2959
3153.879 1.376 1.366 1.2994 1.3457 1.366 1.2449 1.0945 1.1565 1.271 1.2931
3173.169 1.3037 1.2963 1.263 1.2673 1.2332 1.2745 1.3305 1.2271 1.2712 1.2839
3192.458 1.1244 1.0194 1.1226 1.2738 1.2544 1.0638 0.9286 0.9222 0.8141 0.7422
3211.748 0.6981 0.7516 0.9496 0.8781 0.6937 0.6895 0.7096 0.7639 0.677 0.4976
3231.038 0.39969 0.37712 0.45095 0.43517 0.4619 0.5104 0.5312 0.4881 0.38232 0.41355
3250.328 0.3405 0.177 0.152 0.2609 0.3154 0.245 0.171 0.187 0.2836 0.207
3269.617 0.22 0.3233 0.2797 0.19 0.23 0.3413 0.38347 0.3288 0.37594 0.5027
3288.907 0.359573 0.207 0.22 0.2682 0.3021 0.3423 0.3211 0.2783 0.249 0.158
3308.197 0.141 0.189 0.19 0.128 0.195 0.3406 0.3183 0.248 0.153 0.118
3327.487 0.236 0.3254 0.3455 0.245 0.237 0.361234 0.3059 0.39971 0.44137 0.287
3346.777 0.3013 0.4636 0.5509 0.4703 0.41432 0.40334 0.4986 0.4568 0.35289 0.4664
3366.066 0.458 0.355742 0.4795 0.5718 0.4587 0.37571 0.3417 0.40289 0.37683 0.3205
3385.356 0.35196 0.3104 0.2959 0.2877 0.3375 0.254 0.137 0.165 0.182 0.161
3404.646 0.203 0.195 0.027 0.17 0.248 0.185 0.2966 0.38929 0.4667 0.3075
3423.936 0.102 0.155 0.241 0.256 0.3315 0.3084 0.206 0.3196 0.37951 0.189
3443.225 0.3077 0.39232 0.2802 0.37566 0.3061 0.162 0.206 0.34656 0.3211 0.193
3462.515 0.2888 0.43319 0.45163 0.43164 0.5052 0.5575 0.4975 0.4799 0.5326 0.5212
3481.805 0.583 0.7007 0.6532 0.6496 0.7565 0.8907 0.939 0.9405 1.0858 1.2974
3501.095 1.366 1.1859 1.1446 1.3 1.2494 1.1007 1.0771 0.9306 0.902 1.0447
3520.385 1.0598 1.1056 1.1239 1.1453 1.1342 1.0018 0.9061 0.8769 0.8171 0.6635
3539.674 0.6589 0.7594 0.7049 0.6292 0.7455 0.7878 0.6007 0.4924 0.4886 0.4845
3558.964 0.43474 0.39988 0.4723 0.39313 0.175 0.196 0.3315 0.43017 0.4908 0.3682
3578.254 0.108 0.107 0.2961 0.184 0.094 0.157 0.111 0.231 0.291 0.187
3597.544 0.095 0.13 0.208 0.108 0.051 0.089 0.082 0.09 0.087 0.162
3616.833 0.253 0.184 0.106 0.104 0.022 0.007 0.187 0.2939 0.279 0.173
3636.123 0.209 0.3548 0.357409 0.355879 0.3188 0.239 0.134 0.107 0.218 0.188
3655.413 0.144 0.213 0.241 0.216 0.078 0.059 0.203 0.258 0.197 0.058
3674.703 0 0.15 0.2971 0.2574 0.174 0.212 0.2866 0.255 0.071 0.044
3693.993 0.219 0.203 0.196 0.306 0.3842 0.4972 0.4888 0.42726 0.4284 0.4898
3713.282 0.4787 0.42569 0.35073 0.278 0.3261 0.252 0.209 0.2823 0.358714 0.331
3732.572 0.18 0.08 0.103 0.066 0.135 0.221 0.2584 0.2708 0.222 0.198
3751.862 0.246 0.24 0.244 0.2991 0.247 0.245 0.099 0.199 0.37368 0.3181
3771.152 0.35571 0.362704 0.42057 0.5088 0.5271 0.4468 0.37593 0.3447 0.156 0.134
3790.441 0.229 0.2989 0.38313 0.241 0.2798 0.37169 0.281 0.2795 0.289 0.3161
3809.731 0.34924 0.2798 0.2822 0.2771 0.251 0.39765 0.6562 0.7578 0.6269 0.4829
3829.021 0.476 0.5756 0.457 0.41444 0.4559 0.3856 0.39126 0.3302 0.2869 0.2885
3848.311 0.38818 0.41368 0.3038 0.43042 0.4713 0.4777 0.5437 0.5431 0.5896 0.43297
3867.601 0.3775 0.44871 0.4896 0.5143 0.5045 0.5438 0.5371 0.5395 0.5309 0.6172
3886.890 0.5685 0.5109 0.5606 0.4889 0.44029 0.36241 0.34645 0.42885 0.608 0.7286
3906.180 0.651 0.7049 0.7216 0.5223 0.5298 0.6759 0.7019 0.6216 0.5763 0.6265
3925.470 0.6717 0.7089 0.7809 0.7978 0.7501 0.8889 0.9573 0.804 0.8009 0.8775
3944.760 0.939 0.9389 0.8241 0.8943 0.9041 0.9677 1.0625 0.9221 0.9084 1.0721
3964.049 1.2947 1.2957 1.3014 1.3195 1.1875 1.0763 1.0608 1.1301 1.1474 1.0901
3983.339 1.1829 1.2998 1.2019 1.3474 1.526 1.456 1.406 1.456 1.476 1.396
##END=
