##TITLE=Methyl 2-isothiocyanato-4-(methylthio)butyrate
##JCAMP-DX=4.24
##DATA TYPE=INFRARED SPECTRUM
##ORIGIN=EPA-IR VAPOR PHASE LIBRARY
##OWNER=SRD/NIST
Collection (C) 2018 copyright by the U.S. Secretary of Commerce
on behalf of the United States of America. All rights reserved.
##CAS REGISTRY NO=21055-47-0
##MOLFORM=C 7 H 11 N O 2 S 2
##$NIST SOURCE=MSDC-IR
##STATE=gas
##XUNITS=1/CM
##YUNITS=ABSORBANCE
##XFACTOR=1.
##YFACTOR=0.001
##DELTAX=1.92898
##FIRSTX=549.8
##LASTX=4000.7
##FIRSTY=9.605
##MAXX=4000.7
##MINX=549.759
##MAXY=0.276085
##MINY=0
##NPOINTS=1790
##XYDATA=(X++(Y..Y))
549.759 9.605 9.525 9.305 8.765 8.585 8.195 7.685 7.125 6.875 7.035
569.049 6.665 6.345 6.195 6.195 5.805 5.095 4.935 4.685 4.445 4.735
588.339 4.825 4.405 4.235 4.145 4.105 4.085 4.105 4.285 4.065 3.955
607.628 4.115 4.075 3.975 3.935 3.985 4.105 4.085 3.715 3.675 3.865
626.918 4.025 4.145 3.985 3.905 3.985 4.135 4.595 4.865 4.685 4.545
646.208 4.515 4.695 4.855 4.775 4.705 4.745 4.815 5.025 5.145 5.125
665.498 4.985 5.035 5.175 5.205 5.415 5.435 5.565 5.785 5.875 6.005
684.787 6.125 6.435 6.705 6.655 6.645 6.925 7.035 7.215 7.435 7.475
704.077 7.665 7.825 7.915 7.985 8.215 8.505 8.805 9.035 9.135 9.205
723.367 9.245 9.215 9.175 9.005 8.755 8.525 8.025 7.755 7.695 7.395
742.657 7.205 7.215 7.135 7.025 7.165 7.415 7.635 7.575 7.765 8.165
761.947 8.305 8.365 8.095 8.155 8.105 7.895 7.915 7.745 7.535 7.255
781.236 7.025 6.735 6.565 6.405 6.165 6.155 6.205 6.185 6.135 6.325
800.526 6.605 6.735 6.935 7.145 7.275 7.375 7.515 7.515 7.505 7.345
819.816 6.965 6.775 6.725 6.415 5.975 5.585 5.315 5.155 4.985 4.785
839.106 4.675 4.635 4.455 4.445 4.215 4.045 4.095 3.885 3.865 4.065
858.395 4.075 4.105 4.115 4.065 3.865 3.615 3.645 3.485 3.465 3.535
877.685 3.395 3.215 3.175 3.365 3.325 3.265 3.415 3.495 3.455 3.455
896.975 3.565 3.785 3.955 4.065 4.375 4.515 4.535 4.595 4.805 5.105
916.265 5.275 5.515 5.795 6.185 6.565 6.885 7.135 7.315 7.385 7.485
935.555 7.635 7.715 7.815 7.855 7.825 7.965 8.155 8.305 8.585 8.735
954.844 8.995 9.185 9.125 9.145 9.395 9.635 9.855 9.935 10.195 10.685
974.134 10.895 11.275 11.805 12.415 13.155 14.015 14.845 15.605 16.425 17.245
993.424 17.805 18.145 18.555 19.305 19.735 19.845 20.235 20.715 21.055 21.375
1012.714 21.745 21.995 22.315 21.875 21.125 20.575 19.695 18.725 17.955 17.255
1032.003 16.525 16.275 15.635 14.865 14.595 14.265 13.885 13.425 13.255 12.765
1051.293 12.255 12.395 12.665 12.495 11.945 11.705 11.345 10.945 10.745 10.265
1070.583 9.825 9.545 8.955 8.025 7.735 7.315 6.815 7.035 6.425 5.845
1089.873 6.065 6.465 6.595 6.305 6.355 6.735 6.875 6.725 6.775 7.135
1109.163 7.755 8.415 8.835 8.855 9.165 10.005 10.695 11.245 11.825 12.585
1128.452 13.205 13.705 14.665 15.945 17.125 18.495 20.085 22.085 24.285 26.765
1147.742 29.505 32.745 36.655 40.415 44.435 48.465 52.435 56.375 59.715 62.595
1167.032 64.655 66.035 66.875 66.875 66.235 64.915 63.235 61.655 60.255 59.275
1186.322 58.755 58.595 59.135 59.865 60.535 61.515 62.535 63.145 63.345 63.335
1205.611 62.745 61.285 59.745 58.545 57.375 56.085 55.155 54.525 53.875 53.465
1224.901 52.965 52.685 51.865 50.805 50.015 49.175 48.605 47.935 47.575 47.425
1244.191 47.435 47.925 48.645 49.375 50.165 51.425 52.605 53.675 54.885 56.185
1263.481 57.075 57.515 58.105 58.255 57.855 57.035 55.735 53.955 51.975 50.075
1282.771 48.055 46.155 44.635 43.435 42.515 41.705 40.815 39.845 38.765 37.375
1302.060 35.955 34.435 32.785 31.225 29.745 28.635 27.955 27.605 27.625 27.995
1321.350 28.575 29.185 29.825 30.365 30.705 30.805 30.615 30.135 29.405 28.375
1340.640 27.165 25.905 24.615 23.415 22.255 21.105 19.935 18.725 17.445 16.235
1359.930 15.015 13.675 12.485 11.365 10.305 9.485 8.755 8.145 7.665 7.255
1379.219 6.855 6.495 6.245 6.045 5.835 5.685 5.585 5.435 5.375 5.325
1398.509 5.305 5.385 5.525 5.635 5.745 6.075 6.375 6.625 7.045 7.585
1417.799 8.145 8.875 9.835 11.015 12.515 14.405 16.895 19.985 23.605 27.225
1437.089 30.345 32.505 33.505 33.135 31.155 27.805 23.945 20.405 17.345 14.865
1456.378 12.925 11.435 10.285 9.435 8.735 8.135 7.715 7.305 6.895 6.475
1475.668 6.055 5.725 5.485 5.235 5.075 4.895 4.665 4.475 4.245 4.055
1494.958 3.905 3.795 3.665 3.535 3.465 3.365 3.275 3.225 3.165 3.105
1514.248 3.065 3.055 3.065 3.065 2.995 2.905 2.865 2.845 2.825 2.795
1533.538 2.805 2.795 2.765 2.765 2.735 2.725 2.775 2.755 2.735 2.775
1552.827 2.735 2.745 2.855 2.875 2.845 2.775 2.725 2.735 2.725 2.725
1572.117 2.725 2.735 2.725 2.615 2.585 2.565 2.515 2.535 2.485 2.385
1591.407 2.355 2.375 2.315 2.275 2.315 2.255 2.165 2.175 2.285 2.175
1610.697 2.085 2.135 2.075 2.045 2.025 2.005 2.055 2.005 1.895 1.925
1629.986 1.875 1.855 1.895 1.825 1.845 1.875 1.815 1.825 1.845 1.885
1649.276 1.995 2.005 1.945 1.915 1.965 1.975 2.035 2.145 2.155 2.205
1668.566 2.195 2.205 2.275 2.235 2.265 2.355 2.465 2.625 2.695 2.625
1687.856 2.725 2.915 3.005 3.105 3.295 3.555 3.795 4.005 4.285 4.685
1707.146 5.025 5.395 5.875 6.435 7.085 7.705 8.395 9.195 10.065 11.125
1726.435 12.385 13.765 15.435 17.415 19.695 22.195 24.895 27.985 31.505 35.745
1745.725 40.805 46.905 54.215 62.645 71.605 80.115 87.455 92.505 94.585 94.005
1765.015 91.365 87.225 82.335 77.725 74.025 71.165 68.315 64.505 59.415 53.435
1784.305 47.075 40.695 34.795 29.805 25.725 22.405 19.755 17.565 15.745 14.155
1803.594 12.745 11.495 10.405 9.435 8.545 7.765 7.045 6.395 5.865 5.385
1822.884 4.945 4.605 4.365 4.115 3.895 3.735 3.595 3.445 3.325 3.215
1842.174 3.215 3.245 3.225 3.205 3.145 3.145 3.205 3.225 3.255 3.275
1861.464 3.365 3.465 3.465 3.565 3.745 3.875 3.965 4.075 4.235 4.375
1880.754 4.485 4.605 4.875 5.065 5.235 5.485 5.675 5.885 6.165 6.555
1900.043 6.925 7.225 7.615 8.005 8.385 8.765 9.165 9.635 10.105 10.725
1919.333 11.385 12.025 12.665 13.275 14.005 14.805 15.625 16.505 17.475 18.535
1938.623 19.595 20.645 21.765 22.995 24.375 25.845 27.365 28.935 30.605 32.445
1957.913 34.375 36.365 38.515 40.915 43.445 46.105 48.945 51.975 55.165 58.595
1977.202 62.205 66.045 70.205 74.455 79.085 84.045 89.245 94.845 100.725 106.925
1996.492 113.515 120.545 127.965 135.795 143.965 152.485 161.465 170.815 180.385 190.205
2015.782 200.305 210.425 220.485 230.285 239.785 248.745 256.825 263.805 269.345 273.355
2035.072 275.625 276.085 274.885 272.145 267.925 262.435 255.815 248.435 240.525 232.245
2054.362 223.745 215.035 206.235 197.405 188.715 180.175 171.745 163.485 155.515 148.025
2073.651 141.055 134.525 128.525 122.995 118.015 113.745 109.955 106.585 103.565 100.895
2092.941 98.545 96.315 94.235 92.415 90.545 88.675 86.915 85.105 83.335 81.475
2112.231 79.565 77.585 75.515 73.475 71.395 69.195 67.015 64.835 62.515 60.165
2131.521 57.875 55.545 53.145 50.805 48.465 46.215 44.155 42.105 40.075 38.185
2150.810 36.315 34.525 32.875 31.325 29.915 28.565 27.245 26.075 24.935 23.915
2170.100 23.025 22.155 21.435 20.675 19.895 19.255 18.645 18.055 17.485 17.025
2189.390 16.575 16.175 15.765 15.335 15.005 14.685 14.345 14.045 13.715 13.295
2208.680 12.975 12.795 12.645 12.455 12.315 12.155 11.865 11.625 11.495 11.365
2227.970 11.135 10.935 10.795 10.515 10.245 10.015 9.855 9.555 9.195 8.955
2247.259 8.675 8.385 8.095 7.875 7.625 7.225 6.945 6.765 6.595 6.415
2266.549 6.245 6.085 5.895 5.725 5.495 5.345 5.275 5.115 4.945 4.795
2285.839 4.675 4.595 4.535 4.395 4.245 4.185 3.985 3.795 3.765 3.595
2305.129 3.455 3.335 3.215 3.195 3.085 2.985 2.935 2.905 2.815 2.665
2324.418 2.515 2.435 2.465 2.475 2.405 2.325 2.275 2.285 2.205 2.065
2343.708 2.025 2.005 1.975 2.005 2.015 1.955 1.865 1.825 1.815 1.725
2362.998 1.745 1.765 1.645 1.665 1.715 1.705 1.675 1.595 1.595 1.645
2382.288 1.695 1.705 1.635 1.515 1.475 1.515 1.475 1.425 1.425 1.385
2401.578 1.385 1.365 1.3052 1.2662 1.315 1.335 1.2821 1.325 1.3085 1.2526
2420.867 1.2698 1.2798 1.335 1.365 1.335 1.2993 1.2699 1.2722 1.2439 1.2483
2440.157 1.233 1.1528 1.232 1.2985 1.2757 1.2581 1.2668 1.335 1.335 1.2416
2459.447 1.2238 1.2335 1.2551 1.2342 1.2627 1.335 1.345 1.335 1.2956 1.3039
2478.737 1.365 1.415 1.365 1.315 1.345 1.395 1.395 1.405 1.425 1.455
2498.026 1.385 1.365 1.405 1.405 1.455 1.495 1.485 1.505 1.545 1.525
2517.316 1.525 1.535 1.525 1.585 1.685 1.765 1.835 1.895 1.815 1.805
2536.606 1.825 1.875 2.035 2.145 2.195 2.175 2.195 2.315 2.385 2.425
2555.896 2.465 2.505 2.555 2.615 2.675 2.775 2.845 2.905 2.915 2.885
2575.186 2.825 2.825 2.915 2.875 2.885 2.925 2.855 2.855 2.845 2.745
2594.475 2.705 2.655 2.585 2.565 2.485 2.355 2.255 2.235 2.245 2.155
2613.765 2.065 2.075 2.105 1.955 1.845 1.795 1.825 1.935 1.945 1.905
2633.055 1.815 1.835 1.815 1.775 1.735 1.685 1.715 1.695 1.715 1.675
2652.345 1.605 1.615 1.605 1.555 1.585 1.625 1.715 1.765 1.775 1.715
2671.634 1.615 1.625 1.585 1.585 1.575 1.585 1.675 1.775 1.765 1.725
2690.924 1.815 1.865 1.815 1.885 1.965 2.035 1.995 1.945 2.055 2.075
2710.214 2.075 2.115 2.155 2.235 2.305 2.265 2.255 2.305 2.365 2.435
2729.504 2.525 2.595 2.525 2.475 2.505 2.485 2.475 2.555 2.675 2.645
2748.794 2.605 2.705 2.795 2.705 2.625 2.675 2.745 2.795 2.735 2.695
2768.083 2.695 2.605 2.545 2.545 2.555 2.485 2.525 2.565 2.515 2.495
2787.373 2.515 2.565 2.525 2.495 2.575 2.535 2.465 2.445 2.425 2.395
2806.663 2.425 2.495 2.635 2.855 2.925 2.935 3.055 3.195 3.385 3.635
2825.953 3.875 4.135 4.375 4.615 4.915 5.335 5.795 6.315 7.015 7.825
2845.242 8.655 9.455 10.235 10.615 10.635 10.595 10.345 9.785 9.135 8.545
2864.532 7.995 7.565 7.355 7.055 6.765 6.575 6.305 6.245 6.325 6.445
2883.822 6.495 6.635 6.915 7.155 7.525 7.945 8.315 8.745 9.315 10.065
2903.112 10.715 11.345 12.215 13.125 14.245 15.585 17.005 19.065 21.725 24.445
2922.401 27.345 30.035 31.785 32.635 32.705 31.895 30.375 28.445 26.395 24.725
2941.691 23.665 23.005 22.825 23.065 23.735 25.025 27.055 29.745 32.925 36.065
2960.981 38.235 39.235 39.175 37.945 35.725 32.535 28.625 24.815 21.775 19.485
2980.271 17.615 16.255 15.045 13.975 13.355 12.915 12.435 12.235 12.095 11.715
2999.561 11.235 10.795 10.405 9.905 9.485 9.015 8.615 8.345 7.875 7.445
3018.850 7.115 6.715 6.555 6.245 5.965 5.995 5.895 5.835 5.615 5.355
3038.140 5.275 5.145 4.905 4.615 4.425 4.205 3.915 3.745 3.475 3.315
3057.430 3.205 2.945 2.765 2.705 2.735 2.705 2.655 2.505 2.455 2.485
3076.720 2.495 2.475 2.265 2.165 2.255 2.395 2.325 2.175 2.125 2.195
3096.009 2.255 2.145 2.005 1.935 1.945 1.925 1.825 1.725 1.735 1.965
3115.299 1.925 1.745 1.725 1.715 1.645 1.695 1.705 1.445 1.365 1.475
3134.589 1.545 1.395 1.325 1.355 1.335 1.2424 1.0525 0.9062 0.8641 0.9445
3153.879 0.8881 0.8531 0.914 0.9932 0.9782 0.8501 0.7513 0.6897 0.6441 0.6721
3173.169 0.621 0.687 0.6695 0.5379 0.6232 0.5612 0.6424 0.6353 0.4776 0.462
3192.458 0.4775 0.5668 0.5483 0.6006 0.64 0.4436 0.39896 0.4707 0.4219 0.33924
3211.748 0.32708 0.2385 0.2259 0.30674 0.203 0.2657 0.35594 0.32639 0.4008 0.4642
3231.038 0.38874 0.36635 0.2742 0.087 0.163 0.34479 0.39587 0.4241 0.40462 0.40114
3250.328 0.3068 0.2571 0.40792 0.41106 0.266 0.34708 0.5254 0.34069 0.151 0.323897
3269.617 0.34918 0.123 0.174 0.315627 0.314063 0.2598 0.32671 0.37602 0.2899 0.2479
3288.907 0.2957 0.321908 0.37589 0.35124 0.2506 0.30693 0.2411 0.182 0.206 0.2896
3308.197 0.4181 0.4092 0.2899 0.183 0.147 0.2329 0.34432 0.31029 0.31033 0.32918
3327.487 0.2604 0.159 0.143 0.189 0.192 0.2309 0.315928 0.2944 0.084 0
3346.777 0.103 0.2611 0.37689 0.320008 0.3265 0.2509 0.157 0.117 0.102 0.3038
3366.066 0.38224 0.34392 0.31388 0.183 0.085 0.178 0.2458 0.2502 0.188 0.162
3385.356 0.2671 0.292 0.4307 0.4417 0.33447 0.314961 0.251 0.2366 0.318383 0.320312
3404.646 0.2441 0.2537 0.2335 0.211 0.214 0.2235 0.186 0.103 0.183 0.3034
3423.936 0.2714 0.3375 0.35562 0.2503 0.2165 0.316162 0.37318 0.3113 0.2946 0.30703
3443.225 0.2907 0.2429 0.2773 0.34526 0.34505 0.33643 0.32722 0.2302 0.249 0.31229
3462.515 0.2909 0.321051 0.33643 0.31139 0.4309 0.5732 0.6413 0.7068 0.6602 0.6626
3481.805 0.5886 0.5496 0.7472 0.7721 0.9345 1.1552 1.1864 1.2509 1.2952 1.355
3501.095 1.425 1.3125 1.105 1.0848 0.8973 0.7623 0.9852 1.2583 1.2164 0.973
3520.385 0.8351 0.8687 1.0109 1.0289 0.9918 0.9244 0.9216 1.0357 1.0048 0.9181
3539.674 0.8141 0.7558 0.6924 0.5708 0.5428 0.5448 0.6423 0.689 0.5716 0.6994
3558.964 0.8743 0.6339 0.36428 0.38684 0.4459 0.4901 0.4345 0.2479 0.30766 0.38895
3578.254 0.36893 0.32972 0.36053 0.40727 0.36014 0.35385 0.2619 0.2316 0.30934 0.2254
3597.544 0.2575 0.38855 0.2744 0.317727 0.4421 0.4196 0.4252 0.33556 0.2585 0.4611
3616.833 0.5183 0.33462 0.2232 0.2655 0.2609 0.2502 0.42 0.456 0.40807 0.3707
3636.123 0.2356 0.2332 0.2758 0.212 0.133 0.06 0.2537 0.4009 0.35517 0.33677
3655.413 0.3715 0.38568 0.36109 0.2865 0.2304 0.174 0.2672 0.4364 0.35036 0.2928
3674.703 0.35977 0.2762 0.317679 0.4024 0.38219 0.4361 0.5127 0.6252 0.5388 0.5044
3693.993 0.4388 0.3025 0.2627 0.186 0.18 0.2321 0.33064 0.4189 0.38969 0.2643
3713.282 0.119 0.196 0.37911 0.4544 0.5826 0.5635 0.4564 0.35006 0.4865 0.6866
3732.572 0.5929 0.39554 0.2473 0.37411 0.4755 0.4672 0.4645 0.455 0.4745 0.40988
3751.862 0.30749 0.33327 0.37257 0.2944 0.115 0.2515 0.35072 0.41307 0.632 0.5422
3771.152 0.4273 0.4168 0.36034 0.2902 0.39128 0.535 0.4534 0.5167 0.4867 0.187
3790.441 0.152 0.2325 0.2935 0.3035 0.4698 0.34531 0.19 0.6002 0.6789 0.485
3809.731 0.4601 0.5334 0.4551 0.320331 0.421 0.5218 0.5029 0.6199 0.563 0.37651
3829.021 0.2503 0.2926 0.4993 0.5051 0.40681 0.37904 0.5253 0.518 0.4117 0.4377
3848.311 0.5617 0.6583 0.6549 0.6477 0.5738 0.4581 0.581 0.7476 0.6287 0.4496
3867.601 0.4605 0.5631 0.652 0.5997 0.5582 0.5773 0.61 0.7084 0.7984 0.8781
3886.890 0.7492 0.5949 0.728 0.7483 0.7687 0.7888 0.6939 0.626 0.6041 0.6262
3906.180 0.6954 0.6114 0.536 0.5732 0.7015 0.8715 0.7326 0.6541 0.8356 0.8766
3925.470 0.7548 0.7564 0.7477 0.9219 1.0815 1.1143 1.0233 1.1028 1.12 1.1181
3944.760 1.315 1.3108 1.1158 1.1312 1.1791 1.0519 1.1672 1.1976 1.2514 1.335
3964.049 1.2754 1.1823 1.2405 1.395 1.3019 1.2847 1.475 1.545 1.415 1.2216
3983.339 1.2989 1.325 1.1708 1.1929 1.2951 1.385 1.515 1.495 1.585 1.625
##END=
