##TITLE=Methyl 2-isothiocyanatoacetate
##JCAMP-DX=4.24
##DATA TYPE=INFRARED SPECTRUM
##ORIGIN=EPA-IR VAPOR PHASE LIBRARY
##OWNER=SRD/NIST
Collection (C) 2018 copyright by the U.S. Secretary of Commerce
on behalf of the United States of America. All rights reserved.
##CAS REGISTRY NO=21055-37-8
##MOLFORM=C 4 H 5 N O 2 S
##$NIST SOURCE=MSDC-IR
##STATE=gas
##XUNITS=1/CM
##YUNITS=ABSORBANCE
##XFACTOR=1.
##YFACTOR=0.001
##DELTAX=1.92898
##FIRSTX=549.8
##LASTX=4000.7
##FIRSTY=9.83
##MAXX=4000.7
##MINX=549.759
##MAXY=0.32254
##MINY=0
##NPOINTS=1790
##XYDATA=(X++(Y..Y))
549.759 9.83 9.98 10.04 9.94 9.88 10.1 9.87 9.66 9.56 9.4
569.049 9.5 9.44 9.05 8.5 8.21 7.92 7.68 7.66 7.38 7.07
588.339 6.96 6.62 6.4 6.32 6.01 5.65 5.67 5.8 5.43 5.23
607.628 5.39 5.12 4.83 4.79 4.83 4.91 4.69 4.7 4.77 4.71
626.918 4.68 4.73 4.62 4.87 5.01 4.76 4.7 4.65 5.01 5.21
646.208 5.25 5.44 5.52 5.72 5.93 5.87 6.04 6.37 6.47 6.62
665.498 6.83 7.12 7.21 7.21 7.44 7.8 8.1 8.28 8.55 9.16
684.787 9.74 10.07 10.4 10.51 10.69 11.14 11.39 11.46 11.55 11.53
704.077 11.56 11.67 11.52 11.42 11.39 11.57 11.77 11.75 11.73 11.78
723.367 12.05 12.09 11.92 11.98 12 11.9 11.83 11.47 11.21 11.08
742.657 10.75 10.34 10.01 9.63 9.46 9.35 8.8 8.16 7.57 7.31
761.947 7 6.61 6.29 6.01 5.67 5.18 4.76 4.61 4.38 4.15
781.236 4.11 3.87 3.59 3.35 3.04 2.81 2.7 2.62 2.52 2.43
800.526 2.39 2.32 2.31 2.45 2.56 2.62 2.65 2.7 2.7 2.65
819.816 2.67 2.69 2.89 3.16 3.1 3.21 3.68 3.93 4.17 4.22
839.106 4.3 4.57 4.8 4.95 4.85 4.82 4.7 4.47 4.13 3.77
858.395 3.72 3.6 3.31 3.14 3.01 2.9 2.78 2.68 2.5 2.53
877.685 2.6 2.45 2.33 2.37 2.35 2.29 2.25 2.17 2.12 2.05
896.975 2.09 2.01 1.95 2.03 2.06 2.16 2.26 2.22 2.27 2.22
916.265 2.07 2.19 2.27 2.19 2.16 2.17 2.13 2.1 2.09 2.02
935.555 1.98 2.08 2.14 2.2 2.29 2.38 2.47 2.59 2.81 2.95
954.844 2.8 2.88 3.4 3.83 4.23 4.48 4.55 4.85 5.38 6.02
974.134 6.73 7.53 8.53 9.37 10.31 11.48 12.39 13.23 14.12 14.96
993.424 15.59 16.04 16.77 17.4 18.03 18.87 19.58 20.46 21.6 22.59
1012.714 23.54 24.42 24.88 24.79 24.66 24.5 23.73 22.77 21.49 19.83
1032.003 18.02 16.27 14.84 13.43 12.01 11.03 9.93 8.78 8.18 7.76
1051.293 7.6 7.45 7.08 6.55 6.36 6.28 5.87 5.59 5.4 5.32
1070.583 5.25 4.77 4.41 4.08 3.73 3.91 4.14 4.24 4.48 4.23
1089.873 4.33 4.78 4.7 4.6 4.38 4.49 4.98 5.14 5.06 5.38
1109.163 5.81 6.02 6.13 6.46 6.83 7.62 8.18 8.35 9.14 9.52
1128.452 9.8 10.6 11.27 11.66 12.2 13.09 13.87 14.78 15.86 16.73
1147.742 17.69 19.16 20.72 22.42 24.38 26.7 29.88 33.66 37.52 42.28
1167.032 48.1 54.44 61.44 68.65 75.93 82.81 88.5 93.19 96.5 98.86
1186.322 100.51 101.1 100.43 98.5 96.69 95.53 94.54 93.1 91.73 90.14
1205.611 88.43 86.12 82.97 79.96 75.83 71.74 67.98 64.49 61.5 58.71
1224.901 56.36 54.52 52.97 51.36 50.33 49.36 48.33 48.09 48.09 48.1
1244.191 48.03 47.63 47.45 47.64 47.6 47.49 47.7 47.68 47.45 47.48
1263.481 47.6 47.88 48.43 48.96 49.46 50.08 50.39 50.24 49.87 49
1282.771 47.65 45.95 43.93 41.66 39.1 36.42 33.74 31.04 28.56 26.38
1302.060 24.51 23.01 21.82 21.06 20.69 20.55 20.71 21.13 21.83 22.73
1321.350 23.78 24.81 25.55 25.87 25.78 25.37 24.77 24.05 23.22 22.23
1340.640 20.9 19.27 17.8 16.68 15.75 15.09 14.61 14.17 13.66 13.15
1359.930 12.65 12.11 11.46 10.67 9.84 9 8.31 7.76 7.27 6.92
1379.219 6.59 6.33 6.14 5.93 5.81 5.67 5.53 5.44 5.3 5.25
1398.509 5.32 5.33 5.34 5.44 5.58 5.88 6.24 6.61 7.06 7.7
1417.799 8.55 9.68 11.13 12.93 15.05 17.37 19.66 21.58 23.18 24.53
1437.089 25.47 25.93 25.76 24.78 23.04 20.67 17.88 15.22 13.02 11.3
1456.378 10 8.98 8.22 7.58 7.03 6.54 6.15 5.87 5.53 5.23
1475.668 4.92 4.65 4.45 4.21 3.93 3.77 3.64 3.44 3.33 3.26
1494.958 3.18 3.08 3.03 2.96 2.83 2.78 2.75 2.71 2.69 2.67
1514.248 2.65 2.57 2.55 2.6 2.61 2.55 2.5 2.51 2.55 2.56
1533.538 2.61 2.63 2.65 2.64 2.68 2.73 2.68 2.68 2.71 2.73
1552.827 2.82 2.85 2.84 2.86 2.91 2.86 2.82 2.86 2.78 2.78
1572.117 2.83 2.76 2.72 2.75 2.73 2.64 2.58 2.44 2.28 2.22
1591.407 2.2 2.09 1.97 1.95 1.86 1.85 1.88 1.81 1.8 1.8
1610.697 1.81 1.75 1.65 1.59 1.61 1.61 1.65 1.67 1.61 1.63
1629.986 1.64 1.62 1.61 1.52 1.4973 1.4906 1.4888 1.56 1.55 1.463
1649.276 1.53 1.56 1.4995 1.55 1.58 1.64 1.61 1.62 1.74 1.79
1668.566 1.85 1.87 1.91 1.99 2.04 2.04 2.13 2.17 2.23 2.37
1687.856 2.44 2.53 2.61 2.69 2.82 2.91 2.98 3.24 3.47 3.63
1707.146 3.89 4.17 4.47 4.93 5.47 6.06 6.76 7.45 8.25 9.2
1726.435 10.3 11.53 12.96 14.55 16.22 17.94 19.83 21.98 24.33 26.94
1745.725 29.89 33.45 37.85 43.46 50.52 59.08 69.07 79.35 88.29 94.54
1765.015 97.97 99.89 101.21 101.55 100.83 97.31 89.12 78.62 69.43 62.87
1784.305 58.24 54.87 52.56 50.9 49.21 46.68 43.22 39.18 34.95 30.91
1803.594 27.22 23.86 20.97 18.54 16.56 14.96 13.63 12.49 11.49 10.48
1822.884 9.42 8.4 7.52 6.76 6.02 5.38 4.89 4.52 4.22 3.97
1842.174 3.84 3.71 3.6 3.57 3.52 3.49 3.47 3.46 3.5 3.52
1861.464 3.59 3.66 3.68 3.7 3.79 3.89 3.93 3.94 3.98 4.04
1880.754 4.15 4.31 4.42 4.5 4.57 4.7 4.85 5.04 5.2 5.4
1900.043 5.6 5.79 5.99 6.21 6.48 6.68 6.88 7.14 7.47 7.85
1919.333 8.26 8.67 9.06 9.47 9.98 10.53 11.06 11.63 12.21 12.87
1938.623 13.56 14.31 15.12 15.98 16.87 17.82 18.82 19.9 20.99 22.11
1957.913 23.36 24.65 26 27.39 28.95 30.58 32.34 34.3 36.31 38.43
1977.202 40.7 43.17 45.83 48.64 51.71 54.99 58.56 62.45 66.55 70.95
1996.492 75.72 80.85 86.28 91.99 98.14 104.76 111.8 119.25 127.06 135.37
2015.782 144.19 153.48 163.4 173.93 184.96 196.49 208.61 221.33 234.46 247.91
2035.072 261.59 275.31 288.53 300.68 311.12 318.48 322.05 322.54 320.59 316.23
2054.362 309.53 300.92 290.59 278.81 265.95 252.19 237.84 223.35 208.95 194.98
2073.651 181.91 169.72 158.38 147.82 137.93 128.92 120.75 113.23 106.45 100.33
2092.941 94.81 89.91 85.47 81.26 77.35 73.7 70.09 66.64 63.26 59.89
2112.231 56.74 53.69 50.69 47.93 45.29 42.82 40.68 38.74 36.95 35.42
2131.521 34.06 32.81 31.75 30.74 29.74 28.87 28.11 27.43 26.74 26.03
2150.810 25.37 24.8 24.26 23.85 23.51 23.19 23.01 22.85 22.76 22.81
2170.100 22.87 23 23.24 23.44 23.67 23.81 23.85 23.85 23.7 23.44
2189.390 23.02 22.36 21.51 20.57 19.65 18.78 17.76 16.74 15.76 14.77
2208.680 13.98 13.31 12.7 12.23 11.87 11.56 11.28 11.1 11.03 11.01
2227.970 10.98 10.93 10.93 10.93 10.96 11.07 11.18 11.12 11.09 11.11
2247.259 11.13 11.14 11.06 11.05 11.08 11 10.9 10.83 10.68 10.48
2266.549 10.38 10.25 10.1 10.01 9.91 9.77 9.54 9.35 9.17 9.04
2285.839 8.84 8.52 8.28 7.97 7.61 7.35 7.06 6.65 6.31 6.04
2305.129 5.75 5.45 5.14 4.93 4.72 4.51 4.39 4.21 4 3.86
2324.418 3.7 3.5 3.35 3.26 3.13 3 2.89 2.84 2.76 2.7
2343.708 2.65 2.46 2.4 2.43 2.38 2.38 2.43 2.38 2.36 2.39
2362.998 2.4 2.34 2.26 2.26 2.23 2.11 2 2.02 2 1.9
2382.288 1.81 1.81 1.84 1.81 1.7 1.63 1.68 1.77 1.78 1.69
2401.578 1.62 1.57 1.57 1.58 1.54 1.4947 1.4411 1.3874 1.4089 1.444
2420.867 1.4185 1.4213 1.3683 1.3457 1.3574 1.3837 1.4133 1.3294 1.2823 1.2564
2440.157 1.3085 1.3419 1.3222 1.3534 1.3917 1.3734 1.3864 1.3776 1.335 1.3008
2459.447 1.3169 1.3306 1.2773 1.2465 1.2117 1.2941 1.3104 1.3279 1.4209 1.4153
2478.737 1.3922 1.3888 1.398 1.388 1.3822 1.4156 1.4325 1.4119 1.414 1.4841
2498.026 1.4908 1.4558 1.4764 1.54 1.56 1.52 1.4935 1.52 1.52 1.4894
2517.316 1.51 1.52 1.57 1.68 1.67 1.64 1.69 1.65 1.63 1.67
2536.606 1.74 1.78 1.69 1.66 1.69 1.77 1.8 1.84 1.97 2.04
2555.896 2.04 2.12 2.17 2.11 2.17 2.35 2.41 2.36 2.31 2.33
2575.186 2.37 2.3 2.34 2.43 2.47 2.43 2.35 2.23 2.21 2.17
2594.475 2.09 2.08 2.05 1.96 1.94 1.93 1.85 1.85 1.8 1.73
2613.765 1.71 1.61 1.61 1.48 1.3908 1.4342 1.4087 1.3549 1.3034 1.2514
2633.055 1.1878 1.217 1.2111 1.2033 1.1925 1.0905 1.1169 1.213 1.1394 1.0541
2652.345 1.1068 1.0739 1.0149 1.0961 1.1286 1.1338 1.1249 1.0912 1.0549 1.0459
2671.634 1.0408 1.1472 1.2871 1.2856 1.2569 1.2024 1.1657 1.1063 1.0589 1.1153
2690.924 1.1022 1.1181 1.2535 1.4281 1.485 1.432 1.55 1.61 1.57 1.66
2710.214 1.72 1.75 1.89 1.92 1.93 2.06 2.13 2.22 2.37 2.46
2729.504 2.48 2.55 2.77 2.97 3.16 3.27 3.31 3.42 3.57 3.7
2748.794 3.76 3.81 3.82 3.79 3.9 3.95 3.86 3.9 3.94 3.92
2768.083 3.92 3.84 3.81 3.78 3.67 3.56 3.52 3.51 3.46 3.33
2787.373 3.17 3.05 2.96 2.89 2.84 2.82 2.72 2.59 2.52 2.55
2806.663 2.55 2.48 2.29 2.3 2.37 2.23 2.4 2.56 2.53 2.6
2825.953 2.69 2.77 2.84 2.98 3.05 3.17 3.39 3.69 3.97 4.24
2845.242 4.62 5.06 5.36 5.51 5.59 5.7 5.69 5.52 5.38 5.19
2864.532 4.79 4.44 4.17 3.81 3.59 3.42 3.17 3.12 3.12 2.99
2883.822 2.92 3.08 3.26 3.26 3.21 3.35 3.5 3.64 3.91 4.04
2903.112 4.12 4.39 4.73 4.98 5.16 5.31 5.55 5.87 6.31 6.75
2922.401 7.03 7.43 8.06 8.78 9.53 10.46 11.56 12.56 13.46 14.31
2941.691 15.05 15.86 16.6 17.07 17.46 18.12 19.28 20.76 22.25 23.35
2960.981 23.56 23.1 22.47 21.89 21.23 20.37 18.72 16.15 13.53 11.32
2980.271 9.65 8.48 7.66 7.1 6.61 6.11 5.94 5.94 5.82 5.67
2999.561 5.61 5.53 5.59 5.85 5.81 5.71 5.77 5.73 5.61 5.39
3018.850 5.3 5.32 5.21 5.21 5.24 5.11 5.04 4.95 4.85 4.81
3038.140 4.67 4.53 4.35 4.19 4.05 3.87 3.65 3.4 3.12 2.96
3057.430 2.85 2.65 2.55 2.48 2.37 2.24 2.11 2.06 1.99 1.98
3076.720 1.99 1.8 1.66 1.77 1.88 1.73 1.54 1.52 1.57 1.64
3096.009 1.55 1.3104 1.2276 1.4038 1.56 1.56 1.4052 1.2342 1.2173 1.3062
3115.299 1.3318 1.2861 1.2771 1.1813 1.1545 1.0721 1.025 0.9889 0.9506 0.8737
3134.589 0.7359 0.8296 0.7113 0.6342 0.7932 0.76 0.6807 0.7019 0.7299 0.699
3153.879 0.7779 0.6442 0.60696 0.7414 0.7409 0.707 0.6232 0.4354 0.348 0.59994
3173.169 0.6536 0.55999 0.4659 0.259 0.289 0.4819 0.4212 0.4 0.4162 0.289
3192.458 0.301 0.337 0.4481 0.56228 0.4397 0.50855 0.4375 0.297 0.4492 0.399
3211.748 0.311 0.4135 0.50432 0.4617 0.293 0.263 0.196 0.109 0.162 0.123
3231.038 0.155 0.16 0.18 0.138 0.116 0.208 0.176 0.298 0.341 0.221
3250.328 0.207 0.149 0.239 0.294 0.245 0.225 0.126 0.131 0.172 0.101
3269.617 0.235 0.361 0.291 0.254 0.138 0.223 0.341 0.19 0.216 0.232
3288.907 0.155 0.124 0.037 0.144 0.15 0.081 0.171 0.093 0.021 0.057
3308.197 0.068 0.128 0.204 0.344 0.374 0.138 0.032 0.121 0.135 0.233
3327.487 0.397 0.388 0.173 0.063 0.155 0.159 0.128 0.107 0.216 0.281
3346.777 0.118 0.116 0.154 0.147 0.089 0.071 0.136 0.075 0.043 0.139
3366.066 0.275 0.273 0.217 0.152 0.111 0.196 0.281 0.322 0.269 0.137
3385.356 0.163 0.314 0.276 0.324 0.279 0.115 0.139 0.134 0.19 0.103
3404.646 0 0.161 0.295 0.235 0.182 0.296 0.323 0.385 0.4586 0.4169
3423.936 0.53193 0.53269 0.4343 0.381 0.269 0.249 0.4384 0.4764 0.347 0.38
3443.225 0.288 0.295 0.378 0.4107 0.4246 0.4907 0.52781 0.378 0.394 0.4573
3462.515 0.398 0.235 0.27 0.512362 0.58037 0.553 0.53962 0.6013 0.6995 0.6474
3481.805 0.7366 0.8286 0.6402 0.57146 0.6247 0.7214 0.747 0.7536 0.7699 0.8923
3501.095 1.1278 1.1853 1.2279 1.1812 1.2382 1.4054 1.55 1.62 1.4836 1.4736
3520.385 1.71 1.87 1.73 1.61 1.4567 1.2397 1.2477 1.1033 1.0764 1.1247
3539.674 1.0784 1.1419 1.0842 0.9877 1.0557 1.0933 1.0909 1.1091 1.0065 0.8563
3558.964 0.7857 0.8495 0.9052 0.7891 0.6234 0.692 0.7221 0.60002 0.6244 0.53836
3578.254 0.4258 0.55759 0.6812 0.59172 0.52574 0.628 0.6429 0.4586 0.4515 0.52173
3597.544 0.321 0.325 0.4938 0.4127 0.243 0.183 0.337 0.38 0.269 0.376
3616.833 0.4208 0.279 0.4121 0.53937 0.392 0.395 0.333 0.191 0.227 0.257
3636.123 0.252 0.289 0.393 0.399 0.282 0.24 0.344 0.4464 0.4462 0.4497
3655.413 0.4409 0.398 0.301 0.253 0.282 0.277 0.328 0.349 0.231 0.343
3674.703 0.4586 0.469 0.4585 0.4903 0.4997 0.324 0.287 0.244 0.321 0.4361
3693.993 0.5016 0.4484 0.273 0.4399 0.4868 0.415 0.511338 0.4407 0.278 0.288
3713.282 0.335 0.266 0.229 0.366 0.333 0.409 0.4656 0.32 0.265 0.242
3732.572 0.353 0.365 0.321 0.291 0.284 0.39 0.365 0.315 0.36 0.226
3751.862 0.038 0.076 0.256 0.326 0.4708 0.4713 0.309 0.262 0.109 0.123
3771.152 0.297 0.29 0.158 0.081 0.275 0.4592 0.29 0.226 0.366 0.283
3790.441 0.246 0.317 0.4202 0.55265 0.515019 0.258 0.173 0.352 0.385 0.4312
3809.731 0.368 0.327 0.293 0.153 0.208 0.24 0.346 0.50652 0.4889 0.337
3829.021 0.303 0.391 0.469 0.489 0.4135 0.4468 0.4883 0.4154 0.256 0.378
3848.311 0.58984 0.55782 0.4926 0.4639 0.368 0.347 0.376 0.272 0.209 0.28
3867.601 0.397 0.4511 0.54499 0.55188 0.4991 0.50431 0.516065 0.4789 0.4419 0.484
3886.890 0.4967 0.511784 0.4675 0.488 0.4986 0.398 0.54758 0.57387 0.58909 0.709
3906.180 0.514987 0.39 0.368 0.378 0.50094 0.642 0.6884 0.6135 0.6321 0.6935
3925.470 0.6932 0.7348 0.8054 0.7482 0.6896 0.708 0.63 0.6186 0.6379 0.6773
3944.760 0.6252 0.6066 0.7374 0.839 0.9855 1.0349 0.9501 0.7944 0.6678 0.7499
3964.049 0.8756 0.9659 1.0737 1.0599 0.9336 0.8769 0.9271 1.0274 1.1643 1.1271
3983.339 0.8999 0.936 1.0097 0.8925 1.0553 1.3806 1.3173 1.2609 1.3957 1.3206
##END=
