##TITLE=5-Hexadecanol
##JCAMP-DX=4.24
##DATA TYPE=INFRARED SPECTRUM
##ORIGIN=EPA-IR VAPOR PHASE LIBRARY
##OWNER=SRD/NIST
Collection (C) 2018 copyright by the U.S. Secretary of Commerce
on behalf of the United States of America. All rights reserved.
##CAS REGISTRY NO=21078-87-5
##MOLFORM=C 16 H 34 O
##$NIST SOURCE=MSDC-IR
##STATE=gas
##XUNITS=1/CM
##YUNITS=ABSORBANCE
##XFACTOR=1.
##YFACTOR=0.001
##DELTAX=1.92898
##FIRSTX=549.8
##LASTX=4000.7
##FIRSTY=0.9965
##MAXX=4000.7
##MINX=549.759
##MAXY=0.40183
##MINY=0.00005478
##NPOINTS=1790
##XYDATA=(X++(Y..Y))
549.759 0.9965 1.32 1.44 1.31 1.61 1.89 1.62 0.7265 0.6126 1.17
569.049 1.04 1.36 1.79 1.24 1.21 1.36 1.33 1.23 0.7227 0.8755
588.339 1.3 1.05 0.6542 0.955 1.04 0.6656 0.7561 0.9608 1.01 1.1
607.628 1.14 1.53 1.34 0.7737 1.07 1.48 1 0.5382 0.9339 1.71
626.918 1.43 0.839 1.27 1.2 0.3949 0.5216 0.956 1.51 1.66 0.8848
646.208 1.01 1.18 0.695 0.7434 1.48 1.53 0.7033 0.2062 0.5646 1.1
665.498 1.43 1.19 0.5882 0.6693 0.9777 1.17 1.44 1.65 1.6 1.66
684.787 1.91 1.71 1.49 1.49 1.75 1.82 1.74 2.29 2.65 2.96
704.077 3.54 3.95 4.46 4.72 5.13 5.45 5.5 5.77 5.7 5.76
723.367 6.12 5.95 5.77 5.85 5.47 5.49 5.52 5.11 4.91 5.19
742.657 5.04 4.79 4.79 4.23 3.58 3.49 3.93 3.85 3.57 3.75
761.947 4 3.75 3.42 3.35 3.38 3.68 3.77 3.71 3.6 3.48
781.236 3.72 3.69 3.49 3.45 3.09 2.82 3.06 3.28 3.35 3.31
800.526 3.37 3.31 3.05 2.93 2.85 2.92 2.98 2.84 2.68 2.72
819.816 3.51 4.19 4.87 4.38 2.79 2.69 2.61 2.77 3.09 3.26
839.106 3.31 3.3 3.19 2.97 3.32 3.45 3.59 3.46 3.51 3.97
858.395 3.81 3.72 3.97 4.27 4.53 4.4 4.38 4.49 4.57 4.66
877.685 4.94 5.1 4.79 4.86 5.16 5.61 5.69 5.55 5.71 5.83
896.975 5.89 5.86 5.77 5.74 6.04 5.71 5.41 5.67 5.45 5.31
916.265 5.55 5.71 5.59 5.38 5.41 5.57 5.48 5.42 5.75 5.69
935.555 5.57 5.86 5.86 5.51 5.35 5.58 5.8 5.95 6 6.46
954.844 6.79 6.72 6.74 7.07 7.7 7.98 8.08 8.29 9.1 9.51
974.134 9.36 10.06 10.9 11.16 11.46 11.75 11.96 12.45 12.92 13.27
993.424 13.71 14.43 15.27 15.51 15.89 16.47 16.94 17.46 17.72 17.84
1012.714 18.13 18.51 18.74 18.99 19.19 19.5 19.74 19.44 19.25 18.99
1032.003 18.26 18.17 17.69 16.71 16.04 15.75 15.28 14.82 14.51 14.11
1051.293 13.72 13.22 13.04 13.17 13.57 13.69 13.33 13.18 12.5 12.4
1070.583 13.03 12.84 12.5 11.88 11.26 11.42 11.35 11.82 12.11 11.91
1089.873 11.82 11.55 11.85 11.03 10.09 10.44 11.13 11.06 11.07 11.18
1109.163 10.71 10.09 10.28 11.72 13.25 13.62 13.51 13.25 12.65 12.35
1128.452 11.99 11.01 10.86 11.62 11.16 10.41 9.77 9.01 9.56 9.21
1147.742 7.61 7.6 7.54 7.71 8.7 8.05 7.71 8.72 8.23 7.6
1167.032 8.22 8.46 8.46 8.25 8.52 8.95 8.59 8.21 8.32 8.75
1186.322 9.35 9.33 9.36 9.97 9.77 9.36 8.99 9.77 10.88 10.36
1205.611 9.16 9.49 10.91 10.84 10.86 11.04 10.82 11.36 11.7 11.87
1224.901 11.83 11.86 12.65 13.03 12.77 13.01 12.64 11.97 12.03 12.23
1244.191 12.67 12.62 12.57 12.61 12.47 13.05 13 12.48 12.97 12.79
1263.481 12.61 12.92 12.84 12.53 11.96 11.66 11.5 11.13 11.1 11.21
1282.771 11 10.91 10.98 11.03 11.16 11.1 10.85 11.04 11.41 11.4
1302.060 11.27 11.2 11.25 11.22 11.08 10.83 10.67 10.61 10.43 10.26
1321.350 10.12 10.14 10.25 10.42 10.65 10.97 11.46 12.04 12.57 13.3
1340.640 14.07 14.67 15.22 15.81 16.34 16.78 17.13 17.3 17.51 17.65
1359.930 17.76 17.98 18.14 18.31 18.46 18.58 18.71 18.85 19.08 19.45
1379.219 19.83 20.02 20.04 19.73 18.92 17.99 16.99 15.83 14.76 13.87
1398.509 13.03 12.19 11.46 10.83 10.2 9.72 9.41 9.07 8.8 8.6
1417.799 8.5 8.51 8.55 8.55 8.77 9.37 10.01 10.86 11.76 12.73
1437.089 14.08 15.53 16.86 18.24 19.82 21.4 23.08 24.83 26.66 28.48
1456.378 30.22 31.48 32.09 32.07 31.39 30.23 28.49 26.18 23.5 20.69
1475.668 17.99 15.44 13.28 11.55 10.22 9.12 8.05 7.25 6.66 6.02
1494.958 5.63 5.33 4.97 4.54 4.26 3.87 3.49 3.44 3.23 3.14
1514.248 3.16 2.98 2.85 2.75 2.44 2.35 2.35 2.25 2.22 2.26
1533.538 2.23 2.09 1.97 2.04 2.04 1.89 1.7 1.41 1.42 1.54
1552.827 1.63 1.69 1.7 1.63 1.55 1.53 1.5 1.42 1.35 1.41
1572.117 1.32 1.26 1.27 1.23 1.25 1.29 1.15 0.9177 0.9186 1.15
1591.407 1.24 1.01 1.11 1.25 1.17 1.08 1.05 1.28 1.28 1.19
1610.697 1.19 1.12 0.9755 0.8932 0.8544 0.7419 0.9187 1.02 0.9988 1.03
1629.986 1.04 1.07 0.9026 0.7302 0.771 0.8879 0.9152 1.02 1.07 0.946
1649.276 0.8926 0.9234 0.9305 0.9109 1.03 0.9862 0.758 0.6744 0.7554 0.7889
1668.566 0.8198 0.8954 0.8482 0.8726 0.9132 0.8396 0.7376 0.6496 0.7812 0.8739
1687.856 0.7965 0.7311 0.7023 0.6872 0.6251 0.4496 0.5976 0.7712 0.679 0.6284
1707.146 0.6776 0.7453 0.6242 0.6153 0.7292 0.6931 0.5609 0.4982 0.5399 0.5906
1726.435 0.5842 0.5817 0.5376 0.4954 0.4294 0.443 0.5273 0.5083 0.5112 0.4268
1745.725 0.4514 0.5593 0.555 0.554 0.5658 0.6284 0.6594 0.6331 0.5429 0.4566
1765.015 0.4781 0.548 0.5467 0.5607 0.6523 0.6355 0.654 0.5733 0.4538 0.452
1784.305 0.4146 0.2814 0.3156 0.4685 0.4811 0.5121 0.4968 0.4444 0.4867 0.4943
1803.594 0.4416 0.3724 0.4185 0.5256 0.4562 0.4336 0.4349 0.566 0.6252 0.608
1822.884 0.5868 0.556 0.5196 0.4599 0.5086 0.5935 0.5374 0.3132 0.3659 0.5432
1842.174 0.5834 0.5886 0.5449 0.5579 0.4832 0.3449 0.4187 0.4942 0.5134 0.6111
1861.464 0.5745 0.6146 0.6776 0.5476 0.5314 0.5455 0.5718 0.5553 0.4097 0.3067
1880.754 0.4048 0.4803 0.3641 0.3348 0.4368 0.4567 0.3811 0.3241 0.3083 0.3976
1900.043 0.4291 0.5017 0.5096 0.4452 0.4353 0.3491 0.4986 0.6291 0.4626 0.3342
1919.333 0.3899 0.4456 0.5768 0.6528 0.4684 0.4322 0.4408 0.3708 0.3557 0.3469
1938.623 0.3499 0.2964 0.3414 0.4453 0.4675 0.4188 0.3276 0.2973 0.3156 0.369
1957.913 0.358 0.2128 0.2094 0.3829 0.4467 0.3374 0.3514 0.3504 0.4144 0.4907
1977.202 0.486 0.3977 0.2956 0.3965 0.421 0.3627 0.4096 0.4982 0.4915 0.3947
1996.492 0.4139 0.4967 0.3695 0.392 0.5287 0.5502 0.5493 0.5246 0.5866 0.6699
2015.782 0.6401 0.671 0.7567 0.8183 0.8503 0.8078 0.7471 0.6807 0.7504 0.8093
2035.072 0.812 0.7615 0.8175 0.9465 0.8457 0.674 0.5822 0.7494 0.9398 0.8308
2054.362 0.7803 0.8163 0.7819 0.8424 0.9399 0.8558 0.7207 0.7117 0.6692 0.605
2073.651 0.6914 0.7698 0.6643 0.703 0.7897 0.706 0.6416 0.6389 0.6226 0.6241
2092.941 0.7508 0.7447 0.6378 0.6103 0.6048 0.5075 0.4814 0.6203 0.7226 0.6902
2112.231 0.6537 0.6512 0.5363 0.5648 0.5673 0.4939 0.5048 0.4689 0.5451 0.6889
2131.521 0.6449 0.611 0.6302 0.6286 0.6036 0.642 0.6879 0.7385 0.7172 0.6125
2150.810 0.4865 0.5316 0.6541 0.6219 0.8079 0.9529 0.9034 0.7954 0.7656 0.809
2170.100 0.8129 0.7368 0.7095 0.8216 0.7651 0.6056 0.5864 0.6031 0.5522 0.5734
2189.390 0.6114 0.6633 0.6842 0.6766 0.8058 0.8001 0.5695 0.5493 0.6065 0.5305
2208.680 0.5214 0.5656 0.7415 0.7726 0.674 0.6464 0.6978 0.7844 0.7764 0.9635
2227.970 0.9413 0.7208 0.5937 0.5822 0.6753 0.6838 0.7426 0.7654 0.754 0.8485
2247.259 1.03 0.888 0.7426 0.8849 0.8519 0.7828 0.8184 0.7486 0.7394 0.6874
2266.549 0.5867 0.7565 0.8316 0.8151 0.7426 0.6373 0.6473 0.6833 0.8587 0.8798
2285.839 0.7226 0.6424 0.6822 0.6664 0.6539 0.7211 0.6753 0.6478 0.7238 0.8723
2305.129 0.9039 0.8528 0.8584 0.8517 0.8986 1.02 0.9573 0.9191 1.11 1.07
2324.418 0.9313 0.893 0.9684 1.14 1.12 0.9629 0.9899 1.1 1.08 0.9958
2343.708 1.07 1.08 1.04 1.03 0.9184 0.922 0.8507 0.9463 1.08 1.01
2362.998 1.07 1.12 1.04 1.04 0.9428 0.8115 0.9658 1.03 0.9033 0.9502
2382.288 1.1 1.11 0.9431 0.7971 0.7075 0.7903 0.8901 0.9943 1.09 1.01
2401.578 1.04 1 0.9295 0.9078 1.05 1.15 1.13 0.8609 0.6758 0.9228
2420.867 1.03 1.1 0.931 0.8528 0.9965 1.09 1.12 0.9338 0.9234 0.964
2440.157 0.8332 0.9552 1.11 1.04 1.02 1.05 1.02 0.8682 0.8495 1.01
2459.447 1.11 1.03 0.9875 0.8933 0.8288 0.8898 0.9145 0.9628 0.8389 0.8621
2478.737 1.12 1.08 0.8586 0.9487 1.04 1.09 1.28 1.21 1.15 1.22
2498.026 1.09 0.9787 1.09 1.08 1.12 1.2 1.24 1.24 1.25 1.26
2517.316 1.23 1.44 1.5 1.4 1.25 1.27 1.59 1.72 1.63 1.62
2536.606 1.49 1.39 1.4 1.45 1.55 1.6 1.72 1.72 1.58 1.58
2555.896 1.91 2.04 1.85 1.91 1.79 1.67 1.95 2.07 1.99 2.02
2575.186 2.17 2.27 2.22 2.13 2.08 2.16 2.22 2.25 2.21 2.18
2594.475 2.24 2.28 2.24 2.34 2.64 2.59 2.48 2.52 2.7 2.93
2613.765 2.75 2.65 2.8 2.86 3.08 3.14 2.98 3.26 3.67 3.48
2633.055 3.17 3.09 3.28 3.47 3.55 3.72 3.57 3.5 3.57 3.62
2652.345 3.85 4.06 4 3.99 4.06 4.06 4.24 4.39 4.4 4.32
2671.634 4.45 4.48 4.58 4.76 4.72 4.76 4.99 5.03 4.83 4.47
2690.924 4.38 4.47 4.43 4.38 4.44 4.57 4.43 4.49 4.41 4.19
2710.214 4.39 4.54 4.51 4.56 4.61 4.71 4.81 4.87 4.9 4.9
2729.504 4.97 5.04 5 5.01 5.24 5.37 5.44 5.5 5.34 5.46
2748.794 5.61 5.52 5.68 6.01 5.93 5.92 6.18 6.28 6.49 6.56
2768.083 6.45 6.58 6.71 6.88 7.11 7.25 7.37 7.57 7.86 8.34
2787.373 8.61 8.56 8.84 9.46 10.04 10.24 10.64 11.16 11.69 12.32
2806.663 12.66 13.22 13.98 14.3 14.79 15.74 16.73 17.63 18.63 19.91
2825.953 20.92 22.17 23.87 25.54 27.62 30.13 33.05 36.68 40.92 45.97
2845.242 52.07 59.38 68.34 79.11 91.73 105.76 119.8 132.45 142.41 148.45
2864.532 150.55 149.16 145.08 138.94 131.69 124.6 118.41 113.82 110.2 107.23
2883.822 104.23 100.85 97.86 95.32 93.89 93.9 95.49 99.09 104.14 110.25
2903.112 117.7 126.73 137.11 148.51 160.95 174.83 190.34 208.27 229.01 252.82
2922.401 279.42 308.59 338.59 366.19 388.14 400.19 401.83 393.99 377.09 353.8
2941.691 326.53 296.45 266.13 237.56 211.92 190.77 174.09 161.96 154.89 151.78
2960.981 151.32 152.07 152.53 150.74 145.39 136.17 123.26 108.21 93.13 79.97
2980.271 68.97 59.82 52.35 46.34 41.33 37.02 33.54 30.66 28.24 25.86
2999.561 23.81 22.36 20.77 19.54 18.62 17.18 16.12 15.45 14.79 14.05
3018.850 13.08 12.32 12.07 11.76 11.14 10.63 10.12 9.69 9.23 8.75
3038.140 8.52 8.28 8.22 8.18 7.61 6.98 7.1 6.81 6.24 6.08
3057.430 5.69 5.76 5.97 5.66 5.07 4.69 4.99 5.1 4.79 4.46
3076.720 4.23 4.14 4.21 4.35 4.21 4.08 4.01 3.86 3.62 3.65
3096.009 3.84 3.47 3.17 3.49 3.67 3.68 3.81 3.75 3.22 3.05
3115.299 3.18 2.97 2.98 3.13 2.83 2.68 2.83 2.88 3 2.8
3134.589 2.53 2.41 1.99 1.98 2.27 2.32 2.41 2.44 2.47 2.21
3153.879 1.84 1.82 1.92 2.23 2.28 2.12 2.15 2.09 2 2.12
3173.169 2.28 2.26 1.78 1.64 1.92 2 1.9 1.78 1.69 1.72
3192.458 1.74 1.61 1.98 1.95 1.57 1.62 1.56 1.21 1 1.15
3211.748 1.27 1.39 1.37 1.07 1.11 1.31 1.37 1.17 0.8135 0.9195
3231.038 0.898 0.595 0.7001 0.8771 0.8275 0.8959 0.9783 0.6285 0.4969 0.6494
3250.328 0.5941 0.8231 0.874 0.9001 0.7616 0.5385 0.5565 0.7106 0.7773 0.542
3269.617 0.5976 0.5728 0.5972 0.6758 0.6339 0.6121 0.5832 0.4882 0.6129 0.6144
3288.907 0.7408 0.8916 0.7096 0.9862 0.8492 0.5589 0.5625 0.7611 0.9321 0.7766
3308.197 0.9211 0.8074 0.5154 0.6301 0.4632 0.1503 0.6395 1.06 0.876 0.6558
3327.487 0.7527 0.8721 0.7864 0.7405 0.4691 0.2809 0.3266 0.3475 0.4578 0.5651
3346.777 0.5536 0.5811 0.6221 0.868 1.15 0.5822 0.1248 0.5955 0.9378 0.7136
3366.066 0.6788 0.9245 0.7828 0.6294 1.01 1.14 0.8746 0.7425 0.5741 0.8094
3385.356 1.13 1.01 1.27 1.39 1.1 0.9354 1.13 1.45 1.26 1.04
3404.646 0.8178 0.7899 1.22 1.2 1.06 1.34 1.09 0.6358 0.7699 0.9826
3423.936 1.04 1.13 1.04 0.8177 0.8624 1.2 1.06 0.9173 1.06 0.9359
3443.225 0.9052 0.612 0.4913 0.786 0.9478 0.8866 0.5494 0.5962 0.895 0.9587
3462.515 0.9893 0.9071 0.7009 0.8776 1.04 0.7762 0.9892 1.09 0.7194 0.4998
3481.805 0.4281 0.5077 0.5223 0.5176 0.7188 0.8171 0.5187 0.449 0.7989 1.15
3501.095 1.14 1.03 1.04 0.9316 1.02 0.6681 0.4288 0.4135 0.5662 0.819
3520.385 0.7948 0.8668 0.7958 0.7918 0.8264 0.8708 0.7888 0.8108 0.6233 0.1341
3539.674 0.4155 1.07 0.7389 0.1106 0.05478 0.3716 0.5036 0.5066 0.4721 0.7634
3558.964 1.21 0.8056 0.5092 0.9873 1.09 0.6733 0.6248 0.882 0.8427 0.7716
3578.254 0.7278 0.6035 0.6957 0.3856 0.5332 1.18 1.06 0.8692 0.7513 0.7901
3597.544 0.9247 0.8474 1.01 1.26 1.33 1.11 1.19 1.67 1.81 1.91
3616.833 1.86 1.73 2.09 2.39 2.57 2.96 3.24 3.34 3.66 3.96
3636.123 4.36 5.08 5.61 5.83 6.12 6.68 7.69 8.51 8.83 9.27
3655.413 9.6 9 8 6.92 6.1 5.52 4.88 4.54 3.79 2.9
3674.703 2.64 2.35 1.83 1.72 1.99 1.97 1.71 1.65 1.43 1.18
3693.993 1.14 1.4 1.55 1.57 1.24 1.02 1.19 1.16 0.9268 0.5723
3713.282 0.5059 0.8495 1.04 1.01 1.03 1.01 1.04 0.6847 0.7773 1.06
3732.572 1.06 1.24 0.8317 0.7669 1.26 1.19 1.01 0.8916 0.988 0.89
3751.862 0.7244 0.9263 0.9681 0.9297 0.9978 1.21 1.51 1.26 1.08 1.21
3771.152 0.924 0.8148 0.7851 0.7709 0.6494 0.9011 1.37 1.32 1.15 0.938
3790.441 1.07 1.33 1.21 1.03 1 0.9399 1.08 1.21 0.9752 0.8791
3809.731 1.01 1.22 0.9683 0.9305 1.21 1.07 0.8037 0.8369 1.05 0.7386
3829.021 0.8886 1.25 1.14 1.26 1.61 1.57 1.27 1.11 1.16 1.45
3848.311 1.25 0.9778 1.01 0.9393 0.8975 1.2 1.29 1.16 1.18 1.29
3867.601 1.08 0.9055 1.28 1.36 1.06 1.1 0.9595 0.8956 1.1 1.25
3886.890 1.3 0.9963 0.9207 0.8588 0.7254 0.658 0.685 0.8179 0.6894 0.7482
3906.180 0.9421 0.8603 1.05 1.17 1.06 0.7673 0.3094 0.6673 1.24 1.3
3925.470 1.23 1.07 1.05 1.15 0.9713 0.7694 0.8428 1.12 1.35 1.09
3944.760 0.9444 1.3 1.42 0.8763 0.8364 1.3 1.45 1.42 1.16 0.84
3964.049 0.7837 1.04 1.31 1.3 1.06 0.9436 1.1 1.15 1.22 0.9412
3983.339 1.04 1.56 1.44 1.29 1.24 1.28 1.48 1.54 1.42 1.46
##END=
