##TITLE=3-(3,4-Dimethoxyphenyl)propionic acid
##JCAMP-DX=4.24
##DATA TYPE=INFRARED SPECTRUM
##ORIGIN=EPA-IR VAPOR PHASE LIBRARY
##OWNER=SRD/NIST
Collection (C) 2018 copyright by the U.S. Secretary of Commerce
on behalf of the United States of America. All rights reserved.
##CAS REGISTRY NO=2107-70-2
##MOLFORM=C 11 H 14 O 4
##$NIST SOURCE=MSDC-IR
##STATE=gas
##XUNITS=1/CM
##YUNITS=ABSORBANCE
##XFACTOR=1.
##YFACTOR=0.001
##DELTAX=1.92898
##FIRSTX=549.8
##LASTX=4000.7
##FIRSTY=12.171
##MAXX=4000.7
##MINX=549.759
##MAXY=0.064911
##MINY=0
##NPOINTS=1790
##XYDATA=(X++(Y..Y))
549.759 12.171 12.651 12.661 12.361 11.891 11.541 11.271 10.821 10.631 10.551
569.049 10.661 10.881 10.691 10.721 11.011 11.071 11.181 11.431 11.641 11.971
588.339 12.041 12.111 12.241 12.411 12.741 12.691 12.501 12.461 12.331 12.131
607.628 11.851 11.711 11.881 11.711 11.191 10.781 10.391 10.401 10.701 10.571
626.918 10.521 10.521 10.511 10.491 10.201 10.141 10.151 9.981 9.891 9.431
646.208 8.951 8.601 7.991 7.401 6.821 6.281 5.811 5.521 5.371 5.061
665.498 4.661 4.461 4.431 4.331 4.201 4.001 3.721 3.671 3.731 3.591
684.787 3.411 3.421 3.411 3.401 3.301 3.241 3.181 3.141 3.231 3.211
704.077 3.341 3.501 3.691 3.781 3.781 3.551 3.301 3.231 2.951 2.821
723.367 3.071 3.211 3.121 3.051 3.051 3.201 3.481 3.741 4.021 4.241
742.657 4.371 4.511 4.861 5.271 5.651 5.731 6.021 6.411 6.641 6.881
761.947 6.621 6.321 6.051 5.651 5.151 4.691 4.221 3.751 3.801 3.761
781.236 3.381 3.411 3.571 3.871 4.111 4.331 4.581 4.861 5.241 5.701
800.526 6.091 6.531 6.771 7.021 7.531 7.701 7.831 8.001 8.051 7.881
819.816 7.621 7.301 6.941 6.451 5.831 5.301 4.901 4.571 4.251 3.971
839.106 3.961 3.871 3.821 3.921 3.891 3.891 3.691 3.601 3.741 3.571
858.395 3.381 3.351 3.471 3.641 3.631 3.691 3.611 3.521 3.641 3.771
877.685 3.761 3.731 3.871 4.031 3.911 4.001 4.301 4.481 4.491 4.331
896.975 4.201 4.031 3.811 3.551 3.241 3.071 3.131 2.931 2.781 2.851
916.265 3.011 3.181 3.111 3.181 3.431 3.461 3.561 3.851 3.911 3.861
935.555 3.761 3.821 4.081 4.111 3.981 4.051 3.991 3.891 4.111 4.191
954.844 4.161 4.101 4.121 4.261 4.331 4.481 4.571 4.601 4.721 4.761
974.134 4.871 5.011 5.141 5.261 5.341 5.401 5.771 6.361 6.771 7.261
993.424 7.741 8.251 8.801 9.331 10.231 11.161 12.221 13.601 14.921 16.281
1012.714 18.111 20.181 22.391 24.621 26.641 28.611 30.551 32.201 33.151 33.891
1032.003 34.351 34.391 33.931 32.731 30.851 28.731 26.421 23.291 20.401 18.351
1051.293 16.491 14.571 12.861 11.701 10.661 9.931 9.341 8.911 8.741 8.791
1070.583 9.021 9.351 9.671 10.011 10.541 11.021 11.661 12.621 13.621 14.501
1089.873 15.661 17.061 18.981 21.181 23.161 25.991 29.471 33.261 37.491 42.071
1109.163 46.961 51.581 55.841 59.291 61.731 62.691 61.991 60.711 58.471 55.371
1128.452 52.051 49.071 46.181 43.161 40.941 39.281 37.531 35.701 34.701 34.091
1147.742 33.311 32.901 32.401 31.871 30.921 29.311 27.771 26.451 25.011 23.371
1167.032 21.981 20.841 19.801 19.021 18.691 18.541 18.611 18.841 19.041 19.211
1186.322 19.241 18.851 18.351 18.191 18.321 18.581 18.491 18.261 18.001 18.041
1205.611 18.571 19.081 19.341 20.011 21.241 22.591 24.031 25.481 26.891 28.531
1224.901 30.291 31.651 32.511 33.431 34.421 34.851 34.801 35.071 35.301 35.091
1244.191 35.171 35.541 35.771 36.121 37.291 39.251 41.581 44.271 47.381 50.631
1263.481 53.951 56.911 59.441 61.801 63.081 63.621 63.241 61.571 59.391 56.411
1282.771 52.591 48.421 44.201 40.171 36.301 32.711 29.591 26.821 24.441 22.461
1302.060 20.671 19.111 17.771 16.561 15.461 14.501 13.621 12.821 12.271 11.761
1321.350 11.291 10.951 10.751 10.631 10.531 10.481 10.421 10.471 10.531 10.491
1340.640 10.441 10.391 10.251 10.091 9.971 9.861 9.881 10.011 10.141 10.321
1359.930 10.521 10.731 11.061 11.371 11.611 11.921 12.211 12.381 12.501 12.521
1379.219 12.491 12.331 11.961 11.561 11.101 10.591 10.191 9.891 9.671 9.631
1398.509 9.781 10.191 10.811 11.581 12.551 13.641 14.681 15.561 16.211 16.541
1417.799 16.511 16.141 15.491 14.641 13.861 13.241 12.781 12.571 12.661 13.031
1437.089 13.561 14.091 14.591 14.971 15.211 15.401 15.581 15.751 15.951 16.201
1456.378 16.391 16.541 16.601 16.621 16.701 16.641 16.431 16.161 15.571 14.791
1475.668 14.081 13.401 12.861 12.701 12.891 13.411 14.391 15.881 17.911 20.621
1494.958 24.131 28.591 34.061 40.351 47.041 53.641 59.441 63.471 64.911 63.531
1514.248 59.521 53.341 45.941 38.381 31.211 25.041 20.161 16.441 13.601 11.431
1533.538 9.761 8.571 7.771 7.071 6.401 5.891 5.591 5.341 5.041 4.871
1552.827 4.811 4.751 4.781 4.871 4.961 5.201 5.461 5.771 6.211 6.761
1572.117 7.241 7.681 8.291 8.731 8.911 9.081 9.181 9.001 8.751 8.511
1591.407 8.181 7.891 7.571 7.351 7.301 7.191 7.091 6.951 6.831 6.711
1610.697 6.431 6.021 5.601 5.121 4.621 4.161 3.711 3.361 3.051 2.771
1629.986 2.511 2.361 2.241 2.071 2.041 1.981 1.861 1.901 1.911 1.781
1649.276 1.711 1.731 1.751 1.721 1.711 1.741 1.711 1.681 1.681 1.721
1668.566 1.791 1.851 1.811 1.861 1.911 1.921 2.011 2.061 2.111 2.221
1687.856 2.321 2.381 2.481 2.591 2.741 2.931 3.131 3.301 3.441 3.681
1707.146 3.981 4.261 4.611 4.981 5.431 5.921 6.401 6.951 7.581 8.251
1726.435 8.911 9.671 10.491 11.191 11.901 12.711 13.571 14.491 15.501 16.561
1745.725 17.641 18.871 20.271 21.741 23.381 25.251 27.361 29.821 32.631 35.851
1765.015 39.481 43.381 47.421 51.331 54.861 57.581 59.121 59.361 58.081 55.381
1784.305 51.591 47.001 42.251 37.771 33.631 29.991 26.861 24.191 21.931 19.871
1803.594 18.001 16.321 14.741 13.341 12.051 10.801 9.711 8.661 7.671 6.871
1822.884 6.211 5.601 4.991 4.511 4.161 3.801 3.511 3.271 3.071 2.911
1842.174 2.731 2.591 2.411 2.291 2.211 2.091 2.051 2.041 1.921 1.871
1861.464 1.911 1.891 1.841 1.731 1.641 1.621 1.561 1.471 1.451 1.401
1880.754 1.421 1.471 1.411 1.371 1.341 1.331 1.291 1.281 1.281 1.2441
1900.043 1.2167 1.197 1.1878 1.2252 1.2367 1.1641 1.1708 1.1623 1.1441 1.1678
1919.333 1.1032 1.0584 1.0921 1.1175 1.1228 1.079 1.0486 1.0393 1.0468 1.0336
1938.623 1.0154 0.9623 0.9376 1.0031 1.0052 0.9535 0.9272 0.9814 1.034 1.0026
1957.913 1.0013 1.0031 1.008 1.0314 1.0195 1.0619 1.0547 1.0176 1.046 1.0861
1977.202 1.1152 1.185 1.2055 1.1863 1.2381 1.2703 1.291 1.301 1.291 1.321
1996.492 1.391 1.421 1.441 1.491 1.531 1.511 1.521 1.591 1.671 1.661
2015.782 1.651 1.731 1.761 1.801 1.851 1.871 1.821 1.801 1.881 1.881
2035.072 1.831 1.781 1.771 1.801 1.711 1.661 1.661 1.581 1.531 1.501
2054.362 1.471 1.461 1.401 1.361 1.411 1.431 1.411 1.371 1.2544 1.2288
2073.651 1.271 1.2593 1.2164 1.151 1.0816 1.0753 1.023 0.9189 0.8541 0.8614
2092.941 0.8421 0.806 0.7987 0.7609 0.7031 0.6236 0.6356 0.6958 0.7064 0.6872
2112.231 0.6666 0.7253 0.7589 0.7281 0.6942 0.6656 0.6898 0.7856 0.7812 0.7095
2131.521 0.6903 0.6976 0.6848 0.6421 0.6961 0.741 0.7574 0.7343 0.6521 0.6206
2150.810 0.6646 0.7692 0.802 0.7759 0.709 0.7455 0.7916 0.7174 0.7345 0.7692
2170.100 0.7853 0.8234 0.8437 0.8005 0.7529 0.7615 0.7581 0.7158 0.6708 0.6668
2189.390 0.6538 0.684 0.7382 0.7572 0.7822 0.7649 0.7525 0.7871 0.7933 0.7806
2208.680 0.7593 0.7338 0.7364 0.7193 0.7525 0.7472 0.737 0.7399 0.7591 0.7228
2227.970 0.685 0.8122 0.8533 0.8291 0.8553 0.8072 0.7404 0.7366 0.7433 0.7375
2247.259 0.7364 0.7881 0.7964 0.8631 0.8902 0.7923 0.7818 0.8145 0.8492 0.8422
2266.549 0.7932 0.8414 0.9158 0.8946 0.8584 0.8005 0.8015 0.8378 0.8001 0.7674
2285.839 0.7332 0.7301 0.7548 0.6886 0.6695 0.7313 0.7403 0.7327 0.6764 0.6057
2305.129 0.6424 0.7011 0.6882 0.6526 0.5777 0.525 0.5465 0.5461 0.5214 0.543
2324.418 0.6178 0.6428 0.555 0.5439 0.602 0.61 0.5905 0.5913 0.5693 0.5559
2343.708 0.5985 0.5402 0.5593 0.6425 0.6154 0.4991 0.4214 0.4612 0.4671 0.5057
2362.998 0.5162 0.5233 0.5268 0.521 0.5707 0.5305 0.4721 0.4669 0.546 0.5956
2382.288 0.6097 0.6428 0.6278 0.5775 0.5556 0.5212 0.5066 0.5461 0.5617 0.5892
2401.578 0.5093 0.4306 0.4437 0.5239 0.581 0.601 0.5894 0.5376 0.6052 0.66
2420.867 0.5991 0.5381 0.5596 0.5874 0.6031 0.6316 0.6184 0.6097 0.5581 0.5183
2440.157 0.5322 0.5859 0.5594 0.619 0.66 0.5406 0.5773 0.5742 0.5146 0.5114
2459.447 0.5957 0.5837 0.63 0.7259 0.6784 0.6936 0.6364 0.597 0.5946 0.5588
2478.737 0.5774 0.6004 0.7211 0.7624 0.7672 0.7588 0.6232 0.6629 0.7635 0.7593
2498.026 0.7571 0.7247 0.6457 0.6645 0.7233 0.6705 0.6098 0.5722 0.5676 0.6169
2517.316 0.6443 0.6658 0.6973 0.7473 0.7688 0.7156 0.6698 0.6719 0.7193 0.798
2536.606 0.8692 0.8809 0.8592 0.8833 0.9163 0.9158 0.8553 0.8036 0.8385 0.9058
2555.896 0.8454 0.8965 0.9606 0.8926 0.8786 0.838 0.8833 0.9546 0.964 0.8888
2575.186 0.8675 0.8742 0.8206 0.8411 0.8596 0.7861 0.8552 0.8916 0.8377 0.8523
2594.475 0.8584 0.7922 0.7183 0.7594 0.7294 0.71 0.6847 0.7019 0.7437 0.6634
2613.765 0.7091 0.7768 0.6198 0.5705 0.6649 0.6863 0.7153 0.6591 0.6229 0.6356
2633.055 0.651 0.5533 0.5444 0.7063 0.6723 0.6229 0.6262 0.6164 0.5984 0.6164
2652.345 0.6345 0.5552 0.5162 0.5516 0.4524 0.5328 0.738 0.6299 0.5552 0.6047
2671.634 0.6214 0.6309 0.6432 0.6147 0.5773 0.5432 0.5253 0.608 0.6835 0.572
2690.924 0.5008 0.5611 0.5119 0.4673 0.5677 0.5835 0.5437 0.5965 0.5357 0.4599
2710.214 0.4904 0.4867 0.4059 0.4303 0.5898 0.6297 0.6127 0.6126 0.5943 0.6316
2729.504 0.677 0.6189 0.5306 0.5851 0.6521 0.6937 0.6534 0.6689 0.7891 0.8301
2748.794 0.8246 0.7343 0.6448 0.7024 0.763 0.7737 0.8344 0.8874 0.9028 0.918
2768.083 0.9694 1.0628 0.9643 0.9194 1.123 1.1505 1.1205 1.281 1.431 1.421
2787.373 1.401 1.471 1.481 1.471 1.501 1.621 1.801 1.891 1.921 2.081
2806.663 2.381 2.591 2.791 2.911 3.191 3.631 4.031 4.471 4.821 5.271
2825.953 5.881 6.641 7.671 8.831 9.871 10.961 12.061 12.781 13.131 13.091
2845.242 12.631 11.941 11.161 10.331 9.511 8.851 8.441 8.111 7.911 7.711
2864.532 7.581 7.561 7.611 7.751 7.771 7.771 7.771 7.731 7.801 7.751
2883.822 7.621 7.621 7.691 7.791 7.931 8.021 8.341 8.821 9.071 9.321
2903.112 9.661 10.091 10.691 11.231 11.741 12.481 13.181 13.831 14.511 15.111
2922.401 15.731 16.461 17.301 18.401 19.611 20.861 22.261 23.701 24.941 25.801
2941.691 26.251 26.381 26.231 25.761 24.911 24.001 23.181 22.251 21.351 20.511
2960.981 19.731 18.921 17.971 17.001 16.281 15.621 14.821 14.091 13.511 13.081
2980.271 12.641 12.411 12.401 12.321 12.401 12.751 13.221 13.841 14.491 15.121
2999.561 15.911 16.511 16.651 16.461 15.931 14.931 13.601 12.191 10.761 9.521
3018.850 8.621 7.981 7.551 7.261 7.151 7.151 7.181 7.261 7.321 7.261
3038.140 7.201 7.151 6.941 6.741 6.681 6.571 6.321 6.281 6.201 5.901
3057.430 5.701 5.631 5.491 5.131 4.781 4.571 4.361 4.151 3.991 3.771
3076.720 3.551 3.421 3.251 3.151 2.941 2.811 2.721 2.561 2.451 2.181
3096.009 2.051 2.111 2.101 2.001 1.831 1.801 1.871 1.811 1.641 1.501
3115.299 1.491 1.451 1.321 1.2525 1.2208 1.0704 1.1407 1.321 1.256 1.03
3134.589 0.8047 0.8849 1.0121 0.9903 0.9432 0.9115 0.9558 0.9249 0.7782 0.625
3153.879 0.5813 0.6905 0.6746 0.6353 0.6329 0.634 0.5943 0.5096 0.4443 0.4866
3173.169 0.6095 0.6998 0.6401 0.5625 0.5536 0.529 0.4467 0.3683 0.4239 0.4346
3192.458 0.5292 0.4948 0.4907 0.5711 0.5423 0.4579 0.3247 0.311 0.262 0.32338
3211.748 0.35842 0.2377 0.2547 0.35765 0.4133 0.3745 0.36059 0.273999 0.1832 0.2598
3231.038 0.31671 0.2539 0.2001 0.158 0.147 0.093 0.187 0.28426 0.2338 0.4334
3250.328 0.4826 0.279157 0.157 0.1815 0.31595 0.30665 0.232 0.2387 0.29971 0.4158
3269.617 0.3821 0.2212 0.1851 0.1843 0.142 0.125 0.23 0.29195 0.2304 0.134
3288.907 0.1 0.2279 0.29747 0.26739 0.2395 0.106 0.002 0.142 0.2159 0.1863
3308.197 0.1843 0.152 0.124 0.04 0.059 0.229 0.30874 0.3014 0.29927 0.2222
3327.487 0.123 0.164 0.2262 0.26984 0.1927 0.121 0.095 0.104 0.1842 0.26361
3346.777 0.29641 0.271524 0.33894 0.31496 0.2576 0.2037 0.062 0.101 0.2521 0.32687
3366.066 0.280962 0.28479 0.4631 0.3837 0.2309 0.2596 0.2574 0.28655 0.2396 0.025
3385.356 0.094 0.30742 0.270972 0.2411 0.14 0.2127 0.34812 0.31866 0.29166 0.1876
3404.646 0.157 0.151 0.133 0.115 0.078 0.157 0.32341 0.28721 0.26211 0.31671
3423.936 0.14 0.151 0.30507 0.277903 0.1901 0.092 0.196 0.4596 0.3748 0.174
3443.225 0.154 0.108 0.116 0.199 0.273378 0.3809 0.4081 0.31423 0.1924 0.2117
3462.515 0.4748 0.5194 0.5306 0.5552 0.4563 0.4478 0.467 0.5177 0.5431 0.4527
3481.805 0.36306 0.36196 0.36695 0.4853 0.555 0.5255 0.5223 0.5112 0.5965 0.6267
3501.095 0.4972 0.6079 0.784 0.8794 0.8973 0.7877 0.8148 0.7711 0.8565 1.0203
3520.385 0.988 0.9325 0.914 1.0637 1.2653 1.311 1.341 1.391 1.361 1.361
3539.674 1.501 1.501 1.541 1.881 2.331 2.511 2.531 2.891 3.431 4.051
3558.964 4.841 5.771 7.291 9.781 13.311 18.111 23.181 26.501 27.501 26.831
3578.254 24.471 20.151 14.771 10.261 7.421 5.651 4.411 3.621 3.031 2.491
3597.544 2.191 1.981 1.721 1.501 1.411 1.371 1.2244 1.0846 1.0534 0.8658
3616.833 0.6933 0.7653 0.7629 0.7038 0.7214 0.6133 0.4504 0.572 0.6291 0.5978
3636.123 0.4986 0.4005 0.3905 0.374 0.4044 0.4487 0.4847 0.5221 0.6117 0.5527
3655.413 0.35611 0.35329 0.4242 0.2539 0.1776 0.29836 0.275049 0.126 0.2146 0.32431
3674.703 0.31459 0.4723 0.4979 0.32842 0.246 0.30936 0.30414 0.31974 0.274706 0.2245
3693.993 0.2584 0.147 0.171 0.2298 0.2553 0.35628 0.3949 0.4302 0.4497 0.3884
3713.282 0.4062 0.36824 0.2214 0.2217 0.1899 0.138 0.164 0.151 0.1835 0.33606
3732.572 0.361 0.34747 0.4996 0.4732 0.1938 0 0.059 0.105 0.171 0.1
3751.862 0.042 0.279257 0.36123 0.30644 0.3838 0.30419 0.071 0.017 0.07 0.158
3771.152 0.1881 0.1718 0.28348 0.30651 0.2476 0.26529 0.30506 0.33298 0.146 0.043
3790.441 0.2093 0.29924 0.29927 0.29392 0.28762 0.33245 0.3979 0.4015 0.34659 0.2944
3809.731 0.27072 0.2339 0.2561 0.197 0.1843 0.1744 0.007 0.068 0.31401 0.208
3829.021 0.02 0.147 0.2466 0.225 0.17 0.3163 0.2146 0.2355 0.4237 0.32937
3848.311 0.4041 0.4106 0.3961 0.5066 0.4654 0.5014 0.5441 0.4399 0.3921 0.377
3867.601 0.3723 0.35153 0.3461 0.27687 0.33311 0.3771 0.26708 0.3114 0.3133 0.3852
3886.890 0.4631 0.4114 0.3833 0.33526 0.277711 0.29766 0.3734 0.31516 0.1945 0.2262
3906.180 0.34047 0.31866 0.4061 0.33962 0.193 0.3957 0.5117 0.5561 0.6308 0.5229
3925.470 0.4418 0.276746 0.101 0.35747 0.5077 0.507 0.5388 0.4618 0.5697 0.7132
3944.760 0.7325 0.6866 0.4577 0.3922 0.5004 0.5032 0.3725 0.3878 0.4173 0.407
3964.049 0.3939 0.35699 0.4891 0.472 0.2918 0.1911 0.29796 0.4068 0.4121 0.32197
3983.339 0.2553 0.3926 0.4501 0.4868 0.4898 0.4069 0.59 0.762 0.6882 0.5175
##END=
