##TITLE=3-Methyl-3-nonanol
##JCAMP-DX=4.24
##DATA TYPE=INFRARED SPECTRUM
##ORIGIN=NIST Mass Spectrometry Data Center
##OWNER=NIST Standard Reference Data Program
Collection (C) 2018 copyright by the U.S. Secretary of Commerce
on behalf of the United States of America. All rights reserved.
##CAS REGISTRY NO=21078-72-8
##MOLFORM=C 10 H 22 O
##$NIST SOURCE=MSDC-IR
##SPECTROMETER/DATA SYSTEM=HP-GC/MS/IRD
##STATE=gas
##XUNITS=1/CM
##YUNITS=ABSORBANCE
##XFACTOR=1.0
##YFACTOR=0.000003900
##DELTAX=4.0
##FIRSTX=550.0
##LASTX=3846.0
##FIRSTY=0.000183
##MAXX=3846
##MINX=550
##MAXY=0.039
##MINY=0
##NPOINTS=825
##XYDATA=(X++(Y..Y))
550.0 47 61 72 71 60 52 61 48 30 43
590.0 49 51 49 49 47 44 50 49 39 36
630.0 33 24 32 29 12 10 18 30 35 41
670.0 44 47 57 60 62 65 70 81 87 98
710.0 128 146 152 180 203 208 207 201 193 186
750.0 173 158 150 139 134 136 139 142 145 148
790.0 156 152 129 110 105 111 104 91 75 79
830.0 103 113 119 125 147 168 181 202 231 267
870.0 310 359 398 433 474 527 585 646 713 771
910.0 820 856 866 843 796 736 652 562 502 450
950.0 415 414 429 456 489 526 553 570 576 565
990.0 558 558 557 550 539 533 525 515 509 505
1030.0 515 537 547 547 535 506 485 456 431 436
1070.0 456 472 488 526 555 572 597 626 650 657
1110.0 668 698 745 812 882 945 1000 1064 1117 1156
1150.0 1193 1203 1175 1111 1026 956 896 854 833 828
1190.0 829 826 813 783 744 716 697 671 647 641
1230.0 635 630 633 629 639 654 671 686 694 694
1270.0 702 700 691 687 688 691 689 682 673 662
1310.0 656 649 641 643 653 671 694 720 740 761
1350.0 785 804 851 932 1039 1176 1322 1413 1397 1265
1390.0 1052 822 644 522 453 404 383 388 388 402
1430.0 446 518 607 710 860 1027 1212 1364 1418 1384
1470.0 1266 1061 824 622 482 386 316 267 233 233
1510.0 210 176 172 164 139 125 118 129 134 105
1550.0 90 100 122 103 77 76 81 77 60 58
1590.0 59 58 53 49 47 45 58 69 60 51
1630.0 51 60 57 53 62 74 78 54 44 41
1670.0 42 42 36 51 54 36 46 61 51 28
1710.0 17 32 42 24 9 21 36 27 13 11
1750.0 17 12 9 7 6 15 12 5 11 11
1790.0 15 19 16 15 12 12 13 13 16 19
1830.0 15 10 9 14 16 12 10 9 9 15
1870.0 16 12 7 3 5 7 6 3 0 0
1910.0 3 9 9 7 4 2 8 9 7 6
1950.0 3 4 4 4 6 7 9 8 5 6
1990.0 7 7 6 5 2 4 4 7 9 9
2030.0 11 14 17 18 20 18 18 17 13 12
2070.0 13 13 15 17 17 15 12 7 9 12
2110.0 9 8 9 9 10 11 9 10 9 7
2150.0 10 13 11 9 8 9 11 12 12 11
2190.0 12 13 14 17 16 11 9 10 10 12
2230.0 14 14 15 13 13 16 20 20 20 19
2270.0 18 18 16 16 17 16 16 18 18 20
2310.0 22 23 27 33 38 41 44 40 38 36
2350.0 36 46 51 52 53 50 44 36 34 32
2390.0 31 29 24 24 28 29 27 29 29 23
2430.0 24 26 27 28 23 27 22 17 20 19
2470.0 20 22 23 21 22 24 26 29 26 24
2510.0 27 27 29 32 31 29 29 30 31 35
2550.0 40 42 43 44 45 42 45 49 51 55
2590.0 55 56 60 66 68 70 70 68 73 73
2630.0 76 79 76 81 82 88 104 108 103 107
2670.0 108 110 116 114 113 111 110 114 118 121
2710.0 121 126 138 141 143 155 169 182 188 191
2750.0 195 193 193 198 201 206 215 231 249 262
2790.0 284 310 335 368 396 432 476 526 587 662
2830.0 755 874 1037 1255 1555 1964 2442 2919 3311 3559
2870.0 3661 3682 3704 3730 3742 3721 3697 3760 3949 4290
2910.0 4798 5465 6301 7280 8310 9225 9834 10000 9679 8961
2950.0 8084 7374 7085 7281 7730 7990 7723 6869 5676 4452
2990.0 3379 2518 1878 1438 1141 943 803 700 623 564
3030.0 511 466 423 385 357 335 319 311 299 285
3070.0 277 271 263 249 240 234 218 208 198 185
3110.0 175 168 155 150 149 138 128 118 112 112
3150.0 117 115 109 108 107 104 101 101 100 96
3190.0 92 87 79 72 67 66 65 61 55 52
3230.0 54 48 41 38 32 31 31 27 30 31
3270.0 28 28 32 28 29 25 24 27 23 22
3310.0 25 22 23 23 21 20 15 14 17 22
3350.0 22 23 27 26 26 28 29 30 30 28
3390.0 30 33 34 31 37 38 33 29 26 25
3430.0 21 19 22 28 33 30 25 26 24 23
3470.0 20 30 32 22 16 17 17 17 17 12
3510.0 9 14 15 17 22 17 14 12 13 22
3550.0 21 17 15 18 24 20 11 12 12 22
3590.0 30 30 37 47 56 66 75 105 145 214
3630.0 289 348 404 424 403 329 241 172 118 94
3670.0 91 82 64 48 51 47 25 29 31 26
3710.0 34 31 24 35 36 33 46 41 46 60
3750.0 59 42 26 26 31 34 24 20 20 18
3790.0 16 23 40 41 33 29 31 43 47 41
3830.0 35 42 49 43 32
##END=
