##TITLE=3,4'-Bis(trifluoromethyl)benzophenone
##JCAMP-DX=4.24
##DATA TYPE=INFRARED SPECTRUM
##ORIGIN=EPA-IR VAPOR PHASE LIBRARY
##OWNER=SRD/NIST
Collection (C) 2018 copyright by the U.S. Secretary of Commerce
on behalf of the United States of America. All rights reserved.
##CAS REGISTRY NO=21084-22-0
##MOLFORM=C 15 H 8 F 6 O
##$NIST SOURCE=MSDC-IR
##STATE=gas
##XUNITS=1/CM
##YUNITS=ABSORBANCE
##XFACTOR=1.
##YFACTOR=0.001
##DELTAX=1.92898
##FIRSTX=549.8
##LASTX=4000.7
##FIRSTY=1.7291
##MAXX=4000.7
##MINX=549.759
##MAXY=0.21437
##MINY=0
##NPOINTS=1790
##XYDATA=(X++(Y..Y))
549.759 1.7291 1.4771 1.6391 1.9209 2.5 3.01 2.0512 1.12023 1.1744 1.6886
569.049 1.5719 1.13442 1.4082 2.28 3.52 2.69 2.84 3.69 3.65 3.92
588.339 3.47 2.74 2.64 2.99 3.51 3.82 3.16 2.79 2.65 2.82
607.628 3.35 3.75 4.3 4.25 4.14 4.9 6.02 7.22 7.75 7.94
626.918 7.51 6.87 6.23 5.43 4.82 4.89 5.3 5.03 4.7 5.01
646.208 6.22 7.14 7.02 7.17 7.58 7.62 7.26 6.75 6.81 7.2
665.498 7.93 10.38 12.95 13.92 14.42 14.67 13.96 12.59 10.77 8.99
684.787 8.02 6.93 7.01 8.21 8.95 10.8 12.59 13.13 13.25 12.96
704.077 12.72 12.32 12.88 13.73 14.78 17.21 19.7 22.06 23.96 23.55
723.367 20.77 17.22 13.05 9.4 7.45 6.89 6.07 5.07 4.77 4.22
742.657 3.91 4.06 4.28 4.57 4.64 4.84 5.03 5.87 7.61 9.79
761.947 12.37 14.63 17.03 19.58 20.54 19.2 16.27 12.71 9.26 6.54
781.236 5.49 4.82 4.98 6.25 6.42 6.92 7.9 7.55 6.92 7.37
800.526 8.03 8.35 8.6 8.99 9.68 10.29 10.85 10.63 9.86 9.03
819.816 7.58 6.36 5.52 4.6 5.09 5.1 4.54 4.51 4.41 4.84
839.106 5.99 7.23 8.29 9.49 11.21 14.35 17.28 18.13 18.02 16.94
858.395 14.23 11.38 8.7 6.87 5.52 4.19 3.63 3.27 3.27 3.34
877.685 3.23 3.65 3.84 3.61 3.36 3.1 3.04 3.27 3.74 3.97
896.975 4.09 3.94 4.21 4.66 5.02 5.68 5.62 6.36 7.9 8.11
916.265 7.85 7.69 7.23 6.76 6.5 6.74 6.61 6.55 6.75 6.2
935.555 6.86 8.7 10.24 12.22 14.71 16.62 17.3 16.76 15.72 14.64
954.844 13.21 12.6 12.28 11.13 10.48 9.95 8.93 8.02 6.93 6.22
974.134 5.94 5.52 4.97 4.04 3.21 3.14 3.45 4.12 4.02 3.59
993.424 3.68 3.84 3.74 3.41 3.33 3.76 4.72 5.35 5.83 7.3
1012.714 10.93 15.92 20.41 21.95 20.56 16.24 10.71 7.15 6.39 5.03
1032.003 3.78 4.7 5 5.05 4.58 4.82 5.11 5.39 7.2 9.58
1051.293 11.48 13.53 16 20.1 27.69 38.18 52.3 67.54 78.73 83.76
1070.583 80.55 69.24 55.62 45.77 39.02 33.35 28.59 25.34 23.99 24.42
1089.873 23.19 20.07 19.24 19.35 19.06 19.39 19.12 19.39 22.91 23.77
1109.163 23.19 25.16 25.81 25.26 24.85 25.14 26.6 28.73 31.35 35.85
1128.452 40.88 46.89 54.23 63.83 76.73 92.44 110.96 133.27 158.49 184.32
1147.742 204.52 214.36 214.37 201.35 181.15 159.94 140.25 124.12 113.01 109.17
1167.032 110.5 115.88 123.9 131.59 136.83 138.58 137.88 133.15 124.32 111.95
1186.322 96.29 81 67.35 56.14 45.98 38.04 33.04 28.05 25.34 23.04
1205.611 20.45 19.15 19.18 19.26 19.86 20.9 21.65 22.66 24.97 27.35
1224.901 30.1 33.65 36.63 41.3 44.56 47.31 51.23 53.98 57.73 63.02
1244.191 70.08 79.84 89.79 97.43 102.55 105.12 103.92 100.02 95.07 89.22
1263.481 80.86 71.38 62.91 54.37 46.19 39.53 34.96 32.43 30.82 29.82
1282.771 29.82 30.51 31.6 33.05 35.36 37.53 38.7 39.2 39.45 40.22
1302.060 41.82 44.73 49.89 57.74 68.06 80.83 96.23 114.33 135.91 160.14
1321.350 183.53 200.32 205.42 197.94 181.67 162.4 144.27 127.4 109.27 89.68
1340.640 70.47 53.31 39.51 29.75 23.5 19.37 16.5 14.47 13.07 12.03
1359.930 10.93 10.01 9.32 8.71 8.11 7.53 7.05 6.6 6.29 6.06
1379.219 5.8 5.74 5.6 5.39 5.55 5.69 6.12 6.77 7.27 8.35
1398.509 9.66 10.93 12.43 13.66 14.46 14.6 13.8 12.57 11 9.4
1417.799 8.18 7.47 7.2 7.15 7.41 7.78 8.11 8.38 8.34 8.03
1437.089 7.56 6.69 5.67 5.01 4.65 4.41 4.24 3.83 3.35 3.17
1456.378 3.1 3.07 2.86 2.76 2.84 2.84 2.77 2.66 2.74 2.9
1475.668 2.88 2.72 2.73 2.89 3.09 3.04 2.84 2.84 2.9 3.01
1494.958 2.99 2.83 2.93 3.47 4.2 5.15 6.28 7.08 7.3 7.04
1514.248 6.4 5.63 4.71 3.98 3.72 3.49 3.32 3.22 3.18 3.17
1533.538 3.15 3.17 3.05 2.82 2.61 2.45 2.56 2.64 2.44 2.19
1552.827 2.32 2.59 2.82 2.94 2.59 2.79 3.26 3.39 3.82 4.02
1572.117 4.37 4.74 4.65 4.67 4.81 4.85 4.81 4.73 5.04 5.33
1591.407 4.93 5.37 6.02 5.9 5.98 6.26 6.63 7.11 7.49 7.99
1610.697 8.36 8.12 7.5 6.8 6.13 5.38 4.94 4.95 4.61 4.36
1629.986 4.11 3.74 3.78 3.8 3.7 3.9 4.37 4.43 4.43 4.79
1649.276 5.09 5.46 5.56 5.37 5.42 5.66 5.97 6.39 7.01 7.47
1668.566 8.26 9.32 10.75 13.25 16.94 21.98 29.15 37.6 46.16 53.05
1687.856 56.5 55.96 51.27 44.54 36.73 29.57 23.98 19.07 15.6 12.86
1707.146 10.72 9.2 8.21 7.46 7.14 7.07 6.92 6.58 6.19 6
1726.435 5.88 5.5 4.88 4.41 4.16 3.92 3.9 3.83 3.71 3.6
1745.725 3.32 3.19 3.08 2.99 2.91 2.87 3.03 2.93 2.69 2.47
1765.015 2.4 2.51 2.54 2.35 2.0077 1.9501 2.0442 1.9711 2.082 2.23
1784.305 2.26 2.16 2.0694 2.18 2.27 2.39 2.48 2.64 2.8 2.9
1803.594 3.04 3.16 3.1 3.02 2.95 2.88 2.8 2.52 2.26 2.21
1822.884 2.2 2.1177 2.15 2.17 2.14 2.0699 1.9494 1.8953 1.6263 1.52
1842.174 1.7453 1.7627 1.7065 1.8585 1.8733 1.7459 1.7619 1.6657 1.6262 1.6493
1861.464 1.6409 1.5974 1.722 2.017 1.9184 1.7074 1.8254 1.6582 1.3961 1.474
1880.754 1.5518 1.5065 1.4885 1.5433 1.6501 1.8379 1.9531 2.0393 2.2 2.23
1900.043 2.14 2.2 2.32 2.34 2.28 2.22 2.45 2.46 2.29 2.39
1919.333 2.53 2.48 2.44 2.58 2.51 2.4 2.18 1.9185 2.0911 2.35
1938.623 2.26 2.21 1.9604 1.8259 1.9489 1.8216 1.771 1.9588 1.9496 1.8423
1957.913 1.8569 1.6869 1.6458 1.6806 1.6608 1.6811 1.6462 1.4917 1.4023 1.4426
1977.202 1.5272 1.5531 1.4479 1.4179 1.4969 1.4931 1.4592 1.2856 1.13989 1.19649
1996.492 1.20853 1.2206 1.2298 1.0827 0.862 1.0433 1.3159 1.18948 1.11182 1.17647
2015.782 1.044 0.977 0.99 0.923 1.0224 0.996 0.883 0.946 1.0748 1.0312
2035.072 1.01 1.2247 1.16658 1.003 0.847 0.863 1.1011 1.17697 1.0392 0.964
2054.362 0.968 1.15233 1.1636 0.903 1.0524 1.13001 1.0747 1.289 1.18087 1.0339
2073.651 1.2495 1.15638 1.11034 1.20894 1.1028 1.0536 1.20066 1.3062 1.20668 1.3361
2092.941 1.3439 1.3179 1.482 1.6692 1.6765 1.4234 1.2633 1.2676 1.16272 1.11306
2112.231 1.16645 1.0503 1.1012 1.016 1.0861 1.3315 1.3016 1.3692 1.19703 0.955
2131.521 0.899 0.979 1.12065 0.932 1.005 1.2271 1.2546 1.21317 0.97 0.894
2150.810 1.007 1.0651 1.12033 1.0591 0.81 0.707 0.938 0.963 0.899 0.901
2170.100 0.972 1.0377 0.995 0.907 0.856 0.934 0.878 0.892 0.903 0.966
2189.390 1.12533 1.079 1.0742 1.3626 1.2231 0.888 0.979 1.14375 1.166 0.985
2208.680 1.2312 1.5358 1.2297 1.16263 1.5288 1.534 1.2303 1.3993 1.6791 1.656
2227.970 1.526 1.4005 1.2913 1.18303 1.2696 1.14984 1.1089 1.2481 1.21299 1.3183
2247.259 1.3598 1.2613 1.3888 1.4392 1.3715 1.318 1.3196 1.4418 1.5304 1.5518
2266.549 1.4561 1.5145 1.6273 1.2582 1.2472 1.6348 1.7091 1.9438 1.9281 1.7261
2285.839 1.7488 1.8921 1.8745 1.7694 1.6189 1.5058 1.6078 1.6502 1.4166 1.4005
2305.129 1.6008 1.6638 1.6878 1.5392 1.4357 1.4389 1.3368 1.0862 1.0411 1.1835
2324.418 1.2932 1.2821 1.3126 1.418 1.315 1.16 1.2835 1.3551 1.2644 1.3346
2343.708 1.3902 1.544 1.725 1.7916 1.5408 1.3283 1.4261 1.19727 1.12537 1.3964
2362.998 1.4811 1.4126 1.4783 1.7214 1.4352 1.1234 1.4286 1.3685 1.0433 1.022
2382.288 0.976 0.978 1.15106 1.4015 1.5252 1.3822 1.4319 1.5539 1.5084 1.5729
2401.578 1.5459 1.3521 1.266 1.18116 1.2702 1.15872 0.938 1.0916 1.2302 1.1028
2420.867 1.056 1.17551 1.16578 1.14601 1.002 1.003 0.958 0.824 0.793 0.949
2440.157 1.1053 1.0532 1.0791 0.965 0.823 0.591 0.706 0.964 1.1037 1.005
2459.447 0.836 0.93 0.983 1.13486 0.975 0.691 0.847 0.96 0.995 1.18377
2478.737 1.2456 1.3679 1.20128 0.826 0.83 0.949 0.92 0.864 0.969 0.958
2498.026 0.803 0.838 1.0725 1.12974 1.18028 1.2573 1.0404 0.789 0.919 1.13372
2517.316 1.0614 0.895 0.844 1.0257 1.1074 1.0745 1.12776 1.0522 0.713 0.665
2536.606 1.15939 1.18117 0.928 0.953 0.914 0.892 0.995 1.1495 0.944 0.796
2555.896 0.836 0.781 0.703 0.853 0.987 0.994 0.86 0.687 0.907 0.987
2575.186 0.987 1.0297 1.0315 1.0426 1.0458 1.16276 1.14734 0.771 0.716 1.017
2594.475 1.0888 1.2712 1.2091 0.982 0.973 0.967 0.844 0.838 0.854 0.885
2613.765 0.987 0.896 1.1052 1.2953 0.893 0.827 0.926 0.945 0.973 0.872
2633.055 1.0707 1.2116 1.11765 1.016 1.001 1.17355 1.3107 1.16588 1.0873 0.927
2652.345 0.971 1.11736 0.728 0.411 0.454 0.671 0.798 0.818 0.863 0.794
2671.634 0.711 0.677 0.725 0.913 0.935 0.722 0.863 0.915 0.679 0.481
2690.924 0.543 0.71 0.78 0.792 0.518 0.406 0.589 0.69 0.427 0.602
2710.214 1.0482 1.0558 0.969 1.0822 1.4391 1.3719 1.0511 0.89 0.836 0.762
2729.504 0.982 1.17978 0.755 0.648 0.931 0.796 0.693 1.2774 1.2994 0.867
2748.794 1.21415 1.2862 1.14901 1.0801 0.979 1.0295 0.897 1.0455 1.0681 1.13722
2768.083 1.0571 0.939 0.962 0.947 0.977 0.721 0.739 0.796 0.79 0.618
2787.373 0.206 0.294 0.546 0.53 0.316 0.304 0.695 0.604 0.735 0.954
2806.663 0.659 0.525 0.753 0.588 0.333 0.667 1.13414 1.1349 1.2522 1.4529
2825.953 1.13507 0.887 0.811 0.77 1.111 1.3716 0.939 0.777 0.919 1.3006
2845.242 1.5604 1.4615 1.4103 1.381 0.678 0.11 0.321 0.725 0.991 1.16605
2864.532 1.11115 0.782 0.93 1.18091 0.931 0.62 0.838 0.995 0.889 0.668
2883.822 0.674 0.809 0.655 0.714 0.414 0.213 0.443 0.65 0.943 1.2671
2903.112 1.2251 1.0433 0.85 0.579 0.703 0.703 0.685 0.912 0.98 0.768
2922.401 0.815 0.959 1.2552 1.4163 1.13694 1.337 1.5706 1.4326 1.011 1.102
2941.691 1.2248 0.817 0.79 0.832 0.886 0.796 0.767 1.2978 1.5125 1.12993
2960.981 0.859 0.626 0.806 1.16444 1.3015 1.3154 1.2243 1.3481 1.6492 1.685
2980.271 1.4385 1.274 1.20821 0.886 0.911 1.4626 1.3093 1.0945 1.2457 1.12624
2999.561 0.587 0.543 0.944 1.17514 0.99 0.45 0.77 1.0474 0.808 0.676
3018.850 0.782 0.855 0.79 1.0509 1.2594 1.2377 1.5447 2.12 1.8439 1.4505
3038.140 1.7914 2.32 2.78 2.94 2.1181 1.15936 1.6512 2.0436 2.27 2.8
3057.430 2.83 2.59 2.69 2.79 2.74 2.97 3.32 3.67 3.87 3.95
3076.720 4.63 4.72 4.59 4.89 4.31 3.54 3.29 3.24 3.23 2.94
3096.009 2.31 1.9335 1.7403 1.8708 2.42 2.28 1.9093 1.8787 1.5893 1.8525
3115.299 1.9312 1.4571 1.4834 1.6417 1.4729 1.0698 0.832 0.922 1.344 1.2562
3134.589 0.721 1.0687 1.2426 0.782 0.324 0.466 1.3531 1.7367 1.6858 1.5117
3153.879 0.661 0.663 0.974 1.0283 1.2652 0.852 0.641 0.674 0.5 0.539
3173.169 1.0289 1.3377 1.1014 1.13322 1.4996 1.2619 0.699 0.645 0.664 0.867
3192.458 1.18848 1.17013 1.5737 1.6449 1.2993 0.872 0.495 0.613 0.644 0.882
3211.748 1.2223 0.846 0.994 1.1907 1.017 1.3989 1.2596 1.21825 1.4014 1.2975
3231.038 1.1716 1.0478 1.4163 1.3541 0.921 0.863 0.976 1.0798 1.05 1.2264
3250.328 1.2922 1.556 1.5629 1.3555 1.3122 1.0556 0.691 0.633 0.838 0.848
3269.617 0.833 0.857 1.17776 1.2686 0.892 0.733 1.0254 1.5398 1.2781 1.16248
3288.907 1.4309 1.2798 1.2527 0.7 0 0.625 1.4662 0.822 0.486 1.2225
3308.197 1.6046 1.5906 1.2259 0.682 0.284 0.854 1.6426 1.4084 1.5014 1.3009
3327.487 1.17373 1.6989 1.5193 0.69 0.309 0.719 0.879 0.888 0.906 1.2292
3346.777 2.0293 2.14 1.7231 1.519 1.6938 2.0061 1.8 1.689 2.005 2.0024
3366.066 1.6242 1.6293 1.8026 1.6564 1.7332 1.8014 1.5021 1.4174 1.5629 1.1688
3385.356 1.0788 1.0579 0.958 1.334 1.2717 1.008 1.2845 1.2838 1.13572 1.2417
3404.646 0.961 1.15573 1.18942 1.2361 1.2633 1.0929 0.918 0.864 0.969 1.0629
3423.936 1.2343 1.14376 1.17664 0.95 0.982 1.2685 1.3486 1.4589 1.3096 0.996
3443.225 0.777 1.01 1.48 1.0722 0.731 0.875 0.757 0.62 0.706 1.3748
3462.515 1.77 1.8992 1.9359 1.3993 1.3974 0.986 0.649 1.0926 1.3266 1.5546
3481.805 1.16313 0.934 1.0698 1.1039 1.2867 1.21623 1.11515 1.4098 1.0802 0.514
3501.095 0.63 1.0421 1.4673 1.7471 1.3156 0.865 1.19959 1.3537 1.15346 1.032
3520.385 1.3141 0.836 0.605 0.733 0.724 1.2306 1.3184 1.0975 0.826 0.739
3539.674 0.48 1.1026 1.642 0.94 0.921 0.954 0.86 0.943 0.847 1.0322
3558.964 1.597 1.6327 0.682 0.552 0.8 1.3312 1.6962 0.854 0.877 0.977
3578.254 1.2347 1.3583 0.959 0.865 1.15968 1.5784 1.19883 1.2963 1.5083 1.4702
3597.544 1.8678 1.2977 0.208 0.267 0.526 0.761 0.924 0.919 0.803 0.708
3616.833 1.12923 1.13322 0.7 0.782 1.083 1.4726 1.4533 1.20302 1.0788 0.822
3636.123 1.1315 1.6498 1.5543 1.5363 1.698 1.4256 0.876 0.714 1.3628 1.4593
3655.413 1.3359 1.7427 1.7713 1.6021 0.952 0.775 1.4296 1.468 1.3477 1.0398
3674.703 1.1291 1.8112 1.6362 1.6048 1.4588 1.14851 1.4759 1.4337 1.4034 1.20048
3693.993 1.0495 1.5032 1.4615 1.3342 1.11415 0.805 1.18959 1.1092 0.899 0.896
3713.282 0.952 0.681 0.187 0.682 1.0471 1.12681 0.903 0.663 0.767 1.11701
3732.572 1.2277 0.95 1.016 1.4875 1.6602 1.4435 1.3558 1.0402 1.4426 1.4141
3751.862 1.096 1.19205 1.005 1.142 1.4274 1.3073 1.3952 1.6728 1.8548 2.0223
3771.152 1.5502 1.0904 1.12686 1.0918 1.2378 1.0932 1.11971 1.4852 1.16005 1.14993
3790.441 1.0971 0.959 1.14076 1.4488 1.0746 0.781 1.18348 1.033 0.813 0.706
3809.731 1.0442 1.13731 1.0488 1.3336 1.5191 1.7639 2.0267 2.0167 1.3444 1.3631
3829.021 1.2694 1.3544 1.5628 1.4572 1.8042 1.2212 0.649 1.0953 1.7956 1.5895
3848.311 1.349 1.3001 1.16424 0.73 0.595 0.985 1.0404 0.982 1.07 1.3249
3867.601 1.2788 1.2364 1.2735 1.0648 1.0658 1.3193 1.4076 1.2997 1.2959 1.0509
3886.890 0.978 1.5157 1.0753 0.688 1.15844 1.554 1.843 1.9127 1.7663 1.3783
3906.180 0.792 0.883 1.4351 1.6147 1.8092 1.9449 1.5081 1.4168 1.5063 0.471
3925.470 0.292 0.646 0.635 1.15533 1.6564 1.4309 0.952 0.768 0.548 0.551
3944.760 0.627 1.0514 0.551 0.31 1.2915 1.13669 0.703 1.0255 1.7543 1.4352
3964.049 0.966 1.3435 1.6934 1.477 0.883 1.12646 1.6888 1.9808 1.5523 1.12577
3983.339 1.17507 1.0618 1.13058 1.17156 0.96 0.863 1.13699 1.0796 1.2208 1.4442
##END=
