##TITLE=3-Bromobiphenyl
##JCAMP-DX=4.24
##DATA TYPE=INFRARED SPECTRUM
##ORIGIN=NIST Mass Spectrometry Data Center
##OWNER=NIST Standard Reference Data Program
Collection (C) 2018 copyright by the U.S. Secretary of Commerce
on behalf of the United States of America. All rights reserved.
##CAS REGISTRY NO=2113-57-7
##MOLFORM=C 12 H 9 Br
##$NIST SOURCE=MSDC-IR
##SPECTROMETER/DATA SYSTEM=HP-GC/MS/IRD
##STATE=gas
##XUNITS=1/CM
##YUNITS=ABSORBANCE
##XFACTOR=1.0
##YFACTOR=0.000001700
##DELTAX=4.0
##FIRSTX=550.0
##LASTX=3846.0
##FIRSTY=0.000456
##MAXX=3846
##MINX=550
##MAXY=0.017
##MINY=0
##NPOINTS=825
##XYDATA=(X++(Y..Y))
550.0 268 239 305 352 486 683 579 432 400 209
590.0 80 26 70 111 420 1061 1499 1341 722 313
630.0 165 173 206 233 323 576 919 1583 2985 4390
670.0 4708 3921 3193 3479 4632 6188 7401 7486 6355 4718
710.0 3244 2244 1703 1484 1429 1602 2090 2961 4608 6886
750.0 9171 10000 8516 6400 5054 4853 5494 5942 5334 3885
790.0 2546 1615 1001 609 367 225 206 203 195 209
830.0 208 167 97 93 115 115 130 153 228 385
870.0 606 877 1155 1301 1117 812 518 265 180 178
910.0 169 155 136 123 91 93 105 105 97 132
950.0 202 216 186 176 136 94 69 77 135 274
990.0 578 953 1186 1140 964 935 1017 1031 996 952
1030.0 981 1334 1934 2269 2002 1407 1078 1063 1212 1524
1070.0 1872 2199 2410 2429 2293 2079 1690 1130 661 384
1110.0 260 189 134 96 125 149 128 90 41 24
1150.0 1 0 6 21 44 109 174 228 355 375
1190.0 287 205 122 125 163 148 164 203 212 189
1230.0 198 254 287 353 458 547 576 563 592 721
1270.0 939 1133 1118 857 519 352 311 289 293 278
1310.0 266 268 262 258 284 294 289 310 272 202
1350.0 183 179 183 239 249 300 383 463 630 866
1390.0 1143 1496 1774 1894 1900 1695 1413 1156 865 670
1430.0 632 807 1089 1531 2327 3075 3417 3334 3580 5223
1470.0 7051 7034 4870 2468 1343 1011 956 1047 1067 1036
1510.0 789 588 639 699 765 1001 1360 1799 2253 2740
1550.0 3515 4509 5402 5616 5286 4857 4643 4796 5358 6201
1590.0 6563 5739 4024 2418 1470 978 733 566 411 293
1630.0 226 255 221 200 246 332 368 297 318 371
1670.0 450 501 484 553 498 274 244 292 226 147
1710.0 143 209 233 162 168 271 353 333 337 401
1750.0 475 474 476 451 401 407 384 374 418 485
1790.0 613 665 638 563 422 321 265 232 204 210
1830.0 215 186 171 243 289 308 385 479 531 533
1870.0 470 399 386 380 370 355 313 246 198 175
1910.0 178 225 282 346 419 475 515 527 511 460
1950.0 412 395 372 303 215 158 132 105 86 81
1990.0 76 78 75 68 47 43 57 54 61 79
2030.0 70 65 68 48 44 83 81 61 69 75
2070.0 70 58 66 65 43 57 58 41 27 38
2110.0 59 45 42 48 48 52 58 69 69 76
2150.0 77 81 80 59 57 63 51 57 75 69
2190.0 64 64 55 43 60 79 65 52 63 54
2230.0 51 68 63 67 77 82 82 78 76 79
2270.0 88 83 70 74 88 90 104 113 110 119
2310.0 141 186 236 243 254 278 280 291 275 221
2350.0 204 236 301 345 334 288 215 155 113 84
2390.0 85 90 90 103 104 88 85 89 91 80
2430.0 74 85 74 61 60 65 64 73 88 81
2470.0 67 52 50 60 78 64 65 85 78 80
2510.0 72 52 57 69 64 46 41 64 72 61
2550.0 79 83 70 81 88 85 82 95 103 77
2590.0 69 77 97 117 134 140 132 109 90 105
2630.0 122 121 107 95 104 82 65 70 71 61
2670.0 58 59 53 60 38 34 33 28 32 43
2710.0 85 91 69 74 82 80 81 92 93 71
2750.0 51 41 51 72 93 89 81 80 66 80
2790.0 112 92 70 64 60 75 57 51 74 85
2830.0 101 111 116 129 156 160 172 181 159 153
2870.0 160 171 141 122 131 135 146 131 129 118
2910.0 138 182 194 211 210 190 197 219 218 195
2950.0 194 227 240 213 214 222 213 223 241 257
2990.0 289 331 366 433 547 699 889 1152 1499 1954
3030.0 2478 2943 3121 2896 2504 2305 2524 3159 4163 5371
3070.0 6136 5922 4962 4007 3384 2952 2551 2092 1646 1278
3110.0 1005 808 676 546 418 329 302 274 251 235
3150.0 229 234 227 194 175 174 135 102 107 86
3190.0 96 102 71 98 116 104 129 109 97 93
3230.0 99 91 71 90 82 75 85 92 92 97
3270.0 91 70 71 79 49 16 17 60 82 62
3310.0 81 74 50 57 74 87 76 59 76 90
3350.0 68 63 61 46 46 75 77 70 53 63
3390.0 94 66 79 99 69 74 75 78 87 91
3430.0 72 56 47 82 108 92 96 96 86 101
3470.0 116 105 87 102 122 93 108 119 115 81
3510.0 62 76 106 128 87 69 80 113 143 132
3550.0 132 123 79 98 130 99 68 36 53 154
3590.0 134 65 86 111 162 171 141 148 85 127
3630.0 165 89 78 100 167 217 178 120 71 80
3670.0 154 231 211 136 182 209 169 152 123 137
3710.0 196 171 128 132 114 138 208 209 239 267
3750.0 261 211 151 166 177 148 120 152 177 153
3790.0 135 144 167 168 128 117 128 145 159 135
3830.0 132 153 199 179 107
##END=
