##TITLE=.alpha.-Bromopropiophenone
##JCAMP-DX=4.24
##DATA TYPE=INFRARED SPECTRUM
##ORIGIN=NIST Mass Spectrometry Data Center
##OWNER=NIST Standard Reference Data Program
Collection (C) 2018 copyright by the U.S. Secretary of Commerce
on behalf of the United States of America. All rights reserved.
##CAS REGISTRY NO=2114-00-3
##MOLFORM=C 9 H 9 Br O
##$NIST SOURCE=MSDC-IR
##SPECTROMETER/DATA SYSTEM=HP-GC/MS/IRD
##STATE=gas
##XUNITS=1/CM
##YUNITS=ABSORBANCE
##XFACTOR=1.0
##YFACTOR=0.000014000
##DELTAX=4.0
##FIRSTX=550.0
##LASTX=3846.0
##FIRSTY=0.006244
##MAXX=3846
##MINX=550
##MAXY=0.14
##MINY=0
##NPOINTS=825
##XYDATA=(X++(Y..Y))
550.0 446 802 674 650 578 511 438 383 350 341
590.0 366 425 487 546 584 596 593 562 521 491
630.0 509 617 876 1251 1510 1510 1274 953 777 809
670.0 997 1320 1748 2186 2502 2677 2883 3250 3661 3724
710.0 3207 2405 1643 1093 790 659 626 646 668 647
750.0 574 469 367 295 266 279 343 466 624 759
790.0 806 720 534 340 197 112 75 54 36 24
830.0 18 15 8 4 2 0 1 5 14 22
870.0 31 40 51 68 86 106 129 153 177 211
910.0 265 345 467 655 944 1389 2011 2745 3379 3668
950.0 3506 2956 2262 1693 1343 1186 1172 1247 1384 1581
990.0 1815 2011 2010 1738 1290 815 488 356 319 303
1030.0 272 235 211 221 270 351 441 538 620 674
1070.0 694 687 675 679 705 730 721 664 570 466
1110.0 367 301 273 265 268 286 315 363 449 614
1150.0 891 1307 1814 2250 2459 2449 2343 2280 2267 2244
1190.0 2186 2089 2027 2029 2094 2302 2738 3390 4104 4668
1230.0 4984 5058 4822 4270 3494 2682 2142 1928 1830 1686
1270.0 1447 1163 936 821 803 835 894 964 1041 1119
1310.0 1201 1323 1534 1865 2235 2552 2780 2838 2678 2309
1350.0 1790 1292 953 779 727 789 984 1179 1240 1130
1390.0 846 563 404 324 291 284 296 318 350 407
1430.0 525 746 1140 1709 2256 2437 2177 1585 978 582
1470.0 381 281 231 205 189 176 160 143 122 105
1510.0 97 95 100 108 116 125 137 150 166 179
1550.0 190 205 230 271 338 440 574 722 840 924
1590.0 972 992 984 906 744 557 414 338 305 289
1630.0 280 274 273 285 312 353 411 484 589 732
1670.0 930 1198 1584 2146 3033 4338 6146 8182 9629 10000
1710.0 8987 6798 4482 2797 1787 1232 923 718 571 459
1750.0 377 316 272 238 210 190 169 152 138 133
1790.0 147 183 222 251 253 227 186 146 116 95
1830.0 77 65 57 53 49 48 49 49 48 51
1870.0 58 68 83 101 120 136 147 152 155 150
1910.0 141 124 106 89 81 81 88 101 123 150
1950.0 176 189 192 189 182 164 135 100 69 48
1990.0 36 27 23 19 16 15 16 15 14 13
2030.0 12 11 10 8 8 9 10 10 10 8
2070.0 7 5 4 4 5 5 5 3 2 2
2110.0 1 0 1 0 1 0 1 2 5 7
2150.0 7 10 12 13 11 8 7 7 8 9
2190.0 8 9 6 4 3 5 7 8 9 9
2230.0 9 11 12 13 12 13 15 15 14 12
2270.0 13 14 16 18 19 18 18 17 17 21
2310.0 29 45 59 63 61 52 46 45 45 42
2350.0 38 33 28 27 26 27 32 34 38 42
2390.0 43 46 47 43 38 34 33 31 28 26
2430.0 27 28 27 29 30 28 29 31 32 33
2470.0 31 26 22 15 9 7 6 6 7 7
2510.0 4 3 4 5 5 4 5 6 7 5
2550.0 4 5 4 2 3 7 10 13 17 18
2590.0 19 19 17 14 9 6 6 7 8 8
2630.0 7 5 5 6 7 8 5 3 2 0
2670.0 0 2 4 5 3 2 2 3 2 1
2710.0 1 2 3 7 13 18 22 26 29 31
2750.0 29 26 20 18 20 20 22 21 22 21
2790.0 19 20 21 25 31 37 44 53 60 66
2830.0 70 69 65 64 69 78 94 120 156 209
2870.0 265 305 319 300 266 231 205 190 181 176
2910.0 181 211 275 400 596 832 1026 1071 941 720
2950.0 509 367 298 288 328 420 594 894 1241 1432
2990.0 1386 1131 847 735 750 778 758 691 646 646
3030.0 682 740 791 815 814 819 885 1040 1285 1595
3070.0 1854 1924 1803 1558 1319 1198 1112 978 798 622
3110.0 474 353 255 183 135 108 92 83 80 76
3150.0 75 78 78 76 71 60 51 43 35 31
3190.0 32 29 26 24 24 24 26 27 26 25
3230.0 25 24 25 26 25 22 15 12 13 11
3270.0 8 6 6 9 12 10 8 10 11 9
3310.0 8 8 8 10 9 11 15 21 25 28
3350.0 33 38 42 50 59 71 93 120 146 162
3390.0 170 162 142 118 92 72 59 47 41 33
3430.0 26 22 15 11 13 12 13 13 8 8
3470.0 8 5 5 5 4 2 1 3 6 8
3510.0 5 4 4 3 4 6 7 6 7 8
3550.0 7 9 8 3 1 1 3 5 6 6
3590.0 6 4 0 2 6 7 11 10 8 9
3630.0 11 10 9 11 14 18 17 19 20 19
3670.0 19 20 19 16 16 17 17 20 25 27
3710.0 28 29 25 21 23 21 17 15 12 10
3750.0 14 12 13 11 11 11 10 9 7 5
3790.0 6 9 12 15 15 15 13 12 13 11
3830.0 10 9 8 10 11
##END=
