##TITLE=3-Chlorobenzo[b]thiophene-2-carboxylic acid
##JCAMP-DX=4.24
##DATA TYPE=INFRARED SPECTRUM
##ORIGIN=EPA-IR VAPOR PHASE LIBRARY
##OWNER=SRD/NIST
Collection (C) 2018 copyright by the U.S. Secretary of Commerce
on behalf of the United States of America. All rights reserved.
##CAS REGISTRY NO=21211-22-3
##MOLFORM=C 9 H 5 Cl O 2 S
##$NIST SOURCE=MSDC-IR
##STATE=gas
##XUNITS=1/CM
##YUNITS=ABSORBANCE
##XFACTOR=1.
##YFACTOR=0.001
##DELTAX=1.92898
##FIRSTX=549.8
##LASTX=4000.7
##FIRSTY=7.482
##MAXX=4000.7
##MINX=549.759
##MAXY=0.049912
##MINY=0
##NPOINTS=1790
##XYDATA=(X++(Y..Y))
549.759 7.482 8.662 9.082 9.232 9.062 7.782 6.172 5.422 5.042 4.342
569.049 3.552 3.222 2.642 2.102 2.882 3.252 3.242 3.542 4.282 5.822
588.339 7.072 8.242 9.102 9.122 9.692 10.182 8.852 7.962 8.032 7.162
607.628 6.672 6.742 5.872 4.622 4.062 3.652 3.062 2.332 1.772 1.762
626.918 1.832 1.862 1.992 1.7362 1.5006 1.3209 1.6146 1.6839 1.4548 2.012
646.208 2.392 2.242 2.042 2.042 1.812 1.6517 1.6727 1.872 2.042 2.002
665.498 2.632 4.312 4.912 5.272 6.852 7.972 8.062 8.042 8.362 7.872
684.787 6.412 4.952 3.762 2.812 2.302 2.172 2.262 2.272 2.122 1.892
704.077 1.872 2.202 2.582 2.892 3.132 3.672 4.842 5.892 6.982 8.072
723.367 8.942 10.012 12.012 12.112 9.352 8.082 8.192 8.582 9.272 10.012
742.657 11.022 12.172 13.622 15.872 17.862 17.792 16.232 14.112 11.572 9.852
761.947 8.512 6.822 5.502 4.412 3.532 3.022 2.682 2.282 1.752 1.6474
781.236 1.7132 1.6282 2.052 2.132 1.912 2.272 2.462 2.452 2.642 2.682
800.526 2.432 2.432 2.922 2.812 2.232 2.302 2.432 2.272 2.292 2.642
819.816 2.652 1.594 1.2495 2.842 3.782 3.692 3.662 3.972 4.362 4.442
839.106 4.712 4.882 4.942 5.132 5.122 4.832 4.532 4.252 3.632 3.022
858.395 2.562 2.062 1.782 1.6134 1.822 1.6354 1.4003 1.4486 1.1898 1.4257
877.685 1.7305 1.7483 1.5697 1.2307 1.0787 1.2716 1.5614 1.533 1.2402 1.2331
896.975 1.2481 1.1666 1.296 1.3378 1.2495 1.1125 1.3344 1.7073 1.932 2.422
916.265 2.792 2.822 3.132 4.202 5.842 7.182 8.392 9.352 9.762 10.032
935.555 10.092 9.952 9.442 8.722 7.272 5.572 4.442 3.602 3.102 2.702
954.844 2.422 2.152 2.102 2.332 2.142 1.992 2.112 2.002 1.792 1.862
974.134 2.132 1.872 1.5167 1.6848 1.802 1.842 1.942 1.902 2.062 2.102
993.424 2.222 2.152 2.132 2.362 2.402 2.492 2.522 2.842 3.132 3.462
1012.714 3.842 3.992 3.962 4.142 4.392 4.602 4.582 5.262 5.762 5.832
1032.003 6.532 7.392 8.062 7.792 7.842 8.072 8.142 7.712 7.682 7.782
1051.293 6.942 6.612 6.972 7.132 6.502 5.772 5.232 4.612 4.322 4.462
1070.583 5.012 6.072 6.602 7.272 7.802 8.052 8.362 8.652 8.542 8.872
1089.873 9.622 9.002 7.242 6.422 5.812 4.782 4.782 4.192 4.082 4.512
1109.163 4.792 5.722 7.082 7.602 7.722 8.262 10.172 12.982 14.962 16.832
1128.452 18.762 20.892 22.492 23.402 24.142 24.592 25.582 26.982 27.702 27.152
1147.742 26.502 26.832 26.742 25.732 24.772 23.322 22.372 21.902 20.942 19.722
1167.032 18.352 18.142 18.542 18.142 18.502 18.962 19.292 19.372 19.662 19.352
1186.322 17.562 16.262 14.582 12.382 10.432 9.002 7.272 6.702 6.152 5.102
1205.611 5.192 5.162 5.432 4.672 4.972 5.522 4.352 4.772 4.752 4.382
1224.901 4.912 4.962 5.272 5.022 4.862 5.162 4.642 4.852 6.112 6.502
1244.191 7.132 8.342 8.292 8.122 8.672 9.102 8.902 8.472 7.692 7.242
1263.481 7.402 7.142 7.182 7.322 7.412 7.912 7.932 8.032 8.452 8.912
1282.771 9.422 9.812 10.512 11.172 11.732 12.612 13.182 13.472 14.052 14.742
1302.060 15.602 16.522 17.132 17.472 17.592 17.352 16.762 15.872 14.782 13.772
1321.350 12.902 12.262 12.032 11.962 11.952 11.892 11.882 11.952 11.902 11.752
1340.640 11.402 11.162 10.962 10.602 10.212 9.892 9.712 9.552 9.452 9.452
1359.930 9.542 9.702 9.812 9.842 9.662 9.252 8.822 8.362 7.762 6.952
1379.219 6.092 5.392 4.692 4.002 3.442 3.052 2.702 2.392 2.342 2.262
1398.509 2.212 2.182 2.062 1.842 1.7151 1.7412 1.792 1.892 1.862 1.872
1417.799 1.922 2.102 2.472 2.782 3.122 3.492 3.712 3.762 3.772 3.712
1437.089 3.622 3.382 2.972 2.622 2.332 2.172 2.202 2.332 2.442 2.472
1456.378 2.552 2.492 2.332 2.302 2.262 2.122 2.062 2.062 2.002 2.122
1475.668 2.202 2.292 2.602 2.942 3.242 3.632 3.992 4.412 4.992 5.772
1494.958 6.872 8.162 9.562 11.272 13.222 15.462 17.862 19.982 21.652 22.662
1514.248 23.092 22.682 21.382 19.372 16.942 14.482 11.942 9.752 8.192 7.012
1533.538 6.012 5.232 4.822 4.542 4.092 3.792 3.732 3.702 3.702 3.922
1552.827 4.042 4.142 4.312 4.042 3.622 3.392 3.222 2.832 2.462 2.362
1572.117 2.252 2.172 2.222 2.322 2.472 2.542 2.632 2.992 3.342 3.372
1591.407 3.192 3.172 3.192 3.242 3.212 3.072 2.952 2.912 2.812 2.732
1610.697 2.702 2.352 2.302 2.232 1.862 1.802 1.802 1.7507 1.6579 1.5046
1629.986 1.4693 1.348 1.2337 1.0952 1.0603 1.216 1.3814 1.4665 1.2989 1.2379
1649.276 1.2985 1.3352 1.4887 1.4254 1.3676 1.4281 1.4061 1.5223 1.6821 1.7105
1668.566 1.547 1.491 1.5888 1.5532 1.5096 1.782 1.922 1.902 2.032 2.222
1687.856 2.452 2.602 2.872 3.082 3.162 3.352 3.532 3.572 3.652 3.942
1707.146 4.182 4.482 4.862 5.322 6.042 6.832 7.522 8.232 9.212 10.642
1726.435 12.382 14.632 17.802 21.612 26.322 31.002 34.522 37.062 38.902 40.022
1745.725 39.922 38.582 36.892 36.242 37.492 40.692 44.842 48.182 49.852 49.912
1765.015 48.582 45.352 39.502 31.932 24.232 18.212 14.002 11.202 9.482 8.332
1784.305 7.522 6.902 6.382 6.062 5.842 5.532 5.132 4.792 4.472 4.222
1803.594 4.132 4.082 4.022 3.972 3.882 3.592 3.322 3.142 2.932 2.672
1822.884 2.502 2.312 2.012 1.832 1.7409 1.6223 1.4722 1.4087 1.4402 1.477
1842.174 1.443 1.285 1.2966 1.2942 1.1267 1.0871 1.1716 1.1073 1.0466 1.1399
1861.464 1.1683 1.0279 0.9509 1.0822 1.105 1.0262 0.9851 1.0832 1.224 1.2639
1880.754 1.3021 1.2853 1.2142 1.3241 1.4245 1.3394 1.2949 1.3449 1.3244 1.1852
1900.043 1.2557 1.4079 1.4163 1.4533 1.44 1.4186 1.4097 1.3326 1.251 1.0926
1919.333 1.0159 1.1477 1.0883 0.8736 0.81979 0.9127 1.0103 0.9601 0.926 1.0169
1938.623 1.2019 1.3239 1.3561 1.2716 1.1774 1.1406 1.0356 0.9729 0.9562 0.9211
1957.913 0.876 0.81504 0.761105 0.77597 0.7909 0.84761 0.80902 0.753128 0.77726 0.78181
1977.202 0.7161 0.6738 0.6898 0.7152 0.8013 0.722 0.7136 0.760971 0.78467 0.74508
1996.492 0.649 0.585 0.593 0.694 0.6725 0.77375 0.82832 0.613 0.53 0.552
2015.782 0.6631 0.79588 0.6759 0.6792 0.7446 0.74953 0.80045 0.6605 0.575 0.6643
2035.072 0.6742 0.6572 0.625 0.613 0.65 0.6688 0.623 0.6564 0.7187 0.6831
2054.362 0.637 0.6528 0.637 0.605 0.6897 0.74981 0.6969 0.586 0.61 0.641
2073.651 0.61 0.7276 0.83245 0.82264 0.6638 0.553 0.6724 0.715 0.7001 0.633
2092.941 0.541 0.58 0.608 0.6876 0.76786 0.756279 0.74487 0.6688 0.602 0.56
2112.231 0.6718 0.7128 0.617 0.585 0.466 0.454 0.594 0.642 0.619 0.564
2131.521 0.51 0.534 0.533 0.48 0.479 0.606 0.644 0.649 0.6574 0.607
2150.810 0.577 0.445 0.467 0.515 0.525 0.614 0.577 0.521 0.499 0.6827
2170.100 0.78609 0.6625 0.553 0.589 0.6521 0.612 0.647 0.6902 0.568 0.514
2189.390 0.634 0.651 0.625 0.613 0.618 0.635 0.628 0.621 0.603 0.553
2208.680 0.546 0.639 0.6761 0.7014 0.651 0.577 0.7031 0.6733 0.621 0.6548
2227.970 0.476 0.483 0.77294 0.76492 0.53 0.414 0.47 0.624 0.753244 0.605
2247.259 0.388 0.578 0.573 0.5 0.613 0.607 0.6881 0.7009 0.7225 0.79762
2266.549 0.82873 0.77667 0.753499 0.8806 0.82607 0.8837 0.9237 0.8947 0.8975 0.84739
2285.839 0.77726 0.9344 1.3135 1.3245 1.2915 1.3342 1.4306 1.6771 1.862 1.852
2305.129 1.882 2.172 2.322 2.462 2.702 2.922 3.082 3.012 2.972 3.172
2324.418 3.192 3.022 2.842 2.842 2.962 2.832 2.792 2.822 2.812 2.752
2343.708 2.632 2.482 2.322 2.432 2.652 2.972 3.272 3.432 3.662 3.852
2362.998 3.772 3.642 3.722 3.582 3.282 3.112 2.812 2.522 2.302 1.942
2382.288 1.5569 1.2608 1.0729 0.9122 0.6765 0.576 0.6591 0.643 0.7104 0.695
2401.578 0.574 0.533 0.467 0.429 0.531 0.577 0.431 0.526 0.6776 0.644
2420.867 0.6943 0.6656 0.478 0.276 0.271 0.506 0.45 0.376 0.554 0.588
2440.157 0.544 0.589 0.7079 0.80715 0.76528 0.7399 0.613 0.501 0.536 0.499
2459.447 0.641 0.6668 0.543 0.578 0.603 0.628 0.587 0.57 0.553 0.569
2478.737 0.623 0.483 0.46 0.519 0.4 0.472 0.559 0.64 0.7038 0.569
2498.026 0.6697 0.6 0.517 0.63 0.622 0.609 0.547 0.576 0.509 0.585
2517.316 0.80832 0.65 0.409 0.543 0.78244 0.699 0.623 0.634 0.7051 0.638
2536.606 0.541 0.625 0.591 0.558 0.544 0.5 0.533 0.7046 0.77735 0.7094
2555.896 0.6643 0.551 0.448 0.568 0.6834 0.572 0.65 0.7407 0.648 0.484
2575.186 0.515 0.555 0.514 0.561 0.573 0.61 0.58 0.496 0.574 0.603
2594.475 0.521 0.6 0.638 0.77545 0.7149 0.615 0.756656 0.7199 0.691 0.7094
2613.765 0.761611 0.7127 0.7019 0.8569 0.82079 0.754227 0.7265 0.83519 0.76681 0.74789
2633.055 0.751111 0.524 0.448 0.356 0.318 0.514 0.543 0.479 0.7359 0.76441
2652.345 0.496 0.613 0.79506 0.644 0.564 0.564 0.423 0.386 0.493 0.487
2671.634 0.444 0.401 0.553 0.6647 0.551 0.585 0.7054 0.83217 0.74221 0.43
2690.924 0.382 0.562 0.7117 0.83491 0.7117 0.513 0.464 0.386 0.506 0.563
2710.214 0.471 0.553 0.588 0.566 0.589 0.492 0.482 0.529 0.412 0.454
2729.504 0.6765 0.588 0.577 0.651 0.651 0.672 0.57 0.4 0.462 0.7041
2748.794 0.633 0.37 0.391 0.656 0.637 0.447 0.402 0.434 0.603 0.7022
2768.083 0.525 0.409 0.469 0.417 0.263 0.407 0.80386 0.9198 0.77834 0.632
2787.373 0.613 0.607 0.521 0.436 0.392 0.414 0.509 0.74471 0.6926 0.409
2806.663 0.6538 0.9496 0.8903 0.758813 0.475 0.479 0.583 0.411 0.333 0.314
2825.953 0.437 0.6909 0.474 0.526 0.7978 0.76551 0.77814 0.8721 0.83524 0.583
2845.242 0.7358 0.7268 0.561 0.6587 0.57 0.565 0.6882 0.573 0.568 0.647
2864.532 0.52 0.457 0.564 0.7234 0.609 0.607 0.7029 0.6633 0.7307 0.589
2883.822 0.549 0.622 0.7319 0.77228 0.77951 0.9508 0.7138 0.292 0.333 0.458
2903.112 0.442 0.587 0.604 0.645 0.7075 0.754575 0.8649 1.0047 0.9104 0.619
2922.401 0.468 0.403 0.6866 0.6899 0.466 0.7216 0.7994 0.59 0.571 0.633
2941.691 0.57 0.497 0.448 0.499 0.531 0.426 0.456 0.464 0.545 0.649
2960.981 0.6581 0.7266 0.7358 0.6828 0.77149 0.8809 0.8818 0.84597 0.8815 0.921
2980.271 0.7219 0.508 0.61 0.7075 0.64 0.594 0.512 0.628 0.7155 0.6796
2999.561 0.425 0.401 0.81277 0.78747 0.725 0.9448 0.9271 0.9434 1.0108 0.7188
3018.850 0.604 0.80726 0.83375 0.83921 0.9785 0.904 0.8523 1.0239 1.093 1.1753
3038.140 1.1931 1.0398 0.8857 0.80924 0.9673 1.057 1.0431 1.3112 1.7236 1.992
3057.430 2.262 2.522 2.812 3.382 3.952 4.262 4.712 5.252 5.252 5.282
3076.720 5.272 4.742 4.192 3.852 3.322 2.832 2.332 1.892 1.7288 1.537
3096.009 1.162 0.9166 0.9577 0.896 1.0753 0.84581 0.74237 1.1394 1.2199 1.1371
3115.299 0.9802 1.0198 1.1403 1.3281 1.5114 1.0987 0.74551 0.9493 0.9522 0.7335
3134.589 0.618 0.631 0.78203 0.929 0.74844 0.482 0.546 0.84956 0.938 0.53
3153.879 0.467 0.475 0.267 0.481 0.551 0.517 0.589 0.602 0.6598 0.333
3173.169 0.075 0.286 0.6647 0.7003 0.349 0.491 0.6997 0.32 0.06 0.069
3192.458 0.399 0.74311 0.741 0.6929 0.74386 0.78301 0.456 0.562 0.886 0.601
3211.748 0.598 0.615 0.6951 0.7508 0.477 0.587 0.243 0.281 0.639 0.414
3231.038 0.497 0.482 0.342 0.304 0.385 0.368 0.231 0.524 0.612 0.752088
3250.328 0.6698 0.515 0.596 0.558 0.7148 0.541 0.77122 1.014 1.0669 1.1112
3269.617 0.711 0.488 0.589 0.542 0.582 0.75097 0.705 0.433 0.286 0.633
3288.907 0.78361 0.526 0.427 0.498 0.595 0.487 0.611 0.594 0.276 0.6686
3308.197 0.8199 0.591 0.329 0.389 0.645 0.512 0.492 0.606 0.619 0.9703
3327.487 0.9386 0.634 0.62 0.9241 1.0527 0.607 0.9152 1.2683 0.9636 0.507
3346.777 0.348 0.364 0.642 0.933 0.8739 0.81922 0.7059 0.6658 0.6827 0.7417
3366.066 0.7303 0.638 0.6824 0.655 0.304 0.457 0.77241 0.76977 0.493 0.181
3385.356 0.408 0.7355 0.6594 0.475 0.437 0.381 0.287 0.394 0.535 0.617
3404.646 0.505 0.15 0.302 0.82427 0.84534 0.611 0.6711 0.617 0.505 0.342
3423.936 0.326 0.352 0.57 0.627 0.475 0.7116 0.925 0.76912 0.344 0.404
3443.225 0.41 0.562 0.6718 0.613 0.9242 0.80545 0.77906 1.1446 1.2308 1.1927
3462.515 1.1302 0.8917 0.6803 0.7124 1.0211 1.023 0.9483 1.1044 0.81355 0.62
3481.805 0.6655 0.357 0.493 0.573 0.338 0.532 0.9234 1.0751 0.9848 0.9444
3501.095 1.232 1.3576 1.1868 1.3083 1.3383 1.0177 0.9281 1.104 1.2352 1.374
3520.385 1.4488 1.5695 1.6488 1.5397 1.7366 1.972 1.902 1.962 2.102 2.162
3539.674 2.072 1.7394 1.822 2.072 1.952 1.782 1.6958 1.862 2.182 2.882
3558.964 4.082 5.702 7.932 10.602 13.592 16.452 18.332 19.882 21.552 22.662
3578.254 22.502 21.202 19.232 17.442 15.602 12.972 10.332 7.482 4.912 3.322
3597.544 2.762 2.242 1.4453 1.1803 1.2033 1.1574 1.0388 0.81849 0.9783 0.9405
3616.833 0.544 0.511 0.469 0.487 0.478 0.488 0.619 0.76782 0.7304 0.6888
3636.123 1.0212 1.0425 0.9585 1.0901 1.0068 1.0065 0.577 0.418 0.7302 0.7177
3655.413 0.5 0.585 0.897 0.76236 0.6832 0.78576 0.557 0.335 0.473 0.561
3674.703 0.593 0.631 0.6584 0.613 0.601 0.553 0.463 0.6747 0.957 1.111
3693.993 0.9004 0.9184 0.9388 1.1858 1.3388 0.9758 0.84122 0.76411 0.8556 0.760924
3713.282 0.369 0.273 0.52 0.475 0.359 0.406 0.596 0.78982 0.9559 0.757458
3732.572 0.383 0.485 0.448 0.716 1.0851 0.9225 0.80127 0.753713 0.544 0.574
3751.862 0.625 0.57 0.7093 0.723 0.7118 0.639 0.423 0.425 0.597 0.497
3771.152 0.375 0.348 0.328 0.614 0.7285 0.389 0.332 0.6675 0.418 0.353
3790.441 0.7135 0.75017 0.8973 0.82836 0.541 0.83524 0.9875 0.6579 0.288 0.139
3809.731 0.491 0.606 0.76422 0.7044 0.506 0.7024 0.79797 0.642 0.388 0.251
3829.021 0.266 0.235 0.317 0.348 0.195 0.399 0.7803 0.81952 0.556 0.523
3848.311 0.606 0.7093 0.465 0.037 0.06 0.414 0.502 0.366 0.536 0.6789
3867.601 0.464 0.485 0.6742 0.642 0.474 0.328 0.482 0.76256 0.6588 0.392
3886.890 0.358 0.285 0.385 0.479 0.198 0 0.083 0.406 0.9083 0.9125
3906.180 0.84895 0.76986 0.604 0.6931 0.81521 0.84135 0.84389 0.913 0.76303 0.83894
3925.470 0.9453 0.6607 0.484 0.316 0.503 0.557 0.495 0.462 0.099 0.424
3944.760 0.646 0.23 0.23 0.454 0.483 0.387 0.395 0.607 0.758635 0.565
3964.049 0.451 0.7095 0.637 0.503 0.496 0.48 0.468 0.376 0.7126 0.7678
3983.339 0.531 0.319 0.429 0.387 0.074 0.167 0.414 0.514 0.457 0.556
##END=
