##TITLE=Ethyl 3,5-dimethylbenzoate
##JCAMP-DX=4.24
##DATA TYPE=INFRARED SPECTRUM
##ORIGIN=EPA-IR VAPOR PHASE LIBRARY
##OWNER=SRD/NIST
Collection (C) 2018 copyright by the U.S. Secretary of Commerce
on behalf of the United States of America. All rights reserved.
##CAS REGISTRY NO=21239-29-2
##MOLFORM=C 11 H 14 O 2
##$NIST SOURCE=MSDC-IR
##STATE=gas
##XUNITS=1/CM
##YUNITS=ABSORBANCE
##XFACTOR=1.
##YFACTOR=0.001
##DELTAX=1.92934
##FIRSTX=549.9
##LASTX=3999.5
##FIRSTY=4.09
##MAXX=3999.53
##MINX=549.863
##MAXY=0.44901
##MINY=0
##NPOINTS=1789
##XYDATA=(X++(Y..Y))
549.863 4.09 3.69 3.28 2.9766 2.9139 2.7988 2.5202 2.463 2.388 2.24127
569.156 1.97 1.779 1.779 1.695 1.616 1.575 1.474 1.458 1.411 1.373
588.450 1.357 1.242 1.17 1.17 1.11 1.11 1.18 1.12 1.07 1.1
607.743 1.09 1.07 1.13 1.18 1.21 1.16 1.17 1.16 1.1 1.15
627.037 1.16 1.16 1.15 1.13 1.15 1.15 1.225 1.321 1.33 1.352
646.330 1.412 1.447 1.506 1.58 1.616 1.708 1.805 1.947 2.25104 2.7003
665.624 3.35 4.23 5.15 5.95 6.84 8 9.32 9.56 8.45 7.31
684.917 6.52 5.71 4.9 4.15 3.44 2.9684 2.6132 2.381 2.29043 2.24139
704.210 2.2285 2.20523 2.1963 2.1898 2.1993 2.21772 2.28594 2.29102 2.25158 2.28186
723.504 2.3276 2.4035 2.566 2.7985 3.1219 3.54 4.09 4.83 5.72 6.8
742.797 7.99 9.24 10.66 12.25 14.08 16.21 18.71 21.6 24.54 27.47
762.091 30.9 35.69 39.86 38.28 33.04 29.07 25.77 22.19 18.39 14.81
781.384 11.91 9.76 8.21 7.18 6.56 6.13 5.78 5.53 5.37 5.2
800.678 5.1 5.09 5.03 4.93 4.8 4.7 4.57 4.41 4.34 4.22
819.971 4.07 4 3.96 3.92 3.95 3.96 3.94 4 4.07 4.23
839.264 4.42 4.71 5.15 5.83 6.83 8.13 9.72 11.53 13.45 15.34
858.558 17.23 19.22 21.03 21.31 19.32 16.76 14.8 12.99 11.13 9.31
877.851 7.69 6.44 5.65 5.17 4.84 4.67 4.61 4.65 4.81 5.07
897.145 5.4 5.86 6.57 7.52 8.64 9.97 11.43 12.78 13.91 14.69
916.438 15.04 14.77 13.99 12.95 11.68 10.41 9.31 8.49 8.1 8.07
935.732 8.37 8.88 9.24 9.36 9.26 8.98 8.64 7.99 7.06 6.23
955.025 5.64 5.31 5.15 5.09 5.13 5.2 5.33 5.49 5.64 5.89
974.318 6.2 6.55 6.93 7.33 7.75 8.16 8.54 8.99 9.47 9.96
993.612 10.51 11.15 11.79 12.43 13.18 14.07 15.15 16.48 18.17 20.28
1012.905 22.87 25.98 29.57 33.6 37.83 42.05 46.05 49.54 52.16 53.69
1032.199 53.94 52.79 50.46 47.17 43.25 39.06 34.97 31.3 28.09 25.5
1051.492 23.56 22.1 20.99 20.14 19.42 18.74 18.1 17.44 16.74 16.03
1070.786 15.33 14.75 14.41 14.17 14.17 14.48 15.01 15.78 16.84 18.17
1090.079 19.7 21.49 23.58 26.15 29.31 33.29 38.55 45.27 53.32 62.35
1109.372 71.79 80.79 88.37 93.28 94.51 91.77 85.39 76.25 65.46 54.3
1128.666 43.89 35.09 28.45 23.72 20.44 18.17 16.59 15.59 14.98 14.68
1147.959 14.79 15.22 15.95 17.14 18.89 21.05 23.05 24.53 25.51 26.15
1167.253 26.46 26.33 25.58 24.59 24.23 24.84 26.21 28.29 31.39 35.71
1186.546 41.51 49.06 58.71 71.3 88.06 110.43 139.95 177.92 224.53 278.21
1205.840 334.68 386.97 427.25 449.01 448.66 425.68 381.94 322.46 255.69 191.81
1225.133 139.07 100.37 73.87 56.28 44.52 36.43 30.71 26.58 23.55 21.36
1244.426 19.67 18.36 17.38 16.59 15.95 15.42 14.95 14.62 14.4 14.18
1263.720 14.03 13.92 13.95 14.19 14.69 15.51 16.72 18.63 21.4 25.23
1283.013 30.52 37.48 46.33 57.25 70.21 85.1 101.43 118.5 135.51 151.62
1302.307 165.9 177.01 183.42 183.71 177.42 165.49 149.36 130.2 108.99 87.31
1321.600 67.44 51.37 39.68 31.7 26.34 22.67 20.05 18.2 16.86 15.85
1340.894 15.08 14.55 14.19 13.98 13.94 14.06 14.42 15.14 16.29 18.01
1360.187 20.56 23.97 27.65 30.62 32.41 33.18 33.17 32.46 30.75 28.31
1379.480 26.18 24.95 24.38 24.04 23.67 23.1 22.03 20.58 19.22 18.17
1398.774 17.44 16.99 16.68 16.45 16.28 16.15 16.05 15.95 15.8 15.64
1418.067 15.5 15.35 15.26 15.27 15.36 15.6 16.08 16.76 17.71 19.04
1437.361 20.77 22.82 25.09 27.34 29.31 30.76 31.56 31.68 31.1 29.77
1456.654 27.9 25.87 24.1 22.82 22.04 21.55 21.24 20.98 20.63 20.11
1475.948 19.43 18.6 17.6 16.49 15.49 14.59 13.77 13.09 12.44 11.88
1495.241 11.45 10.99 10.61 10.4 10.17 9.91 9.74 9.56 9.46 9.4
1514.534 9.37 9.38 9.44 9.58 9.81 10.04 10.18 10.31 10.41 10.43
1533.828 10.47 10.44 10.31 10.05 9.75 9.44 9.06 8.68 8.31 7.98
1553.121 7.67 7.35 7.12 6.95 6.78 6.65 6.59 6.56 6.59 6.68
1572.415 6.83 7.09 7.43 7.87 8.46 9.21 10.12 11.32 12.8 14.53
1591.708 16.52 18.79 21.29 23.99 26.7 29.16 31.18 32.57 33.04 32.46
1611.002 31 28.88 26.2 22.96 19.54 16.27 13.38 11.09 9.36 8.1
1630.295 7.2 6.59 6.15 5.78 5.45 5.22 5.07 4.93 4.82 4.76
1649.588 4.77 4.83 4.83 4.81 4.88 4.95 5.03 5.17 5.29 5.4
1668.882 5.58 5.81 6.02 6.31 6.7 7.09 7.56 8.13 8.82 9.55
1688.175 10.37 11.29 12.23 13.19 14.14 15.1 16.01 16.81 17.41 18.06
1707.469 18.88 20.05 21.76 24.1 27.39 32.12 38.84 47.9 60.43 77.2
1726.762 98.79 125.35 155.65 185.1 208.49 220.15 222.37 221.43 214.99 193.99
1746.056 159.21 121.62 90 66.05 49.03 37.22 29.21 24.19 21.18 19.49
1765.349 18.64 18.36 18.33 18.41 18.43 18.31 17.99 17.34 16.43 15.26
1784.642 13.93 12.68 11.56 10.55 9.66 8.92 8.38 7.97 7.61 7.31
1803.936 7.04 6.74 6.44 6.11 5.78 5.45 5.13 4.82 4.54 4.32
1823.229 4.14 4.03 3.92 3.8 3.71 3.64 3.57 3.46 3.36 3.3
1842.523 3.2001 3.1006 3.0258 2.9507 2.9146 2.8779 2.8367 2.7696 2.7255 2.7299
1861.816 2.7188 2.6933 2.6566 2.6375 2.6416 2.6397 2.6365 2.6463 2.6752 2.6637
1881.110 2.6611 2.6984 2.6972 2.6962 2.6756 2.6718 2.6595 2.6531 2.6568 2.6256
1900.403 2.6145 2.5918 2.5204 2.4586 2.4453 2.4214 2.396 2.3818 2.3767 2.3522
1919.696 2.3109 2.30632 2.3117 2.29757 2.29404 2.2783 2.26649 2.25674 2.21832 2.22359
1938.990 2.23413 2.199 2.1575 2.1643 2.21315 2.23323 2.24503 2.27572 2.28082 2.27569
1958.283 2.29271 2.28176 2.29357 2.30951 2.3104 2.348 2.3854 2.396 2.4052 2.4178
1977.577 2.4175 2.4299 2.4096 2.3617 2.3252 2.26611 2.166 2.056 1.97 1.896
1996.870 1.823 1.74 1.684 1.67 1.69 1.673 1.618 1.576 1.586 1.615
2016.164 1.63 1.632 1.627 1.657 1.683 1.688 1.696 1.698 1.7 1.668
2035.457 1.658 1.694 1.69 1.705 1.764 1.782 1.781 1.8 1.836 1.893
2054.750 1.964 2.006 2.059 2.1788 2.29473 2.3662 2.4381 2.5379 2.5822 2.5845
2074.044 2.6288 2.637 2.5693 2.5029 2.4297 2.30741 2.20096 2.101 2.016 1.932
2093.337 1.852 1.79 1.728 1.706 1.698 1.714 1.719 1.691 1.694 1.738
2112.631 1.779 1.798 1.818 1.81 1.832 1.861 1.841 1.871 1.872 1.831
2131.924 1.815 1.796 1.761 1.752 1.779 1.776 1.758 1.718 1.665 1.648
2151.218 1.653 1.663 1.64 1.617 1.603 1.577 1.558 1.557 1.551 1.528
2170.511 1.525 1.483 1.443 1.457 1.436 1.407 1.373 1.327 1.337 1.337
2189.804 1.317 1.324 1.322 1.34 1.361 1.36 1.39 1.405 1.376 1.379
2209.098 1.42 1.428 1.429 1.439 1.444 1.473 1.481 1.478 1.493 1.488
2228.391 1.479 1.449 1.411 1.395 1.408 1.401 1.362 1.34 1.329 1.336
2247.685 1.312 1.273 1.27 1.287 1.283 1.242 1.257 1.273 1.252 1.278
2266.978 1.31 1.309 1.315 1.298 1.318 1.348 1.354 1.363 1.369 1.369
2286.272 1.378 1.412 1.417 1.447 1.483 1.452 1.455 1.467 1.486 1.528
2305.565 1.544 1.573 1.595 1.609 1.645 1.719 1.793 1.845 1.896 1.896
2324.858 1.911 1.921 1.899 1.866 1.802 1.738 1.667 1.606 1.566 1.524
2344.152 1.499 1.467 1.439 1.435 1.448 1.469 1.461 1.453 1.457 1.474
2363.445 1.49 1.468 1.453 1.471 1.467 1.493 1.52 1.504 1.492 1.509
2382.739 1.523 1.496 1.491 1.503 1.52 1.52 1.487 1.467 1.489 1.516
2402.032 1.536 1.572 1.612 1.67 1.703 1.726 1.764 1.767 1.787 1.825
2421.326 1.834 1.824 1.836 1.797 1.741 1.699 1.617 1.553 1.53 1.471
2440.619 1.414 1.383 1.389 1.393 1.336 1.321 1.363 1.368 1.358 1.352
2459.912 1.317 1.332 1.358 1.341 1.358 1.365 1.37 1.401 1.407 1.398
2479.206 1.403 1.406 1.402 1.39 1.371 1.347 1.364 1.36 1.37 1.395
2498.499 1.382 1.395 1.394 1.43 1.437 1.385 1.384 1.413 1.399 1.348
2517.793 1.339 1.367 1.382 1.376 1.331 1.298 1.335 1.314 1.245 1.266
2537.086 1.227 1.21 1.214 1.16 1.14 1.12 1.15 1.15 1.1 1.11
2556.380 1.1 1.04 1 1.04 1.04 1.03 1.06 1.04 1.01 1.02
2575.673 1.06 1.07 1.09 1.15 1.17 1.18 1.19 1.212 1.256 1.298
2594.966 1.306 1.286 1.267 1.32 1.351 1.331 1.343 1.337 1.324 1.274
2614.260 1.246 1.22 1.14 1.08 1.02 1 0.98 0.95 0.93 0.91
2633.553 0.88 0.87 0.88 0.87 0.87 0.89 0.89 0.89 0.89 0.93
2652.847 0.94 0.95 0.97 0.96 0.93 0.91 0.96 0.97 0.96 0.98
2672.140 0.95 0.94 0.9 0.91 0.96 0.96 1 1.02 1.04 0.99
2691.434 0.95 1.03 1.07 0.98 0.95 0.99 0.99 1.02 1.03 1.01
2710.727 1.03 1.11 1.18 1.17 1.19 1.271 1.369 1.469 1.553 1.636
2730.020 1.766 1.925 2.038 2.1571 2.3409 2.5686 2.7619 2.8471 2.84 2.7998
2749.314 2.7409 2.5884 2.4072 2.1965 2.033 1.96 1.897 1.838 1.749 1.716
2768.607 1.752 1.825 1.8 1.73 1.756 1.777 1.776 1.791 1.793 1.77
2787.901 1.818 1.845 1.831 1.852 1.84 1.908 2.027 2.102 2.21753 2.3319
2807.194 2.4276 2.5106 2.6232 2.8112 2.9818 3.1638 3.35 3.47 3.67 3.91
2826.488 4.04 4.21 4.36 4.52 4.79 5 5.18 5.45 5.83 6.28
2845.781 6.67 7.14 7.7 8.32 9.07 9.86 10.74 11.75 12.83 14.04
2865.074 15.35 16.71 18.1 19.42 20.61 21.56 22.35 22.97 23.36 23.56
2884.368 23.39 23 22.62 22.28 22.07 21.99 22.1 22.56 23.28 24.21
2903.661 25.2 26.23 27.38 28.61 29.87 31.28 32.91 34.72 36.98 39.62
2922.955 42.54 45.63 48.66 51.27 53.19 54.46 55.05 55.04 54.27 52.65
2942.248 50.54 48.13 45.36 42.52 39.77 37.27 34.98 33.22 32.14 31.57
2961.542 31.52 31.75 32.1 32.69 33.54 34.78 36.55 38.93 41.84 44.95
2980.835 47.79 50.07 51.44 51.81 51.19 49.58 47.31 44.74 42.35 40.42
3000.128 38.99 38.05 37.52 37.42 37.62 37.86 37.79 37.13 35.86 34.11
3019.422 31.97 29.43 26.68 24.23 22.43 21.18 20.22 19.32 18.4 17.54
3038.715 16.7 15.85 15.02 14.1 13.4 12.9 12.46 12.21 12.17 12.28
3058.009 12.37 12.28 12.1 11.86 11.47 10.95 10.41 9.73 8.97 8.14
3077.302 7.31 6.64 6.07 5.69 5.22 4.75 4.45 4.14 3.86 3.59
3096.596 3.35 3.1692 2.9564 2.6873 2.4953 2.3419 2.29884 2.22126 2.105 2.057
3115.889 1.909 1.732 1.635 1.53 1.454 1.472 1.364 1.2 1.19 1.17
3135.182 1.07 1 0.87 0.8 0.9 0.96 0.92 0.92 0.9 0.83
3154.476 0.78 0.8 0.81 0.75 0.75 0.63 0.43 0.56 0.7 0.63
3173.769 0.52 0.56 0.71 0.63 0.62 0.66 0.63 0.61 0.53 0.48
3193.063 0.55 0.58 0.57 0.58 0.5 0.52 0.59 0.52 0.46 0.43
3212.356 0.45 0.43 0.43 0.47 0.49 0.42 0.28 0.26 0.24 0.2
3231.650 0.14 0.13 0.07 0 0.07 0.07 0.04 0.13 0.13 0.02
3250.943 0.01 0.05 0.08 0.12 0.14 0.14 0.14 0.11 0.09 0.02
3270.236 0.04 0.18 0.1 0.11 0.15 0.14 0.19 0.14 0.13 0.2
3289.530 0.18 0.14 0.1 0.09 0.13 0.14 0.12 0.08 0.03 0.14
3308.823 0.28 0.25 0.26 0.3 0.26 0.19 0.17 0.23 0.23 0.25
3328.117 0.37 0.43 0.41 0.36 0.4 0.44 0.42 0.36 0.31 0.28
3347.410 0.27 0.34 0.32 0.25 0.25 0.38 0.4 0.36 0.49 0.54
3366.704 0.45 0.37 0.3 0.32 0.36 0.36 0.35 0.36 0.38 0.34
3385.997 0.43 0.46 0.38 0.47 0.51 0.48 0.54 0.54 0.52 0.56
3405.290 0.47 0.45 0.5 0.55 0.65 0.69 0.7 0.71 0.71 0.79
3424.584 0.83 0.83 0.76 0.85 0.94 0.91 0.94 1.12 1.298 1.299
3443.877 1.556 1.744 1.779 1.978 2.24216 2.3609 2.4779 2.6411 2.4965 2.23878
3463.171 2.1263 2.023 1.797 1.689 1.512 1.365 1.369 1.261 1.14 1.02
3482.464 0.85 0.78 0.75 0.72 0.74 0.73 0.67 0.64 0.72 0.74
3501.758 0.75 0.82 0.83 0.73 0.64 0.64 0.77 0.9 0.87 0.72
3521.051 0.68 0.77 0.66 0.57 0.62 0.66 0.79 0.76 0.72 0.74
3540.344 0.69 0.68 0.63 0.62 0.72 0.75 0.73 0.75 0.77 0.85
3559.638 0.92 0.86 0.88 0.93 0.87 0.84 0.75 0.65 0.77 0.77
3578.931 0.73 0.78 0.71 0.68 0.76 0.79 0.76 0.75 0.72 0.75
3598.225 0.73 0.7 0.72 0.74 0.74 0.69 0.73 0.83 0.79 0.7
3617.518 0.65 0.69 0.72 0.65 0.66 0.76 0.79 0.8 0.8 0.85
3636.812 0.86 0.76 0.64 0.64 0.69 0.72 0.76 0.75 0.82 0.91
3656.105 0.83 0.75 0.87 0.87 0.76 0.79 0.77 0.82 0.97 0.91
3675.398 0.83 0.86 0.83 0.79 0.87 0.94 0.9 0.91 0.93 0.89
3694.692 0.86 0.91 0.87 0.86 0.88 0.87 0.9 0.92 0.87 0.86
3713.985 0.94 0.92 0.94 0.98 0.93 0.89 0.89 0.85 0.93 1.03
3733.279 1 0.91 0.81 0.9 0.99 0.97 0.83 0.79 0.89 0.88
3752.572 0.92 0.92 0.93 0.96 0.96 0.97 0.99 0.97 0.93 0.99
3771.866 1.07 1.02 0.98 1.02 0.97 0.91 0.94 1.03 1.08 1.07
3791.159 1.07 1.01 1.02 1.06 1.09 1.15 1.07 1.03 1.07 1.05
3810.452 1.04 1.06 1.09 1.12 1.08 1.07 1.09 1.05 1.07 1.07
3829.746 1.02 1.08 1.07 1.08 1.15 1.18 1.211 1.21 1.19 1.1
3849.039 1.1 1.12 1.12 1.12 1.09 1.13 1.16 1.21 1.2 1.212
3868.333 1.21 1.267 1.266 1.2 1.15 1.17 1.18 1.16 1.223 1.245
3887.626 1.227 1.22 1.19 1.12 1.211 1.367 1.244 1.13 1.14 1.19
3906.920 1.219 1.21 1.247 1.243 1.28 1.241 1.19 1.14 1.14 1.263
3926.213 1.318 1.286 1.275 1.275 1.232 1.241 1.251 1.256 1.242 1.223
3945.506 1.21 1.248 1.284 1.2 1.17 1.2 1.253 1.323 1.313 1.293
3964.800 1.226 1.2 1.245 1.267 1.293 1.331 1.297 1.224 1.16 1.15
3984.093 1.261 1.352 1.407 1.42 1.435 1.444 1.458 1.465 1.427
##END=
