##TITLE=4-Benzoylbiphenyl
##JCAMP-DX=4.24
##DATA TYPE=INFRARED SPECTRUM
##ORIGIN=NIST Mass Spectrometry Data Center
##OWNER=NIST Standard Reference Data Program
Collection (C) 2018 copyright by the U.S. Secretary of Commerce
on behalf of the United States of America. All rights reserved.
##CAS REGISTRY NO=2128-93-0
##MOLFORM=C 19 H 14 O
##$NIST SOURCE=MSDC-IR
##SPECTROMETER/DATA SYSTEM=HP-GC/MS/IRD
##STATE=gas
##XUNITS=1/CM
##YUNITS=ABSORBANCE
##XFACTOR=1.0
##YFACTOR=0.000007300
##DELTAX=4.0
##FIRSTX=550.0
##LASTX=3846.0
##FIRSTY=0.000840
##MAXX=3846
##MINX=550
##MAXY=0.073
##MINY=0
##NPOINTS=825
##XYDATA=(X++(Y..Y))
550.0 115 74 0 20 32 57 74 66 46 23
590.0 13 7 5 18 38 55 86 137 210 454
630.0 944 1229 970 566 363 314 348 416 517 666
670.0 889 1246 1824 2585 3426 4429 5454 5814 5126 3885
710.0 2770 2035 1651 1530 1641 1940 2278 2391 2188 1920
750.0 1825 1896 1913 1696 1309 939 688 546 483 468
790.0 470 450 392 317 254 224 217 228 263 327
830.0 420 554 748 1002 1241 1312 1116 784 506 347
870.0 277 250 243 257 298 377 487 623 818 1137
910.0 1634 2266 2783 2966 3098 3616 4117 3615 2289 1238
950.0 769 589 513 484 481 434 323 239 226 272
990.0 389 568 742 989 1320 1221 654 289 251 284
1030.0 259 177 122 105 95 104 141 189 250 303
1070.0 327 316 266 213 185 171 179 203 224 243
1110.0 262 276 282 295 307 321 361 432 524 602
1150.0 626 597 560 563 630 799 1159 1604 1713 1422
1190.0 1100 841 625 513 492 523 585 688 839 1063
1230.0 1377 1713 1953 2088 2266 2674 3463 4682 6209 7901
1270.0 9457 10000 9011 7259 5617 4268 3251 2686 2592 2885
1310.0 3226 3058 2360 1644 1169 870 678 551 466 424
1350.0 410 417 431 436 430 415 400 393 404 447
1390.0 548 711 864 867 701 507 379 309 277 278
1430.0 315 404 562 799 1012 990 766 561 476 471
1470.0 520 625 799 1015 1080 853 544 363 293 284
1510.0 311 345 351 318 286 285 307 341 382 428
1550.0 482 532 567 567 561 607 712 862 1048 1332
1590.0 1821 2525 3187 3409 3088 2420 1697 1158 867 735
1630.0 695 713 748 774 784 811 912 1123 1563 2447
1670.0 4079 6355 8183 8220 6385 4215 2652 1705 1179 895
1710.0 759 703 662 583 479 397 346 315 291 267
1750.0 245 225 208 198 191 195 201 202 204 227
1790.0 276 338 370 362 329 291 250 212 175 141
1830.0 114 95 84 80 77 77 83 90 100 114
1870.0 130 144 161 182 204 216 203 187 182 186
1910.0 194 204 214 217 213 205 201 208 219 233
1950.0 251 270 265 232 186 141 100 68 53 46
1990.0 42 38 34 32 31 28 27 30 34 34
2030.0 33 30 29 28 25 22 25 25 27 30
2070.0 28 26 31 32 28 22 17 15 13 8
2110.0 5 7 7 8 8 6 8 11 9 7
2150.0 7 8 11 13 15 16 18 17 18 19
2190.0 20 20 17 16 15 16 15 13 14 15
2230.0 15 15 16 16 17 19 20 21 21 23
2270.0 25 26 30 37 39 36 36 36 38 42
2310.0 51 66 71 60 44 37 39 45 45 41
2350.0 36 33 29 26 24 25 27 29 30 29
2390.0 31 35 42 48 55 62 67 66 59 51
2430.0 43 35 28 24 21 20 18 19 23 20
2470.0 16 13 11 14 15 17 16 17 18 21
2510.0 24 26 27 32 33 34 37 38 38 35
2550.0 30 28 28 25 28 27 28 33 32 35
2590.0 41 43 42 38 38 43 41 37 37 34
2630.0 29 27 25 24 23 19 15 14 12 10
2670.0 9 5 7 6 5 5 7 10 14 14
2710.0 13 11 11 13 17 20 22 31 42 48
2750.0 47 41 40 36 28 27 24 21 18 14
2790.0 14 17 17 13 14 16 17 18 20 24
2830.0 31 34 35 40 47 54 63 71 76 85
2870.0 94 106 115 112 104 90 78 70 62 57
2910.0 50 48 49 48 49 54 55 54 54 59
2950.0 66 67 66 72 79 89 100 107 112 124
2990.0 145 166 191 219 255 316 411 552 765 1089
3030.0 1525 1949 2053 1732 1352 1244 1375 1646 2084 2762
3070.0 3322 3174 2581 2217 2072 1855 1542 1230 974 767
3110.0 599 470 378 305 244 189 147 122 111 106
3150.0 104 100 97 85 66 49 38 33 30 33
3190.0 33 25 21 23 22 21 19 16 12 8
3230.0 12 16 13 14 15 14 15 15 16 17
3270.0 18 16 14 17 18 17 28 30 28 27
3310.0 28 34 40 49 58 78 108 122 126 122
3350.0 104 83 65 57 51 48 43 37 33 28
3390.0 24 22 21 20 21 23 16 8 7 7
3430.0 9 15 14 11 13 19 20 15 13 11
3470.0 13 12 10 12 11 13 12 15 18 8
3510.0 5 13 18 17 16 8 8 11 6 10
3550.0 11 7 8 15 15 13 10 9 11 11
3590.0 11 6 6 16 15 17 19 14 14 17
3630.0 24 25 20 18 22 25 32 34 31 30
3670.0 34 37 34 33 32 38 43 41 41 34
3710.0 28 29 33 35 34 32 27 18 21 31
3750.0 30 29 27 25 23 21 15 14 17 13
3790.0 5 7 11 13 19 20 18 18 22 21
3830.0 18 15 16 20 21
##END=
