##TITLE=D-Camphor-10-sulphonyl chloride
##JCAMP-DX=4.24
##DATA TYPE=INFRARED SPECTRUM
##ORIGIN=EPA-IR VAPOR PHASE LIBRARY
##OWNER=SRD/NIST
Collection (C) 2018 copyright by the U.S. Secretary of Commerce
on behalf of the United States of America. All rights reserved.
##CAS REGISTRY NO=21286-54-4
##MOLFORM=C 10 H 15 Cl O 3 S
##$NIST SOURCE=MSDC-IR
##STATE=gas
##XUNITS=1/CM
##YUNITS=ABSORBANCE
##XFACTOR=1.
##YFACTOR=0.001
##DELTAX=1.929
##FIRSTX=549.8
##LASTX=4000.8
##FIRSTY=1.354
##MAXX=4000.75
##MINX=549.766
##MAXY=0.030044
##MINY=0
##NPOINTS=1790
##XYDATA=(X++(Y..Y))
549.766 1.354 1.1196 1.1304 1.114 1.0565 1.1864 1.0342 1.264 1.634 1.374
569.056 1.294 1.594 1.704 1.744 1.584 1.324 1.244 1.1247 0.9416 0.7487
588.346 0.5555 0.5844 0.4277 0.25001 0.2832 0.22954 0.1788 0.3914 0.5415 0.5125
607.636 0.4488 0.3844 0.3876 0.4765 0.4888 0.4573 0.4625 0.4442 0.4281 0.4577
626.926 0.5304 0.5701 0.6627 0.6929 0.6668 0.714 0.6441 0.6712 0.8206 0.7746
646.216 0.7258 0.5608 0.4032 0.4925 0.5624 0.4249 0.26356 0.3284 0.4196 0.3935
665.506 0.2238 0.1794 0.28902 0.1399 0 0.042 0.111 0.1977 0.31021 0.5503
684.796 0.6712 0.5547 0.3889 0.30451 0.29906 0.33178 0.3368 0.4014 0.6059 0.6232
704.086 0.6206 0.7731 0.8119 0.8246 0.9992 1.0924 1.2325 1.494 1.734 1.924
723.376 2.214 2.564 2.864 3.274 3.694 4.034 4.404 4.704 4.844 4.924
742.666 5.034 5.124 5.134 5.164 5.234 5.214 5.214 5.244 5.204 4.944
761.956 4.514 4.044 3.644 3.174 2.604 2.094 1.724 1.554 1.364 1.0655
781.246 0.9146 0.7821 0.5628 0.5424 0.5514 0.5247 0.5683 0.5816 0.506 0.4616
800.536 0.4012 0.30483 0.32478 0.3436 0.398 0.2688 0.5422 0.9973 0.7637 0.5782
819.826 0.3498 0.237933 0.25128 0.1741 0.29706 0.3755 0.3745 0.4069 0.3749 0.4042
839.116 0.5146 0.5082 0.5674 0.6522 0.729 0.8578 0.9543 0.966 0.8438 0.7926
858.406 0.7872 0.7088 0.5903 0.5452 0.592 0.5161 0.3828 0.3821 0.4884 0.5519
877.696 0.5381 0.4575 0.4514 0.4932 0.4725 0.4579 0.3986 0.3841 0.4334 0.446
896.986 0.3727 0.3494 0.3879 0.3729 0.30972 0.29484 0.28889 0.3634 0.4073 0.3344
916.276 0.26827 0.3752 0.5687 0.532 0.6115 0.782 0.7952 0.8395 0.9074 0.8411
935.566 0.7736 0.7512 0.7385 0.7342 0.6859 0.6163 0.659 0.6613 0.5961 0.6129
954.856 0.6478 0.7008 0.6795 0.6797 0.7181 0.7066 0.7615 0.756 0.8189 0.8394
974.146 0.7308 0.7748 0.7296 0.6349 0.6364 0.6386 0.6315 0.5706 0.5387 0.5916
993.436 0.6033 0.5984 0.6243 0.6073 0.6489 0.6797 0.7161 0.7535 0.7968 0.8792
1012.726 0.9484 1.0094 1.0224 1.1541 1.274 1.324 1.474 1.644 1.714 1.774
1032.016 1.954 2.174 2.464 2.764 3.064 3.354 3.714 4.074 4.264 4.324
1051.306 4.264 4.094 3.814 3.494 3.054 2.504 1.984 1.574 1.244 1.0141
1070.596 0.86 0.7508 0.6817 0.5722 0.4774 0.3676 0.31622 0.31746 0.29174 0.3774
1089.886 0.4157 0.28579 0.2938 0.3342 0.28117 0.26811 0.30367 0.29059 0.27759 0.28301
1109.176 0.29949 0.29985 0.27868 0.3542 0.469 0.5677 0.551 0.5453 0.6563 0.6975
1128.467 0.6898 0.6051 0.4788 0.4581 0.4626 0.4544 0.4775 0.4378 0.29945 0.32682
1147.757 0.4067 0.4109 0.5814 0.7624 0.7012 0.7066 0.7891 0.7781 0.8277 0.8497
1167.047 0.9121 0.93 0.8019 0.724 0.8035 0.8919 0.8958 1.0272 1.1714 1.215
1186.337 1.2228 1.234 1.344 1.524 1.674 1.704 1.594 1.514 1.574 1.614
1205.627 1.624 1.684 1.554 1.464 1.514 1.594 1.644 1.534 1.344 1.1282
1224.917 1.0547 0.9374 0.7137 0.5639 0.5767 0.5842 0.4937 0.4602 0.526 0.626
1244.207 0.6524 0.6005 0.5488 0.5123 0.5291 0.5803 0.5455 0.4948 0.5673 0.6411
1263.497 0.7467 0.9061 1.0117 1.126 1.294 1.594 1.874 2.194 2.614 3.054
1282.787 3.474 3.804 4.164 4.414 4.544 4.664 4.784 4.844 4.804 4.724
1302.077 4.494 4.204 4.024 3.874 3.734 3.624 3.474 3.354 3.204 2.994
1321.367 2.734 2.414 2.104 1.884 1.684 1.394 1.1482 1.0372 0.8837 0.7208
1340.657 0.6817 0.701 0.6159 0.4658 0.4487 0.544 0.608 0.6289 0.6118 0.6328
1359.947 0.7041 0.831 1.0026 1.18 1.344 1.494 1.694 1.874 2.144 2.404
1379.237 2.474 2.474 2.534 2.664 2.774 2.834 2.914 3.014 3.114 3.054
1398.527 2.774 2.534 2.384 2.134 1.864 1.764 1.834 2.024 2.384 2.814
1417.817 3.124 3.394 3.704 3.914 3.784 3.514 3.364 3.194 2.944 2.784
1437.107 2.684 2.694 2.804 2.954 3.074 3.144 3.174 3.204 3.224 3.144
1456.397 2.994 2.884 2.784 2.644 2.494 2.394 2.354 2.304 2.314 2.334
1475.687 2.284 2.274 2.234 2.144 2.054 1.904 1.764 1.614 1.454 1.364
1494.977 1.1926 1.0158 0.9173 0.7486 0.6249 0.5273 0.4516 0.413 0.3778 0.4177
1514.267 0.4047 0.3629 0.3658 0.3493 0.32184 0.30784 0.29575 0.29638 0.30081 0.29331
1533.557 0.28602 0.26411 0.1936 0.1704 0.1954 0.1744 0.2059 0.27389 0.25714 0.22806
1552.847 0.2167 0.1927 0.125 0.121 0.2116 0.2225 0.234712 0.24865 0.1993 0.1732
1572.137 0.2095 0.1794 0.1473 0.1845 0.1978 0.24516 0.27932 0.233286 0.2174 0.2232
1591.427 0.23296 0.2099 0.1804 0.1705 0.1774 0.243419 0.28268 0.28158 0.27009 0.2611
1610.717 0.242809 0.2158 0.178 0.1692 0.24421 0.27383 0.2786 0.26326 0.25279 0.24884
1630.007 0.25738 0.29348 0.2769 0.28493 0.30369 0.31543 0.3392 0.31584 0.32173 0.3598
1649.297 0.3741 0.352 0.3842 0.4438 0.4279 0.398 0.3682 0.3863 0.4719 0.4946
1668.587 0.4684 0.5001 0.4987 0.4758 0.4699 0.4296 0.4342 0.4482 0.4825 0.5388
1687.877 0.5198 0.5201 0.6144 0.6479 0.6348 0.6798 0.7355 0.8385 0.9069 1.0156
1707.167 1.0816 1.125 1.244 1.294 1.384 1.504 1.624 1.784 1.944 2.154
1726.457 2.444 2.824 3.334 3.994 4.924 6.014 7.324 9.134 11.144 13.434
1745.747 15.974 18.684 21.464 24.184 26.534 28.344 29.584 30.044 29.624 28.484
1765.037 26.664 24.244 21.414 18.484 15.444 12.664 10.234 8.094 6.414 5.134
1784.327 4.124 3.364 2.854 2.474 2.184 1.964 1.754 1.534 1.394 1.324
1803.617 1.264 1.1651 1.0209 0.9328 0.8905 0.8217 0.7873 0.7451 0.694 0.645
1822.907 0.6044 0.5891 0.5734 0.5741 0.5499 0.5417 0.5392 0.4997 0.4419 0.4236
1842.197 0.4314 0.4378 0.4354 0.4354 0.4102 0.3963 0.4021 0.4027 0.408 0.4334
1861.487 0.4389 0.4116 0.4106 0.3915 0.3712 0.3606 0.3556 0.366 0.3513 0.32376
1880.777 0.31897 0.30862 0.30354 0.3 0.29461 0.31165 0.32305 0.31253 0.32687 0.3396
1900.067 0.31806 0.29391 0.29444 0.31206 0.31682 0.345 0.32723 0.25688 0.24975 0.27428
1919.357 0.28715 0.29053 0.3006 0.30116 0.29665 0.29268 0.32664 0.3489 0.31043 0.31383
1938.647 0.30553 0.27984 0.27655 0.25497 0.2447 0.24675 0.25104 0.24457 0.24609 0.25818
1957.937 0.26169 0.243703 0.1957 0.1936 0.212 0.2122 0.24726 0.27359 0.24466 0.1835
1977.227 0.2183 0.243436 0.2204 0.25924 0.26697 0.241929 0.2188 0.2221 0.2442 0.27439
1996.517 0.237625 0.22429 0.26999 0.26235 0.27261 0.32178 0.30981 0.2613 0.22898 0.22809
2015.807 0.28206 0.30381 0.25305 0.23101 0.242199 0.25416 0.27355 0.28315 0.27518 0.2195
2035.097 0.2037 0.25853 0.27146 0.25712 0.28883 0.27615 0.25486 0.28256 0.29982 0.32419
2054.387 0.29122 0.27021 0.30393 0.30794 0.2697 0.24896 0.25562 0.24692 0.239019 0.2124
2073.677 0.24729 0.30173 0.30279 0.26914 0.24921 0.243116 0.31415 0.3499 0.30373 0.31729
2092.967 0.2665 0.22682 0.26572 0.26639 0.26244 0.29675 0.29664 0.27789 0.26238 0.26824
2112.257 0.30714 0.28793 0.24566 0.25683 0.233612 0.22 0.27991 0.32297 0.31559 0.26836
2131.547 0.238746 0.24944 0.25797 0.30242 0.29711 0.26097 0.2258 0.23104 0.2674 0.25158
2150.837 0.25734 0.25103 0.235288 0.241046 0.23161 0.25647 0.29424 0.25534 0.26613 0.3037
2170.127 0.31743 0.32045 0.28655 0.2506 0.24444 0.2721 0.29605 0.28571 0.26881 0.25545
2189.417 0.27776 0.27934 0.26468 0.29436 0.28533 0.27699 0.25835 0.25562 0.26799 0.27478
2208.707 0.26682 0.2539 0.24411 0.242565 0.28606 0.28298 0.27003 0.28881 0.30796 0.29224
2227.997 0.26335 0.26282 0.27203 0.28872 0.32127 0.30418 0.26402 0.26515 0.27434 0.28251
2247.287 0.28569 0.24948 0.25241 0.27947 0.27985 0.3235 0.3741 0.32458 0.26515 0.29093
2266.577 0.31414 0.31853 0.30816 0.28667 0.2642 0.25646 0.26355 0.26553 0.28264 0.28854
2285.868 0.27307 0.27493 0.29802 0.3274 0.31592 0.32622 0.32122 0.33275 0.3482 0.32748
2305.158 0.3535 0.3455 0.32073 0.31718 0.3167 0.31604 0.30792 0.3354 0.31369 0.24894
2324.448 0.3116 0.3936 0.4122 0.3674 0.3535 0.3765 0.32439 0.25757 0.23803 0.26445
2343.738 0.27316 0.265 0.30636 0.31976 0.30327 0.3128 0.28463 0.28128 0.29028 0.32018
2363.028 0.30933 0.24642 0.240563 0.27632 0.27989 0.25637 0.233592 0.2166 0.25087 0.29739
2382.318 0.28562 0.277 0.26869 0.261 0.25165 0.26377 0.30444 0.29356 0.27603 0.29784
2401.608 0.28302 0.26924 0.29318 0.29004 0.3015 0.28699 0.29006 0.319 0.2997 0.26592
2420.898 0.24552 0.27469 0.27877 0.2836 0.31923 0.30401 0.29283 0.26768 0.25035 0.2237
2440.188 0.1915 0.238509 0.27691 0.28936 0.27801 0.25797 0.22658 0.233418 0.28168 0.31135
2459.478 0.3433 0.31029 0.25643 0.28097 0.33146 0.3721 0.3588 0.32136 0.3368 0.3172
2478.768 0.31818 0.3649 0.4001 0.3611 0.30909 0.3418 0.3583 0.27952 0.243843 0.29669
2498.058 0.30119 0.28211 0.29887 0.3434 0.3531 0.3541 0.3392 0.32353 0.3356 0.3212
2517.348 0.32697 0.3446 0.3498 0.3521 0.32067 0.29099 0.27805 0.25308 0.30662 0.30949
2536.638 0.3392 0.3701 0.31799 0.33104 0.3054 0.30588 0.3375 0.28145 0.27541 0.3415
2555.928 0.3359 0.31941 0.3628 0.31933 0.278 0.3597 0.3607 0.33006 0.3385 0.3662
2575.218 0.3789 0.4086 0.408 0.30704 0.28356 0.28996 0.3341 0.3928 0.4067 0.391
2594.508 0.32735 0.30995 0.3218 0.29544 0.29617 0.4321 0.4511 0.31896 0.31345 0.3605
2613.798 0.404 0.4075 0.3517 0.29114 0.241614 0.28731 0.31192 0.29575 0.3476 0.3692
2633.088 0.3658 0.3613 0.3369 0.3595 0.3503 0.3255 0.31011 0.3482 0.3738 0.32362
2652.378 0.31322 0.3414 0.30056 0.27203 0.3635 0.4034 0.3608 0.3486 0.3931 0.354
2671.668 0.30812 0.3701 0.3441 0.32707 0.4394 0.4823 0.4058 0.3173 0.33076 0.3886
2690.958 0.3914 0.33147 0.30866 0.3519 0.3653 0.3935 0.4495 0.4552 0.4079 0.3917
2710.248 0.3655 0.3509 0.3996 0.4214 0.4494 0.4211 0.3822 0.4183 0.4676 0.439
2729.538 0.4019 0.4631 0.5197 0.5039 0.4875 0.5219 0.598 0.6246 0.573 0.5835
2748.828 0.6194 0.5837 0.6149 0.6422 0.6019 0.5444 0.5149 0.5281 0.4639 0.4476
2768.118 0.5317 0.5808 0.5811 0.5864 0.6065 0.6339 0.5665 0.5988 0.6111 0.5338
2787.408 0.568 0.6497 0.6824 0.6382 0.5943 0.5754 0.5699 0.5747 0.6031 0.6106
2806.698 0.6109 0.6137 0.595 0.6018 0.6427 0.6842 0.7107 0.7218 0.7708 0.8419
2825.988 0.8042 0.7089 0.7761 0.8685 0.8928 0.9995 1.0019 0.9245 0.9165 0.9603
2845.278 1.0095 0.9941 1.0725 1.1178 1.1795 1.324 1.344 1.374 1.494 1.734
2864.568 1.934 2.034 2.254 2.574 2.884 3.204 3.574 4.004 4.444 4.844
2883.858 5.294 5.724 6.064 6.314 6.574 6.684 6.704 6.814 6.684 6.484
2903.148 6.364 6.174 6.004 5.874 5.804 5.814 5.884 5.964 6.034 6.214
2922.438 6.514 6.904 7.254 7.724 8.184 8.654 9.234 9.624 10.134 10.824
2941.728 11.604 12.614 13.734 14.954 16.184 17.284 18.464 19.624 20.294 20.674
2961.018 21.074 21.454 21.704 21.854 21.844 21.344 20.544 19.764 18.844 17.454
2980.308 15.734 14.004 12.354 10.814 9.574 8.524 7.624 7.024 6.494 6.054
2999.598 5.664 5.214 4.624 3.934 3.444 3.064 2.584 2.084 1.824 1.644
3018.888 1.484 1.274 1.075 1.0103 0.8793 0.8252 0.8105 0.7374 0.771 0.8419
3038.178 0.7671 0.713 0.6645 0.7049 0.7202 0.6262 0.6593 0.7086 0.7209 0.6562
3057.468 0.5663 0.528 0.5269 0.6014 0.7066 0.6807 0.6773 0.6922 0.661 0.6703
3076.758 0.652 0.5748 0.5892 0.6482 0.5573 0.4946 0.5207 0.4759 0.5188 0.6197
3096.048 0.674 0.6057 0.4623 0.454 0.5462 0.5404 0.5372 0.5877 0.6332 0.6125
3115.338 0.529 0.5778 0.5531 0.4659 0.5423 0.5816 0.4927 0.4479 0.4019 0.4938
3134.628 0.4844 0.28931 0.32981 0.4544 0.4407 0.5332 0.5295 0.4291 0.5092 0.4991
3153.918 0.4496 0.4682 0.4332 0.4163 0.481 0.5275 0.4861 0.4512 0.4438 0.3766
3173.208 0.4064 0.465 0.3459 0.3872 0.5256 0.4875 0.375 0.3558 0.4281 0.3445
3192.498 0.335 0.4378 0.3785 0.3365 0.3871 0.3464 0.30045 0.3405 0.3581 0.3799
3211.788 0.3171 0.2024 0.237619 0.26934 0.33376 0.3972 0.3988 0.4092 0.4343 0.5378
3231.078 0.5351 0.4103 0.3682 0.30822 0.25437 0.27861 0.24994 0.26542 0.30899 0.31836
3250.368 0.26897 0.30646 0.3359 0.29347 0.31812 0.27132 0.27696 0.3371 0.3613 0.32792
3269.658 0.233842 0.24405 0.349 0.3392 0.26043 0.27968 0.2217 0.22586 0.32702 0.2003
3288.948 0.094 0.123 0.1948 0.2037 0.1916 0.25559 0.2722 0.2449 0.1788 0.115
3308.238 0.063 0.111 0.2102 0.1688 0.1773 0.22952 0.2069 0.1772 0.27434 0.3869
3327.528 0.3123 0.2046 0.2067 0.3655 0.3953 0.31576 0.3542 0.4101 0.3741 0.32628
3346.818 0.3435 0.4287 0.4212 0.30436 0.32916 0.25744 0.172 0.22625 0.2139 0.1488
3366.108 0.18 0.25045 0.26633 0.27754 0.2072 0.24544 0.32262 0.4025 0.3849 0.2183
3385.398 0.236273 0.22787 0.1539 0.283 0.4305 0.29574 0.2168 0.31671 0.3501 0.3539
3404.688 0.33115 0.30877 0.3433 0.3777 0.3639 0.24632 0.1783 0.2157 0.22878 0.26465
3423.978 0.25054 0.24421 0.25541 0.22846 0.27379 0.4017 0.4372 0.4002 0.338 0.3476
3443.269 0.32645 0.29683 0.3497 0.3391 0.2222 0.135 0.33112 0.3957 0.3542 0.396
3462.559 0.31583 0.3494 0.3978 0.3735 0.3693 0.3626 0.266 0.23271 0.3784 0.451
3481.849 0.4684 0.4917 0.4738 0.5272 0.6726 0.6625 0.6185 0.6218 0.5608 0.5645
3501.139 0.6247 0.6419 0.7088 0.7152 0.6809 0.6386 0.5339 0.5061 0.4861 0.431
3520.429 0.4011 0.4262 0.4107 0.32495 0.31646 0.31492 0.27758 0.31426 0.3394 0.3392
3539.719 0.3432 0.3533 0.30306 0.30774 0.22623 0.1569 0.2052 0.2144 0.27298 0.25565
3559.009 0.25007 0.238728 0.214 0.2606 0.30524 0.26834 0.1947 0.1576 0.1697 0.2069
3578.299 0.1723 0.162 0.239667 0.1548 0.124 0.122 0.053 0.102 0.116 0.133
3597.589 0.129 0.1606 0.2043 0.1542 0.07 0.067 0.1487 0.1914 0.31784 0.4193
3616.879 0.3871 0.23094 0.1697 0.2978 0.27657 0.2067 0.1868 0.1711 0.1918 0.22446
3636.169 0.30005 0.3372 0.26646 0.131 0.1361 0.214 0.1424 0.1662 0.1577 0.116
3655.459 0.1896 0.1891 0.2238 0.1968 0.2158 0.2067 0.122 0.2204 0.2188 0.24574
3674.749 0.28692 0.24701 0.1653 0.1348 0.25886 0.30084 0.22622 0.161 0.1541 0.175
3694.039 0.1375 0.2051 0.31856 0.22547 0.1803 0.23755 0.31087 0.31014 0.23185 0.26681
3713.329 0.24633 0.22968 0.33054 0.27378 0.2072 0.218 0.1744 0.15 0.1857 0.28328
3732.619 0.29644 0.2227 0.27958 0.3686 0.28767 0.1776 0.27814 0.3907 0.3514 0.3386
3751.909 0.31067 0.31086 0.32074 0.30252 0.31408 0.233734 0.27507 0.25034 0.108 0.131
3771.199 0.1597 0.1472 0.054 0.046 0.2583 0.4007 0.448 0.3618 0.24668 0.29571
3790.489 0.325 0.25934 0.238895 0.3638 0.4657 0.4995 0.467 0.26668 0.1483 0.1793
3809.779 0.3516 0.4655 0.3906 0.32491 0.2043 0.1589 0.2222 0.3662 0.4433 0.4261
3829.069 0.4009 0.3389 0.28565 0.32982 0.33307 0.2205 0.2022 0.233021 0.22814 0.30469
3848.359 0.2921 0.1848 0.29149 0.5613 0.4981 0.32968 0.3005 0.26143 0.22429 0.25573
3867.649 0.30813 0.31252 0.28855 0.27282 0.29063 0.29036 0.3425 0.28965 0.242692 0.31157
3886.939 0.30978 0.30598 0.378 0.29238 0.2077 0.27547 0.240538 0.26212 0.4043 0.3501
3906.229 0.1895 0.1777 0.2115 0.1793 0.26379 0.4039 0.33267 0.2945 0.30368 0.1956
3925.519 0.1573 0.1835 0.1565 0.125 0.166 0.2108 0.31566 0.3972 0.3416 0.4035
3944.809 0.3718 0.2062 0.1977 0.23244 0.31688 0.4119 0.3986 0.25798 0.1924 0.4119
3964.099 0.4556 0.3434 0.243545 0.26919 0.31366 0.25312 0.3564 0.3818 0.27885 0.30449
3983.389 0.3985 0.4156 0.4229 0.3502 0.31869 0.30965 0.3385 0.3597 0.3387 0.3936
##END=
