##TITLE=Pentadecylbenzene
##JCAMP-DX=4.24
##DATA TYPE=INFRARED SPECTRUM
##ORIGIN=NIST Mass Spectrometry Data Center
##OWNER=NIST Standard Reference Data Program
Collection (C) 2018 copyright by the U.S. Secretary of Commerce
on behalf of the United States of America. All rights reserved.
##CAS REGISTRY NO=2131-18-2
##MOLFORM=C 21 H 36
##$NIST SOURCE=MSDC-IR
##SPECTROMETER/DATA SYSTEM=HP-GC/MS/IRD
##STATE=gas
##XUNITS=1/CM
##YUNITS=ABSORBANCE
##XFACTOR=1.0
##YFACTOR=0.000007700
##DELTAX=4.0
##FIRSTX=550.0
##LASTX=3846.0
##FIRSTY=0.000069
##MAXX=3846
##MINX=550
##MAXY=0.077
##MINY=0
##NPOINTS=825
##XYDATA=(X++(Y..Y))
550.0 9 9 20 32 51 54 32 22 29 25
590.0 6 8 14 10 10 6 3 6 4 0
630.0 4 12 17 22 22 28 42 52 61 77
670.0 116 163 210 274 382 552 755 826 735 623
710.0 554 528 523 525 542 576 616 632 598 510
750.0 402 312 247 194 155 132 112 94 83 73
790.0 60 59 56 52 52 49 49 45 38 36
830.0 36 32 31 34 32 30 31 32 34 36
870.0 37 39 38 39 41 47 53 57 65 65
910.0 63 57 43 40 34 28 23 25 28 30
950.0 29 30 31 30 27 29 31 30 31 33
990.0 32 35 40 41 43 49 56 68 92 129
1030.0 152 127 86 70 62 58 61 70 81 83
1070.0 81 79 76 72 67 61 54 51 49 47
1110.0 46 46 42 37 35 31 26 22 25 29
1150.0 31 29 26 28 29 27 33 39 38 40
1190.0 43 43 48 47 43 40 42 42 40 43
1230.0 48 53 55 56 57 61 62 62 68 72
1270.0 78 84 89 98 106 118 134 145 153 160
1310.0 161 155 150 148 153 166 183 204 239 276
1350.0 295 294 278 252 235 211 185 172 159 138
1390.0 116 99 88 88 89 93 97 99 115 143
1430.0 178 225 300 412 531 642 711 752 756 690
1470.0 569 439 346 298 295 340 405 399 295 171
1510.0 100 76 58 50 49 48 45 36 28 30
1550.0 33 28 21 33 45 48 55 68 89 108
1590.0 128 154 184 200 189 144 91 58 45 36
1630.0 29 22 22 22 18 10 7 16 17 11
1670.0 10 11 9 1 2 10 4 0 2 9
1710.0 10 5 4 14 18 13 7 12 15 12
1750.0 6 7 9 9 7 7 15 24 29 36
1790.0 43 45 41 30 24 21 17 15 13 9
1830.0 8 10 12 12 13 21 26 28 31 29
1870.0 29 31 28 25 21 16 14 12 10 12
1910.0 12 15 18 22 29 36 42 43 41 42
1950.0 40 34 24 14 8 6 6 7 7 6
1990.0 5 5 4 4 7 7 9 9 10 12
2030.0 10 9 8 9 9 8 8 5 3 2
2070.0 2 3 4 3 1 2 2 1 2 3
2110.0 2 1 1 2 0 1 3 2 1 2
2150.0 3 4 3 2 1 1 2 3 3 2
2190.0 4 4 3 4 4 3 3 2 1 0
2230.0 2 3 4 5 4 3 5 6 4 3
2270.0 4 5 5 4 3 4 5 5 4 6
2310.0 8 7 5 4 5 4 3 7 5 3
2350.0 5 7 4 0 2 3 3 4 7 8
2390.0 7 8 9 8 7 8 7 9 10 10
2430.0 11 9 9 10 11 10 9 10 9 7
2470.0 9 11 10 11 13 13 13 15 16 17
2510.0 17 20 23 24 23 24 27 27 24 25
2550.0 26 24 30 30 30 32 35 38 38 39
2590.0 44 46 46 47 47 49 52 55 59 62
2630.0 64 65 68 70 72 74 77 81 83 86
2670.0 91 96 96 98 97 95 94 89 83 82
2710.0 85 86 87 87 88 91 96 101 103 107
2750.0 109 112 116 121 127 135 144 153 167 180
2790.0 198 217 235 254 277 302 335 374 416 467
2830.0 532 621 749 943 1255 1751 2479 3276 3736 3621
2870.0 3133 2606 2219 1996 1881 1847 1921 2126 2467 2928
2910.0 3502 4228 5231 6651 8361 9732 10000 9051 7421 5706
2950.0 4291 3318 2749 2453 2260 2008 1651 1282 1003 808
2990.0 678 591 537 508 493 485 500 544 625 728
3030.0 808 802 699 567 476 433 427 464 543 643
3070.0 690 628 523 451 404 361 313 269 238 211
3110.0 180 153 126 103 87 76 69 64 61 59
3150.0 57 56 55 51 47 46 44 43 42 40
3190.0 38 38 34 33 31 28 28 24 21 23
3230.0 22 19 18 19 20 19 20 21 20 18
3270.0 15 17 18 17 18 17 15 14 16 16
3310.0 14 17 18 15 16 19 19 15 16 20
3350.0 19 16 15 13 12 14 18 16 16 18
3390.0 15 15 16 13 15 16 15 17 14 15
3430.0 15 12 11 10 8 10 14 15 13 13
3470.0 13 12 13 13 12 11 13 11 7 9
3510.0 10 9 12 10 7 9 4 5 3 2
3550.0 8 11 10 7 0 2 9 7 10 9
3590.0 9 15 16 15 10 7 12 15 19 16
3630.0 9 18 22 23 20 19 23 26 26 26
3670.0 17 15 21 26 21 17 22 24 25 25
3710.0 19 16 20 19 17 21 16 12 12 9
3750.0 14 19 23 21 22 24 26 27 29 29
3790.0 31 28 26 26 27 27 25 24 27 33
3830.0 35 28 23 27 31
##END=
