##TITLE=3-Carboxyphenyl isothiocyanate
##JCAMP-DX=4.24
##DATA TYPE=INFRARED SPECTRUM
##ORIGIN=EPA-IR VAPOR PHASE LIBRARY
##OWNER=SRD/NIST
Collection (C) 2018 copyright by the U.S. Secretary of Commerce
on behalf of the United States of America. All rights reserved.
##CAS REGISTRY NO=2131-63-7
##MOLFORM=C 8 H 5 N O 2 S
##$NIST SOURCE=MSDC-IR
##STATE=gas
##XUNITS=1/CM
##YUNITS=ABSORBANCE
##XFACTOR=1.
##YFACTOR=0.001
##DELTAX=1.92898
##FIRSTX=549.8
##LASTX=4000.7
##FIRSTY=8.83
##MAXX=4000.7
##MINX=549.759
##MAXY=0.12202
##MINY=0
##NPOINTS=1790
##XYDATA=(X++(Y..Y))
549.759 8.83 9.01 8.94 8.72 8.83 8.84 8.58 8.6 8.81 9.09
569.049 9.26 9.54 9.81 10.05 10.38 10.92 11.4 11.53 11.79 11.95
588.339 11.73 11.09 10.08 9.2 8.33 7.5 6.73 5.85 4.97 4.41
607.628 4.01 3.62 3.5 3.42 3.43 3.51 4.1 4.98 6.29 8.9
626.918 11.95 14.15 15.53 16.38 16.37 15.09 13.3 11.43 9.16 7.13
646.208 5.92 5.02 4.18 3.79 3.55 3.18 2.98 3.13 3.22 3.18
665.498 3.25 3.3 3.66 4.23 4.84 5.69 6.94 8.32 9.73 11.02
684.787 11.97 12.32 12.2 11.52 10.07 8.46 6.83 5.25 3.98 3.13
704.077 2.53 2.26 2.09 1.96 2.06 2 1.84 1.9 1.92 2.25
723.367 2.38 2.11 2.26 2.66 3.05 3.55 4.15 5.22 6.68 8.2
742.657 9.76 11.47 13.21 14.76 16.5 18.32 18.99 17.74 15.88 14.29
761.947 12.78 11.17 9.62 8.07 6.55 5.53 5.14 4.9 4.61 4.53
781.236 4.64 4.98 5.11 5.23 5.43 5.69 5.93 5.86 5.74 5.49
800.526 5.17 5.04 4.79 4.32 3.97 3.8 3.66 3.19 2.71 2.38
819.816 2.04 1.89 1.9 1.72 1.48 1.2123 1.2217 1.3305 1.3264 1.3889
839.106 1.2568 1.1242 0.8408 0.8437 0.9675 0.9421 1.1689 1.2243 1.118 1.0562
858.395 0.9465 0.8466 0.815 0.7971 0.9051 1.0015 0.9322 1.0886 1.1672 0.9702
877.685 0.8744 0.9074 1.1471 1.3011 1.44 1.6 1.77 2.12 2.41 2.65
896.975 2.98 3.27 3.48 3.6 3.51 3.45 3.36 3.04 2.65 2.49
916.265 2.33 2.1 1.92 1.66 1.51 1.47 1.3387 1.3436 1.3765 1.243
935.555 1.3729 1.52 1.3368 1.47 1.78 1.65 1.52 1.62 1.73 1.63
954.844 1.61 1.77 1.94 2.07 1.97 1.89 2.12 2.41 2.72 2.9
974.134 2.9 3 3.1 3.12 3.14 3.09 3 2.79 2.39 2.28
993.424 2.44 2.44 2.35 2.23 2.13 2.17 1.97 1.73 1.74 1.88
1012.714 2 1.89 1.83 1.76 1.58 1.66 2.03 2.02 1.92 2.27
1032.003 2.62 2.58 2.47 2.39 2.38 2.65 2.84 3.25 3.97 4.69
1051.293 5.35 6.06 7.15 8.86 10.19 10.61 11.01 11.33 11.53 11.77
1070.583 11.92 11.42 11.33 11.35 11.38 12.34 13.4 14.54 15.96 16.63
1089.873 16.38 15.62 14.53 12.89 10.07 7.75 6.46 5.64 5.07 4.56
1109.163 4.58 4.71 4.66 4.92 4.98 5.28 5.72 5.86 6.03 6.42
1128.452 7.02 7.68 8.56 9.36 10.25 11.7 13.38 15.16 16.71 18.2
1147.742 19.8 22.1 24.46 26.56 28.61 30.15 31.22 31.43 31.55 31.77
1167.032 31.71 31.09 30.46 30.39 30.23 29.36 27.54 24.89 21.81 18.6
1186.322 15.25 12.39 10.18 8.19 6.66 5.96 5.32 4.41 4.11 3.83
1205.611 3.38 3.2 2.91 2.95 3.01 2.93 2.83 2.77 2.83 2.72
1224.901 2.58 2.92 3.2 3.12 3.03 3.14 3.5 3.74 4.02 4.26
1244.191 4.37 4.64 4.98 5.15 5.25 5.41 5.49 5.57 5.8 5.77
1263.481 5.87 6.01 5.9 5.88 5.58 5.36 5.33 5.21 5.16 5.18
1282.771 5.14 5.22 5.24 5.22 5.47 5.75 6.01 6.43 6.89 7.28
1302.060 7.8 8.37 8.92 9.44 9.97 10.53 11.12 11.84 12.53 13.15
1321.350 13.88 14.51 14.92 15.18 15.17 14.74 14.1 13.25 12.16 11.09
1340.640 10.08 9.18 8.51 8.07 7.93 8.04 8.36 9.03 9.94 10.93
1359.930 11.87 12.56 12.82 12.66 12.13 11.15 9.85 8.35 6.96 5.89
1379.219 5.03 4.28 3.77 3.44 3.21 3.07 2.88 2.79 2.74 2.62
1398.509 2.47 2.37 2.33 2.3 2.25 2.22 2.24 2.35 2.53 2.76
1417.799 3 3.2 3.54 4.07 4.63 5.24 5.98 6.91 8.03 9.24
1437.089 10.33 11.09 11.55 11.57 11.09 10.14 8.7 7.12 5.56 4.24
1456.378 3.38 2.88 2.65 2.62 2.73 2.95 3.23 3.57 3.97 4.48
1475.668 5.06 5.58 5.96 6.12 6.21 6.14 5.82 5.27 4.69 4.14
1494.958 3.52 3.01 2.6 2.2 1.91 1.82 1.74 1.59 1.5 1.4177
1514.248 1.3406 1.2871 1.2299 1.198 1.1552 1.1113 1.1516 1.2341 1.2608 1.285
1533.538 1.2487 1.26 1.3208 1.3199 1.3578 1.5 1.58 1.57 1.7 1.89
1552.827 2.07 2.29 2.56 2.89 3.29 3.75 4.28 4.98 5.88 6.83
1572.117 7.89 9.12 10.47 11.73 12.67 13.38 13.82 13.88 13.57 13.06
1591.407 12.55 11.91 11.36 11.06 10.72 10.37 9.86 9.17 8.42 7.58
1610.697 6.58 5.64 4.83 4.06 3.43 3.04 2.82 2.62 2.39 2.23
1629.986 2.15 2.05 1.99 1.91 1.76 1.68 1.7 1.78 1.75 1.61
1649.276 1.69 1.79 1.74 1.72 1.73 1.76 1.74 1.66 1.63 1.7
1668.566 1.7 1.69 1.71 1.67 1.76 1.79 1.72 1.7 1.77 1.88
1687.856 2 2.09 2.13 2.35 2.61 2.74 3.02 3.41 3.7 3.92
1707.146 4.15 4.33 4.56 4.72 4.82 5.02 5.26 5.51 5.82 6.07
1726.435 6.24 6.32 6.22 6.08 6.04 6.14 6.47 7.12 8.03 9.29
1745.725 11.23 14.03 17.8 22.98 29.9 38.75 49.54 60.51 69.53 74.84
1765.015 76.37 74.88 69.67 60.01 46.51 33.82 24.44 18.09 13.85 10.9
1784.305 8.92 7.66 6.88 6.37 6.11 5.92 5.94 6 5.88 5.74
1803.594 5.54 5.2 4.84 4.48 4.18 3.97 3.83 3.72 3.59 3.53
1822.884 3.51 3.41 3.2 2.99 2.85 2.67 2.47 2.27 2.13 2.02
1842.174 1.92 1.83 1.73 1.68 1.65 1.57 1.58 1.62 1.63 1.63
1861.464 1.66 1.67 1.69 1.75 1.8 1.86 1.85 1.92 2.04 2.12
1880.754 2.3 2.45 2.53 2.64 2.76 2.88 3.05 3.14 3.22 3.32
1900.043 3.4 3.5 3.69 3.88 4.08 4.31 4.6 4.98 5.35 5.72
1919.333 6.16 6.62 7.15 7.79 8.47 9.21 9.94 10.65 11.38 12.22
1938.623 13.01 13.75 14.65 15.52 16.34 17.11 17.78 18.54 19.4 20.14
1957.913 20.83 21.6 22.35 23.17 24.06 24.98 25.97 26.98 28.09 29.36
1977.202 30.71 32.15 33.74 35.55 37.44 39.44 41.64 43.94 46.35 48.87
1996.492 51.4 53.9 56.29 58.63 60.95 63.1 65.16 67.25 69.29 71.44
2015.782 73.8 76.41 79.56 83.19 87.29 92.07 97.46 103.29 109.35 115.09
2035.072 119.63 122.02 121.79 118.94 113.64 106.38 97.99 89.2 80.53 72.47
2054.362 65.41 59.65 55.14 51.74 49.55 48.39 48.11 48.81 50.3 52.45
2073.651 55.19 58.35 61.63 64.85 67.82 70.31 72.09 72.94 72.78 71.69
2092.941 69.81 67.06 63.61 59.8 55.77 51.69 47.8 44.18 40.88 37.96
2112.231 35.47 33.4 31.6 30.08 28.78 27.62 26.68 25.91 25.19 24.52
2131.521 23.91 23.31 22.69 22.12 21.54 20.85 20.06 19.24 18.41 17.55
2150.810 16.62 15.68 14.68 13.65 12.75 11.9 11 10.19 9.51 8.95
2170.100 8.41 7.9 7.47 6.97 6.53 6.18 5.89 5.63 5.37 5.16
2189.390 4.99 4.75 4.58 4.54 4.41 4.33 4.37 4.35 4.32 4.38
2208.680 4.47 4.52 4.6 4.55 4.56 4.6 4.51 4.39 4.24 4.11
2227.970 3.94 3.77 3.59 3.37 3.18 3.06 2.88 2.74 2.7 2.63
2247.259 2.54 2.37 2.24 2.29 2.31 2.15 2.04 2.06 2.05 2.02
2266.549 1.96 1.95 1.99 1.92 1.83 1.83 1.81 1.69 1.55 1.42
2285.839 1.3051 1.2446 1.2235 1.1129 1.0817 1.1566 1.1275 1.0731 1.0507 0.9504
2305.129 0.964 1.0476 1.0112 1.014 0.9927 0.9306 0.9613 0.9956 0.9628 0.885
2324.418 0.9265 1.0497 1.012 0.941 0.9829 1.0214 1.0636 1.0635 1.0692 1.0838
2343.708 1.0129 0.9079 0.852 0.9485 1.0057 0.9627 0.9025 0.8916 0.931 0.9072
2362.998 0.8619 0.8772 0.8648 0.8532 0.8836 0.8964 0.9306 0.9922 0.9783 0.9656
2382.288 0.9729 0.9649 0.9823 1.0394 1.11 1.0836 1.0891 1.1232 1.1136 1.138
2401.578 1.2058 1.2152 1.2078 1.2311 1.2703 1.2264 1.1756 1.3068 1.3547 1.3256
2420.867 1.2826 1.2271 1.164 1.2076 1.3777 1.2856 1.1224 1.1515 1.1925 1.2153
2440.157 1.2712 1.2438 1.1752 1.153 1.1374 1.2491 1.271 1.1826 1.2292 1.1934
2459.447 1.1376 1.1023 1.057 1.0585 1.1085 1.1022 1.0679 1.1274 1.1941 1.207
2478.737 1.2377 1.2933 1.3133 1.2849 1.2339 1.3295 1.3475 1.2903 1.3004 1.3067
2498.026 1.3335 1.3516 1.3489 1.2244 1.2025 1.3062 1.2605 1.2604 1.3446 1.3375
2517.316 1.2588 1.2322 1.3065 1.333 1.2994 1.3845 1.51 1.5 1.44 1.48
2536.606 1.51 1.46 1.3986 1.47 1.6 1.56 1.6 1.65 1.61 1.66
2555.896 1.65 1.61 1.65 1.75 1.8 1.76 1.88 2.04 2.05 2.06
2575.186 2.07 2.12 2.14 2.13 2.07 1.98 1.91 1.81 1.67 1.43
2594.475 1.2651 1.2105 1.1169 1.0757 1.0226 0.8992 0.8362 0.9361 0.8991 0.7287
2613.765 0.7024 0.72 0.7566 0.7026 0.6252 0.716 0.8491 0.7483 0.6248 0.618
2633.055 0.6219 0.6082 0.5809 0.5831 0.44987 0.420574 0.5422 0.6186 0.6739 0.668
2652.345 0.6338 0.63 0.6343 0.6378 0.6228 0.5684 0.5761 0.5356 0.50346 0.5519
2671.634 0.4959 0.51589 0.571 0.6403 0.667 0.5828 0.609 0.6939 0.6987 0.6392
2690.924 0.6412 0.7092 0.7276 0.7217 0.781 0.8 0.6972 0.6559 0.7352 0.8603
2710.214 0.8722 0.8693 0.9142 0.8678 0.9741 1.0572 1.0523 1.0812 1.0837 1.1319
2729.504 1.0739 1.0645 1.1541 1.2086 1.2048 1.1159 1.0557 0.9949 0.9948 1.0682
2748.794 1.091 1.0407 1.0362 1.0992 1.1276 0.9798 0.8845 0.9091 0.8902 0.959
2768.083 0.9711 0.9038 0.8979 0.9149 0.9581 0.9601 0.8956 0.885 0.8968 0.8463
2787.373 0.7847 0.7656 0.7432 0.6545 0.6947 0.8577 0.9394 0.9256 0.9033 0.8501
2806.663 0.7754 0.7393 0.8016 0.9345 0.9054 0.8638 0.8703 0.8805 0.9158 0.9075
2825.953 0.791 0.8112 0.9168 0.9506 0.9852 0.9828 1.0409 0.9772 0.9389 0.8963
2845.242 0.8425 0.8224 0.8421 0.9285 0.9328 0.8776 0.8473 0.776 0.694 0.7494
2864.532 0.7313 0.6482 0.5814 0.6449 0.7717 0.7683 0.749 0.7726 0.7656 0.6541
2883.822 0.6315 0.637 0.6017 0.6964 0.6663 0.5978 0.5777 0.5674 0.6921 0.7269
2903.112 0.6243 0.5813 0.5888 0.5642 0.5714 0.5646 0.5663 0.6365 0.7163 0.7225
2922.401 0.6343 0.5691 0.6336 0.6846 0.6692 0.6959 0.6762 0.7353 0.7089 0.6337
2941.691 0.65 0.665 0.7447 0.7639 0.6574 0.5951 0.6102 0.6109 0.5378 0.51742
2960.981 0.5476 0.45542 0.408 0.546 0.6344 0.5692 0.5449 0.6193 0.619 0.6778
2980.271 0.6699 0.6252 0.6768 0.6862 0.7366 0.7522 0.6785 0.7468 0.8196 0.7756
2999.561 0.7441 0.6922 0.7454 0.738 0.8178 0.9078 0.8611 0.7974 0.7953 0.7962
3018.850 0.8498 0.7767 0.6347 0.6557 0.68 0.7519 0.8159 0.8994 0.9223 1.003
3038.140 1.0421 1.0008 1.1558 1.2845 1.2007 1.082 0.9933 0.9961 1.0361 1.0472
3057.430 1.0066 1.0244 1.1327 1.1665 1.2223 1.4045 1.54 1.62 1.77 1.99
3076.720 2.1 2.08 2.19 2.13 1.96 1.93 1.86 1.68 1.57 1.4043
3096.009 1.2427 1.2585 1.0973 0.8512 0.8625 0.8354 0.6982 0.6815 0.7042 0.663
3115.299 0.48473 0.3933 0.47473 0.51296 0.41517 0.4096 0.50269 0.3739 0.296 0.46112
3134.589 0.44798 0.3508 0.316 0.3729 0.50151 0.43054 0.3962 0.259 0.254 0.3266
3153.879 0.309 0.288 0.204 0.363 0.45095 0.3535 0.312 0.288 0.131 0.119
3173.169 0.26 0.3937 0.3748 0.198 0.201 0.3396 0.3368 0.3233 0.3482 0.421441
3192.458 0.4062 0.3654 0.3405 0.23 0.227 0.192 0.262 0.251 0.245 0.291
3211.748 0.302 0.194 0.177 0.377 0.3716 0.268 0.292 0.362 0.3751 0.304
3231.038 0.246 0.228 0.295 0.3468 0.304 0.217 0.275 0.3544 0.233 0.143
3250.328 0.158 0.211 0.216 0.27 0.3506 0.274 0.251 0.212 0.23 0.297
3269.617 0.221 0.197 0.263 0.192 0 0.132 0.25 0.24 0.232 0.293
3288.907 0.4011 0.267 0.225 0.309 0.226 0.175 0.217 0.189 0.275 0.3763
3308.197 0.301 0.3531 0.48132 0.3621 0.179 0.263 0.31 0.239 0.212 0.235
3327.487 0.228 0.255 0.285 0.219 0.269 0.3363 0.3907 0.3794 0.3505 0.3912
3346.777 0.307 0.229 0.161 0.248 0.43332 0.3264 0.222 0.16 0.217 0.3517
3366.066 0.427247 0.44332 0.3292 0.44519 0.5329 0.45416 0.3712 0.304 0.4762 0.552
3385.356 0.3803 0.3697 0.41329 0.426104 0.48522 0.3943 0.3753 0.482 0.4009 0.3747
3404.646 0.48045 0.49147 0.312 0.273 0.3568 0.4619 0.43244 0.3393 0.3679 0.32
3423.936 0.3401 0.4008 0.3944 0.424413 0.47909 0.48678 0.5202 0.51365 0.48357 0.425894
3443.225 0.21 0.256 0.43048 0.297 0.314 0.305 0.283 0.3514 0.3729 0.3377
3462.515 0.233 0.3361 0.4096 0.3761 0.49218 0.41203 0.3612 0.3629 0.3223 0.3768
3481.805 0.4046 0.5064 0.5239 0.48564 0.5817 0.46708 0.3299 0.5279 0.7238 0.6276
3501.095 0.7189 0.9609 0.8434 0.8819 0.9941 0.9825 1.0419 0.9856 0.9397 0.9421
3520.385 0.8025 0.6791 0.6858 0.66 0.639 0.7061 0.6614 0.51433 0.45401 0.5495
3539.674 0.704 0.8826 0.9135 0.7727 0.8445 1.0059 0.9214 0.987 1.1711 1.3368
3558.964 1.56 1.92 2.54 3.38 4.67 6.44 8.78 12.04 16.05 20.5
3578.254 24.51 26.74 27.01 25.93 24.01 20.81 16.06 11.2 7.3 4.87
3597.544 3.49 2.56 1.98 1.51 1.2584 1.1104 0.9299 0.8876 0.8016 0.7675
3616.833 0.6212 0.45952 0.51105 0.50764 0.392 0.3575 0.3703 0.293 0.41178 0.48978
3636.123 0.4069 0.3797 0.3278 0.266 0.252 0.323 0.46366 0.422047 0.4019 0.50675
3655.413 0.44744 0.3554 0.3261 0.3354 0.3623 0.3747 0.319 0.3986 0.47545 0.3236
3674.703 0.3366 0.3797 0.3368 0.3236 0.3362 0.208 0.175 0.367 0.343 0.3705
3693.993 0.4831 0.374 0.205 0.3232 0.3883 0.3562 0.299 0.3546 0.42573 0.43186
3713.282 0.43972 0.3834 0.3606 0.3768 0.41028 0.429891 0.49217 0.44448 0.3783 0.3346
3732.572 0.4023 0.5049 0.50138 0.41728 0.3778 0.45939 0.423871 0.3478 0.3953 0.43655
3751.862 0.41627 0.3972 0.44583 0.3391 0.3625 0.47574 0.6145 0.6025 0.47797 0.5619
3771.152 0.3762 0.2 0.4421 0.43028 0.258 0.3825 0.291 0.248 0.242 0.154
3790.441 0.185 0.296 0.3959 0.4023 0.422122 0.3831 0.3684 0.3605 0.48542 0.557
3809.731 0.3415 0.242 0.255 0.3362 0.3578 0.326 0.51487 0.44392 0.303 0.319
3829.021 0.3497 0.3957 0.3752 0.48133 0.49967 0.43594 0.425528 0.309 0.291 0.41245
3848.311 0.4054 0.3954 0.41544 0.43237 0.3957 0.46711 0.5248 0.3557 0.3979 0.50796
3867.601 0.47684 0.45758 0.48176 0.4466 0.49216 0.5906 0.6937 0.556 0.43855 0.43702
3886.890 0.287 0.3721 0.4075 0.297 0.3351 0.4072 0.391 0.426904 0.46038 0.3859
3906.180 0.303 0.268 0.303 0.3611 0.41165 0.4654 0.50163 0.6276 0.5891 0.4933
3925.470 0.41203 0.46126 0.6209 0.6004 0.5903 0.5221 0.43698 0.428884 0.50831 0.5828
3944.760 0.6353 0.7617 0.66 0.5485 0.4741 0.41719 0.50954 0.51184 0.58 0.6034
3964.049 0.5412 0.5814 0.5396 0.672 0.775 0.736 0.7431 0.6195 0.44281 0.44276
3983.339 0.521 0.47156 0.4526 0.5485 0.7478 0.6764 0.4836 0.5266 0.6468 0.637
##END=
