##TITLE=4-Chlorophenylisothiocyanate
##JCAMP-DX=4.24
##DATA TYPE=INFRARED SPECTRUM
##ORIGIN=EPA-IR VAPOR PHASE LIBRARY
##OWNER=SRD/NIST
Collection (C) 2018 copyright by the U.S. Secretary of Commerce
on behalf of the United States of America. All rights reserved.
##CAS REGISTRY NO=2131-55-7
##MOLFORM=C 7 H 4 Cl N S
##$NIST SOURCE=MSDC-IR
##STATE=gas
##XUNITS=1/CM
##YUNITS=ABSORBANCE
##XFACTOR=1.
##YFACTOR=0.001
##DELTAX=1.92898
##FIRSTX=549.8
##LASTX=4000.7
##FIRSTY=3.703
##MAXX=4000.7
##MINX=549.759
##MAXY=0.857923
##MINY=0
##NPOINTS=1790
##XYDATA=(X++(Y..Y))
549.759 3.703 3.223 3.213 3.063 2.973 3.273 3.393 3.363 3.593 3.633
569.049 3.603 3.703 3.333 3.143 3.093 2.883 2.773 2.853 3.003 2.913
588.339 2.863 2.993 3.033 3.043 3.243 3.493 3.603 3.573 3.483 3.593
607.628 3.773 3.923 3.953 3.953 4.083 4.303 4.633 5.013 5.553 5.933
626.918 6.193 6.243 6.223 6.283 6.293 6.263 6.533 6.983 6.733 6.413
646.208 6.243 6.093 5.823 5.783 5.743 5.273 4.923 4.253 3.743 3.383
665.498 2.933 2.713 2.503 2.293 2.073 1.983 1.893 1.883 1.853 1.793
684.787 1.6174 1.3674 1.4567 1.5611 1.4396 1.4191 1.4138 1.3714 1.4252 1.2194
704.077 1.0192 0.9203 0.9642 1.1631 1.2056 1.3204 1.4193 1.439 1.596 1.6393
723.367 1.6656 1.923 2.253 2.673 2.923 3.183 3.473 3.393 3.283 3.253
742.657 2.973 2.473 2.083 1.903 1.6238 1.3033 1.2628 1.2977 1.328 1.4226
761.947 1.5814 1.723 1.993 2.333 2.693 3.203 3.893 4.483 4.863 5.423
781.236 5.873 6.113 6.663 7.053 7.023 7.363 8.113 8.993 9.923 11.423
800.526 13.563 16.203 19.773 24.383 29.783 35.893 42.443 49.083 55.013 59.853
819.816 64.143 69.283 76.513 86.483 92.283 82.613 69.083 63.433 60.333 56.483
839.106 51.413 45.233 38.183 31.233 25.163 20.083 16.143 13.183 10.803 8.893
858.395 7.823 7.373 7.033 6.993 7.083 7.033 6.853 6.503 6.223 6.123
877.685 5.933 5.913 6.203 6.433 6.933 7.723 8.543 9.613 10.863 12.373
896.975 14.033 15.693 17.303 18.953 20.563 21.693 22.573 23.363 23.953 24.533
916.265 25.333 26.573 28.243 30.483 33.193 36.453 40.473 44.823 49.093 52.713
935.555 55.193 56.283 55.963 54.363 51.493 47.393 42.913 38.573 34.523 30.943
954.844 28.023 25.533 23.283 21.233 19.083 17.143 15.333 13.643 12.253 10.903
974.134 10.163 9.723 9.193 8.993 9.223 10.123 11.273 12.193 12.743 12.883
993.424 12.603 12.223 11.423 10.173 9.483 10.013 12.383 17.213 23.703 29.243
1012.714 31.553 31.143 30.593 29.143 23.883 16.583 10.273 6.323 4.323 3.543
1032.003 3.173 2.673 2.683 2.803 3.053 3.283 3.503 3.883 4.113 4.333
1051.293 4.783 5.303 5.863 6.283 7.063 8.003 8.763 9.953 11.053 12.363
1070.583 14.133 15.993 18.223 21.623 26.613 33.753 44.073 58.953 78.883 102.283
1089.873 126.473 146.253 156.143 155.353 146.903 130.003 103.693 73.713 48.733 32.743
1109.163 23.843 18.673 15.573 13.333 11.173 9.433 7.913 7.183 6.673 5.763
1128.452 5.273 5.153 5.213 5.093 4.983 5.203 5.893 6.893 7.923 8.503
1147.742 8.813 8.703 8.303 7.673 6.333 5.213 4.213 3.693 3.803 4.103
1167.032 4.383 4.403 4.203 4.233 4.513 3.903 2.823 2.323 2.303 2.443
1186.322 2.303 2.263 2.513 2.533 2.663 2.713 2.713 2.873 3.153 3.263
1205.611 3.273 3.633 4.203 4.333 4.583 5.193 5.503 5.743 6.193 6.193
1224.901 5.773 5.963 6.373 7.043 8.003 9.023 10.373 12.073 14.093 16.183
1244.191 18.163 19.873 21.333 22.563 23.333 23.583 23.193 22.343 21.033 19.633
1263.481 18.233 16.513 14.643 12.943 11.303 9.753 8.563 7.693 7.103 6.713
1282.771 6.253 5.623 5.143 4.933 4.893 4.773 4.523 4.353 4.253 4.223
1302.060 4.143 3.933 3.793 3.763 3.743 3.763 3.693 3.533 3.373 3.133
1321.350 2.883 2.713 2.503 2.233 2.103 1.953 1.783 1.743 1.703 1.6313
1340.640 1.5561 1.4965 1.5014 1.4558 1.3896 1.3797 1.3504 1.3033 1.2743 1.2033
1359.930 1.1901 1.2092 1.1998 1.2612 1.3438 1.4342 1.5063 1.6259 1.803 2.013
1379.219 2.223 2.413 2.663 2.933 3.223 3.533 3.813 4.073 4.273 4.533
1398.509 4.763 4.883 4.983 5.093 5.103 5.023 5.013 5.073 5.323 5.983
1417.799 7.013 8.433 10.413 12.803 15.113 16.743 17.243 16.763 15.663 13.953
1437.089 11.493 8.813 6.873 5.843 5.613 5.883 6.283 6.723 7.223 7.773
1456.378 8.283 8.773 9.483 10.593 12.433 15.463 20.333 27.903 39.393 56.603
1475.668 81.283 114.483 155.463 199.973 238.833 261.363 263.413 250.343 226.773 189.343
1494.958 139.663 92.793 60.303 41.283 30.443 23.973 19.853 17.053 15.183 13.693
1514.248 12.353 11.313 10.443 9.733 9.163 8.603 8.093 7.623 7.133 6.663
1533.538 6.343 6.133 6.123 6.263 6.473 6.743 6.913 7.123 7.363 7.683
1552.827 8.113 8.563 9.003 9.403 9.753 10.213 10.783 11.303 11.743 12.113
1572.117 12.673 13.293 14.123 15.403 17.183 19.583 22.503 25.633 28.303 29.843
1591.407 29.883 28.343 25.513 21.813 17.493 13.283 10.083 8.153 7.193 6.673
1610.697 6.363 6.273 6.293 6.373 6.623 6.933 7.213 7.323 7.393 7.543
1629.986 7.593 7.553 7.463 7.403 7.293 7.233 7.203 7.093 6.973 6.803
1649.276 6.613 6.403 6.173 5.983 5.743 5.403 5.043 4.743 4.443 4.143
1668.566 3.933 3.753 3.653 3.603 3.493 3.473 3.463 3.343 3.213 3.163
1687.856 3.113 3.053 3.063 3.123 3.073 3.083 3.163 3.193 3.173 3.173
1707.146 3.283 3.323 3.333 3.453 3.553 3.643 3.713 3.753 3.793 3.883
1726.435 4.023 4.043 3.983 3.943 3.963 4.073 4.163 4.223 4.403 4.593
1745.725 4.843 5.113 5.333 5.693 6.003 6.163 6.263 6.293 6.103 5.773
1765.015 5.413 5.113 4.853 4.623 4.473 4.333 4.283 4.243 4.223 4.283
1784.305 4.343 4.403 4.403 4.403 4.393 4.373 4.413 4.423 4.463 4.513
1803.594 4.543 4.603 4.763 4.993 5.193 5.443 5.773 6.113 6.453 6.873
1822.884 7.353 7.803 8.203 8.643 9.043 9.383 9.753 10.143 10.483 10.783
1842.174 11.173 11.603 11.963 12.313 12.653 13.043 13.523 13.873 14.233 14.633
1861.464 14.933 15.303 15.693 16.083 16.623 17.143 17.673 18.153 18.583 19.043
1880.754 19.373 19.693 20.063 20.313 20.433 20.563 20.783 20.943 21.113 21.343
1900.043 21.703 22.133 22.613 23.153 23.833 24.663 25.593 26.653 27.883 29.313
1919.333 30.833 32.443 34.163 35.933 37.893 40.133 42.533 45.093 47.933 51.063
1938.623 54.513 58.263 62.403 66.863 71.683 76.803 82.103 87.823 93.823 100.043
1957.913 106.623 113.633 120.843 128.383 136.293 144.413 152.953 161.913 171.273 181.153
1977.202 191.563 202.783 214.673 227.223 240.823 255.483 271.153 287.763 305.383 324.013
1996.492 343.443 363.743 384.643 405.643 426.543 446.783 466.523 485.783 504.473 522.903
2015.782 540.893 558.923 577.793 597.813 619.463 643.953 671.803 703.163 738.603 776.613
2035.072 813.893 843.693 857.923 853.723 831.823 794.553 744.873 686.883 625.193 564.303
2054.362 507.573 456.543 412.533 376.193 347.373 325.623 310.303 301.013 296.653 296.583
2073.651 300.553 307.633 317.573 330.723 347.383 368.003 392.913 421.373 451.253 479.313
2092.941 501.663 515.003 517.043 506.743 484.663 453.263 415.943 375.703 335.123 296.633
2112.231 261.923 231.693 206.373 186.053 170.183 158.113 149.333 142.643 136.963 131.923
2131.521 127.263 123.183 119.983 117.963 117.373 118.103 119.923 122.413 125.053 127.473
2150.810 129.063 129.433 128.403 125.953 122.013 116.823 110.633 103.743 96.693 89.873
2170.100 83.543 77.923 73.033 68.923 65.683 63.053 60.883 59.043 57.273 55.573
2189.390 53.883 52.123 50.313 48.383 46.293 44.143 42.033 39.823 37.493 35.313
2208.680 33.223 31.183 29.303 27.553 25.953 24.403 22.903 21.633 20.493 19.193
2227.970 17.963 16.953 15.943 14.823 13.713 12.743 11.873 11.023 10.223 9.493
2247.259 8.863 8.323 7.733 7.213 6.833 6.493 6.173 5.803 5.483 5.293
2266.549 5.133 4.993 4.923 4.803 4.633 4.453 4.323 4.243 4.123 3.993
2285.839 3.853 3.703 3.473 3.363 3.383 3.323 3.253 3.213 3.163 3.193
2305.129 3.233 3.203 3.173 3.183 3.173 3.253 3.343 3.333 3.433 3.583
2324.418 3.683 3.863 4.053 4.143 4.333 4.523 4.713 4.983 5.183 5.433
2343.708 5.703 5.973 6.283 6.593 6.903 7.183 7.463 7.763 8.023 8.163
2362.998 8.113 7.953 7.763 7.373 6.853 6.463 6.083 5.643 5.263 4.993
2382.288 4.773 4.533 4.413 4.323 4.223 4.253 4.303 4.313 4.423 4.523
2401.578 4.673 4.883 5.063 5.303 5.543 5.833 6.023 6.123 6.113 6.033
2420.867 5.983 5.693 5.343 5.023 4.683 4.443 4.143 3.853 3.673 3.463
2440.157 3.333 3.273 3.203 3.143 3.123 3.143 3.203 3.233 3.243 3.313
2459.447 3.433 3.553 3.603 3.723 3.853 3.973 4.163 4.283 4.383 4.563
2478.737 4.753 4.993 5.193 5.383 5.693 6.013 6.213 6.403 6.623 6.853
2498.026 6.973 7.053 7.043 6.933 6.983 7.013 6.983 6.883 6.753 6.573
2517.316 6.443 6.343 6.163 6.103 5.923 5.623 5.323 5.033 4.813 4.543
2536.606 4.433 4.273 4.023 3.873 3.723 3.683 3.683 3.693 3.683 3.673
2555.896 3.743 3.803 3.863 3.973 4.023 4.133 4.283 4.443 4.653 4.863
2575.186 5.023 5.113 5.273 5.473 5.593 5.813 6.053 6.343 6.773 7.083
2594.475 7.433 8.053 8.683 9.293 10.053 10.813 11.663 12.713 13.603 14.383
2613.765 15.283 16.183 16.983 17.663 18.223 18.553 18.613 18.283 17.703 16.863
2633.055 15.673 14.323 12.953 11.583 10.293 9.043 7.953 7.133 6.493 6.003
2652.345 5.503 5.053 4.743 4.523 4.223 3.973 3.923 3.843 3.673 3.653
2671.634 3.643 3.683 3.743 3.653 3.633 3.633 3.643 3.583 3.523 3.383
2690.924 3.193 3.093 2.923 2.773 2.703 2.743 2.763 2.583 2.483 2.513
2710.214 2.453 2.433 2.423 2.453 2.433 2.453 2.513 2.603 2.723 2.863
2729.504 2.923 2.933 3.023 3.143 3.213 3.323 3.473 3.603 3.653 3.763
2748.794 3.943 4.033 4.153 4.193 4.283 4.373 4.413 4.523 4.613 4.683
2768.083 4.783 4.913 5.123 5.323 5.493 5.613 5.753 5.833 5.813 5.763
2787.373 5.613 5.443 5.083 4.683 4.473 4.353 4.183 3.973 3.743 3.683
2806.663 3.613 3.453 3.313 3.193 3.153 3.173 3.113 3.003 2.983 2.913
2825.953 2.833 2.783 2.763 2.653 2.593 2.593 2.603 2.613 2.543 2.413
2845.242 2.273 2.293 2.273 2.143 2.063 1.883 1.773 1.703 1.6299 1.5687
2864.532 1.5103 1.4523 1.3275 1.3634 1.3763 1.3612 1.4078 1.347 1.3914 1.5127
2883.822 1.4487 1.3941 1.4996 1.6113 1.5666 1.5105 1.6233 1.703 1.6689 1.681
2903.112 1.823 1.903 1.913 1.973 2.013 2.053 2.143 2.223 2.283 2.393
2922.401 2.473 2.473 2.483 2.573 2.643 2.623 2.723 2.793 2.953 3.123
2941.691 3.153 3.173 3.283 3.403 3.353 3.333 3.453 3.563 3.673 3.823
2960.981 3.853 4.033 4.293 4.323 4.383 4.583 4.783 4.893 4.943 4.833
2980.271 4.723 4.693 4.483 4.253 4.113 3.833 3.543 3.353 3.213 3.083
2999.561 2.893 2.833 2.843 2.883 2.853 2.813 2.833 2.893 3.073 3.143
3018.850 3.083 3.013 3.223 3.493 3.463 3.583 3.893 4.083 4.253 4.513
3038.140 4.843 5.133 5.383 5.563 5.373 5.053 4.773 4.393 3.943 3.353
3057.430 2.933 2.703 2.553 2.563 2.463 2.463 2.643 2.783 2.913 2.973
3076.720 3.173 3.563 3.913 4.173 4.503 4.943 5.403 5.933 6.343 6.543
3096.009 6.653 6.713 6.533 6.003 5.313 4.723 4.233 3.793 3.283 2.643
3115.299 2.243 1.993 1.6763 1.4112 1.2359 1.142 1.0645 0.8515 0.73384 0.7995
3134.589 0.76105 0.6427 0.6096 0.6317 0.524 0.428 0.345 0.366 0.406 0.405
3153.879 0.5 0.529 0.485 0.488 0.491 0.446 0.453 0.45 0.483 0.466
3173.169 0.44 0.358 0.271 0.434 0.539 0.447 0.355 0.268 0.214 0.21
3192.458 0.202 0.239 0.365 0.38 0.269 0.252 0.28 0.251 0.18 0.224
3211.748 0.254 0.197 0.161 0.315 0.365 0.272 0.246 0.19 0.141 0.198
3231.038 0.242 0.208 0.196 0.127 0.204 0.258 0.331 0.409 0.409 0.361
3250.328 0.24 0.258 0.172 0.083 0.177 0.346 0.419 0.343 0.219 0.121
3269.617 0.037 0.027 0 0.128 0.386 0.407 0.409 0.399 0.26 0.157
3288.907 0.162 0.138 0.295 0.408 0.358 0.315 0.203 0.158 0.241 0.241
3308.197 0.198 0.211 0.199 0.258 0.424 0.38 0.323 0.394 0.399 0.345
3327.487 0.373 0.554 0.488 0.397 0.547 0.6067 0.503 0.572 0.6106 0.6072
3346.777 0.6353 0.57 0.356 0.286 0.577 0.5907 0.53 0.528 0.6697 0.5912
3366.066 0.463 0.459 0.486 0.7588 0.581 0.347 0.502 0.434 0.34 0.537
3385.356 0.578 0.459 0.371 0.414 0.512 0.67446 0.53 0.487 0.536 0.455
3404.646 0.577 0.496 0.299 0.489 0.5863 0.463 0.468 0.382 0.253 0.286
3423.936 0.279 0.311 0.429 0.499 0.483 0.467 0.515 0.423 0.44 0.536
3443.225 0.6144 0.559 0.561 0.467 0.433 0.499 0.427 0.546 0.514 0.263
3462.515 0.131 0.246 0.337 0.49 0.564 0.474 0.6093 0.6299 0.49 0.481
3481.805 0.536 0.549 0.504 0.369 0.262 0.358 0.464 0.563 0.71845 0.5967
3501.095 0.388 0.407 0.393 0.521 0.6424 0.353 0.323 0.56 0.6148 0.5969
3520.385 0.483 0.528 0.6655 0.55 0.297 0.313 0.542 0.542 0.441 0.451
3539.674 0.454 0.554 0.6105 0.496 0.467 0.522 0.5859 0.527 0.477 0.6055
3558.964 0.6041 0.571 0.6349 0.6563 0.688753 0.74368 0.73502 0.67837 0.67727 0.635
3578.254 0.541 0.567 0.5834 0.5944 0.73601 0.6471 0.45 0.459 0.403 0.411
3597.544 0.531 0.452 0.459 0.473 0.405 0.452 0.471 0.497 0.421 0.434
3616.833 0.5831 0.671 0.6483 0.457 0.413 0.468 0.454 0.541 0.6577 0.6277
3636.123 0.56 0.579 0.571 0.493 0.48 0.688621 0.7989 0.6065 0.546 0.5868
3655.413 0.6177 0.67644 0.6306 0.68008 0.8706 0.9073 0.8516 0.7632 0.6633 0.8154
3674.703 0.8175 0.7144 0.8283 0.75131 0.6691 0.73177 0.7906 0.8796 0.8171 0.8122
3693.993 0.8775 0.8977 0.7961 0.6315 0.6671 0.76793 0.8308 0.8399 0.942 0.9544
3713.282 0.9577 0.9394 0.8787 1.0359 1.1117 1.1901 1.2513 1.1284 1.0014 1.0078
3732.572 1.0453 0.9851 0.9986 0.9539 0.9016 0.8237 0.75992 0.7899 0.6279 0.8088
3751.862 1.1486 0.9842 0.76479 0.75289 0.7473 0.8922 0.9493 0.9178 0.942 0.9213
3771.152 0.8753 0.8161 0.799 0.77588 0.8595 0.8649 0.78211 0.72805 0.74918 0.9204
3790.441 0.8647 0.75594 0.8481 0.8495 0.8147 0.8608 0.9508 1.0872 1.1149 1.0213
3809.731 0.9948 1.0087 0.9613 0.9376 0.9763 1.0302 0.9864 1.1189 1.3043 1.3782
3829.021 1.3722 1.3566 1.3477 1.3604 1.4002 1.3473 1.3303 1.3186 1.3092 1.208
3848.311 1.0383 1.0645 1.2727 1.3414 1.2952 1.2455 1.0863 0.9787 1.1242 1.2962
3867.601 1.2621 1.2211 1.1507 1.1444 1.2788 1.3014 1.2828 1.2134 1.3864 1.4667
3886.890 1.4136 1.4782 1.4327 1.5439 1.6121 1.6457 1.6583 1.5906 1.4711 1.3912
3906.180 1.4205 1.4286 1.4896 1.723 1.743 1.6165 1.6119 1.5824 1.5784 1.679
3925.470 1.893 1.973 1.913 1.843 1.943 1.863 1.863 2.133 2.043 2.053
3944.760 2.123 2.113 2.353 2.503 2.433 2.313 2.423 2.643 2.633 2.543
3964.049 2.483 2.503 2.673 2.613 2.573 2.763 2.833 2.833 2.793 2.673
3983.339 2.723 2.873 2.963 3.053 3.123 3.053 2.923 3.043 3.093 3.023
##END=
