##TITLE=3-Bromophenyl isothiocyanate
##JCAMP-DX=4.24
##DATA TYPE=INFRARED SPECTRUM
##ORIGIN=EPA-IR VAPOR PHASE LIBRARY
##OWNER=SRD/NIST
Collection (C) 2018 copyright by the U.S. Secretary of Commerce
on behalf of the United States of America. All rights reserved.
##CAS REGISTRY NO=2131-59-1
##MOLFORM=C 7 H 4 Br N S
##$NIST SOURCE=MSDC-IR
##STATE=gas
##XUNITS=1/CM
##YUNITS=ABSORBANCE
##XFACTOR=1.
##YFACTOR=0.001
##DELTAX=1.92898
##FIRSTX=549.8
##LASTX=4000.7
##FIRSTY=8.009
##MAXX=4000.7
##MINX=549.759
##MAXY=0.214849
##MINY=0
##NPOINTS=1790
##XYDATA=(X++(Y..Y))
549.759 8.009 7.649 7.219 6.759 6.459 6.739 6.589 6.069 5.669 5.169
569.049 4.609 4.549 4.629 4.219 3.849 3.759 3.919 4.189 4.249 4.659
588.339 4.919 4.769 4.729 4.569 4.329 3.699 3.239 3.109 2.749 2.319
607.628 2.099 2.099 1.949 1.799 1.699 1.589 1.659 1.549 1.439 1.489
626.918 1.609 1.609 1.459 1.349 1.369 1.419 1.519 1.599 1.589 1.779
646.208 1.869 1.969 2.239 2.499 2.889 3.349 3.919 4.639 5.399 6.199
665.498 6.989 7.529 8.089 9.149 9.629 8.769 7.969 7.729 7.369 6.799
684.787 6.159 5.549 5.129 4.819 4.529 4.219 3.849 3.789 3.739 3.659
704.077 3.699 3.679 3.789 3.929 4.289 4.769 5.259 5.839 6.639 7.839
723.367 9.099 10.629 12.359 14.159 16.109 17.779 19.109 20.129 20.759 20.939
742.657 20.709 20.099 19.309 18.509 17.519 16.079 14.469 12.829 11.499 11.019
761.947 11.249 12.199 13.729 15.359 16.929 18.819 21.449 23.059 21.049 17.709
781.236 15.569 13.479 10.979 8.469 6.229 4.389 3.019 2.039 1.449 1.2088
800.526 0.9985 0.96 0.9753 0.8475 0.8501 1.0318 1.389 1.469 1.2901 1.449
819.816 1.549 1.479 1.529 1.519 1.379 1.2308 1.109 1.0008 0.9933 1.0001
839.106 0.9003 0.7173 0.6785 0.7721 0.8318 1.0095 1.359 1.699 2.149 2.819
858.395 3.489 4.329 5.049 5.829 6.879 7.739 7.879 7.149 6.159 5.419
877.685 4.909 4.179 3.519 2.889 2.379 2.169 2.099 2.059 1.909 1.809
896.975 1.899 2.039 2.259 2.199 1.979 2.059 2.079 2.089 2.019 1.949
916.265 1.799 1.639 1.589 1.589 1.769 1.899 1.919 1.959 2.059 2.279
935.555 2.439 2.719 3.069 3.329 3.629 4.059 4.459 4.769 5.289 5.879
954.844 6.289 6.589 6.889 7.179 7.179 7.039 6.909 6.309 5.649 5.059
974.134 4.329 3.929 3.449 2.979 2.829 2.579 2.529 2.689 2.859 3.019
993.424 2.999 2.799 2.669 2.759 2.649 2.279 1.809 1.359 1.0836 1.0889
1012.714 1.1807 0.8991 0.7806 0.7794 0.8345 0.7709 0.5955 0.6354 0.6855 0.5907
1032.003 0.39815 0.582 0.6284 0.9263 1.0946 0.7175 0.7382 0.9994 1.369 1.649
1051.293 1.859 2.349 3.129 3.789 4.619 5.979 6.959 7.189 7.209 7.669
1070.583 7.609 6.609 5.509 4.839 4.569 4.519 4.619 4.189 3.999 3.709
1089.873 2.879 1.979 1.469 1.359 1.1671 1.1129 0.6773 0.3265 0.5016 0.4911
1109.163 0.047 0.078 0.7046 0.7468 0.466 0.4891 0.4889 0.4878 0.35153 0.2935
1128.452 0.3366 0.3003 0.42952 0.218 0.047 0.198 0.114 0.099 0.181 0.179
1147.742 0.216 0.2948 0.275 0.2506 0.524 0.6813 0.5785 0.5286 0.6295 0.6826
1167.032 0.6223 0.43145 0.185 0.2492 0.37585 0.39342 0.3252 0.177 0.33509 0.5134
1186.322 0.345694 0.342668 0.4772 0.4472 0.7492 0.9198 0.6756 0.5609 0.55 0.591
1205.611 0.8254 0.9111 1.0143 1.2546 1.0545 0.6773 0.5396 0.9808 1.3242 1.1842
1224.901 1.1184 1.319 1.659 1.899 2.049 2.209 2.279 2.289 2.209 1.959
1244.191 2.039 2.149 1.889 1.859 1.709 1.619 1.959 2.179 2.309 2.189
1263.481 2.109 2.159 2.169 2.179 2.169 2.119 1.979 2.039 2.129 2.029
1282.771 2.029 2.279 2.479 2.599 2.629 2.609 2.589 2.369 2.069 1.829
1302.060 1.579 1.3014 1.157 1.1344 1.0636 0.9589 0.9765 1.1004 1.2105 1.3347
1321.350 1.529 1.699 1.849 2.019 2.039 1.869 1.669 1.429 1.1149 0.8683
1340.640 0.7037 0.6229 0.5504 0.5253 0.4943 0.4406 0.4832 0.5381 0.5205 0.4828
1359.930 0.5204 0.5682 0.5943 0.6245 0.6594 0.6981 0.7199 0.7689 0.8331 0.8856
1379.219 0.9701 1.0861 1.2295 1.3213 1.419 1.539 1.719 1.939 1.999 2.129
1398.509 2.369 2.619 3.019 3.559 4.199 4.909 5.609 6.279 6.859 7.219
1417.799 7.339 7.269 7.039 6.659 6.069 5.389 4.709 4.059 3.569 3.109
1437.089 2.729 2.599 2.549 2.539 2.619 2.759 3.059 3.479 3.989 4.759
1456.378 5.979 7.729 10.329 14.109 19.149 25.159 31.059 35.329 36.799 35.709
1475.668 32.549 27.059 19.679 12.589 7.889 5.379 4.029 3.259 2.839 2.639
1494.958 2.489 2.479 2.569 2.709 2.899 3.169 3.469 3.609 3.659 3.619
1514.248 3.439 3.189 2.919 2.629 2.429 2.379 2.389 2.489 2.659 2.799
1533.538 2.999 3.309 3.699 4.179 4.689 5.299 6.159 7.159 8.399 9.959
1552.827 11.819 14.149 17.049 20.329 23.899 27.619 30.989 33.859 36.279 38.299
1572.117 40.189 42.459 45.639 50.259 56.379 63.029 68.309 70.029 67.279 60.929
1591.407 51.859 40.809 29.349 19.729 13.209 9.319 7.109 5.669 4.699 4.089
1610.697 3.599 3.219 2.939 2.709 2.629 2.509 2.289 2.169 2.189 2.169
1629.986 2.079 2.039 1.989 1.989 2.069 2.049 2.039 2.099 2.069 1.969
1649.276 1.909 1.909 1.969 2.029 2.049 2.099 2.129 2.159 2.139 2.119
1668.566 2.029 1.929 1.789 1.589 1.429 1.284 1.2083 1.1763 1.1567 1.1083
1687.856 1.1408 1.1545 1.0728 1.1141 1.1238 1.1384 1.1603 1.1523 1.172 1.1575
1707.146 1.1625 1.182 1.2262 1.2854 1.2799 1.2541 1.2844 1.3163 1.349 1.449
1726.435 1.539 1.649 1.759 1.779 1.709 1.719 1.799 1.759 1.689 1.619
1745.725 1.589 1.589 1.629 1.669 1.549 1.479 1.569 1.619 1.619 1.649
1765.015 1.699 1.719 1.799 1.879 1.939 1.959 2.049 2.139 2.129 2.169
1784.305 2.129 2.069 2.059 1.989 1.869 1.779 1.689 1.659 1.689 1.619
1803.594 1.569 1.579 1.629 1.669 1.599 1.579 1.629 1.619 1.629 1.679
1822.884 1.719 1.769 1.819 1.779 1.759 1.799 1.819 1.849 1.869 1.869
1842.174 1.929 2.019 2.139 2.239 2.389 2.629 2.759 2.839 2.889 2.909
1861.464 2.909 2.839 2.759 2.769 2.779 2.899 3.059 3.189 3.319 3.509
1880.754 3.719 3.949 4.239 4.459 4.679 4.969 5.259 5.569 5.959 6.359
1900.043 6.819 7.319 7.799 8.349 8.909 9.519 10.139 10.749 11.379 11.989
1919.333 12.659 13.279 13.869 14.499 15.039 15.539 16.129 16.729 17.309 17.909
1938.623 18.549 19.229 20.089 21.079 22.179 23.349 24.619 26.059 27.589 29.219
1957.913 30.999 32.899 34.869 36.929 39.139 41.479 43.929 46.489 49.199 52.129
1977.202 55.229 58.569 62.199 66.179 70.469 75.019 79.779 84.649 89.639 94.619
1996.492 99.599 104.489 109.129 113.679 117.979 121.929 125.769 129.579 133.449 137.549
2015.782 141.979 146.889 152.489 158.899 166.139 174.299 183.129 192.319 201.509 209.659
2035.072 214.779 214.849 209.619 199.889 186.409 170.619 154.259 138.729 124.719 112.799
2054.362 103.179 95.699 90.439 87.399 86.409 87.209 89.729 93.779 98.859 104.829
2073.651 111.269 117.569 123.259 127.799 130.879 132.389 132.139 130.129 126.559 121.599
2092.941 115.669 108.909 101.609 94.219 86.979 80.209 74.119 68.859 64.509 60.959
2112.231 58.249 56.179 54.449 52.879 51.309 49.659 47.869 45.989 44.119 42.259
2131.521 40.419 38.529 36.719 35.059 33.399 31.869 30.359 28.779 27.179 25.589
2150.810 24.109 22.719 21.379 20.209 19.189 18.249 17.379 16.629 15.929 15.319
2170.100 14.779 14.249 13.749 13.319 12.979 12.709 12.489 12.259 12.089 11.999
2189.390 11.939 11.809 11.609 11.419 11.219 10.939 10.569 10.169 9.719 9.309
2208.680 8.939 8.529 8.129 7.719 7.389 7.059 6.699 6.369 6.099 5.829
2227.970 5.579 5.409 5.129 4.809 4.639 4.399 4.199 4.079 3.859 3.679
2247.259 3.489 3.289 3.039 2.799 2.699 2.579 2.429 2.279 2.149 2.049
2266.549 1.959 1.899 1.909 1.829 1.769 1.699 1.599 1.609 1.599 1.499
2285.839 1.419 1.399 1.359 1.2708 1.2711 1.2506 1.1563 1.139 1.1014 1.0367
2305.129 1.0176 1.0494 1.1082 1.0605 1.0393 1.1322 1.1759 1.133 1.1593 1.2873
2324.418 1.3174 1.2805 1.2401 1.2664 1.246 1.215 1.2457 1.222 1.2459 1.1902
2343.708 1.0755 1.0501 1.0817 1.1095 1.0921 1.0565 1.0339 0.9871 0.9722 1.006
2362.998 1.0678 1.0989 1.1255 1.1715 1.1535 1.1341 1.1676 1.2192 1.2023 1.1639
2382.288 1.2437 1.2767 1.3382 1.399 1.399 1.489 1.549 1.499 1.499 1.549
2401.578 1.519 1.579 1.609 1.559 1.549 1.579 1.589 1.519 1.519 1.589
2420.867 1.649 1.679 1.679 1.759 1.819 1.749 1.719 1.829 1.909 1.889
2440.157 1.909 1.919 1.959 1.959 1.939 1.949 1.929 1.929 1.929 1.899
2459.447 1.919 1.939 1.939 1.949 1.919 1.859 1.779 1.779 1.859 1.859
2478.737 1.829 1.909 1.949 1.999 2.069 2.069 2.029 2.079 2.159 2.119
2498.026 2.089 2.139 2.129 1.999 1.959 2.019 1.979 1.909 1.909 1.839
2517.316 1.669 1.629 1.729 1.779 1.779 1.819 1.809 1.869 1.969 1.989
2536.606 2.009 2.039 2.069 2.089 2.189 2.269 2.299 2.369 2.499 2.529
2555.896 2.579 2.759 2.879 3.049 3.269 3.379 3.489 3.659 3.729 3.889
2575.186 4.049 4.049 3.909 3.689 3.449 3.089 2.769 2.469 2.089 1.789
2594.475 1.609 1.439 1.274 1.2699 1.1984 1.0553 1.0297 1.03 1.036 0.994
2613.765 0.9168 0.9388 0.9923 0.8744 0.8417 0.8608 0.9252 0.9869 0.8629 0.7935
2633.055 0.7953 0.7659 0.7467 0.7531 0.7437 0.6961 0.6521 0.7704 0.7895 0.7139
2652.345 0.7351 0.7218 0.7746 0.8697 0.8148 0.6814 0.6239 0.6889 0.7804 0.8997
2671.634 0.9141 0.8332 0.7875 0.8652 0.9613 0.9009 0.8781 0.9464 0.9544 0.8949
2690.924 0.8856 0.9328 0.9555 0.9156 0.9432 0.9791 0.9753 0.9895 0.9134 0.8687
2710.214 0.9444 0.9388 0.8789 0.946 0.996 1.0875 1.1932 1.2399 1.2352 1.181
2729.504 1.1755 1.1915 1.3334 1.459 1.479 1.459 1.539 1.609 1.509 1.459
2748.794 1.539 1.679 1.729 1.799 1.849 1.879 2.009 2.109 2.209 2.289
2768.083 2.339 2.359 2.349 2.389 2.419 2.369 2.399 2.369 2.319 2.259
2787.373 2.129 2.129 2.189 2.139 2.009 1.839 1.709 1.709 1.679 1.619
2806.663 1.519 1.379 1.2529 1.1386 1.1151 1.1157 1.0932 1.0515 1.0194 1.0061
2825.953 1.0347 0.9836 0.9265 1.0415 1.1377 1.0854 0.9922 0.9738 0.8946 0.7634
2845.242 0.7462 0.796 0.7763 0.6801 0.6188 0.6276 0.5232 0.42417 0.495 0.5675
2864.532 0.5837 0.4541 0.4618 0.5792 0.5577 0.545 0.5465 0.40879 0.43445 0.5343
2883.822 0.587 0.65 0.5417 0.5135 0.4869 0.4737 0.5608 0.5806 0.5824 0.584
2903.112 0.5946 0.6295 0.5318 0.6099 0.6199 0.4953 0.5848 0.6835 0.7374 0.7857
2922.401 0.8169 0.7884 0.7194 0.7954 0.8955 0.8437 0.8343 0.8801 0.9236 0.844
2941.691 0.7403 0.7147 0.7869 0.8853 0.7498 0.6755 0.7729 0.7158 0.7949 0.9513
2960.981 0.9086 0.8758 0.8458 0.8077 0.8562 0.9751 1.0687 1.0024 0.9434 1.0077
2980.271 0.954 0.9225 0.9716 1.0432 1.2159 1.191 1.0067 0.9532 1.0784 1.2565
2999.561 1.3144 1.2324 1.1816 1.1309 1.0715 1.1218 1.1125 1.0513 1.0937 1.2101
3018.850 1.194 1.1859 1.2006 1.1057 1.1549 1.1177 1.0338 1.0028 0.9972 1.0077
3038.140 0.9811 1.0869 1.1133 1.0268 0.9648 0.9555 1.0224 1.1734 1.29 1.277
3057.430 1.2944 1.359 1.499 1.809 2.129 2.369 2.609 2.709 2.849 3.079
3076.720 3.229 3.279 3.209 3.099 2.789 2.469 2.379 2.209 1.869 1.539
3096.009 1.2883 1.2375 1.1766 0.9327 0.6765 0.5612 0.6705 0.6577 0.5656 0.4762
3115.299 0.33299 0.33441 0.41039 0.474 0.5028 0.38867 0.295 0.3498 0.3251 0.3214
3134.589 0.37683 0.40142 0.3041 0.229 0.36153 0.451 0.40956 0.345058 0.40544 0.4767
3153.879 0.37409 0.3211 0.36617 0.36952 0.2989 0.33199 0.43327 0.39662 0.37319 0.2757
3173.169 0.2499 0.342205 0.226 0.087 0.123 0.16 0.162 0.18 0.16 0.178
3192.458 0.207 0.2 0.2871 0.2562 0.17 0.2604 0.33211 0.2436 0.2424 0.3159
3211.748 0.2617 0.2682 0.208 0.148 0.195 0.094 0 0.11 0.2923 0.2516
3231.038 0.145 0.227 0.201 0.217 0.2793 0.286 0.192 0.098 0.206 0.2775
3250.328 0.2826 0.33708 0.3259 0.192 0.2585 0.266 0.2426 0.2581 0.104 0.119
3269.617 0.211 0.188 0.258 0.40123 0.2798 0.229 0.3068 0.2894 0.2681 0.226
3288.907 0.136 0.084 0.083 0.036 0.131 0.2804 0.2747 0.2938 0.39616 0.451
3308.197 0.3265 0.2529 0.36577 0.3133 0.18 0.2536 0.2719 0.2946 0.3126 0.2411
3327.487 0.206 0.199 0.2782 0.2895 0.3269 0.2775 0.25 0.238 0.172 0.223
3346.777 0.341257 0.39032 0.3272 0.33361 0.42767 0.345911 0.2461 0.35618 0.340631 0.19
3366.066 0.234 0.35019 0.238 0.193 0.2721 0.3208 0.40337 0.3761 0.3059 0.3036
3385.356 0.2889 0.2878 0.239 0.2444 0.37297 0.39061 0.2725 0.23 0.3239 0.3273
3404.646 0.2886 0.33241 0.2938 0.227 0.215 0.252 0.239 0.223 0.231 0.172
3423.936 0.203 0.2557 0.202 0.285 0.4687 0.42299 0.2435 0.207 0.2634 0.235
3443.225 0.212 0.185 0.2502 0.3666 0.4449 0.4672 0.3158 0.192 0.2603 0.238
3462.515 0.073 0.166 0.2587 0.35594 0.37009 0.341094 0.37801 0.42024 0.37116 0.3223
3481.805 0.6203 0.6577 0.40609 0.233 0.2886 0.35241 0.39325 0.5335 0.43704 0.2502
3501.095 0.235 0.33358 0.3067 0.2433 0.37531 0.5031 0.44 0.3067 0.2773 0.35742
3520.385 0.40889 0.37125 0.2817 0.163 0.3185 0.4541 0.40138 0.4282 0.3209 0.2742
3539.674 0.285 0.205 0.173 0.2401 0.2801 0.192 0.2594 0.36567 0.35763 0.35717
3558.964 0.38673 0.4525 0.37335 0.38253 0.41289 0.33449 0.2979 0.209 0.137 0.119
3578.254 0.176 0.2898 0.36352 0.397 0.3243 0.234 0.162 0.2444 0.33418 0.2871
3597.544 0.2705 0.188 0.126 0.176 0.338572 0.341992 0.2803 0.212 0.204 0.3146
3616.833 0.2921 0.2402 0.2 0.2579 0.35043 0.33486 0.3211 0.2776 0.2592 0.35012
3636.123 0.309 0.2858 0.42605 0.4457 0.41899 0.35973 0.37428 0.4838 0.38548 0.344738
3655.413 0.3957 0.4436 0.33495 0.22 0.2687 0.2648 0.2398 0.2989 0.38527 0.4474
3674.703 0.5158 0.5321 0.5204 0.5345 0.5816 0.5323 0.2926 0.228 0.36673 0.3305
3693.993 0.35537 0.43011 0.41671 0.38253 0.38101 0.36923 0.36118 0.4576 0.4524 0.33419
3713.282 0.2888 0.35914 0.35948 0.2853 0.233 0.38472 0.4992 0.40766 0.36639 0.33697
3732.572 0.3086 0.4707 0.5799 0.42144 0.36944 0.3169 0.421 0.5233 0.4717 0.42681
3751.862 0.289 0.41938 0.4784 0.40965 0.39963 0.3373 0.38415 0.5127 0.5868 0.6545
3771.152 0.7057 0.6621 0.5232 0.39975 0.5246 0.5649 0.35993 0.2469 0.2556 0.3247
3790.441 0.33116 0.316 0.447 0.5414 0.5509 0.5429 0.5196 0.4893 0.47 0.4722
3809.731 0.5693 0.6512 0.5945 0.4521 0.37546 0.2941 0.35755 0.5367 0.5638 0.5398
3829.021 0.41462 0.36924 0.42783 0.5119 0.43869 0.3248 0.4414 0.4827 0.43203 0.5262
3848.311 0.5163 0.39298 0.38216 0.43445 0.5135 0.4682 0.5026 0.5532 0.5599 0.6681
3867.601 0.5833 0.5098 0.6188 0.6884 0.5331 0.39947 0.5193 0.48 0.43797 0.633
3886.890 0.739 0.6729 0.6442 0.6918 0.7022 0.708 0.5181 0.4425 0.6683 0.8379
3906.180 0.8127 0.7446 0.6793 0.6393 0.6819 0.6392 0.6501 0.6902 0.5539 0.4873
3925.470 0.5983 0.6841 0.6552 0.534 0.5771 0.7031 0.8061 0.9816 1.0473 1.062
3944.760 1.0787 0.9532 0.7417 0.7257 0.7971 0.8098 0.8144 0.8098 0.7956 0.7475
3964.049 0.7271 0.8975 1.0242 0.9178 0.8667 0.8718 0.8387 0.8072 0.8618 0.874
3983.339 0.9536 1.0854 1.1247 1.2237 1.1876 0.9364 0.9272 1.0343 1.1517 1.1407
##END=
