##TITLE=L-Menthylamine
##JCAMP-DX=4.24
##DATA TYPE=INFRARED SPECTRUM
##ORIGIN=EPA-IR VAPOR PHASE LIBRARY
##OWNER=SRD/NIST
Collection (C) 2018 copyright by the U.S. Secretary of Commerce
on behalf of the United States of America. All rights reserved.
##CAS REGISTRY NO=21411-81-4
##MOLFORM=C 10 H 21 N
##$NIST SOURCE=MSDC-IR
##STATE=gas
##XUNITS=1/CM
##YUNITS=ABSORBANCE
##XFACTOR=1.
##YFACTOR=0.001
##DELTAX=1.92898
##FIRSTX=549.8
##LASTX=4000.7
##FIRSTY=3.27
##MAXX=4000.7
##MINX=549.759
##MAXY=0.07796
##MINY=0
##NPOINTS=1790
##XYDATA=(X++(Y..Y))
549.759 3.27 3.03 3.46 4.25 4.84 3.83 3.74 4.09 3.81 4.52
569.049 4.81 3.95 2.94 3.41 4.29 3.93 3.53 4.29 4.62 3.76
588.339 3.05 3.71 4.12 3.59 5.02 5.22 3.66 3.35 3.74 4
607.628 3.71 3.91 3.6 2.98 3.28 3.67 3.7 3.87 4.08 3.56
626.918 3.47 3.78 4.51 4.7 3.78 3.23 3.37 3.9 3.48 3.23
646.208 2.98 2.2485 2.97 3.84 3.7 4.01 4.61 4.32 3.69 4.19
665.498 4.42 4.28 4.58 3.96 3.99 4.47 4.48 4.03 3.5 3.87
684.787 4.17 4.49 4.62 4.62 4.77 4.83 5.37 5.16 4.59 4.43
704.077 4.77 5.53 5.8 5.42 5.56 6.28 6.51 6.4 6.2 6.07
723.367 6.28 6.76 7.16 7.99 8.15 8.26 8.78 8.97 9.42 9.24
742.657 9.24 9.86 10.29 10.59 10.65 10.98 10.44 10.1 10.41 10.7
761.947 11.06 10.73 10.98 11.44 11.89 12.07 11.31 11.02 11.77 11.98
781.236 12.29 13.13 13.01 12.72 12.78 13.03 13.74 14.17 13.38 13.23
800.526 13.41 12.74 11.94 11.96 11.96 10.66 9.93 9.57 8.53 7.43
819.816 7.2 6.69 6.34 6.57 6.37 6.1 6.07 6.14 5.66 5.46
839.106 5.38 4.67 4.45 4.72 5.38 5.21 4.42 4.7 4.88 4.75
858.395 4.76 4.45 4.18 4.3 4.27 4.12 4.19 4.36 4.21 4.45
877.685 4.76 4.13 4.09 4.4 3.83 3.61 3.44 3.17 2.86 3.28
896.975 3.39 2.6662 3.16 3.64 3.59 3.2 3.35 3.75 3.2 3.53
916.265 3.6 3.14 3.85 3.76 3.64 4.07 4.16 4.05 3.99 4.47
935.555 4.22 3.21 2.6709 2.8 3.53 3.66 3.44 3.5 3.51 3.47
954.844 3.46 3.49 3.34 3.02 3.68 4.29 4.65 5.48 5.52 5.02
974.134 4.83 5.43 5.42 4.97 4.81 4.68 4.58 4.39 4.13 4.55
993.424 4.73 4.37 4.48 3.93 3.15 2.95 3.34 3.73 3.61 3.59
1012.714 4.46 5.2 4.32 3.84 3.99 4.03 3.8 4.31 5.01 5.16
1032.003 4.5 3.12 2.95 2.4162 2.85 3.9 5 6.01 4.67 4.55
1051.293 5.19 5.49 6.17 5.77 6.28 6.34 5.79 5.02 4.91 6.28
1070.583 6.34 5.92 6.34 5.97 5.14 4.97 4.69 4.57 4.78 5.04
1089.873 5.05 5.18 4.65 4.8 4.48 3.05 4.24 5.91 5.89 5.3
1109.163 5.78 6.48 6.81 6.68 7.31 7.86 7.63 5.56 4.89 5.78
1128.452 5.81 6.8 5.36 5.5 5.99 4.58 5.2 5.8 4.34 4.54
1147.742 5.62 5.14 5.17 5.09 4.8 6.15 6.7 5.27 5.38 5.68
1167.032 5.95 6.89 6.79 7.22 7.48 7.07 7.76 8.4 7.64 7.45
1186.322 7.59 6.18 5.39 6.92 7.17 5.28 4.64 4.52 3.97 2.76
1205.611 3.1 4.91 6.3 7.33 6.04 4.47 5.03 5.72 6.97 6.64
1224.901 4.11 3.99 5.37 5.7 6.49 4.79 3.38 4.75 4.6 4.15
1244.191 4.86 4.2 3.3 4.2 4.37 4.48 4.3 3.45 3.08 3.13
1263.481 3.65 3.18 3.09 3.5 4.03 4.32 3.69 3.56 3.23 3.13
1282.771 3.38 3.56 3.5 3.35 3.33 3.46 3.56 3.35 3.43 3.28
1302.060 3.19 3.25 3.25 3.4 3.76 3.86 3.69 3.5 3.29 3.51
1321.350 3.82 4.04 4.17 4.21 4.26 4.21 4.23 4.62 5.03 5.06
1340.640 5.26 5.42 5.43 5.64 5.81 6.03 6.33 6.42 6.64 6.91
1359.930 7.37 8.12 8.56 9 9.55 10.26 10.63 10.61 10.63 10.65
1379.219 10.78 10.75 10.5 10.14 9.56 9 8.59 7.89 6.89 6.19
1398.509 5.59 4.95 4.46 4.16 4.07 4.04 4 3.61 3.4 3.38
1417.799 3.4 3.73 3.77 3.56 3.83 4.15 4.23 4.38 4.55 5.19
1437.089 6.04 6.43 7.07 8.07 9.12 10.15 10.74 11.24 11.64 11.76
1456.378 12.13 12.24 12.15 12.3 12.14 11.45 10.87 10.37 9.72 8.99
1475.668 8.22 7.55 7.14 6.6 5.58 5.04 4.81 4.33 3.78 3.59
1494.958 3.9 4.01 3.7 3.28 3.24 3.28 3.09 3.46 3.52 3.3
1514.248 3.38 3.11 3.01 3.08 3.04 2.96 3.06 3.13 2.99 3.03
1533.538 3.21 3.01 2.73 2.84 2.96 3.07 3.02 3.16 3.12 2.78
1552.827 3.14 3.19 3.25 3.41 3.39 3.42 3.12 3.13 3.26 3.55
1572.117 3.47 3.35 3.4 3.14 3.36 3.76 3.67 3.58 3.71 3.74
1591.407 3.94 3.93 4.08 4.63 5.13 5.34 5.15 5.77 6.55 6.5
1610.697 6.55 6.94 7.26 7.68 7.63 7.35 7.3 6.84 6.59 6.49
1629.986 6.25 5.97 5.65 5.26 4.79 4.61 4.2 3.89 3.74 3.42
1649.276 3.46 3.34 3.11 3.06 2.79 2.74 2.98 2.654 2.6455 2.83
1668.566 2.6114 2.434 2.5164 2.6252 2.5476 2.4534 2.3306 2.6904 2.87 2.3655
1687.856 2.0429 2.1196 2.0724 2.0409 2.0872 2.1912 2.5782 2.2625 1.9941 1.8972
1707.146 2.045 2.2447 1.9608 1.841 1.9629 2.2726 2.3149 2.289 2.2779 2.0568
1726.435 2.182 2.1453 1.9066 2.3216 2.3031 2.1311 2.185 1.75996 1.80581 2.1907
1745.725 2.1021 1.9611 2.0106 1.9224 1.8732 2.2684 2.2479 1.9203 2.0598 2.1169
1765.015 2.0475 1.9793 1.9849 2.2424 2.0777 1.9809 2.0716 1.9024 2.0121 2.1096
1784.305 2.1614 2.2346 2.1935 2.0529 1.891 1.9558 1.8536 1.9595 2.2082 2.0783
1803.594 2.1874 2.186 2.0414 2.1658 2.2238 1.959 1.8867 1.9218 1.9403 2.0166
1822.884 2.1053 2.1237 1.8309 1.8394 2.1067 2.0487 2.0661 2.1287 2.0382 2.078
1842.174 1.9701 1.8739 1.8834 1.9002 1.9412 1.854 1.81575 1.72601 1.6649 1.74988
1861.464 1.81717 1.8684 1.9615 1.8735 1.8806 1.9405 1.9591 2.089 1.9644 1.9486
1880.754 1.9015 1.8565 1.9467 1.8557 1.8806 1.8283 1.79123 1.71741 1.6381 1.635
1900.043 1.77878 1.9607 1.8446 1.8876 2.0071 2.0627 1.8869 1.81972 1.8747 1.76477
1919.333 1.77613 1.863 2.04 2.1755 1.9994 2.0337 2.2331 1.9144 1.55 1.476
1938.623 1.617 1.9336 2.0096 1.8434 1.6865 1.577 1.55 1.432 1.6224 1.74431
1957.913 1.447 1.472 1.576 1.472 1.463 1.7064 1.8254 1.71592 1.6721 1.78196
1977.202 1.74083 1.8207 1.9294 1.493 1.306 1.492 1.6365 1.6476 1.575 1.554
1996.492 1.557 1.6807 1.572 1.563 1.73547 1.77638 1.518 1.249 1.36 1.504
2015.782 1.54 1.572 1.535 1.43 1.457 1.6828 1.6919 1.6547 1.7067 1.539
2035.072 1.458 1.515 1.468 1.252 1.229 1.426 1.536 1.433 1.352 1.581
2054.362 1.551 1.435 1.506 1.6365 1.71847 1.6723 1.77913 1.6384 1.494 1.506
2073.651 1.572 1.6922 1.8988 1.9488 1.6648 1.517 1.451 1.338 1.301 1.366
2092.941 1.364 1.309 1.299 1.325 1.538 1.578 1.396 1.37 1.293 1.261
2112.231 1.498 1.404 1.269 1.473 1.6796 1.605 1.454 1.521 1.377 1.379
2131.521 1.577 1.638 1.6286 1.77773 1.8725 1.6669 1.473 1.529 1.579 1.393
2150.810 1.562 1.74259 1.73052 1.6362 1.367 1.298 1.643 1.944 1.6576 1.411
2170.100 1.6538 1.80759 1.8585 1.71469 1.555 1.72191 1.6523 1.6279 1.596 1.575
2189.390 1.592 1.79234 1.8675 1.73398 1.878 1.6609 1.604 1.7083 1.6875 1.6822
2208.680 1.465 1.467 1.515 1.6799 1.74052 1.472 1.407 1.27 1.256 1.356
2227.970 1.317 1.204 1.25 1.221 1.266 1.6459 1.75511 1.602 1.6811 1.6401
2247.259 1.404 1.216 1.163 1.358 1.475 1.6669 1.6349 1.377 1.376 1.528
2266.549 1.506 1.443 1.597 1.504 1.402 1.476 1.244 1.128 1.317 1.391
2285.839 1.433 1.517 1.57 1.6513 1.6465 1.532 1.612 1.78081 1.6202 1.323
2305.129 1.456 1.6893 1.58 1.309 1.138 1.367 1.536 1.586 1.536 1.4
2324.418 1.494 1.525 1.446 1.411 1.32 1.286 1.289 1.405 1.353 1.234
2343.708 1.273 1.508 1.515 1.108 1.144 1.272 1.364 1.361 1.428 1.6323
2362.998 1.617 1.74387 2.1632 1.9261 1.371 1.46 1.538 1.534 1.366 1.397
2382.288 1.75659 1.619 1.349 1.381 1.394 1.55 1.659 1.568 1.43 1.574
2401.578 1.8394 1.8588 1.9977 1.9256 1.6494 1.447 1.425 1.577 1.76812 1.7079
2420.867 1.587 1.8425 1.80881 1.337 1.305 1.254 1.124 1.514 1.79603 1.71867
2440.157 1.46 1.484 1.618 1.515 1.6588 1.8719 1.9696 1.9028 1.466 1.421
2459.447 1.6534 1.6322 1.444 1.332 1.76037 1.8395 1.586 1.75903 1.597 1.416
2478.737 1.534 1.586 1.6832 1.6278 1.6803 1.74863 1.531 1.574 1.80379 1.6869
2498.026 1.571 1.7148 1.461 1.208 1.333 1.343 1.307 1.494 1.8684 1.80949
2517.316 1.6292 1.691 1.72219 1.534 1.266 1.564 1.8253 1.7547 1.557 1.6561
2536.606 1.9006 1.78818 1.6285 1.613 1.6338 1.497 1.288 1.41 1.484 1.498
2555.896 1.8211 1.468 1.26 1.341 1.4 1.554 1.6207 1.436 1.554 2.0086
2575.186 2.095 1.7625 1.222 1.557 1.6721 1.71464 1.9797 1.7684 1.72177 1.595
2594.475 1.76925 2.0205 2.0639 2.1402 1.92 1.8533 1.9688 2.215 2.3547 1.9593
2613.765 1.73954 2.0964 2.3012 2.0615 1.9155 2.1876 2.42 2.3134 2.0259 2.0217
2633.055 2.2333 2.1749 2.1289 2.4034 2.4105 2.3226 2.5799 2.1175 1.8333 2.4866
2652.345 2.509 2.3856 2.3198 2.253 2.5022 2.6043 2.5679 2.3945 2.4694 2.2249
2671.634 2.1909 2.4627 2.4269 2.555 2.5725 2.5098 2.5384 2.79 2.5751 2.3193
2690.924 2.4097 2.3515 2.4094 2.3731 2.3849 2.4519 2.7064 2.85 2.5527 2.6314
2710.214 2.553 2.2371 2.4745 2.95 3.2 2.73 2.6165 3.01 3.09 3.07
2729.504 2.75 2.5494 2.9 2.73 2.5764 3.02 3.14 2.76 2.5049 2.6387
2748.794 2.5997 2.4778 2.6948 3.27 3.24 3.07 3.2 3.2 3.01 3.13
2768.083 3.26 3.28 3.17 3.05 3.06 2.6642 2.6636 2.84 3.17 3.34
2787.373 3.17 3.18 3.29 3.68 3.75 3.77 3.96 4.06 4.06 3.93
2806.663 4.32 4.76 5.09 5.26 5.23 5.35 5.81 6.42 6.61 6.75
2825.953 7.44 8.19 9.36 10.81 11.99 13.37 14.92 16.7 18.73 20.91
2845.242 22.7 24.3 25.71 26.74 27.68 28.11 28.38 28.67 28.71 29.18
2864.532 29.74 30.3 31.98 34.01 35.27 36.85 38.51 39.02 39.37 40.22
2883.822 40.54 39.88 39.32 38.65 38.28 38.55 39.18 40.08 40.95 42.46
2903.112 45.18 47.94 50.4 53.04 56.07 59 61.48 64.1 66.01 67.62
2922.401 68.25 68.31 68.33 67.17 65.79 64.99 63.47 61.52 59.63 57.14
2941.691 55.41 53.58 52.32 53.53 55.62 58.3 62.85 68.87 74.35 77.51
2960.981 77.96 76.86 73.55 68.12 61.99 54.35 45.78 37.15 29.55 23.69
2980.271 19.18 15.7 13.21 11.13 8.97 7.6 7.35 6.55 5.6 5.36
2999.561 4.91 4.69 4.83 5.04 4.36 3.66 3.54 3.2 3.4 3.84
3018.850 3.57 3.46 3.95 3.38 2.463 2.72 3.17 3.22 2.8 2.82
3038.140 3.35 3.39 2.99 2.7043 2.1955 1.9798 2.2702 2.3288 2.3462 2.2504
3057.430 2.2413 2.5633 2.254 2.0652 2.6051 1.9957 1.42 2.1058 2.9 2.87
3076.720 2.471 2.86 2.76 2.0757 1.7025 2.0261 2.596 2.76 2.6139 2.2792
3096.009 2.1333 1.9285 2.1004 2.1292 2.0462 2.3277 2.131 1.537 1.72008 2.098
3115.299 2.1773 2.3213 2.5478 2.223 1.74998 2.1811 2.5239 2.2232 1.939 1.8432
3134.589 1.6946 1.79968 2.3318 2.4796 2.052 2.3542 2.4168 2.1015 2.4964 2.88
3153.879 2.79 2.4809 2.2578 2.4626 2.5626 2.7128 3.04 2.5235 1.61 1.435
3173.169 1.9659 2.55 2.5363 2.3154 2.6115 2.237 2.0491 2.2462 1.6797 1.165
3192.458 1.415 1.552 1.71957 2.0521 2.1336 2.3448 1.9094 1.503 2.2473 2.6755
3211.748 2.3231 1.77169 1.529 2.0955 1.9483 1.545 1.72183 1.615 1.409 1.516
3231.038 1.7531 1.482 1.239 1.8595 2.195 1.8358 1.9448 2.1151 1.9748 2.1785
3250.328 1.6631 1.133 1.472 1.6918 1.396 1.6682 2.0181 1.8479 1.71515 1.187
3269.617 0.86 0.64 1.018 1.448 1.185 1.411 1.542 1.48 1.561 1.092
3288.907 1.476 1.388 1.12 1.78382 1.616 1.473 1.549 1.6868 1.603 1.293
3308.197 1.178 1.324 1.71109 1.844 2.0556 2.0741 1.71612 1.276 1.212 1.599
3327.487 2.0066 2.1847 2.4936 3.06 2.9 2.2389 1.385 1.282 2.099 2.0504
3346.777 1.799 1.9303 1.477 1.419 2.1343 2.5961 1.8372 1.588 1.568 0.922
3366.066 1.564 2.0032 1.58 1.409 0.67 0.17 0.38 0.928 1.933 2.2862
3385.356 1.411 0.948 1.216 1.251 1.004 1.064 1.566 1.72394 1.6449 1.75681
3404.646 1.77969 1.8336 1.307 1.01 1.441 1.6339 1.356 1.285 1.9572 1.79968
3423.936 1.408 1.011 1.473 1.6237 1.038 1.323 1.448 1.457 1.6574 1.476
3443.225 1.203 2.1669 2.3701 1.677 1.6411 1.394 1.495 1.8624 1.224 0.828
3462.515 1.316 1.411 1.392 1.215 1.276 1.503 1.184 0.66 0.988 1.22
3481.805 0.7 0.28 0.25 1.051 1.201 0.946 1.263 1.422 1.28 1.067
3501.095 1.269 1.42 0.916 0.907 0.894 0.72 1.141 1.474 1.365 1.031
3520.385 0.65 0.791 1.8238 1.77587 1.325 1.173 1.118 1.559 1.879 1.76034
3539.674 1.261 0.71 0.63 1.308 1.515 1.351 1.169 1.305 1.089 0.974
3558.964 1.538 1.397 1.295 1.017 0.749 0.915 1.01 1.8274 1.80122 0.948
3578.254 1.226 1.425 1.6679 1.619 1.407 1.151 0.11 0 1.194 2.0048
3597.544 1.509 1.032 1.9902 2.1386 1.81488 1.9339 1.31 0.903 1.011 1.344
3616.833 1.293 1.332 0.972 0.54 1.15 1.373 0.782 0.4 0.49 1.347
3636.123 1.079 0.36 0.946 1.227 1.414 1.608 1.519 1.122 0.63 0.68
3655.413 0.79 0.723 0.835 1.438 1.542 1.344 1.65 1.78955 1.541 1.387
3674.703 1.77218 1.501 1.464 1.76081 1.885 1.76397 1.211 1.526 1.854 1.6426
3693.993 1.255 1.125 1.528 1.381 1.721 2.0246 1.295 1.235 1.428 1.885
3713.282 2.4509 2.3804 1.479 1.032 1.533 1.77063 1.6985 1.396 1.177 0.894
3732.572 1.217 2.0785 1.9192 1.422 1.192 1.137 1.484 1.437 1.072 0.792
3751.862 1.388 1.72176 1.144 1.026 1.146 1.006 1.12 0.984 0.96 1.013
3771.152 0.856 1.074 1.265 1.302 1.485 1.582 1.6803 1.6253 1.275 2.0443
3790.441 2.2387 1.294 0.781 0.71 0.67 0.61 0.864 0.793 1.338 1.8608
3809.731 1.81845 1.594 0.828 1.366 1.6271 1.293 1.453 1.574 1.528 1.518
3829.021 1.81465 1.6519 1.74731 2.2127 1.8697 1.526 1.457 1.302 1.9453 1.9918
3848.311 1.304 0.857 1.193 2.2155 2.1814 1.369 0.74 0.952 1.506 2.0908
3867.601 1.88 0.808 1.083 1.507 1.471 1.55 1.543 1.8403 1.9176 1.6495
3886.890 1.294 1.372 1.118 0.892 1.004 0.66 0.993 1.213 1.306 0.818
3906.180 0.51 1.129 0.963 1.307 1.512 1.044 0.796 0.21 0.28 1.122
3925.470 1.478 1.461 0.928 0.935 1.616 1.543 1.6571 1.9439 1.432 1.047
3944.760 1.202 0.974 0.856 1.004 1.045 1.359 1.494 0.892 0.732 0.8
3964.049 1.066 1.152 1.146 1.77096 1.45 1.106 0.734 0.6 0.911 0.953
3983.339 1.522 2.2643 1.8412 1.089 1.352 1.162 0.813 1.434 2.0089 2.0207
##END=
