##TITLE=2,3,5,6-Tetramethylacetophenone
##JCAMP-DX=4.24
##DATA TYPE=INFRARED SPECTRUM
##ORIGIN=EPA-IR VAPOR PHASE LIBRARY
##OWNER=SRD/NIST
Collection (C) 2018 copyright by the U.S. Secretary of Commerce
on behalf of the United States of America. All rights reserved.
##CAS REGISTRY NO=2142-79-2
##MOLFORM=C 12 H 16 O
##$NIST SOURCE=MSDC-IR
##STATE=gas
##XUNITS=1/CM
##YUNITS=ABSORBANCE
##XFACTOR=1.
##YFACTOR=0.001
##DELTAX=1.929
##FIRSTX=549.8
##LASTX=4000.8
##FIRSTY=3.117
##MAXX=4000.75
##MINX=549.766
##MAXY=0.096277
##MINY=0
##NPOINTS=1790
##XYDATA=(X++(Y..Y))
549.766 3.117 3.467 3.577 3.827 4.277 4.627 5.117 5.477 5.577 5.357
569.056 5.347 5.267 4.807 4.217 3.737 3.427 3.027 2.447 2.157 1.967
588.346 1.4858 1.2337 1.4305 1.4634 1.4484 1.657 1.937 2.427 3.057 3.727
607.636 4.717 6.117 7.577 8.817 9.617 10.117 10.157 9.627 8.897 7.967
626.926 6.527 5.027 3.767 2.767 2.037 1.597 1.404 1.2992 1.1071 0.8834
646.216 0.8987 0.7995 0.7668 0.7893 0.6986 0.7358 0.8071 0.9134 1.1042 1.384
665.506 1.627 1.877 2.197 2.187 2.207 2.257 2.127 2.027 1.827 1.4936
684.796 1.25 0.99 0.8677 0.8466 0.67609 0.5508 0.596445 0.68071 0.5654 0.47
704.086 0.5184 0.61233 0.5708 0.5391 0.4957 0.46 0.5187 0.5252 0.5289 0.5675
723.376 0.5017 0.45 0.5165 0.5661 0.58226 0.62956 0.66788 0.67714 0.7707 0.8756
742.666 0.876 0.9051 0.9769 0.923 0.8092 0.7309 0.63905 0.58381 0.5067 0.435
761.956 0.4941 0.5465 0.5216 0.4901 0.4933 0.5503 0.58193 0.58018 0.64889 0.64152
781.246 0.67188 0.68192 0.60692 0.595756 0.61292 0.66997 0.7881 0.9695 1.0327 1.0392
800.536 0.9296 0.8986 0.9852 0.9395 0.8452 0.9447 0.9876 0.8437 0.8211 0.8268
819.826 0.9672 1.0898 1.1599 1.3047 1.4652 1.667 1.877 2.077 2.407 2.787
839.116 3.057 3.167 3.097 3.017 3.097 3.237 3.327 3.657 4.277 4.977
858.406 5.807 6.547 7.397 8.457 9.827 10.477 9.267 7.597 6.627 5.887
877.696 5.077 4.207 3.347 2.697 2.257 2.067 2.017 1.947 1.867 1.777
896.986 1.767 1.827 1.837 1.927 1.997 2.047 2.227 2.227 2.197 2.337
916.276 2.417 2.447 2.497 2.707 2.897 3.037 3.237 3.437 3.697 4.117
935.566 4.647 5.247 5.987 6.867 7.877 8.927 9.987 11.027 11.727 12.197
954.856 12.547 12.637 12.387 11.887 11.287 10.567 9.817 9.157 8.587 8.197
974.146 7.987 7.887 7.947 8.067 8.267 8.657 9.037 9.297 9.527 9.717
993.436 9.897 9.947 9.957 9.967 9.947 9.957 9.897 9.887 9.937 10.017
1012.726 9.997 9.787 9.507 9.197 8.807 8.327 7.667 7.027 6.557 6.067
1032.016 5.677 5.367 4.947 4.647 4.437 4.217 3.977 3.717 3.547 3.377
1051.306 3.307 3.297 3.137 3.007 2.957 2.887 2.847 2.837 2.857 2.847
1070.596 2.807 2.787 2.757 2.787 2.817 2.827 2.737 2.657 2.657 2.637
1089.886 2.687 2.747 2.827 2.897 2.907 2.997 3.137 3.237 3.337 3.427
1109.176 3.397 3.427 3.557 3.597 3.757 3.957 4.057 4.177 4.387 4.777
1128.467 5.267 5.907 6.617 7.607 8.967 10.677 12.847 15.577 18.807 22.287
1147.757 25.807 28.987 31.407 32.827 32.977 31.587 28.937 25.607 21.807 17.897
1167.047 14.317 11.317 9.207 7.977 7.117 6.507 6.167 5.737 5.217 4.777
1186.337 4.417 4.097 3.687 3.297 3.087 2.857 2.787 2.897 2.977 3.147
1205.627 3.427 3.917 4.717 5.787 7.147 8.917 10.937 13.057 15.297 17.237
1224.917 18.867 20.177 20.847 20.837 20.157 18.937 17.227 15.257 13.187 11.207
1244.207 9.407 7.847 6.607 5.557 4.787 4.347 4.097 3.927 3.807 3.827
1263.497 3.917 4.117 4.367 4.617 5.057 5.607 6.317 7.297 8.477 9.897
1282.787 11.747 13.937 16.367 19.097 21.837 24.287 26.337 27.567 27.767 27.057
1302.077 25.467 23.087 20.097 16.857 13.707 10.997 9.037 7.877 7.267 7.007
1321.367 7.067 7.287 7.687 8.287 9.057 10.027 11.217 12.767 14.727 17.137
1340.657 19.957 22.997 26.157 29.237 32.157 34.777 36.407 36.287 34.877 33.027
1359.947 30.947 28.717 26.617 24.927 23.857 23.437 23.447 23.577 23.597 23.447
1379.237 22.967 22.177 21.237 19.987 18.447 16.987 15.807 14.987 14.407 13.817
1398.527 13.257 12.627 11.967 11.417 11.037 10.817 10.767 10.867 11.057 11.407
1417.817 11.827 12.307 12.857 13.437 13.987 14.457 14.987 15.567 16.117 16.597
1437.107 17.177 17.867 18.587 19.347 20.187 21.127 22.117 23.067 23.957 24.767
1456.397 25.527 26.287 26.967 27.357 27.387 27.157 26.547 25.527 24.167 22.567
1475.687 20.847 18.957 17.017 15.207 13.627 12.257 11.137 10.287 9.667 9.197
1494.977 8.837 8.567 8.257 8.007 7.857 7.687 7.547 7.377 7.197 7.097
1514.267 6.957 6.827 6.687 6.577 6.517 6.377 6.287 6.197 6.107 6.077
1533.557 6.047 5.977 5.927 5.887 5.807 5.807 5.777 5.727 5.707 5.697
1552.847 5.677 5.697 5.717 5.687 5.717 5.727 5.707 5.677 5.607 5.497
1572.137 5.427 5.397 5.397 5.397 5.347 5.287 5.297 5.397 5.427 5.507
1591.427 5.677 5.787 5.897 5.967 6.037 6.037 5.897 5.707 5.487 5.197
1610.717 4.887 4.587 4.317 4.077 3.927 3.827 3.767 3.747 3.777 3.877
1630.007 3.957 4.037 4.097 4.187 4.367 4.527 4.667 4.797 4.987 5.177
1649.297 5.377 5.587 5.767 5.917 6.077 6.267 6.457 6.647 6.877 7.107
1668.587 7.357 7.687 8.097 8.447 8.947 9.597 10.437 11.447 12.817 14.567
1687.877 16.667 19.377 22.707 26.727 31.877 37.787 44.377 52.357 60.227 68.657
1707.167 76.877 84.377 90.497 94.687 96.277 95.017 91.297 86.177 79.577 71.867
1726.457 63.377 54.607 45.897 37.997 30.687 24.517 19.587 15.387 12.177 9.797
1745.747 8.117 6.877 6.007 5.407 5.007 4.777 4.667 4.607 4.607 4.587
1765.037 4.547 4.507 4.377 4.207 4.077 3.887 3.657 3.457 3.267 3.137
1784.327 3.027 2.947 2.917 2.817 2.727 2.697 2.637 2.517 2.387 2.217
1803.617 2.057 1.947 1.807 1.667 1.607 1.5123 1.3674 1.2918 1.236 1.1537
1822.907 1.1572 1.1259 1.0707 1.0645 1.0584 1.0762 1.052 1.004 0.989 1.0138
1842.197 1.0285 0.9976 0.9904 0.9617 0.9622 0.9769 1.0028 1.058 1.0389 1.0043
1861.487 1.0584 1.0764 1.0496 1.0423 1.0084 1.0196 1.049 1.0604 1.0685 1.1002
1880.777 1.126 1.1141 1.1312 1.1689 1.2165 1.2375 1.2233 1.2016 1.2021 1.1966
1900.067 1.1366 1.1536 1.1507 1.0811 0.9975 0.9169 0.917 0.9095 0.9067 0.8819
1919.357 0.8403 0.8397 0.7976 0.7454 0.725 0.7348 0.7103 0.7065 0.7281 0.7007
1938.647 0.7281 0.751 0.7502 0.7504 0.7591 0.7834 0.8085 0.821 0.7959 0.782
1957.937 0.8084 0.795 0.747 0.7662 0.7593 0.7337 0.7345 0.7233 0.68398 0.64784
1977.227 0.64162 0.68682 0.7407 0.68419 0.65763 0.67096 0.63507 0.60146 0.63687 0.64564
1996.517 0.63007 0.61675 0.5512 0.5371 0.5449 0.5354 0.5277 0.506 0.5091 0.5321
2015.807 0.5284 0.5179 0.497 0.5346 0.591604 0.5786 0.5705 0.57889 0.61873 0.64727
2035.097 0.592781 0.5534 0.58 0.60535 0.62295 0.6526 0.6987 0.7163 0.697 0.6961
2054.387 0.688 0.66882 0.65796 0.64158 0.61513 0.59915 0.61438 0.59974 0.61431 0.628
2073.677 0.60164 0.5705 0.5701 0.57886 0.5708 0.5724 0.6164 0.64717 0.586818 0.58554
2092.967 0.61202 0.62466 0.62945 0.62664 0.65133 0.65268 0.66312 0.6943 0.67824 0.64478
2112.257 0.60235 0.5632 0.5719 0.586769 0.5492 0.5034 0.4966 0.5086 0.5465 0.5648
2131.547 0.5275 0.4904 0.472 0.469 0.469 0.432 0.431 0.443 0.472 0.467
2150.837 0.474 0.473 0.401 0.384 0.393 0.432 0.441 0.426 0.423 0.439
2170.127 0.463 0.48 0.5091 0.471 0.443 0.485 0.5087 0.5625 0.63346 0.58529
2189.417 0.593959 0.63319 0.63331 0.66415 0.62414 0.587899 0.593609 0.57803 0.528 0.487
2208.707 0.5242 0.5471 0.5628 0.57941 0.5482 0.5265 0.4993 0.5142 0.5462 0.5502
2227.997 0.5241 0.48 0.473 0.4923 0.4941 0.4943 0.5185 0.5231 0.483 0.448
2247.287 0.455 0.471 0.484 0.4986 0.4917 0.5088 0.5316 0.51 0.47 0.477
2266.577 0.5261 0.5258 0.5043 0.4963 0.5049 0.5455 0.58449 0.60044 0.593896 0.586016
2285.868 0.5761 0.60731 0.593343 0.5305 0.5524 0.590316 0.6281 0.62572 0.58457 0.64072
2305.158 0.66615 0.6277 0.59718 0.60664 0.63998 0.588673 0.5437 0.5211 0.4962 0.5057
2324.448 0.5455 0.501 0.434 0.48 0.5149 0.5322 0.5572 0.5277 0.5002 0.5529
2343.738 0.5605 0.5132 0.474 0.483 0.5026 0.484 0.451 0.444 0.482 0.5131
2363.028 0.5108 0.5255 0.5501 0.5292 0.587068 0.590338 0.58405 0.62 0.61758 0.64307
2382.318 0.58292 0.588036 0.68688 0.7173 0.7093 0.7113 0.7222 0.7274 0.7126 0.7102
2401.608 0.7355 0.7332 0.7182 0.7458 0.7879 0.785 0.8399 0.8406 0.7667 0.7592
2420.898 0.7818 0.8148 0.8359 0.8956 0.9321 0.8662 0.8394 0.8629 0.8386 0.8026
2440.188 0.81 0.8474 0.8358 0.8455 0.8771 0.8664 0.8497 0.8537 0.8268 0.8043
2459.478 0.8543 0.8516 0.8435 0.8816 0.9314 0.9524 0.9269 0.8795 0.8494 0.8516
2478.768 0.8383 0.8508 0.8544 0.7963 0.7455 0.7185 0.7004 0.7295 0.7446 0.7206
2498.058 0.66872 0.7021 0.7375 0.67805 0.68466 0.7458 0.7333 0.64282 0.63334 0.63273
2517.348 0.61455 0.63154 0.6053 0.5693 0.5713 0.596206 0.60291 0.63267 0.65882 0.61583
2536.638 0.5651 0.5267 0.5531 0.5479 0.5334 0.58172 0.586569 0.5756 0.5583 0.58233
2555.928 0.60309 0.586153 0.59767 0.590715 0.5494 0.5582 0.57707 0.5147 0.526 0.588075
2575.218 0.5627 0.5507 0.58384 0.5652 0.5659 0.61549 0.6616 0.67285 0.6965 0.67199
2594.508 0.592229 0.5392 0.5379 0.64671 0.6853 0.67527 0.68207 0.67863 0.6955 0.66467
2613.798 0.61579 0.64543 0.6955 0.7042 0.6853 0.66408 0.7197 0.7596 0.7432 0.7636
2633.088 0.7721 0.7271 0.7322 0.68052 0.65138 0.7395 0.7338 0.67746 0.7121 0.7404
2652.378 0.6959 0.7156 0.7439 0.7273 0.696 0.7033 0.7281 0.7482 0.7982 0.7962
2671.668 0.7853 0.8347 0.8314 0.8174 0.7957 0.756 0.7753 0.8776 0.9159 0.91
2690.958 0.8937 0.8157 0.7856 0.788 0.7763 0.7764 0.8597 0.9063 0.9007 0.9396
2710.248 1.0249 1.0479 1.0757 1.1559 1.2202 1.3284 1.3775 1.4161 1.5103 1.677
2729.538 1.907 2.117 2.317 2.507 2.707 2.917 3.067 3.107 3.147 3.067
2748.828 2.967 2.877 2.717 2.627 2.507 2.387 2.397 2.387 2.307 2.327
2768.118 2.467 2.497 2.467 2.467 2.387 2.387 2.447 2.387 2.337 2.347
2787.408 2.297 2.277 2.327 2.387 2.417 2.457 2.487 2.607 2.747 2.767
2806.698 2.897 3.087 3.207 3.387 3.497 3.607 3.817 3.997 4.267 4.507
2825.988 4.717 5.097 5.357 5.627 6.027 6.377 6.707 7.117 7.567 7.987
2845.278 8.457 9.037 9.657 10.347 11.187 12.107 13.197 14.447 15.817 17.487
2864.568 19.247 21.127 23.087 24.977 26.787 28.277 29.417 30.117 30.327 30.167
2883.858 29.807 29.227 28.497 27.777 27.177 26.677 26.287 26.147 26.277 26.537
2903.148 26.927 27.477 28.247 29.367 30.777 32.447 34.387 36.637 39.307 42.277
2922.438 45.347 48.477 51.607 54.427 56.647 58.167 59.007 59.107 58.577 57.437
2941.728 55.797 53.757 51.537 49.437 47.477 45.707 43.837 41.817 39.777 37.777
2961.018 36.107 34.827 33.857 33.147 32.747 32.647 32.607 32.477 32.367 32.037
2980.308 31.487 30.917 30.057 29.207 28.457 27.767 27.487 27.507 27.687 28.187
2999.598 29.077 30.127 31.167 31.967 32.397 32.297 31.637 30.487 28.727 26.707
3018.888 24.497 22.167 20.067 18.387 17.197 16.287 15.597 15.157 14.747 14.337
3038.178 14.017 13.837 13.657 13.527 13.477 13.297 13.117 12.967 12.817 12.647
3057.468 12.377 12.117 11.877 11.577 11.267 11.007 10.637 10.197 9.817 9.357
3076.758 8.867 8.477 8.087 7.677 7.217 6.737 6.357 5.997 5.617 5.227
3096.048 4.987 4.837 4.567 4.277 4.007 3.797 3.627 3.447 3.327 3.167
3115.338 3.067 2.937 2.727 2.607 2.527 2.457 2.357 2.297 2.227 2.177
3134.628 2.107 1.947 1.837 1.867 1.837 1.787 1.757 1.607 1.5197 1.3713
3153.918 1.3057 1.4251 1.4194 1.2759 1.149 1.1848 1.1947 1.1499 1.1718 1.048
3173.208 0.9459 0.9822 1.0304 1.0064 0.9719 0.9162 0.9316 0.9983 0.8954 0.8893
3192.498 0.9181 0.888 0.8155 0.7883 0.878 0.8009 0.64141 0.63932 0.7138 0.65651
3211.788 0.68121 0.7303 0.63169 0.59861 0.60825 0.6225 0.59721 0.5619 0.5237 0.468
3231.078 0.458 0.462 0.5029 0.5749 0.58343 0.588932 0.589954 0.471 0.359 0.412
3250.368 0.4985 0.433 0.416 0.5001 0.5428 0.59738 0.491 0.413 0.439 0.43
3269.658 0.482 0.45 0.382 0.341 0.342 0.391 0.435 0.375 0.412 0.5505
3288.948 0.5029 0.469 0.395 0.34 0.43 0.363 0.347 0.421 0.432 0.4926
3308.238 0.4955 0.5057 0.5583 0.4912 0.42 0.423 0.422 0.35 0.238 0.33
3327.528 0.409 0.395 0.462 0.5441 0.5054 0.378 0.405 0.425 0.412 0.438
3346.818 0.437 0.5658 0.5474 0.5038 0.5219 0.456 0.483 0.468 0.5267 0.573
3366.108 0.51 0.5198 0.591826 0.68051 0.7173 0.7459 0.7985 0.8466 0.9381 0.9391
3385.398 0.9864 1.1122 1.2488 1.3247 1.495 1.647 1.617 1.707 1.727 1.797
3404.688 1.817 1.727 1.857 1.887 1.737 1.667 1.647 1.647 1.5672 1.4143
3423.978 1.292 1.2419 1.2058 1.0616 0.829 0.7507 0.7874 0.7486 0.65075 0.5855
3443.269 0.5653 0.5556 0.5019 0.472 0.5517 0.5126 0.364 0.323 0.438 0.5413
3462.559 0.482 0.356 0.38 0.404 0.368 0.398 0.462 0.415 0.387 0.431
3481.849 0.379 0.32 0.322 0.25 0.32 0.409 0.339 0.385 0.441 0.343
3501.139 0.281 0.321 0.318 0.217 0.197 0.312 0.323 0.279 0.311 0.34
3520.429 0.325 0.34 0.312 0.254 0.223 0.269 0.24 0.179 0.269 0.285
3539.719 0.221 0.255 0.22 0.228 0.311 0.267 0.241 0.256 0.223 0.31
3559.009 0.295 0.257 0.338 0.312 0.178 0.164 0.181 0.125 0.192 0.211
3578.299 0.244 0.323 0.316 0.211 0.234 0.18 0.104 0.138 0.106 0.148
3597.589 0.166 0.208 0.206 0.244 0.24 0.165 0.115 0.064 0.078 0.178
3616.879 0.273 0.306 0.308 0.281 0.238 0.184 0.077 0.107 0.308 0.387
3636.169 0.355 0.207 0.219 0.36 0.202 0 0.075 0.097 0.073 0.192
3655.459 0.339 0.324 0.251 0.251 0.303 0.351 0.306 0.197 0.177 0.27
3674.749 0.223 0.157 0.179 0.294 0.393 0.288 0.224 0.178 0.127 0.174
3694.039 0.167 0.176 0.282 0.362 0.341 0.302 0.296 0.199 0.093 0.097
3713.329 0.194 0.189 0.202 0.285 0.26 0.229 0.253 0.248 0.185 0.165
3732.619 0.114 0.05 0.022 0.134 0.189 0.063 0.102 0.2 0.238 0.196
3751.909 0.057 0.062 0.196 0.256 0.188 0.218 0.351 0.34 0.245 0.231
3771.199 0.247 0.262 0.219 0.179 0.138 0.106 0.201 0.256 0.213 0.116
3790.489 0.081 0.177 0.226 0.213 0.15 0.191 0.232 0.259 0.224 0.19
3809.779 0.212 0.224 0.275 0.283 0.333 0.389 0.358 0.232 0.214 0.227
3829.069 0.151 0.26 0.414 0.47 0.451 0.428 0.379 0.34 0.332 0.342
3848.359 0.452 0.423 0.385 0.393 0.417 0.434 0.381 0.389 0.416 0.455
3867.649 0.465 0.407 0.337 0.33 0.461 0.415 0.392 0.463 0.409 0.434
3886.939 0.5092 0.5336 0.586686 0.5234 0.409 0.39 0.445 0.468 0.5118 0.5705
3906.229 0.453 0.487 0.62433 0.4897 0.367 0.456 0.5327 0.5607 0.5436 0.413
3925.519 0.323 0.417 0.548 0.5317 0.5472 0.5629 0.5273 0.58224 0.587615 0.46
3944.809 0.424 0.63096 0.6379 0.5667 0.5648 0.486 0.48 0.5004 0.593151 0.594356
3964.099 0.5267 0.5538 0.67852 0.66542 0.515 0.60088 0.433 0.347 0.46 0.423
3983.389 0.449 0.5085 0.5111 0.348 0.324 0.403 0.382 0.43 0.386 0.34
##END=
