##TITLE=1-(4-Fluorophenyl)imidazole
##JCAMP-DX=4.24
##DATA TYPE=INFRARED SPECTRUM
##ORIGIN=EPA-IR VAPOR PHASE LIBRARY
##OWNER=SRD/NIST
Collection (C) 2018 copyright by the U.S. Secretary of Commerce
on behalf of the United States of America. All rights reserved.
##CAS REGISTRY NO=21441-24-7
##MOLFORM=C 9 H 7 F N 2
##$NIST SOURCE=MSDC-IR
##STATE=gas
##XUNITS=1/CM
##YUNITS=ABSORBANCE
##XFACTOR=1.
##YFACTOR=0.001
##DELTAX=1.92898
##FIRSTX=549.8
##LASTX=4000.7
##FIRSTY=1.963
##MAXX=4000.7
##MINX=549.759
##MAXY=0.118703
##MINY=0
##NPOINTS=1790
##XYDATA=(X++(Y..Y))
549.759 1.963 1.883 1.523 1.2956 1.533 1.2576 0.9445 1.0498 1.1049 1.1615
569.049 1.1615 1.1035 0.9912 0.7298 0.7423 1.0083 1.126 1.393 1.523 1.503
588.339 1.623 1.883 2.213 2.833 3.823 4.973 5.853 6.583 7.503 8.213
607.628 8.773 9.023 8.583 8.083 7.433 6.323 5.513 4.763 3.723 3.073
626.918 2.723 2.543 2.393 2.313 2.533 2.553 2.743 2.953 3.123 3.443
646.208 3.483 3.943 4.453 4.623 4.843 4.963 5.153 4.973 4.673 4.573
665.498 4.213 3.663 3.223 3.013 2.883 2.653 2.243 1.853 1.823 1.783
684.787 1.753 1.883 1.953 1.913 1.883 1.953 2.043 2.123 2.533 3.093
704.077 3.273 3.763 4.463 5.013 5.613 6.113 6.683 7.373 7.883 8.223
723.367 8.273 7.733 7.293 6.993 6.283 5.583 4.883 4.243 3.703 3.163
742.657 2.843 2.323 1.873 1.793 1.673 1.573 1.483 1.453 1.3024 1.094
761.947 1.224 1.483 1.473 1.403 1.413 1.443 1.473 1.393 1.423 1.803
781.236 2.093 2.053 2.163 2.503 2.833 3.303 3.903 4.473 5.123 5.813
800.526 6.583 7.423 8.293 9.153 10.363 11.503 11.883 12.093 12.233 12.423
819.816 12.723 12.833 13.083 13.243 13.433 14.133 14.853 15.803 16.793 17.283
839.106 16.913 15.603 14.143 13.063 12.143 10.933 9.623 8.393 7.103 5.853
858.395 4.893 4.223 3.503 3.043 2.703 2.243 2.053 1.753 1.633 1.933
877.685 1.963 1.853 1.853 1.993 2.083 2.083 2.783 3.733 4.203 4.353
896.975 4.293 4.323 4.413 4.313 3.613 2.663 2.013 1.633 1.483 1.403
916.265 1.2025 1.0825 0.9858 0.9875 1.0313 0.984 0.9413 0.7968 0.636 0.659
935.555 0.688 0.6922 0.6425 0.564 0.6477 0.7941 0.8816 0.9934 1.2874 1.773
954.844 2.453 3.343 4.173 4.673 4.713 4.663 4.843 4.633 3.763 2.893
974.134 2.153 1.553 1.1159 0.8199 0.9122 0.9907 0.9959 1.0642 1.1181 0.9086
993.424 0.6149 0.6754 0.8068 0.9054 0.894 0.9404 1.0294 1.3065 1.673 1.853
1012.714 1.963 2.033 2.143 1.953 1.953 2.023 1.733 1.613 1.723 2.013
1032.003 2.403 3.013 3.633 5.043 7.363 10.813 15.813 20.463 23.153 23.973
1051.293 24.483 25.093 24.353 20.953 15.653 11.123 8.123 5.913 4.253 3.193
1070.583 2.373 2.093 2.353 2.243 2.363 2.763 2.913 3.243 3.483 3.733
1089.873 4.213 4.463 4.643 5.103 4.963 4.863 5.013 5.193 5.433 5.363
1109.163 4.833 3.953 3.893 3.953 3.343 2.773 2.713 2.343 2.033 1.973
1128.452 1.803 1.633 1.503 1.403 1.323 1.393 1.2967 1.26 1.753 2.183
1147.742 2.733 3.823 4.873 5.243 5.393 5.373 5.253 5.233 4.633 3.413
1167.032 2.143 1.663 1.483 1.363 1.473 1.483 1.313 1.393 1.503 1.363
1186.322 1.523 1.883 2.253 2.353 2.273 2.833 3.553 3.853 4.363 4.583
1205.611 4.953 6.323 7.423 8.093 8.983 9.953 11.373 13.013 14.533 16.393
1224.901 18.743 22.103 26.303 30.943 36.403 41.893 46.643 50.303 51.753 50.373
1244.191 46.483 40.983 34.933 28.283 20.813 14.433 10.033 7.233 5.813 4.943
1263.481 4.243 3.823 3.593 3.293 3.103 3.023 2.883 2.983 3.063 3.103
1282.771 3.263 3.483 3.963 4.753 5.863 7.183 8.663 10.073 11.233 11.943
1302.060 12.483 12.843 12.503 11.453 9.923 8.273 6.763 5.413 4.193 3.183
1321.350 2.433 1.913 1.643 1.463 1.383 1.333 1.2008 1.163 1.1908 1.1172
1340.640 1.0213 1.0095 1.0306 1.0231 1.0272 1.0451 1.0527 1.0903 1.0987 1.0446
1359.930 1.0116 1.0539 1.0947 1.0967 1.119 1.1374 1.0979 1.0576 1.0848 1.1048
1379.219 1.0808 1.0873 1.0575 0.9579 0.8432 0.7819 0.7767 0.7634 0.7639 0.7608
1398.509 0.7783 0.826 0.8653 0.9403 0.9529 0.97 1.02 1.0721 1.1191 1.1213
1417.799 1.1748 1.2662 1.343 1.363 1.423 1.533 1.563 1.623 1.743 1.863
1437.089 1.993 2.203 2.423 2.583 2.833 3.153 3.453 3.753 4.083 4.383
1456.378 4.673 4.853 4.933 4.983 5.043 5.183 5.413 5.823 6.473 7.623
1475.668 9.133 10.563 11.673 12.283 12.483 12.503 12.393 12.033 11.253 10.673
1494.958 11.373 13.763 17.753 23.393 30.913 40.423 52.313 67.153 84.293 101.063
1514.248 113.403 118.703 117.423 111.713 102.283 88.363 69.323 47.953 29.703 17.953
1533.538 11.873 9.033 7.663 6.833 6.333 6.033 5.793 5.633 5.433 5.213
1552.827 5.023 4.823 4.683 4.483 4.313 4.353 4.393 4.323 4.433 4.613
1572.117 4.593 4.433 4.113 3.613 3.233 2.893 2.533 2.203 1.883 1.793
1591.407 1.823 1.833 1.883 1.973 2.143 2.283 2.463 2.673 2.883 3.063
1610.697 3.163 3.313 3.493 3.483 3.363 3.283 3.103 2.923 2.753 2.563
1629.986 2.423 2.303 2.203 2.143 2.043 1.983 1.933 1.853 1.833 1.823
1649.276 1.803 1.913 2.033 2.033 1.963 1.913 1.843 1.743 1.643 1.543
1668.566 1.453 1.2961 1.1676 1.1539 1.1504 1.2446 1.323 1.343 1.423 1.473
1687.856 1.493 1.563 1.633 1.773 2.003 2.123 2.153 2.103 2.003 1.883
1707.146 1.743 1.563 1.323 1.1094 0.9449 0.8225 0.7694 0.7281 0.7293 0.7667
1726.435 0.7752 0.7962 0.7493 0.7191 0.8019 0.8765 0.9141 1.0075 1.078 1.0789
1745.725 1.1251 1.0972 1.0037 0.9986 0.9743 0.8661 0.7913 0.7741 0.7338 0.7428
1765.015 0.742 0.677 0.6611 0.6376 0.5683 0.5295 0.5095 0.4884 0.4865 0.5428
1784.305 0.6155 0.5895 0.5508 0.4729 0.4467 0.5078 0.5375 0.5249 0.5215 0.5617
1803.594 0.5379 0.5221 0.5312 0.5798 0.5128 0.5079 0.5692 0.5593 0.6509 0.7161
1822.884 0.7058 0.6835 0.6842 0.7127 0.781 0.7995 0.7315 0.726 0.7736 0.7918
1842.174 0.7656 0.7393 0.7366 0.7786 0.8128 0.8396 0.8984 0.9518 0.9891 1.0391
1861.464 1.182 1.2171 1.2032 1.363 1.483 1.493 1.493 1.523 1.543 1.513
1880.754 1.503 1.403 1.3032 1.2072 1.0725 0.994 0.9144 0.8254 0.7996 0.7932
1900.043 0.6967 0.6945 0.7272 0.6631 0.6711 0.6992 0.6798 0.7065 0.6761 0.6267
1919.333 0.6046 0.593 0.5895 0.5933 0.6105 0.5928 0.5196 0.5152 0.5232 0.4455
1938.623 0.4753 0.4698 0.4624 0.4839 0.471 0.4945 0.466 0.462 0.4995 0.4964
1957.913 0.5331 0.4978 0.4458 0.4812 0.5267 0.5618 0.6063 0.6338 0.5944 0.5825
1977.202 0.6013 0.5747 0.4942 0.4428 0.4869 0.601 0.6053 0.5421 0.5388 0.5234
1996.492 0.5414 0.5194 0.4609 0.4789 0.4696 0.4627 0.4468 0.37825 0.37853 0.38131
2015.782 0.32305 0.36924 0.41235 0.38441 0.38488 0.4212 0.4531 0.461 0.5105 0.5402
2035.072 0.5002 0.5322 0.6211 0.6253 0.6307 0.6945 0.7221 0.7698 0.8116 0.8395
2054.362 0.8277 0.7825 0.8198 0.8043 0.7768 0.79 0.7622 0.7096 0.6447 0.658
2073.651 0.6362 0.5299 0.4918 0.503 0.5081 0.4715 0.4722 0.4899 0.52 0.5403
2092.941 0.5371 0.5329 0.5416 0.5707 0.5164 0.4286 0.439 0.4582 0.4397 0.4791
2112.231 0.4997 0.4645 0.426 0.4646 0.4696 0.4314 0.4107 0.3445 0.33996 0.37288
2131.521 0.4235 0.4808 0.5088 0.5679 0.5955 0.5874 0.5449 0.4418 0.4635 0.5281
2150.810 0.5257 0.5604 0.5195 0.4583 0.4511 0.4571 0.4622 0.4929 0.499 0.5056
2170.100 0.4951 0.478 0.5207 0.5128 0.4682 0.39924 0.37494 0.4645 0.5039 0.5041
2189.390 0.4969 0.4187 0.4436 0.4832 0.4718 0.5413 0.5609 0.5206 0.5571 0.5418
2208.680 0.5227 0.5399 0.5036 0.4807 0.5283 0.5442 0.5274 0.5344 0.5236 0.5306
2227.970 0.4477 0.4379 0.5328 0.4946 0.4767 0.4646 0.452 0.46 0.4349 0.4827
2247.259 0.5226 0.5281 0.5282 0.5229 0.5017 0.5161 0.5157 0.4951 0.515 0.5278
2266.549 0.4968 0.4851 0.5495 0.5237 0.5024 0.5103 0.4266 0.40927 0.4724 0.4894
2285.839 0.531 0.5699 0.5535 0.5214 0.4496 0.4343 0.5096 0.6083 0.652 0.584
2305.129 0.518 0.4932 0.4874 0.5159 0.5163 0.489 0.5011 0.536 0.5427 0.5761
2324.418 0.5802 0.5446 0.5614 0.5949 0.6005 0.6746 0.711 0.6126 0.5976 0.6039
2343.708 0.5867 0.5592 0.5192 0.5678 0.5452 0.4379 0.5187 0.5509 0.4586 0.4714
2362.998 0.4976 0.5208 0.5161 0.4724 0.4398 0.3807 0.39689 0.4477 0.455 0.5375
2382.288 0.5939 0.6181 0.6446 0.6082 0.5936 0.5785 0.6009 0.6303 0.6535 0.6815
2401.578 0.6468 0.6625 0.7056 0.7281 0.697 0.6401 0.6255 0.6756 0.7182 0.7393
2420.867 0.6728 0.7064 0.755 0.641 0.5767 0.5078 0.5587 0.5609 0.4836 0.5191
2440.157 0.5807 0.5712 0.5503 0.5058 0.4918 0.5868 0.6294 0.6101 0.6308 0.6357
2459.447 0.575 0.5249 0.5585 0.6437 0.7135 0.7815 0.7974 0.8179 0.7908 0.8396
2478.737 0.8717 0.8344 0.8758 0.8849 0.8196 0.7438 0.7409 0.7256 0.7412 0.7445
2498.026 0.6882 0.6139 0.5684 0.5909 0.615 0.6442 0.6325 0.6285 0.6334 0.614
2517.316 0.6783 0.6927 0.6395 0.5911 0.5546 0.6506 0.741 0.6912 0.6764 0.7436
2536.606 0.7807 0.8293 0.8437 0.8489 0.8421 0.8041 0.7776 0.7659 0.804 0.8306
2555.896 0.8775 0.9095 0.9045 0.9043 0.8387 0.8136 0.799 0.7823 0.8359 0.799
2575.186 0.7597 0.759 0.738 0.7588 0.8573 0.8871 0.8138 0.7704 0.73 0.6403
2594.475 0.6158 0.6842 0.6893 0.7112 0.7128 0.6908 0.6856 0.6379 0.7044 0.7764
2613.765 0.7302 0.6575 0.5968 0.5268 0.5316 0.6315 0.5493 0.4072 0.4151 0.4588
2633.055 0.4392 0.4559 0.533 0.4943 0.4088 0.43 0.4864 0.5149 0.4929 0.4414
2652.345 0.4062 0.4633 0.5807 0.6242 0.5752 0.5197 0.5561 0.5565 0.4945 0.4955
2671.634 0.5137 0.5845 0.5741 0.4372 0.4212 0.482 0.5225 0.5416 0.5361 0.5352
2690.924 0.5181 0.505 0.5694 0.5783 0.5247 0.5055 0.5017 0.6187 0.7129 0.6524
2710.214 0.6069 0.6274 0.5913 0.5913 0.6878 0.7125 0.7729 0.7944 0.621 0.5706
2729.504 0.6478 0.6598 0.6613 0.731 0.7939 0.734 0.7266 0.7391 0.6717 0.5851
2748.794 0.6133 0.6386 0.5667 0.6415 0.7053 0.6609 0.6512 0.6299 0.6091 0.5822
2768.083 0.553 0.6264 0.7059 0.631 0.5981 0.6148 0.6391 0.6579 0.6494 0.7097
2787.373 0.6851 0.6343 0.6665 0.6478 0.6748 0.6904 0.5521 0.482 0.5383 0.5642
2806.663 0.5456 0.5359 0.5902 0.6333 0.6352 0.5285 0.40342 0.5398 0.6389 0.5281
2825.953 0.5066 0.524 0.5171 0.6027 0.6421 0.6402 0.5655 0.3698 0.3533 0.4382
2845.242 0.5019 0.6143 0.5514 0.5587 0.6929 0.5597 0.5745 0.6481 0.5623 0.5329
2864.532 0.5257 0.5297 0.5811 0.5146 0.4769 0.5394 0.5188 0.5163 0.4644 0.4871
2883.822 0.5933 0.4893 0.39732 0.4732 0.5036 0.5918 0.6056 0.5653 0.5267 0.5421
2903.112 0.4861 0.39864 0.2948 0.152 0.34599 0.488 0.36811 0.37366 0.4159 0.36626
2922.401 0.38474 0.488 0.5172 0.34914 0.2936 0.498 0.4502 0.3347 0.4285 0.4452
2941.691 0.33005 0.39293 0.4807 0.3801 0.4277 0.4686 0.4306 0.5165 0.5995 0.5102
2960.981 0.4367 0.4461 0.39831 0.2629 0.2257 0.2795 0.2588 0.2843 0.3595 0.40203
2980.271 0.4217 0.4218 0.39833 0.4972 0.5037 0.36665 0.277 0.35404 0.572 0.5742
2999.561 0.5735 0.6876 0.7678 0.7364 0.6208 0.6477 0.7305 0.5683 0.5194 0.5125
3018.850 0.467 0.6211 0.618 0.6271 0.4877 0.36579 0.4734 0.6048 0.5372 0.4998
3038.140 0.7064 0.6191 0.5621 0.708 0.6982 0.7366 1.0293 1.2254 1.463 1.613
3057.430 1.673 1.953 2.073 2.083 2.073 1.803 1.543 1.483 1.473 1.363
3076.720 1.0468 0.9776 1.1264 1.1277 1.0198 1.0377 1.114 1.02 0.81 0.8412
3096.009 0.9983 1.0419 1.0487 0.8852 0.8145 0.9818 1.0408 1.1041 1.2191 1.2899
3115.299 1.523 1.673 1.683 1.683 1.723 1.813 1.873 1.823 1.603 1.383
3134.589 1.383 1.2261 0.9986 1.0083 1.0698 1.1002 0.9851 0.9386 1.0571 1.019
3153.879 0.8264 0.7645 0.7914 0.8073 0.7567 0.5765 0.4467 0.4192 0.397 0.4591
3173.169 0.5216 0.39577 0.37732 0.4288 0.37605 0.38992 0.37511 0.3022 0.3522 0.311
3192.458 0.2696 0.37777 0.32823 0.34412 0.39723 0.2899 0.322763 0.426 0.4682 0.4687
3211.748 0.322686 0.2706 0.33904 0.37815 0.30726 0.198 0.189 0.2866 0.33998 0.2889
3231.038 0.2992 0.34659 0.3923 0.39436 0.39362 0.4325 0.4604 0.37267 0.33605 0.33245
3250.328 0.30519 0.2439 0.33676 0.4679 0.34967 0.4532 0.40215 0.2918 0.5079 0.5298
3269.617 0.38257 0.194 0.178 0.2908 0.2506 0.2406 0.4426 0.526 0.30332 0.207
3288.907 0.2457 0.2254 0.212 0.2627 0.2331 0.2413 0.2239 0.189 0.2424 0.2978
3308.197 0.37021 0.318177 0.156 0 0.15 0.319456 0.39616 0.4851 0.4171 0.36139
3327.487 0.2878 0.40031 0.4817 0.36727 0.35595 0.2529 0.192 0.2397 0.35526 0.30891
3346.777 0.3373 0.3454 0.2629 0.37001 0.34791 0.30713 0.30365 0.2498 0.2475 0.3016
3366.066 0.2946 0.2926 0.40586 0.5222 0.465 0.4511 0.4464 0.34852 0.36401 0.4443
3385.356 0.4498 0.4425 0.433 0.4928 0.5822 0.5688 0.4777 0.40979 0.4214 0.3012
3404.646 0.35007 0.545 0.474 0.39499 0.2894 0.133 0.206 0.2614 0.312656 0.2451
3423.936 0.162 0.2919 0.4198 0.33281 0.178 0.30424 0.40147 0.5061 0.4787 0.30465
3443.225 0.096 0.172 0.39967 0.36394 0.2759 0.213 0.2324 0.2311 0.35458 0.4672
3462.515 0.37711 0.2973 0.33588 0.4246 0.3673 0.2251 0.39117 0.319728 0.11 0.184
3481.805 0.2814 0.38627 0.4999 0.4835 0.36893 0.5111 0.4288 0.146 0.183 0.36489
3501.095 0.4575 0.4327 0.37569 0.39881 0.287 0.3001 0.4484 0.461 0.37435 0.198
3520.385 0.198 0.35616 0.40233 0.37445 0.42 0.4375 0.4691 0.37167 0.181 0.2622
3539.674 0.36068 0.4318 0.40204 0.2674 0.2403 0.2339 0.2959 0.4286 0.40671 0.32885
3558.964 0.319837 0.181 0.32486 0.35377 0.205 0.109 0.069 0.2749 0.4571 0.40338
3578.254 0.2393 0.211 0.30766 0.33881 0.173 0.103 0.2221 0.298 0.40865 0.38516
3597.544 0.2869 0.41009 0.4489 0.30665 0.182 0.196 0.2173 0.2785 0.2473 0.178
3616.833 0.35547 0.4484 0.36779 0.2709 0.3012 0.315123 0.2873 0.2998 0.196 0.178
3636.123 0.141 0.2589 0.33422 0.2973 0.4357 0.2519 0.113 0.3658 0.556 0.5631
3655.413 0.4689 0.443 0.4344 0.38802 0.239 0.186 0.2596 0.2771 0.4161 0.4445
3674.703 0.4016 0.318504 0.34906 0.485 0.4839 0.5581 0.5456 0.4709 0.40132 0.34848
3693.993 0.33128 0.34191 0.39725 0.159 0.125 0.316649 0.197 0.2522 0.4143 0.40645
3713.282 0.4454 0.4246 0.4344 0.4933 0.38752 0.2203 0.175 0.315452 0.4312 0.36609
3732.572 0.36947 0.34336 0.4078 0.4309 0.323 0.37248 0.35683 0.4132 0.4884 0.39614
3751.862 0.4465 0.54 0.36842 0.313506 0.33513 0.30829 0.2567 0.2558 0.40732 0.4214
3771.152 0.36732 0.32669 0.2846 0.2356 0.321503 0.36767 0.2394 0.39598 0.5087 0.36812
3790.441 0.32956 0.4398 0.4213 0.4732 0.4438 0.36399 0.4406 0.35253 0.3716 0.4313
3809.731 0.4146 0.37193 0.316788 0.5026 0.41068 0.321109 0.4966 0.41111 0.315449 0.4232
3829.021 0.4345 0.36433 0.2968 0.2737 0.2131 0.2216 0.33632 0.4156 0.40531 0.30451
3848.311 0.31092 0.2968 0.2936 0.3285 0.39739 0.35163 0.2865 0.2693 0.4463 0.5374
3867.601 0.3658 0.35885 0.30694 0.149 0.213 0.317397 0.30814 0.30936 0.39117 0.6205
3886.890 0.5971 0.5804 0.6457 0.5462 0.38073 0.207 0.39783 0.5217 0.2786 0.089
3906.180 0.189 0.2579 0.286 0.2259 0.17 0.2157 0.31159 0.40623 0.2424 0.2926
3925.470 0.477 0.4604 0.40783 0.286 0.2503 0.38176 0.41154 0.32367 0.254 0.2989
3944.760 0.36488 0.33 0.34648 0.458 0.2969 0.191 0.322091 0.2954 0.2836 0.4213
3964.049 0.37928 0.273 0.33031 0.313578 0.3955 0.449 0.31047 0.32719 0.4588 0.4544
3983.339 0.33198 0.2427 0.34707 0.38097 0.32748 0.4717 0.37216 0.2174 0.2729 0.37512
##END=
