##TITLE=2-Ethylbicyclo[2.2.1]heptane
##JCAMP-DX=4.24
##DATA TYPE=INFRARED SPECTRUM
##ORIGIN=NIST Mass Spectrometry Data Center
##OWNER=NIST Standard Reference Data Program
Collection (C) 2018 copyright by the U.S. Secretary of Commerce
on behalf of the United States of America. All rights reserved.
##CAS REGISTRY NO=2146-41-0
##MOLFORM=C 9 H 16
##$NIST SOURCE=MSDC-IR
##SPECTROMETER/DATA SYSTEM=HP-GC/MS/IRD
##STATE=gas
##XUNITS=1/CM
##YUNITS=ABSORBANCE
##XFACTOR=1.0
##YFACTOR=0.000004500
##DELTAX=4.0
##FIRSTX=550.0
##LASTX=3846.0
##FIRSTY=0.000063
##MAXX=3846
##MINX=550
##MAXY=0.045
##MINY=0
##NPOINTS=825
##XYDATA=(X++(Y..Y))
550.0 14 16 10 21 27 24 19 3 9 26
590.0 14 12 30 31 35 34 29 23 23 25
630.0 17 28 28 14 21 31 28 23 27 38
670.0 30 19 20 23 30 30 29 37 36 32
710.0 36 35 28 26 28 21 29 33 34 45
750.0 43 39 43 58 71 75 78 82 78 69
790.0 58 54 54 58 65 64 63 62 70 73
830.0 74 78 70 61 53 47 47 47 44 41
870.0 40 45 48 43 43 43 39 38 37 45
910.0 52 60 73 83 97 98 100 107 108 106
950.0 108 113 115 110 100 85 72 65 54 42
990.0 35 31 36 38 37 38 43 40 34 35
1030.0 34 31 28 24 21 26 25 21 21 26
1070.0 31 39 48 49 49 48 46 42 42 45
1110.0 46 44 45 45 42 45 45 39 39 41
1150.0 41 37 43 55 59 69 67 58 53 42
1190.0 35 35 36 44 54 62 66 68 69 62
1230.0 57 60 68 75 81 80 84 83 82 81
1270.0 75 77 78 78 81 85 93 103 113 119
1310.0 123 126 132 131 122 115 104 93 83 66
1350.0 57 57 63 74 91 113 134 152 164 163
1390.0 154 131 98 75 65 61 64 69 74 89
1430.0 117 160 222 305 393 486 563 606 602 569
1470.0 517 442 369 297 236 184 144 106 81 71
1510.0 51 38 38 36 30 27 32 40 39 29
1550.0 26 28 35 33 25 24 30 31 23 19
1590.0 18 16 15 17 18 19 19 18 18 19
1630.0 16 20 22 19 19 26 28 21 19 19
1670.0 20 22 16 16 19 15 15 20 19 14
1710.0 10 10 12 9 7 8 10 12 12 9
1750.0 6 5 6 6 5 9 7 5 5 5
1790.0 6 8 5 0 1 3 3 0 1 3
1830.0 6 7 2 3 7 6 7 7 6 5
1870.0 4 4 4 3 5 6 2 0 1 5
1910.0 5 8 8 4 0 2 5 5 4 2
1950.0 1 4 3 0 3 6 6 7 6 2
1990.0 1 3 1 0 2 4 7 5 4 6
2030.0 9 9 8 9 7 7 10 9 7 5
2070.0 6 7 8 9 9 11 10 6 6 6
2110.0 4 5 6 3 4 6 9 10 7 9
2150.0 10 8 8 10 7 8 10 11 14 16
2190.0 15 13 13 14 13 13 9 8 9 9
2230.0 13 11 11 8 8 9 7 6 6 7
2270.0 4 3 7 7 5 3 3 4 5 7
2310.0 6 5 10 11 12 13 11 14 13 10
2350.0 9 13 16 17 16 15 14 13 12 12
2390.0 11 15 14 12 12 8 9 11 10 11
2430.0 12 11 8 4 8 8 3 4 4 5
2470.0 8 7 9 10 9 8 7 7 9 9
2510.0 7 6 7 8 8 6 10 12 9 14
2550.0 16 14 18 17 18 22 20 20 21 25
2590.0 26 26 29 32 36 37 35 33 34 32
2630.0 29 31 30 23 22 23 25 25 27 31
2670.0 29 26 29 30 28 27 29 35 37 38
2710.0 38 39 42 43 43 50 58 58 67 74
2750.0 70 69 73 78 81 84 83 87 93 94
2790.0 99 104 107 109 116 125 133 151 168 183
2830.0 209 244 286 353 457 616 851 1172 1589 2085
2870.0 2600 3037 3293 3326 3160 2855 2491 2171 1999 1999
2910.0 2142 2383 2680 3039 3468 3980 4623 5453 6470 7640
2950.0 8792 9666 10000 9643 8713 7183 5395 3789 2490 1580
2990.0 1016 686 498 392 317 260 231 205 184 172
3030.0 166 162 154 150 144 137 133 128 121 116
3070.0 114 108 102 95 92 87 81 73 60 58
3110.0 61 57 52 52 50 46 45 45 48 47
3150.0 47 46 42 43 46 45 42 40 36 34
3190.0 32 32 30 23 26 26 21 18 19 18
3230.0 15 14 13 8 8 13 14 10 10 12
3270.0 15 17 15 9 12 14 11 14 15 13
3310.0 15 16 20 17 15 19 17 17 23 22
3350.0 20 20 16 15 20 13 10 14 14 13
3390.0 9 10 17 18 17 19 19 17 21 20
3430.0 14 9 11 12 13 15 13 8 6 7
3470.0 10 9 11 11 5 2 6 7 5 9
3510.0 9 9 6 9 13 13 6 7 13 5
3550.0 5 11 8 7 5 8 10 9 15 16
3590.0 6 1 11 15 13 16 17 17 14 12
3630.0 13 17 24 23 19 21 16 15 19 19
3670.0 18 24 24 21 25 23 20 23 29 33
3710.0 34 33 29 25 23 23 28 33 34 38
3750.0 38 29 27 27 29 31 26 25 26 31
3790.0 29 25 28 31 28 25 29 35 35 26
3830.0 26 34 33 27 27
##END=
