##TITLE=2-Mercaptoethyl ether
##JCAMP-DX=4.24
##DATA TYPE=INFRARED SPECTRUM
##ORIGIN=EPA-IR VAPOR PHASE LIBRARY
##OWNER=SRD/NIST
Collection (C) 2018 copyright by the U.S. Secretary of Commerce
on behalf of the United States of America. All rights reserved.
##CAS REGISTRY NO=2150-02-9
##MOLFORM=C 4 H 10 O S 2
##$NIST SOURCE=MSDC-IR
##STATE=gas
##XUNITS=1/CM
##YUNITS=ABSORBANCE
##XFACTOR=1.
##YFACTOR=0.001
##DELTAX=1.92898
##FIRSTX=549.8
##LASTX=4000.7
##FIRSTY=0.9057
##MAXX=4000.7
##MINX=549.759
##MAXY=0.117458
##MINY=0
##NPOINTS=1790
##XYDATA=(X++(Y..Y))
549.759 0.9057 0.6678 0.4986 0.4599 0.3995 0.4698 0.5715 0.6854 0.5446 0.5874
569.049 0.7309 0.5806 0.6369 0.6431 0.4994 0.5372 0.7468 0.984 1.003 0.8884
588.339 0.775 0.7189 0.7462 0.6662 0.5352 0.3426 0.34785 0.5674 0.6328 0.7031
607.628 0.8213 0.7915 0.6267 0.6926 0.7434 0.7604 0.8074 0.8072 0.9543 0.8295
626.918 0.7341 0.907 1.0837 1.12 0.922 0.7407 0.9602 1.1553 1.368 1.688
646.208 1.838 1.888 1.878 1.938 2.138 2.528 2.528 2.718 3.008 3.218
665.498 3.218 3.048 3.238 3.368 3.348 3.188 2.878 2.708 2.358 1.988
684.787 2.028 1.838 1.488 1.438 1.458 1.438 1.478 1.448 1.588 1.688
704.077 1.698 1.858 2.058 2.148 2.428 2.738 2.648 2.598 2.878 3.208
723.367 3.388 3.498 3.538 3.578 3.548 3.258 3.208 3.378 3.378 3.418
742.657 3.318 3.418 3.618 3.518 3.648 3.728 3.738 4.018 4.158 4.208
761.947 4.168 4.128 3.948 3.778 3.538 3.278 3.148 2.748 2.548 2.318
781.236 2.078 1.968 1.818 1.668 1.558 1.558 1.428 1.378 1.318 1.199
800.526 1.288 1.2411 1.103 1.072 1.1053 1.0821 1.103 1.298 1.358 1.2368
819.816 1.1554 1.1613 1.1287 1.1994 1.2555 1.1869 1.095 1.2005 1.308 1.328
839.106 1.308 1.368 1.338 1.348 1.538 1.458 1.308 1.2773 1.428 1.608
858.395 1.678 1.738 1.798 1.908 2.138 2.098 2.138 2.238 2.068 2.258
877.685 2.388 2.318 2.358 2.278 2.218 2.178 2.168 2.128 2.058 2.118
896.975 2.218 2.178 2.108 2.148 2.258 2.328 2.348 2.328 2.348 2.378
916.265 2.498 2.628 2.618 2.558 2.608 2.748 2.868 2.908 2.938 3.178
935.555 3.358 3.358 3.438 3.648 3.668 3.728 3.758 3.818 4.038 4.108
954.844 4.108 4.188 4.378 4.498 4.528 4.668 4.818 4.918 5.028 5.038
974.134 5.108 5.238 5.438 5.548 5.528 5.748 5.938 5.948 5.858 6.038
993.424 6.398 6.638 6.868 7.008 7.118 7.378 7.728 8.198 8.458 8.458
1012.714 8.908 9.288 9.488 9.958 10.398 10.818 11.288 11.638 11.868 12.478
1032.003 13.348 13.768 14.368 15.228 15.758 16.268 16.728 17.088 17.398 17.368
1051.293 17.578 18.098 18.318 18.708 19.118 19.418 19.848 20.508 21.258 22.038
1070.583 23.248 24.428 25.698 27.378 29.438 31.658 34.188 37.088 40.828 45.618
1089.873 50.618 56.198 62.708 69.368 76.118 83.418 90.588 97.058 103.088 108.558
1109.163 112.798 115.748 117.408 117.458 115.858 113.188 109.228 103.938 97.728 90.358
1128.452 82.468 74.498 66.538 59.088 51.618 44.678 39.138 34.318 30.288 26.838
1147.742 23.938 21.708 19.588 18.008 16.518 15.218 14.278 13.378 12.728 12.078
1167.032 11.528 11.368 10.918 10.348 10.158 10.078 10.088 10.098 10.298 10.348
1186.322 10.518 10.858 10.938 11.338 11.658 11.898 12.228 12.358 12.508 12.468
1205.611 12.158 11.758 11.388 11.278 11.008 10.598 10.198 9.808 9.708 9.318
1224.901 8.948 8.838 8.728 8.578 8.388 8.338 8.278 8.128 7.998 7.848
1244.191 7.698 7.548 7.288 6.968 6.778 6.758 6.778 6.748 6.598 6.658
1263.481 6.738 6.998 7.408 7.598 8.028 8.808 9.368 9.928 10.698 11.418
1282.771 12.258 13.238 14.218 15.128 15.848 16.358 16.608 16.718 16.518 16.018
1302.060 15.328 14.378 13.268 12.138 11.038 9.968 9.068 8.348 7.598 6.988
1321.350 6.488 6.088 5.838 5.648 5.588 5.568 5.568 5.678 5.878 6.208
1340.640 6.718 7.418 8.398 9.748 11.368 13.178 15.128 16.888 18.248 19.178
1359.930 19.638 19.608 19.058 17.948 16.338 14.378 12.348 10.498 8.838 7.518
1379.219 6.498 5.668 5.028 4.618 4.308 4.068 3.928 3.888 3.828 3.788
1398.509 3.798 3.798 3.838 3.978 4.208 4.508 4.928 5.488 6.138 6.868
1417.799 7.638 8.338 8.818 9.158 9.428 9.568 9.508 9.198 8.738 8.238
1437.089 7.758 7.378 7.058 6.808 6.618 6.458 6.418 6.488 6.538 6.628
1456.378 6.858 7.118 7.328 7.458 7.508 7.528 7.468 7.258 6.908 6.458
1475.668 6.058 5.638 5.218 4.738 4.308 4.008 3.638 3.338 3.068 2.808
1494.958 2.598 2.358 2.128 1.968 1.858 1.768 1.648 1.488 1.418 1.428
1514.248 1.358 1.2492 1.1691 1.124 1.1508 1.148 1.0532 1.0269 1.0141 0.9182
1533.538 0.8759 0.8538 0.8597 0.9047 0.879 0.909 0.9035 0.8604 0.8434 0.8426
1552.827 0.875 0.857 0.802 0.8167 0.8574 0.8501 0.838 0.7634 0.7096 0.7306
1572.117 0.7736 0.7476 0.7719 0.8165 0.7676 0.6667 0.6735 0.6924 0.6929 0.7329
1591.407 0.6879 0.6601 0.6065 0.678 0.7463 0.672 0.702 0.7436 0.7005 0.6407
1610.697 0.6487 0.6574 0.661 0.6966 0.6872 0.6704 0.6314 0.6394 0.7228 0.7082
1629.986 0.7068 0.7586 0.7722 0.7263 0.6862 0.6945 0.7046 0.6915 0.6574 0.6541
1649.276 0.6377 0.6509 0.7449 0.7597 0.7474 0.7782 0.7505 0.7202 0.6957 0.5902
1668.566 0.5703 0.6441 0.6142 0.5992 0.6024 0.6154 0.681 0.6897 0.5978 0.5152
1687.856 0.5212 0.5322 0.5573 0.6538 0.7119 0.6305 0.5934 0.5985 0.6202 0.6318
1707.146 0.5751 0.5137 0.5014 0.5885 0.6529 0.6762 0.6841 0.6444 0.5511 0.5611
1726.435 0.6226 0.6542 0.6949 0.6905 0.6547 0.6538 0.6656 0.6302 0.5917 0.6069
1745.725 0.6594 0.652 0.6457 0.6357 0.6377 0.6541 0.6601 0.6488 0.6573 0.6594
1765.015 0.6297 0.602 0.6378 0.7248 0.7031 0.6624 0.6661 0.6595 0.6528 0.6644
1784.305 0.7046 0.6828 0.6289 0.6215 0.6321 0.6764 0.6822 0.6704 0.6898 0.6809
1803.594 0.6797 0.6914 0.688 0.7254 0.7433 0.6826 0.7091 0.7297 0.6981 0.6808
1822.884 0.6963 0.7588 0.7614 0.7329 0.757 0.7823 0.7692 0.7697 0.7991 0.8349
1842.174 0.867 0.9205 0.9433 0.9532 0.9177 0.9331 1.0008 0.9888 0.9472 0.9348
1861.464 0.9744 0.9753 0.9561 0.9689 0.9634 0.9645 0.9584 0.9667 0.9871 0.9315
1880.754 0.9187 0.8897 0.8274 0.8187 0.8355 0.8136 0.7889 0.8522 0.866 0.8092
1900.043 0.7932 0.8247 0.8666 0.8439 0.8523 0.9043 0.8126 0.7373 0.7844 0.8086
1919.333 0.7949 0.7962 0.8202 0.8104 0.8483 0.8821 0.8177 0.8521 0.87 0.8607
1938.623 0.8665 0.8472 0.87 0.8591 0.8605 0.8896 0.9338 0.961 0.99 0.9858
1957.913 0.9947 1.0734 1.0835 1.0489 1.0751 1.1136 1.0762 1.0785 1.1229 1.1496
1977.202 1.1389 1.1593 1.2144 1.2299 1.2218 1.2442 1.2365 1.1997 1.2668 1.358
1996.492 1.388 1.388 1.378 1.338 1.338 1.338 1.338 1.348 1.328 1.358
2015.782 1.378 1.388 1.398 1.368 1.338 1.318 1.308 1.298 1.348 1.318
2035.072 1.2383 1.266 1.288 1.2336 1.1883 1.1679 1.1542 1.1523 1.1758 1.187
2054.362 1.1405 1.1729 1.1782 1.1841 1.2461 1.2036 1.1162 1.1492 1.1724 1.1401
2073.651 1.1378 1.0973 1.1433 1.184 1.1323 1.1461 1.2 1.1857 1.1734 1.1634
2092.941 1.0993 1.0438 1.0524 1.1281 1.1141 1.0747 1.1066 1.1225 1.0603 1.061
2112.231 1.1604 1.1759 1.0871 1.0863 1.1079 1.1192 1.1037 1.0762 1.085 1.1085
2131.521 1.0758 1.0744 1.1474 1.1595 1.166 1.1321 1.1048 1.107 1.1058 1.0946
2150.810 1.1057 1.1026 1.0407 0.9792 1.0339 1.0417 1.0429 1.0574 1.0235 0.9953
2170.100 0.9579 1.011 1.0246 0.9397 0.8859 0.9085 0.9025 0.9413 1.0551 1.0476
2189.390 0.9719 0.9677 0.909 0.8226 0.897 0.9256 0.907 0.9428 0.9034 0.8376
2208.680 0.8438 0.8719 0.7984 0.7482 0.8231 0.8434 0.7801 0.7756 0.7929 0.7535
2227.970 0.7765 0.7918 0.8431 0.9005 0.8894 0.8619 0.8075 0.7579 0.7214 0.7442
2247.259 0.7515 0.7525 0.8048 0.8265 0.7233 0.6717 0.74 0.7681 0.7426 0.7329
2266.549 0.7243 0.7286 0.7343 0.6811 0.6467 0.5883 0.5247 0.5878 0.6065 0.6848
2285.839 0.7537 0.6937 0.6765 0.6999 0.6989 0.6856 0.6407 0.5608 0.5844 0.6059
2305.129 0.5883 0.5849 0.6148 0.6179 0.5893 0.5926 0.5709 0.568 0.6398 0.6211
2324.418 0.6133 0.6456 0.6722 0.7066 0.6776 0.6735 0.6885 0.6335 0.6329 0.6596
2343.708 0.6734 0.7121 0.6469 0.6215 0.6826 0.6992 0.6928 0.6783 0.6567 0.6136
2362.998 0.5507 0.5718 0.5513 0.5474 0.6023 0.614 0.5903 0.6013 0.7009 0.7017
2382.288 0.7007 0.7286 0.7287 0.7241 0.6934 0.6942 0.7355 0.7513 0.6917 0.6317
2401.578 0.6744 0.7492 0.6962 0.6249 0.6485 0.6597 0.6398 0.5642 0.5829 0.6928
2420.867 0.7623 0.7197 0.6239 0.7098 0.6744 0.5812 0.6189 0.6982 0.7254 0.6252
2440.157 0.6931 0.7931 0.7444 0.7389 0.7601 0.7335 0.7244 0.7075 0.6792 0.6511
2459.447 0.6216 0.614 0.6396 0.6257 0.6771 0.736 0.7181 0.7685 0.7375 0.6776
2478.737 0.6644 0.6341 0.6993 0.7289 0.7214 0.8026 0.8171 0.7641 0.7599 0.7824
2498.026 0.7159 0.6915 0.751 0.71 0.6858 0.6887 0.67 0.6717 0.6538 0.685
2517.316 0.683 0.6862 0.7695 0.7744 0.7004 0.7396 0.7396 0.6381 0.6753 0.7553
2536.606 0.7356 0.7509 0.7776 0.7628 0.7498 0.674 0.6558 0.7137 0.6926 0.7207
2555.896 0.7667 0.8044 0.8263 0.8754 1.0035 1.0881 1.1894 1.2686 1.298 1.368
2575.186 1.548 1.658 1.698 1.858 2.138 2.398 2.608 2.838 3.018 3.058
2594.475 3.018 2.938 2.878 2.668 2.488 2.348 2.028 1.728 1.548 1.468
2613.765 1.378 1.338 1.328 1.2615 1.2754 1.328 1.328 1.318 1.1895 1.1599
2633.055 1.2521 1.2574 1.2462 1.2857 1.298 1.2179 1.2387 1.2755 1.318 1.398
2652.345 1.398 1.418 1.418 1.398 1.428 1.428 1.478 1.488 1.488 1.558
2671.634 1.608 1.678 1.758 1.738 1.678 1.788 1.858 1.838 1.918 2.018
2690.924 2.118 2.168 2.238 2.248 2.188 2.228 2.328 2.468 2.588 2.658
2710.214 2.638 2.678 2.758 2.798 2.868 2.878 3.018 3.158 3.078 3.078
2729.504 3.098 3.078 3.098 3.138 3.138 3.118 3.078 2.938 2.888 2.858
2748.794 2.768 2.738 2.768 2.858 2.838 2.868 3.048 3.088 3.128 3.248
2768.083 3.398 3.498 3.548 3.618 3.678 3.828 4.018 4.048 4.058 4.248
2787.373 4.428 4.548 4.658 4.728 4.738 4.698 4.718 4.748 4.788 4.808
2806.663 4.898 5.058 5.208 5.428 5.678 6.048 6.478 6.828 7.278 7.798
2825.953 8.388 9.228 10.138 11.168 12.388 13.688 15.088 16.598 18.198 20.048
2845.242 22.148 24.008 25.818 27.768 29.468 30.998 32.378 33.528 34.638 35.698
2864.532 36.318 36.428 36.428 36.148 35.578 35.058 34.378 33.458 32.538 31.688
2883.822 30.788 29.808 28.998 28.168 27.198 26.328 25.448 24.508 23.648 22.878
2903.112 22.028 21.228 20.598 20.018 19.478 19.108 18.898 18.848 18.908 19.168
2922.401 19.708 20.438 21.438 22.478 23.588 24.658 25.728 26.948 27.928 28.788
2941.691 29.408 29.668 29.798 29.798 29.618 29.168 28.418 27.358 26.318 25.398
2960.981 24.608 24.108 23.518 23.048 22.858 22.358 21.848 21.418 20.778 19.838
2980.271 18.718 17.578 16.238 14.748 13.388 12.158 11.038 10.118 9.168 8.258
2999.561 7.438 6.598 5.878 5.318 4.858 4.428 4.078 3.698 3.378 3.158
3018.850 2.928 2.678 2.438 2.288 2.028 1.868 1.868 1.838 1.688 1.498
3038.140 1.538 1.548 1.528 1.498 1.368 1.2669 1.1354 1.0946 1.0747 1.0227
3057.430 0.8673 0.8117 0.9379 0.9697 0.9028 0.8397 0.895 0.8871 0.8021 0.7774
3076.720 0.6858 0.5993 0.5502 0.5953 0.7662 0.8351 0.7589 0.5911 0.5786 0.6627
3096.009 0.6817 0.72 0.7743 0.6589 0.5595 0.5051 0.4483 0.6095 0.6823 0.5729
3115.299 0.5461 0.6446 0.6125 0.4942 0.535 0.4692 0.4179 0.5181 0.5083 0.5117
3134.589 0.5015 0.573 0.5509 0.5098 0.532 0.4577 0.4586 0.5512 0.5578 0.4515
3153.879 0.4771 0.5025 0.5186 0.5431 0.4207 0.38096 0.5559 0.5427 0.4898 0.5734
3173.169 0.5853 0.5341 0.5312 0.5068 0.4989 0.5455 0.5192 0.5068 0.462 0.4515
3192.458 0.45 0.36243 0.4507 0.5536 0.38684 0.2535 0.35866 0.4475 0.4338 0.5663
3211.748 0.7102 0.5115 0.28709 0.34356 0.4345 0.446 0.35318 0.34207 0.4714 0.5974
3231.038 0.4984 0.3956 0.4091 0.391 0.4253 0.4076 0.5131 0.6669 0.5487 0.36614
3250.328 0.36528 0.4256 0.415 0.4005 0.4129 0.32383 0.33149 0.33322 0.36814 0.409
3269.617 0.35407 0.33381 0.4046 0.5371 0.4391 0.3176 0.29869 0.35755 0.35997 0.2449
3288.907 0.2518 0.2258 0.2629 0.4768 0.5165 0.36433 0.33823 0.38153 0.4226 0.5061
3308.197 0.5046 0.4257 0.3967 0.34004 0.2604 0.2554 0.3926 0.5428 0.34653 0.208
3327.487 0.34274 0.35222 0.292679 0.34044 0.34549 0.32604 0.36986 0.36333 0.432 0.4833
3346.777 0.33944 0.37329 0.4564 0.4065 0.5066 0.4838 0.4477 0.3979 0.2769 0.441
3366.066 0.602 0.5177 0.4272 0.4469 0.4801 0.35874 0.2775 0.29903 0.293688 0.3565
3385.356 0.4541 0.34953 0.088 0.183 0.4209 0.4239 0.36361 0.37179 0.36303 0.30915
3404.646 0.2735 0.36006 0.4338 0.33167 0.1915 0.042 0.105 0.37263 0.472 0.34472
3423.936 0.33445 0.4716 0.4099 0.34805 0.4699 0.3699 0.31856 0.30548 0.31398 0.4038
3443.225 0.2313 0.28019 0.31044 0.2771 0.291868 0.32965 0.5231 0.5268 0.4074 0.30335
3462.515 0.33481 0.35883 0.1943 0.138 0.2369 0.293814 0.33177 0.30366 0.208 0.35343
3481.805 0.4693 0.38653 0.37794 0.4097 0.36579 0.28228 0.36692 0.3994 0.4555 0.4061
3501.095 0.178 0.1974 0.2165 0.3171 0.4206 0.4002 0.32625 0.235 0.2511 0.34982
3520.385 0.33684 0.124 0.2369 0.2643 0.059 0.133 0.2209 0.32958 0.3094 0.33542
3539.674 0.4271 0.4159 0.4647 0.4181 0.5782 0.6224 0.4583 0.4046 0.4377 0.37897
3558.964 0.2509 0.32439 0.163 0.13 0.33891 0.22 0.28673 0.6252 0.6953 0.5423
3578.254 0.2002 0.122 0.33346 0.287844 0.35924 0.493 0.5341 0.5644 0.4431 0.38582
3597.544 0.4362 0.4119 0.35177 0.38142 0.35824 0.30669 0.429 0.5258 0.5064 0.4154
3616.833 0.3982 0.44 0.5686 0.5512 0.33625 0.4541 0.5217 0.4934 0.5398 0.4517
3636.123 0.4253 0.38634 0.4748 0.5194 0.4658 0.5133 0.58 0.6649 0.6033 0.5785
3655.413 0.5979 0.6574 0.6389 0.561 0.6461 0.5355 0.32614 0.235 0.043 0
3674.703 0.168 0.33619 0.489 0.4407 0.4594 0.4633 0.33281 0.34282 0.4111 0.33847
3693.993 0.31222 0.4056 0.4799 0.72 0.6725 0.4738 0.413 0.4664 0.4868 0.4247
3713.282 0.4678 0.4963 0.4908 0.4301 0.3921 0.35581 0.2582 0.223 0.3885 0.5402
3732.572 0.5297 0.32252 0.2158 0.269 0.32892 0.38588 0.5081 0.4181 0.4054 0.6353
3751.862 0.6799 0.5033 0.2607 0.2655 0.2761 0.2627 0.3005 0.33004 0.33343 0.37539
3771.152 0.3965 0.35324 0.30255 0.289294 0.38053 0.34533 0.35357 0.391 0.38498 0.36029
3790.441 0.2027 0.2243 0.37321 0.4552 0.4179 0.4493 0.4367 0.32285 0.28671 0.35634
3809.731 0.5371 0.6794 0.6354 0.6036 0.5419 0.3885 0.30049 0.3207 0.4487 0.36771
3829.021 0.4108 0.5147 0.4493 0.3909 0.2372 0.138 0.34054 0.4412 0.4305 0.4473
3848.311 0.3881 0.4746 0.649 0.6136 0.5351 0.5487 0.5584 0.4533 0.28219 0.43
3867.601 0.5159 0.34617 0.4296 0.4068 0.37081 0.5145 0.31224 0.2358 0.4195 0.4404
3886.890 0.4948 0.5309 0.5438 0.6418 0.5948 0.5841 0.5527 0.4635 0.3998 0.4239
3906.180 0.4059 0.32091 0.4606 0.5279 0.4315 0.5685 0.5743 0.34544 0.4381 0.5689
3925.470 0.3861 0.28166 0.2385 0.35843 0.4385 0.32542 0.4211 0.5879 0.5122 0.4281
3944.760 0.5603 0.5449 0.5516 0.6868 0.7316 0.636 0.7807 0.843 0.7035 0.5965
3964.049 0.4991 0.6746 0.6262 0.4656 0.5039 0.6806 0.6893 0.6784 0.954 0.8386
3983.339 0.5982 0.5135 0.293732 0.4581 0.6556 0.6215 0.6803 0.7853 0.6767 0.5047
##END=
