##TITLE=2-(4-Bromophenyl)-5-phenyl-1,3,4-oxadiazole
##JCAMP-DX=4.24
##DATA TYPE=INFRARED SPECTRUM
##ORIGIN=EPA-IR VAPOR PHASE LIBRARY
##OWNER=SRD/NIST
Collection (C) 2018 copyright by the U.S. Secretary of Commerce
on behalf of the United States of America. All rights reserved.
##CAS REGISTRY NO=21510-43-0
##MOLFORM=C 14 H 9 Br N 2 O
##$NIST SOURCE=MSDC-IR
##STATE=gas
##XUNITS=1/CM
##YUNITS=ABSORBANCE
##XFACTOR=1.
##YFACTOR=0.001
##DELTAX=1.92898
##FIRSTX=549.8
##LASTX=4000.7
##FIRSTY=1.965
##MAXX=4000.7
##MINX=549.759
##MAXY=0.092665
##MINY=0
##NPOINTS=1790
##XYDATA=(X++(Y..Y))
549.759 1.965 1.705 1.2645 1.665 1.705 1.745 2.305 1.815 1.575 1.565
569.049 1.555 1.2153 0.8819 1.515 1.685 1.2923 1.0557 0.52851 0.349 0.8684
588.339 1.1887 1.1245 0.8873 0.9136 0.8813 0.9691 0.9229 1.3593 1.2287 0.8226
607.628 1.0947 0.9671 0.8254 0.6303 0.8368 1.0159 0.658 0.7439 1.2271 1.4763
626.918 1.535 1.515 1.555 1.795 1.705 1.2394 1.1824 1.2085 1.3222 1.3359
646.208 1.1599 1.3377 1.795 2.435 2.775 3.055 3.685 3.965 4.325 4.985
665.498 5.325 5.595 5.645 5.995 7.135 8.735 10.285 12.035 14.395 18.015
684.787 22.995 28.865 33.285 33.935 31.655 26.825 22.595 20.905 19.755 18.975
704.077 18.145 16.445 14.395 12.765 11.855 11.135 11.075 11.965 13.665 16.735
723.367 21.005 25.205 28.935 33.165 34.045 30.345 26.665 22.745 17.785 13.285
742.657 9.735 7.315 5.885 4.995 4.505 4.115 4.085 4.375 4.535 5.085
761.947 5.475 5.225 5.535 6.595 7.155 6.985 6.795 6.105 5.315 4.865
781.236 3.955 3.295 2.795 2.645 3.445 3.825 3.725 3.685 3.755 3.895
800.526 4.225 4.065 3.915 4.135 3.875 3.525 3.485 4.065 5.255 6.745
819.816 8.455 11.065 13.665 16.285 18.935 21.305 23.155 23.485 21.445 18.175
839.106 14.905 11.795 9.205 6.935 5.205 3.815 3.145 3.565 3.975 3.805
858.395 3.765 3.865 3.825 3.885 3.955 3.715 3.455 3.015 2.295 2.035
877.685 2.095 2.065 2.005 2.105 2.265 2.315 1.925 1.975 2.125 2.105
896.975 2.085 1.575 1.4834 1.4234 1.2451 1.242 1.4158 1.915 2.055 2.115
916.265 2.365 2.315 2.225 2.345 2.315 2.255 2.155 2.105 1.905 1.885
935.555 2.185 1.925 2.105 2.625 2.765 3.245 3.695 4.235 5.365 7.045
954.844 9.005 10.855 12.565 13.135 12.065 10.855 9.385 7.345 6.015 5.155
974.134 4.555 4.225 3.765 3.675 4.135 4.535 4.855 5.225 5.725 6.405
993.424 7.295 7.895 8.975 10.445 12.045 14.905 20.595 30.155 44.065 59.085
1012.714 65.425 59.745 44.845 27.845 18.355 16.065 16.935 17.395 15.595 13.145
1032.003 10.385 8.405 7.275 6.765 7.715 8.815 9.575 11.205 14.395 17.925
1051.293 21.865 27.315 33.465 39.035 41.535 40.955 38.715 35.945 37.545 46.445
1070.583 59.645 69.095 68.285 56.665 38.405 23.055 15.095 11.555 9.825 8.285
1089.873 7.055 6.935 7.825 7.495 7.105 8.265 7.735 6.505 5.895 5.455
1109.163 5.035 4.275 4.245 4.065 3.115 2.345 1.805 1.725 2.395 2.605
1128.452 1.995 1.595 1.555 1.188 1.595 1.955 2.015 2.745 2.865 2.285
1147.742 1.535 1.875 2.405 2.475 2.365 1.855 1.3886 1.255 1.595 1.955
1167.032 2.235 2.575 2.755 3.745 5.505 7.655 10.175 11.885 10.635 7.895
1186.322 6.055 4.935 4.055 3.045 2.015 1.665 2.145 2.475 2.435 2.145
1205.611 1.4259 0.965 1.765 3.125 4.355 3.495 3.725 5.355 5.235 4.705
1224.901 4.735 4.665 4.465 4.375 3.985 3.165 3.195 3.975 3.885 3.275
1244.191 3.455 3.975 4.475 5.495 6.145 7.215 8.905 10.115 11.275 13.095
1263.481 14.625 15.555 15.855 14.375 11.415 8.555 6.515 5.125 3.835 3.225
1282.771 3.225 2.925 2.595 2.355 2.375 2.355 2.305 2.315 2.635 3.205
1302.060 3.485 3.795 4.165 4.405 4.455 4.235 3.655 3.105 2.685 2.355
1321.350 2.265 2.215 2.165 2.315 2.645 2.855 3.015 3.015 2.845 2.765
1340.640 2.705 2.545 2.375 2.165 2.075 2.005 1.865 1.815 1.805 1.805
1359.930 1.825 1.785 1.805 1.885 1.885 2.005 2.225 2.435 2.625 2.845
1379.219 2.885 2.925 3.105 3.305 3.755 4.435 5.605 7.055 8.725 10.925
1398.509 13.495 15.815 17.015 16.505 14.485 11.815 9.385 7.795 6.875 6.275
1417.799 6.275 6.375 6.355 6.395 6.235 6.135 6.235 6.325 6.395 6.695
1437.089 7.225 7.955 8.935 10.455 13.005 16.565 19.885 21.545 21.195 19.405
1456.378 17.605 17.045 17.295 17.845 18.895 20.895 24.745 30.965 39.975 51.395
1475.668 64.485 78.365 89.555 92.665 85.285 69.805 51.825 37.975 29.705 24.085
1494.958 19.225 15.145 11.895 9.465 7.605 6.235 5.465 4.905 4.495 4.365
1514.248 4.475 4.435 4.425 4.695 4.985 5.265 5.785 6.555 7.385 8.435
1533.538 9.715 11.145 12.935 15.035 17.705 20.945 24.285 26.985 28.165 27.605
1552.827 26.015 23.545 20.325 16.865 13.255 10.555 8.945 7.725 6.975 6.655
1572.117 6.465 6.415 6.425 6.445 6.615 6.905 7.455 8.325 9.055 9.705
1591.407 10.725 12.265 14.935 18.875 23.725 28.895 32.715 33.725 31.355 26.085
1610.697 19.575 13.825 10.095 7.785 6.045 4.785 3.895 3.335 3.005 2.765
1629.986 2.545 2.265 2.235 2.275 2.415 2.525 2.575 2.715 2.695 2.765
1649.276 2.915 3.045 3.115 2.985 2.635 2.415 2.305 2.205 2.095 1.955
1668.566 1.825 1.565 1.4001 1.3858 1.3176 1.3985 1.4667 1.4465 1.4391 1.545
1687.856 1.785 2.075 2.085 1.905 1.785 1.545 1.4453 1.3997 1.2884 1.1632
1707.146 1.0503 0.9905 0.9497 1.0513 0.977 0.9982 1.1822 1.1165 1.0668 1.1276
1726.435 1.1091 1.0727 1.166 1.254 1.4022 1.4134 1.2449 1.3477 1.495 1.4421
1745.725 1.3796 1.4074 1.505 1.575 1.775 1.915 1.995 1.915 1.785 1.865
1765.015 1.835 1.835 1.875 1.895 1.975 2.005 2.165 2.265 2.195 2.335
1784.305 2.525 2.525 2.395 2.325 2.265 2.205 2.295 2.335 2.445 2.585
1803.594 2.665 2.715 2.645 2.355 1.885 1.635 1.615 1.4795 1.3849 1.399
1822.884 1.3649 1.2515 1.2395 1.2584 1.0831 1.0426 1.1926 1.2255 1.1678 1.1325
1842.174 1.2146 1.2579 1.152 1.0727 1.0784 1.1857 1.2037 1.0284 1.0673 1.2317
1861.464 1.121 1.0924 1.1761 1.1617 1.357 1.485 1.4649 1.585 1.815 2.015
1880.754 2.165 2.305 2.315 2.405 2.575 2.665 2.715 2.655 2.725 2.935
1900.043 3.015 3.175 3.385 3.475 3.275 3.015 2.885 2.705 2.375 2.115
1919.333 2.135 1.975 1.735 1.735 1.715 1.745 1.855 1.795 1.695 1.745
1938.623 1.875 1.875 1.895 2.055 2.055 2.095 2.295 2.355 2.225 2.125
1957.913 2.155 2.195 2.195 2.225 2.285 2.315 2.215 2.035 1.765 1.525
1977.202 1.4179 1.35 1.2303 1.1739 1.2494 1.1467 0.9834 1.001 1.0032 1.0016
1996.492 1.0338 1.0119 1.1232 1.196 1.0675 1.1562 1.1654 1.0142 1.0837 1.1522
2015.782 1.2008 1.1967 1.1845 1.0994 0.996 1.0176 1.0468 1.0008 0.9628 1.0313
2035.072 1.0308 1.0501 0.9933 0.8294 0.8093 1.0161 1.1721 1.1324 1.1222 1.1644
2054.362 1.1442 1.1552 1.281 1.2073 1.1484 1.1925 1.068 1.0006 0.9673 0.8952
2073.651 0.9446 0.8997 0.8155 0.8361 0.8909 0.8715 0.8675 0.862 0.7823 0.8383
2092.941 0.796 0.8479 0.8398 0.8009 0.8667 0.7863 0.783 0.9059 0.9267 0.812
2112.231 0.794 0.7257 0.7377 0.7515 0.6585 0.6558 0.7162 0.7454 0.8449 0.8436
2131.521 0.7622 0.818 0.9061 0.9306 0.7688 0.58432 0.6119 0.7762 0.8603 0.7684
2150.810 0.7396 0.715 0.7379 0.7755 0.7745 0.7913 0.7074 0.8596 1.0236 0.9704
2170.100 0.8272 0.8248 0.9352 0.9231 0.8666 0.8592 0.8579 0.8113 0.7141 0.7854
2189.390 0.8573 0.7105 0.7 0.8586 0.8599 0.8028 0.8245 0.7508 0.6722 0.6817
2208.680 0.7895 0.9146 0.9994 1.0137 0.9621 0.8869 0.7907 0.7289 0.7963 0.8732
2227.970 1.0037 1.0108 0.8552 0.8786 0.9176 0.9092 0.8374 0.7869 0.785 0.874
2247.259 0.9564 0.8595 0.8859 0.9452 0.8996 0.8922 0.8517 0.8606 0.9072 0.9905
2266.549 0.8807 0.884 1.0262 0.8729 0.9565 1.0805 1.0193 1.0156 1.0341 1.124
2285.839 1.0819 1.0534 1.1163 1.1321 1.0783 1.0725 1.1404 1.0139 0.9101 0.909
2305.129 0.9748 1.0086 1.0099 1.0484 1.1215 1.0662 1.1764 1.277 1.356 1.3892
2324.418 1.2082 1.1679 1.119 0.9996 0.9781 1.0823 1.0302 1.0088 1.0296 0.9786
2343.708 0.9556 0.9961 1.0318 0.9263 0.9059 0.9309 0.8983 0.9976 1.0524 0.8603
2362.998 0.9551 0.9578 0.7292 0.8797 0.9161 0.7931 0.8509 0.8652 0.7967 0.7119
2382.288 0.7883 1.0283 0.9635 0.8645 0.8792 0.6943 0.7038 0.8403 0.7515 0.8028
2401.578 0.9416 0.9835 1.0979 0.9985 0.7963 0.828 0.809 0.8591 0.8252 0.7165
2420.867 0.7726 0.8148 0.8722 0.8191 0.684 0.7612 0.7707 0.746 0.8053 0.8278
2440.157 0.7751 0.7608 0.9538 0.9795 0.9004 0.8334 0.8088 0.8082 0.8323 0.9275
2459.447 1.0121 0.9422 0.8552 0.9021 0.8947 0.8751 0.9721 0.985 0.8371 0.8
2478.737 0.9251 1.1144 1.0375 0.8348 0.776 0.9017 0.9747 0.7663 0.8275 0.9594
2498.026 0.9269 1.0351 1.0365 0.9587 0.9479 1.0658 1.1447 1.1646 1.2829 1.3596
2517.316 1.221 1.1376 1.2909 1.383 1.3131 1.2773 1.3077 1.224 1.3168 1.3534
2536.606 1.1709 1.3366 1.3991 1.4033 1.535 1.4452 1.2999 1.2551 1.2032 1.0436
2555.896 1.0939 1.2056 1.2168 1.3119 1.3956 1.2532 1.1113 1.1432 1.0352 0.986
2575.186 1.1949 1.1382 0.9702 1.0151 1.1694 1.4175 1.4386 1.4435 1.555 1.4743
2594.475 1.3843 1.445 1.3351 1.2742 1.4573 1.505 1.545 1.645 1.725 1.695
2613.765 1.695 1.695 1.605 1.525 1.525 1.485 1.44 1.4496 1.3326 1.368
2633.055 1.495 1.4758 1.4077 1.3803 1.4229 1.4146 1.2146 1.1541 1.0716 1.069
2652.345 1.2198 1.1253 1.2274 1.2769 1.1432 1.2291 1.2524 1.0699 1.0681 1.1769
2671.634 1.0782 1.0105 1.0761 1.1292 1.1107 0.9204 0.8342 0.7809 0.7483 0.8041
2690.924 0.842 0.8929 0.968 1.0905 0.9922 0.8614 0.8381 0.808 0.881 0.8386
2710.214 0.7582 0.8385 0.8831 0.8823 0.9923 1.0677 1.0251 0.9541 0.8248 0.6881
2729.504 0.6506 0.7322 0.7561 0.7401 0.7585 0.774 0.8311 0.9063 0.8852 0.9408
2748.794 1.0187 0.9543 1.106 1.1326 0.9105 0.7743 0.6123 0.672 0.9171 0.8647
2768.083 0.7272 0.629 0.8579 0.9822 0.802 0.7757 0.8369 0.7718 0.7192 0.7255
2787.373 0.7202 0.8046 0.7574 0.6501 0.6573 0.7447 0.8358 0.784 0.6356 0.52184
2806.663 0.5938 0.822 0.8357 0.8553 0.9818 1.0512 0.9176 0.6865 0.7232 0.9298
2825.953 0.9485 0.9463 0.9921 1.0773 1.0341 0.8488 0.9244 1.0312 1.1077 1.1829
2845.242 1.1243 0.8941 0.6815 0.7494 0.8966 0.8899 0.797 0.7086 0.732 0.7838
2864.532 0.9493 0.9145 0.7823 0.9911 1.075 0.8881 0.8409 0.9499 1.1519 1.2034
2883.822 1.08 1.1318 1.1638 1.0533 1.0518 1.2609 1.1865 1.2181 1.317 1.269
2903.112 1.3021 1.3298 1.4497 1.3924 1.0967 1.0705 1.2814 1.1547 1.0109 1.0692
2922.401 1.1056 0.9308 0.8696 1.1177 1.0552 0.8973 0.8228 1.001 1.1437 1.1538
2941.691 1.1588 0.9994 1.1283 1.254 1.0602 1.0225 1.1236 1.0441 0.9435 1.0326
2960.981 1.292 1.4455 1.3564 1.1882 1.1237 1.2928 1.555 1.4313 1.2242 1.1493
2980.271 1.2163 1.0689 0.941 1.1542 1.0922 1.1312 1.3801 1.505 1.515 1.4711
2999.561 1.495 1.595 1.675 1.785 1.675 1.685 1.905 1.935 2.155 2.345
3018.850 2.465 2.405 2.485 2.815 2.905 3.115 3.415 3.475 3.575 3.715
3038.140 3.795 3.945 4.265 4.815 5.445 5.735 5.865 6.215 6.755 7.455
3057.430 7.755 8.055 8.645 9.195 9.765 10.275 10.905 11.895 12.845 13.315
3076.720 13.115 12.395 11.415 10.215 9.215 8.855 9.005 9.005 8.555 8.025
3096.009 7.705 7.185 6.545 5.985 5.215 4.675 4.315 3.615 3.105 3.095
3115.299 2.755 2.175 2.145 2.195 1.945 1.735 1.575 1.4267 1.4014 1.2954
3134.589 1.3319 1.4113 1.4296 1.3572 1.1605 1.2733 1.1556 1.0745 1.1844 1.2659
3153.879 1.495 1.4641 1.154 0.9597 0.8575 0.7671 0.7598 0.7335 0.9607 0.8178
3173.169 0.6483 0.9474 1.0622 0.9403 0.56482 0.4401 0.487161 0.4635 0.57877 0.6231
3192.458 0.6707 1.0037 1.1694 1.0248 0.9072 0.7778 0.6471 0.6371 0.7561 0.7893
3211.748 0.6695 0.6816 0.7373 0.8654 0.826 0.6997 0.8344 0.51237 0.382 0.6181
3231.038 0.6379 0.56184 0.58343 0.6455 0.51376 0.359 0.4642 0.6351 0.6993 0.6767
3250.328 0.57056 0.54131 0.6776 0.8405 0.7417 0.6818 0.50409 0.4645 0.53662 0.324
3269.617 0.203 0.19 0.4587 0.6126 0.4484 0.349 0.4066 0.7765 0.7242 0.398
3288.907 0.55886 0.6447 0.4517 0.378 0.58286 0.6467 0.53364 0.6156 0.8053 0.7874
3308.197 0.7626 0.6543 0.38 0.272 0.088 0.081 0.343 0.6463 0.9425 0.811
3327.487 0.5877 0.6197 0.3859 0.267 0.51942 0.6199 0.58201 0.50541 0.54427 0.6982
3346.777 0.48041 0.372 0.50271 0.52685 0.691 0.7775 0.7115 0.9673 0.9519 0.56634
3366.066 0.57177 0.6788 0.50048 0.47 0.56332 0.6724 0.689 0.54317 0.3914 0.4095
3385.356 0.6504 0.56159 0.5812 0.6765 0.51889 0.51487 0.345 0.284 0.4211 0.6045
3404.646 0.7322 0.6051 0.487607 0.6511 0.8933 0.8136 0.7253 0.5444 0.4628 0.6089
3423.936 0.6772 0.7699 0.7462 0.4192 0.57925 0.7443 0.351 0.48141 0.6717 0.6912
3443.225 0.9701 0.7065 0.50953 0.6192 0.6149 0.55887 0.36 0.3966 0.781 0.8626
3462.515 0.6681 0.5171 0.335 0.357 0.6523 0.7779 0.6353 0.328 0.323 0.7201
3481.805 0.50731 0.274 0.56013 0.6163 0.56378 0.7072 0.7059 0.6508 0.6336 0.656
3501.095 0.58424 0.56843 0.6421 0.47678 0.179 0.171 0.259 0.333 0.378 0.335
3520.385 0.56996 0.6849 0.5372 0.371 0.4648 0.4336 0.281 0.4319 0.51188 0.3978
3539.674 0.491498 0.621 0.51161 0.7164 0.6488 0.355 0.489522 0.6693 0.6766 0.6461
3558.964 0.7223 0.709 0.5914 0.492589 0.4212 0.7802 0.9123 0.7606 0.6651 0.326
3578.254 0.215 0.57578 0.7042 0.4607 0.269 0.231 0.50652 0.6309 0.7285 0.747
3597.544 0.6522 0.57761 0.4343 0.3912 0.5882 0.7273 0.51932 0.6573 0.6787 0.49894
3616.833 0.685 0.4689 0.369 0.55043 0.57112 0.6764 0.7936 0.7872 0.9109 0.9953
3636.123 0.7629 0.7603 0.6843 0.51374 0.6989 0.8143 0.7974 0.6974 0.52754 0.6947
3655.413 0.8034 0.8102 0.7766 0.7705 0.8137 0.7547 0.47817 0.376 0.4246 0.4607
3674.703 0.6489 0.6463 0.7951 0.7905 0.6245 0.4962 0.4251 0.50545 0.7324 0.6457
3693.993 0.4825 0.494229 0.51421 0.8719 0.77 0.4138 0.7875 1.1299 0.9761 0.6972
3713.282 0.7153 0.9682 0.6944 0.4254 0.55283 0.54685 0.56788 0.4158 0.3963 0.6372
3732.572 0.54976 0.58418 0.744 0.8223 0.79 0.6358 0.6369 0.5946 0.3945 0.4027
3751.862 0.6025 0.7185 0.7501 0.8577 0.8893 0.7871 0.6182 0.487627 0.6944 0.53407
3771.152 0.298 0.56799 0.6802 0.6988 0.4453 0.3969 0.54238 0.49969 0.714 0.9247
3790.441 0.9782 1.039 0.9289 0.55767 0.286 0.4681 0.8643 0.6977 0.50712 0.6094
3809.731 0.6621 0.6707 0.7992 0.8359 0.6827 0.7414 0.5942 0.4364 0.53969 0.6363
3829.021 0.59 0.365 0.239 0.593 0.51792 0.333 0.638 0.7474 0.54616 0.38
3848.311 0.107 0.215 0.6459 0.55512 0.54934 0.6526 0.48056 0.3906 0.6084 0.8209
3867.601 0.56548 0.186 0 0.25 0.6675 0.7922 0.8911 0.8145 0.9629 0.9356
3886.890 0.5961 0.4005 0.57168 0.6668 0.592 0.52967 0.49537 0.54526 0.5624 0.6812
3906.180 0.56934 0.490163 0.842 0.6669 0.13 0.251 0.4407 0.6175 0.5932 0.51083
3925.470 0.6472 0.5996 0.3897 0.346 0.51173 0.6184 0.6259 0.4759 0.4315 0.5125
3944.760 0.6138 0.7405 0.53845 0.4431 0.6596 0.4644 0.589 0.9049 0.767 0.6748
3964.049 0.4344 0.278 0.35 0.54654 0.6613 0.53862 0.654 0.6993 0.7817 0.8962
3983.339 0.8105 0.7192 0.317 0.016 0.232 0.6109 0.7442 0.6804 0.6027 0.53815
##END=
