##TITLE=1-Bromo-2,4,6-triisopropylbenzene
##JCAMP-DX=4.24
##DATA TYPE=INFRARED SPECTRUM
##ORIGIN=NIST Mass Spectrometry Data Center
##OWNER=NIST Standard Reference Data Program
Collection (C) 2018 copyright by the U.S. Secretary of Commerce
on behalf of the United States of America. All rights reserved.
##CAS REGISTRY NO=21524-34-5
##MOLFORM=C 15 H 23 Br
##$NIST SOURCE=MSDC-IR
##SPECTROMETER/DATA SYSTEM=HP-GC/MS/IRD
##STATE=gas
##XUNITS=1/CM
##YUNITS=ABSORBANCE
##XFACTOR=1.0
##YFACTOR=0.000002300
##DELTAX=4.0
##FIRSTX=550.0
##LASTX=3846.0
##FIRSTY=0.000248
##MAXX=3846
##MINX=550
##MAXY=0.023
##MINY=0
##NPOINTS=825
##XYDATA=(X++(Y..Y))
550.0 108 10 17 0 76 110 18 68 146 156
590.0 139 161 241 297 336 352 323 270 221 206
630.0 184 170 202 215 231 255 222 172 155 136
670.0 124 103 82 113 153 159 165 166 161 135
710.0 127 132 117 135 181 225 269 334 321 230
750.0 185 150 131 149 151 127 119 144 156 152
790.0 149 151 138 137 152 162 158 130 114 139
830.0 154 129 116 136 164 176 185 192 233 364
870.0 566 756 715 504 322 231 214 199 194 198
910.0 204 221 256 310 372 439 483 463 379 314
950.0 278 247 243 211 209 240 250 240 241 274
990.0 343 415 455 600 993 1559 1945 1839 1275 745
1030.0 490 393 326 295 341 424 557 641 626 589
1070.0 519 444 422 435 434 449 471 501 531 491
1110.0 423 363 318 306 285 238 209 229 252 256
1150.0 306 335 318 355 385 344 262 173 113 95
1190.0 83 50 43 54 34 26 43 42 46 75
1230.0 107 132 150 161 185 238 280 263 221 190
1270.0 179 176 173 189 214 233 283 385 522 712
1310.0 859 848 706 553 469 427 394 373 364 361
1350.0 370 399 512 718 949 951 732 591 625 736
1390.0 748 629 517 503 557 673 841 1032 1199 1260
1430.0 1190 1036 879 785 757 798 908 1099 1306 1405
1470.0 1319 1062 762 550 421 334 289 260 224 198
1510.0 191 184 170 169 181 180 175 148 132 152
1550.0 168 192 226 295 383 438 452 419 357 331
1590.0 320 289 238 170 123 108 104 99 101 91
1630.0 89 81 69 77 76 61 58 66 71 65
1670.0 49 43 49 49 39 46 32 19 46 59
1710.0 51 43 44 61 70 61 50 64 84 104
1750.0 126 150 156 139 108 77 62 68 60 52
1790.0 47 39 47 51 49 53 48 44 41 40
1830.0 52 52 38 30 36 39 34 37 43 38
1870.0 31 29 30 32 25 24 41 44 35 40
1910.0 50 42 32 25 23 37 42 39 40 31
1950.0 23 37 35 27 36 41 34 29 31 26
1990.0 25 33 43 29 15 26 31 24 29 30
2030.0 24 21 24 33 28 18 21 31 27 22
2070.0 16 10 11 18 29 29 29 26 13 15
2110.0 11 15 32 29 23 25 30 30 19 17
2150.0 19 18 15 18 22 26 25 23 23 20
2190.0 22 21 27 30 28 24 16 30 41 28
2230.0 27 23 25 34 28 25 23 29 28 21
2270.0 23 13 11 24 25 15 24 34 34 37
2310.0 22 18 32 32 14 9 10 17 26 16
2350.0 13 19 8 16 33 31 21 17 18 21
2390.0 33 29 22 30 23 21 33 38 40 36
2430.0 29 19 32 38 29 40 39 33 42 48
2470.0 38 23 23 37 45 52 48 41 34 41
2510.0 63 54 33 28 37 46 46 46 46 50
2550.0 53 57 60 62 69 81 71 51 65 84
2590.0 93 100 102 102 86 71 72 79 88 83
2630.0 83 88 86 88 79 62 71 79 73 61
2670.0 53 56 50 59 70 69 66 60 69 89
2710.0 103 114 135 145 138 139 141 143 140 140
2750.0 129 128 137 149 168 163 169 171 154 157
2790.0 178 187 188 198 213 238 254 250 260 269
2830.0 281 308 350 405 456 525 606 724 890 1113
2870.0 1480 1971 2368 2506 2353 2090 1925 1904 1984 2061
2910.0 2063 2059 2113 2247 2492 2859 3290 3560 3537 3301
2950.0 3118 3368 4478 6627 8974 10000 8812 6271 3947 2507
2990.0 1778 1375 1097 879 730 613 511 443 407 395
3030.0 402 403 406 445 476 499 491 452 397 367
3070.0 358 322 257 224 210 185 184 169 168 195
3110.0 177 156 177 180 187 194 171 155 168 167
3150.0 155 173 169 146 138 152 158 155 165 181
3190.0 173 175 186 177 160 125 98 120 164 162
3230.0 118 80 77 89 62 46 80 84 62 70
3270.0 71 52 57 66 77 79 63 66 69 55
3310.0 38 52 61 82 94 60 52 76 86 75
3350.0 79 69 34 21 43 81 89 69 84 96
3390.0 83 70 70 57 35 17 22 55 60 70
3430.0 69 52 24 31 51 33 41 63 42 44
3470.0 69 65 49 45 59 53 36 70 88 74
3510.0 63 74 68 46 45 51 59 50 55 49
3550.0 45 70 60 55 75 81 62 61 69 56
3590.0 40 51 41 10 21 36 57 50 44 47
3630.0 47 35 24 68 89 40 25 62 45 15
3670.0 24 24 37 41 48 64 62 50 30 26
3710.0 38 31 41 67 56 44 42 63 63 34
3750.0 22 24 49 54 54 61 83 78 54 52
3790.0 62 86 94 73 67 73 59 69 104 107
3830.0 91 74 58 59 73
##END=
