##TITLE=2,2,5,5-Tetramethyl-1-pyrrolidinyloxy-3-carboxylic acid
##JCAMP-DX=4.24
##DATA TYPE=INFRARED SPECTRUM
##ORIGIN=EPA-IR VAPOR PHASE LIBRARY
##OWNER=SRD/NIST
Collection (C) 2018 copyright by the U.S. Secretary of Commerce
on behalf of the United States of America. All rights reserved.
##CAS REGISTRY NO=2154-68-9
##MOLFORM=C 9 H 16 N O 3
##$NIST SOURCE=MSDC-IR
##STATE=gas
##XUNITS=1/CM
##YUNITS=ABSORBANCE
##XFACTOR=1.
##YFACTOR=0.001
##DELTAX=1.92898
##FIRSTX=549.8
##LASTX=4000.7
##FIRSTY=2.306
##MAXX=4000.7
##MINX=549.759
##MAXY=0.025026
##MINY=0
##NPOINTS=1790
##XYDATA=(X++(Y..Y))
549.759 2.306 2.536 2.296 2.156 2.236 2.406 2.316 2.106 2.126 2.146
569.049 2.276 2.586 2.646 2.526 2.986 3.186 3.276 3.556 3.626 3.876
588.339 4.076 4.156 4.366 4.466 4.326 4.176 4.066 3.846 3.536 3.366
607.628 3.286 3.036 2.936 2.876 2.586 2.656 2.796 2.736 2.886 3.086
626.918 3.466 3.896 4.216 4.446 4.716 4.916 5.056 5.156 5.166 5.286
646.208 5.406 5.546 5.406 5.066 4.826 4.626 4.536 4.266 3.936 3.486
665.498 2.966 2.736 2.346 2.126 1.926 1.676 1.606 1.466 1.2286 0.9063
684.787 0.7126 0.9013 0.8566 0.6692 0.7956 0.8464 0.8269 0.6969 0.517 0.5411
704.077 0.5174 0.46241 0.5503 0.573 0.6481 0.7612 0.7668 0.692 0.6901 0.7753
723.367 0.8901 0.8261 0.6922 0.9049 1.0958 1.0118 0.9395 1.035 1.0851 1.0868
742.657 1.2236 1.2277 1.1904 1.1228 1.0194 0.9815 0.8331 0.7006 0.7884 0.7898
761.947 0.6921 0.7458 0.8682 1.0315 0.971 1.0078 1.0204 0.9663 0.9525 1.0621
781.236 1.1505 1.0311 1.1666 1.1484 0.9659 0.8138 0.9282 1.0481 0.8661 0.6734
800.526 0.7334 0.8701 0.7259 0.6791 0.6971 0.5593 0.49622 0.6111 0.6105 0.6965
819.816 0.7529 0.7187 0.8386 0.7036 0.6146 0.5759 0.45233 0.48203 0.46591 0.6502
839.106 0.6507 0.42166 0.3871 0.3917 0.4928 0.42741 0.4292 0.5595 0.5376 0.579
858.395 0.7329 0.616 0.44062 0.48564 0.5173 0.49961 0.5898 0.44381 0.266 0.413983
877.685 0.5113 0.5094 0.5591 0.577 0.47616 0.6101 0.6524 0.45923 0.49784 0.6628
896.975 0.7076 0.7676 0.8685 0.7356 0.6359 0.7235 0.7634 0.7988 0.765 0.7252
916.265 0.7129 0.6734 0.7727 0.8919 0.8193 0.6736 0.5787 0.7126 0.7642 0.668
935.555 0.8198 0.8883 0.8246 0.8607 0.7481 0.694 0.8272 0.9253 0.8629 0.8284
954.844 0.8053 0.7093 0.7084 0.7992 0.8053 0.7262 0.7051 0.8453 0.8649 0.8059
974.134 0.9517 0.9764 0.9719 0.9489 1.007 1.1497 1.0443 0.8142 0.818 0.928
993.424 1.0266 1.1772 1.1417 0.9197 0.9678 1.0951 1.0199 0.9545 0.9182 0.9297
1012.714 1.1611 1.0345 0.6643 0.6514 0.8846 0.9329 1.1574 1.1473 0.9582 1.2075
1032.003 1.3541 1.456 1.456 1.596 1.656 1.676 1.766 2.026 2.196 2.356
1051.293 2.496 2.436 2.446 2.556 2.726 2.886 2.936 2.656 2.606 2.826
1070.583 2.696 2.726 2.956 3.006 2.866 2.876 3.406 4.356 4.756 4.576
1089.873 5.046 5.686 6.236 6.636 7.376 7.856 7.986 8.486 9.296 10.066
1109.163 10.156 10.716 12.106 12.906 13.306 14.006 14.526 14.686 14.456 13.976
1128.452 13.126 12.336 11.696 10.506 9.346 8.916 8.776 8.326 7.766 7.346
1147.742 6.836 6.476 6.246 6.016 5.696 5.426 5.276 5.506 5.716 5.586
1167.032 5.696 5.646 5.626 5.606 5.536 5.816 5.786 5.436 5.276 5.076
1186.322 4.886 4.686 4.456 4.246 3.866 3.596 3.156 3.046 3.136 2.846
1205.611 2.926 3.066 2.846 2.666 2.456 2.476 2.936 2.956 2.796 2.836
1224.901 2.946 3.076 2.756 2.796 3.056 3.006 3.206 3.486 3.726 3.966
1244.191 3.916 3.886 3.786 3.546 3.486 3.266 2.966 2.686 2.406 2.236
1263.481 2.156 2.116 1.936 1.956 2.166 2.046 2.006 2.206 2.206 2.196
1282.771 2.386 2.446 2.586 2.756 2.856 3.076 3.236 3.366 3.426 3.466
1302.060 3.486 3.476 3.446 3.336 3.266 3.206 3.116 3.026 2.906 2.716
1321.350 2.526 2.336 2.226 2.206 2.036 1.886 1.886 1.916 1.896 1.876
1340.640 1.926 1.976 2.056 2.216 2.386 2.576 2.846 3.206 3.646 4.136
1359.930 4.636 5.196 5.746 6.336 7.026 7.416 7.366 7.296 7.336 7.366
1379.219 7.226 6.966 6.686 6.306 5.906 5.436 4.856 4.316 3.806 3.336
1398.509 2.946 2.626 2.396 2.186 1.986 1.836 1.786 1.746 1.686 1.746
1417.799 1.766 1.766 1.786 1.816 1.846 1.796 1.746 1.686 1.676 1.666
1437.089 1.696 1.776 1.826 1.946 2.106 2.246 2.436 2.666 2.906 3.216
1456.378 3.536 3.796 3.966 4.026 3.946 3.806 3.686 3.516 3.196 2.796
1475.668 2.466 2.166 1.896 1.636 1.436 1.2452 1.0898 1.0325 0.9895 0.933
1494.958 0.8618 0.7776 0.783 0.7905 0.6961 0.6342 0.614 0.688 0.7011 0.6399
1514.248 0.6539 0.6298 0.6072 0.6525 0.648 0.6319 0.6307 0.6003 0.5709 0.5297
1533.538 0.5231 0.5611 0.5958 0.6318 0.6341 0.6199 0.6359 0.6025 0.5553 0.5691
1552.827 0.539 0.5159 0.5847 0.5904 0.49836 0.5559 0.6848 0.6965 0.6153 0.5615
1572.117 0.6124 0.6103 0.5344 0.50402 0.5543 0.5228 0.49751 0.5638 0.6145 0.5994
1591.407 0.5657 0.5747 0.563 0.5846 0.572 0.50088 0.46903 0.47819 0.5422 0.625
1610.697 0.5723 0.5272 0.6139 0.6226 0.6026 0.6027 0.5791 0.5767 0.5065 0.47818
1629.986 0.50438 0.515 0.5375 0.44661 0.46656 0.5268 0.5074 0.48543 0.44825 0.42195
1649.276 0.44795 0.49155 0.47553 0.5267 0.5955 0.615 0.6082 0.6077 0.6148 0.6258
1668.566 0.6199 0.6651 0.6489 0.5833 0.6499 0.7404 0.7461 0.6839 0.665 0.676
1687.856 0.6819 0.7412 0.7903 0.7705 0.777 0.8153 0.8804 0.939 0.9209 0.9745
1707.146 1.0515 1.116 1.2232 1.3079 1.3772 1.486 1.686 1.906 2.016 2.176
1726.435 2.416 2.626 2.806 2.936 3.086 3.266 3.456 3.616 3.806 4.146
1745.725 4.516 4.936 5.536 6.286 7.276 8.606 10.386 12.506 14.936 17.506
1765.015 19.906 21.976 23.646 24.776 25.026 24.186 22.266 19.646 16.826 13.976
1784.305 11.326 9.086 7.406 6.166 5.296 4.736 4.266 3.966 3.786 3.556
1803.594 3.266 3.046 2.876 2.626 2.446 2.306 2.176 2.006 1.816 1.666
1822.884 1.476 1.3515 1.2999 1.1675 1.0169 0.9986 1.0007 0.924 0.8587 0.8458
1842.174 0.8118 0.7624 0.7716 0.7613 0.7312 0.7144 0.707 0.7169 0.7184 0.7274
1861.464 0.7341 0.6986 0.6827 0.6431 0.6077 0.6086 0.6704 0.6892 0.6366 0.6253
1880.754 0.6162 0.6016 0.5928 0.5815 0.5952 0.6127 0.5837 0.534 0.5152 0.5943
1900.043 0.6524 0.5915 0.5394 0.5346 0.5269 0.5517 0.5657 0.5289 0.5311 0.548
1919.333 0.552 0.5525 0.5697 0.5935 0.5646 0.5317 0.4953 0.47109 0.5202 0.5526
1938.623 0.5277 0.533 0.5339 0.48878 0.49008 0.5286 0.584 0.5603 0.48918 0.50485
1957.913 0.5097 0.44862 0.41872 0.406513 0.43176 0.49249 0.5137 0.50458 0.47311 0.48802
1977.202 0.49753 0.48158 0.46289 0.48117 0.5061 0.47918 0.44294 0.44919 0.43227 0.406323
1996.492 0.4225 0.3901 0.4007 0.46611 0.48484 0.47304 0.48868 0.5357 0.5267 0.48476
2015.782 0.49181 0.49889 0.46982 0.47266 0.4711 0.5378 0.5516 0.49591 0.512 0.5271
2035.072 0.5214 0.5431 0.5186 0.40181 0.3888 0.47044 0.45865 0.412713 0.4339 0.45166
2054.362 0.49548 0.48997 0.44963 0.46765 0.49309 0.48687 0.46548 0.5077 0.48794 0.46442
2073.651 0.49071 0.48918 0.50081 0.48169 0.47436 0.50578 0.5187 0.50385 0.49749 0.48076
2092.941 0.47444 0.47118 0.44139 0.46294 0.5216 0.5339 0.5175 0.4899 0.46868 0.45029
2112.231 0.49333 0.50137 0.4376 0.43947 0.50342 0.49653 0.50589 0.5491 0.5134 0.46401
2131.521 0.43529 0.46871 0.4871 0.47366 0.5146 0.549 0.521 0.47317 0.45132 0.48368
2150.810 0.5509 0.5885 0.50543 0.42121 0.42012 0.50417 0.598 0.5486 0.5591 0.6221
2170.100 0.5935 0.5733 0.5584 0.52 0.5114 0.525 0.46209 0.45254 0.5063 0.48306
2189.390 0.5022 0.5413 0.5604 0.5769 0.6004 0.619 0.5353 0.45999 0.4891 0.5133
2208.680 0.47112 0.48607 0.48777 0.45993 0.49217 0.5066 0.49917 0.46544 0.46959 0.5369
2227.970 0.50425 0.47653 0.532 0.5299 0.5299 0.5352 0.49734 0.5472 0.6125 0.594
2247.259 0.5695 0.5112 0.50072 0.50395 0.46971 0.44719 0.49733 0.5507 0.50075 0.46869
2266.549 0.48295 0.47566 0.47835 0.47832 0.5134 0.5393 0.45662 0.413465 0.46363 0.5524
2285.839 0.5724 0.5076 0.48135 0.5356 0.6125 0.6591 0.6385 0.6059 0.6295 0.6519
2305.129 0.6785 0.6822 0.6624 0.6821 0.6511 0.5943 0.602 0.6366 0.6694 0.6847
2324.418 0.6919 0.6444 0.613 0.6137 0.6321 0.6428 0.6157 0.5884 0.5895 0.6028
2343.708 0.6228 0.6089 0.5939 0.6505 0.6784 0.6823 0.6869 0.6655 0.6587 0.7103
2362.998 0.741 0.7412 0.7178 0.7198 0.7689 0.7293 0.6422 0.6444 0.6397 0.6007
2382.288 0.6416 0.6339 0.5984 0.5878 0.5509 0.5373 0.5143 0.49323 0.5666 0.5678
2401.578 0.49847 0.5665 0.5645 0.5309 0.5279 0.5128 0.5442 0.46444 0.43526 0.50581
2420.867 0.48439 0.5162 0.581 0.5461 0.5179 0.536 0.5608 0.57 0.5624 0.5745
2440.157 0.5811 0.5757 0.5291 0.48071 0.47165 0.5137 0.5617 0.5722 0.5714 0.5825
2459.447 0.5633 0.49982 0.45463 0.44214 0.5171 0.48754 0.43219 0.45391 0.43314 0.3921
2478.737 0.39788 0.45935 0.48641 0.47009 0.5228 0.591 0.5577 0.5287 0.5181 0.46537
2498.026 0.4243 0.45133 0.50525 0.47632 0.46358 0.45386 0.415139 0.48284 0.5338 0.5158
2517.316 0.5394 0.5672 0.5364 0.50476 0.45269 0.44925 0.42675 0.3662 0.3706 0.44639
2536.606 0.5149 0.50549 0.47346 0.48659 0.48751 0.45125 0.46288 0.4646 0.43077 0.45647
2555.896 0.49362 0.47502 0.49655 0.49177 0.4818 0.47747 0.4689 0.5071 0.5176 0.5179
2575.186 0.5293 0.49855 0.49377 0.47362 0.40471 0.42437 0.47439 0.4799 0.48019 0.49558
2594.475 0.4655 0.46035 0.44967 0.46675 0.5421 0.6063 0.5988 0.5261 0.535 0.5516
2613.765 0.5197 0.45173 0.4451 0.46152 0.43656 0.5177 0.5285 0.48481 0.5176 0.5067
2633.055 0.49887 0.5219 0.5147 0.44546 0.455 0.5227 0.5252 0.48761 0.47402 0.5067
2652.345 0.5425 0.5471 0.5261 0.5608 0.5469 0.51 0.5129 0.5313 0.523 0.49873
2671.634 0.5405 0.5188 0.5387 0.5997 0.6021 0.5606 0.5938 0.6152 0.49866 0.43507
2690.924 0.5456 0.5581 0.5464 0.5965 0.519 0.44541 0.4918 0.5858 0.6361 0.6064
2710.214 0.5591 0.5687 0.513 0.5097 0.5508 0.5442 0.46718 0.576 0.587 0.5229
2729.504 0.6416 0.6237 0.6161 0.5994 0.6219 0.6454 0.6033 0.5967 0.576 0.48119
2748.794 0.46937 0.49848 0.49999 0.5524 0.6093 0.6021 0.5625 0.5106 0.49346 0.5266
2768.083 0.45095 0.43134 0.49818 0.575 0.6475 0.6601 0.6305 0.572 0.551 0.5497
2787.373 0.6417 0.7352 0.6717 0.6358 0.6854 0.6931 0.5817 0.5557 0.6875 0.7611
2806.663 0.7735 0.7793 0.7489 0.7334 0.6314 0.598 0.638 0.671 0.7315 0.7136
2825.953 0.7063 0.7923 0.9132 0.8654 0.8162 0.8053 0.8444 0.8863 0.9085 0.8909
2845.242 0.8649 0.8496 0.8128 0.8913 0.9729 1.0716 1.1506 1.1393 1.1536 1.3124
2864.532 1.496 1.636 1.796 1.976 2.096 2.256 2.376 2.386 2.576 2.716
2883.822 2.646 2.636 2.646 2.586 2.596 2.736 2.776 2.636 2.606 2.666
2903.112 2.616 2.646 2.766 2.766 2.696 2.626 2.756 2.866 2.916 3.106
2922.401 3.306 3.596 3.956 4.276 4.596 4.916 5.246 5.546 5.636 5.746
2941.691 5.876 5.786 5.506 5.126 4.846 4.656 4.526 4.386 4.266 4.356
2960.981 4.736 5.396 6.106 6.876 7.796 8.886 10.026 10.976 11.706 12.416
2980.271 12.986 13.166 12.996 12.416 11.646 10.776 9.706 8.506 7.266 6.136
2999.561 5.126 4.096 3.216 2.586 2.076 1.726 1.506 1.285 1.1447 1.1233
3018.850 1.0152 0.931 0.8557 0.7307 0.7164 0.7324 0.6953 0.7503 0.8411 0.7984
3038.140 0.7426 0.7244 0.6665 0.7117 0.7212 0.6745 0.6831 0.6738 0.5755 0.5866
3057.430 0.5828 0.44248 0.47077 0.46118 0.411407 0.3726 0.43279 0.5512 0.49862 0.3837
3076.720 0.46378 0.5844 0.5073 0.5093 0.6405 0.6719 0.5788 0.5322 0.49542 0.511
3096.009 0.6151 0.6469 0.551 0.47164 0.5622 0.6263 0.5842 0.5886 0.6604 0.6451
3115.299 0.5614 0.5425 0.5378 0.5278 0.5694 0.5623 0.6285 0.5692 0.3373 0.294
3134.589 0.46944 0.6638 0.6238 0.50056 0.5936 0.5982 0.394 0.4374 0.5521 0.5881
3153.879 0.6206 0.5967 0.5833 0.49636 0.4609 0.44713 0.48182 0.555 0.5888 0.5392
3173.169 0.46035 0.48454 0.5172 0.548 0.5258 0.5387 0.43191 0.5475 0.6482 0.44458
3192.458 0.5105 0.6914 0.6099 0.46404 0.512 0.6136 0.6035 0.5332 0.46887 0.3879
3211.748 0.42906 0.5093 0.535 0.5256 0.42814 0.3545 0.3753 0.41938 0.45467 0.47799
3231.038 0.5119 0.5896 0.626 0.5904 0.412704 0.39756 0.5339 0.44505 0.3779 0.39801
3250.328 0.45378 0.46521 0.44986 0.46031 0.533 0.50514 0.3083 0.345 0.5896 0.555
3269.617 0.48743 0.569 0.409214 0.246 0.282 0.3318 0.259 0.291 0.43671 0.39996
3288.907 0.3264 0.352 0.3442 0.29 0.3588 0.45753 0.44884 0.42943 0.3812 0.412022
3308.197 0.412235 0.3575 0.3747 0.3591 0.254 0.3488 0.45234 0.337 0.3321 0.3281
3327.487 0.3798 0.3952 0.361 0.46179 0.43966 0.3484 0.40485 0.409552 0.35 0.45517
3346.777 0.3598 0.3719 0.46459 0.3908 0.45733 0.47985 0.52 0.49846 0.382 0.3625
3366.066 0.3139 0.40506 0.4629 0.288 0.3226 0.352 0.275 0.31 0.3871 0.43622
3385.356 0.47267 0.413899 0.3624 0.385 0.3159 0.3906 0.413321 0.3727 0.48703 0.47678
3404.646 0.42459 0.47034 0.553 0.5497 0.39742 0.42693 0.4638 0.3785 0.3825 0.43457
3423.936 0.42387 0.3622 0.3567 0.3607 0.3172 0.27 0.3 0.3216 0.3248 0.3442
3443.225 0.3545 0.3584 0.41563 0.39782 0.43448 0.5132 0.39743 0.3223 0.3156 0.407976
3462.515 0.42426 0.3848 0.3473 0.41897 0.4763 0.259 0.237 0.42525 0.44554 0.50478
3481.805 0.6079 0.5091 0.46243 0.44656 0.413194 0.413581 0.3122 0.3445 0.5556 0.5995
3501.095 0.50475 0.47494 0.5912 0.6473 0.5743 0.5277 0.5411 0.5447 0.5111 0.5194
3520.385 0.595 0.6183 0.5531 0.5368 0.5576 0.573 0.7181 0.8777 0.7997 0.6413
3539.674 0.6498 0.7152 0.84 0.8362 0.7627 0.787 0.9657 1.436 2.066 3.006
3558.964 4.496 6.376 8.206 9.546 10.186 10.836 11.056 10.106 9.016 7.766
3578.254 5.776 3.816 2.456 1.616 1.1636 0.9483 0.8052 0.7001 0.538 0.3826
3597.544 0.3164 0.45243 0.7011 0.711 0.5983 0.5248 0.5371 0.5324 0.5148 0.42706
3616.833 0.45482 0.5126 0.43758 0.3336 0.3196 0.40125 0.45542 0.49172 0.4385 0.3658
3636.123 0.3603 0.292 0.218 0.245 0.3888 0.3478 0.299 0.415111 0.413605 0.3745
3655.413 0.3586 0.46472 0.5625 0.47927 0.40132 0.413998 0.3493 0.3239 0.39903 0.44157
3674.703 0.363 0.3238 0.279 0.295 0.3381 0.3379 0.3496 0.3525 0.4183 0.3933
3693.993 0.42263 0.5738 0.6035 0.49506 0.5187 0.47812 0.3785 0.3438 0.302 0.3502
3713.282 0.3898 0.3552 0.3204 0.295 0.2 0.249 0.3167 0.3783 0.43767 0.44273
3732.572 0.3411 0.3332 0.3483 0.221 0.145 0.218 0.266 0.163 0.25 0.3554
3751.862 0.3601 0.284 0.3416 0.3545 0.287 0.3271 0.42022 0.409325 0.239 0.3589
3771.152 0.49841 0.42262 0.3606 0.3777 0.45551 0.46946 0.3181 0.305 0.43748 0.41987
3790.441 0.39846 0.413497 0.278 0.194 0.415991 0.45684 0.237 0.3074 0.3456 0.3508
3809.731 0.50211 0.3656 0.182 0.167 0.187 0.129 0.177 0.164 0.293 0.49729
3829.021 0.46554 0.48526 0.48572 0.293 0.26 0.44074 0.3713 0.298 0.3063 0.274
3848.311 0.3462 0.44581 0.3407 0.095 0 0.197 0.3685 0.3913 0.48577 0.48046
3867.601 0.3716 0.272 0.27 0.411371 0.3405 0.292 0.299 0.302 0.40192 0.39664
3886.890 0.3226 0.201 0.225 0.249 0.3295 0.50325 0.39794 0.3467 0.42085 0.3668
3906.180 0.3095 0.3483 0.3353 0.231 0.165 0.3087 0.47915 0.43801 0.3391 0.168
3925.470 0.111 0.205 0.198 0.139 0.284 0.3952 0.3707 0.41761 0.43627 0.406426
3944.760 0.312 0.3195 0.42437 0.43669 0.3547 0.232 0.219 0.413083 0.48487 0.49443
3964.049 0.48653 0.43067 0.481 0.3428 0.169 0.242 0.187 0.112 0.222 0.3304
3983.339 0.3154 0.289 0.273 0.194 0.262 0.42076 0.43109 0.278 0.235 0.3093
##END=
