##TITLE=Lauryl acrylate
##JCAMP-DX=4.24
##DATA TYPE=INFRARED SPECTRUM
##ORIGIN=EPA-IR VAPOR PHASE LIBRARY
##OWNER=SRD/NIST
Collection (C) 2018 copyright by the U.S. Secretary of Commerce
on behalf of the United States of America. All rights reserved.
##CAS REGISTRY NO=2156-97-0
##MOLFORM=C 15 H 28 O 2
##$NIST SOURCE=MSDC-IR
##STATE=gas
##XUNITS=1/CM
##YUNITS=ABSORBANCE
##XFACTOR=1.
##YFACTOR=0.001
##DELTAX=1.92934
##FIRSTX=549.9
##LASTX=3999.5
##FIRSTY=1.613
##MAXX=3999.53
##MINX=549.863
##MAXY=0.42573
##MINY=0
##NPOINTS=1789
##XYDATA=(X++(Y..Y))
549.863 1.613 1.305 1.224 1.309 1.16 1.053 1.08 1.047 0.867 0.71
569.156 0.914 0.978 0.809 0.808 0.798 0.71 0.67 0.844 0.76 0.74
588.450 0.829 0.75 0.853 1.021 1.058 1 1.109 1.287 1.315 1.471
607.743 1.752 1.8138 1.7381 1.625 1.57 1.55 1.52 1.529 1.483 1.394
627.037 1.276 1.266 1.35 1.439 1.493 1.379 1.347 1.491 1.478 1.512
646.330 1.677 1.82669 1.9925 2.1279 2.3288 2.531 2.84 3.17 3.44 3.69
665.624 3.75 3.74 3.66 3.33 2.98 2.6612 2.3922 2.2119 2.0823 2.0567
684.917 1.987 1.9843 2.1166 2.0799 2.0196 2.2955 2.6599 2.94 3.15 3.44
704.210 3.86 4.18 4.59 5.13 5.64 6.03 6.35 6.72 6.84 6.73
723.504 6.67 6.63 6.43 6.18 6.06 5.87 5.57 5.35 5.15 4.96
742.797 4.81 4.67 4.58 4.47 4.29 4.19 4.14 4.12 4.06 4.06
762.091 4.18 4.24 4.22 4.22 4.33 4.57 4.8 5.07 5.49 5.84
781.384 6.18 6.7 7.31 8.16 9.2 10.26 11.42 12.73 14.31 16.04
800.678 17.8 19.52 21.05 22.06 22.39 22.13 21.29 20.25 18.97 17.36
819.971 15.64 14.11 12.92 11.91 11.02 10.29 9.71 9.08 8.58 8.35
839.264 8.05 7.67 7.49 7.44 7.27 7.15 7.1 7.05 7.1 7.1
858.558 7.03 7.06 7.07 7.05 7.09 7.11 7.09 7.08 7.09 7.14
877.851 7.22 7.24 7.27 7.29 7.29 7.27 7.27 7.36 7.43 7.37
897.145 7.44 7.45 7.42 7.55 7.67 7.7 7.78 7.92 8.05 8.15
916.438 8.24 8.41 8.64 8.85 9.07 9.31 9.62 10.06 10.48 11
935.732 11.66 12.42 13.4 14.52 15.81 17.36 19.13 21.04 23.19 25.66
955.025 28.35 31.09 33.6 35.68 37.16 38.03 38.38 38.38 38.37 38.48
974.318 38.85 39.52 40.47 41.39 42.15 42.57 42.25 41.27 39.68 37.63
993.612 35.31 33.02 30.83 28.74 26.78 24.93 23.39 22.14 21.12 20.31
1012.905 19.74 19.34 19.04 19.02 19.25 19.63 20.21 20.96 21.96 23.35
1032.199 25.04 27.04 29.44 32.18 35.35 38.96 42.89 47.31 52.13 57.2
1051.492 62.46 67.7 72.46 76.14 78.29 78.58 76.94 73.7 69.35 64.53
1070.786 59.41 54.32 49.63 45.07 40.8 36.87 33.19 29.81 26.85 24.24
1090.079 21.95 19.98 18.16 16.56 15.31 14.24 13.32 12.55 11.91 11.46
1109.372 11.21 11.08 10.95 10.89 10.94 11.02 11.19 11.44 11.82 12.22
1128.666 12.52 13.04 13.72 14.47 15.36 16.26 17.34 18.84 20.58 22.77
1147.959 25.36 28.46 32.13 36.1 40.94 46.95 54.05 62.22 72.15 84.41
1167.253 99.23 117.15 138.7 164.04 193 224.7 257.6 288.96 315.09 332.16
1186.546 336.89 328.67 309.02 280.68 247.71 214.51 183.36 155.47 131.5 111.44
1205.840 94.93 81.96 71.75 63.4 56.8 51.4 47.61 45.25 42.9 41
1225.133 39.99 39.57 40.1 40.97 42.18 44.26 46.88 50.37 54.99 60.74
1244.426 67.64 75.84 85.61 96.42 108.04 120.13 131.54 141.7 149.34 153.07
1263.720 152.35 147.27 138.56 127.33 115.01 102.58 91.25 81.66 74.11 68.77
1283.013 65.34 63.86 64.25 66.21 68.92 71.6 73.29 72.83 69.87 64.7
1302.307 58.23 51.55 45.38 39.97 35.4 31.62 28.49 25.96 23.79 21.95
1321.600 20.48 19.22 18.16 17.29 16.59 16.02 15.55 15.18 15.01 15.02
1340.894 15.07 15.24 15.46 15.71 16 16.22 16.31 16.32 16.17 15.9
1360.187 15.66 15.44 15.26 15.27 15.39 15.6 15.92 16.43 17.25 18.2
1379.480 19.17 20.13 20.95 21.65 22.33 23.13 24.39 26.43 29.59 34.25
1398.774 40.54 48.6 58.17 68.72 78.59 85.07 86.51 82.54 73.95 62.89
1418.067 52.03 42.69 35.51 30.24 26.44 23.85 22.19 21.32 21.05 21.24
1437.361 21.84 22.77 23.87 25.21 26.76 28.43 30.31 32.29 34.31 36.37
1456.654 38.33 39.97 40.98 41.32 40.87 39.63 37.74 35.3 32.39 29.19
1475.948 25.96 22.89 20.11 17.68 15.68 14 12.55 11.29 10.3 9.52
1495.241 8.81 8.13 7.65 7.22 6.82 6.48 6.14 5.82 5.53 5.29
1514.534 5.09 4.91 4.76 4.56 4.36 4.25 4.08 3.83 3.75 3.73
1533.828 3.61 3.45 3.36 3.27 3.16 3.14 3.11 3.06 2.98 2.9
1553.121 2.86 2.82 2.78 2.6912 2.6897 2.7129 2.7334 2.7699 2.78 2.83
1572.415 2.83 2.9 3.05 3.16 3.2 3.35 3.62 3.75 3.93 4.1
1591.708 4.32 4.67 5 5.29 5.63 6.11 6.66 7.2 7.74 8.32
1611.002 8.94 9.66 10.37 10.94 11.66 12.47 13.16 13.91 14.67 15.39
1630.295 16.04 16.57 17.08 17.45 17.34 16.59 15.3 13.59 11.69 9.99
1649.588 8.64 7.54 6.65 6.08 5.66 5.33 5.14 5.02 4.91 4.86
1668.882 4.88 5.03 5.14 5.24 5.46 5.75 6.12 6.5 6.93 7.51
1688.175 8.14 8.8 9.56 10.56 11.72 12.92 14.29 15.83 17.48 19.41
1707.469 21.54 23.92 26.74 30.13 34.17 38.97 44.63 51.02 58.48 67.06
1726.762 76.81 87.91 100.36 114.02 129.65 146.47 163.61 180.28 193.47 200.71
1746.056 199.92 190.86 175.48 156.56 137.22 119.02 102.3 87.78 75 64.05
1765.349 54.92 47.13 40.43 34.82 30.03 26.07 22.71 19.9 17.56 15.58
1784.642 13.89 12.41 11.21 10.24 9.33 8.51 7.85 7.22 6.65 6.2
1803.936 5.78 5.44 5.11 4.75 4.42 4.13 3.93 3.77 3.58 3.45
1823.229 3.33 3.16 3.05 2.96 2.88 2.85 2.82 2.79 2.7018 2.5551
1842.523 2.5031 2.5093 2.4702 2.4344 2.3969 2.3363 2.2976 2.2922 2.2645 2.2591
1861.816 2.2432 2.2258 2.1907 2.177 2.2229 2.2338 2.201 2.1231 2.067 2.0755
1881.110 2.0949 2.0993 2.0725 2.0576 2.0899 2.1425 2.1953 2.217 2.2309 2.3036
1900.403 2.4017 2.5089 2.6731 2.81 2.91 3.05 3.28 3.53 3.74 3.97
1919.696 4.23 4.49 4.67 4.75 4.75 4.66 4.5 4.24 3.91 3.64
1938.990 3.39 3.16 2.99 2.85 2.7047 2.5392 2.3989 2.3097 2.1837 2.088
1958.283 2.027 1.9565 1.8824 1.79015 1.7503 1.7504 1.6908 1.668 1.616 1.541
1977.577 1.532 1.546 1.548 1.538 1.55 1.543 1.571 1.61 1.604 1.601
1996.870 1.602 1.652 1.712 1.7358 1.7981 1.85689 1.8843 1.9552 2.0377 2.0593
2016.164 2.1283 2.1655 2.2288 2.3467 2.3541 2.3774 2.3919 2.402 2.4968 2.5218
2035.457 2.4766 2.4856 2.4925 2.4816 2.462 2.3979 2.3941 2.3957 2.3457 2.3589
2054.750 2.4128 2.3817 2.3553 2.3124 2.2389 2.2071 2.1932 2.1812 2.1537 2.1655
2074.044 2.1739 2.1327 2.0978 2.083 2.0807 2.0498 1.99 1.9441 1.8868 1.83522
2093.337 1.83034 1.83873 1.7946 1.7469 1.7306 1.6891 1.615 1.581 1.591 1.552
2112.631 1.514 1.488 1.457 1.51 1.517 1.437 1.451 1.447 1.432 1.413
2131.924 1.355 1.396 1.423 1.411 1.37 1.307 1.265 1.305 1.36 1.319
2151.218 1.282 1.279 1.278 1.26 1.276 1.281 1.2 1.197 1.216 1.188
2170.511 1.207 1.173 1.121 1.136 1.143 1.124 1.106 1.106 1.108 1.128
2189.804 1.133 1.096 1.025 0.973 0.978 0.992 0.982 0.992 0.974 0.929
2209.098 0.925 0.921 0.943 0.941 0.979 0.981 0.903 0.928 0.974 0.95
2228.391 0.95 0.931 0.886 0.88 0.906 0.925 0.972 1.028 0.985 0.954
2247.685 0.987 0.999 0.996 0.987 0.94 0.943 0.959 0.975 1.02 1.011
2266.978 1.011 1.031 1.025 1.044 1.081 1.143 1.112 1.03 1.05 1.126
2286.272 1.129 1.113 1.145 1.142 1.136 1.133 1.139 1.16 1.19 1.188
2305.565 1.168 1.2 1.243 1.285 1.298 1.251 1.198 1.208 1.258 1.271
2324.858 1.261 1.288 1.347 1.338 1.313 1.354 1.419 1.4 1.426 1.464
2344.152 1.444 1.537 1.621 1.601 1.616 1.639 1.626 1.723 1.7548 1.77439
2363.445 1.82388 1.77667 1.756 1.7354 1.7054 1.664 1.643 1.623 1.571 1.518
2382.739 1.488 1.455 1.408 1.344 1.295 1.249 1.128 1.099 1.128 1.13
2402.032 1.123 1.099 1.083 1.085 1.095 1.082 1.024 1.005 1.047 0.994
2421.326 0.969 1.011 0.986 0.954 0.925 0.918 0.927 0.93 0.929 0.938
2440.619 0.945 0.929 0.89 0.908 0.921 0.875 0.893 0.918 0.915 0.969
2459.912 0.993 0.965 0.977 0.989 1.017 1.092 1.097 1.077 1.108 1.104
2479.206 1.112 1.13 1.14 1.128 1.186 1.228 1.181 1.165 1.144 1.143
2498.499 1.158 1.17 1.191 1.208 1.199 1.183 1.215 1.236 1.293 1.375
2517.793 1.398 1.418 1.411 1.419 1.439 1.481 1.506 1.542 1.536 1.482
2537.086 1.507 1.523 1.532 1.595 1.599 1.542 1.523 1.543 1.562 1.583
2556.380 1.598 1.582 1.577 1.587 1.632 1.668 1.665 1.672 1.656 1.67
2575.673 1.662 1.677 1.7237 1.7689 1.7596 1.78783 1.87906 1.9018 1.9093 1.9253
2594.966 1.9629 1.9693 2.0227 2.0554 2.096 2.1365 2.1589 2.2111 2.2154 2.2073
2614.260 2.2351 2.2927 2.363 2.4483 2.4674 2.4813 2.5179 2.5788 2.6242 2.6562
2633.553 2.7465 2.79 2.79 2.82 2.81 2.86 3 3.07 3.1 3.15
2652.847 3.24 3.33 3.32 3.39 3.52 3.57 3.64 3.72 3.79 3.9
2672.140 4.07 4.11 4.12 4.16 4.19 4.18 4.23 4.3 4.28 4.2
2691.434 4.2 4.2 4.17 4.2 4.1 3.99 3.94 3.88 3.79 3.73
2710.727 3.74 3.77 3.76 3.77 3.79 3.82 3.84 3.86 3.89 3.92
2730.020 4.01 4.04 4.11 4.24 4.3 4.52 4.68 4.63 4.68 4.77
2749.314 4.79 4.71 4.76 4.88 4.94 4.95 4.98 5.05 5.11 5.26
2768.607 5.41 5.5 5.56 5.74 5.96 6.1 6.2 6.38 6.74 7.06
2787.901 7.28 7.58 7.95 8.27 8.61 8.99 9.32 9.78 10.28 10.67
2807.194 11.08 11.66 12.33 12.85 13.48 14.29 15.1 15.98 16.94 17.96
2826.488 19.1 20.36 21.79 23.43 25.25 27.39 29.98 33.3 37.36 42.27
2845.781 48.48 56.47 66.41 78.33 92.37 108.03 123.76 137.7 148.06 153.59
2865.074 154.1 150.08 142.84 134.01 124.67 115.84 108.26 102.2 97.58 93.92
2884.368 90.93 88.5 86.71 85.67 85.8 87.42 90.55 94.91 100.65 107.8
2903.661 116.12 125.61 136.26 148.12 161.26 176.2 193.27 213.16 236.61 263.92
2922.955 295.37 329.49 363.23 392.93 414.83 425.73 424.65 413.11 393.17 367.11
2942.248 337.56 306.89 276.82 249.08 224.98 204.96 189.46 178.31 170.91 166.33
2961.542 163.47 161.22 158.31 153.58 146.06 135.86 123.76 110.67 97.92 86.64
2980.835 77.08 68.79 61.71 55.75 50.42 45.62 41.5 37.88 34.53 31.58
3000.128 28.94 26.54 24.28 22.22 20.57 19.18 17.92 16.87 16.02 15.21
3019.422 14.51 14 13.62 13.25 12.88 12.62 12.53 12.52 12.45 12.27
3038.715 12.24 12.36 12.49 12.32 11.72 10.95 9.98 9.08 8.28 7.69
3058.009 7.24 6.85 6.54 6.2 6.06 6.02 5.95 5.85 5.82 5.67
3077.302 5.5 5.45 5.33 5.17 4.93 4.91 5.01 4.92 4.96 4.97
3096.596 5.05 5.5 5.92 6.47 7.13 7.93 8.71 9.04 8.8 7.93
3115.889 6.55 5.2 4.28 3.74 3.37 3.06 2.79 2.5624 2.4023 2.3546
3135.182 2.1497 2.0554 2.137 1.9358 1.766 1.767 1.82642 1.7388 1.595 1.573
3154.476 1.574 1.371 1.383 1.396 1.306 1.429 1.409 1.433 1.489 1.331
3173.769 1.231 1.306 1.284 1.313 1.261 1.168 1.065 0.967 0.89 0.826
3193.063 0.819 0.873 0.852 0.77 0.802 0.76 0.75 0.62 0.57 0.51
3212.356 0.47 0.7 0.844 0.63 0.57 0.7 0.56 0.53 0.56 0.34
3231.650 0.22 0.23 0.26 0.36 0.51 0.47 0.38 0.35 0.24 0.26
3250.943 0.33 0.37 0.4 0.24 0.14 0.24 0.39 0.46 0.37 0.18
3270.236 0.04 0.19 0.24 0.06 0 0.12 0.08 0.09 0.14 0.17
3289.530 0.25 0.22 0.11 0.08 0.17 0.21 0.2 0.17 0.27 0.29
3308.823 0.21 0.11 0.06 0.11 0.2 0.26 0.26 0.26 0.18 0.2
3328.117 0.33 0.44 0.45 0.37 0.34 0.23 0.23 0.36 0.25 0.29
3347.410 0.39 0.34 0.39 0.35 0.39 0.55 0.58 0.56 0.52 0.46
3366.704 0.47 0.42 0.42 0.45 0.42 0.39 0.25 0.27 0.45 0.59
3385.997 0.6 0.53 0.49 0.43 0.34 0.24 0.15 0.18 0.28 0.4
3405.290 0.48 0.51 0.6 0.49 0.36 0.44 0.48 0.56 0.62 0.56
3424.584 0.62 0.54 0.46 0.51 0.63 0.806 0.801 0.68 0.68 0.791
3443.877 0.792 0.889 1.062 1.093 1.13 1.23 1.315 1.416 1.489 1.7234
3463.171 1.9306 2.0608 2.1379 2.1444 2.2318 2.2755 2.3013 2.1329 1.9304 1.7302
3482.464 1.403 1.313 1.157 0.873 0.77 0.79 0.944 0.813 0.58 0.49
3501.758 0.53 0.53 0.33 0.13 0.07 0.13 0.18 0.26 0.29 0.2
3521.051 0.17 0.19 0.15 0.11 0.16 0.16 0.08 0.09 0.15 0.25
3540.344 0.23 0.14 0.23 0.24 0.17 0.1 0.12 0.16 0.16 0.21
3559.638 0.24 0.28 0.36 0.32 0.31 0.29 0.19 0.13 0.02 0.15
3578.931 0.3 0.16 0.13 0.23 0.25 0.26 0.21 0.39 0.5 0.32
3598.225 0.34 0.41 0.47 0.45 0.4 0.45 0.4 0.28 0.32 0.42
3617.518 0.45 0.46 0.47 0.57 0.61 0.55 0.47 0.49 0.65 0.77
3636.812 0.59 0.56 0.72 0.62 0.52 0.58 0.64 0.65 0.72 0.63
3656.105 0.59 0.6 0.51 0.61 0.67 0.55 0.5 0.57 0.66 0.62
3675.398 0.53 0.52 0.55 0.58 0.65 0.65 0.58 0.64 0.66 0.51
3694.692 0.48 0.53 0.6 0.57 0.55 0.66 0.57 0.59 0.62 0.5
3713.985 0.62 0.63 0.6 0.7 0.6 0.53 0.66 0.7 0.63 0.55
3733.279 0.51 0.63 0.7 0.62 0.68 0.72 0.62 0.51 0.46 0.58
3752.572 0.62 0.55 0.58 0.56 0.51 0.63 0.75 0.787 0.78 0.782
3771.866 0.832 0.81 0.78 0.74 0.67 0.66 0.69 0.76 0.8 0.69
3791.159 0.6 0.67 0.73 0.67 0.62 0.6 0.7 0.788 0.74 0.72
3810.452 0.83 0.902 0.77 0.66 0.71 0.836 0.899 0.909 0.872 0.924
3829.746 0.987 0.927 0.834 0.7 0.64 0.76 0.852 0.812 0.77 0.69
3849.039 0.67 0.838 1.013 0.952 0.801 0.834 0.849 0.79 0.73 0.71
3868.333 0.791 0.784 0.821 0.856 0.803 0.77 0.68 0.69 0.803 0.799
3887.626 0.67 0.72 0.929 0.942 0.882 0.936 0.85 0.67 0.798 0.911
3906.920 0.878 0.936 0.994 0.998 0.893 0.856 0.874 0.829 0.76 0.877
3926.213 0.951 0.937 1.015 0.886 0.853 0.983 0.993 0.886 0.84 0.902
3945.506 0.991 1.09 1.109 1.07 1.133 1.126 0.959 0.943 0.99 1.043
3964.800 1.082 1.098 1.099 1.106 1.181 1.186 1.243 1.312 1.195 1.235
3984.093 1.309 1.306 1.419 1.458 1.362 1.247 1.16 1.235 1.317
##END=
