##TITLE=Leptophos
##JCAMP-DX=4.24
##DATA TYPE=INFRARED SPECTRUM
##ORIGIN=NIST Mass Spectrometry Data Center
##OWNER=NIST Standard Reference Data Program
Collection (C) 2018 copyright by the U.S. Secretary of Commerce
on behalf of the United States of America. All rights reserved.
##CAS REGISTRY NO=21609-90-5
##MOLFORM=C 13 H 10 Br Cl 2 O 2 P S
##$NIST SOURCE=MSDC-IR
##SPECTROMETER/DATA SYSTEM=HP-GC/MS/IRD
##STATE=gas
##XUNITS=1/CM
##YUNITS=ABSORBANCE
##XFACTOR=1.0
##YFACTOR=0.000001700
##DELTAX=4.0
##FIRSTX=550.0
##LASTX=3846.0
##FIRSTY=0.005085
##MAXX=3846
##MINX=550
##MAXY=0.017
##MINY=0
##NPOINTS=825
##XYDATA=(X++(Y..Y))
550.0 2991 2870 2332 2154 2428 3092 4030 5083 5481 4881
590.0 3933 3085 2169 1329 845 677 726 832 834 665
630.0 482 453 544 762 1226 1903 2360 2093 1450 1088
670.0 1075 1284 1645 2027 2371 2656 2447 1960 1761 1746
710.0 1966 2575 3241 3161 2259 1337 834 733 855 899
750.0 668 362 207 162 177 191 190 188 228 302
790.0 401 589 866 1201 1694 2450 3477 4821 6395 7761
830.0 7768 5882 3557 2126 1420 991 714 550 450 424
870.0 479 666 1014 1330 1401 1169 787 457 267 228
910.0 276 340 454 644 883 1296 2093 3622 6021 8171
950.0 7939 5476 3177 2015 1500 1184 917 638 402 263
990.0 192 155 120 109 118 92 36 29 53 76
1030.0 69 11 35 99 162 238 360 627 1054 1985
1070.0 3712 5533 5670 3814 1930 1114 917 985 1389 2343
1110.0 4094 5929 5954 4029 2169 1249 820 605 467 373
1150.0 348 324 294 264 274 310 376 507 685 814
1190.0 838 837 900 1066 1378 1846 2504 3521 4761 5615
1230.0 5798 5683 5723 5807 5676 5498 5595 5624 5122 4199
1270.0 3218 2389 1724 1213 885 711 634 630 669 688
1310.0 694 748 909 1203 1656 2375 3521 4509 4164 2737
1350.0 1581 1050 790 612 477 393 343 300 273 266
1390.0 266 281 314 358 401 451 540 663 844 1157
1430.0 1663 2499 3739 5224 6867 8599 10000 9929 7883 5282
1470.0 3614 2860 2563 2463 2271 1789 1183 743 508 397
1510.0 342 301 280 284 300 325 357 405 477 594
1550.0 728 806 754 689 748 888 938 806 593 452
1590.0 373 307 242 173 113 79 59 46 50 47
1630.0 41 47 45 51 69 85 89 86 83 89
1670.0 93 80 52 16 0 14 12 0 10 16
1710.0 20 25 46 73 80 87 96 100 101 96
1750.0 90 85 80 84 94 101 97 93 78 60
1790.0 44 45 64 81 99 117 121 110 73 52
1830.0 56 49 38 35 40 33 24 14 17 26
1870.0 24 25 37 58 68 81 89 84 81 90
1910.0 91 84 82 80 80 72 70 78 80 78
1950.0 88 94 89 87 92 96 90 74 50 41
1990.0 49 42 29 21 11 5 15 23 8 10
2030.0 18 20 22 15 13 18 15 21 28 31
2070.0 30 33 32 26 29 40 36 25 21 23
2110.0 25 34 38 37 39 44 58 60 68 76
2150.0 64 58 64 61 57 59 56 48 56 52
2190.0 43 49 34 29 40 45 48 42 45 53
2230.0 48 39 40 40 40 30 19 18 18 23
2270.0 21 20 33 53 53 53 57 46 40 48
2310.0 47 44 51 51 44 45 45 42 50 52
2350.0 42 46 39 30 35 36 35 45 37 33
2390.0 44 42 42 45 50 66 61 49 48 44
2430.0 52 55 53 51 58 53 50 53 55 61
2470.0 57 64 72 65 64 67 65 63 72 65
2510.0 43 52 56 58 75 67 53 37 27 50
2550.0 74 73 61 60 64 74 53 41 61 62
2590.0 55 52 53 36 25 26 39 45 45 33
2630.0 21 31 23 14 35 39 37 40 47 38
2670.0 22 43 55 55 59 53 61 69 46 46
2710.0 56 44 41 37 26 15 11 24 22 23
2750.0 32 31 24 33 37 48 59 60 70 73
2790.0 78 75 58 50 38 26 44 53 58 51
2830.0 51 74 81 89 105 118 135 123 103 91
2870.0 71 66 72 61 56 67 59 65 80 88
2910.0 80 82 98 122 148 207 331 544 762 743
2950.0 488 271 161 118 117 113 128 120 104 116
2990.0 128 122 123 134 162 188 190 213 249 240
3030.0 225 217 210 196 222 290 368 518 746 1009
3070.0 1153 1027 816 725 682 648 602 529 416 286
3110.0 199 168 156 147 145 138 115 129 158 143
3150.0 135 125 106 71 51 68 63 42 70 89
3190.0 85 89 82 63 44 55 49 31 46 70
3230.0 71 59 50 34 13 17 43 45 44 67
3270.0 84 92 78 81 95 91 57 75 124 92
3310.0 68 74 85 85 71 80 72 52 65 53
3350.0 43 77 80 59 68 90 99 74 50 85
3390.0 102 94 96 95 67 68 112 123 134 142
3430.0 117 112 119 129 106 76 88 91 79 85
3470.0 117 112 110 129 139 139 120 120 109 96
3510.0 114 124 119 129 145 138 154 144 101 105
3550.0 132 123 100 97 91 113 145 149 154 158
3590.0 137 115 104 117 122 129 162 169 138 128
3630.0 120 123 131 96 90 120 118 123 129 133
3670.0 125 124 137 123 133 156 133 112 96 93
3710.0 126 149 154 124 127 127 118 133 125 113
3750.0 120 114 110 117 127 152 136 114 120 118
3790.0 117 110 101 91 81 77 92 111 100 117
3830.0 135 145 144 146 126
##END=
