##TITLE=Diisopropyl cyanomethylphosphonate
##JCAMP-DX=4.24
##DATA TYPE=INFRARED SPECTRUM
##ORIGIN=EPA-IR VAPOR PHASE LIBRARY
##OWNER=SRD/NIST
Collection (C) 2018 copyright by the U.S. Secretary of Commerce
on behalf of the United States of America. All rights reserved.
##CAS REGISTRY NO=21658-95-7
##MOLFORM=C 8 H 16 N O 3 P
##SOURCE REFERENCE=No.314788 (NIST/EPA/NIH MS Database)
##$NIST SOURCE=MSDC-IR
##STATE=gas
##XUNITS=1/CM
##YUNITS=ABSORBANCE
##XFACTOR=1.
##YFACTOR=0.001
##DELTAX=1.92898
##FIRSTX=549.8
##LASTX=4000.7
##FIRSTY=10.22
##MAXX=4000.7
##MINX=549.759
##MAXY=0.19239
##MINY=0
##NPOINTS=1790
##XYDATA=(X++(Y..Y))
549.759 10.22 11.43 11.87 11.75 12.24 13.39 13.97 14.56 14.84 14.24
569.049 14.14 13.66 13.57 13.33 12.3 11.79 10.12 8.11 7.58 7.35
588.339 6.91 6.39 5.96 5 3.93 4.16 4.71 4.22 3.38 3.14
607.628 2.99 2.75 2.74 2.85 3.57 3.81 3.1 2.46 2.44 3
626.918 2.99 2.38 2.68 3.02 2.7 2.68 2.8 3.26 3.21 3.02
646.208 2.87 2.52 2.94 3.31 3.19 3.36 3.49 3.17 2.96 3.13
665.498 3.36 3.28 3.42 3.6 3.95 4.13 3.98 4.03 4.2 4.9
684.787 5 5.08 5.23 5.36 5.51 5.49 5.9 6.45 7.21 7.09
704.077 6.91 6.71 6.39 6.89 7.1 6.8 7.01 7.04 6.95 7.13
723.367 6.59 6.28 6.56 6.02 6.04 6.51 6.27 6.53 7.04 7.5
742.657 7.25 6.93 7.37 7.67 7.66 7.59 7.72 7.87 7.73 8.13
761.947 8.25 7.94 7.89 7.96 8.67 8.94 8.89 9.07 9.24 9.74
781.236 10.05 9.52 8.96 9.14 9.24 8.81 8.32 8.05 7.22 6.6
800.526 6.76 6.47 5.89 5.34 5.22 5.02 4.76 5.22 5.21 5.35
819.816 5.75 6.38 7.04 7.62 7.9 7.66 7.53 6.91 6.23 5.78
839.106 5.11 4.61 4.89 5.1 4.76 4.52 4.81 4.93 4.91 5.14
858.395 5.18 5.23 5.25 5.43 5.47 5.76 6.73 7.39 8.04 8.42
877.685 8.55 9.11 9.41 9.7 10.43 10.95 10.7 10.09 9.83 9.72
896.975 9.42 9.44 8.73 8.08 8.1 7.82 8.01 8.05 7.91 7.65
916.265 7.7 8.18 8.29 8.77 9.54 9.83 10.37 10.87 11.39 12.15
935.555 13.04 14.53 15.6 16.71 18.45 19.97 21.31 22.32 22.84 23.67
954.844 24.55 24.91 25.57 27 28.59 29.84 32.16 35.44 39.42 43.96
974.134 49.07 56.46 64.71 73.87 85.26 98.44 112.28 127.25 143.04 157.97
993.424 171.05 180.87 187.89 192.39 192.19 187.12 180.08 170.18 158.09 146.41
1012.714 134.71 124.69 115.5 104.57 93.47 83.34 73.7 64.55 56.13 48.94
1032.003 42.78 37.32 33.08 29.27 25.76 22.24 20.16 18.31 16.53 15.74
1051.293 14.92 14.41 13.08 12.12 12.48 11.11 10.06 10.46 9.06 8.3
1070.583 8.08 7.88 8.38 8.96 9.95 10.15 9.12 9.09 8.58 8.79
1089.873 11.39 12.98 13.59 14.89 15.81 17.98 20.49 20.52 23.11 27.35
1109.163 28.66 27.9 26.75 26.61 27.5 26.32 23.46 21.99 22.91 24.16
1128.452 24.72 24.99 24.97 23.69 22.68 23.63 23.49 22.35 21.98 21.45
1147.742 20.08 18.84 17.79 16.87 17.09 17.48 16.8 17.01 17.37 16.34
1167.032 15.97 16.21 16.42 17.04 16.97 16.1 15.25 13.66 12.28 11.48
1186.322 10.92 10.21 9.38 9.33 8.76 7.13 7.12 8.84 9.38 9.98
1205.611 10.12 9.73 9.51 10.91 13.55 15.14 15.62 15.82 15.73 16.31
1224.901 16.65 16.5 15.57 14.35 14.2 13.68 12.25 11.36 10.77 9.41
1244.191 8.37 8.61 8.9 8.42 8.05 8.8 9.28 9.16 10.08 11.34
1263.481 12.65 14.44 16.01 17.74 20.7 24.34 28.46 33.83 39.3 44.33
1282.771 48.82 52.39 55.34 56.28 54.7 51.25 46.46 41.37 36.42 31.38
1302.060 26.49 22.53 19.43 16.81 14.7 12.99 11.67 10.76 9.98 9.22
1321.350 8.59 8.04 7.63 7.32 7.26 7.24 7.04 6.89 7.08 7.51
1340.640 7.95 8.29 8.45 8.74 9.18 9.62 10.15 10.66 11.19 11.69
1359.930 11.89 11.95 12.2 12.38 12.58 13.05 13.61 14.48 15.58 16.49
1379.219 17.67 19.23 20.87 22.67 24.21 25 25.2 24.76 23.54 21.6
1398.509 19.29 16.76 14.32 12.27 10.45 9.02 7.92 6.94 5.96 5.38
1417.799 5.23 4.85 4.56 4.52 4.64 4.53 4.54 4.58 4.42 4.51
1437.089 4.72 4.87 4.93 5.14 5.43 5.65 5.77 6.04 6.44 6.68
1456.378 6.69 6.83 6.78 6.59 6.74 6.54 6.23 6.32 6.33 5.91
1475.668 5.57 5.24 4.82 4.67 4.54 3.91 3.54 3.59 3.44 3.27
1494.958 2.99 2.7 2.7 2.73 2.58 2.56 2.64 2.6 2.46 2.37
1514.248 2.1825 2.1735 2.4 2.38 2.42 2.5 2.2559 2.1733 2.1493 2.0329
1533.538 2.0443 2.1506 2.2416 1.9656 1.824 1.8004 1.6081 1.7621 2.0023 2.1166
1552.827 2.0629 1.9497 1.9817 1.925 2.1221 2.3 2.2175 1.9101 2.1481 2.2362
1572.117 1.8477 2.0487 2.33 2.175 1.9392 2.13 2.1951 2.0975 1.9241 1.9627
1591.407 2.0122 1.854 2.0903 2.1412 2.0973 2.1429 2.0198 2.1869 2.2598 2.1735
1610.697 2.2099 2.32 2.31 2.28 2.41 2.45 2.32 2.1207 2.013 2.0755
1629.986 2.36 2.52 2.44 2.46 2.44 2.38 2.57 2.46 2.39 2.5
1649.276 2.45 2.54 2.53 2.56 2.59 2.55 2.6 2.58 2.62 2.71
1668.566 2.67 2.73 2.64 2.72 2.98 2.99 2.98 2.78 2.63 2.88
1687.856 3.08 2.89 2.98 3.21 3.18 3 3.12 3.5 3.57 3.63
1707.146 3.54 3.45 3.44 3.46 3.47 3.58 3.57 3.35 3.29 3.36
1726.435 3.4 3.32 3.42 3.52 3.49 3.51 3.66 3.54 3.32 3.33
1745.725 3.29 3.19 3 2.97 3.08 3.1 3.08 3.09 3 3.05
1765.015 3.17 3.09 3.06 3.11 2.93 2.68 2.82 2.73 2.59 2.63
1784.305 2.68 2.72 2.62 2.49 2.47 2.47 2.45 2.59 2.33 2.2338
1803.594 2.43 2.41 2.34 2.2095 2.29 2.1493 1.9568 2.1085 2.1213 2.2365
1822.884 2.36 2.3 2.1406 2.1154 2.2308 2.0737 2.1755 2.41 2.31 2.34
1842.174 2.26 2.1586 2.2325 2.0807 2.1168 2.2349 2.2444 2.2299 2.1766 2.0726
1861.464 1.9638 1.9595 2.0601 2.235 2.2038 2.1145 2.159 2.1263 2.0295 2.1123
1880.754 2.2127 2.0767 2.0088 2.0303 2.0446 2.0465 2.0276 2.1508 2.0927 2.0111
1900.043 2.0707 2.0544 2.0009 1.9943 2.0814 1.8928 1.6474 1.7765 1.8872 1.7974
1919.333 1.7782 1.8187 1.8127 1.791 1.863 1.8261 1.8787 1.9805 1.8463 1.8912
1938.623 2.0198 1.9639 1.7215 1.6834 1.6957 1.5463 1.5811 1.6869 1.6625 1.7516
1957.913 1.8238 1.5625 1.5308 1.6047 1.5587 1.595 1.6001 1.5352 1.5305 1.6588
1977.202 1.6404 1.5442 1.5159 1.4093 1.4011 1.5581 1.5694 1.5206 1.6344 1.7026
1996.492 1.8759 1.9419 1.808 1.8303 1.9357 1.7772 1.5808 1.751 1.8125 1.882
2015.782 1.8903 1.7153 1.7193 1.8151 1.7962 1.738 1.7345 1.593 1.4421 1.4943
2035.072 1.5951 1.6386 1.7451 1.7398 1.5757 1.5985 1.7842 1.8745 1.6539 1.5372
2054.362 1.5222 1.5793 1.746 1.8232 1.6485 1.461 1.601 1.5545 1.5419 1.5844
2073.651 1.6528 1.7048 1.5762 1.5475 1.5943 1.5601 1.4681 1.4665 1.4217 1.4
2092.941 1.5841 1.644 1.6417 1.5564 1.4395 1.4865 1.5309 1.5387 1.4772 1.31262
2112.231 1.33363 1.5569 1.6165 1.6491 1.712 1.6295 1.5613 1.5249 1.3961 1.4457
2131.521 1.4847 1.5584 1.5211 1.43 1.5734 1.421 1.282 1.4151 1.483 1.4872
2150.810 1.4343 1.4155 1.4238 1.5185 1.693 1.687 1.5356 1.5164 1.5297 1.6107
2170.100 1.6387 1.6145 1.5039 1.31917 1.33317 1.2477 1.104 1.145 1.2015 1.34557
2189.390 1.4694 1.31004 1.4962 1.8598 1.7259 1.3708 1.3713 1.5027 1.5201 1.6282
2208.680 1.6017 1.4282 1.5062 1.6049 1.4415 1.4811 1.6983 1.6905 1.6211 1.7561
2227.970 1.9056 1.8374 1.7583 1.7177 1.8049 1.8735 1.9699 2.1237 2.218 2.28
2247.259 2.58 2.98 3.25 3.5 3.37 3.23 3.13 2.99 2.91 2.61
2266.549 2.37 2.1982 1.8546 1.7313 1.9062 2.0022 1.9136 1.8291 1.5926 1.335
2285.839 1.4481 1.721 1.7554 1.5865 1.605 1.7147 1.68 1.6092 1.7076 1.7747
2305.129 1.6536 1.547 1.6072 1.7062 1.4792 1.29876 1.5214 1.716 1.7118 1.6621
2324.418 1.727 1.7527 1.482 1.5448 1.6488 1.6037 1.7328 1.6706 1.3861 1.2202
2343.708 1.2486 1.2431 1.1693 1.148 1.30334 1.3813 1.3995 1.3776 1.33104 1.25975
2362.998 1.27835 1.31459 1.427 1.5844 1.4368 1.3641 1.429 1.3379 1.29042 1.4497
2382.288 1.5481 1.392 1.144 1.2356 1.4309 1.5331 1.5401 1.5011 1.6407 1.809
2401.578 1.7007 1.5215 1.483 1.64 1.8693 1.562 1.135 1.28084 1.4593 1.4454
2420.867 1.5426 1.54 1.623 1.5032 1.4807 1.5687 1.4174 1.5598 1.6829 1.5875
2440.157 1.4471 1.5809 1.5334 1.3828 1.6215 1.55 1.4213 1.3611 1.26107 1.4241
2459.447 1.3904 1.26944 1.33658 1.3775 1.2299 1.2609 1.4258 1.4462 1.6262 2.0211
2478.737 1.8481 1.33325 1.1698 1.27528 1.30875 1.35666 1.9153 1.9033 1.4724 1.3811
2498.026 1.3738 1.5285 1.7131 1.8038 1.8248 1.7171 1.807 1.6749 1.4485 1.4922
2517.316 1.3788 1.4435 1.5412 1.5789 1.6222 1.4568 1.2437 1.42 1.4602 1.30528
2536.606 1.5097 1.6506 1.4498 1.4734 1.6876 1.3792 1.30488 1.559 1.5143 1.343
2555.896 1.5258 1.6685 1.5688 1.669 1.7272 1.9046 1.7918 1.35779 1.2547 1.25467
2575.186 1.32683 1.34263 1.26758 1.4216 1.5364 1.6035 1.7057 1.6155 1.4302 1.4014
2594.475 1.4866 1.32949 1.28928 1.4512 1.591 1.715 1.5609 1.31542 1.2198 1.079
2613.765 1.27281 1.6157 1.5781 1.4594 1.5668 1.852 1.7515 1.7883 1.6896 1.4577
2633.055 1.889 1.9948 1.6365 1.4785 1.33457 1.4091 1.4234 1.4327 1.7167 1.8856
2652.345 1.6812 1.30382 1.35819 1.5594 1.6088 1.6143 1.7287 1.5475 1.35496 1.5142
2671.634 1.5168 1.35098 1.4159 1.5601 1.5996 1.674 1.82 1.8213 1.6522 1.4117
2690.924 1.4936 1.7025 1.66 1.3747 1.134 1.4528 1.507 1.5166 1.7581 1.8727
2710.214 1.6818 1.31804 1.2607 1.3137 1.4562 1.6103 1.6064 1.7367 1.8226 1.6903
2729.504 1.7536 1.8541 1.9603 1.9689 2.0555 2.1906 2.1111 1.7738 1.6651 2.0208
2748.794 1.9013 1.6898 1.957 2.0946 1.9498 1.6121 1.34888 1.5801 1.8079 1.7633
2768.083 1.8457 1.7887 1.5986 1.5378 1.5697 1.6906 1.8378 1.8694 1.8772 1.9689
2787.373 2.0291 1.8316 1.6237 1.9249 2.0404 2.1005 1.9318 1.8429 2.0924 2.1288
2806.663 1.8602 1.7812 1.8495 1.6005 1.4171 1.6161 2.0866 2.1554 2.0947 2.3
2825.953 2.2402 2.1895 2.2518 2.2306 2.57 2.53 2.2004 2.2334 2.47 2.49
2845.242 2.1796 2.0557 2.2396 2.47 2.65 2.58 2.57 2.83 2.69 2.44
2864.532 2.73 2.99 3.09 3.25 3.79 4.28 4.68 5.4 5.75 5.94
2883.822 6.24 6.05 5.63 5.6 5.8 6.07 6.1 5.7 5.56 5.73
2903.112 5.9 6.09 6.12 6.22 6.32 6.44 6.79 7.06 7.4 8.15
2922.401 8.42 8.42 8.86 9.82 11.06 12 12.99 13.98 15.04 15.71
2941.691 16.2 16.38 16.24 16.05 15.11 14.17 13.57 13.04 12.35 11.66
2960.981 11.46 11.31 11.97 13.01 13.75 14.84 16.72 19.31 22.21 25.44
2980.271 28.56 31.27 33.84 35.64 35.66 34.67 32.9 30.02 26.88 23.66
2999.561 20.73 18.2 15.26 12.9 11.15 9.48 8.45 7.79 6.78 6.13
3018.850 5.75 5.09 4.65 4.21 3.82 3.68 3.51 3.2 3.08 3.13
3038.140 2.94 2.7 2.49 2.38 2.54 2.43 2.0111 1.8642 2.033 2.2126
3057.430 2.37 2.1715 2.0609 2.29 2.1523 2.11 2.31 1.9435 1.198 1.131
3076.720 1.5168 1.7171 1.7866 1.7655 1.888 1.7904 1.641 1.34812 1.4271 2.1872
3096.009 2.82 2.44 1.3671 1.5501 1.8677 1.7805 1.738 1.6915 1.8363 1.9749
3115.299 1.9572 2.0371 2.1737 2.0396 1.7208 1.5428 1.4698 1.531 1.532 1.4591
3134.589 1.7184 1.9544 2.29 2.1529 1.4049 1.4375 2.218 2.46 2.0723 1.9352
3153.879 2.0254 1.9438 1.491 1.5624 2.0406 1.8258 1.4475 1.28562 1.4186 1.7045
3173.169 2.0695 2.0373 1.5965 1.6229 1.7841 2.0685 2.2473 1.7763 1.5222 1.5477
3192.458 1.7351 1.8143 1.9629 1.867 1.9315 2.2061 2.0109 2.27 2.41 1.8603
3211.748 1.5 1.5226 1.8261 1.9302 1.8692 1.6572 1.3805 1.095 1.29132 1.8731
3231.038 1.5481 1.5935 1.8007 1.4285 1.108 0.987 1.25756 1.8348 2.0146 1.9696
3250.328 1.8558 1.4824 1.3188 1.2487 1.1904 1.075 1.1939 1.5217 1.7278 2.2
3269.617 2.1765 1.5552 1.077 1.049 1.08 0.976 0.746 0.734 0.5 0.379
3288.907 0.983 1.4613 1.6373 1.1828 1.01 1.27439 1.156 0.902 1.025 1.412
3308.197 1.2477 0.96 0.981 1.2639 1.53 1.6742 2.0382 1.8033 1.5033 1.7362
3327.487 1.937 1.8769 1.26851 0.555 0.734 1.102 0.672 0.685 1.2305 1.158
3346.777 1.108 1.34629 1.16 1.112 1.34582 1.6555 1.6333 1.5893 1.6181 1.2372
3366.066 1.2279 1.34725 1.154 1.039 1.1717 1.30798 1.5802 1.35151 1.061 0.973
3385.356 1.3697 1.6129 0.872 0.33 0.615 1.6557 2.0793 1.914 1.4969 1.2135
3404.646 1.5442 1.7578 1.8643 1.8171 1.6297 1.1715 1.018 0.881 0.602 0.758
3423.936 0.868 1.114 1.4268 1.7402 1.6785 1.4749 1.5703 1.5293 1.6094 2.32
3443.225 2.1741 1.07 0.776 1.123 1.059 1.1656 1.4528 1.4958 1.29679 1.4694
3462.515 1.4959 1.102 1.2266 1.3678 1.7027 1.4144 1.085 1.5021 1.5301 1.32644
3481.805 1.117 0.996 1.27227 1.095 1.2262 1.4656 1.5954 1.7944 1.4082 1.27502
3501.095 1.3909 1.3416 1.7252 1.5788 1.3628 1.7106 1.6405 1.6536 1.4996 1.2068
3520.385 1.465 1.6815 1.4928 1.113 0.809 0.939 1.4625 1.8443 1.3101 0.897
3539.674 1.116 1.26527 1.5449 1.7544 1.2144 0.988 1.127 1.074 1.30472 1.33208
3558.964 1.157 1.2228 1.038 1.1602 1.105 0.959 1.082 1.023 1.047 1.1702
3578.254 1.2276 1.2312 1.32344 1.32811 1.063 1.2971 1.5948 1.28618 1.13 1.141
3597.544 1.3882 1.7377 1.6839 1.4114 0.989 0.797 1.3636 1.26908 0.708 1.2217
3616.833 2.0255 1.6233 1.30302 1.5288 1.31864 1.051 1.5434 1.6896 1.5311 1.9931
3636.123 2.1244 1.5491 1.28573 1.132 1.25288 1.86 1.5551 1.5378 1.9429 1.8639
3655.413 1.8344 1.8334 1.6178 1.3084 1.33338 1.5175 1.15 0.759 1.058 1.419
3674.703 0.937 1.13 1.125 1.009 1.3606 1.102 0.854 0.543 0.67 0.961
3693.993 1.06 1.132 1.1715 0.543 0.19 0.788 1.091 1.3731 1.7765 1.6678
3713.282 1.4034 1.011 1.4651 1.6163 0.962 1.3789 1.4511 1.1657 1.08 0.847
3732.572 1.024 1.3971 1.6128 1.049 0.775 0.916 0.714 1.35297 1.6971 1.4592
3751.862 1.1615 1.108 1.1804 1.2587 1.104 1.067 1.1768 0.724 0.91 1.27312
3771.152 1.155 1.1 1.1756 1.35404 1.6584 2.0366 1.8554 1.6215 1.3709 1.3697
3790.441 1.5501 1.1821 1.36 1.6818 1.155 0.713 0.769 0.679 0.589 0.566
3809.731 0.825 0.759 0.616 0.407 0 0.334 0.595 1.2194 1.5689 1.4499
3829.021 0.991 0.884 1.1858 0.97 1.082 0.836 0.979 1.431 1.7 1.8898
3848.311 1.8052 1.5648 1.068 1.4695 1.8581 0.972 0.871 1.6234 1.4581 1.25339
3867.601 1.25029 1.30503 1.21 1.133 1.001 0.931 0.744 0.508 0.999 1.3648
3886.890 1.4481 1.047 1.223 1.32831 1.096 1.28831 1.012 0.752 0.916 1.4383
3906.180 1.4098 1.26942 1.7206 1.4815 1.124 1.386 1.6223 1.33939 1.2387 1.5348
3925.470 1.6985 1.7394 2.0293 2.07 1.7422 1.31189 0.999 1.28333 1.7707 1.7481
3944.760 1.5671 1.25687 1.30836 1.9728 1.7343 1.7869 1.9903 1.3489 1.2142 1.4091
3964.049 1.7251 1.431 1.008 1.4781 1.5011 1.6453 2.1329 2.027 1.9854 2.244
3983.339 2.1843 2.0402 1.706 1.6179 1.8321 1.9389 1.6243 1.35532 1.4429 1.673
##END=
