##TITLE=3-Chlorobenzoylacetonitrile
##JCAMP-DX=4.24
##DATA TYPE=INFRARED SPECTRUM
##ORIGIN=EPA-IR VAPOR PHASE LIBRARY
##OWNER=SRD/NIST
Collection (C) 2018 copyright by the U.S. Secretary of Commerce
on behalf of the United States of America. All rights reserved.
##CAS REGISTRY NO=21667-62-9
##MOLFORM=C 9 H 6 Cl N O
##$NIST SOURCE=MSDC-IR
##STATE=gas
##XUNITS=1/CM
##YUNITS=ABSORBANCE
##XFACTOR=1.
##YFACTOR=0.001
##DELTAX=1.92898
##FIRSTX=549.8
##LASTX=4000.7
##FIRSTY=2.63
##MAXX=4000.7
##MINX=549.759
##MAXY=0.05372
##MINY=0
##NPOINTS=1790
##XYDATA=(X++(Y..Y))
549.759 2.63 3.25 3.4 2.78 2.71 3.16 4.01 4.77 4.63 4.29
569.049 4.87 5.24 4.83 5.88 6.16 5.69 6.36 6.22 5.33 4.6
588.339 4.33 3.95 3.43 3.33 3.54 3.38 3.15 3.76 4.18 3.86
607.628 3.76 3.37 3.17 3.44 3.23 3 3.07 3.59 3.49 2.76
626.918 2.8 2.86 2.73 2.7 2.8 3.1 2.82 2.74 3.61 3.84
646.208 3.1 3.18 4 4.49 4.38 4.11 4.25 5.42 6.53 7.1
665.498 7.29 7.91 9.07 9.6 10.61 11.46 11.78 11.95 11.16 10.36
684.787 9.66 9.71 9.83 9.24 9.43 9.76 9.75 9.43 8.93 8.6
704.077 8.97 9.89 9.87 9.96 10.1 10.65 11.71 11.98 12.62 13.04
723.367 12.94 12.94 12.43 12.1 11.69 10.77 10.13 9.17 8.39 7.65
742.657 7.34 6.41 5.18 5.11 5.66 5.77 5.35 4.66 4.54 5.14
761.947 5.54 6.47 7.07 7.3 7.86 8.19 9.1 10.65 11.41 12.35
781.236 13.24 12.97 12.26 12.28 12.7 13.14 13.53 12.79 11.8 11.38
800.526 11.08 10.8 9.83 8.38 7.83 7.42 6.68 6.01 4.97 5.27
819.816 5.45 4.03 3.47 3.47 3.28 3.6 3.87 3.27 2.82 2.91
839.106 3 2.59 2.53 2.98 2.74 2.76 2.93 2.69 3 3.06
858.395 3.03 3.34 2.62 2.55 3.7 3.91 3.52 3.5 3.68 4.16
877.685 4.55 4.03 3.46 3.42 4.21 4.3 3.36 3.51 4.16 4.45
896.975 4.33 4.25 4.37 4.75 4.7 4.09 3.59 3.54 3.97 4.14
916.265 4.21 4.34 3.86 3.87 4.64 4.77 4.55 4.59 4.9 5.03
935.555 4.57 4.55 4.64 4.22 3.94 3.96 3.75 3.39 3.26 3.01
954.844 2.77 2.4608 2.2362 2.2625 2.1563 2.2071 2.3004 2.137 2.2791 2.73
974.134 2.3601 2.3446 2.84 2.3544 2.0457 2.0798 2.2253 2.94 3 2.54
993.424 3.12 3.67 3.7 3.98 4.36 5 4.96 4.19 4.55 5.35
1012.714 5.53 6.49 7.47 6.79 6.36 6.52 7.62 9 8.91 8.52
1032.003 8.18 8.19 8.17 8.35 7.85 6.54 5.26 4.9 5.34 4.9
1051.293 4.75 4.46 4.14 3.72 3.7 4.1 4.11 4.15 5.41 5.73
1070.583 4.95 5.52 6.83 7.09 8.23 9.08 8.33 8.77 8.45 8.27
1089.873 7.93 6.65 6.6 7.94 8.32 7.59 8.21 9.18 9.57 8.9
1109.163 7.35 8.43 8.27 6.99 7.02 6.66 7.08 6.66 5.08 4.39
1128.452 5.25 6.82 6.85 6.66 6.94 6.39 6.31 6.67 6.79 7.03
1147.742 7.06 6.97 6.75 7.66 7.97 7.18 8.09 9.04 10.04 11.14
1167.032 11.48 13.32 15.79 17.61 18.54 18.39 17.3 16.25 15.69 15.48
1186.322 15.2 14.66 14.02 14.5 17.01 18.51 19.42 21.09 21.69 22.71
1205.611 25.57 25.53 24.96 25.88 24.11 21.93 20.1 18.25 18.17 17.94
1224.901 18.66 20.44 20.4 20.36 20.18 20.02 21.59 24.22 25.22 26.06
1244.191 28.44 31.08 34.81 37.9 40.33 41.47 41.73 41.04 38.84 36.55
1263.481 33.97 30.79 27.68 25.11 23.28 22.64 21.81 20.7 19.95 18.71
1282.771 17.58 16.99 15.86 14.25 12.66 11.66 11.12 10.55 10.16 10.15
1302.060 10.2 10.55 10.85 10.77 10.71 10.96 11.34 11.43 11.44 11.56
1321.350 11.37 10.91 10.44 9.78 8.95 8.04 7.06 6.42 5.83 5.35
1340.640 5.09 4.78 4.62 4.4 4.11 3.91 3.74 3.52 3.51 3.6
1359.930 3.6 3.49 3.42 3.52 3.41 3.2 3.25 3.4 3.59 3.72
1379.219 3.69 3.68 3.71 3.8 4.03 4.4 4.55 4.74 5.09 5.64
1398.509 6.34 7.11 8.03 9.17 10.51 11.71 13.05 14.72 16.31 17.52
1417.799 18.43 19.07 19.06 18.23 16.55 14.68 12.96 11.12 9.18 7.68
1437.089 6.7 6.02 5.46 5.05 4.82 4.53 4.23 4.32 4.68 4.82
1456.378 4.79 4.7 4.99 5.39 5.65 6.29 7.05 7.39 7.64 7.68
1475.668 7.49 7.22 6.78 6.25 5.53 4.79 4.37 4.09 3.77 3.58
1494.958 3.47 3.2 3.03 2.74 2.65 2.92 2.87 2.86 2.83 2.84
1514.248 2.74 2.4114 2.5252 2.7 2.81 2.79 2.79 3.03 3.04 3.09
1533.538 3.21 3.26 3.46 3.66 3.79 3.95 4.29 4.7 5 5.75
1552.827 6.42 7.2 8.26 9.13 10.18 11.21 12.14 12.71 13 13.59
1572.117 13.78 13.68 13.48 12.57 11.54 10.7 10.01 9.19 8.37 8.05
1591.407 7.72 7.13 6.7 6.24 5.84 5.6 5.14 4.69 4.32 3.98
1610.697 3.81 3.93 3.96 3.68 3.83 3.9 3.77 4.02 3.86 3.57
1629.986 3.52 3.42 3.38 3.31 3.33 3.16 2.87 2.73 2.86 2.89
1649.276 2.86 3.17 3.54 3.76 3.68 3.43 3.58 3.91 4.02 4.08
1668.566 4.02 4.56 5.28 5.5 5.8 6.18 6.48 6.92 7.57 7.92
1687.856 8.48 9.48 10.43 11.58 13.39 15.71 18.63 22.08 25.84 30.49
1707.146 35.53 40.79 45.7 49.6 52.27 53.72 53.65 52.02 48.42 43.26
1726.435 37.77 32.67 27.85 23.5 19.33 15.87 13.56 12.14 10.92 9.81
1745.725 9.12 8.36 7.65 7.2 6.89 6.53 6.18 5.89 5.56 5.33
1765.015 4.9 4.5 4.37 4.27 3.92 3.61 3.42 3.27 3.38 3.39
1784.305 3.23 3.09 2.92 2.93 3.11 3.24 3.26 3.37 3.15 2.92
1803.594 2.98 2.83 2.68 2.6 2.76 2.89 2.85 2.72 2.5205 2.4718
1822.884 2.58 2.74 2.64 2.6 2.71 2.67 2.67 2.5214 2.3485 2.3594
1842.174 2.3945 2.3511 2.3278 2.4096 2.3964 2.3004 2.2799 2.3389 2.4277 2.5087
1861.464 2.59 2.83 2.86 2.69 2.55 2.4618 2.5208 2.5206 2.4022 2.421
1880.754 2.4893 2.2981 2.0761 2.171 2.2724 2.3197 2.4574 2.3645 2.2196 2.1009
1900.043 2.127 2.1694 2.0535 2.097 2.0222 1.8718 2.0058 2.1282 2.0482 1.9577
1919.333 1.9339 2.0227 1.8997 1.8311 1.9278 1.7732 1.7675 2.0491 2.2245 2.0582
1938.623 1.9473 2.0267 2.1433 2.0684 2.0135 2.2665 2.2754 2.1542 2.1772 2.094
1957.913 1.926 1.8652 1.8254 1.8389 1.6904 1.4852 1.6439 1.7752 1.7796 1.7533
1977.202 1.62462 1.54444 1.60515 1.58455 1.4898 1.418 1.309 1.269 1.256 1.438
1996.492 1.6508 1.6659 1.33 1.101 1.419 1.7627 1.55932 1.377 1.5 1.5153
2015.782 1.57982 1.7618 1.8693 1.8284 1.6359 1.389 1.394 1.317 1.198 1.306
2035.072 1.395 1.4786 1.4436 1.4326 1.429 1.276 1.287 1.4786 1.55641 1.6655
2054.362 1.62349 1.53323 1.5136 1.311 1.286 1.417 1.413 1.258 1.309 1.4372
2073.651 1.4569 1.54618 1.6838 1.61079 1.56461 1.54889 1.4351 1.406 1.5564 1.6809
2092.941 1.62741 1.4861 1.304 1.355 1.4828 1.5576 1.5112 1.4965 1.62064 1.58483
2112.231 1.336 1.309 1.4948 1.56161 1.4996 1.368 1.426 1.492 1.419 1.334
2131.521 1.323 1.387 1.214 0.991 1.239 1.409 1.328 1.388 1.37 1.238
2150.810 1.189 1.132 1.048 1.143 1.091 1.181 1.244 1.317 1.424 1.215
2170.100 1.069 1.162 1.386 1.4421 1.374 1.343 1.419 1.328 1.237 1.321
2189.390 1.375 1.263 1.195 1.32 1.333 1.251 1.371 1.4763 1.6477 1.6668
2208.680 1.6798 1.7921 1.744 1.8752 1.7509 1.4773 1.4391 1.4524 1.54747 1.386
2227.970 1.147 1.193 1.116 1.366 1.54564 1.439 1.52091 1.5078 1.4941 1.486
2247.259 1.7492 1.9928 1.9465 1.7925 1.669 1.6655 1.7457 1.8212 1.8255 1.7153
2266.549 1.458 1.395 1.36 1.4671 1.56178 1.41 1.415 1.4769 1.285 1.111
2285.839 1.068 1.131 1.321 1.333 1.307 1.227 1.062 1.128 1.4461 1.41
2305.129 1.122 0.932 0.912 1.129 1.289 1.323 1.284 1.32 1.409 1.243
2324.418 1.062 1.311 1.6494 1.4556 1.229 1.177 1.08 1.186 1.137 1.155
2343.708 1.197 1.027 0.974 1.067 1.215 1.253 1.369 1.733 1.6949 1.429
2362.998 1.5144 1.53775 1.415 1.4518 1.402 1.076 0.911 0.964 0.989 1.105
2382.288 1.192 1.29 1.387 1.423 1.268 1.364 1.5081 1.234 1.338 1.38
2401.578 1.4739 1.57948 1.356 1.402 1.348 1.067 1.202 1.261 1.003 0.891
2420.867 0.815 0.929 1.427 1.53954 1.4703 1.5139 1.367 1.382 1.226 1.311
2440.157 1.4387 1.406 1.348 1.138 1.056 0.938 1.131 1.033 0.755 0.987
2459.447 1.083 1.177 1.361 1.068 0.81 0.837 0.884 1.154 1.257 1.059
2478.737 1.017 1.034 0.879 0.891 0.957 1.053 1.306 1.423 1.382 1.425
2498.026 1.4982 1.4611 1.383 1.302 1.098 1.103 1.225 0.9 1.035 1.412
2517.316 1.401 1.411 1.5138 1.59256 1.4527 1.341 1.328 1.184 1.048 1.157
2536.606 1.19 1.077 1.115 1.4 1.4865 1.296 1.107 1.244 1.331 1.17
2555.896 1.221 1.18 0.919 0.866 0.967 1.127 1.289 1.197 1.077 1.227
2575.186 1.28 1.424 1.4669 1.205 1.068 1.038 1.21 1.262 1.394 1.398
2594.475 1.122 1.093 1.303 1.4443 1.306 1.035 1.211 1.335 1.054 0.886
2613.765 1.077 1.399 1.29 1.035 1.094 0.962 0.752 0.816 0.713 0.675
2633.055 0.827 0.916 1.089 1.318 1.074 0.894 0.766 0.774 0.967 0.95
2652.345 1.02 1.084 0.874 0.633 0.686 0.61 0.786 1.055 1.026 0.96
2671.634 0.728 0.699 1.298 1.56526 1.149 0.952 0.932 0.976 1.018 0.808
2690.924 0.877 1.153 1.001 0.872 0.942 1.108 0.916 0.704 0.983 0.905
2710.214 1.071 1.332 1.105 0.967 1.129 1.104 0.982 1.17 1.247 1.113
2729.504 0.856 0.927 1.236 0.925 0.689 0.73 0.77 1.188 1.307 0.954
2748.794 0.93 1.091 0.869 0.719 0.813 0.844 0.917 0.977 0.938 1.118
2768.083 1.332 1.295 1.237 0.862 0.727 0.846 0.725 0.627 0.733 0.814
2787.373 0.739 0.821 0.893 0.792 0.862 1.141 1.037 0.938 0.556 0.647
2806.663 1.197 0.824 0.946 1.083 1.057 1.159 1.033 1.051 1.244 1.383
2825.953 1.102 0.873 0.849 0.865 0.915 1.317 1.4 0.838 0.617 0.864
2845.242 1.223 1.255 1.012 0.85 0.828 1.046 0.974 0.924 0.923 0.618
2864.532 0.647 0.965 0.965 0.815 0.49 0.572 0.965 0.983 0.868 0.735
2883.822 0.907 1.184 1.344 1.244 0.833 1.083 1.001 0.629 0.861 1.006
2903.112 1.034 1.034 1.199 1.057 0.824 0.7 0.736 0.546 0.59 0.818
2922.401 0.833 1.078 1.419 1.452 1.6588 1.7267 1.5436 1.357 0.945 1.3
2941.691 1.7707 1.62515 1.345 1.247 0.978 0.987 1.4963 1.355 1.141 0.874
2960.981 0.628 0.819 1.07 1.267 0.933 0.53 0.43 0.691 1.085 1.4727
2980.271 1.272 0.828 0.689 0.843 1.068 0.88 0.961 1.168 1.119 0.792
2999.561 0.36 0.677 1.383 1.4311 1.146 1.041 1.241 1.057 1.272 1.7701
3018.850 1.53443 1.342 1.316 1.097 1.155 1.415 1.52949 2.051 2.0093 1.7731
3038.140 1.6568 1.416 1.4936 1.4408 1.321 1.652 1.8711 1.5637 1.344 1.208
3057.430 1.411 1.739 2.0941 2.4477 2.54 3.24 3.37 3.16 3.8 3.85
3076.720 3.9 4.55 4.78 4.62 4.36 3.96 3.22 3.05 3.12 2.72
3096.009 2.56 2.2896 2.0702 2.1954 1.906 1.4929 1.56165 1.397 1.7429 2.1248
3115.299 1.61501 1.224 1.411 1.60214 1.60758 1.55378 1.25 0.834 0.88 1.335
3134.589 1.452 1.292 0.958 0.709 0.846 0.831 0.678 0.65 0.664 1.161
3153.879 1.294 1.1 1.134 1.036 0.993 1.271 1.213 1.08 1.291 0.871
3173.169 0.545 0.853 1.191 1.4473 0.949 0.596 0.591 0.736 1.34 1.61152
3192.458 1.321 1.074 0.935 0.713 0.75 0.653 0.53 0.809 1.07 1.345
3211.748 1.8589 1.59955 1.125 1.065 1.005 0.872 0.723 0.906 0.986 0.97
3231.038 1.074 0.922 0.829 0.44 0 0.551 0.671 0.802 1.061 0.871
3250.328 0.753 0.957 1.6443 1.54286 1.254 1.326 1.086 0.963 1.099 0.971
3269.617 0.687 1.002 1.046 0.832 0.982 0.954 0.923 1.015 1.174 0.911
3288.907 0.896 1.074 0.977 0.8 1.075 1.392 1.6904 1.876 1.317 1.405
3308.197 1.4972 1.076 1.255 1.253 1.294 1.663 1.56616 1.314 1.39 1.002
3327.487 0.87 1.4495 1.7397 1.54101 1.323 1.227 0.916 0.37 0.596 0.839
3346.777 0.545 0.672 0.938 1.54777 1.259 0.627 0.744 0.824 1.135 1.54559
3366.066 1.266 1.372 1.41 0.916 0.992 1.171 1.256 1.059 0.792 1.148
3385.356 1.437 1.4853 1.4626 1.56702 1.57667 1.4705 1.423 1.6454 1.53414 1.372
3404.646 1.349 1.7535 2.465 2.3433 1.6389 1.284 1.9102 2.19 1.7248 1.7424
3423.936 2.2043 1.9218 1.365 0.858 1.02 1.181 1.261 1.7229 1.659 1.4498
3443.225 1.373 1.6472 2.1412 1.8766 1.53044 1.8075 1.6966 1.08 0.89 0.852
3462.515 0.842 1.194 0.905 0.738 1.191 1.6854 1.9081 1.53704 1.207 1.308
3481.805 1.4365 1.4987 1.3 1.352 1.676 1.8611 1.4882 0.936 1.082 1.125
3501.095 1.236 1.369 1.294 1.073 0.969 1.288 1.4571 1.295 1.285 1.286
3520.385 1.196 1.128 0.97 0.779 0.54 0.867 1.031 1.088 1.282 1.205
3539.674 1.6195 2.3982 2.1445 1.6696 2.0385 2.3022 2.1028 1.7898 1.7888 1.8086
3558.964 1.8397 1.8614 1.8982 1.7672 1.9203 1.288 0.919 1.56165 1.5065 1.283
3578.254 1.337 0.967 0.906 1.335 1.359 1.7991 1.8707 1.218 0.929 1.134
3597.544 0.5 0.16 0.815 1.023 0.966 0.815 0.711 1.175 1.787 1.4488
3616.833 0.977 0.694 0.32 1.075 1.4488 1.336 1.8498 1.423 0.961 1.088
3636.123 1.355 1.321 1.292 1.152 0.636 0.624 1.302 1.181 0.744 0.881
3655.413 1.384 1.62864 1.147 1.001 0.869 1.077 1.307 0.863 0.851 0.831
3674.703 0.688 0.773 0.579 0.49 0.678 0.9 1.194 1.401 1.5057 1.273
3693.993 0.823 0.991 1.241 1.065 0.738 0.716 1.055 0.83 0.949 1.146
3713.282 0.809 1.209 1.39 1.418 1.318 1.241 1.249 1.244 1.361 1.313
3732.572 1.54489 1.4773 0.86 0.35 0.33 0.832 1.55716 1.74 1.55854 1.397
3751.862 1.59533 1.053 0.652 1.4376 1.374 0.832 1.202 1.6272 1.415 0.949
3771.152 0.985 1.5166 1.60185 1.211 0.852 0.547 0.968 1.308 0.881 0.954
3790.441 0.743 0.45 0.785 0.951 0.917 1.296 1.378 1.284 1.6691 1.60258
3809.731 1.082 0.94 1.008 1.55221 1.398 0.807 1.013 0.831 0.874 0.996
3829.021 0.37 0.2 0.21 0.25 0.539 0.557 0.862 1.319 1.406 1.287
3848.311 0.685 0.87 1.017 0.38 0.36 0.88 0.727 0.12 0.694 1.007
3867.601 0.996 0.917 0.712 1.231 1.207 0 0 0.566 0.815 0.972
3886.890 1.184 1.234 1.007 1.149 1.167 1.255 1.411 1.058 0.33 0.721
3906.180 1.262 0.84 0.533 0.666 1.399 1.4416 0.899 1.291 1.8203 0.877
3925.470 0.12 0.5 0.556 0.992 1.35 1.223 1.196 0.967 0.957 1.066
3944.760 1.096 1.317 1.012 1.077 1.319 1.52779 1.6431 0.994 0.639 0.733
3964.049 0.6 0.768 1.117 0.939 1.316 1.4929 1.067 1.005 1.295 1.396
3983.339 0.968 0.755 0.849 0.878 0.944 0.857 0.982 0.617 0.01 0.05
##END=
