##TITLE=3,4-Dimethoxyphenethyl isothiocyanate
##JCAMP-DX=4.24
##DATA TYPE=INFRARED SPECTRUM
##ORIGIN=EPA-IR VAPOR PHASE LIBRARY
##OWNER=SRD/NIST
Collection (C) 2018 copyright by the U.S. Secretary of Commerce
on behalf of the United States of America. All rights reserved.
##CAS REGISTRY NO=21714-25-0
##MOLFORM=C 11 H 13 N O 2 S
##$NIST SOURCE=MSDC-IR
##STATE=gas
##XUNITS=1/CM
##YUNITS=ABSORBANCE
##XFACTOR=1.
##YFACTOR=0.001
##DELTAX=1.92898
##FIRSTX=549.8
##LASTX=4000.7
##FIRSTY=4.136
##MAXX=4000.7
##MINX=549.759
##MAXY=0.085026
##MINY=0
##NPOINTS=1790
##XYDATA=(X++(Y..Y))
549.759 4.136 3.496 3.046 3.186 3.456 3.266 3.096 3.496 3.666 2.746
569.049 2.286 2.796 2.506 3.166 3.646 3.116 3.536 3.696 2.846 3.206
588.339 3.306 2.706 2.746 2.686 2.566 2.506 2.376 3.026 3.376 2.576
607.628 2.176 2.306 2.216 2.226 2.356 2.006 2.656 3.256 2.696 2.646
626.918 3.036 3.276 2.866 2.386 2.216 2.966 3.356 3.446 3.246 2.466
646.208 2.766 3.026 3.086 2.606 2.186 2.506 2.776 2.656 2.386 2.406
665.498 2.106 1.936 2.086 1.886 1.716 1.726 1.576 1.776 2.016 2.086
684.787 2.106 2.346 2.266 1.866 2.026 2.376 2.186 2.106 2.806 3.006
704.077 2.346 1.526 1.606 1.516 1.426 1.976 1.646 1.3351 1.356 1.1731
723.367 1.2814 1.516 1.2537 1.1825 1.346 1.3188 1.496 1.556 1.776 1.936
742.657 1.916 2.036 2.436 2.876 2.926 2.886 3.056 3.416 3.456 3.466
761.947 3.746 3.816 4.026 3.896 3.366 3.156 3.146 3.226 2.816 2.676
781.236 2.546 2.396 2.676 2.806 3.036 3.196 3.226 3.166 3.456 3.906
800.526 4.006 3.846 3.896 4.596 5.006 4.556 4.186 4.276 4.456 4.426
819.816 3.956 3.956 3.356 2.596 2.836 2.706 2.346 2.216 2.026 1.886
839.106 1.736 1.846 2.106 2.276 2.356 2.026 1.936 2.266 2.236 2.036
858.395 2.296 2.396 1.956 1.846 2.426 2.886 3.166 2.706 1.996 1.946
877.685 1.876 1.896 2.296 2.536 2.646 2.566 2.776 3.136 3.346 3.126
896.975 2.816 2.806 3.236 3.716 3.266 3.136 3.256 3.066 2.866 3.086
916.265 3.026 2.996 3.206 3.086 3.336 3.326 2.826 2.846 3.036 2.956
935.555 2.616 2.436 2.926 2.696 2.186 2.546 2.876 2.926 2.646 2.416
954.844 2.176 2.176 2.206 2.396 3.266 3.206 2.976 3.196 3.306 3.446
974.134 3.426 3.256 3.106 3.156 3.086 3.056 3.836 4.326 4.086 4.506
993.424 5.246 5.766 5.316 5.476 6.576 6.956 7.566 8.466 9.566 11.566
1012.714 13.426 13.736 14.606 16.416 17.776 18.526 19.396 19.886 19.746 20.786
1032.003 20.946 20.056 20.296 20.206 18.526 17.446 15.976 13.926 12.436 10.626
1051.293 8.956 7.096 6.186 5.986 5.276 4.746 5.076 5.896 5.336 4.436
1070.583 3.976 3.666 4.196 4.076 3.556 3.366 3.246 3.546 4.096 3.896
1089.873 3.536 4.346 4.466 3.806 4.006 3.576 2.726 3.366 4.756 5.866
1109.163 6.166 6.466 7.356 8.906 10.466 11.276 12.176 12.606 13.856 14.696
1128.452 14.686 15.016 15.846 16.596 15.786 14.766 14.836 13.976 13.446 14.006
1147.742 13.816 14.256 14.166 14.116 13.866 13.026 12.206 11.146 10.586 10.346
1167.032 9.686 8.746 8.596 7.676 6.836 6.836 6.246 6.546 6.116 5.306
1186.322 5.266 5.916 6.576 6.426 6.376 6.396 6.186 6.646 6.716 6.836
1205.611 7.056 6.866 7.686 7.716 8.176 9.286 10.446 12.656 14.346 15.576
1224.901 16.386 18.136 20.426 20.236 20.146 21.646 22.726 22.616 22.566 22.796
1244.191 22.896 22.926 23.186 23.646 23.886 24.456 24.976 26.566 29.266 31.516
1263.481 34.266 37.456 39.856 41.546 42.416 42.806 42.646 41.466 39.846 37.756
1282.771 35.736 33.866 31.726 29.446 27.016 24.796 22.766 20.916 19.216 17.466
1302.060 15.996 14.846 13.766 12.576 11.576 10.916 10.336 9.836 9.516 9.456
1321.350 9.386 9.306 9.496 9.806 10.196 10.726 11.446 12.116 12.886 13.946
1340.640 15.146 16.296 17.176 17.716 17.726 17.306 16.346 14.966 13.316 11.426
1359.930 9.786 8.396 7.276 6.406 5.576 4.966 4.576 4.196 3.856 3.746
1379.219 3.616 3.566 3.586 3.426 3.326 3.396 3.516 3.626 3.876 4.196
1398.509 4.426 4.846 5.326 5.946 6.886 7.746 8.466 9.266 9.846 9.956
1417.799 9.926 9.656 9.096 8.526 8.006 7.576 7.416 7.586 7.876 8.356
1437.089 9.286 10.346 11.156 11.736 12.216 12.586 12.966 13.546 13.986 14.436
1456.378 15.036 15.586 16.126 16.326 16.206 15.816 14.896 13.746 12.576 11.666
1475.668 11.006 10.226 9.706 9.646 9.656 9.936 10.586 11.346 12.596 14.486
1494.958 16.796 19.816 23.456 27.646 32.096 36.556 40.686 43.826 45.506 45.326
1514.248 42.986 38.896 33.936 28.346 22.896 18.346 14.796 12.216 10.196 8.646
1533.538 7.546 6.546 5.766 5.176 4.826 4.476 4.136 3.976 3.936 3.856
1552.827 3.616 3.596 3.676 3.686 3.666 3.846 3.996 4.046 4.336 4.656
1572.117 4.886 5.126 5.496 5.966 6.286 6.336 6.256 6.446 6.486 6.126
1591.407 6.026 5.826 5.496 5.396 5.296 5.226 5.246 5.396 5.276 4.876
1610.697 4.776 4.596 4.106 3.576 3.186 2.976 2.656 2.356 2.356 2.096
1629.986 1.646 1.686 1.776 1.716 1.546 1.3305 1.2479 1.2507 1.2294 1.084
1649.276 1.0219 0.9783 0.8512 0.9055 1.0964 1.2071 1.127 1.0024 1.171 1.3083
1668.566 1.0147 0.7747 0.914 0.9604 1.0293 1.0919 1.0344 0.9342 0.8591 0.9865
1687.856 1.0308 1.0346 0.9261 0.7284 0.7176 0.8974 0.9373 0.8544 0.7916 0.7937
1707.146 0.7803 0.7342 0.9125 1.0396 0.9353 0.8354 0.9135 0.9865 0.9591 0.963
1726.435 0.9943 1.0619 1.0589 0.9407 0.8213 0.7695 0.7876 0.8758 0.8793 0.8001
1745.725 0.7603 0.5865 0.5127 0.6833 0.7986 0.7901 0.722 0.7075 0.7914 0.9984
1765.015 1.0068 0.9805 0.9639 0.833 0.9574 0.9874 0.8967 0.8467 0.7702 0.6484
1784.305 0.6696 0.6679 0.7013 0.6756 0.5975 0.8081 0.8863 0.796 0.7918 0.9319
1803.594 1.0683 0.9128 0.6674 0.6057 0.6926 0.8 0.8832 0.8628 0.8021 0.8386
1822.884 0.9135 1.0143 1.1641 1.1226 0.9494 0.9802 1.033 1.1579 1.1783 1.1151
1842.174 1.0597 1.0775 1.2424 1.366 1.376 1.2539 1.303 1.336 1.2964 1.346
1861.464 1.506 1.576 1.526 1.586 1.496 1.366 1.466 1.506 1.426 1.546
1880.754 1.626 1.636 1.706 1.716 1.726 1.786 1.956 1.936 1.686 1.806
1900.043 2.066 2.146 2.226 2.346 2.346 2.356 2.446 2.646 2.676 2.686
1919.333 2.886 2.956 3.086 3.376 3.576 3.706 3.756 3.736 3.866 4.046
1938.623 4.286 4.476 4.646 4.816 4.986 5.346 5.556 5.706 6.066 6.546
1957.913 6.916 7.026 7.236 7.746 8.136 8.476 8.866 9.416 10.006 10.656
1977.202 11.386 11.986 12.596 13.316 14.096 14.946 15.886 16.696 17.776 18.976
1996.492 19.996 20.976 22.156 23.566 24.996 26.396 27.986 29.786 31.546 33.576
2015.782 35.606 37.776 40.116 42.436 45.116 47.866 50.726 53.946 56.866 59.716
2035.072 63.026 66.106 68.886 71.716 74.326 76.716 79.026 80.816 82.176 83.386
2054.362 84.176 84.786 85.026 84.626 84.326 83.796 82.346 80.626 78.746 76.616
2073.651 74.006 71.086 68.356 65.476 62.626 59.906 56.946 53.816 51.066 48.346
2092.941 45.586 43.046 40.556 38.286 36.086 33.966 31.906 30.066 28.326 26.766
2112.231 25.416 23.976 22.726 21.626 20.646 19.956 19.326 18.676 18.406 18.036
2131.521 17.326 17.016 16.796 16.446 16.226 15.996 15.566 14.986 14.706 14.386
2150.810 13.986 13.856 13.676 13.416 12.896 12.556 12.616 12.436 12.146 11.906
2170.100 11.816 11.856 11.936 12.096 12.206 12.366 12.586 12.736 12.766 12.996
2189.390 13.266 13.246 13.096 13.016 12.966 12.836 12.616 12.396 11.856 10.986
2208.680 10.446 10.026 9.386 8.746 8.176 7.826 7.436 6.896 6.466 6.116
2227.970 5.626 5.056 4.806 4.726 4.436 4.106 3.966 3.846 3.606 3.476
2247.259 3.536 3.396 3.196 3.046 2.936 2.796 2.646 2.496 2.296 2.456
2266.549 2.546 2.326 2.146 1.986 2.036 2.106 2.026 1.896 1.846 1.866
2285.839 1.786 1.886 1.916 1.776 1.726 1.726 1.706 1.516 1.416 1.3229
2305.129 1.2789 1.3304 1.2941 1.336 1.1429 0.9625 0.9692 0.8325 0.8189 0.7888
2324.418 0.795 0.8902 0.7244 0.6485 0.8279 0.8422 0.5917 0.529 0.554 0.6287
2343.708 0.6908 0.6088 0.6707 0.7184 0.7811 0.737 0.7008 0.6708 0.5676 0.5619
2362.998 0.7302 0.8524 0.7551 0.8136 0.7889 0.5752 0.42374 0.4855 0.5787 0.4562
2382.288 0.5409 0.6285 0.5161 0.6441 0.7136 0.4578 0.2945 0.34949 0.4367 0.6285
2401.578 0.5542 0.43468 0.5801 0.4755 0.40856 0.4736 0.4835 0.5354 0.5401 0.6421
2420.867 0.6967 0.654 0.5857 0.5236 0.5124 0.5789 0.4967 0.32723 0.36478 0.35716
2440.157 0.5281 0.6102 0.5101 0.4366 0.35498 0.4629 0.4455 0.36261 0.34603 0.38542
2459.447 0.513 0.5229 0.5409 0.6135 0.5175 0.4855 0.6391 0.7958 0.8582 0.7552
2478.737 0.827 0.801 0.6379 0.6713 0.5403 0.6148 0.649 0.5704 0.5919 0.5724
2498.026 0.626 0.57 0.56 0.66 0.6594 0.7021 0.786 0.6808 0.7468 0.7382
2517.316 0.6169 0.7998 1.072 0.8889 0.7057 0.8047 0.6386 0.6851 0.741 0.7461
2536.606 0.7711 0.7099 0.6893 0.7396 0.7615 0.8404 0.827 0.9387 1.2971 1.1968
2555.896 1.045 1.0124 0.9858 0.8132 0.8523 1.131 1.057 1.0367 1.1215 0.9392
2575.186 0.7561 0.637 0.749 0.9367 1.0017 0.8768 0.6199 0.6835 0.8449 0.954
2594.475 0.8482 0.7713 0.8802 0.8968 0.8046 0.6635 0.6687 0.6785 0.7546 0.725
2613.765 0.554 0.5199 0.35283 0.35606 0.5802 0.7046 0.8322 0.9395 0.803 0.5641
2633.055 0.5312 0.6729 0.7382 0.8884 0.7841 0.6386 0.7812 0.9052 0.898 0.806
2652.345 0.8756 0.7866 0.7411 0.6673 0.6518 0.7632 0.7149 0.6298 0.4406 0.5448
2671.634 0.7218 0.6617 0.5672 0.621 1.0549 1.0286 0.7129 0.8997 0.8513 0.725
2690.924 0.8744 0.9397 0.9728 1.0709 1.1753 1.2098 1.0931 1.2833 1.3271 1.2326
2710.214 1.406 1.416 1.406 1.446 1.586 1.556 1.566 1.636 1.616 1.646
2729.504 1.696 1.566 1.616 1.806 2.076 1.936 1.796 1.936 1.696 1.696
2748.794 1.866 1.766 1.736 1.646 1.2387 1.3292 1.566 1.476 1.386 1.606
2768.083 1.656 1.3267 1.466 1.756 1.656 1.366 1.376 1.676 1.816 1.546
2787.373 1.456 1.366 1.346 1.736 1.726 1.546 1.536 1.616 1.656 1.746
2806.663 2.036 2.166 1.946 2.036 2.386 2.506 2.736 2.986 3.166 3.486
2825.953 3.986 4.576 5.206 5.896 6.876 7.436 7.556 8.186 8.806 8.906
2845.242 8.646 8.486 8.216 7.776 7.296 6.726 6.336 6.096 6.186 5.976
2864.532 5.636 5.746 5.616 5.496 5.506 5.366 5.866 6.516 6.806 7.226
2883.822 7.476 7.346 7.416 7.846 7.926 7.576 7.286 7.146 7.066 7.246
2903.112 7.316 7.656 8.116 8.356 8.886 9.366 9.696 10.096 10.596 11.526
2922.401 12.216 12.496 12.686 12.786 13.436 14.526 15.716 16.636 17.616 18.976
2941.691 20.186 21.056 21.526 21.886 22.166 22.036 21.706 21.066 20.526 20.216
2960.981 19.256 17.776 16.316 15.146 13.466 12.126 11.376 10.256 9.596 9.096
2980.271 8.496 7.996 7.736 7.546 7.456 7.646 7.936 8.306 8.576 9.086
2999.561 9.896 10.746 11.106 10.886 10.916 10.826 9.836 8.556 7.636 7.116
3018.850 6.426 5.836 5.626 5.586 5.386 5.436 5.346 4.906 5.146 5.096
3038.140 4.826 4.796 4.466 4.206 4.196 4.286 4.286 4.246 3.916 3.766
3057.430 3.936 3.626 3.536 3.536 3.256 3.036 2.816 2.746 2.716 2.546
3076.720 2.306 2.336 2.536 2.196 1.886 1.976 1.836 1.976 2.126 2.136
3096.009 2.346 2.276 1.916 1.366 1.2966 1.506 1.406 1.285 1.2472 1.1501
3115.299 1.366 1.616 1.686 1.2691 0.9756 1.1585 1.0334 0.9735 1.2634 1.2196
3134.589 1.036 1.0804 0.8636 0.7361 0.8341 0.6863 0.8171 1.2569 1.1496 1.0336
3153.879 1.0691 0.9964 0.9536 0.8297 0.6624 0.7391 0.9199 0.8212 0.41389 0.341346
3173.169 0.6368 0.6971 0.7403 0.5678 0.6308 0.8541 0.6481 0.582 0.43168 0.4803
3192.458 0.6998 0.7856 0.8179 0.773 0.9283 0.796 0.476 0.452 0.5503 0.35875
3211.748 0.2437 0.4535 0.4839 0.35341 0.344275 0.4316 0.5856 0.6428 0.718 0.655
3231.038 0.6504 0.752 0.41636 0.2918 0.6175 0.721 0.4871 0.5639 0.5881 0.5157
3250.328 0.6581 0.5489 0.5079 0.37675 0.211 0.4522 0.4776 0.40993 0.6405 0.41229
3269.617 0.044 0.172 0.5608 0.6995 0.5966 0.5704 0.4905 0.224 0.36968 0.4057
3288.907 0.096 0.228 0.7648 0.8465 0.34881 0.6391 0.8628 0.4958 0.5956 0.6384
3308.197 0.34985 0.178 0.2781 0.8007 0.9491 0.2953 0.35301 0.7102 0.5978 0.6327
3327.487 0.4439 0.43598 0.2856 0.216 0.5946 0.7872 0.7627 0.6423 0.5764 0.38436
3346.777 0.2809 0.009 0.236 0.7686 0.7996 0.6386 0.8094 0.9765 0.4634 0.4765
3366.066 0.8657 0.9087 0.9463 0.5903 0.4789 0.6663 0.6863 0.6904 0.6157 0.8403
3385.356 0.8488 0.873 0.6538 0.2402 0.6218 0.8576 0.8573 0.6886 0.5652 0.6075
3404.646 0.5674 0.9611 1.476 1.446 0.9599 0.6308 0.8737 1.406 1.1881 0.8965
3423.936 0.9725 1.1177 0.8668 0.3151 0.6475 0.825 0.35829 0.41071 0.6301 0.69
3443.225 0.689 0.6376 0.40041 0.5441 1.0582 1.1027 0.9617 0.7298 0.8436 0.8714
3462.515 0.9342 1.245 1.0704 0.6674 0.612 0.7653 0.6967 0.7809 0.7969 0.4998
3481.805 0.6551 0.8663 0.663 0.6446 0.6283 0.5343 0.9048 1.1138 0.499 0.6308
3501.095 1.1966 1.1246 0.7162 0.2933 0.38487 0.42159 0.2971 0.6975 0.8269 0.476
3520.385 0.221 0.36048 0.7442 0.7612 0.784 0.7525 0.502 0.4518 0.8108 0.9225
3539.674 0.6263 0.5604 0.5821 0.4656 0.36465 0.582 0.7298 0.4419 0.4692 0.6182
3558.964 0.231 0.487 1.1271 0.8754 0.6295 0.6787 0.7992 0.8202 0.5718 0.438
3578.254 0.7518 1.0081 0.7482 0.6015 0.5136 0.4721 0.25 0.2576 0.8125 0.7383
3597.544 0.4974 0.40258 0.40484 0.5986 1.1398 1.486 0.6294 0.5536 1.1661 1.2474
3616.833 1.1901 0.9192 0.39093 0.40422 0.9737 1.024 0.5234 0.131 0.337815 0.816
3636.123 0.9894 0.5889 0 0.4954 1.0641 0.9966 0.6915 0.205 0.36133 0.3581
3655.413 0.16 0.166 0.7751 1.2838 0.9782 0.7271 0.9505 0.9679 0.8771 0.8355
3674.703 0.41796 0.3201 0.7996 1.2386 0.9483 0.4599 0.4463 0.8997 0.9916 0.6457
3693.993 0.43196 0.5877 0.8444 0.8216 1.0709 0.9483 0.6076 0.7522 0.9735 0.8198
3713.282 0.2834 0.3181 0.6235 0.4791 0.2436 0.7164 0.9941 0.743 0.5207 0.614
3732.572 0.9322 0.9973 1.0193 1.0708 0.8846 0.5842 0.7416 0.857 0.8277 0.8717
3751.862 0.6534 0.5262 0.9292 0.8538 0.41044 0.5389 0.6507 0.6517 0.8845 0.9054
3771.152 0.8294 0.838 0.9499 1.1761 0.8879 0.827 0.6993 0.6098 0.8636 0.8959
3790.441 0.8666 0.996 1.0266 0.6034 0.558 0.6209 0.8531 1.1271 0.8531 0.7916
3809.731 1.0551 0.9399 0.5036 0.146 0.4605 0.4943 0.6156 0.8586 0.39089 0.5234
3829.021 0.962 1.042 0.8772 0.8617 0.8915 1.0711 1.3195 1.1868 0.5951 0.32945
3848.311 0.8314 0.9604 0.4806 0.5987 0.5924 0.39448 0.6471 0.7235 0.6263 0.9432
3867.601 1.386 1.24 0.9318 0.8326 0.6832 0.5423 0.6668 0.7057 0.5249 0.5942
3886.890 0.8356 0.8349 0.9577 0.972 0.9577 1.1015 1.2726 1.0813 0.727 0.6418
3906.180 0.9236 1.0432 1.2463 1.3353 0.7487 0.5602 0.9208 1.1987 1.2233 1.366
3925.470 1.406 1.091 0.9479 1.2116 1.2592 0.938 0.777 0.906 1.1642 1.376
3944.760 1.081 0.9285 0.9132 1.0878 1.237 1.2754 0.9859 0.4849 0.644 0.9721
3964.049 0.9005 0.6293 0.41394 0.5974 1.0422 1.1161 0.9588 0.6917 0.7038 0.7376
3983.339 0.8447 1.436 1.486 1.038 1.101 1.0302 0.9451 0.5731 0.6296 1.1316
##END=
