##TITLE=N-Propylmaleimide
##JCAMP-DX=4.24
##DATA TYPE=INFRARED SPECTRUM
##ORIGIN=EPA-IR VAPOR PHASE LIBRARY
##OWNER=SRD/NIST
Collection (C) 2018 copyright by the U.S. Secretary of Commerce
on behalf of the United States of America. All rights reserved.
##CAS REGISTRY NO=21746-40-7
##MOLFORM=C 7 H 9 N O 2
##$NIST SOURCE=MSDC-IR
##STATE=gas
##XUNITS=1/CM
##YUNITS=ABSORBANCE
##XFACTOR=1.
##YFACTOR=0.001
##DELTAX=1.92898
##FIRSTX=549.8
##LASTX=4000.7
##FIRSTY=0.7873
##MAXX=4000.7
##MINX=549.759
##MAXY=0.50393
##MINY=0
##NPOINTS=1790
##XYDATA=(X++(Y..Y))
549.759 0.7873 0.8106 0.814 1.0013 1.32 1.26 1.0456 0.8643 0.8712 1.34
569.049 1.65 1.62 1.55 1.65 1.33 1.0226 1.25 1.35 1.41 1.45
588.339 1.54 1.75 2.09 2.32 2.48 2.77 3.02 3.26 3.59 3.84
607.628 3.93 4.16 4.44 4.64 4.84 5.04 5.14 5.3 5.69 5.67
626.918 5.36 5.01 4.74 4.38 3.82 3.47 3.07 2.75 2.55 2.27
646.208 2.12 2 2.02 1.98 1.92 2.14 2.47 2.63 2.83 3.05
665.498 3.29 3.75 4.31 5.15 6.05 7.59 9.71 11.95 15.09 18.83
684.787 23.41 29.07 34.96 40.53 45.26 48.47 49.24 48.65 48.71 48.97
704.077 47.59 43.91 38.37 31.98 25.81 20.12 15.38 11.76 8.9 6.77
723.367 5.39 4.5 4.04 3.89 3.89 4 4.2 4.54 4.81 5.17
742.657 5.41 5.3 5.32 5.34 5.41 5.42 5.17 4.7 4.12 3.77
761.947 3.39 3.04 2.68 2.27 2.28 2.17 1.84 1.84 1.84 2.15
781.236 2.51 2.92 3.7 4.21 4.76 5.3 6.05 7.22 8.3 9.07
800.526 9.81 10.88 12.5 14.51 16.97 20.1 23.85 28.55 33.91 39.11
819.816 43.26 46.37 50.39 57.76 72.7 80.82 67.43 53.44 47.97 44.56
839.106 41.43 37.23 31.98 26.63 21.97 17.95 14.92 12.7 11.13 10.3
858.395 9.89 9.37 8.82 8.18 7.63 7.52 7.59 7.44 7.2 7.23
877.685 7.36 7.6 7.78 7.79 7.85 7.8 7.83 7.86 7.73 7.5
896.975 7.11 6.62 5.99 5.34 4.83 4.51 4.11 3.68 3.37 3.04
916.265 2.74 2.51 2.39 2.35 2.4 2.5 2.35 2.28 2.31 2.25
935.555 2.06 2.07 2.19 2.18 2.07 2.04 2.06 2 2.11 2.01
954.844 2.06 2.31 2.29 2.28 2.44 2.77 3.26 3.68 4.23 4.96
974.134 5.85 6.97 8.01 9.2 10.71 11.9 12.56 13.19 13.54 13.73
993.424 13.78 13.69 13.37 12.51 11.49 10.46 9.3 8.35 7.74 7.42
1012.714 7.24 6.9 6.73 6.92 7.06 6.81 6.62 6.51 6.37 6.36
1032.003 6.07 5.86 5.73 5.63 5.99 6.08 6.11 6.1 6.05 5.89
1051.293 5.3 4.99 4.7 4.78 4.36 3.72 4.14 4.53 4.65 4.67
1070.583 5.03 5.86 6.46 6.85 7.28 8.04 9.04 10.15 11.57 12.85
1089.873 14.12 15.78 18.06 20.56 23.15 25.69 28.05 29.95 31.39 32.93
1109.163 34.4 36.3 38.5 40.13 40.66 39.54 36.73 33.27 30.23 28.24
1128.452 26.74 24.56 21.56 18.06 14.87 12.4 10.19 8.71 7.72 6.72
1147.742 6.34 6.46 6.42 6.13 6.32 6.88 7.32 7.97 8.84 10.11
1167.032 11.58 13.26 15.39 17.59 19.78 21.87 24.13 26.35 27.82 29.2
1186.322 30.32 30.74 30.64 29.72 28.01 25.9 23.81 21.43 18.43 16
1205.611 13.95 11.61 9.62 8.08 7.26 6.36 5.43 5.23 4.95 4.29
1224.901 4.06 3.81 3.62 3.86 3.97 4.07 3.88 3.75 4.12 4.31
1244.191 4.5 4.69 4.81 5.26 5.6 5.79 6.02 6.3 6.61 6.93
1263.481 7.24 7.49 7.81 7.93 8.2 8.67 8.85 9.08 9.46 9.77
1282.771 10.27 10.89 11.64 12.39 13.17 14.09 15.07 16.15 17.1 17.98
1302.060 18.92 19.75 20.46 21.08 21.72 22.19 22.49 22.79 23.16 23.65
1321.350 24.22 24.98 26 27.39 29.13 31.23 33.74 36.72 40.22 44.2
1340.640 48.69 53.6 58.67 63.88 69.11 74.51 79.99 85.03 89.93 94.92
1359.930 99.16 101.9 103.38 103.99 103.85 103.13 102.04 100.68 99.34 98.12
1379.219 96.8 95.53 94.82 95.26 96.92 99.18 102.4 107.13 112.45 116.69
1398.509 118.99 119.83 119.3 117.23 113.75 108.57 101.36 92.59 83.33 73.23
1417.799 62.08 50.86 41.27 34.12 29.38 26.88 26.07 26.5 27.94 30.11
1437.089 32.74 35.68 38.75 41.68 44.28 45.97 46.5 45.93 44.39 42.56
1456.378 40.29 37.07 33.31 29.69 26.45 23.53 20.98 18.77 16.84 14.88
1475.668 13.11 11.69 10.53 9.62 8.81 8.04 7.4 6.78 6.24 5.88
1494.958 5.56 5.25 5.05 4.84 4.61 4.45 4.27 4.06 3.9 3.78
1514.248 3.69 3.56 3.43 3.33 3.21 3.11 3.04 2.99 2.91 2.84
1533.538 2.81 2.82 2.89 2.91 2.89 2.92 3.05 3.11 3.12 3.12
1552.827 3.24 3.46 3.63 3.74 3.8 3.94 4.12 4.27 4.46 4.67
1572.117 4.85 5.06 5.41 5.79 6.15 6.56 6.99 7.35 7.6 7.75
1591.407 7.75 7.44 7.11 7.01 6.82 6.44 5.92 5.39 4.9 4.41
1610.697 3.98 3.67 3.46 3.33 3.27 3.21 3.24 3.26 3.22 3.31
1629.986 3.44 3.59 3.68 3.74 3.88 3.94 4.1 4.34 4.53 4.66
1649.276 4.87 5.11 5.41 5.68 5.91 6.19 6.55 7.02 7.56 8.22
1668.566 8.99 9.88 10.98 12.29 13.79 15.53 17.64 20.09 23.1 26.59
1687.856 30.39 34.82 40.02 45.9 52.87 61.07 70.57 82.27 95.61 111.21
1707.146 129.28 150.44 175.08 203.56 236.24 273.3 314.81 358.68 403.1 443.79
1726.435 475.65 495.72 503.93 503.22 498.13 491.03 472.76 435.58 386.76 333.08
1745.725 278.35 226.7 181.74 144.3 114.15 90.39 71.87 57.93 47.42 39.47
1765.015 33.43 28.89 25.51 22.98 20.94 19.33 18.05 16.89 15.72 14.52
1784.305 13.37 12.33 11.5 10.71 9.99 9.47 9.04 8.74 8.68 8.75
1803.594 8.86 9.06 9.27 9.48 9.67 9.85 9.93 9.84 9.73 9.55
1822.884 9.25 8.8 8.21 7.63 7.07 6.48 5.81 5.24 4.75 4.28
1842.174 3.86 3.49 3.24 3.02 2.81 2.75 2.74 2.68 2.64 2.65
1861.464 2.65 2.61 2.64 2.68 2.74 2.8 2.77 2.86 2.93 2.92
1880.754 2.9 2.87 2.86 2.83 2.79 2.74 2.62 2.55 2.49 2.33
1900.043 2.2 2.13 2.1 2.05 2.06 2.11 2.12 2.1 2.07 2.08
1919.333 2.06 1.99 2 1.96 1.82 1.71 1.66 1.63 1.59 1.51
1938.623 1.47 1.45 1.39 1.35 1.29 1.25 1.29 1.3 1.27 1.1853
1957.913 1.1079 1.0826 1.0644 1.1124 1.1245 1.0906 1.0465 0.9958 0.9639 0.9793
1977.202 0.9977 0.969 0.9458 0.9504 0.9019 0.9043 0.974 0.9969 0.9805 0.9655
1996.492 0.9651 0.9439 0.968 0.9665 0.9251 0.9267 0.9019 0.9375 0.9729 0.9749
2015.782 1.0011 0.9868 0.9773 0.9417 0.91 0.9314 0.962 1.0119 1.043 1.0096
2035.072 1.0108 1.0531 1.0548 1.0722 1.1223 1.1016 1.1232 1.2005 1.24 1.27
2054.362 1.34 1.43 1.45 1.48 1.5 1.53 1.59 1.63 1.57 1.56
2073.651 1.65 1.69 1.7 1.77 1.84 1.85 1.83 1.85 1.93 1.95
2092.941 1.96 1.99 1.97 1.96 2.02 2.05 1.94 1.86 1.88 1.86
2112.231 1.76 1.68 1.62 1.53 1.52 1.51 1.38 1.26 1.25 1.31
2131.521 1.28 1.1745 1.1323 1.1806 1.24 1.25 1.25 1.26 1.25 1.24
2150.810 1.29 1.3 1.28 1.25 1.23 1.23 1.1682 1.1713 1.1732 1.1379
2170.100 1.1123 1.075 1.0577 1.0438 1.0255 1.003 0.9784 1.0114 1.0127 0.9848
2189.390 1.0284 1.0081 0.9458 0.9827 0.8985 0.8094 0.8455 0.8716 0.9138 0.904
2208.680 0.8861 0.8954 0.9098 0.8575 0.8365 0.8269 0.8046 0.8716 0.9048 0.9106
2227.970 0.8996 0.9033 0.9522 0.9 0.8383 0.8406 0.8721 0.8736 0.7947 0.7597
2247.259 0.7716 0.7932 0.7564 0.7682 0.8113 0.737 0.6635 0.6971 0.7915 0.773
2266.549 0.7198 0.7131 0.7097 0.7467 0.7498 0.756 0.7979 0.7908 0.776 0.8202
2285.839 0.8844 0.951 0.9882 0.9725 1.0045 1.0361 1.0808 1.1085 1.098 1.1564
2305.129 1.1738 1.1155 1.095 1.1031 1.0282 1.0054 1.0413 1.0711 1.1048 1.1264
2324.418 1.0765 1.033 1.0991 1.1469 1.1401 1.081 1.0316 1.017 1.0283 1.0876
2343.708 1.0341 1.015 1.0894 1.029 0.991 1.0061 1.0188 0.969 0.9489 1.0115
2362.998 0.9806 0.9402 0.9457 0.9417 0.953 0.9685 0.9593 0.9593 0.9236 0.9131
2382.288 0.9146 0.9175 0.9667 0.9962 1.0235 1.0299 0.9973 1.0405 1.09 1.0498
2401.578 0.9945 1.0415 1.1273 1.24 1.31 1.207 1.1013 1.0895 1.1216 1.1006
2420.867 1.1089 1.127 1.1345 1.1451 1.1035 1.0538 0.9635 0.931 0.9179 0.9539
2440.157 0.964 0.8516 0.8317 0.795 0.7458 0.7585 0.7695 0.8326 0.8782 0.7878
2459.447 0.6661 0.6284 0.6958 0.744 0.735 0.8115 0.8146 0.7986 0.8468 0.9012
2478.737 0.978 1.043 1.0186 0.9913 1.0351 1.0123 0.982 1.0211 1.0793 1.0948
2498.026 1.1065 1.1843 1.1485 1.0991 1.1251 1.1127 1.1086 1.0422 0.9342 0.8617
2517.316 0.8523 0.9044 0.9281 0.8359 0.77 0.7366 0.7686 0.7694 0.6984 0.6516
2536.606 0.67 0.7217 0.6804 0.6351 0.6466 0.698 0.6954 0.702 0.7417 0.7834
2555.896 0.762 0.7401 0.8063 0.768 0.7718 0.8046 0.8966 0.9747 0.8744 0.8285
2575.186 0.8878 0.8737 0.8769 0.8926 0.8305 0.8518 0.7693 0.67 0.6829 0.6295
2594.475 0.5641 0.5834 0.5907 0.5555 0.4815 0.4015 0.3416 0.3514 0.3868 0.3638
2613.765 0.3795 0.30011 0.1787 0.235572 0.30419 0.3615 0.4075 0.30285 0.30864 0.4436
2633.055 0.3555 0.2418 0.3387 0.4199 0.366 0.3683 0.4364 0.3827 0.3773 0.399
2652.345 0.355 0.3883 0.3828 0.3896 0.5562 0.6367 0.5863 0.563 0.5924 0.546
2671.634 0.5207 0.5526 0.5558 0.6197 0.6269 0.7317 0.8399 0.7287 0.7303 0.8249
2690.924 0.8387 0.894 1.0117 0.9885 0.9419 0.89 0.9115 0.9792 1.0389 0.981
2710.214 0.8704 0.9252 0.9445 0.9046 0.8764 0.8869 0.8667 0.8927 0.8692 0.8533
2729.504 0.9164 0.9691 1.0541 1.0895 1.1145 1.0967 1.0897 1.0969 1.1837 1.35
2748.794 1.39 1.35 1.38 1.48 1.46 1.34 1.32 1.4 1.4 1.34
2768.083 1.35 1.39 1.35 1.39 1.44 1.38 1.45 1.43 1.34 1.33
2787.373 1.35 1.38 1.38 1.43 1.38 1.43 1.52 1.53 1.7 1.68
2806.663 1.57 1.62 1.74 1.81 1.78 1.82 1.81 1.85 1.97 2.09
2825.953 2.26 2.27 2.41 2.6 2.57 2.7 2.95 3.17 3.19 3.23
2845.242 3.33 3.43 3.66 3.86 4.01 4.23 4.52 4.87 5.41 6.09
2864.532 6.67 7.42 8.57 9.75 10.99 12.44 14.1 15.83 17.39 18.68
2883.822 19.61 20.27 20.77 20.86 20.34 19.54 18.73 17.8 16.74 15.71
2903.112 14.9 14.33 14.11 14.11 14.21 14.6 15.18 15.81 16.57 17.47
2922.401 18.57 19.96 21.55 23.36 25.44 27.7 30.13 32.53 34.9 37.04
2941.691 38.86 40.24 41.28 41.96 41.95 41.21 39.99 38.95 38.46 38.7
2960.981 39.49 40.95 43.16 45.87 48.9 51.79 53.79 54.5 54.57 54.35
2980.271 52.86 49.11 43.69 38.12 32.81 27.72 23.05 19 15.74 13.14
2999.561 10.98 9.48 8.28 7.27 6.62 6.11 5.66 5.34 5.08 4.9
3018.850 4.74 4.58 4.52 4.42 4.35 4.18 3.97 3.86 3.66 3.51
3038.140 3.43 3.25 3.13 3.02 2.87 2.8 2.67 2.63 2.56 2.35
3057.430 2.38 2.22 2.04 2 1.9 1.74 1.6 1.62 1.57 1.5
3076.720 1.51 1.56 1.63 1.6 1.57 1.7 1.78 1.73 1.68 1.59
3096.009 1.63 1.65 1.58 1.61 1.52 1.45 1.4 1.34 1.46 1.37
3115.299 1.1841 1.24 1.38 1.34 1.24 1.1901 1.089 0.9508 0.944 0.9966
3134.589 0.9321 0.9578 1.0255 0.9501 0.9389 1.0083 0.9205 0.7909 0.783 0.8731
3153.879 0.9297 0.7667 0.6136 0.6159 0.6761 0.8914 0.9028 0.7909 0.856 0.9136
3173.169 0.7959 0.7375 0.8478 0.9011 0.7876 0.8303 0.8994 0.8717 0.7382 0.6397
3192.458 0.7226 0.7266 0.6752 0.5257 0.491 0.5033 0.4621 0.5287 0.5831 0.5954
3211.748 0.6494 0.5661 0.4223 0.31824 0.31905 0.526 0.5703 0.485 0.4232 0.3873
3231.038 0.448 0.3611 0.27799 0.168 0.1541 0.30306 0.4565 0.539 0.3546 0.28483
3250.328 0.3491 0.30207 0.3102 0.4234 0.30153 0.30457 0.3947 0.415 0.4954 0.4576
3269.617 0.4383 0.4331 0.30555 0.1977 0.2259 0.28459 0.30426 0.068 0.022 0.1403
3288.907 0.25097 0.30689 0.1993 0.31438 0.3844 0.2704 0.1691 0.234052 0.2964 0.1455
3308.197 0.052 0.1383 0.22125 0.1844 0.27502 0.31906 0.2233 0.30875 0.32913 0.29308
3327.487 0.3349 0.27124 0.229048 0.32047 0.3827 0.28868 0.22502 0.1917 0.1398 0.2733
3346.777 0.3523 0.26303 0.26304 0.091 0 0.117 0.05 0.089 0.2165 0.27231
3366.066 0.24521 0.27245 0.4406 0.3911 0.31462 0.31526 0.3158 0.3471 0.28312 0.29653
3385.356 0.4369 0.5729 0.4549 0.3346 0.4806 0.6511 0.5566 0.4296 0.4667 0.5094
3404.646 0.4178 0.4195 0.5453 0.6151 0.6371 0.4088 0.31485 0.4826 0.5616 0.5624
3423.936 0.6138 0.6811 0.7082 0.8275 0.8177 0.6581 0.6866 0.8627 0.9591 1.0478
3443.225 1.2296 1.35 1.32 1.28 1.39 1.55 1.73 1.89 1.98 2.16
3462.515 2.52 2.85 3.07 3.28 3.54 3.92 4.43 4.84 5.18 5.55
3481.805 5.9 6.29 6.56 6.91 7.19 7.31 7.24 7.13 7.07 6.83
3501.095 6.58 6.12 5.39 4.82 4.5 3.96 3.28 2.84 2.49 2.27
3520.385 2.13 1.98 1.76 1.6 1.55 1.56 1.43 1.1862 1.35 1.46
3539.674 1.24 1.1999 1.26 1.0072 0.9723 1.0338 0.9621 0.9555 0.9473 0.9808
3558.964 0.8938 0.76 0.6499 0.5945 0.5658 0.5014 0.5947 0.5155 0.31413 0.5482
3578.254 0.6217 0.5168 0.5201 0.4629 0.3971 0.4247 0.4198 0.3422 0.3649 0.3748
3597.544 0.26603 0.25019 0.388 0.4237 0.5439 0.5764 0.3828 0.3704 0.387 0.24377
3616.833 0.31921 0.4669 0.4284 0.3529 0.3793 0.498 0.4936 0.4567 0.4924 0.5272
3636.123 0.5101 0.45 0.25934 0.2454 0.4684 0.5184 0.5102 0.5438 0.5587 0.5051
3655.413 0.4109 0.26764 0.230645 0.22317 0.215 0.24446 0.239284 0.3695 0.4355 0.4303
3674.703 0.4406 0.3749 0.31701 0.2182 0.1751 0.32259 0.30285 0.25553 0.2003 0.24062
3693.993 0.32164 0.1981 0.25008 0.31833 0.3341 0.404 0.4542 0.5337 0.5694 0.5462
3713.282 0.4577 0.28488 0.30851 0.28465 0.1707 0.1719 0.24015 0.3622 0.4738 0.5337
3732.572 0.4159 0.3203 0.2001 0.104 0.2865 0.5638 0.502 0.4111 0.4882 0.4597
3751.862 0.4043 0.3532 0.25666 0.28942 0.3637 0.2488 0.181 0.237653 0.4309 0.508
3771.152 0.4965 0.4476 0.3497 0.3696 0.27207 0.2758 0.414 0.5037 0.4775 0.4651
3790.441 0.6691 0.7536 0.7671 0.8205 0.8643 0.9205 0.9397 0.8932 0.8179 0.9205
3809.731 0.9319 0.8292 0.8709 0.877 0.8342 0.8547 0.8224 0.7062 0.5608 0.29775
3829.021 0.27301 0.434 0.5728 0.6496 0.4975 0.3901 0.3676 0.28841 0.1968 0.1301
3848.311 0.1944 0.2879 0.26208 0.24856 0.28344 0.31759 0.3376 0.3688 0.29728 0.3414
3867.601 0.4067 0.3044 0.28677 0.26559 0.30926 0.4874 0.3719 0.117 0.173 0.29956
3886.890 0.24045 0.122 0.081 0.2069 0.2041 0.28787 0.4032 0.27589 0.24959 0.31444
3906.180 0.32581 0.3526 0.4045 0.32011 0.181 0.132 0.1567 0.29405 0.4355 0.30725
3925.470 0.1953 0.1448 0.2027 0.1618 0.237527 0.3674 0.24547 0.108 0.077 0.2166
3944.760 0.3316 0.4477 0.4454 0.1937 0.2008 0.4177 0.4642 0.5227 0.5104 0.545
3964.049 0.3926 0.27521 0.4435 0.413 0.3704 0.4114 0.3758 0.28883 0.31175 0.436
3983.339 0.4559 0.3739 0.31805 0.29599 0.4296 0.6606 0.5362 0.3304 0.4314 0.5978
##END=
