##TITLE=5-Methoxyresorcinol
##JCAMP-DX=4.24
##DATA TYPE=INFRARED SPECTRUM
##ORIGIN=NIST Mass Spectrometry Data Center
##OWNER=NIST Standard Reference Data Program
Collection (C) 2018 copyright by the U.S. Secretary of Commerce
on behalf of the United States of America. All rights reserved.
##CAS REGISTRY NO=2174-64-3
##MOLFORM=C 7 H 8 O 3
##$NIST SOURCE=MSDC-IR
##SPECTROMETER/DATA SYSTEM=HP-GC/MS/IRD
##STATE=gas
##XUNITS=1/CM
##YUNITS=ABSORBANCE
##XFACTOR=1.0
##YFACTOR=0.000004200
##DELTAX=4.0
##FIRSTX=550.0
##LASTX=3846.0
##FIRSTY=0.002667
##MAXX=3846
##MINX=550
##MAXY=0.042
##MINY=0
##NPOINTS=825
##XYDATA=(X++(Y..Y))
550.0 635 374 207 279 274 236 209 169 147 156
590.0 142 135 145 149 171 200 214 201 181 166
630.0 139 115 107 116 136 193 314 439 540 722
670.0 861 755 601 466 315 201 128 79 44 35
710.0 46 41 29 24 20 18 11 16 23 22
750.0 22 33 39 39 61 90 109 145 181 214
790.0 264 334 439 566 720 867 1009 1113 1133 1134
830.0 1157 1153 995 773 607 457 325 240 196 177
870.0 169 171 180 191 192 202 222 238 241 233
910.0 230 226 232 251 265 312 404 510 622 677
950.0 667 614 507 380 301 281 334 443 629 911
990.0 1251 1589 1812 1871 1783 1527 1156 820 596 499
1030.0 501 586 733 932 1167 1384 1521 1545 1443 1241
1070.0 1009 797 654 583 579 613 664 745 879 1074
1110.0 1355 1765 2350 3130 4068 5231 6696 8241 9442 10000
1150.0 9903 9063 7454 5623 4045 2913 2265 1973 1921 2039
1190.0 2237 2490 2789 3038 3262 3455 3482 3269 2916 2447
1230.0 1848 1302 928 694 563 515 520 574 669 805
1270.0 981 1162 1287 1331 1276 1137 963 798 679 616
1310.0 591 567 534 505 479 477 513 577 660 748
1350.0 809 811 749 642 527 430 370 362 364 364
1390.0 388 422 465 507 534 562 577 574 622 710
1430.0 809 908 1017 1126 1183 1254 1320 1467 1712 1915
1470.0 2088 2265 2425 2540 2640 2739 2783 2744 2611 2345
1510.0 2044 1699 1332 1037 825 659 530 431 433 521
1550.0 593 631 630 758 907 1036 1226 1574 2120 2821
1590.0 3697 4674 5619 6417 6925 7061 6835 6425 5970 5477
1630.0 4932 4244 3517 2822 2186 1655 1287 1106 928 753
1670.0 599 492 443 364 328 360 298 234 248 270
1710.0 270 227 183 200 199 158 116 125 145 144
1750.0 133 142 143 134 125 85 74 90 86 80
1790.0 64 60 68 73 79 77 79 73 57 43
1830.0 41 46 46 30 24 36 37 35 34 19
1870.0 10 25 32 31 23 18 20 23 19 18
1910.0 17 17 14 12 21 30 27 23 21 24
1950.0 32 32 30 30 28 31 35 39 42 45
1990.0 50 51 55 59 59 55 45 33 32 33
2030.0 34 32 27 29 32 34 35 41 42 37
2070.0 44 53 61 71 77 77 80 83 79 78
2110.0 79 75 74 69 66 68 67 68 73 75
2150.0 73 75 73 65 61 62 60 58 58 53
2190.0 50 47 45 49 57 60 57 51 45 47
2230.0 49 45 42 44 45 43 42 44 42 44
2270.0 51 59 67 76 83 87 95 98 91 83
2310.0 80 78 74 73 73 77 81 77 72 71
2350.0 72 75 81 82 75 72 71 63 58 57
2390.0 52 50 48 44 44 45 50 57 57 60
2430.0 61 61 63 65 70 66 64 67 71 71
2470.0 75 86 95 105 115 119 114 106 99 92
2510.0 83 69 54 45 39 35 33 30 33 36
2550.0 32 29 34 34 32 32 25 25 30 30
2590.0 30 31 32 29 29 34 36 42 42 33
2630.0 33 35 33 28 26 19 16 20 22 21
2670.0 16 17 21 21 17 13 12 15 15 16
2710.0 19 19 18 19 20 21 31 33 32 32
2750.0 31 34 41 44 44 54 59 62 73 85
2790.0 98 108 111 113 118 117 116 120 134 154
2830.0 184 239 320 420 502 539 538 492 405 310
2870.0 246 218 212 213 220 237 262 286 317 354
2910.0 404 454 482 493 497 516 557 619 693 762
2950.0 808 824 822 782 672 551 473 413 363 344
2990.0 356 400 483 565 605 592 548 474 364 276
3030.0 230 201 190 188 192 199 204 211 208 197
3070.0 180 153 136 123 106 98 93 85 70 64
3110.0 60 56 62 60 51 53 57 48 39 36
3150.0 40 46 45 38 32 35 36 22 13 19
3190.0 42 46 32 32 38 41 44 36 29 31
3230.0 28 27 39 38 30 26 31 39 37 31
3270.0 29 26 20 7 4 17 21 19 23 31
3310.0 29 19 18 25 37 47 49 51 49 52
3350.0 66 60 47 49 60 55 43 37 34 41
3390.0 45 38 25 22 29 25 27 35 36 42
3430.0 47 44 38 33 30 29 29 27 25 18
3470.0 12 15 16 15 17 11 9 7 8 19
3510.0 25 18 6 1 6 11 12 11 9 12
3550.0 10 5 4 11 9 9 10 5 5 4
3590.0 11 16 16 33 31 30 64 97 157 242
3630.0 411 756 1311 2071 2741 3035 3014 2738 2079 1208
3670.0 541 217 113 90 39 11 33 24 5 1
3710.0 1 0 7 3 1 1 1 1 1 1
3750.0 1 1 1 1 1 1 1 1 3 9
3790.0 10 6 1 1 1 1 1 1 1 1
3830.0 1 1 1 1 8
##END=
