##TITLE=6,6-Dimethylfulvene
##JCAMP-DX=4.24
##DATA TYPE=INFRARED SPECTRUM
##ORIGIN=EPA-IR VAPOR PHASE LIBRARY
##OWNER=SRD/NIST
Collection (C) 2018 copyright by the U.S. Secretary of Commerce
on behalf of the United States of America. All rights reserved.
##CAS REGISTRY NO=2175-91-9
##MOLFORM=C 8 H 10
##$NIST SOURCE=MSDC-IR
##STATE=gas
##XUNITS=1/CM
##YUNITS=ABSORBANCE
##XFACTOR=1.
##YFACTOR=0.001
##DELTAX=1.92898
##FIRSTX=549.8
##LASTX=4000.7
##FIRSTY=0.38602
##MAXX=4000.7
##MINX=549.759
##MAXY=0.051691
##MINY=0
##NPOINTS=1790
##XYDATA=(X++(Y..Y))
549.759 0.38602 0.48032 0.183 0.3238 0.45919 0.8763 0.8825 0.159 0 0.3004
569.049 0.38108 0.45616 1.0181 1.0256 0.6482 0.7955 1.0422 1.1057 1.391 1.501
588.339 1.3827 1.461 2.081 2.941 3.411 4.231 5.551 6.821 8.171 9.071
607.628 9.771 10.431 11.331 11.941 12.741 16.041 24.891 29.081 21.131 14.421
626.918 12.601 12.031 11.741 10.961 10.091 9.171 7.901 6.781 5.701 4.521
646.208 3.481 2.561 1.841 1.3666 1.1047 1.0458 1.2593 1.0288 0.6412 0.7916
665.498 0.8114 0.8419 0.9075 0.735 0.7959 0.7129 0.727 1.0775 1.1421 0.9681
684.787 0.8921 1.018 1.0293 1.0858 1.1263 0.9602 1.087 1.1768 1.0476 1.1195
704.077 1.0651 0.9772 1.0907 1.1971 1.334 1.2335 1.3564 1.591 1.811 1.981
723.367 1.941 2.021 2.281 2.981 3.721 4.441 5.401 6.641 8.141 9.991
742.657 11.911 13.941 15.921 17.551 18.511 19.711 21.051 23.371 29.281 44.781
761.947 51.691 34.341 22.711 21.751 20.881 20.341 19.081 17.691 15.781 13.451
781.236 11.291 9.251 7.171 5.521 4.441 3.801 3.261 2.841 2.891 3.101
800.526 2.961 2.801 2.571 2.411 2.521 2.781 2.961 3.071 3.151 3.051
819.816 2.781 2.531 2.361 2.281 2.481 2.971 3.251 3.481 3.711 4.441
839.106 5.441 6.141 6.701 7.341 7.931 8.291 8.731 9.031 9.051 9.211
858.395 9.341 9.041 8.561 7.941 7.041 6.281 5.581 4.721 4.321 3.761
877.685 3.031 2.821 2.541 2.431 2.511 2.271 2.191 2.181 1.961 1.931
896.975 2.431 2.721 2.791 2.921 3.041 3.461 3.781 3.931 4.201 4.171
916.265 4.011 4.121 4.121 4.091 3.841 3.521 3.321 2.881 2.561 2.451
935.555 2.221 1.751 1.3901 1.441 1.481 1.411 1.0931 1.0449 1.1945 1.2763
954.844 1.491 1.551 1.3486 1.1121 1.1611 0.9961 0.914 1.2023 1.3016 1.204
974.134 1.2559 1.541 1.761 2.231 2.651 2.901 3.051 2.961 2.811 2.831
993.424 2.971 2.991 3.041 2.911 2.791 2.821 2.551 2.021 1.661 1.3491
1012.714 0.9854 0.7991 0.7167 0.7776 0.8799 0.8706 0.745 0.6973 0.8541 0.9575
1032.003 0.9106 1.0358 0.9936 1.0661 1.3352 0.9932 0.579 0.6974 0.9586 0.9943
1051.293 1.3847 1.691 1.641 1.961 2.001 1.791 2.001 2.511 2.591 2.771
1070.583 3.811 4.491 4.801 5.621 6.011 6.861 7.971 7.751 7.271 6.741
1089.873 6.601 7.391 7.621 6.961 6.691 6.361 5.451 4.551 3.841 3.421
1109.163 2.831 2.051 1.681 1.2508 1.751 2.021 1.1648 1.1848 1.491 1.681
1128.452 1.951 2.121 2.441 3.101 3.771 4.001 4.151 3.941 3.731 3.861
1147.742 3.601 3.371 3.541 3.401 3.121 2.311 1.531 1.3274 1.1768 0.9808
1167.032 0.6724 0.6265 0.5377 0.8152 0.8941 0.8081 0.9969 0.7631 0.6736 0.6902
1186.322 0.7391 1.0442 1.3433 1.285 0.9147 0.832 0.9359 0.8687 0.7186 0.63
1205.611 0.5639 0.5346 0.6723 0.6016 0.277 0.3453 0.6953 0.47113 0.42196 0.9973
1224.901 0.9596 0.7369 1.205 1.421 1.2168 1.2145 1.501 1.741 1.941 2.121
1244.191 2.091 1.991 2.191 1.991 1.841 2.151 2.121 1.971 1.991 2.021
1263.481 1.571 1.0381 0.9519 0.9989 0.9726 0.9204 1.0628 1.1342 0.9259 0.9004
1282.771 0.9969 1.1489 1.391 1.451 1.3688 1.3434 1.3427 1.431 1.561 1.641
1302.060 1.831 1.971 2.061 2.121 2.201 2.431 2.581 2.631 2.681 2.791
1321.350 2.931 2.921 2.981 3.121 3.121 3.151 3.221 3.231 3.321 3.521
1340.640 3.721 4.041 4.561 5.211 6.141 7.421 9.271 11.701 14.421 17.301
1359.930 19.981 21.961 23.031 23.721 24.761 25.751 25.271 24.331 24.281 23.521
1379.219 21.391 18.641 15.821 13.241 11.131 9.571 8.441 7.451 6.551 5.841
1398.509 5.201 4.671 4.311 4.061 3.951 3.891 3.921 3.971 4.021 4.211
1417.799 4.441 4.671 4.921 5.221 5.541 5.911 6.391 6.811 7.251 7.741
1437.089 8.341 8.941 9.341 9.731 10.221 10.661 11.191 11.781 12.351 12.881
1456.378 13.421 14.171 14.961 15.641 16.171 16.601 16.711 16.501 16.211 15.961
1475.668 15.691 15.161 14.561 13.671 12.231 10.481 8.681 7.161 6.001 5.181
1494.958 4.591 4.211 4.021 3.881 3.861 3.781 3.791 3.921 4.071 4.161
1514.248 4.041 3.891 3.861 3.851 3.731 3.691 3.731 3.591 3.271 2.941
1533.538 2.721 2.541 2.451 2.351 2.251 2.341 2.441 2.411 2.381 2.421
1552.827 2.421 2.441 2.561 2.521 2.471 2.531 2.481 2.461 2.561 2.671
1572.117 2.731 2.661 2.651 2.771 2.991 3.311 3.631 4.011 4.431 4.951
1591.407 5.551 6.211 6.771 7.201 7.791 8.311 8.781 9.201 9.111 8.971
1610.697 9.211 9.541 9.611 9.381 9.231 9.561 10.311 11.131 12.121 13.391
1629.986 14.701 16.161 17.631 19.031 20.421 21.651 22.821 23.891 24.721 25.371
1649.276 25.521 24.921 23.581 21.871 19.991 18.271 16.421 14.241 12.631 11.261
1668.566 9.471 7.461 5.571 4.091 3.041 2.381 1.971 1.681 1.511 1.451
1687.856 1.421 1.3052 1.2423 1.2003 1.2604 1.2898 1.18 1.2485 1.3314 1.2763
1707.146 1.2642 1.2377 1.199 1.1081 1.0914 1.1577 1.1073 1.0327 0.9669 0.8884
1726.435 0.7941 0.7211 0.7477 0.6597 0.5089 0.5906 0.6455 0.6222 0.579 0.5514
1745.725 0.5763 0.5959 0.5294 0.5649 0.5857 0.5638 0.6041 0.5763 0.5562 0.5099
1765.015 0.5695 0.6561 0.7201 0.7591 0.7687 0.8322 0.9038 0.9062 0.972 1.1806
1784.305 1.401 1.541 1.601 1.671 1.771 1.891 1.971 2.021 2.061 2.121
1803.594 2.121 2.171 2.151 1.991 1.831 1.771 1.691 1.561 1.3896 1.2281
1822.884 1.1163 1.0227 0.9034 0.868 0.94 0.8792 0.8196 0.8217 0.8296 0.8123
1842.174 0.7423 0.7219 0.728 0.7754 0.7612 0.7208 0.7134 0.7289 0.7675 0.676
1861.464 0.6156 0.5621 0.5418 0.5857 0.6047 0.6493 0.6049 0.6024 0.6555 0.7072
1880.754 0.7538 0.7617 0.7689 0.7706 0.7554 0.8022 0.8245 0.8035 0.8247 0.7802
1900.043 0.7249 0.7341 0.7241 0.7561 0.7793 0.7531 0.6522 0.5639 0.6273 0.6447
1919.333 0.5974 0.6343 0.6807 0.617 0.6435 0.6972 0.6334 0.5795 0.5584 0.5842
1938.623 0.6554 0.7237 0.6849 0.6369 0.6171 0.6261 0.6665 0.7139 0.7734 0.6801
1957.913 0.6237 0.69 0.7112 0.7071 0.7619 0.8471 0.8474 0.8335 0.8591 0.8368
1977.202 0.8064 0.835 0.7983 0.7948 0.8812 0.8827 0.8563 0.804 0.7313 0.7369
1996.492 0.7045 0.704 0.7276 0.6471 0.5694 0.5288 0.5485 0.6049 0.6206 0.5658
2015.782 0.5619 0.5811 0.5796 0.5545 0.5679 0.5572 0.5276 0.5312 0.5314 0.5415
2035.072 0.5022 0.4865 0.4919 0.5023 0.4977 0.5397 0.582 0.5452 0.5339 0.5207
2054.362 0.5516 0.6284 0.6358 0.63 0.6105 0.713 0.7726 0.6854 0.7168 0.7728
2073.651 0.7632 0.7237 0.7393 0.7154 0.665 0.6423 0.6731 0.7114 0.708 0.6353
2092.941 0.6148 0.7172 0.712 0.6411 0.648 0.6841 0.659 0.6256 0.6467 0.6232
2112.231 0.5866 0.618 0.6038 0.6386 0.7054 0.6406 0.5135 0.49003 0.5283 0.5513
2131.521 0.6077 0.6216 0.6028 0.5621 0.5872 0.5896 0.5485 0.48882 0.43409 0.48711
2150.810 0.5695 0.6398 0.6621 0.701 0.7404 0.7259 0.6588 0.6844 0.7414 0.6613
2170.100 0.6529 0.7919 0.7774 0.8159 0.863 0.8518 0.9315 0.9949 0.9669 0.8718
2189.390 0.8976 0.8802 0.7799 0.7591 0.748 0.7334 0.7521 0.8069 0.8488 0.8271
2208.680 0.8225 0.8778 0.8819 0.8885 0.9504 0.8947 0.7688 0.8248 0.9222 0.8707
2227.970 0.8515 0.8253 0.7009 0.6885 0.7429 0.6912 0.7021 0.7405 0.6443 0.6217
2247.259 0.6783 0.7028 0.7454 0.7631 0.7009 0.5986 0.625 0.6353 0.6022 0.6366
2266.549 0.6495 0.6082 0.5401 0.5971 0.7474 0.8399 0.8266 0.6927 0.7112 0.8078
2285.839 0.8491 0.8143 0.6811 0.706 0.7467 0.7014 0.6656 0.7566 0.7696 0.6692
2305.129 0.6981 0.6814 0.6213 0.6132 0.5906 0.5909 0.5845 0.5739 0.6294 0.6457
2324.418 0.5996 0.5813 0.5427 0.5399 0.6416 0.664 0.5854 0.6196 0.6009 0.5132
2343.708 0.6335 0.6627 0.6071 0.564 0.5186 0.5521 0.6103 0.6004 0.6471 0.7023
2362.998 0.6517 0.6261 0.5076 0.47253 0.5393 0.5798 0.5712 0.48164 0.45598 0.48048
2382.288 0.47184 0.4991 0.46473 0.5172 0.6279 0.6247 0.6162 0.5774 0.5342 0.5665
2401.578 0.6745 0.7357 0.643 0.5438 0.5153 0.47834 0.47365 0.45216 0.5136 0.5936
2420.867 0.623 0.6533 0.6686 0.6569 0.506 0.45459 0.46392 0.48782 0.5432 0.5816
2440.157 0.6105 0.5434 0.48993 0.5038 0.5386 0.617 0.6448 0.5503 0.5653 0.716
2459.447 0.7652 0.7121 0.6786 0.6448 0.6885 0.807 0.8185 0.8281 0.8441 0.7777
2478.737 0.7098 0.7375 0.8125 0.8261 0.7794 0.7725 0.854 0.8838 0.7532 0.6351
2498.026 0.702 0.8169 0.8375 0.8346 0.8447 0.7776 0.8166 0.8174 0.7238 0.7231
2517.316 0.7617 0.7938 0.7878 0.7362 0.7264 0.661 0.5517 0.5639 0.5934 0.5633
2536.606 0.6207 0.7248 0.7943 0.6927 0.5013 0.4939 0.497 0.5301 0.5308 0.43711
2555.896 0.43083 0.45075 0.42968 0.46875 0.5747 0.5116 0.46067 0.6014 0.6274 0.4979
2575.186 0.47357 0.5421 0.6217 0.6266 0.48571 0.42863 0.45634 0.5017 0.4543 0.5174
2594.475 0.6233 0.5646 0.5464 0.5735 0.5728 0.5225 0.5785 0.7019 0.7743 0.8743
2613.765 0.8068 0.6803 0.6516 0.6917 0.8556 0.8064 0.7131 0.7794 0.8415 0.9337
2633.055 0.9719 0.9538 0.8185 0.7278 0.7731 0.7973 0.6819 0.6299 0.6728 0.6306
2652.345 0.6861 0.6568 0.5207 0.42162 0.4963 0.6153 0.47983 0.3798 0.47887 0.5167
2671.634 0.5066 0.5346 0.5221 0.5637 0.5875 0.5891 0.6125 0.5487 0.5635 0.5931
2690.924 0.6149 0.7354 0.7629 0.7193 0.8201 0.8378 0.7485 0.752 0.7293 0.7603
2710.214 0.9164 0.8659 0.7997 0.8696 0.9935 1.0087 1.0717 1.183 1.2236 1.391
2729.504 1.541 1.571 1.471 1.3335 1.2974 1.421 1.461 1.481 1.521 1.401
2748.794 1.3664 1.305 1.1023 1.0165 0.9736 1.0151 1.0057 0.9749 0.9491 0.9172
2768.083 0.8913 0.8491 0.9393 1.0036 1.0502 1.031 0.9459 0.9464 0.9495 1.0026
2787.373 1.0859 1.1658 1.2209 1.1926 1.2131 1.3255 1.3552 1.3627 1.491 1.441
2806.663 1.3878 1.471 1.451 1.551 1.751 1.801 1.741 1.721 1.771 1.961
2825.953 2.001 2.101 2.221 2.301 2.581 2.751 3.051 3.341 3.631 4.001
2845.242 4.311 4.681 5.101 5.581 6.151 6.741 7.261 7.721 8.081 8.411
2864.532 8.631 8.891 9.181 9.271 9.101 8.931 8.871 8.671 8.411 8.131
2883.822 7.981 7.811 7.731 7.811 7.891 8.101 8.351 8.711 9.331 10.271
2903.112 11.381 12.801 14.331 15.831 17.301 18.691 19.911 20.821 21.521 21.921
2922.401 22.061 22.101 22.021 21.521 20.651 19.521 18.211 16.861 15.631 14.451
2941.691 13.141 11.851 10.841 9.921 8.961 8.261 7.761 7.401 6.921 6.371
2960.981 5.971 5.501 5.281 5.111 4.901 4.791 4.671 4.651 4.601 4.651
2980.271 4.811 5.101 5.321 5.571 5.841 6.011 6.541 7.121 7.491 7.811
2999.561 8.061 8.201 8.211 8.221 8.281 8.341 8.361 8.211 8.021 7.751
3018.850 7.321 6.931 6.641 6.251 5.911 5.761 5.551 5.301 5.151 5.001
3038.140 4.841 4.771 4.791 4.711 4.771 4.891 4.871 5.121 5.281 5.361
3057.430 5.601 5.821 6.311 7.101 7.811 8.431 9.301 10.311 11.041 11.571
3076.720 11.911 12.091 12.391 12.791 12.791 12.851 13.271 13.251 12.741 12.231
3096.009 11.921 11.781 11.931 12.001 11.981 12.031 11.871 11.471 11.141 11.201
3115.299 11.581 11.841 11.401 10.491 9.611 8.481 7.291 6.371 5.571 4.871
3134.589 4.191 3.401 2.581 2.091 1.821 1.571 1.2827 1.0972 1.0692 1.0377
3153.879 0.9408 0.9042 0.8529 0.7582 0.8381 0.7722 0.7243 0.684 0.5342 0.7019
3173.169 0.7144 0.5932 0.5668 0.5195 0.6488 0.5906 0.5404 0.6599 0.6896 0.5626
3192.458 0.397536 0.6532 0.6986 0.5397 0.5591 0.528 0.6422 0.7111 0.46563 0.42071
3211.748 0.5159 0.5202 0.5824 0.47994 0.46409 0.5719 0.625 0.5642 0.5585 0.6006
3231.038 0.7141 0.6829 0.44959 0.47703 0.3541 0.273 0.48694 0.6497 0.7367 0.6675
3250.328 0.6346 0.6707 0.6259 0.5069 0.41442 0.48383 0.6936 0.6646 0.5571 0.5571
3269.617 0.40911 0.3775 0.41655 0.41985 0.5716 0.5793 0.5181 0.6194 0.5676 0.43929
3288.907 0.41394 0.40428 0.5534 0.713 0.5762 0.382 0.271 0.3516 0.3243 0.19
3308.197 0.3282 0.42127 0.40935 0.41131 0.5435 0.5418 0.48431 0.4939 0.4556 0.41891
3327.487 0.394436 0.3428 0.3573 0.5561 0.7325 0.671 0.42451 0.38597 0.3799 0.3248
3346.777 0.3004 0.258 0.276 0.397706 0.47103 0.3386 0.45975 0.5113 0.47725 0.46437
3366.066 0.3365 0.3718 0.38466 0.3473 0.47355 0.44839 0.3196 0.45227 0.5144 0.45603
3385.356 0.3719 0.2975 0.43801 0.47447 0.265 0.2981 0.3293 0.3244 0.38386 0.3094
3404.646 0.173 0.3598 0.43543 0.3493 0.40618 0.38786 0.399661 0.3329 0.234 0.3018
3423.936 0.390207 0.44651 0.38884 0.122 0.143 0.3054 0.248 0.231 0.3366 0.3285
3443.225 0.266 0.3225 0.3719 0.165 0.132 0.225 0.213 0.197 0.239 0.43345
3462.515 0.6028 0.5143 0.3088 0.3727 0.42335 0.411 0.394205 0.42088 0.43984 0.3563
3481.805 0.255 0.274 0.3236 0.3067 0.3113 0.3523 0.297 0.167 0.15 0.3002
3501.095 0.3718 0.3588 0.5343 0.5742 0.319 0.142 0.204 0.277 0.259 0.087
3520.385 0.059 0.248 0.3728 0.3144 0.3153 0.43874 0.249 0.158 0.3441 0.3458
3539.674 0.3517 0.264 0.07 0.138 0.3025 0.3717 0.46498 0.5675 0.5695 0.44881
3558.964 0.3102 0.161 0.262 0.44311 0.5101 0.6456 0.38624 0.276 0.3633 0.3539
3578.254 0.3793 0.204 0.11 0.184 0.221 0.17 0.076 0.278 0.5586 0.5494
3597.544 0.43712 0.38423 0.3575 0.3074 0.256 0.3499 0.4235 0.3361 0.249 0.169
3616.833 0.159 0.294 0.400922 0.2943 0.193 0.28 0.3176 0.3056 0.3109 0.38984
3636.123 0.41201 0.3162 0.3276 0.3259 0.3526 0.3711 0.264 0.1 0.189 0.342
3655.413 0.40568 0.4156 0.4473 0.5092 0.291 0.222 0.325 0.22 0.2 0.2989
3674.703 0.5304 0.5154 0.43892 0.3782 0.195 0.14 0.3359 0.41454 0.3488 0.266
3693.993 0.229 0.329 0.397641 0.3301 0.247 0.3046 0.3302 0.44327 0.5102 0.4731
3713.282 0.6108 0.7651 0.5493 0.3239 0.327 0.48592 0.5072 0.3627 0.400032 0.3203
3732.572 0.075 0.152 0.267 0.308 0.195 0.22 0.256 0.129 0.229 0.3603
3751.862 0.3363 0.3016 0.289 0.196 0.282 0.3687 0.43291 0.5073 0.5287 0.5725
3771.152 0.3701 0.2991 0.43954 0.41561 0.5162 0.394769 0.222 0.3056 0.276 0.289
3790.441 0.4116 0.48615 0.5096 0.43653 0.3528 0.3713 0.393539 0.44068 0.41226 0.3126
3809.731 0.48204 0.5756 0.45669 0.3788 0.42347 0.42717 0.3283 0.5044 0.8034 0.7276
3829.021 0.5412 0.4998 0.3294 0.212 0.244 0.3792 0.48958 0.40654 0.3058 0.269
3848.311 0.4967 0.5994 0.41684 0.3144 0.3707 0.48312 0.5274 0.392846 0.3745 0.3652
3867.601 0.3245 0.48348 0.6304 0.672 0.8309 0.8782 0.7404 0.8772 0.9641 0.9163
3886.890 0.9818 1.0687 0.9169 0.8152 0.8826 0.9117 0.9448 0.8314 0.8271 0.9611
3906.180 1.0436 0.9409 0.7885 0.7755 0.6926 0.6774 0.6286 0.5801 0.6212 0.6316
3925.470 0.5853 0.6014 0.6717 0.5969 0.47764 0.43932 0.4423 0.4975 0.5525 0.5546
3944.760 0.4052 0.231 0.221 0.3205 0.41891 0.46692 0.44847 0.42308 0.3281 0.2975
3964.049 0.3568 0.48795 0.5612 0.47745 0.6325 0.7088 0.6064 0.5961 0.41753 0.4036
3983.339 0.44573 0.48991 0.6075 0.5858 0.46085 0.396484 0.4924 0.393953 0.48841 0.5286
##END=
