##TITLE=Chrysene
##JCAMP-DX=4.24
##DATA TYPE=INFRARED SPECTRUM
##ORIGIN=NIST Mass Spectrometry Data Center
##OWNER=NIST Standard Reference Data Program
Collection (C) 2018 copyright by the U.S. Secretary of Commerce
on behalf of the United States of America. All rights reserved.
##CAS REGISTRY NO=218-01-9
##MOLFORM=C 18 H 12
##$NIST SOURCE=MSDC-IR
##SPECTROMETER/DATA SYSTEM=HP-GC/MS/IRD
##STATE=gas
##XUNITS=1/CM
##YUNITS=ABSORBANCE
##XFACTOR=1.0
##YFACTOR=0.000001100
##DELTAX=4.0
##FIRSTX=550.0
##LASTX=3846.0
##FIRSTY=0.000392
##MAXX=3846
##MINX=550
##MAXY=0.011
##MINY=0
##NPOINTS=825
##XYDATA=(X++(Y..Y))
550.0 356 362 463 561 722 863 946 960 830 677
590.0 474 371 332 320 350 319 288 309 304 256
630.0 247 242 250 298 339 375 402 467 504 495
670.0 585 969 1532 1756 1331 744 503 460 473 461
710.0 429 417 457 547 637 729 981 1532 2763 4793
750.0 7421 9843 10000 7676 4983 2856 1564 990 784 802
790.0 940 1486 2447 3689 5112 4976 3597 2286 1188 696
830.0 598 576 565 658 872 1145 1416 1599 1443 1146
870.0 1058 1100 1069 876 657 595 636 636 588 555
910.0 507 484 509 536 533 558 587 614 670 659
950.0 628 617 584 550 504 511 491 453 455 466
990.0 492 496 515 568 635 683 736 811 888 1153
1030.0 1450 1388 1025 706 562 539 470 402 440 440
1070.0 463 462 444 444 396 400 417 369 357 314
1110.0 273 270 184 182 219 204 210 237 319 383
1150.0 326 235 211 169 118 105 114 138 242 369
1190.0 343 229 138 70 10 8 60 133 229 292
1230.0 316 297 252 276 392 584 769 863 873 739
1270.0 510 318 197 143 140 158 147 140 174 185
1310.0 164 148 132 120 130 147 138 139 159 145
1350.0 142 156 167 161 173 185 184 205 214 209
1390.0 202 241 268 261 310 418 577 811 1056 1177
1430.0 1101 893 664 500 451 417 402 386 377 419
1470.0 515 684 965 1222 1206 945 671 572 604 724
1510.0 846 908 888 787 658 541 471 460 440 409
1550.0 394 383 374 335 323 335 344 367 431 532
1590.0 643 696 661 629 590 587 634 635 546 453
1630.0 383 353 327 283 268 262 241 243 252 274
1670.0 349 469 597 659 665 594 485 395 328 276
1710.0 265 304 329 325 311 304 325 358 435 511
1750.0 507 446 395 398 420 445 437 398 334 267
1790.0 248 269 306 322 340 352 346 340 359 394
1830.0 382 306 212 157 154 159 154 146 144 156
1870.0 178 229 311 363 388 404 411 449 480 497
1910.0 506 460 398 349 331 373 476 572 549 399
1950.0 250 162 118 110 108 93 98 101 88 99
1990.0 94 63 63 94 96 78 74 91 85 68
2030.0 68 71 73 52 47 66 66 59 66 72
2070.0 69 56 55 69 58 32 42 58 59 61
2110.0 68 67 67 64 62 55 38 34 50 51
2150.0 48 54 62 42 20 28 25 26 28 43
2190.0 57 42 46 43 37 37 39 42 19 0
2230.0 19 27 13 8 30 34 18 18 23 17
2270.0 20 26 32 40 42 42 42 70 92 80
2310.0 62 59 60 59 61 80 86 67 57 72
2350.0 78 55 36 34 35 25 25 44 53 54
2390.0 70 80 63 48 48 69 77 59 47 36
2430.0 46 57 62 71 64 49 47 57 52 57
2470.0 58 56 77 87 80 74 73 61 44 54
2510.0 69 66 59 53 62 81 95 107 85 64
2550.0 55 47 71 67 64 92 71 50 41 38
2590.0 41 39 54 47 34 47 43 42 43 63
2630.0 72 57 73 80 86 82 77 58 43 47
2670.0 56 49 21 29 52 72 73 59 51 59
2710.0 82 87 62 69 81 69 53 38 26 33
2750.0 78 97 88 55 44 71 84 89 108 100
2790.0 78 70 61 82 96 107 120 94 87 97
2830.0 102 90 77 87 88 104 128 137 158 146
2870.0 116 93 101 124 100 101 105 120 107 112
2910.0 158 182 202 199 234 245 207 206 216 216
2950.0 250 274 235 219 263 255 215 220 259 277
2990.0 318 400 493 597 712 867 1039 1164 1300 1455
3030.0 1614 1779 2000 2333 2791 3384 4009 4521 4943 5164
3070.0 4960 4410 3740 3279 3088 2968 2751 2360 1863 1360
3110.0 971 728 571 480 415 330 259 240 241 202
3150.0 157 107 82 114 124 111 107 94 67 77
3190.0 137 164 163 137 131 125 111 100 86 111
3230.0 81 51 55 39 14 32 90 81 90 114
3270.0 87 68 85 89 46 33 86 96 71 88
3310.0 50 12 41 37 29 23 30 64 71 40
3350.0 51 78 42 18 33 37 53 94 67 29
3390.0 25 22 32 69 66 33 46 64 64 42
3430.0 34 54 36 44 53 72 88 58 39 21
3470.0 41 66 64 51 50 40 66 93 87 80
3510.0 78 65 37 49 66 89 84 66 65 18
3550.0 42 40 0 41 49 10 14 42 56 16
3590.0 17 54 23 30 87 109 92 23 5 77
3630.0 75 59 80 74 70 50 32 66 77 99
3670.0 119 117 117 87 96 107 92 65 115 122
3710.0 95 100 71 36 69 125 142 131 103 124
3750.0 142 96 122 170 151 110 86 87 71 90
3790.0 118 67 26 58 111 91 44 104 153 104
3830.0 118 170 122 147 171
##END=
