##TITLE=4,4'-Bis(2-hydroxyhexafluoroisopropyl)diphenyl
##JCAMP-DX=4.24
##DATA TYPE=INFRARED SPECTRUM
##ORIGIN=EPA-IR VAPOR PHASE LIBRARY
##OWNER=SRD/NIST
Collection (C) 2018 copyright by the U.S. Secretary of Commerce
on behalf of the United States of America. All rights reserved.
##CAS REGISTRY NO=2180-30-5
##MOLFORM=C 18 H 10 F 12 O 2
##$NIST SOURCE=MSDC-IR
##STATE=gas
##XUNITS=1/CM
##YUNITS=ABSORBANCE
##XFACTOR=1.
##YFACTOR=0.001
##DELTAX=1.929
##FIRSTX=549.8
##LASTX=4000.8
##FIRSTY=18.89
##MAXX=4000.75
##MINX=549.766
##MAXY=0.63527
##MINY=0
##NPOINTS=1790
##XYDATA=(X++(Y..Y))
549.766 18.89 17.17 15.61 14.41 13.59 13.27 12.99 12.87 12.91 12.51
569.056 11.81 11.1 10.13 9.12 8.42 7.55 6.82 6.55 6.32 5.99
588.346 5.74 5.63 5.4 4.98 4.98 5.14 5.12 5.11 5.03 4.95
607.636 4.93 5.01 5.15 5.21 5.13 4.97 4.83 5.08 5.22 5.1
626.926 5.23 5.17 4.9 4.74 4.75 4.85 4.93 4.97 5.09 5.2
646.216 5.23 5.3 5.26 5.21 5.14 5.35 5.82 6.5 8.11 11.48
665.506 17.83 24.69 25.87 20.35 13.6 9.7 7.81 6.93 6.64 6.4
684.796 6.45 6.76 7.3 8.26 9.75 12.1 15.62 21.13 29.6 41.25
704.086 55.68 70.22 80.22 82.22 75.95 64.23 51.08 39.91 31.99 27.19
723.376 24.94 24.68 26.48 30.38 35.85 41.92 47.37 50.1 48.52 42.96
742.666 35.31 28.26 23.88 23.39 29.48 46.15 62.87 58.99 37.47 19.8
761.956 12.85 10.37 9.55 9.22 8.52 7.58 6.71 6.06 5.57 5.25
781.246 5.15 5.31 5.53 5.77 6.03 6.4 6.7 7.08 7.56 8.06
800.536 9.02 10.36 12.34 15.51 20.3 27.69 38.47 52.52 67.52 78.58
819.826 81.36 74.76 61.87 47.87 36.75 29.38 24.72 21.86 19.99 18.74
839.116 18.02 17.78 17.93 18.12 18.09 17.54 16.28 14.61 12.88 11.23
858.406 9.91 9.08 8.75 8.74 8.75 8.74 8.76 8.73 8.65 8.74
877.696 9.02 9.32 9.73 10.29 10.97 11.72 12.6 13.79 15.32 17.2
896.986 19.69 22.89 26.91 32.11 38.84 47.52 58.98 74.38 94.31 118.17
916.276 143.27 164.34 175.24 172.89 159.96 142.59 126.02 112.61 102.68 95.78
935.566 91.21 88.56 87.23 86.63 86.09 84.85 82.22 78.1 73.29 69.17
954.856 67 67.47 70.8 76.49 83.57 90.79 96.92 101.04 102.28 100.28
974.146 94.84 86.18 75.52 64.46 54.36 46.1 39.8 35.1 31.69 29.29
993.436 27.76 27.2 27.75 29.71 33.73 43.49 59.37 67.65 56.39 36.9
1012.726 25.27 21.17 19.24 18.22 17.6 17.14 16.83 16.61 16.49 16.71
1032.016 17.19 17.78 18.36 18.54 18.23 17.57 16.95 16.67 16.51 16.4
1051.306 16.55 16.8 17.07 17.53 18.03 18.61 19.31 20.18 21.27 22.58
1070.596 24.09 25.89 28.1 30.78 34.05 38.13 43.37 50.13 58.57 68.95
1089.886 81.36 95.4 109.81 122.72 131.82 135.3 132.69 124.75 113.67 101.77
1109.176 90.43 80.19 71.07 63.09 56.17 50.65 46.83 44.64 44.21 45.36
1128.467 47.92 51.55 55.66 59.37 62.24 64.44 66.69 70.02 75.09 82.52
1147.757 92.69 105.63 121.05 137.86 154.92 172.08 189.94 210.48 235.23 263.31
1167.047 290.65 309.94 314.5 303.3 281.64 257.35 236.17 220.37 210.37 205.63
1186.337 205.36 208.91 215.4 223.95 233.37 242.83 252.14 261.45 271.72 284.93
1205.627 304.11 331.81 369.68 419 479.03 543.94 601.42 635.27 634.5 603.81
1224.917 559.17 517.01 485.99 467.27 458.82 456.9 456.48 452.77 443.45 430.6
1244.207 418.46 410.6 409.15 414.26 424.95 439.9 456.47 471.13 480.04 480.25
1263.497 470.98 453.99 432.59 410.77 390.82 373.11 356.34 338.69 319.18 298.02
1282.787 275.86 253.81 232.71 212.36 193.01 174.71 157.49 141.52 126.78 113.49
1302.077 101.78 91.78 83.48 76.68 71.35 67.64 65.3 64.16 63.56 62.45
1321.367 59.96 55.87 50.78 45.44 40.4 36.05 32.61 30.05 28.25 27.06
1340.657 26.32 25.87 25.66 25.68 25.79 25.9 26.12 26.44 26.76 27.2
1359.947 27.72 28.34 28.95 29.45 29.73 29.68 29.23 28.16 26.51 24.55
1379.237 22.43 20.35 18.45 16.89 15.68 14.78 14.17 13.82 13.72 13.7
1398.527 13.72 13.66 13.56 13.41 13.02 12.51 11.93 11.21 10.48 9.81
1417.817 9.25 8.73 8.21 7.74 7.24 6.83 6.45 6.11 5.81 5.68
1437.107 5.56 5.42 5.35 5.26 5.19 5.15 5.15 5.12 5.13 5.25
1456.397 5.41 5.54 5.69 5.96 6.35 6.72 7.1 7.6 8.19 8.73
1475.687 9.19 9.76 10.41 11.19 12.26 13.67 15.45 17.8 20.85 24.55
1494.977 28.86 33.46 37.47 40.28 41.04 39.41 35.09 29.27 23.8 19.18
1514.267 15.87 13.65 12.04 10.93 9.89 8.97 8.24 7.5 6.88 6.47
1533.557 6.2 5.87 5.69 5.71 5.6 5.44 5.36 5.33 5.44 5.61
1552.847 5.75 5.88 6.01 6.13 5.92 5.7 5.58 5.43 5.28 5.15
1572.137 5.03 5 4.97 4.81 4.7 4.66 4.67 4.72 4.85 5.06
1591.427 5.31 5.61 6.07 6.68 7.43 8.4 9.62 11.02 12.35 13.26
1610.717 13.47 12.76 11.33 9.55 7.85 6.51 5.54 4.85 4.34 3.98
1630.007 3.72 3.58 3.58 3.59 3.53 3.56 3.64 3.78 4.07 4.31
1649.297 4.39 4.53 4.58 4.29 4 3.74 3.56 3.51 3.44 3.44
1668.587 3.52 3.59 3.65 3.81 3.95 3.99 4.02 4.02 3.94 3.7
1687.877 3.47 3.3 3.09 2.99 2.93 2.86 2.89 2.79 2.69 2.69
1707.167 2.664 2.6248 2.5831 2.6524 2.76 2.85 2.8 2.72 2.71 2.6546
1726.457 2.6066 2.6094 2.603 2.6392 2.6222 2.5351 2.5198 2.5111 2.5146 2.5219
1745.747 2.5108 2.4726 2.468 2.4882 2.4362 2.4319 2.4679 2.4776 2.5394 2.5974
1765.037 2.6101 2.74 2.87 2.96 3.09 3.16 3.25 3.35 3.48 3.64
1784.327 3.82 4.14 4.5 4.92 5.33 5.66 5.92 5.9 5.57 5.02
1803.617 4.34 3.76 3.28 2.91 2.68 2.4987 2.3637 2.282 2.2141 2.1497
1822.907 2.083 2.0258 1.9345 1.8985 1.89 1.832 1.77817 1.75765 1.76513 1.76455
1842.197 1.77697 1.788 1.76177 1.77153 1.73201 1.73709 1.8014 1.8374 1.8477 1.8888
1861.487 1.911 1.8546 1.8699 1.9251 1.914 1.8873 1.8806 1.8963 1.9376 2.0045
1880.777 2.1189 2.2566 2.3741 2.4669 2.592 2.71 2.78 2.92 3.08 3.16
1900.067 3.29 3.55 3.76 3.99 4.33 4.64 4.85 4.99 5.07 5.07
1919.357 4.93 4.69 4.45 4.15 3.84 3.58 3.38 3.15 2.99 2.87
1938.647 2.68 2.4772 2.3255 2.1784 2.0113 1.9083 1.8193 1.75908 1.7025 1.6254
1957.937 1.6062 1.602 1.6014 1.6175 1.6545 1.69969 1.7853 1.8384 1.8366 1.8944
1977.227 1.8925 1.8051 1.74805 1.72908 1.73712 1.73979 1.72081 1.72674 1.75772 1.72606
1996.517 1.69799 1.6734 1.6389 1.6268 1.5813 1.5809 1.578 1.531 1.464 1.433
2015.807 1.414 1.408 1.421 1.41 1.39 1.363 1.377 1.41 1.408 1.342
2035.097 1.317 1.302 1.259 1.251 1.248 1.212 1.179 1.147 1.148 1.141
2054.387 1.104 1.113 1.104 1.093 1.078 1.033 1.086 1.108 1.048 1.056
2073.677 1.052 1.112 1.15 1.149 1.172 1.176 1.229 1.279 1.315 1.344
2092.967 1.382 1.461 1.524 1.551 1.562 1.6059 1.618 1.6119 1.6327 1.6822
2112.257 1.71012 1.70964 1.8055 1.9536 2.0477 2.1503 2.2561 2.2645 2.3383 2.3963
2131.547 2.4021 2.4292 2.4458 2.4388 2.403 2.3561 2.312 2.2589 2.1933 2.1455
2150.837 2.0894 2.0364 2.01 2.0063 1.973 1.9322 1.9012 1.9007 1.9024 1.8934
2170.127 1.8674 1.9055 2.0027 2.0184 2.0236 2.0837 2.115 2.1384 2.1592 2.1567
2189.417 2.2153 2.2488 2.2356 2.2233 2.2022 2.2076 2.2349 2.2072 2.1187 2.0597
2208.707 2.0268 1.9956 1.9453 1.9027 1.8567 1.8038 1.74639 1.74 1.75516 1.69411
2227.997 1.6486 1.6697 1.67536 1.6182 1.6256 1.6269 1.626 1.67632 1.6537 1.6141
2247.287 1.5841 1.557 1.545 1.542 1.503 1.491 1.514 1.515 1.536 1.534
2266.577 1.513 1.522 1.537 1.531 1.513 1.573 1.5941 1.566 1.5868 1.575
2285.868 1.571 1.6659 1.70434 1.71935 1.8232 1.8745 1.9279 2.018 2.0421 2.0585
2305.158 2.0588 2.0064 2.0522 2.1053 2.0747 2.0843 2.126 2.2087 2.2697 2.2968
2324.448 2.4135 2.5783 2.7 2.83 2.95 3.06 3.14 3.2 3.27 3.28
2343.738 3.24 3.2 3.25 3.31 3.31 3.34 3.36 3.36 3.35 3.28
2363.028 3.24 3.21 3.21 3.18 3.15 3.15 3.1 3.08 3.05 3.03
2382.318 3.05 3.06 3.03 2.95 2.87 2.85 2.81 2.72 2.6378 2.5545
2401.608 2.5257 2.5116 2.3963 2.326 2.3308 2.3269 2.3508 2.3249 2.3186 2.303
2420.898 2.3039 2.2826 2.2312 2.2621 2.273 2.2055 2.1706 2.2431 2.2503 2.2198
2440.188 2.1993 2.1801 2.1174 2.0756 2.0697 2.0851 2.1182 2.0944 2.1186 2.1492
2459.478 2.0442 1.9825 2.0126 2.0209 2.0391 1.9992 1.9894 2.0203 2.025 2.007
2478.768 1.9508 1.915 1.8666 1.8392 1.7977 1.74716 1.77629 1.73597 1.67836 1.6145
2498.058 1.577 1.562 1.501 1.434 1.413 1.437 1.455 1.406 1.329 1.301
2517.348 1.303 1.351 1.338 1.317 1.282 1.256 1.257 1.195 1.179 1.182
2536.638 1.127 1.13 1.129 1.087 1.048 1.035 0.999 1.023 1.072 1.019
2555.928 0.958 0.899 0.825 0.808 0.836 0.815 0.841 0.866 0.883 0.863
2575.218 0.789 0.799 0.782 0.739 0.721 0.693 0.7 0.785 0.807 0.718
2594.508 0.741 0.785 0.821 0.814 0.769 0.803 0.848 0.854 0.846 0.881
2613.798 0.911 0.916 1.014 1.026 1.007 0.937 0.843 0.853 0.857 0.856
2633.088 0.833 0.749 0.685 0.696 0.739 0.748 0.706 0.66 0.61 0.6
2652.378 0.64 0.683 0.692 0.62 0.61 0.61 0.59 0.6 0.6 0.63
2671.668 0.68 0.757 0.734 0.64 0.66 0.67 0.64 0.67 0.747 0.763
2690.958 0.704 0.71 0.7 0.741 0.811 0.805 0.822 0.833 0.828 0.849
2710.248 0.909 0.901 0.815 0.886 0.978 0.955 0.945 1.017 0.997 0.909
2729.538 0.849 0.81 0.82 0.918 1.014 1.013 0.902 0.82 0.764 0.719
2748.828 0.697 0.66 0.65 0.59 0.5 0.56 0.58 0.48 0.53 0.61
2768.118 0.57 0.53 0.52 0.61 0.686 0.64 0.65 0.68 0.699 0.66
2787.408 0.59 0.47 0.46 0.54 0.48 0.42 0.47 0.54 0.56 0.6
2806.698 0.59 0.58 0.62 0.64 0.54 0.49 0.53 0.49 0.48 0.45
2825.988 0.47 0.54 0.49 0.4 0.43 0.47 0.49 0.53 0.43 0.34
2845.278 0.43 0.47 0.46 0.42 0.37 0.34 0.29 0.35 0.49 0.54
2864.568 0.49 0.46 0.43 0.42 0.44 0.51 0.55 0.56 0.56 0.61
2883.858 0.696 0.687 0.64 0.62 0.66 0.745 0.81 0.718 0.682 0.67
2903.148 0.63 0.65 0.63 0.48 0.5 0.57 0.46 0.4 0.37 0.35
2922.438 0.38 0.36 0.3 0.29 0.3 0.37 0.38 0.36 0.33 0.37
2941.728 0.46 0.3 0.17 0.25 0.24 0.2 0.26 0.38 0.38 0.32
2961.018 0.32 0.34 0.33 0.4 0.43 0.4 0.47 0.48 0.44 0.46
2980.308 0.47 0.5 0.58 0.61 0.58 0.56 0.6 0.65 0.684 0.699
2999.598 0.827 0.931 0.951 1.067 1.165 1.197 1.356 1.56 1.6552 1.7034
3018.888 1.8585 2.0154 2.0516 2.1074 2.26 2.4301 2.74 3.02 3.33 4.01
3038.178 4.67 5.52 6.7 8.01 9.5 10.67 11.15 10.9 10.19 9.43
3057.468 8.87 8.41 7.94 7.3 6.31 5.3 4.51 3.87 3.33 2.98
3076.758 2.69 2.6204 2.69 2.6493 2.72 2.91 3.05 3.05 2.99 2.95
3096.048 2.92 3.02 3.2 3.33 3.45 3.66 3.87 3.79 3.56 3.3
3115.338 2.87 2.3951 2.0631 1.8442 1.6611 1.43 1.272 1.258 1.167 1.064
3134.628 1.064 1.031 0.902 0.87 0.833 0.815 0.771 0.56 0.47 0.53
3153.918 0.5 0.39 0.34 0.25 0.15 0.13 0.19 0.21 0.22 0.11
3173.208 0 0 0.09 0.2 0.07 0.02 0.18 0.21 0.18 0.13
3192.498 0.12 0.15 0.14 0.12 0.07 0.1 0.07 0.09 0.24 0.18
3211.788 0.21 0.27 0.12 0.06 0.2 0.23 0.21 0.25 0.29 0.3
3231.078 0.23 0.18 0.16 0.27 0.4 0.44 0.49 0.44 0.39 0.49
3250.368 0.52 0.56 0.752 0.913 0.883 0.914 0.95 0.839 0.811 0.874
3269.658 0.847 0.804 0.951 0.94 0.87 0.995 1.031 0.988 1.035 1.056
3288.948 1.012 1.012 1.015 0.982 1.005 1.156 1.134 0.968 0.964 0.927
3308.238 0.903 0.929 0.836 0.837 0.879 1.006 1.234 1.22 1.158 1.209
3327.528 1.128 0.96 0.98 1.059 1.017 0.953 0.998 1.026 0.938 0.992
3346.818 1.123 1.083 0.986 0.914 0.972 1.114 1.049 1.01 1.104 1.179
3366.108 1.134 1.138 1.168 1.04 1.066 1.217 1.206 1.132 1.069 1.07
3385.398 1.04 0.96 1.02 1.105 1.082 1.131 1.182 1.152 1.162 1.104
3404.688 0.985 0.937 1.011 1.104 1.055 0.938 0.903 0.92 0.939 0.922
3423.978 1.081 1.228 1.05 0.894 0.944 1.05 1.07 1.035 1.09 1.122
3443.269 1.024 0.93 0.943 0.951 0.955 1.017 1.023 0.909 0.827 0.869
3462.559 0.939 0.929 0.846 0.771 0.749 0.892 1.021 0.997 0.962 0.92
3481.849 0.98 0.987 0.888 0.835 0.938 1.048 1.008 0.959 0.986 0.979
3501.139 0.924 0.899 0.911 1.033 1.115 1.045 0.968 1.023 0.982 0.956
3520.429 1.053 1.036 0.967 1.024 1.099 1.037 1.123 1.242 1.242 1.179
3539.719 1.189 1.231 1.233 1.181 1.137 1.176 1.238 1.287 1.323 1.402
3559.009 1.411 1.33 1.403 1.557 1.73787 1.8086 1.74157 1.7896 1.9098 2.0406
3578.299 2.1136 2.2245 2.3973 2.5639 2.76 2.96 3.23 3.61 4.07 4.53
3597.589 4.97 5.47 6.23 7.25 8.33 9.73 11.62 14.14 17.87 23.59
3616.879 32.88 48.43 73.36 108.18 144.15 160.24 144.11 111.36 83.24 63.01
3636.169 48.65 37.99 29.99 23.92 19.4 16.15 13.66 11.4 9.6 8.37
3655.459 7.27 6.51 5.9 5.32 4.87 4.51 4.19 3.95 3.78 3.61
3674.749 3.48 3.27 2.95 2.72 2.6212 2.6511 2.6734 2.6019 2.48 2.3359
3694.039 2.2661 2.2044 2.1418 2.102 2.0828 1.9875 1.9262 1.9437 1.8533 1.7841
3713.329 1.6691 1.6294 1.69396 1.74841 1.8487 1.8051 1.68085 1.579 1.495 1.543
3732.619 1.6065 1.563 1.454 1.319 1.275 1.349 1.504 1.6208 1.607 1.54
3751.909 1.447 1.427 1.419 1.499 1.529 1.349 1.197 1.195 1.347 1.423
3771.199 1.419 1.395 1.295 1.257 1.324 1.239 1.138 1.228 1.341 1.319
3790.489 1.334 1.399 1.301 1.269 1.339 1.491 1.56 1.4 1.356 1.439
3809.779 1.387 1.31 1.39 1.466 1.468 1.518 1.6173 1.5982 1.479 1.441
3829.069 1.519 1.5894 1.5921 1.69636 1.7888 1.7868 1.74083 1.6501 1.556 1.522
3848.359 1.6067 1.71456 1.7649 1.73397 1.69217 1.7113 1.72815 1.7967 1.8105 1.76031
3867.649 1.8283 1.69371 1.6568 1.8941 1.9051 1.72875 1.72762 1.8509 1.8191 1.77023
3886.939 1.76415 1.8959 2.0044 1.937 1.931 1.9347 1.922 1.8901 1.8432 1.869
3906.229 1.9247 1.8218 1.7582 1.822 1.8316 1.8454 1.77909 1.8079 1.9558 1.9219
3925.519 1.8132 1.9338 1.8973 1.7476 1.8511 1.8854 1.75589 1.6299 1.5975 1.6421
3944.809 1.71887 1.69956 1.71229 1.722 1.76359 1.8742 1.8815 1.846 1.9241 1.9923
3964.099 1.8196 1.7494 1.7984 1.8839 1.8994 1.633 1.579 1.67833 1.6041 1.6401
3983.389 1.73476 1.6491 1.73729 1.7546 1.599 1.7899 1.8142 1.6549 1.548 1.382
##END=
