##TITLE=3-Chlorobenzo[b]thiophene-2-carbonyl chloride
##JCAMP-DX=4.24
##DATA TYPE=INFRARED SPECTRUM
##ORIGIN=EPA-IR VAPOR PHASE LIBRARY
##OWNER=SRD/NIST
Collection (C) 2018 copyright by the U.S. Secretary of Commerce
on behalf of the United States of America. All rights reserved.
##CAS REGISTRY NO=21815-91-8
##MOLFORM=C 9 H 4 Cl 2 O S
##$NIST SOURCE=MSDC-IR
##STATE=gas
##XUNITS=1/CM
##YUNITS=ABSORBANCE
##XFACTOR=1.
##YFACTOR=0.001
##DELTAX=1.92898
##FIRSTX=549.8
##LASTX=4000.7
##FIRSTY=2.043
##MAXX=4000.7
##MINX=549.759
##MAXY=0.124193
##MINY=0
##NPOINTS=1790
##XYDATA=(X++(Y..Y))
549.759 2.043 2.333 2.413 2.583 2.303 2.373 2.943 3.223 2.563 1.953
569.049 2.053 2.613 3.613 4.523 5.763 9.023 13.093 17.883 24.733 31.673
588.339 34.833 35.003 34.853 32.633 26.163 16.623 9.713 6.603 4.943 4.063
607.628 2.993 2.343 2.853 3.563 3.273 3.283 4.073 3.963 4.043 4.643
626.918 5.103 5.453 6.233 6.293 5.833 5.723 5.323 4.903 4.443 3.603
646.208 2.903 2.413 2.093 1.793 1.4073 1.623 1.923 2.163 2.643 2.683
665.498 2.703 2.923 3.573 4.833 5.923 6.693 7.383 8.563 9.953 9.913
684.787 8.823 8.203 7.913 8.183 8.713 9.513 11.433 13.623 16.063 18.333
704.077 19.143 19.263 19.343 18.553 17.163 15.643 14.713 15.303 16.073 17.793
723.367 20.803 25.463 32.453 35.093 34.393 38.563 46.233 53.753 59.803 63.133
742.657 64.123 63.753 61.933 58.203 52.963 48.883 48.473 45.543 36.463 29.013
761.947 25.003 20.983 17.673 15.163 13.553 13.803 15.073 16.843 19.593 22.363
781.236 24.043 25.033 24.603 22.703 19.943 16.283 12.603 9.543 6.953 5.173
800.526 4.783 4.943 4.903 4.583 4.103 3.673 3.783 3.873 3.653 3.863
819.816 3.513 2.983 2.783 3.203 3.923 4.043 4.053 4.243 4.873 5.473
839.106 6.063 7.003 8.033 9.363 10.723 12.083 12.833 12.753 12.773 12.613
858.395 11.743 10.353 9.123 8.013 7.343 7.253 7.153 7.353 7.973 8.333
877.685 9.133 10.163 11.283 12.713 14.693 17.723 21.453 25.833 30.933 36.553
896.975 41.383 44.913 47.803 49.453 49.413 48.813 48.043 46.123 44.003 42.463
916.265 40.483 38.333 36.803 34.953 31.763 28.943 26.353 24.873 24.593 25.063
935.555 27.333 30.893 36.143 42.273 48.463 53.903 56.873 55.943 52.503 48.173
954.844 41.483 32.713 24.173 17.593 13.203 10.703 9.253 8.163 7.313 6.453
974.134 5.993 5.423 5.163 4.373 3.653 4.023 3.803 3.333 3.413 3.363
993.424 3.223 3.033 2.713 3.223 4.073 4.673 5.013 4.713 4.883 5.463
1012.714 6.063 6.863 5.813 5.193 5.763 5.283 4.453 3.403 3.053 2.693
1032.003 1.953 1.883 2.693 2.793 2.053 1.543 1.5196 1.883 1.623 1.683
1051.293 2.673 2.463 1.2675 1.2688 2.723 3.463 4.373 5.663 6.613 7.313
1070.583 7.563 8.303 7.523 6.863 6.943 5.263 3.433 2.923 2.793 3.473
1089.873 3.183 1.603 1.4514 1.783 1.723 2.263 2.993 2.403 2.193 1.993
1109.163 2.003 3.703 5.183 6.333 7.843 9.273 10.973 13.403 14.323 15.143
1128.452 16.633 18.103 18.743 17.953 18.513 19.663 20.703 24.113 28.983 34.873
1147.742 42.833 52.493 61.983 69.543 74.923 77.453 77.363 75.343 71.693 67.943
1167.032 64.493 61.023 58.093 54.943 50.373 43.713 36.343 28.023 20.683 15.383
1186.322 12.443 10.863 9.423 8.663 7.133 4.983 4.823 6.423 6.593 5.983
1205.611 5.153 4.733 4.123 4.053 3.603 3.393 3.553 3.373 3.653 3.023
1224.901 1.993 2.173 3.323 3.763 4.283 6.143 7.603 8.763 10.633 13.023
1244.191 15.883 18.783 20.993 21.283 20.533 19.753 18.513 15.713 12.303 9.443
1263.481 7.563 6.703 6.033 5.633 4.693 4.003 3.733 3.553 3.283 3.313
1282.771 3.633 3.103 3.393 4.123 4.943 6.153 7.103 8.753 11.273 13.923
1302.060 17.013 20.553 23.603 25.943 27.263 27.473 26.373 24.253 21.273 17.503
1321.350 13.803 10.513 8.323 6.833 5.593 4.843 4.473 4.403 4.353 4.313
1340.640 4.083 3.903 3.923 3.883 3.783 3.763 3.793 3.663 3.623 3.543
1359.930 3.523 3.523 3.453 3.423 3.223 2.923 2.633 2.473 2.263 2.143
1379.219 2.273 2.353 2.263 2.073 1.913 1.923 1.933 2.063 2.193 2.173
1398.509 2.273 2.383 2.523 2.873 3.633 4.573 5.663 7.083 8.893 11.103
1417.799 13.163 14.813 15.763 16.083 15.673 14.423 12.573 10.473 8.803 7.593
1437.089 6.613 6.043 5.773 5.783 6.373 7.383 8.613 10.273 12.003 13.283
1456.378 14.153 14.563 14.663 14.743 14.633 14.713 15.993 18.483 22.193 27.513
1475.668 33.813 41.283 49.283 56.783 63.163 67.493 69.373 68.983 66.363 61.503
1494.958 55.843 50.103 44.613 39.663 34.913 30.163 25.573 21.603 18.003 15.023
1514.248 12.693 10.543 8.963 7.973 6.953 6.223 5.843 5.543 5.293 5.093
1533.538 5.233 5.633 5.603 5.343 5.223 5.043 4.973 4.923 4.793 4.653
1552.827 4.793 5.073 4.873 4.563 4.453 4.103 3.663 3.173 2.813 2.883
1572.117 3.203 3.253 3.163 3.523 3.833 3.793 4.013 4.703 5.463 6.133
1591.407 6.683 6.993 7.113 7.083 6.903 6.693 6.053 5.273 4.643 3.983
1610.697 3.623 3.193 2.743 2.493 2.313 2.153 1.813 1.573 1.743 1.963
1629.986 2.033 2.173 2.293 2.323 2.313 2.273 2.483 2.643 2.733 2.793
1649.276 2.743 2.623 2.483 2.643 2.743 2.673 2.583 2.623 2.603 2.693
1668.566 2.913 3.043 2.933 2.603 2.613 2.873 2.893 2.803 2.883 3.073
1687.856 3.543 4.003 4.413 4.903 5.103 5.293 5.543 5.773 6.003 6.123
1707.146 6.253 6.553 6.903 7.373 8.083 8.813 9.573 10.423 11.233 11.863
1726.435 12.783 14.543 16.383 18.183 20.613 23.593 26.893 29.813 31.783 33.333
1745.725 34.363 34.593 33.993 32.763 31.433 30.753 31.083 32.923 37.273 44.993
1765.015 57.233 73.923 93.053 110.043 120.463 124.193 124.083 119.103 105.143 83.633
1784.305 62.043 45.403 34.093 26.553 21.353 17.983 15.973 14.683 13.783 13.273
1803.594 13.083 12.903 12.943 13.043 12.843 12.333 11.363 10.283 9.213 8.203
1822.884 7.483 6.643 5.773 5.043 4.593 4.353 4.033 3.753 3.593 3.533
1842.174 3.563 3.693 3.783 3.653 3.393 3.243 3.223 3.123 3.193 3.223
1861.464 3.193 3.213 3.063 2.813 2.813 3.043 3.063 3.113 3.053 2.933
1880.754 2.943 2.953 3.023 2.863 2.603 2.523 2.423 2.453 2.563 2.813
1900.043 3.033 3.113 3.213 3.383 3.653 3.713 3.573 3.363 3.063 2.813
1919.333 2.513 2.363 2.243 1.883 1.723 1.723 1.773 1.783 1.683 1.803
1938.623 2.073 2.183 2.413 2.643 2.683 2.643 2.563 2.203 1.863 1.673
1957.913 1.4248 1.2439 1.112 1.1974 1.1626 1.0783 1.1881 1.1304 0.9877 1.0904
1977.202 1.0208 1.0087 1.13 1.1661 1.3003 1.2557 1.1812 1.0584 1.0581 1.2236
1996.492 1.3069 1.3885 1.3503 1.3129 1.2348 1.1095 1.1842 1.2076 0.9932 0.9529
2015.782 0.9998 1.0079 0.9594 1.0244 1.1392 1.0431 1.1055 1.1411 1.0697 1.023
2035.072 0.9902 1.0614 1.0788 1.1414 1.1792 1.1876 1.232 1.2958 1.3249 1.2079
2054.362 1.2378 1.4244 1.3604 1.1405 1.1736 1.1499 1.1241 1.1814 1.251 1.2758
2073.651 1.1589 1.0151 0.9913 1.0717 1.0384 0.9861 0.9179 0.8767 1.034 1.0697
2092.941 1.112 1.0564 0.8613 0.7857 0.7784 0.9849 1.0866 1.022 0.9605 0.8661
2112.231 0.8943 0.9814 1.0499 1.0541 0.9955 1.0489 1.0197 0.8892 0.7185 0.7538
2131.521 0.7905 0.9314 0.9473 0.8687 1.0439 0.8625 0.7578 0.7452 0.6619 0.8216
2150.810 0.7784 0.871 1.0243 0.9582 0.8324 0.6549 0.8959 1.2378 1.1966 1.0396
2170.100 1.0143 0.9912 0.8093 0.734 0.856 0.788 0.7263 0.904 1.0813 1.2664
2189.390 1.2896 1.1935 1.1959 1.0734 0.9962 1.0282 1.0945 1.0291 0.8812 0.8964
2208.680 1.0174 0.9697 1.0251 1.0149 0.9706 1.0442 0.9683 1.0615 1.1418 1.0813
2227.970 0.9719 1.0629 1.1853 1.1817 1.1725 1.1548 1.1819 1.0884 0.9805 0.8465
2247.259 0.9324 0.9933 0.9576 1.0148 0.9702 1.0717 1.1929 0.9177 0.7967 1.1118
2266.549 1.3214 1.2547 1.2007 1.0081 0.7948 0.9145 0.9682 1.0755 1.0169 0.8914
2285.839 0.9578 0.8999 0.7359 0.9118 1.1742 1.2514 1.2249 1.3587 1.4071 1.2085
2305.129 1.1774 1.078 1.1169 1.2826 1.3218 1.3427 1.3944 1.5174 1.4416 1.4287
2324.418 1.4879 1.2403 1.1574 1.3333 1.3352 1.1374 0.958 0.8144 0.9275 1.0485
2343.708 1.0277 0.9469 1.1165 1.3418 1.1339 1.0305 1.0523 0.8664 0.8035 0.8478
2362.998 0.7983 0.7537 0.8364 0.8185 0.7046 0.828 1.0062 0.9835 0.7852 0.979
2382.288 1.1297 1.1631 1.2178 1.0528 0.9809 0.8745 0.8794 0.8623 0.8873 0.9708
2401.578 0.7622 0.823 1.0569 1.0112 0.9297 1.0435 1.1016 1.0509 1.1645 1.2793
2420.867 0.9745 0.8312 0.9555 0.9584 1.0366 1.1302 1.2023 1.2764 1.0924 0.7977
2440.157 0.6685 0.5952 0.58766 0.7538 1.0105 0.9621 0.9956 1.0336 0.9714 0.8654
2459.447 0.7513 0.9147 1.0332 0.904 0.9094 1.0324 1.067 0.9751 0.9166 0.8951
2478.737 0.9171 0.9942 0.9537 0.9494 0.9105 0.9329 1.0723 1.2027 1.2626 1.1525
2498.026 1.1536 1.1777 1.0652 0.9929 0.6853 0.6539 0.6647 0.58157 0.7692 1.0646
2517.316 0.9681 0.8664 0.9897 0.8162 0.8083 0.9633 0.8884 0.8052 1.0121 1.1629
2536.606 0.9998 0.9872 1.2134 1.3419 1.2277 1.045 1.0251 1.0276 1.0708 1.0753
2555.896 0.9518 1.0738 1.3837 1.3964 1.3353 1.4346 1.3161 1.0217 0.9159 1.029
2575.186 1.0948 1.0912 1.1994 1.2199 1.2722 1.4308 1.533 1.4607 1.4152 1.3146
2594.475 0.9247 0.8551 1.0047 0.8921 1.0773 1.2012 0.9903 1.0149 1.0084 1.0414
2613.765 1.085 1.075 1.3438 1.5234 1.613 1.633 1.633 1.5185 1.3495 1.4614
2633.055 1.573 1.673 1.663 1.563 1.4115 1.4179 1.693 1.923 1.563 1.2243
2652.345 1.3977 1.4505 1.613 1.573 1.4553 1.563 1.5316 1.5015 1.543 1.583
2671.634 1.4765 1.3263 1.2585 1.1354 1.0444 0.8794 0.8039 0.9504 0.9873 0.9667
2690.924 0.9938 0.9913 1.0174 1.0578 1.024 0.7818 0.7856 1.16 1.2249 1.2023
2710.214 1.0515 0.9283 0.9661 0.9205 1.0303 1.1127 0.7562 0.6955 1.1719 1.3435
2729.504 1.1452 1.1567 1.282 1.2978 1.4552 1.5196 1.234 0.9093 0.8086 0.8734
2748.794 0.9286 0.8852 1.0876 1.1058 0.9804 0.8011 0.645 0.9167 1.0607 0.8514
2768.083 0.9254 0.8214 0.6838 0.9329 0.9095 0.62436 0.8115 1.1794 0.9373 0.63047
2787.373 0.6335 0.775 0.6713 0.467 0.58722 0.8988 1.1076 1.2671 1.0826 0.7717
2806.663 0.9498 1.3391 1.1933 0.8702 0.8152 0.9546 1.2262 1.2769 1.2014 0.9732
2825.953 0.83 0.9562 0.8131 0.7715 0.7451 0.715 1.0067 1.2295 0.9224 0.7129
2845.242 0.761 0.779 0.7784 0.6137 0.7495 0.893 0.9085 0.7776 0.815 0.9742
2864.532 1.0212 1.3535 1.2104 0.55524 0.7452 1.0682 0.8644 0.7981 0.7933 0.8086
2883.822 0.7476 0.9288 0.9716 0.9336 0.91 0.7809 1.1061 1.1508 1.0907 1.0942
2903.112 0.7998 0.60624 0.7582 1.1127 1.2353 1.0005 1.0783 0.9139 0.6389 0.7983
2922.401 1.0887 1.1987 0.9947 1.1337 1.3959 1.0792 0.8214 1.0632 0.9732 0.9057
2941.691 1.2289 1.1692 1.0196 0.8319 0.776 0.8552 1.0694 1.402 1.2822 1.0426
2960.981 1.1853 1.1414 0.8589 0.9908 0.6722 0.353 0.58738 0.74 0.8789 0.8792
2980.271 1.0554 1.0247 0.687 0.8909 0.934 0.9942 0.9554 0.59483 0.8139 1.207
2999.561 1.3572 1.373 1.4715 1.2832 1.1873 1.4111 1.1954 1.0592 1.1159 1.3277
3018.850 1.4482 1.2252 1.2637 1.4561 1.763 2.043 2.073 1.903 1.903 2.133
3038.140 1.923 1.613 1.4931 1.5277 1.643 1.793 1.883 2.353 2.843 2.943
3057.430 3.253 4.143 5.583 6.933 7.843 8.943 10.513 11.653 12.083 11.873
3076.720 11.433 10.673 9.453 7.733 6.563 5.923 4.863 4.013 3.453 2.973
3096.009 2.593 2.473 2.393 2.223 2.103 2.323 2.523 2.623 2.583 2.413
3115.299 2.253 1.893 1.723 1.903 1.753 1.623 1.4581 1.3414 1.633 1.883
3134.589 1.643 1.0885 1.1391 1.3056 1.0986 0.9299 0.9765 1.0903 0.9139 0.9549
3153.879 1.2414 1.0371 0.85 1.0056 1.1008 0.8283 1.0205 1.3509 1.0946 0.9123
3173.169 0.63298 0.63286 0.771 0.7797 0.7674 0.729 0.8869 0.8762 0.8466 1.0338
3192.458 0.7413 0.6615 1.1591 1.097 0.8287 0.8771 1.1874 1.5239 0.8779 0.693
3211.748 1.1298 0.829 0.9341 0.9194 0.898 0.9029 0.7432 0.491 0.377 0.4482
3231.038 0.60447 0.9123 0.9048 0.7621 0.9846 1.105 1.2694 1.3893 0.9231 0.61282
3250.328 1.0487 1.0836 1.0358 1.2872 1.0914 1.0977 0.932 0.7863 0.851 1.1883
3269.617 1.266 1.1595 1.2907 1.0139 0.9651 0.9289 0.7254 0.8796 0.9434 1.0166
3288.907 0.8193 0.8772 0.8353 0.6747 1.3181 1.4682 1.2626 1.3591 1.287 0.9176
3308.197 0.4626 0.431 0.7352 0.708 0.7419 0.8318 0.61384 0.6842 0.8807 1.1897
3327.487 1.0126 0.7881 0.7228 0.5038 0.7971 0.9675 1.0386 1.3309 1.0847 0.6448
3346.777 0.8034 0.55652 0.4403 0.4567 0.5767 0.8164 0.52775 0.55157 0.533893 0.6353
3366.066 0.56734 0.5806 0.9057 0.6452 0.4564 0.7475 0.637 0.6526 0.6378 0.29
3385.356 0.6895 0.7981 0.428 0.5149 1.0642 1.3385 1.2848 1.2384 1.1019 1.1653
3404.646 0.9537 1.046 1.0139 0.538935 0.59882 0.413 0.4902 0.60386 0.296 0.4407
3423.936 0.8931 1.3449 0.9245 0.6544 0.9868 0.8653 1.1175 1.0705 0.61207 0.7175
3443.225 0.7311 0.8098 0.9651 0.8819 1.2082 1.703 1.753 1.2883 0.9424 0.9369
3462.515 1.0609 1.3558 1.4543 1.3476 1.3654 1.3553 0.9136 0.7066 1.0438 1.0202
3481.805 0.9579 0.8816 0.7281 0.78 0.535058 0.7657 1.3174 0.7863 0.375 1.0025
3501.095 1.653 1.593 1.3913 1.773 1.803 1.3511 1.1024 0.9061 0.9556 1.25
3520.385 1.2965 1.4969 2.163 2.093 1.563 1.653 1.723 1.813 1.913 1.953
3539.674 1.793 1.4276 1.3883 1.2838 1.3431 1.5167 1.4667 1.0049 0.8482 1.1504
3558.964 1.4341 1.4123 1.2987 1.4963 1.2563 1.4337 1.703 1.3585 0.9979 1.1846
3578.254 1.0053 0.541669 1.0243 1.0716 0.61007 0.4714 0.535666 0.8255 1.1437 0.8078
3597.544 0.6589 1.0265 1.1673 0.7839 0.419 0.116 0.185 0.9063 1.0657 0.8536
3616.833 0.9537 0.8837 0.6553 0.4704 0.422 0.56668 0.352 0.304 0.541738 0.9241
3636.123 1.2645 0.8238 0.8281 0.9039 0.395 0.6724 0.7875 0.57328 0.7722 0.8287
3655.413 0.536852 0.37 0.7659 0.9901 0.95 0.957 0.9148 0.6736 0.349 0.288
3674.703 0.7343 0.787 0.6855 0.7625 0.8248 1.0575 0.9661 0.6525 0.161 0.4633
3693.993 0.8401 0.6875 0.61274 0.7481 1.0099 0.9918 0.8229 0.6543 0.43 0.16
3713.282 0 0.126 0.183 0.164 0.54381 0.8356 0.8664 0.9706 0.9083 0.7419
3732.572 1.017 1.0257 0.7376 1.0114 0.8735 0.565 0.211 0.067 0.7346 1.0188
3751.862 0.8136 0.9444 0.9238 0.5045 0.58293 0.8207 0.8023 0.6809 0.7332 0.63128
3771.152 0.4536 0.8459 0.7086 0.8749 1.2593 0.58745 0.4552 0.9696 1.1253 1.2284
3790.441 1.4574 1.0086 0.7414 1.0852 1.0154 0.413 0.215 0.7413 0.876 0.7613
3809.731 0.6899 0.7023 0.7122 1.1379 1.1227 0.6491 0.8261 0.56718 0.4824 0.7872
3829.021 1.2638 1.553 1.0278 1.0187 1.3722 1.3084 0.9714 0.7308 0.9953 1.1474
3848.311 0.9016 1.0293 0.9359 0.144 0.148 0.6726 1.0113 1.0572 0.8887 0.9827
3867.601 0.9245 0.7359 0.5081 0.4797 1.0839 1.2022 0.7251 0.4583 0.4673 0.60895
3886.890 0.427 0.5029 0.358 0.279 0.4589 0.327 0.6355 0.822 0.8218 1.0871
3906.180 0.9228 0.9466 1.0437 0.361 0.264 0.8239 0.9249 0.7163 0.7915 0.8831
3925.470 0.8925 0.9415 1.1366 1.1575 1.109 0.9688 0.413 0.8774 1.3545 1.0792
3944.760 0.60593 0.183 0.7785 1.2586 1.288 1.1683 0.6406 0.9242 1.2081 0.7236
3964.049 0.60081 0.7935 0.5121 0.8529 1.3528 0.6449 0.55119 1.1708 1.114 0.6546
3983.339 0.533066 0.7534 0.8753 0.7552 0.60645 0.4911 0.60725 0.7324 0.6918 0.639
##END=
