##TITLE=2,2'-Dichlorobenzil
##JCAMP-DX=4.24
##DATA TYPE=INFRARED SPECTRUM
##ORIGIN=EPA-IR VAPOR PHASE LIBRARY
##OWNER=SRD/NIST
Collection (C) 2018 copyright by the U.S. Secretary of Commerce
on behalf of the United States of America. All rights reserved.
##CAS REGISTRY NO=21854-95-5
##MOLFORM=C 14 H 8 Cl 2 O 2
##$NIST SOURCE=MSDC-IR
##STATE=gas
##XUNITS=1/CM
##YUNITS=ABSORBANCE
##XFACTOR=1.
##YFACTOR=0.001
##DELTAX=1.92934
##FIRSTX=549.9
##LASTX=3999.5
##FIRSTY=2
##MAXX=3999.53
##MINX=549.863
##MAXY=0.06305
##MINY=0
##NPOINTS=1789
##XYDATA=(X++(Y..Y))
549.863 2 1.96 1.9 1.93 1.95 1.81 1.81 2.09 2.11 1.82
569.156 1.6962 1.7251 1.6305 1.6594 1.88 1.86 1.7074 1.7244 1.7635 1.7018
588.450 1.7095 1.7326 1.6274 1.5609 1.7302 1.94 2.1 2.31 2.47 2.69
607.743 3.07 3.57 4.12 4.65 5.27 6.28 7.92 10.37 14.04 19.18
627.037 25.56 32.03 37.09 39.53 38.36 33.8 27.16 19.95 13.88 9.81
646.330 7.42 6 5.07 4.61 4.33 4.05 3.89 3.93 4.02 4.1
665.624 4.29 4.55 4.84 5.27 5.8 6.38 7.11 8 8.95 9.86
684.917 10.47 10.69 10.5 9.92 9.2 8.39 7.63 7.02 6.61 6.43
704.210 6.43 6.61 6.94 7.41 7.95 8.55 9.21 9.9 10.67 11.61
723.504 12.78 14.26 16.28 18.93 22.34 26.67 31.89 38.18 45.39 52.63
742.797 58.75 62.57 63.05 59.57 52.65 44.08 35.59 28.15 22.2 17.73
762.091 14.53 12.29 10.66 9.47 8.69 8.28 8.08 8.19 8.46 8.68
781.384 8.8 8.75 8.58 8.24 7.72 7.22 6.72 6.14 5.54 4.97
800.678 4.45 4.04 3.74 3.5 3.36 3.21 3.18 3.23 3.26 3.34
819.971 3.5 3.73 4.05 4.4 4.85 5.51 6.37 7.41 8.6 10.14
839.264 12.1 14.57 17.61 21.04 24.48 27.45 29.3 29.49 28.08 25.4
858.558 21.93 18.58 16.38 15.77 16.9 19.86 24.33 29.5 33.93 36.21
877.851 35.79 32.64 27.12 20.67 15.23 11.63 9.46 8.07 7.14 6.49
897.145 5.99 5.56 5.14 4.73 4.3 3.9 3.47 3.03 2.7 2.4
916.438 2.13 1.94 1.81 1.6592 1.6093 1.5228 1.4059 1.4594 1.4653 1.4771
935.732 1.5824 1.739 1.87 1.99 2.16 2.35 2.53 2.61 2.65 2.62
955.025 2.46 2.24 2.01 1.7451 1.543 1.4087 1.3099 1.2765 1.2339 1.2654
974.318 1.3361 1.3826 1.4264 1.4546 1.4584 1.452 1.4461 1.4165 1.4492 1.4891
993.612 1.4903 1.5288 1.57 1.6048 1.6747 1.7777 1.9 1.98 2.13 2.36
1012.905 2.61 2.97 3.36 3.82 4.39 5.02 5.79 6.68 7.74 9.08
1032.199 10.83 12.79 14.54 15.86 16.55 16.55 15.98 15.18 14.75 15.09
1051.492 16.37 18.36 20.48 22.1 22.74 22.27 20.72 18.35 15.79 13.59
1070.786 11.96 10.78 10.07 9.68 9.33 9.07 8.84 8.38 7.68 6.97
1090.079 6.26 5.52 4.89 4.43 4.02 3.73 3.64 3.6 3.51 3.54
1109.372 3.71 3.93 4.13 4.33 4.65 5.06 5.45 5.9 6.41 6.97
1128.666 7.49 7.87 8.13 8.25 8.07 7.62 7.03 6.31 5.69 5.28
1147.959 4.92 5.01 5.6 6.54 8.1 9.66 10.66 11.29 11.28 10.45
1167.253 9.46 8.72 8.45 8.83 9.7 10.99 12.84 15.26 18.13 21.65
1186.546 26.04 30.9 35.92 40.47 43.72 45.08 44.28 41.24 36.61 31.63
1205.840 26.84 22.29 18.3 15.47 13.21 11.09 9.47 8.3 7.26 6.46
1225.133 6.15 6.06 6.22 6.58 6.67 6.92 7.59 8.27 8.64 8.96
1244.426 9.26 9.34 9.43 9.61 10.13 11.49 13.99 17.66 22.12 26.3
1263.720 29.44 31.26 31.53 30.1 27.59 24.92 22.24 19.54 16.84 14.21
1283.013 11.89 10.09 8.72 7.65 6.9 6.36 5.97 5.68 5.44 5.26
1302.307 4.98 4.67 4.36 4.04 3.71 3.41 3.11 2.81 2.57 2.35
1321.600 2.17 1.98 1.84 1.717 1.6139 1.5781 1.4907 1.4178 1.3856 1.3646
1340.894 1.3558 1.3103 1.2797 1.2475 1.2017 1.2332 1.2466 1.19 1.1951 1.2282
1360.187 1.2488 1.2524 1.2447 1.2683 1.296 1.3007 1.2922 1.2835 1.2629 1.2436
1379.480 1.2763 1.336 1.3764 1.4092 1.434 1.4677 1.5021 1.6045 1.7628 1.85
1398.774 1.97 2.14 2.46 2.83 3.19 3.62 4.07 4.66 5.33 6.15
1418.067 7.12 8.33 9.83 11.76 14.24 17.23 20.75 24.46 27.83 30.14
1437.361 30.84 29.77 27.01 23.02 18.68 14.84 12.14 10.54 9.8 9.76
1456.654 10.24 11.09 12.12 13.17 14.01 14.51 14.55 14.19 13.37 12.2
1475.948 10.95 9.63 8.38 7.23 6.26 5.46 4.73 4.15 3.66 3.32
1495.241 3.05 2.77 2.54 2.32 2.14 1.98 1.86 1.769 1.7145 1.6623
1514.534 1.5848 1.5685 1.5452 1.4977 1.5046 1.5728 1.6378 1.6321 1.6716 1.7417
1533.828 1.82 1.96 2.07 2.22 2.46 2.74 3.07 3.48 3.9 4.39
1553.121 5.01 5.71 6.49 7.43 8.5 9.56 10.57 11.45 12.17 12.71
1572.415 13.06 13.42 14.12 15.3 16.93 19.13 21.76 24.38 26.42 27.42
1591.708 26.95 24.93 21.74 18 14.29 11.12 8.81 7.33 6.44 5.82
1611.002 5.41 5.08 4.73 4.39 4.12 3.89 3.7 3.54 3.41 3.28
1630.295 3.21 3.24 3.27 3.29 3.42 3.59 3.74 4 4.38 4.77
1649.588 5.22 5.76 6.48 7.23 7.97 8.74 9.56 10.42 11.38 12.5
1668.882 13.81 15.42 17.43 19.97 23.16 26.98 31.73 37.15 43.08 48.9
1688.175 53.66 57.09 58.98 59.51 59.16 58.62 58.06 57.54 56.86 55.7
1707.469 53.98 51.65 48.82 45.5 41.86 38.1 34.32 30.63 27.01 23.57
1726.762 20.41 17.61 15.18 13.13 11.36 9.87 8.68 7.67 6.81 6.09
1746.056 5.46 4.9 4.46 4.04 3.69 3.41 3.14 2.96 2.81 2.65
1765.349 2.49 2.36 2.24 2.13 2.06 1.97 1.86 1.82 1.83 1.83
1784.642 1.84 1.84 1.86 1.91 1.93 1.99 2.09 2.2 2.27 2.33
1803.936 2.41 2.44 2.46 2.46 2.4 2.35 2.28 2.17 2.1 2.03
1823.229 1.96 1.85 1.7809 1.7405 1.6951 1.6534 1.6144 1.5824 1.5426 1.5246
1842.523 1.4587 1.3798 1.3653 1.2966 1.2219 1.1482 1.0775 1.0208 0.9383 0.84278
1861.816 0.799221 0.808026 0.7581 0.7116 0.7276 0.7248 0.7204 0.7175 0.732 0.7488
1881.110 0.7549 0.79243 0.85715 0.89994 0.922 0.9473 0.9762 1.0307 1.0489 1.0419
1900.403 1.0333 1.0844 1.1867 1.2685 1.4035 1.516 1.6085 1.7356 1.86 1.99
1919.696 2.15 2.28 2.36 2.36 2.26 2.18 2.08 1.95 1.86 1.7903
1938.990 1.7059 1.6199 1.5972 1.6565 1.7071 1.7775 1.88 1.93 1.94 1.92
1958.283 1.86 1.7209 1.5449 1.3035 1.0747 0.9725 0.88478 0.7753 0.668 0.578
1977.577 0.548 0.562 0.559 0.549 0.548 0.498 0.472 0.495 0.491 0.478
1996.870 0.47 0.459 0.427 0.418 0.436 0.441 0.461 0.48 0.488 0.491
2016.164 0.482 0.463 0.444 0.461 0.48 0.463 0.455 0.464 0.459 0.452
2035.457 0.447 0.438 0.42 0.43 0.467 0.458 0.429 0.442 0.434 0.429
2054.750 0.41 0.382 0.387 0.394 0.404 0.444 0.478 0.438 0.442 0.459
2074.044 0.45 0.461 0.47 0.477 0.485 0.489 0.518 0.529 0.499 0.466
2093.337 0.457 0.483 0.49 0.475 0.474 0.452 0.431 0.447 0.472 0.495
2112.631 0.449 0.439 0.482 0.483 0.48 0.465 0.483 0.497 0.452 0.423
2131.924 0.447 0.498 0.513 0.477 0.453 0.484 0.519 0.489 0.48 0.492
2151.218 0.483 0.47 0.475 0.471 0.453 0.471 0.494 0.486 0.475 0.473
2170.511 0.444 0.454 0.468 0.432 0.42 0.408 0.425 0.421 0.416 0.42
2189.804 0.4 0.397 0.393 0.382 0.39 0.381 0.379 0.417 0.408 0.386
2209.098 0.382 0.384 0.388 0.398 0.411 0.404 0.381 0.38 0.395 0.411
2228.391 0.406 0.403 0.418 0.402 0.4 0.402 0.401 0.393 0.403 0.429
2247.685 0.408 0.399 0.392 0.42 0.48 0.478 0.435 0.42 0.45 0.473
2266.978 0.471 0.471 0.474 0.475 0.509 0.525 0.527 0.572 0.574 0.57
2286.272 0.578 0.555 0.582 0.645 0.637 0.609 0.61 0.61 0.595 0.582
2305.565 0.572 0.565 0.587 0.616 0.665 0.7043 0.7002 0.7349 0.769 0.79508
2324.858 0.84403 0.82789 0.7659 0.716 0.673 0.608 0.576 0.559 0.516 0.516
2344.152 0.496 0.471 0.499 0.49 0.458 0.467 0.472 0.445 0.421 0.434
2363.445 0.435 0.412 0.422 0.425 0.412 0.427 0.436 0.439 0.432 0.415
2382.739 0.397 0.399 0.427 0.428 0.424 0.433 0.472 0.474 0.447 0.452
2402.032 0.443 0.442 0.467 0.471 0.434 0.407 0.433 0.491 0.504 0.493
2421.326 0.484 0.487 0.488 0.505 0.563 0.557 0.55 0.546 0.526 0.504
2440.619 0.464 0.466 0.503 0.516 0.452 0.412 0.419 0.408 0.415 0.42
2459.912 0.416 0.429 0.438 0.446 0.468 0.507 0.507 0.468 0.465 0.459
2479.206 0.44 0.479 0.494 0.487 0.526 0.553 0.566 0.54 0.538 0.538
2498.499 0.549 0.532 0.475 0.507 0.499 0.44 0.427 0.416 0.419 0.453
2517.793 0.449 0.463 0.449 0.435 0.464 0.433 0.423 0.452 0.425 0.434
2537.086 0.49 0.524 0.537 0.513 0.501 0.538 0.579 0.612 0.589 0.537
2556.380 0.559 0.572 0.571 0.592 0.589 0.573 0.586 0.56 0.57 0.591
2575.673 0.588 0.556 0.473 0.453 0.481 0.508 0.452 0.406 0.449 0.498
2594.966 0.514 0.537 0.539 0.501 0.502 0.549 0.542 0.522 0.504 0.511
2614.260 0.516 0.478 0.46 0.468 0.523 0.561 0.568 0.562 0.546 0.528
2633.553 0.559 0.601 0.579 0.555 0.545 0.565 0.588 0.556 0.524 0.506
2652.847 0.519 0.533 0.503 0.489 0.479 0.427 0.394 0.431 0.466 0.424
2672.140 0.406 0.465 0.476 0.464 0.48 0.476 0.444 0.374 0.385 0.423
2691.434 0.404 0.376 0.405 0.436 0.45 0.464 0.444 0.47 0.564 0.618
2710.727 0.609 0.61 0.611 0.628 0.623 0.558 0.533 0.567 0.608 0.579
2730.020 0.512 0.479 0.383 0.368 0.417 0.453 0.485 0.492 0.499 0.423
2749.314 0.376 0.417 0.434 0.401 0.446 0.488 0.437 0.38 0.387 0.46
2768.607 0.495 0.506 0.441 0.343 0.347 0.388 0.428 0.4 0.358 0.388
2787.901 0.394 0.399 0.392 0.396 0.395 0.33 0.284 0.323 0.397 0.389
2807.194 0.281 0.267 0.3 0.281 0.328 0.409 0.398 0.381 0.369 0.333
2826.488 0.363 0.414 0.422 0.427 0.455 0.493 0.503 0.422 0.452 0.53
2845.781 0.538 0.547 0.608 0.579 0.483 0.423 0.48 0.547 0.45 0.435
2865.074 0.419 0.442 0.438 0.343 0.326 0.341 0.324 0.319 0.305 0.334
2884.368 0.385 0.372 0.402 0.373 0.333 0.343 0.343 0.243 0.194 0.256
2903.661 0.285 0.288 0.351 0.424 0.316 0.304 0.393 0.332 0.266 0.268
2922.955 0.269 0.247 0.248 0.291 0.303 0.343 0.378 0.336 0.288 0.262
2942.248 0.289 0.349 0.357 0.302 0.315 0.372 0.335 0.386 0.377 0.322
2961.542 0.412 0.453 0.422 0.472 0.639 0.658 0.677 0.7831 0.79291 0.87747
2980.835 0.89881 0.83643 0.86809 0.84768 0.8696 0.9693 1.0429 0.993 0.9613 0.9692
3000.128 0.9934 1.008 1.0286 1.1098 1.0723 1.0434 1.0993 1.1332 1.2134 1.2325
3019.422 1.2928 1.3942 1.3053 1.2415 1.2568 1.1682 1.1134 1.1407 1.1868 1.4035
3038.715 1.4228 1.2685 1.2867 1.4826 1.7831 1.95 2.08 2.41 3.02 3.82
3058.009 4.85 6.1 7.35 8.68 10 11.06 12.02 12.98 13.87 14.8
3077.302 15.48 15.46 14.62 12.95 10.83 8.73 6.93 5.49 4.59 3.91
3096.596 3.26 2.84 2.48 2.18 1.87 1.6021 1.4009 1.2136 1.1182 1.0839
3115.889 1.1549 1.1667 1.1235 1.1953 1.2706 1.3292 1.3097 1.2404 1.3373 1.3828
3135.182 1.3784 1.3704 1.3224 1.3212 1.2871 1.1065 0.9454 0.88115 0.79838 0.622
3154.476 0.555 0.489 0.374 0.358 0.399 0.379 0.323 0.276 0.083 0.133
3173.769 0.258 0.213 0.175 0.219 0.261 0.177 0.1 0.143 0.2 0.198
3193.063 0.151 0.092 0.08 0.203 0.26 0.117 0.035 0.089 0.156 0.236
3212.356 0.202 0.167 0.193 0.175 0.14 0.08 0.106 0.155 0.203 0.206
3231.650 0.155 0.107 0.236 0.265 0.04 0.023 0 0.042 0.16 0.119
3250.943 0.13 0.16 0.131 0.125 0.057 0.091 0.134 0.029 0.062 0.16
3270.236 0.239 0.261 0.156 0.111 0.115 0.041 0.015 0.128 0.215 0.108
3289.530 0.043 0.154 0.271 0.219 0.139 0.201 0.298 0.259 0.153 0.265
3308.823 0.344 0.375 0.459 0.434 0.463 0.47 0.451 0.345 0.294 0.358
3328.117 0.454 0.426 0.525 0.7002 0.573 0.632 0.665 0.524 0.428 0.602
3347.410 0.7768 0.645 0.687 0.87807 0.9226 0.79491 0.7156 0.86622 0.8558 0.821
3366.704 0.9393 1.0499 1.1591 1.0102 0.86339 1.0099 1.0031 0.86908 0.924 0.9802
3385.997 0.9051 0.9122 0.9595 0.9348 0.952 0.9028 0.83726 0.85125 0.85083 0.800797
3405.290 0.7 0.645 0.7618 0.81369 0.809354 0.7857 0.7236 0.7057 0.663 0.57
3424.584 0.48 0.531 0.632 0.582 0.473 0.461 0.54 0.575 0.427 0.302
3443.877 0.398 0.353 0.228 0.249 0.264 0.283 0.258 0.323 0.378 0.303
3463.171 0.27 0.31 0.391 0.405 0.432 0.335 0.187 0.163 0.26 0.32
3482.464 0.307 0.365 0.399 0.348 0.315 0.223 0.098 0.159 0.213 0.226
3501.758 0.249 0.245 0.251 0.241 0.263 0.333 0.333 0.293 0.306 0.303
3521.051 0.264 0.334 0.45 0.465 0.481 0.537 0.447 0.304 0.318 0.359
3540.344 0.33 0.349 0.384 0.378 0.345 0.305 0.274 0.255 0.356 0.403
3559.638 0.392 0.38 0.448 0.563 0.431 0.37 0.361 0.26 0.243 0.252
3578.931 0.279 0.342 0.367 0.371 0.454 0.485 0.392 0.312 0.324 0.378
3598.225 0.389 0.443 0.471 0.441 0.43 0.404 0.41 0.404 0.334 0.328
3617.518 0.39 0.361 0.329 0.359 0.329 0.309 0.374 0.381 0.425 0.441
3636.812 0.404 0.393 0.411 0.415 0.474 0.512 0.427 0.417 0.425 0.475
3656.105 0.449 0.393 0.402 0.377 0.392 0.456 0.44 0.486 0.481 0.396
3675.398 0.437 0.462 0.384 0.44 0.579 0.529 0.436 0.429 0.491 0.52
3694.692 0.491 0.492 0.459 0.433 0.457 0.532 0.62 0.588 0.565 0.58
3713.985 0.578 0.621 0.608 0.532 0.557 0.55 0.62 0.655 0.58 0.547
3733.279 0.613 0.7128 0.558 0.468 0.543 0.508 0.535 0.593 0.562 0.534
3752.572 0.544 0.583 0.612 0.599 0.549 0.587 0.608 0.612 0.611 0.601
3771.866 0.619 0.629 0.571 0.537 0.581 0.653 0.659 0.595 0.512 0.564
3791.159 0.681 0.654 0.62 0.555 0.56 0.659 0.734 0.7164 0.65 0.604
3810.452 0.586 0.619 0.629 0.613 0.551 0.511 0.509 0.482 0.459 0.484
3829.746 0.545 0.528 0.462 0.573 0.712 0.607 0.539 0.611 0.653 0.648
3849.039 0.581 0.428 0.432 0.516 0.529 0.593 0.483 0.397 0.462 0.493
3868.333 0.51 0.556 0.542 0.435 0.489 0.557 0.54 0.548 0.572 0.623
3887.626 0.644 0.584 0.54 0.565 0.614 0.642 0.621 0.475 0.407 0.503
3906.920 0.566 0.587 0.579 0.536 0.517 0.515 0.515 0.542 0.567 0.564
3926.213 0.545 0.538 0.552 0.572 0.503 0.471 0.555 0.575 0.619 0.67
3945.506 0.644 0.656 0.661 0.638 0.608 0.619 0.602 0.502 0.492 0.5
3964.800 0.437 0.477 0.577 0.622 0.56 0.457 0.448 0.576 0.604 0.54
3984.093 0.528 0.483 0.53 0.541 0.51 0.496 0.513 0.575 0.556
##END=
