##TITLE=2-Phthalimidopropionic acid
##JCAMP-DX=4.24
##DATA TYPE=INFRARED SPECTRUM
##ORIGIN=EPA-IR VAPOR PHASE LIBRARY
##OWNER=SRD/NIST
Collection (C) 2018 copyright by the U.S. Secretary of Commerce
on behalf of the United States of America. All rights reserved.
##CAS REGISTRY NO=21860-84-4
##MOLFORM=C 11 H 9 N O 4
##$NIST SOURCE=MSDC-IR
##STATE=gas
##XUNITS=1/CM
##YUNITS=ABSORBANCE
##XFACTOR=1.
##YFACTOR=0.001
##DELTAX=1.92898
##FIRSTX=549.8
##LASTX=4000.7
##FIRSTY=5.35
##MAXX=4000.7
##MINX=549.759
##MAXY=0.04813
##MINY=0
##NPOINTS=1790
##XYDATA=(X++(Y..Y))
549.759 5.35 5.97 5.8 5.9 6.14 6.16 5.9 4.65 3.89 3.69
569.049 3.94 3.53 3.45 3.34 2.41 2.0687 2.1759 2.95 4.2 3.91
588.339 4.06 4.99 4.7 4.54 4.76 4.41 4.47 4.31 4.37 5.15
607.628 5.05 4.75 4.55 3.99 3.46 3.47 3.9 4.38 4.48 3.39
626.918 2.69 3.12 3.07 2.74 2.29 1.6121 1.4247 2.24 2.0563 1.1461
646.208 1.6499 1.5227 1.0954 1.3968 1.7784 2.31 2.58 2.24 1.809 1.19578
665.498 1.4021 1.8061 1.3197 1.5619 2.29 2.0033 1.951 1.9023 1.6851 2.1439
684.787 2.0607 1.8514 2.0186 2.1223 1.9622 1.8381 1.9098 2.44 3.11 3.93
704.077 4.35 4.74 5.59 6.23 7.46 8.96 9.48 10.2 10.56 9.37
723.367 7.79 6.73 6.32 5.73 4.95 4.46 3.93 3.73 3.85 3.78
742.657 4.1 4.22 3.69 3.24 3.11 2.36 2.0935 2.1414 1.7523 1.8366
761.947 1.65 1.6074 1.5195 1.5342 2.0671 1.5821 1.3963 2.1217 1.8986 1.6445
781.236 1.5669 1.8923 2.76 2.71 2.53 2.69 2.35 1.8747 1.9755 2.58
800.526 2.71 1.9906 1.708 2.2 2.1324 1.497 1.9651 2.19 1.9948 2.81
819.816 3.73 2.69 1.8646 2.1658 1.8259 1.8578 1.6528 1.7604 1.7756 1.625
839.106 1.3479 1.3605 1.4218 1.7386 2.27 2.21 2.0667 1.9876 2.0451 2.48
858.395 2.67 2.0179 2.0365 2.21 1.5046 1.9583 2.61 2.72 2.56 2.58
877.685 3.45 3.41 3.67 4.18 3.96 3.63 3.67 3.09 2.8 2.77
896.975 2.54 2.53 2.56 2.56 2.83 3.26 3.01 3.09 3.25 3.52
916.265 3.56 3.42 3.35 2.99 2.79 2.42 2.23 2.1355 2.29 2.46
935.555 1.9594 1.6088 1.6715 1.4901 1.4075 1.8191 1.4988 1.1264 1.7991 2.1276
954.844 1.7328 2.0727 2.1886 2.24 1.9668 1.24583 1.4313 1.86 2.25 2.0819
974.134 1.4775 1.7103 1.7701 1.3862 1.7864 1.8958 1.26478 1.27556 2.43 2.5
993.424 1.8842 2.0828 2.28 2.36 1.9551 2.23 3.42 3.81 3.33 2.99
1012.714 3.73 4.49 4.24 4.22 4.91 5.38 5.22 4.58 3.28 3.2
1032.003 2.76 2.0791 3.07 3.21 2.99 3.54 3.68 3.28 3.76 4.11
1051.293 4.69 4.43 4.35 5.27 5.63 5.66 5.79 6.43 7.73 7.91
1070.583 8.07 8.69 7.53 7.36 7.86 9.69 10.76 10.51 10.46 7.95
1089.873 6.4 5.18 4.53 5.75 6.88 7.06 5.44 4.05 5.55 6.77
1109.163 6.35 5.51 4.78 4.81 7.02 9.04 8.25 9.37 10.34 10.74
1128.452 11.22 11.04 10.81 9.34 8.59 8.56 9.19 8.33 5.93 4.84
1147.742 5.53 7.06 6.32 5.99 6.53 5.94 5.83 6.81 6.89 5.96
1167.032 5.88 5.48 5.73 6.03 5.54 5.39 4.89 4.66 3.67 3.23
1186.322 3.43 2.72 2.7 3.62 5.65 4.98 3.63 3.8 2.65 2.65
1205.611 3.71 2.88 2.57 3.32 2.74 1.3806 0.718 2.58 2.54 2.1221
1224.901 2.22 2.36 2.77 1.8649 1.6527 2.7 2.89 3.09 5.1 4.9
1244.191 3.56 3.11 2.33 1.7062 2.83 3.59 3.26 3.39 3.88 3.9
1263.481 4.05 3.87 3.11 2.66 2.71 3.43 3.52 3.55 3.7 3.64
1282.771 3.65 3.76 3.71 3.46 2.96 2.74 3.2 3.5 3.32 3.46
1302.060 3.67 3.88 4.01 4.13 4.23 4.32 4.83 5.23 5.48 5.74
1321.350 5.81 5.96 6.23 6.43 6.69 6.97 7.04 7.05 7.18 7.42
1340.640 7.76 8.12 8.21 8.26 8.56 8.7 8.99 9.31 9.6 10.32
1359.930 11.27 12.18 13.18 14.36 15.86 17.81 20.29 23.17 25.98 28.52
1379.219 30.37 31.23 30.82 28.77 25.51 21.64 17.89 14.45 11.34 9.17
1398.509 7.82 6.62 5.75 5.43 4.93 4.4 4.16 4.22 4.21 3.95
1417.799 3.82 3.68 3.69 3.68 3.59 3.58 3.75 3.54 3.18 2.9
1437.089 2.7 2.87 2.99 2.96 2.98 2.97 2.95 2.99 3.15 3.22
1456.378 3.15 3.29 3.52 3.52 3.47 3.49 3.44 3.42 3.24 3.09
1475.668 3.14 2.77 2.33 2.24 2.24 2.0923 2.0262 2.0466 2.0193 1.9252
1494.958 1.7946 1.8132 1.8313 1.8188 1.6943 1.561 1.6671 1.7743 1.7302 1.731
1514.248 1.5517 1.4847 1.714 1.6784 1.7274 1.9729 1.8707 1.7768 2.0484 2.1707
1533.538 1.8985 1.5616 1.6408 1.7368 1.4419 1.4208 1.3497 1.3138 1.3871 1.4786
1552.827 1.8155 1.5635 1.5126 1.4669 1.26342 1.4682 1.577 1.5817 1.4181 1.3871
1572.117 1.3684 1.6071 2.0862 2.0513 1.6472 1.583 1.9273 2.0016 2.0361 1.9805
1591.407 1.6926 1.902 2.1842 2.26 2.1374 2.0382 2.3 2.49 2.66 2.78
1610.697 2.65 2.86 2.72 2.36 2.28 2.1481 2.21 2.015 1.7147 1.7329
1629.986 1.8899 1.8582 1.7421 1.6168 1.8022 1.9366 1.9369 1.8166 1.7647 2.0779
1649.276 1.8783 1.5742 1.741 1.8848 2.0442 2.0976 1.7754 1.6231 1.7673 1.9366
1668.566 2.38 2.47 2.1702 2.24 2.1383 2.0393 2.19 2.23 2.31 2.53
1687.856 2.79 3.06 3.02 2.97 3.13 3.3 3.4 4.03 4.37 4.6
1707.146 5.27 5.62 6.02 6.56 7.41 8.37 9.63 11.05 13.07 16.04
1726.435 19.52 24.07 29.77 35.44 41.42 46.18 48.13 48.09 46.63 43.02
1745.725 37.03 29.98 23.67 18.39 14.36 11.72 9.9 9.01 8.68 8.41
1765.015 8.55 8.99 9.57 10.64 12.46 14.87 17.77 21.15 24.47 27.18
1784.305 29.03 29.8 29.45 27.56 24.15 20.57 17.44 14.2 11.28 9.22
1803.594 7.57 6.64 5.8 4.98 4.85 4.75 4.45 4.13 3.92 3.77
1822.884 3.56 3.42 3.45 3.44 3.41 3.25 2.99 2.77 2.72 2.65
1842.174 2.67 2.65 2.48 2.21 2.1218 2.22 1.9494 1.8328 1.893 1.8835
1861.464 1.8307 1.8832 1.9474 2.032 2.1148 2.0054 1.8536 1.7172 1.7911 1.9836
1880.754 1.9317 1.8182 1.9031 1.8481 1.5547 1.7467 1.8717 1.6434 1.5372 1.6003
1900.043 1.7548 1.8102 1.6436 1.763 1.9899 1.8066 1.9051 1.892 1.6211 1.7525
1919.333 1.8214 1.8555 1.8671 1.7863 1.7526 1.6866 1.775 1.8903 1.8576 1.8327
1938.623 1.9362 1.7857 1.7526 1.8161 1.7355 1.5844 1.5707 1.639 1.4824 1.6043
1957.913 1.7747 1.5896 1.5017 1.5928 1.5528 1.6486 1.69 1.7045 1.8555 1.9634
1977.202 1.7799 1.5004 1.4995 1.6203 1.732 1.5771 1.3941 1.3862 1.625 1.8704
1996.492 1.8343 1.6608 1.6095 1.5175 1.3643 1.5949 1.7175 1.6255 1.6232 1.5737
2015.782 1.5921 1.5577 1.6207 1.6892 1.5667 1.5564 1.4677 1.4106 1.4145 1.4997
2035.072 1.78 1.6853 1.5314 1.5539 1.3703 1.3155 1.2867 1.4801 1.7541 1.5978
2054.362 1.5843 1.5003 1.3114 1.4312 1.5624 1.5595 1.6037 1.6253 1.4176 1.20463
2073.651 1.3413 1.5423 1.7359 1.7474 1.5391 1.5503 1.6408 1.3803 1.3069 1.3681
2092.941 1.2955 1.4688 1.3603 1.3977 1.6997 1.6651 1.5761 1.4553 1.3886 1.4186
2112.231 1.5694 1.6668 1.4602 1.4868 1.4608 1.27001 1.3495 1.2972 1.3516 1.4805
2131.521 1.5055 1.5498 1.4782 1.5352 1.5727 1.5341 1.6093 1.8142 1.8059 1.4667
2150.810 1.25633 1.3266 1.4588 1.5743 1.5874 1.5628 1.6713 1.6851 1.3948 1.402
2170.100 1.4877 1.386 1.4508 1.3989 1.3998 1.4035 1.3056 1.3012 1.4953 1.7571
2189.390 1.706 1.5201 1.4368 1.3464 1.255 1.22281 1.3804 1.4862 1.4779 1.5361
2208.680 1.3964 1.405 1.5984 1.7594 1.869 1.7621 1.8338 1.9564 1.7611 1.5214
2227.970 1.4664 1.5561 1.4322 1.3677 1.477 1.3833 1.4647 1.5165 1.4774 1.6594
2247.259 1.6582 1.5039 1.4906 1.4496 1.3257 1.3425 1.496 1.5808 1.5394 1.5325
2266.549 1.6723 1.7955 1.7913 1.6802 1.5798 1.6209 1.5916 1.3891 1.27966 1.392
2285.839 1.3916 1.044 1.18174 1.5519 1.6696 1.6238 1.4955 1.4963 1.6124 1.8287
2305.129 1.6972 1.5113 1.5165 1.6631 1.7637 1.6971 1.6126 1.6326 1.5633 1.7276
2324.418 1.8933 1.7955 1.8225 1.821 1.7085 1.558 1.5085 1.5115 1.5394 1.5985
2343.708 1.7813 1.6709 1.3335 1.6074 1.9314 1.6584 1.5358 1.6127 1.6311 1.5484
2362.998 1.3814 1.4984 1.84 1.7179 1.4162 1.4399 1.4011 1.18278 1.1559 1.4357
2382.288 1.5456 1.3441 1.21351 1.4166 1.5954 1.7272 1.887 1.8439 1.5721 1.7218
2401.578 2.0419 1.6737 1.5601 1.7451 1.8279 1.8753 1.565 1.3223 1.26551 1.4313
2420.867 1.6904 1.7363 1.5525 1.3703 1.5205 1.4855 1.4701 1.5647 1.19773 1.3314
2440.157 1.6791 1.5864 1.5809 1.723 1.8848 1.7706 1.8516 1.9502 1.8253 1.8089
2459.447 1.5548 1.28464 1.5566 1.765 1.8755 1.831 1.5047 1.7459 1.7647 1.28886
2478.737 1.20642 1.3827 1.4374 1.3561 1.20986 1.23674 1.5474 1.5543 1.1567 1.24545
2498.026 1.5627 1.5015 1.4371 1.4881 1.6261 1.8082 1.8969 1.7297 1.2881 1.2932
2517.316 1.7248 1.7374 1.5537 1.3331 1.23192 1.5023 1.6285 1.4569 1.5288 1.6179
2536.606 1.5872 1.771 1.7728 1.3242 1.022 1.26139 1.6053 1.6752 1.5836 1.289
2555.896 1.3255 1.607 1.6489 1.753 1.5383 1.23927 1.3935 1.5842 1.6898 1.6569
2575.186 1.3092 1.23156 1.4889 1.6597 1.6468 1.6581 1.6876 1.4136 1.28055 1.3102
2594.475 1.24239 1.4345 1.5825 1.28307 1.1263 1.631 1.6847 1.5908 1.6681 1.6911
2613.765 1.6368 1.3623 1.7021 1.7347 1.4811 1.5036 1.6424 1.6284 1.5862 1.8238
2633.055 1.8306 1.5127 1.6568 1.9964 1.7113 1.4648 1.3539 1.3588 1.3364 1.473
2652.345 1.6324 1.4933 1.5249 1.6283 1.4392 1.4985 1.4883 1.082 1.069 1.18978
2671.634 1.4225 1.5353 1.3544 1.27144 1.5422 1.5837 1.3454 1.4636 1.755 1.7678
2690.924 1.586 1.7022 1.4573 1.5084 1.8482 1.4551 1.046 1.02 1.28643 1.395
2710.214 1.2968 1.4672 1.553 1.5221 1.5886 1.3997 1.3066 1.23695 1.1309 1.3936
2729.504 1.4944 1.26412 1.3784 1.4722 1.3787 1.1624 1.22309 1.25342 1.007 1.28649
2748.794 1.4748 1.6978 1.8403 1.3988 1.3209 1.4403 1.18011 1.1065 1.19565 0.907
2768.083 1.128 1.5098 1.5906 1.6537 1.4133 1.5946 1.6239 1.4105 1.555 1.6227
2787.373 1.8037 2.0038 1.8304 1.3744 1.3511 1.5386 1.8666 2.1073 1.8277 1.5379
2806.663 1.3439 1.3903 1.4925 1.07 0.857 1.4242 1.2954 1.1025 1.525 1.7782
2825.953 1.4342 1.003 1.0968 1.6794 1.6099 1.1209 1.352 1.292 1.2993 1.5548
2845.242 1.4779 1.485 1.6061 1.7192 2.0508 1.5967 1.373 2.1872 2.51 1.9124
2864.532 1.4705 1.4553 1.5719 1.7305 1.7114 1.8207 1.8671 1.6115 1.65 2.052
2883.822 2.0072 1.7719 1.6921 1.8572 1.9281 1.8525 2.0749 2.35 2.1166 1.95
2903.112 1.9013 1.6855 2.0951 2.0752 1.9218 2.145 1.9104 2.0258 1.8854 1.8655
2922.401 2.1832 2.43 3.04 2.69 2.58 3.07 3.23 3.61 3.6 3.2
2941.691 2.89 2.42 2.55 3.02 2.99 3.13 3.16 3.05 3.19 3.09
2960.981 2.72 2.59 2.53 2.1526 1.735 1.9467 1.5824 1.1324 1.2953 1.2954
2980.271 1.7084 1.9922 1.9172 1.7558 1.6003 1.5405 1.6392 1.6401 1.8816 2.72
2999.561 2.66 2.4 2.72 2.6 2.1612 1.7408 1.6576 1.9775 2.0941 1.7607
3018.850 1.677 2.31 2.37 1.8822 1.4297 1.3464 1.5297 1.5696 1.9389 1.6074
3038.140 1.1539 1.7542 1.9371 1.618 1.7233 1.7502 1.6696 1.5628 1.5127 1.5306
3057.430 1.5931 1.9723 2.41 2.25 2.0356 1.5221 1.3289 1.9837 1.8654 1.5129
3076.720 1.8917 2.2 1.9584 2.1198 2.64 2.8 2.52 2.4 2.23 2.0919
3096.009 2.33 2.1239 2.1071 2.1287 1.8624 1.713 1.9793 1.9812 2.1136 2.1507
3115.299 1.6886 1.8034 1.8311 1.6146 1.4046 1.1084 1.4585 1.9552 1.5932 1.8096
3134.589 1.9142 1.5596 1.3805 1.4335 1.3499 1.4109 1.8779 1.5842 1.3734 1.4441
3153.879 1.5356 1.457 1.4852 1.7423 2.08 2.0807 2.1417 2.2 1.7777 1.7032
3173.169 1.8366 2.0893 2.26 2.35 2.46 2.34 1.7841 1.2907 1.1692 1.3599
3192.458 1.7439 1.4003 0.738 0.32 0.331 1.048 1.20896 1.27126 1.058 1.072
3211.748 1.5797 1.7494 1.699 1.6848 2.32 1.9243 1.047 1.3398 1.21373 1.4715
3231.038 2.055 1.9373 1.5143 1.3253 1.25267 1.015 1.084 1.04 0.878 0.746
3250.328 0.795 1.1454 1.21628 1.069 1.1951 1.6756 1.7994 1.18219 1.21664 1.26413
3269.617 1.1253 1.5911 1.4869 1.4907 1.8509 1.24237 1.21013 1.5558 1.25157 1.4658
3288.907 1.4627 1.28317 1.7073 2.27 1.9859 1.28547 0.887 0.897 0.955 0.9
3308.197 0.901 1.1257 1.4383 1.7597 2.2 1.8102 1.1413 1.4875 1.9481 1.4594
3327.487 0.687 0.804 1.6322 1.4282 0.543 0.785 0.95 0.789 1.7714 1.9432
3346.777 1.3688 1.27159 1.5469 1.7612 1.5091 1.6684 1.7733 1.3547 0.932 0.848
3366.066 1.1152 1.8132 2.0986 2.0366 1.7595 1.1253 1.1459 1.6457 1.5017 1.3177
3385.356 1.5639 1.5549 1.6766 1.1274 0.18 0.479 1.004 1.23573 1.5901 1.3957
3404.646 1.683 1.6181 0.913 1.018 1.3359 1.4814 1.3617 1.2905 1.4719 1.777
3423.936 1.7207 1.3536 0.945 1.1412 1.7421 1.983 1.8163 2.0495 2.32 1.6772
3443.225 1.5591 2.34 2.0942 1.816 2.0969 1.9895 1.6431 1.5523 1.7978 1.7405
3462.515 1.631 1.15 1.065 1.4897 1.8901 2.1154 1.8234 1.3191 1.4898 2.0995
3481.805 2.0435 1.8603 2.0827 1.8828 1.7051 1.7323 1.5273 1.7405 2.23 2.25
3501.095 2.1631 1.8772 1.5138 1.6782 2.0341 2.21 2.37 2.4 2.27 2.26
3520.385 1.8475 1.4417 1.1512 1.1423 1.1054 1.24592 1.9983 2.41 2.1283 1.7664
3539.674 1.7585 1.4698 1.067 1.4436 1.6771 1.3334 0.96 0.953 1.4912 1.6407
3558.964 1.7511 1.628 1.425 2.0964 3.86 5.74 6.67 6.92 7.99 8.41
3578.254 8.16 8.73 8.29 6.93 5.88 5.16 4.1 3.38 2.87 2.0671
3597.544 2.1882 2.73 2.31 2.19 2.0926 1.5678 1.2975 1.27563 1.8821 2.5
3616.833 2.38 1.5672 1.1415 1.3828 1.1426 1.051 1.3277 0.995 0.898 0.917
3636.123 0.809 1.2938 1.063 0.969 1.293 0.923 1.3117 1.9481 2.1681 1.8317
3655.413 1.4552 1.5229 1.8932 1.6453 1.1326 1.23493 1.4281 1.5969 1.5041 1.3829
3674.703 1.5885 1.5069 1.3862 1.497 1.3676 1.1097 1.26373 1.6667 1.5752 1.4126
3693.993 1.7924 1.9322 1.843 2.0541 1.7217 0.833 0.775 0.997 0.696 1.1422
3713.282 1.773 1.6458 1.6388 1.919 1.8733 1.5591 1.5255 1.7859 2.0905 2.0906
3732.572 1.8431 1.9756 2.1591 1.6298 1.3 1.6054 1.241 1.18951 1.4664 1.28863
3751.862 1.298 1.5967 1.6579 0.899 0.775 1.13 1.6088 1.8086 1.5738 1.5661
3771.152 1.19936 1.4638 1.8391 1.5291 1.567 2.19 2.26 1.6077 1.4465 1.5445
3790.441 1.5989 1.652 1.6139 0.818 0.863 1.2613 1.064 1.7018 1.6132 1.1665
3809.731 1.28166 1.448 1.3974 1.2288 1.19918 1.095 1.4624 1.7339 1.25525 1.494
3829.021 2.0463 1.9721 1.19347 0.722 0.78 1.025 1.6096 1.9064 1.6964 1.439
3848.311 1.7036 1.7593 1.4978 0.591 0 0.339 0.791 0.84 0.927 1.28359
3867.601 1.28379 1.4087 1.6777 2.066 2.41 1.9885 1.3353 1.3296 1.6251 2.41
3886.890 2.48 1.7438 1.4104 1.5506 1.27172 0.535 0.72 1.4477 0.998 0.375
3906.180 0.24 0.829 1.7554 1.3951 0.874 1.007 0.717 0.425 0.906 1.3614
3925.470 1.7058 2.0504 1.8269 0.833 0.452 1.062 1.2259 1.077 1.4864 1.5297
3944.760 1.103 1.23243 1.8506 2.1146 1.71 1.8258 1.7272 1.27749 1.1292 1.0975
3964.049 1.9793 2.47 1.5315 1.1906 1.7575 1.5298 1.5421 1.6965 1.18164 1.23181
3983.339 1.8805 2.55 2.47 1.4255 1.3371 1.8984 1.874 1.4578 1.5464 2.1017
##END=
