##TITLE=2-Methylthiopyrazine
##JCAMP-DX=4.24
##DATA TYPE=INFRARED SPECTRUM
##ORIGIN=EPA-IR VAPOR PHASE LIBRARY
##OWNER=SRD/NIST
Collection (C) 2018 copyright by the U.S. Secretary of Commerce
on behalf of the United States of America. All rights reserved.
##CAS REGISTRY NO=21948-70-9
##MOLFORM=C 5 H 6 N 2 S
##$NIST SOURCE=MSDC-IR
##STATE=gas
##XUNITS=1/CM
##YUNITS=ABSORBANCE
##XFACTOR=1.
##YFACTOR=0.001
##DELTAX=1.92898
##FIRSTX=549.8
##LASTX=4000.7
##FIRSTY=1.2048
##MAXX=4000.7
##MINX=549.759
##MAXY=0.260966
##MINY=0
##NPOINTS=1790
##XYDATA=(X++(Y..Y))
549.759 1.2048 1.1624 0.7241 0.7528 0.9646 0.5779 1.0788 1.3753 1.2385 1.4342
569.049 1.5171 1.2959 1.766 1.666 1.4795 1.956 1.796 1.6159 1.2769 1.0793
588.339 0.9522 1.2395 1.3084 1.4129 2.186 2.106 1.3927 1.5533 1.986 1.746
607.628 2.016 2.106 2.026 2.396 2.566 2.446 2.106 2.446 2.746 2.686
626.918 2.356 2.166 2.506 2.456 2.156 2.056 2.126 2.096 1.696 1.5981
646.208 1.756 1.716 1.706 1.766 1.646 1.636 1.846 1.3793 0.501 0.9405
665.498 1.626 1.549 1.5687 1.626 1.656 1.4595 1.413 1.5064 1.806 1.5451
684.787 1.2355 1.5229 1.666 1.552 1.5513 2.236 2.626 2.356 2.376 2.766
704.077 2.956 3.196 3.516 3.666 3.736 3.806 4.126 4.756 4.906 4.966
723.367 5.676 6.586 7.256 7.646 8.416 8.716 8.566 9.766 11.586 12.916
742.657 14.716 17.156 19.096 20.646 21.696 23.106 24.746 25.316 25.256 25.236
761.947 25.716 25.606 25.546 25.376 23.496 20.336 16.176 12.496 10.116 8.336
781.236 7.236 6.296 5.416 4.586 3.986 3.956 4.236 4.496 5.186 6.296
800.526 7.456 8.886 10.526 12.516 14.996 18.056 21.276 24.416 27.186 29.606
819.816 32.216 33.966 38.116 47.456 56.406 58.836 53.936 47.316 42.566 38.886
839.106 36.126 33.856 30.906 27.536 24.236 20.636 17.306 14.456 11.956 9.826
858.395 8.416 7.346 6.196 5.496 4.976 4.576 4.216 3.956 4.116 4.136
877.685 4.136 4.336 4.276 4.306 4.656 4.566 4.436 4.376 4.776 5.136
896.975 4.616 4.146 4.256 4.856 5.116 4.856 4.866 5.116 5.136 4.996
916.265 4.806 4.766 4.696 4.706 4.966 5.156 5.116 5.296 5.476 5.636
935.555 6.026 6.476 7.446 8.156 8.206 8.466 8.996 9.586 9.646 10.376
954.844 11.296 11.836 12.516 12.756 13.066 13.296 13.656 13.776 13.926 14.836
974.134 15.886 16.906 18.186 20.056 21.806 24.026 27.526 31.976 36.346 41.526
993.424 47.926 53.326 57.286 59.086 57.996 54.996 52.796 54.526 58.816 60.646
1012.714 58.256 52.646 46.296 40.686 36.256 33.376 31.686 30.366 30.916 33.706
1032.003 36.916 41.046 44.746 45.786 45.546 45.466 45.206 44.716 44.466 44.796
1051.293 43.906 40.106 34.256 27.856 22.476 19.116 17.806 16.866 16.026 16.316
1070.583 16.626 16.206 16.236 17.436 18.316 18.576 19.136 20.866 23.066 25.196
1089.873 27.566 30.346 34.366 37.256 40.876 47.036 52.776 60.226 70.426 81.756
1109.163 94.436 111.656 131.756 151.296 172.076 191.916 209.866 225.966 238.276 246.676
1128.452 253.486 258.346 260.966 259.076 249.356 229.636 204.276 180.506 161.256 147.726
1147.742 135.676 125.196 113.796 98.986 84.546 71.816 62.056 55.546 49.626 45.496
1167.032 43.816 42.516 41.716 40.836 37.946 34.236 31.716 29.186 26.926 25.966
1186.322 25.556 25.046 23.856 22.796 21.306 19.426 18.316 17.366 16.206 15.906
1205.611 16.406 15.256 14.146 14.256 14.666 13.996 12.446 11.216 9.706 9.426
1224.901 9.736 9.446 8.876 8.406 7.646 6.956 7.226 7.086 6.996 7.386
1244.191 7.476 7.226 6.956 6.756 6.616 6.726 7.066 8.326 9.586 10.976
1263.481 12.746 15.296 19.346 23.516 27.106 29.246 29.366 28.106 27.506 28.126
1282.771 28.576 29.726 30.996 29.446 25.526 21.676 18.716 16.996 16.316 16.216
1302.060 16.806 17.736 18.856 20.266 22.016 23.606 24.796 25.646 25.776 25.306
1321.350 24.676 23.886 22.946 22.086 21.226 19.636 17.396 15.296 13.596 12.426
1340.640 12.026 12.036 12.306 13.046 13.956 15.156 16.746 18.696 21.456 25.306
1359.930 30.096 36.036 43.286 51.276 59.666 68.166 76.636 85.206 93.246 99.456
1379.219 102.436 102.306 100.676 98.656 94.836 89.586 84.696 77.386 66.616 54.926
1398.509 44.836 37.296 32.016 28.376 25.626 22.906 20.746 19.316 18.486 18.256
1417.799 18.596 19.646 20.966 22.476 24.246 26.006 27.996 30.556 33.686 37.436
1437.089 41.726 46.076 50.626 55.776 62.346 69.536 76.676 83.466 88.286 89.726
1456.378 88.016 84.816 82.316 78.876 74.046 70.386 65.866 58.166 48.836 40.506
1475.668 35.136 32.096 31.056 31.766 33.636 36.686 40.936 45.956 51.726 58.336
1494.958 65.326 72.076 78.246 83.906 89.036 93.196 96.796 98.956 98.676 96.236
1514.248 92.016 85.496 76.956 68.206 59.146 50.476 42.186 34.666 27.776 22.146
1533.538 18.176 15.336 13.776 13.266 13.496 14.156 15.126 16.496 18.076 19.886
1552.827 21.396 22.406 23.116 23.196 22.666 21.886 21.006 19.946 18.556 16.886
1572.117 14.806 12.286 9.826 8.086 6.976 6.266 5.886 5.236 5.066 5.346
1591.407 5.286 5.226 5.236 5.406 5.266 5.066 5.196 5.286 5.306 5.006
1610.697 4.676 4.476 4.396 4.376 4.266 3.966 3.676 3.676 3.646 3.556
1629.986 3.586 3.696 3.616 3.606 3.486 3.336 3.526 3.926 4.206 4.316
1649.276 4.556 4.716 4.816 4.896 4.896 4.806 4.686 4.756 4.646 4.336
1668.566 4.186 4.006 3.706 3.436 3.146 2.856 2.766 2.786 2.696 2.636
1687.856 2.546 2.306 2.126 2.096 2.126 2.066 2.026 2.026 1.916 2.076
1707.146 2.196 1.976 2.086 2.276 2.356 2.376 2.276 2.416 2.636 2.516
1726.435 2.636 3.056 3.286 3.486 3.796 3.986 4.136 4.376 4.626 4.856
1745.725 4.926 5.006 5.186 5.226 5.366 5.396 5.266 5.286 5.266 5.306
1765.015 5.336 5.436 5.636 5.866 5.976 5.786 5.606 5.546 5.516 5.286
1784.305 5.106 5.066 4.946 4.706 4.356 3.976 3.806 3.616 3.126 2.766
1803.594 2.566 2.426 2.406 2.306 2.196 2.076 2.036 2.096 2.116 2.056
1822.884 2.016 2.066 2.116 2.166 2.156 2.226 2.436 2.446 2.516 2.726
1842.174 2.646 2.586 2.626 2.726 2.666 2.556 2.756 2.736 2.726 2.826
1861.464 2.846 2.956 3.036 3.026 3.066 3.366 3.496 3.446 3.606 3.596
1880.754 3.746 4.146 4.246 4.436 4.756 4.936 5.136 5.476 5.696 5.896
1900.043 6.226 6.356 6.416 6.486 6.486 6.446 6.356 6.216 5.936 5.536
1919.333 5.146 4.826 4.526 4.256 3.746 3.366 3.216 2.866 2.516 2.176
1938.623 2.066 2.036 1.776 1.6032 1.726 1.756 1.5597 1.4274 1.4499 1.4731
1957.913 1.3414 1.3125 1.2503 1.1906 1.3363 1.3385 1.3297 1.533 1.4733 1.2711
1977.202 1.4287 1.5581 1.4471 1.4113 1.3305 1.223 1.3295 1.4858 1.5663 1.5951
1996.492 1.4633 1.4217 1.6081 1.656 1.5782 1.5206 1.646 1.616 1.5065 1.5079
2015.782 1.4092 1.4106 1.5198 1.6159 1.616 1.4811 1.5403 1.616 1.5692 1.5735
2035.072 1.5993 1.636 1.522 1.5187 1.6064 1.5099 1.4222 1.2827 1.217 1.2761
2054.362 1.2132 1.0942 1.1799 1.2474 1.2104 1.1463 1.0294 0.9609 0.9066 0.9851
2073.651 1.1073 1.099 0.9802 0.9497 1.0653 1.1005 1.0851 1.0551 1.0234 1.0909
2092.941 1.0569 1.0203 1.1979 1.2304 1.2046 1.2559 1.2548 1.239 1.1182 1.0247
2112.231 1.0099 1.118 1.2839 1.3128 1.254 1.1148 1.1229 1.2264 1.199 1.1974
2131.521 1.1961 1.2178 1.2648 1.3087 1.2747 1.2376 1.1568 1.0821 1.0964 1.0855
2150.810 1.133 1.1523 1.1642 1.1506 1.1384 1.2121 1.4753 1.5468 1.3734 1.3529
2170.100 1.4224 1.4414 1.4056 1.4357 1.3564 1.3641 1.3945 1.219 1.1588 1.22
2189.390 1.2221 1.1218 1.0852 1.2187 1.3227 1.4127 1.3766 1.2919 1.2824 1.2964
2208.680 1.2883 1.3452 1.4857 1.3358 1.2483 1.2824 1.2595 1.364 1.3706 1.2837
2227.970 1.3396 1.4105 1.5395 1.6017 1.5241 1.4435 1.4647 1.4798 1.497 1.656
2247.259 1.726 1.706 1.636 1.716 1.906 1.906 1.906 2.166 2.326 2.266
2266.549 2.296 2.476 2.736 2.856 2.856 2.926 3.216 3.466 3.496 3.336
2285.839 3.286 3.476 3.476 3.446 3.366 3.166 3.236 3.376 3.336 3.316
2305.129 3.286 3.276 3.246 3.366 3.326 3.166 3.226 3.376 3.436 3.146
2324.418 3.036 3.006 2.906 2.866 2.846 2.816 2.836 2.826 2.666 2.656
2343.708 2.526 2.426 2.646 2.516 2.176 2.136 2.006 1.896 2.006 1.966
2362.998 1.646 1.696 1.816 1.636 1.5292 1.4276 1.4321 1.4142 1.5343 1.676
2382.288 1.756 1.806 1.796 1.896 2.066 2.106 2.206 2.386 2.186 2.036
2401.578 1.936 1.856 1.866 1.866 1.886 1.886 1.946 1.856 1.5471 1.3503
2420.867 1.508 1.5461 1.4907 1.5976 1.4617 1.2546 1.1768 1.1477 1.1284 1.0314
2440.157 0.9698 1.0573 1.2526 1.1713 1.0237 1.0645 1.1822 1.2942 1.4695 1.388
2459.447 1.1502 1.193 1.1595 1.2121 1.202 1.0355 1.0187 1.1357 1.2247 1.2353
2478.737 1.1326 1.0101 0.9204 0.8536 0.978 0.8438 0.7198 0.9024 1.0697 1.1935
2498.026 0.9808 0.9405 0.9818 1.0189 1.1427 1.0387 1.0173 0.9102 0.9105 0.8984
2517.316 0.7987 0.8156 0.8068 0.8246 0.8668 0.8954 0.71433 0.63456 0.70665 0.66004
2536.606 0.70765 0.8862 0.9452 0.8771 0.65223 0.5502 0.65855 0.65224 0.64545 0.6475
2555.896 0.62664 0.8637 1.099 0.8215 0.70369 0.7737 0.8494 0.94 0.8919 0.8625
2575.186 0.8345 0.8068 0.7693 0.7211 0.5624 0.593 0.7321 0.7545 0.9242 1.0553
2594.475 1.1694 1.1235 1.1098 1.0797 1.0009 1.2277 1.384 1.1008 0.8607 1.0893
2613.765 1.3736 1.3371 1.3348 1.4815 1.4289 1.452 1.4828 1.3521 1.1459 1.0167
2633.055 1.0072 0.9732 1.14 1.3698 1.4534 1.2919 1.3169 1.5268 1.656 1.696
2652.345 1.4347 1.4353 1.656 1.656 1.676 1.836 1.4385 1.2363 1.5056 1.5504
2671.634 1.4264 1.182 1.1676 1.263 1.3252 1.293 1.3198 1.4393 1.4336 1.2682
2690.924 1.1335 1.165 1.1985 1.2516 1.2008 1.1541 1.1844 1.0207 0.9514 0.9358
2710.214 0.8197 0.9225 1.1296 1.1975 1.0342 1.0944 1.3405 1.3237 1.3627 1.4791
2729.504 1.5347 1.6141 1.5768 1.766 1.726 1.4292 1.3576 1.0677 0.8026 0.7815
2748.794 1.1613 1.2954 0.9955 0.8372 0.5345 0.5918 0.8277 0.619746 0.66064 0.8133
2768.083 0.8146 1.0786 1.142 0.9662 1.1347 1.1576 1.1313 1.0068 0.8715 1.1668
2787.373 1.3392 1.2001 1.0824 1.0219 1.0511 1.3262 1.4797 1.706 1.6045 1.4791
2806.663 1.716 1.836 1.876 1.856 2.026 2.306 2.436 2.676 3.056 3.276
2825.953 3.726 3.846 4.086 4.716 4.986 5.176 5.486 5.886 5.826 5.686
2845.242 5.976 6.406 6.586 6.656 6.706 6.776 6.716 6.756 6.736 6.346
2864.532 6.166 6.496 6.426 6.216 6.476 6.296 6.076 6.116 5.776 5.606
2883.822 5.796 5.776 5.766 5.736 5.516 5.326 5.506 5.806 5.716 5.696
2903.112 5.896 6.136 6.446 6.886 7.246 8.016 9.356 10.576 12.246 14.856
2922.401 18.466 22.986 28.356 34.666 41.136 46.536 49.596 50.106 49.266 49.696
2941.691 49.796 48.666 48.236 46.246 41.376 34.446 27.516 22.036 18.096 15.286
2960.981 13.266 12.406 11.936 11.326 10.996 10.916 11.046 11.106 11.526 11.926
2980.271 12.496 12.986 13.286 14.266 14.966 15.336 15.736 15.986 16.256 16.556
2999.561 16.686 16.636 16.626 16.516 16.216 15.826 15.056 14.636 14.756 14.666
3018.850 14.306 13.876 13.786 13.966 14.246 14.666 15.366 16.626 18.306 20.906
3038.140 24.196 28.046 32.676 38.496 45.436 53.206 61.756 70.346 78.856 86.166
3057.430 90.246 90.846 90.096 89.636 88.746 86.496 83.546 78.416 69.646 58.936
3076.720 48.616 39.686 32.756 27.636 23.566 20.086 17.136 14.896 12.936 10.976
3096.009 9.556 8.436 7.756 7.226 6.656 6.716 6.716 6.896 7.256 6.616
3115.299 6.016 6.186 6.036 5.766 5.556 5.486 5.336 4.806 4.596 4.296
3134.589 3.576 3.196 2.846 2.626 2.736 2.656 2.326 2.046 2.006 1.866
3153.879 1.646 1.586 1.796 1.666 1.1791 1.324 1.5928 1.4155 1.275 1.4128
3173.169 1.568 1.4756 1.1865 1.038 1.2842 1.4197 1.4108 1.4754 1.3082 1.1398
3192.458 1.0033 1.1606 1.2117 0.9311 0.9585 0.8763 0.9344 1.2853 1.41 1.1016
3211.748 1.1587 1.373 0.985 0.8165 1.1748 1.1726 0.9239 1.1665 1.2997 1.5354
3231.038 1.4024 0.8995 0.9422 0.8562 0.66386 0.7263 1.1377 1.3447 1.2098 1.2998
3250.328 1.1185 1.0335 1.2082 0.9181 0.5404 0.501 0.7975 0.8515 0.8713 0.9148
3269.617 0.8229 0.8614 0.64816 0.5733 1.0891 1.015 0.365 0.5307 0.6664 0.618212
3288.907 0.8287 1.1231 1.3811 1.0548 0.471 0.452 0.8832 1.214 1.132 0.8513
3308.197 0.573 0.5957 0.69947 0.9654 1.0737 0.7751 0.66729 0.46 0.5229 0.7201
3327.487 0.616104 0.752 0.7671 0.7456 0.8242 0.70073 0.63789 0.575 0.332 0.182
3346.777 0.288 0.299 0.349 0.454 0.70224 1.1856 1.0501 0.5553 0.68222 0.8839
3366.066 0.8988 0.5802 0.65204 1.118 0.5341 0.5 0.9201 0.70871 0.5883 0.508
3385.356 0.453 0.507 0.69281 0.512 0.215 0.241 0.7626 1.3013 1.0665 0.843
3404.646 0.5817 0.7198 0.9859 0.6088 0.5335 0.8179 1.0935 1.0658 0.9133 0.9197
3423.936 1.0343 0.9789 0.7794 0.9224 1.0046 0.8814 0.8698 0.65276 0.495 0.8122
3443.225 0.8709 1.2233 1.736 1.3306 0.8717 0.5742 0.617335 0.826 0.9729 1.3796
3462.515 1.355 1.2955 1.2554 0.9451 0.8269 0.9351 1.3062 1.4651 0.9473 0.8458
3481.805 1.2705 1.2119 0.7698 0.5442 0.69111 0.8806 1.0111 1.0162 0.9652 0.5575
3501.095 0.371 0.6685 0.69924 0.5945 0.177 0.305 0.9969 1.0097 0.7248 0.718
3520.385 0.8931 0.5659 0.6528 1.1139 0.6842 0.5205 0.7993 0.9281 1.2907 1.2662
3539.674 0.8908 0.8368 0.7406 0.5826 0.71597 0.7876 0.61077 0.324 0.368 0.5745
3558.964 0.781 0.9392 1.09 1.2718 0.8943 0.274 0.179 0.173 0.289 0.622148
3578.254 0.8884 0.8798 0.337 0.068 0.5464 0.7821 0.5465 0.8799 0.924 0.307
3597.544 0.068 0.474 0.69617 0.188 0 0.311 0.496 0.451 0.5433 0.8359
3616.833 0.5522 0.499 0.5754 0.42 0.620492 0.64739 0.7354 0.70701 0.289 0.169
3636.123 0.348 0.506 0.376 0.249 0.64579 0.8774 1.0435 1.0566 0.9164 0.622117
3655.413 0.391 0.04 0.025 0.485 0.468 0.71564 0.8008 0.9113 0.9165 0.5627
3674.703 0.5412 0.377 0.209 0.374 0.69735 0.9129 0.9399 0.713 0.66339 0.6973
3693.993 0.67154 0.69569 0.5625 0.65946 0.5705 0.408 0.395 0.239 0.5476 0.71048
3713.282 0.68295 0.498 0.035 0.099 0.60748 0.9677 0.5966 0.491 0.8165 1.0181
3732.572 1.4018 1.2008 0.8546 0.63971 0.49 0.117 0.297 0.7263 0.7455 1.2652
3751.862 0.9164 0.39 0.5265 0.779 0.774 0.67272 0.69853 0.69511 0.69894 0.6709
3771.152 0.366 0.335 0.66045 0.568 0.158 0.078 0.216 0.358 0.5655 0.9161
3790.441 1.0405 0.8638 0.69698 0.6053 0.804 1.1988 1.2647 1.3731 1.906 1.896
3809.731 1.3739 1.4492 1.626 1.1917 1.1308 1.636 1.5765 1.1361 1.3206 1.5897
3829.021 1.3739 1.4642 1.4593 1.063 1.0757 1.119 0.8442 0.5778 0.6948 0.589
3848.311 0.71197 1.1056 0.7274 0.5516 0.65555 0.385 0.67071 0.9207 0.8289 0.9659
3867.601 0.8974 0.497 0.46 1.4035 1.387 0.8235 0.8159 0.8015 1.0488 1.3159
3886.890 1.0244 0.5561 0.62713 0.621261 0.511 0.7189 0.9889 1.0166 0.70859 0.245
3906.180 0.288 0.358 0.31 0.348 0.44 0.462 0.424 0.7181 0.8348 0.7279
3925.470 0.5798 0.8822 0.9634 0.6294 0.8651 0.9125 0.7731 0.64341 0.5199 0.8362
3944.760 0.7362 0.5329 0.7496 0.96 1.1658 0.9126 0.528 0.377 0.5283 0.8469
3964.049 1.0503 1.1372 0.9332 0.87 1.0234 1.2101 0.8646 0.9769 1.2381 1.0236
3983.339 0.8582 0.5935 0.7626 1.1647 1.1006 0.7067 0.63946 0.5 0.479 0.403
##END=
