##TITLE=1-Nonene-3-ol
##JCAMP-DX=4.24
##DATA TYPE=INFRARED SPECTRUM
##ORIGIN=NIST Mass Spectrometry Data Center
##OWNER=NIST Standard Reference Data Program
Collection (C) 2018 copyright by the U.S. Secretary of Commerce
on behalf of the United States of America. All rights reserved.
##CAS REGISTRY NO=21964-44-3
##MOLFORM=C 9 H 18 O
##$NIST SOURCE=MSDC-IR
##SPECTROMETER/DATA SYSTEM=HP-GC/MS/IRD
##STATE=gas
##XUNITS=1/CM
##YUNITS=ABSORBANCE
##XFACTOR=1.0
##YFACTOR=0.000003400
##DELTAX=4.0
##FIRSTX=550.0
##LASTX=3846.0
##FIRSTY=0.000728
##MAXX=3846
##MINX=550
##MAXY=0.034
##MINY=0
##NPOINTS=825
##XYDATA=(X++(Y..Y))
550.0 214 137 54 68 69 53 52 48 45 68
590.0 110 89 65 67 64 57 35 23 21 9
630.0 31 54 58 72 92 112 123 124 124 150
670.0 174 184 212 234 228 218 192 139 139 157
710.0 175 204 214 221 237 231 200 170 145 132
750.0 117 105 98 91 85 71 67 79 61 46
790.0 62 60 59 80 84 74 66 72 87 104
830.0 113 131 160 175 199 226 242 259 285 302
870.0 314 336 363 388 421 471 528 597 693 827
910.0 1044 1370 1752 2028 2073 1889 1549 1238 1045 951
950.0 930 950 998 1068 1149 1269 1427 1613 1825 2012
990.0 2115 2107 1992 1857 1756 1705 1704 1730 1758 1784
1030.0 1785 1762 1700 1610 1522 1419 1319 1236 1160 1095
1070.0 1038 985 945 921 892 864 838 816 795 783
1110.0 774 772 777 783 793 789 761 715 650 581
1150.0 523 472 426 409 398 403 419 437 466 495
1190.0 522 536 561 583 598 632 664 684 693 693
1230.0 706 729 744 743 744 746 737 731 732 728
1270.0 716 705 700 685 670 664 661 653 652 663
1310.0 667 665 668 686 706 724 746 769 785 805
1350.0 822 823 828 825 815 797 783 780 761 715
1390.0 659 607 583 590 637 712 791 858 894 897
1430.0 880 847 812 805 828 877 935 979 983 933
1470.0 845 708 571 447 344 277 229 190 166 145
1510.0 125 107 96 85 76 74 69 56 54 51
1550.0 45 38 38 40 39 43 47 50 45 43
1590.0 52 59 61 56 62 70 77 86 100 118
1630.0 147 181 210 222 214 185 143 110 85 67
1670.0 59 54 47 40 40 38 34 32 31 33
1710.0 35 29 24 21 16 13 10 7 13 12
1750.0 1 0 5 3 2 3 4 0 0 3
1790.0 4 6 7 13 20 17 20 24 32 44
1830.0 58 77 103 129 153 167 159 136 105 76
1870.0 57 42 36 31 18 21 22 13 12 16
1910.0 17 18 17 14 12 16 16 14 17 17
1950.0 16 17 23 24 29 34 33 32 33 33
1990.0 24 15 15 19 20 18 20 24 22 27
2030.0 32 28 27 27 24 16 16 19 20 23
2070.0 25 24 22 21 22 21 16 13 15 16
2110.0 20 24 21 18 13 9 11 15 15 13
2150.0 15 15 13 15 19 20 17 16 18 19
2190.0 17 12 15 16 10 14 15 13 17 16
2230.0 14 16 19 19 18 15 17 17 15 21
2270.0 22 20 20 18 18 21 19 22 19 16
2310.0 21 20 16 17 22 23 20 23 28 29
2350.0 29 26 25 19 17 22 23 22 23 25
2390.0 20 17 20 20 22 23 23 21 21 23
2430.0 27 28 23 19 22 24 24 24 21 19
2470.0 24 23 18 17 13 14 21 23 27 30
2510.0 27 22 22 25 30 32 33 39 44 36
2550.0 31 36 39 42 45 50 50 52 56 58
2590.0 60 57 57 63 69 69 67 71 74 71
2630.0 74 79 86 94 97 99 103 111 115 114
2670.0 114 121 126 130 129 126 125 119 124 124
2710.0 121 126 132 139 143 151 158 160 164 169
2750.0 171 167 167 174 185 198 204 226 244 256
2790.0 285 310 336 367 397 426 474 544 614 703
2830.0 810 953 1151 1437 1823 2317 2884 3450 3933 4242
2870.0 4347 4291 4148 3939 3690 3466 3330 3362 3605 4043
2910.0 4662 5460 6426 7519 8603 9495 10000 9957 9372 8419
2950.0 7350 6443 5888 5667 5525 5148 4483 3625 2816 2246
2990.0 1874 1605 1396 1242 1135 1053 985 909 818 721
3030.0 623 540 483 445 421 400 395 407 419 450
3070.0 505 581 676 794 890 904 823 684 524 380
3110.0 290 227 179 149 137 132 124 114 103 89
3150.0 82 78 77 78 73 70 67 67 63 56
3190.0 52 47 44 47 41 33 26 20 19 23
3230.0 26 22 24 24 15 11 9 14 20 13
3270.0 13 13 13 22 21 17 18 17 15 22
3310.0 24 14 13 13 19 29 26 24 23 19
3350.0 28 28 27 37 37 39 38 30 26 31
3390.0 38 35 39 37 38 42 43 40 34 35
3430.0 38 46 46 41 36 38 39 35 44 41
3470.0 34 28 26 33 29 22 21 18 17 10
3510.0 15 32 31 28 31 30 29 34 34 34
3550.0 31 35 49 48 47 42 45 52 55 55
3590.0 51 60 75 84 84 101 124 149 183 228
3630.0 296 396 544 698 770 762 678 549 423 315
3670.0 226 174 150 126 114 108 90 82 74 70
3710.0 62 59 55 48 53 62 67 61 49 39
3750.0 47 61 58 58 54 46 48 57 57 47
3790.0 48 49 46 55 58 48 42 50 63 60
3830.0 51 47 49 47 61
##END=
