##TITLE=4-Chloro-4'-nitrodiphenyl sulfide
##JCAMP-DX=4.24
##DATA TYPE=INFRARED SPECTRUM
##ORIGIN=EPA-IR VAPOR PHASE LIBRARY
##OWNER=SRD/NIST
Collection (C) 2018 copyright by the U.S. Secretary of Commerce
on behalf of the United States of America. All rights reserved.
##CAS REGISTRY NO=21969-11-9
##MOLFORM=C 12 H 8 Cl N O 2 S
##$NIST SOURCE=MSDC-IR
##STATE=gas
##XUNITS=1/CM
##YUNITS=ABSORBANCE
##XFACTOR=1.
##YFACTOR=0.001
##DELTAX=1.92898
##FIRSTX=549.8
##LASTX=4000.7
##FIRSTY=12.1341
##MAXX=4000.7
##MINX=549.759
##MAXY=0.231134
##MINY=0
##NPOINTS=1790
##XYDATA=(X++(Y..Y))
549.759 12.1341 12.8841 13.1441 12.8141 11.4741 9.7441 7.8941 6.2041 4.6341 3.5041
569.049 2.7841 2.3441 2.2241 2.2041 2.0841 1.9941 2.2141 2.5441 2.7841 2.5341
588.339 2.3741 2.5641 2.6241 2.5441 2.3541 2.4341 2.4841 2.3641 2.3341 2.3641
607.628 2.4241 2.1841 1.9941 2.0141 2.0941 2.0341 1.7341 1.4741 1.3441 1.3441
626.918 1.3541 1.3841 1.4541 1.5441 1.3941 1.2741 1.1941 1.0146 1.1241 1.3341
646.208 1.3541 1.3841 1.6541 1.8341 1.9141 2.2741 2.5241 2.8641 3.4841 3.9741
665.498 4.5341 5.1541 5.8441 6.7241 7.7741 8.3241 8.7041 9.1441 8.8941 8.7441
684.787 8.7741 8.5041 8.1941 7.9741 7.6541 7.1241 6.6941 6.3641 6.0641 5.5941
704.077 5.2141 5.0741 5.0241 5.1541 5.3941 5.9341 6.9941 8.3941 10.0941 12.2041
723.367 14.0541 15.7841 17.9441 20.1741 22.5041 25.1841 28.1341 31.1741 33.9041 35.6341
742.657 35.1741 33.2441 30.3041 26.4341 22.4141 18.3841 14.7141 12.0441 10.0241 8.3641
761.947 7.3841 6.6341 6.0241 5.5941 5.2341 4.9641 4.9541 4.9741 4.9141 4.9341
781.236 5.0841 5.2941 5.6541 6.1241 6.6541 7.1641 7.8441 8.8341 9.8041 11.0041
800.526 12.5741 14.4541 16.6541 18.6641 20.7841 23.4141 26.7741 31.4041 37.7041 45.6341
819.816 53.7541 59.8341 62.0141 60.1841 55.4941 49.7041 45.4241 43.9441 44.7841 47.1041
839.106 50.9541 56.4341 64.4041 76.9741 95.4041 115.814 127.874 126.584 113.674 89.1141
858.395 61.0641 40.4741 27.9341 20.0141 14.7041 11.3041 9.1541 7.5441 6.3841 5.6841
877.685 5.1741 4.6541 4.2341 3.8741 3.5141 3.3441 3.0341 2.8441 2.6541 2.4041
896.975 2.4041 2.3441 2.1941 2.1141 2.2341 2.1841 2.1041 2.0741 2.0341 2.1041
916.265 2.1241 1.9641 1.9741 2.1341 2.1341 2.1741 2.1941 2.2041 2.2741 2.3241
935.555 2.3241 2.4541 2.6141 2.5941 2.6441 2.7241 2.7541 2.7641 2.7341 2.7541
954.844 2.6441 2.6441 2.6141 2.3941 2.3741 2.3541 2.1441 1.9441 1.9741 1.8641
974.134 1.8641 1.9841 1.8541 1.8041 1.8841 2.0441 2.2441 2.1741 2.1741 2.5741
993.424 3.0241 3.6841 4.8041 6.3541 9.3941 15.0041 23.8841 39.3241 63.0141 86.6241
1012.714 99.0541 97.9641 83.3341 57.8041 33.4841 18.8641 12.1041 8.9041 6.9441 5.8841
1032.003 5.3141 4.9941 4.8641 4.8541 4.9841 5.1141 5.4241 5.8141 6.1741 6.7141
1051.293 7.6141 8.7641 9.8741 10.9541 12.2241 14.0041 15.7841 17.6441 20.0941 22.4941
1070.583 25.0641 28.7741 34.0041 40.9041 49.7441 60.5141 73.3441 86.4141 97.8141 105.974
1089.873 110.204 111.944 111.534 110.404 108.504 103.074 93.9241 81.4641 66.8641 53.8041
1109.163 43.3741 35.0541 28.7541 23.5941 19.4541 15.9641 13.0641 10.8441 9.0041 7.8041
1128.452 6.8641 6.0141 5.1841 4.8641 4.7741 4.1241 3.6841 3.3741 3.0641 3.0741
1147.742 2.9841 2.7741 2.7641 2.8641 3.0141 2.9641 2.8541 3.1141 3.4041 3.9541
1167.032 4.8741 6.0641 7.8641 10.2341 12.6241 14.3041 14.6941 13.7441 12.4441 10.7041
1186.322 8.7841 7.5441 6.6241 6.2641 6.1841 5.8041 5.6841 5.7341 5.7341 5.7541
1205.611 5.7141 5.7341 5.8841 6.2841 6.7441 7.4841 8.2741 9.0241 9.6841 10.0741
1224.901 10.0441 9.5341 8.7341 7.6641 7.0541 6.6941 6.3141 6.1341 6.0341 6.2441
1244.191 6.5441 6.6241 6.7241 6.9341 7.2041 7.5141 7.8141 7.7841 7.7341 7.8041
1263.481 7.8041 7.7441 7.7641 7.8741 7.8541 7.8841 7.9541 7.9541 7.9041 7.7241
1282.771 7.6341 7.7441 7.9341 8.1741 8.4141 8.7241 9.0541 9.4641 9.8941 10.1741
1302.060 10.6141 11.2741 12.0041 12.9341 14.0841 15.4441 17.1241 19.3941 22.4441 26.6641
1321.350 32.4941 40.3841 51.1241 65.2541 83.4441 106.184 133.094 162.604 191.454 214.954
1340.640 228.854 231.134 223.114 208.444 191.634 176.314 162.804 149.874 137.394 125.614
1359.930 114.254 102.694 90.7141 78.9041 68.0441 58.7941 51.4341 45.8741 41.9641 39.5241
1379.219 38.1641 37.5841 37.4041 37.1941 36.7341 35.7541 34.1241 31.8641 29.0041 25.9641
1398.509 23.1341 20.6441 18.5341 16.8141 15.6141 14.8341 14.3741 14.2141 14.3341 14.6241
1417.799 14.8941 15.0741 15.1341 15.0541 14.9641 14.9041 14.8341 14.8741 14.9341 14.8741
1437.089 14.8141 14.8541 14.9741 15.2141 15.6541 16.2141 16.8441 17.5641 18.4841 19.7441
1456.378 21.6441 24.6141 29.0641 35.7241 45.5341 59.5841 78.2041 101.074 125.754 147.324
1475.668 158.454 155.674 139.444 114.334 87.3341 64.4241 48.1941 38.1341 32.1941 28.9441
1494.958 27.4041 26.9441 27.4241 28.4841 30.0241 32.2241 34.9841 38.3641 42.5341 47.5741
1514.248 53.5241 60.5441 68.6441 77.6241 88.0741 99.2641 111.244 123.914 136.604 148.454
1533.538 158.484 165.184 166.954 163.144 154.554 142.384 127.734 112.804 99.1141 86.8041
1552.827 76.3341 67.2541 59.9741 54.4741 50.9041 49.4641 50.0041 52.4141 56.2641 60.9641
1572.117 65.8841 70.3641 73.8841 76.4341 78.2741 79.8241 81.4841 83.2141 84.5741 85.0041
1591.407 83.9441 81.4241 77.6741 72.9541 67.5941 61.4841 54.7541 47.8441 41.2941 35.2841
1610.697 29.9841 25.4741 21.7641 18.6841 16.2241 14.5041 13.2741 12.3641 11.8141 11.5041
1629.986 11.3341 11.2941 11.3541 11.4741 11.6041 11.7141 11.7541 11.7041 11.4741 11.0541
1649.276 10.5941 10.1441 9.5741 9.0341 8.6341 8.2041 7.8041 7.3241 6.7541 6.2741
1668.566 5.8541 5.4641 5.1541 4.8341 4.4441 4.1241 3.9341 3.6741 3.3641 3.1141
1687.856 2.9141 2.7241 2.6041 2.4041 2.2141 2.1341 2.0141 1.8541 1.8041 1.8341
1707.146 1.7641 1.7641 1.7541 1.6841 1.6741 1.6941 1.6641 1.6441 1.6541 1.6341
1726.435 1.6141 1.5941 1.6041 1.6041 1.5841 1.6441 1.6041 1.5241 1.5641 1.5441
1745.725 1.5241 1.5841 1.6241 1.6641 1.7941 1.8641 1.9741 2.2341 2.4441 2.6941
1765.015 3.0341 3.3641 3.6241 3.9341 4.2841 4.5641 4.7041 4.7741 4.7741 4.6741
1784.305 4.4641 4.1941 3.8541 3.4741 3.1041 2.7741 2.4841 2.1941 2.0141 1.9341
1803.594 1.9041 1.8841 1.8441 1.7941 1.7641 1.7341 1.6641 1.6141 1.6041 1.6241
1822.884 1.5941 1.5641 1.6541 1.7141 1.7441 1.8041 1.8541 1.8741 1.9141 1.9041
1842.174 1.8241 1.7541 1.7041 1.6541 1.5841 1.4741 1.4341 1.5041 1.5041 1.4241
1861.464 1.4841 1.5841 1.6541 1.6841 1.7541 1.8841 1.9841 2.1441 2.3541 2.5141
1880.754 2.7041 2.9641 3.1841 3.4441 3.7641 4.1341 4.5641 4.9641 5.1841 5.3941
1900.043 5.5141 5.5241 5.4841 5.3841 5.3341 5.1741 4.9941 4.7741 4.5141 4.2041
1919.333 3.9241 3.6541 3.3341 3.0341 2.7241 2.3841 2.1041 1.8941 1.6641 1.5041
1938.623 1.3941 1.2541 1.1541 1.1041 1.0541 1.0145 0.98 0.9652 0.9569 1.0096
1957.913 1.0941 1.1041 1.0641 1.0208 0.9825 0.9352 0.8899 0.7717 0.6744 0.675
1977.202 0.6519 0.6526 0.6609 0.595 0.5492 0.5451 0.5095 0.4752 0.4855 0.4691
1996.492 0.4445 0.4759 0.4927 0.4623 0.4404 0.4608 0.4465 0.4525 0.5104 0.521
2015.782 0.4842 0.44 0.425 0.4496 0.48 0.4974 0.4981 0.5021 0.4885 0.4525
2035.072 0.4516 0.4567 0.4661 0.4763 0.4246 0.4038 0.4156 0.4093 0.3815 0.3508
2054.362 0.3342 0.3502 0.3614 0.4039 0.4305 0.3672 0.4305 0.4751 0.4379 0.4764
2073.651 0.4686 0.423 0.4086 0.4403 0.4811 0.4853 0.5241 0.4969 0.4519 0.4799
2092.941 0.4775 0.5028 0.5093 0.454 0.4495 0.4046 0.4325 0.4993 0.5026 0.5113
2112.231 0.5092 0.5203 0.5119 0.5185 0.5516 0.5753 0.5526 0.5329 0.5449 0.4906
2131.521 0.421 0.3742 0.3527 0.34 0.333 0.2993 0.3078 0.3916 0.3735 0.3126
2150.810 0.2607 0.2362 0.2915 0.3575 0.3622 0.3539 0.3734 0.3324 0.3086 0.3418
2170.100 0.3555 0.3514 0.353 0.3704 0.4478 0.5525 0.5893 0.5856 0.5849 0.5866
2189.390 0.5745 0.5719 0.6065 0.6044 0.5869 0.6086 0.654 0.6758 0.6788 0.7179
2208.680 0.754 0.8016 0.88 0.9308 0.9389 0.9581 0.9151 0.8257 0.7784 0.7303
2227.970 0.6818 0.6045 0.5516 0.564 0.5531 0.4938 0.4887 0.5011 0.4839 0.468
2247.259 0.4271 0.4574 0.5048 0.5725 0.6191 0.6858 0.7931 0.7909 0.8459 0.9546
2266.549 0.9704 1.0641 1.1541 1.1141 1.1041 1.1641 1.1741 1.2041 1.2941 1.2941
2285.839 1.2841 1.3541 1.3541 1.2841 1.2341 1.1841 1.1241 1.0393 0.974 0.9666
2305.129 1.0252 1.0199 0.8772 0.79 0.7881 0.747 0.7432 0.7046 0.67 0.7427
2324.418 0.6904 0.5789 0.4945 0.4848 0.5012 0.464 0.4832 0.5387 0.54 0.4997
2343.708 0.5296 0.5602 0.568 0.587 0.6398 0.6554 0.6496 0.7484 0.8233 0.7488
2362.998 0.6672 0.7017 0.7804 0.8376 0.8882 0.9673 1.0046 1.0641 1.1641 1.2141
2382.288 1.2041 1.2241 1.2841 1.2841 1.2741 1.2441 1.1541 1.0406 1.0378 0.9952
2401.578 0.8909 0.9002 0.8916 0.8549 0.8827 0.8818 0.8505 0.8143 0.7985 0.8219
2420.867 0.8546 0.9687 1.0541 1.0357 1.0641 1.1141 1.1741 1.2241 1.2641 1.3841
2440.157 1.5041 1.6041 1.6441 1.7041 1.7841 1.7941 1.7741 1.7341 1.6941 1.6741
2459.447 1.6141 1.5441 1.4941 1.4141 1.2941 1.2041 1.1741 1.1041 1.0441 1.0329
2478.737 1.0172 1.0541 1.0841 1.0741 1.0741 1.1041 1.1541 1.1341 1.1641 1.1341
2498.026 1.1041 1.1441 1.0941 1.1141 1.1041 1.0641 1.0396 1.0081 0.9771 0.9439
2517.316 0.9363 0.9722 1.0541 1.0641 1.0407 1.0641 1.1041 1.0641 1.1641 1.2841
2536.606 1.3941 1.5141 1.5441 1.5841 1.6241 1.6841 1.6841 1.6441 1.6041 1.5741
2555.896 1.5041 1.4441 1.4241 1.4441 1.5241 1.5241 1.4741 1.4541 1.4241 1.4541
2575.186 1.5741 1.6641 1.7041 1.8241 1.9141 1.8941 1.9241 1.8841 1.7341 1.6741
2594.475 1.5541 1.4141 1.2541 1.0841 0.9674 0.8291 0.8305 0.8656 0.8404 0.7901
2613.765 0.7683 0.7458 0.6954 0.6709 0.7533 0.7438 0.6932 0.6795 0.6723 0.7528
2633.055 0.7872 0.7971 0.7837 0.8077 0.9053 0.9734 1.0176 1.0541 1.1141 1.2341
2652.345 1.2641 1.2441 1.2941 1.3041 1.4241 1.5541 1.5341 1.5441 1.5741 1.5341
2671.634 1.4941 1.5841 1.6441 1.6641 1.6541 1.6041 1.6541 1.7141 1.7341 1.6941
2690.924 1.6341 1.6141 1.6041 1.6341 1.6241 1.5241 1.3941 1.3241 1.1941 1.0412
2710.214 0.9548 0.8639 0.8266 0.7906 0.6927 0.6811 0.6778 0.6306 0.6357 0.6168
2729.504 0.604 0.5421 0.4481 0.516 0.6065 0.5833 0.5882 0.6352 0.6787 0.6895
2748.794 0.7122 0.7629 0.7488 0.6938 0.7174 0.7201 0.7436 0.8372 0.7963 0.7257
2768.083 0.7667 0.8475 0.8065 0.6767 0.6255 0.6399 0.6802 0.7211 0.7386 0.7668
2787.373 0.8244 0.8345 0.8255 0.941 1.0541 1.0741 1.1241 1.1341 1.1141 1.1141
2806.663 1.0941 1.0088 1.024 1.0541 1.0167 0.9955 0.9632 0.9991 0.9907 1.0188
2825.953 1.1041 1.1041 1.1941 1.2941 1.3341 1.3941 1.5341 1.6341 1.6741 1.7841
2845.242 1.8641 2.0041 2.1541 2.1941 2.3341 2.4141 2.5341 2.7041 2.8041 2.9241
2864.532 2.9941 3.0341 3.1141 3.1241 3.0241 2.9641 2.9241 2.8841 2.8141 2.7641
2883.822 2.6641 2.5141 2.4641 2.4041 2.3241 2.2241 2.1641 2.1541 2.1041 2.0541
2903.112 2.0641 2.0041 1.9841 2.0241 2.0241 2.0441 1.9941 2.0241 2.1541 2.2341
2922.401 2.2841 2.3041 2.2341 2.1641 2.1141 2.0741 2.0441 1.9641 1.8741 1.7741
2941.691 1.6841 1.6241 1.4941 1.3041 1.2741 1.2841 1.2041 1.1441 1.0019 0.9238
2960.981 0.8762 0.7894 0.6905 0.5749 0.5893 0.6693 0.6383 0.5664 0.5255 0.4908
2980.271 0.4781 0.57 0.6135 0.6253 0.6939 0.6846 0.6335 0.7248 0.8154 0.8769
2999.561 0.885 0.8232 0.8116 0.8915 0.9968 0.9832 1.0641 1.2841 1.4341 1.4141
3018.850 1.4541 1.5241 1.6441 1.8541 1.9641 1.9741 1.9241 1.8641 1.8441 1.8341
3038.140 1.8041 1.8341 1.9141 1.9841 2.1641 2.3141 2.5241 2.8141 3.2041 3.5641
3057.430 3.8041 4.1241 4.3741 4.5441 4.7841 5.0141 5.3041 5.6541 6.0241 6.5041
3076.720 7.0441 7.5541 8.0141 8.2741 8.2941 8.1541 7.6941 6.8141 5.8641 5.0341
3096.009 4.2441 3.5441 3.0741 2.6141 2.1041 1.7041 1.4641 1.1641 0.9308 0.8562
3115.299 0.817 0.8807 0.8166 0.7455 0.7449 0.5677 0.4636 0.4977 0.4307 0.3619
3134.589 0.3878 0.4255 0.3792 0.2697 0.2523 0.376 0.441 0.3583 0.3902 0.4561
3153.879 0.4748 0.5603 0.5571 0.553 0.6448 0.6203 0.5832 0.6542 0.5711 0.5898
3173.169 0.7228 0.5551 0.4594 0.6103 0.7203 0.7597 0.7108 0.7202 0.793 0.7152
3192.458 0.5906 0.6748 0.769 0.6732 0.578 0.5203 0.5413 0.4628 0.3951 0.4263
3211.748 0.3659 0.282 0.13786 0.07069 0.09914 0.08725 0.12399 0.2137 0.2939 0.3007
3231.038 0.2059 0.1575 0.1909 0.2119 0.2343 0.2297 0.1798 0.2654 0.3478 0.2652
3250.328 0.2124 0.1749 0.1951 0.2318 0.1729 0.10859 0.2264 0.3343 0.2879 0.1865
3269.617 0.13827 0.2085 0.2717 0.222 0.2076 0.2974 0.18 0.0075 0.1647 0.3637
3288.907 0.3027 0.2844 0.2798 0.1743 0.1456 0.09296 0.0148 0.08652 0.14356 0.1652
3308.197 0.2725 0.2666 0.2533 0.2655 0.2202 0.13038 0.0146 0.07584 0.2512 0.1815
3327.487 0.10682 0.14253 0.11787 0.12989 0.2033 0.2844 0.1669 0.155 0.1864 0.1484
3346.777 0.13353 0.1791 0.2435 0.1483 0.2075 0.2479 0.2378 0.2468 0.14189 0.224
3366.066 0.2898 0.1908 0.1444 0.187 0.2151 0.2072 0.1744 0.12592 0.0177 0.0343
3385.356 0.2494 0.3218 0.3008 0.2361 0.2268 0.2608 0.1908 0.1782 0.2587 0.3094
3404.646 0.2542 0.232 0.2487 0.2068 0.1836 0.1593 0.11743 0.11006 0.1985 0.1739
3423.936 0.10124 0.12077 0.2309 0.275 0.1682 0.11193 0.10921 0.14189 0.07761 0.046111
3443.225 0.08074 0.0341 0.07117 0.2005 0.2086 0.12445 0.1798 0.2969 0.2722 0.2082
3462.515 0.1846 0.12085 0.11824 0.2678 0.279 0.0638 0.06507 0.2411 0.2739 0.1993
3481.805 0.2089 0.2994 0.2378 0.1529 0.0767 0.0121 0.2225 0.3502 0.1839 0.1499
3501.095 0.13487 0.050534 0.07893 0.11918 0.1646 0.1586 0.1617 0.1543 0.0786 0.06325
3520.385 0.1565 0.1865 0.2214 0.2452 0.1856 0.1489 0.13556 0.2216 0.2073 0.2347
3539.674 0.2829 0.1597 0.09026 0.1857 0.2627 0.11178 0 0.071 0.1906 0.2428
3558.964 0.2888 0.2063 0.09633 0.12435 0.223 0.3084 0.2449 0.2117 0.2426 0.2107
3578.254 0.176 0.2543 0.2896 0.1711 0.09283 0.13667 0.168 0.2309 0.2687 0.2473
3597.544 0.3017 0.3041 0.1509 0.13282 0.2737 0.2786 0.2145 0.1483 0.2671 0.3168
3616.833 0.1946 0.1843 0.243 0.3721 0.3605 0.2265 0.1937 0.2187 0.272 0.3264
3636.123 0.2732 0.3031 0.2996 0.1916 0.3069 0.3905 0.3778 0.4367 0.4068 0.2865
3655.413 0.13704 0.2457 0.3559 0.2243 0.2504 0.3648 0.3268 0.2344 0.2387 0.3067
3674.703 0.2879 0.2429 0.2801 0.3694 0.4214 0.4002 0.4321 0.4706 0.3835 0.3202
3693.993 0.4558 0.5555 0.6033 0.5926 0.3685 0.3929 0.6084 0.7498 0.8219 0.8171
3713.282 0.816 0.8351 0.9167 0.7796 0.6126 0.6033 0.5526 0.532 0.5912 0.5975
3732.572 0.5086 0.4482 0.3841 0.3259 0.3366 0.3946 0.2674 0.1739 0.2497 0.3024
3751.862 0.1992 0.09023 0.12335 0.12455 0.03987 0.08832 0.1444 0.07341 0.13828 0.2546
3771.152 0.1919 0.2196 0.2585 0.1829 0.2743 0.1996 0.1614 0.2864 0.4224 0.3637
3790.441 0.2734 0.2456 0.239 0.349 0.4068 0.4928 0.4718 0.4158 0.4321 0.4773
3809.731 0.4895 0.5897 0.7458 0.6635 0.4296 0.406 0.583 0.7008 0.7709 0.7445
3829.021 0.6592 0.597 0.494 0.4897 0.5295 0.4628 0.4077 0.3543 0.3344 0.318
3848.311 0.2036 0.166 0.2947 0.3748 0.3199 0.2231 0.2129 0.2871 0.2563 0.2293
3867.601 0.2144 0.1576 0.12833 0.1768 0.3122 0.3954 0.3572 0.273 0.1912 0.08137
3886.890 0.09499 0.2166 0.2012 0.1832 0.2095 0.195 0.261 0.4206 0.415 0.2888
3906.180 0.2975 0.2119 0.1836 0.2548 0.1905 0.1831 0.2395 0.1822 0.2207 0.2317
3925.470 0.268 0.3228 0.1847 0.1482 0.1873 0.1825 0.1977 0.1619 0.2436 0.3725
3944.760 0.2865 0.2056 0.13033 0.1769 0.2018 0.1947 0.2354 0.2757 0.2663 0.2922
3964.049 0.4143 0.3153 0.2425 0.2498 0.2645 0.284 0.2225 0.2636 0.3113 0.2754
3983.339 0.4174 0.3878 0.1532 0.1657 0.1895 0.1796 0.2005 0.2015 0.2566 0.1578
##END=
