##TITLE=3,4-Dimethylacetanilide
##JCAMP-DX=4.24
##DATA TYPE=INFRARED SPECTRUM
##ORIGIN=EPA-IR VAPOR PHASE LIBRARY
##OWNER=SRD/NIST
Collection (C) 2018 copyright by the U.S. Secretary of Commerce
on behalf of the United States of America. All rights reserved.
##CAS REGISTRY NO=2198-54-1
##MOLFORM=C 10 H 13 N O
##$NIST SOURCE=MSDC-IR
##STATE=gas
##XUNITS=1/CM
##YUNITS=ABSORBANCE
##XFACTOR=1.
##YFACTOR=0.001
##DELTAX=1.92934
##FIRSTX=549.9
##LASTX=3999.5
##FIRSTY=25.04
##MAXX=3999.53
##MINX=549.863
##MAXY=0.36777
##MINY=0
##NPOINTS=1789
##XYDATA=(X++(Y..Y))
549.863 25.04 24.62 23.79 22.94 22.28 21.54 20.8 19.71 18.46 17.7
569.156 17.17 16.62 16 15.38 14.75 14.02 13.29 12.65 12.06 11.63
588.450 11.3 10.93 10.75 10.67 10.66 10.71 10.86 11.05 11.24 11.58
607.743 11.95 12.23 12.41 12.47 12.53 12.62 12.75 13 13.43 13.99
627.037 14.67 15.58 16.6 17.76 18.93 19.62 19.58 19.06 18.25 17.1
646.330 15.56 13.72 11.92 10.43 9.36 8.57 8.01 7.63 7.42 7.24
665.624 7.06 6.94 6.88 6.79 6.61 6.47 6.31 6.17 6.08 6.13
684.917 6.28 6.46 6.84 7.28 7.75 8.4 9.17 9.99 10.57 10.64
704.210 10.47 10.18 9.72 9.13 8.41 7.62 6.95 6.39 5.92 5.5548
723.504 5.2825 5.0842 4.976 5.0059 5.0309 5.0644 5.1114 5.1605 5.2535 5.3429
742.797 5.4629 5.6737 5.96 6.25 6.55 6.85 7.13 7.48 7.82 8.14
762.091 8.4 8.57 8.7 8.82 8.94 9.13 9.43 9.87 10.48 11.26
781.384 12.28 13.53 15 16.69 18.66 20.8 23.02 25.06 26.67 27.97
800.678 29.07 30.04 30.74 31.04 31.14 31.01 30.75 30.56 30.31 29.78
819.971 28.71 27 24.79 22.54 20.49 18.66 17.1 15.84 14.93 14.4
839.264 14.21 14.34 14.68 15.28 16.14 16.98 17.19 16.81 16.49 16.35
858.558 16.2 16.06 15.98 15.97 16.07 16.32 16.65 17.07 17.62 18.12
877.851 18.55 18.73 18.57 18.24 17.73 17.08 16.37 15.58 14.73 13.88
897.145 13.09 12.41 11.82 11.31 10.81 10.35 10 9.72 9.48 9.31
916.438 9.18 9.15 9.14 9.16 9.19 9.25 9.36 9.46 9.55 9.66
935.732 9.83 10 10.16 10.35 10.57 10.8 11.01 11.21 11.48 11.78
955.025 12.1 12.48 12.9 13.38 13.9 14.45 15.01 15.59 16.26 17.01
974.318 17.88 18.85 19.92 21.05 22.23 23.43 24.62 25.84 27.16 28.58
993.612 30.06 31.48 32.95 34.56 36.22 37.89 39.42 40.73 41.7 42.2
1012.905 42.15 41.52 40.27 38.48 36.33 33.95 31.54 29.29 27.3 25.69
1032.199 24.43 23.42 22.65 22.07 21.59 21.2 20.88 20.56 20.25 19.98
1051.492 19.74 19.51 19.31 19.18 18.99 18.8 18.6 18.34 18 17.54
1070.786 17.05 16.53 15.89 15.23 14.61 14 13.4 12.85 12.33 11.85
1090.079 11.43 11.04 10.72 10.45 10.24 10.07 9.94 9.88 9.89 10.04
1109.372 10.24 10.48 10.72 10.94 11.12 11.2 11.22 11.15 11.02 10.83
1128.666 10.58 10.36 10.16 9.99 9.88 9.83 9.82 9.89 10.02 10.21
1147.959 10.47 10.82 11.29 11.85 12.49 13.17 13.75 14.14 14.44 14.82
1167.253 15.24 15.54 15.66 15.72 15.82 16.09 16.54 17.18 17.99 19.01
1186.546 20.27 21.8 23.74 26.31 29.72 34.26 40.24 47.73 56.61 66.52
1205.840 76.92 87.34 97.5 107.29 116.49 124.96 132.92 140.6 147.53 152.76
1225.133 155.16 154.05 149.43 141.52 130.65 117.53 103.42 90.05 78.99 70.87
1244.426 65.39 61.74 59.1 56.95 54.99 53.18 51.66 50.48 49.63 49.2
1263.720 49.54 50.92 53.42 57 61.48 66.42 71.29 75.7 79.64 83.38
1283.013 87.37 91.78 96.77 102.8 110.17 118.7 127.72 136.25 143.13 147.27
1302.307 147.93 144.92 138.46 129.2 117.95 105.72 93.48 81.96 71.51 62.3
1321.600 54.45 47.89 42.54 38.3 34.93 32.32 30.41 29.07 28.24 27.93
1340.894 28.07 28.62 29.68 31.29 33.54 36.61 40.71 46.03 52.64 60.36
1360.187 68.72 77.35 86.01 94.22 101.51 107.05 110.16 111.08 110.7 109.78
1379.480 108.68 107.4 106.29 106.24 107.97 111.76 117.26 123.74 130.81 137.97
1398.774 144.78 150.03 151.96 150.17 145.46 138.68 129.72 118.31 105.41 92.95
1418.067 82.79 75.27 70.34 67.22 65.36 64.47 64.29 64.75 65.82 67.46
1437.361 69.65 72.1 74.9 78.03 81.36 84.78 88.13 91.21 93.91 96.03
1456.654 97.73 98.86 99.42 99.74 100 100.37 101.09 102.44 104.77 108.21
1475.948 112.93 119.27 127.25 137.27 149.36 163.63 180.33 199.48 221.11 244.25
1495.241 268.65 293.83 317.23 337.72 353.82 364.2 367.77 363.74 351.73 332.37
1514.534 308.32 280.82 251.53 222.25 193.01 168.09 146.29 128.16 113.54 101.74
1533.828 91.95 83.96 77.55 71.82 66.81 62.67 59.24 56.42 54.19 52.43
1553.121 51.21 50.38 49.89 49.71 49.78 50.07 50.64 51.47 52.57 53.95
1572.415 55.6 57.56 60 62.72 65.63 68.8 71.89 74.71 77 78.46
1591.708 78.88 78.23 76.6 74.26 71.52 68.88 66.89 66.04 66.58 68.49
1611.002 71.3 74.2 76.18 76.42 74.62 70.87 65.35 58.39 50.59 42.43
1630.295 34.96 29.02 24.75 21.74 19.73 18.49 17.69 17.18 16.89 16.85
1649.588 16.96 17.21 17.58 17.96 18.42 18.98 19.64 20.36 21.18 22.14
1668.882 23.27 24.58 26.12 27.97 30.15 32.53 35.28 38.31 41.82 45.59
1688.175 49.59 54.04 58.9 64.38 71.3 79.54 89.96 104.02 121.1 144.31
1707.469 173.47 208.34 246.72 284.58 317.37 342.8 359.77 366.7 361.97 345.01
1726.762 317.5 285.59 255.2 228.95 204.17 182.1 162.07 143.1 126.8 112.7
1746.056 100.84 90.87 82.49 75.22 68.95 63.28 57.86 52.82 47.96 43.36
1765.349 39.23 35.5 32.15 29.26 26.71 24.55 22.74 21.17 19.8 18.58
1784.642 17.44 16.34 15.29 14.32 13.41 12.61 11.91 11.24 10.66 10.2
1803.936 9.76 9.36 9.01 8.69 8.41 8.18 7.98 7.82 7.68 7.55
1823.229 7.49 7.4 7.34 7.32 7.3 7.31 7.36 7.41 7.48 7.57
1842.523 7.66 7.76 7.83 7.87 7.89 7.89 7.89 7.83 7.77 7.68
1861.816 7.55 7.47 7.38 7.28 7.19 7.15 7.14 7.07 7.01 6.99
1881.110 6.95 6.87 6.81 6.74 6.61 6.47 6.33 6.17 6.02 5.86
1900.403 5.6727 5.4854 5.3469 5.2215 5.0841 4.9788 4.88572 4.7878 4.728 4.683
1919.696 4.622 4.57 4.56 4.532 4.518 4.508 4.467 4.444 4.435 4.427
1938.990 4.414 4.381 4.346 4.312 4.277 4.235 4.174 4.098 4.041 3.947
1958.283 3.85 3.8 3.74 3.68 3.62 3.56 3.53 3.53 3.51 3.47
1977.577 3.45 3.43 3.4 3.38 3.39 3.4 3.41 3.41 3.42 3.46
1996.870 3.52 3.56 3.56 3.56 3.56 3.56 3.58 3.57 3.53 3.49
2016.164 3.48 3.46 3.44 3.42 3.4 3.4 3.41 3.4 3.36 3.34
2035.457 3.35 3.35 3.31 3.28 3.26 3.25 3.24 3.22 3.19 3.17
2054.750 3.14 3.11 3.07 3.05 3.02 2.98 2.99 2.98 2.95 2.9
2074.044 2.86 2.86 2.85 2.81 2.79 2.79 2.79 2.75 2.73 2.72
2093.337 2.72 2.75 2.78 2.8 2.8 2.83 2.86 2.92 2.98 3.03
2112.631 3.08 3.12 3.17 3.24 3.3 3.38 3.45 3.52 3.59 3.61
2131.924 3.63 3.66 3.68 3.67 3.66 3.65 3.65 3.65 3.61 3.6
2151.218 3.58 3.57 3.56 3.54 3.5 3.47 3.47 3.45 3.42 3.39
2170.511 3.36 3.35 3.32 3.3 3.28 3.22 3.18 3.18 3.16 3.14
2189.804 3.14 3.13 3.12 3.12 3.13 3.14 3.13 3.13 3.13 3.1
2209.098 3.1 3.08 3.05 3.02 2.98 2.97 2.98 2.98 2.96 2.95
2228.391 2.94 2.95 2.95 2.95 2.94 2.94 2.96 2.99 2.99 2.95
2247.685 2.93 2.94 2.91 2.89 2.86 2.82 2.8 2.78 2.75 2.75
2266.978 2.76 2.77 2.78 2.77 2.77 2.78 2.79 2.79 2.79 2.78
2286.272 2.78 2.76 2.75 2.75 2.72 2.74 2.76 2.74 2.72 2.73
2305.565 2.75 2.76 2.8 2.82 2.81 2.84 2.88 2.89 2.91 2.92
2324.858 2.93 2.92 2.91 2.92 2.92 2.88 2.85 2.84 2.84 2.83
2344.152 2.79 2.77 2.76 2.73 2.72 2.74 2.73 2.72 2.71 2.72
2363.445 2.76 2.79 2.8 2.83 2.85 2.85 2.89 2.95 2.99 3.03
2382.739 3.06 3.09 3.14 3.19 3.25 3.3 3.36 3.41 3.44 3.43
2402.032 3.44 3.48 3.48 3.43 3.39 3.35 3.33 3.29 3.23 3.22
2421.326 3.19 3.14 3.1 3.08 3.05 3.03 3.03 3.04 3.05 3.04
2440.619 3.05 3.05 3.03 3.04 3.04 3.01 2.99 2.96 2.93 2.91
2459.912 2.89 2.85 2.82 2.77 2.72 2.67 2.61 2.61 2.61 2.6
2479.206 2.55 2.53 2.51 2.48 2.45 2.43 2.42 2.39 2.34 2.35
2498.499 2.37 2.35 2.37 2.35 2.31 2.3 2.32 2.31 2.28 2.24
2517.793 2.23 2.26 2.25 2.21 2.2 2.18 2.16 2.16 2.19 2.21
2537.086 2.2 2.21 2.2 2.22 2.24 2.22 2.2 2.19 2.2 2.18
2556.380 2.16 2.16 2.19 2.16 2.12 2.13 2.11 2.07 2.07 2.08
2575.673 2.07 2.08 2.08 2.08 2.08 2.07 2.04 2.02 2.03 2.02
2594.966 2.03 2.04 2.01 1.99 2.01 1.99 1.96 1.95 1.95 1.93
2614.260 1.91 1.94 1.96 1.95 1.94 1.95 1.93 1.92 1.92 1.91
2633.553 1.94 1.95 1.97 1.97 1.94 1.95 1.97 1.97 1.96 1.97
2652.847 2 2.05 2.04 2 1.99 2.01 2.04 2.07 2.12 2.14
2672.140 2.16 2.17 2.21 2.22 2.22 2.24 2.27 2.29 2.3 2.32
2691.434 2.28 2.3 2.37 2.36 2.37 2.41 2.45 2.51 2.54 2.6
2710.727 2.65 2.73 2.8 2.88 2.96 3.06 3.18 3.31 3.47 3.65
2730.020 3.893 4.162 4.456 4.695 4.86759 4.9611 4.9439 4.9156 4.82752 4.62
2749.314 4.357 4.119 3.9 3.69 3.55 3.45 3.38 3.38 3.41 3.4
2768.607 3.36 3.31 3.31 3.26 3.2 3.16 3.09 3.03 2.96 2.93
2787.901 2.96 3.02 3.09 3.05 3.1 3.22 3.3 3.39 3.53 3.63
2807.194 3.69 3.83 4.002 4.183 4.383 4.549 4.721 4.9725 5.2422 5.5353
2826.488 5.87 6.19 6.52 6.92 7.34 7.86 8.4 9.03 9.76 10.46
2845.781 11.25 12.16 13.16 14.33 15.62 17 18.57 20.39 22.44 24.78
2865.074 27.33 29.93 32.52 34.95 36.95 38.42 39.43 39.9 39.81 39.27
2884.368 38.35 37.31 36.24 35.24 34.49 33.85 33.37 33.14 33.05 33.08
2903.661 33.45 34.11 35.01 36.19 37.69 39.68 42.29 45.5 49.41 54.21
2922.955 59.8 66.02 72.42 78.35 83.07 86.18 87.69 87.4 85.35 81.85
2942.248 77.25 72.27 67.54 63.46 60.13 57.21 54.64 52.43 50.48 48.84
2961.542 47.51 46.5 45.93 45.62 45.51 45.59 45.73 45.79 45.55 45.07
2980.835 44.38 43.42 42.09 40.48 38.8 37.19 35.82 34.79 34.06 33.7
3000.128 33.85 34.23 34.96 36.07 37.43 39.12 40.99 42.87 44.6 46.1
3019.422 47.31 48.11 48.43 48.19 47.42 46.14 44.49 42.72 41.07 39.65
3038.715 38.41 37.24 36.16 35.26 34.37 33.36 32.37 31.27 30.02 28.63
3058.009 27.13 25.7 24.34 23.04 21.86 20.83 19.85 18.89 17.98 17.15
3077.302 16.48 15.86 15.24 14.6 13.99 13.41 12.89 12.35 11.79 11.25
3096.596 10.68 10.16 9.71 9.31 8.92 8.64 8.38 8.11 7.93 7.69
3115.889 7.43 7.11 6.79 6.59 6.33 5.97 5.6238 5.2258 4.7911 4.484
3135.182 4.192 3.862 3.5 3.17 2.93 2.69 2.43 2.21 2 1.74
3154.476 1.57 1.51 1.42 1.37 1.31 1.22 1.09 0.98 0.92 0.87
3173.769 0.77 0.62 0.64 0.64 0.53 0.53 0.51 0.4 0.36 0.39
3193.063 0.31 0.25 0.26 0.17 0.12 0.21 0.22 0.19 0.22 0.15
3212.356 0.06 0.07 0.09 0.11 0.14 0.18 0.23 0.2 0.17 0.12
3231.650 0.11 0.14 0.12 0.1 0.12 0.14 0.05 0 0.06 0.11
3250.943 0.13 0.09 0.1 0.14 0.12 0.08 0.04 0.13 0.13 0.05
3270.236 0.09 0.16 0.17 0.11 0.08 0.17 0.18 0.11 0.12 0.14
3289.530 0.17 0.17 0.14 0.12 0.14 0.2 0.21 0.24 0.3 0.21
3308.823 0.12 0.23 0.35 0.28 0.22 0.25 0.38 0.49 0.43 0.46
3328.117 0.54 0.55 0.58 0.56 0.5 0.5 0.51 0.48 0.5 0.63
3347.410 0.72 0.68 0.63 0.62 0.73 0.78 0.69 0.71 0.83 0.93
3366.704 0.99 1.09 1.21 1.23 1.31 1.5 1.72 1.86 2.04 2.35
3385.997 2.57 2.83 3.19 3.52 3.876 4.338 4.85296 5.4316 6.02 6.58
3405.290 7.23 7.88 8.49 9.14 9.73 10.33 10.94 11.44 11.85 12.13
3424.584 12.32 12.42 12.44 12.4 12.31 12.32 12.33 12.36 12.5 12.7
3443.877 12.98 13.4 14.04 14.8 15.6 16.6 17.75 18.83 19.78 20.5
3463.171 20.78 20.48 19.71 18.89 18 16.75 15.11 13.21 11.26 9.47
3482.464 8.05 7 6.11 5.3553 4.83887 4.433 4.122 3.839 3.52 3.23
3501.758 3.02 2.84 2.65 2.45 2.26 2.14 2.09 2.04 1.95 1.89
3521.051 1.82 1.76 1.77 1.73 1.69 1.69 1.64 1.61 1.6 1.53
3540.344 1.51 1.49 1.47 1.45 1.49 1.54 1.58 1.61 1.58 1.6
3559.638 1.61 1.64 1.66 1.71 1.69 1.67 1.8 1.78 1.75 1.79
3578.931 1.76 1.75 1.77 1.73 1.66 1.67 1.64 1.63 1.63 1.57
3598.225 1.59 1.67 1.6 1.53 1.57 1.56 1.52 1.46 1.48 1.55
3617.518 1.58 1.59 1.6 1.58 1.52 1.47 1.49 1.52 1.51 1.57
3636.812 1.62 1.59 1.6 1.64 1.66 1.63 1.58 1.62 1.61 1.61
3656.105 1.6 1.64 1.69 1.63 1.59 1.67 1.78 1.75 1.7 1.75
3675.398 1.7 1.66 1.69 1.69 1.72 1.72 1.72 1.72 1.67 1.6
3694.692 1.6 1.62 1.64 1.63 1.67 1.68 1.67 1.71 1.69 1.69
3713.985 1.74 1.72 1.69 1.71 1.72 1.66 1.66 1.72 1.73 1.72
3733.279 1.73 1.76 1.8 1.79 1.79 1.83 1.81 1.76 1.76 1.8
3752.572 1.84 1.92 1.95 1.97 1.98 1.95 1.98 2 1.97 1.98
3771.866 1.93 1.92 1.96 1.99 1.97 1.94 1.94 1.94 1.96 1.97
3791.159 1.97 1.97 1.98 2.02 2 1.97 1.99 2.04 2.06 2.06
3810.452 2.06 2.13 2.15 2.09 2.09 2.1 2.08 2.09 2.16 2.18
3829.746 2.18 2.15 2.09 2.11 2.19 2.22 2.2 2.13 2.15 2.21
3849.039 2.23 2.24 2.2 2.16 2.2 2.26 2.28 2.24 2.25 2.27
3868.333 2.25 2.24 2.28 2.31 2.31 2.36 2.37 2.31 2.35 2.4
3887.626 2.36 2.39 2.44 2.41 2.45 2.45 2.46 2.51 2.49 2.41
3906.920 2.36 2.4 2.45 2.47 2.48 2.5 2.48 2.47 2.47 2.44
3926.213 2.44 2.48 2.47 2.45 2.48 2.51 2.54 2.49 2.47 2.46
3945.506 2.46 2.45 2.43 2.44 2.49 2.55 2.53 2.54 2.58 2.56
3964.800 2.55 2.55 2.55 2.5 2.42 2.42 2.46 2.47 2.43 2.41
3984.093 2.43 2.39 2.38 2.46 2.45 2.4 2.38 2.39 2.41
##END=
