##TITLE=4-Nonene
##JCAMP-DX=4.24
##DATA TYPE=INFRARED SPECTRUM
##ORIGIN=NIST Mass Spectrometry Data Center
##OWNER=NIST Standard Reference Data Program
Collection (C) 2018 copyright by the U.S. Secretary of Commerce
on behalf of the United States of America. All rights reserved.
##CAS REGISTRY NO=2198-23-4
##MOLFORM=C 9 H 18
##$NIST SOURCE=MSDC-IR
##SPECTROMETER/DATA SYSTEM=HP-GC/MS/IRD
##STATE=gas
##XUNITS=1/CM
##YUNITS=ABSORBANCE
##XFACTOR=1.0
##YFACTOR=0.000003900
##DELTAX=4.0
##FIRSTX=550.0
##LASTX=3846.0
##FIRSTY=0.000059
##MAXX=3846
##MINX=550
##MAXY=0.039
##MINY=0
##NPOINTS=825
##XYDATA=(X++(Y..Y))
550.0 15 10 12 9 42 37 31 35 24 28
590.0 46 64 64 54 52 57 69 55 39 33
630.0 25 33 47 54 53 52 54 74 95 84
670.0 87 117 134 140 146 174 187 201 231 236
710.0 238 236 241 241 242 244 239 242 246 260
750.0 261 246 237 231 228 216 195 185 187 178
790.0 149 127 111 101 98 101 110 109 103 99
830.0 96 107 110 107 115 122 128 129 133 142
870.0 153 164 172 182 184 184 189 186 179 179
910.0 188 210 226 239 265 293 327 385 475 606
950.0 770 966 1180 1337 1391 1347 1202 993 784 611
990.0 476 379 321 285 258 240 229 227 221 212
1030.0 206 198 206 217 230 246 253 261 270 274
1070.0 269 264 266 263 262 266 262 255 235 206
1110.0 175 143 127 106 89 88 88 88 80 77
1150.0 75 62 59 61 60 54 53 57 63 71
1190.0 70 72 83 90 89 89 101 106 109 111
1230.0 110 118 129 145 156 168 181 192 208 222
1270.0 222 225 231 232 243 255 267 280 285 292
1310.0 298 302 306 314 336 368 410 443 455 440
1350.0 396 355 336 336 344 371 432 497 531 535
1390.0 504 439 391 356 327 318 316 328 359 416
1430.0 501 601 717 829 933 1032 1104 1154 1160 1103
1470.0 998 866 715 573 462 369 300 249 214 184
1510.0 157 141 125 113 107 101 96 83 75 76
1550.0 74 71 66 61 61 63 56 50 56 58
1590.0 47 40 42 46 53 59 57 54 54 55
1630.0 60 66 66 67 72 75 80 82 82 81
1670.0 79 76 72 70 66 64 61 57 59 59
1710.0 58 60 57 54 54 57 57 56 55 52
1750.0 50 45 44 47 45 44 43 41 42 39
1790.0 34 33 31 30 33 32 32 32 33 31
1830.0 32 35 35 30 26 27 26 24 25 21
1870.0 17 17 18 18 19 21 22 18 17 16
1910.0 13 7 8 12 9 8 8 10 13 8
1950.0 5 5 5 5 2 2 5 4 1 0
1990.0 0 3 9 11 12 11 12 16 19 18
2030.0 18 17 20 23 21 21 22 19 16 14
2070.0 13 10 12 13 11 11 11 12 13 11
2110.0 9 7 4 9 11 8 11 13 15 12
2150.0 11 11 7 7 9 10 9 7 6 7
2190.0 10 15 15 10 10 8 7 7 11 13
2230.0 12 12 11 9 12 16 14 13 17 16
2270.0 12 11 12 12 14 14 11 11 16 19
2310.0 18 17 17 16 19 22 22 26 24 19
2350.0 17 20 26 23 21 25 25 23 24 26
2390.0 25 22 26 31 34 34 30 27 23 23
2430.0 23 24 25 23 25 23 21 20 12 9
2470.0 11 14 16 13 13 15 16 19 19 19
2510.0 26 31 29 27 31 41 41 42 50 50
2550.0 46 48 50 49 47 43 47 47 48 51
2590.0 53 61 65 59 59 64 64 66 67 70
2630.0 76 83 88 92 94 99 108 113 116 119
2670.0 120 124 125 119 116 117 119 120 117 115
2710.0 117 129 135 138 147 160 176 185 195 207
2750.0 212 212 210 214 224 238 252 264 285 312
2790.0 335 360 385 414 453 496 552 621 707 822
2830.0 973 1172 1439 1778 2162 2562 2958 3321 3662 3971
2870.0 4236 4489 4686 4711 4626 4489 4359 4390 4647 5104
2910.0 5715 6442 7271 8159 8997 9648 10000 9948 9506 8900
2950.0 8343 8036 8134 8577 8929 8710 7905 6640 5208 4057
2990.0 3285 2773 2437 2219 2082 1974 1867 1753 1611 1444
3030.0 1273 1109 960 834 721 625 554 495 448 416
3070.0 385 357 336 323 305 285 266 257 247 235
3110.0 221 210 204 196 186 175 166 167 168 154
3150.0 144 134 128 129 126 121 121 121 111 109
3190.0 111 112 105 99 96 88 80 71 65 65
3230.0 66 56 50 50 50 49 46 48 44 38
3270.0 40 41 37 33 32 36 34 32 36 37
3310.0 35 31 32 35 33 32 36 35 36 30
3350.0 27 37 37 37 41 35 26 35 36 28
3390.0 27 21 26 30 26 24 24 31 33 28
3430.0 25 27 29 23 18 18 18 17 20 27
3470.0 29 30 23 12 13 9 7 13 9 7
3510.0 12 19 21 21 16 13 16 12 18 22
3550.0 18 19 18 11 10 17 17 14 17 20
3590.0 17 16 18 23 24 21 16 11 17 25
3630.0 29 25 25 23 24 27 24 26 28 26
3670.0 26 28 24 26 32 30 30 31 37 40
3710.0 33 27 28 26 24 30 35 28 33 34
3750.0 31 35 34 32 30 32 35 36 33 33
3790.0 33 37 41 39 36 38 40 36 38 43
3830.0 43 37 33 32 38
##END=
