##TITLE=1-Allyl-2-(1H)pyridinone
##JCAMP-DX=4.24
##DATA TYPE=INFRARED SPECTRUM
##ORIGIN=EPA-IR VAPOR PHASE LIBRARY
##OWNER=SRD/NIST
Collection (C) 2018 copyright by the U.S. Secretary of Commerce
on behalf of the United States of America. All rights reserved.
##CAS REGISTRY NO=21997-30-8
##MOLFORM=C 8 H 9 N O
##$NIST SOURCE=MSDC-IR
##STATE=gas
##XUNITS=1/CM
##YUNITS=ABSORBANCE
##XFACTOR=1.
##YFACTOR=0.001
##DELTAX=1.92898
##FIRSTX=549.8
##LASTX=4000.7
##FIRSTY=2.386
##MAXX=4000.7
##MINX=549.759
##MAXY=0.188176
##MINY=0
##NPOINTS=1790
##XYDATA=(X++(Y..Y))
549.759 2.386 2.566 2.736 2.956 2.546 2.626 2.856 2.926 3.026 2.956
569.049 3.036 3.326 3.606 3.596 3.646 3.896 3.606 3.296 3.186 3.226
588.339 3.326 3.056 2.586 2.246 2.086 1.896 1.696 1.696 1.616 1.266
607.628 1.276 1.596 1.576 1.456 1.496 1.526 1.706 1.976 2.316 2.446
626.918 2.436 2.546 2.726 3.046 3.176 3.236 3.506 3.566 3.306 3.006
646.208 2.906 2.786 2.696 2.516 2.096 1.886 1.806 1.686 1.486 1.406
665.498 1.436 1.436 1.436 1.426 1.316 1.2035 1.2131 1.276 1.221 1.1988
684.787 1.1782 1.2251 1.266 1.276 1.426 1.576 2.046 2.476 2.976 3.666
704.077 4.306 5.066 5.696 6.346 7.016 7.846 8.836 9.936 10.596 9.966
723.367 8.846 8.276 8.216 8.326 8.546 9.026 9.576 10.516 11.966 13.326
742.657 14.926 16.796 18.676 21.196 24.336 25.516 23.346 20.336 18.496 17.276
761.947 15.946 14.356 12.676 10.886 9.196 7.746 6.556 5.676 4.956 4.246
781.236 3.646 3.386 3.126 2.586 2.306 2.146 1.816 1.656 1.636 1.626
800.526 1.546 1.536 1.666 1.656 1.676 2.056 2.456 2.666 2.956 3.556
819.816 4.226 4.906 5.666 6.456 7.336 8.076 8.956 10.366 11.856 12.046
839.106 10.546 9.086 8.236 7.576 7.166 6.716 6.136 5.736 5.436 5.306
858.395 5.586 6.046 6.376 6.636 7.026 7.246 7.416 7.586 7.536 7.286
877.685 6.756 6.116 5.466 4.886 4.326 3.796 3.576 3.566 3.486 3.516
896.975 3.716 3.756 4.036 4.736 5.336 5.966 6.966 8.126 9.286 10.426
916.265 11.656 12.916 13.936 14.666 14.876 14.776 14.596 14.246 13.936 13.236
935.555 12.306 11.426 10.546 9.736 8.946 8.386 7.936 7.326 6.856 6.536
954.844 6.186 5.736 5.336 5.116 4.966 4.796 4.616 4.656 4.736 4.906
974.134 5.246 5.416 5.466 5.596 5.846 6.496 6.886 6.906 7.276 7.546
993.424 7.676 7.546 7.246 6.946 6.596 6.346 5.926 5.306 4.676 4.066
1012.714 3.846 3.546 3.256 3.226 3.026 3.046 2.946 2.626 2.396 2.366
1032.003 2.276 2.166 2.146 2.136 2.286 2.176 2.016 2.156 2.186 2.256
1051.293 2.126 2.046 2.116 2.016 2.066 2.226 2.106 1.806 1.906 2.116
1070.583 2.186 2.536 2.926 2.876 2.816 3.106 3.236 3.306 3.556 3.626
1089.873 3.536 3.256 3.146 3.066 3.396 3.826 3.196 3.026 3.356 3.426
1109.163 3.556 3.766 4.446 5.096 5.616 6.256 7.326 8.846 10.206 11.566
1128.452 13.136 14.416 15.526 16.706 18.026 19.326 20.166 20.276 20.026 19.346
1147.742 18.596 18.206 17.396 16.246 15.146 13.816 12.426 11.296 10.116 9.136
1167.032 8.396 7.896 7.216 6.436 5.856 5.266 4.636 3.986 3.526 3.146
1186.322 3.026 3.036 2.926 2.956 3.196 3.496 3.516 3.996 4.766 5.066
1205.611 5.636 6.096 6.026 6.276 6.606 6.716 7.146 7.406 7.926 8.576
1224.901 9.186 9.936 10.556 11.316 12.486 13.706 14.236 14.356 14.386 14.186
1244.191 13.496 12.456 11.416 10.356 9.286 8.306 7.216 6.136 5.396 4.886
1263.481 4.606 4.506 4.636 4.506 4.456 4.606 4.606 4.646 4.686 4.756
1282.771 4.776 4.866 5.076 5.236 5.366 5.586 5.846 6.146 6.366 6.586
1302.060 6.896 7.136 7.376 7.696 8.006 8.406 8.906 9.436 10.066 10.766
1321.350 11.416 12.126 12.966 13.806 14.536 15.226 15.846 16.326 16.586 16.586
1340.640 16.316 15.806 15.096 14.206 13.236 12.206 11.096 9.926 8.756 7.666
1359.930 6.666 5.786 5.066 4.506 4.146 3.896 3.666 3.626 3.736 3.996
1379.219 4.496 5.206 6.086 7.016 7.906 8.616 9.096 9.446 9.616 9.566
1398.509 9.416 9.226 8.846 8.166 7.426 6.876 6.616 6.686 6.926 7.176
1417.799 7.426 7.676 7.916 8.126 8.286 8.376 8.276 8.066 7.776 7.446
1437.089 7.126 6.856 6.656 6.546 6.526 6.606 6.816 7.206 7.766 8.226
1456.378 8.536 8.686 8.806 8.826 8.646 8.426 8.056 7.416 6.606 5.796
1475.668 5.136 4.566 4.196 3.986 3.896 3.826 3.866 4.086 4.266 4.366
1494.958 4.616 4.936 5.106 5.316 5.526 5.796 6.126 6.576 7.186 7.866
1514.248 8.746 9.896 11.436 13.326 15.726 18.316 21.116 24.056 26.796 29.056
1533.538 30.746 31.726 31.986 31.646 30.746 29.336 27.306 24.636 21.456 18.036
1552.827 14.936 12.156 10.056 8.446 7.176 6.316 5.786 5.456 5.276 5.226
1572.117 5.286 5.496 5.786 6.116 6.556 7.086 7.656 8.256 9.076 10.046
1591.407 11.226 12.736 14.446 16.586 19.076 21.756 24.606 27.466 30.036 31.976
1610.697 33.196 33.726 33.726 33.456 33.046 32.186 30.496 28.026 25.326 22.846
1629.986 20.836 19.156 17.956 17.186 16.686 16.456 16.516 16.706 17.016 17.586
1649.276 18.386 19.446 20.806 22.366 24.356 26.936 30.216 34.266 39.046 44.506
1668.566 51.206 59.486 69.416 81.176 95.446 110.876 127.506 143.916 159.386 172.976
1687.856 182.156 187.106 188.176 186.476 182.176 175.036 163.356 146.126 126.806 105.626
1707.146 85.746 68.506 54.396 43.246 34.766 28.306 23.276 19.666 17.016 14.926
1726.435 13.336 12.006 10.856 9.876 9.006 8.286 7.776 7.336 6.956 6.626
1745.725 6.436 6.256 6.096 5.896 5.756 5.666 5.576 5.416 5.216 5.026
1765.015 4.806 4.536 4.346 4.186 4.036 3.806 3.606 3.436 3.286 3.156
1784.305 3.026 2.896 2.806 2.746 2.706 2.676 2.616 2.576 2.616 2.656
1803.594 2.656 2.646 2.666 2.676 2.596 2.536 2.576 2.616 2.606 2.646
1822.884 2.676 2.656 2.766 2.856 2.846 2.926 3.036 3.076 3.096 3.136
1842.174 3.156 3.116 3.106 3.086 3.036 2.956 2.886 2.876 2.836 2.766
1861.464 2.686 2.626 2.476 2.256 2.156 2.056 1.936 1.806 1.666 1.606
1880.754 1.576 1.516 1.446 1.316 1.2275 1.1779 1.1772 1.2025 1.1823 1.1833
1900.043 1.1427 1.1366 1.163 1.1415 1.0984 1.0759 1.0749 1.0384 1.0418 1.077
1919.333 1.0652 1.0401 1.006 0.9795 1.0134 1.0631 1.1135 1.1405 1.1513 1.2083
1938.623 1.286 1.346 1.456 1.566 1.646 1.696 1.706 1.636 1.566 1.546
1957.913 1.486 1.426 1.366 1.276 1.1871 1.0905 1.0127 0.9614 0.918 0.8877
1977.202 0.9168 0.9327 0.9096 0.9015 0.8689 0.8915 0.9191 0.9059 0.8672 0.8154
1996.492 0.8291 0.8644 0.8756 0.8545 0.8943 0.9453 0.9228 0.8688 0.8703 0.8957
2015.782 0.8038 0.8052 0.7981 0.7182 0.7521 0.7423 0.7004 0.7236 0.7119 0.6927
2035.072 0.6648 0.5924 0.5732 0.5937 0.6157 0.5621 0.4785 0.5025 0.5382 0.5285
2054.362 0.4926 0.4509 0.4374 0.4413 0.4886 0.5145 0.469 0.4497 0.4705 0.4793
2073.651 0.5268 0.5459 0.4905 0.4978 0.5289 0.4913 0.5227 0.5211 0.4487 0.4453
2092.941 0.4794 0.4804 0.4992 0.5092 0.4606 0.4676 0.5152 0.5016 0.4897 0.5308
2112.231 0.5575 0.5668 0.5648 0.5693 0.5288 0.5175 0.5234 0.535 0.5599 0.5551
2131.521 0.5833 0.6128 0.5643 0.5177 0.554 0.553 0.526 0.5672 0.5864 0.5464
2150.810 0.6035 0.6508 0.6232 0.5798 0.5539 0.5539 0.5962 0.6742 0.6891 0.6965
2170.100 0.6853 0.6997 0.6975 0.6523 0.6717 0.6734 0.6795 0.653 0.6854 0.7038
2189.390 0.6356 0.6618 0.7084 0.7243 0.6712 0.6831 0.7833 0.7844 0.7257 0.7265
2208.680 0.7955 0.836 0.8331 0.8067 0.7848 0.8147 0.8274 0.7691 0.7731 0.7849
2227.970 0.7753 0.7455 0.7004 0.7333 0.7446 0.7095 0.6709 0.6454 0.6178 0.6449
2247.259 0.7166 0.7039 0.6713 0.7173 0.7758 0.8041 0.7528 0.7316 0.7989 0.8437
2266.549 0.8356 0.8938 0.8862 0.8022 0.8523 0.8907 0.8409 0.7738 0.7698 0.7675
2285.839 0.7688 0.7654 0.7348 0.7472 0.7318 0.7152 0.7339 0.7078 0.7057 0.7419
2305.129 0.7276 0.7476 0.7499 0.7716 0.767 0.6998 0.7165 0.7358 0.7724 0.7942
2324.418 0.8556 0.9565 1.0224 1.0535 1.0448 1.0645 1.0853 1.1324 1.2183 1.2206
2343.708 1.296 1.306 1.2209 1.2031 1.2151 1.256 1.266 1.1847 1.1509 1.2384
2362.998 1.256 1.2147 1.256 1.306 1.316 1.306 1.256 1.256 1.2321 1.2333
2382.288 1.2388 1.1918 1.1327 1.0953 1.0545 0.9351 0.8719 0.9041 0.851 0.8294
2401.578 0.8723 0.888 0.9102 0.8711 0.8281 0.8316 0.8304 0.8134 0.854 0.9229
2420.867 0.8958 0.8822 0.8675 0.8225 0.866 0.9287 0.9091 0.9062 0.9367 0.9421
2440.157 0.87 0.8088 0.8788 0.8988 0.8411 0.8042 0.8 0.8204 0.808 0.7742
2459.447 0.6921 0.6828 0.7338 0.7498 0.7295 0.775 0.8507 0.7553 0.6489 0.6305
2478.737 0.6099 0.6447 0.6834 0.6692 0.6491 0.5868 0.5303 0.5553 0.6657 0.6911
2498.026 0.6934 0.6578 0.5902 0.6579 0.7127 0.7803 0.8158 0.7843 0.8274 0.8499
2517.316 0.8151 0.7787 0.8172 0.8601 0.8966 0.9256 0.8932 0.8399 0.8841 1.0371
2536.606 1.0797 1.0506 0.9735 0.9294 0.9826 1.0339 1.0628 1.0486 1.0719 1.0337
2555.896 0.9694 1.0575 1.0815 1.0192 1.0354 1.0025 0.9935 1.0636 1.0381 0.9793
2575.186 0.9016 0.8141 0.8267 0.8173 0.8316 0.8317 0.7284 0.7618 0.8479 0.8846
2594.475 0.8727 0.7909 0.7434 0.6883 0.6817 0.7351 0.7042 0.7305 0.7396 0.6757
2613.765 0.713 0.6502 0.5072 0.6373 0.7259 0.7037 0.7521 0.7199 0.6375 0.6453
2633.055 0.6277 0.6017 0.6391 0.7067 0.7261 0.6265 0.5656 0.5962 0.683 0.6633
2652.345 0.5847 0.5809 0.6376 0.6729 0.66 0.6149 0.6059 0.6363 0.6519 0.5933
2671.634 0.6226 0.7743 0.7571 0.633 0.6422 0.6799 0.6363 0.5836 0.6057 0.6884
2690.924 0.6887 0.6739 0.7172 0.6971 0.6048 0.5417 0.6467 0.7717 0.7493 0.6945
2710.214 0.6306 0.5871 0.5636 0.6002 0.6066 0.633 0.7111 0.685 0.6463 0.5673
2729.504 0.52 0.5838 0.6079 0.5848 0.5786 0.5399 0.5929 0.6664 0.6703 0.6577
2748.794 0.6428 0.6167 0.6713 0.7255 0.6771 0.6399 0.6675 0.7454 0.8347 0.8218
2768.083 0.7468 0.7967 0.7333 0.7388 0.7906 0.7717 0.7528 0.741 0.715 0.6237
2787.373 0.6995 0.7854 0.7617 0.766 0.7654 0.706 0.7319 0.7919 0.7587 0.7346
2806.663 0.7695 0.7439 0.708 0.7688 0.7698 0.8209 0.9058 0.9205 0.8708 0.8043
2825.953 0.9042 1.1279 1.1874 1.1289 1.1166 1.1019 1.1333 1.0447 1.0683 1.2006
2845.242 1.246 1.211 1.1978 1.266 1.276 1.306 1.326 1.386 1.476 1.496
2864.532 1.476 1.506 1.516 1.516 1.536 1.596 1.626 1.626 1.676 1.636
2883.822 1.606 1.706 1.816 1.876 1.916 2.096 2.186 2.196 2.336 2.456
2903.112 2.646 2.886 3.156 3.486 3.836 4.176 4.646 5.146 5.516 6.036
2922.401 6.716 7.246 7.566 7.866 8.226 8.456 8.576 8.586 8.476 8.246
2941.691 7.876 7.436 6.996 6.606 6.126 5.666 5.286 4.836 4.456 4.196
2960.981 4.076 3.966 3.786 3.616 3.526 3.576 3.546 3.586 3.776 3.946
2980.271 4.136 4.336 4.526 4.706 4.916 5.056 5.126 5.206 5.276 5.186
2999.561 5.016 4.826 4.616 4.476 4.326 4.326 4.396 4.356 4.386 4.496
3018.850 4.656 4.736 4.836 5.046 5.296 5.486 5.666 5.966 6.166 6.236
3038.140 6.316 6.386 6.396 6.266 6.026 5.936 5.906 5.586 5.206 4.926
3057.430 4.646 4.476 4.476 4.426 4.356 4.506 4.716 4.966 5.336 5.606
3076.720 5.896 6.326 6.806 7.326 7.936 8.446 8.926 9.496 9.866 9.726
3096.009 9.216 8.866 8.586 8.056 7.246 6.486 5.856 5.096 4.316 3.676
3115.299 3.166 2.616 2.266 1.946 1.636 1.556 1.396 1.296 1.296 1.266
3134.589 1.296 1.346 1.396 1.436 1.396 1.396 1.426 1.316 1.2341 1.266
3153.879 1.246 1.1854 1.1507 1.1141 1.0921 1.1323 0.9951 0.8542 0.8472 0.7524
3173.169 0.5972 0.5117 0.5229 0.5134 0.4373 0.4218 0.4457 0.5198 0.6451 0.6737
3192.458 0.6253 0.5745 0.5357 0.5331 0.5502 0.6032 0.6764 0.6524 0.6997 0.7334
3211.748 0.6805 0.6904 0.6856 0.6846 0.7139 0.7405 0.7071 0.669 0.7233 0.717
3231.038 0.6999 0.7064 0.7504 0.7155 0.6492 0.5721 0.5238 0.5144 0.4187 0.4585
3250.328 0.5083 0.3934 0.4346 0.5067 0.4832 0.4752 0.455 0.4556 0.4993 0.5573
3269.617 0.6293 0.5703 0.397 0.4912 0.5894 0.5804 0.6123 0.6709 0.7493 0.7776
3288.907 0.8041 0.7981 0.7549 0.8026 0.8702 0.8694 0.6747 0.5513 0.632 0.678
3308.197 0.7239 0.7308 0.5576 0.5182 0.5735 0.5315 0.5024 0.5389 0.6425 0.6254
3327.487 0.5827 0.5123 0.556 0.5736 0.4411 0.434 0.4613 0.4941 0.5986 0.7091
3346.777 0.7415 0.8057 0.8689 0.8406 0.9531 1.1976 1.1885 1.1767 1.2156 1.1703
3366.066 1.326 1.426 1.366 1.386 1.486 1.456 1.2317 1.187 1.296 1.276
3385.356 1.2045 1.1491 1.0543 0.9148 0.846 0.7638 0.6227 0.6618 0.7517 0.6612
3404.646 0.5193 0.4021 0.4496 0.4142 0.30214 0.3591 0.438 0.4139 0.34459 0.26492
3423.936 0.2278 0.32096 0.28431 0.1785 0.1518 0.2099 0.28247 0.32298 0.3563 0.2604
3443.225 0.2071 0.34165 0.34183 0.23933 0.27457 0.246422 0.1923 0.2023 0.27163 0.34007
3462.515 0.3485 0.28629 0.178 0.1702 0.2754 0.3077 0.34434 0.4098 0.4031 0.33282
3481.805 0.1884 0.27713 0.4271 0.4029 0.32164 0.2317 0.27955 0.30311 0.30474 0.28702
3501.095 0.26337 0.2989 0.2576 0.2302 0.1654 0.112 0.059 0.217 0.3688 0.3723
3520.385 0.3773 0.32929 0.248914 0.1532 0.2023 0.3479 0.30989 0.249783 0.28233 0.26412
3539.674 0.27107 0.24289 0.121 0.095 0.206 0.2222 0.1793 0.1845 0.2008 0.102
3558.964 0.082 0.1535 0.185 0.156 0.122 0.1644 0.127 0.051 0.029 0.104
3578.254 0.1612 0.1601 0.27407 0.2074 0.1869 0.28352 0.1878 0.2012 0.24283 0.2408
3597.544 0.28955 0.3761 0.29492 0.105 0.1545 0.28384 0.3523 0.3885 0.3483 0.31219
3616.833 0.30812 0.1963 0 0.091 0.26057 0.2083 0.25618 0.30526 0.2028 0.128
3636.123 0.076 0.094 0.23967 0.26824 0.2098 0.1976 0.3499 0.352 0.2062 0.2276
3655.413 0.251076 0.29232 0.29831 0.32123 0.31731 0.32595 0.25679 0.1607 0.22 0.1996
3674.703 0.1841 0.27574 0.4066 0.3585 0.29624 0.366 0.4164 0.401 0.33155 0.248419
3693.993 0.245161 0.3671 0.3625 0.25824 0.26809 0.3475 0.2316 0.1933 0.26582 0.29683
3713.282 0.33175 0.4246 0.2753 0.075 0.1717 0.1867 0.25689 0.26947 0.1938 0.2262
3732.572 0.2194 0.2165 0.27216 0.25795 0.2269 0.28449 0.3802 0.33489 0.1813 0.2063
3751.862 0.31077 0.28436 0.1663 0.2083 0.28695 0.32517 0.3544 0.33885 0.33013 0.3811
3771.152 0.31774 0.2337 0.31495 0.28035 0.2179 0.1922 0.246225 0.1941 0.2114 0.3478
3790.441 0.30758 0.29331 0.34456 0.29754 0.254386 0.144 0.1686 0.3204 0.3991 0.5093
3809.731 0.5861 0.4793 0.3645 0.27515 0.2176 0.26476 0.26985 0.3594 0.3673 0.1689
3829.021 0.1775 0.26793 0.1698 0.1821 0.1586 0.2038 0.24003 0.2024 0.1641 0.141
3848.311 0.250039 0.254971 0.225 0.27636 0.428 0.5107 0.3823 0.248302 0.28441 0.30721
3867.601 0.30118 0.314 0.272 0.30644 0.32361 0.111 0.073 0.2166 0.25714 0.2321
3886.890 0.2343 0.24126 0.2278 0.22 0.2153 0.3542 0.4712 0.4083 0.32399 0.33777
3906.180 0.3505 0.3938 0.3543 0.3812 0.4505 0.3681 0.28653 0.2204 0.3601 0.4278
3925.470 0.3565 0.4766 0.468 0.3613 0.4221 0.461 0.4734 0.4517 0.3994 0.4479
3944.760 0.4995 0.4714 0.4293 0.30874 0.2189 0.27753 0.31595 0.4125 0.5264 0.5214
3964.049 0.3537 0.2608 0.26177 0.31679 0.355 0.31012 0.24134 0.33871 0.4167 0.34462
3983.339 0.31463 0.2251 0.2192 0.249175 0.25852 0.3673 0.5723 0.5234 0.29108 0.28192
##END=
