##TITLE=1,2-Dichlorobenzene-d4
##JCAMP-DX=4.24
##DATA TYPE=INFRARED SPECTRUM
##ORIGIN=NIST Mass Spectrometry Data Center
##OWNER=NIST Standard Reference Data Program
Collection (C) 2018 copyright by the U.S. Secretary of Commerce
on behalf of the United States of America. All rights reserved.
##CAS REGISTRY NO=2199-69-1
##MOLFORM=C 6 Cl 2 D 4
##$NIST SOURCE=MSDC-IR
##SPECTROMETER/DATA SYSTEM=HP-GC/MS/IRD
##STATE=gas
##XUNITS=1/CM
##YUNITS=ABSORBANCE
##XFACTOR=1.0
##YFACTOR=0.000001800
##DELTAX=4.0
##FIRSTX=550.0
##LASTX=3846.0
##FIRSTY=0.000511
##MAXX=3846
##MINX=550
##MAXY=0.018
##MINY=0
##NPOINTS=825
##XYDATA=(X++(Y..Y))
550.0 284 537 766 1466 2410 3049 4136 6862 6673 4261
590.0 3517 2715 1615 797 497 469 563 941 1673 2338
630.0 2590 2549 2324 1855 1023 446 274 193 168 168
670.0 157 190 248 285 378 612 1141 1916 2552 2671
710.0 2622 2599 1994 1161 648 399 297 253 231 181
750.0 165 165 185 289 291 207 174 129 70 45
790.0 58 61 60 66 60 46 26 38 55 65
830.0 93 98 112 128 114 93 94 89 56 38
870.0 30 25 34 30 6 13 57 92 87 107
910.0 143 152 167 154 135 142 115 101 104 90
950.0 67 52 61 74 92 158 241 297 357 377
990.0 393 457 488 554 808 1388 2391 3706 4834 5304
1030.0 5569 5671 4883 3918 3734 4404 5734 6905 7321 7059
1070.0 6170 4649 2650 1151 561 367 273 243 256 260
1110.0 242 258 241 193 188 174 151 152 178 220
1150.0 276 342 407 459 471 426 372 341 304 246
1190.0 195 150 111 110 104 90 89 92 109 103
1230.0 97 118 137 167 231 331 433 510 539 526
1270.0 518 553 669 842 989 1074 1173 1306 1490 1895
1310.0 2476 2906 3029 3115 3178 3098 3118 3402 4048 5339
1350.0 7355 9191 10000 9867 8988 7193 4262 1826 871 578
1390.0 470 409 362 337 332 319 304 289 272 255
1430.0 232 231 218 197 196 200 198 205 212 208
1470.0 203 196 178 159 154 162 142 140 183 266
1510.0 412 611 914 1341 1823 2317 2744 3001 3064 2919
1550.0 2552 2141 1672 1172 864 710 662 645 586 482
1590.0 362 273 232 208 199 202 178 141 129 103
1630.0 77 57 47 49 47 61 76 86 94 92
1670.0 89 91 92 86 93 109 98 87 83 71
1710.0 67 67 65 67 81 94 86 79 71 58
1750.0 57 51 43 45 48 44 50 52 47 45
1790.0 45 47 46 34 28 34 37 50 62 59
1830.0 59 63 58 54 53 47 37 26 21 30
1870.0 31 27 27 26 26 23 26 29 27 35
1910.0 32 27 29 27 32 31 20 15 20 12
1950.0 11 17 18 16 20 31 28 23 35 51
1990.0 63 73 66 42 30 30 27 33 31 31
2030.0 35 33 22 5 11 29 37 26 25 27
2070.0 24 30 24 13 18 28 23 7 3 9
2110.0 3 2 5 5 11 7 10 9 13 17
2150.0 18 22 30 41 44 40 43 47 36 34
2190.0 35 23 20 23 30 26 26 34 35 40
2230.0 49 51 51 61 76 92 116 148 222 367
2270.0 575 818 1009 1110 1143 1087 949 776 638 546
2310.0 480 421 357 296 238 193 158 110 81 85
2350.0 82 69 82 98 105 114 113 102 98 96
2390.0 87 76 59 46 48 45 41 47 48 46
2430.0 46 35 27 18 21 25 18 18 24 30
2470.0 28 34 31 30 38 29 28 38 42 53
2510.0 61 60 61 77 68 57 62 56 45 29
2550.0 26 33 28 34 36 34 31 29 41 35
2590.0 25 24 33 40 31 24 17 19 24 18
2630.0 16 15 17 10 11 26 30 13 2 19
2670.0 22 24 27 25 18 31 37 20 18 21
2710.0 17 32 38 19 18 24 27 20 27 29
2750.0 15 17 22 31 32 28 38 55 44 39
2790.0 50 56 68 62 39 32 47 49 36 20
2830.0 20 23 20 17 31 47 33 27 23 20
2870.0 24 11 13 23 19 18 16 20 27 30
2910.0 42 45 37 36 37 40 43 29 0 14
2950.0 32 23 33 31 28 32 39 56 46 34
2990.0 52 52 28 29 39 57 47 27 35 33
3030.0 35 47 39 7 6 16 1 7 22 29
3070.0 48 54 33 22 28 28 31 19 23 21
3110.0 16 20 35 48 48 54 35 39 64 64
3150.0 54 50 45 35 16 18 41 36 38 38
3190.0 20 33 55 52 36 20 2 8 40 35
3230.0 16 14 10 15 30 36 35 35 22 31
3270.0 44 28 47 47 52 79 73 89 103 106
3310.0 102 116 150 137 114 123 113 79 82 102
3350.0 77 64 48 48 67 69 62 35 35 50
3390.0 49 37 37 16 16 52 69 52 31 37
3430.0 29 27 61 68 54 61 77 74 55 51
3470.0 80 86 81 89 68 48 49 36 30 48
3510.0 47 70 76 58 62 58 74 55 48 83
3550.0 47 32 66 90 87 66 52 50 69 74
3590.0 54 46 61 54 71 100 82 83 82 84
3630.0 76 60 62 95 107 110 88 63 73 64
3670.0 67 68 66 79 81 60 54 74 83 72
3710.0 71 55 33 54 71 66 78 95 112 111
3750.0 90 67 37 27 64 83 89 102 69 57
3790.0 69 48 42 79 90 70 71 102 132 98
3830.0 69 81 97 86 56
##END=
