##TITLE=3-Acetyl-6-bromocoumarin
##JCAMP-DX=4.24
##DATA TYPE=INFRARED SPECTRUM
##ORIGIN=EPA-IR VAPOR PHASE LIBRARY
##OWNER=SRD/NIST
Collection (C) 2018 copyright by the U.S. Secretary of Commerce
on behalf of the United States of America. All rights reserved.
##CAS REGISTRY NO=2199-93-1
##MOLFORM=C 11 H 7 Br O 3
##$NIST SOURCE=MSDC-IR
##STATE=gas
##XUNITS=1/CM
##YUNITS=ABSORBANCE
##XFACTOR=1.
##YFACTOR=0.001
##DELTAX=1.92898
##FIRSTX=549.8
##LASTX=4000.7
##FIRSTY=12.219
##MAXX=4000.7
##MINX=549.759
##MAXY=0.146219
##MINY=0
##NPOINTS=1790
##XYDATA=(X++(Y..Y))
549.759 12.219 12.709 11.909 10.839 10.039 9.179 7.019 4.869 3.869 3.159
569.049 2.979 3.169 3.119 3.029 2.709 2.919 3.639 3.609 3.569 3.489
588.339 3.029 2.549 2.169 2.169 2.719 2.499 1.859 1.839 1.869 1.579
607.628 1.479 1.549 1.359 1.2212 0.9249 0.9391 1.0638 1.042 0.9656 0.8826
626.918 1.639 1.299 0.7425 1.0292 1.1376 0.7429 0.4664 1.1762 1.799 1.429
646.208 1.319 1.649 2.039 2.669 3.239 3.979 4.809 5.589 5.589 4.889
665.498 4.229 3.559 3.159 2.799 2.059 1.439 0.999 0.9017 1.028 0.7622
684.787 0.69 1.2264 1.369 1.1634 1.319 1.0976 1.1061 1.379 0.6909 0.3805
704.077 0.9414 0.9803 1.0501 1.0639 0.6834 1.0622 0.8324 0.7058 0.9342 0.8784
723.367 1.319 1.639 1.519 1.329 1.279 1.899 2.379 2.239 2.489 2.689
742.657 2.799 2.949 2.779 2.809 2.779 2.369 2.099 2.159 2.509 2.709
761.947 2.949 3.439 4.229 4.369 3.979 3.819 3.629 3.549 2.959 2.289
781.236 2.119 1.779 1.709 1.449 1.121 1.389 1.2602 0.9579 0.7783 0.7681
800.526 1.2001 1.359 1.559 2.369 3.409 4.549 6.109 7.849 9.459 10.849
819.816 12.549 12.799 11.249 9.769 7.859 5.999 4.659 4.269 4.039 3.379
839.106 3.299 3.789 4.189 4.599 4.789 4.669 4.559 4.109 3.309 2.589
858.395 2.469 2.059 1.639 1.889 2.089 2.229 2.319 2.329 2.019 1.869
877.685 1.899 2.129 2.289 2.319 2.079 1.889 2.229 2.289 2.299 2.039
896.975 1.889 2.299 2.649 2.769 3.019 3.169 3.239 3.529 3.579 3.499
916.265 3.759 4.449 4.759 4.639 4.829 5.069 5.489 5.809 5.859 6.499
935.555 7.499 8.229 9.299 10.829 12.199 14.139 16.649 19.119 21.859 24.039
954.844 24.779 24.499 23.519 21.799 19.569 17.549 15.639 13.619 12.189 11.209
974.134 9.929 8.739 7.729 7.299 7.249 6.309 5.239 5.069 4.499 3.729
993.424 3.749 3.579 3.469 3.479 3.199 2.969 2.879 2.779 2.739 3.159
1012.714 3.249 2.719 2.879 3.109 2.669 2.219 2.289 2.429 2.029 2.119
1032.003 2.639 2.879 2.759 2.369 2.219 2.079 2.469 2.749 2.599 2.499
1051.293 2.439 2.029 2.779 4.179 4.769 6.649 8.739 9.319 8.849 8.419
1070.583 7.829 6.509 5.799 4.589 2.899 2.869 3.059 1.969 1.809 3.399
1089.873 4.249 5.449 5.319 3.869 4.459 4.789 5.229 5.559 6.019 6.869
1109.163 7.259 7.069 6.469 5.859 5.899 5.869 5.489 6.079 6.129 5.449
1128.452 5.389 5.579 5.149 5.309 6.119 5.919 4.629 3.809 3.209 2.589
1147.742 2.299 2.039 2.559 2.319 1.869 3.429 4.079 3.869 3.869 3.999
1167.032 5.069 5.979 7.139 7.529 7.859 8.889 9.969 11.309 12.509 14.509
1186.322 18.959 25.229 32.179 42.009 52.639 60.059 62.409 59.569 51.489 38.989
1205.611 26.749 19.439 16.859 15.289 13.899 15.239 18.179 21.609 26.029 30.859
1224.901 36.949 42.119 45.059 44.919 40.829 34.419 27.289 21.179 16.559 13.169
1244.191 11.209 9.999 9.099 8.549 7.709 5.949 4.919 5.259 5.199 5.059
1263.481 4.799 4.779 5.339 5.079 4.959 5.299 5.149 4.529 3.949 3.249
1282.771 2.489 2.179 1.899 1.949 2.149 2.029 1.939 2.099 2.329 2.509
1302.060 2.589 2.659 2.749 2.979 3.159 3.139 2.959 2.769 2.829 2.879
1321.350 2.649 2.449 2.539 2.709 2.829 3.059 3.609 3.989 4.329 5.019
1340.640 5.919 6.819 7.569 8.069 8.449 8.569 8.469 8.429 8.439 8.939
1359.930 10.279 12.239 14.389 15.739 15.739 14.739 12.559 9.659 7.069 5.429
1379.219 4.549 3.959 3.669 3.579 3.489 3.439 3.519 3.669 3.949 4.269
1398.509 4.639 4.899 5.279 5.789 6.119 6.469 6.769 6.859 6.649 6.389
1417.799 6.219 5.829 5.259 4.839 4.679 4.449 4.269 4.029 3.809 3.889
1437.089 3.879 3.809 3.699 3.669 3.579 3.569 3.839 3.899 3.929 4.119
1456.378 4.459 5.009 5.649 6.289 7.109 8.399 9.669 10.689 11.379 11.599
1475.668 11.469 10.619 9.509 8.309 6.879 5.789 5.049 4.559 4.319 4.259
1494.958 4.029 3.899 3.849 3.659 3.659 3.649 3.399 3.239 3.159 3.119
1514.248 3.219 3.129 2.809 2.609 2.749 2.899 3.119 3.379 3.499 3.849
1533.538 4.239 4.629 5.319 6.279 7.529 9.239 11.729 14.889 18.699 23.519
1552.827 28.509 33.119 36.479 37.479 35.669 31.499 25.449 19.249 14.069 10.619
1572.117 8.529 7.139 6.489 6.359 6.189 5.849 5.839 6.229 6.759 7.279
1591.407 7.719 8.469 9.299 10.149 11.119 12.539 14.589 17.019 20.109 23.169
1610.697 25.749 26.969 26.209 23.799 20.509 16.779 12.969 9.799 7.649 6.319
1629.986 5.419 5.009 4.779 4.619 4.549 4.539 4.419 4.299 4.219 4.039
1649.276 3.659 3.239 3.209 3.479 3.459 3.599 3.889 3.859 4.139 4.559
1668.566 4.719 4.989 5.219 5.459 5.699 5.909 6.419 6.709 6.859 6.999
1687.856 7.409 8.059 8.809 9.999 11.659 13.689 16.159 19.339 22.279 24.579
1707.146 25.979 26.729 26.649 25.329 22.779 20.069 17.539 15.399 13.619 12.199
1726.435 11.469 11.119 10.729 10.369 10.279 10.809 11.379 12.169 13.609 15.419
1745.725 17.959 21.579 26.639 34.029 44.309 58.559 77.629 98.909 119.969 137.019
1765.015 146.219 146.089 136.169 119.479 98.849 78.729 60.959 46.339 34.889 26.509
1784.305 20.779 16.409 13.119 10.759 9.169 7.929 6.969 6.199 5.619 5.229
1803.594 4.979 4.699 4.339 4.249 4.289 4.329 4.389 4.209 4.139 4.159
1822.884 4.039 3.899 3.679 3.399 3.339 3.179 2.939 2.819 2.689 2.719
1842.174 2.839 2.799 2.649 2.489 2.379 2.399 2.509 2.609 2.659 2.569
1861.464 2.509 2.559 2.469 2.359 2.399 2.419 2.419 2.419 2.439 2.489
1880.754 2.629 2.889 2.949 3.199 3.389 3.339 3.399 3.409 3.489 3.569
1900.043 3.479 3.259 3.119 3.099 3.089 3.129 3.029 2.929 2.799 2.549
1919.333 2.499 2.399 2.069 2.039 2.129 1.999 1.939 1.909 1.739 1.679
1938.623 1.769 1.719 1.539 1.539 1.599 1.479 1.399 1.2688 1.0715 1.0583
1957.913 1.1104 1.1051 1.1971 1.235 1.2121 1.1439 1.1302 1.1282 1.1338 1.279
1977.202 1.329 1.1139 0.9054 0.9987 1.0033 0.9379 0.9919 1.076 0.9492 0.878
1996.492 1.1983 1.319 1.1976 1.1935 1.1821 1.1449 1.1402 1.197 1.2157 1.241
2015.782 1.159 1.009 1.0715 1.1555 1.2026 1.1204 1.0124 1.0099 0.9899 1.1327
2035.072 1.1889 1.1037 1.1724 1.2363 1.1717 1.2197 1.1954 1.2527 1.349 1.359
2054.362 1.539 1.609 1.629 1.609 1.539 1.509 1.399 1.339 1.279 1.279
2073.651 1.389 1.369 1.399 1.309 1.2152 1.279 1.1806 1.0248 1.095 1.269
2092.941 1.299 1.0915 0.9956 0.9834 0.9994 1.0035 0.9643 1.0847 1.1346 1.1099
2112.231 1.1271 1.0739 0.9698 0.9067 0.9794 1.1224 1.0792 1.1422 1.1565 0.9613
2131.521 1.0244 1.1211 1.1712 1.1316 1.0867 1.0993 0.9839 1.0121 0.9678 0.8511
2150.810 1.0285 1.1291 1.0282 1.0383 1.0333 0.9788 0.8854 0.8508 0.8115 0.9216
2170.100 1.1022 1.1128 0.9917 0.9627 1.1152 1.0734 1.1827 1.289 1.0844 0.9995
2189.390 1.2285 1.119 0.9878 0.9673 0.8202 1.0121 1.1199 1.1741 1.289 1.2397
2208.680 1.309 1.399 1.1098 0.9371 1.1572 1.309 1.2014 1.1533 1.1731 1.0339
2227.970 0.979 1.0752 1.1281 0.8802 0.6109 0.5109 0.6216 0.8118 0.9542 1.0121
2247.259 1.0361 0.9617 0.8093 0.9621 1.0394 0.917 0.8827 0.9583 1.047 1.0362
2266.549 1.1091 1.1522 1.1309 1.0628 1.0162 0.9487 0.7799 0.7918 0.7763 0.7346
2285.839 0.8307 0.7724 0.6279 0.7094 0.9811 1.1579 1.0485 1.0161 1.0978 1.0243
2305.129 0.7951 0.7264 1.0658 1.1018 0.8588 0.8385 1.0414 1.2511 1.1808 0.9984
2324.418 1.0688 1.0881 0.8522 0.8383 0.9657 1.1031 1.2268 1.289 1.2681 1.1768
2343.708 1.1515 1.0795 1.0555 1.2054 1.2664 1.015 0.8341 0.7763 0.753 0.9582
2362.998 1.1059 1.2045 1.1761 0.9798 0.8838 1.0325 1.0889 0.9414 0.9628 0.9282
2382.288 0.8484 1.0149 1.1514 1.0615 1.0796 1.2346 1.197 0.9966 0.972 0.9891
2401.578 0.8415 0.9513 1.0454 1.1054 1.2289 0.9604 0.8281 0.7795 0.762 0.9019
2420.867 0.8635 0.9572 0.975 0.9244 1.0851 1.2413 1.2121 0.8719 0.7771 0.9391
2440.157 0.8686 0.8799 1.1356 1.1274 1.0787 1.419 1.499 1.319 1.1949 1.1041
2459.447 1.1137 1.1515 1.0932 1.0612 1.2517 1.2116 1.1866 1.0741 0.9456 0.9988
2478.737 1.0842 1.2264 1.1163 0.9278 0.8731 1.0073 1.0719 1.0575 1.0979 1.1882
2498.026 1.0692 1.1359 1.389 1.319 1.0596 1.0496 1.1658 1.1101 0.9046 0.9563
2517.316 1.2664 1.1152 1.1402 1.1259 0.9338 1.0329 0.9883 1.0481 1.0745 1.0339
2536.606 0.9651 0.8616 0.9849 1.0288 0.9819 0.9264 0.9804 1.0719 1.0197 0.9236
2555.896 1.0685 1.389 1.349 1.0669 0.9711 1.086 1.034 0.7817 0.8308 0.9758
2575.186 0.8814 1.0811 1.2303 1.233 1.349 1.1978 1.1745 1.1824 1.0286 0.9237
2594.475 1.0582 1.0269 0.7329 0.888 1.1026 0.966 1.0189 1.0449 0.8532 1.0835
2613.765 1.2289 1.2109 1.289 1.0275 1.1736 1.429 1.03 0.8301 0.9421 1.0876
2633.055 1.0297 0.8318 0.8348 0.7721 0.83 1.0391 1.0626 0.9463 0.9106 0.887
2652.345 0.8639 0.9336 1.0442 1.0864 0.9169 0.8964 1.0338 0.9478 0.7396 0.7261
2671.634 0.9704 0.9294 0.8844 1.1298 1.0777 0.9628 0.9933 1.0339 0.8223 0.8397
2690.924 0.9996 0.9089 0.8142 0.7982 0.8711 1.0234 1.1977 1.238 1.2415 1.1375
2710.214 1.1503 1.1678 1.0195 0.918 0.9634 0.8914 1.1143 1.299 1.2514 1.409
2729.504 1.379 0.9536 0.8881 1.1175 0.9313 0.6738 0.8338 1.1822 1.1087 0.9955
2748.794 0.7918 0.6236 0.6356 0.6191 0.7482 0.9072 0.8915 0.8823 1.1438 1.1555
2768.083 0.8486 0.9004 1.102 1.1764 0.8737 0.6615 0.8374 0.9522 1.0734 0.9282
2787.373 0.6712 0.8668 0.9684 0.7533 0.7945 1.0235 1.1 1.0925 1.0723 1.1055
2806.663 1.309 1.1828 0.9543 0.6565 0.482 0.5918 0.6996 0.8596 0.8545 0.9162
2825.953 0.865 1.0089 0.8521 0.5999 1.0441 1.0633 0.8333 0.9353 1.001 0.6202
2845.242 0.6964 0.8744 0.8901 1.2423 1.1448 1.2069 1.0857 0.8302 0.961 0.7688
2864.532 0.5442 0.6256 0.9334 1.1128 1.1419 1.1335 1.2563 1.236 0.9572 0.9879
2883.822 1.1519 1.0074 0.8794 1.0233 1.1521 1.1321 1.1144 1.309 1.0952 0.8145
2903.112 0.6924 0.5773 0.8679 1.0116 0.803 0.5985 0.6874 0.968 1.0019 0.8574
2922.401 1.0579 1.1624 1.2657 1.0945 1.139 1.559 1.389 1.509 1.519 1.489
2941.691 1.669 1.409 0.9644 0.9264 0.9737 0.8809 1.0859 1.0311 0.7036 0.6349
2960.981 0.9048 1.1675 1.1159 0.9596 0.9947 1.0362 1.0799 1.1917 1.2089 1.349
2980.271 1.379 1.2637 1.459 1.619 1.459 1.659 1.699 1.329 1.349 1.479
2999.561 1.499 1.549 1.719 1.799 2.009 2.199 2.059 1.809 1.759 1.989
3018.850 2.009 2.009 1.809 1.519 1.289 1.1407 1.319 1.2256 0.8255 0.8561
3038.140 0.9017 0.8768 1.2087 1.299 1.0734 0.8446 1.0201 1.329 1.1483 0.922
3057.430 0.8778 0.9869 1.1636 1.0175 0.8393 1.0871 1.419 1.1451 0.9129 0.7998
3076.720 0.8467 1.1262 1.1678 1.0141 0.9474 0.7914 0.6947 1.1541 1.101 0.9398
3096.009 1.2451 1.379 1.1895 0.6231 0.6038 1.0049 1.1844 0.9576 0.674 0.8521
3115.299 0.9715 0.6327 0.6108 0.6883 0.7625 0.8978 0.6615 0.5636 0.7835 1.0374
3134.589 1.2311 1.1425 0.7311 0.7844 0.715 0.7377 0.8533 0.864 0.8297 0.9402
3153.879 1.0215 1.0085 1.0548 0.8251 0.835 0.7128 0.7452 0.8041 0.5241 0.542
3173.169 0.6372 0.4328 0.445 0.9377 0.9258 0.55 0.4116 0.5546 0.8504 0.8536
3192.458 0.6521 0.7099 0.7816 0.7087 0.7004 0.9237 1.399 1.1324 0.9854 1.1699
3211.748 1.0857 0.8625 0.4769 0.509 0.6083 0.7036 1.0697 1.0239 0.5716 0.5869
3231.038 0.6802 0.6584 0.3959 0.29076 0.5743 0.6285 0.5142 0.2428 0.2443 0.5965
3250.328 0.6293 0.6841 0.7404 0.5905 0.673 0.9736 0.8665 0.5874 0.7975 1.0002
3269.617 1.134 1.1699 0.9749 0.7621 0.5084 0.272262 0.2246 0.6451 0.8143 0.8074
3288.907 1.1884 1.379 1.0643 0.8851 0.8645 0.5779 0.53 0.5199 0.8248 1.146
3308.197 0.9109 0.7149 0.4192 0.4702 0.7915 0.8568 0.7954 0.751 0.98 0.9822
3327.487 0.5352 0.4436 0.8624 0.7498 0.4425 0.31154 0.5153 0.9383 0.7887 0.6417
3346.777 0.6682 0.7668 1.0557 0.7016 0.5167 0.644 0.6675 0.8592 0.6087 0.2986
3366.066 0.3407 0.3803 0.27984 0.5277 0.8343 0.7781 0.8243 0.7892 0.4363 0.7825
3385.356 1.399 1.399 1.429 1.419 1.1545 1.2253 1.399 1.0773 0.7264 0.7576
3404.646 1.0855 1.2297 1.2236 1.1267 1.072 1.269 1.319 1.439 1.1739 0.921
3423.936 1.1251 1.0363 0.7742 0.893 0.9466 1.0749 1.349 0.7432 0.4665 0.8069
3443.225 0.9397 0.4485 0.4648 0.9424 0.9287 0.8815 0.8579 0.8462 1.1845 1.269
3462.515 0.722 0.8232 0.817 0.7693 0.8935 0.8872 0.9568 0.6421 0.8035 1.329
3481.805 1.389 1.549 1.629 1.359 1.299 1.419 1.359 0.9849 1.022 1.449
3501.095 1.609 1.359 1.339 1.729 1.979 2.309 2.679 2.259 2.259 2.809
3520.385 2.259 1.589 1.1538 1.0027 1.369 1.1344 0.8049 1.0424 1.044 1.0546
3539.674 1.1153 1.2134 1.1986 1.1951 1.0566 0.6823 0.5913 0.5928 0.883 0.8139
3558.964 0.4814 0.31271 0.8018 1.499 1.075 0.5775 0.6911 0.7818 0.9523 1.0579
3578.254 0.7719 0.492 0.837 0.8301 0.6368 0.6751 0.7485 0.7336 0.4558 0.5889
3597.544 0.7917 0.5007 0.34294 0.5057 0.572 0.8085 0.9615 1.1154 0.9717 1.09
3616.833 1.2603 0.9641 1.1923 1.449 1.1495 1.1666 1.0253 0.875 1.1903 1.115
3636.123 0.9398 0.9787 0.8235 0.5007 0.6696 0.9321 0.8311 0.6103 0.5893 0.446
3655.413 0 0.3711 0.9004 1.014 1.0624 0.9384 0.8126 0.9647 0.9241 0.6814
3674.703 0.5736 0.6343 0.7763 0.6977 0.7866 0.9302 0.9659 0.5571 0.129 0.015
3693.993 0.1742 0.5463 0.5272 0.5243 0.9085 0.8697 0.6569 0.7379 0.3801 0.185
3713.282 0.2337 0.35531 0.34449 0.152 0.26339 0.729 1.0212 0.814 1.0698 1.2212
3732.572 0.9004 1.2523 1.2606 0.9401 0.5737 0.128 0.2033 0.4268 0.7317 0.9941
3751.862 1.2491 1.559 1.0748 0.6004 0.8105 0.7276 0.7597 0.8539 0.8123 0.5781
3771.152 0.33625 0.4205 0.34601 0.5036 0.521 0.6191 1.0221 1.0818 0.9244 0.5929
3790.441 0.811 0.9574 0.6494 0.7304 1.0655 0.8777 0.7122 0.7913 0.4921 0.7155
3809.731 1.1309 1.1479 1.0313 0.9074 0.8253 0.35152 0.7084 1.309 0.8307 0.6311
3829.021 1.078 1.0513 0.5923 0.2067 0.078 0.34359 0.34691 0.143 0.31377 0.36618
3848.311 0.5356 0.7613 0.7543 0.6035 0.4298 0.6069 0.8053 0.8937 0.7536 0.6917
3867.601 0.9064 1.002 0.6283 0.6393 0.674 0.4002 0.7818 0.9005 1.0817 1.2056
3886.890 0.8883 0.7868 0.417 0.068 0.2419 0.4205 0.2064 0.115 0.4703 0.6972
3906.180 1.0915 1.2595 0.5405 0.4631 0.9481 0.9315 0.7025 0.4637 0.26094 0.4007
3925.470 0.504 0.6524 0.8713 0.8878 0.36189 0.5029 0.9232 0.5668 0.9767 1.479
3944.760 1.479 1.449 1.1579 1.2402 1.0775 0.6705 0.7798 0.9285 0.8967 0.9654
3964.049 0.9672 0.8488 0.8728 0.6 0.6796 0.66 0.6882 0.9161 0.771 0.378
3983.339 0.29058 0.2171 0.5747 0.9651 0.4659 0.5154 0.4774 0.3708 0.864 0.9039
##END=
