##TITLE=3-Chloro-4-methoxytoluene
##JCAMP-DX=4.24
##DATA TYPE=INFRARED SPECTRUM
##ORIGIN=EPA-IR VAPOR PHASE LIBRARY
##OWNER=SRD/NIST
Collection (C) 2018 copyright by the U.S. Secretary of Commerce
on behalf of the United States of America. All rights reserved.
##CAS REGISTRY NO=22002-44-4
##MOLFORM=C 8 H 9 Cl O
##$NIST SOURCE=MSDC-IR
##STATE=gas
##XUNITS=1/CM
##YUNITS=ABSORBANCE
##XFACTOR=1.
##YFACTOR=0.001
##DELTAX=1.92898
##FIRSTX=549.8
##LASTX=4000.7
##FIRSTY=3.748
##MAXX=4000.7
##MINX=549.759
##MAXY=0.132628
##MINY=0
##NPOINTS=1790
##XYDATA=(X++(Y..Y))
549.759 3.748 4.008 4.878 5.548 5.708 5.918 6.288 6.568 6.328 6.408
569.049 6.588 6.528 6.198 5.748 5.298 4.348 4.078 3.888 3.328 3.098
588.339 2.968 2.638 2.238 2.028 1.868 1.608 1.448 1.408 1.3033 1.1864
607.628 1.1658 1.1337 0.9917 1.0037 1.1338 1.0864 0.833 0.7498 0.9593 1.0209
626.918 0.8197 0.8051 0.8623 0.7263 0.6692 0.6324 0.6989 0.7283 0.7085 0.8313
646.208 0.7102 0.5905 0.5843 0.7608 0.8563 0.6741 0.6983 0.8936 0.8082 1.0013
665.498 1.2398 1.3227 1.718 2.168 2.888 3.728 4.438 5.068 5.298 5.348
684.787 5.418 5.558 5.788 5.628 5.078 4.158 3.288 2.798 2.368 2.058
704.077 1.968 1.968 2.018 2.208 2.398 2.578 2.848 3.278 3.818 4.398
723.367 5.418 6.628 7.838 9.318 10.778 11.908 12.798 13.538 13.878 13.978
742.657 13.788 13.168 12.098 10.638 9.208 7.658 6.288 5.428 4.528 3.788
761.947 3.318 2.928 2.688 2.518 2.458 2.418 2.438 2.778 3.318 3.818
781.236 4.538 5.518 6.578 7.778 9.228 10.908 12.598 14.688 17.268 19.128
800.526 19.328 19.048 19.158 19.348 19.588 19.548 19.218 18.508 17.468 16.198
819.816 14.728 13.218 11.808 10.478 9.018 7.828 6.928 6.048 5.328 4.608
839.106 4.118 3.838 3.628 3.538 3.308 3.558 4.118 4.638 5.228 5.938
858.395 6.598 7.428 8.428 9.828 11.708 13.828 15.288 15.668 15.948 16.308
877.685 16.828 16.988 16.538 15.908 15.038 13.958 12.578 10.798 8.718 6.918
896.975 5.608 4.608 3.738 2.968 2.518 2.348 2.228 2.078 1.838 1.688
916.265 1.888 1.998 1.958 2.048 2.068 1.938 2.018 2.148 2.058 2.038
935.555 2.068 2.158 2.118 2.068 2.218 2.278 2.308 2.418 2.428 2.298
954.844 2.398 2.758 2.878 2.908 3.028 3.178 3.438 3.578 3.928 4.388
974.134 4.778 5.218 5.578 5.808 6.198 6.798 7.348 7.908 8.588 9.138
993.424 9.688 10.678 11.758 12.688 13.778 15.178 16.678 18.368 20.408 22.588
1012.714 24.558 26.658 28.338 29.298 30.008 30.148 29.798 29.168 28.058 26.408
1032.003 24.428 22.408 20.398 18.668 17.488 16.518 15.788 15.748 16.498 18.018
1051.293 20.538 24.008 27.978 32.098 36.198 39.528 42.198 44.718 46.138 45.908
1070.583 44.618 42.378 39.278 35.818 31.648 27.158 22.748 18.738 15.588 13.318
1089.873 11.428 9.918 8.788 7.648 6.808 6.338 6.038 5.438 4.728 4.078
1109.163 3.608 3.648 3.478 3.298 3.478 3.608 3.938 4.148 4.238 4.858
1128.452 5.608 6.068 6.638 7.148 7.508 7.808 8.038 8.188 8.308 8.478
1147.742 8.388 7.948 7.498 6.948 6.428 6.228 6.068 5.518 5.028 4.888
1167.032 4.688 4.628 5.078 5.538 5.958 6.288 6.568 6.988 7.188 7.148
1186.322 7.308 7.798 8.138 8.358 8.058 8.078 8.888 9.848 10.808 11.498
1205.611 12.188 12.768 13.008 13.178 13.538 13.898 13.978 13.768 13.828 13.738
1224.901 14.038 14.928 16.388 18.578 21.258 24.628 28.948 34.478 41.068 48.508
1244.191 56.538 64.788 71.998 78.058 83.218 87.238 90.178 92.068 92.908 92.698
1263.481 90.978 88.048 85.338 82.688 80.108 77.858 75.358 72.148 68.488 64.808
1282.771 60.928 56.858 52.988 49.398 45.888 42.218 38.448 34.518 30.168 25.528
1302.060 20.878 16.798 13.498 10.908 9.068 7.738 6.678 5.858 5.208 4.708
1321.350 4.378 4.088 3.898 3.738 3.528 3.368 3.298 3.228 3.158 3.148
1340.640 3.168 3.128 3.128 3.198 3.208 3.198 3.248 3.358 3.408 3.408
1359.930 3.438 3.498 3.588 3.628 3.658 3.658 3.678 3.798 3.968 4.158
1379.219 4.368 4.658 5.018 5.398 5.828 6.338 6.778 7.188 7.548 7.808
1398.509 8.108 8.338 8.498 8.578 8.588 8.618 8.658 8.728 8.888 9.148
1417.799 9.528 10.058 10.748 11.558 12.478 13.468 14.538 15.648 16.778 17.928
1437.089 18.988 19.688 20.028 20.118 19.918 19.558 19.388 19.388 19.208 18.998
1456.378 19.068 19.578 20.608 21.738 22.218 22.258 22.568 23.168 23.858 24.708
1475.668 25.828 27.368 29.718 33.478 39.148 47.028 57.488 70.248 84.568 99.198
1494.958 112.428 122.828 129.658 132.628 131.558 126.488 117.358 104.668 89.288 72.388
1514.248 56.108 42.268 31.618 24.068 18.778 15.238 12.838 11.128 9.948 9.058
1533.538 8.258 7.658 7.248 6.868 6.538 6.298 6.098 5.888 5.768 5.658
1552.827 5.528 5.408 5.358 5.388 5.388 5.368 5.378 5.358 5.388 5.468
1572.117 5.488 5.448 5.468 5.538 5.688 5.908 6.088 6.298 6.598 6.968
1591.407 7.348 7.858 8.458 9.028 9.448 9.648 9.748 9.748 9.558 9.278
1610.697 8.768 8.018 7.278 6.518 5.688 4.908 4.268 3.768 3.318 3.018
1629.986 2.748 2.498 2.338 2.248 2.128 1.978 1.858 1.788 1.798 1.758
1649.276 1.628 1.528 1.438 1.388 1.408 1.368 1.3032 1.2295 1.1893 1.2264
1668.566 1.2771 1.261 1.2189 1.1495 1.138 1.2242 1.201 1.1471 1.1943 1.2045
1687.856 1.146 1.1653 1.205 1.2656 1.285 1.2172 1.2654 1.2823 1.2741 1.348
1707.146 1.478 1.538 1.568 1.668 1.768 1.808 1.888 2.038 2.198 2.328
1726.435 2.518 2.598 2.658 2.748 2.708 2.658 2.618 2.588 2.518 2.398
1745.725 2.268 2.128 2.008 1.938 1.808 1.708 1.678 1.598 1.478 1.448
1765.015 1.378 1.2951 1.2583 1.202 1.1834 1.1559 1.116 1.0672 1.0575 1.1276
1784.305 1.1482 1.1683 1.2531 1.378 1.488 1.558 1.588 1.588 1.558 1.548
1803.594 1.558 1.498 1.458 1.418 1.2915 1.2249 1.191 1.1131 1.0363 0.9927
1822.884 0.9428 0.9102 0.9032 0.8847 0.9037 0.9743 1.031 1.1003 1.1858 1.2504
1842.174 1.2759 1.358 1.518 1.568 1.578 1.598 1.608 1.598 1.608 1.608
1861.464 1.578 1.568 1.548 1.528 1.558 1.558 1.508 1.488 1.438 1.348
1880.754 1.304 1.2886 1.253 1.175 1.0838 1.0319 0.9888 0.9534 0.9085 0.8236
1900.043 0.787 0.794 0.7926 0.7825 0.7613 0.7662 0.7618 0.7532 0.8008 0.7768
1919.333 0.7182 0.716 0.6712 0.677 0.7325 0.7266 0.7266 0.7156 0.7033 0.7236
1938.623 0.7512 0.8034 0.8189 0.801 0.7635 0.7897 0.837 0.8496 0.8576 0.9219
1957.913 1.002 1.0019 1.0178 1.0509 1.0962 1.1772 1.2507 1.2815 1.358 1.508
1977.202 1.608 1.738 1.898 1.998 2.078 2.148 2.238 2.348 2.408 2.438
1996.492 2.398 2.448 2.498 2.508 2.588 2.598 2.548 2.548 2.598 2.618
2015.782 2.628 2.658 2.608 2.488 2.498 2.508 2.358 2.178 2.138 2.088
2035.072 1.948 1.818 1.748 1.718 1.588 1.428 1.378 1.3003 1.2548 1.2457
2054.362 1.2063 1.1644 1.1767 1.179 1.204 1.1957 1.1483 1.1658 1.1519 1.1392
2073.651 1.1013 1.0753 1.097 1.0775 1.0877 1.0254 1.0125 1.111 1.1274 1.1348
2092.941 1.1045 1.0751 1.0439 1.0434 1.0374 1.0674 1.0559 0.9605 0.8995 0.818
2112.231 0.8177 0.8079 0.7868 0.7867 0.8021 0.8063 0.8017 0.8454 0.8624 0.8584
2131.521 0.866 0.8737 0.8439 0.8191 0.8492 0.8737 0.8877 0.908 0.8818 0.8926
2150.810 0.9022 0.8075 0.7951 0.8185 0.7969 0.8332 0.8015 0.7244 0.7171 0.6826
2170.100 0.6491 0.6798 0.6909 0.6838 0.6876 0.6501 0.6147 0.5983 0.6061 0.5708
2189.390 0.5075 0.5511 0.5964 0.5916 0.5747 0.5437 0.5243 0.5751 0.6037 0.5898
2208.680 0.5922 0.5667 0.5787 0.6214 0.6299 0.6822 0.7955 0.8148 0.8123 0.8352
2227.970 0.9272 0.9769 0.9741 0.9919 0.9839 1.0129 1.0255 1.0408 1.0365 1.0275
2247.259 1.0167 0.981 0.946 0.8688 0.7758 0.7372 0.7486 0.7464 0.6724 0.6925
2266.549 0.7896 0.7618 0.7304 0.7556 0.7551 0.7353 0.7618 0.7868 0.7424 0.7317
2285.839 0.7434 0.7333 0.7203 0.7194 0.6757 0.5742 0.5377 0.5466 0.5153 0.5828
2305.129 0.7112 0.671 0.568 0.5848 0.6459 0.6849 0.7206 0.7605 0.7801 0.7625
2324.418 0.7486 0.8094 0.7917 0.7832 0.8439 0.8374 0.8681 0.8152 0.7986 0.8752
2343.708 0.8857 0.8566 0.8914 0.9412 0.867 0.8235 0.8705 0.887 0.832 0.7651
2362.998 0.729 0.691 0.6942 0.7923 0.8167 0.7438 0.7136 0.7107 0.7447 0.7904
2382.288 0.7284 0.6767 0.7554 0.7866 0.7222 0.7024 0.7051 0.6329 0.6014 0.6135
2401.578 0.6194 0.5611 0.4995 0.483 0.4727 0.532 0.5595 0.5492 0.5333 0.5809
2420.867 0.5988 0.5207 0.5464 0.6291 0.5945 0.5851 0.6091 0.5977 0.6135 0.62
2440.157 0.6386 0.6705 0.6558 0.6036 0.6476 0.6792 0.5901 0.5474 0.6146 0.6505
2459.447 0.6484 0.7068 0.7522 0.6769 0.7158 0.837 0.7969 0.7373 0.7558 0.7798
2478.737 0.8214 0.8524 0.8549 0.8527 0.809 0.8272 0.8722 0.9052 0.8845 0.8688
2498.026 0.9732 1.0205 1.0228 1.082 1.1781 1.2563 1.368 1.408 1.428 1.578
2517.316 1.618 1.598 1.628 1.668 1.808 1.938 1.888 1.918 1.968 1.938
2536.606 1.978 1.988 1.968 1.948 1.888 1.828 1.698 1.638 1.628 1.518
2555.896 1.428 1.348 1.2196 1.1621 1.0895 0.9915 1.0042 0.9552 0.855 0.8755
2575.186 0.9218 0.9063 0.9068 0.9176 0.8787 0.8358 0.8987 0.9821 0.9106 0.8363
2594.475 0.8206 0.8455 0.868 0.8061 0.8374 0.858 0.8197 0.8544 0.817 0.7611
2613.765 0.7253 0.7018 0.6894 0.6695 0.6973 0.7508 0.7761 0.7181 0.6636 0.7719
2633.055 0.8602 0.8221 0.748 0.6792 0.7202 0.7981 0.8012 0.7925 0.8465 0.8778
2652.345 0.8184 0.6877 0.6089 0.5817 0.526 0.5635 0.5766 0.5761 0.5791 0.5965
2671.634 0.6308 0.5957 0.5433 0.5721 0.6635 0.6771 0.6348 0.5997 0.5603 0.5993
2690.924 0.6499 0.5739 0.5531 0.5974 0.6136 0.682 0.7711 0.7238 0.6871 0.7209
2710.214 0.7195 0.7807 0.8596 0.834 0.7602 0.8531 0.907 0.8394 0.9043 1.0159
2729.504 1.0526 1.1186 1.2729 1.3135 1.418 1.618 1.748 1.778 1.778 1.838
2748.794 1.888 1.878 1.848 1.768 1.728 1.678 1.528 1.498 1.528 1.428
2768.083 1.388 1.448 1.3367 1.3104 1.388 1.458 1.468 1.578 1.718 1.698
2787.373 1.728 1.938 1.988 2.008 2.038 2.178 2.358 2.428 2.568 2.718
2806.663 2.888 3.068 3.308 3.508 3.818 4.108 4.368 4.788 5.278 5.918
2825.953 6.628 7.438 8.448 9.548 10.628 11.828 13.028 14.018 14.848 15.458
2845.242 15.728 15.848 15.968 15.688 14.968 14.308 13.608 12.918 12.568 12.308
2864.532 12.198 12.348 12.588 12.788 13.028 13.328 13.448 13.548 13.748 13.828
2883.822 13.808 13.868 14.008 14.188 14.448 14.698 14.978 15.338 15.788 16.288
2903.112 16.808 17.398 17.998 18.598 19.288 19.978 20.778 21.748 22.548 23.398
2922.401 24.538 25.868 27.438 29.068 30.718 32.258 33.498 34.508 35.208 35.608
2941.691 35.668 35.368 34.758 33.848 32.628 31.298 30.108 28.898 27.848 26.738
2960.981 25.148 23.418 21.748 20.118 18.648 17.378 16.288 15.398 14.718 14.178
2980.271 13.708 13.508 13.538 13.548 13.648 14.048 14.598 15.188 15.918 16.948
2999.561 18.158 19.308 20.318 21.208 21.848 22.078 21.988 21.468 20.668 19.738
3018.850 18.798 17.878 16.908 16.178 15.868 15.788 15.878 16.098 16.368 16.548
3038.140 16.538 16.338 15.998 15.658 15.148 14.478 13.608 12.698 11.888 11.058
3057.430 10.228 9.618 9.178 8.788 8.538 8.298 8.078 7.928 7.758 7.608
3076.720 7.388 7.178 7.038 6.898 6.638 6.218 5.848 5.568 5.238 4.908
3096.009 4.638 4.288 3.958 3.758 3.598 3.328 3.168 3.008 2.838 2.658
3115.299 2.498 2.358 2.218 2.098 1.988 2.008 1.828 1.588 1.518 1.398
3134.589 1.348 1.3216 1.307 1.2065 1.1356 1.1737 1.0426 0.9286 0.8123 0.785
3153.879 0.8521 0.8698 0.9537 0.886 0.7458 0.7637 0.7217 0.6317 0.7458 0.8217
3173.169 0.8195 0.7188 0.4964 0.4999 0.5848 0.6284 0.5979 0.573 0.5938 0.6154
3192.458 0.7532 0.732 0.6719 0.6088 0.4922 0.4808 0.5715 0.6369 0.5157 0.4799
3211.748 0.5249 0.6083 0.6797 0.6117 0.5351 0.41019 0.3931 0.43244 0.5056 0.529
3231.038 0.5145 0.5948 0.5181 0.4999 0.5111 0.4602 0.5311 0.5115 0.4291 0.4779
3250.328 0.4776 0.4463 0.502 0.5552 0.5116 0.3938 0.36072 0.4931 0.4891 0.4932
3269.617 0.4521 0.33304 0.42677 0.42055 0.3257 0.38744 0.38086 0.228 0.219 0.2446
3288.907 0.221 0.2619 0.2573 0.258 0.38327 0.3238 0.205 0.216 0.239 0.345597
3308.197 0.3132 0.3053 0.40227 0.452 0.4781 0.41554 0.4482 0.5227 0.4466 0.38263
3327.487 0.3904 0.455 0.5138 0.4636 0.43621 0.36782 0.345069 0.42547 0.4768 0.37686
3346.777 0.3047 0.4791 0.473 0.3052 0.34974 0.4672 0.40412 0.40732 0.37252 0.2398
3366.066 0.3207 0.2744 0.189 0.227 0.2538 0.3148 0.2956 0.2611 0.3214 0.42795
3385.356 0.38469 0.2916 0.3208 0.36266 0.453 0.37823 0.2699 0.35752 0.3156 0.2777
3404.646 0.341691 0.33134 0.3826 0.438 0.37189 0.2898 0.2959 0.39258 0.42083 0.214
3423.936 0.051 0.103 0.2606 0.4603 0.4696 0.36436 0.4517 0.5477 0.5667 0.4661
3443.225 0.33552 0.3026 0.132 0.176 0.35626 0.338947 0.3104 0.32981 0.3034 0.2871
3462.515 0.2879 0.3811 0.4889 0.229 0.231 0.43099 0.344324 0.40508 0.40673 0.2998
3481.805 0.42131 0.4949 0.42186 0.38013 0.38408 0.43152 0.41996 0.4677 0.4554 0.4453
3501.095 0.41289 0.3494 0.3005 0.3066 0.38052 0.36652 0.37044 0.3146 0.3216 0.43269
3520.385 0.4492 0.32852 0.206 0.097 0.213 0.42278 0.37852 0.2617 0.3121 0.42864
3539.674 0.326 0.3018 0.2515 0.13 0.113 0.19 0.236 0.3052 0.2546 0
3558.964 0.188 0.305 0.2574 0.3007 0.2836 0.33372 0.36146 0.5063 0.36267 0.2381
3578.254 0.3197 0.178 0.2499 0.3005 0.2574 0.2909 0.2893 0.33648 0.3269 0.3058
3597.544 0.36389 0.2827 0.197 0.23 0.2889 0.154 0.124 0.198 0.168 0.19
3616.833 0.19 0.225 0.212 0.219 0.2875 0.343855 0.36573 0.3675 0.35843 0.3124
3636.123 0.2867 0.3052 0.2414 0.36628 0.36336 0.2791 0.36019 0.321 0.222 0.2759
3655.413 0.2871 0.246 0.343268 0.2977 0.340773 0.42926 0.2604 0.169 0.2799 0.39721
3674.703 0.6198 0.6146 0.40946 0.43003 0.38818 0.2505 0.344046 0.4747 0.40041 0.33245
3693.993 0.43242 0.5561 0.4616 0.2959 0.2685 0.208 0.185 0.2642 0.345725 0.341812
3713.282 0.35631 0.35739 0.35233 0.4537 0.4716 0.4671 0.5195 0.4719 0.40652 0.5444
3732.572 0.6605 0.5339 0.37605 0.2972 0.3038 0.39482 0.4709 0.43408 0.38316 0.3096
3751.862 0.2708 0.4014 0.4666 0.5005 0.5426 0.4533 0.33106 0.3132 0.2843 0.39503
3771.152 0.43186 0.27 0.38097 0.4676 0.3094 0.2519 0.39948 0.4679 0.4078 0.4559
3790.441 0.5195 0.4787 0.4832 0.5263 0.34963 0.3074 0.5513 0.4932 0.39638 0.41508
3809.731 0.2904 0.2601 0.3054 0.4819 0.4558 0.285 0.2813 0.3226 0.33395 0.3003
3829.021 0.339835 0.4385 0.5204 0.38092 0.2557 0.2802 0.2719 0.2698 0.42829 0.5741
3848.311 0.5164 0.6254 0.7125 0.5045 0.4484 0.36069 0.342438 0.5545 0.5151 0.36436
3867.601 0.342171 0.4072 0.4381 0.42093 0.4676 0.6117 0.6506 0.5847 0.5016 0.43792
3886.890 0.5074 0.5723 0.6312 0.6956 0.5784 0.41121 0.4663 0.599 0.7319 0.6386
3906.180 0.5691 0.7 0.8045 0.7709 0.559 0.43577 0.6224 0.8575 0.819 0.5819
3925.470 0.40726 0.4821 0.53 0.4673 0.5577 0.6922 0.5677 0.498 0.5082 0.42286
3944.760 0.4563 0.4243 0.344189 0.4857 0.6631 0.5831 0.5613 0.5894 0.6284 0.7228
3964.049 0.6447 0.456 0.42121 0.5082 0.5555 0.6127 0.5805 0.5756 0.6034 0.5283
3983.339 0.5578 0.6316 0.6561 0.7359 0.7165 0.6748 0.6859 0.648 0.627 0.6313
##END=
