##TITLE=5-Methyl-1-hexyne
##JCAMP-DX=4.24
##DATA TYPE=INFRARED SPECTRUM
##ORIGIN=NIST Mass Spectrometry Data Center
##OWNER=NIST Standard Reference Data Program
Collection (C) 2018 copyright by the U.S. Secretary of Commerce
on behalf of the United States of America. All rights reserved.
##CAS REGISTRY NO=2203-80-7
##MOLFORM=C 7 H 12
##$NIST SOURCE=MSDC-IR
##SPECTROMETER/DATA SYSTEM=HP-GC/MS/IRD
##STATE=gas
##XUNITS=1/CM
##YUNITS=ABSORBANCE
##XFACTOR=1.0
##YFACTOR=0.000002300
##DELTAX=4.0
##FIRSTX=550.0
##LASTX=3846.0
##FIRSTY=0.000708
##MAXX=3846
##MINX=550
##MAXY=0.023
##MINY=0
##NPOINTS=825
##XYDATA=(X++(Y..Y))
550.0 308 277 256 287 262 245 190 151 196 239
590.0 292 342 446 642 935 1424 2133 3088 4441 6509
630.0 9225 9982 8152 6012 4138 2702 1711 1070 668 415
670.0 272 208 199 170 133 106 72 79 90 86
710.0 64 46 24 14 42 41 34 41 45 56
750.0 61 63 74 64 42 33 42 27 14 29
790.0 33 21 13 23 29 37 45 50 48 37
830.0 26 47 27 4 17 34 26 8 10 17
870.0 18 22 31 35 47 63 50 37 55 67
910.0 79 105 143 164 184 200 196 179 142 113
950.0 96 75 52 40 45 35 27 30 34 32
990.0 7 0 13 13 5 19 48 71 71 73
1030.0 82 70 57 46 48 47 44 40 27 42
1070.0 46 35 40 45 54 70 87 112 149 175
1110.0 209 245 248 245 228 190 175 166 147 163
1150.0 206 242 285 333 355 343 326 293 243 199
1190.0 181 179 191 217 234 260 317 373 449 613
1230.0 901 1322 1776 2110 2218 2207 2096 1757 1276 829
1270.0 546 406 323 275 253 246 260 284 325 377
1310.0 415 454 477 490 500 484 458 432 440 458
1350.0 486 555 630 703 782 851 908 1002 1054 1023
1390.0 954 846 723 568 430 358 324 339 401 494
1430.0 607 716 825 938 1036 1117 1182 1222 1236 1257
1470.0 1236 1140 994 828 683 537 415 325 250 201
1510.0 164 136 111 91 77 70 66 63 58 58
1550.0 55 41 37 41 45 53 59 52 45 37
1590.0 35 49 56 53 47 45 42 44 43 52
1630.0 59 49 49 52 44 42 41 41 33 31
1670.0 35 34 34 41 37 34 42 38 34 37
1710.0 33 25 24 24 27 27 23 23 17 18
1750.0 23 25 20 22 25 18 19 19 20 12
1790.0 8 12 18 23 25 22 24 24 22 22
1830.0 22 25 26 24 21 23 20 19 25 27
1870.0 20 17 25 30 27 24 19 17 20 15
1910.0 17 22 17 16 16 15 16 6 0 13
1950.0 23 16 10 13 20 21 12 11 15 8
1990.0 6 10 16 20 14 20 21 11 9 7
2030.0 6 10 23 33 38 38 35 35 42 45
2070.0 45 51 60 74 96 134 182 235 303 387
2110.0 453 486 500 478 415 333 239 153 106 84
2150.0 63 47 34 27 26 24 18 23 29 23
2190.0 16 14 14 20 23 13 8 15 10 6
2230.0 15 13 6 0 9 18 15 11 19 21
2270.0 16 18 15 11 10 12 25 26 11 5
2310.0 7 14 14 14 14 15 9 0 3 13
2350.0 12 13 16 17 23 16 12 21 33 36
2390.0 27 21 26 33 27 31 31 25 15 20
2430.0 32 42 25 9 17 20 22 19 15 25
2470.0 29 26 31 30 25 25 16 14 20 27
2510.0 37 43 42 32 25 23 22 25 34 30
2550.0 24 33 44 47 43 37 38 34 35 49
2590.0 61 66 64 57 60 68 79 83 82 92
2630.0 93 89 90 96 88 80 89 93 97 107
2670.0 108 112 114 113 126 149 162 155 139 127
2710.0 121 129 150 158 164 174 180 182 189 190
2750.0 191 198 190 185 191 189 185 203 212 207
2790.0 223 237 251 284 308 332 353 371 412 469
2830.0 529 607 710 849 1016 1224 1478 1753 2071 2439
2870.0 2825 3114 3278 3393 3435 3405 3355 3337 3450 3689
2910.0 4052 4520 5069 5697 6330 6900 7364 7708 7953 8148
2950.0 8429 8911 9572 10000 9676 8879 7855 6397 4640 3102
2990.0 2099 1449 1049 801 629 516 425 366 321 296
3030.0 280 275 268 253 241 232 231 222 213 221
3070.0 212 198 196 187 189 175 166 166 144 134
3110.0 138 148 143 146 158 151 148 140 138 140
3150.0 140 138 130 135 139 146 141 126 129 134
3190.0 130 130 132 112 91 96 78 81 97 92
3230.0 85 83 98 101 106 111 129 157 183 223
3270.0 266 324 395 465 545 683 914 1154 1333 1506
3310.0 1800 2360 2997 3218 3153 3058 3020 2652 1724 1025
3350.0 722 558 445 365 287 215 169 136 121 92
3390.0 68 63 61 71 64 47 42 35 38 44
3430.0 52 45 30 36 11 4 17 28 43 14
3470.0 8 21 25 38 36 37 30 10 10 20
3510.0 13 17 32 26 32 28 43 42 0 2
3550.0 23 26 24 19 22 36 29 24 33 18
3590.0 9 22 41 38 28 23 9 20 48 42
3630.0 40 47 44 47 51 31 26 31 22 23
3670.0 35 46 43 40 47 48 40 36 26 10
3710.0 29 53 40 34 36 22 12 17 32 36
3750.0 49 49 55 56 51 46 44 48 42 35
3790.0 34 37 34 46 64 46 22 26 35 43
3830.0 56 76 77 92 88
##END=
