##TITLE=3-Methylbenzo[b]thiophene-2-carboxaldehyde
##JCAMP-DX=4.24
##DATA TYPE=INFRARED SPECTRUM
##ORIGIN=EPA-IR VAPOR PHASE LIBRARY
##OWNER=SRD/NIST
Collection (C) 2018 copyright by the U.S. Secretary of Commerce
on behalf of the United States of America. All rights reserved.
##CAS REGISTRY NO=22053-74-3
##MOLFORM=C 10 H 8 O S
##$NIST SOURCE=MSDC-IR
##STATE=gas
##XUNITS=1/CM
##YUNITS=ABSORBANCE
##XFACTOR=1.
##YFACTOR=0.001
##DELTAX=1.92898
##FIRSTX=549.8
##LASTX=4000.7
##FIRSTY=2.722
##MAXX=4000.7
##MINX=549.759
##MAXY=0.100992
##MINY=0
##NPOINTS=1790
##XYDATA=(X++(Y..Y))
549.759 2.722 2.962 2.522 2.102 2.312 2.592 1.712 0.8343 0.8282 1.0772
569.049 1.722 2.542 2.062 1.752 1.902 2.022 1.682 1.4109 1.3904 1.0012
588.339 1.482 1.732 1.562 1.4778 1.3842 1.149 1.5029 1.782 1.1296 1.0925
607.628 2.022 2.322 1.802 1.4855 1.822 2.502 3.132 3.732 3.932 3.882
626.918 3.352 3.222 3.372 3.202 2.372 1.642 1.772 1.862 1.652 2.082
646.208 2.722 2.532 2.412 2.362 2.252 2.342 2.722 3.422 3.782 4.162
665.498 5.112 5.952 6.772 7.632 8.102 8.112 7.972 7.082 6.162 5.472
684.787 4.682 4.062 3.302 2.622 2.312 2.192 1.692 1.4403 1.742 1.862
704.077 2.082 2.512 3.062 3.762 4.652 5.572 6.372 7.632 8.372 8.842
723.367 10.092 12.562 16.382 16.792 14.052 13.132 12.972 13.102 13.082 12.552
742.657 12.632 12.492 12.782 13.252 14.522 17.302 17.082 13.062 10.772 9.992
761.947 8.472 7.152 5.782 4.182 3.032 2.372 2.172 2.172 1.922 1.702
781.236 1.2483 0.9225 0.7251 1.0037 1.702 1.622 1.1728 0.8415 0.62057 0.5108
800.526 0.62997 1.0248 1.3752 1.3795 1.3827 1.2762 1.1822 1.1087 1.1384 1.0634
819.816 1.812 2.922 3.762 3.012 1.5055 1.812 2.342 2.212 1.5249 1.072
839.106 1.1328 1.1981 1.1494 1.542 1.972 2.052 1.922 2.022 2.332 2.932
858.395 3.032 3.322 3.712 4.392 5.382 6.202 6.492 6.512 7.012 6.772
877.685 6.462 5.942 5.322 4.462 3.692 3.852 3.602 2.942 2.642 2.132
896.975 1.992 2.042 1.772 1.662 1.832 1.852 1.762 1.582 1.4784 1.3781
916.265 1.1565 1.088 1.2562 1.3641 1.562 2.172 2.262 1.3901 0.63806 0.7903
935.555 1.3703 1.742 1.922 1.712 1.4323 1.2119 1.1341 1.532 1.712 1.269
954.844 1.0766 1.0326 1.0134 1.2383 1.1696 1.4031 1.4886 1.2847 1.4082 1.902
974.134 1.722 2.062 2.352 2.182 2.382 2.322 2.822 2.722 2.302 2.402
993.424 2.542 2.702 2.592 2.572 2.962 2.612 1.942 1.782 2.082 2.712
1012.714 2.552 2.672 3.062 2.622 3.002 3.202 3.062 3.182 3.602 3.702
1032.003 3.992 4.942 4.322 3.242 2.882 3.242 2.972 2.712 3.182 3.472
1051.293 3.592 3.432 3.612 3.472 4.292 4.722 4.462 5.272 5.112 4.522
1070.583 3.812 4.712 5.542 5.032 5.352 4.652 3.682 4.172 4.752 3.342
1089.873 2.662 3.252 3.242 3.322 3.102 3.162 2.532 1.832 1.692 3.522
1109.163 4.512 3.322 3.612 2.802 2.012 3.622 3.912 2.892 2.982 4.062
1128.452 4.272 3.982 4.272 4.642 4.572 5.542 5.692 4.092 3.722 3.362
1147.742 3.712 5.362 6.692 7.982 9.212 9.072 8.602 9.192 10.042 10.892
1167.032 12.122 11.662 10.282 10.172 10.992 11.122 10.792 11.502 11.672 12.082
1186.322 13.242 13.782 14.442 15.532 16.182 15.692 15.022 15.532 16.372 15.402
1205.611 13.882 13.732 13.912 13.552 11.512 9.152 7.952 6.802 4.792 2.832
1224.901 1.852 1.912 2.492 2.422 2.452 3.002 3.482 2.582 1.402 1.772
1244.191 2.402 2.342 2.332 3.612 4.372 4.972 5.702 6.332 6.662 6.312
1263.481 6.572 6.332 5.282 3.962 3.482 2.862 2.212 1.582 1.1765 2.052
1282.771 1.932 1.652 1.972 1.702 1.582 1.742 1.862 1.882 2.042 2.542
1302.060 3.082 3.462 3.682 4.042 4.522 4.642 4.652 4.572 4.592 4.582
1321.350 4.272 4.192 4.222 4.372 4.862 5.482 6.162 6.922 7.332 7.712
1340.640 8.102 8.222 8.202 8.002 7.802 7.232 6.472 5.672 4.842 4.302
1359.930 3.882 3.752 3.692 3.542 3.852 4.602 5.342 5.952 6.282 6.392
1379.219 6.572 6.752 6.802 6.472 5.672 4.752 4.282 4.002 3.602 3.402
1398.509 3.352 3.272 3.222 3.152 3.152 3.262 3.312 3.262 3.472 3.822
1417.799 4.102 4.542 5.062 5.632 6.032 6.202 6.512 6.722 6.592 6.592
1437.089 6.412 6.102 5.832 5.522 5.412 5.342 5.212 5.082 4.962 4.782
1456.378 4.442 4.302 4.242 3.882 3.762 3.772 3.702 3.552 3.432 3.732
1475.668 3.822 3.562 3.422 3.532 3.932 4.242 4.342 4.632 4.922 5.212
1494.958 5.582 5.972 6.442 7.022 7.652 8.272 9.402 10.742 11.942 13.212
1514.248 14.422 15.862 17.202 17.792 18.052 18.402 18.442 17.572 16.342 15.122
1533.538 13.442 11.762 10.312 8.952 8.022 7.462 6.942 6.602 6.442 6.582
1552.827 7.052 7.472 7.712 8.012 8.442 8.432 8.092 7.632 7.082 6.212
1572.117 5.192 4.442 3.822 3.562 3.672 3.582 3.432 3.282 3.472 3.732
1591.407 3.752 3.852 3.882 3.742 3.542 3.412 3.322 3.162 2.952 2.802
1610.697 2.462 2.382 2.432 2.272 2.022 1.772 1.792 1.892 2.032 2.062
1629.986 1.852 1.782 1.942 1.812 1.742 2.092 2.402 2.542 2.572 2.822
1649.276 3.312 3.352 3.642 4.072 4.262 4.912 5.512 6.292 7.282 7.972
1668.566 9.422 11.442 14.202 18.302 24.742 33.942 46.312 60.012 72.742 82.422
1687.856 89.172 94.842 99.212 100.992 95.632 83.412 69.712 57.422 48.902 41.002
1707.146 32.142 23.242 16.352 11.592 8.602 6.782 5.622 4.822 4.292 4.012
1726.435 3.712 3.452 3.292 3.142 2.852 2.672 2.802 2.762 2.602 2.612
1745.725 2.552 2.372 2.152 2.042 2.182 2.202 2.252 2.302 2.252 2.202
1765.015 2.412 2.542 2.322 2.352 2.392 2.242 2.202 2.172 2.122 2.052
1784.305 2.022 1.932 1.762 1.4473 1.256 1.3215 1.3383 1.4277 1.3986 1.4261
1803.594 1.582 1.832 1.802 1.702 1.772 1.692 1.702 1.722 1.682 1.572
1822.884 1.5047 1.4912 1.592 1.4989 1.2877 1.3775 1.612 1.782 1.892 1.992
1842.174 2.112 2.082 2.082 2.152 2.112 2.212 2.202 2.022 1.892 1.872
1861.464 1.822 1.802 1.932 2.022 2.052 2.012 2.042 2.042 2.002 1.982
1880.754 1.812 1.832 1.712 1.5036 1.5123 1.582 1.602 1.652 1.632 1.642
1900.043 1.752 1.662 1.642 1.712 1.702 1.702 1.592 1.3776 1.2032 1.1181
1919.333 1.2388 1.3853 1.4515 1.552 1.632 1.722 1.742 1.612 1.562 1.772
1938.623 2.082 2.042 1.812 1.622 1.4317 1.3385 1.1336 0.9204 0.9599 1.0594
1957.913 1.0432 1.0667 1.2345 1.1065 0.9321 1.0507 1.0429 0.8659 0.7969 0.7786
1977.202 0.7319 0.6477 0.7507 0.9493 0.7649 0.8368 0.9971 1.0183 1.1525 1.1682
1996.492 1.1991 1.2623 1.1548 0.8235 0.7534 1.0088 1.0195 0.8723 0.9323 0.8876
2015.782 0.846 0.9738 1.0062 0.9986 1.012 0.9463 1.0328 1.0442 1.0754 1.2335
2035.072 1.2292 1.0748 0.9613 1.0273 1.0487 1.0326 0.9215 0.768 0.8186 0.8826
2054.362 0.9753 1.1174 1.12 0.9916 0.8826 0.8494 0.722 0.6741 0.7781 0.7768
2073.651 0.8983 0.9924 0.8723 0.9225 0.8997 0.8363 0.8034 0.8309 0.943 1.0711
2092.941 0.9692 0.9749 1.1153 0.9565 0.9507 1.0644 1.0959 0.9895 0.9473 0.9023
2112.231 0.7938 0.9518 0.9747 0.9296 1.045 0.9645 0.839 0.7807 0.7286 0.668
2131.521 0.8352 1.0768 1.0933 1.0514 0.9648 0.8768 0.7893 0.7001 0.744 0.8262
2150.810 0.8867 0.9746 0.7911 0.791 1.111 1.0957 0.898 0.9579 0.8489 0.6716
2170.100 0.8511 0.9641 0.889 0.9769 1.1567 0.9809 0.61455 0.61064 0.7383 0.741
2189.390 0.7139 0.7419 0.8265 0.8895 0.9389 0.9841 1.0068 0.8403 0.7995 0.8316
2208.680 0.7722 0.747 0.6996 0.6408 0.61116 0.7429 0.9271 1.048 1.0625 1.0507
2227.970 0.9915 0.7798 0.648 0.7917 0.965 0.9801 0.9673 0.7149 0.6518 0.8856
2247.259 0.9539 0.9149 0.9105 0.9868 0.9878 0.8379 0.6646 0.7949 1.0499 0.9727
2266.549 0.7882 0.8189 0.8764 1.0422 1.1059 1.0455 1.1326 1.1507 1.0465 1.0077
2285.839 1.0228 0.9404 0.9296 1.1214 1.0044 0.7978 0.961 1.0123 1.006 0.9764
2305.129 0.9974 1.0032 0.8406 0.9189 0.8078 0.9313 1.0821 0.8152 1.0287 1.2972
2324.418 1.0799 0.8538 0.9656 1.0203 0.9936 0.9339 0.8814 0.8793 0.7733 0.7192
2343.708 0.8061 1.0126 1.1156 0.9262 0.9273 0.9481 0.9918 1.1506 1.2322 1.296
2362.998 1.1509 0.9112 1.0164 0.8745 0.7676 0.9822 1.1029 1.0546 0.9338 0.8769
2382.288 0.8589 0.9299 0.9787 1.0985 1.1594 1.1223 1.1058 1.2191 1.2844 1.2019
2401.578 1.0198 0.9229 1.1871 1.2109 1.1049 1.2786 1.1955 1.0424 1.1292 1.1605
2420.867 1.0268 0.9145 0.8602 0.9155 0.9232 0.9351 1.0119 1.1134 1.0991 0.989
2440.157 0.9981 0.986 0.994 0.8609 0.8587 1.0225 0.9921 1.0248 1.1387 1.1272
2459.447 0.9165 0.994 1.2404 1.2513 1.2584 1.2704 1.275 1.122 0.9176 0.7734
2478.737 0.7234 0.783 0.9682 1.0426 1.0643 1.1562 1.1005 1.0212 1.0404 1.1397
2498.026 1.1768 1.1818 1.2958 0.8518 0.646 1.1926 1.2007 1.2305 1.3152 0.9363
2517.316 0.858 1.0679 1.1031 1.1221 1.1264 1.0944 1.0151 0.9184 0.8922 1.1624
2536.606 1.2275 1.0837 1.206 1.0851 0.9118 0.9691 0.9858 0.8512 0.9635 1.2535
2555.896 1.4473 1.712 1.3908 1.1277 1.3036 1.4492 1.4194 1.1519 0.9684 0.8938
2575.186 1.0553 1.0896 1.0694 1.0225 1.159 1.3612 1.2101 1.2261 1.2639 0.9867
2594.475 0.8931 0.9482 0.995 1.1569 1.1325 0.8693 0.8599 1.1107 1.227 1.3261
2613.765 1.4353 1.4147 0.9415 0.8516 1.5166 1.4909 1.0729 1.0258 1.1747 1.1054
2633.055 0.8893 0.807 1.2863 1.792 1.3306 1.045 1.0885 1.1025 1.2708 1.4533
2652.345 1.4381 1.3165 1.3023 1.3215 1.4153 1.4979 1.4881 1.4062 1.5328 1.812
2671.634 1.682 1.4978 1.652 1.912 1.742 1.4795 1.662 1.882 1.922 1.752
2690.924 1.52 1.5202 1.992 2.362 2.062 2.032 2.222 2.532 2.752 2.722
2710.214 3.212 3.952 4.522 4.962 5.592 6.172 6.522 7.332 8.232 8.172
2729.504 8.342 8.842 9.052 8.902 8.452 7.922 7.232 6.662 6.092 5.712
2748.794 5.472 5.182 4.732 4.082 3.732 3.862 3.712 3.622 3.572 3.212
2768.083 3.032 2.952 2.632 2.302 2.542 2.672 2.542 2.612 2.662 2.562
2787.373 2.772 2.902 3.122 3.222 3.142 3.582 3.902 4.152 4.422 4.692
2806.663 5.202 5.742 5.882 6.242 6.922 7.622 8.442 9.322 10.232 11.042
2825.953 12.002 12.512 12.602 12.602 12.452 11.672 10.532 9.972 8.962 7.782
2845.242 7.012 5.992 5.102 4.652 4.162 3.792 3.562 3.042 2.882 3.192
2864.532 3.442 3.392 3.462 3.462 3.432 3.492 3.002 2.672 2.612 3.002
2883.822 3.492 3.142 2.642 2.552 2.622 2.702 2.752 2.672 2.452 2.522
2903.112 2.332 2.162 2.642 3.052 2.942 2.782 3.062 3.362 3.642 3.832
2922.401 4.162 4.712 4.772 4.982 5.312 5.312 5.262 5.302 5.262 4.892
2941.691 4.192 3.812 4.002 4.062 3.842 3.462 3.472 3.432 2.982 2.692
2960.981 2.512 2.782 2.712 2.552 2.422 2.232 2.282 2.252 2.342 2.112
2980.271 1.622 1.562 2.032 2.182 2.052 2.312 2.762 2.672 2.542 2.922
2999.561 2.812 2.512 2.742 2.882 2.812 2.522 2.552 2.742 2.912 2.822
3018.850 2.302 2.422 2.852 3.192 3.122 2.962 2.982 3.082 3.122 2.752
3038.140 2.512 2.602 2.512 2.572 3.122 3.632 3.822 3.772 4.092 4.702
3057.430 5.292 6.282 7.212 7.972 8.592 9.252 9.942 10.172 10.322 10.382
3076.720 10.102 9.522 8.552 7.842 7.182 6.102 5.282 4.502 3.582 2.912
3096.009 2.532 2.542 2.532 2.162 2.032 1.842 1.5193 1.4148 1.2299 1.4629
3115.299 1.902 1.612 1.732 1.902 1.542 1.3645 1.3344 1.3956 1.0491 0.7964
3134.589 0.8543 1.2127 1.5159 1.311 1.1375 0.9553 1.0852 1.078 0.7735 0.8579
3153.879 1.4447 1.672 1.0727 0.8573 1.1318 1.0751 0.8717 0.776 0.6593 0.7551
3173.169 0.9669 0.921 0.7311 0.545951 0.169 0.37 0.656 0.394 0.4822 0.7068
3192.458 0.968 1.2871 1.1188 0.7638 1.1005 1.0598 0.6866 1.1644 1.2609 1.0142
3211.748 0.6577 0.5056 0.8363 0.57377 0.6992 1.0102 0.7454 0.7957 1.0109 0.917
3231.038 0.546603 0.408 0.4731 0.5064 0.56037 0.59329 0.411 0.6589 1.3408 1.5139
3250.328 1.1505 0.388 0.149 0.421 0.7214 0.9257 0.9304 0.9953 0.42 0.2
3269.617 0.53729 0.8435 0.58597 0.283 0.5287 0.6776 0.9052 0.9448 0.8355 0.6673
3288.907 0.58082 0.7876 0.9941 0.9741 0.821 0.6884 0.8231 0.7109 0.5035 0.6514
3308.197 0.8884 0.55984 0.4615 0.6914 0.7214 0.9931 0.9204 1.0879 1.0369 0.8784
3327.487 0.9948 0.61952 0.5084 0.755 1.1142 1.4449 1.1635 0.8984 0.8206 1.0138
3346.777 1.3716 1.2805 1.4349 1.4609 1.2475 1.552 1.792 1.672 1.642 1.772
3366.066 1.912 1.972 1.872 1.5264 1.3389 1.1769 1.268 1.2118 1.3347 1.652
3385.356 1.4113 1.2422 1.0647 0.772 0.798 0.9302 1.0135 0.7083 0.441 0.6532
3404.646 1.2505 1.3386 0.8735 0.7816 0.7262 0.8436 0.7596 0.4744 0.9491 1.2905
3423.936 0.8184 0.5277 0.9683 1.4421 1.1295 1.0957 1.324 0.9073 0.8561 1.3839
3443.225 1.1252 0.8689 0.7071 0.198 0.368 0.6833 0.9248 1.0462 0.6846 0.7888
3462.515 1.0418 0.5262 0.324 0.4976 0.6569 0.8725 1.1986 1.1691 0.8282 1.0731
3481.805 1.1307 1.135 1.147 0.6458 0.7047 1.2085 1.2959 1.0666 0.913 1.0648
3501.095 1.0097 0.8053 0.7249 0.8068 0.9802 0.7841 0.6428 0.294 0.168 0.6516
3520.385 0.8923 0.56537 0.158 0.4729 0.6666 0.435 0.7683 0.9627 0.8343 0.518
3539.674 0.411 0.6531 0.7597 0.7289 0.62084 0.6934 0.8214 0.812 0.8289 0.8015
3558.964 0.6448 0.60892 0.318 0.323 0.7975 0.7879 0.472 0.305 0.341 0.8078
3578.254 1.2212 0.902 0.59286 0.7538 0.8339 1.1058 0.8188 0.4538 0.55944 0.413
3597.544 0.7056 1.0032 0.9366 1.4016 1.4946 0.7167 0.53425 0.39 0.21 0.309
3616.833 0.62042 1.133 1.3475 1.1315 0.57911 0.5251 1.1265 1.552 1.4666 1.03
3636.123 0.665 1.1995 1.4081 0.9727 0.9898 1.2076 1.1695 0.51 0.033 0.60359
3655.413 1.0227 1.0748 1.2429 1.2095 1.0669 0.7982 0.6798 0.53875 0.7501 1.0733
3674.703 1.11 1.2724 1.0789 0.9777 1.0865 0.8268 0.308 0.266 0.775 0.6445
3693.993 0.438 0.7914 1.0262 0.7513 0.387 1.0295 1.326 0.8963 0.7437 0.7784
3713.282 0.4747 0.59968 0.8304 0.6925 0.9797 0.8085 0.60479 0.6605 1.0671 1.2829
3732.572 1.0047 0.8762 0.882 0.9507 0.8481 0.8412 0.8905 1.0189 0.7627 0.309
3751.862 0.431 0.8042 1.3183 1.5099 1.2576 0.9482 1.071 1.3804 1.562 1.4238
3771.152 0.4896 0.62633 1.2074 1.0022 0.9458 0.8286 0.53856 0.658 0.7528 0.8477
3790.441 1.5337 1.602 0.7461 0.58137 0.866 0.4772 0.119 0.187 0.5201 0.458
3809.731 0.6798 0.955 1.2826 1.3686 0.56881 0.421 0.62384 0.307 0.4877 0.9728
3829.021 0.4588 0.023 0.256 0.371 0.7756 1.1272 0.8268 0.8649 0.53639 0.324
3848.311 0.298 0.105 0.6891 0.7067 0.7046 1.1809 0.8387 0.6974 0.7711 0.58884
3867.601 0.8902 0.9455 1.122 1.35 1.1926 0.8528 0.8322 1.04 1.2103 1.582
3886.890 1.1907 0.59563 0.364 0.327 0.7244 0.719 0.44 0.437 0.6451 0.8671
3906.180 0.7489 0.7069 0.8961 0.8883 0.8509 0.5134 0.286 0.7433 0.9305 0.6655
3925.470 0.19 0.115 0.123 0.352 0.9421 0.7272 0.5295 0.9924 0.8826 1.0264
3944.760 1.0772 0.7904 1.1848 0.4946 0.087 0.7511 0.808 0.6367 0.192 0
3964.049 0.64055 0.921 0.8405 1.113 1.1621 0.4539 0.384 0.58106 0.151 0.362
3983.339 0.7575 0.9279 0.981 1.1334 1.0946 0.4565 0.023 0.3 0.369 0.361
##END=
