##TITLE=4-Carbomethoxytetrahydro-3-thiophenone
##JCAMP-DX=4.24
##DATA TYPE=INFRARED SPECTRUM
##ORIGIN=EPA-IR VAPOR PHASE LIBRARY
##OWNER=SRD/NIST
Collection (C) 2018 copyright by the U.S. Secretary of Commerce
on behalf of the United States of America. All rights reserved.
##CAS REGISTRY NO=22097-90-1
##MOLFORM=C 6 H 8 O 3 S
##$NIST SOURCE=MSDC-IR
##STATE=gas
##XUNITS=1/CM
##YUNITS=ABSORBANCE
##XFACTOR=1.
##YFACTOR=0.001
##DELTAX=1.92898
##FIRSTX=549.8
##LASTX=4000.7
##FIRSTY=0.41756
##MAXX=4000.7
##MINX=549.759
##MAXY=0.060384
##MINY=0
##NPOINTS=1790
##XYDATA=(X++(Y..Y))
549.759 0.41756 0.7186 0.8346 0.6639 0.5921 0.41911 0.121 0.34906 0.7568 0.8033
569.049 0.8741 0.874 0.92 1.0618 0.9947 0.8899 0.8968 1.0347 0.8328 0.8226
588.339 1.0312 1.2078 1.354 1.1385 1.0423 0.9661 0.9765 0.9278 0.8088 0.8562
607.628 0.7535 0.7192 0.7571 0.5889 0.768 0.8869 0.6638 0.6986 0.6048 0.5468
626.918 0.6723 0.7036 0.6091 0.6085 0.7162 0.7817 0.8441 0.9883 0.8537 1.0185
646.208 1.21 1.0767 1.1434 1.1368 1.0814 0.951 1.002 1.374 1.424 1.2834
665.498 1.2066 1.2791 1.554 1.464 1.494 1.624 1.3068 1.1751 1.404 1.454
684.787 1.324 1.2806 1.3093 1.2108 1.1903 1.2976 1.434 1.554 1.574 1.684
704.077 1.744 1.764 1.744 1.584 1.604 1.594 1.3101 1.1552 1.2877 1.2279
723.367 1.0392 1.1176 1.3178 1.287 1.0775 0.9598 0.9575 1.0378 1.0351 1.129
742.657 1.0399 0.916 1.0215 1.0157 0.9044 1.0195 1.2543 1.2609 1.1355 1.151
761.947 1.2884 1.3024 1.354 1.2119 1.1684 1.2496 1.324 1.344 1.2221 1.218
781.236 1.1429 1.1636 1.434 1.574 1.474 1.444 1.594 1.614 1.634 1.714
800.526 1.564 1.694 1.974 1.944 2.034 2.254 2.344 2.524 2.574 2.484
819.816 2.624 2.834 2.874 2.804 2.704 2.704 2.784 2.674 2.554 2.514
839.106 2.404 2.274 2.264 2.384 2.364 2.164 1.894 1.844 1.984 2.024
858.395 2.024 2.064 2.134 2.234 2.304 2.184 2.104 2.084 2.014 2.104
877.685 2.234 2.284 2.294 2.494 2.694 2.554 2.394 2.294 2.314 2.434
896.975 2.434 2.204 2.084 2.084 2.024 1.924 1.794 1.634 1.544 1.454
916.265 1.414 1.364 1.454 1.414 1.2235 1.2838 1.384 1.434 1.2475 1.0851
935.555 1.2264 1.2183 1.2235 1.364 1.454 1.394 1.2792 1.444 1.484 1.2992
954.844 1.32 1.534 1.464 1.344 1.414 1.604 1.734 1.814 2.064 2.334
974.134 2.644 2.954 3.334 3.614 3.654 3.684 3.794 4.034 4.444 4.484
993.424 4.624 4.774 4.964 5.424 5.894 6.734 7.564 8.194 8.784 9.294
1012.714 9.704 10.254 10.524 10.524 10.364 10.084 9.684 9.064 8.644 8.104
1032.003 7.544 6.944 6.434 5.904 5.214 4.704 4.304 4.094 4.204 3.954
1051.293 3.504 3.224 2.974 2.784 2.604 2.614 2.404 2.254 2.424 2.514
1070.583 2.164 1.834 1.974 2.004 2.184 2.634 2.934 3.454 3.264 3.084
1089.873 3.554 3.854 4.054 4.554 5.394 5.874 6.104 6.504 7.464 9.124
1109.163 10.344 11.254 12.424 13.434 14.964 17.294 19.804 21.264 22.794 24.584
1128.452 25.874 27.114 28.144 28.864 29.754 30.134 30.204 30.664 31.034 31.154
1147.742 31.364 31.474 31.094 30.704 30.274 29.814 29.034 28.624 28.414 27.644
1167.032 27.014 26.514 25.914 25.214 24.544 23.884 23.194 23.004 22.464 21.864
1186.322 21.544 21.254 21.564 21.794 21.994 22.064 22.334 22.844 23.144 23.324
1205.611 23.374 23.654 24.064 24.624 24.714 24.454 24.534 24.854 25.004 24.974
1224.901 24.794 24.984 25.134 24.844 25.134 25.654 26.164 26.754 27.364 27.914
1244.191 28.334 28.924 29.254 29.144 29.024 28.994 28.894 28.874 28.704 28.434
1263.481 28.824 29.434 29.704 29.904 30.144 30.324 30.314 30.114 29.734 29.074
1282.771 28.234 27.224 25.984 24.554 23.084 21.554 20.044 18.634 17.204 15.774
1302.060 14.554 13.414 12.244 11.204 10.344 9.614 8.994 8.554 8.214 7.954
1321.350 7.844 7.754 7.754 7.814 7.924 8.134 8.364 8.614 8.794 9.074
1340.640 9.404 9.634 9.914 10.244 10.484 10.644 10.814 10.854 10.624 10.244
1359.930 9.674 8.974 8.164 7.304 6.534 5.784 5.074 4.574 4.154 3.764
1379.219 3.494 3.304 3.234 3.174 3.074 3.054 3.124 3.204 3.324 3.434
1398.509 3.614 3.834 4.064 4.394 4.684 4.944 5.214 5.454 5.694 5.924
1417.799 6.184 6.474 6.734 7.134 7.674 8.364 9.284 10.534 11.974 13.214
1437.089 14.094 14.404 14.314 13.724 12.464 10.794 9.014 7.644 6.634 5.954
1456.378 5.464 4.954 4.544 4.234 3.934 3.694 3.614 3.434 3.214 3.064
1475.668 2.904 2.774 2.614 2.494 2.334 2.174 2.084 1.974 1.934 1.884
1494.958 1.784 1.684 1.664 1.694 1.604 1.564 1.494 1.414 1.424 1.374
1514.248 1.3151 1.334 1.374 1.344 1.3082 1.3084 1.404 1.414 1.3123 1.3239
1533.538 1.374 1.344 1.334 1.414 1.384 1.3168 1.354 1.394 1.404 1.454
1552.827 1.514 1.494 1.514 1.544 1.414 1.374 1.454 1.424 1.364 1.374
1572.117 1.334 1.2798 1.2097 1.1208 1.1208 1.1873 1.2321 1.1392 1.0825 1.0918
1591.407 1.0504 1.0674 1.0509 1.0175 1.0148 1.0116 0.936 0.9033 0.9235 0.8586
1610.697 0.883 0.9091 0.8755 0.902 0.9118 0.826 0.7918 0.8559 0.9069 0.8634
1629.986 0.8889 0.8844 0.8778 0.9167 0.9099 0.8949 0.8477 0.8981 1.0387 1.0769
1649.276 1.0261 1.0847 1.1343 1.0634 1.0173 1.0192 1.0268 1.114 1.1704 1.2194
1668.566 1.3015 1.2769 1.3214 1.454 1.534 1.484 1.514 1.724 1.874 1.974
1687.856 2.084 2.184 2.304 2.484 2.694 2.934 3.314 3.484 3.684 4.104
1707.146 4.474 4.934 5.474 6.084 6.734 7.444 8.244 9.144 10.174 11.274
1726.435 12.614 14.164 15.854 17.754 20.074 22.584 25.244 28.404 31.794 35.444
1745.725 39.224 43.204 47.254 51.154 54.624 57.474 59.514 60.384 60.014 58.424
1765.015 55.804 52.264 47.944 43.344 38.694 34.414 30.514 27.074 23.814 20.764
1784.305 18.044 15.624 13.454 11.524 9.954 8.514 7.294 6.294 5.494 4.774
1803.594 4.184 3.784 3.334 2.924 2.644 2.374 2.174 2.004 1.824 1.684
1822.884 1.564 1.444 1.344 1.2742 1.2504 1.2265 1.175 1.1214 1.1069 1.0903
1842.174 1.0563 1.0489 0.9582 0.8852 0.9007 0.9229 0.9546 0.9128 0.8366 0.8079
1861.464 0.8204 0.8461 0.8092 0.8144 0.8497 0.7787 0.7316 0.772 0.7872 0.7053
1880.754 0.6979 0.7483 0.7451 0.6995 0.6559 0.6968 0.6986 0.6753 0.656 0.6276
1900.043 0.5974 0.602 0.6607 0.6965 0.6387 0.6603 0.7351 0.7438 0.7349 0.7533
1919.333 0.7546 0.6862 0.6535 0.6742 0.7033 0.6517 0.606 0.6256 0.6553 0.7466
1938.623 0.7856 0.7456 0.7773 0.7895 0.8039 0.8279 0.8286 0.888 0.9655 0.9776
1957.913 0.9414 0.9262 0.9018 0.8837 0.9231 0.9805 1.0228 0.986 0.9848 0.9698
1977.202 0.9573 0.932 0.8997 0.9248 0.9173 0.9171 0.939 0.9247 0.8788 0.8953
1996.492 0.9452 0.9474 0.91 0.9718 1.0536 1.0059 1.0181 1.0922 1.0728 1.0701
2015.782 1.064 1.0144 1.0057 1.0105 1.0109 1.0168 1.0656 1.1516 1.1225 1.1001
2035.072 1.0905 1.0182 0.9695 0.9215 0.9011 0.9424 0.9652 0.9556 0.9139 0.9237
2054.362 0.869 0.816 0.8524 0.8428 0.7988 0.7721 0.8178 0.852 0.8859 0.8773
2073.651 0.7963 0.7685 0.7737 0.7468 0.7474 0.7695 0.761 0.6807 0.6678 0.7063
2092.941 0.7132 0.7003 0.6773 0.6623 0.6788 0.6712 0.6885 0.6782 0.5864 0.5897
2112.231 0.6536 0.6877 0.6159 0.6303 0.7115 0.71 0.6176 0.5373 0.5568 0.5555
2131.521 0.5548 0.5502 0.5851 0.5915 0.5941 0.6158 0.638 0.6277 0.5528 0.5374
2150.810 0.509 0.4646 0.4821 0.534 0.5848 0.5576 0.5135 0.4906 0.4301 0.4423
2170.100 0.5099 0.5732 0.5817 0.5518 0.5264 0.4798 0.4402 0.39114 0.39345 0.4273
2189.390 0.4655 0.4802 0.39069 0.36806 0.4398 0.4273 0.38376 0.325051 0.2825 0.327448
2208.680 0.3032 0.3114 0.3752 0.34723 0.39646 0.40526 0.38136 0.328302 0.333147 0.41646
2227.970 0.41328 0.41752 0.3699 0.34683 0.36739 0.37124 0.36718 0.33457 0.38787 0.3988
2247.259 0.4301 0.4886 0.39322 0.34734 0.3831 0.40317 0.36314 0.2856 0.2743 0.34624
2266.549 0.36173 0.333418 0.35942 0.41002 0.35236 0.3096 0.4283 0.4543 0.4307 0.4301
2285.839 0.37842 0.35538 0.33584 0.41388 0.4844 0.4391 0.40968 0.3922 0.4471 0.4578
2305.129 0.38454 0.323315 0.34726 0.36411 0.36183 0.41692 0.40631 0.40545 0.4296 0.41751
2324.418 0.37444 0.41464 0.4996 0.4421 0.37878 0.38874 0.4573 0.4751 0.41354 0.4124
2343.708 0.41227 0.39253 0.34461 0.32232 0.35426 0.38111 0.38448 0.40092 0.41405 0.4031
2362.998 0.38331 0.3117 0.2795 0.35101 0.38714 0.333184 0.3463 0.39942 0.41446 0.4517
2382.288 0.39138 0.323519 0.331612 0.326852 0.35046 0.36237 0.35844 0.36 0.33917 0.323428
2401.578 0.31537 0.2945 0.2298 0.2858 0.4481 0.5207 0.471 0.3999 0.41878 0.4636
2420.867 0.479 0.4532 0.39788 0.37647 0.37243 0.37103 0.37243 0.34417 0.2922 0.31921
2440.157 0.2975 0.2963 0.4415 0.3769 0.2991 0.34072 0.33561 0.302 0.2804 0.278
2459.447 0.32214 0.41889 0.41161 0.3094 0.2667 0.32274 0.36636 0.36953 0.2671 0.2379
2478.737 0.299 0.2941 0.330363 0.296 0.2897 0.308 0.2965 0.32449 0.31905 0.2907
2498.026 0.2869 0.31625 0.2695 0.197 0.223 0.2277 0.208 0.2321 0.204 0.2253
2517.316 0.2738 0.3044 0.34382 0.34123 0.33699 0.36824 0.35913 0.2887 0.3106 0.3112
2536.606 0.3043 0.3055 0.34323 0.329837 0.2315 0.212 0.2541 0.3088 0.31661 0.31898
2555.896 0.285 0.3062 0.3138 0.2768 0.3005 0.35008 0.35309 0.329839 0.2731 0.2889
2575.186 0.3471 0.3543 0.35822 0.331673 0.36035 0.38797 0.36867 0.36317 0.3483 0.35303
2594.475 0.35293 0.37528 0.41499 0.34369 0.35165 0.33528 0.2752 0.2844 0.313 0.35417
2613.765 0.2734 0.2301 0.2782 0.3017 0.36656 0.436 0.38822 0.35937 0.40716 0.38173
2633.055 0.32117 0.2907 0.322 0.39887 0.4581 0.45 0.36314 0.34072 0.36809 0.32412
2652.345 0.2939 0.32219 0.41218 0.42017 0.36595 0.332352 0.298 0.31428 0.2985 0.272
2671.634 0.21 0.2452 0.35343 0.2789 0.2541 0.2293 0.153 0.2451 0.39982 0.4517
2690.924 0.34404 0.299 0.3461 0.37334 0.245 0.146 0.2766 0.3045 0.253 0.2547
2710.214 0.2822 0.2665 0.221 0.2775 0.33973 0.39328 0.4759 0.4294 0.31624 0.2257
2729.504 0.2543 0.2273 0.2954 0.39959 0.3093 0.221 0.22 0.2936 0.34169 0.34676
2748.794 0.37687 0.38066 0.33957 0.2791 0.2503 0.3007 0.289 0.36184 0.4102 0.3591
2768.083 0.37564 0.40588 0.35908 0.2916 0.2241 0.203 0.179 0.38052 0.4777 0.4534
2787.373 0.4826 0.37576 0.41873 0.4636 0.4725 0.42109 0.41799 0.42065 0.4617 0.6098
2806.663 0.6161 0.5127 0.5496 0.6643 0.6019 0.5437 0.6014 0.7392 0.9011 1.0754
2825.953 1.0861 1.0359 1.0749 1.1791 1.344 1.504 1.664 1.804 2.044 2.284
2845.242 2.454 2.664 2.784 2.704 2.634 2.654 2.504 2.184 1.914 1.794
2864.532 1.744 1.614 1.464 1.384 1.344 1.414 1.474 1.494 1.494 1.554
2883.822 1.634 1.644 1.794 1.894 1.964 2.164 2.454 2.444 2.384 2.604
2903.112 2.854 3.094 3.214 3.274 3.374 3.504 3.844 4.164 4.394 4.594
2922.401 4.734 4.944 5.124 5.364 5.624 5.864 6.174 6.424 6.704 7.044
2941.691 7.404 7.864 8.424 9.054 9.784 10.774 11.964 13.354 14.544 15.194
2960.981 15.314 14.934 14.164 13.034 11.394 9.604 8.194 7.064 6.204 5.664
2980.271 5.374 5.154 4.784 4.554 4.534 4.494 4.414 4.394 4.464 4.564
2999.561 4.714 4.634 4.454 4.434 4.404 4.224 4.144 4.214 4.044 3.834
3018.850 3.744 3.714 3.634 3.514 3.394 3.244 3.264 3.304 3.044 2.904
3038.140 2.834 2.624 2.404 2.304 2.324 2.184 2.004 1.824 1.694 1.644
3057.430 1.614 1.544 1.374 1.394 1.324 1.3063 1.404 1.241 1.1111 1.1413
3076.720 1.2684 1.2131 1.1823 1.1337 1.1011 1.1041 1.0359 1.1178 1.1009 1.0827
3096.009 1.1002 0.9335 0.9331 1.0319 0.9307 0.9216 1 0.9221 0.7628 0.7264
3115.299 0.8752 0.8426 0.7689 0.7414 0.7157 0.746 0.7192 0.6572 0.592 0.5438
3134.589 0.4408 0.4326 0.5259 0.5703 0.5634 0.509 0.4688 0.463 0.42258 0.36687
3153.879 0.38915 0.38841 0.324374 0.35173 0.4513 0.5616 0.4194 0.2915 0.35427 0.36282
3173.169 0.39566 0.37776 0.31832 0.35234 0.4656 0.5331 0.5658 0.4733 0.36847 0.3124
3192.458 0.3013 0.5083 0.4861 0.2836 0.33915 0.36978 0.35519 0.37657 0.2849 0.202
3211.748 0.2626 0.268 0.183 0.34609 0.4557 0.4799 0.32263 0.05 0.193 0.36662
3231.038 0.36855 0.2427 0.215 0.3029 0.37711 0.3196 0.2245 0.3116 0.2736 0.221
3250.328 0.2443 0.223 0.22 0.2434 0.2255 0.2648 0.2476 0.124 0.09 0.092
3269.617 0.2429 0.153 0.122 0.35317 0.255 0.2 0.222 0.2531 0.2668 0.192
3288.907 0.2704 0.2932 0.221 0.265 0.34399 0.34982 0.38273 0.3138 0.155 0.126
3308.197 0.155 0.122 0.2335 0.36461 0.2347 0.095 0.107 0.3111 0.332525 0.215
3327.487 0.142 0.201 0.34267 0.2876 0.2856 0.2421 0.136 0.144 0.097 0.204
3346.777 0.41776 0.40941 0.33646 0.203 0.185 0.2728 0.3121 0.33625 0.325968 0.2996
3366.066 0.219 0.275 0.33916 0.3045 0.211 0.124 0.3351 0.2932 0.191 0.2867
3385.356 0.135 0.157 0.171 0.2255 0.42096 0.40946 0.37596 0.34172 0.197 0.172
3404.646 0.2947 0.174 0.127 0.148 0 0.095 0.17 0.171 0.203 0.188
3423.936 0.141 0.078 0.2435 0.31628 0.321 0.3016 0.34827 0.5509 0.543 0.333685
3443.225 0.148 0.208 0.205 0.203 0.219 0.207 0.2758 0.2534 0.2474 0.37965
3462.515 0.5205 0.5638 0.5092 0.35597 0.2847 0.36517 0.5157 0.5655 0.5556 0.5868
3481.805 0.6519 0.6064 0.5857 0.6804 0.6572 0.674 0.8003 0.9206 0.8153 0.6845
3501.095 0.6548 0.8022 1.0354 0.8904 0.7717 0.7764 0.7015 0.6595 0.6222 0.6794
3520.385 0.7363 0.7098 0.5368 0.505 0.6026 0.5337 0.5405 0.6154 0.438 0.4183
3539.674 0.5085 0.4478 0.40159 0.31974 0.2898 0.34332 0.34525 0.159 0.171 0.22
3558.964 0.161 0.148 0.188 0.3065 0.36189 0.302 0.183 0.212 0.2726 0.2472
3578.254 0.2766 0.31951 0.2808 0.2287 0.2692 0.36179 0.3143 0.22 0.35891 0.35961
3597.544 0.2362 0.186 0.194 0.195 0.159 0.15 0.2957 0.35499 0.193 0.18
3616.833 0.3056 0.35493 0.213 0.141 0.203 0.4305 0.4609 0.3067 0.189 0.183
3636.123 0.253 0.2468 0.32181 0.22 0.136 0.2391 0.2972 0.346 0.35581 0.4592
3655.413 0.5673 0.4929 0.35766 0.2853 0.2587 0.2919 0.4049 0.216 0.196 0.2801
3674.703 0.202 0.2728 0.40043 0.5095 0.4934 0.4667 0.41951 0.3089 0.221 0.184
3693.993 0.199 0.2441 0.283 0.2356 0.072 0.056 0.14 0.2312 0.325769 0.2423
3713.282 0.2915 0.34558 0.331458 0.3104 0.3005 0.39018 0.32564 0.203 0.151 0.2288
3732.572 0.3091 0.34698 0.36471 0.34309 0.4388 0.42187 0.4695 0.5425 0.39901 0.2768
3751.862 0.2384 0.331389 0.4242 0.4561 0.2605 0.198 0.238 0.196 0.141 0.081
3771.152 0.133 0.125 0.154 0.3002 0.3883 0.2719 0.094 0.109 0.211 0.3072
3790.441 0.325865 0.193 0.123 0.124 0.193 0.2892 0.3046 0.2325 0.171 0.177
3809.731 0.153 0.2271 0.274 0.2248 0.165 0.085 0.202 0.39483 0.4631 0.4407
3829.021 0.4286 0.32179 0.2328 0.327158 0.4303 0.42375 0.2891 0.188 0.3115 0.2812
3848.311 0.068 0.068 0.179 0.2437 0.35006 0.2303 0.071 0.26 0.39618 0.41021
3867.601 0.4663 0.332925 0.2584 0.2408 0.094 0.2392 0.2912 0.177 0.212 0.163
3886.890 0.208 0.32223 0.2653 0.203 0.125 0.181 0.2399 0.2362 0.2877 0.2677
3906.180 0.17 0.162 0.203 0.133 0.331517 0.4396 0.41281 0.4362 0.39702 0.4302
3925.470 0.4374 0.35062 0.2384 0.214 0.2777 0.2821 0.35198 0.39032 0.267 0.11
3944.760 0.16 0.2897 0.2586 0.2824 0.2878 0.33738 0.298 0.174 0.159 0.2709
3964.049 0.31851 0.34424 0.32197 0.305 0.38316 0.332523 0.2827 0.4335 0.4468 0.2914
3983.339 0.21 0.188 0.4254 0.5192 0.4407 0.4477 0.34429 0.199 0.196 0.3031
##END=
