##TITLE=p-Chlorophenyl 2,3-epoxypropyl ether
##JCAMP-DX=4.24
##DATA TYPE=INFRARED SPECTRUM
##ORIGIN=NIST Mass Spectrometry Data Center
##OWNER=NIST Standard Reference Data Program
Collection (C) 2018 copyright by the U.S. Secretary of Commerce
on behalf of the United States of America. All rights reserved.
##CAS REGISTRY NO=2212-05-7
##MOLFORM=C 9 H 9 Cl O 2
##$NIST SOURCE=MSDC-IR
##SPECTROMETER/DATA SYSTEM=HP-GC/MS/IRD
##STATE=gas
##XUNITS=1/CM
##YUNITS=ABSORBANCE
##XFACTOR=1.0
##YFACTOR=0.000019100
##DELTAX=4.0
##FIRSTX=550.0
##LASTX=3846.0
##FIRSTY=0.001853
##MAXX=3846
##MINX=550
##MAXY=0.191
##MINY=0
##NPOINTS=825
##XYDATA=(X++(Y..Y))
550.0 97 118 64 61 34 17 11 7 2 3
590.0 8 16 24 31 46 70 104 161 256 400
630.0 569 720 784 752 673 624 644 718 788 777
670.0 654 476 344 284 248 206 153 103 73 59
710.0 49 41 41 39 35 38 44 52 64 81
750.0 104 131 169 224 290 362 426 466 482 491
790.0 519 585 683 819 1009 1270 1593 1938 2259 2444
830.0 2442 2327 2144 1937 1737 1536 1317 1084 863 671
870.0 523 421 357 318 299 306 340 394 466 554
910.0 635 671 647 578 493 423 373 338 319 319
950.0 337 376 436 499 535 534 508 480 472 492
990.0 554 672 899 1304 1691 1876 1889 1889 2111 2446
1030.0 2704 2773 2604 2236 1770 1320 967 745 650 644
1070.0 705 813 958 1178 1575 2127 2537 2500 1995 1378
1110.0 980 773 655 582 538 500 454 401 365 374
1150.0 434 544 766 1142 1472 1516 1241 847 625 592
1190.0 657 805 1057 1438 1971 2687 3626 4768 5915 6794
1230.0 7288 7468 7328 6680 5496 4194 3298 2873 2726 2727
1270.0 2789 2861 2870 2733 2437 2062 1714 1415 1147 906
1310.0 712 573 482 428 395 377 378 396 428 461
1350.0 485 494 475 423 353 305 288 284 282 285
1390.0 292 298 305 314 336 369 400 421 426 420
1430.0 412 420 456 529 646 816 1010 1198 1362 1569
1470.0 1900 2494 3578 5493 8090 10000 9709 7256 4241 2264
1510.0 1342 937 721 593 503 439 394 360 333 310
1550.0 297 299 312 340 393 490 639 833 1028 1189
1590.0 1278 1272 1156 936 678 464 328 251 209 182
1630.0 162 147 132 119 104 93 79 68 60 54
1670.0 46 42 39 39 37 36 37 38 39 41
1710.0 44 46 48 50 58 67 78 85 87 81
1750.0 67 51 40 32 27 24 21 19 18 17
1790.0 16 20 23 25 27 29 27 27 31 36
1830.0 41 50 59 67 75 85 97 110 122 131
1870.0 135 131 120 104 88 75 64 53 45 37
1910.0 31 29 28 28 29 28 27 27 26 25
1950.0 23 22 23 25 26 26 25 28 29 32
1990.0 34 37 40 44 49 55 64 70 77 81
2030.0 85 89 92 94 95 96 96 95 95 94
2070.0 91 86 80 72 63 56 51 46 42 39
2110.0 36 32 28 22 17 14 12 11 9 7
2150.0 6 6 5 4 3 2 2 3 2 1
2190.0 3 4 5 7 9 11 13 14 14 17
2230.0 21 24 27 31 36 43 47 52 54 52
2270.0 51 52 54 57 55 50 46 40 34 32
2310.0 29 27 26 26 23 20 19 15 12 11
2350.0 10 8 9 10 12 15 18 23 27 30
2390.0 33 35 36 35 33 31 30 29 30 29
2430.0 29 30 29 30 30 29 30 31 33 34
2470.0 33 32 32 32 32 34 37 40 45 48
2510.0 49 49 48 46 44 39 35 31 28 25
2550.0 23 21 18 19 21 21 20 18 19 18
2590.0 15 13 13 13 13 12 10 10 8 6
2630.0 4 3 2 3 5 6 6 5 6 8
2670.0 8 7 9 12 14 14 15 18 18 18
2710.0 19 21 23 26 28 32 36 37 39 41
2750.0 43 46 45 44 43 42 44 44 45 48
2790.0 52 59 64 71 79 88 99 109 117 124
2830.0 130 136 139 141 150 166 189 216 253 303
2870.0 356 407 450 481 497 494 487 484 488 510
2910.0 549 605 678 768 865 948 983 960 890 806
2950.0 736 689 659 642 645 662 687 719 742 762
2990.0 787 827 881 938 964 936 856 747 643 568
3030.0 533 546 601 690 813 934 990 950 836 710
3070.0 600 506 423 362 330 317 315 309 291 252
3110.0 200 147 103 72 51 40 34 27 22 22
3150.0 22 20 19 17 15 13 11 10 10 8
3190.0 6 5 5 6 6 4 3 3 5 3
3230.0 0 2 2 5 5 2 2 0 1 4
3270.0 1 0 1 4 4 3 3 7 6 2
3310.0 3 4 2 3 3 2 3 4 3 3
3350.0 2 0 1 2 5 5 3 5 6 5
3390.0 3 0 2 3 3 4 3 4 4 1
3430.0 2 2 0 0 1 0 0 1 2 3
3470.0 3 1 2 2 3 5 5 2 0 3
3510.0 2 1 3 4 3 1 1 4 3 3
3550.0 3 6 7 3 4 4 3 3 3 4
3590.0 4 3 1 4 7 6 7 8 7 8
3630.0 9 9 8 6 7 8 9 12 13 15
3670.0 15 13 16 18 18 17 15 16 16 16
3710.0 19 19 20 25 25 24 24 19 18 20
3750.0 21 22 22 23 25 24 23 23 23 27
3790.0 27 23 22 22 23 24 26 26 24 27
3830.0 30 29 28 29 28
##END=
