##TITLE=2,4,6-Tribromophenyl isothiocyanate
##JCAMP-DX=4.24
##DATA TYPE=INFRARED SPECTRUM
##ORIGIN=EPA-IR VAPOR PHASE LIBRARY
##OWNER=SRD/NIST
Collection (C) 2018 copyright by the U.S. Secretary of Commerce
on behalf of the United States of America. All rights reserved.
##CAS REGISTRY NO=22134-11-8
##MOLFORM=C7 H2 Br3 N S
##$NIST SOURCE=MSDC-IR
##STATE=gas
##XUNITS=1/CM
##YUNITS=ABSORBANCE
##XFACTOR=1.
##YFACTOR=0.001
##DELTAX=1.92898
##FIRSTX=549.8
##LASTX=4000.7
##FIRSTY=3.946
##MAXX=4000.7
##MINX=549.759
##MAXY=0.410396
##MINY=0
##NPOINTS=1790
##XYDATA=(X++(Y..Y))
549.759 3.946 3.966 3.506 3.176 2.966 2.526 1.996 1.686 1.676 1.646
569.049 1.736 1.686 1.746 2.036 2.216 2.476 2.686 2.886 2.996 3.196
588.339 3.106 2.806 2.436 2.176 1.986 1.796 1.616 1.646 1.736 1.4711
607.628 1.3745 1.3076 1.2521 1.2258 1.278 1.4375 1.2755 1.0717 0.9068 0.8765
626.918 0.9729 0.8453 0.8055 0.7889 0.63686 0.6817 0.8235 0.61903 0.6292 0.60889
646.208 0.57512 0.7968 0.8257 0.969 1.0212 1.0196 1.1447 1.3973 1.4925 1.556
665.498 1.716 1.936 2.266 2.596 3.196 3.646 3.806 3.786 3.446 2.986
684.787 2.856 2.816 3.156 4.186 5.256 6.736 8.606 10.156 11.046 10.166
704.077 7.966 6.306 5.076 3.966 3.706 4.076 4.376 4.976 5.996 6.836
723.367 7.436 8.136 9.006 10.146 12.136 15.056 19.116 24.396 30.126 35.296
742.657 38.816 39.296 36.336 30.626 23.626 17.506 13.486 10.866 9.056 8.146
761.947 7.566 7.316 7.046 6.476 6.056 5.516 4.546 3.706 3.106 2.626
781.236 2.276 2.056 1.946 1.976 1.876 1.586 1.4881 1.2725 0.977 0.9444
800.526 0.8903 0.7333 0.8627 1.0177 0.975 0.7851 0.776 0.8891 0.8154 0.9009
819.816 0.964 0.8222 0.8442 0.8026 0.8319 0.9982 1.0501 1.1225 1.2221 1.3703
839.106 1.3664 1.2864 1.4492 2.106 3.136 4.836 7.496 11.276 15.826 20.046
858.395 23.516 25.246 22.606 17.186 13.016 9.816 7.446 6.346 6.286 6.506
877.685 6.476 6.656 6.476 5.946 5.736 5.446 5.096 4.816 4.486 4.216
896.975 4.106 4.036 3.936 3.826 3.886 4.196 4.546 4.746 5.126 5.666
916.265 6.036 6.466 7.026 7.896 9.106 10.686 12.896 15.786 19.696 24.876
935.555 30.996 37.486 43.296 47.186 48.276 46.326 41.936 36.046 29.876 24.166
954.844 19.176 15.246 12.226 9.946 8.066 6.746 5.846 5.146 4.526 3.876
974.134 3.496 3.296 3.166 3.146 2.976 2.806 2.856 2.916 2.896 2.846
993.424 2.816 2.726 2.476 2.266 2.116 1.856 1.556 1.3889 1.3354 1.2272
1012.714 1.1307 1.0857 1.0503 0.9664 1.1526 1.3697 1.2463 1.0708 1.2529 1.3911
1032.003 1.2975 1.4692 1.696 1.5241 1.2734 1.2915 1.2416 1.3422 1.4426 1.3297
1051.293 1.2639 1.2536 1.1514 1.197 1.5281 2.206 2.966 3.546 4.376 5.446
1070.583 6.526 7.256 7.276 7.026 6.726 5.996 5.956 6.046 6.046 7.106
1089.873 7.876 8.176 8.576 8.306 7.096 6.036 5.366 4.516 4.406 4.286
1109.163 4.106 4.896 5.956 7.066 8.416 9.786 10.316 10.136 9.146 7.476
1128.452 5.686 3.896 2.416 1.4442 0.9761 1.0172 1.1908 0.9847 0.4648 0.152
1147.742 0.398 0.7331 0.8422 0.7903 0.7208 0.8944 1.0375 1.0326 1.3203 1.2066
1167.032 1.1692 1.726 2.056 2.436 3.296 4.036 4.466 4.976 5.356 5.166
1186.322 4.706 4.296 3.856 3.666 3.426 3.046 2.826 2.446 1.946 1.816
1205.611 2.136 2.226 2.376 2.496 1.956 1.676 1.2291 0.8586 1.052 1.1259
1224.901 0.9272 0.9612 1.2266 1.2908 1.192 1.0315 1.2728 1.636 1.706 1.616
1244.191 1.5432 1.4874 1.4649 1.3493 1.2182 1.2003 1.1922 1.1233 1.0276 1.1059
1263.481 1.0576 0.8424 0.6968 0.64162 0.5302 0.371 0.351 0.306 0.291 0.423
1282.771 0.381 0.252 0.248 0.414 0.5236 0.5263 0.53937 0.59142 0.64382 0.6475
1302.060 0.7458 0.7878 0.8275 0.9726 1.0974 1.1 1.1769 1.3262 1.3077 1.286
1321.350 1.298 1.3308 1.4461 1.556 1.646 1.796 2.006 2.276 2.676 3.156
1340.640 3.856 4.756 5.796 7.016 8.216 9.236 10.026 10.476 10.856 11.486
1359.930 12.676 14.786 18.036 22.216 26.406 29.276 29.606 27.356 23.336 18.156
1379.219 13.016 9.416 7.546 6.836 6.846 7.286 7.936 8.866 10.266 11.926
1398.509 13.656 15.366 16.976 18.366 19.396 19.976 19.866 19.176 18.096 17.016
1417.799 16.406 16.546 17.676 19.896 23.446 28.636 36.086 45.926 58.316 72.346
1437.089 86.986 98.516 103.336 99.576 87.216 68.726 48.046 30.286 17.816 10.656
1456.378 7.036 5.086 4.076 3.516 3.116 2.816 2.676 2.676 2.666 2.576
1475.668 2.566 2.556 2.546 2.656 2.796 2.926 3.046 3.136 3.286 3.456
1494.958 3.596 3.806 4.146 4.426 4.766 5.196 5.696 6.186 6.576 7.036
1514.248 7.696 8.626 9.856 11.456 13.636 16.336 19.736 23.506 27.226 30.076
1533.538 31.346 30.516 27.526 22.806 17.486 12.936 9.986 8.736 8.566 8.926
1552.827 9.466 9.946 10.146 10.006 9.366 8.486 7.556 6.456 5.346 4.426
1572.117 3.666 3.166 2.846 2.496 2.296 2.186 2.126 1.976 1.786 1.656
1591.407 1.5054 1.4001 1.2646 1.1564 1.0921 1.036 1.0062 0.9422 0.8534 0.8109
1610.697 0.7953 0.7929 0.8116 0.7515 0.7072 0.6987 0.7258 0.6879 0.6544 0.671
1629.986 0.63488 0.6539 0.7598 0.8677 0.8519 0.7867 0.7036 0.6905 0.7261 0.7429
1649.276 0.7151 0.7762 0.785 0.6956 0.6916 0.6996 0.7668 0.8357 0.8011 0.7242
1668.566 0.7433 0.7872 0.8 0.7953 0.7848 0.8275 0.8557 0.8233 0.8864 0.9399
1687.856 0.8608 0.8371 0.8824 0.9302 0.9658 0.993 1.1505 1.1612 1.1092 1.2348
1707.146 1.3426 1.4658 1.636 1.866 2.126 2.446 2.776 3.116 3.556 3.966
1726.435 4.186 4.296 4.156 3.816 3.436 3.026 2.676 2.446 2.276 2.206
1745.725 2.276 2.276 2.246 2.166 2.076 1.996 1.866 1.806 1.726 1.666
1765.015 1.746 1.776 1.776 1.816 1.866 1.826 1.756 1.776 1.796 1.806
1784.305 1.876 1.876 1.766 1.746 1.836 1.806 1.766 1.776 1.776 1.796
1803.594 1.806 1.816 1.866 1.966 1.966 1.966 2.076 2.146 2.226 2.316
1822.884 2.386 2.466 2.566 2.626 2.666 2.816 2.906 3.026 3.136 3.226
1842.174 3.386 3.466 3.516 3.616 3.766 3.966 4.116 4.276 4.436 4.536
1861.464 4.696 4.866 5.026 5.126 5.226 5.396 5.586 5.846 6.086 6.196
1880.754 6.356 6.516 6.536 6.496 6.476 6.516 6.516 6.476 6.406 6.366
1900.043 6.376 6.356 6.436 6.586 6.676 6.826 7.016 7.216 7.436 7.806
1919.333 8.136 8.486 8.996 9.506 10.026 10.686 11.376 11.996 12.706 13.506
1938.623 14.316 15.186 16.156 17.136 18.226 19.446 20.716 22.066 23.536 25.196
1957.913 27.076 29.086 31.216 33.496 35.956 38.626 41.426 44.456 47.606 50.896
1977.202 54.346 57.986 61.876 65.886 70.116 74.636 79.356 84.406 89.946 95.846
1996.492 102.156 109.006 116.316 124.136 132.466 141.116 149.926 158.756 167.386 175.606
2015.782 183.506 191.216 198.856 206.796 215.276 224.426 234.186 244.616 255.646 267.326
2035.072 279.676 292.946 306.946 321.466 336.796 352.466 367.796 382.436 395.366 405.086
2054.362 410.396 409.816 402.286 387.816 367.366 342.586 315.546 288.256 262.136 238.136
2073.651 216.656 198.176 182.766 170.236 160.546 153.626 149.366 147.416 147.546 149.426
2092.941 152.756 157.216 162.366 167.666 172.676 177.036 180.466 182.496 182.666 180.976
2112.231 177.216 171.246 163.326 153.646 142.566 130.506 118.006 105.756 94.166 83.596
2131.521 74.336 66.586 60.436 55.616 51.786 48.826 46.446 44.446 42.736 41.136
2150.810 39.516 37.896 36.286 34.596 32.866 31.136 29.366 27.616 25.966 24.416
2170.100 23.066 21.846 20.786 19.866 19.056 18.346 17.686 16.996 16.406 15.946
2189.390 15.436 15.026 14.716 14.496 14.426 14.506 14.716 15.176 15.686 16.276
2208.680 16.816 17.146 17.306 17.086 16.496 15.476 14.186 12.616 10.956 9.506
2227.970 8.166 7.096 6.296 5.666 5.256 4.966 4.706 4.536 4.346 4.176
2247.259 4.136 4.016 3.926 3.886 3.836 3.726 3.616 3.476 3.396 3.496
2266.549 3.446 3.306 3.186 3.176 3.246 3.196 3.106 3.076 3.126 3.116
2285.839 2.986 2.966 2.996 3.076 3.196 3.186 3.166 3.176 3.186 3.306
2305.129 3.466 3.536 3.586 3.656 3.746 3.886 4.036 4.246 4.406 4.546
2324.418 4.746 4.946 5.086 5.236 5.386 5.416 5.436 5.456 5.396 5.266
2343.708 5.126 4.936 4.666 4.376 4.066 3.726 3.426 3.266 3.266 3.226
2362.998 3.056 2.996 2.986 3.006 2.986 2.976 3.006 3.006 3.026 3.076
2382.288 3.106 2.956 2.766 2.636 2.486 2.336 2.166 2.046 1.926 1.726
2401.578 1.606 1.5037 1.4081 1.3995 1.3901 1.3248 1.2757 1.2299 1.2539 1.2777
2420.867 1.2044 1.2456 1.3558 1.3785 1.3563 1.3066 1.2212 1.1879 1.2847 1.3421
2440.157 1.314 1.2494 1.2592 1.2964 1.325 1.459 1.4735 1.4118 1.4474 1.489
2459.447 1.4815 1.5099 1.616 1.676 1.656 1.676 1.806 1.916 1.956 1.886
2478.737 1.896 1.976 2.016 1.956 1.916 2.036 2.146 2.186 2.156 2.216
2498.026 2.336 2.346 2.396 2.496 2.546 2.646 2.716 2.746 2.826 2.826
2517.316 2.836 2.926 2.956 3.006 3.076 3.126 3.196 3.356 3.546 3.686
2536.606 3.826 3.906 3.786 3.666 3.606 3.476 3.266 3.006 2.766 2.706
2555.896 2.656 2.486 2.536 2.546 2.496 2.636 2.676 2.736 2.846 2.876
2575.186 2.916 2.916 3.016 3.086 3.066 3.026 3.026 3.106 3.146 3.106
2594.475 3.146 3.226 3.356 3.546 3.626 3.776 3.966 4.106 4.296 4.466
2613.765 4.706 5.016 5.246 5.426 5.746 6.146 6.476 6.806 7.126 7.496
2633.055 7.756 7.786 7.856 7.926 7.916 7.796 7.696 7.546 7.196 6.776
2652.345 6.286 5.756 5.246 4.776 4.286 3.816 3.346 2.926 2.696 2.536
2671.634 2.346 2.146 1.976 1.916 1.786 1.716 1.706 1.5348 1.4933 1.556
2690.924 1.5243 1.5388 1.596 1.5418 1.5076 1.4984 1.4859 1.5057 1.4988 1.5457
2710.214 1.5188 1.4188 1.3784 1.2871 1.2041 1.2578 1.3153 1.2311 1.1015 1.0645
2729.504 1.1582 1.2412 1.3217 1.2965 1.1935 1.3097 1.3729 1.2527 1.2443 1.2618
2748.794 1.2823 1.3598 1.43 1.4833 1.4969 1.5098 1.586 1.696 1.746 1.796
2768.083 1.806 1.706 1.606 1.5429 1.4848 1.493 1.4536 1.4202 1.4545 1.435
2787.373 1.3252 1.4225 1.646 1.606 1.626 1.766 1.826 1.816 1.796 1.856
2806.663 1.926 1.996 2.086 2.176 2.206 2.096 2.076 2.136 2.156 2.166
2825.953 2.226 2.086 1.886 1.866 1.746 1.756 1.676 1.4336 1.2761 1.2798
2845.242 1.206 1.0649 1.0786 1.0297 1.1296 1.1971 1.1111 0.9537 0.8497 0.9785
2864.532 0.9721 1.0227 1.0199 0.871 0.9634 1.0361 1.1348 1.2626 1.2507 1.1296
2883.822 1.0211 1.0032 0.9808 0.9255 0.9248 0.9401 0.9297 0.9621 0.9811 1.0332
2903.112 1.022 0.8915 0.8938 0.9547 1.0235 1.0796 1.1 1.1638 1.1634 1.1171
2922.401 1.0013 1.0113 1.1292 1.0961 1.0315 1.1019 1.1591 1.2127 1.2654 1.2326
2941.691 1.2791 1.204 1.1509 1.2012 1.3438 1.3995 1.3627 1.4368 1.4767 1.4871
2960.981 1.486 1.576 1.546 1.5437 1.656 1.766 1.776 1.656 1.596 1.586
2980.271 1.756 1.866 1.816 1.906 1.966 1.976 1.986 1.976 2.026 2.106
2999.561 2.116 2.196 2.196 2.036 1.736 1.606 1.616 1.4747 1.3468 1.2336
3018.850 1.1783 1.0983 1.1921 1.1375 0.9557 1.0026 1.004 0.8975 0.8167 0.9766
3038.140 1.038 1.0028 0.9822 0.893 0.9525 0.9822 0.9587 0.9797 1.1675 1.3097
3057.430 1.0593 0.8666 0.8984 0.9637 0.9153 0.8415 0.9174 1.0452 1.1307 1.1474
3076.720 1.118 1.1982 1.3396 1.4488 1.3947 1.1367 1.0103 1.1258 1.3454 1.409
3096.009 1.4674 1.5294 1.606 1.716 1.716 1.646 1.4414 1.2592 1.1026 0.8888
3115.299 0.7464 0.6109 0.58888 0.62737 0.58031 0.5213 0.55642 0.57868 0.424 0.392
3134.589 0.432 0.445 0.54 0.5133 0.4579 0.4998 0.60515 0.64117 0.6027 0.5207
3153.879 0.357 0.357 0.387 0.296 0.242 0.373 0.419 0.242 0.147 0.21
3173.169 0.46 0.488 0.336 0.251 0.172 0.289 0.441 0.395 0.234 0.238
3192.458 0.256 0.195 0.146 0.15 0.195 0.09 0.077 0.252 0.306 0.328
3211.748 0.114 0 0.125 0.235 0.254 0.181 0.213 0.128 0.044 0.061
3231.038 0.237 0.387 0.27 0.265 0.389 0.255 0.096 0.199 0.375 0.438
3250.328 0.351 0.231 0.282 0.307 0.212 0.211 0.345 0.335 0.214 0.234
3269.617 0.225 0.259 0.298 0.324 0.247 0.201 0.333 0.27 0.189 0.337
3288.907 0.251 0.181 0.289 0.278 0.268 0.083 0.07 0.386 0.402 0.295
3308.197 0.333 0.353 0.284 0.33 0.408 0.298 0.267 0.269 0.285 0.343
3327.487 0.249 0.237 0.431 0.4672 0.4879 0.4647 0.418 0.4 0.398 0.308
3346.777 0.33 0.441 0.276 0.241 0.328 0.322 0.33 0.333 0.282 0.273
3366.066 0.39 0.5346 0.443 0.257 0.246 0.319 0.379 0.391 0.288 0.176
3385.356 0.258 0.374 0.298 0.354 0.4677 0.404 0.44 0.53711 0.53867 0.399
3404.646 0.275 0.257 0.346 0.367 0.346 0.5041 0.55658 0.5039 0.33 0.334
3423.936 0.424 0.286 0.361 0.427 0.292 0.398 0.316 0.103 0.148 0.196
3443.225 0.23 0.334 0.372 0.339 0.409 0.373 0.34 0.443 0.59796 0.5112
3462.515 0.48 0.551744 0.438 0.402 0.403 0.4576 0.58083 0.7273 0.7391 0.58034
3481.805 0.376 0.292 0.325 0.4851 0.5351 0.4849 0.54274 0.5137 0.432 0.4732
3501.095 0.58062 0.551094 0.434 0.254 0.227 0.22 0.314 0.392 0.308 0.277
3520.385 0.218 0.371 0.4527 0.268 0.399 0.407 0.317 0.4568 0.56055 0.6478
3539.674 0.54153 0.4658 0.422 0.391 0.4683 0.505 0.417 0.431 0.434 0.315
3558.964 0.248 0.422 0.59551 0.5237 0.5082 0.5204 0.4589 0.357 0.419 0.4817
3578.254 0.5193 0.4946 0.44 0.4856 0.5116 0.5082 0.4605 0.5192 0.5233 0.54329
3597.544 0.5071 0.277 0.385 0.59958 0.4994 0.383 0.43 0.42 0.412 0.422
3616.833 0.336 0.31 0.4775 0.549701 0.4512 0.4798 0.63735 0.62524 0.484 0.5169
3636.123 0.4902 0.4751 0.5096 0.4656 0.417 0.406 0.4498 0.435 0.555044 0.513
3655.413 0.296 0.429 0.414 0.286 0.23 0.269 0.432 0.527 0.469 0.315
3674.703 0.315 0.408 0.43 0.395 0.4917 0.57338 0.5354 0.392 0.335 0.5116
3693.993 0.4816 0.437 0.416 0.516 0.549281 0.364 0.418 0.63431 0.7012 0.5279
3713.282 0.4676 0.57959 0.63063 0.4671 0.401 0.550407 0.5208 0.443 0.4902 0.551704
3732.572 0.5186 0.465 0.407 0.358 0.363 0.34 0.389 0.548817 0.62658 0.4979
3751.862 0.63118 0.7363 0.550482 0.59453 0.527 0.368 0.391 0.428 0.5337 0.61297
3771.152 0.433 0.444 0.4876 0.217 0.232 0.522 0.5041 0.334 0.4487 0.550076
3790.441 0.62209 0.5246 0.278 0.283 0.409 0.4715 0.55671 0.6483 0.7003 0.62359
3809.731 0.5003 0.5169 0.6077 0.7128 0.7133 0.63584 0.6836 0.6678 0.60266 0.6596
3829.021 0.7012 0.6799 0.6652 0.7295 0.6963 0.7598 0.7573 0.5238 0.63259 0.7505
3848.311 0.7112 0.7594 1.0361 1.0528 0.7935 0.7359 0.7514 0.57267 0.4971 0.56124
3867.601 0.7273 0.9777 0.7995 0.8202 0.8912 0.7712 0.547351 0.356 0.4669 0.6039
3886.890 0.7063 0.7642 0.686 0.62142 0.7163 0.7703 0.8314 0.7244 0.6498 0.5899
3906.180 0.5419 0.6579 0.7561 0.6822 0.546225 0.5235 0.56422 0.7375 0.7766 0.7619
3925.470 0.6968 0.64034 0.7082 0.8515 0.9038 0.8491 0.8086 1.0004 0.9575 0.8996
3944.760 1.0682 1.0186 1.076 1.09 1.052 1.049 1.0659 1.0423 0.9847 1.0489
3964.049 1.1535 1.147 1.0286 1.043 1.1312 1.0478 1.0366 1.1395 1.147 1.2132
3983.339 1.2016 1.1274 1.2019 1.2307 1.3221 1.2964 1.2752 1.3785 1.3297 1.3758
##END=
