##TITLE=Methyl 3-chloro-4-methylcarbanilate
##JCAMP-DX=4.24
##DATA TYPE=INFRARED SPECTRUM
##ORIGIN=EPA-IR VAPOR PHASE LIBRARY
##OWNER=SRD/NIST
Collection (C) 2018 copyright by the U.S. Secretary of Commerce
on behalf of the United States of America. All rights reserved.
##CAS REGISTRY NO=22133-20-6
##MOLFORM=C 9 H 10 Cl N O 2
##$NIST SOURCE=MSDC-IR
##STATE=gas
##XUNITS=1/CM
##YUNITS=ABSORBANCE
##XFACTOR=1.
##YFACTOR=0.001
##DELTAX=1.92898
##FIRSTX=549.8
##LASTX=4000.7
##FIRSTY=3.86
##MAXX=4000.7
##MINX=549.759
##MAXY=0.11067
##MINY=0
##NPOINTS=1790
##XYDATA=(X++(Y..Y))
549.759 3.86 3.59 3.53 3.26 2.88 2.89 2.95 3.08 3.33 3.6
569.049 3.6 3.59 3.85 3.8 3.76 3.53 3.26 3.25 2.87 2.45
588.339 2.18 1.91 1.55 1.43 1.75 1.77 1.77 1.74 1.48 1.46
607.628 1.59 1.66 1.57 1.36 1.25 1.0776 0.8544 0.7283 0.8892 1.1089
626.918 0.9862 0.8614 0.8902 1.1095 1.0536 0.9124 0.8279 0.6818 0.7494 0.7668
646.208 0.8353 0.6731 0.6206 0.743 0.7549 0.8179 0.7735 0.9047 0.9308 0.8739
665.498 0.9314 0.9807 1.1831 1.45 1.64 1.7 2 2.52 3.01 3.86
684.787 4.65 5.21 5.83 6.21 6.13 5.75 5.23 4.68 4.14 3.65
704.077 3.21 2.89 2.64 2.5 2.31 2.24 2.29 2.06 2.02 2.08
723.367 2.19 2.3 2.29 2.36 2.36 2.51 2.67 2.61 2.83 3.03
742.657 2.88 2.61 2.52 2.66 2.7 2.75 2.88 3.18 3.49 3.82
761.947 4.26 4.7 5.31 5.95 6.34 6.13 5.72 5.48 5.23 4.81
781.236 4.55 4.35 4.27 4.5 4.6 4.77 5.42 6 6.19 6.6
800.526 6.71 6.51 6.7 6.6 6.24 6.03 5.94 5.8 5.53 5.14
819.816 4.75 4.58 4.26 3.82 3.5 3.29 3 2.65 2.83 2.97
839.106 3.17 3.4 3.6 4.11 4.34 4.47 4.73 4.73 4.64 4.57
858.395 4.69 4.78 4.68 4.87 5.09 5.25 5.47 5.83 6.13 6.14
877.685 6.16 5.99 5.82 5.77 5.8 5.67 5.7 6.1 6.41 6.82
896.975 7.13 7.2 7.23 7.32 7.39 7.3 7.1 6.94 6.59 5.96
916.265 5.36 4.86 4.22 3.81 3.79 3.77 3.69 3.67 3.7 3.86
935.555 4.3 4.7 4.95 5.39 5.88 6.29 6.61 6.73 6.75 6.81
954.844 6.64 6.11 5.43 4.83 4.31 3.85 3.42 3.18 2.94 2.67
974.134 2.63 2.68 2.62 2.39 2.36 2.52 2.76 2.8 3.04 3.38
993.424 3.54 3.85 3.94 3.86 3.81 3.6 3.35 3.06 2.87 2.83
1012.714 2.57 2.53 2.51 2.4 2.51 2.51 2.52 2.88 3.31 3.55
1032.003 3.84 4.03 4.52 5.59 7.17 9.2 11.35 13.15 14.93 16.37
1051.293 17.4 18.4 19.12 19.17 18.95 19.71 20.74 22.18 24.41 26.45
1070.583 27.53 27.65 26.98 25.5 23.36 20.93 17.75 14.75 12.73 11.12
1089.873 9.67 8.19 6.78 5.79 5.59 5.31 4.91 4.4 3.95 3.64
1109.163 3.7 3.79 3.52 3.65 3.78 3.72 3.64 3.73 3.79 3.62
1128.452 3.66 3.65 3.7 4.04 4.2 4.37 4.64 5.05 5.5 5.9
1147.742 6.44 7.1 7.31 7.39 8 8.18 8.28 8.87 9.28 9.8
1167.032 10.76 11.61 12.6 14.36 16.44 18.73 22.12 26.28 30.94 37.19
1186.322 45.41 55.47 67.28 79.83 91.98 101.87 108.12 110.67 109.74 105.69
1205.611 99.47 93.47 88.35 83.45 77.67 70.72 62.47 52.82 43.17 34.8
1224.901 28.39 24.29 21.79 20.3 19.75 19.47 19.25 19.47 19.66 19.66
1244.191 19.36 18.25 16.86 15.54 14.14 13.01 12.33 12.27 12.83 13.69
1263.481 14.73 16.2 17.79 18.88 19.48 19.62 19.22 18.22 16.99 16.07
1282.771 15.63 15.63 16.14 16.77 17.47 18.15 18.59 18.73 18.51 18.01
1302.060 17.43 17 16.81 16.86 17.07 17.41 17.89 18.41 18.82 19.19
1321.350 19.47 19.57 19.62 19.57 19.29 18.85 18.27 17.45 16.41 15.3
1340.640 14.06 12.84 11.81 10.81 9.92 9.18 8.6 8.21 7.94 7.85
1359.930 8.04 8.36 8.86 9.67 10.78 12.2 13.79 15.54 17.32 18.79
1379.219 19.85 20.45 20.6 20.52 20.45 20.48 20.5 20.36 19.98 19.16
1398.509 17.82 15.99 13.76 11.54 9.82 8.54 7.65 7.11 6.77 6.61
1417.799 6.54 6.5 6.62 6.93 7.28 7.75 8.45 9.24 10.23 11.37
1437.089 12.62 13.99 15.36 16.57 17.59 18.33 18.67 18.56 18.22 17.83
1456.378 17.45 17.24 17.18 17.24 17.45 17.76 18.26 18.92 19.66 20.58
1475.668 21.66 22.93 24.42 26.17 28.28 30.75 33.7 37.36 42.1 47.8
1494.958 54.4 61.98 69.83 77.33 83.74 88.45 91.47 92.72 92.22 90.28
1514.248 86.98 82.55 77.26 71.42 64.72 58 51.16 44.61 38.63 33.33
1533.538 28.79 24.89 21.79 19.2 17.12 15.5 14.27 13.34 12.7 12.31
1552.827 12.06 12.04 12.22 12.45 12.9 13.6 14.55 15.77 17.13 18.78
1572.117 20.62 22.18 23.42 24.43 24.78 24.57 23.76 22.43 20.94 19.35
1591.407 17.88 16.7 15.94 15.76 16.08 17 18.56 20.35 22.21 23.82
1610.697 24.72 24.64 23.44 21.17 18.34 15.3 12.31 9.82 8.02 6.71
1629.986 5.75 5.12 4.62 4.24 3.97 3.74 3.54 3.38 3.3 3.2
1649.276 3.06 2.99 2.89 2.81 2.81 2.97 3.05 3.03 3.07 3.04
1668.566 3.03 3.06 3.1 3.08 3.07 3.15 3.16 3.16 3.15 3.23
1687.856 3.29 3.25 3.31 3.41 3.49 3.6 3.74 3.91 4.02 4.2
1707.146 4.47 4.76 5.14 5.49 5.85 6.21 6.6 6.97 7.32 7.76
1726.435 8.38 9.13 9.96 10.94 12.2 13.59 15.21 17.11 19.3 22.1
1745.725 25.61 30.16 35.95 43.01 50.52 57.67 64.26 70 74.74 77.71
1765.015 77.78 74.77 70.18 65.9 61.26 54.7 46.02 37.26 29.92 24.19
1784.305 20.03 16.98 14.91 13.43 12.29 11.43 10.7 9.86 8.82 7.79
1803.594 6.95 6.25 5.6 5.04 4.66 4.36 4.17 4 3.84 3.72
1822.884 3.59 3.47 3.29 3.06 2.88 2.73 2.57 2.44 2.32 2.19
1842.174 2.15 2.09 2.03 2.03 2.03 2.01 1.97 1.95 1.89 1.87
1861.464 1.85 1.88 1.87 1.82 1.76 1.67 1.63 1.64 1.63 1.61
1880.754 1.6 1.56 1.56 1.56 1.52 1.51 1.51 1.5 1.44 1.37
1900.043 1.33 1.26 1.21 1.1822 1.1316 1.097 1.1066 1.1026 1.1509 1.1992
1919.333 1.1296 1.1424 1.1677 1.1281 1.145 1.1366 1.1169 1.1301 1.1127 1.1239
1938.623 1.1192 1.039 0.9997 0.9943 0.9698 0.9757 1.0017 1.0092 1.0145 0.9458
1957.913 0.8849 0.8716 0.9067 0.9289 0.854 0.8499 0.8453 0.819 0.8983 0.8907
1977.202 0.8248 0.8472 0.7837 0.7294 0.7693 0.7952 0.8464 0.8372 0.7694 0.7214
1996.492 0.7088 0.7047 0.7176 0.7492 0.7401 0.7481 0.7827 0.7917 0.7462 0.6821
2015.782 0.6202 0.6533 0.7737 0.8242 0.7681 0.7083 0.7108 0.705 0.7344 0.766
2035.072 0.7359 0.7252 0.6763 0.6467 0.6525 0.6167 0.6311 0.6241 0.605 0.6255
2054.362 0.6708 0.6858 0.6932 0.7139 0.7235 0.7669 0.7573 0.6746 0.6661 0.7442
2073.651 0.7676 0.7248 0.6938 0.6656 0.6731 0.731 0.7357 0.7653 0.8478 0.8252
2092.941 0.7822 0.819 0.8345 0.8194 0.8409 0.8496 0.8725 0.9193 0.9277 0.9326
2112.231 0.9118 0.9123 0.9533 0.9645 0.9967 1.0248 1.0703 1.1655 1.24 1.21
2131.521 1.29 1.35 1.32 1.36 1.43 1.52 1.54 1.54 1.58 1.58
2150.810 1.58 1.58 1.53 1.48 1.45 1.43 1.37 1.36 1.38 1.31
2170.100 1.26 1.23 1.21 1.22 1.2 1.24 1.3 1.21 1.23 1.31
2189.390 1.27 1.27 1.3 1.34 1.38 1.36 1.37 1.39 1.42 1.42
2208.680 1.45 1.54 1.55 1.54 1.58 1.65 1.73 1.78 1.8 1.84
2227.970 1.89 1.95 2.03 2.12 2.2 2.28 2.4 2.48 2.62 2.8
2247.259 2.96 3.11 3.27 3.56 3.95 4.32 4.81 5.47 6.17 6.93
2266.549 7.81 8.66 9.24 9.53 9.73 9.7 9.31 8.72 7.95 7.08
2285.839 6.2 5.34 4.63 4.09 3.64 3.29 3.06 2.81 2.57 2.38
2305.129 2.24 2.14 1.99 1.88 1.84 1.76 1.62 1.54 1.56 1.56
2324.418 1.48 1.44 1.47 1.41 1.42 1.47 1.48 1.43 1.43 1.42
2343.708 1.41 1.42 1.37 1.4 1.31 1.33 1.52 1.55 1.51 1.43
2362.998 1.28 1.2 1.29 1.24 1.1029 1.0642 1.0744 1.0405 0.9431 0.9128
2382.288 0.9122 0.8301 0.7997 0.9102 0.9237 0.8045 0.8343 0.8676 0.8881 0.8991
2401.578 0.8531 0.8369 0.8327 0.819 0.8182 0.8665 0.8281 0.708 0.7716 0.8996
2420.867 0.8168 0.7705 0.8174 0.8062 0.7762 0.7625 0.7648 0.7765 0.7716 0.7944
2440.157 0.8013 0.7447 0.7287 0.7665 0.8212 0.8047 0.7091 0.6923 0.7086 0.7115
2459.447 0.7502 0.7037 0.6974 0.6769 0.6142 0.6514 0.6846 0.763 0.7243 0.6231
2478.737 0.5591 0.637 0.7347 0.6824 0.6815 0.6449 0.6459 0.7044 0.6971 0.6588
2498.026 0.63 0.6436 0.6881 0.7206 0.711 0.692 0.6298 0.6331 0.6597 0.6742
2517.316 0.6821 0.631 0.6752 0.6301 0.6274 0.6694 0.6335 0.6956 0.7189 0.7051
2536.606 0.6777 0.6818 0.6425 0.6063 0.6354 0.6579 0.6133 0.5455 0.5919 0.656
2555.896 0.645 0.6168 0.6187 0.685 0.6996 0.6522 0.6913 0.7299 0.6907 0.6499
2575.186 0.7363 0.7321 0.6609 0.6797 0.7245 0.7453 0.7154 0.7495 0.7348 0.7217
2594.475 0.8022 0.7374 0.6687 0.7115 0.7142 0.6643 0.6915 0.7267 0.7224 0.7568
2613.765 0.6959 0.6519 0.6427 0.6097 0.6133 0.5874 0.5567 0.5903 0.5789 0.617
2633.055 0.6634 0.605 0.6228 0.5854 0.5103 0.479 0.5317 0.6195 0.6214 0.6742
2652.345 0.7024 0.6498 0.5495 0.5297 0.6293 0.6756 0.6807 0.7409 0.8001 0.7447
2671.634 0.6001 0.5476 0.5756 0.587 0.5714 0.5815 0.6504 0.6462 0.6349 0.7117
2690.924 0.7038 0.6139 0.6534 0.6857 0.6921 0.7687 0.7535 0.7418 0.7413 0.7664
2710.214 0.7653 0.7062 0.7195 0.7301 0.688 0.6559 0.7037 0.7117 0.6463 0.655
2729.504 0.7357 0.7239 0.6892 0.7285 0.8009 0.7519 0.6309 0.6701 0.7917 0.8329
2748.794 0.8357 0.8403 0.8782 0.9309 0.9172 0.8835 0.7994 0.7026 0.7203 0.7722
2768.083 0.7563 0.7516 0.7083 0.7246 0.7183 0.6728 0.7069 0.7372 0.7466 0.685
2787.373 0.6451 0.7127 0.793 0.7229 0.6709 0.7831 0.8054 0.8162 0.9114 0.9066
2806.663 0.9376 0.9987 0.9649 0.9214 0.938 1.0092 1.0726 1.0489 1.0126 1.1791
2825.953 1.34 1.35 1.39 1.45 1.64 1.65 1.7 1.96 2.22 2.58
2845.242 2.76 2.92 3.12 3.27 3.4 3.38 3.24 3.05 2.95 3
2864.532 3.02 3.06 3.23 3.33 3.35 3.34 3.38 3.3 3.17 3.13
2883.822 3.13 3.16 3.12 3.08 3.14 3.23 3.36 3.55 3.71 3.87
2903.112 3.94 3.96 4.09 4.2 4.27 4.3 4.43 4.63 4.85 5.02
2922.401 5.18 5.57 5.97 6.41 6.99 7.57 7.97 8.33 8.54 8.48
2941.691 8.37 8.17 7.97 7.89 8.08 8.55 9.25 10.22 11.4 12.6
2960.981 13.59 14.25 14.35 13.92 13.12 11.98 10.59 9.27 8.27 7.58
2980.271 7.15 6.77 6.35 6.07 5.97 5.86 5.54 5.42 5.36 5.24
2999.561 5.14 4.88 4.74 4.82 4.8 4.61 4.48 4.41 4.43 4.5
3018.850 4.62 4.92 5.15 5.3 5.53 5.83 6.11 6.17 6.14 6.01
3038.140 5.88 5.71 5.41 5.07 4.89 4.76 4.54 4.39 4.14 3.86
3057.430 3.74 3.66 3.49 3.32 3.19 2.99 2.72 2.67 2.57 2.5
3076.720 2.55 2.53 2.41 2.24 2.15 2.15 2.14 2.06 2.09 2.11
3096.009 2.13 2.07 2 2.07 2.01 1.96 1.94 1.84 1.78 1.69
3115.299 1.53 1.52 1.53 1.43 1.32 1.32 1.34 1.29 1.26 1.22
3134.589 1.1454 1.0047 1.0726 1.0918 0.8544 0.7236 0.7251 0.7757 0.7668 0.7336
3153.879 0.8833 0.8776 0.6968 0.6719 0.689 0.7122 0.7447 0.6615 0.531 0.4158
3173.169 0.4613 0.4496 0.4854 0.6405 0.5841 0.501 0.4255 0.5143 0.6402 0.6024
3192.458 0.6148 0.5656 0.4468 0.409 0.4365 0.5313 0.5686 0.4933 0.5131 0.588
3211.748 0.5779 0.4529 0.3727 0.4314 0.5076 0.5785 0.6385 0.5923 0.5065 0.5488
3231.038 0.5256 0.4034 0.3349 0.3508 0.43 0.4126 0.3438 0.3982 0.4693 0.441
3250.328 0.4707 0.4837 0.3875 0.3131 0.3546 0.4359 0.3732 0.381 0.354 0.3698
3269.617 0.3956 0.4015 0.3816 0.3323 0.4999 0.3616 0.1815 0.24176 0.315 0.5213
3288.907 0.4437 0.3695 0.3972 0.28856 0.3366 0.377 0.4423 0.5108 0.3977 0.23174
3308.197 0.3111 0.441 0.3162 0.3289 0.3693 0.3111 0.3115 0.24143 0.20909 0.25222
3327.487 0.3526 0.29844 0.3602 0.4166 0.26106 0.3779 0.3923 0.3769 0.4747 0.3683
3346.777 0.3975 0.371 0.3315 0.3121 0.3133 0.29968 0.2575 0.25507 0.22279 0.29278
3366.066 0.29824 0.3272 0.3951 0.3947 0.4493 0.4516 0.4458 0.4227 0.426 0.5692
3385.356 0.5182 0.349 0.3653 0.4409 0.4675 0.4756 0.407 0.4149 0.6197 0.6485
3404.646 0.374 0.3159 0.477 0.5209 0.6806 0.7249 0.6631 0.8043 0.8207 0.7957
3423.936 0.8894 1.1753 1.29 1.25 1.58 1.79 1.88 2.1 2.35 2.83
3443.225 3.12 3.3 3.69 4.1 4.46 4.89 5.5 6.18 6.79 7.22
3462.515 7.65 8.14 8.26 8.22 7.97 7.44 6.9 6.28 5.54 4.66
3481.805 3.76 3.16 2.66 2.28 2 1.71 1.57 1.43 1.43 1.39
3501.095 1.3 1.33 1.2 1.1481 1.21 1.065 0.9748 1.1902 1.39 1.22
3520.385 0.9915 0.9792 0.9853 0.8223 0.686 0.6645 0.6155 0.5518 0.4959 0.5309
3539.674 0.5587 0.5489 0.6096 0.6584 0.5785 0.5154 0.4925 0.465 0.4635 0.3928
3558.964 0.3566 0.4363 0.3983 0.422 0.4537 0.3544 0.28702 0.26652 0.4352 0.5563
3578.254 0.4881 0.3953 0.3289 0.3025 0.28269 0.27699 0.4019 0.4221 0.3725 0.5146
3597.544 0.5182 0.28107 0.24973 0.3544 0.358 0.3298 0.1261 0 0.1547 0.23517
3616.833 0.1686 0.22874 0.3043 0.1722 0.29507 0.3493 0.2393 0.3058 0.22803 0.1828
3636.123 0.23381 0.3581 0.4814 0.3211 0.23972 0.3308 0.23629 0.22402 0.3091 0.3305
3655.413 0.27797 0.3113 0.3565 0.27467 0.25184 0.3451 0.3236 0.27421 0.1296 0.054
3674.703 0.1889 0.099 0.096 0.28689 0.3819 0.415 0.3905 0.29096 0.28574 0.4039
3693.993 0.5194 0.4594 0.337 0.3633 0.3711 0.3952 0.4184 0.3809 0.4922 0.3237
3713.282 0.081 0.206522 0.4228 0.4728 0.4283 0.4334 0.3364 0.3057 0.3561 0.3085
3732.572 0.24412 0.3325 0.3153 0.1757 0.3266 0.4223 0.22688 0.1093 0.08 0.089
3751.862 0.1803 0.3223 0.4087 0.3351 0.376 0.451 0.3312 0.24368 0.3042 0.3858
3771.152 0.22333 0.19461 0.4891 0.454 0.3579 0.4819 0.4153 0.3445 0.3001 0.27049
3790.441 0.28603 0.3557 0.3449 0.1817 0.1641 0.4031 0.4459 0.3602 0.4393 0.3203
3809.731 0.22331 0.362 0.4638 0.3768 0.23742 0.1427 0.1717 0.1589 0.168 0.22408
3829.021 0.1582 0.29181 0.29624 0.19366 0.1605 0.117 0.3225 0.4527 0.3488 0.29804
3848.311 0.3189 0.2703 0.28192 0.3553 0.4156 0.4397 0.4821 0.5045 0.39 0.2923
3867.601 0.26448 0.22919 0.1862 0.22622 0.4061 0.5716 0.4851 0.3314 0.5321 0.5653
3886.890 0.26435 0.27462 0.29425 0.3346 0.3072 0.209547 0.25948 0.26033 0.1866 0.2523
3906.180 0.5125 0.6004 0.5374 0.5678 0.5545 0.4729 0.4351 0.4003 0.4924 0.4841
3925.470 0.28895 0.3803 0.3881 0.23128 0.3771 0.3885 0.4182 0.5004 0.4974 0.4754
3944.760 0.3975 0.3536 0.433 0.5106 0.6631 0.8068 0.6233 0.4621 0.4905 0.5196
3964.049 0.5591 0.6092 0.4218 0.1613 0.24817 0.3699 0.3971 0.3225 0.22653 0.3594
3983.339 0.3245 0.22766 0.25579 0.3987 0.46 0.3639 0.4001 0.4201 0.3751 0.3288
##END=
