##TITLE=2,4,6-Triclhorophenyl isothiocyanate
##JCAMP-DX=4.24
##DATA TYPE=INFRARED SPECTRUM
##ORIGIN=EPA-IR VAPOR PHASE LIBRARY
##OWNER=SRD/NIST
Collection (C) 2018 copyright by the U.S. Secretary of Commerce
on behalf of the United States of America. All rights reserved.
##CAS REGISTRY NO=22134-07-2
##MOLFORM=C 7 H 2 Cl 3 N S
##$NIST SOURCE=MSDC-IR
##STATE=gas
##XUNITS=1/CM
##YUNITS=ABSORBANCE
##XFACTOR=1.
##YFACTOR=0.001
##DELTAX=1.92898
##FIRSTX=549.8
##LASTX=4000.7
##FIRSTY=21.556
##MAXX=4000.7
##MINX=549.759
##MAXY=0.502076
##MINY=0
##NPOINTS=1790
##XYDATA=(X++(Y..Y))
549.759 21.556 23.056 24.276 24.416 23.146 20.716 17.946 15.926 14.416 12.016
569.049 9.426 7.946 6.706 5.946 5.556 5.216 5.076 4.986 4.866 4.666
588.339 4.436 4.126 3.916 3.686 3.376 2.706 2.276 2.676 2.916 2.936
607.628 2.976 2.876 2.806 2.896 3.056 3.136 2.866 2.736 2.836 2.536
626.918 2.226 1.996 1.876 1.746 1.556 1.3628 1.183 1.2115 1.2089 1.102
646.208 1.1647 1.2444 1.2197 1.141 0.9772 0.9458 1.012 1.0451 1.164 1.2801
665.498 1.446 1.806 2.316 2.866 3.196 3.386 3.526 3.566 3.436 2.896
684.787 2.256 1.856 1.806 2.086 2.596 3.446 4.786 6.336 7.686 9.046
704.077 10.616 11.806 10.876 8.496 6.836 5.466 4.146 3.266 2.546 2.306
723.367 2.106 1.996 2.466 2.946 3.336 3.586 3.566 3.316 3.126 2.876
742.657 2.196 1.546 1.2025 0.9584 0.8587 0.6978 0.8327 1.0569 0.885 0.9259
761.947 1.0193 1.1642 1.3238 1.446 1.706 1.776 1.876 2.186 2.636 3.366
781.236 4.366 5.626 7.256 9.336 11.736 14.396 17.246 19.996 22.506 24.566
800.526 26.016 27.186 28.356 29.696 31.726 34.686 38.466 42.856 47.116 49.966
819.816 50.686 49.346 45.766 40.146 32.776 24.986 18.126 13.206 10.246 8.446
839.106 7.626 7.396 7.926 8.946 10.746 13.736 17.446 21.486 25.326 28.916
858.395 31.896 33.346 30.296 23.856 19.096 15.636 12.376 9.566 7.286 5.906
877.685 5.306 5.136 5.086 5.316 5.776 6.116 6.626 7.156 7.666 8.276
896.975 8.606 9.036 9.616 9.976 10.066 9.776 9.436 8.976 8.436 8.336
916.265 8.486 8.666 8.976 9.346 9.846 10.596 11.646 13.116 14.976 17.656
935.555 21.296 25.766 30.866 35.836 40.426 43.796 45.536 45.496 43.676 40.256
954.844 35.516 30.526 25.756 21.466 17.786 14.656 12.146 10.086 8.436 7.306
974.134 6.136 5.086 4.716 4.396 3.836 3.286 2.876 2.676 2.366 2.146
993.424 2.096 1.946 1.806 1.736 1.606 1.616 1.476 1.1706 1.1348 1.1038
1012.714 0.9254 0.9019 1.0851 1.0726 0.8909 0.7798 1.0623 1.344 1.2049 1.1647
1032.003 1.1488 1.0699 1.2374 1.4065 1.616 2.046 2.086 1.826 1.536 1.536
1051.293 1.786 1.806 1.686 1.626 1.526 1.866 2.126 2.416 3.196 4.086
1070.583 5.496 7.226 9.396 12.176 14.896 16.976 18.066 18.066 16.856 14.326
1089.873 11.146 7.896 5.246 3.526 2.486 1.916 1.966 1.866 1.3485 1.2058
1109.163 1.2185 1.4019 1.656 1.716 2.136 2.546 2.606 2.956 3.846 4.356
1128.452 4.756 5.146 5.456 6.146 6.496 6.566 7.056 8.156 9.456 10.886
1147.742 12.246 13.026 13.286 13.336 12.826 11.406 9.366 7.176 5.276 3.566
1167.032 2.536 2.226 2.226 2.206 2.356 2.956 3.586 4.206 4.776 5.326
1186.322 5.536 5.446 5.556 5.666 5.526 5.236 5.066 5.186 5.476 5.656
1205.611 5.606 5.456 5.316 5.536 5.216 4.206 3.626 3.356 3.036 2.696
1224.901 2.546 2.336 2.366 2.546 2.356 2.476 2.946 2.856 2.886 3.136
1244.191 3.266 3.356 3.256 3.006 2.676 2.426 2.296 2.146 2.176 2.376
1263.481 2.376 2.356 2.386 2.346 2.436 2.466 2.126 1.866 1.676 1.456
1282.771 1.3137 1.2377 1.2332 1.286 1.159 1.0398 0.9627 0.9126 0.9613 1.0144
1302.060 1.0105 0.9057 0.8788 0.9159 0.8905 0.8669 0.9316 0.9556 0.9288 0.9409
1321.350 1.0234 1.086 1.1314 1.1987 1.2986 1.3692 1.3474 1.3703 1.456 1.546
1340.640 1.676 1.866 2.116 2.416 2.856 3.506 4.356 5.356 6.706 8.436
1359.930 10.386 12.456 14.566 16.466 17.886 18.916 19.766 20.686 21.756 22.836
1379.219 24.086 25.426 26.456 27.006 26.826 25.756 23.916 21.516 18.906 16.416
1398.509 14.316 12.796 12.096 12.286 13.306 14.986 17.126 19.786 22.936 26.236
1417.799 29.136 30.976 31.146 30.026 28.146 25.756 23.726 23.126 25.036 29.846
1437.089 37.466 47.046 57.666 67.876 75.806 80.256 80.726 77.716 71.916 64.816
1456.378 58.226 53.216 49.526 46.086 42.206 37.576 32.366 26.806 21.366 16.636
1475.668 12.886 10.106 8.286 6.996 6.026 5.316 4.866 4.546 4.306 4.216
1494.958 4.206 4.176 4.226 4.386 4.616 4.816 5.056 5.326 5.476 5.626
1514.248 5.766 5.856 6.016 6.336 6.836 7.566 8.696 10.316 12.436 15.166
1533.538 18.646 22.596 26.786 30.976 34.446 36.656 37.306 36.356 33.856 29.926
1552.827 25.026 20.006 16.306 13.936 12.516 11.906 11.666 11.576 11.466 11.276
1572.117 10.986 10.586 10.006 9.156 8.296 7.396 6.376 5.356 4.466 3.796
1591.407 3.246 2.766 2.556 2.386 2.216 2.166 2.096 1.966 1.916 1.926
1610.697 1.796 1.656 1.556 1.506 1.466 1.4155 1.436 1.466 1.456 1.516
1629.986 1.556 1.536 1.526 1.586 1.576 1.486 1.436 1.3447 1.3357 1.3013
1649.276 1.155 1.0828 1.0474 0.9578 0.922 0.8958 0.8843 0.9027 0.9735 0.9762
1668.566 0.9124 0.91 0.9741 1.0076 1.029 1.0768 1.1075 1.1457 1.1528 1.1947
1687.856 1.249 1.2643 1.2922 1.3968 1.556 1.696 1.806 1.876 1.986 2.276
1707.146 2.556 2.766 3.146 3.586 4.026 4.506 4.916 5.286 5.506 5.536
1726.435 5.356 5.106 4.906 4.646 4.246 3.756 3.346 3.056 2.776 2.496
1745.725 2.266 2.116 2.106 2.116 2.136 2.166 2.206 2.286 2.356 2.426
1765.015 2.456 2.396 2.366 2.376 2.386 2.346 2.306 2.316 2.296 2.306
1784.305 2.346 2.316 2.286 2.296 2.276 2.266 2.286 2.306 2.346 2.336
1803.594 2.306 2.296 2.276 2.196 2.136 2.136 2.076 2.046 2.056 2.046
1822.884 2.096 2.106 2.086 2.136 2.256 2.296 2.336 2.386 2.476 2.596
1842.174 2.706 2.856 3.006 3.076 3.156 3.336 3.496 3.626 3.866 4.156
1861.464 4.376 4.546 4.786 5.066 5.346 5.656 5.966 6.326 6.806 7.306
1880.754 7.786 8.326 8.816 9.236 9.636 9.936 10.186 10.376 10.466 10.486
1900.043 10.456 10.386 10.366 10.416 10.496 10.586 10.676 10.866 11.146 11.446
1919.333 11.806 12.306 12.816 13.366 14.056 14.776 15.586 16.476 17.416 18.456
1938.623 19.536 20.756 22.116 23.516 24.956 26.546 28.346 30.266 32.216 34.316
1957.913 36.606 38.996 41.446 44.086 46.946 49.936 53.046 56.366 59.846 63.476
1977.202 67.376 71.566 75.996 80.806 86.156 91.936 98.226 105.206 112.726 120.816
1996.492 129.596 138.736 148.126 157.786 167.576 177.526 187.676 198.006 208.636 219.906
2015.782 231.606 243.686 256.346 269.476 283.146 297.436 312.396 328.376 345.476 363.686
2035.072 383.236 404.066 425.886 448.026 469.186 487.036 498.776 502.076 495.436 478.426
2054.362 452.666 420.916 385.896 350.546 317.446 287.756 261.456 238.316 218.236 200.976
2073.651 186.296 174.106 164.356 156.886 151.526 148.296 147.116 147.946 150.926 155.796
2092.941 162.196 169.926 178.626 187.766 196.656 204.696 211.426 216.176 218.566 218.316
2112.231 215.236 209.456 201.106 190.596 178.296 164.706 150.236 135.496 120.966 107.046
2131.521 94.116 82.536 72.526 63.936 56.806 51.156 46.756 43.406 40.956 39.226
2150.810 37.986 37.106 36.446 35.936 35.426 34.816 34.096 33.296 32.346 31.236
2170.100 30.006 28.636 27.216 25.786 24.466 23.326 22.246 21.226 20.376 19.656
2189.390 18.976 18.286 17.736 17.256 16.836 16.466 16.206 16.026 15.896 15.846
2208.680 15.836 15.846 15.886 15.946 15.986 15.986 15.826 15.506 15.076 14.506
2227.970 13.716 12.786 11.796 10.806 9.866 8.936 8.046 7.266 6.546 5.916
2247.259 5.426 5.096 4.786 4.456 4.166 3.946 3.786 3.636 3.536 3.376
2266.549 3.216 3.156 3.066 2.906 2.776 2.676 2.636 2.596 2.566 2.526
2285.839 2.506 2.486 2.476 2.526 2.566 2.606 2.616 2.586 2.626 2.636
2305.129 2.536 2.506 2.516 2.516 2.596 2.586 2.506 2.486 2.516 2.566
2324.418 2.596 2.586 2.576 2.646 2.746 2.846 2.926 3.036 3.176 3.326
2343.708 3.366 3.396 3.536 3.616 3.706 3.846 3.946 3.996 4.056 4.146
2362.998 4.216 4.356 4.446 4.506 4.496 4.556 4.626 4.546 4.566 4.506
2382.288 4.346 4.206 4.016 3.796 3.606 3.446 3.286 3.096 2.966 2.866
2401.578 2.726 2.656 2.546 2.436 2.436 2.446 2.476 2.496 2.536 2.536
2420.867 2.596 2.726 2.806 2.826 2.786 2.816 2.836 2.756 2.706 2.616
2440.157 2.496 2.426 2.376 2.286 2.166 2.126 2.126 2.066 1.986 1.916
2459.447 1.926 1.926 1.906 1.946 1.996 2.056 2.056 2.056 2.136 2.156
2478.737 2.176 2.286 2.316 2.296 2.356 2.486 2.546 2.626 2.696 2.756
2498.026 2.826 2.856 2.846 2.896 3.036 3.176 3.206 3.276 3.396 3.456
2517.316 3.606 3.726 3.796 3.746 3.706 3.756 3.816 3.786 3.736 3.716
2536.606 3.706 3.726 3.626 3.546 3.556 3.536 3.446 3.336 3.206 3.036
2555.896 2.866 2.756 2.526 2.286 2.186 2.136 2.146 2.006 1.896 1.936
2575.186 1.896 1.886 1.896 1.926 2.026 1.986 1.926 2.056 2.136 2.236
2594.475 2.426 2.466 2.466 2.566 2.566 2.496 2.506 2.566 2.606 2.636
2613.765 2.646 2.686 2.716 2.766 2.876 2.946 3.076 3.186 3.296 3.436
2633.055 3.506 3.706 3.886 4.026 4.296 4.566 4.816 5.086 5.396 5.866
2652.345 6.336 6.736 7.206 7.636 8.116 8.636 9.016 9.296 9.576 9.746
2671.634 9.706 9.586 9.296 8.936 8.356 7.676 7.086 6.366 5.666 5.066
2690.924 4.596 4.116 3.676 3.246 2.906 2.776 2.556 2.386 2.296 2.156
2710.214 2.046 1.916 1.866 1.886 1.836 1.786 1.826 1.866 1.806 1.766
2729.504 1.696 1.546 1.526 1.586 1.436 1.3097 1.2561 1.1472 1.0376 1.0265
2748.794 1.0939 1.0383 0.966 0.9672 0.965 0.975 0.9051 0.8477 0.9116 0.9875
2768.083 1.0264 1.0915 1.2019 1.2756 1.2476 1.231 1.2928 1.3442 1.3008 1.2706
2787.373 1.263 1.0593 0.9636 1.0186 0.9886 0.8838 0.8566 0.943 0.9214 0.8333
2806.663 0.7672 0.7934 0.8513 0.9433 0.9411 0.9086 1.0074 1.0606 1.1198 1.1811
2825.953 1.2468 1.2339 1.207 1.258 1.3078 1.3383 1.3681 1.3491 1.3071 1.4039
2845.242 1.476 1.516 1.456 1.358 1.405 1.456 1.526 1.436 1.416 1.516
2864.532 1.516 1.476 1.506 1.506 1.476 1.466 1.4086 1.2971 1.1859 1.1532
2883.822 1.1569 1.0788 1.0755 1.0822 1.0087 0.9476 0.9173 0.9949 1.1162 1.106
2903.112 0.9685 0.8137 0.7912 0.8657 0.9351 1.0387 1.0983 1.0473 1.0913 1.2608
2922.401 1.3093 1.1424 1.0332 1.1722 1.262 1.2254 1.161 1.1366 1.1906 1.3199
2941.691 1.3209 1.2032 1.315 1.3388 1.2965 1.3339 1.3716 1.3576 1.2837 1.3228
2960.981 1.343 1.3528 1.476 1.576 1.586 1.686 1.886 2.036 1.956 1.906
2980.271 1.986 2.046 2.096 2.106 2.176 2.266 2.286 2.256 2.166 2.156
2999.561 2.246 2.256 2.116 1.916 1.816 1.846 1.696 1.506 1.436 1.3734
3018.850 1.2733 1.216 1.3211 1.3111 1.0976 1.0336 1.0511 1.0348 0.972 1.0214
3038.140 1.0771 0.9926 0.9498 0.9075 0.9251 0.8397 0.872 0.991 0.8914 0.8541
3057.430 0.9315 0.9539 0.9444 0.8606 0.8643 0.8807 0.7613 0.7147 0.8109 0.9083
3076.720 0.9228 0.981 1.1097 1.2428 1.3274 1.2912 1.2285 1.2576 1.195 1.0555
3096.009 0.9837 0.8647 0.7134 0.6988 0.6883 0.6907 0.7362 0.7896 0.782 0.783
3115.299 0.7636 0.6464 0.6231 0.6475 0.7239 0.82 0.7305 0.6485 0.53524 0.3523
3134.589 0.3746 0.45679 0.47 0.579 0.51557 0.3985 0.413 0.25 0.253 0.31
3153.879 0.27 0.239 0.255 0.281 0.23 0.166 0.126 0.245 0.318 0.195
3173.169 0.166 0.221 0.197 0.153 0.104 0.164 0.268 0.21 0.082 0.125
3192.458 0.18 0.174 0.138 0.08 0.094 0.09 0.08 0.146 0.189 0.214
3211.748 0.208 0.197 0.199 0.13 0.193 0.232 0.302 0.264 0.121 0.146
3231.038 0.171 0.132 0.086 0.142 0.049 0.017 0.091 0 0.061 0.171
3250.328 0.179 0.162 0.102 0.161 0.239 0.252 0.279 0.287 0.216 0.212
3269.617 0.19 0.112 0.09 0.076 0.126 0.236 0.315 0.168 0.076 0.236
3288.907 0.3818 0.4 0.3758 0.305 0.209 0.174 0.152 0.21 0.304 0.224
3308.197 0.232 0.209 0.106 0.293 0.3473 0.298 0.289 0.249 0.177 0.043
3327.487 0.084 0.172 0.268 0.182 0.096 0.212 0.154 0.081 0.12 0.226
3346.777 0.3507 0.195 0.077 0.078 0.158 0.227 0.126 0.18 0.249 0.184
3366.066 0.095 0.209 0.286 0.199 0.188 0.23 0.159 0.196 0.4174 0.34
3385.356 0.15 0.179 0.307 0.252 0.296 0.440599 0.440031 0.444765 0.318 0.245
3404.646 0.33 0.3498 0.3437 0.3796 0.439435 0.43166 0.3428 0.265 0.317 0.3974
3423.936 0.3942 0.4241 0.48009 0.318 0.191 0.307 0.332 0.43412 0.48466 0.263
3443.225 0.311 0.49623 0.3817 0.252 0.257 0.264 0.325 0.4238 0.3456 0.33
3462.515 0.28 0.299 0.42694 0.3841 0.4011 0.5586 0.5407 0.47675 0.49264 0.47791
3481.805 0.5985 0.6003 0.44905 0.4003 0.49565 0.52076 0.5018 0.4681 0.293 0.247
3501.095 0.33 0.42718 0.5617 0.5593 0.6028 0.6273 0.3775 0.3657 0.48373 0.3402
3520.385 0.333 0.48222 0.5616 0.44815 0.287 0.3526 0.3958 0.3689 0.42623 0.4141
3539.674 0.45059 0.50417 0.50107 0.5864 0.5812 0.6724 0.5964 0.3816 0.4239 0.47271
3558.964 0.363 0.267 0.221 0.165 0.282 0.3863 0.3911 0.3656 0.275 0.323
3578.254 0.4007 0.48025 0.5484 0.6142 0.6411 0.42672 0.329 0.45409 0.498 0.457
3597.544 0.443907 0.3753 0.3802 0.4837 0.49857 0.47051 0.51107 0.444397 0.311 0.305
3616.833 0.3817 0.45794 0.442102 0.45163 0.50888 0.51502 0.44741 0.283 0.3472 0.3945
3636.123 0.322 0.4044 0.48614 0.52628 0.3858 0.328 0.324 0.31 0.3511 0.342
3655.413 0.42655 0.51284 0.48265 0.4053 0.440054 0.53506 0.596 0.5517 0.4218 0.3391
3674.703 0.4009 0.5028 0.45286 0.47721 0.45992 0.335 0.242 0.197 0.277 0.3816
3693.993 0.3465 0.331 0.4239 0.3826 0.4169 0.441677 0.4625 0.51605 0.48153 0.46314
3713.282 0.4068 0.33 0.42743 0.44827 0.3673 0.333 0.263 0.348 0.417 0.48331
3732.572 0.6028 0.5478 0.318 0.33 0.52711 0.51928 0.454 0.4234 0.3861 0.47281
3751.862 0.46672 0.3672 0.4549 0.5257 0.50057 0.50619 0.3939 0.299 0.372 0.42965
3771.152 0.4051 0.50645 0.46596 0.3651 0.47818 0.3942 0.307 0.3957 0.6175 0.704
3790.441 0.571 0.48856 0.51597 0.5395 0.553 0.5272 0.42726 0.3421 0.3452 0.48588
3809.731 0.51039 0.46204 0.4992 0.5528 0.5972 0.51576 0.5664 0.7172 0.6635 0.6685
3829.021 0.6305 0.6983 0.7938 0.6417 0.6299 0.724 0.6855 0.6408 0.5663 0.50781
3848.311 0.5867 0.5221 0.443662 0.5371 0.6058 0.7243 0.7225 0.5653 0.5844 0.7402
3867.601 0.7458 0.6973 0.5971 0.47244 0.5751 0.6338 0.6371 0.7206 0.6464 0.6531
3886.890 0.8565 0.8082 0.7285 0.6009 0.5469 0.6654 0.7935 0.8938 0.9075 0.9664
3906.180 0.9843 1.0192 1.0023 0.9665 1.0404 0.9725 0.9907 1.0892 1.0583 1.0074
3925.470 0.8565 0.8651 0.9752 1.0272 1.0649 1.0769 1.1591 1.0667 1.0156 1.1063
3944.760 0.9836 0.9052 1.109 1.0659 1.0165 1.1419 1.0354 1.1187 1.1555 1.1066
3964.049 1.3092 1.3359 1.3012 1.2414 1.2463 1.2454 1.2547 1.4151 1.3613 1.3782
3983.339 1.4031 1.2848 1.292 1.3932 1.506 1.586 1.546 1.516 1.556 1.606
##END=
