##TITLE=1-Phenyl-1-butanol
##JCAMP-DX=4.24
##DATA TYPE=INFRARED SPECTRUM
##ORIGIN=NIST Mass Spectrometry Data Center
##OWNER=NIST Standard Reference Data Program
Collection (C) 2018 copyright by the U.S. Secretary of Commerce
on behalf of the United States of America. All rights reserved.
##CAS REGISTRY NO=22144-60-1
##MOLFORM=C 10 H 14 O
##$NIST SOURCE=MSDC-IR
##SPECTROMETER/DATA SYSTEM=HP-GC/MS/IRD
##STATE=gas
##XUNITS=1/CM
##YUNITS=ABSORBANCE
##XFACTOR=1.0
##YFACTOR=0.000002000
##DELTAX=4.0
##FIRSTX=550.0
##LASTX=3846.0
##FIRSTY=0.002676
##MAXX=3846
##MINX=550
##MAXY=0.02
##MINY=0
##NPOINTS=825
##XYDATA=(X++(Y..Y))
550.0 1338 899 579 490 352 205 38 15 53 39
590.0 49 105 178 237 266 276 382 495 520 467
630.0 349 232 174 152 184 256 351 492 627 755
670.0 892 1080 1415 2029 3010 4304 5543 6142 5912 4962
710.0 3674 2629 2000 1700 1653 1763 1958 2169 2417 2713
750.0 2988 3159 3110 2805 2309 1740 1245 883 651 501
790.0 396 316 277 274 251 258 299 365 404 392
830.0 367 325 286 300 355 434 499 538 533 493
870.0 444 423 400 404 470 564 667 742 787 779
910.0 723 652 563 477 410 382 411 467 584 710
950.0 844 989 1087 1142 1192 1243 1295 1372 1502 1691
990.0 1963 2331 2789 3330 3927 4505 4977 5278 5292 4976
1030.0 4391 3712 3057 2605 2413 2405 2448 2473 2455 2364
1070.0 2184 1972 1795 1658 1607 1655 1788 1931 2004 1989
1110.0 1887 1696 1472 1246 1047 884 742 650 629 637
1150.0 669 749 851 949 1060 1219 1363 1454 1510 1529
1190.0 1529 1581 1653 1711 1733 1721 1669 1585 1507 1442
1230.0 1386 1384 1401 1406 1436 1462 1505 1583 1686 1807
1270.0 1929 2050 2138 2164 2150 2117 2073 2022 1949 1865
1310.0 1806 1743 1681 1642 1631 1609 1574 1554 1568 1624
1350.0 1708 1817 1957 2103 2233 2343 2422 2419 2325 2155
1390.0 1920 1650 1388 1166 1003 884 809 781 781 830
1430.0 931 1102 1348 1651 1976 2248 2405 2388 2227 1984
1470.0 1721 1484 1333 1298 1388 1479 1433 1244 947 635
1510.0 413 301 245 214 194 193 196 194 181 148
1550.0 112 98 100 95 91 102 126 162 209 280
1590.0 359 457 552 568 499 368 222 115 56 23
1630.0 6 4 8 22 29 26 32 47 61 70
1670.0 80 81 80 96 123 164 213 245 249 233
1710.0 192 141 104 64 43 46 54 66 77 83
1750.0 83 77 54 28 20 29 38 55 85 131
1790.0 200 260 294 284 234 163 103 71 45 28
1830.0 23 11 3 15 29 47 77 103 123 150
1870.0 182 203 214 212 209 185 141 101 71 56
1910.0 49 36 46 95 137 177 228 263 291 307
1950.0 297 276 239 181 125 77 45 27 21 25
1990.0 18 7 0 1 12 12 9 20 27 27
2030.0 25 21 16 13 23 30 28 18 15 11
2070.0 8 7 1 4 7 4 11 12 19 26
2110.0 27 25 20 19 16 14 21 20 19 24
2150.0 21 18 25 29 29 35 38 34 27 22
2190.0 21 21 18 20 24 29 30 33 34 32
2230.0 32 31 28 25 38 46 39 36 45 40
2270.0 29 29 31 37 38 41 48 48 56 69
2310.0 82 90 96 104 101 101 108 107 102 99
2350.0 99 101 109 108 111 99 75 69 60 61
2390.0 67 56 65 68 67 77 73 62 56 59
2430.0 62 54 51 54 63 62 60 56 54 51
2470.0 42 46 55 53 60 63 51 37 34 38
2510.0 46 45 40 53 50 54 69 67 62 67
2550.0 79 91 107 105 95 106 115 114 119 119
2590.0 118 122 121 111 111 116 116 114 119 131
2630.0 141 137 128 138 149 139 132 138 147 159
2670.0 154 152 163 176 173 173 175 175 175 174
2710.0 174 173 181 194 213 233 247 252 260 286
2750.0 296 290 284 282 296 314 326 337 355 381
2790.0 412 442 475 502 528 572 627 671 714 782
2830.0 874 997 1164 1374 1631 1940 2294 2717 3230 3841
2870.0 4544 5281 5899 6210 6151 5791 5264 4815 4609 4652
2910.0 4925 5337 5840 6412 7052 7789 8561 9137 9272 8955
2950.0 8428 8089 8337 9180 10000 9992 8923 7077 5076 3587
2990.0 2671 2145 1869 1725 1693 1756 1941 2254 2691 3195
3030.0 3643 3878 3815 3518 3115 2794 2697 2861 3312 3863
3070.0 4190 4184 3859 3321 2820 2445 2130 1824 1525 1262
3110.0 1044 840 672 537 425 342 290 258 216 192
3150.0 193 207 218 220 208 196 182 164 143 130
3190.0 139 136 122 98 85 92 79 56 62 74
3230.0 69 56 45 47 46 47 53 51 51 59
3270.0 63 56 56 50 53 55 46 48 54 44
3310.0 44 47 37 23 19 47 48 52 68 69
3350.0 73 80 92 86 74 95 105 93 86 86
3390.0 83 65 67 73 85 92 83 79 80 64
3430.0 72 88 80 99 107 97 85 72 73 80
3470.0 71 59 49 49 71 77 66 53 63 69
3510.0 52 41 33 50 53 34 24 38 55 55
3550.0 50 36 37 68 75 66 70 64 48 64
3590.0 99 113 121 150 175 181 211 272 354 487
3630.0 698 1001 1393 1725 1906 1903 1686 1370 1024 739
3670.0 539 407 304 229 194 171 157 136 121 123
3710.0 111 88 84 85 74 56 72 88 75 68
3750.0 62 63 73 83 101 98 73 75 91 84
3790.0 63 68 96 85 85 99 106 115 99 79
3830.0 86 91 85 74 85
##END=
