##TITLE=4-Phenoxybenzoic acid
##JCAMP-DX=4.24
##DATA TYPE=INFRARED SPECTRUM
##ORIGIN=EPA-IR VAPOR PHASE LIBRARY
##OWNER=SRD/NIST
Collection (C) 2018 copyright by the U.S. Secretary of Commerce
on behalf of the United States of America. All rights reserved.
##CAS REGISTRY NO=2215-77-2
##MOLFORM=C13 H10 O3
##$NIST SOURCE=MSDC-IR
##STATE=gas
##XUNITS=1/CM
##YUNITS=ABSORBANCE
##XFACTOR=1.
##YFACTOR=0.001
##DELTAX=1.92898
##FIRSTX=549.8
##LASTX=4000.7
##FIRSTY=9.091
##MAXX=4000.7
##MINX=549.759
##MAXY=0.227201
##MINY=0
##NPOINTS=1790
##XYDATA=(X++(Y..Y))
549.759 9.091 9.621 10.061 10.351 10.851 11.491 12.361 13.021 13.631 13.791
569.049 13.321 12.891 12.121 11.321 10.501 9.641 9.061 9.181 10.121 11.571
588.339 12.821 13.491 13.541 13.171 12.131 10.601 9.611 9.071 8.851 9.571
607.628 11.111 12.871 14.391 15.231 15.051 13.801 11.961 9.861 8.161 7.131
626.918 6.451 6.061 5.681 5.251 5.181 5.511 5.361 5.051 5.071 4.731
646.208 4.351 3.891 3.491 3.391 3.421 3.391 3.461 3.621 3.561 3.661
665.498 4.111 4.491 4.701 5.091 5.831 6.831 8.221 9.851 11.591 13.661
684.787 16.091 18.361 20.141 21.391 21.981 21.911 21.271 20.291 19.371 18.881
704.077 18.591 18.651 18.961 19.501 20.331 20.881 20.871 20.051 18.571 16.571
723.367 14.391 12.501 10.971 10.001 9.321 8.981 9.021 9.211 9.671 10.171
742.657 10.731 11.691 12.891 13.961 15.051 16.501 17.821 19.091 20.401 21.371
761.947 22.251 22.821 22.721 21.861 20.471 18.961 17.161 15.221 13.611 12.071
781.236 10.941 10.111 9.421 9.121 8.831 8.721 8.721 8.511 8.351 8.231
800.526 7.861 7.581 7.321 6.651 6.051 5.781 5.691 5.481 4.941 4.741
819.816 4.611 4.361 4.271 4.011 3.611 3.581 3.671 3.751 4.021 4.671
839.106 5.421 6.071 7.051 8.041 8.951 10.151 11.631 12.831 13.821 15.191
858.395 16.961 19.311 22.531 26.181 29.791 32.201 32.561 30.881 27.261 22.521
877.685 17.431 12.851 9.581 7.331 5.941 5.091 4.521 4.411 4.261 4.031
896.975 4.081 4.221 4.231 4.161 4.041 3.951 3.701 3.351 3.211 2.911
916.265 2.671 2.501 2.271 2.111 2.111 2.021 1.761 1.631 1.471 1.411
935.555 1.441 1.551 1.501 1.551 1.561 1.411 1.611 1.651 1.621 1.601
954.844 1.731 2.021 2.181 2.171 2.081 2.201 2.261 2.241 2.411 2.511
974.134 2.411 2.351 2.321 2.251 2.341 2.421 2.461 2.521 2.311 2.341
993.424 2.641 2.731 2.841 3.151 3.791 4.761 5.971 7.891 10.141 11.521
1012.714 11.901 12.141 12.451 11.851 10.451 9.391 9.051 8.561 7.501 6.621
1032.003 6.201 5.711 5.571 5.841 5.971 6.151 6.521 7.161 7.781 8.411
1051.293 9.281 10.591 12.301 14.771 18.241 22.621 28.381 35.391 43.771 54.381
1070.583 66.841 80.081 91.871 99.471 101.541 97.291 86.961 72.231 56.501 42.951
1089.873 32.971 25.971 21.391 18.491 16.391 15.001 14.051 13.111 12.231 11.611
1109.163 11.051 10.831 10.511 10.181 9.931 9.341 9.351 9.491 9.221 9.221
1128.452 9.581 9.881 10.621 11.481 12.171 13.301 14.841 16.711 18.871 22.051
1147.742 26.861 33.821 43.441 56.141 71.211 85.601 96.651 101.791 99.121 89.861
1167.032 76.631 62.881 52.061 46.491 46.461 50.011 55.351 61.241 65.501 66.501
1186.322 64.881 60.731 53.961 46.401 39.591 34.681 31.341 28.421 26.091 24.121
1205.611 22.871 22.431 22.491 23.071 24.611 27.351 30.841 35.231 40.731 48.131
1224.901 56.761 66.301 77.461 90.691 106.271 124.871 146.641 170.421 194.301 214.851
1244.191 227.201 227.051 213.541 189.391 159.141 127.191 98.151 75.881 60.481 49.781
1263.481 42.471 37.091 33.191 30.481 28.261 26.621 25.361 24.351 23.281 22.231
1282.771 21.691 21.541 21.371 21.441 21.831 22.291 22.541 22.581 22.681 22.691
1302.060 22.581 22.461 22.311 22.381 22.711 23.171 23.851 24.841 26.001 27.351
1321.350 28.801 30.221 31.351 31.751 31.281 29.991 28.041 25.691 23.451 21.731
1340.640 20.611 20.071 20.081 20.581 21.511 22.871 24.701 26.901 29.481 32.091
1359.930 34.331 35.821 36.091 34.831 32.131 28.521 24.441 20.321 16.641 13.681
1379.219 11.401 9.761 8.571 7.641 6.971 6.481 6.161 5.961 5.801 5.711
1398.509 5.731 5.931 6.261 6.751 7.391 8.081 8.921 9.871 10.591 10.961
1417.799 11.011 10.641 9.901 8.991 7.951 6.951 6.181 5.671 5.331 5.151
1437.089 5.131 5.221 5.411 5.571 5.781 6.061 6.411 6.921 7.541 8.201
1456.378 8.961 9.821 10.701 11.621 12.481 13.301 14.201 15.351 16.911 19.091
1475.668 22.221 26.631 32.841 41.631 53.451 68.081 83.131 93.941 97.371 94.161
1494.958 85.801 73.221 60.791 53.201 50.711 50.021 48.331 45.001 39.791 32.771
1514.248 25.701 20.301 16.811 14.611 13.041 11.851 10.931 10.231 9.551 8.891
1533.538 8.331 7.881 7.541 7.261 7.061 6.871 6.781 6.751 6.721 6.781
1552.827 6.981 7.401 7.971 8.681 9.591 10.841 12.551 14.811 17.631 21.271
1572.117 25.821 31.241 37.901 45.471 53.411 61.501 68.791 74.251 76.911 76.361
1591.407 72.901 67.491 60.851 54.021 47.861 42.591 38.401 35.451 33.671 32.571
1610.697 31.691 30.321 27.941 24.631 20.671 16.731 13.321 10.631 8.731 7.451
1629.986 6.551 5.821 5.301 4.931 4.601 4.311 4.131 3.981 3.871 3.781
1649.276 3.631 3.541 3.541 3.481 3.431 3.441 3.451 3.541 3.581 3.551
1668.566 3.591 3.641 3.751 3.821 3.821 3.851 3.871 3.991 4.161 4.221
1687.856 4.291 4.391 4.541 4.711 4.881 5.041 5.221 5.531 5.861 6.231
1707.146 6.721 7.281 7.981 8.651 9.151 9.601 10.001 10.211 10.281 10.531
1726.435 11.021 11.691 12.721 14.281 16.441 19.291 23.181 28.531 35.521 44.811
1745.725 57.111 73.771 95.631 122.821 151.041 172.261 181.551 179.431 165.841 139.481
1765.015 107.781 80.911 61.721 48.191 37.911 30.321 24.801 20.791 17.881 15.631
1784.305 13.991 12.671 11.521 10.501 9.621 8.851 8.161 7.491 6.851 6.321
1803.594 5.851 5.421 5.081 4.841 4.661 4.471 4.341 4.211 4.051 3.891
1822.884 3.731 3.541 3.351 3.191 3.011 2.791 2.591 2.391 2.201 2.061
1842.174 2.011 1.991 1.931 1.891 1.911 1.971 2.021 1.941 1.901 1.881
1861.464 1.871 1.901 1.831 1.791 1.811 1.831 1.831 1.781 1.761 1.731
1880.754 1.681 1.681 1.651 1.641 1.681 1.691 1.731 1.811 1.951 2.091
1900.043 2.131 2.251 2.451 2.541 2.631 2.781 2.861 2.951 2.991 3.071
1919.333 3.171 3.191 3.161 3.161 3.151 3.111 3.061 3.001 2.971 2.891
1938.623 2.791 2.701 2.681 2.641 2.621 2.621 2.591 2.631 2.651 2.611
1957.913 2.481 2.351 2.291 2.321 2.221 2.031 1.921 1.741 1.571 1.511
1977.202 1.421 1.351 1.361 1.331 1.321 1.291 1.181 1.181 1.181 1.1457
1996.492 1.0726 1.0104 1.0634 1.0783 1.0564 1.0635 1.1191 1.1424 1.171 1.281
2015.782 1.341 1.451 1.571 1.691 1.881 2.041 2.131 2.201 2.221 2.191
2035.072 2.191 2.161 2.091 2.031 2.031 2.051 2.001 1.941 1.891 1.831
2054.362 1.761 1.691 1.641 1.631 1.611 1.541 1.541 1.591 1.551 1.461
2073.651 1.291 1.1311 1.0545 0.9879 0.9462 0.9194 0.9114 0.9125 0.8418 0.826
2092.941 0.839 0.7812 0.7579 0.7819 0.7727 0.792 0.8568 0.8453 0.8531 0.867
2112.231 0.7809 0.7212 0.7213 0.6847 0.7026 0.7 0.6898 0.7103 0.7558 0.7892
2131.521 0.7962 0.7926 0.7489 0.793 0.8503 0.8785 0.8646 0.8849 0.9402 0.8993
2150.810 0.8564 0.9246 0.9344 0.8962 0.8987 0.8303 0.7605 0.7355 0.6906 0.6375
2170.100 0.6237 0.6133 0.5651 0.5127 0.5312 0.5253 0.4734 0.4642 0.4224 0.3671
2189.390 0.3769 0.4302 0.4747 0.436 0.4405 0.5064 0.4907 0.493 0.5134 0.5495
2208.680 0.6194 0.6743 0.6845 0.689 0.6577 0.625 0.6444 0.6662 0.6475 0.6133
2227.970 0.6061 0.5895 0.5839 0.5437 0.5163 0.4947 0.4844 0.5084 0.5011 0.4774
2247.259 0.4846 0.4977 0.4778 0.4798 0.4822 0.5304 0.5843 0.6121 0.5185 0.4291
2266.549 0.4638 0.5051 0.5189 0.5224 0.5648 0.536 0.5781 0.5981 0.5902 0.6245
2285.839 0.6076 0.6559 0.6395 0.5624 0.5923 0.691 0.7258 0.6627 0.6861 0.7542
2305.129 0.7743 0.8339 0.8862 0.8486 0.8282 0.9296 0.9738 0.9634 0.9607 0.9865
2324.418 1.0195 0.9427 0.8857 0.8164 0.7318 0.7611 0.7641 0.7637 0.7704 0.8038
2343.708 0.8888 0.9004 0.927 0.9494 0.9628 1.0225 1.0758 1.1187 1.1392 1.181
2362.998 1.251 1.311 1.301 1.251 1.211 1.211 1.241 1.181 1.221 1.261
2382.288 1.241 1.211 1.241 1.381 1.471 1.471 1.451 1.471 1.611 1.781
2401.578 1.831 1.801 1.811 1.851 1.781 1.711 1.781 1.801 1.691 1.691
2420.867 1.771 1.831 1.911 1.971 2.021 2.061 2.131 2.191 2.231 2.191
2440.157 2.191 2.151 2.031 1.941 1.831 1.701 1.631 1.511 1.391 1.331
2459.447 1.181 1.191 1.261 1.251 1.291 1.331 1.271 1.221 1.201 1.171
2478.737 1.241 1.241 1.1584 1.1049 1.0055 0.9819 0.987 0.915 0.8365 0.8212
2498.026 0.8047 0.7731 0.8037 0.8134 0.7936 0.7973 0.8007 0.7531 0.727 0.7479
2517.316 0.8183 0.8271 0.775 0.766 0.7966 0.824 0.8672 0.8312 0.8324 0.8789
2536.606 0.8392 0.8351 0.8385 0.8065 0.8092 0.8625 0.8913 0.8997 0.8658 0.8593
2555.896 0.8869 0.9795 1.0267 1.0362 1.0867 1.0965 1.0341 1.0818 1.1231 1.0935
2575.186 1.1562 1.1112 1.0447 1.0848 1.0781 1.0411 1.0221 0.9659 0.9265 0.9389
2594.475 0.9271 0.9466 0.9753 0.893 0.8484 0.8836 0.9174 0.8523 0.7828 0.8013
2613.765 0.8481 0.7915 0.7151 0.6681 0.5817 0.4904 0.4773 0.556 0.5073 0.4176
2633.055 0.4212 0.4373 0.4229 0.3555 0.3497 0.3577 0.3394 0.2841 0.2452 0.2699
2652.345 0.2648 0.3375 0.3714 0.3626 0.3575 0.3603 0.3391 0.2769 0.25623 0.26003
2671.634 0.3414 0.4079 0.4285 0.4489 0.4572 0.4818 0.5696 0.5396 0.4817 0.6135
2690.924 0.6116 0.4981 0.4547 0.3736 0.3848 0.4194 0.3785 0.3516 0.4285 0.485
2710.214 0.3674 0.3386 0.4033 0.3525 0.2931 0.3681 0.4209 0.3458 0.3316 0.4014
2729.504 0.4258 0.3966 0.3893 0.4192 0.3899 0.4297 0.4803 0.527 0.5896 0.5077
2748.794 0.4654 0.4812 0.4507 0.4171 0.4644 0.4671 0.4479 0.471 0.4985 0.4565
2768.083 0.3472 0.3554 0.3241 0.3339 0.4683 0.446 0.3803 0.4454 0.4826 0.4142
2787.373 0.3229 0.3166 0.2966 0.3358 0.3687 0.3726 0.4395 0.4156 0.318 0.3168
2806.663 0.3324 0.20556 0.21584 0.25998 0.3435 0.4076 0.3485 0.3833 0.4358 0.4703
2825.953 0.4146 0.3725 0.4537 0.5508 0.6046 0.6749 0.7419 0.6841 0.6634 0.6437
2845.242 0.5804 0.6757 0.7371 0.6453 0.5956 0.5973 0.4865 0.4504 0.492 0.447
2864.532 0.4615 0.4615 0.4747 0.4912 0.4734 0.4114 0.4105 0.4654 0.4171 0.4666
2883.822 0.4361 0.3914 0.4596 0.4448 0.3801 0.382 0.4877 0.5383 0.5299 0.5031
2903.112 0.5064 0.5467 0.5301 0.45 0.5114 0.5861 0.5421 0.4725 0.4443 0.5083
2922.401 0.5131 0.5691 0.4616 0.338 0.3437 0.25038 0.2849 0.4668 0.4953 0.4714
2941.691 0.609 0.6474 0.5039 0.4426 0.5494 0.667 0.6696 0.5619 0.4684 0.4095
2960.981 0.3676 0.4016 0.3978 0.372 0.3876 0.4074 0.5458 0.507 0.3995 0.4629
2980.271 0.4235 0.4577 0.5169 0.3824 0.36 0.5197 0.6779 0.6861 0.6631 0.81
2999.561 0.8851 1.0052 1.1351 1.211 1.351 1.541 1.731 1.841 1.941 2.121
3018.850 2.351 2.591 2.711 2.851 3.071 3.211 3.551 3.951 4.291 4.681
3038.140 5.261 5.821 6.341 6.831 7.121 7.241 7.311 7.061 6.771 6.621
3057.430 6.421 6.351 6.391 6.551 6.771 7.051 7.461 8.041 8.671 9.441
3076.720 10.391 11.101 11.281 11.011 10.441 9.591 8.481 7.581 6.921 6.321
3096.009 5.981 5.701 5.271 4.831 4.521 4.311 3.961 3.501 3.021 2.531
3115.299 2.261 1.921 1.551 1.331 1.211 1.171 1.0926 0.9075 0.7387 0.703
3134.589 0.6356 0.595 0.5171 0.4711 0.5393 0.4912 0.4869 0.4722 0.3486 0.3778
3153.879 0.5171 0.5901 0.4563 0.3583 0.462 0.5397 0.461 0.3707 0.4283 0.4232
3173.169 0.3977 0.4022 0.4095 0.5249 0.5902 0.4819 0.395 0.3687 0.4392 0.4566
3192.458 0.4588 0.4524 0.4146 0.4913 0.4358 0.3248 0.2958 0.3806 0.4653 0.4276
3211.748 0.3364 0.2697 0.3436 0.3372 0.3396 0.3282 0.17866 0.20755 0.25856 0.22304
3231.038 0.3204 0.34 0.19955 0.165265 0.0807 0.0794 0.1172 0.1388 0.3172 0.25754
3250.328 0.113 0.25547 0.2722 0.1267 0.1324 0.1082 0.15756 0.3192 0.2912 0.17867
3269.617 0.17771 0.1968 0.16575 0.1353 0.168845 0.1138 0.0661 0.19628 0.19275 0.1508
3288.907 0.167609 0.285 0.4185 0.25258 0.1067 0.15512 0.18535 0.165803 0.19008 0.2163
3308.197 0.24092 0.3996 0.3636 0.18455 0.1236 0.18575 0.0994 0.0705 0.2683 0.2424
3327.487 0.2393 0.17783 0.160468 0.15715 0.059 0.0836 0.1498 0.1465 0.19381 0.1423
3346.777 0.1294 0.26033 0.21157 0.3118 0.3517 0.2748 0.21517 0.168705 0.3186 0.4684
3366.066 0.4391 0.4737 0.5104 0.4925 0.5011 0.388 0.2742 0.2698 0.3265 0.2897
3385.356 0.18616 0.21908 0.17264 0.1123 0.17399 0.170801 0.15836 0.0998 0.20206 0.3047
3404.646 0.16145 0.167795 0.3096 0.2424 0.18876 0.2052 0.20424 0.0972 0.059 0.18543
3423.936 0.24089 0.24856 0.05 0 0.168948 0.1467 0.22954 0.3519 0.307 0.25387
3443.225 0.24675 0.052 0.035 0.2396 0.2781 0.3436 0.4271 0.4144 0.3301 0.3259
3462.515 0.4468 0.4434 0.4236 0.3405 0.2936 0.4345 0.49 0.4893 0.4735 0.4906
3481.805 0.7101 0.821 0.8194 0.8769 0.9103 1.1339 1.381 1.371 1.311 1.341
3501.095 1.361 1.301 1.281 1.191 1.0123 0.9052 0.7903 0.6881 0.68 0.7753
3520.385 0.8447 0.8386 0.8368 0.7732 0.7244 0.8414 0.8372 0.8648 0.8431 0.7852
3539.674 0.8562 0.7376 0.6789 0.7625 0.7896 0.8942 1.0609 1.181 1.361 1.541
3558.964 1.851 2.381 2.891 3.501 4.521 6.321 8.641 11.771 16.861 24.401
3578.254 34.531 46.411 56.391 60.381 58.381 51.861 40.951 27.721 16.581 9.791
3597.544 6.391 4.741 3.631 2.661 2.101 1.831 1.491 1.461 1.391 1.1248
3616.833 0.9134 0.8636 0.8256 0.8023 0.7485 0.6389 0.6106 0.6385 0.6554 0.6207
3636.123 0.5954 0.4823 0.6064 0.6663 0.5809 0.4724 0.3817 0.3847 0.3048 0.22793
3655.413 0.3234 0.4091 0.4867 0.6419 0.5612 0.4462 0.4329 0.5558 0.7173 0.6212
3674.703 0.5572 0.4802 0.3673 0.4414 0.4897 0.4164 0.4995 0.5584 0.4671 0.4696
3693.993 0.3435 0.3674 0.5999 0.6301 0.5846 0.5211 0.4629 0.4653 0.3089 0.2781
3713.282 0.4019 0.4245 0.3842 0.3344 0.2698 0.22225 0.17181 0.3215 0.4802 0.22084
3732.572 0.24943 0.3895 0.3357 0.408 0.427 0.25539 0.2845 0.4445 0.3717 0.2876
3751.862 0.2649 0.3198 0.23406 0.21805 0.3005 0.32 0.4115 0.3934 0.2763 0.22833
3771.152 0.23267 0.1151 0.1263 0.23421 0.2278 0.24592 0.18618 0.22769 0.3244 0.3156
3790.441 0.24979 0.2687 0.3733 0.3022 0.22676 0.2792 0.4229 0.4321 0.2948 0.2874
3809.731 0.3923 0.2782 0.027 0.1046 0.3277 0.4008 0.3889 0.3465 0.2937 0.3101
3829.021 0.21567 0.1243 0.268 0.23576 0.17998 0.3049 0.3058 0.2632 0.21454 0.2334
3848.311 0.3473 0.3987 0.3305 0.296 0.404 0.3272 0.25559 0.2792 0.15517 0.1274
3867.601 0.20078 0.046 0.029 0.1208 0.014 0.1265 0.2274 0.3078 0.3203 0.22793
3886.890 0.3133 0.2848 0.1256 0.0915 0.15519 0.15238 0.15528 0.18449 0.22773 0.296
3906.180 0.23568 0.1399 0.20808 0.17922 0.0978 0.20396 0.3947 0.3872 0.308 0.3254
3925.470 0.24561 0.1169 0.1312 0.3329 0.3658 0.3088 0.2842 0.19971 0.1591 0.17731
3944.760 0.2484 0.25643 0.1482 0.052 0.17679 0.3692 0.3586 0.17584 0.0954 0.119
3964.049 0.24675 0.309 0.17646 0.1317 0.18537 0.3112 0.5326 0.4945 0.2915 0.3972
3983.339 0.3209 0.0657 0.15885 0.2666 0.2765 0.3274 0.2703 0.23292 0.318 0.4034
##END=
