##TITLE=N,N-Diethyl-4-nitroaniline
##JCAMP-DX=4.24
##DATA TYPE=INFRARED SPECTRUM
##ORIGIN=EPA-IR VAPOR PHASE LIBRARY
##OWNER=SRD/NIST
Collection (C) 2018 copyright by the U.S. Secretary of Commerce
on behalf of the United States of America. All rights reserved.
##CAS REGISTRY NO=2216-15-1
##MOLFORM=C 10 H 14 N 2 O 2
##$NIST SOURCE=MSDC-IR
##STATE=gas
##XUNITS=1/CM
##YUNITS=ABSORBANCE
##XFACTOR=1.
##YFACTOR=0.001
##DELTAX=1.92898
##FIRSTX=549.8
##LASTX=4000.7
##FIRSTY=3.349
##MAXX=4000.7
##MINX=549.759
##MAXY=0.392349
##MINY=0
##NPOINTS=1790
##XYDATA=(X++(Y..Y))
549.759 3.349 3.389 3.399 2.859 2.409 2.519 2.539 2.589 2.329 2.389
569.049 2.359 2.289 2.679 2.889 3.299 3.689 3.989 4.619 5.769 7.319
588.339 8.759 9.729 10.689 11.709 12.349 12.369 11.649 10.809 9.919 8.749
607.628 7.779 6.869 6.009 5.369 4.699 4.179 3.929 3.829 3.559 3.259
626.918 3.299 3.489 3.509 3.429 3.299 3.099 3.019 2.849 2.539 2.469
646.208 2.469 2.239 2.089 2.129 2.309 2.209 2.039 2.269 2.219 2.059
665.498 2.129 2.309 2.409 2.729 3.379 4.009 4.659 5.479 6.379 7.459
684.787 8.519 9.299 9.879 10.049 9.729 9.179 8.539 7.779 6.959 6.249
704.077 5.569 4.869 4.299 3.859 3.529 3.369 3.529 3.869 4.519 5.669
723.367 7.299 9.369 11.209 12.369 13.059 13.459 13.419 12.909 12.639 13.009
742.657 13.979 15.349 17.049 19.209 20.529 19.409 16.929 14.959 13.129 10.929
761.947 8.649 6.939 5.539 4.449 3.949 3.629 3.629 3.869 4.109 4.659
781.236 5.289 5.749 6.499 7.269 7.949 8.559 8.829 8.909 8.859 8.679
800.526 8.439 8.289 8.249 8.329 9.049 10.339 12.099 14.429 17.439 20.899
819.816 24.409 28.119 31.919 34.649 35.219 33.929 31.649 28.939 26.229 23.659
839.106 21.549 20.469 21.099 24.159 29.319 34.679 37.809 38.709 38.079 35.499
858.395 30.199 22.719 15.779 11.029 8.269 6.809 5.739 5.039 4.699 4.329
877.685 4.029 3.929 3.989 4.009 4.109 4.469 5.049 5.659 6.059 6.439
896.975 6.799 6.839 6.629 6.289 5.689 5.059 4.449 3.899 3.439 3.179
916.265 3.079 2.869 2.739 2.749 2.819 2.829 2.749 2.769 2.839 2.939
935.555 3.029 3.189 3.449 3.559 3.699 3.969 4.189 4.189 4.089 3.869
954.844 3.539 3.329 3.169 3.179 3.229 3.109 3.179 3.109 3.109 3.339
974.134 3.439 3.559 3.659 3.889 4.149 4.329 4.709 5.289 5.939 6.909
993.424 8.279 9.649 11.079 12.769 14.449 15.829 17.229 18.439 19.329 19.749
1012.714 19.589 19.329 18.699 17.419 16.079 14.829 13.529 12.239 11.089 10.499
1032.003 10.089 9.709 9.549 9.379 9.339 9.369 9.549 9.859 10.219 10.809
1051.293 11.479 12.159 13.089 14.059 14.979 16.509 18.359 20.139 22.229 23.949
1070.583 25.559 26.959 27.739 28.069 27.469 26.609 25.749 24.599 23.759 23.699
1089.873 24.359 25.499 27.099 28.799 31.149 35.309 41.189 49.949 61.959 77.129
1109.163 92.779 104.059 109.309 108.599 102.129 88.639 69.559 50.219 35.409 26.159
1128.452 20.869 17.569 15.359 14.419 14.399 14.869 15.729 17.269 19.479 21.689
1147.742 23.799 25.519 26.409 26.599 26.069 24.679 22.619 20.379 18.419 16.919
1167.032 16.399 16.469 16.899 18.079 19.919 22.319 24.969 28.169 32.159 36.639
1186.322 41.369 46.539 51.289 55.379 58.169 58.949 57.799 54.469 49.669 43.699
1205.611 37.229 31.399 26.789 23.269 20.919 19.249 18.069 17.359 16.709 16.389
1224.901 16.399 16.519 16.569 17.019 17.829 18.909 20.359 21.879 23.819 25.959
1244.191 28.589 32.369 37.049 42.679 49.649 58.349 69.129 81.959 96.009 109.819
1263.481 121.699 129.589 132.099 128.829 120.329 107.449 92.109 76.879 63.579 53.289
1282.771 45.899 40.969 37.819 35.879 34.929 34.699 35.009 35.769 37.009 38.749
1302.060 40.969 43.739 47.139 51.189 55.919 61.439 67.899 75.499 84.409 94.909
1321.350 107.419 122.609 141.219 164.059 192.029 225.419 263.609 304.039 342.449 373.199
1340.640 390.919 392.349 376.559 344.769 300.559 250.379 201.659 159.569 126.209 101.319
1359.930 83.479 70.869 62.039 56.199 52.549 50.699 50.529 51.919 54.459 57.419
1379.219 60.029 61.549 61.839 60.969 58.819 55.679 52.429 49.649 47.459 45.699
1398.509 44.169 42.459 40.429 38.019 35.239 32.339 29.499 26.889 24.769 23.179
1417.799 22.059 21.359 20.959 20.629 20.499 20.469 20.439 20.429 20.429 20.399
1437.089 20.389 20.399 20.429 20.539 20.749 21.039 21.429 21.879 22.429 22.999
1456.378 23.549 24.059 24.579 25.119 25.619 26.109 26.679 27.239 27.759 28.199
1475.668 28.599 29.169 29.899 30.869 32.259 34.239 37.309 41.649 47.779 56.189
1494.958 67.409 82.089 99.569 119.159 138.869 156.109 170.299 180.049 184.329 183.729
1514.248 179.159 172.219 164.719 157.939 151.229 144.559 136.889 128.149 118.219 107.239
1533.538 95.819 84.569 74.449 64.879 56.449 49.619 44.139 39.929 36.839 34.459
1552.827 32.839 31.739 31.239 31.209 31.429 32.159 33.679 35.969 39.399 44.099
1572.117 50.019 57.419 66.969 78.499 91.749 107.539 125.639 146.119 168.079 190.549
1591.407 211.559 228.679 239.239 240.909 232.549 214.559 189.489 161.279 133.689 108.709
1610.697 87.999 71.699 59.439 49.969 42.579 37.149 32.939 29.539 26.789 24.389
1629.986 22.279 20.419 18.729 17.159 15.659 14.429 13.279 12.299 11.519 10.749
1649.276 10.019 9.509 8.949 8.239 7.659 7.089 6.609 6.219 5.779 5.429
1668.566 5.129 4.869 4.619 4.449 4.339 4.209 4.079 3.949 3.849 3.749
1687.856 3.719 3.679 3.529 3.429 3.389 3.299 3.279 3.269 3.169 3.149
1707.146 3.219 3.189 3.149 3.169 3.179 3.169 3.229 3.319 3.369 3.439
1726.435 3.649 3.809 3.879 3.979 4.109 4.179 4.189 4.259 4.319 4.309
1745.725 4.279 4.199 4.019 3.789 3.449 3.139 2.949 2.759 2.569 2.459
1765.015 2.359 2.259 2.259 2.309 2.299 2.249 2.239 2.219 2.229 2.269
1784.305 2.219 2.169 2.159 2.139 2.129 2.119 2.099 2.109 2.089 1.989
1803.594 1.949 1.939 1.859 1.819 1.789 1.739 1.729 1.719 1.699 1.699
1822.884 1.719 1.749 1.789 1.859 1.959 2.029 2.149 2.299 2.469 2.639
1842.174 2.819 2.959 2.979 2.939 2.889 2.759 2.579 2.449 2.389 2.309
1861.464 2.249 2.259 2.259 2.279 2.339 2.449 2.549 2.609 2.709 2.899
1880.754 3.099 3.319 3.549 3.789 3.949 4.149 4.409 4.479 4.419 4.369
1900.043 4.269 4.079 3.809 3.519 3.219 2.909 2.599 2.329 2.089 1.959
1919.333 1.889 1.759 1.709 1.669 1.609 1.559 1.549 1.559 1.579 1.629
1938.623 1.609 1.609 1.629 1.619 1.619 1.619 1.639 1.679 1.699 1.699
1957.913 1.709 1.749 1.749 1.709 1.709 1.709 1.699 1.679 1.669 1.669
1977.202 1.689 1.709 1.759 1.869 1.929 1.999 2.049 2.079 2.139 2.189
1996.492 2.189 2.169 2.169 2.079 1.939 1.769 1.589 1.469 1.339 1.219
2015.782 1.1919 1.1162 0.9954 0.9532 0.9468 0.907 0.8398 0.783 0.7415 0.7433
2035.072 0.7852 0.7767 0.7737 0.7582 0.7869 0.8218 0.8287 0.7978 0.766 0.8619
2054.362 0.9272 0.9118 0.9423 0.9798 1.0252 1.0641 1.049 1.0845 1.1555 1.1992
2073.651 1.2004 1.1779 1.1981 1.239 1.249 1.269 1.339 1.359 1.409 1.469
2092.941 1.479 1.559 1.639 1.699 1.809 1.889 1.859 1.859 1.929 1.929
2112.231 1.929 1.859 1.639 1.549 1.609 1.559 1.409 1.329 1.339 1.289
2131.521 1.229 1.1455 1.0877 1.0768 0.981 0.8638 0.8076 0.8212 0.8383 0.8006
2150.810 0.7899 0.8571 0.9012 0.832 0.7895 0.83 0.8793 0.9253 0.9023 0.8949
2170.100 0.9297 0.9531 0.9587 0.9519 0.9885 1.0047 1.0223 1.0591 1.0398 1.0491
2189.390 1.1173 1.1545 1.1685 1.1609 1.1062 1.1009 1.1393 1.1091 1.0393 1.0329
2208.680 1.0686 1.1499 1.1578 1.1167 1.239 1.289 1.289 1.329 1.329 1.439
2227.970 1.509 1.489 1.459 1.459 1.409 1.329 1.299 1.239 1.249 1.239
2247.259 1.1885 1.1181 1.058 1.0538 1.0276 0.9714 0.9551 0.9363 0.924 0.938
2266.549 0.9958 0.9537 0.8873 0.9328 0.9096 0.8579 0.8978 0.9178 0.9248 0.9652
2285.839 0.9401 0.9563 0.9981 1.0345 1.0814 1.0625 1.0693 1.1337 1.2039 1.249
2305.129 1.2185 1.219 1.309 1.369 1.389 1.429 1.489 1.519 1.569 1.649
2324.418 1.639 1.669 1.689 1.609 1.529 1.549 1.609 1.549 1.479 1.489
2343.708 1.539 1.529 1.489 1.389 1.349 1.389 1.379 1.379 1.349 1.339
2362.998 1.459 1.579 1.609 1.539 1.539 1.609 1.689 1.699 1.709 1.769
2382.288 1.819 1.829 1.809 1.739 1.709 1.799 1.749 1.699 1.709 1.669
2401.578 1.669 1.679 1.669 1.699 1.689 1.609 1.629 1.679 1.739 1.779
2420.867 1.789 1.839 1.919 1.959 2.039 2.169 2.359 2.519 2.679 2.889
2440.157 3.019 3.249 3.499 3.649 3.789 3.899 3.959 3.989 3.949 3.799
2459.447 3.639 3.399 3.169 2.979 2.789 2.669 2.599 2.429 2.269 2.199
2478.737 2.159 2.149 2.109 2.019 1.969 2.009 2.079 2.079 2.059 2.129
2498.026 2.179 2.149 2.119 2.149 2.229 2.259 2.269 2.219 2.169 2.159
2517.316 2.129 2.019 1.979 1.999 2.039 2.099 2.039 2.049 2.109 2.109
2536.606 2.119 2.159 2.199 2.219 2.179 2.139 2.229 2.269 2.289 2.399
2555.896 2.419 2.389 2.409 2.399 2.409 2.369 2.329 2.359 2.419 2.439
2575.186 2.489 2.559 2.509 2.589 2.749 2.919 3.039 3.199 3.449 3.519
2594.475 3.599 3.829 4.059 4.159 4.199 4.279 4.259 4.209 4.189 4.059
2613.765 3.889 3.709 3.529 3.319 3.199 3.169 3.149 3.149 3.139 3.209
2633.055 3.219 3.169 3.219 3.329 3.399 3.419 3.369 3.339 3.379 3.339
2652.345 3.309 3.349 3.229 3.149 3.139 3.049 2.949 2.879 2.869 2.839
2671.634 2.769 2.729 2.729 2.749 2.789 2.819 2.809 2.799 2.789 2.759
2690.924 2.779 2.839 2.879 2.829 2.729 2.669 2.709 2.819 2.809 2.729
2710.214 2.729 2.729 2.759 2.779 2.709 2.669 2.609 2.529 2.469 2.479
2729.504 2.549 2.539 2.539 2.609 2.729 2.809 2.799 2.789 2.769 2.779
2748.794 2.739 2.709 2.779 2.849 2.909 2.929 2.969 2.999 3.079 3.219
2768.083 3.309 3.399 3.499 3.569 3.689 3.709 3.739 3.909 3.999 4.059
2787.373 4.169 4.309 4.569 4.749 4.849 4.979 5.169 5.419 5.639 5.829
2806.663 6.099 6.329 6.639 6.959 7.229 7.569 7.939 8.379 8.839 9.289
2825.953 9.689 10.079 10.559 11.079 11.559 11.999 12.379 12.769 13.219 13.639
2845.242 14.059 14.529 15.039 15.569 16.009 16.289 16.669 17.239 17.809 18.279
2864.532 18.849 19.609 20.379 21.209 22.209 23.409 24.799 26.229 27.489 28.559
2883.822 29.399 29.959 30.289 30.259 29.909 29.549 29.079 28.539 28.169 27.939
2903.112 27.739 27.519 27.349 27.199 27.019 26.759 26.389 26.159 26.289 26.549
2922.401 26.959 27.729 28.899 30.459 32.429 34.749 37.269 39.729 42.029 43.949
2941.691 45.229 45.449 44.659 43.239 41.159 38.679 36.179 34.109 32.739 32.029
2960.981 32.169 33.349 35.459 38.399 42.259 46.839 51.799 57.069 62.509 67.469
2980.271 71.489 73.939 73.879 71.409 66.849 60.599 53.299 45.679 38.639 32.609
2999.561 27.659 23.669 20.419 17.889 15.889 14.149 12.739 11.649 10.809 9.999
3018.850 9.289 8.649 8.089 7.609 7.169 6.999 6.709 6.399 6.229 6.089
3038.140 5.909 5.629 5.439 5.349 5.289 5.239 5.159 5.089 4.989 4.999
3057.430 5.079 4.979 4.949 5.069 5.219 5.359 5.439 5.609 5.839 6.129
3076.720 6.509 6.909 7.269 7.669 8.169 8.659 9.149 9.399 9.529 9.599
3096.009 9.359 9.009 8.499 7.869 7.179 6.469 5.969 5.619 5.439 5.239
3115.299 5.039 4.729 4.389 4.199 3.949 3.579 3.249 2.979 2.749 2.519
3134.589 2.299 2.199 2.169 2.169 2.119 1.989 1.799 1.759 1.709 1.689
3153.879 1.709 1.659 1.659 1.659 1.609 1.639 1.689 1.779 1.819 1.799
3173.169 1.839 1.879 1.999 2.009 2.039 2.249 2.239 2.099 2.049 2.029
3192.458 1.969 1.919 1.889 1.729 1.729 1.599 1.389 1.329 1.1673 1.1275
3211.748 1.1428 1.0559 1.0059 1.0891 1.0219 0.9096 0.8762 0.8098 0.7507 0.7138
3231.038 0.6753 0.625 0.6408 0.6947 0.6842 0.5896 0.5385 0.629 0.6444 0.4754
3250.328 0.4923 0.6178 0.567 0.4414 0.4165 0.4468 0.5198 0.477 0.4039 0.5256
3269.617 0.5057 0.3951 0.4049 0.4778 0.5252 0.5004 0.4027 0.3332 0.4725 0.5657
3288.907 0.5609 0.5653 0.5231 0.5038 0.321 0.29847 0.4523 0.4071 0.3665 0.4188
3308.197 0.3944 0.3747 0.4272 0.4212 0.4038 0.4653 0.5083 0.576 0.5827 0.3939
3327.487 0.3322 0.3892 0.386 0.29754 0.26113 0.3535 0.418 0.4139 0.4022 0.3474
3346.777 0.31358 0.3217 0.27503 0.30564 0.30498 0.24087 0.3646 0.3903 0.4008 0.5126
3366.066 0.4738 0.3934 0.357 0.30968 0.31199 0.3407 0.29839 0.25135 0.234 0.3879
3385.356 0.4585 0.3784 0.3713 0.3377 0.368 0.4262 0.4773 0.505 0.4376 0.4344
3404.646 0.349 0.3748 0.3315 0.2004 0.31371 0.3907 0.3457 0.3561 0.3802 0.3861
3423.936 0.3966 0.29269 0.25405 0.24442 0.23728 0.30991 0.3352 0.3781 0.4092 0.4036
3443.225 0.321 0.29306 0.3342 0.30466 0.4686 0.5685 0.3554 0.220114 0.1399 0.072
3462.515 0.24253 0.3756 0.29526 0.23645 0.228644 0.3632 0.4457 0.3668 0.3752 0.3921
3481.805 0.4504 0.5668 0.5944 0.4712 0.29188 0.221796 0.3844 0.4725 0.3271 0.23506
3501.095 0.30033 0.30489 0.3333 0.3364 0.29467 0.27234 0.3504 0.4358 0.3476 0.3545
3520.385 0.3414 0.28946 0.27163 0.3255 0.3733 0.25892 0.27326 0.4031 0.3924 0.3605
3539.674 0.29131 0.25916 0.3905 0.4495 0.4015 0.3526 0.3272 0.3821 0.4255 0.3967
3558.964 0.30419 0.29083 0.3941 0.26795 0.1656 0.223074 0.349 0.3338 0.1839 0.1281
3578.254 0.21255 0.29638 0.1914 0.1759 0.1922 0.3489 0.4099 0.23103 0.23551 0.24547
3597.544 0.047 0 0.21469 0.30349 0.3218 0.3645 0.352 0.3829 0.3772 0.3234
3616.833 0.3417 0.3374 0.331 0.3999 0.3839 0.3206 0.3486 0.31171 0.24989 0.23172
3636.123 0.26466 0.23633 0.14 0.25377 0.4584 0.4936 0.3799 0.24871 0.1921 0.27945
3655.413 0.24066 0.2046 0.3544 0.3562 0.28124 0.26282 0.26891 0.23055 0.227172 0.3339
3674.703 0.2955 0.3271 0.4531 0.4467 0.4513 0.397 0.3766 0.4828 0.5091 0.4168
3693.993 0.4499 0.5777 0.5428 0.5165 0.5821 0.5124 0.4465 0.4709 0.4575 0.5092
3713.282 0.5216 0.5167 0.496 0.507 0.501 0.4475 0.5575 0.5758 0.4978 0.4856
3732.572 0.4415 0.5181 0.6601 0.5765 0.481 0.4972 0.5673 0.5293 0.4916 0.561
3751.862 0.6084 0.5637 0.4688 0.3398 0.3633 0.5293 0.4986 0.5586 0.5669 0.4137
3771.152 0.3669 0.385 0.383 0.4273 0.5186 0.5246 0.4666 0.5089 0.5562 0.4814
3790.441 0.395 0.2804 0.3838 0.5632 0.4825 0.3984 0.3793 0.3597 0.3875 0.3546
3809.731 0.3864 0.5253 0.4939 0.3915 0.31549 0.4295 0.5475 0.4212 0.3431 0.3421
3829.021 0.3385 0.31567 0.3841 0.3706 0.3247 0.42 0.604 0.5581 0.3678 0.4057
3848.311 0.3917 0.3784 0.4893 0.5083 0.4658 0.5486 0.6239 0.4401 0.25422 0.3843
3867.601 0.3805 0.4019 0.504 0.4283 0.4387 0.341 0.30447 0.4202 0.3885 0.4508
3886.890 0.4638 0.3834 0.3717 0.3263 0.30787 0.3499 0.30934 0.23368 0.25318 0.3805
3906.180 0.5346 0.5613 0.6107 0.503 0.4028 0.3603 0.3598 0.4178 0.4799 0.597
3925.470 0.5803 0.6909 0.7793 0.6203 0.5388 0.5153 0.4588 0.3632 0.226755 0.3843
3944.760 0.5899 0.5098 0.5241 0.5617 0.5168 0.4396 0.3273 0.394 0.4738 0.4335
3964.049 0.5552 0.5679 0.3528 0.3881 0.5757 0.5919 0.5379 0.5511 0.5663 0.6078
3983.339 0.6315 0.6505 0.7741 0.6924 0.6172 0.6921 0.6641 0.7246 0.8053 0.6497
##END=
