##TITLE=p-Methylbenzyl acetate
##JCAMP-DX=4.24
##DATA TYPE=INFRARED SPECTRUM
##ORIGIN=EPA-IR VAPOR PHASE LIBRARY
##OWNER=SRD/NIST
Collection (C) 2018 copyright by the U.S. Secretary of Commerce
on behalf of the United States of America. All rights reserved.
##CAS REGISTRY NO=2216-45-7
##MOLFORM=C 10 H 12 O 2
##$NIST SOURCE=MSDC-IR
##STATE=gas
##XUNITS=1/CM
##YUNITS=ABSORBANCE
##XFACTOR=1.
##YFACTOR=0.001
##DELTAX=1.92898
##FIRSTX=549.8
##LASTX=4000.7
##FIRSTY=7.855
##MAXX=4000.7
##MINX=549.759
##MAXY=0.277605
##MINY=0
##NPOINTS=1790
##XYDATA=(X++(Y..Y))
549.759 7.855 7.505 7.255 6.585 5.775 5.485 4.925 4.195 3.925 3.595
569.049 2.915 2.575 2.455 2.145 2.175 2.495 2.485 2.435 2.575 2.725
588.339 3.095 3.235 3.285 3.455 3.585 3.925 4.285 4.505 4.655 4.875
607.628 5.025 4.945 4.785 4.845 4.835 4.755 4.795 4.805 4.805 4.715
626.918 4.465 4.455 4.565 4.575 4.605 4.385 4.295 4.335 3.965 3.645
646.208 3.565 3.315 2.925 2.595 2.285 2.025 1.815 1.755 1.755 1.585
665.498 1.309 1.2151 1.2395 1.0925 1.0827 1.0187 0.9575 0.9924 0.9134 0.8658
684.787 0.8331 0.9497 0.9994 0.9408 1.0104 1.0049 1.0496 1.1519 1.1147 1.1173
704.077 1.2198 1.445 1.605 1.645 1.635 1.625 1.595 1.465 1.455 1.615
723.367 1.805 2.025 2.175 2.325 2.605 2.925 3.215 3.605 4.245 4.825
742.657 5.375 5.825 6.245 6.735 7.075 7.215 7.205 7.105 6.785 6.595
761.947 6.545 6.375 6.355 6.635 6.795 6.995 7.455 7.965 8.555 9.245
781.236 10.165 11.305 12.705 14.105 15.365 16.905 18.675 20.315 21.895 23.495
800.526 24.635 25.335 25.475 24.745 23.735 22.615 20.915 19.075 17.225 15.575
819.816 14.125 12.835 11.905 11.285 11.045 10.845 10.625 10.735 11.045 11.225
839.106 11.385 11.595 11.565 11.355 11.015 10.455 9.855 9.145 8.355 7.785
858.395 7.145 6.565 6.165 5.745 5.565 5.355 4.995 4.755 4.605 4.565
877.685 4.505 4.425 4.485 4.505 4.615 4.885 5.055 5.225 5.515 5.865
896.975 6.145 6.415 6.595 6.805 7.105 7.225 7.255 7.275 7.395 7.495
916.265 7.355 7.085 7.095 7.215 7.115 7.085 7.215 7.445 7.655 7.965
935.555 8.395 8.715 8.945 9.115 9.425 9.755 10.135 10.505 10.875 11.515
954.844 12.345 13.285 14.305 15.295 16.075 16.565 16.965 17.315 17.325 17.045
974.134 16.625 16.195 15.705 15.205 14.825 14.745 15.025 15.555 16.345 17.665
993.424 19.235 21.055 23.315 25.825 28.815 31.955 35.185 38.825 42.695 46.795
1012.714 50.845 54.405 56.785 57.885 58.955 59.915 60.235 59.675 58.175 56.675
1032.003 55.585 54.105 52.035 49.605 46.585 43.405 40.085 36.605 33.485 30.965
1051.293 28.645 26.635 25.175 24.075 22.935 21.555 20.785 20.445 19.765 19.105
1070.583 18.925 18.725 18.175 17.875 17.785 17.615 17.375 16.925 16.495 16.075
1089.873 15.745 15.285 14.515 13.755 13.265 12.925 12.525 12.025 11.665 11.215
1109.163 10.485 10.005 10.005 9.455 8.845 8.465 8.105 8.005 7.685 7.205
1128.452 6.665 6.515 6.465 6.295 6.205 5.815 5.685 5.725 5.555 5.565
1147.742 5.715 5.815 5.945 6.125 6.135 6.405 6.835 7.005 7.465 8.375
1167.032 9.215 9.935 10.995 12.855 15.385 18.695 22.035 24.265 25.755 27.375
1186.322 29.265 30.935 31.835 33.145 36.005 40.135 45.705 52.805 61.255 71.315
1205.611 82.915 95.965 111.775 130.715 152.145 175.775 201.345 226.445 248.255 264.905
1224.901 274.935 277.605 272.685 260.495 241.965 219.515 196.085 173.615 152.965 134.615
1244.191 118.515 104.475 93.065 84.245 77.225 71.805 67.225 62.765 58.245 53.645
1263.481 49.245 44.595 39.905 35.865 32.175 28.925 26.365 24.245 22.255 20.575
1282.771 19.195 17.845 16.625 15.495 14.475 13.485 12.565 11.795 11.085 10.505
1302.060 9.975 9.525 9.155 8.765 8.435 8.135 7.915 7.805 7.655 7.485
1321.350 7.335 7.245 7.225 7.215 7.225 7.265 7.375 7.515 7.775 8.155
1340.640 8.605 9.245 10.135 11.335 12.925 15.055 18.005 21.875 26.475 30.975
1359.930 34.275 36.275 37.615 38.775 39.225 38.425 37.205 36.535 36.655 37.245
1379.219 37.575 37.375 36.445 34.645 32.075 28.995 25.815 22.755 19.885 17.415
1398.509 15.355 13.685 12.385 11.305 10.505 9.905 9.525 9.285 9.145 9.085
1417.799 9.075 9.145 9.215 9.295 9.435 9.565 9.685 9.785 9.965 10.165
1437.089 10.345 10.605 10.865 11.095 11.375 11.675 11.965 12.215 12.425 12.565
1456.378 12.665 12.745 12.715 12.605 12.395 12.085 11.655 11.165 10.635 10.085
1475.668 9.535 9.035 8.665 8.305 8.135 8.025 7.915 7.905 7.975 8.095
1494.958 8.285 8.645 9.075 9.545 10.205 11.135 12.445 14.075 15.905 17.715
1514.248 19.155 19.895 19.785 19.015 17.735 15.965 13.525 10.945 8.905 7.485
1533.538 6.555 5.925 5.525 5.305 5.075 4.865 4.655 4.425 4.255 4.155
1552.827 4.105 3.965 3.835 3.865 3.805 3.645 3.615 3.625 3.625 3.665
1572.117 3.675 3.735 3.755 3.735 3.745 3.745 3.765 3.765 3.765 3.825
1591.407 3.925 4.035 4.155 4.195 4.305 4.545 4.715 4.875 5.115 5.375
1610.697 5.645 5.765 5.865 5.975 5.945 5.845 5.745 5.525 5.215 4.955
1629.986 4.715 4.535 4.435 4.285 4.195 4.145 4.075 4.075 4.085 4.055
1649.276 3.985 3.995 4.025 3.995 3.985 4.025 4.055 4.055 4.075 4.125
1668.566 4.215 4.225 4.185 4.265 4.415 4.485 4.525 4.605 4.725 4.935
1687.856 5.265 5.565 5.915 6.245 6.575 6.865 7.165 7.525 7.785 8.055
1707.146 8.395 8.875 9.495 10.215 11.055 12.035 13.125 14.355 15.755 17.355
1726.435 19.145 21.215 23.685 26.535 30.005 33.985 38.515 44.035 50.255 57.505
1745.725 65.865 75.405 86.125 98.285 111.385 124.165 135.355 143.245 147.165 147.485
1765.015 144.385 137.305 126.075 112.835 99.365 87.315 76.735 67.355 59.015 51.535
1784.305 44.945 39.105 34.095 29.665 25.815 22.515 19.775 17.435 15.415 13.725
1803.594 12.345 11.195 10.315 9.545 8.855 8.335 7.945 7.585 7.255 6.945
1822.884 6.615 6.315 5.995 5.605 5.265 4.965 4.675 4.365 4.095 3.885
1842.174 3.715 3.575 3.405 3.265 3.205 3.125 3.055 2.965 2.915 2.905
1861.464 2.885 2.875 2.815 2.825 2.835 2.825 2.855 2.895 2.995 3.145
1880.754 3.235 3.295 3.355 3.365 3.405 3.475 3.475 3.455 3.475 3.475
1900.043 3.385 3.275 3.175 3.005 2.815 2.665 2.545 2.455 2.345 2.155
1919.333 2.065 2.045 2.045 2.025 1.935 1.875 1.865 1.835 1.805 1.755
1938.623 1.665 1.665 1.655 1.615 1.625 1.585 1.555 1.545 1.495 1.485
1957.913 1.535 1.525 1.475 1.485 1.515 1.455 1.3898 1.445 1.515 1.525
1977.202 1.465 1.4067 1.435 1.505 1.525 1.495 1.475 1.465 1.505 1.515
1996.492 1.475 1.475 1.465 1.475 1.485 1.435 1.445 1.535 1.555 1.535
2015.782 1.525 1.505 1.485 1.465 1.435 1.475 1.465 1.455 1.525 1.545
2035.072 1.565 1.555 1.555 1.605 1.625 1.625 1.605 1.615 1.645 1.655
2054.362 1.665 1.675 1.695 1.705 1.705 1.665 1.595 1.565 1.495 1.3892
2073.651 1.3223 1.3484 1.3521 1.3374 1.3394 1.2771 1.1783 1.1829 1.2113 1.1835
2092.941 1.1623 1.1112 1.0762 1.0763 1.1014 1.1787 1.1537 1.08 1.0723 1.0505
2112.231 1.0282 1.0537 1.0849 1.1211 1.1661 1.17 1.1811 1.1632 1.1174 1.135
2131.521 1.1567 1.2361 1.3185 1.2608 1.2062 1.2075 1.1849 1.2392 1.26 1.1698
2150.810 1.102 1.0752 1.073 1.0257 0.9702 0.9575 0.9485 0.8973 0.8652 0.9059
2170.100 0.8678 0.7903 0.77 0.7494 0.7313 0.7592 0.7523 0.746 0.7446 0.7538
2189.390 0.7935 0.7908 0.8122 0.8128 0.7932 0.826 0.917 0.9422 0.9325 0.9549
2208.680 0.9973 0.9901 0.9153 0.9087 0.9412 0.9299 0.8871 0.8749 0.86 0.8213
2227.970 0.7772 0.755 0.7338 0.7101 0.7113 0.6804 0.664 0.7146 0.7166 0.686
2247.259 0.6679 0.6303 0.652 0.6798 0.6418 0.5767 0.5583 0.6044 0.6239 0.621
2266.549 0.6405 0.6382 0.5779 0.5836 0.5934 0.5755 0.5741 0.5962 0.7026 0.7165
2285.839 0.6717 0.6614 0.6914 0.7078 0.6917 0.7257 0.7893 0.7878 0.7503 0.7694
2305.129 0.7999 0.7916 0.8044 0.8292 0.7906 0.8125 0.8217 0.8042 0.7847 0.7303
2324.418 0.737 0.7409 0.6505 0.6416 0.7411 0.7963 0.7392 0.6561 0.7061 0.6867
2343.708 0.6443 0.5666 0.5262 0.5187 0.51039 0.5555 0.51382 0.5297 0.5562 0.5506
2362.998 0.606 0.6175 0.5853 0.5225 0.44228 0.46374 0.51253 0.6098 0.6609 0.6141
2382.288 0.627 0.5978 0.5727 0.6267 0.6159 0.6229 0.6681 0.6678 0.6919 0.7164
2401.578 0.683 0.6334 0.6286 0.6911 0.7141 0.7646 0.7997 0.7984 0.7823 0.792
2420.867 0.8093 0.7826 0.7932 0.8011 0.8592 0.8599 0.8092 0.8216 0.8834 0.9351
2440.157 0.9241 0.9096 0.8905 0.8561 0.8846 0.9426 0.9814 0.9658 0.9298 0.9033
2459.447 0.8867 0.8841 0.8877 0.9334 0.9492 0.8958 0.8723 0.925 0.9211 0.8458
2478.737 0.7853 0.8147 0.76 0.6855 0.6823 0.6692 0.6455 0.5756 0.5491 0.6164
2498.026 0.6265 0.5181 0.43815 0.49771 0.577 0.5277 0.48454 0.43567 0.4314 0.43627
2517.316 0.42987 0.424585 0.3636 0.3494 0.3992 0.40532 0.3929 0.3902 0.3508 0.363
2536.606 0.418702 0.43301 0.3672 0.293 0.313 0.3776 0.45296 0.45578 0.40883 0.4045
2555.896 0.46467 0.5392 0.50523 0.48061 0.4875 0.50793 0.5063 0.5643 0.5926 0.6074
2575.186 0.6628 0.6495 0.7196 0.718 0.7136 0.7381 0.7026 0.7299 0.7482 0.7297
2594.475 0.7805 0.7908 0.6987 0.6678 0.6496 0.5878 0.5906 0.5848 0.5845 0.5572
2613.765 0.5338 0.50059 0.43598 0.44423 0.47833 0.5198 0.5334 0.50551 0.45626 0.4044
2633.055 0.3992 0.4471 0.47137 0.46972 0.46814 0.47138 0.47763 0.47746 0.45783 0.46093
2652.345 0.49448 0.5077 0.43752 0.4012 0.416682 0.42432 0.43253 0.42894 0.47584 0.5589
2671.634 0.5815 0.5533 0.47126 0.42681 0.422321 0.423301 0.45016 0.422906 0.421735 0.41049
2690.924 0.401 0.416358 0.44351 0.49792 0.5426 0.5359 0.5512 0.6521 0.7271 0.7308
2710.214 0.6658 0.6614 0.773 0.7781 0.7863 0.8518 0.7878 0.8408 0.9248 0.9799
2729.504 1.1086 1.1697 1.2327 1.3004 1.3367 1.3871 1.435 1.3979 1.3503 1.3598
2748.794 1.2174 1.0451 0.9123 0.9068 0.9351 0.7625 0.6819 0.7326 0.7184 0.6962
2768.083 0.7588 0.6286 0.51175 0.5892 0.6013 0.6365 0.7283 0.7225 0.7127 0.8244
2787.373 0.9483 0.8862 0.8421 0.9314 0.9576 0.9871 1.1164 1.1086 1.1261 1.2383
2806.663 1.2751 1.325 1.3763 1.3945 1.4096 1.505 1.665 1.825 1.855 1.875
2825.953 2.035 2.175 2.205 2.295 2.395 2.465 2.525 2.725 2.935 3.065
2845.242 3.195 3.365 3.565 3.785 4.205 4.525 4.925 5.385 5.815 6.325
2864.532 6.925 7.625 8.315 9.155 9.935 10.475 11.045 11.525 11.705 11.815
2883.822 11.965 11.955 11.855 11.785 11.615 11.425 11.315 11.315 11.255 11.105
2903.112 11.125 11.185 11.225 11.405 11.695 11.955 12.315 12.915 13.675 14.785
2922.401 16.195 17.625 19.135 20.755 22.275 23.525 24.375 24.805 24.915 24.525
2941.691 23.745 22.935 22.245 21.645 21.125 20.775 20.525 20.435 20.265 19.965
2960.981 19.795 19.525 19.165 18.835 18.275 17.575 16.885 16.305 15.815 15.315
2980.271 14.985 14.765 14.525 14.445 14.475 14.455 14.535 14.675 14.725 14.985
2999.561 15.295 15.485 15.775 16.075 16.375 16.905 17.415 17.775 18.435 19.265
3018.850 20.205 21.265 22.435 23.645 24.455 25.075 25.505 25.365 24.685 23.695
3038.140 22.505 21.165 19.745 18.515 17.715 17.095 16.545 16.135 15.925 15.645
3057.430 15.285 14.885 14.345 13.745 13.295 12.775 11.985 11.235 10.565 9.915
3076.720 9.345 8.775 8.205 7.785 7.445 7.065 6.615 6.325 6.235 6.065
3096.009 5.745 5.515 5.245 4.875 4.675 4.615 4.345 4.085 3.935 3.515
3115.299 3.145 3.035 2.885 2.605 2.425 2.345 2.275 2.095 1.965 2.085
3134.589 2.135 1.955 1.815 1.795 1.575 1.411 1.425 1.3558 1.2515 1.1714
3153.879 1.0747 0.9038 0.7328 0.7246 0.6475 0.6501 0.8069 0.742 0.5332 0.49863
3173.169 0.5566 0.5356 0.43246 0.3232 0.3418 0.43408 0.46785 0.3852 0.3599 0.3911
3192.458 0.297 0.223 0.309 0.422639 0.420042 0.302 0.298 0.312 0.3929 0.5208
3211.748 0.46782 0.40844 0.3244 0.3256 0.3526 0.3343 0.267 0.254 0.3787 0.4002
3231.038 0.3225 0.306 0.3632 0.188 0.212 0.3772 0.23 0.174 0.246 0.3279
3250.328 0.221 0.248 0.42696 0.306 0.293 0.312 0.312 0.238 0.195 0.221
3269.617 0.132 0.221 0.404 0.3645 0.26 0.307 0.273 0.3211 0.416811 0.46624
3288.907 0.421518 0.257 0.255 0.29 0.238 0.22 0.233 0.305 0.3822 0.318
3308.197 0.237 0.256 0.3327 0.3991 0.3263 0.271 0.293 0.261 0.255 0.317
3327.487 0.269 0.22 0.252 0.214 0.248 0.276 0.266 0.28 0.27 0.206
3346.777 0.229 0.141 0.101 0.226 0.206 0.232 0.25 0.311 0.4016 0.249
3366.066 0.255 0.3373 0.216 0.167 0.3492 0.561 0.44624 0.3468 0.3195 0.232
3385.356 0.304 0.3544 0.40619 0.5584 0.51074 0.41373 0.257 0.171 0.3878 0.345
3404.646 0.3803 0.48886 0.5267 0.46859 0.3273 0.283 0.191 0.177 0.239 0.3941
3423.936 0.3512 0.44267 0.5382 0.3858 0.3346 0.3674 0.3281 0.24 0.304 0.29
3443.225 0.165 0.303 0.5671 0.4972 0.46718 0.6483 0.7161 0.7366 0.6795 0.6804
3462.515 0.6573 0.58 0.669 0.818 0.7808 0.6663 0.6929 0.6989 0.7402 0.7951
3481.805 0.8693 0.8212 0.9262 1.1724 1.1489 1.191 1.4062 1.495 1.445 1.545
3501.095 1.615 1.675 1.945 1.975 1.865 1.895 1.735 1.555 1.535 1.565
3520.385 1.3965 1.132 1.0954 1.0719 0.9212 0.7878 0.7187 0.7259 0.6046 0.6387
3539.674 0.5736 0.41201 0.43629 0.48003 0.6412 0.6755 0.6124 0.5936 0.49442 0.3413
3558.964 0.3997 0.43574 0.45131 0.419596 0.3437 0.276 0.132 0.246 0.46124 0.49037
3578.254 0.5292 0.49424 0.398 0.287 0.149 0.202 0.3461 0.49515 0.291 0.196
3597.544 0.371 0.40519 0.48082 0.5274 0.424126 0.239 0.302 0.43045 0.388 0.3393
3616.833 0.3961 0.5248 0.44641 0.312 0.296 0.189 0 0.147 0.4445 0.3227
3636.123 0.234 0.3672 0.257 0.241 0.45193 0.5353 0.4314 0.44313 0.5359 0.3917
3655.413 0.3302 0.42842 0.49539 0.48647 0.50279 0.46897 0.3565 0.285 0.3981 0.3647
3674.703 0.288 0.3748 0.3681 0.40578 0.48259 0.45281 0.49594 0.45489 0.303 0.271
3693.993 0.3549 0.5176 0.50552 0.373 0.196 0.164 0.234 0.183 0.221 0.3376
3713.282 0.251 0.264 0.234 0.242 0.41206 0.3407 0.3779 0.40927 0.3702 0.4047
3732.572 0.289 0.161 0.297 0.3791 0.29 0.293 0.264 0.309 0.3214 0.3458
3751.862 0.3633 0.27 0.313 0.4048 0.46265 0.49945 0.284 0.132 0.291 0.3288
3771.152 0.227 0.271 0.3681 0.414857 0.3777 0.301 0.252 0.3389 0.3657 0.315
3790.441 0.376 0.279 0.285 0.3658 0.3768 0.47005 0.3791 0.182 0.186 0.158
3809.731 0.125 0.297 0.3853 0.216 0.096 0.289 0.46036 0.50678 0.43656 0.3817
3829.021 0.41012 0.3167 0.313 0.3454 0.3758 0.45558 0.50138 0.3352 0.169 0.27
3848.311 0.3342 0.3284 0.3415 0.215 0.419742 0.688 0.7243 0.6478 0.51177 0.286
3867.601 0.159 0.3989 0.46881 0.3844 0.47924 0.6289 0.62 0.6036 0.302 0.313
3886.890 0.48354 0.44368 0.420582 0.44585 0.6585 0.50392 0.3208 0.45101 0.5525 0.302
3906.180 0.202 0.3357 0.246 0.3668 0.5734 0.5609 0.5275 0.46054 0.3885 0.3175
3925.470 0.307 0.3934 0.297 0.216 0.314 0.3763 0.5353 0.4622 0.421499 0.3632
3944.760 0.248 0.3971 0.45976 0.43237 0.5297 0.5712 0.431 0.50516 0.50924 0.7395
3964.049 0.9344 0.6261 0.46291 0.50188 0.6895 0.9893 0.8266 0.5197 0.40801 0.3298
3983.339 0.5373 0.7381 0.6905 0.8309 1.0075 0.7203 0.5952 0.74 0.6176 0.49027
##END=
