##TITLE=Ethylphenyl propiolate
##JCAMP-DX=4.24
##DATA TYPE=INFRARED SPECTRUM
##ORIGIN=EPA-IR VAPOR PHASE LIBRARY
##OWNER=SRD/NIST
Collection (C) 2018 copyright by the U.S. Secretary of Commerce
on behalf of the United States of America. All rights reserved.
##CAS REGISTRY NO=2216-94-6
##MOLFORM=C 11 H 10 O 2
##$NIST SOURCE=MSDC-IR
##STATE=gas
##XUNITS=1/CM
##YUNITS=ABSORBANCE
##XFACTOR=1.
##YFACTOR=0.001
##DELTAX=3.85796
##FIRSTX=501.5
##LASTX=4000.7
##FIRSTY=2.574
##MAXX=4000.7
##MINX=501.534
##MAXY=0.401234
##MINY=0
##NPOINTS=908
##XYDATA=(X++(Y..Y))
501.534 2.574 2.914 3.134 3.534 4.074 4.684 5.334 5.814 6.014 5.854
540.114 5.434 4.934 4.354 3.904 3.634 3.524 3.454 3.194 2.784 2.424
578.693 2.274 2.454 2.954 4.164 7.064 12.834 19.594 22.814 20.354 14.244
617.273 8.774 5.784 4.274 3.464 3.044 2.914 3.074 3.454 3.874 4.564
655.852 5.684 7.344 9.634 12.634 16.244 20.314 24.414 28.154 30.934 30.944
694.432 28.694 25.624 21.694 17.514 13.824 11.144 9.714 9.574 10.934 14.164
733.011 19.354 26.414 34.644 43.514 52.184 59.414 61.344 56.284 48.324 38.894
771.591 28.974 20.644 14.684 10.924 8.834 7.904 7.664 7.644 7.354 6.654
810.170 5.784 4.974 4.304 3.854 3.614 3.584 3.764 4.254 5.014 6.024
848.750 7.284 8.804 10.394 11.454 11.414 10.174 8.424 7.004 5.974 5.274
887.330 4.934 4.804 4.884 5.114 5.404 5.774 6.274 6.804 7.234 7.564
925.909 7.804 7.894 7.834 7.594 7.234 6.874 6.424 5.994 5.684 5.494
964.489 5.364 5.304 5.334 5.514 5.814 6.234 6.894 7.934 9.644 11.834
1003.068 14.664 18.644 24.814 34.624 46.744 55.944 58.834 55.794 49.614 42.154
1041.648 33.454 25.914 21.084 18.344 16.674 15.634 14.884 14.384 14.204 14.364
1080.227 15.194 16.914 19.754 23.724 27.704 30.284 31.434 32.644 34.834 37.324
1118.807 39.174 40.004 40.214 40.664 42.094 45.464 52.034 63.084 80.324 106.374
1157.387 144.544 198.524 267.814 337.084 371.274 374.304 381.234 400.654 401.234 340.714
1195.966 243.424 160.934 111.344 84.384 68.894 60.124 56.014 55.914 57.804 57.904
1234.546 54.254 48.524 44.304 43.974 47.674 56.304 72.704 101.424 147.404 211.334
1273.125 283.504 342.854 367.264 348.024 293.084 222.484 157.294 109.044 78.994 61.074
1311.705 48.804 39.554 32.594 27.354 23.304 20.104 17.454 15.344 13.874 13.254
1350.284 13.644 15.554 19.834 28.424 39.064 43.384 37.914 26.304 17.254 14.174
1388.864 13.674 13.674 13.324 12.604 11.854 11.284 10.784 10.454 10.464 10.914
1427.443 11.744 12.984 14.534 16.144 17.304 17.944 18.264 18.354 18.554 19.324
1466.023 20.524 21.664 22.734 25.074 31.374 42.754 51.704 50.064 38.054 23.844
1504.603 16.034 12.714 10.654 9.184 8.094 7.394 6.944 6.644 6.344 6.064
1543.182 5.884 5.844 5.844 5.914 6.024 6.154 6.294 6.484 6.714 7.044
1581.762 7.584 8.514 9.794 10.894 10.944 9.714 7.854 6.214 5.034 4.254
1620.341 3.804 3.604 3.524 3.534 3.584 3.744 3.984 4.314 4.784 5.514
1658.921 6.514 7.924 9.574 11.294 13.114 15.414 18.144 20.714 22.234 23.554
1697.500 25.974 31.454 42.264 61.314 90.054 129.784 181.114 246.544 309.384 334.264
1736.080 306.224 235.304 171.104 129.074 95.174 67.744 47.444 34.724 27.344 22.364
1774.659 18.144 14.774 12.424 10.974 9.974 9.294 8.524 7.414 6.004 4.754
1813.239 3.964 3.594 3.394 3.254 3.074 2.844 2.604 2.424 2.334 2.374
1851.819 2.484 2.664 2.874 3.144 3.464 3.814 4.154 4.474 4.734 4.954
1890.398 5.074 4.934 4.384 3.524 2.704 2.194 1.984 1.964 2.064 2.244
1928.978 2.464 2.704 2.944 3.184 3.404 3.584 3.754 3.974 4.144 4.044
1967.557 3.484 2.674 1.964 1.574 1.424 1.334 1.294 1.294 1.304 1.364
2006.137 1.454 1.564 1.704 1.884 2.114 2.394 2.664 2.914 3.134 3.264
2044.716 3.314 3.284 3.184 2.984 2.744 2.504 2.264 2.064 1.924 1.864
2083.296 1.844 1.864 1.914 1.974 2.084 2.164 2.204 2.244 2.264 2.264
2121.875 2.264 2.274 2.324 2.404 2.554 2.774 3.104 3.634 4.334 5.274
2160.455 6.524 8.184 10.344 13.114 16.744 21.624 28.214 36.804 47.134 58.064
2199.035 67.914 75.184 79.564 82.234 85.004 89.444 96.104 103.644 108.424 105.984
2237.614 94.004 74.454 52.804 34.574 22.024 14.474 10.254 7.834 6.294 5.244
2276.194 4.584 4.274 4.284 4.524 4.804 4.884 4.634 4.244 3.914 3.774
2314.773 3.744 3.594 3.314 2.944 2.654 2.464 2.324 2.194 2.054 1.934
2353.353 1.844 1.774 1.714 1.624 1.534 1.394 1.264 1.164 1.054 0.9888
2391.932 0.9439 0.9127 0.9049 0.9228 0.9394 0.9681 0.9912 0.9967 1.0139 1.024
2430.512 1.034 1.074 1.154 1.244 1.344 1.474 1.634 1.734 1.844 1.954
2469.092 2.004 2.054 2.074 2.104 2.144 2.224 2.304 2.354 2.414 2.434
2507.671 2.414 2.374 2.304 2.204 2.084 1.934 1.804 1.654 1.514 1.424
2546.251 1.354 1.344 1.344 1.324 1.264 1.194 1.104 0.9904 0.8739 0.7552
2584.830 0.7015 0.6546 0.6094 0.5742 0.505 0.4846 0.4853 0.4711 0.4419 0.4138
2623.410 0.3758 0.3584 0.3407 0.3079 0.3246 0.3705 0.4042 0.4167 0.4395 0.477
2661.989 0.5166 0.5273 0.5281 0.5195 0.4608 0.3877 0.3297 0.2741 0.2205 0.1799
2700.569 0.157 0.1538 0.1757 0.1948 0.2267 0.2906 0.379 0.4572 0.5133 0.534
2739.148 0.5349 0.5764 0.6608 0.7515 0.8542 0.963 1.074 1.174 1.264 1.364
2777.728 1.394 1.334 1.224 1.134 1.054 1.0072 0.986 1.0078 1.064 1.124
2816.308 1.244 1.394 1.534 1.634 1.714 1.814 1.924 2.064 2.284 2.524
2854.887 2.814 3.174 3.604 4.084 4.664 5.374 6.274 7.314 8.134 8.534
2893.467 8.624 8.734 9.294 10.294 11.384 12.284 12.714 12.664 12.594 13.034
2932.046 14.474 17.194 20.814 23.714 24.274 22.484 20.064 18.944 19.664 21.794
2970.626 24.884 28.954 34.824 42.364 47.794 47.134 40.844 33.314 28.064 24.744
3009.205 21.994 19.524 17.294 15.404 14.054 13.414 13.524 14.114 14.444 13.914
3047.785 12.814 12.264 13.544 16.874 21.064 24.994 27.094 25.884 22.574 19.094
3086.364 17.294 16.824 16.204 15.144 13.604 11.754 9.554 7.204 5.104 3.584
3124.944 2.664 2.214 1.944 1.774 1.694 1.684 1.674 1.574 1.414 1.224
3163.524 1.034 0.8968 0.7967 0.7338 0.6993 0.6837 0.6609 0.6421 0.6112 0.5603
3202.103 0.5253 0.4874 0.4546 0.3866 0.3095 0.2874 0.2834 0.2065 0.1738 0.183
3240.683 0.1607 0.1229 0.10937 0.1176 0.07711 0.05 0.01733 0 0.01748 0.04397
3279.262 0.04185 0.06605 0.10251 0.05889 0.05179 0.05326 0.06074 0.09641 0.1382 0.156
3317.842 0.1412 0.1645 0.2586 0.2906 0.2554 0.2877 0.3253 0.3842 0.4794 0.5469
3356.421 0.5764 0.6837 0.8629 0.9608 1.064 1.174 1.264 1.374 1.494 1.634
3395.001 1.724 1.754 1.794 1.774 1.714 1.674 1.774 1.994 2.284 2.714
3433.580 3.224 3.744 4.234 4.374 4.024 3.384 2.654 2.134 1.794 1.494
3472.160 1.334 1.164 0.9471 0.8354 0.726 0.5356 0.4203 0.3333 0.2919 0.3051
3510.740 0.2502 0.2001 0.1405 0.1541 0.1678 0.1367 0.12354 0.10664 0.08036 0.0582
3549.319 0.06853 0.053 0.03674 0.10155 0.1361 0.11465 0.09897 0.06977 0.0907 0.07366
3587.899 0.06577 0.04527 0.02347 0.04883 0.0466 0.09918 0.10968 0.06887 0.0696 0.10335
3626.478 0.1302 0.10906 0.09644 0.1449 0.2102 0.2236 0.2241 0.2584 0.2471 0.2176
3665.058 0.2384 0.2646 0.2667 0.2861 0.3389 0.3242 0.2629 0.2792 0.2758 0.3127
3703.637 0.3585 0.3263 0.3764 0.376 0.3001 0.3011 0.3098 0.2619 0.2468 0.2401
3742.217 0.211 0.2167 0.14 0.10055 0.1571 0.2038 0.203 0.1634 0.1883 0.1778
3780.797 0.1684 0.2183 0.2393 0.2437 0.238 0.251 0.2764 0.3011 0.3344 0.3473
3819.376 0.3522 0.3365 0.3743 0.3969 0.3529 0.3317 0.3165 0.2823 0.2413 0.2227
3857.956 0.1929 0.1999 0.236 0.2128 0.1943 0.1594 0.1566 0.1919 0.2104 0.1835
3896.535 0.1451 0.1632 0.1603 0.1516 0.1468 0.1592 0.1824 0.2079 0.2169 0.2239
3935.115 0.2549 0.2756 0.3092 0.3414 0.3532 0.3596 0.3818 0.3795 0.3661 0.3466
3973.694 0.3698 0.4005 0.3536 0.3228 0.378 0.4305 0.4714 0.4771
##END=
