##TITLE=3-Methyloctane
##JCAMP-DX=4.24
##DATA TYPE=INFRARED SPECTRUM
##ORIGIN=NIST Mass Spectrometry Data Center
##OWNER=NIST Standard Reference Data Program
Collection (C) 2018 copyright by the U.S. Secretary of Commerce
on behalf of the United States of America. All rights reserved.
##CAS REGISTRY NO=2216-33-3
##MOLFORM=C 9 H 20
##$NIST SOURCE=MSDC-IR
##SPECTROMETER/DATA SYSTEM=HP-GC/MS/IRD
##STATE=gas
##XUNITS=1/CM
##YUNITS=ABSORBANCE
##XFACTOR=1.0
##YFACTOR=0.000004000
##DELTAX=4.0
##FIRSTX=550.0
##LASTX=3846.0
##FIRSTY=0.000356
##MAXX=3846
##MINX=550
##MAXY=0.04
##MINY=0
##NPOINTS=825
##XYDATA=(X++(Y..Y))
550.0 89 54 63 99 104 64 42 72 83 90
590.0 95 93 87 81 83 97 95 78 74 86
630.0 98 95 90 97 98 84 78 85 100 106
670.0 89 90 108 106 122 141 134 132 129 134
710.0 149 166 182 181 193 203 193 182 183 178
750.0 175 180 184 200 219 220 203 201 203 169
790.0 152 160 143 131 134 129 120 116 124 114
830.0 119 129 118 118 130 131 131 128 119 122
870.0 129 133 134 130 125 127 128 130 139 137
910.0 138 137 135 139 139 143 147 155 164 165
950.0 174 183 190 196 199 199 199 192 173 158
990.0 152 147 151 159 167 174 172 167 161 142
1030.0 134 128 124 117 116 124 126 134 134 139
1070.0 147 143 148 157 156 146 137 135 138 133
1110.0 131 140 149 158 168 180 190 195 197 201
1150.0 195 195 198 181 163 151 138 125 125 127
1190.0 123 128 129 133 141 137 137 152 158 153
1230.0 156 166 172 172 179 185 184 189 196 197
1270.0 204 211 217 224 223 231 244 247 256 260
1310.0 254 246 243 251 263 281 299 305 340 377
1350.0 392 406 410 432 509 605 706 814 871 840
1390.0 733 573 440 371 320 295 270 240 267 311
1430.0 350 383 465 612 753 925 1062 1204 1339 1345
1470.0 1225 1026 848 681 515 390 315 258 220 141
1510.0 112 133 105 86 105 110 101 74 50 70
1550.0 85 66 32 70 106 107 99 93 111 114
1590.0 109 108 107 105 103 104 92 80 84 88
1630.0 87 69 71 75 62 36 25 66 77 71
1670.0 58 50 49 23 19 53 34 0 14 46
1710.0 53 22 10 44 52 19 0 25 38 25
1750.0 11 22 32 37 33 26 39 49 36 34
1790.0 32 36 42 40 55 55 51 54 50 42
1830.0 43 51 52 34 32 50 57 54 49 42
1870.0 44 55 52 58 55 49 52 52 54 55
1910.0 54 48 41 43 48 51 53 53 45 46
1950.0 50 49 50 49 46 48 50 50 51 50
1990.0 46 49 50 46 45 50 53 52 53 54
2030.0 53 51 52 55 56 59 57 57 57 52
2070.0 52 54 52 51 48 48 48 45 48 53
2110.0 48 47 46 48 56 60 56 54 52 49
2150.0 51 52 53 58 58 52 52 51 53 54
2190.0 49 49 53 51 49 48 48 54 51 46
2230.0 49 53 51 46 52 57 55 52 50 51
2270.0 52 49 49 50 53 54 51 50 47 46
2310.0 46 46 44 46 44 41 43 44 50 52
2350.0 52 51 42 37 39 38 45 53 56 63
2390.0 68 67 68 72 77 74 67 65 72 75
2430.0 72 71 69 68 65 69 69 66 66 65
2470.0 62 63 67 68 67 66 70 73 70 73
2510.0 74 75 76 77 83 82 83 88 86 83
2550.0 86 90 92 99 109 112 114 118 119 127
2590.0 132 130 130 134 139 139 138 140 143 141
2630.0 142 141 146 153 157 161 159 155 160 168
2670.0 173 180 180 182 184 186 189 182 181 184
2710.0 189 199 210 221 229 239 256 265 267 274
2750.0 273 268 265 266 273 280 287 303 321 339
2790.0 365 401 428 452 486 527 570 619 676 752
2830.0 844 965 1147 1405 1752 2206 2738 3281 3785 4191
2870.0 4501 4755 4922 4928 4812 4628 4452 4448 4697 5201
2910.0 5907 6765 7713 8648 9433 9916 10000 9681 9062 8364
2950.0 7863 7782 8219 8945 9381 9068 7987 6353 4634 3269
2990.0 2373 1807 1441 1206 1037 905 803 731 668 610
3030.0 565 529 494 466 439 416 398 380 367 360
3070.0 347 331 321 314 304 285 268 261 258 249
3110.0 234 228 223 217 213 210 209 201 195 197
3150.0 203 203 196 191 185 186 189 175 162 162
3190.0 157 145 142 142 139 129 125 116 108 105
3230.0 101 93 92 95 95 92 88 90 89 82
3270.0 80 85 85 91 100 97 92 91 91 88
3310.0 90 92 93 94 88 78 80 92 90 89
3350.0 97 96 93 93 87 85 96 98 97 99
3390.0 88 86 87 90 95 87 85 84 83 79
3430.0 74 84 86 84 84 83 83 80 79 89
3470.0 97 91 77 68 72 73 78 76 63 66
3510.0 70 73 78 72 65 77 79 81 71 55
3550.0 74 82 84 74 43 61 88 86 82 52
3590.0 55 71 71 73 63 53 60 63 80 62
3630.0 51 91 107 112 82 63 78 90 104 95
3670.0 70 64 81 98 86 80 100 107 103 100
3710.0 84 82 92 78 76 82 53 60 57 44
3750.0 55 73 94 106 112 111 121 112 109 112
3790.0 120 117 100 91 100 113 106 96 105 115
3830.0 113 99 90 100 118
##END=
