##TITLE=4-Methyloctane
##JCAMP-DX=4.24
##DATA TYPE=INFRARED SPECTRUM
##ORIGIN=NIST Mass Spectrometry Data Center
##OWNER=NIST Standard Reference Data Program
Collection (C) 2018 copyright by the U.S. Secretary of Commerce
on behalf of the United States of America. All rights reserved.
##CAS REGISTRY NO=2216-34-4
##MOLFORM=C 9 H 20
##$NIST SOURCE=MSDC-IR
##SPECTROMETER/DATA SYSTEM=HP-GC/MS/IRD
##STATE=gas
##XUNITS=1/CM
##YUNITS=ABSORBANCE
##XFACTOR=1.0
##YFACTOR=0.000004900
##DELTAX=4.0
##FIRSTX=550.0
##LASTX=3846.0
##FIRSTY=0.000270
##MAXX=3846
##MINX=550
##MAXY=0.049
##MINY=0
##NPOINTS=825
##XYDATA=(X++(Y..Y))
550.0 55 32 19 8 9 13 3 19 27 25
590.0 37 48 40 40 62 58 42 53 67 64
630.0 54 45 53 69 48 34 41 56 56 35
670.0 34 49 61 68 74 80 87 94 101 99
710.0 104 115 131 151 175 192 194 201 207 203
750.0 187 164 149 143 137 126 126 117 102 105
790.0 106 112 107 92 86 88 82 81 96 90
830.0 85 91 91 86 85 82 83 89 100 108
870.0 112 121 122 117 126 139 134 133 141 145
910.0 147 154 161 165 173 185 195 200 190 176
950.0 159 133 116 108 97 93 93 96 95 92
990.0 90 87 91 94 98 104 98 95 101 94
1030.0 82 89 95 99 110 112 111 115 115 112
1070.0 113 114 114 109 98 83 79 76 73 71
1110.0 72 78 90 101 111 123 137 153 171 181
1150.0 185 181 168 152 130 110 94 80 73 69
1190.0 66 69 81 93 89 91 94 95 101 99
1230.0 92 94 106 117 122 123 129 135 132 128
1270.0 133 137 135 139 150 157 161 169 173 175
1310.0 179 184 192 204 226 252 279 303 318 331
1350.0 351 367 387 428 482 568 673 761 808 798
1390.0 705 563 438 348 296 268 250 250 262 285
1430.0 320 376 457 567 714 880 1048 1193 1272 1270
1470.0 1185 1030 837 651 497 383 301 245 208 183
1510.0 165 149 135 125 118 109 105 100 94 86
1550.0 80 79 81 75 68 65 64 67 66 67
1590.0 67 62 57 54 54 51 49 52 52 55
1630.0 53 53 55 51 49 49 47 45 44 48
1670.0 54 47 38 34 37 38 35 34 35 35
1710.0 36 36 32 25 25 27 27 28 26 22
1750.0 19 21 25 25 22 22 21 20 21 21
1790.0 20 24 25 22 23 23 17 17 17 16
1830.0 18 17 15 14 16 14 12 12 12 15
1870.0 15 13 9 9 12 14 12 14 12 11
1910.0 10 12 14 13 8 7 10 6 5 8
1950.0 8 9 7 9 9 6 5 7 7 4
1990.0 6 9 9 7 6 5 5 3 5 10
2030.0 9 9 11 13 16 12 8 7 8 10
2070.0 6 4 8 9 4 4 6 3 2 4
2110.0 5 5 6 1 0 2 4 5 7 8
2150.0 8 5 3 5 4 4 8 9 8 7
2190.0 7 8 8 9 10 9 11 13 8 3
2230.0 8 10 9 9 9 7 6 8 12 12
2270.0 9 10 10 12 14 13 12 11 12 13
2310.0 12 18 17 12 12 18 21 20 21 22
2350.0 21 22 28 30 31 29 27 27 26 26
2390.0 27 27 27 27 24 24 25 23 22 24
2430.0 23 21 22 18 16 19 20 19 20 23
2470.0 19 16 19 22 22 25 26 27 31 34
2510.0 35 36 38 39 39 43 45 42 44 47
2550.0 50 52 54 57 60 63 63 70 73 74
2590.0 81 82 81 87 93 95 90 90 95 97
2630.0 99 101 103 103 108 109 111 114 116 121
2670.0 128 129 124 128 138 140 136 140 147 152
2710.0 154 160 168 177 188 202 213 226 234 230
2750.0 225 223 220 218 226 239 251 263 279 305
2790.0 330 356 387 418 451 487 530 582 645 719
2830.0 810 946 1141 1408 1754 2160 2598 3036 3451 3850
2870.0 4248 4620 4869 4923 4833 4665 4534 4603 4908 5402
2910.0 6017 6705 7437 8159 8793 9223 9357 9159 8703 8192
2950.0 7892 8046 8727 9616 10000 9419 8008 6117 4273 2950
2990.0 2143 1653 1352 1146 994 885 801 730 668 606
3030.0 552 506 466 428 398 368 334 313 298 286
3070.0 278 265 255 252 245 237 228 221 216 205
3110.0 200 192 177 176 175 169 164 159 153 144
3150.0 144 145 140 132 128 134 129 122 118 115
3190.0 108 97 94 86 83 79 70 62 59 58
3230.0 51 46 43 46 45 44 43 41 45 41
3270.0 28 27 33 33 30 30 36 32 31 37
3310.0 35 33 34 37 36 31 35 35 33 36
3350.0 34 29 25 25 31 30 31 35 31 26
3390.0 26 30 29 24 21 25 34 24 13 13
3430.0 18 16 19 16 11 14 14 15 15 12
3470.0 18 22 13 11 6 6 13 11 13 13
3510.0 11 12 16 20 9 7 14 13 17 13
3550.0 11 13 9 10 18 16 8 10 7 3
3590.0 12 18 13 13 20 24 20 29 30 19
3630.0 22 24 23 19 24 33 27 17 19 27
3670.0 24 22 27 26 31 33 24 22 22 19
3710.0 25 33 39 35 29 25 25 32 33 32
3750.0 30 26 34 41 35 32 31 25 19 30
3790.0 35 30 34 39 35 30 31 30 28 29
3830.0 31 28 33 36 34
##END=
