##TITLE=2,5-Dimethylheptane
##JCAMP-DX=4.24
##DATA TYPE=INFRARED SPECTRUM
##ORIGIN=NIST Mass Spectrometry Data Center
##OWNER=NIST Standard Reference Data Program
Collection (C) 2018 copyright by the U.S. Secretary of Commerce
on behalf of the United States of America. All rights reserved.
##CAS REGISTRY NO=2216-30-0
##MOLFORM=C 9 H 20
##$NIST SOURCE=MSDC-IR
##SPECTROMETER/DATA SYSTEM=HP-GC/MS/IRD
##STATE=gas
##XUNITS=1/CM
##YUNITS=ABSORBANCE
##XFACTOR=1.0
##YFACTOR=0.000001100
##DELTAX=4.0
##FIRSTX=550.0
##LASTX=3846.0
##FIRSTY=0.000109
##MAXX=3846
##MINX=550
##MAXY=0.011
##MINY=0
##NPOINTS=825
##XYDATA=(X++(Y..Y))
550.0 99 106 158 84 25 56 36 44 42 29
590.0 36 94 94 95 108 90 105 84 35 62
630.0 102 114 84 38 53 76 90 80 67 89
670.0 115 94 61 68 98 84 71 54 85 137
710.0 118 105 98 98 128 132 116 106 116 112
750.0 127 162 149 162 181 149 131 159 170 152
790.0 122 130 167 107 49 67 129 159 119 73
830.0 92 120 98 75 85 79 53 56 74 97
870.0 84 74 101 105 86 75 92 126 149 151
910.0 145 153 163 173 176 146 158 147 123 146
950.0 144 167 182 181 196 197 193 186 158 152
990.0 169 187 212 200 198 222 216 223 205 176
1030.0 183 193 183 168 162 167 175 170 134 105
1070.0 109 123 118 118 119 119 126 131 138 134
1110.0 109 100 111 111 126 160 177 184 205 187
1150.0 194 224 244 244 225 207 183 154 126 91
1190.0 78 69 66 93 94 88 105 107 105 128
1230.0 142 119 130 150 131 121 101 92 119 141
1270.0 153 144 136 140 141 152 151 147 163 171
1310.0 191 215 225 237 251 272 304 330 337 361
1350.0 397 417 470 560 653 767 890 987 1045 1022
1390.0 902 731 550 408 311 256 228 221 235 255
1430.0 287 332 393 500 617 771 953 1126 1242 1263
1470.0 1199 1058 880 682 531 413 307 236 196 160
1510.0 134 117 101 88 94 96 88 84 69 72
1550.0 77 68 66 76 78 75 72 59 49 55
1590.0 62 54 54 60 77 89 80 67 67 67
1630.0 54 39 27 35 63 63 41 48 47 28
1670.0 28 38 27 28 49 42 25 22 43 45
1710.0 26 6 0 17 32 31 18 17 26 26
1750.0 12 12 22 24 32 36 28 21 13 15
1790.0 19 22 24 24 29 24 21 24 21 29
1830.0 38 37 36 20 10 8 14 37 33 16
1870.0 19 24 26 26 28 35 28 21 22 17
1910.0 14 15 18 21 20 31 36 34 34 33
1950.0 39 39 35 41 44 42 34 29 22 21
1990.0 30 30 33 43 45 31 23 33 44 41
2030.0 26 20 27 23 13 19 27 31 38 32
2070.0 26 20 22 29 35 30 23 31 27 23
2110.0 38 49 40 40 49 51 46 36 31 30
2150.0 37 53 55 50 47 50 56 55 47 42
2190.0 47 54 52 45 43 54 54 44 32 44
2230.0 48 37 34 36 29 32 52 45 40 49
2270.0 50 41 39 49 57 55 54 56 49 55
2310.0 64 48 42 35 25 33 35 47 46 34
2350.0 41 44 41 42 45 62 68 62 63 63
2390.0 61 62 76 86 87 73 57 71 74 68
2430.0 73 68 61 60 54 57 73 69 65 63
2470.0 74 81 67 67 62 60 62 59 67 81
2510.0 74 67 66 58 71 87 88 87 81 85
2550.0 96 92 95 114 102 94 106 118 133 131
2590.0 122 125 127 118 115 130 135 137 135 128
2630.0 134 139 141 141 163 169 147 141 149 162
2670.0 155 155 157 148 163 161 163 181 178 184
2710.0 183 194 224 232 230 237 234 236 245 252
2750.0 253 256 272 272 276 276 260 280 304 316
2790.0 342 350 351 374 402 425 453 488 537 589
2830.0 651 739 855 1018 1262 1557 1896 2253 2640 3077
2870.0 3521 3914 4186 4325 4264 4084 3908 3883 4109 4518
2910.0 5067 5689 6269 6748 7053 7165 7088 6850 6585 6509
2950.0 6805 7606 8771 9733 10000 9282 7707 5788 4039 2719
2990.0 1887 1433 1135 939 797 686 586 529 494 462
3030.0 433 401 370 339 345 346 323 323 313 295
3070.0 300 301 294 287 281 269 263 246 219 222
3110.0 219 211 217 219 210 208 207 196 192 199
3150.0 196 190 187 198 207 222 238 231 217 190
3190.0 198 199 157 147 153 121 114 120 110 114
3230.0 88 71 85 105 101 100 83 63 62 77
3270.0 89 91 73 54 60 75 86 108 101 87
3310.0 105 104 86 107 129 115 91 88 84 81
3350.0 88 83 100 89 85 108 100 81 79 90
3390.0 82 64 56 65 76 103 100 81 87 108
3430.0 96 83 97 91 106 98 89 97 86 95
3470.0 109 100 78 64 68 81 83 44 38 61
3510.0 54 68 81 84 90 91 82 62 66 82
3550.0 85 71 47 45 51 37 43 63 74 94
3590.0 82 66 62 76 87 99 99 79 56 57
3630.0 76 63 50 44 58 52 45 68 90 105
3670.0 90 49 35 75 79 82 83 69 85 97
3710.0 72 79 95 71 73 73 57 82 80 83
3750.0 77 66 86 105 113 76 86 106 92 79
3790.0 89 86 56 68 115 109 81 82 92 86
3830.0 97 130 116 103 123
##END=
