##TITLE=1-Amino-5,6,7,8-tetrahydronaphthalene
##JCAMP-DX=4.24
##DATA TYPE=INFRARED SPECTRUM
##ORIGIN=NIST Mass Spectrometry Data Center
##OWNER=NIST Standard Reference Data Program
Collection (C) 2018 copyright by the U.S. Secretary of Commerce
on behalf of the United States of America. All rights reserved.
##CAS REGISTRY NO=2217-41-6
##MOLFORM=C 10 H 13 N
##$NIST SOURCE=MSDC-IR
##SPECTROMETER/DATA SYSTEM=HP-GC/MS/IRD
##STATE=gas
##XUNITS=1/CM
##YUNITS=ABSORBANCE
##XFACTOR=1.0
##YFACTOR=0.000002900
##DELTAX=4.0
##FIRSTX=550.0
##LASTX=3846.0
##FIRSTY=0.001198
##MAXX=3846
##MINX=550
##MAXY=0.029
##MINY=0
##NPOINTS=825
##XYDATA=(X++(Y..Y))
550.0 413 599 451 492 473 479 501 517 540 567
590.0 571 582 619 659 682 694 736 763 799 861
630.0 923 979 1037 1047 1010 985 972 958 912 905
670.0 935 949 985 1045 1109 1180 1287 1393 1516 1670
710.0 1547 1345 1206 1047 954 904 891 962 1151 1464
750.0 1871 2323 2877 3292 3060 2509 2053 1598 1193 927
790.0 775 687 625 570 526 486 474 503 524 547
830.0 574 570 519 481 460 446 434 430 423 413
870.0 399 384 361 355 378 387 360 325 272 216
910.0 175 151 139 123 122 125 131 141 153 176
950.0 220 269 303 318 311 295 262 195 140 116
990.0 107 100 91 89 94 107 132 144 150 135
1030.0 102 94 83 78 97 125 152 187 239 304
1070.0 380 430 439 406 339 270 217 188 201 235
1110.0 267 286 268 223 180 152 131 115 109 129
1150.0 161 202 223 228 221 193 145 93 55 33
1190.0 25 12 5 15 13 0 2 20 33 54
1230.0 71 99 174 272 364 436 498 577 689 874
1270.0 1172 1571 1974 2228 2313 2286 2056 1657 1282 1005
1310.0 791 615 499 475 523 583 621 638 613 536
1350.0 443 351 267 199 150 114 92 85 79 73
1390.0 71 77 95 117 134 144 170 209 265 352
1430.0 484 681 923 1206 1587 2142 2818 3429 3761 3810
1470.0 3666 3164 2416 1819 1429 1114 822 600 468 387
1510.0 327 291 276 273 281 304 328 356 391 430
1550.0 485 554 650 774 940 1147 1425 1765 2128 2465
1590.0 2738 2910 2945 2923 3052 3469 4062 4547 4725 4598
1630.0 4111 3287 2400 1701 1218 899 685 535 437 369
1670.0 307 261 231 214 202 189 176 177 179 181
1710.0 195 200 207 208 198 182 165 151 142 137
1750.0 132 126 119 115 112 106 100 98 104 106
1790.0 108 121 135 151 162 169 165 146 128 113
1830.0 99 89 80 80 85 83 83 86 88 95
1870.0 100 106 125 149 172 209 244 256 251 225
1910.0 187 157 132 115 102 103 101 92 90 85
1950.0 81 83 83 83 79 80 81 77 82 83
1990.0 79 81 86 88 87 84 77 81 89 90
2030.0 91 85 82 81 82 89 90 92 93 93
2070.0 92 97 96 94 95 92 93 99 101 99
2110.0 96 98 102 94 91 95 100 95 88 90
2150.0 92 93 90 90 91 91 99 99 90 92
2190.0 93 89 88 84 85 86 86 92 92 87
2230.0 91 94 95 96 95 93 91 91 84 76
2270.0 85 94 89 87 91 93 91 92 93 90
2310.0 93 102 108 104 104 108 110 112 108 103
2350.0 103 105 105 108 111 104 103 98 90 97
2390.0 106 106 102 95 95 105 106 100 97 94
2430.0 92 95 95 91 91 93 95 94 97 99
2470.0 109 109 104 108 108 102 98 100 100 101
2510.0 99 100 100 95 97 101 99 101 104 108
2550.0 104 104 109 109 117 132 140 139 146 148
2590.0 145 151 149 142 150 153 148 150 152 151
2630.0 157 160 165 177 188 197 203 221 239 241
2670.0 232 230 229 223 218 206 195 186 179 178
2710.0 181 177 174 177 179 174 170 179 189 190
2750.0 189 202 216 223 235 246 260 275 283 301
2790.0 324 340 365 404 444 481 536 602 689 850
2830.0 1088 1402 1767 2090 2316 2448 2544 2676 2854 3065
2870.0 3179 3133 3019 2887 2791 2756 2767 2801 2818 2849
2910.0 2961 3272 3894 4810 5873 7153 8842 10000 9961 9294
2950.0 8051 6249 4233 2545 1566 1084 839 674 575 535
2990.0 510 503 512 555 638 790 1012 1305 1621 1863
3030.0 2022 2085 2028 1884 1750 1655 1571 1505 1478 1477
3070.0 1446 1360 1223 1035 811 594 423 323 252 209
3110.0 194 183 177 168 159 158 158 171 176 162
3150.0 158 175 167 150 162 171 171 172 166 168
3190.0 178 174 179 181 181 177 179 185 186 185
3230.0 186 183 175 171 156 145 142 124 113 112
3270.0 113 111 117 116 103 110 119 120 114 97
3310.0 94 95 104 112 113 115 121 120 108 106
3350.0 112 127 127 120 130 143 158 165 176 200
3390.0 240 304 382 444 472 471 444 361 279 237
3430.0 202 172 167 170 171 183 196 204 216 246
3470.0 293 370 484 595 667 696 662 587 474 359
3510.0 278 231 211 187 177 169 161 158 135 127
3550.0 128 115 107 108 117 122 122 112 104 106
3590.0 104 121 120 103 104 116 101 91 101 103
3630.0 100 84 77 90 108 117 116 125 124 120
3670.0 127 126 129 136 142 129 115 113 111 129
3710.0 143 132 126 132 136 150 156 144 139 138
3750.0 142 132 134 136 121 130 146 132 120 117
3790.0 132 156 162 157 156 164 165 152 151 156
3830.0 155 172 175 154 156
##END=
