##TITLE=Fenamiphos
##JCAMP-DX=4.24
##DATA TYPE=INFRARED SPECTRUM
##ORIGIN=NIST Mass Spectrometry Data Center
##OWNER=NIST Standard Reference Data Program
Collection (C) 2018 copyright by the U.S. Secretary of Commerce
on behalf of the United States of America. All rights reserved.
##CAS REGISTRY NO=22224-92-6
##MOLFORM=C 13 H 22 N O 3 P S
##$NIST SOURCE=MSDC-IR
##SPECTROMETER/DATA SYSTEM=HP-GC/MS/IRD
##STATE=gas
##XUNITS=1/CM
##YUNITS=ABSORBANCE
##XFACTOR=1.0
##YFACTOR=0.000008900
##DELTAX=4.0
##FIRSTX=550.0
##LASTX=3846.0
##FIRSTY=0.017845
##MAXX=3846
##MINX=550
##MAXY=0.089
##MINY=0
##NPOINTS=825
##XYDATA=(X++(Y..Y))
550.0 2005 1678 1418 1363 1250 1205 1270 1416 1525 1503
590.0 1322 1052 794 591 455 379 343 335 361 407
630.0 450 472 451 382 284 191 125 81 52 27
670.0 13 14 15 26 50 94 177 295 418 492
710.0 482 418 339 278 240 237 264 305 369 456
750.0 547 631 712 787 847 881 873 833 783 733
790.0 710 737 813 949 1138 1332 1462 1518 1530 1568
830.0 1707 2051 2688 3592 4472 4942 4899 4525 3999 3496
870.0 3160 2984 2925 3033 3335 3740 4025 3887 3281 2521
910.0 1932 1611 1515 1583 1788 2153 2716 3521 4603 5897
950.0 7258 8550 9611 10000 9337 7994 6685 5686 5004 4690
990.0 4766 5193 5886 6655 7215 7452 7546 7639 7670 7642
1030.0 7718 8033 8518 9006 9359 9413 8984 8021 6729 5435
1070.0 4333 3482 2864 2458 2255 2187 2176 2132 2007 1866
1110.0 1813 1884 2093 2451 2855 3190 3416 3568 3712 3969
1150.0 4542 5528 6414 6264 5015 3665 2802 2251 1826 1488
1190.0 1230 1070 1014 1065 1273 1728 2608 4159 6181 7306
1230.0 6284 4121 2512 1755 1476 1485 1768 2366 3263 4268
1270.0 5198 6002 6547 6643 6291 5641 4845 4074 3428 2920
1310.0 2552 2330 2210 2112 1973 1771 1531 1309 1139 1034
1350.0 981 984 1036 1141 1327 1578 1829 2071 2404 2791
1390.0 3046 3121 3164 3241 3263 3148 2895 2572 2268 2040
1430.0 1914 1884 1944 2051 2115 2124 2188 2450 2993 3836
1470.0 4754 5219 4793 3727 2660 1906 1431 1127 925 784
1510.0 685 618 569 534 513 499 500 510 540 597
1550.0 684 809 988 1213 1399 1454 1369 1295 1402 1720
1590.0 2136 2378 2207 1690 1136 747 516 376 285 227
1630.0 184 150 127 110 95 81 73 71 70 71
1670.0 72 72 74 76 74 76 72 70 70 67
1710.0 68 67 66 71 74 69 66 68 69 68
1750.0 67 67 64 60 58 56 56 58 58 63
1790.0 69 74 80 83 85 87 89 91 91 90
1830.0 88 89 91 94 99 105 113 119 120 120
1870.0 118 114 105 93 81 70 67 60 55 51
1910.0 48 44 45 44 42 42 43 43 37 30
1950.0 22 16 10 1 0 2 4 8 10 11
1990.0 12 11 10 8 8 7 8 12 13 13
2030.0 12 14 14 12 12 13 12 12 13 12
2070.0 15 19 20 22 26 27 28 28 27 28
2110.0 29 28 29 25 27 26 24 21 20 20
2150.0 19 17 17 23 24 23 27 32 32 32
2190.0 33 31 28 25 24 22 21 21 23 25
2230.0 24 25 23 20 22 22 21 23 25 27
2270.0 28 28 30 32 31 31 29 26 25 26
2310.0 25 23 22 23 22 18 15 18 16 18
2350.0 18 15 16 16 19 26 29 34 37 36
2390.0 34 33 33 32 32 32 29 26 30 33
2430.0 34 36 37 36 36 34 32 26 20 19
2470.0 18 16 14 17 19 22 27 27 29 30
2510.0 27 28 27 24 25 25 26 26 24 24
2550.0 26 27 22 19 19 16 16 17 15 13
2590.0 16 18 19 22 23 22 20 23 26 26
2630.0 24 22 20 21 20 18 17 18 21 24
2670.0 22 19 18 20 24 23 24 27 30 33
2710.0 36 42 51 63 77 90 97 99 97 94
2750.0 90 86 83 87 92 97 101 102 105 107
2790.0 110 115 121 132 145 163 187 210 237 263
2830.0 288 326 371 424 478 523 566 617 684 774
2870.0 891 1027 1156 1241 1256 1221 1208 1254 1355 1505
2910.0 1698 1918 2153 2427 2796 3184 3353 3248 3022 2748
2950.0 2486 2341 2376 2596 2994 3511 3997 4304 4370 4135
2990.0 3615 3002 2429 1923 1515 1235 1035 886 780 696
3030.0 626 563 503 454 421 403 393 398 406 410
3070.0 408 398 376 350 335 312 282 253 227 201
3110.0 179 162 151 148 140 131 123 116 112 106
3150.0 102 98 96 96 93 85 82 84 81 84
3190.0 85 84 83 78 74 71 68 64 64 63
3230.0 54 46 42 38 37 32 32 33 29 24
3270.0 22 21 19 21 24 21 24 27 25 24
3310.0 23 22 24 17 17 27 24 19 21 20
3350.0 22 30 34 33 37 44 50 55 61 74
3390.0 90 110 138 181 237 313 423 562 699 768
3430.0 723 592 438 313 228 169 130 102 84 69
3470.0 55 52 47 38 32 35 36 30 30 28
3510.0 23 20 18 20 19 18 21 21 23 19
3550.0 18 21 22 24 18 12 12 14 14 13
3590.0 11 14 18 21 21 16 17 20 19 17
3630.0 15 17 15 18 19 18 18 19 18 16
3670.0 14 13 15 12 14 18 19 19 19 22
3710.0 23 22 16 13 17 20 19 25 23 20
3750.0 16 19 24 26 25 24 23 24 27 35
3790.0 36 33 32 32 31 30 26 24 22 24
3830.0 26 18 22 30 29
##END=
