##TITLE=Stirifos
##JCAMP-DX=4.24
##DATA TYPE=INFRARED SPECTRUM
##ORIGIN=NIST Mass Spectrometry Data Center
##OWNER=NIST Standard Reference Data Program
Collection (C) 2018 copyright by the U.S. Secretary of Commerce
on behalf of the United States of America. All rights reserved.
##CAS REGISTRY NO=22248-79-9
##MOLFORM=C 10 H 9 Cl 4 O 4 P
##$NIST SOURCE=MSDC-IR
##SPECTROMETER/DATA SYSTEM=HP-GC/MS/IRD
##STATE=gas
##XUNITS=1/CM
##YUNITS=ABSORBANCE
##XFACTOR=1.0
##YFACTOR=0.000051400
##DELTAX=4.0
##FIRSTX=550.0
##LASTX=3846.0
##FIRSTY=0.010331
##MAXX=3846
##MINX=550
##MAXY=0.514
##MINY=0
##NPOINTS=825
##XYDATA=(X++(Y..Y))
550.0 201 75 0 26 49 112 256 535 853 917
590.0 672 396 244 187 165 140 103 66 54 71
630.0 126 215 295 338 372 425 482 493 431 337
670.0 281 295 337 335 271 196 156 152 155 145
710.0 126 114 114 118 118 113 105 100 100 108
750.0 125 160 224 327 461 597 697 764 846 995
790.0 1206 1440 1648 1715 1539 1183 828 589 477 453
830.0 500 614 802 1050 1298 1462 1464 1324 1165 1059
870.0 1042 1145 1233 1125 920 850 961 1030 866 597
910.0 423 363 368 421 527 695 951 1306 1709 2005
950.0 2023 1742 1319 938 675 516 415 351 312 297
990.0 302 325 365 424 506 622 787 1024 1377 1898
1030.0 2657 3751 5284 7200 9043 10000 9587 8213 6641 5333
1070.0 4433 3926 3673 3413 2999 2558 2270 2133 2029 1847
1110.0 1579 1318 1127 1012 965 982 1054 1108 1053 888
1150.0 706 582 513 481 475 487 518 563 613 657
1190.0 672 653 613 574 556 572 646 811 1037 1188
1230.0 1102 839 616 499 427 377 356 364 399 477
1270.0 615 840 1145 1458 1713 1926 2123 2251 2249 2164
1310.0 2129 2198 2265 2154 1866 1574 1390 1304 1263 1174
1350.0 987 744 524 373 278 221 187 163 151 144
1390.0 138 134 132 132 139 150 164 181 203 233
1430.0 282 360 487 685 976 1350 1693 1792 1529 1098
1470.0 764 571 455 370 294 231 188 161 145 134
1510.0 124 118 120 131 149 170 182 174 150 128
1550.0 119 122 139 174 226 298 375 442 456 388
1590.0 283 206 165 148 144 147 157 174 204 252
1630.0 320 393 444 440 373 283 207 156 127 108
1670.0 91 79 70 59 49 41 33 28 24 22
1710.0 21 21 25 29 36 43 45 44 41 38
1750.0 37 36 38 37 34 31 28 26 24 23
1790.0 22 22 23 26 28 32 36 41 44 45
1830.0 45 44 40 37 34 32 31 28 27 26
1870.0 25 26 27 31 34 37 42 44 46 48
1910.0 46 44 42 40 38 36 34 30 26 23
1950.0 20 19 17 16 15 14 13 12 13 12
1990.0 12 11 10 11 10 9 9 9 10 9
2030.0 10 9 9 10 9 10 9 10 11 11
2070.0 13 14 15 17 18 19 20 19 19 20
2110.0 19 19 18 18 19 19 20 19 19 20
2150.0 19 17 17 16 16 15 15 16 15 15
2190.0 15 14 15 15 14 15 15 14 15 14
2230.0 14 13 14 13 14 13 14 13 14 13
2270.0 14 13 14 13 14 13 14 15 15 17
2310.0 17 18 19 18 19 20 21 21 20 21
2350.0 20 19 18 19 18 19 19 18 19 18
2390.0 17 16 15 15 14 14 14 13 14 13
2430.0 12 13 13 12 14 13 14 14 13 14
2470.0 15 16 16 17 17 18 17 16 15 14
2510.0 13 12 13 14 14 14 15 15 14 15
2550.0 15 15 15 15 16 17 16 17 17 16
2590.0 17 16 15 15 16 17 17 18 19 18
2630.0 20 21 20 19 20 19 20 19 17 19
2670.0 18 19 18 19 20 19 18 18 17 16
2710.0 16 15 14 15 14 15 14 16 17 17
2750.0 18 19 20 21 21 22 24 23 21 21
2790.0 20 21 22 24 26 29 32 36 40 45
2830.0 52 60 71 83 103 132 181 258 351 393
2870.0 344 249 179 140 120 110 105 105 108 115
2910.0 125 134 145 154 158 161 169 183 210 256
2950.0 335 461 658 890 1008 890 650 461 355 301
2990.0 272 260 261 264 270 270 268 265 260 252
3030.0 236 216 195 175 160 151 145 142 141 143
3070.0 146 150 156 166 183 211 258 320 341 291
3110.0 212 150 112 87 75 65 58 52 48 44
3150.0 40 36 33 31 28 27 24 23 23 21
3190.0 20 20 19 18 19 17 16 17 16 16
3230.0 17 16 16 17 16 15 16 15 16 15
3270.0 16 17 16 16 17 16 15 14 15 15
3310.0 14 14 14 15 14 14 14 13 14 13
3350.0 14 13 13 14 14 14 15 14 15 14
3390.0 14 15 14 15 15 14 15 15 14 14
3430.0 13 14 15 14 15 14 15 16 15 16
3470.0 15 14 15 14 15 14 15 16 16 15
3510.0 14 14 15 15 15 17 15 16 15 15
3550.0 16 17 17 16 17 17 16 16 15 16
3590.0 15 14 15 15 14 16 16 15 14 15
3630.0 14 15 17 15 16 15 16 17 16 14
3670.0 15 16 17 16 17 17 16 17 16 15
3710.0 16 17 18 17 16 17 16 16 17 16
3750.0 18 17 18 17 18 19 20 19 18 17
3790.0 17 16 16 17 19 18 17 16 17 16
3830.0 15 16 17 16 17
##END=
