##TITLE=4-Hydroxy-2,2,6,6-Tetramethylpiperidinoxy(free radical)
##JCAMP-DX=4.24
##DATA TYPE=INFRARED SPECTRUM
##ORIGIN=EPA-IR VAPOR PHASE LIBRARY
##OWNER=SRD/NIST
Collection (C) 2018 copyright by the U.S. Secretary of Commerce
on behalf of the United States of America. All rights reserved.
##CAS REGISTRY NO=2226-96-2
##MOLFORM=C 9 H 18 N O 2
##$NIST SOURCE=MSDC-IR
##STATE=gas
##XUNITS=1/CM
##YUNITS=ABSORBANCE
##XFACTOR=1.
##YFACTOR=0.001
##DELTAX=3.85796
##FIRSTX=551.7
##LASTX=4000.7
##FIRSTY=4.61
##MAXX=4000.7
##MINX=551.688
##MAXY=0.08426
##MINY=0.0001731
##NPOINTS=895
##XYDATA=(X++(Y..Y))
551.688 4.61 5.07 5.72 6.39 6.64 6.39 5.66 4.59 3.51 2.79
590.268 2.41 2.18 2.1 2.07 2.01 1.94 1.85 1.8 1.73 1.62
628.847 1.55 1.53 1.52 1.54 1.52 1.56 1.68 1.89 2.35 3.11
667.427 4.21 5.38 6.27 6.61 6.2 5.2 3.99 2.98 2.25 1.74
706.006 1.42 1.19 1.04 0.9517 0.8933 0.863 0.8192 0.7599 0.7557 0.7995
744.586 0.7844 0.7908 0.8016 0.7365 0.7213 0.7509 0.7093 0.6912 0.7843 0.8752
783.165 0.9573 1.02 1.12 1.31 1.44 1.5 1.53 1.56 1.5 1.33
821.745 1.28 1.31 1.33 1.48 1.74 1.95 2.06 2.08 2.02 1.97
860.324 1.95 2.02 2.14 2.22 2.46 2.8 3.2 3.86 4.74 5.55
898.904 6.18 6.43 6.17 5.56 4.76 4.16 4.06 4.25 4.5 4.7
937.484 4.78 4.74 4.72 4.83 5.05 5.32 5.5 5.49 5.34 5.2
976.063 5.34 5.85 6.52 7.15 7.63 7.8 7.83 8.01 8.46 9.53
1014.643 11.43 13.79 16.48 19.4 22.68 27.02 32.6 38.67 43.61 45.47
1053.222 42.88 36.06 26.97 18.88 13.65 10.93 9.71 9.1 8.74 8.17
1091.802 7.56 7.11 6.84 6.81 6.94 7.2 7.59 8.09 8.72 9.67
1130.381 10.91 12.37 13.84 15.13 16.35 17.54 18.78 20.31 22.33 24.73
1168.961 26.95 28.19 27.88 25.97 22.97 19.88 17.41 15.96 15.62 16.17
1207.540 17.32 18.86 20.78 22.7 24.55 26.52 28.52 30.15 30.9 30.25
1246.120 28.2 25.29 22.18 19.28 16.78 14.78 13.28 12.28 11.71 11.52
1284.699 11.49 11.41 11.27 11.05 10.84 10.74 10.89 11.21 11.62 11.97
1323.279 12.16 12.22 12.34 12.76 13.73 15.38 17.89 21.32 25.69 29.76
1361.859 34.28 38.92 38.38 36.19 34.89 31.96 28.39 24.62 20.38 16.09
1400.438 12.91 10.56 8.77 7.48 6.7 6.4 6.55 7.04 7.73 8.62
1439.018 9.7 10.88 12.34 14.1 15.73 17.33 18.65 18.61 17.34 15.28
1477.597 12.64 9.82 7.23 5.22 3.86 3.03 2.51 2.17 1.9 1.71
1516.177 1.56 1.45 1.34 1.25 1.17 1.11 1.04 0.9825 0.9354 0.8873
1554.756 0.8495 0.8315 0.8138 0.7824 0.7557 0.7394 0.7097 0.6577 0.6484 0.6579
1593.336 0.6274 0.6065 0.5907 0.5854 0.5944 0.5797 0.5687 0.5757 0.5601 0.5488
1631.915 0.5455 0.5266 0.505 0.5139 0.5066 0.488 0.4735 0.4404 0.435 0.4593
1670.495 0.4575 0.4455 0.4566 0.4624 0.4382 0.4357 0.4339 0.4269 0.4315 0.4291
1709.075 0.4428 0.458 0.4622 0.4516 0.4525 0.457 0.4497 0.4474 0.4367 0.4019
1747.654 0.3718 0.3459 0.3174 0.2977 0.2872 0.2796 0.2652 0.2483 0.2454 0.2717
1786.234 0.2688 0.2349 0.2453 0.2429 0.2158 0.2141 0.2096 0.1958 0.2015 0.2042
1824.813 0.2066 0.2017 0.1883 0.2027 0.2234 0.2441 0.2536 0.2526 0.2449 0.2563
1863.393 0.2645 0.2349 0.2224 0.2213 0.2074 0.2057 0.2114 0.2061 0.2042 0.1954
1901.972 0.1731 0.1824 0.2204 0.2355 0.2275 0.2329 0.2515 0.2594 0.2693 0.2822
1940.552 0.2803 0.2798 0.2694 0.2479 0.2293 0.2137 0.2027 0.1992 0.1996 0.2021
1979.131 0.2014 0.1982 0.2115 0.2173 0.2162 0.2289 0.2397 0.2411 0.2497 0.2459
2017.711 0.2432 0.2525 0.2683 0.2824 0.2585 0.2645 0.2774 0.2604 0.2749 0.2948
2056.291 0.3037 0.3064 0.3365 0.3689 0.394 0.4084 0.3998 0.4088 0.3974 0.3906
2094.870 0.3966 0.3665 0.3304 0.2906 0.2649 0.266 0.2516 0.2239 0.2147 0.2274
2133.450 0.2335 0.2398 0.2796 0.3051 0.3064 0.3268 0.3374 0.3638 0.393 0.3959
2172.029 0.3716 0.3307 0.3059 0.2943 0.3062 0.3219 0.3259 0.3306 0.3422 0.3436
2210.609 0.3362 0.3517 0.3699 0.359 0.3467 0.3479 0.3564 0.3602 0.3305 0.3187
2249.188 0.3321 0.3271 0.3337 0.3392 0.3155 0.3109 0.3229 0.3442 0.3635 0.3816
2287.768 0.4241 0.458 0.4735 0.4534 0.4313 0.4236 0.4182 0.4096 0.3866 0.3636
2326.347 0.3406 0.3391 0.3314 0.3306 0.369 0.3868 0.4097 0.4379 0.4373 0.4486
2364.927 0.4877 0.5009 0.5076 0.5373 0.5536 0.5775 0.5924 0.5959 0.5995 0.5842
2403.507 0.564 0.5386 0.5212 0.519 0.5296 0.5488 0.5241 0.4717 0.4598 0.4712
2442.086 0.4566 0.4554 0.48 0.4619 0.4528 0.4708 0.4352 0.4081 0.3896 0.36
2480.666 0.3615 0.3779 0.3841 0.3845 0.3844 0.3752 0.3734 0.3896 0.4164 0.4199
2519.245 0.4369 0.4745 0.4915 0.5114 0.5258 0.5307 0.5461 0.5469 0.5434 0.5357
2557.825 0.537 0.5559 0.5622 0.5743 0.6076 0.6223 0.623 0.6377 0.6549 0.6874
2596.404 0.7444 0.7599 0.7606 0.7991 0.7911 0.7848 0.8121 0.8378 0.854 0.8671
2634.984 0.8955 0.9307 0.9526 0.9756 1.01 1.04 1.07 1.08 1.11 1.14
2673.563 1.14 1.14 1.21 1.28 1.32 1.34 1.36 1.35 1.41 1.5
2712.143 1.53 1.54 1.56 1.59 1.57 1.56 1.57 1.6 1.63 1.65
2750.722 1.69 1.71 1.77 1.83 1.85 1.88 1.91 1.93 1.94 2.01
2789.302 2.08 2.13 2.21 2.3 2.4 2.56 2.74 2.91 3.08 3.27
2827.882 3.57 3.96 4.45 5.13 6.13 7.52 9.3 11.49 13.9 16.12
2866.461 18.01 19.51 20.58 21.46 22.46 23.73 25.26 26.99 28.76 30.43
2905.041 32 33.55 35.25 37.69 41.59 47.59 55.66 65.09 74.87 82.34
2943.620 84.26 80.24 71.73 60.6 50.9 46.83 50.28 58.81 69.62 76.33
2982.200 73.24 66.09 57.35 49.02 43.23 38.47 32.45 24.97 17.84 11.87
3020.779 8 5.78 4.49 3.69 3.13 2.76 2.5 2.27 2.08 1.93
3059.359 1.8 1.7 1.63 1.52 1.42 1.33 1.26 1.25 1.26 1.27
3097.938 1.27 1.25 1.23 1.18 1.15 1.16 1.17 1.15 1.15 1.12
3136.518 1.11 1.1 1.09 1.13 1.16 1.15 1.14 1.15 1.15 1.17
3175.098 1.24 1.23 1.18 1.16 1.13 1.07 1.11 1.11 1.05 1.05
3213.677 0.9992 0.9725 0.9674 0.9528 0.9219 0.8722 0.8404 0.7675 0.7458 0.7318
3252.257 0.6052 0.5509 0.5838 0.5578 0.5412 0.5507 0.5243 0.4865 0.4911 0.4901
3290.836 0.4813 0.4344 0.3571 0.3618 0.3868 0.3723 0.362 0.3286 0.3032 0.3173
3329.416 0.298 0.2622 0.2705 0.3149 0.3146 0.3107 0.346 0.3487 0.3831 0.4246
3367.995 0.4185 0.3406 0.2833 0.3412 0.3936 0.4048 0.4047 0.4126 0.4356 0.4459
3406.575 0.4861 0.513 0.4971 0.4848 0.4992 0.5323 0.5614 0.6182 0.6714 0.6395
3445.154 0.5761 0.6109 0.6174 0.5607 0.5461 0.546 0.5164 0.4385 0.4137 0.3995
3483.734 0.3687 0.4193 0.4353 0.4005 0.389 0.4242 0.415 0.3471 0.3606 0.3911
3522.314 0.4555 0.4625 0.4041 0.4278 0.3989 0.3849 0.3945 0.3464 0.3283 0.3359
3560.893 0.2805 0.2562 0.2998 0.2973 0.2526 0.2517 0.3193 0.3928 0.4761 0.5301
3599.473 0.5904 0.7069 0.8777 1.12 1.4 1.85 2.4 3.01 3.76 4.66
3638.052 6 8.04 10.09 11.46 11.6 10.27 7.96 5.35 3.32 2.16
3676.632 1.46 1.06 0.8297 0.7235 0.603 0.5032 0.5249 0.4807 0.3591 0.3145
3715.211 0.3032 0.2775 0.2768 0.2752 0.3438 0.3761 0.3224 0.3254 0.2791 0.2447
3753.791 0.2668 0.2655 0.3129 0.3436 0.333 0.3166 0.3238 0.3497 0.3593 0.3581
3792.370 0.3715 0.4367 0.4666 0.4105 0.3906 0.4386 0.4827 0.5302 0.5645 0.5754
3830.950 0.5826 0.6138 0.6345 0.6193 0.6114 0.6317 0.5979 0.5855 0.6349 0.6169
3869.530 0.5951 0.6353 0.6373 0.6106 0.5707 0.5374 0.491 0.4522 0.447 0.4465
3908.109 0.4765 0.4747 0.4543 0.4194 0.436 0.4583 0.4189 0.3898 0.4137 0.3856
3946.689 0.374 0.3827 0.3404 0.343 0.3724 0.3626 0.293 0.3301 0.4102 0.3955
3985.268 0.3838 0.3928 0.3687 0.3677 0.3994
##END=
