##TITLE=3-Nitrophenacyl bromide
##JCAMP-DX=4.24
##DATA TYPE=INFRARED SPECTRUM
##ORIGIN=EPA-IR VAPOR PHASE LIBRARY
##OWNER=SRD/NIST
Collection (C) 2018 copyright by the U.S. Secretary of Commerce
on behalf of the United States of America. All rights reserved.
##CAS REGISTRY NO=2227-64-7
##MOLFORM=C 8 H 6 Br N O 3
##$NIST SOURCE=MSDC-IR
##STATE=gas
##XUNITS=1/CM
##YUNITS=ABSORBANCE
##XFACTOR=1.
##YFACTOR=0.001
##DELTAX=1.929
##FIRSTX=549.8
##LASTX=4000.8
##FIRSTY=2.063
##MAXX=4000.75
##MINX=549.766
##MAXY=0.011663
##MINY=0
##NPOINTS=1790
##XYDATA=(X++(Y..Y))
549.766 2.063 2.023 1.6589 1.5882 1.5399 1.2551 1.4776 1.7037 1.5838 1.853
569.056 1.773 1.6037 1.833 1.682 1.7 1.853 1.783 1.6624 1.3307 1.3961
588.346 1.5827 1.5993 1.6615 1.6262 1.6601 1.773 1.913 2.003 2.053 2.113
607.636 2.393 2.593 2.673 2.813 2.823 2.913 2.983 2.913 2.843 2.783
626.926 2.533 2.303 2.193 2.003 1.963 1.903 1.743 1.6782 1.6384 1.5665
646.216 1.5889 1.5195 1.357 1.6266 1.843 1.933 2.233 2.553 2.813 3.013
665.506 3.253 3.553 3.653 3.503 3.193 2.683 2.313 2.173 2.003 1.823
684.796 1.5926 1.4945 1.5347 1.6382 1.7013 1.7274 1.7277 1.6542 1.6732 1.7104
704.086 1.793 2.183 2.363 2.393 2.543 2.583 2.703 2.793 2.763 2.693
723.376 2.633 2.503 2.353 2.193 2.013 1.923 1.893 1.753 1.6677 1.5555
742.666 1.494 1.5286 1.435 1.4526 1.5665 1.7291 1.913 1.923 1.893 2.063
761.956 2.363 2.293 2.053 2.083 2.003 1.773 1.6177 1.4185 1.3224 1.314
781.246 1.2905 1.4308 1.4947 1.4191 1.3807 1.4196 1.5463 1.6349 1.634 1.773
800.536 1.883 1.883 2.113 2.203 2.163 2.073 2.163 2.373 2.173 1.883
819.826 1.5894 1.3219 1.2307 1.2346 1.2483 1.1908 1.2105 1.1643 1.1373 1.1598
839.116 1.1268 1.1509 1.1013 1.0339 0.9481 0.9289 1.0339 1.1088 1.2073 1.2018
858.406 1.1735 1.341 1.4467 1.4181 1.4092 1.492 1.7182 1.833 1.833 1.843
877.696 1.743 1.7409 1.763 1.6114 1.557 1.5692 1.4983 1.4384 1.3704 1.2359
896.986 1.2438 1.3545 1.2727 1.257 1.3683 1.3298 1.4109 1.5062 1.4468 1.3667
916.276 1.2121 1.1036 1.1725 1.2368 1.2361 1.1877 1.083 1.0848 1.1047 1.1041
935.566 1.129 1.1442 1.1318 1.1269 1.1644 1.1111 1.0362 1.0085 0.9951 0.9072
954.856 0.83871 0.79854 0.75868 0.8554 0.921 0.9557 1.0503 1.0253 0.9733 1.0138
974.146 1.0185 1.0232 1.0148 1.0274 1.1331 1.19 1.2226 1.2798 1.2628 1.248
993.436 1.2614 1.2785 1.3853 1.4155 1.4385 1.5372 1.5697 1.6189 1.734 1.883
1012.726 2.063 2.153 2.113 2.113 2.183 2.283 2.233 2.043 1.873 1.773
1032.016 1.7397 1.7405 1.6968 1.6159 1.6351 1.5265 1.3771 1.2469 1.181 1.302
1051.306 1.2896 1.1552 1.0891 1.1635 1.224 1.1828 1.1584 1.2241 1.3195 1.4109
1070.596 1.556 1.7031 1.873 1.973 2.133 2.353 2.393 2.323 2.293 2.323
1089.886 2.303 2.293 2.353 2.493 2.493 2.423 2.393 2.373 2.383 2.273
1109.176 1.933 1.753 1.6829 1.5326 1.4515 1.4075 1.4072 1.3593 1.3181 1.3488
1128.467 1.3747 1.3141 1.2601 1.2208 1.2148 1.33 1.2991 1.1249 1.0488 1.1006
1147.757 1.1014 1.0995 1.108 1.1634 1.2101 1.1871 1.2777 1.4213 1.4523 1.4088
1167.047 1.5077 1.6013 1.6592 1.7103 1.638 1.6158 1.6284 1.6041 1.579 1.6517
1186.337 1.913 2.103 2.253 2.403 2.453 2.423 2.573 2.703 2.673 2.573
1205.627 2.513 2.393 2.203 2.133 1.843 1.6897 1.783 1.903 2.003 2.013
1224.917 1.873 1.753 1.7283 1.7381 1.873 2.023 2.113 2.243 2.383 2.583
1244.207 2.873 3.223 3.793 4.423 5.143 6.023 7.003 7.793 8.193 8.353
1263.497 8.203 7.653 6.823 5.803 4.743 3.933 3.363 2.953 2.803 2.893
1282.787 2.993 3.123 3.273 3.403 3.563 3.693 3.883 3.963 3.803 3.653
1302.077 3.423 3.103 2.823 2.593 2.413 2.253 2.123 2.023 1.893 1.823
1321.367 1.793 1.783 1.863 1.983 2.073 2.193 2.423 2.783 3.293 3.973
1340.657 4.813 5.813 6.993 8.193 9.263 10.083 10.363 10.073 9.353 8.223
1359.947 6.773 5.393 4.293 3.403 2.743 2.333 2.023 1.803 1.603 1.3931
1379.237 1.3071 1.2406 1.1519 1.1944 1.2614 1.2725 1.1883 1.1618 1.1763 1.1857
1398.527 1.2287 1.1909 1.1707 1.1702 1.2334 1.2824 1.2936 1.3092 1.3272 1.396
1417.817 1.4914 1.637 1.783 1.883 2.033 2.223 2.363 2.393 2.413 2.503
1437.107 2.473 2.363 2.143 1.913 1.6983 1.4045 1.1923 1.1273 1.0761 1.0491
1456.397 1.0932 1.0408 1.0092 1.0904 1.1532 1.1628 1.2306 1.2925 1.3718 1.4245
1475.687 1.4765 1.5555 1.519 1.53 1.571 1.6428 1.6171 1.5145 1.5203 1.5985
1494.977 1.6426 1.6681 1.7165 1.6753 1.6969 1.893 1.973 1.863 1.803 1.763
1514.267 1.813 1.913 1.883 1.933 2.053 2.093 2.173 2.333 2.623 3.063
1533.557 3.613 4.313 5.303 6.593 7.923 9.213 10.423 11.313 11.663 11.403
1552.847 10.603 9.443 8.133 6.713 5.253 4.213 3.583 3.093 2.853 2.753
1572.137 2.553 2.503 2.533 2.413 2.383 2.333 2.283 2.303 2.303 2.343
1591.427 2.343 2.283 2.233 2.213 2.203 2.273 2.383 2.493 2.693 2.893
1610.717 3.003 3.063 3.163 3.093 2.813 2.533 2.243 1.973 1.726 1.5391
1630.007 1.3819 1.2813 1.2959 1.2675 1.1091 1.0369 1.0112 1.0151 1.0566 1.0451
1649.297 0.9834 1.0834 1.2129 1.0976 0.9734 0.9659 1.0321 1.0653 0.9998 1.015
1668.587 1.1191 1.1295 1.1691 1.266 1.2846 1.2899 1.348 1.5531 1.803 1.863
1687.877 1.953 2.183 2.573 3.193 3.993 4.853 5.903 6.953 7.683 8.273
1707.167 8.563 8.533 8.113 7.363 6.383 5.473 4.543 3.783 3.293 2.933
1726.457 2.683 2.463 2.273 2.113 2.003 1.7147 1.517 1.4294 1.2525 1.1824
1745.747 1.1608 1.077 1.0216 0.9911 0.8739 0.81989 0.8573 0.83101 0.80461 0.745407
1765.037 0.7003 0.74437 0.75664 0.80422 0.79186 0.7121 0.7121 0.7037 0.6599 0.613
1784.327 0.639 0.614 0.547 0.621 0.6547 0.615 0.636 0.582 0.517 0.552
1803.617 0.536 0.595 0.6605 0.622 0.579 0.544 0.539 0.56 0.614 0.619
1822.907 0.592 0.625 0.6472 0.616 0.572 0.499 0.516 0.558 0.515 0.564
1842.197 0.575 0.548 0.534 0.526 0.483 0.483 0.511 0.487 0.551 0.569
1861.487 0.464 0.445 0.535 0.564 0.527 0.463 0.48 0.511 0.53 0.539
1880.777 0.501 0.469 0.447 0.461 0.521 0.52 0.488 0.491 0.472 0.494
1900.067 0.542 0.507 0.502 0.51 0.471 0.509 0.485 0.485 0.485 0.424
1919.357 0.48 0.478 0.483 0.533 0.525 0.502 0.442 0.423 0.444 0.436
1938.647 0.392 0.399 0.441 0.433 0.428 0.429 0.458 0.475 0.446 0.453
1957.937 0.473 0.48 0.464 0.497 0.539 0.478 0.412 0.433 0.454 0.391
1977.227 0.426 0.455 0.441 0.479 0.485 0.465 0.409 0.379 0.344 0.347
1996.517 0.336 0.297 0.313 0.313 0.325 0.366 0.406 0.398 0.352 0.322
2015.807 0.327 0.281 0.282 0.355 0.294 0.274 0.364 0.337 0.356 0.385
2035.097 0.321 0.355 0.284 0.246 0.316 0.33 0.368 0.358 0.322 0.314
2054.387 0.322 0.338 0.343 0.324 0.348 0.337 0.318 0.306 0.314 0.342
2073.677 0.312 0.301 0.315 0.349 0.313 0.334 0.342 0.292 0.315 0.291
2092.967 0.267 0.27 0.278 0.294 0.326 0.292 0.252 0.273 0.309 0.29
2112.257 0.291 0.298 0.29 0.31 0.309 0.334 0.355 0.369 0.311 0.267
2131.547 0.255 0.216 0.228 0.205 0.21 0.213 0.231 0.275 0.234 0.221
2150.837 0.274 0.314 0.303 0.319 0.278 0.234 0.272 0.286 0.296 0.263
2170.127 0.249 0.289 0.267 0.256 0.315 0.266 0.21 0.26 0.302 0.285
2189.417 0.267 0.329 0.336 0.289 0.244 0.23 0.293 0.296 0.253 0.226
2208.707 0.248 0.274 0.229 0.209 0.256 0.251 0.264 0.301 0.263 0.209
2227.997 0.191 0.238 0.24 0.18 0.148 0.2 0.257 0.214 0.159 0.181
2247.287 0.199 0.248 0.264 0.203 0.226 0.238 0.247 0.289 0.243 0.221
2266.577 0.264 0.275 0.21 0.182 0.192 0.182 0.21 0.215 0.188 0.21
2285.868 0.238 0.21 0.224 0.256 0.238 0.242 0.216 0.189 0.245 0.232
2305.158 0.233 0.292 0.268 0.283 0.278 0.27 0.295 0.278 0.229 0.2
2324.448 0.241 0.29 0.263 0.263 0.308 0.337 0.375 0.326 0.298 0.304
2343.738 0.251 0.233 0.172 0.159 0.263 0.261 0.267 0.32 0.378 0.384
2363.028 0.374 0.344 0.272 0.272 0.24 0.185 0.168 0.157 0.2 0.198
2382.318 0.185 0.232 0.233 0.207 0.187 0.198 0.211 0.191 0.219 0.24
2401.608 0.195 0.179 0.199 0.156 0.158 0.192 0.158 0.217 0.223 0.162
2420.898 0.186 0.169 0.146 0.152 0.174 0.236 0.252 0.223 0.237 0.219
2440.188 0.207 0.237 0.17 0.212 0.245 0.184 0.193 0.227 0.247 0.2
2459.478 0.201 0.209 0.244 0.27 0.179 0.162 0.189 0.185 0.21 0.237
2478.768 0.216 0.233 0.274 0.239 0.211 0.239 0.272 0.231 0.14 0.12
2498.058 0.16 0.184 0.166 0.146 0.132 0.106 0.114 0.169 0.185 0.172
2517.348 0.11 0.075 0.129 0.121 0.129 0.153 0.182 0.218 0.206 0.171
2536.638 0.139 0.106 0.109 0.123 0.097 0.127 0.187 0.162 0.162 0.203
2555.928 0.193 0.178 0.144 0.128 0.13 0.152 0.191 0.218 0.167 0.092
2575.218 0.143 0.17 0.152 0.118 0.13 0.128 0.096 0.085 0.154 0.215
2594.508 0.195 0.187 0.209 0.237 0.203 0.185 0.216 0.223 0.171 0.175
2613.798 0.137 0.116 0.161 0.162 0.201 0.17 0.125 0.14 0.198 0.222
2633.088 0.147 0.101 0.097 0.134 0.173 0.164 0.127 0.109 0.204 0.267
2652.378 0.192 0.139 0.12 0.17 0.258 0.284 0.208 0.16 0.145 0.15
2671.668 0.116 0.083 0.139 0.086 0.099 0.259 0.254 0.162 0.168 0.184
2690.958 0.149 0.184 0.176 0.164 0.188 0.151 0.209 0.235 0.159 0.136
2710.248 0.165 0.208 0.241 0.184 0.125 0.127 0.172 0.19 0.068 0
2729.538 0.092 0.106 0.084 0.073 0.086 0.152 0.129 0.099 0.17 0.178
2748.828 0.094 0.06 0.115 0.117 0.127 0.254 0.273 0.169 0.12 0.159
2768.118 0.111 0.075 0.137 0.178 0.124 0.044 0.081 0.075 0.011 0.083
2787.408 0.188 0.11 0.057 0.084 0.072 0.098 0.161 0.147 0.181 0.146
2806.698 0.061 0.175 0.201 0.205 0.251 0.169 0.058 0.175 0.234 0.209
2825.988 0.22 0.267 0.281 0.188 0.14 0.166 0.238 0.228 0.23 0.267
2845.278 0.271 0.244 0.193 0.285 0.365 0.274 0.276 0.3 0.232 0.275
2864.568 0.3 0.189 0.236 0.351 0.406 0.362 0.3 0.278 0.314 0.311
2883.858 0.317 0.442 0.461 0.453 0.456 0.407 0.373 0.424 0.375 0.259
2903.148 0.192 0.243 0.21 0.08 0.134 0.155 0.184 0.329 0.389 0.457
2922.438 0.491 0.38 0.409 0.422 0.398 0.397 0.356 0.287 0.257 0.363
2941.728 0.427 0.454 0.392 0.354 0.414 0.446 0.408 0.419 0.561 0.581
2961.018 0.524 0.483 0.495 0.469 0.415 0.438 0.513 0.478 0.413 0.569
2980.308 0.573 0.524 0.502 0.432 0.522 0.551 0.532 0.423 0.264 0.322
2999.598 0.303 0.283 0.302 0.292 0.342 0.32 0.326 0.4 0.387 0.291
3018.888 0.189 0.14 0.295 0.345 0.183 0.137 0.241 0.363 0.352 0.269
3038.178 0.231 0.298 0.383 0.344 0.402 0.514 0.513 0.6 0.507 0.383
3057.468 0.392 0.378 0.389 0.403 0.422 0.456 0.629 0.76875 0.7123 0.6964
3076.758 0.78696 0.81108 0.9773 1.0891 0.9818 0.8668 0.8688 0.9925 0.977 0.83796
3096.048 0.78297 0.7246 0.6543 0.608 0.537 0.526 0.458 0.327 0.253 0.371
3115.338 0.419 0.328 0.349 0.36 0.446 0.377 0.184 0.26 0.341 0.328
3134.628 0.322 0.307 0.239 0.224 0.33 0.353 0.388 0.5 0.399 0.316
3153.918 0.5 0.444 0.321 0.348 0.352 0.389 0.468 0.532 0.44 0.447
3173.208 0.494 0.401 0.38 0.329 0.323 0.322 0.362 0.417 0.328 0.273
3192.498 0.301 0.252 0.365 0.426 0.431 0.412 0.411 0.484 0.405 0.365
3211.788 0.423 0.566 0.492 0.463 0.571 0.59 0.535 0.446 0.37 0.243
3231.078 0.31 0.429 0.444 0.484 0.492 0.501 0.397 0.35 0.394 0.518
3250.368 0.601 0.597 0.631 0.7172 0.6857 0.523 0.499 0.492 0.452 0.494
3269.658 0.412 0.4 0.628 0.635 0.509 0.529 0.535 0.519 0.58 0.577
3288.948 0.48 0.503 0.542 0.524 0.558 0.616 0.607 0.501 0.44 0.469
3308.238 0.511 0.6 0.492 0.272 0.248 0.41 0.6555 0.633 0.54 0.603
3327.528 0.562 0.432 0.478 0.511 0.524 0.607 0.519 0.506 0.44 0.416
3346.818 0.609 0.618 0.492 0.491 0.503 0.484 0.507 0.565 0.514 0.465
3366.108 0.553 0.589 0.6455 0.642 0.53 0.456 0.486 0.539 0.6472 0.6884
3385.398 0.6619 0.7411 0.7063 0.613 0.6678 0.6802 0.6991 0.6965 0.621 0.603
3404.688 0.63 0.645 0.495 0.493 0.569 0.598 0.587 0.51 0.642 0.6954
3423.978 0.62 0.597 0.655 0.6696 0.718 0.743718 0.6571 0.6524 0.583 0.573
3443.269 0.628 0.76044 0.77475 0.6922 0.65 0.62 0.6577 0.6864 0.587 0.569
3462.559 0.6667 0.448 0.432 0.48 0.501 0.623 0.637 0.6822 0.594 0.58
3481.849 0.678 0.7282 0.6833 0.586 0.6672 0.7 0.711 0.607 0.374 0.408
3501.139 0.635 0.81865 0.6688 0.542 0.62 0.532 0.439 0.559 0.6909 0.6937
3520.429 0.555 0.473 0.605 0.6815 0.6952 0.7145 0.7105 0.753 0.77389 0.6597
3539.719 0.635 0.6497 0.6842 0.7253 0.586 0.483 0.543 0.557 0.55 0.6
3559.009 0.641 0.661 0.617 0.568 0.583 0.612 0.628 0.6701 0.75955 0.79694
3578.299 0.61 0.529 0.556 0.579 0.618 0.565 0.555 0.6515 0.6866 0.612
3597.589 0.581 0.54 0.602 0.64 0.534 0.535 0.52 0.513 0.484 0.46
3616.879 0.466 0.586 0.6697 0.62 0.724 0.76892 0.75216 0.7199 0.642 0.638
3636.169 0.6436 0.751969 0.7061 0.6 0.531 0.595 0.589 0.461 0.497 0.526
3655.459 0.6542 0.642 0.572 0.489 0.465 0.6613 0.8967 0.9253 0.9077 0.8742
3674.749 0.79272 0.613 0.551 0.521 0.434 0.453 0.496 0.617 0.6824 0.584
3694.039 0.476 0.485 0.441 0.357 0.43 0.576 0.614 0.545 0.522 0.646
3713.329 0.731 0.607 0.579 0.6642 0.631 0.6592 0.613 0.592 0.618 0.626
3732.619 0.548 0.552 0.616 0.514 0.559 0.7069 0.9142 0.8998 0.75429 0.7142
3751.909 0.77676 0.6754 0.465 0.489 0.409 0.315 0.368 0.501 0.7328 0.7325
3771.199 0.491 0.567 0.6688 0.622 0.62 0.494 0.392 0.398 0.454 0.58
3790.489 0.605 0.458 0.421 0.447 0.55 0.62 0.569 0.542 0.553 0.558
3809.779 0.551 0.512 0.538 0.6967 0.627 0.483 0.473 0.366 0.328 0.401
3829.069 0.458 0.555 0.582 0.469 0.359 0.308 0.228 0.35 0.424 0.385
3848.359 0.574 0.75968 0.75646 0.6591 0.567 0.591 0.585 0.519 0.447 0.462
3867.649 0.538 0.584 0.496 0.489 0.626 0.589 0.59 0.447 0.25 0.299
3886.939 0.381 0.43 0.468 0.505 0.518 0.326 0.263 0.424 0.407 0.304
3906.229 0.3 0.393 0.452 0.525 0.518 0.43 0.553 0.529 0.371 0.409
3925.519 0.404 0.36 0.408 0.413 0.393 0.302 0.338 0.382 0.33 0.487
3944.809 0.578 0.515 0.532 0.449 0.28 0.295 0.247 0.15 0.246 0.484
3964.099 0.567 0.498 0.418 0.453 0.326 0.261 0.392 0.237 0.18 0.359
3983.389 0.354 0.35 0.457 0.436 0.373 0.384 0.534 0.488 0.275 0.156
##END=
