##TITLE=2-Methyl-5-nonanone
##JCAMP-DX=4.24
##DATA TYPE=INFRARED SPECTRUM
##ORIGIN=NIST Mass Spectrometry Data Center
##OWNER=NIST Standard Reference Data Program
Collection (C) 2018 copyright by the U.S. Secretary of Commerce
on behalf of the United States of America. All rights reserved.
##CAS REGISTRY NO=22287-02-1
##MOLFORM=C 10 H 20 O
##$NIST SOURCE=MSDC-IR
##SPECTROMETER/DATA SYSTEM=HP-GC/MS/IRD
##STATE=gas
##XUNITS=1/CM
##YUNITS=ABSORBANCE
##XFACTOR=1.0
##YFACTOR=0.000004200
##DELTAX=4.0
##FIRSTX=550.0
##LASTX=3846.0
##FIRSTY=0.000235
##MAXX=3846
##MINX=550
##MAXY=0.042
##MINY=0
##NPOINTS=825
##XYDATA=(X++(Y..Y))
550.0 56 76 86 74 64 50 41 32 46 57
590.0 43 35 43 57 68 71 65 68 88 93
630.0 89 90 89 75 50 48 45 42 46 44
670.0 30 18 16 23 29 35 41 37 29 43
710.0 65 71 68 83 102 113 132 140 138 156
750.0 170 161 159 159 149 138 132 124 118 107
790.0 90 91 89 72 79 72 62 54 78 80
830.0 49 50 50 54 59 64 73 87 93 96
870.0 106 115 114 114 116 115 112 120 126 129
910.0 138 149 153 159 160 149 147 153 163 163
950.0 162 173 186 191 193 195 200 200 202 203
990.0 202 207 212 223 246 277 332 391 446 504
1030.0 558 617 710 837 962 1061 1107 1074 987 860
1070.0 726 614 532 476 450 445 446 459 493 547
1110.0 613 692 772 844 909 961 982 984 984 982
1150.0 978 979 970 929 867 781 676 572 484 432
1190.0 411 409 418 428 446 469 490 510 521 535
1230.0 557 578 608 638 662 682 706 735 745 741
1270.0 713 671 630 596 573 558 547 553 575 608
1310.0 652 713 800 902 996 1082 1149 1193 1241 1274
1350.0 1305 1349 1394 1416 1412 1358 1282 1220 1190 1169
1390.0 1112 990 851 762 733 743 758 766 779 791
1430.0 801 812 849 921 1002 1092 1167 1239 1295 1290
1470.0 1227 1095 922 742 582 451 360 295 244 190
1510.0 155 140 123 109 104 100 89 83 78 74
1550.0 72 64 61 75 74 67 68 68 71 78
1590.0 78 76 71 74 78 79 81 80 84 89
1630.0 93 95 101 109 118 128 137 155 184 211
1670.0 243 284 338 401 488 606 773 1021 1395 1913
1710.0 2581 3317 4028 4532 4638 4284 3559 2693 1889 1269
1750.0 854 605 451 352 279 225 192 167 140 122
1790.0 111 100 88 74 71 69 63 59 52 43
1830.0 41 40 42 35 29 34 32 30 30 27
1870.0 23 23 23 23 22 18 15 17 19 18
1910.0 15 14 11 10 10 13 14 11 9 14
1950.0 15 12 12 10 9 12 12 11 10 11
1990.0 12 13 15 13 14 15 9 8 12 17
2030.0 17 18 18 17 15 13 13 13 14 17
2070.0 17 16 14 14 19 19 15 16 20 22
2110.0 18 16 17 18 18 18 19 20 24 24
2150.0 20 20 21 23 23 22 20 20 19 19
2190.0 20 22 23 23 19 18 17 18 24 24
2230.0 19 20 24 24 20 20 19 17 21 25
2270.0 23 21 24 25 21 17 13 13 14 14
2310.0 13 12 15 15 13 16 21 27 23 19
2350.0 21 21 21 23 21 20 21 22 24 28
2390.0 29 30 30 33 33 30 28 26 28 29
2430.0 28 26 28 24 24 23 21 22 24 23
2470.0 22 26 27 24 25 25 24 24 25 24
2510.0 24 27 28 26 27 28 26 26 29 30
2550.0 32 34 41 39 40 45 44 46 49 47
2590.0 50 55 54 53 61 66 67 73 79 75
2630.0 74 77 80 79 76 84 90 85 86 94
2670.0 92 92 95 100 100 101 100 96 92 98
2710.0 109 115 125 137 149 160 170 181 190 188
2750.0 186 184 186 193 199 203 212 221 231 248
2790.0 265 286 312 342 380 415 443 475 519 569
2830.0 614 671 759 873 1017 1213 1463 1759 2108 2511
2870.0 2949 3380 3737 3953 3999 3937 3858 3845 3921 4070
2910.0 4295 4587 4923 5280 5643 6017 6391 6714 6925 7075
2950.0 7315 7823 8698 9659 10000 9295 7684 5735 4097 2964
2990.0 2198 1670 1298 1042 856 725 624 542 475 426
3030.0 391 360 331 307 288 268 258 249 242 233
3070.0 222 221 219 208 196 190 178 169 159 148
3110.0 147 143 139 127 125 124 124 118 112 114
3150.0 114 114 112 111 113 112 109 111 106 101
3190.0 97 89 89 83 78 74 64 51 44 43
3230.0 37 35 34 28 27 31 28 22 21 17
3270.0 18 18 20 23 20 20 25 22 21 23
3310.0 21 28 30 30 33 32 33 34 36 37
3350.0 40 38 37 38 38 34 35 43 47 48
3390.0 47 48 48 48 58 69 72 86 93 100
3430.0 104 92 94 96 84 69 61 54 41 32
3470.0 29 26 24 20 22 25 25 14 2 10
3510.0 14 22 24 13 15 27 25 21 17 8
3550.0 16 20 17 11 0 5 18 25 23 16
3590.0 14 15 22 26 22 16 17 20 21 16
3630.0 16 25 32 36 31 19 24 38 42 42
3670.0 35 30 32 42 40 39 45 44 39 41
3710.0 31 29 35 32 33 38 36 37 31 28
3750.0 37 38 39 41 45 44 42 50 55 56
3790.0 57 53 53 56 61 61 58 59 61 65
3830.0 70 63 59 57 58
##END=
