##TITLE=4-Methyl-2-phenyl-1,2,3-triazole-5-carboxylic acid
##JCAMP-DX=4.24
##DATA TYPE=INFRARED SPECTRUM
##ORIGIN=EPA-IR VAPOR PHASE LIBRARY
##OWNER=SRD/NIST
Collection (C) 2018 copyright by the U.S. Secretary of Commerce
on behalf of the United States of America. All rights reserved.
##CAS REGISTRY NO=22300-56-7
##MOLFORM=C 10 H 9 N 3 O 2
##$NIST SOURCE=MSDC-IR
##STATE=gas
##XUNITS=1/CM
##YUNITS=ABSORBANCE
##XFACTOR=1.
##YFACTOR=0.001
##DELTAX=1.92898
##FIRSTX=549.8
##LASTX=4000.7
##FIRSTY=9.914
##MAXX=4000.7
##MINX=549.759
##MAXY=0.072614
##MINY=0
##NPOINTS=1790
##XYDATA=(X++(Y..Y))
549.759 9.914 11.224 12.014 12.674 12.884 13.084 13.054 12.194 10.924 9.144
569.049 7.974 7.664 7.074 6.074 5.184 5.124 4.964 4.504 4.494 3.994
588.339 3.384 3.154 2.794 2.824 2.874 2.524 2.854 3.694 3.824 2.894
607.628 2.284 2.664 2.794 2.694 2.814 2.444 2.404 2.744 2.514 2.154
626.918 1.574 1.654 2.434 2.414 1.764 1.744 2.254 2.374 2.384 2.654
646.208 3.154 3.134 3.284 4.224 5.354 6.334 7.894 10.024 12.004 13.394
665.498 14.264 14.944 15.154 14.494 13.694 13.434 13.624 14.174 14.714 15.374
684.787 16.344 18.344 19.924 19.724 17.794 16.154 15.564 13.824 10.944 8.304
704.077 6.614 5.374 4.264 4.144 4.344 3.924 3.784 3.894 3.914 4.114
723.367 4.214 4.454 4.514 4.164 4.084 4.274 4.974 5.514 6.204 7.614
742.657 9.234 11.324 13.254 15.234 17.204 19.324 21.334 21.094 19.384 17.714
761.947 16.644 15.294 13.424 11.904 10.694 9.864 9.374 8.864 8.244 7.974
781.236 7.584 7.334 7.184 6.704 5.894 5.234 4.634 4.044 3.174 2.914
800.526 3.374 3.234 2.734 2.394 2.384 2.444 2.324 2.084 2.014 1.924
819.816 1.974 1.824 1.854 2.194 2.414 2.234 1.554 1.424 1.704 1.704
839.106 1.434 1.1449 1.0174 0.8862 1.172 1.2454 1.274 1.294 1.0052 0.7054
858.395 1.0036 1.314 0.8896 0.742 0.9102 1.0684 1.0962 1.04 0.9799 0.6836
877.685 0.5235 0.6892 1.0297 0.9243 0.7636 0.9172 0.9372 1.1617 1.404 1.324
896.975 1.0552 1.0155 1.1982 1.1868 1.1755 1.684 1.994 2.074 2.104 2.024
916.265 1.964 1.554 1.284 1.294 1.264 1.1682 1.156 1.324 1.364 1.454
935.555 1.344 1.304 1.374 1.334 1.2098 1.514 1.994 2.254 2.564 2.764
954.844 3.004 3.454 4.394 5.634 7.354 9.384 11.784 13.984 15.414 16.594
974.134 16.414 15.174 13.754 11.614 9.524 7.904 6.634 5.694 4.804 4.474
993.424 4.384 3.804 3.544 3.474 3.254 3.214 3.044 2.794 2.454 2.564
1012.714 3.024 3.054 2.974 2.814 3.224 3.574 3.624 3.834 3.484 2.914
1032.003 2.664 2.714 2.434 2.724 2.564 2.164 2.734 3.044 3.074 3.264
1051.293 3.504 3.964 4.654 5.104 5.514 6.384 7.114 7.584 8.014 8.864
1070.583 10.724 12.654 15.004 17.994 21.094 25.384 29.944 35.174 40.794 45.354
1089.873 49.514 53.034 55.064 55.394 54.884 54.074 53.314 51.044 46.234 41.034
1109.163 36.104 29.774 23.924 19.904 15.514 12.284 10.204 8.474 7.714 6.854
1128.452 6.064 5.154 4.314 3.714 3.634 3.184 3.154 3.984 3.954 4.004
1147.742 3.314 2.794 2.714 2.634 2.884 3.044 3.374 2.914 2.304 3.354
1167.032 4.594 4.284 4.324 4.694 4.674 4.834 5.274 5.574 5.344 5.834
1186.322 6.134 5.904 6.264 6.854 6.984 6.104 5.964 6.234 6.154 6.224
1205.611 6.834 6.654 6.044 6.934 6.784 5.664 5.944 6.894 7.774 8.564
1224.901 8.734 8.964 9.884 9.684 9.114 9.794 10.074 9.324 8.584 7.904
1244.191 7.394 6.904 5.794 4.704 4.464 4.154 3.664 3.704 3.564 3.604
1263.481 3.904 4.054 3.794 3.694 3.804 4.064 4.504 4.624 5.104 5.784
1282.771 6.174 6.324 6.634 7.404 8.354 9.294 10.184 11.544 13.474 15.724
1302.060 17.944 20.214 23.024 26.094 28.894 31.294 33.254 34.624 35.244 34.794
1321.350 33.354 31.354 28.954 26.334 23.794 21.594 19.754 18.304 17.244 16.564
1340.640 16.334 16.484 16.494 16.614 16.834 16.884 17.024 17.014 16.884 16.694
1359.930 16.474 16.294 15.974 15.474 14.844 14.174 13.444 12.674 11.814 10.844
1379.219 9.884 8.914 8.124 7.394 6.574 5.914 5.514 5.124 4.554 4.044
1398.509 3.754 3.614 3.534 3.574 3.584 3.654 3.754 3.864 3.944 3.804
1417.799 3.644 3.724 3.964 4.184 4.484 4.764 5.024 5.364 5.944 6.354
1437.089 6.734 7.434 8.084 8.504 8.834 9.304 9.694 10.074 10.384 10.564
1456.378 10.764 11.154 11.594 12.034 12.544 13.144 14.064 15.054 16.034 17.254
1475.668 18.524 19.774 20.804 21.584 22.234 22.924 23.804 24.564 25.444 26.294
1494.958 26.634 26.534 26.104 25.404 24.444 23.324 22.254 21.814 21.694 21.564
1514.248 21.534 21.414 20.914 19.804 18.294 16.704 14.914 13.054 11.114 9.304
1533.538 7.944 6.694 5.634 5.024 4.554 4.024 3.664 3.524 3.424 3.254
1552.827 3.064 2.964 2.944 2.874 2.754 2.644 2.744 2.944 3.014 2.914
1572.117 3.134 3.564 4.084 4.634 4.854 5.174 5.844 6.664 7.714 8.994
1591.407 10.404 12.044 13.434 14.314 14.664 14.224 13.004 11.314 9.304 7.414
1610.697 5.784 4.474 3.654 3.064 2.784 2.524 2.284 2.274 2.144 2.024
1629.986 1.934 1.754 1.674 1.554 1.654 1.744 1.704 1.734 1.624 1.624
1649.276 1.764 1.794 1.674 1.774 2.004 2.114 2.144 2.174 2.244 2.164
1668.566 2.054 2.194 2.184 2.024 2.004 1.824 1.684 1.754 1.684 1.804
1687.856 1.914 1.854 1.984 2.254 2.354 2.454 2.644 2.844 3.174 3.574
1707.146 3.894 4.204 4.294 4.274 4.294 4.284 4.314 4.354 4.354 4.424
1726.435 4.604 4.824 5.204 5.934 6.854 7.914 9.214 10.924 13.494 17.384
1745.725 23.264 31.824 42.814 55.104 65.684 71.484 72.614 69.914 62.624 50.574
1765.015 37.334 27.844 23.394 22.234 23.074 25.434 28.934 33.474 39.034 45.324
1784.305 51.564 56.534 58.574 57.144 52.884 46.234 37.484 27.994 20.174 14.814
1803.594 11.554 9.644 8.334 7.224 6.344 5.734 5.164 4.724 4.334 3.884
1822.884 3.504 3.184 2.854 2.604 2.324 2.284 2.304 2.234 2.234 2.194
1842.174 2.224 2.264 2.274 2.164 2.054 1.914 1.844 1.774 1.634 1.614
1861.464 1.644 1.664 1.594 1.544 1.604 1.554 1.574 1.624 1.594 1.674
1880.754 1.644 1.544 1.534 1.524 1.444 1.284 1.314 1.374 1.2174 1.0857
1900.043 1.0621 1.0159 0.9479 0.9498 0.8778 0.8685 0.8978 0.7994 0.8334 0.9266
1919.333 0.8416 0.8123 0.9377 0.9854 1.0931 1.1936 1.2 1.324 1.384 1.384
1938.623 1.444 1.454 1.454 1.504 1.494 1.484 1.584 1.574 1.394 1.324
1957.913 1.404 1.414 1.24 1.1783 1.1276 1.0377 1.0398 1.0472 1.0794 1.0438
1977.202 0.9663 0.9347 0.9681 0.8758 0.7408 0.7724 0.7036 0.5996 0.5636 0.5335
1996.492 0.6079 0.6844 0.5935 0.5639 0.6753 0.7578 0.6516 0.6249 0.7484 0.6392
2015.782 0.511 0.5778 0.6435 0.5291 0.4679 0.5861 0.6403 0.6636 0.6047 0.5938
2035.072 0.6007 0.6451 0.7778 0.7886 0.7606 0.76 0.7698 0.6839 0.6813 0.7168
2054.362 0.6475 0.5474 0.5422 0.5822 0.5131 0.5614 0.603 0.5847 0.6707 0.5723
2073.651 0.5653 0.6416 0.6207 0.6065 0.6176 0.6217 0.6145 0.6063 0.5876 0.5016
2092.941 0.4738 0.6422 0.673 0.63 0.6551 0.7166 0.6164 0.6126 0.6599 0.5685
2112.231 0.5073 0.4537 0.3649 0.34706 0.5144 0.4661 0.4104 0.6023 0.6305 0.57
2131.521 0.6538 0.7134 0.678 0.6142 0.5764 0.6152 0.7056 0.7682 0.709 0.6586
2150.810 0.6863 0.6935 0.738 0.7183 0.7746 0.8019 0.8111 0.9247 0.8905 0.8116
2170.100 0.851 0.9475 0.889 0.8879 1.0384 1.0743 1.0664 1.0725 1.0136 0.9981
2189.390 1.0378 1.0557 0.9878 0.8149 0.7532 0.8414 0.8391 0.6591 0.6522 0.8261
2208.680 0.8009 0.7897 0.7219 0.6644 0.9263 0.9156 0.7893 0.8023 0.7354 0.7079
2227.970 0.7975 0.7169 0.5598 0.6842 0.8147 0.7607 0.6255 0.6015 0.6476 0.746
2247.259 0.7993 0.7345 0.7791 0.7851 0.6522 0.6126 0.6586 0.6987 0.7025 0.7619
2266.549 0.7171 0.6753 0.7911 0.92 0.8589 0.706 0.71 0.7229 0.7396 0.7681
2285.839 0.753 0.715 0.7337 0.6969 0.6077 0.7372 0.8657 0.915 0.8298 0.7858
2305.129 0.8974 0.8244 0.6626 0.7491 0.9927 1.0845 0.9879 0.9486 1.0336 0.9501
2324.418 0.7947 0.7314 0.8039 0.8551 0.9046 0.9202 0.9314 0.9773 0.8586 0.7703
2343.708 0.8197 0.894 0.8101 0.7325 0.865 0.9709 0.9809 0.9533 0.9458 0.9137
2362.998 0.8285 0.8264 0.9013 0.8304 0.7095 0.7911 0.8778 0.921 0.9372 0.9221
2382.288 0.9186 1.0635 1.0423 0.8612 0.8622 0.8268 0.8375 0.9239 0.9476 0.8241
2401.578 0.7696 0.9006 0.9855 0.9669 0.9596 1.0136 1.0089 0.9162 0.9473 0.9225
2420.867 0.889 0.9524 0.991 1.0571 0.9131 0.9684 1.0461 1.127 1.274 1.1848
2440.157 1.2164 1.2257 1.1685 1.0393 1.0479 1.274 1.344 1.2352 1.1359 1.1029
2459.447 1.1597 1.1794 1.1297 1.0957 1.0683 0.8786 0.6375 0.5839 0.8432 0.9412
2478.737 0.7367 0.6159 0.615 0.7686 0.7658 0.7147 0.7905 0.7703 0.7311 0.7203
2498.026 0.7899 0.9368 0.8429 0.6974 0.6781 0.6455 0.6785 0.7278 0.6682 0.6371
2517.316 0.6901 0.7879 0.7478 0.6214 0.6603 0.6116 0.596 0.7208 0.9195 0.8947
2536.606 0.6326 0.6597 0.6645 0.7245 0.8291 0.6626 0.7584 0.9078 0.7975 0.7422
2555.896 0.911 1.0726 0.9365 0.9114 0.9599 0.9151 0.8469 0.8055 0.754 0.7751
2575.186 0.8881 0.8567 0.7952 0.8006 0.7913 0.7516 0.6298 0.5145 0.8028 0.9552
2594.475 0.6993 0.8155 0.9495 0.8706 0.8595 0.7154 0.7569 0.9183 0.8207 0.7824
2613.765 0.8253 0.8672 1.1121 1.085 0.9497 0.9816 1.0995 1.1728 1.0395 0.9545
2633.055 1.1394 1.207 1.0322 0.9997 0.9832 1.061 1.0158 0.847 0.953 1.099
2652.345 1.1679 1.0127 0.824 0.9295 1.0516 1.0532 0.9903 1.0958 1.0745 0.852
2671.634 0.8433 0.9691 1.0269 0.9489 0.8369 0.8828 1.0615 1.0678 1.0281 1.0241
2690.924 1.0071 0.9803 0.9249 0.9586 0.911 0.9272 0.9753 0.9651 1.0328 0.9973
2710.214 0.8724 0.9306 0.9442 0.8661 0.6873 0.6562 0.9941 1.096 0.8834 0.6597
2729.504 0.6446 0.707 0.6231 0.7477 0.9843 0.9105 0.8292 0.8375 0.9313 0.8624
2748.794 0.6908 0.6912 0.7317 0.8608 0.8308 0.6132 0.4023 0.449 0.6608 0.747
2768.083 0.6716 0.6642 0.6885 0.6294 0.7687 0.7831 0.6279 0.6343 0.6639 0.6897
2787.373 0.6249 0.5655 0.7072 0.7021 0.8637 0.872 0.514 0.5119 0.4987 0.6835
2806.663 0.9378 0.9016 0.8787 0.7881 0.8381 0.7625 0.6175 0.7186 0.7726 0.8877
2825.953 0.9533 0.7836 0.7114 0.8975 0.849 0.6306 0.7958 0.9993 1.0945 1.094
2845.242 1.0349 1.0847 1.1054 1.1355 1.1737 1.374 1.314 1.1996 1.1527 1.1034
2864.532 1.274 1.414 1.524 1.554 1.564 1.564 1.604 1.474 1.2107 1.1309
2883.822 1.1526 1.1701 1.1638 1.1438 1.2518 1.154 1.0179 1.0779 1.1466 1.1649
2903.112 1.1422 1.2198 1.2528 1.2113 1.1741 1.0663 1.077 1.344 1.554 1.474
2922.401 1.474 1.634 1.784 1.914 1.794 1.764 1.924 2.124 2.334 2.654
2941.691 3.084 3.364 3.394 3.274 3.224 3.394 3.344 2.924 2.644 2.584
2960.981 2.444 2.244 2.154 2.134 1.884 1.644 1.684 1.534 1.414 1.384
2980.271 1.324 1.454 1.694 1.694 1.624 1.744 1.864 1.464 1.1734 1.434
2999.561 1.564 1.624 1.664 1.754 1.664 1.514 1.644 1.554 1.404 1.404
3018.850 1.354 1.504 1.614 1.534 1.604 1.784 1.704 1.624 1.774 1.974
3038.140 2.054 1.904 2.074 2.674 2.914 3.204 3.504 3.534 3.904 4.194
3057.430 4.334 4.594 4.644 4.754 4.944 5.034 5.174 5.144 5.044 5.174
3076.720 5.234 5.184 5.494 5.854 5.674 5.214 4.984 4.574 3.854 3.304
3096.009 2.674 2.214 2.124 1.974 1.784 1.944 1.934 1.674 1.664 1.554
3115.299 1.514 1.454 1.0912 0.9821 1.0988 1.0574 1.0312 0.971 0.7649 0.6516
3134.589 0.8555 0.8602 0.609 0.6618 0.5802 0.5687 0.6004 0.4296 0.33637 0.4182
3153.879 0.414 0.3592 0.6468 0.7017 0.6765 0.601 0.4413 0.5115 0.6453 0.8822
3173.169 0.7687 0.4368 0.4036 0.419 0.6276 0.8191 0.7813 0.5511 0.2947 0.2088
3192.458 0.2431 0.33997 0.4737 0.5707 0.442 0.2028 0.127 0.2089 0.32956 0.5163
3211.748 0.5555 0.5425 0.7311 0.92 0.7599 0.5406 0.5544 0.3604 0.2047 0.4372
3231.038 0.5587 0.5596 0.6408 0.5615 0.3866 0.5541 0.7104 0.6633 0.6578 0.6647
3250.328 0.5394 0.525 0.65 0.7864 0.9351 0.7557 0.5588 0.636 0.718 0.814
3269.617 0.8405 0.668 0.5923 0.5973 0.5321 0.8312 0.9867 0.5521 0.521 0.6462
3288.907 0.3585 0.31681 0.756 1.0086 0.9064 0.4833 0.35301 0.5133 0.5009 0.6491
3308.197 0.7124 0.6084 0.4623 0.5816 0.6604 0.5323 0.5137 0.3852 0.438 0.5058
3327.487 0.4594 0.4562 0.5232 0.5377 0.518 0.7243 0.5219 0.4248 0.645 0.6125
3346.777 0.5791 0.6279 0.6407 0.6495 0.5792 0.5596 0.4067 0.32342 0.6312 0.5931
3366.066 0.2001 0.086 0.3112 0.26948 0.2362 0.5617 0.6201 0.4966 0.6464 0.5116
3385.356 0.34311 0.5674 0.6266 0.619 0.8139 0.9385 0.573 0.4841 0.9166 0.7152
3404.646 0.4283 0.5069 0.4979 0.3615 0.30986 0.584 0.6681 0.33634 0.3559 0.6868
3423.936 0.6267 0.28923 0.2202 0.4412 0.4026 0.4277 0.4239 0.543 0.6624 0.687
3443.225 0.8659 0.7174 0.6493 0.5914 0.6628 0.6801 0.6794 0.8993 0.703 0.6241
3462.515 0.5047 0.5071 0.7803 0.6713 0.5955 0.6595 0.6289 0.6269 0.7826 1.0888
3481.805 1.0355 0.8627 0.9806 1.0306 1.0828 0.9807 0.8433 0.9104 0.9686 0.9968
3501.095 1.1378 1.1242 0.9067 0.8926 1.0762 1.1036 0.9435 0.9784 1.0329 0.7496
3520.385 0.6737 0.8739 0.9327 1.0062 1.264 1.424 1.614 1.964 2.094 2.704
3539.674 3.804 4.914 6.024 6.724 7.644 8.654 8.714 8.214 7.714 7.224
3558.964 6.654 6.204 6.564 7.644 9.284 11.784 15.034 18.884 22.434 24.234
3578.254 24.034 22.784 20.544 16.694 11.974 7.714 4.974 3.554 2.434 1.894
3597.544 1.784 1.364 1.1829 1.1765 1.0008 0.9858 0.9624 0.8315 0.8223 0.82
3616.833 0.9994 0.7725 0.4777 0.538 0.6995 0.8207 0.6916 0.687 0.7566 0.7498
3636.123 0.8306 0.9339 0.8471 0.6979 0.4808 0.6833 0.7289 0.8127 0.6936 0.5588
3655.413 0.7108 0.6711 0.8796 0.8513 0.711 0.7184 0.7803 0.8115 0.6314 0.5078
3674.703 0.4164 0.25969 0.4204 0.5987 0.6043 0.6929 0.5781 0.3739 0.5486 0.6178
3693.993 0.29706 0.4091 0.6919 0.6876 0.6497 0.263928 0 0.1945 0.33186 0.5348
3713.282 0.7284 0.7083 0.4071 0.417 0.5183 0.3965 0.5867 0.6829 0.6761 0.5673
3732.572 0.4615 0.4725 0.5818 0.5909 0.5374 0.33155 0.1817 0.435 0.34322 0.093
3751.862 0.27156 0.6382 0.5696 0.4787 0.6384 0.4363 0.2905 0.461 0.4403 0.4251
3771.152 0.31908 0.122 0.2299 0.139 0.2962 0.4987 0.6285 0.6188 0.3557 0.5379
3790.441 0.7431 0.6315 0.26073 0.3971 0.7083 0.562 0.4392 0.2817 0.102 0.106
3809.731 0.4175 0.6457 0.6288 0.7123 0.5123 0.4661 0.6342 0.4852 0.31648 0.4587
3829.021 0.6708 0.652 0.6162 0.3562 0.096 0.2335 0.4624 0.434 0.3889 0.4837
3848.311 0.52 0.5456 0.3586 0.24517 0.5009 0.8592 0.7095 0.5926 0.6483 0.4703
3867.601 0.29128 0.4664 0.8481 0.6385 0.5991 0.5838 0.31373 0.59 0.7663 0.553
3886.890 0.4844 0.2845 0.26718 0.3737 0.29989 0.5659 0.7094 0.149 0.025 0.112
3906.180 0.104 0.417 0.24919 0.119 0.147 0.129 0.4673 0.6585 0.4018 0.3994
3925.470 0.34283 0.4342 0.7372 0.632 0.4818 0.4512 0.6218 0.4972 0.4112 0.34305
3944.760 0.27479 0.3882 0.4952 0.7167 0.6644 0.4859 0.4016 0.4109 0.5193 0.3504
3964.049 0.3217 0.4037 0.2418 0.1825 0.1786 0.2384 0.5594 0.5184 0.2147 0.31114
3983.339 0.6303 0.8026 0.5898 0.2028 0.1564 0.4462 0.6636 0.7244 0.6296 0.6535
##END=
