##TITLE=1,2,4-Trimethylcyclohexane
##JCAMP-DX=4.24
##DATA TYPE=INFRARED SPECTRUM
##ORIGIN=NIST Mass Spectrometry Data Center
##OWNER=NIST Standard Reference Data Program
Collection (C) 2018 copyright by the U.S. Secretary of Commerce
on behalf of the United States of America. All rights reserved.
##CAS REGISTRY NO=2234-75-5
##MOLFORM=C 9 H 18
##$NIST SOURCE=MSDC-IR
##SPECTROMETER/DATA SYSTEM=HP-GC/MS/IRD
##STATE=gas
##XUNITS=1/CM
##YUNITS=ABSORBANCE
##XFACTOR=1.0
##YFACTOR=0.000004200
##DELTAX=4.0
##FIRSTX=550.0
##LASTX=3846.0
##FIRSTY=0.000466
##MAXX=3846
##MINX=550
##MAXY=0.042
##MINY=0
##NPOINTS=825
##XYDATA=(X++(Y..Y))
550.0 111 78 62 51 58 65 54 50 56 67
590.0 55 42 34 34 46 48 39 34 26 29
630.0 49 58 60 65 69 71 87 85 64 39
670.0 27 28 19 8 10 25 19 1 1 15
710.0 15 15 30 39 36 29 33 37 37 40
750.0 32 17 18 24 25 28 23 28 32 18
790.0 16 20 21 17 19 22 26 30 16 20
830.0 37 46 50 48 44 41 39 41 34 27
870.0 23 19 18 18 23 28 25 27 36 48
910.0 53 56 66 77 85 93 103 109 107 97
950.0 82 72 70 71 75 79 86 95 102 114
990.0 126 136 138 144 145 131 128 129 132 134
1030.0 124 115 110 98 85 67 58 55 44 39
1070.0 44 42 48 63 75 82 88 97 107 109
1110.0 94 73 63 49 41 44 45 43 45 55
1150.0 57 58 72 90 95 98 101 100 98 99
1190.0 96 90 82 71 66 62 61 64 69 73
1230.0 71 70 76 76 70 69 75 78 81 85
1270.0 89 92 104 117 129 150 171 183 183 170
1310.0 148 129 119 113 112 118 131 151 168 186
1350.0 212 259 336 440 574 730 873 1008 1069 954
1390.0 772 601 410 255 178 145 133 149 182 233
1430.0 308 419 565 743 936 1115 1255 1328 1325 1250
1470.0 1090 878 672 490 344 239 173 130 102 82
1510.0 70 58 51 49 45 43 39 36 37 34
1550.0 36 39 39 37 39 42 44 48 44 41
1590.0 42 44 44 46 45 40 42 43 41 39
1630.0 36 38 39 38 39 41 40 38 34 30
1670.0 29 28 28 27 25 24 23 23 22 20
1710.0 21 21 18 17 15 13 13 15 16 17
1750.0 18 17 14 12 15 18 15 13 11 12
1790.0 15 12 12 13 11 10 8 8 11 11
1830.0 9 10 10 9 8 6 6 11 13 10
1870.0 8 7 6 8 10 7 5 4 4 9
1910.0 6 3 3 6 7 6 7 5 4 6
1950.0 5 1 0 2 5 6 5 5 4 3
1990.0 4 3 0 0 0 2 5 3 3 6
2030.0 8 7 4 4 7 9 7 2 1 2
2070.0 2 1 2 2 3 4 6 9 11 9
2110.0 7 6 8 6 5 8 6 2 5 6
2150.0 6 7 6 7 8 8 8 5 5 7
2190.0 7 4 1 5 7 3 3 5 5 6
2230.0 6 3 1 2 1 1 6 6 2 7
2270.0 12 12 11 12 13 11 12 15 12 9
2310.0 8 9 10 14 17 18 18 14 14 14
2350.0 14 17 20 22 21 16 17 24 25 24
2390.0 20 16 18 17 15 17 22 25 24 21
2430.0 19 18 19 20 16 19 20 25 23 17
2470.0 20 20 21 22 23 21 16 13 17 21
2510.0 24 27 30 30 30 31 31 33 33 32
2550.0 34 33 34 38 45 48 50 57 66 74
2590.0 76 78 86 95 99 100 99 97 98 103
2630.0 107 107 109 108 107 112 113 116 123 124
2670.0 128 136 133 129 127 124 121 121 120 118
2710.0 124 129 135 144 151 161 169 169 167 163
2750.0 160 157 152 152 157 162 167 175 191 207
2790.0 218 230 248 269 296 321 351 395 448 514
2830.0 615 774 1013 1347 1759 2196 2642 3039 3291 3559
2870.0 3901 4232 4574 4937 5282 5525 5765 6129 6653 7249
2910.0 7910 8622 9445 10000 9567 8822 8035 7067 6282 5897
2950.0 5895 6221 6589 6648 6463 6082 5232 4150 3144 2260
2990.0 1557 1009 664 480 383 327 291 266 251 241
3030.0 231 217 216 221 220 215 212 208 208 208
3070.0 203 203 205 197 188 184 180 176 168 166
3110.0 164 158 156 144 136 134 129 126 130 131
3150.0 125 122 117 107 102 94 84 72 55 49
3190.0 48 38 37 31 24 23 20 14 14 22
3230.0 27 26 30 28 23 26 28 30 30 28
3270.0 23 21 26 28 30 27 26 27 26 29
3310.0 26 24 24 19 25 31 21 17 15 13
3350.0 18 18 17 22 25 21 18 17 21 23
3390.0 12 10 13 14 18 14 8 9 11 7
3430.0 7 7 6 5 3 7 11 13 10 6
3470.0 8 10 10 9 10 8 4 4 3 1
3510.0 1 6 11 16 16 14 17 16 15 13
3550.0 16 13 15 18 13 18 22 19 9 10
3590.0 17 11 7 14 18 18 17 17 17 19
3630.0 17 18 27 26 23 25 24 24 23 23
3670.0 25 22 23 27 28 24 25 32 31 35
3710.0 41 33 27 29 30 31 31 30 33 41
3750.0 44 38 29 28 32 36 29 29 32 32
3790.0 28 25 33 40 33 27 30 30 30 35
3830.0 44 48 45 44 48
##END=
