##TITLE=2',4',6'-Triisopropylacetophenone
##JCAMP-DX=4.24
##DATA TYPE=INFRARED SPECTRUM
##ORIGIN=EPA-IR VAPOR PHASE LIBRARY
##OWNER=SRD/NIST
Collection (C) 2018 copyright by the U.S. Secretary of Commerce
on behalf of the United States of America. All rights reserved.
##CAS REGISTRY NO=2234-14-2
##MOLFORM=C 17 H 26 O
##$NIST SOURCE=MSDC-IR
##STATE=gas
##XUNITS=1/CM
##YUNITS=ABSORBANCE
##XFACTOR=1.
##YFACTOR=0.001
##DELTAX=1.92898
##FIRSTX=549.8
##LASTX=4000.7
##FIRSTY=4.338
##MAXX=4000.7
##MINX=549.759
##MAXY=0.462898
##MINY=0
##NPOINTS=1790
##XYDATA=(X++(Y..Y))
549.759 4.338 5.158 6.098 7.008 7.698 8.488 10.128 12.368 14.788 18.008
569.049 20.808 22.768 23.818 23.668 22.688 20.768 18.138 15.118 12.428 10.338
588.339 8.888 7.718 6.848 6.158 5.748 5.088 4.438 4.358 4.068 3.728
607.628 3.298 3.018 2.808 2.548 2.528 2.608 2.638 2.578 2.528 2.548
626.918 2.368 2.398 2.678 3.078 3.568 3.988 4.768 5.698 6.908 8.478
646.208 9.858 10.958 11.948 12.738 12.478 11.268 9.828 8.438 7.198 6.138
665.498 5.718 5.618 5.818 5.968 6.058 6.338 6.138 5.518 4.818 4.058
684.787 3.158 2.458 1.998 1.598 1.458 1.358 1.1595 1.1339 1.0994 1.059
704.077 1.0238 0.9403 0.9656 1.0305 1.1173 1.2188 1.2011 1.1198 1.1511 1.117
723.367 1.0783 1.0692 0.9971 1.1311 1.1693 1.0654 0.915 1.0511 1.2462 1.2233
742.657 1.2326 1.2207 1.1222 1.0264 1.1884 1.268 1.2132 1.368 1.428 1.598
761.947 2.278 3.148 4.058 5.228 6.438 7.558 9.008 10.038 9.088 7.238
781.236 5.828 4.368 3.028 2.108 1.658 1.468 1.2381 1.065 1.0547 1.0953
800.526 1.488 1.768 1.918 2.298 2.518 2.838 3.328 3.378 3.198 2.908
819.816 2.528 2.408 2.318 2.288 2.328 2.578 3.018 3.158 3.248 3.408
839.106 3.358 2.938 2.458 2.098 1.808 1.708 1.598 1.588 1.768 2.048
858.395 2.408 3.078 4.138 5.698 8.268 11.938 16.448 21.118 25.938 31.308
877.685 31.848 26.468 21.458 17.298 12.918 9.188 6.638 5.138 4.418 3.968
896.975 3.788 3.968 3.958 3.948 4.048 4.328 4.868 5.248 5.898 6.788
916.265 7.548 8.638 9.978 11.368 13.038 14.898 16.708 18.328 19.998 21.838
935.555 23.118 23.778 24.168 24.038 23.458 22.908 22.918 23.588 24.918 26.608
954.844 28.188 29.528 29.948 29.038 27.028 24.538 21.888 19.008 16.328 14.168
974.134 12.318 10.968 9.998 8.998 8.298 7.918 7.558 7.288 7.158 7.098
993.424 6.948 6.948 7.198 7.428 7.508 7.468 7.568 7.778 8.078 8.208
1012.714 8.108 8.088 8.048 7.988 7.778 7.658 7.478 7.148 7.028 7.258
1032.003 7.598 7.758 8.338 9.058 9.608 10.648 11.478 12.068 13.128 14.198
1051.293 15.828 18.058 20.748 23.708 26.308 28.358 29.198 28.848 27.518 25.388
1070.583 22.758 20.058 17.918 16.268 14.988 13.908 13.438 13.688 13.938 14.878
1089.873 16.218 17.408 18.868 20.198 21.368 22.138 21.948 20.668 18.898 17.378
1109.163 16.088 14.558 13.568 13.428 13.568 13.518 13.488 13.898 14.108 13.748
1128.452 13.168 12.758 12.448 12.098 11.658 11.268 11.328 11.708 11.958 12.268
1147.742 12.758 13.308 13.908 13.808 13.328 13.348 14.038 14.668 15.078 15.918
1167.032 16.218 15.918 15.608 14.688 13.048 11.778 10.828 10.188 9.648 8.898
1186.322 8.268 8.068 8.088 7.998 8.158 7.968 7.728 7.798 8.238 8.658
1205.611 9.208 9.948 10.908 12.078 13.128 15.158 18.088 21.668 26.808 33.228
1224.901 41.128 50.548 60.398 70.158 78.438 84.718 88.758 89.678 87.128 82.258
1244.191 76.098 68.308 59.558 50.678 42.818 36.918 32.688 29.798 28.348 27.858
1263.481 27.658 27.698 27.898 28.248 28.498 28.008 26.918 25.208 22.968 20.478
1282.771 17.938 15.988 14.728 13.798 13.298 13.178 13.208 13.348 13.748 14.268
1302.060 14.868 15.678 16.618 17.748 18.778 19.468 19.738 19.568 19.038 18.248
1321.350 17.648 17.278 17.188 17.568 18.218 19.058 20.248 21.888 24.088 27.098
1340.640 31.158 36.408 42.758 50.088 58.078 65.858 72.348 76.478 77.658 76.358
1359.930 73.858 71.168 68.248 67.358 68.808 63.498 52.668 44.828 38.428 32.838
1379.219 29.818 30.008 32.488 35.458 37.538 38.158 36.938 33.978 30.008 26.298
1398.509 23.938 22.888 22.648 22.928 23.568 24.318 25.298 26.598 28.048 29.728
1417.799 31.538 33.188 34.428 35.018 34.788 33.758 31.978 29.738 27.388 25.488
1437.089 24.048 23.168 23.138 23.828 25.038 26.648 28.578 30.818 33.518 36.528
1456.378 40.068 44.368 48.578 52.278 54.868 56.028 55.248 52.398 47.908 42.308
1475.668 36.368 30.508 25.328 21.188 18.248 16.208 14.748 13.638 12.778 12.088
1494.958 11.578 11.108 10.738 10.428 10.078 9.838 9.648 9.438 9.318 9.258
1514.248 9.178 9.148 9.138 9.138 9.248 9.358 9.428 9.578 9.788 10.008
1533.538 10.178 10.318 10.458 10.568 10.668 10.778 10.868 10.988 11.298 11.958
1552.827 12.898 14.238 15.928 17.898 20.048 21.928 23.208 23.688 23.318 21.958
1572.117 19.918 17.598 15.458 13.918 13.268 13.358 14.058 15.478 17.458 20.158
1591.407 23.828 28.378 33.738 39.468 44.838 49.098 51.318 51.068 48.308 43.308
1610.697 37.078 30.568 24.838 20.118 16.578 14.088 12.228 10.968 10.168 9.638
1629.986 9.308 9.128 8.918 8.908 9.058 9.138 9.278 9.428 9.548 9.638
1649.276 9.658 9.618 9.608 9.588 9.698 9.858 10.008 10.308 10.728 11.118
1668.566 11.398 11.568 11.768 12.018 12.478 13.218 14.448 16.118 18.728 22.318
1687.856 26.988 33.498 42.568 54.808 71.978 93.938 118.478 146.618 170.378 187.908
1707.146 193.868 186.478 167.388 141.938 114.518 89.288 68.138 52.948 42.278 35.058
1726.435 30.248 26.878 24.488 22.698 21.158 19.678 18.328 16.998 15.728 14.578
1745.725 13.718 13.068 12.668 12.508 12.488 12.678 12.898 12.988 12.908 12.588
1765.015 12.048 11.208 10.248 9.268 8.268 7.378 6.728 6.198 5.638 5.098
1784.305 4.598 4.138 3.788 3.468 3.208 2.978 2.808 2.688 2.598 2.478
1803.594 2.378 2.328 2.228 2.138 2.158 2.058 1.968 1.988 1.928 1.858
1822.884 1.848 1.798 1.738 1.688 1.648 1.638 1.638 1.538 1.438 1.488
1842.174 1.458 1.408 1.448 1.448 1.418 1.408 1.428 1.398 1.368 1.408
1861.464 1.488 1.548 1.508 1.498 1.548 1.568 1.558 1.568 1.538 1.448
1880.754 1.398 1.348 1.348 1.348 1.368 1.338 1.348 1.388 1.378 1.408
1900.043 1.428 1.418 1.438 1.438 1.418 1.388 1.338 1.328 1.388 1.398
1919.333 1.318 1.246 1.258 1.2324 1.2024 1.1282 1.0571 1.0694 1.0316 0.9925
1938.623 0.9689 0.9221 0.918 0.9349 0.954 0.9392 0.8754 0.8551 0.8168 0.8195
1957.913 0.886 0.9017 0.9299 0.904 0.8551 0.8596 0.8604 0.9321 0.9374 0.8928
1977.202 0.936 0.9479 0.9816 1.0212 0.9737 0.9686 0.9414 0.9086 0.9606 0.9104
1996.492 0.8574 0.8974 0.8963 0.8604 0.873 0.9157 0.9225 0.9566 0.9773 0.9827
2015.782 0.9957 0.9953 0.9722 0.9352 0.9512 0.945 0.9436 0.9725 0.9019 0.8518
2035.072 0.8602 0.8082 0.7532 0.7321 0.7554 0.7135 0.6563 0.7006 0.726 0.7013
2054.362 0.6437 0.6235 0.6141 0.623 0.6594 0.6585 0.6694 0.6608 0.5471 0.5115
2073.651 0.5129 0.4724 0.4981 0.5184 0.506 0.5128 0.5044 0.4539 0.4068 0.3935
2092.941 0.4235 0.4981 0.5282 0.474 0.4748 0.4782 0.5042 0.579 0.5893 0.566
2112.231 0.593 0.6075 0.5491 0.5624 0.5912 0.5968 0.6745 0.6844 0.6152 0.6128
2131.521 0.6594 0.6177 0.5844 0.6271 0.6417 0.6368 0.6714 0.6253 0.5911 0.5688
2150.810 0.5521 0.5312 0.522 0.588 0.622 0.6349 0.6548 0.6611 0.61 0.6331
2170.100 0.6325 0.646 0.7399 0.8146 0.861 0.8805 0.8663 0.8578 0.8987 0.8589
2189.390 0.8261 0.871 0.8736 0.8607 0.92 0.9988 1.0188 0.9311 0.8793 0.8891
2208.680 0.876 0.8993 0.8971 0.8954 0.8575 0.835 0.8668 0.8221 0.7862 0.8473
2227.970 0.917 0.9144 0.8796 0.8676 0.8557 0.8159 0.8207 0.8953 0.9414 0.9677
2247.259 0.9504 0.8808 0.8515 0.8509 0.8622 0.8758 0.9154 0.9294 0.9389 0.9144
2266.549 0.8588 0.8323 0.8228 0.875 0.7951 0.7726 0.9167 0.9607 1.0242 1.0442
2285.839 1.0313 1.1119 1.1065 1.1681 1.258 1.19 1.1901 1.268 1.268 1.2007
2305.129 1.0888 1.1035 1.1539 1.1246 1.1406 1.1204 1.0776 1.075 1.042 0.978
2324.418 0.9367 0.8416 0.8475 0.9167 0.8407 0.7762 0.7978 0.8758 0.9062 0.8723
2343.708 0.8105 0.8177 0.8543 0.8409 0.8365 0.868 0.9758 0.9831 0.9408 0.9562
2362.998 1.0184 1.1289 1.1205 1.1191 1.1448 1.1446 1.2193 1.278 1.298 1.398
2382.288 1.358 1.236 1.298 1.338 1.358 1.398 1.368 1.268 1.258 1.308
2401.578 1.298 1.318 1.258 1.1438 1.1412 1.1453 1.1454 1.1735 1.147 1.0734
2420.867 1.0548 1.0416 1.0458 1.048 1.0046 0.9464 0.9274 0.9588 0.9344 0.9394
2440.157 0.9544 0.9285 0.9834 1.0011 1.0677 1.1594 1.155 1.2293 1.318 1.358
2459.447 1.478 1.558 1.608 1.688 1.688 1.678 1.658 1.578 1.548 1.568
2478.737 1.488 1.388 1.428 1.448 1.388 1.378 1.318 1.268 1.268 1.178
2498.026 1.1139 1.1291 1.0899 1.0348 1.0424 1.1228 1.1282 1.073 1.1142 1.1529
2517.316 1.0981 1.046 1.0673 1.0197 1.0355 1.0758 1.05 1.0852 1.1623 1.2309
2536.606 1.258 1.2279 1.1441 1.1709 1.2315 1.2195 1.2424 1.308 1.368 1.398
2555.896 1.468 1.528 1.528 1.548 1.598 1.738 1.848 1.818 1.828 1.928
2575.186 2.098 2.158 2.228 2.348 2.388 2.428 2.538 2.568 2.568 2.538
2594.475 2.468 2.498 2.438 2.338 2.328 2.278 2.258 2.308 2.338 2.198
2613.765 2.078 2.158 2.178 2.028 1.998 2.148 2.148 2.058 2.028 1.988
2633.055 1.968 2.028 2.008 1.938 1.988 2.098 2.148 2.138 2.098 2.098
2652.345 2.108 2.138 2.268 2.228 2.198 2.228 2.258 2.268 2.178 2.138
2671.634 2.198 2.258 2.248 2.208 2.178 2.208 2.198 2.218 2.238 2.198
2690.924 2.168 2.268 2.298 2.358 2.508 2.498 2.538 2.618 2.728 2.838
2710.214 2.988 3.198 3.388 3.678 3.998 4.378 4.818 5.048 5.248 5.428
2729.504 5.498 5.448 5.378 5.418 5.318 5.138 4.928 4.778 4.708 4.638
2748.794 4.538 4.508 4.558 4.688 4.878 4.998 5.268 5.538 5.698 5.868
2768.083 5.848 5.798 5.778 5.598 5.478 5.438 5.388 5.398 5.578 5.668
2787.373 5.618 5.818 6.068 6.148 6.318 6.638 6.868 7.038 7.338 7.638
2806.663 7.908 8.128 8.458 8.828 9.058 9.318 9.588 9.858 10.028 10.138
2825.953 10.338 10.648 11.038 11.468 11.898 12.448 13.048 13.748 14.558 15.488
2845.242 16.518 17.788 19.198 20.668 22.368 24.248 26.468 29.098 32.068 35.808
2864.532 40.578 46.578 54.048 63.088 73.558 84.328 94.168 102.158 107.088 108.108
2883.822 105.478 100.398 94.328 88.538 83.868 80.798 79.418 79.348 80.278 81.878
2903.112 83.908 86.008 88.038 89.848 91.418 92.858 94.348 95.998 97.738 99.898
2922.401 103.228 108.218 114.918 123.168 132.538 142.118 150.728 157.028 159.538 158.078
2941.691 153.598 147.258 140.308 134.098 130.468 131.668 139.958 157.978 188.808 234.208
2960.981 292.058 354.728 410.638 449.238 462.898 446.658 402.828 343.458 282.268 227.898
2980.271 183.488 149.058 122.868 102.748 87.128 75.018 65.858 58.968 53.498 48.778
2999.561 44.838 41.688 38.928 36.388 34.198 32.358 30.498 28.788 27.328 25.938
3018.850 24.878 23.998 23.168 22.558 22.088 21.478 20.928 20.488 19.958 19.628
3038.140 19.338 19.068 19.148 19.398 19.738 20.098 20.538 20.908 21.118 21.198
3057.430 21.088 20.818 20.088 19.238 18.438 17.628 16.748 15.708 15.008 14.358
3076.720 13.628 12.968 12.248 11.558 11.018 10.568 10.288 9.988 9.668 9.448
3096.009 9.258 9.028 8.658 8.438 8.338 7.978 7.608 7.428 7.208 7.048
3115.299 6.928 6.758 6.628 6.548 6.518 6.308 6.058 6.008 5.948 5.788
3134.589 5.528 5.338 5.438 5.368 5.138 5.028 4.928 4.898 4.858 4.878
3153.879 4.858 4.838 4.988 5.058 4.948 4.838 4.918 5.048 5.078 5.008
3173.169 4.988 4.998 5.068 5.028 4.808 4.958 5.158 5.108 5.038 5.078
3192.458 5.038 4.938 4.938 4.908 4.818 4.688 4.768 4.738 4.548 4.448
3211.748 4.288 4.098 4.028 3.798 3.588 3.408 3.288 3.218 3.028 2.908
3231.038 2.638 2.508 2.498 2.278 2.168 2.048 1.928 1.928 1.818 1.648
3250.328 1.528 1.538 1.518 1.358 1.358 1.358 1.338 1.378 1.308 1.268
3269.617 1.163 1.0602 1.1855 1.368 1.338 1.1554 1.0446 1.0721 1.0292 1.0469
3288.907 1.0936 1.0984 1.0205 1.0159 0.9928 0.8435 0.8869 0.9233 0.9324 0.9418
3308.197 0.9725 0.9704 0.895 0.8242 0.8961 1.0246 1.06 0.894 0.8962 1.2365
3327.487 1.448 1.418 1.248 1.2232 1.308 1.258 1.2345 1.288 1.298 1.268
3346.777 1.2132 1.211 1.1079 1.0776 1.0954 0.8984 0.8516 0.9784 1.0185 1.07
3366.066 1.2185 1.1649 1.2122 1.438 1.428 1.478 1.528 1.638 1.808 2.108
3385.356 2.498 2.818 2.988 3.198 3.498 3.588 3.618 3.498 3.278 3.028
3404.646 2.848 2.678 2.488 2.308 2.078 1.738 1.528 1.538 1.438 1.2323
3423.936 1.288 1.448 1.378 1.358 1.318 1.1583 0.9622 0.9169 0.91 0.8859
3443.225 0.955 1.0515 0.967 0.723 0.7533 0.8109 0.6906 0.6241 0.6221 0.5808
3462.515 0.5297 0.655 0.632 0.5888 0.7418 0.7171 0.5601 0.4301 0.3698 0.4555
3481.805 0.7419 0.7638 0.498 0.4672 0.5562 0.6351 0.5488 0.3787 0.4672 0.6323
3501.095 0.6674 0.5534 0.385 0.3691 0.3899 0.4968 0.6403 0.6399 0.48 0.28184
3520.385 0.4603 0.6777 0.5781 0.5444 0.5756 0.4766 0.4948 0.5015 0.5485 0.5968
3539.674 0.5508 0.5958 0.5455 0.4469 0.5095 0.575 0.5962 0.4526 0.34158 0.4202
3558.964 0.3577 0.3061 0.26424 0.218 0.2114 0.30896 0.393 0.4376 0.5151 0.4819
3578.254 0.3782 0.27172 0.2357 0.2947 0.32309 0.28553 0.4015 0.4542 0.5554 0.7362
3597.544 0.5873 0.4095 0.5954 0.7098 0.5279 0.3572 0.28068 0.3719 0.3874 0.3691
3616.833 0.4309 0.4469 0.4185 0.4265 0.4158 0.4338 0.3861 0.33055 0.4402 0.5133
3636.123 0.413 0.25992 0.26428 0.33882 0.31785 0.1518 0.2054 0.28287 0.25961 0.27517
3655.413 0.3774 0.3559 0.112 0.035 0.127 0.247853 0.27189 0.24609 0.145 0.079
3674.703 0 0.107 0.145 0.047 0.141 0.26079 0.2271 0.2133 0.3817 0.381
3693.993 0.3524 0.24595 0.01 0.007 0.1722 0.250455 0.109 0.251851 0.3772 0.31932
3713.282 0.187 0.007 0.019 0.062 0.1551 0.32135 0.3991 0.255072 0.108 0.085
3732.572 0.25807 0.31842 0.247001 0.2061 0.1967 0.28852 0.29114 0.250319 0.32545 0.4178
3751.862 0.5086 0.4035 0.1822 0.221 0.3253 0.1951 0.127 0.2208 0.2028 0.26921
3771.152 0.3597 0.4748 0.5234 0.4294 0.336 0.3576 0.4199 0.3801 0.3643 0.33888
3790.441 0.32965 0.4767 0.6245 0.5928 0.559 0.4989 0.3622 0.4122 0.7067 0.7787
3809.731 0.8187 0.9165 0.8286 0.829 0.8612 0.7806 0.8111 0.9357 0.9268 0.8686
3829.021 0.7928 0.733 0.6862 0.7017 0.7196 0.8036 0.7784 0.725 0.8592 0.9057
3848.311 0.9207 0.8996 0.9512 0.9764 0.8899 0.8045 0.788 0.7668 0.813 0.9475
3867.601 0.8894 0.8741 0.9964 1.0855 1.0175 0.9115 0.8348 0.9101 0.9507 1.0857
3886.890 1.2058 0.9061 0.7626 0.8391 0.8155 0.7914 0.8747 0.908 0.9197 1.0694
3906.180 1.0236 0.9665 0.9482 0.7542 0.6717 0.5554 0.6632 0.81 0.6735 0.6885
3925.470 0.6822 0.8091 0.9712 0.8185 0.6142 0.5121 0.6317 0.6854 0.5763 0.6795
3944.760 0.8587 0.9154 0.82 0.7753 0.7096 0.684 0.7921 0.883 0.7856 0.7013
3964.049 0.7365 0.8651 1.1065 0.9738 0.7493 0.8281 1.0661 1.1942 1.1757 1.181
3983.339 1.2052 1.1049 0.967 1.0666 1.1582 1.0667 1.1195 1.1472 1.1998 1.288
##END=
