##TITLE=2,4-Dimethylstyrene
##JCAMP-DX=4.24
##DATA TYPE=INFRARED SPECTRUM
##ORIGIN=EPA-IR VAPOR PHASE LIBRARY
##OWNER=SRD/NIST
Collection (C) 2018 copyright by the U.S. Secretary of Commerce
on behalf of the United States of America. All rights reserved.
##CAS REGISTRY NO=2234-20-0
##MOLFORM=C 10 H 12
##$NIST SOURCE=MSDC-IR
##STATE=gas
##XUNITS=1/CM
##YUNITS=ABSORBANCE
##XFACTOR=1.
##YFACTOR=0.001
##DELTAX=1.92898
##FIRSTX=549.8
##LASTX=4000.7
##FIRSTY=16.89
##MAXX=4000.7
##MINX=549.759
##MAXY=0.30359
##MINY=0.0004195
##NPOINTS=1790
##XYDATA=(X++(Y..Y))
549.759 16.89 16.76 16.63 16.65 16.19 15.87 15.99 15.93 15.23 14.93
569.049 14.58 14.2 14.2 13.39 12.55 11.93 11.46 10.68 9.37 8.65
588.339 8.26 7.82 7.4 6.94 6.77 6.66 6.21 5.9 5.8 5.65
607.628 5.44 5.43 5.65 5.78 5.71 5.41 5.53 5.57 5.33 5.97
626.918 6.52 6.26 6.13 6.63 6.78 6.49 6.35 6.24 6.3 6.15
646.208 5.91 5.86 6.16 5.9 5.55 5.92 6.2 6.24 6.16 6.05
665.498 5.74 5.65 5.81 5.8 6.16 6.57 6.76 7.05 7.41 7.57
684.787 7.8 8.51 9.19 9.96 10.7 11.76 13.28 14.29 15.33 16.02
704.077 16.05 16.26 16.39 16.16 15.25 14.12 13.17 11.92 10.41 9.04
723.367 8.3 7.69 7.14 6.85 6.67 6.9 7.38 7.53 7.57 7.68
742.657 7.91 8.13 7.78 7.74 8.14 8.08 8.22 8.79 9.21 9.46
761.947 9.42 9.53 10.08 10.48 10.71 10.9 11.06 11.01 11.17 11.64
781.236 11.98 12.55 13.37 14.88 17.38 20.82 25.5 32.06 40.58 51.58
800.526 65.01 80.23 96.98 113.35 128.82 144.9 163.72 188.18 219.34 246.04
819.816 240.43 202.79 170.25 152.73 139.51 125.82 110.3 93.7 77.67 63.38
839.106 51.11 42.06 36.09 32.44 30.76 30.55 31.29 32.88 35.4 38.61
858.395 41.81 44.81 48.21 51.69 55.74 60.8 66.55 68.54 62.9 57.12
877.685 55.22 54.3 53.7 53.26 53.21 54.21 56.49 60.56 66.7 74.67
896.975 83.74 92.98 102.72 112.41 122.72 135.95 157.41 177.12 173.22 157.28
916.265 146.31 139.05 133.07 126.51 118.75 109.85 100.25 91.39 83.54 76.76
935.555 71.11 66.56 63.28 60.73 58.81 57.8 56.69 55.67 55.23 54.38
954.844 53.55 52.73 51.8 51.32 51.01 51.02 51.59 52.77 54.44 56.54
974.134 59.92 63.38 66.87 71.36 76.42 81.64 86.51 89.87 89.66 85.91
993.424 81.73 78.37 75.21 72.21 69.15 65.97 62.95 60.23 57.76 56.46
1012.714 55.39 54.37 54.02 53.65 53.27 52.63 52.37 52.47 52.6 52.81
1032.003 52.99 52.5 50.73 48.6 46.62 44.27 41.21 37.69 34.36 31.51
1051.293 28.65 26.36 24.35 22.06 20.32 18.75 17.42 16.38 15.57 15.27
1070.583 14.25 13.36 12.6 11.96 11.89 11.03 10.73 10.87 11.38 11.38
1089.873 11.49 11.64 11.66 12.24 12.64 13.37 14.44 15.15 15.65 16.71
1109.163 17.2 16.97 16.35 16.33 16.22 15.63 15.41 14.74 13.85 12.74
1128.452 11.38 11.08 10.97 11.06 10.58 10.29 10.44 10.36 11.09 11.41
1147.742 11.99 12.73 13.18 13.74 14.27 14.64 14.46 13.59 13.31 14.04
1167.032 14.02 13.21 12.53 11.72 10.78 10.03 9.26 8.52 8.5 8.05
1186.322 7.75 8.32 8.76 9.03 9.32 9.66 9.96 10.28 10.45 10.31
1205.611 10.99 12.95 14.48 14.64 15 16.02 16.91 17.61 18.64 20.26
1224.901 21.71 23.38 25.84 27.86 29.68 31.55 32.09 32.3 32.36 31.86
1244.191 30.53 28.56 26.16 23.46 20.8 18.27 16.17 14.81 13.78 13.15
1263.481 12.91 12.82 12.76 12.67 13.01 13.47 14.01 14.74 15.55 16.69
1282.771 17.18 17.31 17.78 17.75 17.34 17 16.84 16.45 15.75 14.76
1302.060 14 13.54 13.2 13.05 12.8 12.54 12.46 12.4 12.39 12.49
1321.350 12.56 12.63 12.78 13.15 13.46 13.66 13.99 14.22 14.54 14.95
1340.640 15.25 15.58 15.97 16.5 17.03 17.55 18.12 18.74 19.45 20.29
1359.930 21.24 22.3 23.43 24.71 26.33 28.3 30.6 33.15 35.98 38.68
1379.219 40.72 42.15 43.33 44.78 46.39 47.26 47.05 46.41 45.97 46.08
1398.509 46.83 48.19 50.22 52.73 55.53 58.46 61.36 63.9 65.76 66.89
1417.799 67.28 67.22 67.25 67.37 67.07 65.96 64.43 62.89 61.53 60.77
1437.089 60.57 60.69 61.19 62.11 63.27 64.48 65.63 66.57 67.1 67.21
1456.378 67.1 66.88 66.97 67.16 67.15 67.33 67.49 67.55 67.96 68.92
1475.668 70.48 73.16 77.5 83.71 91.97 102.38 114.81 128.27 141.69 153.52
1494.958 162.04 167.24 168.99 167.38 162.73 154.88 143.43 129.12 113.15 96.89
1514.248 82.53 70.97 62.19 55.82 51.08 47.61 44.98 43.17 41.59 40.22
1533.538 39.27 38.55 37.91 37.26 36.85 36.64 36.43 36.28 36.16 36.02
1552.827 35.99 35.99 35.85 35.74 35.67 35.4 35.01 34.52 34.15 33.88
1572.117 33.53 33.18 32.91 32.95 33.17 33.76 34.75 36.13 38.15 40.99
1591.407 44.96 49.88 56.07 64.08 73.51 84.31 95.8 107.3 118.27 128.27
1610.697 137.12 144.81 151.2 156.14 158.96 158.55 154.16 146.7 137.9 128.89
1629.986 120.03 111.16 101.76 90.7 78.57 66.9 56.21 47.3 40.12 34.28
1649.276 29.63 25.95 22.9 20.78 19.15 17.66 16.54 15.57 14.88 14.51
1668.566 14.14 13.8 13.46 13.17 13.1 13.07 12.87 12.66 12.32 11.94
1687.856 11.66 11.23 10.87 10.55 10.02 9.54 9.06 8.55 8.16 7.81
1707.146 7.75 7.73 7.74 8 8.26 8.62 9.2 9.86 10.51 11.26
1726.435 12.1 12.84 13.43 13.83 14.08 14.13 14.03 13.93 13.82 13.69
1745.725 13.51 13.28 12.97 12.71 12.57 12.49 12.36 12.06 11.68 11.33
1765.015 10.83 10.15 9.36 8.69 8.09 7.53 7.08 6.71 6.58 6.53
1784.305 6.52 6.57 6.6 6.69 6.88 7.07 7.32 7.71 8.27 9.11
1803.594 10.05 11.32 12.96 14.8 17.06 19.87 23.06 26.29 29.4 32.22
1822.884 34.52 36.18 37.12 37.38 36.97 35.7 33.38 30.47 27.25 23.98
1842.174 20.84 17.99 15.61 13.56 11.96 10.86 9.99 9.34 8.95 8.7
1861.464 8.61 8.7 8.9 9.15 9.68 10.3 10.96 11.87 12.77 13.72
1880.754 14.75 15.55 16.06 16.4 16.36 16.15 15.87 15.6 15.32 14.62
1900.043 13.51 12.18 11.02 9.92 8.97 8.33 7.75 7.17 6.7 6.45
1919.333 6.2 5.9 5.58 5.33 5.14 4.92 4.72 4.55 4.46 4.38
1938.623 4.36 4.27 4.22 4.23 4.21 4.24 4.24 4.33 4.52 4.7
1957.913 4.82 4.86 4.93 4.95 4.94 4.96 4.84 4.63 4.45 4.31
1977.202 4.14 3.93 3.7 3.47 3.31 3.12 2.91 2.83 2.74 2.63
1996.492 2.52 2.44 2.41 2.29 2.21 2.17 2.16 2.18 2.13 2.01
2015.782 1.95 1.92 1.9 1.89 1.83 1.92 2.08 2.06 1.98 1.98
2035.072 2.06 2.08 2.06 2.02 1.94 2.02 2.04 2 2.16 2.17
2054.362 2.09 2.23 2.27 2.21 2.26 2.33 2.37 2.4 2.29 2.24
2073.651 2.41 2.57 2.68 2.77 2.75 2.74 2.75 2.77 2.82 2.78
2092.941 2.74 2.66 2.57 2.46 2.25 2.21 2.25 2.14 2.14 2.16
2112.231 2.1 2.16 2.16 2.05 1.99 2 2 1.97 1.99 1.93
2131.521 1.81 1.75 1.68 1.73 1.83 1.72 1.55 1.53 1.56 1.57
2150.810 1.6 1.63 1.66 1.6 1.59 1.61 1.64 1.64 1.59 1.55
2170.100 1.52 1.59 1.62 1.54 1.48 1.5 1.41 1.37 1.45 1.45
2189.390 1.37 1.36 1.48 1.53 1.48 1.43 1.44 1.44 1.51 1.64
2208.680 1.77 1.8 1.8 1.8 1.74 1.75 1.7 1.74 1.84 1.74
2227.970 1.71 1.69 1.63 1.71 1.74 1.68 1.65 1.6 1.61 1.68
2247.259 1.72 1.62 1.61 1.69 1.7 1.76 1.79 1.82 1.83 1.89
2266.549 2.02 2.04 2.05 2.04 2.03 2.12 2.28 2.29 2.26 2.28
2285.839 2.14 2.19 2.37 2.45 2.62 2.62 2.59 2.76 2.96 3.15
2305.129 3.29 3.42 3.54 3.63 3.67 3.71 3.7 3.61 3.53 3.44
2324.418 3.36 3.33 3.22 2.99 2.98 3.02 2.89 2.87 2.87 2.85
2343.708 2.89 2.92 2.92 2.83 2.79 2.77 2.81 2.84 2.77 2.75
2362.998 2.74 2.66 2.63 2.64 2.64 2.65 2.63 2.68 2.73 2.72
2382.288 2.73 2.83 2.91 2.95 3.09 3.11 3.22 3.26 3.28 3.45
2401.578 3.46 3.51 3.61 3.63 3.6 3.67 3.75 3.61 3.55 3.61
2420.867 3.49 3.32 3.36 3.38 3.32 3.28 3.3 3.33 3.36 3.38
2440.157 3.35 3.37 3.38 3.32 3.3 3.38 3.34 3.3 3.26 3.05
2459.447 2.96 2.94 2.96 3.01 3.1 3.18 3.12 3.09 3.02 3.02
2478.737 3.13 3.17 3.19 3.28 3.26 3.32 3.35 3.28 3.29 3.26
2498.026 3.09 2.99 3.06 3.06 3.02 2.91 2.84 2.77 2.84 2.94
2517.316 2.87 2.75 2.68 2.79 2.81 2.78 2.77 2.7 2.77 2.88
2536.606 2.91 2.84 2.77 2.83 2.87 2.84 2.73 2.62 2.6 2.5
2555.896 2.37 2.3 2.27 2.32 2.36 2.34 2.27 2.25 2.2 2.14
2575.186 2.04 2.01 2.12 2.04 1.9 1.95 2.05 2.14 2.16 2.04
2594.475 1.97 1.95 2.05 2.19 2.33 2.5 2.48 2.59 2.67 2.63
2613.765 2.81 3.01 3.01 3 2.92 2.88 2.89 2.83 2.82 2.72
2633.055 2.58 2.48 2.41 2.38 2.37 2.34 2.36 2.53 2.62 2.55
2652.345 2.46 2.5 2.59 2.68 2.63 2.77 2.98 2.84 2.83 3
2671.634 3.09 3.03 3.06 3.16 3.22 3.36 3.47 3.45 3.32 3.46
2690.924 3.73 3.82 3.94 4.1 4.23 4.3 4.42 4.59 4.86 5.08
2710.214 5.25 5.38 5.59 5.97 6.28 6.66 7.2 7.93 8.58 9.46
2729.504 10.76 11.92 12.88 13.86 14.68 15.26 15.58 15.59 15.47 14.85
2748.794 13.92 12.86 11.8 10.93 9.81 8.91 8.45 7.98 7.71 7.66
2768.083 7.49 7.34 7.43 7.51 7.65 7.87 8.03 8.16 8.36 8.68
2787.373 9.01 9.36 9.66 10.12 10.5 10.73 11.18 11.78 12.31 12.86
2806.663 13.45 14.07 14.6 15.19 15.98 16.66 17.41 18.34 19.06 19.92
2825.953 21.07 22.14 23.38 24.61 26.12 28.04 30.06 32.24 34.71 37.6
2845.242 41.04 45.12 49.6 54.59 60.26 66.69 74.05 82.19 90.9 99.74
2864.532 108.48 116.81 124.36 130.85 136 139.75 141.96 142.59 142.06 140.63
2883.822 138.67 136.14 133.41 131.14 129.34 128.17 127.54 127.56 128.07 129.21
2903.112 131.44 134.86 139.52 145.61 153.38 163.29 175.4 189.66 206.43 225
2922.401 243.71 261.19 276.35 287.77 294.85 297.28 295.52 290.33 281.51 269.19
2941.691 253.78 236.38 218.6 201.88 187.58 176.16 167.26 160.7 155.58 151.14
2960.981 147.65 145.22 143.89 143.57 144.25 146.01 148.11 150.45 153.38 156.59
2980.271 160.26 164.27 168.36 172.69 177.37 182.53 188.63 195.89 204.29 214.33
2999.561 225.62 238.04 251.35 264.68 277.27 288.18 296.45 301.8 303.59 301.69
3018.850 297.01 289.43 279.11 266.48 252.74 238.32 223.63 210.32 198.9 189.54
3038.140 182.23 176.47 171.82 167.56 163.37 158.98 154.53 150.79 147.89 145.31
3057.430 143.02 141 138.69 135.83 132.8 129.71 126.88 124.6 122.37 120.51
3076.720 119.98 121.86 127.36 136.33 146.83 154.96 156.72 153.5 152.55 150.52
3096.009 142.23 135.9 128.68 112.96 93.33 75.85 62.83 54.14 48.42 44.53
3115.299 41.4 38.17 35.41 33.05 30.77 28.45 26.28 24.27 22.3 20.49
3134.589 18.71 17.07 15.77 14.64 13.48 12.59 11.77 11.03 10.34 9.49
3153.879 9.03 8.6 7.97 7.63 7.25 6.8 6.47 6.29 6.15 5.9
3173.169 5.81 5.75 5.48 5.19 5.05 4.97 4.98 4.91 4.8 4.76
3192.458 4.7 4.63 4.38 4.03 3.94 4.02 4 3.85 3.84 3.88
3211.748 3.67 3.54 3.44 3.19 3.34 3.42 3.29 3.42 3.38 3.24
3231.038 3.25 3.3 3.38 3.45 3.4 3.43 3.21 2.99 2.9 3.06
3250.328 3.18 2.89 2.77 2.7 2.51 2.44 2.41 2.03 2.08 2.16
3269.617 1.98 2.05 2.03 1.96 2.04 2.1 1.88 1.83 1.84 1.92
3288.907 2.14 2 2.02 1.95 1.84 2.02 2.14 2.11 2.2 2.32
3308.197 2.06 1.85 2.01 2.1 2.08 2.14 2.03 1.84 2 2.08
3327.487 1.85 1.79 1.76 1.6 1.51 1.65 1.71 1.52 1.44 1.63
3346.777 1.64 1.49 1.56 1.63 1.59 1.55 1.56 1.52 1.46 1.62
3366.066 1.69 1.68 1.62 1.44 1.34 1.29 1.55 1.74 1.55 1.33
3385.356 1.19 1.34 1.53 1.39 1.31 1.3 1.31 1.29 1.26 1.2
3404.646 1.23 1.2 1.01 1.14 1.36 1.36 1.3 1.16 1.22 1.5
3423.936 1.59 1.43 1.18 1.13 1.28 1.35 1.26 1.33 1.27 1.16
3443.225 1.29 1.27 1.25 1.22 1.23 1.18 1.25 1.49 1.46 1.27
3462.515 1.14 1.14 1.44 1.59 1.51 1.41 1.27 1.29 1.15 1.04
3481.805 1.14 1.17 1.01 0.9044 0.909 0.8976 0.9644 1.01 0.9822 0.8843
3501.095 0.8535 0.8119 0.8786 0.9775 1.01 1 0.9358 0.8903 0.7649 0.7219
3520.385 0.778 0.869 0.846 0.919 0.9841 0.8312 0.7461 0.6854 0.8287 0.9757
3539.674 0.8265 0.7468 0.8577 0.788 0.8101 0.8491 0.7669 0.993 1.07 0.8557
3558.964 0.7142 0.6068 0.6458 0.821 0.8836 0.9258 0.9836 0.9949 0.9762 0.9073
3578.254 1.09 1.2 1.14 1.19 1.01 0.8093 1.08 1.15 0.9349 0.9364
3597.544 1.04 1.04 0.9308 0.8482 0.849 0.8266 0.6413 0.6361 0.6508 0.7429
3616.833 0.7581 0.5604 0.5178 0.547 0.7441 0.7873 0.4858 0.4414 0.5224 0.5132
3636.123 0.5339 0.4321 0.4317 0.5599 0.546 0.5494 0.6016 0.5067 0.6125 0.8195
3655.413 0.826 0.6485 0.449 0.4213 0.5482 0.5826 0.5476 0.4644 0.4195 0.5257
3674.703 0.5505 0.6681 0.8928 0.9444 0.787 0.6607 0.6158 0.5392 0.5151 0.6859
3693.993 0.8916 0.9122 0.9617 0.9564 0.9888 1.09 0.9208 0.8934 1.02 0.9414
3713.282 0.9068 1.2 1.36 1.24 1.18 1.36 1.5 1.57 1.71 1.84
3732.572 1.95 2.03 2.12 2.18 2.14 1.97 1.95 2.07 2.26 2.3
3751.862 2.08 1.9 1.92 1.87 1.83 1.95 1.83 1.63 1.5 1.34
3771.152 1.39 1.45 1.24 1.2 1.24 1.01 0.8919 0.8802 0.8645 0.9653
3790.441 1.12 0.9621 0.7991 1.06 1.04 0.958 1.14 1.18 1.1 1.17
3809.731 1.13 0.9243 0.9781 0.9689 0.9575 1.01 0.9983 1.18 1.35 1.12
3829.021 0.826 1.05 1.29 1.33 1.24 1.2 1.29 1.27 1.39 1.49
3848.311 1.21 1.14 1.56 1.75 1.65 1.76 1.88 1.64 1.36 1.52
3867.601 1.71 1.58 1.6 1.66 1.72 1.79 1.77 1.86 1.86 1.81
3886.890 1.99 2.15 1.99 1.84 1.81 1.88 2.03 2.05 2.14 1.99
3906.180 1.9 2.13 2.2 2.27 2.29 2.13 2.14 2.3 2.28 2.22
3925.470 2.41 2.49 2.53 2.58 2.43 2.42 2.62 2.69 2.75 2.8
3944.760 2.9 2.98 3.07 3.22 3.16 3.37 3.64 3.43 3.37 3.41
3964.049 3.25 3.2 3.27 3.25 3.11 3.08 3.18 3.1 2.91 2.93
3983.339 2.99 2.91 2.76 2.7 2.88 2.93 3.02 3.06 2.8 2.52
##END=
