##TITLE=Tri-n-propylphosphine
##JCAMP-DX=4.24
##DATA TYPE=INFRARED SPECTRUM
##ORIGIN=EPA-IR VAPOR PHASE LIBRARY
##OWNER=SRD/NIST
Collection (C) 2018 copyright by the U.S. Secretary of Commerce
on behalf of the United States of America. All rights reserved.
##CAS REGISTRY NO=2234-97-1
##MOLFORM=C 9 H 21 P
##$NIST SOURCE=MSDC-IR
##STATE=gas
##XUNITS=1/CM
##YUNITS=ABSORBANCE
##XFACTOR=1.
##YFACTOR=0.001
##DELTAX=1.92898
##FIRSTX=549.8
##LASTX=4000.7
##FIRSTY=1.9442
##MAXX=4000.7
##MINX=549.759
##MAXY=0.1591
##MINY=0
##NPOINTS=1790
##XYDATA=(X++(Y..Y))
549.759 1.9442 0.59 0.35 1.407 1.86 2.4686 2.4689 1.239 1.094 1.604
569.049 1.051 1.681 1.692 1.34 1.9644 2.35 1.637 2.0166 2.7717 2.1638
588.339 1.706 1.825 2.6179 3.2 3.88 3.15 1.684 1.415 2.05589 2.4914
607.628 1.836 1.512 1.584 1.921 1.578 2.6292 4.04 3.48 3.2 4.08
626.918 5.06 4.53 4.19 5.3 6.12 6.01 6.16 6.16 6.05 6.57
646.208 6.34 5.73 6.09 6.29 6.43 6.57 6.52 6.26 5.61 5.11
665.498 5 5.37 5.33 4.92 4.56 4.18 4.11 4.52 4.82 4.62
684.787 4.99 5.54 5.34 5.28 5.54 5.56 5.93 6.09 6.53 7.42
704.077 7.31 7.23 8.07 8.63 8.77 9.03 8.99 9.76 10.62 10.94
723.367 11.4 11.33 11.32 11.26 10.49 9.57 10.31 11.12 10.85 10.16
742.657 9.75 9.83 9.2 8.7 8.69 8.4 7.86 7.81 7.83 7.39
761.947 6.77 6.39 6.1 5.63 5.54 5.46 5.42 5.78 5.81 5.9
781.236 5.58 5.18 5.7 5.88 5.07 4.7 5.01 4.59 4.05 4.3
800.526 4.51 4.51 4.09 4.32 4.69 3.83 4.21 5.33 5.3 4.74
819.816 4.79 5.53 5.84 5.23 5.23 5.89 5.64 5.29 5.16 5.03
839.106 5.19 5.48 4.92 4.37 4.8 4.65 3.94 3.47 3.43 3.5
858.395 3.21 2.8827 2.691 2.7723 2.2764 1.757 1.931 1.832 1.695 2.0073
877.685 2.2314 1.761 1.331 1.485 2.006 2.2921 2.4026 2.09675 2.3963 2.801
896.975 1.932 2.222 2.6853 2.4301 2.5772 1.9 1.431 1.703 2.0183 2.1759
916.265 1.576 1.092 1.234 2.3231 2.438 1.751 1.792 2.05358 2.07019 1.916
935.555 1.885 1.499 1.767 2.09939 1.872 1.9963 1.562 1.255 1.854 2.3431
954.844 2.2241 2.4098 2.7415 2.5581 2.5372 2.1401 2.0162 2.0297 2.1957 2.5771
974.134 2.56 2.4862 2.2876 1.515 1.9933 2.571 2.012 2.6475 3.24 2.6592
993.424 1.678 1.622 2.6596 3.07 3.33 4.27 4.66 4.43 4.43 5.19
1012.714 5.45 5.12 5.13 5.87 7.14 7.25 7.01 7.19 6.44 6.65
1032.003 7.95 8.31 9.46 9.59 9.19 9.87 9.39 9.29 8.32 7.57
1051.293 8.36 8.06 8.22 9.6 10.54 10.34 11.17 12.11 11.14 12.11
1070.583 13.42 12.62 13.21 12.59 10.99 12.14 12.01 10.32 10.72 10.15
1089.873 8.72 8.45 6.76 5 4.87 4.05 4.13 3.0039 2.64 3.04
1109.163 1.357 1.205 2.2623 1.687 0.4 0.75 0.74 1.3 0.91 0.99
1128.452 2.665 1.925 0.9 2.6231 2.6611 0.37 0 1.842 3.11 3.79
1147.742 3.09 1.285 0.78 1.369 1.608 1.892 2.1841 2.5945 2.8514 2.6928
1167.032 3.0027 1.843 1.057 2.178 2.141 1.715 2.3618 2.5713 2.016 2.7815
1186.322 4.02 3.51 2.8732 2.796 3.59 4.78 4.27 4.36 3.34 3.18
1205.611 3.97 3.26 3.81 4.85 5.54 5.91 6.83 5.29 3.65 5.19
1224.901 5.64 4.95 4.34 3.4 3.0197 2.951 2.8936 3.38 4.32 3.39
1244.191 3.43 4.9 4.82 4.36 4.01 2.7275 2.0248 2.7764 3.26 3.16
1263.481 3.24 3.0341 2.4047 1.909 2.4643 3.47 4.09 4.15 3.86 4.13
1282.771 3.79 3.35 4.22 4.17 3.61 3.88 3.95 4.13 4.29 4.2
1302.060 4.06 3.88 3.9 4.2 4.5 4.52 4.48 4.47 4.5 4.98
1321.350 5.45 5.89 6.68 7.45 8.16 9 9.67 10.06 10.04 9.77
1340.640 9.37 8.7 7.99 7.3 6.53 5.75 5.59 5.38 4.99 4.95
1359.930 4.87 4.86 5.24 5.58 6.06 6.92 7.75 8.71 9.55 10.52
1379.219 11.54 12.05 12.24 12.15 11.73 11.13 10.39 9.57 8.78 8.49
1398.509 8.39 8.37 8.6 8.95 9.45 9.85 10.67 11.39 11.86 12.42
1417.799 12.63 12.58 12.47 12.45 12.29 11.87 11.41 11.05 10.64 10.31
1437.089 10.39 10.47 10.63 11 11.43 12.33 13.29 13.99 15.17 16.65
1456.378 17.84 18.79 19.35 19.72 19.77 19.48 18.6 17.28 16.09 14.71
1475.668 13.15 11.68 10.42 9.17 7.9 7.03 6.68 6.22 5.53 5.19
1494.958 4.95 4.71 4.58 4.63 4.62 4.4 4.1 3.88 3.93 3.87
1514.248 3.6 3.49 3.45 3.16 3.13 3.18 3.11 3.08 3.06 3.22
1533.538 3.35 2.8731 2.6489 2.7467 2.8314 2.7438 2.4368 2.4959 2.5297 2.7127
1552.827 2.7249 2.7815 3.0042 2.609 2.3627 2.647 2.5669 2.2368 2.2288 2.457
1572.117 2.5513 2.621 2.4746 2.5952 2.5363 2.13563 2.1918 2.3219 2.269 2.08747
1591.407 2.1825 2.5705 2.7429 2.3157 1.926 2.1747 2.5239 2.3132 2.0172 1.925
1610.697 2.0316 2.3313 2.4053 2.154 1.848 2.025 2.06849 1.71 1.86 2.2807
1629.986 2.5084 2.2487 2.1603 2.09879 1.749 1.909 1.9789 2.11921 2.11574 1.9972
1649.276 2.011 1.9671 1.9875 1.906 1.9568 1.914 1.9469 2.245 2.3462 1.907
1668.566 1.807 1.932 1.867 2.1942 2.3259 2.2087 2.0263 2.0586 2.03267 1.747
1687.856 1.747 1.641 1.65 1.914 2.10816 1.848 1.538 1.9492 2.06353 1.9441
1707.146 2.06732 2.0069 1.82 1.537 1.403 1.51 1.582 1.568 1.625 1.771
1726.435 1.9536 2.0288 1.901 1.706 1.745 1.781 1.622 1.611 1.864 1.88
1745.725 1.76 1.779 1.714 1.648 1.693 1.904 1.912 1.7 1.518 1.55
1765.015 1.79 1.838 1.744 1.61 1.519 1.561 1.638 1.62 1.723 1.833
1784.305 1.719 1.566 1.573 1.83 1.869 1.672 1.577 1.744 1.789 1.649
1803.594 1.812 1.873 2.0275 1.9845 1.753 1.833 1.853 1.809 1.528 1.57
1822.884 1.745 1.672 1.745 1.795 1.877 1.772 1.674 1.742 1.843 1.923
1842.174 1.9802 1.858 1.713 1.884 1.824 1.696 1.628 1.517 1.584 1.656
1861.464 1.833 1.895 1.864 1.868 1.9513 1.9898 2.0269 1.938 1.726 1.828
1880.754 2.0244 2.06196 1.9904 1.782 1.833 2.04898 2.03841 2.0074 1.761 1.632
1900.043 1.824 2.015 1.79 1.774 2.06838 2.13973 1.9579 1.796 1.919 1.9872
1919.333 1.909 1.813 1.757 1.771 1.905 2.12933 2.2127 2.0108 1.823 1.817
1938.623 1.875 1.9747 1.9644 1.851 1.606 1.554 1.747 1.8 1.807 1.821
1957.913 1.814 1.834 1.804 1.887 1.939 1.799 1.785 1.797 1.9412 2.1653
1977.202 2.008 1.649 1.788 2.0108 1.853 1.905 2.09351 2.1055 2.05298 1.874
1996.492 1.739 1.718 1.825 1.9476 1.863 1.835 2.0296 2.13204 1.9874 1.9813
2015.782 1.953 1.9576 1.896 1.817 2.0222 1.9656 1.883 1.9701 1.936 1.852
2035.072 1.9539 1.868 1.658 1.912 1.925 1.898 2.03385 1.966 2.0228 2.0293
2054.362 1.898 1.827 1.741 1.659 1.659 1.688 1.859 2.03128 2.2459 2.2984
2073.651 2.0089 1.909 1.9573 1.881 1.864 1.9595 2.0097 1.902 1.943 1.9676
2092.941 1.9655 2.10792 2.07713 2.05787 2.1729 1.918 1.691 1.862 1.9688 2.145
2112.231 2.06477 2.04111 2.1681 1.909 1.811 1.81 1.711 1.803 1.788 1.726
2131.521 1.813 1.775 1.854 2.06789 1.925 1.913 2.1316 1.9782 1.721 1.778
2150.810 1.82 1.804 1.924 1.862 1.762 1.769 1.844 2.1436 2.06542 1.919
2170.100 1.926 1.813 1.642 1.687 1.905 1.663 1.503 1.381 1.499 1.867
2189.390 1.863 2.0105 2.04117 1.796 1.854 1.9736 1.878 1.821 1.837 2.09431
2208.680 2.05077 1.736 1.853 1.938 1.952 2.1482 2.04652 1.924 2.038 1.897
2227.970 1.681 1.702 1.725 1.742 1.796 1.616 1.67 1.894 1.817 1.653
2247.259 1.694 1.843 1.863 2.05379 2.2103 1.912 1.708 1.783 1.786 1.822
2266.549 1.9546 2.07019 2.0042 1.9709 2.0203 1.757 1.687 1.843 1.82 1.554
2285.839 1.554 1.891 1.921 1.903 1.83 1.808 1.807 1.667 1.596 1.548
2305.129 1.649 1.9703 2.11578 1.936 1.792 1.52 1.459 1.61 1.711 1.759
2324.418 1.734 1.9961 1.9676 1.476 1.525 2.0088 1.929 1.764 1.808 2.06391
2343.708 2.07907 1.912 2.08203 2.09345 1.881 1.857 1.9865 1.571 1.509 1.783
2362.998 1.753 1.927 1.9843 1.752 1.526 1.824 1.916 1.666 1.72 1.937
2382.288 1.911 1.783 1.709 1.847 1.9569 1.588 1.723 1.903 2.04496 2.08698
2401.578 1.75 1.893 2.11409 2.07107 2.1922 2.1486 1.9697 1.9515 1.836 1.88
2420.867 1.9661 1.887 1.9601 2.1871 2.07021 2.0227 2.2535 2.1924 1.848 1.815
2440.157 2.2195 2.1985 2.0214 2.1462 2.2145 1.9881 1.9902 2.09893 2.13567 2.2307
2459.447 1.924 1.625 1.605 1.899 2.03385 1.89 1.9912 1.902 1.9471 1.827
2478.737 1.727 1.892 1.993 2.05786 2.03169 2.05555 1.831 1.864 2.13865 2.05
2498.026 2.0054 2.0093 1.886 1.692 1.789 1.9884 2.04695 2.08285 2.0732 1.81
2517.316 1.702 1.875 1.866 2.10258 1.9897 1.898 1.956 2.0757 1.912 1.798
2536.606 2.4281 2.1618 1.776 1.653 1.604 1.751 1.89 2.0014 1.923 2.1449
2555.896 2.1774 2.0325 2.006 2.10138 2.07565 1.9678 1.938 1.9822 2.13098 2.0316
2575.186 1.891 1.9552 1.936 2.12174 2.3531 2.1757 2.07014 2.2418 2.3057 2.3046
2594.475 2.3011 2.3696 2.5786 2.7141 2.7451 2.529 2.6266 2.667 2.37 2.5941
2613.765 2.7464 2.5538 2.8404 3.3 3.41 3.3 2.9342 3.0089 2.917 3.16
2633.055 3.41 3.0184 3.15 3.07 3.11 3.09 2.9493 3.12 2.9405 2.7087
2652.345 2.9605 3.08 2.9449 2.7178 2.709 2.6772 2.6999 2.6788 2.6733 2.6608
2671.634 2.6144 2.9208 3.09 3.18 2.8055 2.5431 2.8963 2.8765 2.6132 2.6289
2690.924 2.5744 2.692 2.7286 2.6951 2.6926 2.8391 2.8784 2.6742 2.6936 3.0323
2710.214 3.0012 2.6871 2.748 2.8602 2.9565 2.8461 3.05 3.35 3.32 3.37
2729.504 3.71 4.23 4.38 4.45 4.72 5.03 4.83 4.57 4.64 4.41
2748.794 4.56 4.65 4.3 4.33 4.43 4.45 4.57 4.4 4.37 4.63
2768.083 4.88 5.15 5.27 5.08 5.07 5.72 5.95 5.95 6.38 6.49
2787.373 6.63 7.36 7.6 8.01 9.1 9.63 9.72 10.21 10.79 11.29
2806.663 11.85 12.77 13.78 13.87 14.1 14.26 14.04 13.84 13.71 13.9
2825.953 13.88 13.88 14.18 13.76 13.4 13.74 13.96 14.51 15.11 15.73
2845.242 16.5 17.11 18.05 19.39 20.68 22.5 25.21 28.03 31.13 35.01
2864.532 39.84 45.44 52.07 59.09 66.13 73.39 79.77 85.56 90.31 92.94
2883.822 94.47 95.1 93.47 89.95 85.43 81.04 77.02 73.29 70.69 68.98
2903.112 68.55 68.75 70.12 72.46 74.59 76.62 79.25 82.33 84.82 88.14
2922.401 91.72 95.02 98.87 103.02 107.49 111.71 114.29 115.33 115.25 113.36
2941.691 109.97 105.78 101.25 96.45 93.17 93.28 96.62 103.21 112.94 125.32
2960.981 137.97 148.8 156.62 159.1 154.82 144.37 131.02 115.79 98.83 82.27
2980.271 67.3 55.46 46.33 39.12 33.52 29.01 26.19 24.54 22.61 20.63
2999.561 19.6 18.66 17.51 16.79 15.97 15.49 14.99 13.95 13.47 12.8
3018.850 12.11 12.04 11.92 11.61 11.03 10.59 10.53 10.21 9.82 9.4
3038.140 8.91 8.9 8.62 7.88 7.89 7.86 7.11 6.79 6.83 6.52
3057.430 6.85 6.66 6.28 6 5.83 5.78 5.79 6.1 5.72 5.2
3076.720 5.08 4.99 4.5 4.49 4.87 5.1 5.21 5.61 5.71 5.33
3096.009 4.85 4.28 4.1 4.44 4.4 4.1 4.1 4.12 3.98 3.85
3115.299 4.13 4.41 4.24 4 4.09 4.16 3.65 3.5 4.38 4.72
3134.589 3.64 3.66 4.03 4.03 4.13 3.71 3.7 4.05 4.11 3.67
3153.879 3.24 3.07 3.44 3.87 3.85 3.97 3.79 3.2 3.72 3.82
3173.169 3.21 3.04 3.07 3.59 3.74 3.58 3.47 3.38 3.45 3.27
3192.458 2.7844 2.8951 2.8343 2.3782 2.06189 1.86 2.3186 2.7533 2.6343 2.5861
3211.748 2.6507 2.8773 2.4746 2.06735 2.722 3.12 3.04 2.9245 2.9404 3.11
3231.038 3.61 3.33 2.673 2.7439 2.7824 2.4286 2.397 2.3998 2.2685 1.749
3250.328 1.777 2.5809 2.6097 2.4255 2.7107 2.7374 2.2603 2.1539 2.2273 2.3532
3269.617 2.3452 2.06826 2.3466 2.4805 2.1481 2.163 2.1443 2.3561 2.4814 2.13897
3288.907 1.96 2.1791 1.9985 1.503 1.644 1.785 1.553 1.628 1.775 1.89
3308.197 1.856 1.659 1.815 1.802 1.752 2.4304 2.811 2.5088 1.917 1.586
3327.487 2.0024 1.882 1.733 1.9703 1.792 1.785 1.931 1.897 1.762 2.0678
3346.777 2.3164 2.11732 1.506 1.1 1.01 1.058 1.584 1.572 1.671 1.902
3366.066 1.729 1.59 1.463 1.635 1.615 1.645 1.673 1.571 1.547 1.648
3385.356 1.784 1.453 1.935 2.1439 2.04782 2.2889 1.9742 1.688 1.59 1.513
3404.646 1.112 1.392 1.586 0.9 1.286 1.695 1.918 1.887 1.421 1.577
3423.936 1.16 1.46 2.2857 2.2005 2.09189 2.1569 1.656 1.362 1.642 1.52
3443.225 1.9619 2.2855 1.679 1.441 1.255 1.452 2.2087 2.3188 2.4441 2.08296
3462.515 1.728 1.69 1.405 1.429 1.231 1.116 1.384 1.9934 2.1722 2.2754
3481.805 1.607 1.243 1.367 0.89 0.82 1.311 1.811 1.502 1.86 2.03092
3501.095 1.66 1.651 1.693 1.828 1.679 1.348 1.451 1.859 1.94 2.2163
3520.385 2.1484 1.365 1.233 1.716 1.711 1.731 2.10277 1.93 1.341 1.382
3539.674 1.436 1.337 1.739 1.903 1.673 1.638 1.493 1.581 2.1338 2.09598
3558.964 1.984 1.8 1.87 1.765 1.843 2.6118 2.3561 2.0135 2.1592 1.689
3578.254 1.527 1.877 1.686 1.595 1.221 0.88 1.089 1.38 1.93 1.641
3597.544 0.96 1 1.514 2.0095 2.186 1.798 1.767 1.813 1.867 2.2651
3616.833 1.87 1.535 1.604 1.575 1.584 2.1689 2.7606 2.4967 2.012 2.04059
3636.123 2.1584 1.695 1.524 1.709 1.626 1.692 1.717 1.873 2.4491 2.6298
3655.413 2.434 1.744 2.2328 2.5625 2.1533 2.2442 2.3472 2.1442 1.802 2.201
3674.703 1.9651 1.386 1.208 1.591 2.10765 2.24 1.818 1.359 1.749 2.05083
3693.993 1.7 1.688 1.775 1.76 1.562 1.709 2.05659 1.785 1.573 1.504
3713.282 1.634 1.738 2.2469 2.07238 1.903 2.2614 2.3464 2.2355 1.764 2.4511
3732.572 2.6267 2.3441 2.2686 2.282 2.6798 2.2368 1.9668 1.862 1.815 2.10289
3751.862 2.223 2.1946 2.1662 2.1328 1.929 2.11403 2.2754 1.879 2.10263 2.3044
3771.152 2.1543 2.2658 2.3461 2.399 2.2183 2.6748 2.6603 1.905 1.475 0.7
3790.441 0.9 1.932 1.887 1.649 1.861 1.899 1.589 1.614 1.858 1.867
3809.731 1.456 1.337 1.898 2.10471 1.805 1.893 1.903 1.787 2.09273 2.1704
3829.021 1.602 0.8 1.366 1.825 1.307 1.936 2.3563 2.13168 1.649 1.243
3848.311 1.218 1.042 1.263 1.208 1.327 1.351 1.314 1.598 1.9874 1.9642
3867.601 1.871 1.755 1.535 1.858 2.1962 1.948 1.498 1.9722 2.4107 2.3292
3886.890 1.801 1.762 1.873 2.06808 2.1504 1.829 1.782 1.927 2.4112 2.11034
3906.180 1.803 2.05625 2.2758 2.08077 2.3118 2.6892 2.1832 1.652 1.382 1.513
3925.470 2.3535 2.6311 2.3636 3.0299 3.15 2.4033 1.724 1.692 2.10321 2.3037
3944.760 2.4539 2.3091 2.249 1.933 1.44 1.906 1.735 1.098 1.834 2.317
3964.049 1.9767 1.9817 1.692 1.808 2.06624 1.51 1.588 1.802 2.1621 2.8251
3983.339 2.5813 2.1874 2.327 2.1693 2.09251 1.732 1.634 1.868 1.564 1.625
##END=
