##TITLE=Benzophenone dimethyl ketal
##JCAMP-DX=4.24
##DATA TYPE=INFRARED SPECTRUM
##ORIGIN=EPA-IR VAPOR PHASE LIBRARY
##OWNER=SRD/NIST
Collection (C) 2018 copyright by the U.S. Secretary of Commerce
on behalf of the United States of America. All rights reserved.
##CAS REGISTRY NO=2235-01-0
##MOLFORM=C 15 H 16 O 2
##$NIST SOURCE=MSDC-IR
##STATE=gas
##XUNITS=1/CM
##YUNITS=ABSORBANCE
##XFACTOR=1.
##YFACTOR=0.001
##DELTAX=1.92934
##FIRSTX=549.9
##LASTX=3999.5
##FIRSTY=2.1234
##MAXX=3999.53
##MINX=549.863
##MAXY=0.10448
##MINY=0
##NPOINTS=1789
##XYDATA=(X++(Y..Y))
549.863 2.1234 2.1941 2.2677 2.3453 2.3851 2.3062 2.1996 2.2149 2.3485 2.289
569.156 2.1589 2.09197 1.9902 2.02956 2.09469 2.05169 1.9326 1.769 1.756 1.662
588.450 1.555 1.522 1.551 1.754 1.748 1.585 1.603 1.684 1.653 1.633
607.743 1.695 2.06071 2.49 2.7858 2.9146 3.0031 3.14 2.9912 2.7176 2.5881
627.037 2.5912 2.7255 3.02 3.5 4.08 4.71 5.4 6.11 7.08 8.63
646.330 10.69 13.02 14.4 15.43 16.39 15.92 14.64 12.43 9.99 8.27
665.624 7.42 7.3 7.26 7.35 7.59 7.92 8.34 8.93 9.89 11.33
684.917 13.78 17.83 23.93 32 40.72 49.21 57.08 61.06 60.52 57.6
704.210 51.9 44.01 35.56 27.75 21.25 16.25 12.54 9.83 7.98 6.76
723.504 6.06 5.84 5.86 6.14 6.64 7.41 8.76 10.71 13.53 17.45
742.797 22.12 26.5 30.09 32.27 31.25 28.15 24.93 21.57 18.8 17.64
762.091 18.1 19.46 20.93 22.04 22.31 21.35 19.48 17 14.14 11.35
781.384 8.96 7.13 5.81 4.94 4.33 3.83 3.46 3.22 3.0066 2.7955
800.678 2.7739 2.8615 2.9716 3.08 3.11 3.16 3.13 2.9993 2.8245 2.628
819.971 2.4719 2.2848 2.1773 2.07228 1.9475 1.9369 1.91 1.817 1.753 1.766
839.264 1.834 1.864 1.84 1.825 1.78 1.829 1.88 1.9399 1.9961 1.9766
858.558 2.05018 2.1391 2.2251 2.2983 2.4093 2.583 2.6979 2.7201 2.7467 2.8139
877.851 2.8998 2.9698 2.9797 2.9641 2.9564 3.07 3.21 3.32 3.53 3.9
897.145 4.46 5.22 6.1 7.17 8.3 9.38 10.16 10.54 10.52 10.09
916.438 9.43 8.64 7.8 7.07 6.33 5.67 5.23 4.93 4.74 4.59
935.732 4.55 4.56 4.7 5.02 5.39 5.84 6.3 6.69 7 7.25
955.025 7.4 7.46 7.51 7.68 8.04 8.68 9.67 11.04 12.77 14.96
974.318 17.71 21.02 24.95 29.12 33.07 36.5 38.83 39.42 38.11 35.22
993.612 31.32 27.11 23.05 19.44 16.45 13.99 12.16 10.91 10 9.48
1012.905 9.32 9.51 10.17 11.27 12.94 15.32 18.3 21.45 24.09 26.03
1032.199 27.2 27.25 26.64 25.92 25.48 26.13 28.42 32.55 38.41 45.96
1051.492 55.14 65.56 76.61 87.3 96.31 102.38 104.48 102.2 95.91 86.82
1070.786 76.79 67.58 60.59 56.7 55.95 57.9 61.87 67.08 72.79 78.18
1090.079 82.5 85.05 85.4 83.25 78.58 71.91 63.99 55.55 47.34 39.99
1109.372 33.72 28.52 24.33 20.9 18.13 15.9 14.16 12.82 11.75 10.98
1128.666 10.4 9.91 9.59 9.4 9.32 9.34 9.39 9.49 9.72 10.05
1147.959 10.42 10.86 11.28 11.69 12.25 12.94 13.69 14.76 16.28 18.4
1167.253 21.37 25.18 29.56 33.71 37.04 39.04 39.41 38.77 37.33 35.35
1186.546 33.88 33.54 34.54 36.72 39.62 43.04 46.78 50.49 53.79 56.22
1205.840 57.25 56.53 53.94 49.72 44.3 38.31 32.51 27.49 23.67 21.18
1225.133 19.88 19.5 19.76 20.47 21.37 22.19 22.72 23.02 23.18 23.23
1244.426 23.36 23.51 23.6 23.58 23.08 22.04 20.61 18.87 16.94 15.07
1263.720 13.51 12.4 11.76 11.39 11.19 10.98 10.64 10.27 9.83 9.32
1283.013 8.76 8.2 7.69 7.21 6.78 6.33 5.91 5.66 5.59 5.71
1302.307 6.05 6.53 7.18 7.86 8.47 8.85 8.92 8.71 8.3 7.78
1321.600 7.18 6.64 6.22 5.8 5.42 5.02 4.57 4.15 3.86 3.68
1340.894 3.55 3.41 3.37 3.42 3.39 3.36 3.4 3.43 3.38 3.35
1360.187 3.35 3.32 3.25 3.22 3.28 3.32 3.41 3.52 3.58 3.63
1379.480 3.57 3.46 3.36 3.27 3.16 3.03 2.9547 2.927 2.9446 3.05
1398.774 3.1 3.12 3.21 3.29 3.32 3.34 3.35 3.34 3.35 3.37
1418.067 3.43 3.48 3.53 3.64 3.84 4.2 4.73 5.37 6.23 7.31
1437.361 8.59 10.16 11.93 13.73 15.45 16.9 17.99 18.68 18.16 16.37
1456.654 14.32 12.34 10.57 9.1 8.12 7.58 7.35 7.36 7.52 7.81
1475.948 8.32 9.03 9.99 11.27 12.62 13.75 14.48 14.64 14.03 12.89
1495.241 11.38 9.57 7.84 6.52 5.72 5.29 4.91 4.54 4.27 4.02
1514.534 3.8 3.61 3.45 3.33 3.27 3.21 3.16 3.17 3.21 3.31
1533.828 3.41 3.45 3.62 3.77 3.75 3.72 3.61 3.48 3.38 3.25
1553.121 3.14 3.05 3.03 3.04 2.8916 2.8118 2.8085 2.773 2.8073 2.8143
1572.415 2.8306 2.916 3.04 3.05 3.08 3.24 3.42 3.64 3.82 4.03
1591.708 4.35 4.53 4.61 4.7 4.72 4.61 4.4 4.13 3.82 3.53
1611.002 3.29 3.12 2.964 2.8381 2.7053 2.6012 2.541 2.4505 2.3598 2.2534
1630.295 2.1553 2.05252 1.9908 2.03315 1.9879 1.901 1.811 1.818 1.9301 1.9339
1649.588 1.91 2.03928 2.1531 2.1594 2.2404 2.275 2.348 2.4728 2.4946 2.5473
1668.882 2.6656 2.801 2.9451 3.06 3.15 3.19 3.15 3.14 3.17 3.04
1688.175 2.829 2.6763 2.4736 2.3827 2.3586 2.2467 2.2208 2.1448 2.03584 1.9764
1707.469 1.9403 1.9443 1.955 1.952 1.9444 1.953 1.9458 1.901 1.91 1.909
1726.762 1.862 1.874 1.899 1.894 1.914 1.951 2.0413 2.10468 2.0944 2.14
1746.056 2.2328 2.3048 2.3774 2.3939 2.3401 2.3261 2.3017 2.1928 2.1337 2.1547
1765.349 2.1463 2.1431 2.186 2.2133 2.1711 2.10971 2.04775 2.05833 2.06234 2.0034
1784.642 1.99 2.06425 2.143 2.2703 2.5113 2.7695 3.12 3.45 3.8 4.26
1803.936 4.59 4.73 4.78 4.69 4.46 4.14 3.74 3.39 3.08 2.7528
1823.229 2.5599 2.4127 2.2346 2.11961 1.96 1.854 1.786 1.732 1.72 1.656
1842.523 1.644 1.637 1.576 1.566 1.619 1.663 1.742 1.821 1.808 1.812
1861.816 1.9692 2.1609 2.264 2.3945 2.5462 2.7278 2.9335 3.04 3.15 3.27
1881.110 3.36 3.42 3.44 3.43 3.38 3.29 3.18 3.05 2.9023 2.7247
1900.403 2.5034 2.2952 2.1615 2.05491 1.9674 1.899 1.887 1.853 1.778 1.772
1919.696 1.804 1.836 1.87 1.9281 1.949 2.01131 2.151 2.3261 2.6043 2.89
1938.990 3.15 3.54 3.92 4.19 4.42 4.53 4.47 4.26 4.04 3.87
1958.283 3.62 3.34 3.09 2.8741 2.625 2.3871 2.1678 1.9881 1.889 1.822
1977.577 1.791 1.777 1.772 1.77 1.768 1.767 1.77 1.739 1.723 1.751
1996.870 1.726 1.691 1.715 1.746 1.784 1.841 1.897 1.9496 1.974 1.9804
2016.164 1.9973 2.04664 2.08966 2.1228 2.1326 2.1201 2.1243 2.10124 2.05562 2.0713
2035.457 2.077 2.07085 2.098 2.08205 2.06338 2.05952 2.06326 2.05189 2.04872 2.0493
2054.750 2.03943 2.03024 1.9598 1.9388 1.9562 1.864 1.805 1.798 1.76 1.756
2074.044 1.781 1.729 1.685 1.683 1.65 1.626 1.628 1.594 1.559 1.564
2093.337 1.528 1.501 1.538 1.528 1.477 1.467 1.461 1.453 1.478 1.506
2112.631 1.539 1.57 1.533 1.528 1.579 1.581 1.545 1.541 1.559 1.533
2131.924 1.517 1.537 1.528 1.51 1.52 1.542 1.583 1.583 1.581 1.577
2151.218 1.588 1.638 1.628 1.609 1.594 1.555 1.513 1.523 1.551 1.533
2170.511 1.501 1.494 1.516 1.498 1.495 1.513 1.486 1.447 1.437 1.441
2189.804 1.438 1.402 1.365 1.348 1.323 1.304 1.249 1.238 1.251 1.259
2209.098 1.231 1.194 1.165 1.184 1.241 1.211 1.151 1.113 1.144 1.16
2228.391 1.135 1.154 1.166 1.168 1.187 1.2 1.195 1.208 1.202 1.208
2247.685 1.205 1.209 1.234 1.214 1.206 1.242 1.203 1.157 1.186 1.208
2266.978 1.205 1.187 1.228 1.228 1.185 1.178 1.226 1.255 1.194 1.172
2286.272 1.221 1.268 1.312 1.248 1.194 1.239 1.29 1.324 1.321 1.322
2305.565 1.369 1.444 1.518 1.551 1.574 1.585 1.528 1.48 1.451 1.451
2324.858 1.446 1.409 1.421 1.482 1.541 1.611 1.627 1.56 1.526 1.476
2344.152 1.443 1.427 1.397 1.366 1.343 1.397 1.437 1.41 1.409 1.416
2363.445 1.376 1.342 1.28 1.252 1.268 1.248 1.219 1.213 1.224 1.228
2382.739 1.239 1.245 1.219 1.201 1.223 1.228 1.177 1.153 1.167 1.157
2402.032 1.159 1.151 1.178 1.206 1.235 1.213 1.156 1.19 1.198 1.201
2421.326 1.217 1.227 1.219 1.207 1.242 1.239 1.194 1.189 1.174 1.146
2440.619 1.149 1.153 1.176 1.183 1.15 1.12 1.131 1.119 1.099 1.119
2459.912 1.126 1.117 1.137 1.158 1.163 1.172 1.154 1.119 1.103 1.135
2479.206 1.119 1.053 1.079 1.108 1.089 1.102 1.129 1.138 1.097 1.083
2498.499 1.111 1.116 1.142 1.161 1.134 1.052 1.038 1.072 1.093 1.108
2517.793 1.12 1.129 1.132 1.166 1.169 1.147 1.122 1.109 1.112 1.134
2537.086 1.106 1.083 1.133 1.145 1.089 1.1 1.165 1.161 1.141 1.129
2556.380 1.154 1.18 1.19 1.211 1.197 1.193 1.201 1.21 1.203 1.196
2575.673 1.205 1.218 1.279 1.331 1.294 1.29 1.331 1.33 1.318 1.329
2594.966 1.375 1.416 1.42 1.384 1.391 1.384 1.366 1.397 1.42 1.373
2614.260 1.272 1.263 1.331 1.356 1.36 1.405 1.424 1.334 1.335 1.386
2633.553 1.308 1.285 1.318 1.308 1.3 1.302 1.253 1.18 1.169 1.203
2652.847 1.204 1.196 1.221 1.2 1.193 1.187 1.103 1.124 1.193 1.183
2672.140 1.186 1.169 1.117 1.076 1.107 1.144 1.165 1.138 1.078 1.137
2691.434 1.188 1.184 1.113 1.08 1.146 1.172 1.137 1.122 1.106 1.052
2710.727 1.04 1.121 1.152 1.094 1.064 1.038 1.074 1.12 1.166 1.181
2730.020 1.133 1.14 1.199 1.215 1.156 1.176 1.176 1.195 1.275 1.322
2749.314 1.325 1.369 1.442 1.415 1.378 1.391 1.44 1.497 1.55 1.546
2768.607 1.608 1.607 1.572 1.649 1.775 1.789 1.774 1.864 1.867 1.883
2787.901 1.9947 2.1038 2.2364 2.3236 2.3988 2.564 2.6831 2.804 2.9504 3.04
2807.194 3.17 3.42 3.59 3.82 4.16 4.45 4.9 5.41 6.12 7.07
2826.488 8.33 10.21 12.66 15.67 18.93 21.88 23.98 24.86 24.25 22.23
2845.781 19.2 15.72 12.35 9.7 7.93 6.71 5.95 5.56 5.31 5.13
2865.074 5.05 5.09 5.2 5.32 5.44 5.66 5.96 6.26 6.56 6.98
2884.368 7.43 7.86 8.39 8.91 9.38 10 10.83 11.69 12.45 13.18
2903.661 13.84 14.39 14.89 15.2 15.44 15.65 15.81 16.1 16.29 16.49
2922.955 16.92 17.42 18.03 19.02 20.5 22.43 24.85 27.91 31.5 35.19
2942.248 38.55 41.14 42.49 42.45 40.95 38.42 35.5 32.41 29.54 27.26
2961.542 25.55 24.21 23.04 21.98 20.97 19.78 18.45 17.41 16.58 15.81
2980.835 15.36 15.23 15.28 15.43 15.75 16.08 16.2 16.21 16 15.66
3000.128 15.19 14.52 13.71 12.83 12.12 11.57 11.23 11.01 11.05 11.5
3019.422 12.19 12.98 13.87 14.98 16.24 17.69 19.18 20.44 21.32 21.78
3038.715 21.87 21.49 20.73 19.93 19.16 18.55 18.36 18.82 20.09 21.96
3058.009 24.24 26.8 29.32 31.8 34.02 35.49 36.13 35.74 34.21 31.77
3077.302 28.86 25.89 23.15 21.03 19.63 18.85 18.44 17.89 17.22 16.15
3096.596 14.63 13.05 11.43 9.88 8.58 7.56 6.63 5.76 5.1 4.48
3115.889 3.99 3.6 3.26 2.9031 2.6347 2.6028 2.4768 2.2549 2.02526 2.05018
3135.182 2.2156 2.02436 1.8 1.717 1.544 1.334 1.271 1.229 1.143 1.158
3154.476 1.226 1.188 1.077 1.072 1.114 1.143 1.066 1.01 1.04 0.98
3173.769 0.8 0.74 0.69 0.72 0.74 0.52 0.56 0.61 0.49 0.46
3193.063 0.37 0.34 0.37 0.52 0.54 0.4 0.42 0.31 0.25 0.32
3212.356 0.31 0.28 0.22 0.17 0.24 0.31 0.16 0.02 0.1 0.19
3231.650 0.14 0.03 0.15 0.29 0.26 0.28 0.34 0.23 0.07 0.1
3250.943 0.12 0.08 0.07 0.2 0.23 0.05 0.12 0.28 0.3 0.22
3270.236 0.06 0 0.04 0.14 0.19 0.04 0.04 0.14 0.08 0.12
3289.530 0.08 0.16 0.22 0.16 0.16 0.07 0.06 0.1 0.1 0.13
3308.823 0.24 0.28 0.14 0.09 0.19 0.18 0.07 0.25 0.39 0.25
3328.117 0.17 0.13 0.27 0.31 0.26 0.3 0.31 0.31 0.33 0.36
3347.410 0.36 0.28 0.14 0.07 0.26 0.33 0.28 0.38 0.45 0.39
3366.704 0.29 0.28 0.31 0.26 0.2 0.24 0.23 0.26 0.4 0.48
3385.997 0.3 0.16 0.23 0.19 0.14 0.18 0.17 0.18 0.25 0.26
3405.290 0.32 0.22 0.03 0.03 0.18 0.33 0.3 0.22 0.26 0.31
3424.584 0.21 0.21 0.2 0.07 0.16 0.35 0.34 0.3 0.27 0.29
3443.877 0.37 0.32 0.3 0.32 0.28 0.26 0.31 0.39 0.37 0.24
3463.171 0.17 0.22 0.37 0.45 0.47 0.46 0.34 0.29 0.38 0.39
3482.464 0.47 0.53 0.35 0.24 0.27 0.37 0.36 0.35 0.44 0.33
3501.758 0.27 0.38 0.47 0.44 0.25 0.16 0.36 0.52 0.44 0.36
3521.051 0.3 0.37 0.39 0.32 0.37 0.41 0.52 0.46 0.38 0.54
3540.344 0.67 0.67 0.48 0.41 0.5 0.57 0.55 0.41 0.43 0.46
3559.638 0.45 0.53 0.46 0.42 0.41 0.45 0.52 0.47 0.44 0.52
3578.931 0.48 0.46 0.55 0.53 0.48 0.45 0.49 0.61 0.64 0.64
3598.225 0.69 0.63 0.5 0.52 0.6 0.44 0.47 0.63 0.58 0.57
3617.518 0.55 0.55 0.61 0.64 0.6 0.65 0.77 0.72 0.64 0.66
3636.812 0.7 0.68 0.67 0.73 0.79 0.84 0.88 0.85 0.91 0.96
3656.105 0.87 0.75 0.7 0.77 0.87 0.84 0.75 0.75 0.73 0.75
3675.398 0.79 0.76 0.77 0.81 0.76 0.63 0.64 0.72 0.76 0.82
3694.692 0.98 0.92 0.87 0.89 0.94 0.96 0.86 0.82 0.87 0.9
3713.985 0.96 1.046 1.04 0.99 0.95 1.023 1.036 0.96 0.91 0.9
3733.279 0.9 0.84 0.71 0.68 0.7 0.72 0.79 0.78 0.8 0.83
3752.572 0.77 0.73 0.77 0.83 0.83 0.76 0.76 0.83 0.87 0.87
3771.866 0.85 0.83 0.77 0.83 0.82 0.69 0.71 0.79 0.8 0.69
3791.159 0.68 0.74 0.76 0.83 0.84 0.89 0.83 0.77 0.84 0.8
3810.452 0.76 0.75 0.74 0.77 0.82 0.84 0.72 0.65 0.75 0.72
3829.746 0.74 0.83 0.83 0.84 0.82 0.8 0.85 0.77 0.74 0.83
3849.039 0.85 0.84 0.84 0.8 0.79 0.88 0.86 0.85 0.8 0.75
3868.333 0.81 0.8 0.75 0.72 0.82 0.89 0.84 0.85 0.92 0.95
3887.626 0.88 0.8 0.86 0.92 0.98 1.047 1.046 0.93 0.88 0.94
3906.920 0.87 0.85 0.87 0.94 0.94 0.79 0.79 0.95 1 0.94
3926.213 0.84 0.83 0.83 0.94 1 0.92 0.99 0.96 0.88 0.89
3945.506 0.92 0.89 0.94 0.97 0.93 0.92 0.82 0.81 0.88 0.87
3964.800 0.88 0.9 0.96 1 1.026 1.02 1.076 1.15 1.116 1.038
3984.093 1.024 1.127 1.15 1.16 1.117 1.067 1.157 1.219 1.196
##END=
