##TITLE=2,2'-Diiodobiphenyl
##JCAMP-DX=4.24
##DATA TYPE=INFRARED SPECTRUM
##ORIGIN=EPA-IR VAPOR PHASE LIBRARY
##OWNER=SRD/NIST
Collection (C) 2018 copyright by the U.S. Secretary of Commerce
on behalf of the United States of America. All rights reserved.
##CAS REGISTRY NO=2236-52-4
##MOLFORM=C 12 H 8 I 2
##$NIST SOURCE=MSDC-IR
##STATE=gas
##XUNITS=1/CM
##YUNITS=ABSORBANCE
##XFACTOR=1.
##YFACTOR=0.001
##DELTAX=1.92898
##FIRSTX=549.8
##LASTX=4000.7
##FIRSTY=7.24
##MAXX=4000.7
##MINX=549.759
##MAXY=0.10205
##MINY=0
##NPOINTS=1790
##XYDATA=(X++(Y..Y))
549.759 7.24 6.76 6 5.52 4.53 3.28 2.37 1.88 1.47 0.9088
569.049 0.6005 0.5237 0.9216 1.0734 1.036 1.0268 0.9166 0.8144 0.8385 0.7512
588.339 0.5361 0.6884 0.7537 0.7138 1.0131 1.3 1.35 1.2139 1.2589 1.85
607.628 2.74 4.05 5.86 7.27 7.97 7.95 6.93 5.37 3.69 2.32
626.918 1.65 1.63 1.85 2.31 3.3 4.57 5.94 7.48 9.06 9.16
646.208 8.59 9.29 11.05 13.51 16.04 17.99 18.34 16.86 14.12 10.33
665.498 6.9 4.53 2.97 2.25 1.97 1.8 1.63 1.75 1.85 1.82
684.787 1.76 1.89 2.15 2.29 2.43 2.47 2.61 2.88 2.92 2.82
704.077 2.83 2.73 2.84 3.53 4.93 7.33 11.23 16.06 20.5 23.61
723.367 24.27 24.02 23.23 20.91 17.99 15.65 14.55 15.31 18.17 23.78
742.657 33.4 47.44 66 86.8 101.32 102.05 89.94 71.23 51.46 32.82
761.947 18.45 10.31 6.49 4.7 3.78 3.13 2.7 2.34 2.14 1.92
781.236 1.71 1.61 1.48 1.37 1.2787 1.37 1.6 1.63 1.7 1.98
800.526 2.45 2.99 3.13 3.08 3.14 3.01 2.8 2.78 2.75 2.33
819.816 1.82 1.8 1.62 1.96 2.5 2.37 2.31 2.32 2.15 2.2
839.106 2.2 1.92 1.77 1.65 1.39 1.2082 1.2483 1.37 1.42 1.47
858.395 1.72 1.93 1.9 1.67 1.62 1.63 1.7 1.85 1.78 1.66
877.685 1.53 1.55 1.56 1.37 1.1765 1.29 1.29 1.1365 1.2125 1.2436
896.975 1.2614 1.38 1.41 1.38 1.201 1.0383 1.0813 0.922 0.9419 1.0508
916.265 0.9753 0.8905 0.944 1.0768 1.0765 1.025 1.0893 1.0778 1.1394 1.28
935.555 1.58 1.91 2.19 2.47 2.2 1.85 1.55 1.32 1.41 1.36
954.844 1.38 1.45 1.39 1.41 1.53 1.69 1.67 1.74 1.97 2.18
974.134 2.53 3.02 3.52 3.94 4.38 5.15 6.51 8.9 12.85 18.96
993.424 26.84 33.38 37.63 38.41 34.4 28.25 21.05 15.73 15.36 18.93
1012.714 25.26 33.11 41.05 47.83 48.87 42.63 34.09 24.72 15.31 8.83
1032.003 5.78 4.72 4.81 5.48 6.07 6.65 6.44 5.35 4.42 3.54
1051.293 2.59 2.19 2.28 1.87 1.69 1.91 1.93 2.39 2.92 3.54
1070.583 4.03 3.76 3.26 2.73 2.1 1.68 1.67 1.71 1.49 1.51
1089.873 1.76 2.12 2.46 2.11 1.66 1.77 1.66 1.56 1.4 1.153
1109.163 1.65 2.2 2.66 3 2.68 2.3 1.98 1.51 1.163 1.1107
1128.452 1.0601 0.5285 0.289505 0.5732 0.5911 0.5104 0.6069 0.6428 0.503 0.36414
1147.742 0.6544 1.0677 1.2415 1.0363 1.0807 0.8641 0.5226 0.9628 0.98 0.9469
1167.032 0.8365 0.5779 0.9256 1.0419 0.7667 0.8149 1.1154 1.0916 1.0308 0.9141
1186.322 0.9955 1.1828 1.0994 1.36 1.3 0.7557 0.9274 1.42 1.2055 0.7628
1205.611 1.1377 1.1728 0.8206 0.7788 0.8081 1.0246 0.9967 1.0257 1.1859 1.42
1224.901 1.32 0.9682 0.9835 1.35 1.84 1.83 1.71 1.95 2.25 2.43
1244.191 2.7 3.18 3.94 4.54 5.07 5.54 5.47 4.96 3.78 2.54
1263.481 2 1.68 1.32 1.35 1.47 1.5 1.65 1.81 1.89 2.07
1282.771 2.4 2.57 2.71 2.86 2.84 2.7 2.6 2.45 2.26 2.07
1302.060 2.03 2.01 1.93 1.9 1.77 1.61 1.47 1.3 1.1414 1.0558
1321.350 0.9828 0.8733 0.7172 0.6534 0.7348 0.7026 0.7486 0.7909 0.7676 0.7735
1340.640 0.7741 0.7931 0.8221 0.8368 0.7865 0.7781 0.7899 0.7846 0.8423 0.871
1359.930 0.7999 0.8186 0.881 0.9295 1.0547 1.166 1.183 1.223 1.35 1.48
1379.219 1.56 1.61 1.64 1.66 1.77 1.97 2.18 2.55 3.21 4.12
1398.509 5.3 6.71 8.23 9.8 11.12 11.9 12.06 11.63 10.98 10.53
1417.799 10.84 12.48 15.55 19.84 24.52 28.54 31.09 31.61 29.51 25.22
1437.089 20.78 18.1 17.52 19.44 23.84 30.13 37.19 42.97 46.02 45.15
1456.378 39.74 31.5 23.2 15.76 10.53 7.45 5.81 4.98 4.55 4.36
1475.668 4.38 4.26 4.13 4.07 3.82 3.43 3.07 2.79 2.52 2.25
1494.958 2.13 2.2 2.25 2.28 2.29 2.24 2.08 1.86 1.71 1.53
1514.248 1.3 1.1273 1.0698 1.0137 1.0013 1.0652 1.147 1.1718 1.2088 1.2745
1533.538 1.2531 1.34 1.49 1.58 1.78 2.2 2.81 3.7 4.84 6.29
1552.827 7.92 9.38 10.36 10.65 10.11 8.88 7.25 5.94 5.3 5.38
1572.117 6.08 7.01 7.85 8.34 8.46 8.14 7.49 6.79 6.06 5.48
1591.407 4.97 4.5 4.21 3.97 3.7 3.62 3.65 3.62 3.71 3.84
1610.697 3.87 3.69 3.28 2.8 2.27 1.79 1.48 1.33 1.1588 1.0188
1629.986 1.0145 1.0262 0.9803 0.9194 0.8148 0.7874 0.8094 0.7176 0.6918 0.7745
1649.276 0.7602 0.7024 0.8007 0.9769 1.0402 1.0788 1.1155 1.0913 1.0632 1.0904
1668.566 1.0846 1.1 1.1558 1.1783 1.29 1.41 1.56 1.76 2.02 2.32
1687.856 2.58 2.92 3.06 2.97 2.71 2.34 1.99 1.65 1.37 1.1795
1707.146 1.1695 1.2012 1.29 1.42 1.49 1.57 1.58 1.62 1.61 1.42
1726.435 1.3 1.1762 1.0123 0.8517 0.6865 0.6162 0.5899 0.6512 0.7038 0.5793
1745.725 0.5573 0.5893 0.5812 0.6466 0.6684 0.6399 0.6264 0.6112 0.6236 0.6731
1765.015 0.6616 0.6545 0.7111 0.7649 0.8374 0.9361 0.9653 0.9535 1.0533 1.2437
1784.305 1.47 1.76 2.1 2.57 3.09 3.54 3.82 3.89 3.74 3.33
1803.594 2.76 2.24 1.77 1.43 1.222 1.1512 1.1812 1.2295 1.32 1.49
1822.884 1.69 1.9 2.11 2.31 2.46 2.4 2.26 1.99 1.62 1.33
1842.174 1.0466 0.8935 0.8135 0.7017 0.6599 0.6928 0.7266 0.7323 0.7315 0.7434
1861.464 0.7282 0.7439 0.8137 0.9255 1.0963 1.29 1.48 1.7 1.95 2.14
1880.754 2.24 2.22 2.04 1.74 1.5 1.3 1.1497 1.1739 1.257 1.45
1900.043 1.77 2.2 2.78 3.45 4.07 4.59 4.9 4.84 4.45 3.83
1919.333 3.03 2.28 1.78 1.48 1.34 1.37 1.49 1.65 1.9 2.18
1938.623 2.58 3.07 3.43 3.72 3.87 3.78 3.42 2.83 2.21 1.69
1957.913 1.32 1.0604 0.9136 0.8518 0.8166 0.8056 0.7994 0.7374 0.6953 0.7003
1977.202 0.6939 0.6696 0.5985 0.549 0.5514 0.6023 0.6401 0.638 0.6102 0.639
1996.492 0.6598 0.6196 0.6133 0.6201 0.6324 0.6448 0.6229 0.7019 0.7868 0.825
2015.782 0.8415 0.7903 0.751 0.7202 0.7005 0.6939 0.6977 0.686 0.6543 0.6527
2035.072 0.6679 0.6662 0.6801 0.6644 0.611 0.5358 0.5625 0.6029 0.4981 0.4645
2054.362 0.5567 0.602 0.5626 0.5341 0.519 0.5155 0.556 0.5516 0.5234 0.525
2073.651 0.4675 0.4498 0.5266 0.5697 0.5305 0.5448 0.5532 0.5468 0.5603 0.5558
2092.941 0.5617 0.5704 0.5757 0.5386 0.5396 0.5029 0.5502 0.636 0.6335 0.5776
2112.231 0.4911 0.5388 0.5307 0.5018 0.5181 0.5251 0.5137 0.4928 0.5181 0.5345
2131.521 0.496 0.4566 0.4891 0.4793 0.4848 0.4971 0.459 0.4295 0.4371 0.5406
2150.810 0.516 0.4264 0.4677 0.4799 0.4908 0.4882 0.4695 0.5039 0.5308 0.4908
2170.100 0.4868 0.5181 0.5287 0.5162 0.4788 0.4735 0.4817 0.5041 0.5477 0.5322
2189.390 0.4499 0.4425 0.3988 0.3891 0.5037 0.4695 0.4435 0.4809 0.4754 0.5124
2208.680 0.5358 0.5244 0.5428 0.5933 0.605 0.5658 0.615 0.6009 0.5239 0.5839
2227.970 0.6727 0.7389 0.7642 0.7113 0.6396 0.6378 0.5965 0.5367 0.5025 0.4976
2247.259 0.5241 0.5106 0.5234 0.4985 0.5134 0.5466 0.5498 0.5586 0.5693 0.6009
2266.549 0.6179 0.7087 0.7889 0.8235 0.8507 0.894 0.8816 0.8059 0.759 0.7457
2285.839 0.7031 0.6148 0.6095 0.7017 0.7828 0.7376 0.6991 0.7779 0.8013 0.8263
2305.129 0.8358 0.8353 0.8442 0.8674 0.9812 1.0282 1.1151 1.2712 1.38 1.41
2324.418 1.36 1.32 1.227 1.0927 0.9141 0.7706 0.6796 0.6101 0.5666 0.513
2343.708 0.555 0.5849 0.5271 0.4891 0.4783 0.5036 0.5138 0.4567 0.5259 0.6022
2362.998 0.5522 0.5068 0.5035 0.4835 0.4818 0.5223 0.4983 0.4669 0.5048 0.5208
2382.288 0.5491 0.5225 0.5106 0.5528 0.6026 0.6158 0.5879 0.591 0.5314 0.6147
2401.578 0.759 0.7596 0.7612 0.7651 0.7493 0.7999 0.8505 0.885 0.8579 0.814
2420.867 0.8102 0.7457 0.651 0.6311 0.5966 0.5591 0.5674 0.5257 0.5885 0.6311
2440.157 0.5804 0.5851 0.6549 0.7277 0.6973 0.6058 0.5367 0.5348 0.5566 0.5481
2459.447 0.5457 0.5004 0.564 0.6107 0.5652 0.5703 0.5099 0.4903 0.5139 0.5423
2478.737 0.5673 0.5493 0.578 0.6225 0.6053 0.6173 0.656 0.6421 0.6875 0.7744
2498.026 0.827 0.8022 0.7005 0.7282 0.7493 0.686 0.6957 0.7685 0.7496 0.7424
2517.316 0.759 0.6805 0.6391 0.6883 0.7048 0.6844 0.7264 0.6912 0.6748 0.6766
2536.606 0.6756 0.7648 0.8692 0.9455 0.9076 0.8873 0.8698 0.8285 0.7975 0.8439
2555.896 0.8815 0.8123 0.8202 0.8327 0.831 0.8633 0.8712 0.8709 0.9106 0.9534
2575.186 0.9674 0.9601 0.9753 0.9692 0.9132 0.8848 0.9423 0.9493 0.886 0.8869
2594.475 0.8822 0.8231 0.8086 0.795 0.7234 0.6601 0.6021 0.5699 0.6035 0.6245
2613.765 0.6345 0.6042 0.5445 0.5212 0.5274 0.4806 0.4098 0.4329 0.5318 0.6006
2633.055 0.5526 0.4804 0.3827 0.4032 0.4845 0.458 0.4544 0.4549 0.4465 0.4574
2652.345 0.4466 0.4896 0.5288 0.4486 0.35616 0.4065 0.4169 0.4414 0.5217 0.4721
2671.634 0.3944 0.36102 0.4139 0.501 0.5091 0.4859 0.4674 0.4332 0.44 0.36605
2690.924 0.35906 0.5251 0.5432 0.5417 0.5379 0.4036 0.3987 0.4287 0.4577 0.4004
2710.214 0.3408 0.4465 0.4568 0.4261 0.4315 0.432 0.4453 0.4708 0.4674 0.421
2729.504 0.4298 0.4599 0.4727 0.5113 0.5232 0.4407 0.36044 0.4187 0.4716 0.4521
2748.794 0.4914 0.5247 0.4951 0.37713 0.3017 0.32946 0.37475 0.3822 0.35722 0.36752
2768.083 0.34681 0.32647 0.3271 0.32304 0.36075 0.4014 0.36788 0.32291 0.4351 0.5052
2787.373 0.5051 0.5864 0.5452 0.4469 0.4365 0.4959 0.5294 0.443 0.4578 0.4849
2806.663 0.4951 0.5096 0.4358 0.4659 0.4881 0.4665 0.5303 0.5838 0.5398 0.5072
2825.953 0.5087 0.553 0.532 0.5233 0.6128 0.7235 0.7013 0.5923 0.7326 0.839
2845.242 0.7073 0.6708 0.7367 0.7775 0.7503 0.6634 0.6068 0.5933 0.6585 0.6482
2864.532 0.5588 0.5777 0.5997 0.5808 0.5377 0.5486 0.5736 0.5071 0.4533 0.4901
2883.822 0.4729 0.4848 0.5314 0.5175 0.4987 0.4596 0.4734 0.5836 0.6351 0.4808
2903.112 0.37064 0.4689 0.5374 0.451 0.4516 0.5829 0.5437 0.35451 0.281686 0.36348
2922.401 0.415 0.37859 0.34469 0.3854 0.4757 0.5033 0.4491 0.4849 0.5784 0.5593
2941.691 0.5478 0.529 0.4791 0.515 0.6617 0.8487 0.8512 0.8829 1.0049 0.9349
2960.981 0.8396 0.8733 1.011 1.0457 0.9516 0.9723 1.0648 1.1046 1.0838 1.1552
2980.271 1.2172 1.1562 1.1345 1.1572 1.28 1.44 1.56 1.68 1.8 2.05
2999.561 2.29 2.48 2.8 2.95 3.06 3.16 3.18 3.25 3.3 3.35
3018.850 3.48 3.57 3.56 3.51 3.33 3.2 3.11 3.17 3.36 3.65
3038.140 4.09 4.82 5.8 7.01 8.68 10.84 13.79 17.39 21.24 25.05
3057.430 28.01 29.68 29.98 29.04 27.87 27.06 26.85 27.15 27.21 26.48
3076.720 24.56 21.76 18.89 16.15 13.48 11.11 9.14 7.55 6.12 4.88
3096.009 4.12 3.75 3.69 3.7 3.71 3.96 4.23 4.48 4.83 5.11
3115.299 5.24 5.2 5.04 4.7 4.3 3.69 2.87 2.21 1.71 1.37
3134.589 1.2282 1.1369 0.9568 0.9319 1.0615 1.0451 0.93 0.8013 0.7427 0.7439
3153.879 0.7293 0.6289 0.635 0.6942 0.6513 0.6226 0.6819 0.668 0.5984 0.6068
3173.169 0.516 0.4325 0.4139 0.4847 0.5612 0.5067 0.5031 0.5414 0.5791 0.5698
3192.458 0.5713 0.5104 0.4346 0.4198 0.37821 0.4276 0.4704 0.4726 0.5263 0.5128
3211.748 0.4597 0.5151 0.4826 0.34046 0.31153 0.30493 0.37057 0.3854 0.4948 0.5519
3231.038 0.3993 0.4167 0.4245 0.32763 0.1825 0.2373 0.2482 0.1893 0.288921 0.4497
3250.328 0.5537 0.4671 0.3992 0.4388 0.418 0.4596 0.3827 0.17 0.219 0.4122
3269.617 0.5323 0.5162 0.5062 0.5013 0.35577 0.30234 0.4085 0.4699 0.4996 0.4341
3288.907 0.32197 0.36516 0.4318 0.4364 0.4424 0.4577 0.4514 0.3842 0.4597 0.5269
3308.197 0.5009 0.4392 0.4519 0.5344 0.4785 0.4488 0.286847 0.2053 0.32426 0.29983
3327.487 0.2419 0.2493 0.152 0.128 0.31891 0.3889 0.3212 0.32262 0.2448 0.2627
3346.777 0.478 0.5227 0.4337 0.4422 0.4093 0.3061 0.32378 0.4137 0.406 0.3023
3366.066 0.30979 0.30409 0.2257 0.28448 0.29749 0.235 0.31384 0.35409 0.35619 0.35518
3385.356 0.36686 0.3888 0.33864 0.315 0.30556 0.35802 0.5298 0.5063 0.34597 0.35152
3404.646 0.4146 0.4075 0.4459 0.5772 0.4938 0.35878 0.36606 0.2622 0.27081 0.3838
3423.936 0.36251 0.36482 0.35735 0.32967 0.34208 0.2513 0.161 0.2284 0.1841 0.098
3443.225 0.33842 0.5319 0.3917 0.4332 0.4584 0.32094 0.31608 0.27241 0.2339 0.179
3462.515 0.171 0.2152 0.2083 0.162 0.143 0.2396 0.29668 0.2231 0.156 0.35634
3481.805 0.35954 0.1922 0.269 0.35807 0.2285 0.109 0.174 0.2007 0.1869 0.35611
3501.095 0.4063 0.34098 0.2308 0 0.164 0.32481 0.33009 0.33417 0.2272 0.2419
3520.385 0.31081 0.33688 0.30893 0.2418 0.32374 0.33977 0.2506 0.27469 0.30059 0.33431
3539.674 0.28255 0.1856 0.233 0.3377 0.36698 0.32609 0.37791 0.4557 0.3866 0.33633
3558.964 0.2283 0.163 0.1837 0.165 0.36031 0.4173 0.34113 0.33027 0.33472 0.5045
3578.254 0.544 0.4465 0.33102 0.31408 0.5586 0.5328 0.465 0.4984 0.4344 0.2432
3597.544 0.08 0.165 0.2637 0.32548 0.3547 0.27245 0.34267 0.4387 0.279385 0.258
3616.833 0.35254 0.27427 0.2388 0.32277 0.2765 0.30726 0.29899 0.31539 0.3902 0.4419
3636.123 0.4699 0.4164 0.37355 0.387 0.4255 0.4675 0.6262 0.5317 0.413 0.3922
3655.413 0.4726 0.6248 0.6218 0.4436 0.3983 0.5573 0.5792 0.4961 0.4505 0.5149
3674.703 0.4626 0.4277 0.5854 0.7633 0.6952 0.4869 0.4373 0.4654 0.4136 0.4592
3693.993 0.6374 0.6865 0.6358 0.5952 0.5693 0.4793 0.4557 0.5866 0.5567 0.622
3713.282 0.7239 0.6216 0.6356 0.8227 0.8644 0.7919 0.95 0.8752 0.6705 0.6161
3732.572 0.613 0.6735 0.6471 0.5412 0.4517 0.4042 0.3911 0.4084 0.4489 0.5703
3751.862 0.6623 0.526 0.3878 0.29748 0.1904 0.117 0.047 0.2088 0.2248 0.1967
3771.152 0.30397 0.32066 0.29655 0.3932 0.4272 0.34154 0.4266 0.4759 0.4678 0.3571
3790.441 0.32324 0.35195 0.4672 0.6356 0.5367 0.4334 0.5156 0.668 0.6017 0.6382
3809.731 0.8344 0.7326 0.6072 0.5999 0.5769 0.4932 0.5378 0.7183 0.7179 0.6678
3829.021 0.6162 0.5951 0.5509 0.6329 0.6768 0.4647 0.4992 0.4879 0.34817 0.3988
3848.311 0.3829 0.33354 0.33747 0.37905 0.5279 0.5694 0.4646 0.4915 0.5179 0.4195
3867.601 0.4212 0.31002 0.158 0.154 0.163 0.2128 0.2249 0.2197 0.289514 0.35922
3886.890 0.29591 0.2201 0.2038 0.1975 0.2504 0.37716 0.3822 0.204 0.2105 0.2053
3906.180 0.27465 0.4044 0.3833 0.4478 0.4206 0.2818 0.134 0.1854 0.30139 0.154
3925.470 0.2022 0.35968 0.2107 0.2503 0.3975 0.285303 0.2366 0.37743 0.33508 0.2054
3944.760 0.2655 0.280684 0.172 0.16 0.35961 0.4721 0.4966 0.4344 0.32896 0.2674
3964.049 0.30775 0.4053 0.3817 0.29553 0.234 0.30628 0.37459 0.3941 0.411 0.3819
3983.339 0.31511 0.32579 0.4434 0.37507 0.2504 0.30416 0.2359 0.161 0.119 0.1848
##END=
