##TITLE=3-Diethylamino-1-phenylpropane
##JCAMP-DX=4.24
##DATA TYPE=INFRARED SPECTRUM
##ORIGIN=EPA-IR VAPOR PHASE LIBRARY
##OWNER=SRD/NIST
Collection (C) 2018 copyright by the U.S. Secretary of Commerce
on behalf of the United States of America. All rights reserved.
##CAS REGISTRY NO=22396-72-1
##MOLFORM=C 13 H 17 N
##$NIST SOURCE=MSDC-IR
##STATE=gas
##XUNITS=1/CM
##YUNITS=ABSORBANCE
##XFACTOR=1.
##YFACTOR=0.001
##DELTAX=1.92898
##FIRSTX=549.8
##LASTX=4000.7
##FIRSTY=1.8294
##MAXX=4000.7
##MINX=549.759
##MAXY=0.0667494
##MINY=0
##NPOINTS=1790
##XYDATA=(X++(Y..Y))
549.759 1.8294 2.0294 1.8694 1.4994 1.3294 1.4294 1.6494 1.7494 1.6194 1.5894
569.049 1.7094 1.5594 1.5094 1.6694 1.6194 1.7394 2.0594 2.2594 2.4294 2.6894
588.339 3.0994 3.7894 4.2694 4.2094 4.1694 4.3994 4.5894 4.5594 4.2294 4.1894
607.628 4.4594 4.3194 4.4694 4.5794 4.3594 4.2994 4.0994 4.0694 4.0294 3.6994
626.918 3.2294 2.7894 2.6494 2.4294 2.1594 2.0794 2.0894 2.1794 2.2794 2.3594
646.208 2.1894 2.1094 2.0894 2.2694 2.5394 2.6194 2.8894 3.4994 3.8994 4.2994
665.498 5.1194 5.8894 6.6794 7.7394 8.8294 9.7194 10.8494 11.9994 12.6994 13.5694
684.787 14.7994 16.0094 16.7594 16.4994 15.6694 14.8694 14.2494 13.6094 12.6294 11.6094
704.077 10.5694 9.4294 8.4794 7.7494 7.1494 6.4194 5.8194 5.6594 5.7594 5.7894
723.367 5.9494 6.3094 6.6894 7.3894 8.4894 9.9094 11.5594 13.4194 15.2594 17.1894
742.657 19.3394 21.2794 23.1894 25.0394 26.9594 28.8494 29.1094 27.5294 25.6494 24.2794
761.947 22.9594 21.1594 19.0994 16.9494 14.5894 12.3994 10.5494 8.8394 7.5494 6.5994
781.236 5.7394 5.1794 4.8694 4.4894 4.1194 4.0594 4.1594 4.1294 4.0994 4.0994
800.526 3.9594 4.0394 4.2094 4.2394 4.1594 4.0094 3.8694 3.6994 3.4594 3.0194
819.816 2.8694 2.9294 2.5394 2.1794 1.9994 1.8394 1.7694 1.6694 1.5594 1.6494
839.106 1.7194 1.5994 1.6194 1.5294 1.4394 1.5694 1.5794 1.5594 1.5794 1.4994
858.395 1.5194 1.5894 1.5894 1.5894 1.5594 1.5894 1.5294 1.5094 1.6594 1.8394
877.685 1.8994 1.9994 2.0394 2.1694 2.4694 2.6894 2.9394 3.0494 3.1394 3.3394
896.975 3.4294 3.7194 3.8294 3.6494 3.6794 3.6794 3.7094 3.6694 3.3994 3.2494
916.265 3.0494 2.8494 2.9094 2.9294 2.7994 2.6794 2.6794 2.7494 2.9694 3.3694
935.555 3.8094 4.2694 4.6294 4.8594 5.0794 5.1994 5.0594 4.7794 4.3494 4.0094
954.844 4.0594 4.0994 4.0494 4.1894 4.2894 4.1894 4.2294 4.5494 4.9494 5.0394
974.134 5.3394 5.8494 5.9494 5.9994 5.9094 5.6694 5.3194 4.9794 4.8694 4.6794
993.424 4.2694 3.8394 3.6894 3.5994 3.4894 3.5294 3.5594 3.4794 3.4894 3.5894
1012.714 3.2894 3.4094 4.1594 4.8794 5.6594 6.6394 7.5094 7.9194 8.2794 8.7394
1032.003 8.6694 8.3294 8.3894 8.3194 8.4094 9.2494 10.2294 11.1094 12.2994 13.5394
1051.293 15.1094 16.7294 18.1394 19.3394 19.9694 20.4894 20.7694 20.8594 20.5594 19.9394
1070.583 19.1994 18.6494 18.1794 17.6094 16.9694 16.4394 16.2094 16.1794 15.7594 15.5194
1089.873 15.6394 15.5994 15.3394 14.4394 13.3494 12.8694 12.4294 11.7894 11.2894 10.8494
1109.163 10.8994 11.0394 10.3594 9.5994 9.3994 9.6094 9.8094 9.5294 9.0494 8.5494
1128.452 8.2094 7.8394 7.7194 7.5594 7.1294 7.3294 7.4794 7.2994 7.5494 7.9094
1147.742 8.2794 8.5294 8.8594 9.6294 9.9494 9.8694 10.1294 10.3994 10.4994 10.7494
1167.032 10.7094 10.5494 10.6194 10.2794 9.9194 9.7894 9.5094 9.1294 8.8494 9.0494
1186.322 9.2194 9.5894 10.4994 11.4994 12.2594 12.9794 14.0094 14.5394 14.2494 13.6994
1205.611 12.9694 11.9894 10.8994 9.7394 9.0194 8.4394 7.5394 6.7794 6.1894 5.6794
1224.901 5.3994 5.5094 5.7294 5.7194 5.8294 6.1894 6.6894 7.7094 8.6894 9.3294
1244.191 10.2594 11.2294 11.6194 11.4694 11.0994 10.3294 9.5394 8.8894 8.1094 7.5794
1263.481 7.2794 6.9894 6.7394 6.7994 6.9594 7.0294 7.2494 7.6294 8.0094 8.3294
1282.771 8.6894 9.0494 9.2694 9.4994 9.7694 9.9794 10.2994 10.7394 11.0694 11.4994
1302.060 12.1794 13.0294 14.2394 15.8694 17.8894 20.5494 23.9694 27.7794 31.4194 34.0294
1321.350 35.2294 35.0494 33.4694 30.8494 27.7594 24.8194 22.3794 20.5094 19.2594 18.6794
1340.640 18.5594 18.7794 19.2094 19.7294 20.2694 20.7294 21.1294 21.3394 21.3294 21.1994
1359.930 20.8194 20.2494 19.7194 19.4594 19.4594 19.6894 20.0894 20.5094 20.8294 20.9494
1379.219 20.7394 20.3694 19.8594 19.1294 18.2194 17.1194 15.8494 14.4094 12.7994 11.2394
1398.509 9.8194 8.6394 7.6694 6.8094 6.1594 5.6594 5.2994 5.0494 4.8994 4.8694
1417.799 4.9594 5.1894 5.5594 5.9894 6.5194 7.1694 7.8494 8.5094 9.1794 9.8594
1437.089 10.4494 10.8494 11.0694 11.2294 11.3594 11.4494 11.5394 11.6094 11.6694 11.6994
1456.378 11.7694 11.9094 11.9294 11.9094 11.8694 11.7794 11.6494 11.4794 11.4494 11.7394
1475.668 12.2994 13.3594 15.0494 17.5194 20.6794 23.9094 26.1294 26.6794 25.6094 23.2094
1494.958 19.6194 15.2794 11.5594 9.1694 7.8994 7.1094 6.4594 5.8494 5.1994 4.5194
1514.248 3.8194 3.3194 2.9394 2.6594 2.4894 2.4194 2.2994 2.1494 2.0994 2.0394
1533.538 1.9894 1.9494 1.8994 1.8594 1.8094 1.7594 1.7794 1.8094 1.7894 1.7794
1552.827 1.8094 1.8494 1.8294 1.8694 1.9594 2.0994 2.2894 2.4294 2.5094 2.6194
1572.117 2.8594 3.1194 3.3494 3.6994 4.1394 4.6494 5.2894 6.0894 7.1894 8.4894
1591.407 9.6994 10.6994 11.3994 11.6194 11.4494 10.7694 9.6294 8.3394 6.9194 5.5094
1610.697 4.2294 3.1194 2.4294 2.0094 1.7594 1.6094 1.4194 1.3694 1.3494 1.2994
1629.986 1.2794 1.2494 1.2694 1.2294 1.1894 1.2194 1.2694 1.3294 1.3394 1.4694
1649.276 1.6194 1.7094 1.8094 1.9294 2.1294 2.3594 2.4594 2.5194 2.4994 2.3094
1668.566 2.0394 1.7694 1.5794 1.5194 1.3794 1.2394 1.1894 1.1394 1.0184 0.9904
1687.856 1.0485 1.0042 0.9081 0.8958 0.8341 0.814 0.8436 0.7944 0.7948 0.8477
1707.146 0.846 0.8568 0.8747 0.909 0.9998 0.9764 0.9671 1.0466 1.1294 1.2394
1726.435 1.2894 1.2394 1.2694 1.3494 1.3494 1.3194 1.2994 1.2894 1.2794 1.2794
1745.725 1.2594 1.1994 1.1594 1.1194 1.1094 1.1294 1.0759 0.9856 0.9364 0.897
1765.015 0.9299 0.9771 0.9874 1.0086 1.0396 1.1594 1.2794 1.3594 1.4194 1.4894
1784.305 1.6494 1.8194 1.9594 2.0894 2.2594 2.2894 2.1894 2.1094 1.9394 1.6894
1803.594 1.5294 1.3994 1.3094 1.3294 1.3594 1.4294 1.4794 1.4194 1.3394 1.2694
1822.884 1.2194 1.0894 1.0172 0.9775 0.9328 0.9146 0.8713 0.9004 0.9699 0.941
1842.174 0.8967 0.933 0.975 1.0376 1.0644 1.0743 1.0994 1.2094 1.3394 1.3594
1861.464 1.3994 1.4394 1.4194 1.4694 1.5994 1.6194 1.5994 1.7194 1.8294 1.9094
1880.754 2.0394 2.1194 2.1494 2.1094 1.9894 1.8094 1.5694 1.3594 1.1794 0.981
1900.043 0.8853 0.8525 0.8362 0.8299 0.8415 0.8952 0.9098 0.9477 0.996 1.0839
1919.333 1.1894 1.2394 1.3194 1.4194 1.4994 1.6094 1.7094 1.7694 1.8594 1.9594
1938.623 2.0394 2.1294 2.1894 2.2294 2.2794 2.3894 2.3994 2.3794 2.4194 2.3794
1957.913 2.2294 1.9994 1.7594 1.4694 1.1594 0.9667 0.8472 0.7677 0.7081 0.5913
1977.202 0.5857 0.6364 0.5276 0.4911 0.4957 0.4858 0.5387 0.5181 0.5147 0.5201
1996.492 0.4598 0.3939 0.3927 0.4093 0.4305 0.4474 0.4067 0.4044 0.4232 0.4752
2015.782 0.4811 0.4174 0.3886 0.3945 0.4153 0.398 0.3552 0.3822 0.4867 0.4976
2035.072 0.3921 0.3791 0.4202 0.4325 0.4287 0.4121 0.3988 0.3838 0.4012 0.4519
2054.362 0.4579 0.442 0.4686 0.4784 0.5119 0.5733 0.602 0.5447 0.5181 0.5473
2073.651 0.5128 0.5453 0.6072 0.5651 0.5315 0.5241 0.5154 0.5066 0.501 0.4799
2092.941 0.4337 0.4186 0.4603 0.4797 0.4303 0.4296 0.4166 0.3767 0.442 0.509
2112.231 0.5168 0.4932 0.4887 0.4695 0.5009 0.6024 0.5391 0.5048 0.5051 0.4859
2131.521 0.508 0.5099 0.5302 0.4836 0.4779 0.541 0.5792 0.5723 0.5507 0.5393
2150.810 0.4988 0.5047 0.5677 0.5855 0.5976 0.6536 0.6655 0.6376 0.6364 0.6262
2170.100 0.6737 0.727 0.6657 0.6448 0.6353 0.602 0.5978 0.6218 0.6327 0.5628
2189.390 0.571 0.5808 0.5819 0.5839 0.5432 0.5214 0.5357 0.583 0.6115 0.6455
2208.680 0.6299 0.6148 0.6357 0.6276 0.5829 0.5604 0.545 0.5823 0.6664 0.6621
2227.970 0.6524 0.7083 0.7565 0.778 0.7378 0.6823 0.6342 0.6212 0.6624 0.6598
2247.259 0.6675 0.6927 0.6673 0.6587 0.6479 0.6432 0.6484 0.6946 0.7458 0.6962
2266.549 0.6939 0.731 0.7703 0.7798 0.7908 0.732 0.665 0.6654 0.6117 0.6018
2285.839 0.5849 0.5799 0.5689 0.5579 0.606 0.6202 0.5772 0.5207 0.4697 0.4704
2305.129 0.5725 0.7345 0.8737 0.9404 0.996 0.971 0.9205 0.9046 0.8484 0.7565
2324.418 0.6841 0.6975 0.7224 0.678 0.6931 0.7472 0.7744 0.7972 0.7398 0.7143
2343.708 0.7101 0.7154 0.7715 0.7455 0.7376 0.7358 0.7275 0.7601 0.7378 0.7337
2362.998 0.7468 0.7475 0.7239 0.6323 0.6294 0.6553 0.68 0.7086 0.6775 0.656
2382.288 0.6843 0.6905 0.6774 0.6654 0.6246 0.6358 0.6491 0.6625 0.6801 0.6514
2401.578 0.6354 0.6389 0.6624 0.7234 0.6829 0.6211 0.5951 0.6444 0.6858 0.6562
2420.867 0.7246 0.8204 0.7987 0.7945 0.7808 0.7113 0.71 0.7744 0.7422 0.681
2440.157 0.6215 0.6353 0.6876 0.6288 0.6246 0.6362 0.6417 0.6485 0.6166 0.571
2459.447 0.5804 0.5533 0.5967 0.6342 0.574 0.5246 0.5435 0.5264 0.4954 0.5464
2478.737 0.5334 0.4744 0.4677 0.5956 0.5968 0.522 0.5433 0.5495 0.5645 0.5606
2498.026 0.5799 0.6337 0.6698 0.6755 0.6298 0.6108 0.6711 0.6782 0.6309 0.6733
2517.316 0.6876 0.6596 0.6626 0.692 0.7145 0.7295 0.8484 0.8561 0.7688 0.7685
2536.606 0.7924 0.8085 0.8208 0.8815 0.9209 0.9266 0.9198 0.9197 0.9366 0.9915
2555.896 1.0529 1.0423 1.0501 1.0361 0.9838 1.0265 1.0894 1.0894 1.0732 1.0693
2575.186 1.1494 1.2494 1.2294 1.2594 1.3094 1.3494 1.3694 1.4194 1.3694 1.2594
2594.475 1.3194 1.3794 1.4594 1.4294 1.3394 1.3994 1.5194 1.5694 1.5394 1.5494
2613.765 1.5494 1.5094 1.5794 1.6494 1.5894 1.5594 1.6094 1.6394 1.6594 1.6594
2633.055 1.6494 1.6994 1.7394 1.7494 1.8594 1.8794 1.8894 1.9694 1.9194 1.9394
2652.345 2.0994 2.1694 2.1394 2.1694 2.1494 2.1194 2.1894 2.2394 2.3294 2.3894
2671.634 2.3594 2.4094 2.5894 2.7494 2.8194 2.8694 2.9194 2.9794 3.0894 3.1494
2690.924 3.2294 3.3894 3.4194 3.5894 3.7994 3.8994 4.0094 4.0394 4.0094 4.0694
2710.214 4.2394 4.3894 4.5294 4.6194 4.6694 4.6894 4.7494 4.8694 4.9494 5.0094
2729.504 5.1194 5.1694 5.2794 5.4394 5.5594 5.6094 5.6494 5.7294 5.9294 6.1294
2748.794 6.2694 6.5594 6.8594 7.1394 7.4194 7.7494 8.0094 8.3294 8.6694 9.0394
2768.083 9.4394 9.8294 10.3294 10.8794 11.5094 12.1794 12.9194 13.6894 14.4294 15.2094
2787.373 16.0294 16.7094 17.4194 18.2194 18.9694 19.6894 20.3794 20.8794 21.3594 21.8994
2806.663 22.3694 22.7394 23.1194 23.7394 24.3994 25.0594 25.7494 26.5194 27.3594 28.0394
2825.953 28.5694 28.8694 28.7294 28.2594 27.2794 25.9394 24.6894 23.4294 21.9594 20.5594
2845.242 19.4194 18.3594 17.3694 16.5594 16.0094 15.6194 15.1794 14.7894 14.6794 14.7894
2864.532 14.8694 15.0194 15.4294 15.9694 16.6594 17.5294 18.5094 19.4594 20.3394 20.9794
2883.822 21.4094 21.6294 21.5294 21.3194 21.0294 20.6694 20.5394 20.4394 20.5394 20.9394
2903.112 21.1894 21.5894 22.2294 22.7994 23.3694 24.1094 25.0494 26.0794 27.2794 28.7594
2922.401 30.3594 32.2294 34.2994 36.3094 38.4594 40.6394 42.5494 44.3294 45.7594 46.5294
2941.691 46.6194 45.9794 44.6794 42.8894 40.8494 38.6694 36.6994 35.3694 34.8394 35.1594
2960.981 36.3394 38.4894 41.6794 45.8894 50.7494 55.8494 60.6394 64.4994 66.7494 66.6294
2980.271 63.9794 59.2294 52.9994 45.9194 38.7894 32.5494 27.2594 22.8094 19.2894 16.6494
2999.561 14.7894 13.3094 12.0594 11.1394 10.5394 10.0794 9.6794 9.3994 9.2194 9.0494
3018.850 9.0294 9.0794 9.1194 9.2694 9.5194 10.0594 10.7394 11.3794 12.0094 12.3694
3038.140 12.4094 12.1694 11.5694 10.8694 10.2694 9.7794 9.6594 10.1694 11.0494 12.2594
3057.430 13.7494 15.3294 17.0194 18.6894 20.1194 21.0594 21.1594 20.3594 19.1694 17.9094
3076.720 16.3694 14.7794 13.7694 13.2894 13.0594 12.8394 12.6294 12.4394 12.1394 11.7694
3096.009 11.2594 10.5694 9.9594 9.3094 8.5394 7.7694 6.9094 6.0694 5.2594 4.4894
3115.299 3.8994 3.4394 3.0594 2.7094 2.4394 2.3194 2.0894 1.9294 2.0494 1.9094
3134.589 1.7594 1.8694 1.7994 1.6994 1.7994 1.9194 1.8694 1.7094 1.5894 1.5794
3153.879 1.5694 1.5594 1.5294 1.4694 1.4194 1.4694 1.4394 1.3494 1.4094 1.4694
3173.169 1.3494 1.1994 1.1094 1.0994 1.2094 1.2294 1.1894 1.2094 1.1294 1.1194
3192.458 1.0456 0.9661 1.0324 1.1494 1.1094 0.9825 0.8927 0.8271 0.8703 0.8511
3211.748 0.7387 0.6444 0.6833 0.7087 0.7295 0.8041 0.8054 0.6011 0.5372 0.6949
3231.038 0.6142 0.5189 0.5976 0.5888 0.5016 0.4962 0.5668 0.5105 0.4737 0.4263
3250.328 0.3688 0.4639 0.3366 0.2229 0.4787 0.5571 0.4688 0.5269 0.4524 0.3759
3269.617 0.2968 0.2927 0.3881 0.4801 0.4835 0.4003 0.4655 0.4082 0.3486 0.4031
3288.907 0.3854 0.394 0.4441 0.454 0.3707 0.3143 0.3242 0.2947 0.3122 0.3524
3308.197 0.3473 0.3701 0.2482 0.1897 0.3656 0.4091 0.3114 0.2479 0.3097 0.3796
3327.487 0.4242 0.4529 0.3933 0.3136 0.3578 0.4409 0.3951 0.3064 0.2893 0.311
3346.777 0.2409 0.2309 0.2765 0.2842 0.3653 0.3486 0.3558 0.3549 0.2895 0.3293
3366.066 0.4468 0.4017 0.1938 0.1916 0.1971 0.1974 0.2667 0.17462 0.0702 0.0384
3385.356 0.0468 0.15377 0.16507 0.2465 0.3119 0.2942 0.3489 0.2394 0.11213 0.18851
3404.646 0.2935 0.2648 0.3578 0.3604 0.2982 0.3447 0.2863 0.2445 0.3343 0.3903
3423.936 0.3793 0.3178 0.2777 0.3235 0.342 0.3823 0.3719 0.3733 0.4264 0.3022
3443.225 0.2232 0.2616 0.18793 0.2027 0.3046 0.2675 0.11125 0.097917 0.2035 0.2736
3462.515 0.3899 0.2857 0.0903771 0.12788 0.13306 0.1626 0.11914 0.1534 0.3237 0.247
3481.805 0.12999 0.10131 0.219 0.3042 0.2778 0.2917 0.1932 0.13322 0.16998 0.2763
3501.095 0.26 0.2045 0.2855 0.2172 0.2388 0.3606 0.2173 0.11577 0.16109 0.2706
3520.385 0.383 0.4097 0.4029 0.2891 0.2358 0.17594 0.2232 0.3408 0.3444 0.2
3539.674 0.12106 0.2081 0.2521 0.354 0.4028 0.2953 0.13439 0.0279 0.11343 0.2763
3558.964 0.2393 0.2239 0.15631 0.15073 0.2134 0.15308 0.15671 0.3051 0.3113 0.213
3578.254 0.2323 0.2452 0.18582 0.2157 0.3497 0.3329 0.3092 0.3157 0.2976 0.2649
3597.544 0.2371 0.17588 0.15994 0.2593 0.2381 0.095492 0.092437 0.10269 0.17389 0.2516
3616.833 0.12917 0 0.0538 0.08235 0.14383 0.2108 0.197 0.2715 0.2756 0.2518
3636.123 0.3065 0.3266 0.3423 0.3672 0.3769 0.2889 0.2486 0.4028 0.4902 0.3671
3655.413 0.2631 0.3363 0.288 0.2874 0.3772 0.3967 0.3354 0.333 0.3059 0.3364
3674.703 0.3546 0.263 0.2669 0.2601 0.2306 0.2252 0.2488 0.2387 0.2409 0.2422
3693.993 0.2627 0.2363 0.3324 0.4387 0.2718 0.2618 0.3593 0.3529 0.3591 0.2972
3713.282 0.2503 0.2589 0.2387 0.3174 0.2642 0.08539 0.18464 0.3999 0.4976 0.3936
3732.572 0.3086 0.3031 0.2882 0.4414 0.3683 0.16759 0.2267 0.276 0.16894 0.17957
3751.862 0.2815 0.3223 0.332 0.4513 0.451 0.313 0.368 0.4345 0.3691 0.2848
3771.152 0.3624 0.4386 0.3293 0.3558 0.4464 0.4214 0.5057 0.4728 0.3494 0.2912
3790.441 0.3712 0.4411 0.3856 0.3742 0.5193 0.5784 0.3682 0.1928 0.17823 0.2141
3809.731 0.2397 0.3467 0.2879 0.2348 0.2805 0.2406 0.305 0.3609 0.1977 0.16432
3829.021 0.398 0.4354 0.3467 0.3669 0.3052 0.17818 0.2639 0.3548 0.3026 0.2303
3848.311 0.3533 0.4051 0.4171 0.468 0.3294 0.3619 0.4437 0.3997 0.4097 0.4385
3867.601 0.4114 0.3743 0.3191 0.2708 0.3188 0.3507 0.3285 0.365 0.3979 0.2687
3886.890 0.14923 0.3609 0.4723 0.3441 0.4181 0.4924 0.3132 0.2757 0.3659 0.357
3906.180 0.3993 0.413 0.2647 0.3221 0.4078 0.292 0.3081 0.3535 0.5003 0.5201
3925.470 0.4684 0.5171 0.5116 0.5655 0.4055 0.2696 0.2994 0.3064 0.3465 0.3801
3944.760 0.4175 0.3748 0.4541 0.5116 0.319 0.2759 0.3971 0.4184 0.3504 0.3013
3964.049 0.2128 0.2186 0.3538 0.4928 0.5451 0.4992 0.4167 0.3788 0.4328 0.4616
3983.339 0.435 0.4437 0.5951 0.7211 0.6868 0.5547 0.4042 0.3694 0.3491 0.4245
##END=
