##TITLE=2-Benzenesulphonylthiophene
##JCAMP-DX=4.24
##DATA TYPE=INFRARED SPECTRUM
##ORIGIN=EPA-IR VAPOR PHASE LIBRARY
##OWNER=SRD/NIST
Collection (C) 2018 copyright by the U.S. Secretary of Commerce
on behalf of the United States of America. All rights reserved.
##CAS REGISTRY NO=22407-40-5
##MOLFORM=C 10 H 8 O 2 S 2
##$NIST SOURCE=MSDC-IR
##STATE=gas
##XUNITS=1/CM
##YUNITS=ABSORBANCE
##XFACTOR=1.
##YFACTOR=0.001
##DELTAX=1.92898
##FIRSTX=549.8
##LASTX=4000.7
##FIRSTY=15.507
##MAXX=4000.7
##MINX=549.759
##MAXY=0.085767
##MINY=0
##NPOINTS=1790
##XYDATA=(X++(Y..Y))
549.759 15.507 14.727 14.597 13.417 12.167 11.627 10.997 12.487 15.177 18.667
569.049 22.637 25.597 28.657 31.087 31.977 30.947 29.247 28.707 29.587 34.067
588.339 43.997 59.057 74.207 82.327 85.767 85.147 78.147 67.777 52.427 34.277
607.628 20.557 13.517 10.127 8.267 7.707 7.037 6.247 5.997 5.267 4.707
626.918 4.707 4.527 4.307 4.257 4.327 4.037 4.027 4.447 4.857 5.437
646.208 6.187 7.047 8.947 11.447 14.167 16.997 18.997 20.167 19.927 18.797
665.498 17.407 15.227 12.977 11.267 10.957 12.207 13.527 14.727 16.677 18.557
684.787 19.927 20.657 20.467 19.747 18.377 17.107 16.437 16.527 17.797 20.377
704.077 23.917 28.447 33.847 40.507 47.607 54.357 60.927 65.877 68.137 68.287
723.367 66.067 60.607 52.597 42.807 32.267 23.487 17.797 14.257 12.147 10.917
742.657 9.897 9.537 9.977 10.377 10.387 10.107 9.687 9.127 8.167 7.097
761.947 6.297 5.747 5.167 4.527 3.847 3.557 3.237 3.007 3.507 3.357
781.236 3.017 2.837 2.507 2.417 2.477 2.477 2.137 1.6976 1.577 1.767
800.526 1.7197 1.7107 1.927 1.857 1.4257 1.2022 1.6571 1.5206 1.6065 3.467
819.816 4.957 2.907 1.3438 2.087 1.777 1.6386 1.947 2.087 2.287 2.687
839.106 3.207 3.947 3.957 3.517 3.657 4.087 4.617 5.007 5.087 5.147
858.395 5.137 4.257 4.017 3.407 2.677 2.737 2.327 1.777 1.568 1.7095
877.685 1.7373 1.4735 1.5281 1.6321 1.3562 1.6531 1.787 1.5679 1.11 1.208
896.975 1.6289 1.65 1.4628 1.2856 1.1812 1.115 1.1368 1.2231 1.4706 1.747
916.265 2.097 1.807 1.6328 1.6239 1.6276 1.7011 1.545 1.1705 0.78404 1.1397
935.555 1.767 1.5836 1.5818 1.641 1.353 1.0535 0.76771 0.80721 0.80888 1.1189
954.844 1.1658 0.9607 0.9046 0.78579 1.0577 1.3488 1.492 1.847 1.927 1.5404
974.134 1.2094 1.7206 2.197 2.257 2.517 2.917 3.227 3.867 4.837 5.917
993.424 6.607 7.267 8.947 10.517 12.477 15.267 17.867 20.107 21.117 21.437
1012.714 20.497 18.597 16.537 13.377 9.957 7.377 5.847 4.667 4.097 3.027
1032.003 2.167 2.517 2.007 2.337 2.827 2.007 1.907 1.757 1.977 2.287
1051.293 1.847 2.117 3.257 3.887 3.527 4.077 4.727 4.587 5.597 5.307
1070.583 4.927 6.047 7.177 8.377 9.437 10.697 11.927 12.247 12.117 13.157
1089.873 13.827 15.567 18.847 22.167 25.367 27.247 27.297 25.107 21.727 17.417
1109.163 12.127 8.177 6.187 4.457 3.667 3.707 2.987 2.967 1.777 1.5958
1128.452 2.527 2.717 3.767 4.137 5.277 6.197 6.527 8.177 10.667 13.107
1147.742 16.867 22.657 28.197 35.707 45.277 55.647 64.137 69.947 74.887 77.127
1167.032 75.147 70.207 62.647 53.757 44.757 35.277 27.997 22.697 17.717 14.747
1186.322 12.927 10.877 10.157 9.287 7.847 7.027 6.567 6.657 6.487 6.117
1205.611 6.407 7.607 8.277 6.527 5.567 7.047 9.167 11.467 13.007 15.277
1224.901 16.997 17.077 16.597 15.237 13.687 10.157 6.007 4.007 3.307 2.917
1244.191 2.747 2.877 2.797 2.787 3.017 3.127 2.917 2.927 2.907 2.817
1263.481 3.167 3.047 2.637 2.607 2.757 3.047 3.047 2.977 2.857 2.617
1282.771 2.707 2.927 3.317 3.597 3.527 3.587 3.567 3.437 3.717 4.177
1302.060 4.557 4.897 5.237 5.567 5.827 6.137 6.307 6.497 6.957 7.507
1321.350 8.207 9.237 10.407 11.657 12.897 14.357 16.127 17.927 20.397 23.717
1340.640 27.787 32.927 38.997 45.387 51.347 56.527 59.667 59.887 57.057 51.197
1359.930 43.657 35.757 28.087 21.427 15.787 11.317 8.277 6.427 5.537 5.017
1379.219 4.737 4.707 4.827 4.757 4.767 5.107 5.567 6.397 7.107 7.937
1398.509 9.027 9.917 10.467 10.687 10.567 9.987 9.167 8.177 7.097 6.377
1417.799 5.997 5.717 5.567 5.337 5.097 4.917 4.667 4.457 4.547 4.817
1437.089 5.187 5.857 6.557 7.037 7.467 7.877 7.867 7.227 6.497 5.837
1456.378 4.937 4.087 3.367 2.957 2.877 2.777 2.817 3.097 3.217 3.277
1475.668 3.487 3.607 3.607 3.317 3.047 3.147 3.247 3.007 2.807 2.727
1494.958 2.927 3.447 4.017 4.817 5.407 5.737 6.047 5.957 5.497 4.817
1514.248 4.187 3.387 2.567 2.087 2.107 2.147 2.027 2.097 1.867 1.675
1533.538 1.6655 1.827 1.757 1.6525 1.897 2.107 2.397 2.717 2.507 2.227
1552.827 2.317 2.337 2.287 1.987 1.797 1.7314 1.797 1.867 1.6624 1.5985
1572.117 1.5831 1.7314 1.797 1.5467 1.5207 1.777 1.987 2.087 1.927 1.6267
1591.407 1.797 1.847 1.757 1.837 1.7368 1.6823 1.747 1.7357 1.7277 1.787
1610.697 1.7435 1.6221 1.3716 1.3499 1.6618 1.6488 1.4286 1.4336 1.388 1.4315
1629.986 1.6367 1.518 1.3315 1.3119 1.1123 1.0023 1.2129 1.3268 1.2027 1.0753
1649.276 1.2054 1.3047 1.3349 1.4843 1.6614 1.6698 1.7348 1.837 1.917 2.097
1668.566 2.227 2.427 2.447 2.417 2.537 2.347 1.987 1.987 1.997 1.767
1687.856 1.6935 1.6507 1.5408 1.5987 1.4781 1.2401 1.3164 1.4397 1.4184 1.1827
1707.146 1.2372 1.3923 1.3759 1.3263 1.321 1.3101 1.2167 1.3128 1.4967 1.5647
1726.435 1.5129 1.661 1.6649 1.5637 1.7271 1.807 1.897 2.017 1.997 1.857
1745.725 1.7406 1.7147 1.787 1.817 1.7395 1.6984 1.7112 1.7231 1.576 1.5691
1765.015 1.6955 1.5375 1.4133 1.425 1.4948 1.5031 1.2639 1.374 1.5155 1.3282
1784.305 1.4329 1.5803 1.5967 1.857 1.927 1.877 2.107 2.367 2.597 2.727
1803.594 2.747 2.827 2.857 2.867 2.777 2.617 2.457 2.227 1.907 1.6666
1822.884 1.6802 1.7083 1.595 1.4661 1.5849 1.6051 1.3245 1.2056 1.3857 1.4835
1842.174 1.2986 1.1737 1.1685 1.2668 1.2159 1.1192 1.1628 1.2802 1.4594 1.444
1861.464 1.4782 1.4328 1.2895 1.3112 1.4264 1.5184 1.421 1.3494 1.4452 1.5434
1880.754 1.4224 1.4163 1.5651 1.6251 1.7329 1.7067 1.6124 1.6267 1.721 1.6856
1900.043 1.6098 1.7273 1.7347 1.6686 1.757 1.787 1.6092 1.4312 1.4881 1.5523
1919.333 1.415 1.3743 1.4734 1.3736 1.3381 1.1854 1.0956 1.1868 1.1619 1.2266
1938.623 1.1064 1.1015 1.3097 1.4502 1.6082 1.7017 1.747 1.807 1.777 1.797
1957.913 1.877 1.857 1.807 1.857 1.827 1.777 1.739 1.6608 1.6836 1.787
1977.202 1.7085 1.4644 1.499 1.4162 1.162 1.0439 0.9765 1.0081 1.0201 1.0424
1996.492 1.0614 1.1111 1.2191 1.2761 1.323 1.2751 1.2628 1.1832 1.1038 1.1176
2015.782 1.0855 1.132 1.146 1.1019 1.0738 1.0022 0.8727 0.9033 0.9881 1.0297
2035.072 1.117 1.0214 0.986 1.0521 0.9717 0.9824 1.0735 1.2437 1.1944 1.0011
2054.362 0.9633 1.0625 1.1017 1.1618 1.1959 1.0723 0.9903 1.075 1.2249 1.1511
2073.651 1.1017 1.1462 1.3197 1.2599 1.0887 1.0968 1.0317 1.0402 1.2761 1.4464
2092.941 1.4038 1.1918 1.0684 1.1017 1.1609 1.2191 1.2028 1.1535 1.0399 1.0482
2112.231 1.1281 1.2329 1.3304 1.1838 1.058 1.1727 1.1555 0.9718 0.83757 0.9802
2131.521 1.0249 1.0282 1.185 1.179 1.1895 1.1632 1.0908 1.0385 1.0802 1.2013
2150.810 1.3247 1.3902 1.2541 1.1815 1.2383 1.0636 1.0175 1.1581 1.1773 1.1743
2170.100 1.4302 1.512 1.2959 1.2668 1.2699 1.263 1.3623 1.4506 1.3468 1.1438
2189.390 1.0683 1.1226 1.162 1.143 1.0696 1.0791 1.1202 1.1357 1.1716 1.2816
2208.680 1.228 1.1804 1.3753 1.4625 1.4089 1.3843 1.3707 1.4565 1.4045 1.2226
2227.970 1.3191 1.2464 0.9613 1.1835 1.4846 1.3569 1.2553 1.3614 1.3334 1.2938
2247.259 1.2143 1.2048 1.153 1.1531 1.2684 1.133 1.1705 1.0554 1.0892 1.336
2266.549 1.3357 1.2587 1.163 1.2347 1.2424 1.1129 1.1417 1.3286 1.5356 1.5685
2285.839 1.3123 1.0492 1.1763 1.3044 1.2843 1.2537 1.1744 1.1471 1.1211 1.2224
2305.129 1.2909 1.2263 1.2112 1.3278 1.4081 1.3688 1.3209 1.2912 1.2007 1.3981
2324.418 1.5419 1.2525 1.1787 1.3697 1.472 1.5683 1.5567 1.2691 1.3433 1.5287
2343.708 1.2973 1.2109 1.3868 1.2422 1.0626 1.3234 1.3874 1.2518 1.3277 1.1816
2362.998 1.063 1.1743 1.4272 1.341 1.2078 1.2163 1.0849 1.0995 1.2328 1.273
2382.288 1.1606 1.3363 1.2384 1.138 1.3661 1.3912 1.4569 1.3702 1.4539 1.747
2401.578 1.6591 1.4907 1.5741 1.6878 1.6842 1.777 1.6459 1.7157 1.787 1.4951
2420.867 1.3702 1.4341 1.6747 1.374 1.1148 1.2751 1.2923 1.1989 1.2816 1.4189
2440.157 1.4265 1.2336 1.0954 1.3038 1.3457 1.5108 1.5422 1.2475 1.2634 1.4143
2459.447 1.2037 1.0079 1.0764 1.1079 0.9499 0.8835 1.1875 1.2104 1.1537 1.0397
2478.737 0.9038 1.0312 1.2679 1.4122 1.3464 1.3632 1.2371 1.3192 1.5483 1.4097
2498.026 1.367 1.6262 1.6635 1.665 1.3823 1.2863 1.6525 1.6202 1.4697 1.2886
2517.316 1.1471 1.2282 1.265 1.0372 0.9544 0.9472 0.8321 1.0199 1.2789 1.1873
2536.606 1.1431 1.1219 1.0248 1.0501 0.9043 0.750121 0.9555 1.2302 1.2542 1.0438
2555.896 1.2622 1.5935 1.3252 1.111 1.116 1.1164 1.0827 1.23 1.2248 1.0842
2575.186 1.285 1.3245 1.1932 1.2523 1.1455 0.9775 0.8566 0.78814 0.9279 1.0016
2594.475 1.1334 1.2318 1.1795 1.1181 1.0755 1.2734 1.2181 0.8518 1.042 1.4083
2613.765 1.1974 0.9718 1.2059 1.2059 1.2159 1.2573 1.0658 1.0592 1.2621 1.4348
2633.055 1.2111 1.1599 1.1084 0.78714 1.1558 1.4216 1.3981 1.524 1.3572 1.1922
2652.345 1.0879 0.9401 1.1104 1.3274 1.306 1.5443 1.699 1.4566 1.2208 1.4334
2671.634 1.4193 1.1013 1.1467 1.1375 0.9834 1.0032 1.1762 1.2928 1.2817 1.1015
2690.924 1.0667 1.1843 1.1608 1.1348 1.2176 1.1295 0.81952 0.8889 1.2097 1.3661
2710.214 1.1967 0.9939 1.2282 1.2399 0.94 0.8999 1.0934 1.1822 1.2185 1.2655
2729.504 1.1531 1.2655 1.3478 1.4147 1.1387 0.8749 1.0839 0.83985 0.83689 1.2489
2748.794 1.1031 1.0389 1.1918 1.0651 1.1048 1.0995 1.006 1.1139 1.2959 1.2614
2768.083 1.1625 1.2438 1.2009 0.9872 1.0154 1.2586 1.2491 1.3849 1.4447 1.1981
2787.373 1.23 1.1979 1.0623 1.1308 1.241 1.2355 1.1358 1.055 0.9146 1.0003
2806.663 1.2182 1.0485 0.715 0.8597 1.4144 1.6241 1.258 0.9191 1.0897 1.3262
2825.953 1.5471 1.5646 1.3343 1.2099 1.1044 0.9873 0.9915 1.097 1.2976 1.4835
2845.242 1.2042 1.0476 1.037 1.2503 1.6052 1.6081 1.3841 1.2826 1.2586 1.1392
2864.532 1.0508 0.8444 0.76285 0.9388 1.1044 1.1643 1.0842 0.9428 0.81963 0.84297
2883.822 1.0579 1.2364 1.3703 1.4188 1.0482 0.9189 1.1646 1.1329 0.8687 0.9019
2903.112 0.8725 0.74477 0.7183 0.535 0.84063 1.1209 0.8507 0.635 0.8859 1.2124
2922.401 1.2416 1.0967 1.3776 1.4295 1.0848 1.1383 1.3985 1.4393 1.3379 1.211
2941.691 0.83272 0.406 0.517 0.7357 0.612 0.77993 0.7211 0.7009 1.0637 1.2767
2960.981 1.2178 1.105 0.9427 0.7133 0.6817 0.9232 1.3518 1.0041 0.455 0.6848
2980.271 0.83221 0.8884 1.0146 0.952 1.1322 1.0679 0.9278 0.8488 0.9309 1.2647
2999.561 1.177 1.2182 1.238 1.0706 1.4652 1.747 1.4779 1.58 2.007 1.857
3018.850 1.3326 1.4813 1.857 1.897 1.817 1.777 2.017 2.317 2.557 2.637
3038.140 2.347 2.187 2.217 2.277 2.697 2.757 2.427 2.747 3.087 3.277
3057.430 3.997 4.757 5.177 5.777 6.797 8.327 9.527 10.337 11.017 10.947
3076.720 10.697 10.387 9.917 8.907 7.467 6.467 6.097 5.837 5.447 5.257
3096.009 4.707 3.807 3.647 3.267 2.537 2.497 2.407 1.947 1.907 2.007
3115.299 1.6858 1.3447 1.5363 1.6969 1.6595 1.807 1.7385 1.2634 1.419 1.6568
3134.589 1.1017 0.8997 1.4808 1.787 1.797 1.897 1.3795 0.9996 1.3453 1.5088
3153.879 1.5019 1.2512 0.9562 1.2264 1.3635 1.3524 1.4925 1.2261 0.8825 1.0796
3173.169 0.9751 0.9682 1.0662 0.6623 0.76899 1.1507 1.4281 1.0098 0.56 1.18
3192.458 1.3008 0.8618 1.0135 0.9327 0.8924 1.3149 1.4439 1.3624 0.9763 0.601
3211.748 0.9347 1.2723 1.058 0.9739 1.1445 1.2528 1.1577 0.77106 0.9644 1.2325
3231.038 0.9398 0.6791 0.6656 0.9713 1.276 1.3762 1.3519 1.0257 0.8382 0.9156
3250.328 0.83484 0.536 0.738 1.3557 1.3309 1.0481 0.9315 0.8596 0.74202 0.8886
3269.617 1.1096 0.9311 0.497 0.77515 0.703 0.313 0.851 1.1399 0.76021 0.7284
3288.907 0.892 0.646 0.455 0.7037 1.0224 0.746391 0.3 0.373 0.413 0.556
3308.197 0.8553 0.9626 1.02 0.6684 0.621 0.747577 0.8503 0.9206 1.0256 1.3265
3327.487 1.231 1.2036 1.1983 1.1945 1.3456 1.3285 1.0485 1.1806 0.7974 0.547
3346.777 1.0514 0.8852 0.81347 1.126 1.0104 0.629 0.79143 1.2789 1.2125 0.9721
3366.066 0.951 0.83026 0.83427 1.0119 0.74307 0.522 0.9677 1.2787 0.9877 0.641
3385.356 0.577 0.8551 0.9416 0.59 0.51 1.0465 1.1711 1.0184 0.8552 0.78962
3404.646 0.8712 0.9066 0.7312 0.493 0.7039 0.8722 0.9994 1.2656 1.2033 0.80518
3423.936 0.9683 0.79205 0.6649 1.0038 1.0074 1.2208 1.5921 1.3362 1.1546 1.3817
3443.225 1.3422 1.2341 1.2981 1.0432 1.0342 0.9595 0.7587 0.84079 0.7407 0.8948
3462.515 0.81767 0.329 0.517 0.9304 0.81037 0.8826 1.0557 1.2667 0.84092 0.552
3481.805 1.093 1.1417 1.2211 1.3201 0.8603 0.77388 0.9355 1.0799 1.0886 0.84553
3501.095 1.0162 0.9441 0.79946 1.0798 1.4405 1.4745 1.0635 1.2636 1.2406 0.80335
3520.385 0.7033 0.425 0.536 0.9651 0.83503 0.6867 0.6822 0.676 0.645 0.6655
3539.674 0.426 0.49 0.8782 0.9323 1.0185 0.9653 1.0513 0.80444 0.477 0.332
3558.964 0.142 0.396 0.384 0.43 0.9446 1.3474 1.0996 0.527 0.468 0.692
3578.254 0.9146 1.1424 1.3108 1.4535 1.0023 0.501 0.81029 0.612 0.622 1.1013
3597.544 0.631 0.292 0.57 1.0587 1.0894 0.487 0.576 0.9405 0.588 0.539
3616.833 1.0347 1.0872 0.8631 0.78775 0.6963 0.511 1.0258 1.0446 0.517 0.642
3636.123 0.9945 1.0137 0.84646 0.9397 0.9802 1.022 1.1806 0.9362 0.84508 1.0757
3655.413 1.1171 0.7076 0.449 0.6792 0.565 0.6758 1.0188 0.8989 0.646 0.80856
3674.703 0.607 0.501 1.017 0.80533 0.534 0.645 0.627 1.1209 1.092 0.7859
3693.993 1.293 1.1558 0.78839 0.9421 0.9648 0.9359 0.82502 0.33 0.6 1.2669
3713.282 1.3991 1.4743 0.8822 0.111 0.387 0.559 0.486 1.1425 1.2118 0.8408
3732.572 0.8976 0.628 0.293 0.625 0.9536 1.198 1.1349 0.6623 0.583 0.9428
3751.862 0.9936 0.83662 1.0458 1.2163 0.8303 0.7178 1.0682 1.0633 1.1424 1.2202
3771.152 1.4216 1.6477 1.5157 1.5559 1.4384 0.8736 0.515 0.7179 0.76887 0.141
3790.441 0.259 1.0492 1.1005 0.76625 0.64 0.74193 0.74243 0.526 0.633 0.974
3809.731 1.1744 1.3478 0.83338 0.6726 1.1793 1.2866 1.119 0.7322 0.6808 1.2627
3829.021 1.5296 1.35 0.9397 0.7087 1.011 1.038 1.0434 0.8614 0.534 0.406
3848.311 0.5 1.0866 1.6166 1.0829 0.556 0.735 0.614 0.595 0.79018 0.542
3867.601 0 0.302 0.633 0.578 0.6822 0.686 0.9558 1.3043 1.2432 0.8848
3886.890 0.378 0.248 1.0182 1.1061 0.61 0.459 0.545 0.575 0.354 0.504
3906.180 0.406 0.083 0.544 1.3039 1.287 0.83352 0.545 0.419 0.77078 0.84314
3925.470 0.7833 0.9007 0.592 0.9454 1.2329 1.757 2.147 1.4196 0.9551 1.1672
3944.760 1.2992 1.2193 1.319 1.0516 1.2365 1.4244 0.9213 0.8663 1.3763 1.1762
3964.049 0.509 0.9512 1.2573 0.74133 0.8511 1.0961 0.9435 1.2875 1.4566 1.3253
3983.339 1.2771 0.762 0.78821 1.1702 1.0256 1.0783 0.9967 0.80067 0.79348 0.466
##END=
