##TITLE=n-Decyl methyl sulphide
##JCAMP-DX=4.24
##DATA TYPE=INFRARED SPECTRUM
##ORIGIN=EPA-IR VAPOR PHASE LIBRARY
##OWNER=SRD/NIST
Collection (C) 2018 copyright by the U.S. Secretary of Commerce
on behalf of the United States of America. All rights reserved.
##CAS REGISTRY NO=22438-39-7
##MOLFORM=C 11 H 24 S
##$NIST SOURCE=MSDC-IR
##STATE=gas
##XUNITS=1/CM
##YUNITS=ABSORBANCE
##XFACTOR=1.
##YFACTOR=0.001
##DELTAX=1.92934
##FIRSTX=549.9
##LASTX=3999.5
##FIRSTY=0.1
##MAXX=3999.53
##MINX=549.863
##MAXY=0.35734
##MINY=0
##NPOINTS=1789
##XYDATA=(X++(Y..Y))
549.863 0.1 0.18 0.16 0.05 0.19 0.18 0.21 0.28 0.28 0.24
569.156 0.23 0.18 0 0.03 0.24 0.24 0.3 0.575 0.53 0.37
588.450 0.31 0.28 0.36 0.34 0.27 0.35 0.45 0.41 0.35 0.4
607.743 0.42 0.46 0.51 0.53 0.569 0.637 0.666 0.601 0.65 0.684
627.037 0.706 0.763 0.722 0.748 0.783 0.84 0.868 0.957 1.076 1.067
646.330 0.999 1.095 1.203 1.151 1.114 1.121 1.12 1.075 1.1 1.12
665.624 1.1 1.066 1.187 1.3 1.36 1.5226 1.6041 1.63661 1.7272 1.8785
684.917 2.0329 2.1536 2.358 2.58 2.72 2.91 3.08 3.23 3.46 3.68
704.210 3.9 4.15 4.44 4.73 4.98 5.23 5.43 5.58 5.65 5.67
723.504 5.69 5.66 5.63 5.5 5.37 5.36 5.29 5.11 5.08 5.05
742.797 4.95 4.93 4.95 4.84 4.69 4.6 4.49 4.35 4.21 4.12
762.091 4.05 3.97 3.81 3.68 3.58 3.44 3.32 3.19 3.09 3.02
781.384 2.93 2.84 2.73 2.63 2.58 2.4817 2.4633 2.4688 2.4766 2.4934
800.678 2.4338 2.375 2.3312 2.3568 2.3478 2.3159 2.2627 2.2213 2.1734 2.0929
819.971 2.0693 2.0262 2.0256 2.0369 2.025 2.0141 1.9696 1.9358 1.9436 1.968
839.264 2.003 1.9925 1.9496 1.945 1.9361 1.9397 1.9533 1.9513 1.9484 1.91
858.558 1.8973 1.9172 1.9488 1.9948 1.9787 1.9717 1.9815 1.9979 2.0004 2.0682
877.851 2.1508 2.0719 2.0918 2.1745 2.1844 2.2325 2.237 2.1972 2.2015 2.276
897.145 2.3131 2.2419 2.2351 2.2753 2.2884 2.2606 2.2214 2.2767 2.3048 2.2812
916.438 2.3002 2.3654 2.4174 2.4412 2.5211 2.59 2.62 2.68 2.79 2.92
935.732 3.04 3.18 3.37 3.58 3.83 4.09 4.34 4.61 4.9 5.13
955.025 5.23 5.27 5.22 5.1 4.89 4.62 4.38 4.15 3.95 3.83
974.318 3.65 3.45 3.37 3.33 3.27 3.23 3.19 3.08 2.96 2.9
993.612 2.85 2.8 2.68 2.61 2.61 2.58 2.5059 2.4241 2.3884 2.3573
1012.905 2.3144 2.2813 2.3032 2.3496 2.3319 2.3187 2.3739 2.4046 2.415 2.4451
1032.199 2.4514 2.4775 2.55 2.64 2.72 2.76 2.75 2.8 2.89 2.88
1051.492 2.89 2.94 2.93 2.87 2.85 2.85 2.79 2.72 2.7 2.71
1070.786 2.58 2.5085 2.5198 2.4616 2.3588 2.2789 2.2798 2.2359 2.2294 2.2283
1090.079 2.2445 2.2615 2.2341 2.22 2.1655 2.1885 2.2274 2.2156 2.1876 2.1531
1109.372 2.217 2.2184 2.1716 2.1161 1.9651 1.8489 1.8163 1.7781 1.7715 1.6783
1128.666 1.5232 1.4539 1.435 1.4592 1.404 1.4427 1.5151 1.5005 1.6472 1.7132
1147.959 1.6675 1.7821 1.7377 1.7041 1.7602 1.8686 1.9775 1.9753 1.9269 1.9496
1167.253 2.088 2.0694 2.0223 2.0409 2.0424 2.0759 1.9997 1.8253 1.9074 2.1024
1186.546 2.1801 2.194 2.1942 2.2236 2.2972 2.4893 2.3912 2.2183 2.5059 2.57
1205.840 2.5317 2.84 3.08 3.39 3.68 3.69 3.8 4.24 4.71 5.12
1225.133 5.37 5.43 5.7 5.96 6.16 6.32 6.5 6.76 6.88 7.03
1244.426 7.37 7.56 7.82 8.09 8.2 8.39 8.61 8.88 9.13 9.36
1263.720 9.67 10.01 10.28 10.52 10.83 11.07 11.28 11.55 11.61 11.53
1283.013 11.52 11.52 11.43 11.38 11.37 11.34 11.4 11.43 11.44 11.4
1302.307 11.23 11.02 10.73 10.4 10.08 9.77 9.42 9.16 8.98 8.8
1321.600 8.62 8.41 8.24 8.11 8.02 8.01 8.04 8.2 8.53 8.93
1340.894 9.31 9.71 10.1 10.44 10.65 10.76 10.78 10.65 10.35 10.01
1360.187 9.74 9.43 9.11 8.88 8.64 8.35 8.15 8.02 7.95 7.99
1379.480 8.09 8.17 8.13 7.95 7.65 7.29 6.86 6.53 6.33 6.23
1398.774 6.17 6.14 6.21 6.34 6.56 6.87 7.18 7.58 8.07 8.67
1418.067 9.34 10.16 11.13 12.18 13.33 14.54 15.78 17.18 18.55 19.79
1437.361 21.16 22.39 23.44 24.4 25.17 25.72 26.19 26.78 27.29 27.71
1456.654 28.09 28.3 28.21 27.64 26.57 25.19 23.55 21.64 19.59 17.49
1475.948 15.52 13.65 11.99 10.54 9.35 8.36 7.55 6.84 6.26 5.8
1495.241 5.36 4.99 4.74 4.51 4.28 3.99 3.78 3.71 3.6 3.47
1514.534 3.35 3.21 3.1 3 2.92 2.9 2.83 2.76 2.69 2.57
1533.828 2.57 2.64 2.61 2.5354 2.4985 2.4467 2.4075 2.3594 2.3819 2.4019
1553.121 2.3601 2.334 2.293 2.2534 2.2446 2.2516 2.2212 2.213 2.2266 2.1964
1572.415 2.168 2.0953 2.0547 2.0604 2.062 2.0877 2.0524 2.0283 2.041 2.0066
1591.708 1.9595 1.9628 1.9594 1.9512 1.9184 1.9079 1.9041 1.8714 1.8607 1.8314
1611.002 1.7757 1.7615 1.7439 1.7353 1.77 1.7398 1.6522 1.61356 1.63984 1.62299
1630.295 1.58777 1.56677 1.57163 1.58402 1.62846 1.62559 1.53272 1.497 1.4948 1.498
1649.588 1.5101 1.4652 1.428 1.4713 1.4773 1.4883 1.5144 1.5 1.4587 1.4551
1668.882 1.4608 1.4613 1.4648 1.4722 1.4668 1.4524 1.401 1.332 1.331 1.356
1688.175 1.397 1.393 1.373 1.347 1.318 1.333 1.274 1.226 1.295 1.326
1707.469 1.313 1.28 1.272 1.268 1.271 1.268 1.255 1.298 1.263 1.259
1726.762 1.25 1.16 1.154 1.162 1.145 1.207 1.217 1.179 1.199 1.206
1746.056 1.186 1.144 1.097 1.106 1.166 1.206 1.238 1.226 1.176 1.111
1765.349 1.122 1.166 1.143 1.114 1.077 1.108 1.111 1.084 1.089 1.085
1784.642 1.102 1.107 1.14 1.163 1.109 1.105 1.101 1.083 1.109 1.149
1803.936 1.118 1.101 1.118 1.074 1.046 1.032 1.058 1.096 1.081 1.059
1823.229 1.069 1.045 1.042 1.052 1.052 1.061 1.045 1.071 1.076 1.03
1842.523 1.017 1 1.024 1.048 1.045 1.044 1.02 1.041 1.032 1.028
1861.816 1.04 1.034 1.026 1.007 1.008 1.026 1.022 1.028 1.041 1.041
1881.110 1.034 1.013 1.024 1.042 1.021 1.024 1.044 1.046 1.041 1.042
1900.403 1.046 1.021 1.029 1.064 1.075 1.056 1.086 1.087 1.037 1.054
1919.696 1.091 1.069 1.002 1.032 1.102 1.087 1.085 1.08 1.088 1.12
1938.990 1.114 1.089 1.052 1.083 1.076 1.043 1.065 1.115 1.137 1.092
1958.283 1.088 1.123 1.118 1.099 1.129 1.113 1.111 1.144 1.1 1.085
1977.577 1.123 1.134 1.142 1.155 1.15 1.164 1.16 1.139 1.157 1.195
1996.870 1.226 1.211 1.238 1.287 1.294 1.312 1.325 1.326 1.333 1.357
2016.164 1.385 1.418 1.438 1.4448 1.4828 1.53672 1.56064 1.5451 1.53124 1.56494
2035.457 1.59434 1.55007 1.5039 1.5064 1.5233 1.5299 1.53183 1.5025 1.4779 1.4493
2054.750 1.4405 1.4659 1.414 1.371 1.349 1.299 1.309 1.311 1.287 1.312
2074.044 1.347 1.336 1.321 1.296 1.266 1.265 1.263 1.262 1.239 1.234
2093.337 1.247 1.25 1.227 1.235 1.258 1.227 1.227 1.222 1.196 1.247
2112.631 1.257 1.205 1.194 1.187 1.197 1.238 1.249 1.242 1.247 1.23
2131.924 1.227 1.27 1.288 1.266 1.247 1.239 1.257 1.261 1.233 1.23
2151.218 1.236 1.258 1.312 1.35 1.316 1.292 1.312 1.326 1.339 1.308
2170.511 1.272 1.297 1.301 1.314 1.325 1.305 1.352 1.366 1.351 1.333
2189.804 1.318 1.329 1.319 1.354 1.389 1.349 1.316 1.319 1.352 1.362
2209.098 1.346 1.338 1.326 1.343 1.353 1.345 1.328 1.317 1.315 1.345
2228.391 1.347 1.343 1.34 1.302 1.314 1.351 1.36 1.381 1.375 1.371
2247.685 1.379 1.357 1.41 1.4439 1.428 1.403 1.417 1.435 1.436 1.438
2266.978 1.428 1.4867 1.4723 1.4421 1.4768 1.4873 1.5004 1.5024 1.4655 1.4528
2286.272 1.4645 1.4653 1.4405 1.436 1.4518 1.437 1.42 1.417 1.431 1.403
2305.565 1.365 1.391 1.437 1.415 1.401 1.411 1.405 1.405 1.386 1.397
2324.858 1.4576 1.4724 1.431 1.429 1.4454 1.4481 1.422 1.4452 1.483 1.4415
2344.152 1.421 1.437 1.4825 1.4902 1.457 1.4637 1.4765 1.4647 1.4876 1.5099
2363.445 1.4944 1.4959 1.5091 1.4925 1.4875 1.55624 1.5731 1.562 1.60504 1.62355
2382.739 1.62159 1.633 1.6457 1.6406 1.60611 1.5411 1.53147 1.56485 1.56489 1.56871
2402.032 1.56794 1.5522 1.5322 1.5204 1.5114 1.5176 1.5281 1.5011 1.4813 1.4858
2421.326 1.4768 1.4698 1.4768 1.4651 1.4938 1.5089 1.4839 1.4782 1.4497 1.415
2440.619 1.437 1.4634 1.4404 1.4412 1.404 1.407 1.4469 1.427 1.397 1.385
2459.912 1.412 1.4451 1.4501 1.403 1.404 1.4529 1.431 1.402 1.411 1.416
2479.206 1.4633 1.5156 1.4923 1.4876 1.5161 1.5125 1.5278 1.55258 1.54005 1.53885
2498.499 1.5276 1.56994 1.61846 1.62529 1.6562 1.6924 1.6795 1.62832 1.63931 1.6612
2517.793 1.6813 1.7116 1.7014 1.7241 1.7604 1.7483 1.7514 1.7892 1.8025 1.8021
2537.086 1.812 1.7879 1.7934 1.8226 1.8595 1.8447 1.8415 1.8974 1.9088 1.9121
2556.380 1.9419 1.9881 1.9967 1.9677 1.9884 2.0796 2.103 2.0494 2.0508 2.095
2575.673 2.1212 2.102 2.1043 2.1457 2.2085 2.2517 2.2126 2.2427 2.3141 2.302
2594.966 2.3265 2.3673 2.3596 2.4349 2.5052 2.54 2.57 2.55 2.61 2.71
2614.260 2.72 2.77 2.8 2.75 2.79 2.87 2.89 2.93 2.94 2.93
2633.553 2.98 3.04 3.11 3.15 3.17 3.24 3.32 3.38 3.37 3.42
2652.847 3.5 3.56 3.58 3.62 3.76 3.77 3.8 3.92 3.99 4.02
2672.140 4.06 4.1 4.11 4.14 4.17 4.18 4.19 4.18 4.09 4.06
2691.434 4.07 4.06 4.05 3.95 3.9 3.93 3.92 3.89 3.82 3.77
2710.727 3.8 3.86 3.89 3.81 3.84 3.95 3.99 3.96 3.98 4.02
2730.020 4.08 4.19 4.24 4.31 4.45 4.59 4.64 4.71 4.77 4.82
2749.314 4.83 4.79 4.82 4.91 4.96 4.98 4.99 5.14 5.25 5.25
2768.607 5.34 5.49 5.65 5.76 5.96 6.17 6.35 6.58 6.8 7.14
2787.901 7.49 7.68 7.96 8.4 8.7 9.06 9.47 9.85 10.3 10.79
2807.194 11.31 11.91 12.54 13.25 14.05 14.95 15.87 16.84 17.94 19.14
2826.488 20.39 21.77 23.34 25.07 27.14 29.49 32.32 35.84 39.97 44.99
2845.781 51.01 58.09 66.36 75.59 85.62 95.84 105.41 113.47 119.12 122.12
2865.074 122.33 119.7 115.09 109.34 103.14 97.23 92.13 87.93 84.54 81.72
2884.368 79.32 77.54 76.25 75.65 75.85 77.2 79.87 83.86 89.18 95.68
2903.661 103.43 112.31 122.48 134.01 147.1 162.1 179.21 198.93 221.48 246.8
2922.955 273.64 299.85 323.24 341.74 353.58 357.34 353.24 342.66 326.86 306.74
2942.248 284.01 259.8 235.52 212.59 191.52 173.32 158.13 146.02 136.96 130.54
2961.542 126.24 123.28 120.79 117.43 112.24 105.15 96.44 86.76 76.96 67.88
2980.835 60.21 53.9 48.81 44.8 41.48 38.58 35.95 33.53 31.09 28.54
3000.128 26.19 24.04 22.07 20.43 18.95 17.61 16.42 15.51 14.68 13.78
3019.422 13.11 12.56 11.93 11.33 10.81 10.33 10.08 9.77 9.28 8.86
3038.715 8.48 8.13 7.85 7.62 7.29 7 6.83 6.6 6.43 6.32
3058.009 6.19 6.04 5.88 5.73 5.74 5.72 5.52 5.4 5.45 5.44
3077.302 5.24 5.14 5.07 4.95 5 4.94 4.9 4.77 4.61 4.63
3096.596 4.62 4.62 4.5 4.4 4.34 4.13 4.04 4.15 4.07 3.99
3115.889 4.01 3.92 3.9 3.93 3.89 3.72 3.75 3.74 3.52 3.42
3135.182 3.48 3.54 3.54 3.39 3.26 3.26 3.21 3.2 3.29 3.28
3154.476 3.17 3.03 2.98 2.95 2.71 2.64 2.77 2.74 2.72 2.69
3173.769 2.55 2.509 2.4263 2.3131 2.3516 2.3932 2.4204 2.4961 2.4827 2.3046
3193.063 2.2822 2.3378 2.2554 2.1716 2.1522 2.1536 2.0564 2.0289 2.0877 2.1581
3212.356 2.1395 2.0995 2.1205 2.0487 1.9262 1.8794 1.8505 1.6995 1.56685 1.5987
3231.650 1.61521 1.6885 1.7426 1.7456 1.7181 1.6927 1.6845 1.7183 1.7394 1.59837
3250.943 1.4852 1.61553 1.63657 1.5232 1.401 1.395 1.5077 1.5274 1.55125 1.43
3270.236 1.343 1.29 1.285 1.417 1.4582 1.426 1.429 1.431 1.4471 1.4448
3289.530 1.425 1.428 1.4866 1.53838 1.56632 1.53237 1.404 1.304 1.399 1.6799
3308.823 1.62324 1.4436 1.411 1.4681 1.58958 1.4591 1.333 1.396 1.4642 1.433
3328.117 1.342 1.318 1.405 1.4918 1.4994 1.369 1.253 1.259 1.261 1.371
3347.410 1.4692 1.4429 1.412 1.326 1.28 1.382 1.437 1.318 1.313 1.4679
3366.704 1.421 1.346 1.378 1.317 1.245 1.339 1.325 1.264 1.362 1.436
3385.997 1.242 1.174 1.268 1.224 1.27 1.294 1.329 1.299 1.288 1.315
3405.290 1.39 1.45 1.332 1.206 1.353 1.411 1.289 1.201 1.134 1.223
3424.584 1.323 1.343 1.292 1.15 1.144 1.118 0.993 0.969 1.071 1.122
3443.877 1.107 1.074 1.055 1.152 1.115 1.166 1.111 0.875 1 1.206
3463.171 1.258 1.213 1.084 1.121 1.035 0.916 0.97 1 1.026 1.053
3482.464 0.999 0.918 0.946 1.054 1.011 0.937 1.037 0.903 0.739 0.837
3501.758 1.018 1.099 1.055 1.031 1.031 0.984 0.96 0.929 0.869 0.877
3521.051 0.891 0.923 0.938 0.96 0.862 0.712 0.774 0.862 0.838 0.866
3540.344 0.915 1.036 1.025 0.835 0.885 1.006 0.995 0.94 0.876 0.813
3559.638 0.829 0.892 0.977 1.037 0.987 0.939 0.897 0.827 0.911 1.02
3578.931 0.886 0.784 0.787 0.783 0.878 0.975 1.021 0.991 1.03 1.042
3598.225 1.01 1.102 1.159 1.078 1.122 1.246 1.167 1.134 1.212 1.179
3617.518 1.215 1.265 1.244 1.263 1.231 1.187 1.255 1.379 1.261 1.193
3636.812 1.226 1.268 1.318 1.334 1.294 1.151 1.149 1.226 1.238 1.29
3656.105 1.285 1.292 1.333 1.228 1.163 1.187 1.268 1.212 1.236 1.262
3675.398 1.144 1.161 1.3 1.274 1.18 1.255 1.331 1.362 1.334 1.321
3694.692 1.305 1.214 1.171 1.206 1.193 1.151 1.124 1.104 1.191 1.277
3713.985 1.257 1.228 1.23 1.229 1.219 1.218 1.169 1.124 1.103 1.05
3733.279 1.067 1.209 1.26 1.13 1.074 1.121 1.141 1.111 1.054 1.183
3752.572 1.34 1.33 1.282 1.242 1.299 1.267 1.13 1.181 1.275 1.247
3771.866 1.233 1.217 1.209 1.18 1.273 1.378 1.312 1.219 1.211 1.328
3791.159 1.294 1.238 1.286 1.291 1.307 1.288 1.305 1.316 1.269 1.293
3810.452 1.305 1.316 1.24 1.059 1.128 1.288 1.233 1.265 1.3 1.279
3829.746 1.348 1.286 1.188 1.272 1.249 1.207 1.255 1.211 1.266 1.307
3849.039 1.327 1.367 1.329 1.275 1.247 1.243 1.248 1.258 1.286 1.297
3868.333 1.252 1.194 1.221 1.336 1.383 1.364 1.413 1.375 1.295 1.333
3887.626 1.322 1.347 1.4589 1.4501 1.401 1.404 1.4479 1.394 1.366 1.4438
3906.920 1.348 1.257 1.37 1.4593 1.382 1.355 1.386 1.437 1.401 1.382
3926.213 1.4474 1.4748 1.409 1.39 1.365 1.298 1.383 1.342 1.329 1.426
3945.506 1.4414 1.4753 1.54497 1.4789 1.385 1.403 1.393 1.4521 1.522 1.5091
3964.800 1.4874 1.4776 1.4605 1.494 1.60966 1.6855 1.6457 1.58362 1.6483 1.7208
3984.093 1.7073 1.6404 1.53283 1.4847 1.5295 1.5111 1.4788 1.5105 1.5023
##END=
