##TITLE=1-Naphthalamide
##JCAMP-DX=4.24
##DATA TYPE=INFRARED SPECTRUM
##ORIGIN=EPA-IR VAPOR PHASE LIBRARY
##OWNER=SRD/NIST
Collection (C) 2018 copyright by the U.S. Secretary of Commerce
on behalf of the United States of America. All rights reserved.
##CAS REGISTRY NO=2243-81-4
##MOLFORM=C 11 H 9 N O
##$NIST SOURCE=MSDC-IR
##STATE=gas
##XUNITS=1/CM
##YUNITS=ABSORBANCE
##XFACTOR=1.
##YFACTOR=0.001
##DELTAX=1.92898
##FIRSTX=549.8
##LASTX=4000.7
##FIRSTY=3.27
##MAXX=4000.7
##MINX=549.759
##MAXY=0.04943
##MINY=0.00007622
##NPOINTS=1790
##XYDATA=(X++(Y..Y))
549.759 3.27 3.17 3.12 3.09 3.15 3.22 3 2.83 2.68 2.66
569.049 2.43 2.32 2.47 2.23 1.74 1.44 1.11 0.7131 0.7939 0.8385
588.339 1.08 1.23 1.21 1.73 2.54 3.2 3.77 4.44 4.86 4.96
607.628 4.88 4.66 4.22 3.55 2.61 1.82 1.49 1.31 1.12 1.16
626.918 1.42 1.5 1.6 1.79 1.88 1.8 1.81 2.03 2.09 1.98
646.208 1.8 1.69 1.83 1.84 1.44 1.23 1.43 1.51 1.53 1.59
665.498 1.53 1.59 1.8 1.87 1.8 1.94 2.12 2.17 2.28 2.21
684.787 2.14 2.43 2.57 2.57 2.56 2.46 2.39 2.3 2.14 1.92
704.077 1.8 1.61 1.46 1.51 1.47 1.44 1.43 1.34 1.36 1.45
723.367 1.51 1.41 1.36 1.46 1.66 1.68 1.63 1.53 1.57 1.88
742.657 1.86 1.79 2.08 2.46 2.7 2.94 3.32 3.91 4.71 5.68
761.947 7.1 8.74 10.35 12.23 14.25 16.28 18.54 21.05 22.45 21.67
781.236 19.27 16.98 15.52 14.32 13.17 11.75 10.34 9.35 8.64 8.28
800.526 8.22 8.11 7.61 6.54 5.72 5.3 4.9 4.43 3.89 3.49
819.816 3.09 2.99 2.89 2.64 2.65 2.75 2.83 2.69 2.46 2.67
839.106 2.77 2.5 2.49 2.56 2.61 2.59 2.74 2.94 2.81 2.77
858.395 2.83 2.94 3.08 2.97 2.72 2.52 2.34 2.13 1.92 1.97
877.685 1.95 1.88 1.83 1.63 1.66 1.79 1.85 1.76 1.71 1.78
896.975 1.77 1.81 1.95 1.85 1.83 1.95 1.8 1.73 1.71 1.7
916.265 1.79 1.77 1.72 1.81 1.89 1.87 1.78 1.73 1.75 1.85
935.555 1.82 1.67 1.7 1.73 1.64 1.54 1.7 2 2.12 1.9
954.844 1.69 1.73 1.77 1.87 1.86 1.89 2.01 1.94 1.65 1.58
974.134 1.64 1.63 1.75 1.72 1.72 1.74 1.61 1.73 1.87 2.01
993.424 2.12 2.13 2.28 2.3 2.07 1.95 1.72 1.47 1.54 1.54
1012.714 1.29 1.29 1.4 1.25 1.45 1.49 1.6 1.8 1.55 1.25
1032.003 0.9943 0.9017 1.02 1.03 1.1 1.22 1.39 1.34 1.04 1.02
1051.293 0.9434 1.05 1.26 1.28 1.19 1.14 1.15 1.27 1.27 1.25
1070.583 1.3 1.48 1.68 1.91 1.79 1.8 2.08 2.04 2.29 2.17
1089.873 2.2 2.01 1.63 1.93 1.68 1.15 1.31 1.33 1.28 1.22
1109.163 0.9167 0.996 1.07 0.7939 1.16 1.42 1.02 0.7377 0.7992 1.29
1128.452 1.35 1.2 1.12 1.01 0.9766 1.31 1.73 1.88 2.11 2.06
1147.742 1.88 1.66 1.79 1.85 1.51 1.39 1.35 1.12 1.01 0.8831
1167.032 0.6717 0.7146 0.8074 0.9577 0.9059 0.7977 1 0.9308 0.9779 1.35
1186.322 1.13 1.04 1.22 1.17 1.14 1.29 1.6 1.96 2.39 2.45
1205.611 2.32 2.54 2.77 2.8 2.63 2.44 2.09 1.77 1.97 1.92
1224.901 1.83 1.78 1.69 1.35 0.9319 1.02 1.52 1.97 1.96 2.02
1244.191 2.38 3.06 3.57 3.72 4.07 4.54 4.61 4.6 4.58 4.35
1263.481 4.16 3.96 3.54 3.03 2.59 2.4 2.4 2.44 2.47 2.63
1282.771 2.79 3 3.43 3.77 4.06 4.49 4.96 5.36 5.77 6.21
1302.060 6.74 7.29 7.83 8.58 9.44 10.39 11.54 12.87 14.38 15.94
1321.350 17.52 18.95 20.16 21.1 21.51 21.44 21 20.21 18.95 17.51
1340.640 15.94 14.28 12.78 11.35 10.09 8.94 7.81 6.77 5.89 5.19
1359.930 4.63 4.11 3.68 3.39 3.13 2.85 2.64 2.51 2.34 2.14
1379.219 1.99 1.91 1.9 1.88 1.86 1.9 1.96 2.04 2.15 2.26
1398.509 2.28 2.2 2.11 1.97 1.86 1.83 1.75 1.59 1.47 1.44
1417.799 1.37 1.35 1.33 1.31 1.3 1.22 1.21 1.19 1.17 1.19
1437.089 1.18 1.19 1.21 1.23 1.17 1.15 1.25 1.27 1.27 1.37
1456.378 1.44 1.41 1.44 1.49 1.48 1.38 1.29 1.22 1.11 1.04
1475.668 0.9948 0.9731 0.9625 0.9825 1.04 1.1 1.17 1.29 1.5 1.73
1494.958 2.03 2.37 2.67 3.03 3.42 3.6 3.71 3.76 3.64 3.44
1514.248 3.29 3.1 2.69 2.29 2.01 1.9 1.87 1.76 1.63 1.61
1533.538 1.7 1.76 1.76 1.8 1.85 1.94 2.05 2.08 2.26 2.5
1552.827 2.67 2.98 3.31 3.69 4.3 4.96 5.88 7.13 8.67 10.64
1572.117 12.95 15.16 17.35 19.32 20.57 21.32 21.43 20.64 19.22 17.43
1591.407 15.26 13 10.88 9.13 7.77 6.61 5.69 4.91 4.24 3.72
1610.697 3.38 3.07 2.79 2.68 2.58 2.49 2.39 2.27 2.26 2.27
1629.986 2.22 2.12 2.09 2.14 2.11 2.12 2.21 2.19 2.12 2.18
1649.276 2.23 2.21 2.32 2.5 2.63 2.7 2.89 3.1 3.35 3.62
1668.566 3.89 4.26 4.64 5.09 5.54 5.94 6.42 6.87 7.35 7.83
1687.856 8.28 8.77 9.35 10.04 10.9 12.17 14.06 16.79 20.02 24.14
1707.146 28.73 33.52 38.21 42.62 46.69 49.39 49.43 46.77 42.42 37.65
1726.435 32.86 27.89 22.92 18.59 15 12.29 10.38 8.93 7.87 7.07
1745.725 6.43 5.83 5.33 4.86 4.42 4.08 3.71 3.44 3.3 3.14
1765.015 2.98 2.85 2.74 2.57 2.43 2.29 2.1 1.93 1.74 1.6
1784.305 1.44 1.26 1.17 1.05 1.01 0.9281 0.8218 0.9075 1.02 1.09
1803.594 1.12 1.21 1.28 1.3 1.34 1.41 1.38 1.3 1.24 1.17
1822.884 1.13 1.07 1.01 0.9629 0.9179 0.9188 0.8976 0.8405 0.7654 0.7843
1842.174 0.8629 0.8161 0.7329 0.7283 0.6939 0.7021 0.7203 0.6996 0.6517 0.6906
1861.464 0.7908 0.7485 0.7779 0.8681 0.8976 0.8165 0.8039 0.8262 0.8101 0.8085
1880.754 0.8068 0.777 0.7278 0.7733 0.7517 0.7308 0.755 0.7288 0.6685 0.6659
1900.043 0.716 0.7521 0.8304 0.8693 0.8844 0.9458 0.9999 1.11 1.14 1.11
1919.333 1.16 1.25 1.3 1.22 1.19 1.2 1.22 1.21 1.19 1.1
1938.623 0.9757 0.9417 0.8711 0.8855 0.9356 0.8916 0.8576 0.7987 0.7284 0.657
1957.913 0.5874 0.5494 0.5197 0.5184 0.5202 0.4857 0.4183 0.4254 0.5098 0.5014
1977.202 0.3996 0.3598 0.3576 0.3585 0.3957 0.4412 0.436 0.4291 0.4251 0.3824
1996.492 0.3345 0.2925 0.2738 0.2772 0.3278 0.2833 0.2669 0.3269 0.3173 0.337
2015.782 0.3742 0.3367 0.3402 0.4444 0.4247 0.3682 0.3725 0.3276 0.3522 0.375
2035.072 0.3378 0.3913 0.3837 0.3789 0.4242 0.4167 0.4428 0.4731 0.4614 0.4672
2054.362 0.472 0.3675 0.3391 0.3991 0.3539 0.3232 0.4344 0.4572 0.3787 0.3544
2073.651 0.3688 0.376 0.4017 0.4295 0.4286 0.4091 0.3181 0.336 0.4513 0.4147
2092.941 0.3854 0.3483 0.3093 0.3391 0.3785 0.3834 0.3475 0.4121 0.4254 0.3391
2112.231 0.3222 0.3525 0.3151 0.3036 0.3179 0.3467 0.3551 0.3205 0.3492 0.3531
2131.521 0.3941 0.4245 0.3665 0.3868 0.4086 0.3566 0.3246 0.3442 0.3595 0.3845
2150.810 0.3968 0.3292 0.2818 0.2971 0.333 0.3432 0.3373 0.3092 0.2842 0.308
2170.100 0.3447 0.3064 0.3059 0.3933 0.3901 0.3787 0.3747 0.3782 0.4038 0.392
2189.390 0.3401 0.3005 0.2994 0.3176 0.2991 0.2856 0.3115 0.3444 0.4043 0.4273
2208.680 0.3858 0.3793 0.3726 0.331 0.3413 0.3634 0.3609 0.4153 0.4695 0.388
2227.970 0.2986 0.2618 0.3297 0.3763 0.3395 0.3416 0.3544 0.3991 0.4673 0.4472
2247.259 0.3825 0.4114 0.422 0.4162 0.3994 0.3949 0.4216 0.4047 0.4073 0.398
2266.549 0.4435 0.4502 0.4205 0.4207 0.3904 0.4004 0.4117 0.3535 0.3568 0.415
2285.839 0.4261 0.3979 0.3633 0.3991 0.4052 0.4198 0.502 0.5265 0.4697 0.4153
2305.129 0.3462 0.3825 0.4514 0.4336 0.4306 0.4118 0.4278 0.4835 0.4767 0.4422
2324.418 0.4432 0.4713 0.4598 0.3589 0.3183 0.3427 0.3295 0.317 0.3309 0.3617
2343.708 0.3705 0.4169 0.4267 0.389 0.4202 0.4325 0.3928 0.3038 0.375 0.407
2362.998 0.2551 0.1954 0.2316 0.345 0.4193 0.4278 0.458 0.4706 0.3787 0.3411
2382.288 0.32 0.318 0.4264 0.4691 0.4159 0.4143 0.5148 0.5022 0.4462 0.4546
2401.578 0.4724 0.4601 0.4365 0.4543 0.4618 0.4743 0.5609 0.5527 0.5039 0.4889
2420.867 0.4598 0.456 0.502 0.4652 0.3792 0.4532 0.4742 0.4689 0.4823 0.4436
2440.157 0.4196 0.4061 0.3728 0.338 0.3353 0.3771 0.3484 0.3142 0.3198 0.2985
2459.447 0.2762 0.3348 0.3795 0.2678 0.2475 0.4005 0.4469 0.3848 0.343 0.3109
2478.737 0.4109 0.4441 0.308 0.2376 0.206 0.2916 0.3533 0.3066 0.263 0.3211
2498.026 0.3954 0.3455 0.2763 0.2434 0.3373 0.4149 0.4324 0.3688 0.2359 0.2845
2517.316 0.3504 0.3573 0.3974 0.3771 0.351 0.3533 0.3681 0.4074 0.3008 0.2743
2536.606 0.3493 0.3168 0.287 0.3841 0.4843 0.4073 0.3148 0.3269 0.37 0.3086
2555.896 0.3278 0.3625 0.3799 0.3749 0.3278 0.3284 0.3798 0.4139 0.3987 0.3875
2575.186 0.3569 0.3686 0.4146 0.4214 0.3843 0.3942 0.3907 0.3353 0.3714 0.4065
2594.475 0.4041 0.3909 0.3235 0.2959 0.3003 0.3419 0.4829 0.4887 0.3373 0.2981
2613.765 0.3504 0.4021 0.4339 0.3952 0.4116 0.3692 0.3083 0.3539 0.3672 0.4389
2633.055 0.4854 0.5263 0.5001 0.3557 0.2615 0.2934 0.3249 0.3527 0.3831 0.4293
2652.345 0.4575 0.4294 0.338 0.2662 0.3349 0.3604 0.2855 0.23 0.2385 0.3339
2671.634 0.4313 0.3692 0.405 0.4439 0.3595 0.3285 0.3805 0.414 0.3551 0.3119
2690.924 0.36 0.3727 0.3395 0.3768 0.4093 0.4523 0.4671 0.4751 0.4761 0.4107
2710.214 0.3658 0.3749 0.4003 0.3829 0.3858 0.4306 0.4394 0.5118 0.5012 0.4569
2729.504 0.3742 0.3282 0.4756 0.5096 0.4552 0.3869 0.3212 0.27 0.3365 0.4042
2748.794 0.3957 0.331 0.2154 0.3238 0.4047 0.3173 0.3379 0.4144 0.4572 0.4559
2768.083 0.4292 0.4502 0.5241 0.4731 0.4013 0.3184 0.2393 0.3192 0.4247 0.4939
2787.373 0.4934 0.4414 0.3746 0.3482 0.407 0.4951 0.5562 0.5254 0.3744 0.341
2806.663 0.4446 0.4571 0.377 0.4021 0.4716 0.4551 0.4634 0.4415 0.3729 0.4048
2825.953 0.3593 0.3522 0.4214 0.3601 0.3688 0.4022 0.3778 0.2746 0.3356 0.4312
2845.242 0.4808 0.5314 0.4379 0.4245 0.4248 0.4112 0.4632 0.494 0.5434 0.5613
2864.532 0.4265 0.292 0.353 0.3264 0.2203 0.3858 0.4759 0.4301 0.3256 0.3521
2883.822 0.4387 0.3822 0.4321 0.5476 0.5665 0.5531 0.6302 0.5267 0.3442 0.3356
2903.112 0.4925 0.5078 0.3829 0.3982 0.468 0.4493 0.4003 0.4527 0.4281 0.4257
2922.401 0.5226 0.5124 0.4918 0.5383 0.5414 0.4935 0.4536 0.4895 0.5184 0.6176
2941.691 0.665 0.6512 0.6596 0.6961 0.7711 0.7496 0.6989 0.6466 0.6562 0.6083
2960.981 0.5765 0.6198 0.5345 0.5583 0.5796 0.5137 0.5495 0.6419 0.6354 0.5444
2980.271 0.4506 0.448 0.5825 0.7045 0.809 0.6337 0.597 0.8895 0.9539 0.9624
2999.561 1.14 1.14 1.04 1.15 1.35 1.38 1.23 1.32 1.5 1.47
3018.850 1.38 1.42 1.49 1.58 1.7 1.8 1.95 1.96 2.08 2.54
3038.140 2.9 3.26 3.91 4.6 5.31 6.11 6.61 7.02 7.58 8.03
3057.430 8.48 8.67 8.62 8.5 8.32 7.98 7.57 7.12 6.51 5.91
3076.720 5.29 4.86 4.5 4.13 4.08 4.03 3.86 3.89 3.79 3.5
3096.009 3.32 3.09 2.76 2.39 1.95 1.67 1.54 1.34 1.08 0.9098
3115.299 0.7927 0.6866 0.742 0.6289 0.4697 0.6291 0.8031 0.8283 0.6349 0.4479
3134.589 0.4864 0.5228 0.4896 0.6117 0.8522 0.8524 0.6844 0.6838 0.5678 0.5727
3153.879 0.5403 0.3944 0.4624 0.5576 0.7105 0.6589 0.566 0.6487 0.6228 0.5069
3173.169 0.5068 0.4917 0.5761 0.7103 0.6457 0.4843 0.3983 0.3659 0.3287 0.4438
3192.458 0.4156 0.302 0.3035 0.2928 0.4083 0.5138 0.5492 0.5523 0.4494 0.3836
3211.748 0.4358 0.4882 0.3974 0.3816 0.3937 0.4517 0.5681 0.6529 0.6097 0.449
3231.038 0.2702 0.2628 0.4136 0.4496 0.5437 0.6197 0.5557 0.4966 0.4729 0.409
3250.328 0.3624 0.3867 0.3647 0.3533 0.426 0.4182 0.3916 0.4386 0.47 0.3186
3269.617 0.2163 0.2974 0.3836 0.2897 0.1531 0.2575 0.3917 0.3151 0.2584 0.2746
3288.907 0.382 0.5049 0.455 0.3828 0.4545 0.5618 0.5057 0.4776 0.4186 0.4764
3308.197 0.4474 0.2769 0.3338 0.39 0.3587 0.32 0.1971 0.1086 0.1867 0.2372
3327.487 0.3406 0.4286 0.333 0.2625 0.186 0.3091 0.4901 0.4004 0.4287 0.4888
3346.777 0.3584 0.2816 0.3006 0.4067 0.4073 0.269 0.29 0.4155 0.4662 0.6081
3366.066 0.6218 0.5891 0.7365 0.6414 0.5191 0.55 0.7016 0.8149 0.6838 0.6658
3385.356 0.7447 0.8064 0.9684 0.9797 0.9342 1.03 1.31 1.48 1.64 1.96
3404.646 2.26 2.53 2.71 3.08 3.66 4.03 4.3 4.46 4.65 5
3423.936 5.22 5.31 5.3 5.34 5.31 5.07 4.5 3.89 3.44 2.88
3443.225 2.34 2.01 1.74 1.42 1.33 1.24 1.04 0.951 0.884 0.8844
3462.515 0.9483 0.7673 0.7865 0.8719 0.6328 0.6151 0.688 0.6648 0.7087 0.714
3481.805 0.7002 0.7297 0.7434 0.7575 0.8861 0.8862 0.8126 0.7963 0.8005 0.955
3501.095 0.935 0.9268 0.9829 1.05 1.19 1.18 1.31 1.56 1.62 1.83
3520.385 2.01 2.06 2.11 2.22 2.45 2.54 2.73 2.88 2.94 3.04
3539.674 3.12 3.3 3.7 3.96 3.86 3.77 3.96 4.01 3.67 3.23
3558.964 2.86 2.65 2.34 1.93 1.56 1.22 0.9562 0.7549 0.7434 0.6184
3578.254 0.4959 0.6384 0.7628 0.7667 0.7462 0.5568 0.4158 0.5431 0.4766 0.2967
3597.544 0.1802 0.1668 0.3111 0.4104 0.2417 0.3076 0.5642 0.4677 0.414 0.3927
3616.833 0.3922 0.4889 0.5199 0.393 0.3039 0.3642 0.3995 0.3201 0.2992 0.3199
3636.123 0.2298 0.285 0.2933 0.3392 0.352 0.3671 0.4852 0.3939 0.4123 0.3956
3655.413 0.287 0.3979 0.4712 0.2337 0.1415 0.1525 0.1075 0.2 0.2063 0.2472
3674.703 0.3631 0.4112 0.3514 0.2602 0.3322 0.3584 0.2925 0.2605 0.1497 0.1778
3693.993 0.3287 0.3962 0.4107 0.3739 0.3831 0.4742 0.5334 0.4945 0.4002 0.3947
3713.282 0.3531 0.2837 0.328 0.3285 0.4075 0.3992 0.3153 0.3978 0.3126 0.347
3732.572 0.4185 0.3314 0.3591 0.3751 0.4004 0.5365 0.5662 0.4654 0.392 0.4678
3751.862 0.6027 0.4783 0.3091 0.2491 0.3298 0.5267 0.4962 0.3144 0.3052 0.4231
3771.152 0.488 0.4454 0.402 0.3432 0.2507 0.198 0.215 0.2636 0.4134 0.4515
3790.441 0.3619 0.3367 0.2205 0.1855 0.2777 0.1374 0.2259 0.3949 0.351 0.4178
3809.731 0.3374 0.3316 0.3933 0.2561 0.1863 0.2828 0.3911 0.4412 0.4595 0.2909
3829.021 0.2004 0.3551 0.4 0.5317 0.7016 0.5543 0.4302 0.5789 0.55 0.3555
3848.311 0.2978 0.2236 0.3759 0.4894 0.4241 0.4164 0.2639 0.3269 0.4932 0.2362
3867.601 0.08326 0.2887 0.4724 0.446 0.3355 0.3206 0.3171 0.3548 0.3094 0.2302
3886.890 0.2518 0.2992 0.463 0.493 0.4142 0.424 0.3447 0.1164 0.2513 0.4009
3906.180 0.2487 0.2092 0.2607 0.296 0.294 0.2433 0.1651 0.2959 0.5416 0.5741
3925.470 0.4432 0.3547 0.3788 0.3143 0.3044 0.2755 0.3128 0.3644 0.2749 0.2615
3944.760 0.3711 0.5178 0.534 0.3567 0.1563 0.211 0.3539 0.4163 0.3721 0.3657
3964.049 0.2246 0.1303 0.2683 0.4447 0.3194 0.201 0.3549 0.417 0.3791 0.493
3983.339 0.5435 0.233 0.07622 0.3176 0.4497 0.406 0.3374 0.3179 0.3396 0.3421
##END=
