##TITLE=Pentamethylbenzoic acid
##JCAMP-DX=4.24
##DATA TYPE=INFRARED SPECTRUM
##ORIGIN=EPA-IR VAPOR PHASE LIBRARY
##OWNER=SRD/NIST
Collection (C) 2018 copyright by the U.S. Secretary of Commerce
on behalf of the United States of America. All rights reserved.
##CAS REGISTRY NO=2243-32-5
##MOLFORM=C 12 H 16 O 2
##$NIST SOURCE=MSDC-IR
##STATE=gas
##XUNITS=1/CM
##YUNITS=ABSORBANCE
##XFACTOR=1.
##YFACTOR=0.001
##DELTAX=1.92898
##FIRSTX=549.8
##LASTX=4000.7
##FIRSTY=2.2622
##MAXX=4000.7
##MINX=549.759
##MAXY=0.0994922
##MINY=0
##NPOINTS=1790
##XYDATA=(X++(Y..Y))
549.759 2.2622 2.1922 2.3622 2.3722 2.3922 2.4022 2.5222 2.7622 3.1222 3.3222
569.049 3.7422 4.4122 4.6222 5.1622 5.8222 6.2722 6.8422 7.3622 8.0222 8.5522
588.339 9.1122 9.7522 10.5022 11.3722 12.0822 13.1522 14.1122 14.6222 14.7822 14.6322
607.628 14.0922 13.1722 12.1122 10.9422 9.9422 8.9722 7.8222 7.1322 7.1222 7.4822
626.918 8.0022 8.2622 8.3322 8.1722 7.7222 7.2922 6.9622 6.6822 6.5422 6.7022
646.208 7.8922 10.4822 13.7622 15.8422 16.8522 18.0622 17.2822 15.4622 14.0522 11.3522
665.498 8.0422 5.3522 3.7322 2.9022 2.3322 1.9522 1.8222 1.5422 1.1922 1.0922
684.787 1.0501 0.9632 0.9513 0.9836 0.9096 0.8828 1.011 1.1922 1.2622 1.1222
704.077 1.1522 1.1722 1.0257 1.1022 1.1522 1.0575 0.9983 0.9037 0.8081 0.908
723.367 1.0301 0.9809 0.9351 1.0906 1.2322 1.5422 1.9522 2.3522 2.9622 3.5322
742.657 4.2122 4.9522 5.5822 5.8422 5.8222 5.7522 5.3622 4.8822 4.4322 4.0522
761.947 3.7122 3.4822 3.5222 3.7422 4.1722 4.4622 4.6722 5.0822 5.0322 4.6022
781.236 3.8822 3.3722 3.0222 2.6922 2.3622 2.0222 1.7922 1.5522 1.5322 1.4622
800.526 1.5022 1.4222 1.0657 0.957 1.0893 0.8841 0.6576 0.923 1.1022 1.0095
819.816 1.0076 0.9787 0.9442 1.1322 1.3522 1.5422 1.6822 2.0122 2.4022 2.7222
839.106 2.8722 2.7622 2.8822 2.8722 2.5622 2.2222 2.0122 1.6122 1.1822 1.1422
858.395 1.1422 1.0175 0.7742 0.747 0.8958 0.8865 0.9163 1.0656 1.0163 0.9063
877.685 0.9213 0.9758 1.0825 1.1022 1.2022 1.1822 1.0921 1.1422 1.1122 1.1622
896.975 1.1322 0.9747 0.9309 0.9231 1.0323 1.0296 0.9595 0.9993 1.0136 1.031
916.265 1.0469 1.1622 1.2122 1.2022 1.2822 1.3422 1.4522 1.6622 1.7722 1.8822
935.555 2.2022 2.4922 2.7122 3.0522 3.6022 4.0622 4.2622 4.5922 4.8222 4.8722
954.844 4.8722 4.8222 4.4522 4.1722 4.0822 3.8422 3.7322 3.6222 3.4722 3.3522
974.134 3.3222 3.3322 3.1522 3.1622 3.4122 3.5122 3.6122 3.8122 3.8622 3.9622
993.424 4.2122 4.5422 4.8422 5.1122 5.7122 6.4122 6.9722 7.4222 7.8022 8.3222
1012.714 9.0222 9.4922 9.9422 10.5222 10.8122 10.9122 10.7322 10.4022 9.8722 9.0222
1032.003 8.4122 7.6822 6.9422 6.6622 6.1922 5.8422 5.6422 5.4522 5.4622 5.4522
1051.293 5.3922 5.5422 6.0022 6.4822 6.9122 7.4222 7.8822 8.1922 8.3122 8.4722
1070.583 8.6722 8.6222 8.5222 8.2322 7.6922 7.6922 7.9722 7.8822 7.8222 7.7822
1089.873 7.8122 7.6722 7.4822 7.3722 7.4422 7.8022 8.2822 8.9322 9.6922 10.8422
1109.163 12.2322 14.2022 16.7022 19.6222 23.4922 28.5322 34.9322 42.1422 50.3422 59.0622
1128.452 67.0722 73.7722 78.8322 80.9922 79.8322 75.4622 68.6422 60.3422 51.0122 41.7922
1147.742 33.3822 26.6622 21.4522 17.0122 13.8622 12.1322 10.7822 9.6822 9.0122 8.3522
1167.032 7.7922 7.6522 7.5622 7.4322 7.1022 6.6522 6.5822 6.5222 6.1822 5.9222
1186.322 5.7422 5.5722 5.4022 4.9022 4.4022 4.5322 4.6322 4.4822 4.1922 4.0322
1205.611 3.9022 3.9022 3.9622 4.1322 4.2522 4.3922 4.7822 4.8522 4.8422 5.2822
1224.901 5.5722 5.6222 5.7822 6.1322 6.5322 6.5522 6.5522 6.4522 6.0522 5.5822
1244.191 5.2122 4.7522 4.2422 3.9422 3.9222 4.1522 4.1422 3.9822 4.0022 4.3422
1263.481 4.7822 5.2222 5.7522 6.3922 6.9822 7.4822 7.8422 8.1022 8.3222 8.1922
1282.771 7.9022 7.5322 7.2222 7.0622 6.8722 6.8422 7.2022 7.7322 8.5322 9.4422
1302.060 10.3422 11.3822 12.4222 13.5122 14.5622 15.4922 16.2722 16.8222 17.2022 17.3522
1321.350 17.1422 16.5922 15.7522 14.6322 13.3022 11.9022 10.5322 9.2622 8.1522 7.2922
1340.640 6.6222 6.0722 5.6222 5.3422 5.1222 4.8622 4.7322 4.6822 4.5822 4.4822
1359.930 4.4622 4.4722 4.4722 4.4022 4.3922 4.4522 4.6022 4.8222 5.0222 5.2822
1379.219 5.6722 6.0422 6.3622 6.6922 6.9522 7.0622 7.1022 7.0822 6.9822 6.9622
1398.509 6.9022 6.8322 6.8622 6.9422 7.0122 7.1522 7.3822 7.6122 7.9522 8.2922
1417.799 8.5522 8.8622 9.1822 9.3822 9.4922 9.5622 9.5422 9.4822 9.3622 9.1722
1437.089 8.9722 8.7522 8.5522 8.3822 8.1722 8.0222 7.9322 7.7722 7.6522 7.5822
1456.378 7.4622 7.3522 7.2622 7.2122 7.1122 6.9922 6.8822 6.7722 6.6822 6.5422
1475.668 6.4022 6.2622 6.1022 5.9622 5.8022 5.6522 5.5222 5.4422 5.3622 5.2222
1494.958 5.0922 4.9422 4.7522 4.6622 4.5922 4.4022 4.2422 4.1722 4.0022 3.7722
1514.248 3.7222 3.6822 3.5922 3.5422 3.4722 3.3922 3.3722 3.3522 3.2722 3.2922
1533.538 3.2722 3.2322 3.2522 3.1522 3.1522 3.1922 3.1822 3.2022 3.2322 3.3122
1552.827 3.4122 3.4922 3.6322 3.7122 3.7822 3.8922 3.9422 3.9722 3.9822 4.0322
1572.117 3.9722 3.9222 3.9122 3.8022 3.7022 3.5822 3.4022 3.2322 3.1622 3.0822
1591.407 2.9222 2.8022 2.6822 2.5322 2.4122 2.3222 2.1922 2.1322 2.0822 1.9722
1610.697 1.8822 1.8322 1.7222 1.6922 1.6622 1.5622 1.5622 1.5722 1.4922 1.4622
1629.986 1.4522 1.4022 1.3922 1.3522 1.3222 1.3822 1.4222 1.3722 1.2522 1.2522
1649.276 1.2922 1.2722 1.2722 1.2322 1.1522 1.1822 1.2022 1.2522 1.3022 1.3122
1668.566 1.3922 1.4322 1.5622 1.6222 1.6422 1.7122 1.8122 1.9222 2.0922 2.3322
1687.856 2.4722 2.6422 2.8322 3.0922 3.3722 3.6122 3.8922 4.2422 4.6422 5.0322
1707.146 5.3422 5.6222 5.9622 6.2522 6.5022 6.6922 6.8522 6.9022 6.8022 6.9022
1726.435 7.0722 7.2922 7.7322 8.3722 9.2122 10.4722 12.2622 14.6422 17.9122 22.4022
1745.725 28.1622 35.5022 44.5622 55.0322 66.2622 77.3722 87.5222 95.3322 99.4922 98.6622
1765.015 92.2522 81.9022 69.9722 58.1922 46.7122 36.5922 28.4822 22.4822 18.4122 15.7322
1784.305 14.1922 13.3322 12.8122 12.5022 12.2622 11.9622 11.5522 11.0522 10.4822 9.8622
1803.594 9.2622 8.6422 7.9222 7.1522 6.3422 5.4822 4.6922 4.0222 3.4222 2.9822
1822.884 2.6922 2.4522 2.2822 2.1322 1.9822 1.8322 1.7322 1.6722 1.6022 1.4922
1842.174 1.3722 1.3122 1.2622 1.1622 1.0854 1.0305 0.9811 0.9403 0.9124 0.8473
1861.464 0.7673 0.7524 0.7144 0.7011 0.7221 0.6795 0.6589 0.6499 0.6317 0.7061
1880.754 0.7767 0.7731 0.7158 0.7225 0.773 0.7189 0.7171 0.7221 0.6798 0.7288
1900.043 0.7869 0.7745 0.7258 0.6966 0.7552 0.7627 0.7147 0.6473 0.6047 0.6142
1919.333 0.5894 0.5578 0.5749 0.572 0.5475 0.5415 0.5519 0.5301 0.4795 0.4905
1938.623 0.5053 0.5328 0.526 0.4757 0.4704 0.4359 0.3997 0.4187 0.4025 0.3574
1957.913 0.3831 0.3816 0.41 0.425 0.4244 0.4695 0.488 0.446 0.4243 0.4544
1977.202 0.4523 0.4565 0.4499 0.4146 0.3842 0.4173 0.4381 0.4081 0.3529 0.3072
1996.492 0.3822 0.3919 0.3519 0.4037 0.3936 0.3413 0.3035 0.3222 0.3895 0.3723
2015.782 0.3029 0.3424 0.3742 0.358 0.3976 0.4286 0.431 0.3851 0.3748 0.4202
2035.072 0.435 0.4197 0.3899 0.4031 0.4378 0.4742 0.3873 0.333 0.3855 0.4214
2054.362 0.4102 0.3444 0.3374 0.3543 0.3789 0.4177 0.4107 0.4049 0.4093 0.4042
2073.651 0.4056 0.4234 0.3947 0.3841 0.408 0.4273 0.4509 0.3984 0.4465 0.4913
2092.941 0.414 0.3922 0.413 0.4258 0.4216 0.4405 0.4475 0.4734 0.4678 0.3807
2112.231 0.3673 0.4016 0.4666 0.453 0.4369 0.4632 0.4558 0.4847 0.5114 0.4827
2131.521 0.4432 0.4387 0.4322 0.4157 0.3939 0.4117 0.4759 0.4792 0.4573 0.498
2150.810 0.4817 0.3904 0.3656 0.3781 0.3607 0.3645 0.4203 0.4273 0.385 0.3874
2170.100 0.3792 0.3169 0.2913 0.3386 0.3586 0.3671 0.3415 0.2988 0.2778 0.3145
2189.390 0.3648 0.2995 0.3226 0.427 0.3645 0.2899 0.3436 0.366 0.3856 0.391
2208.680 0.3464 0.3309 0.3144 0.2985 0.3672 0.4086 0.3302 0.3331 0.4027 0.3444
2227.970 0.2735 0.3195 0.3458 0.3524 0.3796 0.3238 0.3197 0.3493 0.3725 0.4494
2247.259 0.4077 0.4251 0.4979 0.5265 0.5839 0.5548 0.5032 0.4841 0.4949 0.5258
2266.549 0.5508 0.5476 0.4628 0.4478 0.4575 0.3835 0.3413 0.3874 0.3422 0.3108
2285.839 0.3101 0.314 0.4175 0.4133 0.3319 0.2917 0.2582 0.2627 0.2283 0.2594
2305.129 0.3548 0.3553 0.3708 0.379 0.3816 0.3357 0.3256 0.3797 0.3825 0.3585
2324.418 0.3463 0.3348 0.3529 0.3813 0.3572 0.312 0.315 0.3364 0.3043 0.2996
2343.708 0.4166 0.4397 0.3602 0.3919 0.4269 0.4357 0.4745 0.5265 0.478 0.4045
2362.998 0.4375 0.4561 0.4232 0.3812 0.3981 0.4173 0.353 0.3898 0.4399 0.3785
2382.288 0.4228 0.4998 0.4382 0.3774 0.4138 0.3808 0.3864 0.4597 0.4742 0.4477
2401.578 0.4416 0.5032 0.5555 0.5165 0.5018 0.5582 0.5119 0.4692 0.516 0.539
2420.867 0.5535 0.594 0.6029 0.5817 0.585 0.5878 0.6135 0.5713 0.521 0.5322
2440.157 0.5223 0.5504 0.578 0.5954 0.5546 0.5807 0.6186 0.4901 0.449 0.4993
2459.447 0.5054 0.4931 0.4961 0.5237 0.5724 0.531 0.4487 0.4562 0.4308 0.4493
2478.737 0.4453 0.4374 0.4992 0.4468 0.4095 0.5084 0.5437 0.409 0.3728 0.3986
2498.026 0.3653 0.4108 0.4618 0.4486 0.4397 0.4716 0.4909 0.4628 0.4445 0.4764
2517.316 0.4562 0.3845 0.3899 0.4349 0.4795 0.4594 0.3778 0.4519 0.5491 0.4801
2536.606 0.4889 0.5064 0.4329 0.3859 0.4355 0.4495 0.4015 0.4072 0.368 0.3247
2555.896 0.3623 0.4439 0.4263 0.3833 0.4132 0.3862 0.3219 0.2882 0.2799 0.2807
2575.186 0.2888 0.3383 0.3301 0.2961 0.2535 0.3605 0.3734 0.3124 0.4022 0.4221
2594.475 0.4172 0.4085 0.4103 0.3665 0.3187 0.391 0.4885 0.4621 0.3067 0.2666
2613.765 0.3662 0.3955 0.4176 0.3589 0.266 0.316 0.353 0.3883 0.3568 0.267
2633.055 0.2993 0.3972 0.4411 0.3757 0.374 0.3676 0.3169 0.3889 0.3647 0.3438
2652.345 0.4072 0.4083 0.4397 0.4062 0.3835 0.3894 0.44 0.5307 0.5419 0.4677
2671.634 0.3272 0.2693 0.3268 0.3956 0.4965 0.5146 0.5029 0.5177 0.5637 0.5539
2690.924 0.4585 0.4597 0.4565 0.4222 0.5144 0.5405 0.5378 0.6436 0.584 0.5368
2710.214 0.5861 0.6047 0.6377 0.6772 0.6986 0.7475 0.8729 0.9431 0.8378 0.761
2729.504 0.8496 0.9807 1.1322 1.2422 1.3322 1.3922 1.4522 1.4622 1.3722 1.4022
2748.794 1.5122 1.4322 1.3022 1.2322 1.2322 1.2622 1.1722 1.2122 1.2222 1.1922
2768.083 1.2022 1.1522 1.1422 1.1322 1.0652 1.1222 1.1822 1.2322 1.2422 1.2122
2787.373 1.2922 1.3322 1.3722 1.3122 1.2722 1.3822 1.4722 1.4522 1.4322 1.4722
2806.663 1.5622 1.6022 1.5822 1.6622 1.7822 1.8322 1.8422 1.8722 1.9622 2.1322
2825.953 2.2822 2.3822 2.4222 2.4722 2.5822 2.7022 2.9122 3.0622 3.2522 3.5822
2845.242 3.7022 3.9122 4.2822 4.5322 4.8022 5.0622 5.5622 6.2122 6.7822 7.3822
2864.532 8.0422 8.7522 9.5122 10.2422 11.0222 11.6722 12.2222 12.7922 13.2022 13.5422
2883.822 13.8622 13.9822 14.0822 14.1422 14.0722 14.0722 14.0422 14.0422 14.1422 14.3622
2903.112 14.6022 14.7222 14.9222 15.1622 15.5622 16.0222 16.5622 17.1122 17.5722 18.1522
2922.401 18.7922 19.4822 20.1422 20.8822 21.7622 22.4922 23.1222 23.6722 24.2222 24.7522
2941.691 24.8622 24.7622 24.5122 24.0322 23.5022 22.7222 21.7422 20.8122 19.7222 18.6422
2960.981 17.6922 16.7022 15.7122 14.8122 14.0922 13.3222 12.6422 12.1422 11.6122 11.1922
2980.271 10.8522 10.6022 10.4722 10.2822 10.1622 10.1222 10.0022 9.9122 9.9922 10.0622
2999.561 10.0822 10.1422 10.1422 10.0122 9.8922 9.8922 9.9322 9.8422 9.8022 9.7422
3018.850 9.6722 9.7022 9.5122 9.3822 9.3322 9.1222 8.9622 8.8022 8.6422 8.4622
3038.140 8.2822 8.1122 7.9722 7.8222 7.5222 7.2422 7.0822 6.8422 6.5422 6.3722
3057.430 6.1622 5.8322 5.6422 5.5122 5.2722 4.9822 4.7622 4.6022 4.4222 4.1722
3076.720 4.0522 3.9822 3.7322 3.5822 3.4022 3.2222 3.2122 3.1122 3.0122 2.8922
3096.009 2.8022 2.6122 2.4422 2.3722 2.2322 2.0422 1.9222 1.9522 1.8622 1.7422
3115.299 1.6322 1.6222 1.5822 1.4022 1.4822 1.5122 1.3422 1.3922 1.4122 1.2822
3134.589 1.2722 1.1822 1.08 1.0916 1.1022 1.0355 0.9407 0.9636 0.9464 0.9567
3153.879 1.0546 0.9831 0.8263 0.8763 0.8474 0.8351 0.8546 0.8088 0.7092 0.5773
3173.169 0.5578 0.6228 0.6818 0.7083 0.7105 0.7185 0.7979 0.6965 0.4975 0.5539
3192.458 0.6398 0.5646 0.4492 0.454 0.5564 0.5283 0.4637 0.3458 0.3067 0.3576
3211.748 0.3291 0.49 0.4905 0.3091 0.3724 0.4512 0.4048 0.436 0.4533 0.4369
3231.038 0.3707 0.3184 0.3381 0.3339 0.4213 0.3613 0.3152 0.4133 0.4009 0.3562
3250.328 0.4652 0.4676 0.2734 0.1928 0.287 0.485 0.5551 0.4415 0.4045 0.4073
3269.617 0.4301 0.5072 0.5294 0.4465 0.3656 0.4453 0.4561 0.3973 0.3058 0.18453
3288.907 0.2826 0.48 0.4885 0.3916 0.3653 0.3881 0.2982 0.2629 0.3185 0.4867
3308.197 0.4556 0.2056 0.2773 0.324 0.3014 0.2689 0.3836 0.4648 0.2998 0.3585
3327.487 0.3536 0.282 0.2551 0.3411 0.4096 0.4299 0.4781 0.476 0.5897 0.5044
3346.777 0.2672 0.3315 0.4507 0.3074 0.2506 0.2408 0.3043 0.3288 0.375 0.4654
3366.066 0.3445 0.2786 0.289 0.2984 0.3721 0.4158 0.4268 0.3424 0.2593 0.2965
3385.356 0.286 0.3383 0.452 0.446 0.3557 0.272 0.19019 0.2141 0.2756 0.3226
3404.646 0.3918 0.3596 0.2843 0.1969 0.2454 0.3758 0.3784 0.2571 0.09071 0.15591
3423.936 0.2834 0.2873 0.3195 0.3069 0.4403 0.4882 0.4161 0.3924 0.3454 0.2881
3443.225 0.2426 0.2384 0.2288 0.2733 0.14765 0.2185 0.3627 0.3715 0.4296 0.3446
3462.515 0.3497 0.4779 0.6746 0.6315 0.62 0.6837 0.4914 0.3654 0.3055 0.5106
3481.805 0.777 0.7808 0.7309 0.764 0.7185 0.7216 0.8365 0.906 0.9622 0.9306
3501.095 0.8348 0.846 0.9789 1.0374 1.0743 1.0849 1.0712 1.1422 1.0922 0.9474
3520.385 0.8904 0.9499 0.9758 0.909 0.9729 1.1622 1.3222 1.4422 1.7022 2.0922
3539.674 2.8122 4.0322 6.0422 9.1822 13.5422 18.9022 23.7822 27.1322 28.9622 29.4022
3558.964 28.2022 25.4022 21.4222 16.2722 10.8922 6.8022 4.3322 2.8822 2.0622 1.5622
3578.254 1.1722 1.059 1.0268 0.8396 0.6657 0.7536 0.7965 0.698 0.8722 0.9197
3597.544 0.8231 0.903 1.0516 1.1422 1.1522 1.2222 1.2922 1.4622 1.5522 1.3822
3616.833 1.1122 1.1122 1.0506 0.7897 0.7241 0.6865 0.6565 0.4885 0.3538 0.3823
3636.123 0.3693 0.4624 0.5082 0.3768 0.4013 0.4877 0.4587 0.376 0.2727 0.2734
3655.413 0.3423 0.3783 0.5348 0.6203 0.4976 0.426 0.3058 0.2988 0.3004 0.2971
3674.703 0.4094 0.4363 0.3706 0.2182 0.2507 0.3381 0.1981 0.17178 0.2402 0.14532
3693.993 0.15754 0.2505 0.2522 0.2414 0.3113 0.3654 0.3538 0.3301 0.2155 0.1875
3713.282 0.234 0.3688 0.4339 0.3207 0.2423 0.2352 0.3843 0.4113 0.3303 0.3346
3732.572 0.3568 0.4102 0.4196 0.4088 0.3942 0.4098 0.2999 0.14052 0.12948 0.2804
3751.862 0.2643 0.17235 0.14436 0.0872 0.2017 0.2043 0.15837 0.2669 0.3267 0.3956
3771.152 0.5019 0.3665 0.2479 0.2703 0.2561 0.3132 0.4043 0.4203 0.3044 0.2387
3790.441 0.2088 0.2204 0.2257 0.18408 0.1995 0.2508 0.2436 0.2389 0.3431 0.27
3809.731 0.18471 0.2663 0.266 0.11794 0.13201 0.3438 0.4253 0.3644 0.3346 0.3099
3829.021 0.2938 0.197 0.2863 0.4592 0.299 0.16665 0.13464 0.2026 0.3288 0.2826
3848.311 0.15557 0.2595 0.4385 0.4417 0.4457 0.473 0.4815 0.5305 0.3105 0
3867.601 0.16241 0.36 0.2921 0.3134 0.3508 0.2828 0.2789 0.2182 0.16387 0.2363
3886.890 0.3357 0.3617 0.3846 0.4065 0.4374 0.4746 0.5064 0.4893 0.3578 0.3466
3906.180 0.4409 0.3382 0.2924 0.3444 0.3512 0.4489 0.3649 0.3155 0.2175 0.15132
3925.470 0.2477 0.33 0.3935 0.3655 0.4226 0.416 0.4468 0.4593 0.3683 0.4147
3944.760 0.4849 0.3595 0.2298 0.2808 0.15118 0.2139 0.492 0.4467 0.3376 0.4173
3964.049 0.6324 0.6547 0.5384 0.3461 0.306 0.3309 0.3309 0.4031 0.3953 0.4228
3983.339 0.5449 0.5119 0.4512 0.5 0.3627 0.2267 0.3052 0.4658 0.5148 0.4289
##END=
