##TITLE=1-Undecyne
##JCAMP-DX=4.24
##DATA TYPE=INFRARED SPECTRUM
##ORIGIN=NIST Mass Spectrometry Data Center
##OWNER=NIST Standard Reference Data Program
Collection (C) 2018 copyright by the U.S. Secretary of Commerce
on behalf of the United States of America. All rights reserved.
##CAS REGISTRY NO=2243-98-3
##MOLFORM=C 11 H 20
##$NIST SOURCE=MSDC-IR
##SPECTROMETER/DATA SYSTEM=HP-GC/MS/IRD
##STATE=gas
##XUNITS=1/CM
##YUNITS=ABSORBANCE
##XFACTOR=1.0
##YFACTOR=0.000005100
##DELTAX=4.0
##FIRSTX=550.0
##LASTX=3846.0
##FIRSTY=0.000709
##MAXX=3846
##MINX=550
##MAXY=0.051
##MINY=0
##NPOINTS=825
##XYDATA=(X++(Y..Y))
550.0 139 130 121 126 103 73 75 92 101 112
590.0 129 171 226 287 402 604 910 1327 1884 2803
630.0 4061 4471 3632 2599 1773 1128 703 454 302 210
670.0 164 131 97 77 61 52 65 77 93 118
710.0 133 146 159 151 146 146 136 126 111 102
750.0 96 83 79 73 61 57 56 52 41 31
790.0 26 28 29 24 13 6 18 10 0 12
830.0 16 11 11 18 20 16 18 20 16 9
870.0 8 13 17 21 26 33 38 32 26 35
910.0 36 33 35 37 37 37 34 27 27 27
950.0 24 26 32 30 26 27 26 27 27 21
990.0 14 13 17 14 20 23 19 20 24 32
1030.0 32 32 38 43 42 42 47 42 40 42
1070.0 42 37 34 33 32 27 23 29 30 32
1110.0 39 39 36 31 33 32 18 12 16 19
1150.0 19 17 20 26 35 40 31 32 40 41
1190.0 49 53 52 64 80 92 105 133 173 229
1230.0 327 480 693 943 1117 1115 944 684 480 362
1270.0 287 247 223 203 191 187 191 203 212 218
1310.0 228 236 250 269 282 291 303 314 314 319
1350.0 328 320 301 281 258 245 240 242 243 227
1390.0 198 167 146 138 139 146 156 175 206 258
1430.0 342 446 544 617 668 724 790 840 850 797
1470.0 698 575 442 333 253 195 153 128 110 92
1510.0 78 73 66 55 50 45 42 39 33 31
1550.0 30 26 25 25 24 25 26 23 25 25
1590.0 21 18 19 21 22 17 15 17 17 12
1630.0 11 10 8 9 8 8 4 1 2 3
1670.0 5 6 4 2 5 5 4 4 2 3
1710.0 3 4 1 0 3 6 6 4 3 2
1750.0 2 3 3 5 5 3 1 2 6 6
1790.0 5 1 2 2 0 2 4 4 2 0
1830.0 2 1 0 0 0 1 2 0 2 4
1870.0 5 6 6 9 8 4 4 6 6 2
1910.0 0 1 0 0 2 4 3 4 5 5
1950.0 2 3 3 2 3 3 3 3 4 5
1990.0 3 7 7 6 7 8 12 14 15 19
2030.0 17 19 19 16 16 17 18 18 16 19
2070.0 24 26 26 32 43 55 71 93 122 155
2110.0 188 212 226 215 176 129 85 54 40 31
2150.0 24 20 16 16 15 15 16 15 13 11
2190.0 9 8 9 8 10 8 10 10 8 10
2230.0 7 5 6 10 8 5 5 4 4 6
2270.0 7 5 5 6 8 9 7 7 8 7
2310.0 7 8 10 10 10 15 13 11 13 11
2350.0 10 12 10 7 9 8 8 11 11 7
2390.0 8 14 13 10 7 8 9 10 9 6
2430.0 4 2 0 2 4 2 1 0 2 4
2470.0 2 4 6 2 0 3 3 4 7 5
2510.0 5 12 11 10 17 19 15 14 17 19
2550.0 15 15 20 22 24 28 28 28 31 34
2590.0 33 33 36 39 43 45 46 46 45 51
2630.0 55 57 61 68 70 70 73 77 83 92
2670.0 97 101 98 99 100 105 109 105 93 86
2710.0 84 82 85 90 94 101 109 112 114 118
2750.0 125 127 125 126 132 136 146 158 170 187
2790.0 208 225 250 278 304 335 373 422 476 537
2830.0 612 725 886 1116 1451 1917 2493 3075 3512 3704
2870.0 3630 3388 3108 2855 2648 2498 2462 2591 2888 3341
2910.0 3964 4776 5818 7069 8373 9442 10000 9941 9323 8289
2950.0 7047 5882 5020 4505 4150 3704 3083 2375 1761 1340
2990.0 1058 859 718 607 528 466 409 362 327 291
3030.0 262 238 214 192 173 158 145 136 135 124
3070.0 113 108 99 95 94 89 85 78 73 80
3110.0 83 71 67 62 59 59 60 60 57 58
3150.0 53 46 47 45 43 41 40 42 41 38
3190.0 34 28 23 18 12 18 23 22 21 20
3230.0 24 27 25 27 34 41 49 56 70 85
3270.0 105 132 160 203 253 306 357 437 590 741
3310.0 844 896 994 1324 1600 1624 1349 872 564 405
3350.0 309 259 210 161 119 88 70 52 42 35
3390.0 28 25 23 18 19 17 9 8 14 13
3430.0 8 9 10 11 6 5 16 12 9 7
3470.0 3 5 2 6 10 5 1 4 4 1
3510.0 0 1 2 7 13 7 0 5 5 0
3550.0 4 9 2 3 6 7 9 4 4 7
3590.0 3 4 5 4 6 9 17 14 11 12
3630.0 14 18 14 15 19 21 22 20 21 27
3670.0 27 24 23 17 14 19 18 17 20 17
3710.0 13 15 13 13 13 17 19 19 20 19
3750.0 16 20 23 24 28 30 28 26 31 27
3790.0 19 20 22 24 21 23 26 23 30 29
3830.0 30 32 25 14 16
##END=
