##TITLE=3,5-Dimethylbenzonitrile
##JCAMP-DX=4.24
##DATA TYPE=INFRARED SPECTRUM
##ORIGIN=EPA-IR VAPOR PHASE LIBRARY
##OWNER=SRD/NIST
Collection (C) 2018 copyright by the U.S. Secretary of Commerce
on behalf of the United States of America. All rights reserved.
##CAS REGISTRY NO=22445-42-7
##MOLFORM=C 9 H 9 N
##$NIST SOURCE=MSDC-IR
##STATE=gas
##XUNITS=1/CM
##YUNITS=ABSORBANCE
##XFACTOR=1.
##YFACTOR=0.001
##DELTAX=1.92898
##FIRSTX=549.8
##LASTX=4000.7
##FIRSTY=1.5835
##MAXX=4000.7
##MINX=549.759
##MAXY=0.0532835
##MINY=0
##NPOINTS=1790
##XYDATA=(X++(Y..Y))
549.759 1.5835 1.5635 1.6535 1.9435 1.8435 1.7135 1.5835 1.4135 1.4435 1.2835
569.049 0.9268 0.6585 0.7886 1.1535 1.0632 0.9126 0.8092 0.6226 0.6803 0.7925
588.339 0.6726 0.32 0.4921 0.7763 0.4304 0.3374 0.3858 0.2611 0.31 0.1944
607.628 0.15761 0.3166 0.4697 0.6089 0.451 0.4069 0.4552 0.3929 0.2831 0.2302
626.918 0.3425 0.4223 0.2947 0.3393 0.4539 0.4922 0.7476 0.8813 0.7596 0.6313
646.208 0.648 0.8894 1.0041 1.1835 1.4235 1.3935 1.5035 2.1035 2.9635 4.0135
665.498 5.2935 6.9335 8.8535 11.0035 13.4135 15.7335 16.9135 17.5635 20.3935 29.0335
684.787 36.7035 29.2535 18.1935 15.2335 15.0935 14.8635 13.7435 11.9735 9.7035 7.6035
704.077 5.9935 4.8835 4.2235 3.7335 3.1335 2.7635 2.5235 2.1235 1.8635 1.6635
723.367 1.4935 1.3835 1.3135 1.1735 1.1335 0.9722 0.8604 0.9769 0.9784 1.0207
742.657 1.079 1.021 0.9118 0.8751 0.9378 0.8779 0.7713 0.731 0.8119 1.0058
761.947 1.1035 1.1035 1.1235 1.3935 1.6535 1.9535 2.1335 2.1035 2.1035 2.1335
781.236 2.0835 1.9735 1.7335 1.6435 1.6635 1.5535 1.2735 0.9664 1.0304 1.0232
800.526 0.9269 0.9848 1.0599 0.9996 0.9546 1.0903 1.0923 0.905 0.9209 1.0264
819.816 1.0214 1.1335 1.3935 1.7335 2.1535 2.8235 4.0835 5.9935 8.3635 11.4235
839.106 15.0635 18.6235 21.3135 23.6835 26.3635 31.2635 41.1935 53.2535 53.2835 38.4235
858.395 27.8935 25.5735 24.1335 21.9735 18.7935 15.2435 11.8135 8.7335 6.4235 5.0035
877.685 4.0135 3.3535 2.9435 3.0935 3.5335 3.7535 3.8335 3.9735 4.0935 4.3135
896.975 4.8635 5.5135 6.2235 6.9035 7.0635 6.5435 6.0435 5.8635 5.4835 5.1035
916.265 5.0235 4.5835 3.8835 3.5835 3.2035 2.6235 2.2535 2.0335 2.0035 2.0835
935.555 1.9335 1.9635 2.3735 2.6435 2.6635 2.5335 2.4835 2.5935 2.6735 2.6235
954.844 2.4335 2.2935 2.3635 2.5435 2.4635 2.2235 2.3835 2.5035 2.3735 2.4035
974.134 2.5635 2.5535 2.6135 2.8935 3.1735 3.2935 3.3435 3.5635 3.9735 4.3435
993.424 4.5935 5.0335 5.3135 5.3535 5.4435 5.5335 5.4435 5.0435 4.5635 4.2135
1012.714 3.9135 3.5435 3.0535 2.8035 2.7735 2.3935 2.3035 2.4035 2.0835 2.1335
1032.003 2.4735 2.6135 2.9435 3.2935 3.4535 3.7835 4.0435 4.0735 4.2535 4.4335
1051.293 4.4735 4.5335 4.6835 4.5835 4.2435 4.1535 3.9335 3.7735 3.9735 3.9835
1070.583 3.8635 3.6335 3.0835 2.9435 2.6335 2.4735 2.4835 2.0335 1.8435 1.8735
1089.873 1.9235 1.9035 1.6835 1.6335 1.8535 1.5035 1.3835 1.6635 1.5635 1.3135
1109.163 1.3135 1.6335 1.7835 1.6035 1.2435 1.1635 1.2035 1.1135 1.1335 1.3435
1128.452 1.2235 1.2035 1.0041 0.9776 1.4835 1.6435 1.7135 1.7335 1.9735 2.3235
1147.742 2.5835 2.7135 3.0135 3.2735 3.4935 3.6035 3.7335 3.5135 3.2835 3.0035
1167.032 2.5235 2.3335 2.0135 1.7535 1.8235 1.7335 1.5135 1.5235 1.6235 1.6335
1186.322 1.5535 1.5435 1.5535 1.5835 1.3735 1.3435 1.4735 1.3935 1.3135 1.3435
1205.611 1.4235 1.2435 1.1635 1.1935 1.0363 1.1435 1.4935 1.6635 1.3235 1.3335
1224.901 1.6135 1.5035 1.2035 1.2235 1.3635 1.6735 2.0035 1.9735 1.9735 2.1135
1244.191 2.4635 2.8835 3.1435 3.5835 4.1635 4.5935 4.9535 5.1035 5.2535 5.1635
1263.481 5.1135 5.2935 4.9335 4.5035 4.3735 4.1935 3.9635 3.6935 3.6835 3.6635
1282.771 3.5935 3.7135 3.9235 4.2035 4.5335 4.8835 5.0535 5.1635 5.2435 5.3435
1302.060 5.3935 5.3235 5.0035 4.6435 4.3435 4.1535 4.0235 3.7435 3.4235 3.1035
1321.350 2.7735 2.5835 2.5235 2.4235 2.3835 2.4935 2.5835 2.6335 2.7235 2.8235
1340.640 2.9035 3.0135 3.1735 3.3635 3.5235 3.6635 3.8835 4.1435 4.3735 4.6235
1359.930 4.8235 4.9135 5.0435 5.2135 5.3535 5.5135 5.7835 6.1335 6.4935 6.8735
1379.219 7.2835 7.5835 7.7935 7.9735 8.1435 8.1735 7.9735 7.5235 6.9235 6.3335
1398.509 5.8235 5.4235 5.1135 4.9235 4.8135 4.8635 4.9735 5.0835 5.2835 5.5035
1417.799 5.8535 6.4135 7.0635 7.8135 8.7035 9.7235 10.8335 12.0235 13.2135 14.1635
1437.089 15.0835 15.8835 16.3935 16.7435 16.9535 16.9635 16.7335 16.3235 15.8035 15.1735
1456.378 14.4935 13.9435 13.5035 13.1235 12.8135 12.4835 12.2635 12.1535 12.2535 12.6035
1475.668 13.0635 13.3735 13.4035 13.3735 13.3935 13.3835 13.3735 13.3435 13.2235 12.9535
1494.958 12.6535 12.4935 12.4035 12.3035 12.1235 11.9635 11.7935 11.5135 11.2235 10.9935
1514.248 10.7635 10.5635 10.4535 10.4235 10.5235 10.6535 10.8435 11.0635 11.2435 11.4435
1533.538 11.5535 11.5535 11.4035 11.1635 11.0335 10.8435 10.5435 10.0335 9.7235 9.5535
1552.827 9.3435 9.2135 9.1135 9.1635 9.3535 9.5835 9.8435 10.1335 10.5335 10.9035
1572.117 11.2235 11.8135 12.5035 13.2635 14.2535 15.6935 17.5235 19.7235 22.4535 25.8435
1591.407 29.8335 34.2635 38.9435 43.2635 46.5635 48.2835 48.2235 46.4035 43.4235 39.8735
1610.697 35.5835 30.3835 24.9035 19.5635 14.9135 11.2335 8.3335 6.2635 4.8135 3.8435
1629.986 3.1735 2.6835 2.3435 2.0935 1.9535 1.8635 1.7735 1.6935 1.6435 1.6935
1649.276 1.6235 1.5235 1.4435 1.3335 1.2935 1.2335 1.1835 1.2135 1.2335 1.1735
1668.566 1.1435 1.0923 1.0499 1.0581 0.9615 0.9282 0.9312 0.9238 0.9527 0.9918
1687.856 1.0106 0.9522 0.9118 0.8799 0.8575 0.9176 0.9761 0.9952 1.0579 1.1635
1707.146 1.2035 1.2635 1.3735 1.5535 1.8235 2.0035 2.1435 2.3335 2.5135 2.6035
1726.435 2.7135 2.7835 2.8735 3.0035 3.0935 3.2635 3.6335 4.0135 4.3935 4.7535
1745.725 5.0035 5.2635 5.4535 5.5235 5.5335 5.4135 5.1735 4.9335 4.6635 4.3635
1765.015 4.0835 3.9135 3.8735 3.8435 3.9035 3.9935 4.0235 4.0335 3.9135 3.8235
1784.305 3.7335 3.5535 3.3635 3.1035 2.7735 2.4635 2.1435 1.9235 1.7135 1.5535
1803.594 1.5435 1.5035 1.3935 1.2935 1.1835 1.0717 0.9749 0.9959 0.9834 0.8454
1822.884 0.8064 0.7844 0.7454 0.7964 0.8029 0.7581 0.7991 0.793 0.7497 0.724
1842.174 0.7149 0.7262 0.7085 0.6937 0.6845 0.7272 0.7452 0.7137 0.6946 0.6393
1861.464 0.5822 0.5938 0.601 0.6127 0.6778 0.6842 0.6962 0.7105 0.6553 0.6843
1880.754 0.7901 0.8764 0.908 0.8666 0.8746 0.958 1.0054 1.016 1.0692 1.074
1900.043 1.0346 1.0351 1.0094 1.0018 1.0011 0.9746 0.923 0.8725 0.8548 0.8479
1919.333 0.8673 0.8598 0.8359 0.8396 0.8898 0.9514 0.952 0.9609 0.9921 1.0083
1938.623 1.0445 1.0667 1.0595 1.0067 0.9489 0.9513 0.8984 0.7999 0.7635 0.8485
1957.913 0.8356 0.7474 0.6907 0.6118 0.5702 0.5393 0.5267 0.568 0.565 0.4905
1977.202 0.465 0.4664 0.4376 0.4664 0.4958 0.4967 0.5186 0.4505 0.4131 0.4273
1996.492 0.4267 0.459 0.4073 0.3169 0.2997 0.3616 0.4194 0.3902 0.3165 0.322
2015.782 0.2966 0.2161 0.2589 0.3105 0.3008 0.2867 0.2851 0.34 0.3453 0.2938
2035.072 0.3158 0.3073 0.2782 0.2804 0.2953 0.3243 0.3264 0.3113 0.3041 0.2761
2054.362 0.3312 0.3474 0.3344 0.3622 0.3331 0.3558 0.3504 0.3574 0.3726 0.3881
2073.651 0.4259 0.4203 0.4472 0.4411 0.4343 0.434 0.3923 0.391 0.4157 0.4361
2092.941 0.434 0.4329 0.4144 0.4079 0.5333 0.6159 0.5577 0.5364 0.5137 0.4529
2112.231 0.4311 0.4224 0.3968 0.3885 0.4092 0.391 0.324 0.2732 0.2957 0.3041
2131.521 0.3509 0.3246 0.324 0.398 0.4229 0.4889 0.5126 0.5109 0.5363 0.5676
2150.810 0.5503 0.5297 0.5866 0.5676 0.5554 0.5786 0.6012 0.6245 0.6162 0.5692
2170.100 0.5304 0.5846 0.6102 0.585 0.5529 0.5938 0.6341 0.6589 0.6977 0.7153
2189.390 0.774 0.8353 0.8738 0.9134 0.9707 1.0562 1.1735 1.3435 1.5035 1.6335
2208.680 1.7835 2.0135 2.3835 2.9135 3.5235 4.3035 5.4135 6.7335 8.1435 9.6635
2227.970 11.1435 12.4235 13.3935 13.9435 14.0935 13.8335 13.1835 12.1735 10.7335 8.9035
2247.259 6.9335 4.9435 3.2835 2.1035 1.3835 1.065 0.9476 0.8613 0.7693 0.684
2266.549 0.6126 0.6323 0.6729 0.7304 0.7659 0.7817 0.7401 0.7393 0.7776 0.795
2285.839 0.8248 0.8179 0.8044 0.8209 0.9005 0.9177 0.9329 0.9551 0.9476 0.9526
2305.129 1.0043 1.0056 0.8907 0.8847 0.9809 0.9912 0.8953 0.8963 0.9727 0.9443
2324.418 0.9386 1.0036 1.0391 0.9765 0.8798 0.8088 0.746 0.7823 0.7746 0.6774
2343.708 0.6184 0.5819 0.5543 0.5593 0.6102 0.6319 0.6805 0.7898 0.8279 0.79
2362.998 0.8177 0.8035 0.7552 0.8012 0.8169 0.8289 0.7584 0.6744 0.687 0.7404
2382.288 0.7565 0.7586 0.7541 0.6774 0.6278 0.5979 0.6125 0.6393 0.6874 0.6734
2401.578 0.6767 0.7574 0.7481 0.7543 0.7683 0.7909 0.8421 0.9013 0.9886 0.9565
2420.867 0.8656 0.9322 1.0201 1.0302 1.044 1.0795 1.0697 1.0007 0.9852 0.9892
2440.157 0.9926 0.9931 0.9359 0.9301 0.9479 0.9578 0.9298 0.9119 0.9281 0.8353
2459.447 0.7351 0.7053 0.7559 0.7552 0.7108 0.753 0.8039 0.8 0.6981 0.6651
2478.737 0.6852 0.5983 0.5815 0.5947 0.5227 0.5198 0.5991 0.5819 0.5407 0.5415
2498.026 0.5483 0.5922 0.5522 0.5733 0.5885 0.551 0.603 0.6476 0.6443 0.5656
2517.316 0.5379 0.5635 0.569 0.5449 0.5742 0.6362 0.6616 0.6985 0.6935 0.6274
2536.606 0.5987 0.5924 0.6286 0.7212 0.7659 0.7134 0.6712 0.7035 0.7034 0.6554
2555.896 0.6498 0.6814 0.6322 0.6235 0.6521 0.6249 0.6897 0.7278 0.6986 0.7247
2575.186 0.7469 0.6886 0.6671 0.7164 0.6849 0.6665 0.7997 0.8667 0.7535 0.6454
2594.475 0.6375 0.5928 0.7007 0.7553 0.6911 0.6979 0.6269 0.6371 0.6303 0.5319
2613.765 0.5049 0.5492 0.6538 0.69 0.6789 0.7385 0.6429 0.5088 0.5071 0.488
2633.055 0.4646 0.3989 0.3117 0.4094 0.4057 0.3066 0.3154 0.3076 0.3737 0.4607
2652.345 0.4219 0.3996 0.4149 0.3926 0.4294 0.4567 0.4282 0.4832 0.5507 0.5821
2671.634 0.6751 0.8 0.7827 0.6973 0.8453 0.9307 0.855 0.8617 0.9293 1.0197
2690.924 0.9436 0.9029 0.9696 0.8849 0.8486 0.9171 0.8889 0.7795 0.6307 0.5118
2710.214 0.5547 0.6551 0.6544 0.6178 0.5842 0.6898 0.8073 0.7991 0.8448 1.0136
2729.504 1.1135 1.2235 1.4335 1.5735 1.7535 1.9935 2.2435 2.4535 2.4735 2.4535
2748.794 2.5335 2.5935 2.5935 2.4235 2.2035 1.9835 1.8035 1.6335 1.4435 1.2535
2768.083 1.1335 0.9815 0.8705 0.9205 0.9212 0.9076 0.9253 0.9632 0.9536 0.9179
2787.373 0.9852 1.0084 1.0436 1.0935 1.1135 1.1835 1.2835 1.3535 1.3735 1.4735
2806.663 1.6135 1.6535 1.7435 1.8435 1.9035 1.9835 2.1435 2.3935 2.4835 2.6635
2825.953 2.9135 3.0435 3.1235 3.1235 3.3835 3.7835 4.0035 4.2535 4.5335 4.8635
2845.242 5.1635 5.5035 5.9435 6.4135 7.0335 7.7735 8.5935 9.5035 10.5035 11.7135
2864.532 12.9435 14.0835 15.2935 16.2935 16.9735 17.6835 18.1335 18.3035 18.2935 18.0035
2883.822 17.5935 16.9835 16.3635 15.8835 15.4735 15.3235 15.2735 15.1935 15.5835 16.1335
2903.112 16.6335 17.4535 18.4235 19.3235 20.4035 21.6935 23.2035 25.1835 27.4735 30.1135
2922.401 33.0535 36.0235 38.7435 40.8835 42.4135 43.3535 43.7735 43.7335 43.1735 41.8335
2941.691 39.7135 37.1335 34.2935 31.4035 28.7235 26.2535 24.0035 21.9135 20.0735 18.4835
2960.981 17.0635 15.8935 15.0335 14.3335 13.4435 12.5335 11.8135 11.3135 10.9835 10.7735
2980.271 10.7935 10.9335 11.2935 11.8435 12.3235 12.9735 13.7335 14.4935 15.3335 16.2035
2999.561 17.0135 17.8635 18.8535 19.9935 21.0635 22.0035 22.8635 23.4135 23.7235 23.9035
3018.850 23.8835 23.9135 23.8335 23.6535 23.4735 23.2535 23.0735 23.1135 23.2435 23.1135
3038.140 22.8735 22.4535 22.0735 21.7535 21.1135 20.4035 19.7735 19.0235 18.3835 17.7435
3057.430 16.8535 15.9335 14.9835 14.0135 13.1235 12.2935 11.4535 10.5035 9.5835 8.7035
3076.720 7.7635 6.8935 6.2635 5.7935 5.4635 5.0835 4.6835 4.4135 4.2135 3.8735
3096.009 3.5735 3.3035 2.9035 2.7235 2.7235 2.5535 2.4035 2.2535 2.0735 2.1235
3115.299 2.0835 1.9935 1.9135 1.7135 1.6135 1.5735 1.4535 1.3935 1.2835 1.2235
3134.589 1.2335 1.2435 1.0665 0.9834 1.0815 1.0331 0.9168 0.8444 0.8923 0.971
3153.879 0.9866 1.0422 1.0397 1.0004 0.8832 0.8237 0.8515 0.7646 0.9186 1.0007
3173.169 0.8225 0.6285 0.6291 0.8231 0.839 0.6931 0.5967 0.5718 0.6508 0.6542
3192.458 0.6214 0.7707 0.8606 0.7624 0.6504 0.7057 0.7745 0.7471 0.7026 0.6708
3211.748 0.6488 0.6494 0.6391 0.6121 0.5836 0.554 0.6798 0.6111 0.4297 0.3868
3231.038 0.2863 0.3829 0.5486 0.5137 0.5007 0.5143 0.4622 0.4263 0.4066 0.4235
3250.328 0.3633 0.3613 0.4575 0.3466 0.3279 0.3457 0.3825 0.584 0.5239 0.3797
3269.617 0.4415 0.4509 0.4458 0.3406 0.286 0.3655 0.4946 0.4488 0.3744 0.4303
3288.907 0.3618 0.4282 0.399 0.3415 0.3548 0.2706 0.3467 0.3497 0.2832 0.2798
3308.197 0.2059 0.3238 0.3655 0.2662 0.2279 0.2479 0.3237 0.3376 0.2941 0.2059
3327.487 0.2744 0.3125 0.2361 0.304 0.3664 0.414 0.3847 0.248 0.2676 0.3941
3346.777 0.3814 0.243 0.2655 0.244 0.215 0.2294 0.206 0.3276 0.3761 0.4838
3366.066 0.491 0.3332 0.3273 0.3817 0.431 0.3314 0.2286 0.5144 0.6127 0.5822
3385.356 0.637 0.6559 0.6917 0.641 0.6166 0.4793 0.3711 0.4457 0.5127 0.4444
3404.646 0.3906 0.4488 0.5243 0.5388 0.4536 0.3714 0.4502 0.4198 0.3764 0.5503
3423.936 0.5756 0.4042 0.4421 0.554 0.4861 0.3562 0.4517 0.5152 0.4035 0.347
3443.225 0.3397 0.4104 0.368 0.2586 0.2409 0.2313 0.3158 0.3407 0.3843 0.5664
3462.515 0.7034 0.7247 0.4738 0.3036 0.4432 0.41 0.2729 0.301 0.3991 0.57
3481.805 0.5413 0.3986 0.42 0.4985 0.562 0.3675 0.1943 0.2321 0.2367 0.3666
3501.095 0.4886 0.4254 0.4069 0.508 0.5539 0.6265 0.6437 0.6498 0.7492 0.8304
3520.385 0.8091 0.7254 0.631 0.5522 0.7301 1.0011 0.9208 0.7642 0.6681 0.6082
3539.674 0.6002 0.6794 0.5165 0.3551 0.517 0.5661 0.5928 0.411 0.3498 0.3315
3558.964 0.251 0.3149 0.4022 0.5981 0.4628 0.3335 0.4145 0.3738 0.3797 0.3421
3578.254 0.3185 0.2826 0.3645 0.3997 0.4117 0.4199 0.3633 0.3514 0.2462 0.3121
3597.544 0.4514 0.3323 0.2565 0.4189 0.3621 0.2037 0.15262 0.169 0.18981 0.291
3616.833 0.2374 0.15925 0.31 0.4495 0.4533 0.2259 0.16928 0.3287 0.2565 0.1381
3636.123 0.2754 0.3884 0.3691 0.382 0.2886 0.1974 0.2158 0.0823 0 0.0938543
3655.413 0.15714 0.14078 0.2473 0.2917 0.293 0.308 0.3667 0.4411 0.3106 0.11215
3674.703 0.079 0.2527 0.2382 0.2986 0.3251 0.17427 0.17864 0.2394 0.331 0.15361
3693.993 0.026 0.18644 0.2889 0.3663 0.2969 0.3559 0.4393 0.16102 0.11503 0.2659
3713.282 0.2617 0.2374 0.3333 0.2465 0.15044 0.3919 0.4957 0.4732 0.4245 0.2718
3732.572 0.3291 0.3999 0.17276 0.0936178 0.13318 0.13178 0.194 0.2471 0.2276 0.102531
3751.862 0.0388 0.1937 0.2266 0.3053 0.3485 0.2686 0.2848 0.3077 0.3759 0.5117
3771.152 0.3805 0.2002 0.2582 0.3887 0.4927 0.3438 0.3408 0.3597 0.2415 0.2779
3790.441 0.2648 0.3241 0.3839 0.3995 0.5008 0.5414 0.3336 0.2316 0.3471 0.4408
3809.731 0.4755 0.3717 0.485 0.5345 0.3881 0.3264 0.18768 0.244 0.4691 0.4954
3829.021 0.377 0.4373 0.4977 0.5031 0.6942 0.6749 0.6119 0.6536 0.551 0.4894
3848.311 0.5282 0.5396 0.4719 0.398 0.3943 0.4411 0.4288 0.4099 0.2502 0.217
3867.601 0.4427 0.4323 0.401 0.3541 0.2467 0.3694 0.5861 0.4135 0.2634 0.3663
3886.890 0.3885 0.4213 0.4568 0.6303 0.6813 0.5844 0.5813 0.6004 0.6699 0.6892
3906.180 0.6228 0.5498 0.5034 0.4689 0.6174 0.7093 0.6507 0.5728 0.5056 0.5835
3925.470 0.7063 0.7017 0.4779 0.5424 0.7396 0.8599 0.8078 0.6304 0.625 0.6961
3944.760 0.7319 0.7108 0.4941 0.4056 0.4483 0.7089 0.8315 0.5623 0.5479 0.5149
3964.049 0.3947 0.49 0.658 0.6393 0.6642 0.7254 0.5724 0.3704 0.5159 0.6705
3983.339 0.5838 0.6016 0.8287 0.8051 0.5672 0.5762 0.8317 0.8114 0.6856 0.8218
##END=
