##TITLE=(3-(4-Methoxyphenyl)propionitrile
##JCAMP-DX=4.24
##DATA TYPE=INFRARED SPECTRUM
##ORIGIN=EPA-IR VAPOR PHASE LIBRARY
##OWNER=SRD/NIST
Collection (C) 2018 copyright by the U.S. Secretary of Commerce
on behalf of the United States of America. All rights reserved.
##CAS REGISTRY NO=22442-48-4
##MOLFORM=C 10 H 11 N O
##$NIST SOURCE=MSDC-IR
##STATE=gas
##XUNITS=1/CM
##YUNITS=ABSORBANCE
##XFACTOR=1.
##YFACTOR=0.001
##DELTAX=1.92898
##FIRSTX=549.8
##LASTX=4000.7
##FIRSTY=4.757
##MAXX=4000.7
##MINX=549.759
##MAXY=0.103357
##MINY=0
##NPOINTS=1790
##XYDATA=(X++(Y..Y))
549.759 4.757 5.077 4.967 4.627 4.707 5.057 4.967 4.877 4.797 4.537
569.049 4.207 4.277 4.367 4.507 4.717 4.487 4.127 3.757 3.377 3.027
588.339 2.797 2.547 2.187 1.987 1.797 1.527 1.587 1.697 1.517 1.327
607.628 1.0875 1.0164 1.1186 0.9681 0.9085 1.0481 1.0002 0.8463 0.6787 0.7001
626.918 0.6675 0.7086 0.7759 0.7936 0.9057 0.9184 0.8501 0.8462 0.7895 0.6279
646.208 0.5776 0.5768 0.7213 0.5847 0.4119 0.5294 0.4568 0.6148 0.7567 0.6359
665.498 0.6071 0.6228 0.7073 0.7682 0.8144 0.8095 0.9091 1.1652 1.307 1.377
684.787 1.627 1.787 2.177 2.727 3.067 3.437 3.677 3.767 3.857 3.797
704.077 3.507 3.137 2.677 2.447 2.187 1.927 1.877 1.857 1.887 1.857
723.367 1.757 1.747 1.627 1.587 1.597 1.497 1.427 1.417 1.487 1.687
742.657 1.797 1.977 2.227 2.117 2.057 2.287 2.447 2.277 2.037 1.947
761.947 1.817 1.687 1.617 1.687 1.817 1.867 1.787 1.907 2.187 2.337
781.236 2.607 2.757 2.997 3.567 4.027 4.507 5.257 5.777 6.467 7.377
800.526 7.927 8.627 9.417 10.067 10.737 11.387 12.157 12.687 13.167 13.737
819.816 14.237 14.857 15.277 15.647 15.997 16.017 15.767 15.507 14.967 14.057
839.106 12.977 11.727 10.267 8.867 7.567 6.367 5.517 4.527 3.697 3.227
858.395 2.777 2.527 2.097 1.747 1.807 1.727 1.737 1.807 1.507 1.377
877.685 1.327 1.184 1.267 1.267 1.297 1.2058 1.0392 1.1163 1.217 1.152
896.975 1.0552 0.9461 0.9808 1.0947 1.024 1.0632 1.0949 1.131 1.407 1.567
916.265 1.457 1.437 1.537 1.657 1.967 2.057 1.827 1.797 1.707 1.577
935.555 1.457 1.347 1.417 1.357 1.357 1.347 1.477 1.447 1.1974 1.217
954.844 1.427 1.567 1.627 1.407 1.367 1.757 1.877 2.007 2.167 2.097
974.134 2.057 2.197 2.447 2.607 2.627 2.647 2.697 2.977 3.157 3.207
993.424 3.477 3.587 3.547 3.787 4.147 4.227 4.527 4.957 5.357 5.827
1012.714 6.507 7.267 7.967 8.707 9.657 11.027 12.557 14.167 15.857 17.677
1032.003 19.627 21.377 22.527 23.307 23.807 23.877 23.297 22.037 20.157 17.997
1051.293 15.727 13.877 11.807 9.727 8.257 7.187 6.347 5.447 4.747 4.057
1070.583 3.637 3.697 3.527 3.107 3.197 3.097 3.107 3.137 2.697 2.497
1089.873 3.047 3.507 3.257 3.217 3.507 3.867 4.257 4.517 4.537 4.767
1109.163 4.847 4.827 4.767 4.337 4.067 3.757 3.487 3.437 3.797 3.567
1128.452 2.977 2.867 2.687 2.817 2.887 2.367 2.337 2.587 2.577 2.937
1147.742 3.137 3.237 3.527 3.837 4.247 4.567 5.137 6.507 8.097 10.117
1167.032 12.827 16.417 20.427 24.157 26.537 27.567 27.547 26.367 24.017 20.207
1186.322 16.057 12.707 10.267 8.537 7.537 7.087 6.697 6.227 6.047 6.257
1205.611 6.467 6.837 7.497 7.927 8.657 9.647 10.227 11.327 12.897 13.987
1224.901 15.467 18.197 21.327 24.887 29.437 35.027 42.007 50.617 60.857 72.167
1244.191 83.287 93.147 100.357 103.357 102.177 97.077 88.527 77.717 65.857 54.347
1263.481 44.527 37.217 32.137 28.717 26.507 24.827 23.687 23.117 22.847 22.727
1282.771 22.767 23.007 23.307 23.727 24.247 24.447 24.217 23.647 22.667 21.167
1302.060 19.247 17.157 14.947 12.777 10.937 9.577 8.497 7.687 7.227 6.907
1321.350 6.757 6.637 6.617 6.707 6.787 6.927 7.027 7.097 7.207 7.237
1340.640 7.157 6.937 6.497 6.017 5.557 5.067 4.637 4.197 3.807 3.447
1359.930 3.167 2.967 2.807 2.657 2.527 2.507 2.437 2.307 2.247 2.287
1379.219 2.247 2.167 2.217 2.247 2.207 2.197 2.257 2.307 2.327 2.397
1398.509 2.497 2.567 2.597 2.677 2.827 2.947 3.117 3.377 3.697 4.017
1417.799 4.367 4.787 5.207 5.707 6.357 7.127 7.957 8.727 9.437 10.117
1437.089 10.847 11.607 12.227 12.587 12.707 12.767 12.867 12.907 12.817 12.657
1456.378 12.497 12.607 12.997 13.427 13.747 13.927 13.907 13.447 12.827 12.257
1475.668 11.467 10.507 9.597 8.937 8.677 8.707 8.997 9.627 10.737 12.407
1494.958 14.807 18.187 22.827 29.227 37.767 48.377 60.747 72.837 81.817 86.137
1514.248 85.697 81.447 73.687 62.317 48.007 34.467 24.187 17.487 13.357 10.737
1533.538 8.907 7.547 6.607 5.937 5.267 4.767 4.487 4.167 3.987 3.857
1552.827 3.637 3.577 3.517 3.397 3.487 3.627 3.767 3.857 4.047 4.387
1572.117 4.657 5.047 5.607 6.227 6.817 7.317 7.787 8.257 8.607 9.017
1591.407 9.447 9.897 10.657 11.717 13.037 14.577 16.197 17.867 19.377 20.527
1610.697 21.137 21.197 20.657 19.477 17.767 15.737 13.627 11.497 9.587 8.007
1629.986 6.797 5.907 5.147 4.547 4.097 3.697 3.417 3.157 2.947 2.837
1649.276 2.717 2.577 2.387 2.187 2.107 2.037 1.917 1.797 1.657 1.587
1668.566 1.547 1.517 1.487 1.337 1.277 1.277 1.257 1.2124 1.1499 1.1072
1687.856 1.0577 1.0032 0.9815 0.9633 0.9564 0.9198 0.8961 0.9429 0.9638 0.9429
1707.146 0.8878 0.8999 0.9984 0.9585 0.9501 1.0101 0.899 0.9157 0.9887 0.9289
1726.435 0.9612 1.0478 1.0713 1.0745 1.0155 0.9913 1.0425 1.1388 1.247 1.287
1745.725 1.347 1.357 1.377 1.477 1.447 1.397 1.377 1.257 1.1893 1.1592
1765.015 1.1195 1.0506 0.9556 0.897 0.8875 0.8676 0.7579 0.6828 0.7005 0.7327
1784.305 0.7239 0.7165 0.7903 0.8313 0.7618 0.7381 0.7695 0.7803 0.755 0.764
1803.594 0.8037 0.7887 0.7636 0.7635 0.7983 0.8047 0.7896 0.867 0.9039 0.872
1822.884 0.9086 0.896 0.8344 0.8279 0.8817 0.9346 0.9591 0.9109 0.9183 1.0393
1842.174 1.1374 1.1959 1.1913 1.1829 1.227 1.2114 1.247 1.397 1.467 1.497
1861.464 1.547 1.597 1.667 1.687 1.697 1.747 1.747 1.747 1.747 1.707
1880.754 1.637 1.557 1.497 1.457 1.377 1.297 1.247 1.227 1.217 1.129
1900.043 1.0465 1.0614 1.0744 1.0213 0.9257 0.9119 0.9077 0.8433 0.8172 0.8204
1919.333 0.8157 0.8172 0.8667 0.912 0.8902 0.9019 0.9157 0.8807 0.8989 0.9873
1938.623 1.0176 0.9859 0.9594 0.9742 1.0589 1.1071 1.1165 1.1218 1.0851 1.0651
1957.913 1.0268 0.984 0.9669 0.965 0.9979 1.0074 0.9847 0.9957 1.0262 1.0151
1977.202 1.0583 1.1138 1.1736 1.1805 1.1443 1.1063 1.1653 1.287 1.297 1.297
1996.492 1.277 1.277 1.317 1.307 1.277 1.277 1.287 1.257 1.1888 1.1795
2015.782 1.1826 1.227 1.227 1.1891 1.1699 1.1616 1.1886 1.2029 1.217 1.257
2035.072 1.327 1.387 1.417 1.497 1.557 1.577 1.607 1.747 1.867 1.827
2054.362 1.837 1.947 1.947 1.927 1.957 1.957 1.917 1.847 1.847 1.867
2073.651 1.807 1.737 1.767 1.717 1.607 1.557 1.517 1.447 1.397 1.327
2092.941 1.1618 1.0682 1.0176 0.9315 0.8793 0.8482 0.8749 0.8545 0.7515 0.6707
2112.231 0.6502 0.5861 0.4982 0.53 0.5668 0.5708 0.5818 0.6399 0.6376 0.6014
2131.521 0.5842 0.5468 0.452 0.4429 0.525 0.4986 0.4589 0.4357 0.416 0.4199
2150.810 0.4524 0.4944 0.4957 0.4586 0.4168 0.4522 0.4726 0.4605 0.4577 0.442
2170.100 0.462 0.4789 0.4876 0.4714 0.4891 0.4852 0.4331 0.4322 0.4538 0.4575
2189.390 0.5008 0.5844 0.5491 0.5202 0.5026 0.488 0.5598 0.561 0.5983 0.6343
2208.680 0.5932 0.5951 0.6019 0.58 0.5444 0.6008 0.6395 0.618 0.6727 0.7327
2227.970 0.7266 0.7094 0.7541 0.7841 0.8288 1.0127 1.1487 1.227 1.447 1.597
2247.259 1.677 1.777 1.807 1.777 1.667 1.487 1.347 1.227 1.1281 1.093
2266.549 1.0011 0.9467 0.9501 0.8921 0.9171 0.9194 0.8837 0.8608 0.844 0.8821
2285.839 0.8845 0.8659 0.8826 0.8989 0.8913 0.9002 0.9256 0.895 0.8341 0.8047
2305.129 0.813 0.789 0.7158 0.7249 0.7465 0.764 0.8169 0.7887 0.741 0.8051
2324.418 0.8038 0.7502 0.7517 0.7221 0.614 0.6118 0.6968 0.6324 0.65 0.7282
2343.708 0.7299 0.7482 0.748 0.7736 0.8134 0.7473 0.6797 0.636 0.6396 0.6472
2362.998 0.6194 0.608 0.5918 0.6238 0.6261 0.6509 0.5921 0.5704 0.6085 0.5215
2382.288 0.4939 0.5662 0.5395 0.5105 0.5724 0.5391 0.4642 0.4484 0.5206 0.5325
2401.578 0.5469 0.5532 0.6041 0.6724 0.7339 0.7364 0.6847 0.7355 0.7861 0.8494
2420.867 0.8834 0.8176 0.7447 0.8106 0.8967 0.9371 0.8667 0.778 0.7231 0.6769
2440.157 0.6767 0.6899 0.7671 0.7984 0.8165 0.7543 0.7179 0.7193 0.609 0.6178
2459.447 0.685 0.7212 0.7035 0.6872 0.7891 0.825 0.7991 0.7938 0.7862 0.8257
2478.737 0.8868 0.8987 0.8773 0.8878 0.8826 0.9567 1.0247 1.0004 0.9695 0.9616
2498.026 0.9376 0.9357 0.9499 0.9856 0.9437 0.8174 0.8537 0.9117 0.9141 0.9248
2517.316 0.9651 0.9767 0.981 1.0473 1.058 1.0325 1.0212 1.0492 1.0378 1.0727
2536.606 1.1388 1.1559 1.2004 1.211 1.287 1.277 1.227 1.227 1.1201 1.0287
2555.896 0.978 0.9412 1.0102 1.0308 0.905 0.7864 0.7518 0.7217 0.7206 0.7409
2575.186 0.7309 0.7569 0.7949 0.8079 0.8425 0.9692 0.9505 0.846 0.8138 0.8666
2594.475 0.8909 0.8479 0.8842 0.8458 0.7531 0.7754 0.8351 0.7859 0.7837 0.8392
2613.765 0.7516 0.7253 0.7399 0.7054 0.6758 0.6024 0.5589 0.55 0.6299 0.7957
2633.055 0.8136 0.6008 0.5916 0.6447 0.5848 0.6313 0.7198 0.7208 0.6117 0.6
2652.345 0.6626 0.6244 0.6183 0.6256 0.5591 0.6052 0.5822 0.5161 0.5249 0.5967
2671.634 0.6437 0.5972 0.5914 0.5128 0.4915 0.5983 0.593 0.575 0.5586 0.5478
2690.924 0.6242 0.6173 0.6139 0.5618 0.5694 0.6126 0.6011 0.617 0.5918 0.5711
2710.214 0.5304 0.5037 0.4105 0.4364 0.5889 0.6605 0.6419 0.5533 0.6136 0.6799
2729.504 0.5389 0.5967 0.7966 0.8069 0.7729 0.6709 0.6533 0.7047 0.698 0.7453
2748.794 0.7866 0.8229 0.8087 0.793 0.8574 0.8944 0.9137 0.9358 0.9327 0.9112
2768.083 0.9474 1.0148 1.0384 1.0174 1.0046 1.0476 1.0613 1.032 1.0649 1.162
2787.373 1.237 1.307 1.377 1.457 1.487 1.487 1.507 1.677 1.777 1.787
2806.663 1.857 1.987 2.167 2.297 2.467 2.607 2.697 2.847 3.137 3.517
2825.953 3.857 4.207 4.657 5.197 6.067 7.147 8.267 9.447 10.337 10.817
2845.242 11.177 11.397 11.077 10.307 9.447 8.537 7.687 7.147 6.877 6.667
2864.532 6.397 6.317 6.457 6.677 6.777 6.747 6.797 6.747 6.597 6.407
2883.822 6.277 6.137 6.007 5.917 5.917 6.107 6.287 6.367 6.637 7.107
2903.112 7.607 7.987 8.457 9.207 9.907 10.387 10.887 11.387 11.797 12.277
2922.401 12.827 13.357 14.067 15.187 16.297 17.607 19.197 20.657 22.037 23.167
2941.691 24.137 24.717 24.757 24.437 23.997 23.557 23.017 22.467 22.147 21.787
2960.981 21.067 20.217 19.267 18.097 16.797 15.387 13.847 12.477 11.407 10.617
2980.271 10.007 9.477 9.157 9.077 9.137 9.367 9.717 10.207 10.967 11.767
2999.561 12.657 13.867 15.057 16.087 16.637 16.527 16.127 15.447 14.357 12.957
3018.850 11.657 10.757 10.107 9.797 10.007 10.267 10.637 11.057 11.187 11.147
3038.140 10.877 10.397 9.667 8.667 7.727 6.867 6.187 5.597 5.117 4.817
3057.430 4.567 4.407 4.387 4.497 4.567 4.687 4.767 4.937 4.937 4.907
3076.720 4.887 4.717 4.647 4.417 4.177 4.037 3.727 3.477 3.447 3.477
3096.009 3.467 3.337 3.297 3.297 3.237 3.077 2.847 2.827 2.797 2.477
3115.299 2.327 2.297 2.147 2.057 1.887 1.877 1.927 1.817 1.707 1.567
3134.589 1.377 1.297 1.287 1.1125 1.0493 1.0902 1.0704 0.9473 0.8097 0.7462
3153.879 0.7704 0.8589 0.89 0.9185 0.8497 0.8327 0.8153 0.7893 0.8098 0.8451
3173.169 0.8309 0.6912 0.5945 0.6342 0.6556 0.5612 0.5354 0.6582 0.6925 0.624
3192.458 0.6882 0.7424 0.5973 0.5867 0.6538 0.5122 0.6021 0.6919 0.5937 0.6481
3211.748 0.6257 0.574 0.5721 0.4774 0.4901 0.4798 0.4552 0.6011 0.62 0.6218
3231.038 0.6155 0.655 0.6452 0.4541 0.4179 0.4409 0.356 0.3301 0.4827 0.4336
3250.328 0.45 0.4962 0.4449 0.5419 0.5273 0.4299 0.3775 0.3681 0.3696 0.3383
3269.617 0.225056 0.1885 0.3203 0.3768 0.45 0.448 0.3552 0.3096 0.336 0.30606
3288.907 0.25162 0.3455 0.5135 0.5684 0.4403 0.4243 0.28431 0.1664 0.30629 0.3938
3308.197 0.3578 0.31122 0.3301 0.3461 0.31154 0.30011 0.3933 0.3777 0.25304 0.1431
3327.487 0.1997 0.3327 0.27043 0.25753 0.28842 0.25671 0.23582 0.21247 0.116 0.1509
3346.777 0.4009 0.487 0.3732 0.26827 0.2023 0.25268 0.23134 0.1361 0.1919 0.4023
3366.066 0.3953 0.29784 0.408 0.3891 0.2332 0.084 0.1515 0.2786 0.216934 0.31088
3385.356 0.4289 0.29416 0.24481 0.4304 0.5128 0.31402 0.24161 0.3265 0.3679 0.26008
3404.646 0.3446 0.416 0.1519 0.099 0.24684 0.3767 0.3181 0.23676 0.25351 0.28586
3423.936 0.3631 0.4198 0.342 0.28802 0.25463 0.28188 0.25446 0.25679 0.3364 0.29182
3443.225 0.29165 0.3418 0.451 0.4993 0.4515 0.3371 0.23441 0.26188 0.29637 0.23454
3462.515 0.1668 0.1219 0.077 0.055 0.1672 0.1307 0.223677 0.4346 0.4157 0.3421
3481.805 0.3811 0.29829 0.058 0.083 0.104 0.1875 0.4073 0.4766 0.4031 0.3471
3501.095 0.4086 0.3975 0.30873 0.31337 0.27665 0.107 0.1601 0.29371 0.28435 0.3724
3520.385 0.3669 0.1214 0.048 0.24196 0.3432 0.1943 0.066 0.1784 0.1788 0.1595
3539.674 0.1312 0.103 0.1221 0.07 0.1175 0.223374 0.28687 0.322 0.23286 0.26236
3558.964 0.24419 0.059 0.31045 0.3957 0.26455 0.27958 0.21509 0.1691 0.1639 0.3442
3578.254 0.3568 0.3274 0.3375 0.27417 0.1798 0.07 0.1908 0.224221 0.25193 0.27576
3597.544 0.17 0.1413 0.23197 0.30982 0.27026 0.23075 0.27588 0.344 0.4055 0.3557
3616.833 0.30613 0.3297 0.3643 0.27497 0.1343 0.1456 0.111 0.21541 0.3436 0.25755
3636.123 0.102 0.065 0.1667 0.27123 0.1857 0.091 0.1848 0.224233 0.2034 0.28682
3655.413 0.3582 0.3554 0.30849 0.23926 0.29651 0.29588 0.1866 0.1426 0.27121 0.28973
3674.703 0.106 0 0.1577 0.3617 0.4463 0.3779 0.1919 0.1316 0.1871 0.25884
3693.993 0.27286 0.28554 0.3379 0.30702 0.2477 0.3606 0.5306 0.4227 0.2035 0.1344
3713.282 0.099 0.1731 0.1539 0.041 0.037 0.1316 0.23298 0.30335 0.3629 0.3858
3732.572 0.3404 0.27864 0.3808 0.28813 0.083 0.2552 0.3937 0.3928 0.3709 0.23701
3751.862 0.1503 0.2042 0.181 0.083 0.23878 0.1831 0.142 0.3333 0.26366 0.111
3771.152 0.1846 0.1408 0.019 0.1177 0.26005 0.3594 0.3495 0.23352 0.1502 0.1438
3790.441 0.102 0.1747 0.31313 0.2067 0.2727 0.3621 0.30478 0.3648 0.23665 0.26217
3809.731 0.30182 0.24929 0.28847 0.28825 0.3332 0.3598 0.1783 0.104 0.054 0.112
3829.021 0.2047 0.1963 0.27066 0.3286 0.2112 0.072 0.1211 0.21029 0.21218 0.1633
3848.311 0.219029 0.104 0.1571 0.25936 0.2187 0.27025 0.3353 0.4206 0.4715 0.3873
3867.601 0.4893 0.484 0.3509 0.4601 0.5366 0.4866 0.3811 0.4833 0.5167 0.4236
3886.890 0.30474 0.439 0.563 0.4378 0.4386 0.3987 0.4054 0.3895 0.4012 0.4513
3906.180 0.4278 0.43 0.4038 0.27729 0.24258 0.4457 0.465 0.4141 0.4241 0.4479
3925.470 0.4883 0.3857 0.4693 0.4281 0.29055 0.3897 0.4348 0.5363 0.6817 0.6235
3944.760 0.502 0.3557 0.24496 0.3909 0.4639 0.3734 0.3475 0.5147 0.5284 0.3785
3964.049 0.3368 0.3374 0.4052 0.4512 0.4477 0.28621 0.29138 0.3366 0.26101 0.3484
3983.339 0.31272 0.3583 0.27874 0.24079 0.4412 0.2027 0.1465 0.3882 0.4071 0.3394
##END=
