##TITLE=Ethyl (+)-camphorcarboxylate
##JCAMP-DX=4.24
##DATA TYPE=INFRARED SPECTRUM
##ORIGIN=EPA-IR VAPOR PHASE LIBRARY
##OWNER=SRD/NIST
Collection (C) 2018 copyright by the U.S. Secretary of Commerce
on behalf of the United States of America. All rights reserved.
##CAS REGISTRY NO=22469-70-1
##MOLFORM=C 13 H 20 O 3
##$NIST SOURCE=MSDC-IR
##STATE=gas
##XUNITS=1/CM
##YUNITS=ABSORBANCE
##XFACTOR=1.
##YFACTOR=0.001
##DELTAX=1.92898
##FIRSTX=549.8
##LASTX=4000.7
##FIRSTY=3.83
##MAXX=4000.7
##MINX=549.759
##MAXY=0.1239
##MINY=0
##NPOINTS=1790
##XYDATA=(X++(Y..Y))
549.759 3.83 3.22 2.66 2.21 2.09 2.12 1.87 1.85 2.1 1.94
569.049 1.97 2.35 2.23 2.73 2.95 2.25 2.01 2.1 2.14 1.87
588.339 1.73 1.78 1.63 1.71 1.58 1.55 1.62 1.77 1.8 1.64
607.628 1.69 1.41 1.39 1.45 1.44 1.1443 0.6201 0.8758 1.37 1.48
626.918 0.8959 0.6484 0.7199 0.8244 1.1109 0.9529 0.9632 1.0948 1.26 1.31
646.208 1.0723 0.9639 1.28 1.29 0.9631 0.9339 0.7379 0.8067 0.8914 0.8743
665.498 1.18 2.14 2.3 1.75 1.93 1.9 1.75 1.95 2.43 2.96
684.787 3.23 3.37 3.61 3.91 3.76 3.55 4.04 4.34 4.45 4.51
704.077 4.36 4.22 3.84 3.46 3.18 3.04 3.05 2.77 2.47 2.6
723.367 2.7 2.6 2.62 2.82 2.7 3.07 3.4 3.27 3.46 3.84
742.657 4.15 4.4 4.81 5.59 6.04 6.2 6.61 6.4 6.14 6.23
761.947 6.27 6.57 6.65 6.06 5.45 4.9 4.47 4.41 4.49 4.26
781.236 3.9 3.77 3.5 3.49 3.93 3.88 3.39 3.28 3.19 2.87
800.526 2.61 2.38 2.43 2.65 2.79 2.92 2.68 2.32 2.29 2.87
819.816 3.18 2.81 3.45 3.77 3.63 4.02 4.52 4.93 5.19 5.49
839.106 5.55 5.69 5.66 5.55 5.85 6.06 6.12 6.31 6.45 6.46
858.395 6.61 7.11 6.96 6.27 5.93 5.56 4.86 4.82 5.3 5.37
877.685 5.49 5.69 6.08 6.45 6.39 6.14 5.97 5.71 5.26 4.82
896.975 4.47 4.29 4.22 3.88 3.74 3.91 4.17 4.44 4.39 4.39
916.265 4.81 5.01 5.12 5.99 7.01 7.89 8.75 10.05 11.73 13.46
935.555 15.03 16.1 16.59 16.88 16.77 16.13 15.06 13.43 11.97 10.71
954.844 9.65 8.98 8.41 8.02 7.83 7.88 7.6 7.04 6.76 6.48
974.134 6.26 6.12 6.14 6.42 6.89 7.5 8.2 9.2 10.04 10.74
993.424 12.12 14.09 16.22 18.76 21.84 24.57 27.44 30.21 32.18 33.8
1012.714 34.83 35.92 36.49 36.41 36.06 35.33 34.62 33.39 31.8 30.21
1032.003 28.21 26.42 25.48 24.23 23.38 23.03 22.42 22.08 22.47 22.53
1051.293 22.59 23.02 23.62 24.26 23.48 22.95 22.39 21.02 19.71 18.81
1070.583 17.69 16.28 15.83 15.04 14.43 14.54 14.98 15.28 15.59 16.02
1089.873 16.49 17.65 18.88 20.24 21.11 21.57 22.94 23.5 22.8 21.97
1109.163 21.5 20.78 20.14 20.03 19.98 20.45 20.69 20.25 21.39 23.43
1128.452 24.95 27.18 29.31 31.14 32.54 34.56 36.98 39.37 41.6 44.08
1147.742 48.25 52.09 55.84 61.34 67.2 73.37 79.14 83.47 86.68 88.05
1167.032 88.11 86.59 83.69 80.45 76.18 71.38 67.73 64.72 62.47 60.38
1186.322 57.94 56.5 54.3 51.7 49.44 46.77 43.62 41.11 39.41 37.83
1205.611 36.85 35.44 34.37 34.07 34.14 33.96 33.24 32.9 33.34 35.55
1224.901 37.08 38.4 40.12 41.94 43.58 44.67 46.24 47.29 48.6 49.04
1244.191 49.1 48.49 47.29 46.14 44.35 43 41.88 40.4 39.02 38.44
1263.481 38.09 37.08 36.25 35.8 35.27 34.13 32.54 31.08 29.12 27.59
1282.771 26.64 25.72 25.36 25.47 25.48 25.74 26.78 27.82 28.9 30.25
1302.060 31.93 33.9 35.87 37.98 40.2 42.21 43.86 45.3 46.56 47.21
1321.350 47.05 46.27 44.7 42.47 39.62 36.27 32.72 29.18 26 23.22
1340.640 20.8 18.72 17.04 15.62 14.36 13.46 12.82 12.37 12.42 13.09
1359.930 14.26 16.13 18.64 21.33 23.99 26.72 29.18 30.95 31.91 31.7
1379.219 30.8 29.65 28.17 26.54 25.11 24.23 23.63 23.11 22.7 22.02
1398.509 20.79 19.13 17.27 15.29 13.49 11.93 10.58 9.72 9.08 8.56
1417.799 8.27 8.1 7.92 7.79 7.79 7.8 7.89 8.12 8.58 8.98
1437.089 9.61 10.56 11.49 12.44 13.45 14.6 15.76 16.57 17.18 17.7
1456.378 17.87 17.85 17.83 17.72 17.57 17.39 17.18 17.15 17.08 16.92
1475.668 16.73 16.49 16.13 15.49 14.77 13.94 12.83 11.55 10.3 9.02
1494.958 7.68 6.63 5.92 5.18 4.63 4.29 4 3.84 3.61 3.36
1514.248 3.18 3.09 3.02 2.87 2.76 2.7 2.6 2.56 2.43 2.33
1533.538 2.35 2.35 2.27 2.15 2.12 2.24 2.24 2.2 2.32 2.26
1552.827 2.2 2.11 2.03 2.12 2.31 2.29 2.28 2.38 2.33 2.32
1572.117 2.26 2.23 2.23 2.33 2.47 2.39 2.35 2.36 2.48 2.5
1591.407 2.28 2.3 2.39 2.31 2.53 2.66 2.47 2.39 2.49 2.52
1610.697 2.48 2.61 2.45 2.3 2.37 2.36 2.3 2.44 2.58 2.52
1629.986 2.6 2.64 2.53 2.37 2.5 2.61 2.54 2.54 2.49 2.51
1649.276 2.64 2.71 2.68 2.81 3 3.14 3.21 3.36 3.61 3.69
1668.566 3.8 3.99 4.04 4.09 4.42 4.57 4.67 4.98 5.18 5.4
1687.856 5.74 6.05 6.42 6.98 7.62 8.34 9.32 10.58 11.98 13.68
1707.146 15.66 17.96 20.57 23.48 26.81 30.44 34.14 37.76 41.8 46.43
1726.435 51.77 58.2 66.24 76.02 87.39 99.18 110.09 118.88 123.6 123.9
1745.725 119.73 111.69 101.64 91.3 82.66 77.2 75.06 75.89 78.9 83.29
1765.015 87.96 92.01 94.96 96.2 95.08 91.98 87.19 80.8 73.37 65.45
1784.305 57.29 49.31 42.05 35.54 29.87 25.11 21.3 18.14 15.59 13.57
1803.594 11.93 10.67 9.59 8.55 7.81 7.21 6.64 6.22 5.82 5.43
1822.884 5.12 4.74 4.5 4.38 4.21 3.97 3.83 3.73 3.6 3.45
1842.174 3.18 3.06 2.97 2.93 2.88 2.78 2.69 2.66 2.8 2.67
1861.464 2.43 2.4 2.43 2.47 2.42 2.39 2.45 2.41 2.37 2.32
1880.754 2.19 2.18 2.26 2.25 2.18 2.18 2.21 2.27 2.23 2.11
1900.043 2.04 1.88 1.81 1.79 1.82 1.88 1.8 1.74 1.75 1.81
1919.333 1.82 1.76 1.66 1.65 1.65 1.65 1.61 1.63 1.7 1.69
1938.623 1.66 1.65 1.61 1.6 1.65 1.61 1.54 1.5 1.54 1.54
1957.913 1.46 1.45 1.4 1.34 1.43 1.45 1.34 1.33 1.38 1.41
1977.202 1.42 1.39 1.41 1.51 1.59 1.52 1.4 1.34 1.34 1.38
1996.492 1.41 1.37 1.46 1.55 1.63 1.64 1.6 1.55 1.45 1.53
2015.782 1.68 1.7 1.73 1.81 1.8 1.75 1.68 1.69 1.78 1.8
2035.072 1.69 1.62 1.68 1.69 1.7 1.72 1.77 1.8 1.78 1.86
2054.362 1.9 1.87 1.94 2.23 2.32 2.19 2.26 2.45 2.62 2.67
2073.651 2.75 2.79 2.81 2.86 2.94 2.97 2.93 2.96 3.05 3.26
2092.941 3.66 4.08 4.62 5.45 6.21 7.11 8.44 9.95 11.76 13.93
2112.231 16.4 19.29 22.71 26.47 30.61 35.01 39.38 43.48 46.97 49.61
2131.521 51 50.9 49.29 46.25 41.68 36.09 30.06 23.9 18.13 13.22
2150.810 9.59 7.29 5.85 4.9 4.27 3.81 3.45 3.32 3.23 3
2170.100 2.85 2.74 2.65 2.52 2.48 2.4 2.23 2.25 2.12 2.06
2189.390 2.16 2.08 2.07 2.1 1.99 1.83 1.8 1.83 1.8 1.72
2208.680 1.58 1.49 1.52 1.43 1.36 1.36 1.28 1.27 1.31 1.35
2227.970 1.39 1.32 1.32 1.31 1.28 1.26 1.28 1.33 1.27 1.24
2247.259 1.21 1.19 1.2 1.2 1.21 1.31 1.34 1.46 1.43 1.23
2266.549 1.27 1.36 1.28 1.17 1.1528 1.2 1.31 1.35 1.36 1.34
2285.839 1.38 1.54 1.58 1.59 1.62 1.6 1.63 1.78 1.85 2.03
2305.129 2.2 2.17 2.4 2.71 2.8 2.79 2.77 2.84 3.02 3.03
2324.418 2.94 2.94 2.99 3.02 3.03 2.93 2.83 2.83 2.83 2.68
2343.708 2.52 2.51 2.47 2.53 2.66 2.86 3.12 3.32 3.37 3.46
2362.998 3.64 3.73 3.63 3.45 3.27 2.84 2.49 2.43 2.35 2.1
2382.288 1.76 1.45 1.3 1.27 1.1074 0.9912 0.9382 0.8451 0.8236 0.8547
2401.578 0.8161 0.803 0.7657 0.88 1.0041 0.8271 0.6964 0.7603 0.8461 0.8078
2420.867 0.8198 0.836 0.7903 0.7671 0.7677 0.7831 0.7556 0.7447 0.8003 0.817
2440.157 0.7386 0.6225 0.5478 0.694 0.8259 0.8818 0.9662 0.8452 0.8684 1.0015
2459.447 0.9871 0.9249 0.7894 0.8267 0.9408 0.8499 0.8253 0.8318 0.8132 0.9091
2478.737 0.8773 0.8424 0.8276 0.7881 0.8507 0.8029 0.7362 0.7995 0.7504 0.6745
2498.026 0.6549 0.6741 0.6549 0.6842 0.793 0.7084 0.5578 0.454 0.5901 0.676
2517.316 0.6373 0.6587 0.6386 0.7971 0.8165 0.8743 0.9249 0.7646 0.7436 0.6175
2536.606 0.6055 0.8656 0.9706 0.7773 0.8188 0.8988 0.7922 0.7548 0.6302 0.6296
2555.896 0.7193 0.7054 0.734 0.8434 0.9072 0.8159 0.7852 0.7959 0.8112 0.8613
2575.186 0.9314 0.8402 0.6282 0.6578 0.7067 0.6799 0.7155 0.7639 0.8139 0.9161
2594.475 1.0421 1.002 0.8945 0.8705 0.7189 0.7178 0.7627 0.7613 0.9767 0.9421
2613.765 0.831 0.8815 0.803 0.8193 0.9247 0.8974 0.7013 0.7118 0.7889 0.6988
2633.055 0.6406 0.71 0.8074 0.8424 0.7258 0.5789 0.5693 0.5498 0.4919 0.5445
2652.345 0.5876 0.739 0.772 0.5418 0.5103 0.5744 0.5784 0.686 0.7085 0.6852
2671.634 0.7391 0.4978 0.4856 0.612 0.6427 0.9725 0.9981 0.788 0.8177 0.7283
2690.924 0.7205 0.7826 0.728 0.7769 0.7808 0.7727 0.7906 0.91 1.0574 0.9304
2710.214 0.9525 1.0468 0.9821 0.9026 1.002 1.0799 1.0778 1.0738 1.1366 1.19
2729.504 1.36 1.77 1.94 1.84 1.93 2.19 2.28 2.11 1.89 1.93
2748.794 1.91 1.77 1.74 1.84 1.85 1.78 1.58 1.51 1.71 1.87
2768.083 1.98 2 1.95 2.02 2.15 2.06 1.93 2.18 2.28 2.23
2787.373 2.27 2.3 2.31 2.14 2.17 2.12 2.21 2.44 2.38 2.44
2806.663 2.55 2.6 2.75 2.78 2.76 2.99 3.05 3.08 3.33 3.53
2825.953 3.57 3.74 3.92 3.84 3.82 3.96 4.23 4.36 4.54 4.69
2845.242 4.82 5.15 5.29 5.52 5.85 6.3 6.94 7.68 8.61 9.41
2864.532 10.42 11.87 13.56 15.58 17.93 20.62 23.29 25.72 28.09 29.79
2883.822 30.82 31.18 30.96 30.45 29.66 29.23 29.08 28.92 28.88 28.88
2903.112 29.09 29.62 30.05 30.46 30.82 31.2 31.7 32.52 33.55 34.83
2922.401 36.43 37.96 40.16 43 46.11 49.17 51.94 54.4 56.37 58.03
2941.691 59.23 60.06 60.88 61.9 63.31 64.89 66.9 69.42 72.28 75.61
2960.981 79.59 84.17 88.85 93.24 96.6 98.55 98.61 96.54 93.05 88.29
2980.271 82.86 76.94 70.81 65.28 59.82 54.71 50.37 46.15 41.99 38.07
2999.561 34.32 30.7 27.35 24.14 21.29 18.79 16.44 14.59 13.02 11.68
3018.850 10.61 9.56 8.66 7.93 7.3 6.75 6.3 5.9 5.73 5.63
3038.140 5.14 4.57 4.32 4.27 4.04 3.87 3.89 3.82 3.62 3.46
3057.430 3.51 3.43 3.36 3.32 3.29 3.3 3.29 3.38 3.17 2.92
3076.720 2.9 3.01 3.05 2.97 2.91 2.91 2.88 3.01 3.06 2.96
3096.009 2.93 3.06 3.23 3.08 2.68 2.69 2.78 2.62 2.65 2.5
3115.299 2.3 2.37 2.46 2.41 2.29 2.24 2.36 2.46 2.45 2.32
3134.589 2.34 2.27 2.06 2.09 2.15 2.03 1.9 1.74 1.74 1.8
3153.879 1.8 1.66 1.63 1.76 1.57 1.54 1.41 1.32 1.41 1.51
3173.169 1.4 1.35 1.46 1.29 1.31 1.34 1.44 1.45 1.26 1.24
3192.458 1.1096 1.0282 1.0421 1.26 1.3 1.0396 1.0627 1.28 1.27 1.26
3211.748 1.24 1.0659 1.075 1.0725 0.8477 0.6393 0.8124 1.1131 0.9452 0.6508
3231.038 0.6723 0.8252 0.8287 0.7379 0.6968 0.746 0.7749 0.5335 0.6536 0.7846
3250.328 0.7006 0.694 0.7333 0.7213 0.5749 0.5896 0.5823 0.5969 0.5844 0.4447
3269.617 0.4667 0.555 0.5324 0.4869 0.5613 0.6195 0.6961 0.7918 0.5807 0.7739
3288.907 0.9129 0.8715 1.0052 0.565 0.3891 0.7194 0.5716 0.4077 0.4649 0.35
3308.197 0.4676 0.5668 0.4961 0.6737 0.7922 0.795 0.666 0.7295 0.7059 0.5744
3327.487 0.8512 0.7624 0.5114 0.5749 0.24291 0.18951 0.5058 0.5824 0.563 0.5083
3346.777 0.3969 0.4975 0.7634 0.6756 0.6432 0.7727 0.8908 0.8453 0.7007 0.7968
3366.066 0.761 0.6069 0.6842 0.635 0.5482 0.5696 0.8077 0.8534 0.6998 0.6511
3385.356 0.6917 0.851 0.7678 0.7359 0.7484 0.6186 0.729 0.8128 0.9279 0.9025
3404.646 0.5754 0.4194 0.7143 1.0176 0.9336 0.6483 0.5911 0.7442 0.7465 0.7896
3423.936 0.781 0.7421 0.8995 1.0535 0.7902 0.6625 0.8014 0.8443 0.8266 0.8795
3443.225 1.19 1.44 1.33 1.27 1.2 1.27 1.22 1.24 1.45 1.49
3462.515 1.58 1.54 1.52 1.52 1.62 1.71 1.85 1.82 1.81 1.88
3481.805 1.67 1.62 1.64 1.63 1.43 1.2 1.45 1.48 1.59 1.95
3501.095 1.91 1.7 2.01 2.27 2.11 1.99 1.94 1.88 1.74 1.62
3520.385 1.37 1.1555 1.24 1.34 1.26 1.1416 1.0861 1.124 1.17 1.1599
3539.674 1.005 1.18 1.39 1.19 1.0403 0.8314 0.6011 0.7133 0.7208 0.9092
3558.964 1.0025 0.7468 0.654 0.5695 0.5016 0.6385 0.6154 0.547 0.6891 0.7791
3578.254 0.731 0.4926 0.3971 0.2982 0.3003 0.5701 0.6352 0.4957 0.5396 0.6166
3597.544 0.3773 0.274 0.3398 0.1467 0.20916 0.4674 0.5051 0.5557 0.5412 0.4892
3616.833 0.5483 0.6727 0.6837 0.6727 0.7432 0.9762 0.9451 0.856 0.9682 0.8028
3636.123 0.6396 0.5289 0.594 0.5968 0.5708 0.5704 0.7018 0.758 0.3524 0.7745
3655.413 1.17 0.881 0.864 0.8008 0.8204 0.9023 0.91 0.8814 0.7058 0.5549
3674.703 0.6829 0.9065 0.7975 0.6921 0.7227 0.6655 0.6495 0.742 0.7275 0.5783
3693.993 0.6476 0.6005 0.5185 0.5751 0.653 0.7011 0.4537 0.4622 0.7009 0.7078
3713.282 0.7548 0.5828 0.3987 0.5788 0.537 0.3802 0.3451 0.3728 0.1213 0.009
3732.572 0.5391 0.7327 0.47 0.24463 0.23247 0.3134 0.5813 0.7063 0.4671 0.161714
3751.862 0.4266 0.7773 0.4635 0.343 0.3899 0.5694 0.7749 0.6179 0.3464 0.3455
3771.152 0.21011 0 0.4294 0.6375 0.553 0.6916 0.4812 0.453 0.4792 0.3728
3790.441 0.434 0.6698 0.7835 0.409 0.3803 0.6226 0.5287 0.6172 0.6623 0.6127
3809.731 0.7549 0.6118 0.4345 0.3939 0.6127 0.8495 0.7094 0.6578 0.5475 0.4878
3829.021 0.5533 0.5291 0.5639 0.6973 0.823 0.7168 0.4904 0.4755 0.6537 0.6515
3848.311 0.695 0.7257 0.619 0.8043 0.9214 0.6806 0.6383 0.6314 0.5189 0.5348
3867.601 0.5919 0.6772 0.6028 0.5804 0.8871 0.8115 0.5685 0.4856 0.6482 0.8598
3886.890 0.7832 0.936 0.76 0.4907 0.4038 0.4125 0.6033 0.7286 0.5315 0.3641
3906.180 0.5162 0.6532 0.4738 0.3195 0.315 0.3417 0.641 0.6762 0.5634 0.5711
3925.470 0.5656 0.6838 0.7049 0.329 0.1488 0.288 0.3556 0.5028 0.5984 0.4453
3944.760 0.5236 0.4011 0.3773 0.8335 0.9122 0.9028 0.8382 0.7085 0.5283 0.6089
3964.049 0.7944 0.6203 0.5851 0.6197 0.4847 0.3825 0.4193 0.21684 0.3564 0.6273
3983.339 0.4979 0.6055 0.4868 0.1241 0.3345 0.639 0.6543 0.7137 0.8295 0.628
##END=
