##TITLE=2,6-Dichloro-.omega.-nitrostyrene
##JCAMP-DX=4.24
##DATA TYPE=INFRARED SPECTRUM
##ORIGIN=EPA-IR VAPOR PHASE LIBRARY
##OWNER=SRD/NIST
Collection (C) 2018 copyright by the U.S. Secretary of Commerce
on behalf of the United States of America. All rights reserved.
##CAS REGISTRY NO=22482-43-5
##MOLFORM=C 8 H 5 Cl 2 N O 2
##$NIST SOURCE=MSDC-IR
##STATE=gas
##XUNITS=1/CM
##YUNITS=ABSORBANCE
##XFACTOR=1.
##YFACTOR=0.001
##DELTAX=1.92898
##FIRSTX=549.8
##LASTX=4000.7
##FIRSTY=2.575
##MAXX=4000.7
##MINX=549.759
##MAXY=0.169695
##MINY=0
##NPOINTS=1790
##XYDATA=(X++(Y..Y))
549.759 2.575 2.265 2.205 2.965 2.825 2.635 2.025 1.4563 1.705 1.645
569.049 1.4528 1.529 1.2191 1.2068 2.585 2.585 1.695 1.695 1.0857 0.235
588.339 0.9461 1.575 1.4396 1.4515 1.1097 1.0689 1.575 1.725 2.135 2.535
607.628 2.115 1.565 1.985 2.515 2.465 2.755 3.325 4.475 5.495 6.825
626.918 9.205 11.165 12.415 13.335 12.805 11.265 9.985 8.485 6.025 4.265
646.208 3.535 2.485 2.405 3.005 3.065 2.855 2.185 1.805 1.785 1.835
665.498 1.725 1.5455 2.055 2.595 2.475 2.225 2.275 2.685 3.175 3.285
684.787 2.885 2.895 3.445 3.495 3.935 4.525 4.685 4.775 4.775 5.495
704.077 6.405 6.965 7.885 9.195 10.455 11.275 12.255 12.655 12.335 12.475
723.367 11.875 11.145 10.865 10.815 11.725 12.495 13.035 14.285 15.625 17.525
742.657 19.745 21.895 24.145 25.565 25.895 24.975 23.655 22.455 20.795 20.685
761.947 22.515 25.695 31.885 40.845 51.825 64.945 80.325 99.675 116.415 115.355
781.236 103.535 94.375 83.545 69.035 54.325 41.625 31.805 24.215 18.545 14.645
800.526 11.995 10.005 9.125 8.685 7.665 6.755 6.235 5.805 5.765 6.485
819.816 5.915 4.575 4.105 5.595 7.875 8.075 8.105 8.315 8.045 7.885
839.106 8.355 8.675 8.605 8.775 8.805 9.045 9.515 10.295 10.885 10.665
858.395 10.625 11.415 12.295 12.635 12.725 12.565 11.985 11.085 10.195 9.555
877.685 8.765 8.135 7.225 6.665 6.835 6.315 6.085 6.055 5.775 5.505
896.975 5.235 5.375 5.445 5.715 5.855 6.295 6.885 7.075 7.735 8.735
916.265 9.455 10.485 11.965 12.975 13.845 15.005 16.045 16.915 18.405 19.715
935.555 20.725 22.025 23.805 25.785 28.165 30.825 33.335 35.575 37.475 39.415
954.844 40.565 40.875 39.585 37.405 35.845 33.665 30.445 27.385 23.655 19.555
974.134 16.095 12.635 10.445 9.865 9.065 7.685 6.285 5.525 5.265 5.085
993.424 4.355 3.575 3.115 3.175 3.725 3.545 3.415 3.315 3.415 3.495
1012.714 3.575 4.275 4.685 3.825 2.535 2.655 3.515 3.425 3.315 3.445
1032.003 3.205 2.565 1.925 1.725 1.825 3.345 4.205 3.495 2.865 3.305
1051.293 3.535 3.025 3.035 2.695 2.655 2.495 2.385 3.605 3.485 3.025
1070.583 3.015 3.185 4.925 4.825 4.835 5.645 5.195 4.835 6.015 8.835
1089.873 10.595 10.985 11.505 14.475 15.375 14.465 13.595 10.945 9.155 8.025
1109.163 6.995 4.915 3.085 3.135 3.225 2.805 2.875 3.245 3.025 2.625
1128.452 3.105 3.095 3.365 4.245 4.065 3.955 4.485 5.155 5.595 7.105
1147.742 8.765 8.635 9.245 10.165 10.315 10.345 10.185 10.265 9.985 9.525
1167.032 9.325 10.105 11.285 12.475 13.075 12.935 13.725 13.975 13.085 12.775
1186.322 12.765 12.195 11.665 11.355 11.055 10.905 10.635 10.615 10.885 11.795
1205.611 13.235 12.215 10.525 9.975 8.705 7.695 6.945 4.965 5.295 5.725
1224.901 4.235 3.305 3.295 3.645 4.815 5.835 5.395 5.745 6.295 6.315
1244.191 6.265 6.445 6.565 6.465 6.835 7.335 7.585 7.725 7.855 7.895
1263.481 7.825 7.805 7.495 7.245 6.495 5.885 5.875 5.855 6.475 6.805
1282.771 6.825 6.815 6.585 6.925 7.565 7.755 8.245 8.985 9.125 9.075
1302.060 9.315 9.585 9.925 10.485 11.235 12.185 13.335 15.125 17.315 20.315
1321.350 24.245 28.885 34.735 41.745 50.155 60.285 71.935 84.235 96.875 108.855
1340.640 118.405 124.525 126.595 124.755 119.275 110.705 100.145 89.705 80.405 72.155
1359.930 64.745 57.805 51.325 44.965 39.155 33.955 29.465 25.565 22.165 19.535
1379.219 17.325 15.455 13.905 12.715 11.865 11.135 10.575 10.315 10.225 10.335
1398.509 10.595 10.905 11.555 12.525 13.725 15.595 18.135 21.275 25.015 29.635
1417.799 35.185 42.125 50.095 58.675 67.005 73.595 77.645 78.665 77.165 73.085
1437.089 65.715 56.645 47.435 38.765 31.035 24.395 18.935 14.825 12.025 10.455
1456.378 9.525 8.925 8.375 8.065 8.205 8.425 8.685 8.675 8.765 9.075
1475.668 9.425 9.635 9.735 10.415 11.085 11.235 11.785 12.555 13.105 13.755
1494.958 14.635 15.375 15.945 16.445 17.135 18.435 19.835 21.255 22.805 24.485
1514.248 26.815 29.765 33.255 37.145 41.755 46.915 52.415 57.865 63.595 69.795
1533.538 76.175 83.235 91.175 100.705 112.015 124.495 137.545 149.795 160.025 167.275
1552.827 169.695 166.515 158.355 147.175 134.745 122.485 110.535 99.115 88.295 78.845
1572.117 70.855 63.635 56.815 50.595 44.845 39.165 33.905 29.265 25.455 22.165
1591.407 19.415 17.375 15.775 14.505 13.715 13.125 12.545 11.875 11.305 10.965
1610.697 10.555 10.165 9.785 9.715 9.835 9.515 9.275 9.365 9.595 9.625
1629.986 9.605 10.005 10.655 11.125 11.775 12.665 13.535 14.395 14.915 15.075
1649.276 15.255 15.065 14.395 13.475 12.365 11.325 10.255 9.115 8.305 7.985
1668.566 7.665 7.195 6.515 5.985 5.725 5.255 4.865 4.415 3.815 3.595
1687.856 3.555 3.435 3.285 3.055 2.895 2.875 2.985 3.125 2.865 2.585
1707.146 2.535 2.595 2.415 2.205 2.275 2.175 2.065 2.125 2.055 1.835
1726.435 1.775 1.555 1.5019 1.695 1.875 1.895 1.825 1.785 1.795 1.795
1745.725 1.665 1.605 1.735 1.955 1.965 1.805 1.605 1.695 1.725 1.705
1765.015 1.825 1.785 2.255 2.625 2.485 2.505 2.835 3.335 3.465 3.735
1784.305 3.895 3.705 3.585 3.425 3.285 3.145 3.035 2.795 2.655 2.835
1803.594 2.595 2.335 2.345 2.165 1.995 1.795 1.645 1.765 1.775 1.795
1822.884 1.735 1.5417 1.695 1.705 1.595 1.715 1.725 1.685 1.735 1.855
1842.174 1.815 1.865 2.265 2.505 2.585 2.835 2.995 3.165 3.195 3.045
1861.464 3.005 2.815 2.545 2.435 2.165 1.775 1.785 1.815 1.635 1.615
1880.754 1.755 1.825 1.775 1.705 1.655 1.645 1.5233 1.4407 1.486 1.595
1900.043 1.605 1.605 1.815 1.925 1.785 1.955 2.225 2.145 2.385 2.695
1919.333 2.755 2.815 3.225 3.645 3.815 4.095 4.225 4.065 3.885 3.545
1938.623 3.065 2.565 2.115 1.925 1.815 1.595 1.4844 1.4649 1.2998 1.2139
1957.913 1.1472 1.1462 1.3107 1.3276 1.2847 1.2294 1.1346 0.9896 0.8382 0.8868
1977.202 1.2026 1.2245 1.1263 1.3084 1.3621 1.0753 1.0471 1.2783 1.188 1.1157
1996.492 1.3121 1.236 1.0278 1.182 1.1087 0.9583 1.1572 1.2016 1.0841 1.0355
2015.782 1.0642 1.1298 1.1677 1.1773 1.1014 1.1685 1.2086 1.1041 1.1356 1.0335
2035.072 0.9684 0.9478 0.9443 1.1193 1.1664 1.021 0.9931 1.1775 1.2253 1.2088
2054.362 1.1697 1.1186 1.1716 1.1221 1.2063 1.2849 1.0977 1.2289 1.1637 0.9358
2073.651 1.0735 1.017 0.867 0.7931 0.758 0.876 0.9096 0.7795 0.7989 0.974
2092.941 0.9858 0.9928 1.0003 0.9204 0.7741 0.7834 0.9915 1.0592 1.0583 1.1207
2112.231 1.0985 1.0381 0.9291 0.8868 0.9348 0.9638 0.9851 1.0071 1.1034 0.9705
2131.521 0.871 0.9961 1.021 0.9935 1.0298 0.9798 0.8064 0.7563 0.9478 1.0047
2150.810 0.9947 1.047 0.9126 0.7746 0.7891 0.6738 0.535 0.7362 0.8983 0.9514
2170.100 1.0772 1.0325 0.9511 0.9282 0.899 0.8649 0.9988 1.2398 1.1615 1.077
2189.390 1.2133 1.3355 1.275 1.3117 1.3371 1.1067 1.1317 1.2058 1.1264 1.0722
2208.680 1.0317 1.1774 1.3075 1.1105 1.1178 1.256 1.2183 1.4229 1.5274 1.5092
2227.970 1.4608 1.2878 1.1287 1.1601 1.1278 0.9365 0.89 1.063 1.254 1.3497
2247.259 1.2487 1.0473 1.0438 1.0482 0.9479 0.9413 1.0955 1.1704 1.1393 1.0982
2266.549 1.085 1.1472 1.2203 1.1771 1.1251 1.0697 1.0221 1.1633 1.1328 1.1706
2285.839 1.3023 1.2238 1.2468 1.3919 1.585 1.516 1.3825 1.575 1.635 1.515
2305.129 1.425 1.3268 1.4167 1.271 1.1021 1.2243 1.3402 1.3074 1.1748 1.2731
2324.418 1.4453 1.3731 1.3647 1.4046 1.2134 1.1729 1.3108 1.3141 1.1741 1.1191
2343.708 1.2412 1.4347 1.3812 1.2731 1.1879 1.0201 1.0071 1.1452 1.2611 1.1663
2362.998 0.8916 0.8037 0.9526 0.9975 0.9515 1.0066 1.1519 1.0737 0.8575 0.8156
2382.288 0.8843 0.9639 1.119 1.2189 1.2103 1.11 1.0417 0.9886 0.8939 0.9795
2401.578 1.1115 1.1548 1.1119 1.0027 0.9964 1.0558 1.0703 1.094 1.126 1.2368
2420.867 1.2735 1.1717 1.3203 1.3946 1.163 1.0483 1.1026 1.1068 1.042 0.8628
2440.157 0.8813 1.1924 1.0992 0.8674 0.9169 1.0865 1.2273 1.2615 1.2837 1.2063
2459.447 1.1484 1.0668 1.2855 1.4845 1.367 1.182 0.9813 1.0026 0.948 0.9582
2478.737 1.3686 1.4238 1.2834 1.4386 1.4033 1.2153 1.0853 1.426 1.635 1.615
2498.026 1.585 1.5216 1.685 1.685 1.3196 1.2281 1.4483 1.5168 1.4526 1.4579
2517.316 1.4118 1.3577 1.3446 1.0375 0.9999 1.1218 1.0999 1.0627 0.9414 1.0339
2536.606 0.9526 0.7365 0.9398 1.2951 1.2081 1.1585 1.34 1.1678 1.056 0.9917
2555.896 0.9934 1.0558 1.0096 0.8784 1.0069 1.1799 0.785 0.8691 1.341 1.4472
2575.186 1.2971 1.3697 1.565 1.5147 1.4211 1.402 1.575 1.805 1.855 1.685
2594.475 1.5086 1.5003 1.5235 1.5413 1.575 1.5461 1.5056 1.509 1.585 1.595
2613.765 1.3907 1.0085 1.1998 1.625 1.446 1.2785 1.3071 1.4597 1.615 1.575
2633.055 1.745 1.815 1.615 1.585 1.595 1.4806 1.625 1.595 1.3863 1.4882
2652.345 1.665 1.575 1.555 1.5526 1.4224 1.775 1.875 1.605 1.805 2.045
2671.634 2.005 2.025 1.965 1.585 1.775 1.995 1.805 1.805 1.765 2.025
2690.924 2.215 1.865 1.745 1.675 1.565 1.3102 1.348 1.4973 1.4098 1.4766
2710.214 1.4162 1.2908 1.0931 1.0675 1.2609 1.3433 1.3114 1.2935 1.4492 1.5019
2729.504 1.1077 0.7416 0.9387 1.276 1.1206 0.8976 0.7519 0.8396 0.9527 1.0858
2748.794 1.1744 1.0543 0.9722 1.0111 0.8002 0.9647 1.2135 0.9943 1.371 1.645
2768.083 1.3473 1.2523 1.3222 1.234 1.2959 1.2011 1.1851 1.4437 1.2266 0.9893
2787.373 1.0566 1.1186 1.2332 1.1286 1.2606 1.3986 1.1874 1.2756 1.2624 1.394
2806.663 1.565 1.4726 1.665 1.695 1.4801 1.3196 1.1595 1.2075 1.5475 1.595
2825.953 1.4215 1.2734 1.595 1.855 1.5538 1.2424 1.539 2.025 2.095 1.965
2845.242 2.185 2.095 1.5044 1.4429 2.005 2.295 2.375 2.705 2.695 2.435
2864.532 2.535 3.055 3.345 3.085 3.205 3.745 3.905 3.935 3.895 3.925
2883.822 3.985 3.875 3.985 4.365 4.245 3.845 3.815 3.955 3.865 3.765
2903.112 3.495 3.205 3.355 2.665 2.255 2.855 2.645 2.065 2.285 2.545
2922.401 2.395 2.475 2.155 1.745 1.585 1.4902 1.3626 1.2368 1.1451 1.3617
2941.691 1.715 1.755 1.695 1.585 1.805 1.845 1.5254 1.1872 0.8724 0.9982
2960.981 1.1729 1.655 1.645 1.1094 1.3009 1.645 1.805 2.035 2.225 2.155
2980.271 1.795 1.905 1.825 1.675 2.185 2.135 1.625 1.665 1.895 1.745
2999.561 1.805 1.915 1.645 1.3119 1.3784 1.825 1.645 1.3951 1.4713 1.1243
3018.850 1.1116 1.1692 1.3198 1.585 1.5205 1.615 1.885 2.075 2.205 2.245
3038.140 2.095 2.645 2.905 2.485 2.785 3.315 3.435 3.585 4.445 5.415
3057.430 5.745 5.615 5.365 5.455 5.375 4.695 4.975 5.125 4.725 4.695
3076.720 4.395 4.195 4.105 4.115 3.905 3.735 3.455 3.255 3.115 2.785
3096.009 2.495 2.535 3.015 3.045 2.915 2.985 3.305 3.645 3.585 3.585
3115.299 3.795 4.245 4.435 4.595 5.255 5.885 5.745 5.325 5.335 4.855
3134.589 4.205 3.685 3.295 3.125 2.885 2.605 2.415 2.275 2.225 2.115
3153.879 1.725 1.745 1.905 1.815 1.875 1.685 1.4297 1.675 1.835 1.685
3173.169 1.534 1.2077 1.1357 1.3903 1.0423 0.8342 1.2486 1.4791 1.565 1.1036
3192.458 0.61381 0.8144 1.0156 0.8905 0.7064 0.56924 0.6601 1.11 1.1373 0.8097
3211.748 0.8239 1.0163 0.8906 0.7569 0.7677 0.7849 1.0002 1.0847 0.7695 0.56668
3231.038 0.367 0.61871 0.8681 1.367 1.5073 1.1343 1.0796 1.0734 1.082 1.0647
3250.328 0.9235 0.417 0.8726 0.9471 0.345 0.36 0.9158 0.6559 0.414 0.8067
3269.617 0.60701 0.8951 0.9494 0.7771 0.9621 1.1642 1.381 1.1752 1.1209 1.1135
3288.907 1.138 1.2074 1.2023 1.1369 0.9053 0.9301 1.1484 0.972 0.7906 0.8314
3308.197 0.64671 0.8703 0.7269 0.362 0.068 0.041 0.563728 0.7388 0.7921 0.5079
3327.487 0.65352 0.701 0.5156 0.7425 0.63908 0.353 0.4551 0.7384 0.6643 0.59922
3346.777 0.63719 0.6888 0.883 1.4027 1.18 0.7555 1.0857 1.0114 0.8956 0.8307
3366.066 0.62563 0.5035 0.7067 1.0261 0.7095 0.8236 1.2726 1.3477 1.4421 1.2703
3385.356 1.1445 0.955 0.8212 1.2354 0.9719 0.4922 0.459 0.409 0.4854 0.4912
3404.646 0.4934 0.7172 0.759 1.0557 1.4593 0.9389 0.62405 0.9978 1.0136 0.7896
3423.936 0.8603 0.58847 0.407 0.408 0.271 0.45 0.7699 1.2053 1.267 0.8902
3443.225 0.58126 0.326 0.434 0.379 0.188 0.6879 0.8771 0.6137 0.562075 1.0025
3462.515 0.8131 0.8081 1.1385 0.996 1.046 0.9612 0.7622 0.665 1.0214 0.9901
3481.805 0.5414 0.031 0.291 0.7479 0.4591 0.8622 1.0401 1.0429 1.0701 1.1234
3501.095 1.0713 0.7227 0.811 0.9034 0.8702 0.5205 0.7987 1.0042 0.446 0.7376
3520.385 1.4437 1.1345 0.7065 0.8926 0.8427 0.5163 0.64126 0.6846 0.5329 0.522
3539.674 0.6933 0.9841 1.5049 1.2622 0.42 0.727 0.7862 0.7382 1.3661 1.595
3558.964 1.3574 1.1103 1.1736 1.3319 1.0552 0.8586 1.1717 1.0912 1.0759 1.0919
3578.254 0.322 0.353 1.2602 1.3022 0.8867 0.6879 0.415 0.419 0.59513 0.7212
3597.544 0.7268 0.5873 1.03 1.0561 0.9459 1.0844 0.7784 0.169 0 0.423
3616.833 0.4956 0.62959 0.8745 1.2032 1.4531 1.1337 0.927 0.59979 0.045 0.345
3636.123 0.8524 0.8715 0.9518 1.0258 0.6687 0.7742 0.8778 0.62126 0.8913 1.2755
3655.413 1.0643 0.7919 1.114 1.1595 0.9436 0.9694 1.0746 0.7469 0.5107 0.435
3674.703 0.4564 0.7624 0.7961 0.5039 0.8819 1.0652 1.0047 1.2805 1.2612 1.1265
3693.993 0.57141 0.477 0.9626 1.036 0.60797 0.444 0.57038 0.59777 0.106 0.34
3713.282 0.309 0.37 1.1775 1.2102 1.4517 1.625 1.715 1.585 1.1012 1.2222
3732.572 1.1566 1.1029 0.7044 0.454 0.62276 0.8134 1.3311 0.8189 0.5026 0.9718
3751.862 1.565 1.695 0.906 0.5135 0.63746 0.9974 0.60143 0.371 0.8456 1.1051
3771.152 1.3092 1.2707 1.1204 0.9006 0.911 0.8404 0.716 0.6848 0.8141 1.015
3790.441 0.9241 0.9997 0.8232 0.347 0.6759 0.8905 0.8366 0.61121 0.345 0.696
3809.731 0.8732 0.9078 1.1601 1.1054 0.8184 1.195 1.3714 0.8689 0.7754 0.555424
3829.021 0.411 0.9894 1.1348 1.0125 0.8611 0.61483 0.8461 0.9088 1.1144 0.9626
3848.311 0.58839 1.0516 1.509 1.2591 0.62514 0.5137 0.6403 0.59417 0.5676 0.6948
3867.601 1.0104 0.8104 0.8073 1.1123 0.57586 0.861 1.2106 0.826 1.1501 0.9805
3886.890 0.56742 1.1501 1.3188 0.9351 1.2211 1.2408 1.4651 1.855 1.2989 0.9548
3906.180 0.8729 0.7931 1.1651 1.1402 1.1513 1.615 1.4005 0.8948 0.9016 0.9824
3925.470 1.2457 1.655 1.5382 1.3569 1.4097 1.1004 0.791 1.1078 0.936 0.5874
3944.760 1.1486 1.394 1.0536 1.2626 0.8417 0.5276 0.9372 0.65208 0.8276 1.2811
3964.049 1.169 0.7219 0.7359 1.3398 0.9348 0.4626 0.8177 0.7965 0.8635 0.9261
3983.339 1.5159 2.085 1.4804 0.9925 0.9799 0.8961 0.7494 0.59734 0.4862 0.268
##END=
