##TITLE=2,3,4-Trimethoxyphenylacetic acid
##JCAMP-DX=4.24
##DATA TYPE=INFRARED SPECTRUM
##ORIGIN=EPA-IR VAPOR PHASE LIBRARY
##OWNER=SRD/NIST
Collection (C) 2018 copyright by the U.S. Secretary of Commerce
on behalf of the United States of America. All rights reserved.
##CAS REGISTRY NO=22480-91-7
##MOLFORM=C 11 H 14 O 5
##$NIST SOURCE=MSDC-IR
##STATE=gas
##XUNITS=1/CM
##YUNITS=ABSORBANCE
##XFACTOR=1.
##YFACTOR=0.001
##DELTAX=1.92898
##FIRSTX=549.8
##LASTX=4000.7
##FIRSTY=8.392
##MAXX=4000.7
##MINX=549.759
##MAXY=0.086942
##MINY=0
##NPOINTS=1790
##XYDATA=(X++(Y..Y))
549.759 8.392 7.712 7.862 8.132 8.482 8.342 8.192 8.712 8.772 8.892
569.049 9.562 10.202 10.552 11.002 11.742 12.922 13.922 14.212 14.262 14.212
588.339 13.782 13.162 12.672 12.282 11.592 10.652 10.302 10.042 9.572 9.512
607.628 9.432 9.052 8.982 8.962 8.992 8.712 8.622 8.922 9.032 9.002
626.918 8.772 8.662 8.552 8.512 8.572 8.402 8.322 8.152 7.682 7.452
646.208 7.532 7.832 7.942 7.682 7.532 7.602 7.622 7.632 7.802 8.092
665.498 8.212 8.322 8.112 7.872 7.752 7.532 7.292 7.222 6.942 6.452
684.787 6.182 6.032 5.712 5.142 4.802 4.452 4.212 4.132 3.832 3.472
704.077 3.182 2.912 2.832 2.702 2.462 2.222 2.072 2.022 1.952 1.962
723.367 1.972 1.812 1.812 1.782 1.672 1.652 1.582 1.692 1.602 1.582
742.657 1.912 2.002 1.912 1.972 2.202 2.372 2.732 2.892 2.872 3.362
761.947 3.632 3.712 3.862 3.862 3.762 3.682 3.522 3.372 3.222 3.102
781.236 3.182 3.532 3.882 4.212 4.942 5.392 5.632 5.902 5.932 5.752
800.526 5.302 5.132 5.122 4.882 4.862 4.822 4.682 4.522 4.202 3.682
819.816 3.232 3.112 2.772 2.472 2.322 2.022 1.872 1.682 1.832 2.032
839.106 1.782 1.712 1.582 1.442 1.522 1.722 1.872 1.812 1.832 1.972
858.395 2.032 1.992 2.032 2.252 2.282 2.432 2.442 2.162 2.002 2.242
877.685 2.632 2.452 2.342 2.422 2.522 2.762 2.972 3.182 3.572 3.802
896.975 3.982 4.392 4.692 5.102 5.342 5.572 5.772 5.692 5.922 5.892
916.265 5.662 5.622 5.522 5.432 5.112 4.862 4.592 4.392 4.272 3.992
935.555 3.912 3.752 3.742 3.902 4.012 4.462 4.792 4.872 4.972 5.222
954.844 5.662 5.942 5.902 5.752 5.592 5.612 5.482 5.032 4.702 4.422
974.134 4.152 3.902 3.832 4.042 4.012 3.912 3.982 3.962 4.382 4.872
993.424 5.072 5.672 6.152 6.682 7.962 9.202 10.422 12.172 13.982 15.702
1012.714 17.652 19.532 21.082 22.392 23.362 23.692 23.562 23.232 22.852 23.132
1032.003 23.852 24.372 25.392 26.982 28.232 29.132 29.452 29.322 28.992 27.982
1051.293 26.622 24.962 23.342 22.022 21.032 20.442 20.292 20.592 21.352 22.692
1070.583 24.082 26.042 28.752 31.402 33.252 35.542 38.132 40.072 42.442 45.342
1089.873 48.582 51.142 54.072 57.652 61.162 64.812 69.152 73.702 77.692 81.892
1109.163 85.152 86.942 86.072 83.192 79.102 73.032 65.732 58.382 51.932 46.442
1128.452 41.932 38.492 35.172 32.162 30.222 28.522 26.542 24.792 23.422 21.952
1147.742 20.492 19.552 19.482 19.082 18.362 18.432 18.152 17.532 17.552 17.312
1167.032 16.822 16.242 16.262 15.792 14.782 14.552 14.802 14.992 14.792 15.392
1186.322 15.842 16.112 16.682 17.182 17.572 17.502 17.552 17.712 17.182 16.482
1205.611 16.662 16.582 15.792 15.192 14.782 14.512 14.572 14.682 15.272 15.932
1224.901 16.572 17.872 18.932 20.122 21.722 22.662 23.142 24.112 25.062 25.612
1244.191 26.192 26.972 27.852 28.692 29.162 29.192 29.052 28.672 28.222 27.852
1263.481 27.062 26.492 26.552 26.442 26.252 26.632 27.452 28.352 29.442 30.672
1282.771 32.102 33.752 35.212 36.262 37.082 37.262 36.782 35.942 34.682 33.022
1302.060 31.072 29.002 26.922 24.922 22.932 21.062 19.372 17.842 16.442 15.242
1321.350 14.222 13.322 12.592 11.982 11.542 11.282 11.012 10.752 10.692 10.692
1340.640 10.602 10.592 10.632 10.672 10.612 10.602 10.712 10.852 10.992 11.072
1359.930 11.102 11.032 10.922 10.672 10.342 9.932 9.312 8.722 8.262 7.822
1379.219 7.432 7.202 7.042 6.872 6.782 6.822 6.942 7.132 7.522 8.052
1398.509 8.732 9.702 10.962 12.622 14.642 16.942 19.582 22.382 24.972 27.032
1417.799 28.332 28.782 28.492 27.522 26.082 24.472 22.992 22.072 21.392 20.752
1437.089 20.162 19.462 18.582 17.622 16.842 16.342 16.292 16.852 17.972 19.712
1456.378 22.142 25.122 28.452 31.882 34.822 36.992 38.052 37.772 36.402 34.262
1475.668 32.022 30.292 29.532 30.292 32.712 36.532 41.202 45.662 49.052 50.482
1494.958 49.392 45.862 40.362 33.622 26.652 20.722 16.052 12.712 10.452 8.792
1514.248 7.732 6.892 6.182 5.742 5.362 5.032 4.822 4.602 4.382 4.302
1533.538 4.262 4.152 4.042 4.012 3.952 3.862 3.762 3.712 3.782 3.862
1552.827 3.812 3.752 3.842 3.912 4.032 4.202 4.392 4.522 4.692 4.962
1572.117 5.132 5.362 5.782 6.022 6.262 6.722 7.142 7.692 8.242 8.882
1591.407 9.702 10.412 11.052 11.612 11.892 11.842 11.492 10.832 9.982 8.992
1610.697 7.952 6.902 5.992 5.272 4.642 4.112 3.702 3.372 3.142 2.942
1629.986 2.712 2.492 2.342 2.302 2.212 2.072 1.882 1.822 1.942 1.922
1649.276 1.762 1.782 1.812 1.692 1.662 1.692 1.682 1.642 1.572 1.582
1668.566 1.672 1.712 1.732 1.712 1.772 1.892 1.922 1.892 1.832 1.932
1687.856 2.012 2.022 2.042 2.072 2.182 2.302 2.422 2.612 2.742 2.862
1707.146 3.022 3.152 3.312 3.512 3.782 4.112 4.462 4.832 5.212 5.582
1726.435 6.032 6.602 7.242 7.922 8.532 9.332 10.262 11.162 12.052 13.002
1745.725 14.072 15.182 16.462 17.942 19.432 20.992 22.762 24.942 27.552 30.472
1765.015 33.742 37.592 41.842 45.952 49.682 52.762 54.692 55.402 54.762 52.852
1784.305 50.052 46.622 42.962 39.352 35.822 32.302 28.992 25.862 22.932 20.232
1803.594 17.782 15.572 13.652 12.152 10.872 9.692 8.712 7.862 7.112 6.482
1822.884 5.902 5.412 5.002 4.582 4.232 3.942 3.672 3.422 3.222 3.012
1842.174 2.832 2.702 2.582 2.442 2.322 2.232 2.142 2.092 1.982 1.842
1861.464 1.742 1.702 1.642 1.602 1.622 1.542 1.472 1.432 1.352 1.312
1880.754 1.2726 1.292 1.275 1.2561 1.2507 1.2057 1.2753 1.312 1.265 1.322
1900.043 1.322 1.312 1.322 1.2593 1.2774 1.302 1.332 1.422 1.522 1.502
1919.333 1.462 1.512 1.552 1.642 1.702 1.652 1.592 1.572 1.532 1.502
1938.623 1.542 1.592 1.602 1.522 1.432 1.402 1.412 1.352 1.332 1.342
1957.913 1.322 1.322 1.312 1.342 1.362 1.332 1.268 1.302 1.442 1.472
1977.202 1.452 1.472 1.472 1.462 1.492 1.532 1.552 1.532 1.482 1.472
1996.492 1.552 1.572 1.462 1.502 1.552 1.522 1.482 1.442 1.432 1.422
2015.782 1.382 1.352 1.372 1.352 1.322 1.302 1.2707 1.1486 1.1394 1.1633
2035.072 1.0733 1.1066 1.1629 1.1006 1.0548 1.0757 1.087 1.0724 1.1527 1.2417
2054.362 1.1965 1.1235 1.0273 1.0113 1.0917 1.0857 0.9923 0.9815 1.0253 0.984
2073.651 0.9845 0.9776 1.0087 1.0439 0.991 0.9768 1.0469 1.051 1.0032 1.0298
2092.941 0.9771 0.9424 0.9494 0.9018 0.907 0.9851 0.983 0.9707 1.0454 1.0694
2112.231 1.0419 1.0258 1.0477 1.0418 1.0126 1.0781 1.1149 1.0751 1.0833 1.108
2131.521 1.1231 1.0504 0.9561 1.0081 1.0382 0.9843 1.0459 1.069 1.0811 1.1347
2150.810 1.0811 1.0121 0.9834 0.9937 0.9546 0.9596 1.0117 1.0269 1.021 1.0016
2170.100 1.0402 1.0068 1.0317 1.1224 0.9982 0.9614 1.0901 1.1828 1.1236 0.9782
2189.390 0.9336 0.942 1.0194 1.0127 1.0085 1.1598 1.2078 1.0939 1.0226 1.0348
2208.680 1.0579 1.075 0.9976 0.9142 0.9491 0.979 0.9447 0.9388 0.9329 0.8563
2227.970 0.8498 0.8934 0.9305 0.9356 0.8586 0.7297 0.6983 0.7252 0.7339 0.7084
2247.259 0.7007 0.7102 0.5866 0.6284 0.7181 0.7304 0.7979 0.7409 0.6245 0.6287
2266.549 0.7463 0.7974 0.7551 0.6789 0.6348 0.6311 0.5862 0.5515 0.5832 0.6517
2285.839 0.638 0.6577 0.7011 0.6116 0.6244 0.6827 0.6668 0.6504 0.654 0.6629
2305.129 0.6483 0.6897 0.6903 0.7169 0.8337 0.833 0.7197 0.7356 0.8335 0.8165
2324.418 0.8595 0.8586 0.7909 0.7477 0.781 0.8717 0.8285 0.7142 0.7032 0.7481
2343.708 0.7947 0.8179 0.7177 0.6628 0.8432 0.9857 0.9068 0.8774 0.9247 0.9573
2362.998 0.9724 1.0557 1.0327 0.8888 0.9611 1.0962 1.0202 0.8858 0.8608 0.8888
2382.288 0.8977 0.815 0.7402 0.7607 0.7891 0.7714 0.8333 0.9453 0.8768 0.7887
2401.578 0.8033 0.7668 0.7236 0.7909 0.8295 0.7836 0.7802 0.7057 0.6743 0.6931
2420.867 0.6894 0.7068 0.7368 0.7568 0.6715 0.5789 0.58 0.6691 0.6942 0.6845
2440.157 0.7015 0.6837 0.7225 0.7189 0.7247 0.7531 0.6703 0.6941 0.7506 0.7588
2459.447 0.7882 0.7597 0.7812 0.8428 0.8473 0.8757 0.8995 0.8921 0.8757 0.8755
2478.737 0.8689 0.8431 0.8053 0.7437 0.7896 0.8597 0.831 0.8433 0.8065 0.7062
2498.026 0.7149 0.8284 0.949 0.9074 0.8371 0.8363 0.7707 0.8392 0.9231 0.8539
2517.316 0.7778 0.8433 1.0045 1.0008 0.9193 0.876 0.8283 0.8733 0.839 0.8056
2536.606 0.8988 0.8799 0.8163 0.8244 0.8259 0.8461 0.9142 0.8443 0.8084 0.8381
2555.896 0.777 0.7964 0.8675 0.7788 0.6247 0.7623 0.8242 0.7511 0.8118 0.6902
2575.186 0.7173 0.8901 0.8649 0.8005 0.8161 0.8471 0.7587 0.6873 0.7251 0.7701
2594.475 0.79 0.6966 0.6894 0.7999 0.8447 0.8404 0.8271 0.7306 0.6651 0.6905
2613.765 0.774 0.7892 0.6985 0.7206 0.6908 0.7333 0.8056 0.7612 0.6562 0.7441
2633.055 0.8117 0.7777 0.7659 0.6744 0.6689 0.6682 0.6689 0.6036 0.6343 0.7723
2652.345 0.801 0.8186 0.7841 0.7113 0.62 0.6019 0.62 0.6229 0.6566 0.7246
2671.634 0.7675 0.7179 0.6755 0.6422 0.6175 0.496 0.4897 0.6683 0.6694 0.5131
2690.924 0.5037 0.677 0.7218 0.7468 0.7829 0.7697 0.7416 0.5818 0.5316 0.6491
2710.214 0.6899 0.6392 0.6913 0.7364 0.6923 0.6307 0.6169 0.7094 0.7069 0.6863
2729.504 0.6658 0.6445 0.7107 0.7098 0.7379 0.7413 0.7178 0.7876 0.7893 0.7897
2748.794 0.8123 0.8339 0.8697 0.8226 0.788 0.8667 0.9965 1.0644 0.9158 0.7782
2768.083 0.8493 0.8745 0.9224 0.9961 1.0576 1.0978 1.1908 1.302 1.2462 1.2248
2787.373 1.264 1.312 1.442 1.502 1.652 1.852 1.812 1.862 2.102 2.362
2806.663 2.572 2.712 2.882 3.132 3.512 3.982 4.482 4.982 5.462 6.162
2825.953 7.102 8.062 9.072 9.992 10.972 11.932 12.712 13.242 13.292 13.052
2845.242 12.622 12.092 11.372 10.662 9.962 9.272 8.802 8.342 7.952 7.622
2864.532 7.352 7.192 7.182 7.312 7.322 7.242 7.242 7.562 7.882 8.112
2883.822 8.372 8.482 8.562 8.722 8.792 8.852 9.002 9.182 9.332 9.542
2903.112 9.912 10.242 10.562 10.922 11.302 11.702 12.062 12.442 12.842 13.422
2922.401 14.112 14.852 15.672 16.492 17.642 19.132 20.852 22.602 24.412 26.392
2941.691 28.232 29.752 30.642 30.612 29.902 28.822 27.372 25.612 23.832 22.112
2960.981 20.412 19.182 18.352 17.502 16.602 15.832 15.332 14.752 14.282 13.982
2980.271 13.742 13.572 13.372 13.272 13.432 13.802 14.072 14.412 14.902 15.312
2999.561 15.782 16.172 16.272 15.962 15.152 14.112 13.042 11.842 10.632 9.612
3018.850 8.792 8.172 7.682 7.332 6.962 6.692 6.552 6.282 5.982 5.942
3038.140 5.952 5.682 5.392 5.172 5.022 4.942 4.832 4.742 4.692 4.652
3057.430 4.572 4.512 4.602 4.502 4.202 4.072 4.152 4.162 4.062 3.992
3076.720 3.982 3.882 3.732 3.672 3.672 3.532 3.442 3.422 3.312 3.122
3096.009 2.902 2.772 2.532 2.382 2.262 2.112 2.052 1.962 1.762 1.552
3115.299 1.452 1.472 1.492 1.372 1.245 1.2055 1.2209 1.1134 1.1095 1.1157
3134.589 0.9269 0.958 0.9037 0.8796 1.001 0.9761 0.8979 0.9478 0.8417 0.705
3153.879 0.6586 0.5943 0.6269 0.5965 0.7462 0.7559 0.5844 0.5141 0.4718 0.5526
3173.169 0.5431 0.5228 0.5303 0.6744 0.6911 0.4045 0.4358 0.5534 0.5459 0.5364
3192.458 0.4674 0.394 0.5527 0.6435 0.5966 0.601 0.48 0.3884 0.36864 0.495
3211.748 0.5631 0.5411 0.6046 0.5664 0.4522 0.3871 0.4796 0.5117 0.4835 0.4032
3231.038 0.289977 0.283476 0.2344 0.283715 0.4555 0.31835 0.2568 0.3712 0.34398 0.4215
3250.328 0.4327 0.4142 0.38041 0.4073 0.4939 0.3946 0.31229 0.4118 0.32171 0.30756
3269.617 0.4144 0.3063 0.33082 0.5153 0.5342 0.4581 0.271 0.3482 0.5348 0.3951
3288.907 0.32223 0.2607 0.2462 0.34486 0.31458 0.2646 0.284473 0.29898 0.33682 0.30979
3308.197 0.30117 0.37304 0.35065 0.2547 0.36154 0.4393 0.32584 0.4083 0.4457 0.34153
3327.487 0.33434 0.4513 0.5187 0.4516 0.6204 0.7443 0.6504 0.697 0.6065 0.4847
3346.777 0.5261 0.6245 0.5063 0.4424 0.5937 0.3886 0.1997 0.33614 0.5095 0.6321
3366.066 0.6375 0.512 0.3933 0.36103 0.35976 0.32674 0.2549 0.4258 0.5232 0.4535
3385.356 0.4264 0.4325 0.704 0.785 0.5803 0.5779 0.7293 0.7074 0.6487 0.6264
3404.646 0.5781 0.5853 0.5861 0.5844 0.6544 0.6372 0.6935 0.7712 0.6115 0.5708
3423.936 0.7276 0.7293 0.5491 0.604 0.6353 0.7413 0.937 0.8126 0.6725 0.5324
3443.225 0.6933 0.8473 0.7692 0.6985 0.6582 0.7822 0.9007 0.964 0.8889 0.8361
3462.515 0.8844 0.9594 0.8345 0.6963 0.6079 0.5581 0.6349 0.6973 0.634 0.5466
3481.805 0.6563 0.6713 0.6892 0.7573 0.7346 0.7323 0.6717 0.7248 0.7053 0.6978
3501.095 0.8646 0.7902 0.7361 0.8032 0.8283 0.9394 0.9609 0.9799 1.13 1.0559
3520.385 1.0798 1.0996 1.051 1.1956 1.292 1.292 1.432 1.462 1.392 1.522
3539.674 1.672 1.762 1.852 2.082 2.192 2.412 2.742 2.942 3.292 3.822
3558.964 4.512 5.472 6.942 9.202 12.262 16.142 20.152 23.012 24.142 23.682
3578.254 22.052 18.922 14.692 10.952 7.912 5.672 4.282 3.192 2.532 2.202
3597.544 1.812 1.682 1.702 1.412 1.302 1.1751 1.0865 1.0742 0.9643 1.0655
3616.833 1.0581 0.9795 0.9587 0.7263 0.4563 0.5212 0.6908 0.7259 0.5584 0.4395
3636.123 0.4316 0.4062 0.4293 0.5316 0.5219 0.36312 0.42 0.5678 0.5376 0.5369
3655.413 0.7261 0.6624 0.256 0.1918 0.143 0.2115 0.37138 0.2662 0.31962 0.31768
3674.703 0.2697 0.34665 0.29573 0.182 0.30627 0.36506 0.32791 0.4228 0.34451 0.203
3693.993 0.1968 0.2664 0.286608 0.2518 0.4025 0.4179 0.32403 0.33185 0.1933 0.093
3713.282 0.101 0.2182 0.30372 0.30706 0.34375 0.288868 0.2076 0.31564 0.4136 0.4003
3732.572 0.4711 0.4584 0.4447 0.33767 0.143 0.1867 0.2134 0.143 0.2612 0.29557
3751.862 0.2384 0.30156 0.3236 0.2291 0.131 0.161 0.27338 0.290418 0.143 0
3771.152 0.164 0.161 0.122 0.2017 0.213 0.3151 0.34365 0.4144 0.4507 0.30355
3790.441 0.28068 0.37203 0.36834 0.37632 0.4409 0.34447 0.29523 0.3751 0.4608 0.567
3809.731 0.407 0.35007 0.4046 0.2195 0.129 0.2212 0.31986 0.35711 0.37976 0.2513
3829.021 0.086 0.2438 0.4162 0.4599 0.4121 0.2661 0.153 0.163 0.2657 0.2256
3848.311 0.2323 0.4802 0.5686 0.36424 0.289767 0.2146 0.1925 0.34203 0.35132 0.2706
3867.601 0.31141 0.4249 0.29501 0.33623 0.328 0.286187 0.2637 0.161 0.37217 0.4559
3886.890 0.38031 0.35805 0.2474 0.155 0.2062 0.2019 0.2079 0.284911 0.282167 0.2112
3906.180 0.173 0.167 0.217 0.5269 0.5357 0.4075 0.4504 0.242 0.2495 0.4705
3925.470 0.4873 0.1957 0.181 0.3826 0.3894 0.248 0.183 0.31135 0.4297 0.5185
3944.760 0.534 0.4554 0.4501 0.4615 0.5221 0.4812 0.32496 0.5085 0.4522 0.3879
3964.049 0.4674 0.4753 0.7528 0.6386 0.38104 0.30678 0.33182 0.514 0.418 0.2353
3983.339 0.33262 0.33784 0.30058 0.55 0.5401 0.37085 0.4584 0.4893 0.4685 0.3736
##END=
