##TITLE=Aminoacetaldehyde dimethyl acetal
##JCAMP-DX=4.24
##DATA TYPE=INFRARED SPECTRUM
##ORIGIN=NIST Mass Spectrometry Data Center
##OWNER=NIST Standard Reference Data Program
Collection (C) 2018 copyright by the U.S. Secretary of Commerce
on behalf of the United States of America. All rights reserved.
##CAS REGISTRY NO=22483-09-6
##MOLFORM=C 4 H 11 N O 2
##$NIST SOURCE=MSDC-IR
##SPECTROMETER/DATA SYSTEM=HP-GC/MS/IRD
##STATE=gas
##XUNITS=1/CM
##YUNITS=ABSORBANCE
##XFACTOR=1.0
##YFACTOR=0.000003300
##DELTAX=4.0
##FIRSTX=550.0
##LASTX=3846.0
##FIRSTY=0.000591
##MAXX=3846
##MINX=550
##MAXY=0.033
##MINY=0
##NPOINTS=825
##XYDATA=(X++(Y..Y))
550.0 179 191 97 126 96 49 42 69 50 25
590.0 31 33 34 30 32 35 44 54 67 73
630.0 82 99 100 119 145 156 160 175 196 214
670.0 241 262 266 262 249 257 279 279 287 309
710.0 326 358 388 422 474 527 583 664 756 848
750.0 957 1089 1227 1376 1533 1678 1793 1867 1894 1896
790.0 1885 1820 1730 1621 1511 1441 1369 1312 1272 1239
830.0 1194 1160 1142 1135 1117 1060 1000 934 841 745
870.0 678 642 623 620 620 625 630 633 644 659
910.0 676 673 663 675 661 630 609 585 575 581
950.0 595 610 633 691 772 864 991 1169 1397 1679
990.0 1989 2287 2566 2802 2947 3029 3040 3029 3069 3174
1030.0 3402 3806 4403 5209 6206 7302 8376 9281 9854 10000
1070.0 9743 9202 8537 7932 7486 7154 6901 6667 6400 6127
1110.0 5902 5763 5751 5839 5964 6040 5974 5765 5416 4969
1150.0 4482 3991 3530 3126 2782 2509 2299 2128 1988 1862
1190.0 1745 1632 1519 1381 1214 1062 916 779 677 596
1230.0 530 486 460 447 446 453 463 487 518 550
1270.0 579 608 633 650 667 702 740 775 818 854
1310.0 885 915 937 971 1030 1122 1240 1364 1443 1449
1350.0 1386 1280 1196 1194 1317 1457 1545 1577 1518 1344
1390.0 1133 984 879 789 699 627 566 517 477 452
1430.0 447 462 499 545 588 617 619 597 559 520
1470.0 484 445 411 388 356 317 283 249 210 177
1510.0 153 144 134 126 121 116 109 98 97 100
1550.0 103 100 111 115 114 125 136 150 162 179
1590.0 206 233 269 315 373 421 465 493 502 483
1630.0 440 387 323 268 219 179 148 118 97 83
1670.0 67 55 49 40 32 27 24 27 22 17
1710.0 16 10 11 18 15 8 8 10 14 8
1750.0 2 2 7 13 7 3 0 0 5 6
1790.0 1 0 4 3 1 10 16 16 18 19
1830.0 20 21 24 29 30 29 31 37 36 26
1870.0 27 33 33 38 44 45 48 56 55 49
1910.0 50 51 51 51 58 58 61 62 62 67
1950.0 68 67 68 72 76 72 70 69 67 63
1990.0 56 47 48 50 48 47 42 40 35 34
2030.0 33 33 34 33 28 22 24 23 26 29
2070.0 25 26 30 33 29 31 31 30 34 34
2110.0 32 35 36 37 38 41 44 45 46 46
2150.0 50 48 49 52 49 43 40 45 54 53
2190.0 51 50 46 48 47 39 34 34 35 34
2230.0 30 33 33 33 40 41 42 43 39 39
2270.0 40 40 42 41 36 36 34 33 33 26
2310.0 24 27 23 22 24 31 36 31 30 25
2350.0 21 28 31 30 30 29 29 32 27 29
2390.0 35 31 34 36 36 40 36 34 37 41
2430.0 43 44 34 29 36 43 40 32 34 35
2470.0 36 36 34 33 32 34 34 30 31 35
2510.0 33 31 35 40 40 38 45 49 44 44
2550.0 43 43 56 55 53 65 71 69 70 77
2590.0 87 96 97 102 114 124 134 145 153 154
2630.0 162 168 169 167 169 177 176 175 179 183
2670.0 192 191 187 199 195 191 205 211 212 214
2710.0 222 231 237 256 276 285 293 311 334 351
2750.0 368 389 413 432 452 471 491 519 534 555
2790.0 579 607 626 641 663 695 733 779 845 919
2830.0 997 1113 1240 1369 1523 1707 1928 2191 2505 2843
2870.0 3191 3523 3787 3939 3967 3892 3761 3620 3514 3467
2910.0 3464 3510 3602 3742 3943 4176 4381 4509 4534 4444
2950.0 4238 3976 3750 3647 3730 3996 4345 4692 4863 4630
2990.0 4042 3284 2526 1916 1507 1231 1038 903 794 697
3030.0 616 538 478 424 378 337 295 271 263 252
3070.0 235 219 202 184 170 172 172 161 146 144
3110.0 141 132 135 126 129 139 124 120 125 124
3150.0 126 125 119 111 103 108 115 112 102 89
3190.0 96 102 104 102 99 98 93 87 86 88
3230.0 86 78 65 57 64 63 52 55 58 64
3270.0 64 60 59 60 57 51 46 43 43 43
3310.0 49 44 35 33 36 46 60 70 71 85
3350.0 91 94 100 97 77 59 52 43 50 71
3390.0 62 50 56 72 95 121 127 123 130 121
3430.0 96 81 88 82 62 65 69 59 49 42
3470.0 42 44 49 51 50 50 58 60 56 51
3510.0 33 37 53 47 40 33 30 45 44 33
3550.0 36 39 42 38 40 42 40 44 40 40
3590.0 31 22 35 46 52 62 62 45 39 48
3630.0 45 47 56 51 47 51 42 33 38 51
3670.0 55 50 44 38 47 47 47 53 45 44
3710.0 44 45 49 47 55 54 51 63 63 62
3750.0 54 48 55 60 55 40 40 51 52 60
3790.0 69 59 50 54 56 60 72 69 56 55
3830.0 63 54 41 47 54
##END=
