##TITLE=Pentafluorbenzoyl chloride
##JCAMP-DX=4.24
##DATA TYPE=INFRARED SPECTRUM
##ORIGIN=EPA-IR VAPOR PHASE LIBRARY
##OWNER=SRD/NIST
Collection (C) 2018 copyright by the U.S. Secretary of Commerce
on behalf of the United States of America. All rights reserved.
##CAS REGISTRY NO=2251-50-5
##MOLFORM=C 7 Cl F 5 O
##$NIST SOURCE=MSDC-IR
##STATE=gas
##XUNITS=1/CM
##YUNITS=ABSORBANCE
##XFACTOR=1.
##YFACTOR=0.001
##DELTAX=1.92898
##FIRSTX=549.8
##LASTX=4000.7
##FIRSTY=0.574
##MAXX=4000.7
##MINX=549.759
##MAXY=0.173144
##MINY=0
##NPOINTS=1790
##XYDATA=(X++(Y..Y))
549.759 0.574 0.29816 0 0.132 0.37982 0.5819 0.6429 0.542 0.4054 0.7236
569.049 1.0698 1.1988 1.394 2.194 2.984 3.254 3.384 3.654 3.664 3.244
588.339 2.914 2.374 2.074 1.794 1.2894 1.1001 1.0266 0.9757 0.9383 0.7633
607.628 0.6422 0.6595 0.5528 0.4169 0.4532 0.4492 0.5454 0.6352 0.5532 0.6035
626.918 0.655 0.7009 0.8996 0.946 0.8554 1.0868 1.3028 1.414 1.534 1.684
646.208 2.064 2.494 2.914 3.544 4.254 5.034 5.814 6.594 7.134 7.134
665.498 6.904 6.364 5.744 5.064 4.264 3.584 2.934 2.534 2.384 2.224
684.787 2.254 2.294 2.214 2.344 2.714 3.004 3.204 3.544 4.144 4.984
704.077 6.024 7.224 8.814 10.994 13.854 17.834 23.064 29.064 34.464 37.894
723.367 39.254 38.584 35.534 30.984 24.884 17.944 12.624 9.524 7.614 6.604
742.657 6.454 6.684 7.214 8.174 9.834 12.004 14.924 19.064 24.214 30.294
761.947 37.024 43.484 48.364 51.224 51.794 49.464 45.124 39.844 33.894 28.594
781.236 25.094 23.454 22.744 22.354 22.314 22.224 22.134 22.124 22.274 22.844
800.526 23.424 23.994 24.244 23.684 22.424 20.504 18.104 15.614 13.124 10.784
819.816 9.094 7.794 6.914 6.494 6.364 6.294 5.974 5.744 5.424 5.054
839.106 4.484 3.864 3.394 2.704 2.244 2.014 1.774 1.514 1.364 1.2741
858.395 1.228 1.0949 0.9674 1.113 1.0898 1.0715 1.0964 0.9123 0.8888 1.0149
877.685 1.0229 0.9609 0.8816 0.7615 0.7834 0.9155 0.9632 0.9277 0.8677 0.9399
896.975 0.9607 0.9133 0.8459 0.78 0.8926 0.9242 0.8845 0.9837 1.0467 1.0525
916.265 1.1579 1.223 1.2051 1.2226 1.2651 1.474 1.764 1.954 2.104 2.234
935.555 2.384 2.664 2.884 3.074 3.474 3.774 4.064 4.644 5.314 6.014
954.844 6.984 8.024 9.244 10.814 12.494 14.254 16.034 18.094 20.394 22.844
974.134 25.504 28.164 30.764 33.234 35.674 38.084 40.864 44.364 48.584 53.444
993.424 58.934 64.504 69.164 72.004 72.424 70.784 66.804 60.504 52.724 44.114
1012.714 35.984 29.014 23.174 18.504 15.104 12.634 10.824 9.644 8.594 7.764
1032.003 7.344 7.084 6.674 6.534 6.334 6.064 5.964 5.554 5.084 4.904
1051.293 4.514 4.074 3.834 3.424 3.054 2.834 2.734 2.824 2.884 2.834
1070.583 2.974 3.094 2.944 2.834 2.644 2.624 2.554 2.434 2.944 2.864
1089.873 2.604 2.434 2.094 2.144 2.364 2.834 3.264 3.484 3.704 4.144
1109.163 5.114 6.364 7.704 9.764 12.674 16.824 22.764 30.614 40.354 51.584
1128.452 63.664 75.314 85.064 91.324 93.414 91.424 85.484 75.824 64.004 52.454
1147.742 42.924 35.664 29.614 24.464 20.334 16.904 14.134 11.854 10.124 8.624
1167.032 7.154 6.164 5.554 5.054 4.404 3.894 3.464 3.234 3.104 2.694
1186.322 2.384 2.194 2.064 2.094 2.014 1.814 1.654 1.494 1.414 1.2819
1205.611 1.0731 1.0495 1.0204 1.0533 1.1787 1.0439 1.2255 1.404 1.1501 1.2034
1224.901 1.334 1.27 1.2109 1.3024 1.574 1.594 1.644 1.814 1.914 2.064
1244.191 2.234 2.264 2.294 2.294 2.254 2.214 2.114 2.024 1.894 1.794
1263.481 1.724 1.654 1.764 1.934 2.044 2.104 2.164 2.254 2.294 2.274
1282.771 2.334 2.424 2.354 2.334 2.424 2.444 2.544 2.814 3.174 3.724
1302.060 4.594 5.804 7.514 9.964 13.084 17.104 21.854 26.634 30.994 34.154
1321.350 35.634 35.224 32.964 29.234 24.514 19.504 15.004 11.584 9.264 7.684
1340.640 6.554 5.714 5.064 4.484 4.004 3.634 3.284 3.004 2.774 2.584
1359.930 2.474 2.434 2.444 2.544 2.654 2.804 2.904 3.044 3.174 3.204
1379.219 3.234 3.214 3.124 2.974 2.884 2.794 2.774 2.824 2.904 3.134
1398.509 3.554 4.114 4.794 5.724 6.844 8.034 9.364 10.854 12.364 13.804
1417.799 14.984 15.764 15.974 15.724 14.924 13.554 11.954 10.334 8.804 7.594
1437.089 6.764 6.234 5.884 5.634 5.404 5.234 5.184 5.194 5.244 5.364
1456.378 5.614 5.944 6.284 6.784 7.554 8.444 9.404 10.604 12.094 13.894
1475.668 16.134 18.984 22.674 27.674 34.234 42.884 54.164 68.084 84.744 103.344
1494.958 122.704 141.434 157.054 167.934 173.144 172.824 167.464 158.414 146.964 134.844
1514.248 124.834 117.704 112.284 106.834 99.594 90.214 78.264 64.544 50.804 38.634
1533.538 28.864 21.494 16.464 12.994 10.544 8.824 7.624 6.784 6.154 5.574
1552.827 5.104 4.684 4.344 4.154 3.934 3.724 3.554 3.404 3.354 3.274
1572.117 3.154 3.084 3.134 3.204 3.274 3.404 3.494 3.694 3.984 4.234
1591.407 4.444 4.674 4.844 4.954 5.004 4.934 4.834 4.794 4.674 4.464
1610.697 4.354 4.354 4.434 4.494 4.604 4.954 5.484 6.134 6.884 7.874
1629.986 9.194 10.744 12.604 14.874 17.254 19.584 21.704 23.194 23.734 23.224
1649.276 21.804 19.704 16.824 13.604 10.634 8.034 6.014 4.634 3.774 3.224
1668.566 2.824 2.524 2.304 2.174 2.124 2.104 2.104 2.114 2.104 2.064
1687.856 2.124 2.194 2.274 2.434 2.554 2.674 2.774 2.834 2.954 3.134
1707.146 3.314 3.454 3.634 3.824 4.044 4.324 4.524 4.674 4.844 5.054
1726.435 5.214 5.334 5.504 5.714 5.904 6.154 6.474 6.884 7.374 7.884
1745.725 8.474 9.104 9.824 10.604 11.404 12.364 13.494 14.674 15.924 17.234
1765.015 18.454 19.554 20.714 21.824 22.974 24.404 26.434 29.244 33.034 37.994
1784.305 44.054 50.824 57.674 64.144 69.444 72.344 71.764 67.754 61.584 54.574
1803.594 47.344 40.354 33.934 28.384 23.914 20.404 17.694 15.574 13.764 12.264
1822.884 10.984 9.924 9.134 8.424 7.714 7.104 6.524 5.914 5.384 4.894
1842.174 4.414 3.974 3.564 3.254 3.074 2.994 2.884 2.824 2.864 2.844
1861.464 2.784 2.684 2.544 2.364 2.174 2.014 1.834 1.624 1.504 1.454
1880.754 1.354 1.2781 1.1934 1.1129 1.0741 1.0516 1.0626 1.0721 1.0057 0.9677
1900.043 0.991 0.9704 0.9727 0.9559 0.9407 0.9649 0.9177 0.8929 0.8901 0.8491
1919.333 0.8312 0.8845 0.9097 0.8743 0.8833 0.8741 0.8659 0.8726 0.8492 0.873
1938.623 0.9377 0.9643 0.9673 0.9765 0.9536 0.9556 1.0488 1.0981 1.0741 1.1059
1957.913 1.1483 1.094 1.0477 1.0819 1.0837 1.0547 1.0347 0.985 0.9277 0.8799
1977.202 0.8828 0.8529 0.8118 0.8033 0.7494 0.6868 0.6719 0.6288 0.5404 0.5214
1996.492 0.5407 0.5428 0.5072 0.5251 0.5392 0.4998 0.4946 0.4637 0.4818 0.5708
2015.782 0.5924 0.5626 0.5401 0.4849 0.4857 0.4998 0.4728 0.4657 0.4388 0.4295
2035.072 0.39867 0.39641 0.4219 0.40066 0.33575 0.34476 0.35801 0.35074 0.39515 0.38868
2054.362 0.34526 0.305561 0.307287 0.32304 0.36165 0.41 0.4173 0.4156 0.4047 0.4471
2073.651 0.4708 0.4237 0.4904 0.5767 0.5684 0.5836 0.6267 0.6148 0.5881 0.5728
2092.941 0.5541 0.5363 0.498 0.4914 0.5561 0.5873 0.5993 0.5861 0.5436 0.5285
2112.231 0.4725 0.4979 0.5557 0.5147 0.4913 0.5142 0.527 0.5024 0.4557 0.4465
2131.521 0.5126 0.5633 0.5487 0.5369 0.4825 0.4687 0.5678 0.5817 0.575 0.6037
2150.810 0.6115 0.6091 0.6081 0.5836 0.5986 0.6184 0.5962 0.5483 0.4584 0.4441
2170.100 0.34776 0.2146 0.29671 0.32361 0.2923 0.32502 0.3201 0.2831 0.2795 0.30693
2189.390 0.29789 0.34972 0.36503 0.32275 0.34514 0.3473 0.34478 0.4387 0.5185 0.4869
2208.680 0.4609 0.5154 0.5142 0.4653 0.4998 0.4851 0.4753 0.5039 0.4734 0.5146
2227.970 0.5963 0.5765 0.5182 0.4695 0.4752 0.5189 0.4674 0.38448 0.36446 0.33004
2247.259 0.29977 0.38884 0.4686 0.4398 0.4321 0.4427 0.4301 0.5046 0.5964 0.5709
2266.549 0.5403 0.5526 0.561 0.536 0.5329 0.5921 0.6444 0.5604 0.5103 0.5789
2285.839 0.5605 0.5021 0.4922 0.4562 0.4097 0.39871 0.35642 0.40033 0.4239 0.4247
2305.129 0.4395 0.4349 0.4463 0.4404 0.4436 0.432 0.4289 0.38543 0.36687 0.38967
2324.418 0.39072 0.39138 0.37042 0.31901 0.2701 0.2617 0.2664 0.2599 0.2758 0.307926
2343.708 0.30707 0.2758 0.2748 0.29686 0.32824 0.37043 0.4069 0.4201 0.365 0.32267
2362.998 0.35171 0.34317 0.2893 0.2902 0.34112 0.275 0.195 0.2637 0.36862 0.36562
2382.288 0.32778 0.37004 0.4069 0.4577 0.525 0.5786 0.619 0.6271 0.6976 0.7262
2401.578 0.6427 0.6746 0.7187 0.7491 0.8489 0.8855 0.9234 0.9696 0.9549 0.9435
2420.867 0.9347 0.9326 0.9165 0.8816 0.8761 0.8509 0.7868 0.7363 0.68 0.6197
2440.157 0.5813 0.6152 0.6959 0.6677 0.6341 0.6706 0.6431 0.6096 0.6413 0.7267
2459.447 0.7968 0.8323 0.8966 0.9752 1.0434 1.0542 1.0225 1.0239 1.0621 1.1665
2478.737 1.224 1.2033 1.1536 1.0031 0.9361 0.9765 1.0052 0.9961 0.9997 0.9985
2498.026 0.9338 0.9699 1.0301 0.9785 0.9302 0.9636 1.0188 0.9576 0.9 0.8656
2517.316 0.8237 0.8184 0.8001 0.8251 0.8491 0.8013 0.7624 0.7446 0.7575 0.7371
2536.606 0.6597 0.6635 0.7242 0.7895 0.7857 0.7182 0.6936 0.6861 0.7368 0.7872
2555.896 0.6788 0.6848 0.7221 0.6716 0.6804 0.7044 0.7311 0.7021 0.6491 0.6171
2575.186 0.6215 0.6058 0.6259 0.6662 0.6306 0.5466 0.5096 0.5264 0.5611 0.5003
2594.475 0.4355 0.5188 0.5392 0.498 0.5107 0.5224 0.5033 0.4994 0.5228 0.5988
2613.765 0.646 0.6375 0.6409 0.6134 0.6228 0.6822 0.7595 0.848 0.9268 1.029
2633.055 1.1602 1.2952 1.394 1.394 1.364 1.384 1.414 1.494 1.494 1.474
2652.345 1.504 1.494 1.444 1.464 1.394 1.2647 1.2454 1.2628 1.2049 1.103
2671.634 1.0844 1.0513 0.9965 0.8644 0.845 0.8906 0.8052 0.7162 0.6228 0.4879
2690.924 0.4885 0.5877 0.556 0.4379 0.4658 0.4711 0.31906 0.34743 0.4141 0.4322
2710.214 0.4703 0.4889 0.4859 0.5184 0.4864 0.4277 0.4611 0.4636 0.4538 0.4551
2729.504 0.4923 0.4674 0.4337 0.5813 0.6647 0.58 0.5173 0.5444 0.5836 0.5719
2748.794 0.5818 0.5403 0.5099 0.5621 0.5849 0.592 0.6258 0.6115 0.5824 0.5549
2768.083 0.5487 0.5899 0.6724 0.7141 0.6502 0.7423 0.8269 0.8752 0.8606 0.6819
2787.373 0.6476 0.6782 0.5852 0.5923 0.6455 0.5816 0.5446 0.5151 0.5418 0.4119
2806.663 0.40143 0.5043 0.4758 0.5213 0.5626 0.5218 0.4543 0.448 0.4476 0.4896
2825.953 0.4485 0.37423 0.4707 0.5347 0.4692 0.39072 0.37617 0.4701 0.4695 0.448
2845.242 0.4709 0.4983 0.4691 0.36041 0.38759 0.5396 0.4636 0.38956 0.4889 0.5015
2864.532 0.5224 0.552 0.5369 0.4623 0.444 0.4469 0.486 0.5305 0.6083 0.5906
2883.822 0.4892 0.5763 0.6513 0.6369 0.5941 0.5935 0.6319 0.6334 0.6955 0.7595
2903.112 0.691 0.7025 0.7242 0.702 0.7304 0.8405 0.9539 1.0107 0.9934 0.9077
2922.401 0.9455 0.9872 0.9638 0.9046 0.8914 0.9718 1.0077 1.0131 1.0229 0.9762
2941.691 0.9376 0.9563 0.9589 0.8975 0.7911 0.8189 0.823 0.7911 0.8749 0.8666
2960.981 0.7603 0.7292 0.7072 0.609 0.6981 0.7509 0.5614 0.5105 0.5205 0.511
2980.271 0.5223 0.5567 0.5432 0.5517 0.566 0.507 0.4758 0.4784 0.5156 0.533
2999.561 0.5104 0.5452 0.5639 0.5663 0.5697 0.6061 0.6807 0.675 0.6829 0.6939
3018.850 0.6698 0.7057 0.8165 0.7804 0.6768 0.6622 0.689 0.6815 0.7546 0.8329
3038.140 0.8178 0.7018 0.6566 0.831 0.9138 0.8247 0.6076 0.5422 0.567 0.5953
3057.430 0.5831 0.5178 0.5417 0.6997 0.67 0.5023 0.5676 0.6507 0.6453 0.5493
3076.720 0.6382 0.7708 0.6585 0.5176 0.5345 0.4955 0.4583 0.5757 0.7702 0.747
3096.009 0.6647 0.7083 0.6633 0.6581 0.7456 0.6908 0.6292 0.6799 0.7105 0.7928
3115.299 0.7967 0.6929 0.7009 0.7375 0.622 0.6088 0.6039 0.633 0.6805 0.6623
3134.589 0.7955 0.7519 0.5864 0.5726 0.5359 0.51 0.6053 0.6992 0.7083 0.6559
3153.879 0.6453 0.6673 0.6039 0.6395 0.7074 0.696 0.634 0.6091 0.5194 0.4696
3173.169 0.578 0.561 0.6069 0.6282 0.5425 0.5777 0.6477 0.6714 0.5734 0.5012
3192.458 0.568 0.6114 0.6103 0.5965 0.6276 0.6474 0.6357 0.7509 0.7704 0.6719
3211.748 0.6494 0.5877 0.5127 0.6685 0.6902 0.5786 0.6223 0.5525 0.4823 0.4564
3231.038 0.5231 0.5751 0.5477 0.6143 0.6314 0.5972 0.6049 0.5725 0.5985 0.5467
3250.328 0.4123 0.4764 0.6666 0.6615 0.5948 0.6352 0.5295 0.5429 0.675 0.6059
3269.617 0.5925 0.6419 0.7599 0.8029 0.7186 0.7553 0.7147 0.549 0.6088 0.6963
3288.907 0.8091 0.9073 0.7726 0.6642 0.641 0.6734 0.5805 0.5751 0.647 0.6041
3308.197 0.6755 0.6907 0.6278 0.6929 0.6655 0.5573 0.5433 0.5436 0.5749 0.6408
3327.487 0.6468 0.514 0.5477 0.696 0.5832 0.4391 0.4288 0.5853 0.666 0.6615
3346.777 0.7268 0.7068 0.6712 0.6593 0.6715 0.8243 0.753 0.6525 0.6914 0.7912
3366.066 0.7858 0.5883 0.6429 0.5555 0.4437 0.5201 0.664 0.6854 0.551 0.5732
3385.356 0.7195 0.8557 0.69 0.4229 0.36925 0.5728 0.7838 0.7773 0.7183 0.6563
3404.646 0.6757 0.6826 0.6994 0.7126 0.6646 0.5547 0.5064 0.6572 0.7554 0.8028
3423.936 0.8417 0.8648 0.8675 0.8521 0.7495 0.6702 0.795 0.7682 0.6213 0.6236
3443.225 0.6963 0.7089 0.6926 0.7834 0.7645 0.8582 0.9777 0.8403 0.7675 0.7315
3462.515 0.7688 0.7533 0.758 0.8172 0.8144 0.8079 0.7555 0.8409 0.8831 0.8093
3481.805 0.8508 0.9075 0.9059 0.8858 0.7984 0.7014 0.7724 0.9622 0.9818 0.903
3501.095 0.9607 1.0867 0.9859 0.8358 0.9271 0.8973 0.8988 1.0542 1.0995 1.1186
3520.385 1.1749 1.2495 1.2544 1.1514 1.0493 1.0678 1.2414 1.2946 1.1837 1.2394
3539.674 1.444 1.434 1.344 1.334 1.394 1.504 1.454 1.514 1.614 1.464
3558.964 1.384 1.444 1.364 1.2883 1.404 1.524 1.524 1.584 1.424 1.394
3578.254 1.404 1.2669 1.2939 1.2827 1.2249 1.1262 1.1115 1.0615 1.1636 1.0934
3597.544 1.0462 1.2635 1.1885 1.0927 1.0361 0.8876 0.8835 0.9495 0.9267 0.899
3616.833 0.9794 0.9615 0.7821 0.7454 0.7925 0.8019 0.8437 0.8121 0.7801 0.8047
3636.123 0.7147 0.6382 0.7605 0.8157 0.7536 0.659 0.6303 0.7492 0.748 0.6724
3655.413 0.6717 0.7964 0.9342 0.9178 0.9046 0.9119 0.8545 0.8908 0.9269 0.867
3674.703 0.7931 0.7577 0.7347 0.7693 0.8368 0.7472 0.7126 0.711 0.7029 0.7143
3693.993 0.5518 0.5098 0.5688 0.6164 0.6695 0.6021 0.5736 0.6484 0.6787 0.6797
3713.282 0.6657 0.6965 0.7105 0.7434 0.8064 0.7968 0.7448 0.6676 0.7141 0.7612
3732.572 0.7068 0.7647 0.8239 0.7537 0.635 0.6211 0.7366 0.7296 0.779 0.8237
3751.862 0.7426 0.7088 0.6782 0.6728 0.6787 0.7869 0.8231 0.8056 0.8848 0.9425
3771.152 0.8684 0.7581 0.7118 0.6981 0.6407 0.7048 0.7309 0.6805 0.6627 0.4636
3790.441 0.4795 0.6663 0.683 0.6729 0.576 0.5462 0.44 0.6016 0.8724 0.7883
3809.731 0.8179 0.6754 0.7034 0.8179 0.6138 0.6822 0.7027 0.4701 0.5922 0.7948
3829.021 0.667 0.6943 0.8042 0.6693 0.6039 0.6414 0.7403 0.8557 0.789 0.8048
3848.311 0.7068 0.5984 0.7169 0.7937 0.9069 0.7896 0.8076 0.9216 0.8929 0.7166
3867.601 0.6629 0.8142 0.5482 0.473 0.6068 0.6622 0.8046 0.8178 0.6312 0.6192
3886.890 0.766 0.7518 0.8034 0.8779 0.905 0.7976 0.7241 0.7438 0.7 0.6673
3906.180 0.8148 0.8509 0.7514 0.6426 0.4153 0.5456 0.6779 0.6474 0.7964 0.8011
3925.470 0.6195 0.6635 0.8912 0.8538 0.7297 0.7684 0.877 0.7767 0.5875 0.5197
3944.760 0.4912 0.6412 0.7819 0.7099 0.6336 0.7963 0.8984 0.6577 0.573 0.5906
3964.049 0.5808 0.8225 0.8897 0.7009 0.6024 0.5826 0.6864 0.6817 0.7442 0.8753
3983.339 0.9336 1.0169 0.7643 0.587 0.8126 1.0065 1.0406 0.8763 0.694 0.6885
##END=
