##TITLE=N-(4-Fluorophenyl)piperazine
##JCAMP-DX=4.24
##DATA TYPE=INFRARED SPECTRUM
##ORIGIN=EPA-IR VAPOR PHASE LIBRARY
##OWNER=SRD/NIST
Collection (C) 2018 copyright by the U.S. Secretary of Commerce
on behalf of the United States of America. All rights reserved.
##CAS REGISTRY NO=2252-63-3
##MOLFORM=C 10 H 13 F N 2
##$NIST SOURCE=MSDC-IR
##STATE=gas
##XUNITS=1/CM
##YUNITS=ABSORBANCE
##XFACTOR=1.
##YFACTOR=0.001
##DELTAX=1.92934
##FIRSTX=549.9
##LASTX=3999.5
##FIRSTY=12.52
##MAXX=3999.53
##MINX=549.863
##MAXY=0.45864
##MINY=0
##NPOINTS=1789
##XYDATA=(X++(Y..Y))
549.863 12.52 11.85 11.28 10.99 10.78 10.73 10.9 11.06 11.5 12.2
569.156 12.77 13.29 13.8 14.26 14.58 14.67 14.77 15.08 15.62 16.4
588.450 17.35 17.95 17.87 17.33 16.38 15.02 12.97 10.57 8.6 7.11
607.743 6 5.31 4.92 4.62 4.35 4.19 4.19 4.08 3.93 3.91
627.037 3.9 4.04 4.14 4.11 4.23 4.34 4.43 4.67 4.91 5.05
646.330 5.25 5.51 5.67 5.89 6.26 6.56 6.88 7.26 7.58 8.04
665.624 8.6 9.16 9.51 9.71 10.07 10.41 10.71 11.14 11.67 12.23
684.917 13.05 14.01 15 16.12 17.46 19.16 21.17 23.47 25.94 28.43
704.210 30.81 33.1 35.27 36.68 36.77 36.01 35.1 33.99 32.39 30.63
723.504 29.37 29 29.33 30.19 31.49 33 34.82 36.92 39.21 41.76
742.797 44.56 47.74 51.26 55.12 59.19 63.25 67.08 70.45 72.97 74.21
762.091 73.85 71.76 68.22 63.51 57.91 51.92 46.04 40.66 36.07 32.21
781.384 29.07 26.69 24.9 23.69 23.01 22.8 22.99 23.73 25.14 27.41
800.678 30.87 35.83 42.68 51.55 61.88 72.48 82.06 89.6 95.24 99.31
819.971 101.17 100.74 99.14 97.54 95.04 90.78 85.82 80.46 74.12 66.83
839.264 58.77 50.17 41.77 34.28 28.07 23.25 19.7 17.12 15.31 14.16
858.558 13.55 13.39 13.56 13.81 14.09 14.31 14.39 14.18 13.65 12.98
877.851 12.22 11.4 10.72 10.1 9.66 9.48 9.34 9.29 9.35 9.53
897.145 9.82 10.23 10.77 11.38 12.18 13.14 14.29 15.54 16.84 18.4
916.438 20.24 22.53 25.51 29.15 33.23 37.52 41.65 45.24 47.81 48.87
935.732 48.2 45.84 41.93 36.89 31.46 26.12 21.07 16.62 13.03 10.37
955.025 8.52 7.27 6.33 5.56 4.96 4.5 4.19 3.9 3.61 3.43
974.318 3.24 3.09 3.04 2.99 2.94 2.95 3.01 3.09 3.11 3.18
993.612 3.36 3.64 4.09 4.7 5.51 6.49 7.35 7.85 8.16 8.5
1012.905 8.76 8.72 8.46 8.27 8.24 8.27 8.44 8.62 8.68 8.82
1032.199 9.04 9.26 9.63 10.12 10.67 11.31 12.12 13.09 13.99 14.71
1051.492 15.23 15.51 15.45 15.08 14.4 13.47 12.61 11.68 10.7 9.85
1070.786 9.21 8.74 8.37 8.25 8.26 8.4 8.68 9.2 9.85 10.57
1090.079 11.45 12.53 13.73 14.98 16.36 17.83 19.43 20.93 22.21 23.49
1109.372 24.59 25.6 26.6 27.73 29.28 31.25 33.52 35.89 38.38 40.86
1128.666 43.24 45.53 47.49 49 50.09 50.73 50.77 50.4 49.93 49.52
1147.959 49.84 51.36 54 56.68 57.69 56.96 55.57 53.42 49.36 43.5
1167.253 37.56 32.86 29.66 27.69 26.67 26.31 26.52 27.4 28.73 30.61
1186.546 33.09 36.04 39.68 43.97 48.83 54.21 60.29 66.73 73.15 79.97
1205.840 87.22 95.45 105.16 116.62 130.89 148.51 168.97 190.88 212.43 232.44
1225.133 250.5 266.03 276.6 279.24 273.2 260.02 241.84 219.09 191.2 160.08
1244.426 129.9 104.79 86.44 73.31 63.49 55.99 50.01 45.21 41.33 37.94
1263.720 34.93 32.47 30.65 29.25 28.11 27.33 26.69 25.95 25.24 24.3
1283.013 23.14 21.99 20.76 19.5 18.32 17.43 16.93 16.71 16.79 17.16
1302.307 17.71 18.55 19.61 20.94 22.6 24.57 26.81 29.28 31.97 34.7
1321.600 37.21 39.29 40.81 41.8 42.36 42.29 41.32 39.43 37.03 34.49
1340.894 31.79 29.15 26.82 24.83 23.12 21.65 20.38 19.39 18.87 18.91
1360.187 19.53 20.74 22.43 24.6 27.28 30.18 32.92 34.92 35.61 35.05
1379.480 33.5 31 27.69 24 20.5 17.59 15.42 13.95 12.85 11.94
1398.774 11.25 10.61 10.1 9.74 9.49 9.36 9.35 9.44 9.58 9.86
1418.067 10.31 10.91 11.62 12.6 13.82 15.35 17.27 19.51 22.15 25.27
1437.361 28.77 32.36 36.25 40.43 44.95 50 55.49 60.53 64.19 65.56
1456.654 64.34 60.99 56.02 49.72 42.74 36 30.65 27 24.94 24.03
1475.948 24.15 25.2 27.17 30.22 34.5 40.32 48.13 58.37 71.77 88.87
1495.241 111.33 140.98 178.69 225.94 281.93 342.42 400.96 443.11 458.64 448.5
1514.534 417.81 368.23 301.4 227.38 159.86 112.84 82.34 63.09 50.62 42.08
1533.828 35.82 31.08 27.64 24.73 22.12 20.02 18.29 16.88 15.75 14.78
1553.121 14.01 13.32 12.69 12.15 11.48 10.77 10.23 9.8 9.48 9.21
1572.415 8.9 8.65 8.45 8.16 7.96 7.92 7.9 7.87 7.92 8.13
1591.708 8.31 8.45 8.62 8.74 8.81 8.79 8.74 8.67 8.6 8.56
1611.002 8.48 8.35 8.3 8.21 8.03 7.86 7.63 7.41 7.2 6.99
1630.295 6.75 6.51 6.33 6.11 5.89 5.74 5.63 5.57 5.54 5.42
1649.588 5.26 5.2 5.09 4.79 4.45 4.22 4.11 3.96 3.78 3.61
1668.882 3.5 3.36 3.21 3.2 3.14 3.04 2.98 2.89 2.86 2.82
1688.175 2.7335 2.7048 2.7204 2.7224 2.77 2.77 2.82 2.86 2.87 2.93
1707.469 2.96 3.06 3.18 3.32 3.52 3.71 3.82 3.85 3.96 4.07
1726.762 4.09 4.1 4.06 3.94 3.71 3.32 2.99 2.6583 2.4055 2.2441
1746.056 2.0788 1.9143 1.82067 1.78264 1.6668 1.616 1.577 1.563 1.54 1.485
1765.349 1.507 1.529 1.54 1.56 1.554 1.537 1.55 1.618 1.6938 1.7086
1784.642 1.7169 1.6829 1.659 1.7327 1.75342 1.7264 1.7268 1.73 1.80333 1.9073
1803.936 1.9236 1.9908 2.1386 2.2761 2.4875 2.736 2.92 3.14 3.31 3.4
1823.229 3.56 3.7 3.68 3.72 3.87 4.03 4.18 4.31 4.52 4.75
1842.523 4.97 5.17 5.28 5.38 5.47 5.47 5.43 5.34 5.23 5.1
1861.816 4.92 4.72 4.56 4.38 4.16 3.98 3.81 3.66 3.53 3.42
1881.110 3.27 3.08 2.95 2.81 2.666 2.5954 2.5439 2.4628 2.3714 2.2748
1900.403 2.2485 2.2768 2.2725 2.3125 2.3755 2.351 2.3529 2.4141 2.4124 2.4104
1919.696 2.4127 2.3972 2.3853 2.3757 2.3572 2.355 2.349 2.3399 2.3428 2.3571
1938.990 2.3619 2.3468 2.3073 2.2587 2.1906 2.1217 2.0554 1.9616 1.9158 1.9095
1958.283 1.875 1.85108 1.79979 1.75927 1.81682 1.8659 1.84839 1.79926 1.78312 1.77256
1977.577 1.78734 1.78625 1.75977 1.80724 1.84605 1.8808 1.9008 1.9275 1.9276 1.883
1996.870 1.8791 1.84836 1.7904 1.75509 1.746 1.7206 1.7348 1.77165 1.8151 1.8626
2016.164 1.8799 1.9526 2.0357 2.1024 2.1965 2.3333 2.4974 2.6367 2.78 2.94
2035.457 3.11 3.28 3.49 3.66 3.79 3.92 3.91 3.82 3.7 3.55
2054.750 3.34 3.13 2.9 2.686 2.5273 2.4307 2.3855 2.2721 2.1893 2.1259
2074.044 2.0352 1.9444 1.8731 1.83647 1.82929 1.77382 1.6782 1.647 1.611 1.543
2093.337 1.499 1.452 1.378 1.312 1.238 1.139 1.09 1.084 1.024 0.987
2112.631 0.974 0.943 0.927 0.865 0.803 0.768 0.769 0.804 0.784 0.764
2131.924 0.777 0.77 0.763 0.791 0.819 0.808 0.834 0.869 0.866 0.875
2151.218 0.873 0.866 0.898 0.938 0.933 0.933 0.916 0.906 0.876 0.841
2170.511 0.823 0.769 0.783 0.802 0.762 0.76 0.761 0.796 0.782 0.73
2189.804 0.766 0.782 0.798 0.801 0.828 0.813 0.763 0.84 0.912 0.889
2209.098 0.877 0.867 0.857 0.908 0.923 0.912 0.93 0.901 0.887 0.927
2228.391 0.959 1.025 1.064 1.097 1.155 1.191 1.201 1.24 1.227 1.228
2247.685 1.331 1.393 1.393 1.399 1.432 1.43 1.464 1.476 1.503 1.54
2266.978 1.543 1.567 1.558 1.565 1.61 1.629 1.647 1.6758 1.639 1.606
2286.272 1.6605 1.713 1.7185 1.7355 1.77584 1.81889 1.8628 1.9335 1.9765 1.9938
2305.565 2.031 2.094 2.157 2.2076 2.2868 2.3307 2.3349 2.3808 2.4214 2.4275
2324.858 2.3957 2.3365 2.2873 2.2266 2.1221 2.0529 2.014 1.8849 1.7729 1.734
2344.152 1.6783 1.635 1.606 1.61 1.679 1.7426 1.7449 1.7319 1.7622 1.80659
2363.445 1.82448 1.84515 1.8979 1.934 1.957 1.9874 2.0242 2.0334 2.0669 2.097
2382.739 2.1119 2.1493 2.1585 2.1744 2.1734 2.131 2.0891 1.9996 1.85135 1.7905
2402.032 1.7469 1.6612 1.573 1.506 1.494 1.5 1.506 1.536 1.633 1.716
2421.326 1.7477 1.76547 1.81358 1.8806 1.9296 2.0245 2.1414 2.1826 2.2116 2.2718
2440.619 2.326 2.4022 2.4339 2.4136 2.4504 2.5383 2.6644 2.77 2.84 2.89
2459.912 2.93 2.95 2.95 2.9 2.83 2.78 2.6794 2.5976 2.4833 2.3342
2479.206 2.1953 2.1087 1.9987 1.9096 1.81968 1.77639 1.82266 1.78028 1.77259 1.80149
2498.499 1.83358 1.8898 1.85995 1.80276 1.85747 1.9098 1.911 1.9281 1.9197 1.9463
2517.793 1.9942 2.0091 2.0654 2.0501 2.0425 2.1203 2.146 2.172 2.1902 2.2219
2537.086 2.2817 2.3136 2.2971 2.3263 2.3283 2.33 2.416 2.4766 2.5012 2.52
2556.380 2.5581 2.5693 2.6115 2.7007 2.8 2.89 2.89 2.92 2.95 2.98
2575.673 3.01 3.01 3.02 3.05 3.11 3.09 3.08 3 2.96 2.99
2594.966 2.97 2.92 2.92 2.91 2.9 2.93 2.93 2.94 2.99 3.01
2614.260 3.03 3.11 3.19 3.25 3.33 3.43 3.55 3.73 3.84 3.95
2633.553 4.12 4.29 4.47 4.62 4.86 5.07 5.24 5.49 5.78 6.01
2652.847 6.25 6.62 6.95 7.24 7.57 7.9 8.24 8.54 8.8 9.13
2672.140 9.37 9.49 9.66 9.83 9.92 9.98 9.96 9.9 9.86 9.82
2691.434 9.78 9.68 9.63 9.62 9.54 9.44 9.4 9.36 9.37 9.47
2710.727 9.57 9.73 10 10.36 10.75 11.23 11.77 12.46 13.31 14.16
2730.020 14.97 15.88 16.78 17.62 18.46 19.15 19.77 20.3 20.71 20.86
2749.314 20.82 20.82 20.75 20.52 20.3 20.12 20.02 20.13 20.36 20.76
2768.607 21.38 22.2 23.34 24.79 26.5 28.5 30.85 33.58 36.53 39.69
2787.901 43.25 47.07 51.06 55.04 58.89 62.82 66.41 69.34 71.66 73.37
2807.194 74.59 75.63 76.72 78.09 80.01 82.36 85.25 88.84 92.67 96.34
2826.488 99.79 102.76 104.65 104.66 102.37 98.3 93.2 87.5 81.45 75.15
2845.781 68.92 63 57.5 52.66 48.59 45.22 42.46 40.26 38.48 36.92
2865.074 35.67 34.67 33.86 33.17 32.6 32.21 31.88 31.75 31.84 32.1
2884.368 32.5 32.97 33.5 34.13 34.74 35.37 35.93 36.5 37.25 38.09
2903.661 39.1 40.24 41.47 42.77 44.21 45.88 47.51 49.06 50.59 51.89
2922.955 53 53.84 54.56 55.29 56.37 58.15 60.97 65.22 71.32 79.47
2942.248 89.61 101.61 114.33 125.88 133.78 136.49 135.26 131.24 123.47 111.45
2961.542 97.22 84.03 73.29 64.4 56.79 50.2 44.56 39.74 35.42 31.5
2980.835 28.04 24.9 21.98 19.31 16.96 14.93 13.23 11.82 10.57 9.68
3000.128 8.92 8.15 7.66 7.17 6.66 6.23 5.94 5.6 5.22 4.98
3019.422 4.74 4.53 4.37 4.29 4.25 4.3 4.5 4.79 5.1 5.63
3038.715 6.45 7.35 8.65 10.44 12.38 14.54 16.93 19.08 20.47 21.17
3058.009 21.31 20.62 19.22 17.52 15.66 13.89 12.45 11.49 10.74 10.13
3077.302 9.55 8.88 8.36 8.04 7.69 7.18 6.79 6.46 6.15 5.87
3096.596 5.82 5.82 5.77 5.71 5.63 5.61 5.63 5.61 5.46 5.28
3115.889 5.11 4.9 4.61 4.29 3.96 3.67 3.34 2.96 2.6348 2.2369
3135.182 1.9855 1.84012 1.611 1.424 1.219 1.153 1.075 0.965 0.943 0.829
3154.476 0.74 0.76 0.64 0.68 0.785 0.69 0.66 0.68 0.66 0.5
3173.769 0.49 0.64 0.67 0.67 0.58 0.46 0.41 0.44 0.48 0.53
3193.063 0.61 0.7 0.63 0.45 0.51 0.55 0.53 0.65 0.73 0.74
3212.356 0.52 0.45 0.46 0.47 0.61 0.53 0.37 0.29 0.34 0.42
3231.650 0.19 0.11 0.37 0.44 0.32 0.28 0.2 0.2 0.24 0.05
3250.943 0.01 0.09 0.12 0.16 0.18 0.23 0.12 0.02 0 0.05
3270.236 0.24 0.2 0.07 0.01 0.1 0.19 0.23 0.19 0.19 0.28
3289.530 0.13 0.05 0.09 0.16 0.22 0.23 0.18 0.23 0.3 0.39
3308.823 0.49 0.48 0.51 0.44 0.36 0.42 0.49 0.57 0.781 0.911
3328.117 0.844 0.96 1.041 0.831 0.76 0.782 0.68 0.62 0.57 0.48
3347.410 0.35 0.26 0.33 0.4 0.42 0.48 0.4 0.26 0.34 0.5
3366.704 0.38 0.32 0.53 0.5 0.49 0.49 0.25 0.27 0.37 0.38
3385.997 0.47 0.57 0.51 0.34 0.4 0.44 0.44 0.51 0.51 0.43
3405.290 0.41 0.45 0.33 0.42 0.54 0.48 0.48 0.6 0.66 0.6
3424.584 0.64 0.61 0.48 0.49 0.63 0.7 0.59 0.49 0.56 0.46
3443.877 0.53 0.62 0.42 0.42 0.45 0.4 0.43 0.32 0.29 0.39
3463.171 0.29 0.41 0.51 0.49 0.54 0.48 0.41 0.26 0.26 0.32
3482.464 0.4 0.56 0.5 0.38 0.41 0.44 0.43 0.45 0.44 0.45
3501.758 0.53 0.56 0.57 0.5 0.46 0.45 0.45 0.53 0.51 0.58
3521.051 0.72 0.66 0.62 0.6 0.55 0.59 0.59 0.62 0.68 0.63
3540.344 0.62 0.67 0.765 0.783 0.68 0.68 0.68 0.68 0.63 0.51
3559.638 0.53 0.54 0.57 0.65 0.51 0.45 0.54 0.51 0.48 0.4
3578.931 0.4 0.48 0.51 0.52 0.58 0.61 0.64 0.61 0.57 0.64
3598.225 0.62 0.51 0.44 0.41 0.47 0.58 0.64 0.74 0.787 0.74
3617.518 0.7 0.58 0.49 0.51 0.58 0.7 0.66 0.6 0.58 0.54
3636.812 0.63 0.68 0.64 0.71 0.818 0.885 0.941 0.94 0.877 0.895
3656.105 0.791 0.72 0.798 0.73 0.74 0.81 0.889 0.971 0.94 0.929
3675.398 0.937 0.829 0.872 0.882 0.72 0.764 0.93 1.024 1.054 1.079
3694.692 0.988 0.909 1.009 1.056 1.06 0.994 0.85 0.851 0.908 1.028
3713.985 0.953 0.782 0.857 0.959 0.973 0.909 0.943 0.893 0.76 0.817
3733.279 0.926 0.913 0.939 1.073 1.127 1.082 0.985 0.945 0.966 0.975
3752.572 0.895 0.769 0.866 0.981 0.942 0.834 0.787 0.913 0.925 0.829
3771.866 0.882 0.834 0.773 0.932 0.976 0.797 0.72 0.822 0.903 1.057
3791.159 1.007 0.825 0.847 0.871 0.871 0.964 1.018 0.981 0.931 0.927
3810.452 0.945 1.02 1.086 1.008 0.892 0.819 0.927 1.097 1.131 1.001
3829.746 0.87 0.943 1.087 1.156 1.117 1.064 0.968 0.88 0.908 1.052
3849.039 1.272 1.241 1.106 0.995 0.919 1.051 1.132 1.113 1.185 1.226
3868.333 1.171 1.116 1.131 1.204 1.198 1.193 1.222 1.255 1.248 1.3
3887.626 1.262 1.25 1.406 1.388 1.249 1.23 1.331 1.289 1.211 1.209
3906.920 1.169 1.128 1.127 1.032 1.035 1.127 1.208 1.273 1.219 1.189
3926.213 1.226 1.269 1.33 1.363 1.329 1.305 1.363 1.399 1.373 1.363
3945.506 1.318 1.269 1.275 1.31 1.373 1.366 1.338 1.355 1.47 1.495
3964.800 1.362 1.358 1.494 1.504 1.497 1.521 1.493 1.458 1.385 1.449
3984.093 1.414 1.36 1.419 1.466 1.525 1.526 1.501 1.495 1.549
##END=
