##TITLE=3-(Trifluoromethoxy)bromobenzene
##JCAMP-DX=4.24
##DATA TYPE=INFRARED SPECTRUM
##ORIGIN=EPA-IR VAPOR PHASE LIBRARY
##OWNER=SRD/NIST
Collection (C) 2018 copyright by the U.S. Secretary of Commerce
on behalf of the United States of America. All rights reserved.
##CAS REGISTRY NO=2252-44-0
##MOLFORM=C 7 H 4 Br F 3 O
##$NIST SOURCE=MSDC-IR
##STATE=gas
##XUNITS=1/CM
##YUNITS=ABSORBANCE
##XFACTOR=1.
##YFACTOR=0.001
##DELTAX=1.92898
##FIRSTX=549.8
##LASTX=4000.7
##FIRSTY=1.43619
##MAXX=4000.7
##MINX=549.759
##MAXY=0.80365
##MINY=0
##NPOINTS=1790
##XYDATA=(X++(Y..Y))
549.759 1.43619 1.40132 2.1032 3.15 2.48 1.2917 0.842 0.713 1.3531 2.0163
569.049 1.6217 1.3268 1.37151 1.8599 1.536 0.595 0.872 1.6735 2.2893 1.6003
588.339 1.37528 1.6276 2.41 2.48 1.9066 2.2986 2.98 3.25 3.2 3.39
607.628 3.66 3.93 4.39 5.08 5.82 6.83 8.49 10.74 13.48 16.3
626.918 18.67 20.3 21 21.23 20.64 18.96 16.49 13.95 11.56 10.28
646.208 9.76 9.91 10.98 12.38 13.86 15.73 18.27 20.79 23.52 26.53
665.498 29.34 32.1 34.77 36.95 39.26 40.6 40.58 39.63 37.16 33.28
684.787 28.69 24.72 21.98 19.77 18.17 17.4 17.76 18.18 18.9 19.98
704.077 21.36 22.64 23.75 24.5 23.82 22.82 21.24 19.01 16.56 14.36
723.367 13.1 11.57 9.81 9.4 8.53 7.44 6.85 6.25 6.01 5.84
742.657 5.65 5.23 5.08 5.19 5.7 6.5 6.94 7.5 9.35 11.6
761.947 14.31 18.11 21.96 26.1 30.88 35.53 40.44 45.28 48.38 49.31
781.236 47.55 43.43 38.51 33.27 27.25 22.31 18.61 15.15 12.48 10.77
800.526 9.15 8.2 8.78 9.12 9.49 11.03 12.81 14.96 17.89 21.18
819.816 23.72 26.49 31.24 38.59 45.15 48.38 49.87 48.71 45.09 38.89
839.106 31.61 24.43 18.35 14.93 12.87 11.27 10.08 9.22 8.83 9.35
858.395 10.43 11.48 13.45 15.18 16.28 18.09 19.31 19.28 19.16 18.87
877.685 17.55 15.44 13.46 11.61 10.43 9.58 8.05 7.14 6.77 6.7
896.975 6.6 6.14 5.92 5.53 5.38 5.26 5.24 5.2 5.23 5.44
916.265 5.42 5.86 6.61 8.45 9.8 11.08 13.83 16.5 19.31 22.4
935.555 25.09 26.66 27.23 26.34 23.83 20.35 16.35 13.3 10.96 8.88
954.844 7.85 6.87 5.87 5.13 4.75 4.82 4.63 4.56 4.32 4.49
974.134 4.81 4.52 4.66 5.38 5.83 6 6.68 7.38 7.35 7.78
993.424 9.17 10.52 11.01 10.77 10.99 10.79 10.11 8.94 7.64 6.98
1012.714 6.29 5.91 5.19 4.9 5.24 5.47 5.12 4.48 4.77 5.02
1032.003 4.72 4.54 4.25 5.22 6.2 5.73 5.89 7.68 8.84 9.6
1051.293 11.65 13.37 15.89 19.49 24.09 27.64 29.51 30.78 31.08 31.21
1070.583 29.95 26.65 23.87 22.61 22.18 21.53 21.26 19.88 18.05 18.51
1089.873 18.4 15.37 13.31 13.12 12.54 11.42 8.9 9.37 11.17 12.22
1109.163 12.65 13.06 13.3 13.42 14.53 13.88 13.1 14.46 15.15 15.81
1128.452 17.13 17.59 16.87 17.04 18.6 19.4 20.6 23.8 27.08 29.55
1147.742 33.02 37.12 42.72 48.25 55.28 64.69 73.64 83.45 95.01 107.06
1167.032 121.06 137.93 156.1 177.15 202.28 230.67 262.45 295.76 332.2 369.43
1186.322 401.29 430.37 454.48 466.49 469.16 463.31 449.57 435.94 430.44 430.56
1205.611 438.42 457.25 483.81 515.37 544.95 578.25 612.59 639.47 652.98 655.76
1224.901 641.04 606.42 563.61 511.97 454.29 403.4 365.94 341.94 330.06 329.64
1244.191 339.89 359.2 387.54 424.82 470.54 523.49 578 633.1 686.6 735.28
1263.481 773.52 797.02 803.65 798.25 782.28 750.51 709.51 660.61 602.07 538.84
1282.771 474.02 408.6 344.67 285.91 234.75 191.77 157.19 130.32 109.32 93.27
1302.060 80.55 70.08 61.57 54.46 48.73 44.06 40.01 36.42 33.52 30.97
1321.350 29.04 27.61 26.31 25.27 24.56 23.93 23.13 22.13 21.09 20.04
1340.640 18.69 17.12 15.74 14.54 13.09 11.81 10.85 10.11 9.43 8.88
1359.930 8.64 8.53 8.53 8.42 8.31 8.34 8.32 8.38 8.68 8.99
1379.219 9.21 9.54 9.95 10.03 10 10.25 10.68 10.98 11.18 11.43
1398.509 11.64 11.92 12.18 12.49 13.05 13.73 14.59 15.91 17.6 19.93
1417.799 22.55 25.32 28.5 31.56 34.15 36.09 36.98 36.56 35 32.54
1437.089 29.03 25.18 22.13 20.05 18.66 17.97 17.92 18.43 19.51 21.34
1456.378 24.18 27.98 33.39 41.31 52.86 68.66 88.16 109.12 125.97 134.16
1475.668 132.5 123.08 105.98 81.27 55.34 35.98 24.63 18.65 15.2 13.23
1494.958 11.95 10.99 10.17 9.68 9.47 9.31 9.35 9.24 9.25 9.41
1514.248 9.54 9.64 9.89 10.18 10.22 9.87 9.57 9.24 8.83 8.63
1533.538 8.82 9.17 9.7 10.37 10.92 11.69 12.53 13.26 14.18 15.24
1552.827 16.66 18.44 20.13 22.31 24.92 27.65 31.35 36.32 42.27 49.71
1572.117 59.16 71.01 85.78 102.44 120.21 138.2 152.85 161.17 160.26 149.39
1591.407 130.9 107.74 83.22 61.98 46.32 35.92 29.27 24.43 21.01 18.5
1610.697 16.28 14.36 13.21 12.19 11.09 10.18 9.48 9.19 8.84 8.24
1629.986 7.6 7.04 6.89 6.96 6.68 6.51 6.71 6.56 6.31 6.34
1649.276 6.18 6.11 5.92 5.45 5.01 4.61 4.54 4.44 4.31 4.43
1668.566 4.32 4.3 4.33 4.24 4.11 3.94 3.56 3.24 3.16 2.92
1687.856 2.72 2.53 2.43 2.51 2.8 2.83 2.83 3.08 3 2.91
1707.146 3.15 3.33 3.19 3.29 3.37 3.29 3.29 3.27 3.19 3.14
1726.435 3.26 3.35 3.4 3.33 3.57 3.79 3.75 3.7 3.7 3.87
1745.725 3.86 3.85 3.89 3.7 3.65 3.9 4.2 4.29 4.38 4.51
1765.015 4.72 4.89 4.8 4.77 4.78 4.82 4.57 4.25 4.22 4.14
1784.305 3.92 3.63 3.46 3.45 3.46 3.33 3.16 3.12 3.07 2.95
1803.594 2.86 2.85 2.93 2.72 2.56 2.45 2.2863 2.39 2.3307 2.3333
1822.884 2.3485 2.2643 2.41 2.7 2.89 2.91 2.97 3.03 3.1 3.12
1842.174 3.17 3.33 3.47 3.56 3.64 3.86 4.06 4.17 4.3 4.24
1861.464 4.21 4.17 3.94 3.66 3.37 2.88 2.64 2.79 2.69 2.51
1880.754 2.45 2.47 2.2625 2.1877 2.42 2.3145 2.1767 2.3549 2.2043 2.0132
1900.043 2.1864 2.3028 2.1396 2.0704 2.2096 2.43 2.82 3.04 3.18 3.37
1919.333 3.62 3.93 4.21 4.48 4.78 4.79 4.63 4.59 4.21 3.79
1938.623 3.47 3.23 2.87 2.44 2.309 2.0387 1.7479 1.6899 1.6868 1.5262
1957.913 1.43621 1.5989 1.8186 1.832 1.7616 1.7569 1.6574 1.4919 1.5887 1.7826
1977.202 1.7115 1.6211 1.8723 2.0239 1.7885 1.7709 1.935 2.093 2.2418 2.2108
1996.492 2.1584 2.2726 2.46 2.46 2.3162 2.36 2.5 2.79 3.02 3.05
2015.782 3.21 3.32 3.5 3.65 3.77 3.88 4.02 4.28 4.36 4.59
2035.072 4.97 5.05 4.99 4.91 5 5 4.95 5.03 4.9 4.46
2054.362 4.17 4.05 3.65 3.54 3.42 3.28 3.31 3.22 2.98 2.81
2073.651 2.81 2.76 2.93 3.22 3.28 3.23 3.3 3.53 3.66 3.57
2092.941 3.55 3.83 3.99 3.92 3.91 3.83 3.92 4.08 3.8 3.31
2112.231 3.21 3.31 3.27 2.9 2.64 2.73 2.83 2.84 2.67 2.66
2131.521 2.73 2.72 2.56 2.52 2.58 2.58 2.82 3.15 3.03 2.87
2150.810 3.03 3.18 3.41 3.36 3.13 3.2 3.12 2.91 2.77 2.55
2170.100 2.3582 2.2908 2.1006 1.9132 1.9469 2.0434 1.9879 1.7997 1.806 1.8625
2189.390 1.9981 2.1281 2.0523 1.9728 1.9029 1.9858 2.0607 2.0541 1.9871 2.0056
2208.680 1.9951 2.024 2.0403 1.8872 1.8869 1.8532 1.6723 1.6305 1.6333 1.42135
2227.970 1.38096 1.42831 1.37548 1.44792 1.45718 1.2682 1.236 1.2649 1.196 1.254
2247.259 1.43067 1.4644 1.4167 1.3084 1.201 1.219 1.3326 1.3363 1.38777 1.258
2266.549 1.218 1.3199 1.3194 1.36832 1.38289 1.3494 1.222 1.2929 1.37896 1.3266
2285.839 1.2923 1.175 1.152 1.43398 1.552 1.40158 1.2825 1.37537 1.3402 1.44941
2305.129 1.6636 1.42039 1.37835 1.4768 1.6873 2.0268 2.0697 1.8775 1.6829 2.0143
2324.418 2.2528 1.8786 1.8915 2.2405 2.1073 1.9745 1.9834 1.8428 1.8958 2.201
2343.708 2.2992 2.1686 2.0183 2.0338 2.1797 2.3162 2.46 2.47 2.54 2.6
2362.998 2.3295 2.2634 2.42 2.2867 2.1413 2.2023 2.1369 2.1997 2.43 2.56
2382.288 2.77 2.98 2.99 3.02 2.98 2.87 3.03 3.02 2.87 3.2
2401.578 3.83 3.98 4.16 4.29 4.38 4.58 4.61 4.7 4.84 5.15
2420.867 5.14 5.01 5.2 5.49 5.83 6.32 6.46 6.37 6.42 6.39
2440.157 6.4 6.15 5.87 5.78 5.79 5.76 5.45 5.12 5.05 5.02
2459.447 4.8 4.56 4.38 4.51 4.54 4.43 4.59 4.62 4.48 4.67
2478.737 4.99 5.02 4.89 4.46 4.41 4.48 4.41 4.43 4.23 4.08
2498.026 4.05 4.07 3.81 3.65 3.8 4.02 3.86 3.78 3.67 3.32
2517.316 3.46 3.59 3.73 3.81 3.54 3.29 3.17 3.4 3.19 2.56
2536.606 2.5 2.82 2.81 2.67 2.38 2.0978 2.1854 2.1255 1.7938 1.6976
2555.896 1.8507 1.9165 1.8005 1.4621 1.35762 1.551 1.526 1.3461 1.5042 1.8404
2575.186 1.9687 1.8474 1.6461 1.5715 1.40304 1.138 1.178 1.224 1.189 1.2956
2594.475 1.2885 1.142 1.021 0.911 0.944 0.968 0.875 0.847 0.962 1.007
2613.765 0.882 1.2738 1.23 0.872 0.875 0.856 1.116 1.098 1.003 1.083
2633.055 0.997 0.815 0.619 0.685 0.888 1.094 1.2885 1.221 1.032 0.945
2652.345 0.877 1.22 1.6223 1.2806 0.953 1.112 1.191 1.383 1.4611 1.3261
2671.634 1.42342 1.45207 1.6658 1.7378 1.5074 1.3358 1.38452 1.498 1.5399 1.3612
2690.924 1.235 1.5698 1.65 1.4778 1.182 0.861 1.004 1.2752 1.2662 0.945
2710.214 0.628 0.563 0.827 0.981 1.125 0.981 1.018 1.219 1.153 1.12
2729.504 1.021 0.939 0.913 0.96 0.797 1.225 1.5428 1.2638 1.171 1.204
2748.794 1.246 1.207 1.224 1.245 1.4724 1.4637 1.172 1.015 0.96 1.057
2768.083 0.974 0.618 0.518 0.603 0.998 1.049 0.708 1.063 1.2786 1.2922
2787.373 1.4266 1.3129 0.959 1.026 1.251 1.40037 1.5986 1.3482 1.105 1.103
2806.663 1.2831 1.3499 1.23 1.169 0.935 0.912 1.247 1.6328 1.6166 1.2956
2825.953 1.3123 1.2817 1.543 1.6475 1.2668 1.23 1.153 1.176 1.046 1.004
2845.242 1.2781 1.912 1.7549 0.867 0.823 0.96 1.236 1.36593 1.37968 1.36449
2864.532 0.849 0.763 1.251 1.4912 1.4745 1.3219 1.3203 1.19 0.681 0.909
2883.822 1.068 0.864 0.93 1.126 1.242 1.201 1.133 0.442 0.28 0.955
2903.112 1.224 1.112 1.3194 1.2824 0.862 0.785 0.966 0.665 0.32 0.7
2922.401 0.863 0.425 0.532 0.95 0.777 0.834 1.128 1.213 1.015 1.016
2941.691 1.3567 1.239 0.96 0.77 0.612 1.141 1.143 0.617 0.3 0.14
2960.981 0.73 1.251 0.966 0.631 0.493 0.585 0.609 0.616 0.549 0.34
2980.271 0.431 0.617 0.689 0.71 0.6 0.429 0.885 0.75 0.523 0.846
2999.561 0.709 1.081 0.931 0.642 1.14 1.219 1.025 1.239 1.246 1.043
3018.850 1.016 1.104 1.7384 2.0897 2.1868 2.1085 2.0739 2.0288 1.9287 1.9844
3038.140 2.3578 2.43 1.7967 1.875 2.1127 2.312 2.44 1.6499 1.6483 2.45
3057.430 2.67 2.88 3.01 3.56 4.31 4.97 6.18 7.3 8.01 8.5
3076.720 9.26 9.88 10.23 10.31 9.8 9.25 8.89 8.21 7.28 6
3096.009 4.81 3.97 2.83 2.38 2.41 1.8643 1.3337 1.3176 1.40538 0.878
3115.299 0.844 1.3107 1.08 1.018 1.2856 1.35056 1.4952 1.199 0.904 0.887
3134.589 0.68 0.86 1.006 0.979 0.739 0.848 1.3499 0.864 0.642 0.967
3153.879 1.092 1.042 1.019 1.224 0.638 0.689 1.008 0.504 0.513 0.839
3173.169 1.248 1.41282 1.3108 1.6356 1.3015 1.024 1.3204 1.177 1.243 1.259
3192.458 1.35977 1.39839 1.009 0.982 1.093 1.063 1.021 0.561 0.638 1.142
3211.748 1.19 0.595 0.36 0.577 0.33 0.568 0.884 0.33 0.23 0.698
3231.038 0.615 0.685 0.46 0.34 0.789 0.84 0.701 0.595 0.699 0.832
3250.328 0.731 1.041 1.242 1.065 0.746 0.548 0.907 0.995 0.762 0.942
3269.617 0.93 1.022 1.025 0.61 0.705 0.732 0.408 0.29 0.439 0.493
3288.907 0.573 0.891 1.162 0.913 0.563 0.551 0.606 0.574 0.3 0.513
3308.197 0.765 0.588 0.75 0.864 0.535 0.493 0.632 0.753 0.878 0.868
3327.487 0.961 0.828 0.18 0 0.529 0.928 0.914 0.473 0.21 0.29
3346.777 0.739 1.085 0.794 0.557 1.008 1.244 1.141 0.979 0.888 0.996
3366.066 0.986 1.086 0.692 0.29 0.728 1.061 1.01 0.555 0.23 0.382
3385.356 0.968 1.13 0.722 0.67 0.991 0.654 0.25 0.571 0.753 1.094
3404.646 0.886 0.68 0.842 0.61 0.691 0.839 0.782 1.021 0.863 0.373
3423.936 0.451 0.889 0.778 0.371 0.655 0.669 0.5 0.792 1.057 0.719
3443.225 0.501 0.435 0.397 0.632 0.29 0.471 0.782 0.793 0.705 0.816
3462.515 0.947 1.245 1.37979 1.3457 1.36919 1.11 1.3116 1.084 0.881 1.238
3481.805 1.155 0.964 1.081 0.848 0.513 0.711 0.788 1.029 1.583 1.042
3501.095 0.535 0.476 0.704 0.712 0.664 0.976 0.892 1.43661 1.5105 0.855
3520.385 0.886 1.005 1.192 0.802 0.28 0.28 0.33 0.514 0.48 0.372
3539.674 0.31 0.22 0.33 0.841 1.2909 1.3203 1.222 1.023 0.964 1.167
3558.964 0.815 0.34 0.397 0.949 1.182 0.582 0.33 0.88 0.957 0.772
3578.254 1.062 0.89 0.627 0.984 1.177 1.127 0.914 0.624 0.488 0.677
3597.544 0.835 0.695 0.893 1.3311 1.2937 1.147 1.028 0.634 0.791 1.4814
3616.833 1.199 0.786 0.813 0.638 0.522 0.62 0.45 0.489 1.071 0.741
3636.123 0.495 1.081 1.2904 0.643 0.47 0.794 0.857 1.39527 1.534 1.06
3655.413 0.815 0.765 0.96 1.124 1.2836 1.7785 1.4831 1.237 0.963 0.781
3674.703 1.091 1.041 1.084 0.844 1.007 1.178 0.823 0.799 1.221 1.218
3693.993 0.937 0.987 1.13 0.66 0.634 1.187 0.959 0.662 1.205 1.41671
3713.282 1.174 0.934 0.655 0.711 0.773 0.606 0.75 0.862 1.227 1.39063
3732.572 0.703 0.982 1.38075 0.886 0.68 1.147 1.322 0.937 0.876 1.5023
3751.862 1.6654 1.313 1.113 1.066 0.664 0.3 0.59 1.4795 1.6884 0.963
3771.152 0.765 1.151 1.001 0.862 1.3375 0.915 0.622 0.753 0.671 1.011
3790.441 1.101 1.19 1.3 0.779 0.884 0.98 0.463 0.36 0.513 0.669
3809.731 0.613 0.569 0.842 1.199 1.08 0.813 0.752 0.434 0.449 0.808
3829.021 1.195 1.114 0.516 0.757 1.132 0.966 0.634 0.766 0.869 0.858
3848.311 0.814 0.646 0.452 0.644 1.126 1.023 0.853 0.606 1.119 1.05
3867.601 0.953 1.524 1.11 0.488 0.35 0.893 1.102 0.877 1.001 1.112
3886.890 1.25 1.158 0.685 0.448 0.15 0.11 0.798 1.3005 1.221 1.03
3906.180 0.895 0.601 0.488 0.35 0.387 0.986 1.40542 1.16 0.898 0.968
3925.470 0.912 1.081 1.184 1.147 1.153 1.052 1.052 0.543 0.436 0.651
3944.760 0.562 0.468 0.458 0.664 0.21 0.32 0.832 1.148 1.4743 1.181
3964.049 0.804 0.559 0.572 0.665 0.689 1.097 1.105 0.766 1.104 0.924
3983.339 0.504 0.858 0.935 0.762 0.728 0.698 0.878 0.82 0.843 1.42537
##END=
