##TITLE=2-(4-Ethoxyphenyl)ethanol
##JCAMP-DX=4.24
##DATA TYPE=INFRARED SPECTRUM
##ORIGIN=EPA-IR VAPOR PHASE LIBRARY
##OWNER=SRD/NIST
Collection (C) 2018 copyright by the U.S. Secretary of Commerce
on behalf of the United States of America. All rights reserved.
##CAS REGISTRY NO=22545-15-9
##MOLFORM=C 10 H 14 O 2
##$NIST SOURCE=MSDC-IR
##STATE=gas
##XUNITS=1/CM
##YUNITS=ABSORBANCE
##XFACTOR=1.
##YFACTOR=0.001
##DELTAX=1.92934
##FIRSTX=549.9
##LASTX=3999.5
##FIRSTY=15.27
##MAXX=3999.53
##MINX=549.863
##MAXY=0.32409
##MINY=0
##NPOINTS=1789
##XYDATA=(X++(Y..Y))
549.863 15.27 15.37 15.72 16.1 16.42 16.85 17.18 17.51 17.76 17.9
569.156 17.77 17.62 17.48 17.29 16.98 16.4 15.76 14.87 13.97 13.17
588.450 12.22 11.14 10.08 9.13 8.31 7.65 7.06 6.55 6.14 5.82
607.743 5.54 5.29 5.07 4.87 4.71 4.5 4.41 4.28 4.01 3.95
627.037 4.07 4.11 4.08 4.02 3.98 3.98 3.99 3.92 3.85 3.8
646.330 3.65 3.55 3.46 3.3676 3.3933 3.47 3.54 3.58 3.48 3.41
665.624 3.49 3.6 3.67 3.7 3.74 3.92 4.07 4.14 4.38 4.72
684.917 5.09 5.49 5.83 6.22 6.66 6.97 7.11 7.18 7.29 7.46
704.210 7.42 7.33 7.51 7.59 7.57 7.56 7.47 7.38 7.36 7.29
723.504 7.08 6.92 6.85 6.75 6.59 6.3 6 5.74 5.45 5.28
742.797 5.21 5.2 5.21 5.18 5.17 5.23 5.32 5.43 5.52 5.68
762.091 5.91 6.25 6.6 6.77 6.97 7.27 7.67 8.12 8.72 9.39
781.384 10.05 10.93 12.1 13.5 15.02 16.73 18.58 20.53 22.71 25.04
800.678 27.38 29.76 32.09 34.37 36.69 39.07 41.3 43.26 45.12 46.63
819.971 47.63 48.09 47.79 46.84 45.34 43.32 40.98 38.49 35.95 33.36
839.264 30.77 28.33 26.01 23.81 21.78 19.81 18.01 16.62 15.46 14.41
858.558 13.55 12.85 12.24 11.64 11.16 10.76 10.44 10.23 10.05 9.95
877.851 9.96 10.09 10.31 10.61 11.11 11.77 12.63 13.73 15.01 16.35
897.145 17.7 18.98 19.98 20.83 21.45 21.87 22.24 22.54 22.89 23.33
916.438 23.69 23.85 23.91 23.72 23.13 22.32 21.33 20.1 18.85 17.66
935.732 16.55 15.64 14.87 14.23 13.58 12.92 12.42 11.97 11.54 11.24
955.025 10.97 10.72 10.59 10.51 10.52 10.64 10.8 10.99 11.19 11.53
974.318 11.95 12.48 13.09 13.76 14.58 15.54 16.76 18.13 19.71 21.5
993.612 23.48 25.75 28.2 30.75 33.36 36.15 39.32 42.85 46.25 49.26
1012.905 52.33 55.99 60.32 65.02 70.21 76.75 85.06 95.19 107.06 120.53
1032.199 135.23 150.32 164.5 176.54 185.67 191.06 191.99 188.41 181.13 171.51
1051.492 160.61 149 137.01 125.15 113.77 102.87 92.7 83.26 74.67 67.15
1070.786 60.73 55.37 51.03 47.68 45.29 43.7 42.86 42.82 43.38 44.16
1090.079 44.96 45.66 46 46.13 46.06 45.67 45.24 44.94 44.78 44.87
1109.372 44.98 45.01 44.73 43.81 42.29 40.38 38.17 35.77 33.28 30.87
1128.666 28.71 26.94 25.67 24.57 23.64 22.96 22.33 21.98 22.01 22.05
1147.959 22.28 22.81 23.65 24.93 26.77 29.14 32.36 36.95 43.16 51.51
1167.253 61.65 71.73 79.44 83.45 84.08 81.83 76.28 67.42 56.62 46.7
1186.546 39.88 35.73 33.23 32.37 32.88 34.21 36.1 38.89 42.46 46.36
1205.840 51.45 58.2 65.57 74.01 84.48 96.44 109.75 125.37 143.77 164.36
1225.133 187.08 211.2 235.93 259.9 281.43 299.41 312.8 321.37 324.09 320.17
1244.426 310.11 294.08 273.12 248.4 220.73 191.85 163.98 139.45 119.31 103.52
1263.720 91.61 82.74 76.06 71.15 67.46 64.68 62.93 61.93 61.37 61.34
1283.013 61.6 61.92 62.46 63.14 63.81 64.3 64.57 64.58 64.16 63.09
1302.307 61.26 58.59 55.34 51.69 47.88 44.05 40.33 37.06 34.32 32.09
1321.600 30.25 28.71 27.51 26.56 25.78 25.23 24.91 24.55 24.2 23.92
1340.894 23.55 23.2 22.86 22.48 22.08 21.74 21.55 21.49 21.62 22.01
1360.187 22.65 23.52 24.64 25.92 27.31 28.92 30.73 32.75 35.07 37.64
1379.480 40.49 43.49 46.52 49.4 51.99 54.13 55.49 55.75 54.66 52.37
1398.774 49.13 45.03 40.4 35.52 30.94 27.21 24.36 22.2 20.65 19.56
1418.067 18.82 18.3 18.01 17.89 17.86 18.02 18.31 18.65 19.03 19.46
1437.361 20.02 20.49 20.8 21.06 21.19 21.15 20.96 20.67 20.33 20.03
1456.654 19.78 19.76 19.9 20.23 20.92 22.05 23.75 26.13 29.58 34.31
1475.948 39.8 45.18 48.98 51.06 52.24 53.13 53.3 53.13 54.71 59.87
1495.241 69.8 85.39 106.53 133.71 165.35 197.58 226.78 245.24 249.5 241.21
1514.534 222.25 192.55 154.99 117.09 83.82 61.51 46.83 37.37 31.04 26.65
1533.828 23.4 20.85 18.94 17.37 16.06 15.04 14.14 13.46 13.08 12.73
1553.121 12.48 12.42 12.44 12.51 12.8 13.2 13.67 14.33 15.16 16.14
1572.415 17.32 18.52 19.76 21.06 22.14 23.04 23.83 24.44 25.02 25.82
1591.708 27 28.78 31.23 34.41 38.19 42.42 46.91 51.33 55.2 58.03
1611.002 59.25 58.67 56.3 52.09 46.77 40.97 34.85 29.1 24.19 20.31
1630.295 17.48 15.31 13.57 12.22 11.23 10.45 9.73 9.09 8.52 7.96
1649.588 7.47 7.02 6.6 6.33 6.06 5.75 5.46 5.22 5.07 4.84
1668.882 4.6 4.47 4.32 4.18 4.08 3.99 3.89 3.78 3.64 3.6
1688.175 3.57 3.4444 3.3626 3.3115 3.2149 3.138 3.0598 3.0483 3.0198 2.9948
1707.469 3.0203 3.0742 3.1314 3.1046 3.1249 3.1114 3.1091 3.1678 3.2081 3.2483
1726.762 3.2707 3.331 3.3851 3.4277 3.51 3.56 3.66 3.83 3.94 4.08
1746.056 4.28 4.38 4.49 4.55 4.49 4.46 4.38 4.24 4.12 3.99
1765.349 3.82 3.61 3.46 3.274 3.0369 2.9276 2.8502 2.714 2.6407 2.554
1784.642 2.48595 2.46362 2.4579 2.4223 2.36 2.322 2.324 2.3823 2.4196 2.4216
1803.936 2.3939 2.4133 2.4737 2.46658 2.46617 2.50832 2.54221 2.5797 2.5631 2.54166
1823.229 2.6306 2.7356 2.7769 2.808 2.8897 3.0059 3.0799 3.1751 3.313 3.4305
1842.523 3.53 3.64 3.76 3.89 4.04 4.18 4.36 4.54 4.73 4.95
1861.816 5.17 5.41 5.67 5.9 6.02 6.15 6.26 6.3 6.29 6.21
1881.110 6.1 5.92 5.69 5.51 5.32 5.13 4.95 4.79 4.67 4.57
1900.403 4.48 4.36 4.27 4.21 4.13 4.09 4.06 4.05 4.02 4.04
1919.696 4.12 4.11 4.12 4.17 4.16 4.21 4.3 4.35 4.35 4.32
1938.990 4.35 4.41 4.39 4.34 4.36 4.39 4.38 4.35 4.32 4.3
1958.283 4.29 4.25 4.24 4.22 4.2 4.19 4.2 4.18 4.11 4.09
1977.577 4.09 4.03 3.98 3.89 3.83 3.81 3.77 3.71 3.67 3.67
1996.870 3.67 3.61 3.53 3.51 3.53 3.56 3.55 3.53 3.55 3.55
2016.164 3.55 3.54 3.57 3.62 3.62 3.65 3.69 3.74 3.84 3.9
2035.457 3.94 3.99 4.07 4.1 4.17 4.27 4.37 4.44 4.51 4.56
2054.750 4.57 4.59 4.62 4.6 4.51 4.42 4.36 4.32 4.23 4.06
2074.044 3.96 3.89 3.78 3.7 3.61 3.51 3.4389 3.346 3.2444 3.1468
2093.337 3.0792 3.0318 2.9266 2.8354 2.7683 2.666 2.5627 2.5052 2.48769 2.46814
2112.631 2.3968 2.345 2.26 2.152 2.152 2.169 2.159 2.135 2.09 2.061
2131.924 2.054 2.045 2.011 1.952 1.961 1.996 1.945 1.891 1.878 1.856
2151.218 1.845 1.827 1.811 1.817 1.789 1.743 1.76 1.826 1.789 1.712
2170.511 1.714 1.693 1.644 1.64 1.643 1.649 1.629 1.604 1.607 1.606
2189.804 1.641 1.615 1.567 1.593 1.591 1.629 1.683 1.679 1.656 1.641
2209.098 1.637 1.687 1.725 1.673 1.648 1.672 1.7 1.687 1.672 1.687
2228.391 1.654 1.607 1.601 1.598 1.633 1.657 1.669 1.692 1.677 1.682
2247.685 1.664 1.684 1.767 1.789 1.806 1.846 1.838 1.843 1.912 1.973
2266.978 1.98 2.027 2.103 2.127 2.141 2.174 2.233 2.304 2.308 2.267
2286.272 2.289 2.316 2.314 2.303 2.321 2.356 2.347 2.342 2.3675 2.3964
2305.565 2.3952 2.377 2.369 2.3673 2.4075 2.4086 2.355 2.352 2.3738 2.346
2324.858 2.29 2.237 2.214 2.238 2.225 2.236 2.193 2.173 2.226 2.21
2344.152 2.2 2.141 2.098 2.148 2.122 2.113 2.091 1.993 1.949 1.918
2363.445 1.93 1.907 1.836 1.833 1.899 1.933 1.881 1.875 1.948 2.017
2382.739 2.068 2.108 2.117 2.156 2.23 2.281 2.33 2.4087 2.5052 2.5871
2402.032 2.6725 2.7482 2.8056 2.8791 2.9824 3.0456 3.0573 3.0899 3.1282 3.1198
2421.326 3.1129 3.1587 3.1621 3.085 3.0684 3.0815 3.0656 3.0309 3.0005 2.9661
2440.619 2.9432 3.0196 3.0916 3.1347 3.17 3.1996 3.2526 3.3003 3.3671 3.4296
2459.912 3.46 3.5 3.53 3.52 3.4557 3.4211 3.46 3.4426 3.4266 3.4522
2479.206 3.3916 3.356 3.3168 3.2493 3.1998 3.1751 3.131 3.0652 3.0128 2.9452
2498.499 2.8925 2.8176 2.7476 2.7213 2.7106 2.7372 2.7399 2.7406 2.8024 2.8504
2517.793 2.9126 2.9638 2.9761 2.9971 3.069 3.1194 3.162 3.2049 3.1681 3.152
2537.086 3.1577 3.1322 3.0754 3.0307 2.9556 2.8441 2.7634 2.6266 2.52775 2.47104
2556.380 2.3722 2.322 2.232 2.131 2.062 2.075 2.118 2.103 2.056 2.032
2575.673 2.034 2.024 2.055 2.082 2.05 2.001 2.016 2.047 2.044 2.069
2594.966 2.072 2.074 2.1 2.109 2.123 2.027 1.968 2.036 2.035 2.024
2614.260 2.025 2.02 2.057 2.037 1.983 1.924 2.03 2.107 2.036 2.113
2633.553 2.174 2.189 2.204 2.169 2.122 2.15 2.204 2.215 2.183 2.26
2652.847 2.291 2.207 2.247 2.33 2.338 2.326 2.331 2.335 2.356 2.343
2672.140 2.3833 2.427 2.4397 2.46665 2.47402 2.4244 2.4202 2.49874 2.55886 2.5908
2691.434 2.6343 2.7069 2.7729 2.7988 2.8297 2.8697 2.927 3.065 3.1947 3.3292
2710.727 3.48 3.61 3.75 3.88 4.06 4.32 4.47 4.63 4.84 5.02
2730.020 5.14 5.25 5.35 5.45 5.67 5.77 5.74 5.8 5.85 5.88
2749.314 5.91 5.91 5.92 5.85 5.89 6.02 6.04 6.04 6.02 6.03
2768.607 6.07 6.06 6.12 6.2 6.28 6.35 6.32 6.32 6.43 6.54
2787.901 6.63 6.67 6.76 6.87 6.89 6.97 7.11 7.3 7.44 7.61
2807.194 7.91 8.17 8.47 8.81 9.07 9.36 9.73 10.15 10.54 10.96
2826.488 11.4 11.92 12.66 13.47 14.22 15.12 16.13 17.11 18.3 19.55
2845.781 20.87 22.4 23.96 25.66 27.42 29.27 31.41 33.75 36.36 39.24
2865.074 42.46 46.04 49.79 53.64 57.68 61.66 65.39 68.62 71.11 72.83
2884.368 73.62 73.42 72.49 71.17 69.77 68.58 67.68 67.25 67.38 68.08
2903.661 69.24 70.79 72.8 75.43 78.34 81.25 84.16 86.94 89.42 91.39
2922.955 92.92 94.16 95.2 96.21 97.35 98.87 100.95 103.21 104.98 105.94
2942.248 105.98 104.95 102.76 99.32 95.05 90.81 86.89 83.4 80.54 78.44
2961.542 76.89 75.58 74.31 72.95 71.66 70.71 70.3 70.36 70.97 72.06
2980.835 73.38 74.57 75.36 75.42 74.38 72.3 69.15 65.14 60.61 55.84
3000.128 51.19 46.85 43.1 39.85 36.91 34.57 32.75 31.34 30.41 29.99
3019.422 30.05 30.69 31.93 33.59 35.79 38.23 40.32 41.61 41.76 40.82
3038.715 38.71 35.54 31.82 27.85 24.23 21.44 19.33 17.99 17.09 16.28
3058.009 15.98 16.04 16.17 16.52 16.97 17.21 17.2 17.07 16.8 16.38
3077.302 15.74 14.99 14.43 13.95 13.36 12.85 12.56 12.38 12.13 11.81
3096.596 11.52 11.15 10.7 10.29 9.73 9.1 8.5 7.89 7.23 6.69
3115.889 6.24 5.74 5.42 5.1 4.73 4.47 4.22 3.97 3.76 3.53
3135.182 3.1886 2.9806 2.6876 2.168 2.059 2.053 1.887 1.643 1.474 1.494
3154.476 1.33 1.15 1.14 1.28 1.21 1.08 1.03 1.01 0.97 0.84
3173.769 0.84 0.66 0.52 0.62 0.64 0.72 0.69 0.52 0.47 0.57
3193.063 0.56 0.48 0.43 0.41 0.54 0.56 0.49 0.49 0.51 0.53
3212.356 0.47 0.48 0.45 0.36 0.42 0.46 0.32 0.26 0.21 0.14
3231.650 0.21 0.32 0.29 0.26 0.27 0.24 0.15 0.11 0.21 0.23
3250.943 0.14 0.13 0.08 0.15 0.23 0.31 0.36 0.24 0.3 0.34
3270.236 0.26 0 0.08 0.24 0.17 0.21 0.08 0.01 0.17 0.24
3289.530 0.2 0.1 0.13 0.31 0.35 0.19 0.17 0.26 0.31 0.43
3308.823 0.49 0.44 0.36 0.39 0.44 0.43 0.42 0.55 0.65 0.69
3328.117 0.6 0.55 0.71 0.72 0.57 0.52 0.51 0.54 0.59 0.46
3347.410 0.43 0.59 0.64 0.59 0.57 0.59 0.64 0.5 0.53 0.45
3366.704 0.36 0.64 0.6 0.45 0.6 0.77 0.76 0.79 0.77 0.67
3385.997 0.69 0.81 0.92 0.79 0.63 0.68 0.68 0.73 0.84 0.94
3405.290 1.04 0.97 0.86 0.9 0.86 0.86 0.89 1.05 1.15 0.98
3424.584 0.92 1.08 1.14 1.02 1.11 1.13 1.13 1.2 1.18 1.06
3443.877 1.1 1.26 1.35 1.31 1.11 1.07 1.2 1.31 1.39 1.32
3463.171 1.31 1.29 1.13 1.17 1.22 1.33 1.37 1.32 1.36 1.32
3482.464 1.27 1.34 1.37 1.27 1.31 1.43 1.38 1.11 1.09 1.33
3501.758 1.4 1.29 1.19 1.4 1.616 1.476 1.35 1.39 1.44 1.34
3521.051 1.26 1.26 1.33 1.43 1.484 1.523 1.532 1.475 1.38 1.512
3540.344 1.595 1.463 1.44 1.563 1.582 1.71 1.786 1.743 1.793 1.818
3559.638 1.885 1.98 1.99 1.972 1.938 1.991 2.166 2.238 2.147 2.083
3578.931 2.226 2.288 2.235 2.291 2.4256 2.4186 2.316 2.4143 2.6131 2.7799
3598.225 2.7713 2.8164 3.051 3.1991 3.3426 3.49 3.81 4.34 4.81 5.45
3617.518 6.59 8.03 9.47 10.82 12.1 12.91 13.25 13.24 12.9 12.28
3636.812 11.43 10.57 9.85 9.55 9.46 9.51 9.88 10.59 11.53 12.76
3656.105 14.12 15.17 16.07 16.92 17.34 17.26 16.94 16.4 15.67 14.63
3675.398 13.28 11.95 10.58 9.16 8.05 7.16 6.29 5.61 5.21 4.83
3694.692 4.53 4.3 4.09 3.84 3.64 3.55 3.4077 3.2113 3.0523 2.8991
3713.985 2.8944 2.8473 2.6996 2.5613 2.45492 2.3953 2.311 2.321 2.309 2.194
3733.279 2.153 2.116 2.081 2.145 2.138 2.187 2.21 2.102 2.037 1.951
3752.572 1.936 2.018 2.022 1.957 1.922 2.003 2.008 1.913 1.88 1.939
3771.866 1.999 1.867 1.744 1.8 1.938 1.946 1.841 1.741 1.796 1.941
3791.159 1.982 1.961 1.895 1.88 1.871 1.741 1.668 1.836 1.957 1.91
3810.452 1.867 1.88 1.893 1.932 1.911 1.838 1.851 1.917 1.907 1.81
3829.746 1.836 1.927 1.879 1.932 1.934 1.748 1.882 2.061 1.955 1.913
3849.039 2.026 2.064 2.015 1.96 1.941 1.979 1.994 2.051 2.021 2.001
3868.333 2.09 2.116 2.065 2.059 2.087 1.96 1.866 1.923 2.023 2.063
3887.626 2.086 2.097 2.085 2.013 1.996 2.068 1.968 1.819 1.886 1.915
3906.920 1.828 1.781 1.767 1.806 1.915 1.955 1.958 1.948 1.87 1.917
3926.213 2.028 2.068 2.021 1.901 1.797 1.806 1.811 1.803 1.837 1.71
3945.506 1.588 1.714 1.745 1.655 1.605 1.535 1.583 1.646 1.678 1.661
3964.800 1.582 1.604 1.69 1.671 1.632 1.603 1.577 1.61 1.59 1.611
3984.093 1.627 1.575 1.45 1.43 1.578 1.595 1.62 1.672 1.579
##END=
