##TITLE=4-t-Butylbenzophenone
##JCAMP-DX=4.24
##DATA TYPE=INFRARED SPECTRUM
##ORIGIN=EPA-IR VAPOR PHASE LIBRARY
##OWNER=SRD/NIST
Collection (C) 2018 copyright by the U.S. Secretary of Commerce
on behalf of the United States of America. All rights reserved.
##CAS REGISTRY NO=22679-54-5
##MOLFORM=C 17 H 18 O
##$NIST SOURCE=MSDC-IR
##STATE=gas
##XUNITS=1/CM
##YUNITS=ABSORBANCE
##XFACTOR=1.
##YFACTOR=0.001
##DELTAX=1.92934
##FIRSTX=549.9
##LASTX=3999.5
##FIRSTY=8.7
##MAXX=3999.53
##MINX=549.863
##MAXY=0.37244
##MINY=0
##NPOINTS=1789
##XYDATA=(X++(Y..Y))
549.863 8.7 9.27 10.11 11.2 11.86 11.9 11.67 11.04 10.05 9.06
569.156 7.98 7.1 6.89 6.89 7.14 7.85 8.95 10.4 12.41 14.96
588.450 17.39 19.05 19.55 18.99 17.37 15.1 12.89 11.07 9.88 9.15
607.743 8.61 8.27 8.13 8.12 8.07 7.95 7.77 7.51 7.16 6.89
627.037 6.77 6.85 7.11 7.58 8.22 8.92 9.5 10.06 10.72 11.45
646.330 12.36 13.61 15.33 17.77 21.45 27.08 35.6 47.83 63.49 79.58
665.624 90.99 95.07 91.17 79.63 64.46 51.58 43.45 39.38 38.5 40.59
684.917 45.74 54.17 65.78 80.17 96.61 113.36 127.73 136.79 137.49 129.13
704.210 114.79 98.19 81.78 67.03 54.6 44.6 36.83 31.04 26.86 23.94
723.504 21.86 20.55 19.98 19.95 20.43 21.26 22.14 22.93 23.53 24.1
742.797 24.81 25.63 26.97 28.77 29.85 29.6 28.06 25.18 21.46 18.02
762.091 15.45 13.58 12.19 11.15 10.48 10.17 10.16 10.5 11.19 12.12
781.384 13.17 14.31 15.45 16.34 16.77 16.68 16.26 15.43 14.13 12.76
800.678 11.61 10.71 10.1 9.7 9.5 9.47 9.56 9.79 10.08 10.39
819.971 10.81 11.55 12.83 14.7 17.17 20.2 23.54 27.01 30.65 34.31
839.264 37.89 41.09 43.42 44.49 43.74 40.76 36 30.56 25.34 20.67
858.558 16.74 13.72 11.56 10.11 9.19 8.61 8.29 8.17 8.19 8.22
877.851 8.28 8.54 9 9.65 10.49 11.42 12.34 13.31 14.34 15.4
897.145 16.58 18.14 20.19 22.94 26.65 31.53 37.83 45.85 55.51 65.97
916.438 75.78 83.32 87.79 89.64 90.37 92.34 98.21 109.17 123.56 136.3
935.732 141.43 136.23 121.08 98.21 73.29 52.78 38.95 30.46 25.23 21.87
955.025 19.55 17.84 16.55 15.7 15.36 15.35 15.22 14.59 13.37 11.68
974.318 9.74 8.03 6.86 6.26 6.01 5.92 5.89 5.86 5.93 6.31
993.612 7.23 9.05 11.23 12.4 12.55 12.15 10.69 9.01 8.84 10.57
1012.905 13.84 17.54 20.23 21.7 22.24 21.6 20.03 18.27 16.5 14.57
1032.199 12.2 9.69 7.83 6.83 6.35 6.1 6.03 6.13 6.29 6.47
1051.492 6.77 7.17 7.61 8.09 8.66 9.2 9.67 10.14 10.63 11.06
1070.786 11.36 11.51 11.55 11.57 11.69 11.84 12.2 12.99 14.26 16.11
1090.079 18.79 22.45 27.47 34.04 41.56 48.58 53.2 54.15 51.11 44.7
1109.372 36.72 29.56 24.5 21.36 19.52 18.54 17.81 17.09 16.39 15.54
1128.666 14.53 13.65 13.03 12.71 12.53 12.58 13.01 13.78 14.71 15.46
1147.959 16.09 16.57 16.93 17.04 16.87 16.61 16.26 16.15 16.44 17.18
1167.253 18.68 21.53 26.19 32.89 41.76 50.42 54.81 54.2 49.91 42.29
1186.546 34.32 30.45 31.58 35.89 40.31 42.45 42.07 38.79 33.22 27.32
1205.840 22.78 20.02 18.34 17.57 17.97 19.36 21.08 23.45 27.02 31.25
1225.133 35.88 40.94 45.83 50.19 53.87 56.31 57.26 57.26 56.72 56.08
1244.426 56.32 58.07 61.91 68.37 77.79 90.97 109.1 133.39 165.02 204.45
1263.720 249.99 297.03 338.3 365.48 372.44 358.36 327.8 289 251.3 221.25
1283.013 200.43 186.53 175.75 165.19 153.09 139.19 124.58 110.7 99.24 91.07
1302.307 86.15 84.48 86.26 91.56 99.26 105.86 107.54 103.43 93.7 79.14
1321.600 63.69 51.25 42.46 36.19 31.42 27.71 24.73 22.32 20.45 19.15
1340.894 18.43 18.14 18.2 18.61 19.35 20.39 21.79 23.55 25.6 27.85
1360.187 30.28 32.79 35.07 36.92 38.08 38.44 38.02 36.79 34.96 32.82
1379.480 30.66 28.74 27.23 26.31 26.07 26.64 28.19 30.64 33.84 37.24
1398.774 40.27 42.5 43.17 41.8 38.77 34.63 29.71 24.73 20.53 17.49
1418.067 15.52 14.22 13.46 13.14 13.13 13.39 13.9 14.69 15.86 17.49
1437.361 19.76 22.74 26.49 30.66 34.34 36.45 36.77 35.57 33.12 30.41
1456.654 28.45 27.51 27.24 27.31 27.59 28.11 28.81 29.73 30.97 32.46
1475.948 33.94 35.06 35.33 34.56 32.83 30.42 27.76 25.21 22.88 20.93
1495.241 19.22 17.6 16.13 14.82 13.75 12.81 11.92 11.19 10.58 10.06
1514.534 9.65 9.36 9.18 9.01 8.88 8.85 8.88 8.98 9.1 9.29
1533.828 9.56 9.84 10.24 10.81 11.35 11.91 12.6 13.38 14.23 15.12
1553.121 16 16.92 17.8 18.6 19.29 19.79 20.27 20.6 20.87 21.26
1572.415 21.7 22.36 23.28 24.26 25.34 26.61 28.21 30.39 33.36 37.5
1591.708 43.01 50.14 58.96 69.23 80.25 90.86 99.34 103.76 103 96.81
1611.002 86.38 73.64 60.85 49.38 40.35 33.91 29.41 26.34 24.3 22.98
1630.295 22.15 21.7 21.5 21.37 21.16 20.93 20.85 20.94 21.25 21.77
1649.588 22.74 24.5 27.14 30.46 34.96 41.33 50.16 62.5 79.16 101.08
1668.882 129.21 162.81 198.5 232.2 258.48 272.49 273.23 260.91 235.09 201.44
1688.175 167.07 134.62 106.86 84.55 66.52 52.84 43.03 35.41 30.14 26.29
1707.469 23.57 21.62 20.31 19.47 19.11 18.94 18.86 18.73 18.42 17.81
1726.762 16.82 15.54 14.09 12.7 11.43 10.36 9.58 8.91 8.37 7.95
1746.056 7.65 7.43 7.26 7.11 7.01 6.96 6.91 6.9 6.9 6.79
1765.349 6.7 6.64 6.62 6.69 6.73 6.72 6.68 6.66 6.67 6.72
1784.642 6.86 7.13 7.55 8.01 8.49 8.97 9.37 9.68 9.81 9.76
1803.936 9.56 9.22 8.78 8.3 7.8 7.28 6.74 6.27 5.9 5.54
1823.229 5.22 4.96 4.76 4.57 4.35 4.18 4.03 3.9 3.7681 3.6562
1842.523 3.5891 3.5226 3.4435 3.424 3.4216 3.4282 3.4226 3.4133 3.4076 3.3629
1861.816 3.3106 3.2988 3.3287 3.348 3.4071 3.4586 3.5328 3.6414 3.7569 3.92
1881.110 4.13 4.34 4.56 4.78 4.99 5.22 5.44 5.68 5.88 6.06
1900.403 6.29 6.48 6.63 6.7 6.7 6.73 6.79 6.87 6.92 6.95
1919.696 6.96 6.88 6.7 6.44 6.15 5.83 5.56 5.36 5.21 5.11
1938.990 5.11 5.2 5.32 5.48 5.65 5.83 5.97 6.02 6 5.89
1958.283 5.72 5.58 5.5 5.39 5.18 4.87 4.45 3.94 3.4077 2.9592
1977.577 2.649 2.435 2.276 2.177 2.091 2.042 2.007 1.984 1.966 1.923
1996.870 1.924 2.002 2.072 2.114 2.186 2.204 2.225 2.237 2.211 2.183
2016.164 2.115 2.04 1.98 1.935 1.948 1.968 1.961 1.987 2.013 1.966
2035.457 1.947 1.956 1.891 1.814 1.74 1.71 1.69 1.66 1.68 1.69
2054.750 1.68 1.66 1.67 1.69 1.64 1.66 1.71 1.72 1.71 1.69
2074.044 1.71 1.74 1.78 1.77 1.75 1.74 1.7 1.69 1.67 1.61
2093.337 1.57 1.55 1.49 1.46 1.45 1.44 1.41 1.4 1.39 1.36
2112.631 1.31 1.28 1.27 1.26 1.27 1.27 1.31 1.33 1.3 1.26
2131.924 1.26 1.29 1.31 1.3 1.29 1.32 1.38 1.38 1.35 1.36
2151.218 1.37 1.36 1.37 1.4 1.43 1.41 1.4 1.44 1.46 1.46
2170.511 1.47 1.48 1.49 1.56 1.59 1.57 1.57 1.59 1.56 1.58
2189.804 1.64 1.64 1.66 1.69 1.73 1.78 1.793 1.797 1.79 1.79
2209.098 1.78 1.75 1.74 1.72 1.69 1.67 1.68 1.67 1.67 1.68
2228.391 1.68 1.72 1.72 1.67 1.65 1.64 1.63 1.63 1.6 1.59
2247.685 1.6 1.6 1.59 1.59 1.57 1.49 1.46 1.47 1.49 1.51
2266.978 1.52 1.5 1.52 1.54 1.57 1.61 1.64 1.66 1.69 1.74
2286.272 1.81 1.83 1.863 1.909 1.904 1.924 1.913 1.892 1.916 1.936
2305.565 1.997 2.103 2.216 2.341 2.489 2.629 2.7524 2.7479 2.66 2.543
2324.858 2.387 2.268 2.203 2.217 2.242 2.293 2.344 2.346 2.356 2.31
2344.152 2.219 2.148 2.086 1.987 1.874 1.81 1.794 1.79 1.74 1.74
2363.445 1.75 1.78 1.809 1.849 1.89 1.886 1.911 1.983 2.07 2.147
2382.739 2.242 2.314 2.332 2.36 2.402 2.413 2.379 2.411 2.425 2.39
2402.032 2.428 2.504 2.548 2.652 2.7775 2.87402 3.0004 3.1307 3.2287 3.3004
2421.326 3.3025 3.1673 3.0284 2.9028 2.7116 2.556 2.462 2.359 2.234 2.12
2440.619 2.054 1.987 1.918 1.856 1.833 1.823 1.798 1.77 1.73 1.76
2459.912 1.79 1.74 1.76 1.795 1.77 1.76 1.76 1.76 1.74 1.71
2479.206 1.69 1.68 1.69 1.68 1.66 1.7 1.71 1.68 1.65 1.65
2498.499 1.67 1.7 1.72 1.7 1.69 1.72 1.74 1.73 1.75 1.808
2517.793 1.811 1.803 1.799 1.81 1.821 1.806 1.827 1.829 1.821 1.848
2537.086 1.867 1.91 1.969 1.954 2.022 2.106 2.142 2.208 2.291 2.404
2556.380 2.49 2.569 2.672 2.7579 2.81969 2.88504 2.85227 2.84196 2.84398 2.82066
2575.673 2.83985 2.79686 2.761 2.674 2.592 2.599 2.594 2.546 2.478 2.423
2594.966 2.429 2.445 2.382 2.316 2.291 2.231 2.148 2.135 2.158 2.134
2614.260 2.108 2.148 2.166 2.187 2.252 2.267 2.231 2.154 2.11 2.084
2633.553 2.016 2.019 2.021 2.005 2.004 2.006 1.994 2.009 1.996 1.965
2652.847 1.959 1.977 1.982 1.997 2.013 1.948 1.87 1.861 1.882 1.852
2672.140 1.796 1.71 1.67 1.69 1.7 1.66 1.64 1.66 1.69 1.7
2691.434 1.7 1.71 1.73 1.77 1.801 1.852 1.965 2.08 2.156 2.171
2710.727 2.259 2.456 2.586 2.665 2.7392 2.8458 2.87522 2.84456 2.919 2.9878
2730.020 2.9697 2.9632 3.0195 3.0416 3.1001 3.1799 3.2191 3.3377 3.4824 3.5882
2749.314 3.6897 3.7442 3.7874 3.86 3.83 3.6637 3.5242 3.4325 3.2911 3.1469
2768.607 3.0184 2.88933 2.86223 2.8119 2.78235 2.88327 2.939 2.995 3.0999 3.1694
2787.901 3.2733 3.3945 3.4691 3.4876 3.4891 3.4919 3.4853 3.4773 3.5858 3.7361
2807.194 3.91 4.15 4.28 4.39 4.56 4.69 4.82 4.95 5.04 5.18
2826.488 5.26 5.36 5.58 5.78 5.98 6.18 6.46 6.84 7.27 7.75
2845.781 8.24 8.91 9.71 10.63 11.93 13.5 15.28 17.26 19.7 22.65
2865.074 25.99 29.7 33.52 37.4 41.16 44.33 46.73 48.21 48.62 48.26
2884.368 47.48 46.27 44.93 43.86 43.03 42.52 42.4 42.83 43.91 45.57
2903.661 47.92 50.93 54.3 57.59 60.49 62.43 63.12 62.65 61.26 59.49
2922.955 57.89 56.72 55.93 55.65 55.83 56.23 56.84 57.71 59.01 60.77
2942.248 63.18 66.7 71.52 78.03 86.58 97.33 110.32 125.59 143.2 163.16
2961.542 185.43 209.52 233.79 254.56 266.36 264.89 249.45 222.58 189.59 156.63
2980.835 128.1 105.32 87.24 72.72 60.96 51.23 43.21 36.74 31.41 27.14
3000.128 23.68 20.95 18.79 17.12 15.97 15.25 14.86 14.76 15.04 15.7
3019.422 16.62 17.98 19.67 21.63 23.99 26.61 29.54 32.45 35.1 37.14
3038.715 37.91 37.19 35.24 32.59 30.04 28.15 27.3 27.73 29.24 31.59
3058.009 34.71 38.61 43.23 48.78 55.17 61.32 65.42 66.35 64.57 60.77
3077.302 55.99 52.02 50.09 49.78 49.99 49.63 48.21 45.79 42.56 38.85
3096.596 34.96 31.22 27.73 24.48 21.53 18.97 16.76 14.67 12.83 11.45
3115.889 10.27 9.33 8.68 7.99 7.36 6.91 6.41 5.84 5.31 4.89
3135.182 4.54 4.19 3.88 3.6685 3.5102 3.441 3.4767 3.4769 3.4418 3.4257
3154.476 3.5051 3.5521 3.4252 3.2948 3.2417 3.2299 3.1056 2.8903 2.623 2.439
3173.769 2.507 2.519 2.399 2.336 2.324 2.269 2.189 2.171 2.18 2.185
3193.063 2.157 2.125 2.139 2.043 2.057 2.083 2.008 2.013 2.011 2.066
3212.356 1.963 1.864 1.923 1.952 1.889 1.78 1.78 1.76 1.69 1.66
3231.650 1.6 1.58 1.55 1.54 1.51 1.43 1.36 1.31 1.37 1.31
3250.943 1.22 1.19 1.19 1.2 1.07 1.08 1.16 1.04 0.97 0.99
3270.236 1.01 1.06 1.11 1.13 1.15 1.18 1.22 1.26 1.27 1.23
3289.530 1.17 1.08 1.11 1.18 1.18 1.13 1.06 1.11 1.16 1.1
3308.823 1.11 1.14 1.05 1.07 1.2 1.42 1.53 1.57 1.834 2.238
3328.117 2.659 2.9518 3.1656 3.537 3.89 4.04 4.15 4.13 3.9 3.6584
3347.410 3.3482 3.024 2.711 2.272 1.829 1.52 1.35 1.21 0.92 0.76
3366.704 0.87 0.9 0.88 0.87 0.94 0.89 0.81 0.8 0.84 0.89
3385.997 0.89 0.88 0.86 0.71 0.56 0.57 0.59 0.6 0.52 0.42
3405.290 0.47 0.59 0.5 0.41 0.4 0.29 0.2 0.18 0.17 0.27
3424.584 0.36 0.38 0.23 0.2 0.36 0.42 0.37 0.31 0.24 0.19
3443.877 0.3 0.27 0.15 0.23 0.28 0.08 0 0.1 0.16 0.18
3463.171 0.14 0.18 0.16 0.15 0.22 0.24 0.19 0.07 0.12 0.16
3482.464 0.2 0.21 0.07 0.19 0.29 0.22 0.28 0.34 0.25 0.14
3501.758 0.12 0.16 0.13 0.09 0.23 0.38 0.36 0.25 0.19 0.23
3521.051 0.26 0.21 0.16 0.14 0.13 0.14 0.16 0.17 0.19 0.37
3540.344 0.34 0.21 0.28 0.23 0.2 0.23 0.19 0.29 0.35 0.24
3559.638 0.19 0.13 0.19 0.23 0.12 0.05 0.16 0.3 0.35 0.25
3578.931 0.22 0.32 0.33 0.26 0.07 0.12 0.26 0.19 0.21 0.27
3598.225 0.27 0.31 0.33 0.28 0.35 0.45 0.43 0.39 0.41 0.41
3617.518 0.4 0.43 0.39 0.45 0.49 0.38 0.39 0.54 0.63 0.74
3636.812 0.79 0.74 0.72 0.76 0.8 0.8 0.84 0.84 0.83 0.81
3656.105 0.8 0.82 0.8 0.88 0.91 0.92 0.99 0.92 0.85 0.89
3675.398 1 1.06 1.07 1.04 0.99 0.86 0.9 0.95 0.88 0.94
3694.692 0.96 0.94 1.14 1.14 1.01 1.12 1.06 1.04 1.1 1.04
3713.985 1 1.06 1.21 1.2 1.13 1.13 1.2 1.21 1.09 1.06
3733.279 1.08 1.05 0.93 0.91 1.02 1.05 1.01 1 0.98 0.93
3752.572 0.86 0.95 1.01 1.01 1.06 1.01 0.97 0.97 0.88 0.85
3771.866 0.89 0.9 0.93 0.92 0.91 0.9 0.88 0.9 0.92 0.94
3791.159 1.01 1.06 1.09 1.09 1.11 1.17 1.19 1.17 1.18 1.25
3810.452 1.26 1.27 1.22 1.11 1.03 1.09 1.19 1.19 1.17 1.1
3829.746 1.09 1.11 1.04 1.03 1.12 1.16 1.1 0.99 0.99 1.04
3849.039 0.98 0.94 0.96 1.03 1.11 1.17 1.1 1.03 1.09 1.15
3868.333 1.17 1.2 1.24 1.26 1.2 1.14 1.25 1.29 1.35 1.37
3887.626 1.41 1.47 1.47 1.43 1.43 1.59 1.62 1.57 1.54 1.45
3906.920 1.43 1.41 1.38 1.37 1.4 1.41 1.28 1.2 1.33 1.38
3926.213 1.3 1.19 1.14 1.12 1.16 1.23 1.24 1.24 1.14 1.2
3945.506 1.31 1.24 1.22 1.31 1.31 1.31 1.28 1.18 1.23 1.29
3964.800 1.35 1.46 1.46 1.39 1.42 1.53 1.51 1.46 1.6 1.68
3984.093 1.73 1.77 1.79 1.858 1.92 1.952 1.99 1.943 1.911
##END=
