##TITLE=2,4,5-Trifluorophenol
##JCAMP-DX=4.24
##DATA TYPE=INFRARED SPECTRUM
##ORIGIN=EPA-IR VAPOR PHASE LIBRARY
##OWNER=SRD/NIST
Collection (C) 2018 copyright by the U.S. Secretary of Commerce
on behalf of the United States of America. All rights reserved.
##CAS REGISTRY NO=2268-16-8
##MOLFORM=C 6 H 3 F 3 O
##$NIST SOURCE=MSDC-IR
##STATE=gas
##XUNITS=1/CM
##YUNITS=ABSORBANCE
##XFACTOR=1.
##YFACTOR=0.001
##DELTAX=1.929
##FIRSTX=549.8
##LASTX=4000.8
##FIRSTY=0.723
##MAXX=4000.75
##MINX=549.766
##MAXY=0.12627
##MINY=0
##NPOINTS=1790
##XYDATA=(X++(Y..Y))
549.766 0.723 0.752 0.734 0.611 0.403 0.235 0.16 0.255 0.367 0.243
569.056 0.12 0.1 0.01 0 0.188 0.11 0.11 0.28 0.362 0.301
588.346 0.22 0.284 0.455 0.491 0.456 0.433 0.53 0.796 0.906 0.949
607.636 0.953 0.927 0.888 0.927 0.893 0.933 1.18555 1.3202 1.4607 1.7266
626.926 1.9347 1.9511 1.8433 1.8345 1.8504 1.8348 2.0628 2.0907 1.6965 1.337
646.216 1.16392 0.933 0.693 0.623 0.636 0.616 0.662 0.718 0.697 0.828
665.506 0.957 0.876 0.878 0.958 1.0687 1.3181 1.5209 1.7428 2.0835 2.38
684.796 2.85 3.72 4.67 5.68 6.98 8.3 9.22 9.56 9.38 8.99
704.086 9 9.64 9.97 9.34 7.95 6.32 4.91 3.8 2.9 2.31
723.376 1.9826 1.7522 1.6033 1.4542 1.3801 1.398 1.4985 1.6624 1.7633 1.7883
742.666 1.758 1.6954 1.6961 1.6536 1.5887 1.5096 1.421 1.311 1.24448 1.2809
761.956 1.2669 1.19455 1.15288 1.1304 1.0902 1.1283 1.18381 1.17444 1.16872 1.1348
781.246 1.1372 1.1112 1.0801 1.0925 1.0754 1.0793 1.0685 1.1038 1.20305 1.22545
800.536 1.18889 1.1465 1.25439 1.3432 1.2989 1.3879 1.4484 1.4311 1.5746 1.864
819.826 2.42 3.14 3.97 5.29 7.26 9.54 12.16 15.23 18.27 20.83
839.116 22.87 24.65 26.13 27.12 28.15 29.22 30.13 30.87 31.57 32.75
858.406 35.21 39.85 46.54 48.71 43.15 38.57 36.79 34.27 30.76 26.68
877.696 22.29 17.71 13.69 10.4 7.75 5.77 4.34 3.35 2.68 2.26
896.986 1.9359 1.7114 1.562 1.3128 1.20414 1.25045 1.25438 1.1489 1.053 0.979
916.276 0.957 0.976 0.92 0.824 0.857 0.864 0.788 0.83 0.84 0.817
935.566 0.856 0.955 0.993 1.041 1.1233 1.20921 1.3349 1.4101 1.4229 1.4492
954.856 1.5021 1.5377 1.5421 1.5424 1.5117 1.4263 1.373 1.3696 1.3096 1.21119
974.146 1.21886 1.21835 1.20256 1.21409 1.16971 1.15812 1.1434 1.0877 1.043 1.007
993.436 1.025 1.053 1.027 0.949 0.896 0.902 0.967 0.977 0.952 0.971
1012.726 0.967 0.99 1.015 1.0767 1.1472 1.1408 1.16427 1.1708 1.20792 1.2793
1032.016 1.2915 1.20749 1.18351 1.2203 1.18018 1.1122 1.0688 1.0754 1.006 0.921
1051.306 0.88 0.89 0.875 0.862 0.897 0.865 0.902 0.972 0.991 1.009
1070.596 1.1028 1.20752 1.2649 1.2727 1.2873 1.2871 1.2669 1.302 1.3178 1.3657
1089.886 1.4168 1.4676 1.6638 2.0086 2.41 2.9 3.64 4.53 5.42 6.3
1109.176 7.08 7.78 8.41 8.98 9.36 9.56 9.6 9.48 9.42 9.74
1128.467 10.65 12.3 14.78 18.05 21.91 25.8 29.61 33.53 37.49 41.22
1147.757 44.03 44.64 42.81 40.68 38.98 36.27 32.24 27.63 23.23 19.45
1167.047 16.5 14.46 13.08 12.04 11.08 10.24 9.69 9.14 8.36 7.86
1186.337 7.46 6.93 6.45 6.2 6.41 7.14 8.34 10.01 12.12 14.35
1205.627 16.17 17.05 16.96 16.59 16.92 18.24 19.45 19.44 18.6 17.71
1224.917 17.26 17.57 18.57 20.13 22.01 23.88 25.6 26.98 27.96 28.62
1244.207 28.84 28.5 27.47 26 24.49 22.86 20.8 18.61 16.81 15.48
1263.497 14.6 13.98 13.4 13.02 12.88 12.87 12.79 12.44 11.81 11.18
1282.787 10.88 10.94 11.32 11.98 12.82 13.8 14.98 16.36 17.75 18.98
1302.077 19.84 20.21 20.29 20.08 19.52 18.66 17.29 15.32 12.99 10.68
1321.367 8.76 7.22 6.02 5.17 4.57 4.17 3.89 3.69 3.53 3.36
1340.657 3.17 2.99 2.85 2.7 2.51 2.35 2.23 2.21 2.31 2.5
1359.947 2.78 3.11 3.43 3.84 4.26 4.55 4.72 4.85 4.92 4.93
1379.237 4.9 4.75 4.45 4.01 3.51 3.02 2.61 2.28 2.0173 1.8458
1398.527 1.7153 1.6285 1.6618 1.6827 1.645 1.6623 1.7752 1.8878 1.9723 2.1036
1417.817 2.26 2.44 2.65 2.91 3.2 3.48 3.74 3.97 4.31 4.7
1437.107 5.13 5.6 6.16 6.76 7.29 7.75 8.04 8.2 8.24 8.1
1456.397 7.83 7.5 7.18 6.8 6.18 5.38 4.61 4.01 3.69 3.58
1475.687 3.62 3.87 4.4 5.18 6.34 7.98 10.18 12.9 16.09 19.43
1494.977 22.74 26.01 29.07 32.07 34.87 37.67 41.47 46.27 52.29 60.71
1514.267 71.6 84.73 98.47 110.14 119.36 124.52 126.27 125.72 122.45 115.7
1533.557 105.95 93.24 77.05 57.61 40.62 28.91 21.27 16.33 12.92 10.26
1552.847 8.22 6.56 5.39 4.71 4.19 3.82 3.58 3.42 3.34 3.21
1572.137 3.11 3.11 3.06 2.99 2.94 2.88 2.83 2.81 2.77 2.71
1591.427 2.72 2.75 2.75 2.71 2.71 2.7 2.68 2.69 2.68 2.69
1610.717 2.68 2.59 2.55 2.56 2.52 2.5 2.59 2.7 2.82 2.98
1630.007 3.07 3.16 3.28 3.35 3.31 3.26 3.23 3.05 2.9 2.79
1649.297 2.63 2.52 2.38 2.26 2.2 2.17 2.137 2.0931 2.0514 1.993
1668.587 1.9665 1.9816 1.9945 2.0794 2.17 2.26 2.35 2.43 2.54 2.69
1687.877 2.81 2.87 2.89 2.9 2.84 2.75 2.68 2.62 2.55 2.42
1707.167 2.19 1.9854 1.8252 1.6876 1.5949 1.5421 1.4913 1.4057 1.3578 1.3402
1726.457 1.3035 1.3075 1.3294 1.3386 1.3393 1.3199 1.3299 1.3486 1.3193 1.2628
1745.747 1.2623 1.2727 1.2658 1.25107 1.23054 1.21098 1.20103 1.21843 1.21522 1.20245
1765.037 1.19873 1.21326 1.22036 1.23911 1.2098 1.17452 1.17768 1.19459 1.21401 1.21621
1784.327 1.24988 1.2699 1.3142 1.3776 1.4029 1.4028 1.4423 1.5344 1.5929 1.6197
1803.617 1.6688 1.7308 1.775 1.811 1.8411 1.8886 1.9356 1.939 1.9343 1.9606
1822.907 1.9557 1.9073 1.8845 1.8193 1.7151 1.6585 1.587 1.5078 1.5072 1.4675
1842.197 1.4244 1.4371 1.3772 1.35 1.3467 1.3108 1.3077 1.2955 1.2873 1.25472
1861.487 1.21982 1.23059 1.24028 1.24799 1.2827 1.2895 1.2791 1.2944 1.2867 1.2786
1880.777 1.2743 1.2832 1.2995 1.2841 1.2911 1.3267 1.3104 1.2841 1.2781 1.2771
1900.067 1.24505 1.23096 1.24606 1.22565 1.21379 1.21232 1.25422 1.2711 1.269 1.2833
1919.357 1.2675 1.25309 1.25273 1.2887 1.3025 1.3117 1.3193 1.3218 1.3211 1.2972
1938.647 1.2791 1.2657 1.25633 1.23614 1.2385 1.2753 1.306 1.3136 1.3125 1.2833
1957.937 1.2827 1.2726 1.2686 1.2864 1.3052 1.3337 1.3262 1.3402 1.3702 1.4034
1977.227 1.4037 1.3835 1.4242 1.4202 1.433 1.4487 1.4288 1.4443 1.4109 1.3978
1996.517 1.3995 1.3287 1.3044 1.3073 1.2851 1.2843 1.2917 1.294 1.281 1.2649
2015.807 1.24885 1.22308 1.22262 1.24156 1.21657 1.2225 1.21822 1.17738 1.21271 1.23643
2035.097 1.21229 1.19073 1.20288 1.249 1.24138 1.21726 1.19669 1.19733 1.21847 1.2547
2054.387 1.27 1.2691 1.2731 1.2842 1.2957 1.2729 1.23823 1.22405 1.22697 1.19643
2073.677 1.22682 1.2772 1.24523 1.21075 1.18565 1.1855 1.20306 1.18665 1.20779 1.20764
2092.967 1.17943 1.1577 1.12 1.1295 1.18046 1.19901 1.21367 1.21375 1.15453 1.17038
2112.257 1.21006 1.19282 1.199 1.21586 1.20545 1.17512 1.17491 1.1926 1.202 1.19453
2131.547 1.1488 1.15943 1.21024 1.20012 1.19738 1.23145 1.23361 1.23712 1.23935 1.21255
2150.837 1.22712 1.2928 1.3156 1.2879 1.2684 1.2627 1.2729 1.279 1.2831 1.25078
2170.127 1.23839 1.2759 1.2821 1.24056 1.24223 1.2836 1.2792 1.272 1.2679 1.2627
2189.417 1.2956 1.3099 1.2911 1.2902 1.3143 1.3586 1.3671 1.3854 1.4462 1.4656
2208.707 1.4537 1.4656 1.4959 1.5219 1.5324 1.5395 1.58 1.5999 1.5936 1.6276
2227.997 1.628 1.595 1.6207 1.6684 1.6431 1.6353 1.689 1.6906 1.7007 1.7557
2247.287 1.7697 1.7492 1.7371 1.7699 1.7882 1.7696 1.8142 1.8448 1.8728 1.8998
2266.577 1.9067 1.9033 1.8991 1.8971 1.8695 1.8724 1.8238 1.7381 1.6942 1.6571
2285.868 1.5879 1.5287 1.4847 1.4486 1.4189 1.4066 1.4257 1.415 1.4124 1.4182
2305.158 1.4336 1.4781 1.541 1.5911 1.5984 1.6392 1.6974 1.7057 1.7136 1.7567
2324.448 1.8298 1.8646 1.8483 1.8661 1.859 1.8224 1.8184 1.8104 1.8287 1.8514
2343.738 1.7967 1.7639 1.7873 1.82 1.826 1.8156 1.8274 1.7958 1.7909 1.8366
2363.028 1.8534 1.8028 1.7628 1.7181 1.6743 1.6659 1.6135 1.5535 1.5253 1.5101
2382.318 1.4833 1.4508 1.4954 1.5603 1.5426 1.5032 1.4875 1.4862 1.5167 1.5344
2401.608 1.5377 1.5203 1.4794 1.4759 1.5283 1.5691 1.5646 1.5867 1.6388 1.6355
2420.898 1.5826 1.6021 1.598 1.5652 1.5822 1.5791 1.5618 1.5469 1.5239 1.5138
2440.188 1.5029 1.4899 1.4843 1.5011 1.5154 1.5346 1.5096 1.4412 1.4577 1.4987
2459.478 1.5247 1.5363 1.5402 1.5498 1.533 1.5452 1.6182 1.6957 1.7241 1.7034
2478.768 1.7098 1.7792 1.8275 1.8664 1.8892 1.8289 1.7949 1.7988 1.7746 1.8175
2498.058 1.8345 1.7454 1.7137 1.7343 1.7427 1.7603 1.7462 1.7264 1.7611 1.8042
2517.348 1.7733 1.7706 1.8157 1.8169 1.7865 1.7756 1.7789 1.7138 1.6986 1.728
2536.638 1.7311 1.7574 1.7084 1.6779 1.7121 1.731 1.7404 1.7225 1.7289 1.7826
2555.928 1.8485 1.859 1.8581 1.8794 1.8501 1.8518 1.9028 1.8644 1.8128 1.8482
2575.218 1.8791 1.8456 1.8369 1.8422 1.8178 1.7553 1.7414 1.7595 1.7203 1.6767
2594.508 1.6955 1.7417 1.7341 1.6944 1.6537 1.6317 1.6237 1.6334 1.6144 1.5924
2613.798 1.6291 1.6401 1.5841 1.5845 1.5893 1.5433 1.5268 1.5406 1.5402 1.5532
2633.088 1.5861 1.5571 1.5773 1.6742 1.6774 1.6216 1.5599 1.5208 1.5905 1.6341
2652.378 1.5445 1.5773 1.5771 1.5114 1.5409 1.5291 1.5352 1.5392 1.5101 1.5408
2671.668 1.5832 1.5598 1.5541 1.5158 1.4522 1.4659 1.5199 1.5173 1.5071 1.5052
2690.958 1.4696 1.5155 1.5458 1.486 1.4069 1.3991 1.4211 1.3984 1.3946 1.3771
2710.248 1.3683 1.3715 1.3862 1.3952 1.4016 1.4045 1.3947 1.3878 1.4421 1.4786
2729.538 1.4656 1.4619 1.4182 1.4084 1.4549 1.4751 1.4289 1.4145 1.4695 1.4701
2748.828 1.4829 1.5296 1.524 1.5066 1.4964 1.4806 1.4464 1.5071 1.5462 1.5178
2768.118 1.4911 1.4312 1.426 1.3917 1.405 1.4895 1.485 1.4724 1.4868 1.4906
2787.408 1.4232 1.3767 1.4452 1.4985 1.4824 1.4738 1.4578 1.4123 1.3728 1.3246
2806.698 1.3586 1.4028 1.3687 1.3581 1.3893 1.4122 1.4082 1.39 1.4402 1.4098
2825.988 1.3964 1.4296 1.384 1.3964 1.3914 1.3536 1.3363 1.3668 1.3736 1.3748
2845.278 1.3868 1.3753 1.355 1.3134 1.2853 1.2848 1.2776 1.293 1.3472 1.3667
2864.568 1.3476 1.3085 1.3202 1.359 1.3879 1.3931 1.4067 1.4887 1.5406 1.5098
2883.858 1.431 1.4309 1.4365 1.4365 1.4322 1.4661 1.5212 1.4906 1.5334 1.5457
2903.148 1.5005 1.5109 1.5232 1.4769 1.4419 1.4443 1.3979 1.3703 1.3461 1.3023
2922.438 1.3279 1.3571 1.3251 1.3203 1.3317 1.3572 1.3956 1.3684 1.3061 1.2771
2941.728 1.22906 1.28 1.3161 1.2668 1.2622 1.265 1.2783 1.3268 1.3074 1.2614
2961.018 1.197 1.1689 1.21047 1.128 1.0998 1.0954 1.0855 1.23109 1.2697 1.1069
2980.308 1.0782 1.0961 1.1072 1.1205 1.1149 1.074 1.055 1.0859 1.1084 1.1458
2999.598 1.0878 0.994 0.951 0.977 0.978 0.969 1.029 1.044 1.026 1.017
3018.888 0.989 0.959 0.976 1.0673 1.0766 0.992 0.978 0.979 1.026 1
3038.178 0.868 0.876 0.922 0.884 0.843 0.851 0.878 0.966 1.03 0.999
3057.468 1.035 1.015 1.002 1.1084 1.15872 1.1292 1.1445 1.321 1.435 1.4478
3076.758 1.439 1.3939 1.401 1.4171 1.391 1.4134 1.404 1.3624 1.3646 1.3553
3096.048 1.2786 1.19808 1.18223 1.0976 1.095 1.068 0.895 0.838 0.863 0.875
3115.338 0.881 0.931 0.998 0.999 0.959 0.88 0.815 0.853 0.948 0.895
3134.628 0.838 0.899 0.974 0.983 0.962 0.982 0.961 0.945 1.004 1.012
3153.918 0.921 0.896 0.868 0.86 0.916 0.923 0.992 0.962 0.795 0.797
3173.208 0.859 0.815 0.722 0.677 0.699 0.766 0.869 0.812 0.731 0.784
3192.498 0.752 0.783 0.808 0.771 0.768 0.79 0.797 0.79 0.761 0.725
3211.788 0.689 0.576 0.597 0.729 0.764 0.739 0.712 0.713 0.809 0.826
3231.078 0.778 0.725 0.62 0.633 0.697 0.693 0.691 0.702 0.71 0.684
3250.368 0.621 0.697 0.788 0.774 0.817 0.777 0.763 0.889 0.991 1.022
3269.658 1.015 1.0982 1.089 0.941 0.837 0.802 0.802 0.822 0.802 0.738
3288.948 0.743 0.815 0.899 0.852 0.744 0.748 0.804 0.871 0.894 0.876
3308.238 0.906 0.852 0.742 0.726 0.665 0.638 0.663 0.715 0.746 0.698
3327.528 0.699 0.778 0.843 0.757 0.644 0.686 0.81 0.842 0.774 0.681
3346.818 0.755 0.763 0.769 0.784 0.732 0.795 0.805 0.715 0.633 0.616
3366.108 0.63 0.693 0.716 0.652 0.54 0.546 0.547 0.58 0.67 0.675
3385.398 0.661 0.59 0.558 0.638 0.697 0.685 0.627 0.628 0.692 0.676
3404.688 0.626 0.696 0.737 0.702 0.727 0.657 0.578 0.514 0.49 0.567
3423.978 0.626 0.632 0.601 0.705 0.719 0.639 0.639 0.609 0.615 0.59
3443.269 0.583 0.609 0.556 0.579 0.7 0.685 0.688 0.708 0.625 0.575
3462.559 0.58 0.583 0.635 0.679 0.609 0.464 0.397 0.472 0.555 0.628
3481.849 0.629 0.549 0.505 0.517 0.438 0.424 0.435 0.5 0.588 0.527
3501.139 0.438 0.518 0.589 0.55 0.628 0.665 0.648 0.722 0.719 0.612
3520.429 0.587 0.562 0.561 0.556 0.551 0.575 0.58 0.565 0.638 0.624
3539.719 0.581 0.661 0.733 0.7 0.629 0.662 0.609 0.545 0.573 0.618
3559.009 0.668 0.747 0.74 0.601 0.549 0.66 0.734 0.751 0.741 0.728
3578.299 0.748 0.783 0.804 0.85 0.934 0.996 0.968 0.973 1.1332 1.15051
3597.589 1.17172 1.3455 1.4653 1.5802 1.863 2.38 3.15 4.27 6.07 8.7
3616.879 12.21 16.6 21.37 25.48 28.15 29.5 30.05 30.17 29.53 27.89
3636.169 25.63 22.34 17.71 12.81 8.88 6.25 4.64 3.81 3.59 3.46
3655.459 3.24 3.07 2.8 2.65 2.61 2.52 2.24 1.8314 1.5706 1.4888
3674.749 1.3629 1.088 0.964 0.869 0.802 0.809 0.811 0.845 0.819 0.805
3694.039 0.7 0.693 0.793 0.724 0.672 0.691 0.712 0.701 0.693 0.678
3713.329 0.721 0.692 0.699 0.728 0.689 0.74 0.726 0.751 0.843 0.798
3732.619 0.673 0.687 0.803 0.836 0.734 0.743 0.827 0.703 0.664 0.708
3751.909 0.639 0.609 0.605 0.661 0.751 0.773 0.749 0.685 0.606 0.657
3771.199 0.71 0.722 0.796 0.811 0.803 0.802 0.722 0.647 0.72 0.733
3790.489 0.747 0.767 0.774 0.775 0.765 0.822 0.78 0.729 0.754 0.774
3809.779 0.816 0.933 0.929 0.883 0.894 0.905 0.918 0.926 0.936 0.857
3829.069 0.828 0.854 0.879 0.901 0.9 0.887 0.926 0.958 0.912 0.851
3848.359 0.774 0.784 0.821 0.787 0.747 0.825 0.838 0.83 0.82 0.793
3867.649 0.845 0.848 0.833 0.879 0.872 0.877 0.901 0.825 0.834 0.931
3886.939 0.905 0.769 0.773 0.825 0.828 0.99 1.0832 1.026 1.039 1.1073
3906.229 1.0771 0.988 0.95 0.971 1.016 0.959 0.938 0.944 1.009 1.0764
3925.519 1.0966 1.0947 0.989 0.98 1.042 1.0987 1.16358 1.15237 1.1116 1.0966
3944.809 1.0964 0.994 0.914 0.968 0.975 0.937 0.903 1.011 1.0909 1.0659
3964.099 1.0732 1.0769 1.19426 1.0844 0.906 0.97 1.0853 1.0789 0.954 0.894
3983.389 0.943 1.1284 1.22122 1.20014 1.1342 0.9 0.893 1.026 0.99 0.935
##END=
