##TITLE=4-Chlorodibenzoyl
##JCAMP-DX=4.24
##DATA TYPE=INFRARED SPECTRUM
##ORIGIN=EPA-IR VAPOR PHASE LIBRARY
##OWNER=SRD/NIST
Collection (C) 2018 copyright by the U.S. Secretary of Commerce
on behalf of the United States of America. All rights reserved.
##CAS REGISTRY NO=22711-23-5
##MOLFORM=C 14 H 9 Cl O 2
##$NIST SOURCE=MSDC-IR
##STATE=gas
##XUNITS=1/CM
##YUNITS=ABSORBANCE
##XFACTOR=1.
##YFACTOR=0.001
##DELTAX=1.92898
##FIRSTX=549.8
##LASTX=4000.7
##FIRSTY=14.453
##MAXX=4000.7
##MINX=549.759
##MAXY=0.302093
##MINY=0
##NPOINTS=1790
##XYDATA=(X++(Y..Y))
549.759 14.453 10.723 8.303 6.733 5.323 4.693 4.663 3.783 3.073 3.243
569.049 2.803 2.353 2.233 2.463 2.853 2.583 2.363 2.703 2.743 2.073
588.339 1.773 1.853 2.143 2.293 2.103 2.193 2.173 2.783 3.363 3.493
607.628 3.873 4.473 5.303 6.193 6.693 7.653 9.313 11.063 12.953 14.253
626.918 15.173 15.643 15.043 14.503 14.823 16.363 19.123 22.603 27.723 34.463
646.208 42.253 50.793 59.613 69.113 78.533 87.523 95.073 98.773 97.573 91.653
665.498 81.903 69.393 57.463 48.443 42.153 39.033 38.673 40.273 43.173 45.983
684.787 47.583 47.683 46.063 43.373 41.073 40.133 40.153 41.413 44.413 48.363
704.077 53.003 57.303 60.403 62.273 62.573 61.133 58.653 56.033 52.813 48.953
723.367 45.753 42.363 38.443 34.943 32.003 29.583 27.163 25.483 24.493 23.673
742.657 23.653 24.443 26.103 28.603 31.393 33.523 34.433 34.483 32.953 29.733
761.947 26.753 25.773 25.833 25.933 26.603 27.273 27.553 27.933 28.783 30.473
781.236 33.353 37.103 41.783 46.333 48.783 49.313 47.103 42.643 37.083 31.713
800.526 27.833 25.353 24.073 23.573 23.753 24.353 25.143 27.063 30.303 33.713
819.816 36.753 38.783 40.413 43.313 49.093 58.853 71.293 82.193 87.523 86.953
839.106 80.143 66.753 52.103 41.753 36.653 35.493 36.733 39.573 43.453 48.063
858.395 53.213 58.623 64.963 73.393 84.533 98.223 113.623 127.803 137.323 138.753
877.685 128.353 108.093 86.143 68.313 55.903 48.673 44.413 41.083 37.683 33.683
896.975 29.103 24.153 19.953 17.033 14.923 13.283 12.213 11.643 10.863 10.153
916.265 9.743 9.373 9.203 9.133 9.443 10.243 11.113 11.633 11.683 11.033
935.555 9.643 8.833 8.503 8.013 7.743 7.733 7.423 6.893 6.823 6.783
954.844 6.433 6.313 6.023 5.643 5.693 6.023 5.763 5.313 5.393 5.213
974.134 4.993 4.613 4.473 4.203 3.873 3.883 4.263 4.553 4.563 5.033
993.424 5.983 7.443 9.093 10.413 11.143 12.303 13.463 16.423 23.533 34.013
1012.714 43.473 47.273 46.483 41.963 32.613 22.883 17.433 14.533 11.723 8.833
1032.003 6.943 5.843 4.723 4.273 4.343 4.173 4.333 4.933 5.333 5.943
1051.293 6.263 6.593 7.423 8.163 9.123 10.643 13.053 15.023 18.063 21.753
1070.583 24.893 29.743 35.973 40.563 44.553 49.023 52.733 58.923 65.583 73.653
1089.873 85.653 98.023 107.693 110.663 106.173 96.243 82.223 66.753 54.683 46.043
1109.163 37.483 29.823 24.963 20.053 15.363 13.123 11.403 10.363 9.083 7.443
1128.452 7.423 8.003 7.843 8.343 9.083 8.763 9.043 10.013 10.503 11.933
1147.742 13.693 14.593 15.713 17.893 20.833 24.263 28.633 33.963 40.973 52.233
1167.032 70.383 96.513 124.863 144.603 153.373 154.453 144.083 122.363 101.643 89.603
1186.322 83.613 81.483 86.043 101.633 127.903 163.813 203.643 236.403 254.303 251.773
1205.611 226.513 182.333 134.553 97.033 71.483 55.513 45.753 38.653 35.663 33.613
1224.901 30.623 28.703 26.943 25.313 25.373 25.423 23.803 22.613 21.013 18.683
1244.191 17.203 16.173 15.783 16.103 16.523 16.993 17.683 18.473 19.503 20.923
1263.481 22.173 23.503 24.733 25.703 26.803 27.713 28.193 28.813 29.323 29.283
1282.771 29.563 30.043 29.833 29.053 27.983 26.603 24.913 23.703 23.003 22.693
1302.060 22.983 23.653 24.203 24.533 24.803 24.643 24.163 23.343 22.063 20.563
1321.350 18.923 17.043 15.313 13.743 12.183 10.973 10.123 9.603 9.203 8.853
1340.640 8.543 8.203 8.063 8.023 7.873 7.793 7.683 7.403 7.073 6.773
1359.930 6.473 6.193 6.243 6.373 6.443 6.553 6.713 6.943 7.303 7.683
1379.219 8.153 8.703 9.313 10.123 11.213 12.773 14.963 17.773 21.353 25.583
1398.509 29.343 31.683 31.693 29.663 25.983 21.253 17.133 14.273 12.493 11.373
1417.799 10.513 9.823 9.273 8.733 8.353 8.103 7.883 7.983 8.273 8.803
1437.089 9.813 11.503 14.023 17.453 21.913 26.363 29.163 29.563 27.753 23.713
1456.378 18.233 13.553 10.833 9.443 8.833 8.813 9.223 9.783 10.933 12.863
1475.668 15.343 18.693 22.993 28.333 34.403 39.973 43.263 42.803 38.833 32.253
1494.958 24.383 17.273 12.483 9.843 8.413 7.403 6.613 6.183 5.903 5.583
1514.248 5.603 5.553 5.423 5.493 5.633 5.843 6.023 6.303 6.543 6.683
1533.538 6.813 7.033 7.373 7.843 8.573 9.163 9.823 10.823 11.843 13.083
1552.827 14.583 16.543 19.063 22.423 26.843 32.223 39.023 46.573 54.103 60.863
1572.117 66.073 70.203 74.653 80.833 89.763 101.593 114.603 127.653 138.913 145.893
1591.407 147.113 141.323 128.783 111.633 92.363 74.133 58.923 47.233 38.853 33.083
1610.697 29.203 26.483 24.583 22.763 21.163 19.753 18.213 17.043 16.163 15.413
1629.986 15.193 15.203 15.493 15.993 16.403 17.063 18.133 19.323 20.533 21.963
1649.276 23.553 25.213 27.213 29.373 31.903 34.993 38.693 43.113 48.773 55.613
1668.566 64.043 74.493 87.183 103.103 123.603 147.963 176.943 208.063 239.653 269.213
1687.856 290.933 302.093 299.833 285.933 263.503 238.233 212.133 185.003 161.243 139.943
1707.146 122.013 106.253 92.333 79.723 68.473 58.513 49.723 42.583 36.593 31.453
1726.435 27.193 23.663 20.883 18.483 16.403 14.833 13.583 12.593 11.793 10.893
1745.725 10.133 9.583 9.103 8.683 8.263 7.843 7.793 7.863 7.763 7.803
1765.015 7.893 8.083 8.263 8.293 8.253 8.063 7.953 7.913 7.733 7.493
1784.305 7.413 7.433 7.543 7.543 7.443 7.223 6.973 6.903 6.923 7.043
1803.594 7.193 7.293 7.473 7.593 7.483 7.123 6.533 5.923 5.543 5.163
1822.884 4.843 4.633 4.413 4.173 4.063 3.903 3.543 3.333 3.143 3.033
1842.174 2.843 2.633 2.633 2.683 2.673 2.583 2.563 2.523 2.523 2.483
1861.464 2.533 2.543 2.493 2.413 2.343 2.423 2.473 2.483 2.543 2.603
1880.754 2.743 3.013 3.243 3.503 3.723 3.943 4.183 4.503 4.933 5.323
1900.043 5.693 5.943 6.243 6.433 6.383 6.403 6.533 6.573 6.503 6.463
1919.333 6.323 6.003 5.643 5.333 5.003 4.603 4.323 4.223 4.073 3.833
1938.623 3.603 3.643 3.623 3.493 3.563 3.573 3.693 4.063 4.303 4.383
1957.913 4.513 4.513 4.353 4.273 4.193 4.093 4.073 4.053 4.033 3.873
1977.202 3.473 3.023 2.543 2.113 1.973 1.823 1.633 1.653 1.673 1.663
1996.492 1.733 1.643 1.563 1.498 1.4403 1.499 1.613 1.653 1.543 1.633
2015.782 1.703 1.673 1.783 1.823 1.903 2.033 2.113 2.213 2.243 2.133
2035.072 2.013 1.873 1.743 1.593 1.563 1.573 1.5134 1.593 1.653 1.643
2054.362 1.613 1.583 1.543 1.533 1.613 1.583 1.5252 1.533 1.583 1.583
2073.651 1.4724 1.543 1.553 1.4212 1.3942 1.341 1.3539 1.3768 1.3559 1.3409
2092.941 1.2934 1.2875 1.3066 1.2022 1.2666 1.3609 1.2496 1.1955 1.3242 1.4067
2112.231 1.3119 1.2877 1.3079 1.365 1.4138 1.3719 1.4138 1.396 1.2579 1.2926
2131.521 1.28 1.2253 1.2622 1.2681 1.322 1.3292 1.16 1.076 1.2809 1.4086
2150.810 1.4003 1.4581 1.3236 1.2608 1.3876 1.3277 1.3198 1.2108 1.1566 1.2133
2170.100 1.0731 1.0631 0.9427 0.8523 1.0409 1.0392 0.9709 0.9311 0.9313 1.0585
2189.390 1.0553 0.8703 0.7488 0.8055 0.9198 0.999 0.8348 0.7016 0.7957 0.8587
2208.680 0.8345 0.8405 0.8155 0.8871 1.0215 0.9318 0.867 0.9628 1.1416 1.0956
2227.970 1.0725 1.1236 1.0393 1.0969 1.1485 0.9865 0.9751 1.0427 1.0507 1.094
2247.259 1.0532 1.0429 1.0476 1.1826 1.2705 1.1943 1.1079 1.059 1.0204 1.1179
2266.549 1.2152 1.1854 1.1702 1.2733 1.4585 1.4633 1.5004 1.633 1.763 1.843
2285.839 1.803 1.733 1.713 1.773 1.783 1.663 1.593 1.553 1.4091 1.288
2305.129 1.3108 1.4388 1.482 1.4653 1.563 1.673 1.823 1.943 2.073 2.163
2324.418 2.153 2.013 1.753 1.553 1.459 1.5084 1.4791 1.5177 1.663 1.673
2343.708 1.653 1.643 1.613 1.673 1.471 1.1167 1.2239 1.3058 1.2052 1.1481
2362.998 1.0571 1.1285 1.2215 1.2418 1.3104 1.2302 1.1954 1.303 1.4404 1.543
2382.288 1.4701 1.3891 1.2762 1.2204 1.2122 1.2189 1.261 1.1978 1.1712 1.1629
2401.578 1.2228 1.3175 1.2568 1.2558 1.2048 1.2365 1.3555 1.4377 1.4661 1.4138
2420.867 1.4095 1.3696 1.3132 1.2465 1.1401 1.0697 1.241 1.5216 1.5222 1.4719
2440.157 1.4845 1.497 1.4697 1.4048 1.593 1.673 1.663 1.603 1.653 1.803
2459.447 1.793 1.803 1.893 1.983 1.863 1.953 2.043 1.953 2.053 2.123
2478.737 2.133 2.063 1.943 2.023 2.073 2.163 2.233 2.043 1.943 1.893
2498.026 1.803 1.773 1.693 1.663 1.863 1.993 1.943 1.843 1.833 1.933
2517.316 1.993 2.033 2.073 2.093 2.093 2.203 2.243 2.043 2.063 2.243
2536.606 2.393 2.523 2.593 2.523 2.413 2.473 2.423 2.463 2.443 2.383
2555.896 2.533 2.473 2.323 2.323 2.373 2.403 2.313 2.223 2.343 2.333
2575.186 2.193 2.273 2.273 2.283 2.383 2.293 2.183 2.213 2.143 2.093
2594.475 2.123 2.053 1.993 2.033 1.903 1.723 1.783 1.693 1.553 1.3842
2613.765 1.3562 1.3765 1.3591 1.3242 1.2856 1.2573 1.2809 1.3307 1.3722 1.4138
2633.055 1.276 1.1301 1.2417 1.2999 1.0599 1.033 1.1177 1.135 0.9945 1.0349
2652.345 1.1988 1.0936 0.9715 1.0286 1.1414 1.2859 1.2455 1.1816 1.2654 1.1678
2671.634 1.03 1.0493 1.196 1.2588 1.2121 1.092 1.0733 1.1974 1.3435 1.4504
2690.924 1.4281 1.3809 1.2683 1.2019 1.1869 1.2586 1.3694 1.4369 1.4533 1.2625
2710.214 1.1854 1.2689 1.3178 1.2116 1.2345 1.3906 1.4807 1.4163 1.3414 1.563
2729.504 1.763 1.693 1.653 1.583 1.603 1.553 1.4683 1.573 1.623 1.613
2748.794 1.4559 1.4567 1.4112 1.4498 1.763 1.703 1.693 1.893 1.933 1.923
2768.083 1.943 1.913 1.623 1.673 1.843 1.843 1.793 1.693 1.843 1.893
2787.373 1.813 1.783 1.773 1.783 1.813 1.843 1.663 1.5126 1.3506 1.1673
2806.663 1.1243 1.1288 1.1123 0.934 0.7912 0.9292 0.9736 0.9433 0.8105 0.6866
2825.953 0.6516 0.6794 0.7949 0.8622 0.8528 0.6984 0.7272 0.9794 1.0975 1.0969
2845.242 1.1892 1.1827 1.0646 1.117 1.2236 1.1531 1.1716 1.3427 1.4062 1.382
2864.532 1.3112 1.194 1.4178 1.4942 1.2901 1.285 1.4932 1.543 1.3185 1.3356
2883.822 1.4898 1.3663 1.2912 1.543 1.4582 1.3188 1.2652 1.1546 1.2782 1.3985
2903.112 1.3226 1.3516 1.3102 1.1494 1.1419 1.0857 0.9989 1.1983 1.2852 1.2127
2922.401 1.1564 1.0985 1.164 1.0879 1.1267 1.084 1.0621 1.3177 1.2873 1.204
2941.691 1.3822 1.4125 1.1788 1.0964 1.2373 1.2754 1.2 1.14 1.2172 1.3656
2960.981 1.583 1.703 1.683 1.703 1.633 1.643 1.763 1.903 1.983 2.023
2980.271 2.143 1.993 1.823 1.833 1.913 1.893 1.793 1.903 2.103 2.133
2999.561 2.023 2.373 2.733 2.703 2.763 3.103 3.383 3.383 3.573 3.993
3018.850 4.433 4.783 5.263 6.103 6.923 7.483 8.223 8.963 9.363 9.843
3038.140 10.443 10.653 10.443 10.163 9.933 9.713 9.733 10.043 10.653 11.763
3057.430 13.133 14.933 17.013 19.113 21.613 25.013 28.713 32.103 34.873 35.693
3076.720 34.173 31.253 27.783 24.663 22.753 21.953 21.483 20.873 19.973 18.813
3096.009 17.313 15.633 13.743 11.923 10.313 8.953 7.783 6.703 5.773 5.133
3115.299 4.703 4.303 3.913 3.733 3.623 3.333 3.213 3.023 2.643 2.423
3134.589 2.473 2.383 2.223 2.133 2.073 2.033 1.953 1.823 1.903 2.093
3153.879 2.263 2.343 2.063 2.033 2.203 2.063 1.853 1.5254 1.2634 1.3788
3173.169 1.4521 1.3593 1.2096 1.0683 1.0088 0.9381 1.1056 1.1807 1.0326 1.0102
3192.458 1.0522 1.1937 1.2406 1.337 1.4685 1.1544 0.9949 0.9348 0.8922 1.0568
3211.748 1.025 1.072 0.9911 0.9152 1.0586 0.8907 0.9622 1.087 0.7464 0.52518
3231.038 0.59276 0.6338 0.7708 0.7168 0.59058 0.6854 0.6571 0.6865 0.7179 0.7102
3250.328 0.6667 0.635 0.7242 0.4603 0.246 0.331 0.55216 0.7856 0.7582 0.7316
3269.617 0.9164 0.9371 0.7994 0.8611 0.8169 0.7564 0.6628 0.847 1.0541 0.8574
3288.907 0.7587 0.953 0.8869 0.7889 0.9762 1.0965 1.0779 0.9393 1.0159 0.9177
3308.197 0.8076 0.8752 0.822 0.7611 0.8706 0.9075 0.8553 1.0749 1.124 1.2077
3327.487 1.753 1.793 1.504 1.553 1.673 2.063 2.463 2.743 2.803 2.903
3346.777 3.213 3.313 3.573 3.843 4.063 4.363 4.563 4.793 4.793 4.533
3366.066 4.393 4.163 4.043 4.123 3.803 3.383 3.273 3.333 3.293 3.113
3385.356 2.763 2.333 2.193 2.133 2.033 1.923 1.613 1.4141 1.354 1.2748
3404.646 1.2635 1.3286 1.2667 1.1506 1.174 0.8009 0.59781 0.5231 0.404 0.58424
3423.936 0.6864 0.7434 0.8171 0.8227 0.823 0.7683 0.5679 0.332 0.282 0.4494
3443.225 0.4476 0.417 0.57767 0.6707 0.7381 0.6951 0.758 0.966 0.8592 0.4993
3462.515 0.213 0.4945 0.7363 0.647 0.6978 0.7828 0.8934 0.7218 0.358 0.411
3481.805 0.57802 0.37 0.081 0.138 0.396 0.4802 0.411 0.407 0.385 0.353
3501.095 0.195 0.155 0.286 0.6524 0.62926 0.387 0.295 0.181 0.324 0.384
3520.385 0.4813 0.59348 0.58757 0.4364 0.403 0.263 0.314 0.4571 0.313 0.146
3539.674 0.062 0.199 0.303 0.123 0.25 0.4611 0.291 0.211 0.221 0.509
3558.964 0.421 0.115 0.356 0.465 0.5141 0.4498 0.357 0.347 0.19 0.308
3578.254 0.423 0.265 0 0.054 0.244 0.178 0.132 0.236 0.401 0.302
3597.544 0.258 0.327 0.322 0.391 0.284 0.253 0.5031 0.54507 0.361 0.322
3616.833 0.7126 0.8834 0.55084 0.428 0.4466 0.402 0.4424 0.4862 0.52414 0.63208
3636.123 0.61644 0.431 0.328 0.266 0.331 0.324 0.426 0.4705 0.5074 0.7021
3655.413 0.59052 0.4404 0.52788 0.5103 0.4743 0.6465 0.58744 0.7079 0.6526 0.4901
3674.703 0.331 0.128 0.4481 0.6869 0.916 0.8665 0.329 0.102 0.21 0.307
3693.993 0.411 0.57535 0.60236 0.6344 0.58588 0.6335 0.7916 0.8296 0.63046 0.4463
3713.282 0.7663 0.813 0.8454 0.8013 0.7237 0.8392 0.7154 0.61534 0.535585 0.7818
3732.572 0.9331 0.8814 0.8002 0.58346 0.58661 0.6428 0.56477 0.537363 0.316 0.144
3751.862 0.299 0.535324 0.58118 0.532577 0.7192 0.7843 0.59168 0.4605 0.248 0.105
3771.152 0.299 0.4997 0.41 0.4567 0.403 0.25 0.392 0.279 0.191 0.52864
3790.441 0.6877 0.56047 0.4532 0.418 0.356 0.3 0.4672 0.6841 0.58627 0.55915
3809.731 0.7522 0.7313 0.6418 0.4999 0.59229 0.52919 0.54635 0.62895 0.53985 0.61533
3829.021 0.5121 0.31 0.303 0.4715 0.487 0.25 0.346 0.301 0.33 0.5037
3848.311 0.14 0.042 0.352 0.5047 0.345 0.4699 0.4572 0.166 0.07 0.054
3867.601 0.125 0.329 0.38 0.213 0.29 0.277 0.063 0.039 0.1 0.199
3886.890 0.273 0.425 0.338 0.101 0.288 0.386 0.329 0.419 0.4717 0.302
3906.180 0.1 0.102 0.256 0.318 0.237 0.336 0.288 0.148 0.255 0.305
3925.470 0.116 0.23 0.4939 0.452 0.55569 0.57873 0.60769 0.7603 0.5191 0.314
3944.760 0.4712 0.59486 0.7626 0.7976 0.6622 0.4837 0.324 0.356 0.418 0.173
3964.049 0.125 0.223 0.11 0.208 0.215 0.096 0.159 0.173 0.218 0.366
3983.339 0.424 0.4914 0.426 0.303 0.5067 0.6828 0.8123 0.6775 0.412 0.56725
##END=
