##TITLE=Anilinoacetaldehyde diethyl acetal
##JCAMP-DX=4.24
##DATA TYPE=INFRARED SPECTRUM
##ORIGIN=EPA-IR VAPOR PHASE LIBRARY
##OWNER=SRD/NIST
Collection (C) 2018 copyright by the U.S. Secretary of Commerce
on behalf of the United States of America. All rights reserved.
##CAS REGISTRY NO=22758-34-5
##MOLFORM=C 12 H 19 N O 2
##$NIST SOURCE=MSDC-IR
##STATE=gas
##XUNITS=1/CM
##YUNITS=ABSORBANCE
##XFACTOR=1.
##YFACTOR=0.001
##DELTAX=1.92898
##FIRSTX=549.8
##LASTX=4000.7
##FIRSTY=10.9115
##MAXX=4000.7
##MINX=549.759
##MAXY=0.168562
##MINY=0
##NPOINTS=1790
##XYDATA=(X++(Y..Y))
549.759 10.9115 10.3715 9.3215 9.4315 9.7715 9.3815 9.3715 9.4615 9.3115 9.3015
569.049 9.5415 9.5215 9.0215 8.7615 8.8015 9.1815 9.0915 8.6415 8.5115 8.5215
588.339 8.7615 8.8915 8.8515 8.3415 8.3715 8.5215 8.4615 8.5515 8.5715 8.4315
607.628 8.2815 8.2915 8.1115 8.1215 8.2815 8.3915 8.2615 8.3415 8.1415 7.9015
626.918 8.1215 7.7715 7.7615 7.9115 7.9915 8.1515 8.0415 8.0215 8.0215 8.2415
646.208 8.6815 9.2915 9.3015 9.3015 9.8615 10.5215 10.8015 10.8115 11.2815 12.1015
665.498 12.5115 12.6915 13.3115 13.9315 14.8215 16.2515 17.9615 20.4115 24.0215 28.1015
684.787 32.1115 35.5815 37.6715 38.0815 36.3115 33.1515 29.8715 26.4715 23.3315 20.9315
704.077 19.1615 17.5115 16.4315 16.2815 15.8715 15.3215 15.3215 15.4515 15.3615 15.3915
723.367 15.6015 15.7815 16.5615 17.9715 19.6915 22.4715 26.4815 31.6315 37.1915 42.5415
742.657 47.9315 52.1315 54.3615 53.6315 49.4415 43.7715 37.5815 31.4815 26.3915 22.3915
761.947 19.0915 16.6115 14.9415 13.6815 12.8615 12.4115 12.2315 11.9215 11.6215 11.4115
781.236 11.0615 10.7515 10.4015 9.8915 9.2815 8.9615 8.9215 8.7715 8.4715 8.5615
800.526 8.6115 8.4815 8.4615 8.5915 8.7615 8.9115 8.8615 8.7915 9.1115 9.0415
819.816 8.6515 8.5815 8.5915 8.6015 8.6315 8.6415 8.5915 8.6315 9.0415 9.4315
839.106 9.7215 10.1715 10.2615 10.2715 10.3915 10.3415 10.3515 10.3515 10.5415 10.8415
858.395 10.9115 10.9915 11.1315 11.5215 11.8315 11.7515 11.3515 11.0115 10.2615 9.5315
877.685 9.3915 9.1415 8.7515 8.4315 8.2715 8.1915 8.3615 8.5615 8.8515 8.8815
896.975 8.9815 9.5715 9.9315 10.2715 10.8715 11.0715 11.2215 11.7315 12.4415 13.2015
916.265 13.7815 14.1215 14.4715 14.8715 15.0015 14.8915 14.8615 14.9915 14.7115 14.2815
935.555 14.0015 13.6515 13.4815 13.3415 12.7715 12.4415 12.3615 12.1215 11.9715 11.7315
954.844 11.6015 11.6315 11.3615 11.1015 11.0315 10.9115 10.7615 10.5715 10.4615 10.6915
974.134 11.3815 11.7915 12.0515 12.6015 13.2615 14.4615 15.8915 17.5715 19.6515 21.2815
993.424 22.7215 24.3515 25.7215 26.6715 27.2615 27.9515 29.0115 30.0915 31.1315 32.6715
1012.714 34.2815 35.7615 36.8515 37.9215 39.5815 41.2915 43.4115 45.2515 46.8515 48.8415
1032.003 50.7815 52.9615 56.2315 60.3515 65.8015 72.1515 79.1915 87.0615 94.8015 103.272
1051.293 111.682 120.391 129.512 138.402 147.232 154.632 160.372 165.282 168.302 168.562
1070.583 167.352 165.862 162.682 157.462 151.612 146.492 141.412 135.872 129.972 124.721
1089.873 121.721 118.602 114.942 110.992 108.182 107.081 105.732 105.622 106.031 105.652
1109.163 105.831 108.462 113.641 119.242 125.092 131.182 137.002 143.012 148.762 152.422
1128.452 155.152 155.842 153.802 150.572 144.552 137.112 129.962 121.272 112.641 104.632
1147.742 96.3115 89.2815 83.5015 78.7815 74.2715 69.5115 64.8115 60.7515 57.7115 55.0715
1167.032 52.9715 50.8715 49.0215 48.4715 48.1715 46.9515 45.6915 44.4015 42.4815 39.7415
1186.322 36.3415 34.2715 31.9715 29.2115 27.6215 25.8715 24.0915 22.7915 22.0915 21.4815
1205.611 21.0215 20.6415 19.6315 19.0415 19.5415 20.0915 19.9415 19.8815 20.7615 21.8315
1224.901 23.2515 24.7615 26.4715 29.3515 31.8515 34.4215 38.0115 41.5715 45.5115 50.2615
1244.191 55.1115 59.1815 62.3115 64.6615 65.4215 64.2815 61.8615 58.1115 53.5715 49.1115
1263.481 45.0515 41.6215 39.0615 36.6115 34.4915 32.9015 31.3315 29.7515 28.2615 27.4615
1282.771 27.2915 27.4615 28.4715 29.6715 30.9315 32.6815 34.7915 37.3915 40.1315 42.8115
1302.060 45.4615 48.1215 50.5015 52.5315 54.1415 55.0215 55.0115 54.0715 52.3815 49.9015
1321.350 46.8315 43.6815 40.6915 38.2015 36.2315 34.7815 33.9615 33.4615 33.1415 33.1915
1340.640 33.4715 33.8715 34.3015 34.5615 34.6715 34.5715 34.2215 33.6215 32.8315 31.6915
1359.930 30.5715 29.8115 29.4715 29.8715 31.2715 33.6815 36.6415 39.4515 41.6315 42.8415
1379.219 42.6615 40.9315 38.0215 34.7015 31.5615 28.8615 26.6715 24.8315 23.2215 21.8615
1398.509 20.6715 19.6215 18.7715 17.9915 17.3515 16.9015 16.5115 16.1315 15.9415 15.9215
1417.799 16.1115 16.6315 17.3915 18.4415 19.7315 21.1815 22.5115 23.4515 23.9315 23.7915
1437.089 23.1315 22.0415 20.9115 20.0415 19.5515 19.4915 19.7915 20.3115 21.0815 22.0215
1456.378 23.0415 24.3115 25.4915 26.5215 27.3315 27.7815 27.9715 28.0515 28.2915 28.8515
1475.668 29.7315 31.0715 32.7515 34.8415 37.5115 40.8215 45.3015 51.4415 59.7515 70.6615
1494.958 84.3015 100.372 116.942 131.352 140.642 142.862 137.552 125.891 109.842 91.6115
1514.248 74.3415 59.8415 48.5815 40.2615 33.8815 29.3215 25.9615 23.3715 21.2415 19.4615
1533.538 18.0415 16.8815 16.0515 15.3715 14.7215 14.3315 14.0715 13.8515 13.9815 14.0915
1552.827 13.9015 13.8215 13.7915 13.6415 13.5815 13.5115 13.4915 13.6415 13.9715 14.5115
1572.117 15.3715 16.6615 18.3215 20.5515 23.5215 27.2715 32.0615 38.1515 45.5715 54.7415
1591.407 65.7815 78.3615 91.8815 105.391 117.022 124.442 126.391 122.382 113.081 99.8215
1610.697 84.6215 69.6115 56.7015 46.4115 38.5115 32.3815 27.1715 22.7915 19.2015 16.2815
1629.986 14.0815 12.5215 11.1615 10.0015 9.1015 8.3315 7.7715 7.3415 6.9115 6.5315
1649.276 6.2615 5.9215 5.6315 5.5515 5.5715 5.5615 5.4315 5.2415 5.1915 5.2215
1668.566 5.1815 5.2215 5.2115 5.0815 4.9515 4.9215 4.8315 4.7215 4.6315 4.4915
1687.856 4.4015 4.2515 4.1315 4.0615 3.9715 3.9515 3.8215 3.6715 3.5615 3.5415
1707.146 3.5815 3.4715 3.4715 3.4815 3.3915 3.3815 3.3615 3.3115 3.3315 3.4015
1726.435 3.3915 3.2515 3.1715 3.3015 3.3115 3.2715 3.3715 3.4215 3.4915 3.5715
1745.725 3.6615 3.8115 3.9615 4.0715 4.0415 3.9915 3.8815 3.7515 3.6115 3.4815
1765.015 3.3715 3.1815 3.0315 3.0215 2.9715 2.8915 2.8415 2.8915 2.8715 2.7815
1784.305 2.8015 2.7615 2.7115 2.7015 2.6715 2.6115 2.6115 2.6715 2.7315 2.8615
1803.594 2.9215 2.9415 3.1115 3.3115 3.4015 3.4315 3.4615 3.4515 3.4215 3.4515
1822.884 3.4115 3.3115 3.3115 3.2615 3.1415 3.1715 3.1215 2.9015 2.7415 2.7015
1842.174 2.6515 2.5815 2.5315 2.4015 2.3415 2.3515 2.3315 2.3115 2.3515 2.3815
1861.464 2.3615 2.4015 2.4415 2.3815 2.3815 2.4815 2.5815 2.5815 2.6115 2.6615
1880.754 2.6315 2.7215 2.8215 2.9715 3.1615 3.3015 3.4215 3.6515 3.8615 4.0015
1900.043 4.2515 4.5815 4.8415 5.0115 5.1315 5.2115 5.2415 5.1915 4.9715 4.7515
1919.333 4.6515 4.6215 4.6515 4.6115 4.5315 4.4515 4.2715 4.0215 3.7815 3.5815
1938.623 3.3115 3.1615 3.1115 3.0215 3.0315 3.0815 3.0115 2.9515 2.9615 2.8815
1957.913 2.9015 2.9615 2.9415 2.9415 2.9515 2.9415 2.8715 2.8715 2.8515 2.7415
1977.202 2.6615 2.7015 2.7115 2.6815 2.6815 2.7215 2.7415 2.6715 2.6715 2.6115
1996.492 2.4915 2.4015 2.3115 2.3215 2.2815 2.2115 2.1715 2.1615 2.2115 2.1215
2015.782 2.0915 2.0615 2.0415 2.1615 2.1615 2.1315 2.1415 2.1415 2.1115 1.9315
2035.072 1.8215 1.8115 1.8315 1.9015 1.8315 1.8015 1.8115 1.8315 1.8215 1.7615
2054.362 1.7615 1.7315 1.7115 1.6515 1.6315 1.6515 1.6415 1.6615 1.6615 1.6915
2073.651 1.6315 1.5615 1.5815 1.5415 1.6115 1.6615 1.6515 1.7015 1.7315 1.8015
2092.941 1.7415 1.5815 1.6215 1.7215 1.7815 1.7315 1.6915 1.7015 1.6715 1.6815
2112.231 1.6615 1.5515 1.5415 1.5915 1.6415 1.6715 1.6915 1.6815 1.6115 1.6615
2131.521 1.8015 1.7815 1.6715 1.6515 1.6915 1.6815 1.5815 1.6215 1.7115 1.6815
2150.810 1.7615 1.7115 1.7215 1.8515 1.7415 1.7315 1.6815 1.6415 1.7715 1.7415
2170.100 1.7615 1.8215 1.7315 1.6515 1.6215 1.7115 1.7815 1.7115 1.6715 1.6715
2189.390 1.7715 1.7315 1.6615 1.7015 1.6515 1.6115 1.6615 1.6215 1.5415 1.4815
2208.680 1.4315 1.5015 1.5615 1.4515 1.3815 1.3415 1.2815 1.4015 1.4315 1.4015
2227.970 1.4615 1.4515 1.3815 1.3815 1.3415 1.3415 1.4215 1.4415 1.4015 1.4115
2247.259 1.3415 1.3615 1.4715 1.4915 1.5415 1.4315 1.3415 1.4115 1.3515 1.2815
2266.549 1.2415 1.2315 1.4215 1.4815 1.3915 1.4315 1.4315 1.3515 1.4415 1.6115
2285.839 1.6115 1.5515 1.5915 1.5415 1.5015 1.5415 1.4815 1.4715 1.4615 1.4715
2305.129 1.5015 1.5115 1.4815 1.4115 1.4115 1.3615 1.3515 1.2715 1.2715 1.2515
2324.418 1.1315 1.1715 1.2515 1.2815 1.2715 1.2015 1.2515 1.3515 1.3115 1.2815
2343.708 1.2815 1.2915 1.2715 1.2615 1.3015 1.4015 1.4115 1.3715 1.3515 1.3215
2362.998 1.3615 1.2615 1.2715 1.4115 1.4015 1.3015 1.2215 1.3315 1.4115 1.4215
2382.288 1.5115 1.5215 1.4615 1.5215 1.5215 1.5315 1.5615 1.4815 1.4915 1.4815
2401.578 1.5015 1.5515 1.5515 1.5615 1.4515 1.4215 1.4215 1.3915 1.3215 1.2715
2420.867 1.2915 1.3015 1.4315 1.4115 1.3415 1.4315 1.4515 1.3215 1.2215 1.2515
2440.157 1.2815 1.1815 1.2615 1.3915 1.3415 1.2715 1.2315 1.2115 1.1615 1.2615
2459.447 1.2615 1.0715 1.1215 1.2015 1.0715 1.0715 1.0815 1.1015 1.2015 1.2415
2478.737 1.2915 1.2015 1.1615 1.3215 1.3215 1.2415 1.2915 1.3015 1.3315 1.3815
2498.026 1.3815 1.4115 1.4215 1.3615 1.1915 1.1815 1.3115 1.2915 1.2915 1.2715
2517.316 1.2315 1.2115 1.2415 1.3315 1.3615 1.3615 1.4015 1.4915 1.4115 1.3915
2536.606 1.5015 1.6515 1.6915 1.7815 1.9615 1.9315 1.9115 1.9715 2.0815 2.1115
2555.896 2.0615 2.1715 2.3515 2.3915 2.3415 2.4015 2.4615 2.4515 2.3815 2.2815
2575.186 2.4015 2.4415 2.3415 2.3515 2.3615 2.2115 2.1115 2.1815 2.2615 2.1715
2594.475 2.1915 2.3015 2.2815 2.2315 2.3015 2.3415 2.4015 2.5315 2.5315 2.5015
2613.765 2.4215 2.5315 2.5715 2.4515 2.5115 2.6715 2.7615 2.6515 2.6815 2.7615
2633.055 2.8215 2.8715 2.7415 2.8215 2.9015 2.8315 2.8415 2.8715 2.9415 3.0215
2652.345 3.0215 3.0315 2.9715 2.9215 2.9915 2.9915 3.0115 3.1415 3.2015 3.1715
2671.634 3.1315 3.1215 3.1915 3.1615 3.0315 3.0215 3.0315 3.1515 3.2415 3.3115
2690.924 3.3615 3.2315 3.1415 3.2215 3.2515 3.2115 3.2215 3.2815 3.3915 3.4315
2710.214 3.5015 3.5515 3.4115 3.4415 3.6115 3.6715 3.8515 3.9115 4.0015 4.1415
2729.504 4.0715 4.1015 4.2815 4.4515 4.5715 4.7215 4.7915 4.8715 5.0015 5.1615
2748.794 5.3315 5.3615 5.4415 5.6015 5.7815 5.8315 5.8215 5.8515 6.0215 6.2615
2768.083 6.4315 6.4815 6.5115 6.6615 6.7315 6.7615 6.8315 6.8815 7.0815 7.3515
2787.373 7.5415 7.7215 7.9115 8.0915 8.3315 8.5215 8.5615 8.7415 9.0515 9.1815
2806.663 9.4915 9.7115 9.7215 10.0715 10.4415 10.6315 10.9915 11.4815 11.8515 12.4115
2825.953 13.0115 13.4715 14.0715 14.8015 15.6015 16.4615 17.4315 18.5015 19.6715 21.1015
2845.242 22.4615 23.9515 25.6415 27.1515 29.0015 31.0315 33.2315 35.4915 37.7115 39.8615
2864.532 42.0615 44.5715 46.9315 49.2515 51.4815 53.4315 55.0915 56.5115 57.5115 57.9515
2883.822 57.9715 57.4915 56.8515 56.0315 55.0815 54.2615 53.8415 53.6215 53.4815 53.8815
2903.112 54.4715 55.0815 55.9815 57.0415 57.8915 58.6615 59.2915 59.6915 59.7915 59.6715
2922.401 59.4215 59.2115 59.3715 60.0015 60.9815 62.2015 63.7715 65.2915 66.3115 66.4815
2941.691 65.5915 63.9015 61.7215 59.0215 56.1015 53.3515 51.1815 49.6015 48.4515 48.0015
2960.981 48.3115 49.1415 50.4515 52.6515 55.7615 59.7515 64.1815 69.2115 74.8015 80.1015
2980.271 84.3315 86.4115 85.4915 81.6115 75.1515 67.0015 58.5615 50.5015 43.5315 38.0615
2999.561 34.2015 31.4715 29.5015 28.1915 27.2815 26.6415 26.4415 26.6315 27.1415 27.7815
3018.850 28.4315 29.1315 29.6115 29.9115 29.7315 29.2515 28.3015 26.7915 25.1715 23.6915
3038.140 22.4815 21.7715 21.8815 22.4515 23.2815 24.8915 27.0215 29.1215 31.2115 33.1215
3057.430 34.5115 34.8415 34.1215 32.6215 30.3615 27.9015 25.4115 23.1515 21.4915 20.3715
3076.720 19.7215 19.4815 19.3915 19.2515 19.2315 19.0015 18.3915 17.5615 16.6115 15.4915
3096.009 14.2015 13.0915 12.2015 11.5315 10.7915 9.8715 9.0515 8.2615 7.7715 7.3215
3115.299 6.5715 5.9915 5.4915 4.9115 4.5215 4.0915 3.6715 3.4215 3.1415 2.7515
3134.589 2.5915 2.6015 2.4615 2.2815 2.1315 2.1315 1.9915 1.7915 1.8515 1.8115
3153.879 1.7915 1.6615 1.7715 1.8815 1.6615 1.6615 1.5315 1.3715 1.4615 1.5815
3173.169 1.6715 1.6915 1.6815 1.5515 1.3415 1.4415 1.6715 1.5715 1.5015 1.6515
3192.458 1.6515 1.6315 1.7115 1.6315 1.5015 1.5415 1.6215 1.5515 1.4715 1.4115
3211.748 1.2315 1.0615 1.0915 1.1815 1.0815 1.1315 1.0915 1.0915 1.1315 0.9487
3231.038 0.8765 0.8243 0.7624 0.7136 0.7999 0.8911 0.6769 0.6826 0.8837 0.7974
3250.328 0.5562 0.4117 0.4842 0.6493 0.6359 0.454 0.4797 0.5428 0.5553 0.4377
3269.617 0.3988 0.4965 0.5454 0.497 0.5935 0.6745 0.7213 0.7779 0.722 0.7458
3288.907 0.6261 0.5774 0.5661 0.4756 0.4366 0.3711 0.2646 0.3892 0.4885 0.4682
3308.197 0.4324 0.258 0.4331 0.6685 0.644 0.6232 0.5147 0.4442 0.2977 0.2604
3327.487 0.4989 0.4222 0.4093 0.5944 0.6239 0.6024 0.5619 0.6278 0.8374 0.8815
3346.777 0.74 0.6813 0.6699 0.5918 0.5521 0.6906 0.7946 0.8413 0.8421 0.9019
3366.066 1.1115 1.2815 1.2515 1.1715 1.2715 1.4615 1.4815 1.5915 1.9215 2.0915
3385.356 2.1615 2.3215 2.4815 2.6915 2.9615 3.2615 3.6415 3.9915 4.1715 4.4915
3404.646 5.2615 5.9915 6.6015 7.2815 8.2615 9.1815 9.9415 10.4215 10.7215 11.0915
3423.936 10.9815 10.7615 10.8215 10.6115 10.0415 9.3015 8.7915 8.6215 8.2615 7.8615
3443.225 7.5015 7.1715 6.8815 6.6615 6.3915 5.8515 5.5615 5.4315 5.0915 4.6315
3462.515 4.2515 4.0215 3.6815 3.3715 3.1415 2.9415 2.7815 2.5515 2.4815 2.5715
3481.805 2.2915 1.9315 1.8315 1.6115 1.4215 1.4115 1.2715 1.1515 1.1915 1.2515
3501.095 1.2215 1.2215 1.0415 0.8443 0.9327 0.9484 0.8219 0.8598 0.9163 0.9202
3520.385 0.8286 0.7278 0.572 0.3653 0.5314 0.7683 0.7159 0.6031 0.5749 0.5173
3539.674 0.6154 0.6639 0.5234 0.3926 0.4165 0.4304 0.556 0.5417 0.3377 0.4126
3558.964 0.5343 0.6603 0.5713 0.4065 0.3518 0.3877 0.521 0.4895 0.5722 0.5403
3578.254 0.3638 0.349 0.2808 0.3759 0.465 0.1384 0 0.09644 0.2896 0.5534
3597.544 0.5773 0.5037 0.5753 0.3181 0.206 0.4538 0.4485 0.4137 0.3032 0.2766
3616.833 0.2587 0.2777 0.3013 0.3142 0.3799 0.4691 0.6165 0.7789 0.712 0.3806
3636.123 0.1951 0.44 0.5533 0.5364 0.5305 0.5209 0.5739 0.6276 0.6669 0.4209
3655.413 0.4207 0.6303 0.6261 0.5663 0.6773 0.754 0.5408 0.4536 0.4032 0.3574
3674.703 0.4526 0.3407 0.2231 0.4044 0.633 0.5752 0.5132 0.6385 0.7266 0.6468
3693.993 0.627 0.6649 0.4747 0.3433 0.1712 0.1547 0.5241 0.6241 0.6443 0.594
3713.282 0.5031 0.6206 0.7176 0.6745 0.5197 0.5482 0.5351 0.481 0.5529 0.6313
3732.572 0.6849 0.6954 0.8621 0.7939 0.5424 0.3642 0.1943 0.2885 0.3616 0.3613
3751.862 0.3564 0.5095 0.4802 0.3167 0.2755 0.2919 0.3104 0.2285 0.3217 0.4748
3771.152 0.4849 0.4317 0.5258 0.579 0.3744 0.2394 0.1333 0.08527 0.08157 0.3479
3790.441 0.6586 0.3338 0.1419 0.2401 0.3682 0.4518 0.3009 0.2723 0.1885 0.1827
3809.731 0.2728 0.193 0.2316 0.18 0.3008 0.4175 0.4255 0.4288 0.3893 0.4024
3829.021 0.4213 0.4054 0.3626 0.4223 0.3143 0.196 0.284 0.2784 0.2142 0.3437
3848.311 0.4109 0.338 0.3943 0.4713 0.3498 0.308 0.3677 0.2698 0.2547 0.4613
3867.601 0.4615 0.4106 0.4831 0.4528 0.6742 0.6977 0.4407 0.4069 0.4196 0.4561
3886.890 0.3963 0.3066 0.3558 0.4357 0.5682 0.549 0.4496 0.3884 0.4189 0.5516
3906.180 0.3901 0.3288 0.5403 0.5103 0.5456 0.6016 0.5454 0.5573 0.5434 0.4976
3925.470 0.3542 0.4544 0.5096 0.5498 0.6159 0.8162 0.8812 0.532 0.2805 0.2956
3944.760 0.3932 0.3604 0.4825 0.7294 0.7241 0.8282 1.0615 0.872 0.7034 0.6716
3964.049 0.6095 0.6926 0.7543 0.7444 0.9941 1.1415 0.9145 0.9959 0.9646 0.953
3983.339 1.2815 1.1415 1.1415 1.1815 0.9462 1.0037 1.2715 1.3415 1.1815 0.9947
##END=
