##TITLE=2-Hydroxy-1-naphthoic acid
##JCAMP-DX=4.24
##DATA TYPE=INFRARED SPECTRUM
##ORIGIN=EPA-IR VAPOR PHASE LIBRARY
##OWNER=SRD/NIST
Collection (C) 2018 copyright by the U.S. Secretary of Commerce
on behalf of the United States of America. All rights reserved.
##CAS REGISTRY NO=2283-08-1
##MOLFORM=C 11 H 8 O 3
##$NIST SOURCE=MSDC-IR
##STATE=gas
##XUNITS=1/CM
##YUNITS=ABSORBANCE
##XFACTOR=1.
##YFACTOR=0.001
##DELTAX=1.92934
##FIRSTX=549.9
##LASTX=3999.5
##FIRSTY=1.912
##MAXX=3999.53
##MINX=549.863
##MAXY=0.033762
##MINY=0
##NPOINTS=1789
##XYDATA=(X++(Y..Y))
549.863 1.912 1.802 1.712 1.672 1.702 1.6414 1.6442 1.652 1.6322 1.607
569.156 1.5541 1.5508 1.5588 1.5492 1.5962 1.574 1.5871 1.6505 1.5489 1.545
588.450 1.5226 1.3654 1.3498 1.4166 1.44 1.4721 1.4552 1.433 1.5159 1.6372
607.743 1.822 2.102 2.482 2.822 3.112 3.302 3.362 3.332 3.312 3.422
627.037 3.382 3.062 2.622 2.252 2.062 1.892 1.672 1.5059 1.4883 1.4846
646.330 1.3204 1.2153 1.1343 1.1353 1.2024 1.092 0.9754 0.9807 1.0239 1.0133
665.624 0.9474 0.9198 0.9515 1.0006 1.0174 0.9873 0.9956 1.0172 0.9656 0.8944
684.917 0.9165 0.9774 0.9984 1.0707 1.1472 1.23 1.3158 1.3684 1.4949 1.712
704.210 2.062 2.542 3.102 3.532 3.812 4.072 4.332 4.632 5.082 5.682
723.504 6.092 6.252 6.422 6.732 7.292 8.002 8.802 9.992 11.292 11.952
742.797 11.282 9.352 8.062 7.632 7.142 6.522 5.712 4.862 4.082 3.362
762.091 2.822 2.472 2.142 1.892 1.762 1.742 1.792 1.952 2.192 2.452
781.384 2.762 3.182 3.622 4.072 4.572 5.082 5.752 6.472 6.782 6.672
800.678 6.552 6.652 6.662 6.232 5.732 5.442 5.442 5.632 5.802 6.092
819.971 6.512 7.042 7.642 8.282 9.062 10.012 11.342 12.782 12.922 11.802
839.264 10.832 10.432 10.502 10.212 8.992 7.712 6.862 6.162 5.522 4.922
858.558 4.422 4.102 3.912 3.772 3.632 3.652 3.722 3.522 3.102 2.782
877.851 2.622 2.512 2.402 2.332 2.372 2.552 2.942 3.482 3.972 4.272
897.145 4.352 4.422 4.432 4.432 4.522 4.282 3.752 3.152 2.662 2.362
916.438 2.142 2.062 2.102 2.072 1.992 1.912 1.852 1.812 1.802 1.772
935.732 1.762 1.762 1.762 1.782 1.902 2.112 2.472 3.092 3.822 4.422
955.025 4.672 4.522 4.462 4.462 4.252 4.162 3.862 3.162 2.362 1.802
974.318 1.4371 1.2194 1.0884 0.9972 0.9864 0.9883 0.9773 0.9667 0.9643 0.9712
993.612 0.9664 0.9412 0.9399 0.9373 0.9666 1.06 1.1635 1.2738 1.4139 1.5309
1012.905 1.5635 1.56 1.5641 1.5432 1.5376 1.5408 1.4196 1.2489 1.1324 1.0582
1032.199 0.9755 0.9385 0.9568 0.9367 0.9362 0.9271 0.9665 1.0037 0.9808 0.9844
1051.492 1.0034 1.0388 1.0565 1.0444 1.0344 1.0871 1.1372 1.1617 1.1743 1.1862
1070.786 1.2341 1.2951 1.3389 1.3518 1.3746 1.4094 1.4454 1.5003 1.5735 1.662
1090.079 1.732 1.832 1.942 2.002 2.082 2.252 2.472 2.822 3.392 4.262
1109.372 5.572 7.152 8.692 9.782 10.512 11.502 12.132 12.542 13.042 12.682
1128.666 11.612 10.342 9.412 9.002 8.882 8.922 9.032 9.292 9.712 10.312
1147.959 11.072 12.022 13.242 14.942 17.342 20.202 22.982 25.082 26.622 28.392
1167.253 29.892 30.912 32.342 33.452 33.762 33.732 33.292 32.112 30.742 29.392
1186.546 27.922 26.962 25.562 22.912 19.832 17.172 15.212 13.972 13.292 12.932
1205.840 12.962 13.032 12.662 11.942 11.192 10.472 9.722 9.002 8.262 7.322
1225.133 6.202 5.142 4.422 4.032 3.922 4.022 4.172 4.352 4.682 5.182
1244.426 5.852 6.712 7.652 8.522 9.282 10.022 10.882 11.792 12.572 13.282
1263.720 13.792 13.922 13.812 13.372 12.552 11.622 10.652 9.742 8.912 7.702
1283.013 6.102 4.682 3.652 3.022 2.632 2.262 1.872 1.5544 1.3505 1.2367
1302.307 1.1893 1.2039 1.2413 1.238 1.2356 1.3157 1.4375 1.5233 1.5896 1.722
1321.600 1.852 1.902 2.002 2.092 2.152 2.242 2.312 2.342 2.412 2.462
1340.894 2.542 2.642 2.712 2.862 3.082 3.412 3.792 4.092 4.342 4.542
1360.187 4.722 5.012 5.442 5.942 6.572 7.112 7.422 7.632 7.802 7.962
1379.480 8.092 8.162 8.052 7.672 7.022 6.252 5.432 4.652 3.942 3.362
1398.774 2.932 2.522 2.122 1.792 1.5925 1.4955 1.4533 1.4247 1.4038 1.4279
1418.067 1.4393 1.4508 1.5334 1.5995 1.6308 1.692 1.772 1.822 1.932 2.132
1437.361 2.482 2.942 3.442 3.882 4.262 4.542 4.762 5.092 5.442 5.842
1456.654 6.232 6.482 6.682 6.772 6.772 6.822 6.802 6.712 6.582 6.362
1475.948 6.052 5.592 5.012 4.422 4.062 3.932 3.922 3.992 4.022 4.002
1495.241 4.162 4.622 5.322 6.232 7.302 8.382 9.502 10.482 11.162 11.612
1514.534 11.782 11.642 11.152 10.212 8.822 7.402 6.022 4.872 3.892 3.042
1533.828 2.442 2.072 1.842 1.732 1.712 1.682 1.584 1.5028 1.4586 1.4515
1553.121 1.4429 1.4845 1.652 1.752 1.912 2.172 2.432 2.742 3.102 3.512
1572.415 3.952 4.352 4.802 5.242 5.592 5.892 6.202 6.542 6.952 7.502
1591.708 8.172 8.862 9.542 10.142 10.612 10.932 11.052 11.062 11.022 10.892
1611.002 10.662 10.472 10.382 10.572 11.182 12.102 13.182 14.252 15.162 15.772
1630.295 15.992 15.822 15.242 14.252 13.022 11.622 10.112 8.652 7.242 6.092
1649.588 5.282 4.772 4.402 4.142 3.912 3.742 3.702 3.722 3.792 3.812
1668.882 3.792 3.812 3.772 3.662 3.562 3.352 3.142 2.992 2.812 2.612
1688.175 2.422 2.232 2.032 1.842 1.682 1.5762 1.4716 1.3818 1.3106 1.2547
1707.469 1.2236 1.1826 1.1656 1.1648 1.1695 1.1157 1.1082 1.1629 1.1533 1.1597
1726.762 1.1564 1.1054 1.0953 1.0943 1.0874 1.0953 1.1076 1.1156 1.1 1.1036
1746.056 1.0983 1.0557 1.0192 0.9962 1.0288 1.0268 0.9753 0.9753 0.9986 1.0281
1765.349 1.0319 1.0082 1.053 1.1145 1.1067 1.1028 1.0465 0.9782 0.9799 0.9446
1784.642 0.9225 0.9259 0.8797 0.8589 0.8531 0.8886 0.9117 0.9193 0.9309 0.9285
1803.936 0.964 0.983 0.9964 1.0214 1.0471 1.0579 1.0208 0.9895 1.0157 1.015
1823.229 1.0318 1.0195 0.9785 0.9886 0.9589 0.9227 0.9201 0.8756 0.8657 0.8378
1842.523 0.72554 0.69441 0.69163 0.67723 0.67114 0.67305 0.66651 0.68111 0.74119 0.7756
1861.816 0.7777 0.8253 0.8432 0.8488 0.9314 0.9882 1.0165 1.0833 1.159 1.1937
1881.110 1.2961 1.3423 1.3527 1.4216 1.4116 1.4279 1.4371 1.4039 1.3929 1.3826
1900.403 1.3929 1.357 1.2797 1.2372 1.2369 1.2372 1.2277 1.2269 1.2289 1.2064
1919.696 1.1698 1.1511 1.1728 1.202 1.2188 1.248 1.2712 1.2569 1.1985 1.1592
1938.990 1.1007 1.0326 0.9666 0.8925 0.8004 0.6983 0.5998 0.532 0.538 0.514
1958.283 0.508 0.549 0.5541 0.528 0.531 0.534 0.545 0.5633 0.549 0.5715
1977.577 0.5806 0.5744 0.5853 0.5729 0.5572 0.5803 0.5655 0.524 0.504 0.495
1996.870 0.523 0.513 0.498 0.502 0.508 0.525 0.522 0.53 0.541 0.522
2016.164 0.523 0.546 0.5632 0.5687 0.532 0.495 0.523 0.532 0.527 0.5676
2035.457 0.5672 0.5748 0.5788 0.5592 0.5579 0.529 0.541 0.5685 0.58 0.5916
2054.750 0.5761 0.6084 0.64256 0.64794 0.655193 0.6325 0.6433 0.67283 0.661826 0.658889
2074.044 0.67001 0.68922 0.70461 0.6863 0.66604 0.653006 0.6331 0.653362 0.67904 0.655323
2093.337 0.6282 0.5927 0.5863 0.5976 0.574 0.544 0.524 0.523 0.55 0.521
2112.631 0.503 0.516 0.521 0.547 0.55 0.54 0.529 0.537 0.5545 0.5586
2131.924 0.5531 0.5707 0.5846 0.591 0.5779 0.5843 0.5974 0.5829 0.5824 0.5702
2151.218 0.5626 0.5553 0.5753 0.5874 0.5876 0.6169 0.6078 0.6053 0.6163 0.5889
2170.511 0.5584 0.5702 0.6065 0.6068 0.6056 0.6312 0.608 0.5621 0.538 0.535
2189.804 0.546 0.53 0.508 0.52 0.534 0.522 0.515 0.545 0.537 0.469
2209.098 0.453 0.47 0.473 0.48 0.508 0.499 0.495 0.498 0.472 0.487
2228.391 0.513 0.531 0.546 0.541 0.506 0.481 0.481 0.518 0.507 0.47
2247.685 0.506 0.523 0.504 0.522 0.55 0.5605 0.543 0.546 0.5636 0.598
2266.978 0.65675 0.6503 0.6159 0.64694 0.67418 0.6335 0.6284 0.64286 0.6075 0.6178
2286.272 0.67292 0.6355 0.5832 0.6136 0.601 0.6229 0.656742 0.6255 0.6071 0.6364
2305.565 0.67138 0.64933 0.66662 0.66432 0.659105 0.6907 0.68091 0.66762 0.68416 0.71463
2324.858 0.72765 0.7621 0.7684 0.74195 0.7601 0.7806 0.7815 0.7683 0.7627 0.7695
2344.152 0.7614 0.74846 0.7583 0.7851 0.7975 0.7736 0.74745 0.72194 0.69702 0.66971
2363.445 0.6402 0.6145 0.64376 0.68195 0.67936 0.659153 0.66376 0.67516 0.64689 0.66566
2382.739 0.69632 0.72161 0.7682 0.7603 0.7595 0.7568 0.74224 0.7729 0.774 0.7659
2402.032 0.7674 0.7754 0.7793 0.7629 0.74059 0.69878 0.68064 0.70266 0.7541 0.767
2421.326 0.72677 0.69439 0.6784 0.68863 0.71748 0.75081 0.7655 0.761 0.7627 0.73211
2440.619 0.67584 0.68851 0.70802 0.67142 0.68774 0.69875 0.68339 0.71135 0.73464 0.71266
2459.912 0.7188 0.7654 0.7701 0.74903 0.71966 0.70071 0.70503 0.69539 0.66435 0.64307
2479.206 0.64708 0.67297 0.66593 0.6288 0.6184 0.6308 0.6269 0.6371 0.64963 0.6395
2498.499 0.6196 0.5954 0.6039 0.6341 0.6477 0.6403 0.6365 0.642 0.6354 0.6039
2517.793 0.5952 0.6173 0.6064 0.5814 0.5617 0.5598 0.5814 0.5918 0.5969 0.59
2537.086 0.6113 0.6124 0.5892 0.5806 0.5693 0.6169 0.6256 0.5905 0.586 0.5718
2556.380 0.5697 0.5819 0.59 0.6032 0.6178 0.6158 0.6142 0.614 0.6274 0.6131
2575.673 0.5668 0.5722 0.5919 0.5737 0.511 0.499 0.528 0.513 0.53 0.527
2594.966 0.486 0.521 0.545 0.497 0.467 0.489 0.483 0.495 0.522 0.473
2614.260 0.485 0.516 0.52 0.536 0.5 0.473 0.513 0.5736 0.6026 0.6192
2633.553 0.6139 0.6233 0.6318 0.6237 0.5772 0.539 0.5843 0.655074 0.64786 0.5768
2652.847 0.541 0.54 0.5728 0.518 0.443 0.452 0.446 0.438 0.478 0.459
2672.140 0.403 0.438 0.472 0.462 0.444 0.437 0.441 0.418 0.379 0.411
2691.434 0.437 0.429 0.453 0.469 0.433 0.365 0.379 0.482 0.512 0.484
2710.727 0.486 0.502 0.497 0.474 0.449 0.474 0.49 0.463 0.48 0.477
2730.020 0.482 0.537 0.5686 0.531 0.5531 0.536 0.501 0.513 0.521 0.536
2749.314 0.536 0.515 0.495 0.48 0.501 0.523 0.498 0.491 0.466 0.485
2768.607 0.531 0.493 0.461 0.435 0.407 0.43 0.481 0.487 0.45 0.461
2787.901 0.457 0.489 0.545 0.508 0.459 0.479 0.475 0.438 0.426 0.409
2807.194 0.437 0.48 0.473 0.456 0.44 0.434 0.481 0.534 0.549 0.492
2826.488 0.465 0.509 0.506 0.454 0.373 0.381 0.455 0.533 0.537 0.428
2845.781 0.393 0.433 0.417 0.385 0.391 0.387 0.381 0.403 0.388 0.384
2865.074 0.442 0.435 0.434 0.463 0.384 0.395 0.485 0.482 0.441 0.406
2884.368 0.461 0.443 0.419 0.505 0.551 0.512 0.412 0.44 0.46 0.385
2903.661 0.436 0.448 0.476 0.516 0.443 0.433 0.48 0.522 0.525 0.469
2922.955 0.481 0.548 0.5608 0.5622 0.5659 0.6405 0.652058 0.652175 0.71547 0.70382
2942.248 0.64437 0.71753 0.8087 0.8347 0.9172 0.9759 0.9938 0.9999 1.1206 1.199
2961.542 1.1729 1.197 1.1977 1.2979 1.4274 1.3658 1.2933 1.3936 1.4657 1.4205
2980.835 1.4551 1.4887 1.5085 1.571 1.584 1.6419 1.742 1.752 1.792 1.952
3000.128 2.142 2.352 2.532 2.702 2.992 3.312 3.562 3.852 4.172 4.542
3019.422 4.932 5.222 5.462 5.692 5.992 6.052 5.972 6.002 6.112 6.252
3038.715 6.242 6.322 6.692 7.272 7.882 8.432 9.082 9.892 10.752 11.582
3058.009 12.202 12.512 12.772 12.992 13.062 13.082 12.802 12.142 11.362 10.442
3077.302 9.462 8.502 7.562 6.732 5.852 5.042 4.362 3.712 3.302 3.022
3096.596 2.762 2.442 2.202 1.992 1.682 1.4732 1.2668 1.1469 1.046 0.8206
3115.889 0.6321 0.5926 0.5862 0.491 0.362 0.291 0.322 0.357 0.313 0.288
3135.182 0.259 0.267 0.301 0.208 0.186 0.224 0.208 0.244 0.322 0.277
3154.476 0.213 0.228 0.324 0.306 0.227 0.247 0.195 0.241 0.319 0.191
3173.769 0.189 0.321 0.261 0.164 0.199 0.209 0.26 0.317 0.299 0.221
3193.063 0.259 0.299 0.118 0.137 0.149 0.046 0.126 0.129 0.121 0.098
3212.356 0.113 0.136 0.15 0.14 0.176 0.248 0.191 0.13 0.071 0.071
3231.650 0.083 0.171 0.21 0.215 0.252 0.292 0.29 0.238 0.199 0.14
3250.943 0.206 0.275 0.231 0.281 0.267 0.182 0.086 0.13 0.177 0.125
3270.236 0.103 0.089 0.162 0.201 0.113 0.003 0.024 0.107 0.153 0.092
3289.530 0 0.072 0.191 0.099 0.046 0.16 0.246 0.221 0.106 0.013
3308.823 0.091 0.181 0.159 0.221 0.338 0.316 0.162 0.144 0.25 0.291
3328.117 0.123 0.04 0.16 0.131 0.199 0.184 0.12 0.268 0.236 0.147
3347.410 0.202 0.214 0.211 0.269 0.274 0.324 0.327 0.185 0.209 0.192
3366.704 0.174 0.349 0.442 0.388 0.267 0.282 0.201 0.106 0.22 0.227
3385.997 0.216 0.284 0.354 0.278 0.193 0.288 0.281 0.136 0.126 0.2
3405.290 0.216 0.245 0.249 0.237 0.217 0.165 0.254 0.388 0.367 0.214
3424.584 0.127 0.254 0.307 0.274 0.287 0.266 0.235 0.179 0.176 0.232
3443.877 0.217 0.112 0.034 0.06 0.204 0.287 0.225 0.249 0.153 0.143
3463.171 0.332 0.339 0.301 0.234 0.155 0.23 0.28 0.301 0.162 0.085
3482.464 0.32 0.404 0.331 0.229 0.196 0.142 0.112 0.114 0.097 0.177
3501.758 0.243 0.266 0.308 0.315 0.353 0.353 0.191 0.185 0.211 0.193
3521.051 0.152 0.077 0.21 0.24 0.274 0.313 0.278 0.258 0.234 0.217
3540.344 0.163 0.201 0.322 0.357 0.259 0.261 0.288 0.343 0.352 0.378
3559.638 0.496 0.488 0.389 0.332 0.365 0.373 0.37 0.29 0.271 0.347
3578.931 0.346 0.32 0.361 0.452 0.415 0.357 0.353 0.359 0.341 0.389
3598.225 0.482 0.49 0.414 0.415 0.468 0.485 0.498 0.5572 0.71544 0.8204
3617.518 0.9549 1.1236 1.2583 1.3933 1.6205 2.132 2.882 3.772 4.982 6.582
3636.812 8.442 10.652 12.972 14.932 16.372 17.182 17.672 18.092 18.152 17.462
3656.105 15.962 13.732 11.212 9.092 7.262 5.482 3.852 2.552 1.722 1.2246
3675.398 0.8942 0.7148 0.6317 0.6105 0.637 0.6061 0.514 0.442 0.379 0.292
3694.692 0.334 0.42 0.392 0.388 0.351 0.318 0.376 0.387 0.331 0.332
3713.985 0.355 0.318 0.368 0.422 0.306 0.223 0.252 0.352 0.384 0.332
3733.279 0.314 0.294 0.363 0.329 0.246 0.244 0.297 0.372 0.326 0.331
3752.572 0.389 0.325 0.299 0.264 0.313 0.427 0.394 0.358 0.4 0.464
3771.866 0.441 0.44 0.488 0.496 0.495 0.488 0.48 0.408 0.373 0.358
3791.159 0.36 0.43 0.428 0.365 0.344 0.347 0.393 0.416 0.378 0.406
3810.452 0.4 0.411 0.365 0.397 0.518 0.445 0.452 0.502 0.473 0.486
3829.746 0.519 0.476 0.424 0.392 0.396 0.409 0.367 0.396 0.399 0.304
3849.039 0.325 0.406 0.353 0.386 0.425 0.344 0.37 0.453 0.416 0.438
3868.333 0.458 0.411 0.411 0.423 0.467 0.431 0.386 0.429 0.417 0.388
3887.626 0.409 0.451 0.526 0.525 0.493 0.51 0.439 0.362 0.436 0.497
3906.920 0.457 0.467 0.509 0.542 0.487 0.43 0.43 0.428 0.443 0.499
3926.213 0.5663 0.5945 0.63 0.6195 0.509 0.49 0.5643 0.5677 0.5738 0.5798
3945.506 0.58 0.533 0.53 0.5854 0.6061 0.5984 0.603 0.652543 0.6407 0.6158
3964.800 0.5776 0.5781 0.6004 0.528 0.487 0.55 0.6215 0.549 0.512 0.547
3984.093 0.541 0.5578 0.5845 0.5917 0.5623 0.545 0.586 0.5683 0.51
##END=
