##TITLE=4-Methoxyphenyl isothiocyanate
##JCAMP-DX=4.24
##DATA TYPE=INFRARED SPECTRUM
##ORIGIN=EPA-IR VAPOR PHASE LIBRARY
##OWNER=SRD/NIST
Collection (C) 2018 copyright by the U.S. Secretary of Commerce
on behalf of the United States of America. All rights reserved.
##CAS REGISTRY NO=2284-20-0
##MOLFORM=C 8 H 7 N O S
##$NIST SOURCE=MSDC-IR
##STATE=gas
##XUNITS=1/CM
##YUNITS=ABSORBANCE
##XFACTOR=1.
##YFACTOR=0.001
##DELTAX=1.92898
##FIRSTX=549.8
##LASTX=4000.7
##FIRSTY=24.192
##MAXX=4000.7
##MINX=549.759
##MAXY=0.525592
##MINY=0
##NPOINTS=1790
##XYDATA=(X++(Y..Y))
549.759 24.192 23.172 21.862 20.602 19.462 18.382 17.392 16.412 15.342 14.112
569.049 13.412 12.862 12.302 11.942 11.642 11.102 10.932 11.132 11.172 11.222
588.339 11.232 11.432 11.712 12.012 12.172 12.342 12.582 12.932 13.252 13.592
607.628 14.052 13.972 14.002 14.262 14.242 14.202 14.102 13.852 13.532 13.232
626.918 12.942 12.532 12.072 11.842 11.662 11.252 10.812 10.432 10.372 10.312
646.208 10.332 10.442 10.312 10.052 9.722 9.182 8.582 7.952 7.142 6.492
665.498 6.072 5.452 4.712 4.352 4.032 3.832 3.732 3.252 2.752 2.572
684.787 2.442 2.212 2.212 2.162 2.002 1.982 2.032 1.992 1.812 1.842
704.077 1.762 1.5098 1.4701 1.448 1.2834 1.3601 1.5017 1.4594 1.311 1.2014
723.367 1.2682 1.2341 1.3147 1.3151 1.2018 1.3585 1.356 1.3289 1.202 1.2086
742.657 1.6187 1.792 1.772 2.012 2.282 2.482 2.532 2.542 2.512 2.372
761.947 2.442 2.472 2.502 2.612 2.662 2.782 3.002 3.192 3.542 3.912
781.236 4.212 4.562 4.852 5.322 5.782 6.132 6.602 7.022 7.462 8.082
800.526 8.702 9.572 10.812 12.502 14.632 17.002 20.032 23.592 27.442 31.382
819.816 35.072 38.522 42.262 46.472 50.912 54.372 54.782 52.602 50.022 47.502
839.106 44.472 41.022 37.132 32.702 28.552 24.772 21.262 18.192 15.522 13.472
858.395 11.992 10.792 9.812 9.162 8.672 8.552 8.392 7.872 7.352 6.962
877.685 6.522 6.212 6.142 6.042 6.032 6.282 6.612 7.072 7.642 8.232
896.975 8.852 9.582 10.292 10.892 11.412 11.932 12.342 12.622 13.242 13.902
916.265 14.442 15.312 16.562 18.092 19.872 22.092 24.892 27.932 30.872 33.532
935.555 35.752 37.232 37.812 37.412 36.132 33.902 31.042 28.122 25.072 22.042
954.844 19.502 17.292 15.242 13.622 12.352 11.162 10.102 9.442 9.092 8.622
974.134 8.152 7.912 7.782 7.702 7.482 7.502 7.502 7.262 7.292 7.442
993.424 7.622 7.822 8.002 8.352 8.772 9.202 9.822 10.542 11.272 12.442
1012.714 13.872 15.192 16.852 19.102 21.612 24.242 27.282 30.702 34.132 37.342
1032.003 40.432 43.132 45.412 46.832 47.302 47.122 45.542 42.602 38.802 34.512
1051.293 30.162 25.552 21.282 17.952 15.202 13.122 11.662 10.522 9.502 8.622
1070.583 8.062 7.702 7.232 7.012 7.042 6.952 7.322 7.692 7.892 8.312
1089.873 8.792 9.272 9.972 10.782 11.322 11.902 12.132 11.982 12.112 12.042
1109.163 11.772 11.422 10.572 9.692 8.932 8.372 7.732 7.222 6.752 6.102
1128.452 5.632 5.232 4.912 4.832 4.822 5.032 5.392 5.332 5.262 5.552
1147.742 6.152 7.052 8.782 10.882 14.222 20.292 29.032 38.862 45.282 47.192
1167.032 48.312 49.202 46.792 40.532 34.482 31.582 31.012 30.742 29.532 27.802
1186.322 25.722 22.842 19.682 17.202 16.102 15.642 15.642 16.572 17.522 18.662
1205.611 20.222 21.292 22.512 24.262 26.472 29.162 32.032 35.592 40.532 47.662
1224.901 56.862 68.362 83.242 101.822 123.872 148.882 174.842 199.892 221.582 236.542
1244.191 242.632 238.762 226.312 207.582 184.312 159.742 137.132 118.762 104.952 94.532
1263.481 87.462 82.662 79.122 76.842 76.112 76.522 77.582 79.212 81.052 82.962
1282.771 84.512 85.432 85.302 83.712 80.622 76.112 70.362 63.862 56.752 49.252
1302.060 42.262 36.322 31.332 27.052 23.412 20.422 17.952 15.722 13.692 11.842
1321.350 10.242 9.052 8.112 7.382 6.812 6.352 6.022 5.702 5.472 5.232
1340.640 5.002 4.822 4.652 4.412 4.262 4.192 4.082 4.022 3.912 3.822
1359.930 3.732 3.592 3.502 3.452 3.382 3.292 3.242 3.242 3.222 3.162
1379.219 3.182 3.252 3.302 3.312 3.382 3.472 3.532 3.632 3.742 3.852
1398.509 4.032 4.212 4.372 4.632 4.992 5.382 5.862 6.442 7.132 7.942
1417.799 8.812 9.812 10.962 12.162 13.422 14.692 15.912 16.992 18.202 19.632
1437.089 21.282 23.232 25.412 27.372 28.462 28.742 28.942 28.882 28.162 27.242
1456.378 26.952 27.902 29.832 32.302 35.022 37.242 37.982 37.312 36.472 35.642
1475.668 33.972 31.862 30.682 31.142 33.662 38.562 46.592 59.202 78.092 104.832
1494.958 141.112 187.602 240.212 290.742 326.852 339.292 328.922 302.762 262.012 205.112
1514.248 142.952 92.312 60.232 42.972 33.342 27.622 24.072 21.672 20.082 19.092
1533.538 18.222 17.422 16.782 16.132 15.392 14.582 13.882 13.372 12.992 12.732
1552.827 12.592 12.592 12.712 12.852 13.122 13.472 14.042 14.822 15.572 16.452
1572.117 17.472 18.332 19.022 19.702 20.252 20.502 20.582 20.492 20.432 20.352
1591.407 20.232 20.322 20.462 20.662 21.002 21.352 21.602 21.592 21.022 19.852
1610.697 18.422 16.792 15.052 13.242 11.462 10.042 9.012 8.282 7.782 7.362
1629.986 7.052 6.872 6.592 6.362 6.222 5.982 5.702 5.402 5.102 4.862
1649.276 4.642 4.352 4.172 4.012 3.822 3.672 3.522 3.402 3.292 3.202
1668.566 3.172 3.092 3.012 2.962 2.832 2.772 2.792 2.772 2.752 2.712
1687.856 2.622 2.582 2.622 2.592 2.562 2.632 2.702 2.712 2.712 2.712
1707.146 2.732 2.842 2.882 2.862 2.842 2.942 3.032 3.092 3.212 3.262
1726.435 3.322 3.392 3.532 3.772 3.952 4.062 4.152 4.192 4.242 4.232
1745.725 4.082 3.932 3.762 3.522 3.412 3.332 3.262 3.252 3.232 3.232
1765.015 3.292 3.432 3.512 3.542 3.592 3.642 3.722 3.742 3.762 3.822
1784.305 3.832 3.892 4.022 4.112 4.172 4.292 4.362 4.412 4.452 4.482
1803.594 4.522 4.542 4.512 4.512 4.492 4.462 4.542 4.642 4.662 4.702
1822.884 4.822 4.952 5.102 5.312 5.522 5.732 6.032 6.302 6.562 6.852
1842.174 7.172 7.552 7.892 8.222 8.572 8.902 9.232 9.522 9.792 10.092
1861.464 10.402 10.662 10.892 11.072 11.342 11.612 11.792 12.012 12.182 12.352
1880.754 12.462 12.512 12.642 12.722 12.752 12.712 12.612 12.512 12.442 12.342
1900.043 12.252 12.242 12.282 12.462 12.692 13.032 13.462 13.902 14.472 15.072
1919.333 15.802 16.712 17.592 18.562 19.702 20.912 22.272 23.732 25.302 27.052
1938.623 28.922 30.872 33.042 35.352 37.722 40.252 42.872 45.532 48.332 51.192
1957.913 54.112 57.152 60.362 63.782 67.372 71.172 75.182 79.432 83.822 88.522
1977.202 93.572 98.772 104.322 110.152 116.262 122.662 129.372 136.462 144.122 152.242
1996.492 160.812 170.062 179.962 190.432 201.582 213.462 225.942 238.882 252.162 265.702
2015.782 279.322 293.072 306.732 320.082 333.112 345.792 358.072 370.152 382.202 394.352
2035.072 406.822 419.942 433.742 448.462 464.262 480.662 496.772 511.492 522.442 525.592
2054.362 518.492 501.192 475.082 442.702 406.632 369.492 334.022 302.072 274.432 251.782
2073.651 234.302 221.642 213.342 209.012 208.122 210.242 215.082 222.082 230.922 241.612
2092.941 253.792 267.092 281.072 295.062 307.962 318.372 324.932 326.052 321.142 310.122
2112.231 293.522 272.812 249.722 226.002 203.122 182.152 163.532 147.652 134.702 124.322
2131.521 116.152 109.912 105.252 101.662 98.812 96.602 94.752 93.102 91.792 90.792
2150.810 90.092 89.532 89.042 88.542 87.782 86.612 85.052 83.022 80.482 77.582
2170.100 74.402 71.162 68.022 64.902 61.942 59.102 56.362 53.662 50.992 48.372
2189.390 45.802 43.232 40.672 38.172 35.702 33.392 31.222 29.102 27.082 25.272
2208.680 23.642 22.152 20.842 19.642 18.562 17.602 16.702 15.892 15.192 14.542
2227.970 13.842 13.122 12.492 11.942 11.352 10.782 10.212 9.682 9.142 8.602
2247.259 8.182 7.722 7.292 7.022 6.792 6.492 6.112 5.782 5.552 5.332
2266.549 5.072 4.892 4.702 4.512 4.422 4.312 4.242 4.272 4.232 4.142
2285.839 4.142 4.152 4.162 4.152 4.142 4.042 3.872 3.702 3.552 3.402
2305.129 3.172 2.922 2.682 2.502 2.412 2.412 2.382 2.322 2.222 2.152
2324.418 2.162 2.122 2.132 2.172 2.222 2.292 2.292 2.302 2.292 2.302
2343.708 2.402 2.412 2.422 2.452 2.512 2.582 2.612 2.702 2.852 2.882
2362.998 2.912 3.042 3.112 3.212 3.332 3.422 3.452 3.462 3.532 3.572
2382.288 3.622 3.822 3.942 4.052 4.162 4.302 4.452 4.612 4.852 5.002
2401.578 5.052 5.092 5.172 5.222 5.102 4.972 4.892 4.702 4.462 4.332
2420.867 4.192 4.012 3.912 3.842 3.702 3.572 3.562 3.562 3.582 3.572
2440.157 3.572 3.602 3.562 3.602 3.672 3.652 3.662 3.692 3.782 3.952
2459.447 4.012 4.062 4.152 4.212 4.242 4.332 4.512 4.562 4.592 4.822
2478.737 5.062 5.162 5.282 5.432 5.482 5.582 5.622 5.612 5.582 5.442
2498.026 5.382 5.322 5.182 5.132 5.062 4.962 4.942 5.002 5.042 5.022
2517.316 5.052 5.182 5.392 5.472 5.492 5.622 5.812 5.912 5.962 6.042
2536.606 6.062 6.102 6.132 6.142 6.042 5.872 5.742 5.672 5.542 5.432
2555.896 5.442 5.432 5.372 5.282 5.272 5.212 5.022 4.942 4.922 4.842
2575.186 4.802 4.692 4.562 4.432 4.272 4.152 4.012 3.912 3.732 3.562
2594.475 3.382 3.282 3.272 3.202 3.172 3.042 2.922 2.972 2.962 2.892
2613.765 2.822 2.852 2.932 2.982 2.962 2.912 3.022 3.102 3.102 3.172
2633.055 3.282 3.262 3.342 3.462 3.492 3.542 3.612 3.752 3.802 3.802
2652.345 3.772 3.802 3.862 3.962 4.122 4.172 4.322 4.572 4.772 4.992
2671.634 5.202 5.412 5.622 5.782 5.882 6.102 6.332 6.532 6.762 6.872
2690.924 7.012 7.192 7.312 7.382 7.382 7.332 7.352 7.372 7.222 7.082
2710.214 6.842 6.402 6.052 5.712 5.352 5.022 4.582 4.112 3.812 3.592
2729.504 3.302 3.042 2.882 2.782 2.732 2.692 2.552 2.422 2.402 2.462
2748.794 2.552 2.482 2.412 2.402 2.402 2.572 2.692 2.672 2.662 2.692
2768.083 2.732 2.712 2.682 2.662 2.572 2.572 2.692 2.782 2.922 2.912
2787.373 2.862 2.962 3.002 3.212 3.372 3.372 3.532 3.692 3.912 4.152
2806.663 4.322 4.622 4.842 5.102 5.562 5.832 6.092 6.602 7.102 7.592
2825.953 8.252 8.972 9.652 10.502 11.652 13.222 15.222 17.582 19.892 21.672
2845.242 22.762 23.012 22.612 21.462 19.502 17.132 14.842 13.032 11.652 10.652
2864.532 9.742 9.172 8.832 8.372 8.092 7.942 7.802 7.722 7.732 7.792
2883.822 7.902 8.102 8.282 8.472 8.802 9.312 9.752 10.182 10.802 11.452
2903.112 12.282 13.152 13.952 14.962 16.012 16.982 17.662 18.082 18.212 18.112
2922.401 18.072 17.932 17.932 18.292 18.742 19.412 20.462 21.952 23.862 25.892
2941.691 27.692 29.142 30.252 30.922 31.152 31.042 30.542 29.822 29.062 28.232
2960.981 27.402 26.182 24.582 23.082 21.802 20.642 19.422 18.262 17.362 16.602
2980.271 15.842 15.202 14.762 14.312 14.052 13.992 14.092 14.532 15.152 15.952
2999.561 17.032 18.502 20.462 22.742 25.132 27.072 27.852 27.252 25.672 23.582
3018.850 20.772 17.402 14.232 11.842 10.402 9.592 9.112 8.932 8.952 9.142
3038.140 9.552 10.022 10.492 11.022 11.542 11.912 12.182 12.242 11.942 11.512
3057.430 10.892 10.162 9.412 8.732 8.112 7.632 7.442 7.292 7.142 7.042
3076.720 7.152 7.192 7.092 7.022 7.012 6.822 6.542 6.402 6.242 6.132
3096.009 6.032 6.032 6.082 6.022 5.952 5.882 5.852 5.632 5.312 5.182
3115.299 4.942 4.672 4.472 4.152 3.782 3.432 3.232 3.042 2.712 2.462
3134.589 2.152 1.802 1.762 1.792 1.5946 1.3999 1.3658 1.309 1.2244 1.2109
3153.879 1.1778 1.1026 0.9344 0.905 1.065 0.9433 0.8854 0.9959 0.9321 0.811
3173.169 0.9032 1.0169 0.8569 0.7928 0.856 0.8436 0.7593 0.5577 0.52 0.66609
3192.458 0.6252 0.73477 0.8702 0.8011 0.7875 0.7967 0.7675 0.628 0.6022 0.6094
3211.748 0.533 0.5544 0.63827 0.68781 0.501 0.483 0.6003 0.45 0.252 0.231
3231.038 0.38 0.433 0.453 0.327 0.157 0.347 0.437 0.283 0.25 0.273
3250.328 0.272 0.165 0.2 0.207 0.161 0.172 0.139 0.287 0.317 0.13
3269.617 0.193 0.26 0.053 0.06 0.23 0.268 0.24 0.318 0.282 0.155
3288.907 0.293 0.238 0.145 0.215 0.14 0.067 0.115 0.15 0.211 0.313
3308.197 0.414 0.348 0.232 0.363 0.412 0.304 0.315 0.378 0.32 0.254
3327.487 0.385 0.407 0.183 0.175 0.362 0.389 0.232 0.196 0.266 0.32
3346.777 0.311 0.165 0 0.036 0.221 0.303 0.186 0.151 0.33 0.381
3366.066 0.181 0.273 0.393 0.261 0.202 0.247 0.28 0.334 0.438 0.31
3385.356 0.147 0.178 0.186 0.212 0.315 0.434 0.355 0.227 0.264 0.313
3404.646 0.321 0.362 0.401 0.242 0.131 0.263 0.394 0.215 0.186 0.293
3423.936 0.33 0.308 0.296 0.394 0.473 0.449 0.412 0.428 0.379 0.24
3443.225 0.091 0.213 0.435 0.484 0.525 0.5489 0.481 0.416 0.319 0.321
3462.515 0.322 0.375 0.416 0.328 0.339 0.348 0.412 0.445 0.423 0.404
3481.805 0.397 0.401 0.405 0.417 0.436 0.395 0.394 0.501 0.368 0.223
3501.095 0.195 0.291 0.344 0.343 0.295 0.3 0.291 0.101 0.157 0.273
3520.385 0.281 0.305 0.289 0.211 0.349 0.444 0.364 0.369 0.303 0.204
3539.674 0.184 0.323 0.449 0.324 0.213 0.232 0.191 0.141 0.23 0.236
3558.964 0.184 0.207 0.408 0.532 0.422 0.493 0.317 0.206 0.248 0.218
3578.254 0.395 0.424 0.256 0.215 0.314 0.27 0.255 0.341 0.489 0.5946
3597.544 0.5667 0.448 0.411 0.501 0.458 0.317 0.269 0.334 0.3 0.338
3616.833 0.373 0.288 0.319 0.25 0.331 0.473 0.381 0.366 0.44 0.47
3636.123 0.394 0.308 0.311 0.474 0.5945 0.5517 0.67215 0.7672 0.6056 0.6054
3655.413 0.5747 0.444 0.387 0.31 0.288 0.398 0.6163 0.5665 0.485 0.51
3674.703 0.479 0.5883 0.63611 0.541 0.5893 0.6408 0.5922 0.64085 0.6581 0.5485
3693.993 0.464 0.448 0.459 0.413 0.516 0.8123 0.8801 0.7697 0.72455 0.7683
3713.282 0.6099 0.5943 0.66247 0.5439 0.479 0.435 0.539 0.68027 0.631 0.538
3732.572 0.5689 0.6015 0.5792 0.5541 0.548 0.485 0.449 0.5774 0.6227 0.564
3751.862 0.5449 0.7574 0.8754 0.68077 0.6281 0.518 0.508 0.495 0.464 0.584
3771.152 0.6015 0.68327 0.72727 0.5938 0.529 0.405 0.359 0.404 0.474 0.5624
3790.441 0.6069 0.612 0.533 0.5834 0.6168 0.5 0.412 0.473 0.5833 0.512
3809.731 0.6034 0.74078 0.5473 0.72127 0.9068 0.8808 0.7853 0.71072 0.9038 0.8535
3829.021 0.67988 0.7928 0.8881 0.8381 0.831 0.70689 0.7529 0.8494 0.7603 0.7867
3848.311 0.74087 0.72758 0.7466 0.7492 0.8008 0.8472 1.0152 1.0832 1.1404 1.1564
3867.601 0.9707 1.0577 1.0173 0.9256 1.0516 1.0977 1.1163 1.0651 1.0512 1.218
3886.890 1.2338 1.0709 1.0535 1.053 1.0419 1.065 1.2244 1.2641 1.1313 1.2099
3906.180 1.2717 1.1514 1.0919 1.1116 1.1148 1.094 1.2082 1.244 1.2483 1.4177
3925.470 1.4412 1.4472 1.3925 1.3418 1.3821 1.3648 1.3213 1.2957 1.4529 1.5273
3944.760 1.4541 1.4904 1.6064 1.6233 1.5092 1.672 1.722 1.5647 1.702 1.772
3964.049 1.702 1.782 1.912 2.022 1.952 1.872 1.942 1.932 2.162 2.432
3983.339 2.242 2.162 2.142 2.142 2.202 2.102 2.092 2.202 2.372 2.542
##END=
