##TITLE=Phenathridine
##JCAMP-DX=4.24
##DATA TYPE=INFRARED SPECTRUM
##ORIGIN=NIST Mass Spectrometry Data Center
##OWNER=NIST Standard Reference Data Program
Collection (C) 2018 copyright by the U.S. Secretary of Commerce
on behalf of the United States of America. All rights reserved.
##CAS REGISTRY NO=229-87-8
##MOLFORM=C 13 H 9 N
##$NIST SOURCE=MSDC-IR
##SPECTROMETER/DATA SYSTEM=HP-GC/MS/IRD
##STATE=gas
##XUNITS=1/CM
##YUNITS=ABSORBANCE
##XFACTOR=1.0
##YFACTOR=0.000002800
##DELTAX=4.0
##FIRSTX=550.0
##LASTX=3846.0
##FIRSTY=0.000476
##MAXX=3846
##MINX=550
##MAXY=0.028
##MINY=0
##NPOINTS=825
##XYDATA=(X++(Y..Y))
550.0 170 86 58 67 38 33 47 63 65 91
590.0 137 187 220 254 473 693 733 717 521 262
630.0 150 106 83 73 91 105 94 114 131 117
670.0 111 104 95 127 158 187 246 333 490 751
710.0 1031 1533 2066 2184 2761 4015 5588 7452 10000 9661
750.0 6702 4887 3320 2214 1485 962 700 485 340 272
790.0 227 190 153 127 110 103 111 127 124 115
830.0 101 95 99 92 105 146 188 237 292 382
870.0 535 712 973 1187 1212 1129 878 544 317 209
910.0 186 236 336 451 563 526 436 392 399 474
950.0 610 783 725 523 374 228 138 95 81 92
990.0 130 223 328 372 361 263 158 147 221 364
1030.0 525 569 508 366 169 60 32 16 16 10
1070.0 0 2 6 7 18 20 23 34 27 22
1110.0 20 25 51 116 240 358 468 500 444 372
1150.0 258 178 140 121 129 123 117 159 203 230
1190.0 249 244 223 199 186 205 272 401 610 916
1230.0 1200 1242 1209 1008 626 359 223 163 144 173
1270.0 221 257 284 291 266 248 233 186 134 104
1310.0 101 124 177 250 343 423 433 383 294 197
1350.0 134 122 117 114 121 127 140 168 194 218
1390.0 226 208 191 187 202 215 203 179 167 194
1430.0 259 380 560 743 933 1130 1183 1070 900 685
1470.0 554 590 750 976 1112 1092 935 641 404 331
1510.0 349 430 546 624 638 592 482 353 271 242
1550.0 226 233 293 427 612 802 962 1116 1283 1450
1590.0 1544 1501 1347 1203 1244 1417 1506 1391 1103 788
1630.0 536 398 345 292 229 172 136 122 111 101
1670.0 102 124 169 224 275 300 287 256 235 230
1710.0 243 250 235 216 187 149 119 109 105 93
1750.0 88 114 149 163 163 159 155 142 125 127
1790.0 140 159 181 196 203 212 235 271 297 299
1830.0 278 252 250 280 314 313 269 205 156 134
1870.0 139 153 159 159 173 197 229 263 278 271
1910.0 261 260 259 260 260 248 245 285 360 424
1950.0 429 364 257 152 94 75 63 54 48 41
1990.0 31 31 36 40 43 44 43 38 41 45
2030.0 46 44 40 41 45 47 47 50 48 47
2070.0 48 46 45 40 36 35 36 36 44 45
2110.0 41 39 39 39 33 29 29 30 28 26
2150.0 34 38 34 36 41 40 38 37 32 26
2190.0 26 27 24 24 24 24 29 37 41 39
2230.0 45 52 50 41 40 40 36 35 43 46
2270.0 43 45 44 49 55 57 61 69 74 73
2310.0 68 69 74 77 73 63 51 40 37 40
2350.0 44 50 53 48 41 41 39 31 32 32
2390.0 25 22 22 30 33 31 31 34 39 33
2430.0 28 33 33 36 37 30 26 22 26 30
2470.0 34 35 28 22 26 28 24 25 32 32
2510.0 30 28 25 27 28 29 38 36 34 43
2550.0 38 37 36 34 31 28 28 25 26 28
2590.0 26 29 38 36 32 35 36 35 31 28
2630.0 31 30 22 21 30 29 27 20 13 23
2670.0 31 33 31 28 25 25 23 25 23 17
2710.0 16 20 11 6 16 19 15 10 9 10
2750.0 16 20 20 18 12 6 9 9 0 1
2790.0 13 17 12 9 13 18 21 27 23 26
2830.0 27 25 32 34 33 43 47 40 45 44
2870.0 38 41 51 60 65 71 72 77 86 100
2910.0 109 108 118 141 158 175 204 247 298 348
2950.0 408 465 504 513 487 447 408 381 382 415
2990.0 488 591 723 879 1047 1181 1258 1289 1274 1253
3030.0 1273 1339 1425 1489 1508 1530 1666 2001 2509 3079
3070.0 3571 3789 3683 3350 2791 2125 1562 1201 1000 853
3110.0 689 521 372 254 171 128 115 110 94 81
3150.0 85 91 93 90 90 94 94 87 78 67
3190.0 60 51 45 46 35 29 27 23 23 18
3230.0 11 11 19 17 13 12 4 2 9 8
3270.0 6 10 12 12 11 9 10 16 15 11
3310.0 15 15 12 9 10 5 8 13 9 6
3350.0 3 9 17 18 13 7 9 9 0 5
3390.0 15 16 10 4 7 12 17 23 17 6
3430.0 6 12 20 18 19 21 21 25 28 21
3470.0 22 29 30 25 11 13 23 29 28 24
3510.0 25 23 16 11 18 24 17 18 30 35
3550.0 31 18 18 27 22 19 25 22 22 21
3590.0 10 16 27 32 24 15 16 15 18 24
3630.0 22 18 22 35 30 30 26 25 29 19
3670.0 15 13 24 33 22 18 26 35 36 28
3710.0 19 18 21 17 19 22 9 8 8 1
3750.0 7 19 22 21 25 23 23 23 21 26
3790.0 27 21 20 20 18 26 29 12 10 17
3830.0 17 17 13 31 44
##END=
