##TITLE=1,4-Di-isopropylcyclohexane
##JCAMP-DX=4.24
##DATA TYPE=INFRARED SPECTRUM
##ORIGIN=NIST Mass Spectrometry Data Center
##OWNER=NIST Standard Reference Data Program
Collection (C) 2018 copyright by the U.S. Secretary of Commerce
on behalf of the United States of America. All rights reserved.
##CAS REGISTRY NO=22907-72-8
##MOLFORM=C 12 H 24
##$NIST SOURCE=MSDC-IR
##SPECTROMETER/DATA SYSTEM=HP-GC/MS/IRD
##STATE=gas
##XUNITS=1/CM
##YUNITS=ABSORBANCE
##XFACTOR=1.0
##YFACTOR=0.000002800
##DELTAX=4.0
##FIRSTX=550.0
##LASTX=3846.0
##FIRSTY=0.000104
##MAXX=3846
##MINX=550
##MAXY=0.028
##MINY=0
##NPOINTS=825
##XYDATA=(X++(Y..Y))
550.0 37 33 33 58 31 21 27 23 19 14
590.0 28 12 8 27 33 36 56 69 65 69
630.0 64 37 31 41 26 12 13 19 22 11
670.0 14 33 41 34 39 32 14 25 34 30
710.0 27 21 16 13 10 15 22 24 24 18
750.0 14 19 21 22 28 34 33 31 38 40
790.0 42 63 68 57 60 57 43 31 40 38
830.0 36 40 38 43 48 62 62 69 87 87
870.0 86 82 80 93 103 109 123 130 118 102
910.0 98 103 106 114 123 128 123 115 109 98
950.0 90 90 90 78 63 55 53 55 64 73
990.0 85 111 154 199 238 270 296 301 292 277
1030.0 246 213 172 135 108 90 84 88 91 95
1070.0 109 131 150 170 183 178 178 173 152 128
1110.0 113 110 105 94 91 91 90 97 111 127
1150.0 145 168 199 226 243 260 261 239 208 177
1190.0 134 105 92 84 87 104 131 170 203 214
1230.0 196 160 121 104 96 90 97 103 119 140
1270.0 154 173 187 186 189 200 209 215 217 206
1310.0 195 200 218 249 281 301 297 279 268 274
1350.0 296 363 483 637 814 959 1057 1130 1221 1278
1390.0 1198 979 669 424 310 262 241 238 241 256
1430.0 295 364 479 649 855 1064 1234 1327 1353 1329
1470.0 1246 1100 895 680 498 363 268 213 181 159
1510.0 136 119 106 97 87 76 69 73 68 56
1550.0 54 53 54 51 49 42 40 38 33 39
1590.0 35 33 34 30 33 34 34 35 34 34
1630.0 36 44 48 48 42 45 47 41 40 39
1670.0 44 42 34 38 46 38 34 39 39 32
1710.0 24 29 32 25 23 20 21 20 18 19
1750.0 23 25 22 20 22 24 24 20 16 15
1790.0 18 21 20 16 13 13 9 14 21 17
1830.0 14 14 16 18 17 17 14 10 13 16
1870.0 14 13 10 9 12 10 8 11 6 3
1910.0 8 9 9 11 9 7 8 10 9 8
1950.0 9 10 7 4 5 5 7 8 8 4
1990.0 1 5 7 7 6 7 7 7 5 3
2030.0 2 1 4 4 5 7 4 2 5 8
2070.0 2 0 1 8 7 3 5 9 12 16
2110.0 13 9 11 9 4 7 12 12 11 9
2150.0 10 8 4 9 11 12 13 9 9 12
2190.0 15 19 21 17 15 14 15 14 18 20
2230.0 20 17 17 18 20 26 21 20 19 12
2270.0 8 13 19 19 19 22 21 21 23 19
2310.0 15 20 21 18 21 21 21 27 26 19
2350.0 24 30 30 32 33 38 39 36 41 42
2390.0 39 37 37 40 39 37 38 36 36 36
2430.0 38 41 36 34 34 33 32 29 32 38
2470.0 36 38 36 34 39 45 43 40 44 47
2510.0 47 47 50 55 57 59 61 63 62 57
2550.0 57 67 74 72 76 80 91 103 113 117
2590.0 123 129 133 136 137 143 152 153 154 160
2630.0 154 150 151 149 140 139 141 144 149 152
2670.0 157 162 164 168 163 161 162 160 158 162
2710.0 171 179 188 204 224 232 230 225 217 208
2750.0 208 206 200 204 217 225 233 234 246 256
2790.0 268 290 306 331 365 401 439 486 542 609
2830.0 708 864 1096 1441 1943 2607 3358 4043 4570 4970
2870.0 5330 5660 5791 5613 5187 4676 4327 4244 4422 4810
2910.0 5374 6117 6988 7874 8668 9312 9742 9900 9671 9175
2950.0 8784 8869 9484 10000 9818 8758 7127 5538 4189 3030
2990.0 2099 1452 1049 809 664 574 524 481 442 405
3030.0 367 332 294 262 237 223 215 210 207 203
3070.0 196 192 196 192 198 199 186 185 185 182
3110.0 178 172 164 152 156 167 162 154 159 163
3150.0 157 156 158 146 141 143 141 136 135 131
3190.0 127 122 117 106 103 101 87 84 73 58
3230.0 57 61 61 59 56 55 59 57 49 49
3270.0 52 55 53 44 36 38 41 46 47 48
3310.0 48 44 50 44 37 39 40 39 40 41
3350.0 42 45 42 43 51 53 45 40 46 49
3390.0 39 40 44 42 39 46 49 42 42 38
3430.0 37 32 28 37 32 29 26 29 35 30
3470.0 28 32 34 26 11 13 20 19 23 25
3510.0 22 26 27 34 33 22 23 27 21 26
3550.0 34 33 27 25 29 30 35 35 28 24
3590.0 18 29 37 31 37 37 29 30 29 28
3630.0 36 37 33 37 43 39 30 30 28 27
3670.0 33 40 36 30 39 45 39 39 43 43
3710.0 45 51 52 48 41 37 37 43 57 59
3750.0 49 42 44 49 50 47 52 58 54 55
3790.0 49 46 58 65 56 52 60 59 56 57
3830.0 58 52 54 61 55
##END=
