##TITLE=Trimethylsilyl isothiocyanate
##JCAMP-DX=4.24
##DATA TYPE=INFRARED SPECTRUM
##ORIGIN=EPA-IR VAPOR PHASE LIBRARY
##OWNER=SRD/NIST
Collection (C) 2018 copyright by the U.S. Secretary of Commerce
on behalf of the United States of America. All rights reserved.
##CAS REGISTRY NO=2290-65-5
##MOLFORM=C 4 H 9 N S Si
##$NIST SOURCE=MSDC-IR
##STATE=gas
##XUNITS=1/CM
##YUNITS=ABSORBANCE
##XFACTOR=1.
##YFACTOR=0.001
##DELTAX=1.92898
##FIRSTX=549.8
##LASTX=4000.7
##FIRSTY=3.664
##MAXX=4000.7
##MINX=549.759
##MAXY=0.933444
##MINY=0
##NPOINTS=1790
##XYDATA=(X++(Y..Y))
549.759 3.664 3.544 3.604 3.744 3.894 3.934 3.514 3.334 3.334 3.254
569.049 3.124 2.864 3.004 3.054 2.574 2.214 1.914 1.804 1.854 1.6356
588.339 1.5674 1.6579 1.6406 1.351 1.4092 1.794 1.734 1.954 2.494 3.164
607.628 3.914 5.184 7.054 9.844 14.064 19.914 27.894 36.904 46.094 54.944
626.918 62.774 68.654 72.364 74.244 74.084 72.004 67.944 61.344 52.424 42.894
646.208 34.494 27.774 23.004 19.874 17.314 15.484 14.384 13.384 12.454 11.364
665.498 10.454 10.144 9.954 9.744 9.504 9.284 9.404 9.714 9.904 10.214
684.787 10.504 11.034 11.804 12.564 13.554 14.574 15.694 16.924 18.164 19.394
704.077 20.474 21.674 22.704 23.604 24.314 24.654 25.024 25.064 24.894 24.774
723.367 24.284 23.714 23.234 22.794 22.384 21.874 21.584 21.554 21.734 22.424
742.657 23.434 24.744 26.594 28.844 31.484 34.464 37.504 40.634 44.024 47.444
761.947 50.414 52.794 54.744 55.854 56.134 55.694 54.634 53.294 51.074 48.254
781.236 45.404 42.644 40.104 37.564 35.624 34.344 33.444 33.034 33.234 34.114
800.526 35.474 37.634 40.654 44.454 48.944 54.514 61.344 69.634 79.704 91.244
819.816 104.614 119.864 136.894 155.824 176.364 198.524 222.714 247.994 273.374 298.564
839.106 323.154 346.044 365.154 379.044 385.944 384.304 374.454 357.044 332.634 304.344
858.395 274.774 245.164 217.214 191.944 169.344 149.754 133.014 118.994 107.304 97.204
877.685 89.014 82.014 76.024 71.314 67.234 63.474 59.784 56.394 53.364 50.474
896.975 47.764 44.874 41.914 39.224 36.744 34.594 32.614 30.354 28.344 26.724
916.265 25.274 24.154 23.254 22.474 21.894 21.544 21.484 21.554 21.674 22.014
935.555 22.424 22.954 23.574 24.184 25.024 26.204 27.464 28.944 30.794 33.384
954.844 36.604 40.054 43.934 47.624 51.214 54.414 56.534 57.934 58.394 57.644
974.134 55.884 53.094 49.504 45.304 40.474 35.634 31.124 26.884 23.544 21.504
993.424 19.884 19.014 18.674 18.164 17.714 17.234 17.044 16.624 15.654 14.544
1012.714 13.304 12.114 10.544 9.074 8.114 7.084 6.004 5.044 4.254 3.664
1032.003 3.334 3.204 3.084 2.994 2.774 2.684 2.944 2.704 2.534 2.694
1051.293 2.474 2.384 2.604 2.664 2.634 2.604 2.514 2.344 2.204 2.164
1070.583 2.034 1.744 1.724 1.764 1.4803 1.0871 0.8278 0.76494 0.9076 1.117
1089.873 0.9515 0.9166 0.8112 0.6062 0.75192 0.9536 0.8911 0.537 0.66775 0.9886
1109.163 0.9724 0.70504 0.67053 0.5917 0.9354 1.3084 1.1627 1.0733 0.8505 0.989
1128.452 0.9076 0.7877 0.72034 0.5905 0.453 0.489 0.6286 0.71865 0.9526 0.71013
1147.742 0.416 0.339 0.175 0.254 0.356 0.389 0.411 0.5849 0.72063 0.563
1167.032 0.475 0.601 0.6593 0.6393 0.544 0.419 0.5807 0.76526 0.8975 0.9452
1186.322 0.9987 1.0115 0.8757 1.0001 1.1804 1.2188 1.5668 1.894 1.994 2.274
1205.611 2.714 2.994 3.374 3.354 3.624 4.254 4.824 5.544 5.984 6.374
1224.901 6.844 7.764 8.924 9.794 11.104 13.184 15.564 18.764 23.124 28.424
1244.191 34.304 41.164 48.804 56.934 65.714 74.244 81.994 89.004 94.764 98.794
1263.481 101.294 101.734 99.124 93.854 86.734 78.324 69.524 60.294 50.924 42.584
1282.771 35.204 28.104 21.864 17.054 13.584 11.504 10.334 9.544 9.004 8.604
1302.060 8.264 7.984 7.864 7.814 7.664 7.474 7.374 7.334 7.134 6.994
1321.350 6.954 6.724 6.574 6.454 6.364 6.314 6.134 5.954 5.844 5.644
1340.640 5.294 5.034 4.794 4.584 4.384 4.134 3.964 3.794 3.554 3.374
1359.930 3.284 3.184 3.084 3.024 3.064 3.124 3.144 3.194 3.254 3.294
1379.219 3.384 3.584 3.734 3.824 4.004 4.244 4.474 4.694 4.914 5.164
1398.509 5.454 5.714 5.934 6.094 6.184 6.224 6.304 6.364 6.284 6.174
1417.799 6.074 5.834 5.564 5.344 5.104 4.844 4.604 4.374 4.084 3.904
1437.089 3.844 3.734 3.644 3.574 3.574 3.604 3.664 3.724 3.754 3.774
1456.378 3.784 3.754 3.714 3.674 3.594 3.504 3.444 3.354 3.254 3.104
1475.668 2.904 2.764 2.634 2.484 2.394 2.224 2.074 2.084 2.014 1.944
1494.958 1.894 1.804 1.724 1.724 1.754 1.684 1.714 1.774 1.754 1.734
1514.248 1.774 1.874 1.964 2.014 2.054 2.094 2.134 2.154 2.234 2.264
1533.538 2.264 2.344 2.384 2.394 2.394 2.374 2.374 2.304 2.244 2.214
1552.827 2.204 2.274 2.214 2.154 2.124 2.064 2.024 2.024 2.024 2.014
1572.117 1.914 1.814 1.854 1.894 1.874 1.874 1.844 1.804 1.854 1.894
1591.407 1.864 1.864 1.814 1.744 1.754 1.694 1.6321 1.684 1.704 1.6007
1610.697 1.6325 1.744 1.694 1.6284 1.5532 1.5292 1.6182 1.6074 1.539 1.5137
1629.986 1.4654 1.4596 1.4061 1.3706 1.4638 1.422 1.3 1.2307 1.1249 1.0909
1649.276 1.0949 1.0073 0.9481 0.8559 0.71204 0.70615 0.70818 0.68572 0.68514 0.66692
1668.566 0.6539 0.5954 0.546 0.571 0.552 0.55 0.56 0.537 0.529 0.511
1687.856 0.545 0.556 0.555 0.583 0.5923 0.6534 0.6439 0.6162 0.6477 0.6441
1707.146 0.6203 0.592 0.6184 0.6379 0.6199 0.6478 0.6328 0.5885 0.599 0.6185
1726.435 0.673703 0.73192 0.72126 0.69801 0.6636 0.675195 0.71439 0.71077 0.75407 0.7825
1745.725 0.803 0.8329 0.8573 0.9172 0.9468 0.9567 0.9724 1.0507 1.1213 1.1411
1765.015 1.1472 1.2383 1.2604 1.2369 1.3298 1.4089 1.4809 1.5294 1.5768 1.6499
1784.305 1.694 1.804 1.904 1.974 2.054 2.174 2.314 2.464 2.614 2.694
1803.594 2.874 3.014 3.144 3.314 3.444 3.604 3.714 3.884 4.084 4.234
1822.884 4.374 4.504 4.694 4.884 5.014 5.174 5.404 5.564 5.734 5.954
1842.174 6.094 6.214 6.384 6.544 6.744 6.894 7.034 7.224 7.394 7.574
1861.464 7.704 7.894 8.134 8.334 8.574 8.874 9.144 9.424 9.794 10.234
1880.754 10.744 11.274 11.854 12.464 13.124 13.824 14.524 15.274 16.054 16.894
1900.043 17.734 18.634 19.584 20.524 21.574 22.714 23.924 25.184 26.534 28.004
1919.333 29.664 31.444 33.444 35.654 38.054 40.824 43.844 47.134 50.754 54.594
1938.623 58.644 62.854 67.224 71.704 76.294 81.044 85.884 90.884 96.294 102.124
1957.913 108.344 115.164 122.374 130.014 138.114 146.234 154.084 161.474 168.014 173.484
1977.202 177.804 180.984 183.184 184.574 185.534 186.534 188.274 191.344 196.254 203.394
1996.492 213.074 225.674 241.434 260.264 281.864 306.164 332.864 361.744 392.614 425.034
2015.782 458.574 492.584 526.274 559.554 592.634 625.084 656.774 687.784 717.824 747.114
2035.072 776.234 804.874 832.484 858.744 881.584 900.044 914.444 925.784 932.554 933.444
2054.362 929.744 920.584 907.214 892.424 876.594 860.124 842.634 822.724 800.254 775.534
2073.651 748.734 718.954 685.264 646.274 600.464 549.294 494.984 438.854 382.094 326.124
2092.941 273.034 225.304 185.034 152.794 128.094 109.934 97.044 88.424 82.864 79.104
2112.231 76.464 74.644 73.444 72.724 72.294 71.714 70.534 68.554 65.874 62.704
2131.521 59.054 54.854 50.204 45.444 40.594 35.784 31.204 26.904 23.044 19.554
2150.810 16.554 14.104 12.074 10.304 8.834 7.724 6.804 6.124 5.574 5.074
2170.100 4.654 4.204 3.864 3.694 3.494 3.284 3.114 2.974 2.884 2.834
2189.390 2.864 2.914 2.914 3.004 3.114 3.164 3.294 3.404 3.384 3.254
2208.680 3.104 2.954 2.794 2.604 2.424 2.294 2.214 2.154 2.114 2.104
2227.970 2.084 2.134 2.184 2.274 2.304 2.294 2.394 2.494 2.544 2.574
2247.259 2.744 2.904 2.994 3.094 3.214 3.264 3.384 3.494 3.514 3.574
2266.549 3.674 3.694 3.674 3.744 3.874 3.864 3.894 3.914 3.794 3.794
2285.839 3.884 3.924 3.904 3.834 3.774 3.714 3.564 3.384 3.224 3.014
2305.129 2.834 2.704 2.554 2.354 2.124 1.964 1.864 1.754 1.644 1.5298
2324.418 1.48 1.327 1.1849 1.1447 1.0553 1.0105 1.0329 1.1033 1.104 1.0204
2343.708 0.9937 0.9373 0.8297 0.8037 0.8157 0.8368 0.8423 0.8233 0.8371 0.8145
2362.998 0.7612 0.76373 0.7673 0.75434 0.74973 0.73062 0.66979 0.6586 0.6305 0.574
2382.288 0.539 0.518 0.571 0.566 0.489 0.455 0.483 0.505 0.451 0.456
2401.578 0.459 0.465 0.46 0.462 0.542 0.5924 0.6552 0.6335 0.568 0.6637
2420.867 0.67232 0.72072 0.8692 0.8377 0.76886 0.7804 0.8559 0.8859 0.9583 1.0915
2440.157 1.1108 1.1362 1.2235 1.3487 1.3875 1.3858 1.5238 1.6071 1.714 1.824
2459.447 1.844 1.924 2.054 2.254 2.474 2.604 2.684 2.824 2.964 3.034
2478.737 3.194 3.464 3.704 3.874 4.124 4.484 4.834 5.034 5.294 5.674
2498.026 5.954 6.294 6.694 7.034 7.374 7.754 8.104 8.374 8.664 8.964
2517.316 9.194 9.314 9.364 9.404 9.424 9.474 9.424 9.394 9.374 9.294
2536.606 9.134 9.054 9.074 8.954 8.864 8.814 8.684 8.554 8.504 8.394
2555.896 8.214 8.084 7.964 7.894 7.814 7.914 8.194 8.404 8.604 8.804
2575.186 8.954 8.994 9.014 8.984 8.834 8.504 8.124 7.744 7.254 6.864
2594.475 6.424 5.914 5.564 5.294 4.974 4.734 4.624 4.494 4.354 4.294
2613.765 4.294 4.204 4.124 4.044 3.994 3.994 3.904 3.734 3.554 3.394
2633.055 3.194 3.024 2.904 2.664 2.364 2.264 2.264 2.164 2.154 2.134
2652.345 2.084 2.204 2.284 2.214 2.154 2.174 2.254 2.324 2.354 2.414
2671.634 2.374 2.374 2.344 2.274 2.384 2.504 2.494 2.384 2.264 2.284
2690.924 2.304 2.204 2.194 2.174 1.984 1.924 1.874 1.804 1.704 1.4945
2710.214 1.4832 1.4402 1.309 1.2423 1.1872 1.0476 0.932 0.8634 0.8183 0.7767
2729.504 0.70896 0.70934 0.68904 0.6377 0.6406 0.6175 0.6366 0.8052 0.8818 0.8188
2748.794 0.77262 0.7899 0.8515 0.8342 0.8732 0.974 0.9616 1.0633 1.1656 1.2061
2768.083 1.3005 1.3974 1.3554 1.3804 1.4901 1.5403 1.724 1.754 1.734 1.874
2787.373 1.934 1.944 2.054 2.194 2.374 2.494 2.504 2.624 2.734 2.674
2806.663 2.684 2.764 2.824 2.854 2.894 2.904 2.764 2.784 2.854 2.954
2825.953 3.094 2.934 2.874 2.984 3.144 3.144 3.124 3.124 3.024 3.164
2845.242 3.364 3.384 3.484 3.634 3.664 3.664 3.674 3.894 4.094 4.074
2864.532 3.944 3.944 4.244 4.414 4.534 4.674 4.704 5.004 5.164 5.294
2883.822 5.544 5.844 6.304 6.714 7.094 7.594 8.274 8.944 9.584 10.424
2903.112 11.154 11.614 12.004 12.324 12.364 12.174 11.864 11.514 11.084 10.364
2922.401 9.574 8.924 8.484 8.124 7.754 7.414 7.374 7.544 7.654 7.924
2941.691 8.524 9.424 10.584 12.144 14.324 17.134 20.704 25.164 30.414 36.024
2960.981 41.544 46.304 49.864 52.344 53.774 53.994 52.974 50.844 47.244 42.024
2980.271 36.334 30.974 26.164 22.424 19.314 16.494 14.214 12.224 10.494 9.204
2999.561 8.304 7.674 7.204 6.914 6.684 6.514 6.374 6.094 6.004 5.894
3018.850 5.564 5.254 5.264 5.274 5.074 5.024 5.114 5.114 5.134 5.204
3038.140 5.254 5.284 5.524 5.774 5.794 5.974 6.194 6.344 6.474 6.534
3057.430 6.474 6.544 6.644 6.584 6.584 6.554 6.484 6.484 6.384 6.234
3076.720 6.164 6.104 5.884 5.704 5.654 5.604 5.614 5.434 5.264 5.264
3096.009 5.134 4.954 4.864 4.804 4.654 4.544 4.464 4.384 4.364 4.174
3115.299 3.914 3.894 3.904 3.614 3.344 3.234 3.094 3.054 2.994 2.744
3134.589 2.534 2.344 2.104 1.964 1.924 1.884 1.754 1.774 1.714 1.6218
3153.879 1.684 1.6166 1.5771 1.6388 1.652 1.6448 1.6163 1.6441 1.734 1.724
3173.169 1.724 1.6105 1.4209 1.309 1.2041 1.1672 1.1757 1.1134 0.9755 0.8809
3192.458 0.8242 0.8092 0.77088 0.74552 0.7793 0.6541 0.523 0.46 0.6055 0.75866
3211.748 0.6657 0.73101 0.678771 0.5985 0.75437 0.66763 0.519 0.527 0.6387 0.6627
3231.038 0.5971 0.66539 0.8232 0.8782 0.8024 0.7755 0.8324 0.8526 0.8419 0.69842
3250.328 0.66552 0.73545 0.7634 0.70972 0.6471 0.5901 0.339 0.286 0.337 0.28
3269.617 0.197 0.18 0.303 0.389 0.239 0.146 0.163 0.128 0.189 0.367
3288.907 0.307 0.168 0.135 0.114 0.017 0.109 0.365 0.217 0.162 0.248
3308.197 0.183 0.215 0.238 0.053 0 0.07 0.153 0.319 0.252 0.112
3327.487 0.191 0.28 0.246 0.297 0.271 0.306 0.374 0.262 0.121 0.091
3346.777 0.101 0.062 0.041 0.046 0.033 0.076 0.137 0.184 0.336 0.352
3366.066 0.256 0.081 0.157 0.286 0.175 0.205 0.25 0.318 0.319 0.215
3385.356 0.232 0.235 0.228 0.345 0.393 0.418 0.452 0.408 0.257 0.053
3404.646 0.196 0.304 0.318 0.533 0.463 0.32 0.335 0.309 0.373 0.361
3423.936 0.232 0.281 0.244 0.068 0.28 0.408 0.268 0.304 0.337 0.436
3443.225 0.52 0.397 0.354 0.551 0.409 0.321 0.398 0.307 0.423 0.379
3462.515 0.404 0.56 0.465 0.307 0.335 0.529 0.537 0.337 0.407 0.54
3481.805 0.498 0.448 0.512 0.536 0.433 0.413 0.432 0.414 0.453 0.511
3501.095 0.526 0.599 0.566 0.547 0.6245 0.6082 0.6385 0.673521 0.6061 0.823
3520.385 1.0288 0.8921 0.677262 0.567 0.6329 0.6398 0.6309 0.8429 0.893 0.69141
3539.674 0.73723 0.8598 0.8674 0.75796 0.6638 0.6376 0.513 0.517 0.72396 0.8033
3558.964 0.76909 0.676086 0.5747 0.782 0.9828 0.8417 0.73185 0.8413 1.0428 1.1011
3578.254 1.1149 1.097 0.937 0.8299 0.8866 1.0161 0.9747 1.0501 1.1744 1.09
3597.544 1.0415 1.1033 1.111 1.0875 1.0234 1.0714 1.1797 1.1368 1.0833 1.0695
3616.833 1.1003 1.2675 1.2257 1.2778 1.3121 1.0785 1.138 1.0372 0.9894 1.0959
3636.123 1.1366 1.3611 1.5075 1.3523 1.298 1.3567 1.3321 1.3483 1.4335 1.4938
3655.413 1.5946 1.6182 1.5753 1.5585 1.6089 1.824 1.834 1.804 1.824 1.694
3674.703 1.774 1.844 1.814 1.714 1.5722 1.4926 1.6116 1.5525 1.3755 1.3591
3693.993 1.2466 1.1773 1.1645 1.0756 1.1311 1.2188 1.1749 1.2429 1.367 1.4453
3713.282 1.5007 1.4858 1.5637 1.6327 1.6403 1.724 1.714 1.804 1.764 1.6466
3732.572 1.714 1.994 2.184 1.964 1.864 1.934 1.924 2.064 2.254 2.224
3751.862 2.044 2.104 2.154 2.084 2.034 1.834 1.744 1.854 1.954 1.894
3771.152 1.6708 1.5704 1.5854 1.5599 1.5377 1.674 1.6351 1.5023 1.6269 1.6204
3790.441 1.5288 1.5311 1.5039 1.4298 1.4172 1.442 1.4978 1.4923 1.4561 1.5745
3809.731 1.6053 1.684 1.629 1.4445 1.5168 1.5307 1.517 1.6327 1.6388 1.6011
3829.021 1.694 1.5965 1.437 1.3435 1.254 1.3147 1.3437 1.2319 1.1361 1.162
3848.311 1.1036 0.9925 0.9916 1.0856 1.0749 0.8337 0.808 1.0665 1.1452 0.9505
3867.601 0.9653 1.0068 0.7882 0.8577 1.012 0.9529 1.0151 1.1639 1.1466 1.0247
3886.890 0.9685 1.0517 1.0281 1.149 1.2732 1.1261 1.0378 1.0253 1.1567 1.2009
3906.180 1.0565 1.0655 1.2122 1.1984 1.2324 1.4149 1.3644 1.2647 1.337 1.355
3925.470 1.3099 1.341 1.4513 1.4342 1.2986 1.3466 1.4904 1.704 1.804 1.764
3944.760 1.744 1.6409 1.684 1.754 1.6169 1.473 1.6157 1.864 1.934 1.884
3964.049 1.884 1.934 1.814 1.884 2.034 2.084 2.204 2.064 1.964 1.964
3983.339 1.934 2.094 2.294 2.424 2.434 2.424 2.484 2.524 2.604 2.694
##END=
