##TITLE=3-Aminobenzenethiol
##JCAMP-DX=4.24
##DATA TYPE=INFRARED SPECTRUM
##ORIGIN=NIST Mass Spectrometry Data Center
##OWNER=NIST Standard Reference Data Program
Collection (C) 2018 copyright by the U.S. Secretary of Commerce
on behalf of the United States of America. All rights reserved.
##CAS REGISTRY NO=22948-02-3
##MOLFORM=C 6 H 7 N S
##$NIST SOURCE=MSDC-IR
##SPECTROMETER/DATA SYSTEM=HP-GC/MS/IRD
##STATE=gas
##XUNITS=1/CM
##YUNITS=ABSORBANCE
##XFACTOR=1.0
##YFACTOR=0.000001800
##DELTAX=4.0
##FIRSTX=550.0
##LASTX=3846.0
##FIRSTY=0.000805
##MAXX=3846
##MINX=550
##MAXY=0.018
##MINY=0
##NPOINTS=825
##XYDATA=(X++(Y..Y))
550.0 447 612 472 514 535 531 488 477 460 444
590.0 478 463 472 521 518 507 545 584 630 695
630.0 809 963 1161 1420 1774 2286 2933 3610 4117 4416
670.0 4539 4689 4742 4132 3520 3147 2735 2345 1958 1621
710.0 1381 1220 1090 1017 986 996 1042 1195 1468 1838
750.0 2304 2809 3471 4082 4063 3527 2998 2576 2127 1696
790.0 1385 1147 1000 947 909 870 836 858 908 959
830.0 1034 1090 1137 1243 1336 1421 1451 1410 1402 1502
870.0 1655 1799 1872 1876 1793 1562 1228 884 678 611
910.0 567 585 594 550 530 509 470 429 374 337
950.0 331 335 338 322 305 339 400 441 528 649
990.0 698 706 698 657 517 358 274 246 235 228
1030.0 237 259 268 261 291 334 378 475 609 757
1070.0 950 1131 1249 1295 1281 1187 1050 942 832 728
1110.0 649 565 502 418 283 194 135 101 97 112
1150.0 197 353 481 519 549 545 440 277 137 54
1190.0 13 4 0 11 19 15 37 46 58 110
1230.0 181 296 480 743 1081 1478 1847 2074 2171 2217
1270.0 2162 1906 1623 1504 1492 1454 1365 1259 1133 981
1310.0 864 796 744 691 600 481 364 256 166 107
1350.0 90 93 76 74 95 119 154 190 220 260
1390.0 315 380 467 548 608 656 710 780 876 1019
1430.0 1208 1391 1491 1488 1517 1548 1492 1494 1712 2189
1470.0 2866 3584 4046 4136 3918 3454 2757 1994 1445 1179
1510.0 1085 1064 1055 1025 964 914 887 847 828 866
1550.0 945 1078 1284 1573 1982 2622 3590 4961 6679 8499
1590.0 9788 10000 9359 8453 7672 7278 7267 7338 7264 6910
1630.0 6092 4848 3546 2514 1791 1344 1064 887 802 751
1670.0 726 703 681 677 656 629 598 573 536 498
1710.0 464 442 413 377 353 327 304 281 262 250
1750.0 236 231 228 215 209 215 214 216 229 243
1790.0 253 256 261 276 284 283 285 274 268 268
1830.0 251 237 236 239 236 231 227 234 243 240
1870.0 232 245 256 255 267 292 318 338 353 365
1910.0 368 356 347 341 323 296 284 275 252 241
1950.0 251 249 240 239 230 209 208 220 224 225
1990.0 226 223 231 247 246 241 234 231 245 247
2030.0 252 258 262 268 266 263 261 274 256 234
2070.0 240 248 242 228 236 241 234 242 245 252
2110.0 250 242 256 261 258 269 264 265 284 276
2150.0 269 271 269 267 259 260 272 262 250 248
2190.0 245 245 251 240 232 231 228 231 227 239
2230.0 245 252 251 242 255 253 250 256 255 255
2270.0 260 266 270 269 268 263 248 249 265 267
2310.0 264 268 276 280 283 291 281 277 288 283
2350.0 270 275 288 291 286 279 285 294 285 272
2390.0 264 272 276 263 261 266 262 256 265 272
2430.0 268 266 258 253 247 246 253 267 271 273
2470.0 276 273 282 281 274 278 287 290 281 288
2510.0 297 293 296 296 299 315 313 308 317 326
2550.0 321 328 339 324 319 337 354 347 341 355
2590.0 357 347 342 335 318 309 305 294 287 278
2630.0 272 282 291 290 300 317 317 319 312 310
2670.0 325 330 330 332 328 309 311 325 342 347
2710.0 333 329 332 339 344 345 353 352 346 342
2750.0 332 322 314 321 323 316 311 313 323 317
2790.0 309 306 309 316 313 297 304 315 304 304
2830.0 318 325 332 350 353 348 344 342 340 342
2870.0 350 357 367 357 332 339 352 331 314 321
2910.0 336 334 336 338 328 327 327 339 351 348
2950.0 328 321 325 337 359 352 347 357 364 386
2990.0 408 439 521 613 705 825 962 1098 1188 1239
3030.0 1314 1403 1476 1551 1635 1727 1787 1799 1754 1655
3070.0 1550 1430 1308 1222 1119 1007 884 772 679 578
3110.0 488 431 394 365 341 327 322 306 307 303
3150.0 305 333 327 311 340 339 328 343 353 351
3190.0 349 353 363 387 406 427 433 436 432 406
3230.0 393 406 403 359 325 348 343 334 342 320
3270.0 308 330 337 314 300 298 309 304 296 309
3310.0 294 265 282 301 313 309 301 295 287 287
3350.0 289 291 309 333 317 314 356 397 437 503
3390.0 594 691 806 935 1030 1070 1088 1080 1010 915
3430.0 853 752 622 535 467 412 397 405 430 480
3470.0 549 601 661 754 820 831 837 835 808 776
3510.0 729 675 624 557 468 398 375 347 310 294
3550.0 276 297 293 268 284 279 262 257 257 255
3590.0 245 229 237 258 281 274 264 279 265 276
3630.0 308 311 293 268 281 294 257 236 258 266
3670.0 276 285 276 252 257 286 285 277 278 291
3710.0 307 284 286 303 304 317 326 316 320 316
3750.0 300 310 304 305 312 319 335 316 314 322
3790.0 309 313 312 299 296 293 281 281 278 280
3830.0 306 335 372 376 382
##END=
