##TITLE=9-Ethylfluorene
##JCAMP-DX=4.24
##DATA TYPE=INFRARED SPECTRUM
##ORIGIN=NIST Mass Spectrometry Data Center
##OWNER=NIST Standard Reference Data Program
Collection (C) 2018 copyright by the U.S. Secretary of Commerce
on behalf of the United States of America. All rights reserved.
##CAS REGISTRY NO=2294-82-8
##MOLFORM=C 15 H 14
##$NIST SOURCE=MSDC-IR
##SPECTROMETER/DATA SYSTEM=HP-GC/MS/IRD
##STATE=gas
##XUNITS=1/CM
##YUNITS=ABSORBANCE
##XFACTOR=1.0
##YFACTOR=0.000007100
##DELTAX=4.0
##FIRSTX=550.0
##LASTX=3846.0
##FIRSTY=0.002343
##MAXX=3846
##MINX=550
##MAXY=0.071
##MINY=0
##NPOINTS=825
##XYDATA=(X++(Y..Y))
550.0 330 175 68 61 51 63 65 82 103 85
590.0 69 42 19 4 6 68 286 546 659 626
630.0 388 168 133 163 210 242 303 377 315 200
670.0 135 89 82 77 75 79 79 84 121 173
710.0 271 495 1059 2353 4510 7189 9750 10000 7953 6083
750.0 4240 2718 1967 1337 816 483 258 152 102 69
790.0 60 58 58 68 92 111 141 172 160 146
830.0 152 168 191 185 150 117 98 100 119 139
870.0 145 132 107 82 71 78 88 96 109 119
910.0 124 134 137 144 163 198 216 158 95 44
950.0 19 15 12 12 15 31 47 56 83 146
990.0 227 294 348 392 402 381 349 352 441 525
1030.0 528 428 284 192 155 142 134 123 110 99
1070.0 88 81 80 79 92 123 179 249 286 265
1110.0 195 112 57 31 17 16 23 35 93 185
1150.0 258 307 324 339 369 365 319 273 278 297
1190.0 298 261 195 145 113 104 110 127 153 171
1230.0 175 173 158 146 142 145 154 160 161 163
1270.0 157 172 220 283 349 376 354 312 283 309
1310.0 425 576 656 635 543 440 403 410 326 214
1350.0 150 111 112 145 144 192 312 429 538 633
1390.0 578 460 369 278 258 268 316 397 416 448
1430.0 572 855 1322 1987 2861 3432 3454 2894 1970 1379
1470.0 1284 1304 1171 899 591 364 242 195 176 254
1510.0 282 218 213 197 146 116 110 130 156 133
1550.0 113 131 174 145 126 182 257 344 378 391
1590.0 382 381 399 416 391 318 240 172 120 90
1630.0 75 100 107 109 131 152 161 139 161 203
1670.0 220 204 163 157 144 104 123 171 169 146
1710.0 141 170 171 112 95 138 166 126 109 127
1750.0 152 133 108 97 116 144 137 140 172 205
1790.0 252 286 292 287 219 158 123 112 126 161
1830.0 187 186 165 151 129 94 97 141 196 236
1870.0 223 157 103 88 120 191 283 362 381 332
1910.0 236 148 113 114 160 264 379 427 379 249
1950.0 119 63 42 32 30 26 24 23 17 17
1990.0 27 21 9 9 6 4 13 19 12 8
2030.0 10 13 15 11 8 11 8 6 12 12
2070.0 7 5 5 6 7 8 7 8 10 10
2110.0 11 10 6 5 4 4 5 4 4 7
2150.0 10 10 11 6 5 4 1 1 3 6
2190.0 9 8 4 8 10 11 13 11 15 17
2230.0 14 11 7 11 16 21 25 30 28 22
2270.0 16 13 11 10 11 17 24 30 40 46
2310.0 49 43 30 20 11 5 2 0 1 6
2350.0 6 0 0 0 0 0 0 3 15 21
2390.0 21 20 25 30 32 35 33 30 29 27
2430.0 30 32 33 31 36 36 35 32 26 29
2470.0 34 37 43 45 47 50 49 47 40 34
2510.0 37 37 34 34 35 36 37 36 35 36
2550.0 33 32 31 28 27 24 24 28 33 38
2590.0 41 45 51 57 57 56 60 62 67 67
2630.0 60 56 51 51 51 48 49 54 63 72
2670.0 70 67 64 58 51 45 43 41 40 40
2710.0 42 46 47 50 51 54 62 69 74 79
2750.0 81 79 77 76 77 78 81 90 99 109
2790.0 116 122 131 137 142 143 138 137 144 154
2830.0 167 182 206 234 272 330 439 632 929 1288
2870.0 1668 2079 2475 2633 2437 2049 1596 1246 1078 1053
2910.0 1127 1303 1665 2253 2911 3398 3514 3262 2872 2470
2950.0 2090 1834 1838 2181 2894 3544 3683 3380 2630 1842
2990.0 1309 961 796 789 925 1200 1583 1969 2230 2306
3030.0 2229 2141 2167 2286 2401 2471 2575 2941 3735 4703
3070.0 5263 5022 4080 2976 2196 1749 1408 1075 755 506
3110.0 354 253 197 165 154 162 166 167 178 184
3150.0 190 197 198 190 169 139 109 79 66 62
3190.0 65 65 50 44 51 56 60 56 50 43
3230.0 42 41 31 26 15 16 28 26 19 13
3270.0 14 19 24 14 9 19 16 13 15 12
3310.0 13 10 8 11 12 12 9 6 1 8
3350.0 14 8 8 2 4 9 0 5 7 4
3390.0 4 5 11 11 4 4 7 2 2 4
3430.0 1 2 2 9 19 9 5 14 12 4
3470.0 7 10 17 19 12 6 3 24 42 32
3510.0 24 15 14 39 38 5 9 13 29 53
3550.0 33 21 21 45 94 66 16 10 19 66
3590.0 66 36 31 16 36 62 61 66 33 57
3630.0 88 36 19 25 64 90 50 31 13 23
3670.0 56 65 44 20 40 50 28 32 37 34
3710.0 63 62 30 52 68 51 97 81 69 85
3750.0 67 53 37 38 37 36 23 20 21 26
3790.0 28 27 39 51 41 31 35 40 41 33
3830.0 32 45 52 44 14
##END=
