##TITLE=1,1,1,2-Tetraphenylethane
##JCAMP-DX=4.24
##DATA TYPE=INFRARED SPECTRUM
##ORIGIN=NIST Mass Spectrometry Data Center
##OWNER=NIST Standard Reference Data Program
Collection (C) 2018 copyright by the U.S. Secretary of Commerce
on behalf of the United States of America. All rights reserved.
##CAS REGISTRY NO=2294-94-2
##MOLFORM=C 26 H 22
##$NIST SOURCE=MSDC-IR
##SPECTROMETER/DATA SYSTEM=HP-GC/MS/IRD
##STATE=gas
##XUNITS=1/CM
##YUNITS=ABSORBANCE
##XFACTOR=1.0
##YFACTOR=0.000003100
##DELTAX=4.0
##FIRSTX=550.0
##LASTX=3846.0
##FIRSTY=0.004988
##MAXX=3846
##MINX=550
##MAXY=0.031
##MINY=0
##NPOINTS=825
##XYDATA=(X++(Y..Y))
550.0 1609 1438 1317 1469 1285 937 619 450 427 415
590.0 424 520 740 1473 2690 3139 2139 956 499 378
630.0 314 315 326 334 358 378 441 541 649 870
670.0 1102 1252 1420 1775 2708 5055 8507 10000 8011 4902
710.0 2839 1792 1309 1102 1128 1628 2945 4468 4591 3179
750.0 1715 992 695 536 446 395 358 321 297 277
790.0 241 214 208 232 216 183 155 137 133 107
830.0 89 85 75 66 44 31 49 47 32 47
870.0 65 78 76 70 75 87 119 172 229 269
910.0 287 282 264 209 142 113 96 82 70 71
950.0 59 55 81 90 95 104 132 150 154 151
990.0 148 173 231 286 307 305 297 343 487 796
1030.0 1150 1102 666 315 184 150 149 199 329 550
1070.0 759 751 541 323 182 117 109 116 132 140
1110.0 121 97 63 56 48 38 45 42 43 48
1150.0 52 37 40 58 68 100 141 177 214 223
1190.0 188 153 148 164 184 182 157 134 134 143
1230.0 139 130 115 89 60 28 23 45 66 82
1270.0 81 92 117 117 113 110 91 81 71 66
1310.0 86 121 133 130 148 188 286 354 251 158
1350.0 150 133 151 194 174 193 223 198 174 188
1390.0 182 186 202 167 146 138 185 256 245 227
1430.0 267 393 522 689 1061 1350 1275 862 476 354
1470.0 388 496 602 864 1464 2321 2929 2777 1936 1158
1510.0 707 439 359 338 299 264 238 230 243 212
1550.0 178 201 246 251 271 347 461 631 838 1068
1590.0 1306 1580 1755 1609 1183 748 458 301 214 168
1630.0 143 143 136 138 175 203 217 181 149 144
1670.0 133 122 130 151 140 108 130 172 163 134
1710.0 130 191 212 156 149 227 282 240 217 241
1750.0 262 220 184 174 211 249 260 312 417 497
1790.0 520 475 388 343 268 226 198 165 152 150
1830.0 145 140 144 174 192 177 180 224 260 285
1870.0 287 260 263 253 227 198 167 140 122 121
1910.0 129 147 184 224 288 394 457 423 366 355
1950.0 383 344 227 129 95 90 79 71 69 68
1990.0 73 60 43 50 48 42 44 47 44 39
2030.0 39 42 40 38 39 42 37 29 33 45
2070.0 39 35 41 36 35 36 33 31 26 21
2110.0 29 33 29 22 21 26 32 34 33 33
2150.0 33 29 30 31 30 30 32 39 44 41
2190.0 34 31 31 38 39 33 33 37 33 32
2230.0 38 34 29 29 30 32 44 46 42 48
2270.0 51 54 57 62 69 77 95 111 130 157
2310.0 194 225 221 225 239 242 250 249 235 203
2350.0 188 224 272 294 287 258 207 154 109 74
2390.0 57 53 56 55 58 64 63 60 63 61
2430.0 56 53 48 47 49 46 42 43 45 54
2470.0 56 45 42 44 43 40 43 44 41 46
2510.0 51 48 44 45 51 52 51 41 42 46
2550.0 46 47 48 51 50 56 60 65 63 59
2590.0 58 63 70 64 59 58 55 56 55 55
2630.0 62 71 67 50 47 50 45 44 51 46
2670.0 42 45 44 36 26 22 27 32 38 42
2710.0 42 36 30 30 30 37 40 32 32 41
2750.0 45 42 49 58 63 61 59 71 72 69
2790.0 67 67 71 71 68 66 58 50 56 56
2830.0 52 62 75 78 94 114 121 122 120 122
2870.0 132 145 155 169 190 218 256 310 389 500
2910.0 653 800 827 715 559 430 352 292 237 204
2950.0 199 187 175 181 176 167 173 186 206 233
2990.0 270 331 428 557 693 835 1061 1510 2265 3257
3030.0 4049 4079 3397 2675 2297 2171 2262 2736 3719 4949
3070.0 5436 4565 3319 2763 2665 2460 2004 1536 1239 1066
3110.0 900 690 497 362 281 235 209 182 163 152
3150.0 155 166 171 162 144 132 112 86 76 71
3190.0 79 80 68 74 78 76 72 61 51 54
3230.0 60 61 66 62 51 49 54 66 60 55
3270.0 49 50 58 52 46 45 45 40 38 47
3310.0 48 36 31 43 46 45 49 35 34 47
3350.0 52 46 37 29 44 45 31 30 37 48
3390.0 32 21 24 27 24 7 0 23 43 33
3430.0 32 46 44 42 51 44 38 41 33 29
3470.0 20 19 43 56 47 43 41 56 79 76
3510.0 59 44 50 81 80 40 45 35 58 112
3550.0 68 36 38 71 134 95 24 21 51 123
3590.0 117 79 61 40 79 111 98 106 81 101
3630.0 134 90 66 57 97 132 100 58 29 56
3670.0 88 78 61 53 69 72 62 58 57 63
3710.0 86 97 74 98 113 84 122 103 92 86
3750.0 44 44 34 28 26 14 3 1 12 36
3790.0 31 23 28 22 25 15 17 23 20 7
3830.0 8 35 52 47 21
##END=
