##TITLE=5-(2-Thienoyl)butyric acid
##JCAMP-DX=4.24
##DATA TYPE=INFRARED SPECTRUM
##ORIGIN=EPA-IR VAPOR PHASE LIBRARY
##OWNER=SRD/NIST
Collection (C) 2018 copyright by the U.S. Secretary of Commerce
on behalf of the United States of America. All rights reserved.
##CAS REGISTRY NO=22971-62-6
##MOLFORM=C 9 H 10 O 3 S
##$NIST SOURCE=MSDC-IR
##STATE=gas
##XUNITS=1/CM
##YUNITS=ABSORBANCE
##XFACTOR=1.
##YFACTOR=0.001
##DELTAX=1.929
##FIRSTX=549.8
##LASTX=4000.8
##FIRSTY=7.462
##MAXX=4000.75
##MINX=549.766
##MAXY=0.040692
##MINY=0
##NPOINTS=1790
##XYDATA=(X++(Y..Y))
549.766 7.462 7.742 7.882 8.132 8.392 8.682 8.842 8.772 8.662 8.582
569.056 8.222 8.142 8.562 8.672 8.332 7.972 8.132 8.492 8.402 8.212
588.346 8.242 8.322 8.232 8.062 8.182 8.532 8.682 8.562 8.452 8.582
607.636 8.672 8.492 8.422 8.402 8.312 8.142 7.892 7.892 7.752 7.522
626.926 7.562 7.542 7.362 7.182 7.092 7.012 6.632 6.292 6.102 5.912
646.216 5.832 5.532 5.232 4.952 4.772 4.732 4.712 4.612 4.432 4.402
665.506 4.482 4.462 4.212 4.092 4.022 3.932 3.992 4.062 3.972 3.912
684.796 4.032 4.132 4.372 4.522 4.792 5.422 6.232 7.252 8.492 10.182
704.086 12.272 14.442 16.692 18.892 20.452 21.362 21.212 19.692 17.532 15.152
723.376 12.862 10.762 9.012 7.612 6.502 5.682 5.182 4.862 4.642 4.532
742.666 4.312 4.282 4.262 4.262 4.252 4.172 4.202 4.262 4.092 3.742
761.956 3.572 3.522 3.412 3.382 3.372 3.392 3.532 3.592 3.612 3.802
781.246 3.922 3.992 4.192 4.442 4.682 4.862 5.112 5.312 5.372 5.242
800.536 5.122 4.982 4.622 4.222 3.872 3.592 3.382 3.352 3.252 3.242
819.826 3.432 3.372 3.322 3.602 3.952 4.172 4.442 4.832 5.172 5.552
839.116 5.802 5.952 6.132 6.262 6.512 6.862 7.172 7.342 7.392 7.292
858.406 6.922 6.352 5.672 5.002 4.382 3.772 3.352 3.112 2.892 2.822
877.696 2.672 2.552 2.532 2.442 2.482 2.492 2.412 2.372 2.362 2.282
896.986 2.362 2.372 2.212 2.232 2.282 2.322 2.322 2.352 2.472 2.522
916.276 2.532 2.652 2.792 2.952 3.112 3.272 3.462 3.572 3.762 3.942
935.566 4.072 4.162 4.052 3.982 4.042 4.152 4.202 4.232 4.312 4.322
954.856 4.292 4.232 4.092 4.042 3.962 3.792 3.692 3.682 3.642 3.642
974.146 3.672 3.582 3.572 3.702 3.772 3.772 3.872 3.982 4.002 3.942
993.436 3.912 4.072 4.172 4.202 4.312 4.472 4.712 4.922 5.032 5.142
1012.726 5.252 5.292 5.372 5.502 5.672 5.922 6.262 6.662 7.132 7.622
1032.016 7.982 8.222 8.382 8.512 8.672 8.832 8.942 9.072 9.272 9.442
1051.306 9.642 9.822 9.812 9.682 9.402 8.982 8.622 8.362 8.052 7.692
1070.596 7.572 7.682 7.842 8.312 8.932 9.322 9.672 10.042 10.342 10.572
1089.886 10.752 11.062 11.512 12.062 12.972 14.132 15.392 16.922 18.722 20.812
1109.176 23.142 25.562 28.042 30.292 32.012 33.132 33.332 32.642 31.342 29.562
1128.467 27.472 25.302 23.142 21.212 19.752 18.492 17.382 16.532 15.832 15.332
1147.757 14.842 14.512 14.322 14.192 14.212 14.112 14.082 14.232 14.282 14.292
1167.047 14.352 14.332 14.222 14.052 13.872 13.712 13.652 13.582 13.442 13.402
1186.337 13.272 13.162 13.182 13.112 13.032 12.992 12.912 12.832 12.692 12.682
1205.627 12.652 12.542 12.472 12.342 12.272 12.252 12.412 12.662 13.002 13.612
1224.917 14.422 15.552 17.022 18.592 19.982 20.882 21.332 21.322 20.752 19.572
1244.207 17.972 16.572 15.532 14.572 13.792 13.182 12.582 12.082 11.702 11.352
1263.497 10.942 10.552 10.172 9.822 9.532 9.172 8.912 8.672 8.292 8.012
1282.787 7.822 7.632 7.492 7.382 7.232 7.142 7.112 7.162 7.142 7.082
1302.077 7.122 7.082 7.052 7.032 6.932 6.812 6.832 6.822 6.742 6.622
1321.367 6.472 6.342 6.252 6.222 6.202 6.272 6.412 6.622 6.872 7.142
1340.657 7.612 8.162 8.732 9.502 10.362 11.212 12.052 12.752 13.212 13.472
1359.947 13.462 13.182 12.662 12.112 11.592 11.052 10.582 10.132 9.752 9.522
1379.237 9.372 9.232 9.052 9.032 8.972 8.892 8.892 8.792 8.752 8.882
1398.527 9.172 9.652 10.432 11.602 13.132 15.092 17.242 19.292 20.872 21.602
1417.817 21.372 20.342 18.682 16.442 13.972 11.882 10.262 9.022 8.072 7.332
1437.107 6.652 6.132 5.842 5.632 5.392 5.242 5.212 5.172 5.042 4.852
1456.397 4.592 4.302 4.032 3.752 3.482 3.212 3.002 2.802 2.602 2.502
1475.687 2.472 2.502 2.562 2.642 2.742 2.862 2.932 2.962 3.002 3.022
1494.977 3.062 3.222 3.452 3.892 4.462 5.132 6.162 7.282 8.332 9.182
1514.267 9.632 9.662 9.172 8.342 7.122 5.922 4.842 4.002 3.422 3.062
1533.557 2.882 2.782 2.842 2.872 2.882 2.902 2.872 2.922 2.882 2.742
1552.847 2.652 2.512 2.382 2.262 2.162 2.092 1.992 1.882 1.812 1.812
1572.137 1.762 1.732 1.762 1.682 1.612 1.702 1.782 1.832 1.902 1.912
1591.427 1.892 1.832 1.792 1.822 1.812 1.712 1.672 1.662 1.672 1.672
1610.717 1.602 1.672 1.782 1.792 1.802 1.762 1.722 1.732 1.742 1.732
1630.007 1.752 1.802 1.862 1.982 2.132 2.262 2.372 2.462 2.682 2.902
1649.297 3.092 3.352 3.712 4.042 4.462 5.042 5.732 6.602 7.662 8.932
1668.587 10.562 12.522 14.742 17.152 19.912 22.622 25.242 27.592 29.512 30.922
1687.877 31.522 31.322 30.152 28.282 25.692 22.792 19.872 16.662 14.042 11.672
1707.167 9.832 8.392 7.312 6.552 6.062 5.732 5.602 5.592 5.722 5.942
1726.457 6.192 6.472 6.902 7.382 7.902 8.482 9.142 9.942 10.762 11.672
1745.747 12.672 13.832 15.042 16.402 17.952 19.552 21.362 23.272 25.402 27.802
1765.037 30.282 32.802 35.252 37.392 39.152 40.282 40.692 40.222 38.882 36.922
1784.327 34.522 31.932 29.412 26.982 24.692 22.572 20.642 18.832 17.102 15.342
1803.617 13.742 12.292 10.952 9.692 8.542 7.522 6.662 5.882 5.262 4.732
1822.907 4.232 3.762 3.392 3.132 2.812 2.552 2.362 2.162 2.002 1.892
1842.197 1.772 1.612 1.512 1.4285 1.3226 1.2697 1.2505 1.1882 1.1311 1.0981
1861.487 1.0493 1.0312 1.0365 1.014 0.9908 0.9604 0.9548 0.9374 0.8778 0.8544
1880.777 0.8261 0.8268 0.8137 0.7617 0.749 0.764 0.8109 0.8091 0.7871 0.7913
1900.067 0.8137 0.8032 0.7449 0.7197 0.7457 0.8032 0.7877 0.7547 0.7389 0.6989
1919.357 0.6426 0.6037 0.6684 0.6947 0.6634 0.6352 0.6224 0.653 0.6239 0.5809
1938.647 0.57916 0.56741 0.57542 0.6042 0.5903 0.58806 0.53634 0.50294 0.54952 0.55104
1957.937 0.56322 0.54719 0.54578 0.57365 0.54682 0.499491 0.48274 0.4694 0.51668 0.55012
1977.227 0.48604 0.4599 0.4763 0.501844 0.4733 0.4564 0.4803 0.4796 0.500744 0.4348
1996.517 0.368 0.388 0.4235 0.3949 0.347 0.3986 0.4371 0.4238 0.4363 0.4222
2015.807 0.378 0.367 0.372 0.392 0.3997 0.346 0.331 0.368 0.352 0.343
2035.097 0.328 0.331 0.378 0.386 0.348 0.337 0.329 0.288 0.29 0.337
2054.387 0.358 0.31 0.297 0.348 0.336 0.315 0.327 0.309 0.323 0.347
2073.677 0.358 0.36 0.38 0.373 0.327 0.35 0.388 0.365 0.356 0.384
2092.967 0.39 0.3921 0.381 0.352 0.328 0.313 0.32 0.339 0.321 0.336
2112.257 0.359 0.331 0.285 0.308 0.332 0.311 0.329 0.335 0.3 0.294
2131.547 0.322 0.333 0.295 0.289 0.314 0.31 0.343 0.361 0.336 0.312
2150.837 0.293 0.317 0.38 0.382 0.363 0.4052 0.429 0.4254 0.4295 0.4122
2170.127 0.4043 0.382 0.33 0.362 0.374 0.315 0.333 0.334 0.301 0.34
2189.417 0.323 0.298 0.314 0.291 0.272 0.243 0.263 0.317 0.327 0.309
2208.707 0.3 0.305 0.328 0.31 0.261 0.263 0.294 0.299 0.318 0.301
2227.997 0.283 0.282 0.315 0.387 0.344 0.286 0.271 0.243 0.268 0.3
2247.287 0.304 0.318 0.333 0.281 0.236 0.274 0.282 0.25 0.219 0.251
2266.577 0.264 0.273 0.302 0.278 0.289 0.307 0.275 0.241 0.232 0.229
2285.868 0.222 0.235 0.256 0.256 0.252 0.239 0.251 0.233 0.202 0.229
2305.158 0.205 0.226 0.297 0.273 0.279 0.279 0.219 0.216 0.164 0.146
2324.448 0.229 0.297 0.245 0.203 0.229 0.219 0.206 0.24 0.254 0.197
2343.738 0.159 0.139 0.177 0.167 0.154 0.213 0.222 0.216 0.189 0.199
2363.028 0.212 0.204 0.258 0.265 0.164 0.154 0.219 0.238 0.222 0.213
2382.318 0.231 0.191 0.206 0.226 0.185 0.176 0.211 0.235 0.234 0.231
2401.608 0.225 0.175 0.154 0.205 0.203 0.169 0.176 0.208 0.24 0.259
2420.898 0.25 0.241 0.23 0.214 0.223 0.25 0.285 0.265 0.256 0.284
2440.188 0.241 0.225 0.298 0.26 0.208 0.22 0.231 0.283 0.292 0.263
2459.478 0.244 0.233 0.225 0.256 0.234 0.259 0.268 0.201 0.176 0.107
2478.768 0.089 0.122 0.18 0.195 0.223 0.199 0.08 0.108 0.103 0.047
2498.058 0.104 0.146 0.137 0.113 0.145 0.16 0.152 0.134 0.142 0.146
2517.348 0.09 0.124 0.091 0.042 0.074 0.095 0.068 0.086 0.188 0.17
2536.638 0.15 0.146 0.107 0.132 0.102 0.068 0.099 0.071 0.057 0.049
2555.928 0 0.003 0.031 0.017 0.025 0.092 0.085 0.152 0.223 0.139
2575.218 0.101 0.105 0.087 0.079 0.117 0.089 0.048 0.09 0.086 0.019
2594.508 0.025 0.112 0.153 0.064 0.029 0.053 0.04 0.048 0.031 0.073
2613.798 0.142 0.193 0.186 0.139 0.12 0.119 0.135 0.096 0.075 0.097
2633.088 0.122 0.125 0.109 0.12 0.193 0.197 0.176 0.201 0.116 0.076
2652.378 0.13 0.078 0.078 0.175 0.209 0.172 0.069 0.052 0.145 0.166
2671.668 0.151 0.125 0.102 0.09 0.09 0.137 0.103 0.064 0.108 0.107
2690.958 0.088 0.145 0.11 0.086 0.117 0.143 0.165 0.12 0.109 0.109
2710.248 0.137 0.167 0.228 0.26 0.201 0.168 0.143 0.063 0.043 0.074
2729.538 0.099 0.137 0.067 0.052 0.156 0.199 0.168 0.091 0.011 0.085
2748.828 0.13 0.135 0.219 0.276 0.223 0.203 0.183 0.074 0.121 0.138
2768.118 0.101 0.13 0.196 0.24 0.192 0.118 0.135 0.182 0.22 0.221
2787.408 0.248 0.234 0.21 0.179 0.186 0.308 0.304 0.236 0.184 0.244
2806.698 0.263 0.293 0.4124 0.4187 0.4125 0.52556 0.50892 0.468 0.52876 0.50209
2825.988 0.4802 0.5171 0.57889 0.53177 0.4827 0.54817 0.53755 0.4679 0.4747 0.48933
2845.278 0.55868 0.6205 0.7071 0.6988 0.7019 0.7634 0.8085 0.8641 0.8948 0.9259
2864.568 0.9282 0.9875 1.0179 1.0802 1.106 1.1474 1.2312 1.3534 1.4263 1.4388
2883.858 1.492 1.532 1.552 1.582 1.622 1.732 1.792 1.882 2.062 2.222
2903.148 2.422 2.652 2.732 2.832 3.042 3.042 3.002 3.022 3.042 3.212
2922.438 3.372 3.472 3.592 3.682 3.852 3.962 4.032 4.252 4.422 4.592
2941.728 4.702 4.902 5.042 5.072 5.152 5.072 4.982 4.992 4.982 5.102
2961.018 5.132 5.102 5.092 4.992 4.972 4.792 4.542 4.442 4.282 4.082
2980.308 3.802 3.462 3.152 2.952 2.762 2.522 2.302 2.072 1.812 1.652
2999.598 1.612 1.532 1.502 1.4243 1.2423 1.0994 1.1358 1.1642 1.038 0.9353
3018.888 0.9489 0.9537 0.8675 0.8486 0.7802 0.6768 0.8347 0.9397 0.8112 0.7222
3038.178 0.6988 0.7428 0.7207 0.709 0.7884 0.7858 0.7133 0.7158 0.736 0.6597
3057.468 0.62 0.6743 0.58933 0.55949 0.6315 0.7455 0.8498 0.8822 1.052 1.2227
3076.758 1.38 1.4644 1.672 1.912 1.982 1.902 1.832 1.792 1.722 1.662
3096.048 1.522 1.3472 1.2408 1.2058 1.1297 1.0383 0.9888 0.987 1.0238 0.9851
3115.338 0.8356 0.9081 0.9135 0.7594 0.7195 0.7023 0.6671 0.58977 0.5923 0.694
3134.628 0.662 0.6009 0.54619 0.50396 0.57092 0.6826 0.7052 0.5944 0.57755 0.683
3153.918 0.7276 0.623 0.56019 0.58282 0.5599 0.57605 0.57627 0.50369 0.48 0.494771
3173.208 0.6229 0.6953 0.6349 0.6237 0.6089 0.57409 0.52138 0.55718 0.6861 0.7123
3192.498 0.5959 0.57607 0.6198 0.58373 0.6002 0.6445 0.51312 0.48772 0.6402 0.6949
3211.788 0.6029 0.54025 0.53594 0.6328 0.6883 0.56453 0.55354 0.706 0.7782 0.6915
3231.078 0.7327 0.7618 0.8782 0.9449 0.7354 0.715 0.8248 0.7566 0.6459 0.633
3250.368 0.6916 0.6789 0.6618 0.6987 0.7606 0.8048 0.8537 0.8613 0.891 0.8769
3269.658 0.6754 0.6965 0.7438 0.6691 0.6693 0.7528 0.7559 0.7867 0.8148 0.7722
3288.948 0.8698 0.946 0.8108 0.7637 0.8951 0.8928 0.8246 0.8679 0.8793 0.8906
3308.238 0.9523 0.9491 0.8819 0.7626 0.8661 1.0709 0.9305 0.8159 0.9518 0.9546
3327.528 0.9429 0.9593 0.9662 0.9777 0.9816 0.9698 0.9714 1.0552 1.0824 1.1157
3346.818 1.2504 1.3173 1.267 1.1153 1.0996 1.2145 1.2784 1.301 1.3002 1.3483
3366.108 1.2877 1.0846 1.04 1.1781 1.1989 1.2214 1.2492 1.1692 1.1918 1.1436
3385.398 1.0658 0.9748 0.9494 0.9871 0.9112 0.8656 0.8649 0.8998 0.921 0.9711
3404.688 1.1061 1.1772 1.1556 1.0649 0.9938 1.0549 1.0555 0.9725 0.9657 1.0018
3423.978 1.0123 0.9538 0.9676 1.1618 1.2011 1.0962 1.0395 1.0394 1.1064 1.12
3443.269 0.9776 0.9045 0.9574 1.0642 1.0954 0.9417 0.8294 0.8944 0.9597 0.9917
3462.559 1.0732 1.1136 1.0679 1.0244 1.0622 1.0213 1.0224 1.1318 1.1242 1.1653
3481.849 1.1725 1.1271 1.2008 1.169 1.1848 1.2245 1.1917 1.1986 1.1105 1.1066
3501.139 1.1392 1.2118 1.295 1.2033 1.2663 1.4234 1.3246 1.3127 1.4391 1.4524
3520.429 1.4457 1.4309 1.4384 1.4368 1.542 1.692 1.772 1.742 1.602 1.722
3539.719 1.942 2.122 2.232 2.212 2.332 2.492 2.722 3.102 3.632 4.202
3559.009 4.922 5.832 7.112 8.892 11.272 14.022 16.492 18.092 18.592 18.162
3578.299 16.892 14.792 11.912 9.052 6.892 5.452 4.522 3.812 3.242 2.792
3597.589 2.422 2.172 1.962 1.752 1.752 1.712 1.602 1.602 1.542 1.4414
3616.879 1.3475 1.2389 1.2702 1.2804 1.267 1.3728 1.3095 1.2395 1.2205 1.2493
3636.169 1.2483 1.1418 1.2123 1.2155 1.1207 1.1784 1.2056 1.1846 1.1948 1.1343
3655.459 1.1539 1.0684 0.9696 1.0852 1.1469 1.0959 1.0851 1.0472 1.0837 1.1219
3674.749 1.1352 1.1199 0.9253 0.8442 0.9345 0.9258 1.0148 1.1313 1.0502 1.0446
3694.039 1.0332 1.0724 1.1039 1.0144 1.0056 1.0363 1.0308 1.0504 1.015 0.8897
3713.329 0.9057 0.9768 0.8987 0.925 0.935 0.8846 0.8694 0.9474 1.0297 1.0646
3732.619 1.1196 0.9551 0.8416 0.9618 1.0621 1.1591 1.1854 1.137 1.1201 1.0671
3751.909 1.0663 0.9764 0.8835 0.8284 0.9767 1.172 1.0283 0.9002 1.0001 1.1609
3771.199 1.1262 0.991 0.9855 1.0795 1.0307 0.9001 0.9021 0.9309 0.9756 0.9904
3790.489 0.9659 0.9672 0.9748 1.0191 1.0065 1.0579 1.1051 0.9531 0.8952 0.9718
3809.779 0.9671 0.9721 1.1037 1.1801 1.0902 1.032 1.0681 0.9724 0.9196 1.0168
3829.069 0.9826 0.9841 1.025 1.0601 1.0526 1.0078 0.993 1.0123 1.0763 1.139
3848.359 1.1375 1.0663 1.0761 1.03 0.9376 0.9909 1.115 1.0131 0.9747 1.0335
3867.649 0.9117 0.9463 1.0799 1.1697 1.0717 0.8415 0.8059 0.897 0.885 0.8476
3886.939 0.9463 1.0381 0.983 0.8309 0.8148 0.9134 0.7853 0.6909 0.7541 0.7947
3906.229 0.9188 0.98 1.0048 0.982 0.9735 0.945 1.0259 0.9521 0.8824 1.0041
3925.519 0.8868 0.8265 0.9421 0.9269 0.8351 0.8591 0.9789 0.9564 0.874 1.0465
3944.809 1.0884 0.9713 1.0289 1.0694 1.1112 1.0999 0.9955 0.9488 0.7928 0.7839
3964.099 0.966 0.9095 0.7761 0.7984 0.7922 0.7424 0.7444 0.7345 0.7057 0.8086
3983.389 0.8252 0.7634 0.7773 0.8129 0.8604 0.9066 0.8726 0.8645 0.8616 0.864
##END=
