##TITLE=4,7-Phenanthroline
##JCAMP-DX=4.24
##DATA TYPE=INFRARED SPECTRUM
##ORIGIN=NIST Mass Spectrometry Data Center
##OWNER=NIST Standard Reference Data Program
Collection (C) 2018 copyright by the U.S. Secretary of Commerce
on behalf of the United States of America. All rights reserved.
##CAS REGISTRY NO=230-07-9
##MOLFORM=C 12 H 8 N 2
##$NIST SOURCE=MSDC-IR
##SPECTROMETER/DATA SYSTEM=HP-GC/MS/IRD
##STATE=gas
##XUNITS=1/CM
##YUNITS=ABSORBANCE
##XFACTOR=1.0
##YFACTOR=0.000000900
##DELTAX=4.0
##FIRSTX=550.0
##LASTX=3846.0
##FIRSTY=0.001090
##MAXX=3846
##MINX=550
##MAXY=0.009
##MINY=0
##NPOINTS=825
##XYDATA=(X++(Y..Y))
550.0 1211 926 874 743 444 226 75 13 94 132
590.0 185 233 175 195 243 243 204 246 216 261
630.0 324 285 307 283 248 273 319 273 218 235
670.0 265 285 264 288 360 344 422 637 772 798
710.0 842 816 727 696 626 570 513 493 469 400
750.0 479 666 1018 1795 3340 5056 7364 10000 8935 6343
790.0 4553 2721 1504 942 741 648 730 789 944 1439
830.0 2389 3875 5458 7733 9597 7803 5441 4093 2604 1540
870.0 997 747 624 577 512 424 399 361 318 318
910.0 307 285 351 395 413 462 481 455 425 401
950.0 332 376 442 410 457 605 673 667 773 994
990.0 1161 1144 940 584 320 284 304 377 396 350
1030.0 309 261 371 572 1007 1371 1399 1285 957 654
1070.0 654 875 1360 2051 2337 2301 2202 1514 799 533
1110.0 430 386 379 383 431 621 965 1242 1330 1072
1150.0 646 401 335 377 411 364 369 299 250 268
1190.0 254 345 441 442 407 405 500 577 602 505
1230.0 496 590 619 730 752 721 758 716 622 595
1270.0 561 507 561 840 1318 1903 2462 2655 2319 1911
1310.0 1576 1200 921 716 574 495 425 368 367 389
1350.0 439 576 817 1199 1728 2359 2892 3064 3163 3331
1390.0 3500 3481 3166 2507 1534 907 773 813 990 1500
1430.0 2563 4009 4954 4877 3870 2287 1209 953 1060 1333
1470.0 1725 2440 3837 5912 7298 7127 5735 3348 1590 1191
1510.0 1210 1247 1232 1164 958 736 680 695 700 739
1550.0 777 816 946 1222 1600 2127 2711 3102 3238 3136
1590.0 2921 2752 2617 2377 1928 1403 959 623 453 388
1630.0 330 292 262 236 227 203 196 236 228 226
1670.0 243 227 274 368 465 547 605 620 587 539
1710.0 542 540 507 457 385 337 337 353 375 392
1750.0 380 332 280 259 268 266 259 260 221 201
1790.0 211 207 216 274 404 541 621 638 566 453
1830.0 340 266 254 238 230 275 288 289 337 395
1870.0 470 526 522 499 465 451 475 563 651 667
1910.0 637 568 475 466 526 654 825 950 964 861
1950.0 695 516 396 309 219 188 189 175 151 138
1990.0 138 132 124 131 139 141 142 163 166 145
2030.0 147 151 164 166 157 185 198 177 168 151
2070.0 144 155 168 193 199 186 197 221 197 169
2110.0 155 129 136 140 133 143 158 160 135 144
2150.0 168 154 148 130 109 108 127 154 156 156
2190.0 161 159 173 187 170 147 137 125 136 175
2230.0 187 150 147 153 130 144 183 186 163 166
2270.0 154 172 211 220 227 218 169 140 146 143
2310.0 151 150 132 127 121 121 137 149 150 154
2350.0 159 127 112 112 120 139 146 137 134 123
2390.0 123 133 109 95 97 81 97 113 118 114
2430.0 113 113 123 143 133 121 130 117 87 78
2470.0 81 80 82 79 101 113 103 109 105 111
2510.0 126 133 131 107 105 138 146 141 124 118
2550.0 135 106 108 124 108 112 114 95 72 75
2590.0 98 106 95 97 87 90 122 113 107 112
2630.0 119 108 46 38 75 84 83 73 66 86
2670.0 93 70 66 60 30 36 54 50 49 49
2710.0 63 77 64 68 75 65 52 46 22 37
2750.0 66 43 47 75 86 51 49 80 48 53
2790.0 71 71 80 78 60 58 55 33 41 66
2830.0 53 52 67 65 71 77 97 130 119 126
2870.0 152 147 158 182 176 179 180 168 183 223
2910.0 293 291 280 358 441 424 345 277 203 160
2950.0 185 219 269 334 399 442 494 522 574 648
2990.0 735 942 1265 1594 1779 1884 1920 1903 2027 2371
3030.0 2826 3192 3352 3372 3362 3609 4225 4828 5136 5215
3070.0 5173 5044 4854 4557 3913 3033 2317 1790 1376 1020
3110.0 727 518 402 353 298 262 217 171 188 250
3150.0 274 267 268 266 206 172 191 195 178 161
3190.0 134 104 119 122 91 72 87 108 121 92
3230.0 75 65 48 62 50 45 61 54 61 63
3270.0 51 73 99 62 62 109 86 13 15 55
3310.0 21 99 166 129 102 118 145 99 50 82
3350.0 68 2 0 4 17 39 48 78 85 87
3390.0 89 55 53 110 160 130 36 3 24 28
3430.0 51 85 99 115 64 36 63 58 70 91
3470.0 94 55 75 113 77 70 81 47 37 71
3510.0 62 50 73 62 85 114 85 50 16 36
3550.0 32 43 92 87 73 95 130 124 88 25
3590.0 19 62 107 138 110 66 109 184 166 152
3630.0 117 64 81 119 132 120 95 80 54 44
3670.0 94 63 14 48 62 54 80 60 15 49
3710.0 112 95 78 100 90 111 68 65 144 132
3750.0 142 176 127 93 136 166 193 194 138 138
3790.0 180 171 142 100 70 72 92 115 135 140
3830.0 89 111 197 142 84
##END=
