##TITLE=7,8-Benzoquinoline
##JCAMP-DX=4.24
##DATA TYPE=INFRARED SPECTRUM
##ORIGIN=NIST Mass Spectrometry Data Center
##OWNER=NIST Standard Reference Data Program
Collection (C) 2018 copyright by the U.S. Secretary of Commerce
on behalf of the United States of America. All rights reserved.
##CAS REGISTRY NO=230-27-3
##MOLFORM=C 13 H 9 N
##$NIST SOURCE=MSDC-IR
##SPECTROMETER/DATA SYSTEM=HP-GC/MS/IRD
##STATE=gas
##XUNITS=1/CM
##YUNITS=ABSORBANCE
##XFACTOR=1.0
##YFACTOR=0.000001200
##DELTAX=4.0
##FIRSTX=550.0
##LASTX=3846.0
##FIRSTY=0.000328
##MAXX=3846
##MINX=550
##MAXY=0.012
##MINY=0
##NPOINTS=825
##XYDATA=(X++(Y..Y))
550.0 273 123 46 23 0 25 23 54 115 217
590.0 256 164 201 298 387 852 1311 1376 1308 875
630.0 364 219 178 136 100 95 70 47 70 131
670.0 118 64 66 106 127 202 280 474 809 1335
710.0 1850 2569 3134 3105 3624 4913 6267 8783 10000 7412
750.0 5093 3359 1664 769 438 387 392 456 670 1063
790.0 1703 2478 3411 4333 4168 3599 3530 3889 4615 5739
830.0 6639 5572 3949 2711 1666 1046 711 567 508 591
870.0 878 1210 1318 1245 1028 670 421 324 256 199
910.0 142 113 139 144 145 194 234 252 277 327
950.0 440 514 567 553 444 355 319 349 350 300
990.0 250 218 237 342 578 925 1178 1220 1140 904
1030.0 654 536 404 288 270 243 228 229 192 169
1070.0 173 233 351 528 732 769 715 605 390 246
1110.0 192 221 325 493 585 626 579 433 539 885
1150.0 1061 1057 878 476 203 159 138 135 147 150
1190.0 175 212 234 251 281 321 344 332 316 297
1230.0 258 240 195 128 120 173 219 233 261 309
1270.0 326 344 382 414 444 441 408 348 275 247
1310.0 289 422 553 604 620 576 454 331 257 204
1350.0 173 161 169 214 299 386 508 690 918 1293
1390.0 1973 3039 4070 4517 4241 3216 2050 1443 1213 1163
1430.0 1423 2085 2872 3260 3084 2387 1448 786 507 406
1470.0 377 419 510 684 1001 1394 1694 1926 2135 2221
1510.0 2153 2009 1706 1199 790 558 445 446 503 592
1550.0 742 956 1229 1513 1668 1661 1551 1475 1657 2053
1590.0 2340 2400 2215 1880 1555 1335 1179 1059 925 777
1630.0 656 553 491 455 413 377 362 362 386 419
1670.0 422 398 346 287 255 280 333 389 411 397
1710.0 363 324 312 318 321 333 368 406 434 455
1750.0 448 419 391 387 406 436 481 502 479 408
1790.0 305 210 148 128 146 167 189 238 292 319
1830.0 313 304 291 279 294 296 286 261 234 255
1870.0 311 354 367 366 375 406 443 488 546 575
1910.0 568 544 511 514 563 607 640 652 592 504
1950.0 433 369 314 269 217 147 102 84 70 55
1990.0 55 68 79 79 70 62 70 67 55 51
2030.0 50 44 40 46 44 42 42 43 66 68
2070.0 59 74 86 80 78 84 79 77 74 72
2110.0 74 69 57 54 52 46 43 34 34 39
2150.0 33 36 45 37 43 50 44 38 37 48
2190.0 47 34 39 47 50 47 55 70 72 59
2230.0 69 86 88 95 80 76 74 64 57 69
2270.0 89 102 124 135 121 109 106 87 62 62
2310.0 69 68 75 79 70 65 82 91 98 97
2350.0 81 74 73 64 56 49 34 32 48 51
2390.0 48 49 48 35 47 58 48 50 51 46
2430.0 41 55 60 68 86 90 98 88 69 60
2470.0 65 68 68 70 60 55 64 60 54 43
2510.0 35 53 70 80 73 68 72 58 46 49
2550.0 57 53 59 69 61 58 62 67 66 61
2590.0 62 62 67 64 65 74 71 85 85 73
2630.0 69 55 57 58 56 52 39 50 50 39
2670.0 32 38 38 27 50 51 47 57 57 46
2710.0 33 21 25 34 28 35 38 23 20 18
2750.0 6 10 27 36 23 24 45 49 42 32
2790.0 33 43 20 9 27 34 40 53 52 54
2830.0 65 82 101 109 103 121 128 110 122 123
2870.0 106 108 127 135 126 121 137 150 150 159
2910.0 165 145 164 204 249 309 362 404 422 427
2950.0 415 368 310 286 283 275 306 364 443 555
2990.0 674 802 960 1141 1331 1543 1822 2168 2626 3132
3030.0 3640 4254 5004 5974 7194 8274 8867 8879 8113 6760
3070.0 5324 4138 3417 3136 3045 2902 2579 2101 1623 1190
3110.0 869 673 556 447 347 273 235 202 187 175
3150.0 165 161 148 156 186 197 188 186 176 177
3190.0 173 151 145 127 106 114 99 83 86 93
3230.0 77 50 50 61 64 54 51 37 32 52
3270.0 32 19 22 18 29 20 30 51 32 29
3310.0 38 28 28 20 15 41 33 12 19 38
3350.0 45 33 16 14 9 33 48 37 44 27
3390.0 20 37 49 43 33 43 44 29 17 44
3430.0 63 44 34 13 8 39 48 47 49 52
3470.0 40 18 35 57 64 39 30 41 46 42
3510.0 46 49 39 56 55 46 26 20 38 50
3550.0 41 29 41 46 44 40 47 66 78 63
3590.0 64 59 54 58 44 48 54 60 60 50
3630.0 66 75 58 47 50 58 58 66 73 52
3670.0 71 86 55 39 60 90 84 68 56 59
3710.0 50 34 61 79 61 60 63 68 71 59
3750.0 73 88 86 106 116 101 109 113 108 85
3790.0 76 98 75 51 63 54 46 57 64 55
3830.0 65 88 80 79 83
##END=
