##TITLE=1-(4-Nitrophenyl)imidazole
##JCAMP-DX=4.24
##DATA TYPE=INFRARED SPECTRUM
##ORIGIN=EPA-IR VAPOR PHASE LIBRARY
##OWNER=SRD/NIST
Collection (C) 2018 copyright by the U.S. Secretary of Commerce
on behalf of the United States of America. All rights reserved.
##CAS REGISTRY NO=2301-25-9
##MOLFORM=C 9 H 7 N 3 O 2
##$NIST SOURCE=MSDC-IR
##STATE=gas
##XUNITS=1/CM
##YUNITS=ABSORBANCE
##XFACTOR=1.
##YFACTOR=0.001
##DELTAX=1.92898
##FIRSTX=549.8
##LASTX=4000.7
##FIRSTY=0.092
##MAXX=4000.7
##MINX=549.759
##MAXY=0.010707
##MINY=0
##NPOINTS=1790
##XYDATA=(X++(Y..Y))
549.759 0.092 0.092 0.069 0.275 0.242 0.7137 0.9206 0.647 0.8734 0.9633
569.049 0.9053 0.5268 0.256 0.338 0.119 0 0.165 0.6111 0.7958 0.6682
588.339 0.3486 0.287 0.5633 0.4299 0.194 0.149 0.319 0.219 0.067 0.335
607.628 0.47878 0.4167 0.423 0.45729 0.50321 0.53694 0.279 0.185 0.257 0.4307
626.918 0.6594 0.46596 0.3637 0.52242 0.5585 0.7354 0.766 0.6104 0.8331 1.1315
646.208 0.9997 0.7346 0.9582 1.0743 0.9254 0.9594 1.1858 1.2608 1.086 0.8387
665.498 0.7664 0.7933 0.8182 0.7248 0.49877 0.5497 0.427 0.4094 0.6817 0.8855
684.787 0.9388 0.7144 0.9125 1.0203 0.7391 0.7066 0.9263 1.0415 0.9584 0.9797
704.077 0.9398 1.0164 1.2434 1.3485 1.4065 1.3429 1.2261 1.4289 1.667 1.637
723.367 1.3605 1.1482 1.2849 1.2714 1.022 0.9396 0.9883 0.9296 1.0205 1.0606
742.657 0.8939 0.9489 1.0583 1.0947 0.9512 0.8583 1.0173 1.0691 0.8183 0.6587
761.947 0.5482 0.52346 0.54122 0.446788 0.4274 0.4319 0.452338 0.3614 0.387 0.6263
781.236 0.7139 0.6922 0.7905 0.7439 0.6228 0.6405 0.50826 0.46853 0.6084 0.6286
800.526 0.9268 1.2031 1.2788 1.2357 1.3905 1.627 1.3748 1.2129 1.3014 1.2808
819.816 1.3349 1.1218 1.0147 1.0635 0.9406 0.9368 0.9045 1.0069 1.2298 1.3586
839.106 1.537 1.867 2.057 2.547 3.127 3.477 3.897 4.147 4.107 3.937
858.395 3.487 2.827 2.277 1.927 1.777 1.4351 1.1496 0.8642 0.731 1.0331
877.685 0.8319 0.5535 0.6912 0.7022 0.6232 0.45782 0.4938 0.652 0.8472 0.8528
896.975 0.6809 0.8778 0.9765 0.8297 0.6503 0.47705 0.448407 0.44056 0.4363 0.47317
916.265 0.49274 0.54403 0.5718 0.52345 0.46419 0.5195 0.4879 0.354 0.450894 0.51884
935.555 0.323 0.218 0.301 0.45813 0.588 0.4432 0.3512 0.49409 0.53609 0.6733
954.844 0.8435 1.2213 1.3489 1.2014 1.3636 1.376 1.3161 0.9471 0.6548 0.53198
974.134 0.344 0.4379 0.53761 0.451405 0.278 0.266 0.5563 0.7845 0.8023 0.5902
993.424 0.5517 0.627 0.4155 0.32 0.6271 0.6756 0.4249 0.7005 0.9169 0.722
1012.714 0.5814 0.46042 0.6565 0.8238 0.7562 0.8672 0.7011 0.5785 0.7911 1.0502
1032.003 1.177 1.2092 1.275 1.647 1.827 2.347 3.167 3.777 4.227 4.367
1051.293 4.497 4.117 3.057 1.797 1.2058 1.517 1.2672 0.6857 0.736 0.765
1070.583 0.5963 0.7471 0.7482 0.50331 0.52121 0.8545 1.0304 0.6502 0.6062 0.52948
1089.873 0.3577 0.8981 1.457 1.3273 1.4133 1.4374 1.627 1.627 1.497 1.697
1109.163 1.967 1.827 1.657 1.927 1.527 1.2245 0.9707 0.6498 0.8824 0.8371
1128.452 0.329 0.3548 0.4337 0.5938 0.6765 0.45772 0.5484 0.51123 0.345 0.6212
1147.742 0.48285 0.152 0.29 0.142 0.3 0.663 0.555 0.5601 0.7357 0.9233
1167.032 0.7623 0.5936 0.6777 0.9289 1.2346 0.9646 0.874 0.875 0.7758 0.50945
1186.322 0.5062 0.5605 0.47373 0.51026 0.7358 0.8671 0.52098 0.6302 0.668 0.44354
1205.611 0.6217 0.854 0.45864 0.4364 0.6997 0.659 0.6063 0.273 0.5928 0.8748
1224.901 0.578 0.8801 1.0915 1.064 1.2181 1.3805 1.757 1.817 1.797 2.027
1244.191 2.497 2.507 2.137 1.947 1.867 1.757 1.4197 1.2302 1.0149 0.8446
1263.481 0.8471 0.7249 0.6745 0.9043 0.9123 0.8971 0.905 0.7796 0.8168 1.0662
1282.771 1.2185 1.457 1.827 2.007 2.427 3.167 3.997 4.837 5.567 6.197
1302.060 6.507 6.397 5.927 5.057 4.047 3.157 2.567 2.177 1.867 1.757
1321.350 1.837 1.967 2.157 2.437 2.867 3.427 3.977 4.557 5.167 5.647
1340.640 5.947 6.077 5.967 5.697 5.437 5.177 4.887 4.647 4.527 4.427
1359.930 4.307 4.167 4.017 3.787 3.517 3.327 3.157 2.987 2.857 2.737
1379.219 2.557 2.387 2.197 1.907 1.657 1.497 1.3436 1.1684 1.0202 0.9959
1398.509 0.856 0.7667 0.7923 0.7133 0.6893 0.7101 0.7344 0.783 0.728 0.6708
1417.799 0.6404 0.6043 0.6917 0.7212 0.7417 0.7673 0.775 0.8674 0.9105 0.9241
1437.089 0.9983 1.0187 1.0009 1.0273 1.035 1.0175 1.0112 1.0557 1.0875 1.1379
1456.378 1.1853 1.1911 1.252 1.3191 1.4288 1.527 1.757 2.207 2.677 3.287
1475.668 3.757 3.877 3.937 3.827 3.427 2.897 2.597 2.607 2.757 3.197
1494.958 3.987 5.147 6.547 7.947 9.287 10.327 10.707 10.507 9.857 8.707
1514.248 7.137 5.627 4.517 3.857 3.587 3.487 3.607 3.947 4.267 4.637
1533.538 5.067 5.417 5.767 6.017 6.127 6.197 6.127 5.807 5.457 5.157
1552.827 4.657 4.087 3.587 3.117 2.807 2.587 2.357 2.137 2.057 2.087
1572.117 2.087 2.037 2.047 2.177 2.237 2.277 2.357 2.587 2.937 3.227
1591.407 3.547 4.067 4.577 4.937 5.207 5.417 5.437 5.257 4.977 4.537
1610.697 3.887 3.267 2.947 2.647 2.287 1.937 1.707 1.557 1.368 1.1469
1629.986 0.9213 0.8262 0.8114 0.8042 0.7823 0.7754 0.7592 0.7163 0.6878 0.7151
1649.276 0.6491 0.5916 0.6371 0.6488 0.6195 0.5566 0.5992 0.6569 0.6302 0.6274
1668.566 0.6129 0.5793 0.6087 0.6049 0.5814 0.6271 0.53472 0.448097 0.48729 0.506
1687.856 0.48792 0.4334 0.4921 0.52338 0.45924 0.455314 0.44568 0.46661 0.49118 0.49111
1707.146 0.47814 0.52086 0.5984 0.5598 0.5559 0.54564 0.45948 0.3969 0.3823 0.4006
1726.435 0.396 0.3638 0.3512 0.3699 0.3515 0.346 0.3995 0.3968 0.3478 0.3575
1745.725 0.4117 0.4249 0.4208 0.3965 0.323 0.344 0.3846 0.3671 0.338 0.3723
1765.015 0.47563 0.49629 0.47217 0.48654 0.46713 0.4092 0.4289 0.4574 0.45988 0.46096
1784.305 0.4211 0.48419 0.52216 0.50201 0.48091 0.4343 0.447337 0.451766 0.4337 0.4044
1803.594 0.4101 0.3693 0.331 0.3947 0.456534 0.51798 0.52061 0.3954 0.3889 0.450416
1822.884 0.44011 0.44347 0.4004 0.33 0.309 0.363 0.3794 0.3702 0.3679 0.318
1842.174 0.3473 0.4573 0.4293 0.34 0.3968 0.417 0.4198 0.4213 0.3683 0.3625
1861.464 0.4065 0.44356 0.4082 0.4013 0.44907 0.48606 0.403 0.3765 0.46595 0.4246
1880.754 0.3707 0.3477 0.3765 0.46129 0.4362 0.4253 0.452235 0.3822 0.3602 0.3628
1900.043 0.3956 0.49082 0.48763 0.49134 0.52133 0.4688 0.4277 0.4919 0.49715 0.44188
1919.333 0.448969 0.46463 0.4295 0.4175 0.4362 0.3776 0.3527 0.4014 0.3994 0.3939
1938.623 0.4323 0.4332 0.4077 0.3755 0.363 0.377 0.450042 0.449361 0.3509 0.377
1957.913 0.3642 0.3577 0.377 0.326 0.3714 0.4058 0.3596 0.295 0.331 0.3858
1977.202 0.323 0.301 0.3517 0.4073 0.408 0.4318 0.4021 0.3748 0.4017 0.3597
1996.492 0.316 0.3502 0.4262 0.4157 0.3922 0.331 0.276 0.285 0.334 0.3813
2015.782 0.3819 0.4276 0.44578 0.4068 0.3797 0.3525 0.353 0.3716 0.4033 0.4281
2035.072 0.4299 0.4164 0.3831 0.3888 0.43819 0.4096 0.3566 0.337 0.344 0.32
2054.362 0.354 0.44488 0.4142 0.3562 0.295 0.312 0.356 0.313 0.3725 0.46534
2073.651 0.4397 0.4079 0.3628 0.3769 0.3875 0.4167 0.48706 0.388 0.307 0.3767
2092.941 0.3921 0.3944 0.3566 0.337 0.3695 0.3835 0.3774 0.3804 0.4052 0.3794
2112.231 0.3989 0.3497 0.249 0.263 0.338 0.3694 0.3897 0.3859 0.3537 0.3488
2131.521 0.341 0.4017 0.437 0.3918 0.3979 0.3788 0.341 0.3623 0.3525 0.3622
2150.810 0.4129 0.37 0.311 0.27 0.31 0.3575 0.324 0.337 0.3487 0.3557
2170.100 0.3832 0.295 0.258 0.327 0.295 0.313 0.3667 0.4052 0.4236 0.3873
2189.390 0.3611 0.3924 0.4243 0.366 0.3599 0.4074 0.3611 0.3598 0.345 0.357
2208.680 0.4342 0.3886 0.316 0.345 0.4197 0.46373 0.4295 0.4013 0.502 0.44523
2227.970 0.333 0.3511 0.3683 0.324 0.317 0.3753 0.46244 0.50896 0.48424 0.47554
2247.259 0.422 0.3819 0.3973 0.3731 0.319 0.3957 0.44064 0.346 0.338 0.4213
2266.549 0.3601 0.293 0.3805 0.45971 0.4272 0.389 0.4082 0.3726 0.3933 0.456187
2285.839 0.4158 0.277 0.301 0.44275 0.3962 0.3499 0.391 0.4291 0.429 0.4278
2305.129 0.3676 0.298 0.327 0.344 0.343 0.3742 0.47533 0.46827 0.456608 0.44057
2324.418 0.3618 0.3737 0.338 0.3498 0.50039 0.53458 0.44247 0.3882 0.4211 0.48175
2343.708 0.4288 0.315 0.326 0.3757 0.4106 0.448034 0.4134 0.4233 0.4063 0.329
2362.998 0.344 0.33 0.262 0.302 0.3604 0.4099 0.3945 0.4143 0.452233 0.4083
2382.288 0.3486 0.314 0.3 0.332 0.4075 0.3867 0.3999 0.4142 0.3838 0.425
2401.578 0.46369 0.4362 0.3928 0.4054 0.4317 0.4291 0.3488 0.265 0.358 0.4211
2420.867 0.384 0.402 0.48095 0.4101 0.315 0.268 0.158 0.239 0.4108 0.4012
2440.157 0.35 0.3655 0.4182 0.4654 0.51397 0.50456 0.4236 0.3904 0.3733 0.4078
2459.447 0.313 0.279 0.3668 0.316 0.276 0.323 0.4023 0.54361 0.53796 0.44341
2478.737 0.4249 0.309 0.249 0.329 0.3532 0.44152 0.54428 0.47384 0.4005 0.3893
2498.026 0.4202 0.44326 0.367 0.327 0.4153 0.3834 0.32 0.268 0.173 0.269
2517.316 0.3628 0.322 0.333 0.3652 0.4055 0.452803 0.53714 0.5818 0.49011 0.45707
2536.606 0.45356 0.4337 0.5625 0.6213 0.50797 0.454426 0.49706 0.49135 0.44503 0.44548
2555.896 0.3971 0.3509 0.46514 0.5834 0.5801 0.51681 0.4117 0.3993 0.446812 0.4267
2575.186 0.344 0.3535 0.4093 0.4133 0.446267 0.456766 0.51543 0.52188 0.48327 0.46496
2594.475 0.4615 0.5473 0.6324 0.5783 0.52983 0.5845 0.51195 0.4079 0.3623 0.3678
2613.765 0.5232 0.5842 0.51976 0.50738 0.50282 0.47928 0.51333 0.52586 0.3879 0.4106
2633.055 0.48712 0.4321 0.337 0.227 0.29 0.432 0.44692 0.3852 0.3877 0.3721
2652.345 0.367 0.48001 0.450974 0.453192 0.5902 0.5758 0.5636 0.5789 0.6263 0.5985
2671.634 0.447084 0.4228 0.46436 0.4606 0.52124 0.6278 0.6208 0.5683 0.5796 0.52953
2690.924 0.5495 0.5962 0.51951 0.46807 0.52192 0.5992 0.5662 0.50991 0.47615 0.52794
2710.214 0.5558 0.46212 0.47854 0.50992 0.47797 0.51762 0.5498 0.6107 0.6156 0.51719
2729.504 0.53665 0.5956 0.6069 0.51571 0.4288 0.4318 0.3897 0.4297 0.522 0.43819
2748.794 0.359 0.3781 0.43772 0.52526 0.53969 0.54272 0.52965 0.4362 0.389 0.45773
2768.083 0.47956 0.5502 0.53606 0.414 0.44356 0.6084 0.6838 0.6266 0.52984 0.448829
2787.373 0.4305 0.317 0.316 0.51015 0.6072 0.53208 0.5642 0.6344 0.46342 0.324
2806.663 0.3865 0.4325 0.3821 0.4172 0.48915 0.3971 0.3726 0.43892 0.5748 0.6331
2825.953 0.5909 0.52067 0.4267 0.47758 0.3969 0.453328 0.577 0.54106 0.5674 0.5471
2845.242 0.4151 0.336 0.3873 0.51432 0.54572 0.52306 0.5944 0.52679 0.456269 0.52611
2864.532 0.51808 0.54319 0.5661 0.53844 0.6574 0.6707 0.6708 0.6532 0.5337 0.6194
2883.822 0.6386 0.5772 0.5686 0.6456 0.5859 0.48382 0.5971 0.5998 0.53646 0.52405
2903.112 0.52881 0.4921 0.4628 0.41 0.47607 0.5744 0.6194 0.6658 0.6047 0.5644
2922.401 0.50788 0.5606 0.6666 0.52712 0.4132 0.44115 0.4141 0.3791 0.4757 0.5891
2941.691 0.44562 0.4294 0.6892 0.7067 0.6403 0.6963 0.6412 0.5691 0.6147 0.5517
2960.981 0.3589 0.4279 0.6534 0.664 0.5956 0.53662 0.46844 0.4048 0.46184 0.4925
2980.271 0.3944 0.425 0.4385 0.345 0.3786 0.3545 0.227 0.284 0.5172 0.5572
2999.561 0.47458 0.5046 0.6084 0.632 0.4644 0.45925 0.53346 0.587 0.6088 0.5481
3018.850 0.6056 0.6516 0.48219 0.3651 0.4181 0.5619 0.6771 0.6237 0.53339 0.569
3038.140 0.6299 0.5415 0.4168 0.36 0.3818 0.47348 0.44528 0.4367 0.5727 0.5749
3057.430 0.446765 0.4082 0.342 0.3606 0.44578 0.5548 0.5724 0.4226 0.3537 0.3957
3076.720 0.5537 0.54509 0.6842 0.7585 0.7292 0.8477 0.739 0.6902 0.6908 0.6183
3096.009 0.6204 0.761 0.7239 0.5725 0.47434 0.48336 0.4334 0.49495 0.6479 0.449288
3115.299 0.48395 0.5882 0.616 0.6021 0.49823 0.5626 0.6997 0.803 0.8341 0.7309
3134.589 0.6708 0.6909 0.5716 0.7185 0.665 0.334 0.447314 0.5732 0.5703 0.6092
3153.879 0.6816 0.6585 0.49055 0.3807 0.45881 0.5633 0.6152 0.4014 0.217 0.49028
3173.169 0.6052 0.5565 0.5826 0.54292 0.51987 0.51428 0.44985 0.3876 0.3986 0.3777
3192.458 0.3531 0.3975 0.6021 0.5663 0.4127 0.4204 0.50471 0.5716 0.6312 0.769
3211.748 0.6899 0.50106 0.53114 0.6172 0.611 0.5868 0.4097 0.4705 0.4168 0.264
3231.038 0.375 0.3504 0.43851 0.5898 0.53235 0.49839 0.54177 0.5968 0.5753 0.5776
3250.328 0.6541 0.5919 0.53743 0.5556 0.614 0.52814 0.3739 0.47272 0.54306 0.4296
3269.617 0.4079 0.52773 0.6075 0.5664 0.4339 0.4943 0.6233 0.7199 0.7072 0.6268
3288.907 0.5859 0.5872 0.6268 0.607 0.6477 0.7291 0.9281 0.9275 0.6969 0.5939
3308.197 0.5858 0.5843 0.52289 0.4364 0.50531 0.5685 0.50932 0.46701 0.3504 0.4135
3327.487 0.5767 0.52724 0.50424 0.45795 0.5038 0.49465 0.4273 0.44489 0.7414 0.8936
3346.777 0.6489 0.51744 0.7033 0.7736 0.54033 0.5737 0.7916 0.7237 0.4575 0.424
3366.066 0.43984 0.50457 0.6865 0.6551 0.5899 0.5593 0.4692 0.5763 0.50298 0.327
3385.356 0.31 0.3957 0.49292 0.52623 0.6696 0.74 0.6013 0.453448 0.5927 0.5988
3404.646 0.5664 0.6398 0.51656 0.3862 0.43802 0.48497 0.5882 0.48931 0.3505 0.52516
3423.936 0.4227 0.3738 0.52848 0.44577 0.3515 0.50669 0.5666 0.56 0.7059 0.7986
3443.225 0.6525 0.482 0.316 0.325 0.5648 0.6252 0.51235 0.6644 0.8095 0.6721
3462.515 0.56 0.7013 0.8407 0.5682 0.341 0.4277 0.454222 0.5745 0.7704 0.7866
3481.805 0.8695 0.6243 0.45857 0.52961 0.3767 0.44403 0.338 0.252 0.5777 0.5888
3501.095 0.5476 0.6073 0.6512 0.54075 0.3814 0.45747 0.5593 0.6244 0.6732 0.7154
3520.385 0.5815 0.5866 0.54159 0.53504 0.6195 0.6272 0.6478 0.5628 0.5649 0.5595
3539.674 0.47125 0.47926 0.4348 0.46777 0.6109 0.6002 0.5505 0.49759 0.48356 0.5986
3558.964 0.53931 0.3869 0.5543 0.5766 0.4357 0.50692 0.6717 0.6931 0.6388 0.7002
3578.254 0.6755 0.6899 0.8945 0.8298 0.5425 0.4221 0.4768 0.6213 0.5672 0.5253
3597.544 0.6252 0.6151 0.6953 0.7175 0.5557 0.54162 0.6502 0.7641 0.7753 0.5642
3616.833 0.3645 0.452647 0.6079 0.6711 0.6421 0.5567 0.49773 0.4337 0.47493 0.6356
3636.123 0.7879 0.749 0.7168 0.7188 0.5988 0.5997 0.6648 0.7459 0.5857 0.3908
3655.413 0.45954 0.6141 0.6384 0.4668 0.54035 0.567 0.49559 0.5689 0.51436 0.448317
3674.703 0.5628 0.6667 0.6196 0.53657 0.5611 0.53558 0.5487 0.6407 0.53614 0.5879
3693.993 0.6337 0.5903 0.7184 0.656 0.5653 0.5626 0.46569 0.6707 0.8596 0.5766
3713.282 0.54128 0.52005 0.50743 0.578 0.44553 0.3993 0.47887 0.51952 0.48843 0.5665
3732.572 0.5948 0.5884 0.6 0.5713 0.453555 0.5905 0.6475 0.449132 0.6376 0.7333
3751.862 0.48001 0.448972 0.51501 0.5547 0.48893 0.4215 0.4007 0.4355 0.6253 0.77
3771.152 0.8634 0.8591 0.8128 0.7145 0.51162 0.3946 0.6527 0.8471 0.8136 0.891
3790.441 0.755 0.5489 0.6258 0.7916 0.7286 0.5589 0.5225 0.54549 0.531 0.44555
3809.731 0.4996 0.53008 0.54386 0.6187 0.643 0.6638 0.6621 0.6259 0.5526 0.5598
3829.021 0.52984 0.5519 0.7335 0.6039 0.49474 0.51068 0.5979 0.6638 0.578 0.6002
3848.311 0.6121 0.5627 0.4345 0.44381 0.7041 0.7885 0.5833 0.6137 0.6533 0.6067
3867.601 0.557 0.53021 0.6595 0.6308 0.597 0.8494 0.9234 0.7178 0.53451 0.3959
3886.890 0.5927 0.7162 0.6175 0.7418 0.832 0.8108 0.7804 0.5482 0.52273 0.6597
3906.180 0.5518 0.48058 0.5663 0.5802 0.52679 0.574 0.5528 0.4399 0.4265 0.51564
3925.470 0.6566 0.6148 0.5141 0.6728 0.6487 0.5002 0.53915 0.6958 0.6868 0.449883
3944.760 0.316 0.46587 0.5858 0.6047 0.6574 0.6921 0.6804 0.8164 0.7883 0.45376
3964.049 0.5677 0.7789 0.7837 0.7065 0.5608 0.582 0.6453 0.6136 0.7755 0.7148
3983.339 0.53036 0.6133 0.7221 0.795 0.8043 0.7841 0.7819 0.8618 0.8245 0.5779
##END=
