##TITLE=2-Methyl-1-hexen-3-yne
##JCAMP-DX=4.24
##DATA TYPE=INFRARED SPECTRUM
##ORIGIN=NIST Mass Spectrometry Data Center
##OWNER=NIST Standard Reference Data Program
Collection (C) 2018 copyright by the U.S. Secretary of Commerce
on behalf of the United States of America. All rights reserved.
##CAS REGISTRY NO=23056-94-2
##MOLFORM=C 7 H 10
##$NIST SOURCE=MSDC-IR
##SPECTROMETER/DATA SYSTEM=HP-GC/MS/IRD
##STATE=gas
##XUNITS=1/CM
##YUNITS=ABSORBANCE
##XFACTOR=1.0
##YFACTOR=0.000000900
##DELTAX=4.0
##FIRSTX=550.0
##LASTX=3846.0
##FIRSTY=0.000960
##MAXX=3846
##MINX=550
##MAXY=0.009
##MINY=0
##NPOINTS=825
##XYDATA=(X++(Y..Y))
550.0 1067 1021 979 901 763 748 664 424 437 504
590.0 374 373 316 187 220 284 317 315 391 493
630.0 584 704 738 650 468 399 328 317 341 288
670.0 275 260 205 225 199 135 171 165 200 233
710.0 192 164 131 70 61 99 109 45 13 72
750.0 63 46 86 103 115 141 136 95 81 109
790.0 149 154 182 231 221 235 199 151 125 128
830.0 217 229 259 318 345 533 726 915 1247 1671
870.0 2191 2690 3172 3721 4257 4965 5271 4674 4069 3676
910.0 3146 2595 2018 1457 1057 737 499 381 284 207
950.0 188 194 184 151 132 173 176 142 177 198
990.0 189 241 300 337 370 374 370 389 353 318
1030.0 363 380 417 454 500 591 590 559 545 483
1070.0 422 388 339 388 394 273 228 244 254 253
1110.0 210 219 230 196 197 212 232 233 193 160
1150.0 156 179 232 241 215 207 208 176 180 204
1190.0 203 239 264 251 218 200 233 265 275 315
1230.0 328 281 290 350 385 388 465 564 661 799
1270.0 1009 1333 1628 1816 1903 1930 1955 1981 2197 2853
1310.0 4015 5321 6072 6091 5746 5018 3637 2144 1280 976
1350.0 901 906 991 1219 1477 1676 1784 1830 1801 1660
1390.0 1443 1252 1157 1114 1121 1148 1192 1292 1440 1578
1430.0 1709 1882 2055 2185 2276 2358 2362 2280 2206 2028
1470.0 1759 1439 1196 994 815 713 632 533 465 426
1510.0 387 333 299 309 317 320 343 323 325 374
1550.0 375 410 488 553 657 786 900 1035 1254 1535
1590.0 1819 2146 2465 2783 3087 3247 3229 3041 2798 2495
1630.0 2042 1521 1098 817 643 517 378 273 234 216
1670.0 195 170 126 130 145 140 111 94 115 99
1710.0 74 85 116 89 68 72 64 84 102 118
1750.0 123 137 171 215 253 301 393 522 648 715
1790.0 750 758 695 580 462 379 279 208 161 124
1830.0 132 118 78 46 38 52 71 96 88 73
1870.0 59 57 56 50 39 27 46 45 71 94
1910.0 45 10 14 34 49 60 45 25 37 44
1950.0 55 63 44 22 34 54 70 67 31 28
1990.0 73 76 51 38 39 43 41 35 54 82
2030.0 74 45 61 94 85 66 69 58 52 76
2070.0 90 75 57 42 37 42 40 38 26 7
2110.0 8 35 40 60 63 55 72 99 109 88
2150.0 78 97 123 124 121 129 141 150 161 174
2190.0 198 250 317 383 464 554 614 648 671 686
2230.0 677 628 507 408 316 225 187 172 139 103
2270.0 99 98 99 77 44 45 62 58 26 13
2310.0 42 53 48 52 55 63 63 94 118 83
2350.0 52 63 62 72 78 55 68 77 50 46
2390.0 76 84 100 92 76 88 65 85 98 78
2430.0 83 88 74 37 25 48 72 59 41 27
2470.0 37 63 72 79 53 54 80 72 52 60
2510.0 81 76 56 53 78 91 71 50 72 113
2550.0 81 21 42 51 14 40 78 75 58 25
2590.0 9 8 43 83 97 102 91 111 138 127
2630.0 129 109 106 122 106 97 70 45 37 45
2670.0 54 35 40 56 28 44 47 9 40 75
2710.0 68 81 107 102 121 164 193 203 171 155
2750.0 174 227 227 230 255 188 170 187 170 207
2790.0 248 276 277 298 359 397 443 520 602 680
2830.0 752 849 970 1137 1318 1486 1746 2009 2200 2363
2870.0 2513 2701 2947 3225 3527 3779 3984 4220 4390 4466
2910.0 4668 4963 5246 5573 5918 6231 6634 7294 7876 7951
2950.0 7776 7630 7313 6923 6862 7488 8783 9806 10000 9846
2990.0 9237 7712 5932 4710 3951 3439 2994 2582 2223 1925
3030.0 1646 1395 1170 956 833 816 821 800 769 764
3070.0 809 871 986 1145 1365 1760 2195 2351 2264 2191
3110.0 2047 1527 901 632 553 435 339 285 240 228
3150.0 202 196 222 200 179 228 204 135 120 113
3190.0 97 118 107 77 105 90 99 114 49 27
3230.0 14 8 41 84 74 31 46 79 66 36
3270.0 22 3 66 109 27 0 7 3 60 55
3310.0 23 45 42 11 20 60 61 63 34 43
3350.0 81 50 41 41 13 15 37 73 93 62
3390.0 43 34 37 78 68 28 55 109 112 41
3430.0 34 43 20 40 87 141 160 143 72 72
3470.0 144 110 100 119 78 21 35 79 94 92
3510.0 61 45 71 117 116 85 65 124 173 110
3550.0 55 87 95 60 41 43 97 78 48 36
3590.0 64 97 69 49 32 72 103 74 60 118
3630.0 101 98 134 149 122 51 91 148 158 106
3670.0 77 60 50 97 129 159 152 81 45 34
3710.0 59 95 99 81 59 124 143 105 119 81
3750.0 82 128 84 87 114 70 81 165 146 87
3790.0 62 47 75 112 91 90 138 163 80 69
3830.0 137 128 90 16 1
##END=
