##TITLE=1-Adamantane carbonitrile
##JCAMP-DX=4.24
##DATA TYPE=INFRARED SPECTRUM
##ORIGIN=NIST Mass Spectrometry Data Center
##OWNER=NIST Standard Reference Data Program
Collection (C) 2018 copyright by the U.S. Secretary of Commerce
on behalf of the United States of America. All rights reserved.
##CAS REGISTRY NO=23074-42-2
##MOLFORM=C 11 H 15 N
##$NIST SOURCE=MSDC-IR
##SPECTROMETER/DATA SYSTEM=HP-GC/MS/IRD
##STATE=gas
##XUNITS=1/CM
##YUNITS=ABSORBANCE
##XFACTOR=1.0
##YFACTOR=0.000007200
##DELTAX=4.0
##FIRSTX=550.0
##LASTX=3846.0
##FIRSTY=0.000202
##MAXX=3846
##MINX=550
##MAXY=0.072
##MINY=0
##NPOINTS=825
##XYDATA=(X++(Y..Y))
550.0 28 12 17 23 27 25 7 0 8 21
590.0 26 25 21 17 14 17 22 21 11 8
630.0 20 24 23 30 37 34 36 53 70 77
670.0 76 79 79 64 55 54 53 54 49 44
710.0 34 21 23 24 21 25 23 17 11 19
750.0 28 27 33 36 27 25 27 26 29 31
790.0 30 33 36 42 50 57 55 42 39 37
830.0 28 26 30 34 35 31 28 26 24 19
870.0 24 29 22 22 23 22 22 18 15 14
910.0 16 18 16 20 22 27 32 35 34 31
950.0 37 42 52 67 85 113 143 152 140 110
990.0 73 46 27 20 22 23 22 23 25 22
1030.0 20 21 21 27 30 32 39 52 68 78
1070.0 72 66 69 70 102 186 276 327 337 268
1110.0 160 101 73 59 55 47 40 36 30 27
1150.0 24 19 20 23 22 24 30 35 41 44
1190.0 39 28 22 21 21 17 14 13 11 8
1230.0 8 11 11 13 13 11 11 9 8 8
1270.0 11 13 14 18 20 23 25 32 52 81
1310.0 119 147 151 129 92 68 63 68 79 94
1350.0 100 102 104 96 86 69 50 38 33 38
1390.0 45 47 50 55 62 68 77 92 106 119
1430.0 140 175 256 403 629 850 1044 1124 972 782
1470.0 558 318 178 106 72 54 48 43 37 34
1510.0 31 28 25 23 20 17 15 17 17 13
1550.0 10 10 11 10 10 9 12 11 12 12
1590.0 10 11 11 10 9 8 8 9 11 14
1630.0 14 10 8 10 11 10 11 9 9 8
1670.0 8 6 5 5 8 5 4 5 6 6
1710.0 3 1 3 5 5 4 5 7 8 6
1750.0 5 8 9 10 11 10 8 5 4 2
1790.0 3 1 0 3 4 5 4 4 7 6
1830.0 5 5 6 6 5 4 5 4 3 5
1870.0 6 5 3 5 7 10 7 5 7 9
1910.0 11 12 12 13 13 12 7 4 5 5
1950.0 6 6 5 5 5 4 3 4 5 8
1990.0 9 9 11 9 7 8 7 6 6 6
2030.0 4 5 6 5 5 3 2 2 5 5
2070.0 3 4 7 7 6 5 3 5 6 4
2110.0 4 4 7 11 12 12 10 7 9 11
2150.0 10 9 8 8 7 6 3 2 1 2
2190.0 2 1 0 4 13 23 35 48 63 79
2230.0 90 95 95 92 83 76 75 72 64 53
2270.0 37 24 18 17 14 13 13 12 12 12
2310.0 10 10 8 7 6 7 9 9 8 9
2350.0 10 12 14 15 14 13 13 14 14 13
2390.0 11 10 10 12 13 12 13 14 17 18
2430.0 17 19 16 13 11 10 11 11 10 11
2470.0 11 12 15 13 14 15 16 16 18 18
2510.0 15 13 12 15 19 19 21 24 22 24
2550.0 28 27 25 28 31 32 35 33 28 27
2590.0 28 29 33 38 46 53 57 60 58 59
2630.0 61 62 66 70 81 94 106 117 123 127
2670.0 129 126 112 98 85 69 56 45 35 32
2710.0 30 27 28 31 33 35 40 44 47 46
2750.0 47 54 52 50 50 51 55 58 64 73
2790.0 82 90 97 106 119 126 131 137 145 155
2830.0 165 185 226 312 483 801 1257 1747 2161 2320
2870.0 2184 1870 1477 1117 860 730 751 1003 1649 2819
2910.0 4417 6434 8629 9853 10000 9451 8508 7280 5795 4434
2950.0 3221 2100 1223 685 406 268 198 158 131 108
2990.0 89 79 69 60 53 51 50 42 34 29
3030.0 25 24 20 14 11 13 19 20 22 22
3070.0 17 17 18 20 21 19 17 16 20 22
3110.0 19 12 12 18 20 24 27 24 20 19
3150.0 19 17 13 13 9 6 8 8 6 7
3190.0 7 11 17 15 14 15 11 15 20 30
3230.0 34 37 40 40 33 25 23 20 12 11
3270.0 13 14 12 10 6 7 11 9 10 14
3310.0 18 22 24 21 19 17 20 21 18 22
3350.0 20 23 28 27 27 28 30 30 25 22
3390.0 20 18 16 11 15 18 16 22 24 21
3430.0 20 16 8 11 10 6 11 10 10 10
3470.0 8 7 4 6 6 4 5 4 6 5
3510.0 6 8 9 12 8 1 2 10 14 9
3550.0 9 14 22 24 20 14 15 16 15 11
3590.0 4 2 5 8 11 17 17 14 10 3
3630.0 0 4 10 8 7 9 8 9 6 8
3670.0 15 15 13 16 15 12 12 10 13 14
3710.0 10 10 14 11 13 19 19 20 22 23
3750.0 25 22 16 12 11 8 9 7 11 15
3790.0 13 14 20 29 28 25 27 27 23 22
3830.0 28 25 18 25 27
##END=
