##TITLE=5-Bromo-2-methoxybenzenesulphonyl chloride
##JCAMP-DX=4.24
##DATA TYPE=INFRARED SPECTRUM
##ORIGIN=EPA-IR VAPOR PHASE LIBRARY
##OWNER=SRD/NIST
Collection (C) 2018 copyright by the U.S. Secretary of Commerce
on behalf of the United States of America. All rights reserved.
##CAS REGISTRY NO=23095-05-8
##MOLFORM=C 7 H 6 Br Cl O 3 S
##$NIST SOURCE=MSDC-IR
##STATE=gas
##XUNITS=1/CM
##YUNITS=ABSORBANCE
##XFACTOR=1.
##YFACTOR=0.001
##DELTAX=1.92898
##FIRSTX=549.8
##LASTX=4000.7
##FIRSTY=77.805
##MAXX=4000.7
##MINX=549.759
##MAXY=0.211975
##MINY=0
##NPOINTS=1790
##XYDATA=(X++(Y..Y))
549.759 77.805 75.955 76.125 79.045 84.215 91.935 102.415 113.605 121.905 125.765
569.049 124.805 118.355 107.465 95.835 87.975 87.805 96.015 111.655 131.875 152.545
588.339 169.295 178.495 177.125 165.155 146.285 124.325 102.865 83.735 67.825 55.695
607.628 46.755 39.905 34.515 30.995 29.585 29.235 29.535 30.425 30.345 28.895
626.918 26.035 22.485 18.895 15.685 13.725 11.735 9.835 8.365 7.625 7.355
646.208 6.585 5.875 5.395 5.205 5.085 4.955 4.715 4.545 5.095 5.175
665.498 4.885 4.965 4.955 5.045 5.285 5.385 5.745 6.145 6.415 6.395
684.787 6.615 7.385 8.335 9.595 11.265 13.345 15.665 18.535 21.515 24.555
704.077 27.335 29.485 30.495 30.635 29.475 26.655 23.055 19.435 16.475 13.445
723.367 10.925 9.395 8.165 7.065 6.265 5.565 5.275 5.255 5.125 4.865
742.657 4.595 4.775 4.605 4.205 4.035 3.755 3.345 3.175 3.315 3.195
761.947 2.635 2.205 2.385 2.345 1.965 2.015 2.135 2.055 2.155 2.345
781.236 2.505 2.765 3.025 3.295 4.125 4.985 5.565 6.855 8.385 10.415
800.526 13.525 17.185 21.395 26.085 30.885 35.585 39.435 41.745 43.475 44.485
819.816 43.885 42.545 40.095 36.585 32.645 27.885 22.565 17.895 13.825 10.555
839.106 8.445 7.035 5.805 5.005 4.395 3.975 3.635 3.275 3.185 2.805
858.395 2.735 2.585 2.475 2.585 2.455 2.445 2.275 2.315 2.855 3.135
877.685 3.195 3.405 3.495 3.855 4.355 5.075 6.025 6.935 7.995 7.985
896.975 8.135 8.205 7.205 6.235 4.855 3.705 3.255 2.815 2.405 2.095
916.265 2.015 1.945 1.675 1.865 1.935 1.735 1.695 1.655 1.885 2.125
935.555 2.135 2.235 2.315 2.405 2.575 2.595 2.745 3.055 2.985 3.035
954.844 3.265 3.395 3.525 3.795 4.125 4.545 4.805 5.035 5.585 5.985
974.134 6.195 6.415 6.975 7.355 7.595 7.975 8.215 8.815 9.605 10.555
993.424 11.515 12.625 14.365 16.405 19.175 22.245 25.415 28.965 32.255 35.435
1012.714 38.735 41.625 43.755 44.365 43.425 42.435 40.215 36.685 33.865 30.225
1032.003 25.905 22.365 19.845 18.215 16.945 15.545 15.555 17.345 18.645 20.895
1051.293 24.555 29.315 35.515 42.965 50.565 55.585 57.055 56.625 52.705 46.005
1070.583 38.805 31.425 26.235 22.935 21.455 21.045 21.245 22.625 25.505 28.185
1089.873 30.135 30.825 29.365 26.905 23.445 19.705 16.595 14.685 12.875 12.205
1109.163 12.235 11.455 10.845 10.555 10.325 10.435 10.965 11.675 11.895 11.815
1128.452 12.415 13.535 14.435 15.585 17.445 19.635 21.805 23.935 25.875 27.635
1147.742 29.365 31.125 31.655 31.995 32.775 34.035 36.625 39.135 43.395 49.755
1167.032 56.535 65.265 76.925 89.905 103.415 115.695 127.975 139.985 149.385 157.235
1186.322 164.295 167.285 164.055 155.825 140.545 120.235 98.225 77.255 59.985 45.665
1205.611 34.685 27.765 22.815 20.125 17.935 15.315 14.875 15.135 15.395 15.915
1224.901 15.905 16.325 18.045 20.495 22.795 24.895 27.485 30.265 33.505 37.565
1244.191 41.425 44.935 48.015 50.685 53.125 55.215 57.595 60.245 63.835 69.275
1263.481 76.685 87.235 100.235 115.435 132.765 150.065 164.795 175.165 180.255 178.195
1282.771 168.635 153.425 134.095 112.415 91.305 72.075 55.425 42.615 33.235 26.645
1302.060 22.105 18.655 16.015 14.155 12.805 11.635 10.545 9.745 9.095 8.495
1321.350 8.155 7.865 7.555 7.405 7.395 7.355 7.365 7.425 7.425 7.485
1340.640 7.655 7.735 7.705 7.655 7.645 7.735 8.125 8.635 9.055 9.525
1359.930 10.375 11.245 12.215 13.775 15.645 17.625 19.765 22.025 24.235 26.295
1379.219 28.475 31.095 34.575 39.285 45.945 55.485 69.105 87.625 111.895 140.955
1398.509 171.005 195.495 206.995 203.725 187.075 159.355 125.155 92.715 68.155 52.275
1417.799 43.115 38.245 36.385 36.435 37.775 40.125 43.055 46.495 50.635 55.475
1437.089 60.635 64.795 66.935 66.045 62.395 56.695 49.645 43.075 38.625 37.585
1456.378 39.945 44.865 51.885 61.105 72.445 85.995 101.845 120.505 141.735 164.725
1475.668 186.065 203.095 211.975 210.795 199.625 179.695 153.935 126.545 100.795 79.345
1494.958 61.815 47.505 36.555 28.405 22.625 18.665 15.865 13.785 12.405 11.495
1514.248 10.815 10.355 10.015 9.475 9.005 8.895 8.615 8.035 7.595 7.495
1533.538 7.215 6.905 6.905 7.015 7.155 7.385 7.975 8.725 9.575 10.855
1552.827 12.495 14.315 16.375 18.555 20.375 21.695 22.245 22.185 22.015 21.755
1572.117 21.785 22.685 24.705 27.605 30.825 33.535 35.135 35.285 33.415 29.865
1591.407 25.465 20.725 16.305 12.735 10.115 8.325 7.205 6.415 5.785 5.305
1610.697 4.965 4.725 4.565 4.335 4.145 4.135 4.175 3.935 3.795 3.875
1629.986 3.835 3.645 3.505 3.425 3.235 3.085 2.925 2.895 2.785 2.755
1649.276 2.885 2.755 2.505 2.425 2.395 2.305 2.255 2.135 1.975 1.945
1668.566 1.915 1.915 1.815 1.675 1.605 1.555 1.575 1.4844 1.4385 1.4251
1687.856 1.3364 1.3327 1.3899 1.378 1.2755 1.1677 1.3336 1.4609 1.3586 1.3573
1707.146 1.3906 1.3888 1.3724 1.3628 1.468 1.555 1.495 1.555 1.585 1.4327
1726.435 1.505 1.545 1.4552 1.4601 1.3929 1.3703 1.4681 1.4643 1.4177 1.625
1745.725 1.775 1.855 2.025 2.155 2.085 2.035 2.055 2.035 2.065 2.115
1765.015 2.225 2.335 2.375 2.435 2.415 2.475 2.595 2.685 2.795 2.925
1784.305 3.025 3.115 3.135 3.025 3.025 2.705 2.325 2.235 2.015 1.775
1803.594 1.695 1.479 1.357 1.3488 1.1795 1.2072 1.3833 1.3729 1.3816 1.4177
1822.884 1.3918 1.505 1.735 1.845 1.945 2.025 2.195 2.405 2.505 2.595
1842.174 2.585 2.415 2.315 2.265 1.985 1.755 1.715 1.755 1.805 1.815
1861.464 1.715 1.655 1.735 1.805 1.885 2.045 2.325 2.595 2.835 3.035
1880.754 3.375 3.655 3.715 3.825 3.905 3.775 3.605 3.415 3.205 3.065
1900.043 2.855 2.575 2.345 2.185 1.975 1.785 1.625 1.575 1.4429 1.26
1919.333 1.2573 1.1727 1.0311 0.9889 0.9346 0.8428 0.8659 0.9488 0.9906 0.9355
1938.623 0.9237 0.9466 0.9612 0.9748 0.9853 1.0455 1.0585 0.9903 1.0852 1.2523
1957.913 1.3344 1.4693 1.645 1.675 1.625 1.675 1.705 1.825 1.915 1.965
1977.202 2.055 2.165 2.235 2.275 2.275 2.155 2.295 2.445 2.375 2.385
1996.492 2.375 2.305 2.245 2.225 2.095 1.925 2.025 1.995 2.015 2.045
2015.782 1.915 1.915 1.935 1.935 1.895 1.855 1.925 2.005 1.935 1.925
2035.072 1.895 1.845 1.855 1.815 1.925 1.935 1.765 1.755 1.815 1.755
2054.362 1.685 1.595 1.3934 1.3607 1.4676 1.495 1.3837 1.3086 1.4182 1.4641
2073.651 1.4555 1.575 1.735 1.785 1.715 1.835 1.975 2.115 2.215 2.275
2092.941 2.315 2.305 2.355 2.335 2.275 2.285 2.235 2.125 2.095 2.095
2112.231 2.045 1.815 1.645 1.565 1.505 1.495 1.4054 1.2315 1.1504 1.2437
2131.521 1.32 1.1651 1.0203 0.9658 0.8772 0.7698 0.7311 0.7012 0.6594 0.669
2150.810 0.8531 0.9699 0.7956 0.6508 0.6104 0.6943 0.7943 0.9438 0.9495 0.9149
2170.100 0.9783 1.0354 1.0937 1.0644 1.0773 1.0897 1.1517 1.3464 1.3783 1.281
2189.390 1.3317 1.3735 1.4164 1.3562 1.2312 1.2682 1.2849 1.313 1.2358 1.1179
2208.680 1.1189 1.1171 1.0234 0.985 0.999 0.8404 0.8419 0.9309 0.9579 0.923
2227.970 0.7682 0.7878 0.9109 0.8755 0.8261 1.019 1.0638 0.9568 0.9833 0.9584
2247.259 0.9409 1.0763 1.0928 0.9962 1.1029 1.1178 1.0921 1.2577 1.1727 0.956
2266.549 0.9828 1.1989 1.3301 1.3146 1.3381 1.2944 1.3415 1.505 1.4591 1.495
2285.839 1.635 1.565 1.505 1.525 1.555 1.645 1.795 1.825 1.825 1.775
2305.129 1.755 1.805 1.615 1.505 1.4219 1.3625 1.3946 1.2667 1.1458 1.0596
2324.418 0.9369 1.0254 1.0839 1.0733 1.1441 1.0714 1.0169 0.9892 0.8732 0.9113
2343.708 1.0269 0.9888 0.9485 0.878 1.0458 1.2202 1.1114 1.0497 0.9781 0.9334
2362.998 0.9683 0.8773 0.9838 1.1841 1.1837 1.1515 0.9767 0.8288 0.8309 0.8747
2382.288 0.966 0.9447 0.924 1.047 1.0672 1.0477 1.0249 0.9295 0.8933 1.0102
2401.578 1.0687 1.0668 1.1644 1.1815 1.1071 1.0759 1.0342 1.0539 1.1258 1.1113
2420.867 1.0502 0.9582 0.9748 0.9561 0.9254 0.9059 0.8812 0.9667 0.9546 0.8726
2440.157 0.8428 0.8765 0.9098 0.8037 0.8198 0.9245 0.9828 0.9857 0.8275 0.8034
2459.447 0.882 0.8489 0.9893 1.1978 0.9797 0.8046 0.9851 1.0783 1.0853 1.1213
2478.737 1.1499 1.1442 1.2051 1.2629 1.1363 1.1219 1.2143 1.1184 1.1462 1.222
2498.026 1.0306 1.0728 1.2266 1.3372 1.4696 1.495 1.545 1.625 1.675 1.565
2517.316 1.535 1.605 1.765 1.935 1.985 2.135 2.355 2.495 2.465 2.375
2536.606 2.425 2.605 2.595 2.585 2.595 2.605 2.845 2.965 2.865 2.815
2555.896 2.865 2.955 2.855 2.645 2.545 2.575 2.605 2.535 2.475 2.255
2575.186 2.075 1.905 1.625 1.575 1.845 1.935 1.675 1.505 1.515 1.575
2594.475 1.4158 1.2089 1.2599 1.2074 1.0954 1.1781 1.181 1.3349 1.4533 1.3162
2613.765 1.324 1.505 1.3187 1.0981 1.1636 1.2306 1.3046 1.3629 1.4392 1.3927
2633.055 1.4581 1.525 1.3152 1.3688 1.2806 1.1603 1.3388 1.4559 1.3259 1.0916
2652.345 1.0634 1.2238 1.2892 1.0659 1.166 1.2724 1.14 1.1913 1.0571 0.8615
2671.634 1.0391 1.1128 1.0448 0.9541 0.7941 0.8465 0.9208 0.9714 1.0589 1.0414
2690.924 0.9433 0.8466 0.7944 0.9903 1.1306 0.9605 0.9808 1.0393 0.998 1.1396
2710.214 1.0483 0.7364 0.8267 1.0241 1.1126 1.2022 1.323 1.4102 1.328 1.2643
2729.504 1.2924 1.3444 1.3678 1.3886 1.4078 1.3169 1.2696 1.406 1.505 1.535
2748.794 1.595 1.715 1.825 1.625 1.4468 1.605 1.785 1.855 1.755 1.685
2768.083 1.575 1.4371 1.485 1.625 1.555 1.4725 1.585 1.4802 1.535 1.615
2787.373 1.605 1.715 1.785 1.965 2.065 2.175 2.295 2.365 2.445 2.455
2806.663 2.505 2.585 2.765 2.865 2.915 2.895 2.975 3.295 3.475 3.885
2825.953 4.235 4.275 4.505 4.965 5.475 6.105 6.815 7.485 8.475 9.915
2845.242 11.275 12.495 13.445 14.045 14.035 13.485 12.905 11.805 10.495 9.435
2864.532 8.555 7.715 6.855 6.235 5.945 5.845 5.605 5.505 5.475 5.425
2883.822 5.535 5.865 5.985 6.155 6.585 6.775 7.015 7.185 7.195 7.525
2903.112 7.695 7.495 7.525 7.635 7.665 7.565 7.605 7.735 7.735 7.965
2922.401 8.075 8.115 8.385 8.875 9.715 10.765 12.205 14.245 16.635 19.275
2941.691 21.975 24.505 26.555 27.735 27.825 27.075 25.315 22.625 20.035 17.805
2960.981 16.125 15.035 14.125 13.625 13.735 13.915 14.065 14.025 13.715 13.065
2980.271 12.255 11.305 10.095 9.215 8.595 7.775 7.065 6.685 6.535 6.425
2999.561 6.305 6.245 6.155 6.605 7.225 7.725 8.235 8.795 9.765 10.935
3018.850 11.975 12.705 13.055 12.945 12.355 11.325 9.865 8.275 7.075 6.205
3038.140 5.475 5.065 4.705 4.345 4.045 3.825 3.785 3.875 3.975 3.805
3057.430 3.665 3.725 3.855 4.045 4.215 4.585 5.175 5.995 6.745 7.235
3076.720 8.025 8.875 9.235 9.525 9.695 9.655 9.275 8.655 8.095 7.465
3096.009 7.005 6.685 6.175 5.605 5.115 4.465 3.765 3.225 2.965 2.535
3115.299 2.025 2.015 1.965 1.675 1.785 1.735 1.625 1.705 1.575 1.555
3134.589 1.605 1.4665 1.495 1.3592 1.153 1.1873 1.3173 1.3897 1.4653 1.525
3153.879 1.2946 1.2224 1.3362 1.4612 1.4271 1.2596 1.0359 1.0543 1.114 1.0308
3173.169 0.9955 0.8688 0.8815 1.0862 1.0082 0.8283 0.8572 0.7802 0.6974 0.6799
3192.458 0.6884 0.6642 0.717 0.6677 0.49637 0.5736 0.48202 0.487151 0.7049 0.6733
3211.748 0.4457 0.372 0.7022 0.662 0.4424 0.5854 0.5956 0.6229 0.685 0.6644
3231.038 0.53506 0.4215 0.486049 0.645 0.8385 0.739 0.4674 0.188 0.256 0.50285
3250.328 0.268 0.19 0.374 0.491722 0.4404 0.223 0.291 0.51266 0.6102 0.47688
3269.617 0.372 0.6362 0.6409 0.3903 0.253 0.182 0.4806 0.955 0.6852 0.4373
3288.907 0.51763 0.289 0.39 0.50174 0.374 0.54399 0.6603 0.6038 0.53504 0.352
3308.197 0.251 0.285 0.254 0.246 0.49401 0.7119 0.7441 0.602 0.4219 0.4192
3327.487 0.58271 0.6358 0.6266 0.601 0.53617 0.6555 0.6237 0.53253 0.5986 0.48436
3346.777 0.376 0.4601 0.8463 0.7905 0.3 0.364 0.4359 0.4286 0.373 0.161
3366.066 0 0.155 0.3921 0.291 0.371 0.203 0.094 0.324 0.379 0.4177
3385.356 0.57827 0.7426 0.6265 0.595 0.6444 0.7139 0.6769 0.458 0.4445 0.4515
3404.646 0.294 0.4353 0.4252 0.32 0.4438 0.343 0.229 0.4394 0.7623 0.7578
3423.936 0.6488 0.673 0.6425 0.4235 0.304 0.4337 0.489722 0.50637 0.49617 0.266
3443.225 0.156 0.072 0.1 0.274 0.231 0.195 0.4131 0.56692 0.372 0.079
3462.515 0.327 0.7424 0.7004 0.6349 0.4 0.432 0.7144 0.7193 0.6888 0.53067
3481.805 0.56476 0.6774 0.5964 0.6976 0.54629 0.349 0.381 0.304 0.351 0.404
3501.095 0.6173 0.7082 0.4532 0.56331 0.6577 0.363 0.263 0.366 0.31 0.313
3520.385 0.3946 0.492232 0.51032 0.3 0.219 0.295 0.26 0.219 0.315 0.4089
3539.674 0.6872 0.8543 0.6321 0.48291 0.319 0.28 0.49962 0.6275 0.6065 0.55083
3558.964 0.48847 0.407 0.132 0.144 0.25 0.128 0.4251 0.48353 0.381 0.608
3578.254 0.9327 0.9744 0.6445 0.4523 0.4114 0.373 0.339 0.279 0.379 0.311
3597.544 0.236 0.4443 0.4087 0.4113 0.7049 0.7811 0.5895 0.3876 0.334 0.55324
3616.833 0.6473 0.56959 0.7392 0.7414 0.369 0.56525 0.855 0.8377 0.55962 0.357
3636.123 0.4613 0.313 0.314 0.315 0.3955 0.52507 0.6215 0.6387 0.5074 0.5972
3655.413 0.8117 0.5926 0.297 0.4118 0.367 0.38 0.4057 0.346 0.50647 0.331
3674.703 0.106 0.264 0.336 0.341 0.355 0.239 0.356 0.6314 0.8697 0.9107
3693.993 0.53489 0.269 0.3974 0.4363 0.355 0.4038 0.4635 0.6183 0.49308 0.183
3713.282 0.191 0.372 0.56686 0.7768 0.8203 0.52631 0.232 0.364 0.6522 0.8434
3732.572 0.6858 0.57014 0.54828 0.54128 0.6277 0.484305 0.336 0.6526 0.9577 0.6021
3751.862 0.47974 0.341 0.305 0.55702 0.493409 0.49842 0.50456 0.55869 0.6316 0.6399
3771.152 0.7026 0.5996 0.383 0.378 0.355 0.299 0.4157 0.54211 0.52891 0.4246
3790.441 0.52199 0.6391 0.51386 0.341 0.57536 0.8216 0.672 0.661 0.6419 0.4013
3809.731 0.235 0.271 0.4598 0.494621 0.7037 0.707 0.356 0.6338 0.692 0.489881
3829.021 0.6307 0.54315 0.338 0.2 0.322 0.57367 0.51893 0.4467 0.6512 0.57144
3848.311 0.4446 0.4204 0.37 0.4261 0.48131 0.332 0.349 0.7538 0.6474 0.249
3867.601 0.333 0.6278 0.6283 0.6368 0.8782 0.9484 0.7964 0.9051 0.9306 0.6397
3886.890 0.4378 0.52351 0.8737 1.0806 1.1137 0.9469 0.7036 0.49995 0.4231 0.7444
3906.180 0.9484 1.0337 1.2031 1.4275 1.3351 1.0819 0.8644 0.6545 0.57747 0.7011
3925.470 0.7515 0.491868 0.6171 0.9407 0.9773 0.7079 0.54357 0.6915 0.6677 0.51584
3944.760 0.8878 0.9567 0.7012 0.9523 0.9521 0.6123 0.51051 0.6239 0.7872 0.8478
3964.049 0.8938 0.9402 0.6375 0.50777 0.55137 0.442 0.6772 0.54068 0.345 0.489699
3983.339 0.362 0.4593 0.55832 0.6748 0.6807 0.52441 0.53552 0.6108 0.7536 0.58354
##END=
