##TITLE=3-Bromophenyl isocyanate
##JCAMP-DX=4.24
##DATA TYPE=INFRARED SPECTRUM
##ORIGIN=EPA-IR VAPOR PHASE LIBRARY
##OWNER=SRD/NIST
Collection (C) 2018 copyright by the U.S. Secretary of Commerce
on behalf of the United States of America. All rights reserved.
##CAS REGISTRY NO=23138-55-8
##MOLFORM=C 7 H 4 Br N O
##$NIST SOURCE=MSDC-IR
##STATE=gas
##XUNITS=1/CM
##YUNITS=ABSORBANCE
##XFACTOR=1.
##YFACTOR=0.001
##DELTAX=1.92898
##FIRSTX=549.8
##LASTX=4000.7
##FIRSTY=2.104
##MAXX=4000.7
##MINX=549.759
##MAXY=0.694164
##MINY=0
##NPOINTS=1790
##XYDATA=(X++(Y..Y))
549.759 2.104 1.974 1.914 2.134 2.204 2.464 2.944 3.314 3.784 4.244
569.049 4.844 5.654 6.244 6.484 6.804 7.164 7.304 7.494 7.664 7.754
588.339 7.624 7.794 8.184 8.274 8.474 8.564 8.704 9.164 9.364 9.464
607.628 9.604 9.474 9.484 9.544 9.264 9.184 9.224 9.114 8.794 8.364
626.918 8.174 7.994 7.774 7.694 7.644 7.804 8.324 8.814 9.294 9.674
646.208 9.624 9.524 9.384 9.394 9.534 9.454 9.774 10.824 12.314 14.114
665.498 16.074 18.524 21.214 23.964 27.864 30.434 28.574 25.604 23.654 21.674
684.787 18.954 15.594 12.514 9.964 8.104 6.674 5.564 4.924 4.204 3.774
704.077 3.464 3.064 2.764 2.604 2.824 2.744 2.504 2.564 2.724 2.664
723.367 2.524 2.674 2.794 2.864 2.814 2.624 2.604 2.554 2.454 2.554
742.657 2.644 2.744 3.144 3.614 3.794 4.314 5.534 7.144 9.404 12.404
761.947 15.924 19.904 24.034 27.924 32.134 37.124 42.344 45.704 44.244 38.704
781.236 33.744 30.294 26.624 22.764 18.784 15.534 13.414 12.654 13.424 15.404
800.526 18.694 23.114 28.544 34.634 40.254 44.614 47.604 48.954 48.124 44.774
819.816 38.994 32.294 26.044 20.384 15.674 11.884 9.014 7.074 5.814 5.044
839.106 4.444 3.894 3.624 3.584 3.714 4.164 4.924 5.734 6.834 8.044
858.395 9.314 10.794 11.984 12.674 13.314 13.624 13.044 12.374 11.654 10.294
877.685 8.954 8.014 7.004 6.014 5.384 4.774 4.184 3.944 3.544 3.014
896.975 2.824 2.544 2.204 2.154 2.044 1.804 1.594 1.434 1.2354 1.1505
916.265 1.105 1.0282 0.8583 0.8422 0.8902 0.7816 0.7117 0.552 0.44 0.4976
935.555 0.42289 0.3225 0.3357 0.39077 0.40177 0.2752 0.214 0.216 0.146 0.084
954.844 0.028 0 0.113 0.207 0.2844 0.2593 0.357249 0.7001 0.7525 0.7623
974.134 0.7235 0.7106 0.8753 0.9848 1.17 1.1612 1.414 1.994 2.634 3.574
993.424 4.314 4.454 4.404 4.454 4.724 4.494 3.114 1.814 1.3009 1.0868
1012.714 0.7733 0.5364 0.36971 0.098 0.031 0.2692 0.41152 0.2735 0.207 0.34554
1032.003 0.360618 0.5326 0.8172 0.7985 0.9186 1.0856 1.624 2.024 2.194 3.224
1051.293 4.324 5.414 7.114 9.254 11.704 14.124 15.964 16.894 17.104 17.414
1070.583 17.874 16.964 15.244 14.114 13.264 12.484 11.724 10.914 9.904 8.754
1089.873 7.264 6.344 6.284 6.174 6.574 7.134 7.324 8.014 8.824 9.074
1109.163 9.324 9.684 10.064 9.924 9.514 9.474 9.254 8.864 8.504 8.354
1128.452 8.344 8.314 8.014 7.324 6.924 6.434 5.984 5.994 5.744 5.414
1147.742 5.234 5.234 5.344 5.724 6.104 5.984 5.964 6.264 6.214 5.884
1167.032 5.594 5.144 4.394 3.714 3.354 3.064 3.094 3.084 2.544 2.254
1186.322 2.294 2.404 2.174 1.704 1.834 1.924 2.024 2.384 2.414 2.004
1205.611 1.854 1.974 1.904 1.794 1.704 1.774 1.594 0.9043 0.6977 0.7915
1224.901 0.883 0.8556 0.8341 0.9662 0.7992 0.6667 0.6848 1.0237 1.3001 1.554
1244.191 1.684 1.924 2.464 2.854 3.154 3.174 2.984 2.894 2.714 2.314
1263.481 1.824 1.484 1.374 1.0874 1.0511 1.3032 1.3399 1.434 1.564 1.754
1282.771 2.164 2.524 2.804 2.964 2.954 2.934 2.874 2.704 2.504 2.244
1302.060 1.914 1.684 1.554 1.424 1.3522 1.3212 1.424 1.614 1.794 2.014
1321.350 2.314 2.634 2.824 2.894 2.954 2.944 2.764 2.504 2.154 1.854
1340.640 1.674 1.494 1.384 1.2557 1.1602 1.1732 1.1653 1.1514 1.1436 1.0939
1359.930 1.1031 1.1214 1.1229 1.1435 1.1495 1.199 1.257 1.3009 1.414 1.614
1379.219 1.784 1.934 2.184 2.454 2.654 2.864 3.194 3.494 3.874 4.404
1398.509 5.024 5.784 6.644 7.504 8.324 9.004 9.554 9.924 10.054 9.894
1417.799 9.514 9.074 8.584 8.084 7.574 7.214 7.064 7.084 7.324 7.714
1437.089 8.204 8.834 9.484 10.144 10.714 11.254 11.844 12.294 12.564 12.724
1456.378 12.754 12.634 12.574 12.564 12.634 12.974 13.584 14.494 15.734 17.264
1475.668 19.054 21.114 23.274 25.504 27.854 30.234 32.504 34.594 36.484 37.884
1494.958 38.614 38.894 38.854 38.434 37.634 36.634 35.404 33.994 32.294 30.194
1514.248 27.744 25.154 22.384 19.554 16.714 14.194 12.164 10.654 9.584 8.924
1533.538 8.594 8.464 8.544 8.874 9.244 9.794 10.544 11.464 12.794 14.584
1552.827 16.944 20.184 24.094 28.944 34.954 41.394 48.254 55.074 61.084 65.894
1572.117 69.304 71.884 74.184 75.894 77.224 80.114 86.594 96.664 108.554 119.504
1591.407 126.764 128.364 123.744 113.934 100.174 83.384 64.724 46.754 32.274 22.364
1610.697 16.424 12.744 10.254 8.564 7.414 6.464 5.714 5.154 4.614 4.194
1629.986 3.904 3.684 3.454 3.174 2.974 2.804 2.614 2.454 2.364 2.204
1649.276 2.084 1.974 1.914 2.024 2.074 2.164 2.284 2.324 2.334 2.344
1668.566 2.284 2.134 1.964 1.774 1.574 1.394 1.1691 1.0455 1.0146 0.9716
1687.856 0.9295 0.8524 0.808 0.8086 0.8332 0.8897 0.8689 0.9036 0.9802 0.967
1707.146 1.0369 1.1366 1.191 1.2239 1.1653 1.2039 1.3216 1.3337 1.404 1.564
1726.435 1.614 1.614 1.614 1.614 1.624 1.674 1.674 1.594 1.594 1.624
1745.725 1.584 1.524 1.524 1.504 1.494 1.504 1.574 1.594 1.554 1.554
1765.015 1.604 1.664 1.714 1.684 1.724 1.844 1.894 1.884 1.874 1.884
1784.305 1.824 1.714 1.604 1.444 1.2435 1.1502 1.0366 0.9218 0.9049 0.8811
1803.594 0.8721 0.8871 0.9035 0.8751 0.8513 0.8244 0.8208 0.8177 0.808 0.8243
1822.884 0.8151 0.84 0.8606 0.8881 0.93 0.9307 0.9896 1.0753 1.1872 1.2706
1842.174 1.3071 1.484 1.664 1.784 1.884 1.944 2.024 2.034 1.884 1.684
1861.464 1.464 1.2599 1.1111 0.9701 0.8603 0.7333 0.6202 0.6287 0.6115 0.5598
1880.754 0.603 0.6226 0.5481 0.5136 0.5558 0.5909 0.6097 0.5958 0.594 0.6389
1900.043 0.6631 0.7141 0.8266 0.925 1.0271 1.1436 1.2357 1.374 1.574 1.754
1919.333 1.954 2.064 2.164 2.304 2.344 2.294 2.264 2.204 2.054 1.864
1938.623 1.724 1.594 1.454 1.3069 1.2085 1.1054 1.0898 1.1041 1.0364 1.0266
1957.913 1.0067 0.976 1.0285 0.9954 0.9689 0.9936 1.0139 0.9975 0.9242 0.9637
1977.202 0.9961 1.0019 1.0293 0.984 0.9076 0.8189 0.8251 0.8471 0.8191 0.8488
1996.492 0.8606 0.8553 0.8703 0.8335 0.7804 0.7932 0.7929 0.7991 0.8453 0.8629
2015.782 0.8197 0.8231 0.8575 0.9008 0.9495 0.9385 0.9817 1.0433 1.0629 1.1499
2035.072 1.1857 1.2224 1.2967 1.364 1.434 1.484 1.584 1.654 1.754 1.894
2054.362 1.984 2.024 2.064 2.164 2.254 2.304 2.334 2.424 2.504 2.534
2073.651 2.634 2.754 2.854 2.994 3.204 3.384 3.484 3.634 3.804 3.854
2092.941 3.904 4.034 4.184 4.364 4.544 4.704 4.834 4.984 5.144 5.354
2112.231 5.654 6.004 6.394 6.684 6.934 7.234 7.594 7.924 8.214 8.584
2131.521 8.954 9.294 9.704 10.134 10.554 10.954 11.464 12.064 12.644 13.164
2150.810 13.754 14.434 15.094 15.854 16.664 17.534 18.454 19.394 20.444 21.514
2170.100 22.664 23.944 25.214 26.574 27.944 29.304 30.814 32.404 33.954 35.544
2189.390 37.344 39.344 41.394 43.644 46.244 49.194 52.504 55.944 59.554 63.234
2208.680 66.844 70.404 73.864 77.134 80.424 83.654 86.724 89.924 93.334 97.014
2227.970 101.204 106.374 112.674 120.424 130.224 142.324 157.054 174.824 196.174 221.284
2247.259 250.134 282.584 317.874 354.914 392.854 430.794 468.154 504.964 541.244 577.604
2266.549 612.944 645.644 673.314 691.304 694.164 678.664 646.544 600.374 541.834 474.244
2285.839 404.394 340.804 288.494 248.284 218.494 196.714 180.904 169.264 160.564 153.804
2305.129 148.344 143.664 139.294 135.004 130.884 126.844 122.544 118.064 113.644 109.264
2324.418 104.854 100.484 96.304 92.294 88.454 84.724 81.164 77.624 74.004 70.304
2343.708 66.634 63.084 59.724 56.754 54.054 51.754 49.924 48.534 47.544 46.594
2362.998 45.504 44.134 42.434 40.384 38.014 35.374 32.624 29.864 27.214 24.724
2382.288 22.454 20.454 18.694 17.184 15.974 15.024 14.244 13.524 12.914 12.444
2401.578 12.124 11.724 11.324 11.024 10.694 10.184 9.684 9.214 8.674 8.214
2420.867 7.664 7.204 6.754 6.244 5.934 5.614 5.194 4.864 4.664 4.464
2440.157 4.314 4.194 3.994 3.894 3.844 3.744 3.674 3.524 3.354 3.274
2459.447 3.324 3.314 3.204 3.084 2.954 2.924 2.924 2.854 2.714 2.564
2478.737 2.494 2.514 2.454 2.334 2.174 2.074 2.034 1.924 1.774 1.704
2498.026 1.714 1.674 1.544 1.444 1.424 1.374 1.3142 1.3243 1.2786 1.2806
2517.316 1.2662 1.1924 1.1972 1.2208 1.2012 1.17 1.1596 1.1232 1.0728 1.111
2536.606 1.1328 1.0944 1.1369 1.1255 1.0777 1.1388 1.1391 1.0674 1.0858 1.1473
2555.896 1.061 0.9849 1.0433 1.0913 1.0579 1.1209 1.2423 1.1952 1.1199 1.1138
2575.186 1.141 1.1556 1.1677 1.1197 1.049 1.0276 1.0065 0.9393 0.9208 0.9389
2594.475 0.943 0.9924 1.0233 0.9963 1.0019 0.9871 0.9563 0.9959 0.9826 0.9848
2613.765 0.9928 1.0435 1.1081 1.0458 0.9332 0.9558 0.9727 0.9575 0.9476 0.9116
2633.055 0.9376 0.954 0.9205 0.9146 0.9425 0.9586 0.9083 0.8667 0.976 1.0445
2652.345 1.0249 1.0121 0.9831 1.0412 1.2122 1.2175 1.1921 1.2211 1.2169 1.1814
2671.634 1.1478 1.2161 1.2363 1.2625 1.394 1.414 1.354 1.384 1.384 1.424
2690.924 1.514 1.514 1.444 1.374 1.374 1.424 1.354 1.3285 1.384 1.474
2710.214 1.464 1.424 1.424 1.434 1.544 1.614 1.614 1.584 1.554 1.594
2729.504 1.644 1.674 1.674 1.704 1.744 1.744 1.764 1.744 1.624 1.614
2748.794 1.604 1.594 1.464 1.2534 1.1614 1.1715 1.1174 1.0204 0.9911 0.9572
2768.083 0.9974 0.9889 0.971 0.9711 0.8927 0.7926 0.8085 0.8587 0.8689 0.9022
2787.373 0.9183 0.9896 0.9442 0.7769 0.792 0.8158 0.821 0.9173 0.896 0.8989
2806.663 0.9457 0.8968 0.9338 1.0084 1.0453 1.087 1.0494 0.9597 0.8686 0.8731
2825.953 0.8184 0.6242 0.6238 0.7315 0.8248 0.7943 0.6516 0.6597 0.7706 0.8404
2845.242 0.8358 0.7989 0.7604 0.7733 0.7802 0.6971 0.6008 0.6655 0.8042 0.7464
2864.532 0.6877 0.7703 0.8124 0.778 0.7347 0.6132 0.6162 0.7748 0.8111 0.8484
2883.822 0.8793 0.8539 0.9199 0.9999 1.0497 1.1473 1.265 1.2864 1.2727 1.3519
2903.112 1.504 1.594 1.614 1.634 1.614 1.664 1.824 1.874 1.864 1.934
2922.401 1.944 1.914 1.894 1.834 1.814 1.894 1.864 1.764 1.824 1.934
2941.691 1.754 1.654 1.784 1.844 1.904 1.854 1.614 1.434 1.464 1.464
2960.981 1.2896 1.1488 1.1198 1.0641 0.9468 0.9818 1.0261 0.8299 0.6444 0.5975
2980.271 0.6885 0.744 0.6995 0.6708 0.7325 0.7786 0.734 0.7462 0.8203 0.9255
2999.561 0.9607 0.8686 0.8623 0.8205 0.7996 0.9943 1.0294 0.8916 0.9639 1.0129
3018.850 0.9586 1.096 1.1947 1.2481 1.3505 1.454 1.524 1.514 1.584 1.794
3038.140 1.944 2.124 2.274 2.294 2.644 2.994 3.274 3.684 4.094 4.554
3057.430 4.914 5.384 5.934 6.444 6.944 7.424 7.814 8.214 8.624 9.024
3076.720 9.204 9.174 9.154 8.984 8.594 8.154 7.644 7.094 6.494 5.864
3096.009 5.354 4.884 4.374 3.874 3.474 3.094 2.814 2.574 2.254 2.034
3115.299 1.814 1.754 1.704 1.524 1.434 1.238 1.1254 1.1501 1.1025 1.1189
3134.589 1.0213 0.8762 0.9682 0.9092 0.8939 0.9214 0.6816 0.5867 0.5679 0.7625
3153.879 0.7994 0.5745 0.7156 0.8167 0.8628 0.8276 0.6024 0.5713 0.6707 0.6376
3173.169 0.3916 0.2702 0.3931 0.38655 0.40295 0.3096 0.21 0.2876 0.2744 0.3022
3192.458 0.3117 0.3212 0.3337 0.3301 0.3014 0.252 0.238 0.238 0.2575 0.231
3211.748 0.202 0.105 0.071 0.125 0.151 0.144 0.16 0.192 0.2612 0.228
3231.038 0.12 0.189 0.2 0.153 0.171 0.3228 0.2587 0.125 0.153 0.04
3250.328 0.051 0.214 0.2882 0.148 0.113 0.196 0.158 0.179 0.227 0.209
3269.617 0.2702 0.34574 0.359699 0.45356 0.383 0.35025 0.34784 0.222 0.3039 0.42216
3288.907 0.37479 0.3399 0.40083 0.3115 0.2689 0.38271 0.34966 0.3192 0.3313 0.3201
3308.197 0.36841 0.4629 0.43952 0.4236 0.4335 0.43991 0.5285 0.5912 0.655 0.7514
3327.487 0.8171 0.5291 0.43245 0.5712 0.7243 0.9002 0.9489 0.9041 0.8567 1.147
3346.777 1.404 1.3521 1.3291 1.434 1.554 1.574 1.544 1.684 1.884 1.984
3366.066 1.924 1.944 2.054 2.074 2.224 2.314 2.384 2.494 2.624 2.754
3385.356 2.694 2.774 2.834 2.794 2.754 2.754 3.014 3.224 3.214 3.374
3404.646 3.464 3.394 3.644 3.994 4.134 4.034 4.014 3.954 3.794 3.654
3423.936 3.514 3.234 2.994 2.964 2.664 2.354 2.194 2.174 2.174 2.014
3443.225 1.794 1.564 1.374 1.1822 1.0435 1.1048 1.1517 1.1111 1.069 1.0673
3462.515 1.1542 1.0647 0.9056 0.8822 0.8523 0.7191 0.6922 0.7605 0.7076 0.5355
3481.805 0.5444 0.7559 0.6903 0.6847 0.7383 0.6909 0.7813 0.7604 0.7531 0.8248
3501.095 0.7624 0.7506 0.8141 0.7371 0.5818 0.5955 0.7301 0.7978 0.7467 0.714
3520.385 0.8184 0.8194 0.681 0.6243 0.6407 0.7119 0.7582 0.7794 0.8732 0.7576
3539.674 0.7253 0.8338 0.6819 0.5793 0.5945 0.7225 0.8327 0.793 0.7756 0.8038
3558.964 0.7884 0.8686 0.9084 0.8749 0.8433 0.711 0.7058 0.8059 0.7714 0.875
3578.254 0.9184 0.7767 0.7931 0.7525 0.7309 0.7335 0.8028 0.9124 1.0466 0.9865
3597.544 0.8453 1.0444 1.1959 1.2285 1.2238 1.1248 1.1067 1.1085 1.1799 1.3364
3616.833 1.414 1.404 1.414 1.454 1.424 1.414 1.484 1.404 1.454 1.584
3636.123 1.614 1.814 1.724 1.644 1.884 1.964 1.954 2.024 2.184 2.364
3655.413 2.494 2.554 2.484 2.504 2.704 2.644 2.664 2.824 3.034 3.084
3674.703 2.864 2.914 2.904 2.804 2.834 2.924 2.844 2.794 2.684 2.554
3693.993 2.684 2.674 2.704 2.814 2.674 2.534 2.454 2.424 2.384 2.344
3713.282 2.514 2.564 2.414 2.294 2.184 2.284 2.354 2.154 2.054 2.064
3732.572 2.044 1.964 2.044 2.114 1.994 1.824 1.834 1.874 1.844 1.924
3751.862 2.034 2.014 1.954 2.034 2.184 2.334 2.404 2.354 2.334 2.274
3771.152 2.324 2.334 2.374 2.354 2.124 2.024 1.994 2.044 1.924 1.814
3790.441 1.764 1.724 1.654 1.384 1.3505 1.514 1.3456 1.1547 1.19 1.2171
3809.731 1.3023 1.3351 1.2013 1.0947 1.0135 0.9776 1.1251 1.1624 1.0057 0.9132
3829.021 0.9333 0.8403 0.8937 0.9582 0.7285 0.703 0.7928 0.6773 0.6829 0.6811
3848.311 0.6323 0.6626 0.7593 0.8355 0.7341 0.838 0.9112 0.8113 0.7528 0.6615
3867.601 0.6146 0.63 0.6368 0.6395 0.7662 0.7545 0.5763 0.6529 0.7049 0.7281
3886.890 0.5752 0.3178 0.41194 0.5457 0.5202 0.41773 0.45084 0.6242 0.542 0.4581
3906.180 0.4722 0.39397 0.37241 0.249 0.197 0.2629 0.17 0.18 0.218 0.11
3925.470 0.079 0.212 0.2917 0.19 0.152 0.249 0.3032 0.38415 0.2984 0.2671
3944.760 0.245 0.173 0.3294 0.358588 0.221 0.179 0.277 0.146 0.202 0.3086
3964.049 0.2998 0.39941 0.3385 0.2862 0.36567 0.238 0.229 0.40262 0.343 0.175
3983.339 0.098 0.253 0.2814 0.2855 0.233 0.114 0.2652 0.3129 0.141 0.251
##END=
