##TITLE=4-Methyl-2-hexanol
##JCAMP-DX=4.24
##DATA TYPE=INFRARED SPECTRUM
##ORIGIN=NIST Mass Spectrometry Data Center
##OWNER=NIST Standard Reference Data Program
Collection (C) 2018 copyright by the U.S. Secretary of Commerce
on behalf of the United States of America. All rights reserved.
##CAS REGISTRY NO=2313-61-3
##MOLFORM=C 7 H 16 O
##$NIST SOURCE=MSDC-IR
##SPECTROMETER/DATA SYSTEM=HP-GC/MS/IRD
##STATE=gas
##XUNITS=1/CM
##YUNITS=ABSORBANCE
##XFACTOR=1.0
##YFACTOR=0.000002500
##DELTAX=4.0
##FIRSTX=550.0
##LASTX=3846.0
##FIRSTY=0.000410
##MAXX=3846
##MINX=550
##MAXY=0.025
##MINY=0
##NPOINTS=825
##XYDATA=(X++(Y..Y))
550.0 164 153 109 83 83 77 66 80 79 75
590.0 98 81 54 45 33 42 54 26 11 25
630.0 20 23 39 43 44 43 38 70 73 19
670.0 14 31 16 19 21 13 9 3 6 15
710.0 12 11 13 12 6 10 17 33 43 39
750.0 55 80 89 108 120 127 141 148 163 166
790.0 156 156 151 136 136 175 233 261 291 332
830.0 363 352 322 295 270 241 210 200 184 183
870.0 203 231 255 277 304 352 406 455 524 571
910.0 598 605 582 562 562 571 614 667 719 750
950.0 746 705 637 577 549 539 526 529 545 563
990.0 591 625 669 728 792 871 963 1065 1161 1242
1030.0 1325 1382 1433 1451 1451 1430 1390 1371 1360 1352
1070.0 1353 1384 1439 1493 1538 1549 1530 1479 1415 1380
1110.0 1353 1330 1342 1384 1430 1471 1508 1531 1511 1461
1150.0 1398 1284 1136 988 848 727 623 557 527 514
1190.0 523 540 571 611 651 697 749 806 856 902
1230.0 939 980 1012 1033 1034 1015 972 928 874 820
1270.0 772 726 694 659 639 618 585 567 551 537
1310.0 523 522 535 546 569 608 651 705 769 839
1350.0 931 1057 1206 1392 1618 1862 2095 2264 2311 2225
1390.0 2017 1720 1405 1135 917 764 664 604 572 574
1430.0 604 656 741 850 980 1129 1270 1377 1417 1389
1470.0 1279 1095 900 716 549 413 321 256 214 183
1510.0 159 142 127 111 98 92 91 85 78 82
1550.0 86 82 68 64 68 63 58 54 52 48
1590.0 44 51 54 49 47 45 43 42 34 34
1630.0 32 27 31 31 30 26 30 38 35 35
1670.0 32 30 33 28 25 34 36 30 24 21
1710.0 23 20 15 18 16 13 12 12 13 11
1750.0 7 8 12 15 13 10 10 10 8 7
1790.0 11 10 7 8 10 8 9 8 4 6
1830.0 7 8 8 6 7 8 0 3 13 12
1870.0 10 6 5 8 7 5 6 7 14 14
1910.0 10 13 13 12 12 12 5 0 5 11
1950.0 11 10 10 11 6 0 7 11 9 8
1990.0 11 11 7 4 2 2 4 10 9 8
2030.0 8 6 5 4 10 9 1 2 6 7
2070.0 7 9 10 11 11 12 13 9 5 5
2110.0 3 4 6 4 10 13 9 10 9 4
2150.0 7 13 8 4 6 5 6 9 13 17
2190.0 16 10 12 18 13 4 2 7 10 7
2230.0 9 6 5 8 11 13 9 10 17 17
2270.0 14 15 17 11 9 14 10 8 13 10
2310.0 7 12 17 17 10 5 7 13 18 24
2350.0 19 19 24 24 22 22 21 19 17 21
2390.0 25 23 22 28 33 29 27 34 34 34
2430.0 34 33 34 32 28 29 30 23 20 22
2470.0 23 20 21 23 23 18 11 20 19 20
2510.0 24 18 18 16 19 26 29 31 31 29
2550.0 36 39 48 46 41 56 62 59 66 73
2590.0 78 78 79 84 83 81 85 87 87 90
2630.0 97 103 102 104 109 112 118 121 123 120
2670.0 123 127 126 133 137 137 145 148 146 148
2710.0 148 153 168 185 195 204 223 230 227 225
2750.0 224 219 222 226 232 239 241 257 275 294
2790.0 310 327 354 385 418 452 500 552 614 689
2830.0 775 881 1010 1156 1333 1546 1799 2094 2442 2834
2870.0 3258 3701 4095 4387 4576 4688 4753 4827 5029 5390
2910.0 5880 6427 6938 7330 7543 7543 7345 6999 6619 6369
2950.0 6404 6859 7746 8835 9708 10000 9583 8484 6900 5211
2990.0 3738 2610 1831 1338 1036 837 701 594 525 482
3030.0 437 403 378 348 327 318 306 294 278 256
3070.0 253 252 240 231 229 216 208 211 203 185
3110.0 176 174 173 169 158 148 137 135 144 143
3150.0 135 134 131 128 121 118 121 114 108 109
3190.0 101 88 81 86 90 76 61 59 51 48
3230.0 46 43 36 31 32 29 23 17 17 16
3270.0 14 15 25 34 28 17 22 27 28 27
3310.0 27 22 8 3 15 18 8 13 24 27
3350.0 28 19 12 16 24 32 37 38 33 26
3390.0 29 39 40 34 41 46 45 48 59 59
3430.0 53 48 51 44 32 35 41 43 45 42
3470.0 35 38 33 25 22 23 29 32 30 22
3510.0 19 14 10 5 10 11 6 22 19 11
3550.0 19 22 22 21 24 33 36 31 21 27
3590.0 38 41 47 57 65 72 83 112 157 203
3630.0 252 316 398 489 567 626 648 601 522 417
3670.0 314 237 176 134 113 90 77 74 65 57
3710.0 56 66 59 39 32 31 27 31 31 37
3750.0 33 27 34 26 20 25 34 32 28 35
3790.0 42 47 54 50 53 53 39 41 47 47
3830.0 46 42 53 52 47
##END=
