##TITLE=4-Ethylphenyl isocyanate
##JCAMP-DX=4.24
##DATA TYPE=INFRARED SPECTRUM
##ORIGIN=EPA-IR VAPOR PHASE LIBRARY
##OWNER=SRD/NIST
Collection (C) 2018 copyright by the U.S. Secretary of Commerce
on behalf of the United States of America. All rights reserved.
##CAS REGISTRY NO=23138-50-3
##MOLFORM=C 9 H 9 N O
##$NIST SOURCE=MSDC-IR
##STATE=gas
##XUNITS=1/CM
##YUNITS=ABSORBANCE
##XFACTOR=1.
##YFACTOR=0.001
##DELTAX=1.92934
##FIRSTX=549.9
##LASTX=3999.5
##FIRSTY=4.55
##MAXX=3999.53
##MINX=549.863
##MAXY=0.51277
##MINY=0
##NPOINTS=1789
##XYDATA=(X++(Y..Y))
549.863 4.55 4.29 4.16 4.16 4.03 4.02 4.27 4.38 4.55 4.79
569.156 5.01 5.28 5.67 6.04 6.28 6.6 7.04 7.58 8.07 8.6
588.450 9.13 9.61 10.08 10.46 10.69 10.7 10.56 10.25 9.83 9.37
607.743 8.89 8.46 8.03 7.6 7.24 7 6.85 6.71 6.5 6.27
627.037 6.07 5.82 5.56 5.28 4.96 4.63 4.3 4.07 3.88 3.74
646.330 3.63 3.38 3.1558 3.1132 3.0394 2.9694 2.925 2.9805 3.0366 3.014
665.624 3.0233 3.0075 3.024 3.1108 3.1138 3.1053 3.1424 3.1346 3.1529 3.164
684.917 3.0908 3.024 3.0145 2.9825 2.9612 2.9609 2.9305 2.9019 2.8066 2.6536
704.210 2.5748 2.5194 2.4101 2.3484 2.3813 2.3641 2.326 2.27368 2.29198 2.24284
723.504 2.1446 2.1204 2.082 2.1148 2.1067 2.1469 2.1696 2.1015 2.075 2.091
742.797 2.1662 2.1778 2.1425 2.23174 2.305 2.27214 2.3018 2.3321 2.3425 2.3846
762.091 2.4118 2.4742 2.4774 2.4253 2.4337 2.4518 2.5565 2.6754 2.797 2.9443
781.384 3.1353 3.45 3.73 4.03 4.4 4.76 5.11 5.44 5.71 6.03
800.678 6.44 6.88 7.4 8.05 8.85 9.78 10.95 12.26 13.6 15.01
819.971 16.36 17.57 18.65 19.72 20.61 21.34 21.81 21.76 21.02 19.76
839.264 18.31 16.87 15.34 13.75 12.14 10.55 9.04 7.7 6.53 5.48
858.558 4.64 3.93 3.39 2.9624 2.6144 2.26779 1.965 1.852 1.723 1.554
877.851 1.471 1.345 1.238 1.18 1.1 1.05 0.99 0.93 0.93 0.91
897.145 0.86 0.8 0.79 0.8 0.78 0.77 0.76 0.78 0.77 0.76
916.438 0.78 0.78 0.78 0.78 0.8 0.78 0.81 0.84 0.84 0.88
935.732 0.9 0.95 0.98 0.99 1.02 1.05 1.08 1.14 1.252 1.279
955.025 1.278 1.356 1.451 1.514 1.565 1.609 1.643 1.659 1.643 1.574
974.318 1.489 1.416 1.36 1.294 1.245 1.244 1.219 1.14 1.13 1.19
993.612 1.222 1.229 1.263 1.348 1.476 1.646 1.921 2.426 3.27 4.43
1012.905 5.67 6.35 6.25 6.06 6.06 6.03 5.41 4.15 3.0674 2.4499
1032.199 2.1802 2.1362 2.21724 2.28145 2.327 2.4393 2.6083 2.788 2.9516 3.1209
1051.492 3.29 3.53 3.77 3.89 3.98 4.03 3.95 3.77 3.6 3.37
1070.786 3.1015 2.8708 2.7244 2.6715 2.7306 2.8421 2.9508 3.21 3.59 4.06
1090.079 4.7 5.49 6.55 7.92 9.53 11.47 13.72 16.24 18.84 21.32
1109.372 23.45 24.93 25.47 25.06 24.01 22.27 19.75 16.73 13.7 11.23
1128.666 9.48 8.31 7.39 6.76 6.45 6.23 6.07 6.05 6.23 6.43
1147.959 6.48 6.54 6.61 6.63 6.73 6.61 6.37 6.14 5.78 5.48
1167.253 5.13 4.8 4.54 4.3 4.14 4.11 4.03 3.86 3.86 3.81
1186.546 3.65 3.71 3.83 3.71 3.6 3.62 3.49 3.46 3.29 2.9053
1205.840 2.7458 2.8451 2.7456 2.584 2.6361 2.6256 2.6277 2.5884 2.7696 3.1696
1225.133 3.27 3.0401 2.8427 2.8258 2.5602 2.3002 2.26338 2.1863 2.047 1.99
1244.426 2.023 1.905 1.921 1.949 1.863 1.879 1.903 1.949 2.036 2.024
1263.720 2.007 2.025 2.1168 2.2718 2.3714 2.392 2.3703 2.3444 2.3636 2.4056
1283.013 2.3625 2.3303 2.3234 2.21781 2.1373 2.087 2.03 2.078 2.21842 2.3157
1302.307 2.3448 2.4155 2.5846 2.7857 2.8988 3.0557 3.34 3.62 3.85 4.12
1321.600 4.32 4.43 4.5 4.52 4.47 4.31 4.07 3.82 3.58 3.38
1340.894 3.2 3.0412 2.9035 2.8005 2.7404 2.6889 2.6303 2.5821 2.5496 2.5393
1360.187 2.5344 2.5254 2.53 2.5724 2.623 2.6227 2.628 2.6817 2.7674 2.8352
1379.480 2.8711 2.9112 2.9623 3.0273 3.0238 2.9896 3.0044 3.0004 2.9742 2.964
1398.774 2.9995 3.0539 3.0741 3.1289 3.21 3.25 3.29 3.4 3.44 3.46
1418.067 3.51 3.54 3.61 3.64 3.68 3.75 3.76 3.78 3.85 3.89
1437.361 4.01 4.21 4.38 4.57 4.77 4.95 5.15 5.41 5.67 5.85
1456.654 6.03 6.29 6.54 6.73 6.8 6.8 6.75 6.62 6.48 6.33
1475.948 6.19 6.1 6.04 6.13 6.35 6.69 7.17 7.77 8.59 9.61
1495.241 10.81 12.31 14.12 16.21 18.49 20.87 23.51 26.26 28.9 31.52
1514.534 33.94 36.08 37.99 39.58 40.95 41.91 42.3 42.07 41.03 39.14
1533.828 36.48 33.31 29.82 25.99 22.19 18.73 15.68 13.13 11.13 9.59
1553.121 8.47 7.62 6.98 6.54 6.35 6.35 6.49 6.67 6.88 7.12
1572.415 7.34 7.49 7.57 7.59 7.47 7.31 7.16 6.99 6.94 7.04
1591.708 7.33 7.78 8.31 9.02 9.85 10.77 11.76 12.69 13.41 13.83
1611.002 13.94 13.67 12.98 11.94 10.78 9.46 8.07 6.84 5.86 5.17
1630.295 4.62 4.19 3.92 3.72 3.6 3.54 3.51 3.4 3.27 3.24
1649.588 3.17 3.0019 2.8264 2.8104 2.7749 2.6437 2.5243 2.4409 2.3548 2.19283
1668.882 2.045 1.976 1.918 1.844 1.78 1.734 1.698 1.629 1.575 1.574
1688.175 1.541 1.519 1.519 1.466 1.411 1.428 1.399 1.398 1.419 1.381
1707.469 1.397 1.405 1.364 1.316 1.292 1.283 1.291 1.329 1.366 1.396
1726.762 1.447 1.466 1.457 1.433 1.434 1.486 1.475 1.489 1.526 1.516
1746.056 1.591 1.638 1.623 1.649 1.751 1.839 1.899 1.991 2.07 2.1198
1765.349 2.1568 2.1658 2.1465 2.064 1.976 1.936 1.882 1.753 1.592 1.515
1784.642 1.51 1.457 1.447 1.469 1.423 1.448 1.499 1.477 1.463 1.497
1803.936 1.499 1.5 1.483 1.46 1.489 1.515 1.523 1.525 1.521 1.506
1823.229 1.496 1.477 1.459 1.461 1.468 1.469 1.489 1.505 1.523 1.54
1842.523 1.52 1.494 1.503 1.503 1.492 1.56 1.64 1.669 1.712 1.778
1861.816 1.877 1.958 2.047 2.143 2.23392 2.3745 2.5124 2.6684 2.8208 2.9292
1881.110 3.0272 3.0687 3.1046 3.1312 3.0956 3.0815 3.0612 2.989 2.8421 2.7044
1900.403 2.5943 2.4569 2.3526 2.23247 2.1023 2.022 1.949 1.883 1.832 1.746
1919.696 1.687 1.688 1.68 1.631 1.609 1.591 1.557 1.54 1.519 1.483
1938.990 1.442 1.439 1.492 1.519 1.484 1.462 1.453 1.468 1.482 1.443
1958.283 1.452 1.472 1.438 1.427 1.432 1.418 1.41 1.395 1.385 1.396
1977.577 1.418 1.412 1.414 1.422 1.431 1.461 1.46 1.469 1.481 1.48
1996.870 1.494 1.475 1.469 1.495 1.54 1.579 1.57 1.561 1.579 1.601
2016.164 1.607 1.622 1.637 1.676 1.711 1.739 1.763 1.765 1.777 1.774
2035.457 1.797 1.826 1.869 1.936 1.982 2.002 2.022 2.067 2.1271 2.22984
2054.750 2.3082 2.3725 2.4347 2.468 2.539 2.5927 2.6615 2.7585 2.8355 2.9179
2074.044 2.9668 2.9913 2.9974 3.0558 3.1151 3.1411 3.1814 3.21 3.26 3.32
2093.337 3.38 3.44 3.56 3.7 3.83 3.99 4.16 4.34 4.56 4.81
2112.631 5.08 5.33 5.63 5.97 6.3 6.67 7.07 7.45 7.91 8.39
2131.924 8.88 9.36 9.83 10.36 10.86 11.31 11.76 12.22 12.68 13.08
2151.218 13.42 13.73 14 14.24 14.45 14.64 14.88 15.15 15.46 15.87
2170.511 16.35 16.88 17.43 18.1 18.86 19.73 20.73 21.83 23.1 24.52
2189.804 26.08 27.82 29.72 31.82 34.13 36.55 39.06 41.68 44.41 47.23
2209.098 50.18 53.23 56.35 59.6 63.01 66.6 70.41 74.43 78.6 82.93
2228.391 87.47 92.12 96.84 101.66 106.56 111.63 116.99 122.77 129.24 136.58
2247.685 145.09 155.15 166.99 181.03 197.48 216.6 238.75 264.07 292.74 324.86
2266.978 360.29 398.16 436.46 471.63 498.62 512.77 511.79 496.79 470.12 433.35
2286.272 388.31 338.68 289.38 244.51 206.41 175.62 151.47 132.74 118.24 106.9
2305.565 97.74 90.16 83.73 78.04 72.85 68.1 63.76 59.76 56.13 52.87
2324.858 49.98 47.51 45.41 43.68 42.37 41.45 40.84 40.55 40.56 40.88
2344.152 41.44 42.22 43.14 44.14 45.18 46.1 46.73 46.92 46.46 45.28
2363.445 43.46 41.07 38.2 35.04 31.72 28.41 25.31 22.44 19.89 17.7
2382.739 15.84 14.24 12.92 11.85 10.9 10.12 9.45 8.87 8.38 7.95
2402.032 7.58 7.25 6.95 6.69 6.5 6.32 6.11 5.92 5.82 5.73
2421.326 5.64 5.58 5.54 5.49 5.37 5.22 5.15 5.06 4.93 4.8
2440.619 4.66 4.5 4.3 4.11 3.91 3.73 3.57 3.44 3.28 3.1362
2459.912 3.0028 2.8692 2.7707 2.6754 2.5961 2.494 2.3656 2.2535 2.19745 2.1754
2479.206 2.1308 2.091 2.073 2.042 1.991 1.915 1.883 1.866 1.852 1.852
2498.499 1.832 1.817 1.781 1.801 1.806 1.754 1.717 1.716 1.715 1.706
2517.793 1.671 1.628 1.634 1.682 1.699 1.671 1.662 1.647 1.652 1.648
2537.086 1.635 1.642 1.637 1.671 1.701 1.697 1.709 1.743 1.762 1.729
2556.380 1.716 1.729 1.697 1.642 1.63 1.657 1.68 1.636 1.619 1.659
2575.673 1.657 1.65 1.61 1.598 1.651 1.668 1.653 1.633 1.632 1.678
2594.966 1.732 1.741 1.75 1.771 1.725 1.738 1.771 1.742 1.758 1.772
2614.260 1.814 1.85 1.819 1.813 1.831 1.854 1.858 1.89 1.945 1.957
2633.553 1.99 2.013 2.021 2.07 2.1021 2.062 2.038 2.056 2.028 1.971
2652.847 1.94 1.901 1.844 1.823 1.831 1.816 1.775 1.681 1.628 1.642
2672.140 1.687 1.687 1.636 1.643 1.628 1.649 1.685 1.722 1.708 1.687
2691.434 1.722 1.707 1.658 1.62 1.666 1.695 1.637 1.689 1.745 1.764
2710.727 1.836 1.848 1.821 1.808 1.823 1.813 1.835 1.821 1.809 1.869
2730.020 1.902 1.864 1.86 1.897 1.87 1.831 1.858 1.828 1.788 1.853
2749.314 1.877 1.857 1.85 1.852 1.838 1.864 1.86 1.82 1.793 1.789
2768.607 1.804 1.81 1.859 1.889 1.836 1.829 1.887 1.847 1.832 1.833
2787.901 1.838 1.87 1.815 1.81 1.863 1.849 1.85 1.857 1.845 1.944
2807.194 1.984 2.007 2.035 2.008 2.033 2.1039 2.19137 2.23488 2.24249 2.3087
2826.488 2.4004 2.4213 2.4111 2.4883 2.5924 2.6784 2.8352 3.0285 3.1933 3.35
2845.781 3.49 3.74 4.02 4.25 4.56 4.86 5.23 5.64 6.09 6.74
2865.074 7.35 7.83 8.27 8.67 9.05 9.48 9.8 10.07 10.5 10.78
2884.368 11.02 11.14 11.08 11.06 10.99 10.8 10.63 10.46 10.25 10.23
2903.661 10.27 10.28 10.29 10.3 10.41 10.51 10.6 10.7 10.74 11.08
2922.955 11.54 12.03 12.71 13.39 14.04 14.87 15.94 16.97 17.88 18.67
2942.248 19.27 19.6 19.63 19.41 18.99 18.53 17.95 17.57 17.6 17.93
2961.542 18.83 20.45 22.87 26.15 29.88 33.19 34.93 35.05 34.5 33.64
2980.835 31.66 27.95 23.38 19.27 16.3 14.31 12.95 11.82 10.9 10.19
3000.128 9.66 9.13 8.57 8.23 7.96 7.64 7.53 7.55 7.53 7.68
3019.422 7.81 7.98 8.3 8.52 8.72 8.96 9.1 9.14 9.07 8.82
3038.715 8.63 8.39 8.07 7.83 7.66 7.56 7.55 7.59 7.66 7.7
3058.009 7.57 7.46 7.43 7.51 7.52 7.38 7.41 7.33 7.13 6.82
3077.302 6.47 6.29 6.05 5.68 5.29 4.97 4.66 4.37 4.09 3.86
3096.596 3.67 3.48 3.27 3.0863 2.906 2.7277 2.5343 2.3505 2.1471 2.078
3115.889 1.974 1.807 1.831 1.72 1.611 1.528 1.456 1.356 1.286 1.263
3135.182 1.18 1.09 1 0.92 0.87 0.87 0.9 0.91 0.92 0.87
3154.476 0.74 0.72 0.68 0.73 0.71 0.63 0.68 0.67 0.64 0.63
3173.769 0.66 0.71 0.59 0.56 0.62 0.59 0.6 0.59 0.52 0.49
3193.063 0.5 0.47 0.43 0.37 0.34 0.36 0.41 0.45 0.42 0.34
3212.356 0.22 0.08 0.08 0.21 0.2 0.14 0.05 0.08 0.15 0.18
3231.650 0.26 0.28 0.15 0 0.02 0.22 0.33 0.27 0.31 0.33
3250.943 0.33 0.29 0.3 0.35 0.26 0.25 0.33 0.37 0.36 0.23
3270.236 0.2 0.27 0.28 0.29 0.33 0.4 0.28 0.2 0.36 0.38
3289.530 0.22 0.27 0.51 0.57 0.46 0.46 0.56 0.6 0.62 0.57
3308.823 0.57 0.69 0.65 0.69 0.8 0.67 0.71 0.74 0.68 0.81
3328.117 0.91 0.98 1.01 0.99 0.97 1.08 1.201 1.234 1.18 1.254
3347.410 1.469 1.488 1.495 1.664 1.715 1.732 1.809 1.838 1.901 2.048
3366.704 2.1117 2.27544 2.4661 2.5665 2.7205 2.9063 2.9717 3.1074 3.4 3.54
3385.997 3.54 3.49 3.54 3.54 3.52 3.62 3.68 3.54 3.52 3.52
3405.290 3.37 3.27 3.28 3.33 3.29 3.21 3.21 3.25 3.1202 2.899
3424.584 2.8059 2.7099 2.621 2.5874 2.4739 2.3279 2.1752 2.161 2.1651 2.055
3443.877 1.93 1.864 1.841 1.755 1.647 1.645 1.657 1.648 1.671 1.649
3463.171 1.568 1.603 1.614 1.558 1.62 1.605 1.597 1.547 1.34 1.321
3482.464 1.45 1.346 1.324 1.337 1.296 1.363 1.356 1.426 1.419 1.365
3501.758 1.385 1.437 1.47 1.405 1.346 1.344 1.319 1.263 1.281 1.304
3521.051 1.18 1.13 1.228 1.223 1.228 1.231 1.18 1.2 1.264 1.244
3540.344 1.241 1.376 1.386 1.322 1.293 1.319 1.349 1.296 1.24 1.333
3559.638 1.398 1.365 1.381 1.428 1.408 1.48 1.657 1.574 1.389 1.411
3578.931 1.463 1.541 1.554 1.517 1.516 1.523 1.589 1.666 1.647 1.557
3598.225 1.646 1.739 1.652 1.707 1.805 1.802 1.773 1.772 1.843 1.81
3617.518 1.787 1.786 1.831 1.985 1.998 1.989 2.081 2.049 1.97 2.039
3636.812 2.1616 2.1536 2.1536 2.24739 2.3455 2.3973 2.4146 2.4459 2.4865 2.5385
3656.105 2.623 2.7386 2.7409 2.7061 2.7414 2.8085 2.9306 2.9804 3.0197 3.0838
3675.398 2.9788 2.9863 3.1092 3.1157 3.0997 3.1791 3.185 3.1649 3.36 3.38
3694.692 3.37 3.49 3.51 3.49 3.47 3.46 3.5 3.46 3.46 3.54
3713.985 3.47 3.37 3.33 3.31 3.26 3.24 3.1023 2.9973 3.004 2.8481
3733.279 2.7498 2.7812 2.6967 2.5877 2.4953 2.3844 2.26533 2.25116 2.25419 2.22735
3752.572 2.19941 2.1214 2.1233 2.1622 2.083 2.07 2.1579 2.21807 2.21661 2.1438
3771.866 2.055 2.058 2.047 1.97 2.043 2.1013 2.072 2.055 2.095 2.09
3791.159 2.1168 2.172 2.19636 2.24452 2.20637 2.1782 2.1866 2.21613 2.21878 2.2264
3810.452 2.3125 2.27845 2.20359 2.22557 2.22605 2.1197 2.026 1.998 2.026 2.023
3829.746 1.888 1.839 1.874 1.792 1.717 1.729 1.657 1.656 1.659 1.67
3849.039 1.667 1.556 1.563 1.567 1.625 1.684 1.662 1.635 1.595 1.591
3868.333 1.63 1.661 1.621 1.663 1.709 1.642 1.599 1.558 1.496 1.508
3887.626 1.606 1.606 1.506 1.522 1.59 1.57 1.47 1.385 1.412 1.475
3906.920 1.587 1.64 1.598 1.557 1.51 1.496 1.453 1.453 1.52 1.554
3926.213 1.549 1.508 1.504 1.518 1.446 1.5 1.557 1.46 1.484 1.516
3945.506 1.511 1.519 1.52 1.482 1.468 1.551 1.59 1.537 1.454 1.519
3964.800 1.519 1.47 1.497 1.574 1.631 1.483 1.458 1.532 1.512 1.537
3984.093 1.562 1.509 1.449 1.44 1.513 1.51 1.467 1.48 1.503
##END=
