##TITLE=3-Acetylphenylisocyanate
##JCAMP-DX=4.24
##DATA TYPE=INFRARED SPECTRUM
##ORIGIN=EPA-IR VAPOR PHASE LIBRARY
##OWNER=SRD/NIST
Collection (C) 2018 copyright by the U.S. Secretary of Commerce
on behalf of the United States of America. All rights reserved.
##CAS REGISTRY NO=23138-64-9
##MOLFORM=C 9 H 7 N O 2
##$NIST SOURCE=MSDC-IR
##STATE=gas
##XUNITS=1/CM
##YUNITS=ABSORBANCE
##XFACTOR=1.
##YFACTOR=0.001
##DELTAX=3.85796
##FIRSTX=551.7
##LASTX=4000.7
##FIRSTY=4.21
##MAXX=4000.7
##MINX=551.688
##MAXY=0.64721
##MINY=0.0005759
##NPOINTS=895
##XYDATA=(X++(Y..Y))
551.688 4.21 4.94 5.79 6.98 8.53 10.69 13.6 16.7 19.48 21.49
590.268 22.9 23.29 22.06 20.6 18.69 15.98 13.72 12.14 10.95 9.82
628.847 8.77 8.19 8.1 8.36 9.45 10.85 11.61 11.83 11.45 11.19
667.427 11.85 13.46 16.19 19.62 23.6 25.05 21.99 17.56 13.07 8.95
706.006 6.09 4.33 3.48 3.03 2.68 2.53 2.42 2.27 2.16 2.09
744.586 2.12 2.17 2.21 2.46 2.9 3.79 5.53 8.26 12.08 16.74
783.165 21.96 24.83 24.74 23.15 18.74 13.74 10.08 7.51 6.28 6.45
821.745 7.83 9.95 12.33 14.12 14.61 13.91 12.46 10.68 9.01 7.57
860.324 6.55 6.12 6.38 7.04 7.53 7.68 7.49 7.2 7.02 7.15
898.904 7.39 7.36 6.85 5.97 5.21 4.46 3.83 3.53 3.4 3.47
937.484 3.85 4.75 5.89 6.92 7.51 7.54 7.1 6.12 5.06 4.17
976.063 3.41 2.88 2.44 2.08 2.13 2.28 2.39 2.45 2.38 2.4
1014.643 2.52 2.56 2.52 2.58 2.51 2.27 2.21 2.17 2.24 2.53
1053.222 2.91 3.4 4.22 5.33 6.7 8.01 8.56 8.65 8.11 7.35
1091.802 7.04 7.18 7.83 8.46 9.38 10.41 10.97 10.79 9.93 8.8
1130.381 7.57 6.42 5.73 5.59 5.66 5.99 6.51 7.06 7.65 7.98
1168.961 7.84 7.33 6.72 6.39 6.36 6.61 7.04 7.48 8.26 9.2
1207.540 10.05 11.01 12.56 15.04 18.92 24.73 33.5 46.18 63.42 84.15
1246.120 103.4 114.23 111.37 94.29 69.96 50.04 39.61 35.07 32.23 28.84
1284.699 24.43 19.86 15.96 13.01 10.83 9.19 8.01 7.14 6.49 6.03
1323.279 5.82 5.85 6.1 6.69 7.83 9.84 13.3 19.03 26.22 31.5
1361.859 32.86 30.01 23.42 16.58 12.1 9.66 8.53 8.23 8.42 8.98
1400.438 9.93 11.21 12.91 14.86 16.47 17.39 17.47 16.82 16.08 15.64
1439.018 15.45 15.51 15.89 16.35 16.39 15.68 14.3 12.62 11.31 11.01
1477.597 12.09 14.52 18.07 22.69 27.66 31.77 33.62 32.18 27.84 22.29
1516.177 16.89 12.83 10.14 8.45 7.43 6.9 6.63 6.63 6.91 7.47
1554.756 8.55 10.42 13.47 18.1 24.96 33.06 40.85 45.86 47.22 45.57
1593.336 42.84 41.08 39.8 37.04 32.14 25.8 19.26 14.1 10.88 8.88
1631.915 7.64 6.81 6.27 6.05 6.05 6.25 6.73 7.54 8.82 10.29
1670.495 11.89 13.28 14.25 15.48 18.21 23.33 33.11 50.72 75.63 96.29
1709.075 102.92 95.9 72.72 44.04 25.69 16.67 12.78 11.33 11.11 11.1
1747.654 10.51 9.14 7.63 6.32 5.28 4.5 3.95 3.57 3.29 3.15
1786.234 3.1 3.04 3.04 3.1 3.07 3.01 2.95 2.78 2.66 2.59
1824.813 2.52 2.4 2.33 2.32 2.24 2.18 2.21 2.26 2.31 2.4
1863.393 2.49 2.44 2.41 2.38 2.34 2.33 2.29 2.23 2.1 1.94
1901.972 1.76 1.65 1.63 1.65 1.72 1.81 1.97 2.14 2.3 2.51
1940.552 2.64 2.63 2.57 2.51 2.43 2.3 2.1 1.92 1.82 1.75
1979.131 1.7 1.62 1.57 1.53 1.46 1.46 1.46 1.46 1.46 1.48
2017.711 1.53 1.57 1.61 1.67 1.74 1.85 1.98 2.06 2.19 2.32
2056.291 2.39 2.5 2.71 2.85 2.92 3.05 3.13 3.22 3.42 3.66
2094.870 3.98 4.39 4.94 5.6 6.19 6.63 6.99 7.29 7.55 7.9
2133.450 8.51 9.49 10.81 12.44 14.14 15.65 16.84 17.62 18.09 18.58
2172.029 19.39 20.87 23.29 26.83 31.46 36.95 43.1 49.54 55.82 61.55
2210.609 66.55 70.94 75.07 79.52 85.13 93.1 104.63 121.1 144.28 176.49
2249.188 220.79 279.88 355.41 446.86 544.77 622.78 647.21 606.34 511.03 392.88
2287.768 293.02 226.39 184.8 156.93 136.03 119.21 105.64 95.35 88.28 84.06
2326.347 81.7 79.98 77.66 74.08 69.21 63.48 57.69 52.46 47.91 43.84
2364.927 39.9 35.89 31.74 27.63 23.77 20.25 17.22 14.77 12.82 11.38
2403.507 10.31 9.35 8.61 8.04 7.55 7.24 6.97 6.63 6.31 5.97
2442.086 5.64 5.29 4.88 4.49 4.13 3.81 3.43 3.08 2.87 2.69
2480.666 2.53 2.36 2.25 2.12 2.01 1.95 1.87 1.85 1.79 1.77
2519.245 1.78 1.71 1.69 1.68 1.64 1.69 1.68 1.57 1.49 1.43
2557.825 1.42 1.41 1.4 1.42 1.41 1.44 1.51 1.52 1.51 1.44
2596.404 1.43 1.51 1.49 1.44 1.46 1.44 1.4 1.39 1.34 1.3
2634.984 1.24 1.21 1.21 1.23 1.35 1.37 1.35 1.38 1.41 1.46
2673.563 1.51 1.59 1.59 1.59 1.61 1.64 1.72 1.75 1.72 1.7
2712.143 1.68 1.75 1.82 1.75 1.71 1.73 1.73 1.61 1.55 1.56
2750.722 1.51 1.49 1.41 1.37 1.38 1.34 1.32 1.3 1.24 1.22
2789.302 1.25 1.17 1.15 1.23 1.19 1.14 1.14 1.21 1.26 1.26
2827.882 1.33 1.43 1.45 1.43 1.48 1.5 1.52 1.59 1.64 1.66
2866.461 1.75 1.77 1.69 1.71 1.77 1.79 1.88 2.01 2.08 2.22
2905.041 2.39 2.6 2.75 2.8 3.03 3.3 3.49 3.54 3.44 3.38
2943.620 3.32 3.36 3.42 3.49 3.83 4.23 4.61 4.87 4.9 4.74
2982.200 4.44 4.12 3.88 3.7 3.68 4.01 4.51 5.11 5.69 5.91
3020.779 5.79 5.36 4.76 4.31 4.16 4.24 4.43 4.67 5.18 5.89
3059.359 6.92 8.25 9.51 10.68 11.33 11.18 10.55 9.56 8.25 7.08
3097.938 6.22 5.7 5.37 5.07 4.77 4.41 3.91 3.34 2.94 2.62
3136.518 2.37 2.08 1.78 1.66 1.61 1.54 1.52 1.44 1.26 1.26
3175.098 1.36 1.21 1.06 1.08 1.03 1.12 1.13 0.9818 0.9254 0.8973
3213.677 0.8427 0.8084 0.8465 0.8713 0.8906 0.9041 0.9204 0.7298 0.5759 0.752
3252.257 0.9222 0.9934 0.9313 0.9223 1.05 0.9274 0.7862 0.7818 0.8089 0.8573
3290.836 0.7951 0.8148 0.822 0.8257 0.9377 0.9793 1.05 1.11 1.21 1.33
3329.416 1.35 1.41 1.47 1.6 1.69 1.71 1.89 2.05 2.18 2.43
3367.995 2.79 3.1 3.35 3.58 3.91 4.31 4.62 4.89 5.05 5.16
3406.575 5.09 4.66 4.2 3.78 3.41 3.06 2.68 2.46 2.34 2.19
3445.154 2 1.83 1.68 1.57 1.45 1.39 1.42 1.36 1.42 1.46
3483.734 1.37 1.4 1.46 1.42 1.33 1.47 1.61 1.58 1.63 1.59
3522.314 1.53 1.61 1.53 1.5 1.45 1.38 1.4 1.3 1.18 1.05
3560.893 1.14 1.25 1.3 1.4 1.42 1.39 1.29 1.31 1.47 1.57
3599.473 1.75 1.77 1.66 1.66 1.66 1.73 1.83 1.92 2.02 2.07
3638.052 2.05 2.16 2.35 2.51 2.62 2.67 2.71 2.89 3.01 3.16
3676.632 3.34 3.29 3.23 3.07 2.74 2.56 2.52 2.53 2.7 2.68
3715.211 2.49 2.57 2.71 2.73 2.65 2.59 2.6 2.46 2.28 2.24
3753.791 2.29 2.46 2.5 2.42 2.5 2.52 2.58 2.52 2.32 2.3
3792.370 2.22 1.99 1.84 1.9 1.82 1.53 1.39 1.53 1.56 1.47
3830.950 1.36 1.13 1.04 1.1 1.17 1.25 1.27 1.22 1.18 1.19
3869.530 1.16 1.03 0.9417 0.9517 1 1.03 1.03 1.12 1.11 1.02
3908.109 1.02 0.9351 0.9227 0.9678 0.9125 0.8375 0.8889 0.9792 0.9506 0.981
3946.689 0.909 0.8894 0.9751 0.9754 1.06 0.9229 0.8164 0.9718 1.05 1.02
3985.268 0.9986 0.992 0.9292 1.04 1.13
##END=
