##TITLE=6-Methyl-5-nitroquinoline
##JCAMP-DX=4.24
##DATA TYPE=INFRARED SPECTRUM
##ORIGIN=EPA-IR VAPOR PHASE LIBRARY
##OWNER=SRD/NIST
Collection (C) 2018 copyright by the U.S. Secretary of Commerce
on behalf of the United States of America. All rights reserved.
##CAS REGISTRY NO=23141-61-9
##MOLFORM=C 10 H 8 N 2 O 2
##$NIST SOURCE=MSDC-IR
##STATE=gas
##XUNITS=1/CM
##YUNITS=ABSORBANCE
##XFACTOR=1.
##YFACTOR=0.001
##DELTAX=1.929
##FIRSTX=549.8
##LASTX=4000.8
##FIRSTY=3.535
##MAXX=4000.75
##MINX=549.766
##MAXY=0.204665
##MINY=0
##NPOINTS=1790
##XYDATA=(X++(Y..Y))
549.766 3.535 2.935 2.375 1.797 1.5781 1.6731 1.986 1.8627 1.8149 1.8982
569.056 1.9873 2.095 2.285 2.585 2.935 3.275 3.315 3.155 2.745 2.445
588.346 2.235 1.8817 1.5181 1.3256 1.1181 0.888 0.9637 1.05577 1.2348 1.282
607.636 1.1456 1.19 1.3592 1.5508 1.6085 1.5295 1.5479 1.5789 1.7116 1.8607
626.926 2.125 2.515 2.945 3.435 3.975 4.415 4.575 4.675 4.625 4.425
646.216 4.085 3.555 2.825 2.005 1.6488 1.5679 1.3439 1.2885 1.4164 1.4413
665.506 1.3875 1.3536 1.2597 1.409 1.7099 1.6771 1.5609 1.4849 1.4956 1.65
684.796 1.7761 1.8083 1.7335 1.6755 1.683 1.6789 1.5556 1.4004 1.4247 1.5235
704.086 1.4393 1.3827 1.4673 1.4867 1.5629 1.7327 1.9157 2.135 2.335 2.495
723.376 2.855 3.365 3.945 4.965 6.215 7.485 8.845 9.935 10.855 11.425
742.666 11.585 11.635 11.285 10.405 9.525 9.245 9.445 8.905 7.405 6.335
761.956 5.745 5.275 5.015 4.325 3.785 3.665 3.525 3.485 3.695 4.365
781.246 5.435 7.295 10.625 16.015 24.185 34.545 44.405 51.185 56.145 61.025
800.536 67.015 74.745 83.375 77.705 56.165 41.715 35.635 30.425 24.995 19.835
819.826 16.555 15.365 15.845 17.535 19.685 21.985 25.515 31.445 36.435 32.785
839.116 24.745 20.575 18.295 15.635 12.645 9.765 7.315 5.635 4.845 4.655
858.406 4.945 5.725 7.095 9.075 11.825 15.215 18.585 21.135 22.175 22.265
877.696 22.305 21.975 20.235 16.735 12.515 8.915 6.355 4.475 3.265 2.715
896.986 2.265 1.8726 1.6638 1.5911 1.6004 1.6343 1.6626 1.7319 1.8167 1.9339
916.276 2.105 2.245 2.355 2.525 2.615 2.555 2.505 2.475 2.515 2.465
935.566 2.265 2.265 2.405 2.485 2.615 2.635 2.495 2.505 2.445 2.395
954.856 2.395 2.335 2.255 2.215 2.315 2.355 2.385 2.305 2.235 2.195
974.146 2.275 2.465 2.515 2.425 2.405 2.475 2.475 2.425 2.425 2.375
993.436 2.375 2.295 2.135 2.105 2.085 2.095 2.025 2.075 2.185 2.235
1012.726 2.345 2.355 2.425 2.615 2.855 3.245 3.695 4.285 5.215 6.525
1032.016 7.945 9.155 10.155 10.875 11.165 11.005 10.395 9.405 8.305 6.925
1051.306 5.715 5.235 4.695 4.255 4.085 3.865 3.685 3.575 3.385 3.245
1070.596 3.145 3.025 2.975 2.875 2.705 2.555 2.435 2.405 2.185 1.886
1089.886 1.7676 1.6847 1.7402 1.6888 1.494 1.4491 1.532 1.5903 1.678 1.7452
1109.176 1.6292 1.6069 1.7802 1.9309 2.035 2.095 2.205 2.495 2.825 3.245
1128.467 3.795 4.535 5.635 6.825 8.025 8.875 9.385 9.735 9.655 9.215
1147.757 8.305 6.965 5.435 4.085 3.145 2.585 2.105 1.6584 1.4004 1.3894
1167.047 1.5334 1.3171 1.0982 1.1194 1.3985 1.5303 1.3382 1.4686 1.2391 1.06171
1186.337 1.2601 1.5398 2.115 2.265 2.035 2.615 3.955 4.295 4.075 4.935
1205.627 6.135 5.935 5.165 5.095 5.385 5.275 5.275 4.725 4.295 4.115
1224.917 3.465 2.935 2.625 2.655 2.365 2.155 2.505 2.695 2.855 3.245
1244.207 3.775 3.935 3.905 3.925 3.925 3.975 3.825 3.445 3.045 2.845
1263.497 2.715 2.565 2.465 2.395 2.465 2.585 2.555 2.595 2.695 2.755
1282.787 2.785 2.875 2.935 3.075 3.265 3.425 3.695 3.915 4.025 4.265
1302.077 4.605 4.935 5.375 5.895 6.575 7.545 8.775 10.255 11.985 13.915
1321.367 15.845 17.505 18.955 20.535 22.425 24.665 27.115 29.925 33.475 37.815
1340.657 42.625 47.225 51.055 53.815 55.365 55.795 55.055 53.055 50.035 46.685
1359.947 43.795 41.735 40.395 39.605 39.035 38.365 37.545 36.455 35.055 33.525
1379.237 31.855 30.025 28.045 26.125 24.315 22.555 20.865 19.185 17.445 15.995
1398.527 15.005 14.345 14.065 14.145 14.535 14.975 15.395 15.705 15.775 15.675
1417.817 15.345 14.805 14.075 13.155 12.265 11.595 11.125 10.855 10.765 10.825
1437.107 10.965 11.305 11.805 12.335 12.975 13.745 14.565 15.335 16.155 16.985
1456.397 17.665 18.155 18.425 18.435 18.215 17.735 17.085 16.425 15.865 15.435
1475.687 15.375 15.855 17.105 19.315 22.575 27.075 32.655 38.795 44.695 49.485
1494.977 53.005 55.155 55.645 54.675 52.355 48.945 44.995 41.875 40.495 40.775
1514.267 42.585 46.065 51.305 58.415 68.235 79.945 94.175 110.585 128.065 145.515
1533.557 162.355 177.995 191.075 201.365 204.665 196.575 178.325 157.365 138.425 120.785
1552.847 104.495 88.795 75.865 65.195 56.765 51.095 46.885 43.685 41.095 38.525
1572.137 35.875 33.475 31.405 29.815 28.855 28.425 28.435 28.885 29.655 30.395
1591.427 30.805 30.715 29.965 28.555 26.515 23.935 20.925 17.665 14.585 12.035
1610.717 10.205 8.915 8.095 7.525 7.105 6.875 6.675 6.495 6.315 6.115
1630.007 5.935 5.765 5.585 5.305 4.955 4.605 4.285 3.995 3.685 3.375
1649.297 3.095 2.865 2.695 2.565 2.475 2.415 2.445 2.475 2.435 2.415
1668.587 2.375 2.305 2.245 2.205 2.145 2.005 1.8854 1.8376 1.7656 1.7082
1687.877 1.7238 1.7398 1.7636 1.8045 1.8334 1.8314 1.8532 1.834 1.8017 1.8155
1707.167 1.7876 1.7706 1.812 1.8406 1.9357 2.085 2.265 2.415 2.495 2.605
1726.457 2.635 2.565 2.525 2.525 2.485 2.355 2.275 2.205 2.115 2.105
1745.747 2.125 2.065 1.9827 1.9454 1.931 1.8806 1.8158 1.8067 1.8448 1.8757
1765.037 1.9333 1.9541 1.9757 2.035 2.045 1.995 1.9124 1.8379 1.7989 1.7803
1784.327 1.8444 1.9763 2.125 2.285 2.415 2.515 2.535 2.475 2.355 2.205
1803.617 1.9906 1.6974 1.4897 1.2968 1.1195 1.00088 0.9386 0.9144 0.848 0.83
1822.907 0.827 0.793 0.771 0.753 0.763 0.755 0.754 0.768 0.813 0.863
1842.197 0.843 0.804 0.816 0.821 0.795 0.801 0.872 0.9415 0.9416 0.9294
1861.487 0.9621 1.00476 1.02513 1.1074 1.1886 1.3009 1.4599 1.5954 1.8142 1.995
1880.777 2.105 2.205 2.255 2.265 2.245 2.185 2.065 1.917 1.791 1.6951
1900.067 1.6766 1.6885 1.7859 1.995 2.245 2.555 2.905 3.235 3.525 3.725
1919.357 3.875 3.975 3.925 3.805 3.635 3.435 3.285 3.155 3.035 2.925
1938.647 2.835 2.795 2.835 2.935 2.965 2.945 2.845 2.695 2.505 2.295
1957.937 2.075 1.8665 1.5958 1.3304 1.1221 0.9561 0.9003 0.841 0.774 0.745
1977.227 0.714 0.664 0.655 0.689 0.701 0.688 0.71 0.709 0.678 0.678
1996.517 0.678 0.678 0.7 0.703 0.693 0.693 0.668 0.667 0.706 0.74
2015.807 0.682 0.648 0.655 0.597 0.603 0.629 0.668 0.713 0.692 0.688
2035.097 0.709 0.675 0.653 0.725 0.746 0.715 0.727 0.752 0.771 0.822
2054.387 0.867 0.844 0.837 0.867 0.9355 0.9212 0.856 0.9155 0.954 0.9397
2073.677 0.937 0.9196 0.9167 0.9044 0.893 0.888 0.887 0.84 0.786 0.802
2092.967 0.748 0.699 0.76 0.786 0.747 0.704 0.665 0.704 0.74 0.686
2112.257 0.668 0.721 0.708 0.651 0.734 0.792 0.777 0.818 0.832 0.81
2131.547 0.783 0.764 0.761 0.793 0.794 0.765 0.759 0.735 0.726 0.718
2150.837 0.652 0.641 0.707 0.69 0.637 0.611 0.59 0.624 0.68 0.672
2170.127 0.63 0.625 0.631 0.636 0.64 0.625 0.633 0.643 0.658 0.658
2189.417 0.631 0.605 0.634 0.637 0.627 0.651 0.647 0.638 0.622 0.618
2208.707 0.63 0.579 0.501 0.535 0.574 0.571 0.541 0.536 0.555 0.575
2227.997 0.598 0.583 0.509 0.463 0.491 0.492 0.48 0.52 0.577 0.631
2247.287 0.613 0.59 0.601 0.573 0.617 0.687 0.682 0.668 0.662 0.673
2266.577 0.656 0.688 0.73 0.701 0.744 0.791 0.817 0.855 0.889 0.9415
2285.868 1.00786 1.02915 1.03764 1.01501 1.02563 1.05522 1.03252 1.0052 0.9839 0.9462
2305.158 0.842 0.796 0.801 0.744 0.753 0.769 0.74 0.771 0.823 0.859
2324.448 0.884 0.9271 0.9427 0.9499 0.9717 0.999314 0.99212 0.973 0.9856 0.9491
2343.738 0.883 0.863 0.853 0.832 0.862 0.894 0.894 0.9331 0.9092 0.859
2363.028 0.885 0.892 0.8975 0.9127 0.9149 0.875 0.833 0.859 0.857 0.835
2382.318 0.831 0.821 0.869 0.9088 0.9045 0.92 0.9562 0.98534 0.9813 0.998444
2401.608 1.07026 1.05609 1.01082 1.02632 1.01331 1.02067 1.06203 1.07525 1.07217 1.07213
2420.898 1.03304 0.9653 0.892 0.825 0.829 0.846 0.797 0.742 0.772 0.789
2440.188 0.77 0.751 0.701 0.679 0.716 0.728 0.75 0.763 0.756 0.795
2459.478 0.843 0.821 0.805 0.935 0.9542 0.9284 0.9794 0.994134 0.998367 1.00196
2478.768 0.9716 0.9308 0.938 0.9722 0.9037 0.869 0.879 0.855 0.8965 0.9168
2498.058 0.9353 0.9612 1.00327 1.00575 0.952 0.9234 0.858 0.884 0.9322 0.866
2517.348 0.812 0.793 0.806 0.767 0.752 0.868 0.882 0.807 0.805 0.862
2536.638 0.9373 0.9355 0.881 0.9134 0.9267 0.9116 0.9301 0.872 0.823 0.858
2555.928 0.869 0.875 0.9435 0.98981 1.00073 0.98528 0.9577 0.99344 0.9587 0.9533
2575.218 0.9827 0.9047 0.9405 1.02207 1.0083 0.9454 0.857 0.877 0.882 0.848
2594.508 0.866 0.86 0.847 0.799 0.806 0.813 0.758 0.762 0.787 0.707
2613.798 0.627 0.667 0.711 0.623 0.608 0.666 0.632 0.661 0.708 0.687
2633.088 0.676 0.666 0.662 0.669 0.642 0.602 0.578 0.571 0.55 0.582
2652.378 0.576 0.521 0.574 0.623 0.577 0.602 0.606 0.604 0.72 0.776
2671.668 0.758 0.771 0.818 0.865 0.9181 0.9598 0.9835 0.9764 0.98879 1.02088
2690.958 1.00078 0.99007 1.01066 1.05392 1.1199 1.08794 1.08817 1.1116 1.04798 1.03523
2710.248 1.1168 1.1538 1.06348 1.03632 1.03982 1.01242 0.9597 0.9591 1.0444 1.0968
2729.538 1.06586 1.05 1.01048 0.9634 0.99397 1.01878 1.05907 1.09276 1.1083 1.0719
2748.828 1.1099 1.1695 1.2062 1.2462 1.2534 1.2948 1.3057 1.2523 1.1957 1.1556
2768.118 1.1153 1.05051 1.02239 1.04825 1.0034 0.9805 1.03827 1.01896 0.9175 0.872
2787.408 0.9288 0.876 0.803 0.879 0.9078 0.9327 0.9152 0.9765 1.05423 1.03627
2806.698 1.01819 1.00802 1.0396 1.1289 1.2356 1.2915 1.2955 1.3183 1.4208 1.4875
2825.988 1.5003 1.5142 1.5445 1.6313 1.6908 1.7538 1.8462 1.9588 2.055 2.205
2845.278 2.385 2.505 2.685 2.905 3.075 3.265 3.445 3.685 4.035 4.345
2864.568 4.635 4.905 5.255 5.625 5.805 5.985 6.255 6.335 6.345 6.305
2883.858 6.285 6.285 6.145 5.985 5.865 5.735 5.615 5.555 5.545 5.555
2903.148 5.565 5.515 5.535 5.525 5.505 5.565 5.595 5.635 5.755 5.925
2922.438 6.145 6.435 6.825 7.295 7.805 8.515 9.405 10.035 10.585 10.955
2941.728 11.035 11.115 10.875 10.395 9.875 9.205 8.495 7.945 7.505 7.135
2961.018 6.875 6.705 6.705 6.725 6.645 6.625 6.635 6.645 6.595 6.635
2980.308 6.685 6.545 6.465 6.525 6.555 6.465 6.485 6.615 6.735 6.915
2999.598 7.075 7.265 7.425 7.605 7.925 8.195 8.455 8.755 9.175 9.725
3018.888 10.315 10.885 11.545 12.235 12.925 13.535 14.165 14.945 15.595 16.285
3038.178 16.775 16.905 16.655 16.075 15.335 14.345 13.305 12.125 11.025 10.245
3057.468 9.635 9.505 9.925 10.745 11.925 13.415 15.065 16.975 18.925 20.495
3076.758 21.595 21.995 21.795 21.135 19.935 17.935 15.275 12.345 9.715 7.645
3096.048 5.955 4.575 3.595 2.965 2.485 2.135 1.9223 1.726 1.6089 1.4601
3115.338 1.2783 1.2368 1.2062 1.0966 1.06198 1.1106 0.9543 0.852 0.9466 0.9643
3134.628 0.805 0.663 0.714 0.604 0.512 0.552 0.526 0.67 0.692 0.573
3153.918 0.611 0.621 0.607 0.697 0.613 0.582 0.593 0.585 0.607 0.545
3173.208 0.571 0.583 0.6 0.583 0.506 0.509 0.494 0.538 0.579 0.604
3192.498 0.6 0.499 0.457 0.368 0.328 0.405 0.465 0.481 0.375 0.291
3211.788 0.334 0.335 0.319 0.334 0.218 0.224 0.34 0.329 0.25 0.157
3231.078 0.184 0.152 0.18 0.219 0.246 0.285 0.322 0.334 0.247 0.206
3250.368 0.19 0.217 0.239 0.291 0.259 0.189 0.273 0.287 0.207 0.253
3269.658 0.258 0.189 0.135 0.156 0.18 0.255 0.286 0.176 0.112 0.142
3288.948 0.112 0.105 0.133 0.156 0.22 0.186 0.181 0.081 0.033 0.023
3308.238 0.071 0.178 0.136 0.104 0.107 0.116 0.1 0.119 0.178 0.225
3327.528 0.238 0.239 0.066 0 0.217 0.257 0.114 0.148 0.217 0.139
3346.818 0.179 0.203 0.097 0.11 0.144 0.186 0.172 0.139 0.088 0.071
3366.108 0.177 0.192 0.237 0.349 0.359 0.263 0.222 0.228 0.262 0.259
3385.398 0.193 0.228 0.254 0.202 0.188 0.229 0.232 0.222 0.264 0.254
3404.688 0.217 0.158 0.25 0.355 0.278 0.16 0.171 0.186 0.175 0.233
3423.978 0.208 0.114 0.07 0.108 0.162 0.197 0.275 0.286 0.232 0.181
3443.269 0.146 0.292 0.396 0.338 0.321 0.344 0.283 0.215 0.237 0.273
3462.559 0.28 0.269 0.261 0.259 0.309 0.28 0.226 0.277 0.208 0.18
3481.849 0.372 0.321 0.209 0.292 0.288 0.231 0.183 0.224 0.239 0.135
3501.139 0.204 0.387 0.413 0.296 0.237 0.258 0.271 0.356 0.252 0.191
3520.429 0.175 0.107 0.134 0.158 0.313 0.402 0.39 0.349 0.239 0.248
3539.719 0.306 0.225 0.241 0.25 0.259 0.342 0.285 0.138 0.16 0.325
3559.009 0.311 0.216 0.208 0.144 0.141 0.173 0.2 0.256 0.274 0.295
3578.299 0.258 0.263 0.294 0.229 0.175 0.186 0.217 0.286 0.267 0.265
3597.589 0.327 0.339 0.372 0.388 0.334 0.267 0.254 0.249 0.305 0.358
3616.879 0.274 0.25 0.255 0.223 0.243 0.343 0.319 0.219 0.135 0.128
3636.169 0.266 0.236 0.163 0.226 0.308 0.4 0.39 0.341 0.277 0.274
3655.459 0.319 0.325 0.317 0.325 0.362 0.323 0.249 0.255 0.351 0.332
3674.749 0.316 0.375 0.416 0.373 0.3 0.274 0.315 0.41 0.379 0.297
3694.039 0.306 0.317 0.367 0.373 0.341 0.424 0.426 0.352 0.332 0.433
3713.329 0.363 0.344 0.409 0.345 0.357 0.339 0.325 0.324 0.401 0.447
3732.619 0.502 0.538 0.445 0.394 0.469 0.477 0.334 0.312 0.371 0.391
3751.909 0.405 0.432 0.448 0.475 0.432 0.368 0.482 0.634 0.548 0.402
3771.199 0.43 0.519 0.523 0.48 0.499 0.477 0.373 0.395 0.545 0.529
3790.489 0.502 0.573 0.591 0.618 0.691 0.64 0.526 0.416 0.346 0.307
3809.779 0.292 0.365 0.546 0.645 0.499 0.562 0.482 0.349 0.476 0.501
3829.069 0.478 0.504 0.425 0.393 0.447 0.412 0.461 0.451 0.448 0.513
3848.359 0.447 0.471 0.594 0.608 0.594 0.485 0.51 0.511 0.411 0.503
3867.649 0.542 0.446 0.331 0.374 0.321 0.385 0.527 0.362 0.331 0.494
3886.939 0.565 0.496 0.488 0.54 0.47 0.434 0.544 0.566 0.391 0.328
3906.229 0.505 0.616 0.608 0.613 0.686 0.727 0.682 0.572 0.671 0.703
3925.519 0.561 0.565 0.601 0.639 0.596 0.539 0.571 0.516 0.538 0.671
3944.809 0.621 0.499 0.529 0.64 0.673 0.745 0.838 0.806 0.725 0.766
3964.099 0.713 0.728 0.735 0.622 0.636 0.648 0.621 0.563 0.551 0.613
3983.389 0.503 0.475 0.604 0.581 0.548 0.483 0.481 0.532 0.518 0.484
##END=
