##TITLE=2-Ethoxyphenyl isothiocyanate
##JCAMP-DX=4.24
##DATA TYPE=INFRARED SPECTRUM
##ORIGIN=EPA-IR VAPOR PHASE LIBRARY
##OWNER=SRD/NIST
Collection (C) 2018 copyright by the U.S. Secretary of Commerce
on behalf of the United States of America. All rights reserved.
##CAS REGISTRY NO=23163-84-0
##MOLFORM=C 9 H 9 N O S
##$NIST SOURCE=MSDC-IR
##STATE=gas
##XUNITS=1/CM
##YUNITS=ABSORBANCE
##XFACTOR=1.
##YFACTOR=0.001
##DELTAX=1.92898
##FIRSTX=549.8
##LASTX=4000.7
##FIRSTY=20.724
##MAXX=4000.7
##MINX=549.759
##MAXY=0.418134
##MINY=0
##NPOINTS=1790
##XYDATA=(X++(Y..Y))
549.759 20.724 20.724 20.024 19.094 18.204 16.984 15.684 14.154 12.834 11.834
569.049 10.914 10.094 9.554 9.414 9.034 8.464 8.234 8.024 7.704 7.724
588.339 7.964 7.934 7.664 7.284 6.944 6.784 6.644 6.304 5.854 5.354
607.628 5.044 4.754 4.404 4.294 4.034 3.804 3.594 3.524 3.684 3.584
626.918 3.484 3.674 3.594 3.304 3.394 3.484 3.534 3.674 3.774 3.654
646.208 3.564 3.634 3.784 3.894 3.744 3.754 3.994 4.364 4.714 4.984
665.498 5.604 6.494 7.264 8.264 9.264 9.954 10.934 11.864 12.384 12.834
684.787 13.174 13.084 12.714 12.314 11.624 10.754 9.794 8.834 8.124 7.294
704.077 6.334 5.604 5.194 4.864 4.794 5.194 5.644 6.214 7.174 8.484
723.367 10.084 12.034 14.624 18.234 22.934 28.524 34.894 41.604 48.644 56.364
742.657 64.624 71.014 71.634 66.334 58.504 50.854 43.574 36.374 29.604 23.564
761.947 18.744 15.164 12.694 11.294 10.364 9.704 9.334 8.854 8.464 8.084
781.236 7.694 7.484 7.294 7.174 7.154 7.054 6.844 6.784 6.514 6.124
800.526 5.894 5.374 4.984 4.754 4.334 3.844 3.544 3.374 3.134 2.864
819.816 2.734 2.664 2.524 2.404 2.204 1.964 1.934 1.924 1.724 1.764
839.106 1.934 1.954 1.904 1.874 1.914 2.104 2.304 2.244 2.204 2.314
858.395 2.354 2.574 2.814 2.764 3.084 3.594 3.874 4.214 4.784 5.534
877.685 6.194 7.044 8.184 9.364 10.464 11.594 12.634 13.374 14.184 14.564
896.975 14.824 15.234 15.384 15.344 15.154 15.184 15.384 15.744 16.344 16.824
916.265 17.334 17.944 18.614 19.594 20.764 21.904 22.984 24.414 26.214 28.164
935.555 30.684 33.634 36.354 38.394 39.574 39.924 39.274 37.464 34.644 30.884
954.844 26.694 22.674 19.034 15.804 13.204 11.094 9.624 8.574 7.614 7.144
974.134 6.694 6.284 5.904 5.804 5.774 5.544 5.604 5.844 5.954 6.044
993.424 6.134 6.254 6.734 7.304 8.014 8.574 9.204 10.154 11.164 12.504
1012.714 14.164 15.904 17.854 20.074 22.334 24.754 27.594 30.794 34.084 37.334
1032.003 40.684 43.844 46.384 48.494 49.264 48.894 47.854 45.544 41.894 37.354
1051.293 32.734 27.954 23.424 19.814 16.794 14.724 13.074 11.454 10.544 9.734
1070.583 9.024 9.034 9.194 9.024 9.134 9.404 9.564 9.964 10.394 11.044
1089.873 11.424 11.874 12.894 13.924 15.484 18.094 20.994 24.484 28.384 31.884
1109.163 35.454 38.884 41.074 41.994 42.134 40.854 38.434 34.874 30.704 26.994
1128.452 23.144 19.404 15.794 12.614 10.294 8.414 7.584 7.174 6.724 6.534
1147.742 7.254 8.094 8.504 9.334 9.914 9.954 9.904 9.694 9.254 8.884
1167.032 7.934 7.004 6.464 5.884 5.534 5.424 5.434 5.554 5.794 5.924
1186.322 6.384 7.124 7.684 8.184 8.944 9.894 10.924 12.484 14.924 17.914
1205.611 20.764 24.334 28.814 33.684 39.064 44.484 49.924 54.304 57.364 59.304
1224.901 60.024 59.184 56.164 52.294 47.964 43.064 38.944 35.544 33.164 32.624
1244.191 33.864 36.744 40.864 46.374 52.884 59.464 65.554 70.724 74.644 76.884
1263.481 77.244 76.384 73.944 69.984 65.224 60.404 56.154 52.404 49.234 46.434
1282.771 44.054 42.384 41.224 40.224 39.384 38.594 37.804 36.924 35.784 34.454
1302.060 32.864 30.914 28.714 26.224 23.524 20.904 18.554 16.314 14.204 12.474
1321.350 11.014 9.764 8.794 7.984 7.294 6.754 6.334 5.994 5.684 5.404
1340.640 5.224 5.074 4.924 4.784 4.664 4.584 4.524 4.504 4.574 4.664
1359.930 4.774 4.984 5.224 5.484 5.784 6.154 6.654 7.314 8.144 9.194
1379.219 10.494 11.964 13.684 15.554 17.284 18.774 19.964 20.714 20.874 20.364
1398.509 19.294 17.814 16.014 14.054 12.154 10.454 9.074 8.044 7.264 6.734
1417.799 6.464 6.354 6.294 6.294 6.494 6.794 7.184 7.704 8.324 9.164
1437.089 10.364 11.934 13.904 16.354 19.194 22.194 25.014 27.124 28.224 28.374
1456.378 28.084 27.564 26.424 24.744 23.274 22.764 23.584 25.824 29.354 33.734
1475.668 38.464 43.534 49.104 55.584 62.674 69.524 75.034 78.514 80.084 79.774
1494.958 77.474 72.864 65.704 56.574 46.704 37.664 30.104 24.384 20.404 17.614
1514.248 15.674 14.224 13.044 11.954 10.924 10.044 9.224 8.424 7.844 7.274
1533.538 6.784 6.414 6.204 6.024 5.894 5.904 5.904 5.994 6.084 6.184
1552.827 6.404 6.654 6.984 7.334 7.824 8.564 9.404 10.394 11.634 13.134
1572.117 14.824 16.614 18.474 20.404 22.474 24.564 26.444 28.044 29.394 30.344
1591.407 30.584 29.994 28.784 27.024 24.634 21.944 19.064 16.044 13.304 10.934
1610.697 9.034 7.704 6.684 5.804 5.234 4.884 4.494 4.104 3.844 3.644
1629.986 3.474 3.344 3.244 3.124 3.034 2.914 2.824 2.824 2.804 2.734
1649.276 2.674 2.694 2.704 2.724 2.814 2.964 3.044 3.114 3.164 3.174
1668.566 3.224 3.294 3.354 3.364 3.374 3.304 3.154 3.084 3.114 3.044
1687.856 2.944 2.924 2.864 2.804 2.794 2.774 2.784 2.744 2.694 2.694
1707.146 2.704 2.644 2.524 2.514 2.554 2.504 2.454 2.424 2.394 2.404
1726.435 2.434 2.424 2.414 2.404 2.404 2.424 2.484 2.564 2.554 2.634
1745.725 2.714 2.714 2.774 2.914 2.974 3.044 3.184 3.184 3.254 3.364
1765.015 3.434 3.504 3.494 3.484 3.504 3.504 3.514 3.534 3.504 3.554
1784.305 3.604 3.604 3.614 3.644 3.674 3.714 3.754 3.794 3.874 3.844
1803.594 3.894 4.014 4.074 4.094 4.104 4.124 4.234 4.324 4.344 4.414
1822.884 4.534 4.654 4.754 4.864 5.054 5.264 5.384 5.504 5.644 5.814
1842.174 5.984 6.104 6.184 6.244 6.294 6.304 6.264 6.314 6.354 6.284
1861.464 6.314 6.484 6.654 6.824 7.064 7.294 7.584 7.934 8.384 8.874
1880.754 9.304 9.704 9.994 10.254 10.514 10.684 10.734 10.744 10.774 10.814
1900.043 10.874 10.974 11.114 11.314 11.634 12.054 12.554 13.134 13.884 14.754
1919.333 15.594 16.474 17.304 18.114 18.894 19.504 20.114 20.764 21.364 22.064
1938.623 22.914 23.884 25.024 26.354 27.764 29.324 31.054 32.834 34.814 37.014
1957.913 39.324 41.794 44.484 47.384 50.564 53.944 57.634 61.544 65.714 70.234
1977.202 75.014 80.074 85.344 90.764 96.324 101.954 107.694 113.494 119.424 125.534
1996.492 131.784 138.214 145.024 152.214 159.894 168.414 177.684 187.924 199.344 212.114
2015.782 226.514 242.584 260.544 280.254 301.204 322.984 344.974 366.104 384.854 400.044
2035.072 410.934 416.954 418.134 414.834 407.344 396.644 384.004 370.014 355.304 340.674
2054.362 326.114 311.744 297.744 284.014 270.814 258.254 246.374 235.244 225.004 215.794
2073.651 207.764 200.994 195.364 191.054 188.124 186.404 185.934 186.524 188.114 190.684
2092.941 193.944 197.734 201.714 205.674 209.394 212.544 214.934 216.254 216.374 215.074
2112.231 212.184 207.734 201.894 194.434 185.604 176.034 165.724 155.134 144.744 134.724
2131.521 125.234 116.584 108.824 101.894 95.814 90.474 85.854 81.804 78.294 75.174
2150.810 72.444 70.014 67.734 65.604 63.664 61.864 60.054 58.314 56.644 54.984
2170.100 53.244 51.434 49.514 47.504 45.434 43.244 41.124 39.044 36.854 34.644
2189.390 32.624 30.764 29.094 27.624 26.234 24.924 23.704 22.604 21.564 20.654
2208.680 19.744 18.854 18.084 17.294 16.574 15.954 15.294 14.574 13.834 13.094
2227.970 12.334 11.584 10.814 10.024 9.284 8.654 8.014 7.374 6.854 6.434
2247.259 6.054 5.744 5.484 5.214 5.054 4.824 4.554 4.404 4.324 4.214
2266.549 4.074 3.954 3.824 3.734 3.634 3.494 3.364 3.294 3.234 3.134
2285.839 3.064 2.904 2.754 2.704 2.674 2.654 2.604 2.544 2.494 2.454
2305.129 2.484 2.404 2.324 2.344 2.364 2.454 2.544 2.564 2.514 2.514
2324.418 2.544 2.544 2.484 2.434 2.434 2.364 2.324 2.334 2.344 2.404
2343.708 2.404 2.344 2.354 2.374 2.384 2.424 2.504 2.534 2.594 2.634
2362.998 2.604 2.624 2.694 2.764 2.794 2.874 2.994 3.034 3.034 3.104
2382.288 3.194 3.194 3.154 3.134 3.134 3.154 3.184 3.264 3.244 3.124
2401.578 3.074 3.134 3.154 3.164 3.254 3.274 3.224 3.304 3.404 3.424
2420.867 3.464 3.554 3.654 3.664 3.684 3.664 3.634 3.684 3.754 3.754
2440.157 3.684 3.634 3.694 3.754 3.704 3.614 3.564 3.634 3.674 3.544
2459.447 3.484 3.484 3.504 3.474 3.444 3.474 3.524 3.554 3.614 3.774
2478.737 3.924 3.944 3.924 3.924 4.014 4.184 4.344 4.524 4.624 4.734
2498.026 4.834 4.874 4.974 5.064 5.124 5.134 5.104 5.104 5.074 5.074
2517.316 5.074 5.074 5.054 5.024 4.994 4.934 4.894 4.894 4.864 4.904
2536.606 4.924 4.954 5.004 5.054 5.104 5.164 5.274 5.334 5.374 5.464
2555.896 5.484 5.454 5.534 5.594 5.654 5.584 5.454 5.394 5.354 5.294
2575.186 5.214 5.124 5.074 5.014 4.934 4.894 4.844 4.684 4.574 4.614
2594.475 4.574 4.434 4.274 4.174 4.004 3.754 3.594 3.444 3.324 3.174
2613.765 2.964 2.824 2.684 2.544 2.484 2.344 2.224 2.144 2.084 2.044
2633.055 2.034 2.034 1.924 1.834 1.834 1.834 1.804 1.744 1.744 1.704
2652.345 1.644 1.664 1.724 1.784 1.784 1.774 1.804 1.844 1.814 1.784
2671.634 1.834 1.834 1.874 1.954 2.064 2.174 2.184 2.154 2.154 2.164
2690.924 2.244 2.314 2.334 2.414 2.534 2.594 2.604 2.734 2.894 2.974
2710.214 3.084 3.224 3.414 3.694 3.934 4.144 4.384 4.534 4.724 4.994
2729.504 5.154 5.244 5.354 5.434 5.464 5.504 5.554 5.444 5.284 5.134
2748.794 4.944 4.824 4.764 4.604 4.404 4.304 4.174 3.944 3.774 3.784
2768.083 3.674 3.504 3.544 3.514 3.414 3.304 3.274 3.254 3.214 3.114
2787.373 3.074 3.064 3.034 3.154 3.134 3.064 3.054 2.974 2.904 2.844
2806.663 2.894 2.944 2.994 3.034 2.974 2.984 3.044 3.064 3.054 3.074
2825.953 3.154 3.254 3.284 3.354 3.394 3.444 3.584 3.724 3.804 3.864
2845.242 3.944 4.074 4.234 4.454 4.694 4.914 5.094 5.344 5.674 5.984
2864.532 6.424 6.894 7.254 7.844 8.524 9.264 10.124 10.894 11.714 12.504
2883.822 13.264 14.064 14.824 15.244 15.494 15.774 15.854 15.774 15.744 15.644
2903.112 15.384 15.324 15.154 14.894 14.894 14.844 14.894 15.044 15.214 15.624
2922.401 16.234 16.684 17.164 17.874 18.674 19.564 20.344 20.984 21.484 21.874
2941.691 22.104 22.004 21.664 21.014 20.174 19.184 18.194 17.244 16.304 15.704
2960.981 15.344 15.304 15.504 15.914 16.594 17.534 18.644 19.974 21.634 23.574
2980.271 25.704 27.724 29.484 30.734 31.464 31.454 31.084 30.344 28.344 25.174
2999.561 21.764 18.844 16.464 14.584 13.004 11.704 10.704 9.874 9.144 8.624
3018.850 8.274 8.004 7.954 8.054 8.144 8.194 8.434 8.814 9.164 9.464
3038.140 9.574 9.594 9.574 9.564 9.354 9.034 8.794 8.514 8.404 8.494
3057.430 8.754 9.084 9.664 10.504 11.374 12.584 13.744 14.734 15.934 17.084
3076.720 17.884 18.344 18.254 17.684 16.754 15.534 14.014 12.274 10.544 8.744
3096.009 7.414 6.634 5.964 5.294 4.864 4.584 4.294 3.974 3.564 3.274
3115.299 2.964 2.574 2.314 2.144 1.944 1.804 1.684 1.4803 1.3678 1.3193
3134.589 1.3581 1.3355 1.259 1.2724 1.2823 1.232 1.1685 1.1179 1.0858 1.041
3153.879 1.0283 1.0969 1.1116 0.9869 0.8799 0.8913 0.9434 0.9645 0.9269 0.9508
3173.169 0.7811 0.62253 0.7741 0.7136 0.4797 0.6281 0.707 0.5742 0.4957 0.59002
3192.458 0.7702 0.7106 0.56854 0.5131 0.5024 0.505 0.5037 0.5102 0.4709 0.351
3211.748 0.374 0.399 0.278 0.175 0.328 0.4915 0.37 0.331 0.4282 0.349
3231.038 0.371 0.4471 0.357 0.329 0.315 0.235 0.257 0.275 0.272 0.362
3250.328 0.4479 0.393 0.329 0.393 0.4356 0.338 0.187 0.141 0.188 0.253
3269.617 0.165 0.121 0.115 0.136 0.224 0.178 0.109 0.067 0.122 0.203
3288.907 0.251 0.298 0.227 0.218 0.24 0.146 0.233 0.272 0.124 0.049
3308.197 0.139 0.251 0.207 0.15 0.329 0.4837 0.4701 0.325 0.202 0.333
3327.487 0.391 0.285 0.148 0.16 0.274 0.365 0.414 0.39 0.316 0.313
3346.777 0.341 0.36 0.315 0.209 0.248 0.34 0.303 0.218 0.172 0.257
3366.066 0.297 0.129 0.099 0.18 0.192 0.147 0.153 0.21 0.26 0.364
3385.356 0.4315 0.323 0.336 0.401 0.357 0.152 0 0.164 0.217 0.097
3404.646 0.202 0.296 0.373 0.416 0.279 0.41 0.4835 0.348 0.251 0.287
3423.936 0.207 0.061 0.1 0.089 0.101 0.04 0.014 0.226 0.237 0.127
3443.225 0.027 0.056 0.208 0.23 0.291 0.269 0.326 0.433 0.413 0.345
3462.515 0.362 0.4325 0.344 0.39 0.4739 0.449 0.4631 0.315 0.226 0.387
3481.805 0.4351 0.407 0.3 0.213 0.233 0.161 0.17 0.361 0.333 0.226
3501.095 0.2 0.264 0.299 0.253 0.329 0.365 0.311 0.228 0.276 0.234
3520.385 0.122 0.158 0.194 0.265 0.323 0.25 0.154 0.197 0.304 0.374
3539.674 0.362 0.286 0.259 0.416 0.4589 0.381 0.349 0.322 0.33 0.196
3558.964 0.119 0.216 0.229 0.104 0.091 0.238 0.361 0.417 0.4749 0.4256
3578.254 0.285 0.261 0.359 0.297 0.31 0.343 0.322 0.296 0.221 0.327
3597.544 0.289 0.227 0.28 0.389 0.32 0.318 0.55641 0.60907 0.4962 0.418
3616.833 0.417 0.376 0.422 0.447 0.367 0.309 0.274 0.305 0.4533 0.51677
3636.123 0.54344 0.528202 0.4613 0.4468 0.4737 0.354 0.312 0.4889 0.4743 0.473
3655.413 0.407 0.302 0.389 0.381 0.386 0.55514 0.415 0.25 0.353 0.463
3674.703 0.4647 0.4374 0.4706 0.4831 0.4477 0.365 0.386 0.421 0.55875 0.4784
3693.993 0.292 0.4293 0.4349 0.387 0.408 0.4638 0.54671 0.4984 0.4241 0.362
3713.282 0.409 0.4988 0.4539 0.383 0.4769 0.4891 0.421 0.4338 0.533684 0.59245
3732.572 0.5122 0.402 0.4867 0.60718 0.5019 0.468 0.56189 0.60206 0.51855 0.56144
3751.862 0.7161 0.61692 0.4271 0.4795 0.5122 0.528232 0.58037 0.6295 0.7032 0.6584
3771.152 0.4707 0.411 0.4331 0.412 0.6352 0.8827 0.7308 0.632 0.6656 0.6587
3790.441 0.6807 0.704 0.7079 0.7072 0.7077 0.7287 0.7082 0.7144 0.8574 0.8763
3809.731 0.7824 0.7035 0.7737 0.6334 0.4947 0.62383 0.6599 0.7527 0.7428 0.7041
3829.021 0.59288 0.51476 0.5142 0.53865 0.6509 0.6678 0.7077 0.7092 0.7799 0.7775
3848.311 0.8476 0.9234 0.8389 0.9735 0.9084 0.7056 0.8053 0.8277 0.692 0.7976
3867.601 1.0119 0.9613 0.7651 0.7219 0.7346 0.705 0.59859 0.54335 0.6563 0.7514
3886.890 0.7751 0.8384 0.7725 0.828 0.9662 1.0396 0.9138 0.7092 0.8233 0.8714
3906.180 0.9052 0.9794 0.9427 0.7784 0.8639 0.921 0.9134 0.9797 1.0172 0.9444
3925.470 0.8745 0.9186 0.9496 1.0688 1.2454 1.3185 1.2012 1.0808 0.9358 1.0269
3944.760 1.0823 1.0569 1.2194 1.2787 1.1573 1.0823 1.1192 1.2589 1.4018 1.397
3964.049 1.375 1.3343 1.3396 1.3576 1.4139 1.483 1.4302 1.4885 1.604 1.604
3983.339 1.604 1.604 1.744 1.914 2.034 2.084 1.874 1.794 1.904 1.934
##END=
