##TITLE=3,4-Dimethoxycinnamic acid
##JCAMP-DX=4.24
##DATA TYPE=INFRARED SPECTRUM
##ORIGIN=EPA-IR VAPOR PHASE LIBRARY
##OWNER=SRD/NIST
Collection (C) 2018 copyright by the U.S. Secretary of Commerce
on behalf of the United States of America. All rights reserved.
##CAS REGISTRY NO=2316-26-9
##MOLFORM=C 11 H 12 O 4
##$NIST SOURCE=MSDC-IR
##STATE=gas
##XUNITS=1/CM
##YUNITS=ABSORBANCE
##XFACTOR=1.
##YFACTOR=0.001
##DELTAX=1.92898
##FIRSTX=549.8
##LASTX=4000.7
##FIRSTY=2.891
##MAXX=4000.7
##MINX=549.759
##MAXY=0.017051
##MINY=0
##NPOINTS=1790
##XYDATA=(X++(Y..Y))
549.759 2.891 2.751 2.821 3.101 3.171 3.091 3.011 3.121 2.891 2.261
569.049 2.141 2.071 1.571 1.381 1.531 1.531 1.391 1.501 1.391 1.2429
588.339 1.301 1.471 1.701 1.631 1.621 1.831 1.781 1.721 1.781 1.821
607.628 1.851 1.831 1.701 1.721 1.911 1.731 1.381 1.371 1.511 1.531
626.918 1.541 1.551 1.511 1.541 1.511 1.471 1.601 1.531 1.371 1.2812
646.208 1.2356 1.1723 1.0207 0.9299 0.6319 0.4754 0.5506 0.4328 0.34389 0.3295
665.498 0.34182 0.35781 0.463 0.4971 0.4883 0.5338 0.4603 0.299183 0.2212 0.28965
684.787 0.38518 0.4159 0.4482 0.5139 0.4844 0.4172 0.4473 0.31613 0.30128 0.4514
704.077 0.4068 0.30969 0.2263 0.2261 0.507 0.5957 0.4248 0.4449 0.5179 0.5732
723.367 0.5367 0.5964 0.7824 0.7043 0.4686 0.36024 0.5724 0.6378 0.6623 0.8461
742.657 0.8048 0.8261 0.7921 0.8478 0.8854 0.7694 0.9637 0.9358 0.737 0.8083
761.947 0.813 0.7553 0.8284 0.7951 0.6927 0.6313 0.7065 0.876 0.8585 0.8115
781.236 0.7615 0.7515 0.7416 0.845 0.9381 0.8055 0.6666 0.6835 1.0332 1.1724
800.526 0.9859 1.0937 1.1805 1.0967 1.1029 1.321 1.541 1.611 1.541 1.351
819.816 1.1325 1.1802 1.491 1.431 1.1477 0.8535 0.9166 1.072 0.9885 0.8871
839.106 0.8839 1.0324 1.0892 1.2037 1.341 1.311 1.194 1.129 1.0148 1.0463
858.395 1.1789 1.0404 0.9338 0.8766 1.0209 1.1234 0.9164 0.8916 0.9576 0.8897
877.685 0.8437 0.8842 0.863 0.7262 0.6713 0.7323 0.7526 0.7989 0.8629 0.8193
896.975 0.8482 0.7682 0.6204 0.6081 0.4986 0.3921 0.4414 0.628 0.5918 0.5572
916.265 0.6187 0.7131 0.9075 0.834 0.7626 0.6787 0.6131 0.8754 0.9042 0.7757
935.555 0.8983 0.9901 1.0774 1.2481 1.371 1.381 1.361 1.2409 1.0144 0.8768
954.844 0.931 1.1062 1.1065 1.137 1.259 1.2119 1.411 1.761 1.801 2.001
974.134 2.201 2.241 2.391 2.321 2.161 2.081 1.941 1.791 1.461 1.2833
993.424 1.361 1.301 1.2579 1.291 1.401 1.561 1.771 1.961 1.891 1.871
1012.714 2.171 2.641 3.031 3.331 3.601 3.651 3.741 4.001 4.191 4.371
1032.003 4.351 4.041 3.761 3.721 3.461 3.171 2.811 2.271 1.861 1.811
1051.293 1.781 1.471 1.351 1.1924 0.9744 1.2027 1.391 1.1681 1.1581 1.2389
1070.583 1.2364 1.2692 1.2581 1.0846 1.1689 1.291 1.411 1.521 1.811 2.081
1089.873 1.751 2.081 2.581 2.771 3.651 4.841 5.871 7.251 9.181 11.551
1109.163 13.981 15.871 16.831 17.051 16.431 15.101 12.741 10.091 8.481 7.311
1128.452 6.611 6.311 6.021 5.881 5.751 5.771 5.901 5.951 6.041 6.311
1147.742 6.621 6.881 7.191 7.541 7.611 7.491 7.471 6.941 6.211 5.841
1167.032 5.421 4.781 4.181 3.611 3.241 3.041 2.451 1.981 2.091 2.211
1186.322 2.091 1.961 1.751 1.751 1.971 1.971 2.051 2.021 1.851 1.911
1205.611 2.011 2.091 2.021 2.341 2.711 2.741 2.901 3.031 3.451 3.831
1224.901 3.881 4.111 4.341 4.451 4.611 4.511 4.521 4.701 5.071 5.291
1244.191 5.471 5.781 6.081 6.311 6.751 7.511 8.131 8.741 9.511 10.451
1263.481 11.331 12.011 12.551 12.701 12.361 11.761 11.071 10.131 9.241 8.601
1282.771 8.091 7.681 7.291 6.941 6.611 6.361 6.051 5.641 5.341 5.121
1302.060 4.811 4.381 4.021 3.801 3.571 3.291 3.081 2.931 2.771 2.701
1321.350 2.661 2.581 2.511 2.401 2.321 2.301 2.231 2.131 2.111 2.161
1340.640 2.181 2.241 2.321 2.371 2.491 2.611 2.661 2.691 2.731 2.681
1359.930 2.671 2.611 2.471 2.321 2.101 1.871 1.741 1.681 1.561 1.421
1379.219 1.2781 1.1873 1.1661 1.1175 1.106 1.106 1.0992 1.1274 1.2111 1.321
1398.509 1.441 1.521 1.651 1.881 2.121 2.321 2.481 2.631 2.681 2.691
1417.799 2.621 2.451 2.301 2.121 1.901 1.741 1.631 1.601 1.621 1.661
1437.089 1.801 1.981 2.081 2.111 2.141 2.201 2.251 2.231 2.181 2.141
1456.378 2.131 2.201 2.231 2.271 2.341 2.391 2.471 2.441 2.411 2.361
1475.668 2.201 2.051 1.991 2.071 2.191 2.311 2.501 2.761 3.041 3.431
1494.958 4.031 4.821 5.711 6.621 7.521 8.371 9.071 9.441 9.461 9.071
1514.248 8.271 7.251 6.141 5.151 4.241 3.571 3.061 2.561 2.241 2.041
1533.538 1.841 1.711 1.581 1.461 1.391 1.391 1.391 1.291 1.2587 1.2319
1552.827 1.2485 1.341 1.391 1.391 1.411 1.521 1.681 1.781 1.891 2.091
1572.117 2.261 2.381 2.391 2.231 2.111 2.091 2.141 2.161 2.181 2.221
1591.407 2.241 2.381 2.581 2.671 2.651 2.641 2.641 2.631 2.411 2.111
1610.697 1.941 1.901 1.861 1.781 1.711 1.761 1.991 2.251 2.541 3.021
1629.986 3.711 4.461 5.091 5.721 6.161 6.161 5.821 5.141 4.141 3.081
1649.276 2.171 1.681 1.431 1.1517 0.9403 0.8362 0.852 0.803 0.6989 0.7117
1668.566 0.7082 0.7296 0.7797 0.7585 0.7505 0.7977 0.8544 0.7893 0.7176 0.8077
1687.856 0.8452 0.8314 0.8708 0.9242 0.9853 0.9686 1.0034 1.1173 1.1663 1.2439
1707.146 1.351 1.471 1.581 1.621 1.651 1.801 1.921 2.031 2.131 2.271
1726.435 2.531 2.751 2.991 3.341 3.871 4.571 5.501 6.831 8.391 10.091
1745.725 11.811 13.271 14.331 14.971 14.961 14.111 12.751 11.461 10.051 8.331
1765.015 6.641 5.271 4.331 3.751 3.331 3.051 2.881 2.821 2.761 2.631
1784.305 2.571 2.511 2.401 2.271 2.061 1.831 1.631 1.501 1.371 1.2442
1803.594 1.1594 1.0983 1.041 0.9399 0.8364 0.8241 0.7907 0.7203 0.7314 0.7671
1822.884 0.7766 0.7127 0.6859 0.7163 0.6717 0.6191 0.6128 0.6102 0.6297 0.5924
1842.174 0.5347 0.5515 0.5646 0.5538 0.5611 0.5345 0.4986 0.5237 0.5619 0.5452
1861.464 0.5312 0.5548 0.5456 0.5362 0.5648 0.5822 0.5737 0.5271 0.4965 0.5265
1880.754 0.4909 0.4673 0.5117 0.5133 0.5059 0.5164 0.5247 0.4997 0.4729 0.4747
1900.043 0.4872 0.4737 0.4721 0.5165 0.4499 0.4154 0.4384 0.4433 0.4718 0.4263
1919.333 0.37931 0.35148 0.34593 0.4028 0.4804 0.4632 0.4376 0.4626 0.459 0.4761
1938.623 0.4892 0.4981 0.4941 0.4788 0.4581 0.435 0.4187 0.4287 0.4505 0.44
1957.913 0.3953 0.3963 0.4333 0.4575 0.4603 0.4454 0.4902 0.4926 0.4165 0.4263
1977.202 0.5015 0.4715 0.4614 0.5002 0.4876 0.497 0.4749 0.4527 0.4941 0.5078
1996.492 0.4873 0.537 0.5281 0.4553 0.5006 0.5655 0.5818 0.5388 0.5202 0.5298
2015.782 0.5585 0.5996 0.5495 0.5615 0.5797 0.5507 0.5627 0.5938 0.6278 0.6004
2035.072 0.6144 0.5941 0.5749 0.6697 0.6853 0.6682 0.6563 0.6262 0.6235 0.6069
2054.362 0.6284 0.6487 0.5882 0.5561 0.5439 0.4917 0.4577 0.4762 0.4957 0.4769
2073.651 0.5154 0.5819 0.4948 0.4221 0.4602 0.4561 0.4003 0.4024 0.4284 0.3982
2092.941 0.3699 0.36451 0.38174 0.3889 0.4032 0.36343 0.3143 0.37632 0.35212 0.31997
2112.231 0.3955 0.38395 0.36102 0.4208 0.399 0.32838 0.34717 0.35133 0.37792 0.4207
2131.521 0.3657 0.315 0.33749 0.33918 0.38188 0.445 0.4217 0.34291 0.34725 0.38967
2150.810 0.36014 0.34131 0.33179 0.38183 0.35815 0.32776 0.34729 0.30927 0.33115 0.30531
2170.100 0.28966 0.34202 0.33152 0.290965 0.32609 0.4251 0.4508 0.4258 0.34951 0.32625
2189.390 0.4 0.4248 0.4392 0.4517 0.4669 0.4594 0.4239 0.4157 0.4175 0.4276
2208.680 0.4085 0.432 0.4711 0.4147 0.4141 0.4062 0.38465 0.422 0.404 0.4284
2227.970 0.4765 0.4415 0.3966 0.4141 0.438 0.4378 0.432 0.3986 0.34046 0.37186
2247.259 0.463 0.4729 0.4361 0.4057 0.4143 0.4107 0.38228 0.4 0.4594 0.5304
2266.549 0.4963 0.4372 0.4301 0.4437 0.4717 0.413 0.38268 0.4087 0.4301 0.4363
2285.839 0.4388 0.4028 0.35906 0.37056 0.4195 0.4482 0.36719 0.35168 0.37691 0.38631
2305.129 0.4093 0.34893 0.3923 0.4584 0.4114 0.4036 0.3513 0.37106 0.4291 0.35219
2324.418 0.32034 0.30261 0.30798 0.4094 0.4298 0.37892 0.4175 0.4395 0.38541 0.33479
2343.708 0.328 0.38825 0.4032 0.4318 0.4042 0.35088 0.3945 0.3851 0.33372 0.3439
2362.998 0.38166 0.392 0.37949 0.37797 0.37064 0.33072 0.35898 0.4006 0.36299 0.271
2382.288 0.2613 0.268 0.28531 0.33796 0.34358 0.33614 0.33552 0.36927 0.35897 0.31322
2401.578 0.31608 0.34206 0.32393 0.32072 0.32887 0.31324 0.38482 0.4522 0.3915 0.299438
2420.867 0.3118 0.33969 0.31242 0.36547 0.405 0.37657 0.4028 0.4657 0.437 0.32519
2440.157 0.3314 0.3975 0.34862 0.33979 0.38068 0.4412 0.4287 0.38644 0.4381 0.3954
2459.447 0.28607 0.297727 0.37892 0.4014 0.4075 0.37693 0.30211 0.3248 0.3791 0.4259
2478.737 0.4465 0.4116 0.38374 0.38511 0.37281 0.3203 0.37641 0.4514 0.416 0.36983
2498.026 0.37311 0.37041 0.33612 0.3987 0.4289 0.38016 0.4233 0.4209 0.30116 0.299068
2517.316 0.3439 0.31508 0.33549 0.32341 0.31596 0.38268 0.4054 0.4686 0.567 0.5102
2536.606 0.4713 0.5008 0.4418 0.3915 0.4483 0.4582 0.509 0.5051 0.4563 0.38005
2555.896 0.30469 0.38107 0.4444 0.4839 0.5433 0.5057 0.4489 0.4974 0.51 0.4826
2575.186 0.4681 0.4642 0.4937 0.5122 0.503 0.4888 0.478 0.508 0.5235 0.5422
2594.475 0.5308 0.5337 0.529 0.4725 0.4358 0.4274 0.4865 0.5208 0.4305 0.32286
2613.765 0.36014 0.4745 0.4192 0.32315 0.34004 0.37879 0.461 0.4706 0.4118 0.4087
2633.055 0.38326 0.30068 0.2533 0.30819 0.4425 0.4418 0.37819 0.36846 0.4598 0.5191
2652.345 0.5065 0.4753 0.38811 0.3999 0.39095 0.35091 0.31438 0.32075 0.35106 0.33533
2671.634 0.34983 0.38879 0.3976 0.3929 0.4201 0.4436 0.43 0.38587 0.37128 0.4024
2690.924 0.4054 0.39075 0.39016 0.37533 0.3642 0.36368 0.4498 0.5141 0.4302 0.32022
2710.214 0.2779 0.33179 0.35341 0.34992 0.33781 0.34149 0.37277 0.35559 0.32946 0.31087
2729.504 0.32544 0.37047 0.391 0.4165 0.4376 0.4039 0.394 0.35472 0.34784 0.37437
2748.794 0.4055 0.4287 0.35998 0.35689 0.3974 0.4514 0.4933 0.4543 0.37973 0.4044
2768.083 0.4161 0.4185 0.39071 0.4339 0.4757 0.4068 0.4757 0.5187 0.4496 0.4174
2787.373 0.4265 0.4978 0.5004 0.4317 0.38531 0.38339 0.3917 0.4352 0.5787 0.5674
2806.663 0.5935 0.6553 0.6417 0.5995 0.5464 0.6194 0.6663 0.7091 0.7688 0.794
2825.953 0.931 1.0209 1.0641 1.1108 1.1549 1.331 1.521 1.611 1.641 1.701
2845.242 1.721 1.741 1.671 1.581 1.451 1.2635 1.1656 1.0333 0.97 1.0705
2864.532 1.1449 1.0955 1.0614 1.0531 1.0344 0.9637 0.9644 0.9801 1.0383 1.0683
2883.822 1.0375 0.9871 0.9282 0.973 0.9903 1.0181 1.0277 0.9648 0.9003 1.0344
2903.112 1.1463 1.1829 1.1835 1.129 1.2254 1.2883 1.341 1.411 1.411 1.421
2922.401 1.491 1.531 1.621 1.721 1.711 1.801 1.991 2.191 2.351 2.501
2941.691 2.611 2.581 2.561 2.591 2.611 2.611 2.491 2.461 2.461 2.311
2960.981 2.121 2.111 2.201 2.041 1.821 1.711 1.661 1.591 1.501 1.501
2980.271 1.451 1.361 1.391 1.341 1.391 1.471 1.521 1.601 1.611 1.671
2999.561 1.831 1.901 1.861 1.981 2.091 2.001 1.851 1.761 1.701 1.511
3018.850 1.441 1.371 1.1891 1.0016 0.8689 0.9456 0.9143 0.8197 0.8943 0.9474
3038.140 0.9608 0.9473 0.9634 1.0198 1.0003 0.9766 1.0189 1.0301 0.9725 0.9397
3057.430 1.0572 1.1069 0.8957 0.7774 0.8394 0.927 1.0318 0.9957 0.8533 0.831
3076.720 0.8323 0.7604 0.6612 0.7258 0.7791 0.6887 0.6116 0.5701 0.5481 0.5508
3096.009 0.5462 0.4743 0.519 0.4713 0.4509 0.4955 0.4308 0.5616 0.5004 0.32663
3115.299 0.33784 0.3646 0.36914 0.31369 0.32153 0.38706 0.3938 0.34526 0.3351 0.290642
3134.589 0.33009 0.37054 0.3937 0.4592 0.38167 0.37536 0.4258 0.4204 0.31649 0.2506
3153.879 0.2754 0.2779 0.34377 0.3292 0.2001 0.2141 0.3423 0.36932 0.2215 0.297353
3173.169 0.4736 0.4751 0.4312 0.2204 0.165 0.4153 0.4307 0.35123 0.3178 0.2201
3192.458 0.2433 0.2778 0.2207 0.292008 0.3018 0.2634 0.36146 0.4213 0.393 0.298908
3211.748 0.2627 0.38308 0.4309 0.2523 0.124 0.096 0.111 0.2749 0.4005 0.4131
3231.038 0.33744 0.30751 0.30574 0.28235 0.28632 0.1988 0.152 0.165 0.34769 0.4136
3250.328 0.33732 0.2356 0.13 0.089 0.185 0.34092 0.2784 0.2132 0.2442 0.31908
3269.617 0.3918 0.2584 0.2125 0.32152 0.28458 0.2161 0.30448 0.299868 0.1966 0.2317
3288.907 0.35284 0.35167 0.2642 0.2052 0.1937 0.2168 0.2286 0.162 0.1 0.179
3308.197 0.2381 0.31788 0.4592 0.4759 0.36067 0.34737 0.4343 0.38814 0.28933 0.2342
3327.487 0.202 0.2624 0.2514 0.2539 0.4146 0.4788 0.4305 0.34011 0.2101 0.2336
3346.777 0.2659 0.184 0.152 0.2053 0.2315 0.181 0.2076 0.2197 0.161 0.134
3366.066 0.2399 0.33735 0.37311 0.38347 0.38919 0.3498 0.38707 0.4304 0.444 0.5523
3385.356 0.4145 0.2191 0.2279 0.33481 0.34455 0.2683 0.2441 0.30761 0.2269 0.147
3404.646 0.1956 0.2516 0.34756 0.33469 0.2057 0.18 0.2236 0.2385 0.30662 0.34635
3423.936 0.219 0.2067 0.2685 0.295568 0.33909 0.34531 0.3938 0.3914 0.34116 0.28153
3443.225 0.2231 0.2163 0.173 0.271 0.33104 0.2384 0.25 0.30428 0.3994 0.36522
3462.515 0.2591 0.28551 0.30946 0.36834 0.4553 0.4766 0.4472 0.4591 0.35743 0.34636
3481.805 0.5811 0.4932 0.37307 0.4029 0.37611 0.35365 0.35819 0.37375 0.36077 0.2619
3501.095 0.2006 0.2748 0.2555 0.175 0.2364 0.3105 0.36005 0.38863 0.34003 0.30585
3520.385 0.30909 0.2421 0.2768 0.38405 0.34244 0.4068 0.4509 0.4065 0.30577 0.179
3539.674 0.2306 0.298292 0.1934 0.149 0.1936 0.2428 0.2699 0.2752 0.4035 0.4032
3558.964 0.37417 0.35952 0.32725 0.4231 0.4926 0.7042 0.9865 1.331 2.081 3.161
3578.254 4.241 5.201 5.831 6.001 5.781 4.951 3.771 2.641 1.801 1.1871
3597.544 0.7432 0.5886 0.5008 0.37667 0.2778 0.30742 0.31866 0.4198 0.4039 0.4227
3616.833 0.4539 0.32597 0.3183 0.2743 0.30687 0.34738 0.38813 0.3759 0.4522 0.5008
3636.123 0.38055 0.30321 0.3155 0.2427 0.28333 0.28189 0.181 0.31662 0.2795 0.32819
3655.413 0.4806 0.35512 0.2003 0.31396 0.35086 0.3129 0.2697 0.13 0.101 0.19
3674.703 0.28 0.29041 0.1964 0.057 0 0.037 0.124 0.085 0.087 0.17
3693.993 0.179 0.2297 0.2794 0.18 0.2159 0.18 0.094 0.2418 0.182 0.2076
3713.282 0.31737 0.191 0.2398 0.4083 0.4211 0.2706 0.262 0.2763 0.169 0.1932
3732.572 0.2784 0.339 0.37869 0.3283 0.2657 0.2004 0.176 0.36344 0.4405 0.4047
3751.862 0.36997 0.2294 0.165 0.171 0.2763 0.236 0.124 0.2471 0.1975 0.105
3771.152 0.2621 0.4109 0.31333 0.19 0.2307 0.35862 0.37139 0.39026 0.36416 0.291935
3790.441 0.174 0.14 0.176 0.1933 0.30402 0.2364 0.2794 0.277 0.167 0.106
3809.731 0.032 0.086 0.141 0.1924 0.2658 0.300599 0.34131 0.30778 0.2075 0.2795
3829.021 0.3167 0.2147 0.19 0.147 0.056 0.024 0.1915 0.2441 0.071 0.152
3848.311 0.2594 0.2588 0.2817 0.2446 0.2351 0.2485 0.35263 0.34607 0.2699 0.2788
3867.601 0.297982 0.32453 0.2538 0.2335 0.2512 0.2791 0.30404 0.31075 0.176 0.145
3886.890 0.35441 0.4164 0.33216 0.2078 0.18 0.11 0.128 0.2216 0.2043 0.172
3906.180 0.2142 0.2622 0.191 0.16 0.2245 0.2452 0.146 0.058 0.2702 0.4493
3925.470 0.32635 0.32395 0.38145 0.2687 0.28226 0.35837 0.2432 0.12 0.107 0.182
3944.760 0.1961 0.2559 0.32753 0.4178 0.4516 0.247 0.28267 0.4282 0.35355 0.28248
3964.049 0.298825 0.2782 0.297764 0.35856 0.35138 0.2513 0.08 0.092 0.2393 0.2373
3983.339 0.2418 0.294593 0.111 0.003 0.058 0.135 0.2367 0.32062 0.3958 0.32312
##END=
