##TITLE=2,4,5-Trichlorophenyl isothiocyanate
##JCAMP-DX=4.24
##DATA TYPE=INFRARED SPECTRUM
##ORIGIN=EPA-IR VAPOR PHASE LIBRARY
##OWNER=SRD/NIST
Collection (C) 2018 copyright by the U.S. Secretary of Commerce
on behalf of the United States of America. All rights reserved.
##CAS REGISTRY NO=23165-46-0
##MOLFORM=C 7 H 2 Cl 3 N S
##$NIST SOURCE=MSDC-IR
##STATE=gas
##XUNITS=1/CM
##YUNITS=ABSORBANCE
##XFACTOR=1.
##YFACTOR=0.001
##DELTAX=1.92898
##FIRSTX=549.8
##LASTX=4000.7
##FIRSTY=8.335
##MAXX=4000.7
##MINX=549.759
##MAXY=0.518555
##MINY=0
##NPOINTS=1790
##XYDATA=(X++(Y..Y))
549.759 8.335 7.295 6.625 6.275 5.725 5.395 5.395 5.785 6.685 7.235
569.049 7.935 9.175 10.195 11.245 12.165 12.585 12.765 12.875 12.985 12.725
588.339 12.405 11.925 11.745 12.135 12.335 12.065 11.875 11.955 12.055 12.005
607.628 11.775 11.755 11.855 12.115 12.485 12.855 13.625 14.515 14.865 15.555
626.918 16.625 18.015 19.915 21.695 23.515 25.505 27.275 28.245 28.055 27.335
646.208 26.305 24.635 22.445 20.675 19.585 18.375 16.905 15.695 14.805 13.805
665.498 12.625 11.485 10.325 9.275 8.225 7.335 6.675 6.015 5.665 5.345
684.787 5.105 5.095 4.875 4.385 4.075 3.975 3.765 3.355 3.115 3.045
704.077 3.105 3.055 2.855 2.905 3.095 3.365 3.575 3.605 3.405 2.965
723.367 2.445 1.945 1.4786 0.9824 0.668199 0.5936 0.6073 0.73024 0.76448 0.606
742.657 0.65928 0.6453 0.439 0.397 0.508 0.7918 0.9352 1.1044 1.4973 1.945
761.947 2.195 2.155 2.115 1.875 1.4631 1.2971 1.0773 0.7923 0.7168 0.6354
781.236 0.53 0.6594 0.68329 0.7489 0.8448 1.1158 1.5171 1.5902 1.875 2.185
800.526 2.215 2.145 2.075 2.045 1.985 1.835 1.815 2.055 2.415 2.915
819.816 3.245 3.445 4.035 4.565 4.905 5.365 5.625 5.775 5.705 5.535
839.106 5.555 5.265 5.235 5.285 5.025 5.195 5.215 5.075 5.115 5.035
858.395 5.105 4.955 5.095 5.995 7.445 9.855 13.045 16.995 21.335 25.585
877.685 29.595 33.245 34.525 30.785 25.335 21.335 17.455 13.365 9.705 6.955
896.975 5.265 4.215 3.265 2.675 2.665 2.485 2.295 2.265 2.285 2.235
916.265 1.925 1.805 1.6361 1.2908 1.2261 1.2974 1.193 1.0179 1.0035 1.085
935.555 1.2496 1.2975 1.3362 1.4958 1.5809 1.715 1.775 1.885 2.045 2.095
954.844 2.145 2.275 2.555 2.905 3.335 4.005 4.895 5.685 6.815 8.675
974.134 11.025 14.085 18.165 23.335 28.905 34.475 39.495 42.745 43.595 42.105
993.424 38.675 33.595 27.875 22.395 17.735 14.145 11.195 9.105 7.695 6.475
1012.714 5.235 4.655 4.385 4.065 3.835 3.615 3.565 3.445 3.025 2.905
1032.003 3.205 3.035 2.985 2.845 2.535 2.235 2.315 2.625 2.565 1.975
1051.293 1.735 2.075 2.285 2.355 2.585 2.875 3.305 3.885 5.185 6.405
1070.583 8.095 11.535 15.955 22.155 29.725 38.645 47.465 53.965 57.415 57.515
1089.873 55.495 50.395 40.755 29.765 21.155 15.155 10.955 8.115 6.675 6.475
1109.163 7.245 8.565 10.235 12.445 15.265 18.815 23.055 27.535 31.755 35.685
1128.452 39.405 41.385 41.145 38.665 34.525 29.625 23.635 17.805 13.305 10.075
1147.742 7.685 6.055 5.195 4.515 3.875 3.545 3.255 2.685 1.935 1.509
1167.032 1.4578 1.3938 1.2263 0.9949 0.6493 0.8103 0.8195 0.451 0.5732 0.801
1186.322 0.9258 0.41 0.288 0.5944 0.71311 0.76244 0.512 0.403 0.282 0.449
1205.611 0.517 0.8481 1.5415 1.815 1.975 2.315 3.145 4.005 5.385 6.855
1224.901 7.865 9.145 10.305 11.105 11.025 10.005 8.815 7.565 6.425 5.435
1244.191 4.835 4.495 4.255 3.915 3.545 3.505 3.425 3.155 2.975 2.955
1263.481 2.535 2.135 2.145 2.045 2.015 1.955 1.885 1.875 1.855 1.935
1282.771 1.975 2.115 2.145 2.115 2.305 2.425 2.595 2.785 3.065 3.525
1302.060 3.855 3.925 3.945 3.975 3.895 3.695 3.495 3.435 3.485 3.625
1321.350 3.735 3.865 4.105 4.525 4.955 5.445 6.345 7.505 8.955 10.955
1340.640 13.515 16.575 19.965 23.505 26.755 29.095 30.285 30.145 28.555 25.545
1359.930 21.515 17.355 13.385 9.915 7.335 5.665 4.685 4.095 3.785 3.595
1379.219 3.465 3.325 3.255 3.115 3.005 2.985 2.985 3.005 2.995 3.125
1398.509 3.255 3.315 3.465 3.575 3.635 3.695 3.715 3.745 3.935 4.165
1417.799 4.455 4.855 5.415 6.155 7.045 8.095 9.535 11.365 13.785 16.915
1437.089 21.215 26.995 34.945 45.505 59.125 75.795 94.695 113.675 130.175 140.775
1456.378 143.265 137.435 123.995 104.845 83.565 63.445 48.085 37.695 31.415 28.145
1475.668 27.455 28.565 30.725 33.225 35.345 36.235 35.525 33.215 29.615 25.365
1494.958 21.065 17.075 14.015 11.835 10.245 9.055 7.985 7.075 6.435 6.115
1514.248 5.945 5.765 5.645 5.575 5.575 5.615 5.785 6.125 6.415 6.705
1533.538 7.085 7.275 7.345 7.415 7.525 7.605 7.535 7.415 7.375 7.375
1552.827 7.315 7.375 7.555 7.895 8.685 9.595 10.685 12.055 13.705 15.465
1572.117 17.095 18.285 18.805 18.725 17.925 16.575 14.925 13.085 11.255 9.595
1591.407 8.025 6.615 5.425 4.575 3.965 3.445 3.175 2.955 2.775 2.655
1610.697 2.535 2.445 2.285 2.115 1.915 1.755 1.735 1.685 1.6226 1.5562
1629.986 1.4714 1.4091 1.2867 1.1941 1.1764 1.2977 1.3685 1.2502 1.27 1.3431
1649.276 1.3721 1.3725 1.372 1.4556 1.5802 1.5885 1.5128 1.5015 1.5879 1.6324
1668.566 1.6188 1.5904 1.5327 1.5534 1.5195 1.4405 1.4462 1.4787 1.4199 1.4403
1687.856 1.5235 1.4733 1.4573 1.4806 1.4579 1.457 1.4978 1.4395 1.408 1.5311
1707.146 1.6383 1.725 1.765 1.865 2.005 2.165 2.345 2.545 2.805 3.085
1726.435 3.305 3.575 3.925 4.185 4.385 4.515 4.495 4.375 4.265 4.025
1745.725 3.755 3.485 3.225 2.955 2.755 2.685 2.585 2.515 2.535 2.605
1765.015 2.675 2.645 2.645 2.755 2.835 2.845 2.795 2.795 2.805 2.795
1784.305 2.875 2.955 3.005 3.055 3.015 3.035 3.125 3.205 3.275 3.305
1803.594 3.445 3.665 3.845 3.965 4.065 4.185 4.265 4.325 4.365 4.405
1822.884 4.425 4.435 4.335 4.185 4.085 4.025 3.895 3.755 3.745 3.635
1842.174 3.545 3.495 3.405 3.445 3.435 3.355 3.395 3.415 3.435 3.485
1861.464 3.525 3.635 3.755 3.795 3.905 4.115 4.295 4.495 4.725 4.945
1880.754 5.245 5.495 5.755 6.145 6.465 6.845 7.315 7.705 8.185 8.735
1900.043 9.305 9.985 10.715 11.475 12.275 13.225 14.235 15.225 16.345 17.495
1919.333 18.715 20.105 21.575 23.085 24.795 26.645 28.535 30.545 32.735 35.185
1938.623 37.615 40.135 42.945 45.955 49.185 52.655 56.395 60.485 64.975 69.855
1957.913 75.075 80.555 86.205 92.005 97.905 103.655 109.275 114.865 120.045 124.965
1977.202 129.825 134.575 139.205 143.895 148.795 154.025 159.745 166.005 172.945 180.435
1996.492 188.255 196.385 204.905 213.605 222.345 231.525 241.355 252.125 264.175 277.815
2015.782 293.495 311.635 332.285 355.615 381.565 409.655 438.505 466.665 491.805 510.125
2035.072 518.555 515.585 501.165 476.965 446.105 411.765 376.175 341.815 310.555 283.195
2054.362 259.765 240.165 224.645 212.935 204.695 199.405 196.585 195.835 196.705 198.835
2073.651 201.745 204.835 207.575 209.745 210.815 210.855 210.135 208.685 206.875 204.855
2092.941 202.905 201.025 198.745 196.155 192.885 188.555 183.535 177.905 171.745 165.175
2112.231 158.595 152.305 146.125 140.075 134.065 127.845 121.325 114.485 107.195 99.655
2131.521 92.015 84.465 77.325 70.615 64.455 58.935 54.195 50.065 46.405 43.255
2150.810 40.565 38.255 36.205 34.255 32.665 31.305 29.975 28.595 27.195 25.785
2170.100 24.425 23.155 21.835 20.565 19.375 18.175 17.065 16.105 15.125 14.165
2189.390 13.355 12.605 11.905 11.355 10.855 10.335 9.895 9.675 9.385 9.025
2208.680 8.805 8.635 8.465 8.455 8.435 8.335 8.385 8.415 8.545 8.695
2227.970 8.795 8.905 9.045 9.235 9.405 9.685 9.995 10.285 10.495 10.575
2247.259 10.545 10.365 10.005 9.485 8.845 8.025 7.275 6.575 5.875 5.315
2266.549 4.865 4.555 4.325 4.045 3.845 3.725 3.605 3.465 3.335 3.215
2285.839 3.165 3.115 3.035 3.055 3.025 2.945 2.895 2.975 3.015 2.935
2305.129 2.955 3.055 3.125 3.105 3.155 3.195 3.225 3.495 3.705 3.675
2324.418 3.635 3.755 3.965 4.055 4.135 4.305 4.395 4.425 4.585 4.685
2343.708 4.655 4.615 4.535 4.465 4.345 4.215 4.035 3.785 3.655 3.645
2362.998 3.605 3.565 3.565 3.515 3.555 3.595 3.565 3.635 3.645 3.605
2382.288 3.655 3.625 3.585 3.565 3.575 3.505 3.295 3.215 3.215 3.075
2401.578 2.935 2.845 2.735 2.665 2.555 2.485 2.475 2.345 2.295 2.345
2420.867 2.395 2.425 2.455 2.505 2.555 2.665 2.735 2.715 2.765 2.875
2440.157 2.835 2.775 2.785 2.675 2.565 2.645 2.575 2.465 2.475 2.465
2459.447 2.435 2.435 2.375 2.285 2.375 2.495 2.565 2.655 2.705 2.765
2478.737 2.835 2.915 2.985 3.045 3.125 3.175 3.215 3.325 3.475 3.555
2498.026 3.615 3.625 3.725 3.845 3.875 3.915 4.015 4.055 4.025 4.065
2517.316 4.035 4.015 4.055 4.095 4.085 4.065 4.065 4.075 4.165 4.235
2536.606 4.235 4.255 4.335 4.425 4.415 4.375 4.375 4.345 4.305 4.305
2555.896 4.225 4.005 3.975 3.975 3.855 3.805 3.735 3.625 3.495 3.505
2575.186 3.625 3.575 3.615 3.695 3.565 3.575 3.695 3.775 3.815 3.925
2594.475 4.115 4.275 4.425 4.635 4.845 5.005 5.125 5.145 5.105 5.215
2613.765 5.235 4.945 4.785 4.645 4.435 4.285 4.165 4.075 3.835 3.605
2633.055 3.525 3.385 3.275 3.265 3.155 3.115 3.175 3.085 3.015 3.245
2652.345 3.425 3.435 3.485 3.525 3.625 3.765 3.905 4.115 4.295 4.295
2671.634 4.265 4.365 4.415 4.375 4.395 4.495 4.535 4.455 4.355 4.215
2690.924 4.085 4.095 4.135 4.045 3.935 3.855 3.815 3.815 3.805 3.695
2710.214 3.565 3.555 3.505 3.465 3.325 3.195 3.045 2.965 2.945 2.825
2729.504 2.715 2.615 2.505 2.435 2.335 2.225 2.235 2.195 2.115 2.105
2748.794 2.165 2.285 2.215 2.055 2.145 2.285 2.295 2.185 2.145 2.115
2768.083 2.105 2.105 1.955 1.905 1.975 1.895 1.795 1.775 1.775 1.675
2787.373 1.5756 1.5708 1.5383 1.5597 1.6244 1.6341 1.519 1.4189 1.4333 1.4016
2806.663 1.3468 1.4557 1.5243 1.4695 1.4086 1.447 1.4218 1.4039 1.4936 1.45
2825.953 1.4099 1.4297 1.4876 1.5928 1.5321 1.3663 1.507 1.695 1.835 1.915
2845.242 1.885 1.895 1.915 2.025 2.025 2.065 2.135 2.065 2.165 2.335
2864.532 2.405 2.415 2.305 2.325 2.295 2.165 2.135 2.085 2.175 2.185
2883.822 2.075 1.965 1.825 1.815 1.815 1.815 1.835 1.695 1.5877 1.5895
2903.112 1.665 1.6224 1.5781 1.655 1.715 1.715 1.755 1.875 1.815 1.725
2922.401 1.775 1.895 2.045 2.065 2.035 1.955 1.985 2.085 2.015 1.975
2941.691 1.885 1.925 1.955 1.905 1.855 1.705 1.6132 1.5877 1.4813 1.4022
2960.981 1.4745 1.408 1.3836 1.564 1.6088 1.5274 1.4435 1.4326 1.4259 1.404
2980.271 1.3149 1.1651 1.1011 1.167 1.2517 1.2419 1.1964 1.2606 1.2792 1.2567
2999.561 1.3119 1.3819 1.3319 1.2566 1.2645 1.3161 1.4145 1.4171 1.3364 1.3287
3018.850 1.3127 1.3041 1.3816 1.3721 1.352 1.2898 1.2407 1.226 1.1877 1.0898
3038.140 1.0988 1.1579 1.0247 1.0046 0.9681 0.9224 1.0081 1.0273 1.0026 1.0144
3057.430 0.9535 0.8756 0.8516 0.8527 0.9022 0.9021 1.0024 0.9583 0.8445 0.8802
3076.720 0.8366 0.8304 0.8968 1.0087 1.1323 1.2025 1.1417 1.2103 1.5071 1.6086
3096.009 1.55 1.5626 1.4855 1.3062 1.1248 0.9411 0.9681 0.8689 0.7242 0.73667
3115.299 0.637 0.455 0.34 0.418 0.351 0.266 0.32 0.199 0.155 0.315
3134.589 0.223 0.056 0.128 0.24 0.185 0.139 0.287 0.354 0.426 0.476
3153.879 0.413 0.363 0.165 0.106 0.297 0.35 0.359 0.358 0.354 0.361
3173.169 0.348 0.312 0.106 0.182 0.294 0.254 0.33 0.235 0.119 0.142
3192.458 0.099 0.145 0.386 0.511 0.488 0.4 0.289 0.369 0.497 0.386
3211.748 0.273 0.178 0.169 0.264 0.22 0.264 0.271 0.356 0.453 0.416
3231.038 0.289 0.211 0.311 0.292 0.243 0.282 0.289 0.188 0.129 0.182
3250.328 0.286 0.459 0.397 0.262 0.225 0.224 0.234 0.256 0.399 0.421
3269.617 0.219 0.082 0.214 0.319 0.363 0.403 0.453 0.488 0.305 0.25
3288.907 0.428 0.46 0.349 0.287 0.327 0.434 0.419 0.266 0.178 0.302
3308.197 0.369 0.181 0 0.08 0.234 0.327 0.382 0.368 0.219 0.176
3327.487 0.31 0.284 0.337 0.391 0.251 0.209 0.336 0.373 0.367 0.315
3346.777 0.365 0.365 0.197 0.215 0.369 0.365 0.25 0.279 0.389 0.369
3366.066 0.426 0.408 0.354 0.454 0.365 0.295 0.367 0.392 0.399 0.385
3385.356 0.488 0.516 0.471 0.506 0.436 0.431 0.374 0.256 0.29 0.31
3404.646 0.472 0.5655 0.427 0.332 0.333 0.351 0.347 0.379 0.233 0.2
3423.936 0.293 0.374 0.5682 0.436 0.247 0.259 0.308 0.445 0.43 0.286
3443.225 0.273 0.312 0.398 0.49 0.545 0.547 0.51 0.507 0.53 0.486
3462.515 0.476 0.467 0.362 0.319 0.231 0.279 0.376 0.49 0.52 0.505
3481.805 0.453 0.336 0.37 0.461 0.6166 0.6048 0.5736 0.6027 0.413 0.296
3501.095 0.258 0.386 0.537 0.474 0.497 0.434 0.334 0.436 0.431 0.335
3520.385 0.341 0.172 0.098 0.234 0.203 0.296 0.295 0.137 0.227 0.351
3539.674 0.452 0.395 0.362 0.355 0.168 0.136 0.273 0.405 0.374 0.323
3558.964 0.413 0.51 0.554 0.43 0.322 0.328 0.347 0.359 0.392 0.406
3578.254 0.345 0.395 0.541 0.468 0.36 0.446 0.427 0.286 0.227 0.348
3597.544 0.456 0.533 0.437 0.445 0.5687 0.434 0.362 0.409 0.292 0.333
3616.833 0.465 0.459 0.477 0.42 0.387 0.36 0.438 0.551 0.395 0.317
3636.123 0.319 0.245 0.41 0.496 0.454 0.418 0.281 0.41 0.485 0.365
3655.413 0.342 0.432 0.529 0.398 0.283 0.358 0.44 0.363 0.225 0.316
3674.703 0.507 0.473 0.464 0.561 0.6331 0.508 0.308 0.352 0.404 0.516
3693.993 0.6458 0.56 0.37 0.387 0.465 0.428 0.562 0.479 0.369 0.509
3713.282 0.416 0.411 0.6107 0.65684 0.401 0.309 0.414 0.387 0.491 0.5794
3732.572 0.561 0.5998 0.6399 0.6192 0.523 0.5682 0.69636 0.645 0.6542 0.72329
3751.862 0.69682 0.7754 0.74169 0.5881 0.74354 0.8587 0.7058 0.532 0.5651 0.509
3771.152 0.456 0.5908 0.6389 0.68334 0.68434 0.6397 0.72185 0.69793 0.521 0.554
3790.441 0.69055 0.6214 0.5874 0.6546 0.5715 0.75934 0.8057 0.628 0.665622 0.647
3809.731 0.6132 0.524 0.477 0.517 0.562 0.469 0.393 0.49 0.547 0.5742
3829.021 0.5742 0.625 0.5867 0.5902 0.669246 0.5677 0.5766 0.71574 0.68598 0.613
3848.311 0.6539 0.6768 0.7651 0.74528 0.527 0.416 0.531 0.68707 0.67704 0.549
3867.601 0.6016 0.76438 0.8543 0.8327 0.7949 0.7946 0.8009 0.73811 0.6192 0.62
3886.890 0.6468 0.7723 0.8766 0.9029 0.9262 0.8794 0.8561 0.9399 1.0019 0.9783
3906.180 0.9419 1.0593 1.1889 1.2306 1.2264 1.1496 1.1371 1.1385 1.3007 1.4089
3925.470 1.4062 1.512 1.3223 1.1473 1.4081 1.4961 1.4006 1.5244 1.665 1.5785
3944.760 1.3627 1.3395 1.3319 1.2005 1.1632 1.238 1.3061 1.5555 1.675 1.6176
3964.049 1.675 1.6283 1.6526 1.675 1.5379 1.463 1.6508 1.6607 1.6558 1.735
3983.339 1.715 1.5849 1.5352 1.715 1.705 1.685 1.5963 1.705 1.895 1.855
##END=
