##TITLE=4-Chloro-3-trifluoromethylphenyl isothiocyanate
##JCAMP-DX=4.24
##DATA TYPE=INFRARED SPECTRUM
##ORIGIN=EPA-IR VAPOR PHASE LIBRARY
##OWNER=SRD/NIST
Collection (C) 2018 copyright by the U.S. Secretary of Commerce
on behalf of the United States of America. All rights reserved.
##CAS REGISTRY NO=23163-86-2
##MOLFORM=C 8 H 3 Cl F 3 N S
##$NIST SOURCE=MSDC-IR
##STATE=gas
##XUNITS=1/CM
##YUNITS=ABSORBANCE
##XFACTOR=1.
##YFACTOR=0.001
##DELTAX=1.92898
##FIRSTX=549.8
##LASTX=4000.7
##FIRSTY=4.59
##MAXX=4000.7
##MINX=549.759
##MAXY=0.55686
##MINY=0
##NPOINTS=1790
##XYDATA=(X++(Y..Y))
549.759 4.59 3.51 3.15 3.23 3.18 3.01 3.87 4.36 4.26 5.05
569.049 6.22 6.7 6.81 7.51 7.37 7.48 7.73 7.65 7.41 7.25
588.339 8.42 8.84 8.71 9.37 9.42 9.09 9.65 10.05 10.07 9.6
607.628 8.81 8.51 8.18 8.16 7.67 7.27 7.26 6.99 6.52 5.53
626.918 5.07 4.46 3.64 3.08 2.4 1.5344 1.123 1.77 2.13 2.03
646.208 2.23 2.54 2.89 3.85 5 6.2 8.38 12.33 18.49 26.52
665.498 33.67 37.58 39.23 38.55 34.38 27.1 19.36 13.15 9.27 7.11
684.787 5.53 4.43 3.62 3.35 3.47 3.2 2.89 2.99 3 2.82
704.077 2.74 2.3 2.12 2.4 2.12 2.28 2.98 3.68 4.42 6.31
723.367 9.49 12.59 15.37 17.25 17.36 16.35 14.22 10.9 7.74 5.54
742.657 3.76 2.56 2.05 2.01 2.31 2.14 2.14 2.22 2.42 2.51
761.947 2.54 2.93 2.83 2.42 2.28 2.37 2.4 2.49 2.47 2.63
781.236 3.22 3.72 3.61 3.58 4.42 5.13 5.62 6.63 7.86 9.28
800.526 11.25 13.45 15.57 17.59 19.69 21.43 23.06 25.79 29.34 32.65
819.816 36.39 39.66 43.1 44.31 38.33 31.57 25.96 19.73 14.65 10.43
839.106 7.24 5.19 4.18 3.38 2.98 3.02 2.89 3.2 3.52 3.37
858.395 3.27 3.19 3.13 3.14 2.87 2.72 2.75 3.18 3.7 4.4
877.685 5.57 6.89 9.5 13.01 16.54 20.4 24.35 28.28 31.37 31.46
896.975 27.92 23.36 19.49 15.58 11.75 8.95 6.75 5.1 4.33 3.99
916.265 3.83 3.94 3.96 3.93 4.16 4.46 4.44 4.21 4.39 4.8
935.555 4.85 4.53 4.52 4.81 4.82 4.69 5.06 5.63 6.23 6.6
954.844 7.05 7.87 9.44 11.48 13.76 16.36 19.09 21.46 23.14 24.22
974.134 24.3 22.89 20.53 18.34 15.69 12.88 11.22 9.93 8.51 7.62
993.424 6.89 6.03 5.66 5.52 5.06 4.8 4.76 4.89 5.29 5.58
1012.714 5.89 6.77 7.74 8.88 11.29 14.24 17.3 21.68 27.17 34.01
1032.003 41.85 49.78 54.87 55.32 54.01 51.21 44.45 34.54 25.29 17.66
1051.293 12.89 10.28 7.77 5.94 5.21 5.15 5 4.75 4.46 5.05
1070.583 6.2 6.87 6.71 6.65 7.41 8.69 10.11 9.45 9.22 10.16
1089.873 10.46 12.4 14.67 17.31 22.46 29.63 38.43 49.28 61.66 74.54
1109.163 83.78 87.33 85.45 76.27 63.78 52.84 45.47 42.36 41.99 43.73
1128.452 47.24 50.07 53.05 55.31 55.63 55 53.84 56.07 62.66 70.82
1147.742 80.61 92.74 108.76 127.32 146.92 168.41 190.66 212.38 232.73 250.27
1167.032 262.7 268.13 265.79 260.42 257.35 255.77 250.46 238.59 221.96 199.57
1186.322 173.98 149.18 124.81 104.6 88.5 74.58 64.32 56.7 49.68 43.97
1205.611 39.56 35.62 33.19 31.65 30.1 29.7 31.77 34.32 36.81 40.89
1224.901 47.38 55.77 66.01 76.3 84.65 90.05 93.11 93.38 89.68 83.63
1244.191 76.92 70.65 64.87 59.15 53.64 49.02 45.27 41.85 39.54 38.43
1263.481 37.9 38.05 38.91 40.05 40.98 41.59 41.46 40.54 38.47 35.34
1282.771 32.33 29.99 28.34 27.27 27.46 29.25 31.85 35.14 39.81 46.61
1302.060 55.99 68.93 87.18 111.96 144.37 183.31 224.07 258.64 277.48 276.64
1321.350 256.88 220.52 172.18 121.44 80.01 52.77 36.81 27.62 22.35 19.28
1340.640 17.48 16.33 15.28 14.53 14 13.25 12.39 11.37 10.23 9.12
1359.930 8.08 7.26 6.56 6.12 5.95 5.65 5.6 5.9 6.08 6.3
1379.219 6.69 7.26 8.17 9.2 10.48 12.51 15.48 19.57 25.2 32.43
1398.509 40.91 50.24 59.34 67.44 74.04 79.63 84.54 88.69 91.65 92.63
1417.799 90.35 84.24 74.82 62.32 48.84 37.59 29.25 23.64 20 17.67
1437.089 15.91 14.82 14.37 14.32 14.6 15.3 16.34 17.32 18.23 19.3
1456.378 20.84 23.02 26.29 31.37 38.6 49.03 62.31 77.15 91.35 102.54
1475.668 108.1 107.83 101.65 90.16 76.06 62.49 50.77 41.09 33.06 26.44
1494.958 21.04 16.91 13.76 11.3 9.51 8.23 7.1 6.19 5.61 5.16
1514.248 4.86 4.73 4.69 4.55 4.41 4.19 4.02 3.89 3.7 3.83
1533.538 4.06 4.11 4.18 4.26 4.41 4.49 4.77 5.06 5.12 5.25
1552.827 5.51 6.01 6.75 7.51 8.79 10.14 11.59 13.47 14.89 15.53
1572.117 15.88 15.61 14.54 13.13 11.77 10.72 10.02 9.79 10.11 10.78
1591.407 11.94 13.4 14.72 16.24 17.55 17.98 17.5 16.26 14.48 12.46
1610.697 10.32 8.59 7.55 6.72 6.21 5.84 5.6 5.42 4.91 4.41
1629.986 4.18 4.02 3.89 3.83 3.88 3.85 3.91 4.23 4.43 4.46
1649.276 4.32 4 3.79 3.63 3.26 2.88 2.59 2.4 2.15 2.1
1668.566 2.16 2.13 2.08 2.11 2.25 2.25 2.26 2.23 2.35 2.52
1687.856 2.5 2.39 2.38 2.58 2.81 2.86 2.95 2.96 2.68 2.61
1707.146 2.63 2.64 2.62 2.51 2.57 2.66 2.69 2.64 2.72 2.82
1726.435 2.9 3.07 3.05 3.03 3.17 2.9 2.82 3.21 3.25 3.33
1745.725 3.54 3.63 3.68 3.67 3.65 3.7 3.67 3.69 3.79 3.87
1765.015 4.04 4.41 4.76 5.08 5.47 5.68 5.95 6.37 6.55 6.61
1784.305 6.73 6.51 6.15 5.98 5.68 5.26 4.96 4.73 4.49 4.24
1803.594 4.08 3.96 3.85 3.84 3.88 3.83 3.8 3.75 3.79 3.88
1822.884 3.86 3.75 3.77 3.9 3.92 3.92 3.91 4.02 4.25 4.32
1842.174 4.31 4.34 4.4 4.41 4.45 4.54 4.54 4.57 4.7 4.99
1861.464 5.35 5.54 5.61 5.84 6.26 6.72 7.05 7.39 7.87 8.46
1880.754 9.04 9.68 10.49 11.33 12.17 13.08 14.09 15.08 16.13 17.26
1900.043 18.28 19.15 20.06 20.99 22.12 23.33 24.47 25.95 27.8 29.96
1919.333 32.3 34.94 37.84 40.95 44.43 48.07 51.85 55.75 59.8 63.89
1938.623 67.7 71.24 74.61 77.88 81.43 84.78 87.76 91.04 94.36 97.85
1957.913 101.43 105.08 109.22 113.66 118.4 123.69 129.7 136.55 144.15 152.52
1977.202 161.79 172.16 183.53 195.36 207.53 219.99 232.42 244.2 255.24 265.81
1996.492 275.77 285.03 293.61 301.44 309.1 317.2 326.36 337.12 350.51 367.98
2015.782 389.33 415.61 447.4 482.1 515.97 543.13 556.86 553.94 534.29 499.8
2035.072 456.28 409.67 364.16 322.54 286.56 256.7 232.87 214.99 202.58 195.51
2054.362 193.14 195.11 200.78 209.82 222.28 237.23 253.65 271.59 289.91 306.44
2073.651 319.98 329.57 334.22 333.35 327.07 315.9 300.72 281.97 261.3 240.39
2092.941 219.74 200.11 182.16 166.46 153.06 141.69 132.42 125.32 119.85 115.66
2112.231 112.51 109.99 108.1 106.59 105.09 103.79 102.47 100.86 98.58 95.96
2131.521 93.02 89.16 84.54 79.35 74.07 68.72 63.27 58.18 53.69 49.55
2150.810 45.62 42.33 39.57 37.11 34.88 32.74 30.91 29.4 27.98 26.68
2170.100 25.52 24.55 23.53 22.52 21.87 21.27 20.67 20.23 20.09 20.08
2189.390 20.16 20.39 20.7 21.3 21.82 22.31 22.96 23.5 23.88 24.04
2208.680 23.8 23.2 22.53 21.51 20.18 18.56 16.8 15.47 14.1 12.63
2227.970 11.72 11.1 10.35 9.69 9.17 8.65 8.14 7.73 7.55 7.37
2247.259 6.97 6.79 6.69 6.28 5.92 5.72 5.58 5.33 5.08 4.97
2266.549 4.9 4.7 4.57 4.5 4.43 4.41 4.38 4.59 4.63 4.43
2285.839 4.59 4.71 4.62 4.51 4.41 4.21 3.99 3.84 3.66 3.73
2305.129 3.79 3.59 3.32 3.35 3.54 3.57 3.56 3.58 3.64 3.78
2324.418 4 4.03 4.02 4.24 4.32 4.34 4.43 4.41 4.42 4.76
2343.708 5.05 4.93 5 5.25 5.41 5.35 5.26 5.44 5.67 5.64
2362.998 5.48 5.44 5.38 5.29 5.3 5.04 4.66 4.58 4.54 4.43
2382.288 4.27 4.31 4.33 3.99 3.82 3.95 4.08 4.02 4.11 4.42
2401.578 4.4 4.36 4.28 4.3 4.36 4.07 3.96 3.93 3.79 3.77
2420.867 3.7 3.44 3.24 3.36 3.51 3.29 3.2 3.17 3.15 3.39
2440.157 3.62 3.59 3.41 3.4 3.4 3.44 3.61 3.72 3.79 3.77
2459.447 3.82 4 3.95 3.9 3.95 3.84 3.85 3.81 3.79 3.68
2478.737 3.5 3.56 3.55 3.42 3.49 3.54 3.37 3.2 3.26 3.38
2498.026 3.45 3.55 3.63 3.6 3.51 3.76 3.91 3.76 3.89 3.93
2517.316 3.92 3.99 4.03 3.95 3.89 3.73 3.8 4.04 4.05 4.18
2536.606 4.18 4.05 4.01 4 4.02 4.24 4.46 4.35 4.32 4.28
2555.896 4.29 4.44 4.36 4.18 4.18 4.38 4.37 4.23 4.28 4.45
2575.186 4.3 4.27 4.4 4.51 4.69 4.69 4.76 4.98 4.97 4.92
2594.475 5 5 5.15 5.16 5.24 5.46 5.46 5.49 5.6 5.97
2613.765 6 5.93 6.1 6.25 6.42 6.44 6.56 6.81 7 6.89
2633.055 7.03 7.33 7.07 6.87 6.86 6.8 6.6 6.64 6.72 6.22
2652.345 6.01 6.03 5.68 5.22 4.97 4.8 4.4 3.93 3.76 3.5
2671.634 3.21 3.26 3.19 3.04 3.15 3.05 2.82 2.71 2.84 2.91
2690.924 2.95 2.96 2.82 2.83 2.98 3.14 3.12 3.02 2.97 2.87
2710.214 2.84 2.58 2.4 2.45 2.48 2.53 2.56 2.46 2.4 2.48
2729.504 2.66 2.68 2.41 2.2 2.22 2.37 2.32 2.28 2.35 2.28
2748.794 2.38 2.48 2.39 2.39 2.47 2.76 2.66 2.43 2.59 2.6
2768.083 2.53 2.38 2.18 2.29 2.35 2.14 2 2.23 2.29 2.39
2787.373 2.66 2.72 2.75 2.75 2.77 2.83 2.96 3.3 3.31 3.13
2806.663 3.18 3.26 3.19 3.25 3.44 3.27 3.23 3.31 3.38 3.27
2825.953 3.09 3.39 3.5 3.51 3.46 3.33 3.48 3.47 3.39 3.37
2845.242 3.18 2.99 3.09 3.07 2.87 2.7 2.39 2.26 2.29 2.45
2864.532 2.61 2.34 2.2 2.03 1.8 2 2.14 2.18 2.29 2.18
2883.822 2.08 2.37 2.66 2.53 2.26 2.16 2.21 2.37 2.55 2.37
2903.112 2.24 2.28 2.16 2.31 2.39 2.28 2.09 2 2.06 2.33
2922.401 2.49 2.22 2.03 2.09 2.06 2.24 2.36 2.01 1.99 2.01
2941.691 1.88 2.09 2.3 2.06 1.96 2.23 2.25 2.12 2.12 2.14
2960.981 1.92 2.05 2.41 2.25 2.16 2.39 2.21 2.22 2.41 2.38
2980.271 2.27 2.15 2.26 2.07 2.25 2.49 2.25 2.3 2.23 2.29
2999.561 2.67 2.63 2.35 2.2 2.28 2.49 2.29 1.99 1.92 2.26
3018.850 2.37 2.15 2.13 1.91 1.95 1.88 1.78 1.83 1.84 1.89
3038.140 1.99 2.12 2.03 1.97 2.31 2.71 2.74 2.42 2.19 2.17
3057.430 2 1.89 1.75 1.87 1.87 1.72 1.71 1.87 2.19 2.31
3076.720 2.48 2.76 2.86 2.86 2.63 2.57 2.54 2.64 2.62 2.04
3096.009 2.06 2.28 1.94 1.84 1.98 1.96 1.89 1.58 1.3326 1.0393
3115.299 1.1037 1.4479 1.2427 0.819 0.8973 1.2711 1.0844 0.8227 1.045 1.0467
3134.589 0.7338 0.6755 0.59202 0.8086 0.9618 0.6578 0.6827 0.7344 0.6504 0.7072
3153.879 0.958 0.9132 0.8253 0.8214 0.58506 0.5303 0.365 0.187 0.222 0.4701
3173.169 0.6361 0.58712 0.4749 0.63526 0.8018 0.58578 0.60876 0.7736 0.7603 0.8321
3192.458 0.8836 0.60603 0.5259 0.5164 0.7876 0.8442 0.7451 0.7399 0.4889 0.9057
3211.748 1.2207 0.7599 0.5903 0.7109 0.7158 0.6949 0.5297 0.336 0.426 0.8726
3231.038 0.8531 0.4633 0.259 0.63349 0.6739 0.346 0.438 0.382 0.6841 1.0797
3250.328 0.979 0.60225 0.434 0.231 0.248 0.5635 0.62572 0.63706 0.7206 0.7679
3269.617 0.6979 0.4606 0.299 0.4862 0.58014 0.5 0.551291 0.62239 0.64482 0.4553
3288.907 0.331 0.509 0.59573 0.371 0.321 0.347 0.57089 0.4518 0.105 0.5168
3308.197 0.847 0.6668 0.5124 0.7618 0.8522 0.4845 0.194 0.261 0.6654 0.9443
3327.487 0.8436 0.855 0.56285 0.394 0.5162 0.56224 0.7741 0.7806 0.60599 0.4828
3346.777 0.399 0.394 0.4688 0.283 0.159 0.56649 0.4868 0.241 0.5387 0.551217
3366.066 0.237 0.206 0.261 0.443 0.4612 0.54066 0.443 0.4735 0.6528 0.6194
3385.356 0.7067 0.4579 0.296 0.26 0.56108 0.8522 0.6882 0.54893 0.63413 0.56984
3404.646 0.5255 0.8351 1.18 1.0325 0.76 0.8797 0.7079 0.62735 0.321 0.3
3423.936 0.7951 0.9811 1.0155 0.6575 0.396 0.7473 1.2626 1.2413 1.0644 0.694
3443.225 0.6586 0.6841 0.6753 0.8806 0.6536 0.7285 0.8892 0.8146 1.1597 1.4193
3462.515 1.1886 0.8719 0.854 0.7901 0.7899 0.83 0.58256 0.5378 0.6527 0.7967
3481.805 1.0488 0.8644 0.37 0.6676 0.7755 0.8014 1.0682 0.817 0.7464 0.9584
3501.095 1.0049 0.9228 0.712 0.8871 1.1856 0.87 0.9147 1.0291 0.61573 0.5436
3520.385 0.8554 1.0903 1.0912 0.7262 0.353 0.54636 0.58218 0.7078 1.1001 0.8782
3539.674 0.5734 0.4818 0.4616 0.231 0.56301 0.8435 0.7146 0.8193 0.7914 0.7268
3558.964 0.551054 0.284 0.174 0.64542 1.1089 0.86 0.4784 0.5254 0.7124 0.6931
3578.254 0.7251 0.138 0.121 0.4611 0.64314 0.882 0.7463 0.7724 0.419 0.255
3597.544 0.153 0 0.44 0.681 0.57516 0.6835 0.6259 0.419 0.252 0.206
3616.833 0.7511 1.1822 1.0145 0.7005 0.613 0.8504 0.898 1.0696 1.1214 1.1623
3636.123 1.1829 0.9506 0.6957 0.7472 0.7961 0.6942 0.9953 0.9427 0.8197 0.6794
3655.413 0.4762 0.60837 0.685 0.8719 1.2213 1.1591 0.8764 0.7438 0.9489 1.2658
3674.703 1.2098 1.008 1.0574 0.9954 0.62688 0.4501 0.7474 0.921 0.7401 0.7886
3693.993 0.54608 0.623 0.8321 0.6829 0.7611 0.911 1.1269 0.9313 0.7323 0.9107
3713.282 0.877 0.7837 0.7124 0.60998 0.8475 1.1018 0.8915 0.4921 0.5008 0.8636
3732.572 0.9193 0.7801 0.8034 0.8878 0.9762 1.1069 0.916 0.901 1.0766 1.0539
3751.862 1.1661 1.091 1.1798 1.3734 1.3077 1.1986 0.9608 0.7897 0.9418 1.222
3771.152 1.2666 1.2262 1.1833 1.4286 1.5437 1.1015 1.0336 1.3033 1.227 1.1099
3790.441 0.9476 0.62595 0.57414 0.59941 0.6872 0.9144 1.101 0.9173 0.7601 0.54743
3809.731 0.413 0.5381 1.0692 1.58 1.009 0.7716 0.795 0.7388 1.2403 1.2193
3829.021 0.9584 0.8213 0.63424 0.9736 1.4069 1.4465 1.5398 1.3781 1.2052 1.3174
3848.311 1.1755 1.1973 1.2824 1.227 1.4452 1.2238 0.9604 1.1575 1.4956 1.3766
3867.601 1.1882 1.1851 0.9576 0.9728 1.2876 1.3934 1.2287 1.5119 1.82 1.93
3886.890 1.82 1.7 1.3132 1.2326 1.5236 1.65 1.5473 1.497 1.83 2
3906.180 1.96 1.5221 1.3153 1.59 1.95 1.73 1.3844 1.74 1.74 1.56
3925.470 1.6 1.66 1.85 1.99 1.75 1.68 1.92 2.01 2.01 2.15
3944.760 2.28 2.09 2.02 2.15 2.09 2.48 2.62 2.32 2.53 2.44
3964.049 2.02 2.36 2.58 2.25 2.54 2.25 1.83 2.27 2.48 2.49
3983.339 2.56 2.55 2.41 2.3 2.55 2.72 2.66 2.4 2.38 2.73
##END=
