##TITLE=Allylpentyl ether
##JCAMP-DX=4.24
##DATA TYPE=INFRARED SPECTRUM
##ORIGIN=NIST Mass Spectrometry Data Center
##OWNER=NIST Standard Reference Data Program
Collection (C) 2018 copyright by the U.S. Secretary of Commerce
on behalf of the United States of America. All rights reserved.
##CAS REGISTRY NO=23186-70-1
##MOLFORM=C 8 H 16 O
##$NIST SOURCE=MSDC-IR
##SPECTROMETER/DATA SYSTEM=HP-GC/MS/IRD
##STATE=gas
##XUNITS=1/CM
##YUNITS=ABSORBANCE
##XFACTOR=1.0
##YFACTOR=0.000002900
##DELTAX=4.0
##FIRSTX=550.0
##LASTX=3846.0
##FIRSTY=0.000815
##MAXX=3846
##MINX=550
##MAXY=0.029
##MINY=0
##NPOINTS=825
##XYDATA=(X++(Y..Y))
550.0 281 220 163 138 105 112 70 40 63 78
590.0 73 66 79 75 77 83 92 97 110 123
630.0 107 95 85 100 113 89 55 53 42 22
670.0 39 59 44 20 12 17 9 7 30 48
710.0 50 64 90 102 116 126 139 141 114 95
750.0 100 91 80 88 95 96 102 86 65 77
790.0 80 69 51 50 58 48 43 59 68 79
830.0 103 115 123 142 168 191 217 240 270 305
870.0 342 380 430 486 529 591 692 812 966 1179
910.0 1455 1801 2160 2380 2384 2204 1905 1596 1384 1248
950.0 1162 1121 1098 1103 1144 1195 1283 1384 1501 1617
990.0 1706 1769 1784 1763 1709 1644 1574 1510 1448 1387
1030.0 1368 1368 1397 1463 1608 1829 2087 2368 2654 2942
1070.0 3218 3549 4003 4595 5363 6272 7177 7951 8464 8607
1110.0 8419 7992 7420 6778 6141 5541 4985 4496 4052 3588
1150.0 3123 2662 2198 1766 1417 1166 974 818 708 638
1190.0 596 566 540 536 551 565 576 580 574 576
1230.0 594 593 601 606 603 602 626 661 692 718
1270.0 723 721 714 702 683 668 652 629 596 560
1310.0 533 518 532 576 648 775 972 1232 1510 1727
1350.0 1855 1854 1724 1533 1345 1199 1093 1054 1058 1063
1390.0 1054 1014 957 908 874 873 913 979 1036 1053
1430.0 1034 1004 977 983 1032 1110 1189 1245 1265 1245
1470.0 1190 1091 953 801 651 505 395 316 256 217
1510.0 187 165 145 129 122 116 109 101 92 77
1550.0 70 73 78 69 62 60 55 48 46 48
1590.0 52 54 58 66 72 80 92 102 119 147
1630.0 174 212 250 279 292 276 235 184 135 102
1670.0 76 55 41 30 21 16 17 19 19 15
1710.0 14 10 3 5 7 9 8 4 9 10
1750.0 8 12 15 9 5 1 0 4 8 1
1790.0 2 10 4 8 16 17 18 27 43 57
1830.0 71 92 127 157 172 181 176 155 129 107
1870.0 90 72 55 46 39 28 22 27 32 31
1910.0 25 21 18 18 23 24 23 29 31 31
1950.0 34 39 45 50 53 60 61 63 70 67
1990.0 64 66 63 63 64 64 66 69 66 62
2030.0 67 71 73 70 65 65 66 67 63 55
2070.0 60 71 70 73 69 64 69 61 56 54
2110.0 49 53 54 44 36 35 31 28 29 28
2150.0 25 19 20 19 10 10 20 17 11 11
2190.0 10 16 21 19 19 15 9 6 8 13
2230.0 9 9 16 14 12 9 11 10 7 10
2270.0 12 11 17 16 15 16 15 14 15 12
2310.0 10 12 14 16 16 14 19 17 17 16
2350.0 17 19 21 24 22 21 20 18 10 5
2390.0 7 11 13 15 14 12 7 4 14 14
2430.0 9 13 17 25 24 16 12 11 13 19
2470.0 23 16 11 11 12 9 10 15 11 8
2510.0 15 17 16 19 21 18 16 23 25 27
2550.0 31 34 41 42 47 54 58 65 72 70
2590.0 67 76 87 88 83 84 88 87 88 92
2630.0 94 98 101 104 116 132 140 151 163 177
2670.0 191 213 237 245 253 259 273 292 303 317
2710.0 327 337 356 371 387 402 428 459 479 496
2750.0 522 550 582 613 642 670 694 730 764 802
2790.0 841 884 933 1004 1089 1199 1347 1528 1738 2025
2830.0 2389 2816 3329 3918 4564 5243 5917 6524 6995 7284
2870.0 7379 7296 7057 6668 6214 5767 5364 5119 5091 5273
2910.0 5626 6113 6729 7442 8193 8929 9578 9982 10000 9674
2950.0 9137 8534 8078 7841 7556 6996 6171 5107 4020 3201
2990.0 2640 2241 1939 1697 1521 1411 1357 1300 1223 1135
3030.0 1018 882 762 691 652 622 616 626 647 687
3070.0 747 829 912 1003 1072 1083 1050 968 827 686
3110.0 560 443 343 279 250 229 200 176 168 166
3150.0 158 146 139 130 135 133 118 114 115 110
3190.0 97 84 76 70 52 49 66 61 56 66
3230.0 58 39 36 52 55 42 38 32 33 45
3270.0 47 43 36 43 47 36 29 26 30 37
3310.0 37 27 21 29 25 25 46 43 33 26
3350.0 21 23 23 22 30 35 32 29 26 33
3390.0 44 41 35 32 35 32 29 41 43 31
3430.0 38 43 28 23 24 36 43 39 39 39
3470.0 41 54 47 24 22 26 35 25 8 13
3510.0 25 29 25 33 41 39 34 32 29 25
3550.0 25 28 18 18 31 27 27 31 30 22
3590.0 27 35 27 25 27 29 41 36 27 28
3630.0 24 31 37 49 60 50 45 47 39 38
3670.0 44 50 44 55 66 61 55 46 47 49
3710.0 51 53 54 47 43 35 39 49 41 64
3750.0 65 56 63 51 53 45 39 62 69 65
3790.0 68 81 64 45 42 50 67 60 51 57
3830.0 58 54 54 53 57
##END=
