##TITLE=3,5-Dimethyl cyclohexanone
##JCAMP-DX=4.24
##DATA TYPE=INFRARED SPECTRUM
##ORIGIN=NIST Mass Spectrometry Data Center
##OWNER=NIST Standard Reference Data Program
Collection (C) 2018 copyright by the U.S. Secretary of Commerce
on behalf of the United States of America. All rights reserved.
##CAS REGISTRY NO=2320-30-1
##MOLFORM=C 8 H 14 O
##$NIST SOURCE=MSDC-IR
##SPECTROMETER/DATA SYSTEM=HP-GC/MS/IRD
##STATE=gas
##XUNITS=1/CM
##YUNITS=ABSORBANCE
##XFACTOR=1.0
##YFACTOR=0.000002300
##DELTAX=4.0
##FIRSTX=550.0
##LASTX=3846.0
##FIRSTY=0.000147
##MAXX=3846
##MINX=550
##MAXY=0.023
##MINY=0
##NPOINTS=825
##XYDATA=(X++(Y..Y))
550.0 64 17 0 14 37 44 22 7 2 8
590.0 25 42 49 30 22 25 24 21 39 56
630.0 51 40 31 19 13 20 22 22 15 19
670.0 34 36 41 43 37 37 26 31 57 69
710.0 77 100 123 146 154 135 114 91 88 78
750.0 84 123 151 164 183 199 195 177 145 116
790.0 100 77 52 47 49 45 35 44 56 69
830.0 77 68 74 65 55 57 57 56 61 87
870.0 120 151 188 204 187 170 156 130 106 109
910.0 130 163 204 246 283 306 321 320 300 272
950.0 247 233 219 199 171 149 125 97 72 58
990.0 54 59 64 62 63 63 71 88 86 88
1030.0 120 142 165 188 216 252 291 366 475 580
1070.0 653 706 691 614 507 372 256 199 168 147
1110.0 158 166 165 174 201 240 275 330 386 455
1150.0 527 577 606 620 610 573 517 464 426 421
1190.0 459 525 632 826 1103 1404 1664 1857 1934 1866
1230.0 1674 1391 1100 853 695 629 615 620 634 657
1270.0 711 807 942 1090 1200 1269 1271 1238 1173 1084
1310.0 1039 1014 949 833 702 606 586 632 692 749
1350.0 795 817 851 868 868 1001 1067 949 930 902
1390.0 842 760 672 646 641 680 794 940 1077 1161
1430.0 1214 1218 1168 1142 1151 1187 1276 1383 1428 1391
1470.0 1299 1156 976 771 574 408 284 198 150 120
1510.0 102 96 93 89 87 88 83 87 93 94
1550.0 94 90 82 68 71 73 66 77 79 75
1590.0 77 79 85 86 89 101 109 115 127 136
1630.0 149 176 200 215 239 273 295 311 339 377
1670.0 416 466 526 613 725 884 1116 1469 1996 2765
1710.0 3858 5201 6645 7971 8966 9447 9272 8467 7182 5699
1750.0 4258 3001 2029 1374 982 748 598 494 413 352
1790.0 302 265 243 230 216 199 185 171 151 134
1830.0 131 130 122 112 102 96 87 80 70 60
1870.0 59 53 49 56 55 56 59 62 59 56
1910.0 61 55 46 47 42 37 36 29 31 37
1950.0 41 40 39 38 25 23 24 25 32 34
1990.0 36 33 32 28 34 38 30 35 35 33
2030.0 35 31 28 30 31 26 26 31 28 27
2070.0 27 27 24 28 35 37 37 38 36 38
2110.0 28 27 37 33 21 20 23 25 20 25
2150.0 29 27 23 24 25 20 21 20 22 25
2190.0 24 28 27 20 15 12 10 13 16 12
2230.0 7 2 9 16 14 16 17 17 18 17
2270.0 17 23 21 20 20 20 21 21 18 21
2310.0 20 14 15 11 10 16 18 13 14 10
2350.0 18 22 14 17 22 20 21 24 24 22
2390.0 19 12 6 9 11 8 6 9 12 17
2430.0 14 5 2 3 7 7 7 17 18 14
2470.0 12 15 21 17 17 20 16 15 15 12
2510.0 17 20 18 17 21 14 8 10 11 14
2550.0 13 16 16 10 13 19 24 24 15 9
2590.0 8 11 16 25 26 22 22 29 37 38
2630.0 44 45 47 54 52 54 57 56 65 73
2670.0 80 84 86 87 83 76 72 61 53 49
2710.0 54 70 84 89 84 86 102 110 109 100
2750.0 94 95 92 96 113 127 134 140 147 150
2790.0 158 182 208 229 248 282 328 381 453 537
2830.0 641 757 888 1063 1252 1443 1624 1782 1956 2188
2870.0 2458 2757 3080 3346 3511 3614 3691 3773 3872 3975
2910.0 4176 4458 4703 4933 5245 5652 6099 6588 7369 8189
2950.0 8699 9163 9822 10000 9133 8048 6814 5169 3619 2411
2990.0 1497 930 630 477 381 318 272 246 220 206
3030.0 196 184 174 152 140 138 134 128 118 119
3070.0 115 112 111 108 108 105 95 88 95 85
3110.0 68 65 60 52 50 65 63 65 76 78
3150.0 75 74 86 89 78 76 76 64 63 63
3190.0 69 81 76 72 73 69 74 65 66 70
3230.0 59 50 44 42 31 24 23 26 33 33
3270.0 25 29 32 24 18 28 23 18 25 26
3310.0 21 2 3 14 24 18 19 26 26 31
3350.0 29 31 33 32 30 35 38 43 55 56
3390.0 49 48 54 66 81 81 90 110 131 141
3430.0 156 170 174 185 181 169 160 142 118 90
3470.0 81 82 65 54 56 57 49 38 45 49
3510.0 44 39 31 29 33 35 26 17 25 30
3550.0 20 9 7 20 25 25 17 15 19 14
3590.0 10 16 17 12 12 13 11 17 30 21
3630.0 16 23 11 15 26 15 11 26 27 16
3670.0 9 17 28 28 23 26 39 35 34 31
3710.0 24 16 7 14 19 14 7 11 26 21
3750.0 16 36 38 25 25 23 18 26 36 39
3790.0 34 35 44 44 45 41 45 45 32 23
3830.0 17 13 26 28 13
##END=
