##TITLE=N,N'-Di-n-Propyl-1,4-butanediamine
##JCAMP-DX=4.24
##DATA TYPE=INFRARED SPECTRUM
##ORIGIN=EPA-IR VAPOR PHASE LIBRARY
##OWNER=SRD/NIST
Collection (C) 2018 copyright by the U.S. Secretary of Commerce
on behalf of the United States of America. All rights reserved.
##CAS REGISTRY NO=23346-57-8
##MOLFORM=C 10 H 24 N 2
##$NIST SOURCE=MSDC-IR
##STATE=gas
##XUNITS=1/CM
##YUNITS=ABSORBANCE
##XFACTOR=1.
##YFACTOR=0.001
##DELTAX=1.92934
##FIRSTX=549.9
##LASTX=3999.5
##FIRSTY=0.5734
##MAXX=3999.53
##MINX=549.863
##MAXY=0.025318
##MINY=0
##NPOINTS=1789
##XYDATA=(X++(Y..Y))
549.863 0.5734 0.5855 0.5434 0.4805 0.6687 0.7593 0.5911 0.45723 0.6054 0.6902
569.156 0.7118 0.699 0.6602 0.6522 0.5831 0.611 0.6274 0.655 0.7138 0.803
588.450 0.9099 0.8768 0.8011 0.7634 0.7566 0.8436 0.8951 0.9725 1.0071 1.0538
607.743 1.0673 1.0531 1.1414 1.2438 1.2846 1.2757 1.2844 1.388 1.428 1.408
627.037 1.448 1.438 1.508 1.628 1.738 1.778 1.838 1.878 1.878 1.988
646.330 2.098 2.158 2.228 2.348 2.468 2.518 2.518 2.558 2.588 2.608
665.624 2.708 2.778 2.838 2.928 2.928 2.978 3.068 3.088 3.098 3.088
684.917 3.158 3.228 3.158 3.198 3.248 3.168 3.148 3.208 3.158 3.068
704.210 3.038 3.068 3.048 2.978 2.928 2.888 2.818 2.728 2.628 2.538
723.504 2.428 2.338 2.288 2.248 2.258 2.148 2.008 1.968 1.958 1.918
742.797 1.858 1.828 1.778 1.748 1.768 1.738 1.688 1.628 1.618 1.628
762.091 1.608 1.618 1.558 1.478 1.508 1.508 1.468 1.458 1.458 1.428
781.384 1.378 1.3276 1.2675 1.1999 1.1608 1.145 1.1121 1.0936 1.087 1.0918
800.678 1.1031 1.0325 1.0023 1.024 1.0015 0.9994 0.9964 0.956 0.9464 0.9797
819.971 0.9814 0.9593 0.9369 0.9497 0.9583 0.9089 0.8729 0.9101 0.9896 1.0019
839.264 0.997 1.0128 0.9888 1.0125 1.0088 0.9672 0.9632 0.9381 0.9373 0.9969
858.558 1.0306 1.0043 0.9726 0.9643 0.9942 1.0204 1.0455 1.0875 1.0818 1.055
877.851 1.0707 1.087 1.1032 1.1471 1.1373 1.1074 1.1287 1.1266 1.0615 1.0609
897.145 1.1048 1.0936 1.044 1.0599 1.0494 1.0215 1.0301 1.0606 1.0952 1.0444
916.438 1.0205 1.0217 1.019 0.9841 0.9167 0.921 0.9306 0.9118 0.9507 0.9726
935.732 0.9663 0.956 0.9059 0.9122 0.9354 0.9315 0.9697 0.9416 0.9123 0.9184
955.025 0.9217 0.9308 0.8876 0.8751 0.9022 0.9374 0.9394 0.9395 0.9454 0.9446
974.318 1.0016 1.0569 1.0894 1.1157 1.1302 1.1517 1.1808 1.2027 1.2345 1.1948
993.612 1.1801 1.2346 1.2115 1.2344 1.2357 1.1655 1.1735 1.185 1.2208 1.2585
1012.905 1.2635 1.2753 1.3143 1.3543 1.378 1.378 1.398 1.378 1.378 1.458
1032.199 1.508 1.518 1.518 1.518 1.558 1.618 1.618 1.598 1.648 1.678
1051.492 1.688 1.728 1.778 1.828 1.918 1.998 2.008 2.018 2.058 2.168
1070.786 2.248 2.248 2.298 2.348 2.378 2.368 2.428 2.498 2.488 2.548
1090.079 2.618 2.648 2.658 2.728 2.858 2.998 3.078 3.178 3.338 3.478
1109.372 3.668 3.958 4.258 4.588 4.928 5.368 5.858 6.378 6.888 7.318
1128.666 7.728 8.028 8.218 8.298 8.178 7.878 7.378 6.908 6.428 5.948
1147.959 5.398 4.888 4.518 4.128 3.768 3.398 3.068 2.728 2.428 2.308
1167.253 2.198 2.028 1.888 1.708 1.608 1.628 1.598 1.478 1.508 1.598
1186.546 1.448 1.2637 1.398 1.3431 1.2114 1.468 1.568 1.398 1.2975 1.358
1205.840 1.368 1.3068 1.358 1.438 1.3081 1.2233 1.408 1.518 1.3575 1.3242
1225.133 1.458 1.538 1.428 1.3395 1.368 1.2744 1.2592 1.388 1.408 1.3239
1244.426 1.3555 1.3189 1.3033 1.2909 1.2542 1.3508 1.3415 1.2873 1.3143 1.3289
1263.720 1.3081 1.3382 1.418 1.408 1.3512 1.3162 1.3136 1.3378 1.3525 1.33
1283.013 1.378 1.458 1.468 1.498 1.528 1.498 1.488 1.538 1.618 1.658
1302.307 1.638 1.678 1.648 1.588 1.618 1.648 1.648 1.618 1.598 1.628
1321.600 1.668 1.708 1.748 1.848 2.028 2.208 2.368 2.498 2.618 2.758
1340.894 2.868 2.948 2.998 3.068 3.068 3.098 3.158 3.218 3.268 3.248
1360.187 3.258 3.228 3.198 3.188 3.128 3.088 3.068 3.018 2.998 3.018
1379.480 2.998 2.928 2.818 2.678 2.528 2.368 2.198 2.028 1.898 1.788
1398.774 1.678 1.598 1.568 1.548 1.528 1.498 1.498 1.518 1.538 1.548
1418.067 1.578 1.678 1.798 1.918 2.068 2.258 2.488 2.738 2.988 3.278
1437.361 3.618 3.938 4.248 4.548 4.868 5.198 5.508 5.808 6.098 6.368
1456.654 6.568 6.718 6.808 6.768 6.588 6.318 6.018 5.648 5.248 4.818
1475.948 4.358 3.938 3.528 3.108 2.758 2.498 2.228 2.008 1.848 1.688
1495.241 1.558 1.438 1.338 1.2538 1.1952 1.1083 1.0177 0.9895 0.9638 0.9496
1514.534 0.9045 0.8332 0.8392 0.8456 0.8263 0.8309 0.7945 0.7479 0.7323 0.7219
1533.828 0.6916 0.6831 0.68 0.6482 0.5836 0.6136 0.6672 0.6166 0.592 0.6175
1553.121 0.6021 0.5671 0.6315 0.6487 0.6024 0.6017 0.5994 0.5879 0.5738 0.5729
1572.415 0.5834 0.5657 0.5686 0.6006 0.6021 0.5782 0.5665 0.5886 0.5783 0.5716
1591.708 0.6038 0.6362 0.6189 0.5651 0.59 0.6265 0.6002 0.6001 0.5954 0.559
1611.002 0.5525 0.5823 0.5826 0.5407 0.5386 0.5738 0.5594 0.4999 0.4788 0.5207
1630.295 0.5104 0.47 0.4843 0.508 0.5078 0.4679 0.498 0.5222 0.4769 0.4362
1649.588 0.44318 0.4746 0.486 0.5305 0.5584 0.5562 0.5683 0.5962 0.5769 0.5593
1668.882 0.5344 0.5175 0.5543 0.5577 0.5239 0.5275 0.5257 0.5209 0.5226 0.5263
1688.175 0.5144 0.4586 0.4651 0.4876 0.4698 0.45533 0.42672 0.40747 0.41397 0.39759
1707.469 0.42127 0.45287 0.40468 0.38222 0.39098 0.38079 0.37646 0.37766 0.3465 0.3351
1726.762 0.3808 0.37637 0.37878 0.38338 0.35483 0.35177 0.3738 0.3815 0.37431 0.37507
1746.056 0.39785 0.43996 0.43366 0.40603 0.42323 0.44298 0.44493 0.42591 0.42232 0.466
1765.349 0.4832 0.48 0.4837 0.4802 0.4736 0.4822 0.4898 0.5137 0.5257 0.5101
1784.642 0.491 0.5007 0.5446 0.5042 0.45661 0.4898 0.48 0.4889 0.5218 0.5189
1803.936 0.5248 0.539 0.5341 0.5369 0.5175 0.4773 0.5018 0.4954 0.45673 0.4656
1823.229 0.4871 0.4794 0.4966 0.5024 0.479 0.4898 0.4912 0.4785 0.4779 0.4652
1842.523 0.4614 0.4692 0.4586 0.4594 0.45534 0.43069 0.4308 0.43066 0.41886 0.43023
1861.816 0.4687 0.4961 0.4829 0.44053 0.42874 0.43932 0.4392 0.42128 0.41942 0.43567
1881.110 0.41729 0.39624 0.37253 0.3752 0.38943 0.38561 0.3939 0.38568 0.38106 0.40088
1900.403 0.43199 0.42886 0.41597 0.42847 0.43054 0.42045 0.40863 0.40692 0.39303 0.37172
1919.696 0.363716 0.37278 0.37733 0.37155 0.39332 0.40911 0.39823 0.39122 0.364874 0.3452
1938.990 0.37581 0.40233 0.3764 0.3375 0.3471 0.39194 0.40071 0.38787 0.38499 0.38427
1958.283 0.364021 0.367547 0.38619 0.40056 0.40835 0.40846 0.40346 0.40511 0.42222 0.41607
1977.577 0.40284 0.3696 0.3545 0.37255 0.38431 0.39268 0.40274 0.4188 0.44056 0.43329
1996.870 0.41058 0.40472 0.38988 0.39526 0.40365 0.39039 0.40348 0.41162 0.40483 0.4144
2016.164 0.41604 0.40869 0.38612 0.39164 0.41225 0.42605 0.4331 0.40328 0.4091 0.43786
2035.457 0.43527 0.4213 0.43913 0.45609 0.44016 0.42532 0.42646 0.43683 0.44337 0.4642
2054.750 0.45461 0.42716 0.40684 0.39697 0.41174 0.43247 0.45774 0.4509 0.4584 0.4768
2074.044 0.44353 0.44292 0.42912 0.42468 0.45695 0.43152 0.43537 0.44548 0.43948 0.44756
2093.337 0.4405 0.41767 0.39692 0.41426 0.4163 0.3958 0.40823 0.42486 0.42971 0.44286
2112.631 0.4621 0.44889 0.40494 0.37621 0.364609 0.38865 0.403 0.39043 0.41613 0.4121
2131.924 0.4056 0.41978 0.40295 0.4055 0.43772 0.42591 0.38027 0.35409 0.3671 0.39139
2151.218 0.38605 0.364206 0.37036 0.39115 0.38403 0.37507 0.38182 0.40541 0.39197 0.38528
2170.511 0.38885 0.37388 0.38379 0.41583 0.40404 0.37979 0.38643 0.40197 0.41996 0.39547
2189.804 0.359832 0.38489 0.41801 0.38431 0.37212 0.39355 0.37692 0.38717 0.38878 0.38324
2209.098 0.39742 0.3924 0.37816 0.39562 0.42986 0.41092 0.39079 0.40761 0.39459 0.37111
2228.391 0.41214 0.40976 0.38507 0.38684 0.39679 0.39741 0.39345 0.42046 0.42752 0.38572
2247.685 0.3565 0.359332 0.361029 0.35365 0.35223 0.37231 0.3912 0.40734 0.40082 0.38627
2266.978 0.40096 0.39791 0.37269 0.36864 0.35446 0.358275 0.37769 0.37918 0.38703 0.37273
2286.272 0.3397 0.3121 0.3198 0.35145 0.37306 0.39461 0.37807 0.3732 0.38687 0.38073
2305.565 0.37414 0.38113 0.38159 0.361833 0.367767 0.361255 0.35055 0.37751 0.39016 0.38289
2324.858 0.40707 0.41348 0.346 0.3199 0.35444 0.363003 0.35284 0.347 0.35079 0.359496
2344.152 0.35508 0.35616 0.37727 0.41194 0.42246 0.38403 0.35023 0.35503 0.359181 0.37148
2363.445 0.39538 0.37159 0.358064 0.34974 0.3424 0.360299 0.37269 0.4002 0.40086 0.37081
2382.739 0.39108 0.41346 0.41506 0.42798 0.40099 0.365691 0.3714 0.38666 0.37684 0.34972
2402.032 0.39927 0.44421 0.43053 0.41753 0.40563 0.37896 0.362176 0.37849 0.38618 0.39683
2421.326 0.39436 0.37743 0.35141 0.39219 0.41603 0.35308 0.359526 0.39146 0.38022 0.40031
2440.619 0.40078 0.38516 0.38978 0.39816 0.3955 0.38726 0.43979 0.45669 0.42268 0.39074
2459.912 0.37718 0.40031 0.40515 0.40629 0.39503 0.37697 0.39942 0.43007 0.44931 0.42179
2479.206 0.39344 0.40766 0.40329 0.38469 0.37331 0.3696 0.38078 0.41814 0.453 0.4637
2498.499 0.44018 0.43691 0.45237 0.45223 0.45656 0.45713 0.42234 0.38353 0.43288 0.475
2517.793 0.45113 0.4669 0.4892 0.4763 0.4698 0.4779 0.4839 0.5053 0.507 0.4775
2537.086 0.4647 0.44772 0.4885 0.5041 0.4726 0.4791 0.5003 0.5315 0.5592 0.5803
2556.380 0.569 0.5722 0.5837 0.5797 0.5922 0.5774 0.5294 0.5257 0.5641 0.5472
2575.673 0.5522 0.6234 0.671 0.64 0.5983 0.6322 0.676 0.6248 0.5824 0.6335
2594.966 0.6467 0.6564 0.6873 0.6917 0.6964 0.7317 0.7276 0.7179 0.7427 0.7372
2614.260 0.7106 0.7088 0.7595 0.7721 0.7819 0.7837 0.7961 0.8056 0.7688 0.7998
2633.553 0.8379 0.8277 0.8728 0.9137 0.929 0.9616 1.0067 0.9951 0.9588 0.9944
2652.847 1.0526 1.083 1.0825 1.1214 1.1825 1.2032 1.1906 1.2275 1.2813 1.2863
2672.140 1.3347 1.358 1.3482 1.3498 1.398 1.438 1.388 1.418 1.468 1.478
2691.434 1.578 1.628 1.608 1.598 1.618 1.678 1.688 1.688 1.688 1.678
2710.727 1.728 1.848 1.908 1.918 1.968 2.008 2.038 2.058 2.098 2.178
2730.020 2.228 2.248 2.268 2.318 2.418 2.478 2.518 2.548 2.548 2.628
2749.314 2.688 2.688 2.758 2.828 2.878 2.978 3.038 3.118 3.218 3.268
2768.607 3.388 3.498 3.598 3.768 3.888 4.018 4.178 4.398 4.648 4.988
2787.901 5.348 5.708 6.148 6.588 7.058 7.568 8.118 8.668 9.158 9.568
2807.194 10.008 10.508 10.908 11.218 11.498 11.578 11.588 11.578 11.338 11.048
2826.488 10.798 10.438 10.128 9.888 9.588 9.288 9.038 8.898 8.818 8.778
2845.781 8.718 8.758 8.978 9.238 9.458 9.688 9.988 10.248 10.518 10.748
2865.074 10.908 11.028 11.158 11.318 11.448 11.608 11.808 12.048 12.388 12.668
2884.368 12.708 12.728 12.708 12.688 12.588 12.438 12.428 12.468 12.558 12.718
2903.661 13.008 13.458 13.908 14.468 15.048 15.618 16.538 17.518 18.428 19.448
2922.955 20.438 21.458 22.628 23.648 24.388 24.918 25.258 25.318 25.058 24.478
2942.248 23.538 22.458 21.338 20.178 18.978 17.898 17.068 16.538 16.268 16.058
2961.542 15.968 16.098 16.238 16.158 15.848 15.218 14.308 13.338 12.308 11.098
2980.835 9.848 8.708 7.658 6.718 5.898 5.198 4.648 4.198 3.778 3.378
3000.128 3.048 2.848 2.658 2.418 2.238 2.128 2.068 2.028 1.858 1.698
3019.422 1.618 1.588 1.518 1.408 1.3516 1.2162 1.1744 1.1852 1.2265 1.1995
3038.715 1.1096 1.069 0.9814 0.9449 0.9033 0.8547 0.8968 0.9391 0.8806 0.8531
3058.009 0.8472 0.8508 0.808 0.7077 0.6672 0.7311 0.7594 0.7264 0.6901 0.6971
3077.302 0.6721 0.6154 0.6936 0.7806 0.8363 0.8558 0.8304 0.7511 0.7166 0.749
3096.596 0.744 0.8151 0.8155 0.5921 0.5208 0.6351 0.6705 0.6272 0.5135 0.40575
3115.889 0.41571 0.553 0.5743 0.41281 0.3422 0.37451 0.41031 0.4778 0.532 0.5086
3135.182 0.3978 0.341 0.43334 0.4638 0.44233 0.35251 0.38092 0.40838 0.358494 0.41378
3154.476 0.359167 0.2947 0.35587 0.44086 0.43722 0.357087 0.2847 0.4033 0.4968 0.4727
3173.769 0.42726 0.3414 0.39986 0.4648 0.40541 0.39354 0.4586 0.4034 0.2691 0.231
3193.063 0.2904 0.3573 0.3144 0.241 0.2759 0.37151 0.35068 0.3478 0.3355 0.2767
3212.356 0.2988 0.3413 0.2794 0.17 0.184 0.207 0.167 0.122 0.2785 0.42017
3231.650 0.342 0.3282 0.2778 0.24 0.231 0.224 0.204 0.11 0.1 0.105
3250.943 0.142 0.235 0.2662 0.219 0.207 0.191 0.173 0.24 0.255 0.174
3270.236 0.095 0.174 0.2698 0.2962 0.2945 0.242 0.231 0.257 0.3426 0.362712
3289.530 0.2974 0.229 0.199 0.2775 0.247 0.212 0.39209 0.41973 0.258 0.222
3308.823 0.245 0.3133 0.40574 0.3015 0.256 0.3375 0.3034 0.267 0.3095 0.401
3328.117 0.37331 0.244 0.19 0.209 0.206 0.2693 0.2735 0.215 0.2893 0.2957
3347.410 0.25 0.2676 0.35278 0.3237 0.195 0.226 0.252 0.198 0.199 0.2677
3366.704 0.39698 0.3438 0.227 0.234 0.2772 0.242 0.195 0.227 0.214 0.195
3385.997 0.186 0.182 0.174 0.201 0.26 0.226 0.132 0.145 0.202 0.24
3405.290 0.3009 0.360097 0.3103 0.3098 0.2951 0.149 0.198 0.225 0.116 0.159
3424.584 0.3143 0.35358 0.195 0.171 0.224 0.182 0.149 0.153 0.186 0.205
3443.877 0.185 0.226 0.155 0 0.064 0.149 0.178 0.219 0.217 0.148
3463.171 0.166 0.212 0.229 0.102 0.105 0.249 0.243 0.2794 0.222 0.177
3482.464 0.2762 0.3318 0.2926 0.2856 0.2808 0.226 0.3101 0.38631 0.236 0.158
3501.758 0.166 0.142 0.199 0.2721 0.3268 0.35108 0.3363 0.213 0.141 0.149
3521.051 0.156 0.246 0.2737 0.3025 0.3294 0.3285 0.3236 0.3037 0.2771 0.227
3540.344 0.2 0.177 0.168 0.213 0.21 0.131 0.152 0.206 0.255 0.2851
3559.638 0.176 0.174 0.3051 0.3039 0.2583 0.3155 0.3123 0.258 0.135 0.122
3578.931 0.233 0.235 0.196 0.151 0.165 0.236 0.2686 0.3003 0.2892 0.23
3598.225 0.208 0.252 0.264 0.202 0.222 0.189 0.209 0.2716 0.212 0.241
3617.518 0.216 0.118 0.199 0.3112 0.244 0.154 0.188 0.243 0.2715 0.2979
3636.812 0.2709 0.216 0.206 0.2678 0.242 0.232 0.2817 0.2875 0.339 0.3351
3656.105 0.2677 0.2921 0.2626 0.238 0.3257 0.313 0.35034 0.361655 0.2749 0.235
3675.398 0.19 0.215 0.2887 0.3423 0.41714 0.3199 0.21 0.357662 0.37274 0.2699
3694.692 0.3087 0.38759 0.38411 0.226 0.158 0.226 0.242 0.238 0.251 0.233
3713.985 0.2582 0.253 0.237 0.248 0.2588 0.2601 0.2677 0.2869 0.257 0.227
3733.279 0.2763 0.35307 0.37684 0.3438 0.232 0.207 0.162 0.128 0.233 0.289
3752.572 0.197 0.154 0.236 0.2842 0.2791 0.2832 0.3159 0.2994 0.291 0.3018
3771.866 0.255 0.2722 0.3162 0.247 0.167 0.213 0.2793 0.3408 0.2928 0.246
3791.159 0.255 0.224 0.231 0.212 0.23 0.2604 0.231 0.2739 0.3036 0.232
3810.452 0.259 0.3216 0.319 0.37627 0.42542 0.3347 0.2873 0.3049 0.228 0.243
3829.746 0.3278 0.2821 0.204 0.238 0.276 0.3107 0.366148 0.3341 0.3059 0.2987
3849.039 0.2778 0.243 0.3104 0.2664 0.155 0.203 0.254 0.233 0.168 0.236
3868.333 0.367743 0.36639 0.289 0.2757 0.253 0.171 0.167 0.2747 0.3094 0.228
3887.626 0.235 0.2864 0.2883 0.233 0.186 0.241 0.25 0.247 0.36889 0.364974
3906.920 0.3398 0.3523 0.2955 0.2792 0.2919 0.3211 0.3129 0.2934 0.2973 0.3194
3926.213 0.3258 0.3226 0.3091 0.3189 0.40699 0.45158 0.34893 0.2647 0.237 0.2629
3945.506 0.3162 0.3086 0.3229 0.3385 0.3123 0.2882 0.2671 0.24 0.236 0.3038
3964.800 0.35448 0.364905 0.3369 0.35404 0.44338 0.41804 0.3394 0.2595 0.232 0.3033
3984.093 0.38826 0.364398 0.3466 0.40158 0.35034 0.3102 0.3186 0.2998 0.2788
##END=
