##TITLE=5-Nitrobenzotriazole
##JCAMP-DX=4.24
##DATA TYPE=INFRARED SPECTRUM
##ORIGIN=EPA-IR VAPOR PHASE LIBRARY
##OWNER=SRD/NIST
Collection (C) 2018 copyright by the U.S. Secretary of Commerce
on behalf of the United States of America. All rights reserved.
##CAS REGISTRY NO=2338-12-7
##MOLFORM=C 6 H 4 N 4 O 2
##$NIST SOURCE=MSDC-IR
##STATE=gas
##XUNITS=1/CM
##YUNITS=ABSORBANCE
##XFACTOR=1.
##YFACTOR=0.001
##DELTAX=1.92898
##FIRSTX=549.8
##LASTX=4000.7
##FIRSTY=0.8568
##MAXX=4000.7
##MINX=549.759
##MAXY=0.016242
##MINY=0
##NPOINTS=1790
##XYDATA=(X++(Y..Y))
549.759 0.8568 0.8303 0.8481 0.7157 0.6899 0.9079 0.8548 0.8919 0.67 0.39297
569.049 0.7453 0.9311 0.9339 1.1201 1.1082 0.9276 0.7791 0.8163 0.8977 0.854
588.339 0.7369 0.5603 0.5293 0.5937 0.4893 0.5725 0.789 0.6947 0.5968 0.6928
607.628 0.634 0.5686 0.6775 0.7338 0.6609 0.5781 0.5437 0.5002 0.532 0.6237
626.918 0.7083 0.8059 0.8611 0.8431 0.9083 0.9537 0.8589 0.7985 0.7149 0.6065
646.208 0.5563 0.6683 0.6725 0.6666 0.76 0.796 0.8083 0.783 0.9607 1.1378
665.498 1.2395 1.422 1.522 1.632 1.772 1.932 2.172 2.372 2.472 2.492
684.787 2.492 2.562 2.692 2.712 2.732 2.772 2.682 2.622 2.722 2.772
704.077 2.542 2.272 2.112 2.052 2.022 1.992 1.992 2.122 2.352 2.562
723.367 2.612 2.592 2.782 2.912 2.972 3.042 2.892 2.742 2.542 2.352
742.657 2.252 2.042 1.872 1.632 1.412 1.3079 1.1927 1.178 1.1746 1.0865
761.947 1.056 0.9848 0.8 0.7559 0.9226 1.0301 1.0172 1.047 1.0764 1.1594
781.236 1.392 1.692 2.142 2.652 3.152 3.642 3.882 4.012 4.072 3.922
800.526 3.682 3.352 2.892 2.462 2.132 1.882 1.932 2.072 2.112 2.152
819.816 2.092 2.202 2.512 2.722 2.942 3.212 3.392 3.392 3.252 3.172
839.106 3.122 2.852 2.452 2.032 1.612 1.2332 1.0179 0.8782 0.8544 0.9284
858.395 0.9256 0.8828 0.7716 0.7071 0.8793 1.0773 1.2526 1.2991 1.2078 1.2375
877.685 1.3299 1.432 1.392 1.452 1.562 1.572 1.582 1.642 1.752 1.882
896.975 1.892 1.782 1.892 2.052 2.162 2.242 2.282 2.212 2.132 2.122
916.265 2.152 2.202 2.142 2.142 2.222 2.262 2.202 2.162 2.142 2.092
935.555 2.082 2.222 2.252 2.112 2.072 1.962 1.782 1.672 1.562 1.412
954.844 1.2449 1.1638 1.111 1.0213 0.9415 0.9385 1.0096 1.0752 1.0878 1.0409
974.134 1.0759 1.1519 1.2737 1.422 1.552 1.662 1.752 1.952 2.182 2.282
993.424 2.182 2.202 2.402 2.282 1.992 1.822 1.672 1.422 1.3618 1.372
1012.714 1.1244 1.0279 1.0355 1.0249 0.9299 0.8416 0.7713 0.7454 0.885 0.8065
1032.003 0.7567 0.8466 0.8457 0.8337 0.6592 0.5196 0.7247 0.893 0.9598 1.0375
1051.293 1.2447 1.432 1.572 1.762 1.932 2.262 2.402 2.522 2.602 2.572
1070.583 2.552 2.392 2.212 1.912 1.592 1.3159 1.1251 1.141 0.8058 0.7589
1089.873 0.8603 0.6581 0.8009 0.8369 0.7138 0.5435 0.5929 0.7438 0.42668 0.239
1109.163 0.2938 0.44765 0.6734 0.826 0.8765 0.9648 1.065 1.0621 1.2467 1.2351
1128.452 1.2436 1.562 1.672 1.632 1.632 1.692 1.572 1.3476 1.392 1.3469
1147.742 1.2505 1.0522 0.863 0.8995 0.807 0.8129 0.8882 0.9517 1.1061 1.2516
1167.032 1.1702 1.1108 1.3072 1.592 1.782 1.852 1.832 1.962 2.012 2.122
1186.322 2.242 2.042 2.112 2.332 2.382 2.472 2.832 3.112 3.112 2.982
1205.611 2.892 2.792 2.452 2.172 2.022 2.002 1.822 1.372 1.0581 0.9222
1224.901 0.8462 0.8145 0.7179 0.4873 0.5388 0.5914 0.6195 0.7112 0.7632 0.7937
1244.191 0.9265 1.0949 1.1914 1.372 1.442 1.482 1.782 1.962 1.942 1.932
1263.481 1.872 1.812 1.682 1.572 1.552 1.522 1.532 1.472 1.452 1.422
1282.771 1.422 1.502 1.542 1.642 1.712 1.772 1.872 2.062 2.262 2.422
1302.060 2.532 2.602 2.672 2.762 2.782 2.742 2.732 2.752 2.832 2.952
1321.350 3.122 3.422 3.732 4.052 4.452 4.932 5.522 6.242 7.142 8.182
1340.640 9.442 10.912 12.452 13.882 15.032 15.852 16.242 16.172 15.632 14.532
1359.930 12.912 11.022 9.132 7.462 6.082 4.962 4.082 3.532 3.152 2.862
1379.219 2.642 2.482 2.372 2.272 2.192 2.132 2.132 2.182 2.222 2.232
1398.509 2.232 2.252 2.282 2.322 2.322 2.242 2.132 2.002 1.852 1.692
1417.799 1.512 1.362 1.3039 1.2192 1.1168 1.0307 0.9933 0.9738 0.9707 1.0021
1437.089 1.0612 1.1185 1.1713 1.1927 1.197 1.2137 1.1852 1.1879 1.204 1.1739
1456.378 1.0813 1.0663 1.1386 1.157 1.1884 1.256 1.2658 1.2698 1.3169 1.372
1475.668 1.472 1.582 1.682 1.742 1.812 1.882 1.912 1.972 2.032 2.062
1494.958 1.992 1.952 1.982 2.002 2.012 2.022 2.012 2.112 2.312 2.522
1514.248 2.752 3.012 3.412 3.872 4.432 5.062 5.812 6.682 7.542 8.392
1533.538 9.252 10.042 10.612 11.092 11.502 11.712 11.712 11.542 11.212 10.852
1552.827 10.452 9.892 9.272 8.572 7.972 7.582 7.242 7.002 6.722 6.432
1572.117 6.172 5.832 5.482 5.222 5.012 4.782 4.552 4.332 4.092 3.832
1591.407 3.632 3.432 3.242 3.122 3.032 2.982 2.862 2.712 2.642 2.592
1610.697 2.572 2.572 2.542 2.472 2.452 2.452 2.422 2.362 2.282 2.122
1629.986 1.932 1.722 1.502 1.3111 1.2044 1.0778 0.9167 0.8456 0.8053 0.7316
1649.276 0.7697 0.7578 0.6785 0.7031 0.685 0.6521 0.6318 0.5869 0.5817 0.5828
1668.566 0.5155 0.4914 0.4982 0.4799 0.4935 0.505 0.4995 0.5044 0.484 0.4991
1687.856 0.484 0.4803 0.5123 0.4776 0.4745 0.4981 0.44719 0.43594 0.45631 0.43288
1707.146 0.45992 0.4977 0.5253 0.5232 0.4974 0.4365 0.40787 0.43341 0.44174 0.43257
1726.435 0.46113 0.4816 0.44019 0.40445 0.4108 0.43193 0.41523 0.39894 0.4203 0.4637
1745.725 0.4874 0.4854 0.4716 0.42082 0.42287 0.5065 0.5891 0.5703 0.5644 0.6318
1765.015 0.6033 0.5701 0.5606 0.5416 0.5348 0.5534 0.5936 0.5964 0.5426 0.5264
1784.305 0.5357 0.5219 0.5188 0.4919 0.478 0.4913 0.4997 0.4819 0.44144 0.45419
1803.594 0.4626 0.40129 0.40786 0.41164 0.39733 0.43315 0.40198 0.35564 0.366065 0.371622
1822.884 0.367804 0.38196 0.36419 0.3243 0.3375 0.38979 0.37925 0.3318 0.2777 0.279
1842.174 0.312 0.3182 0.3391 0.3339 0.35734 0.363813 0.331 0.3344 0.35935 0.366931
1861.464 0.329 0.2893 0.2925 0.3048 0.3339 0.35282 0.3439 0.3508 0.3432 0.35588
1880.754 0.38726 0.40699 0.42649 0.42164 0.42262 0.44834 0.4779 0.4788 0.4452 0.44112
1900.043 0.4641 0.4735 0.4868 0.4733 0.44423 0.42828 0.43351 0.4725 0.4877 0.46035
1919.333 0.45475 0.43721 0.39416 0.40937 0.42324 0.39979 0.39449 0.38612 0.37331 0.38344
1938.623 0.38481 0.3506 0.3061 0.3399 0.37982 0.36436 0.3418 0.341 0.3466 0.35678
1957.913 0.38448 0.367105 0.3459 0.3322 0.3492 0.38091 0.371385 0.3515 0.3004 0.3083
1977.202 0.35639 0.3276 0.3337 0.370722 0.35646 0.3295 0.3252 0.35779 0.367374 0.3209
1996.492 0.3147 0.3225 0.3378 0.3519 0.3288 0.3337 0.3519 0.35214 0.35991 0.3591
2015.782 0.361166 0.3376 0.3049 0.3187 0.3244 0.35464 0.361133 0.3308 0.3132 0.2978
2035.072 0.3231 0.37371 0.35785 0.39115 0.40895 0.3145 0.2934 0.3126 0.334 0.35647
2054.362 0.3106 0.2718 0.3057 0.3336 0.2824 0.2818 0.3124 0.2755 0.2845 0.3399
2073.651 0.366834 0.35602 0.35586 0.35766 0.3369 0.2843 0.25 0.2892 0.3518 0.3462
2092.941 0.3366 0.3072 0.2798 0.3145 0.332 0.3183 0.3166 0.3375 0.38412 0.3878
2112.231 0.35826 0.39319 0.38173 0.3303 0.3243 0.37973 0.38219 0.367302 0.39371 0.3475
2131.521 0.3163 0.35238 0.38292 0.413 0.37526 0.35327 0.41572 0.42815 0.38452 0.37313
2150.810 0.38849 0.3361 0.3257 0.37857 0.3965 0.39083 0.38838 0.38075 0.35857 0.3506
2170.100 0.37759 0.41796 0.40311 0.36107 0.35651 0.35611 0.362253 0.39268 0.41216 0.40493
2189.390 0.38301 0.36177 0.381 0.4009 0.361652 0.3377 0.35415 0.41282 0.45603 0.4294
2208.680 0.42575 0.40932 0.368292 0.3357 0.36433 0.40701 0.4706 0.4762 0.365405 0.3213
2227.970 0.3158 0.3214 0.2892 0.3043 0.3356 0.3169 0.3117 0.35929 0.41231 0.40157
2247.259 0.37362 0.3385 0.3261 0.35923 0.361995 0.3394 0.369622 0.40434 0.41626 0.369338
2266.549 0.35395 0.367679 0.3276 0.366653 0.41078 0.368168 0.371733 0.40336 0.40022 0.42538
2285.839 0.42615 0.41344 0.4105 0.4134 0.44669 0.47 0.4717 0.44434 0.41222 0.39619
2305.129 0.377 0.38974 0.40922 0.35253 0.3423 0.3516 0.37942 0.41505 0.35674 0.3451
2324.418 0.3458 0.365666 0.35712 0.3153 0.35615 0.42409 0.41946 0.36178 0.38507 0.38117
2343.708 0.44032 0.492 0.45232 0.42077 0.39319 0.37432 0.39414 0.41415 0.37777 0.39547
2362.998 0.4183 0.45714 0.4935 0.45849 0.43109 0.4659 0.4997 0.4743 0.39317 0.339
2382.288 0.37394 0.40813 0.43022 0.42942 0.35287 0.3476 0.39988 0.42389 0.38546 0.3512
2401.578 0.3428 0.38188 0.40911 0.37914 0.39365 0.44048 0.4698 0.43415 0.3867 0.37698
2420.867 0.43723 0.42369 0.365796 0.366567 0.362819 0.39727 0.42845 0.41924 0.42787 0.40803
2440.157 0.44526 0.42877 0.3368 0.348 0.37571 0.35788 0.3517 0.3405 0.35472 0.39887
2459.447 0.39642 0.39083 0.39384 0.40289 0.41628 0.43002 0.37955 0.3426 0.3285 0.3248
2478.737 0.3386 0.362001 0.41544 0.43496 0.42517 0.42477 0.43884 0.41024 0.41944 0.41314
2498.026 0.39757 0.37282 0.35714 0.44152 0.46156 0.40478 0.370739 0.364272 0.40007 0.42415
2517.316 0.40122 0.39018 0.39636 0.41262 0.43552 0.42678 0.41355 0.4319 0.394 0.367507
2536.606 0.35767 0.362471 0.38225 0.37837 0.42413 0.4159 0.37902 0.41627 0.4719 0.4816
2555.896 0.4798 0.39157 0.3278 0.40544 0.39538 0.40078 0.4697 0.42014 0.37215 0.42916
2575.186 0.46121 0.43282 0.3351 0.35412 0.40534 0.3841 0.4619 0.4741 0.44907 0.40804
2594.475 0.3269 0.371778 0.4038 0.371038 0.39496 0.4727 0.4738 0.39156 0.39431 0.3505
2613.765 0.361393 0.41592 0.43493 0.4639 0.4975 0.5389 0.45873 0.3379 0.3399 0.37728
2633.055 0.371076 0.38025 0.38588 0.40008 0.45051 0.5008 0.462 0.40641 0.42403 0.4312
2652.345 0.42409 0.41471 0.42799 0.45942 0.43968 0.38293 0.3386 0.2977 0.3481 0.41835
2671.634 0.37682 0.3436 0.35687 0.3399 0.38491 0.4932 0.4796 0.4731 0.45239 0.40916
2690.924 0.43298 0.41319 0.40499 0.42719 0.40179 0.361169 0.362364 0.40186 0.44387 0.4627
2710.214 0.4909 0.5148 0.41054 0.377 0.42898 0.43918 0.45374 0.47 0.46044 0.4638
2729.504 0.40149 0.3178 0.36013 0.44267 0.466 0.41038 0.41475 0.40017 0.35735 0.365139
2748.794 0.35325 0.367196 0.3453 0.3284 0.3329 0.3007 0.2738 0.3023 0.38034 0.3377
2768.083 0.2889 0.3226 0.3341 0.3364 0.3029 0.2779 0.40105 0.5301 0.4834 0.43068
2787.373 0.37599 0.3072 0.35657 0.368598 0.3352 0.36598 0.44311 0.44979 0.39129 0.42202
2806.663 0.43139 0.42771 0.4916 0.4914 0.41284 0.37687 0.38129 0.38219 0.4287 0.45669
2825.953 0.4473 0.4628 0.5069 0.5238 0.4874 0.477 0.43351 0.4466 0.5215 0.5205
2845.242 0.45311 0.4576 0.5662 0.5219 0.4863 0.508 0.4903 0.5087 0.4979 0.468
2864.532 0.45589 0.5407 0.5744 0.4851 0.5288 0.5727 0.6529 0.6335 0.557 0.59
2883.822 0.5393 0.5237 0.5235 0.5174 0.5426 0.531 0.46085 0.45047 0.4872 0.5457
2903.112 0.5575 0.5079 0.45966 0.4738 0.541 0.5211 0.475 0.5187 0.5651 0.4883
2922.401 0.42409 0.43645 0.45238 0.39865 0.4018 0.44071 0.506 0.5027 0.4875 0.5392
2941.691 0.4671 0.4833 0.4957 0.4281 0.43177 0.44207 0.37737 0.363517 0.40856 0.44329
2960.981 0.43846 0.36769 0.3409 0.35273 0.35775 0.3763 0.43065 0.45085 0.367049 0.3203
2980.271 0.39149 0.43404 0.4282 0.38849 0.35864 0.39739 0.43351 0.3243 0.2917 0.3366
2999.561 0.3052 0.3429 0.3496 0.3123 0.3188 0.40853 0.43074 0.3973 0.3237 0.3059
3018.850 0.39106 0.35765 0.35602 0.369894 0.3459 0.3403 0.3423 0.3164 0.2699 0.3037
3038.140 0.3019 0.2987 0.3145 0.2767 0.3058 0.3106 0.339 0.364183 0.3332 0.2728
3057.430 0.209 0.3378 0.39109 0.2681 0.3229 0.37894 0.40846 0.5231 0.5759 0.5897
3076.720 0.5876 0.5688 0.5754 0.553 0.5818 0.7028 0.7398 0.7802 0.8454 0.8919
3096.009 0.8799 0.8694 0.8615 0.7862 0.7341 0.6931 0.7248 0.6614 0.6577 0.692
3115.299 0.5976 0.5806 0.41914 0.2917 0.41826 0.43129 0.36014 0.40631 0.3349 0.3131
3134.589 0.3188 0.38488 0.4693 0.371779 0.221 0.163 0.226 0.363065 0.43651 0.39177
3153.879 0.3516 0.39548 0.38713 0.2919 0.40756 0.41141 0.3208 0.39281 0.38637 0.39471
3173.169 0.3128 0.204 0.2823 0.2966 0.2745 0.2929 0.3271 0.3204 0.3263 0.39026
3192.458 0.37882 0.35588 0.40953 0.37618 0.3181 0.2929 0.2897 0.38424 0.343 0.244
3211.748 0.224 0.249 0.2838 0.2814 0.3215 0.246 0.225 0.3339 0.364312 0.3285
3231.038 0.2771 0.215 0.2633 0.3758 0.39436 0.3424 0.2689 0.3206 0.40086 0.38641
3250.328 0.41257 0.35758 0.332 0.43553 0.3065 0.218 0.3302 0.3162 0.232 0.178
3269.617 0.196 0.2718 0.3002 0.251 0.251 0.3487 0.39313 0.3109 0.2643 0.2754
3288.907 0.3342 0.4323 0.4676 0.44803 0.38724 0.328 0.25 0.248 0.244 0.2682
3308.197 0.2995 0.3229 0.40094 0.3424 0.3138 0.364526 0.4021 0.3448 0.3111 0.3284
3327.487 0.3401 0.2876 0.3063 0.3502 0.2936 0.334 0.37784 0.3443 0.214 0.2674
3346.777 0.39695 0.3334 0.3491 0.4592 0.37402 0.312 0.283 0.183 0.245 0.25
3366.066 0.242 0.3415 0.39533 0.3366 0.31 0.39142 0.3389 0.247 0.3351 0.45183
3385.356 0.40355 0.43892 0.39647 0.2637 0.3369 0.2964 0.2676 0.3087 0.311 0.3178
3404.646 0.269 0.225 0.3201 0.3194 0.2889 0.43581 0.40144 0.3205 0.3212 0.3452
3423.936 0.3068 0.5291 0.6453 0.5352 0.5705 0.41225 0.4673 0.5601 0.38978 0.41163
3443.225 0.5169 0.6099 0.6432 0.7446 0.9413 1.0688 1.2731 1.542 1.822 2.302
3462.515 2.942 3.392 3.852 4.592 5.552 6.652 7.672 7.862 7.532 7.612
3481.805 7.652 7.702 7.332 6.362 5.582 5.242 5.392 5.892 6.532 7.072
3501.095 7.462 7.272 6.802 6.592 6.412 6.002 4.952 3.652 2.632 1.912
3520.385 1.472 1.1086 0.8443 0.6412 0.5119 0.5579 0.5731 0.44669 0.42834 0.41345
3539.674 0.3428 0.44569 0.5379 0.41517 0.3334 0.43034 0.43352 0.2999 0.16 0.203
3558.964 0.215 0.141 0.224 0.223 0.194 0.23 0.325 0.40837 0.40287 0.35854
3578.254 0.35326 0.43105 0.324 0.246 0.3466 0.35497 0.3118 0.2772 0.2715 0.113
3597.544 0.071 0.177 0.253 0.3261 0.225 0.176 0.154 0.153 0.113 0.136
3616.833 0.3347 0.3302 0.233 0.3133 0.205 0.19 0.3089 0.2937 0.3314 0.39606
3636.123 0.40718 0.2747 0.166 0.228 0.2756 0.147 0.049 0.167 0.35445 0.38112
3655.413 0.324 0.311 0.38878 0.44665 0.26 0.19 0.3056 0.2627 0.201 0.106
3674.703 0.075 0.131 0.178 0.084 0 0.172 0.211 0.116 0.15 0.218
3693.993 0.2943 0.247 0.127 0.068 0.212 0.251 0.3025 0.4947 0.43827 0.3071
3713.282 0.3021 0.40603 0.35475 0.216 0.085 0.154 0.249 0.101 0.148 0.2983
3732.572 0.258 0.2677 0.249 0.3147 0.3326 0.202 0.155 0.206 0.18 0.169
3751.862 0.187 0.185 0.34 0.4762 0.42387 0.2688 0.204 0.3155 0.39027 0.211
3771.152 0.093 0.121 0.133 0.11 0.172 0.225 0.21 0.237 0.133 0.067
3790.441 0.184 0.188 0.153 0.088 0.146 0.278 0.3029 0.3099 0.143 0.261
3809.731 0.5104 0.4956 0.39577 0.24 0.172 0.145 0.059 0.212 0.42215 0.39752
3829.021 0.2993 0.229 0.175 0.127 0.057 0.03 0.2 0.2876 0.195 0.204
3848.311 0.2698 0.3173 0.2813 0.149 0.222 0.3237 0.24 0.207 0.167 0.183
3867.601 0.3288 0.278 0.189 0.2888 0.4283 0.45286 0.42309 0.26 0.215 0.2869
3886.890 0.2916 0.35709 0.3284 0.3 0.3166 0.3326 0.278 0.216 0.256 0.187
3906.180 0.213 0.3341 0.2954 0.207 0.124 0.106 0.145 0.163 0.151 0.188
3925.470 0.204 0.14 0.208 0.2867 0.2712 0.191 0.191 0.3231 0.37907 0.247
3944.760 0.111 0.228 0.3056 0.3448 0.39491 0.3269 0.3975 0.3854 0.115 0.137
3964.049 0.211 0.06 0.096 0.118 0.012 0.241 0.4902 0.38692 0.37772 0.38911
3983.339 0.231 0.24 0.3225 0.234 0.2848 0.3482 0.2746 0.3186 0.361146 0.3304
##END=
