##TITLE=4-Fluoro-3-methylanisole
##JCAMP-DX=4.24
##DATA TYPE=INFRARED SPECTRUM
##ORIGIN=EPA-IR VAPOR PHASE LIBRARY
##OWNER=SRD/NIST
Collection (C) 2018 copyright by the U.S. Secretary of Commerce
on behalf of the United States of America. All rights reserved.
##CAS REGISTRY NO=2338-54-7
##MOLFORM=C 8 H 9 F O
##$NIST SOURCE=MSDC-IR
##STATE=gas
##XUNITS=1/CM
##YUNITS=ABSORBANCE
##XFACTOR=1.
##YFACTOR=0.001
##DELTAX=1.92898
##FIRSTX=549.8
##LASTX=4000.7
##FIRSTY=3.599
##MAXX=4000.7
##MINX=549.759
##MAXY=0.385539
##MINY=0
##NPOINTS=1790
##XYDATA=(X++(Y..Y))
549.759 3.599 3.439 2.739 2.369 2.859 4.659 5.059 4.779 5.309 5.069
569.049 5.249 5.339 5.439 6.209 5.969 5.979 6.469 6.869 6.659 5.999
588.339 5.999 5.639 5.699 5.539 4.819 4.309 3.789 3.899 4.229 3.949
607.628 3.949 3.979 3.449 3.359 3.459 2.479 2.329 2.269 2.329 2.819
626.918 2.659 2.349 1.859 1.3047 1.428 1.4738 1.3054 1.619 1.659 1.4741
646.208 1.699 1.599 1.3763 1.4579 1.529 1.719 1.739 1.4664 1.2477 1.529
665.498 1.549 1.639 1.889 2.099 2.769 2.849 2.469 2.869 3.409 3.989
684.787 4.679 5.739 6.779 7.639 9.529 12.889 17.479 23.439 29.959 37.059
704.077 44.279 49.249 52.529 53.719 53.499 53.329 51.479 47.159 41.259 33.499
723.367 25.109 18.119 13.529 11.369 9.859 8.319 7.609 7.459 7.799 8.939
742.657 9.929 11.849 15.679 20.529 26.179 32.809 39.869 45.279 48.659 50.759
761.947 51.969 52.289 50.939 47.639 42.729 36.599 30.079 24.439 20.169 17.899
781.236 17.739 18.489 19.419 21.159 23.239 26.219 30.699 34.929 38.349 39.869
800.526 39.809 39.949 41.109 43.349 44.959 44.779 41.739 35.809 31.409 28.499
819.816 25.969 23.919 21.319 19.859 18.349 17.209 16.939 16.809 17.169 17.759
839.106 19.549 21.359 22.819 24.139 24.049 24.129 24.999 25.779 26.759 27.229
858.395 27.879 28.649 29.239 30.679 32.009 31.129 28.149 25.009 22.759 20.819
877.685 18.769 16.699 14.729 12.859 10.879 9.639 8.529 7.439 6.539 6.049
896.975 6.069 5.619 5.289 5.299 5.219 5.159 5.479 5.749 6.169 6.619
916.265 6.729 7.039 7.419 7.399 7.599 8.099 7.689 7.469 7.509 7.139
935.555 7.119 7.499 7.119 6.079 5.859 6.119 5.839 5.739 6.369 6.469
954.844 6.009 6.269 6.079 5.779 5.829 6.289 6.779 7.179 7.799 8.009
974.134 7.579 7.879 8.579 9.059 9.959 10.279 10.529 11.329 12.029 12.409
993.424 13.109 13.349 13.559 14.049 14.299 14.689 15.009 15.519 16.039 16.869
1012.714 18.669 20.029 21.919 24.459 27.429 31.669 36.899 42.889 49.209 55.809
1032.003 62.759 69.769 76.569 83.349 88.259 90.779 92.129 91.819 90.259 88.339
1051.293 84.269 78.009 71.709 65.049 58.369 51.919 45.269 38.609 33.629 29.499
1070.583 25.689 24.219 22.569 19.449 16.919 15.099 13.929 14.329 14.999 13.829
1089.873 12.639 13.029 13.379 13.189 13.259 14.089 14.359 14.639 15.819 16.939
1109.163 18.499 19.639 19.569 19.729 19.639 18.889 18.599 17.939 17.519 18.499
1128.452 20.129 21.719 23.279 25.599 29.179 34.049 39.289 45.249 52.369 59.099
1147.742 65.089 68.359 67.009 64.589 63.599 61.019 56.069 49.889 42.929 36.029
1167.032 30.589 27.399 26.429 26.779 28.649 30.879 33.899 37.439 40.809 46.849
1186.322 52.499 56.799 64.479 75.639 89.259 107.839 133.979 170.129 211.489 255.959
1205.611 303.539 343.309 369.989 382.429 385.539 382.819 370.439 345.129 303.879 251.159
1224.901 196.439 148.739 113.379 87.569 69.909 60.799 54.769 49.699 44.979 41.729
1244.191 39.469 36.779 33.699 32.069 30.779 29.609 30.099 30.269 30.459 31.569
1263.481 33.319 36.469 40.229 43.859 48.139 52.939 57.539 61.959 64.909 66.179
1282.771 67.299 68.109 67.969 66.629 64.499 61.979 59.429 57.479 56.269 55.529
1302.060 54.789 53.819 52.399 50.759 48.909 46.249 42.919 39.229 35.309 31.359
1321.350 27.399 23.669 20.399 17.309 14.649 12.769 11.199 9.829 8.819 8.189
1340.640 7.689 7.219 7.049 6.949 6.849 6.759 6.849 7.209 7.669 7.989
1359.930 8.229 8.389 8.829 9.269 9.479 9.879 10.289 10.629 10.829 11.109
1379.219 11.519 11.689 11.859 12.059 12.419 13.339 14.399 15.229 16.199 17.819
1398.509 19.859 22.209 25.259 29.049 33.039 37.149 41.319 45.469 49.149 52.139
1417.799 54.349 55.739 56.319 55.739 54.019 51.899 49.459 46.849 44.279 41.989
1437.089 40.099 38.909 38.139 37.689 37.699 38.179 39.229 40.449 41.759 43.559
1456.378 45.739 48.479 51.919 55.739 58.649 60.239 61.639 63.979 67.739 72.899
1475.668 79.609 88.229 99.059 114.059 133.709 158.269 188.979 223.769 261.239 297.159
1494.958 327.419 352.009 367.159 371.959 367.839 355.139 332.909 304.249 270.079 231.379
1514.248 193.779 159.879 131.969 111.189 93.429 80.059 68.899 59.919 53.069 47.369
1533.538 42.419 38.099 34.969 32.469 30.069 27.859 26.009 24.289 22.659 21.279
1552.827 20.619 19.859 18.629 17.829 17.349 17.019 16.789 16.379 16.219 16.139
1572.117 16.119 16.389 16.939 17.649 18.509 19.219 20.019 20.789 21.449 22.409
1591.407 23.199 23.759 24.099 24.149 24.509 25.089 25.229 25.239 25.449 25.779
1610.697 25.669 25.469 25.349 24.829 24.579 23.789 22.429 20.899 19.399 17.659
1629.986 15.839 14.679 13.449 11.959 10.889 10.219 9.559 9.009 8.589 8.039
1649.276 7.489 7.259 6.859 6.259 6.159 5.949 5.699 5.829 5.719 5.759
1668.566 5.589 5.329 5.389 5.319 5.459 5.459 5.529 5.539 5.129 5.099
1687.856 5.229 5.269 5.029 4.679 4.529 4.629 4.629 4.449 4.179 4.109
1707.146 4.339 4.549 4.619 4.579 4.539 4.499 4.719 5.029 4.919 4.769
1726.435 5.089 5.169 5.119 5.019 4.849 4.979 5.009 4.769 4.549 4.409
1745.725 4.099 3.699 3.439 3.449 3.289 2.989 2.829 2.649 2.559 2.539
1765.015 2.689 2.769 2.709 2.819 2.919 2.879 2.969 3.119 2.899 2.559
1784.305 2.619 2.749 2.639 2.509 2.449 2.309 2.349 2.539 2.639 2.769
1803.594 2.779 2.929 3.159 3.159 3.419 3.769 3.869 3.899 3.979 4.049
1822.884 3.969 4.059 4.309 4.509 4.429 4.259 4.439 4.559 4.599 4.809
1842.174 4.799 5.059 5.449 5.579 5.779 5.969 6.169 6.269 6.439 6.459
1861.464 6.409 6.169 5.839 5.599 5.239 4.889 4.269 3.549 3.169 2.989
1880.754 2.629 2.179 2.049 2.149 1.989 1.809 1.719 1.729 1.749 1.619
1900.043 1.689 1.789 1.779 1.749 1.589 1.4676 1.589 1.879 1.799 1.719
1919.333 2.009 2.109 2.109 2.209 2.249 2.129 2.139 2.209 2.299 2.209
1938.623 2.099 2.299 2.359 2.229 2.469 2.849 3.049 3.199 3.249 3.389
1957.913 3.719 3.899 3.889 4.079 4.219 4.209 4.189 4.149 4.059 3.889
1977.202 3.909 3.959 3.859 3.889 3.949 3.879 3.839 4.059 4.159 4.199
1996.492 4.459 4.439 4.329 4.439 4.509 4.559 4.529 4.529 4.489 4.199
2015.782 4.279 4.439 4.379 4.229 4.029 3.879 3.819 3.849 3.669 3.379
2035.072 3.209 3.139 3.219 3.199 3.079 3.139 3.089 3.009 3.059 3.109
2054.362 3.149 3.089 2.959 2.949 3.179 3.329 3.309 3.409 3.519 3.579
2073.651 3.629 3.569 3.509 3.629 3.719 3.749 3.649 3.469 3.229 3.039
2092.941 3.049 2.759 2.559 2.479 2.459 2.469 2.289 2.139 1.999 2.059
2112.231 1.939 1.869 2.139 2.149 2.049 2.039 2.059 2.119 2.229 2.319
2131.521 2.389 2.619 2.819 2.889 2.879 2.889 2.829 2.719 2.809 2.559
2150.810 2.429 2.599 2.369 2.009 1.989 2.059 1.779 1.579 1.519 1.4336
2170.100 1.559 1.789 1.879 1.869 1.979 2.119 2.159 2.279 2.189 2.199
2189.390 2.349 2.489 2.699 2.639 2.619 2.719 2.809 2.779 2.749 2.579
2208.680 2.459 2.559 2.539 2.629 2.469 2.219 2.149 2.099 2.189 2.039
2227.970 2.099 2.179 2.039 2.049 1.959 1.879 1.959 2.019 2.039 2.239
2247.259 2.249 2.119 2.099 2.139 2.229 2.329 2.359 2.229 2.109 2.159
2266.549 2.189 1.969 1.879 1.969 1.829 1.799 1.909 1.829 1.869 2.079
2285.839 2.019 1.949 2.009 2.149 2.239 2.049 2.039 2.299 2.379 2.399
2305.129 2.549 2.809 2.869 2.899 2.929 2.699 2.749 2.819 2.669 2.579
2324.418 2.339 2.199 2.219 2.339 2.479 2.319 2.099 1.949 1.879 1.809
2343.708 2.019 1.969 1.929 2.269 2.109 1.819 1.829 1.909 1.999 2.039
2362.998 1.939 1.979 1.979 1.689 1.659 1.709 1.829 1.969 1.879 1.819
2382.288 1.639 1.549 1.619 1.719 1.849 1.929 1.959 1.779 1.759 1.839
2401.578 1.879 2.039 2.129 2.119 2.169 2.059 2.009 2.219 2.359 2.599
2420.867 2.639 2.539 2.539 2.539 2.649 2.589 2.649 2.649 2.479 2.379
2440.157 2.619 2.709 2.379 2.339 2.289 2.189 2.229 2.189 2.319 2.759
2459.447 3.119 3.019 2.889 2.969 2.999 3.149 3.189 2.959 2.789 2.789
2478.737 2.869 3.009 2.959 2.849 2.519 2.219 2.559 2.759 2.719 2.639
2498.026 2.519 2.679 2.659 2.419 2.549 2.699 2.849 2.739 2.399 2.779
2517.316 2.949 2.779 2.729 2.669 2.919 2.699 2.489 2.329 2.089 2.239
2536.606 2.269 2.049 1.799 1.999 2.119 2.039 2.079 2.029 1.989 2.009
2555.896 1.949 1.869 1.739 1.899 1.959 1.909 1.949 1.879 1.879 2.009
2575.186 2.039 1.979 2.069 2.119 2.189 2.149 2.109 2.169 2.269 2.259
2594.475 2.039 1.929 1.979 2.029 2.239 2.349 2.229 2.259 2.159 2.029
2613.765 2.179 2.079 1.929 1.819 1.559 1.4027 1.559 1.789 1.819 1.689
2633.055 1.759 1.909 1.729 1.749 2.019 2.199 1.999 1.789 1.899 1.939
2652.345 1.599 1.4133 1.709 1.759 1.669 1.829 1.679 1.499 1.599 1.3695
2671.634 1.1919 1.1452 1.1758 1.519 1.839 1.829 1.759 1.839 1.789 1.949
2690.924 2.039 1.989 2.079 1.699 1.489 1.769 1.779 1.699 1.809 1.649
2710.214 1.539 1.759 1.999 1.929 1.839 1.779 1.859 2.139 2.099 1.929
2729.504 2.099 2.269 2.449 2.799 2.719 2.749 2.899 3.109 3.209 3.069
2748.794 3.219 3.589 3.629 3.489 3.499 3.679 3.679 3.109 2.999 3.149
2768.083 2.889 3.059 3.289 3.569 3.739 3.619 3.929 3.889 3.919 4.129
2787.373 4.519 4.889 4.999 5.369 5.889 6.119 6.169 6.309 6.619 7.229
2806.663 7.849 8.149 8.329 8.719 9.419 10.269 10.959 11.809 12.609 13.709
2825.953 15.469 17.759 20.789 23.639 26.519 29.209 31.369 33.559 34.529 35.229
2845.242 35.659 35.189 34.779 33.399 31.359 29.329 27.419 26.569 26.049 25.439
2864.532 25.089 25.109 25.289 25.389 25.559 25.479 25.809 25.959 25.909 26.319
2883.822 26.589 26.489 26.209 26.419 26.789 27.299 27.949 28.989 30.309 31.099
2903.112 32.219 33.739 35.519 37.719 39.789 41.849 44.099 45.779 47.349 49.179
2922.401 50.619 51.739 53.649 56.759 59.929 63.239 66.869 70.359 73.609 75.749
2941.691 76.989 77.959 77.899 76.959 75.489 72.929 70.099 67.699 64.249 59.869
2960.981 55.739 52.029 48.819 45.979 43.459 41.469 39.579 37.579 36.199 35.189
2980.271 34.389 34.039 33.829 34.259 34.949 35.809 37.289 39.319 41.929 44.649
2999.561 47.349 49.329 49.859 49.419 48.299 46.289 43.749 40.969 37.299 33.139
3018.850 28.949 25.069 22.329 20.359 19.199 18.649 18.569 18.579 19.169 20.149
3038.140 20.579 21.379 22.239 22.429 22.099 22.279 22.839 22.939 22.419 21.919
3057.430 21.369 20.229 19.399 18.749 17.579 16.719 16.289 16.099 15.919 15.099
3076.720 14.389 14.029 13.639 13.099 12.589 12.449 11.819 11.089 10.599 9.749
3096.009 9.419 9.089 8.499 8.279 8.179 7.489 7.059 6.849 6.309 6.249
3115.299 6.089 5.729 5.619 5.499 5.309 5.049 4.739 4.849 4.929 4.589
3134.589 4.179 3.889 3.719 3.419 3.239 2.999 2.789 2.659 2.329 2.269
3153.879 2.749 3.209 2.719 2.109 1.909 2.149 2.349 2.229 2.099 1.809
3173.169 1.709 1.989 2.209 2.009 1.589 1.659 1.819 1.609 1.829 1.659
3192.458 1.393 1.929 2.369 1.989 1.579 1.659 1.719 1.669 1.609 1.4224
3211.748 1.3069 1.1302 0.7212 0.369 0.8166 1.4361 1.2281 1.0838 1.1632 1.2891
3231.038 1.1765 1.045 1.3253 1.4574 1.3942 1.2258 1.3245 1.3743 1.3033 0.9458
3250.328 1.0741 1.1614 0.47266 0.3899 0.8409 0.9438 1.0754 1.4567 1.1836 0.8682
3269.617 0.7493 1.1351 1.3789 0.8152 0.7429 0.8577 0.9445 1.0704 0.6731 0.9423
3288.907 1.06 0.6661 0.6761 0.4344 0.415 0.27 0.255 0.6368 0.262 0.126
3308.197 0.7047 1.0493 0.638 0.56623 0.9033 0.6293 0.7801 1.0262 1.0457 0.9436
3327.487 0.5329 0.6757 0.4752 0.095 0.6097 0.7571 0.8229 1.2148 1.2427 1.2345
3346.777 1.1706 0.9164 0.48681 0.215 0.4472 0.7616 1.0029 1.007 1.1305 1.0867
3366.066 0.7138 0.5528 0.6836 1.0481 1.0745 1.4547 1.2379 0.4217 0.5935 0.7741
3385.356 0.7625 0.8334 0.903 1.0759 1.1065 0.8275 0.376 0.372 0.705 0.8628
3404.646 0.7667 0.8013 1.0585 0.7431 0.8728 1.2531 1.2227 0.9643 0.55018 0.582
3423.936 0.7904 0.7426 0.7784 0.8322 0.8532 0.9334 0.992 0.8732 0.7608 0.9021
3443.225 0.8473 0.6425 0.168 0.6902 1.0715 0.245 0.295 0.282 0.188 0.4272
3462.515 0.3877 0.57247 0.5959 0.9255 1.1744 1.2947 1.3607 0.977 0.608 0.9133
3481.805 0.9901 0.6145 0.9104 1.0839 0.7804 0.6012 0.8105 1.1994 1.2641 1.2753
3501.095 1.3911 1.121 1.0278 0.9192 0.8867 1.2485 0.8924 0.6073 0.9222 0.7683
3520.385 0.9216 1.2638 0.6583 0.4328 0.355 0.21 0.7365 0.6301 0.282 0.314
3539.674 0.55819 0.6777 0.49453 0.52996 1.042 1.3475 1.0756 0.8615 0.53857 0.4366
3558.964 0.6078 0.5914 0.6982 0.5878 0.8158 0.7397 0.06 0.4036 0.5993 0.4671
3578.254 0.4154 0.48918 0.7478 0.9294 1.2196 0.9393 0.7731 1.0556 0.9646 0.6109
3597.544 0.4634 0.53352 0.7291 0.843 0.6042 0.255 0.308 0.8828 0.7928 0.7577
3616.833 0.8521 0.36 0.7558 1.0868 1.2575 1.489 1.1967 0.9917 0.8876 0.7103
3636.123 0.6587 0.6732 0.6314 0.7635 0.7874 0.9769 0.926 0.8722 0.52653 0.7496
3655.413 1.4523 0.911 0.485599 0.479879 0.54718 1.0768 1.0452 0.7963 0.6633 0.5944
3674.703 0.8989 0.7708 0.6869 0.657 0.8699 1.0415 0.7398 0.7294 0.51692 0.50704
3693.993 0.7922 0.6175 0.6863 0.5938 0.361 0.5885 0.9576 1.2444 0.622 0.268
3713.282 0.49383 0.365 0.4647 0.51296 0.8693 1.0608 0.6498 0.7803 1.1429 0.8082
3732.572 0.4149 0.349 0.4514 0.7461 0.9023 0.49125 0.8759 1.569 1.3527 0.9042
3751.862 0.365 0.17 0.4602 0.478988 0.7576 0.8856 0.7816 0.8691 0.8676 0.9534
3771.152 0.8569 0.8744 0.8771 1.0468 1.3134 1.789 1.519 0.9857 1.2839 1.559
3790.441 1.0493 0.57198 0.5936 0.6674 0.6984 0.7846 0.9559 1.2978 1.2282 0.761
3809.731 0.8261 0.8819 1.1032 1.1093 1.1141 1.3509 1.509 1.1678 0.6511 0.363
3829.021 0.245 0.349 0.6744 0.8994 1.3832 1.3736 0.6467 0.242 0 0.322
3848.311 0.55417 1.0105 1.569 1.0272 0.6924 0.9112 0.9893 0.9077 0.9402 1.1222
3867.601 1.1347 0.8404 0.6961 0.7369 1.559 2.149 1.3696 0.9103 0.8245 0.9728
3886.890 1.1934 0.7371 0.8526 1.081 0.7265 0.9385 1.2713 1.549 1.739 1.0577
3906.180 1.1721 1.719 1.0674 1.1733 1.3955 1.4292 1.3801 1.3174 1.559 1.206
3925.470 0.57387 0.356 0.4607 0.8885 1.1753 1.001 0.807 1.1515 1.499 1.348
3944.760 1.559 1.2453 0.7359 0.53606 0.3865 0.6917 1.1242 1.4596 1.569 1.2712
3964.049 0.9561 0.7044 1.1023 1.539 1.2106 1.3175 1.559 1.3458 1.3731 1.789
3983.339 1.4527 0.6904 0.8535 1.499 1.489 1.4214 1.2314 1.0135 1.1109 1.3074
##END=
