##TITLE=trans-3-Chloroacrylic acid
##JCAMP-DX=4.24
##DATA TYPE=INFRARED SPECTRUM
##ORIGIN=EPA-IR VAPOR PHASE LIBRARY
##OWNER=SRD/NIST
Collection (C) 2018 copyright by the U.S. Secretary of Commerce
on behalf of the United States of America. All rights reserved.
##CAS REGISTRY NO=2345-61-1
##MOLFORM=C 3 H 3 Cl O 2
##$NIST SOURCE=MSDC-IR
##STATE=gas
##XUNITS=1/CM
##YUNITS=ABSORBANCE
##XFACTOR=1.
##YFACTOR=0.001
##DELTAX=1.92898
##FIRSTX=549.8
##LASTX=4000.7
##FIRSTY=19.11
##MAXX=4000.7
##MINX=549.759
##MAXY=0.10755
##MINY=0
##NPOINTS=1790
##XYDATA=(X++(Y..Y))
549.759 19.11 19.84 20.81 21.31 20.63 19.77 20.14 20.26 19.54 19.6
569.049 19.86 19.54 20.07 19.98 17.62 15.82 14.67 13.46 12.85 12.28
588.339 12.07 11.28 10.29 10.29 10.65 11.49 12.26 13.2 15.16 17.28
607.628 18.86 19.27 18.4 17.77 18.89 21.18 24.67 28.88 31.98 32.92
626.918 31.2 27.62 25.22 24.12 23.23 24.21 25.18 23.58 19.19 14.11
646.208 10.19 7.55 6.03 4.99 3.96 3.37 3.13 2.67 2.75 3.08
665.498 3.05 2.99 3.08 3.1 3.24 3.58 3.71 4.19 4.63 5
684.787 5.72 6.23 6.64 7.03 7.22 7.82 8.56 9.17 9.43 9.31
704.077 9.37 9.4 9.64 9.59 9.46 9.37 8.51 7.63 7.49 7.38
723.367 6.85 6 5.44 5.59 5.5 4.59 4.12 3.82 3.57 3.46
742.657 2.9 2.29 1.97 2.37 2.42 2.17 2.14 2.16 2.07 1.93
761.947 1.91 1.9 1.86 2.01 1.89 1.51 1.59 1.94 2.04 1.79
781.236 2.14 2.58 2.51 2.65 3.17 3.73 3.85 4.11 4.48 4.3
800.526 4.54 4.93 5.29 5.48 5.17 4.93 4.93 4.94 5.04 5.13
819.816 4.71 4.93 5.81 6.05 6.65 7.98 9.49 11.31 13.63 16.43
839.106 19.28 22.29 25.45 28.46 31.32 33.1 33.43 33.56 33.51 32.95
858.395 32.17 30.43 27.35 23.39 19.1 14.98 11.77 9.41 7.51 6.54
877.685 6.16 5.82 5.6 5.28 4.91 4.78 4.88 5.07 5.08 5.1
896.975 5.2 5.66 6.12 5.99 6.62 7.14 7.3 8.14 8.95 9.9
916.265 10.99 11.91 12.85 13.75 14.9 16.13 16.85 17.45 18.23 18.9
935.555 19.88 21.05 22 22.84 22.33 19.62 16.44 14.99 14.08 13.06
954.844 12.36 11.8 11.09 10.04 9.17 8.15 7.11 6.01 5 4.52
974.134 4.08 3.72 3.13 2.46 2.38 2.47 2.14 1.88 1.85 1.47
993.424 1.3 1.4 1.43 1.49 1.69 2.2 2.37 2.38 2.18 2.28
1012.714 2.65 2.49 2.78 2.78 2.63 2.61 2.31 2.19 2.75 3.39
1032.003 2.7 2.49 2.89 3.22 3.35 3.09 2.6 2.11 2.29 1.99
1051.293 1.51 1.7 1.96 1.87 1.45 1.63 2.22 2.58 2.59 1.96
1070.583 2.4 3.68 3.68 4.52 5.54 5.46 6.23 6.75 7.31 8.68
1089.873 10.51 11.84 13.78 16.43 18.61 22 26.39 30.72 36.32 42.28
1109.163 48.73 55.92 61.88 66.99 70.13 73.29 75.95 76.93 78.19 78.39
1128.452 75.65 72.01 68.42 63.61 59.49 55.79 51.73 48.72 47.43 46.94
1147.742 46.3 45.51 43.39 40.67 39.21 37.97 36.76 36.05 35.16 32.32
1167.032 27.52 23.38 20.21 17.52 15.17 13.25 12 10.78 9.63 8.57
1186.322 7.8 7.97 8.06 7.5 7.16 6.62 6.7 8.51 8.66 7.84
1205.611 8.86 9.58 10.61 10.81 10.72 11.88 11.81 12.07 13.16 14.22
1224.901 14.09 14.18 15.43 15.97 16.04 17.2 19.1 19.81 20.33 20.73
1244.191 20.79 20.65 20.25 20.43 20.57 20.25 20.15 19.7 18.41 16.76
1263.481 15.25 14.34 13.87 13.35 12.55 12.04 11.54 10.72 9.99 9.36
1282.771 8.93 8.5 8.09 7.85 7.44 7.07 6.73 6.26 5.79 5.5
1302.060 5.29 5.12 5 4.84 4.86 5.05 5.31 5.46 5.6 5.85
1321.350 6.23 6.83 7.43 8.06 8.69 9.6 10.84 12.17 13.66 15.38
1340.640 17.23 19.1 20.74 22.02 23.23 24.42 25.3 25.65 25.26 24.17
1359.930 22.88 21.74 20.93 19.7 17.26 14.13 11.2 8.9 7.4 6.58
1379.219 6.06 5.79 5.5 5.14 4.75 4.28 3.91 3.58 3.36 3.25
1398.509 3.02 2.9 2.81 2.58 2.45 2.32 2.13 2.04 2.04 1.86
1417.799 1.69 1.73 1.74 1.62 1.49 1.43 1.35 1.29 1.24 1.23
1437.089 1.1806 0.9989 0.899 0.9553 1.0767 0.9954 0.888 0.9745 0.9534 0.9651
1456.378 1.0858 1.0048 0.8872 0.8273 0.7449 0.6105 0.5684 0.7155 0.8457 0.776
1475.668 0.6178 0.6175 0.607 0.493 0.5408 0.6775 0.6649 0.5743 0.6188 0.6497
1494.958 0.5142 0.614 0.6846 0.575 0.6973 0.7809 0.7609 0.8107 0.8219 0.6894
1514.248 0.6255 0.6939 0.6482 0.7406 0.8565 0.8304 0.9398 0.942 0.9146 1.0209
1533.538 1.0289 0.8694 1.045 1.42 1.36 1.36 1.66 1.69 1.62 1.83
1552.827 2.06 2.17 2.18 2.32 2.47 2.5 2.67 3.01 3.23 3.51
1572.117 3.92 4.34 4.96 5.68 6.56 7.85 9.44 11.33 13.69 16.29
1591.407 19.27 22.67 26.29 30.2 34.15 38.28 42.8 47.47 51.85 55.34
1610.697 57.48 58.25 57.31 54.78 51.63 48.83 45.62 41.6 37.4 31.31
1629.986 23.3 15.53 9.8 6.41 4.78 4.19 3.83 3.51 3.24 3.1
1649.276 2.96 2.87 2.83 2.75 2.86 2.93 2.85 2.77 2.67 2.67
1668.566 2.82 2.89 2.89 2.89 2.94 3.04 3.23 3.61 3.88 3.94
1687.856 4.13 4.37 4.36 4.44 4.75 5.02 5.32 5.71 6.01 6.4
1707.146 6.93 7.56 8.17 8.82 9.66 10.67 11.73 13.12 14.93 17.01
1726.435 19.55 22.34 25.45 29.03 33.12 37.58 42.57 48.39 54.92 62.12
1745.725 69.76 77.88 85.93 93.09 98.53 101.8 102.67 102.1 101.79 102.62
1765.015 105.1 107.55 106.23 100.46 92.29 84.08 76.71 70.53 65.21 60.23
1784.305 55.4 50.64 45.97 41.39 37.03 32.92 29.13 25.59 22.24 18.97
1803.594 15.93 13.24 11.05 9.26 7.83 6.68 5.77 5.05 4.5 4.04
1822.884 3.7 3.32 2.98 2.77 2.59 2.37 2.12 2.07 2.1 2.09
1842.174 2.04 1.98 1.95 1.96 1.93 1.89 1.91 2.01 2.04 2
1861.464 1.95 1.86 2.01 2.19 2.09 1.95 1.99 2.04 1.94 1.76
1880.754 1.62 1.58 1.54 1.42 1.34 1.33 1.24 1.1244 1.1402 1.118
1900.043 1.0454 1.0137 0.9984 1.0318 1.0737 1.0955 1.0747 1.1108 1.1756 1.1396
1919.333 1.0911 1.0938 1.1264 1.1492 1.1776 1.171 1.1059 1.0813 0.9789 0.9895
1938.623 1.0124 0.9017 0.9445 0.9527 0.9739 1.1119 1.0154 0.8689 0.905 0.8551
1957.913 0.918 0.9188 0.7903 0.8277 0.905 0.864 0.816 0.8449 0.9223 0.9332
1977.202 0.8157 0.7247 0.7327 0.7604 0.7718 0.8355 0.8026 0.6292 0.5651 0.6579
1996.492 0.6725 0.6567 0.5307 0.5038 0.6432 0.5986 0.6161 0.692 0.6836 0.6987
2015.782 0.5957 0.5676 0.7049 0.7434 0.6771 0.6462 0.7453 0.793 0.7018 0.6895
2035.072 0.7733 0.907 0.9919 0.8843 0.9468 0.9957 0.8285 0.8499 1.0051 1.0487
2054.362 0.9948 0.9796 0.9932 0.9781 0.8472 0.8086 0.9535 0.9505 0.9122 0.9123
2073.651 0.869 0.8716 0.8163 0.7354 0.6755 0.6785 0.7371 0.6429 0.6135 0.7162
2092.941 0.6982 0.6813 0.7277 0.7303 0.5982 0.5892 0.6931 0.6394 0.6268 0.6331
2112.231 0.6308 0.6383 0.5588 0.5747 0.6534 0.6056 0.5645 0.4942 0.5159 0.6165
2131.521 0.6029 0.5719 0.6108 0.7051 0.7063 0.6399 0.6049 0.6755 0.6585 0.5586
2150.810 0.5925 0.6508 0.5647 0.5079 0.6133 0.5275 0.3432 0.3283 0.4259 0.4096
2170.100 0.378 0.4358 0.3684 0.3284 0.4392 0.4882 0.4548 0.5298 0.5898 0.6205
2189.390 0.545 0.4766 0.6277 0.7243 0.6175 0.5582 0.6638 0.6553 0.6016 0.5942
2208.680 0.6041 0.7045 0.813 0.812 0.7419 0.7245 0.7587 0.6884 0.7616 0.8274
2227.970 0.7358 0.8748 0.8253 0.7529 0.8925 0.9453 0.864 0.8269 0.8653 0.8473
2247.259 0.7735 0.7673 0.783 0.616 0.5915 0.6182 0.5387 0.6236 0.5874 0.4886
2266.549 0.5222 0.4152 0.3647 0.4085 0.3724 0.4311 0.7072 0.7911 0.69 0.6434
2285.839 0.644 0.7238 0.721 0.6065 0.7357 0.9114 0.8725 0.8324 0.8343 0.8762
2305.129 0.8251 0.7835 0.8758 0.8938 0.8151 0.8599 0.9054 0.8088 0.7653 0.8157
2324.418 0.8719 0.8638 0.9011 0.8908 0.8515 0.9209 1.0189 1.0112 0.9634 0.8381
2343.708 0.6029 0.6795 0.8141 0.8815 0.8534 0.7182 0.8079 0.9662 1.0483 1.1001
2362.998 1.0551 1.0897 1.1018 0.9812 0.9084 0.896 0.9422 0.968 0.8483 0.6021
2382.288 0.5017 0.5768 0.4994 0.4478 0.4165 0.3813 0.5521 0.4999 0.3263 0.24811
2401.578 0.3378 0.5924 0.697 0.6247 0.5416 0.4521 0.4149 0.3987 0.3324 0.3981
2420.867 0.4546 0.469 0.5414 0.479 0.4758 0.5038 0.4492 0.3996 0.4789 0.493
2440.157 0.4955 0.5891 0.5863 0.6973 0.7533 0.6903 0.688 0.7189 0.6511 0.5793
2459.447 0.5947 0.6268 0.6543 0.7537 0.7756 0.8215 0.9323 0.9356 0.8337 0.7204
2478.737 0.842 0.8042 0.6756 0.5979 0.5795 0.6305 0.5978 0.6133 0.6616 0.6958
2498.026 0.6096 0.5514 0.6224 0.6599 0.5683 0.4861 0.5185 0.6314 0.6185 0.5069
2517.316 0.491 0.653 0.704 0.597 0.6208 0.7144 0.6386 0.4719 0.4251 0.3813
2536.606 0.5154 0.7275 0.614 0.563 0.6474 0.6212 0.529 0.5647 0.7349 0.7364
2555.896 0.6375 0.5044 0.5228 0.6239 0.6067 0.4377 0.3842 0.475 0.4069 0.3909
2575.186 0.4733 0.5104 0.4784 0.3921 0.3951 0.4301 0.4894 0.5502 0.4438 0.4071
2594.475 0.5052 0.4541 0.3163 0.321 0.4752 0.4485 0.36 0.4481 0.408 0.3425
2613.765 0.4212 0.4328 0.4197 0.4147 0.4774 0.4912 0.409 0.6204 0.5778 0.4302
2633.055 0.4811 0.39 0.3142 0.4931 0.665 0.5564 0.388 0.3513 0.2616 0.24024
2652.345 0.4533 0.4389 0.3442 0.4721 0.3776 0.26116 0.5004 0.564 0.496 0.4632
2671.634 0.4565 0.4086 0.4341 0.5661 0.5304 0.527 0.5342 0.575 0.7039 0.6216
2690.924 0.6227 0.7161 0.6713 0.4787 0.4539 0.5562 0.4941 0.4098 0.23861 0.218741
2710.214 0.3824 0.393 0.392 0.4764 0.4761 0.5773 0.6263 0.4122 0.218082 0.3189
2729.504 0.3826 0.30771 0.4471 0.7049 0.5857 0.3179 0.4204 0.5023 0.5354 0.6461
2748.794 0.7409 0.6016 0.3551 0.3604 0.5255 0.4462 0.3962 0.5551 0.5831 0.4777
2768.083 0.3225 0.324 0.27436 0.3116 0.3988 0.4032 0.336 0.3495 0.4742 0.4621
2787.373 0.3964 0.3983 0.4765 0.3996 0.3837 0.3502 0.24512 0.22104 0.25997 0.3583
2806.663 0.3699 0.3807 0.4591 0.5176 0.5365 0.5038 0.6164 0.6382 0.5549 0.5399
2825.953 0.4731 0.4637 0.5723 0.5179 0.4684 0.4816 0.481 0.6215 0.4443 0.4173
2845.242 0.4583 0.362 0.5108 0.58 0.5715 0.7031 0.7206 0.5742 0.5772 0.603
2864.532 0.5385 0.4105 0.3136 0.5108 0.8352 0.8023 0.5967 0.639 0.5506 0.5955
2883.822 0.8552 0.7545 0.5652 0.4274 0.4233 0.4407 0.4554 0.694 0.6913 0.648
2903.112 0.7553 0.7581 0.5839 0.4494 0.3131 0.4397 0.5281 0.30877 0.24392 0.26399
2922.401 0.4714 0.6053 0.6928 0.6095 0.5324 0.63 0.5588 0.3937 0.5652 0.7575
2941.691 0.8202 0.8837 0.6256 0.509 0.5368 0.5722 0.5432 0.7272 0.8704 0.7352
2960.981 0.8151 0.6994 0.5665 0.494 0.4706 0.6735 0.5897 0.6034 0.8932 0.9086
2980.271 0.9178 0.8947 0.7149 0.6409 0.6975 0.8579 0.7592 0.6841 0.7083 0.4966
2999.561 0.3899 0.5638 0.7022 0.647 0.6536 0.6051 0.5645 0.5429 0.5426 0.5947
3018.850 0.6796 0.6728 0.5968 0.6125 0.5667 0.5626 0.6151 0.67 0.6777 0.657
3038.140 0.8458 0.9132 0.892 0.9901 0.9298 0.8412 0.7772 0.7749 0.8812 0.9845
3057.430 0.9097 0.8023 0.9254 0.9309 0.7754 0.7894 1.0282 1.24 1.34 1.47
3076.720 1.51 1.54 1.51 1.64 1.8 1.87 1.94 1.84 1.98 1.96
3096.009 1.83 1.79 1.59 1.6 1.74 1.55 1.24 0.9675 0.9741 1.1065
3115.299 0.9396 0.6706 0.5127 0.5196 0.6189 0.6014 0.4729 0.3988 0.3635 0.29856
3134.589 0.3366 0.30581 0.3582 0.6073 0.6168 0.3958 0.27765 0.5619 0.8125 0.6255
3153.879 0.4837 0.5243 0.6159 0.5864 0.5334 0.5068 0.5222 0.5063 0.4115 0.4427
3173.169 0.5042 0.5417 0.5571 0.629 0.23567 0.25252 0.6815 0.4711 0.3654 0.526
3192.458 0.7439 0.5971 0.3811 0.4775 0.3805 0.3892 0.5088 0.5384 0.5373 0.575
3211.748 0.6957 0.6838 0.5765 0.4454 0.5311 0.6576 0.5885 0.5936 0.8183 0.6588
3231.038 0.3769 0.5204 0.6326 0.6662 0.5748 0.482 0.5669 0.4259 0.22718 0.26474
3250.328 0.3139 0.4855 0.4929 0.535 0.551 0.4802 0.5191 0.4364 0.4468 0.3597
3269.617 0.29843 0.4967 0.3942 0.3363 0.3806 0.3359 0.5107 0.4153 0.24963 0.28155
3288.907 0.28374 0.5339 0.5584 0.43 0.4559 0.445 0.6533 0.6824 0.4188 0.3848
3308.197 0.3715 0.28137 0.251 0.091 0.27553 0.4176 0.3528 0.6375 0.7057 0.6122
3327.487 0.503 0.4259 0.4459 0.29796 0.1838 0.25378 0.4111 0.3796 0.3473 0.6041
3346.777 0.5598 0.5209 0.576 0.3459 0.216242 0.4274 0.5899 0.5546 0.6235 0.6423
3366.066 0.5296 0.4742 0.4315 0.4686 0.457 0.24599 0.3822 0.6616 0.4001 0.3642
3385.356 0.6302 0.6126 0.5451 0.6768 0.7929 0.4287 0.1853 0.543 0.5655 0.5679
3404.646 0.6267 0.3513 0.4586 0.5006 0.3677 0.4263 0.4365 0.3339 0.505 0.5122
3423.936 0.5928 0.6336 0.3436 0.4026 0.4201 0.3286 0.1669 0 0.23127 0.4949
3443.225 0.7234 0.7436 0.3921 0.1144 0.079 0.3891 0.5993 0.6368 0.6751 0.6599
3462.515 0.9235 0.9696 0.7913 0.7395 0.7571 0.9289 0.7486 0.6747 0.7788 0.6772
3481.805 0.8996 1.082 1.1241 1.1298 1.0702 0.9293 0.8351 0.9741 1.1933 1.23
3501.095 1.36 1.53 1.42 1.37 1.34 1.3 1.31 1.46 1.47 1.2004
3520.385 1.23 1.23 1.0521 0.9389 0.9674 1.205 1.1173 1.1456 1.0417 0.8155
3539.674 0.9289 1.1012 1.32 1.52 1.66 1.8 1.96 2.27 2.86 3.58
3558.964 4.78 6.65 9.32 12.98 17.36 22.47 28.25 34 38.39 40.76
3578.254 41.74 42.03 42.48 42.78 42.01 40.5 37.33 32.46 26.94 21.11
3597.544 15.77 11.49 7.95 5.53 4.21 3.13 2.45 2.16 1.82 1.33
3616.833 1.1161 1.1183 1.1981 1.0306 0.8146 0.8919 0.9348 0.8749 0.976 1.0415
3636.123 0.7977 0.6224 0.6435 0.8253 0.7873 0.5311 0.5325 0.5917 0.5782 0.6791
3655.413 0.6373 0.6156 0.928 0.7709 0.4157 0.5486 0.5543 0.4576 0.4309 0.2582
3674.703 0.28502 0.5627 0.7113 0.6847 0.5518 0.3999 0.4695 0.4287 0.4386 0.839
3693.993 0.8003 0.7825 0.7042 0.5413 0.6181 0.434 0.3254 0.532 0.5471 0.43
3713.282 0.4963 0.5954 0.7352 0.6286 0.489 0.3573 0.1301 0.3331 0.5783 0.4494
3732.572 0.22011 0.25057 0.3933 0.5838 0.6136 0.4368 0.5382 0.475 0.26457 0.30384
3751.862 0.5514 0.6611 0.5773 0.4633 0.5112 0.5156 0.5243 0.5515 0.3924 0.4467
3771.152 0.6728 0.4863 0.3459 0.395 0.443 0.439 0.3111 0.210715 0.1112 0.3151
3790.441 0.29806 0.25831 0.3805 0.22433 0.3935 0.4389 0.3872 0.4576 0.3255 0.30592
3809.731 0.34 0.4229 0.5534 0.719 0.5466 0.4333 0.74 0.5374 0.046 0.084
3829.021 0.29096 0.4719 0.466 0.4216 0.4714 0.4754 0.5717 0.5058 0.4062 0.3123
3848.311 0.1289 0.1353 0.3372 0.4914 0.6354 0.4264 0.210876 0.5439 0.664 0.448
3867.601 0.338 0.25258 0.3358 0.5062 0.5439 0.4387 0.26958 0.24103 0.3608 0.5762
3886.890 0.4213 0.1743 0.3229 0.27243 0.22993 0.5378 0.6144 0.4309 0.4906 0.6203
3906.180 0.5269 0.3989 0.1782 0.24579 0.3284 0.27947 0.1263 0.1846 0.595 0.409
3925.470 0.25636 0.5569 0.8562 0.5997 0.29261 0.3886 0.4679 0.5352 0.5363 0.147
3944.760 0.26892 0.5785 0.4825 0.6853 0.7754 0.6235 0.5428 0.7153 0.8443 0.8055
3964.049 0.621 0.5055 0.6827 0.6973 0.6807 0.4643 0.1 0.23618 0.4292 0.3374
3983.339 0.324 0.5122 0.5746 0.5332 0.4319 0.4463 0.4326 0.4291 0.6074 0.628
##END=
