##TITLE=3-Chlorohexane
##JCAMP-DX=4.24
##DATA TYPE=INFRARED SPECTRUM
##ORIGIN=NIST Mass Spectrometry Data Center
##OWNER=NIST Standard Reference Data Program
Collection (C) 2018 copyright by the U.S. Secretary of Commerce
on behalf of the United States of America. All rights reserved.
##CAS REGISTRY NO=2346-81-8
##MOLFORM=C 6 H 13 Cl
##$NIST SOURCE=MSDC-IR
##SPECTROMETER/DATA SYSTEM=HP-GC/MS/IRD
##STATE=gas
##XUNITS=1/CM
##YUNITS=ABSORBANCE
##XFACTOR=1.0
##YFACTOR=0.000003000
##DELTAX=4.0
##FIRSTX=550.0
##LASTX=3846.0
##FIRSTY=0.000513
##MAXX=3846
##MINX=550
##MAXY=0.03
##MINY=0
##NPOINTS=825
##XYDATA=(X++(Y..Y))
550.0 171 62 0 36 44 28 52 80 70 81
590.0 112 130 190 248 301 322 332 360 347 331
630.0 323 316 346 388 398 430 492 539 568 571
670.0 538 467 394 320 235 172 114 75 68 61
710.0 60 62 69 60 73 120 165 205 259 320
750.0 361 382 388 362 339 326 322 343 380 461
790.0 560 609 670 742 789 813 774 717 666 570
830.0 466 375 304 251 208 200 209 220 241 291
870.0 361 450 540 612 674 702 709 686 610 523
910.0 452 367 282 216 150 88 61 52 38 31
950.0 36 34 28 44 61 66 64 71 69 57
990.0 58 62 56 53 49 54 57 66 78 89
1030.0 103 126 141 149 161 154 143 142 153 155
1070.0 149 154 179 211 219 218 230 236 220 207
1110.0 215 236 255 261 263 285 289 285 293 273
1150.0 241 202 159 120 79 56 48 47 51 66
1190.0 93 134 205 292 375 448 514 575 615 620
1230.0 596 564 536 524 518 505 508 518 512 509
1270.0 523 556 587 637 700 754 796 814 805 771
1310.0 717 659 603 542 478 428 387 367 357 346
1350.0 344 338 340 355 380 436 520 616 704 764
1390.0 769 687 562 443 349 299 286 302 349 419
1430.0 514 633 785 942 1091 1261 1426 1537 1585 1561
1470.0 1456 1262 1031 811 613 456 340 255 205 172
1510.0 150 132 123 117 105 102 100 91 91 94
1550.0 91 84 78 75 72 67 64 64 61 59
1590.0 55 52 48 48 44 47 54 50 40 37
1630.0 37 36 36 37 37 38 36 32 31 31
1670.0 33 32 27 26 23 21 21 22 26 23
1710.0 24 22 17 16 19 17 12 13 15 15
1750.0 13 10 10 8 12 12 7 7 8 10
1790.0 8 10 12 10 10 12 17 17 16 13
1830.0 12 10 10 8 11 13 15 18 16 19
1870.0 15 10 16 21 21 19 20 19 15 12
1910.0 14 18 16 18 18 17 22 22 18 20
1950.0 22 22 22 20 23 25 18 14 14 16
1990.0 21 24 26 23 23 25 25 26 29 28
2030.0 27 26 28 30 27 24 19 21 28 27
2070.0 24 21 19 15 16 22 20 20 21 24
2110.0 27 27 29 27 28 21 17 24 28 24
2150.0 22 24 30 35 29 27 28 23 26 35
2190.0 35 31 32 33 32 26 23 23 23 27
2230.0 22 21 23 26 24 22 19 19 18 20
2270.0 23 26 28 28 33 30 21 15 15 19
2310.0 18 25 33 25 25 28 34 36 37 44
2350.0 45 42 45 52 46 43 48 45 41 41
2390.0 47 43 40 39 37 46 50 41 32 37
2430.0 40 32 27 28 31 22 22 30 36 35
2470.0 30 31 32 34 37 38 38 40 43 37
2510.0 37 36 34 35 39 45 38 32 37 46
2550.0 50 53 56 56 57 59 59 55 57 64
2590.0 62 62 68 62 58 62 65 65 60 62
2630.0 66 70 64 61 63 63 76 81 84 85
2670.0 86 87 82 81 88 96 101 97 103 110
2710.0 110 120 127 135 148 163 174 185 205 213
2750.0 214 209 204 210 211 208 211 219 231 246
2790.0 267 276 289 311 338 368 391 425 474 531
2830.0 607 707 824 963 1112 1251 1389 1539 1724 1972
2870.0 2327 2796 3290 3669 3878 3950 3893 3747 3609 3568
2910.0 3646 3817 4035 4333 4746 5286 5973 6719 7409 7964
2950.0 8355 8658 8941 9328 9744 10000 9748 8769 7418 5875
2990.0 4431 3277 2399 1771 1350 1086 928 803 714 664
3030.0 617 577 547 515 477 438 420 406 380 373
3070.0 369 357 342 321 305 285 275 272 261 251
3110.0 233 217 212 210 201 183 175 184 187 189
3150.0 178 162 150 152 150 134 132 145 146 135
3190.0 128 119 116 106 96 101 87 81 86 81
3230.0 80 73 65 59 59 68 67 53 48 49
3270.0 53 53 55 63 61 48 45 46 41 39
3310.0 37 38 41 37 43 44 42 37 34 46
3350.0 50 40 35 41 36 31 45 36 23 36
3390.0 37 33 33 34 23 13 17 14 25 40
3430.0 35 23 27 31 33 41 34 37 51 40
3470.0 27 35 38 31 31 30 37 43 28 26
3510.0 24 33 41 25 22 18 15 24 24 36
3550.0 47 29 23 30 44 37 23 22 24 16
3590.0 23 36 34 34 27 29 36 32 25 25
3630.0 33 38 34 39 37 33 47 55 47 33
3670.0 23 27 37 41 42 44 48 42 44 50
3710.0 38 36 46 50 47 44 36 38 39 41
3750.0 41 25 24 28 28 49 59 49 49 41
3790.0 39 43 44 51 45 42 41 50 57 45
3830.0 52 61 56 61 62
##END=
