##TITLE=2,3,6-Trifluorobenzoic acid
##JCAMP-DX=4.24
##DATA TYPE=INFRARED SPECTRUM
##ORIGIN=EPA-IR VAPOR PHASE LIBRARY
##OWNER=SRD/NIST
Collection (C) 2018 copyright by the U.S. Secretary of Commerce
on behalf of the United States of America. All rights reserved.
##CAS REGISTRY NO=2358-29-4
##MOLFORM=C 7 H 3 F 3 O 2
##$NIST SOURCE=MSDC-IR
##STATE=gas
##XUNITS=1/CM
##YUNITS=ABSORBANCE
##XFACTOR=1.
##YFACTOR=0.001
##DELTAX=1.92898
##FIRSTX=549.8
##LASTX=4000.7
##FIRSTY=14.461
##MAXX=4000.7
##MINX=549.759
##MAXY=0.191461
##MINY=0
##NPOINTS=1790
##XYDATA=(X++(Y..Y))
549.759 14.461 16.581 19.021 21.081 22.401 24.631 26.321 27.611 28.921 29.121
569.049 28.631 27.861 27.181 25.521 23.201 21.381 20.241 18.561 16.661 15.751
588.339 15.121 14.761 14.881 15.081 15.701 16.471 17.121 17.831 18.631 19.541
607.628 20.221 20.401 20.381 19.601 18.431 17.451 15.751 13.751 11.981 10.601
626.918 9.391 8.181 6.921 6.101 5.531 4.931 4.301 3.751 3.981 3.891
646.208 3.741 4.081 3.961 3.821 3.871 3.881 3.621 3.481 4.251 4.861
665.498 5.751 7.821 7.601 6.681 8.261 10.881 14.211 17.811 20.781 22.871
684.787 24.441 25.821 25.631 24.451 23.161 20.751 17.631 14.731 12.611 11.791
704.077 11.801 12.141 13.001 13.491 13.931 14.481 14.551 14.581 14.411 13.871
723.367 13.371 12.801 12.541 12.381 12.471 12.971 14.091 15.241 16.151 17.611
742.657 18.351 19.101 19.481 18.931 17.871 16.521 14.861 12.661 10.611 8.931
761.947 7.971 7.271 6.591 6.351 6.401 6.491 6.391 6.371 6.541 6.711
781.236 6.711 6.631 6.721 6.991 7.071 7.181 7.631 8.381 9.571 11.711
800.526 14.521 16.641 18.921 21.651 24.631 29.121 33.461 33.691 29.471 24.461
819.816 21.041 18.961 16.571 13.191 10.631 8.771 7.191 5.791 4.691 4.171
839.106 3.921 3.751 3.491 3.351 3.321 3.411 3.661 3.841 3.491 3.281
858.395 2.811 2.411 2.581 2.611 2.651 2.721 2.861 2.921 3.071 3.051
877.685 2.801 2.751 2.871 2.681 2.461 2.641 3.081 3.511 3.831 3.901
896.975 4.181 4.611 5.001 5.601 6.441 7.371 8.641 10.591 13.021 16.291
916.265 20.321 24.471 28.331 31.531 33.521 34.731 34.861 34.101 32.631 29.231
935.555 24.091 18.871 14.371 10.911 8.551 6.971 5.891 5.361 5.401 5.381
954.844 5.061 4.851 4.501 4.601 5.021 5.021 5.161 5.211 5.021 4.861
974.134 4.641 4.571 4.331 3.831 3.721 3.791 3.971 4.291 4.561 4.961
993.424 5.401 5.591 6.281 7.291 7.961 9.011 11.161 13.371 15.711 19.091
1012.714 23.021 28.081 33.541 38.441 42.531 44.731 45.061 44.581 44.021 42.331
1032.003 38.901 33.951 28.131 22.181 16.641 12.161 9.341 7.611 6.351 6.081
1051.293 5.801 4.981 4.571 4.691 4.781 4.981 5.111 5.351 5.431 5.351
1070.583 6.341 6.511 5.531 5.621 6.121 6.741 7.171 7.121 7.981 9.731
1089.873 11.141 12.261 13.361 15.301 18.051 22.241 27.291 32.221 38.571 43.391
1109.163 47.131 51.581 53.861 53.451 50.381 44.981 40.391 35.971 30.481 26.811
1128.452 23.991 20.711 18.651 18.631 18.821 18.991 20.051 21.571 24.531 27.811
1147.742 31.741 36.411 40.521 44.811 48.541 51.611 53.061 52.721 50.211 45.941
1167.032 41.351 36.291 31.041 25.941 22.131 19.021 16.191 14.431 13.581 13.131
1186.322 12.871 11.791 11.381 12.461 13.871 14.891 16.271 18.301 20.631 23.311
1205.611 24.771 26.061 28.141 29.711 29.591 29.451 28.401 27.221 25.991 24.081
1224.901 21.861 19.791 19.631 20.161 20.721 22.521 25.491 30.411 36.701 42.051
1244.191 46.431 49.941 52.571 54.411 54.651 54.001 52.081 47.841 42.681 38.481
1263.481 34.971 32.741 32.091 31.371 31.431 31.411 31.301 31.131 30.381 30.021
1282.771 29.271 28.241 27.301 26.341 25.551 24.781 24.091 23.701 23.551 23.581
1302.060 24.111 25.211 26.311 27.341 28.301 29.031 29.851 30.591 30.941 30.881
1321.350 30.491 29.841 29.031 28.391 27.801 27.221 26.731 26.501 26.301 26.081
1340.640 26.051 26.151 26.411 26.811 27.261 27.801 28.641 29.601 30.241 30.821
1359.930 31.391 31.461 31.021 29.931 28.371 26.471 24.081 21.381 18.651 16.091
1379.219 13.701 11.401 9.661 8.311 7.021 6.061 5.471 5.061 4.661 4.351
1398.509 4.141 4.001 3.841 3.731 3.761 3.591 3.401 3.491 3.581 3.601
1417.799 3.651 3.741 3.821 3.931 4.041 4.151 4.261 4.351 4.591 4.911
1437.089 5.361 5.861 6.501 7.321 8.421 9.691 11.041 12.341 13.501 14.691
1456.378 15.751 16.411 17.031 17.421 17.291 16.961 16.701 16.661 17.331 19.121
1475.668 22.101 26.661 33.281 42.551 55.031 71.451 92.001 115.611 140.601 163.471
1494.958 180.471 189.841 191.461 187.241 178.781 165.571 145.411 119.601 91.941 66.161
1514.248 46.531 33.441 25.381 20.681 17.391 15.121 13.561 12.311 11.301 10.151
1533.538 8.861 7.691 7.011 6.501 6.021 5.691 5.341 5.071 4.881 4.701
1552.827 4.591 4.621 4.571 4.421 4.171 3.811 3.671 3.801 3.921 3.861
1572.117 3.731 3.841 3.971 4.011 4.081 4.191 4.571 4.851 5.211 5.881
1591.407 6.661 7.441 8.191 8.841 9.711 10.691 11.341 11.751 12.001 12.391
1610.697 12.871 13.151 13.421 13.881 14.431 15.171 16.261 17.301 18.111 19.081
1629.986 19.951 20.141 19.831 19.331 18.311 16.921 15.171 13.261 11.571 9.961
1649.276 8.201 6.901 5.951 5.051 4.421 3.991 3.751 3.441 3.201 2.961
1668.566 3.011 3.211 3.121 3.011 2.951 2.971 3.151 3.281 3.331 3.351
1687.856 3.271 3.401 3.471 3.321 3.281 3.231 3.441 3.531 3.441 3.611
1707.146 3.631 3.701 4.121 4.491 4.861 5.311 5.801 6.411 7.171 8.161
1726.435 9.161 10.221 11.601 13.221 15.051 16.831 18.641 20.571 22.421 24.531
1745.725 26.651 28.421 30.261 32.211 34.081 36.191 39.051 42.911 48.301 55.551
1765.015 64.881 76.291 89.121 102.161 115.311 127.291 137.531 145.321 148.001 142.741
1784.305 130.141 115.161 101.331 88.011 74.741 62.461 52.361 44.461 38.731 34.591
1803.594 31.161 28.211 25.611 22.941 20.411 18.191 16.221 14.491 13.101 11.871
1822.884 10.701 9.561 8.441 7.681 7.151 6.701 6.341 5.941 5.771 5.721
1842.174 5.751 5.791 5.781 5.911 5.901 5.731 5.451 5.241 5.251 5.041
1861.464 4.681 4.371 4.141 3.881 3.461 3.261 3.181 3.061 3.021 2.831
1880.754 2.581 2.351 2.271 2.171 1.961 1.871 1.811 1.831 1.901 1.941
1900.043 2.011 1.981 1.851 1.821 1.861 1.861 1.7854 1.901 1.951 1.7616
1919.333 1.6461 1.6176 1.6251 1.6084 1.5806 1.5663 1.6246 1.6418 1.6517 1.6443
1938.623 1.5188 1.5499 1.5741 1.5331 1.5578 1.4896 1.5136 1.5383 1.5709 1.6527
1957.913 1.6076 1.4779 1.4568 1.4008 1.3449 1.4032 1.3893 1.3168 1.2807 1.2465
1977.202 1.1708 1.2365 1.3321 1.2999 1.2135 1.1883 1.2375 1.2185 1.2632 1.2699
1996.492 1.1313 1.1381 1.2588 1.2538 1.1978 1.1996 1.2812 1.271 1.0764 1.0451
2015.782 1.033 1.1168 1.2531 1.2697 1.4501 1.4576 1.3432 1.3186 1.3885 1.429
2035.072 1.4863 1.5803 1.5422 1.5068 1.6174 1.7695 1.7571 1.6772 1.611 1.5623
2054.362 1.5122 1.4512 1.4074 1.483 1.4682 1.4632 1.4506 1.3115 1.3355 1.2847
2073.651 1.248 1.3544 1.3791 1.3504 1.2623 1.2424 1.2771 1.2507 1.2784 1.3104
2092.941 1.3453 1.3818 1.4112 1.4221 1.3483 1.2009 1.095 1.0328 0.9893 0.9733
2112.231 0.9002 0.9544 0.9768 0.9658 1.0329 0.9634 0.9806 1.0946 1.1376 1.108
2131.521 1.0332 1.0933 1.2429 1.1921 1.1465 1.1487 1.0259 0.9919 1.1158 1.1143
2150.810 1.0495 1.1246 1.0348 0.9971 1.181 1.1881 1.1692 1.2613 1.2829 1.3073
2170.100 1.282 1.3423 1.3626 1.3565 1.3971 1.3716 1.4251 1.4663 1.4544 1.3641
2189.390 1.3785 1.4077 1.3981 1.3775 1.2536 1.2966 1.424 1.266 1.2547 1.4078
2208.680 1.4229 1.3742 1.3103 1.4707 1.5485 1.5023 1.4881 1.4631 1.4895 1.725
2227.970 1.6416 1.4544 1.6151 1.6726 1.6443 1.6598 1.715 1.6749 1.5642 1.5911
2247.259 1.5684 1.4594 1.5117 1.5689 1.6083 1.5735 1.5644 1.5995 1.6545 1.7574
2266.549 1.7531 1.7718 1.841 1.811 1.801 1.831 1.901 2.011 2.031 2.081
2285.839 2.121 2.271 2.321 2.311 2.441 2.571 2.861 3.121 3.471 3.731
2305.129 3.871 4.181 4.511 4.691 4.831 5.141 5.401 5.481 5.681 5.861
2324.418 5.791 5.831 5.951 5.931 5.811 5.551 5.421 5.491 5.591 5.461
2343.708 5.151 4.821 4.471 4.501 5.101 5.921 6.521 6.891 7.131 7.291
2362.998 7.391 7.321 7.301 7.121 6.601 6.201 5.671 4.911 4.241 3.491
2382.288 2.961 2.551 2.231 1.7892 1.2975 1.3335 1.4926 1.3834 1.2702 1.3661
2401.578 1.3086 1.4113 1.544 1.4449 1.3357 1.3816 1.5181 1.6066 1.5633 1.4273
2420.867 1.5767 1.6565 1.4639 1.3779 1.3509 1.3482 1.5062 1.487 1.3022 1.3442
2440.157 1.4709 1.4584 1.4379 1.3549 1.3087 1.4374 1.6247 1.5928 1.3443 1.3762
2459.447 1.491 1.4907 1.509 1.5889 1.6429 1.5833 1.5585 1.6006 1.5076 1.4217
2478.737 1.3713 1.352 1.4047 1.6003 1.7242 1.5601 1.4211 1.5728 1.7901 1.6366
2498.026 1.2649 1.222 1.2964 1.3167 1.3181 1.2558 1.1402 1.1322 1.3461 1.4695
2517.316 1.4959 1.5017 1.4804 1.5073 1.6477 1.6585 1.5453 1.5981 1.5432 1.2683
2536.606 1.3197 1.334 1.455 1.6892 1.5668 1.4089 1.4483 1.4438 1.3533 1.3999
2555.896 1.4702 1.4163 1.3553 1.3874 1.4037 1.4225 1.3744 1.1829 1.1194 1.1372
2575.186 1.144 1.2229 1.0656 0.88685 0.80115 0.85241 0.9516 0.95 0.9647 0.984
2594.475 1.0956 1.2102 1.1646 1.1143 1.0189 1.0189 1.0979 0.9597 1.0911 1.4251
2613.765 1.3138 1.0234 1.0222 1.049 1.025 1.0413 1.0345 1.0358 1.0722 1.1488
2633.055 1.1485 1.1388 1.0576 0.907 0.9222 0.9824 0.84689 1.0376 1.1244 0.9008
2652.345 0.892 0.85813 0.9369 0.951 0.9213 0.9812 0.9958 0.9039 1.0525 1.1149
2671.634 1.0321 1.1252 0.9306 0.796898 1.0154 1.114 1.0702 0.9776 0.7466 0.676
2690.924 0.7349 0.7103 0.631 0.607 0.82584 0.9735 0.9192 1.1087 1.2706 1.0445
2710.214 0.85151 0.9778 1.1804 1.2362 1.2758 1.1892 1.0625 1.1464 1.218 1.396
2729.504 1.3568 1.0847 0.9958 0.9653 1.1439 1.1906 1.1783 1.1965 1.2369 1.134
2748.794 0.85597 0.7615 0.7285 0.83054 1.0472 1.0911 0.9364 0.9574 1.1586 1.2121
2768.083 1.3053 1.3177 1.1532 1.2296 1.308 1.1288 1.151 1.1289 0.9967 1.264
2787.373 1.4207 1.1475 0.953 1.0446 1.1811 1.2524 1.2342 1.0868 0.9249 0.898
2806.663 1.0011 1.333 1.4689 1.4212 1.3327 1.2556 1.2115 1.2115 1.2867 1.2042
2825.953 1.164 1.1137 1.0126 1.0298 1.1928 1.2353 1.1196 1.2246 1.3168 1.113
2845.242 1.0543 1.2134 1.1269 0.9009 0.9824 1.0435 1.0246 1.0462 1.0616 0.9957
2864.532 0.909 0.8954 0.9456 1.1036 1.1299 1.137 1.2097 1.1928 1.0784 1.1598
2883.822 1.3482 1.3848 1.3939 1.5206 1.4775 1.3998 1.4886 1.4001 1.3137 1.3038
2903.112 1.3534 1.2142 1.1658 1.1685 1.1542 1.2765 1.2298 1.1443 1.0804 1.0647
2922.401 1.1552 1.208 1.1539 1.0087 0.9701 0.9835 0.9958 0.9871 0.8955 1.089
2941.691 1.1489 1.0117 0.9914 0.84555 0.9886 1.0072 0.7574 0.7217 0.605 0.644
2960.981 0.82664 0.88299 0.87825 0.8961 1.1243 1.2255 1.0232 0.9297 1.0855 1.2124
2980.271 0.9383 0.62 0.88427 1.2309 1.1425 0.88515 0.86204 1.0958 1.125 1.2319
2999.561 1.2691 1.1883 1.4157 1.2513 1.1619 1.3953 1.2053 1.0721 0.952 0.9601
3018.850 1.0222 0.8718 0.7248 0.7777 0.9888 0.9649 0.9447 0.87358 0.9266 1.1491
3038.140 0.9965 0.9329 0.8958 0.9415 0.86549 0.87543 1.219 1.228 1.0724 1.0777
3057.430 1.1633 1.2247 1.2084 1.1342 1.3836 1.4511 1.4882 1.4418 1.3854 1.5481
3076.720 1.2863 1.1275 1.0199 1.0154 1.2189 1.0443 0.9567 1.2012 1.2265 0.9933
3096.009 1.0781 1.2951 1.1348 0.81545 0.9912 1.1152 1.0981 1.178 1.0086 0.9173
3115.299 0.764 0.7592 0.9049 0.973 0.6946 0.518 0.78 0.88198 0.536 0.309
3134.589 0.532 0.594 0.634 0.8605 1.1396 1.176 0.83655 0.606 0.635 0.659
3153.879 0.546 0.613 0.7205 0.562 0.78395 1.063 1.125 1.2129 1.037 0.85835
3173.169 0.81734 0.618 0.7012 0.9646 1.0134 1.2426 1.0075 0.7059 0.594 0.531
3192.458 0.78126 0.84929 0.84712 0.9413 1.0471 0.9102 0.83367 1.0542 0.79827 0.676
3211.748 0.84223 0.7078 0.85802 0.84941 0.8963 0.9964 0.88537 0.790349 0.649 0.7643
3231.038 0.81171 1.0387 1.0461 0.627 0.7089 0.81712 0.78803 0.7425 0.7646 0.8931
3250.328 0.8924 0.611 0.512 0.795171 1.0742 1.0754 0.9128 0.9283 0.81779 0.86581
3269.617 1.0377 0.9562 1.0649 1.1742 1.1543 1.1822 0.9625 0.608 0.6931 1.1131
3288.907 0.797117 0.488 0.592 0.535 0.7322 0.518 0.54 0.85141 0.635 0.592
3308.197 0.652 0.646 0.663 0.7194 0.9104 1.2448 1.1847 0.7412 0.7505 0.596
3327.487 0.393 0.574 0.53 0.299 0.455 0.9101 1.1796 1.1095 0.644 0.397
3346.777 0.532 0.65 0.7654 0.9118 0.84977 0.576 0.157 0.205 0.72 1.1345
3366.066 1.0591 0.7167 0.591 0.646 0.7526 0.659 0.568 0.407 0.7037 0.9
3385.356 0.584 0.9899 1.1585 0.7548 1.0486 1.0989 0.7545 0.88969 0.87065 0.7359
3404.646 0.78163 0.648 0.685 0.83726 0.9043 0.9723 0.619 0.602 0.83683 0.86104
3423.936 1.0726 1.0624 0.7831 0.7667 0.80849 1.0555 1.0017 0.601 0.58 0.502
3443.225 0.566 0.9292 0.9624 0.673 0.638 0.585 0.89039 1.0077 0.81079 0.9489
3462.515 0.9272 1.0773 0.9716 0.80974 1.1272 1.1266 1.1775 1.2643 1.2282 1.1236
3481.805 1.0376 1.019 0.9728 1.1516 1.0252 0.62 0.872 1.1049 1.086 1.0261
3501.095 0.804 0.88589 1.2429 1.359 1.0819 1.3074 1.4032 1.2442 1.5099 1.861
3520.385 1.6894 1.7613 2.141 2.131 2.131 2.381 2.641 2.691 2.781 2.851
3539.674 3.051 3.051 3.471 4.621 5.571 6.591 8.231 10.681 15.101 22.101
3558.964 30.451 39.221 46.691 51.541 54.581 55.981 54.881 51.631 47.391 40.841
3578.254 31.341 21.691 14.241 9.461 6.721 5.151 4.091 3.511 3.451 3.161
3597.544 2.801 2.931 2.891 2.331 2.051 2.501 2.501 2.331 2.531 2.441
3616.833 2.611 2.621 2.251 2.251 2.421 2.241 2.181 2.411 2.501 2.091
3636.123 1.5213 1.3719 1.3311 1.3745 1.1487 1.0564 1.2169 1.2643 1.1098 1.2716
3655.413 1.5347 1.2012 0.9449 1.2493 1.3629 1.3107 1.3981 1.2208 1.1466 1.2712
3674.703 1.1033 0.9898 0.88718 0.678 0.595 0.88032 1.0485 0.9523 0.88145 0.7705
3693.993 0.8462 1.0145 0.9966 0.80836 0.87268 0.86141 0.6982 0.85052 1.1273 1.2305
3713.282 1.0696 0.747 0.86205 0.9624 0.87001 0.82615 0.9433 1.2424 1.1475 0.87245
3732.572 0.7363 1.0643 1.2513 1.113 1.0106 1.189 1.2176 1.2061 1.2772 0.84664
3751.862 0.82607 1.107 0.84374 0.6935 0.85018 0.7113 0.513 0.49 0.669 0.63
3771.152 0.606 0.7113 0.95 0.918 0.80503 0.7156 0.80254 0.8982 0.84728 1.049
3790.441 0.973 0.9936 0.9422 0.87797 0.81759 0.38 0 0.323 0.7627 0.608
3809.731 0.498 0.8582 0.9294 0.559 0.568 0.931 1.1318 1.116 1.1744 1.0021
3829.021 0.673 0.704 0.80678 0.88451 0.57 0.274 0.9088 1.288 1.0342 0.9333
3848.311 0.87577 0.87608 0.81036 0.81793 0.86295 0.662 0.7592 0.9871 0.81367 0.569
3867.601 0.7619 1.051 1.2148 1.303 0.9619 0.7462 0.84541 0.9361 0.88426 0.644
3886.890 0.405 0.6 0.9957 0.518 0.5 0.9602 1.0221 0.8883 0.483 0.474
3906.180 0.503 0.523 0.9143 1.0895 1.0623 0.85333 0.58 0.709 0.653 0.366
3925.470 0.416 0.9047 1.1456 0.7518 0.78857 1.2496 1.2584 0.992 0.7442 0.82015
3944.760 1.013 1.0313 1.0476 1.3058 1.3828 0.9443 1.1651 1.2259 1.1853 1.3368
3964.049 1.1253 0.81979 0.693 0.579 0.267 0.592 1.0864 0.9561 1.0369 1.2236
3983.339 0.7778 0.562 0.78143 1.1178 1.2531 0.9674 0.9197 1.0919 0.9636 0.7234
##END=
