##TITLE=N-(4'-Aminophenyl)piperidine
##JCAMP-DX=4.24
##DATA TYPE=INFRARED SPECTRUM
##ORIGIN=EPA-IR VAPOR PHASE LIBRARY
##OWNER=SRD/NIST
Collection (C) 2018 copyright by the U.S. Secretary of Commerce
on behalf of the United States of America. All rights reserved.
##CAS REGISTRY NO=2359-60-6
##MOLFORM=C 11 H 16 N 2
##$NIST SOURCE=MSDC-IR
##STATE=gas
##XUNITS=1/CM
##YUNITS=ABSORBANCE
##XFACTOR=1.
##YFACTOR=0.001
##DELTAX=1.92934
##FIRSTX=549.9
##LASTX=3999.5
##FIRSTY=12.93
##MAXX=3999.53
##MINX=549.863
##MAXY=0.20572
##MINY=0
##NPOINTS=1789
##XYDATA=(X++(Y..Y))
549.863 12.93 12.36 12.1 11.84 11.57 11.46 11.39 11.29 11.28 11.42
569.156 11.62 11.61 11.38 11.15 10.89 10.49 9.81 9.2 8.84 8.56
588.450 8.45 8.45 8.41 8.42 8.53 8.64 8.77 8.83 8.99 9.17
607.743 9.28 9.44 9.7 9.99 10.24 10.56 10.98 11.41 11.85 12.42
627.037 13.14 13.86 14.6 15.47 16.52 17.76 19.16 20.67 22.32 24.02
646.330 25.73 27.41 28.83 29.86 30.47 30.62 30.29 29.55 28.46 27.18
665.624 25.83 24.45 23.08 21.75 20.62 19.64 18.77 18.01 17.38 17
684.917 16.77 16.57 16.55 16.71 16.92 17.21 17.49 17.76 17.98 18.06
704.210 17.92 17.64 17.38 16.97 16.46 15.93 15.36 14.84 14.41 13.94
723.504 13.42 12.94 12.45 12.01 11.54 11.07 10.67 10.28 9.95 9.68
742.797 9.46 9.27 9.09 8.9 8.79 8.74 8.63 8.52 8.53 8.57
762.091 8.53 8.54 8.64 8.77 8.87 9.05 9.29 9.59 9.93 10.33
781.384 10.84 11.38 12.07 12.92 13.87 14.93 16.05 17.4 18.94 20.69
800.678 22.63 24.72 27 29.34 31.49 33.41 34.94 36.06 36.62 36.27
819.971 35.17 33.48 31.36 28.93 26.29 23.62 21.04 18.63 16.49 14.69
839.264 13.22 12.18 11.5 11.01 10.68 10.58 10.81 11.31 11.92 12.44
858.558 12.53 12.3 11.93 11.32 10.42 9.23 8.11 7.31 6.78 6.43
877.851 6.12 5.85 5.73 5.73 5.77 5.84 5.97 6.24 6.61 7.05
897.145 7.64 8.39 9.35 10.48 11.9 13.73 16.12 19.09 22.26 24.92
916.438 26.48 26.9 26.26 24.61 21.91 18.44 15.02 12.17 10.13 8.84
935.732 7.89 7.14 6.54 6.05 5.65 5.29 5 4.82 4.71 4.65
955.025 4.7 4.71 4.75 4.81 4.87 4.91 4.91 4.92 4.86 4.75
974.318 4.62 4.46 4.33 4.18 4.04 3.97 3.96 3.94 3.93 4.02
993.612 4.19 4.38 4.62 4.97 5.45 6.06 6.6 6.98 7.34 7.73
1012.905 8.17 8.72 9.34 10.17 11.21 12.29 13.28 14.1 14.8 15.42
1032.199 15.89 16.13 16.08 15.7 15.09 14.41 13.47 12.16 10.84 9.78
1051.492 9.15 8.85 8.63 8.5 8.49 8.53 8.56 8.53 8.41 8.33
1070.786 8.3 8.25 8.14 8.01 7.94 7.93 7.92 7.89 7.91 8.05
1090.079 8.33 8.58 8.91 9.38 9.93 10.53 11.2 12.06 13.08 14.11
1109.372 15.27 16.47 17.55 18.61 19.69 20.64 21.61 22.61 23.52 24.43
1128.666 25.09 25.2 24.76 23.56 21.79 19.63 16.91 14.05 11.76 10.14
1147.959 9.08 8.39 7.86 7.54 7.33 7.12 6.88 6.58 6.23 5.96
1167.253 5.77 5.72 5.81 6.17 6.56 6.81 7.09 7.45 7.87 8.17
1186.546 8.5 9.09 9.98 11 12.18 13.78 15.87 18.29 21.08 24.65
1205.840 29.1 34.18 39.93 46.27 52.59 58.6 64.09 69.25 73.87 77.6
1225.133 80.18 81.39 80.86 78.36 74.4 69 62.49 55.35 48.45 43.14
1244.426 39.83 38.56 38.89 40.58 43.63 47.92 53.03 58.28 63.05 66.53
1263.720 68.23 67.94 65.56 61.12 54.95 47.91 41.08 35.14 30.17 25.93
1283.013 22.3 19.49 17.32 15.53 14.06 12.92 12.09 11.49 11 10.72
1302.307 10.65 10.69 11.01 11.55 12.25 13.16 14.21 15.41 16.68 17.76
1321.600 18.63 19.18 19.24 18.92 18.2 17.2 16.1 14.97 13.97 13.1
1340.894 12.22 11.52 10.96 10.44 10 9.73 9.62 9.64 9.82 10.14
1360.187 10.67 11.28 12.01 12.93 14.05 15.44 17.1 18.95 20.89 22.58
1379.480 23.59 23.72 23.09 21.87 20.07 17.61 14.94 12.67 10.99 9.86
1398.774 9.14 8.63 8.33 8.16 8.03 7.93 7.89 7.85 7.8 7.8
1418.067 7.86 7.97 8.16 8.54 9.05 9.74 10.62 11.56 12.5 13.52
1437.361 14.54 15.46 16.54 17.79 19.38 21.57 24.37 27.57 30.19 31.12
1456.654 30.87 30.21 29.18 27.05 23.68 20.34 18.11 16.92 16.23 15.57
1475.948 15.05 14.83 15.09 15.89 17.26 19.27 22.01 25.6 30.24 36.18
1495.241 44.07 54.34 66.98 82.59 101.31 123.05 148.39 173.3 193.02 204.62
1514.534 205.72 197.26 181.08 158.21 128.36 98.76 73.05 54.38 42.02 33.91
1533.828 28.1 23.72 20.58 18.02 15.8 14.05 12.63 11.49 10.71 10.06
1553.121 9.57 9.14 8.78 8.53 8.07 7.72 7.53 7.43 7.38 7.36
1572.415 7.39 7.54 7.77 7.94 8.09 8.31 8.6 8.9 9.19 9.57
1591.708 9.98 10.39 10.94 11.76 12.84 14.28 16.09 18.19 20.51 23
1611.002 25.59 28.12 30.34 32.07 33.19 33.74 33.7 32.97 31.64 29.81
1630.295 27.66 25.42 23.16 20.91 18.8 16.9 15.22 13.78 12.46 11.16
1649.588 9.98 9.02 8.02 7.06 6.32 5.74 5.34 4.97 4.61 4.4
1668.882 4.2 3.92 3.76 3.7 3.54 3.41 3.3 3.24 3.25 3.15
1688.175 3.01 2.92 2.88 2.92 2.95 2.92 2.99 2.95 2.87 2.9
1707.469 2.91 2.96 2.98 3.04 3.14 3.17 3.14 3.08 3.09 3.09
1726.762 3.02 3 3 3.01 2.97 2.78 2.64 2.57 2.49 2.39
1746.056 2.32 2.25 2.2239 2.1623 2.0197 1.9876 1.957 1.9025 1.8858 1.8481
1765.349 1.8421 1.887 1.882 1.8755 1.854 1.7664 1.7556 1.803 1.8466 1.8346
1784.642 1.8496 1.8679 1.8539 1.8748 1.9176 1.9352 1.9244 1.9723 2.0464 2.099
1803.936 2.1199 2.1486 2.1993 2.3 2.4 2.47 2.54 2.61 2.71 2.82
1823.229 2.94 3.04 3.13 3.26 3.4 3.48 3.54 3.54 3.51 3.51
1842.523 3.55 3.53 3.4 3.34 3.23 3.11 3 2.9 2.84 2.77
1861.816 2.68 2.61 2.55 2.49 2.41 2.31 2.2259 2.1747 2.1074 2.1019
1881.110 2.0812 2.0215 2.0123 1.9666 1.9204 1.8923 1.8862 1.8763 1.8961 1.9008
1900.403 1.8669 1.8814 1.9325 1.9867 2.028 2.0744 2.1068 2.1166 2.1736 2.26
1919.696 2.32 2.37 2.43 2.42 2.39 2.43 2.41 2.39 2.42 2.34
1938.990 2.2316 2.1849 2.1499 2.0703 1.9729 1.9047 1.8578 1.8205 1.8004 1.7608
1958.283 1.7143 1.6859 1.6746 1.6287 1.5477 1.5338 1.5191 1.4637 1.455 1.4658
1977.577 1.4693 1.4491 1.4119 1.3693 1.33729 1.3414 1.3648 1.3711 1.3483 1.32012
1996.870 1.30393 1.30418 1.28914 1.29721 1.30976 1.31152 1.3445 1.3437 1.3929 1.4886
2016.164 1.5547 1.5653 1.5856 1.6668 1.7577 1.7959 1.8293 1.9173 1.9768 2.0128
2035.457 2.0187 1.9826 1.9412 1.9428 1.9142 1.8543 1.7968 1.7252 1.7165 1.7146
2054.750 1.6948 1.6598 1.6302 1.6011 1.608 1.6393 1.6067 1.6068 1.619 1.6236
2074.044 1.6286 1.6045 1.5943 1.5797 1.5461 1.5337 1.4921 1.4714 1.4773 1.4419
2093.337 1.4069 1.3732 1.3641 1.3451 1.29092 1.2263 1.1623 1.115 1.098 1.086
2112.631 1.069 1.044 1.001 0.997 1.002 0.996 0.997 0.973 0.961 0.974
2131.924 0.99 0.985 0.984 1.014 1.011 1.011 0.986 0.965 1.014 0.984
2151.218 0.97 1.003 1.017 1.037 1.043 1.071 1.088 1.114 1.131 1.1476
2170.511 1.1734 1.1568 1.1549 1.1749 1.1933 1.198 1.2044 1.1788 1.1684 1.1836
2189.804 1.1451 1.12 1.136 1.097 1.057 1.066 1.084 1.098 1.084 1.091
2209.098 1.111 1.119 1.094 1.084 1.1 1.119 1.1702 1.214 1.2072 1.23118
2228.391 1.25634 1.24513 1.26408 1.26894 1.26211 1.27513 1.26335 1.25893 1.26149 1.24747
2247.685 1.2282 1.24415 1.29893 1.32065 1.31307 1.30405 1.32269 1.3551 1.3697 1.3965
2266.978 1.4426 1.4941 1.5419 1.551 1.5648 1.5697 1.5791 1.5793 1.5602 1.5401
2286.272 1.4959 1.4627 1.4483 1.4263 1.4163 1.4323 1.4394 1.467 1.5034 1.5231
2305.565 1.5262 1.5181 1.5783 1.5974 1.5639 1.5772 1.5942 1.5922 1.5993 1.6495
2324.858 1.661 1.6347 1.6231 1.5987 1.5894 1.576 1.5651 1.5623 1.529 1.505
2344.152 1.4959 1.4766 1.4654 1.4441 1.4487 1.5152 1.5416 1.5356 1.5517 1.5383
2363.445 1.506 1.4554 1.3993 1.3572 1.31696 1.31976 1.29304 1.2063 1.1691 1.1537
2382.739 1.1482 1.1401 1.134 1.1424 1.126 1.139 1.1552 1.1705 1.1645 1.1511
2402.032 1.1479 1.176 1.2023 1.1958 1.2276 1.2223 1.2006 1.24514 1.30063 1.28042
2421.326 1.24782 1.267 1.27399 1.28724 1.31986 1.363 1.4135 1.4221 1.4401 1.4922
2440.619 1.5459 1.5759 1.5557 1.5508 1.5912 1.6427 1.6335 1.6098 1.5972 1.5715
2459.912 1.5273 1.5039 1.4776 1.3862 1.3697 1.3578 1.29024 1.24386 1.25453 1.28374
2479.206 1.2649 1.23803 1.2681 1.32554 1.32768 1.32477 1.3442 1.3624 1.364 1.3793
2498.499 1.4373 1.4923 1.5137 1.5283 1.5397 1.5365 1.5751 1.6213 1.5637 1.5483
2517.793 1.5949 1.5881 1.6097 1.6435 1.6316 1.5855 1.5808 1.5911 1.6015 1.6043
2537.086 1.5923 1.5663 1.5703 1.5895 1.5513 1.5999 1.6385 1.6151 1.6523 1.6722
2556.380 1.667 1.6942 1.7146 1.72 1.7082 1.7163 1.7725 1.8302 1.8818 1.9405
2575.673 2.0075 2.0731 2.1815 2.28 2.35 2.47 2.57 2.6 2.64 2.65
2594.966 2.62 2.6 2.61 2.64 2.62 2.58 2.56 2.52 2.54 2.57
2614.260 2.6 2.58 2.57 2.6 2.6 2.65 2.72 2.75 2.83 2.93
2633.553 3.03 3.13 3.25 3.4 3.54 3.66 3.74 3.85 4.01 4.13
2652.847 4.25 4.41 4.55 4.72 4.91 5.1 5.3 5.48 5.68 5.85
2672.140 6.01 6.2 6.3 6.35 6.4 6.52 6.68 6.79 6.87 6.96
2691.434 7.06 7.21 7.37 7.42 7.5 7.58 7.56 7.51 7.44 7.37
2710.727 7.25 7.19 7.21 7.17 7.2 7.31 7.47 7.66 7.96 8.29
2730.020 8.58 9.03 9.51 9.99 10.47 10.88 11.29 11.72 12.02 12.21
2749.314 12.35 12.34 12.29 12.17 12.07 12.13 12.19 12.36 12.75 13.36
2768.607 14.2 15.33 16.65 18.2 20.09 22.18 24.48 26.92 29.5 32.14
2787.901 34.66 37.08 39.21 40.95 42.28 43.04 43.22 42.74 41.59 40.02
2807.194 38.03 35.64 33.06 30.41 27.79 25.31 23.09 21.08 19.34 17.9
2826.488 16.7 15.74 14.97 14.48 14.3 14.28 14.5 15.06 15.82 16.93
2845.781 18.39 20.18 22.36 24.76 27.48 30.39 33.37 36.34 38.65 39.93
2865.074 40.11 39.24 37.51 34.96 31.7 28.23 25.04 22.51 20.61 19.16
2884.368 18.1 17.33 16.87 16.64 16.57 16.79 17.17 17.65 18.37 19.12
2903.661 20.04 21.27 22.81 24.98 27.81 31.46 35.97 41.25 47.38 54.15
2922.955 61.65 70.03 79.08 88.68 98.74 109.16 120.3 132.56 145.29 155.85
2942.248 159.79 154.8 144.4 131.59 115.65 96.57 77.59 62.61 52.18 44.91
2961.542 39.7 35.66 32.51 30 27.81 25.83 23.93 22.16 20.5 18.89
2980.835 17.38 15.94 14.62 13.56 12.77 12.19 11.93 11.96 12.27 12.72
3000.128 13.37 14.2 14.98 15.69 16.07 16.21 16.38 16.51 16.63 16.78
3019.422 17.19 18.07 19.32 20.97 22.88 24.87 26.7 27.94 28.27 27.67
3038.715 26.24 24.03 21.21 18.19 15.43 13.15 11.46 10.45 9.75 9.25
3058.009 9.15 9.05 8.85 8.73 8.65 8.5 8.29 8.08 7.78 7.53
3077.302 7.27 6.98 6.72 6.47 6.23 6.13 6.09 6.01 5.88 5.71
3096.596 5.62 5.43 5.15 5.02 4.81 4.56 4.33 4.07 3.7 3.43
3115.889 3.23 2.95 2.71 2.49 2.38 2.26 2.0602 1.8409 1.7392 1.6752
3135.182 1.5944 1.5176 1.3668 1.23682 1.1782 1.067 0.994 1.065 0.936 0.765
3154.476 0.709 0.713 0.835 0.842 0.713 0.7 0.744 0.708 0.673 0.622
3173.769 0.666 0.766 0.786 0.805 0.776 0.721 0.695 0.667 0.651 0.695
3193.063 0.861 0.883 0.746 0.706 0.7 0.717 0.811 0.891 0.927 0.938
3212.356 0.866 0.774 0.717 0.697 0.658 0.65 0.674 0.635 0.696 0.656
3231.650 0.618 0.718 0.585 0.543 0.575 0.538 0.583 0.659 0.668 0.616
3250.943 0.686 0.746 0.78 0.789 0.683 0.566 0.595 0.63 0.541 0.52
3270.236 0.502 0.47 0.501 0.438 0.448 0.444 0.306 0.302 0.461 0.502
3289.530 0.374 0.293 0.306 0.34 0.307 0.257 0.2 0.12 0.12 0.14
3308.823 0.09 0.2 0.294 0.19 0.22 0.248 0.21 0.268 0.304 0.23
3328.117 0.21 0.17 0.06 0 0.01 0 0.03 0.18 0.21 0.18
3347.410 0.22 0.257 0.346 0.386 0.306 0.3 0.345 0.333 0.394 0.573
3366.704 0.716 0.786 0.871 0.962 0.975 1.029 1.27027 1.4441 1.724 2.0272
3385.997 2.2304 2.6 3.2 3.66 3.96 4.47 4.93 5.17 5.26 5.17
3405.290 4.88 4.5 4.07 3.65 3.21 2.73 2.2331 1.8668 1.7191 1.6017
3424.584 1.5458 1.472 1.3668 1.32609 1.30379 1.27562 1.2599 1.2037 1.1681 1.27309
3443.877 1.3881 1.4845 1.6016 1.6808 1.755 1.8298 1.8995 2.0833 2.2321 2.4
3463.171 2.56 2.63 2.81 3.04 3.28 3.42 3.47 3.61 3.74 3.8
3482.464 3.75 3.76 3.68 3.47 3.31 3.04 2.8 2.5 2.2281 2.0829
3501.758 1.9846 1.8437 1.6242 1.5402 1.464 1.32899 1.23367 1.1644 1.1799 1.051
3521.051 0.895 0.881 0.892 0.796 0.675 0.685 0.643 0.603 0.595 0.523
3540.344 0.616 0.703 0.548 0.447 0.44 0.402 0.31 0.343 0.376 0.26
3559.638 0.23 0.296 0.292 0.34 0.444 0.417 0.329 0.301 0.372 0.367
3578.931 0.2 0.2 0.372 0.456 0.466 0.412 0.328 0.293 0.331 0.388
3598.225 0.405 0.405 0.352 0.329 0.436 0.465 0.434 0.447 0.419 0.379
3617.518 0.379 0.476 0.598 0.457 0.365 0.474 0.493 0.515 0.465 0.356
3636.812 0.4 0.416 0.369 0.43 0.466 0.485 0.645 0.683 0.531 0.606
3656.105 0.749 0.631 0.555 0.572 0.577 0.558 0.474 0.506 0.613 0.66
3675.398 0.614 0.547 0.523 0.514 0.518 0.546 0.557 0.599 0.617 0.552
3694.692 0.574 0.634 0.642 0.614 0.612 0.655 0.695 0.703 0.633 0.611
3713.985 0.627 0.552 0.57 0.666 0.655 0.649 0.795 0.816 0.702 0.697
3733.279 0.747 0.843 0.859 0.75 0.714 0.828 0.861 0.821 0.802 0.759
3752.572 0.72 0.72 0.766 0.757 0.744 0.747 0.732 0.693 0.67 0.63
3771.866 0.646 0.582 0.533 0.667 0.7 0.658 0.642 0.715 0.723 0.689
3791.159 0.733 0.721 0.664 0.664 0.72 0.73 0.647 0.67 0.716 0.669
3810.452 0.679 0.719 0.739 0.792 0.777 0.708 0.713 0.678 0.653 0.661
3829.746 0.689 0.681 0.689 0.772 0.805 0.76 0.776 0.833 0.824 0.864
3849.039 0.865 0.859 0.914 0.916 0.804 0.754 0.857 0.859 0.867 0.9
3868.333 0.915 0.988 0.961 0.945 1.034 1.076 1.095 1.095 1.1924 1.27505
3887.626 1.27842 1.3443 1.2874 1.1588 1.2244 1.3394 1.3697 1.33853 1.33272 1.33392
3906.920 1.3463 1.32096 1.27082 1.32249 1.24558 1.23779 1.28504 1.2029 1.1404 1.1763
3926.213 1.1581 1.052 1.074 1.132 1.085 1.102 1.1942 1.1875 1.2188 1.26369
3945.506 1.2233 1.1672 1.2191 1.29551 1.24081 1.24641 1.27411 1.27575 1.28627 1.28961
3964.800 1.3432 1.3723 1.27671 1.24532 1.31206 1.30214 1.27893 1.23329 1.23884 1.25643
3984.093 1.25416 1.29703 1.29305 1.28008 1.26893 1.2258 1.2268 1.1967 1.132
##END=
