##TITLE=4-Bromo-2-methylphenol
##JCAMP-DX=4.24
##DATA TYPE=INFRARED SPECTRUM
##ORIGIN=EPA-IR VAPOR PHASE LIBRARY
##OWNER=SRD/NIST
Collection (C) 2018 copyright by the U.S. Secretary of Commerce
on behalf of the United States of America. All rights reserved.
##CAS REGISTRY NO=2362-12-1
##MOLFORM=C 7 H 7 Br O
##$NIST SOURCE=MSDC-IR
##STATE=gas
##XUNITS=1/CM
##YUNITS=ABSORBANCE
##XFACTOR=1.
##YFACTOR=0.001
##DELTAX=1.92898
##FIRSTX=549.8
##LASTX=4000.7
##FIRSTY=24.13
##MAXX=4000.7
##MINX=549.759
##MAXY=0.19368
##MINY=0
##NPOINTS=1790
##XYDATA=(X++(Y..Y))
549.759 24.13 23.8 23.16 22.14 20.9 19.7 17.19 13.56 10.47 8.23
569.049 6.88 6.03 5.51 5.15 5.12 5.28 5.19 5.32 5.35 5.34
588.339 5.4 5.16 4.98 5.05 4.98 4.57 4.29 4.34 4.31 4.53
607.628 4.92 5.39 6.83 9.12 12.11 16.67 22.73 29.4 35.49 39.63
626.918 41.23 41.03 39.98 37.69 33.03 26.06 18.65 12.91 9.45 7.35
646.208 6 5.36 4.76 4.37 3.97 3.27 2.97 2.38 1.86 1.69
665.498 1.7 1.69 1.61 1.64 1.43 1.33 1.44 1.66 1.58 1.49
684.787 1.57 1.34 1.29 1.46 1.52 1.37 1.4 1.58 1.65 1.8
704.077 1.83 1.89 1.91 1.76 1.73 1.87 1.88 1.79 1.86 2.03
723.367 2.22 2.25 2.32 2.58 2.61 2.45 2.51 2.98 3.72 4.74
742.657 6.38 8.5 11.03 14.13 16.9 18.88 20.25 21.01 21.49 21.04
761.947 19.21 16.56 13.58 11.11 9.48 8.3 7.72 7.79 8.45 9.84
781.236 11.88 14.15 16.58 19.44 22.64 25.91 29.21 33.29 38.26 42.48
800.526 43.2 41.57 41.1 41.42 41.25 40.52 39.36 37.52 33.89 28.56
819.816 23.95 20.93 18.26 15.69 13.3 11.05 9.35 7.92 6.56 5.63
839.106 5.24 5.05 5.08 5.41 5.87 6.8 8.29 10.27 12.68 15.52
858.395 18.58 21.84 25.27 28.5 31.5 34.4 36.16 35.17 33.01 30.27
877.685 26.02 21.76 17.87 14.24 11.38 9.11 7.4 6.05 4.97 4.19
896.975 3.54 3.07 2.81 2.6 2.6 2.59 2.46 2.54 2.68 2.73
916.265 2.52 2.37 2.53 2.62 2.54 2.59 2.61 2.63 2.82 2.85
935.555 2.92 3.02 3 3.05 2.92 2.83 2.96 3.23 3.35 3.3
954.844 3.22 3.35 3.73 4.16 4.59 4.83 5.04 5.56 6.2 6.48
974.134 6.89 7.7 8.46 9.2 9.96 10.81 11.53 11.91 12.06 11.93
993.424 11.68 11.09 10.35 9.69 8.73 7.57 6.38 5.61 5.42 5.09
1012.714 4.65 4.37 4.21 4.15 4.21 4.33 4.57 5 5.2 5.24
1032.003 5.35 5.55 5.68 5.73 6.01 5.9 5.61 5.64 5.75 5.75
1051.293 5.78 5.66 5.73 6.4 6.83 7.29 8.02 9.12 10.29 11.74
1070.583 13.38 15.37 17.84 19.76 22.05 24.97 28.54 33.08 38.44 44.05
1089.873 49.45 54.83 59.52 63.73 67.92 72.12 77.29 83.65 89.92 94.64
1109.163 97.16 96.75 93.34 88.93 82.94 73.68 61.35 48.72 39.13 32.79
1128.452 29.47 28.5 28.34 28.36 28.56 28.8 28.97 29.08 29.78 31.57
1147.742 34.95 41.32 52.49 69.35 89.24 105.98 112.78 113.21 113.26 112.69
1167.032 109.06 95.18 74.78 57.74 47.67 43.32 42.37 43.98 47.35 52.6
1186.322 59.69 68.69 79.82 92.77 107.48 122.92 136.42 147.15 154.02 156.07
1205.611 152.44 143.02 129.29 112.35 93.98 76.53 60.62 48.01 39.59 34.3
1224.901 31.25 29.48 28.78 29.01 30.13 31.81 34.77 39.27 44.86 51.77
1244.191 60.03 69.53 79.86 90.36 98.88 104.29 107.26 107.09 103.87 98.17
1263.481 89.48 78.35 66.57 55.5 45.74 37.79 31.34 25.79 20.97 17.19
1282.771 14.77 13.74 13.88 14.9 16.7 19.38 22.92 27.27 32.35 37.94
1302.060 43.66 49.33 54.62 58.68 60.7 60.34 57.99 54 48.75 42.47
1321.350 35.37 28.28 22.1 17.14 13.46 10.83 8.99 7.75 7.05 6.74
1340.640 6.6 6.72 7.04 7.48 7.99 8.35 8.53 8.61 8.54 8.34
1359.930 8.01 7.64 7.31 6.96 6.76 6.78 7.09 7.61 8.38 9.55
1379.219 11.04 12.8 14.85 17.42 20.7 24.68 29.01 33.29 37.35 40.84
1398.509 43.5 45.3 46.13 45.79 43.98 40.76 36.82 32.85 29.19 25.87
1417.799 23.08 20.72 18.78 17.34 16.32 15.61 15.1 14.73 14.52 14.47
1437.089 14.45 14.56 14.87 15.27 15.77 16.56 17.59 18.76 20.33 22.3
1456.378 24.74 27.84 31.48 35.84 41 47.16 54.22 62.26 71.41 81.96
1475.668 94.24 109.69 128.63 149.68 169.76 184.75 192.34 193.68 190.46 182.93
1494.958 169.52 149.43 125.66 102.64 83.91 70.11 59.43 50.36 42.08 34.11
1514.248 27.19 21.73 17.68 14.93 12.93 11.48 10.41 9.54 8.81 8.23
1533.538 7.79 7.48 7.14 6.8 6.61 6.47 6.26 6.09 5.99 5.95
1552.827 5.97 5.99 6.17 6.45 6.89 7.4 8.01 8.86 9.68 10.45
1572.117 11.22 12.02 12.82 13.36 13.69 13.93 13.94 13.73 13.48 13.13
1591.407 12.62 12.08 11.55 11.13 10.7 10.13 9.56 8.99 8.33 7.71
1610.697 7.2 6.65 6.16 5.77 5.35 5.02 4.8 4.6 4.37 4.09
1629.986 3.82 3.66 3.47 3.22 2.96 2.73 2.6 2.37 2.11 2.01
1649.276 1.91 1.8 1.74 1.81 1.83 1.75 1.72 1.75 1.75 1.73
1668.566 1.79 1.82 1.82 1.86 1.9 1.9 1.89 1.94 1.91 1.86
1687.856 1.89 1.92 2 2.12 2.15 2.2 2.34 2.46 2.51 2.71
1707.146 2.95 3.07 3.18 3.24 3.29 3.34 3.39 3.46 3.52 3.62
1726.435 3.76 3.92 4.07 4.24 4.38 4.49 4.6 4.7 4.62 4.4
1745.725 4.16 3.91 3.61 3.23 2.91 2.54 2.14 1.9 1.71 1.52
1765.015 1.42 1.29 1.18 1.18 1.1543 1.1394 1.1625 1.1318 1.1556 1.21
1784.305 1.25 1.3 1.33 1.37 1.41 1.5 1.55 1.52 1.49 1.46
1803.594 1.44 1.44 1.45 1.46 1.4 1.43 1.52 1.58 1.67 1.87
1822.884 2.06 2.22 2.45 2.62 2.8 2.97 3.07 3.15 3.16 3.13
1842.174 3.12 3.06 2.9 2.73 2.68 2.62 2.57 2.58 2.64 2.71
1861.464 2.79 2.94 3.01 3.03 3.05 2.99 2.9 2.8 2.69 2.55
1880.754 2.35 2.18 2.03 1.82 1.63 1.49 1.42 1.26 1.1406 1.1635
1900.043 1.1537 1.0923 1.0343 1.0198 1.0209 1.0273 1.0093 0.9515 0.9144 0.8828
1919.333 0.8316 0.7896 0.8391 0.8154 0.7859 0.7627 0.7308 0.7304 0.7585 0.8689
1938.623 0.8792 0.827 0.8053 0.8191 0.851 0.8435 0.8224 0.8158 0.7993 0.8158
1957.913 0.7936 0.8154 0.8495 0.7847 0.7895 0.7504 0.7117 0.7685 0.781 0.7287
1977.202 0.6964 0.6733 0.662 0.6963 0.6962 0.7712 0.8204 0.83 0.9075 1.0385
1996.492 1.1624 1.2 1.29 1.41 1.54 1.67 1.72 1.82 1.9 1.9
2015.782 1.89 1.86 1.85 1.76 1.64 1.55 1.41 1.26 1.1337 0.9957
2035.072 0.9292 0.8582 0.6876 0.6081 0.5632 0.4826 0.4611 0.4266 0.4133 0.4929
2054.362 0.5503 0.5362 0.5798 0.5675 0.4693 0.4879 0.5329 0.57 0.5915 0.5465
2073.651 0.5479 0.569 0.5785 0.5609 0.5178 0.5095 0.4955 0.4321 0.3745 0.3871
2092.941 0.407 0.4033 0.4203 0.4524 0.4527 0.445 0.5025 0.4958 0.4583 0.469
2112.231 0.5311 0.6772 0.7291 0.8111 0.9028 0.9298 0.9499 0.9376 0.9488 0.9592
2131.521 0.9631 0.9684 0.9382 0.8626 0.7959 0.7765 0.7755 0.7192 0.7272 0.7448
2150.810 0.6647 0.5651 0.5063 0.5675 0.5369 0.426 0.4051 0.3946 0.4564 0.4995
2170.100 0.4499 0.4196 0.453 0.4132 0.3906 0.4597 0.4787 0.4592 0.4442 0.3875
2189.390 0.3578 0.4121 0.454 0.5098 0.5178 0.4627 0.4865 0.5155 0.5169 0.5471
2208.680 0.5565 0.5937 0.6254 0.636 0.6733 0.7017 0.7252 0.8139 0.909 0.9447
2227.970 1.0232 1.0696 1.0999 1.1477 1.18 1.24 1.3 1.36 1.39 1.3
2247.259 1.25 1.31 1.29 1.25 1.21 1.1589 1.1144 1.1117 1.1274 1.1431
2266.549 1.1497 1.0703 1.012 0.9857 0.9095 0.8428 0.7528 0.715 0.7466 0.7118
2285.839 0.7605 0.7657 0.6929 0.7038 0.67 0.7067 0.7926 0.8641 0.8733 0.8797
2305.129 0.9704 1.0353 1.0299 1.0864 1.2 1.26 1.27 1.25 1.29 1.34
2324.418 1.36 1.35 1.32 1.39 1.4 1.35 1.37 1.38 1.39 1.37
2343.708 1.4 1.39 1.34 1.34 1.37 1.44 1.48 1.48 1.51 1.58
2362.998 1.64 1.65 1.64 1.61 1.51 1.46 1.51 1.45 1.36 1.31
2382.288 1.31 1.23 1.2 1.27 1.32 1.31 1.29 1.32 1.36 1.4
2401.578 1.43 1.5 1.6 1.67 1.76 1.84 1.8 1.82 1.88 1.79
2420.867 1.73 1.73 1.72 1.69 1.6 1.58 1.5 1.41 1.46 1.44
2440.157 1.38 1.47 1.62 1.64 1.63 1.71 1.82 1.88 1.9 1.89
2459.447 1.95 1.97 1.94 1.97 2.01 1.98 1.93 1.96 1.84 1.71
2478.737 1.67 1.59 1.58 1.58 1.53 1.44 1.51 1.62 1.63 1.61
2498.026 1.69 1.8 1.85 1.93 2 2.05 2.09 2.06 1.89 1.72
2517.316 1.72 1.64 1.45 1.39 1.35 1.22 1.0935 1.0048 0.9145 0.8619
2536.606 0.8852 0.8672 0.8156 0.8016 0.7899 0.8153 0.815 0.757 0.7166 0.6812
2555.896 0.7127 0.7294 0.7824 0.7694 0.6827 0.7343 0.7528 0.7178 0.7264 0.7152
2575.186 0.7533 0.882 0.8345 0.8009 0.8992 0.8657 0.8073 0.8999 0.9 0.8929
2594.475 0.9185 0.8796 0.9101 0.9478 0.9881 0.9993 0.9694 0.9248 0.9455 0.9433
2613.765 0.9118 0.8764 0.7589 0.7556 0.7874 0.6868 0.7155 0.734 0.6475 0.6185
2633.055 0.5901 0.6037 0.6428 0.6456 0.6225 0.7188 0.7453 0.679 0.6838 0.653
2652.345 0.7505 0.7375 0.6387 0.7067 0.6841 0.6137 0.6335 0.6307 0.6331 0.5842
2671.634 0.5832 0.6776 0.6508 0.5675 0.525 0.6299 0.6449 0.5789 0.6372 0.6325
2690.924 0.6163 0.6184 0.5994 0.6495 0.7221 0.692 0.6083 0.591 0.5662 0.565
2710.214 0.6381 0.6381 0.6308 0.6175 0.6762 0.843 0.8357 0.7941 0.8948 0.9432
2729.504 0.8999 0.9547 1.0753 1.1248 1.28 1.44 1.46 1.54 1.61 1.65
2748.794 1.71 1.7 1.62 1.58 1.52 1.39 1.33 1.27 1.21 1.1095
2768.083 1.002 1.0444 0.9621 0.9074 0.9998 0.9726 0.9733 0.9918 1.0634 1.0693
2787.373 1.0701 1.22 1.24 1.1207 1.1502 1.28 1.33 1.41 1.45 1.46
2806.663 1.38 1.4 1.61 1.63 1.67 1.78 1.8 1.8 1.87 2
2825.953 2.08 2.15 2.24 2.42 2.55 2.65 2.87 3.04 3.21 3.46
2845.242 3.92 4.38 4.78 5.29 5.8 6.42 6.92 7.46 8.19 8.86
2864.532 9.51 10.29 10.99 11.49 11.89 12.3 12.62 12.87 13.04 13.03
2883.822 12.92 12.64 12.45 12.29 12.06 11.9 11.78 11.7 11.81 11.88
2903.112 11.92 12.27 12.74 13.24 13.74 14.31 14.99 15.69 16.52 17.53
2922.401 18.57 19.64 20.75 21.75 22.76 23.74 24.46 24.77 24.56 24.03
2941.691 23.33 22.43 21.38 20.06 18.57 17.12 15.75 14.64 13.74 13.02
2960.981 12.53 12.37 12.31 12.1 11.97 11.81 11.76 11.88 11.95 12.07
2980.271 12.19 12.29 12.34 12.21 11.97 11.68 11.28 10.91 10.39 9.77
2999.561 9.2 8.7 8.35 8.23 8.16 8.25 8.66 9.19 9.86 10.66
3018.850 11.71 12.7 13.37 13.73 14 14.12 13.91 13.59 12.97 11.99
3038.140 11.19 10.62 10.14 9.68 9.34 9.38 9.45 9.45 9.45 9.42
3057.430 9.37 9.32 9.3 9.15 8.98 8.71 8.44 8.27 8.06 7.81
3076.720 7.57 7.27 7.11 6.98 6.7 6.48 6.26 6.03 5.75 5.43
3096.009 5.11 4.9 4.69 4.47 4.2 3.91 3.55 3.14 2.81 2.55
3115.299 2.32 1.97 1.73 1.61 1.37 1.0906 0.981 0.9886 0.9367 0.8951
3134.589 0.7818 0.7067 0.6955 0.6852 0.751 0.6738 0.6145 0.5758 0.4951 0.5311
3153.879 0.5356 0.5613 0.5564 0.4537 0.4437 0.4648 0.467 0.4259 0.3107 0.2826
3173.169 0.3139 0.3337 0.3175 0.2906 0.3146 0.3352 0.3612 0.3719 0.4448 0.4793
3192.458 0.3784 0.3697 0.373 0.3377 0.4117 0.4204 0.4766 0.4504 0.3239 0.3394
3211.748 0.3557 0.22534 0.1278 0.174271 0.19913 0.16866 0.1503 0.1554 0.099 0.19502
3231.038 0.2749 0.3045 0.2858 0.19415 0.1192 0.063 0.049 0.034 0.18426 0.26006
3250.328 0.3226 0.3693 0.2708 0.17902 0.19699 0.0945 0 0.143 0.25622 0.21844
3269.617 0.13 0.1273 0.1395 0.26445 0.3686 0.26319 0.158 0.21558 0.18802 0.1384
3288.907 0.176459 0.22308 0.21168 0.21149 0.2977 0.4191 0.4142 0.3248 0.3584 0.3672
3308.197 0.2958 0.3118 0.3286 0.3436 0.4375 0.5124 0.4992 0.5283 0.5541 0.4578
3327.487 0.5167 0.5916 0.4681 0.4277 0.6491 0.6927 0.7206 0.8048 0.7406 0.8043
3346.777 0.8755 0.872 0.9866 1.1053 1.078 1.17 1.24 1.28 1.43 1.34
3366.066 1.22 1.2 1.24 1.3 1.46 1.63 1.48 1.25 1.23 1.25
3385.356 1.29 1.1401 1.0113 1.1681 1.33 1.28 1.0284 1.0498 1.0981 1.0223
3404.646 1.1679 1.31 1.3 1.28 1.23 1.18 1.18 1.24 1.1451 0.9497
3423.936 0.9522 0.9082 0.7812 0.8175 0.8059 0.6316 0.634 0.7508 0.7241 0.7566
3443.225 0.7954 0.7084 0.6982 0.8627 0.8087 0.558 0.5717 0.7193 0.6536 0.4986
3462.515 0.6007 0.7459 0.8522 0.8713 0.8327 0.8178 0.8338 0.7549 0.7748 0.795
3481.805 0.6798 0.6082 0.5512 0.6393 0.6661 0.5773 0.4075 0.381 0.4093 0.2835
3501.095 0.2657 0.476 0.542 0.5112 0.5374 0.5102 0.5657 0.5901 0.487 0.4117
3520.385 0.383 0.4208 0.3827 0.2966 0.3559 0.446 0.4755 0.4546 0.4253 0.5407
3539.674 0.5162 0.4314 0.5986 0.6062 0.5731 0.6092 0.6369 0.57 0.4967 0.5007
3558.964 0.4666 0.593 0.6095 0.506 0.566 0.5653 0.5925 0.5462 0.502 0.5749
3578.254 0.5852 0.6849 0.7817 0.738 0.7568 0.8907 0.9318 1.0672 1.31 1.35
3597.544 1.33 1.45 1.7 1.85 1.99 2.24 2.33 2.67 3.14 3.49
3616.833 3.99 4.72 5.64 6.75 8.27 10.35 13.13 16.68 20.9 26.07
3636.123 32.43 39.95 49.02 60.42 74.24 88.98 101.3 106.65 104.48 100.04
3655.413 96.77 92.53 82.15 64.97 46.89 32.91 23.73 17.49 13.08 9.91
3674.703 7.52 5.73 4.48 3.65 3.07 2.66 2.31 1.99 1.58 1.33
3693.993 1.21 1.0875 0.9923 0.8556 0.7785 0.7208 0.7584 0.7481 0.614 0.5754
3713.282 0.6072 0.5956 0.5195 0.6079 0.6142 0.4725 0.5486 0.6766 0.5027 0.4293
3732.572 0.5051 0.5905 0.7647 0.6958 0.6358 0.6332 0.5451 0.5504 0.6313 0.6653
3751.862 0.6895 0.7624 0.8099 0.7352 0.6929 0.8362 0.9061 0.8349 0.6772 0.5201
3771.152 0.5188 0.5848 0.5398 0.4427 0.4575 0.4828 0.4077 0.4536 0.6128 0.6284
3790.441 0.5696 0.5676 0.6203 0.7711 0.8217 0.8274 0.8672 0.8225 0.8461 0.8842
3809.731 0.7878 0.7585 0.8987 0.7349 0.6661 0.743 0.7604 0.8538 0.8566 0.828
3829.021 0.916 0.9733 0.8868 0.8896 0.8812 0.9576 1.0043 0.9448 0.962 1.0089
3848.311 1.0544 1.0363 0.9442 0.9299 0.8997 0.8845 1.0416 1.1225 0.9361 0.967
3867.601 1.2 1.25 1.0955 0.9112 0.8845 1.047 1.26 1.31 1.29 1.1694
3886.890 1.0741 1.1148 1.0095 0.9508 1.0477 0.9318 0.8206 0.8135 0.9475 1.0244
3906.180 0.8869 0.8978 1.1166 1.3 1.32 1.34 1.41 1.53 1.64 1.51
3925.470 1.43 1.57 1.71 1.63 1.51 1.51 1.51 1.49 1.53 1.5
3944.760 1.35 1.41 1.49 1.46 1.43 1.54 1.57 1.41 1.32 1.28
3964.049 1.22 1.0898 0.9639 0.9001 0.8122 0.8962 0.8515 0.6675 0.6915 0.6875
3983.339 0.6501 0.66 0.563 0.5488 0.5097 0.4593 0.4308 0.21155 0.2974 0.3942
##END=
