##TITLE=2,4,5-Trichloroacetanilide
##JCAMP-DX=4.24
##DATA TYPE=INFRARED SPECTRUM
##ORIGIN=EPA-IR VAPOR PHASE LIBRARY
##OWNER=SRD/NIST
Collection (C) 2018 copyright by the U.S. Secretary of Commerce
on behalf of the United States of America. All rights reserved.
##CAS REGISTRY NO=23627-24-9
##MOLFORM=C 8 H 6 Cl 3 N O
##$NIST SOURCE=MSDC-IR
##STATE=gas
##XUNITS=1/CM
##YUNITS=ABSORBANCE
##XFACTOR=1.
##YFACTOR=0.001
##DELTAX=1.929
##FIRSTX=549.8
##LASTX=4000.8
##FIRSTY=10.902
##MAXX=4000.75
##MINX=549.766
##MAXY=0.070222
##MINY=0
##NPOINTS=1790
##XYDATA=(X++(Y..Y))
549.766 10.902 9.782 8.552 7.112 5.512 4.532 3.592 3.212 2.972 2.822
569.056 2.732 2.462 2.112 1.952 2.062 2.022 1.692 1.632 1.902 1.982
588.346 1.962 2.272 2.362 2.452 2.882 2.742 2.472 2.452 2.442 2.432
607.636 2.332 2.202 2.492 2.882 2.982 3.142 3.522 3.622 3.702 3.672
626.926 3.422 3.212 2.952 2.752 2.272 1.902 1.802 1.722 1.682 1.5584
646.216 1.4477 1.3234 1.2953 1.4045 1.558 1.642 1.6089 1.672 1.5714 1.4677
665.506 1.5775 1.5947 1.5526 1.672 2.012 2.472 3.092 4.212 5.512 6.212
684.796 6.282 6.232 5.912 4.972 3.652 2.512 1.722 1.2503 1.1702 1.0856
704.086 1.0037 1.033 1.1538 1.2494 1.348 1.4877 1.4735 1.3841 1.3439 1.4718
723.376 1.4654 1.2136 1.1256 1.0072 0.948 1.1135 1.2547 1.177 1.1442 1.248
742.666 1.1241 1.1672 1.2506 1.0522 1.0275 1.2257 1.3668 1.3742 1.6203 1.912
761.956 2.112 2.622 3.162 3.792 4.402 5.072 5.702 6.092 6.282 5.942
781.246 5.402 4.702 3.932 3.372 2.872 2.362 1.952 1.662 1.5381 1.3457
800.536 1.2795 1.4795 1.4855 1.414 1.3207 1.2315 1.2324 1.3613 1.5513 1.4672
819.826 1.1232 0.9815 1.0207 0.9448 0.9311 1.064 1.0548 1.0159 1.1692 1.1697
839.116 1.1352 1.1846 1.1204 1.062 1.0012 0.9674 1.1995 1.4384 1.493 1.692
858.406 1.712 1.792 2.192 2.402 2.552 2.872 3.312 3.862 4.552 5.272
877.696 6.112 6.842 7.222 7.322 7.312 7.162 6.722 6.132 5.472 4.792
896.986 4.142 3.642 3.342 3.132 3.022 3.102 3.232 3.302 3.462 3.702
916.276 3.712 3.662 3.552 3.152 2.842 2.662 2.352 2.072 1.862 1.6162
935.566 1.4514 1.3788 1.34 1.351 1.4312 1.5492 1.692 1.952 2.102 2.162
954.856 2.262 2.272 2.152 2.112 2.162 2.112 2.052 2.082 2.092 2.122
974.146 2.242 2.342 2.432 2.562 2.762 2.942 3.172 3.552 3.972 4.312
993.436 4.552 4.822 5.032 4.992 4.792 4.552 4.182 3.832 3.562 3.212
1012.726 2.972 2.842 2.682 2.522 2.322 2.242 2.342 2.362 2.242 2.282
1032.016 2.362 2.502 2.662 2.642 2.702 2.852 2.942 3.062 3.312 3.822
1051.306 4.492 5.032 5.912 7.122 8.482 10.302 12.342 14.302 16.102 17.422
1070.596 18.082 18.132 17.332 15.942 14.132 12.142 10.182 8.382 6.842 5.682
1089.886 4.962 4.362 3.832 3.372 3.102 2.952 2.892 2.852 2.772 2.812
1109.176 2.972 3.202 3.552 4.162 5.022 6.162 7.532 8.852 10.022 11.092
1128.467 11.692 11.882 11.642 10.872 9.852 8.612 7.322 6.082 4.942 4.002
1147.757 3.252 2.602 2.242 2.152 2.072 2.012 2.022 1.932 1.972 2.112
1167.047 2.132 2.202 2.332 2.622 2.892 3.072 3.412 3.722 4.112 4.432
1186.337 4.642 4.982 5.142 5.602 6.422 6.722 7.132 8.322 9.842 11.542
1205.627 13.542 16.242 19.212 22.672 26.512 29.572 31.292 31.662 30.582 27.982
1224.917 24.372 20.572 17.472 15.202 13.462 12.062 10.912 10.052 9.282 8.492
1244.207 8.022 7.782 7.582 7.452 7.402 7.572 7.902 8.222 8.712 9.352
1263.497 10.092 10.902 11.582 12.122 12.432 12.352 11.832 10.882 9.762 8.642
1282.787 7.482 6.602 5.902 5.352 5.042 4.802 4.562 4.382 4.142 3.862
1302.077 3.652 3.452 3.342 3.242 3.152 3.122 3.052 3.152 3.272 3.312
1321.367 3.412 3.512 3.662 3.802 4.002 4.212 4.482 4.902 5.392 5.962
1340.657 6.742 7.832 9.292 11.122 13.522 16.732 20.642 25.102 29.852 34.322
1359.947 38.042 40.902 42.512 42.362 40.372 36.872 32.542 27.842 23.152 18.952
1379.237 15.452 12.702 10.572 9.052 7.912 7.002 6.382 5.922 5.632 5.502
1398.527 5.392 5.292 5.072 4.952 4.882 4.752 4.692 4.712 4.802 4.882
1417.817 5.072 5.302 5.532 5.852 6.342 6.972 7.662 8.572 9.702 10.862
1437.107 12.222 13.662 15.172 16.512 17.552 18.322 18.702 18.782 18.752 18.802
1456.397 19.092 19.582 20.392 21.652 23.252 25.022 27.092 29.532 32.372 35.792
1475.687 39.542 43.862 48.552 53.392 58.062 62.372 66.032 68.752 70.222 70.202
1494.977 68.552 65.172 60.192 53.912 46.792 39.532 32.222 25.722 20.582 16.542
1514.267 13.702 11.702 10.302 9.322 8.582 8.012 7.542 7.262 7.102 6.972
1533.557 6.922 6.902 7.042 7.372 7.672 7.982 8.422 8.992 9.672 10.602
1552.847 11.812 13.322 15.152 17.482 19.932 22.132 24.142 25.722 26.442 26.142
1572.137 24.962 23.142 20.872 18.402 16.162 14.312 13.032 12.212 11.602 10.922
1591.427 10.042 9.092 7.982 6.812 5.672 4.672 3.992 3.632 3.422 3.192
1610.717 3.072 2.922 2.802 2.842 2.772 2.602 2.582 2.542 2.392 2.332
1630.007 2.282 2.212 2.212 2.212 2.122 2.042 1.962 1.922 1.952 1.912
1649.297 1.862 1.932 1.952 1.832 1.772 1.782 1.842 1.902 1.942 2.022
1668.587 2.112 2.212 2.342 2.452 2.612 2.812 2.912 3.072 3.252 3.302
1687.877 3.402 3.542 3.662 3.862 4.202 4.422 4.642 4.882 5.232 5.712
1707.167 6.232 6.832 7.572 8.492 9.662 11.162 13.012 15.132 17.672 20.562
1726.457 23.532 26.522 29.332 31.662 33.492 34.222 33.612 31.882 29.432 26.452
1745.747 22.922 19.002 15.352 12.402 10.292 8.842 7.882 7.352 7.022 6.682
1765.037 6.382 6.172 5.812 5.492 5.202 4.722 4.212 3.782 3.442 3.162
1784.327 2.902 2.702 2.532 2.412 2.352 2.242 2.142 2.072 2.012 1.842
1803.617 1.752 1.692 1.622 1.5735 1.5202 1.4574 1.423 1.4324 1.3881 1.2951
1822.907 1.2848 1.3228 1.2691 1.2729 1.2751 1.2354 1.2508 1.208 1.1738 1.1583
1842.197 1.1251 1.1083 1.0744 1.0689 1.0394 1.0356 1.0361 0.9678 0.9486 1.0291
1861.487 1.0794 1.0564 1.0155 0.9472 0.9186 0.9267 0.8868 0.8704 0.8883 0.8771
1880.777 0.8756 0.8251 0.7871 0.8425 0.8989 0.8923 0.8094 0.79 0.847 0.8699
1900.067 0.8829 0.8725 0.8927 0.9387 0.8795 0.8181 0.8513 0.8648 0.7963 0.8061
1919.357 0.8364 0.7727 0.7261 0.7339 0.7387 0.71555 0.68295 0.66761 0.66965 0.61925
1938.647 0.597 0.6509 0.6568 0.5985 0.621903 0.65884 0.627596 0.5965 0.594 0.6089
1957.937 0.5967 0.6443 0.68154 0.64513 0.65251 0.68044 0.65023 0.62123 0.629212 0.68385
1977.227 0.71361 0.6508 0.622551 0.66181 0.7407 0.7435 0.65557 0.63758 0.64863 0.66001
1996.517 0.71359 0.7525 0.727 0.68999 0.70906 0.69212 0.65077 0.64968 0.66482 0.65822
2015.807 0.624008 0.63962 0.66694 0.69447 0.63411 0.64511 0.64753 0.62077 0.64811 0.6089
2035.097 0.64713 0.631597 0.605 0.6324 0.65021 0.68277 0.63837 0.5536 0.5691 0.566
2054.387 0.522 0.5646 0.5826 0.5592 0.5492 0.551 0.5642 0.517 0.437 0.467
2073.677 0.496 0.455 0.504 0.5268 0.478 0.485 0.511 0.494 0.472 0.51
2092.967 0.5438 0.5371 0.502 0.498 0.5571 0.5221 0.459 0.519 0.5675 0.5641
2112.257 0.6014 0.62682 0.629729 0.6373 0.64356 0.66114 0.64921 0.64403 0.70509 0.7303
2131.547 0.71274 0.67636 0.69066 0.71962 0.67587 0.63785 0.6424 0.63214 0.585 0.6014
2150.837 0.6952 0.7354 0.67817 0.6776 0.7292 0.7389 0.7319 0.69521 0.66849 0.69026
2170.127 0.7276 0.7743 0.8208 0.7829 0.736 0.7729 0.7454 0.7225 0.7421 0.6866
2189.417 0.66914 0.70587 0.7547 0.67202 0.5569 0.5869 0.5958 0.63089 0.629698 0.5925
2208.707 0.5981 0.6083 0.6047 0.5705 0.5774 0.5513 0.513 0.5586 0.5969 0.5737
2227.997 0.5566 0.587 0.5869 0.5611 0.513 0.498 0.471 0.463 0.512 0.5561
2247.287 0.5639 0.5324 0.5571 0.5962 0.629361 0.5454 0.482 0.515 0.5605 0.61463
2266.577 0.63849 0.631417 0.61588 0.6067 0.6 0.67806 0.61691 0.5326 0.5721 0.6083
2285.868 0.6406 0.5698 0.5589 0.624898 0.5566 0.505 0.521 0.5357 0.514 0.5
2305.158 0.527 0.5566 0.5905 0.61477 0.61224 0.6057 0.64367 0.67309 0.71165 0.70246
2324.448 0.66716 0.65905 0.6113 0.5783 0.6084 0.64109 0.5947 0.5632 0.5911 0.63747
2343.738 0.68456 0.624558 0.57 0.5557 0.548 0.63412 0.7264 0.7595 0.7705 0.718
2363.028 0.67513 0.70419 0.7127 0.70832 0.66578 0.63535 0.6104 0.61636 0.624905 0.596
2382.318 0.5652 0.6112 0.63505 0.5956 0.66222 0.64592 0.64508 0.69454 0.66447 0.64605
2401.608 0.64046 0.68077 0.7067 0.71528 0.7262 0.71346 0.68638 0.64282 0.626401 0.5795
2420.898 0.5426 0.5648 0.5511 0.5476 0.5382 0.458 0.447 0.485 0.489 0.552
2440.188 0.5959 0.5342 0.5578 0.5429 0.433 0.419 0.454 0.5564 0.5904 0.5346
2459.478 0.482 0.5247 0.5672 0.5604 0.5801 0.5394 0.5385 0.5253 0.5335 0.571
2478.768 0.5282 0.5288 0.61909 0.61566 0.5796 0.5525 0.506 0.5589 0.5835 0.5332
2498.058 0.579 0.5337 0.458 0.494 0.6025 0.66503 0.549 0.492 0.5534 0.5603
2517.348 0.507 0.501 0.5316 0.514 0.421 0.33 0.324 0.408 0.466 0.485
2536.638 0.481 0.455 0.382 0.376 0.417 0.411 0.447 0.431 0.364 0.394
2555.928 0.4 0.433 0.502 0.451 0.438 0.501 0.5357 0.461 0.455 0.5563
2575.218 0.5841 0.531 0.454 0.496 0.511 0.5331 0.6087 0.64776 0.63452 0.521
2594.508 0.449 0.454 0.511 0.504 0.5697 0.624451 0.494 0.452 0.496 0.492
2613.798 0.471 0.436 0.428 0.373 0.319 0.41 0.473 0.479 0.372 0.272
2633.088 0.364 0.441 0.443 0.397 0.388 0.492 0.508 0.454 0.441 0.401
2652.378 0.375 0.397 0.456 0.448 0.421 0.492 0.417 0.367 0.432 0.445
2671.668 0.5468 0.5961 0.5688 0.565 0.5375 0.465 0.503 0.6387 0.6037 0.5679
2690.958 0.63939 0.66107 0.624707 0.6014 0.5317 0.463 0.5381 0.64978 0.61552 0.508
2710.248 0.513 0.56 0.5511 0.63976 0.69019 0.66895 0.63332 0.5496 0.5419 0.5467
2729.538 0.5325 0.5261 0.529 0.47 0.413 0.435 0.436 0.452 0.489 0.52
2748.828 0.422 0.369 0.506 0.482 0.41 0.398 0.385 0.424 0.389 0.384
2768.118 0.465 0.471 0.456 0.469 0.467 0.431 0.368 0.379 0.495 0.512
2787.408 0.5238 0.5855 0.519 0.418 0.401 0.391 0.485 0.6093 0.495 0.324
2806.698 0.285 0.397 0.506 0.492 0.436 0.405 0.385 0.422 0.5284 0.5319
2825.988 0.5388 0.5256 0.508 0.5978 0.5827 0.6045 0.6104 0.5683 0.5318 0.503
2845.278 0.6006 0.61302 0.5619 0.607 0.7315 0.66947 0.57 0.584 0.521 0.459
2864.568 0.482 0.394 0.297 0.306 0.337 0.443 0.487 0.446 0.455 0.504
2883.858 0.434 0.352 0.407 0.462 0.397 0.47 0.514 0.432 0.403 0.446
2903.148 0.6033 0.69579 0.7806 0.7284 0.64013 0.6021 0.66577 0.65688 0.64559 0.70256
2922.438 0.65939 0.68161 0.66323 0.7718 0.976 1.037 1.0162 1.1106 1.2288 1.2893
2941.728 1.2645 1.2918 1.2598 0.9944 0.903 0.9487 0.9261 0.8059 0.7998 0.7276
2961.018 0.627138 0.7245 0.7655 0.7686 0.7601 0.8234 0.7424 0.69723 0.65082 0.64916
2980.308 0.7343 0.7253 0.65696 0.69847 0.8244 0.7425 0.65884 0.5622 0.5655 0.5895
2999.598 0.5815 0.65135 0.631579 0.64502 0.71117 0.759 0.7745 0.7583 0.7564 0.7741
3018.888 0.8832 0.8948 0.8915 0.9285 0.9925 1.1494 1.0734 0.8633 0.70956 0.7444
3038.178 0.8666 0.7928 0.752 0.8131 0.7223 0.65633 0.7285 0.68441 0.7037 0.8112
3057.468 0.7242 0.6044 0.67732 0.8131 0.7636 0.64077 0.6994 0.71652 0.5965 0.64932
3076.758 0.68732 0.625618 0.7286 0.8972 0.8465 0.739 0.8439 0.825 0.7468 0.9008
3096.048 1.0173 1.037 1.1499 1.3343 1.4669 1.632 1.862 2.132 2.572 2.812
3115.338 2.792 2.642 2.392 2.132 1.722 1.4557 1.2819 1.0707 0.8139 0.71123
3134.628 0.672 0.6439 0.69023 0.7279 0.71571 0.63312 0.5413 0.451 0.504 0.5951
3153.918 0.5687 0.491 0.494 0.49 0.459 0.508 0.506 0.407 0.27 0.271
3173.208 0.292 0.437 0.6005 0.494 0.427 0.317 0.354 0.493 0.466 0.416
3192.498 0.382 0.379 0.412 0.369 0.126 0.092 0.234 0.35 0.442 0.399
3211.788 0.349 0.305 0.287 0.382 0.517 0.5251 0.35 0.327 0.31 0.191
3231.078 0.262 0.379 0.414 0.373 0.32 0.258 0.243 0.329 0.243 0.173
3250.368 0.202 0.21 0.302 0.427 0.457 0.305 0.212 0.235 0.221 0.117
3269.658 0.177 0.271 0.253 0.166 0.222 0.326 0.265 0.261 0.241 0.138
3288.948 0 0.088 0.243 0.266 0.383 0.376 0.273 0.262 0.202 0.156
3308.238 0.281 0.404 0.372 0.302 0.219 0.158 0.23 0.328 0.226 0.205
3327.528 0.277 0.282 0.335 0.302 0.228 0.318 0.222 0.04 0.234 0.36
3346.818 0.204 0.213 0.363 0.301 0.316 0.48 0.368 0.353 0.528 0.371
3366.108 0.188 0.285 0.434 0.451 0.328 0.283 0.372 0.4 0.379 0.467
3385.398 0.5977 0.66618 0.7757 0.71939 0.62546 0.7261 0.7878 0.909 1.0665 0.9933
3404.688 1.0331 1.2009 1.2584 1.3165 1.4999 1.682 1.712 1.772 1.862 2.052
3423.978 2.252 2.582 3.092 3.732 4.652 5.482 6.372 7.512 8.662 9.682
3443.269 10.302 10.202 9.462 8.452 7.122 5.582 4.222 3.202 2.412 1.862
3462.559 1.576 1.2696 1.1309 1.0522 0.8874 0.7653 0.8757 0.9494 0.8925 0.9612
3481.849 0.8926 0.8042 0.7339 0.65796 0.516 0.464 0.5249 0.443 0.255 0.319
3501.139 0.519 0.42 0.299 0.362 0.364 0.345 0.395 0.343 0.457 0.456
3520.429 0.27 0.304 0.371 0.28 0.112 0.26 0.352 0.233 0.174 0.263
3539.719 0.435 0.417 0.41 0.499 0.5485 0.445 0.25 0.248 0.289 0.373
3559.009 0.367 0.335 0.404 0.367 0.197 0.279 0.447 0.344 0.296 0.19
3578.299 0.051 0.07 0.202 0.334 0.342 0.319 0.292 0.212 0.199 0.274
3597.589 0.364 0.37 0.289 0.18 0.269 0.514 0.5603 0.404 0.338 0.354
3616.879 0.311 0.422 0.472 0.297 0.11 0.235 0.413 0.412 0.375 0.315
3636.169 0.477 0.52 0.361 0.298 0.364 0.422 0.403 0.296 0.256 0.34
3655.459 0.393 0.376 0.367 0.336 0.33 0.349 0.338 0.44 0.47 0.488
3674.749 0.5968 0.505 0.327 0.364 0.307 0.39 0.52 0.356 0.209 0.203
3694.039 0.341 0.317 0.308 0.366 0.42 0.429 0.388 0.358 0.252 0.343
3713.329 0.517 0.5592 0.65271 0.5334 0.361 0.326 0.302 0.233 0.35 0.507
3732.619 0.385 0.287 0.341 0.431 0.37 0.412 0.493 0.5323 0.466 0.446
3751.909 0.418 0.21 0.249 0.352 0.322 0.32 0.3 0.342 0.382 0.294
3771.199 0.336 0.434 0.373 0.312 0.358 0.467 0.473 0.326 0.275 0.307
3790.489 0.22 0.171 0.311 0.498 0.506 0.405 0.456 0.396 0.221 0.256
3809.779 0.247 0.227 0.415 0.513 0.288 0.165 0.336 0.325 0.31 0.455
3829.069 0.47 0.406 0.368 0.299 0.252 0.42 0.485 0.433 0.355 0.15
3848.359 0.277 0.363 0.395 0.352 0.254 0.268 0.329 0.438 0.281 0.216
3867.649 0.367 0.475 0.5282 0.478 0.302 0.229 0.379 0.399 0.37 0.553
3886.939 0.422 0.332 0.514 0.477 0.443 0.5801 0.67984 0.462 0.256 0.31
3906.229 0.292 0.398 0.5 0.5632 0.429 0.211 0.248 0.282 0.31 0.28
3925.519 0.21 0.4 0.5228 0.518 0.468 0.412 0.506 0.51 0.355 0.189
3944.809 0.196 0.279 0.318 0.354 0.333 0.319 0.345 0.382 0.383 0.447
3964.099 0.468 0.334 0.395 0.419 0.44 0.446 0.347 0.372 0.28 0.329
3983.389 0.434 0.511 0.536 0.421 0.345 0.281 0.336 0.286 0.167 0.257
##END=
