##TITLE=1-Chloro-1,1-difluoroacetylacetone
##JCAMP-DX=4.24
##DATA TYPE=INFRARED SPECTRUM
##ORIGIN=EPA-IR VAPOR PHASE LIBRARY
##OWNER=SRD/NIST
Collection (C) 2018 copyright by the U.S. Secretary of Commerce
on behalf of the United States of America. All rights reserved.
##CAS REGISTRY NO=2375-76-0
##MOLFORM=C 5 H 5 Cl F 2 O 2
##$NIST SOURCE=MSDC-IR
##STATE=gas
##XUNITS=1/CM
##YUNITS=ABSORBANCE
##XFACTOR=1.
##YFACTOR=0.001
##DELTAX=1.92934
##FIRSTX=549.9
##LASTX=3999.5
##FIRSTY=1.45
##MAXX=3999.53
##MINX=549.863
##MAXY=0.01662
##MINY=0
##NPOINTS=1789
##XYDATA=(X++(Y..Y))
549.863 1.45 1.336 1.2549 1.39 1.46 1.39 1.2924 1.2139 1.2777 1.39
569.156 1.38 1.1826 1.0683 1.1074 1.031 1.0555 1.0771 0.9435 0.9094 0.8948
588.450 0.7256 0.7456 0.8204 0.795 0.8341 0.7399 0.599 0.5387 0.5649 0.6139
607.743 0.5263 0.5175 0.5367 0.5297 0.5868 0.565 0.5823 0.5725 0.574 0.5782
627.037 0.5079 0.547 0.6056 0.545 0.5454 0.562 0.5937 0.6346 0.6253 0.6042
646.330 0.5606 0.5392 0.4622 0.4735 0.4984 0.43604 0.5155 0.5271 0.4715 0.4831
665.624 0.44792 0.3963 0.41347 0.41267 0.40572 0.43445 0.365476 0.359956 0.41676 0.5294
684.917 0.5827 0.5304 0.5247 0.5083 0.5279 0.602 0.6105 0.5952 0.6336 0.7052
704.210 0.7632 0.8385 0.8996 0.9107 0.9882 1.0678 1.1147 1.1451 1.1679 1.1891
723.504 1.2035 1.2805 1.3258 1.2492 1.239 1.2701 1.2935 1.2699 1.1654 1.1819
742.797 1.2249 1.2212 1.3354 1.4 1.45 1.57 1.63 1.76 1.97 2.2
762.091 2.48 2.78 3.14 3.61 4.05 4.49 4.91 5.24 5.47 5.56
781.384 5.54 5.4 5.17 4.84 4.45 4.12 3.91 3.7 3.51 3.39
800.678 3.33 3.37 3.47 3.57 3.69 3.81 3.95 4.07 4.14 4.15
819.971 4.09 3.93 3.74 3.56 3.26 2.95 2.65 2.46 2.35 2.16
839.264 2.05 2.02 1.93 1.86 1.81 1.77 1.81 1.8 1.73 1.7
858.558 1.71 1.7 1.69 1.74 1.77 1.77 1.79 1.78 1.82 1.9
877.851 1.87 1.87 1.91 1.89 1.88 1.9 1.92 1.87 1.91 1.96
897.145 1.98 2.05 2.1 2.2 2.32 2.42 2.57 2.74 2.92 3.18
916.438 3.43 3.64 3.9 4.12 4.29 4.36 4.41 4.47 4.5 4.48
935.732 4.4 4.26 4.13 4.16 4.24 4.38 4.59 4.82 5.12 5.49
955.025 5.92 6.43 6.91 7.35 7.69 7.95 8.18 8.25 8.22 8.09
974.318 7.87 7.62 7.36 7.04 6.68 6.34 6.06 5.8 5.58 5.37
993.612 5.2 5.11 5.01 4.89 4.75 4.62 4.53 4.4 4.27 4.14
1012.905 3.98 3.85 3.69 3.52 3.35 3.2 3.09 2.99 2.86 2.72
1032.199 2.61 2.59 2.59 2.55 2.56 2.55 2.6 2.63 2.61 2.68
1051.492 2.74 2.78 2.84 2.95 3.05 3.08 3.18 3.31 3.41 3.53
1070.786 3.62 3.81 4.07 4.31 4.58 4.99 5.46 6.06 6.84 7.57
1090.079 8.27 9.17 10.12 10.94 11.68 12.16 12.41 12.5 12.24 11.67
1109.372 10.88 9.93 9.05 8.38 7.7 7.18 6.89 6.71 6.65 6.64
1128.666 6.84 7.17 7.38 7.71 8.2 8.58 8.98 9.49 9.87 10.17
1147.959 10.61 10.98 11.12 11.14 11.04 10.81 10.58 10.19 9.81 9.42
1167.253 8.88 8.42 7.96 7.57 7.34 7.28 7.2 7.01 6.92 6.88
1186.546 6.72 6.6 6.45 6.07 5.72 5.49 5.28 4.8 4.59 4.54
1205.840 4.33 4.46 4.42 4.28 4.38 4.46 4.66 4.82 4.88 5.08
1225.133 5.25 5.51 5.64 5.75 5.97 6.09 6.23 6.52 6.79 6.98
1244.426 7.11 7.16 7.19 7.19 7.04 6.74 6.57 6.43 6.13 5.84
1263.720 5.56 5.18 4.78 4.5 4.22 3.94 3.71 3.48 3.27 3.13
1283.013 3.05 2.91 2.79 2.75 2.76 2.77 2.73 2.74 2.78 2.82
1302.307 2.82 2.82 2.85 2.91 2.99 3.02 3.05 3.05 3.09 3.12
1321.600 3.11 3.07 3.1 3.15 3.12 3.09 3.05 3.02 2.97 2.94
1340.894 2.91 2.89 2.89 2.9 2.91 2.9 2.88 2.92 3 3.08
1360.187 3.12 3.13 3.12 3.1 3.12 3.09 3 2.97 2.9 2.78
1379.480 2.74 2.75 2.72 2.65 2.66 2.72 2.73 2.73 2.77 2.8
1398.774 2.87 2.94 3.03 3.12 3.2 3.3 3.38 3.5 3.57 3.62
1418.067 3.68 3.71 3.75 3.75 3.69 3.69 3.65 3.58 3.54 3.48
1437.361 3.37 3.27 3.21 3.14 3.1 3.06 2.94 2.84 2.78 2.76
1456.654 2.71 2.59 2.5 2.4 2.36 2.33 2.25 2.21 2.16 2.08
1475.948 2.05 2.03 1.97 1.91 1.89 1.86 1.82 1.82 1.85 1.81
1495.241 1.74 1.74 1.73 1.69 1.71 1.79 1.82 1.77 1.76 1.79
1514.534 1.79 1.82 1.86 1.89 1.94 1.96 2 2.08 2.14 2.19
1533.828 2.23 2.27 2.4 2.56 2.66 2.75 2.85 2.96 3.14 3.26
1553.121 3.38 3.58 3.81 4.09 4.23 4.38 4.69 4.96 5.21 5.57
1572.415 5.94 6.38 6.84 7.29 7.83 8.45 9.09 9.76 10.47 11.22
1591.708 12.01 12.79 13.55 14.28 14.99 15.56 16.04 16.39 16.55 16.62
1611.002 16.46 16.09 15.64 15.01 14.25 13.44 12.56 11.73 10.96 10.2
1630.295 9.51 8.94 8.47 8.04 7.66 7.39 7.22 7.08 6.95 6.88
1649.588 6.82 6.78 6.73 6.66 6.56 6.47 6.39 6.29 6.14 5.93
1668.882 5.7 5.49 5.25 5 4.73 4.46 4.2 3.94 3.74 3.5
1688.175 3.26 3.1 2.95 2.85 2.75 2.59 2.52 2.45 2.36 2.31
1707.469 2.28 2.31 2.33 2.32 2.36 2.44 2.53 2.59 2.7 2.84
1726.762 2.95 3.1 3.3 3.45 3.59 3.69 3.73 3.75 3.69 3.58
1746.056 3.52 3.43 3.33 3.2 3.06 2.99 2.92 2.87 2.82 2.81
1765.349 2.83 2.8 2.75 2.7 2.61 2.48 2.39 2.27 2.12 1.9
1784.642 1.72 1.61 1.43 1.2936 1.2016 1.0761 0.9252 0.8294 0.8022 0.7687
1803.936 0.712 0.6501 0.654 0.6622 0.6155 0.5966 0.6 0.5744 0.5042 0.4913
1823.229 0.5192 0.4918 0.5019 0.5165 0.4925 0.44106 0.42133 0.42648 0.3919 0.41341
1842.523 0.43415 0.43325 0.41529 0.37578 0.37569 0.38813 0.41033 0.41491 0.39255 0.37632
1861.816 0.3469 0.359869 0.39455 0.4128 0.41882 0.39059 0.364498 0.3479 0.35268 0.366077
1881.110 0.3416 0.35575 0.38361 0.361703 0.369995 0.38153 0.35384 0.35648 0.35678 0.3161
1900.403 0.312 0.35012 0.35693 0.369674 0.369206 0.3341 0.3392 0.369267 0.37811 0.35805
1919.696 0.332 0.3081 0.3259 0.362369 0.3281 0.2754 0.3246 0.359522 0.346 0.3477
1938.990 0.3388 0.35612 0.362788 0.343 0.3451 0.35601 0.3217 0.3047 0.3275 0.3048
1958.283 0.2793 0.285 0.2923 0.2973 0.3125 0.3091 0.2856 0.2957 0.3392 0.3449
1977.577 0.3077 0.2835 0.2968 0.3041 0.2936 0.3019 0.3095 0.293 0.285 0.2753
1996.870 0.2779 0.3232 0.3377 0.2981 0.2773 0.2682 0.243 0.2615 0.2728 0.283
2016.164 0.299 0.2859 0.2908 0.3016 0.2748 0.2921 0.3081 0.2723 0.245 0.225
2035.457 0.218 0.224 0.2681 0.2741 0.2765 0.3134 0.2942 0.2877 0.2986 0.3004
2054.750 0.3166 0.2887 0.2743 0.2628 0.248 0.243 0.252 0.2722 0.251 0.258
2074.044 0.2759 0.2786 0.2697 0.2682 0.256 0.2617 0.3005 0.2971 0.2985 0.3178
2093.337 0.3071 0.3064 0.3245 0.3145 0.3264 0.3337 0.3258 0.3356 0.35047 0.3451
2112.631 0.312 0.2992 0.3158 0.3191 0.3092 0.3137 0.3119 0.2842 0.299 0.3322
2131.924 0.3176 0.3072 0.3001 0.2921 0.3016 0.3227 0.3239 0.329 0.3296 0.3244
2151.218 0.3194 0.3134 0.2887 0.2652 0.2795 0.2837 0.2889 0.282 0.277 0.2683
2170.511 0.259 0.243 0.258 0.3003 0.2953 0.2987 0.3269 0.3484 0.3243 0.273
2189.804 0.2977 0.314 0.3174 0.3371 0.3094 0.3129 0.2989 0.3049 0.3332 0.3169
2209.098 0.31 0.3252 0.3141 0.2922 0.3443 0.367961 0.3387 0.3494 0.3432 0.3368
2228.391 0.3312 0.295 0.2779 0.3112 0.3339 0.3134 0.3211 0.3299 0.337 0.3264
2247.685 0.3018 0.3232 0.3382 0.3247 0.3383 0.3193 0.292 0.2996 0.291 0.324
2266.978 0.35608 0.3294 0.3301 0.359695 0.35469 0.3124 0.2895 0.3017 0.3246 0.3035
2286.272 0.2927 0.3225 0.3194 0.3227 0.3447 0.360016 0.359336 0.3459 0.3153 0.305
2305.565 0.3411 0.347 0.3129 0.2968 0.3342 0.338 0.304 0.2912 0.2969 0.3044
2324.858 0.3156 0.367294 0.37858 0.3556 0.35357 0.37841 0.40991 0.40681 0.3385 0.3242
2344.152 0.3327 0.3286 0.35472 0.3159 0.3028 0.35722 0.359823 0.3438 0.3443 0.3341
2363.445 0.3202 0.3405 0.361331 0.3496 0.3428 0.3443 0.3367 0.2839 0.255 0.2936
2382.739 0.3187 0.3307 0.3354 0.3351 0.3488 0.35319 0.35836 0.35879 0.35641 0.343
2402.032 0.3176 0.3413 0.3354 0.2993 0.3224 0.3292 0.332 0.3123 0.2937 0.2999
2421.326 0.2934 0.3148 0.3459 0.365958 0.35494 0.3319 0.3034 0.328 0.35685 0.3404
2440.619 0.3257 0.3119 0.302 0.3089 0.3466 0.3435 0.3267 0.3037 0.315 0.35295
2459.912 0.35611 0.3275 0.2887 0.3108 0.3298 0.327 0.3583 0.38947 0.38015 0.35323
2479.206 0.3273 0.2954 0.3148 0.3435 0.35508 0.3174 0.2833 0.2743 0.2709 0.3252
2498.499 0.3475 0.3462 0.336 0.344 0.3433 0.362141 0.39498 0.3877 0.37739 0.3781
2517.793 0.39442 0.38151 0.35193 0.39954 0.45022 0.41744 0.38963 0.3986 0.40798 0.42558
2537.086 0.44613 0.465 0.466 0.44227 0.40194 0.3436 0.3848 0.42871 0.41474 0.38482
2556.380 0.362594 0.355 0.38436 0.39537 0.43504 0.4476 0.36657 0.37915 0.38195 0.3513
2575.673 0.37458 0.35523 0.3168 0.3263 0.3171 0.337 0.363124 0.35836 0.37459 0.37567
2594.966 0.363817 0.360431 0.363229 0.3499 0.292 0.259 0.3495 0.40644 0.3326 0.3225
2614.260 0.35119 0.365131 0.366887 0.3337 0.3193 0.368816 0.367249 0.3161 0.3178 0.3322
2633.553 0.335 0.3431 0.365753 0.35795 0.2965 0.301 0.36539 0.39897 0.38649 0.3442
2652.847 0.362002 0.35075 0.2841 0.2987 0.39297 0.38729 0.3413 0.35314 0.3251 0.2889
2672.140 0.271 0.2738 0.3289 0.4156 0.39947 0.3492 0.39705 0.38685 0.3165 0.3143
2691.434 0.3495 0.3493 0.3438 0.37909 0.39377 0.41874 0.40343 0.39266 0.40086 0.3464
2710.727 0.38571 0.4622 0.45906 0.41451 0.409 0.38836 0.3452 0.3479 0.364303 0.3442
2730.020 0.35017 0.40984 0.43364 0.4197 0.41113 0.44239 0.4635 0.40688 0.39682 0.4932
2749.314 0.45863 0.39915 0.45392 0.44097 0.367394 0.38613 0.40818 0.41066 0.495 0.40121
2768.607 0.3166 0.3859 0.41017 0.40307 0.38539 0.39529 0.42064 0.38168 0.39083 0.45462
2787.901 0.43971 0.43268 0.42754 0.419 0.38357 0.367748 0.40977 0.43034 0.42266 0.44672
2807.194 0.4622 0.43386 0.42396 0.4875 0.5152 0.43697 0.43083 0.5023 0.5786 0.6076
2826.488 0.5293 0.4877 0.489 0.5033 0.5234 0.513 0.5481 0.5276 0.45774 0.5156
2845.781 0.6105 0.5782 0.4908 0.45695 0.4733 0.45208 0.39854 0.4618 0.5358 0.4797
2865.074 0.45979 0.4823 0.45536 0.4677 0.5356 0.5154 0.469 0.43327 0.37703 0.37794
2884.368 0.44592 0.39337 0.40714 0.5747 0.5497 0.5166 0.5124 0.4968 0.5239 0.5025
2903.661 0.5547 0.5813 0.5302 0.571 0.5304 0.4994 0.5575 0.589 0.5011 0.4157
2922.955 0.40368 0.4695 0.5787 0.6051 0.6573 0.674 0.6615 0.6505 0.5979 0.6096
2942.248 0.646 0.655 0.67 0.6823 0.5782 0.41792 0.45817 0.5084 0.4754 0.4881
2961.542 0.508 0.5723 0.6263 0.6259 0.6317 0.6201 0.5637 0.5166 0.5338 0.5705
2980.835 0.6203 0.5927 0.5501 0.5764 0.584 0.5361 0.5266 0.468 0.4893 0.6263
3000.128 0.727 0.7309 0.6311 0.5856 0.531 0.5614 0.6786 0.7367 0.6439 0.5721
3019.422 0.6238 0.6733 0.6518 0.549 0.5419 0.6083 0.5946 0.5385 0.4777 0.43843
3038.715 0.4647 0.498 0.5422 0.5051 0.44643 0.43224 0.38935 0.44468 0.40862 0.3162
3058.009 0.39736 0.39655 0.39755 0.5053 0.5286 0.4837 0.4675 0.4718 0.5086 0.5111
3077.302 0.4612 0.5047 0.5589 0.5289 0.5126 0.5383 0.5568 0.4974 0.4701 0.5065
3096.596 0.4889 0.5252 0.5215 0.43345 0.42526 0.44645 0.35565 0.2998 0.45578 0.5599
3115.889 0.4847 0.40948 0.39063 0.3491 0.3369 0.35507 0.40847 0.40083 0.3126 0.314
3135.182 0.3168 0.3036 0.38358 0.42958 0.44716 0.4674 0.42937 0.362328 0.38712 0.43278
3154.476 0.42499 0.35008 0.3274 0.387 0.3353 0.2986 0.3155 0.3011 0.258 0.247
3173.769 0.2696 0.3207 0.246 0.172 0.2858 0.2982 0.25 0.3143 0.2799 0.218
3193.063 0.223 0.22 0.26 0.3373 0.3472 0.207 0.2815 0.39309 0.266 0.208
3212.356 0.2624 0.3488 0.332 0.238 0.3462 0.4834 0.3797 0.3461 0.3224 0.205
3231.650 0.231 0.3083 0.3044 0.3125 0.2962 0.259 0.241 0.252 0.2602 0.206
3250.943 0.2881 0.365309 0.3174 0.2675 0.249 0.2999 0.3288 0.2655 0.2663 0.3009
3270.236 0.213 0.217 0.242 0.3429 0.461 0.5056 0.5079 0.44054 0.4884 0.365464
3289.530 0.187 0.2925 0.2957 0.193 0.183 0.196 0.224 0.224 0.3283 0.4204
3308.823 0.2896 0.247 0.39051 0.3145 0.15 0.155 0.255 0.35677 0.3065 0.2896
3328.117 0.2912 0.223 0.157 0.13 0.231 0.2746 0.2653 0.252 0.207 0.183
3347.410 0.203 0.193 0.189 0.2655 0.232 0.226 0.313 0.2936 0.207 0.199
3366.704 0.2808 0.43841 0.4688 0.3468 0.258 0.226 0.2857 0.3172 0.3165 0.2915
3385.997 0.191 0.181 0.205 0.2619 0.242 0.2855 0.40692 0.368366 0.155 0.057
3405.290 0.153 0.2612 0.3487 0.278 0.164 0.131 0.22 0.3369 0.38914 0.3385
3424.584 0.219 0.181 0.174 0.185 0.258 0.364962 0.43126 0.3278 0.2761 0.2999
3443.877 0.2608 0.225 0.35517 0.3228 0.242 0.259 0.226 0.173 0.167 0.2764
3463.171 0.213 0.093 0.115 0.165 0.196 0.225 0.173 0.099 0.127 0.16
3482.464 0.222 0.252 0.216 0.23 0.2673 0.2611 0.218 0.202 0.164 0.255
3501.758 0.242 0.109 0.107 0.176 0.169 0.212 0.288 0.168 0.144 0.3188
3521.051 0.38009 0.2603 0.184 0.176 0.226 0.208 0.175 0.2753 0.167 0.023
3540.344 0.095 0.175 0.229 0.212 0.182 0.18 0.22 0.174 0.154 0.163
3559.638 0.17 0.197 0.219 0.177 0.154 0.2753 0.226 0.069 0.032 0.113
3578.931 0.131 0.156 0.227 0.24 0.179 0.151 0.221 0.126 0 0.144
3598.225 0.213 0.119 0.17 0.219 0.124 0.093 0.186 0.237 0.257 0.167
3617.518 0.086 0.031 0.055 0.106 0.054 0.129 0.218 0.243 0.158 0.041
3636.812 0.136 0.219 0.169 0.15 0.095 0.113 0.163 0.178 0.193 0.114
3656.105 0.048 0.056 0.202 0.2687 0.228 0.226 0.2628 0.3045 0.196 0.134
3675.398 0.211 0.197 0.087 0.032 0.139 0.2968 0.225 0.068 0.106 0.189
3694.692 0.204 0.259 0.249 0.173 0.18 0.152 0.163 0.209 0.123 0.216
3713.985 0.3164 0.237 0.147 0.126 0.148 0.135 0.133 0.153 0.208 0.217
3733.279 0.215 0.2613 0.2996 0.22 0.088 0.095 0.211 0.223 0.222 0.3197
3752.572 0.365902 0.2853 0.224 0.23 0.184 0.169 0.156 0.136 0.15 0.172
3771.866 0.209 0.154 0.148 0.161 0.183 0.195 0.106 0.147 0.229 0.235
3791.159 0.151 0.151 0.145 0.108 0.119 0.125 0.244 0.2923 0.2754 0.203
3810.452 0.184 0.213 0.192 0.208 0.247 0.236 0.246 0.274 0.163 0.187
3829.746 0.239 0.214 0.253 0.237 0.252 0.3358 0.2942 0.205 0.246 0.2899
3849.039 0.2661 0.146 0.166 0.215 0.154 0.173 0.147 0.118 0.199 0.247
3868.333 0.17 0.154 0.17 0.241 0.2803 0.199 0.171 0.186 0.213 0.214
3887.626 0.191 0.187 0.13 0.069 0.031 0.019 0.08 0.175 0.237 0.299
3906.920 0.308 0.198 0.203 0.228 0.248 0.2752 0.194 0.235 0.2691 0.175
3926.213 0.207 0.224 0.198 0.164 0.142 0.171 0.159 0.175 0.159 0.122
3945.506 0.194 0.2628 0.253 0.254 0.2939 0.225 0.124 0.137 0.149 0.107
3964.800 0.17 0.195 0.148 0.181 0.159 0.2 0.216 0.158 0.148 0.188
3984.093 0.154 0.088 0.087 0.168 0.2725 0.22 0.135 0.162 0.213
##END=
