##TITLE=5-Chlorobenzo[b]thiophene-3-acetonitrile
##JCAMP-DX=4.24
##DATA TYPE=INFRARED SPECTRUM
##ORIGIN=EPA-IR VAPOR PHASE LIBRARY
##OWNER=SRD/NIST
Collection (C) 2018 copyright by the U.S. Secretary of Commerce
on behalf of the United States of America. All rights reserved.
##CAS REGISTRY NO=23799-60-2
##MOLFORM=C 10 H 6 Cl N S
##$NIST SOURCE=MSDC-IR
##STATE=gas
##XUNITS=1/CM
##YUNITS=ABSORBANCE
##XFACTOR=1.
##YFACTOR=0.001
##DELTAX=1.92898
##FIRSTX=549.8
##LASTX=4000.7
##FIRSTY=2.9997
##MAXX=4000.7
##MINX=549.759
##MAXY=0.05004
##MINY=0
##NPOINTS=1790
##XYDATA=(X++(Y..Y))
549.759 2.9997 3.97 3.61 3.27 2.8399 2.795 2.755 3.51 5.86 5.93
569.049 4.62 4.54 5.34 6.78 7.31 6.99 7.37 8.62 9.46 9.59
588.339 10.35 10.96 10.03 9.3 9.3 9.3 9.3 8.96 8.37 7.51
607.628 6.66 5.54 4.71 4.81 4.57 3.48 3.32 3.4 3.67 4.73
626.918 4.56 4.65 5.32 5.25 5.11 5.08 5.05 5.08 5.08 4.99
646.208 4.82 4.55 4.13 4.35 4.51 4.6 5.17 5.63 6.07 6.78
665.498 6.91 6.61 7.22 7.46 7.19 6.74 6.18 5.77 5.43 5.59
684.787 5.48 4.93 4.19 3.64 3.85 4.08 4.22 4.27 3.78 3.21
704.077 3.0939 3.56 3.47 3.62 3.86 3.3 3.3 3.83 4.4 4.14
723.367 4.12 3.89 3.33 3.47 3.47 3.75 3.53 3.76 4.56 4.52
742.657 4.1 3.98 4 3.54 3.8 4.42 3.77 3.84 4.65 4.97
761.947 6.17 8.11 10.19 13.56 17.43 20.45 24.61 29.8 34.81 36.88
781.236 35.54 34.71 32.3 27.46 23.89 21.42 19.39 18.16 17.48 17.84
800.526 20.39 22.11 19.22 15.44 13.93 13.25 11.8 11.08 11.3 11.23
819.816 12.94 15.46 17.09 20.26 25.51 32.55 40.22 45.88 48.39 48.43
839.106 47.43 44.22 37.39 28.82 22.32 17.72 15.32 15.48 16.31 17.67
858.395 19.61 20.18 19.94 19.5 17.06 14.59 12.91 10.68 8.46 6.9
877.685 5.84 5.31 4.79 4.14 4.28 3.84 3.42 4.25 4.24 4.59
896.975 4.97 4.64 4.62 4.62 4.64 4.7 5.09 5.63 5.65 5.35
916.265 4.92 4.48 4.41 4.42 4.43 4.74 5.07 4.74 4.35 4.58
935.555 4.21 3.7 3.85 3.79 3.24 3.1325 3.36 2.9203 2.524 2.9779
954.844 3.123 2.6929 3.24 3.9 3.73 3.48 3.41 3.71 3.88 3.1236
974.134 2.363 3.0444 3.0256 2.24882 2.6908 2.715 2.647 3.0902 3.1673 3.1274
993.424 3.44 3.32 2.9806 2.9338 2.8255 3.27 3.98 4.16 3.87 3.65
1012.714 3.58 3.41 2.8981 3.19 3.63 3.69 4.2 4.51 5.63 7.03
1032.003 7.77 8.05 8.57 8.51 7.66 7.8 7.49 5.99 5.5 5.47
1051.293 4.77 4.84 6.15 6.38 5.41 5.65 7.76 9.94 11.43 14.69
1070.583 22.09 32.21 40.51 44.92 46.61 49.03 50.04 44.99 37.44 28.46
1089.873 20.6 18 17.26 15.25 12.92 11.05 10.11 9.65 6.74 5.62
1109.163 6.13 5.12 3.28 1.744 0.62 1.07 2.4456 1.945 1.837 3.38
1128.452 3.96 3.65 4.47 3.62 2.25718 2.25024 3.1565 5.52 7.66 8.34
1147.742 8.54 9.11 9.63 8.81 7.52 7.12 6.31 4.98 4.18 3.84
1167.032 4.66 5.4 4.86 4.21 4.03 4.82 5.15 3.87 2.9573 3.8
1186.322 4.36 3.28 3.0509 4.73 5.35 4.15 3.65 4.44 4.73 5.36
1205.611 6.63 4.37 2.7849 3.36 2.5395 1.402 2.1223 3.1205 4.04 3.39
1224.901 0 0.45 2.077 3.0546 2.9998 3.38 5.28 5.52 5.72 7.13
1244.191 8.41 8.59 10.34 12.12 12.85 13.77 13.88 13.31 12.84 11.08
1263.481 8.93 8.33 7.36 5.91 5.35 5.33 4.87 4.25 3.79 3.62
1282.771 4.14 4.42 4.01 3.94 4.36 4.74 4.83 4.4 4.1 4.27
1302.060 4.14 4.1 4.12 3.79 3.49 3.51 3.41 3.3 3.48 3.65
1321.350 3.78 3.86 4.28 4.47 4.46 4.94 5.35 5.58 5.5 5.29
1340.640 5.28 5.27 5.18 5.12 5.04 4.88 4.56 4.41 4.34 4.02
1359.930 3.86 3.83 3.66 3.53 3.35 3.36 3.61 3.63 3.47 3.28
1379.219 3.1787 3.39 3.61 3.59 3.51 3.7 3.91 4.27 4.77 5.16
1398.509 5.81 6.56 7.48 8.78 10.27 12.2 15.04 18.43 21.91 26.05
1417.799 30.43 34.6 38.04 40.5 42.22 42.57 41.5 39.95 37.88 35.06
1437.089 31.79 28.36 24.69 21.28 17.88 14.79 12.2 10.22 8.94 7.89
1456.378 6.83 6 5.57 5.14 4.7 4.53 4.2 4.03 3.98 3.8
1475.668 3.88 3.8 3.69 3.64 3.59 3.62 3.64 3.76 4.01 4
1494.958 4.05 4.41 4.26 4.22 4.68 5.09 5.54 6.04 6.57 6.98
1514.248 7.58 8.01 8.03 8.11 8.32 8.11 7.22 6.62 6.4 6.02
1533.538 5.77 5.56 5.46 5.77 6.32 6.94 7.68 8.62 9.52 10.31
1552.827 10.87 11.55 12.07 12.07 11.74 11.26 10.96 10.71 10.66 10.97
1572.117 11.8 12.5 13.11 14 14.65 15.05 15.34 15.53 15.22 14.74
1591.407 14 13.29 12.49 11.41 10.66 10.15 9.28 8.26 7.72 7.34
1610.697 6.72 5.87 5.32 4.5 3.77 3.79 3.9 3.46 2.9771 3.1401
1629.986 3.34 3.51 3.42 3.1334 2.8804 2.8547 3.025 3.073 2.7404 2.6441
1649.276 2.8786 2.8245 2.8593 2.6892 2.599 2.8165 3.0115 2.951 2.9837 3.18
1668.566 3.26 3.21 3.1148 3.24 3.1725 3.1283 2.9848 2.7447 2.7314 2.7496
1687.856 2.5969 2.5917 2.7983 2.9575 3.0897 3.27 3.54 3.36 3.1046 3.43
1707.146 3.95 4.04 4.4 4.83 4.68 4.42 4.63 4.74 4.53 4.37
1726.435 4.15 4.15 4.18 4.18 3.9 3.85 4.18 4.09 3.71 3.48
1745.725 3.1443 2.7805 2.5456 2.4891 2.5991 2.4249 2.5152 2.6332 2.4143 2.3382
1765.015 2.3879 2.3958 2.5169 2.5948 2.3145 2.2832 2.3882 2.3136 2.2963 2.3233
1784.305 2.3853 2.3882 2.3808 2.4769 2.5457 2.5142 2.6961 2.7955 2.5531 2.4393
1803.594 2.5293 2.7372 2.776 2.7445 2.734 2.6457 2.5766 2.497 2.4085 2.6471
1822.884 2.8153 2.5733 2.4817 2.4898 2.6692 2.7311 2.618 2.5459 2.4208 2.3485
1842.174 2.4136 2.5198 2.5059 2.5786 2.6761 2.5714 2.7168 2.9791 2.9907 3.0011
1861.464 2.9325 3.1719 3.49 3.79 4.08 4.3 4.59 4.7 4.65 4.39
1880.754 4.18 4.13 3.87 3.47 3.1649 2.9213 2.8523 2.7357 2.6257 2.571
1900.043 2.4198 2.4625 2.5814 2.4788 2.4988 2.7102 2.826 2.7973 2.5394 2.3271
1919.333 2.3986 2.5111 2.624 2.6764 2.5717 2.508 2.5018 2.3251 2.19973 2.2905
1938.623 2.4423 2.6437 2.6467 2.5864 2.5005 2.316 2.3618 2.4318 2.4001 2.3899
1957.913 2.4843 2.421 2.432 2.4648 2.5412 2.7252 2.6349 2.4339 2.4946 2.7421
1977.202 2.7096 2.4781 2.27146 2.3235 2.5804 2.6655 2.6261 2.67 2.5718 2.478
1996.492 2.6501 2.7269 2.7899 2.9128 2.9549 3.0191 2.8647 2.6348 2.508 2.5232
2015.782 2.6876 2.7587 2.782 2.8227 2.8564 2.9292 2.9553 2.9014 2.7171 2.7689
2035.072 2.7777 2.6864 2.7493 2.7283 2.7226 2.8298 2.7344 2.4738 2.5068 2.6381
2054.362 2.8596 2.8298 2.6097 2.4009 2.4385 2.742 2.82 2.7456 2.6901 2.6517
2073.651 2.6667 2.6694 2.5572 2.4746 2.5006 2.5775 2.5994 2.6809 2.6815 2.7478
2092.941 2.7889 2.6371 2.5846 2.6514 2.8851 3.0554 2.9728 2.9091 2.7232 2.7462
2112.231 3.1579 3.1206 2.8588 2.7402 2.4757 2.4687 2.684 2.742 2.4671 2.4331
2131.521 2.6855 2.842 2.6984 2.5978 2.6416 2.4257 2.753 2.9705 2.5276 2.3983
2150.810 2.5404 2.5861 2.8067 2.9462 2.7333 2.6677 2.7971 2.8244 2.8646 2.7344
2170.100 2.7537 2.7729 2.5836 2.5791 2.5674 2.4601 2.5913 2.6975 2.6876 2.6562
2189.390 2.692 2.6066 2.1607 2.0922 2.3595 2.6323 2.7908 2.6819 2.6309 2.809
2208.680 2.7575 2.5795 2.5715 2.6367 2.7041 2.6541 2.7165 2.8914 3.0116 2.8975
2227.970 2.8505 2.7308 2.7248 2.8836 3.1292 3.1713 2.9346 2.8564 2.8916 3.21
2247.259 3.5 3.43 3.26 3.6 3.76 3.52 3.1633 3.51 3.47 3.18
2266.549 3.34 3.2 3.26 3.0227 2.9505 2.9197 2.7766 3.0465 3.21 3.25
2285.839 3.24 2.7966 2.7891 3.0693 3.0205 3.0002 2.9592 3.1009 3.23 2.917
2305.129 2.5732 2.6902 3.0107 3.1453 3.1486 2.9511 2.9452 2.9701 2.7361 2.8535
2324.418 2.9456 2.6155 2.5247 2.8811 3.38 3.53 3.1399 3.22 3.36 3.35
2343.708 3.48 3.31 3.19 3.0374 2.7606 2.9029 2.9521 2.7245 2.7419 2.7303
2362.998 2.6994 2.7235 2.6411 2.5258 2.4264 2.5352 2.5417 2.545 2.8732 2.8191
2382.288 2.7528 2.916 2.6767 2.5185 2.6308 2.6055 2.5927 2.8745 2.6602 2.4779
2401.578 2.5972 2.8336 3.1204 3.0231 2.7839 2.8687 3.0887 2.9481 2.9272 3.1595
2420.867 3.1182 2.6253 2.5502 2.7641 2.9444 3.1027 3.0273 2.9464 2.8502 2.7148
2440.157 2.729 2.729 2.673 2.5952 2.7697 2.8703 2.7709 2.7801 2.7782 2.9364
2459.447 2.8857 2.8186 2.9775 3.0062 3.0836 3.107 2.9782 2.6819 2.7041 2.7655
2478.737 2.5807 2.5208 2.3733 2.4527 2.5708 2.833 2.7309 2.4189 2.714 2.8121
2498.026 2.6256 2.7294 2.6913 2.8155 2.9981 2.7248 2.5821 2.5185 2.3975 2.8348
2517.316 3.25 3.18 3.065 2.9904 2.8884 2.765 2.794 2.5988 2.6676 2.6987
2536.606 2.6012 2.6737 2.6821 2.6959 2.8916 2.9557 2.8808 2.9962 3.0719 3.0285
2555.896 2.7859 2.5891 2.7637 2.6854 2.7939 3.0491 3.0142 2.8246 2.7744 3.0131
2575.186 3.0846 3.0682 3.1379 3.1676 2.7849 2.862 2.8203 2.5773 2.7701 2.5888
2594.475 2.6475 2.8562 2.8463 3.1568 2.9959 2.8838 2.889 2.9792 3.0733 3.18
2613.765 3.0412 2.7506 3.3 3.39 3.0746 2.8085 2.6557 2.9675 2.8984 2.5446
2633.055 2.6594 2.7426 2.7171 2.8775 2.9516 2.9114 2.6134 2.4473 2.5975 2.6027
2652.345 2.5631 2.9635 3.32 2.7653 2.466 2.7138 2.9667 3.1664 3.0124 3.0608
2671.634 3.073 2.8626 3.0705 3.1186 2.9528 2.9408 2.7327 2.4087 2.3911 2.4686
2690.924 3.0364 2.9676 2.5576 2.8455 2.4997 2.5376 2.8096 2.7596 3.0039 2.9532
2710.214 3.1194 3.1081 3.1096 3.1736 2.9394 2.9872 3.19 3.1614 2.5401 2.3818
2729.504 2.9585 3.1385 2.9316 2.936 3.1687 3.46 3.4 3.0705 3.0552 3.19
2748.794 3.1162 3.0319 3.2 3.3 3.0227 2.8544 2.7752 2.8705 2.9225 2.6463
2768.083 2.793 3.0364 2.3453 2.25337 2.64 2.8195 3.19 3.23 2.8819 2.488
2787.373 2.779 3.159 2.8901 2.691 2.9052 2.7978 2.4249 2.4285 2.7366 2.9561
2806.663 2.8339 2.6787 2.6097 2.8848 3.0483 2.9253 3.0012 2.9704 3.25 3.42
2825.953 3.32 3.66 3.72 3.1348 3.1334 3.25 3.1573 3.26 3.21 3.31
2845.242 3.52 3.33 3.54 3.6 2.8154 2.8031 3.2 3.0608 3.0867 2.9041
2864.532 2.5946 2.8399 2.8368 2.8845 3.1224 2.9664 2.8225 3.138 3.22 3.39
2883.822 3.56 3.44 3.16 2.6391 2.6387 2.8991 2.7756 2.6711 3.0002 3.0763
2903.112 3.0518 3.58 4.03 4.06 4.02 4.23 4.46 4.97 5.6 5.51
2922.401 6.18 6.79 6.68 6.6 6.25 5.74 5.12 4.67 4.38 4.32
2941.691 4.13 3.95 3.7 3.32 3.46 3.58 3.45 3.63 3.48 3.57
2960.981 3.57 3.44 3.7 3.57 3.54 3.43 3.0814 3.1768 3.56 3.18
2980.271 2.707 2.7495 2.6219 2.8213 2.8492 2.5225 2.7876 3.31 3.31 2.8119
2999.561 2.8147 3.1053 2.9636 2.9635 3.39 3.1348 2.7475 3.1302 3.36 3.25
3018.850 3.27 3.29 3.3 3.25 2.9414 3.0699 3.39 3.5 3.34 3.29
3038.140 3.37 3.24 3.0413 3.0123 3.31 3.49 3.51 3.31 2.8536 3.29
3057.430 3.95 3.65 3.94 4.03 3.95 4.85 4.89 4.76 5.33 5.93
3076.720 6.31 6.43 6.41 6.42 6.2 5.78 5.68 5.41 4.63 4.3
3096.009 4.69 4.92 4.71 4.24 3.9 3.75 3.66 3.56 3.87 3.97
3115.299 3.6 3.42 3.28 3.19 3.1333 2.5899 2.1151 2.21465 2.4621 2.5937
3134.589 2.6688 2.6115 2.3646 2.424 2.6758 2.5626 2.8712 2.8575 2.6973 2.748
3153.879 2.6491 2.8972 3.1597 2.9751 2.7434 2.8562 2.742 2.6052 2.5699 2.6416
3173.169 3.0911 3.51 3.0629 2.8034 3.37 3.32 3.0263 2.761 2.5939 2.8241
3192.458 2.8912 3.1335 3.23 3.0447 2.7033 3.0487 3.0455 2.067 2.3421 2.9525
3211.748 2.9087 3.23 3.29 2.5654 2.6545 3.1438 2.9579 2.5541 2.3215 2.23384
3231.038 2.23135 2.3006 2.22925 2.5592 2.8426 2.3086 2.18978 2.372 2.3854 2.5436
3250.328 2.6141 2.584 2.1531 2.3065 2.9581 2.4978 2.27469 2.3649 2.5173 2.8192
3269.617 2.5226 2.6434 2.4259 1.977 2.1266 2.3303 2.4649 2.7149 3.1225 3.37
3288.907 2.8329 2.9239 3.45 2.96 2.7002 2.5613 1.927 2.006 2.19963 1.93
3308.197 1.923 2.3289 2.4966 2.038 2.2996 2.4634 2.4872 2.7102 2.4798 2.4956
3327.487 2.7931 2.8931 2.4892 3.0712 3.65 3.51 3.65 3.7 3.1363 2.27077
3346.777 2.20134 1.891 1.911 2.22691 3.035 3.1607 2.2896 2.7025 2.8852 2.7276
3366.066 2.3864 2.2823 2.9721 3.26 3.1207 2.7152 2.5836 2.463 2.1133 2.0833
3385.356 2.5616 3.2 3.35 2.5574 2.1231 2.041 2.20409 2.8343 2.5519 2.20195
3404.646 2.7006 2.9875 2.6898 2.27748 2.5607 3.0923 2.5931 2.1554 2.7372 3.1626
3423.936 2.7633 2.7724 2.7197 2.3071 2.17874 2.0813 2.4162 2.4892 1.986 2.20587
3443.225 2.5293 2.22602 2.5171 3.23 2.6208 1.895 1.999 2.24981 2.025 1.852
3462.515 2.4344 2.4756 2.4062 2.52 2.3675 2.6741 3.041 3.0107 2.3373 2.4095
3481.805 3.66 3.41 2.7077 2.2914 1.847 2.23422 2.462 2.5982 2.6683 2.1583
3501.095 2.029 2.3733 2.3212 2.1987 2.3662 2.4982 2.344 2.3466 2.3626 2.8544
3520.385 2.8581 2.6436 2.6018 1.859 1.707 1.773 2.3708 3.1204 3.0231 2.6458
3539.674 2.5067 2.6768 2.6532 2.4518 2.19989 2.26005 2.4516 2.25215 2.8089 3.31
3558.964 2.79 2.4006 2.323 2.8218 3.0735 2.6676 2.489 1.864 1.17 1.379
3578.254 1.925 1.972 1.776 1.808 2.049 2.6826 3.0054 2.8464 2.8464 2.21987
3597.544 2.075 2.3979 2.27941 2.1356 1.87 2.1655 2.3087 1.389 1.318 2.314
3616.833 2.4893 2.0872 1.949 1.568 2.074 2.433 1.559 1.402 1.711 2.3882
3636.123 2.8704 2.6723 2.5594 2.7481 2.7539 2.2896 1.607 1.926 2.7861 2.7643
3655.413 2.5153 2.20749 2.313 2.6416 2.27925 2.5381 2.7633 2.25938 2.071 2.4476
3674.703 3.0357 2.9204 2.6179 2.731 2.7147 2.18251 2.0905 2.4185 2.6099 2.767
3693.993 2.6263 2.4805 2.3923 1.991 2.2946 2.8147 2.9172 2.8616 2.3279 1.892
3713.282 1.949 2.026 1.702 2.1382 2.0957 1.991 2.19949 2.1243 2.26322 2.8229
3732.572 2.9978 2.079 1.731 1.895 2.382 2.6265 2.3946 2.049 2.1125 2.5227
3751.862 2.4491 2.3069 2.5851 2.5796 2.27876 2.4393 2.7462 2.4539 2.4088 3.1607
3771.152 3.52 3.19 2.8767 2.7295 2.5312 2.1048 2.0935 2.6471 2.3848 1.551
3790.441 1.903 2.875 2.925 2.8133 2.9709 2.9349 2.8996 2.7932 2.4932 2.4408
3809.731 2.909 3.31 2.8233 2.8721 2.9449 2.5919 2.5424 2.4412 2.432 2.4717
3829.021 2.6518 3.2 3.31 2.6135 2.3969 2.1565 1.734 1.936 2.8348 3.0574
3848.311 2.22388 2.3257 2.4723 1.849 1.804 2.2911 2.523 2.3871 2.19427 1.927
3867.601 1.778 2.3266 2.7952 3.011 3.34 3.35 3.0047 2.3028 2.3859 2.6688
3886.890 2.1217 1.996 2.0859 2.1041 2.5564 2.9518 2.697 2.3284 2.3171 1.931
3906.180 1.914 2.5238 2.8591 2.6164 2.3661 2.8435 3.0043 2.6733 2.7775 3.1303
3925.470 3.0339 2.7042 2.9146 3.24 3.32 3.25 2.94 2.7415 2.8186 2.8117
3944.760 2.4987 1.718 1.844 2.3212 2.4896 3.0292 3.1065 2.8342 2.2931 2.4239
3964.049 2.18209 1.621 2.4956 2.6255 2.3 2.7643 2.5044 2.26944 2.073 2.5678
3983.339 3.43 3.48 3.2 1.98 1.631 1.705 2.1323 2.873 2.7585 2.3064
##END=
