##TITLE=1,2-Benzofluorene
##JCAMP-DX=4.24
##DATA TYPE=INFRARED SPECTRUM
##ORIGIN=NIST Mass Spectrometry Data Center
##OWNER=NIST Standard Reference Data Program
Collection (C) 2018 copyright by the U.S. Secretary of Commerce
on behalf of the United States of America. All rights reserved.
##CAS REGISTRY NO=238-84-6
##MOLFORM=C 17 H 12
##$NIST SOURCE=MSDC-IR
##SPECTROMETER/DATA SYSTEM=HP-GC/MS/IRD
##STATE=gas
##XUNITS=1/CM
##YUNITS=ABSORBANCE
##XFACTOR=1.0
##YFACTOR=0.000001400
##DELTAX=4.0
##FIRSTX=550.0
##LASTX=3846.0
##FIRSTY=0.000246
##MAXX=3846
##MINX=550
##MAXY=0.014
##MINY=0
##NPOINTS=825
##XYDATA=(X++(Y..Y))
550.0 176 121 170 170 94 86 75 44 30 27
590.0 65 62 35 17 2 0 16 40 33 11
630.0 63 180 257 232 142 97 89 68 70 91
670.0 110 88 74 108 168 346 530 567 631 849
710.0 1197 1618 1566 1196 987 939 1224 2029 3662 6040
750.0 8803 10000 8250 5567 3337 1828 1160 904 692 550
790.0 483 564 863 1462 2206 3080 3309 2538 1684 964
830.0 559 429 375 371 372 428 480 449 369 296
870.0 222 154 110 96 129 150 163 177 162 196
910.0 226 206 171 110 97 134 188 256 307 297
950.0 274 240 177 135 103 75 67 57 64 76
990.0 81 114 155 237 413 747 1041 1046 799 523
1030.0 368 245 141 80 54 45 49 52 50 79
1070.0 98 111 129 121 103 78 60 63 91 180
1110.0 296 334 266 143 118 170 203 244 330 456
1150.0 520 549 560 552 569 590 635 679 670 581
1190.0 451 387 322 247 197 148 126 124 124 110
1230.0 109 121 138 177 245 339 459 566 625 599
1270.0 476 310 178 151 182 229 294 326 298 237
1310.0 209 236 287 329 356 398 453 486 486 450
1350.0 406 447 546 661 816 913 853 715 595 537
1390.0 540 565 653 816 912 867 693 451 334 379
1430.0 484 550 617 713 775 826 795 857 1177 1535
1470.0 1611 1288 820 474 308 238 187 137 116 92
1510.0 137 252 327 334 293 216 141 92 92 121
1550.0 126 116 97 175 280 314 351 450 609 747
1590.0 840 837 735 646 610 628 671 749 809 751
1630.0 608 421 285 217 162 123 125 176 223 255
1670.0 282 294 269 219 216 265 244 178 155 175
1710.0 188 150 112 130 127 81 74 136 218 301
1750.0 339 318 249 191 151 129 150 169 184 215
1790.0 248 261 255 240 241 251 279 337 346 292
1830.0 221 166 131 96 96 124 143 138 123 121
1870.0 144 199 274 339 372 380 372 367 354 337
1910.0 314 283 242 237 304 428 535 536 405 243
1950.0 140 94 70 49 44 48 41 30 33 44
1990.0 46 46 40 36 45 39 25 32 31 29
2030.0 36 37 37 33 29 33 37 34 24 24
2070.0 27 32 35 31 26 24 29 35 35 30
2110.0 27 14 8 21 31 31 27 27 32 24
2150.0 20 32 34 36 27 18 27 28 21 26
2190.0 37 39 36 33 25 26 33 30 27 36
2230.0 40 38 42 39 41 49 53 52 59 60
2270.0 55 62 63 67 74 63 50 61 71 75
2310.0 74 58 48 43 35 21 17 22 25 28
2350.0 17 0 0 0 0 0 0 8 11 12
2390.0 27 31 27 31 35 38 39 36 23 21
2430.0 22 20 25 16 15 19 28 42 44 47
2470.0 45 43 50 45 40 41 41 42 43 46
2510.0 54 53 50 48 38 31 21 14 19 13
2550.0 17 29 30 26 14 17 26 34 40 41
2590.0 48 49 41 37 32 25 25 31 24 19
2630.0 22 22 15 8 9 21 39 44 35 34
2670.0 34 32 22 13 19 23 30 22 1 1
2710.0 2 8 23 19 12 22 24 20 17 14
2750.0 25 31 28 35 40 51 56 62 76 100
2790.0 121 120 137 154 154 141 123 96 74 70
2830.0 68 65 70 76 65 60 62 49 58 90
2870.0 101 108 124 167 254 401 642 945 1167 1288
2910.0 1278 1165 1002 712 477 317 217 177 174 173
2950.0 182 202 202 189 192 213 231 241 277 308
2990.0 336 379 455 569 724 939 1204 1483 1715 1864
3030.0 1918 1945 2072 2398 2972 3860 4931 5894 6572 6780
3070.0 6400 5490 4274 3124 2281 1725 1301 968 686 501
3110.0 379 286 241 201 170 147 128 145 154 156
3150.0 180 174 162 170 167 155 128 106 105 84
3190.0 83 78 64 61 57 54 64 76 69 53
3230.0 53 57 36 21 33 46 53 49 42 50
3270.0 50 54 56 50 45 32 39 57 48 42
3310.0 49 46 36 40 56 57 54 56 53 52
3350.0 57 47 30 50 50 32 41 42 30 34
3390.0 43 38 39 44 47 46 42 57 65 56
3430.0 35 27 25 2 6 35 41 41 42 42
3470.0 34 36 45 41 34 31 22 12 7 7
3510.0 19 36 34 23 22 35 26 40 42 12
3550.0 18 26 32 38 15 11 46 55 41 18
3590.0 13 25 35 48 40 19 26 33 45 29
3630.0 13 47 67 60 22 16 42 56 56 41
3670.0 27 29 37 35 14 0 30 46 61 80
3710.0 52 33 48 56 51 41 6 2 0 0
3750.0 24 47 66 68 50 50 76 81 70 71
3790.0 86 75 46 34 31 42 55 63 61 55
3830.0 49 37 25 34 54
##END=
