##TITLE=3-Methylthiophene-2-carboxylic acid
##JCAMP-DX=4.24
##DATA TYPE=INFRARED SPECTRUM
##ORIGIN=EPA-IR VAPOR PHASE LIBRARY
##OWNER=SRD/NIST
Collection (C) 2018 copyright by the U.S. Secretary of Commerce
on behalf of the United States of America. All rights reserved.
##CAS REGISTRY NO=23806-24-8
##MOLFORM=C 6 H 6 O 2 S
##$NIST SOURCE=MSDC-IR
##STATE=gas
##XUNITS=1/CM
##YUNITS=ABSORBANCE
##XFACTOR=1.
##YFACTOR=0.001
##DELTAX=1.92934
##FIRSTX=549.9
##LASTX=3999.5
##FIRSTY=11.112
##MAXX=3999.53
##MINX=549.863
##MAXY=0.076452
##MINY=0
##NPOINTS=1789
##XYDATA=(X++(Y..Y))
549.863 11.112 11.362 11.262 10.882 10.162 9.162 8.392 7.582 6.622 5.742
569.156 4.962 4.292 3.682 3.292 2.972 2.602 2.372 2.332 2.312 2.152
588.450 2.352 2.562 2.782 3.162 3.432 3.802 4.302 4.822 5.392 5.872
607.743 6.372 7.042 8.182 9.272 9.142 7.942 6.652 5.982 5.662 5.202
627.037 4.632 4.142 3.682 3.162 2.732 2.382 2.122 1.962 2.022 2.302
646.330 2.752 3.462 4.442 5.682 6.842 7.672 8.062 8.052 8.362 8.772
665.624 8.542 8.532 8.312 7.482 6.512 5.272 4.152 3.372 2.732 2.412
684.917 2.322 2.192 2.182 2.282 2.472 2.812 3.252 3.702 4.292 4.992
704.210 5.752 6.602 7.332 7.952 8.392 8.782 9.582 10.762 11.502 10.722
723.504 9.542 8.482 7.112 6.102 5.422 4.812 4.292 3.882 3.532 3.342
742.797 3.362 3.572 3.892 4.402 5.072 5.802 6.532 7.232 7.862 8.332
762.091 8.912 9.822 11.032 12.292 11.922 9.862 8.412 7.672 7.002 6.432
781.384 5.872 5.192 4.432 3.802 3.262 2.782 2.452 2.212 2.002 1.812
800.678 1.642 1.572 1.512 1.4062 1.3481 1.3315 1.383 1.4165 1.3895 1.4191
819.971 1.4514 1.502 1.652 1.912 2.162 2.372 2.692 3.022 3.322 3.582
839.264 3.722 3.792 3.752 3.672 3.582 3.582 3.432 3.052 2.582 2.152
858.558 1.892 1.652 1.4025 1.3441 1.319 1.232 1.227 1.2111 1.131 1.0973
877.851 1.1826 1.2499 1.2295 1.1645 1.1023 1.0561 1.0337 0.9797 1.0113 1.0736
897.145 1.0849 1.0982 1.0714 1.0337 1.0217 1.0917 1.1813 1.2254 1.2041 1.1973
916.438 1.2434 1.2749 1.4084 1.542 1.592 1.702 1.882 2.112 2.372 2.612
935.732 2.822 3.022 3.162 3.192 3.152 3.172 3.242 3.202 3.102 2.922
955.025 2.712 2.472 2.182 1.982 1.892 1.872 1.882 1.922 1.962 2.012
974.318 2.112 2.272 2.422 2.602 2.802 3.002 3.262 3.542 3.842 4.142
993.612 4.492 4.852 5.212 5.662 6.052 6.392 6.772 7.152 7.522 7.862
1012.905 8.052 8.222 8.372 8.472 8.602 8.602 8.542 8.452 8.372 8.342
1032.199 8.302 8.282 8.332 8.542 8.822 9.172 9.642 10.262 10.932 11.702
1051.492 12.442 13.082 13.682 14.112 14.362 14.462 14.402 14.172 13.762 13.282
1070.786 12.702 12.002 11.472 11.202 11.072 11.022 10.912 10.592 10.062 9.702
1090.079 9.682 9.862 10.142 10.212 9.782 8.972 8.072 7.342 6.822 6.492
1109.372 6.272 6.052 5.872 5.622 5.282 5.032 4.792 4.592 4.532 4.402
1128.666 4.322 4.432 4.642 4.802 5.012 5.452 6.052 6.932 7.982 9.152
1147.959 10.642 12.382 14.492 16.812 19.412 22.352 25.462 28.752 31.902 34.702
1167.253 36.902 38.242 38.682 38.532 37.982 36.912 35.322 33.122 30.012 26.262
1186.546 22.332 18.522 15.352 12.732 10.522 8.782 7.332 6.192 5.422 4.882
1205.840 4.512 4.142 3.922 3.932 3.992 4.102 4.172 4.222 4.272 4.372
1225.133 4.392 4.352 4.362 4.222 4.092 3.992 3.882 3.752 3.602 3.442
1244.426 3.292 3.282 3.292 3.312 3.342 3.412 3.492 3.582 3.782 4.052
1263.720 4.192 4.292 4.512 4.722 4.822 5.002 5.292 5.582 5.882 6.202
1283.013 6.552 6.972 7.392 7.812 8.272 8.742 9.222 9.692 10.042 10.192
1302.307 10.132 9.912 9.582 9.192 8.802 8.372 7.812 7.082 6.272 5.572
1321.600 4.942 4.432 4.102 3.942 3.882 3.922 4.012 4.152 4.412 4.632
1340.894 4.762 4.842 4.882 4.922 4.922 4.882 4.912 4.822 4.652 4.462
1360.187 4.202 3.972 3.842 3.752 3.762 3.882 4.052 4.272 4.502 4.822
1379.480 5.152 5.402 5.652 5.892 6.132 6.382 6.632 7.012 7.472 8.012
1398.774 8.682 9.552 10.682 12.072 13.612 15.122 16.482 17.682 18.602 19.222
1418.067 19.552 19.472 18.942 18.102 16.982 15.512 13.722 11.932 10.202 8.662
1437.361 7.382 6.312 5.492 4.862 4.382 4.032 3.702 3.352 3.022 2.792
1456.654 2.622 2.422 2.272 2.202 2.132 2.052 2.032 2.052 2.062 2.062
1475.948 2.072 2.072 2.052 2.042 2.012 2.012 2.102 2.142 2.142 2.212
1495.241 2.272 2.302 2.362 2.462 2.602 2.762 2.942 3.102 3.252 3.462
1514.534 3.712 4.062 4.402 4.762 5.232 5.632 6.072 6.622 7.112 7.502
1533.828 7.782 7.952 8.002 7.882 7.692 7.512 7.122 6.612 6.062 5.462
1553.121 4.842 4.252 3.722 3.192 2.782 2.502 2.302 2.112 1.992 1.942
1572.415 1.842 1.772 1.722 1.722 1.712 1.652 1.682 1.752 1.742 1.702
1591.708 1.692 1.692 1.682 1.702 1.682 1.622 1.592 1.512 1.3889 1.3182
1611.002 1.2693 1.1691 1.1039 1.0882 1.06 1.0028 0.9701 0.984 0.9582 0.9269
1630.295 0.9224 0.9091 0.9236 0.9425 0.9431 0.9144 0.913 0.9581 0.9618 0.9794
1649.588 0.9736 0.9463 1.0009 1.0059 0.9769 1.0377 1.1288 1.1997 1.251 1.3372
1668.882 1.4439 1.562 1.672 1.772 1.962 2.152 2.282 2.472 2.712 2.982
1688.175 3.202 3.392 3.512 3.542 3.532 3.622 3.752 3.822 3.982 4.252
1707.469 4.542 4.862 5.262 5.792 6.452 7.352 8.602 10.202 12.372 15.282
1726.762 19.122 24.082 30.142 37.122 45.202 53.402 60.942 67.512 72.312 75.272
1746.056 76.452 76.222 74.692 71.592 67.082 60.692 51.792 41.382 30.842 21.922
1765.349 15.542 11.292 8.562 6.952 5.912 5.212 4.762 4.382 4.132 3.952
1784.642 3.762 3.582 3.462 3.402 3.352 3.322 3.272 3.242 3.292 3.262
1803.936 3.162 3.092 3.032 2.962 2.762 2.422 2.152 1.992 1.802 1.632
1823.229 1.492 1.3437 1.2457 1.1426 1.0609 1.0325 0.9956 0.9511 0.9255 0.9236
1842.523 0.8923 0.8533 0.8296 0.7924 0.7423 0.7157 0.7297 0.7088 0.71 0.7275
1861.816 0.7154 0.7272 0.7159 0.7336 0.7456 0.7646 0.8215 0.8548 0.8561 0.8683
1881.110 0.8792 0.888 0.8931 0.9129 0.9001 0.8288 0.7997 0.807 0.7985 0.7754
1900.403 0.7543 0.7136 0.6898 0.6735 0.6441 0.6415 0.6689 0.6868 0.6835 0.7066
1919.696 0.7498 0.754 0.7352 0.7651 0.8261 0.828 0.8194 0.8323 0.8407 0.8352
1938.990 0.7964 0.763 0.735 0.7185 0.6845 0.6594 0.6408 0.5959 0.5657 0.5631
1958.283 0.5939 0.58775 0.55318 0.54021 0.56213 0.57345 0.52972 0.53275 0.55347 0.58264
1977.577 0.58971 0.55405 0.51806 0.50727 0.53074 0.53503 0.55446 0.54446 0.51719 0.52042
1996.870 0.54734 0.55881 0.5293 0.51623 0.53033 0.56833 0.57747 0.55554 0.56912 0.58047
2016.164 0.58118 0.5926 0.57715 0.5801 0.617 0.5997 0.6017 0.59034 0.53269 0.56841
2035.457 0.55785 0.5144 0.56365 0.5948 0.58837 0.56608 0.58151 0.6065 0.5747 0.57377
2054.750 0.56808 0.5526 0.5961 0.58941 0.57684 0.6501 0.6775 0.6738 0.6692 0.6646
2074.044 0.652 0.5992 0.58655 0.6176 0.6201 0.597 0.5924 0.59166 0.6201 0.6267
2093.337 0.5853 0.57364 0.58714 0.6016 0.6191 0.6203 0.58956 0.5977 0.6263 0.6287
2112.631 0.6366 0.6411 0.64 0.6292 0.6213 0.6204 0.6313 0.6363 0.6291 0.6676
2131.924 0.6573 0.5969 0.603 0.6034 0.58636 0.5962 0.58256 0.56811 0.56911 0.575
2151.218 0.6072 0.628 0.6192 0.6035 0.6067 0.5751 0.52796 0.55908 0.5971 0.58627
2170.511 0.57972 0.56931 0.56766 0.55075 0.53369 0.53876 0.49014 0.49025 0.52666 0.50716
2189.804 0.52711 0.5674 0.56311 0.55304 0.53179 0.493641 0.4667 0.492679 0.54849 0.55389
2209.098 0.53872 0.53891 0.52426 0.53826 0.55236 0.5729 0.56689 0.52265 0.50971 0.53807
2228.391 0.57391 0.595 0.6022 0.58443 0.57802 0.58535 0.6175 0.6028 0.57056 0.6148
2247.685 0.614 0.57619 0.58271 0.57663 0.6029 0.5957 0.5557 0.58329 0.5967 0.6051
2266.978 0.59138 0.55882 0.52146 0.57014 0.6446 0.6175 0.618 0.5826 0.58587 0.6269
2286.272 0.6498 0.7182 0.7366 0.7148 0.7324 0.8041 0.8548 0.8561 0.8811 0.9274
2305.565 0.983 1.0294 1.0492 1.0672 1.1003 1.1346 1.1598 1.1996 1.1976 1.214
2324.858 1.3074 1.3788 1.3492 1.2862 1.258 1.2535 1.2458 1.204 1.1669 1.1914
2344.152 1.1952 1.1234 1.0637 1.0846 1.1713 1.2237 1.253 1.297 1.3603 1.3968
2363.445 1.4204 1.3963 1.3499 1.3384 1.2922 1.1929 1.0864 1.0451 0.9996 0.8944
2382.739 0.8115 0.7691 0.7087 0.6718 0.6498 0.6207 0.6193 0.6005 0.56101 0.6113
2402.032 0.6552 0.6689 0.6852 0.6553 0.6325 0.6409 0.6308 0.57243 0.58514 0.6114
2421.326 0.6352 0.6271 0.55123 0.56973 0.6161 0.55838 0.52324 0.58677 0.6035 0.5663
2440.619 0.57242 0.58253 0.57552 0.59068 0.6008 0.55796 0.52104 0.56664 0.5955 0.58307
2459.912 0.6116 0.6028 0.6228 0.6593 0.6338 0.56637 0.56085 0.628 0.6301 0.58852
2479.206 0.58258 0.5938 0.6249 0.6661 0.6628 0.6157 0.59183 0.6032 0.605 0.6252
2498.499 0.6202 0.6251 0.6197 0.5753 0.5695 0.58385 0.6047 0.6246 0.5886 0.57732
2517.793 0.6017 0.57342 0.54669 0.54324 0.54395 0.57266 0.57612 0.55357 0.55593 0.56953
2537.086 0.58536 0.6205 0.619 0.56006 0.52635 0.53664 0.53265 0.48778 0.494459 0.53819
2556.380 0.51296 0.50574 0.56355 0.57259 0.58087 0.58183 0.55982 0.56302 0.5644 0.56922
2575.673 0.55829 0.6103 0.6496 0.6315 0.6268 0.6463 0.6867 0.6496 0.58649 0.59024
2594.966 0.6015 0.55592 0.48775 0.53331 0.57398 0.54801 0.55783 0.58019 0.58679 0.57815
2614.260 0.6112 0.598 0.53679 0.51302 0.500066 0.5275 0.53025 0.53354 0.53979 0.49834
2633.553 0.51246 0.491445 0.51606 0.54843 0.493696 0.496302 0.54503 0.58023 0.54823 0.57165
2652.847 0.54579 0.55993 0.621 0.56186 0.56744 0.55132 0.51771 0.49773 0.48884 0.55572
2672.140 0.54666 0.479 0.495948 0.56003 0.5247 0.48844 0.55425 0.55984 0.58871 0.58327
2691.434 0.6399 0.65 0.5665 0.5876 0.57318 0.56193 0.6255 0.7053 0.6983 0.6317
2710.727 0.6157 0.6491 0.7001 0.6821 0.6099 0.6119 0.683 0.668 0.6203 0.6632
2730.020 0.6579 0.6166 0.6149 0.56386 0.6205 0.7442 0.7376 0.7315 0.7251 0.6562
2749.314 0.615 0.6 0.6878 0.7073 0.6735 0.7106 0.7072 0.6941 0.6354 0.59194
2768.607 0.59151 0.6572 0.6714 0.58143 0.52593 0.52093 0.56237 0.6517 0.6647 0.6609
2787.901 0.6689 0.6688 0.6606 0.6471 0.7029 0.7462 0.6994 0.6726 0.6883 0.6578
2807.194 0.6078 0.6287 0.6708 0.7648 0.8127 0.8061 0.8318 0.8164 0.8329 0.8685
2826.488 0.8332 0.7879 0.8291 0.8942 0.957 0.9309 0.9611 0.9439 0.8899 0.954
2845.781 1.0142 1.0368 1.0227 1.1169 1.2016 1.1807 1.1544 1.23 1.3203 1.338
2865.074 1.3662 1.405 1.4324 1.4864 1.552 1.552 1.502 1.522 1.602 1.582
2884.368 1.4852 1.4478 1.4703 1.4691 1.4873 1.4668 1.4302 1.522 1.612 1.682
2903.661 1.602 1.512 1.662 1.842 1.892 1.932 2.102 2.092 2.102 2.322
2922.955 2.612 2.782 2.802 3.082 3.342 3.452 3.582 3.662 3.712 3.772
2942.248 3.722 3.642 3.622 3.512 3.232 3.052 2.872 2.652 2.542 2.392
2961.542 2.222 2.102 2.022 1.932 1.822 1.782 1.742 1.692 1.732 1.722
2980.835 1.612 1.542 1.582 1.562 1.4861 1.572 1.582 1.512 1.4402 1.3533
3000.128 1.3351 1.3117 1.2697 1.3493 1.4233 1.3672 1.2469 1.2599 1.2426 1.1403
3019.422 1.2046 1.1786 1.229 1.3576 1.3207 1.2668 1.2163 1.2297 1.4188 1.4649
3038.715 1.2416 1.1226 1.1675 1.1784 1.1163 1.0859 1.0852 1.0959 1.2818 1.3134
3058.009 1.151 1.2027 1.2947 1.2691 1.284 1.4586 1.622 1.602 1.592 1.602
3077.302 1.4919 1.512 1.582 1.502 1.3931 1.2815 1.2671 1.2258 1.0476 0.8755
3096.596 0.7605 0.6792 0.6933 0.7747 0.7048 0.58836 0.55762 0.57351 0.54153 0.4817
3115.889 0.57454 0.6051 0.6278 0.6654 0.50431 0.314 0.287 0.4631 0.50887 0.4318
3135.182 0.51551 0.51719 0.4472 0.4664 0.492091 0.4769 0.388 0.476 0.4736 0.335
3154.476 0.265 0.275 0.3931 0.269 0.313 0.56605 0.58566 0.54424 0.51634 0.4267
3173.769 0.4576 0.53172 0.537 0.4441 0.3948 0.4339 0.4023 0.268 0.145 0.233
3193.063 0.265 0.252 0.32 0.248 0.184 0.292 0.305 0.216 0.243 0.28
3212.356 0.161 0.224 0.3948 0.39 0.37 0.226 0.102 0.125 0.141 0.184
3231.650 0.375 0.4246 0.388 0.313 0.315 0.4095 0.305 0.318 0.216 0.196
3250.943 0.239 0.17 0.372 0.336 0.298 0.3977 0.263 0.193 0.199 0.219
3270.236 0.275 0.242 0.118 0.225 0.3927 0.321 0.31 0.351 0.316 0.221
3289.530 0.172 0.337 0.306 0.307 0.385 0.292 0.263 0.297 0.283 0.355
3308.823 0.4435 0.29 0.225 0.32 0.336 0.268 0.253 0.4161 0.344 0.265
3328.117 0.4102 0.344 0.313 0.323 0.34 0.4148 0.21 0 0.146 0.137
3347.410 0.22 0.3965 0.4601 0.5086 0.355 0.223 0.158 0.258 0.4352 0.4563
3366.704 0.323 0.269 0.241 0.28 0.314 0.203 0.163 0.102 0.229 0.267
3385.997 0.186 0.341 0.366 0.293 0.373 0.39 0.347 0.374 0.271 0.3
3405.290 0.355 0.385 0.4529 0.4467 0.4375 0.361 0.305 0.354 0.333 0.311
3424.584 0.273 0.138 0.165 0.199 0.243 0.332 0.344 0.311 0.222 0.212
3443.877 0.382 0.48512 0.53289 0.57873 0.5647 0.57401 0.6515 0.6338 0.6702 0.8457
3463.171 0.7981 0.6249 0.4398 0.4803 0.67 0.8087 0.7609 0.6674 0.6775 0.6072
3482.464 0.6138 0.6333 0.7073 0.6905 0.56602 0.5961 0.55237 0.5591 0.6814 0.58163
3501.758 0.4048 0.4693 0.55332 0.5956 0.643 0.54726 0.498321 0.4507 0.4894 0.52775
3521.051 0.32 0.293 0.494456 0.57484 0.6074 0.50214 0.308 0.348 0.384 0.386
3540.344 0.50284 0.6001 0.6185 0.7299 0.8744 0.8847 1.0637 1.3795 1.792 2.462
3559.638 3.342 4.522 5.912 7.432 9.152 11.012 12.862 14.832 16.982 18.882
3578.931 20.042 20.522 20.542 19.892 18.712 17.222 15.522 13.962 12.292 10.172
3598.225 7.852 5.572 3.652 2.372 1.732 1.3099 0.9446 0.7706 0.647 0.56924
3617.518 0.51902 0.4633 0.50258 0.51203 0.4745 0.493567 0.495807 0.51534 0.487 0.493586
3636.812 0.500156 0.498719 0.4135 0.389 0.4489 0.378 0.347 0.325 0.381 0.4189
3656.105 0.4026 0.4087 0.4142 0.3997 0.365 0.3992 0.4231 0.4096 0.4212 0.4318
3675.398 0.4405 0.4642 0.4241 0.38 0.356 0.343 0.27 0.242 0.4015 0.54857
3694.692 0.53139 0.4443 0.372 0.344 0.4238 0.4396 0.4048 0.4407 0.499985 0.4663
3713.985 0.361 0.365 0.4393 0.326 0.235 0.357 0.386 0.4101 0.52011 0.52838
3733.279 0.57521 0.6434 0.53674 0.5733 0.6172 0.49378 0.4623 0.381 0.362 0.4345
3752.572 0.50292 0.57137 0.493292 0.4318 0.4484 0.438 0.4636 0.4805 0.4598 0.4591
3771.866 0.53073 0.6023 0.51497 0.495676 0.54193 0.55245 0.6303 0.6123 0.4263 0.341
3791.159 0.4418 0.4393 0.4465 0.4605 0.369 0.305 0.271 0.3988 0.55303 0.4652
3810.452 0.369 0.4536 0.48612 0.4356 0.392 0.48747 0.545 0.4359 0.50413 0.58063
3829.746 0.55729 0.58173 0.57503 0.51971 0.4699 0.4649 0.452 0.373 0.4303 0.372
3849.039 0.368 0.4702 0.4367 0.4045 0.418 0.4602 0.4274 0.52037 0.6169 0.59128
3868.333 0.55098 0.5078 0.56868 0.56968 0.48288 0.4636 0.51656 0.606 0.6276 0.5922
3887.626 0.54831 0.57494 0.5183 0.498825 0.5284 0.52456 0.49065 0.48206 0.55103 0.5355
3906.920 0.4575 0.48515 0.53508 0.4771 0.51497 0.5986 0.55902 0.55152 0.52433 0.55446
3926.213 0.6559 0.6603 0.6081 0.55681 0.6022 0.56038 0.6182 0.6611 0.56894 0.4435
3945.506 0.4322 0.4625 0.500539 0.54282 0.50879 0.52779 0.48464 0.54157 0.53108 0.5101
3964.800 0.57546 0.491272 0.4379 0.4384 0.494426 0.52426 0.4563 0.4578 0.53843 0.497933
3984.093 0.51407 0.6194 0.4745 0.347 0.3995 0.4521 0.497285 0.50928 0.51629
##END=
