##TITLE=1-Methylpyrene
##JCAMP-DX=4.24
##DATA TYPE=INFRARED SPECTRUM
##ORIGIN=EPA-IR VAPOR PHASE LIBRARY
##OWNER=SRD/NIST
Collection (C) 2018 copyright by the U.S. Secretary of Commerce
on behalf of the United States of America. All rights reserved.
##CAS REGISTRY NO=2381-21-7
##MOLFORM=C 17 H 12
##$NIST SOURCE=MSDC-IR
##STATE=gas
##XUNITS=1/CM
##YUNITS=ABSORBANCE
##XFACTOR=1.
##YFACTOR=0.001
##DELTAX=3.85796
##FIRSTX=551.7
##LASTX=4000.7
##FIRSTY=0.9045
##MAXX=4000.7
##MINX=551.688
##MAXY=0.02483
##MINY=0
##NPOINTS=895
##XYDATA=(X++(Y..Y))
551.688 0.9045 0.8304 0.94123 1.0627 0.93421 0.91073 1.0523 1.1947 1.4297 1.5916
590.268 1.4321 1.2446 1.1557 1.04 0.94243 0.92742 0.927658 0.866 0.8986 0.96268
628.847 0.93234 0.91292 0.929182 0.9357 0.926811 0.899 0.96552 0.95957 0.95559 1.0461
667.427 1.2858 1.5445 1.8317 2 1.911 1.8449 1.9042 2.32 3.7 5.33
706.006 8 9.23 6.69 4.5 2.9 1.785 1.4927 1.5113 1.94 2.69
744.586 3.6 4.61 4.33 3.13 2.27 1.5359 1.2272 1.1243 1.0925 1.0949
783.165 1.148 1.174 1.1707 1.2377 1.4793 1.7222 2.12 2.78 3.56 4.26
821.745 5.27 6.99 10.62 15.31 21.67 24.83 19.13 12.41 7.28 3.64
860.324 2.21 1.7467 1.6467 1.5241 1.43 1.3026 1.2332 1.1865 1.1697 1.113
898.904 1.0831 1.0752 1.0762 1.1077 1.135 1.0914 1.0781 1.0765 1.01663 0.97027
937.484 0.97868 0.97558 1.003 1.01917 1.0973 1.2393 1.3297 1.3953 1.3604 1.2607
976.063 1.148 1.0391 1.01298 1.0217 1.1054 1.2867 1.356 1.2867 1.1972 1.1252
1014.643 1.0921 1.01169 1.01353 1.0501 1.0494 1.0415 0.95147 0.96099 1.0844 1.1003
1053.222 1.1415 1.1908 1.2115 1.2008 1.0598 0.929569 0.8896 0.923461 0.98766 0.96421
1091.802 1.1125 1.3713 1.6045 1.7515 1.7391 1.6128 1.3099 1.0941 1.0263 0.98837
1130.381 1.0076 1.00347 0.94445 0.9451 0.97672 0.97593 1.0478 1.1885 1.322 1.4965
1168.961 1.6756 2.09 2.86 3.3 3.25 2.87 2.09 1.4234 1.1686 1.1209
1207.540 1.1584 1.2581 1.3064 1.2169 1.219 1.3506 1.4011 1.5224 1.735 1.8403
1246.120 1.8201 1.7204 1.5278 1.2848 1.1612 1.1754 1.1543 1.129 1.1295 1.1417
1284.699 1.1973 1.2926 1.4155 1.5 1.5164 1.4329 1.2631 1.1002 1.0224 1.00624
1323.279 1.00499 1.01443 0.9867 0.9459 0.95036 0.9549 0.95672 0.95563 0.95446 0.95597
1361.859 0.96585 1.00076 1.063 1.1579 1.2561 1.3503 1.3747 1.3138 1.1938 1.1075
1400.438 1.1469 1.2779 1.4881 1.6662 1.7199 1.7418 1.8137 2.02 2.34 2.58
1439.018 2.7 2.76 2.91 3.18 3.34 3.25 2.91 2.45 2.1 1.96
1477.597 2.01 2.22 2.54 2.8 2.95 2.98 2.92 2.84 2.7 2.48
1516.177 2.12 1.7022 1.461 1.3877 1.3493 1.3114 1.2548 1.2272 1.2045 1.1972
1554.756 1.2306 1.2716 1.3524 1.4213 1.5 1.6764 1.95 2.31 2.63 2.78
1593.336 2.77 2.72 2.65 2.47 2.18 1.8311 1.5835 1.5531 1.5542 1.5171
1631.915 1.4639 1.4294 1.4775 1.5246 1.5122 1.443 1.409 1.3739 1.2825 1.1839
1670.495 1.0901 1.0403 1.0375 1.0246 0.99972 0.98944 0.96655 0.97145 1.0426 1.1221
1709.075 1.1357 1.0809 1.0245 1.01553 1.0598 1.1342 1.2331 1.3765 1.4452 1.3776
1747.654 1.2156 1.0816 1.0956 1.181 1.2638 1.2888 1.3049 1.404 1.5834 1.7567
1786.234 1.81 1.6743 1.4318 1.2276 1.0614 0.929663 0.8342 0.792 0.786 0.784
1824.813 0.795 0.8244 0.8777 0.9609 1.0614 1.1454 1.2018 1.2342 1.2122 1.183
1863.393 1.2256 1.334 1.4561 1.4916 1.4172 1.2633 1.133 1.1158 1.165 1.2754
1901.972 1.4551 1.6614 1.8385 1.9119 1.857 1.7076 1.5054 1.2699 1.0248 0.8529
1940.552 0.764 0.724 0.701 0.675 0.662 0.666 0.658 0.65 0.655 0.659
1979.131 0.648 0.621 0.619 0.604 0.602 0.617 0.634 0.634 0.621 0.633
2017.711 0.635 0.629 0.623 0.616 0.618 0.612 0.601 0.591 0.607 0.621
2056.291 0.629 0.641 0.619 0.61 0.604 0.596 0.608 0.619 0.626 0.604
2094.870 0.583 0.595 0.613 0.621 0.626 0.623 0.619 0.61 0.61 0.615
2133.450 0.614 0.612 0.611 0.609 0.595 0.6 0.593 0.582 0.586 0.598
2172.029 0.576 0.566 0.564 0.557 0.577 0.57 0.573 0.597 0.589 0.566
2210.609 0.56 0.548 0.525 0.52 0.541 0.551 0.562 0.586 0.591 0.588
2249.188 0.593 0.573 0.57 0.6 0.604 0.587 0.596 0.621 0.622 0.616
2287.768 0.6 0.594 0.579 0.565 0.576 0.569 0.567 0.566 0.573 0.59
2326.347 0.59 0.61 0.625 0.604 0.603 0.645 0.659 0.644 0.627 0.604
2364.927 0.588 0.582 0.555 0.533 0.532 0.531 0.518 0.527 0.528 0.527
2403.507 0.54 0.53 0.52 0.522 0.535 0.532 0.525 0.515 0.494 0.501
2442.086 0.499 0.507 0.544 0.555 0.565 0.562 0.516 0.52 0.559 0.563
2480.666 0.537 0.51 0.517 0.527 0.528 0.521 0.511 0.516 0.528 0.543
2519.245 0.55 0.506 0.442 0.42 0.435 0.474 0.485 0.468 0.493 0.492
2557.825 0.47 0.478 0.486 0.477 0.444 0.446 0.482 0.487 0.467 0.459
2596.404 0.457 0.466 0.459 0.444 0.465 0.499 0.514 0.509 0.506 0.486
2634.984 0.475 0.459 0.439 0.451 0.46 0.46 0.467 0.455 0.45 0.448
2673.563 0.454 0.467 0.435 0.421 0.437 0.438 0.43 0.42 0.422 0.43
2712.143 0.433 0.437 0.465 0.486 0.5 0.509 0.497 0.533 0.613 0.624
2750.722 0.603 0.583 0.55 0.541 0.528 0.493 0.468 0.488 0.521 0.504
2789.302 0.492 0.525 0.519 0.508 0.531 0.563 0.582 0.605 0.625 0.654
2827.882 0.723 0.779 0.817 0.8372 0.8634 0.920848 0.99389 1.1293 1.2756 1.4891
2866.461 1.8237 2.15 2.44 2.58 2.56 2.46 2.35 2.24 2.16 2.15
2905.041 2.19 2.28 2.38 2.53 2.79 3.18 3.75 4.31 4.64 4.56
2943.620 4.1 3.61 3.31 3.15 2.98 2.88 2.84 2.89 3.04 3.18
2982.200 3.18 3 2.74 2.51 2.41 2.41 2.49 2.63 2.83 3.19
3020.779 3.74 4.67 6.1 8.19 10.93 14.03 16.95 18.79 18.89 17.06
3059.359 13.86 10.47 7.75 6.03 5.04 4.34 3.81 3.39 2.99 2.62
3097.938 2.28 2.03 1.8555 1.752 1.675 1.5313 1.3815 1.234 1.0683 0.924543
3136.518 0.8466 0.765 0.674 0.632 0.566 0.54 0.552 0.512 0.524 0.534
3175.098 0.504 0.465 0.388 0.372 0.411 0.372 0.311 0.324 0.36 0.408
3213.677 0.406 0.346 0.331 0.34 0.347 0.372 0.359 0.303 0.298 0.287
3252.257 0.206 0.177 0.234 0.258 0.235 0.229 0.249 0.266 0.253 0.244
3290.836 0.275 0.257 0.245 0.253 0.258 0.255 0.248 0.273 0.263 0.209
3329.416 0.215 0.211 0.179 0.217 0.264 0.258 0.238 0.181 0.17 0.23
3367.995 0.236 0.248 0.252 0.214 0.165 0.148 0.149 0.155 0.176 0.223
3406.575 0.213 0.161 0.183 0.182 0.164 0.163 0.148 0.162 0.201 0.186
3445.154 0.182 0.174 0.179 0.204 0.169 0.183 0.211 0.188 0.163 0.147
3483.734 0.148 0.186 0.208 0.201 0.205 0.221 0.208 0.206 0.234 0.172
3522.314 0.119 0.122 0.148 0.19 0.209 0.244 0.216 0.173 0.175 0.177
3560.893 0.152 0.173 0.209 0.23 0.215 0.194 0.178 0.156 0.143 0.136
3599.473 0.169 0.19 0.222 0.192 0.159 0.106 0.117 0.167 0.172 0.22
3638.052 0.165 0.158 0.173 0.103 0.12 0.134 0.122 0.104 0.117 0.134
3676.632 0.137 0.133 0.087 0.096 0.129 0.156 0.166 0.182 0.151 0.151
3715.211 0.18 0.155 0.145 0.198 0.209 0.119 0.091 0.135 0.217 0.23
3753.791 0.154 0.165 0.181 0.141 0.154 0.19 0.189 0.183 0.145 0.147
3792.370 0.199 0.185 0.135 0.163 0.225 0.187 0.145 0.195 0.225 0.193
3830.950 0.181 0.164 0.158 0.178 0.2 0.211 0.219 0.207 0.155 0.15
3869.530 0.145 0.1 0.136 0.138 0.109 0.177 0.199 0.147 0.142 0.183
3908.109 0.174 0.112 0.085 0.076 0.077 0.088 0.078 0.046 0.03 0.032
3946.689 0.078 0.115 0.12 0.114 0.077 0.072 0.061 0.038 0.028 0.061
3985.268 0.117 0.077 0.023 0 0.043
##END=
