##TITLE=2-Decyne
##JCAMP-DX=4.24
##DATA TYPE=INFRARED SPECTRUM
##ORIGIN=NIST Mass Spectrometry Data Center
##OWNER=NIST Standard Reference Data Program
Collection (C) 2018 copyright by the U.S. Secretary of Commerce
on behalf of the United States of America. All rights reserved.
##CAS REGISTRY NO=2384-70-5
##MOLFORM=C 10 H 18
##$NIST SOURCE=MSDC-IR
##SPECTROMETER/DATA SYSTEM=HP-GC/MS/IRD
##STATE=gas
##XUNITS=1/CM
##YUNITS=ABSORBANCE
##XFACTOR=1.0
##YFACTOR=0.000002600
##DELTAX=4.0
##FIRSTX=550.0
##LASTX=3846.0
##FIRSTY=0.000660
##MAXX=3846
##MINX=550
##MAXY=0.026
##MINY=0
##NPOINTS=825
##XYDATA=(X++(Y..Y))
550.0 254 217 190 186 179 169 185 150 116 121
590.0 128 123 107 104 78 62 73 60 61 80
630.0 62 52 72 76 81 78 56 58 76 80
670.0 77 69 80 89 61 56 71 72 83 94
710.0 99 115 126 136 130 132 125 111 112 88
750.0 77 70 57 56 58 72 76 51 43 49
790.0 52 71 69 61 60 49 30 10 17 34
830.0 56 44 27 34 34 33 21 11 21 30
870.0 30 28 26 32 41 39 34 32 20 17
910.0 28 30 29 19 14 12 10 11 14 17
950.0 5 1 10 19 19 14 15 20 22 19
990.0 25 29 30 32 45 44 38 45 47 51
1030.0 43 34 28 35 44 41 32 22 26 41
1070.0 46 36 32 41 46 44 55 55 59 67
1110.0 63 53 50 48 40 28 23 29 28 30
1150.0 31 28 31 40 41 36 37 53 59 44
1190.0 38 42 59 69 48 29 51 68 69 79
1230.0 68 65 79 80 88 105 118 128 134 133
1270.0 138 149 157 175 193 213 235 247 253 260
1310.0 272 294 332 387 435 484 511 489 469 473
1350.0 457 433 405 386 384 394 419 440 433 398
1390.0 354 288 236 230 230 231 245 275 302 326
1430.0 394 500 605 693 755 791 804 832 860 821
1470.0 727 605 501 403 321 269 251 234 206 153
1510.0 128 136 121 111 114 107 103 108 105 98
1550.0 90 81 72 75 83 86 84 84 80 73
1590.0 64 65 72 69 64 56 55 53 48 44
1630.0 42 39 41 43 32 24 24 25 22 21
1670.0 22 15 7 5 13 16 9 1 5 20
1710.0 22 10 10 25 27 10 4 14 12 9
1750.0 3 5 13 14 14 7 8 13 12 8
1790.0 9 6 4 1 5 7 8 17 19 14
1830.0 14 15 15 11 10 16 18 14 8 7
1870.0 9 13 15 23 22 14 10 14 17 12
1910.0 16 18 19 21 22 16 16 14 15 23
1950.0 23 21 18 18 23 26 31 32 25 23
1990.0 20 15 18 23 19 23 26 21 24 31
2030.0 29 30 33 36 42 43 41 40 40 42
2070.0 31 19 20 20 14 9 13 18 22 22
2110.0 19 18 19 20 23 21 18 14 15 15
2150.0 15 18 20 19 17 19 19 15 16 24
2190.0 22 16 25 25 15 16 19 17 13 11
2230.0 15 17 17 21 21 16 14 16 14 17
2270.0 20 19 8 0 9 15 13 17 20 14
2310.0 14 20 20 16 13 13 15 9 14 17
2350.0 18 22 23 30 30 28 24 25 28 25
2390.0 33 34 30 32 36 40 34 27 28 34
2430.0 39 42 36 35 39 41 35 30 33 36
2470.0 44 42 40 48 48 44 49 56 55 46
2510.0 43 46 49 54 60 56 52 51 46 43
2550.0 46 49 57 63 64 68 64 65 70 64
2590.0 56 63 64 57 64 72 73 75 77 79
2630.0 89 93 87 83 90 92 97 105 114 127
2670.0 130 127 133 135 129 118 113 115 117 120
2710.0 122 119 123 130 139 155 172 189 200 209
2750.0 212 207 210 201 182 190 205 211 231 239
2790.0 243 255 274 297 327 357 395 447 499 557
2830.0 636 756 924 1159 1482 1903 2401 2898 3327 3585
2870.0 3637 3547 3350 3100 2849 2678 2615 2704 2973 3389
2910.0 3956 4714 5699 6878 8174 9328 9986 10000 9307 8066
2950.0 6710 5604 4895 4549 4315 3946 3406 2700 2035 1572
2990.0 1264 1078 943 860 782 675 599 543 505 477
3030.0 456 443 401 354 317 302 283 271 270 249
3070.0 225 211 200 192 187 173 156 151 147 132
3110.0 125 128 123 120 123 121 123 113 105 101
3150.0 89 91 98 86 80 82 85 80 78 80
3190.0 78 86 77 64 60 49 58 65 64 58
3230.0 49 51 48 50 55 52 56 50 42 41
3270.0 47 53 48 40 37 44 42 41 49 47
3310.0 52 51 38 45 39 42 68 67 53 55
3350.0 49 43 44 51 49 40 45 43 34 44
3390.0 50 47 50 62 65 56 38 36 44 37
3430.0 29 27 34 43 37 39 46 51 55 53
3470.0 45 35 36 42 51 48 37 25 11 21
3510.0 36 28 12 8 17 21 23 25 19 16
3550.0 16 15 15 12 2 3 12 15 24 22
3590.0 22 25 21 32 18 13 23 18 26 20
3630.0 17 27 34 47 36 21 27 37 40 25
3670.0 17 21 26 34 35 37 38 34 37 38
3710.0 43 34 31 38 36 39 24 18 17 15
3750.0 33 47 65 64 58 46 50 54 48 43
3790.0 53 70 53 35 47 54 50 55 60 56
3830.0 47 55 45 30 38
##END=
