##TITLE=S-Hydroxymethyl thiobenzoate
##JCAMP-DX=4.24
##DATA TYPE=INFRARED SPECTRUM
##ORIGIN=EPA-IR VAPOR PHASE LIBRARY
##OWNER=SRD/NIST
Collection (C) 2018 copyright by the U.S. Secretary of Commerce
on behalf of the United States of America. All rights reserved.
##CAS REGISTRY NO=23853-33-0
##MOLFORM=C 8 H 8 O 2 S
##$NIST SOURCE=MSDC-IR
##STATE=gas
##XUNITS=1/CM
##YUNITS=ABSORBANCE
##XFACTOR=1.
##YFACTOR=0.001
##DELTAX=1.92934
##FIRSTX=549.9
##LASTX=3999.5
##FIRSTY=2.0288
##MAXX=3999.53
##MINX=549.863
##MAXY=0.07664
##MINY=0
##NPOINTS=1789
##XYDATA=(X++(Y..Y))
549.863 2.0288 2.0439 2.0129 1.9168 1.8137 1.8543 1.9581 1.9743 1.9332 1.9395
569.156 2.0414 1.9994 1.8175 1.797 1.9464 2.0817 2.1374 2.143 2.0885 2.0642
588.450 2.1579 2.23 2.27 2.23 2.32 2.56 2.74 2.94 3.16 3.39
607.743 3.76 4.26 4.7 5.03 5.31 5.61 5.94 6.39 6.86 7.18
627.037 7.37 7.37 7.46 7.81 8.28 8.82 9.63 10.78 11.71 11.67
646.330 11.16 11.06 11.13 11.33 11.72 12.15 12.63 13.11 13.87 15.32
665.624 17.46 20.33 24.02 28.18 32.47 36.05 38.42 39.65 40.15 40.78
684.917 42.66 43.84 41.54 37.38 32.78 28.05 23.99 20.68 17.8 15.23
704.210 13.14 11.35 9.68 8.35 7.43 6.65 5.98 5.48 5.04 4.72
723.504 4.43 4.15 3.96 3.8 3.73 3.7 3.72 3.8 3.9 4.19
742.797 4.66 5.26 6.01 6.8 7.72 8.83 9.85 10.8 11.8 12.85
762.091 13.95 15.12 16.14 16.42 15.48 13.58 11.93 11 10.35 9.76
781.384 9.28 8.95 8.74 8.62 8.65 8.82 9.01 9.17 9.21 9.11
800.678 8.98 8.85 8.78 8.88 9.14 9.51 10.12 11.23 13 15.71
819.971 19.53 24.47 30.39 36.86 43 47.84 50.66 51.47 51.08 49.83
839.264 47.99 45.6 41.14 34.03 26.12 19.49 14.86 11.93 10.11 8.86
858.558 8.03 7.54 7.19 6.99 7 7.08 7.23 7.46 7.69 7.82
877.851 7.83 7.68 7.41 7.08 6.75 6.47 6.28 6.08 5.9 5.77
897.145 5.7 5.75 5.81 5.94 6.14 6.32 6.54 6.81 7.1 7.53
916.438 8.08 8.66 9.39 10.29 11.38 12.63 14.07 15.77 17.75 20.06
935.732 22.66 25.41 28.02 30.25 31.81 32.54 32.66 32.37 31.71 30.61
955.025 29.04 26.87 24.01 21.1 18.73 16.93 15.67 14.81 14.06 13.28
974.318 12.51 11.77 11.09 10.38 9.57 8.73 7.92 7.25 6.78 6.41
993.612 6.13 5.81 5.43 5.07 4.77 4.43 4.17 4.01 3.7 3.33
1012.905 3.05 2.91 2.85 2.82 2.82 2.8 2.71 2.6 2.55 2.54
1032.199 2.49 2.41 2.28 2.1254 2.0062 1.9312 1.8708 1.8331 1.8095 1.8025
1051.492 1.8414 1.9287 2.0074 2.1167 2.27 2.38 2.52 2.61 2.62 2.59
1070.786 2.57 2.6 2.62 2.59 2.56 2.54 2.55 2.54 2.54 2.57
1090.079 2.58 2.58 2.57 2.56 2.5 2.44 2.47 2.44 2.37 2.34
1109.372 2.26 2.1615 2.0959 2.0591 2.0606 2.0307 2.0391 2.1081 2.1301 2.21
1128.666 2.29 2.3 2.36 2.55 2.72 2.86 3.06 3.24 3.48 3.75
1147.959 4.01 4.32 4.63 4.9 5.26 5.78 6.45 7.43 8.92 11.05
1167.253 13.95 17.48 21.16 24.18 25.84 26.49 27.2 27.54 27.65 28.7
1186.546 29.77 30.35 31.64 34.57 39.34 45.52 52.24 58.51 63.47 66.75
1205.840 68.45 68.84 67.94 65.47 60.98 54.25 45.62 36.27 27.96 21.86
1225.133 18.16 16.07 14.72 13.75 12.93 12.21 11.49 10.78 10.06 9.32
1244.426 8.59 7.82 7.07 6.41 5.71 5.09 4.64 4.28 3.96 3.65
1263.720 3.44 3.32 3.24 3.18 3.15 3.14 3.19 3.24 3.25 3.33
1283.013 3.45 3.49 3.53 3.57 3.63 3.72 3.85 3.92 4.05 4.21
1302.307 4.37 4.56 4.7 4.83 4.87 4.78 4.67 4.55 4.43 4.28
1321.600 4.08 3.81 3.54 3.32 3.13 2.94 2.76 2.6 2.45 2.4
1340.894 2.3 2.1452 2.0186 1.85 1.7614 1.6763 1.5862 1.5212 1.4863 1.5198
1360.187 1.5342 1.565 1.5326 1.5049 1.5943 1.6788 1.7604 1.8538 1.9487 2.0024
1379.480 2.02 2.1261 2.26 2.38 2.46 2.47 2.4 2.37 2.41 2.38
1398.774 2.31 2.22 2.127 2.0465 1.9187 1.8064 1.7595 1.7032 1.6918 1.7379
1418.067 1.7932 1.7907 1.8334 2.003 2.0866 2.25 2.64 3.09 3.61 4.3
1437.361 5.16 6.02 6.94 7.68 8.04 8.17 8.07 7.95 7.87 7.71
1456.654 7.24 6.31 5.19 4.21 3.49 2.98 2.62 2.34 2.21 2.1292
1475.948 2.1043 2.1028 2.0728 2.1283 2.2068 2.22 2.23 2.25 2.23 2.1923
1495.241 2.1674 2.1586 2.0874 1.9968 1.9239 1.9115 1.9747 2.0069 2.011 1.9808
1514.534 2.0161 2.0947 2.0995 2.073 1.9721 1.945 1.9954 1.9076 1.7997 1.7515
1533.828 1.7135 1.6695 1.5978 1.6313 1.6641 1.6286 1.6034 1.57 1.6164 1.6387
1553.121 1.7147 1.808 1.9126 2.11 2.2007 2.28 2.51 2.76 3.06 3.41
1572.415 3.77 4.13 4.43 4.7 4.95 5.15 5.36 5.55 5.7 5.82
1591.708 5.84 5.72 5.56 5.51 5.45 5.4 5.32 5.19 5.02 4.71
1611.002 4.38 4.13 3.98 3.87 3.76 3.67 3.69 3.67 3.67 3.73
1630.295 3.82 3.96 4.14 4.33 4.54 4.78 5.02 5.39 5.85 6.31
1649.588 6.77 7.36 8.12 8.77 9.44 10.18 10.97 11.79 12.63 13.48
1668.882 14.47 15.52 16.67 18.01 19.38 20.91 22.85 25.12 28.01 31.39
1688.175 35.35 40.07 45.48 51.58 58.54 65.34 71.09 75.21 76.64 76.19
1707.469 75.38 75.69 76.43 75.47 71.2 63.92 55.27 47.09 39.68 33.39
1726.762 28.14 23.79 20.31 17.65 15.49 13.85 12.71 11.83 11.25 10.77
1746.056 10.33 9.91 9.52 9.06 8.56 8.16 7.74 7.33 6.98 6.66
1765.349 6.39 6.2 6.01 5.79 5.56 5.35 5.17 5.03 4.9 4.75
1784.642 4.61 4.42 4.29 4.21 4.11 4.01 3.94 3.89 3.79 3.65
1803.936 3.5 3.37 3.22 3.05 2.84 2.65 2.47 2.28 2.0886 1.9156
1823.229 1.7776 1.7517 1.6931 1.6265 1.5983 1.5463 1.4804 1.4364 1.4449 1.43
1842.523 1.4205 1.376 1.3504 1.3521 1.30676 1.28606 1.3126 1.3621 1.3913 1.4222
1861.816 1.415 1.3888 1.4268 1.449 1.4655 1.5316 1.591 1.5608 1.5723 1.6359
1881.110 1.683 1.7944 1.8785 1.9289 2.0439 2.0512 2.0628 2.1259 2.1609 2.22
1900.403 2.26 2.22 2.23 2.23 2.1156 1.9758 1.8937 1.8002 1.6861 1.5833
1919.696 1.4664 1.4122 1.3393 1.25163 1.1838 1.1621 1.1786 1.1865 1.22943 1.28721
1938.990 1.3384 1.4273 1.5223 1.5796 1.6163 1.6963 1.7849 1.8016 1.8111 1.8511
1958.283 1.8749 1.8935 1.967 1.9756 1.9007 1.858 1.792 1.6856 1.579 1.4827
1977.577 1.401 1.3274 1.23466 1.1113 1.039 0.973 0.927 0.943 0.961 0.913
1996.870 0.871 0.893 0.875 0.839 0.856 0.907 0.901 0.89 0.917 0.929
2016.164 0.921 0.914 0.946 0.983 0.973 0.963 1.006 1.05 1.057 1.085
2035.457 1.093 1.087 1.069 1.03 1.036 1.048 0.998 0.976 0.974 0.958
2054.750 0.967 0.971 0.939 0.907 0.87 0.847 0.883 0.896 0.875 0.881
2074.044 0.908 0.898 0.88 0.86 0.839 0.833 0.824 0.813 0.791 0.789
2093.337 0.779 0.775 0.792 0.784 0.775 0.766 0.785 0.799 0.778 0.78
2112.631 0.747 0.756 0.809 0.8 0.784 0.782 0.797 0.785 0.753 0.74
2131.924 0.759 0.773 0.753 0.768 0.781 0.748 0.758 0.748 0.737 0.776
2151.218 0.787 0.775 0.765 0.76 0.751 0.73 0.739 0.752 0.734 0.707
2170.511 0.703 0.73 0.735 0.706 0.666 0.704 0.758 0.755 0.731 0.7
2189.804 0.671 0.68 0.722 0.728 0.71 0.71 0.695 0.68 0.678 0.692
2209.098 0.725 0.711 0.677 0.697 0.738 0.745 0.735 0.712 0.715 0.726
2228.391 0.714 0.712 0.72 0.738 0.764 0.742 0.734 0.768 0.774 0.745
2247.685 0.752 0.786 0.763 0.745 0.741 0.763 0.827 0.825 0.809 0.823
2266.978 0.791 0.783 0.819 0.814 0.81 0.817 0.813 0.821 0.787 0.784
2286.272 0.818 0.796 0.782 0.771 0.783 0.767 0.712 0.752 0.809 0.821
2305.565 0.821 0.833 0.856 0.874 0.939 0.998 1.012 1.004 1.004 1.026
2324.858 1.031 1.062 1.068 1.018 0.951 0.908 0.935 0.935 0.882 0.87
2344.152 0.915 0.923 0.909 0.892 0.887 0.913 0.888 0.839 0.821 0.809
2363.445 0.813 0.842 0.891 0.863 0.846 0.892 0.913 0.929 0.929 0.942
2382.739 0.954 0.979 0.968 0.954 0.948 0.936 0.971 0.971 0.944 0.959
2402.032 0.934 0.921 0.957 0.941 0.936 0.964 0.963 0.922 0.883 0.87
2421.326 0.889 0.871 0.803 0.763 0.748 0.744 0.776 0.772 0.709 0.645
2440.619 0.658 0.724 0.721 0.689 0.677 0.691 0.646 0.611 0.655 0.666
2459.912 0.663 0.633 0.592 0.64 0.675 0.608 0.56 0.571 0.578 0.584
2479.206 0.602 0.621 0.646 0.628 0.578 0.619 0.651 0.632 0.625 0.633
2498.499 0.622 0.579 0.528 0.495 0.479 0.536 0.585 0.54 0.537 0.59
2517.793 0.602 0.615 0.638 0.639 0.635 0.622 0.603 0.598 0.589 0.566
2537.086 0.564 0.539 0.507 0.562 0.603 0.606 0.633 0.588 0.579 0.586
2556.380 0.57 0.587 0.609 0.653 0.656 0.636 0.628 0.592 0.648 0.72
2575.673 0.743 0.775 0.759 0.783 0.887 1.003 1.096 1.1662 1.21639 1.30749
2594.966 1.3314 1.28789 1.25135 1.1954 1.21425 1.23861 1.1707 1.019 0.919 0.853
2614.260 0.744 0.698 0.66 0.612 0.65 0.681 0.657 0.645 0.652 0.601
2633.553 0.6 0.642 0.616 0.571 0.601 0.644 0.586 0.554 0.609 0.683
2652.847 0.639 0.564 0.544 0.519 0.551 0.57 0.541 0.536 0.514 0.48
2672.140 0.518 0.598 0.605 0.542 0.534 0.565 0.561 0.546 0.534 0.522
2691.434 0.546 0.583 0.598 0.613 0.638 0.666 0.585 0.496 0.516 0.543
2710.727 0.481 0.392 0.409 0.471 0.498 0.476 0.492 0.481 0.459 0.528
2730.020 0.488 0.37 0.372 0.446 0.447 0.443 0.42 0.413 0.431 0.43
2749.314 0.515 0.511 0.517 0.571 0.475 0.486 0.51 0.448 0.428 0.421
2768.607 0.519 0.544 0.522 0.515 0.474 0.506 0.515 0.519 0.538 0.549
2787.901 0.575 0.624 0.604 0.574 0.565 0.528 0.577 0.631 0.599 0.55
2807.194 0.569 0.622 0.682 0.608 0.555 0.515 0.492 0.535 0.476 0.441
2826.488 0.419 0.421 0.47 0.421 0.41 0.482 0.513 0.435 0.402 0.407
2845.781 0.36 0.374 0.326 0.42 0.523 0.424 0.286 0.397 0.506 0.406
2865.074 0.414 0.482 0.477 0.477 0.53 0.493 0.46 0.462 0.498 0.589
2884.368 0.593 0.542 0.523 0.434 0.303 0.343 0.422 0.435 0.486 0.484
2903.661 0.442 0.475 0.52 0.447 0.452 0.505 0.438 0.452 0.474 0.486
2922.955 0.466 0.429 0.444 0.415 0.354 0.323 0.32 0.24 0.243 0.29
2942.248 0.277 0.316 0.456 0.485 0.399 0.365 0.306 0.21 0.09 0.12
2961.542 0.232 0.239 0.28 0.348 0.248 0.2 0.334 0.33 0.248 0.318
2980.835 0.353 0.327 0.244 0.234 0.409 0.441 0.416 0.432 0.472 0.364
3000.128 0.428 0.618 0.612 0.79 0.911 0.947 1.042 1.099 1.24616 1.5535
3019.422 1.7516 1.8565 2.112 2.46 2.83 3.14 3.33 3.48 3.73 4.09
3038.715 4.38 4.44 4.31 4.37 4.58 4.66 4.72 4.84 5.06 5.45
3058.009 5.93 6.42 7.22 8.32 9.28 10.24 11.09 11.51 11.73 12.01
3077.302 12.02 11.79 11.5 10.74 9.75 8.76 7.79 7.21 6.86 6.5
3096.596 6.11 5.81 5.32 4.65 4.08 3.53 3.07 2.66 2.2028 1.834
3115.889 1.5797 1.4493 1.23174 0.957 0.888 0.849 0.718 0.499 0.429 0.406
3135.182 0.333 0.533 0.555 0.458 0.529 0.58 0.635 0.615 0.492 0.506
3154.476 0.69 0.794 0.746 0.752 0.706 0.621 0.561 0.406 0.376 0.442
3173.769 0.573 0.577 0.491 0.421 0.357 0.3 0.11 0.14 0.304 0.19
3193.063 0.11 0.224 0.248 0.17 0 0.04 0.268 0.36 0.373 0.15
3212.356 0.03 0.13 0.245 0.27 0.2 0.255 0.254 0.18 0.21 0.324
3231.650 0.45 0.408 0.305 0.324 0.274 0.235 0.248 0.255 0.365 0.436
3250.943 0.372 0.306 0.405 0.452 0.38 0.344 0.324 0.263 0.223 0.2
3270.236 0.373 0.615 0.586 0.388 0.349 0.468 0.408 0.368 0.386 0.352
3289.530 0.326 0.442 0.517 0.505 0.458 0.39 0.564 0.629 0.51 0.418
3308.823 0.446 0.56 0.577 0.464 0.446 0.441 0.374 0.521 0.594 0.4
3328.117 0.348 0.539 0.666 0.626 0.699 0.721 0.697 0.779 0.77 0.778
3347.410 0.651 0.604 0.783 0.896 0.866 0.919 0.893 0.87 1.09 1.1877
3366.704 1.3377 1.4339 1.4404 1.5189 1.3626 1.24762 1.30697 1.5073 1.7405 1.7351
3385.997 1.5284 1.486 1.5916 1.6146 1.7421 1.7697 1.6642 1.5964 1.4374 1.1832
3405.290 1.23685 1.3265 1.25578 1.22742 1.056 0.96 1.024 1.049 0.996 0.939
3424.584 0.88 0.794 0.88 0.896 0.808 0.818 0.759 0.758 0.84 0.833
3443.877 0.829 0.844 0.75 0.758 0.745 0.702 0.764 0.812 0.776 0.72
3463.171 0.76 0.776 0.73 0.736 0.756 0.742 0.71 0.577 0.572 0.678
3482.464 0.694 0.826 0.817 0.742 0.746 0.619 0.669 0.72 0.631 0.706
3501.758 0.798 0.767 0.768 0.868 0.773 0.708 0.815 0.871 0.921 0.995
3521.051 1.104 1.24389 1.3787 1.4225 1.3666 1.2466 1.109 1.103 1.21769 1.23914
3540.344 1.1128 0.904 0.857 0.952 0.91 0.769 0.765 0.778 0.769 0.788
3559.638 0.712 0.672 0.827 0.927 1.021 1.017 0.914 0.923 0.888 0.763
3578.931 0.618 0.631 0.72 0.811 0.943 0.986 0.885 0.831 0.82 0.778
3598.225 0.777 0.782 0.741 0.719 0.795 0.868 0.965 0.967 0.776 0.613
3617.518 0.713 0.727 0.617 0.688 0.896 0.904 0.788 0.848 0.878 0.777
3636.812 0.63 0.684 0.821 0.782 0.716 0.788 0.798 0.779 0.77 0.767
3656.105 0.814 0.86 0.813 0.719 0.792 0.874 0.851 0.81 0.772 0.793
3675.398 0.807 0.778 0.817 0.733 0.688 0.811 0.902 0.922 0.84 0.799
3694.692 0.785 0.931 1.018 0.942 1.017 0.93 0.788 0.816 0.921 0.91
3713.985 0.826 0.863 0.78 0.769 0.845 0.822 0.834 0.888 0.857 0.812
3733.279 0.867 0.891 0.891 0.904 0.919 0.85 0.839 0.909 0.887 0.854
3752.572 0.809 0.819 0.886 0.904 0.846 0.786 0.919 0.937 0.921 0.997
3771.866 0.936 0.884 0.781 0.781 0.867 0.863 0.793 0.791 0.83 0.791
3791.159 0.836 0.857 0.696 0.532 0.595 0.732 0.803 0.781 0.75 0.738
3810.452 0.736 0.758 0.743 0.766 0.831 0.866 0.724 0.571 0.628 0.71
3829.746 0.784 0.83 0.838 0.748 0.66 0.705 0.661 0.713 0.817 0.789
3849.039 0.685 0.72 0.843 0.796 0.712 0.665 0.767 0.846 0.847 0.876
3868.333 0.851 0.847 0.83 0.742 0.763 0.828 0.798 0.706 0.672 0.751
3887.626 0.8 0.721 0.651 0.793 0.779 0.691 0.76 0.826 0.885 0.909
3906.920 0.878 0.709 0.674 0.705 0.754 0.825 0.779 0.766 0.729 0.726
3926.213 0.739 0.783 0.858 0.797 0.705 0.703 0.712 0.693 0.699 0.726
3945.506 0.697 0.716 0.78 0.731 0.661 0.672 0.755 0.793 0.772 0.811
3964.800 0.762 0.667 0.672 0.7 0.712 0.718 0.705 0.715 0.763 0.804
3984.093 0.719 0.727 0.844 0.829 0.807 0.828 0.898 0.897 0.928
##END=
