##TITLE=Mirex
##JCAMP-DX=4.24
##DATA TYPE=INFRARED SPECTRUM
##ORIGIN=NIST Mass Spectrometry Data Center
##OWNER=NIST Standard Reference Data Program
Collection (C) 2018 copyright by the U.S. Secretary of Commerce
on behalf of the United States of America. All rights reserved.
##CAS REGISTRY NO=2385-85-5
##MOLFORM=C 10 Cl 12
##$NIST SOURCE=MSDC-IR
##SPECTROMETER/DATA SYSTEM=HP-GC/MS/IRD
##STATE=gas
##XUNITS=1/CM
##YUNITS=ABSORBANCE
##XFACTOR=1.0
##YFACTOR=0.000002500
##DELTAX=4.0
##FIRSTX=550.0
##LASTX=3846.0
##FIRSTY=0.000798
##MAXX=3846
##MINX=550
##MAXY=0.025
##MINY=0
##NPOINTS=825
##XYDATA=(X++(Y..Y))
550.0 319 378 176 219 216 183 168 173 145 124
590.0 127 146 171 161 137 144 172 201 258 326
630.0 472 776 1334 2321 3750 5020 5174 4381 3572 2628
670.0 1454 672 395 336 335 305 254 241 276 283
710.0 233 173 125 97 76 40 20 43 58 53
750.0 41 44 100 216 313 292 206 174 195 225
790.0 261 337 484 713 1023 1433 1917 2465 2700 2215
830.0 1410 836 502 332 257 199 132 89 70 78
870.0 118 199 343 499 520 375 250 226 234 235
910.0 163 82 53 50 56 57 71 91 141 306
950.0 620 1033 1400 1504 1300 956 642 472 449 508
990.0 607 684 722 691 642 678 747 788 837 895
1030.0 987 1269 1828 2811 4316 6185 7709 7710 6179 4378
1070.0 3202 2613 2182 1688 1184 808 624 586 643 791
1110.0 1083 1618 2582 3976 4921 4551 3923 5027 8070 10000
1150.0 7865 3944 1710 1051 835 756 742 751 760 793
1190.0 821 818 791 765 718 639 582 549 517 486
1230.0 471 461 436 410 395 383 367 356 344 337
1270.0 328 312 297 276 261 246 232 222 219 219
1310.0 214 211 208 197 187 176 175 178 181 176
1350.0 176 178 174 175 160 146 148 143 135 145
1390.0 139 137 142 139 133 115 96 85 85 82
1430.0 65 51 42 36 34 29 38 38 31 25
1470.0 21 31 20 19 29 26 29 34 27 32
1510.0 38 33 29 35 28 17 38 38 38 38
1550.0 36 43 42 46 44 45 47 61 78 67
1590.0 55 53 61 60 46 54 73 75 73 64
1630.0 66 82 89 82 87 104 107 99 105 103
1670.0 103 111 111 138 134 120 137 153 144 131
1710.0 136 140 131 123 120 119 125 131 123 112
1750.0 108 113 124 121 115 120 122 117 101 98
1790.0 107 108 117 119 114 122 118 116 124 126
1830.0 129 125 123 128 131 132 133 132 127 119
1870.0 116 108 97 101 108 107 103 100 98 94
1910.0 93 90 87 86 89 94 95 92 94 91
1950.0 91 93 97 98 93 92 93 90 88 92
1990.0 93 92 90 86 92 103 102 97 91 95
2030.0 94 87 93 94 90 87 77 77 79 82
2070.0 81 73 78 82 76 75 76 77 78 79
2110.0 83 78 70 77 89 82 63 76 88 91
2150.0 88 78 74 78 89 92 100 102 92 81
2190.0 71 69 60 48 46 46 45 50 51 53
2230.0 49 35 45 50 46 48 55 63 63 63
2270.0 61 54 61 69 63 65 66 64 70 74
2310.0 69 62 62 63 57 53 57 58 49 48
2350.0 54 58 48 40 40 32 33 45 44 42
2390.0 44 48 50 46 54 57 48 41 38 40
2430.0 44 52 52 56 62 57 47 53 56 53
2470.0 49 46 49 60 77 74 58 49 37 38
2510.0 50 49 46 49 54 56 45 35 36 36
2550.0 43 48 61 66 49 47 49 54 52 40
2590.0 42 50 56 55 57 59 44 31 32 33
2630.0 42 44 38 33 36 38 31 37 47 47
2670.0 49 48 49 55 45 39 41 39 48 46
2710.0 38 42 37 33 39 33 25 37 53 49
2750.0 39 36 39 38 36 40 37 27 20 30
2790.0 41 33 15 2 6 19 19 23 21 16
2830.0 17 19 31 36 25 21 27 29 31 29
2870.0 26 31 34 40 50 45 35 39 36 33
2910.0 33 37 33 40 44 31 36 46 50 30
2950.0 13 29 38 34 24 36 55 38 30 39
2990.0 40 51 47 38 51 47 31 34 35 22
3030.0 27 58 63 56 60 52 49 62 61 48
3070.0 54 63 48 45 41 44 49 38 42 43
3110.0 35 32 35 38 28 17 16 19 25 24
3150.0 32 41 36 21 19 18 27 54 47 31
3190.0 34 42 44 45 49 52 42 36 40 43
3230.0 53 44 22 41 47 35 29 34 36 20
3270.0 26 38 35 34 41 52 46 55 54 44
3310.0 54 54 57 44 45 49 64 63 50 57
3350.0 59 51 54 68 71 66 65 68 68 59
3390.0 63 74 83 86 79 83 90 95 77 60
3430.0 66 75 77 70 64 84 96 68 61 66
3470.0 68 77 91 89 68 60 76 107 111 80
3510.0 75 89 98 91 89 102 114 107 97 74
3550.0 51 85 105 94 96 97 115 114 85 71
3590.0 69 92 82 60 70 65 57 37 43 61
3630.0 61 74 91 79 56 66 73 81 87 76
3670.0 87 82 55 39 65 95 84 60 50 57
3710.0 62 73 53 26 21 4 6 38 71 59
3750.0 81 67 31 40 40 55 53 19 0 8
3790.0 34 55 65 68 51 33 46 64 54 45
3830.0 48 62 67 44 30
##END=
