##TITLE=2-Vinyl-4,4,6-trimethyl-5,6-dihydro-1,3-[4H]oxazine
##JCAMP-DX=4.24
##DATA TYPE=INFRARED SPECTRUM
##ORIGIN=EPA-IR VAPOR PHASE LIBRARY
##OWNER=SRD/NIST
Collection (C) 2018 copyright by the U.S. Secretary of Commerce
on behalf of the United States of America. All rights reserved.
##CAS REGISTRY NO=23878-88-8
##MOLFORM=C 9 H 15 N O
##$NIST SOURCE=MSDC-IR
##STATE=gas
##XUNITS=1/CM
##YUNITS=ABSORBANCE
##XFACTOR=1.
##YFACTOR=0.001
##DELTAX=1.929
##FIRSTX=549.8
##LASTX=4000.8
##FIRSTY=4.3
##MAXX=4000.75
##MINX=549.766
##MAXY=0.04537
##MINY=0
##NPOINTS=1790
##XYDATA=(X++(Y..Y))
549.766 4.3 6.65 6.79 12.47 12.09 6.2151 4.762 0.61 0 8.92
569.056 10.18 6.0116 4.704 3.13 2.52 2.73 2.97 4.631 3.27 0.85
588.346 0.35 2.32 3.42 1.86 1.48 1.95 2.26 0.96 0.53 2.6
607.636 3.37 2.97 3.24 3.19 2.79 3.19 3.42 3.74 3.22 1.84
626.926 1.61 1.7 2.03 2.75 3.3 3.14 3.23 3.24 2.98 2.82
646.216 3.45 3.78 2.96 3.52 3.68 3.17 2.93 2.52 3.12 3.22
665.506 3.28 2.92 2.59 3.24 3.21 3.22 3.36 3.36 3.53 3.49
684.796 3.61 3.73 3.64 3.62 3.3 3.61 3.8 3.86 4.13 3.95
704.086 4.24 4.23 3.91 3.64 3.35 3.81 4.33 4.526 4.889 4.15
723.376 3.91 3.58 3.17 3.97 3.94 3.85 3.94 4.12 3.92 4.07
742.666 4.37 4.07 4.3 4.785 5.139 5.56409 5.7912 6.0058 6.341 6.95
761.956 7.56 7.58 7.53 7.64 7.68 7.72 7.6 7.28 7.12 6.87
781.246 6.66 6.4473 6.1395 5.7461 5.4283 5.063 4.707 5.01 5.4071 5.252
800.536 4.873 4.11 4.18 4.45 4.95 4.498 2.33 3.14 3.66 2.84
819.826 4.05 5.11 4.954 5.06 5.161 5.271 5.6959 5.9811 6.0044 6.2382
839.116 6.62 6.86 7.18 7.73 7.91 8.02 8.33 8.16 8.05 8.17
858.406 8.07 7.63 7.16 7.13 7.13 6.83 6.66 6.74 6.52 6.0657
877.696 6.0904 6.0848 5.52261 4.984 5.234 5.5701 5.6362 5.6902 5.7488 6.0286
896.986 6.2917 6.67 7 6.83 6.83 6.93 6.89 7.07 7.31 7.65
916.276 7.84 8.13 8.67 9.18 10.01 11.21 12.08 12.41 13.26 15.5
935.566 18.59 17.99 15 13.98 13.94 13.87 13.03 11.21 9.68 8.85
954.856 8.1 7.36 6.7 6.4655 6.6 6.75 6.48 6.7 7.36 7.47
974.146 8.1 9.03 9.81 10.47 11.04 11.61 11.71 11.79 11.96 12.21
993.436 11.92 10.85 9.8 9.32 8.91 8.14 7.73 7.45 7 7.07
1012.726 7.06 6.98 7.33 7.55 7.95 9.06 10.46 12.01 13.58 14.4
1032.016 14.8 15.82 17.14 17.9 18.07 17.88 17.8 17.51 16.83 16.39
1051.306 15.8 15.13 15.06 14.61 13.64 13.08 12.67 12.59 12.52 12.75
1070.596 13.49 14.23 14.67 14.96 15.6 16.08 16.39 16.64 16.36 15.76
1089.886 14.85 13.86 12.94 11.64 10.43 9.37 8.52 8.23 7.84 7.22
1109.176 6.76 6.72 6.85 6.77 6.89 7.1 7.25 7.77 8.12 8.08
1128.467 8.52 9.25 9.8 10.07 10.22 11.08 12.17 12.89 13.69 14.06
1147.757 14.46 15.05 15.86 16.85 18.08 19.08 19.73 21.09 22.02 22.46
1167.047 23.54 24.49 24.71 24.83 24.78 24.34 24.15 24.11 24.08 23.99
1186.337 23.73 23.03 22.23 21.42 20.06 18.87 17.69 16.71 15.36 13.94
1205.627 13.42 12.99 12.71 12.56 12.46 12.52 12.47 12.02 12.13 12.46
1224.917 13.26 14.23 14.69 15.7 16.76 17.65 17.97 18.11 18.68 18.52
1244.207 18.29 18.63 19.02 19.68 20.53 21.16 22.61 24.93 27.57 30.57
1263.497 33.44 36.06 38.07 39.58 40.17 39.79 38.83 37.89 36.4 33.45
1282.787 30.17 27.41 25.21 23.02 21.01 19.22 17.67 16.37 15.28 14.62
1302.077 13.8 12.66 11.6 10.58 9.64 9 8.22 7.4 6.93 6.76
1321.367 6.68 6.4341 6.3853 6.4306 6.3084 6.3837 6.2717 6.1544 6.4121 6.68
1340.657 6.85 6.96 7.19 7.4 7.67 8.24 8.77 9.45 10.16 10.68
1359.947 11.36 12.16 13.33 14.33 14.09 13.6 13.85 14.4 14.71 14.72
1379.237 14.87 14.71 14.28 13.93 13.46 12.96 12.57 12.05 11.42 11
1398.527 10.79 10.64 10.78 11.17 11.46 11.6 11.51 11.42 11.15 10.69
1417.817 10.02 9.16 8.62 8.27 7.89 7.44 7.19 7.24 7.36 7.71
1437.107 8.12 8.36 8.49 8.86 9.09 9.14 9.37 9.35 9.42 9.35
1456.397 9.2 9.17 8.87 8.76 8.56 8.3 8.13 7.83 7.37 6.9
1475.687 6.58 6.4171 6.1642 5.9031 5.54452 5.243 5.201 4.987 4.869 4.702
1494.977 4.557 4.43 4.45 4.689 4.628 4.534 4.42 4.18 4.36 4.596
1514.267 4.519 4.496 4.515 4.604 4.663 4.633 4.811 4.879 4.827 4.965
1533.557 5.052 4.848 4.795 4.827 4.981 4.927 4.658 4.643 4.752 4.885
1552.847 4.947 5.011 5.006 4.91 4.806 4.833 4.933 5.113 5.234 5.4273
1572.137 5.6535 5.7317 5.8269 6.0635 6.3894 6.72 7.06 7.54 8.3 9.31
1591.427 10.7 12.27 14.14 16.54 19.17 21.9 24.32 26.23 27.56 28.24
1610.717 28.46 27.93 26.16 23.67 21.19 18.14 14.78 12.1 10.42 9.64
1630.007 9.52 9.67 10.12 11.17 12.47 14.05 16.08 18.44 21.33 24.52
1649.297 27.74 30.61 33.33 35.5 36.87 37.45 36.93 35.18 32.54 29.64
1668.587 26.22 22.35 18.45 15.17 12.52 10.79 9.61 8.66 7.92 7.4
1687.877 7.32 7.26 7.15 6.9 6.66 6.53 6.56 6.6 6.1796 5.9226
1707.167 5.9232 5.9346 5.6486 5.304 5.098 4.881 4.788 4.754 4.816 4.768
1726.457 4.719 4.732 4.688 4.44 4.4 4.601 4.563 4.42 4.498 4.43
1745.747 4.33 4.501 4.43 4.38 4.527 4.43 4.3 4.33 4.28 4.27
1765.037 4.38 4.41 4.43 4.545 4.644 4.484 4.21 4.18 4.17 4.23
1784.327 4.25 4.1 4.19 4.28 4.29 4.27 4.26 4.23 4.07 4.12
1803.617 4.22 4.3 4.26 4.31 4.515 4.43 4.13 3.98 4.11 4.35
1822.907 4.31 4.18 4.26 4.16 3.93 3.73 3.86 4.07 4.02 4.01
1842.197 4.01 4.08 4.11 4.02 4.07 4.14 4.18 4.29 4.37 4.43
1861.487 4.535 4.678 5.072 5.277 5.286 5.5995 5.7255 5.7146 5.6875 5.6384
1880.777 5.6542 5.47888 5.156 5.13 5.076 4.843 4.653 4.522 4.697 4.624
1900.067 4.35 4.35 4.36 4.38 4.21 4.15 4.27 4.07 4.12 4.21
1919.357 4.03 3.95 4.05 4.09 4.22 4.33 4.14 4.12 4.15 4.18
1938.647 4.2 3.95 3.73 3.71 3.83 3.89 3.82 3.85 3.83 3.86
1957.937 4.04 4.15 4.07 3.97 4.03 3.87 3.63 3.68 3.78 3.88
1977.227 3.92 4.09 4.09 4.1 4.09 3.96 4.12 3.95 3.76 3.85
1996.517 3.93 4 4.03 4.11 3.99 3.79 3.79 3.78 3.9 4
2015.807 3.94 3.92 3.93 3.86 3.92 4.05 4.08 4.21 4.31 4.09
2035.097 3.94 4.15 4.11 3.91 3.91 3.95 3.9 4.03 4.19 4.06
2054.387 3.86 3.76 3.73 4 4.01 3.69 3.71 3.71 3.71 3.9
2073.677 3.9 3.82 3.97 3.87 3.83 3.76 3.74 3.93 3.92 4.06
2092.967 4.07 3.78 3.77 3.92 3.85 3.8 3.83 3.83 3.85 3.91
2112.257 3.91 3.98 3.94 3.81 3.81 3.89 3.76 3.73 4.01 4.05
2131.547 3.9 3.81 3.86 3.94 3.71 3.74 3.93 3.94 3.89 3.81
2150.837 3.77 3.69 3.87 3.95 3.72 3.78 3.91 3.91 3.66 3.5
2170.127 3.92 4.07 3.88 3.98 4.07 3.94 3.77 3.76 3.83 3.78
2189.417 3.72 3.82 3.82 3.76 3.8 3.8 3.87 3.78 3.78 4.08
2208.707 4.06 3.74 3.71 3.74 3.82 3.85 3.73 3.76 3.99 3.86
2227.997 3.76 3.83 3.73 3.74 3.59 3.56 3.6 3.65 3.73 3.77
2247.287 3.94 3.79 3.62 3.78 3.77 3.69 3.77 3.72 3.49 3.39
2266.577 3.65 3.81 3.7 3.8 3.9 3.85 3.87 3.83 3.98 3.96
2285.868 3.66 3.6 3.61 3.71 3.81 3.7 3.68 3.79 3.74 3.81
2305.158 3.75 3.57 3.47 3.53 3.5 3.43 3.59 3.62 3.42 3.48
2324.448 3.45 3.24 3.61 3.81 3.84 3.77 3.6 3.69 3.69 3.76
2343.738 4.15 4.3 4.06 3.82 3.5 3.51 3.59 3.46 3.58 3.8
2363.028 3.64 3.5 3.64 3.66 3.6 3.6 3.73 3.78 3.51 3.56
2382.318 3.87 3.92 3.99 3.63 3.54 3.75 3.6 3.9 4.2 3.87
2401.608 3.75 4.08 4.06 3.73 3.63 3.77 3.74 3.45 3.36 3.4
2420.898 3.43 3.39 3.41 3.54 3.53 3.71 3.76 3.69 3.75 3.71
2440.188 3.73 3.91 4 3.75 3.74 3.81 3.75 3.73 3.44 3.37
2459.478 3.61 3.97 4.06 3.9 3.78 3.96 3.96 3.91 4 3.73
2478.768 3.52 3.79 3.84 3.58 3.59 3.77 3.84 3.67 3.79 3.84
2498.058 3.96 4.04 3.78 3.59 3.68 3.82 3.93 4.05 3.91 3.88
2517.348 3.81 3.51 3.5 3.52 3.75 4.07 3.9 3.78 3.74 3.7
2536.638 3.97 4.02 3.9 4.01 4.09 4.08 4.2 4.16 3.85 3.88
2555.928 3.9 3.72 3.66 3.71 3.69 3.71 3.72 3.87 3.94 3.9
2575.218 4.01 3.94 3.94 4.11 4.24 4.24 3.98 3.84 3.85 3.86
2594.508 3.81 3.59 3.49 3.68 3.88 3.75 3.47 3.72 4.01 3.96
2613.798 3.78 3.8 4.1 4.13 3.7 3.56 3.91 3.89 3.71 3.9
2633.088 3.8 3.67 3.67 3.67 4.01 4.24 4.25 3.88 3.77 3.96
2652.378 4.06 4.17 4.03 3.68 3.6 3.61 3.32 3.54 3.92 4.03
2671.668 3.8 3.49 3.55 3.69 3.9 3.92 3.67 3.45 3.73 4.07
2690.958 3.9 3.86 4.03 3.86 3.62 3.68 3.91 4.17 4.12 3.91
2710.248 3.79 3.71 3.81 4.09 4.22 4.486 4.594 4.38 4.22 4.03
2729.538 4.07 4.32 4.15 4.01 3.97 3.78 4.14 4.15 3.68 3.88
2748.828 4.07 4.12 4.23 4.21 4.38 4.581 4.594 4.44 4.37 4.26
2768.118 4.17 4.19 4.02 4.01 4.07 4.18 4.27 4.495 4.38 4.08
2787.408 4.12 4.18 4.21 4.08 4.3 4.517 4.37 3.91 4.37 4.618
2806.698 4.42 4.554 4.39 4.713 5.092 5.138 4.974 4.639 4.507 4.41
2825.988 4.696 4.901 4.746 4.87 5.041 5.129 5.4527 6.0692 6.4223 6.52
2845.278 6.59 6.85 7.06 7.18 7.27 7.57 7.71 7.72 8.23 8.77
2864.568 8.93 9.43 9.7 9.93 10.59 10.58 10.54 10.95 10.95 11.01
2883.858 11.3 11.15 11.09 11.19 11.56 12.3 12.97 13.75 14.4 15.31
2903.148 16.48 17.32 18.12 18.87 19.36 20 20.83 21.78 22.78 23.22
2922.438 22.87 22.93 23.81 25.12 26.79 27.94 28.87 30.16 31.18 31.54
2941.728 30.68 29.15 27.66 25.81 24.03 21.83 19.78 18.3 18.05 19.17
2961.018 20.85 23.23 26.24 29.88 33.55 37.41 40.44 42.36 44.19 45.37
2980.308 44.92 42.57 39.06 36.14 32.63 27.41 22.56 18.61 15.42 12.78
2999.598 10.35 9.18 8.48 7.36 6.84 6.64 6.4178 6.0708 5.48205 5.354
3018.888 5.344 5.6084 5.7882 5.5914 5.7148 6.3115 6.68 6.71 6.6 6.76
3038.178 6.6 6.51 6.89 6.7 6.1913 5.7807 6.0575 6.47 6.1567 5.56592
3057.468 5.46249 5.49145 5.4367 5.273 4.868 4.41 4.603 5.085 5.139 4.984
3076.758 4.706 4.827 5.145 4.996 4.521 4.564 4.809 5.119 5.5018 5.5823
3096.048 5.7336 6.0208 6.61 6.82 6.89 6.96 6.82 7.04 7.25 7.28
3115.338 6.69 5.9111 5.222 4.863 4.832 4.33 4.24 4.722 4.805 4.495
3134.628 4.3 4.12 3.89 4.24 4.654 4.559 4.853 4.36 3.84 3.98
3153.918 3.37 3.74 4.49 4.26 4.19 4.19 4.17 4.4 4.43 4.32
3173.208 4.778 4.477 4.09 4.544 4.784 4.37 3.76 3.82 4.17 4.47
3192.498 4.542 4.506 4.3 4.495 4.843 4.496 4.24 4.41 4.19 4.44
3211.788 4.708 4.3 4.22 4.29 4.926 5.156 4.33 4.04 4.31 4.11
3231.078 3.65 3.47 3.92 4.3 3.98 4.05 4.41 4.23 4.34 4.702
3250.368 4.608 4.722 4.913 4.645 4.37 4.677 4.81 4.11 4.17 4.623
3269.658 4.969 4.812 4.05 4.01 4.32 4.616 4.754 4.55 4.42 4.877
3288.948 4.838 4.3 4.36 4.28 4.22 4.29 3.96 4.09 4.496 4.881
3308.238 4.699 4.33 4.718 4.774 4.908 5.032 4.891 4.479 4.21 4.559
3327.528 4.61 4.2 3.72 3.48 3.77 4.41 4.531 4.702 4.705 3.83
3346.818 3.33 3.27 3 3.02 3.58 3.59 3.45 3.97 3.81 3.74
3366.108 3.84 3.9 4.38 3.97 3.66 3.49 3.1 3.76 3.67 3.18
3385.398 3.42 3.75 3.92 3.97 4.513 4.17 3.53 3.56 3.74 3.82
3404.688 4.03 4.37 3.8 3.5 4.3 4.4 3.88 4.39 4.558 4.2
3423.978 4.28 4.26 4.22 3.76 3.73 3.75 3.76 3.71 3.81 4.17
3443.269 3.99 3.72 3.6 4.07 4.1 3.9 3.88 3.55 3.4 3.4
3462.559 3.7 4.27 4.561 4.22 3.64 3.61 4.07 4.1 4.18 4.16
3481.849 3.78 4.11 4.06 3.66 4.06 4.11 3.94 4.21 4 3.46
3501.139 3.62 3.8 4.06 4.13 3.69 3.38 3.74 4 3.93 3.46
3520.429 3.64 4.28 3.76 3.61 3.87 3.46 3.27 3.72 3.98 4.35
3539.719 4.06 3.58 3.99 4.25 4.36 4.35 3.97 3.94 4.35 4.792
3559.009 4.576 3.79 3.85 4.23 3.87 3.69 3.7 4.04 4.2 4.02
3578.299 3.91 3.44 3.59 3.67 3.24 3.62 4 3.71 3.61 4.05
3597.589 4.07 4.44 4.746 4.1 3.9 4.23 4.04 3.87 4.22 4.02
3616.879 3.33 3.02 3.96 4.785 4.45 3.97 3.72 3.58 3.6 3.75
3636.169 3.69 3.54 3.67 4.19 3.93 3.62 4.44 4.503 3.95 4.26
3655.459 4.35 3.74 3.61 3.95 3.97 3.85 3.69 3.55 3.77 3.71
3674.749 3.43 3.37 3.63 4.14 4.07 4.02 4.33 3.99 3.44 4.25
3694.039 4.538 4.28 4.596 4.28 4.42 4.29 4.04 4.12 4.681 4.993
3713.329 4.31 3.58 3.5 4.25 4.42 4.22 4.03 3.81 3.77 3.61
3732.619 3.61 4.17 4.75 4.997 5.055 5.105 4.706 4.995 4.65 3.9
3751.909 3.64 3.57 3.88 4.01 4 4.37 4.39 3.92 3.74 3.87
3771.199 4.18 4.4 4.25 3.76 3.77 3.99 4.18 4.17 4.28 4.22
3790.489 4.17 3.71 3.29 3.48 3.86 4.02 3.29 3.18 3.76 3.73
3809.779 3.88 4.44 4.823 4.38 3.7 3.66 3.73 3.71 3.76 3.68
3829.069 3.65 3.39 3.36 3.75 4.18 5.06 5.03 4.493 4.36 4.748
3848.359 5.021 4.01 3.07 3.42 3.96 4.28 4.748 4.712 4 3.97
3867.649 3.97 3.72 3.69 3.4 3.5 4.46 4.661 4.39 4.44 4.25
3886.939 3.96 3.61 4.33 4.41 3.53 3.32 3.75 3.29 3.44 4.34
3906.229 3.92 3.28 3.69 3.77 3.52 3.92 3.87 4.06 4.27 4.13
3925.519 3.79 3.93 4.37 4.807 4.47 4.707 4.882 3.94 4.05 4.1
3944.809 3.58 3.68 3.63 3.22 3.53 3.85 3.44 3.52 3.78 3.72
3964.099 3.82 4.25 4.47 4.25 3.93 3.42 3.41 3.82 4.33 4.13
3983.389 4.12 4.23 4.02 4.15 3.88 3.48 3.59 4.03 3.67 3.3
##END=
