##TITLE=(-)-Noe's reagent,(-)-MBF-OH dimer
##JCAMP-DX=4.24
##DATA TYPE=INFRARED SPECTRUM
##ORIGIN=EPA-IR VAPOR PHASE LIBRARY
##OWNER=SRD/NIST
Collection (C) 2018 copyright by the U.S. Secretary of Commerce
on behalf of the United States of America. All rights reserved.
##CAS REGISTRY NO=239-35-0
##MOLFORM=C 24 H 38 O 3
##$NIST SOURCE=MSDC-IR
##STATE=gas
##XUNITS=1/CM
##YUNITS=ABSORBANCE
##XFACTOR=1.
##YFACTOR=0.001
##DELTAX=1.92898
##FIRSTX=549.8
##LASTX=4000.7
##FIRSTY=1.824
##MAXX=4000.7
##MINX=549.759
##MAXY=0.068904
##MINY=0
##NPOINTS=1790
##XYDATA=(X++(Y..Y))
549.759 1.824 1.4946 1.0064 1.303 1.7292 1.3839 1.2708 1.4875 1.4246 1.1716
569.049 1.1153 1.0324 0.9215 1.2686 1.4399 1.7398 1.784 1.5298 1.5087 1.3221
588.339 1.2876 1.4725 1.2307 0.9774 0.79847 0.80514 0.9531 0.631 0.565 0.616
607.628 0.74895 0.9105 0.6976 0.6543 1.0901 1.784 1.4551 0.622 0.75729 0.911
626.918 0.79249 0.82538 0.9476 0.747444 0.481 0.449 0.457 0.6891 0.8952 1.0728
646.208 0.9864 0.9214 1.0245 1.4773 1.5437 1.3873 1.4022 1.0289 0.9549 0.80402
665.498 0.623 1.053 1.4344 1.379 1.0569 0.76672 0.9671 1.2228 1.5168 1.824
684.787 1.794 1.994 2.584 3.574 4.644 5.054 5.454 6.114 7.074 7.744
704.077 7.884 8.784 9.674 10.154 10.874 11.754 12.524 13.824 15.184 14.594
723.367 12.864 11.384 10.264 9.084 7.174 5.284 4.344 3.534 2.644 2.544
742.657 2.874 2.984 2.894 3.424 4.214 4.444 4.734 5.734 6.494 6.714
761.947 6.344 5.754 5.674 5.034 4.404 4.134 3.604 3.054 2.814 3.094
781.236 3.054 2.704 2.754 2.634 2.574 2.564 2.344 1.964 1.4924 1.4125
800.526 1.5932 1.3868 1.2777 1.5085 1.6669 1.689 1.884 1.834 1.894 2.284
819.816 2.054 1.924 2.334 2.684 3.114 3.374 3.204 3.244 3.284 3.104
839.106 2.884 2.564 2.354 1.984 1.5877 1.6747 1.349 1.1428 1.4152 1.3936
858.395 1.3759 1.3972 1.3034 1.3648 1.5024 1.5915 1.814 1.6795 1.5299 2.074
877.685 2.434 2.544 2.544 2.744 3.314 3.334 2.934 2.694 2.384 2.274
896.975 2.304 1.974 1.6502 1.5318 1.5882 1.744 1.874 1.934 1.914 1.894
916.265 1.7424 1.5767 1.754 2.274 2.314 2.054 2.084 2.294 2.534 2.584
935.555 2.814 3.184 3.734 3.824 3.554 3.714 4.044 4.014 4.034 4.654
954.844 5.004 5.264 5.724 6.474 7.614 8.654 9.944 11.714 13.184 14.374
974.134 15.524 16.574 17.414 17.744 17.494 16.614 15.534 14.194 12.364 10.504
993.424 8.934 7.824 7.274 6.694 6.374 6.384 6.654 7.004 7.244 7.694
1012.714 8.284 9.724 11.494 13.074 14.814 16.014 16.764 17.494 17.474 16.794
1032.003 16.044 15.334 13.644 11.284 9.174 7.424 6.034 5.504 5.704 5.914
1051.293 6.194 6.884 7.504 8.034 8.724 8.694 8.664 8.944 8.614 7.434
1070.583 7.084 7.224 6.574 6.704 7.204 7.104 6.494 7.344 8.524 7.204
1089.873 6.554 6.644 5.984 5.484 5.354 4.704 3.384 3.334 3.984 4.064
1109.163 4.074 3.604 2.964 2.814 3.164 3.974 5.494 6.804 7.144 9.034
1128.452 11.584 12.874 14.944 18.264 21.524 24.134 26.094 27.164 25.854 23.604
1147.742 21.664 18.574 15.334 12.754 9.404 6.754 5.064 3.414 3.084 2.994
1167.032 2.454 1.994 1.794 2.384 2.644 2.404 2.384 2.374 2.884 2.574
1186.322 1.954 1.7405 1.7058 1.5651 1.814 2.394 1.874 1.764 2.754 2.694
1205.611 2.004 2.434 1.764 0.9588 1.1123 1.5195 1.834 1.4432 1.4483 1.814
1224.901 1.0818 0 0.438 1.1833 0.8716 1.0523 1.1126 1.035 1.964 2.244
1244.191 1.914 2.094 2.584 2.754 2.354 2.794 3.234 2.704 2.574 2.534
1263.481 2.834 2.544 1.844 2.054 2.214 2.084 2.104 2.364 2.464 2.354
1282.771 2.494 2.364 2.214 2.414 2.574 2.654 2.374 2.304 2.544 2.474
1302.060 2.214 2.014 1.904 1.844 1.6239 1.3765 1.48 1.4811 1.3486 1.2907
1321.350 1.3614 1.3993 1.3543 1.5408 1.6861 1.6799 1.784 1.884 1.864 1.834
1340.640 1.854 1.934 1.974 2.034 2.204 2.504 2.804 3.104 3.524 3.864
1359.930 4.274 4.734 5.074 5.504 5.964 6.394 6.764 7.214 7.554 7.674
1379.219 7.804 7.804 7.704 7.724 7.734 7.434 7.114 7.014 6.624 5.794
1398.509 5.364 4.974 4.224 3.524 2.884 2.344 2.054 2.004 1.994 2.054
1417.799 2.124 2.074 2.104 2.204 2.384 2.594 2.694 2.944 3.254 3.534
1437.089 3.784 4.094 4.564 4.994 5.324 5.574 5.944 6.354 6.604 6.804
1456.378 6.994 7.094 7.194 7.484 7.684 7.914 8.254 8.444 8.664 8.834
1475.668 8.814 8.574 8.184 7.744 7.274 6.764 6.064 5.344 4.824 4.184
1494.958 3.504 3.024 2.664 2.384 2.144 1.994 1.804 1.6917 1.6778 1.5187
1514.248 1.5005 1.433 1.2385 1.2512 1.3632 1.3396 1.1896 1.1728 1.1882 1.1978
1533.538 1.3234 1.3349 1.2776 1.249 1.3072 1.3302 1.223 1.2104 1.0999 1.0955
1552.827 1.2716 1.3206 1.3331 1.4392 1.4914 1.4697 1.6014 1.884 2.044 2.044
1572.117 2.174 2.364 2.634 3.064 3.534 4.054 4.654 5.344 6.104 6.844
1591.407 7.864 8.894 9.814 10.724 11.674 12.614 13.184 13.414 13.294 13.034
1610.697 12.814 12.384 11.194 9.724 8.434 7.204 6.114 5.004 3.774 2.844
1629.986 2.204 1.844 1.794 1.7422 1.6502 1.5041 1.3836 1.5384 1.5727 1.5055
1649.276 1.4123 1.2262 1.1986 1.0994 1.0724 1.166 1.2036 1.1545 1.1925 1.2733
1668.566 1.1655 1.077 1.1391 1.2412 1.1219 1.1132 1.1508 1.0263 1.0509 1.1081
1687.856 1.0332 0.9334 0.9739 0.9666 0.9095 1.025 1.0135 0.9245 1.0076 1.0648
1707.146 1.017 0.9578 0.9567 0.9741 0.9723 0.883 0.8457 0.9097 0.9322 1.0221
1726.435 1.043 0.9745 0.9657 0.9938 1.0316 0.9632 0.83429 0.8653 0.9805 0.9882
1745.725 1.0489 1.1566 1.1137 1.1529 1.3161 1.2472 1.3249 1.5688 1.764 1.944
1765.015 1.924 1.884 1.944 1.974 1.854 1.7169 1.5765 1.4043 1.3787 1.2216
1784.305 1.0543 1.0623 1.0282 0.8664 0.726 0.84341 0.9237 0.814 0.79119 0.8929
1803.594 0.9874 1.0041 0.9312 0.8937 0.9379 0.945 0.80799 0.7837 0.81126 0.752355
1822.884 0.75723 0.82352 0.83831 0.81809 0.81967 0.8377 0.9077 0.8636 0.8527 0.8484
1842.174 0.77663 0.81866 0.8507 0.8665 0.969 1.0114 0.931 0.8721 0.83401 0.8953
1861.464 0.9093 0.81833 0.76215 0.80733 0.8904 0.9084 0.9269 0.8908 0.7952 0.83102
1880.754 0.9109 0.9333 0.9582 0.8754 0.8337 0.8851 0.8909 0.8447 0.7319 0.7172
1900.043 0.78696 0.80934 0.8815 0.904 0.8956 0.9414 0.9284 0.80369 0.749504 0.7772
1919.333 0.83226 0.8657 0.8867 0.8995 0.83346 0.752028 0.8449 0.9493 0.8624 0.83082
1938.623 0.84174 0.83876 0.83259 0.855 0.9587 0.9754 0.911 0.9173 0.9276 0.9618
1957.913 1.0039 1.0438 0.9748 0.9459 0.9421 0.9503 0.9953 0.992 0.9163 0.8688
1977.202 0.9689 0.9001 0.9213 0.9783 0.9801 0.8943 0.84365 0.9291 1.019 1.0782
1996.492 1.0255 0.9969 1.1343 1.2473 1.1436 1.1381 1.1219 1.0972 1.1361 1.0904
2015.782 1.0245 0.9347 0.9246 0.992 1.0886 1.1723 1.2191 1.1692 1.0651 0.945
2035.072 0.8771 0.9747 1.0268 1.0623 1.1356 1.1611 1.0947 1.0733 1.1687 1.1732
2054.362 1.0733 1.0531 1.1113 1.1592 1.0827 0.9245 1.0178 1.049 0.9461 0.903
2073.651 0.8969 0.9696 1.0255 0.9992 1.0237 1.0788 1.0042 0.9335 0.9297 1.0215
2092.941 1.0252 0.947 0.9123 0.9763 1.0432 1.0734 0.9875 0.9411 1.0843 1.1211
2112.231 1.0701 0.9764 0.9736 1.1364 1.1151 0.9726 0.9735 0.9488 0.9784 1.078
2131.521 0.9402 0.9351 1.0702 0.9681 1.0289 1.0908 1.0063 1.0202 0.9382 0.82466
2150.810 0.8687 0.9409 1.0185 1.0907 0.945 0.79977 0.8543 0.8953 0.9243 0.848
2170.100 0.80374 0.9397 0.9865 0.9323 0.9661 0.9279 0.83512 0.9482 1.1082 1.0249
2189.390 0.9061 0.8985 0.82322 0.76338 0.81463 0.8965 0.9076 0.9756 1.0621 0.9829
2208.680 0.9436 0.9026 0.9293 0.9492 0.9222 0.9589 0.9856 1.0298 1 1.0498
2227.970 1.0779 0.9824 0.915 0.846 0.750704 0.82332 0.8853 0.862 0.84386 0.80069
2247.259 0.82029 0.8911 0.967 0.9541 0.8729 0.8553 0.898 0.9188 0.9667 0.9746
2266.549 0.9918 1.0133 0.9895 1.0848 1.0125 0.8924 1.0274 1.1405 1.1802 1.2223
2285.839 1.1383 1.0198 0.9626 1.0117 1.0421 1.0437 0.9537 0.83626 1.0664 1.1166
2305.129 0.9412 0.9618 0.9367 0.81028 0.8013 0.9147 1.0032 1.0013 1.0489 0.9385
2324.418 0.8864 1.0085 1.0005 1.1063 1.1195 1.0295 0.9671 0.83438 0.743453 0.78285
2343.708 0.9394 1.0377 1.066 0.9947 0.8663 0.8603 0.8981 0.9259 0.8784 0.80556
2362.998 0.8927 0.9672 0.9125 0.82334 0.7216 0.81037 0.8927 0.76908 0.76348 0.8504
2382.288 0.9228 0.9492 0.8364 0.7834 0.9418 0.9944 0.8582 0.83144 0.83488 0.8583
2401.578 0.8555 0.9798 1.021 0.9083 0.9518 0.9228 0.84177 0.76851 0.77344 0.82499
2420.867 0.83305 0.9476 1.0213 0.8757 0.7978 0.8761 0.9584 0.81432 0.80395 0.9203
2440.157 0.9827 0.9693 0.8993 0.83151 0.78454 0.81649 0.8809 0.871 0.8215 0.8556
2459.447 0.81266 0.750324 0.77177 0.8418 0.8489 0.8695 0.928 1.0178 1.0135 0.8872
2478.737 0.8989 0.9728 1.0292 0.9733 0.9762 1.121 1.0438 0.9389 1.0781 1.0721
2498.026 0.9572 0.944 0.8927 0.9573 1.0697 0.947 0.9968 1.0588 0.9344 0.8551
2517.316 0.77049 0.8864 0.9293 0.8735 0.8474 0.83023 0.82515 0.9023 1.1007 1.0762
2536.606 0.82078 0.75622 0.7331 0.8499 1.0519 1.0605 1.0737 1.1455 1.1188 0.9167
2555.896 0.79027 0.9253 1.0478 1.0401 1.0854 1.1886 1.2112 1.0267 0.9128 0.9604
2575.186 0.9713 0.84185 0.8864 1.0615 1.1008 1.2129 1.2212 1.0754 1.1127 1.2661
2594.475 1.072 0.9623 1.182 1.1656 1.1223 1.0853 1.0659 1.1248 1.0416 1.0698
2613.765 1.049 0.9339 0.9187 1.0669 1.1419 0.9072 0.82396 0.94 1.0866 1.0802
2633.055 0.975 0.8912 0.8933 0.9218 0.9408 1.047 1.053 1.0707 1.1018 1.0062
2652.345 0.9629 1.0034 1.0584 1.1876 1.3319 1.1876 0.9184 0.9357 1.0421 1.1897
2671.634 1.155 1.0181 0.918 0.9804 1.0592 0.9507 0.8661 0.84071 0.8982 1.1852
2690.924 1.2556 1.045 1.0922 1.1122 0.9793 1.0658 1.1816 1.1916 1.1494 1.084
2710.214 1.083 1.1376 1.2499 1.2082 1.2267 1.313 1.4676 1.4919 1.414 1.5624
2729.504 1.764 1.854 1.824 1.7071 1.5809 1.6228 1.6443 1.4918 1.5979 1.6579
2748.794 1.5117 1.296 1.1392 1.234 1.285 1.1802 1.1051 1.2408 1.4262 1.5387
2768.083 1.5442 1.4177 1.4757 1.5689 1.5236 1.4036 1.3086 1.2662 1.3251 1.5651
2787.373 1.5016 1.4319 1.5009 1.473 1.4979 1.5508 1.662 1.6145 1.4601 1.5787
2806.663 1.6596 1.804 1.904 1.854 1.994 2.054 2.004 2.144 2.184 2.174
2825.953 2.324 2.154 2.134 2.424 2.594 2.484 2.564 2.844 2.874 2.834
2845.242 2.764 2.864 3.124 3.274 3.534 3.834 4.144 4.774 5.274 5.904
2864.532 7.154 8.584 9.844 10.894 12.284 13.964 15.384 16.654 17.844 18.794
2883.822 19.574 20.144 20.274 20.164 19.964 19.674 19.284 18.734 18.404 18.134
2903.112 17.974 18.224 18.694 19.484 20.404 21.394 22.784 24.634 26.814 29.404
2922.401 32.194 35.244 39.214 43.584 48.164 52.824 57.074 61.324 65.054 67.764
2941.691 68.904 67.494 64.754 62.354 60.494 58.864 57.184 55.864 55.204 54.544
2960.981 53.724 52.334 50.504 48.664 46.334 43.524 40.634 37.424 34.464 32.694
2980.271 30.944 28.774 27.244 26.224 24.904 23.394 22.094 20.874 19.444 17.824
2999.561 15.954 13.994 12.204 10.434 8.804 7.334 6.164 5.394 4.394 3.784
3018.850 3.474 3.204 3.284 3.194 2.804 2.634 2.624 2.554 2.414 2.384
3038.140 2.224 2.174 2.334 2.364 2.224 2.174 2.124 1.914 2.004 2.014
3057.430 1.924 2.134 2.374 2.364 2.414 2.564 2.524 2.414 2.424 2.354
3076.720 2.524 2.754 2.974 3.304 3.574 4.064 4.474 4.774 5.334 5.944
3096.009 6.394 6.554 6.754 6.974 6.624 5.824 5.204 4.674 4.034 3.504
3115.299 2.914 2.444 2.204 2.064 1.894 1.6888 1.5595 1.6635 1.5264 1.2924
3134.589 1.528 1.814 1.6568 1.414 1.4506 1.4454 1.4261 1.4587 1.587 1.754
3153.879 1.7302 1.4904 1.3611 1.3151 1.2866 1.1569 1.1449 1.1265 1.3379 1.3618
3173.169 1.1484 1.4467 1.549 1.3299 1.4878 1.4835 1.0879 1.1549 1.236 1.1556
3192.458 1.2717 1.3847 1.2354 1.1522 1.3175 1.4589 1.2082 0.9603 1.091 1.3233
3211.748 1.4661 1.3666 1.2258 1.2049 1.4472 1.4248 1.0984 0.9391 1.0733 1.2372
3231.038 1.0829 0.8917 0.8513 0.9113 1.0151 0.9257 0.84323 0.84329 0.744901 0.78007
3250.328 0.81719 0.9321 0.8909 0.80567 0.6847 0.631 0.8716 0.8733 0.8604 0.81029
3269.617 0.631 0.6657 0.745642 0.6724 0.6595 0.82514 1.0324 0.9071 0.753669 0.80137
3288.907 0.81572 0.9437 1.1259 1.1268 1.0313 1.0289 0.8999 0.83868 0.9466 0.8741
3308.197 0.9759 1.1879 1.0059 0.862 0.82155 0.6958 0.753771 0.7163 0.75816 0.9848
3327.487 0.9847 0.7005 0.473 0.75944 1.0681 0.80006 0.6832 0.8583 1.0212 1.1219
3346.777 1.045 0.9898 0.8785 0.6724 0.6763 0.9986 1.0049 0.7117 0.641 0.509
3366.066 0.503 0.744101 0.9307 0.83577 0.7218 0.9122 0.8848 0.75813 0.6553 0.452
3385.356 0.508 0.81102 0.79864 0.456 0.536 0.81191 0.74104 0.6983 0.681 0.7024
3404.646 0.89 0.9338 0.75569 0.637 0.750548 0.948 0.9566 0.8736 0.555 0.495
3423.936 0.671 0.8546 0.83227 0.6972 0.591 0.549 0.9613 0.9424 0.7086 0.7262
3443.225 0.6898 0.75982 0.6993 0.549 0.6922 0.751274 0.539 0.513 0.77642 0.79411
3462.515 0.81544 0.8984 0.8593 0.9906 0.849 0.6643 0.75927 0.79171 0.8643 0.8135
3481.805 0.639 0.7997 0.889 0.639 0.76831 0.8715 0.6927 0.7215 0.751732 1.0165
3501.095 1.0392 0.9078 0.9383 0.80152 0.8882 0.84239 0.61 0.581 0.79615 0.9345
3520.385 0.9448 1.1447 1.2077 1.1751 0.9227 0.54 0.7299 0.9256 0.77221 0.7175
3539.674 0.9751 1.1394 1.0245 0.80309 0.7592 0.9232 0.8962 0.79632 0.6684 0.583
3558.964 0.589 0.479 0.447 0.744836 0.81169 0.58 0.8614 1.0473 0.79349 0.571
3578.254 0.6792 1.0287 0.9772 0.9497 0.687 0.595 0.623 0.428 0.633 0.77431
3597.544 0.7198 0.80774 0.9253 0.6795 0.56 0.8706 0.955 0.78288 0.6845 0.6917
3616.833 0.6544 0.7296 0.9205 0.744385 0.641 0.6533 0.477 0.6889 0.9074 0.8676
3636.123 0.9375 0.8444 0.8166 0.80749 0.82003 0.8448 0.8753 0.8934 0.82239 0.79629
3655.413 0.518 0.452 0.77172 0.76213 0.688 0.6492 0.403 0.239 0.443 0.638
3674.703 0.604 0.611 0.605 0.628 0.7013 0.82904 0.9084 0.8816 0.82518 0.81342
3693.993 0.79074 0.6767 0.631 0.7248 0.8913 0.9101 0.78586 0.644 0.444 0.589
3713.282 0.7315 0.6616 0.7622 0.9068 0.9199 0.75996 0.68 0.8964 0.9292 0.7556
3732.572 0.75471 0.6699 0.627 0.7031 0.518 0.363 0.516 0.929 1.0544 1.0506
3751.862 1.1047 0.8699 1.0074 1.1107 0.926 0.77377 0.9078 0.996 0.747784 0.544
3771.152 0.589 0.582 0.42 0.628 0.9639 1.0214 0.9825 0.8984 0.505 0.41
3790.441 0.6962 0.652 0.548 0.639 0.591 0.6789 0.7161 0.8642 1.1903 0.8725
3809.731 0.77074 0.9394 1.0497 1.0836 0.9315 1.0027 1.0559 1.0236 0.9698 0.8709
3829.021 0.82223 0.80848 0.6495 0.611 0.77326 0.8452 0.79172 0.9065 0.9907 1.0553
3848.311 0.81121 0.557 0.77206 0.83986 0.7401 0.76215 0.76469 0.8501 0.80681 0.6683
3867.601 0.78233 0.9148 0.9261 0.7348 0.8715 1.0618 1.0155 0.592 0.258 0.4
3886.890 0.461 0.581 0.9479 1.1781 0.8517 0.562 0.7304 0.79023 0.63 0.545
3906.180 0.532 0.387 0.529 0.6874 0.6891 0.9179 0.9807 0.84026 0.79317 0.8961
3925.470 0.9384 0.9403 1.1383 1.401 1.0608 0.7644 0.9314 0.9534 1.0645 1.2869
3944.760 1.1868 0.9745 0.82505 0.845 1.0619 1.0317 1.0004 0.8843 0.78504 0.8722
3964.049 0.7054 0.544 0.7192 0.9654 1.0173 0.9683 0.9768 0.9509 0.83092 0.73639
3983.339 0.7235 0.9244 0.8718 0.934 1.0296 0.6751 0.73698 0.79523 0.753858 0.7032
##END=
